I, II, III, aVR, aVL, aVF, V1, V2, V3, V4, V5, V6
-136,-185,-48,161,-43,-117,204,48,-29,-107,-126,-126
-136,-185,-48,161,-43,-117,204,48,-29,-107,-126,-126
-136,-185,-48,161,-43,-117,204,48,-29,-107,-126,-126
-136,-185,-48,161,-43,-117,204,48,-29,-107,-126,-126
-141,-195,-53,168,-43,-124,214,58,-29,-102,-126,-126
-146,-195,-48,170,-48,-122,214,58,-29,-97,-126,-126
-151,-195,-43,173,-53,-119,214,58,-29,-92,-126,-126
-156,-195,-39,175,-58,-117,214,58,-29,-87,-126,-126
-146,-195,-48,170,-48,-122,214,58,-39,-97,-136,-126
-146,-195,-48,170,-48,-122,214,58,-39,-107,-136,-126
-146,-195,-48,170,-48,-122,214,58,-39,-117,-136,-126
-146,-195,-48,170,-48,-122,214,58,-39,-126,-136,-126
-146,-195,-48,170,-48,-122,214,48,-29,-122,-136,-136
-146,-195,-48,170,-48,-122,214,48,-29,-117,-136,-136
-146,-195,-48,170,-48,-122,214,48,-29,-112,-136,-136
-146,-195,-48,170,-48,-122,214,48,-29,-107,-136,-136
-151,-195,-43,173,-53,-119,224,48,-39,-107,-126,-126
-156,-195,-39,175,-58,-117,224,48,-39,-107,-126,-126
-161,-195,-34,178,-63,-114,224,48,-39,-107,-126,-126
-165,-195,-29,180,-68,-112,224,48,-39,-107,-126,-126
-165,-204,-39,185,-63,-122,229,58,-39,-112,-136,-126
-165,-204,-39,185,-63,-122,234,58,-39,-117,-136,-126
-165,-204,-39,185,-63,-122,239,58,-39,-122,-136,-126
-165,-204,-39,185,-63,-122,244,58,-39,-126,-136,-126
-165,-214,-48,190,-58,-131,244,58,-48,-136,-141,-136
-165,-214,-48,190,-58,-131,244,58,-48,-136,-146,-136
-165,-214,-48,190,-58,-131,244,58,-48,-136,-151,-136
-165,-214,-48,190,-58,-131,244,58,-48,-136,-156,-136
-175,-214,-39,195,-68,-126,253,48,-58,-122,-146,-136
-175,-214,-39,195,-68,-126,253,48,-58,-117,-146,-136
-175,-214,-39,195,-68,-126,253,48,-58,-112,-146,-136
-175,-214,-39,195,-68,-126,253,48,-58,-107,-146,-136
-175,-214,-39,195,-68,-126,263,48,-68,-122,-156,-146
-175,-214,-39,195,-68,-126,263,48,-68,-126,-156,-146
-175,-214,-39,195,-68,-126,263,48,-68,-131,-156,-146
-175,-214,-39,195,-68,-126,263,48,-68,-136,-156,-146
-185,-214,-29,200,-78,-122,273,39,-73,-136,-156,-146
-185,-214,-29,200,-78,-122,273,39,-78,-136,-156,-146
-185,-214,-29,200,-78,-122,273,39,-82,-136,-156,-146
-185,-214,-29,200,-78,-122,273,39,-87,-136,-156,-146
-190,-204,-14,197,-87,-109,283,39,-87,-136,-156,-136
-195,-204,-9,200,-92,-107,283,39,-87,-136,-156,-136
-200,-204,-4,202,-97,-104,283,39,-87,-136,-156,-136
-204,-204,0,204,-102,-102,283,39,-87,-136,-156,-136
-214,-214,0,214,-107,-107,287,48,-87,-141,-165,-146
-214,-214,0,214,-107,-107,292,48,-87,-146,-165,-146
-214,-214,0,214,-107,-107,297,48,-87,-151,-165,-146
-214,-214,0,214,-107,-107,302,48,-87,-156,-165,-146
-219,-219,0,219,-109,-109,317,39,-97,-165,-175,-156
-224,-224,0,224,-112,-112,322,39,-97,-165,-175,-156
-229,-229,0,229,-114,-114,326,39,-97,-165,-175,-156
-234,-234,0,234,-117,-117,331,39,-97,-165,-175,-156
-244,-234,9,239,-126,-112,336,29,-102,-175,-185,-165
-244,-234,9,239,-126,-112,341,29,-107,-175,-185,-165
-244,-234,9,239,-126,-112,346,29,-112,-175,-185,-165
-244,-234,9,239,-126,-112,351,29,-117,-175,-185,-165
-248,-234,14,241,-131,-109,356,19,-131,-175,-185,-156
-253,-234,19,244,-136,-107,361,19,-136,-175,-185,-156
-258,-234,24,246,-141,-104,366,19,-141,-175,-185,-156
-263,-234,29,248,-146,-102,370,19,-146,-175,-185,-156
-278,-244,34,261,-156,-104,385,14,-161,-190,-190,-165
-283,-244,39,263,-161,-102,390,9,-165,-195,-195,-165
-287,-244,43,265,-165,-100,395,4,-170,-200,-200,-165
-292,-244,48,268,-170,-97,400,0,-175,-204,-204,-165
-307,-248,58,278,-183,-95,405,-4,-190,-219,-209,-170
-312,-253,58,283,-185,-97,409,-9,-195,-224,-214,-175
-317,-258,58,287,-187,-100,414,-14,-200,-229,-219,-180
-322,-263,58,292,-190,-102,419,-19,-204,-234,-224,-185
-331,-263,68,297,-200,-97,424,-34,-214,-244,-224,-175
-341,-263,78,302,-209,-92,429,-39,-224,-244,-224,-175
-351,-263,87,307,-219,-87,434,-43,-234,-244,-224,-175
-361,-263,97,312,-229,-82,439,-48,-244,-244,-224,-175
-380,-273,107,326,-244,-82,453,-58,-253,-258,-234,-185
-390,-273,117,331,-253,-78,458,-68,-263,-263,-234,-185
-400,-273,126,336,-263,-73,463,-78,-273,-268,-234,-185
-409,-273,136,341,-273,-68,468,-87,-283,-273,-234,-185
-429,-273,156,351,-292,-58,473,-107,-302,-278,-239,-185
-439,-273,165,356,-302,-53,478,-117,-312,-283,-244,-185
-448,-273,175,361,-312,-48,483,-126,-322,-287,-248,-185
-458,-273,185,366,-322,-43,488,-136,-331,-292,-253,-185
-473,-283,190,378,-331,-46,492,-151,-346,-302,-263,-185
-488,-283,204,385,-346,-39,497,-165,-361,-312,-263,-185
-502,-283,219,392,-361,-31,502,-180,-375,-322,-263,-185
-517,-283,234,400,-375,-24,507,-195,-390,-331,-263,-185
-531,-273,258,402,-395,-7,517,-219,-414,-341,-268,-185
-546,-273,273,409,-409,0,517,-234,-429,-351,-273,-185
-561,-273,287,417,-424,7,517,-248,-444,-361,-278,-185
-575,-273,302,424,-439,14,517,-263,-458,-370,-283,-185
-590,-278,312,434,-451,17,527,-287,-478,-380,-292,-185
-605,-283,322,444,-463,19,527,-302,-488,-380,-292,-185
-619,-287,331,453,-475,21,527,-317,-497,-380,-292,-185
-634,-292,341,463,-488,24,527,-331,-507,-380,-292,-185
-649,-287,361,468,-505,36,536,-356,-522,-395,-292,-175
-663,-283,380,473,-522,48,536,-370,-536,-400,-292,-175
-678,-278,400,478,-539,61,536,-385,-551,-405,-292,-175
-692,-273,419,483,-556,73,536,-400,-566,-409,-292,-175
-707,-268,439,488,-573,85,522,-414,-580,-405,-287,-161
-712,-263,448,488,-580,92,517,-429,-585,-400,-283,-156
-717,-258,458,488,-588,100,512,-444,-590,-395,-278,-151
-722,-253,468,488,-595,107,507,-458,-595,-390,-273,-146
-727,-239,488,483,-607,124,488,-473,-600,-390,-258,-141
-732,-234,497,483,-614,131,478,-488,-605,-390,-253,-136
-736,-229,507,483,-622,139,468,-502,-610,-390,-248,-131
-741,-224,517,483,-629,146,458,-517,-614,-390,-244,-126
-741,-214,527,478,-634,156,439,-522,-610,-380,-229,-117
-741,-204,536,473,-639,165,429,-527,-605,-370,-224,-107
-741,-195,546,468,-644,175,419,-531,-600,-361,-219,-97
-741,-185,556,463,-649,185,409,-536,-595,-351,-214,-87
-722,-165,556,444,-639,195,395,-536,-575,-336,-195,-78
-712,-156,556,434,-634,200,380,-536,-566,-322,-185,-68
-702,-146,556,424,-629,204,366,-536,-556,-307,-175,-58
-692,-136,556,414,-624,209,351,-536,-546,-292,-165,-48
-678,-131,546,405,-612,207,336,-517,-527,-283,-151,-39
-663,-126,536,395,-600,204,322,-507,-507,-273,-146,-39
-649,-122,527,385,-588,202,307,-497,-488,-263,-141,-39
-634,-117,517,375,-575,200,292,-488,-468,-253,-136,-39
-605,-107,497,356,-551,195,273,-468,-434,-229,-122,-29
-585,-97,488,341,-536,195,263,-448,-409,-204,-107,-19
-566,-87,478,326,-522,195,253,-429,-385,-180,-92,-9
-546,-78,468,312,-507,195,244,-409,-361,-156,-78,0
-517,-58,458,287,-488,200,229,-385,-326,-141,-63,4
-488,-48,439,268,-463,195,214,-361,-302,-126,-48,9
-458,-39,419,248,-439,190,200,-336,-278,-112,-34,14
-429,-29,400,229,-414,185,185,-312,-253,-97,-19,19
-395,-14,380,204,-387,183,170,-283,-219,-82,-14,29
-370,-9,361,190,-366,175,156,-263,-195,-68,-9,29
-346,-4,341,175,-344,168,141,-244,-170,-53,-4,29
-322,0,322,161,-322,161,126,-224,-146,-39,0,29
-287,0,287,143,-287,143,117,-204,-126,-29,0,29
-263,0,263,131,-263,131,107,-185,-107,-29,0,29
-239,0,239,119,-239,119,97,-165,-87,-29,0,29
-214,0,214,107,-214,107,87,-146,-68,-29,0,29
-190,9,200,90,-195,104,73,-122,-53,-9,4,29
-175,9,185,82,-180,97,68,-107,-39,0,9,29
-161,9,170,75,-165,90,63,-92,-24,9,14,29
-146,9,156,68,-151,82,58,-78,-9,19,19,29
-131,0,131,65,-131,65,53,-63,0,9,19,24
-117,0,117,58,-117,58,48,-48,9,9,19,19
-102,0,102,51,-102,51,43,-34,19,9,19,14
-87,0,87,43,-87,43,39,-19,29,9,19,9
-68,0,68,34,-68,34,34,-9,43,19,19,0
-58,0,58,29,-58,29,29,0,48,19,19,0
-48,0,48,24,-48,24,24,9,53,19,19,0
-39,0,39,19,-39,19,19,19,58,19,19,0
-29,-9,19,19,-24,4,9,24,68,14,14,-9
-19,-9,9,14,-14,0,9,29,68,9,9,-9
-9,-9,0,9,-4,-4,9,34,68,4,4,-9
0,-9,-9,4,4,-9,9,39,68,0,0,-9
4,-14,-19,4,12,-17,9,43,68,-9,-9,-19
9,-19,-29,4,19,-24,9,48,68,-9,-9,-19
14,-24,-39,4,26,-31,9,53,68,-9,-9,-19
19,-29,-48,4,34,-39,9,58,68,-9,-9,-19
29,-29,-58,0,43,-43,9,58,68,0,0,-19
29,-29,-58,0,43,-43,9,58,68,0,0,-19
29,-29,-58,0,43,-43,9,58,68,0,0,-19
29,-29,-58,0,43,-43,9,58,68,0,0,-19
29,-29,-58,0,43,-43,9,68,58,-9,-9,-9
29,-29,-58,0,43,-43,9,68,58,-9,-9,-9
29,-29,-58,0,43,-43,9,68,58,-9,-9,-9
29,-29,-58,0,43,-43,9,68,58,-9,-9,-9
29,-29,-58,0,43,-43,9,78,68,0,-9,-19
29,-29,-58,0,43,-43,9,78,68,0,-9,-19
29,-29,-58,0,43,-43,9,78,68,0,-9,-19
29,-29,-58,0,43,-43,9,78,68,0,-9,-19
39,-39,-78,0,58,-58,9,78,68,0,-9,-29
39,-39,-78,0,58,-58,9,78,68,0,-9,-29
39,-39,-78,0,58,-58,9,78,68,0,-9,-29
39,-39,-78,0,58,-58,9,78,68,0,-9,-29
48,-39,-87,-4,68,-63,9,78,68,-9,-19,-19
48,-39,-87,-4,68,-63,9,78,68,-9,-19,-19
48,-39,-87,-4,68,-63,9,78,68,-9,-19,-19
48,-39,-87,-4,68,-63,9,78,68,-9,-19,-19
58,-39,-97,-9,78,-68,0,78,68,-9,-9,-19
58,-39,-97,-9,78,-68,0,78,68,-9,-9,-19
58,-39,-97,-9,78,-68,0,78,68,-9,-9,-19
58,-39,-97,-9,78,-68,0,78,68,-9,-9,-19
48,-39,-87,-4,68,-63,9,87,68,0,-19,-29
48,-39,-87,-4,68,-63,9,87,68,0,-19,-29
48,-39,-87,-4,68,-63,9,87,68,0,-19,-29
48,-39,-87,-4,68,-63,9,87,68,0,-19,-29
39,-48,-87,4,63,-68,9,87,68,0,-19,-29
39,-48,-87,4,63,-68,9,87,68,0,-19,-29
39,-48,-87,4,63,-68,9,87,68,0,-19,-29
39,-48,-87,4,63,-68,9,87,68,0,-19,-29
48,-39,-87,-4,68,-63,9,78,68,9,-9,-19
48,-39,-87,-4,68,-63,9,78,68,9,-9,-19
48,-39,-87,-4,68,-63,9,78,68,9,-9,-19
48,-39,-87,-4,68,-63,9,78,68,9,-9,-19
39,-29,-68,-4,53,-48,0,78,68,0,-9,-19
39,-29,-68,-4,53,-48,0,78,68,0,-9,-19
39,-29,-68,-4,53,-48,0,78,68,0,-9,-19
39,-29,-68,-4,53,-48,0,78,68,0,-9,-19
48,-24,-73,-12,61,-48,0,78,68,9,0,-19
48,-19,-68,-14,58,-43,0,78,68,9,0,-19
48,-14,-63,-17,56,-39,0,78,68,9,0,-19
48,-9,-58,-19,53,-34,0,78,68,9,0,-19
48,-14,-63,-17,56,-39,9,78,68,0,-4,-29
48,-19,-68,-14,58,-43,9,78,68,0,-9,-29
48,-24,-73,-12,61,-48,9,78,68,0,-14,-29
48,-29,-78,-9,63,-53,9,78,68,0,-19,-29
39,-29,-68,-4,53,-48,9,78,68,9,-9,-19
39,-29,-68,-4,53,-48,9,78,68,9,-9,-19
39,-29,-68,-4,53,-48,9,78,68,9,-9,-19
39,-29,-68,-4,53,-48,9,78,68,9,-9,-19
39,-39,-78,0,58,-58,0,78,68,0,-9,-19
39,-39,-78,0,58,-58,0,78,68,0,-9,-19
39,-39,-78,0,58,-58,0,78,68,0,-9,-19
39,-39,-78,0,58,-58,0,78,68,0,-9,-19
39,-29,-68,-4,53,-48,0,78,78,9,-9,-29
39,-29,-68,-4,53,-48,0,78,78,9,-9,-29
39,-29,-68,-4,53,-48,0,78,78,9,-9,-29
39,-29,-68,-4,53,-48,0,78,78,9,-9,-29
39,-29,-68,-4,53,-48,0,68,68,0,-9,-29
39,-29,-68,-4,53,-48,0,68,68,0,-9,-29
39,-29,-68,-4,53,-48,0,68,68,0,-9,-29
39,-29,-68,-4,53,-48,0,68,68,0,-9,-29
29,-39,-68,4,48,-53,0,68,68,9,-9,-29
29,-39,-68,4,48,-53,0,68,68,9,-9,-29
29,-39,-68,4,48,-53,0,68,68,9,-9,-29
29,-39,-68,4,48,-53,0,68,68,9,-9,-29
39,-29,-68,-4,53,-48,-9,68,58,0,-9,-29
39,-29,-68,-4,53,-48,-9,68,58,0,-9,-29
39,-29,-68,-4,53,-48,-9,68,58,0,-9,-29
39,-29,-68,-4,53,-48,-9,68,58,0,-9,-29
39,-19,-58,-9,48,-39,-9,68,68,9,0,-19
39,-19,-58,-9,48,-39,-9,68,68,9,0,-19
39,-19,-58,-9,48,-39,-9,68,68,9,0,-19
39,-19,-58,-9,48,-39,-9,68,68,9,0,-19
39,-29,-68,-4,53,-48,-9,58,58,9,-9,-29
39,-29,-68,-4,53,-48,-9,58,58,9,-9,-29
39,-29,-68,-4,53,-48,-9,58,58,9,-9,-29
39,-29,-68,-4,53,-48,-9,58,58,9,-9,-29
29,-19,-48,-4,39,-34,-9,58,68,0,-9,-19
29,-19,-48,-4,39,-34,-9,58,68,0,-9,-19
29,-19,-48,-4,39,-34,-9,58,68,0,-9,-19
29,-19,-48,-4,39,-34,-9,58,68,0,-9,-19
39,-29,-68,-4,53,-48,-9,58,58,9,-9,-29
39,-29,-68,-4,53,-48,-9,58,58,9,-9,-29
39,-29,-68,-4,53,-48,-9,58,58,9,-9,-29
39,-29,-68,-4,53,-48,-9,58,58,9,-9,-29
39,-19,-58,-9,48,-39,-9,58,58,9,-9,-19
39,-19,-58,-9,48,-39,-9,58,58,9,-9,-19
39,-19,-58,-9,48,-39,-9,58,58,9,-9,-19
39,-19,-58,-9,48,-39,-9,58,58,9,-9,-19
39,-19,-58,-9,48,-39,-9,58,58,0,-9,-19
39,-19,-58,-9,48,-39,-9,58,58,0,-9,-19
39,-19,-58,-9,48,-39,-9,58,58,0,-9,-19
39,-19,-58,-9,48,-39,-9,58,58,0,-9,-19
29,-29,-58,0,43,-43,-19,58,58,0,-19,-29
29,-29,-58,0,43,-43,-19,58,58,0,-19,-29
29,-29,-58,0,43,-43,-19,58,58,0,-19,-29
29,-29,-58,0,43,-43,-19,58,58,0,-19,-29
29,-19,-48,-4,39,-34,-19,48,58,4,-14,-19
29,-19,-48,-4,39,-34,-19,48,58,9,-9,-19
29,-19,-48,-4,39,-34,-19,48,58,14,-4,-19
29,-19,-48,-4,39,-34,-19,48,58,19,0,-19
29,-19,-48,-4,39,-34,-19,48,58,9,0,-19
29,-19,-48,-4,39,-34,-19,48,58,9,0,-19
29,-19,-48,-4,39,-34,-19,48,58,9,0,-19
29,-19,-48,-4,39,-34,-19,48,58,9,0,-19
39,-29,-68,-4,53,-48,-19,48,48,-4,-4,-29
39,-29,-68,-4,53,-48,-19,48,48,-9,-9,-29
39,-29,-68,-4,53,-48,-19,48,48,-14,-14,-29
39,-29,-68,-4,53,-48,-19,48,48,-19,-19,-29
39,-29,-68,-4,53,-48,-19,48,58,-14,-9,-19
39,-29,-68,-4,53,-48,-19,48,58,-9,-9,-19
39,-29,-68,-4,53,-48,-19,48,58,-4,-9,-19
39,-29,-68,-4,53,-48,-19,48,58,0,-9,-19
29,-19,-48,-4,39,-34,-19,58,48,0,-9,-19
29,-19,-48,-4,39,-34,-19,58,48,0,-9,-19
29,-19,-48,-4,39,-34,-19,58,48,0,-9,-19
29,-19,-48,-4,39,-34,-19,58,48,0,-9,-19
29,-29,-58,0,43,-43,-19,48,58,0,-9,-19
29,-29,-58,0,43,-43,-19,48,58,0,-9,-19
29,-29,-58,0,43,-43,-19,48,58,0,-9,-19
29,-29,-58,0,43,-43,-19,48,58,0,-9,-19
29,-19,-48,-4,39,-34,-29,48,48,-9,-19,-29
29,-19,-48,-4,39,-34,-29,48,48,-9,-19,-29
29,-19,-48,-4,39,-34,-29,48,48,-9,-19,-29
29,-19,-48,-4,39,-34,-29,48,48,-9,-19,-29
39,-9,-48,-14,43,-29,-29,48,58,0,-19,-19
39,-9,-48,-14,43,-29,-29,48,58,0,-19,-19
39,-9,-48,-14,43,-29,-29,48,58,0,-19,-19
39,-9,-48,-14,43,-29,-29,48,58,0,-19,-19
29,-19,-48,-4,39,-34,-29,48,48,9,-14,-19
29,-19,-48,-4,39,-34,-29,48,48,9,-9,-19
29,-19,-48,-4,39,-34,-29,48,48,9,-4,-19
29,-19,-48,-4,39,-34,-29,48,48,9,0,-19
39,-19,-58,-9,48,-39,-19,48,58,4,-9,-19
39,-19,-58,-9,48,-39,-19,48,58,0,-9,-19
39,-19,-58,-9,48,-39,-19,48,58,-4,-9,-19
39,-19,-58,-9,48,-39,-19,48,58,-9,-9,-19
29,-19,-48,-4,39,-34,-29,48,48,-4,0,-19
29,-19,-48,-4,39,-34,-29,48,48,0,0,-19
29,-19,-48,-4,39,-34,-29,48,48,4,0,-19
29,-19,-48,-4,39,-34,-29,48,48,9,0,-19
29,-19,-48,-4,39,-34,-29,48,48,4,-9,-19
29,-19,-48,-4,39,-34,-29,48,48,0,-9,-19
29,-19,-48,-4,39,-34,-29,48,48,-4,-9,-19
29,-19,-48,-4,39,-34,-29,48,48,-9,-9,-19
29,-19,-48,-4,39,-34,-29,48,58,0,-9,-19
29,-19,-48,-4,39,-34,-29,48,58,0,-9,-19
29,-19,-48,-4,39,-34,-29,48,58,0,-9,-19
29,-19,-48,-4,39,-34,-29,48,58,0,-9,-19
29,-19,-48,-4,39,-34,-19,58,58,0,0,-19
29,-19,-48,-4,39,-34,-19,58,58,0,0,-19
29,-19,-48,-4,39,-34,-19,58,58,0,0,-19
29,-19,-48,-4,39,-34,-19,58,58,0,0,-19
29,-9,-39,-9,34,-24,-29,58,58,9,0,-19
29,-9,-39,-9,34,-24,-29,58,58,9,0,-19
29,-9,-39,-9,34,-24,-29,58,58,9,0,-19
29,-9,-39,-9,34,-24,-29,58,58,9,0,-19
29,-19,-48,-4,39,-34,-19,58,58,4,-9,-19
29,-19,-48,-4,39,-34,-19,58,58,0,-9,-19
29,-19,-48,-4,39,-34,-19,58,58,-4,-9,-19
29,-19,-48,-4,39,-34,-19,58,58,-9,-9,-19
39,-19,-58,-9,48,-39,-9,68,58,0,-9,-19
39,-19,-58,-9,48,-39,-9,68,58,0,-9,-19
39,-19,-58,-9,48,-39,-9,68,58,0,-9,-19
39,-19,-58,-9,48,-39,-4,73,58,0,-9,-19
39,-14,-53,-12,46,-34,-4,73,78,4,-9,-19
48,-14,-63,-17,56,-39,0,82,78,14,-4,-19
48,-14,-63,-17,56,-39,14,87,82,24,0,-24
48,-14,-63,-17,56,-39,19,92,87,29,4,-24
43,-24,-68,-9,56,-46,34,112,87,29,4,-24
53,-24,-78,-14,65,-51,34,117,87,24,4,-19
53,-19,-73,-17,63,-46,34,117,92,19,0,-14
53,-19,-73,-17,63,-46,34,117,102,14,-4,-14
53,-9,-63,-21,58,-36,39,117,92,24,4,-14
53,-9,-63,-21,58,-36,39,117,92,24,4,-19
58,-9,-68,-24,63,-39,34,126,97,24,4,-19
63,-9,-73,-26,68,-41,34,126,102,24,4,-14
78,-9,-87,-34,82,-48,34,126,102,29,0,-14
82,0,-82,-41,82,-41,29,126,107,29,4,-9
92,0,-92,-46,92,-46,19,126,107,39,9,-4
92,0,-92,-46,92,-46,14,126,107,39,9,-4
82,-4,-87,-39,85,-46,19,122,107,39,9,-4
87,-9,-97,-39,92,-53,14,122,107,39,9,-4
97,-14,-112,-41,104,-63,4,122,102,34,9,-9
102,-14,-117,-43,109,-65,-4,122,102,29,4,-9
117,0,-117,-58,117,-58,-19,112,97,29,4,0
122,19,-102,-70,112,-41,-39,107,97,34,19,9
131,34,-97,-82,114,-31,-43,102,97,48,34,24
131,58,-73,-95,102,-7,-48,97,97,53,43,34
131,87,-43,-109,87,21,-43,92,97,58,43,43
136,107,-29,-122,82,39,-48,87,102,68,58,53
141,117,-24,-129,82,46,-58,82,102,68,68,58
146,122,-24,-134,85,48,-68,78,102,68,73,68
146,141,-4,-143,75,68,-78,63,92,68,73,78
136,131,-4,-134,70,63,-82,58,82,68,68,78
131,117,-14,-124,73,51,-82,53,78,58,58,68
126,107,-19,-117,73,43,-87,53,73,53,53,63
117,82,-34,-100,75,24,-73,53,82,39,48,43
117,73,-43,-95,80,14,-73,58,82,39,43,39
126,68,-58,-97,92,4,-78,58,82,39,43,39
131,68,-63,-100,97,2,-78,68,92,39,43,39
146,73,-73,-109,109,0,-78,73,102,43,43,48
156,78,-78,-117,117,0,-78,82,107,58,53,53
156,78,-78,-117,117,0,-73,87,117,68,63,58
161,78,-82,-119,122,-2,-73,87,117,78,68,63
170,92,-78,-131,124,7,-68,97,107,82,68,53
170,92,-78,-131,124,7,-68,97,107,78,63,53
161,82,-78,-122,119,2,-63,92,97,58,58,53
161,63,-97,-112,129,-17,-63,92,92,43,48,43
151,53,-97,-102,124,-21,-73,82,97,43,39,43
156,48,-107,-102,131,-29,-78,82,92,39,39,39
156,43,-112,-100,134,-34,-78,78,92,39,39,39
156,39,-117,-97,136,-39,-78,78,87,39,34,39
146,48,-97,-97,122,-24,-73,68,78,43,43,34
131,43,-87,-87,109,-21,-73,63,78,43,39,29
131,39,-92,-85,112,-26,-63,63,78,43,39,24
126,39,-87,-82,107,-24,-58,73,78,43,39,24
136,43,-92,-90,114,-24,-43,87,92,43,34,19
136,43,-92,-90,114,-24,-43,87,92,43,29,19
136,39,-97,-87,117,-29,-39,87,92,43,24,14
126,29,-97,-78,112,-34,-39,87,82,34,19,4
112,29,-82,-70,97,-26,-34,87,92,29,14,0
102,24,-78,-63,90,-26,-29,87,92,24,9,-4
82,9,-73,-46,78,-31,-19,87,92,19,0,-9
68,0,-68,-34,68,-34,-19,78,82,9,-9,-14
63,-14,-78,-24,70,-46,-29,73,58,0,-19,-29
48,-29,-78,-9,63,-53,-29,68,53,-4,-24,-34
43,-29,-73,-7,58,-51,-24,63,53,-4,-24,-34
34,-29,-63,-2,48,-46,-24,63,53,-4,-24,-34
34,-24,-58,-4,46,-41,-14,63,48,4,-14,-34
19,-24,-43,2,31,-34,-14,63,48,4,-14,-24
19,-29,-48,4,34,-39,-14,53,48,4,-14,-24
9,-29,-39,9,24,-34,-14,48,48,4,-9,-29
9,-43,-53,17,31,-48,-19,58,43,-9,-14,-39
9,-48,-58,19,34,-53,-19,53,43,-14,-19,-39
9,-53,-63,21,36,-58,-19,53,43,-19,-24,-39
9,-58,-68,24,39,-63,-19,53,43,-29,-34,-39
19,-48,-68,14,43,-58,-29,48,43,-24,-24,-29
19,-48,-68,14,43,-58,-24,48,43,-19,-24,-29
19,-48,-68,14,43,-58,-24,48,48,-9,-24,-29
19,-48,-68,14,43,-58,-24,53,48,-4,-24,-29
9,-39,-48,14,29,-43,-24,53,48,0,-24,-39
9,-39,-48,14,29,-43,-24,53,48,0,-24,-39
9,-43,-53,17,31,-48,-24,53,48,0,-24,-39
4,-43,-48,19,26,-46,-24,53,53,0,-24,-39
0,-34,-34,17,17,-34,-9,53,53,-4,-14,-29
-14,-14,0,14,-7,-7,0,63,63,19,4,-19
-24,4,29,9,-26,17,24,68,97,63,14,-4
-29,34,63,-2,-46,48,58,102,156,107,39,19
-43,73,117,-14,-80,95,107,156,214,165,73,43
-58,102,161,-21,-109,131,175,224,278,214,97,53
-68,131,200,-31,-134,165,244,322,366,283,126,73
-39,190,229,-75,-134,209,317,458,507,390,180,112
0,268,268,-134,-134,268,370,619,683,512,263,156
58,370,312,-214,-126,341,361,746,888,663,366,209
126,497,370,-312,-122,434,331,849,1107,868,492,302
214,649,434,-431,-109,541,322,985,1346,1093,644,409
341,814,473,-578,-65,644,297,1195,1634,1337,800,527
512,966,453,-739,29,710,195,1381,1922,1566,961,639
697,1063,366,-880,165,714,-14,1434,2127,1737,1073,712
829,1137,307,-983,261,722,-322,1268,2205,1830,1161,775
927,1263,336,-1095,295,800,-736,1005,2269,1947,1278,873
1063,1454,390,-1259,336,922,-1180,771,2381,2103,1429,995
1244,1649,405,-1446,419,1027,-1590,580,2527,2264,1581,1132
1464,1873,409,-1668,527,1141,-1981,434,2635,2415,1747,1263
1737,2088,351,-1912,692,1220,-2376,366,2684,2488,1869,1385
1986,2220,234,-2103,875,1227,-2742,297,2566,2391,1898,1444
2166,2239,73,-2203,1046,1156,-2981,175,2254,2103,1820,1429
2303,2181,-122,-2242,1212,1029,-3147,73,1888,1761,1693,1376
2430,2088,-341,-2259,1385,873,-3313,-48,1507,1429,1561,1312
2532,1932,-600,-2232,1566,666,-3440,-253,1034,1068,1400,1239
2615,1742,-873,-2178,1744,434,-3459,-424,536,639,1166,1102
2674,1464,-1210,-2069,1942,126,-3396,-610,-39,97,839,883
2625,1049,-1576,-1837,2100,-263,-3264,-1029,-922,-585,405,585
2464,512,-1952,-1488,2208,-719,-3059,-1581,-1937,-1293,-53,258
2259,146,-2113,-1202,2186,-983,-2825,-1864,-2444,-1654,-302,78
2000,58,-1942,-1029,1971,-941,-2586,-1878,-2376,-1590,-273,92
1610,43,-1566,-827,1588,-761,-2308,-1898,-2220,-1415,-175,175
1117,24,-1093,-570,1105,-534,-1952,-1917,-2064,-1239,-48,278
653,82,-570,-368,612,-244,-1566,-1776,-1756,-966,126,419
351,170,-180,-261,265,-4,-1239,-1512,-1361,-663,283,527
229,209,-19,-219,124,95,-985,-1229,-1058,-453,356,546
190,214,24,-202,82,119,-775,-966,-824,-302,380,531
131,204,73,-168,29,139,-595,-746,-634,-190,370,492
63,180,117,-122,-26,148,-434,-575,-483,-126,331,424
29,146,117,-87,-43,131,-326,-444,-375,-97,268,346
4,136,131,-70,-63,134,-224,-336,-292,-73,209,273
-14,92,107,-39,-61,100,-141,-244,-234,-73,151,204
-48,19,68,14,-58,43,-78,-161,-190,-82,58,117
-78,-58,19,68,-48,-19,0,-97,-161,-117,-39,4
-92,-117,-24,104,-34,-70,48,-48,-131,-126,-102,-68
-92,-151,-58,122,-17,-104,78,-24,-112,-126,-112,-87
-82,-156,-73,119,-4,-114,82,0,-97,-122,-117,-102
-82,-161,-78,122,-2,-119,92,0,-97,-131,-126,-107
-87,-161,-73,124,-7,-117,102,0,-97,-131,-126,-112
-92,-161,-68,126,-12,-114,107,0,-92,-131,-131,-112
-92,-165,-73,129,-9,-119,117,9,-87,-131,-131,-117
-102,-170,-68,136,-17,-119,126,14,-78,-122,-122,-107
-107,-170,-63,139,-21,-117,136,19,-78,-117,-122,-107
-107,-170,-63,139,-21,-117,136,19,-78,-102,-122,-107
-107,-175,-68,141,-19,-122,141,29,-78,-97,-122,-107
-117,-175,-58,146,-29,-117,146,34,-78,-97,-112,-112
-117,-170,-53,143,-31,-112,156,39,-73,-92,-112,-112
-122,-170,-48,146,-36,-109,161,43,-73,-92,-112,-112
-122,-170,-48,146,-36,-109,165,43,-73,-92,-112,-112
-117,-170,-53,143,-31,-112,170,48,-63,-102,-122,-112
-117,-175,-58,146,-29,-117,170,53,-58,-102,-122,-112
-126,-180,-53,153,-36,-117,170,53,-58,-102,-122,-117
-126,-180,-53,153,-36,-117,170,53,-58,-102,-122,-122
-126,-185,-58,156,-34,-122,175,53,-58,-112,-136,-131
-126,-190,-63,158,-31,-126,175,58,-58,-112,-136,-126
-126,-195,-68,161,-29,-131,185,58,-48,-102,-136,-126
-126,-200,-73,163,-26,-136,185,58,-48,-102,-131,-126
-126,-200,-73,163,-26,-136,185,63,-48,-102,-131,-126
-126,-200,-73,163,-26,-136,190,63,-48,-102,-131,-126
-126,-204,-78,165,-24,-141,190,63,-48,-107,-136,-131
-131,-204,-73,168,-29,-139,195,63,-48,-107,-136,-131
-131,-204,-73,168,-29,-139,195,53,-48,-97,-126,-126
-131,-200,-68,165,-31,-134,195,58,-48,-97,-126,-126
-131,-195,-63,163,-34,-129,195,58,-48,-102,-126,-126
-131,-190,-58,161,-36,-124,200,58,-48,-102,-126,-126
-131,-180,-48,156,-41,-114,200,73,-48,-107,-136,-126
-136,-185,-48,161,-43,-117,204,73,-48,-107,-141,-126
-136,-185,-48,161,-43,-117,204,73,-48,-107,-141,-126
-136,-185,-48,161,-43,-117,209,73,-43,-107,-141,-126
-131,-190,-58,161,-36,-124,209,73,-43,-97,-131,-117
-131,-195,-63,163,-34,-129,219,73,-43,-102,-131,-117
-136,-200,-63,168,-36,-131,219,78,-43,-102,-131,-117
-136,-200,-63,168,-36,-131,219,78,-43,-102,-131,-117
-136,-200,-63,168,-36,-131,219,78,-48,-112,-131,-126
-136,-200,-63,168,-36,-131,219,78,-48,-112,-136,-126
-141,-200,-58,170,-41,-129,219,78,-48,-112,-136,-126
-141,-200,-58,170,-41,-129,229,82,-48,-112,-136,-131
-141,-200,-58,170,-41,-129,229,82,-48,-112,-146,-131
-141,-200,-58,170,-41,-129,229,82,-48,-112,-146,-131
-141,-204,-63,173,-39,-134,239,82,-48,-112,-146,-131
-141,-209,-68,175,-36,-139,239,82,-48,-112,-146,-131
-156,-209,-53,183,-51,-131,239,82,-58,-102,-146,-141
-156,-204,-48,180,-53,-126,239,82,-63,-102,-146,-141
-156,-204,-48,180,-53,-126,244,82,-63,-102,-146,-141
-156,-204,-48,180,-53,-126,244,82,-63,-102,-146,-141
-156,-204,-48,180,-53,-126,234,82,-68,-107,-136,-136
-151,-209,-58,180,-46,-134,244,82,-68,-107,-141,-136
-151,-209,-58,180,-46,-134,244,82,-68,-112,-141,-136
-146,-209,-63,178,-41,-136,244,82,-68,-112,-141,-136
-156,-195,-39,175,-58,-117,253,73,-63,-112,-141,-136
-156,-195,-39,175,-58,-117,258,73,-63,-112,-141,-136
-161,-195,-34,178,-63,-114,258,73,-63,-112,-141,-136
-165,-200,-34,183,-65,-117,263,73,-63,-112,-141,-136
-156,-200,-43,178,-56,-122,263,82,-68,-102,-131,-126
-151,-200,-48,175,-51,-124,268,82,-68,-102,-136,-126
-151,-200,-48,175,-51,-124,268,82,-68,-102,-136,-126
-151,-204,-53,178,-48,-129,278,82,-68,-102,-136,-126
-165,-204,-39,185,-63,-122,278,73,-82,-107,-146,-136
-170,-204,-34,187,-68,-119,283,68,-82,-112,-146,-141
-170,-204,-34,187,-68,-119,283,68,-82,-122,-146,-141
-175,-204,-29,190,-73,-117,283,73,-82,-126,-151,-141
-175,-209,-34,192,-70,-122,292,82,-87,-122,-151,-141
-175,-209,-34,192,-70,-122,292,82,-87,-122,-151,-151
-180,-209,-29,195,-75,-119,302,82,-87,-122,-151,-141
-185,-209,-24,197,-80,-117,302,82,-92,-126,-151,-141
-185,-214,-29,200,-78,-122,307,68,-92,-136,-156,-141
-195,-219,-24,207,-85,-122,312,68,-92,-136,-156,-141
-200,-224,-24,212,-87,-124,312,68,-97,-136,-156,-141
-200,-234,-34,217,-82,-134,312,68,-107,-141,-156,-141
-190,-224,-34,207,-78,-129,317,68,-107,-136,-161,-146
-195,-224,-29,209,-82,-126,322,68,-107,-136,-170,-146
-200,-229,-29,214,-85,-129,326,68,-107,-136,-170,-146
-204,-229,-24,217,-90,-126,331,68,-107,-141,-165,-146
-204,-229,-24,217,-90,-126,336,73,-112,-151,-175,-161
-204,-229,-24,217,-90,-126,341,73,-117,-161,-180,-165
-209,-229,-19,219,-95,-124,346,73,-122,-161,-180,-165
-209,-229,-19,219,-95,-124,351,73,-122,-165,-180,-165
-224,-239,-14,231,-104,-126,356,63,-126,-165,-175,-165
-229,-244,-14,236,-107,-129,361,63,-131,-170,-185,-165
-234,-244,-9,239,-112,-126,366,53,-136,-170,-185,-170
-239,-244,-4,241,-117,-124,370,53,-136,-170,-185,-170
-234,-234,0,234,-117,-117,380,53,-151,-175,-195,-161
-239,-234,4,236,-122,-114,385,53,-156,-175,-195,-165
-248,-239,9,244,-129,-114,390,43,-161,-175,-195,-165
-253,-239,14,246,-134,-112,395,43,-165,-185,-200,-165
-263,-248,14,256,-139,-117,405,43,-165,-190,-190,-165
-273,-248,24,261,-148,-112,409,34,-170,-195,-190,-165
-283,-253,29,268,-156,-112,414,29,-180,-195,-200,-170
-287,-253,34,270,-161,-109,424,24,-185,-200,-204,-170
-297,-253,43,275,-170,-104,429,24,-190,-204,-209,-170
-307,-263,43,285,-175,-109,434,19,-200,-209,-209,-175
-317,-263,53,290,-185,-104,444,14,-214,-219,-214,-175
-317,-263,53,290,-185,-104,458,9,-219,-224,-219,-185
-322,-273,48,297,-185,-112,458,0,-229,-224,-234,-195
-331,-273,58,302,-195,-107,463,-4,-239,-229,-239,-195
-341,-273,68,307,-204,-102,473,-14,-248,-244,-239,-195
-346,-273,73,309,-209,-100,478,-24,-258,-248,-244,-195
-361,-268,92,314,-226,-87,483,-34,-268,-239,-239,-185
-375,-273,102,324,-239,-85,488,-43,-278,-244,-239,-185
-390,-273,117,331,-253,-78,492,-53,-287,-253,-239,-185
-400,-273,126,336,-263,-73,497,-63,-302,-258,-234,-190
-409,-273,136,341,-273,-68,502,-73,-317,-273,-248,-190
-419,-273,146,346,-283,-63,507,-82,-326,-287,-253,-190
-439,-273,165,356,-302,-53,517,-102,-336,-292,-258,-195
-453,-278,175,366,-314,-51,527,-112,-356,-302,-258,-195
-458,-287,170,373,-314,-58,527,-126,-380,-312,-273,-204
-468,-287,180,378,-324,-53,531,-141,-395,-317,-278,-204
-483,-287,195,385,-339,-46,536,-156,-409,-336,-278,-209
-492,-292,200,392,-346,-46,536,-170,-424,-341,-283,-209
-507,-292,214,400,-361,-39,541,-195,-434,-346,-283,-200
-527,-292,234,409,-380,-29,546,-209,-453,-351,-287,-200
-546,-292,253,419,-400,-19,546,-229,-463,-356,-287,-200
-561,-292,268,427,-414,-12,551,-248,-473,-356,-287,-195
-570,-292,278,431,-424,-7,551,-263,-492,-361,-297,-195
-590,-292,297,441,-444,2,556,-283,-507,-375,-302,-195
-614,-297,317,456,-466,9,556,-292,-522,-385,-302,-195
-624,-297,326,461,-475,14,556,-307,-536,-385,-302,-185
-634,-302,331,468,-483,14,566,-331,-556,-400,-302,-195
-649,-302,346,475,-497,21,561,-351,-575,-405,-302,-195
-663,-297,366,480,-514,34,561,-361,-585,-409,-302,-190
-668,-297,370,483,-519,36,556,-385,-600,-414,-297,-185
-688,-283,405,485,-546,61,551,-395,-614,-414,-297,-180
-707,-278,429,492,-568,75,546,-409,-634,-414,-292,-175
-712,-273,439,492,-575,82,541,-429,-639,-414,-292,-170
-717,-268,448,492,-583,90,536,-444,-644,-414,-287,-165
-722,-258,463,490,-592,102,522,-458,-644,-414,-292,-161
-722,-258,463,490,-592,102,512,-473,-649,-409,-287,-161
-727,-253,473,490,-600,109,502,-488,-663,-400,-283,-151
-732,-244,488,488,-610,122,492,-497,-663,-395,-268,-146
-736,-239,497,488,-617,129,478,-512,-668,-400,-268,-141
-736,-229,507,483,-622,139,463,-522,-668,-385,-258,-136
-732,-214,517,473,-624,151,448,-531,-668,-380,-253,-126
-732,-204,527,468,-629,161,434,-541,-658,-370,-239,-117
-732,-190,541,461,-636,175,409,-541,-649,-346,-224,-97
-722,-175,546,448,-634,185,395,-541,-634,-336,-209,-87
-712,-165,546,439,-629,190,380,-541,-624,-322,-195,-78
-697,-156,541,427,-619,192,361,-541,-610,-307,-180,-68
-697,-151,546,424,-622,197,356,-531,-595,-302,-175,-78
-678,-136,541,407,-610,202,341,-522,-570,-287,-165,-63
-658,-122,536,390,-597,207,326,-507,-551,-263,-146,-58
-644,-112,531,378,-588,209,312,-497,-527,-244,-136,-43
-629,-102,527,366,-578,212,297,-478,-507,-234,-126,-39
-605,-92,512,348,-558,209,283,-463,-478,-214,-112,-29
-575,-78,497,326,-536,209,268,-439,-439,-195,-102,-24
-551,-73,478,312,-514,202,253,-419,-409,-185,-97,-14
-527,-78,448,302,-488,185,248,-400,-380,-161,-78,0
-502,-68,434,285,-468,183,234,-375,-346,-141,-63,4
-468,-53,414,261,-441,180,219,-351,-317,-122,-53,4
-439,-48,390,244,-414,170,204,-322,-292,-97,-43,4
-419,-39,380,229,-400,170,180,-302,-258,-73,-34,14
-390,-29,361,209,-375,165,165,-278,-234,-63,-24,14
-366,-14,351,190,-358,168,156,-253,-209,-48,-19,14
-336,-4,331,170,-334,163,141,-229,-195,-43,-4,14
-307,-9,297,158,-302,143,126,-204,-161,-29,0,24
-278,-4,273,141,-275,134,117,-175,-136,-14,4,24
-258,-4,253,131,-256,124,107,-156,-112,-9,9,24
-234,-4,229,119,-231,112,97,-136,-92,0,9,29
-209,-4,204,107,-207,100,97,-117,-78,4,14,29
-190,0,190,95,-190,95,87,-102,-68,9,14,24
-175,0,175,87,-175,87,82,-92,-53,14,14,24
-156,0,156,78,-156,78,73,-78,-39,19,19,24
-141,9,151,65,-146,80,58,-48,-14,24,9,24
-117,9,126,53,-122,68,48,-34,-9,24,9,19
-107,4,112,51,-109,58,43,-24,0,24,9,19
-92,4,97,43,-95,51,43,-14,9,24,9,14
-78,4,82,36,-80,43,39,0,24,34,19,14
-63,4,68,29,-65,36,34,9,34,34,19,9
-58,4,63,26,-61,34,29,19,34,39,19,9
-43,4,48,19,-46,26,29,29,39,39,19,9
-34,0,34,17,-34,17,29,34,43,29,19,14
-24,0,24,12,-24,12,24,43,43,29,19,14
-19,-4,14,12,-17,4,24,43,43,24,19,4
-19,-4,14,12,-17,4,19,48,48,19,14,4
4,-4,-9,0,7,-7,19,63,48,29,14,4
9,-4,-14,-2,12,-9,14,68,48,24,9,4
14,-4,-19,-4,17,-12,14,73,53,24,9,4
19,-9,-29,-4,24,-19,14,78,53,19,9,0
14,-19,-34,2,24,-26,9,78,58,19,4,-9
19,-19,-39,0,29,-29,9,78,58,19,4,-9
24,-19,-43,-2,34,-31,14,82,58,19,4,-9
24,-19,-43,-2,34,-31,14,87,58,24,4,-9
29,-19,-48,-4,39,-34,24,87,58,14,4,-9
29,-19,-48,-4,39,-34,19,87,58,9,-4,-4
34,-19,-53,-7,43,-36,19,87,58,9,-4,0
34,-19,-53,-7,43,-36,19,87,58,9,0,0
39,-19,-58,-9,48,-39,4,82,58,19,0,-9
39,-24,-63,-7,51,-43,4,82,58,14,4,-9
39,-24,-63,-7,51,-43,4,82,58,4,4,-9
43,-24,-68,-9,56,-46,4,87,58,4,-4,-9
34,-34,-68,0,51,-51,4,87,48,9,-4,-19
34,-39,-73,2,53,-56,4,87,48,9,-4,-19
34,-39,-73,2,53,-56,9,87,48,9,-4,-19
34,-39,-73,2,53,-56,9,87,48,4,-4,-24
43,-39,-82,-2,63,-61,9,92,58,4,-9,-24
43,-39,-82,-2,63,-61,9,92,63,4,-9,-24
43,-43,-87,0,65,-65,9,92,63,9,-9,-24
43,-43,-87,0,65,-65,4,92,63,9,-14,-24
43,-34,-78,-4,61,-56,4,102,63,9,-4,-24
43,-34,-78,-4,61,-56,4,102,63,9,0,-24
43,-34,-78,-4,61,-56,9,97,63,14,0,-24
43,-34,-78,-4,61,-56,9,97,63,14,0,-24
34,-43,-78,4,56,-61,19,97,63,14,0,-14
34,-43,-78,4,56,-61,19,97,63,14,0,-14
34,-39,-73,2,53,-56,19,97,63,19,0,-14
34,-39,-73,2,53,-56,14,97,63,19,0,-9
43,-29,-73,-7,58,-51,14,97,53,19,9,-9
43,-29,-73,-7,58,-51,14,97,53,24,4,-9
43,-29,-73,-7,58,-51,14,97,53,29,4,-9
43,-29,-73,-7,58,-51,14,97,53,34,4,-9
43,-29,-73,-7,58,-51,9,107,53,34,-4,-24
43,-29,-73,-7,58,-51,9,107,53,29,-4,-24
43,-29,-73,-7,58,-51,9,107,53,14,-4,-24
43,-29,-73,-7,58,-51,9,107,53,9,-9,-24
43,-29,-73,-7,58,-51,9,97,53,19,-9,-14
43,-29,-73,-7,58,-51,9,102,53,19,-9,-14
43,-29,-73,-7,58,-51,9,102,53,24,-4,-14
43,-24,-68,-9,56,-46,9,102,53,24,0,-14
43,-24,-68,-9,56,-46,9,97,53,19,-4,-24
43,-29,-73,-7,58,-51,9,97,53,24,-4,-24
43,-29,-73,-7,58,-51,9,97,53,24,-4,-19
39,-24,-63,-7,51,-43,9,97,53,24,-4,-19
29,-24,-53,-2,41,-39,19,97,63,29,4,-9
29,-29,-58,0,43,-43,19,97,63,29,-4,-14
29,-29,-58,0,43,-43,19,97,63,29,-4,-14
29,-29,-58,0,43,-43,19,97,63,29,0,-14
39,-24,-63,-7,51,-43,9,97,53,19,0,-24
39,-24,-63,-7,51,-43,9,97,53,19,0,-19
39,-24,-63,-7,51,-43,9,97,58,19,0,-19
39,-24,-63,-7,51,-43,9,92,58,19,0,-24
29,-39,-68,4,48,-53,9,92,58,29,0,-24
29,-39,-68,4,48,-53,9,92,58,29,0,-24
29,-34,-63,2,46,-48,9,92,58,29,-4,-19
29,-34,-63,2,46,-48,9,92,58,29,-4,-14
29,-34,-63,2,46,-48,9,92,58,29,4,-14
29,-34,-63,2,46,-48,9,92,58,29,4,-14
29,-34,-63,2,46,-48,9,92,58,24,-4,-14
29,-34,-63,2,46,-48,4,92,58,24,-9,-14
29,-34,-63,2,46,-48,14,92,58,24,0,-9
29,-34,-63,2,46,-48,14,87,58,29,4,-14
29,-29,-58,0,43,-43,14,87,58,29,4,-14
29,-29,-58,0,43,-43,14,87,58,29,4,-14
39,-24,-63,-7,51,-43,4,87,53,24,4,-14
34,-24,-58,-4,46,-41,4,87,53,24,4,-14
34,-24,-58,-4,46,-41,4,82,53,29,4,-9
34,-24,-58,-4,46,-41,4,82,53,29,4,-9
24,-29,-53,2,39,-41,4,82,53,29,4,-9
24,-29,-53,2,39,-41,4,82,53,29,9,-9
24,-29,-53,2,39,-41,4,82,53,24,9,-9
24,-34,-58,4,41,-46,4,82,53,24,9,-9
24,-24,-48,0,36,-36,4,82,53,34,0,-9
24,-24,-48,0,36,-36,0,82,53,39,4,-9
24,-24,-48,0,36,-36,0,78,53,39,9,-9
24,-24,-48,0,36,-36,0,78,48,34,9,-9
24,-34,-58,4,41,-46,9,87,58,24,0,-9
24,-34,-58,4,41,-46,9,87,58,24,0,-14
24,-34,-58,4,41,-46,9,87,58,24,0,-14
24,-34,-58,4,41,-46,9,87,58,24,0,-9
29,-34,-63,2,46,-48,0,87,48,24,0,-9
29,-34,-63,2,46,-48,0,87,48,24,0,-9
34,-34,-68,0,51,-51,0,82,48,24,0,-14
34,-34,-68,0,51,-51,0,82,48,19,0,-14
24,-34,-58,4,41,-46,9,82,48,9,-9,-24
24,-34,-58,4,41,-46,4,82,48,14,-9,-24
24,-34,-58,4,41,-46,4,82,48,14,-9,-19
24,-34,-58,4,41,-46,4,82,48,19,-9,-19
9,-34,-43,12,26,-39,4,78,48,29,-4,-9
9,-34,-43,12,26,-39,4,78,48,29,-4,-14
9,-34,-43,12,26,-39,4,78,48,24,-4,-14
9,-34,-43,12,26,-39,4,78,48,14,0,-14
14,-34,-48,9,31,-41,-4,78,48,24,0,-14
19,-34,-53,7,36,-43,-4,78,48,24,0,-14
24,-34,-58,4,41,-46,-4,78,48,29,0,-14
29,-34,-63,2,46,-48,-9,73,43,29,0,-14
29,-34,-63,2,46,-48,-9,73,53,24,-4,-14
29,-34,-63,2,46,-48,-4,73,53,24,0,-14
29,-34,-63,2,46,-48,-4,73,53,24,0,-9
29,-34,-63,2,46,-48,-4,73,53,19,-4,-9
29,-39,-68,4,48,-53,-4,73,43,19,4,-19
29,-39,-68,4,48,-53,-9,73,43,19,4,-19
29,-39,-68,4,48,-53,-14,73,43,14,0,-24
29,-39,-68,4,48,-53,-14,78,43,14,0,-24
24,-34,-58,4,41,-46,-4,78,43,24,0,-14
24,-34,-58,4,41,-46,-4,78,43,24,0,-14
24,-34,-58,4,41,-46,-4,73,43,24,0,-14
19,-39,-58,9,39,-48,-4,73,43,24,4,-14
29,-29,-58,0,43,-43,-4,73,43,14,4,-14
29,-24,-53,-2,41,-39,-4,73,43,14,4,-14
29,-24,-53,-2,41,-39,-4,73,43,19,4,-14
29,-24,-53,-2,41,-39,-4,73,43,19,4,-9
19,-34,-53,7,36,-43,-4,82,53,19,4,-14
19,-34,-53,7,36,-43,-4,82,53,19,4,-14
19,-34,-53,7,36,-43,-4,82,53,19,4,-19
14,-34,-48,9,31,-41,-4,82,53,19,4,-24
24,-34,-58,4,41,-46,-14,73,43,19,-4,-14
29,-34,-63,2,46,-48,-14,73,43,19,-4,-14
29,-34,-63,2,46,-48,-14,73,39,14,-4,-9
34,-39,-73,2,53,-56,-14,73,39,14,-9,-9
34,-29,-63,-2,48,-46,-4,73,53,19,0,-14
29,-29,-58,0,43,-43,-4,73,53,19,4,-14
29,-29,-58,0,43,-43,-9,73,53,19,4,-9
29,-29,-58,0,43,-43,-9,73,53,19,0,-9
19,-29,-48,4,34,-39,-4,68,43,19,0,-14
24,-29,-53,2,39,-41,-4,68,43,19,0,-14
24,-24,-48,0,36,-36,-9,68,43,19,4,-14
24,-24,-48,0,36,-36,-9,68,43,19,9,-9
24,-34,-58,4,41,-46,-9,78,43,19,9,-14
24,-34,-58,4,41,-46,-9,78,43,19,9,-9
14,-34,-48,9,31,-41,-9,78,43,19,4,-9
14,-34,-48,9,31,-41,-9,78,43,19,4,-14
24,-34,-58,4,41,-46,-19,68,43,19,0,-14
29,-34,-63,2,46,-48,-14,68,43,14,0,-14
29,-34,-63,2,46,-48,-14,68,43,14,4,-14
29,-34,-63,2,46,-48,-14,68,39,14,4,-19
29,-34,-63,2,46,-48,-14,73,39,14,-4,-9
29,-34,-63,2,46,-48,-14,73,43,19,-4,-9
29,-34,-63,2,46,-48,-14,73,43,19,-4,-9
29,-34,-63,2,46,-48,-14,73,43,19,-4,-9
19,-34,-53,7,36,-43,-14,73,48,9,0,-9
19,-34,-53,7,36,-43,-14,73,48,9,0,-9
19,-39,-58,9,39,-48,-14,78,48,14,-4,-9
24,-39,-63,7,43,-51,-9,78,48,14,-4,-9
24,-48,-73,12,48,-61,-9,78,43,24,4,-19
24,-48,-73,12,48,-61,-9,73,43,24,4,-14
24,-48,-73,12,48,-61,-9,73,43,24,4,-14
24,-48,-73,12,48,-61,-9,78,39,24,4,-14
24,-39,-63,7,43,-51,-9,78,48,24,4,-14
29,-29,-58,0,43,-43,-4,78,48,24,4,-14
19,-29,-48,4,34,-39,-4,82,43,24,4,-9
19,-39,-58,9,39,-48,-4,82,43,29,0,-9
19,-39,-58,9,39,-48,0,78,48,29,9,-9
19,-39,-58,9,39,-48,-9,78,39,19,0,-9
19,-39,-58,9,39,-48,-9,78,39,19,0,-9
19,-39,-58,9,39,-48,-9,78,39,19,0,-9
19,-39,-58,9,39,-48,-9,78,39,19,0,-9
19,-39,-58,9,39,-48,-9,78,39,19,0,-9
19,-39,-58,9,39,-48,-9,78,39,19,0,-9
19,-39,-58,9,39,-48,-9,78,39,19,0,-9
19,-39,-58,9,39,-48,-9,78,39,19,0,-9
19,-48,-68,14,43,-58,-9,78,39,19,0,-19
19,-48,-68,14,43,-58,-9,78,39,19,0,-19
19,-48,-68,14,43,-58,-9,78,39,19,0,-19
19,-48,-68,14,43,-58,-9,78,39,19,0,-19
19,-48,-68,14,43,-58,0,78,48,29,0,-19
19,-48,-68,14,43,-58,0,78,48,29,0,-19
19,-48,-68,14,43,-58,0,78,48,29,0,-19
19,-48,-68,14,43,-58,0,78,48,29,0,-19
19,-43,-63,12,41,-53,-9,78,48,29,9,-9
19,-39,-58,9,39,-48,-9,78,48,29,9,-9
19,-34,-53,7,36,-43,-9,78,48,29,9,-9
19,-29,-48,4,34,-39,-9,78,48,29,9,-9
29,-29,-58,0,43,-43,-9,87,48,29,9,-9
29,-29,-58,0,43,-43,-9,87,48,29,9,-9
29,-29,-58,0,43,-43,-9,87,48,29,9,-9
29,-29,-58,0,43,-43,-9,87,48,29,9,-9
39,-29,-68,-4,53,-48,-4,97,58,39,19,-9
39,-29,-68,-4,53,-48,0,97,58,39,19,-9
39,-29,-68,-4,53,-48,4,97,58,39,19,-9
39,-29,-68,-4,53,-48,9,97,58,39,19,-9
39,-39,-78,0,58,-58,14,112,58,39,19,-9
39,-34,-73,-2,56,-53,14,112,68,39,14,-9
48,-34,-82,-7,65,-58,19,122,68,43,14,-9
48,-34,-82,-7,65,-58,34,126,73,48,14,-14
39,-34,-73,-2,56,-53,48,131,87,58,24,-4
43,-34,-78,-4,61,-56,53,141,87,63,29,-4
53,-34,-87,-9,70,-61,53,146,87,63,34,0
53,-29,-82,-12,68,-56,53,146,92,63,34,4
63,-29,-92,-17,78,-61,43,136,102,53,24,-4
63,-29,-92,-17,78,-61,48,136,92,53,24,-4
63,-29,-92,-17,78,-61,48,136,92,53,24,-9
68,-29,-97,-19,82,-63,43,146,97,53,24,-9
73,-19,-92,-26,82,-56,43,156,92,53,14,-4
78,-19,-97,-29,87,-58,43,156,92,58,19,-4
82,-9,-92,-36,87,-51,39,156,97,58,24,0
92,-9,-102,-41,97,-56,29,156,97,68,29,4
92,-19,-112,-36,102,-65,24,156,97,58,39,4
92,-19,-112,-36,102,-65,19,151,97,58,39,4
97,-19,-117,-39,107,-68,14,151,97,58,39,4
107,-19,-126,-43,117,-73,4,151,92,53,39,0
112,-4,-117,-53,114,-61,-4,141,92,58,24,9
117,9,-107,-63,112,-48,-9,131,87,58,24,19
122,29,-92,-75,107,-31,-29,126,87,63,39,29
131,43,-87,-87,109,-21,-34,122,87,78,53,43
131,58,-73,-95,102,-7,-39,117,87,82,63,53
131,78,-53,-104,92,12,-43,112,87,87,63,63
136,97,-39,-117,87,29,-48,107,92,97,78,73
141,107,-34,-124,87,36,-58,102,92,97,87,78
146,112,-34,-129,90,39,-68,97,92,97,102,78
146,122,-24,-134,85,48,-73,92,92,97,102,78
136,112,-24,-124,80,43,-73,87,82,97,97,78
131,97,-34,-114,82,31,-68,82,78,87,87,68
117,78,-39,-97,78,19,-68,92,82,82,73,63
117,63,-53,-90,85,4,-63,92,82,78,68,53
117,53,-63,-85,90,-4,-63,97,82,78,63,48
126,48,-78,-87,102,-14,-68,97,82,78,63,48
141,58,-82,-100,112,-12,-68,107,82,87,73,48
156,63,-92,-109,124,-14,-68,112,92,87,73,48
165,68,-97,-117,131,-14,-68,122,97,97,82,53
165,68,-97,-117,131,-14,-63,126,107,102,92,58
161,68,-92,-114,126,-12,-53,117,117,107,107,73
161,73,-87,-117,124,-7,-58,117,117,117,107,73
161,73,-87,-117,124,-7,-58,117,117,117,102,73
151,63,-87,-107,119,-12,-53,112,107,102,97,73
161,53,-107,-107,134,-26,-63,112,92,92,87,63
161,48,-112,-104,136,-31,-63,102,87,92,87,63
165,48,-117,-107,141,-34,-68,102,82,87,87,58
165,48,-117,-107,141,-34,-68,97,82,87,87,58
165,48,-117,-107,141,-34,-58,97,78,78,73,58
156,48,-107,-102,131,-29,-53,97,78,73,73,53
141,43,-97,-92,119,-26,-53,92,78,73,68,48
141,39,-102,-90,122,-31,-43,92,78,73,68,43
136,29,-107,-82,122,-39,-48,112,87,73,68,34
136,34,-102,-85,119,-34,-43,117,92,73,63,29
136,34,-102,-85,119,-34,-43,117,92,73,58,29
136,29,-107,-82,122,-39,-39,117,92,73,53,24
126,29,-97,-78,112,-34,-39,107,73,63,39,14
112,19,-92,-65,102,-36,-34,107,73,58,34,9
102,14,-87,-58,95,-36,-29,107,73,53,29,4
82,0,-82,-41,82,-41,-19,107,73,48,19,0
58,-9,-68,-24,63,-39,-19,97,63,48,19,-4
53,-24,-78,-14,65,-51,-19,92,48,39,9,-19
39,-39,-78,0,58,-58,-19,87,43,34,4,-24
34,-39,-73,2,53,-56,-14,82,43,34,4,-24
24,-39,-63,7,43,-51,-14,82,53,24,4,-14
24,-34,-58,4,41,-46,-14,82,48,24,4,-14
9,-34,-43,12,26,-39,-14,82,48,24,4,-4
9,-39,-48,14,29,-43,-14,73,48,24,4,-4
9,-48,-58,19,34,-53,-4,78,39,24,9,-9
9,-48,-58,19,34,-53,-9,78,34,24,9,-9
9,-48,-58,19,34,-53,-9,73,34,24,9,-9
9,-48,-58,19,34,-53,-9,73,34,24,9,-9
9,-48,-58,19,34,-53,-9,63,34,29,4,-19
9,-48,-58,19,34,-53,-9,68,34,29,4,-19
9,-48,-58,19,34,-53,-4,68,34,29,4,-19
9,-48,-58,19,34,-53,-4,68,39,34,4,-19
0,-48,-48,24,24,-48,-4,73,39,34,14,-9
0,-48,-48,24,24,-48,-4,73,39,39,14,-9
0,-48,-48,24,24,-48,-4,73,39,39,14,-9
0,-53,-53,26,26,-53,-4,73,39,39,14,-9
4,-53,-58,24,31,-56,-4,82,43,39,14,-19
0,-43,-43,21,21,-43,0,82,43,43,14,-9
-4,-24,-19,14,7,-21,9,92,63,58,24,0
-24,4,29,9,-26,17,43,107,107,102,53,14
-48,34,82,7,-65,58,87,151,165,156,87,39
-63,63,126,0,-95,95,146,204,224,214,112,53
-78,82,161,-2,-119,122,224,273,297,263,136,73
-68,131,200,-31,-134,165,302,390,405,341,175,92
-39,200,239,-80,-139,219,356,556,566,448,239,131
9,278,268,-143,-129,273,390,717,741,590,312,175
78,390,312,-234,-117,351,370,844,946,741,414,248
156,517,361,-336,-102,439,351,946,1166,946,551,351
273,668,395,-470,-61,531,341,1122,1424,1161,702,448
429,844,414,-636,7,629,278,1342,1712,1405,868,566
610,985,375,-797,117,680,87,1478,1961,1605,1010,668
775,1073,297,-924,239,685,-190,1434,2098,1737,1093,722
907,1156,248,-1032,329,702,-556,1210,2137,1820,1180,785
1015,1302,287,-1159,363,795,-990,946,2200,1937,1298,902
1161,1483,322,-1322,419,902,-1405,761,2322,2093,1459,1034
1351,1688,336,-1520,507,1012,-1766,600,2449,2235,1610,1161
1610,1893,283,-1751,663,1088,-2166,492,2518,2337,1737,1273
1893,2069,175,-1981,858,1122,-2581,434,2508,2342,1820,1356
2132,2152,19,-2142,1056,1085,-2898,336,2303,2176,1800,1376
2313,2113,-200,-2213,1256,956,-3098,224,1952,1849,1664,1322
2459,2025,-434,-2242,1446,795,-3254,131,1576,1498,1517,1249
2586,1912,-673,-2249,1629,619,-3401,-29,1176,1185,1385,1185
2698,1776,-922,-2237,1810,427,-3489,-234,732,834,1224,1093
2801,1605,-1195,-2203,1998,204,-3459,-395,263,405,971,946
2830,1307,-1522,-2069,2176,-107,-3367,-629,-361,-136,624,707
2752,834,-1917,-1793,2335,-541,-3215,-1117,-1263,-810,180,390
2581,336,-2244,-1459,2413,-954,-3030,-1639,-2142,-1410,-200,102
2357,107,-2249,-1232,2303,-1071,-2815,-1854,-2425,-1595,-331,0
2039,78,-1961,-1058,2000,-941,-2547,-1869,-2288,-1454,-244,82
1581,53,-1527,-817,1554,-736,-2230,-1917,-2152,-1288,-136,175
1078,63,-1015,-570,1046,-475,-1854,-1908,-1956,-1083,9,307
624,161,-463,-392,544,-151,-1468,-1688,-1581,-751,224,478
341,248,-92,-295,217,78,-1141,-1385,-1205,-458,380,575
239,248,9,-244,114,129,-897,-1122,-941,-297,424,575
180,244,63,-212,58,153,-707,-888,-736,-195,419,541
112,224,112,-168,0,168,-546,-678,-575,-112,400,492
53,180,126,-117,-36,153,-405,-517,-444,-68,341,414
19,126,107,-73,-43,117,-287,-405,-356,-58,268,326
-14,97,112,-41,-63,104,-195,-307,-292,-34,219,263
-34,53,87,-9,-61,70,-122,-224,-234,-34,151,185
-68,-19,48,43,-58,14,-39,-141,-190,-53,68,87
-107,-87,19,97,-63,-34,29,-68,-151,-87,-19,-4
-122,-136,-14,129,-53,-75,68,-29,-131,-97,-63,-58
-112,-151,-39,131,-36,-95,87,-4,-122,-97,-73,-78
-112,-156,-43,134,-34,-100,92,0,-107,-92,-78,-82
-112,-170,-58,141,-26,-114,102,9,-107,-82,-78,-78
-117,-170,-53,143,-31,-112,112,9,-107,-82,-78,-82
-122,-170,-48,146,-36,-109,117,9,-102,-82,-82,-82
-122,-175,-53,148,-34,-114,126,19,-97,-82,-82,-87
-122,-170,-48,146,-36,-109,136,24,-87,-78,-82,-87
-126,-170,-43,148,-41,-107,146,29,-87,-78,-82,-87
-126,-170,-43,148,-41,-107,146,29,-87,-68,-82,-87
-126,-175,-48,151,-39,-112,151,39,-87,-68,-82,-87
-126,-185,-58,156,-34,-122,156,34,-87,-68,-82,-92
-126,-180,-53,153,-36,-117,165,39,-82,-63,-82,-92
-131,-180,-48,156,-41,-114,170,43,-82,-63,-82,-92
-131,-180,-48,156,-41,-114,175,43,-82,-63,-82,-92
-136,-170,-34,153,-51,-102,180,58,-73,-63,-82,-92
-136,-175,-39,156,-48,-107,180,63,-68,-63,-82,-92
-146,-180,-34,163,-56,-107,180,63,-68,-63,-82,-97
-146,-180,-34,163,-56,-107,180,63,-68,-63,-82,-102
-136,-190,-53,163,-41,-122,185,63,-68,-63,-97,-102
-136,-190,-53,163,-41,-122,185,68,-68,-63,-97,-97
-136,-190,-53,163,-41,-122,195,68,-58,-53,-97,-97
-136,-190,-53,163,-41,-122,195,68,-58,-53,-92,-97
-146,-190,-43,168,-51,-117,195,73,-58,-53,-82,-97
-146,-190,-43,168,-51,-117,200,73,-58,-53,-82,-97
-146,-195,-48,170,-48,-122,200,73,-58,-58,-87,-102
-151,-195,-43,173,-53,-119,204,73,-58,-58,-87,-102
-151,-200,-48,175,-51,-124,204,63,-58,-48,-87,-97
-151,-200,-48,175,-51,-124,204,68,-58,-48,-87,-97
-151,-200,-48,175,-51,-124,204,68,-58,-53,-87,-97
-151,-200,-48,175,-51,-124,209,68,-58,-53,-87,-97
-151,-190,-39,170,-56,-114,209,73,-58,-48,-78,-97
-156,-195,-39,175,-58,-117,214,73,-58,-48,-82,-97
-156,-195,-39,175,-58,-117,214,73,-58,-48,-82,-97
-156,-195,-39,175,-58,-117,219,73,-53,-48,-82,-97
-151,-204,-53,178,-48,-129,219,82,-63,-48,-92,-107
-151,-204,-53,178,-48,-129,229,82,-63,-53,-92,-107
-156,-204,-48,180,-53,-126,229,87,-63,-53,-92,-107
-156,-200,-43,178,-56,-122,229,87,-63,-53,-92,-107
-156,-209,-53,183,-51,-131,239,87,-58,-63,-92,-107
-156,-209,-53,183,-51,-131,239,87,-58,-63,-97,-107
-161,-209,-48,185,-56,-129,239,87,-58,-63,-97,-107
-161,-209,-48,185,-56,-129,248,92,-58,-63,-97,-112
-161,-200,-39,180,-61,-119,239,82,-68,-63,-87,-102
-161,-200,-39,180,-61,-119,239,82,-68,-63,-87,-102
-161,-204,-43,183,-58,-124,248,82,-68,-63,-87,-102
-161,-209,-48,185,-56,-129,248,82,-68,-63,-87,-102
-175,-209,-34,192,-70,-122,248,82,-58,-73,-97,-102
-175,-204,-29,190,-73,-117,248,82,-63,-73,-97,-102
-175,-204,-29,190,-73,-117,253,82,-63,-73,-97,-102
-175,-204,-29,190,-73,-117,253,82,-63,-73,-97,-102
-170,-195,-24,183,-73,-109,253,82,-68,-68,-97,-107
-170,-200,-29,185,-70,-114,263,82,-68,-68,-102,-107
-175,-200,-24,187,-75,-112,263,82,-68,-73,-102,-107
-175,-200,-24,187,-75,-112,263,82,-68,-73,-102,-107
-175,-200,-24,187,-75,-112,273,92,-73,-73,-112,-117
-175,-204,-29,190,-73,-117,278,92,-73,-73,-112,-117
-180,-209,-29,195,-75,-119,278,92,-73,-73,-112,-117
-185,-219,-34,202,-75,-126,283,92,-73,-73,-112,-117
-185,-219,-34,202,-75,-126,283,92,-78,-73,-112,-126
-180,-219,-39,200,-70,-129,287,92,-78,-73,-117,-126
-180,-219,-39,200,-70,-129,287,92,-78,-73,-117,-126
-180,-224,-43,202,-68,-134,297,92,-78,-73,-117,-126
-195,-214,-19,204,-87,-117,287,82,-92,-73,-117,-117
-200,-214,-14,207,-92,-114,292,78,-92,-73,-117,-122
-200,-214,-14,207,-92,-114,292,78,-92,-78,-117,-122
-204,-214,-9,209,-97,-112,292,82,-92,-78,-122,-122
-195,-229,-34,212,-80,-131,302,92,-87,-82,-122,-122
-195,-229,-34,212,-80,-131,302,92,-87,-82,-122,-131
-200,-229,-29,214,-85,-129,312,92,-87,-82,-122,-122
-204,-229,-24,217,-90,-126,312,92,-92,-87,-122,-122
-204,-229,-24,217,-90,-126,326,87,-92,-87,-117,-122
-214,-229,-14,222,-100,-122,331,87,-92,-87,-117,-122
-219,-229,-9,224,-104,-119,331,87,-97,-87,-117,-122
-219,-234,-14,226,-102,-124,331,87,-107,-92,-117,-122
-229,-234,-4,231,-112,-119,336,78,-107,-87,-112,-126
-234,-234,0,234,-117,-117,341,78,-107,-87,-122,-126
-239,-239,0,239,-119,-119,346,78,-107,-87,-122,-126
-244,-239,4,241,-124,-117,351,78,-107,-92,-117,-126
-244,-239,4,241,-124,-117,346,82,-112,-92,-117,-122
-244,-239,4,241,-124,-117,351,82,-117,-102,-122,-126
-248,-239,9,244,-129,-114,356,82,-122,-102,-122,-126
-248,-239,9,244,-129,-114,361,82,-122,-107,-122,-126
-253,-239,14,246,-134,-112,375,82,-126,-117,-126,-136
-258,-244,14,251,-136,-114,380,82,-131,-122,-136,-136
-263,-244,19,253,-141,-112,385,73,-136,-122,-136,-141
-268,-244,24,256,-146,-109,390,73,-136,-122,-136,-141
-283,-248,34,265,-158,-107,400,73,-141,-126,-146,-141
-287,-253,34,270,-161,-109,405,73,-146,-126,-146,-146
-297,-263,34,280,-165,-114,409,63,-151,-126,-146,-146
-302,-268,34,285,-168,-117,414,63,-156,-136,-151,-146
-302,-268,34,285,-168,-117,424,63,-156,-131,-151,-146
-312,-268,43,290,-178,-112,429,53,-161,-136,-151,-146
-322,-273,48,297,-185,-112,434,48,-170,-136,-161,-151
-326,-273,53,300,-190,-109,444,43,-175,-141,-165,-151
-336,-273,63,305,-200,-104,448,43,-180,-146,-170,-151
-346,-283,63,314,-204,-109,453,39,-190,-151,-170,-156
-356,-283,73,319,-214,-104,463,34,-204,-161,-175,-156
-356,-283,73,319,-214,-104,478,29,-209,-165,-180,-165
-370,-292,78,331,-224,-107,468,19,-209,-165,-175,-156
-380,-292,87,336,-234,-102,473,14,-219,-170,-180,-156
-390,-292,97,341,-244,-97,483,4,-229,-185,-180,-156
-395,-292,102,344,-248,-95,488,-4,-239,-190,-185,-156
-400,-287,112,344,-256,-87,502,-14,-248,-190,-195,-165
-414,-292,122,353,-268,-85,507,-24,-258,-195,-200,-165
-429,-292,136,361,-283,-78,512,-34,-268,-204,-204,-165
-439,-292,146,366,-292,-73,517,-43,-283,-209,-204,-170
-458,-307,151,383,-305,-78,531,-43,-287,-224,-209,-180
-468,-312,156,390,-312,-78,536,-53,-297,-239,-214,-180
-488,-317,170,402,-329,-73,546,-73,-307,-244,-219,-185
-502,-326,175,414,-339,-75,556,-82,-326,-253,-219,-185
-517,-317,200,417,-358,-58,556,-97,-341,-244,-214,-175
-527,-317,209,422,-368,-53,561,-112,-356,-248,-219,-175
-541,-317,224,429,-383,-46,566,-126,-370,-268,-219,-180
-551,-322,229,436,-390,-46,566,-141,-385,-273,-224,-180
-556,-312,244,434,-400,-34,570,-165,-405,-283,-234,-180
-575,-312,263,444,-419,-24,575,-180,-424,-283,-239,-180
-595,-312,283,453,-439,-14,575,-200,-434,-283,-239,-180
-610,-312,297,461,-453,-7,580,-219,-444,-278,-239,-175
-629,-322,307,475,-468,-7,580,-234,-468,-287,-239,-175
-649,-322,326,485,-488,2,585,-253,-478,-307,-244,-175
-673,-326,346,500,-509,9,585,-263,-488,-322,-244,-175
-683,-326,356,505,-519,14,585,-278,-497,-326,-244,-165
-702,-322,380,512,-541,29,585,-302,-507,-326,-244,-156
-717,-322,395,519,-556,36,580,-322,-527,-326,-244,-156
-732,-317,414,524,-573,48,580,-331,-536,-326,-244,-151
-736,-317,419,527,-578,51,575,-356,-551,-326,-239,-146
-736,-312,424,524,-580,56,580,-356,-561,-336,-239,-151
-756,-307,448,531,-602,70,575,-370,-575,-336,-234,-146
-761,-302,458,531,-610,78,570,-390,-575,-336,-234,-141
-766,-297,468,531,-617,85,566,-405,-575,-336,-229,-136
-780,-287,492,534,-636,102,551,-419,-585,-346,-234,-131
-780,-287,492,534,-636,102,541,-434,-590,-341,-229,-131
-785,-283,502,534,-644,109,531,-448,-605,-331,-224,-122
-790,-273,517,531,-653,122,522,-458,-605,-326,-209,-117
-795,-263,531,529,-663,134,507,-463,-590,-322,-200,-102
-795,-258,536,527,-666,139,492,-473,-590,-307,-190,-97
-790,-248,541,519,-666,146,478,-483,-590,-302,-185,-87
-790,-244,546,517,-668,151,463,-492,-580,-292,-170,-78
-790,-234,556,512,-673,161,439,-492,-580,-268,-151,-58
-780,-214,566,497,-673,175,424,-492,-566,-258,-141,-48
-771,-200,570,485,-671,185,409,-492,-556,-244,-131,-39
-756,-185,570,470,-663,192,390,-492,-541,-229,-122,-29
-751,-180,570,466,-661,195,385,-483,-527,-224,-107,-29
-727,-165,561,446,-644,197,370,-473,-502,-209,-97,-14
-702,-151,551,427,-627,200,356,-458,-483,-185,-78,-9
-683,-141,541,412,-612,200,341,-448,-458,-165,-68,4
-658,-131,527,395,-592,197,317,-429,-434,-146,-58,0
-634,-122,512,378,-573,195,302,-414,-409,-126,-43,9
-605,-107,497,356,-551,195,287,-390,-375,-107,-34,14
-580,-102,478,341,-529,187,273,-370,-351,-97,-29,24
-556,-97,458,326,-507,180,258,-341,-331,-87,-19,29
-531,-87,444,309,-488,178,244,-317,-297,-73,-4,34
-497,-73,424,285,-461,175,229,-292,-268,-58,4,34
-468,-68,400,268,-434,165,214,-263,-244,-39,14,34
-439,-63,375,251,-407,156,200,-253,-219,-14,19,43
-409,-58,351,234,-380,146,185,-229,-195,-4,24,43
-385,-48,336,217,-361,143,175,-204,-170,9,24,43
-356,-43,312,200,-334,134,161,-180,-156,14,34,43
-326,-29,297,178,-312,134,156,-165,-141,9,39,43
-297,-24,273,161,-285,124,146,-136,-117,24,43,43
-278,-24,253,151,-265,114,136,-117,-92,29,48,43
-253,-24,229,139,-241,102,126,-97,-73,39,48,48
-224,-24,200,124,-212,87,107,-78,-58,43,43,39
-200,-19,180,109,-190,80,97,-63,-48,48,43,34
-180,-19,161,100,-170,70,92,-53,-34,53,43,34
-156,-19,136,87,-146,58,82,-39,-19,58,48,34
-131,-9,122,70,-126,56,78,-19,-4,63,48,43
-107,-9,97,58,-102,43,68,-4,0,63,48,39
-97,-14,82,56,-90,34,63,4,9,63,48,39
-82,-14,68,48,-75,26,63,14,19,63,48,34
-78,-24,53,51,-65,14,58,29,24,63,58,34
-63,-24,39,43,-51,7,53,39,34,63,58,29
-58,-24,34,41,-46,4,48,48,34,68,58,29
-43,-24,19,34,-31,-2,48,58,39,68,58,29
-43,-19,24,31,-34,2,48,63,43,68,48,34
-34,-19,14,26,-24,-2,43,73,43,68,48,34
-29,-24,4,26,-17,-9,43,73,43,63,48,24
-29,-24,4,26,-17,-9,39,78,48,58,43,24
-4,-34,-29,19,12,-31,29,82,48,48,43,19
0,-34,-34,17,17,-34,24,87,48,43,39,14
4,-34,-39,14,21,-36,24,92,53,43,39,9
9,-39,-48,14,29,-43,24,97,53,39,39,0
14,-43,-58,14,36,-51,19,87,48,48,34,0
19,-39,-58,9,39,-48,19,87,48,48,34,0
24,-34,-58,4,41,-46,24,92,48,48,34,0
24,-29,-53,2,39,-41,24,97,48,53,34,0
29,-34,-63,2,46,-48,24,107,48,53,34,-4
29,-39,-68,4,48,-53,19,107,48,48,24,-4
34,-43,-78,4,56,-61,19,107,48,48,24,-4
34,-48,-82,7,58,-65,19,107,48,48,29,-9
39,-48,-87,4,63,-68,24,102,48,58,29,0
39,-53,-92,7,65,-73,24,102,48,53,34,0
39,-53,-92,7,65,-73,24,102,48,43,34,0
43,-53,-97,4,70,-75,24,107,48,43,24,0
34,-53,-87,9,61,-70,14,117,58,48,14,0
34,-58,-92,12,63,-75,14,117,58,48,14,0
34,-58,-92,12,63,-75,19,117,58,48,14,0
34,-58,-92,12,63,-75,19,117,58,43,14,-4
43,-48,-92,2,68,-70,19,112,48,34,29,-4
43,-48,-92,2,68,-70,19,112,53,34,29,-4
43,-53,-97,4,70,-75,19,112,53,39,29,-4
43,-53,-97,4,70,-75,14,112,53,39,24,-4
43,-53,-97,4,70,-75,24,122,53,29,24,-4
43,-53,-97,4,70,-75,24,122,53,29,29,-4
43,-53,-97,4,70,-75,29,117,53,34,29,-4
43,-53,-97,4,70,-75,29,117,53,34,29,-4
53,-43,-97,-4,75,-70,19,107,43,43,29,4
53,-43,-97,-4,75,-70,19,107,43,43,29,4
53,-39,-92,-7,73,-65,19,107,43,48,29,4
53,-39,-92,-7,73,-65,14,107,43,48,29,9
43,-48,-92,2,68,-70,4,107,43,53,29,0
43,-48,-92,2,68,-70,4,107,43,53,24,0
43,-48,-92,2,68,-70,4,107,43,53,24,0
43,-48,-92,2,68,-70,4,107,43,53,24,0
43,-39,-82,-2,63,-61,19,107,43,53,24,-4
43,-39,-82,-2,63,-61,19,107,43,48,24,-4
43,-39,-82,-2,63,-61,19,107,43,34,24,-4
43,-39,-82,-2,63,-61,19,107,43,29,19,-4
34,-43,-78,4,56,-61,19,117,53,29,19,4
34,-48,-82,7,58,-65,19,122,53,29,19,4
34,-53,-87,9,61,-70,19,122,53,34,24,4
34,-53,-87,9,61,-70,19,122,53,34,29,4
34,-43,-78,4,56,-61,19,107,53,48,34,14
34,-48,-82,7,58,-65,19,107,53,53,34,14
34,-48,-82,7,58,-65,19,107,53,53,34,19
29,-43,-73,7,51,-58,19,107,53,53,34,19
29,-43,-73,7,51,-58,9,107,43,58,43,19
29,-48,-78,9,53,-63,9,107,43,58,34,14
29,-48,-78,9,53,-63,9,107,43,58,34,14
29,-48,-78,9,53,-63,9,107,43,58,39,14
29,-43,-73,7,51,-58,9,107,43,53,29,4
29,-43,-73,7,51,-58,9,107,43,48,29,9
29,-43,-73,7,51,-58,9,107,48,43,29,9
29,-43,-73,7,51,-58,9,102,48,39,29,4
29,-39,-68,4,48,-53,19,102,39,48,29,-4
29,-39,-68,4,48,-53,19,102,39,48,29,-4
29,-34,-63,2,46,-48,19,102,39,48,24,0
29,-34,-63,2,46,-48,19,102,39,48,24,4
29,-43,-73,7,51,-58,19,102,48,48,24,-4
29,-43,-73,7,51,-58,19,102,48,48,24,-4
29,-43,-73,7,51,-58,19,102,48,43,14,-4
29,-43,-73,7,51,-58,14,102,48,43,9,-4
29,-43,-73,7,51,-58,14,102,58,43,9,0
29,-43,-73,7,51,-58,14,97,58,48,14,-4
29,-39,-68,4,48,-53,14,97,58,48,14,-4
29,-39,-68,4,48,-53,14,97,58,48,14,-4
39,-34,-73,-2,56,-53,14,97,53,53,24,-4
34,-34,-68,0,51,-51,14,97,53,53,24,-4
34,-34,-68,0,51,-51,14,92,53,58,24,0
34,-34,-68,0,51,-51,14,92,53,58,24,0
24,-34,-58,4,41,-46,14,92,43,53,14,0
24,-39,-63,7,43,-51,14,92,43,48,19,0
24,-43,-68,9,46,-56,14,92,43,39,19,0
24,-53,-78,14,51,-65,14,92,43,34,19,0
24,-48,-73,12,48,-61,4,92,43,43,19,0
24,-43,-68,9,46,-56,0,92,43,48,24,0
24,-39,-63,7,43,-51,0,87,43,48,29,0
24,-34,-58,4,41,-46,0,87,39,43,29,0
24,-43,-68,9,46,-56,0,87,39,43,19,0
24,-43,-68,9,46,-56,0,87,39,43,19,-4
24,-43,-68,9,46,-56,0,87,39,43,19,-4
24,-43,-68,9,46,-56,0,87,39,43,19,0
19,-43,-63,12,41,-53,9,87,29,34,19,0
19,-43,-63,12,41,-53,9,87,29,34,19,0
24,-43,-68,9,46,-56,9,82,29,34,19,-4
24,-43,-68,9,46,-56,9,82,29,29,19,-4
24,-34,-58,4,41,-46,9,73,39,39,29,4
24,-34,-58,4,41,-46,4,73,39,43,29,4
24,-34,-58,4,41,-46,4,73,39,43,29,9
24,-34,-58,4,41,-46,4,73,39,48,29,9
29,-43,-73,7,51,-58,4,78,39,48,19,9
29,-43,-73,7,51,-58,4,78,39,48,14,4
29,-43,-73,7,51,-58,4,78,39,43,9,4
29,-43,-73,7,51,-58,4,78,39,34,9,4
29,-34,-63,2,46,-48,-4,78,39,43,19,4
29,-34,-63,2,46,-48,-4,78,39,43,19,4
29,-34,-63,2,46,-48,-4,78,39,48,19,4
29,-34,-63,2,46,-48,-9,73,34,48,19,4
19,-43,-63,12,41,-53,-9,82,43,53,14,-4
19,-43,-63,12,41,-53,-4,82,43,53,19,-4
19,-43,-63,12,41,-53,-4,82,43,53,19,0
19,-43,-63,12,41,-53,-4,82,43,48,14,0
19,-48,-68,14,43,-58,4,73,34,43,14,0
19,-48,-68,14,43,-58,0,73,34,39,14,0
19,-48,-68,14,43,-58,-4,73,34,29,9,-4
19,-48,-68,14,43,-58,-4,78,34,24,9,-4
24,-43,-68,9,46,-56,-4,78,34,24,9,-4
24,-43,-68,9,46,-56,-4,78,34,24,9,-4
24,-43,-68,9,46,-56,-4,73,34,24,9,-4
19,-48,-68,14,43,-58,-4,73,34,24,14,-4
29,-43,-73,7,51,-58,-14,63,34,39,19,4
29,-34,-63,2,46,-48,-14,63,34,43,24,4
29,-29,-58,0,43,-43,-14,63,34,53,29,4
29,-24,-53,-2,41,-39,-14,63,34,58,34,9
19,-34,-53,7,36,-43,-4,73,34,48,34,14
19,-34,-53,7,36,-43,-4,73,34,48,34,14
19,-34,-53,7,36,-43,-4,73,34,48,34,9
14,-34,-48,9,31,-41,-4,73,34,48,34,4
14,-34,-48,9,31,-41,4,73,43,43,29,-4
19,-34,-53,7,36,-43,4,73,43,39,24,-4
19,-34,-53,7,36,-43,4,73,39,29,19,0
24,-39,-63,7,43,-51,4,73,39,24,9,0
24,-48,-73,12,48,-61,4,73,43,39,9,-4
19,-48,-68,14,43,-58,4,73,43,39,14,-4
19,-48,-68,14,43,-58,0,73,43,39,14,0
19,-48,-68,14,43,-58,0,73,43,39,9,0
19,-48,-68,14,43,-58,-4,68,34,43,14,-4
24,-48,-73,12,48,-61,-4,68,34,48,19,-4
24,-43,-68,9,46,-56,-9,68,34,53,29,-4
24,-43,-68,9,46,-56,-9,68,34,58,39,0
34,-34,-68,0,51,-51,-9,68,34,58,39,4
34,-34,-68,0,51,-51,-9,68,34,58,39,9
24,-34,-58,4,41,-46,-9,68,34,58,34,9
24,-34,-58,4,41,-46,-9,68,34,58,34,4
24,-34,-58,4,41,-46,-9,68,34,43,19,4
29,-34,-63,2,46,-48,-4,68,34,34,19,4
29,-34,-63,2,46,-48,-4,68,34,29,24,4
29,-34,-63,2,46,-48,-4,68,29,24,24,0
29,-43,-73,7,51,-58,-4,73,39,24,14,-9
29,-43,-73,7,51,-58,-4,73,43,29,14,-9
29,-43,-73,7,51,-58,-4,73,43,29,14,-9
29,-43,-73,7,51,-58,-4,73,43,29,14,-9
24,-43,-68,9,46,-56,-4,63,39,39,29,-4
19,-43,-63,12,41,-53,-4,63,39,39,29,0
14,-48,-63,17,39,-56,-4,68,39,43,24,4
14,-48,-63,17,39,-56,0,68,39,43,24,9
24,-39,-63,7,43,-51,0,78,34,34,24,9
24,-39,-63,7,43,-51,0,73,34,34,24,14
24,-39,-63,7,43,-51,0,73,34,34,24,14
24,-39,-63,7,43,-51,0,78,29,34,24,14
24,-39,-63,7,43,-51,0,68,39,43,24,4
29,-29,-58,0,43,-43,4,68,48,43,14,-4
29,-39,-68,4,48,-53,-4,73,43,43,14,-9
29,-39,-68,4,48,-53,-4,73,43,48,19,-9
29,-39,-68,4,48,-53,-9,78,39,48,19,-9
19,-48,-68,14,43,-58,-9,68,39,48,29,0
19,-48,-68,14,43,-58,-9,68,39,48,29,0
19,-48,-68,14,43,-58,-9,68,39,48,29,0
19,-48,-68,14,43,-58,-9,68,39,48,29,0
19,-39,-58,9,39,-48,0,68,39,39,29,9
19,-39,-58,9,39,-48,0,68,39,39,29,9
19,-39,-58,9,39,-48,0,68,39,39,29,9
19,-39,-58,9,39,-48,0,68,39,39,29,9
19,-39,-58,9,39,-48,-9,68,39,39,19,4
19,-39,-58,9,39,-48,-9,68,39,39,19,0
19,-39,-58,9,39,-48,-9,68,39,39,19,-4
19,-39,-58,9,39,-48,-9,68,39,39,19,-9
29,-39,-68,4,48,-53,0,68,39,29,29,0
29,-39,-68,4,48,-53,0,68,39,29,29,0
29,-39,-68,4,48,-53,0,68,39,29,29,0
29,-39,-68,4,48,-53,0,68,39,29,29,0
29,-39,-68,4,48,-53,9,73,43,34,29,9
29,-39,-68,4,48,-53,9,78,48,39,29,9
29,-39,-68,4,48,-53,9,82,53,43,29,9
29,-39,-68,4,48,-53,9,87,58,48,29,9
29,-39,-68,4,48,-53,24,92,58,58,39,0
29,-34,-63,2,46,-48,24,92,68,58,34,0
39,-34,-73,-2,56,-53,29,102,68,63,34,0
39,-34,-73,-2,56,-53,43,107,73,68,34,-4
48,-34,-82,-7,65,-58,58,112,87,68,24,-4
53,-34,-87,-9,70,-61,63,122,87,73,29,-4
63,-34,-97,-14,80,-65,63,126,87,73,34,0
63,-29,-92,-17,78,-61,63,126,92,73,34,4
63,-29,-92,-17,78,-61,53,126,97,68,29,4
63,-29,-92,-17,78,-61,58,126,82,63,24,4
63,-29,-92,-17,78,-61,58,126,78,58,19,0
68,-29,-97,-19,82,-63,53,136,78,53,14,0
73,-29,-102,-21,87,-65,53,136,92,63,24,4
78,-29,-107,-24,92,-68,53,136,92,68,29,4
82,-19,-102,-31,92,-61,48,136,97,68,34,9
92,-19,-112,-36,102,-65,39,136,97,78,39,14
92,-29,-122,-31,107,-75,43,136,87,73,39,14
92,-29,-122,-31,107,-75,39,131,87,68,39,14
97,-29,-126,-34,112,-78,34,131,87,63,39,14
107,-29,-136,-39,122,-82,24,131,82,53,39,9
102,-24,-126,-39,114,-75,4,131,92,58,34,9
107,-9,-117,-48,112,-63,0,122,87,58,34,19
112,9,-102,-61,107,-46,-19,117,87,63,48,29
122,24,-97,-73,109,-36,-24,112,87,78,63,43
122,48,-73,-85,97,-12,-29,107,87,82,82,53
122,68,-53,-95,87,7,-34,102,87,87,82,63
126,87,-39,-107,82,24,-39,97,92,97,97,73
131,97,-34,-114,82,31,-48,92,92,97,107,78
146,107,-39,-126,92,34,-58,87,92,107,117,92
146,122,-24,-134,85,48,-63,82,92,117,122,97
136,117,-19,-126,78,48,-63,78,82,126,122,102
131,107,-24,-119,78,41,-58,73,78,126,117,97
126,97,-29,-112,78,34,-58,73,82,117,102,92
126,82,-43,-104,85,19,-53,73,82,107,97,82
126,73,-53,-100,90,9,-53,78,82,102,92,78
136,68,-68,-102,102,0,-58,78,82,97,92,78
131,63,-68,-97,100,-2,-58,87,92,82,82,73
146,63,-82,-104,114,-9,-58,92,102,78,73,68
156,63,-92,-109,124,-14,-58,102,107,82,73,68
156,58,-97,-107,126,-19,-53,107,117,82,73,68
170,58,-112,-114,141,-26,-53,117,117,97,87,73
170,63,-107,-117,139,-21,-58,117,117,107,87,73
170,63,-107,-117,139,-21,-58,117,117,107,82,73
161,53,-107,-107,134,-26,-53,112,107,92,78,73
161,34,-126,-97,143,-46,-63,102,97,73,78,63
161,29,-131,-95,146,-51,-63,92,87,73,78,63
165,29,-136,-97,151,-53,-68,92,78,68,78,58
165,29,-136,-97,151,-53,-68,87,73,68,78,58
156,19,-136,-87,146,-58,-58,87,78,78,73,58
146,19,-126,-82,136,-53,-53,87,78,73,73,53
131,14,-117,-73,124,-51,-53,82,78,73,68,48
131,9,-122,-70,126,-56,-43,82,78,73,68,43
126,19,-107,-73,117,-43,-48,82,78,73,68,43
126,24,-102,-75,114,-39,-43,87,82,73,63,39
126,24,-102,-75,114,-39,-43,87,82,73,58,39
126,19,-107,-73,117,-43,-39,87,82,73,53,34
117,9,-107,-63,112,-48,-39,87,73,73,58,24
102,0,-102,-51,102,-51,-34,87,73,68,53,19
92,-4,-97,-43,95,-51,-29,87,73,63,48,14
73,-19,-92,-26,82,-56,-19,87,73,58,39,9
58,-29,-87,-14,73,-58,-19,78,63,43,19,-4
53,-43,-97,-4,75,-70,-19,73,48,29,9,-19
39,-58,-97,9,68,-78,-19,68,43,19,4,-24
34,-58,-92,12,63,-75,-14,63,43,14,4,-24
24,-68,-92,21,58,-80,-4,63,34,24,4,-14
24,-63,-87,19,56,-75,-4,63,29,24,4,-14
9,-63,-73,26,41,-68,-4,63,29,24,4,-4
9,-68,-78,29,43,-73,-4,53,29,24,4,-4
-9,-68,-58,39,24,-63,-4,53,39,34,0,-9
-9,-68,-58,39,24,-63,-9,58,34,34,0,-9
-9,-68,-58,39,24,-63,-9,58,34,34,0,-9
-9,-68,-58,39,24,-63,-9,63,34,34,0,-9
0,-58,-58,29,29,-58,-9,63,43,19,-4,-9
0,-58,-58,29,29,-58,-9,68,43,19,-4,-9
0,-58,-58,29,29,-58,-4,68,43,19,-4,-9
0,-58,-58,29,29,-58,-4,68,48,24,-4,-9
0,-48,-48,24,24,-48,-14,63,39,24,4,-9
0,-48,-48,24,24,-48,-14,63,39,29,4,-9
0,-48,-48,24,24,-48,-14,63,39,29,4,-9
0,-53,-53,26,26,-53,-14,63,39,29,4,-9
-4,-53,-48,29,21,-51,-4,63,43,19,4,-9
0,-53,-53,26,26,-53,0,63,53,14,4,-9
-14,-43,-29,29,7,-36,9,63,63,48,24,0
-34,-14,19,24,-26,2,34,87,97,102,43,24
-48,24,73,12,-61,48,78,131,165,146,78,48
-63,63,126,0,-95,95,136,185,224,195,102,63
-87,82,170,2,-129,126,204,244,297,244,126,73
-78,131,209,-26,-143,170,263,351,395,322,175,102
-39,190,229,-75,-134,209,336,488,536,439,229,141
9,258,248,-134,-119,253,380,658,702,551,292,175
68,341,273,-204,-102,307,370,785,897,692,385,229
146,478,331,-312,-92,405,341,888,1107,878,512,322
244,610,366,-427,-61,488,322,1044,1366,1093,663,429
380,775,395,-578,-7,585,317,1254,1644,1327,819,536
561,946,385,-753,87,666,204,1439,1912,1546,971,639
746,1034,287,-890,229,661,-24,1473,2098,1698,1063,692
868,1098,229,-983,319,663,-322,1298,2166,1790,1151,756
976,1234,258,-1105,358,746,-707,1044,2230,1908,1259,863
1122,1405,283,-1263,419,844,-1151,849,2352,2054,1410,985
1312,1600,287,-1456,512,944,-1542,678,2479,2225,1561,1122
1532,1825,292,-1678,619,1058,-1912,522,2547,2347,1708,1244
1805,2039,234,-1922,785,1137,-2318,424,2527,2371,1820,1337
2074,2161,87,-2117,993,1124,-2693,326,2361,2254,1830,1395
2264,2181,-82,-2222,1173,1049,-2952,156,2000,1966,1742,1390
2400,2142,-258,-2271,1329,941,-3128,14,1605,1625,1605,1337
2518,2049,-468,-2283,1493,790,-3313,-156,1195,1302,1483,1283
2640,1893,-746,-2266,1693,573,-3459,-390,712,941,1322,1190
2742,1683,-1058,-2213,1900,312,-3489,-590,204,512,1078,1034
2801,1395,-1405,-2098,2103,-4,-3425,-805,-370,-19,741,805
2732,971,-1761,-1851,2247,-395,-3294,-1263,-1244,-663,326,517
2552,473,-2078,-1512,2315,-802,-3108,-1805,-2161,-1322,-102,209
2337,156,-2181,-1246,2259,-1012,-2874,-2020,-2522,-1615,-312,58
2030,78,-1952,-1054,1991,-936,-2615,-2005,-2366,-1512,-263,102
1581,53,-1527,-817,1554,-736,-2318,-2034,-2200,-1307,-136,214
1068,53,-1015,-561,1041,-480,-1942,-2015,-2015,-1112,0,326
614,122,-492,-368,553,-185,-1556,-1805,-1678,-839,185,468
331,190,-141,-261,236,24,-1220,-1503,-1293,-556,322,556
229,219,-9,-224,119,104,-966,-1210,-1000,-375,385,566
190,234,43,-212,73,139,-756,-946,-766,-244,409,551
122,224,102,-173,9,163,-585,-717,-575,-141,409,522
53,190,136,-122,-41,163,-424,-536,-444,-78,361,453
29,156,126,-92,-48,141,-297,-405,-336,-48,287,366
-4,126,131,-61,-68,129,-204,-317,-263,-24,229,292
-34,82,117,-24,-75,100,-131,-234,-224,-24,170,214
-68,0,68,34,-68,34,-48,-161,-190,-43,87,117
-97,-78,19,87,-58,-29,9,-97,-161,-87,-19,4
-112,-136,-24,124,-43,-80,48,-58,-141,-107,-73,-58
-102,-151,-48,126,-26,-100,78,-34,-122,-87,-82,-68
-92,-156,-63,124,-14,-109,82,-19,-107,-73,-87,-73
-97,-170,-73,134,-12,-122,92,-9,-107,-87,-87,-78
-107,-170,-63,139,-21,-117,102,-9,-107,-92,-87,-82
-117,-170,-53,143,-31,-112,107,-9,-102,-97,-92,-82
-122,-175,-53,148,-34,-114,117,0,-97,-102,-92,-87
-122,-180,-58,151,-31,-119,126,4,-87,-97,-102,-87
-126,-180,-53,153,-36,-117,136,9,-87,-97,-102,-87
-126,-180,-53,153,-36,-117,136,9,-87,-87,-102,-87
-126,-185,-58,156,-34,-122,141,19,-87,-87,-102,-87
-126,-195,-68,161,-29,-131,136,24,-87,-97,-112,-102
-126,-190,-63,158,-31,-126,146,29,-82,-92,-112,-102
-131,-190,-58,161,-36,-124,151,34,-82,-92,-112,-102
-131,-190,-58,161,-36,-124,156,34,-82,-92,-112,-102
-126,-180,-53,153,-36,-117,161,39,-73,-102,-112,-102
-126,-185,-58,156,-34,-122,161,43,-68,-102,-112,-102
-136,-190,-53,163,-41,-122,161,43,-68,-102,-112,-107
-136,-190,-53,163,-41,-122,161,43,-68,-102,-112,-112
-126,-190,-63,158,-31,-126,165,43,-68,-97,-107,-112
-126,-190,-63,158,-31,-126,165,48,-68,-92,-107,-107
-126,-190,-63,158,-31,-126,175,48,-58,-78,-107,-107
-126,-190,-63,158,-31,-126,175,48,-58,-73,-102,-107
-136,-190,-53,163,-41,-122,175,53,-68,-73,-102,-97
-136,-190,-53,163,-41,-122,180,53,-68,-73,-102,-97
-136,-195,-58,165,-39,-126,180,53,-68,-78,-107,-102
-141,-195,-53,168,-43,-124,185,53,-68,-78,-107,-102
-141,-200,-58,170,-41,-129,195,53,-68,-87,-117,-107
-141,-200,-58,170,-41,-129,195,58,-68,-87,-117,-107
-141,-200,-58,170,-41,-129,195,58,-68,-92,-117,-107
-141,-200,-58,170,-41,-129,200,58,-68,-92,-117,-107
-141,-200,-58,170,-41,-129,200,63,-68,-87,-117,-107
-146,-204,-58,175,-43,-131,204,63,-68,-87,-122,-107
-146,-204,-58,175,-43,-131,204,63,-68,-87,-122,-107
-146,-204,-58,175,-43,-131,209,63,-63,-87,-122,-107
-141,-204,-63,173,-39,-134,200,63,-63,-87,-112,-117
-141,-204,-63,173,-39,-134,209,63,-63,-92,-112,-117
-146,-204,-58,175,-43,-131,209,68,-63,-92,-112,-117
-146,-200,-53,173,-46,-126,209,68,-63,-92,-112,-117
-146,-209,-63,178,-41,-136,209,68,-68,-102,-122,-117
-146,-209,-63,178,-41,-136,209,68,-68,-102,-126,-117
-151,-209,-58,180,-46,-134,209,68,-68,-102,-126,-117
-151,-209,-58,180,-46,-134,219,73,-68,-102,-126,-122
-141,-209,-68,175,-36,-139,219,63,-68,-92,-126,-112
-141,-209,-68,175,-36,-139,219,63,-68,-92,-126,-112
-141,-214,-73,178,-34,-143,229,63,-68,-92,-126,-112
-141,-219,-78,180,-31,-148,229,63,-68,-92,-126,-112
-156,-209,-53,183,-51,-131,229,63,-68,-92,-126,-122
-156,-204,-48,180,-53,-126,229,63,-73,-92,-126,-122
-156,-204,-48,180,-53,-126,234,63,-73,-92,-126,-122
-156,-204,-48,180,-53,-126,234,63,-73,-92,-126,-122
-161,-209,-48,185,-56,-129,234,63,-78,-107,-126,-126
-161,-219,-58,190,-51,-139,244,63,-78,-107,-131,-126
-165,-224,-58,195,-53,-141,244,63,-78,-112,-131,-126
-165,-229,-63,197,-51,-146,244,63,-78,-112,-131,-126
-156,-214,-58,185,-48,-136,244,63,-82,-102,-122,-117
-156,-214,-58,185,-48,-136,248,63,-82,-102,-122,-117
-161,-214,-53,187,-53,-134,248,63,-82,-102,-122,-117
-165,-219,-53,192,-56,-136,253,63,-82,-102,-122,-117
-175,-219,-43,197,-65,-131,244,63,-87,-112,-131,-126
-170,-219,-48,195,-61,-134,248,63,-87,-112,-136,-126
-170,-219,-48,195,-61,-134,248,63,-87,-112,-136,-126
-170,-224,-53,197,-58,-139,258,63,-87,-112,-136,-126
-175,-234,-58,204,-58,-146,268,63,-92,-122,-141,-126
-180,-234,-53,207,-63,-143,273,58,-92,-122,-146,-131
-180,-234,-53,207,-63,-143,273,58,-92,-126,-151,-131
-185,-234,-48,209,-68,-141,273,63,-92,-126,-161,-131
-175,-234,-58,204,-58,-146,273,63,-107,-126,-156,-131
-175,-229,-53,202,-61,-141,273,63,-107,-122,-151,-141
-180,-224,-43,202,-68,-134,283,63,-107,-117,-146,-131
-185,-219,-34,202,-75,-126,283,63,-112,-117,-141,-131
-175,-209,-34,192,-70,-122,287,58,-102,-117,-136,-122
-185,-209,-24,197,-80,-117,292,58,-102,-117,-136,-122
-190,-209,-19,200,-85,-114,292,58,-107,-117,-136,-122
-190,-214,-24,202,-82,-119,292,58,-117,-122,-136,-122
-195,-224,-29,209,-82,-126,297,58,-117,-131,-151,-131
-204,-224,-19,214,-92,-122,302,58,-117,-136,-161,-136
-214,-229,-14,222,-100,-122,307,58,-117,-141,-161,-141
-224,-229,-4,226,-109,-117,312,58,-117,-151,-156,-146
-214,-239,-24,226,-95,-131,317,53,-122,-146,-156,-141
-214,-239,-24,226,-95,-131,322,53,-126,-151,-161,-146
-219,-239,-19,229,-100,-129,326,53,-131,-146,-161,-146
-219,-239,-19,229,-100,-129,331,53,-131,-146,-161,-146
-224,-244,-19,234,-102,-131,326,43,-146,-156,-156,-136
-229,-244,-14,236,-107,-129,331,43,-151,-161,-165,-136
-234,-239,-4,236,-114,-122,336,34,-156,-161,-165,-141
-239,-234,4,236,-122,-114,341,34,-156,-161,-165,-141
-244,-239,4,241,-124,-117,351,34,-161,-175,-180,-146
-248,-244,4,246,-126,-119,356,34,-165,-175,-185,-156
-258,-253,4,256,-131,-124,361,24,-170,-175,-190,-161
-263,-258,4,261,-134,-126,366,24,-175,-185,-200,-165
-263,-248,14,256,-139,-117,375,34,-175,-185,-190,-165
-273,-248,24,261,-148,-112,380,24,-180,-185,-190,-165
-283,-253,29,268,-156,-112,385,19,-190,-180,-200,-170
-287,-253,34,270,-161,-109,395,14,-195,-180,-204,-170
-287,-244,43,265,-165,-100,390,4,-200,-175,-204,-165
-297,-253,43,275,-170,-104,395,0,-209,-180,-200,-165
-307,-253,53,280,-180,-100,405,-4,-224,-190,-200,-161
-307,-253,53,280,-180,-100,419,-9,-229,-195,-200,-165
-322,-273,48,297,-185,-112,429,-9,-229,-204,-209,-175
-331,-273,58,302,-195,-107,434,-14,-239,-219,-219,-175
-341,-273,68,307,-204,-102,444,-24,-248,-244,-224,-175
-346,-273,73,309,-209,-100,448,-34,-258,-258,-234,-175
-351,-268,82,309,-217,-92,453,-43,-268,-248,-234,-185
-366,-273,92,319,-229,-90,458,-53,-278,-253,-239,-185
-380,-273,107,326,-244,-82,463,-63,-287,-263,-244,-185
-390,-273,117,331,-253,-78,468,-73,-302,-268,-244,-190
-409,-283,126,346,-268,-78,473,-82,-317,-258,-244,-180
-419,-283,136,351,-278,-73,478,-92,-326,-268,-244,-180
-439,-283,156,361,-297,-63,488,-112,-336,-268,-244,-185
-453,-287,165,370,-309,-61,497,-122,-356,-273,-239,-185
-468,-283,185,375,-326,-48,488,-136,-361,-283,-244,-185
-478,-278,200,378,-339,-39,492,-151,-375,-287,-248,-185
-492,-273,219,383,-356,-26,497,-165,-390,-307,-248,-190
-502,-273,229,387,-366,-21,497,-180,-405,-312,-253,-190
-517,-283,234,400,-375,-24,512,-195,-424,-336,-268,-200
-536,-283,253,409,-395,-14,517,-209,-444,-341,-278,-200
-556,-283,273,419,-414,-4,517,-229,-453,-346,-283,-200
-570,-283,287,427,-429,2,522,-248,-463,-346,-287,-195
-570,-283,287,427,-429,2,531,-253,-478,-351,-287,-195
-590,-283,307,436,-448,12,536,-273,-488,-366,-292,-195
-614,-287,326,451,-470,19,536,-283,-497,-375,-292,-195
-624,-287,336,456,-480,24,536,-297,-507,-375,-292,-185
-644,-283,361,463,-502,39,536,-322,-536,-380,-292,-175
-658,-283,375,470,-517,46,531,-341,-556,-385,-292,-175
-673,-278,395,475,-534,58,531,-351,-566,-390,-292,-170
-678,-278,400,478,-539,61,527,-375,-580,-395,-287,-165
-688,-273,414,480,-551,70,531,-395,-585,-385,-287,-161
-707,-268,439,488,-573,85,527,-409,-605,-385,-283,-156
-712,-263,448,488,-580,92,522,-429,-610,-385,-283,-151
-717,-258,458,488,-588,100,517,-444,-614,-385,-278,-146
-722,-239,483,480,-602,122,512,-448,-614,-395,-283,-151
-722,-239,483,480,-602,122,502,-463,-619,-390,-278,-151
-727,-234,492,480,-610,129,492,-478,-634,-380,-273,-141
-732,-224,507,478,-619,141,483,-488,-634,-375,-258,-136
-746,-214,531,480,-639,158,468,-502,-639,-370,-248,-122
-746,-209,536,478,-641,163,453,-512,-639,-356,-239,-117
-741,-200,541,470,-641,170,439,-522,-639,-351,-234,-107
-741,-195,546,468,-644,175,424,-531,-629,-341,-219,-97
-732,-185,546,458,-639,180,400,-531,-629,-346,-214,-97
-722,-165,556,444,-639,195,385,-531,-614,-346,-209,-87
-712,-151,561,431,-636,204,370,-531,-605,-341,-204,-78
-697,-136,561,417,-629,212,351,-531,-590,-336,-200,-68
-697,-131,566,414,-631,217,346,-531,-575,-312,-180,-58
-678,-117,561,397,-619,222,331,-522,-551,-287,-165,-43
-658,-102,556,380,-607,226,317,-507,-531,-253,-141,-39
-644,-92,551,368,-597,229,302,-497,-507,-224,-126,-24
-639,-82,556,361,-597,236,287,-478,-483,-204,-107,-19
-614,-73,541,344,-578,234,273,-463,-458,-185,-92,-9
-585,-58,527,322,-556,234,258,-439,-424,-165,-82,-4
-561,-53,507,307,-534,226,244,-419,-400,-156,-78,4
-536,-58,478,297,-507,209,239,-400,-380,-146,-68,9
-512,-48,463,280,-488,207,224,-375,-346,-131,-53,14
-478,-34,444,256,-461,204,209,-351,-317,-117,-43,14
-448,-29,419,239,-434,195,195,-322,-292,-97,-34,14
-419,-24,395,222,-407,185,190,-302,-258,-73,-19,24
-390,-19,370,204,-380,175,175,-278,-234,-63,-14,24
-366,-9,356,187,-361,173,165,-253,-209,-48,-14,24
-336,-4,331,170,-334,163,151,-229,-195,-43,-4,24
-307,0,307,153,-307,153,131,-214,-170,-39,-9,14
-278,4,283,136,-280,143,117,-185,-146,-24,-4,14
-258,4,263,126,-261,134,102,-165,-122,-19,0,14
-234,4,239,114,-236,122,87,-146,-102,-9,0,19
-209,4,214,102,-212,109,87,-136,-97,-9,0,9
-190,9,200,90,-195,104,78,-122,-87,-9,-4,4
-175,9,185,82,-180,97,73,-112,-73,-9,-9,4
-156,9,165,73,-161,87,63,-97,-58,-9,-9,4
-141,0,141,70,-141,70,58,-68,-34,-14,-9,4
-117,0,117,58,-117,58,48,-53,-29,-14,-9,0
-107,-4,102,56,-104,48,43,-43,-19,-14,-9,0
-92,-4,87,48,-90,41,43,-34,-9,-14,-9,-4
-68,4,73,31,-70,39,39,-19,4,0,0,4
-53,4,58,24,-56,31,34,-9,14,4,0,0
-48,4,53,21,-51,29,29,0,14,14,0,0
-34,4,39,14,-36,21,29,9,19,19,0,0
-24,9,34,7,-29,21,29,14,34,19,0,4
-14,9,24,2,-19,17,24,24,34,19,0,4
-9,4,14,2,-12,9,24,24,34,14,0,-4
-9,4,14,2,-12,9,19,29,39,9,-4,-4
-4,-4,0,4,-2,-2,19,34,29,14,4,-4
0,-4,-4,2,2,-4,14,39,29,14,0,-4
4,-4,-9,0,7,-7,14,43,34,19,0,-4
9,-9,-19,0,14,-14,14,48,34,19,0,-9
14,-19,-34,2,24,-26,0,48,29,4,-9,-19
19,-19,-39,0,29,-29,0,48,29,0,-14,-19
24,-19,-43,-2,34,-31,4,53,29,-4,-19,-19
24,-19,-43,-2,34,-31,4,58,29,-4,-24,-19
29,-9,-39,-9,34,-24,4,68,29,-4,-24,-24
29,-9,-39,-9,34,-24,0,68,29,-9,-34,-24
34,-9,-43,-12,39,-26,0,68,29,-9,-34,-24
34,-9,-43,-12,39,-26,0,68,29,-9,-29,-29
39,-9,-48,-14,43,-29,-4,73,29,-9,-39,-29
39,-14,-53,-12,46,-34,-4,73,29,-14,-34,-29
39,-14,-53,-12,46,-34,-4,73,29,-24,-34,-29
43,-14,-58,-14,51,-36,-4,78,29,-24,-43,-29
43,-14,-58,-14,51,-36,-4,68,19,-4,-39,-29
43,-19,-63,-12,53,-41,-4,68,19,0,-34,-29
43,-19,-63,-12,53,-41,0,68,19,4,-29,-29
43,-19,-63,-12,53,-41,0,68,19,4,-24,-34
43,-29,-73,-7,58,-51,0,73,29,-9,-24,-34
43,-29,-73,-7,58,-51,0,73,34,-14,-29,-34
43,-34,-78,-4,61,-56,0,73,34,-14,-34,-34
43,-34,-78,-4,61,-56,-4,73,34,-19,-43,-34
43,-24,-68,-9,56,-46,-4,82,34,-9,-43,-43
43,-24,-68,-9,56,-46,-4,82,34,-9,-39,-43
43,-24,-68,-9,56,-46,0,78,34,-4,-39,-43
43,-24,-68,-9,56,-46,0,78,34,-4,-39,-43
34,-24,-58,-4,46,-41,0,78,34,4,-29,-34
34,-24,-58,-4,46,-41,0,78,34,4,-29,-34
34,-19,-53,-7,43,-36,0,78,34,9,-29,-34
34,-19,-53,-7,43,-36,-4,78,34,9,-29,-29
43,-19,-63,-12,53,-41,-4,78,34,0,-29,-39
43,-19,-63,-12,53,-41,-4,78,34,-4,-34,-39
43,-19,-63,-12,53,-41,-4,78,34,-9,-34,-39
43,-19,-63,-12,53,-41,-4,78,34,-14,-34,-39
34,-19,-53,-7,43,-36,0,68,34,-9,-34,-34
34,-19,-53,-7,43,-36,0,68,34,-9,-34,-34
34,-19,-53,-7,43,-36,0,68,34,-19,-34,-34
34,-19,-53,-7,43,-36,0,68,34,-19,-39,-34
43,-9,-53,-17,48,-31,0,78,34,-14,-29,-24
43,-9,-53,-17,48,-31,0,82,34,-9,-29,-24
43,-9,-53,-17,48,-31,0,82,34,0,-24,-24
43,-4,-48,-19,46,-26,0,82,34,4,-19,-24
43,-4,-48,-19,46,-26,0,78,43,0,-19,-34
43,-9,-53,-17,48,-31,0,78,43,4,-24,-34
43,-9,-53,-17,48,-31,0,78,43,4,-29,-29
39,-4,-43,-17,41,-24,0,78,43,4,-34,-29
39,-4,-43,-17,41,-24,0,78,43,9,-24,-29
39,-9,-48,-14,43,-29,0,78,43,9,-34,-34
39,-9,-48,-14,43,-29,0,78,43,9,-34,-34
39,-9,-48,-14,43,-29,0,78,43,9,-29,-34
29,-9,-39,-9,34,-24,0,87,43,4,-39,-39
29,-14,-43,-7,36,-29,0,87,43,0,-39,-39
29,-19,-48,-4,39,-34,0,87,48,-4,-39,-43
29,-24,-53,-2,41,-39,0,82,48,-9,-39,-53
29,-24,-53,-2,41,-39,0,73,48,0,-34,-43
29,-19,-48,-4,39,-34,0,73,48,9,-29,-43
29,-9,-39,-9,34,-24,0,73,48,19,-29,-39
29,-4,-34,-12,31,-19,0,73,48,29,-24,-34
29,-14,-43,-7,36,-29,0,73,39,24,-24,-34
29,-14,-43,-7,36,-29,0,73,39,19,-24,-34
29,-14,-43,-7,36,-29,0,73,39,9,-34,-34
29,-14,-43,-7,36,-29,-4,73,39,4,-39,-34
39,-4,-43,-17,41,-24,-4,73,48,-4,-39,-29
39,-4,-43,-17,41,-24,-4,68,48,0,-34,-34
39,0,-39,-19,39,-19,-4,68,48,0,-34,-34
39,0,-39,-19,39,-19,-4,68,48,0,-34,-34
39,-4,-43,-17,41,-24,-4,68,43,-4,-34,-43
34,-4,-39,-14,36,-21,-4,68,43,-4,-34,-43
34,-4,-39,-14,36,-21,-4,63,43,0,-34,-39
34,-4,-39,-14,36,-21,-4,63,43,0,-34,-39
24,-9,-34,-7,29,-21,-4,63,34,-9,-43,-48
24,-9,-34,-7,29,-21,-4,63,34,-9,-39,-48
24,-9,-34,-7,29,-21,-4,63,34,-14,-39,-48
24,-14,-39,-4,31,-26,-4,63,34,-14,-39,-48
34,-14,-48,-9,41,-31,-4,63,43,-4,-29,-39
34,-14,-48,-9,41,-31,-9,63,43,0,-24,-39
34,-14,-48,-9,41,-31,-9,58,43,0,-19,-39
34,-14,-48,-9,41,-31,-9,58,39,-4,-19,-39
24,-14,-39,-4,31,-26,-9,58,39,4,-29,-39
24,-14,-39,-4,31,-26,-9,58,39,4,-29,-43
24,-14,-39,-4,31,-26,-9,58,39,4,-29,-43
24,-14,-39,-4,31,-26,-9,58,39,4,-29,-39
19,-14,-34,-2,26,-24,-9,58,39,-4,-29,-39
19,-14,-34,-2,26,-24,-9,58,39,-4,-29,-39
24,-14,-39,-4,31,-26,-9,53,39,-4,-29,-43
24,-14,-39,-4,31,-26,-9,53,39,-9,-29,-43
24,-4,-29,-9,26,-17,-19,53,39,0,-39,-43
24,-4,-29,-9,26,-17,-24,53,39,4,-39,-43
24,-4,-29,-9,26,-17,-24,53,39,4,-39,-39
24,-4,-29,-9,26,-17,-24,53,39,9,-39,-39
19,-4,-24,-7,21,-14,-14,48,39,0,-29,-39
19,-4,-24,-7,21,-14,-14,48,39,0,-34,-43
19,-4,-24,-7,21,-14,-14,48,39,-4,-39,-43
19,-4,-24,-7,21,-14,-14,48,39,-14,-39,-43
19,-4,-24,-7,21,-14,-14,48,39,-4,-39,-34
19,-4,-24,-7,21,-14,-14,48,39,-4,-39,-34
19,-4,-24,-7,21,-14,-14,48,39,0,-39,-34
19,-4,-24,-7,21,-14,-19,43,34,0,-39,-34
29,-4,-34,-12,31,-19,-19,53,34,-4,-43,-43
29,-4,-34,-12,31,-19,-14,53,34,-4,-39,-43
29,-4,-34,-12,31,-19,-14,53,34,-4,-39,-39
29,-4,-34,-12,31,-19,-14,53,34,-9,-43,-39
19,-19,-39,0,29,-29,-14,43,34,-9,-43,-48
19,-19,-39,0,29,-29,-19,43,34,-9,-43,-48
19,-19,-39,0,29,-29,-24,43,34,-14,-48,-53
19,-19,-39,0,29,-29,-24,48,34,-14,-48,-53
24,-4,-29,-9,26,-17,-24,48,34,-4,-48,-43
24,-4,-29,-9,26,-17,-24,48,34,-4,-48,-43
24,-4,-29,-9,26,-17,-24,43,34,-4,-48,-43
19,-9,-29,-4,24,-19,-24,43,34,-4,-43,-43
19,-9,-29,-4,24,-19,-24,43,24,-4,-34,-34
19,-4,-24,-7,21,-14,-24,43,24,-4,-34,-34
19,-4,-24,-7,21,-14,-24,43,24,0,-34,-34
19,-4,-24,-7,21,-14,-24,43,24,0,-34,-29
19,-4,-24,-7,21,-14,-24,43,24,-9,-39,-29
19,-4,-24,-7,21,-14,-24,43,24,-9,-43,-34
19,-4,-24,-7,21,-14,-24,43,24,-9,-48,-43
14,-4,-19,-4,17,-12,-24,43,24,-9,-53,-53
14,-4,-19,-4,17,-12,-34,43,34,0,-43,-43
19,-4,-24,-7,21,-14,-34,43,34,0,-43,-43
19,-4,-24,-7,21,-14,-34,43,29,-4,-43,-39
24,-9,-34,-7,29,-21,-34,43,29,-4,-48,-39
24,-9,-34,-7,29,-21,-24,43,34,0,-39,-53
19,-9,-29,-4,24,-19,-24,43,34,0,-34,-53
19,-9,-29,-4,24,-19,-29,43,34,0,-34,-48
19,-9,-29,-4,24,-19,-29,43,34,0,-39,-48
19,-9,-29,-4,24,-19,-24,48,34,0,-48,-43
24,-9,-34,-7,29,-21,-24,48,34,0,-48,-43
24,-4,-29,-9,26,-17,-29,48,34,0,-43,-43
24,-4,-29,-9,26,-17,-29,48,34,0,-39,-39
24,-4,-29,-9,26,-17,-29,39,34,9,-29,-43
24,-4,-29,-9,26,-17,-29,39,34,9,-29,-39
14,-4,-19,-4,17,-12,-29,39,34,9,-34,-39
14,-4,-19,-4,17,-12,-29,39,34,9,-34,-43
14,-14,-29,0,21,-21,-29,48,24,4,-48,-43
19,-14,-34,-2,26,-24,-24,48,24,-4,-48,-43
19,-14,-34,-2,26,-24,-24,48,24,-9,-43,-43
19,-14,-34,-2,26,-24,-24,48,19,-14,-43,-48
29,-14,-43,-7,36,-29,-24,43,29,-14,-43,-39
29,-14,-43,-7,36,-29,-24,43,34,-9,-43,-39
29,-14,-43,-7,36,-29,-24,43,34,-9,-43,-39
29,-14,-43,-7,36,-29,-24,43,34,-9,-43,-39
19,-4,-24,-7,21,-14,-34,34,29,-4,-29,-39
19,-4,-24,-7,21,-14,-34,34,29,0,-29,-39
19,-9,-29,-4,24,-19,-34,39,29,9,-34,-39
24,-9,-34,-7,29,-21,-29,39,29,14,-34,-39
24,0,-24,-12,24,-12,-29,39,34,9,-34,-39
24,0,-24,-12,24,-12,-29,34,34,4,-34,-34
24,0,-24,-12,24,-12,-29,34,34,0,-34,-34
24,0,-24,-12,24,-12,-29,39,29,-4,-34,-34
34,0,-34,-17,34,-17,-29,48,39,4,-24,-24
29,0,-29,-14,29,-14,-34,39,39,14,-24,-24
29,0,-29,-14,29,-14,-34,53,34,14,-24,-29
29,9,-19,-19,24,-4,-34,53,43,9,-29,-29
29,9,-19,-19,24,-4,-29,48,39,0,-29,-29
29,4,-24,-17,26,-9,-29,48,29,-9,-39,-39
29,0,-29,-14,29,-14,-29,48,29,-9,-39,-39
29,-4,-34,-12,31,-19,-29,48,29,-9,-39,-39
29,-9,-39,-9,34,-24,-29,48,29,-9,-39,-39
19,0,-19,-9,19,-9,-19,58,39,0,-39,-39
19,0,-19,-9,19,-9,-19,58,39,0,-39,-39
19,0,-19,-9,19,-9,-19,58,39,0,-39,-39
19,0,-19,-9,19,-9,-19,58,39,0,-39,-39
19,-9,-29,-4,24,-19,-9,58,48,0,-39,-39
19,-9,-29,-4,24,-19,-9,58,48,0,-39,-39
19,-9,-29,-4,24,-19,-4,63,48,0,-39,-39
19,-4,-24,-7,21,-14,-4,63,58,0,-43,-39
39,-4,-43,-17,41,-24,0,82,58,-4,-43,-39
39,-4,-43,-17,41,-24,14,87,63,0,-43,-43
39,-4,-43,-17,41,-24,19,92,68,0,-43,-43
43,-4,-48,-19,46,-26,24,102,68,4,-39,-43
53,-4,-58,-24,56,-31,34,107,68,14,-34,-39
53,0,-53,-26,53,-26,34,107,73,14,-34,-34
53,0,-53,-26,53,-26,34,107,82,14,-34,-34
53,0,-53,-26,53,-26,39,107,73,14,-34,-34
53,-9,-63,-21,58,-36,39,107,73,24,-24,-39
58,-9,-68,-24,63,-39,34,117,78,24,-24,-39
63,-9,-73,-26,68,-41,34,117,82,24,-24,-34
68,-9,-78,-29,73,-43,34,117,82,29,-19,-34
73,9,-63,-41,68,-26,19,107,78,29,-24,-29
82,9,-73,-46,78,-31,9,107,78,39,-19,-24
82,9,-73,-46,78,-31,4,107,78,39,-19,-24
82,9,-73,-46,78,-31,0,102,78,39,-19,-24
78,19,-58,-48,68,-19,4,102,87,48,-14,-14
87,19,-68,-53,78,-24,-4,102,82,43,-9,-19
92,24,-68,-58,80,-21,-14,102,82,39,-9,-19
97,39,-58,-68,78,-9,-19,92,78,39,-4,-9
92,53,-39,-73,65,7,-39,97,78,34,0,-4
102,63,-39,-82,70,12,-43,92,78,48,14,4
102,82,-19,-92,61,31,-48,87,78,53,24,9
102,97,-4,-100,53,46,-53,82,78,58,24,14
112,107,-4,-109,58,51,-48,87,82,58,34,24
122,117,-4,-119,63,56,-58,82,82,58,39,29
131,122,-9,-126,70,56,-68,78,82,58,39,39
136,131,-4,-134,70,63,-73,73,82,58,34,39
126,136,9,-131,58,73,-78,58,82,63,34,43
122,126,4,-124,58,65,-78,53,78,58,29,39
117,122,4,-119,56,63,-82,53,73,58,29,39
117,112,-4,-114,61,53,-82,53,73,58,29,34
117,92,-24,-104,70,34,-73,48,63,48,24,19
126,87,-39,-107,82,24,-78,48,63,48,24,19
131,87,-43,-109,87,21,-78,58,73,48,24,19
146,92,-53,-119,100,19,-78,63,82,48,24,19
156,97,-58,-126,107,19,-78,82,87,58,34,24
156,97,-58,-126,107,19,-73,87,97,63,43,29
161,97,-63,-129,112,17,-73,87,97,68,48,34
161,102,-58,-131,109,21,-78,87,97,78,48,34
161,102,-58,-131,109,21,-78,87,107,82,53,34
151,92,-58,-122,104,17,-73,82,97,73,48,34
151,73,-78,-112,114,-2,-73,82,92,68,39,24
151,68,-82,-109,117,-7,-73,73,87,73,39,24
146,68,-78,-107,112,-4,-78,73,82,53,34,19
146,68,-78,-107,112,-4,-78,68,82,48,29,19
146,68,-78,-107,112,-4,-78,68,78,43,19,19
136,68,-68,-102,102,0,-73,68,78,34,14,14
131,63,-68,-97,100,-2,-82,63,68,34,9,9
131,58,-73,-95,102,-7,-73,63,68,34,9,4
126,58,-68,-92,97,-4,-68,73,68,34,9,4
126,63,-63,-95,95,0,-63,78,73,34,4,0
126,73,-53,-100,90,9,-63,78,73,43,4,0
126,68,-58,-97,92,4,-58,78,73,43,4,-4
117,58,-58,-87,87,0,-58,78,63,34,4,-14
102,48,-53,-75,78,-2,-53,78,63,29,4,-19
92,43,-48,-68,70,-2,-39,78,73,24,0,-14
73,29,-43,-51,58,-7,-29,78,73,19,-9,-19
58,19,-39,-39,48,-9,-29,68,63,9,-19,-24
53,4,-48,-29,51,-21,-29,63,48,0,-29,-39
39,-19,-58,-9,48,-39,-39,58,43,4,-34,-53
34,-19,-53,-7,43,-36,-34,53,43,4,-34,-53
24,-19,-43,-2,34,-31,-34,53,43,4,-34,-53
24,-14,-39,-4,31,-26,-34,53,39,4,-34,-53
19,-14,-34,-2,26,-24,-34,53,29,-4,-34,-43
19,-19,-39,0,29,-29,-34,43,29,-4,-34,-43
9,-19,-29,4,19,-24,-34,39,29,-4,-29,-48
9,-19,-29,4,19,-24,-39,39,24,-4,-29,-48
0,-9,-9,4,4,-9,-29,34,24,-9,-39,-48
0,-9,-9,4,4,-9,-29,34,24,-14,-39,-48
0,-9,-9,4,4,-9,-29,34,24,-24,-43,-48
0,-9,-9,4,4,-9,-29,39,24,-29,-43,-48
0,-9,-9,4,4,-9,-34,39,24,-14,-43,-58
0,-9,-9,4,4,-9,-34,39,29,-4,-43,-58
0,-9,-9,4,4,-9,-34,43,29,0,-43,-58
0,-9,-9,4,4,-9,-34,43,29,9,-43,-58
19,-9,-29,-4,24,-19,-34,43,39,9,-43,-58
19,-14,-34,-2,26,-24,-34,53,48,0,-53,-48
4,-24,-29,9,17,-26,-24,53,53,-9,-53,-48
-9,-14,-4,12,-2,-9,-9,53,53,4,-43,-39
-14,4,19,4,-17,12,0,63,73,39,-34,-29
-24,34,58,-4,-41,46,24,87,107,73,-14,-24
-39,73,112,-17,-75,92,68,122,156,126,19,-9
-53,102,156,-24,-104,129,126,165,224,175,53,14
-78,141,219,-31,-148,180,195,253,307,234,78,24
-58,190,248,-65,-153,219,273,380,414,322,117,53
-19,258,278,-119,-148,268,326,536,585,439,190,102
29,346,317,-187,-143,331,361,688,771,580,273,156
87,448,361,-268,-136,405,341,795,985,761,395,229
156,585,429,-370,-136,507,312,897,1215,995,541,341
263,746,483,-505,-109,614,302,1073,1483,1220,702,448
419,922,502,-671,-41,712,239,1283,1771,1454,868,566
600,1054,453,-827,73,753,78,1420,2020,1664,1010,658
756,1141,385,-949,185,763,-180,1366,2166,1786,1102,722
868,1224,356,-1046,256,790,-536,1132,2225,1888,1190,795
976,1381,405,-1178,285,893,-971,868,2298,2025,1327,912
1132,1561,429,-1346,351,995,-1405,663,2440,2191,1478,1044
1322,1776,453,-1549,434,1115,-1815,483,2566,2352,1649,1180
1561,1991,429,-1776,566,1210,-2205,366,2654,2474,1805,1322
1815,2176,361,-1995,727,1268,-2601,317,2635,2479,1888,1415
2044,2259,214,-2152,915,1237,-2918,219,2420,2283,1869,1434
2205,2249,43,-2227,1080,1146,-3098,87,2078,1947,1751,1400
2342,2181,-161,-2261,1251,1010,-3245,14,1722,1605,1615,1337
2459,2059,-400,-2259,1429,829,-3411,-136,1302,1273,1483,1283
2552,1883,-668,-2217,1610,607,-3489,-341,810,883,1293,1171
2625,1644,-980,-2135,1803,331,-3459,-502,292,414,1019,995
2644,1317,-1327,-1981,1986,-4,-3357,-766,-400,-175,644,756
2527,834,-1693,-1681,2110,-429,-3196,-1293,-1410,-897,190,439
2337,336,-2000,-1337,2169,-832,-2981,-1766,-2278,-1517,-200,151
2122,107,-2015,-1115,2069,-954,-2747,-1893,-2493,-1673,-322,58
1805,68,-1737,-936,1771,-834,-2488,-1888,-2327,-1512,-244,122
1356,43,-1312,-700,1334,-634,-2171,-1937,-2191,-1346,-136,204
863,43,-819,-453,841,-387,-1795,-1908,-1995,-1132,-9,307
468,131,-336,-300,402,-102,-1429,-1688,-1620,-839,165,439
263,200,-63,-231,163,68,-1122,-1405,-1254,-575,292,507
200,229,29,-214,85,129,-897,-1122,-961,-385,336,507
151,234,82,-192,34,158,-697,-868,-736,-253,351,492
102,234,131,-168,-14,183,-527,-678,-566,-170,322,434
53,209,156,-131,-51,183,-385,-527,-444,-117,273,366
19,175,156,-97,-68,165,-287,-395,-336,-78,219,297
-14,146,161,-65,-87,153,-195,-297,-273,-63,161,224
-43,82,126,-19,-85,104,-122,-224,-234,-73,82,146
-68,9,78,29,-73,43,-58,-151,-200,-102,-9,48
-97,-58,39,78,-68,-9,19,-87,-161,-126,-87,-43
-102,-107,-4,104,-48,-56,58,-48,-141,-126,-131,-97
-102,-122,-19,112,-41,-70,68,-34,-131,-126,-131,-107
-102,-126,-24,114,-39,-75,82,-19,-126,-131,-126,-112
-102,-131,-29,117,-36,-80,82,-9,-117,-122,-136,-126
-107,-131,-24,119,-41,-78,92,-9,-117,-122,-136,-131
-112,-131,-19,122,-46,-75,97,-9,-112,-122,-141,-131
-112,-136,-24,124,-43,-80,107,0,-107,-122,-141,-136
-112,-151,-39,131,-36,-95,117,4,-97,-122,-141,-136
-117,-151,-34,134,-41,-92,126,9,-97,-126,-141,-136
-117,-151,-34,134,-41,-92,126,9,-97,-122,-141,-136
-117,-156,-39,136,-39,-97,131,19,-97,-126,-141,-136
-126,-156,-29,141,-48,-92,136,14,-87,-122,-141,-131
-126,-151,-24,139,-51,-87,146,19,-82,-112,-141,-131
-131,-151,-19,141,-56,-85,151,24,-82,-107,-141,-131
-131,-151,-19,141,-56,-85,156,24,-82,-102,-141,-131
-117,-151,-34,134,-41,-92,161,39,-82,-112,-141,-122
-117,-156,-39,136,-39,-97,161,43,-78,-112,-141,-122
-126,-161,-34,143,-46,-97,161,43,-78,-112,-141,-126
-126,-161,-34,143,-46,-97,161,43,-78,-112,-141,-131
-126,-151,-24,139,-51,-87,165,43,-68,-102,-146,-141
-126,-151,-24,139,-51,-87,165,48,-68,-102,-146,-136
-126,-151,-24,139,-51,-87,175,48,-58,-92,-146,-136
-126,-151,-24,139,-51,-87,175,48,-58,-92,-141,-136
-126,-161,-34,143,-46,-97,175,53,-68,-102,-141,-146
-126,-161,-34,143,-46,-97,180,53,-68,-102,-141,-146
-126,-165,-39,146,-43,-102,180,53,-68,-107,-146,-151
-131,-165,-34,148,-48,-100,185,53,-68,-107,-146,-151
-131,-161,-29,146,-51,-95,195,53,-68,-107,-146,-151
-131,-161,-29,146,-51,-95,195,58,-68,-107,-146,-146
-131,-161,-29,146,-51,-95,195,58,-68,-112,-146,-141
-131,-161,-29,146,-51,-95,200,58,-68,-112,-146,-136
-141,-165,-24,153,-58,-95,190,63,-78,-117,-156,-141
-146,-175,-29,161,-58,-102,195,63,-78,-117,-161,-146
-146,-180,-34,163,-56,-107,195,63,-78,-117,-161,-151
-146,-185,-39,165,-53,-112,200,63,-73,-117,-161,-156
-141,-180,-39,161,-51,-109,190,53,-73,-112,-151,-146
-141,-175,-34,158,-53,-104,200,53,-73,-112,-151,-146
-146,-170,-24,158,-61,-97,200,58,-73,-107,-151,-146
-146,-161,-14,153,-65,-87,200,58,-73,-102,-151,-146
-136,-161,-24,148,-56,-92,209,68,-68,-92,-141,-146
-136,-161,-24,148,-56,-92,209,68,-68,-92,-146,-146
-141,-161,-19,151,-61,-90,209,68,-68,-92,-146,-146
-141,-161,-19,151,-61,-90,219,73,-68,-92,-146,-151
-141,-161,-19,151,-61,-90,219,63,-68,-102,-146,-151
-141,-161,-19,151,-61,-90,219,63,-68,-102,-146,-151
-141,-165,-24,153,-58,-95,229,63,-68,-102,-146,-151
-141,-170,-29,156,-56,-100,229,63,-68,-102,-146,-151
-156,-180,-24,168,-65,-102,229,73,-68,-102,-156,-141
-156,-175,-19,165,-68,-97,229,73,-73,-102,-156,-141
-156,-175,-19,165,-68,-97,234,73,-73,-102,-156,-141
-156,-175,-19,165,-68,-97,234,73,-73,-102,-156,-141
-161,-185,-24,173,-68,-104,244,73,-78,-112,-156,-156
-161,-190,-29,175,-65,-109,253,73,-78,-117,-161,-156
-165,-190,-24,178,-70,-107,253,73,-78,-126,-161,-156
-165,-190,-24,178,-70,-107,253,73,-78,-131,-161,-156
-161,-185,-24,173,-68,-104,253,73,-82,-122,-165,-165
-156,-185,-29,170,-63,-107,258,73,-82,-122,-170,-165
-156,-185,-29,170,-63,-107,258,73,-82,-122,-175,-165
-156,-190,-34,173,-61,-112,263,73,-82,-122,-180,-165
-161,-190,-29,175,-65,-109,263,73,-87,-122,-175,-156
-161,-190,-29,175,-65,-109,268,73,-87,-122,-175,-156
-165,-190,-24,178,-70,-107,268,73,-87,-122,-170,-156
-170,-195,-24,183,-73,-109,278,73,-87,-122,-165,-156
-165,-185,-19,175,-73,-102,268,73,-92,-112,-165,-156
-170,-185,-14,178,-78,-100,273,68,-92,-112,-165,-161
-170,-185,-14,178,-78,-100,273,68,-92,-117,-165,-161
-175,-185,-9,180,-82,-97,273,73,-92,-117,-170,-161
-175,-190,-14,183,-80,-102,283,63,-97,-122,-161,-161
-175,-190,-14,183,-80,-102,283,63,-97,-122,-161,-170
-180,-190,-9,185,-85,-100,292,63,-97,-122,-161,-161
-185,-190,-4,187,-90,-97,292,63,-102,-126,-161,-161
-185,-190,-4,187,-90,-97,297,58,-102,-126,-165,-161
-195,-190,4,192,-100,-92,302,58,-102,-126,-165,-161
-200,-190,9,195,-104,-90,302,58,-107,-126,-165,-161
-200,-195,4,197,-102,-95,302,58,-117,-131,-165,-161
-200,-204,-4,202,-97,-104,307,58,-117,-146,-180,-165
-204,-204,0,204,-102,-102,312,58,-117,-146,-190,-165
-209,-209,0,209,-104,-104,317,58,-117,-146,-190,-165
-214,-209,4,212,-109,-102,322,58,-117,-151,-185,-165
-214,-200,14,207,-114,-92,336,53,-122,-151,-195,-170
-214,-200,14,207,-114,-92,341,53,-126,-161,-200,-175
-219,-200,19,209,-119,-90,346,53,-131,-161,-200,-175
-219,-200,19,209,-119,-90,351,53,-131,-165,-200,-175
-224,-209,14,217,-119,-97,356,53,-136,-165,-204,-185
-229,-214,14,222,-122,-100,361,53,-141,-170,-214,-185
-234,-214,19,224,-126,-97,366,43,-146,-170,-214,-190
-239,-214,24,226,-131,-95,370,43,-146,-170,-214,-190
-244,-224,19,234,-131,-102,380,34,-161,-165,-204,-180
-248,-224,24,236,-136,-100,385,34,-165,-165,-204,-185
-258,-229,29,244,-143,-100,390,24,-170,-165,-204,-185
-263,-229,34,246,-148,-97,395,24,-175,-175,-209,-185
-263,-219,43,241,-153,-87,405,34,-185,-180,-209,-185
-273,-219,53,246,-163,-82,409,24,-190,-185,-209,-185
-283,-224,58,253,-170,-82,414,19,-200,-185,-219,-190
-287,-224,63,256,-175,-80,424,14,-204,-190,-224,-190
-287,-224,63,256,-175,-80,429,14,-200,-195,-229,-190
-297,-234,63,265,-180,-85,434,9,-209,-200,-229,-195
-307,-234,73,270,-190,-80,444,4,-224,-209,-234,-195
-307,-234,73,270,-190,-80,458,0,-229,-214,-239,-204
-331,-253,78,292,-204,-87,458,-9,-239,-224,-244,-204
-341,-253,87,297,-214,-82,463,-14,-248,-229,-248,-204
-351,-253,97,302,-224,-78,473,-24,-258,-244,-248,-204
-356,-253,102,305,-229,-75,478,-34,-268,-248,-253,-204
-361,-248,112,305,-236,-68,492,-43,-287,-253,-263,-214
-375,-253,122,314,-248,-65,497,-53,-297,-263,-268,-214
-390,-253,136,322,-263,-58,502,-63,-307,-278,-273,-214
-400,-253,146,326,-273,-53,507,-73,-322,-287,-273,-219
-409,-263,146,336,-278,-58,502,-92,-336,-283,-278,-209
-419,-263,156,341,-287,-53,507,-102,-346,-297,-283,-209
-439,-263,175,351,-307,-43,517,-122,-356,-302,-287,-214
-453,-268,185,361,-319,-41,527,-131,-375,-312,-287,-214
-468,-268,200,368,-334,-34,527,-146,-390,-312,-283,-214
-478,-268,209,373,-344,-29,531,-161,-405,-317,-287,-214
-492,-268,224,380,-358,-21,536,-175,-419,-336,-287,-219
-502,-273,229,387,-366,-21,536,-190,-434,-341,-292,-219
-507,-263,244,385,-375,-9,531,-204,-444,-351,-302,-219
-527,-263,263,395,-395,0,536,-219,-463,-351,-307,-219
-546,-263,283,405,-414,9,536,-239,-473,-351,-307,-219
-561,-263,297,412,-429,17,541,-258,-483,-346,-307,-214
-580,-273,307,427,-444,17,551,-273,-502,-361,-307,-214
-600,-273,326,436,-463,26,556,-292,-517,-375,-312,-214
-624,-278,346,451,-485,34,556,-302,-531,-385,-312,-214
-634,-278,356,456,-495,39,556,-317,-546,-385,-312,-204
-634,-273,361,453,-497,43,566,-341,-566,-400,-322,-204
-649,-273,375,461,-512,51,561,-361,-585,-405,-322,-204
-663,-268,395,466,-529,63,561,-370,-595,-409,-322,-200
-668,-268,400,468,-534,65,556,-395,-610,-414,-317,-195
-688,-263,424,475,-556,80,541,-414,-614,-414,-317,-200
-707,-258,448,483,-578,95,536,-429,-634,-414,-312,-195
-712,-253,458,483,-585,102,531,-448,-639,-414,-312,-190
-717,-248,468,483,-592,109,527,-463,-644,-414,-307,-185
-722,-239,483,480,-602,122,522,-468,-644,-409,-292,-170
-722,-239,483,480,-602,122,512,-483,-649,-400,-287,-170
-727,-234,492,480,-610,129,502,-497,-663,-385,-283,-161
-732,-224,507,478,-619,141,492,-507,-663,-375,-268,-156
-736,-200,536,468,-636,168,468,-522,-668,-380,-268,-141
-736,-190,546,463,-641,178,453,-531,-668,-366,-258,-136
-732,-175,556,453,-644,190,439,-541,-668,-361,-253,-126
-732,-165,566,448,-649,200,424,-551,-658,-351,-239,-117
-722,-170,551,446,-636,190,409,-551,-649,-341,-229,-117
-712,-156,556,434,-634,200,395,-551,-634,-336,-219,-107
-702,-146,556,424,-629,204,380,-551,-624,-326,-209,-97
-688,-136,551,412,-619,207,361,-551,-610,-317,-200,-87
-678,-126,551,402,-614,212,336,-541,-595,-287,-175,-82
-658,-107,551,383,-605,222,322,-531,-570,-268,-165,-63
-639,-87,551,363,-595,231,307,-517,-551,-239,-146,-53
-624,-73,551,348,-588,239,292,-507,-527,-214,-136,-34
-610,-73,536,341,-573,231,278,-478,-497,-204,-117,-39
-585,-63,522,324,-553,229,263,-463,-468,-185,-102,-29
-556,-48,507,302,-531,229,248,-439,-429,-165,-92,-24
-531,-43,488,287,-509,222,234,-419,-400,-156,-87,-14
-517,-29,488,273,-502,229,229,-400,-380,-136,-78,-9
-492,-19,473,256,-483,226,214,-375,-346,-122,-63,-4
-458,-4,453,231,-456,224,200,-351,-317,-107,-53,-4
-429,0,429,214,-429,214,185,-322,-292,-87,-43,-4
-390,0,390,195,-390,195,161,-302,-258,-73,-39,-4
-361,0,361,180,-361,180,146,-278,-234,-63,-34,-4
-336,4,341,165,-339,173,136,-253,-209,-48,-34,-4
-307,4,312,151,-309,158,122,-229,-195,-43,-24,-4
-287,9,297,139,-292,153,117,-204,-161,-39,-19,4
-258,14,273,122,-265,143,107,-175,-136,-24,-14,4
-239,14,253,112,-246,134,97,-156,-112,-19,-9,4
-214,14,229,100,-222,122,87,-136,-92,-9,-9,9
-190,14,204,87,-197,109,78,-117,-78,4,-4,9
-170,19,190,75,-180,104,68,-102,-68,9,-4,4
-156,19,175,68,-165,97,63,-92,-53,14,-4,4
-136,19,156,58,-146,87,53,-78,-39,19,0,4
-122,19,141,51,-131,80,48,-58,-14,14,0,4
-97,19,117,39,-107,68,39,-43,-9,14,0,0
-87,14,102,36,-95,58,34,-34,0,14,0,0
-73,14,87,29,-80,51,34,-24,9,14,0,-4
-68,14,82,26,-75,48,29,-9,14,24,0,-14
-53,14,68,19,-61,41,24,0,24,24,0,-19
-48,14,63,17,-56,39,19,9,24,29,0,-19
-34,14,48,9,-41,31,19,19,29,29,0,-19
-14,0,14,7,-14,7,19,34,34,19,-4,-24
-4,0,4,2,-4,2,14,43,34,19,-9,-24
0,-4,-4,2,2,-4,14,43,34,14,-14,-34
0,-4,-4,2,2,-4,9,48,39,9,-24,-34
14,-4,-19,-4,17,-12,9,53,39,19,-14,-24
19,-4,-24,-7,21,-14,4,58,39,14,-19,-24
24,-4,-29,-9,26,-17,4,63,43,14,-19,-24
29,-9,-39,-9,34,-24,4,68,43,9,-19,-29
29,-19,-48,-4,39,-34,0,68,39,4,-34,-39
29,-19,-48,-4,39,-34,0,68,39,0,-34,-39
29,-19,-48,-4,39,-34,4,73,39,-4,-34,-39
24,-19,-43,-2,34,-31,4,78,39,-4,-34,-39
29,-19,-48,-4,39,-34,4,78,39,0,-39,-34
29,-19,-48,-4,39,-34,0,78,39,0,-43,-34
34,-19,-53,-7,43,-36,0,78,39,4,-39,-34
34,-19,-53,-7,43,-36,0,78,39,9,-29,-39
39,-19,-58,-9,48,-39,-4,73,39,0,-39,-39
39,-24,-63,-7,51,-43,-4,73,39,-4,-34,-39
39,-24,-63,-7,51,-43,-4,73,39,-14,-34,-39
43,-24,-68,-9,56,-46,-4,78,39,-14,-43,-39
43,-19,-63,-12,53,-41,-14,78,39,0,-34,-39
43,-19,-63,-12,53,-41,-14,78,39,0,-34,-39
43,-14,-58,-14,51,-36,-9,78,39,0,-34,-39
43,-9,-53,-17,48,-31,-9,78,39,-4,-34,-43
43,-19,-63,-12,53,-41,0,82,29,-4,-29,-43
43,-19,-63,-12,53,-41,0,82,34,-4,-29,-43
43,-24,-68,-9,56,-46,0,82,34,0,-29,-43
43,-24,-68,-9,56,-46,-4,82,34,0,-34,-43
43,-14,-58,-14,51,-36,-4,82,34,0,-34,-43
43,-14,-58,-14,51,-36,-4,82,34,0,-29,-43
43,-14,-58,-14,51,-36,0,78,34,4,-29,-43
43,-14,-58,-14,51,-36,0,78,34,4,-29,-43
43,-14,-58,-14,51,-36,0,87,43,-4,-29,-43
43,-14,-58,-14,51,-36,0,87,43,-4,-29,-43
43,-9,-53,-17,48,-31,0,87,43,0,-29,-43
43,-9,-53,-17,48,-31,-4,87,43,0,-29,-39
34,-19,-53,-7,43,-36,4,87,43,-4,-39,-48
34,-19,-53,-7,43,-36,4,87,43,-4,-43,-48
34,-19,-53,-7,43,-36,4,87,43,-4,-43,-48
34,-19,-53,-7,43,-36,4,87,43,-4,-43,-48
43,-29,-73,-7,58,-51,9,97,43,0,-34,-43
43,-29,-73,-7,58,-51,9,97,43,0,-34,-43
43,-29,-73,-7,58,-51,9,97,43,-9,-34,-43
43,-29,-73,-7,58,-51,9,97,43,-9,-39,-43
34,-29,-63,-2,48,-46,0,92,43,0,-39,-43
34,-29,-63,-2,48,-46,0,92,43,0,-39,-43
34,-29,-63,-2,48,-46,0,87,43,4,-34,-43
34,-24,-58,-4,46,-41,0,82,43,4,-29,-43
43,-19,-63,-12,53,-41,0,87,43,19,-24,-34
43,-19,-63,-12,53,-41,0,87,43,24,-24,-34
43,-14,-58,-14,51,-36,0,87,43,24,-24,-29
39,-4,-43,-17,41,-24,0,87,43,24,-24,-29
39,-14,-53,-12,46,-34,0,78,43,14,-24,-39
39,-19,-58,-9,48,-39,0,78,43,9,-34,-43
39,-19,-58,-9,48,-39,0,78,43,4,-34,-43
39,-19,-58,-9,48,-39,0,78,43,0,-29,-43
39,-14,-53,-12,46,-34,0,78,43,9,-29,-43
39,-14,-53,-12,46,-34,0,78,43,9,-29,-39
39,-14,-53,-12,46,-34,0,78,48,9,-29,-39
39,-14,-53,-12,46,-34,0,73,48,9,-29,-43
29,-19,-48,-4,39,-34,0,73,39,0,-29,-43
29,-19,-48,-4,39,-34,0,73,39,0,-29,-43
29,-14,-43,-7,36,-29,0,73,39,0,-34,-39
29,-14,-43,-7,36,-29,0,73,39,0,-34,-34
29,-14,-43,-7,36,-29,0,82,39,9,-34,-43
29,-14,-43,-7,36,-29,0,82,39,9,-34,-43
29,-14,-43,-7,36,-29,0,82,39,4,-43,-43
29,-14,-43,-7,36,-29,-4,82,39,4,-48,-43
29,-24,-53,-2,41,-39,4,82,48,4,-39,-39
29,-24,-53,-2,41,-39,4,78,48,9,-34,-43
29,-19,-48,-4,39,-34,4,78,48,9,-34,-43
29,-19,-48,-4,39,-34,4,78,48,9,-34,-43
39,-24,-63,-7,51,-43,4,78,34,-4,-43,-53
34,-24,-58,-4,46,-41,4,78,34,-4,-43,-53
34,-24,-58,-4,46,-41,4,73,34,0,-43,-48
34,-24,-58,-4,46,-41,4,73,34,0,-43,-48
24,-19,-43,-2,34,-31,4,73,43,0,-34,-39
24,-19,-43,-2,34,-31,4,73,43,0,-29,-39
24,-19,-43,-2,34,-31,4,73,43,-4,-29,-39
24,-24,-48,0,36,-36,4,73,43,-4,-29,-39
34,-24,-58,-4,46,-41,4,73,34,-14,-34,-48
34,-24,-58,-4,46,-41,0,73,34,-9,-34,-48
34,-24,-58,-4,46,-41,0,68,34,-9,-34,-48
34,-24,-58,-4,46,-41,0,68,29,-14,-39,-48
24,-14,-39,-4,31,-26,0,58,39,-9,-43,-39
24,-14,-39,-4,31,-26,0,58,39,-4,-39,-43
24,-14,-39,-4,31,-26,0,58,39,0,-34,-43
24,-14,-39,-4,31,-26,0,58,39,4,-29,-39
29,-14,-43,-7,36,-29,0,58,39,14,-29,-39
29,-14,-43,-7,36,-29,0,58,39,14,-29,-39
34,-14,-48,-9,41,-31,0,53,39,14,-29,-43
34,-14,-48,-9,41,-31,0,53,39,9,-29,-43
24,-14,-39,-4,31,-26,9,63,39,0,-29,-43
24,-14,-39,-4,31,-26,4,63,39,4,-29,-43
24,-14,-39,-4,31,-26,4,63,39,4,-29,-39
24,-14,-39,-4,31,-26,4,63,39,9,-29,-39
29,-24,-53,-2,41,-39,-4,58,39,9,-39,-48
29,-24,-53,-2,41,-39,-4,58,39,9,-43,-53
29,-24,-53,-2,41,-39,-4,58,39,4,-48,-53
29,-24,-53,-2,41,-39,-4,58,39,-4,-48,-53
29,-34,-63,2,46,-48,-4,58,29,-14,-48,-43
29,-34,-63,2,46,-48,-4,58,29,-14,-48,-43
29,-34,-63,2,46,-48,-4,58,29,-9,-48,-43
29,-34,-63,2,46,-48,-9,53,24,-9,-48,-43
19,-29,-48,4,34,-39,-9,53,34,4,-34,-43
19,-24,-43,2,31,-34,-4,53,34,4,-29,-43
19,-19,-39,0,29,-29,-4,53,34,4,-29,-39
19,-14,-34,-2,26,-24,-4,53,34,0,-34,-39
9,-29,-39,9,24,-34,-4,53,34,-9,-34,-48
9,-29,-39,9,24,-34,-9,53,34,-9,-34,-48
9,-29,-39,9,24,-34,-14,53,34,-14,-39,-53
9,-29,-39,9,24,-34,-14,58,34,-14,-39,-53
24,-24,-48,0,36,-36,-14,48,24,-9,-29,-43
24,-24,-48,0,36,-36,-14,48,24,-4,-29,-43
24,-24,-48,0,36,-36,-14,43,24,0,-29,-43
19,-29,-48,4,34,-39,-14,43,24,4,-24,-43
29,-29,-58,0,43,-43,-14,53,24,0,-29,-43
29,-24,-53,-2,41,-39,-14,53,24,-4,-34,-43
29,-24,-53,-2,41,-39,-14,53,24,-4,-39,-43
29,-24,-53,-2,41,-39,-14,53,24,-9,-43,-39
19,-34,-53,7,36,-43,-14,53,34,-19,-43,-43
19,-34,-53,7,36,-43,-14,53,34,-19,-43,-43
19,-34,-53,7,36,-43,-14,53,34,-19,-43,-48
14,-34,-48,9,31,-41,-14,53,34,-19,-43,-53
14,-34,-48,9,31,-41,-24,43,34,-14,-34,-43
19,-34,-53,7,36,-43,-24,43,34,-9,-34,-43
19,-34,-53,7,36,-43,-24,43,29,-9,-34,-39
24,-39,-63,7,43,-51,-24,43,29,-4,-39,-39
24,-29,-53,2,39,-41,-14,43,24,0,-39,-43
19,-29,-48,4,34,-39,-14,43,24,0,-34,-43
19,-29,-48,4,34,-39,-19,43,24,0,-34,-39
19,-29,-48,4,34,-39,-19,43,24,0,-39,-39
19,-39,-58,9,39,-48,-14,48,34,-9,-48,-53
24,-39,-63,7,43,-51,-14,48,34,-9,-48,-53
24,-34,-58,4,41,-46,-19,48,34,-9,-43,-53
24,-34,-58,4,41,-46,-19,48,34,-9,-39,-48
24,-34,-58,4,41,-46,-19,48,24,-9,-39,-43
24,-34,-58,4,41,-46,-19,48,24,-9,-39,-39
14,-34,-48,9,31,-41,-19,48,24,-9,-43,-39
14,-34,-48,9,31,-41,-19,48,24,-9,-43,-43
14,-34,-48,9,31,-41,-19,48,34,-4,-39,-43
19,-34,-53,7,36,-43,-14,48,34,-4,-39,-43
19,-34,-53,7,36,-43,-14,48,34,0,-34,-43
19,-34,-53,7,36,-43,-14,48,29,4,-34,-48
29,-24,-53,-2,41,-39,-24,53,29,4,-34,-39
29,-24,-53,-2,41,-39,-24,53,34,9,-34,-39
29,-24,-53,-2,41,-39,-24,53,34,9,-34,-39
29,-24,-53,-2,41,-39,-24,53,34,9,-34,-39
29,-24,-53,-2,41,-39,-24,53,29,0,-29,-39
29,-24,-53,-2,41,-39,-24,53,29,0,-29,-39
29,-29,-58,0,43,-43,-24,58,29,4,-34,-39
34,-29,-63,-2,48,-46,-19,58,29,4,-34,-39
29,-29,-58,0,43,-43,-29,48,24,-4,-34,-48
24,-29,-53,2,39,-41,-29,43,24,-4,-34,-43
19,-29,-48,4,34,-39,-29,43,24,-4,-34,-43
14,-29,-43,7,29,-36,-29,48,19,-4,-34,-43
24,-29,-53,2,39,-41,-19,48,19,-4,-43,-53
19,-29,-48,4,34,-39,-14,58,29,-4,-34,-43
19,-29,-48,4,34,-39,-14,53,34,-4,-24,-39
19,-29,-48,4,34,-39,-14,53,34,0,-29,-39
29,-29,-58,0,43,-43,-9,48,39,0,-29,-39
29,-29,-58,0,43,-43,-19,48,29,-9,-39,-39
29,-29,-58,0,43,-43,-19,48,29,-9,-39,-39
29,-29,-58,0,43,-43,-19,48,29,-9,-39,-39
29,-29,-58,0,43,-43,-19,48,29,-9,-39,-39
29,-29,-58,0,43,-43,-19,48,29,0,-39,-48
29,-29,-58,0,43,-43,-19,48,29,0,-39,-48
29,-29,-58,0,43,-43,-19,48,29,0,-39,-48
29,-29,-58,0,43,-43,-19,48,29,0,-39,-48
29,-29,-58,0,43,-43,-19,48,29,0,-29,-48
29,-29,-58,0,43,-43,-19,48,29,0,-29,-48
29,-29,-58,0,43,-43,-19,48,29,0,-29,-48
29,-29,-58,0,43,-43,-19,48,29,0,-29,-48
39,-19,-58,-9,48,-39,-14,58,34,0,-39,-39
39,-19,-58,-9,48,-39,-9,58,39,0,-39,-39
39,-19,-58,-9,48,-39,0,63,43,0,-39,-39
39,-14,-53,-12,46,-34,4,63,58,0,-43,-39
39,-24,-63,-7,51,-43,9,73,48,4,-43,-39
39,-24,-63,-7,51,-43,24,78,53,9,-43,-43
39,-24,-63,-7,51,-43,29,82,58,9,-43,-43
43,-24,-68,-9,56,-46,34,92,58,14,-39,-43
53,-24,-78,-14,65,-51,43,107,68,14,-34,-39
53,-19,-73,-17,63,-46,43,107,73,14,-34,-34
53,-19,-73,-17,63,-46,43,107,82,14,-34,-34
53,-19,-73,-17,63,-46,48,107,73,14,-34,-34
53,-29,-82,-12,68,-56,48,107,73,14,-24,-48
58,-29,-87,-14,73,-58,43,117,78,14,-24,-48
63,-29,-92,-17,78,-61,43,117,82,14,-24,-43
68,-29,-97,-19,82,-63,43,117,82,19,-19,-43
82,-9,-92,-36,87,-51,29,117,87,29,-14,-48
92,-9,-102,-41,97,-56,19,117,87,39,-9,-43
92,-9,-102,-41,97,-56,14,117,87,39,-9,-43
92,-9,-102,-41,97,-56,9,112,87,39,-9,-43
92,-19,-112,-36,102,-65,14,112,78,29,-9,-34
97,-19,-117,-39,107,-68,4,112,73,24,-9,-39
97,-14,-112,-41,104,-63,-4,112,73,19,-14,-39
97,0,-97,-48,97,-48,-9,102,68,19,-14,-29
112,14,-97,-63,104,-41,-19,107,78,24,-9,-29
122,24,-97,-73,109,-36,-24,102,78,39,4,-14
122,43,-78,-82,100,-17,-29,97,78,43,14,-4
122,58,-63,-90,92,-2,-34,92,78,48,14,4
126,87,-39,-107,82,24,-48,87,82,58,29,24
131,97,-34,-114,82,31,-58,82,82,58,39,29
136,102,-34,-119,85,34,-68,78,82,58,43,39
136,112,-24,-124,80,43,-73,73,82,58,43,39
136,107,-29,-122,82,39,-82,58,73,63,43,48
131,97,-34,-114,82,31,-78,53,68,58,39,39
126,92,-34,-109,80,29,-78,53,63,58,39,34
126,82,-43,-104,85,19,-73,53,63,58,39,24
117,63,-53,-90,85,4,-73,48,53,48,24,9
126,58,-68,-92,97,-4,-78,48,53,48,24,9
131,58,-73,-95,102,-7,-78,58,63,48,24,9
146,63,-82,-104,114,-9,-78,63,73,48,24,9
146,68,-78,-107,112,-4,-78,73,78,58,34,24
146,68,-78,-107,112,-4,-73,78,87,63,43,29
151,68,-82,-109,117,-7,-73,78,87,68,48,34
151,73,-78,-112,114,-2,-78,78,87,78,48,34
156,78,-78,-117,117,0,-78,87,92,87,53,43
151,73,-78,-112,114,-2,-73,82,87,73,48,43
156,58,-97,-107,126,-19,-73,82,87,63,39,34
161,58,-102,-109,131,-21,-73,73,87,63,39,34
156,53,-102,-104,129,-24,-78,73,73,48,39,19
156,48,-107,-102,131,-29,-78,68,73,48,39,19
156,43,-112,-100,134,-34,-78,68,68,48,34,19
146,39,-107,-92,126,-34,-73,68,68,43,34,14
141,43,-97,-92,119,-26,-73,63,68,43,19,19
141,39,-102,-90,122,-31,-63,63,68,43,19,14
136,39,-97,-87,117,-29,-58,73,68,43,19,14
136,43,-92,-90,114,-24,-53,78,73,43,14,9
146,43,-102,-95,124,-29,-43,78,73,43,19,0
146,39,-107,-92,126,-34,-39,78,73,43,14,-4
136,29,-107,-82,122,-39,-39,78,63,34,9,-14
122,19,-102,-70,112,-41,-34,78,63,29,4,-19
112,14,-97,-63,104,-41,-29,87,73,24,0,-24
92,0,-92,-46,92,-46,-19,87,73,19,-9,-29
78,-9,-87,-34,82,-48,-19,78,63,9,-19,-34
73,-24,-97,-24,85,-61,-19,73,48,0,-29,-48
48,-48,-97,0,73,-73,-19,58,34,-4,-34,-53
43,-48,-92,2,68,-70,-14,53,34,-4,-34,-53
34,-48,-82,7,58,-65,-14,53,34,-4,-34,-53
34,-43,-78,4,56,-61,-14,53,29,-4,-34,-53
29,-34,-63,2,46,-48,-24,53,29,4,-34,-43
29,-39,-68,4,48,-53,-24,43,29,4,-34,-43
19,-39,-58,9,39,-48,-24,39,29,4,-29,-48
19,-39,-58,9,39,-48,-29,39,24,4,-29,-48
9,-29,-39,9,24,-34,-39,34,24,-4,-39,-48
9,-29,-39,9,24,-34,-39,34,24,-4,-39,-48
9,-29,-39,9,24,-34,-39,34,24,-9,-43,-48
9,-29,-39,9,24,-34,-39,39,24,-9,-43,-48
19,-29,-48,4,34,-39,-24,39,24,0,-39,-39
19,-29,-48,4,34,-39,-24,39,29,4,-34,-39
19,-29,-48,4,34,-39,-24,43,29,4,-29,-39
19,-29,-48,4,34,-39,-24,43,29,9,-24,-39
19,-19,-39,0,29,-29,-24,34,39,29,-14,-29
29,-14,-43,-7,36,-29,-24,43,39,19,-14,-39
14,-24,-39,4,26,-31,-14,53,34,0,-24,-39
0,-34,-34,17,17,-34,-19,53,34,-14,-34,-48
-4,-34,-29,19,12,-31,-19,43,34,0,-24,-48
-14,-14,0,14,-7,-7,4,48,58,34,-14,-34
-29,24,53,2,-41,39,39,92,117,97,19,-19
-43,63,107,-9,-75,85,87,136,185,175,63,14
-58,92,151,-17,-104,122,156,195,248,214,87,34
-68,112,180,-21,-124,146,244,283,317,253,97,43
-58,161,219,-51,-139,190,317,409,448,331,131,63
-19,219,239,-100,-129,229,361,561,614,444,195,97
39,302,263,-170,-112,283,380,717,800,585,278,151
107,429,322,-268,-107,375,351,819,1010,780,405,244
185,570,385,-378,-100,478,322,917,1249,1005,566,351
292,736,444,-514,-75,590,307,1107,1527,1249,732,468
444,907,463,-675,-9,685,214,1302,1805,1498,893,590
629,1034,405,-832,112,719,4,1395,2030,1688,1024,673
780,1117,336,-949,222,727,-283,1278,2147,1800,1112,736
878,1215,336,-1046,270,775,-668,1015,2200,1908,1220,824
985,1385,400,-1185,292,893,-1122,751,2293,2054,1361,946
1146,1581,434,-1363,356,1007,-1551,551,2440,2244,1532,1083
1356,1795,439,-1576,458,1117,-1961,385,2576,2405,1688,1215
1600,2010,409,-1805,595,1210,-2366,307,2664,2508,1830,1346
1869,2171,302,-2020,783,1237,-2742,268,2625,2479,1908,1424
2088,2210,122,-2149,983,1166,-3010,175,2381,2239,1849,1420
2244,2152,-92,-2198,1168,1029,-3186,92,2034,1869,1703,1366
2381,2069,-312,-2225,1346,878,-3333,39,1683,1527,1561,1302
2493,1942,-551,-2217,1522,695,-3440,-107,1278,1195,1420,1229
2605,1781,-824,-2193,1715,478,-3479,-278,819,795,1224,1112
2693,1551,-1141,-2122,1917,204,-3425,-424,302,292,927,932
2684,1185,-1498,-1934,2091,-156,-3303,-727,-453,-341,531,663
2552,668,-1883,-1610,2217,-607,-3118,-1259,-1498,-1078,63,317
2366,204,-2161,-1285,2264,-978,-2913,-1698,-2298,-1605,-273,68
2137,39,-2098,-1088,2117,-1029,-2684,-1810,-2444,-1668,-331,24
1795,34,-1761,-915,1778,-863,-2415,-1820,-2288,-1483,-224,107
1351,4,-1346,-678,1349,-671,-2078,-1878,-2161,-1317,-117,200
858,34,-824,-446,841,-395,-1712,-1844,-1932,-1093,29,322
468,131,-336,-300,402,-102,-1366,-1629,-1546,-771,214,458
278,200,-78,-239,178,61,-1073,-1346,-1195,-522,317,517
209,214,4,-212,102,109,-854,-1083,-941,-370,341,512
151,214,63,-183,43,139,-673,-863,-732,-258,341,473
92,190,97,-141,-2,143,-522,-663,-570,-175,322,424
48,156,107,-102,-29,131,-375,-512,-453,-146,258,346
14,117,102,-65,-43,109,-263,-395,-370,-131,180,273
-14,82,97,-34,-56,90,-180,-302,-292,-102,131,204
-29,39,68,-4,-48,53,-107,-219,-229,-92,68,117
-58,-48,9,53,-34,-19,-29,-146,-190,-126,-29,14
-92,-126,-34,109,-29,-80,39,-78,-170,-165,-112,-78
-102,-161,-58,131,-21,-109,68,-43,-151,-165,-141,-117
-102,-165,-63,134,-19,-114,73,-39,-126,-131,-136,-112
-92,-180,-87,136,-2,-134,73,-19,-126,-141,-146,-126
-97,-180,-82,139,-7,-131,82,-19,-126,-141,-146,-131
-102,-180,-78,141,-12,-129,87,-19,-122,-141,-151,-131
-102,-185,-82,143,-9,-134,97,-9,-117,-141,-151,-136
-102,-180,-78,141,-12,-129,117,-4,-107,-136,-141,-136
-107,-180,-73,143,-17,-126,126,0,-107,-136,-141,-136
-107,-180,-73,143,-17,-126,126,0,-107,-126,-141,-136
-107,-185,-78,146,-14,-131,131,9,-107,-126,-141,-136
-117,-195,-78,156,-19,-136,136,14,-97,-117,-151,-141
-117,-190,-73,153,-21,-131,146,19,-92,-112,-151,-141
-122,-190,-68,156,-26,-129,151,24,-92,-112,-151,-141
-122,-190,-68,156,-26,-129,156,24,-92,-112,-151,-141
-107,-190,-82,148,-12,-136,170,29,-82,-122,-151,-151
-107,-195,-87,151,-9,-141,170,34,-78,-122,-151,-151
-117,-200,-82,158,-17,-141,170,34,-78,-122,-151,-156
-117,-200,-82,158,-17,-141,170,34,-78,-122,-151,-161
-126,-200,-73,163,-26,-136,175,34,-78,-131,-156,-151
-126,-200,-73,163,-26,-136,175,39,-78,-131,-156,-146
-126,-200,-73,163,-26,-136,185,39,-68,-122,-156,-146
-126,-200,-73,163,-26,-136,185,39,-68,-122,-151,-146
-117,-200,-82,158,-17,-141,185,43,-68,-112,-151,-156
-117,-200,-82,158,-17,-141,190,43,-68,-112,-151,-156
-117,-204,-87,161,-14,-146,190,43,-68,-117,-156,-161
-122,-204,-82,163,-19,-143,195,43,-68,-117,-156,-161
-131,-200,-68,165,-31,-134,195,43,-78,-117,-165,-156
-131,-200,-68,165,-31,-134,195,48,-78,-117,-165,-156
-131,-200,-68,165,-31,-134,195,48,-78,-122,-165,-156
-131,-200,-68,165,-31,-134,200,48,-78,-122,-165,-156
-122,-209,-87,165,-17,-148,200,53,-78,-117,-165,-156
-126,-214,-87,170,-19,-151,204,53,-78,-117,-170,-156
-126,-214,-87,170,-19,-151,204,53,-78,-117,-170,-156
-126,-214,-87,170,-19,-151,209,53,-73,-117,-170,-156
-122,-204,-82,163,-19,-143,200,53,-73,-117,-161,-156
-122,-204,-82,163,-19,-143,209,53,-73,-122,-161,-156
-126,-204,-78,165,-24,-141,209,58,-73,-122,-161,-156
-126,-200,-73,163,-26,-136,209,58,-73,-122,-161,-156
-126,-200,-73,163,-26,-136,219,58,-78,-122,-151,-156
-126,-200,-73,163,-26,-136,219,58,-78,-122,-156,-156
-131,-200,-68,165,-31,-134,219,58,-78,-122,-156,-156
-131,-200,-68,165,-31,-134,229,63,-78,-122,-156,-161
-131,-190,-58,161,-36,-124,219,63,-78,-112,-156,-151
-131,-190,-58,161,-36,-124,219,63,-78,-112,-156,-151
-131,-195,-63,163,-34,-129,229,63,-78,-112,-156,-151
-131,-200,-68,165,-31,-134,229,63,-78,-112,-156,-151
-136,-200,-63,168,-36,-131,239,63,-78,-122,-156,-151
-136,-195,-58,165,-39,-126,239,63,-82,-122,-156,-151
-136,-195,-58,165,-39,-126,244,63,-82,-122,-156,-151
-136,-195,-58,165,-39,-126,244,63,-82,-122,-156,-151
-141,-195,-53,168,-43,-124,234,63,-87,-117,-156,-165
-141,-200,-58,170,-41,-129,244,63,-87,-117,-161,-165
-146,-200,-53,173,-46,-126,244,63,-87,-122,-161,-165
-146,-200,-53,173,-46,-126,244,63,-87,-122,-161,-165
-136,-204,-68,170,-34,-136,244,63,-92,-122,-161,-165
-136,-204,-68,170,-34,-136,248,63,-92,-122,-161,-165
-141,-204,-63,173,-39,-134,248,63,-92,-122,-161,-165
-146,-209,-63,178,-41,-136,253,63,-92,-122,-161,-165
-156,-209,-53,183,-51,-131,253,63,-97,-131,-170,-165
-151,-209,-58,180,-46,-134,258,63,-97,-131,-175,-165
-151,-209,-58,180,-46,-134,258,63,-97,-131,-175,-165
-151,-214,-63,183,-43,-139,268,63,-97,-131,-175,-165
-156,-204,-48,180,-53,-126,268,63,-102,-131,-165,-156
-161,-204,-43,183,-58,-124,273,58,-102,-131,-165,-161
-161,-204,-43,183,-58,-124,273,58,-102,-136,-165,-161
-165,-204,-39,185,-63,-122,273,63,-102,-136,-170,-161
-165,-200,-34,183,-65,-117,283,63,-107,-141,-170,-161
-165,-200,-34,183,-65,-117,283,63,-107,-141,-170,-170
-170,-200,-29,185,-70,-114,292,63,-107,-141,-170,-161
-175,-200,-24,187,-75,-112,292,63,-112,-146,-170,-161
-165,-209,-43,187,-61,-126,297,58,-112,-146,-175,-170
-175,-209,-34,192,-70,-122,302,58,-112,-146,-175,-170
-180,-209,-29,195,-75,-119,302,58,-117,-146,-175,-170
-180,-214,-34,197,-73,-124,302,58,-126,-151,-175,-170
-190,-204,-14,197,-87,-109,297,48,-126,-146,-180,-165
-195,-204,-9,200,-92,-107,302,48,-126,-146,-190,-165
-200,-209,-9,204,-95,-109,307,48,-126,-146,-190,-165
-204,-209,-4,207,-100,-107,312,48,-126,-151,-185,-165
-204,-219,-14,212,-95,-117,326,53,-131,-151,-185,-170
-204,-219,-14,212,-95,-117,331,53,-136,-161,-190,-175
-209,-219,-9,214,-100,-114,336,53,-141,-161,-190,-175
-209,-219,-9,214,-100,-114,341,53,-141,-165,-190,-175
-214,-229,-14,222,-100,-122,356,53,-146,-175,-195,-185
-219,-234,-14,226,-102,-124,361,53,-151,-180,-204,-185
-224,-234,-9,229,-107,-122,366,43,-156,-180,-204,-190
-229,-234,-4,231,-112,-119,370,43,-156,-180,-204,-190
-234,-244,-9,239,-112,-126,380,34,-161,-175,-214,-180
-239,-244,-4,241,-117,-124,385,34,-165,-175,-214,-185
-248,-248,0,248,-124,-124,390,24,-170,-175,-214,-185
-253,-248,4,251,-129,-122,395,24,-175,-185,-219,-185
-253,-248,4,251,-129,-122,395,34,-185,-190,-209,-185
-263,-248,14,256,-139,-117,400,24,-190,-195,-209,-185
-273,-253,19,263,-146,-117,405,19,-200,-195,-219,-190
-278,-253,24,265,-151,-114,414,14,-204,-200,-224,-190
-278,-244,34,261,-156,-104,419,14,-200,-214,-229,-190
-287,-253,34,270,-161,-109,424,9,-209,-219,-229,-195
-297,-253,43,275,-170,-104,434,4,-224,-229,-234,-195
-297,-253,43,275,-170,-104,448,0,-229,-234,-239,-204
-322,-253,68,287,-195,-92,458,-9,-239,-224,-244,-204
-331,-253,78,292,-204,-87,463,-14,-248,-229,-248,-204
-341,-253,87,297,-214,-82,473,-24,-258,-244,-248,-204
-346,-253,92,300,-219,-80,478,-34,-268,-248,-253,-204
-351,-268,82,309,-217,-92,483,-43,-278,-258,-253,-214
-366,-273,92,319,-229,-90,488,-53,-287,-263,-258,-214
-380,-273,107,326,-244,-82,492,-63,-297,-273,-263,-214
-390,-273,117,331,-253,-78,497,-73,-312,-278,-263,-219
-390,-273,117,331,-253,-78,502,-73,-326,-283,-268,-219
-400,-273,126,336,-263,-73,507,-82,-336,-297,-273,-219
-419,-273,146,346,-283,-63,517,-102,-346,-302,-278,-224
-434,-278,156,356,-295,-61,527,-112,-366,-312,-278,-224
-448,-278,170,363,-309,-53,517,-126,-380,-302,-283,-214
-458,-278,180,368,-319,-48,522,-141,-395,-307,-287,-214
-473,-278,195,375,-334,-41,527,-156,-409,-326,-287,-219
-483,-283,200,383,-341,-41,527,-170,-424,-331,-292,-219
-497,-283,214,390,-356,-34,541,-185,-434,-346,-302,-219
-517,-283,234,400,-375,-24,546,-200,-453,-351,-307,-219
-536,-283,253,409,-395,-14,546,-219,-463,-356,-307,-219
-551,-283,268,417,-409,-7,551,-239,-473,-356,-307,-214
-561,-283,278,422,-419,-2,551,-253,-492,-370,-317,-224
-580,-283,297,431,-439,7,556,-273,-507,-385,-322,-224
-605,-287,317,446,-461,14,556,-283,-522,-395,-322,-224
-614,-287,326,451,-470,19,556,-297,-536,-395,-322,-214
-624,-273,351,448,-488,39,556,-322,-556,-395,-312,-214
-639,-273,366,456,-502,46,551,-341,-575,-395,-312,-214
-653,-268,385,461,-519,58,551,-351,-585,-395,-312,-209
-658,-268,390,463,-524,61,546,-375,-600,-395,-307,-204
-668,-273,395,470,-531,61,551,-395,-605,-400,-317,-200
-688,-268,419,478,-553,75,546,-409,-624,-405,-312,-195
-692,-263,429,478,-561,82,541,-429,-629,-409,-312,-190
-697,-258,439,478,-568,90,536,-444,-634,-414,-307,-185
-712,-248,463,480,-588,107,522,-458,-644,-414,-302,-170
-712,-248,463,480,-588,107,512,-473,-649,-409,-297,-170
-717,-244,473,480,-595,114,502,-488,-663,-400,-292,-161
-722,-234,488,478,-605,126,492,-497,-663,-395,-278,-156
-727,-219,507,473,-617,143,468,-512,-658,-400,-268,-151
-727,-209,517,468,-622,153,453,-522,-658,-385,-258,-146
-722,-195,527,458,-624,165,439,-531,-658,-380,-253,-136
-722,-185,536,453,-629,175,424,-541,-649,-370,-239,-126
-722,-180,541,451,-631,180,409,-541,-649,-366,-239,-117
-712,-165,546,439,-629,190,395,-541,-634,-356,-229,-107
-702,-156,546,429,-624,195,380,-541,-624,-341,-219,-97
-688,-146,541,417,-614,197,361,-541,-610,-326,-209,-87
-697,-151,546,424,-622,197,346,-531,-595,-312,-195,-87
-678,-136,541,407,-610,202,331,-522,-570,-297,-185,-73
-658,-122,536,390,-597,207,317,-507,-551,-273,-165,-68
-644,-112,531,378,-588,209,302,-497,-527,-253,-156,-53
-629,-102,527,366,-578,212,297,-488,-502,-234,-136,-48
-605,-92,512,348,-558,209,283,-473,-478,-214,-122,-39
-575,-78,497,326,-536,209,268,-448,-444,-195,-112,-34
-551,-73,478,312,-514,202,253,-429,-419,-185,-107,-24
-517,-58,458,287,-488,200,229,-409,-390,-156,-97,-9
-492,-48,444,270,-468,197,214,-385,-356,-141,-82,-4
-458,-34,424,246,-441,195,200,-361,-326,-126,-73,-4
-429,-29,400,229,-414,185,185,-331,-302,-107,-63,-4
-409,-24,385,217,-397,180,170,-312,-268,-82,-48,4
-380,-19,361,200,-370,170,156,-287,-244,-73,-43,4
-356,-9,346,183,-351,168,146,-263,-219,-58,-43,4
-326,-4,322,165,-324,158,131,-239,-204,-53,-34,4
-297,9,307,143,-302,158,117,-224,-180,-48,-19,4
-268,14,283,126,-275,148,107,-195,-156,-34,-14,4
-248,14,263,117,-256,139,97,-175,-131,-29,-9,4
-224,14,239,104,-231,126,87,-156,-112,-19,-9,9
-190,14,204,87,-197,109,78,-126,-87,-14,-4,9
-170,19,190,75,-180,104,68,-112,-78,-9,-4,4
-156,19,175,68,-165,97,63,-102,-63,-4,-4,4
-136,19,156,58,-146,87,53,-87,-48,0,0,4
-122,19,141,51,-131,80,48,-68,-34,4,0,4
-97,19,117,39,-107,68,39,-53,-29,4,0,0
-87,14,102,36,-95,58,34,-43,-19,4,0,0
-73,14,87,29,-80,51,34,-34,-9,4,0,-4
-68,4,73,31,-70,39,29,-9,4,14,0,-4
-53,4,58,24,-56,31,24,0,14,14,0,-9
-48,4,53,21,-51,29,19,9,14,19,0,-9
-34,4,39,14,-36,21,19,19,19,19,0,-9
-14,0,14,7,-14,7,19,24,24,9,-9,-14
-4,0,4,2,-4,2,14,34,24,9,-9,-14
0,-4,-4,2,2,-4,14,34,24,4,-9,-24
0,-4,-4,2,2,-4,9,39,29,0,-14,-24
14,-14,-29,0,21,-21,0,43,39,9,-14,-34
19,-14,-34,-2,26,-24,-4,48,39,4,-19,-34
24,-14,-39,-4,31,-26,-4,53,43,4,-19,-34
29,-19,-48,-4,39,-34,-4,58,43,0,-19,-39
34,-19,-53,-7,43,-36,-9,58,39,0,-24,-39
39,-19,-58,-9,48,-39,-9,58,39,0,-24,-39
43,-19,-63,-12,53,-41,-4,63,39,0,-24,-39
43,-19,-63,-12,53,-41,-4,68,39,4,-24,-39
48,-19,-68,-14,58,-43,-4,78,39,4,-24,-34
48,-19,-68,-14,58,-43,-9,78,39,0,-34,-34
53,-19,-73,-17,63,-46,-9,78,39,0,-34,-34
53,-19,-73,-17,63,-46,-9,78,39,0,-29,-39
58,-9,-68,-24,63,-39,-4,82,39,0,-29,-39
58,-14,-73,-21,65,-43,-4,82,39,-4,-24,-39
58,-14,-73,-21,65,-43,-4,82,39,-14,-24,-39
63,-14,-78,-24,70,-46,-4,87,39,-14,-34,-39
53,-24,-78,-14,65,-51,-14,78,29,-9,-34,-48
53,-29,-82,-12,68,-56,-14,78,29,-9,-34,-48
53,-29,-82,-12,68,-56,-9,78,29,-9,-34,-48
53,-29,-82,-12,68,-56,-9,78,29,-14,-34,-53
63,-19,-82,-21,73,-51,0,92,29,-4,-29,-43
63,-19,-82,-21,73,-51,0,92,34,-4,-29,-43
63,-24,-87,-19,75,-56,0,92,34,0,-29,-43
63,-24,-87,-19,75,-56,-4,92,34,0,-34,-43
53,-34,-87,-9,70,-61,-4,82,34,-9,-34,-43
53,-34,-87,-9,70,-61,-4,82,34,-9,-29,-43
53,-34,-87,-9,70,-61,0,78,34,-4,-29,-43
53,-34,-87,-9,70,-61,0,78,34,-4,-29,-43
63,-24,-87,-19,75,-56,-9,87,43,-4,-19,-43
63,-24,-87,-19,75,-56,-9,87,43,-4,-19,-43
63,-19,-82,-21,73,-51,-9,87,43,0,-19,-43
63,-19,-82,-21,73,-51,-14,87,43,0,-19,-39
53,-29,-82,-12,68,-56,-4,78,34,-4,-29,-48
53,-29,-82,-12,68,-56,-4,78,34,-4,-34,-48
53,-29,-82,-12,68,-56,-4,78,34,-4,-34,-48
53,-29,-82,-12,68,-56,-4,78,34,-4,-34,-48
63,-29,-92,-17,78,-61,0,78,43,9,-34,-43
63,-29,-92,-17,78,-61,0,78,43,9,-34,-43
63,-29,-92,-17,78,-61,0,78,43,0,-34,-43
63,-29,-92,-17,78,-61,0,78,43,0,-39,-43
53,-29,-82,-12,68,-56,-9,87,43,0,-29,-43
53,-29,-82,-12,68,-56,-9,92,43,0,-29,-43
53,-29,-82,-12,68,-56,-9,92,43,4,-24,-43
53,-24,-78,-14,65,-51,-9,92,43,4,-19,-43
63,-14,-78,-24,70,-46,0,87,43,4,-19,-43
63,-19,-82,-21,73,-51,0,87,43,4,-24,-43
63,-19,-82,-21,73,-51,0,87,43,0,-29,-39
58,-14,-73,-21,65,-43,0,87,43,-4,-34,-39
58,-14,-73,-21,65,-43,0,87,43,0,-24,-39
58,-19,-78,-19,68,-48,0,87,43,0,-34,-43
58,-19,-78,-19,68,-48,0,87,43,0,-34,-43
58,-19,-78,-19,68,-48,0,87,43,0,-29,-43
48,-24,-73,-12,61,-48,0,87,43,4,-29,-43
48,-24,-73,-12,61,-48,0,87,43,9,-29,-39
48,-24,-73,-12,61,-48,0,87,48,14,-29,-39
48,-24,-73,-12,61,-48,0,82,48,19,-29,-43
48,-19,-68,-14,58,-43,0,82,48,14,-29,-53
48,-19,-68,-14,58,-43,0,82,48,9,-29,-53
48,-14,-63,-17,56,-39,0,82,48,4,-34,-48
48,-14,-63,-17,56,-39,0,82,48,0,-34,-43
58,-24,-82,-17,70,-53,0,82,48,0,-34,-43
58,-24,-82,-17,70,-53,0,82,48,0,-34,-43
58,-24,-82,-17,70,-53,0,82,48,-4,-43,-43
58,-24,-82,-17,70,-53,-4,82,48,-4,-48,-43
58,-24,-82,-17,70,-53,-4,82,48,-4,-39,-39
58,-24,-82,-17,70,-53,-4,78,48,0,-34,-43
58,-19,-78,-19,68,-48,-4,78,48,0,-34,-43
58,-19,-78,-19,68,-48,-4,78,48,0,-34,-43
48,-34,-82,-7,65,-58,-4,78,43,4,-34,-43
43,-34,-78,-4,61,-56,-4,78,43,4,-34,-43
43,-34,-78,-4,61,-56,-4,73,43,9,-34,-39
43,-34,-78,-4,61,-56,-4,73,43,9,-34,-39
53,-24,-78,-14,65,-51,-4,73,43,9,-24,-39
53,-19,-73,-17,63,-46,-4,73,43,9,-19,-39
53,-14,-68,-19,61,-41,-4,73,43,4,-19,-39
53,-14,-68,-19,61,-41,-4,73,43,4,-19,-39
53,-24,-78,-14,65,-51,-4,73,43,-4,-34,-48
53,-24,-78,-14,65,-51,-9,73,43,0,-34,-48
53,-24,-78,-14,65,-51,-9,68,43,0,-34,-48
53,-24,-78,-14,65,-51,-9,68,39,-4,-39,-48
43,-24,-68,-9,56,-46,-9,68,39,4,-39,-39
43,-24,-68,-9,56,-46,-9,68,39,4,-39,-43
43,-24,-68,-9,56,-46,-9,68,39,4,-39,-43
43,-24,-68,-9,56,-46,-9,68,39,4,-39,-39
39,-24,-63,-7,51,-43,-9,68,39,4,-39,-39
