I, II, III, aVR, aVL, aVF, V1, V2, V3, V4, V5, V6
39,58,19,-48,9,39,9,-39,9,29,39,39
29,63,34,-46,-2,48,0,-48,4,29,39,39
19,68,48,-43,-14,58,-9,-58,0,29,39,39
19,68,48,-43,-14,58,-29,-78,-9,24,39,39
14,68,53,-41,-19,61,-39,-87,-19,19,39,39
14,68,53,-41,-19,61,-53,-97,-29,14,39,39
19,82,63,-51,-21,73,-63,-97,-39,14,39,48
24,92,68,-58,-21,80,-73,-97,-29,19,53,58
24,97,73,-61,-24,85,-78,-102,-24,19,58,68
34,82,48,-58,-7,65,-78,-112,-39,9,48,63
34,58,24,-46,4,41,-68,-112,-48,4,39,53
24,39,14,-31,4,26,-63,-117,-63,-4,29,43
4,9,4,-7,0,7,-53,-117,-73,-9,14,34
-14,0,14,7,-14,7,-43,-117,-73,-9,14,24
-19,-4,14,12,-17,4,-34,-117,-73,-14,14,14
-24,-19,4,21,-14,-7,-34,-122,-78,-24,-4,4
-24,-24,0,24,-12,-12,-29,-122,-78,-24,-14,-4
-29,-34,-4,31,-12,-19,-29,-122,-87,-34,-14,-9
-34,-43,-9,39,-12,-26,-34,-136,-92,-39,-24,-9
-39,-53,-14,46,-12,-34,-34,-136,-97,-43,-24,-19
-39,-58,-19,48,-9,-39,-34,-136,-97,-43,-24,-19
-39,-58,-19,48,-9,-39,-34,-136,-97,-48,-24,-14
-34,-58,-24,46,-4,-41,-34,-136,-97,-53,-29,-14
-34,-63,-29,48,-2,-46,-43,-136,-97,-58,-29,-24
-29,-63,-34,46,2,-48,-48,-136,-97,-68,-34,-29
-29,-63,-34,46,2,-48,-43,-136,-97,-68,-34,-29
-29,-63,-34,46,2,-48,-43,-136,-97,-63,-34,-29
-29,-63,-34,46,2,-48,-43,-136,-102,-58,-34,-24
-29,-68,-39,48,4,-53,-43,-131,-102,-53,-29,-19
-29,-73,-43,51,7,-58,-34,-131,-97,-53,-29,-19
-29,-78,-48,53,9,-63,-29,-131,-97,-53,-29,-19
-29,-73,-43,51,7,-58,-29,-131,-97,-53,-34,-19
-29,-73,-43,51,7,-58,-29,-131,-97,-53,-34,-19
-29,-73,-43,51,7,-58,-34,-131,-97,-53,-29,-19
-29,-73,-43,51,7,-58,-39,-131,-97,-53,-29,-19
-29,-73,-43,51,7,-58,-39,-126,-97,-53,-29,-19
-29,-68,-39,48,4,-53,-39,-126,-92,-53,-29,-19
-19,-63,-43,41,12,-53,-48,-122,-92,-48,-19,-14
-19,-63,-43,41,12,-53,-48,-126,-92,-53,-24,-24
-43,-58,-14,51,-14,-36,-24,-151,-97,-68,-43,-39
-117,-63,53,90,-85,-4,43,-195,-97,-122,-87,-87
-224,-131,92,178,-158,-19,165,-253,-122,-273,-200,-180
-268,-190,78,229,-173,-56,268,-244,-122,-331,-268,-253
-283,-195,87,239,-185,-53,331,-151,-34,-268,-224,-253
-234,-117,117,175,-175,0,375,102,175,-68,-82,-185
-146,102,248,21,-197,175,395,297,395,244,156,-43
48,370,322,-209,-136,346,322,414,541,600,444,170
400,663,263,-531,68,463,190,702,702,1058,810,444
668,858,190,-763,239,524,-29,702,634,1298,1044,678
658,941,283,-800,187,612,-307,190,453,1176,1093,907
546,873,326,-710,109,600,-541,-326,253,1063,1117,1093
683,263,-419,-473,551,-78,-810,-439,-287,590,795,1024
717,-234,-951,-241,834,-592,-1029,-858,-873,43,395,834
502,-751,-1254,124,878,-1002,-1029,-1429,-1439,-707,-180,380
214,-951,-1166,368,690,-1058,-863,-1629,-1654,-1083,-517,68
9,-829,-839,409,424,-834,-624,-1327,-1366,-912,-453,-9
-92,-673,-580,383,244,-627,-385,-897,-961,-678,-361,-68
-92,-566,-473,329,190,-519,-180,-531,-605,-478,-326,-122
-82,-429,-346,256,131,-387,-82,-307,-361,-312,-258,-151
-58,-307,-248,183,95,-278,-48,-170,-229,-195,-170,-136
-53,-253,-200,153,73,-226,4,-82,-141,-136,-131,-112
-43,-200,-156,122,56,-178,43,-14,-63,-87,-112,-97
-34,-141,-107,87,36,-124,53,14,-19,-58,-82,-78
-34,-122,-87,78,26,-104,53,14,-19,-48,-63,-73
-39,-126,-87,82,24,-107,58,14,-19,-48,-68,-73
-43,-126,-82,85,19,-104,68,29,-4,-48,-68,-68
-48,-117,-68,82,9,-92,73,34,0,-39,-68,-68
-48,-102,-53,75,2,-78,73,34,4,-39,-58,-68
-53,-102,-48,78,-2,-75,68,34,4,-39,-58,-73
-53,-102,-48,78,-2,-75,63,34,4,-39,-58,-73
-48,-102,-53,75,2,-78,63,39,9,-39,-58,-73
-43,-92,-48,68,2,-70,63,39,14,-34,-58,-73
-39,-87,-48,63,4,-68,63,48,14,-34,-58,-73
-39,-87,-48,63,4,-68,63,48,19,-34,-58,-73
-39,-87,-48,63,4,-68,63,48,24,-34,-58,-78
-43,-87,-43,65,0,-65,63,48,24,-34,-53,-78
-43,-87,-43,65,0,-65,68,53,24,-34,-53,-78
-43,-87,-43,65,0,-65,73,53,24,-34,-53,-78
-43,-87,-43,65,0,-65,78,53,29,-29,-53,-78
-43,-92,-48,68,2,-70,78,53,29,-29,-53,-73
-48,-102,-53,75,2,-78,78,53,29,-34,-53,-68
-53,-102,-48,78,-2,-75,78,58,29,-34,-53,-68
-58,-102,-43,80,-7,-73,73,63,29,-34,-53,-68
-58,-102,-43,80,-7,-73,73,63,29,-29,-53,-73
-58,-102,-43,80,-7,-73,73,63,34,-29,-58,-78
-58,-102,-43,80,-7,-73,78,63,39,-29,-58,-78
-58,-102,-43,80,-7,-73,82,68,43,-29,-63,-78
-58,-102,-43,80,-7,-73,82,73,48,-29,-63,-82
-63,-102,-39,82,-12,-70,82,78,48,-29,-68,-82
-68,-102,-34,85,-17,-68,87,82,48,-24,-68,-82
-68,-102,-34,85,-17,-68,87,82,53,-24,-68,-82
-68,-107,-39,87,-14,-73,87,92,58,-29,-68,-82
-68,-112,-43,90,-12,-78,97,97,58,-29,-68,-82
-68,-112,-43,90,-12,-78,97,92,58,-29,-68,-87
-68,-112,-43,90,-12,-78,102,97,63,-29,-68,-92
-63,-112,-48,87,-7,-80,102,102,63,-29,-68,-87
-58,-112,-53,85,-2,-82,107,112,73,-29,-68,-87
-63,-112,-48,87,-7,-80,112,112,78,-24,-73,-87
-68,-112,-43,90,-12,-78,117,112,78,-24,-73,-92
-68,-112,-43,90,-12,-78,122,117,82,-24,-73,-92
-68,-112,-43,90,-12,-78,122,126,87,-24,-78,-92
-68,-117,-48,92,-9,-82,126,136,97,-19,-78,-92
-68,-117,-48,92,-9,-82,131,151,102,-19,-78,-97
-78,-126,-48,102,-14,-87,141,161,112,-19,-82,-97
-82,-136,-53,109,-14,-95,146,170,122,-14,-82,-102
-82,-136,-53,109,-14,-95,156,185,131,-9,-82,-102
-82,-136,-53,109,-14,-95,156,204,141,0,-78,-102
-82,-136,-53,109,-14,-95,165,219,146,0,-78,-102
-82,-131,-48,107,-17,-90,170,244,156,0,-78,-102
-78,-131,-53,104,-12,-92,175,253,170,9,-78,-107
-73,-131,-58,102,-7,-95,190,268,180,9,-78,-112
-73,-136,-63,104,-4,-100,195,292,190,19,-78,-112
-73,-136,-63,104,-4,-100,204,317,200,29,-78,-112
-78,-136,-58,107,-9,-97,209,346,219,34,-78,-117
-82,-141,-58,112,-12,-100,219,375,229,43,-73,-117
-82,-141,-58,112,-12,-100,229,405,248,48,-73,-117
-82,-141,-58,112,-12,-100,234,439,263,63,-73,-117
-73,-141,-68,107,-2,-104,248,473,283,73,-73,-122
-68,-141,-73,104,2,-107,253,502,302,82,-78,-126
-58,-146,-87,102,14,-117,263,541,322,92,-73,-131
-53,-146,-92,100,19,-119,273,585,336,102,-73,-131
-53,-146,-92,100,19,-119,283,624,366,126,-73,-126
-53,-146,-92,100,19,-119,287,668,390,141,-68,-126
-39,-141,-102,90,31,-122,292,717,409,165,-63,-126
-34,-141,-107,87,36,-124,292,766,429,180,-53,-126
-34,-146,-112,90,39,-129,292,805,453,204,-48,-117
-29,-141,-112,85,41,-126,292,849,478,219,-34,-107
-34,-136,-102,85,34,-119,287,888,502,244,-24,-102
-29,-122,-92,75,31,-107,283,917,517,263,-14,-92
-19,-112,-92,65,36,-102,273,946,527,278,0,-82
-14,-102,-87,58,36,-95,263,961,531,292,9,-73
4,-82,-87,39,46,-85,244,966,536,307,19,-58
34,-58,-92,12,63,-75,229,951,541,322,29,-48
39,-43,-82,2,61,-63,209,936,531,331,48,-29
43,-29,-73,-7,58,-51,175,902,522,336,68,-19
48,-19,-68,-14,58,-43,156,854,497,336,73,-4
48,-9,-58,-19,53,-34,131,800,468,326,87,19
53,14,-39,-34,46,-12,107,727,429,312,97,34
53,39,-14,-46,34,12,82,644,390,297,102,43
63,53,-9,-58,36,21,58,570,346,273,107,58
68,68,0,-68,34,34,34,492,297,253,107,68
68,78,9,-73,29,43,19,409,263,234,112,73
63,78,14,-70,24,46,4,331,219,214,117,73
53,78,24,-65,14,51,-9,268,185,190,112,73
48,78,29,-63,9,53,-14,219,151,165,117,73
43,63,19,-53,12,41,-19,165,122,141,112,78
43,63,19,-53,12,41,-29,122,92,117,97,78
43,68,24,-56,9,46,-29,87,68,97,82,78
43,58,14,-51,14,36,-34,58,43,87,78,73
43,58,14,-51,14,36,-34,24,29,68,68,63
43,58,14,-51,14,36,-39,0,14,58,68,53
34,53,19,-43,7,36,-39,-19,4,48,63,53
34,48,14,-41,9,31,-39,-29,0,39,63,53
29,48,19,-39,4,34,-39,-39,-14,29,63,48
24,48,24,-36,0,36,-39,-48,-24,24,53,48
19,43,24,-31,-2,34,-39,-63,-24,19,48,39
14,39,24,-26,-4,31,-39,-73,-29,9,48,39
9,29,19,-19,-4,24,-39,-73,-34,9,43,39
9,29,19,-19,-4,24,-34,-78,-34,9,39,39
14,29,14,-21,0,21,-34,-78,-34,0,34,34
19,24,4,-21,7,14,-34,-78,-39,-4,29,34
19,24,4,-21,7,14,-34,-87,-43,-4,29,29
19,19,0,-19,9,9,-34,-92,-43,-4,29,29
14,14,0,-14,7,7,-29,-87,-43,-9,24,29
14,9,-4,-12,9,2,-29,-87,-39,-9,19,29
9,14,4,-12,2,9,-29,-82,-39,-14,19,24
4,14,9,-9,-2,12,-29,-78,-39,-14,19,24
4,14,9,-9,-2,12,-29,-78,-39,-14,19,19
0,9,9,-4,-4,9,-24,-78,-39,-14,19,14
0,9,9,-4,-4,9,-24,-78,-34,-14,19,14
0,14,14,-7,-7,14,-19,-73,-29,-14,19,14
0,14,14,-7,-7,14,-19,-73,-29,-14,19,9
-4,9,14,-2,-9,12,-19,-68,-24,-14,19,9
0,14,14,-7,-7,14,-9,-68,-24,-14,14,9
4,19,14,-12,-4,17,-9,-63,-24,-14,14,9
4,19,14,-12,-4,17,-9,-58,-24,-14,14,9
4,19,14,-12,-4,17,-4,-48,-19,-14,14,9
0,19,19,-9,-9,19,-4,-48,-14,-14,14,9
-4,14,19,-4,-12,17,-4,-48,-14,-9,14,9
0,14,14,-7,-7,14,0,-43,-14,-9,19,9
4,14,9,-9,-2,12,0,-43,-14,-9,19,9
4,14,9,-9,-2,12,0,-39,-9,-9,14,9
4,14,9,-9,-2,12,0,-34,-4,-9,14,9
0,14,14,-7,-7,14,0,-34,-4,-4,14,9
-4,14,19,-4,-12,17,4,-34,-4,-4,14,9
-4,14,19,-4,-12,17,4,-29,0,0,19,9
-4,14,19,-4,-12,17,4,-24,4,0,19,9
-4,19,24,-7,-14,21,4,-24,4,0,19,9
-9,19,29,-4,-19,24,4,-24,4,0,24,9
-9,19,29,-4,-19,24,4,-19,9,4,24,9
-9,14,24,-2,-17,19,9,-19,9,4,24,9
-9,14,24,-2,-17,19,9,-14,9,9,19,9
-9,14,24,-2,-17,19,4,-14,14,9,14,9
-9,19,29,-4,-19,24,0,-14,14,9,14,9
-9,19,29,-4,-19,24,-4,-14,14,9,14,14
-9,19,29,-4,-19,24,-4,-14,14,9,14,14
-9,19,29,-4,-19,24,-4,-14,19,14,14,14
-14,14,29,0,-21,21,-4,-14,19,14,14,14
-14,14,29,0,-21,21,-4,-14,19,9,14,14
-14,14,29,0,-21,21,-9,-19,14,9,14,14
-9,14,24,-2,-17,19,-9,-29,9,9,14,14
-9,14,24,-2,-17,19,-9,-29,9,9,14,14
-9,14,24,-2,-17,19,-14,-34,4,9,14,14
-14,14,29,0,-21,21,-14,-34,0,9,14,14
-19,14,34,2,-26,24,-14,-34,0,9,14,14
-19,14,34,2,-26,24,-14,-43,-4,4,14,9
-19,14,34,2,-26,24,-14,-43,-9,4,14,9
-14,14,29,0,-21,21,-14,-48,-9,0,14,9
-14,9,24,2,-19,17,-19,-48,-14,0,14,9
-14,9,24,2,-19,17,-24,-58,-19,-4,14,9
-14,9,24,2,-19,17,-24,-58,-19,-4,19,9
-14,9,24,2,-19,17,-19,-63,-24,-4,19,9
-14,9,24,2,-19,17,-19,-68,-24,-4,14,9
-14,9,24,2,-19,17,-19,-68,-29,-9,14,4
-14,9,24,2,-19,17,-19,-73,-29,-9,14,4
-9,9,19,0,-14,14,-19,-73,-34,-14,14,4
-9,9,19,0,-14,14,-19,-78,-34,-14,14,9
-9,9,19,0,-14,14,-19,-78,-39,-14,14,9
-14,9,24,2,-19,17,-19,-82,-39,-14,9,9
-19,9,29,4,-24,19,-24,-87,-39,-19,9,4
-29,9,39,9,-34,24,-24,-87,-43,-19,14,4
-29,9,39,9,-34,24,-24,-87,-43,-19,9,9
-29,9,39,9,-34,24,-24,-87,-48,-19,0,9
-29,4,34,12,-31,19,-24,-92,-48,-24,0,4
-24,4,29,9,-26,17,-24,-97,-53,-24,0,4
-19,4,24,7,-21,14,-29,-97,-53,-24,0,4
-19,4,24,7,-21,14,-29,-97,-58,-24,0,4
-19,4,24,7,-21,14,-39,-97,-58,-29,0,4
-19,4,24,7,-21,14,-43,-97,-58,-29,0,4
-14,4,19,4,-17,12,-39,-97,-58,-29,0,4
-14,4,19,4,-17,12,-39,-107,-58,-29,0,0
-14,4,19,4,-17,12,-39,-107,-63,-29,0,0
-14,4,19,4,-17,12,-43,-107,-68,-29,0,0
-9,9,19,0,-14,14,-39,-107,-63,-29,0,4
-9,14,24,-2,-17,19,-39,-107,-58,-29,4,9
-14,9,24,2,-19,17,-39,-107,-63,-29,0,9
-19,9,29,4,-24,19,-39,-107,-68,-29,0,9
-19,9,29,4,-24,19,-39,-107,-68,-34,0,9
-19,9,29,4,-24,19,-39,-107,-68,-39,0,9
-19,9,29,4,-24,19,-39,-107,-68,-39,0,9
-19,9,29,4,-24,19,-39,-107,-68,-39,0,9
-19,9,29,4,-24,19,-39,-107,-68,-39,0,9
-19,9,29,4,-24,19,-39,-107,-68,-39,0,9
-24,9,34,7,-29,21,-39,-107,-68,-34,0,9
-29,9,39,9,-34,24,-39,-107,-68,-29,0,9
-29,9,39,9,-34,24,-39,-107,-68,-29,0,9
-29,9,39,9,-34,24,-39,-107,-68,-29,0,9
-24,9,34,7,-29,21,-39,-107,-73,-34,0,9
-19,9,29,4,-24,19,-39,-107,-78,-39,0,9
-19,9,29,4,-24,19,-39,-112,-78,-39,0,9
-19,9,29,4,-24,19,-39,-117,-78,-39,0,9
-19,14,34,2,-26,24,-34,-117,-78,-39,0,9
-19,19,39,0,-29,29,-29,-117,-78,-39,0,9
-19,19,39,0,-29,29,-29,-117,-78,-39,0,9
-19,19,39,0,-29,29,-29,-117,-78,-39,0,9
-19,19,39,0,-29,29,-34,-117,-78,-39,0,9
-19,19,39,0,-29,29,-39,-117,-78,-39,0,9
-19,19,39,0,-29,29,-39,-117,-78,-39,0,9
-19,19,39,0,-29,29,-39,-117,-78,-39,0,9
-19,19,39,0,-29,29,-39,-117,-78,-39,0,9
-19,19,39,0,-29,29,-39,-117,-78,-39,0,9
-19,19,39,0,-29,29,-39,-117,-78,-39,0,9
-19,19,39,0,-29,29,-39,-117,-78,-39,0,9
-19,19,39,0,-29,29,-39,-117,-78,-39,0,9
-19,19,39,0,-29,29,-39,-117,-78,-39,0,9
-24,19,43,2,-34,31,-39,-117,-73,-39,0,9
-29,19,48,4,-39,34,-39,-117,-68,-39,0,9
-29,19,48,4,-39,34,-39,-117,-68,-39,0,9
-29,19,48,4,-39,34,-39,-117,-68,-39,0,9
-29,14,43,7,-36,29,-39,-117,-73,-39,0,9
-29,9,39,9,-34,24,-39,-117,-78,-39,0,9
-29,9,39,9,-34,24,-39,-117,-78,-39,0,4
-29,9,39,9,-34,24,-39,-117,-78,-39,0,0
-29,9,39,9,-34,24,-39,-117,-78,-39,0,0
-29,9,39,9,-34,24,-39,-117,-78,-39,0,0
-29,9,39,9,-34,24,-39,-122,-78,-39,0,0
-29,9,39,9,-34,24,-39,-126,-78,-39,0,0
-29,9,39,9,-34,24,-39,-126,-78,-39,0,0
-29,9,39,9,-34,24,-39,-126,-78,-39,0,0
-29,9,39,9,-34,24,-39,-126,-78,-39,0,4
-29,9,39,9,-34,24,-39,-126,-78,-39,0,9
-29,9,39,9,-34,24,-39,-126,-78,-39,0,9
-29,9,39,9,-34,24,-39,-126,-78,-39,0,9
-29,9,39,9,-34,24,-39,-126,-73,-39,0,9
-29,9,39,9,-34,24,-39,-126,-68,-39,0,9
-29,9,39,9,-34,24,-39,-122,-68,-39,0,9
-29,9,39,9,-34,24,-39,-117,-68,-39,0,9
-34,9,43,12,-39,26,-43,-117,-73,-39,0,9
-39,9,48,14,-43,29,-48,-117,-78,-39,0,9
-39,9,48,14,-43,29,-48,-122,-78,-39,0,9
-39,9,48,14,-43,29,-48,-126,-78,-39,0,9
-39,9,48,14,-43,29,-48,-126,-78,-39,0,9
-39,9,48,14,-43,29,-48,-126,-78,-39,0,9
-39,9,48,14,-43,29,-43,-126,-78,-39,0,9
-39,9,48,14,-43,29,-39,-126,-78,-39,0,9
-39,9,48,14,-43,29,-39,-126,-78,-39,0,9
-39,9,48,14,-43,29,-39,-126,-78,-39,0,9
-39,9,48,14,-43,29,-39,-126,-73,-39,0,14
-39,9,48,14,-43,29,-39,-126,-68,-39,0,19
-39,9,48,14,-43,29,-39,-126,-68,-39,0,19
-39,9,48,14,-43,29,-39,-126,-68,-39,0,19
-39,14,53,12,-46,34,-39,-126,-68,-39,0,19
-39,19,58,9,-48,39,-39,-126,-68,-39,0,19
-24,29,53,-2,-39,41,-34,-122,-68,-29,4,19
-9,39,48,-14,-29,43,-29,-117,-68,-19,9,19
-9,53,63,-21,-36,58,-24,-107,-53,-14,14,29
-9,68,78,-29,-43,73,-19,-97,-39,-9,19,39
-9,73,82,-31,-46,78,-9,-87,-29,-4,29,39
-9,78,87,-34,-48,82,0,-78,-19,0,39,39
-4,82,87,-39,-46,85,4,-68,-9,4,43,39
0,87,87,-43,-43,87,9,-58,0,9,48,39
9,92,82,-51,-36,87,9,-53,0,14,48,43
19,97,78,-58,-29,87,9,-48,0,19,48,48
19,102,82,-61,-31,92,4,-48,0,19,53,53
19,107,87,-63,-34,97,0,-48,0,19,58,58
19,112,92,-65,-36,102,-19,-63,-4,19,58,58
19,117,97,-68,-39,107,-39,-78,-9,19,58,58
19,117,97,-68,-39,107,-53,-97,-24,9,53,58
19,112,92,-65,-36,102,-58,-107,-29,4,48,58
19,107,87,-63,-34,97,-68,-117,-39,0,48,58
29,112,82,-70,-26,97,-73,-117,-39,4,48,68
34,126,92,-80,-29,109,-78,-117,-39,9,58,73
34,136,102,-85,-34,119,-78,-122,-43,9,58,78
39,126,87,-82,-24,107,-82,-126,-58,0,53,73
34,107,73,-70,-19,90,-78,-122,-68,-4,48,63
24,87,63,-56,-19,75,-73,-126,-73,-14,39,53
4,58,53,-31,-24,56,-63,-126,-73,-19,24,43
-19,48,68,-14,-43,58,-53,-126,-73,-19,24,39
-29,43,73,-7,-51,58,-43,-126,-73,-24,24,34
-34,29,63,2,-48,46,-43,-131,-78,-34,9,24
-34,24,58,4,-46,41,-39,-131,-78,-34,4,14
-39,9,48,14,-43,29,-39,-131,-87,-43,4,9
-43,-4,39,24,-41,17,-43,-146,-92,-48,-4,9
-53,-9,43,31,-48,17,-48,-151,-102,-53,-9,0
-58,-9,48,34,-53,19,-53,-156,-107,-53,-14,0
-58,-9,48,34,-53,19,-53,-156,-107,-53,-14,4
-53,-9,43,31,-48,17,-53,-156,-107,-53,-19,4
-53,-14,39,34,-46,12,-58,-156,-102,-53,-19,0
-48,-14,34,31,-41,9,-58,-156,-97,-58,-24,0
-48,-14,34,31,-41,9,-53,-156,-97,-58,-24,0
-48,-14,34,31,-41,9,-53,-156,-97,-53,-24,0
-48,-14,34,31,-41,9,-53,-156,-102,-53,-24,0
-48,-19,29,34,-39,4,-53,-151,-102,-53,-19,0
-48,-19,29,34,-39,4,-48,-151,-97,-53,-19,0
-48,-19,29,34,-39,4,-48,-151,-97,-53,-19,0
-48,-14,34,31,-41,9,-48,-151,-97,-53,-24,0
-48,-14,34,31,-41,9,-48,-151,-97,-53,-24,0
-48,-14,34,31,-41,9,-43,-151,-97,-53,-19,0
-48,-14,34,31,-41,9,-39,-151,-97,-53,-19,0
-48,-14,34,31,-41,9,-39,-146,-97,-53,-14,0
-48,-9,39,29,-43,14,-39,-146,-92,-53,-9,0
-43,-9,34,26,-39,12,-48,-136,-92,-53,-9,4
-48,-14,34,31,-41,9,-48,-136,-92,-63,-24,-4
-78,-9,68,43,-73,29,-24,-180,-102,-78,-29,-4
-156,-14,141,85,-148,63,43,-244,-107,-131,-58,-39
-258,-73,185,165,-222,56,161,-302,-136,-278,-170,-131
-297,-122,175,209,-236,26,258,-292,-141,-331,-239,-204
-307,-117,190,212,-248,36,326,-195,-39,-248,-200,-204
-253,-29,224,141,-239,97,375,63,185,-29,-63,-136
-161,180,341,-9,-251,261,395,283,405,268,175,0
39,439,400,-239,-180,419,322,424,551,610,463,209
429,717,287,-573,70,502,146,707,678,1024,785,453
736,897,161,-817,287,529,-117,702,575,1220,976,658
727,956,229,-841,248,592,-424,156,370,1068,1005,854
614,863,248,-739,183,556,-688,-395,146,927,1010,1005
736,180,-556,-458,646,-187,-941,-527,-409,409,624,873
756,-390,-1146,-183,951,-768,-1146,-966,-1010,-180,161,619
527,-893,-1420,183,973,-1156,-1122,-1517,-1551,-888,-361,200
224,-1078,-1302,427,763,-1190,-932,-1698,-1742,-1220,-644,-78
14,-907,-922,446,468,-915,-663,-1376,-1405,-990,-546,-102
-92,-702,-610,397,258,-656,-395,-927,-951,-697,-419,-107
-82,-536,-453,309,185,-495,-195,-541,-585,-478,-336,-131
-63,-341,-278,202,107,-309,-102,-297,-331,-292,-219,-131
-39,-229,-190,134,75,-209,-53,-161,-200,-185,-146,-117
-34,-185,-151,109,58,-168,14,-73,-112,-136,-122,-92
-29,-136,-107,82,39,-122,43,-24,-53,-97,-102,-82
-24,-82,-58,53,17,-70,43,-14,-29,-78,-73,-68
-24,-68,-43,46,9,-56,39,-14,-29,-68,-58,-63
-29,-78,-48,53,9,-63,39,-14,-29,-68,-68,-63
-29,-78,-48,53,9,-63,43,4,-14,-68,-68,-58
-29,-68,-39,48,4,-53,43,14,-9,-58,-68,-58
-24,-53,-29,39,2,-41,43,14,-4,-58,-58,-53
-24,-53,-29,39,2,-41,39,14,-4,-58,-58,-53
-24,-53,-29,39,2,-41,39,14,-9,-58,-58,-53
-19,-53,-34,36,7,-43,43,19,-9,-58,-58,-53
-19,-48,-29,34,4,-39,43,19,-4,-53,-58,-53
-19,-48,-29,34,4,-39,43,29,-4,-53,-58,-53
-19,-48,-29,34,4,-39,43,29,0,-53,-58,-53
-19,-48,-29,34,4,-39,43,29,4,-53,-58,-58
-24,-48,-24,36,0,-36,43,29,4,-53,-58,-63
-24,-48,-24,36,0,-36,48,34,4,-53,-63,-68
-24,-48,-24,36,0,-36,48,34,4,-53,-63,-68
-24,-48,-24,36,0,-36,48,34,9,-48,-63,-68
-24,-48,-24,36,0,-36,48,34,9,-48,-63,-68
-29,-53,-24,41,-2,-39,48,34,9,-53,-63,-68
-29,-53,-24,41,-2,-39,53,39,14,-53,-63,-68
-29,-53,-24,41,-2,-39,53,43,19,-53,-63,-68
-34,-53,-19,43,-7,-36,58,43,19,-53,-58,-68
-39,-53,-14,46,-12,-34,63,43,24,-58,-58,-68
-39,-53,-14,46,-12,-34,68,43,29,-58,-58,-68
-39,-53,-14,46,-12,-34,73,48,34,-58,-63,-68
-34,-53,-19,43,-7,-36,68,53,39,-53,-63,-73
-34,-53,-19,43,-7,-36,63,58,39,-48,-68,-73
-39,-53,-14,46,-12,-34,68,63,39,-43,-68,-73
-39,-53,-14,46,-12,-34,68,63,43,-43,-68,-73
-39,-58,-19,48,-9,-39,68,73,53,-48,-73,-73
-39,-63,-24,51,-7,-43,78,78,58,-48,-78,-73
-39,-63,-24,51,-7,-43,78,78,58,-48,-78,-78
-39,-63,-24,51,-7,-43,82,87,63,-48,-78,-82
-39,-63,-24,51,-7,-43,82,92,63,-48,-78,-82
-39,-63,-24,51,-7,-43,87,102,73,-48,-78,-87
-43,-68,-24,56,-9,-46,92,107,78,-43,-82,-87
-48,-73,-24,61,-12,-48,97,112,78,-43,-82,-92
-53,-73,-19,63,-17,-46,102,117,82,-43,-78,-92
-58,-73,-14,65,-21,-43,102,126,87,-43,-78,-92
-58,-78,-19,68,-19,-48,107,136,97,-39,-78,-92
-58,-78,-19,68,-19,-48,112,151,102,-39,-78,-97
-63,-82,-19,73,-21,-51,122,161,112,-39,-87,-97
-63,-87,-24,75,-19,-56,126,170,122,-34,-92,-102
-63,-87,-24,75,-19,-56,136,185,126,-29,-92,-102
-63,-87,-24,75,-19,-56,136,204,131,-19,-87,-102
-63,-87,-24,75,-19,-56,146,219,136,-19,-87,-102
-63,-82,-19,73,-21,-51,151,244,146,-19,-87,-102
-63,-82,-19,73,-21,-51,156,258,161,-9,-87,-107
-63,-82,-19,73,-21,-51,170,278,170,-9,-87,-112
-63,-87,-24,75,-19,-56,175,302,185,0,-87,-112
-63,-87,-24,75,-19,-56,185,326,200,9,-87,-112
-63,-87,-24,75,-19,-56,195,356,219,14,-87,-117
-63,-92,-29,78,-17,-61,209,385,229,24,-82,-117
-63,-92,-29,78,-17,-61,219,409,248,29,-82,-122
-63,-92,-29,78,-17,-61,224,439,263,43,-82,-126
-63,-97,-34,80,-14,-65,239,478,283,53,-78,-126
-68,-102,-34,85,-17,-68,244,512,302,63,-78,-126
-58,-107,-48,82,-4,-78,253,551,322,73,-73,-131
-53,-107,-53,80,0,-80,263,595,336,82,-73,-131
-53,-102,-48,78,-2,-75,273,634,366,107,-73,-126
-53,-97,-43,75,-4,-70,278,678,390,122,-68,-126
-39,-92,-53,65,7,-73,287,732,414,141,-63,-126
-34,-92,-58,63,12,-75,292,785,439,151,-53,-126
-29,-92,-63,61,17,-78,292,819,463,180,-48,-117
-19,-82,-63,51,21,-73,292,858,488,200,-34,-107
-19,-78,-58,48,19,-68,292,897,507,224,-24,-102
-9,-63,-53,36,21,-58,292,927,517,244,-14,-92
0,-53,-53,26,26,-53,283,951,531,258,4,-82
4,-43,-48,19,26,-46,273,961,541,273,19,-73
4,-29,-34,12,19,-31,253,966,546,283,29,-58
14,-9,-24,-2,19,-17,239,951,551,292,39,-48
19,4,-14,-12,17,-4,219,927,536,297,48,-29
24,19,-4,-21,14,7,185,883,522,297,58,-19
29,39,9,-34,9,24,161,834,492,302,63,-4
29,58,29,-43,0,43,131,780,458,297,78,19
34,73,39,-53,-2,56,102,702,419,283,87,34
34,87,53,-61,-9,70,73,614,380,268,92,43
48,97,48,-73,0,73,53,541,336,244,97,58
58,107,48,-82,4,78,34,463,287,224,97,68
63,117,53,-90,4,85,14,380,244,204,97,73
63,117,53,-90,4,85,-4,302,190,185,97,73
58,117,58,-87,0,87,-24,239,161,161,87,68
58,117,58,-87,0,87,-34,190,131,136,87,63
53,102,48,-78,2,75,-39,136,102,117,82,63
53,102,48,-78,2,75,-48,92,73,97,68,58
48,102,53,-75,-2,78,-48,63,53,78,58,63
43,87,43,-65,0,65,-53,39,34,68,58,63
43,82,39,-63,2,61,-53,9,19,48,48,53
43,78,34,-61,4,56,-58,-9,4,39,48,43
39,73,34,-56,2,53,-58,-34,-9,24,39,43
43,68,24,-56,9,46,-58,-48,-19,9,34,43
39,68,29,-53,4,48,-58,-58,-29,0,34,39
34,68,34,-51,0,51,-58,-68,-34,-4,24,39
34,63,29,-48,2,46,-58,-78,-39,-9,19,29
34,58,24,-46,4,41,-58,-82,-48,-19,19,29
29,48,19,-39,4,34,-58,-82,-53,-19,14,24
29,48,19,-39,4,34,-53,-87,-53,-19,9,19
29,48,19,-39,4,34,-53,-87,-53,-24,4,14
29,43,14,-36,7,29,-53,-87,-58,-24,0,14
29,43,14,-36,7,29,-53,-97,-63,-24,0,9
29,39,9,-34,9,24,-53,-102,-63,-24,0,9
24,39,14,-31,4,26,-48,-97,-63,-29,0,9
24,39,14,-31,4,26,-48,-97,-58,-29,0,9
24,43,19,-34,2,31,-48,-97,-58,-34,0,4
24,43,19,-34,2,31,-48,-97,-58,-34,0,4
24,43,19,-34,2,31,-48,-97,-58,-34,0,4
19,39,19,-29,0,29,-43,-97,-58,-34,0,4
24,39,14,-31,4,26,-43,-97,-53,-34,0,4
29,43,14,-36,7,29,-39,-92,-48,-34,0,4
29,43,14,-36,7,29,-39,-92,-48,-34,0,0
24,39,14,-31,4,26,-39,-87,-43,-34,0,0
19,39,19,-29,0,29,-29,-87,-43,-34,-4,0
14,39,24,-26,-4,31,-29,-82,-43,-34,-4,0
14,39,24,-26,-4,31,-29,-87,-43,-34,-4,0
14,39,24,-26,-4,31,-24,-87,-39,-34,-4,0
9,39,29,-24,-9,34,-19,-87,-34,-34,-4,0
4,34,29,-19,-12,31,-14,-87,-34,-29,-4,0
0,34,34,-17,-17,34,-9,-82,-34,-29,0,-4
-4,34,39,-14,-21,36,-9,-82,-34,-29,0,-9
-4,34,39,-14,-21,36,-9,-78,-29,-29,-4,-9
-4,34,39,-14,-21,36,-9,-73,-24,-29,-4,-9
-4,34,39,-14,-21,36,-14,-73,-24,-24,-9,-9
-4,34,39,-14,-21,36,-14,-73,-24,-24,-14,-9
-4,34,39,-14,-21,36,-14,-68,-19,-19,-9,-9
-4,34,39,-14,-21,36,-14,-63,-14,-19,-9,-9
0,39,39,-19,-19,39,-14,-63,-14,-24,-9,-14
0,39,39,-19,-19,39,-14,-63,-14,-29,-4,-19
0,43,43,-21,-21,43,-14,-58,-9,-24,-4,-19
0,43,43,-21,-21,43,-9,-58,-9,-24,-4,-19
-4,43,48,-19,-26,46,-9,-53,-9,-19,-4,-19
-9,43,53,-17,-31,48,-14,-53,-4,-19,-4,-19
-9,43,53,-17,-31,48,-9,-53,-4,-19,-4,-19
-9,39,48,-14,-29,43,-4,-53,-4,-19,-4,-14
-9,39,48,-14,-29,43,-4,-53,-9,-19,-4,-14
-9,39,48,-14,-29,43,-4,-53,-9,-14,-4,-14
-14,34,48,-9,-31,41,-4,-53,-9,-14,-4,-14
-14,34,48,-9,-31,41,-4,-53,-9,-19,-4,-14
-14,34,48,-9,-31,41,-9,-53,-9,-19,-4,-14
-9,34,43,-12,-26,39,-9,-58,-9,-19,-4,-14
-9,34,43,-12,-26,39,-9,-58,-9,-19,-4,-14
-9,34,43,-12,-26,39,-14,-63,-14,-19,-4,-14
-9,34,43,-12,-26,39,-14,-63,-19,-19,-4,-9
-9,34,43,-12,-26,39,-14,-63,-19,-19,-4,-4
-9,34,43,-12,-26,39,-14,-68,-19,-24,-4,-9
-9,34,43,-12,-26,39,-14,-63,-19,-24,-4,-9
-9,34,43,-12,-26,39,-14,-68,-19,-29,-4,-9
-14,29,43,-7,-29,36,-19,-68,-24,-29,-4,-9
-14,29,43,-7,-29,36,-24,-78,-34,-34,-4,-9
-14,29,43,-7,-29,36,-24,-78,-39,-34,0,-9
-9,29,39,-9,-24,34,-29,-82,-43,-34,0,-9
-4,29,34,-12,-19,31,-39,-87,-43,-34,-4,-9
-4,29,34,-12,-19,31,-39,-92,-48,-39,-9,-14
-4,29,34,-12,-19,31,-39,-102,-48,-39,-14,-14
-9,29,39,-9,-24,34,-34,-102,-53,-43,-14,-14
-19,29,48,-4,-34,39,-29,-107,-53,-43,-14,-9
-9,29,39,-9,-24,34,-29,-107,-58,-43,-14,-9
-4,29,34,-12,-19,31,-29,-112,-58,-43,-19,-9
-4,29,34,-12,-19,31,-34,-117,-58,-43,-19,-14
-9,29,39,-9,-24,34,-34,-117,-63,-39,-14,-14
-14,29,43,-7,-29,36,-34,-112,-63,-39,-14,-9
-19,29,48,-4,-34,39,-34,-107,-68,-39,-19,-9
-19,24,43,-2,-31,34,-34,-112,-68,-43,-19,-14
-14,24,39,-4,-26,31,-34,-117,-73,-43,-19,-14
-9,24,34,-7,-21,29,-39,-122,-73,-43,-19,-14
-9,24,34,-7,-21,29,-39,-126,-78,-43,-19,-14
-9,24,34,-7,-21,29,-48,-126,-78,-53,-19,-14
-9,24,34,-7,-21,29,-53,-126,-78,-58,-19,-14
-9,24,34,-7,-21,29,-48,-122,-78,-58,-19,-14
-14,24,39,-4,-26,31,-48,-126,-78,-58,-19,-19
-19,24,43,-2,-31,34,-43,-126,-78,-58,-19,-19
-24,24,48,0,-36,36,-43,-126,-78,-58,-19,-19
-19,24,43,-2,-31,34,-39,-126,-78,-53,-14,-14
-19,24,43,-2,-31,34,-39,-126,-78,-48,-14,-9
-14,19,34,-2,-24,26,-43,-126,-78,-53,-14,-9
-9,19,29,-4,-19,24,-48,-126,-78,-58,-19,-9
-9,19,29,-4,-19,24,-48,-126,-78,-58,-19,-9
-9,19,29,-4,-19,24,-48,-126,-78,-58,-19,-9
-9,24,34,-7,-21,29,-43,-131,-78,-58,-19,-9
-9,29,39,-9,-24,34,-39,-136,-78,-58,-19,-9
-9,29,39,-9,-24,34,-39,-136,-82,-58,-19,-9
-9,29,39,-9,-24,34,-39,-136,-87,-58,-19,-9
-9,29,39,-9,-24,34,-43,-136,-87,-58,-19,-14
-9,29,39,-9,-24,34,-48,-136,-87,-58,-19,-19
-9,24,34,-7,-21,29,-48,-136,-87,-58,-19,-19
-9,19,29,-4,-19,24,-48,-136,-87,-58,-19,-19
-9,19,29,-4,-19,24,-48,-136,-87,-58,-19,-19
-9,19,29,-4,-19,24,-48,-136,-87,-58,-19,-19
-9,19,29,-4,-19,24,-48,-136,-87,-58,-19,-14
-9,19,29,-4,-19,24,-48,-136,-87,-58,-19,-9
-9,19,29,-4,-19,24,-48,-136,-87,-58,-19,-9
-9,19,29,-4,-19,24,-48,-136,-87,-58,-19,-9
-9,19,29,-4,-19,24,-48,-136,-87,-58,-19,-9
-9,19,29,-4,-19,24,-48,-136,-87,-58,-19,-9
-9,19,29,-4,-19,24,-48,-136,-87,-58,-19,-9
-9,19,29,-4,-19,24,-48,-136,-87,-58,-19,-9
-14,19,34,-2,-24,26,-48,-141,-87,-58,-19,-9
-19,19,39,0,-29,29,-48,-146,-87,-58,-19,-9
-19,19,39,0,-29,29,-53,-146,-87,-58,-24,-9
-19,19,39,0,-29,29,-58,-146,-87,-58,-29,-9
-19,24,43,-2,-31,34,-58,-146,-87,-58,-29,-9
-19,29,48,-4,-34,39,-58,-146,-87,-58,-29,-9
-19,29,48,-4,-34,39,-58,-141,-87,-58,-29,-9
-19,29,48,-4,-34,39,-58,-136,-87,-58,-29,-9
-19,29,48,-4,-34,39,-58,-136,-87,-58,-29,-9
-19,29,48,-4,-34,39,-58,-136,-87,-58,-29,-9
-19,29,48,-4,-34,39,-58,-141,-87,-58,-24,-9
-19,29,48,-4,-34,39,-58,-146,-87,-58,-19,-9
-19,29,48,-4,-34,39,-58,-146,-87,-58,-19,-9
-19,29,48,-4,-34,39,-58,-146,-87,-58,-19,-9
-19,29,48,-4,-34,39,-58,-146,-87,-58,-19,-9
-19,29,48,-4,-34,39,-58,-146,-87,-58,-19,-9
-14,29,43,-7,-29,36,-58,-141,-87,-58,-19,-9
-9,29,39,-9,-24,34,-58,-136,-87,-58,-19,-9
-9,29,39,-9,-24,34,-58,-136,-87,-58,-19,-9
-9,29,39,-9,-24,34,-58,-136,-87,-58,-19,-9
-14,29,43,-7,-29,36,-58,-141,-87,-58,-19,-14
-19,29,48,-4,-34,39,-58,-146,-87,-58,-19,-19
-19,29,48,-4,-34,39,-58,-146,-87,-58,-19,-19
-19,29,48,-4,-34,39,-58,-146,-87,-58,-19,-19
-19,29,48,-4,-34,39,-58,-146,-87,-58,-19,-19
-19,29,48,-4,-34,39,-58,-146,-87,-58,-19,-19
-14,34,48,-9,-31,41,-58,-146,-92,-63,-19,-19
-9,39,48,-14,-29,43,-58,-146,-97,-68,-19,-19
-9,39,48,-14,-29,43,-58,-146,-97,-68,-19,-19
-9,39,48,-14,-29,43,-58,-146,-97,-68,-19,-19
-14,34,48,-9,-31,41,-58,-146,-92,-68,-19,-14
-19,29,48,-4,-34,39,-58,-146,-87,-68,-19,-9
-19,29,48,-4,-34,39,-58,-146,-87,-63,-19,-9
-19,29,48,-4,-34,39,-58,-146,-87,-58,-19,-9
-19,29,48,-4,-34,39,-58,-146,-87,-58,-19,-9
-19,29,48,-4,-34,39,-58,-146,-87,-58,-19,-9
-19,24,43,-2,-31,34,-58,-146,-87,-58,-19,-14
-19,19,39,0,-29,29,-58,-146,-87,-58,-19,-19
-19,19,39,0,-29,29,-58,-146,-87,-58,-19,-19
-19,19,39,0,-29,29,-58,-146,-87,-58,-19,-19
-19,24,43,-2,-31,34,-58,-146,-87,-58,-19,-14
-19,29,48,-4,-34,39,-58,-146,-87,-58,-19,-9
-19,29,48,-4,-34,39,-58,-146,-87,-58,-19,-9
-19,29,48,-4,-34,39,-58,-146,-87,-58,-19,-9
-19,34,53,-7,-36,43,-53,-141,-82,-53,-14,-9
-19,39,58,-9,-39,48,-48,-136,-78,-48,-9,-9
-9,58,68,-24,-39,63,-39,-126,-68,-39,-4,-4
0,78,78,-39,-39,78,-29,-117,-58,-29,0,0
4,82,78,-43,-36,80,-29,-107,-48,-24,9,9
9,87,78,-48,-34,82,-29,-97,-39,-19,19,19
9,92,82,-51,-36,87,-14,-92,-34,-19,19,19
9,97,87,-53,-39,92,0,-87,-29,-19,19,19
14,102,87,-58,-36,95,0,-78,-24,-14,24,19
19,107,87,-63,-34,97,0,-68,-19,-9,29,19
29,112,82,-70,-26,97,-4,-68,-14,-4,29,24
39,117,78,-78,-19,97,-9,-68,-9,0,29,29
39,126,87,-82,-24,107,-14,-68,0,9,39,39
39,136,97,-87,-29,117,-19,-68,9,19,48,48
39,136,97,-87,-29,117,-39,-87,-9,9,48,48
39,136,97,-87,-29,117,-58,-107,-29,0,48,48
39,131,92,-85,-26,112,-73,-117,-39,-4,43,48
39,126,87,-82,-24,107,-78,-122,-43,-9,39,48
39,126,87,-82,-24,107,-87,-126,-48,-14,39,48
48,141,92,-95,-21,117,-92,-126,-48,-14,39,58
48,141,92,-95,-21,117,-97,-126,-48,-9,48,58
43,136,92,-90,-24,114,-97,-131,-53,-9,48,58
43,122,78,-82,-17,100,-97,-141,-73,-24,34,48
34,97,63,-65,-14,80,-87,-141,-87,-34,19,34
24,82,58,-53,-17,70,-82,-146,-92,-43,9,24
4,58,53,-31,-24,56,-73,-146,-92,-48,-4,14
-14,48,63,-17,-39,56,-68,-146,-87,-48,-4,9
-19,43,63,-12,-41,53,-63,-146,-82,-53,-4,4
-24,29,53,-2,-39,41,-63,-151,-87,-63,-19,0
-24,24,48,0,-36,36,-58,-151,-87,-63,-24,-4
-29,14,43,7,-36,29,-58,-151,-97,-73,-24,-9
-34,4,39,14,-36,21,-63,-165,-102,-78,-34,-9
-39,0,39,19,-39,19,-63,-165,-107,-82,-34,-24
-39,0,39,19,-39,19,-63,-165,-107,-82,-34,-29
-39,0,39,19,-39,19,-63,-165,-107,-82,-34,-29
-34,0,34,17,-34,17,-63,-165,-107,-82,-39,-34
-34,-4,29,19,-31,12,-63,-170,-107,-82,-39,-39
-29,-4,24,17,-26,9,-58,-175,-107,-87,-43,-39
-29,-9,19,19,-24,4,-53,-175,-107,-87,-43,-29
-29,-14,14,21,-21,0,-53,-175,-107,-82,-43,-19
-29,-14,14,21,-21,0,-58,-175,-112,-78,-39,-19
-29,-19,9,24,-19,-4,-63,-170,-112,-73,-29,-19
-34,-14,19,24,-26,2,-58,-165,-107,-73,-29,-19
-39,-9,29,24,-34,9,-58,-161,-107,-73,-29,-19
-39,-4,34,21,-36,14,-58,-161,-107,-73,-34,-24
-39,-4,34,21,-36,14,-58,-161,-107,-73,-34,-29
-39,-4,34,21,-36,14,-58,-165,-107,-73,-34,-29
-39,-4,34,21,-36,14,-58,-170,-107,-73,-39,-29
-34,-4,29,19,-31,12,-58,-165,-107,-73,-39,-29
-29,0,29,14,-29,14,-58,-165,-102,-73,-39,-29
-29,0,29,14,-29,14,-58,-161,-102,-73,-39,-24
-39,-4,34,21,-36,14,-48,-165,-102,-82,-53,-34
-87,-9,78,48,-82,34,-4,-200,-92,-97,-63,-43
-185,-24,161,104,-173,68,82,-253,-78,-151,-97,-87
-263,-68,195,165,-229,63,190,-273,-78,-244,-170,-156
-278,-102,175,190,-226,36,278,-224,-53,-244,-200,-204
-248,-53,195,151,-222,70,322,-82,68,-117,-112,-170
-156,78,234,39,-195,156,346,219,312,146,73,-68
4,297,292,-151,-143,295,317,380,483,429,302,92
273,566,292,-419,-9,429,195,463,580,756,580,326
570,771,200,-671,185,485,9,570,610,1010,810,546
785,878,92,-832,346,485,-263,390,409,1044,907,727
732,814,82,-773,324,448,-522,-53,146,785,844,834
575,600,24,-588,275,312,-736,-502,-136,536,756,897
639,-19,-658,-309,649,-339,-936,-683,-668,34,356,707
600,-527,-1127,-36,863,-827,-1088,-1171,-1244,-541,-122,395
370,-873,-1244,251,807,-1058,-1015,-1542,-1551,-995,-468,82
68,-902,-971,417,519,-936,-775,-1542,-1507,-1073,-575,-87
-78,-732,-653,405,287,-692,-536,-1195,-1171,-844,-463,-107
-122,-527,-405,324,141,-466,-297,-722,-717,-551,-322,-107
-112,-424,-312,268,100,-368,-131,-409,-434,-380,-273,-131
-92,-292,-200,192,53,-246,-73,-239,-263,-244,-190,-131
-63,-195,-131,129,34,-163,-39,-122,-156,-156,-126,-117
-53,-165,-112,109,29,-139,14,-53,-92,-126,-112,-92
-48,-122,-73,85,12,-97,43,-4,-39,-87,-92,-73
-43,-73,-29,58,-7,-51,43,4,-19,-68,-63,-48
-43,-58,-14,51,-14,-36,43,4,-19,-58,-53,-53
-48,-68,-19,58,-14,-43,48,4,-19,-58,-68,-63
-48,-68,-19,58,-14,-43,53,19,-4,-58,-68,-58
-48,-58,-9,53,-19,-34,53,24,0,-48,-68,-58
-43,-43,0,43,-21,-21,53,24,4,-48,-58,-58
-43,-43,0,43,-21,-21,48,24,4,-48,-58,-63
-43,-43,0,43,-21,-21,48,24,4,-48,-58,-63
-39,-43,-4,41,-17,-24,53,29,9,-48,-58,-63
-43,-39,4,41,-24,-17,53,29,14,-43,-58,-63
-48,-39,9,43,-29,-14,53,39,14,-43,-58,-63
-48,-43,4,46,-26,-19,53,39,14,-43,-58,-63
-48,-48,0,48,-24,-24,53,39,14,-43,-58,-68
-48,-48,0,48,-24,-24,53,39,14,-48,-58,-68
-43,-48,-4,46,-19,-26,58,43,14,-53,-63,-68
-43,-43,0,43,-21,-21,53,43,19,-53,-63,-68
-43,-39,4,41,-24,-17,48,43,29,-48,-63,-68
-43,-39,4,41,-24,-17,48,43,29,-48,-63,-68
-48,-43,4,46,-26,-19,48,43,29,-53,-63,-68
-53,-43,9,48,-31,-17,58,48,29,-53,-63,-68
-58,-43,14,51,-36,-14,63,53,29,-53,-63,-68
-58,-48,9,53,-34,-19,63,58,29,-48,-58,-68
-58,-53,4,56,-31,-24,63,63,34,-48,-58,-68
-58,-53,4,56,-31,-24,68,63,39,-43,-58,-68
-58,-53,4,56,-31,-24,73,68,43,-39,-63,-68
-58,-53,4,56,-31,-24,73,73,48,-39,-58,-73
-63,-53,9,58,-36,-21,73,78,48,-39,-58,-73
-63,-53,9,58,-36,-21,78,82,48,-34,-58,-73
-58,-53,4,56,-31,-24,78,82,53,-34,-58,-73
-58,-58,0,58,-29,-29,78,92,58,-39,-63,-73
-58,-63,-4,61,-26,-34,87,97,58,-39,-68,-73
-58,-63,-4,61,-26,-34,87,97,58,-34,-68,-78
-58,-63,-4,61,-26,-34,92,107,63,-29,-68,-82
-58,-63,-4,61,-26,-34,92,112,63,-29,-68,-82
-58,-63,-4,61,-26,-34,97,122,73,-29,-68,-87
-63,-63,0,63,-31,-31,102,126,78,-24,-73,-87
-68,-63,4,65,-36,-29,107,131,78,-24,-73,-92
-68,-63,4,65,-36,-29,112,136,82,-24,-73,-92
-68,-63,4,65,-36,-29,112,146,87,-24,-78,-92
-68,-68,0,68,-34,-34,112,156,97,-24,-78,-92
-68,-68,0,68,-34,-34,112,170,102,-29,-78,-97
-78,-73,4,75,-41,-34,122,180,112,-29,-82,-97
-82,-78,4,80,-43,-36,126,190,122,-24,-82,-102
-82,-78,4,80,-43,-36,141,204,131,-19,-82,-102
-82,-78,4,80,-43,-36,146,224,141,-9,-78,-102
-82,-82,0,82,-41,-41,156,239,146,-9,-78,-102
-82,-82,0,82,-41,-41,161,263,156,-9,-78,-102
-82,-82,0,82,-41,-41,165,278,170,0,-78,-107
-82,-82,0,82,-41,-41,180,297,180,0,-78,-112
-82,-87,-4,85,-39,-46,185,322,195,9,-78,-112
-82,-87,-4,85,-39,-46,195,346,209,19,-78,-112
-78,-87,-9,82,-34,-48,200,375,229,29,-82,-117
-73,-92,-19,82,-26,-56,209,405,239,43,-82,-117
-73,-92,-19,82,-26,-56,219,434,258,48,-82,-117
-73,-92,-19,82,-26,-56,224,468,273,63,-82,-117
-68,-92,-24,80,-21,-58,239,507,287,73,-78,-117
-68,-92,-24,80,-21,-58,244,541,302,82,-78,-117
-58,-97,-39,78,-9,-68,253,580,322,92,-73,-122
-53,-97,-43,75,-4,-70,263,624,336,102,-73,-122
-53,-97,-43,75,-4,-70,273,658,361,117,-73,-117
-53,-97,-43,75,-4,-70,278,697,380,122,-68,-117
-39,-92,-53,65,7,-73,283,746,395,141,-63,-117
-34,-92,-58,63,12,-75,283,795,409,151,-53,-117
-29,-92,-63,61,17,-78,278,829,429,175,-48,-107
-19,-82,-63,51,21,-73,273,868,448,190,-34,-97
-14,-82,-68,48,26,-75,268,897,468,214,-29,-92
0,-73,-73,36,36,-73,263,917,478,234,-24,-82
9,-63,-73,26,41,-68,253,936,488,244,-9,-73
14,-53,-68,19,41,-61,244,941,492,253,0,-63
19,-39,-58,9,39,-48,224,941,492,263,9,-48
34,-19,-53,-7,43,-36,209,922,492,273,19,-39
39,-9,-48,-14,43,-29,195,893,478,278,34,-19
43,0,-43,-21,43,-21,165,844,463,278,48,-9
48,19,-29,-34,39,-4,141,790,434,278,53,0
48,39,-9,-43,29,14,112,732,400,268,68,19
53,53,0,-53,26,26,87,653,361,258,78,34
53,68,14,-61,19,41,63,566,322,248,82,43
63,78,14,-70,24,46,43,497,287,224,87,53
68,87,19,-78,24,53,24,424,248,204,87,58
68,97,29,-82,19,63,9,351,214,185,87,63
63,97,34,-80,14,65,-4,283,170,165,87,63
58,102,43,-80,7,73,-19,224,141,141,78,63
58,107,48,-82,4,78,-24,180,112,117,78,63
53,92,39,-73,7,65,-29,126,92,102,73,63
53,92,39,-73,7,65,-39,82,73,87,58,58
48,97,48,-73,0,73,-39,53,53,73,53,58
43,87,43,-65,0,65,-43,29,34,68,58,53
39,82,43,-61,-2,63,-43,4,24,48,48,48
34,78,43,-56,-4,61,-48,-9,14,39,48,43
24,73,48,-48,-12,61,-48,-29,4,29,39,43
24,68,43,-46,-9,56,-48,-39,0,19,34,43
19,68,48,-43,-14,58,-48,-48,-14,9,34,39
14,68,53,-41,-19,61,-48,-58,-24,4,24,39
14,63,48,-39,-17,56,-48,-73,-24,0,19,29
14,58,43,-36,-14,51,-48,-82,-29,-9,19,29
14,48,34,-31,-9,41,-48,-82,-34,-9,14,29
19,48,29,-34,-4,39,-43,-87,-34,-9,9,29
19,48,29,-34,-4,39,-39,-87,-29,-14,9,24
19,43,24,-31,-2,34,-34,-87,-29,-14,9,24
14,43,29,-29,-7,36,-34,-87,-34,-14,9,19
9,39,29,-24,-9,34,-34,-82,-34,-14,9,19
4,34,29,-19,-12,31,-29,-78,-34,-19,4,19
4,29,24,-17,-9,26,-29,-78,-29,-19,0,19
9,34,24,-21,-7,29,-29,-82,-29,-24,0,14
14,34,19,-24,-2,26,-29,-87,-29,-24,0,14
19,34,14,-26,2,24,-29,-87,-29,-24,0,14
19,29,9,-24,4,19,-24,-87,-29,-24,0,14
19,29,9,-24,4,19,-24,-82,-24,-24,0,14
19,34,14,-26,2,24,-19,-73,-19,-24,0,14
14,34,19,-24,-2,26,-19,-73,-19,-24,0,9
4,29,24,-17,-9,26,-19,-68,-14,-24,0,9
4,24,19,-14,-7,21,-9,-68,-14,-24,-4,9
4,19,14,-12,-4,17,-9,-63,-14,-24,-4,9
4,19,14,-12,-4,17,-9,-63,-14,-19,-4,4
4,19,14,-12,-4,17,-4,-58,-9,-14,-4,0
0,19,19,-9,-9,19,-4,-58,-4,-14,-4,0
-4,14,19,-4,-12,17,-4,-58,-4,-9,-4,0
-4,14,19,-4,-12,17,0,-53,-4,-14,0,4
-4,14,19,-4,-12,17,0,-53,-4,-19,0,9
-4,14,19,-4,-12,17,0,-48,0,-19,-4,0
-4,14,19,-4,-12,17,0,-43,4,-19,-4,-9
-9,14,24,-2,-17,19,0,-43,4,-14,-4,-9
-14,14,29,0,-21,21,4,-43,4,-14,-4,-9
-14,14,29,0,-21,21,4,-34,14,-4,0,-4
-14,14,29,0,-21,21,4,-24,24,0,0,0
-14,14,29,0,-21,21,4,-24,24,0,0,0
-19,9,29,4,-24,19,4,-24,24,0,4,0
-19,9,29,4,-24,19,4,-19,29,4,4,0
-19,4,24,7,-21,14,9,-19,29,4,4,0
-14,9,24,2,-19,17,9,-14,24,9,4,0
-9,14,24,-2,-17,19,4,-14,24,9,4,0
-9,19,29,-4,-19,24,4,-14,24,9,4,0
-9,19,29,-4,-19,24,4,-14,24,9,4,4
-9,19,29,-4,-19,24,4,-14,19,9,4,4
-9,19,29,-4,-19,24,4,-14,19,14,4,4
-14,14,29,0,-21,21,4,-19,14,14,4,4
-14,14,29,0,-21,21,4,-24,9,9,4,4
-14,14,29,0,-21,21,0,-24,9,9,4,4
-9,14,24,-2,-17,19,0,-29,9,9,4,4
-9,14,24,-2,-17,19,0,-29,14,9,4,4
-9,14,24,-2,-17,19,-4,-34,14,9,4,4
-9,9,19,0,-14,14,-4,-34,9,4,4,4
-9,4,14,2,-12,9,-4,-34,9,0,4,4
-9,4,14,2,-12,9,-4,-43,4,-4,4,0
-9,4,14,2,-12,9,-4,-43,0,-4,4,0
-9,9,19,0,-14,14,-4,-48,0,-9,4,0
-14,9,24,2,-19,17,-9,-48,-4,-9,4,0
-14,9,24,2,-19,17,-14,-58,-9,-14,4,0
-14,9,24,2,-19,17,-14,-58,-9,-14,9,0
-14,9,24,2,-19,17,-14,-63,-14,-14,9,0
-14,9,24,2,-19,17,-19,-68,-14,-14,4,0
-14,9,24,2,-19,17,-19,-68,-19,-14,0,-4
-14,9,24,2,-19,17,-19,-73,-19,-9,-4,-4
-9,4,14,2,-12,9,-14,-73,-24,-14,-4,-4
-9,0,9,4,-9,4,-9,-78,-24,-14,-4,0
-9,0,9,4,-9,4,-9,-78,-29,-14,-4,0
-14,0,14,7,-14,7,-9,-82,-29,-14,-9,0
-14,0,14,7,-14,7,-14,-87,-24,-19,-9,-4
-19,0,19,9,-19,9,-14,-87,-24,-19,-4,-4
-19,-4,14,12,-17,4,-19,-82,-24,-19,-4,0
-19,-9,9,14,-14,0,-24,-78,-29,-19,-9,0
-19,-14,4,17,-12,-4,-24,-82,-29,-24,-9,-4
-14,-14,0,14,-7,-7,-24,-87,-34,-24,-9,-4
-9,-14,-4,12,-2,-9,-24,-87,-34,-24,-9,-4
-9,-14,-4,12,-2,-9,-19,-87,-39,-24,-9,-4
-9,-14,-4,12,-2,-9,-24,-87,-39,-24,-4,-4
-9,-14,-4,12,-2,-9,-24,-87,-39,-19,0,-4
-9,-14,-4,12,-2,-9,-19,-87,-39,-19,0,0
-14,-14,0,14,-7,-7,-19,-97,-39,-19,0,0
-14,-14,0,14,-7,-7,-14,-97,-39,-19,0,0
-14,-14,0,14,-7,-7,-14,-97,-39,-19,0,0
-4,-9,-4,7,0,-7,-14,-97,-39,-24,-4,-4
0,-4,-4,2,2,-4,-19,-97,-39,-29,-14,-9
-4,-4,0,4,-2,-2,-24,-97,-39,-29,-9,-9
-9,-9,0,9,-4,-4,-29,-97,-39,-29,-9,-9
-9,-9,0,9,-4,-4,-24,-97,-39,-29,-9,-9
-9,-9,0,9,-4,-4,-19,-97,-39,-29,-9,-9
-14,-9,4,12,-9,-2,-19,-97,-39,-29,-9,-9
-19,-9,9,14,-14,0,-19,-97,-39,-29,-9,-9
-19,-9,9,14,-14,0,-19,-97,-39,-29,-9,-9
-19,-9,9,14,-14,0,-19,-97,-39,-29,-9,-9
-19,-9,9,14,-14,0,-19,-97,-39,-29,-9,-9
-19,-9,9,14,-14,0,-19,-97,-39,-29,-9,-9
-19,-9,9,14,-14,0,-19,-97,-43,-29,-4,-9
-19,-9,9,14,-14,0,-19,-97,-48,-29,0,-9
-19,-9,9,14,-14,0,-19,-97,-48,-29,0,-9
-19,-9,9,14,-14,0,-19,-97,-48,-29,0,-9
-19,-9,9,14,-14,0,-19,-97,-48,-29,0,-4
-19,-9,9,14,-14,0,-19,-97,-48,-29,0,0
-19,-9,9,14,-14,0,-24,-102,-48,-29,0,0
-19,-9,9,14,-14,0,-29,-107,-48,-29,0,0
-14,-9,4,12,-9,-2,-29,-107,-48,-29,0,-4
-9,-9,0,9,-4,-4,-29,-107,-48,-29,0,-9
-9,-9,0,9,-4,-4,-29,-107,-48,-29,-4,-9
-9,-9,0,9,-4,-4,-29,-107,-48,-29,-9,-9
-9,-9,0,9,-4,-4,-24,-107,-48,-29,-9,-9
-9,-9,0,9,-4,-4,-19,-107,-48,-29,-9,-9
-9,-9,0,9,-4,-4,-19,-107,-48,-29,-9,-9
-9,-9,0,9,-4,-4,-19,-107,-48,-29,-9,-9
-9,-9,0,9,-4,-4,-24,-107,-48,-29,-9,-9
-9,-9,0,9,-4,-4,-29,-107,-48,-29,-9,-9
-9,-9,0,9,-4,-4,-29,-107,-48,-29,-9,-9
-9,-9,0,9,-4,-4,-29,-107,-48,-29,-9,-9
-9,-9,0,9,-4,-4,-29,-107,-48,-29,-9,-4
-9,-9,0,9,-4,-4,-29,-107,-48,-29,-9,0
-9,-9,0,9,-4,-4,-29,-107,-48,-29,-4,0
-9,-9,0,9,-4,-4,-29,-107,-48,-29,0,0
-9,-9,0,9,-4,-4,-29,-107,-48,-29,0,-4
-9,-9,0,9,-4,-4,-29,-107,-48,-29,0,-9
-9,-9,0,9,-4,-4,-24,-107,-48,-29,0,-9
-9,-9,0,9,-4,-4,-19,-107,-48,-29,0,-9
-9,-9,0,9,-4,-4,-19,-107,-48,-29,0,-9
-9,-9,0,9,-4,-4,-19,-107,-48,-29,0,-9
-9,-9,0,9,-4,-4,-19,-107,-48,-29,0,-9
-9,-9,0,9,-4,-4,-19,-107,-48,-29,0,-9
-9,-9,0,9,-4,-4,-24,-107,-48,-29,0,-9
-9,-9,0,9,-4,-4,-29,-107,-48,-29,0,-9
-9,-9,0,9,-4,-4,-29,-107,-48,-29,0,-9
-9,-9,0,9,-4,-4,-29,-107,-48,-29,0,-9
-9,-9,0,9,-4,-4,-29,-107,-48,-29,0,-9
-9,-9,0,9,-4,-4,-29,-107,-48,-29,0,-9
-9,-9,0,9,-4,-4,-29,-107,-53,-29,0,-9
-9,-9,0,9,-4,-4,-29,-107,-58,-29,0,-9
-9,-9,0,9,-4,-4,-24,-107,-58,-29,0,-9
-9,-9,0,9,-4,-4,-19,-107,-58,-29,0,-9
-9,-9,0,9,-4,-4,-19,-107,-58,-29,0,-9
-9,-9,0,9,-4,-4,-19,-107,-58,-29,0,-9
-9,-9,0,9,-4,-4,-24,-107,-58,-29,-4,-9
-9,-9,0,9,-4,-4,-29,-107,-58,-29,-9,-9
-9,-9,0,9,-4,-4,-29,-107,-58,-29,-9,-9
-9,-9,0,9,-4,-4,-29,-107,-58,-29,-9,-9
-14,-9,4,12,-9,-2,-29,-107,-58,-29,-4,-4
-19,-9,9,14,-14,0,-29,-107,-58,-29,0,0
-19,-9,9,14,-14,0,-29,-107,-58,-29,0,0
-19,-9,9,14,-14,0,-29,-107,-58,-29,0,0
-9,-4,4,7,-7,0,-24,-107,-58,-29,0,0
0,0,0,0,0,0,-19,-107,-58,-29,0,0
4,9,4,-7,0,7,-14,-102,-48,-19,9,0
9,19,9,-14,0,14,-9,-97,-39,-9,19,0
9,29,19,-19,-4,24,-4,-87,-29,0,24,4
9,39,29,-24,-9,34,0,-78,-19,9,29,9
9,39,29,-24,-9,34,14,-68,-9,9,29,14
9,39,29,-24,-9,34,29,-58,0,9,29,19
9,43,34,-26,-12,39,29,-48,4,19,34,19
9,48,39,-29,-14,43,29,-39,9,29,39,19
19,53,34,-36,-7,43,19,-39,9,29,39,19
29,58,29,-43,0,43,9,-39,9,29,39,19
29,73,43,-51,-7,58,4,-43,9,29,43,29
29,87,58,-58,-14,73,0,-48,9,29,48,39
29,87,58,-58,-14,73,-14,-68,4,29,48,39
29,87,58,-58,-14,73,-29,-87,0,29,48,39
29,87,58,-58,-14,73,-48,-97,-14,19,48,39
29,82,53,-56,-12,68,-58,-102,-19,14,48,39
29,82,53,-56,-12,68,-68,-107,-29,9,48,43
39,92,53,-65,-7,73,-73,-107,-29,14,48,58
39,97,58,-68,-9,78,-78,-107,-29,19,58,58
34,97,63,-65,-14,80,-78,-112,-34,19,58,58
34,82,48,-58,-7,65,-78,-122,-48,4,48,53
24,58,34,-41,-4,46,-68,-122,-58,-4,39,43
14,39,24,-26,-4,31,-63,-126,-63,-14,24,29
-4,9,14,-2,-9,12,-53,-126,-63,-19,4,14
-24,0,24,12,-24,12,-48,-122,-63,-19,4,9
-29,-4,24,17,-26,9,-43,-117,-63,-24,4,4
-34,-14,19,24,-26,2,-43,-122,-68,-34,-9,-4
-34,-14,19,24,-26,2,-39,-122,-68,-34,-14,-14
-39,-24,14,31,-26,-4,-39,-122,-78,-43,-14,-19
-43,-34,9,39,-26,-12,-43,-136,-82,-48,-24,-19
-48,-43,4,46,-26,-19,-43,-136,-87,-53,-24,-29
-48,-48,0,48,-24,-24,-43,-136,-87,-53,-24,-29
-43,-48,-4,46,-19,-26,-43,-141,-87,-58,-24,-24
-34,-48,-14,41,-9,-31,-43,-146,-87,-63,-29,-24
-34,-53,-19,43,-7,-36,-48,-146,-92,-63,-29,-29
-29,-53,-24,41,-2,-39,-48,-146,-97,-68,-34,-29
-34,-53,-19,43,-7,-36,-43,-146,-97,-63,-34,-29
-39,-53,-14,46,-12,-34,-43,-146,-97,-53,-34,-29
-39,-53,-14,46,-12,-34,-43,-146,-102,-53,-34,-29
-39,-58,-19,48,-9,-39,-43,-141,-102,-53,-29,-29
-43,-58,-14,51,-14,-36,-39,-141,-97,-58,-29,-29
-48,-58,-9,53,-19,-34,-39,-141,-97,-63,-29,-29
-48,-58,-9,53,-19,-34,-39,-141,-97,-63,-29,-29
-48,-63,-14,56,-17,-39,-39,-141,-97,-63,-24,-29
-48,-63,-14,56,-17,-39,-39,-141,-97,-63,-19,-29
-48,-63,-14,56,-17,-39,-39,-141,-97,-63,-19,-29
-39,-58,-19,48,-9,-39,-43,-136,-97,-63,-24,-29
-29,-48,-19,39,-4,-34,-48,-136,-92,-63,-29,-29
-29,-48,-19,39,-4,-34,-48,-136,-92,-63,-29,-29
-39,-53,-14,46,-12,-34,-39,-146,-92,-73,-43,-43
-82,-58,24,70,-53,-17,4,-175,-92,-102,-63,-63
-175,-73,102,124,-139,14,92,-224,-87,-170,-107,-117
-253,-126,126,190,-190,0,200,-244,-87,-268,-190,-190
-268,-170,97,219,-183,-36,287,-195,-63,-273,-229,-244
-248,-122,126,185,-187,2,331,-68,53,-146,-141,-209
-165,9,175,78,-170,92,356,219,292,117,43,-107
-24,234,258,-104,-141,246,331,385,468,414,287,58
224,507,283,-366,-29,395,214,473,570,756,580,297
512,732,219,-622,146,475,48,610,649,1068,858,546
717,858,141,-788,287,500,-204,458,497,1161,1005,756
692,814,122,-753,285,468,-468,-4,263,951,971,912
566,619,53,-592,256,336,-688,-473,9,751,912,1024
639,24,-614,-331,627,-295,-888,-634,-541,234,522,849
610,-458,-1068,-75,839,-763,-1039,-1102,-1137,-356,53,551
380,-849,-1229,234,805,-1039,-980,-1498,-1507,-897,-361,185
78,-922,-1000,422,539,-961,-756,-1522,-1527,-1063,-536,-39
-73,-775,-702,424,314,-739,-527,-1180,-1195,-839,-448,-82
-122,-595,-473,358,175,-534,-297,-712,-746,-551,-331,-107
-112,-488,-375,300,131,-431,-131,-400,-453,-380,-283,-141
-92,-351,-258,222,82,-305,-73,-229,-273,-244,-200,-151
-73,-253,-180,163,53,-217,-39,-117,-165,-156,-136,-136
-73,-224,-151,148,39,-187,14,-53,-102,-126,-122,-112
-68,-175,-107,122,19,-141,43,-4,-43,-87,-102,-102
-63,-122,-58,92,-2,-90,43,4,-19,-68,-73,-87
-58,-107,-48,82,-4,-78,43,4,-19,-58,-58,-82
-58,-117,-58,87,0,-87,48,4,-19,-58,-68,-82
-53,-112,-58,82,2,-85,53,24,-4,-58,-68,-73
-48,-97,-48,73,0,-73,53,34,0,-48,-68,-68
-43,-82,-39,63,-2,-61,53,34,4,-48,-58,-68
-43,-82,-39,63,-2,-61,48,34,4,-48,-58,-73
-48,-87,-39,68,-4,-63,48,34,0,-48,-58,-73
-48,-92,-43,70,-2,-68,53,39,0,-48,-58,-73
-48,-87,-39,68,-4,-63,53,34,4,-43,-58,-73
-48,-87,-39,68,-4,-63,53,39,4,-43,-58,-73
-53,-87,-34,70,-9,-61,53,39,9,-39,-58,-73
-58,-87,-29,73,-14,-58,53,39,14,-34,-58,-78
-63,-87,-24,75,-19,-56,53,39,14,-34,-58,-78
-63,-87,-24,75,-19,-56,58,43,14,-34,-63,-78
-63,-87,-24,75,-19,-56,58,43,14,-34,-63,-78
-63,-87,-24,75,-19,-56,58,43,19,-29,-63,-78
-58,-82,-24,70,-17,-53,58,43,19,-29,-63,-78
-58,-82,-24,70,-17,-53,58,43,19,-34,-63,-78
-58,-82,-24,70,-17,-53,63,48,24,-34,-63,-78
-58,-82,-24,70,-17,-53,63,53,29,-34,-63,-78
-63,-87,-24,75,-19,-56,63,53,29,-29,-58,-78
-68,-92,-24,80,-21,-58,63,53,34,-29,-58,-78
-68,-92,-24,80,-21,-58,68,53,39,-34,-58,-78
-68,-92,-24,80,-21,-58,73,58,43,-39,-63,-78
-63,-92,-29,78,-17,-61,73,63,43,-39,-63,-82
-63,-92,-29,78,-17,-61,73,68,39,-39,-68,-82
-68,-92,-24,80,-21,-58,78,73,39,-34,-68,-82
-68,-92,-24,80,-21,-58,78,73,43,-34,-68,-82
-68,-92,-24,80,-21,-58,78,82,48,-39,-68,-82
-68,-92,-24,80,-21,-58,87,87,48,-39,-68,-82
-68,-92,-24,80,-21,-58,87,82,48,-39,-68,-87
-68,-92,-24,80,-21,-58,92,87,53,-39,-68,-92
-68,-97,-29,82,-19,-63,92,92,53,-39,-68,-92
-68,-102,-34,85,-17,-68,97,102,63,-39,-68,-97
-73,-102,-29,87,-21,-65,102,107,68,-34,-73,-97
-78,-102,-24,90,-26,-63,107,112,68,-34,-73,-102
-78,-102,-24,90,-26,-63,112,117,73,-34,-73,-102
-78,-102,-24,90,-26,-63,112,126,78,-34,-78,-102
-78,-107,-29,92,-24,-68,117,136,87,-29,-78,-102
-78,-107,-29,92,-24,-68,122,151,92,-29,-78,-107
-82,-112,-29,97,-26,-70,126,161,97,-29,-82,-107
-82,-117,-34,100,-24,-75,126,170,102,-24,-82,-112
-78,-117,-39,97,-19,-78,136,185,112,-19,-82,-112
-73,-117,-43,95,-14,-80,136,204,122,-9,-78,-112
-73,-117,-43,95,-14,-80,146,219,131,-9,-78,-112
-73,-112,-39,92,-17,-75,151,244,146,-9,-78,-112
-73,-112,-39,92,-17,-75,156,258,161,0,-78,-117
-73,-112,-39,92,-17,-75,170,278,170,0,-78,-122
-73,-117,-43,95,-14,-80,175,302,180,9,-78,-122
-73,-117,-43,95,-14,-80,185,326,190,19,-78,-122
-73,-117,-43,95,-14,-80,190,356,209,24,-82,-126
-73,-122,-48,97,-12,-85,200,385,219,34,-82,-126
-73,-126,-53,100,-9,-90,209,414,239,39,-82,-126
-73,-131,-58,102,-7,-95,214,448,253,53,-82,-126
-68,-131,-63,100,-2,-97,229,488,273,68,-78,-126
-68,-131,-63,100,-2,-97,234,522,292,82,-78,-126
-58,-136,-78,97,9,-107,244,561,312,92,-73,-126
-53,-136,-82,95,14,-109,253,605,326,102,-73,-122
-58,-136,-78,97,9,-107,263,644,351,126,-73,-117
-63,-136,-73,100,4,-104,268,688,370,141,-68,-117
-48,-131,-82,90,17,-107,273,732,390,161,-63,-117
-43,-131,-87,87,21,-109,273,775,409,170,-53,-117
-34,-131,-97,82,31,-114,273,810,429,195,-48,-107
-19,-122,-102,70,41,-112,273,849,448,209,-34,-97
-19,-112,-92,65,36,-102,268,883,473,234,-19,-92
-9,-92,-82,51,36,-87,263,907,488,253,-4,-82
0,-82,-82,41,41,-82,253,932,497,268,9,-73
4,-73,-78,34,41,-75,244,941,502,283,19,-63
14,-58,-73,21,43,-65,219,941,502,292,29,-48
34,-39,-73,2,53,-56,200,922,502,302,39,-39
39,-24,-63,-7,51,-43,180,897,488,307,48,-19
43,-9,-53,-17,48,-31,146,854,473,307,58,-9
48,9,-39,-29,43,-14,126,800,444,307,63,0
48,29,-19,-39,34,4,102,741,409,297,78,19
53,43,-9,-48,31,17,78,663,370,283,87,34
53,58,4,-56,24,31,53,575,331,268,92,43
63,63,0,-63,31,31,34,502,292,244,97,58
68,68,0,-68,34,34,14,424,248,224,97,68
68,78,9,-73,29,43,0,351,214,204,97,73
63,78,14,-70,24,46,-14,283,170,185,97,73
58,78,19,-68,19,48,-29,224,141,161,87,68
58,78,19,-68,19,48,-34,180,112,136,87,63
53,63,9,-58,21,36,-39,126,87,117,87,63
53,63,9,-58,21,36,-48,82,63,97,78,58
48,73,24,-61,12,48,-48,53,43,82,68,63
43,68,24,-56,9,46,-53,29,24,78,68,63
43,63,19,-53,12,41,-53,0,9,58,58,53
43,58,14,-51,14,36,-58,-19,-4,48,58,43
34,53,19,-43,7,36,-53,-39,-14,39,48,43
34,48,14,-41,9,31,-48,-48,-19,29,43,43
29,43,14,-36,7,29,-48,-58,-29,19,43,39
24,39,14,-31,4,26,-48,-68,-34,14,34,39
24,34,9,-29,7,21,-53,-78,-34,9,29,29
24,29,4,-26,9,17,-58,-82,-39,0,29,29
19,19,0,-19,9,9,-58,-82,-43,0,24,29
19,19,0,-19,9,9,-53,-87,-43,0,19,29
19,19,0,-19,9,9,-48,-87,-43,-9,14,24
19,14,-4,-17,12,4,-43,-87,-48,-14,9,24
19,14,-4,-17,12,4,-43,-92,-53,-14,9,19
19,9,-9,-14,14,0,-43,-92,-53,-14,9,19
14,9,-4,-12,9,2,-39,-87,-53,-19,9,19
14,9,-4,-12,9,2,-39,-87,-48,-19,9,19
9,14,4,-12,2,9,-39,-87,-43,-24,9,14
4,14,9,-9,-2,12,-39,-87,-39,-24,9,14
4,14,9,-9,-2,12,-39,-87,-39,-24,4,14
0,9,9,-4,-4,9,-34,-87,-39,-24,0,14
4,9,4,-7,0,7,-34,-87,-39,-24,0,14
9,14,4,-12,2,9,-29,-82,-39,-24,0,14
9,14,4,-12,2,9,-29,-82,-39,-19,0,9
4,9,4,-7,0,7,-29,-78,-34,-14,0,9
4,9,4,-7,0,7,-19,-78,-29,-14,-4,9
4,9,4,-7,0,7,-19,-73,-24,-14,-4,9
4,9,4,-7,0,7,-19,-73,-24,-14,-4,9
4,9,4,-7,0,7,-14,-68,-19,-14,-4,9
0,9,9,-4,-4,9,-14,-68,-14,-14,0,9
-4,4,9,0,-7,7,-14,-68,-14,-9,4,9
-4,4,9,0,-7,7,-14,-63,-14,-9,9,4
-4,4,9,0,-7,7,-19,-63,-14,-9,9,0
-4,9,14,-2,-9,12,-19,-58,-9,-9,4,0
-4,14,19,-4,-12,17,-19,-53,-4,-9,4,0
-4,14,19,-4,-12,17,-19,-53,-4,-4,4,4
-4,14,19,-4,-12,17,-14,-53,-4,-4,4,9
-4,9,14,-2,-9,12,-14,-43,0,0,9,9
-4,4,9,0,-7,7,-14,-34,4,0,9,9
0,9,9,-4,-4,9,-14,-34,4,0,9,9
0,9,9,-4,-4,9,-14,-34,4,0,14,9
0,14,14,-7,-7,14,-14,-29,9,4,14,4
0,14,14,-7,-7,14,-9,-29,9,4,14,0
0,14,14,-7,-7,14,-4,-24,9,9,14,0
0,14,14,-7,-7,14,-4,-24,14,9,14,0
0,19,19,-9,-9,19,-4,-29,9,9,14,0
0,19,19,-9,-9,19,-4,-34,4,9,14,4
0,19,19,-9,-9,19,-9,-34,0,9,14,4
0,19,19,-9,-9,19,-14,-34,0,14,14,4
-9,14,24,-2,-17,19,-14,-34,4,14,14,0
-14,14,29,0,-21,21,-14,-34,9,9,14,-4
-14,14,29,0,-21,21,-19,-34,9,9,14,-4
-9,14,24,-2,-17,19,-19,-39,9,9,14,-4
-9,14,24,-2,-17,19,-14,-39,9,9,9,0
-9,14,24,-2,-17,19,-14,-43,4,9,4,4
-4,14,19,-4,-12,17,-14,-43,0,9,4,4
0,14,14,-7,-7,14,-14,-43,0,9,4,4
0,14,14,-7,-7,14,-19,-53,-4,4,4,4
0,14,14,-7,-7,14,-24,-53,-9,4,4,9
0,14,14,-7,-7,14,-24,-58,-14,0,4,9
-4,9,14,-2,-9,12,-29,-58,-24,0,4,9
-4,9,14,-2,-9,12,-34,-68,-29,-4,0,9
-4,9,14,-2,-9,12,-34,-68,-29,-4,0,9
-4,9,14,-2,-9,12,-29,-73,-34,-4,0,9
-4,9,14,-2,-9,12,-29,-78,-34,-4,-4,9
-4,9,14,-2,-9,12,-29,-78,-39,-9,-4,4
-4,9,14,-2,-9,12,-29,-82,-39,-9,-4,4
-4,9,14,-2,-9,12,-29,-82,-43,-14,0,4
-9,9,19,0,-14,14,-29,-87,-43,-14,4,9
-9,9,19,0,-14,14,-29,-87,-48,-14,4,4
-14,9,24,2,-19,17,-29,-92,-48,-14,0,0
-9,9,19,0,-14,14,-34,-97,-48,-19,-4,-4
-9,9,19,0,-14,14,-34,-97,-53,-19,-4,-4
-9,9,19,0,-14,14,-39,-97,-53,-19,-4,0
-9,9,19,0,-14,14,-43,-97,-58,-19,-9,0
-14,4,19,4,-17,12,-43,-102,-58,-24,-9,-4
-14,4,19,4,-17,12,-43,-107,-63,-24,-9,-4
-9,4,14,2,-12,9,-48,-107,-58,-24,-9,-4
-9,4,14,2,-12,9,-48,-107,-58,-24,-9,-4
-9,9,19,0,-14,14,-48,-107,-58,-29,-9,0
-9,14,24,-2,-17,19,-43,-107,-58,-29,-9,4
-4,14,19,-4,-12,17,-39,-107,-63,-29,-9,4
-4,14,19,-4,-12,17,-39,-117,-68,-29,-9,0
-4,14,19,-4,-12,17,-39,-117,-68,-29,-9,0
-4,14,19,-4,-12,17,-43,-117,-68,-29,-9,0
-4,19,24,-7,-14,21,-39,-117,-68,-29,-4,0
-9,24,34,-7,-21,29,-39,-117,-68,-29,-4,0
-4,14,19,-4,-12,17,-43,-122,-68,-29,-4,0
0,9,9,-4,-4,9,-48,-126,-68,-29,-9,0
0,9,9,-4,-4,9,-48,-126,-68,-29,-9,-4
0,9,9,-4,-4,9,-48,-126,-68,-29,-9,-9
-4,14,19,-4,-12,17,-48,-126,-68,-29,-9,-9
-9,19,29,-4,-19,24,-48,-126,-68,-29,-9,-9
-9,19,29,-4,-19,24,-48,-122,-68,-34,-9,-4
-9,19,29,-4,-19,24,-48,-117,-68,-39,-9,0
-4,19,24,-7,-14,21,-48,-117,-73,-39,-9,0
0,19,19,-9,-9,19,-48,-117,-78,-39,-9,0
0,19,19,-9,-9,19,-48,-122,-78,-39,-9,0
0,19,19,-9,-9,19,-48,-126,-78,-39,-9,0
-4,14,19,-4,-12,17,-48,-126,-78,-39,-9,0
-9,9,19,0,-14,14,-48,-126,-78,-39,-9,0
-9,9,19,0,-14,14,-48,-126,-78,-39,-9,0
-9,9,19,0,-14,14,-48,-126,-78,-39,-9,0
-9,9,19,0,-14,14,-48,-126,-78,-39,-9,-4
-9,9,19,0,-14,14,-48,-126,-78,-39,-9,-9
-4,9,14,-2,-9,12,-48,-126,-78,-39,-9,-9
0,9,9,-4,-4,9,-48,-126,-78,-39,-9,-9
0,9,9,-4,-4,9,-48,-126,-78,-39,-9,-9
0,9,9,-4,-4,9,-48,-126,-78,-39,-9,-9
-4,9,14,-2,-9,12,-48,-126,-78,-39,-9,-9
-9,9,19,0,-14,14,-48,-126,-78,-39,-9,-9
-9,14,24,-2,-17,19,-48,-126,-78,-34,-9,-4
-9,19,29,-4,-19,24,-48,-126,-78,-29,-9,0
-9,19,29,-4,-19,24,-48,-126,-78,-29,-9,0
-9,19,29,-4,-19,24,-48,-126,-78,-29,-9,0
-9,14,24,-2,-17,19,-48,-126,-78,-34,-9,0
-9,9,19,0,-14,14,-48,-126,-78,-39,-9,0
-9,9,19,0,-14,14,-48,-126,-78,-39,-9,0
-9,9,19,0,-14,14,-48,-126,-78,-39,-9,0
-14,9,24,2,-19,17,-48,-126,-78,-39,-9,0
-19,9,29,4,-24,19,-48,-126,-78,-39,-9,0
-19,9,29,4,-24,19,-48,-126,-78,-39,-9,0
-19,9,29,4,-24,19,-48,-126,-78,-39,-9,0
-19,9,29,4,-24,19,-48,-126,-78,-39,-9,0
-19,9,29,4,-24,19,-48,-126,-78,-39,-9,0
-14,9,24,2,-19,17,-48,-131,-78,-39,-9,0
-9,9,19,0,-14,14,-48,-136,-78,-39,-9,0
-9,9,19,0,-14,14,-48,-136,-82,-39,-9,0
-9,9,19,0,-14,14,-48,-136,-87,-39,-9,0
-9,9,19,0,-14,14,-48,-136,-87,-39,-9,0
-9,9,19,0,-14,14,-48,-136,-87,-39,-9,0
-9,9,19,0,-14,14,-48,-136,-82,-39,-9,0
-9,9,19,0,-14,14,-48,-136,-78,-39,-9,0
-9,9,19,0,-14,14,-48,-136,-78,-39,-9,0
-9,9,19,0,-14,14,-48,-136,-78,-39,-9,0
-9,14,24,-2,-17,19,-48,-136,-82,-39,-9,0
-9,19,29,-4,-19,24,-48,-136,-87,-39,-9,0
-9,19,29,-4,-19,24,-48,-136,-87,-39,-9,0
-9,19,29,-4,-19,24,-48,-136,-87,-39,-9,0
-9,14,24,-2,-17,19,-48,-136,-87,-39,-9,0
-9,9,19,0,-14,14,-48,-136,-87,-39,-9,0
-9,9,19,0,-14,14,-48,-136,-82,-39,-9,0
-9,9,19,0,-14,14,-48,-136,-78,-39,-9,0
-9,9,19,0,-14,14,-48,-136,-78,-39,-9,0
-9,9,19,0,-14,14,-48,-136,-78,-39,-9,0
-9,9,19,0,-14,14,-48,-136,-78,-39,-9,0
-9,9,19,0,-14,14,-48,-136,-78,-39,-9,0
-9,9,19,0,-14,14,-48,-131,-78,-39,-9,0
-9,9,19,0,-14,14,-48,-126,-78,-39,-9,0
-9,9,19,0,-14,14,-48,-126,-78,-39,-4,0
-9,9,19,0,-14,14,-48,-126,-78,-39,0,0
-9,9,19,0,-14,14,-48,-126,-78,-34,0,0
-9,9,19,0,-14,14,-48,-126,-78,-29,0,0
-4,14,19,-4,-12,17,-48,-131,-78,-29,0,0
0,19,19,-9,-9,19,-48,-136,-78,-29,0,0
4,19,14,-12,-4,17,-48,-136,-78,-29,0,0
9,19,9,-14,0,14,-48,-136,-78,-29,0,0
9,34,24,-21,-7,29,-43,-126,-68,-24,4,4
9,48,39,-29,-14,43,-39,-117,-58,-19,9,9
9,58,48,-34,-19,53,-29,-102,-43,-9,19,14
9,68,58,-39,-24,63,-19,-87,-29,0,29,19
9,73,63,-41,-26,68,-9,-87,-24,0,34,19
9,78,68,-43,-29,73,0,-87,-19,0,39,19
19,82,63,-51,-21,73,0,-78,-14,4,39,24
29,87,58,-58,-14,73,0,-68,-9,9,39,29
39,97,58,-68,-9,78,0,-63,-4,14,43,34
48,107,58,-78,-4,82,0,-58,0,19,48,39
48,112,63,-80,-7,87,-9,-58,0,29,53,43
48,117,68,-82,-9,92,-19,-58,0,39,58,48
43,117,73,-80,-14,95,-34,-78,-9,29,58,48
39,117,78,-78,-19,97,-48,-97,-19,19,58,48
39,112,73,-75,-17,92,-63,-112,-34,14,53,48
39,107,68,-73,-14,87,-68,-117,-39,9,48,48
39,107,68,-73,-14,87,-78,-126,-48,9,48,48
48,122,73,-85,-12,97,-82,-126,-48,14,48,58
53,131,78,-92,-12,104,-92,-126,-48,19,58,58
53,136,82,-95,-14,109,-97,-131,-53,19,58,58
58,122,63,-90,-2,92,-97,-141,-68,4,48,53
53,97,43,-75,4,70,-87,-141,-78,-4,39,43
43,78,34,-61,4,56,-82,-146,-82,-14,29,34
24,48,24,-36,0,36,-73,-146,-82,-19,14,24
4,39,34,-21,-14,36,-68,-146,-82,-19,14,19
0,34,34,-17,-17,34,-63,-146,-82,-24,14,14
-4,19,24,-7,-14,21,-63,-151,-87,-34,0,4
-4,14,19,-4,-12,17,-58,-151,-87,-34,-4,-4
-14,4,19,4,-17,12,-58,-151,-97,-43,-4,-9
-24,-4,19,14,-21,7,-63,-165,-102,-48,-14,-9
-29,-14,14,21,-21,0,-63,-165,-107,-53,-14,-19
-29,-19,9,24,-19,-4,-63,-165,-107,-53,-14,-19
-29,-19,9,24,-19,-4,-63,-165,-107,-53,-14,-14
-24,-19,4,21,-14,-7,-63,-165,-107,-53,-19,-14
-29,-24,4,26,-17,-9,-68,-165,-107,-53,-19,-19
-29,-24,4,26,-17,-9,-68,-165,-107,-58,-24,-19
-29,-24,4,26,-17,-9,-63,-165,-107,-58,-24,-19
-29,-24,4,26,-17,-9,-63,-165,-107,-53,-24,-19
-24,-19,4,21,-14,-7,-63,-165,-112,-53,-24,-19
-19,-19,0,19,-9,-9,-63,-161,-112,-53,-19,-19
-19,-19,0,19,-9,-9,-58,-161,-107,-58,-19,-19
-19,-19,0,19,-9,-9,-58,-161,-107,-63,-19,-19
-19,-19,0,19,-9,-9,-58,-161,-107,-63,-24,-19
-19,-24,-4,21,-7,-14,-58,-161,-107,-63,-24,-19
-19,-24,-4,21,-7,-14,-58,-161,-107,-58,-19,-19
-19,-24,-4,21,-7,-14,-58,-161,-107,-53,-19,-19
-19,-24,-4,21,-7,-14,-58,-156,-107,-53,-19,-19
-19,-19,0,19,-9,-9,-58,-156,-102,-53,-19,-19
-14,-19,-4,17,-4,-12,-68,-146,-107,-48,-14,-14
-19,-24,-4,21,-7,-14,-68,-146,-112,-53,-24,-24
-53,-19,34,36,-43,7,-39,-190,-112,-68,-34,-24
-136,-24,112,80,-124,43,34,-253,-107,-122,-68,-58
-234,-78,156,156,-195,39,156,-307,-131,-258,-170,-146
-268,-122,146,195,-207,12,258,-292,-131,-302,-229,-214
-273,-112,161,192,-217,24,322,-195,-24,-219,-180,-209
-214,-19,195,117,-204,87,366,63,204,0,-34,-136
-97,200,297,-51,-197,248,375,287,414,297,190,0
126,468,341,-297,-107,405,292,434,551,639,463,209
492,727,234,-610,129,480,107,678,653,1019,775,453
775,888,112,-832,331,500,-165,634,527,1180,956,658
741,922,180,-832,280,551,-458,117,317,1000,961,834
605,805,200,-705,202,502,-707,-405,87,829,941,966
717,126,-590,-422,653,-231,-946,-551,-473,312,551,814
727,-439,-1166,-143,946,-802,-1137,-1005,-1078,-278,82,541
488,-917,-1405,214,946,-1161,-1107,-1527,-1561,-917,-395,156
175,-1078,-1254,451,714,-1166,-912,-1678,-1693,-1180,-634,-87
-19,-893,-873,456,427,-883,-644,-1346,-1356,-951,-522,-107
-112,-673,-561,392,224,-617,-375,-888,-902,-658,-380,-107
-102,-522,-419,312,158,-470,-180,-507,-546,-444,-312,-126
-82,-341,-258,212,87,-300,-92,-268,-302,-263,-209,-122
-58,-229,-170,143,56,-200,-48,-136,-180,-161,-136,-107
-53,-185,-131,119,39,-158,14,-53,-102,-117,-112,-82
-48,-141,-92,95,21,-117,43,-4,-48,-78,-92,-73
-43,-92,-48,68,2,-70,43,4,-29,-58,-63,-58
-43,-78,-34,61,-4,-56,43,0,-29,-48,-48,-53
-48,-87,-39,68,-4,-63,48,-4,-29,-48,-58,-53
-48,-87,-39,68,-4,-63,53,9,-14,-48,-58,-48
-48,-78,-29,63,-9,-53,53,14,-9,-39,-58,-48
-43,-63,-19,53,-12,-41,53,19,-4,-39,-48,-48
-43,-63,-19,53,-12,-41,48,24,-4,-39,-48,-53
-39,-58,-19,48,-9,-39,48,24,-4,-39,-48,-53
-29,-53,-24,41,-2,-39,53,29,0,-39,-48,-53
-29,-48,-19,39,-4,-34,53,29,4,-39,-53,-53
-29,-48,-19,39,-4,-34,53,39,4,-43,-58,-53
-29,-48,-19,39,-4,-34,53,39,9,-43,-58,-53
-29,-48,-19,39,-4,-34,53,39,14,-43,-58,-58
-34,-48,-14,41,-9,-31,53,39,14,-39,-53,-58
-34,-48,-14,41,-9,-31,58,43,14,-34,-53,-58
-34,-48,-14,41,-9,-31,58,43,14,-34,-53,-58
-34,-48,-14,41,-9,-31,58,43,19,-29,-53,-58
-34,-48,-14,41,-9,-31,58,43,19,-29,-53,-58
-39,-53,-14,46,-12,-34,58,43,19,-34,-53,-58
-39,-53,-14,46,-12,-34,63,48,24,-34,-53,-58
-39,-53,-14,46,-12,-34,63,53,29,-34,-53,-58
-39,-53,-14,46,-12,-34,63,58,29,-34,-48,-58
-39,-53,-14,46,-12,-34,63,63,34,-39,-48,-58
-39,-53,-14,46,-12,-34,68,63,39,-39,-48,-58
-39,-53,-14,46,-12,-34,73,68,43,-39,-53,-58
-39,-53,-14,46,-12,-34,73,73,48,-39,-53,-63
-43,-53,-9,48,-17,-31,73,78,48,-39,-58,-63
-48,-53,-4,51,-21,-29,82,82,48,-29,-58,-68
-48,-53,-4,51,-21,-29,87,82,53,-24,-58,-73
-48,-58,-9,53,-19,-34,87,92,63,-29,-58,-73
-48,-63,-14,56,-17,-39,97,97,68,-29,-58,-73
-53,-68,-14,61,-19,-41,97,97,68,-29,-58,-78
-58,-73,-14,65,-21,-43,102,107,73,-29,-58,-82
-58,-73,-14,65,-21,-43,102,112,68,-29,-58,-78
-58,-73,-14,65,-21,-43,107,122,73,-29,-58,-78
-58,-73,-14,65,-21,-43,112,126,78,-24,-63,-78
-58,-73,-14,65,-21,-43,117,131,78,-24,-63,-82
-58,-73,-14,65,-21,-43,122,136,82,-24,-63,-82
-58,-73,-14,65,-21,-43,122,146,87,-24,-68,-82
-58,-73,-14,65,-21,-43,122,156,97,-19,-68,-82
-58,-68,-9,63,-24,-39,122,170,102,-19,-68,-87
-63,-73,-9,68,-26,-41,131,180,112,-19,-73,-87
-63,-78,-14,70,-24,-46,136,190,122,-14,-73,-92
-63,-78,-14,70,-24,-46,151,204,131,-9,-73,-92
-63,-78,-14,70,-24,-46,156,224,141,0,-68,-92
-63,-82,-19,73,-21,-51,165,239,146,0,-68,-92
-63,-82,-19,73,-21,-51,170,263,156,0,-68,-92
-63,-82,-19,73,-21,-51,175,278,170,9,-68,-97
-63,-82,-19,73,-21,-51,190,297,180,9,-68,-102
-63,-87,-24,75,-19,-56,195,317,190,14,-68,-102
-63,-87,-24,75,-19,-56,204,336,200,19,-68,-102
-68,-87,-19,78,-24,-53,209,366,219,24,-78,-107
-73,-92,-19,82,-26,-56,219,395,229,34,-82,-107
-73,-92,-19,82,-26,-56,229,424,253,43,-82,-107
-73,-92,-19,82,-26,-56,234,458,273,63,-82,-107
-68,-92,-24,80,-21,-58,248,497,292,73,-78,-107
-68,-92,-24,80,-21,-58,253,531,312,82,-78,-107
-58,-97,-39,78,-9,-68,263,570,331,87,-73,-112
-53,-97,-43,75,-4,-70,273,614,346,92,-73,-112
-53,-97,-43,75,-4,-70,283,653,370,117,-68,-107
-53,-97,-43,75,-4,-70,287,697,390,131,-58,-107
-39,-92,-53,65,7,-73,297,746,409,151,-53,-107
-34,-92,-58,63,12,-75,302,795,429,161,-43,-107
-34,-92,-58,63,12,-75,302,829,448,185,-43,-97
-29,-82,-53,56,12,-68,302,868,468,200,-34,-87
-29,-82,-53,56,12,-68,297,902,492,224,-24,-82
-19,-73,-53,46,17,-63,292,927,507,244,-14,-73
-9,-63,-53,36,21,-58,283,951,522,258,0,-63
-4,-53,-48,29,21,-51,273,961,531,273,9,-53
0,-39,-39,19,19,-39,253,971,531,283,19,-39
14,-19,-34,2,24,-26,239,961,531,292,29,-29
19,-4,-24,-7,21,-14,219,936,517,297,43,-9
24,9,-14,-17,19,-2,185,893,502,297,58,0
34,29,-4,-31,19,12,161,839,478,302,63,9
39,48,9,-43,14,29,131,780,448,297,78,29
43,63,19,-53,12,41,107,702,409,283,87,43
43,78,34,-61,4,56,82,614,370,268,92,53
53,87,34,-70,9,61,63,541,331,244,102,68
58,97,39,-78,9,68,43,463,287,224,107,78
63,107,43,-85,9,75,29,385,248,204,107,82
63,107,43,-85,9,75,14,312,200,185,107,82
63,107,43,-85,9,75,-4,253,165,161,97,82
68,107,39,-87,14,73,-14,209,131,136,97,82
63,92,29,-78,17,61,-24,151,102,117,92,78
63,92,29,-78,17,61,-39,102,73,97,78,68
53,92,39,-73,7,65,-39,73,53,82,68,68
43,78,34,-61,4,56,-43,48,34,78,68,63
43,73,29,-58,7,51,-43,14,19,58,53,58
43,68,24,-56,9,46,-48,-9,4,48,48,53
34,63,29,-48,2,46,-48,-29,-4,39,39,53
34,58,24,-46,4,41,-48,-39,-9,29,34,53
29,58,29,-43,0,43,-48,-48,-19,19,34,43
24,58,34,-41,-4,46,-48,-58,-24,14,24,39
24,53,29,-39,-2,41,-48,-68,-29,9,19,29
24,48,24,-36,0,36,-48,-73,-39,0,19,29
19,39,19,-29,0,29,-48,-73,-43,-4,14,29
19,39,19,-29,0,29,-43,-78,-43,-9,9,29
19,39,19,-29,0,29,-43,-78,-39,-14,9,24
19,34,14,-26,2,24,-43,-78,-39,-14,9,24
19,34,14,-26,2,24,-43,-82,-43,-14,9,19
19,29,9,-24,4,19,-43,-82,-43,-14,9,19
19,29,9,-24,4,19,-39,-82,-48,-19,4,19
24,29,4,-26,9,17,-39,-87,-48,-19,0,19
24,34,9,-29,7,21,-39,-87,-48,-24,0,14
24,34,9,-29,7,21,-39,-87,-48,-24,0,14
24,34,9,-29,7,21,-39,-87,-48,-19,0,14
19,29,9,-24,4,19,-34,-87,-48,-14,0,14
14,29,14,-21,0,21,-34,-87,-43,-14,0,14
9,34,24,-21,-7,29,-29,-82,-39,-14,0,14
9,34,24,-21,-7,29,-29,-82,-39,-19,0,9
4,29,24,-17,-9,26,-29,-78,-34,-24,0,9
4,29,24,-17,-9,26,-19,-78,-29,-24,-4,9
4,29,24,-17,-9,26,-19,-73,-24,-24,-4,9
4,29,24,-17,-9,26,-19,-73,-24,-24,-4,9
4,29,24,-17,-9,26,-14,-68,-19,-24,-4,9
0,29,29,-14,-14,29,-19,-73,-14,-24,-4,9
-4,24,29,-9,-17,26,-24,-78,-14,-19,-4,9
-4,24,29,-9,-17,26,-19,-73,-19,-19,0,4
-4,24,29,-9,-17,26,-19,-73,-24,-19,0,0
-9,24,34,-7,-21,29,-14,-68,-19,-19,-4,0
-14,24,39,-4,-26,31,-9,-63,-14,-19,-4,0
-14,24,39,-4,-26,31,-9,-63,-14,-14,-9,0
-14,24,39,-4,-26,31,-4,-63,-14,-14,-14,0
-14,19,34,-2,-24,26,-4,-58,-9,-9,-9,0
-14,14,29,0,-21,21,-4,-53,-4,-9,-9,0
-14,19,34,-2,-24,26,-4,-53,-4,-14,-9,0
-19,19,39,0,-29,29,-4,-53,-4,-19,-4,0
-19,19,39,0,-29,29,-4,-48,0,-14,-4,0
-19,14,34,2,-26,24,0,-48,0,-14,-4,0
-19,14,34,2,-26,24,0,-43,0,-9,-4,0
-19,14,34,2,-26,24,-4,-43,4,-9,-4,0
-19,19,39,0,-29,29,-4,-43,4,-9,-4,0
-19,19,39,0,-29,29,-4,-43,4,-9,-4,4
-19,19,39,0,-29,29,-4,-43,0,-9,-4,4
-19,19,39,0,-29,29,-4,-43,0,-4,-4,4
-24,14,39,4,-31,26,-4,-43,0,-4,-4,4
-24,14,39,4,-31,26,-4,-43,0,-9,-4,4
-24,14,39,4,-31,26,-9,-43,0,-4,-4,4
-19,14,34,2,-26,24,-9,-48,0,0,-4,4
-19,14,34,2,-26,24,-9,-48,0,0,-4,4
-19,14,34,2,-26,24,-14,-53,-4,0,-4,4
-19,14,34,2,-26,24,-14,-53,-9,-4,-4,4
-19,14,34,2,-26,24,-14,-53,-9,-9,-4,4
-19,14,34,2,-26,24,-14,-63,-14,-14,-4,0
-19,14,34,2,-26,24,-14,-63,-19,-14,-4,0
-19,19,39,0,-29,29,-14,-68,-19,-14,-4,0
-24,19,43,2,-34,31,-19,-68,-24,-9,-4,0
-24,19,43,2,-34,31,-24,-78,-29,-14,-9,0
-24,19,43,2,-34,31,-24,-78,-29,-14,-9,0
-24,19,43,2,-34,31,-24,-82,-34,-14,-9,0
-24,19,43,2,-34,31,-29,-87,-34,-14,-14,0
-24,19,43,2,-34,31,-34,-87,-39,-19,-14,-4
-24,19,43,2,-34,31,-39,-92,-39,-19,-14,-4
-19,19,39,0,-29,29,-39,-92,-43,-24,-14,-4
-19,19,39,0,-29,29,-39,-97,-43,-24,-14,0
-14,19,34,-2,-24,26,-39,-97,-48,-24,-9,0
-14,19,34,-2,-24,26,-39,-102,-48,-24,-9,0
-14,19,34,-2,-24,26,-39,-107,-48,-29,-9,-4
-19,19,39,0,-29,29,-34,-107,-53,-29,-4,-4
-19,19,39,0,-29,29,-34,-107,-53,-29,-4,0
-19,19,39,0,-29,29,-34,-107,-58,-29,-9,0
-19,14,34,2,-26,24,-34,-112,-58,-34,-9,-4
-14,14,29,0,-21,21,-34,-117,-63,-34,-9,-4
-9,14,24,-2,-17,19,-39,-117,-63,-34,-14,-9
-9,14,24,-2,-17,19,-39,-117,-68,-34,-19,-14
-9,14,24,-2,-17,19,-43,-117,-68,-39,-19,-14
-9,14,24,-2,-17,19,-43,-117,-68,-39,-19,-14
-9,14,24,-2,-17,19,-39,-117,-68,-39,-19,-9
-14,14,29,0,-21,21,-39,-126,-68,-39,-19,-9
-14,14,29,0,-21,21,-39,-126,-68,-39,-19,-9
-14,14,29,0,-21,21,-43,-126,-68,-39,-19,-9
-14,14,29,0,-21,21,-43,-126,-68,-43,-14,-9
-19,14,34,2,-26,24,-48,-126,-68,-48,-14,-9
-14,14,29,0,-21,21,-48,-126,-73,-43,-14,-9
-9,19,29,-4,-19,24,-48,-126,-78,-39,-19,-9
-9,19,29,-4,-19,24,-48,-126,-78,-39,-19,-9
-9,19,29,-4,-19,24,-48,-126,-78,-39,-19,-9
-9,19,29,-4,-19,24,-48,-126,-78,-43,-19,-9
-9,19,29,-4,-19,24,-48,-126,-78,-48,-19,-9
-9,24,34,-7,-21,29,-48,-126,-78,-48,-19,-9
-9,29,39,-9,-24,34,-48,-126,-78,-48,-19,-9
-9,29,39,-9,-24,34,-48,-126,-78,-48,-19,-9
-9,29,39,-9,-24,34,-48,-126,-78,-48,-19,-9
-9,29,39,-9,-24,34,-48,-126,-78,-48,-19,-9
-9,29,39,-9,-24,34,-48,-126,-78,-48,-19,-9
-9,29,39,-9,-24,34,-48,-126,-78,-48,-19,-9
-9,29,39,-9,-24,34,-48,-126,-78,-48,-19,-9
-14,24,39,-4,-26,31,-48,-126,-78,-48,-19,-9
-19,19,39,0,-29,29,-48,-126,-78,-48,-19,-9
-19,19,39,0,-29,29,-48,-131,-82,-48,-19,-9
-19,19,39,0,-29,29,-48,-136,-87,-48,-19,-9
-19,19,39,0,-29,29,-48,-136,-87,-48,-19,-9
-19,19,39,0,-29,29,-48,-136,-87,-48,-19,-9
-19,19,39,0,-29,29,-48,-136,-87,-53,-19,-9
-19,19,39,0,-29,29,-48,-136,-87,-58,-19,-9
-19,19,39,0,-29,29,-53,-136,-87,-58,-24,-9
-19,19,39,0,-29,29,-58,-136,-87,-58,-29,-9
-19,19,39,0,-29,29,-58,-136,-87,-58,-29,-9
-19,19,39,0,-29,29,-58,-136,-87,-58,-29,-9
-19,19,39,0,-29,29,-53,-136,-87,-58,-29,-9
-19,19,39,0,-29,29,-48,-136,-87,-58,-29,-9
-19,19,39,0,-29,29,-48,-136,-87,-58,-29,-9
-19,19,39,0,-29,29,-48,-136,-87,-58,-29,-9
-19,19,39,0,-29,29,-48,-136,-87,-58,-29,-9
-19,19,39,0,-29,29,-48,-136,-87,-58,-29,-9
-19,19,39,0,-29,29,-48,-136,-87,-58,-29,-14
-19,19,39,0,-29,29,-48,-136,-87,-58,-29,-19
-19,19,39,0,-29,29,-53,-136,-87,-58,-29,-19
-19,19,39,0,-29,29,-58,-136,-87,-58,-29,-19
-19,19,39,0,-29,29,-58,-136,-87,-58,-29,-19
-19,19,39,0,-29,29,-58,-136,-87,-58,-29,-19
-19,19,39,0,-29,29,-58,-141,-87,-53,-29,-19
-19,19,39,0,-29,29,-58,-146,-87,-48,-29,-19
-19,19,39,0,-29,29,-58,-146,-87,-48,-29,-19
-19,19,39,0,-29,29,-58,-146,-87,-48,-29,-19
-19,19,39,0,-29,29,-58,-141,-87,-48,-29,-14
-19,19,39,0,-29,29,-58,-136,-87,-48,-29,-9
-19,19,39,0,-29,29,-58,-136,-87,-48,-29,-9
-19,19,39,0,-29,29,-58,-136,-87,-48,-29,-9
-14,19,34,-2,-24,26,-58,-136,-87,-48,-29,-9
-9,19,29,-4,-19,24,-58,-136,-87,-48,-29,-9
-9,19,29,-4,-19,24,-58,-136,-87,-48,-29,-9
-9,19,29,-4,-19,24,-58,-136,-87,-48,-29,-9
-14,19,34,-2,-24,26,-58,-136,-87,-53,-34,-14
-19,19,39,0,-29,29,-58,-136,-87,-58,-39,-19
-19,19,39,0,-29,29,-58,-141,-87,-58,-39,-19
-19,19,39,0,-29,29,-58,-146,-87,-58,-39,-19
-19,19,39,0,-29,29,-58,-146,-87,-53,-34,-14
-19,19,39,0,-29,29,-58,-146,-87,-48,-29,-9
-19,19,39,0,-29,29,-58,-146,-87,-48,-29,-9
-19,19,39,0,-29,29,-58,-146,-87,-48,-29,-9
-19,19,39,0,-29,29,-58,-146,-87,-48,-34,-9
-19,19,39,0,-29,29,-58,-146,-87,-48,-39,-9
-19,19,39,0,-29,29,-58,-146,-87,-53,-39,-9
-19,19,39,0,-29,29,-58,-146,-87,-58,-39,-9
-19,19,39,0,-29,29,-58,-146,-87,-58,-39,-9
-19,19,39,0,-29,29,-58,-146,-87,-58,-39,-9
-14,19,34,-2,-24,26,-58,-146,-87,-58,-39,-9
-9,19,29,-4,-19,24,-58,-146,-87,-58,-39,-9
-9,24,34,-7,-21,29,-53,-146,-82,-58,-39,-9
-9,29,39,-9,-24,34,-48,-146,-78,-58,-39,-9
-9,29,39,-9,-24,34,-48,-141,-78,-48,-34,-4
-9,29,39,-9,-24,34,-48,-136,-78,-39,-29,0
0,43,43,-21,-21,43,-43,-122,-68,-34,-19,9
9,58,48,-34,-19,53,-39,-107,-58,-29,-9,19
9,73,63,-41,-26,68,-29,-102,-48,-24,-4,19
9,87,78,-48,-34,82,-19,-97,-39,-19,0,19
9,87,78,-48,-34,82,-14,-92,-34,-14,0,19
9,87,78,-48,-34,82,-9,-87,-29,-9,0,19
14,92,78,-53,-31,85,0,-78,-24,-9,4,19
19,97,78,-58,-29,87,9,-68,-19,-9,9,19
29,107,78,-68,-24,92,0,-68,-14,4,14,24
39,117,78,-78,-19,97,-9,-68,-9,19,19,29
43,126,82,-85,-19,104,-24,-68,-9,19,24,39
48,136,87,-92,-19,112,-39,-68,-9,19,29,48
48,136,87,-92,-19,112,-58,-87,-19,14,29,48
48,136,87,-92,-19,112,-78,-107,-29,9,29,48
48,131,82,-90,-17,107,-82,-117,-39,4,29,48
48,126,78,-87,-14,102,-82,-122,-43,0,29,48
48,126,78,-87,-14,102,-87,-126,-48,0,29,48
58,141,82,-100,-12,112,-92,-126,-48,4,29,58
58,141,82,-100,-12,112,-97,-131,-48,4,34,53
53,136,82,-95,-14,109,-97,-141,-53,0,29,48
48,122,73,-85,-12,97,-97,-151,-68,-14,19,43
34,97,63,-65,-14,80,-87,-151,-78,-24,9,34
24,78,53,-51,-14,65,-82,-151,-82,-34,4,24
4,48,43,-26,-19,46,-73,-146,-82,-39,-4,14
-14,39,53,-12,-34,46,-68,-146,-82,-39,-4,9
-19,34,53,-7,-36,43,-63,-146,-82,-43,-4,4
-19,19,39,0,-29,29,-63,-151,-87,-53,-19,-4
-14,14,29,0,-21,21,-58,-151,-87,-53,-24,-14
-19,4,24,7,-21,14,-58,-151,-97,-63,-24,-19
-24,-4,19,14,-21,7,-63,-165,-102,-68,-34,-19
-29,-9,19,19,-24,4,-63,-165,-107,-73,-34,-29
-29,-9,19,19,-24,4,-63,-165,-107,-73,-34,-29
-29,-9,19,19,-24,4,-58,-165,-107,-73,-29,-24
-24,-9,14,17,-19,2,-53,-165,-107,-73,-29,-24
-24,-14,9,19,-17,-2,-58,-165,-107,-73,-29,-29
-19,-14,4,17,-12,-4,-58,-165,-107,-78,-34,-29
-19,-14,4,17,-12,-4,-58,-165,-107,-78,-34,-29
-19,-14,4,17,-12,-4,-63,-165,-107,-73,-34,-29
-19,-14,4,17,-12,-4,-63,-165,-112,-73,-34,-29
-19,-19,0,19,-9,-9,-63,-161,-112,-73,-29,-29
-19,-19,0,19,-9,-9,-58,-161,-107,-73,-29,-29
-19,-19,0,19,-9,-9,-58,-161,-107,-73,-29,-29
-19,-14,4,17,-12,-4,-58,-161,-107,-73,-34,-29
-19,-14,4,17,-12,-4,-58,-161,-107,-73,-34,-29
-19,-14,4,17,-12,-4,-58,-161,-107,-73,-29,-24
-19,-14,4,17,-12,-4,-58,-161,-107,-73,-29,-19
-19,-19,0,19,-9,-9,-53,-151,-107,-73,-29,-19
-19,-19,0,19,-9,-9,-48,-146,-102,-73,-29,-19
-24,-19,4,21,-14,-7,-48,-146,-97,-73,-29,-19
-39,-24,14,31,-26,-4,-39,-156,-92,-82,-43,-34
-82,-24,58,53,-70,17,4,-190,-87,-97,-58,-48
-175,-34,141,104,-158,53,92,-244,-78,-151,-97,-97
-253,-73,180,163,-217,53,200,-258,-68,-229,-161,-156
-268,-102,165,185,-217,31,287,-204,-34,-214,-180,-195
-229,-53,175,141,-202,61,322,-78,87,-87,-92,-151
-126,78,204,24,-165,141,336,209,331,175,92,-39
43,297,253,-170,-104,275,302,375,488,444,317,112
322,566,244,-444,39,405,175,463,570,756,590,336
605,761,156,-683,224,458,-24,546,590,985,805,551
805,858,53,-832,375,456,-312,341,380,995,888,727
751,756,4,-753,373,380,-556,-82,97,712,795,814
595,502,-92,-549,344,204,-756,-512,-204,439,678,858
639,-87,-727,-275,683,-407,-951,-717,-727,-53,292,668
580,-566,-1146,-7,863,-856,-1098,-1229,-1293,-619,-170,356
351,-893,-1244,270,797,-1068,-1019,-1551,-1551,-1019,-488,63
48,-902,-951,427,500,-927,-775,-1503,-1459,-1044,-566,-87
-87,-732,-644,409,278,-688,-536,-1156,-1132,-814,-453,-107
-122,-527,-405,324,141,-466,-297,-683,-688,-522,-312,-107
-112,-424,-312,268,100,-368,-131,-380,-414,-356,-263,-122
-92,-292,-200,192,53,-246,-73,-219,-253,-224,-180,-112
-63,-200,-136,131,36,-168,-39,-112,-156,-146,-122,-107
-53,-175,-122,114,34,-148,14,-53,-102,-126,-112,-92
-48,-131,-82,90,17,-107,43,-9,-48,-87,-97,-82
-43,-82,-39,63,-2,-61,43,-4,-29,-68,-73,-68
-43,-73,-29,58,-7,-51,43,-4,-29,-63,-58,-68
-48,-87,-39,68,-4,-63,48,-4,-29,-68,-68,-73
-48,-87,-39,68,-4,-63,53,9,-14,-68,-68,-68
-48,-78,-29,63,-9,-53,53,14,-9,-58,-68,-68
-43,-63,-19,53,-12,-41,53,19,-4,-58,-58,-58
-43,-63,-19,53,-12,-41,48,24,-4,-58,-58,-53
-43,-63,-19,53,-12,-41,48,24,-4,-53,-58,-53
-39,-63,-24,51,-7,-43,53,29,0,-48,-58,-53
-39,-58,-19,48,-9,-39,53,24,4,-43,-58,-58
-39,-58,-19,48,-9,-39,53,29,4,-43,-58,-63
-39,-63,-24,51,-7,-43,53,29,4,-43,-58,-63
-39,-68,-29,53,-4,-48,53,29,4,-43,-58,-68
-43,-68,-24,56,-9,-46,53,34,9,-43,-53,-68
-43,-68,-24,56,-9,-46,58,43,14,-43,-53,-68
-43,-68,-24,56,-9,-46,58,43,19,-43,-53,-68
-43,-68,-24,56,-9,-46,58,43,29,-39,-53,-68
-43,-63,-19,53,-12,-41,58,43,24,-39,-53,-68
-48,-63,-14,56,-17,-39,58,43,19,-43,-53,-68
-48,-63,-14,56,-17,-39,63,48,19,-43,-53,-68
-48,-63,-14,56,-17,-39,63,53,19,-43,-53,-68
-48,-68,-19,58,-14,-43,63,53,24,-39,-48,-68
-48,-73,-24,61,-12,-48,63,53,34,-39,-48,-68
-48,-73,-24,61,-12,-48,68,53,39,-39,-48,-68
-48,-73,-24,61,-12,-48,73,58,43,-39,-53,-68
-48,-73,-24,61,-12,-48,78,68,43,-43,-53,-73
-53,-73,-19,63,-17,-46,82,78,39,-48,-58,-73
-58,-73,-14,65,-21,-43,87,82,39,-43,-58,-73
-58,-73,-14,65,-21,-43,87,82,43,-43,-58,-73
-58,-78,-19,68,-19,-48,87,92,53,-43,-58,-73
-58,-82,-24,70,-17,-53,97,97,58,-39,-58,-73
-58,-82,-24,70,-17,-53,97,97,58,-39,-58,-78
-58,-82,-24,70,-17,-53,102,107,63,-39,-58,-82
-63,-82,-19,73,-21,-51,102,112,63,-34,-58,-78
-68,-82,-14,75,-26,-48,107,122,73,-29,-58,-78
-73,-87,-14,80,-29,-51,112,131,78,-24,-63,-78
-78,-92,-14,85,-31,-53,117,141,78,-24,-63,-82
-78,-92,-14,85,-31,-53,122,146,82,-24,-63,-87
-78,-92,-14,85,-31,-53,122,156,87,-24,-68,-92
-78,-92,-14,85,-31,-53,126,165,97,-19,-68,-92
-78,-87,-9,82,-34,-48,131,180,102,-19,-68,-97
-82,-87,-4,85,-39,-46,141,190,112,-19,-73,-92
-82,-87,-4,85,-39,-46,146,200,122,-14,-73,-92
-82,-87,-4,85,-39,-46,156,214,131,-14,-73,-92
-82,-87,-4,85,-39,-46,156,234,141,-9,-68,-92
-87,-97,-9,92,-39,-53,165,244,146,-9,-68,-97
-92,-102,-9,97,-41,-56,170,263,156,-9,-68,-102
-92,-102,-9,97,-41,-56,175,278,165,0,-68,-107
-92,-102,-9,97,-41,-56,190,297,170,0,-68,-112
-87,-107,-19,97,-34,-63,195,322,185,9,-68,-112
-82,-107,-24,95,-29,-65,204,346,200,19,-68,-112
-78,-107,-29,92,-24,-68,209,375,219,24,-73,-117
-73,-112,-39,92,-17,-75,219,405,229,34,-73,-117
-73,-112,-39,92,-17,-75,229,434,248,39,-73,-117
-73,-112,-39,92,-17,-75,234,468,263,53,-73,-117
-73,-112,-39,92,-17,-75,248,507,283,58,-68,-117
-78,-112,-34,95,-21,-73,253,541,302,63,-68,-117
-68,-117,-48,92,-9,-82,258,580,317,73,-68,-122
-63,-117,-53,90,-4,-85,263,624,326,82,-73,-122
-63,-117,-53,90,-4,-85,273,658,351,102,-73,-117
-63,-117,-53,90,-4,-85,278,697,370,112,-68,-117
-48,-112,-63,80,7,-87,287,746,390,131,-63,-122
-43,-112,-68,78,12,-90,292,795,409,141,-53,-126
-39,-117,-78,78,19,-97,292,824,429,161,-48,-117
-29,-112,-82,70,26,-97,292,858,448,170,-34,-107
-29,-107,-78,68,24,-92,287,893,463,195,-24,-97
-19,-92,-73,56,26,-82,283,917,468,214,-14,-82
-9,-82,-73,46,31,-78,273,936,478,229,0,-73
-4,-73,-68,39,31,-70,263,941,483,244,9,-63
4,-58,-63,26,34,-61,244,941,478,248,19,-53
24,-39,-63,7,43,-51,229,922,473,253,29,-48
34,-24,-58,-4,46,-41,204,888,458,258,34,-29
43,-9,-53,-17,48,-31,165,834,444,258,39,-19
48,4,-43,-26,46,-19,141,780,414,258,43,-9
48,19,-29,-34,39,-4,112,722,380,248,58,9
48,34,-14,-41,31,9,92,649,341,239,73,24
43,48,4,-46,19,26,73,566,302,229,82,34
53,58,4,-56,24,31,53,492,273,209,87,48
58,68,9,-63,24,39,34,414,239,195,87,58
58,78,19,-68,19,48,19,346,209,175,87,63
53,78,24,-65,14,51,4,283,170,156,87,63
48,78,29,-63,9,53,-9,224,141,136,78,63
48,78,29,-63,9,53,-14,180,112,117,78,63
43,63,19,-53,12,41,-19,126,87,97,78,63
43,63,19,-53,12,41,-29,82,63,78,68,58
39,63,24,-51,7,43,-29,53,43,63,58,58
34,48,14,-41,9,31,-34,29,24,58,58,53
29,48,19,-39,4,34,-34,0,14,39,43,43
24,48,24,-36,0,36,-39,-19,4,29,39,34
14,43,29,-29,-7,36,-39,-39,-4,19,29,34
14,39,24,-26,-4,31,-39,-48,-9,9,24,34
9,39,29,-24,-9,34,-39,-53,-19,4,24,29
4,39,34,-21,-14,36,-39,-58,-24,4,14,29
9,34,24,-21,-7,29,-39,-68,-24,0,9,19
14,29,14,-21,0,21,-39,-73,-29,-9,9,19
9,19,9,-14,0,14,-39,-73,-34,-14,4,19
9,19,9,-14,0,14,-34,-78,-34,-19,0,19
9,19,9,-14,0,14,-34,-78,-34,-24,0,14
9,14,4,-12,2,9,-34,-78,-39,-24,0,14
4,14,9,-9,-2,12,-34,-82,-43,-24,0,9
0,9,9,-4,-4,9,-34,-82,-43,-24,0,9
-4,9,14,-2,-9,12,-29,-78,-43,-29,0,9
-4,9,14,-2,-9,12,-29,-78,-39,-29,0,9
0,14,14,-7,-7,14,-29,-78,-39,-34,0,4
4,14,9,-9,-2,12,-29,-78,-39,-34,0,4
9,9,0,-9,4,4,-29,-78,-39,-34,0,4
9,0,-9,-4,9,-4,-24,-78,-39,-34,0,4
9,0,-9,-4,9,-4,-24,-78,-34,-29,0,4
9,4,-4,-7,7,0,-19,-73,-29,-24,0,4
4,9,4,-7,0,7,-19,-73,-29,-24,0,0
-4,9,14,-2,-9,12,-19,-68,-24,-24,0,0
-4,9,14,-2,-9,12,-9,-68,-24,-24,-4,0
-4,9,14,-2,-9,12,-9,-63,-24,-24,-4,0
-4,9,14,-2,-9,12,-9,-63,-24,-24,-4,0
-4,9,14,-2,-9,12,-4,-58,-19,-24,-4,0
-9,9,19,0,-14,14,-4,-58,-9,-24,-4,0
-14,4,19,4,-17,12,-4,-58,-4,-19,-4,0
-14,4,19,4,-17,12,0,-53,-4,-14,4,0
-14,4,19,4,-17,12,0,-53,-4,-9,9,0
-9,9,19,0,-14,14,0,-48,0,-9,4,0
-4,14,19,-4,-12,17,0,-43,4,-9,4,0
-4,14,19,-4,-12,17,0,-43,4,-9,0,0
-4,14,19,-4,-12,17,4,-43,4,-14,-4,0
-4,14,19,-4,-12,17,4,-34,4,-9,0,0
-4,14,19,-4,-12,17,4,-24,4,-9,0,0
-4,19,24,-7,-14,21,4,-24,4,-9,0,-4
-9,19,29,-4,-19,24,4,-24,4,-9,4,-9
-9,14,24,-2,-17,19,4,-19,9,-4,9,-9
-9,4,14,2,-12,9,9,-19,9,-4,14,-9
-14,4,19,4,-17,12,9,-14,9,0,14,-4
-19,4,24,7,-21,14,4,-14,14,0,14,0
-19,9,29,4,-24,19,4,-14,14,0,14,0
-19,9,29,4,-24,19,4,-14,14,0,14,4
-14,9,24,2,-19,17,4,-14,9,0,14,0
-9,9,19,0,-14,14,4,-14,9,4,14,-4
-14,4,19,4,-17,12,4,-14,9,9,14,-4
-14,4,19,4,-17,12,4,-14,9,9,14,-4
-19,4,24,7,-21,14,4,-14,9,9,14,-4
-19,4,24,7,-21,14,9,-19,9,9,14,-4
-19,4,24,7,-21,14,9,-19,9,4,9,-4
-19,4,24,7,-21,14,4,-24,4,0,4,-4
-14,4,19,4,-17,12,4,-29,0,0,4,-4
-9,4,14,2,-12,9,4,-34,0,0,4,-4
-9,4,14,2,-12,9,4,-43,0,-4,4,-9
-9,4,14,2,-12,9,4,-43,0,-4,4,-9
-14,4,19,4,-17,12,4,-48,0,-9,4,-9
-24,0,24,12,-24,12,0,-48,-4,-9,4,-9
-29,0,29,14,-29,14,-4,-53,-14,-14,0,-9
-34,0,34,17,-34,17,-4,-48,-19,-14,0,-9
-34,-4,29,19,-31,12,-9,-53,-24,-14,0,-9
-34,-9,24,21,-29,7,-19,-58,-24,-14,-4,-9
-34,-9,24,21,-29,7,-19,-63,-29,-19,-4,-14
-34,-9,24,21,-29,7,-19,-73,-29,-19,-4,-14
-24,-9,14,17,-19,2,-19,-73,-34,-24,0,-9
-19,-9,9,14,-14,0,-19,-78,-34,-24,4,0
-19,-14,4,17,-12,-4,-19,-78,-39,-24,4,0
-24,-19,4,21,-14,-7,-19,-82,-39,-24,0,0
-24,-19,4,21,-14,-7,-19,-87,-39,-24,0,-9
-29,-19,9,24,-19,-4,-14,-87,-43,-19,4,-14
-29,-19,9,24,-19,-4,-14,-87,-39,-19,4,-9
-29,-19,9,24,-19,-4,-14,-87,-39,-19,0,-9
-29,-24,4,26,-17,-9,-14,-92,-34,-24,0,-14
-24,-24,0,24,-12,-12,-14,-97,-34,-24,0,-14
-24,-24,0,24,-12,-12,-19,-97,-34,-24,-4,-14
-29,-24,4,26,-17,-9,-19,-97,-39,-24,-9,-14
-29,-24,4,26,-17,-9,-24,-97,-43,-34,-9,-14
-29,-24,4,26,-17,-9,-24,-97,-48,-39,-9,-14
-29,-24,4,26,-17,-9,-19,-97,-53,-39,-9,-14
-34,-24,9,29,-21,-7,-19,-107,-58,-39,-9,-19
-39,-24,14,31,-26,-4,-19,-107,-58,-39,-9,-19
-43,-24,19,34,-31,-2,-24,-107,-58,-39,-9,-19
-34,-19,14,26,-24,-2,-24,-107,-58,-34,-4,-14
-29,-14,14,21,-21,0,-29,-107,-58,-29,-4,-9
-29,-14,14,21,-21,0,-29,-107,-53,-29,-4,-9
-29,-19,9,24,-19,-4,-29,-107,-48,-29,-9,-9
-29,-19,9,24,-19,-4,-29,-107,-53,-34,-9,-9
-29,-19,9,24,-19,-4,-29,-107,-58,-39,-9,-9
-29,-19,9,24,-19,-4,-29,-107,-58,-39,-9,-9
-29,-19,9,24,-19,-4,-29,-107,-58,-39,-9,-9
-29,-19,9,24,-19,-4,-29,-107,-58,-34,-9,-9
-29,-19,9,24,-19,-4,-29,-107,-58,-29,-9,-9
-29,-19,9,24,-19,-4,-29,-107,-58,-29,-9,-9
-29,-19,9,24,-19,-4,-29,-107,-58,-29,-9,-9
-29,-19,9,24,-19,-4,-24,-107,-58,-34,-9,-9
-29,-19,9,24,-19,-4,-19,-107,-58,-39,-9,-9
-34,-24,9,29,-21,-7,-19,-107,-58,-39,-9,-9
-39,-29,9,34,-24,-9,-19,-107,-58,-39,-9,-9
-39,-29,9,34,-24,-9,-19,-107,-58,-39,-9,-9
-39,-29,9,34,-24,-9,-19,-107,-58,-39,-9,-9
-39,-24,14,31,-26,-4,-24,-107,-63,-39,-9,-9
-39,-19,19,29,-29,0,-29,-107,-68,-39,-9,-9
-34,-19,14,26,-24,-2,-29,-107,-68,-39,-9,-9
-29,-19,9,24,-19,-4,-29,-107,-68,-39,-9,-9
-19,-19,0,19,-9,-9,-29,-107,-68,-39,-9,-9
-9,-19,-9,14,0,-14,-29,-107,-68,-39,-9,-9
-19,-19,0,19,-9,-9,-29,-107,-68,-39,-9,-9
-29,-19,9,24,-19,-4,-29,-107,-68,-39,-9,-9
-29,-24,4,26,-17,-9,-29,-112,-68,-39,-9,-9
-29,-29,0,29,-14,-14,-29,-117,-68,-39,-9,-9
-34,-29,4,31,-19,-12,-29,-117,-68,-39,-9,-9
-39,-29,9,34,-24,-9,-29,-117,-68,-39,-9,-9
-39,-29,9,34,-24,-9,-29,-117,-68,-39,-9,-9
-39,-29,9,34,-24,-9,-29,-117,-68,-39,-9,-9
-34,-24,9,29,-21,-7,-29,-117,-68,-39,-9,-9
-29,-19,9,24,-19,-4,-29,-117,-68,-39,-9,-9
-29,-19,9,24,-19,-4,-29,-117,-68,-43,-9,-9
-29,-19,9,24,-19,-4,-29,-117,-68,-48,-9,-9
-29,-24,4,26,-17,-9,-29,-117,-68,-48,-9,-9
-29,-29,0,29,-14,-14,-29,-117,-68,-48,-9,-9
-29,-29,0,29,-14,-14,-29,-117,-68,-43,-9,-9
-29,-29,0,29,-14,-14,-29,-117,-68,-39,-9,-9
-29,-29,0,29,-14,-14,-29,-112,-68,-39,-9,-9
-29,-29,0,29,-14,-14,-29,-107,-68,-39,-9,-9
-29,-24,4,26,-17,-9,-29,-107,-63,-39,-9,-9
-29,-19,9,24,-19,-4,-29,-107,-58,-39,-9,-9
-24,-19,4,21,-14,-7,-24,-112,-58,-39,-4,-4
-19,-19,0,19,-9,-9,-19,-117,-58,-39,0,0
-19,-19,0,19,-9,-9,-19,-117,-58,-39,0,0
-19,-19,0,19,-9,-9,-19,-117,-58,-39,0,0
-24,-19,4,21,-14,-7,-19,-112,-58,-34,0,0
-29,-19,9,24,-19,-4,-19,-107,-58,-29,0,0
-29,-19,9,24,-19,-4,-19,-107,-58,-29,0,0
-29,-19,9,24,-19,-4,-19,-107,-58,-29,0,0
-29,-19,9,24,-19,-4,-19,-107,-63,-34,0,-4
-29,-19,9,24,-19,-4,-19,-107,-68,-39,0,-9
-29,-24,4,26,-17,-9,-24,-107,-68,-39,0,-9
-29,-29,0,29,-14,-14,-29,-107,-68,-39,0,-9
-29,-29,0,29,-14,-14,-29,-107,-63,-39,0,-9
-29,-29,0,29,-14,-14,-29,-107,-58,-39,0,-9
-29,-29,0,29,-14,-14,-24,-107,-58,-39,0,-4
-29,-29,0,29,-14,-14,-19,-107,-58,-39,0,0
-29,-29,0,29,-14,-14,-19,-107,-58,-39,0,0
-29,-29,0,29,-14,-14,-19,-107,-58,-39,0,0
-29,-29,0,29,-14,-14,-19,-107,-58,-34,0,0
-29,-29,0,29,-14,-14,-19,-107,-58,-29,0,0
-29,-29,0,29,-14,-14,-19,-107,-58,-29,0,0
-29,-29,0,29,-14,-14,-19,-107,-58,-29,0,0
-29,-24,4,26,-17,-9,-14,-102,-53,-24,0,4
-29,-19,9,24,-19,-4,-9,-97,-48,-19,0,9
-19,-4,14,12,-17,4,-9,-92,-43,-14,4,9
-9,9,19,0,-14,14,-9,-87,-39,-9,9,9
-9,14,24,-2,-17,19,-4,-82,-29,-4,19,14
-9,19,29,-4,-19,24,0,-78,-19,0,29,19
-9,24,34,-7,-21,29,14,-68,-9,4,29,19
-9,29,39,-9,-24,34,29,-58,0,9,29,19
-4,34,39,-14,-21,36,29,-53,4,14,34,19
0,39,39,-19,-19,39,29,-48,9,19,39,19
9,48,39,-29,-14,43,24,-39,9,24,43,29
19,58,39,-39,-9,48,19,-29,9,29,48,39
19,73,53,-46,-17,63,9,-39,9,29,53,43
19,87,68,-53,-24,78,0,-48,9,29,58,48
19,87,68,-53,-24,78,-24,-68,0,24,58,48
19,87,68,-53,-24,78,-48,-87,-9,19,58,48
19,78,58,-48,-19,68,-53,-92,-19,14,53,48
24,78,53,-51,-14,65,-58,-92,-24,14,48,53
29,82,53,-56,-12,68,-68,-97,-29,14,48,58
34,87,53,-61,-9,70,-78,-97,-29,19,58,58
34,92,58,-63,-12,75,-78,-102,-34,19,58,58
34,82,48,-58,-7,65,-78,-112,-48,4,48,53
24,58,34,-41,-4,46,-68,-112,-68,-14,39,43
14,39,24,-26,-4,31,-63,-117,-82,-34,29,34
-4,9,14,-2,-9,12,-48,-117,-73,-29,14,24
-24,0,24,12,-24,12,-39,-117,-63,-19,14,19
-29,-4,24,17,-26,9,-34,-117,-63,-24,19,14
-34,-19,14,26,-24,-2,-34,-122,-68,-34,9,4
-34,-24,9,29,-21,-7,-34,-122,-68,-34,4,-4
-39,-34,4,36,-21,-14,-39,-122,-78,-43,4,-9
-43,-43,0,43,-21,-21,-43,-136,-82,-48,-9,-9
-48,-48,0,48,-24,-24,-43,-136,-87,-53,-14,-19
-43,-48,-4,46,-19,-26,-43,-136,-87,-53,-14,-19
-39,-48,-9,43,-14,-29,-43,-136,-87,-53,-14,-14
-34,-53,-19,43,-7,-36,-43,-136,-92,-53,-19,-14
-34,-63,-29,48,-2,-46,-48,-136,-97,-53,-19,-19
-29,-63,-34,46,2,-48,-48,-136,-97,-58,-24,-19
-29,-63,-34,46,2,-48,-43,-136,-97,-58,-24,-19
-34,-63,-29,48,-2,-46,-39,-136,-92,-53,-24,-19
-39,-63,-24,51,-7,-43,-34,-136,-92,-53,-24,-19
-39,-68,-29,53,-4,-48,-34,-131,-92,-53,-19,-19
-39,-68,-29,53,-4,-48,-29,-131,-87,-53,-19,-19
-39,-68,-29,53,-4,-48,-34,-131,-87,-53,-19,-19
-39,-63,-24,51,-7,-43,-39,-131,-87,-53,-24,-19
-39,-58,-19,48,-9,-39,-39,-131,-87,-58,-24,-19
-39,-53,-14,46,-12,-34,-39,-131,-87,-63,-19,-19
-39,-53,-14,46,-12,-34,-39,-131,-87,-63,-19,-19
-39,-53,-14,46,-12,-34,-39,-126,-87,-63,-19,-19
-39,-48,-9,43,-14,-29,-39,-126,-82,-58,-14,-19
-39,-48,-9,43,-14,-29,-39,-126,-82,-53,-9,-19
-34,-53,-19,43,-7,-36,-43,-122,-82,-58,-24,-34
-63,-58,4,61,-34,-26,-14,-141,-82,-82,-43,-48
-156,-78,78,117,-117,0,73,-204,-78,-151,-87,-97
-234,-126,107,180,-170,-9,180,-234,-78,-244,-165,-165
-263,-185,78,224,-170,-53,278,-224,-87,-292,-239,-239
-253,-161,92,207,-173,-34,331,-136,0,-214,-190,-229
-195,-58,136,126,-165,39,370,175,253,29,-19,-146
-78,131,209,-26,-143,170,356,375,439,307,204,-4
156,429,273,-292,-58,351,278,488,590,692,522,239
434,673,239,-553,97,456,136,629,688,1024,810,478
692,863,170,-778,261,517,-117,541,556,1176,995,717
702,873,170,-788,265,522,-361,141,351,1024,1005,893
566,756,190,-661,187,473,-595,-336,146,883,1034,1063
634,234,-400,-434,517,-82,-810,-507,-326,448,736,976
653,-326,-980,-163,817,-653,-1039,-1029,-1010,-200,209,678
478,-741,-1220,131,849,-980,-1044,-1444,-1444,-766,-234,326
136,-893,-1029,378,583,-961,-824,-1551,-1546,-1024,-488,39
-53,-829,-775,441,361,-802,-605,-1312,-1327,-922,-473,-58
-112,-624,-512,368,200,-568,-341,-805,-844,-614,-336,-78
-112,-517,-405,314,146,-461,-151,-458,-522,-424,-292,-122
-92,-380,-287,236,97,-334,-92,-278,-326,-273,-209,-131
-68,-283,-214,175,73,-248,-58,-156,-204,-175,-146,-126
-58,-248,-190,153,65,-219,4,-78,-131,-141,-131,-102
-48,-200,-151,124,51,-175,43,-14,-68,-97,-112,-92
-43,-141,-97,92,26,-119,43,4,-34,-68,-73,-73
-43,-117,-73,80,14,-95,43,14,-19,-48,-48,-63
-48,-126,-78,87,14,-102,53,14,-19,-48,-53,-63
-48,-126,-78,87,14,-102,63,29,-4,-48,-48,-58
-48,-117,-68,82,9,-92,63,34,0,-39,-48,-58
-43,-102,-58,73,7,-80,63,34,4,-39,-39,-58
-43,-102,-58,73,7,-80,58,34,4,-39,-39,-63
-43,-102,-58,73,7,-80,58,34,4,-39,-39,-63
-39,-97,-58,68,9,-78,63,39,9,-39,-39,-63
-39,-87,-48,63,4,-68,63,39,14,-34,-39,-63
-39,-87,-48,63,4,-68,63,48,14,-34,-43,-63
-39,-87,-48,63,4,-68,63,48,14,-34,-48,-63
-39,-87,-48,63,4,-68,63,48,14,-34,-48,-68
-43,-87,-43,65,0,-65,63,48,14,-34,-48,-68
-43,-87,-43,65,0,-65,68,53,9,-34,-48,-68
-43,-87,-43,65,0,-65,68,53,9,-34,-43,-68
-43,-87,-43,65,0,-65,68,53,19,-29,-43,-68
-43,-87,-43,65,0,-65,68,53,19,-29,-43,-68
-48,-92,-43,70,-2,-68,63,48,24,-39,-43,-73
-48,-92,-43,70,-2,-68,63,48,29,-43,-43,-78
-48,-92,-43,70,-2,-68,63,53,29,-43,-48,-78
-48,-92,-43,70,-2,-68,63,53,29,-39,-48,-78
-48,-92,-43,70,-2,-68,63,58,34,-34,-48,-73
-48,-92,-43,70,-2,-68,68,63,39,-29,-48,-68
-48,-92,-43,70,-2,-68,73,68,43,-29,-48,-68
-48,-92,-43,70,-2,-68,73,73,48,-29,-43,-73
-53,-92,-39,73,-7,-65,73,78,48,-29,-48,-78
-58,-92,-34,75,-12,-63,78,82,48,-24,-48,-82
-58,-87,-29,73,-14,-58,78,78,48,-29,-53,-82
-58,-87,-29,73,-14,-58,78,82,48,-39,-58,-82
-58,-92,-34,75,-12,-63,87,87,48,-39,-58,-82
-58,-92,-34,75,-12,-63,87,87,48,-39,-58,-87
-58,-92,-34,75,-12,-63,92,97,53,-39,-58,-92
-58,-92,-34,75,-12,-63,92,102,53,-39,-58,-92
-58,-92,-34,75,-12,-63,102,112,63,-39,-58,-97
-63,-92,-29,78,-17,-61,112,117,68,-34,-63,-97
-68,-97,-29,82,-19,-63,117,122,68,-34,-63,-102
-68,-102,-34,85,-17,-68,122,126,73,-34,-63,-102
-68,-102,-34,85,-17,-68,122,136,78,-34,-63,-102
-68,-107,-39,87,-14,-73,126,146,87,-29,-58,-102
-63,-102,-39,82,-12,-70,131,161,87,-29,-58,-102
-63,-102,-39,82,-12,-70,141,170,92,-29,-63,-97
-63,-107,-43,85,-9,-75,141,175,102,-24,-68,-102
-63,-107,-43,85,-9,-75,146,185,112,-19,-73,-102
-63,-107,-43,85,-9,-75,141,204,122,-9,-68,-107
-63,-112,-48,87,-7,-80,146,219,126,-9,-68,-112
-63,-112,-48,87,-7,-80,151,244,131,-9,-68,-112
-63,-112,-48,87,-7,-80,156,258,141,0,-68,-117
-68,-107,-39,87,-14,-73,170,273,151,0,-68,-117
-73,-107,-34,90,-19,-70,175,292,165,9,-68,-112
-73,-107,-34,90,-19,-70,190,317,180,19,-68,-112
-73,-107,-34,90,-19,-70,200,346,200,24,-73,-117
-68,-117,-48,92,-9,-82,209,375,209,34,-73,-117
-63,-122,-58,92,-2,-90,219,405,229,39,-73,-117
-63,-122,-58,92,-2,-90,224,439,239,53,-73,-117
-58,-122,-63,90,2,-92,239,478,253,63,-68,-117
-58,-122,-63,90,2,-92,239,507,273,73,-68,-117
-48,-126,-78,87,14,-102,244,541,292,82,-63,-122
-43,-126,-82,85,19,-104,253,585,307,92,-63,-122
-43,-126,-82,85,19,-104,263,624,331,117,-63,-117
-48,-126,-78,87,14,-102,268,668,351,131,-58,-117
-39,-122,-82,80,21,-102,273,717,370,151,-53,-117
-34,-122,-87,78,26,-104,273,766,390,161,-43,-117
-29,-122,-92,75,31,-107,273,800,409,185,-39,-107
-14,-112,-97,63,41,-104,273,839,434,200,-24,-97
-9,-107,-97,58,43,-102,268,873,458,224,-14,-92
4,-92,-97,43,51,-95,268,897,468,244,-4,-82
19,-82,-102,31,61,-92,263,917,478,258,9,-73
24,-78,-102,26,63,-90,253,927,483,273,14,-68
34,-68,-102,17,68,-85,234,932,483,283,19,-58
48,-48,-97,0,73,-73,219,922,488,292,29,-48
48,-34,-82,-7,65,-58,200,902,478,297,43,-29
53,-19,-73,-17,63,-46,170,858,468,297,63,-19
58,0,-58,-29,58,-29,151,810,444,297,73,-9
58,19,-39,-39,48,-9,122,756,414,292,87,9
63,34,-29,-48,46,2,97,683,380,283,97,24
63,48,-14,-56,39,17,73,595,341,268,102,34
73,58,-14,-65,43,21,53,522,302,244,107,48
78,68,-9,-73,43,29,34,444,258,224,107,63
78,78,0,-78,39,39,19,370,224,204,107,73
73,82,9,-78,31,46,4,302,180,185,112,73
68,87,19,-78,24,53,-9,244,151,161,107,73
68,87,19,-78,24,53,-14,200,122,136,107,73
63,73,9,-68,26,41,-19,146,97,117,102,73
58,73,14,-65,21,43,-34,102,73,97,87,68
48,73,24,-61,12,48,-39,73,53,82,78,68
43,63,19,-53,12,41,-43,48,29,78,78,63
43,63,19,-53,12,41,-43,19,9,58,68,53
43,58,14,-51,14,36,-43,-4,-4,48,68,43
34,53,19,-43,7,36,-39,-29,-14,39,58,43
34,48,14,-41,9,31,-39,-39,-19,29,53,43
29,48,19,-39,4,34,-39,-48,-29,19,53,39
24,48,24,-36,0,36,-39,-58,-34,14,43,39
24,43,19,-34,2,31,-39,-68,-34,9,39,29
24,39,14,-31,4,26,-39,-73,-39,0,34,29
19,29,9,-24,4,19,-39,-73,-43,0,24,29
19,29,9,-24,4,19,-34,-82,-43,0,19,24
19,29,9,-24,4,19,-34,-87,-43,-4,19,14
19,24,4,-21,7,14,-34,-87,-48,-4,19,14
19,24,4,-21,7,14,-34,-92,-53,-4,19,9
19,19,0,-19,9,9,-34,-92,-53,-4,19,9
14,19,4,-17,4,12,-29,-87,-53,-9,14,9
14,19,4,-17,4,12,-29,-87,-48,-14,9,9
14,24,9,-19,2,17,-29,-87,-48,-24,9,4
14,24,9,-19,2,17,-29,-87,-43,-24,9,4
14,24,9,-19,2,17,-29,-87,-39,-24,9,4
9,19,9,-14,0,14,-24,-82,-39,-24,9,4
9,19,9,-14,0,14,-24,-78,-34,-24,9,4
9,19,9,-14,0,14,-19,-73,-34,-24,9,9
9,14,4,-12,2,9,-19,-73,-39,-24,9,9
4,9,4,-7,0,7,-19,-68,-34,-24,9,9
4,9,4,-7,0,7,-9,-68,-34,-24,4,9
4,9,4,-7,0,7,-9,-63,-34,-24,4,9
4,9,4,-7,0,7,-9,-63,-34,-24,4,9
4,9,4,-7,0,7,-4,-58,-29,-19,4,9
0,9,9,-4,-4,9,-4,-58,-24,-14,4,9
-4,4,9,0,-7,7,-4,-58,-24,-9,0,9
-4,4,9,0,-7,7,0,-53,-24,-9,0,4
0,4,4,-2,-2,4,0,-53,-24,-9,0,0
4,4,0,-4,2,2,0,-48,-19,-9,-4,0
4,4,0,-4,2,2,0,-39,-14,-9,0,0
4,4,0,-4,2,2,0,-34,-14,-4,4,0
4,4,0,-4,2,2,4,-34,-14,-4,4,0
4,4,0,-4,2,2,4,-29,-9,0,9,0
4,4,0,-4,2,2,4,-24,-4,0,9,0
4,9,4,-7,0,7,4,-24,-4,0,9,0
0,9,9,-4,-4,9,0,-24,0,0,14,0
0,9,9,-4,-4,9,-4,-19,9,4,14,0
0,4,4,-2,-2,4,0,-19,9,4,14,0
0,4,4,-2,-2,4,0,-14,9,9,14,0
0,4,4,-2,-2,4,-4,-14,14,9,14,0
0,9,9,-4,-4,9,-4,-14,14,9,14,0
0,14,14,-7,-7,14,-4,-14,14,9,14,4
0,19,19,-9,-9,19,-4,-14,9,9,14,4
0,19,19,-9,-9,19,-4,-14,9,14,14,4
-4,14,19,-4,-12,17,-4,-14,9,14,14,4
-4,14,19,-4,-12,17,-4,-14,4,9,14,4
-4,14,19,-4,-12,17,-9,-14,0,9,14,4
0,14,14,-7,-7,14,-9,-19,0,9,14,4
0,14,14,-7,-7,14,-9,-19,0,9,14,4
0,14,14,-7,-7,14,-14,-24,0,9,14,4
0,14,14,-7,-7,14,-14,-24,0,9,14,4
0,14,14,-7,-7,14,-14,-29,0,9,14,4
0,14,14,-7,-7,14,-14,-43,-4,4,14,0
0,14,14,-7,-7,14,-14,-43,-9,4,14,0
0,14,14,-7,-7,14,-14,-48,-9,0,14,0
-4,9,14,-2,-9,12,-19,-48,-14,0,14,0
-4,9,14,-2,-9,12,-24,-58,-19,-4,9,0
-4,9,14,-2,-9,12,-19,-58,-19,-4,9,0
-4,9,14,-2,-9,12,-14,-63,-24,-4,9,0
-4,9,14,-2,-9,12,-19,-68,-24,-4,4,4
-4,9,14,-2,-9,12,-19,-68,-29,-9,4,4
-4,9,14,-2,-9,12,-19,-73,-29,-9,4,4
0,9,9,-4,-4,9,-19,-73,-34,-14,4,4
0,9,9,-4,-4,9,-19,-78,-34,-14,4,9
0,9,9,-4,-4,9,-19,-78,-39,-14,4,9
-4,4,9,0,-7,7,-19,-82,-39,-14,0,9
-4,0,4,2,-4,2,-24,-87,-39,-19,0,4
-9,0,9,4,-9,4,-24,-87,-43,-24,4,0
-9,0,9,4,-9,4,-24,-87,-43,-29,4,0
-9,4,14,2,-12,9,-24,-92,-48,-29,0,0
-9,4,14,2,-12,9,-24,-102,-48,-34,0,-4
-4,4,9,0,-7,7,-24,-107,-53,-29,0,-4
0,4,4,-2,-2,4,-29,-107,-53,-24,0,-4
0,4,4,-2,-2,4,-29,-102,-58,-24,0,0
0,4,4,-2,-2,4,-34,-97,-58,-29,0,4
0,4,4,-2,-2,4,-34,-97,-58,-29,0,4
0,4,4,-2,-2,4,-29,-97,-58,-29,0,4
-4,4,9,0,-7,7,-29,-107,-58,-29,0,0
-4,4,9,0,-7,7,-29,-107,-58,-29,0,0
-4,4,9,0,-7,7,-34,-107,-63,-29,0,-4
-4,4,9,0,-7,7,-34,-107,-68,-29,-4,-9
-4,4,9,0,-7,7,-34,-112,-68,-29,0,-4
-9,9,19,0,-14,14,-39,-117,-68,-29,0,0
-9,9,19,0,-14,14,-39,-117,-68,-29,0,0
-9,9,19,0,-14,14,-39,-117,-68,-29,0,0
-9,9,19,0,-14,14,-39,-117,-68,-34,0,0
-9,9,19,0,-14,14,-39,-117,-68,-39,0,0
-9,9,19,0,-14,14,-39,-117,-68,-39,-4,-4
-9,9,19,0,-14,14,-39,-117,-68,-39,-9,-9
-9,9,19,0,-14,14,-39,-117,-68,-39,-9,-9
-9,9,19,0,-14,14,-39,-117,-68,-39,-9,-9
-9,9,19,0,-14,14,-39,-117,-73,-39,-9,-9
-9,9,19,0,-14,14,-39,-117,-78,-39,-9,-9
-9,9,19,0,-14,14,-39,-117,-78,-39,-9,-4
-9,9,19,0,-14,14,-39,-117,-78,-39,-9,0
-9,9,19,0,-14,14,-39,-117,-78,-39,-9,0
-9,9,19,0,-14,14,-39,-117,-78,-39,-9,0
-9,9,19,0,-14,14,-43,-122,-78,-39,-9,-4
-9,9,19,0,-14,14,-48,-126,-78,-39,-9,-9
-9,9,19,0,-14,14,-48,-126,-78,-39,-9,-9
-9,9,19,0,-14,14,-48,-126,-78,-39,-9,-9
-9,9,19,0,-14,14,-48,-126,-78,-39,-9,-9
-9,9,19,0,-14,14,-48,-126,-78,-39,-9,-9
-9,9,19,0,-14,14,-48,-126,-78,-39,-9,-9
-9,9,19,0,-14,14,-48,-126,-78,-39,-9,-9
-9,9,19,0,-14,14,-48,-126,-78,-39,-9,-9
-9,9,19,0,-14,14,-48,-126,-78,-39,-9,-9
-9,14,24,-2,-17,19,-48,-126,-78,-39,-9,-9
-9,19,29,-4,-19,24,-48,-126,-78,-39,-9,-9
-9,19,29,-4,-19,24,-48,-126,-78,-39,-9,-9
-9,19,29,-4,-19,24,-48,-126,-78,-39,-9,-9
-9,14,24,-2,-17,19,-48,-126,-78,-39,-9,-9
-9,9,19,0,-14,14,-48,-126,-78,-39,-9,-9
-9,9,19,0,-14,14,-48,-126,-78,-39,-9,-4
-9,9,19,0,-14,14,-48,-126,-78,-39,-9,0
-9,9,19,0,-14,14,-48,-126,-78,-39,-9,0
-9,9,19,0,-14,14,-48,-126,-78,-39,-9,0
-14,9,24,2,-19,17,-48,-126,-78,-39,-9,0
-19,9,29,4,-24,19,-48,-126,-78,-39,-9,0
-19,9,29,4,-24,19,-48,-126,-78,-39,-9,0
-19,9,29,4,-24,19,-48,-126,-78,-39,-9,0
-9,9,19,0,-14,14,-48,-126,-78,-39,-9,0
0,9,9,-4,-4,9,-48,-126,-78,-39,-9,0
0,9,9,-4,-4,9,-48,-126,-78,-39,-9,0
0,9,9,-4,-4,9,-48,-126,-78,-39,-9,0
-4,9,14,-2,-9,12,-48,-126,-78,-39,-9,0
-9,9,19,0,-14,14,-48,-126,-78,-39,-9,0
-9,9,19,0,-14,14,-48,-126,-78,-39,-9,0
-9,9,19,0,-14,14,-48,-126,-78,-39,-9,0
-9,9,19,0,-14,14,-48,-126,-78,-39,-9,0
-9,9,19,0,-14,14,-48,-126,-78,-39,-9,0
-9,9,19,0,-14,14,-48,-126,-78,-39,-9,0
-9,9,19,0,-14,14,-48,-126,-78,-39,-9,0
-9,9,19,0,-14,14,-48,-126,-78,-39,-14,0
-9,9,19,0,-14,14,-48,-126,-78,-39,-19,0
-9,9,19,0,-14,14,-48,-126,-78,-39,-19,0
-9,9,19,0,-14,14,-48,-126,-78,-39,-19,0
-9,9,19,0,-14,14,-48,-126,-78,-39,-14,0
-9,9,19,0,-14,14,-48,-126,-78,-39,-9,0
-9,9,19,0,-14,14,-48,-126,-78,-39,-9,0
-9,9,19,0,-14,14,-48,-126,-78,-39,-9,0
-9,9,19,0,-14,14,-48,-126,-78,-39,-9,0
-9,9,19,0,-14,14,-48,-126,-78,-39,-9,0
-9,9,19,0,-14,14,-48,-126,-78,-39,-9,0
-9,9,19,0,-14,14,-48,-126,-78,-39,-9,0
-9,9,19,0,-14,14,-48,-126,-78,-39,-9,0
-9,9,19,0,-14,14,-48,-126,-78,-39,-9,0
-9,9,19,0,-14,14,-53,-126,-78,-39,-9,0
-9,9,19,0,-14,14,-58,-126,-78,-39,-9,0
-4,9,14,-2,-9,12,-58,-126,-78,-39,-9,0
0,9,9,-4,-4,9,-58,-126,-78,-39,-9,0
0,14,14,-7,-7,14,-48,-122,-73,-34,-4,4
0,19,19,-9,-9,19,-39,-117,-68,-29,0,9
4,39,34,-21,-14,36,-34,-112,-53,-24,4,14
9,58,48,-34,-19,53,-29,-107,-39,-19,9,19
14,68,53,-41,-19,61,-24,-97,-34,-9,19,24
19,78,58,-48,-19,68,-19,-87,-29,0,29,29
19,78,58,-48,-19,68,-9,-78,-24,0,29,29
19,78,58,-48,-19,68,0,-68,-19,0,29,29
24,78,53,-51,-14,65,0,-63,-14,4,29,34
29,78,48,-53,-9,63,0,-58,-9,9,29,39
39,87,48,-63,-4,68,-4,-58,-4,14,39,43
48,97,48,-73,0,73,-9,-58,0,19,48,48
48,107,58,-78,-4,82,-19,-58,0,19,48,53
48,117,68,-82,-9,92,-29,-58,0,19,48,58
48,117,68,-82,-9,92,-48,-82,-14,19,48,58
48,117,68,-82,-9,92,-68,-107,-29,19,48,58
43,112,68,-78,-12,90,-73,-112,-39,9,43,58
43,117,73,-80,-14,95,-78,-112,-43,4,39,63
48,122,73,-85,-12,97,-87,-117,-48,4,39,68
53,126,73,-90,-9,100,-97,-117,-48,9,48,68
53,136,82,-95,-14,109,-97,-122,-48,14,53,68
53,131,78,-92,-12,104,-97,-131,-58,4,48,63
43,107,63,-75,-9,85,-87,-131,-68,-4,39,58
34,87,53,-61,-9,70,-82,-136,-73,-14,29,53
14,58,43,-36,-14,51,-73,-136,-73,-19,14,43
-4,48,53,-21,-29,51,-68,-136,-73,-19,14,39
-9,39,48,-14,-29,43,-63,-136,-73,-24,14,29
-14,19,34,-2,-24,26,-63,-141,-78,-34,0,14
-14,14,29,0,-21,21,-58,-141,-78,-34,-4,4
-19,4,24,7,-21,14,-58,-141,-87,-43,-4,0
-24,-4,19,14,-21,7,-63,-156,-97,-53,-14,0
-29,-9,19,19,-24,4,-63,-156,-107,-63,-14,-9
-29,-9,19,19,-24,4,-63,-156,-107,-63,-14,-9
-29,-9,19,19,-24,4,-63,-156,-107,-63,-14,-4
-24,-14,9,19,-17,-2,-63,-156,-107,-63,-19,-4
-24,-24,0,24,-12,-12,-68,-156,-107,-63,-19,-9
-19,-24,-4,21,-7,-14,-68,-156,-107,-68,-24,-9
-19,-24,-4,21,-7,-14,-63,-156,-107,-68,-24,-9
-19,-24,-4,21,-7,-14,-63,-156,-107,-63,-24,-14
-19,-24,-4,21,-7,-14,-63,-156,-112,-63,-24,-19
-19,-24,-4,21,-7,-14,-63,-151,-112,-63,-24,-19
-19,-19,0,19,-9,-9,-58,-151,-107,-63,-29,-19
-14,-19,-4,17,-4,-12,-58,-151,-107,-63,-29,-19
-9,-14,-4,12,-2,-9,-58,-151,-107,-63,-34,-19
-9,-14,-4,12,-2,-9,-58,-151,-107,-63,-34,-19
-9,-14,-4,12,-2,-9,-58,-151,-107,-63,-29,-19
-9,-14,-4,12,-2,-9,-58,-151,-107,-63,-29,-19
-9,-14,-4,12,-2,-9,-58,-146,-107,-63,-29,-19
-4,-9,-4,7,0,-7,-58,-146,-102,-58,-24,-14
0,-9,-9,4,4,-9,-58,-146,-102,-53,-19,-9
4,-14,-19,4,12,-17,-68,-141,-102,-53,-24,-14
-24,-19,4,21,-14,-7,-43,-161,-102,-73,-34,-19
-126,-19,107,73,-117,43,43,-244,-107,-141,-78,-68
-214,-48,165,131,-190,58,151,-292,-117,-234,-156,-136
-263,-126,136,195,-200,4,253,-307,-146,-317,-248,-219
-273,-122,151,197,-212,14,312,-244,-78,-273,-219,-219
-239,-39,200,139,-219,80,380,82,195,-43,-68,-156
-146,131,278,7,-212,204,395,297,400,219,136,-34
107,439,331,-273,-112,385,317,468,580,624,448,200
405,692,287,-549,58,490,175,668,707,976,732,429
732,907,175,-819,278,541,-117,629,570,1171,941,653
810,941,131,-875,339,536,-400,278,361,1063,976,814
634,834,200,-734,217,517,-649,-253,175,932,1010,990
663,322,-341,-492,502,-9,-878,-478,-278,507,717,907
727,-336,-1063,-195,895,-700,-1127,-1024,-1019,-195,161,610
595,-849,-1444,126,1019,-1146,-1151,-1464,-1512,-814,-312,258
224,-1015,-1239,395,732,-1127,-927,-1644,-1664,-1117,-585,-29
4,-966,-971,480,488,-968,-702,-1478,-1493,-1058,-590,-126
-78,-712,-634,395,278,-673,-405,-922,-956,-707,-414,-112
-102,-556,-453,329,175,-505,-180,-527,-580,-473,-331,-122
-82,-375,-292,229,104,-334,-102,-307,-351,-297,-229,-122
-58,-234,-175,146,58,-204,-48,-146,-195,-175,-146,-107
-53,-204,-151,129,48,-178,9,-73,-122,-141,-126,-82
-48,-161,-112,104,31,-136,43,-14,-58,-97,-102,-73
-43,-102,-58,73,7,-80,43,0,-34,-73,-73,-58
-43,-78,-34,61,-4,-56,43,4,-29,-58,-58,-53
-48,-87,-39,68,-4,-63,48,4,-29,-58,-68,-53
-48,-87,-39,68,-4,-63,53,19,-14,-58,-68,-48
-48,-78,-29,63,-9,-53,53,24,-9,-48,-68,-48
-43,-63,-19,53,-12,-41,53,24,-4,-48,-58,-48
-43,-63,-19,53,-12,-41,48,24,-4,-48,-58,-53
-43,-63,-19,53,-12,-41,48,24,-4,-48,-58,-53
-39,-68,-29,53,-4,-48,53,29,0,-48,-53,-53
-39,-68,-29,53,-4,-48,53,29,4,-43,-48,-53
-39,-68,-29,53,-4,-48,53,39,9,-43,-48,-53
-39,-68,-29,53,-4,-48,53,39,14,-43,-48,-53
-39,-63,-24,51,-7,-43,53,39,14,-43,-48,-58
-43,-58,-14,51,-14,-36,53,39,14,-43,-48,-58
-43,-58,-14,51,-14,-36,63,48,14,-43,-53,-58
-43,-58,-14,51,-14,-36,68,53,19,-43,-53,-58
-43,-58,-14,51,-14,-36,68,53,29,-39,-53,-58
-43,-58,-14,51,-14,-36,68,53,29,-39,-53,-58
-48,-63,-14,56,-17,-39,68,53,29,-43,-58,-58
-48,-63,-14,56,-17,-39,73,58,29,-43,-63,-58
-48,-63,-14,56,-17,-39,73,63,29,-43,-63,-58
-48,-63,-14,56,-17,-39,73,63,29,-39,-58,-58
-48,-63,-14,56,-17,-39,73,63,29,-39,-58,-58
-48,-63,-14,56,-17,-39,78,63,29,-39,-58,-58
-48,-63,-14,56,-17,-39,82,63,34,-39,-63,-58
-48,-63,-14,56,-17,-39,82,63,39,-39,-63,-63
-53,-63,-9,58,-21,-36,78,68,43,-39,-68,-63
-58,-63,-4,61,-26,-34,78,73,48,-34,-68,-63
-58,-63,-4,61,-26,-34,78,78,53,-34,-68,-63
-58,-68,-9,63,-24,-39,78,92,58,-39,-68,-63
-58,-78,-19,68,-19,-48,87,97,63,-34,-68,-63
-58,-82,-24,70,-17,-53,87,97,68,-29,-68,-68
-58,-82,-24,70,-17,-53,97,107,73,-29,-68,-73
-58,-82,-24,70,-17,-53,102,112,73,-29,-68,-73
-58,-82,-24,70,-17,-53,107,122,82,-29,-68,-78
-63,-82,-19,73,-21,-51,112,126,87,-24,-73,-78
-68,-87,-19,78,-24,-53,112,131,87,-24,-73,-82
-68,-92,-24,80,-21,-58,112,136,92,-24,-73,-82
-68,-92,-24,80,-21,-58,112,146,92,-24,-78,-82
-68,-97,-29,82,-19,-63,117,156,97,-19,-78,-82
-68,-92,-24,80,-21,-58,122,170,102,-19,-73,-87
-73,-92,-19,82,-26,-56,131,180,112,-19,-73,-87
-73,-97,-24,85,-24,-61,136,190,122,-14,-73,-92
-73,-97,-24,85,-24,-61,146,204,131,-9,-73,-92
-73,-97,-24,85,-24,-61,146,219,141,0,-73,-92
-73,-102,-29,87,-21,-65,156,229,146,0,-78,-92
-78,-102,-24,90,-26,-63,161,253,156,-4,-78,-92
-82,-102,-19,92,-31,-61,165,268,170,0,-78,-97
-82,-102,-19,92,-31,-61,180,287,175,0,-78,-107
-82,-107,-24,95,-29,-65,185,312,185,9,-78,-112
-78,-107,-29,92,-24,-68,195,336,200,19,-73,-112
-73,-107,-34,90,-19,-70,200,366,219,24,-73,-117
-73,-112,-39,92,-17,-75,209,395,229,34,-73,-117
-73,-112,-39,92,-17,-75,219,424,248,39,-73,-117
-78,-112,-34,95,-21,-73,229,453,263,53,-73,-117
-78,-112,-34,95,-21,-73,248,488,283,63,-68,-117
-78,-107,-29,92,-24,-68,253,522,302,73,-68,-117
-68,-107,-39,87,-14,-73,263,561,322,82,-63,-122
-63,-107,-43,85,-9,-75,273,605,336,92,-63,-122
-63,-107,-43,85,-9,-75,283,644,361,117,-63,-117
-63,-107,-43,85,-9,-75,292,688,385,131,-58,-117
-48,-102,-53,75,2,-78,302,736,409,151,-53,-117
-43,-102,-58,73,7,-80,302,785,429,161,-48,-117
-39,-102,-63,70,12,-82,302,819,448,185,-48,-107
-29,-97,-68,63,19,-82,302,858,473,200,-34,-97
-29,-97,-68,63,19,-82,297,893,497,224,-24,-92
-19,-82,-63,51,21,-73,292,922,507,244,-14,-82
-9,-73,-63,41,26,-68,283,946,517,258,0,-73
-14,-63,-48,39,17,-56,273,961,527,273,14,-63
-14,-48,-34,31,9,-41,253,971,531,283,29,-48
4,-29,-34,12,19,-31,239,966,536,297,39,-39
9,-14,-24,2,17,-19,219,951,527,307,53,-19
19,0,-19,-9,19,-9,190,902,517,307,68,-9
29,19,-9,-24,19,4,170,849,492,307,73,0
34,39,4,-36,14,21,141,800,458,297,87,19
43,53,9,-48,17,31,117,732,419,283,97,34
43,68,24,-56,9,46,92,634,380,273,102,43
53,78,24,-65,14,51,73,551,341,253,107,58
58,87,29,-73,14,58,48,473,292,234,107,68
58,97,39,-78,9,68,29,400,253,214,107,73
53,97,43,-75,4,70,14,326,204,195,107,73
48,97,48,-73,0,73,0,263,170,170,97,73
53,107,53,-80,0,80,-9,219,141,146,102,73
53,102,48,-78,2,75,-19,165,117,126,102,73
53,102,48,-78,2,75,-29,117,87,107,87,68
48,102,53,-75,-2,78,-29,82,63,92,78,68
43,87,43,-65,0,65,-39,58,43,87,73,68
43,82,39,-63,2,61,-43,29,29,68,58,63
43,78,34,-61,4,56,-48,4,9,53,58,53
34,73,39,-53,-2,56,-48,-19,-4,39,48,53
34,63,29,-48,2,46,-48,-29,-9,29,43,48
29,58,29,-43,0,43,-48,-39,-19,19,43,39
24,58,34,-41,-4,46,-48,-53,-29,14,34,39
24,53,29,-39,-2,41,-48,-68,-34,9,29,29
24,48,24,-36,0,36,-48,-73,-39,0,29,29
19,39,19,-29,0,29,-48,-73,-43,0,24,29
19,39,19,-29,0,29,-43,-78,-43,0,19,29
19,39,19,-29,0,29,-43,-78,-43,-4,19,24
19,34,14,-26,2,24,-43,-78,-48,-4,19,24
19,34,14,-26,2,24,-43,-82,-53,-4,19,19
19,29,9,-24,4,19,-43,-82,-48,-4,19,19
14,29,14,-21,0,21,-39,-78,-43,-9,14,19
14,29,14,-21,0,21,-39,-78,-39,-9,9,19
14,34,19,-24,-2,26,-39,-78,-39,-14,9,14
14,34,19,-24,-2,26,-39,-78,-39,-14,9,14
14,34,19,-24,-2,26,-39,-78,-39,-14,9,14
9,29,19,-19,-4,24,-34,-78,-39,-14,9,14
9,29,19,-19,-4,24,-34,-78,-34,-14,9,14
9,34,24,-21,-7,29,-29,-73,-29,-14,9,14
9,34,24,-21,-7,29,-29,-73,-29,-14,9,9
4,29,24,-17,-9,26,-29,-68,-24,-14,9,9
4,29,24,-17,-9,26,-19,-68,-24,-14,4,9
4,29,24,-17,-9,26,-19,-63,-24,-14,4,9
4,29,24,-17,-9,26,-19,-63,-24,-14,4,9
4,29,24,-17,-9,26,-14,-58,-19,-14,4,9
0,29,29,-14,-14,29,-14,-58,-14,-14,4,9
-4,24,29,-9,-17,26,-14,-63,-14,-9,0,9
-4,24,29,-9,-17,26,-9,-63,-14,-9,0,4
-9,24,34,-7,-21,29,-9,-63,-14,-14,0,0
-14,24,39,-4,-26,31,-9,-58,-9,-19,-4,0
-14,24,39,-4,-26,31,-9,-53,-4,-19,-4,0
-14,24,39,-4,-26,31,-9,-53,-4,-14,-4,0
-9,24,34,-7,-21,29,-4,-53,-9,-14,-4,0
-4,24,29,-9,-17,26,-4,-48,-9,-9,0,0
-4,24,29,-9,-17,26,-4,-43,-4,-9,0,0
-4,29,34,-12,-19,31,-4,-43,-4,-9,0,0
-14,29,43,-7,-29,36,-4,-43,-9,-14,0,0
-19,29,48,-4,-34,39,-4,-39,-9,-14,-4,0
-19,24,43,-2,-31,34,0,-43,-9,-14,-4,-4
-19,24,43,-2,-31,34,0,-43,-9,-9,-4,-9
-19,24,43,-2,-31,34,-4,-43,-4,-9,-4,-9
-19,29,48,-4,-34,39,-4,-43,-4,-9,-4,-9
-19,29,48,-4,-34,39,-4,-43,0,-9,0,-4
-19,29,48,-4,-34,39,-4,-43,0,-9,4,-4
-19,29,48,-4,-34,39,-4,-39,0,-4,4,-4
-24,24,48,0,-36,36,-4,-34,0,-4,4,-4
-24,24,48,0,-36,36,-4,-34,0,-9,4,-4
-24,24,48,0,-36,36,-9,-34,0,-9,4,-4
-19,24,43,-2,-31,34,-9,-39,0,-9,0,-4
-19,24,43,-2,-31,34,-9,-39,0,-9,-4,-4
-19,24,43,-2,-31,34,-14,-43,-4,-9,-4,-4
-19,24,43,-2,-31,34,-14,-43,-9,-9,-4,-4
-19,24,43,-2,-31,34,-14,-43,-9,-9,-4,-4
-19,24,43,-2,-31,34,-14,-53,-14,-14,-4,-9
-19,24,43,-2,-31,34,-14,-53,-19,-9,-4,-9
-19,24,43,-2,-31,34,-14,-58,-19,-9,-4,-9
-24,19,43,2,-34,31,-19,-53,-24,-9,0,-9
-24,19,43,2,-34,31,-24,-58,-29,-14,0,-9
-24,19,43,2,-34,31,-29,-58,-29,-14,0,-4
-24,19,43,2,-34,31,-34,-63,-34,-14,0,0
-24,19,43,2,-34,31,-39,-73,-34,-14,-4,0
-24,19,43,2,-34,31,-39,-78,-39,-19,-4,-4
-24,24,48,0,-36,36,-39,-82,-39,-19,-4,-9
-19,29,48,-4,-34,39,-39,-82,-43,-24,-4,-14
-19,29,48,-4,-34,39,-39,-87,-43,-24,-9,-9
-19,29,48,-4,-34,39,-39,-87,-48,-24,-14,-9
-19,29,48,-4,-34,39,-39,-92,-43,-24,-19,-9
-14,29,43,-7,-29,36,-43,-97,-39,-29,-19,-14
-19,29,48,-4,-34,39,-43,-97,-43,-29,-9,-14
-19,29,48,-4,-34,39,-43,-97,-43,-29,-4,-9
-19,29,48,-4,-34,39,-43,-97,-48,-29,-9,-9
-19,24,43,-2,-31,34,-43,-102,-48,-34,-9,-14
-14,24,39,-4,-26,31,-43,-107,-53,-34,-9,-14
-9,24,34,-7,-21,29,-48,-107,-53,-34,-9,-14
-9,24,34,-7,-21,29,-48,-107,-58,-34,-9,-9
-9,24,34,-7,-21,29,-53,-107,-58,-39,-9,-4
-9,24,34,-7,-21,29,-53,-107,-58,-39,-9,-4
-9,24,34,-7,-21,29,-48,-107,-58,-39,-9,-4
-14,24,39,-4,-26,31,-48,-117,-58,-39,-9,-9
-14,24,39,-4,-26,31,-48,-117,-58,-39,-9,-9
-14,24,39,-4,-26,31,-53,-117,-63,-43,-9,-9
-14,24,39,-4,-26,31,-53,-117,-68,-48,-14,-9
-9,24,34,-7,-21,29,-53,-117,-68,-43,-9,-9
-9,29,39,-9,-24,34,-58,-117,-68,-39,-9,-9
-14,29,43,-7,-29,36,-58,-117,-68,-39,-9,-9
-19,29,48,-4,-34,39,-58,-117,-68,-39,-9,-9
-19,29,48,-4,-34,39,-58,-117,-68,-39,-9,-9
-19,29,48,-4,-34,39,-58,-117,-68,-39,-9,-9
-19,29,48,-4,-34,39,-58,-117,-68,-43,-9,-9
-19,29,48,-4,-34,39,-58,-117,-68,-48,-9,-9
-19,29,48,-4,-34,39,-58,-122,-68,-48,-9,-9
-19,29,48,-4,-34,39,-58,-126,-68,-48,-9,-9
-19,29,48,-4,-34,39,-58,-126,-68,-48,-14,-9
-19,29,48,-4,-34,39,-58,-126,-68,-48,-19,-9
-19,29,48,-4,-34,39,-58,-126,-68,-48,-19,-9
-19,29,48,-4,-34,39,-58,-126,-68,-48,-19,-9
-19,34,53,-7,-36,43,-58,-126,-73,-48,-19,-9
-19,39,58,-9,-39,48,-58,-126,-78,-48,-19,-9
-19,39,58,-9,-39,48,-58,-126,-78,-48,-14,-9
-19,39,58,-9,-39,48,-58,-126,-78,-48,-9,-9
-19,39,58,-9,-39,48,-58,-126,-78,-48,-9,-9
-19,39,58,-9,-39,48,-58,-126,-78,-48,-9,-9
-19,39,58,-9,-39,48,-58,-126,-78,-48,-9,-9
-19,39,58,-9,-39,48,-58,-126,-78,-48,-9,-9
-19,39,58,-9,-39,48,-58,-126,-78,-48,-9,-9
-19,39,58,-9,-39,48,-58,-126,-78,-48,-9,-9
-24,34,58,-4,-41,46,-58,-126,-78,-48,-9,-9
-29,29,58,0,-43,43,-58,-126,-78,-48,-9,-9
-29,29,58,0,-43,43,-58,-126,-78,-48,-9,-9
-29,29,58,0,-43,43,-58,-126,-78,-48,-9,-9
-24,34,58,-4,-41,46,-58,-126,-78,-48,-9,-9
-19,39,58,-9,-39,48,-58,-126,-78,-48,-9,-9
-19,39,58,-9,-39,48,-58,-126,-78,-48,-9,-9
-19,39,58,-9,-39,48,-58,-126,-78,-48,-9,-9
-19,39,58,-9,-39,48,-63,-126,-78,-48,-9,-9
-19,39,58,-9,-39,48,-68,-126,-78,-48,-9,-9
-19,39,58,-9,-39,48,-68,-126,-82,-48,-9,-9
-19,39,58,-9,-39,48,-68,-126,-87,-48,-9,-9
-19,39,58,-9,-39,48,-68,-126,-87,-48,-9,-4
-19,39,58,-9,-39,48,-68,-126,-87,-48,-9,0
-14,39,53,-12,-34,46,-68,-126,-82,-48,-9,0
-9,39,48,-14,-29,43,-68,-126,-78,-48,-9,0
-9,39,48,-14,-29,43,-68,-126,-78,-48,-9,0
-9,39,48,-14,-29,43,-68,-126,-78,-48,-9,0
-9,39,48,-14,-29,43,-68,-126,-78,-48,-9,-4
-9,39,48,-14,-29,43,-68,-126,-78,-48,-9,-9
-9,39,48,-14,-29,43,-68,-126,-78,-48,-9,-9
-9,39,48,-14,-29,43,-68,-126,-78,-48,-9,-9
-14,39,53,-12,-34,46,-68,-126,-78,-48,-9,-9
-19,39,58,-9,-39,48,-68,-126,-78,-48,-9,-9
-19,39,58,-9,-39,48,-68,-126,-78,-48,-9,-9
-19,39,58,-9,-39,48,-68,-126,-78,-48,-9,-9
-19,43,63,-12,-41,53,-68,-126,-78,-48,-9,-9
-19,48,68,-14,-43,58,-68,-126,-78,-48,-9,-9
-14,48,63,-17,-39,56,-68,-131,-82,-48,-9,-9
-9,48,58,-19,-34,53,-68,-136,-87,-48,-9,-9
-9,48,58,-19,-34,53,-63,-136,-87,-48,-9,-4
-9,48,58,-19,-34,53,-58,-136,-87,-48,-9,0
-9,48,58,-19,-34,53,-58,-136,-82,-48,-4,0
-9,48,58,-19,-34,53,-58,-136,-78,-48,0,0
-9,53,63,-21,-36,58,-63,-136,-78,-48,0,0
-9,58,68,-24,-39,63,-68,-136,-78,-48,0,0
-9,58,68,-24,-39,63,-68,-136,-78,-48,-4,-4
-9,58,68,-24,-39,63,-68,-136,-78,-48,-9,-9
-14,58,73,-21,-43,65,-68,-136,-78,-48,-9,-9
-19,58,78,-19,-48,68,-68,-136,-78,-48,-9,-9
-19,53,73,-17,-46,63,-68,-136,-82,-43,-9,-9
-19,48,68,-14,-43,58,-68,-136,-87,-39,-9,-9
-19,48,68,-14,-43,58,-68,-136,-87,-39,-9,-9
-19,48,68,-14,-43,58,-68,-136,-87,-39,-9,-9
-19,48,68,-14,-43,58,-68,-136,-87,-39,-9,-9
