I, II, III, aVR, aVL, aVF, V1, V2, V3, V4, V5, V6
-29,-29,0,29,-14,-14,19,19,0,-19,-19,-29
-29,-29,0,29,-14,-14,19,19,-4,-19,-19,-34
-29,-29,0,29,-14,-14,19,19,-9,-19,-19,-39
-29,-29,0,29,-14,-14,19,19,-9,-24,-24,-43
-29,-29,0,29,-14,-14,19,19,-9,-29,-29,-48
-29,-29,0,29,-14,-14,19,14,-9,-29,-34,-48
-29,-29,0,29,-14,-14,19,9,-9,-29,-39,-48
-34,-29,4,31,-19,-12,19,9,-14,-29,-39,-48
-39,-29,9,34,-24,-9,19,9,-19,-29,-39,-48
-39,-24,14,31,-26,-4,19,9,-19,-29,-39,-48
-39,-19,19,29,-29,0,19,9,-19,-29,-39,-48
-39,-19,19,29,-29,0,19,4,-19,-29,-39,-48
-39,-19,19,29,-29,0,19,0,-19,-29,-39,-48
-39,-19,19,29,-29,0,14,0,-19,-24,-34,-48
-39,-19,19,29,-29,0,9,0,-19,-19,-29,-48
-34,-24,9,29,-21,-7,9,0,-19,-19,-29,-43
-29,-29,0,29,-14,-14,9,0,-19,-19,-29,-39
-29,-29,0,29,-14,-14,9,0,-19,-19,-19,-39
-29,-29,0,29,-14,-14,9,0,-19,-19,-9,-39
-29,-14,14,21,-21,0,9,0,-19,-24,-19,-39
-29,0,29,14,-29,14,9,0,-19,-29,-29,-39
-24,4,29,9,-26,17,14,0,-19,-29,-29,-39
-19,9,29,4,-24,19,19,0,-19,-29,-29,-39
-19,19,39,0,-29,29,19,0,-14,-19,-19,-34
-19,29,48,-4,-34,39,19,0,-9,-9,-9,-29
-19,34,53,-7,-36,43,24,-4,-9,-9,-9,-29
-19,43,63,-12,-41,53,29,0,-4,-4,-9,-24
-19,53,73,-17,-46,63,39,4,0,-4,-9,-24
-19,73,92,-26,-56,82,39,4,9,0,-4,-14
-14,87,102,-36,-58,95,43,4,9,4,0,-14
-4,112,117,-53,-61,114,29,-9,14,9,14,0
4,122,117,-63,-56,119,0,-24,19,14,14,4
14,126,112,-70,-48,119,-19,-39,14,14,14,9
19,126,107,-73,-43,117,-43,-48,4,9,14,9
24,141,117,-82,-46,129,-63,-63,-4,4,14,14
29,161,131,-95,-51,146,-68,-68,-9,0,14,14
34,165,131,-100,-48,148,-68,-68,-9,0,14,19
58,170,112,-114,-26,141,-68,-58,-9,4,24,24
63,156,92,-109,-14,124,-68,-53,-9,4,24,24
63,122,58,-92,2,90,-68,-53,-24,-4,14,19
39,97,58,-68,-9,78,-63,-53,-29,-14,0,4
0,78,78,-39,-39,78,-39,-48,-29,-14,-4,-9
-34,78,112,-21,-73,95,-19,-43,-29,-14,-9,-14
-34,58,92,-12,-63,75,-14,-43,-29,-19,-19,-24
-34,39,73,-2,-53,56,-14,-39,-39,-34,-24,-29
-34,29,63,2,-48,46,-14,-39,-39,-39,-29,-34
-34,19,53,7,-43,36,-9,-34,-39,-43,-34,-34
-29,4,34,12,-31,19,-4,-29,-39,-43,-34,-39
-29,-4,24,17,-26,9,0,-24,-39,-43,-34,-39
-29,-9,19,19,-24,4,0,-24,-39,-43,-34,-39
-34,-9,24,21,-29,7,0,-24,-39,-43,-39,-43
-34,-9,24,21,-29,7,4,-19,-39,-43,-39,-43
-34,-9,24,21,-29,7,14,-19,-39,-43,-39,-43
-34,-14,19,24,-26,2,14,-19,-39,-43,-39,-43
-34,-24,9,29,-21,-7,14,-19,-39,-43,-39,-48
-34,-29,4,31,-19,-12,14,-19,-39,-39,-39,-48
-34,-29,4,31,-19,-12,19,-14,-39,-34,-39,-48
-39,-29,9,34,-24,-9,19,-14,-39,-34,-39,-48
-39,-29,9,34,-24,-9,19,-14,-39,-34,-39,-48
-39,-29,9,34,-24,-9,19,-14,-39,-34,-34,-43
-34,-29,4,31,-19,-12,24,-14,-39,-34,-34,-43
-34,-24,9,29,-21,-7,24,-14,-39,-34,-34,-48
-39,-24,14,31,-26,-4,24,-9,-34,-34,-34,-48
-53,-43,9,48,-31,-17,39,4,-34,-39,-48,-68
-92,-63,29,78,-61,-17,78,34,-24,-58,-87,-112
-151,-82,68,117,-109,-7,131,73,-14,-68,-131,-161
-204,-92,112,148,-158,9,190,126,34,-43,-136,-175
-204,9,214,97,-209,112,200,165,136,53,-73,-122
-146,161,307,-7,-226,234,156,165,268,209,78,9
-34,287,322,-126,-178,305,58,117,336,331,239,175
78,385,307,-231,-114,346,-63,-29,268,356,351,317
156,488,331,-322,-87,409,-219,-297,102,278,400,439
263,624,361,-444,-48,492,-444,-600,-87,195,439,556
414,834,419,-624,-2,627,-678,-883,-278,136,512,712
439,824,385,-631,26,605,-839,-1200,-653,-214,297,639
351,424,73,-387,139,248,-966,-1576,-1346,-976,-331,229
229,73,-156,-151,192,-41,-1024,-1781,-1800,-1473,-785,-78
165,-175,-341,4,253,-258,-917,-1615,-1766,-1478,-849,-200
78,-273,-351,97,214,-312,-732,-1322,-1542,-1317,-785,-248
4,-268,-273,131,139,-270,-541,-980,-1180,-1039,-678,-283
-82,-263,-180,173,48,-222,-351,-649,-834,-766,-561,-302
-122,-195,-73,158,-24,-134,-156,-361,-556,-522,-409,-278
-122,-112,9,117,-65,-51,-68,-185,-366,-351,-273,-209
-97,-82,14,90,-56,-34,-4,-82,-214,-219,-180,-146
-78,-63,14,70,-46,-24,9,-53,-136,-151,-151,-112
-68,-63,4,65,-36,-29,34,-14,-87,-97,-102,-92
-58,-68,-9,63,-24,-39,48,14,-58,-73,-78,-87
-53,-68,-14,61,-19,-41,58,48,-39,-53,-73,-82
-58,-68,-9,63,-24,-39,73,68,-9,-34,-68,-78
-58,-68,-9,63,-24,-39,73,68,-4,-24,-63,-78
-58,-68,-9,63,-24,-39,78,73,4,-19,-53,-78
-53,-68,-14,61,-19,-41,78,78,9,-14,-43,-73
-53,-68,-14,61,-19,-41,78,87,19,-4,-43,-68
-53,-73,-19,63,-17,-46,78,97,29,0,-43,-68
-48,-78,-29,63,-9,-53,87,107,29,4,-39,-68
-48,-78,-29,63,-9,-53,87,112,29,4,-39,-73
-48,-78,-29,63,-9,-53,87,117,39,9,-34,-73
-43,-73,-29,58,-7,-51,92,117,43,14,-34,-73
-43,-73,-29,58,-7,-51,92,112,43,19,-29,-73
-48,-73,-24,61,-12,-48,97,117,48,19,-29,-73
-58,-73,-14,65,-21,-43,97,126,53,24,-29,-73
-58,-82,-24,70,-17,-53,102,126,58,24,-29,-73
-58,-92,-34,75,-12,-63,102,131,63,29,-24,-73
-58,-92,-34,75,-12,-63,102,136,68,24,-19,-78
-58,-92,-34,75,-12,-63,102,141,68,14,-19,-82
-58,-87,-29,73,-14,-58,102,146,68,24,-19,-82
-53,-82,-29,68,-12,-56,107,156,82,29,-14,-82
-48,-78,-29,63,-9,-53,107,156,82,39,-4,-73
-43,-78,-34,61,-4,-56,112,165,92,58,9,-68
-39,-78,-39,58,0,-58,112,175,102,63,14,-58
-29,-78,-48,53,9,-63,112,180,107,68,14,-48
-29,-78,-48,53,9,-63,117,190,112,68,14,-58
-29,-82,-53,56,12,-68,117,195,122,73,9,-63
-24,-78,-53,51,14,-65,122,204,131,82,14,-58
-19,-73,-53,46,17,-63,122,214,141,87,19,-53
-19,-63,-43,41,12,-53,122,224,151,97,24,-53
-14,-58,-43,36,14,-51,126,234,161,102,34,-53
-9,-53,-43,31,17,-48,126,244,175,117,39,-43
-4,-48,-43,26,19,-46,126,253,180,122,48,-34
4,-43,-48,19,26,-46,126,263,190,131,53,-29
4,-39,-43,17,24,-41,126,268,200,136,58,-29
9,-29,-39,9,24,-34,122,273,209,141,68,-24
14,-19,-34,2,24,-26,117,273,214,151,78,-19
19,-4,-24,-7,21,-14,112,278,214,156,82,-9
29,9,-19,-19,24,-4,107,283,224,161,92,0
43,14,-29,-29,36,-7,102,287,229,170,97,14
58,14,-43,-36,51,-14,92,287,229,170,107,24
68,34,-34,-51,51,0,82,283,224,170,107,34
73,43,-29,-58,51,7,73,273,224,175,117,43
87,53,-34,-70,61,9,68,263,214,180,122,53
102,73,-29,-87,65,21,58,253,209,180,122,68
112,82,-29,-97,70,26,53,234,200,170,126,73
122,87,-34,-104,78,26,34,214,190,161,126,82
131,102,-29,-117,80,36,19,204,180,156,126,92
141,112,-29,-126,85,41,4,190,170,151,126,97
146,107,-39,-126,92,34,-9,165,151,141,131,102
151,102,-48,-126,100,26,-19,146,141,136,136,102
151,97,-53,-124,102,21,-29,131,122,126,131,102
146,92,-53,-119,100,19,-34,117,112,117,126,102
146,97,-48,-122,97,24,-39,97,102,107,117,102
141,92,-48,-117,95,21,-39,78,87,97,112,92
131,87,-43,-109,87,21,-39,68,82,92,102,87
122,87,-34,-104,78,26,-39,53,78,82,92,78
117,82,-34,-100,75,24,-43,43,63,78,87,68
107,78,-29,-92,68,24,-43,34,53,68,78,68
87,68,-19,-78,53,24,-39,29,48,53,63,53
78,48,-29,-63,53,9,-34,24,39,48,53,48
63,39,-24,-51,43,7,-29,19,29,43,48,39
48,39,-9,-43,29,14,-24,14,19,39,39,34
39,39,0,-39,19,19,-24,9,19,29,29,24
34,39,4,-36,14,21,-19,9,14,24,29,24
24,34,9,-29,7,21,-19,9,9,19,24,14
19,24,4,-21,7,14,-14,4,9,9,24,14
19,19,0,-19,9,9,-14,4,4,9,14,14
9,19,9,-14,0,14,-14,4,0,9,9,9
4,14,9,-9,-2,12,-9,4,0,-4,4,4
4,14,9,-9,-2,12,-9,4,-4,-4,4,4
0,9,9,-4,-4,9,-9,0,-4,-4,0,-4
0,9,9,-4,-4,9,-9,0,-4,-4,0,-4
-4,9,14,-2,-9,12,0,0,-4,-4,0,-14
-14,4,19,4,-17,12,0,4,-4,-4,-4,-19
-14,0,14,7,-14,7,0,4,-4,-9,-4,-24
-19,0,19,9,-19,9,0,4,-4,-9,-9,-24
-19,0,19,9,-19,9,0,4,-9,-9,-9,-29
-19,-4,14,12,-17,4,4,4,-9,-9,-14,-29
-24,-4,19,14,-21,7,4,4,-9,-9,-14,-29
-24,-4,19,14,-21,7,4,9,-9,-9,-14,-29
-24,-4,19,14,-21,7,9,9,-9,-14,-14,-29
-19,-4,14,12,-17,4,9,9,-9,-14,-19,-29
-24,-9,14,17,-19,2,9,9,-9,-14,-19,-29
-24,-9,14,17,-19,2,9,9,-9,-14,-19,-29
-24,-14,9,19,-17,-2,14,9,-9,-19,-24,-34
-24,-19,4,21,-14,-7,14,9,-9,-19,-24,-34
-24,-19,4,21,-14,-7,14,9,-9,-19,-24,-39
-34,-19,14,26,-24,-2,19,9,-9,-19,-24,-39
-34,-24,9,29,-21,-7,19,14,-9,-19,-29,-39
-34,-24,9,29,-21,-7,19,14,-9,-19,-29,-39
-34,-24,9,29,-21,-7,19,14,-14,-19,-29,-43
-39,-24,14,31,-26,-4,19,14,-14,-19,-29,-48
-39,-24,14,31,-26,-4,19,9,-14,-24,-34,-48
-39,-29,9,34,-24,-9,19,4,-14,-24,-34,-48
-39,-29,9,34,-24,-9,24,4,-14,-19,-29,-43
-39,-29,9,34,-24,-9,24,4,-14,-14,-24,-43
-39,-29,9,34,-24,-9,19,4,-14,-14,-24,-48
-39,-29,9,34,-24,-9,19,4,-14,-14,-24,-48
-39,-29,9,34,-24,-9,19,0,-14,-14,-24,-48
-39,-29,9,34,-24,-9,19,0,-19,-19,-24,-48
-39,-29,9,34,-24,-9,19,0,-19,-19,-24,-48
-39,-24,14,31,-26,-4,19,0,-19,-19,-24,-48
-39,-24,14,31,-26,-4,19,-4,-19,-19,-24,-48
-39,-29,9,34,-24,-9,14,-4,-19,-19,-24,-48
-39,-29,9,34,-24,-9,14,-4,-24,-24,-24,-43
-39,-24,14,31,-26,-4,14,-4,-24,-24,-24,-43
-39,-24,14,31,-26,-4,14,-4,-24,-24,-24,-43
-34,-14,19,24,-26,2,14,-4,-24,-19,-19,-39
-29,-14,14,21,-21,0,14,-4,-19,-14,-24,-34
-29,-14,14,21,-21,0,19,-9,-14,-14,-34,-34
-29,-4,24,17,-26,9,19,-9,-9,-9,-29,-29
-29,0,29,14,-29,14,19,-9,-9,-9,-29,-29
-29,14,43,7,-36,29,19,-9,-9,-9,-24,-29
-29,29,58,0,-43,43,19,-9,-9,-9,-19,-29
-29,29,58,0,-43,43,24,-9,-9,-9,-14,-29
-29,29,58,0,-43,43,34,0,-4,-4,-9,-24
-29,29,58,0,-43,43,43,9,0,-4,-9,-24
-29,34,63,-2,-46,48,48,14,9,0,-4,-14
-24,58,82,-17,-53,70,48,14,9,4,0,-14
-14,92,107,-39,-61,100,29,0,14,9,14,0
-4,107,112,-51,-58,109,0,-14,14,14,14,4
4,117,112,-61,-53,114,-19,-29,4,14,14,9
9,117,107,-63,-48,112,-39,-39,-4,4,9,9
14,131,117,-73,-51,124,-53,-53,-14,-4,4,14
19,151,131,-85,-56,141,-58,-58,-14,-9,4,14
24,156,131,-90,-53,143,-58,-58,-9,-9,4,19
43,170,126,-107,-41,148,-63,-58,-9,-4,14,24
43,165,122,-104,-39,143,-68,-63,-9,-4,14,24
48,122,73,-85,-12,97,-63,-63,-24,-14,9,29
29,87,58,-58,-14,73,-53,-63,-29,-24,0,24
-4,63,68,-29,-36,65,-29,-48,-29,-19,-4,9
-34,58,92,-12,-63,75,-9,-34,-29,-14,-9,4
-34,39,73,-2,-53,56,-4,-34,-29,-19,-19,-9
-34,19,53,7,-43,36,-4,-29,-39,-34,-24,-19
-34,9,43,12,-39,26,-4,-34,-39,-39,-29,-29
-34,0,34,17,-34,17,0,-34,-39,-43,-34,-34
-34,-19,14,26,-24,-2,4,-29,-39,-43,-34,-39
-39,-34,4,36,-21,-14,9,-24,-39,-43,-34,-39
-39,-39,0,39,-19,-19,9,-24,-39,-43,-34,-39
-43,-39,4,41,-24,-17,9,-24,-39,-43,-39,-43
-43,-39,4,41,-24,-17,9,-19,-39,-43,-39,-43
-43,-39,4,41,-24,-17,14,-19,-39,-43,-39,-43
-43,-39,4,41,-24,-17,9,-19,-39,-43,-39,-43
-43,-43,0,43,-21,-21,4,-19,-39,-43,-39,-48
-39,-48,-9,43,-14,-29,4,-19,-39,-39,-29,-48
-34,-48,-14,41,-9,-31,9,-14,-39,-34,-19,-48
-39,-48,-9,43,-14,-29,14,-14,-39,-34,-34,-48
-39,-48,-9,43,-14,-29,19,-14,-39,-34,-48,-48
-39,-48,-9,43,-14,-29,19,-14,-39,-34,-39,-43
-34,-48,-14,41,-9,-31,24,-14,-39,-34,-34,-43
-34,-43,-9,39,-12,-26,24,-14,-39,-34,-34,-48
-39,-43,-4,41,-17,-24,24,-9,-34,-34,-34,-48
-53,-63,-9,58,-21,-36,39,4,-34,-39,-48,-68
-92,-82,9,87,-51,-36,78,34,-24,-58,-87,-112
-141,-107,34,124,-87,-36,126,73,-19,-73,-131,-165
-185,-122,63,153,-124,-29,180,126,24,-53,-136,-185
-204,-29,175,117,-190,73,200,165,122,29,-92,-141
-165,112,278,26,-222,195,165,165,248,170,39,-19
-58,239,297,-90,-178,268,78,131,331,307,214,151
48,336,287,-192,-119,312,-34,0,278,346,341,297
126,439,312,-283,-92,375,-190,-253,112,268,390,419
234,575,341,-405,-53,458,-414,-541,-78,185,429,536
405,829,424,-617,-9,627,-649,-795,-200,204,580,766
448,863,414,-656,17,639,-810,-1083,-507,-68,444,766
366,473,107,-419,129,290,-956,-1498,-1254,-878,-209,346
248,131,-117,-190,183,7,-1034,-1742,-1761,-1424,-688,29
185,-146,-331,-19,258,-239,-932,-1595,-1751,-1454,-775,-117
97,-273,-370,87,234,-322,-751,-1322,-1551,-1317,-736,-190
19,-273,-292,126,156,-283,-566,-990,-1210,-1058,-658,-239
-73,-273,-200,173,63,-236,-380,-668,-883,-805,-570,-273
-117,-209,-92,163,-12,-151,-170,-375,-585,-551,-419,-258
-122,-131,-9,126,-56,-70,-68,-195,-375,-370,-283,-200
-102,-107,-4,104,-48,-56,-4,-82,-224,-239,-190,-146
-87,-92,-4,90,-41,-48,9,-43,-146,-170,-161,-122
-78,-92,-14,85,-31,-53,34,-4,-92,-117,-107,-97
-68,-97,-29,82,-19,-63,48,24,-58,-92,-78,-87
-58,-102,-43,80,-7,-73,58,53,-43,-68,-73,-82
-58,-107,-48,82,-4,-78,73,68,-19,-43,-68,-78
-58,-107,-48,82,-4,-78,73,68,-14,-34,-63,-78
-58,-107,-48,82,-4,-78,78,73,-4,-29,-53,-78
-48,-102,-53,75,2,-78,78,78,0,-24,-39,-78
-43,-97,-53,70,4,-75,78,87,9,-14,-34,-78
-53,-97,-43,75,-4,-70,78,92,19,-9,-34,-78
-58,-97,-39,78,-9,-68,87,97,19,-4,-29,-78
-58,-102,-43,80,-7,-73,87,102,19,-4,-39,-78
-58,-107,-48,82,-4,-78,87,107,29,0,-43,-73
-48,-107,-58,78,4,-82,92,117,39,4,-24,-63
-43,-112,-68,78,12,-90,92,122,43,9,0,-53
-43,-107,-63,75,9,-85,97,126,48,9,-14,-68
-48,-102,-53,75,2,-78,97,136,53,14,-29,-82
-48,-102,-53,75,2,-78,102,131,58,14,-29,-82
-48,-102,-53,75,2,-78,102,131,63,19,-24,-82
-48,-107,-58,78,4,-82,102,136,73,24,-19,-78
-48,-112,-63,80,7,-87,102,141,78,24,-19,-73
-58,-122,-63,90,2,-92,102,146,73,34,-19,-73
-63,-131,-68,97,2,-100,107,156,82,39,-14,-73
-53,-112,-58,82,2,-85,107,151,82,39,-9,-68
-43,-97,-53,70,4,-75,112,156,92,48,0,-68
-43,-97,-53,70,4,-75,112,165,102,53,4,-68
-39,-97,-58,68,9,-78,112,170,107,58,4,-68
-39,-92,-53,65,7,-73,117,185,112,63,14,-68
-39,-92,-53,65,7,-73,117,195,122,73,19,-63
-34,-87,-53,61,9,-70,122,204,131,78,19,-58
-29,-82,-53,56,12,-68,122,214,141,78,19,-53
-29,-82,-53,56,12,-68,117,219,151,87,24,-58
-24,-87,-63,56,19,-75,117,224,161,92,34,-63
-19,-82,-63,51,21,-73,117,234,175,107,39,-53
-14,-78,-63,46,24,-70,117,244,180,112,48,-43
-4,-73,-68,39,31,-70,117,253,190,122,53,-34
-4,-68,-63,36,29,-65,117,258,200,126,58,-29
4,-58,-63,26,34,-61,117,263,209,136,73,-19
14,-48,-63,17,39,-56,117,263,214,151,87,-9
19,-34,-53,7,36,-43,112,268,214,156,92,0
29,-19,-48,-4,39,-34,107,273,224,161,102,9
34,-9,-43,-12,39,-26,107,278,229,170,102,19
39,-4,-43,-17,41,-24,102,278,229,170,107,24
48,14,-34,-31,41,-9,92,273,229,170,107,34
53,24,-29,-39,41,-2,82,263,234,175,117,43
68,43,-24,-56,46,9,63,253,224,180,126,53
82,73,-9,-78,46,31,39,244,219,180,131,68
92,68,-24,-80,58,21,43,229,209,170,136,73
102,58,-43,-80,73,7,34,214,200,161,136,82
112,63,-48,-87,80,7,19,200,190,161,141,92
122,63,-58,-92,90,2,4,180,180,161,146,97
126,78,-48,-102,87,14,-9,156,161,146,146,102
131,92,-39,-112,85,26,-19,136,151,136,146,102
131,92,-39,-112,85,26,-29,122,131,126,131,102
126,92,-34,-109,80,29,-34,107,122,117,117,102
126,92,-34,-109,80,29,-39,92,112,107,126,117
122,82,-39,-102,80,21,-39,78,97,97,141,122
107,68,-39,-87,73,14,-39,68,82,82,117,102
92,58,-34,-75,63,12,-39,53,68,63,92,78
87,53,-34,-70,61,9,-43,43,53,58,87,68
78,48,-29,-63,53,9,-43,34,43,48,78,68
68,48,-19,-58,43,14,-39,29,48,39,73,58
68,39,-29,-53,48,4,-34,24,48,39,73,58
58,29,-29,-43,43,0,-29,19,43,34,68,48
48,29,-19,-39,34,4,-24,14,39,29,58,43
39,24,-14,-31,26,4,-24,4,34,14,39,24
34,19,-14,-26,24,2,-19,0,24,4,29,14
24,19,-4,-21,14,7,-19,0,19,4,34,14
19,14,-4,-17,12,4,-14,-4,19,0,43,24
19,9,-9,-14,14,0,-14,-4,9,0,34,24
9,9,0,-9,4,4,-14,-4,0,0,29,19
0,4,4,-2,-2,4,-9,-4,0,-14,14,0
-4,4,9,0,-7,7,-9,-4,-4,-14,4,-14
-9,-4,4,7,-7,0,-9,-9,-4,-14,0,-14
-9,-9,0,9,-4,-4,-9,-9,-4,-14,0,-4
-9,-9,0,9,-4,-4,0,-4,-4,-14,4,-9
-14,-14,0,14,-7,-7,0,4,-4,-14,4,-9
-14,-19,-4,17,-4,-12,0,4,-4,-19,4,-14
-19,-19,0,19,-9,-9,0,4,-4,-19,0,-14
-14,-14,0,14,-7,-7,-4,4,-4,-14,4,-14
-9,-14,-4,12,-2,-9,-4,4,0,-9,4,-9
-14,-9,4,12,-9,-2,-4,0,0,-9,4,-9
-14,-4,9,9,-12,2,-4,0,0,-9,4,-9
-19,-9,9,14,-14,0,0,0,0,-19,0,-19
-19,-14,4,17,-12,-4,0,0,0,-24,-9,-29
-29,-24,4,26,-17,-9,0,0,0,-24,-9,-29
-34,-29,4,31,-19,-12,0,0,0,-24,-9,-29
-34,-34,0,34,-17,-17,4,0,0,-24,-9,-34
-34,-39,-4,36,-14,-21,4,0,0,-19,-4,-34
-34,-39,-4,36,-14,-21,4,0,0,-19,-4,-34
-43,-39,4,41,-24,-17,9,0,0,-19,-4,-29
-43,-43,0,43,-21,-21,9,9,4,-19,0,-29
-43,-43,0,43,-21,-21,9,14,9,-19,9,-29
-39,-39,0,39,-19,-19,9,14,4,-19,0,-34
-39,-34,4,36,-21,-14,9,14,4,-19,-9,-39
-39,-34,4,36,-21,-14,9,14,4,-24,-14,-39
-39,-39,0,39,-19,-19,9,14,4,-24,-14,-39
-39,-39,0,39,-19,-19,14,9,0,-24,-19,-34
-39,-39,0,39,-19,-19,14,4,-4,-24,-24,-34
-43,-39,4,41,-24,-17,9,4,-4,-24,-24,-39
-48,-39,9,43,-29,-14,9,4,-4,-24,-24,-39
-48,-39,9,43,-29,-14,9,0,0,-24,-24,-39
-48,-39,9,43,-29,-14,9,0,0,-29,-24,-39
-48,-43,4,46,-26,-19,9,4,0,-24,-19,-34
-48,-43,4,46,-26,-19,9,9,0,-19,-14,-29
-43,-43,0,43,-21,-21,9,4,0,-19,-14,-29
-39,-48,-9,43,-14,-29,4,4,0,-19,-14,-29
-39,-48,-9,43,-14,-29,4,0,-4,-24,-19,-29
-39,-43,-4,41,-17,-24,4,-4,-4,-24,-24,-34
-34,-39,-4,36,-14,-21,4,-4,-4,-24,-19,-29
-34,-34,0,34,-17,-17,9,-9,-4,-24,-14,-24
-34,-19,14,26,-24,-2,9,-9,0,-19,-9,-19
-39,-9,29,24,-34,9,9,-9,0,-19,-9,-19
-39,-9,29,24,-34,9,9,-9,0,-19,-9,-19
-39,-9,29,24,-34,9,9,-9,0,-19,-9,-19
-39,-4,34,21,-36,14,14,-9,0,-14,-9,-19
-39,0,39,19,-39,19,24,0,4,-9,-9,-14
-43,9,53,17,-48,31,34,9,14,-4,-9,-14
-48,24,73,12,-61,48,39,14,29,0,-4,-4
-43,39,82,2,-63,61,39,14,29,4,0,-4
-34,63,97,-14,-65,80,19,0,34,9,14,9
-24,82,107,-29,-65,95,-9,-14,39,14,14,14
-14,97,112,-41,-63,104,-29,-29,34,14,14,19
-9,97,107,-43,-58,102,-48,-39,24,9,14,19
-4,112,117,-53,-61,114,-63,-53,14,4,14,24
0,136,136,-68,-68,136,-68,-63,14,0,14,24
4,146,141,-75,-68,143,-68,-68,19,0,14,29
24,146,122,-85,-48,134,-73,-63,19,4,29,39
24,126,102,-75,-39,114,-78,-63,19,4,34,43
29,92,63,-61,-17,78,-73,-63,4,-4,24,39
9,68,58,-39,-24,63,-63,-63,0,-14,9,24
-24,48,73,-12,-48,61,-39,-53,0,-14,4,4
-53,48,102,2,-78,75,-19,-43,0,-14,0,-4
-53,39,92,7,-73,65,-14,-43,0,-19,-14,-14
-53,29,82,12,-68,56,-14,-39,-9,-34,-24,-19
-53,9,63,21,-58,36,-14,-34,-9,-34,-24,-24
-53,-9,43,31,-48,17,-9,-24,-9,-34,-24,-24
-48,-29,19,39,-34,-4,0,-19,-9,-29,-24,-29
-48,-43,4,46,-26,-19,9,-14,-9,-24,-24,-29
-48,-48,0,48,-24,-24,9,-14,-9,-24,-19,-19
-53,-48,4,51,-29,-21,9,-14,-9,-24,-19,-14
-53,-48,4,51,-29,-21,9,-9,-9,-29,-19,-24
-53,-48,4,51,-29,-21,14,-9,-9,-34,-19,-34
-53,-48,4,51,-29,-21,14,-9,-9,-34,-19,-34
-53,-53,0,53,-26,-26,14,-9,-9,-34,-19,-39
-53,-58,-4,56,-24,-31,9,-9,-9,-29,-19,-39
-53,-58,-4,56,-24,-31,9,-4,-9,-24,-19,-39
-58,-58,0,58,-29,-29,9,-4,-9,-24,-24,-43
-58,-58,0,58,-29,-29,9,-4,-9,-24,-29,-48
-58,-53,4,56,-31,-24,9,-9,-9,-24,-29,-43
-53,-48,4,51,-29,-21,14,-14,-9,-24,-34,-43
-53,-48,4,51,-29,-21,14,-14,-9,-24,-29,-43
-58,-53,4,56,-31,-24,14,-9,-4,-24,-24,-39
-63,-78,-14,70,-24,-46,29,4,-9,-29,-39,-58
-92,-102,-9,97,-41,-56,68,34,-4,-48,-78,-102
-141,-126,14,134,-78,-56,117,68,-4,-68,-126,-161
-185,-141,43,163,-114,-48,170,117,34,-53,-136,-185
-200,-39,161,119,-180,61,190,161,131,29,-87,-146
-156,112,268,21,-212,190,156,165,258,170,48,-29
-53,239,292,-92,-173,265,63,126,331,302,209,141
48,336,287,-192,-119,312,-53,-9,268,336,322,287
107,439,331,-273,-112,385,-190,-239,117,278,385,419
195,575,380,-385,-92,478,-395,-502,-58,214,439,546
380,854,473,-617,-46,663,-644,-746,-161,258,614,790
439,912,473,-675,-17,692,-819,-1024,-448,9,502,805
356,507,151,-431,102,329,-956,-1420,-1190,-795,-146,400
239,151,-87,-195,163,31,-1024,-1644,-1693,-1337,-619,97
175,-122,-297,-26,236,-209,-936,-1537,-1708,-1395,-722,-53
87,-244,-331,78,209,-287,-771,-1302,-1532,-1288,-697,-131
9,-263,-273,126,141,-268,-570,-971,-1180,-1019,-629,-200
-82,-283,-200,183,58,-241,-370,-649,-844,-756,-551,-253
-126,-214,-87,170,-19,-151,-170,-370,-556,-512,-400,-244
-131,-131,0,131,-65,-65,-78,-204,-356,-341,-263,-190
-112,-112,0,112,-56,-56,-4,-87,-195,-200,-170,-136
-97,-102,-4,100,-46,-53,19,-43,-107,-122,-141,-112
-87,-102,-14,95,-36,-58,43,-4,-58,-68,-82,-92
-78,-107,-29,92,-24,-68,58,24,-29,-43,-48,-87
-68,-107,-39,87,-14,-73,63,58,-4,-19,-48,-82
-68,-107,-39,87,-14,-73,73,78,29,4,-48,-78
-68,-112,-43,90,-12,-78,78,78,24,4,-48,-78
-68,-117,-48,92,-9,-82,87,82,24,0,-43,-78
-68,-117,-48,92,-9,-82,92,87,29,4,-34,-78
-73,-117,-43,95,-14,-80,97,97,39,14,-34,-78
-73,-117,-43,95,-14,-80,97,102,53,24,-29,-78
-68,-117,-48,92,-9,-82,107,107,58,34,-19,-78
-68,-117,-48,92,-9,-82,107,112,58,34,-19,-78
-68,-117,-48,92,-9,-82,107,117,68,39,-14,-73
-63,-117,-53,90,-4,-85,112,122,73,48,-14,-73
-63,-122,-58,92,-2,-90,112,122,73,58,-9,-73
-63,-122,-58,92,-2,-90,117,126,78,58,-9,-73
-68,-122,-53,95,-7,-87,117,136,82,63,-9,-73
-68,-122,-53,95,-7,-87,122,136,87,63,-9,-73
-68,-122,-53,95,-7,-87,122,141,92,68,-4,-73
-63,-117,-53,90,-4,-85,122,146,102,73,0,-73
-58,-112,-53,85,-2,-82,122,151,107,73,0,-73
-58,-112,-53,85,-2,-82,122,156,107,82,0,-73
-53,-112,-58,82,2,-85,126,165,122,87,4,-73
-53,-107,-53,80,0,-80,126,161,122,87,4,-68
-53,-107,-53,80,0,-80,131,165,131,97,9,-68
-53,-112,-58,82,2,-85,131,175,141,102,9,-68
-48,-117,-68,82,9,-92,131,180,146,107,4,-68
-48,-112,-63,80,7,-87,136,190,151,112,14,-68
-48,-112,-63,80,7,-87,136,195,161,122,19,-63
-43,-102,-58,73,7,-80,141,204,175,131,24,-58
-39,-92,-53,65,7,-73,141,214,190,136,29,-53
-39,-87,-48,63,4,-68,146,224,200,151,34,-53
-34,-87,-53,61,9,-70,156,234,209,161,43,-53
-29,-82,-53,56,12,-68,156,244,224,175,48,-43
-24,-78,-53,51,14,-65,156,253,229,180,58,-34
-14,-73,-58,43,21,-65,156,268,239,190,63,-24
-14,-68,-53,41,19,-61,156,278,248,195,68,-19
-4,-58,-53,31,24,-56,156,283,263,204,82,-9
4,-48,-53,21,29,-51,156,283,273,219,97,0
9,-34,-43,12,26,-39,151,287,273,224,102,9
19,-19,-39,0,29,-29,146,292,283,229,112,19
29,-9,-39,-9,34,-24,141,292,292,239,117,29
39,-4,-43,-17,41,-24,131,287,297,239,126,34
48,14,-34,-31,41,-9,122,283,292,239,131,43
53,24,-29,-39,41,-2,112,273,292,244,146,53
68,39,-29,-53,48,4,102,263,283,248,151,63
82,63,-19,-73,51,21,87,253,278,248,151,78
87,73,-14,-80,51,29,82,234,268,244,156,82
92,78,-14,-85,53,31,63,214,258,239,156,92
102,92,-9,-97,56,41,48,200,244,234,151,102
112,102,-9,-107,61,46,34,180,229,229,146,107
117,102,-14,-109,65,43,19,156,209,214,146,112
122,102,-19,-112,70,41,9,136,200,204,146,112
117,97,-19,-107,68,39,0,122,175,195,141,112
107,92,-14,-100,61,39,-4,107,161,185,136,112
107,92,-14,-100,61,39,-14,92,151,170,126,112
102,82,-19,-92,61,31,-19,78,136,156,122,102
97,78,-19,-87,58,29,-19,68,126,146,112,97
92,78,-14,-85,53,31,-19,53,117,131,102,87
87,73,-14,-80,51,29,-24,43,102,122,97,78
78,68,-9,-73,43,29,-24,34,92,107,87,78
63,63,0,-63,31,31,-24,29,87,92,78,63
58,48,-9,-53,34,19,-24,24,78,87,73,58
48,39,-9,-43,29,14,-19,19,68,82,68,48
39,39,0,-39,19,19,-14,14,58,78,58,43
29,34,4,-31,12,19,-14,9,58,68,43,34
24,29,4,-26,9,17,-9,9,53,63,39,34
19,24,4,-21,7,14,-9,9,48,63,34,19
19,14,-4,-17,12,4,-4,4,48,58,34,14
19,9,-9,-14,14,0,-4,4,43,58,24,14
9,9,0,-9,4,4,-4,4,39,58,19,9
4,4,0,-4,2,2,0,4,39,43,14,4
4,4,0,-4,2,2,0,4,34,43,14,4
-4,0,4,2,-4,2,0,0,34,43,9,-4
-9,0,9,4,-9,4,0,0,34,43,9,-4
-9,0,9,4,-9,4,9,0,34,43,9,-4
-14,-4,9,9,-12,2,9,4,34,43,4,0
-9,-9,0,9,-4,-4,9,4,34,39,4,-4
-9,-9,0,9,-4,-4,9,4,34,39,0,-4
-9,-9,0,9,-4,-4,9,4,29,39,0,-14
-9,-14,-4,12,-2,-9,14,4,29,39,-4,-19
-14,-14,0,14,-7,-7,14,4,29,39,-4,-19
-14,-14,0,14,-7,-7,14,9,29,39,-4,-19
-19,-14,4,17,-12,-4,19,9,29,34,-4,-24
-19,-14,4,17,-12,-4,19,9,29,34,-9,-29
-29,-19,9,24,-19,-4,19,9,29,34,-9,-29
-34,-19,14,26,-24,-2,19,9,29,34,-9,-29
-34,-24,9,29,-21,-7,24,9,29,34,-14,-34
-34,-29,4,31,-19,-12,24,9,29,39,-14,-34
-34,-29,4,31,-19,-12,24,9,34,39,-14,-39
-43,-29,14,36,-29,-7,29,9,39,39,-14,-39
-39,-34,4,36,-21,-14,29,14,39,39,-19,-39
-34,-34,0,34,-17,-17,29,14,39,39,-19,-39
-34,-34,0,34,-17,-17,29,14,34,39,-19,-43
-39,-34,4,36,-21,-14,29,14,34,39,-19,-48
-39,-34,4,36,-21,-14,29,14,34,34,-24,-48
-39,-39,0,39,-19,-19,29,14,34,34,-24,-48
-39,-39,0,39,-19,-19,34,14,34,29,-24,-43
-39,-39,0,39,-19,-19,34,14,34,24,-24,-43
-39,-39,0,39,-19,-19,29,14,34,24,-24,-48
-39,-39,0,39,-19,-19,29,14,34,24,-24,-48
-39,-39,0,39,-19,-19,29,9,34,24,-24,-48
-39,-39,0,39,-19,-19,29,9,29,19,-24,-48
-39,-39,0,39,-19,-19,29,9,29,19,-24,-48
-39,-34,4,36,-21,-14,29,9,29,19,-24,-48
-39,-34,4,36,-21,-14,29,4,29,19,-24,-48
-39,-39,0,39,-19,-19,24,4,29,19,-24,-43
-39,-29,9,34,-24,-9,24,4,34,24,-19,-34
-39,-19,19,29,-29,0,29,9,39,29,-19,-29
-39,-19,19,29,-29,0,29,9,39,34,-19,-29
-39,-19,19,29,-29,0,29,9,39,39,-19,-29
-39,-4,34,21,-36,14,24,4,39,39,-14,-29
-39,0,39,19,-39,19,24,0,39,34,-9,-29
-39,9,48,14,-43,29,29,0,39,34,-9,-29
-39,19,58,9,-48,39,39,14,39,34,-9,-24
-39,34,73,2,-56,53,48,14,48,39,-4,-14
-34,48,82,-7,-58,65,58,14,48,43,0,-14
-24,73,97,-24,-61,85,39,0,58,48,14,0
-14,87,102,-36,-58,95,9,-14,63,53,14,4
-4,97,102,-46,-53,100,-9,-29,53,53,9,9
0,97,97,-48,-48,97,-29,-39,43,48,4,9
0,112,112,-56,-56,112,-48,-53,29,43,4,14
0,131,131,-65,-65,131,-58,-58,24,39,4,14
4,146,141,-75,-68,143,-58,-58,29,39,4,19
24,156,131,-90,-53,143,-58,-53,29,43,14,24
39,136,97,-87,-29,117,-63,-53,29,43,14,24
53,102,48,-78,2,75,-63,-53,14,34,4,19
29,78,48,-53,-9,63,-53,-53,9,24,-9,9
-4,58,63,-26,-34,61,-29,-43,9,24,-14,0
-39,58,97,-9,-68,78,-9,-34,14,24,-14,-4
-43,39,82,2,-63,61,-4,-34,19,19,-19,-14
-43,19,63,12,-53,41,-4,-29,9,4,-24,-24
-43,9,53,17,-48,31,-4,-29,9,4,-24,-34
-43,0,43,21,-43,21,4,-24,9,4,-24,-34
-39,-14,24,26,-31,4,14,-19,9,4,-24,-39
-39,-29,9,34,-24,-9,19,-14,9,4,-24,-39
-39,-39,0,39,-19,-19,19,-14,9,4,-24,-39
-48,-43,4,46,-26,-19,19,-14,4,4,-29,-43
-53,-48,4,51,-29,-21,19,-9,0,4,-29,-43
-53,-48,4,51,-29,-21,24,-9,0,0,-34,-43
-53,-48,4,51,-29,-21,24,-9,0,-4,-39,-43
-53,-53,0,53,-26,-26,24,-9,4,-4,-39,-48
-53,-58,-4,56,-24,-31,24,-9,9,-4,-39,-48
-53,-58,-4,56,-24,-31,29,-4,9,0,-39,-48
-58,-58,0,58,-29,-29,29,-4,9,4,-39,-48
-58,-58,0,58,-29,-29,29,-4,9,4,-34,-48
-58,-58,0,58,-29,-29,29,-4,9,4,-29,-43
-48,-58,-9,53,-19,-34,34,-4,9,4,-34,-43
-43,-58,-14,51,-14,-36,34,-4,9,4,-34,-48
-43,-58,-14,51,-14,-36,24,-4,14,4,-34,-43
-53,-73,-19,63,-17,-46,29,4,14,0,-48,-58
-82,-92,-9,87,-36,-51,58,24,14,-29,-87,-102
-122,-102,19,112,-70,-41,97,48,14,-48,-126,-151
-185,-136,48,161,-117,-43,180,107,34,-58,-165,-200
-204,-68,136,136,-170,34,209,146,102,4,-136,-175
-165,82,248,41,-207,165,170,175,278,180,19,-43
-73,209,283,-68,-178,246,82,146,375,317,180,122
39,307,268,-173,-114,287,-24,24,317,375,317,268
117,409,292,-263,-87,351,-161,-190,175,336,390,390
229,566,336,-397,-53,451,-385,-473,19,317,488,546
385,785,400,-585,-7,592,-619,-736,-131,307,610,741
463,888,424,-675,19,656,-810,-1044,-444,43,512,790
429,619,190,-524,119,405,-951,-1390,-1049,-595,24,507
307,219,-87,-263,197,65,-1063,-1712,-1683,-1293,-575,122
244,-87,-331,-78,287,-209,-1015,-1673,-1825,-1493,-785,-82
151,-239,-390,43,270,-314,-819,-1376,-1600,-1342,-736,-151
68,-292,-361,112,214,-326,-619,-1058,-1278,-1107,-673,-209
-48,-317,-268,183,109,-292,-395,-702,-907,-824,-590,-268
-112,-273,-161,192,24,-217,-185,-400,-595,-561,-458,-278
-117,-161,-43,139,-36,-102,-87,-219,-370,-361,-297,-209
-102,-107,-4,104,-48,-56,-4,-92,-195,-209,-185,-156
-87,-92,-4,90,-41,-48,9,-58,-107,-136,-156,-122
-78,-92,-14,85,-31,-53,34,-14,-39,-68,-102,-92
-68,-97,-29,82,-19,-63,58,24,-9,-39,-68,-87
-58,-97,-39,78,-9,-68,73,63,4,-19,-58,-82
-58,-97,-39,78,-9,-68,82,78,34,-4,-58,-78
-58,-97,-39,78,-9,-68,82,78,43,4,-53,-78
-58,-97,-39,78,-9,-68,82,82,53,9,-43,-78
-58,-97,-39,78,-9,-68,82,87,58,14,-34,-78
-63,-97,-34,80,-14,-65,87,97,68,24,-34,-78
-63,-97,-34,80,-14,-65,87,102,78,29,-34,-78
-63,-97,-34,80,-14,-65,102,107,82,34,-29,-73
-68,-97,-29,82,-19,-63,107,112,87,34,-29,-68
-68,-92,-24,80,-21,-58,107,117,97,39,-24,-63
-63,-87,-24,75,-19,-56,112,122,102,43,-24,-63
-58,-92,-34,75,-12,-63,112,122,102,53,-19,-63
-53,-92,-39,73,-7,-65,117,126,107,58,-19,-63
-58,-97,-39,78,-9,-68,117,136,112,63,-19,-63
-58,-102,-43,80,-7,-73,122,136,117,63,-19,-63
-58,-102,-43,80,-7,-73,122,141,122,68,-14,-63
-58,-102,-43,80,-7,-73,122,146,131,73,-9,-63
-58,-102,-43,80,-7,-73,122,151,136,68,-9,-63
-58,-102,-43,80,-7,-73,122,156,136,73,-9,-63
-53,-102,-48,78,-2,-75,126,165,151,78,-4,-68
-53,-97,-43,75,-4,-70,126,165,151,78,-4,-68
-58,-97,-39,78,-9,-68,131,175,161,87,0,-68
-63,-97,-34,80,-14,-65,131,185,170,92,4,-68
-58,-97,-39,78,-9,-68,131,190,175,97,0,-68
-58,-92,-34,75,-12,-63,136,200,180,102,4,-68
-53,-92,-39,73,-7,-65,136,204,190,112,9,-63
-43,-87,-43,65,0,-65,141,214,200,122,14,-58
-39,-78,-39,58,0,-58,141,224,209,126,24,-53
-39,-68,-29,53,-4,-48,141,234,219,136,34,-53
-39,-68,-29,53,-4,-48,146,244,229,141,43,-53
-39,-63,-24,51,-7,-43,146,253,244,156,48,-43
-34,-58,-24,46,-4,-41,146,263,253,165,58,-34
-24,-48,-24,36,0,-36,146,273,268,180,63,-29
-24,-39,-14,31,-4,-26,146,278,278,185,68,-29
-14,-29,-14,21,0,-21,146,283,287,190,78,-19
-4,-24,-19,14,7,-21,146,283,292,204,87,-9
0,-14,-14,7,7,-14,141,287,292,214,92,0
9,0,-9,-4,9,-4,136,292,302,219,102,9
19,9,-9,-14,14,0,131,292,307,229,107,19
29,14,-14,-21,21,0,126,292,307,224,117,29
39,34,-4,-36,21,14,122,292,302,219,117,43
43,43,0,-43,21,21,112,283,302,224,126,53
58,53,-4,-56,31,24,102,273,292,229,131,63
73,73,0,-73,36,36,87,263,287,229,131,78
82,82,0,-82,41,41,82,244,278,219,136,82
92,87,-4,-90,48,41,63,224,263,209,136,92
102,102,0,-102,51,51,48,209,244,204,136,102
112,117,4,-114,53,61,29,190,229,195,136,107
117,122,4,-119,56,63,9,165,209,175,136,112
122,122,0,-122,61,61,0,146,200,165,136,112
122,117,-4,-119,63,56,-9,131,180,156,131,112
122,112,-9,-117,65,51,-14,117,165,146,126,112
126,112,-14,-119,70,48,-19,102,151,136,117,112
122,102,-19,-112,70,41,-19,87,136,126,112,102
112,92,-19,-102,65,36,-19,78,126,122,102,97
102,82,-19,-92,61,31,-19,58,117,107,92,87
97,73,-24,-85,61,24,-24,43,102,97,87,78
87,68,-19,-78,53,24,-24,34,92,87,78,78
73,63,-9,-68,41,26,-24,29,87,73,68,63
68,48,-19,-58,43,14,-29,24,73,68,63,58
58,39,-19,-48,39,9,-29,19,63,63,58,48
48,39,-9,-43,29,14,-24,14,58,58,48,43
39,34,-4,-36,21,14,-24,9,58,48,39,34
34,24,-9,-29,21,7,-19,9,53,43,39,34
24,14,-9,-19,17,2,-19,9,48,43,34,24
19,4,-14,-12,17,-4,-14,4,48,34,34,19
19,0,-19,-9,19,-9,-14,4,43,29,24,14
9,4,-4,-7,7,0,-14,4,39,29,19,9
4,4,0,-4,2,2,-9,4,39,14,14,4
4,4,0,-4,2,2,-9,4,39,14,14,4
0,0,0,0,0,0,-9,0,43,14,9,-4
-4,0,4,2,-4,2,-9,0,43,14,4,-4
-9,0,9,4,-9,4,0,0,43,14,0,-9
-14,-4,9,9,-12,2,0,4,43,14,-4,-9
-14,-9,4,12,-9,-2,0,4,43,9,-4,-14
-19,-14,4,17,-12,-4,0,4,43,9,-4,-9
-19,-19,0,19,-9,-9,0,4,39,9,0,-9
-14,-24,-9,19,-2,-17,4,4,39,14,-4,-9
-14,-24,-9,19,-2,-17,4,4,39,19,-4,-9
-14,-24,-9,19,-2,-17,4,9,39,19,-9,-9
-19,-29,-9,24,-4,-19,9,9,39,14,-14,-14
-24,-34,-9,29,-7,-21,9,9,34,14,-19,-24
-34,-39,-4,36,-14,-21,9,9,29,14,-19,-29
-34,-39,-4,36,-14,-21,9,9,29,14,-19,-29
-34,-39,-4,36,-14,-21,14,9,29,9,-24,-34
-29,-39,-9,34,-9,-24,14,9,24,4,-24,-29
-24,-39,-14,31,-4,-26,14,9,19,0,-24,-29
-34,-39,-4,36,-14,-21,19,9,19,0,-24,-29
-34,-43,-9,39,-12,-26,19,14,19,0,-29,-29
-39,-43,-4,41,-17,-24,19,14,24,0,-29,-34
-43,-43,0,43,-21,-21,19,14,24,0,-29,-43
-48,-43,4,46,-26,-19,19,14,24,0,-24,-48
-48,-43,4,46,-26,-19,19,14,24,-4,-24,-48
-48,-48,0,48,-24,-24,19,14,24,-4,-24,-48
-48,-48,0,48,-24,-24,24,14,24,-4,-24,-43
-48,-48,0,48,-24,-24,24,14,24,-4,-24,-43
-48,-48,0,48,-24,-24,19,14,24,-4,-24,-48
-48,-48,0,48,-24,-24,19,14,24,-4,-24,-48
-48,-48,0,48,-24,-24,19,9,24,-4,-24,-48
-48,-48,0,48,-24,-24,19,9,19,-9,-24,-43
-48,-48,0,48,-24,-24,19,9,19,-9,-24,-39
-48,-43,4,46,-26,-19,19,9,19,-9,-24,-39
-48,-43,4,46,-26,-19,19,4,19,-9,-24,-39
-48,-48,0,48,-24,-24,14,4,19,-9,-24,-43
-48,-48,0,48,-24,-24,14,4,14,-14,-24,-43
-48,-43,4,46,-26,-19,14,4,14,-14,-24,-43
-48,-39,9,43,-29,-14,14,4,14,-14,-24,-43
-43,-34,9,39,-26,-12,14,0,14,-9,-24,-43
-39,-29,9,34,-24,-9,19,0,14,-4,-24,-43
-39,-19,19,29,-29,0,19,0,14,0,-19,-39
-39,-9,29,24,-34,9,19,0,19,0,-19,-39
-39,-4,34,21,-36,14,19,0,19,0,-14,-29
-39,0,39,19,-39,19,19,0,19,0,-9,-19
-39,4,43,17,-41,24,24,0,19,0,-9,-19
-39,9,48,14,-43,29,34,4,24,0,-9,-19
-39,19,58,9,-48,39,43,14,29,4,-9,-19
-39,34,73,2,-56,53,48,14,39,9,-4,-14
-34,48,82,-7,-58,65,48,14,39,14,0,-14
-24,73,97,-24,-61,85,29,0,43,19,14,0
-14,87,102,-36,-58,95,0,-14,48,24,14,4
-4,97,102,-46,-53,100,-19,-29,43,24,14,9
-4,97,102,-46,-53,100,-43,-39,34,19,14,9
-4,112,117,-53,-61,114,-63,-53,24,14,14,14
0,131,131,-65,-65,131,-68,-58,24,9,14,14
4,136,131,-70,-63,134,-68,-58,29,9,14,19
34,141,107,-87,-36,124,-68,-53,29,14,24,29
43,126,82,-85,-19,104,-68,-53,29,14,24,34
43,92,48,-68,-2,70,-68,-53,9,4,14,29
19,68,48,-43,-14,58,-63,-53,0,-4,0,14
-19,48,68,-14,-43,58,-39,-43,0,-4,-4,0
-53,48,102,2,-78,75,-19,-34,0,-4,-9,-4
-53,29,82,12,-68,56,-9,-34,0,-9,-19,-14
-53,9,63,21,-58,36,-4,-29,-9,-24,-24,-19
-53,0,53,26,-53,26,-4,-29,-9,-24,-24,-29
-53,-9,43,31,-48,17,0,-24,-9,-24,-24,-34
-48,-29,19,39,-34,-4,4,-14,-9,-24,-24,-39
-48,-43,4,46,-26,-19,9,-4,-9,-24,-24,-39
-48,-48,0,48,-24,-24,9,-4,-9,-24,-24,-39
-53,-48,4,51,-29,-21,9,-4,-9,-24,-29,-43
-53,-48,4,51,-29,-21,9,0,-9,-24,-34,-43
-53,-48,4,51,-29,-21,14,0,-9,-24,-39,-43
-53,-48,4,51,-29,-21,14,0,-9,-24,-39,-39
-53,-53,0,53,-26,-26,14,0,-9,-24,-39,-39
-53,-58,-4,56,-24,-31,19,0,-9,-24,-34,-39
-53,-58,-4,56,-24,-31,29,4,-9,-24,-29,-39
-58,-58,0,58,-29,-29,29,4,-9,-24,-29,-39
-58,-58,0,58,-29,-29,29,4,-9,-24,-29,-39
-58,-58,0,58,-29,-29,24,4,-9,-24,-29,-34
-53,-58,-4,56,-24,-31,24,4,-9,-24,-34,-34
-53,-58,-4,56,-24,-31,24,0,-9,-24,-29,-39
-58,-63,-4,61,-26,-34,24,0,-4,-24,-24,-39
-68,-82,-14,75,-26,-48,34,4,-9,-29,-39,-48
-102,-102,0,102,-51,-51,68,24,-4,-48,-78,-82
-151,-126,24,139,-87,-51,117,58,-14,-82,-141,-151
-195,-141,53,168,-124,-43,170,107,14,-82,-165,-185
-214,-43,170,129,-192,63,190,156,122,14,-107,-141
-175,102,278,36,-226,190,156,165,258,170,39,-19
-48,229,278,-90,-163,253,53,122,351,326,229,161
78,326,248,-202,-85,287,-73,-19,307,385,370,317
141,414,273,-278,-65,344,-214,-273,146,326,429,439
234,536,302,-385,-34,419,-424,-561,-39,263,478,556
419,834,414,-627,2,624,-688,-834,-170,292,649,800
478,912,434,-695,21,673,-878,-1141,-488,29,531,814
405,502,97,-453,153,300,-1024,-1561,-1283,-849,-165,370
297,141,-156,-219,226,-7,-1102,-1810,-1839,-1464,-688,29
234,-156,-390,-39,312,-273,-1000,-1659,-1825,-1503,-790,-122
146,-302,-448,78,297,-375,-819,-1381,-1620,-1376,-766,-200
53,-331,-385,139,219,-358,-595,-1019,-1249,-1098,-683,-248
-53,-361,-307,207,126,-334,-370,-668,-893,-824,-590,-283
-112,-278,-165,195,26,-222,-170,-380,-585,-556,-429,-268
-131,-180,-48,156,-41,-114,-78,-204,-366,-361,-283,-209
-112,-141,-29,126,-41,-85,0,-87,-204,-219,-180,-146
-97,-112,-14,104,-41,-63,29,-43,-117,-141,-141,-112
-87,-112,-24,100,-31,-68,58,0,-58,-82,-82,-87
-78,-117,-39,97,-19,-78,78,34,-19,-53,-48,-78
-68,-117,-48,92,-9,-82,82,63,-4,-39,-48,-73
-68,-117,-48,92,-9,-82,92,78,19,-24,-48,-68
-68,-117,-48,92,-9,-82,92,82,24,-9,-43,-68
-68,-117,-48,92,-9,-82,97,92,34,0,-34,-68
-68,-117,-48,92,-9,-82,102,97,39,4,-24,-63
-73,-117,-43,95,-14,-80,107,107,48,14,-24,-58
-73,-117,-43,95,-14,-80,107,112,63,19,-29,-58
-68,-117,-48,92,-9,-82,117,117,68,24,-29,-58
-68,-117,-48,92,-9,-82,117,122,68,24,-29,-63
-68,-117,-48,92,-9,-82,117,126,78,29,-24,-63
-63,-112,-48,87,-7,-80,117,131,82,34,-24,-63
-63,-112,-48,87,-7,-80,112,131,82,39,-19,-63
-63,-112,-48,87,-7,-80,117,136,87,39,-19,-63
-68,-112,-43,90,-12,-78,117,146,92,43,-19,-63
-68,-112,-43,90,-12,-78,122,146,97,43,-19,-63
-68,-112,-43,90,-12,-78,122,151,102,48,-14,-63
-68,-117,-48,92,-9,-82,122,156,112,53,-9,-63
-68,-122,-53,95,-7,-87,122,161,117,53,-9,-63
-68,-122,-53,95,-7,-87,122,165,117,63,-9,-63
-63,-122,-58,92,-2,-90,126,175,131,68,-4,-63
-63,-117,-53,90,-4,-85,126,175,131,68,-4,-58
-63,-117,-53,90,-4,-85,131,185,141,78,0,-58
-68,-117,-48,92,-9,-82,131,195,151,82,4,-58
-68,-117,-48,92,-9,-82,131,200,156,87,4,-58
-68,-112,-43,90,-12,-78,136,209,165,92,14,-58
-68,-112,-43,90,-12,-78,136,214,180,102,19,-53
-63,-107,-43,85,-9,-75,146,224,190,112,24,-48
-58,-102,-43,80,-7,-73,151,234,200,117,29,-43
-58,-92,-34,75,-12,-63,151,244,209,126,34,-43
-53,-87,-34,70,-9,-61,156,253,219,131,43,-43
-48,-82,-34,65,-7,-58,156,263,234,146,48,-34
-43,-78,-34,61,-4,-56,156,273,239,151,58,-24
-34,-68,-34,51,0,-51,156,283,248,165,63,-19
-34,-58,-24,46,-4,-41,156,287,258,175,68,-19
-24,-48,-24,36,0,-36,151,292,268,180,78,-9
-14,-39,-24,26,4,-31,146,292,273,190,87,0
-9,-24,-14,17,2,-19,141,297,273,195,92,9
0,-9,-9,4,4,-9,136,302,283,200,102,19
14,4,-9,-9,12,-2,136,302,287,209,107,29
29,14,-14,-21,21,0,131,297,287,209,117,34
39,34,-4,-36,21,14,122,292,283,209,117,43
43,43,0,-43,21,21,112,283,283,214,126,53
58,53,-4,-56,31,24,97,273,273,219,131,63
73,73,0,-73,36,36,78,263,268,219,131,78
82,87,4,-85,39,46,73,244,253,209,136,82
92,97,4,-95,43,51,53,224,239,200,136,92
102,112,9,-107,46,61,39,209,224,190,136,102
112,122,9,-117,51,65,24,190,209,180,136,107
117,126,9,-122,53,68,9,161,190,165,136,112
122,131,9,-126,56,70,0,136,180,156,136,112
126,126,0,-126,63,63,-14,122,156,146,131,112
126,122,-4,-124,65,58,-24,107,141,136,126,112
126,117,-9,-122,68,53,-29,92,131,126,117,112
122,102,-19,-112,70,41,-29,78,117,117,112,102
112,92,-19,-102,65,36,-29,73,107,112,102,97
102,87,-14,-95,58,36,-29,63,97,102,92,87
97,73,-24,-85,61,24,-29,53,82,97,92,78
87,58,-29,-73,58,14,-24,43,73,87,87,78
73,53,-19,-63,46,17,-24,43,73,73,78,68
68,39,-29,-53,48,4,-24,43,68,68,73,68
58,29,-29,-43,43,0,-19,39,63,68,68,58
48,29,-19,-39,34,4,-14,34,58,68,58,53
39,24,-14,-31,26,4,-14,24,53,58,43,39
34,19,-14,-26,24,2,-9,19,43,53,39,34
24,14,-9,-19,17,2,-9,19,39,48,34,24
19,4,-14,-12,17,-4,-4,14,39,39,34,24
19,0,-19,-9,19,-9,-4,14,34,39,24,24
9,0,-9,-4,9,-4,-4,14,29,39,19,19
4,-4,-9,0,7,-7,0,14,29,24,14,14
4,-4,-9,0,7,-7,0,14,24,24,14,14
0,-9,-9,4,4,-9,0,9,24,24,9,4
0,-9,-9,4,4,-9,0,9,24,24,9,4
0,-9,-9,4,4,-9,9,9,24,24,9,0
-4,-14,-9,9,2,-12,9,14,24,24,4,0
-4,-19,-14,12,4,-17,9,14,24,19,9,-4
-9,-19,-9,14,0,-14,9,14,24,19,9,-4
-9,-14,-4,12,-2,-9,9,14,19,19,9,-9
-9,-14,-4,12,-2,-9,14,14,19,19,4,-9
-14,-14,0,14,-7,-7,14,14,19,14,4,-9
-14,-14,0,14,-7,-7,14,19,19,9,4,-9
-19,-19,0,19,-9,-9,19,19,19,4,0,-19
-19,-24,-4,21,-7,-14,19,19,19,4,-9,-29
-24,-29,-4,26,-9,-17,19,19,19,4,-9,-29
-24,-29,-4,26,-9,-17,19,19,19,4,-9,-29
-24,-34,-9,29,-7,-21,24,19,19,0,-14,-34
-24,-39,-14,31,-4,-26,24,19,19,0,-14,-34
-24,-39,-14,31,-4,-26,19,19,19,0,-14,-39
-34,-39,-4,36,-14,-21,19,19,19,0,-14,-39
-34,-43,-9,39,-12,-26,19,24,19,0,-19,-39
-34,-43,-9,39,-12,-26,19,24,19,0,-19,-39
-34,-43,-9,39,-12,-26,24,24,14,4,-19,-43
-39,-43,-4,41,-17,-24,29,24,14,9,-19,-48
-39,-43,-4,41,-17,-24,29,24,14,4,-24,-48
-39,-48,-9,43,-14,-29,29,24,14,4,-24,-48
-43,-48,-4,46,-19,-26,34,24,9,4,-24,-43
-48,-48,0,48,-24,-24,34,24,4,4,-24,-43
-48,-48,0,48,-24,-24,29,24,4,4,-24,-48
-48,-48,0,48,-24,-24,29,24,4,4,-24,-48
-48,-48,0,48,-24,-24,29,19,4,4,-24,-48
-48,-48,0,48,-24,-24,29,19,0,0,-24,-48
-48,-48,0,48,-24,-24,29,19,0,0,-24,-48
-48,-43,4,46,-26,-19,29,19,0,0,-24,-48
-48,-43,4,46,-26,-19,29,14,0,-4,-24,-48
-48,-48,0,48,-24,-24,24,14,0,-9,-24,-48
-48,-48,0,48,-24,-24,19,9,-4,-14,-24,-43
-48,-43,4,46,-26,-19,14,4,-4,-14,-24,-43
-48,-48,0,48,-24,-24,14,4,-4,-14,-29,-43
-43,-43,0,43,-21,-21,14,4,-4,-9,-29,-39
-39,-39,0,39,-19,-19,14,0,0,-9,-24,-34
-39,-34,4,36,-21,-14,19,0,4,-14,-24,-34
-34,-24,9,29,-21,-7,24,0,4,-9,-19,-29
-29,-19,9,24,-19,-4,29,0,9,-9,-19,-29
-29,-14,14,21,-21,0,29,0,9,-4,-14,-24
-29,-9,19,19,-24,4,29,0,9,0,-9,-19
-34,-4,29,19,-31,12,34,0,9,0,-4,-19
-34,0,34,17,-34,17,43,4,14,0,0,-19
-39,9,48,14,-43,29,53,14,19,4,0,-19
-39,24,63,7,-51,43,58,14,29,9,4,-14
-34,39,73,-2,-53,56,58,24,34,14,9,-14
-24,63,87,-19,-56,75,39,19,43,19,24,0
-14,78,92,-31,-53,85,9,4,43,29,24,9
-4,87,92,-41,-48,90,-9,-9,34,34,24,19
0,87,87,-43,-43,87,-29,-24,24,29,24,19
4,102,97,-53,-46,100,-43,-43,14,24,24,24
9,131,122,-70,-56,126,-58,-53,14,14,24,24
14,146,131,-80,-58,139,-68,-58,19,9,24,29
43,161,117,-102,-36,139,-68,-53,19,14,34,39
53,156,102,-104,-24,129,-68,-53,19,14,34,43
58,122,63,-90,-2,92,-63,-48,4,9,24,39
39,97,58,-68,-9,78,-53,-43,0,4,9,24
4,63,58,-34,-26,61,-29,-34,0,4,4,9
-24,48,73,-12,-48,61,-9,-24,0,4,0,4
-34,24,58,4,-46,41,-4,-24,0,0,-9,-4
-43,0,43,21,-43,21,-4,-19,-9,-14,-14,-9
-43,-9,34,26,-39,12,-4,-19,-9,-14,-14,-14
-43,-19,24,31,-34,2,0,-14,-9,-14,-14,-14
-39,-34,4,36,-21,-14,9,-9,-14,-14,-14,-19
-39,-43,-4,41,-17,-24,19,-4,-19,-14,-14,-19
-39,-48,-9,43,-14,-29,19,-4,-19,-19,-14,-19
-43,-48,-4,46,-19,-26,19,-4,-19,-24,-19,-24
-43,-48,-4,46,-19,-26,19,0,-19,-24,-19,-29
-43,-48,-4,46,-19,-26,24,0,-19,-24,-19,-34
-43,-48,-4,46,-19,-26,24,0,-19,-24,-19,-34
-43,-53,-9,48,-17,-31,24,0,-19,-24,-19,-39
-43,-58,-14,51,-14,-36,24,0,-19,-24,-24,-39
-43,-58,-14,51,-14,-36,29,4,-19,-24,-29,-39
-48,-58,-9,53,-19,-34,34,4,-14,-19,-29,-39
-48,-58,-9,53,-19,-34,39,4,-9,-14,-29,-39
-48,-58,-9,53,-19,-34,39,4,-9,-14,-24,-29
-43,-58,-14,51,-14,-36,43,4,-9,-14,-24,-24
-39,-53,-14,46,-12,-34,34,0,-9,-14,-19,-24
-39,-53,-14,46,-12,-34,24,0,-4,-14,-14,-19
-43,-73,-29,58,-7,-51,24,4,-9,-19,-29,-29
-73,-92,-19,82,-26,-56,48,24,-4,-39,-68,-63
-131,-131,0,131,-65,-65,107,48,-29,-82,-136,-136
-185,-161,24,173,-104,-68,170,87,-14,-92,-165,-175
-224,-78,146,151,-185,34,209,156,82,-14,-141,-170
-204,53,258,75,-231,156,195,185,209,122,-29,-87
-92,180,273,-43,-183,226,112,180,346,312,180,97
19,278,258,-148,-119,268,4,78,346,405,341,258
87,361,273,-224,-92,317,-122,-170,190,341,400,380
185,478,292,-331,-53,385,-317,-453,9,273,448,497
400,834,434,-617,-17,634,-595,-727,-58,385,697,805
488,971,483,-729,2,727,-800,-1034,-312,204,658,883
414,580,165,-497,124,373,-980,-1517,-1171,-732,-78,434
307,239,-68,-273,187,85,-1093,-1830,-1790,-1405,-639,87
244,-102,-346,-70,295,-224,-1019,-1737,-1869,-1527,-800,-97
156,-292,-448,68,302,-370,-868,-1517,-1756,-1483,-834,-209
78,-326,-405,124,241,-366,-653,-1146,-1385,-1205,-741,-263
-14,-361,-346,187,165,-353,-439,-785,-1029,-932,-639,-302
-92,-292,-200,192,53,-246,-204,-453,-688,-639,-478,-292
-131,-209,-78,170,-26,-143,-78,-234,-434,-419,-331,-239
-112,-156,-43,134,-34,-100,-4,-102,-253,-253,-209,-161
-97,-112,-14,104,-41,-63,19,-43,-146,-151,-151,-112
-87,-107,-19,97,-34,-63,43,0,-87,-87,-97,-87
-78,-107,-29,92,-24,-68,58,34,-48,-53,-68,-78
-63,-107,-43,85,-9,-75,68,63,-24,-39,-63,-73
-58,-107,-48,82,-4,-78,82,78,9,-24,-58,-68
-58,-102,-43,80,-7,-73,82,78,14,-14,-53,-68
-58,-97,-39,78,-9,-68,87,82,24,-9,-43,-68
-58,-97,-39,78,-9,-68,92,92,29,-4,-34,-68
-63,-97,-34,80,-14,-65,97,107,39,4,-34,-68
-63,-97,-34,80,-14,-65,97,112,53,14,-29,-68
-58,-97,-39,78,-9,-68,107,117,58,24,-19,-68
-58,-97,-39,78,-9,-68,107,122,58,24,-19,-63
-58,-97,-39,78,-9,-68,107,126,68,29,-14,-53
-53,-97,-43,75,-4,-70,112,131,68,34,-14,-53
-53,-102,-48,78,-2,-75,112,131,63,39,-9,-53
-53,-97,-43,75,-4,-70,117,136,68,39,-9,-58
-58,-92,-34,75,-12,-63,117,146,73,43,-9,-63
-58,-92,-34,75,-12,-63,122,146,78,43,-14,-63
-58,-92,-34,75,-12,-63,122,151,82,48,-14,-63
-58,-97,-39,78,-9,-68,122,156,92,53,-9,-63
-58,-102,-43,80,-7,-73,122,161,97,53,-9,-63
-58,-102,-43,80,-7,-73,122,165,97,58,-9,-63
-53,-102,-48,78,-2,-75,126,175,112,58,-4,-63
-53,-102,-48,78,-2,-75,126,175,112,58,-4,-53
-53,-107,-53,80,0,-80,131,185,122,68,0,-48
-58,-107,-48,82,-4,-78,131,195,131,73,4,-48
-58,-107,-48,82,-4,-78,131,200,136,78,4,-48
-58,-102,-43,80,-7,-73,136,204,141,82,14,-53
-58,-102,-43,80,-7,-73,136,204,151,92,19,-53
-53,-97,-43,75,-4,-70,141,214,161,102,24,-48
-48,-92,-43,70,-2,-68,141,224,170,107,29,-43
-48,-82,-34,65,-7,-58,141,234,180,117,34,-43
-43,-78,-34,61,-4,-56,146,244,190,122,43,-43
-39,-73,-34,56,-2,-53,146,253,204,136,48,-34
-34,-68,-34,51,0,-51,146,263,209,141,58,-24
-24,-58,-34,41,4,-46,146,273,219,151,58,-24
-24,-48,-24,36,0,-36,146,278,229,156,58,-29
-14,-39,-24,26,4,-31,146,287,239,161,68,-19
-4,-29,-24,17,9,-26,146,292,244,170,78,-9
0,-14,-14,7,7,-14,141,297,244,170,82,0
9,0,-9,-4,9,-4,136,302,253,170,92,9
19,9,-9,-14,14,0,136,307,258,180,97,19
29,14,-14,-21,21,0,131,307,258,180,107,24
39,34,-4,-36,21,14,122,302,253,180,107,34
43,43,0,-43,21,21,112,292,253,185,117,43
58,53,-4,-56,31,24,102,283,244,190,122,53
73,73,0,-73,36,36,87,273,239,190,122,68
82,82,0,-82,41,41,82,253,234,185,126,73
92,87,-4,-90,48,41,63,234,229,180,126,82
107,107,0,-107,53,53,48,219,214,175,126,92
122,122,0,-122,61,61,34,200,200,170,126,97
126,122,-4,-124,65,58,14,175,170,151,122,102
131,122,-9,-126,70,56,0,156,151,136,117,102
131,117,-14,-124,73,51,-9,141,131,126,112,102
126,112,-14,-119,70,48,-14,126,122,117,107,102
131,112,-19,-122,75,46,-24,112,112,107,107,107
131,102,-29,-117,80,36,-29,97,97,97,112,102
122,92,-29,-107,75,31,-29,82,87,92,102,97
112,87,-24,-100,68,31,-29,63,78,82,92,87
107,82,-24,-95,65,29,-34,53,63,78,87,78
97,78,-19,-87,58,29,-34,43,53,68,78,78
82,73,-9,-78,46,31,-34,39,48,53,68,63
78,58,-19,-68,48,19,-34,34,39,48,63,58
68,48,-19,-58,43,14,-29,29,39,43,58,48
58,48,-9,-53,34,19,-24,24,39,39,48,43
48,43,-4,-46,26,19,-24,19,39,34,39,34
43,39,-4,-41,24,17,-19,19,34,34,39,34
34,34,0,-34,17,17,-19,19,24,34,34,24
29,24,-4,-26,17,9,-14,14,19,29,34,24
29,19,-9,-24,19,4,-19,9,14,24,24,24
19,19,0,-19,9,9,-24,4,9,19,19,19
9,9,0,-9,4,4,-19,4,9,4,14,14
4,4,0,-4,2,2,-19,4,4,4,14,14
0,0,0,0,0,0,-19,0,4,4,9,4
0,0,0,0,0,0,-19,0,4,4,9,4
0,0,0,0,0,0,-9,0,4,4,9,0
-4,-4,0,4,-2,-2,-9,4,4,4,4,0
-4,-9,-4,7,0,-7,-9,9,9,4,4,-4
-9,-9,0,9,-4,-4,-9,14,14,9,0,-4
-4,-9,-4,7,0,-7,-9,14,9,9,0,-9
0,-14,-14,7,7,-14,-4,14,9,9,-4,-9
-4,-14,-9,9,2,-12,-4,9,4,4,-4,-9
-4,-14,-9,9,2,-12,-4,9,0,0,-4,-9
-14,-19,-4,17,-4,-12,0,9,0,-4,-4,-14
-19,-24,-4,21,-7,-14,0,9,0,-4,-9,-19
-24,-29,-4,26,-9,-17,0,9,0,0,-9,-19
-24,-29,-4,26,-9,-17,0,9,0,4,-9,-19
-24,-29,-4,26,-9,-17,4,9,-4,0,-14,-24
-24,-29,-4,26,-9,-17,4,9,-9,0,-14,-24
-24,-29,-4,26,-9,-17,4,9,-9,-4,-14,-29
-34,-29,4,31,-19,-12,9,9,-9,-9,-14,-29
-34,-34,0,34,-17,-17,9,14,-4,-9,-24,-34
-34,-34,0,34,-17,-17,9,14,0,-9,-29,-39
-34,-29,4,31,-19,-12,9,14,-4,-9,-29,-43
-39,-24,14,31,-26,-4,9,14,-4,-9,-29,-48
-39,-24,14,31,-26,-4,9,14,-4,-14,-29,-43
-39,-29,9,34,-24,-9,9,14,-4,-14,-24,-39
-39,-34,4,36,-21,-14,14,14,-4,-14,-24,-34
-39,-39,0,39,-19,-19,14,14,-4,-14,-24,-34
-39,-39,0,39,-19,-19,9,14,-4,-14,-24,-39
-39,-39,0,39,-19,-19,9,14,-4,-14,-24,-39
-39,-39,0,39,-19,-19,14,9,-4,-14,-24,-39
-39,-39,0,39,-19,-19,19,9,-9,-19,-24,-39
-39,-39,0,39,-19,-19,19,9,-9,-19,-24,-39
-39,-34,4,36,-21,-14,19,9,-9,-19,-24,-39
-39,-29,9,34,-24,-9,19,4,-9,-19,-24,-39
-39,-29,9,34,-24,-9,14,4,-9,-19,-24,-39
-39,-29,9,34,-24,-9,14,0,-14,-24,-24,-34
-39,-24,14,31,-26,-4,14,-4,-14,-24,-24,-34
-39,-34,4,36,-21,-14,9,-4,-14,-24,-24,-39
-34,-34,0,34,-17,-17,4,-4,-14,-19,-19,-39
-29,-29,0,29,-14,-14,4,-4,-9,-19,-19,-34
-29,-24,4,26,-17,-9,9,-9,-4,-24,-24,-34
-29,-14,14,21,-21,0,9,-4,0,-19,-19,-24
-29,-9,19,19,-24,4,9,0,0,-19,-19,-19
-29,0,29,14,-29,14,9,0,0,-14,-19,-19
-29,9,39,9,-34,24,9,0,0,-9,-19,-19
-29,14,43,7,-36,29,19,0,0,-4,-14,-19
-24,19,43,2,-34,31,29,4,4,0,-9,-14
-24,29,53,-2,-39,41,39,14,9,4,-9,-14
-19,43,63,-12,-41,53,39,14,19,9,-4,-4
-14,63,78,-24,-46,70,39,14,19,4,-4,-4
-4,92,97,-43,-51,95,19,0,24,0,4,9
4,107,102,-56,-48,104,-9,-14,24,4,4,14
14,117,102,-65,-43,109,-29,-29,14,4,4,19
19,117,97,-68,-39,107,-48,-39,4,9,9,19
24,131,107,-78,-41,119,-63,-53,-4,14,14,24
34,151,117,-92,-41,134,-68,-58,-4,9,14,24
43,156,112,-100,-34,134,-68,-58,0,9,14,29
63,156,92,-109,-14,124,-68,-53,0,9,24,34
63,136,73,-100,-4,104,-68,-53,0,4,24,34
58,102,43,-80,7,73,-68,-53,-14,-4,14,29
29,78,48,-53,-9,63,-63,-53,-19,-14,0,14
-4,53,58,-24,-31,56,-39,-43,-19,-14,-4,0
-34,48,82,-7,-58,65,-19,-34,-19,-14,-9,-4
-34,29,63,2,-48,46,-9,-34,-19,-19,-19,-14
-34,9,43,12,-39,26,-4,-29,-29,-34,-24,-19
-39,0,39,19,-39,19,-4,-29,-29,-34,-24,-24
-43,-9,34,26,-39,12,0,-24,-29,-34,-24,-24
-39,-24,14,31,-26,-4,4,-19,-29,-34,-24,-34
-39,-34,4,36,-21,-14,9,-14,-29,-34,-24,-39
-39,-39,0,39,-19,-19,9,-14,-29,-34,-24,-39
-43,-39,4,41,-24,-17,9,-14,-29,-34,-29,-43
-39,-39,0,39,-19,-19,9,-9,-29,-34,-29,-43
-34,-39,-4,36,-14,-21,14,-9,-29,-34,-29,-43
-34,-39,-4,36,-14,-21,14,-9,-29,-29,-29,-39
-34,-43,-9,39,-12,-26,14,-9,-29,-24,-29,-39
-34,-48,-14,41,-9,-31,14,-9,-29,-24,-29,-39
-34,-48,-14,41,-9,-31,19,-4,-29,-24,-29,-39
-39,-53,-14,46,-12,-34,19,-4,-29,-29,-29,-39
-39,-58,-19,48,-9,-39,19,-4,-29,-34,-29,-39
-48,-58,-9,53,-19,-34,14,-4,-29,-34,-29,-34
-53,-58,-4,56,-24,-31,14,-4,-29,-34,-34,-34
-43,-53,-9,48,-17,-31,14,-4,-29,-34,-29,-39
-39,-53,-14,46,-12,-34,14,0,-24,-34,-24,-39
-53,-73,-19,63,-17,-46,34,14,-24,-34,-39,-58
-92,-92,0,92,-46,-46,78,43,-14,-48,-78,-102
-151,-107,43,129,-97,-31,131,82,-4,-58,-122,-151
-204,-112,92,158,-148,-9,190,136,43,-34,-126,-165
-204,-9,195,107,-200,92,195,170,146,63,-58,-112
-146,141,287,2,-217,214,146,165,278,219,97,19
-34,268,302,-117,-168,285,48,107,351,346,268,190
78,366,287,-222,-104,326,-73,-48,287,375,390,336
161,458,297,-309,-68,378,-229,-307,117,297,429,444
273,585,312,-429,-19,448,-453,-600,-78,214,458,546
424,800,375,-612,24,588,-692,-897,-268,151,522,717
448,795,346,-622,51,570,-858,-1229,-644,-204,297,658
361,405,43,-383,158,224,-985,-1600,-1346,-980,-326,239
239,63,-175,-151,207,-56,-1044,-1800,-1810,-1493,-775,-78
175,-185,-361,4,268,-273,-932,-1615,-1756,-1473,-824,-190
87,-283,-370,97,229,-326,-741,-1302,-1512,-1288,-746,-229
9,-283,-292,136,151,-287,-541,-961,-1161,-1019,-653,-268
-82,-283,-200,183,58,-241,-341,-629,-824,-756,-551,-292
-122,-214,-92,168,-14,-153,-151,-351,-536,-512,-400,-268
-122,-131,-9,126,-56,-70,-68,-185,-336,-341,-263,-200
-102,-107,-4,104,-48,-56,-4,-78,-195,-209,-165,-136
-87,-92,-4,90,-41,-48,9,-43,-126,-141,-131,-102
-78,-92,-14,85,-31,-53,34,-4,-78,-87,-82,-82
-68,-97,-29,82,-19,-63,48,24,-48,-63,-58,-78
-58,-97,-39,78,-9,-68,53,53,-34,-48,-53,-73
-58,-97,-39,78,-9,-68,63,68,-9,-34,-48,-68
-58,-97,-39,78,-9,-68,63,68,-4,-24,-43,-68
-58,-97,-39,78,-9,-68,68,73,4,-19,-34,-68
-58,-97,-39,78,-9,-68,73,78,9,-14,-29,-68
-63,-97,-34,80,-14,-65,78,87,19,-4,-34,-68
-58,-97,-39,78,-9,-68,78,92,29,0,-34,-68
-48,-97,-48,73,0,-73,87,97,29,4,-29,-68
-48,-97,-48,73,0,-73,87,107,34,4,-29,-68
-48,-97,-48,73,0,-73,87,117,48,9,-24,-63
-43,-97,-53,70,4,-75,92,122,53,14,-24,-63
-43,-102,-58,73,7,-80,92,122,53,19,-19,-63
-43,-102,-58,73,7,-80,97,126,58,19,-19,-63
-48,-102,-53,75,2,-78,97,136,63,24,-19,-63
-48,-102,-53,75,2,-78,102,136,68,24,-19,-63
-48,-102,-53,75,2,-78,102,141,73,29,-14,-63
-48,-102,-53,75,2,-78,102,146,82,34,-9,-63
-48,-102,-53,75,2,-78,102,151,87,34,-9,-63
-48,-102,-53,75,2,-78,102,156,82,39,-9,-63
-43,-102,-58,73,7,-80,107,165,92,39,-4,-63
-43,-97,-53,70,4,-75,107,165,92,39,-4,-58
-43,-97,-53,70,4,-75,112,175,102,48,0,-58
-43,-92,-48,68,2,-70,112,185,112,58,4,-58
-39,-87,-48,63,4,-68,112,190,117,68,4,-58
-39,-82,-43,61,2,-63,117,200,122,73,19,-58
-39,-82,-43,61,2,-63,117,204,131,82,29,-53
-34,-87,-53,61,9,-70,122,214,141,92,34,-48
-29,-92,-63,61,17,-78,122,224,151,97,39,-43
-29,-87,-58,58,14,-73,122,234,161,102,34,-43
-24,-87,-63,56,19,-75,126,244,170,102,34,-43
-19,-82,-63,51,21,-73,126,253,185,117,39,-34
-14,-78,-63,46,24,-70,126,263,190,122,48,-24
-4,-68,-63,36,29,-65,126,273,200,131,53,-19
-4,-58,-53,31,24,-56,126,278,209,136,58,-19
4,-48,-53,21,29,-51,126,283,219,141,68,-14
14,-39,-53,12,34,-46,126,283,224,151,78,-9
19,-29,-48,4,34,-39,122,287,224,156,82,0
29,-19,-48,-4,39,-34,117,292,234,161,92,9
39,-9,-48,-14,43,-29,112,292,239,180,97,24
48,-4,-53,-21,51,-29,102,287,239,190,107,34
63,19,-43,-41,53,-12,92,283,234,180,107,43
73,34,-39,-53,56,-2,82,273,234,175,117,53
87,43,-43,-65,65,0,73,268,224,180,122,63
102,63,-39,-82,70,12,58,263,219,180,122,78
112,68,-43,-90,78,12,53,244,209,175,131,82
122,68,-53,-95,87,7,34,224,200,170,136,92
131,82,-48,-107,90,17,24,209,190,165,136,102
141,92,-48,-117,95,21,14,190,180,161,136,107
146,92,-53,-119,100,19,0,165,161,146,136,107
151,92,-58,-122,104,17,-9,146,151,136,136,102
146,87,-58,-117,102,14,-19,131,131,126,131,102
136,82,-53,-109,95,14,-24,117,122,117,126,102
136,92,-43,-114,90,24,-29,102,117,112,117,102
131,92,-39,-112,85,26,-29,87,107,107,112,92
122,82,-39,-102,80,21,-29,78,97,102,107,92
112,78,-34,-95,73,21,-29,63,87,92,102,87
107,73,-34,-90,70,19,-34,53,73,87,97,78
97,68,-29,-82,63,19,-34,43,63,78,87,78
82,63,-19,-73,51,21,-34,34,58,63,78,63
78,48,-29,-63,53,9,-34,24,48,58,73,58
68,39,-29,-53,48,4,-34,19,39,48,63,48
58,39,-19,-48,39,9,-34,14,29,39,48,43
48,34,-14,-41,31,9,-34,9,29,29,39,34
43,29,-14,-36,29,7,-29,9,24,24,39,34
29,29,0,-29,14,14,-24,9,19,24,34,24
19,24,4,-21,7,14,-14,4,19,19,34,24
19,19,0,-19,9,9,-14,4,14,19,24,14
9,19,9,-14,0,14,-14,4,9,19,19,0
4,9,4,-7,0,7,-9,4,9,4,14,-4
4,4,0,-4,2,2,-9,4,4,4,14,-4
0,0,0,0,0,0,-9,0,4,4,9,-9
0,0,0,0,0,0,-9,0,4,4,9,-4
0,0,0,0,0,0,0,0,9,4,9,0
-4,-4,0,4,-2,-2,0,4,14,4,4,9
-4,-9,-4,7,0,-7,0,4,14,0,4,-4
-9,-9,0,9,-4,-4,0,4,14,0,0,-14
-9,-9,0,9,-4,-4,0,4,4,0,0,-19
-9,-14,-4,12,-2,-9,4,4,0,0,-4,-19
-19,-14,4,17,-12,-4,4,4,0,0,-4,-19
-24,-14,9,19,-17,-2,4,9,0,0,-4,-19
-29,-19,9,24,-19,-4,9,9,0,-4,-4,-24
-29,-24,4,26,-17,-9,9,9,0,-4,-9,-29
-29,-29,0,29,-14,-14,9,9,0,-4,-9,-29
-24,-29,-4,26,-9,-17,9,9,0,-4,-9,-29
-24,-24,0,24,-12,-12,14,9,0,-9,-14,-29
-24,-19,4,21,-14,-7,14,9,0,-9,-14,-24
-24,-19,4,21,-14,-7,19,9,0,-4,-14,-29
-34,-19,14,26,-24,-2,29,9,0,0,-14,-29
-34,-29,4,31,-19,-12,29,14,4,0,-19,-29
-34,-34,0,34,-17,-17,29,14,9,0,-19,-29
-34,-34,0,34,-17,-17,24,14,4,0,-19,-34
-39,-34,4,36,-21,-14,19,14,4,0,-19,-39
-39,-34,4,36,-21,-14,19,14,0,-4,-24,-39
-39,-39,0,39,-19,-19,19,14,-4,-4,-24,-39
-39,-39,0,39,-19,-19,24,14,-4,-4,-24,-34
-39,-39,0,39,-19,-19,24,14,-4,-4,-24,-34
-39,-34,4,36,-21,-14,19,14,-4,-4,-19,-39
-39,-29,9,34,-24,-9,19,14,-4,-4,-14,-39
-39,-29,9,34,-24,-9,14,9,-4,-4,-14,-39
-39,-29,9,34,-24,-9,9,9,-9,-9,-14,-39
-39,-34,4,36,-21,-14,9,9,-9,-9,-19,-39
-39,-34,4,36,-21,-14,9,9,-9,-9,-24,-39
-39,-34,4,36,-21,-14,14,4,-9,-9,-24,-39
-39,-39,0,39,-19,-19,14,4,-9,-9,-24,-39
-39,-39,0,39,-19,-19,14,4,-14,-14,-24,-34
-39,-34,4,36,-21,-14,14,4,-14,-14,-24,-34
-34,-29,4,31,-19,-12,14,0,-9,-9,-19,-29
-34,-24,9,29,-21,-7,19,0,-4,-4,-14,-24
-29,-9,19,19,-24,4,19,0,0,0,-9,-19
-29,0,29,14,-29,14,19,0,0,0,-9,-19
-29,4,34,12,-31,19,19,0,0,0,-9,-19
-29,9,39,9,-34,24,19,0,0,0,-9,-19
-29,14,43,7,-36,29,24,0,0,0,-9,-19
-29,19,48,4,-39,34,29,4,4,0,-9,-14
-29,29,58,0,-43,43,39,14,9,4,-9,-14
-29,43,73,-7,-51,58,39,14,19,9,-4,-4
-19,58,78,-19,-48,68,39,14,19,14,0,0
-4,82,87,-39,-46,85,19,0,24,19,14,19
4,102,97,-53,-46,100,-9,-14,29,24,14,24
14,117,102,-65,-43,109,-29,-29,24,24,14,29
19,117,97,-68,-39,107,-48,-39,14,19,14,24
24,131,107,-78,-41,119,-63,-53,4,14,14,24
29,151,122,-90,-46,136,-68,-58,0,9,14,24
34,156,122,-95,-43,139,-68,-58,0,9,14,29
53,156,102,-104,-24,129,-68,-53,0,14,24,34
53,136,82,-95,-14,109,-68,-53,0,14,24,34
53,102,48,-78,2,75,-63,-53,-19,0,14,29
29,78,48,-53,-9,63,-53,-53,-29,-14,0,14
-4,53,58,-24,-31,56,-29,-48,-29,-14,-4,-4
-34,48,82,-7,-58,65,-9,-43,-29,-14,-9,-14
-39,29,68,4,-53,48,-4,-43,-29,-19,-19,-24
-43,9,53,17,-48,31,-4,-39,-39,-34,-24,-29
-43,0,43,21,-43,21,-4,-34,-34,-34,-24,-34
-43,-9,34,26,-39,12,0,-24,-29,-34,-24,-34
-39,-24,14,31,-26,-4,4,-19,-29,-34,-24,-39
-39,-34,4,36,-21,-14,9,-14,-29,-34,-24,-39
-34,-39,-4,36,-14,-21,9,-14,-29,-29,-24,-34
-34,-39,-4,36,-14,-21,9,-14,-29,-24,-29,-34
-34,-43,-9,39,-12,-26,9,-9,-29,-24,-29,-34
-34,-48,-14,41,-9,-31,14,-9,-29,-24,-29,-34
-34,-48,-14,41,-9,-31,14,-9,-29,-24,-29,-34
-34,-53,-19,43,-7,-36,14,-9,-29,-24,-29,-39
-34,-58,-24,46,-4,-41,14,-9,-29,-24,-29,-39
-34,-58,-24,46,-4,-41,19,-4,-29,-24,-29,-39
-43,-53,-9,48,-17,-31,19,-4,-29,-29,-34,-43
-48,-48,0,48,-24,-24,19,-4,-29,-34,-39,-48
-48,-48,0,48,-24,-24,19,-4,-29,-34,-39,-43
-43,-48,-4,46,-19,-26,24,-4,-29,-34,-43,-43
-39,-48,-9,43,-14,-29,24,-4,-24,-29,-39,-48
-39,-53,-14,46,-12,-34,24,0,-14,-24,-34,-48
-53,-73,-19,63,-17,-46,43,19,-14,-24,-48,-68
-92,-92,0,92,-46,-46,87,53,-4,-39,-87,-112
-141,-102,39,122,-90,-31,136,87,9,-48,-117,-156
-185,-102,82,143,-134,-9,190,136,63,-24,-107,-165
-185,0,185,92,-185,92,190,170,161,73,-48,-107
-126,151,278,-12,-202,214,136,165,287,229,97,29
-14,278,292,-131,-153,285,34,97,336,341,258,200
97,375,278,-236,-90,326,-92,-68,248,356,370,346
175,488,312,-331,-68,400,-248,-326,78,278,419,468
283,634,351,-458,-34,492,-473,-619,-117,195,458,585
429,814,385,-622,21,600,-702,-893,-307,122,512,741
448,775,326,-612,61,551,-858,-1200,-683,-244,278,668
351,395,43,-373,153,219,-971,-1546,-1342,-976,-326,263
219,63,-156,-141,187,-46,-1015,-1722,-1761,-1444,-756,-39
156,-175,-331,9,244,-253,-897,-1542,-1698,-1424,-805,-161
68,-263,-331,97,200,-297,-702,-1234,-1444,-1239,-727,-209
4,-263,-268,129,136,-265,-512,-902,-1102,-971,-629,-248
-73,-263,-190,168,58,-226,-322,-580,-775,-707,-522,-273
-112,-204,-92,158,-9,-148,-136,-312,-497,-463,-370,-248
-112,-131,-19,122,-46,-75,-58,-156,-307,-292,-234,-180
-92,-107,-14,100,-39,-61,4,-58,-175,-185,-151,-126
-78,-92,-14,85,-31,-53,19,-34,-117,-141,-131,-102
-68,-92,-24,80,-21,-58,43,4,-68,-87,-82,-82
-58,-97,-39,78,-9,-68,58,34,-39,-63,-58,-78
-48,-97,-48,73,0,-73,63,63,-24,-43,-58,-78
-48,-97,-48,73,0,-73,73,78,0,-24,-58,-78
-48,-97,-48,73,0,-73,73,78,4,-14,-53,-78
-48,-97,-48,73,0,-73,78,82,14,-9,-43,-78
-48,-102,-53,75,2,-78,82,87,19,-4,-34,-73
-53,-107,-53,80,0,-80,87,97,29,4,-34,-68
-53,-107,-53,80,0,-80,87,102,39,9,-34,-68
-48,-107,-58,78,4,-82,97,107,39,14,-29,-68
-48,-107,-58,78,4,-82,97,112,39,14,-29,-68
-48,-107,-58,78,4,-82,97,117,48,19,-24,-63
-43,-107,-63,75,9,-85,102,122,53,19,-24,-63
-43,-112,-68,78,12,-90,102,122,53,19,-19,-63
-43,-112,-68,78,12,-90,107,126,58,19,-19,-68
-48,-112,-63,80,7,-87,107,136,63,24,-19,-73
-48,-112,-63,80,7,-87,107,136,68,29,-19,-73
-48,-112,-63,80,7,-87,102,141,73,39,-14,-73
-48,-112,-63,80,7,-87,102,146,82,43,-9,-68
-48,-112,-63,80,7,-87,102,151,87,43,-9,-63
-48,-112,-63,80,7,-87,102,151,82,48,-9,-63
-43,-112,-68,78,12,-90,107,156,92,48,-4,-63
-43,-107,-63,75,9,-85,107,156,92,48,-4,-58
-43,-107,-63,75,9,-85,112,165,102,58,0,-58
-43,-102,-58,73,7,-80,112,175,112,63,4,-58
-39,-97,-58,68,9,-78,112,180,117,68,4,-58
-39,-92,-53,65,7,-73,117,190,126,73,9,-63
-39,-92,-53,65,7,-73,117,195,141,82,9,-63
-34,-92,-58,63,12,-75,122,204,151,92,14,-58
-29,-92,-63,61,17,-78,122,214,161,97,19,-53
-29,-87,-58,58,14,-73,122,224,165,107,29,-48
-24,-87,-63,56,19,-75,126,234,170,112,43,-43
-19,-82,-63,51,21,-73,126,244,185,126,48,-34
-14,-78,-63,46,24,-70,126,253,190,131,58,-24
-4,-68,-63,36,29,-65,126,263,204,141,63,-19
-4,-58,-53,31,24,-56,126,268,219,146,68,-19
4,-53,-58,24,31,-56,126,273,229,151,78,-9
14,-48,-63,17,39,-56,126,273,234,161,87,0
19,-34,-53,7,36,-43,122,273,229,161,92,9
29,-19,-48,-4,39,-34,117,273,234,161,102,19
39,-4,-43,-17,41,-24,112,273,239,170,97,24
48,4,-43,-26,46,-19,102,268,239,170,97,24
58,24,-34,-41,46,-4,92,268,234,170,107,34
63,34,-29,-48,46,2,82,263,234,175,126,43
73,39,-34,-56,53,2,73,253,229,180,131,53
82,53,-29,-68,56,12,58,244,229,180,131,68
92,63,-29,-78,61,17,53,224,219,170,136,73
102,68,-34,-85,68,17,34,204,209,161,136,82
112,82,-29,-97,70,26,24,195,200,161,141,102
122,92,-29,-107,75,31,14,180,190,161,146,117
126,92,-34,-109,80,29,0,161,170,156,146,122
131,92,-39,-112,85,26,-9,146,161,156,146,122
131,87,-43,-109,87,21,-19,131,141,136,136,117
126,82,-43,-104,85,19,-24,117,131,117,126,112
126,82,-43,-104,85,19,-29,102,122,107,117,102
122,73,-48,-97,85,12,-29,87,107,97,112,82
112,63,-48,-87,80,7,-29,73,97,92,107,87
102,58,-43,-80,73,7,-29,53,87,82,102,87
92,53,-39,-73,65,7,-34,43,73,78,97,78
78,48,-29,-63,53,9,-34,34,63,68,87,78
63,48,-14,-56,39,17,-34,29,58,48,73,58
58,39,-19,-48,39,9,-34,24,48,39,63,48
48,29,-19,-39,34,4,-29,19,43,34,58,39
39,29,-9,-34,24,9,-24,14,39,29,48,34
29,24,-4,-26,17,9,-24,9,39,24,39,29
24,19,-4,-21,14,7,-19,9,34,24,39,34
14,14,0,-14,7,7,-19,9,29,24,34,24
9,4,-4,-7,7,0,-14,4,29,19,34,24
9,0,-9,-4,9,-4,-14,4,24,19,14,9
0,0,0,0,0,0,-14,4,19,19,0,-9
-4,-4,0,4,-2,-2,-9,4,19,4,9,-4
-4,-4,0,4,-2,-2,-9,4,14,4,24,4
-9,-9,0,9,-4,-4,-9,0,14,0,9,-4
-9,-9,0,9,-4,-4,-9,0,14,-4,0,-4
-9,-9,0,9,-4,-4,0,0,14,-4,0,-9
-14,-14,0,14,-7,-7,0,4,14,-4,-4,-9
-14,-24,-9,19,-2,-17,0,4,14,-9,0,-14
-19,-29,-9,24,-4,-19,0,4,14,-9,0,-14
-19,-29,-9,24,-4,-19,0,4,9,-9,0,-19
-19,-34,-14,26,-2,-24,4,4,9,-9,-4,-19
-24,-29,-4,26,-9,-17,4,4,9,-9,-4,-19
-24,-24,0,24,-12,-12,4,9,9,-9,-4,-19
-29,-29,0,29,-14,-14,9,9,9,-9,-4,-24
-29,-34,-4,31,-12,-19,9,9,9,-4,-9,-29
-34,-39,-4,36,-14,-21,9,9,9,4,-9,-29
-34,-39,-4,36,-14,-21,9,9,9,14,-9,-29
-34,-39,-4,36,-14,-21,14,9,9,-9,-24,-34
-34,-39,-4,36,-14,-21,14,9,9,-29,-34,-34
-34,-39,-4,36,-14,-21,14,9,9,-19,-24,-39
-43,-39,4,41,-24,-17,19,9,9,-9,-14,-39
-43,-43,0,43,-21,-21,19,14,14,-9,-19,-34
-43,-43,0,43,-21,-21,19,14,19,-9,-19,-29
-43,-43,0,43,-21,-21,19,14,14,-9,-19,-34
-48,-43,4,46,-26,-19,19,14,14,-9,-19,-39
-48,-43,4,46,-26,-19,19,14,14,-14,-19,-39
-48,-48,0,48,-24,-24,19,14,14,-14,-14,-39
-48,-48,0,48,-24,-24,24,14,14,-14,-14,-34
-48,-48,0,48,-24,-24,24,14,14,-14,-14,-34
-48,-48,0,48,-24,-24,19,14,14,-14,-14,-39
-48,-48,0,48,-24,-24,19,14,14,-14,-14,-39
-48,-48,0,48,-24,-24,19,9,14,-14,-14,-39
-48,-48,0,48,-24,-24,19,9,9,-19,-14,-39
-48,-48,0,48,-24,-24,19,9,9,-19,-14,-39
-48,-43,4,46,-26,-19,19,9,9,-19,-14,-39
-48,-43,4,46,-26,-19,19,4,9,-19,-14,-39
-48,-48,0,48,-24,-24,14,4,9,-19,-14,-34
-43,-39,4,41,-24,-17,14,4,4,-14,-19,-34
-43,-34,9,39,-26,-12,19,9,4,-14,-24,-34
-39,-19,19,29,-29,0,14,9,4,-9,-19,-29
-39,-9,29,24,-34,9,9,9,9,-9,-19,-29
-39,-9,29,24,-34,9,9,9,9,-9,-14,-29
-39,-9,29,24,-34,9,9,9,9,-9,-9,-29
-48,-4,43,26,-46,19,19,4,14,-9,-9,-24
-48,4,53,21,-51,29,29,9,19,-4,-9,-19
-48,14,63,17,-56,39,39,14,29,-4,-9,-14
-39,34,73,2,-56,53,39,14,39,0,-4,-4
-34,48,82,-7,-58,65,39,14,39,4,0,-4
-24,73,97,-24,-61,85,19,0,43,9,14,9
-19,87,107,-34,-63,97,-9,-14,43,14,14,14
-14,97,112,-41,-63,104,-29,-29,34,14,14,19
-9,102,112,-46,-61,107,-48,-39,24,9,14,19
-4,122,126,-58,-65,124,-63,-53,14,4,14,24
0,141,141,-70,-70,141,-68,-58,14,0,14,24
4,146,141,-75,-68,143,-68,-58,19,0,14,29
24,146,122,-85,-48,134,-68,-53,19,4,29,34
24,126,102,-75,-39,114,-68,-53,19,4,34,34
24,92,68,-58,-21,80,-63,-53,4,-4,24,29
0,68,68,-34,-34,68,-53,-53,0,-14,9,14
-34,48,82,-7,-58,65,-29,-43,0,-14,0,-4
-63,48,112,7,-87,80,-9,-34,0,-14,-9,-14
-58,29,87,14,-73,58,-4,-34,0,-19,-19,-24
-53,9,63,21,-58,36,-4,-29,-9,-34,-24,-29
-53,0,53,26,-53,26,-4,-29,-9,-34,-24,-34
-53,-9,43,31,-48,17,0,-24,-9,-34,-24,-34
-48,-24,24,36,-36,0,4,-19,-14,-34,-29,-39
-48,-34,14,41,-31,-9,9,-14,-19,-34,-34,-39
-53,-43,9,48,-31,-17,9,-14,-19,-34,-34,-39
-63,-48,14,56,-39,-17,9,-14,-19,-34,-39,-43
-63,-48,14,56,-39,-17,9,-9,-14,-34,-34,-43
-63,-48,14,56,-39,-17,14,-9,-9,-34,-29,-43
-63,-48,14,56,-39,-17,14,-9,-9,-34,-29,-43
-63,-53,9,58,-36,-21,14,-9,-9,-34,-29,-48
-63,-58,4,61,-34,-26,14,-9,-9,-29,-29,-48
-63,-58,4,61,-34,-26,19,-4,-9,-24,-29,-48
-68,-58,9,63,-39,-24,19,-4,-9,-24,-29,-48
-68,-58,9,63,-39,-24,19,-4,-9,-24,-29,-48
-63,-53,9,58,-36,-21,19,-4,-9,-24,-29,-43
-53,-48,4,51,-29,-21,24,-4,-9,-24,-34,-43
-48,-48,0,48,-24,-24,24,-4,-9,-24,-34,-48
-48,-53,-4,51,-21,-29,24,0,-4,-24,-34,-48
-63,-78,-14,70,-24,-46,39,9,-14,-34,-53,-68
-102,-102,0,102,-51,-51,78,34,-14,-58,-97,-112
-151,-117,34,134,-92,-41,126,68,-4,-78,-146,-170
-195,-122,73,158,-134,-24,180,117,43,-63,-156,-195
-204,-19,185,112,-195,82,190,161,146,43,-87,-136
-156,131,287,12,-222,209,146,165,278,209,68,0
-48,258,307,-104,-178,283,48,112,336,326,229,161
58,356,297,-207,-119,326,-73,-39,258,346,341,297
126,458,331,-292,-102,395,-209,-273,107,287,395,434
224,595,370,-409,-73,483,-414,-541,-68,224,439,566
400,839,439,-619,-19,639,-668,-795,-204,234,585,775
448,863,414,-656,17,639,-849,-1083,-527,-48,444,756
361,473,112,-417,124,292,-976,-1468,-1249,-849,-200,351
239,131,-107,-185,173,12,-1034,-1683,-1732,-1385,-668,48
175,-131,-307,-21,241,-219,-927,-1542,-1708,-1405,-751,-92
87,-244,-331,78,209,-287,-741,-1273,-1493,-1259,-707,-161
9,-258,-268,124,139,-263,-541,-941,-1146,-990,-624,-209
-82,-273,-190,178,53,-231,-341,-619,-814,-727,-531,-244
-126,-204,-78,165,-24,-141,-151,-346,-536,-492,-390,-239
-131,-122,9,126,-70,-56,-68,-185,-346,-331,-263,-190
-112,-97,14,104,-63,-41,0,-78,-195,-195,-175,-136
-97,-82,14,90,-56,-34,19,-43,-117,-122,-151,-112
-82,-87,-4,85,-39,-46,43,-4,-68,-68,-92,-92
-68,-97,-29,82,-19,-63,58,24,-39,-43,-58,-87
-58,-97,-39,78,-9,-68,68,58,-19,-24,-58,-82
-58,-97,-39,78,-9,-68,82,78,9,-4,-58,-78
-58,-97,-39,78,-9,-68,82,78,14,4,-53,-78
-58,-97,-39,78,-9,-68,87,82,24,9,-43,-78
-58,-102,-43,80,-7,-73,92,87,29,14,-34,-78
-63,-107,-43,85,-9,-75,97,97,39,24,-34,-78
-68,-107,-39,87,-14,-73,92,102,48,29,-34,-78
-68,-107,-39,87,-14,-73,97,107,48,34,-29,-78
-68,-107,-39,87,-14,-73,97,112,48,34,-29,-78
-68,-107,-39,87,-14,-73,97,117,58,39,-24,-73
-63,-102,-39,82,-12,-70,102,117,63,39,-29,-73
-63,-102,-39,82,-12,-70,102,112,63,39,-29,-73
-63,-102,-39,82,-12,-70,112,117,68,39,-29,-73
-68,-102,-34,85,-17,-68,117,126,73,43,-29,-73
-68,-102,-34,85,-17,-68,122,131,78,43,-29,-73
-68,-102,-34,85,-17,-68,122,141,82,48,-24,-73
-68,-107,-39,87,-14,-73,122,146,92,58,-19,-73
-68,-112,-43,90,-12,-78,122,151,97,63,-19,-73
-68,-112,-43,90,-12,-78,122,156,97,73,-14,-73
-63,-112,-48,87,-7,-80,126,165,112,78,-4,-73
-63,-102,-39,82,-12,-70,126,161,112,78,-4,-68
-63,-97,-34,80,-14,-65,131,165,122,87,0,-68
-58,-97,-39,78,-9,-68,131,175,136,92,4,-68
-48,-97,-48,73,0,-73,131,180,146,97,4,-68
-48,-92,-43,70,-2,-68,136,195,151,107,14,-63
-48,-92,-43,70,-2,-68,136,204,161,122,19,-53
-43,-87,-43,65,0,-65,141,214,170,131,24,-48
-39,-82,-43,61,2,-63,141,224,180,136,29,-43
-39,-78,-39,58,0,-58,141,229,190,146,34,-43
-34,-78,-43,56,4,-61,146,234,200,151,43,-43
-29,-73,-43,51,7,-58,146,244,214,165,48,-34
-24,-68,-43,46,9,-56,146,253,219,170,58,-24
-14,-58,-43,36,14,-51,146,268,229,180,63,-19
-14,-48,-34,31,9,-41,146,278,239,185,68,-19
-4,-39,-34,21,14,-36,146,283,248,190,78,-9
4,-29,-34,12,19,-31,146,283,253,200,87,0
9,-14,-24,2,17,-19,141,287,253,209,92,9
19,0,-19,-9,19,-9,136,292,263,219,102,19
29,9,-19,-19,24,-4,131,292,268,229,112,29
39,14,-24,-26,31,-4,122,287,268,229,126,34
48,34,-14,-41,31,9,112,283,268,229,126,43
53,43,-9,-48,31,17,102,273,273,234,136,53
63,53,-9,-58,36,21,92,263,263,239,141,63
73,73,0,-73,36,36,78,253,258,239,141,78
82,82,0,-82,41,41,73,234,248,229,146,82
92,87,-4,-90,48,41,53,214,239,219,146,92
102,102,0,-102,51,51,43,200,224,214,146,102
112,112,0,-112,56,56,34,180,209,209,146,107
117,112,-4,-114,61,53,19,156,185,195,146,112
122,112,-9,-117,65,51,9,136,170,185,146,112
122,107,-14,-114,68,46,-4,122,151,175,141,112
117,102,-14,-109,65,43,-14,107,141,165,136,112
117,107,-9,-112,63,48,-19,92,126,151,126,112
112,102,-9,-107,61,46,-19,78,107,136,122,102
102,92,-9,-97,56,41,-19,68,97,126,112,97
92,87,-4,-90,48,41,-19,53,87,112,102,87
87,82,-4,-85,46,39,-24,43,73,107,92,78
78,78,0,-78,39,39,-24,34,63,97,78,78
63,73,9,-68,26,41,-24,29,58,82,68,63
58,58,0,-58,29,29,-24,24,48,78,63,58
48,48,0,-48,24,24,-19,19,43,73,58,48
39,48,9,-43,14,29,-14,14,39,68,48,43
29,43,14,-36,7,29,-14,9,39,58,39,34
24,39,14,-31,4,26,-9,9,34,53,39,34
14,34,19,-24,-2,26,-14,4,24,48,34,19
9,24,14,-17,-2,19,-14,-4,19,39,34,14
14,14,0,-14,7,7,-14,-4,14,39,24,14
9,9,0,-9,4,4,-14,-4,9,39,19,9
4,4,0,-4,2,2,-9,0,9,29,14,4
4,4,0,-4,2,2,-9,4,4,34,14,4
0,0,0,0,0,0,-9,0,9,34,9,-4
0,0,0,0,0,0,-9,0,14,34,9,-4
0,4,4,-2,-2,4,0,0,14,34,9,-9
-4,4,9,0,-7,7,0,4,14,34,4,-9
-4,0,4,2,-4,2,0,4,14,29,4,-14
-9,0,9,4,-9,4,0,4,14,29,0,-14
-14,0,14,7,-14,7,0,4,9,29,0,-19
-19,-4,14,12,-17,4,4,4,9,29,-4,-19
-24,-9,14,17,-19,2,9,4,9,29,-4,-14
-24,-14,9,19,-17,-2,14,9,9,29,-4,-9
-29,-19,9,24,-19,-4,19,9,9,24,-4,-14
-29,-24,4,26,-17,-9,19,9,9,24,-9,-19
-34,-29,4,31,-19,-12,19,9,9,24,-9,-19
-34,-29,4,31,-19,-12,19,9,9,24,-9,-19
-34,-29,4,31,-19,-12,19,9,9,19,-14,-24
-34,-29,4,31,-19,-12,14,9,9,19,-14,-24
-29,-29,0,29,-14,-14,14,9,9,14,-14,-34
-34,-29,4,31,-19,-12,19,9,9,9,-14,-39
-34,-34,0,34,-17,-17,19,14,9,9,-19,-39
-34,-34,0,34,-17,-17,19,14,9,9,-19,-39
-34,-34,0,34,-17,-17,19,14,4,9,-19,-39
-39,-34,4,36,-21,-14,19,14,4,9,-19,-39
-39,-34,4,36,-21,-14,19,14,4,4,-24,-39
-39,-39,0,39,-19,-19,19,14,4,4,-24,-39
-39,-39,0,39,-19,-19,24,9,4,4,-24,-34
-39,-39,0,39,-19,-19,24,4,4,4,-24,-34
-39,-39,0,39,-19,-19,19,4,4,4,-24,-39
-39,-39,0,39,-19,-19,19,4,4,4,-24,-39
-39,-39,0,39,-19,-19,19,0,4,9,-24,-39
-39,-39,0,39,-19,-19,19,0,0,9,-24,-39
-39,-39,0,39,-19,-19,19,0,0,9,-24,-39
-39,-34,4,36,-21,-14,19,0,0,9,-24,-39
-39,-34,4,36,-21,-14,19,-4,0,9,-29,-43
-39,-39,0,39,-19,-19,14,-4,0,9,-34,-43
-39,-34,4,36,-21,-14,14,-4,4,9,-24,-34
-39,-29,9,34,-24,-9,19,-9,9,9,-19,-29
-39,-19,19,29,-29,0,19,-4,9,9,-19,-29
-39,-9,29,24,-34,9,19,0,9,9,-19,-29
-39,4,43,17,-41,24,19,0,9,9,-14,-29
-34,9,43,12,-39,26,24,0,9,9,-9,-29
-34,19,53,7,-43,36,29,0,14,9,-9,-29
-29,29,58,0,-43,43,39,14,19,14,-9,-24
-29,39,68,-4,-48,53,39,14,29,19,-4,-14
-24,48,73,-12,-48,61,39,14,29,24,0,-14
-14,73,87,-29,-51,80,19,0,34,29,9,0
-4,87,92,-41,-48,90,-9,-14,34,34,4,4
0,97,97,-48,-48,97,-29,-29,24,34,4,9
0,97,97,-48,-48,97,-48,-39,14,29,4,9
4,112,107,-58,-51,109,-63,-58,0,24,4,14
9,131,122,-70,-56,126,-68,-68,-4,19,4,14
14,141,126,-78,-56,134,-68,-68,0,19,4,19
34,146,112,-90,-39,129,-68,-63,0,24,14,24
39,126,87,-82,-24,107,-73,-63,4,24,19,29
43,92,48,-68,-2,70,-73,-63,-4,14,14,29
19,68,48,-43,-14,58,-63,-63,-9,4,0,14
-14,48,63,-17,-39,56,-39,-53,-9,4,-4,0
-43,48,92,-2,-68,70,-14,-43,-9,4,-9,-4
-43,29,73,7,-58,51,-4,-43,-9,0,-19,-14
-43,9,53,17,-48,31,-4,-39,-19,-14,-24,-19
-43,0,43,21,-43,21,-4,-39,-19,-14,-24,-24
-43,-9,34,26,-39,12,0,-34,-19,-14,-24,-24
-39,-24,14,31,-26,-4,4,-29,-19,-14,-24,-29
-39,-34,4,36,-21,-14,9,-24,-24,-19,-24,-34
-39,-39,0,39,-19,-19,9,-24,-29,-24,-24,-39
-43,-39,4,41,-24,-17,9,-24,-29,-24,-29,-43
-43,-39,4,41,-24,-17,9,-19,-29,-24,-29,-43
-48,-39,9,43,-29,-14,14,-19,-29,-24,-29,-43
-53,-39,14,46,-34,-12,14,-19,-29,-24,-29,-43
-53,-43,9,48,-31,-17,14,-19,-29,-19,-29,-48
-53,-48,4,51,-29,-21,14,-19,-29,-14,-29,-48
-53,-48,4,51,-29,-21,19,-14,-24,-14,-29,-48
-58,-48,9,53,-34,-19,19,-14,-19,-14,-29,-48
-58,-48,9,53,-34,-19,24,-9,-19,-14,-29,-43
-58,-48,9,53,-34,-19,29,-4,-19,-14,-29,-34
-53,-48,4,51,-29,-21,34,-4,-19,-14,-34,-34
-53,-48,4,51,-29,-21,34,-4,-19,-14,-34,-39
-48,-53,-4,51,-21,-29,24,-9,-19,-14,-34,-29
-53,-73,-19,63,-17,-46,29,-4,-24,-19,-48,-39
-92,-92,0,92,-46,-46,58,14,-19,-43,-87,-92
-141,-102,39,122,-90,-31,97,39,-14,-58,-126,-151
-200,-126,73,163,-136,-26,175,102,14,-68,-156,-190
-214,-48,165,131,-190,58,200,146,92,-4,-117,-156
-161,102,263,29,-212,183,156,161,253,180,39,-29
-53,229,283,-87,-168,256,63,117,336,326,200,131
58,326,268,-192,-104,297,-53,-19,273,366,336,292
136,429,292,-283,-78,361,-200,-248,126,307,409,429
248,585,336,-417,-43,461,-424,-531,-34,283,497,580
405,805,400,-605,2,602,-658,-795,-190,268,610,771
468,883,414,-675,26,649,-854,-1117,-536,-43,468,780
419,590,170,-505,124,380,-1000,-1478,-1176,-732,-63,458
297,204,-92,-251,195,56,-1088,-1761,-1756,-1366,-629,87
234,-87,-322,-73,278,-204,-1015,-1683,-1844,-1503,-805,-102
146,-234,-380,43,263,-307,-810,-1361,-1590,-1337,-736,-161
68,-283,-351,107,209,-317,-600,-1019,-1239,-1088,-653,-209
-43,-307,-263,175,109,-285,-380,-678,-888,-814,-570,-268
-102,-263,-161,183,29,-212,-175,-390,-595,-561,-439,-278
-112,-156,-43,134,-34,-100,-87,-209,-375,-361,-283,-200
-102,-107,-4,104,-48,-56,-14,-82,-204,-209,-175,-136
-87,-92,-4,90,-41,-48,4,-53,-131,-141,-151,-112
-78,-92,-14,85,-31,-53,34,-14,-78,-78,-102,-92
-73,-97,-24,85,-24,-61,58,19,-39,-48,-68,-82
-68,-97,-29,82,-19,-63,73,53,-14,-29,-58,-73
-68,-97,-29,82,-19,-63,82,68,9,-14,-58,-68
-68,-97,-29,82,-19,-63,82,68,14,-4,-53,-68
-68,-97,-29,82,-19,-63,82,73,24,-4,-43,-68
-68,-97,-29,82,-19,-63,82,78,29,-4,-34,-68
-68,-97,-29,82,-19,-63,87,87,39,4,-34,-68
-63,-97,-34,80,-14,-65,87,92,48,9,-34,-68
-58,-97,-39,78,-9,-68,97,102,53,19,-24,-68
-58,-97,-39,78,-9,-68,97,112,58,24,-19,-68
-63,-97,-34,80,-14,-65,97,117,68,29,-14,-63
-63,-97,-34,80,-14,-65,102,122,73,34,-14,-63
-63,-102,-39,82,-12,-70,102,122,73,39,-14,-63
-63,-102,-39,82,-12,-70,107,126,78,39,-19,-63
-68,-102,-34,85,-17,-68,107,136,82,43,-19,-63
-68,-102,-34,85,-17,-68,112,136,87,43,-19,-63
-68,-102,-34,85,-17,-68,117,141,92,48,-14,-63
-68,-102,-34,85,-17,-68,122,146,102,53,-9,-63
-68,-102,-34,85,-17,-68,122,151,107,53,-9,-63
-68,-102,-34,85,-17,-68,122,156,107,63,-9,-63
-63,-102,-39,82,-12,-70,126,165,122,68,-4,-63
-63,-97,-34,80,-14,-65,126,165,122,68,-4,-58
-63,-97,-34,80,-14,-65,131,175,131,78,0,-58
-63,-97,-34,80,-14,-65,131,185,141,82,4,-58
-58,-97,-39,78,-9,-68,131,190,146,87,4,-58
-58,-92,-34,75,-12,-63,136,200,151,92,14,-58
-58,-97,-39,78,-9,-68,136,204,165,102,19,-53
-53,-97,-43,75,-4,-70,141,214,180,112,24,-48
-48,-92,-43,70,-2,-68,141,224,190,117,29,-43
-48,-87,-39,68,-4,-63,141,234,200,126,34,-43
-43,-82,-39,63,-2,-61,146,244,209,136,43,-43
-39,-73,-34,56,-2,-53,146,253,224,156,48,-34
-39,-68,-29,53,-4,-48,146,263,229,161,58,-24
-34,-58,-24,46,-4,-41,146,273,239,170,63,-19
-34,-48,-14,41,-9,-31,146,278,248,175,68,-19
-24,-39,-14,31,-4,-26,146,283,258,180,78,-9
-14,-29,-14,21,0,-21,146,287,263,190,87,0
-9,-14,-4,12,-2,-9,141,297,263,195,92,9
0,0,0,0,0,0,141,302,273,200,102,19
9,9,0,-9,4,4,141,302,278,209,107,29
19,14,-4,-17,12,4,131,297,283,209,122,34
29,34,4,-31,12,19,122,292,283,209,126,43
34,43,9,-39,12,26,112,283,283,214,136,53
48,53,4,-51,21,29,102,273,273,219,141,63
63,73,9,-68,26,41,82,258,263,219,136,78
73,82,9,-78,31,46,73,234,248,209,136,82
82,87,4,-85,39,46,53,214,239,200,136,92
92,102,9,-97,41,56,39,200,224,195,136,102
102,112,9,-107,46,61,24,180,209,190,136,107
107,112,4,-109,51,58,9,156,190,175,136,112
117,117,0,-117,58,58,0,136,175,161,136,112
122,117,-4,-119,63,56,-9,122,151,146,131,112
117,112,-4,-114,61,53,-19,107,141,136,126,112
117,112,-4,-114,61,53,-29,92,131,126,117,112
112,102,-9,-107,61,46,-29,78,117,117,112,102
102,92,-9,-97,56,41,-29,68,107,112,102,97
92,82,-9,-87,51,36,-29,53,97,102,92,87
87,73,-14,-80,51,29,-34,43,82,97,87,78
82,68,-14,-75,48,26,-34,34,73,87,78,82
73,63,-9,-68,41,26,-34,29,68,73,68,73
68,48,-19,-58,43,14,-34,24,58,68,63,68
58,39,-19,-48,39,9,-29,19,53,63,58,58
48,39,-9,-43,29,14,-24,14,43,58,48,53
39,34,-4,-36,21,14,-24,9,39,48,39,43
34,29,-4,-31,19,12,-19,9,34,43,43,39
24,24,0,-24,12,12,-19,9,29,43,43,24
19,14,-4,-17,12,4,-14,4,29,39,43,24
19,9,-9,-14,14,0,-14,4,24,39,34,24
9,9,0,-9,4,4,-14,4,19,39,24,19
4,4,0,-4,2,2,-9,4,19,24,14,14
4,0,-4,-2,4,-2,-9,4,14,24,14,14
0,-9,-9,4,4,-9,-9,0,14,24,9,4
0,-9,-9,4,4,-9,-9,0,14,24,9,4
0,-9,-9,4,4,-9,0,0,14,24,9,0
-4,-14,-9,9,2,-12,0,4,14,24,4,0
-4,-19,-14,12,4,-17,0,4,14,19,4,-4
-9,-19,-9,14,0,-14,0,4,14,14,0,-4
-9,-19,-9,14,0,-14,0,4,9,9,0,-9
-9,-24,-14,17,2,-19,4,4,9,9,-4,-9
-14,-24,-9,19,-2,-17,4,4,9,9,-4,-9
-14,-24,-9,19,-2,-17,4,9,9,9,-4,-9
-19,-29,-9,24,-4,-19,9,9,9,4,-4,-14
-19,-34,-14,26,-2,-24,9,9,9,4,-9,-19
-24,-39,-14,31,-4,-26,9,9,9,4,-9,-19
-24,-39,-14,31,-4,-26,9,9,9,4,-9,-19
-24,-39,-14,31,-4,-26,14,9,9,0,-14,-24
-24,-39,-14,31,-4,-26,14,9,9,0,-14,-24
-24,-39,-14,31,-4,-26,14,9,9,0,-14,-29
-34,-39,-4,36,-14,-21,19,9,9,0,-14,-29
-34,-43,-9,39,-12,-26,19,14,9,0,-19,-29
-34,-43,-9,39,-12,-26,19,14,9,0,-19,-29
-34,-43,-9,39,-12,-26,19,14,4,0,-19,-34
-39,-43,-4,41,-17,-24,19,14,4,0,-19,-39
-39,-43,-4,41,-17,-24,19,14,4,-4,-24,-39
-39,-48,-9,43,-14,-29,19,14,4,-4,-24,-39
-39,-48,-9,43,-14,-29,24,14,4,-4,-24,-34
-39,-48,-9,43,-14,-29,24,14,4,-4,-24,-34
-39,-48,-9,43,-14,-29,19,14,4,-4,-24,-39
-39,-48,-9,43,-14,-29,19,14,4,-4,-24,-39
-39,-48,-9,43,-14,-29,19,9,4,-4,-24,-39
-39,-48,-9,43,-14,-29,19,9,0,-9,-29,-39
-39,-48,-9,43,-14,-29,19,9,0,-9,-34,-39
-39,-34,4,36,-21,-14,19,9,0,-9,-34,-39
-39,-24,14,31,-26,-4,19,4,0,-9,-34,-39
-39,-39,0,39,-19,-19,14,4,0,-9,-34,-39
-39,-43,-4,41,-17,-24,14,4,-4,-14,-34,-34
-39,-34,4,36,-21,-14,14,0,0,-9,-29,-29
-43,-24,19,34,-31,-2,19,0,4,-4,-24,-24
-39,-19,19,29,-29,0,19,0,4,0,-19,-19
-39,-19,19,29,-29,0,19,0,9,0,-19,-19
-34,-9,24,21,-29,7,19,0,9,4,-14,-19
-29,0,29,14,-29,14,19,0,9,9,-9,-19
-29,4,34,12,-31,19,24,0,9,9,-9,-19
-29,9,39,9,-34,24,34,4,14,9,-9,-14
-29,19,48,4,-39,34,43,14,19,14,-9,-14
-29,34,63,-2,-46,48,48,14,29,19,-4,-4
-24,48,73,-12,-48,61,48,19,29,24,0,-4
-14,73,87,-29,-51,80,29,9,34,29,14,9
-4,87,92,-41,-48,90,-4,-4,34,34,14,14
4,97,92,-51,-43,95,-29,-19,24,34,14,19
9,97,87,-53,-39,92,-48,-34,14,24,14,19
14,112,97,-63,-41,104,-63,-53,4,14,14,24
19,131,112,-75,-46,122,-68,-58,4,9,14,24
24,136,112,-80,-43,124,-68,-58,9,9,14,29
48,141,92,-95,-21,117,-68,-53,9,14,24,34
53,126,73,-90,-9,100,-68,-53,9,14,24,34
53,102,48,-78,2,75,-63,-53,-4,4,14,29
29,87,58,-58,-14,73,-53,-53,-9,-4,0,14
-9,58,68,-24,-39,63,-29,-43,-9,-4,-4,0
-43,48,92,-2,-68,70,-9,-34,-9,-4,-9,-4
-43,29,73,7,-58,51,-4,-34,-9,-9,-19,-14
-43,9,53,17,-48,31,-4,-29,-19,-24,-24,-19
-43,0,43,21,-43,21,-4,-29,-19,-24,-24,-24
-43,-9,34,26,-39,12,0,-24,-19,-24,-24,-24
-39,-24,14,31,-26,-4,4,-19,-19,-24,-24,-29
-39,-34,4,36,-21,-14,9,-14,-19,-24,-24,-29
-39,-39,0,39,-19,-19,9,-14,-19,-24,-29,-29
-43,-39,4,41,-24,-17,9,-14,-19,-24,-39,-34
-43,-39,4,41,-24,-17,14,-9,-19,-24,-39,-34
-43,-39,4,41,-24,-17,24,-9,-19,-24,-39,-34
-43,-39,4,41,-24,-17,24,-9,-19,-24,-39,-34
-43,-43,0,43,-21,-21,24,-9,-19,-24,-39,-39
-43,-48,-4,46,-19,-26,24,-9,-19,-24,-39,-39
-43,-48,-4,46,-19,-26,29,-4,-19,-24,-39,-39
-48,-48,0,48,-24,-24,24,-4,-19,-24,-34,-39
-48,-48,0,48,-24,-24,19,-4,-19,-24,-29,-39
-48,-48,0,48,-24,-24,19,-4,-19,-24,-29,-34
-43,-48,-4,46,-19,-26,24,-4,-19,-24,-34,-34
-43,-43,0,43,-21,-21,24,-4,-19,-24,-34,-39
-48,-43,4,46,-26,-19,24,0,-14,-24,-34,-39
-58,-63,-4,61,-26,-34,39,9,-19,-29,-48,-58
-92,-82,9,87,-51,-36,78,34,-14,-48,-87,-102
-141,-102,39,122,-90,-31,126,68,-14,-63,-131,-151
-185,-112,73,148,-129,-19,180,117,24,-43,-136,-165
-185,-9,175,97,-180,82,180,151,131,53,-68,-107
-126,141,268,-7,-197,204,126,146,268,209,87,29
-14,268,283,-126,-148,275,24,78,322,341,258,200
97,366,268,-231,-85,317,-102,-87,239,375,380,346
175,468,292,-322,-58,380,-258,-346,68,297,434,468
283,605,322,-444,-19,463,-483,-639,-126,214,478,585
434,844,409,-639,12,627,-732,-932,-317,165,566,771
458,863,405,-661,26,634,-907,-1259,-692,-175,366,727
380,458,78,-419,151,268,-1029,-1620,-1410,-980,-287,297
268,102,-165,-185,217,-31,-1083,-1810,-1888,-1522,-766,-29
204,-165,-370,-19,287,-268,-956,-1625,-1810,-1503,-824,-161
117,-283,-400,82,258,-341,-751,-1312,-1542,-1317,-756,-219
39,-297,-336,129,187,-317,-536,-956,-1176,-1039,-663,-258
-53,-312,-258,183,102,-285,-322,-610,-824,-766,-561,-283
-102,-234,-131,168,14,-183,-136,-341,-536,-507,-400,-258
-112,-141,-29,126,-41,-85,-58,-185,-336,-322,-253,-190
-97,-112,-14,104,-41,-63,9,-73,-185,-195,-161,-131
-87,-92,-4,90,-41,-48,29,-34,-107,-131,-131,-102
-78,-87,-9,82,-34,-48,53,4,-53,-78,-82,-82
-68,-87,-19,78,-24,-53,68,34,-19,-53,-58,-78
-58,-87,-29,73,-14,-58,73,63,-4,-39,-58,-73
-58,-87,-29,73,-14,-58,82,78,19,-24,-58,-68
-58,-87,-29,73,-14,-58,82,78,24,-14,-53,-68
-58,-87,-29,73,-14,-58,87,82,34,-9,-43,-68
-58,-87,-29,73,-14,-58,92,87,39,-4,-34,-68
-63,-87,-24,75,-19,-56,97,97,48,4,-34,-68
-63,-87,-24,75,-19,-56,97,102,58,14,-34,-68
-58,-87,-29,73,-14,-58,107,107,58,24,-29,-68
-58,-87,-29,73,-14,-58,107,112,58,24,-29,-68
-58,-87,-29,73,-14,-58,107,117,68,29,-24,-63
-53,-87,-34,70,-9,-61,107,122,73,34,-24,-63
-53,-92,-39,73,-7,-65,102,122,73,39,-19,-63
-53,-87,-34,70,-9,-61,107,126,78,39,-19,-63
-58,-82,-24,70,-17,-53,107,136,82,43,-19,-63
-58,-82,-24,70,-17,-53,117,141,87,43,-19,-63
-58,-82,-24,70,-17,-53,122,151,92,48,-14,-63
-58,-87,-29,73,-14,-58,122,156,102,53,-9,-63
-58,-92,-34,75,-12,-63,122,161,107,53,-9,-63
-58,-92,-34,75,-12,-63,122,165,107,63,-9,-63
-53,-92,-39,73,-7,-65,126,175,122,68,-4,-63
-53,-87,-34,70,-9,-61,126,170,122,68,-4,-58
-53,-87,-34,70,-9,-61,131,175,131,78,0,-58
-53,-87,-34,70,-9,-61,131,185,141,82,4,-58
-48,-87,-39,68,-4,-63,131,190,146,87,4,-58
-48,-82,-34,65,-7,-58,136,200,151,92,14,-58
-48,-82,-34,65,-7,-58,136,204,161,102,19,-53
-43,-78,-34,61,-4,-56,141,214,175,112,24,-48
-39,-73,-34,56,-2,-53,141,224,190,117,29,-43
-39,-63,-24,51,-7,-43,141,234,200,126,29,-43
-34,-58,-24,46,-4,-41,146,244,209,131,34,-43
-34,-53,-19,43,-7,-36,146,253,224,151,39,-34
-34,-48,-14,41,-9,-31,146,263,229,161,48,-24
-24,-39,-14,31,-4,-26,146,278,239,170,58,-19
-24,-29,-4,26,-9,-17,146,287,248,175,68,-19
-14,-19,-4,17,-4,-12,146,292,258,180,78,-9
-4,-9,-4,7,0,-7,146,292,263,190,87,0
0,4,4,-2,-2,4,141,297,263,195,92,9
9,19,9,-14,0,14,136,302,273,200,102,19
24,34,9,-29,7,21,131,297,278,209,107,29
39,43,4,-41,17,24,122,287,278,209,117,34
48,63,14,-56,17,39,112,283,273,204,117,43
53,73,19,-63,17,46,102,273,273,204,126,53
63,82,19,-73,21,51,92,263,263,209,131,63
73,102,29,-87,21,65,78,253,258,209,131,78
82,112,29,-97,26,70,73,234,244,200,136,82
92,117,24,-104,34,70,53,214,229,190,136,92
107,131,24,-119,41,78,34,200,214,185,131,102
122,141,19,-131,51,80,14,180,200,180,126,107
126,141,14,-134,56,78,0,156,180,165,126,112
131,141,9,-136,61,75,-9,136,170,156,126,112
131,136,4,-134,63,70,-19,122,146,146,122,112
126,131,4,-129,61,68,-24,107,131,136,117,112
126,131,4,-129,61,68,-34,92,122,126,107,112
122,122,0,-122,61,61,-39,78,107,117,102,102
112,107,-4,-109,58,51,-39,68,97,112,97,97
102,97,-4,-100,53,46,-39,53,87,102,92,87
97,92,-4,-95,51,43,-39,43,73,97,87,78
87,87,0,-87,43,43,-34,34,63,87,78,78
78,82,4,-80,36,43,-34,29,58,73,68,68
78,68,-9,-73,43,29,-34,24,48,68,63,68
68,58,-9,-63,39,24,-29,19,43,63,58,58
58,58,0,-58,29,29,-24,14,39,58,48,53
48,48,0,-48,24,24,-24,9,39,48,39,39
43,39,-4,-41,24,17,-19,9,34,43,39,34
34,34,0,-34,17,17,-19,9,29,43,34,24
29,24,-4,-26,17,9,-14,4,29,39,34,24
29,19,-9,-24,19,4,-14,4,24,39,24,24
19,19,0,-19,9,9,-14,4,19,39,19,19
9,14,4,-12,2,9,-9,4,19,24,14,14
4,14,9,-9,-2,12,-9,4,14,24,14,14
0,9,9,-4,-4,9,-9,0,14,24,9,4
0,9,9,-4,-4,9,-9,0,14,24,9,4
0,9,9,-4,-4,9,0,0,14,24,9,0
-4,4,9,0,-7,7,0,4,14,24,4,0
-4,-4,0,4,-2,-2,0,4,14,19,4,-4
-9,-9,0,9,-4,-4,0,4,14,19,0,-4
-9,-9,0,9,-4,-4,0,4,9,19,0,-9
-9,-14,-4,12,-2,-9,4,4,9,19,-4,-9
-14,-14,0,14,-7,-7,4,4,9,19,-4,-9
-14,-14,0,14,-7,-7,4,9,9,19,-4,-9
-19,-14,4,17,-12,-4,9,9,9,14,-4,-14
-19,-14,4,17,-12,-4,9,9,9,14,-9,-19
-24,-19,4,21,-14,-7,9,9,9,14,-9,-19
-24,-19,4,21,-14,-7,9,9,9,14,-9,-19
-24,-19,4,21,-14,-7,14,9,9,9,-14,-24
-24,-19,4,21,-14,-7,14,9,9,9,-14,-24
-24,-24,0,24,-12,-12,14,9,9,9,-14,-29
-34,-29,4,31,-19,-12,19,9,9,9,-14,-29
-34,-34,0,34,-17,-17,19,14,9,9,-19,-29
-34,-34,0,34,-17,-17,19,14,9,9,-19,-29
-34,-29,4,31,-19,-12,19,14,4,4,-19,-34
-39,-24,14,31,-26,-4,19,14,4,0,-19,-39
-39,-24,14,31,-26,-4,19,14,4,-4,-24,-39
-39,-29,9,34,-24,-9,19,14,4,-4,-24,-39
-39,-34,4,36,-21,-14,24,14,4,-4,-24,-34
-39,-39,0,39,-19,-19,24,14,4,-4,-24,-34
-39,-39,0,39,-19,-19,19,14,4,-4,-24,-39
-39,-39,0,39,-19,-19,19,14,4,-4,-24,-39
-39,-39,0,39,-19,-19,19,9,4,-4,-24,-39
-39,-39,0,39,-19,-19,19,9,0,-9,-24,-39
-39,-39,0,39,-19,-19,19,9,0,-9,-24,-39
-39,-34,4,36,-21,-14,19,9,0,-9,-24,-39
-39,-34,4,36,-21,-14,19,4,0,-9,-24,-39
-39,-39,0,39,-19,-19,14,4,0,-9,-24,-39
-39,-39,0,39,-19,-19,14,4,-4,-14,-24,-34
-39,-34,4,36,-21,-14,14,4,-4,-14,-24,-34
-39,-39,0,39,-19,-19,14,4,-4,-14,-24,-34
-34,-34,0,34,-17,-17,14,4,-4,-9,-19,-29
-29,-29,0,29,-14,-14,14,0,-4,-4,-19,-24
-29,-24,4,26,-17,-9,19,0,-4,-4,-24,-24
-29,-14,14,21,-21,0,19,4,0,0,-19,-19
-29,-9,19,19,-24,4,19,9,0,0,-19,-19
-29,4,34,12,-31,19,19,9,4,4,-14,-14
-29,19,48,4,-39,34,19,9,9,9,-9,-9
-29,19,48,4,-39,34,24,4,9,9,-9,-9
-29,24,53,2,-41,39,29,9,14,9,-9,-4
-29,29,58,0,-43,43,39,14,19,14,-9,-4
-29,43,73,-7,-51,58,39,14,29,19,-4,4
-24,53,78,-14,-51,65,39,14,29,24,0,4
-14,73,87,-29,-51,80,19,0,34,29,14,19
-4,87,92,-41,-48,90,-9,-14,34,29,14,24
4,97,92,-51,-43,95,-29,-29,24,24,14,29
14,102,87,-58,-36,95,-48,-39,14,19,19,29
24,122,97,-73,-36,109,-63,-53,4,14,24,34
29,141,112,-85,-41,126,-68,-53,4,9,24,34
34,146,112,-90,-39,129,-68,-48,9,9,24,39
53,146,92,-100,-19,119,-68,-43,9,14,34,43
53,126,73,-90,-9,100,-68,-43,9,14,34,43
48,92,43,-70,2,68,-63,-43,-4,9,24,39
19,68,48,-43,-14,58,-53,-43,-9,4,9,24
-14,48,63,-17,-39,56,-29,-39,-9,4,4,9
-43,48,92,-2,-68,70,-9,-34,-9,4,0,4
-43,29,73,7,-58,51,0,-34,-9,0,-9,-9
-43,9,53,17,-48,31,4,-29,-19,-14,-14,-19
-43,0,43,21,-43,21,4,-29,-19,-14,-14,-24
-43,-9,34,26,-39,12,9,-24,-19,-14,-14,-24
-39,-24,14,31,-26,-4,14,-19,-19,-14,-14,-29
-39,-34,4,36,-21,-14,19,-14,-19,-14,-14,-29
-39,-39,0,39,-19,-19,19,-14,-19,-14,-14,-29
-43,-39,4,41,-24,-17,19,-14,-19,-14,-19,-34
-43,-39,4,41,-24,-17,19,-9,-19,-14,-19,-34
-43,-39,4,41,-24,-17,24,-9,-19,-14,-19,-34
-43,-34,9,39,-26,-12,24,-9,-19,-19,-19,-34
-43,-34,9,39,-26,-12,24,-9,-19,-24,-19,-39
-43,-39,4,41,-24,-17,24,-9,-19,-24,-24,-39
-43,-39,4,41,-24,-17,29,-4,-19,-24,-29,-39
-48,-43,4,46,-26,-19,29,-4,-19,-24,-29,-34
-48,-48,0,48,-24,-24,29,-4,-19,-24,-29,-29
-48,-48,0,48,-24,-24,24,-4,-19,-19,-24,-24
-43,-48,-4,46,-19,-26,24,-4,-19,-14,-24,-24
-43,-48,-4,46,-19,-26,24,-4,-19,-14,-24,-29
-48,-53,-4,51,-21,-29,24,0,-14,-14,-24,-29
-58,-68,-9,63,-24,-39,39,9,-14,-19,-39,-48
-92,-82,9,87,-51,-36,78,34,-4,-39,-78,-92
-141,-92,48,117,-95,-21,126,68,0,-53,-122,-146
-185,-92,92,139,-139,0,180,117,43,-34,-126,-165
-185,4,190,90,-187,97,180,146,141,63,-58,-107
-126,151,278,-12,-202,214,126,136,268,219,97,29
-14,273,287,-129,-151,280,24,68,317,341,263,200
97,366,268,-231,-85,317,-102,-97,229,366,380,346
175,468,292,-322,-58,380,-263,-366,58,287,429,468
283,605,322,-444,-19,463,-492,-668,-136,204,468,585
434,814,380,-624,26,597,-736,-961,-351,122,527,741
458,805,346,-631,56,575,-907,-1288,-751,-253,297,668
375,414,39,-395,168,226,-1019,-1644,-1439,-1034,-336,248
258,73,-185,-165,222,-56,-1063,-1830,-1888,-1551,-795,-68
195,-200,-395,2,295,-297,-932,-1615,-1800,-1512,-844,-190
107,-322,-429,107,268,-375,-722,-1273,-1522,-1307,-766,-239
24,-322,-346,148,185,-334,-517,-927,-1156,-1024,-663,-273
-73,-322,-248,197,87,-285,-312,-590,-805,-746,-551,-292
-112,-239,-126,175,7,-183,-126,-322,-522,-497,-395,-258
-112,-141,-29,126,-41,-85,-48,-165,-326,-322,-253,-180
-92,-117,-24,104,-34,-70,14,-63,-185,-195,-161,-126
-78,-102,-24,90,-26,-63,29,-34,-117,-131,-131,-102
-73,-102,-29,87,-21,-65,53,4,-63,-78,-82,-82
-68,-107,-39,87,-14,-73,68,34,-29,-53,-58,-78
-58,-107,-48,82,-4,-78,73,63,-14,-34,-58,-73
-58,-107,-48,82,-4,-78,82,78,9,-14,-58,-68
-58,-102,-43,80,-7,-73,82,78,14,-4,-53,-68
-58,-97,-39,78,-9,-68,87,82,24,0,-43,-68
-58,-97,-39,78,-9,-68,92,87,29,4,-34,-68
-63,-97,-34,80,-14,-65,97,97,39,14,-34,-68
-63,-97,-34,80,-14,-65,97,102,48,14,-34,-68
-58,-97,-39,78,-9,-68,107,107,48,14,-29,-68
-63,-97,-34,80,-14,-65,107,112,48,14,-29,-68
-68,-97,-29,82,-19,-63,107,117,58,19,-24,-63
-63,-97,-34,80,-14,-65,112,126,63,24,-24,-63
-63,-102,-39,82,-12,-70,112,131,63,29,-19,-63
-58,-102,-43,80,-7,-73,117,136,68,29,-19,-63
-58,-102,-43,80,-7,-73,117,146,73,34,-19,-63
-53,-102,-48,78,-2,-75,122,146,78,34,-19,-63
-48,-102,-53,75,2,-78,122,151,82,39,-14,-63
-48,-97,-48,73,0,-73,122,156,92,43,-9,-63
-48,-92,-43,70,-2,-68,122,161,97,43,-9,-63
-53,-92,-39,73,-7,-65,122,165,97,53,-9,-63
-53,-92,-39,73,-7,-65,126,175,112,58,-4,-63
-53,-87,-34,70,-9,-61,126,175,112,58,-4,-58
-53,-87,-34,70,-9,-61,131,185,122,68,0,-58
-53,-87,-34,70,-9,-61,131,195,131,73,4,-58
-48,-87,-39,68,-4,-63,131,200,136,78,4,-58
-48,-82,-34,65,-7,-58,136,209,141,82,9,-58
-48,-82,-34,65,-7,-58,136,214,151,92,9,-53
-43,-78,-34,61,-4,-56,141,224,161,102,14,-48
-39,-73,-34,56,-2,-53,141,234,170,107,19,-43
-39,-68,-29,53,-4,-48,141,244,180,117,24,-43
-34,-68,-34,51,0,-51,146,253,190,122,34,-43
-34,-63,-29,48,-2,-46,146,263,204,136,39,-34
-34,-58,-24,46,-4,-41,146,273,209,141,48,-24
-24,-48,-24,36,0,-36,146,283,219,146,53,-24
-24,-39,-14,31,-4,-26,146,287,229,146,58,-29
-9,-29,-19,19,4,-24,146,292,239,151,68,-19
4,-19,-24,7,14,-21,146,292,244,161,78,-9
9,-9,-19,0,14,-14,141,297,244,165,82,0
19,0,-19,-9,19,-9,136,302,253,170,92,9
29,9,-19,-19,24,-4,131,302,258,180,92,19
39,14,-24,-26,31,-4,122,297,258,180,97,24
48,34,-14,-41,31,9,117,297,253,180,97,34
53,43,-9,-48,31,17,112,292,253,185,107,43
68,53,-14,-61,41,19,102,283,244,190,112,53
82,73,-9,-78,46,31,87,273,239,190,112,68
92,82,-9,-87,51,36,82,253,224,175,117,68
102,87,-14,-95,58,36,63,234,209,161,117,73
112,102,-9,-107,61,46,43,219,195,156,117,82
122,112,-9,-117,65,51,24,200,180,151,117,87
126,112,-14,-119,70,48,9,175,161,136,117,92
131,112,-19,-122,75,46,0,156,151,126,117,92
131,112,-19,-122,75,46,-9,136,131,117,112,92
126,112,-14,-119,70,48,-14,117,122,107,107,92
131,112,-19,-122,75,46,-19,102,112,102,102,97
131,102,-29,-117,80,36,-19,87,97,97,102,92
122,92,-29,-107,75,31,-19,78,87,92,97,92
112,87,-24,-100,68,31,-19,63,78,82,92,87
107,82,-24,-95,65,29,-24,53,68,82,87,78
97,78,-19,-87,58,29,-24,43,63,78,78,78
82,73,-9,-78,46,31,-24,39,58,63,68,58
78,58,-19,-68,48,19,-24,34,48,58,63,48
68,43,-24,-56,46,9,-19,29,43,53,53,39
58,39,-19,-48,39,9,-14,24,39,48,39,34
48,34,-14,-41,31,9,-14,19,39,39,29,24
43,29,-14,-36,29,7,-9,19,34,34,29,24
34,24,-9,-29,21,7,-9,19,29,29,24,14
29,14,-14,-21,21,0,-4,14,29,19,24,14
29,9,-19,-19,24,-4,-4,14,24,19,14,14
19,9,-9,-14,14,0,-4,14,19,19,9,9
9,4,-4,-7,7,0,-4,14,19,4,4,4
4,4,0,-4,2,2,-9,14,14,4,4,4
0,0,0,0,0,0,-9,9,14,4,4,0
0,0,0,0,0,0,-9,9,14,4,9,4
0,0,0,0,0,0,0,9,14,4,9,0
-4,-4,0,4,-2,-2,0,14,14,4,4,0
-4,-9,-4,7,0,-7,0,14,14,4,4,-4
-9,-9,0,9,-4,-4,0,14,14,9,0,-4
-9,-9,0,9,-4,-4,0,14,9,9,0,-9
-9,-14,-4,12,-2,-9,4,14,9,9,-4,-9
-14,-14,0,14,-7,-7,4,14,9,4,-4,-14
-14,-14,0,14,-7,-7,4,19,9,0,-4,-19
-19,-19,0,19,-9,-9,9,19,4,-4,-4,-24
-19,-24,-4,21,-7,-14,9,19,0,-4,-9,-29
-24,-29,-4,26,-9,-17,9,19,0,-4,-9,-29
-24,-29,-4,26,-9,-17,9,19,0,-4,-9,-29
-24,-29,-4,26,-9,-17,14,19,0,-9,-14,-29
-24,-29,-4,26,-9,-17,14,19,0,-9,-14,-24
-24,-29,-4,26,-9,-17,14,19,0,-9,-14,-29
-34,-29,4,31,-19,-12,19,19,0,-9,-14,-29
-34,-34,0,34,-17,-17,19,19,0,-9,-24,-29
-34,-34,0,34,-17,-17,19,14,0,-9,-29,-29
-34,-34,0,34,-17,-17,19,14,-4,-9,-29,-34
-39,-34,4,36,-21,-14,19,14,-4,-9,-29,-39
-39,-34,4,36,-21,-14,19,14,-4,-14,-34,-43
-39,-39,0,39,-19,-19,19,14,-4,-14,-34,-48
-43,-39,4,41,-24,-17,24,14,-4,-14,-34,-43
-48,-39,9,43,-29,-14,24,14,-4,-14,-34,-43
-48,-39,9,43,-29,-14,19,14,-4,-14,-34,-43
-48,-39,9,43,-29,-14,19,14,-4,-14,-34,-39
-48,-39,9,43,-29,-14,19,9,-4,-14,-34,-39
-48,-39,9,43,-29,-14,19,9,-9,-19,-34,-39
-43,-39,4,41,-24,-17,19,9,-4,-19,-29,-39
-39,-34,4,36,-21,-14,19,9,0,-19,-24,-39
-39,-34,4,36,-21,-14,19,4,0,-19,-24,-39
-39,-39,0,39,-19,-19,14,4,0,-19,-24,-39
-39,-39,0,39,-19,-19,14,4,-4,-24,-24,-39
-39,-34,4,36,-21,-14,14,4,-4,-24,-24,-43
-39,-34,4,36,-21,-14,9,4,-9,-24,-29,-43
-34,-24,9,29,-21,-7,4,4,-14,-19,-29,-39
-29,-24,4,26,-17,-9,4,0,-9,-14,-24,-34
-29,-24,4,26,-17,-9,9,0,-4,-14,-24,-34
-29,-14,14,21,-21,0,9,0,0,-9,-19,-29
-29,-9,19,19,-24,4,9,0,0,-9,-19,-29
-29,-4,24,17,-26,9,9,0,0,-9,-14,-29
-29,0,29,14,-29,14,9,0,0,-9,-9,-29
-29,4,34,12,-31,19,14,0,0,-9,-9,-29
-29,9,39,9,-34,24,24,9,4,-4,-9,-24
-29,19,48,4,-39,34,39,19,14,0,-9,-24
-29,34,63,-2,-46,48,48,24,29,9,-4,-14
-24,58,82,-17,-53,70,48,24,29,14,0,-14
-14,92,107,-39,-61,100,29,9,34,19,14,0
-4,107,112,-51,-58,109,0,-4,34,24,14,4
4,117,112,-61,-53,114,-19,-19,24,24,14,9
4,107,102,-56,-48,104,-39,-34,14,19,19,9
4,112,107,-58,-51,109,-53,-53,4,14,24,14
9,141,131,-75,-61,136,-63,-58,4,14,24,19
14,156,141,-85,-63,148,-68,-58,9,19,24,29
48,156,107,-102,-29,131,-68,-53,9,24,34,39
63,136,73,-100,-4,104,-68,-53,9,24,34,43
63,102,39,-82,12,70,-63,-53,-4,9,19,39
39,78,39,-58,0,58,-53,-53,-9,-4,0,24
4,58,53,-31,-24,56,-29,-43,-9,-4,-4,4
-24,58,82,-17,-53,70,-9,-34,-9,-4,-9,-4
-34,39,73,-2,-53,56,-4,-34,-9,-9,-19,-14
-43,19,63,12,-53,41,-4,-29,-19,-24,-24,-19
-43,9,53,17,-48,31,-4,-29,-19,-24,-24,-24
-43,0,43,21,-43,21,0,-24,-19,-24,-24,-24
-39,-24,14,31,-26,-4,4,-19,-19,-24,-24,-29
-39,-43,-4,41,-17,-24,9,-14,-19,-24,-24,-29
-39,-39,0,39,-19,-19,9,-14,-19,-29,-24,-34
-43,-29,14,36,-29,-7,9,-14,-19,-34,-29,-43
-43,-29,14,36,-29,-7,9,-9,-19,-34,-29,-43
-43,-29,14,36,-29,-7,14,-9,-19,-34,-29,-43
-43,-34,9,39,-26,-12,14,-9,-19,-34,-29,-43
-43,-43,0,43,-21,-21,14,-9,-19,-34,-29,-48
-43,-53,-9,48,-17,-31,14,-9,-19,-34,-29,-48
-43,-58,-14,51,-14,-36,19,-4,-19,-34,-29,-48
-48,-58,-9,53,-19,-34,19,-4,-19,-34,-29,-48
-48,-58,-9,53,-19,-34,19,-4,-19,-34,-29,-48
-48,-53,-4,51,-21,-29,14,-4,-19,-34,-29,-43
-43,-48,-4,46,-19,-26,14,-4,-19,-34,-34,-43
-34,-43,-9,39,-12,-26,14,-4,-19,-29,-29,-43
-29,-43,-14,36,-7,-29,14,0,-14,-24,-24,-39
-43,-63,-19,53,-12,-41,19,9,-14,-19,-24,-39
-82,-82,0,82,-41,-41,48,34,-4,-29,-48,-63
-146,-122,24,134,-85,-48,107,68,-14,-68,-122,-146
-204,-151,53,178,-129,-48,170,117,14,-73,-156,-195
-234,-68,165,151,-200,48,214,175,112,9,-117,-165
-204,63,268,70,-236,165,204,195,239,151,9,-58
-92,190,283,-48,-187,236,122,190,366,322,195,112
19,287,268,-153,-124,278,14,87,356,395,331,258
97,380,283,-239,-92,331,-112,-161,204,326,385,380
204,507,302,-356,-48,405,-307,-444,29,253,429,497
409,834,424,-622,-7,629,-580,-717,-58,331,639,771
488,941,453,-714,17,697,-780,-1024,-331,117,561,814
400,551,151,-475,124,351,-956,-1507,-1156,-775,-151,366
278,209,-68,-244,173,70,-1063,-1820,-1742,-1405,-688,19
214,-112,-326,-51,270,-219,-985,-1717,-1795,-1493,-814,-141
126,-283,-409,78,268,-346,-829,-1488,-1659,-1415,-814,-229
39,-292,-331,126,185,-312,-629,-1132,-1307,-1156,-722,-273
-63,-302,-239,183,87,-270,-429,-785,-971,-902,-619,-302
-117,-234,-117,175,0,-175,-204,-458,-649,-614,-458,-292
-131,-151,-19,141,-56,-85,-87,-244,-414,-400,-312,-239
-112,-117,-4,114,-53,-61,-14,-112,-239,-253,-204,-165
-97,-92,4,95,-51,-43,9,-53,-136,-170,-161,-122
-82,-92,-9,87,-36,-51,34,-14,-87,-107,-102,-92
-68,-97,-29,82,-19,-63,48,14,-58,-73,-68,-78
-58,-97,-39,78,-9,-68,53,48,-39,-58,-68,-73
-58,-97,-39,78,-9,-68,63,68,-9,-43,-68,-68
-58,-97,-39,78,-9,-68,68,68,-4,-34,-63,-68
-58,-97,-39,78,-9,-68,78,73,4,-29,-53,-68
-58,-97,-39,78,-9,-68,82,78,9,-24,-43,-68
-63,-97,-34,80,-14,-65,87,87,19,-14,-43,-68
-63,-97,-34,80,-14,-65,82,92,34,-4,-43,-68
-58,-97,-39,78,-9,-68,87,97,39,4,-39,-68
-58,-102,-43,80,-7,-73,87,107,39,4,-34,-68
-58,-107,-48,82,-4,-78,87,117,48,9,-24,-63
-53,-107,-53,80,0,-80,92,122,53,14,-24,-63
-53,-112,-58,82,2,-85,92,122,53,19,-19,-63
-53,-107,-53,80,0,-80,97,126,58,19,-19,-63
-58,-102,-43,80,-7,-73,97,136,63,24,-19,-63
-58,-102,-43,80,-7,-73,102,136,63,24,-19,-63
-58,-102,-43,80,-7,-73,102,141,63,29,-14,-63
-58,-102,-43,80,-7,-73,102,146,73,34,-9,-63
-58,-102,-43,80,-7,-73,102,151,78,34,-9,-63
-58,-102,-43,80,-7,-73,102,156,78,43,-9,-63
-53,-102,-48,78,-2,-75,107,165,92,48,-4,-63
-53,-97,-43,75,-4,-70,107,165,92,43,-4,-58
-53,-97,-43,75,-4,-70,112,175,102,48,0,-58
-53,-97,-43,75,-4,-70,112,185,112,53,4,-58
-48,-97,-48,73,0,-73,112,190,117,58,4,-58
-43,-92,-48,68,2,-70,117,195,122,63,9,-58
-39,-92,-53,65,7,-73,117,195,131,73,9,-53
-34,-87,-53,61,9,-70,126,204,141,82,14,-53
-29,-82,-53,56,12,-68,131,214,151,87,19,-53
-29,-78,-48,53,9,-63,131,224,156,97,24,-53
-24,-78,-53,51,14,-65,136,234,161,102,34,-53
-24,-78,-53,51,14,-65,131,244,175,117,39,-43
-24,-78,-53,51,14,-65,126,253,180,122,48,-34
-14,-68,-53,41,19,-61,126,263,190,131,53,-29
-14,-58,-43,36,14,-51,126,268,200,136,58,-29
-4,-48,-43,26,19,-46,126,278,209,141,68,-19
4,-39,-43,17,24,-41,126,283,214,151,78,-9
14,-34,-48,9,31,-41,126,287,214,156,82,0
29,-29,-58,0,43,-43,126,292,224,161,92,9
39,-19,-58,-9,48,-39,122,292,234,170,97,19
48,-14,-63,-17,56,-39,112,287,239,170,107,24
58,9,-48,-34,53,-19,102,283,234,170,107,29
63,24,-39,-43,51,-7,92,273,234,175,117,34
78,34,-43,-56,61,-4,82,268,224,180,122,43
92,53,-39,-73,65,7,68,263,219,180,122,58
102,63,-39,-82,70,12,58,248,214,170,126,63
112,68,-43,-90,78,12,34,234,209,161,126,73
122,82,-39,-102,80,21,19,219,195,156,126,82
131,92,-39,-112,85,26,4,200,180,151,126,87
136,92,-43,-114,90,24,-4,175,161,136,126,92
141,92,-48,-117,95,21,-9,156,151,126,126,92
141,87,-53,-114,97,17,-19,141,136,126,126,97
136,82,-53,-109,95,14,-24,126,131,126,126,102
136,87,-48,-112,92,19,-34,112,122,117,122,107
131,82,-48,-107,90,17,-39,97,107,107,122,102
126,73,-53,-100,90,9,-39,87,102,102,112,97
122,68,-53,-95,87,7,-39,73,97,92,102,87
117,63,-53,-90,85,4,-39,58,82,87,97,78
107,58,-48,-82,78,4,-34,43,73,78,87,78
87,58,-29,-73,58,14,-34,34,63,63,73,63
78,48,-29,-63,53,9,-34,24,48,58,63,58
68,39,-29,-53,48,4,-29,19,43,53,58,48
58,39,-19,-48,39,9,-24,14,39,48,48,43
48,34,-14,-41,31,9,-29,4,34,34,39,34
43,29,-14,-36,29,7,-29,0,24,24,39,34
29,24,-4,-26,17,9,-29,0,19,24,34,24
19,14,-4,-17,12,4,-24,-4,19,19,34,24
19,9,-9,-14,14,0,-24,-4,14,19,24,24
9,9,0,-9,4,4,-24,-4,9,19,19,19
4,0,-4,-2,4,-2,-19,-4,9,4,14,9
4,-4,-9,0,7,-7,-19,-4,4,4,14,4
0,-9,-9,4,4,-9,-19,-9,4,4,9,-4
0,-9,-9,4,4,-9,-19,-9,4,4,9,-4
0,-9,-9,4,4,-9,-9,-9,4,4,4,-9
-4,-14,-9,9,2,-12,-9,-4,4,4,-4,-9
-4,-14,-9,9,2,-12,-9,-4,4,0,-4,-14
-9,-9,0,9,-4,-4,-9,-4,4,0,-9,-14
-9,-9,0,9,-4,-4,-4,-4,4,0,-9,-19
-9,-14,-4,12,-2,-9,4,-4,9,0,-14,-19
-14,-14,0,14,-7,-7,4,-4,9,0,-14,-19
-14,-14,0,14,-7,-7,4,0,9,0,-14,-19
-19,-19,0,19,-9,-9,9,0,9,-4,-14,-24
-19,-24,-4,21,-7,-14,9,0,9,-4,-19,-29
-24,-29,-4,26,-9,-17,9,0,9,-4,-19,-29
-24,-29,-4,26,-9,-17,9,0,9,-4,-19,-29
-29,-29,0,29,-14,-14,14,0,4,-9,-24,-34
-34,-29,4,31,-19,-12,14,0,0,-9,-24,-34
-34,-29,4,31,-19,-12,14,0,0,-9,-24,-43
-43,-29,14,36,-29,-7,19,0,0,-9,-24,-48
-43,-39,4,41,-24,-17,19,4,0,-9,-29,-48
-43,-43,0,43,-21,-21,19,4,0,-9,-29,-48
-43,-43,0,43,-21,-21,19,4,0,-9,-24,-48
-48,-43,4,46,-26,-19,19,4,4,-9,-19,-48
-43,-39,4,41,-24,-17,19,9,4,-14,-24,-48
-39,-39,0,39,-19,-19,19,14,4,-14,-24,-48
-39,-34,4,36,-21,-14,19,14,4,-14,-29,-43
-39,-29,9,34,-24,-9,14,14,4,-14,-34,-43
-39,-29,9,34,-24,-9,9,9,4,-14,-34,-48
-39,-29,9,34,-24,-9,9,4,4,-14,-34,-48
-39,-34,4,36,-21,-14,9,0,4,-14,-34,-48
-39,-39,0,39,-19,-19,9,0,0,-19,-34,-48
-39,-39,0,39,-19,-19,14,0,-4,-19,-34,-48
-39,-34,4,36,-21,-14,19,0,-9,-19,-34,-48
-39,-34,4,36,-21,-14,19,-4,-9,-19,-34,-48
-39,-39,0,39,-19,-19,14,-4,-9,-19,-34,-48
-39,-39,0,39,-19,-19,9,-4,-14,-24,-29,-43
-39,-34,4,36,-21,-14,4,-4,-14,-24,-24,-43
-43,-39,4,41,-24,-17,4,-4,-14,-24,-24,-43
-48,-39,9,43,-29,-14,4,-4,-14,-24,-24,-43
-43,-39,4,41,-24,-17,4,-4,-14,-19,-24,-39
-43,-29,14,36,-29,-7,9,-9,-9,-14,-29,-39
-39,-14,24,26,-31,4,9,-9,-4,-9,-24,-34
-39,0,39,19,-39,19,9,-9,0,-9,-19,-29
-39,0,39,19,-39,19,14,-9,0,-9,-19,-24
-39,0,39,19,-39,19,19,-9,0,-9,-19,-19
-39,4,43,17,-41,24,19,-9,0,-4,-19,-19
-34,9,43,12,-39,26,24,-9,0,0,-14,-19
-34,14,48,9,-41,31,29,-9,4,0,-14,-19
-29,29,58,0,-43,43,39,4,9,4,-9,-14
-29,43,73,-7,-51,58,39,4,19,4,-4,-4
-24,58,82,-17,-53,70,39,4,19,4,0,-4
-14,87,102,-36,-58,95,19,-9,24,4,9,9
-4,107,112,-51,-58,109,-9,-24,24,4,4,14
4,117,112,-61,-53,114,-29,-39,19,4,4,19
9,117,107,-63,-48,112,-48,-48,14,0,4,19
14,131,117,-73,-51,124,-63,-63,4,9,14,24
19,151,131,-85,-56,141,-68,-68,4,19,24,24
24,151,126,-87,-51,139,-68,-68,9,9,14,29
43,146,102,-95,-29,124,-68,-63,9,4,14,34
29,126,97,-78,-34,112,-68,-63,9,4,14,34
14,92,78,-53,-31,85,-63,-63,-4,-4,4,29
0,68,68,-34,-34,68,-53,-58,-9,-14,-4,14
-24,48,73,-12,-48,61,-29,-43,-9,-14,-4,0
-48,48,97,0,-73,73,-9,-34,-9,-14,-9,-9
-43,29,73,7,-58,51,-4,-34,-9,-19,-19,-24
-43,9,53,17,-48,31,-4,-29,-19,-34,-24,-29
-43,0,43,21,-43,21,-4,-29,-19,-34,-24,-34
-43,-4,39,24,-41,17,0,-24,-19,-34,-29,-34
-39,-14,24,26,-31,4,4,-19,-19,-34,-34,-39
-39,-24,14,31,-26,-4,9,-14,-19,-34,-34,-39
-39,-29,9,34,-24,-9,9,-14,-19,-34,-34,-39
-43,-29,14,36,-29,-7,4,-19,-24,-34,-39,-43
-43,-29,14,36,-29,-7,0,-19,-29,-34,-39,-43
-48,-29,19,39,-34,-4,4,-19,-29,-34,-39,-43
-53,-29,24,41,-39,-2,4,-19,-29,-34,-39,-43
-53,-43,9,48,-31,-17,9,-19,-29,-34,-39,-43
-53,-58,-4,56,-24,-31,14,-19,-29,-34,-39,-39
-53,-58,-4,56,-24,-31,19,-14,-29,-34,-39,-39
-58,-58,0,58,-29,-29,19,-14,-29,-34,-39,-39
-58,-58,0,58,-29,-29,19,-14,-29,-34,-39,-43
-58,-58,0,58,-29,-29,19,-14,-29,-34,-39,-43
-48,-53,-4,51,-21,-29,24,-14,-29,-34,-43,-43
-43,-48,-4,46,-19,-26,24,-14,-29,-34,-43,-48
-48,-53,-4,51,-21,-29,24,-4,-19,-29,-39,-48
-63,-73,-9,68,-26,-41,39,14,-14,-29,-48,-68
-107,-92,14,100,-61,-39,82,48,0,-48,-87,-112
-161,-102,58,131,-109,-21,136,87,14,-58,-126,-161
-204,-102,102,153,-153,0,190,136,63,-34,-126,-175
-204,0,204,102,-204,102,190,165,161,63,-58,-117
-146,151,297,-2,-222,224,136,161,287,214,92,19
-34,278,312,-122,-173,295,34,97,336,326,248,190
78,375,297,-226,-109,336,-92,-68,253,346,361,336
156,478,322,-317,-82,400,-248,-326,87,268,409,458
263,614,351,-439,-43,483,-473,-619,-107,190,448,580
414,814,400,-614,7,607,-707,-893,-297,122,512,741
439,795,356,-617,41,575,-868,-1205,-673,-244,292,668
351,405,53,-378,148,229,-980,-1556,-1342,-985,-317,263
229,68,-161,-148,195,-46,-1024,-1732,-1761,-1449,-751,-34
165,-175,-341,4,253,-258,-907,-1546,-1688,-1415,-795,-151
78,-273,-351,97,214,-312,-717,-1244,-1449,-1244,-717,-200
0,-273,-273,136,136,-273,-522,-922,-1112,-990,-624,-239
-87,-273,-185,180,48,-229,-326,-600,-780,-732,-527,-263
-122,-204,-82,163,-19,-143,-146,-331,-507,-492,-380,-239
-122,-122,0,122,-61,-61,-68,-175,-317,-322,-248,-175
-102,-97,4,100,-53,-46,-4,-73,-175,-200,-165,-126
-87,-87,0,87,-43,-43,9,-43,-107,-141,-141,-102
-78,-92,-14,85,-31,-53,34,-4,-58,-87,-92,-82
-68,-97,-29,82,-19,-63,48,24,-29,-63,-68,-78
-58,-97,-39,78,-9,-68,53,53,-14,-48,-68,-73
-58,-102,-43,80,-7,-73,63,68,9,-34,-63,-68
-58,-107,-48,82,-4,-78,63,68,14,-24,-53,-68
-63,-107,-43,85,-9,-75,73,73,24,-19,-43,-68
-68,-107,-39,87,-14,-73,82,78,29,-14,-34,-68
-73,-107,-34,90,-19,-70,87,87,39,-4,-34,-68
-73,-107,-34,90,-19,-70,87,92,48,0,-34,-68
-68,-107,-39,87,-14,-73,97,97,48,4,-29,-68
-68,-107,-39,87,-14,-73,97,102,48,4,-29,-68
-68,-107,-39,87,-14,-73,92,107,58,4,-24,-68
-63,-107,-43,85,-9,-75,92,112,63,4,-24,-73
-63,-112,-48,87,-7,-80,92,112,63,9,-19,-73
-63,-112,-48,87,-7,-80,97,117,68,9,-19,-73
-68,-112,-43,90,-12,-78,97,126,73,19,-19,-73
-68,-112,-43,90,-12,-78,102,126,78,24,-19,-73
-68,-112,-43,90,-12,-78,102,131,78,29,-14,-68
-68,-112,-43,90,-12,-78,102,136,82,34,-9,-63
-63,-112,-48,87,-7,-80,102,141,87,34,-4,-63
-58,-112,-53,85,-2,-82,102,146,87,43,0,-63
-53,-112,-58,82,2,-85,107,156,102,48,4,-63
-53,-107,-53,80,0,-80,107,156,102,48,4,-58
-53,-107,-53,80,0,-80,112,165,112,53,4,-58
-53,-107,-53,80,0,-80,112,175,122,53,4,-58
-48,-102,-53,75,2,-78,112,175,126,58,4,-58
-48,-92,-43,70,-2,-68,117,180,131,63,14,-58
-48,-92,-43,70,-2,-68,117,185,141,73,19,-53
-43,-87,-43,65,0,-65,122,195,151,82,24,-48
-39,-87,-48,63,4,-68,122,204,161,97,29,-43
-39,-87,-48,63,4,-68,122,214,170,117,34,-43
-34,-87,-53,61,9,-70,126,224,180,112,43,-43
-29,-82,-53,56,12,-68,126,234,195,117,48,-34
-24,-78,-53,51,14,-65,126,244,200,122,53,-29
-14,-68,-53,41,19,-61,126,253,209,131,53,-29
-14,-58,-43,36,14,-51,126,258,219,141,58,-29
-4,-48,-43,26,19,-46,126,263,229,151,68,-19
4,-43,-48,19,26,-46,126,263,234,161,78,-4
9,-34,-43,12,26,-39,122,268,234,165,82,9
19,-19,-39,0,29,-29,117,273,244,170,92,19
29,-9,-39,-9,34,-24,112,273,248,180,97,29
39,-4,-43,-17,41,-24,102,268,248,180,107,34
48,14,-34,-31,41,-9,92,263,244,180,107,43
53,24,-29,-39,41,-2,82,253,244,185,117,53
68,34,-34,-51,51,0,73,244,234,190,122,63
82,53,-29,-68,56,12,58,239,229,190,126,78
92,63,-29,-78,61,17,53,224,219,180,136,82
102,68,-34,-85,68,17,39,204,214,175,136,92
112,82,-29,-97,70,26,29,190,204,175,136,102
122,92,-29,-107,75,31,14,175,190,170,136,107
126,92,-34,-109,80,29,0,156,170,156,136,112
131,92,-39,-112,85,26,-9,136,161,146,136,112
131,87,-43,-109,87,21,-19,122,141,136,131,112
126,82,-43,-104,85,19,-24,107,131,126,126,112
126,82,-43,-104,85,19,-29,92,122,117,117,112
122,78,-43,-100,82,17,-29,78,107,107,112,102
112,73,-39,-92,75,17,-29,68,97,102,102,97
97,68,-29,-82,63,19,-29,53,87,92,92,87
87,63,-24,-75,56,19,-34,43,73,87,87,78
78,58,-19,-68,48,19,-34,29,63,78,78,78
63,53,-9,-58,36,21,-34,19,58,63,68,63
58,43,-14,-51,36,14,-34,14,48,58,63,58
48,39,-9,-43,29,14,-29,9,43,53,58,48
39,39,0,-39,19,19,-24,4,39,48,48,43
29,34,4,-31,12,19,-24,0,39,39,39,34
24,29,4,-26,9,17,-14,0,34,34,39,34
14,24,9,-19,2,17,-9,0,29,34,34,24
9,14,4,-12,2,9,-4,-4,29,29,34,24
9,9,0,-9,4,4,-4,-4,24,29,24,24
4,9,4,-7,0,7,-4,-4,19,34,19,19
4,4,0,-4,2,2,0,-4,19,24,14,14
4,4,0,-4,2,2,0,-4,9,24,14,14
0,0,0,0,0,0,0,-9,4,24,9,4
-4,0,4,2,-4,2,0,-9,4,24,9,4
-9,0,9,4,-9,4,9,-9,4,24,9,0
-14,-4,9,9,-12,2,9,-4,4,24,4,0
-14,-9,4,12,-9,-2,9,-4,4,19,4,-4
-19,-14,4,17,-12,-4,9,-4,4,19,0,-4
-19,-19,0,19,-9,-9,9,-4,0,19,0,-9
-19,-24,-4,21,-7,-14,14,-4,0,19,-4,-9
-24,-24,0,24,-12,-12,14,-4,0,19,-4,-9
-24,-19,4,21,-14,-7,14,4,0,19,-4,-9
-29,-19,9,24,-19,-4,19,9,0,14,-4,-14
-29,-24,4,26,-17,-9,14,9,0,14,-9,-19
-34,-29,4,31,-19,-12,9,9,0,14,-9,-19
-34,-29,4,31,-19,-12,9,9,0,14,-9,-19
-34,-29,4,31,-19,-12,14,9,0,9,-14,-24
-34,-34,0,34,-17,-17,14,9,0,9,-14,-24
-34,-39,-4,36,-14,-21,14,9,0,9,-14,-29
-43,-39,4,41,-24,-17,24,9,0,9,-14,-24
-43,-43,0,43,-21,-21,29,14,0,9,-19,-19
-39,-39,0,39,-19,-19,29,14,0,9,-19,-19
-34,-34,0,34,-17,-17,29,14,-4,9,-19,-24
-39,-34,4,36,-21,-14,29,9,-4,9,-19,-29
-39,-34,4,36,-21,-14,29,4,-4,4,-24,-29
-39,-39,0,39,-19,-19,29,4,-4,4,-24,-29
-39,-39,0,39,-19,-19,34,4,-4,4,-24,-24
-39,-39,0,39,-19,-19,29,4,-4,9,-24,-24
-39,-39,0,39,-19,-19,19,4,-4,14,-24,-29
-39,-39,0,39,-19,-19,19,4,-4,14,-24,-29
-39,-39,0,39,-19,-19,19,0,-4,14,-24,-29
-34,-39,-4,36,-14,-21,19,0,-9,9,-24,-29
-29,-39,-9,34,-9,-24,19,0,-9,9,-24,-29
-29,-34,-4,31,-12,-19,19,0,-9,9,-24,-29
-29,-34,-4,31,-12,-19,19,-4,-9,9,-24,-29
-34,-39,-4,36,-14,-21,14,-4,-9,9,-24,-29
-39,-39,0,39,-19,-19,14,-4,-14,4,-24,-24
-39,-39,0,39,-19,-19,14,-4,-14,4,-24,-24
-39,-43,-4,41,-17,-24,14,-4,-14,4,-24,-24
-39,-39,0,39,-19,-19,14,-4,-14,4,-24,-24
-34,-34,0,34,-17,-17,14,-4,-14,9,-19,-19
-34,-24,9,29,-21,-7,14,-9,-14,9,-19,-19
-34,-14,19,24,-26,2,19,-9,-9,14,-19,-19
-29,-9,19,19,-24,4,19,-9,-9,14,-19,-14
-29,0,29,14,-29,14,19,-14,-4,19,-14,-9
-29,9,39,9,-34,24,19,-14,-4,19,-14,-9
-29,14,43,7,-36,29,24,-14,0,24,-14,-9
-29,19,48,4,-39,34,39,-9,4,29,-14,-9
-24,34,58,-4,-41,46,48,-4,9,29,-9,-4
-19,48,68,-14,-43,58,43,-4,9,34,0,0
-14,68,82,-26,-48,75,29,-9,14,39,4,4
-4,87,92,-41,-48,90,4,-19,14,39,9,9
4,102,97,-53,-46,100,-14,-34,14,39,14,19
14,112,97,-63,-41,104,-43,-53,9,34,14,29
19,117,97,-68,-39,107,-58,-63,-4,29,14,34
24,131,107,-78,-41,119,-63,-68,-9,19,14,34
34,146,112,-90,-39,129,-63,-73,-14,19,14,34
34,146,112,-90,-39,129,-63,-73,-9,24,14,43
43,131,87,-87,-21,109,-63,-73,-4,29,14,48
43,102,58,-73,-7,80,-63,-73,-14,24,14,48
34,82,48,-58,-7,65,-58,-68,-19,14,4,34
-4,58,63,-26,-34,61,-43,-63,-24,14,-4,19
-29,43,73,-7,-51,58,-24,-63,-24,4,-9,4
-39,29,68,4,-53,48,-9,-53,-29,0,-19,0
-39,14,53,12,-46,34,0,-48,-34,-9,-24,-4
-43,4,48,19,-46,26,-4,-43,-39,-9,-19,-19
-43,-9,34,26,-39,12,-4,-39,-39,-9,-24,-24
-43,-29,14,36,-29,-7,0,-29,-39,-9,-24,-24
-43,-43,0,43,-21,-21,9,-29,-39,-14,-24,-29
-39,-43,-4,41,-17,-24,9,-29,-39,-9,-24,-29
-39,-48,-9,43,-14,-29,9,-29,-39,-9,-29,-29
-39,-48,-9,43,-14,-29,9,-29,-39,-9,-29,-29
-39,-48,-9,43,-14,-29,9,-29,-39,-9,-29,-29
-39,-53,-14,46,-12,-34,14,-24,-39,-9,-29,-29
-39,-58,-19,48,-9,-39,19,-19,-39,-9,-29,-29
-39,-58,-19,48,-9,-39,19,-19,-39,-14,-34,-34
-39,-58,-19,48,-9,-39,19,-19,-39,-19,-39,-39
-39,-58,-19,48,-9,-39,19,-19,-39,-19,-39,-39
