I, II, III, aVR, aVL, aVF, V1, V2, V3, V4, V5, V6
-19,-48,-29,34,4,-39,0,-78,-87,-68,-29,-19
-19,-48,-29,34,4,-39,0,-82,-92,-68,-34,-24
-19,-48,-29,34,4,-39,0,-87,-97,-68,-39,-29
-24,-48,-24,36,0,-36,0,-87,-97,-73,-39,-29
-29,-48,-19,39,-4,-34,0,-87,-97,-78,-39,-29
-29,-53,-24,41,-2,-39,0,-92,-97,-78,-39,-29
-29,-58,-29,43,0,-43,0,-97,-97,-78,-39,-29
-29,-58,-29,43,0,-43,0,-97,-102,-82,-43,-29
-29,-58,-29,43,0,-43,0,-97,-107,-87,-48,-29
-29,-53,-24,41,-2,-39,0,-97,-107,-87,-48,-29
-29,-48,-19,39,-4,-34,0,-97,-107,-87,-48,-29
-29,-48,-19,39,-4,-34,-4,-97,-107,-87,-48,-29
-29,-48,-19,39,-4,-34,-9,-97,-107,-87,-48,-29
-29,-53,-24,41,-2,-39,-9,-102,-112,-87,-48,-29
-29,-58,-29,43,0,-43,-9,-107,-117,-87,-48,-29
-29,-58,-29,43,0,-43,-9,-107,-117,-87,-48,-29
-29,-58,-29,43,0,-43,-9,-107,-117,-87,-48,-29
-24,-53,-29,39,2,-41,-9,-107,-117,-92,-48,-29
-19,-48,-29,34,4,-39,-9,-107,-117,-97,-48,-29
-19,-48,-29,34,4,-39,-9,-107,-122,-97,-48,-34
-19,-48,-29,34,4,-39,-9,-107,-126,-97,-48,-39
-24,-48,-24,36,0,-36,-9,-112,-126,-97,-53,-39
-29,-48,-19,39,-4,-34,-9,-117,-126,-97,-58,-39
-29,-48,-19,39,-4,-34,-9,-117,-126,-97,-58,-39
-29,-48,-19,39,-4,-34,-9,-117,-126,-97,-58,-39
-24,-48,-24,36,0,-36,-9,-117,-122,-97,-58,-39
-19,-48,-29,34,4,-39,-9,-117,-117,-97,-58,-39
-19,-48,-29,34,4,-39,-9,-117,-117,-97,-58,-34
-19,-48,-29,34,4,-39,-9,-117,-117,-97,-58,-29
-19,-48,-29,34,4,-39,-9,-117,-117,-97,-58,-29
-19,-48,-29,34,4,-39,-9,-117,-117,-97,-58,-29
-19,-48,-29,34,4,-39,-9,-117,-117,-97,-58,-34
-19,-48,-29,34,4,-39,-9,-117,-117,-97,-58,-39
-19,-48,-29,34,4,-39,-9,-117,-117,-97,-58,-39
-19,-48,-29,34,4,-39,-9,-117,-117,-97,-58,-39
-19,-48,-29,34,4,-39,-9,-117,-117,-97,-58,-39
-19,-48,-29,34,4,-39,-9,-117,-117,-97,-58,-39
-19,-48,-29,34,4,-39,-9,-117,-117,-97,-58,-39
-19,-48,-29,34,4,-39,-9,-117,-117,-97,-58,-39
-19,-48,-29,34,4,-39,-9,-117,-117,-97,-63,-39
-19,-48,-29,34,4,-39,-9,-117,-117,-97,-68,-39
-19,-48,-29,34,4,-39,-9,-117,-117,-97,-68,-39
-19,-48,-29,34,4,-39,-9,-117,-117,-97,-68,-39
-19,-48,-29,34,4,-39,-4,-112,-117,-97,-68,-39
-19,-48,-29,34,4,-39,0,-107,-117,-97,-68,-39
-19,-39,-19,29,0,-29,4,-107,-112,-92,-63,-34
-19,-29,-9,24,-4,-19,9,-107,-107,-87,-58,-29
-19,-9,9,14,-14,0,19,-97,-97,-78,-48,-24
-19,9,29,4,-24,19,29,-87,-87,-68,-39,-19
-14,24,39,-4,-26,31,39,-68,-68,-53,-29,-4
-9,39,48,-14,-29,43,48,-48,-48,-39,-19,9
-4,39,43,-17,-24,41,53,-43,-43,-34,-14,9
0,39,39,-19,-19,39,58,-39,-39,-29,-9,9
4,43,39,-24,-17,41,58,-24,-34,-19,-4,14
9,48,39,-29,-14,43,58,-9,-29,-9,0,19
19,48,29,-34,-4,39,68,9,-9,0,9,24
29,48,19,-39,4,34,78,29,9,9,19,29
29,63,34,-46,-2,48,78,29,14,19,24,39
29,78,48,-53,-9,63,78,29,19,29,29,48
29,92,63,-61,-17,78,63,14,19,29,34,48
29,107,78,-68,-24,92,48,0,19,29,39,48
34,97,63,-65,-14,80,19,-43,0,24,39,48
39,87,48,-63,-4,68,-9,-87,-19,19,39,48
39,82,43,-61,-2,63,-29,-92,-34,0,19,43
39,78,39,-58,0,58,-48,-97,-48,-19,0,39
39,78,39,-58,0,58,-53,-97,-53,-19,9,39
39,78,39,-58,0,58,-58,-97,-58,-19,19,39
43,87,43,-65,0,65,-58,-102,-63,-19,19,48
48,97,48,-73,0,73,-58,-107,-68,-19,19,58
53,112,58,-82,-2,85,-58,-117,-68,-14,29,68
58,126,68,-92,-4,97,-58,-126,-68,-9,39,78
53,126,73,-90,-9,100,-58,-126,-63,0,43,78
39,107,68,-73,-14,87,-53,-122,-68,-4,34,63
29,87,58,-58,-14,73,-53,-122,-73,-9,24,53
9,63,53,-36,-21,58,-43,-131,-87,-29,4,39
-14,34,48,-9,-31,41,-43,-136,-117,-63,-29,9
-29,-4,24,17,-26,9,-43,-141,-131,-78,-48,-14
-34,-29,4,31,-19,-12,-39,-141,-131,-87,-58,-29
-39,-63,-24,51,-7,-43,-29,-136,-136,-102,-73,-48
-39,-68,-29,53,-4,-48,-24,-126,-136,-107,-78,-48
-39,-73,-34,56,-2,-53,-24,-126,-136,-112,-78,-53
-39,-73,-34,56,-2,-53,-24,-126,-136,-112,-78,-53
-39,-78,-39,58,0,-58,-24,-122,-141,-117,-82,-58
-39,-82,-43,61,2,-63,-24,-126,-146,-122,-92,-63
-43,-82,-39,63,-2,-61,-19,-136,-146,-122,-97,-63
-43,-82,-39,63,-2,-61,-19,-136,-146,-112,-92,-63
-39,-87,-48,63,4,-68,-19,-131,-146,-107,-92,-63
-39,-92,-53,65,7,-73,-19,-122,-141,-112,-87,-63
-39,-92,-53,65,7,-73,-14,-117,-136,-112,-82,-63
-43,-92,-48,68,2,-70,-9,-117,-136,-112,-87,-63
-43,-92,-48,68,2,-70,-9,-117,-136,-112,-87,-63
-43,-92,-48,68,2,-70,-14,-117,-136,-112,-82,-63
-39,-97,-58,68,9,-78,-14,-112,-136,-112,-82,-63
-39,-97,-58,68,9,-78,-9,-112,-136,-112,-87,-63
-39,-97,-58,68,9,-78,-9,-112,-136,-112,-92,-63
-43,-92,-48,68,2,-70,-9,-112,-136,-112,-92,-63
-43,-87,-43,65,0,-65,-9,-112,-136,-112,-92,-63
-43,-87,-43,65,0,-65,-9,-112,-136,-107,-87,-63
-48,-82,-34,65,-7,-58,-9,-112,-131,-107,-82,-63
-48,-82,-34,65,-7,-58,-9,-107,-131,-107,-82,-63
-48,-82,-34,65,-7,-58,-9,-107,-131,-107,-82,-63
-48,-87,-39,68,-4,-63,-9,-112,-131,-107,-82,-63
-48,-87,-39,68,-4,-63,-9,-117,-131,-102,-82,-63
-48,-87,-39,68,-4,-63,-4,-117,-131,-102,-82,-58
-48,-87,-39,68,-4,-63,-4,-117,-131,-102,-78,-58
-43,-87,-43,65,0,-65,-4,-117,-126,-107,-82,-63
-39,-87,-48,63,4,-68,-4,-112,-122,-112,-87,-68
-39,-87,-48,63,4,-68,-4,-112,-122,-112,-87,-68
-39,-87,-48,63,4,-68,-4,-112,-122,-112,-87,-63
-39,-87,-48,63,4,-68,-4,-112,-126,-107,-82,-63
-39,-87,-48,63,4,-68,-4,-112,-131,-107,-82,-63
-43,-82,-39,63,-2,-61,-9,-112,-126,-102,-73,-58
-43,-82,-39,63,-2,-61,-14,-102,-117,-97,-68,-53
-34,-87,-53,61,9,-70,-24,-73,-102,-92,-68,-53
-24,-87,-63,56,19,-75,-29,-19,0,-29,-29,-34
-24,-87,-63,56,19,-75,-68,-43,82,14,-4,-29
-24,-39,-14,31,-4,-26,-102,-175,87,63,48,19
-24,53,78,-14,-51,65,-180,-453,4,204,239,195
-4,180,185,-87,-95,183,-307,-888,-234,366,527,483
48,341,292,-195,-122,317,-468,-1259,-453,644,985,922
136,551,414,-344,-139,483,-756,-1722,-727,854,1429,1390
200,810,610,-505,-204,710,-1132,-2278,-1171,839,1722,1766
180,1000,819,-590,-319,910,-1444,-2820,-1810,414,1493,1747
136,1239,1102,-688,-483,1171,-1625,-3250,-2464,-322,941,1556
136,1068,932,-602,-397,1000,-1595,-3220,-2869,-1102,185,1107
48,546,497,-297,-224,522,-1415,-2952,-3167,-2025,-927,258
14,346,331,-180,-158,339,-1185,-2420,-2762,-2030,-1166,-58
-4,234,239,-114,-122,236,-771,-1493,-1683,-1317,-805,-39
-14,151,165,-68,-90,158,-458,-858,-956,-795,-522,-48
-29,92,122,-31,-75,107,-273,-507,-585,-507,-341,-73
-43,19,63,12,-53,41,-151,-312,-385,-361,-273,-131
-43,-68,-24,56,-9,-46,-58,-165,-273,-292,-253,-170
-43,-92,-48,68,2,-70,4,-43,-141,-214,-214,-170
-43,-78,-34,61,-4,-56,43,48,-9,-92,-112,-117
-29,-68,-39,48,4,-53,68,97,63,-19,-43,-78
-19,-68,-48,43,14,-58,82,122,68,-4,-24,-68
-9,-78,-68,43,29,-73,87,146,82,0,-34,-63
-19,-92,-73,56,26,-82,87,156,97,4,-34,-73
-19,-97,-78,58,29,-87,92,156,107,14,-24,-73
-19,-102,-82,61,31,-92,102,161,107,24,-14,-68
-14,-102,-87,58,36,-95,102,175,107,29,-14,-68
-14,-102,-87,58,36,-95,102,180,117,29,-14,-68
-19,-107,-87,63,34,-97,102,180,126,34,-14,-68
-19,-117,-97,68,39,-107,107,190,131,39,-9,-73
-19,-122,-102,70,41,-112,107,200,136,39,-9,-78
-19,-122,-102,70,41,-112,107,200,141,39,-9,-78
-19,-126,-107,73,43,-117,107,204,141,43,-9,-78
-19,-126,-107,73,43,-117,112,204,151,48,-9,-78
-24,-126,-102,75,39,-114,112,214,161,58,-9,-78
-29,-117,-87,73,29,-102,107,214,161,58,-9,-78
-29,-112,-82,70,26,-97,107,219,161,58,-9,-78
-29,-112,-82,70,26,-97,107,224,165,63,-9,-73
-29,-112,-82,70,26,-97,107,224,170,63,-9,-73
-24,-117,-92,70,34,-104,107,229,175,63,-4,-73
-24,-117,-92,70,34,-104,112,234,175,68,0,-78
-24,-117,-92,70,34,-104,112,239,180,68,0,-78
-24,-117,-92,70,34,-104,112,244,185,68,0,-78
-24,-122,-97,73,36,-109,117,253,190,68,-4,-78
-24,-126,-102,75,39,-114,117,258,195,73,-9,-82
-24,-126,-102,75,39,-114,117,268,204,78,-4,-82
-19,-122,-102,70,41,-112,122,278,204,82,-4,-78
-19,-122,-102,70,41,-112,122,283,214,82,-4,-78
-14,-122,-107,68,46,-114,122,292,224,82,-4,-87
-14,-122,-107,68,46,-114,122,302,229,87,-4,-87
-14,-122,-107,68,46,-114,122,307,234,87,0,-92
-14,-126,-112,70,48,-119,122,317,239,97,0,-97
-14,-126,-112,70,48,-119,126,331,244,97,0,-102
-9,-122,-112,65,51,-117,126,336,253,102,0,-102
-9,-122,-112,65,51,-117,126,351,263,102,0,-107
-9,-117,-107,63,48,-112,131,366,273,107,0,-107
-9,-117,-107,63,48,-112,136,375,292,117,4,-107
-4,-112,-107,58,51,-109,136,395,307,122,4,-107
4,-112,-117,53,61,-114,151,419,317,131,9,-107
4,-112,-117,53,61,-114,146,439,331,136,9,-107
4,-112,-117,53,61,-114,151,458,351,141,9,-112
0,-107,-107,53,53,-107,161,473,361,151,14,-112
0,-107,-107,53,53,-107,165,492,375,151,14,-112
9,-102,-112,46,61,-107,175,522,390,161,14,-112
9,-97,-107,43,58,-102,185,546,409,170,14,-117
14,-92,-107,39,61,-100,190,575,434,185,14,-122
14,-82,-97,34,56,-90,195,605,468,200,19,-122
19,-78,-97,29,58,-87,200,634,488,209,19,-122
19,-68,-87,24,53,-78,209,663,517,224,19,-126
19,-63,-82,21,51,-73,209,707,551,248,29,-126
29,-53,-82,12,56,-68,219,741,585,263,39,-126
34,-43,-78,4,56,-61,229,775,619,283,43,-131
39,-34,-73,-2,56,-53,234,819,653,297,48,-131
43,-19,-63,-12,53,-41,248,863,692,322,53,-131
48,-9,-58,-19,53,-34,258,907,732,341,63,-136
53,4,-48,-29,51,-21,273,941,761,361,68,-136
63,19,-43,-41,53,-12,283,976,790,380,78,-136
73,43,-29,-58,51,7,292,1005,839,395,82,-141
73,63,-9,-68,41,26,297,1039,873,414,82,-141
82,82,0,-82,41,41,297,1058,897,424,92,-126
92,107,14,-100,39,61,297,1063,917,444,97,-122
92,131,39,-112,26,85,302,1078,946,458,107,-112
92,156,63,-124,14,109,307,1063,956,473,112,-112
97,185,87,-141,4,136,297,1049,956,478,112,-97
97,214,117,-156,-9,165,278,1015,951,478,112,-87
97,244,146,-170,-24,195,273,976,927,488,112,-78
92,263,170,-178,-39,217,253,917,888,483,112,-58
82,287,204,-185,-61,246,229,844,839,458,112,-53
78,297,219,-187,-70,258,209,766,785,434,107,-43
68,302,234,-185,-82,268,195,688,727,405,107,-29
63,302,239,-183,-87,270,170,610,653,370,97,-19
53,307,253,-180,-100,280,146,512,575,336,92,-4
48,297,248,-173,-100,273,122,434,497,302,87,4
39,268,229,-153,-95,248,107,361,434,268,87,19
29,244,214,-136,-92,229,78,287,370,229,87,24
24,214,190,-119,-82,202,53,219,297,200,78,29
19,190,170,-104,-75,180,34,165,239,170,68,34
14,151,136,-82,-61,143,24,117,185,141,68,39
4,126,122,-65,-58,124,14,78,141,117,58,39
4,107,102,-56,-48,104,0,34,97,92,43,34
-4,82,87,-39,-46,85,-4,0,58,63,34,34
-4,68,73,-31,-39,70,-9,-24,19,34,24,34
-9,48,58,-19,-34,53,-19,-43,-14,9,19,34
-9,29,39,-9,-24,34,-19,-58,-24,-4,9,24
-14,19,34,-2,-24,26,-19,-73,-48,-19,0,14
-14,9,24,2,-19,17,-24,-82,-58,-29,-4,9
-14,-4,9,9,-12,2,-29,-87,-68,-39,-9,9
-14,-9,4,12,-9,-2,-29,-87,-78,-48,-14,9
-14,-9,4,12,-9,-2,-29,-92,-78,-53,-19,9
-14,-14,0,14,-7,-7,-29,-97,-82,-53,-24,9
-19,-19,0,19,-9,-9,-29,-97,-87,-53,-24,4
-19,-19,0,19,-9,-9,-29,-97,-92,-63,-29,-4
-19,-24,-4,21,-7,-14,-29,-97,-92,-68,-29,-9
-24,-24,0,24,-12,-12,-29,-97,-92,-68,-29,-9
-24,-29,-4,26,-9,-17,-29,-97,-92,-68,-29,-9
-19,-29,-9,24,-4,-19,-29,-97,-92,-63,-29,-9
-19,-29,-9,24,-4,-19,-29,-92,-92,-58,-29,-9
-19,-34,-14,26,-2,-24,-29,-92,-92,-63,-34,-14
-24,-34,-9,29,-7,-21,-29,-92,-87,-63,-34,-14
-24,-34,-9,29,-7,-21,-29,-92,-87,-63,-34,-19
-19,-34,-14,26,-2,-24,-29,-87,-82,-63,-34,-19
-19,-39,-19,29,0,-29,-19,-87,-82,-58,-34,-19
-19,-39,-19,29,0,-29,-9,-82,-82,-53,-34,-19
-24,-43,-19,34,-2,-31,-9,-82,-78,-53,-39,-19
-24,-43,-19,34,-2,-31,-14,-82,-78,-53,-43,-19
-29,-43,-14,36,-7,-29,-14,-78,-78,-58,-43,-24
-34,-43,-9,39,-12,-26,-14,-78,-78,-58,-43,-24
-34,-43,-9,39,-12,-26,-9,-78,-73,-53,-43,-24
-39,-48,-9,43,-14,-29,-9,-78,-73,-53,-43,-24
-39,-48,-9,43,-14,-29,-9,-78,-78,-63,-43,-24
-39,-48,-9,43,-14,-29,-9,-78,-78,-68,-43,-29
-39,-53,-14,46,-12,-34,-9,-78,-78,-68,-39,-34
-39,-53,-14,46,-12,-34,-4,-78,-78,-68,-39,-34
-39,-53,-14,46,-12,-34,-4,-78,-78,-63,-39,-34
-39,-53,-14,46,-12,-34,-4,-78,-78,-58,-43,-34
-34,-53,-19,43,-7,-36,0,-82,-82,-58,-48,-34
-29,-53,-24,41,-2,-39,0,-82,-82,-63,-48,-34
-29,-43,-14,36,-7,-29,0,-87,-82,-68,-48,-34
-29,-43,-14,36,-7,-29,0,-87,-87,-73,-48,-34
-34,-48,-14,41,-9,-31,0,-92,-92,-78,-48,-34
-39,-58,-19,48,-9,-39,0,-92,-92,-78,-48,-39
-43,-58,-14,51,-14,-36,-4,-92,-92,-82,-48,-39
-48,-58,-9,53,-19,-34,-9,-97,-97,-82,-53,-43
-53,-53,0,53,-26,-26,-9,-97,-102,-78,-53,-43
-53,-53,0,53,-26,-26,-9,-97,-112,-78,-58,-39
-53,-48,4,51,-29,-21,-9,-102,-112,-78,-58,-39
-53,-48,4,51,-29,-21,-9,-102,-117,-82,-63,-43
-48,-53,-4,51,-21,-29,-14,-107,-117,-87,-63,-43
-43,-58,-14,51,-14,-36,-14,-107,-117,-92,-58,-43
-43,-58,-14,51,-14,-36,-19,-107,-122,-92,-58,-43
-43,-53,-9,48,-17,-31,-19,-112,-122,-92,-63,-43
-48,-53,-4,51,-21,-29,-19,-112,-126,-97,-63,-39
-53,-53,0,53,-26,-26,-14,-112,-126,-97,-63,-34
-48,-53,-4,51,-21,-29,-14,-112,-122,-97,-63,-39
-48,-53,-4,51,-21,-29,-14,-112,-122,-97,-68,-39
-43,-53,-9,48,-17,-31,-14,-112,-122,-97,-68,-39
-39,-48,-9,43,-14,-29,-14,-117,-122,-97,-68,-39
-39,-48,-9,43,-14,-29,-24,-117,-122,-97,-68,-39
-39,-53,-14,46,-12,-34,-24,-117,-122,-97,-68,-39
-43,-53,-9,48,-17,-31,-29,-117,-122,-97,-68,-39
-48,-53,-4,51,-21,-29,-29,-117,-122,-97,-68,-39
-48,-53,-4,51,-21,-29,-24,-117,-122,-102,-73,-39
-48,-53,-4,51,-21,-29,-24,-117,-122,-102,-73,-39
-48,-53,-4,51,-21,-29,-24,-117,-122,-102,-73,-39
-48,-53,-4,51,-21,-29,-24,-117,-122,-102,-68,-39
-43,-58,-14,51,-14,-36,-29,-117,-122,-97,-68,-39
-43,-63,-19,53,-12,-41,-34,-117,-126,-97,-73,-39
-43,-63,-19,53,-12,-41,-34,-122,-126,-97,-73,-39
-48,-68,-19,58,-14,-43,-34,-122,-122,-102,-73,-39
-53,-68,-14,61,-19,-41,-29,-122,-122,-102,-73,-43
-58,-68,-9,63,-24,-39,-29,-122,-122,-102,-73,-48
-58,-73,-14,65,-21,-43,-29,-122,-122,-102,-73,-48
-58,-78,-19,68,-19,-48,-29,-126,-122,-97,-73,-48
-58,-78,-19,68,-19,-48,-34,-126,-126,-102,-78,-48
-58,-78,-19,68,-19,-48,-39,-122,-126,-107,-78,-43
-63,-87,-24,75,-19,-56,-34,-117,-126,-112,-82,-48
-68,-87,-19,78,-24,-53,-34,-117,-122,-107,-82,-43
-73,-87,-14,80,-29,-51,-39,-117,-131,-107,-82,-48
-78,-87,-9,82,-34,-48,-48,-122,-136,-107,-87,-53
-87,-107,-19,97,-34,-63,-53,-131,-136,-112,-87,-58
-97,-122,-24,109,-36,-73,-58,-136,-136,-117,-87,-63
-102,-117,-14,109,-43,-65,-58,-141,-141,-122,-87,-63
-102,-117,-14,109,-43,-65,-63,-136,-146,-117,-82,-58
-102,-126,-24,114,-39,-75,-53,-136,-146,-117,-87,-63
-92,-122,-29,107,-31,-75,-53,-131,-141,-117,-87,-63
-92,-117,-24,104,-34,-70,-43,-126,-136,-112,-92,-63
-82,-107,-24,95,-29,-65,-43,-122,-126,-102,-87,-53
-68,-82,-14,75,-26,-48,-34,-112,-117,-92,-73,-43
-58,-58,0,58,-29,-29,-29,-107,-107,-87,-58,-39
-58,-39,19,48,-39,-9,-9,-92,-92,-78,-48,-29
-58,-19,39,39,-48,9,9,-78,-78,-68,-39,-19
-48,-4,43,26,-46,19,19,-63,-63,-53,-29,-9
-39,9,48,14,-43,29,29,-48,-48,-39,-19,0
-34,9,43,12,-39,26,34,-39,-43,-34,-14,0
-29,9,39,9,-34,24,39,-29,-39,-29,-9,0
-14,14,29,0,-21,21,39,-9,-24,-19,0,9
0,19,19,-9,-9,19,39,9,-9,-9,9,19
4,24,19,-14,-7,21,48,24,9,0,19,24
9,29,19,-19,-4,24,58,39,29,9,29,29
14,53,39,-34,-12,46,58,39,29,19,34,39
19,78,58,-48,-19,68,58,39,29,29,39,48
24,92,68,-58,-21,80,34,9,24,29,39,58
29,107,78,-68,-24,92,9,-19,19,29,39,68
29,87,58,-58,-14,73,-14,-48,-4,14,29,53
29,68,39,-48,-4,53,-39,-78,-29,0,19,39
29,68,39,-48,-4,53,-48,-82,-34,-4,19,39
29,68,39,-48,-4,53,-58,-87,-39,-9,19,39
43,78,34,-61,4,56,-63,-87,-48,-9,19,43
58,87,29,-73,14,58,-68,-87,-58,-9,19,48
63,102,39,-82,12,70,-68,-97,-58,-9,19,53
68,117,48,-92,9,82,-68,-107,-58,-9,19,58
68,126,58,-97,4,92,-68,-107,-58,-4,34,73
58,126,68,-92,-4,97,-63,-107,-53,0,43,78
53,131,78,-92,-12,104,-63,-107,-53,4,53,87
43,107,63,-75,-9,85,-63,-107,-53,0,43,73
29,82,53,-56,-12,68,-53,-122,-68,-19,24,58
9,53,43,-31,-17,48,-53,-126,-92,-53,-9,29
0,9,9,-4,-4,9,-53,-131,-107,-73,-39,0
-4,-9,-4,7,0,-7,-48,-131,-112,-82,-53,-14
-9,-34,-24,21,7,-29,-39,-126,-117,-92,-63,-34
-9,-39,-29,24,9,-34,-34,-117,-117,-92,-68,-39
-14,-43,-29,29,7,-36,-34,-117,-122,-97,-68,-43
-19,-43,-24,31,2,-34,-34,-117,-126,-102,-68,-43
-19,-48,-29,34,4,-39,-34,-112,-131,-107,-73,-48
-19,-53,-34,36,7,-43,-34,-112,-136,-112,-78,-53
-19,-53,-34,36,7,-43,-29,-117,-136,-112,-78,-53
-14,-53,-39,34,12,-46,-29,-117,-136,-107,-73,-53
-9,-58,-48,34,19,-53,-29,-112,-136,-102,-73,-48
-9,-63,-53,36,21,-58,-29,-107,-131,-102,-73,-43
-9,-63,-53,36,21,-58,-24,-107,-126,-102,-73,-43
-14,-63,-48,39,17,-56,-19,-107,-126,-102,-78,-43
-14,-63,-48,39,17,-56,-19,-107,-126,-102,-78,-43
-14,-58,-43,36,14,-51,-24,-107,-126,-102,-73,-43
-9,-58,-48,34,19,-53,-24,-102,-126,-102,-73,-43
-9,-58,-48,34,19,-53,-19,-102,-126,-102,-73,-43
-9,-58,-48,34,19,-53,-19,-102,-126,-102,-73,-43
-14,-58,-43,36,14,-51,-19,-102,-126,-102,-73,-43
-14,-63,-48,39,17,-56,-19,-102,-126,-102,-73,-43
-9,-68,-58,39,24,-63,-19,-102,-126,-97,-73,-43
-9,-63,-53,36,21,-58,-14,-102,-122,-97,-73,-43
-9,-63,-53,36,21,-58,-9,-97,-122,-97,-73,-43
-9,-63,-53,36,21,-58,-9,-97,-122,-102,-73,-48
-9,-63,-53,36,21,-58,-9,-97,-122,-107,-73,-53
-14,-58,-43,36,14,-51,-9,-97,-122,-102,-73,-53
-19,-58,-39,39,9,-48,-4,-97,-122,-102,-73,-48
-19,-58,-39,39,9,-48,-9,-102,-122,-102,-68,-48
-19,-58,-39,39,9,-48,-14,-107,-117,-102,-68,-48
-19,-58,-39,39,9,-48,-14,-102,-117,-102,-68,-48
-19,-58,-39,39,9,-48,-14,-102,-122,-102,-68,-48
-19,-58,-39,39,9,-48,-14,-102,-122,-102,-68,-43
-19,-58,-39,39,9,-48,-14,-102,-122,-97,-63,-43
-19,-58,-39,39,9,-48,-14,-102,-122,-97,-68,-43
-19,-53,-34,36,7,-43,-19,-102,-117,-92,-63,-39
-19,-53,-34,36,7,-43,-24,-102,-131,-102,-68,-43
-14,-58,-43,36,14,-51,-34,-92,-131,-102,-68,-48
-4,-73,-68,39,31,-70,-29,0,4,-43,-39,-39
-4,-68,-63,36,29,-65,-68,-24,87,14,9,-4
-9,-29,-19,19,4,-24,-92,-146,107,48,19,0
-14,63,78,-24,-46,70,-170,-395,58,175,175,146
-4,185,190,-90,-97,187,-283,-849,-185,341,468,434
39,331,292,-185,-126,312,-434,-1249,-458,507,810,775
170,561,390,-366,-109,475,-746,-1717,-678,814,1390,1356
248,790,541,-519,-146,666,-1073,-2210,-1068,834,1683,1732
209,1068,858,-639,-324,963,-1434,-2884,-1800,395,1444,1722
161,1273,1112,-717,-475,1193,-1639,-3323,-2396,-204,1019,1581
161,1010,849,-585,-344,929,-1600,-3308,-2928,-1176,78,1010
102,580,478,-341,-187,529,-1449,-3074,-3206,-2000,-888,283
53,375,322,-214,-134,348,-1195,-2449,-2669,-1893,-1039,-4
24,248,224,-136,-100,236,-839,-1659,-1834,-1434,-873,-78
24,170,146,-97,-61,158,-502,-961,-1058,-883,-556,-78
4,122,117,-63,-56,119,-278,-512,-580,-527,-346,-78
-9,43,53,-17,-31,48,-175,-351,-434,-409,-302,-141
-14,-53,-39,34,12,-46,-78,-185,-302,-317,-258,-185
-19,-53,-34,36,7,-43,-4,-48,-156,-224,-204,-175
-24,-48,-24,36,0,-36,48,53,-29,-117,-126,-136
-9,-48,-39,29,14,-43,68,92,43,-34,-53,-82
0,-48,-48,24,24,-48,82,122,68,0,-14,-63
9,-58,-68,24,39,-63,87,156,82,0,-24,-63
0,-68,-68,34,34,-68,87,175,97,4,-24,-73
0,-68,-68,34,34,-68,92,175,107,14,-14,-73
0,-73,-73,36,36,-73,102,180,112,24,-4,-68
4,-78,-82,36,43,-80,107,195,117,34,0,-63
4,-82,-87,39,46,-85,112,200,126,39,4,-58
0,-87,-87,43,43,-87,112,200,141,43,4,-58
0,-92,-92,46,46,-92,117,204,146,48,9,-58
0,-92,-92,46,46,-92,117,214,146,48,9,-58
0,-92,-92,46,46,-92,117,219,151,48,9,-58
0,-97,-97,48,48,-97,117,224,151,53,9,-58
0,-97,-97,48,48,-97,122,224,156,53,9,-58
-4,-97,-92,51,43,-95,122,234,161,58,9,-63
-4,-97,-92,51,43,-95,122,234,161,58,9,-68
0,-102,-102,51,51,-102,126,239,161,58,9,-68
0,-102,-102,51,51,-102,126,244,165,63,9,-68
-4,-102,-97,53,46,-100,126,244,170,63,9,-68
-4,-107,-102,56,48,-104,126,248,175,63,9,-63
-4,-107,-102,56,48,-104,131,248,175,68,9,-68
-4,-107,-102,56,48,-104,131,248,180,68,9,-68
-4,-107,-102,56,48,-104,131,253,185,68,9,-68
-4,-107,-102,56,48,-104,136,263,190,68,9,-68
-4,-107,-102,56,48,-104,136,268,195,73,9,-78
-4,-107,-102,56,48,-104,136,278,204,78,14,-82
-4,-107,-102,56,48,-104,136,287,204,82,14,-78
-9,-112,-102,61,46,-107,136,292,214,82,14,-78
-4,-112,-107,58,51,-109,141,302,224,82,14,-87
-4,-112,-107,58,51,-109,141,312,229,87,14,-87
-4,-107,-102,56,48,-104,141,312,234,82,14,-92
-4,-107,-102,56,48,-104,141,317,244,92,9,-92
-4,-107,-102,56,48,-104,146,331,253,97,9,-92
0,-102,-102,51,51,-102,146,341,263,102,9,-92
0,-107,-107,53,53,-107,146,361,263,102,9,-97
0,-107,-107,53,53,-107,151,375,263,107,9,-97
0,-107,-107,53,53,-107,156,385,283,117,14,-97
4,-102,-107,48,56,-104,156,405,297,122,14,-97
14,-102,-117,43,65,-109,170,429,307,131,19,-97
14,-102,-117,43,65,-109,170,448,322,141,19,-97
14,-107,-122,46,68,-114,180,468,341,151,19,-102
14,-107,-122,46,68,-114,190,488,361,161,24,-102
19,-107,-126,43,73,-117,195,507,385,161,24,-102
29,-102,-131,36,80,-117,200,531,400,170,29,-102
29,-97,-126,34,78,-112,204,556,414,180,34,-107
34,-92,-126,29,80,-109,209,585,434,195,34,-112
29,-82,-112,26,70,-97,214,614,468,209,39,-112
34,-78,-112,21,73,-95,219,649,488,219,39,-112
39,-68,-107,14,73,-87,229,678,512,234,39,-117
39,-63,-102,12,70,-82,234,717,541,258,48,-117
53,-48,-102,-2,78,-75,248,751,575,273,58,-112
63,-34,-97,-14,80,-65,258,785,610,292,63,-112
68,-24,-92,-21,80,-58,263,829,644,302,68,-112
78,-9,-87,-34,82,-48,278,868,683,322,68,-112
82,-4,-87,-39,85,-46,287,917,722,341,73,-117
82,4,-78,-43,80,-36,302,961,751,361,78,-117
92,19,-73,-56,82,-26,312,995,780,380,87,-117
102,43,-58,-73,80,-7,317,1019,819,395,92,-122
102,68,-34,-85,68,17,317,1054,849,419,92,-122
107,92,-14,-100,61,39,317,1078,878,434,102,-112
117,117,0,-117,58,58,317,1088,902,453,107,-112
122,141,19,-131,51,80,317,1102,927,463,117,-102
122,161,39,-141,41,100,322,1098,936,483,126,-102
122,185,63,-153,29,124,317,1088,936,492,131,-87
117,214,97,-165,9,156,302,1049,927,488,131,-78
117,244,126,-180,-4,185,302,1005,907,488,131,-68
117,263,146,-190,-14,204,283,941,873,478,131,-48
112,283,170,-197,-29,226,258,873,829,458,131,-39
107,287,180,-197,-36,234,239,795,780,434,131,-24
97,292,195,-195,-48,244,219,717,727,409,136,-9
97,297,200,-197,-51,248,190,639,653,390,126,0
87,297,209,-192,-61,253,165,546,585,366,122,14
78,283,204,-180,-63,244,141,468,517,322,112,24
68,258,190,-163,-61,224,131,395,453,283,107,39
53,234,180,-143,-63,207,102,322,385,248,107,43
48,209,161,-129,-56,185,73,253,312,219,102,48
48,190,141,-119,-46,165,53,195,253,185,92,53
43,156,112,-100,-34,134,43,136,195,151,87,58
34,136,102,-85,-34,119,34,97,146,126,78,53
34,117,82,-75,-24,100,19,58,102,102,63,48
24,87,63,-56,-19,75,9,19,68,73,53,53
24,68,43,-46,-9,56,0,-9,34,53,43,53
14,43,29,-29,-7,36,-9,-24,0,34,34,53
9,24,14,-17,-2,19,-9,-39,-14,14,19,43
4,19,14,-12,-4,17,-14,-58,-39,0,9,34
0,9,9,-4,-4,9,-24,-73,-48,-9,4,29
-4,-4,0,4,-2,-2,-29,-78,-58,-19,0,29
-4,-9,-4,7,0,-7,-29,-78,-68,-29,-4,24
-4,-9,-4,7,0,-7,-29,-82,-68,-34,-9,24
-4,-14,-9,9,2,-12,-29,-87,-73,-34,-14,29
-9,-24,-14,17,2,-19,-24,-87,-82,-39,-14,24
-9,-29,-19,19,4,-24,-19,-87,-92,-48,-19,19
-9,-34,-24,21,7,-29,-19,-87,-92,-48,-19,14
-14,-34,-19,24,2,-26,-19,-87,-92,-48,-19,9
-14,-39,-24,26,4,-31,-19,-87,-87,-48,-19,9
-9,-39,-29,24,9,-34,-19,-87,-82,-48,-19,9
-9,-34,-24,21,7,-29,-19,-82,-82,-48,-19,9
-9,-34,-24,21,7,-29,-19,-82,-82,-53,-24,4
-14,-34,-19,24,2,-26,-19,-82,-78,-53,-24,4
-14,-34,-19,24,2,-26,-19,-82,-78,-53,-24,0
-9,-34,-24,21,7,-29,-19,-78,-73,-53,-19,0
-9,-39,-29,24,9,-34,-14,-78,-73,-48,-14,0
-9,-39,-29,24,9,-34,-9,-73,-73,-43,-14,0
-14,-43,-29,29,7,-36,-9,-73,-68,-43,-14,0
-14,-43,-29,29,7,-36,-14,-73,-68,-43,-19,0
-14,-43,-29,29,7,-36,-14,-68,-68,-48,-24,-4
-14,-43,-29,29,7,-36,-14,-68,-68,-48,-24,-4
-14,-43,-29,29,7,-36,-9,-68,-63,-43,-24,-4
-19,-48,-29,34,4,-39,-9,-68,-63,-43,-24,-4
-19,-48,-29,34,4,-39,-9,-68,-68,-48,-24,-4
-19,-48,-29,34,4,-39,-9,-68,-68,-48,-19,-4
-19,-53,-34,36,7,-43,-9,-68,-68,-48,-14,-4
-19,-53,-34,36,7,-43,-4,-68,-68,-48,-19,-4
-19,-53,-34,36,7,-43,-4,-68,-68,-48,-19,-4
-19,-53,-34,36,7,-43,-4,-68,-68,-48,-29,-9
-19,-53,-34,36,7,-43,-4,-73,-73,-48,-39,-14
-19,-53,-34,36,7,-43,-9,-73,-73,-53,-39,-14
-19,-43,-24,31,2,-34,-9,-78,-73,-53,-39,-14
-19,-43,-24,31,2,-34,-9,-78,-78,-53,-34,-9
-24,-48,-24,36,0,-36,-9,-82,-82,-58,-29,-4
-29,-58,-29,43,0,-43,-9,-82,-82,-58,-29,-9
-29,-58,-29,43,0,-43,-9,-82,-82,-63,-29,-9
-29,-58,-29,43,0,-43,-9,-87,-87,-63,-34,-14
-29,-53,-24,41,-2,-39,-9,-87,-87,-63,-34,-14
-29,-53,-24,41,-2,-39,-4,-87,-92,-68,-39,-9
-34,-48,-14,41,-9,-31,0,-92,-92,-68,-39,-9
-34,-48,-14,41,-9,-31,0,-92,-97,-73,-43,-14
-34,-53,-19,43,-7,-36,-4,-97,-97,-73,-43,-14
-34,-63,-29,48,-2,-46,-4,-97,-97,-68,-39,-14
-34,-68,-34,51,0,-51,-9,-97,-102,-63,-39,-14
-34,-63,-29,48,-2,-46,-9,-102,-102,-63,-43,-14
-34,-63,-29,48,-2,-46,-9,-102,-107,-68,-43,-14
-34,-63,-29,48,-2,-46,-4,-97,-107,-68,-43,-14
-29,-63,-34,46,2,-48,-4,-97,-102,-68,-39,-19
-29,-63,-34,46,2,-48,-4,-102,-107,-68,-43,-19
-29,-63,-34,46,2,-48,-4,-102,-112,-68,-48,-19
-29,-53,-24,41,-2,-39,-9,-107,-112,-68,-48,-19
-29,-48,-19,39,-4,-34,-24,-107,-112,-68,-48,-19
-29,-48,-19,39,-4,-34,-24,-107,-112,-73,-48,-19
-29,-43,-14,36,-7,-29,-29,-107,-112,-78,-48,-19
-29,-43,-14,36,-7,-29,-29,-107,-112,-78,-48,-19
-29,-43,-14,36,-7,-29,-24,-107,-112,-82,-53,-19
-29,-43,-14,36,-7,-29,-24,-107,-112,-82,-53,-19
-29,-43,-14,36,-7,-29,-24,-107,-112,-82,-53,-19
-29,-48,-19,39,-4,-34,-24,-107,-112,-82,-43,-14
-24,-53,-29,39,2,-41,-24,-107,-112,-78,-39,-9
-24,-53,-29,39,2,-41,-24,-107,-112,-73,-43,-9
-24,-53,-29,39,2,-41,-24,-112,-107,-68,-43,-9
-29,-58,-29,43,0,-43,-24,-112,-102,-73,-43,-9
-29,-58,-29,43,0,-43,-19,-112,-102,-73,-43,-9
-29,-58,-29,43,0,-43,-19,-112,-102,-78,-53,-19
-29,-58,-29,43,0,-43,-19,-107,-102,-82,-63,-29
-29,-58,-29,43,0,-43,-19,-112,-102,-78,-63,-29
-29,-58,-29,43,0,-43,-19,-117,-102,-78,-63,-29
-29,-58,-29,43,0,-43,-19,-112,-102,-78,-53,-19
-29,-58,-29,43,0,-43,-14,-107,-107,-78,-48,-14
-29,-48,-19,39,-4,-34,-24,-107,-102,-68,-43,-4
-29,-48,-19,39,-4,-34,-29,-102,-102,-68,-39,-4
-24,-39,-14,31,-4,-26,-19,-102,-97,-68,-39,-14
-19,-34,-14,26,-2,-24,-9,-102,-97,-68,-39,-24
-19,-34,-14,26,-2,-24,-9,-97,-97,-63,-34,-14
-19,-19,0,19,-9,-9,0,-92,-87,-53,-24,-4
-19,0,19,9,-19,9,9,-73,-78,-39,-14,0
-24,14,39,4,-31,26,24,-63,-68,-34,-9,4
-14,24,39,-4,-26,31,24,-53,-48,-29,0,14
-9,29,39,-9,-24,34,34,-48,-39,-14,9,24
0,24,24,-12,-12,24,34,-34,-34,-14,9,19
4,24,19,-14,-7,21,34,-24,-34,-14,9,19
9,39,29,-24,-9,34,43,-9,-19,0,14,29
19,58,39,-39,-9,48,58,0,-9,9,19,39
24,58,34,-41,-4,46,68,19,4,14,29,39
29,58,29,-43,0,43,78,39,19,19,39,39
29,82,53,-56,-12,68,58,29,19,29,48,53
29,107,78,-68,-24,92,39,19,19,39,58,68
29,107,78,-68,-24,92,19,-9,14,39,58,68
29,107,78,-68,-24,92,0,-39,9,39,58,68
24,97,73,-61,-24,85,-9,-58,-9,24,48,68
19,87,68,-53,-24,78,-19,-78,-29,9,39,68
19,87,68,-53,-24,78,-29,-78,-34,4,34,68
19,87,68,-53,-24,78,-39,-78,-39,0,29,68
34,92,58,-63,-12,75,-53,-78,-39,0,29,68
48,97,48,-73,0,73,-68,-78,-39,0,29,68
48,107,58,-78,-4,82,-68,-92,-43,0,39,73
48,117,68,-82,-9,92,-68,-107,-48,0,48,78
43,117,73,-80,-14,95,-68,-112,-53,0,48,82
39,117,78,-78,-19,97,-68,-117,-58,0,48,87
29,112,82,-70,-26,97,-68,-117,-58,0,48,82
14,82,68,-48,-26,75,-63,-117,-63,-9,34,68
4,58,53,-31,-24,56,-63,-117,-73,-19,24,53
-9,24,34,-7,-21,29,-53,-131,-87,-39,4,39
-29,4,34,12,-31,19,-53,-136,-112,-73,-29,9
-39,-24,14,31,-26,-4,-53,-141,-122,-87,-48,-14
-39,-39,0,39,-19,-19,-48,-141,-122,-87,-53,-14
-39,-63,-24,51,-7,-43,-39,-136,-126,-92,-63,-19
-39,-68,-29,53,-4,-48,-34,-126,-126,-92,-68,-19
-39,-73,-34,56,-2,-53,-34,-126,-126,-92,-68,-24
-39,-73,-34,56,-2,-53,-39,-126,-126,-92,-73,-34
-39,-78,-39,58,0,-58,-43,-122,-131,-97,-82,-48
-39,-78,-39,58,0,-58,-43,-122,-136,-102,-87,-53
-43,-73,-29,58,-7,-51,-39,-126,-136,-102,-87,-53
-43,-73,-29,58,-7,-51,-39,-126,-136,-97,-82,-53
-39,-78,-39,58,0,-58,-39,-122,-136,-97,-82,-53
-39,-82,-43,61,2,-63,-34,-117,-131,-102,-78,-48
-39,-82,-43,61,2,-63,-24,-117,-126,-102,-73,-43
-43,-82,-39,63,-2,-61,-19,-117,-126,-102,-78,-43
-43,-82,-39,63,-2,-61,-19,-117,-126,-102,-78,-43
-43,-78,-34,61,-4,-56,-24,-117,-126,-102,-82,-43
-39,-78,-39,58,0,-58,-24,-112,-126,-102,-92,-43
-39,-78,-39,58,0,-58,-19,-112,-122,-102,-82,-43
-39,-78,-39,58,0,-58,-19,-112,-117,-102,-73,-43
-43,-73,-29,58,-7,-51,-19,-112,-117,-102,-73,-48
-43,-68,-24,56,-9,-46,-19,-112,-117,-102,-73,-53
-39,-68,-29,53,-4,-48,-24,-112,-122,-97,-73,-53
-39,-63,-24,51,-7,-43,-29,-112,-122,-97,-73,-53
-39,-63,-24,51,-7,-43,-29,-107,-122,-97,-73,-53
-39,-63,-24,51,-7,-43,-29,-107,-122,-97,-73,-53
-39,-68,-29,53,-4,-48,-29,-107,-122,-97,-73,-48
-39,-68,-29,53,-4,-48,-29,-107,-122,-92,-73,-43
-39,-68,-29,53,-4,-48,-24,-107,-122,-92,-73,-39
-39,-68,-29,53,-4,-48,-24,-107,-122,-92,-68,-39
-39,-68,-29,53,-4,-48,-19,-107,-117,-87,-63,-39
-39,-68,-29,53,-4,-48,-14,-102,-112,-82,-58,-39
-34,-68,-34,51,0,-51,-14,-97,-112,-82,-58,-39
-29,-68,-39,48,4,-53,-14,-92,-112,-82,-58,-34
-29,-68,-39,48,4,-53,-19,-92,-112,-82,-58,-39
-29,-68,-39,48,4,-53,-24,-92,-112,-87,-63,-43
-29,-63,-34,46,2,-48,-29,-92,-107,-82,-53,-39
-24,-63,-39,43,7,-51,-34,-82,-97,-78,-48,-34
-14,-68,-53,41,19,-61,-39,-53,-68,-63,-34,-24
-4,-68,-63,36,29,-65,-39,0,48,9,19,4
-4,-34,-29,19,12,-31,-82,-63,141,117,102,73
-4,48,53,-21,-29,51,-122,-234,156,229,214,185
-4,190,195,-92,-100,192,-214,-551,117,444,492,453
14,366,351,-190,-168,358,-356,-1024,-78,678,868,834
48,551,502,-300,-226,527,-531,-1459,-361,844,1234,1220
117,785,668,-451,-275,727,-834,-1986,-697,941,1586,1634
131,1015,883,-573,-375,949,-1146,-2537,-1254,707,1605,1800
63,1176,1112,-619,-524,1144,-1395,-3074,-2005,63,1102,1571
-9,1185,1195,-588,-602,1190,-1473,-3328,-2562,-692,439,1195
-39,785,824,-373,-431,805,-1342,-3123,-2869,-1493,-429,561
-97,287,385,-95,-241,336,-1146,-2698,-2923,-2103,-1239,-141
-102,112,214,-4,-158,163,-902,-2010,-2274,-1795,-1176,-312
-78,53,131,12,-104,92,-561,-1180,-1346,-1161,-819,-244
-43,24,68,9,-56,46,-322,-644,-771,-717,-541,-204
-48,19,68,14,-58,43,-185,-366,-473,-458,-361,-175
-53,0,53,26,-53,26,-112,-244,-346,-341,-292,-180
-43,-63,-19,53,-12,-41,-29,-107,-234,-258,-248,-190
-34,-63,-29,48,-2,-46,24,4,-102,-165,-185,-161
-34,-63,-29,48,-2,-46,53,82,9,-68,-97,-107
-19,-68,-48,43,14,-58,68,117,63,-19,-43,-68
-9,-73,-63,41,26,-68,82,141,68,0,-24,-63
0,-87,-87,43,43,-87,87,165,82,9,-34,-63
-9,-97,-87,53,39,-92,87,175,97,14,-34,-68
-9,-97,-87,53,39,-92,92,175,107,24,-24,-63
-9,-102,-92,56,41,-97,102,180,112,34,-9,-58
-4,-102,-97,53,46,-100,102,195,117,39,-4,-58
-4,-97,-92,51,43,-95,97,195,126,34,-4,-58
-9,-97,-87,53,39,-92,92,190,136,34,-4,-58
-4,-97,-92,51,43,-95,97,195,136,39,0,-63
0,-92,-92,46,46,-92,97,200,136,39,0,-68
0,-92,-92,46,46,-92,97,200,141,39,0,-68
0,-97,-97,48,48,-97,97,204,141,43,0,-68
0,-97,-97,48,48,-97,102,204,146,43,-9,-73
-4,-97,-92,51,43,-95,102,214,151,48,-19,-78
-4,-97,-92,51,43,-95,102,214,151,48,-19,-78
0,-102,-102,51,51,-102,107,219,151,48,-19,-78
0,-102,-102,51,51,-102,102,224,151,53,-14,-78
0,-102,-102,51,51,-102,97,224,151,53,-9,-82
0,-112,-112,56,56,-112,97,229,156,48,-9,-82
-4,-117,-112,61,53,-114,102,234,156,48,-9,-87
-4,-117,-112,61,53,-114,102,239,161,48,-9,-87
-4,-117,-112,61,53,-114,102,244,165,48,-9,-87
0,-117,-117,58,58,-117,102,253,170,48,-9,-87
4,-117,-122,56,63,-119,97,258,175,53,-9,-92
4,-117,-122,56,63,-119,97,268,180,58,-9,-92
9,-112,-122,51,65,-117,102,278,175,63,-14,-87
4,-112,-117,53,61,-114,107,283,185,63,-14,-87
4,-112,-117,53,61,-114,112,292,195,63,-14,-97
4,-112,-117,53,61,-114,112,302,200,68,-14,-97
4,-112,-117,53,61,-114,112,307,204,68,-9,-102
9,-112,-122,51,65,-117,112,317,214,82,-9,-102
14,-107,-122,46,68,-114,117,331,224,87,-9,-102
19,-102,-122,41,70,-112,117,341,234,92,-9,-102
19,-102,-122,41,70,-112,117,361,244,92,-9,-107
19,-97,-117,39,68,-107,122,370,253,97,-9,-107
19,-97,-117,39,68,-107,126,375,273,107,-4,-107
24,-92,-117,34,70,-104,122,395,287,112,-4,-107
34,-92,-126,29,80,-109,131,419,297,122,0,-107
39,-92,-131,26,85,-112,131,444,312,131,4,-102
43,-92,-136,24,90,-114,141,468,331,141,9,-102
43,-87,-131,21,87,-109,151,488,351,156,14,-102
48,-87,-136,19,92,-112,156,512,375,161,14,-102
58,-87,-146,14,102,-117,165,541,390,170,19,-107
58,-87,-146,14,102,-117,175,566,409,180,24,-117
68,-82,-151,7,109,-117,180,600,434,195,24,-122
73,-73,-146,0,109,-109,185,634,468,209,29,-122
82,-68,-151,-7,117,-109,190,668,488,214,29,-122
87,-58,-146,-14,117,-102,200,702,517,224,29,-126
87,-53,-141,-17,114,-97,204,746,541,244,29,-136
97,-43,-141,-26,119,-92,219,780,566,253,29,-146
107,-29,-136,-39,122,-82,229,814,600,273,43,-141
117,-14,-131,-51,124,-73,234,858,634,287,58,-131
126,0,-126,-63,126,-63,248,897,673,312,58,-131
136,9,-126,-73,131,-58,258,936,712,331,63,-136
141,24,-117,-82,129,-46,263,961,732,346,53,-136
151,39,-112,-95,131,-36,263,985,751,361,48,-136
161,53,-107,-107,134,-26,278,1019,800,375,63,-141
161,63,-97,-112,129,-17,287,1058,834,395,73,-141
165,78,-87,-122,126,-4,287,1078,858,405,82,-131
170,97,-73,-134,122,12,287,1083,878,424,87,-131
170,122,-48,-146,109,36,283,1088,897,434,87,-126
170,146,-24,-158,97,61,278,1063,897,444,82,-131
170,180,9,-175,80,95,268,1039,888,444,82,-126
165,214,48,-190,58,131,248,995,873,439,82,-126
161,244,82,-202,39,163,244,946,849,434,78,-122
151,263,112,-207,19,187,224,878,810,414,73,-107
141,287,146,-214,-2,217,204,805,761,390,73,-97
136,297,161,-217,-12,229,190,727,707,366,68,-82
117,302,185,-209,-34,244,170,644,649,346,68,-68
102,302,200,-202,-48,251,141,561,575,322,58,-58
87,297,209,-192,-61,253,122,468,512,287,53,-43
78,278,200,-178,-61,239,102,395,448,253,48,-34
63,248,185,-156,-61,217,92,331,395,239,58,-9
48,224,175,-136,-63,200,68,268,341,219,68,4
48,209,161,-129,-56,185,43,204,273,190,68,14
48,200,151,-124,-51,175,24,156,219,161,68,24
43,170,126,-107,-41,148,9,107,170,136,73,34
34,156,122,-95,-43,139,-4,68,131,117,68,39
34,136,102,-85,-34,119,-19,29,92,92,53,39
24,112,87,-68,-31,100,-24,0,58,63,43,43
24,97,73,-61,-24,85,-29,-19,24,43,34,43
19,78,58,-48,-19,68,-39,-34,-4,29,29,43
19,63,43,-41,-12,53,-34,-48,-9,14,19,34
14,58,43,-36,-14,51,-29,-63,-29,0,9,24
9,48,39,-29,-14,43,-34,-73,-39,-9,4,19
4,34,29,-19,-12,31,-39,-78,-48,-19,0,19
4,19,14,-12,-4,17,-39,-78,-63,-29,-4,14
4,9,4,-7,0,7,-39,-82,-68,-34,-9,9
9,14,4,-12,2,9,-39,-87,-73,-34,-14,9
9,19,9,-14,0,14,-39,-87,-78,-34,-14,4
9,19,9,-14,0,14,-39,-87,-82,-43,-19,0
9,14,4,-12,2,9,-39,-87,-82,-48,-19,0
0,14,14,-7,-7,14,-39,-87,-82,-48,-19,0
-4,9,14,-2,-9,12,-39,-87,-82,-48,-19,0
0,9,9,-4,-4,9,-39,-87,-82,-48,-19,0
0,9,9,-4,-4,9,-39,-82,-82,-48,-19,0
0,0,0,0,0,0,-39,-82,-82,-48,-24,0
-4,-4,0,4,-2,-2,-39,-82,-78,-43,-24,4
-4,-4,0,4,-2,-2,-39,-82,-78,-43,-24,0
0,-4,-4,2,2,-4,-39,-78,-73,-43,-24,0
0,-4,-4,2,2,-4,-34,-78,-73,-43,-24,0
0,0,0,0,0,0,-29,-73,-73,-43,-24,0
-4,-4,0,4,-2,-2,-24,-73,-68,-43,-24,-4
-4,-4,0,4,-2,-2,-24,-73,-68,-43,-24,-9
0,-4,-4,2,2,-4,-24,-68,-68,-48,-24,-14
4,-4,-9,0,7,-7,-24,-68,-68,-48,-24,-14
4,-4,-9,0,7,-7,-19,-68,-63,-43,-24,-14
0,-9,-9,4,4,-9,-19,-68,-63,-43,-24,-14
-4,-9,-4,7,0,-7,-19,-68,-68,-48,-24,-14
-9,-9,0,9,-4,-4,-19,-68,-68,-48,-24,-19
-14,-14,0,14,-7,-7,-19,-73,-68,-48,-24,-24
-19,-14,4,17,-12,-4,-14,-78,-68,-48,-29,-24
-19,-14,4,17,-12,-4,-19,-78,-68,-48,-24,-19
-19,-14,4,17,-12,-4,-24,-78,-68,-48,-24,-14
-19,-14,4,17,-12,-4,-24,-82,-73,-48,-29,-14
-19,-14,4,17,-12,-4,-29,-82,-73,-53,-29,-14
-19,-4,14,12,-17,4,-24,-87,-73,-53,-29,-14
-19,-4,14,12,-17,4,-19,-87,-78,-53,-29,-14
-19,-9,9,14,-14,0,-19,-92,-82,-58,-34,-14
-19,-19,0,19,-9,-9,-19,-92,-82,-58,-39,-19
-19,-19,0,19,-9,-9,-19,-92,-82,-63,-39,-24
-19,-19,0,19,-9,-9,-19,-97,-87,-63,-43,-34
-24,-19,4,21,-14,-7,-19,-97,-87,-63,-43,-34
-24,-24,0,24,-12,-12,-19,-97,-92,-68,-48,-29
-24,-19,4,21,-14,-7,-19,-102,-92,-68,-48,-29
-24,-19,4,21,-14,-7,-19,-102,-97,-73,-53,-34
-24,-19,4,21,-14,-7,-24,-107,-97,-73,-53,-34
-24,-19,4,21,-14,-7,-24,-107,-97,-73,-48,-34
-24,-19,4,21,-14,-7,-29,-107,-102,-73,-43,-29
-24,-14,9,19,-17,-2,-29,-112,-102,-73,-43,-24
-24,-19,4,21,-14,-7,-29,-107,-107,-78,-43,-24
-24,-24,0,24,-12,-12,-24,-102,-107,-78,-43,-24
-19,-24,-4,21,-7,-14,-24,-107,-102,-78,-39,-29
-19,-24,-4,21,-7,-14,-24,-112,-102,-78,-39,-29
-19,-24,-4,21,-7,-14,-19,-112,-102,-78,-39,-29
-19,-19,0,19,-9,-9,-14,-117,-102,-78,-39,-29
-19,-14,4,17,-12,-4,-24,-117,-102,-78,-39,-29
-19,-14,4,17,-12,-4,-24,-117,-102,-78,-39,-29
-19,-14,4,17,-12,-4,-29,-117,-102,-78,-43,-29
-19,-14,4,17,-12,-4,-29,-117,-102,-78,-48,-29
-19,-14,4,17,-12,-4,-24,-117,-102,-78,-53,-29
-19,-14,4,17,-12,-4,-24,-117,-102,-73,-53,-29
-14,-14,0,14,-7,-7,-24,-117,-102,-73,-53,-29
-9,-14,-4,12,-2,-9,-24,-117,-102,-73,-48,-29
-4,-9,-4,7,0,-7,-29,-112,-102,-68,-48,-29
-4,-4,0,4,-2,-2,-34,-107,-107,-68,-53,-29
-4,-4,0,4,-2,-2,-34,-112,-107,-68,-53,-29
-9,-9,0,9,-4,-4,-34,-112,-102,-73,-53,-29
-9,-9,0,9,-4,-4,-24,-112,-102,-73,-53,-29
-9,-9,0,9,-4,-4,-19,-112,-102,-73,-53,-29
-9,-4,4,7,-7,0,-14,-102,-97,-68,-43,-24
-9,0,9,4,-9,4,-9,-97,-92,-58,-34,-19
-9,14,24,-2,-17,19,0,-92,-82,-48,-29,-14
-9,29,39,-9,-24,34,9,-82,-68,-39,-19,-4
-4,39,43,-17,-24,41,19,-68,-63,-39,-19,-4
0,58,58,-29,-29,58,24,-58,-53,-29,-14,4
4,58,53,-31,-24,56,29,-48,-48,-24,-4,9
9,58,48,-34,-19,53,29,-43,-39,-19,0,14
14,53,39,-34,-12,46,29,-39,-34,-14,0,19
19,53,34,-36,-7,43,29,-29,-29,-9,0,24
24,63,39,-43,-7,51,39,-9,-14,-4,9,24
34,68,34,-51,0,51,43,19,0,9,24,29
34,73,39,-53,-2,56,53,14,9,14,29,34
43,92,48,-68,-2,70,53,14,24,19,39,43
34,102,68,-68,-17,85,43,4,24,29,43,48
34,117,82,-75,-24,100,24,-4,29,43,58,63
29,117,87,-73,-29,102,0,-43,9,29,48,58
29,117,87,-73,-29,102,-19,-87,-9,19,39,58
29,102,73,-65,-21,87,-39,-92,-24,9,34,48
29,87,58,-58,-14,73,-58,-97,-39,0,29,39
34,102,68,-68,-17,85,-58,-97,-43,0,29,48
39,117,78,-78,-19,97,-58,-97,-48,0,29,58
43,117,73,-80,-14,95,-63,-102,-53,0,29,58
48,117,68,-82,-9,92,-68,-107,-58,0,29,58
48,131,82,-90,-17,107,-68,-122,-63,0,34,68
48,146,97,-97,-24,122,-68,-136,-68,0,39,78
48,146,97,-97,-24,122,-68,-136,-68,0,39,78
39,136,97,-87,-29,117,-63,-136,-68,-4,34,73
29,126,97,-78,-34,112,-63,-136,-73,-9,29,68
14,87,73,-51,-29,80,-63,-136,-82,-29,4,43
0,58,58,-29,-29,58,-53,-146,-97,-48,-14,29
-19,24,43,-2,-31,34,-53,-146,-122,-82,-48,0
-24,-14,9,19,-17,-2,-53,-151,-131,-92,-63,-24
-24,-29,-4,26,-9,-17,-48,-151,-131,-92,-63,-34
-29,-53,-24,41,-2,-39,-39,-146,-136,-102,-73,-48
-29,-58,-29,43,0,-43,-34,-136,-136,-102,-78,-48
-34,-63,-29,48,-2,-46,-34,-136,-136,-102,-73,-48
-39,-63,-24,51,-7,-43,-34,-136,-136,-102,-68,-43
-39,-63,-24,51,-7,-43,-34,-131,-136,-107,-73,-48
-39,-63,-24,51,-7,-43,-34,-131,-136,-112,-78,-53
-43,-63,-19,53,-12,-41,-24,-136,-136,-112,-82,-53
-43,-63,-19,53,-12,-41,-19,-136,-136,-107,-82,-53
-39,-68,-29,53,-4,-48,-19,-131,-141,-107,-82,-58
-39,-73,-34,56,-2,-53,-19,-126,-141,-112,-82,-63
-39,-78,-39,58,0,-58,-14,-126,-136,-112,-82,-63
-43,-82,-39,63,-2,-61,-9,-126,-136,-112,-87,-63
-43,-82,-39,63,-2,-61,-9,-126,-136,-112,-87,-63
-43,-78,-34,61,-4,-56,-14,-126,-136,-112,-82,-63
-39,-78,-39,58,0,-58,-19,-122,-136,-112,-82,-63
-39,-78,-39,58,0,-58,-19,-122,-136,-112,-82,-63
-39,-78,-39,58,0,-58,-19,-122,-136,-112,-82,-63
-43,-78,-34,61,-4,-56,-19,-122,-136,-112,-82,-63
-43,-78,-34,61,-4,-56,-19,-122,-136,-112,-82,-63
-39,-78,-39,58,0,-58,-19,-122,-136,-107,-82,-63
-39,-68,-29,53,-4,-48,-19,-122,-131,-107,-82,-63
-39,-63,-24,51,-7,-43,-19,-117,-131,-107,-82,-63
-39,-63,-24,51,-7,-43,-19,-117,-131,-107,-82,-68
-39,-63,-24,51,-7,-43,-19,-117,-131,-107,-82,-73
-39,-58,-19,48,-9,-39,-19,-117,-131,-102,-82,-73
-39,-58,-19,48,-9,-39,-14,-117,-131,-102,-82,-68
-39,-58,-19,48,-9,-39,-14,-117,-131,-102,-78,-63
-39,-58,-19,48,-9,-39,-14,-117,-126,-102,-78,-58
-39,-58,-19,48,-9,-39,-14,-112,-122,-102,-78,-58
-39,-58,-19,48,-9,-39,-14,-112,-122,-102,-78,-58
-39,-58,-19,48,-9,-39,-14,-112,-122,-102,-78,-53
-39,-58,-19,48,-9,-39,-14,-112,-122,-97,-73,-53
-39,-58,-19,48,-9,-39,-14,-112,-122,-97,-73,-53
-39,-53,-14,46,-12,-34,-19,-112,-117,-92,-63,-48
-34,-58,-24,46,-4,-41,-19,-102,-107,-92,-63,-48
-24,-68,-43,46,9,-56,-24,-82,-82,-82,-58,-48
-9,-73,-63,41,26,-68,-24,-9,39,-9,-9,-29
-4,-58,-53,31,24,-56,-68,-53,107,63,58,14
-4,0,4,2,-4,2,-102,-190,92,131,126,82
-4,112,117,-53,-61,114,-190,-453,9,292,341,292
14,253,239,-134,-112,246,-307,-883,-214,512,707,639
68,419,351,-244,-141,385,-463,-1259,-468,732,1122,1039
156,658,502,-407,-173,580,-775,-1737,-746,941,1605,1546
190,897,707,-544,-258,802,-1102,-2239,-1195,863,1800,1849
141,1122,980,-631,-419,1051,-1410,-2845,-1942,287,1395,1727
82,1273,1190,-678,-553,1232,-1561,-3215,-2552,-448,805,1473
68,951,883,-509,-407,917,-1488,-3128,-2991,-1390,-146,854
-4,463,468,-229,-236,466,-1302,-2820,-3176,-2186,-1122,78
-29,268,297,-119,-163,283,-1039,-2171,-2518,-1903,-1122,-126
-34,151,185,-58,-109,168,-673,-1356,-1561,-1268,-805,-117
-24,92,117,-34,-70,104,-400,-766,-883,-771,-517,-117
-34,63,97,-14,-65,80,-239,-424,-502,-468,-336,-117
-43,9,53,17,-48,31,-141,-292,-375,-361,-292,-165
-43,-63,-19,53,-12,-41,-48,-156,-263,-278,-248,-195
-43,-63,-19,53,-12,-41,4,-34,-122,-180,-185,-170
-43,-58,-14,51,-14,-36,39,53,0,-68,-97,-117
-24,-58,-34,41,4,-46,63,87,58,-4,-43,-78
-9,-58,-48,34,19,-53,82,112,68,9,-24,-73
0,-68,-68,34,34,-68,87,136,82,9,-34,-73
-9,-78,-68,43,29,-73,87,146,97,14,-34,-82
-9,-78,-68,43,29,-73,92,146,107,24,-24,-82
-9,-82,-73,46,31,-78,102,151,112,34,-14,-78
-4,-82,-78,43,36,-80,102,165,117,39,-9,-73
-4,-82,-78,43,36,-80,102,170,126,39,-4,-68
-9,-87,-78,48,34,-82,102,170,136,48,-4,-68
-9,-92,-82,51,36,-87,107,175,136,58,0,-68
-9,-92,-82,51,36,-87,107,180,136,58,0,-68
-9,-92,-82,51,36,-87,107,180,141,58,0,-68
-9,-97,-87,53,39,-92,107,185,141,58,0,-73
-9,-97,-87,53,39,-92,112,185,146,53,0,-78
-14,-97,-82,56,34,-90,112,195,156,58,0,-78
-14,-97,-82,56,34,-90,112,195,161,58,0,-78
-9,-102,-92,56,41,-97,117,200,161,58,0,-78
-9,-102,-92,56,41,-97,117,204,165,63,0,-78
-9,-97,-87,53,39,-92,117,209,170,63,0,-82
-4,-97,-92,51,43,-95,117,219,175,63,0,-82
-4,-97,-92,51,43,-95,122,224,175,73,0,-82
-4,-97,-92,51,43,-95,122,229,180,78,0,-78
-4,-102,-97,53,46,-100,122,229,185,78,0,-78
-4,-107,-102,56,48,-104,126,234,190,78,0,-78
-4,-107,-102,56,48,-104,126,239,195,82,0,-82
-4,-107,-102,56,48,-104,126,248,204,87,4,-82
0,-102,-102,51,51,-102,131,258,204,92,4,-78
0,-102,-102,51,51,-102,136,263,214,92,4,-78
4,-102,-107,48,56,-104,141,273,224,92,0,-87
4,-102,-107,48,56,-104,141,283,229,97,-4,-87
4,-102,-107,48,56,-104,141,287,234,92,0,-92
4,-107,-112,51,58,-109,141,297,244,102,0,-92
4,-107,-112,51,58,-109,146,312,253,107,4,-92
9,-102,-112,46,61,-107,146,322,263,112,9,-92
9,-102,-112,46,61,-107,146,341,273,112,9,-102
9,-97,-107,43,58,-102,151,356,283,117,9,-107
9,-97,-107,43,58,-102,156,366,302,126,9,-107
14,-92,-107,39,61,-100,156,385,317,131,4,-107
24,-92,-117,34,70,-104,170,409,322,141,9,-107
24,-92,-117,34,70,-104,170,429,331,151,9,-107
19,-92,-112,36,65,-102,180,448,351,161,9,-112
14,-87,-102,36,58,-95,190,468,370,170,14,-112
19,-87,-107,34,63,-97,195,492,395,170,14,-112
29,-82,-112,26,70,-97,200,522,409,180,19,-112
29,-78,-107,24,68,-92,209,546,429,190,24,-112
34,-73,-107,19,70,-90,219,575,453,204,24,-112
34,-63,-97,14,65,-80,229,605,492,229,34,-112
43,-58,-102,7,73,-80,239,639,517,248,39,-112
48,-43,-92,-2,70,-68,248,668,546,253,39,-117
48,-34,-82,-7,65,-58,253,707,580,268,48,-117
58,-24,-82,-17,70,-53,268,741,614,283,58,-117
63,-14,-78,-24,70,-46,278,775,649,302,63,-122
68,-4,-73,-31,70,-39,278,819,688,317,68,-122
78,9,-68,-43,73,-29,287,858,732,341,68,-122
87,19,-68,-53,78,-24,297,902,775,361,73,-126
92,34,-58,-63,75,-12,312,941,810,380,78,-126
102,48,-53,-75,78,-2,322,976,839,405,87,-126
112,73,-39,-92,75,17,326,1000,878,424,92,-131
112,92,-19,-102,65,36,331,1029,907,444,92,-131
117,112,-4,-114,61,53,336,1049,936,453,102,-122
122,136,14,-129,53,75,336,1054,956,473,107,-122
122,161,39,-141,41,100,336,1063,976,483,117,-112
122,185,63,-153,29,124,336,1044,976,492,117,-112
122,214,92,-168,14,153,326,1019,966,492,112,-97
117,239,122,-178,-2,180,302,985,951,492,112,-87
117,263,146,-190,-14,204,292,946,927,497,112,-78
112,283,170,-197,-29,226,273,878,888,483,117,-63
102,302,200,-202,-48,251,248,805,839,458,122,-58
97,307,209,-202,-56,258,229,727,780,429,117,-43
87,312,224,-200,-68,268,209,649,717,400,117,-29
82,312,229,-197,-73,270,180,570,644,370,107,-19
68,307,239,-187,-85,273,156,478,575,336,102,-4
58,287,229,-173,-85,258,131,405,502,302,97,4
48,258,209,-153,-80,234,122,336,434,273,97,19
39,234,195,-136,-78,214,97,268,370,234,97,29
39,209,170,-124,-65,190,73,204,302,200,92,39
39,190,151,-114,-56,170,53,156,248,170,87,43
34,156,122,-95,-43,139,43,107,195,141,87,48
24,136,112,-80,-43,124,34,68,146,117,78,48
24,117,92,-70,-34,104,19,29,102,92,63,48
14,87,73,-51,-29,80,14,0,68,63,53,48
14,68,53,-41,-19,61,9,-19,34,43,43,43
9,48,39,-29,-14,43,0,-34,0,29,39,43
9,34,24,-21,-7,29,0,-48,-14,14,29,34
4,29,24,-17,-9,26,0,-63,-43,0,19,24
0,19,19,-9,-9,19,-4,-73,-58,-9,14,19
-4,4,9,0,-7,7,-9,-78,-68,-24,9,19
-4,0,4,2,-4,2,-9,-78,-78,-39,4,14
-4,0,4,2,-4,2,-9,-82,-78,-43,0,9
-4,-4,0,4,-2,-2,-9,-87,-82,-43,-4,9
-4,-9,-4,7,0,-7,-9,-92,-87,-43,-4,4
0,-9,-9,4,4,-9,-9,-97,-92,-48,-9,0
0,-14,-14,7,7,-14,-9,-97,-92,-48,-9,0
-4,-14,-9,9,2,-12,-9,-97,-92,-48,-9,0
-4,-19,-14,12,4,-17,-14,-92,-87,-48,-9,0
0,-19,-19,9,9,-19,-19,-87,-82,-48,-9,0
0,-19,-19,9,9,-19,-19,-82,-82,-43,-9,4
0,-24,-24,12,12,-24,-19,-82,-82,-43,-14,4
-4,-24,-19,14,7,-21,-19,-82,-78,-43,-9,4
-4,-24,-19,14,7,-21,-19,-82,-78,-43,-4,0
0,-24,-24,12,12,-24,-19,-78,-73,-43,-4,0
0,-29,-29,14,14,-29,-14,-78,-73,-39,-4,0
0,-29,-29,14,14,-29,-9,-73,-73,-34,-4,0
-4,-34,-29,19,12,-31,-9,-73,-68,-34,-4,0
-4,-34,-29,19,12,-31,-14,-73,-68,-34,-9,0
-4,-34,-29,19,12,-31,-14,-68,-68,-39,-14,-4
-4,-34,-29,19,12,-31,-14,-68,-68,-39,-14,-4
-4,-34,-29,19,12,-31,-9,-68,-63,-34,-14,-4
-9,-39,-29,24,9,-34,-14,-68,-63,-34,-14,-4
-9,-39,-29,24,9,-34,-19,-68,-68,-39,-14,-4
-9,-39,-29,24,9,-34,-19,-68,-68,-39,-14,-9
-9,-43,-34,26,12,-39,-19,-68,-68,-39,-14,-14
-9,-43,-34,26,12,-39,-14,-68,-68,-39,-19,-14
-9,-43,-34,26,12,-39,-14,-68,-68,-39,-19,-14
-9,-43,-34,26,12,-39,-14,-68,-68,-39,-24,-14
-9,-43,-34,26,12,-39,-14,-73,-73,-39,-29,-14
-9,-43,-34,26,12,-39,-19,-68,-73,-43,-29,-19
-9,-34,-24,21,7,-29,-19,-68,-73,-43,-29,-24
-9,-34,-24,21,7,-29,-19,-68,-78,-43,-29,-24
-14,-39,-24,26,4,-31,-19,-73,-82,-48,-29,-24
-19,-48,-29,34,4,-39,-19,-73,-82,-48,-29,-24
-19,-48,-29,34,4,-39,-19,-73,-82,-53,-29,-19
-19,-48,-29,34,4,-39,-19,-78,-87,-53,-34,-24
-19,-43,-24,31,2,-34,-19,-78,-87,-53,-34,-24
-14,-43,-29,29,7,-36,-19,-78,-92,-58,-39,-19
-14,-39,-24,26,4,-31,-19,-82,-92,-58,-39,-19
-14,-39,-24,26,4,-31,-19,-87,-97,-63,-43,-24
-14,-43,-29,29,7,-36,-24,-97,-97,-63,-43,-24
-14,-48,-34,31,9,-41,-24,-97,-97,-63,-39,-24
-14,-48,-34,31,9,-41,-29,-97,-102,-63,-39,-24
-14,-43,-29,29,7,-36,-29,-102,-102,-63,-43,-24
-14,-43,-29,29,7,-36,-29,-102,-107,-68,-43,-24
-14,-43,-29,29,7,-36,-24,-97,-112,-73,-48,-24
-9,-43,-34,26,12,-39,-24,-97,-112,-78,-48,-29
-9,-43,-34,26,12,-39,-19,-102,-112,-78,-48,-24
-9,-43,-34,26,12,-39,-14,-102,-112,-78,-48,-19
-9,-39,-29,24,9,-34,-14,-107,-112,-78,-48,-19
-9,-39,-29,24,9,-34,-24,-107,-112,-78,-48,-19
-14,-43,-29,29,7,-36,-19,-107,-112,-78,-48,-24
-19,-43,-24,31,2,-34,-19,-107,-112,-78,-48,-29
-19,-43,-24,31,2,-34,-19,-107,-112,-73,-48,-29
-19,-43,-24,31,2,-34,-14,-107,-112,-73,-53,-29
-19,-43,-24,31,2,-34,-14,-107,-112,-73,-53,-29
-19,-43,-24,31,2,-34,-14,-107,-112,-73,-53,-29
-24,-48,-24,36,0,-36,-14,-107,-112,-78,-48,-29
-24,-53,-29,39,2,-41,-14,-107,-112,-78,-48,-29
-24,-53,-29,39,2,-41,-14,-107,-117,-78,-53,-29
-24,-53,-29,39,2,-41,-14,-112,-117,-78,-53,-29
-24,-53,-29,39,2,-41,-14,-112,-112,-82,-53,-29
-19,-48,-29,34,4,-39,-9,-112,-112,-82,-53,-29
-19,-48,-29,34,4,-39,-9,-112,-112,-82,-53,-29
-19,-48,-29,34,4,-39,-9,-107,-112,-82,-53,-29
-19,-48,-29,34,4,-39,-9,-107,-117,-78,-58,-29
-19,-48,-29,34,4,-39,-9,-107,-122,-78,-63,-29
-19,-53,-34,36,7,-43,-14,-107,-117,-82,-58,-29
-19,-58,-39,39,9,-48,-14,-107,-117,-87,-58,-34
-19,-48,-29,34,4,-39,-14,-107,-112,-82,-58,-24
-19,-48,-29,34,4,-39,-9,-102,-112,-87,-58,-24
-19,-48,-29,34,4,-39,-9,-107,-112,-87,-58,-24
-19,-53,-34,36,7,-43,-9,-112,-117,-87,-58,-24
-19,-58,-39,39,9,-48,-14,-112,-122,-87,-58,-24
-19,-48,-29,34,4,-39,-9,-112,-117,-82,-53,-24
-19,-39,-19,29,0,-29,-4,-97,-107,-68,-43,-19
-24,-34,-9,29,-7,-21,4,-92,-97,-63,-39,-14
-14,-14,0,14,-7,-7,9,-82,-82,-58,-34,-9
-9,0,9,4,-9,4,24,-78,-78,-43,-29,-4
0,14,14,-7,-7,14,34,-63,-58,-34,-14,0
14,34,19,-24,-2,26,43,-53,-43,-24,0,9
9,34,24,-21,-7,29,48,-39,-39,-19,4,14
9,39,29,-24,-9,34,58,-29,-39,-19,9,19
19,39,19,-29,0,29,58,-9,-24,-9,14,29
29,39,9,-34,9,24,58,9,-9,0,19,39
34,43,9,-39,12,26,68,29,9,9,29,43
39,48,9,-43,14,29,78,48,29,19,39,48
39,58,19,-48,9,39,78,48,29,24,43,48
39,68,29,-53,4,48,78,48,29,29,48,48
39,82,43,-61,-2,63,63,29,29,39,48,58
39,97,58,-68,-9,78,48,9,29,48,48,68
39,87,48,-63,-4,68,19,-29,9,34,48,68
39,78,39,-58,0,58,-9,-68,-9,19,48,68
39,73,34,-56,2,53,-24,-73,-24,4,39,63
39,68,29,-53,4,48,-39,-78,-39,-9,29,58
43,68,24,-56,9,46,-43,-78,-43,-9,29,58
48,68,19,-58,14,43,-48,-78,-48,-9,29,58
53,78,24,-65,14,51,-53,-87,-53,-9,29,63
58,87,29,-73,14,58,-58,-97,-58,-9,29,68
58,102,43,-80,7,73,-58,-102,-58,-4,39,78
58,117,58,-87,0,87,-58,-107,-58,0,48,87
53,117,63,-85,-4,90,-63,-107,-58,4,53,87
43,97,53,-70,-4,75,-63,-107,-63,0,43,73
34,78,43,-56,-4,61,-63,-107,-73,-9,34,63
19,53,34,-36,-7,43,-53,-122,-87,-29,14,48
0,24,24,-12,-12,24,-48,-126,-112,-63,-24,19
-9,-14,-4,12,-2,-9,-43,-131,-122,-78,-48,-4
-24,-34,-9,29,-7,-21,-39,-131,-122,-87,-53,-14
-39,-63,-24,51,-7,-43,-29,-126,-126,-102,-63,-29
-39,-73,-34,56,-2,-53,-24,-117,-126,-102,-68,-29
-39,-82,-43,61,2,-63,-24,-117,-126,-102,-68,-34
-34,-82,-48,58,7,-65,-24,-117,-126,-102,-68,-39
-29,-87,-58,58,14,-73,-24,-112,-131,-107,-73,-48
-29,-92,-63,61,17,-78,-24,-112,-136,-112,-78,-53
-34,-92,-58,63,12,-75,-19,-117,-136,-112,-78,-53
-34,-92,-58,63,12,-75,-19,-122,-136,-107,-73,-53
-29,-97,-68,63,19,-82,-19,-122,-136,-107,-73,-53
-29,-102,-73,65,21,-87,-19,-117,-131,-112,-73,-53
-29,-102,-73,65,21,-87,-14,-117,-126,-112,-73,-53
-34,-102,-68,68,17,-85,-9,-117,-131,-112,-82,-53
-34,-102,-68,68,17,-85,-9,-117,-136,-112,-87,-53
-34,-97,-63,65,14,-80,-14,-117,-136,-112,-82,-53
-29,-97,-68,63,19,-82,-14,-112,-136,-112,-82,-53
-29,-97,-68,63,19,-82,-9,-107,-131,-112,-82,-53
-29,-97,-68,63,19,-82,-9,-102,-126,-112,-82,-53
-34,-97,-63,65,14,-80,-9,-102,-126,-112,-82,-53
-34,-97,-63,65,14,-80,-9,-102,-126,-112,-82,-53
-29,-97,-68,63,19,-82,-9,-102,-126,-107,-82,-53
-29,-92,-63,61,17,-78,-9,-102,-122,-107,-82,-53
-29,-92,-63,61,17,-78,-9,-97,-122,-107,-82,-53
-29,-92,-63,61,17,-78,-9,-97,-122,-107,-82,-53
-29,-97,-68,63,19,-82,-9,-97,-122,-107,-82,-53
-29,-97,-68,63,19,-82,-9,-97,-122,-102,-82,-53
-29,-97,-68,63,19,-82,-4,-97,-122,-102,-82,-48
-29,-97,-68,63,19,-82,-4,-97,-122,-102,-78,-48
-29,-97,-68,63,19,-82,-4,-97,-117,-97,-78,-48
-29,-97,-68,63,19,-82,-4,-92,-112,-92,-78,-48
-29,-97,-68,63,19,-82,-4,-92,-112,-92,-78,-48
-29,-97,-68,63,19,-82,-4,-92,-112,-92,-78,-43
-29,-97,-68,63,19,-82,-4,-92,-112,-87,-73,-43
-29,-97,-68,63,19,-82,-4,-92,-112,-87,-73,-43
-29,-92,-63,61,17,-78,-9,-92,-107,-82,-63,-39
-24,-92,-68,58,21,-80,-14,-82,-97,-78,-58,-34
-14,-97,-82,56,34,-90,-29,-63,-78,-63,-48,-29
-4,-97,-92,51,43,-95,-39,-19,29,9,0,-4
-4,-78,-73,41,34,-75,-87,-107,68,58,43,24
-4,-9,-4,7,0,-7,-131,-302,29,112,117,97
-4,102,107,-48,-56,104,-234,-610,-78,263,336,307
14,248,234,-131,-109,241,-385,-1073,-341,434,653,629
87,414,326,-251,-119,370,-575,-1464,-595,653,1073,1049
195,629,434,-412,-119,531,-893,-1947,-902,805,1478,1498
239,868,629,-553,-195,749,-1234,-2474,-1371,692,1634,1776
200,1039,839,-619,-319,939,-1512,-2986,-2034,170,1268,1659
156,1180,1024,-668,-434,1102,-1625,-3279,-2591,-566,673,1395
156,912,756,-534,-300,834,-1527,-3113,-2898,-1346,-126,873
68,439,370,-253,-151,405,-1312,-2752,-3006,-2030,-1024,141
34,287,253,-161,-109,270,-1049,-2127,-2410,-1795,-1049,-58
19,185,165,-102,-73,175,-663,-1273,-1429,-1151,-712,-48
14,112,97,-63,-41,104,-380,-712,-800,-697,-453,-68
-4,53,58,-24,-31,56,-219,-405,-488,-448,-302,-92
-24,-19,4,21,-14,-7,-122,-253,-346,-341,-263,-151
-29,-82,-53,56,12,-68,-34,-117,-234,-263,-239,-175
-34,-82,-48,58,7,-65,24,-4,-102,-175,-195,-161
-34,-78,-43,56,4,-61,58,78,14,-68,-97,-107
-19,-78,-58,48,19,-68,78,117,73,-9,-34,-68
-4,-78,-73,41,34,-75,92,141,78,0,-14,-63
9,-87,-97,39,53,-92,97,165,92,0,-24,-63
0,-97,-97,48,48,-97,102,175,107,9,-24,-73
0,-97,-97,48,48,-97,112,175,117,24,-14,-73
0,-107,-107,53,53,-107,122,180,122,34,-4,-68
4,-112,-117,53,61,-114,122,195,126,39,-4,-68
4,-112,-117,53,61,-114,122,204,136,39,-4,-68
0,-117,-117,58,58,-117,122,209,146,43,-4,-68
0,-122,-122,61,61,-122,126,214,146,48,0,-68
0,-122,-122,61,61,-122,126,219,146,48,0,-68
0,-122,-122,61,61,-122,126,219,151,48,4,-68
0,-126,-126,63,63,-126,126,224,151,53,9,-68
0,-126,-126,63,63,-126,131,224,156,58,9,-68
-4,-126,-122,65,58,-124,131,234,161,68,9,-68
-4,-126,-122,65,58,-124,131,234,165,68,9,-68
0,-131,-131,65,65,-131,136,239,170,68,9,-68
0,-131,-131,65,65,-131,136,244,175,73,9,-68
0,-131,-131,65,65,-131,136,244,180,73,9,-73
4,-136,-141,65,73,-139,136,248,190,73,9,-73
4,-136,-141,65,73,-139,141,253,195,78,9,-78
4,-136,-141,65,73,-139,141,258,200,78,9,-78
4,-136,-141,65,73,-139,141,263,204,78,9,-78
4,-136,-141,65,73,-139,146,273,209,78,9,-78
4,-136,-141,65,73,-139,146,278,214,82,9,-82
4,-136,-141,65,73,-139,146,287,224,87,14,-82
9,-131,-141,61,75,-136,151,297,224,92,14,-78
9,-131,-141,61,75,-136,156,302,234,92,14,-78
14,-131,-146,58,80,-139,161,312,244,92,14,-87
14,-131,-146,58,80,-139,161,322,244,97,14,-82
14,-131,-146,58,80,-139,161,326,244,97,19,-82
14,-136,-151,61,82,-143,165,336,253,112,19,-82
14,-136,-151,61,82,-143,175,351,263,117,19,-82
19,-131,-151,56,85,-141,175,361,273,122,19,-82
19,-131,-151,56,85,-141,175,380,283,122,19,-87
19,-126,-146,53,82,-136,180,395,292,126,19,-87
19,-126,-146,53,82,-136,185,405,312,136,24,-87
19,-122,-141,51,80,-131,185,424,326,136,19,-87
24,-122,-146,48,85,-134,200,448,336,141,19,-87
24,-117,-141,46,82,-129,200,468,351,151,19,-87
24,-112,-136,43,80,-124,209,488,370,161,19,-92
24,-107,-131,41,78,-119,219,507,390,175,24,-92
29,-107,-136,39,82,-122,224,531,414,180,24,-92
39,-107,-146,34,92,-126,229,561,429,190,34,-92
39,-107,-146,34,92,-126,234,585,448,200,43,-97
43,-102,-146,29,95,-124,244,614,478,214,43,-102
43,-92,-136,24,90,-114,253,644,517,229,48,-102
53,-82,-136,14,95,-109,258,678,536,239,48,-97
58,-68,-126,4,92,-97,268,712,566,253,48,-97
58,-63,-122,2,90,-92,273,756,600,278,58,-97
68,-53,-122,-7,95,-87,287,790,634,292,68,-97
73,-43,-117,-14,95,-80,297,824,668,312,73,-102
78,-34,-112,-21,95,-73,302,868,702,326,78,-102
87,-19,-107,-34,97,-63,317,907,741,351,78,-102
97,-9,-107,-43,102,-58,326,946,780,370,82,-107
97,4,-92,-51,95,-43,341,985,810,390,87,-102
102,19,-82,-61,92,-31,351,1024,839,409,97,-97
112,43,-68,-78,90,-12,356,1049,883,424,102,-102
112,63,-48,-87,80,7,356,1078,912,444,102,-102
122,82,-39,-102,80,21,356,1102,936,458,112,-92
131,107,-24,-119,78,41,356,1112,956,483,117,-92
131,131,0,-131,65,65,356,1122,976,492,126,-82
131,156,24,-143,53,90,356,1102,976,502,131,-82
131,180,48,-156,41,114,346,1078,966,502,136,-73
126,204,78,-165,24,141,326,1034,951,497,141,-68
126,234,107,-180,9,170,317,985,927,497,141,-58
122,253,131,-187,-4,192,292,917,888,483,141,-39
112,273,161,-192,-24,217,268,844,839,458,136,-29
107,278,170,-192,-31,224,248,766,785,434,126,-14
97,283,185,-190,-43,234,229,688,717,405,126,0
92,283,190,-187,-48,236,200,610,634,370,117,9
82,278,195,-180,-56,236,175,512,566,336,112,19
78,258,180,-168,-51,219,151,434,497,302,107,24
68,229,161,-148,-46,195,141,361,434,273,107,39
58,204,146,-131,-43,175,117,287,370,239,107,43
53,180,126,-117,-36,153,92,224,302,204,102,48
48,161,112,-104,-31,136,73,175,248,170,97,53
43,126,82,-85,-19,104,58,126,190,141,97,58
34,107,73,-70,-19,90,43,87,141,117,87,58
34,87,53,-61,-9,70,29,48,102,92,73,58
24,63,39,-43,-7,51,24,19,68,63,63,63
24,43,19,-34,2,31,19,0,34,43,53,63
19,19,0,-19,9,9,9,-14,4,29,48,63
19,4,-14,-12,17,-4,4,-29,-9,14,39,53
14,0,-14,-7,14,-7,0,-43,-39,0,29,43
9,-9,-19,0,14,-14,-4,-53,-48,-9,24,39
4,-24,-29,9,17,-26,-9,-58,-58,-19,19,39
4,-29,-34,12,19,-31,-9,-58,-68,-29,19,34
4,-29,-34,12,19,-31,-9,-63,-68,-34,19,29
4,-39,-43,17,24,-41,-9,-68,-68,-34,14,29
0,-48,-48,24,24,-48,-9,-68,-68,-34,14,24
0,-48,-48,24,24,-48,-9,-68,-73,-39,9,19
0,-53,-53,26,26,-53,-9,-68,-73,-39,9,19
-4,-53,-48,29,21,-51,-9,-68,-68,-39,4,19
-4,-58,-53,31,24,-56,-9,-68,-63,-39,0,19
0,-58,-58,29,29,-58,-9,-68,-63,-39,0,19
0,-58,-58,29,29,-58,-9,-63,-63,-39,0,19
0,-63,-63,31,31,-63,-9,-63,-63,-43,-4,14
-4,-63,-58,34,26,-61,-9,-63,-58,-43,-4,14
-4,-63,-58,34,26,-61,-9,-63,-58,-43,-4,9
0,-63,-63,31,31,-63,-9,-58,-53,-43,-4,9
0,-68,-68,34,34,-68,-4,-58,-53,-39,-4,9
0,-68,-68,34,34,-68,0,-53,-53,-34,-4,9
-4,-73,-68,39,31,-70,4,-53,-48,-34,-4,9
-4,-73,-68,39,31,-70,4,-53,-48,-34,-4,9
-4,-73,-68,39,31,-70,4,-43,-53,-39,-4,4
-4,-73,-68,39,31,-70,4,-39,-58,-39,-4,4
-4,-68,-63,36,29,-65,9,-39,-53,-34,-4,4
-9,-68,-58,39,24,-63,9,-39,-53,-34,-4,4
-9,-68,-58,39,24,-63,9,-43,-58,-39,-9,4
-9,-68,-58,39,24,-63,9,-48,-58,-39,-14,0
-9,-73,-63,41,26,-68,4,-48,-58,-39,-14,-4
-9,-73,-63,41,26,-68,4,-48,-58,-39,-19,-4
-9,-73,-63,41,26,-68,4,-48,-58,-39,-14,-4
-9,-73,-63,41,26,-68,4,-48,-58,-39,-14,-4
-9,-73,-63,41,26,-68,4,-53,-63,-39,-19,-4
-9,-73,-63,41,26,-68,0,-53,-63,-43,-19,-4
-9,-63,-53,36,21,-58,0,-58,-63,-43,-19,-4
-9,-63,-53,36,21,-58,0,-58,-68,-43,-19,-4
-14,-68,-53,41,19,-61,0,-63,-73,-48,-19,-4
-19,-78,-58,48,19,-68,0,-63,-73,-48,-19,-9
-14,-78,-63,46,24,-70,0,-63,-73,-53,-19,-9
-9,-78,-68,43,29,-73,0,-68,-78,-53,-24,-14
-9,-73,-63,41,26,-68,0,-68,-78,-53,-24,-14
-4,-73,-68,39,31,-70,0,-68,-82,-58,-29,-9
-4,-68,-63,36,29,-65,0,-73,-82,-58,-29,-9
-4,-68,-63,36,29,-65,0,-73,-87,-63,-34,-14
-4,-68,-63,36,29,-65,-4,-78,-87,-63,-34,-14
-4,-68,-63,36,29,-65,-4,-78,-87,-63,-29,-14
-4,-68,-63,36,29,-65,-9,-78,-92,-63,-29,-14
-4,-63,-58,34,26,-61,-9,-82,-92,-63,-34,-14
-9,-63,-53,36,21,-58,-9,-82,-97,-68,-34,-14
-14,-63,-48,39,17,-56,-4,-82,-97,-68,-34,-14
-9,-63,-53,36,21,-58,-4,-82,-97,-73,-29,-19
-9,-63,-53,36,21,-58,-4,-82,-102,-78,-29,-19
-9,-63,-53,36,21,-58,-4,-82,-102,-78,-34,-19
-9,-58,-48,34,19,-53,-4,-87,-102,-78,-39,-19
-9,-63,-53,36,21,-58,-9,-87,-102,-73,-39,-19
-9,-73,-63,41,26,-68,-4,-87,-102,-68,-39,-19
-14,-73,-58,43,21,-65,-9,-87,-102,-68,-34,-14
-19,-73,-53,46,17,-63,-9,-87,-102,-68,-29,-9
-19,-73,-53,46,17,-63,-4,-87,-102,-73,-34,-9
-19,-73,-53,46,17,-63,-4,-87,-102,-73,-34,-9
-19,-68,-48,43,14,-58,-4,-87,-102,-73,-39,-9
-19,-63,-43,41,12,-53,-4,-87,-102,-73,-39,-9
-9,-63,-53,36,21,-58,-4,-87,-102,-68,-39,-9
-4,-63,-58,34,26,-61,-4,-87,-107,-68,-43,-9
-4,-63,-58,34,26,-61,-4,-92,-107,-68,-39,-9
-9,-68,-58,39,24,-63,-4,-92,-102,-73,-34,-9
-9,-68,-58,39,24,-63,0,-97,-102,-73,-34,-9
-9,-68,-58,39,24,-63,0,-102,-102,-73,-34,-9
-14,-68,-53,41,19,-61,0,-97,-102,-78,-39,-14
-19,-68,-48,43,14,-58,0,-97,-102,-78,-43,-19
-19,-68,-48,43,14,-58,-4,-102,-107,-82,-48,-29
-19,-68,-48,43,14,-58,-9,-102,-107,-87,-48,-34
-19,-73,-53,46,17,-63,-9,-97,-107,-87,-48,-34
-19,-68,-48,43,14,-58,-14,-97,-102,-78,-43,-24
-19,-68,-48,43,14,-58,-9,-92,-102,-78,-39,-19
-19,-68,-48,43,14,-58,-9,-92,-97,-78,-39,-14
-19,-78,-58,48,19,-68,-9,-97,-102,-78,-43,-14
-19,-82,-63,51,21,-73,-9,-97,-107,-78,-48,-14
-19,-68,-48,43,14,-58,0,-102,-102,-78,-43,-14
-14,-58,-43,36,14,-51,4,-97,-97,-68,-34,-9
-19,-53,-34,36,7,-43,14,-92,-87,-63,-29,-4
-14,-34,-19,24,2,-26,14,-82,-73,-58,-19,4
-14,-24,-9,19,-2,-17,34,-73,-68,-48,-14,9
-4,-9,-4,7,0,-7,43,-63,-58,-34,0,24
0,0,0,0,0,0,48,-43,-43,-24,4,24
9,9,0,-9,4,4,58,-29,-29,-19,9,29
9,9,0,-9,4,4,63,-19,-29,-19,9,29
9,9,0,-9,4,4,68,-9,-29,-19,9,29
19,14,-4,-17,12,4,73,4,-9,-4,19,34
29,19,-9,-24,19,4,78,19,9,9,29,39
34,24,-9,-29,21,7,82,34,24,24,39,48
39,29,-9,-34,24,9,87,48,39,39,48,58
43,43,0,-43,21,21,87,48,39,43,53,63
48,58,9,-53,19,34,87,48,39,48,58,68
48,78,29,-63,9,53,63,24,39,48,68,78
48,97,48,-73,0,73,39,0,39,48,78,87
43,87,43,-65,0,65,14,-34,14,34,63,78
39,78,39,-58,0,58,-9,-68,-9,19,48,68
39,68,29,-53,4,48,-19,-73,-19,9,39,68
39,58,19,-48,9,39,-29,-78,-29,0,29,68
43,58,14,-51,14,36,-39,-78,-34,0,39,78
48,58,9,-53,19,34,-48,-78,-39,0,48,87
58,68,9,-63,24,39,-48,-87,-43,0,48,87
68,78,9,-73,29,43,-48,-97,-48,0,48,87
58,87,29,-73,14,58,-48,-97,-48,4,58,102
48,97,48,-73,0,73,-48,-97,-48,9,68,117
43,97,53,-70,-4,75,-48,-102,-48,9,73,112
34,78,43,-56,-4,61,-43,-102,-53,0,63,97
24,58,34,-41,-4,46,-43,-107,-63,-9,53,82
9,34,24,-21,-7,29,-34,-122,-78,-29,34,68
-14,4,19,4,-17,12,-34,-126,-102,-63,-9,29
-29,-34,-4,31,-12,-19,-34,-131,-112,-78,-39,-4
-34,-48,-14,41,-9,-31,-29,-131,-112,-82,-43,-14
-39,-73,-34,56,-2,-53,-19,-126,-117,-92,-53,-29
-39,-78,-39,58,0,-58,-19,-122,-117,-92,-58,-29
-39,-82,-43,61,2,-63,-24,-126,-117,-92,-58,-34
-39,-87,-48,63,4,-68,-24,-126,-117,-92,-58,-34
-39,-97,-58,68,9,-78,-24,-122,-122,-97,-63,-39
-39,-102,-63,70,12,-82,-24,-122,-126,-102,-68,-39
-43,-102,-58,73,7,-80,-19,-126,-126,-102,-68,-34
-43,-102,-58,73,7,-80,-19,-126,-126,-97,-63,-34
-39,-107,-68,73,14,-87,-19,-122,-126,-97,-63,-34
-39,-112,-73,75,17,-92,-19,-112,-122,-102,-63,-34
-39,-112,-73,75,17,-92,-14,-107,-117,-102,-63,-34
-48,-112,-63,80,7,-87,-9,-107,-117,-102,-68,-34
-53,-112,-58,82,2,-85,-9,-107,-117,-102,-68,-34
-53,-102,-48,78,-2,-75,-14,-112,-117,-97,-63,-39
-48,-97,-48,73,0,-73,-14,-112,-117,-92,-63,-43
-48,-97,-48,73,0,-73,-9,-112,-117,-92,-63,-43
-48,-97,-48,73,0,-73,-9,-112,-117,-92,-63,-43
-48,-97,-48,73,0,-73,-9,-112,-117,-97,-63,-43
-43,-97,-53,70,4,-75,-9,-112,-117,-102,-63,-43
-39,-97,-58,68,9,-78,-19,-112,-117,-97,-68,-43
-39,-92,-53,65,7,-73,-29,-112,-112,-97,-73,-43
-39,-92,-53,65,7,-73,-19,-107,-112,-97,-73,-43
-39,-92,-53,65,7,-73,-9,-107,-112,-97,-73,-43
-43,-97,-53,70,4,-75,-9,-107,-112,-97,-68,-39
-48,-97,-48,73,0,-73,-9,-107,-112,-92,-63,-34
-48,-97,-48,73,0,-73,-4,-102,-112,-92,-63,-29
-48,-97,-48,73,0,-73,-4,-97,-112,-92,-58,-29
-48,-97,-48,73,0,-73,-4,-97,-107,-87,-58,-29
-48,-97,-48,73,0,-73,-4,-92,-102,-82,-58,-29
-48,-97,-48,73,0,-73,-9,-92,-102,-82,-58,-24
-48,-97,-48,73,0,-73,-14,-92,-102,-82,-58,-14
-48,-97,-48,73,0,-73,-14,-92,-102,-78,-53,-14
-48,-97,-48,73,0,-73,-14,-92,-102,-78,-53,-14
-48,-87,-39,68,-4,-63,-14,-92,-107,-78,-53,-14
-43,-82,-39,63,-2,-61,-14,-82,-107,-78,-58,-14
-34,-87,-53,61,9,-70,-19,-63,-102,-78,-53,-14
-24,-87,-63,56,19,-75,-19,-19,-9,-19,-9,4
-29,-78,-48,53,9,-63,-63,-78,87,48,39,29
-34,-19,14,26,-24,-2,-102,-244,107,122,117,97
-39,102,141,-31,-90,122,-190,-551,58,283,322,292
-24,258,283,-117,-153,270,-326,-1015,-146,463,624,600
29,439,409,-234,-190,424,-492,-1449,-419,653,995,1000
117,668,551,-392,-217,610,-785,-1976,-746,775,1351,1429
151,907,756,-529,-302,832,-1137,-2552,-1244,683,1551,1727
102,1078,976,-590,-436,1027,-1424,-3113,-1937,180,1229,1629
43,1215,1171,-629,-563,1193,-1551,-3445,-2522,-517,663,1366
29,941,912,-485,-441,927,-1468,-3318,-2859,-1259,-107,844
-53,375,429,-161,-241,402,-1283,-2952,-3059,-2069,-1117,19
-82,131,214,-24,-148,173,-1049,-2322,-2557,-1961,-1254,-273
-68,58,126,4,-97,92,-668,-1400,-1542,-1278,-868,-209
-43,14,58,14,-51,36,-390,-771,-878,-785,-561,-175
-53,0,53,26,-53,26,-224,-458,-551,-517,-385,-161
-63,-29,34,46,-48,2,-122,-302,-395,-390,-322,-180
-63,-92,-29,78,-17,-61,-39,-151,-283,-307,-278,-195
-63,-92,-29,78,-17,-61,14,-24,-151,-214,-214,-170
-53,-87,-34,70,-9,-61,48,63,-19,-87,-112,-102
-29,-87,-58,58,14,-73,68,107,53,-9,-43,-48
-19,-87,-68,53,24,-78,82,131,58,0,-24,-43
-9,-97,-87,53,39,-92,87,156,73,0,-34,-43
-24,-107,-82,65,29,-95,87,165,87,4,-39,-58
-29,-107,-78,68,24,-92,92,165,97,14,-34,-63
-29,-107,-78,68,24,-92,97,170,102,24,-24,-58
-24,-102,-78,63,26,-90,92,185,107,29,-24,-58
-24,-102,-78,63,26,-90,92,195,117,29,-24,-58
-29,-107,-78,68,24,-92,92,200,126,34,-24,-58
-29,-112,-82,70,26,-97,102,204,126,39,-19,-58
-29,-112,-82,70,26,-97,107,209,126,39,-19,-58
-29,-112,-82,70,26,-97,107,209,131,39,-19,-63
-29,-117,-87,73,29,-102,107,214,131,43,-19,-68
-29,-117,-87,73,29,-102,107,214,136,43,-19,-68
-34,-117,-82,75,24,-100,102,224,141,48,-19,-68
-39,-117,-78,78,19,-97,102,219,141,48,-19,-68
-39,-122,-82,80,21,-102,107,219,141,48,-19,-68
-39,-122,-82,80,21,-102,107,224,146,48,-19,-73
-39,-122,-82,80,21,-102,107,224,151,43,-19,-82
-29,-126,-97,78,34,-112,107,229,156,43,-19,-82
-24,-126,-102,75,39,-114,112,234,156,48,-19,-87
-24,-126,-102,75,39,-114,107,239,161,48,-19,-82
-24,-126,-102,75,39,-114,102,244,165,48,-19,-78
-24,-126,-102,75,39,-114,107,253,170,48,-14,-78
-24,-126,-102,75,39,-114,107,258,175,53,-9,-82
-24,-126,-102,75,39,-114,107,268,185,58,-4,-82
-19,-122,-102,70,41,-112,112,278,185,63,-4,-78
-19,-126,-107,73,43,-117,117,283,190,63,-9,-78
-14,-131,-117,73,51,-124,122,292,195,63,-14,-87
-14,-131,-117,73,51,-124,122,302,200,63,-19,-87
-14,-131,-117,73,51,-124,122,307,204,58,-19,-92
-14,-136,-122,75,53,-129,122,317,214,73,-19,-97
-14,-136,-122,75,53,-129,126,331,224,78,-19,-102
-4,-126,-122,65,58,-124,126,341,234,82,-19,-102
0,-122,-122,61,61,-122,126,361,244,82,-19,-107
0,-117,-117,58,58,-117,126,375,244,82,-29,-117
0,-117,-117,58,58,-117,126,385,253,87,-34,-126
-4,-112,-107,58,51,-109,126,405,268,92,-24,-117
-4,-112,-107,58,51,-109,141,429,278,102,-9,-107
4,-112,-117,53,61,-114,141,448,292,117,-4,-107
14,-112,-126,48,70,-119,151,468,312,131,0,-112
14,-117,-131,51,73,-124,161,488,331,141,4,-112
19,-126,-146,53,82,-136,165,512,356,141,4,-112
29,-122,-151,46,90,-136,170,541,370,151,9,-112
29,-117,-146,43,87,-131,175,566,390,161,14,-117
34,-112,-146,39,90,-129,180,595,409,175,14,-122
34,-102,-136,34,85,-119,185,624,439,190,19,-122
43,-97,-141,26,92,-119,185,658,453,195,14,-122
48,-87,-136,19,92,-112,190,692,478,204,9,-126
48,-82,-131,17,90,-107,195,732,507,224,19,-131
58,-73,-131,7,95,-102,209,761,536,234,29,-136
63,-63,-126,0,95,-95,219,795,566,248,24,-151
68,-53,-122,-7,95,-87,224,839,595,258,19,-161
78,-39,-117,-19,97,-78,239,878,634,283,19,-161
87,-29,-117,-29,102,-73,248,917,673,302,24,-165
97,-19,-117,-39,107,-68,258,951,702,322,34,-161
112,-9,-122,-51,117,-65,263,985,732,341,48,-156
122,14,-107,-68,114,-46,268,1010,771,356,53,-161
122,34,-87,-78,104,-26,268,1039,795,375,53,-161
126,48,-78,-87,102,-14,273,1068,819,380,58,-156
131,68,-63,-100,97,2,278,1083,839,395,58,-161
131,92,-39,-112,85,26,278,1098,868,405,68,-151
131,117,-14,-124,73,51,278,1083,878,414,73,-151
131,136,4,-134,63,70,273,1063,878,424,73,-136
126,156,29,-141,48,92,258,1024,873,429,73,-126
126,195,68,-161,29,131,253,976,849,429,68,-126
122,224,102,-173,9,163,234,907,810,414,63,-117
107,248,141,-178,-17,195,209,834,766,390,63,-107
97,258,161,-178,-31,209,190,756,717,366,58,-92
87,263,175,-175,-43,219,175,678,663,351,63,-78
82,263,180,-173,-48,222,151,600,595,331,58,-68
68,268,200,-168,-65,234,126,502,527,297,58,-53
58,258,200,-158,-70,229,102,424,458,263,58,-43
43,234,190,-139,-73,212,92,356,405,244,58,-19
29,214,185,-122,-78,200,68,287,351,219,58,-4
29,190,161,-109,-65,175,43,214,283,190,58,4
29,170,141,-100,-56,156,24,156,229,161,58,14
24,136,112,-80,-43,124,14,107,175,136,63,19
14,117,102,-65,-43,109,4,68,131,117,58,19
9,97,87,-53,-39,92,-9,29,92,92,43,24
-4,73,78,-34,-41,75,-14,0,58,63,34,34
-4,58,63,-26,-34,61,-19,-19,29,43,29,34
-9,39,48,-14,-29,43,-29,-34,4,29,29,34
-9,24,34,-7,-21,29,-29,-48,-4,9,19,24
-14,19,34,-2,-24,26,-29,-63,-29,-9,9,14
-19,9,29,4,-24,19,-34,-78,-43,-19,4,9
-24,-4,19,14,-21,7,-39,-87,-58,-29,0,9
-24,-14,9,19,-17,-2,-39,-87,-73,-39,-9,9
-24,-19,4,21,-14,-7,-39,-92,-78,-43,-19,9
-24,-24,0,24,-12,-12,-39,-97,-82,-43,-24,9
-29,-29,0,29,-14,-14,-39,-97,-87,-43,-24,4
-24,-24,0,24,-12,-12,-39,-97,-87,-48,-24,0
-19,-24,-4,21,-7,-14,-39,-97,-82,-48,-19,0
-24,-24,0,24,-12,-12,-34,-97,-82,-48,-19,0
-24,-29,-4,26,-9,-17,-29,-97,-82,-48,-19,0
-19,-34,-14,26,-2,-24,-29,-97,-82,-48,-19,0
-19,-39,-19,29,0,-29,-29,-92,-82,-48,-19,0
-19,-43,-24,31,2,-34,-34,-92,-87,-53,-24,-9
-24,-43,-19,34,-2,-31,-39,-92,-87,-53,-24,-14
-29,-34,-4,31,-12,-19,-39,-92,-87,-53,-29,-19
-29,-24,4,26,-17,-9,-39,-87,-82,-53,-34,-19
-29,-29,0,29,-14,-14,-34,-87,-82,-48,-34,-14
-29,-29,0,29,-14,-14,-29,-82,-82,-43,-34,-9
-34,-39,-4,36,-14,-21,-29,-82,-78,-43,-29,-9
-34,-43,-9,39,-12,-26,-34,-82,-78,-43,-24,-9
-34,-43,-9,39,-12,-26,-34,-78,-78,-53,-24,-14
-34,-43,-9,39,-12,-26,-34,-78,-78,-58,-24,-14
-34,-43,-9,39,-12,-26,-29,-78,-73,-53,-24,-14
-39,-48,-9,43,-14,-29,-29,-78,-73,-53,-24,-14
-39,-43,-4,41,-17,-24,-29,-78,-78,-58,-29,-19
-39,-39,0,39,-19,-19,-29,-78,-78,-58,-34,-29
-39,-43,-4,41,-17,-24,-34,-82,-78,-58,-34,-34
-39,-43,-4,41,-17,-24,-34,-87,-78,-58,-39,-34
-39,-43,-4,41,-17,-24,-34,-87,-78,-58,-34,-34
-39,-43,-4,41,-17,-24,-34,-87,-78,-58,-34,-34
-34,-43,-9,39,-12,-26,-34,-92,-82,-58,-39,-29
-29,-43,-14,36,-7,-29,-39,-92,-82,-63,-39,-24
-29,-34,-4,31,-12,-19,-39,-97,-82,-63,-39,-24
-29,-34,-4,31,-12,-19,-39,-97,-87,-63,-39,-24
-34,-39,-4,36,-14,-21,-39,-102,-92,-63,-39,-24
-39,-48,-9,43,-14,-29,-39,-102,-92,-58,-39,-29
-39,-53,-14,46,-12,-34,-39,-97,-87,-63,-39,-29
-39,-58,-19,48,-9,-39,-39,-97,-87,-63,-43,-34
-48,-53,-4,51,-21,-29,-39,-97,-87,-63,-43,-34
-53,-53,0,53,-26,-26,-39,-97,-92,-68,-48,-29
-43,-43,0,43,-21,-21,-43,-102,-92,-68,-43,-29
-34,-39,-4,36,-14,-21,-48,-102,-97,-73,-43,-34
-34,-43,-9,39,-12,-26,-53,-107,-97,-73,-43,-24
-34,-48,-14,41,-9,-31,-53,-107,-97,-73,-39,-14
-34,-48,-14,41,-9,-31,-53,-107,-102,-73,-43,-24
-34,-43,-9,39,-12,-26,-48,-112,-102,-73,-53,-34
-39,-43,-4,41,-17,-24,-48,-112,-112,-78,-53,-34
-43,-43,0,43,-21,-21,-43,-112,-117,-78,-53,-34
-39,-43,-4,41,-17,-24,-43,-112,-112,-78,-48,-39
-39,-43,-4,41,-17,-24,-43,-112,-112,-78,-48,-39
-39,-43,-4,41,-17,-24,-43,-112,-107,-78,-53,-39
-39,-39,0,39,-19,-19,-43,-117,-102,-78,-58,-39
-39,-34,4,36,-21,-14,-53,-117,-102,-78,-58,-39
-39,-34,4,36,-21,-14,-53,-117,-102,-78,-58,-39
-39,-34,4,36,-21,-14,-58,-122,-107,-78,-58,-39
-39,-34,4,36,-21,-14,-58,-126,-112,-78,-58,-39
-39,-39,0,39,-19,-19,-53,-126,-112,-82,-63,-39
-39,-43,-4,41,-17,-24,-53,-126,-112,-82,-63,-39
-39,-43,-4,41,-17,-24,-48,-122,-112,-82,-58,-34
-39,-43,-4,41,-17,-24,-43,-117,-112,-82,-48,-29
-34,-43,-9,39,-12,-26,-43,-117,-112,-78,-48,-29
-34,-43,-9,39,-12,-26,-43,-117,-117,-78,-53,-29
-34,-43,-9,39,-12,-26,-48,-122,-117,-78,-53,-29
-39,-48,-9,43,-14,-29,-53,-122,-112,-82,-53,-29
-39,-48,-9,43,-14,-29,-48,-117,-107,-82,-53,-29
-39,-48,-9,43,-14,-29,-48,-112,-102,-82,-53,-29
-39,-39,0,39,-19,-19,-39,-107,-102,-82,-53,-29
-39,-29,9,34,-24,-9,-29,-107,-102,-78,-53,-29
-34,-4,29,19,-31,12,-24,-97,-87,-58,-43,-24
-29,19,48,4,-39,34,-19,-82,-68,-39,-29,-14
-24,24,48,0,-36,36,-4,-73,-63,-39,-29,-9
-19,39,58,-9,-39,48,4,-68,-53,-29,-24,4
-19,39,58,-9,-39,48,9,-58,-53,-29,-19,4
-19,39,58,-9,-39,48,9,-53,-48,-29,-19,4
-19,24,43,-2,-31,34,14,-48,-43,-29,-14,9
-19,14,34,2,-26,24,19,-39,-39,-29,-9,14
-14,29,43,-7,-29,36,29,-24,-24,-19,-4,14
-4,39,43,-17,-24,41,34,0,-9,0,4,19
0,43,43,-21,-21,43,43,4,0,4,9,29
14,63,48,-39,-17,56,43,14,14,9,19,43
14,82,68,-48,-26,75,39,0,14,19,34,48
24,107,82,-65,-29,95,24,-14,19,34,58,63
14,107,92,-61,-39,100,0,-48,4,24,48,58
9,107,97,-58,-43,102,-19,-87,-9,19,39,58
9,92,82,-51,-36,87,-29,-97,-24,0,29,48
9,78,68,-43,-29,73,-39,-107,-39,-19,19,39
19,87,68,-53,-24,78,-48,-97,-39,-9,19,48
29,97,68,-63,-19,82,-58,-87,-39,0,19,58
29,97,68,-63,-19,82,-68,-87,-43,0,24,63
29,97,68,-63,-19,82,-78,-87,-48,0,29,68
29,112,82,-70,-26,97,-78,-107,-53,0,29,73
29,126,97,-78,-34,112,-78,-126,-58,0,29,78
29,136,107,-82,-39,122,-78,-126,-58,0,34,78
19,126,107,-73,-43,117,-73,-126,-58,0,34,73
9,122,112,-65,-51,117,-73,-126,-63,-4,34,68
-4,78,82,-36,-43,80,-73,-126,-73,-19,14,43
-19,53,73,-17,-46,63,-63,-141,-87,-39,-4,29
-39,24,63,7,-51,43,-63,-146,-112,-73,-39,0
-43,-14,29,29,-36,7,-63,-151,-126,-87,-58,-24
-43,-29,14,36,-29,-7,-58,-151,-131,-92,-63,-34
-48,-53,-4,51,-21,-29,-48,-146,-136,-102,-78,-53
-48,-58,-9,53,-19,-34,-43,-136,-136,-102,-87,-58
-53,-63,-9,58,-21,-36,-43,-136,-136,-102,-87,-63
-58,-63,-4,61,-26,-34,-43,-136,-136,-102,-87,-63
-58,-68,-9,63,-24,-39,-43,-131,-141,-107,-92,-63
-58,-73,-14,65,-21,-43,-43,-131,-146,-112,-97,-63
-63,-73,-9,68,-26,-41,-39,-136,-146,-112,-97,-63
-63,-73,-9,68,-26,-41,-39,-136,-146,-107,-92,-63
-58,-73,-14,65,-21,-43,-39,-136,-146,-107,-92,-68
-58,-73,-14,65,-21,-43,-39,-136,-141,-112,-92,-73
-58,-73,-14,65,-21,-43,-34,-136,-136,-112,-92,-73
-63,-73,-9,68,-26,-41,-29,-136,-136,-112,-97,-73
-63,-73,-9,68,-26,-41,-29,-136,-136,-117,-102,-73
-63,-68,-4,65,-29,-36,-34,-136,-136,-122,-102,-73
-58,-68,-9,63,-24,-39,-39,-131,-136,-122,-102,-68
-58,-68,-9,63,-24,-39,-39,-131,-136,-122,-102,-63
-53,-68,-14,61,-19,-41,-39,-131,-136,-117,-97,-63
-53,-68,-14,61,-19,-41,-39,-131,-136,-112,-92,-63
-53,-68,-14,61,-19,-41,-34,-126,-136,-112,-92,-63
-48,-68,-19,58,-14,-43,-29,-122,-136,-107,-92,-63
-48,-68,-19,58,-14,-43,-29,-122,-131,-107,-92,-63
-48,-73,-24,61,-12,-48,-29,-117,-131,-107,-92,-63
-48,-73,-24,61,-12,-48,-29,-117,-131,-107,-87,-63
-48,-73,-24,61,-12,-48,-29,-117,-131,-107,-82,-63
-48,-68,-19,58,-14,-43,-34,-117,-131,-102,-82,-63
-48,-68,-19,58,-14,-43,-34,-117,-131,-102,-82,-58
-53,-68,-14,61,-19,-41,-34,-117,-131,-102,-82,-63
-58,-68,-9,63,-24,-39,-34,-117,-126,-102,-87,-68
-58,-68,-9,63,-24,-39,-29,-112,-122,-102,-87,-68
-58,-68,-9,63,-24,-39,-24,-112,-122,-102,-87,-68
-58,-63,-4,61,-26,-34,-24,-112,-122,-102,-87,-63
-58,-58,0,58,-29,-29,-24,-112,-122,-97,-82,-63
-48,-58,-9,53,-19,-34,-24,-112,-122,-97,-82,-63
-39,-53,-14,46,-12,-34,-29,-112,-117,-92,-73,-58
-34,-53,-19,43,-7,-36,-34,-102,-126,-102,-78,-58
-24,-58,-34,41,4,-46,-43,-82,-122,-102,-78,-58
-14,-73,-58,43,21,-65,-34,19,14,-29,-39,-43
-14,-68,-53,41,19,-61,-68,4,97,43,19,-4
-14,-9,4,12,-9,-2,-82,-82,165,141,102,53
-14,102,117,-43,-65,109,-151,-297,165,331,331,253
-9,258,268,-124,-139,263,-248,-746,-24,575,697,614
29,439,409,-234,-190,424,-385,-1141,-244,819,1112,1029
117,688,570,-402,-226,629,-697,-1644,-497,1083,1644,1566
151,936,785,-544,-317,861,-1024,-2171,-922,1058,1888,1898
78,1171,1093,-624,-507,1132,-1361,-2849,-1747,463,1483,1771
-4,1332,1337,-663,-671,1334,-1542,-3294,-2435,-292,893,1512
-19,976,995,-478,-507,985,-1478,-3240,-2962,-1312,-117,854
-92,453,546,-180,-319,500,-1302,-2967,-3235,-2186,-1151,39
-107,224,331,-58,-219,278,-1063,-2303,-2620,-1976,-1210,-204
-102,73,175,14,-139,124,-722,-1473,-1708,-1415,-951,-234
-68,39,107,14,-87,73,-434,-844,-990,-878,-619,-204
-53,34,87,9,-70,61,-258,-463,-570,-536,-395,-175
-63,0,63,31,-63,31,-165,-331,-429,-414,-341,-204
-63,-53,9,58,-36,-21,-78,-195,-302,-317,-287,-214
-58,-63,-4,61,-26,-34,-19,-58,-161,-214,-224,-190
-53,-68,-14,61,-19,-41,19,43,-39,-97,-136,-136
-34,-68,-34,51,0,-51,43,78,29,-29,-68,-92
-19,-68,-48,43,14,-58,63,102,48,-9,-34,-82
-9,-78,-68,43,29,-73,68,126,63,-9,-43,-82
-19,-87,-68,53,24,-78,68,136,78,-4,-43,-92
-19,-87,-68,53,24,-78,73,136,87,4,-34,-87
-19,-92,-73,56,26,-82,82,141,92,14,-24,-78
-14,-92,-78,53,31,-85,82,156,97,24,-24,-78
-14,-92,-78,53,31,-85,82,161,107,29,-24,-78
-19,-97,-78,58,29,-87,82,161,122,34,-24,-78
-19,-102,-82,61,31,-92,87,165,126,39,-19,-78
-19,-102,-82,61,31,-92,87,170,126,39,-19,-78
-19,-102,-82,61,31,-92,87,170,131,39,-19,-78
-19,-107,-87,63,34,-97,92,175,131,39,-19,-78
-19,-107,-87,63,34,-97,102,175,136,34,-19,-78
-24,-107,-82,65,29,-95,102,185,141,39,-19,-78
-24,-107,-82,65,29,-95,102,185,141,39,-19,-78
-19,-112,-92,65,36,-102,107,190,141,39,-19,-78
-19,-112,-92,65,36,-102,107,195,146,43,-19,-78
-19,-112,-92,65,36,-102,107,195,151,43,-19,-82
-14,-117,-102,65,43,-109,107,200,156,43,-19,-82
-14,-117,-102,65,43,-109,112,204,156,48,-19,-92
-14,-117,-102,65,43,-109,112,209,161,48,-19,-97
-14,-117,-102,65,43,-109,112,214,165,48,-19,-97
-14,-117,-102,65,43,-109,117,224,170,48,-19,-97
-14,-122,-107,68,46,-114,117,229,175,53,-19,-97
-14,-126,-112,70,48,-119,117,239,185,58,-14,-92
-9,-126,-117,68,53,-122,122,248,185,63,-14,-87
-9,-131,-122,70,56,-126,126,253,195,63,-14,-87
-4,-131,-126,68,61,-129,131,263,200,63,-14,-97
-4,-131,-126,68,61,-129,131,273,200,68,-14,-97
-4,-131,-126,68,61,-129,136,278,204,68,-9,-102
-4,-136,-131,70,63,-134,141,287,214,82,-9,-102
-9,-136,-126,73,58,-131,146,302,224,87,-9,-102
-9,-131,-122,70,56,-126,146,312,234,92,-9,-102
-9,-131,-122,70,56,-126,146,331,244,92,-9,-107
-9,-126,-117,68,53,-122,151,346,253,97,-9,-107
-9,-126,-117,68,53,-122,156,356,273,102,-4,-107
-4,-122,-117,63,56,-119,156,375,287,102,-4,-107
4,-122,-126,58,65,-124,165,400,297,112,0,-107
4,-122,-126,58,65,-124,161,419,312,122,0,-107
4,-126,-131,61,68,-129,170,439,331,136,0,-112
4,-126,-131,61,68,-129,180,458,351,151,4,-112
14,-126,-141,56,78,-134,185,483,380,151,4,-112
29,-122,-151,46,90,-136,190,512,400,161,9,-112
29,-117,-146,43,87,-131,195,536,419,170,19,-117
34,-112,-146,39,90,-129,200,566,444,185,24,-122
34,-102,-136,34,85,-119,209,590,473,200,29,-126
43,-97,-141,26,92,-119,219,619,488,209,29,-131
48,-87,-136,19,92,-112,229,653,517,224,24,-136
48,-82,-131,17,90,-107,234,697,551,248,29,-136
58,-73,-131,7,95,-102,248,736,590,263,39,-136
63,-63,-126,0,95,-95,258,775,629,283,43,-141
68,-53,-122,-7,95,-87,258,819,663,297,48,-141
78,-39,-117,-19,97,-78,268,858,702,322,48,-141
87,-29,-117,-29,102,-73,278,897,746,341,53,-146
92,-14,-107,-39,100,-61,292,932,780,361,58,-146
102,0,-102,-51,102,-51,307,966,810,380,68,-146
112,24,-87,-68,100,-31,317,990,849,395,73,-151
112,39,-73,-75,92,-17,317,1019,878,414,73,-151
117,53,-63,-85,90,-4,317,1039,907,424,82,-141
122,78,-43,-100,82,17,317,1044,932,448,82,-141
122,102,-19,-112,70,41,317,1054,956,463,87,-131
126,131,4,-129,61,68,317,1039,961,473,92,-131
131,165,34,-148,48,100,307,1019,956,473,92,-117
126,195,68,-161,29,131,287,980,941,468,92,-112
126,224,97,-175,14,161,283,936,917,468,92,-107
117,244,126,-180,-4,185,268,873,878,458,92,-92
102,263,161,-183,-29,212,248,805,829,439,92,-87
97,268,170,-183,-36,219,229,727,775,414,87,-73
87,273,185,-180,-48,229,209,649,717,390,87,-58
82,273,190,-178,-53,231,180,570,644,361,78,-48
68,268,200,-168,-65,234,156,478,575,326,73,-34
58,253,195,-156,-68,224,131,405,502,292,73,-19
48,229,180,-139,-65,204,122,336,434,263,78,0
34,204,170,-119,-68,187,97,268,370,229,78,9
29,180,151,-104,-61,165,73,204,302,200,73,19
29,161,131,-95,-51,146,53,156,244,170,68,29
24,126,102,-75,-39,114,43,107,185,141,68,39
14,107,92,-61,-39,100,34,68,141,117,63,39
14,87,73,-51,-29,80,19,29,102,92,53,39
4,63,58,-34,-26,61,14,0,68,63,48,43
4,48,43,-26,-19,46,9,-19,34,43,43,43
0,29,29,-14,-14,29,0,-34,0,24,39,43
0,14,14,-7,-7,14,0,-48,-14,4,29,34
-4,9,14,-2,-9,12,0,-63,-43,-9,19,24
-9,0,9,4,-9,4,-4,-73,-58,-19,14,19
-14,-19,-4,17,-4,-12,-14,-82,-68,-29,9,19
-14,-29,-14,21,0,-21,-19,-87,-78,-39,4,14
-14,-34,-19,24,2,-26,-19,-92,-78,-43,0,9
-14,-43,-29,29,7,-36,-19,-97,-82,-43,-4,9
-19,-48,-29,34,4,-39,-19,-97,-87,-43,-4,4
-19,-48,-29,34,4,-39,-19,-97,-92,-48,-9,0
-14,-48,-34,31,9,-41,-19,-97,-92,-48,-14,0
-14,-43,-29,29,7,-36,-19,-97,-92,-48,-19,0
-14,-48,-34,31,9,-41,-19,-97,-92,-48,-19,0
-9,-48,-39,29,14,-43,-19,-97,-92,-48,-19,0
-14,-48,-34,31,9,-41,-19,-92,-92,-48,-19,0
-19,-53,-34,36,7,-43,-19,-92,-92,-53,-24,-4
-24,-53,-29,39,2,-41,-19,-92,-87,-53,-24,-4
-24,-53,-29,39,2,-41,-19,-92,-87,-53,-24,-9
-19,-53,-34,36,7,-43,-19,-87,-82,-53,-24,-4
-19,-58,-39,39,9,-48,-14,-87,-82,-48,-24,0
-14,-53,-39,34,12,-46,-9,-82,-82,-43,-24,0
-14,-53,-39,34,12,-46,-9,-82,-78,-43,-24,0
-14,-53,-39,34,12,-46,-14,-82,-78,-43,-24,0
-14,-53,-39,34,12,-46,-14,-78,-78,-48,-24,-4
-14,-58,-43,36,14,-51,-14,-73,-78,-48,-24,-4
-14,-63,-48,39,17,-56,-9,-68,-73,-43,-24,-4
-19,-68,-48,43,14,-58,-9,-68,-73,-43,-24,-4
-19,-68,-48,43,14,-58,-9,-68,-78,-48,-24,-4
-19,-68,-48,43,14,-58,-9,-68,-78,-48,-24,-9
-19,-73,-53,46,17,-63,-9,-68,-78,-48,-24,-14
-19,-73,-53,46,17,-63,-4,-68,-78,-48,-24,-14
-19,-73,-53,46,17,-63,-4,-68,-78,-48,-19,-14
-19,-73,-53,46,17,-63,-4,-68,-78,-48,-24,-14
-19,-73,-53,46,17,-63,-4,-73,-82,-48,-29,-14
-19,-73,-53,46,17,-63,-9,-73,-82,-53,-29,-14
-19,-63,-43,41,12,-53,-9,-78,-82,-53,-29,-14
-19,-63,-43,41,12,-53,-9,-78,-87,-53,-29,-14
-24,-68,-43,46,9,-56,-9,-82,-92,-58,-29,-14
-29,-78,-48,53,9,-63,-9,-82,-92,-58,-29,-19
-29,-78,-48,53,9,-63,-9,-82,-92,-63,-29,-19
-34,-78,-43,56,4,-61,-9,-87,-97,-63,-34,-19
-39,-73,-34,56,-2,-53,-9,-87,-97,-63,-34,-14
-34,-73,-39,53,2,-56,-9,-87,-102,-68,-39,-9
-34,-68,-34,51,0,-51,-9,-92,-102,-68,-39,-9
-34,-68,-34,51,0,-51,-9,-92,-107,-73,-43,-19
-34,-73,-39,53,2,-56,-14,-97,-107,-73,-43,-24
-34,-78,-43,56,4,-61,-14,-97,-107,-73,-39,-24
-34,-78,-43,56,4,-61,-19,-97,-112,-73,-39,-24
-34,-73,-39,53,2,-56,-19,-102,-112,-73,-43,-19
-34,-73,-39,53,2,-56,-19,-102,-117,-78,-43,-14
-34,-73,-39,53,2,-56,-14,-97,-122,-78,-43,-14
-29,-73,-43,51,7,-58,-14,-97,-122,-78,-39,-19
-29,-73,-43,51,7,-58,-14,-102,-122,-78,-39,-19
-29,-73,-43,51,7,-58,-14,-102,-122,-78,-39,-19
-29,-68,-39,48,4,-53,-9,-112,-122,-78,-39,-19
-29,-68,-39,48,4,-53,-14,-117,-122,-78,-39,-19
-34,-73,-39,53,2,-56,-14,-117,-122,-78,-39,-19
-39,-73,-34,56,-2,-53,-19,-117,-122,-78,-39,-19
-39,-73,-34,56,-2,-53,-24,-117,-126,-78,-39,-19
-39,-73,-34,56,-2,-53,-24,-117,-131,-82,-43,-19
-39,-73,-34,56,-2,-53,-24,-117,-131,-82,-48,-19
-39,-73,-34,56,-2,-53,-24,-117,-131,-82,-53,-19
-39,-73,-34,56,-2,-53,-24,-112,-126,-87,-48,-24
-34,-73,-39,53,2,-56,-24,-107,-122,-87,-48,-29
-34,-73,-39,53,2,-56,-24,-107,-126,-87,-53,-29
-34,-73,-39,53,2,-56,-24,-112,-126,-87,-53,-29
-39,-78,-39,58,0,-58,-29,-112,-122,-92,-53,-29
-39,-78,-39,58,0,-58,-29,-112,-122,-92,-53,-29
-39,-78,-39,58,0,-58,-29,-112,-122,-92,-53,-29
-39,-78,-39,58,0,-58,-29,-107,-122,-92,-53,-29
-39,-78,-39,58,0,-58,-29,-112,-126,-87,-58,-29
-39,-78,-39,58,0,-58,-29,-117,-131,-87,-63,-29
-39,-78,-39,58,0,-58,-29,-117,-126,-92,-58,-24
-39,-78,-39,58,0,-58,-24,-117,-126,-97,-58,-24
-34,-68,-34,51,0,-51,-29,-117,-122,-87,-53,-19
-29,-68,-39,48,4,-53,-29,-112,-122,-87,-48,-24
-29,-68,-39,48,4,-53,-29,-112,-117,-87,-48,-24
-29,-73,-43,51,7,-58,-29,-112,-117,-87,-48,-24
-34,-73,-39,53,2,-56,-29,-107,-117,-87,-48,-19
-39,-58,-19,48,-9,-39,-19,-102,-107,-82,-43,-14
-34,-43,-9,39,-12,-26,-14,-87,-97,-68,-34,-9
-34,-34,0,34,-17,-17,-4,-82,-87,-63,-29,-4
-24,-14,9,19,-17,-2,4,-68,-68,-53,-19,4
-19,0,19,9,-19,9,24,-58,-58,-34,-9,14
-9,9,19,0,-14,14,29,-48,-48,-24,0,14
-4,24,29,-9,-17,26,34,-43,-43,-14,9,19
0,24,24,-12,-12,24,39,-24,-34,-9,14,29
9,29,19,-19,-4,24,48,-9,-29,-9,19,39
14,29,14,-21,0,21,53,9,-9,4,29,39
19,29,9,-24,4,19,58,29,9,19,39,39
19,34,14,-26,2,24,58,29,14,24,43,43
19,39,19,-29,0,29,58,29,19,29,48,48
19,53,34,-36,-7,43,39,14,19,29,58,63
19,68,48,-43,-14,58,19,0,19,29,68,78
24,68,43,-46,-9,56,-4,-39,-4,19,53,68
29,68,39,-48,-4,53,-29,-78,-29,9,39,58
29,58,29,-43,0,43,-39,-87,-43,-4,29,53
29,48,19,-39,4,34,-48,-97,-58,-19,19,48
29,48,19,-39,4,34,-58,-97,-58,-19,19,48
29,48,19,-39,4,34,-68,-97,-58,-19,19,48
29,58,29,-43,0,43,-73,-102,-63,-19,19,53
29,68,39,-48,-4,53,-78,-107,-68,-19,19,58
34,82,48,-58,-7,65,-78,-117,-68,-9,29,68
39,97,58,-68,-9,78,-78,-126,-68,0,39,78
34,97,63,-65,-14,80,-78,-126,-63,4,48,82
24,78,53,-51,-14,65,-73,-126,-68,0,39,73
14,58,43,-36,-14,51,-73,-126,-73,-9,34,63
0,34,34,-17,-17,34,-63,-141,-87,-29,14,48
-19,4,24,7,-21,14,-63,-146,-122,-68,-24,19
-29,-34,-4,31,-12,-19,-63,-151,-141,-87,-48,-4
-39,-53,-14,46,-12,-34,-58,-151,-141,-92,-53,-19
-48,-82,-34,65,-7,-58,-48,-146,-146,-102,-63,-39
-48,-92,-43,70,-2,-68,-43,-136,-146,-102,-68,-39
-48,-102,-53,75,2,-78,-43,-136,-146,-102,-68,-43
-48,-102,-53,75,2,-78,-43,-131,-141,-102,-68,-43
-48,-107,-58,78,4,-82,-43,-122,-141,-107,-73,-48
-48,-112,-63,80,7,-87,-43,-122,-146,-117,-82,-53
-53,-112,-58,82,2,-85,-39,-126,-146,-122,-87,-53
-58,-112,-53,85,-2,-82,-39,-126,-151,-117,-82,-53
-58,-117,-58,87,0,-87,-39,-122,-156,-117,-82,-53
-58,-122,-63,90,2,-92,-39,-117,-151,-122,-82,-53
-58,-122,-63,90,2,-92,-34,-117,-146,-122,-82,-53
-63,-122,-58,92,-2,-90,-29,-117,-146,-122,-87,-58
-63,-122,-58,92,-2,-90,-29,-117,-146,-122,-87,-63
-63,-117,-53,90,-4,-85,-34,-122,-146,-122,-82,-63
-58,-117,-58,87,0,-87,-34,-122,-146,-122,-82,-63
-58,-117,-58,87,0,-87,-29,-122,-146,-122,-82,-63
-58,-117,-58,87,0,-87,-29,-122,-146,-122,-82,-63
-63,-117,-53,90,-4,-85,-29,-122,-146,-122,-82,-63
-63,-117,-53,90,-4,-85,-29,-122,-146,-122,-82,-63
-58,-117,-58,87,0,-87,-29,-122,-146,-117,-82,-63
-58,-112,-53,85,-2,-82,-29,-122,-141,-117,-82,-63
-58,-112,-53,85,-2,-82,-29,-117,-141,-117,-82,-63
-58,-112,-53,85,-2,-82,-29,-117,-141,-117,-82,-63
-53,-112,-58,82,2,-85,-29,-117,-136,-117,-82,-63
-48,-107,-58,78,4,-82,-29,-117,-131,-112,-82,-63
-48,-107,-58,78,4,-82,-24,-117,-131,-112,-82,-58
-48,-107,-58,78,4,-82,-24,-117,-131,-112,-78,-58
-48,-107,-58,78,4,-82,-24,-117,-131,-112,-78,-58
-48,-107,-58,78,4,-82,-24,-112,-131,-112,-78,-58
-48,-107,-58,78,4,-82,-24,-112,-131,-112,-78,-58
-48,-107,-58,78,4,-82,-24,-112,-131,-112,-78,-53
-48,-107,-58,78,4,-82,-24,-112,-131,-107,-73,-53
-48,-107,-58,78,4,-82,-24,-112,-131,-107,-73,-53
-48,-102,-53,75,2,-78,-24,-112,-126,-102,-63,-48
-43,-102,-58,73,7,-80,-24,-102,-117,-97,-58,-43
-34,-107,-73,70,19,-90,-34,-82,-97,-92,-58,-43
-24,-107,-82,65,29,-95,-39,-39,9,-29,-19,-24
-29,-107,-78,68,24,-92,-87,-87,68,19,14,-9
-34,-58,-24,46,-4,-41,-131,-244,48,73,78,48
-43,48,92,-2,-68,70,-219,-531,-39,234,287,244
-34,190,224,-78,-129,207,-356,-976,-283,414,595,551
48,356,307,-202,-129,331,-541,-1351,-517,668,1049,985
165,570,405,-368,-119,488,-854,-1820,-805,854,1488,1449
209,824,614,-517,-202,719,-1205,-2371,-1268,800,1712,1786
170,1010,839,-590,-334,924,-1493,-2908,-1927,336,1415,1727
131,1205,1073,-668,-470,1139,-1644,-3269,-2532,-414,849,1507
136,990,854,-563,-358,922,-1586,-3172,-2888,-1210,78,1029
43,483,439,-263,-197,461,-1385,-2864,-3108,-2030,-946,234
4,297,292,-151,-143,295,-1137,-2293,-2625,-1932,-1098,-29
-9,200,209,-95,-109,204,-736,-1395,-1576,-1244,-746,-19
-14,131,146,-58,-80,139,-439,-790,-878,-746,-473,-39
-29,73,102,-21,-65,87,-263,-463,-541,-478,-317,-73
-43,0,43,21,-43,21,-151,-292,-375,-351,-273,-141
-48,-82,-34,65,-7,-58,-63,-146,-263,-283,-248,-175
-53,-102,-48,78,-2,-75,-4,-24,-131,-204,-204,-170
-53,-97,-43,75,-4,-70,39,58,-4,-82,-107,-117
-39,-97,-58,68,9,-78,68,97,63,-9,-43,-78
-29,-97,-68,63,19,-82,82,122,68,0,-24,-68
-19,-107,-87,63,34,-97,87,146,82,0,-34,-63
-29,-117,-87,73,29,-102,87,156,97,4,-34,-73
-29,-117,-87,73,29,-102,92,156,107,14,-24,-73
-29,-126,-97,78,34,-112,102,161,112,24,-9,-68
-24,-131,-107,78,41,-119,102,175,117,29,-4,-68
-24,-131,-107,78,41,-119,102,185,126,29,-4,-68
-29,-136,-107,82,39,-122,102,190,136,34,-4,-68
-29,-136,-107,82,39,-122,107,195,136,43,0,-68
-29,-131,-102,80,36,-117,107,200,136,48,0,-68
-29,-131,-102,80,36,-117,107,200,146,48,0,-68
-29,-136,-107,82,39,-122,107,204,151,53,0,-68
-29,-136,-107,82,39,-122,112,204,156,53,0,-68
-34,-136,-102,85,34,-119,112,214,161,58,0,-68
-34,-136,-102,85,34,-119,112,214,161,58,4,-68
-29,-141,-112,85,41,-126,117,219,161,58,9,-68
-29,-141,-112,85,41,-126,117,229,165,68,9,-68
-29,-141,-112,85,41,-126,117,234,170,73,9,-73
-24,-146,-122,85,48,-134,117,239,180,73,9,-73
-24,-146,-122,85,48,-134,122,244,185,78,9,-78
-24,-146,-122,85,48,-134,126,244,190,78,9,-78
-24,-146,-122,85,48,-134,131,244,195,78,9,-78
-29,-146,-117,87,43,-131,136,253,200,78,9,-78
-34,-146,-112,90,39,-129,136,258,204,82,9,-82
-34,-151,-117,92,41,-134,131,268,214,87,14,-82
-29,-151,-122,90,46,-136,131,278,214,92,14,-78
-24,-151,-126,87,51,-139,136,283,219,92,14,-78
-14,-151,-136,82,61,-143,141,292,224,92,14,-87
-14,-151,-136,82,61,-143,141,302,229,97,9,-87
-14,-151,-136,82,61,-143,141,307,234,97,9,-92
-19,-156,-136,87,58,-146,146,322,244,112,9,-92
-24,-156,-131,90,53,-143,156,341,253,117,9,-92
-19,-151,-131,85,56,-141,156,351,263,122,14,-92
-19,-151,-131,85,56,-141,156,370,273,122,19,-97
-19,-146,-126,82,53,-136,161,385,283,126,19,-97
-19,-146,-126,82,53,-136,165,395,302,136,24,-97
-14,-141,-126,78,56,-134,165,409,317,136,19,-97
-4,-141,-136,73,65,-139,180,429,326,141,19,-97
-4,-141,-136,73,65,-139,175,448,341,151,19,-97
-4,-141,-136,73,65,-139,180,468,361,161,19,-102
-4,-136,-131,70,63,-134,190,488,380,170,24,-102
0,-136,-136,68,68,-136,195,512,405,170,24,-102
9,-131,-141,61,75,-136,204,541,419,180,29,-102
9,-126,-136,58,73,-131,214,566,439,190,34,-107
14,-122,-136,53,75,-129,224,590,463,204,34,-112
14,-112,-126,48,70,-119,234,614,497,219,39,-112
24,-102,-126,39,75,-114,239,649,517,229,39,-107
29,-87,-117,29,73,-102,248,683,546,244,39,-107
24,-82,-107,29,65,-95,253,727,580,268,48,-107
29,-73,-102,21,65,-87,268,761,614,283,58,-107
34,-63,-97,14,65,-80,278,795,649,302,63,-112
39,-53,-92,7,65,-73,283,839,683,317,68,-112
48,-39,-87,-4,68,-63,297,878,722,341,68,-112
58,-29,-87,-14,73,-58,307,917,761,361,73,-117
63,-14,-78,-24,70,-46,322,956,795,380,78,-117
73,0,-73,-36,73,-36,331,995,829,400,87,-117
82,24,-58,-53,70,-17,336,1019,868,414,92,-122
82,43,-39,-63,61,2,336,1049,893,434,92,-122
87,63,-24,-75,56,19,336,1073,922,448,102,-112
92,87,-4,-90,48,41,336,1083,946,473,107,-112
97,112,14,-104,41,63,336,1093,971,483,117,-102
102,136,34,-119,34,85,336,1073,976,492,122,-102
102,165,63,-134,19,114,326,1054,966,492,122,-87
97,195,97,-146,0,146,307,1015,951,488,122,-78
97,229,131,-163,-17,180,302,966,927,492,122,-73
92,253,161,-173,-34,207,283,897,888,483,122,-58
82,273,190,-178,-53,231,258,824,839,458,122,-48
78,278,200,-178,-61,239,239,746,785,434,117,-34
68,283,214,-175,-73,248,214,668,727,405,112,-19
63,283,219,-173,-78,251,180,590,653,370,97,-9
48,278,229,-163,-90,253,156,497,575,336,92,4
39,258,219,-148,-90,239,131,424,497,302,87,14
29,229,200,-129,-85,214,122,356,434,273,92,29
19,204,185,-112,-82,195,97,287,370,239,97,34
19,175,156,-97,-68,165,73,219,302,204,92,39
19,151,131,-85,-56,141,53,165,248,170,87,43
14,112,97,-63,-41,104,39,117,190,141,87,48
4,87,82,-46,-39,85,24,78,141,117,78,48
4,68,63,-36,-29,65,9,39,97,92,63,48
-4,43,48,-19,-26,46,4,9,58,63,53,53
-4,29,34,-12,-19,31,0,-14,24,43,43,53
-9,9,19,0,-14,14,-9,-34,-4,29,39,53
-9,-4,4,7,-7,0,-9,-48,-14,9,29,43
-14,-9,4,12,-9,-2,-9,-63,-39,-9,19,34
-19,-19,0,19,-9,-9,-14,-73,-48,-19,9,29
-24,-34,-9,29,-7,-21,-19,-78,-58,-29,0,29
-24,-39,-14,31,-4,-26,-24,-78,-73,-39,-4,24
-24,-39,-14,31,-4,-26,-29,-82,-78,-43,-9,19
-24,-48,-24,36,0,-36,-29,-87,-82,-48,-14,19
-29,-58,-29,43,0,-43,-29,-87,-87,-53,-14,14
-29,-58,-29,43,0,-43,-29,-87,-87,-58,-19,9
-29,-63,-34,46,2,-48,-29,-87,-82,-58,-19,9
-34,-63,-29,48,-2,-46,-29,-87,-82,-53,-19,4
-34,-68,-34,51,0,-51,-29,-87,-82,-48,-19,0
-29,-68,-39,48,4,-53,-29,-87,-82,-48,-19,0
-29,-68,-39,48,4,-53,-29,-82,-82,-48,-19,0
-29,-73,-43,51,7,-58,-29,-82,-87,-53,-24,-4
-34,-73,-39,53,2,-56,-29,-82,-87,-53,-24,-4
-39,-73,-34,56,-2,-53,-29,-82,-87,-53,-24,-9
-39,-73,-34,56,-2,-53,-29,-78,-82,-53,-24,-9
-39,-78,-39,58,0,-58,-24,-78,-82,-48,-24,-9
-39,-78,-39,58,0,-58,-19,-73,-82,-43,-24,-9
-48,-82,-34,65,-7,-58,-19,-73,-73,-43,-24,-9
-53,-82,-29,68,-12,-56,-24,-73,-68,-43,-24,-9
-53,-82,-29,68,-12,-56,-24,-68,-68,-48,-24,-14
-53,-82,-29,68,-12,-56,-24,-68,-68,-48,-24,-14
-48,-82,-34,65,-7,-58,-14,-68,-63,-43,-24,-14
-48,-87,-39,68,-4,-63,-9,-68,-63,-43,-24,-14
-48,-87,-39,68,-4,-63,-9,-68,-68,-48,-24,-14
-48,-87,-39,68,-4,-63,-9,-68,-68,-48,-24,-19
-48,-92,-43,70,-2,-68,-14,-68,-68,-48,-24,-24
-48,-92,-43,70,-2,-68,-14,-68,-68,-48,-29,-24
-48,-92,-43,70,-2,-68,-14,-68,-73,-48,-29,-24
-48,-92,-43,70,-2,-68,-14,-68,-78,-48,-34,-24
-48,-92,-43,70,-2,-68,-14,-73,-82,-48,-43,-24
-48,-92,-43,70,-2,-68,-19,-73,-82,-53,-48,-24
-48,-82,-34,65,-7,-58,-19,-78,-82,-58,-48,-24
-48,-82,-34,65,-7,-58,-19,-78,-87,-63,-48,-24
-53,-87,-34,70,-9,-61,-19,-82,-92,-68,-48,-24
-58,-97,-39,78,-9,-68,-19,-82,-92,-68,-48,-29
-58,-97,-39,78,-9,-68,-19,-82,-92,-73,-48,-29
-58,-97,-39,78,-9,-68,-19,-87,-97,-73,-53,-34
-58,-87,-29,73,-14,-58,-19,-92,-97,-73,-53,-34
-53,-82,-29,68,-12,-56,-19,-97,-102,-78,-58,-29
-53,-78,-24,65,-14,-51,-19,-102,-102,-78,-53,-29
-53,-78,-24,65,-14,-51,-19,-102,-107,-82,-53,-34
-53,-82,-29,68,-12,-56,-24,-107,-107,-82,-53,-34
-53,-87,-34,70,-9,-61,-24,-107,-107,-82,-48,-34
-53,-87,-34,70,-9,-61,-29,-107,-112,-82,-53,-34
-53,-82,-29,68,-12,-56,-29,-112,-112,-82,-63,-34
-58,-82,-24,70,-17,-53,-29,-112,-117,-87,-63,-34
-63,-82,-19,73,-21,-51,-24,-112,-117,-87,-63,-34
-58,-82,-24,70,-17,-53,-24,-112,-117,-87,-58,-34
-58,-82,-24,70,-17,-53,-24,-112,-122,-87,-58,-29
-58,-82,-24,70,-17,-53,-24,-107,-122,-87,-58,-29
-58,-78,-19,68,-19,-48,-24,-107,-122,-87,-58,-29
-53,-78,-24,65,-14,-51,-34,-107,-122,-87,-58,-29
-48,-82,-34,65,-7,-58,-34,-107,-122,-87,-58,-29
-48,-82,-34,65,-7,-58,-39,-112,-122,-87,-58,-34
-48,-82,-34,65,-7,-58,-39,-117,-122,-87,-58,-39
-48,-82,-34,65,-7,-58,-34,-117,-122,-92,-63,-39
-48,-82,-34,65,-7,-58,-34,-117,-122,-92,-63,-39
-53,-82,-29,68,-12,-56,-34,-117,-122,-92,-63,-39
-58,-82,-24,70,-17,-53,-34,-117,-122,-92,-58,-39
-53,-78,-24,65,-14,-51,-34,-112,-122,-87,-58,-39
-53,-73,-19,63,-17,-46,-34,-107,-126,-87,-63,-39
-53,-73,-19,63,-17,-46,-34,-112,-126,-82,-63,-34
-58,-78,-19,68,-19,-48,-34,-112,-122,-82,-63,-29
-58,-78,-19,68,-19,-48,-29,-117,-122,-82,-63,-29
-58,-78,-19,68,-19,-48,-29,-122,-122,-82,-63,-29
-58,-82,-24,70,-17,-53,-29,-117,-122,-87,-63,-29
-58,-87,-29,73,-14,-58,-29,-117,-122,-87,-63,-29
-58,-92,-34,75,-12,-63,-34,-122,-122,-87,-68,-39
-58,-97,-39,78,-9,-68,-39,-122,-117,-87,-68,-43
-58,-97,-39,78,-9,-68,-39,-117,-122,-92,-73,-48
-58,-87,-29,73,-14,-58,-43,-117,-122,-87,-73,-43
-58,-87,-29,73,-14,-58,-39,-112,-126,-87,-68,-43
-58,-87,-29,73,-14,-58,-39,-112,-126,-87,-68,-43
-58,-92,-34,75,-12,-63,-39,-117,-126,-87,-73,-43
-58,-92,-34,75,-12,-63,-39,-117,-126,-87,-78,-43
-63,-87,-24,75,-19,-56,-34,-117,-126,-92,-73,-43
-63,-87,-24,75,-19,-56,-34,-107,-126,-87,-63,-39
-63,-82,-19,73,-21,-51,-24,-112,-117,-82,-63,-34
-53,-63,-9,58,-21,-36,-24,-112,-102,-78,-58,-24
-53,-53,0,53,-26,-26,-9,-97,-92,-68,-53,-19
-43,-39,4,41,-24,-17,-4,-82,-78,-53,-39,-4
-39,-24,14,31,-26,-4,4,-63,-68,-39,-29,0
-39,-9,29,24,-34,9,19,-48,-58,-29,-19,9
-39,-9,29,24,-34,9,29,-43,-48,-29,-19,9
-39,-9,29,24,-34,9,39,-39,-39,-29,-19,9
-29,-4,24,17,-26,9,43,-19,-29,-14,-9,14
-19,0,19,9,-19,9,48,0,-19,0,0,19
-9,4,14,2,-12,9,53,19,-4,4,9,24
0,9,9,-4,-4,9,58,39,9,9,19,29
0,24,24,-12,-12,24,58,39,19,19,29,39
0,39,39,-19,-19,39,58,39,29,29,39,48
0,53,53,-26,-26,53,43,24,29,29,39,53
0,68,68,-34,-34,68,29,9,29,29,39,58
0,58,58,-29,-29,58,-4,-34,4,19,34,58
0,48,48,-24,-24,48,-39,-78,-19,9,29,58
0,34,34,-17,-17,34,-48,-87,-34,-4,19,48
0,19,19,-9,-9,19,-58,-97,-48,-19,9,39
4,29,24,-17,-9,26,-63,-102,-53,-19,9,39
9,39,29,-24,-9,34,-68,-107,-58,-19,9,39
14,43,29,-29,-7,36,-73,-107,-63,-19,9,48
19,48,29,-34,-4,39,-78,-107,-68,-19,9,58
19,68,48,-43,-14,58,-78,-117,-68,-19,19,63
19,87,68,-53,-24,78,-78,-126,-68,-19,29,68
19,82,63,-51,-21,73,-78,-126,-68,-9,34,82
9,58,48,-34,-19,53,-73,-126,-73,-14,24,73
4,39,34,-21,-14,36,-73,-126,-82,-19,14,63
-9,14,24,-2,-17,19,-63,-141,-97,-39,-4,39
-39,-14,24,26,-31,4,-63,-146,-122,-78,-39,9
-58,-53,4,56,-31,-24,-63,-151,-131,-97,-58,-14
-63,-68,-4,65,-29,-36,-58,-151,-131,-102,-63,-24
-68,-92,-24,80,-21,-58,-48,-146,-136,-112,-73,-39
-68,-97,-29,82,-19,-63,-43,-136,-136,-112,-78,-43
-68,-102,-34,85,-17,-68,-43,-136,-136,-112,-78,-53
-68,-102,-34,85,-17,-68,-43,-136,-136,-112,-78,-53
-68,-107,-39,87,-14,-73,-43,-131,-141,-117,-82,-58
-68,-112,-43,90,-12,-78,-43,-131,-146,-122,-87,-63
-73,-112,-39,92,-17,-75,-39,-136,-146,-122,-87,-63
-73,-112,-39,92,-17,-75,-39,-136,-146,-117,-82,-63
-68,-117,-48,92,-9,-82,-39,-131,-146,-117,-82,-63
-68,-122,-53,95,-7,-87,-39,-122,-141,-117,-82,-58
-68,-122,-53,95,-7,-87,-34,-117,-136,-112,-82,-53
-73,-122,-48,97,-12,-85,-29,-117,-136,-112,-87,-53
-73,-122,-48,97,-12,-85,-29,-117,-136,-112,-87,-53
-73,-117,-43,95,-14,-80,-34,-117,-136,-112,-82,-58
-68,-117,-48,92,-9,-82,-34,-112,-136,-112,-82,-63
-68,-117,-48,92,-9,-82,-29,-117,-136,-117,-82,-63
-68,-117,-48,92,-9,-82,-29,-122,-136,-122,-82,-63
-68,-117,-48,92,-9,-82,-29,-122,-136,-122,-82,-63
-63,-117,-53,90,-4,-85,-29,-122,-136,-122,-82,-63
-58,-117,-58,87,0,-87,-29,-122,-136,-117,-82,-63
-58,-112,-53,85,-2,-82,-29,-122,-131,-117,-82,-63
-58,-112,-53,85,-2,-82,-29,-117,-131,-117,-82,-63
-58,-112,-53,85,-2,-82,-29,-117,-131,-117,-82,-63
-58,-112,-53,85,-2,-82,-29,-117,-131,-117,-82,-63
-58,-107,-48,82,-4,-78,-29,-117,-131,-112,-82,-63
-58,-107,-48,82,-4,-78,-24,-117,-131,-112,-82,-58
-58,-107,-48,82,-4,-78,-24,-117,-131,-112,-78,-58
-58,-107,-48,82,-4,-78,-24,-117,-126,-112,-78,-58
-58,-107,-48,82,-4,-78,-24,-112,-122,-112,-78,-58
-58,-107,-48,82,-4,-78,-24,-112,-122,-112,-78,-58
-58,-107,-48,82,-4,-78,-24,-112,-122,-112,-78,-53
-63,-107,-43,85,-9,-75,-24,-112,-122,-107,-73,-53
-68,-107,-39,87,-14,-73,-24,-112,-122,-107,-73,-53
-68,-102,-34,85,-17,-68,-29,-112,-122,-102,-63,-48
-63,-102,-39,82,-12,-70,-34,-102,-117,-97,-58,-43
-53,-107,-53,80,0,-80,-34,-82,-102,-97,-53,-39
-43,-107,-63,75,9,-85,-29,-39,0,-39,-9,-14
-48,-102,-53,75,2,-78,-68,-92,78,24,24,0
-53,-48,4,51,-29,-21,-102,-253,78,92,87,58
-53,63,117,-4,-85,90,-195,-561,4,229,268,229
-34,209,244,-87,-139,226,-336,-1024,-224,385,546,512
19,361,341,-190,-161,351,-502,-1439,-488,590,936,922
107,561,453,-334,-173,507,-795,-1947,-805,727,1312,1361
170,819,649,-495,-239,734,-1171,-2513,-1268,678,1561,1703
151,1010,858,-580,-353,934,-1483,-3064,-1927,219,1288,1649
102,1190,1088,-646,-492,1139,-1625,-3420,-2513,-468,746,1420
97,961,863,-529,-383,912,-1556,-3318,-2849,-1200,0,932
4,414,409,-209,-202,412,-1366,-2976,-3079,-2039,-1029,112
-34,190,224,-78,-129,207,-1127,-2371,-2605,-1961,-1185,-175
-43,87,131,-21,-87,109,-717,-1444,-1581,-1288,-834,-146
-43,14,58,14,-51,36,-409,-810,-907,-805,-561,-146
-58,-14,43,36,-51,14,-253,-483,-570,-536,-390,-146
-73,-58,14,65,-43,-21,-161,-312,-405,-409,-331,-180
-78,-136,-58,107,-9,-97,-63,-165,-292,-326,-287,-200
-82,-151,-68,117,-7,-109,4,-43,-161,-234,-224,-180
-82,-131,-48,107,-17,-90,39,48,-34,-107,-126,-126
-68,-117,-48,92,-9,-82,58,97,34,-29,-63,-87
-53,-117,-63,85,4,-90,78,126,48,-14,-39,-73
-39,-126,-87,82,24,-107,87,156,73,-9,-43,-63
-48,-146,-97,97,24,-122,87,165,87,-4,-39,-73
-48,-156,-107,102,29,-131,92,165,97,4,-24,-73
-53,-161,-107,107,26,-134,102,170,97,14,-14,-68
-53,-161,-107,107,26,-134,102,185,97,19,-14,-68
-53,-156,-102,104,24,-129,102,190,107,19,-19,-73
-58,-156,-97,107,19,-126,102,190,117,24,-24,-78
-58,-161,-102,109,21,-131,107,195,117,29,-19,-78
-58,-161,-102,109,21,-131,107,200,117,29,-19,-78
-58,-161,-102,109,21,-131,107,200,126,29,-14,-73
-58,-165,-107,112,24,-136,107,204,131,34,-9,-68
-58,-165,-107,112,24,-136,112,204,136,34,-9,-68
-63,-165,-102,114,19,-134,112,214,141,39,-9,-68
-63,-165,-102,114,19,-134,112,214,141,34,-9,-73
-58,-170,-112,114,26,-141,117,219,141,29,-9,-78
-63,-170,-107,117,21,-139,117,224,146,34,-9,-78
-68,-170,-102,119,17,-136,117,224,151,34,-9,-82
-63,-175,-112,119,24,-143,117,229,156,34,-9,-78
-63,-175,-112,119,24,-143,122,234,156,39,-9,-78
-58,-175,-117,117,29,-146,122,239,161,39,-14,-78
-53,-175,-122,114,34,-148,122,244,165,39,-19,-78
-53,-175,-122,114,34,-148,126,253,165,39,-19,-82
-53,-175,-122,114,34,-148,126,258,165,43,-19,-92
-58,-180,-122,119,31,-151,126,268,175,48,-14,-92
-58,-180,-122,119,31,-151,131,278,175,53,-14,-87
-63,-180,-117,122,26,-148,136,283,180,53,-19,-87
-63,-180,-117,122,26,-148,141,292,185,53,-24,-97
-63,-180,-117,122,26,-148,141,302,190,58,-24,-97
-63,-180,-117,122,26,-148,141,307,195,58,-19,-102
-58,-185,-126,122,34,-156,141,317,204,73,-19,-102
-53,-185,-131,119,39,-158,146,331,214,78,-19,-102
-48,-185,-136,117,43,-161,146,336,219,82,-19,-102
-48,-190,-141,119,46,-165,146,351,224,82,-19,-107
-53,-185,-131,119,39,-158,151,366,229,78,-24,-112
-58,-185,-126,122,34,-156,156,375,244,78,-24,-117
-53,-180,-126,117,36,-153,151,395,258,82,-24,-117
-43,-180,-136,112,46,-158,161,419,268,92,-19,-117
-39,-185,-146,112,53,-165,161,439,283,102,-14,-112
-34,-190,-156,112,61,-173,170,458,302,112,-9,-112
-34,-185,-151,109,58,-168,175,478,317,122,-4,-112
-29,-185,-156,107,63,-170,175,502,336,122,-4,-112
-19,-180,-161,100,70,-170,180,531,346,131,0,-117
-19,-175,-156,97,68,-165,185,556,361,141,4,-126
-19,-170,-151,95,65,-161,190,585,380,151,0,-131
-24,-161,-136,92,56,-148,195,614,409,161,0,-131
-14,-151,-136,82,61,-143,200,644,424,170,0,-126
-9,-136,-126,73,58,-131,209,673,448,185,0,-126
-9,-131,-122,70,56,-126,219,717,483,209,9,-126
0,-122,-122,61,61,-122,239,751,517,224,19,-126
4,-122,-126,58,65,-124,248,785,546,239,24,-136
9,-122,-131,56,70,-126,253,829,575,248,29,-141
19,-107,-126,43,73,-117,258,868,610,268,29,-141
29,-97,-126,34,78,-112,258,907,644,283,34,-146
34,-82,-117,24,75,-100,273,946,673,302,39,-146
43,-68,-112,12,78,-90,283,985,702,322,48,-146
53,-48,-102,-2,78,-75,287,1015,746,341,53,-151
53,-34,-87,-9,70,-61,287,1049,775,366,53,-151
58,-14,-73,-21,65,-43,287,1068,800,375,58,-141
63,9,-53,-36,58,-21,287,1073,819,395,58,-141
63,34,-29,-48,46,2,292,1088,844,405,68,-136
63,58,-4,-61,34,26,297,1073,849,414,73,-141
68,87,19,-78,24,53,287,1058,849,419,82,-126
68,117,48,-92,9,82,268,1024,844,419,92,-117
68,146,78,-107,-4,112,268,976,824,424,82,-117
63,165,102,-114,-19,134,253,907,790,414,73,-107
43,185,141,-114,-48,163,229,834,741,390,73,-97
29,190,161,-109,-65,175,209,756,688,366,68,-82
19,195,175,-107,-78,185,185,678,639,341,68,-68
14,195,180,-104,-82,187,151,600,575,312,58,-58
0,195,195,-97,-97,195,126,502,507,283,58,-43
-9,180,190,-85,-100,185,102,424,439,253,58,-34
-19,161,180,-70,-100,170,92,351,380,224,58,-14
-29,146,175,-58,-102,161,68,278,322,190,58,-4
-34,122,156,-43,-95,139,43,209,253,161,53,4
-39,102,141,-31,-90,122,24,156,200,131,48,14
-48,68,117,-9,-82,92,9,107,151,107,53,29
-63,48,112,7,-87,80,-4,68,112,87,48,39
-63,24,87,19,-75,56,-19,19,73,63,43,39
-73,-4,68,39,-70,31,-24,-19,39,34,43,43
-73,-19,53,46,-63,17,-29,-39,4,14,34,43
-78,-39,39,58,-58,0,-39,-53,-24,0,29,43
-78,-58,19,68,-48,-19,-43,-73,-34,-14,9,34
-82,-68,14,75,-48,-26,-48,-92,-58,-29,-9,24
-92,-78,14,85,-53,-31,-53,-107,-78,-39,-14,14
-102,-92,9,97,-56,-41,-58,-117,-97,-48,-19,9
-102,-92,9,97,-56,-41,-58,-117,-107,-63,-29,-4
-102,-87,14,95,-58,-36,-58,-122,-107,-73,-39,-19
-102,-92,9,97,-56,-41,-58,-126,-112,-73,-43,-19
-107,-97,9,102,-58,-43,-58,-126,-117,-73,-43,-24
-112,-107,4,109,-58,-51,-58,-126,-122,-78,-43,-14
-117,-122,-4,119,-56,-63,-58,-126,-122,-78,-39,0
-122,-122,0,122,-61,-61,-58,-126,-122,-78,-39,0
-122,-126,-4,124,-58,-65,-58,-126,-122,-78,-39,0
-112,-126,-14,119,-48,-70,-58,-126,-122,-82,-43,-4
-107,-126,-19,117,-43,-73,-58,-122,-122,-87,-48,-9
-107,-131,-24,119,-41,-78,-58,-122,-122,-92,-58,-19
-112,-131,-19,122,-46,-75,-58,-122,-117,-92,-63,-24
-117,-131,-14,124,-51,-73,-58,-122,-117,-92,-63,-29
-117,-131,-14,124,-51,-73,-58,-117,-112,-92,-63,-29
-117,-131,-14,124,-51,-73,-53,-117,-117,-92,-63,-29
-117,-126,-9,122,-53,-68,-48,-112,-122,-92,-63,-29
-122,-131,-9,126,-56,-70,-48,-112,-117,-92,-63,-29
-122,-131,-9,126,-56,-70,-53,-112,-117,-92,-63,-29
-126,-136,-9,131,-58,-73,-53,-107,-117,-97,-63,-34
-131,-141,-9,136,-61,-75,-53,-107,-117,-97,-63,-34
-131,-141,-9,136,-61,-75,-53,-112,-112,-92,-63,-34
-136,-146,-9,141,-63,-78,-58,-117,-112,-92,-63,-34
-131,-141,-9,136,-61,-75,-58,-122,-117,-97,-68,-39
-126,-136,-9,131,-58,-73,-58,-126,-117,-97,-73,-48
-126,-136,-9,131,-58,-73,-53,-126,-117,-97,-73,-53
-126,-131,-4,129,-61,-68,-43,-126,-117,-97,-78,-53
-122,-131,-9,126,-56,-70,-43,-122,-117,-92,-68,-43
-117,-131,-14,124,-51,-73,-43,-117,-117,-87,-63,-34
-117,-136,-19,126,-48,-78,-43,-122,-122,-87,-68,-34
-117,-141,-24,129,-46,-82,-48,-122,-122,-92,-68,-34
-117,-131,-14,124,-51,-73,-53,-126,-122,-92,-68,-39
-117,-131,-14,124,-51,-73,-58,-126,-126,-92,-68,-43
-122,-131,-9,126,-56,-70,-58,-131,-131,-97,-73,-43
-126,-136,-9,131,-58,-73,-58,-131,-131,-97,-78,-48
-126,-136,-9,131,-58,-73,-58,-131,-126,-102,-78,-48
-126,-136,-9,131,-58,-73,-58,-136,-126,-102,-82,-53
-126,-131,-4,129,-61,-68,-58,-136,-126,-102,-78,-53
-122,-131,-9,126,-56,-70,-58,-136,-131,-107,-78,-48
-122,-126,-4,124,-58,-65,-58,-141,-131,-107,-78,-48
-122,-126,-4,124,-58,-65,-58,-141,-136,-112,-82,-53
-117,-122,-4,119,-56,-63,-63,-146,-136,-112,-82,-53
-112,-117,-4,114,-53,-61,-63,-146,-136,-112,-78,-53
-112,-117,-4,114,-53,-61,-68,-141,-141,-112,-68,-43
-112,-112,0,112,-56,-56,-68,-141,-141,-112,-63,-34
-117,-122,-4,119,-56,-63,-68,-141,-146,-117,-73,-43
-122,-131,-9,126,-56,-70,-63,-141,-146,-117,-82,-53
-117,-131,-14,124,-51,-73,-63,-146,-151,-117,-87,-58
-117,-131,-14,124,-51,-73,-63,-151,-161,-117,-97,-58
-117,-131,-14,124,-51,-73,-63,-151,-151,-117,-87,-53
-117,-126,-9,122,-53,-68,-63,-156,-141,-117,-78,-48
-122,-126,-4,124,-58,-65,-73,-156,-141,-112,-78,-48
-126,-131,-4,129,-61,-68,-73,-156,-141,-107,-78,-48
-126,-131,-4,129,-61,-68,-78,-156,-141,-107,-78,-48
-126,-131,-4,129,-61,-68,-78,-156,-141,-107,-78,-48
-126,-131,-4,129,-61,-68,-73,-156,-141,-112,-82,-48
-126,-131,-4,129,-61,-68,-73,-156,-141,-112,-82,-48
-126,-131,-4,129,-61,-68,-68,-156,-141,-117,-87,-48
-126,-131,-4,129,-61,-68,-63,-156,-141,-122,-87,-48
-122,-131,-9,126,-56,-70,-63,-156,-146,-117,-87,-58
-122,-131,-9,126,-56,-70,-63,-156,-156,-117,-92,-68
-122,-126,-4,124,-58,-65,-68,-161,-156,-117,-92,-68
-126,-126,0,126,-63,-63,-73,-161,-151,-122,-92,-68
-126,-126,0,126,-63,-63,-68,-161,-151,-122,-87,-58
-126,-126,0,126,-63,-63,-68,-161,-151,-122,-82,-48
-122,-122,0,122,-61,-61,-63,-151,-141,-112,-78,-43
-117,-117,0,117,-58,-58,-58,-146,-131,-97,-73,-39
-117,-107,9,112,-63,-48,-53,-146,-126,-97,-73,-39
-117,-97,19,107,-68,-39,-48,-141,-117,-97,-68,-34
-112,-82,29,97,-70,-26,-34,-122,-107,-82,-53,-24
-107,-58,48,82,-78,-4,-24,-107,-92,-58,-34,-4
-102,-58,43,80,-73,-7,-19,-102,-92,-53,-29,-4
-97,-58,39,78,-68,-9,-19,-102,-87,-48,-29,-4
-97,-63,34,80,-65,-14,-19,-92,-87,-48,-29,-4
-97,-63,34,80,-65,-14,-19,-78,-87,-48,-29,-4
-92,-48,43,70,-68,-2,-4,-68,-73,-48,-24,-4
-82,-39,43,61,-63,2,4,-48,-58,-39,-14,0
-82,-43,39,63,-61,-2,14,-43,-48,-34,-9,4
-73,-34,39,53,-56,2,14,-34,-34,-29,0,14
-73,-4,68,39,-70,31,9,-39,-39,-19,4,19
-63,29,92,17,-78,61,-4,-43,-39,-4,19,34
-58,29,87,14,-73,58,-14,-73,-39,0,24,39
-58,29,87,14,-73,58,-29,-107,-39,0,29,48
-58,14,73,21,-65,43,-43,-122,-53,-19,4,34
-58,0,58,29,-58,29,-58,-136,-68,-39,-19,19
-53,19,73,17,-63,46,-73,-136,-78,-39,-9,19
-48,39,87,4,-68,63,-87,-136,-87,-39,0,19
-34,43,78,-4,-56,61,-92,-136,-73,-29,9,34
-19,48,68,-14,-43,58,-97,-136,-58,-19,19,48
-9,63,73,-26,-41,68,-97,-141,-68,-19,24,58
0,78,78,-39,-39,78,-97,-146,-78,-19,29,68
0,87,87,-43,-43,87,-97,-151,-78,-9,29,78
0,97,97,-48,-48,97,-97,-156,-78,0,29,87
-4,92,97,-43,-51,95,-97,-156,-82,-9,24,73
-14,58,73,-21,-43,65,-92,-156,-92,-29,4,48
-24,29,53,-2,-39,41,-87,-156,-102,-48,-14,24
-39,-14,24,26,-31,4,-73,-170,-117,-78,-43,0
-53,-29,24,41,-39,-2,-73,-170,-141,-102,-63,-14
-58,-53,4,56,-31,-24,-73,-170,-151,-107,-68,-24
-63,-63,0,63,-31,-31,-73,-170,-146,-107,-73,-29
-68,-82,-14,75,-26,-48,-68,-165,-146,-112,-82,-39
-58,-68,-9,63,-24,-39,-63,-156,-146,-112,-87,-39
-48,-53,-4,51,-21,-29,-63,-156,-146,-112,-87,-43
-48,-53,-4,51,-21,-29,-63,-156,-141,-112,-82,-43
-48,-58,-9,53,-19,-34,-63,-151,-141,-117,-82,-48
-43,-63,-19,53,-12,-41,-58,-151,-146,-122,-87,-53
-43,-63,-19,53,-12,-41,-48,-156,-146,-122,-87,-53
-39,-58,-19,48,-9,-39,-48,-156,-146,-112,-82,-53
-29,-58,-29,43,0,-43,-48,-151,-146,-107,-82,-53
-19,-58,-39,39,9,-48,-43,-141,-141,-107,-78,-53
-9,-53,-43,31,17,-48,-34,-136,-136,-102,-73,-53
-14,-48,-34,31,9,-41,-29,-131,-131,-97,-73,-43
-14,-43,-29,29,7,-36,-29,-126,-126,-92,-68,-34
-9,-34,-24,21,7,-29,-34,-126,-126,-92,-63,-34
0,-29,-29,14,14,-29,-34,-122,-126,-92,-63,-34
0,-29,-29,14,14,-29,-29,-122,-126,-92,-58,-29
0,-29,-29,14,14,-29,-29,-122,-126,-92,-53,-24
-4,-29,-24,17,9,-26,-29,-122,-122,-92,-53,-24
-4,-29,-24,17,9,-26,-29,-122,-117,-92,-53,-24
0,-29,-29,14,14,-29,-24,-122,-117,-87,-58,-24
0,-24,-24,12,12,-24,-19,-122,-112,-87,-63,-24
9,-14,-24,2,17,-19,-19,-117,-112,-87,-63,-34
19,-4,-24,-7,21,-14,-19,-117,-112,-87,-63,-43
19,-4,-24,-7,21,-14,-19,-117,-112,-87,-63,-43
19,0,-19,-9,19,-9,-19,-117,-112,-82,-63,-43
19,0,-19,-9,19,-9,-19,-117,-112,-82,-58,-29
19,0,-19,-9,19,-9,-24,-117,-112,-82,-48,-19
19,0,-19,-9,19,-9,-24,-117,-107,-82,-48,-19
19,0,-19,-9,19,-9,-24,-112,-102,-82,-48,-19
14,-4,-19,-4,17,-12,-24,-112,-102,-82,-48,-19
9,-9,-19,0,14,-14,-24,-112,-102,-82,-48,-14
9,-14,-24,2,17,-19,-24,-112,-107,-78,-43,-19
9,-19,-29,4,19,-24,-24,-112,-112,-78,-43,-24
9,-19,-29,4,19,-24,-29,-112,-107,-68,-34,-19
14,-24,-39,4,26,-31,-34,-102,-97,-58,-29,-14
24,-29,-53,2,39,-41,-39,-73,-58,-39,-14,-4
34,-29,-63,-2,48,-46,-39,-19,68,39,39,24
34,-4,-39,-14,36,-21,-78,-58,156,161,156,107
34,68,34,-51,0,51,-112,-204,165,287,302,234
34,219,185,-126,-75,202,-209,-512,117,502,590,507
53,405,351,-229,-148,378,-356,-976,-87,736,976,893
78,600,522,-339,-222,561,-541,-1415,-395,907,1346,1293
136,844,707,-490,-285,775,-854,-1947,-756,1010,1703,1722
146,1058,912,-602,-383,985,-1161,-2488,-1317,722,1664,1844
73,1205,1132,-639,-529,1168,-1405,-3015,-2074,24,1102,1571
4,1200,1195,-602,-595,1198,-1468,-3254,-2630,-751,414,1180
-19,785,805,-383,-412,795,-1322,-3035,-2937,-1571,-478,531
-78,287,366,-104,-222,326,-1132,-2615,-2932,-2127,-1254,-146
-82,112,195,-14,-139,153,-893,-1932,-2225,-1766,-1156,-292
-58,58,117,0,-87,87,-556,-1141,-1322,-1132,-790,-229
-24,34,58,-4,-41,46,-322,-644,-771,-688,-502,-195
-24,34,58,-4,-41,46,-190,-380,-473,-439,-341,-175
-24,19,43,2,-34,31,-122,-273,-346,-331,-292,-190
-24,-43,-19,34,-2,-31,-43,-136,-239,-248,-239,-190
-24,-43,-19,34,-2,-31,4,-24,-112,-156,-165,-151
-24,-53,-29,39,2,-41,34,48,0,-48,-78,-97
-9,-68,-58,39,24,-63,48,78,53,9,-24,-58
-4,-68,-63,36,29,-65,63,102,58,14,-9,-53
0,-78,-78,39,39,-78,68,126,73,9,-24,-53
-9,-87,-78,48,34,-82,68,131,82,14,-24,-63
-9,-87,-78,48,34,-82,73,126,87,24,-14,-63
-19,-102,-82,61,31,-92,82,131,92,29,-4,-58
-24,-112,-87,68,31,-100,82,146,97,29,-4,-58
-24,-112,-87,68,31,-100,78,151,107,29,-4,-58
-29,-117,-87,73,29,-102,73,151,117,34,-4,-58
-24,-122,-97,73,36,-109,78,156,117,39,0,-58
-19,-122,-102,70,41,-112,78,161,117,39,0,-58
-19,-117,-97,68,39,-107,78,161,122,39,0,-63
-19,-117,-97,68,39,-107,78,165,122,43,0,-68
-14,-112,-97,63,41,-104,82,165,126,43,0,-68
-14,-107,-92,61,39,-100,82,175,131,48,0,-68
-9,-97,-87,53,39,-92,87,175,131,48,0,-68
0,-92,-92,46,46,-92,97,180,131,48,0,-68
4,-92,-97,43,51,-95,97,190,136,53,0,-68
9,-92,-102,41,56,-97,97,195,141,53,0,-73
19,-87,-107,34,63,-97,97,200,146,53,0,-73
24,-78,-102,26,63,-90,102,204,146,58,0,-78
34,-73,-107,19,70,-90,107,209,151,63,0,-73
43,-68,-112,12,78,-90,112,214,156,68,0,-68
53,-63,-117,4,85,-90,117,224,161,68,0,-68
63,-58,-122,-2,92,-90,117,229,165,73,0,-73
68,-58,-126,-4,97,-92,117,239,180,82,9,-73
78,-53,-131,-12,104,-92,122,248,185,92,14,-68
78,-48,-126,-14,102,-87,131,258,195,92,14,-63
82,-43,-126,-19,104,-85,141,273,204,92,14,-68
92,-34,-126,-29,109,-80,141,283,214,97,19,-63
102,-24,-126,-39,114,-75,141,287,224,97,29,-63
107,-19,-126,-43,117,-73,141,297,234,117,34,-63
112,-9,-122,-51,117,-65,146,312,244,126,39,-63
122,-4,-126,-58,124,-65,151,326,258,136,43,-58
126,-4,-131,-61,129,-68,156,351,273,141,48,-58
131,0,-131,-65,131,-65,165,366,283,146,48,-58
136,0,-136,-68,136,-68,175,375,302,156,53,-58
141,4,-136,-73,139,-65,175,395,317,156,53,-58
151,4,-146,-78,148,-70,190,419,326,161,58,-58
161,14,-146,-87,153,-65,190,439,341,170,58,-58
170,24,-146,-97,158,-61,200,458,361,180,58,-63
175,39,-136,-107,156,-48,209,478,380,195,63,-63
185,48,-136,-117,161,-43,214,502,405,200,63,-63
200,53,-146,-126,173,-46,219,536,419,209,68,-63
204,58,-146,-131,175,-43,224,566,439,219,73,-68
214,63,-151,-139,183,-43,234,595,463,239,78,-73
219,73,-146,-146,183,-36,244,624,497,258,87,-73
229,73,-156,-151,192,-41,248,658,517,268,87,-73
234,78,-156,-156,195,-39,258,692,546,283,87,-78
234,82,-151,-158,192,-34,263,736,580,302,92,-78
244,92,-151,-168,197,-29,278,771,614,312,97,-78
248,102,-146,-175,197,-21,283,800,644,326,97,-87
253,112,-141,-183,197,-14,283,839,673,336,97,-92
258,122,-136,-190,197,-7,297,878,712,361,97,-92
263,126,-136,-195,200,-4,307,917,751,380,102,-97
268,141,-126,-204,197,7,322,951,780,400,107,-97
278,156,-122,-217,200,17,331,985,810,419,117,-97
287,180,-107,-234,197,36,336,1010,849,429,117,-102
287,200,-87,-244,187,56,336,1039,873,444,112,-102
297,224,-73,-261,185,75,336,1054,897,453,122,-97
307,253,-53,-280,180,100,336,1054,917,473,126,-102
312,283,-29,-297,170,126,336,1058,936,483,131,-92
317,312,-4,-314,161,153,336,1034,936,492,131,-92
326,351,24,-339,151,187,326,1010,927,492,131,-78
331,390,58,-361,136,224,307,966,912,488,131,-68
331,424,92,-378,119,258,307,922,888,488,131,-58
326,448,122,-387,102,285,292,858,849,473,131,-39
322,473,151,-397,85,312,273,785,800,453,136,-24
322,483,161,-402,80,322,258,707,746,434,136,-4
317,488,170,-402,73,329,244,634,692,414,141,9
317,488,170,-402,73,329,219,561,624,390,136,19
302,492,190,-397,56,341,195,473,556,356,131,34
292,483,190,-387,51,336,170,405,488,322,126,43
283,453,170,-368,56,312,165,336,424,297,131,63
273,429,156,-351,58,292,146,268,361,268,136,73
263,414,151,-339,56,283,122,204,292,239,131,78
253,405,151,-329,51,278,102,156,239,209,126,82
248,370,122,-309,63,246,92,112,195,185,131,97
239,351,112,-295,63,231,82,78,161,165,126,107
248,336,87,-292,80,212,73,39,122,141,117,107
248,317,68,-283,90,192,73,9,87,112,112,112
253,307,53,-280,100,180,68,-9,53,92,102,112
253,292,39,-273,107,165,58,-24,24,78,97,112
253,278,24,-265,114,151,58,-34,14,68,92,107
248,273,24,-261,112,148,58,-43,-9,58,87,102
244,263,19,-253,112,141,53,-53,-19,48,82,97
239,248,9,-244,114,129,48,-58,-29,39,78,97
244,244,0,-244,122,122,48,-58,-39,29,78,92
248,244,-4,-246,126,119,48,-63,-39,24,78,87
253,244,-9,-248,131,117,48,-63,-43,24,73,92
253,244,-9,-248,131,117,48,-58,-48,24,73,92
253,244,-9,-248,131,117,48,-58,-48,19,68,87
253,239,-14,-246,134,112,48,-58,-43,19,68,87
253,239,-14,-246,134,112,48,-58,-43,19,68,87
258,234,-24,-246,141,104,48,-58,-43,19,68,87
263,239,-24,-251,143,107,48,-58,-43,19,68,87
263,244,-19,-253,141,112,48,-53,-43,19,68,87
273,244,-29,-258,151,107,53,-53,-43,19,68,87
278,248,-29,-263,153,109,58,-53,-39,24,73,92
278,258,-19,-268,148,119,58,-53,-39,24,73,87
283,268,-14,-275,148,126,58,-48,-34,24,73,87
283,263,-19,-273,151,122,63,-48,-34,29,73,87
283,263,-19,-273,151,122,68,-43,-34,34,73,87
278,258,-19,-268,148,119,68,-43,-29,34,73,87
278,258,-19,-268,148,119,63,-43,-29,34,73,87
287,263,-24,-275,156,119,63,-39,-29,29,73,82
297,268,-29,-283,163,119,63,-39,-29,29,73,82
297,268,-29,-283,163,119,68,-39,-24,34,73,87
292,263,-29,-278,161,117,68,-39,-24,34,73,92
297,268,-29,-283,163,119,68,-39,-29,29,73,92
302,273,-29,-287,165,122,68,-39,-29,29,73,87
302,268,-34,-285,168,117,68,-39,-29,29,78,82
302,268,-34,-285,168,117,73,-39,-29,29,78,82
307,273,-34,-290,170,119,73,-39,-29,29,78,82
312,278,-34,-295,173,122,73,-39,-29,29,73,82
312,278,-34,-295,173,122,73,-43,-29,29,68,82
312,278,-34,-295,173,122,68,-43,-24,24,68,82
312,287,-24,-300,168,131,68,-48,-24,24,68,82
312,287,-24,-300,168,131,68,-48,-29,24,68,82
307,287,-19,-297,163,134,68,-53,-34,19,68,87
302,283,-19,-292,161,131,68,-53,-34,19,68,87
302,283,-19,-292,161,131,63,-53,-39,14,68,87
302,283,-19,-292,161,131,58,-58,-48,14,63,82
302,283,-19,-292,161,131,58,-58,-48,14,63,82
307,278,-29,-292,168,124,58,-58,-53,9,58,87
302,283,-19,-292,161,131,68,-63,-53,9,58,87
297,283,-14,-290,156,134,78,-63,-58,4,53,82
297,278,-19,-287,158,129,73,-68,-58,4,53,82
297,273,-24,-285,161,124,73,-68,-58,4,58,82
302,273,-29,-287,165,122,63,-68,-63,4,58,82
307,278,-29,-292,168,124,58,-73,-63,4,53,82
307,283,-24,-295,165,129,58,-73,-63,0,53,82
312,287,-24,-300,168,131,63,-78,-53,0,58,82
312,287,-24,-300,168,131,63,-78,-53,0,58,82
