I, II, III, aVR, aVL, aVF, V1, V2, V3, V4, V5, V6
-39,-58,-19,48,-9,-39,9,-19,-78,-87,-78,-68
-39,-58,-19,48,-9,-39,9,-19,-78,-87,-78,-68
-39,-58,-19,48,-9,-39,9,-19,-78,-87,-78,-68
-39,-58,-19,48,-9,-39,9,-19,-78,-87,-78,-73
-39,-58,-19,48,-9,-39,9,-19,-78,-87,-78,-78
-43,-58,-14,51,-14,-36,9,-19,-78,-87,-78,-78
-48,-58,-9,53,-19,-34,9,-19,-78,-87,-78,-78
-48,-58,-9,53,-19,-34,14,-19,-82,-92,-82,-78
-48,-58,-9,53,-19,-34,19,-19,-87,-97,-87,-78
-48,-58,-9,53,-19,-34,19,-19,-87,-97,-87,-78
-48,-58,-9,53,-19,-34,19,-19,-87,-97,-87,-78
-48,-58,-9,53,-19,-34,19,-19,-87,-102,-87,-78
-48,-58,-9,53,-19,-34,19,-19,-87,-107,-87,-78
-48,-63,-14,56,-17,-39,19,-19,-92,-107,-87,-78
-48,-68,-19,58,-14,-43,19,-19,-97,-107,-87,-78
-48,-68,-19,58,-14,-43,19,-24,-97,-107,-87,-78
-48,-68,-19,58,-14,-43,19,-29,-97,-107,-87,-78
-48,-73,-24,61,-12,-48,19,-29,-97,-107,-87,-78
-48,-78,-29,63,-9,-53,19,-29,-97,-107,-87,-78
-48,-78,-29,63,-9,-53,19,-29,-97,-107,-92,-82
-48,-78,-29,63,-9,-53,19,-29,-97,-107,-97,-87
-53,-78,-24,65,-14,-51,19,-29,-97,-107,-97,-87
-58,-78,-19,68,-19,-48,19,-29,-97,-107,-97,-87
-58,-78,-19,68,-19,-48,19,-29,-97,-112,-97,-87
-58,-78,-19,68,-19,-48,19,-29,-97,-117,-97,-87
-58,-78,-19,68,-19,-48,19,-29,-97,-117,-97,-92
-58,-78,-19,68,-19,-48,19,-29,-97,-117,-97,-97
-58,-78,-19,68,-19,-48,24,-29,-102,-112,-97,-97
-58,-78,-19,68,-19,-48,29,-29,-107,-107,-97,-97
-58,-78,-19,68,-19,-48,29,-29,-107,-107,-97,-92
-58,-78,-19,68,-19,-48,29,-29,-107,-107,-97,-87
-58,-78,-19,68,-19,-48,29,-29,-107,-107,-97,-87
-58,-78,-19,68,-19,-48,29,-29,-107,-107,-97,-87
-58,-78,-19,68,-19,-48,24,-29,-107,-107,-97,-92
-58,-78,-19,68,-19,-48,19,-29,-107,-107,-97,-92
-58,-78,-19,68,-19,-48,19,-34,-107,-107,-97,-97
-58,-78,-19,68,-19,-48,19,-34,-107,-107,-97,-97
-58,-78,-19,68,-19,-48,19,-34,-107,-107,-97,-92
-63,-78,-14,70,-24,-46,19,-34,-107,-112,-97,-92
-63,-78,-14,70,-24,-46,19,-34,-112,-112,-97,-92
-58,-82,-24,70,-17,-53,19,-34,-112,-112,-102,-92
-58,-78,-19,68,-19,-48,19,-34,-112,-112,-102,-92
-58,-73,-14,65,-21,-43,19,-34,-112,-112,-102,-92
-58,-73,-14,65,-21,-43,19,-34,-112,-117,-102,-92
-58,-73,-14,65,-21,-43,19,-34,-112,-117,-102,-92
-58,-78,-19,68,-19,-48,19,-29,-112,-122,-102,-92
-58,-78,-19,68,-19,-48,19,-29,-107,-122,-102,-92
-48,-63,-14,56,-17,-39,19,-24,-97,-112,-97,-87
-43,-48,-4,46,-19,-26,19,-24,-92,-107,-92,-82
-39,-14,24,26,-31,4,19,-24,-82,-92,-82,-78
-39,-9,29,24,-34,9,19,-24,-73,-82,-78,-73
-34,-9,24,21,-29,7,29,-19,-73,-78,-78,-68
-29,-4,24,17,-26,9,34,-14,-63,-78,-73,-68
-34,-9,24,21,-29,7,39,-14,-63,-78,-68,-68
-24,-14,9,19,-17,-2,39,-9,-58,-78,-63,-68
-19,-9,9,14,-14,0,19,-4,-53,-73,-53,-58
9,19,9,-14,0,14,-4,-9,-24,-39,-24,-29
29,39,9,-34,9,24,-43,-29,0,-24,-14,-14
34,39,4,-36,14,21,-53,-34,-4,-19,-14,-9
34,39,4,-36,14,21,-58,-43,-19,-29,-24,-9
29,24,-4,-26,17,9,-58,-48,-29,-43,-34,-24
34,4,-29,-19,31,-12,-39,-29,-53,-48,-34,-24
39,4,-34,-21,36,-14,-29,-29,-63,-48,-34,-19
43,14,-29,-29,36,-7,-29,-29,-53,-48,-34,-14
34,4,-29,-19,31,-12,-19,-43,-53,-68,-43,-29
19,-34,-53,7,36,-43,-4,-34,-78,-82,-63,-48
-9,-48,-39,29,14,-43,0,-34,-92,-87,-73,-58
-29,-58,-29,43,0,-43,4,-34,-92,-92,-78,-68
-48,-68,-19,58,-14,-43,19,-34,-102,-102,-87,-78
-58,-73,-14,65,-21,-43,24,-34,-97,-112,-92,-78
-68,-82,-14,75,-26,-48,29,-39,-102,-122,-102,-92
-68,-82,-14,75,-26,-48,29,-39,-112,-126,-107,-97
-68,-87,-19,78,-24,-53,29,-39,-112,-126,-107,-102
-68,-97,-29,82,-19,-63,34,-43,-131,-136,-117,-112
-78,-102,-24,90,-26,-63,34,-43,-146,-146,-126,-117
-97,-73,24,85,-61,-24,34,-68,-122,-126,-122,-122
-102,-34,68,68,-85,17,43,-63,-58,-82,-92,-107
-126,4,131,61,-129,68,73,34,29,-34,-68,-107
-78,39,117,19,-97,78,107,219,131,53,4,-43
53,68,14,-61,19,41,102,361,239,170,122,58
214,175,-39,-195,126,68,9,351,370,336,302,224
473,390,-82,-431,278,153,-170,297,444,531,561,497
639,605,-34,-622,336,285,-409,43,536,746,819,766
629,810,180,-719,224,495,-653,-497,775,1112,1205,1112
492,683,190,-588,151,436,-649,-771,624,917,1029,1000
175,336,161,-256,7,248,-409,-668,185,312,419,502
-102,195,297,-46,-200,246,-326,-697,-112,-48,48,161
-239,161,400,39,-319,280,-326,-795,-322,-244,-161,-58
-258,68,326,95,-292,197,-283,-707,-395,-326,-248,-165
-185,34,219,75,-202,126,-214,-483,-307,-258,-200,-122
-141,29,170,56,-156,100,-131,-287,-180,-161,-126,-87
-78,-24,53,51,-65,14,-29,-102,-112,-112,-82,-63
-53,-43,9,48,-31,-17,14,-34,-87,-87,-63,-58
-48,-48,0,48,-24,-24,14,-34,-73,-82,-63,-58
-53,-58,-4,56,-24,-31,14,-24,-68,-82,-68,-73
-53,-68,-14,61,-19,-41,29,-4,-82,-97,-78,-73
-53,-73,-19,63,-17,-46,29,0,-82,-97,-78,-73
-53,-73,-19,63,-17,-46,29,0,-82,-97,-78,-73
-58,-73,-14,65,-21,-43,34,4,-87,-92,-78,-78
-53,-78,-24,65,-14,-51,39,14,-82,-92,-82,-78
-53,-78,-24,65,-14,-51,48,14,-82,-92,-87,-78
-53,-73,-19,63,-17,-46,48,19,-78,-92,-82,-73
-53,-68,-14,61,-19,-41,53,19,-68,-87,-82,-73
-48,-68,-19,58,-14,-43,53,29,-68,-87,-73,-73
-48,-63,-14,56,-17,-39,53,39,-68,-82,-68,-68
-48,-68,-19,58,-14,-43,53,39,-63,-78,-63,-68
-43,-68,-24,56,-9,-46,53,39,-58,-73,-63,-63
-43,-68,-24,56,-9,-46,53,43,-53,-68,-58,-58
-43,-63,-19,53,-12,-41,58,48,-53,-68,-58,-58
-39,-63,-24,51,-7,-43,63,53,-48,-63,-53,-58
-39,-63,-24,51,-7,-43,68,58,-39,-63,-48,-53
-34,-58,-24,46,-4,-41,63,58,-39,-58,-48,-53
-34,-58,-24,46,-4,-41,63,63,-29,-53,-39,-48
-29,-53,-24,41,-2,-39,63,68,-34,-43,-29,-39
-24,-48,-24,36,0,-36,63,68,-29,-39,-24,-34
-24,-48,-24,36,0,-36,63,73,-19,-39,-29,-34
-19,-43,-24,31,2,-34,63,78,-9,-34,-24,-34
-14,-34,-19,24,2,-26,58,78,-4,-29,-14,-29
-9,-29,-19,19,4,-24,58,82,0,-19,-14,-29
-9,-24,-14,17,2,-19,58,87,14,-14,-4,-19
-4,-19,-14,12,4,-17,53,92,29,-4,4,-14
4,-14,-19,4,12,-17,53,97,34,4,9,-4
9,-14,-24,2,17,-19,53,102,43,9,19,4
14,-14,-29,0,21,-21,53,107,48,24,29,9
19,0,-19,-9,19,-9,48,112,63,39,34,19
24,0,-24,-12,24,-12,43,117,73,48,48,29
34,9,-24,-21,29,-7,34,122,82,63,58,39
39,19,-19,-29,29,0,34,122,92,68,68,43
48,19,-29,-34,39,-4,29,126,97,73,78,53
48,24,-24,-36,36,0,24,136,112,87,92,68
48,34,-14,-41,31,9,24,151,131,107,107,78
58,39,-19,-48,39,9,24,156,151,126,126,92
73,48,-24,-61,48,12,24,161,165,136,141,102
78,58,-19,-68,48,19,19,170,180,161,146,117
92,73,-19,-82,56,26,9,175,204,175,165,141
97,82,-14,-90,56,34,9,190,224,195,185,156
107,92,-14,-100,61,39,0,195,244,214,200,170
117,102,-14,-109,65,43,-4,200,263,234,219,180
131,117,-14,-124,73,51,-9,200,283,253,239,195
141,126,-14,-134,78,56,-19,200,302,273,253,209
146,141,-4,-143,75,68,-29,200,317,292,273,229
156,156,0,-156,78,78,-34,200,341,307,287,239
165,165,0,-165,82,82,-43,195,346,317,297,248
170,175,4,-173,82,90,-43,200,366,331,322,268
175,185,9,-180,82,97,-48,195,375,346,331,283
185,195,9,-190,87,102,-58,180,385,356,341,292
190,200,9,-195,90,104,-68,161,390,361,341,292
195,200,4,-197,95,102,-78,146,385,361,351,297
185,200,14,-192,85,107,-92,117,375,346,346,292
170,195,24,-183,73,109,-92,92,341,326,322,278
156,180,24,-168,65,102,-92,68,312,297,292,253
131,165,34,-148,48,100,-87,48,278,263,258,224
107,141,34,-124,36,87,-82,24,239,224,219,185
82,117,34,-100,24,75,-68,4,195,180,180,151
68,87,19,-78,24,53,-58,-4,156,136,146,112
43,63,19,-53,12,41,-43,-4,117,92,107,82
24,43,19,-34,2,31,-34,-9,87,58,78,53
9,24,14,-17,-2,19,-19,-14,48,24,43,24
-9,4,14,2,-12,9,-9,-14,14,-4,19,0
-14,-14,0,14,-7,-7,0,-14,0,-24,0,-14
-24,-29,-4,26,-9,-17,0,-14,-14,-39,-14,-29
-34,-39,-4,36,-14,-21,9,-14,-39,-58,-34,-39
-34,-48,-14,41,-9,-31,9,-14,-48,-63,-48,-58
-34,-48,-14,41,-9,-31,14,-14,-58,-73,-53,-63
-39,-53,-14,46,-12,-34,19,-14,-63,-78,-58,-73
-39,-53,-14,46,-12,-34,14,-14,-68,-87,-63,-73
-43,-53,-9,48,-17,-31,14,-14,-73,-92,-68,-73
-43,-53,-9,48,-17,-31,14,-14,-73,-92,-73,-73
-43,-53,-9,48,-17,-31,14,-14,-73,-92,-78,-73
-43,-53,-9,48,-17,-31,19,-14,-78,-92,-78,-73
-43,-58,-14,51,-14,-36,19,-14,-78,-92,-78,-73
-39,-63,-24,51,-7,-43,19,-14,-78,-92,-78,-73
-34,-68,-34,51,0,-51,24,-14,-78,-92,-78,-73
-34,-68,-34,51,0,-51,24,-14,-78,-92,-78,-73
-34,-68,-34,51,0,-51,24,-14,-78,-92,-78,-73
-39,-68,-29,53,-4,-48,24,-9,-78,-92,-73,-73
-43,-68,-24,56,-9,-46,24,-9,-73,-92,-73,-73
-43,-63,-19,53,-12,-41,24,-9,-73,-92,-73,-73
-43,-63,-19,53,-12,-41,24,-9,-73,-92,-73,-73
-43,-68,-24,56,-9,-46,24,-9,-73,-87,-73,-73
-43,-68,-24,56,-9,-46,24,-9,-73,-87,-73,-73
-43,-63,-19,53,-12,-41,24,-9,-73,-87,-73,-73
-43,-63,-19,53,-12,-41,24,-9,-73,-87,-73,-73
-43,-63,-19,53,-12,-41,19,-9,-73,-87,-68,-68
-43,-63,-19,53,-12,-41,19,-9,-73,-87,-68,-68
-43,-63,-19,53,-12,-41,19,-9,-68,-87,-68,-68
-43,-63,-19,53,-12,-41,19,-9,-68,-82,-68,-68
-39,-63,-24,51,-7,-43,19,-9,-68,-82,-68,-68
-39,-63,-24,51,-7,-43,19,-9,-68,-82,-68,-68
-39,-63,-24,51,-7,-43,19,-9,-68,-82,-68,-68
-39,-58,-19,48,-9,-39,19,-9,-68,-82,-63,-63
-39,-58,-19,48,-9,-39,19,-9,-68,-82,-63,-63
-39,-58,-19,48,-9,-39,19,-14,-68,-82,-68,-63
-39,-63,-24,51,-7,-43,14,-14,-68,-82,-68,-63
-39,-63,-24,51,-7,-43,14,-14,-68,-82,-63,-63
-39,-63,-24,51,-7,-43,14,-14,-68,-82,-63,-63
-39,-58,-19,48,-9,-39,14,-14,-68,-82,-63,-68
-39,-53,-14,46,-12,-34,14,-14,-68,-82,-63,-68
-39,-53,-14,46,-12,-34,9,-14,-68,-82,-63,-63
-34,-48,-14,41,-9,-31,4,-19,-68,-82,-63,-63
-29,-48,-19,39,-4,-34,0,-24,-68,-82,-63,-68
-29,-48,-19,39,-4,-34,4,-24,-68,-82,-68,-68
-29,-48,-19,39,-4,-34,4,-24,-68,-82,-68,-68
-34,-48,-14,41,-9,-31,9,-19,-73,-87,-68,-68
-39,-48,-9,43,-14,-29,19,-14,-73,-87,-68,-68
-39,-53,-14,46,-12,-34,19,-19,-78,-92,-73,-68
-39,-53,-14,46,-12,-34,19,-19,-78,-97,-73,-68
-39,-53,-14,46,-12,-34,19,-19,-78,-97,-73,-73
-39,-53,-14,46,-12,-34,19,-19,-78,-92,-73,-73
-39,-53,-14,46,-12,-34,19,-24,-78,-92,-78,-73
-34,-53,-19,43,-7,-36,19,-24,-82,-92,-78,-78
-34,-58,-24,46,-4,-41,14,-24,-82,-97,-78,-78
-39,-58,-19,48,-9,-39,9,-24,-82,-97,-78,-78
-39,-58,-19,48,-9,-39,14,-24,-87,-97,-78,-78
-34,-58,-24,46,-4,-41,14,-24,-87,-102,-82,-78
-39,-58,-19,48,-9,-39,19,-24,-87,-102,-82,-73
-43,-58,-14,51,-14,-36,19,-24,-87,-102,-82,-73
-43,-68,-24,56,-9,-46,19,-24,-92,-107,-82,-73
-48,-73,-24,61,-12,-48,19,-24,-92,-107,-87,-73
-48,-73,-24,61,-12,-48,14,-24,-97,-107,-87,-78
-48,-73,-24,61,-12,-48,9,-24,-102,-107,-87,-78
-53,-73,-19,63,-17,-46,14,-24,-102,-107,-87,-73
-53,-73,-19,63,-17,-46,14,-29,-102,-107,-87,-73
-48,-73,-24,61,-12,-48,14,-29,-102,-107,-82,-78
-43,-73,-29,58,-7,-51,9,-29,-107,-112,-82,-78
-43,-78,-34,61,-4,-56,9,-34,-107,-112,-82,-78
-43,-78,-34,61,-4,-56,9,-39,-107,-112,-82,-78
-48,-78,-29,63,-9,-53,14,-39,-107,-112,-87,-82
-53,-78,-24,65,-14,-51,19,-39,-107,-112,-92,-87
-53,-78,-24,65,-14,-51,19,-39,-107,-112,-92,-87
-53,-78,-24,65,-14,-51,19,-39,-112,-112,-92,-87
-53,-78,-24,65,-14,-51,19,-39,-107,-112,-92,-87
-58,-78,-19,68,-19,-48,19,-39,-102,-112,-97,-87
-53,-78,-24,65,-14,-51,19,-34,-102,-112,-97,-87
-48,-78,-29,63,-9,-53,19,-29,-107,-117,-97,-87
-48,-78,-29,63,-9,-53,19,-29,-107,-117,-97,-87
-48,-78,-29,63,-9,-53,19,-29,-107,-117,-97,-87
-48,-78,-29,63,-9,-53,19,-29,-112,-122,-97,-87
-48,-78,-29,63,-9,-53,19,-29,-112,-122,-97,-87
-48,-78,-29,63,-9,-53,19,-29,-117,-126,-97,-87
-48,-78,-29,63,-9,-53,19,-34,-117,-126,-97,-87
-48,-78,-29,63,-9,-53,19,-34,-117,-126,-97,-87
-48,-78,-29,63,-9,-53,19,-34,-117,-126,-97,-87
-53,-78,-24,65,-14,-51,24,-34,-117,-131,-97,-92
-53,-78,-24,65,-14,-51,29,-34,-122,-131,-97,-92
-48,-82,-34,65,-7,-58,29,-34,-122,-131,-102,-92
-48,-82,-34,65,-7,-58,29,-34,-122,-131,-102,-92
-53,-82,-29,68,-12,-56,24,-34,-122,-131,-102,-92
-58,-82,-24,70,-17,-53,19,-34,-122,-136,-102,-92
-58,-82,-24,70,-17,-53,19,-34,-122,-136,-102,-92
-58,-82,-24,70,-17,-53,19,-29,-122,-136,-102,-92
-53,-78,-24,65,-14,-51,19,-29,-117,-131,-102,-92
-39,-63,-24,51,-7,-43,19,-24,-107,-122,-97,-87
-34,-48,-14,41,-9,-31,19,-24,-102,-117,-92,-82
-29,-19,9,24,-19,-4,19,-24,-92,-107,-82,-78
-29,-19,9,24,-19,-4,19,-24,-82,-102,-78,-73
-24,-19,4,21,-14,-7,24,-19,-82,-97,-78,-68
-19,-14,4,17,-12,-4,29,-14,-73,-97,-73,-68
-19,-14,4,17,-12,-4,34,-14,-73,-92,-68,-63
-4,-14,-9,9,2,-12,29,-9,-68,-87,-63,-58
0,-9,-9,4,4,-9,9,-9,-63,-82,-53,-48
29,19,-9,-24,19,4,-19,-19,-34,-48,-24,-19
48,39,-9,-43,29,14,-58,-39,-14,-39,-14,-9
53,39,-14,-46,34,12,-63,-43,-24,-39,-14,-9
53,34,-19,-43,36,7,-63,-48,-39,-48,-24,-9
48,14,-34,-31,41,-9,-58,-48,-48,-63,-34,-24
48,-4,-53,-21,51,-29,-39,-29,-63,-68,-34,-24
48,-4,-53,-21,51,-29,-29,-29,-63,-68,-29,-19
43,-4,-48,-19,46,-26,-29,-29,-68,-68,-29,-19
24,-19,-43,-2,34,-31,-19,-43,-82,-87,-43,-39
9,-43,-53,17,31,-48,-4,-34,-97,-102,-63,-58
-19,-48,-29,34,4,-39,0,-34,-102,-107,-73,-68
-34,-58,-24,46,-4,-41,4,-34,-102,-112,-78,-78
-48,-68,-19,58,-14,-43,19,-34,-112,-122,-92,-87
-53,-73,-19,63,-17,-46,24,-34,-112,-131,-102,-87
-63,-87,-24,75,-19,-56,29,-39,-122,-141,-112,-102
-68,-92,-24,80,-21,-58,29,-39,-131,-146,-117,-102
-68,-97,-29,82,-19,-63,29,-39,-131,-146,-117,-102
-68,-97,-29,82,-19,-63,34,-39,-131,-146,-117,-107
-78,-92,-14,85,-31,-53,39,-34,-126,-146,-117,-107
-92,-58,34,75,-63,-12,43,-34,-87,-112,-102,-107
-92,-14,78,53,-85,31,53,-4,-14,-53,-63,-92
-78,24,102,26,-90,63,73,102,73,19,-4,-63
9,58,48,-34,-19,53,97,297,180,131,102,34
165,136,-29,-151,97,53,48,366,287,273,253,185
351,292,-58,-322,204,117,-87,278,414,458,458,400
531,483,-48,-507,290,217,-268,126,483,639,692,653
624,673,48,-649,287,361,-517,-219,570,844,946,907
531,746,214,-639,158,480,-649,-624,653,980,1098,1044
307,488,180,-397,63,334,-522,-761,351,556,678,717
29,219,190,-124,-80,204,-326,-673,-14,68,180,283
-209,156,366,26,-287,261,-287,-717,-234,-170,-78,4
-273,131,405,70,-339,268,-287,-751,-366,-297,-214,-131
-219,48,268,85,-244,158,-239,-600,-361,-317,-229,-156
-146,14,161,65,-153,87,-165,-385,-278,-248,-180,-112
-102,14,117,43,-109,65,-82,-200,-161,-151,-107,-78
-53,-29,24,41,-39,-2,-4,-63,-112,-117,-78,-58
-48,-43,4,46,-26,-19,14,-39,-107,-107,-73,-58
-53,-48,4,51,-29,-21,14,-34,-97,-102,-73,-58
-63,-58,4,61,-34,-26,14,-24,-92,-102,-78,-73
-63,-63,0,63,-31,-31,29,-4,-102,-117,-87,-73
-63,-68,-4,65,-29,-36,29,0,-102,-117,-87,-73
-58,-73,-14,65,-21,-43,29,0,-97,-117,-87,-73
-53,-73,-19,63,-17,-46,34,4,-97,-112,-87,-78
-43,-78,-34,61,-4,-56,34,14,-92,-112,-87,-78
-43,-73,-29,58,-7,-51,39,14,-92,-112,-87,-78
-43,-68,-24,56,-9,-46,39,19,-92,-112,-82,-73
-48,-68,-19,58,-14,-43,48,19,-87,-107,-82,-73
-48,-68,-19,58,-14,-43,53,24,-87,-107,-78,-73
-48,-68,-19,58,-14,-43,53,29,-87,-102,-78,-68
-48,-73,-24,61,-12,-48,53,29,-82,-97,-73,-68
-43,-68,-24,56,-9,-46,53,29,-78,-87,-73,-63
-43,-68,-24,56,-9,-46,53,34,-73,-78,-68,-58
-43,-63,-19,53,-12,-41,53,39,-73,-78,-63,-58
-39,-63,-24,51,-7,-43,48,43,-68,-73,-53,-58
-39,-63,-24,51,-7,-43,48,48,-58,-73,-48,-53
-34,-58,-24,46,-4,-41,43,48,-58,-68,-48,-53
-34,-58,-24,46,-4,-41,43,53,-48,-63,-43,-48
-29,-53,-24,41,-2,-39,43,58,-48,-53,-39,-39
-24,-48,-24,36,0,-36,48,58,-39,-43,-34,-34
-24,-48,-24,36,0,-36,53,63,-29,-34,-34,-29
-19,-43,-24,31,2,-34,53,68,-19,-24,-24,-24
-14,-39,-24,26,4,-31,48,68,-14,-19,-14,-19
-9,-39,-29,24,9,-34,48,78,-9,-9,-14,-19
-9,-34,-24,21,7,-29,48,87,0,-4,-4,-9
-4,-29,-24,17,9,-26,43,92,14,4,4,-9
4,-19,-24,7,14,-21,43,97,24,14,9,-4
9,-14,-24,2,17,-19,39,102,34,19,19,4
14,-14,-29,0,21,-21,34,107,39,29,29,9
19,0,-19,-9,19,-9,29,112,53,39,34,19
24,0,-24,-12,24,-12,29,122,63,48,48,29
34,9,-24,-21,29,-7,29,126,73,63,58,39
39,19,-19,-29,29,0,34,122,87,73,68,43
48,19,-29,-34,39,-4,29,126,97,82,78,58
53,24,-29,-39,41,-2,24,136,112,97,92,78
58,39,-19,-48,39,9,24,151,131,117,107,87
68,48,-19,-58,43,14,19,156,151,136,126,102
82,58,-24,-70,53,17,14,161,165,146,141,112
87,68,-19,-78,53,24,9,170,180,170,151,126
102,82,-19,-92,61,31,0,175,204,185,175,151
107,92,-14,-100,61,39,0,185,224,204,195,165
117,102,-14,-109,65,43,-9,185,244,224,209,180
126,112,-14,-119,70,48,-14,190,263,244,229,195
141,126,-14,-134,78,56,-19,190,283,263,248,214
151,136,-14,-143,82,61,-29,190,302,283,263,229
156,151,-4,-153,80,73,-39,190,317,307,283,248
165,161,-4,-163,85,78,-43,190,341,326,297,258
170,165,-4,-168,87,80,-53,185,346,336,307,268
170,175,4,-173,82,90,-58,185,366,351,326,283
175,180,4,-178,85,92,-68,175,375,366,331,292
180,185,4,-183,87,95,-78,161,380,370,341,302
185,190,4,-187,90,97,-87,141,380,366,336,302
190,190,0,-190,95,95,-92,122,370,361,331,302
175,190,14,-183,80,102,-102,87,351,346,317,287
161,185,24,-173,68,104,-102,63,312,322,292,263
146,170,24,-158,61,97,-102,43,283,287,263,234
122,156,34,-139,43,95,-92,34,248,253,229,204
97,126,29,-112,34,78,-82,14,209,214,190,170
73,102,29,-87,21,65,-68,0,165,175,151,141
63,78,14,-70,24,46,-53,-4,126,136,117,102
43,53,9,-48,17,31,-34,-4,87,97,78,73
24,34,9,-29,7,21,-24,-9,58,68,48,43
9,14,4,-12,2,9,-9,-14,24,34,14,14
-9,-4,4,7,-7,0,-4,-19,-4,4,-9,-9
-14,-19,-4,17,-4,-12,0,-24,-19,-14,-29,-24
-24,-24,0,24,-12,-12,0,-24,-34,-34,-43,-39
-34,-29,4,31,-19,-12,9,-24,-58,-58,-58,-43
-34,-39,-4,36,-14,-21,9,-24,-68,-63,-68,-58
-34,-43,-9,39,-12,-26,14,-24,-73,-73,-73,-63
-43,-58,-14,51,-14,-36,19,-19,-73,-78,-78,-73
-48,-63,-14,56,-17,-39,19,-14,-78,-82,-82,-73
-53,-63,-9,58,-21,-36,24,-14,-82,-82,-87,-73
-53,-63,-9,58,-21,-36,24,-14,-82,-82,-87,-73
-48,-63,-14,56,-17,-39,24,-14,-82,-82,-87,-73
-43,-63,-19,53,-12,-41,24,-14,-87,-82,-87,-73
-43,-68,-24,56,-9,-46,19,-14,-87,-82,-87,-73
-43,-68,-24,56,-9,-46,19,-14,-87,-82,-87,-73
-43,-68,-24,56,-9,-46,24,-14,-87,-82,-87,-73
-43,-68,-24,56,-9,-46,24,-14,-87,-82,-87,-73
-43,-68,-24,56,-9,-46,24,-14,-87,-82,-87,-73
-43,-68,-24,56,-9,-46,24,-9,-87,-82,-82,-73
-43,-68,-24,56,-9,-46,24,-9,-82,-82,-82,-73
-43,-63,-19,53,-12,-41,24,-9,-82,-82,-82,-73
-43,-63,-19,53,-12,-41,24,-9,-82,-82,-82,-73
-43,-68,-24,56,-9,-46,24,-9,-82,-78,-82,-73
-48,-68,-19,58,-14,-43,24,-14,-82,-78,-82,-73
-53,-63,-9,58,-21,-36,24,-19,-82,-78,-82,-73
-53,-63,-9,58,-21,-36,24,-19,-82,-78,-82,-73
-53,-63,-9,58,-21,-36,19,-19,-82,-78,-78,-68
-53,-63,-9,58,-21,-36,19,-19,-82,-78,-78,-68
-53,-63,-9,58,-21,-36,19,-19,-78,-78,-78,-68
-53,-63,-9,58,-21,-36,19,-19,-78,-73,-78,-68
-48,-63,-14,56,-17,-39,19,-19,-78,-73,-78,-68
-43,-63,-19,53,-12,-41,19,-19,-78,-73,-78,-68
-39,-63,-24,51,-7,-43,19,-19,-78,-73,-78,-68
-39,-58,-19,48,-9,-39,19,-14,-78,-73,-73,-63
-39,-58,-19,48,-9,-39,19,-9,-78,-73,-73,-63
-43,-58,-14,51,-14,-36,14,-14,-73,-68,-78,-63
-48,-63,-14,56,-17,-39,9,-14,-68,-63,-78,-63
-48,-63,-14,56,-17,-39,14,-14,-68,-63,-73,-63
-48,-63,-14,56,-17,-39,14,-14,-68,-63,-73,-63
-48,-58,-9,53,-19,-34,19,-14,-73,-68,-73,-68
-48,-53,-4,51,-21,-29,24,-14,-78,-73,-73,-68
-48,-53,-4,51,-21,-29,19,-14,-78,-73,-73,-63
-48,-53,-4,51,-21,-29,19,-14,-78,-73,-73,-63
-48,-58,-9,53,-19,-34,19,-14,-78,-68,-73,-68
-48,-58,-9,53,-19,-34,24,-14,-78,-63,-78,-68
-48,-58,-9,53,-19,-34,24,-14,-78,-63,-78,-68
-48,-58,-9,53,-19,-34,19,-14,-82,-68,-78,-68
-48,-58,-9,53,-19,-34,19,-14,-78,-68,-78,-68
-48,-63,-14,56,-17,-39,19,-19,-78,-73,-82,-68
-48,-63,-14,56,-17,-39,19,-19,-78,-78,-82,-68
-48,-63,-14,56,-17,-39,19,-19,-78,-78,-82,-73
-48,-63,-14,56,-17,-39,19,-19,-78,-73,-82,-73
-53,-63,-9,58,-21,-36,19,-24,-78,-73,-87,-73
-53,-63,-9,58,-21,-36,19,-24,-82,-73,-87,-78
-53,-68,-14,61,-19,-41,19,-24,-82,-78,-87,-78
-63,-68,-4,65,-29,-36,14,-24,-87,-78,-87,-78
-68,-68,0,68,-34,-34,14,-24,-97,-78,-87,-78
-63,-68,-4,65,-29,-36,14,-24,-97,-82,-92,-78
-63,-68,-4,65,-29,-36,14,-24,-97,-82,-92,-78
-58,-73,-14,65,-21,-43,9,-24,-92,-82,-92,-82
-53,-82,-29,68,-12,-56,9,-24,-92,-87,-92,-82
-58,-82,-24,70,-17,-53,14,-29,-92,-87,-97,-82
-58,-82,-24,70,-17,-53,19,-34,-92,-87,-97,-87
-58,-78,-19,68,-19,-48,19,-34,-92,-87,-97,-87
-63,-73,-9,68,-26,-41,24,-34,-92,-87,-97,-82
-58,-78,-19,68,-19,-48,24,-34,-97,-87,-97,-82
-58,-82,-24,70,-17,-53,29,-34,-102,-87,-102,-87
-58,-82,-24,70,-17,-53,29,-29,-102,-87,-102,-87
-58,-87,-29,73,-14,-58,29,-29,-107,-87,-107,-87
-63,-87,-24,75,-19,-56,29,-29,-107,-87,-107,-92
-68,-87,-19,78,-24,-53,29,-29,-107,-87,-107,-97
-68,-82,-14,75,-26,-48,29,-29,-102,-87,-107,-97
-63,-78,-14,70,-24,-46,29,-29,-97,-87,-107,-92
-63,-78,-14,70,-24,-46,29,-34,-97,-87,-107,-92
-58,-78,-19,68,-19,-48,29,-34,-97,-87,-107,-87
-58,-78,-19,68,-19,-48,24,-34,-97,-87,-107,-87
-63,-78,-14,70,-24,-46,19,-34,-97,-92,-107,-92
-63,-78,-14,70,-24,-46,19,-34,-107,-92,-107,-92
-58,-82,-24,70,-17,-53,19,-34,-112,-92,-112,-92
-58,-82,-24,70,-17,-53,19,-34,-112,-92,-117,-97
-58,-82,-24,70,-17,-53,19,-34,-112,-92,-122,-102
-58,-87,-29,73,-14,-58,19,-34,-112,-97,-122,-102
-58,-92,-34,75,-12,-63,19,-34,-112,-97,-122,-102
-63,-92,-29,78,-17,-61,24,-29,-112,-97,-122,-102
-68,-87,-19,78,-24,-53,29,-29,-107,-92,-122,-102
-58,-73,-14,65,-21,-43,29,-24,-97,-82,-117,-97
-53,-58,-4,56,-24,-31,29,-24,-92,-78,-112,-92
-48,-29,19,39,-34,-4,29,-24,-82,-68,-102,-87
-48,-29,19,39,-34,-4,29,-24,-73,-63,-97,-82
-43,-29,14,36,-29,-7,34,-19,-73,-58,-97,-78
-39,-24,14,31,-26,-4,34,-14,-63,-58,-92,-78
-39,-24,14,31,-26,-4,34,-14,-68,-53,-87,-73
-24,-24,0,24,-12,-12,29,-9,-68,-48,-82,-68
-24,-19,4,21,-14,-7,9,-9,-63,-53,-73,-68
0,9,9,-4,-4,9,-14,-19,-34,-29,-43,-48
19,34,14,-26,2,24,-53,-39,-4,-4,-29,-29
24,39,14,-31,4,26,-63,-43,-4,9,-24,-19
29,39,9,-34,9,24,-63,-48,-19,0,-34,-19
29,24,-4,-26,17,9,-58,-48,-29,-14,-43,-34
29,4,-24,-17,26,-9,-29,-19,-43,-19,-43,-34
29,4,-24,-17,26,-9,-9,-9,-43,-19,-43,-29
34,14,-19,-24,26,-2,-24,-19,-48,-19,-48,-24
24,4,-19,-14,21,-7,-29,-43,-63,-39,-63,-39
9,-39,-48,14,29,-43,-4,-34,-78,-53,-82,-58
-19,-58,-39,39,9,-48,9,-34,-82,-58,-92,-68
-34,-68,-34,51,0,-51,14,-34,-82,-63,-97,-78
-48,-78,-29,63,-9,-53,29,-34,-92,-73,-107,-87
-58,-82,-24,70,-17,-53,34,-24,-92,-82,-112,-92
-68,-92,-24,80,-21,-58,39,-19,-102,-92,-122,-112
-68,-92,-24,80,-21,-58,39,-29,-117,-102,-126,-112
-68,-97,-29,82,-19,-63,39,-39,-122,-107,-126,-112
-68,-107,-39,87,-14,-73,43,-39,-126,-112,-131,-117
-78,-112,-34,95,-21,-73,43,-34,-126,-117,-136,-117
-97,-82,14,90,-56,-34,43,-48,-97,-92,-131,-122
-102,-43,58,73,-80,7,53,-34,-29,-43,-102,-107
-107,-9,97,58,-102,43,78,73,63,19,-58,-92
-39,19,58,9,-48,39,107,268,170,122,34,-14
107,68,-39,-87,73,14,97,424,292,263,175,117
283,195,-87,-239,185,53,0,429,439,453,380,312
497,414,-82,-456,290,165,-180,322,512,658,653,590
619,634,14,-627,302,324,-419,14,605,883,927,863
561,790,229,-675,165,509,-610,-473,790,1146,1195,1112
375,614,239,-495,68,427,-551,-692,585,849,902,902
73,278,204,-175,-65,241,-287,-561,185,287,312,385
-190,146,336,21,-263,241,-180,-561,-73,-29,-39,24
-302,136,439,82,-370,287,-229,-702,-278,-219,-219,-156
-297,68,366,114,-331,217,-234,-658,-346,-297,-278,-224
-209,34,244,87,-226,139,-185,-453,-287,-244,-229,-170
-151,29,180,61,-165,104,-122,-278,-190,-161,-156,-126
-87,-29,58,58,-73,14,-19,-97,-117,-107,-107,-87
-63,-53,9,58,-36,-21,24,-34,-87,-78,-82,-68
-58,-58,0,58,-29,-29,24,-34,-78,-68,-82,-68
-63,-68,-4,65,-29,-36,24,-24,-78,-63,-87,-82
-63,-73,-9,68,-26,-41,39,-4,-92,-78,-97,-82
-63,-73,-9,68,-26,-41,39,0,-92,-78,-97,-82
-58,-73,-14,65,-21,-43,39,0,-87,-78,-97,-82
-58,-73,-14,65,-21,-43,43,4,-87,-73,-97,-87
-53,-78,-24,65,-14,-51,43,14,-82,-78,-97,-87
-53,-78,-24,65,-14,-51,48,14,-82,-82,-97,-87
-53,-78,-24,65,-14,-51,43,19,-82,-82,-92,-82
-53,-78,-24,65,-14,-51,43,19,-78,-78,-92,-82
-48,-78,-29,63,-9,-53,43,24,-78,-78,-87,-82
-48,-73,-24,61,-12,-48,43,29,-78,-73,-87,-78
-48,-73,-24,61,-12,-48,43,29,-73,-68,-82,-78
-43,-68,-24,56,-9,-46,43,29,-68,-63,-82,-73
-43,-68,-24,56,-9,-46,43,34,-63,-58,-78,-63
-43,-63,-19,53,-12,-41,48,39,-63,-58,-78,-58
-39,-63,-24,51,-7,-43,48,43,-58,-53,-73,-58
-39,-63,-24,51,-7,-43,48,48,-48,-53,-68,-53
-34,-58,-24,46,-4,-41,43,48,-48,-48,-68,-53
-34,-58,-24,46,-4,-41,43,53,-39,-43,-58,-48
-29,-53,-24,41,-2,-39,43,58,-43,-34,-48,-43
-24,-48,-24,36,0,-36,43,58,-39,-29,-43,-43
-24,-48,-24,36,0,-36,43,63,-29,-24,-48,-39
-19,-43,-24,31,2,-34,43,68,-19,-14,-43,-34
-14,-39,-24,26,4,-31,43,63,-14,-9,-34,-29
-9,-39,-29,24,9,-34,48,63,-9,0,-34,-29
-9,-34,-24,21,7,-29,48,68,0,0,-24,-19
-4,-29,-24,17,9,-26,43,73,9,4,-14,-14
4,-19,-24,7,14,-21,43,78,14,14,-9,-4
9,-14,-24,2,17,-19,43,82,24,19,0,4
14,-14,-29,0,21,-21,43,87,29,29,14,14
19,0,-19,-9,19,-9,39,92,43,39,24,29
24,0,-24,-12,24,-12,34,102,53,48,39,39
34,9,-24,-21,29,-7,24,112,63,63,48,48
39,19,-19,-29,29,0,24,112,78,73,58,53
48,19,-29,-34,39,-4,19,117,87,82,68,63
53,24,-29,-39,41,-2,14,126,97,97,78,78
58,34,-24,-46,41,4,14,141,112,117,87,87
73,39,-34,-56,53,2,9,146,131,136,107,97
92,48,-43,-70,68,2,4,151,146,146,122,102
97,53,-43,-75,70,4,0,156,161,170,131,117
112,63,-48,-87,80,7,-9,156,185,185,156,141
117,73,-43,-95,80,14,-9,165,204,204,175,156
126,82,-43,-104,85,19,-19,165,224,224,190,170
136,92,-43,-114,90,24,-29,170,244,244,209,185
151,107,-43,-129,97,31,-39,170,263,263,229,204
161,117,-43,-139,102,36,-48,170,283,283,248,219
165,131,-34,-148,100,48,-58,170,297,302,273,239
175,141,-34,-158,104,53,-63,170,322,317,287,253
185,146,-39,-165,112,53,-73,165,326,326,297,268
190,156,-34,-173,112,61,-73,165,351,341,317,287
195,165,-29,-180,112,68,-78,156,366,356,322,302
200,175,-24,-187,112,75,-87,146,370,366,336,312
200,180,-19,-190,109,80,-97,131,370,370,341,312
200,180,-19,-190,109,80,-102,117,366,370,341,312
185,180,-4,-183,95,87,-112,87,356,356,326,302
170,175,4,-173,82,90,-112,68,322,331,302,283
156,161,4,-158,75,82,-112,48,292,297,273,253
131,151,19,-141,56,85,-102,34,258,258,239,224
107,131,24,-119,41,78,-92,14,219,214,200,185
82,112,29,-97,26,70,-78,0,175,175,156,151
68,87,19,-78,24,53,-68,-4,136,136,117,112
43,63,19,-53,12,41,-53,-4,97,97,78,82
24,43,19,-34,2,31,-43,-9,68,68,48,53
4,19,14,-12,-4,17,-29,-14,34,34,14,19
-19,-4,14,12,-17,4,-19,-14,4,4,-9,-9
-24,-19,4,21,-14,-7,-4,-14,-9,-14,-29,-29
-34,-29,4,31,-19,-12,0,-14,-24,-29,-43,-48
-39,-39,0,39,-19,-19,9,-14,-48,-53,-58,-53
-34,-48,-14,41,-9,-31,9,-14,-58,-63,-68,-68
-34,-53,-19,43,-7,-36,14,-14,-63,-73,-78,-73
-39,-63,-24,51,-7,-43,19,-14,-63,-78,-87,-82
-43,-63,-19,53,-12,-41,19,-14,-73,-87,-92,-87
-53,-63,-9,58,-21,-36,24,-14,-82,-92,-97,-92
-58,-63,-4,61,-26,-34,24,-14,-82,-92,-97,-92
-63,-63,0,63,-31,-31,24,-14,-82,-92,-97,-92
-63,-63,0,63,-31,-31,24,-14,-87,-92,-102,-92
-63,-68,-4,65,-29,-36,19,-14,-87,-92,-107,-92
-58,-68,-9,63,-24,-39,19,-14,-87,-92,-107,-92
-53,-68,-14,61,-19,-41,24,-14,-87,-92,-107,-92
-53,-68,-14,61,-19,-41,24,-19,-87,-92,-107,-92
-53,-68,-14,61,-19,-41,24,-24,-87,-92,-107,-92
-53,-63,-9,58,-21,-36,19,-19,-87,-92,-102,-92
-53,-58,-4,56,-24,-31,14,-19,-82,-92,-102,-92
-53,-53,0,53,-26,-26,14,-19,-82,-92,-102,-87
-53,-53,0,53,-26,-26,14,-19,-82,-92,-102,-82
-53,-58,-4,56,-24,-31,14,-19,-82,-87,-102,-82
-53,-58,-4,56,-24,-31,14,-19,-82,-87,-102,-82
-53,-53,0,53,-26,-26,14,-19,-82,-87,-102,-82
-53,-53,0,53,-26,-26,14,-19,-82,-87,-102,-82
-53,-53,0,53,-26,-26,9,-19,-82,-87,-97,-78
-53,-53,0,53,-26,-26,9,-19,-82,-87,-97,-78
-53,-53,0,53,-26,-26,9,-14,-78,-87,-92,-78
-53,-53,0,53,-26,-26,9,-9,-78,-82,-87,-78
-48,-53,-4,51,-21,-29,9,-9,-78,-82,-87,-78
-48,-53,-4,51,-21,-29,9,-9,-78,-82,-87,-78
-48,-53,-4,51,-21,-29,9,-9,-78,-82,-87,-78
-48,-48,0,48,-24,-24,9,-9,-78,-82,-82,-73
-48,-48,0,48,-24,-24,9,-9,-78,-82,-82,-73
-48,-48,0,48,-24,-24,9,-14,-78,-82,-87,-73
-48,-53,-4,51,-21,-29,9,-14,-78,-82,-87,-73
-48,-53,-4,51,-21,-29,14,-14,-78,-82,-82,-73
-48,-58,-9,53,-19,-34,14,-14,-78,-82,-82,-78
-48,-58,-9,53,-19,-34,14,-14,-78,-82,-82,-87
-48,-53,-4,51,-21,-29,14,-14,-78,-82,-82,-87
-48,-53,-4,51,-21,-29,9,-14,-78,-82,-82,-82
-48,-48,0,48,-24,-24,9,-14,-78,-87,-87,-78
-48,-48,0,48,-24,-24,9,-14,-78,-92,-92,-78
-48,-48,0,48,-24,-24,14,-14,-78,-92,-97,-78
-48,-48,0,48,-24,-24,14,-14,-78,-92,-97,-78
-48,-53,-4,51,-21,-29,9,-19,-87,-97,-97,-82
-48,-58,-9,53,-19,-34,9,-24,-92,-97,-97,-87
-48,-63,-14,56,-17,-39,9,-29,-97,-102,-102,-87
-48,-63,-14,56,-17,-39,9,-29,-97,-107,-102,-87
-48,-63,-14,56,-17,-39,14,-29,-97,-107,-97,-87
-48,-63,-14,56,-17,-39,19,-29,-97,-102,-92,-82
-58,-63,-4,61,-26,-34,19,-34,-97,-102,-97,-82
-63,-63,0,63,-31,-31,19,-34,-102,-102,-97,-87
-63,-68,-4,65,-29,-36,19,-29,-102,-107,-97,-87
-68,-68,0,68,-34,-34,19,-24,-102,-107,-97,-87
-68,-68,0,68,-34,-34,24,-24,-107,-107,-97,-87
-63,-68,-4,65,-29,-36,24,-24,-107,-112,-102,-87
-58,-68,-9,63,-24,-39,24,-29,-107,-112,-102,-87
-53,-68,-14,61,-19,-41,19,-34,-107,-112,-102,-92
-53,-73,-19,63,-17,-46,19,-34,-112,-117,-102,-92
-58,-73,-14,65,-21,-43,19,-34,-112,-117,-107,-92
-58,-68,-9,63,-24,-39,19,-29,-112,-117,-107,-97
-58,-63,-4,61,-26,-34,24,-24,-112,-117,-107,-97
-58,-68,-9,63,-24,-39,24,-24,-112,-112,-107,-97
-58,-73,-14,65,-21,-43,29,-24,-112,-107,-112,-97
-58,-73,-14,65,-21,-43,24,-24,-112,-112,-112,-97
-58,-78,-19,68,-19,-48,19,-29,-117,-117,-117,-97
-58,-78,-19,68,-19,-48,19,-34,-117,-117,-117,-97
-58,-78,-19,68,-19,-48,19,-39,-117,-117,-117,-97
-63,-78,-14,70,-24,-46,24,-39,-117,-117,-117,-102
-63,-78,-14,70,-24,-46,24,-39,-117,-117,-117,-102
-68,-78,-9,73,-29,-43,29,-39,-117,-117,-117,-107
-68,-78,-9,73,-29,-43,29,-34,-117,-117,-117,-107
-68,-73,-4,70,-31,-39,29,-34,-117,-117,-117,-102
-73,-68,4,70,-39,-31,29,-34,-117,-122,-117,-102
-73,-68,4,70,-39,-31,29,-34,-122,-122,-112,-102
-68,-73,-4,70,-31,-39,29,-34,-122,-122,-112,-102
-68,-73,-4,70,-31,-39,24,-34,-122,-122,-112,-102
-68,-73,-4,70,-31,-39,19,-34,-122,-122,-112,-102
-68,-73,-4,70,-31,-39,19,-34,-122,-126,-112,-102
-68,-73,-4,70,-31,-39,19,-34,-122,-126,-112,-102
-68,-73,-4,70,-31,-39,19,-29,-122,-126,-112,-102
-68,-68,0,68,-34,-34,19,-29,-117,-122,-112,-102
-58,-53,4,56,-31,-24,19,-24,-102,-107,-107,-97
-53,-39,14,46,-34,-12,19,-24,-92,-97,-102,-92
-48,-9,39,29,-43,14,19,-24,-82,-87,-92,-87
-48,-9,39,29,-43,14,19,-24,-73,-82,-87,-82
-43,-9,34,26,-39,12,29,-19,-73,-78,-87,-78
-39,-4,34,21,-36,14,34,-14,-63,-78,-82,-78
-39,-4,34,21,-36,14,34,-14,-63,-73,-78,-78
-24,-4,19,14,-21,7,29,-9,-58,-68,-73,-78
-19,0,19,9,-19,9,4,-9,-58,-73,-63,-68
9,29,19,-19,-4,24,-24,-19,-34,-48,-34,-39
29,48,19,-39,4,34,-58,-39,-14,-39,-29,-29
34,48,14,-41,9,31,-63,-43,-24,-39,-34,-29
34,43,9,-39,12,26,-63,-48,-39,-48,-43,-29
29,24,-4,-26,17,9,-58,-48,-48,-63,-53,-43
34,4,-29,-19,31,-12,-39,-29,-63,-68,-53,-43
39,4,-34,-21,36,-14,-29,-29,-63,-68,-53,-39
34,9,-24,-21,29,-7,-29,-29,-68,-63,-53,-34
14,-4,-19,-4,17,-12,-19,-43,-82,-78,-63,-48
0,-34,-34,17,17,-34,-4,-34,-97,-92,-82,-68
-29,-39,-9,34,-9,-24,0,-34,-102,-97,-92,-78
-43,-48,-4,46,-19,-26,9,-34,-102,-102,-102,-87
-58,-58,0,58,-29,-29,29,-34,-112,-112,-117,-97
-63,-68,-4,65,-29,-36,34,-34,-112,-122,-122,-97
-68,-82,-14,75,-26,-48,39,-39,-122,-131,-131,-112
-68,-82,-14,75,-26,-48,39,-39,-131,-136,-136,-112
-68,-87,-19,78,-24,-53,39,-39,-131,-136,-136,-112
-68,-87,-19,78,-24,-53,43,-39,-136,-136,-136,-117
-78,-82,-4,80,-36,-43,43,-34,-136,-136,-136,-117
-97,-48,48,73,-73,0,43,-39,-97,-107,-126,-122
-102,-4,97,53,-100,46,53,-14,-19,-53,-92,-107
-102,29,131,36,-117,80,82,92,73,14,-43,-87
-29,58,87,-14,-58,73,117,287,180,122,53,-4
126,136,9,-131,58,73,68,370,292,263,204,136
312,292,-19,-302,165,136,-68,302,429,453,419,341
517,492,-24,-505,270,234,-253,175,512,653,673,614
629,692,63,-661,283,378,-497,-151,614,873,927,883
561,790,229,-675,165,509,-653,-590,732,1054,1132,1073
366,556,190,-461,87,373,-561,-761,458,673,775,805
73,258,185,-165,-56,222,-346,-658,63,151,244,346
-180,165,346,7,-263,256,-287,-688,-190,-126,-48,43
-263,141,405,61,-334,273,-287,-736,-346,-273,-209,-117
-229,58,287,85,-258,173,-244,-600,-366,-307,-248,-165
-156,24,180,65,-168,102,-170,-385,-278,-239,-200,-122
-112,19,131,46,-122,75,-82,-200,-151,-141,-126,-87
-63,-29,34,46,-48,2,-4,-58,-102,-107,-97,-68
-53,-43,9,48,-31,-17,14,-34,-97,-97,-92,-68
-53,-53,0,53,-26,-26,19,-34,-87,-92,-87,-68
-63,-68,-4,65,-29,-36,24,-24,-87,-92,-87,-82
-63,-73,-9,68,-26,-41,39,-4,-102,-107,-97,-82
-63,-73,-9,68,-26,-41,39,0,-102,-107,-97,-82
-63,-73,-9,68,-26,-41,39,0,-97,-107,-97,-82
-68,-73,-4,70,-31,-39,43,4,-97,-102,-97,-87
-63,-78,-14,70,-24,-46,43,14,-92,-102,-97,-87
-63,-78,-14,70,-24,-46,48,14,-92,-102,-97,-87
-63,-78,-14,70,-24,-46,48,19,-92,-102,-92,-82
-63,-78,-14,70,-24,-46,53,19,-87,-97,-92,-82
-53,-73,-19,63,-17,-46,53,29,-82,-97,-87,-82
-48,-63,-14,56,-17,-39,53,39,-78,-92,-87,-78
-48,-63,-14,56,-17,-39,53,39,-73,-87,-82,-78
-43,-58,-14,51,-14,-36,53,39,-68,-82,-82,-73
-43,-58,-14,51,-14,-36,53,43,-63,-73,-78,-68
-43,-53,-9,48,-17,-31,58,48,-63,-68,-78,-68
-39,-53,-14,46,-12,-34,58,48,-58,-63,-73,-68
-39,-53,-14,46,-12,-34,58,48,-48,-63,-68,-63
-34,-48,-14,41,-9,-31,53,48,-48,-58,-68,-63
-34,-48,-14,41,-9,-31,53,53,-39,-53,-58,-58
-34,-43,-9,39,-12,-26,53,63,-39,-43,-48,-48
-34,-39,-4,36,-14,-21,53,68,-29,-39,-43,-43
-34,-39,-4,36,-14,-21,53,73,-19,-34,-48,-39
-29,-34,-4,31,-12,-19,53,78,-9,-24,-43,-34
-24,-29,-4,26,-9,-17,43,73,-4,-19,-34,-29
-19,-29,-9,24,-4,-19,39,73,0,-9,-34,-29
-19,-29,-9,24,-4,-19,39,78,9,-4,-24,-19
-14,-29,-14,21,0,-21,34,82,19,4,-14,-14
-4,-19,-14,12,4,-17,34,92,29,14,-9,-4
0,-14,-14,7,7,-14,34,102,43,19,0,4
4,-14,-19,4,12,-17,39,107,48,29,9,9
9,0,-9,-4,9,-4,39,112,63,39,14,19
14,0,-14,-7,14,-7,39,122,73,48,34,29
24,9,-14,-17,19,-2,34,131,82,63,48,39
29,24,-4,-26,17,9,34,131,97,73,58,43
39,29,-9,-34,24,9,29,136,107,82,68,53
39,34,-4,-36,21,14,24,141,117,97,82,68
39,43,4,-41,17,24,24,151,131,117,97,78
48,48,0,-48,24,24,19,156,151,141,117,92
63,58,-4,-61,34,26,14,161,165,156,131,102
73,73,0,-73,36,36,9,170,180,180,141,117
92,92,0,-92,46,46,0,175,204,195,165,141
97,102,4,-100,46,53,0,185,224,214,185,156
107,112,4,-109,51,58,-9,185,244,234,200,170
117,117,0,-117,58,58,-14,190,263,253,219,185
131,126,-4,-129,68,61,-19,190,283,273,239,204
141,136,-4,-139,73,65,-29,190,302,292,253,219
146,151,4,-148,70,78,-39,190,317,312,273,239
156,165,9,-161,73,87,-43,190,341,326,287,248
165,175,9,-170,78,92,-53,185,346,336,297,258
170,185,14,-178,78,100,-58,185,366,351,317,273
175,195,19,-185,78,107,-68,175,375,366,322,283
180,204,24,-192,78,114,-78,161,380,370,331,292
180,209,29,-195,75,119,-87,141,380,370,331,292
185,204,19,-195,82,112,-92,126,370,366,331,292
175,200,24,-187,75,112,-102,97,356,346,317,283
161,195,34,-178,63,114,-102,73,322,322,292,263
146,180,34,-163,56,107,-102,48,292,287,263,234
122,161,39,-141,41,100,-92,34,258,248,224,204
97,131,34,-114,31,82,-82,14,219,204,180,165
73,112,39,-92,17,75,-68,0,175,165,141,131
58,87,29,-73,14,58,-58,-4,136,126,107,92
34,63,29,-48,2,46,-43,-4,97,92,73,63
14,43,29,-29,-7,36,-34,-9,68,68,48,34
0,24,24,-12,-12,24,-24,-14,34,34,19,4
-19,4,24,7,-21,14,-19,-14,4,4,0,-19
-24,-9,14,17,-19,2,-9,-14,-9,-14,-19,-34
-34,-19,14,26,-24,-2,-9,-14,-24,-29,-34,-48
-43,-24,19,34,-31,-2,4,-14,-48,-48,-48,-48
-43,-29,14,36,-29,-7,9,-14,-58,-53,-58,-58
-43,-34,9,39,-26,-12,14,-14,-63,-63,-63,-63
-48,-43,4,46,-26,-19,19,-14,-63,-68,-68,-73
-48,-48,0,48,-24,-24,14,-14,-68,-73,-73,-78
-53,-53,0,53,-26,-26,14,-14,-73,-73,-78,-82
-53,-53,0,53,-26,-26,14,-14,-73,-73,-78,-82
-53,-53,0,53,-26,-26,14,-14,-73,-73,-78,-82
-53,-53,0,53,-26,-26,14,-14,-78,-78,-82,-82
-53,-58,-4,56,-24,-31,9,-14,-78,-82,-87,-82
-53,-58,-4,56,-24,-31,9,-14,-78,-82,-87,-82
-53,-58,-4,56,-24,-31,14,-14,-78,-82,-87,-82
-53,-58,-4,56,-24,-31,19,-14,-78,-78,-82,-82
-53,-58,-4,56,-24,-31,24,-14,-78,-73,-78,-82
-53,-58,-4,56,-24,-31,24,-9,-78,-73,-73,-82
-53,-58,-4,56,-24,-31,24,-9,-73,-73,-73,-82
-53,-53,0,53,-26,-26,24,-9,-73,-73,-78,-82
-53,-53,0,53,-26,-26,24,-9,-73,-73,-82,-82
-53,-58,-4,56,-24,-31,24,-9,-73,-68,-82,-78
-53,-58,-4,56,-24,-31,24,-9,-73,-68,-82,-73
-48,-53,-4,51,-21,-29,24,-9,-73,-68,-82,-73
-43,-53,-9,48,-17,-31,24,-9,-73,-68,-82,-73
-43,-53,-9,48,-17,-31,19,-9,-73,-68,-78,-68
-43,-53,-9,48,-17,-31,19,-9,-73,-68,-78,-68
-43,-53,-9,48,-17,-31,19,-9,-68,-68,-78,-68
-43,-53,-9,48,-17,-31,19,-9,-68,-63,-78,-68
-39,-53,-14,46,-12,-34,19,-9,-68,-63,-78,-68
-39,-53,-14,46,-12,-34,19,-9,-68,-63,-78,-68
-39,-53,-14,46,-12,-34,19,-9,-68,-63,-78,-68
-39,-48,-9,43,-14,-29,19,-9,-68,-63,-73,-63
-39,-48,-9,43,-14,-29,19,-9,-68,-63,-73,-63
-39,-48,-9,43,-14,-29,19,-14,-68,-63,-78,-63
-39,-53,-14,46,-12,-34,19,-14,-68,-63,-78,-63
-39,-53,-14,46,-12,-34,24,-14,-68,-63,-73,-63
-39,-53,-14,46,-12,-34,24,-14,-68,-63,-73,-63
-39,-48,-9,43,-14,-29,24,-14,-68,-63,-73,-68
-43,-43,0,43,-21,-21,24,-14,-68,-63,-73,-73
-48,-43,4,46,-26,-19,19,-14,-68,-63,-73,-73
-48,-43,4,46,-26,-19,19,-14,-68,-63,-68,-73
-48,-48,0,48,-24,-24,19,-14,-68,-63,-63,-78
-43,-48,-4,46,-19,-26,24,-14,-68,-63,-68,-73
-39,-48,-9,43,-14,-29,24,-14,-68,-63,-68,-68
-39,-48,-9,43,-14,-29,19,-14,-73,-68,-68,-68
-39,-48,-9,43,-14,-29,19,-14,-73,-68,-68,-68
-39,-53,-14,46,-12,-34,19,-19,-78,-73,-73,-68
-39,-53,-14,46,-12,-34,19,-19,-78,-78,-73,-68
-39,-53,-14,46,-12,-34,19,-19,-73,-78,-73,-73
-39,-53,-14,46,-12,-34,19,-19,-68,-73,-73,-73
-43,-53,-9,48,-17,-31,19,-24,-68,-73,-78,-73
-43,-53,-9,48,-17,-31,19,-24,-73,-73,-78,-78
-43,-58,-14,51,-14,-36,19,-24,-73,-78,-78,-78
-48,-58,-9,53,-19,-34,19,-24,-73,-78,-78,-78
-53,-58,-4,56,-24,-31,24,-24,-78,-78,-78,-78
-53,-58,-4,56,-24,-31,24,-24,-78,-82,-82,-78
-53,-58,-4,56,-24,-31,24,-24,-78,-82,-82,-78
-53,-58,-4,56,-24,-31,19,-24,-78,-82,-82,-82
-53,-63,-9,58,-21,-36,19,-24,-82,-87,-82,-82
-58,-63,-4,61,-26,-34,19,-24,-82,-87,-87,-82
-53,-63,-9,58,-21,-36,19,-24,-87,-87,-92,-87
-48,-63,-14,56,-17,-39,19,-24,-92,-87,-97,-87
-53,-63,-9,58,-21,-36,24,-19,-92,-87,-97,-82
-53,-63,-9,58,-21,-36,24,-19,-92,-87,-97,-82
-58,-63,-4,61,-26,-34,29,-19,-87,-87,-92,-87
-63,-68,-4,65,-29,-36,29,-19,-87,-92,-92,-87
-58,-68,-9,63,-24,-39,29,-19,-87,-92,-92,-87
-58,-68,-9,63,-24,-39,29,-19,-87,-97,-97,-87
-58,-68,-9,63,-24,-39,29,-19,-87,-97,-97,-87
-58,-68,-9,63,-24,-39,29,-19,-87,-97,-97,-87
-58,-68,-9,63,-24,-39,29,-19,-92,-97,-97,-87
-58,-68,-9,63,-24,-39,24,-19,-92,-97,-97,-87
-58,-68,-9,63,-24,-39,24,-19,-97,-97,-97,-87
-58,-68,-9,63,-24,-39,19,-24,-97,-97,-97,-87
-58,-68,-9,63,-24,-39,19,-24,-97,-97,-97,-87
-58,-68,-9,63,-24,-39,19,-24,-97,-97,-97,-87
-63,-68,-4,65,-29,-36,19,-24,-92,-97,-97,-92
-63,-68,-4,65,-29,-36,19,-24,-92,-92,-97,-92
-58,-73,-14,65,-21,-43,19,-24,-92,-92,-102,-92
-58,-73,-14,65,-21,-43,19,-24,-92,-92,-102,-92
-58,-68,-9,63,-24,-39,19,-24,-92,-92,-102,-92
-58,-63,-4,61,-26,-34,19,-24,-92,-97,-102,-92
-58,-63,-4,61,-26,-34,19,-24,-92,-97,-102,-92
-58,-63,-4,61,-26,-34,19,-19,-92,-97,-102,-92
-58,-63,-4,61,-26,-34,19,-19,-87,-92,-102,-92
-48,-53,-4,51,-21,-29,19,-14,-78,-82,-97,-87
-39,-39,0,39,-19,-19,19,-14,-73,-78,-92,-82
-29,-9,19,19,-24,4,19,-14,-63,-68,-82,-78
-29,-9,19,19,-24,4,24,-14,-58,-63,-78,-73
-24,-9,14,17,-19,2,34,-9,-63,-58,-78,-68
-19,-4,14,12,-17,4,34,-4,-53,-58,-73,-68
-19,-4,14,12,-17,4,34,-4,-53,-53,-68,-63
-4,-4,0,4,-2,-2,29,0,-48,-48,-63,-58
0,0,0,0,0,0,9,0,-43,-43,-53,-48
29,29,0,-29,14,14,-14,-9,-14,-9,-24,-19
48,48,0,-48,24,24,-48,-29,4,0,-14,-9
48,43,-4,-46,26,19,-58,-34,-4,0,-14,-14
43,34,-9,-39,26,12,-63,-39,-19,-9,-24,-19
39,14,-24,-26,31,-4,-58,-39,-29,-29,-34,-34
39,-4,-43,-17,41,-24,-39,-19,-43,-39,-34,-34
39,0,-39,-19,39,-19,-29,-19,-43,-39,-34,-24
34,4,-29,-19,31,-12,-29,-19,-48,-39,-39,-19
14,-14,-29,0,21,-21,-19,-34,-58,-58,-48,-39
0,-43,-43,21,21,-43,-4,-24,-68,-73,-63,-58
-29,-48,-19,39,-4,-34,0,-24,-73,-73,-73,-68
-43,-58,-14,51,-14,-36,4,-24,-73,-73,-78,-78
-58,-73,-14,65,-21,-43,24,-24,-82,-82,-87,-87
-63,-82,-19,73,-21,-51,34,-24,-82,-92,-92,-87
-68,-92,-24,80,-21,-58,39,-29,-92,-102,-107,-102
-68,-92,-24,80,-21,-58,39,-29,-102,-107,-117,-102
-68,-97,-29,82,-19,-63,39,-34,-102,-107,-117,-102
-68,-97,-29,82,-19,-63,43,-39,-102,-107,-117,-107
-82,-87,-4,85,-39,-46,43,-34,-97,-107,-117,-107
-102,-48,53,75,-78,2,43,-34,-58,-73,-102,-107
-102,-4,97,53,-100,46,53,-4,19,-14,-63,-87
-87,34,122,26,-104,78,73,102,112,58,-4,-53
0,63,63,-31,-31,63,97,297,219,165,97,34
156,136,-19,-146,87,58,48,366,326,302,244,175
341,292,-48,-317,195,122,-87,283,458,492,458,390
522,483,-39,-502,280,222,-268,136,531,678,702,644
634,683,48,-658,292,366,-522,-209,634,888,961,912
561,766,204,-663,178,485,-658,-614,732,1029,1117,1063
326,507,180,-417,73,344,-531,-751,414,605,697,736
39,239,200,-139,-80,219,-336,-663,34,117,200,302
-200,170,370,14,-285,270,-292,-707,-190,-126,-63,14
-263,141,405,61,-334,273,-287,-741,-326,-258,-204,-131
-214,58,273,78,-244,165,-239,-585,-322,-278,-219,-156
-146,24,170,61,-158,97,-165,-366,-239,-209,-170,-112
-102,24,126,39,-114,75,-82,-180,-122,-112,-97,-78
-53,-19,34,36,-43,7,-4,-43,-73,-78,-68,-58
-48,-34,14,41,-31,-9,19,-24,-68,-68,-63,-58
-53,-39,14,46,-34,-12,24,-24,-58,-63,-63,-58
-63,-48,14,56,-39,-17,24,-19,-58,-58,-68,-73
-63,-53,9,58,-36,-21,39,-4,-73,-68,-78,-73
-63,-58,4,61,-34,-26,34,0,-73,-68,-78,-73
-58,-63,-4,61,-26,-34,29,0,-68,-68,-78,-73
-58,-63,-4,61,-26,-34,34,9,-68,-63,-73,-73
-53,-68,-14,61,-19,-41,34,24,-63,-63,-68,-68
-53,-68,-14,61,-19,-41,43,24,-63,-68,-68,-68
-53,-68,-14,61,-19,-41,48,29,-63,-73,-63,-63
-48,-68,-19,58,-14,-43,53,24,-58,-68,-68,-68
-39,-68,-29,53,-4,-48,53,24,-58,-68,-68,-73
-39,-63,-24,51,-7,-43,53,29,-58,-63,-68,-68
-39,-63,-24,51,-7,-43,53,29,-53,-58,-63,-68
-39,-58,-19,48,-9,-39,53,29,-48,-48,-63,-58
-43,-58,-14,51,-14,-36,53,34,-43,-39,-58,-48
-43,-53,-9,48,-17,-31,53,39,-43,-39,-53,-48
-39,-53,-14,46,-12,-34,48,43,-39,-34,-43,-48
-39,-53,-14,46,-12,-34,48,48,-24,-34,-39,-43
-34,-48,-14,41,-9,-31,43,48,-19,-29,-39,-43
-34,-48,-14,41,-9,-31,43,53,-9,-24,-29,-39
-29,-43,-14,36,-7,-29,43,58,-9,-14,-19,-29
-24,-39,-14,31,-4,-26,43,58,0,-9,-14,-24
-24,-39,-14,31,-4,-26,43,63,9,-4,-14,-19
-19,-34,-14,26,-2,-24,43,68,19,4,-4,-14
-14,-29,-14,21,0,-21,39,68,24,9,4,-9
-9,-29,-19,19,4,-24,39,73,29,19,4,-9
-9,-24,-14,17,2,-19,39,78,39,24,14,0
-4,-24,-19,14,7,-21,34,82,48,34,24,4
4,-19,-24,7,14,-21,34,87,53,43,29,14
9,-14,-24,2,17,-19,34,92,63,48,39,24
14,-14,-29,0,21,-21,34,97,68,58,48,29
19,0,-19,-9,19,-9,29,102,82,68,53,39
24,0,-24,-12,24,-12,29,112,92,78,68,48
34,9,-24,-21,29,-7,24,122,97,92,78,58
39,19,-19,-29,29,0,24,122,107,102,87,63
48,24,-24,-36,36,0,19,126,117,112,97,73
53,34,-19,-43,36,7,14,136,131,126,112,87
58,43,-14,-51,36,14,14,151,151,141,126,97
68,48,-19,-58,43,14,9,156,170,156,146,112
82,58,-24,-70,53,17,4,161,190,165,161,122
87,68,-19,-78,53,24,0,170,209,190,170,136
107,82,-24,-95,65,29,-4,175,234,204,195,161
117,92,-24,-104,70,34,0,185,253,224,214,175
126,102,-24,-114,75,39,-9,185,268,244,229,190
136,112,-24,-124,80,43,-14,190,283,263,248,204
146,122,-24,-134,85,48,-19,190,302,283,268,224
151,126,-24,-139,87,51,-29,190,322,302,283,239
156,141,-14,-148,85,63,-39,190,336,322,302,258
165,151,-14,-158,90,68,-43,190,361,336,317,268
175,156,-19,-165,97,68,-58,185,366,346,326,278
180,165,-14,-173,97,75,-68,185,385,361,346,292
185,175,-9,-180,97,82,-78,175,395,375,351,302
190,185,-4,-187,97,90,-87,161,400,380,361,312
190,190,0,-190,95,95,-97,141,395,375,356,312
190,190,0,-190,95,95,-102,122,380,370,351,312
175,190,14,-183,80,102,-112,82,366,356,336,302
161,185,24,-173,68,104,-112,53,331,331,312,283
151,170,19,-161,65,95,-112,29,297,292,283,253
131,156,24,-143,53,90,-102,14,258,253,248,224
107,131,24,-119,41,78,-92,-4,219,214,209,185
82,112,29,-97,26,70,-78,-19,175,175,170,151
68,87,19,-78,24,53,-68,-19,136,136,136,112
43,63,19,-53,12,41,-53,-14,97,97,97,82
24,43,19,-34,2,31,-39,-19,73,68,68,53
9,24,14,-17,-2,19,-19,-24,43,34,34,24
-9,4,14,2,-12,9,-9,-24,14,4,9,0
-14,-9,4,12,-9,-2,0,-24,0,-14,-9,-14
-24,-19,4,21,-14,-7,0,-24,-14,-29,-24,-29
-34,-29,4,31,-19,-12,9,-24,-39,-48,-39,-34
-34,-39,-4,36,-14,-21,4,-24,-48,-53,-48,-48
-34,-43,-9,39,-12,-26,4,-24,-53,-63,-53,-53
-39,-53,-14,46,-12,-34,9,-24,-53,-68,-58,-63
-39,-53,-14,46,-12,-34,9,-24,-58,-73,-63,-63
-43,-53,-9,48,-17,-31,14,-24,-63,-73,-68,-63
-43,-53,-9,48,-17,-31,14,-24,-63,-73,-68,-63
-43,-53,-9,48,-17,-31,19,-24,-63,-78,-68,-63
-43,-53,-9,48,-17,-31,24,-24,-68,-82,-68,-63
-43,-63,-19,53,-12,-41,19,-19,-68,-82,-68,-63
-43,-68,-24,56,-9,-46,19,-14,-68,-82,-68,-63
-43,-68,-24,56,-9,-46,19,-14,-73,-82,-68,-63
-43,-68,-24,56,-9,-46,14,-14,-78,-82,-68,-63
-43,-68,-24,56,-9,-46,14,-19,-78,-78,-68,-63
-43,-68,-24,56,-9,-46,14,-19,-78,-73,-63,-63
-43,-68,-24,56,-9,-46,14,-19,-73,-73,-63,-63
-43,-63,-19,53,-12,-41,14,-19,-73,-73,-63,-63
-43,-63,-19,53,-12,-41,14,-19,-73,-78,-63,-63
-43,-68,-24,56,-9,-46,14,-19,-73,-78,-63,-63
-43,-68,-24,56,-9,-46,14,-14,-73,-78,-63,-63
-43,-63,-19,53,-12,-41,14,-9,-73,-78,-63,-63
-43,-63,-19,53,-12,-41,19,-9,-68,-78,-63,-63
-43,-63,-19,53,-12,-41,19,-9,-63,-78,-58,-58
-43,-63,-19,53,-12,-41,19,-14,-63,-73,-58,-58
-43,-63,-19,53,-12,-41,19,-19,-58,-68,-58,-58
-43,-63,-19,53,-12,-41,14,-19,-58,-63,-58,-58
-39,-63,-24,51,-7,-43,9,-19,-58,-63,-58,-58
-39,-63,-24,51,-7,-43,9,-19,-58,-68,-58,-58
-39,-63,-24,51,-7,-43,9,-19,-58,-73,-58,-58
-39,-58,-19,48,-9,-39,9,-14,-58,-73,-53,-53
-39,-58,-19,48,-9,-39,9,-9,-58,-73,-53,-53
-48,-58,-9,53,-19,-34,9,-14,-58,-73,-58,-53
-58,-63,-4,61,-26,-34,9,-14,-58,-73,-58,-53
-48,-63,-14,56,-17,-39,14,-19,-58,-73,-53,-53
-39,-63,-24,51,-7,-43,14,-24,-58,-73,-53,-53
-39,-58,-19,48,-9,-39,14,-24,-58,-73,-53,-58
-39,-53,-14,46,-12,-34,14,-24,-58,-73,-53,-58
-43,-53,-9,48,-17,-31,9,-24,-58,-73,-53,-53
-48,-53,-4,51,-21,-29,9,-24,-58,-73,-53,-53
-48,-58,-9,53,-19,-34,9,-24,-63,-73,-53,-58
-48,-58,-9,53,-19,-34,14,-24,-68,-73,-58,-58
-48,-58,-9,53,-19,-34,14,-24,-68,-73,-58,-58
-48,-58,-9,53,-19,-34,9,-24,-73,-78,-58,-58
-43,-53,-9,48,-17,-31,9,-24,-73,-78,-58,-58
-39,-53,-14,46,-12,-34,9,-29,-78,-82,-63,-58
-39,-53,-14,46,-12,-34,9,-29,-78,-87,-63,-58
-39,-53,-14,46,-12,-34,9,-29,-78,-87,-63,-63
-39,-58,-19,48,-9,-39,9,-29,-78,-82,-63,-63
-43,-63,-19,53,-12,-41,9,-34,-78,-82,-68,-63
-43,-63,-19,53,-12,-41,9,-34,-82,-82,-73,-73
-43,-68,-24,56,-9,-46,9,-34,-82,-87,-78,-78
-48,-68,-19,58,-14,-43,9,-34,-82,-87,-78,-78
-48,-68,-19,58,-14,-43,14,-34,-87,-87,-78,-78
-48,-68,-19,58,-14,-43,14,-34,-87,-92,-82,-73
-53,-68,-14,61,-19,-41,14,-34,-87,-92,-82,-68
-53,-63,-9,58,-21,-36,9,-34,-87,-87,-82,-73
-53,-63,-9,58,-21,-36,9,-34,-92,-87,-82,-73
-58,-63,-4,61,-26,-34,9,-34,-92,-87,-87,-73
-58,-63,-4,61,-26,-34,9,-34,-92,-87,-87,-78
-58,-68,-9,63,-24,-39,9,-34,-92,-92,-87,-78
-63,-73,-9,68,-26,-41,14,-34,-92,-97,-87,-73
-58,-73,-14,65,-21,-43,14,-34,-87,-97,-87,-73
-53,-73,-19,63,-17,-46,19,-29,-82,-97,-87,-78
-53,-68,-14,61,-19,-41,19,-29,-87,-97,-87,-78
-53,-68,-14,61,-19,-41,19,-29,-87,-92,-82,-78
-58,-68,-9,63,-24,-39,19,-29,-87,-92,-82,-82
-63,-68,-4,65,-29,-36,19,-29,-87,-92,-82,-87
-63,-68,-4,65,-29,-36,19,-29,-92,-92,-82,-87
-63,-68,-4,65,-29,-36,19,-29,-102,-92,-82,-87
-58,-68,-9,63,-24,-39,19,-29,-102,-97,-82,-87
-58,-73,-14,65,-21,-43,19,-34,-107,-102,-87,-87
-58,-68,-9,63,-24,-39,19,-29,-102,-102,-87,-87
-58,-68,-9,63,-24,-39,19,-29,-97,-107,-87,-87
-58,-68,-9,63,-24,-39,19,-29,-97,-107,-87,-92
-58,-68,-9,63,-24,-39,19,-29,-97,-107,-87,-97
-58,-68,-9,63,-24,-39,19,-29,-97,-107,-87,-97
-58,-68,-9,63,-24,-39,19,-29,-97,-107,-87,-97
-58,-68,-9,63,-24,-39,19,-34,-97,-107,-87,-97
-58,-68,-9,63,-24,-39,19,-34,-97,-107,-87,-97
-58,-73,-14,65,-21,-43,19,-34,-97,-107,-92,-92
-63,-78,-14,70,-24,-46,19,-34,-97,-112,-97,-92
-63,-78,-14,70,-24,-46,19,-34,-102,-112,-97,-92
-58,-82,-24,70,-17,-53,19,-34,-102,-112,-102,-92
-58,-78,-19,68,-19,-48,19,-34,-102,-107,-97,-92
-58,-73,-14,65,-21,-43,19,-34,-102,-102,-92,-92
-58,-73,-14,65,-21,-43,19,-34,-102,-107,-92,-92
-58,-73,-14,65,-21,-43,19,-34,-102,-107,-92,-92
-63,-73,-9,68,-26,-41,19,-29,-102,-107,-92,-92
-68,-68,0,68,-34,-34,19,-29,-97,-102,-92,-92
-58,-53,4,56,-31,-24,19,-24,-87,-92,-87,-87
-53,-39,14,46,-34,-12,19,-24,-82,-87,-82,-82
-43,-9,34,26,-39,12,19,-24,-73,-78,-73,-78
-39,-9,29,24,-34,9,19,-24,-63,-73,-68,-73
-34,-14,19,24,-26,2,24,-19,-63,-68,-68,-68
-29,-14,14,21,-21,0,24,-14,-53,-68,-63,-68
-29,-14,14,21,-21,0,19,-14,-53,-63,-58,-63
-14,-14,0,14,-7,-7,9,-9,-48,-58,-53,-58
-4,-4,0,4,-2,-2,-9,-9,-43,-53,-43,-48
29,29,0,-29,14,14,-34,-19,-14,-19,-14,-19
48,48,0,-48,24,24,-68,-39,4,-9,-4,-9
53,48,-4,-51,29,21,-73,-43,-4,-9,-4,-9
53,43,-9,-48,31,17,-73,-48,-24,-24,-14,-9
48,24,-24,-36,36,0,-68,-48,-39,-43,-24,-24
48,4,-43,-26,46,-19,-48,-29,-53,-48,-24,-24
48,4,-43,-26,46,-19,-39,-29,-53,-48,-24,-19
43,4,-39,-24,41,-17,-39,-34,-58,-48,-29,-19
24,-14,-39,-4,31,-26,-29,-53,-73,-68,-43,-39
9,-43,-53,17,31,-48,-14,-43,-87,-82,-63,-58
-19,-48,-29,34,4,-39,-9,-43,-92,-87,-73,-68
-39,-58,-19,48,-9,-39,-4,-39,-87,-87,-78,-78
-58,-68,-9,63,-24,-39,9,-34,-92,-92,-87,-87
-63,-73,-9,68,-26,-41,14,-34,-92,-102,-92,-87
-68,-82,-14,75,-26,-48,19,-39,-102,-112,-102,-102
-68,-82,-14,75,-26,-48,19,-39,-112,-117,-107,-102
-68,-87,-19,78,-24,-53,19,-39,-112,-117,-107,-102
-68,-87,-19,78,-24,-53,24,-39,-112,-117,-107,-107
-78,-82,-4,80,-36,-43,24,-34,-107,-117,-107,-107
-92,-48,43,70,-68,-2,29,-34,-68,-82,-92,-107
-92,-4,87,48,-90,41,43,-4,9,-24,-53,-87
-78,34,112,21,-95,73,63,102,102,48,4,-53
9,68,58,-39,-24,63,87,297,209,161,112,43
175,146,-29,-161,102,58,34,361,317,302,263,195
370,302,-68,-336,219,117,-107,273,448,492,478,409
551,488,-63,-519,307,212,-287,126,507,668,712,663
639,673,34,-656,302,353,-527,-219,585,863,946,912
536,746,209,-641,163,478,-649,-624,658,985,1088,1044
307,488,180,-397,63,334,-522,-761,341,546,668,717
29,219,190,-124,-80,204,-326,-668,0,82,180,283
-209,156,366,26,-287,261,-287,-707,-200,-136,-68,4
-273,131,405,70,-339,268,-287,-741,-326,-263,-204,-131
-219,48,268,85,-244,158,-244,-590,-317,-278,-219,-156
-146,14,161,65,-153,87,-170,-375,-239,-209,-170,-112
-102,9,112,46,-107,61,-82,-190,-122,-112,-97,-78
-53,-34,19,43,-36,-7,-4,-53,-78,-82,-68,-58
-43,-43,0,43,-21,-21,14,-34,-78,-78,-63,-58
-43,-48,-4,46,-19,-26,14,-34,-68,-73,-68,-63
-53,-58,-4,56,-24,-31,14,-24,-68,-73,-78,-82
-58,-63,-4,61,-26,-34,29,-4,-82,-87,-87,-82
-63,-63,0,63,-31,-31,29,0,-82,-87,-87,-82
-58,-63,-4,61,-26,-34,29,0,-78,-87,-87,-78
-58,-63,-4,61,-26,-34,34,4,-78,-82,-87,-78
-53,-68,-14,61,-19,-41,34,14,-73,-82,-87,-78
-53,-68,-14,61,-19,-41,39,14,-73,-82,-87,-78
-53,-68,-14,61,-19,-41,39,19,-73,-82,-82,-73
-53,-68,-14,61,-19,-41,43,19,-68,-78,-82,-73
-48,-68,-19,58,-14,-43,43,24,-68,-78,-78,-73
-48,-63,-14,56,-17,-39,43,29,-68,-73,-78,-68
-48,-63,-14,56,-17,-39,43,29,-63,-68,-73,-68
-43,-58,-14,51,-14,-36,43,29,-58,-63,-73,-63
-43,-58,-14,51,-14,-36,43,34,-53,-58,-63,-58
-43,-53,-9,48,-17,-31,48,39,-53,-58,-58,-58
-39,-53,-14,46,-12,-34,48,43,-48,-53,-53,-58
-39,-53,-14,46,-12,-34,48,48,-39,-53,-48,-53
-34,-48,-14,41,-9,-31,43,48,-39,-48,-53,-58
-34,-48,-14,41,-9,-31,43,53,-29,-43,-48,-58
-29,-43,-14,36,-7,-29,43,58,-34,-39,-39,-48
-24,-39,-14,31,-4,-26,43,58,-29,-39,-34,-43
-24,-39,-14,31,-4,-26,43,63,-19,-34,-34,-39
-19,-34,-14,26,-2,-24,43,68,-9,-24,-24,-34
-9,-29,-19,19,4,-24,39,68,-4,-19,-14,-29
0,-29,-29,14,14,-29,39,73,0,-9,-14,-29
0,-19,-19,9,9,-19,39,78,9,-4,-4,-19
4,-9,-14,2,9,-12,34,82,19,4,4,-14
14,0,-14,-7,14,-7,34,87,24,14,9,-4
19,4,-14,-12,17,-4,34,92,34,19,19,4
24,0,-24,-12,24,-12,34,97,39,34,29,9
29,9,-19,-19,24,-4,29,102,53,48,34,19
29,4,-24,-17,26,-9,29,112,68,58,48,34
34,9,-24,-21,29,-7,24,122,82,73,58,48
39,19,-19,-29,29,0,24,122,97,78,68,53
48,19,-29,-34,39,-4,19,126,107,82,78,63
53,29,-24,-41,39,2,14,136,122,97,92,78
58,43,-14,-51,36,14,14,151,141,117,107,87
68,48,-19,-58,43,14,14,161,161,136,126,102
82,58,-24,-70,53,17,14,170,175,146,141,112
87,68,-19,-78,53,24,9,180,185,170,151,122
102,82,-19,-92,61,31,0,185,204,185,175,141
107,92,-14,-100,61,39,0,195,224,204,195,156
117,102,-14,-109,65,43,-9,195,244,224,209,170
126,112,-14,-119,70,48,-14,200,263,244,229,185
141,126,-14,-134,78,56,-19,200,283,263,248,204
151,136,-14,-143,82,61,-29,200,302,283,258,219
156,151,-4,-153,80,73,-39,200,317,302,273,239
165,161,-4,-163,85,78,-43,200,341,317,287,248
175,165,-9,-170,92,78,-53,195,346,326,297,258
180,175,-4,-178,92,85,-58,190,366,341,317,273
185,185,0,-185,92,92,-68,175,375,356,322,283
190,195,4,-192,92,100,-78,161,380,361,331,292
190,200,9,-195,90,104,-87,141,380,361,331,292
195,200,4,-197,95,102,-92,126,370,356,331,292
185,200,14,-192,85,107,-102,97,356,336,317,283
170,190,19,-180,75,104,-102,73,322,312,292,263
156,170,14,-163,70,92,-102,48,292,278,263,234
131,156,24,-143,53,90,-92,34,258,244,229,204
107,131,24,-119,41,78,-82,14,219,204,190,165
82,117,34,-100,24,75,-68,0,175,165,151,131
68,97,29,-82,19,63,-58,-4,136,126,117,92
43,73,29,-58,7,51,-43,-4,97,87,82,63
24,53,29,-39,-2,41,-34,-9,68,58,58,34
9,34,24,-21,-7,29,-19,-14,34,24,24,4
-9,14,24,-2,-17,19,-9,-14,4,-4,0,-19
-14,0,14,7,-14,7,0,-14,-9,-19,-19,-34
-24,-9,14,17,-19,2,0,-14,-24,-29,-34,-48
-39,-24,14,31,-26,-4,14,-19,-48,-48,-48,-48
-43,-39,4,41,-24,-17,19,-24,-58,-53,-58,-58
-43,-43,0,43,-21,-21,24,-24,-63,-68,-63,-63
-48,-53,-4,51,-21,-29,29,-24,-63,-78,-68,-73
-43,-53,-9,48,-17,-31,24,-19,-68,-82,-73,-78
-43,-53,-9,48,-17,-31,24,-14,-73,-82,-78,-82
-43,-53,-9,48,-17,-31,24,-14,-73,-82,-78,-82
-43,-53,-9,48,-17,-31,24,-14,-73,-82,-78,-82
-43,-53,-9,48,-17,-31,24,-14,-78,-82,-78,-82
-43,-58,-14,51,-14,-36,19,-14,-78,-82,-78,-82
-43,-58,-14,51,-14,-36,19,-14,-78,-82,-78,-82
-43,-58,-14,51,-14,-36,24,-14,-78,-82,-78,-82
-43,-58,-14,51,-14,-36,24,-14,-78,-82,-82,-82
-43,-58,-14,51,-14,-36,24,-14,-78,-82,-87,-82
-43,-58,-14,51,-14,-36,24,-9,-78,-82,-82,-82
-43,-58,-14,51,-14,-36,24,-9,-73,-82,-82,-82
-43,-53,-9,48,-17,-31,24,-9,-73,-82,-78,-82
-43,-53,-9,48,-17,-31,24,-9,-73,-82,-73,-82
-43,-58,-14,51,-14,-36,24,-9,-73,-78,-73,-78
-43,-58,-14,51,-14,-36,24,-9,-73,-78,-73,-73
-43,-53,-9,48,-17,-31,24,-9,-73,-78,-78,-73
-43,-53,-9,48,-17,-31,24,-9,-73,-78,-82,-73
-43,-53,-9,48,-17,-31,19,-9,-73,-78,-78,-68
-43,-53,-9,48,-17,-31,19,-9,-73,-78,-78,-68
-43,-53,-9,48,-17,-31,24,-9,-68,-78,-78,-68
-43,-53,-9,48,-17,-31,29,-9,-68,-73,-78,-68
-39,-53,-14,46,-12,-34,29,-9,-68,-73,-78,-73
-39,-53,-14,46,-12,-34,29,-9,-68,-73,-78,-78
-39,-53,-14,46,-12,-34,24,-9,-68,-78,-78,-78
-39,-48,-9,43,-14,-29,19,-9,-68,-82,-73,-73
-39,-48,-9,43,-14,-29,19,-9,-68,-82,-73,-73
-39,-48,-9,43,-14,-29,19,-14,-68,-82,-78,-73
-39,-53,-14,46,-12,-34,19,-14,-68,-82,-78,-73
-39,-53,-14,46,-12,-34,24,-14,-68,-82,-73,-73
-39,-53,-14,46,-12,-34,24,-14,-68,-82,-73,-73
-39,-48,-9,43,-14,-29,24,-14,-68,-82,-73,-78
-39,-43,-4,41,-17,-24,24,-14,-68,-82,-73,-78
-39,-43,-4,41,-17,-24,19,-14,-68,-82,-73,-73
-39,-43,-4,41,-17,-24,19,-14,-68,-82,-73,-73
-39,-48,-9,43,-14,-29,19,-14,-68,-82,-73,-78
-39,-48,-9,43,-14,-29,24,-14,-68,-82,-78,-78
-39,-48,-9,43,-14,-29,24,-14,-68,-82,-78,-78
-39,-48,-9,43,-14,-29,19,-19,-73,-87,-78,-78
-39,-48,-9,43,-14,-29,19,-24,-73,-87,-78,-78
-39,-53,-14,46,-12,-34,19,-29,-78,-92,-82,-78
-39,-53,-14,46,-12,-34,19,-29,-78,-97,-82,-78
-39,-53,-14,46,-12,-34,19,-29,-78,-97,-82,-82
-39,-53,-14,46,-12,-34,19,-29,-78,-92,-82,-82
-43,-53,-9,48,-17,-31,19,-34,-78,-92,-87,-82
-43,-53,-9,48,-17,-31,19,-34,-82,-92,-87,-87
-43,-58,-14,51,-14,-36,19,-29,-82,-97,-87,-87
-48,-58,-9,53,-19,-34,19,-24,-82,-97,-87,-87
-48,-58,-9,53,-19,-34,24,-24,-87,-97,-87,-87
-43,-58,-14,51,-14,-36,24,-24,-87,-102,-92,-87
-43,-58,-14,51,-14,-36,24,-24,-87,-102,-92,-87
-43,-58,-14,51,-14,-36,19,-24,-87,-102,-92,-92
-43,-63,-19,53,-12,-41,19,-24,-92,-107,-92,-92
-48,-63,-14,56,-17,-39,19,-24,-92,-107,-97,-92
-48,-63,-14,56,-17,-39,19,-24,-92,-107,-97,-92
-48,-63,-14,56,-17,-39,19,-24,-92,-107,-97,-87
-53,-63,-9,58,-21,-36,24,-24,-92,-107,-97,-82
-53,-63,-9,58,-21,-36,24,-29,-92,-107,-97,-82
-53,-63,-9,58,-21,-36,29,-34,-92,-102,-97,-92
-53,-68,-14,61,-19,-41,29,-39,-97,-102,-102,-97
-48,-63,-14,56,-17,-39,24,-34,-97,-107,-102,-97
-48,-63,-14,56,-17,-39,19,-34,-102,-112,-107,-97
-53,-63,-9,58,-21,-36,19,-34,-102,-107,-102,-97
-58,-68,-9,63,-24,-39,19,-39,-107,-107,-97,-97
-58,-68,-9,63,-24,-39,19,-39,-107,-107,-97,-97
-58,-68,-9,63,-24,-39,19,-39,-107,-107,-97,-97
-58,-68,-9,63,-24,-39,19,-39,-107,-107,-102,-97
-58,-68,-9,63,-24,-39,19,-39,-107,-107,-102,-97
-58,-68,-9,63,-24,-39,24,-39,-107,-107,-107,-97
-58,-68,-9,63,-24,-39,29,-34,-107,-107,-107,-97
-53,-68,-14,61,-19,-41,29,-34,-107,-107,-107,-97
-53,-68,-14,61,-19,-41,29,-34,-107,-112,-107,-102
-53,-68,-14,61,-19,-41,24,-34,-112,-112,-102,-102
-48,-73,-24,61,-12,-48,19,-34,-112,-112,-102,-102
-48,-73,-24,61,-12,-48,19,-34,-112,-112,-102,-102
-48,-73,-24,61,-12,-48,19,-34,-112,-112,-102,-102
-53,-73,-19,63,-17,-46,19,-34,-112,-117,-107,-102
-58,-73,-14,65,-21,-43,19,-34,-112,-117,-112,-102
-58,-73,-14,65,-21,-43,19,-29,-112,-117,-112,-102
-58,-68,-9,63,-24,-39,19,-29,-107,-112,-112,-102
-48,-53,-4,51,-21,-29,19,-24,-97,-102,-102,-92
-43,-39,4,41,-24,-17,19,-24,-92,-97,-92,-82
-34,-9,24,21,-29,7,19,-24,-82,-87,-82,-78
-29,-9,19,19,-24,4,19,-24,-73,-82,-78,-73
-24,-9,14,17,-19,2,29,-19,-73,-78,-78,-68
-19,-4,14,12,-17,4,34,-14,-63,-78,-73,-68
-19,-4,14,12,-17,4,34,-14,-63,-73,-68,-68
-4,-4,0,4,-2,-2,29,-9,-58,-68,-63,-68
-4,0,4,2,-4,2,9,-9,-53,-63,-53,-58
19,29,9,-24,4,19,-14,-19,-24,-29,-24,-29
39,48,9,-43,14,29,-53,-39,0,-14,-9,-14
43,48,4,-46,19,26,-63,-43,-4,-9,-4,-9
48,43,-4,-46,26,19,-63,-48,-19,-19,-14,-9
48,24,-24,-36,36,0,-58,-48,-29,-34,-24,-24
48,4,-43,-26,46,-19,-39,-29,-43,-39,-24,-24
48,4,-43,-26,46,-19,-29,-29,-43,-39,-24,-19
43,4,-39,-24,41,-17,-29,-29,-48,-39,-29,-19
24,-14,-39,-4,31,-26,-19,-43,-63,-58,-43,-39
9,-43,-53,17,31,-48,-4,-34,-78,-78,-63,-58
-19,-48,-29,34,4,-39,0,-34,-82,-87,-73,-68
-34,-58,-24,46,-4,-41,4,-34,-82,-92,-78,-78
-48,-68,-19,58,-14,-43,19,-34,-92,-102,-87,-87
-58,-73,-14,65,-21,-43,24,-34,-92,-112,-92,-87
-68,-82,-14,75,-26,-48,29,-39,-102,-122,-102,-102
-68,-87,-19,78,-24,-53,34,-39,-117,-126,-112,-102
-68,-97,-29,82,-19,-63,39,-39,-122,-126,-117,-102
-68,-102,-34,85,-17,-68,43,-43,-126,-131,-122,-112
-78,-102,-24,90,-26,-63,43,-43,-126,-136,-126,-117
-97,-68,29,82,-63,-19,43,-53,-97,-112,-117,-117
-102,-24,78,63,-90,26,53,-34,-29,-63,-82,-97
-112,9,122,51,-117,65,78,73,58,-4,-43,-92
-48,39,87,4,-68,63,107,268,161,92,43,-24
107,92,-14,-100,61,39,82,380,268,219,170,102
292,224,-68,-258,180,78,-29,341,400,395,361,292
527,424,-102,-475,314,161,-209,253,473,590,624,575
668,624,-43,-646,356,290,-448,-34,566,805,888,854
614,785,170,-700,222,478,-639,-536,732,1063,1161,1102
434,614,180,-524,126,397,-580,-771,507,761,873,893
117,302,185,-209,-34,244,-346,-668,117,219,317,414
-161,195,356,-17,-258,275,-268,-697,-131,-78,0,92
-263,170,434,46,-348,302,-287,-785,-307,-248,-175,-87
-248,87,336,80,-292,212,-263,-688,-346,-307,-229,-156
-175,43,219,65,-197,131,-195,-453,-268,-239,-180,-112
-131,29,161,51,-146,95,-112,-248,-151,-141,-107,-78
-73,-24,48,48,-61,12,-19,-87,-97,-102,-73,-58
-53,-43,9,48,-31,-17,14,-43,-87,-87,-63,-58
-53,-48,4,51,-29,-21,14,-43,-78,-82,-63,-58
-63,-58,4,61,-34,-26,14,-34,-78,-82,-68,-73
-63,-63,0,63,-31,-31,29,-14,-92,-97,-82,-73
-63,-63,0,63,-31,-31,29,-9,-92,-97,-87,-73
-58,-68,-9,63,-24,-39,29,-9,-87,-97,-87,-73
-58,-73,-14,65,-21,-43,34,-4,-87,-92,-87,-78
-53,-78,-24,65,-14,-51,39,9,-82,-92,-87,-78
-53,-78,-24,65,-14,-51,48,14,-82,-92,-87,-78
-53,-78,-24,65,-14,-51,48,19,-78,-92,-82,-73
-53,-78,-24,65,-14,-51,53,19,-68,-87,-82,-73
-48,-78,-29,63,-9,-53,53,24,-68,-87,-78,-73
-48,-73,-24,61,-12,-48,53,29,-68,-82,-78,-68
-48,-68,-19,58,-14,-43,53,39,-63,-78,-73,-68
-43,-58,-14,51,-14,-36,53,48,-58,-73,-73,-63
-43,-58,-14,51,-14,-36,53,43,-53,-68,-68,-58
-43,-53,-9,48,-17,-31,58,39,-53,-68,-68,-58
-39,-58,-19,48,-9,-39,63,43,-53,-63,-63,-58
-39,-63,-24,51,-7,-43,68,48,-48,-63,-58,-53
-29,-58,-29,43,0,-43,63,48,-48,-58,-58,-53
-24,-58,-34,41,4,-46,63,53,-39,-53,-48,-48
-19,-48,-29,34,4,-39,58,63,-39,-48,-39,-39
-14,-39,-24,26,4,-31,53,68,-29,-48,-34,-34
-14,-39,-24,26,4,-31,53,73,-19,-43,-39,-29
-9,-34,-24,21,7,-29,53,78,-9,-34,-34,-24
-4,-29,-24,17,9,-26,48,78,-4,-29,-24,-19
0,-29,-29,14,14,-29,48,82,0,-19,-24,-19
0,-24,-24,12,12,-24,48,82,9,-14,-14,-9
4,-19,-24,7,14,-21,43,82,19,-4,-4,-4
14,-9,-24,-2,19,-17,43,87,24,4,0,4
19,-4,-24,-7,21,-14,43,92,34,9,9,14
19,-4,-24,-7,21,-14,39,97,39,19,19,19
19,9,-9,-14,14,0,29,102,53,29,24,29
24,9,-14,-17,19,-2,29,112,63,39,39,39
34,19,-14,-26,24,2,24,122,73,53,48,48
39,29,-9,-34,24,9,29,122,87,63,58,53
48,29,-19,-39,34,4,29,126,97,73,68,63
48,29,-19,-39,34,4,24,136,107,82,82,73
48,34,-14,-41,31,9,24,151,122,97,97,78
58,39,-19,-48,39,9,19,156,141,117,117,92
73,48,-24,-61,48,12,14,161,156,126,131,102
82,63,-19,-73,51,21,9,170,165,151,136,117
102,82,-19,-92,61,31,0,175,185,165,156,141
107,92,-14,-100,61,39,0,185,204,185,175,151
117,102,-14,-109,65,43,-9,185,224,204,190,161
122,107,-14,-114,68,46,-14,195,244,219,209,175
131,117,-14,-124,73,51,-19,200,263,234,229,195
141,126,-14,-134,78,56,-29,200,283,253,244,214
146,141,-4,-143,75,68,-39,200,297,273,263,239
161,156,-4,-158,82,75,-43,200,322,292,278,248
175,165,-9,-170,92,78,-53,195,326,307,287,258
180,175,-4,-178,92,85,-53,195,346,322,312,273
185,185,0,-185,92,92,-58,185,356,336,322,283
195,195,0,-195,97,97,-68,170,366,346,331,292
200,200,0,-200,100,100,-78,151,370,351,331,292
204,200,-4,-202,104,97,-87,131,366,351,336,297
195,200,4,-197,95,102,-102,97,356,336,326,292
180,195,14,-187,82,104,-102,78,326,312,302,278
165,180,14,-173,75,97,-102,58,302,278,273,253
141,165,24,-153,58,95,-92,43,268,244,239,224
117,141,24,-129,46,82,-82,24,229,204,200,185
92,122,29,-107,31,75,-73,4,185,165,161,151
78,97,19,-87,29,58,-68,-4,146,126,126,112
53,73,19,-63,17,46,-53,-4,107,87,87,82
34,53,19,-43,7,36,-43,-9,78,58,58,53
19,34,14,-26,2,24,-29,-14,39,24,24,24
0,14,14,-7,-7,14,-19,-14,4,-4,0,0
-4,0,4,2,-4,2,-9,-14,-9,-24,-19,-14
-14,-9,4,12,-9,-2,-9,-14,-24,-39,-34,-29
-29,-19,9,24,-19,-4,4,-14,-48,-63,-48,-39
-34,-29,4,31,-19,-12,9,-14,-58,-73,-58,-58
-34,-39,-4,36,-14,-21,14,-14,-68,-82,-63,-63
-39,-53,-14,46,-12,-34,19,-14,-73,-87,-68,-73
-39,-58,-19,48,-9,-39,19,-14,-78,-92,-73,-73
-43,-63,-19,53,-12,-41,24,-14,-82,-92,-78,-73
-43,-63,-19,53,-12,-41,24,-14,-82,-92,-82,-73
-43,-63,-19,53,-12,-41,24,-14,-82,-92,-87,-73
-43,-63,-19,53,-12,-41,24,-14,-87,-92,-87,-73
-43,-68,-24,56,-9,-46,19,-14,-87,-92,-87,-73
-43,-63,-19,53,-12,-41,19,-14,-87,-92,-87,-73
-43,-58,-14,51,-14,-36,24,-14,-87,-92,-87,-73
-43,-58,-14,51,-14,-36,24,-14,-82,-92,-87,-73
-43,-58,-14,51,-14,-36,24,-14,-78,-92,-87,-73
-48,-63,-14,56,-17,-39,24,-9,-78,-92,-82,-73
-53,-68,-14,61,-19,-41,24,-9,-73,-92,-82,-73
-53,-63,-9,58,-21,-36,24,-9,-73,-92,-82,-73
-53,-63,-9,58,-21,-36,24,-9,-73,-92,-82,-73
-48,-68,-19,58,-14,-43,24,-9,-73,-87,-82,-73
-43,-68,-24,56,-9,-46,24,-9,-73,-87,-82,-73
-43,-63,-19,53,-12,-41,24,-9,-73,-87,-82,-73
-43,-63,-19,53,-12,-41,24,-9,-73,-87,-82,-73
-43,-63,-19,53,-12,-41,19,-9,-73,-87,-78,-68
-43,-63,-19,53,-12,-41,19,-9,-73,-87,-78,-68
-43,-63,-19,53,-12,-41,19,-9,-68,-87,-73,-68
-43,-63,-19,53,-12,-41,19,-9,-68,-82,-68,-68
-39,-63,-24,51,-7,-43,19,-9,-68,-82,-68,-68
-39,-63,-24,51,-7,-43,19,-9,-68,-82,-68,-68
-39,-63,-24,51,-7,-43,19,-9,-73,-87,-73,-73
-39,-58,-19,48,-9,-39,19,-9,-78,-92,-73,-73
-39,-53,-14,46,-12,-34,19,-9,-78,-92,-73,-73
-39,-48,-9,43,-14,-29,19,-14,-78,-92,-78,-73
-39,-53,-14,46,-12,-34,19,-14,-78,-92,-78,-73
-39,-53,-14,46,-12,-34,24,-14,-78,-92,-73,-73
-39,-58,-19,48,-9,-39,24,-14,-78,-92,-73,-73
-39,-58,-19,48,-9,-39,24,-14,-78,-92,-73,-78
-39,-53,-14,46,-12,-34,24,-14,-78,-92,-73,-78
-39,-53,-14,46,-12,-34,19,-14,-78,-92,-73,-73
-39,-53,-14,46,-12,-34,19,-14,-78,-92,-73,-73
-39,-58,-19,48,-9,-39,19,-14,-78,-92,-73,-78
-43,-58,-14,51,-14,-36,19,-14,-78,-92,-78,-73
-48,-58,-9,53,-19,-34,14,-14,-78,-92,-78,-68
-48,-58,-9,53,-19,-34,9,-14,-82,-92,-78,-68
-48,-58,-9,53,-19,-34,9,-14,-82,-87,-78,-68
-48,-63,-14,56,-17,-39,14,-19,-87,-92,-82,-68
-48,-63,-14,56,-17,-39,19,-19,-87,-97,-82,-68
-48,-63,-14,56,-17,-39,19,-19,-87,-102,-82,-73
-48,-63,-14,56,-17,-39,19,-19,-87,-102,-82,-73
-53,-63,-9,58,-21,-36,19,-24,-87,-102,-87,-73
-53,-63,-9,58,-21,-36,19,-24,-92,-102,-87,-78
-48,-68,-19,58,-14,-43,19,-24,-92,-107,-87,-78
-48,-68,-19,58,-14,-43,19,-24,-92,-107,-87,-78
-48,-68,-19,58,-14,-43,24,-24,-97,-107,-87,-78
-43,-68,-24,56,-9,-46,24,-24,-97,-112,-92,-78
-43,-68,-24,56,-9,-46,24,-24,-92,-112,-92,-78
-43,-68,-24,56,-9,-46,19,-24,-87,-112,-92,-82
-43,-73,-29,58,-7,-51,19,-24,-92,-117,-92,-82
-48,-73,-24,61,-12,-48,19,-24,-92,-117,-97,-82
-48,-73,-24,61,-12,-48,19,-24,-97,-117,-92,-87
-48,-73,-24,61,-12,-48,19,-24,-102,-117,-87,-87
-53,-73,-19,63,-17,-46,24,-24,-102,-117,-87,-82
-53,-73,-19,63,-17,-46,24,-29,-102,-117,-87,-82
-53,-73,-19,63,-17,-46,29,-29,-97,-112,-87,-87
-53,-73,-19,63,-17,-46,29,-29,-97,-112,-92,-87
-53,-78,-24,65,-14,-51,29,-29,-97,-112,-92,-87
-53,-78,-24,65,-14,-51,29,-29,-97,-112,-92,-87
-53,-78,-24,65,-14,-51,29,-29,-97,-112,-92,-87
-53,-78,-24,65,-14,-51,29,-29,-97,-112,-92,-87
-53,-78,-24,65,-14,-51,24,-29,-97,-112,-92,-92
-53,-78,-24,65,-14,-51,19,-29,-102,-112,-92,-97
-53,-78,-24,65,-14,-51,19,-29,-102,-112,-92,-97
-58,-78,-19,68,-19,-48,19,-29,-107,-117,-97,-97
-58,-78,-19,68,-19,-48,24,-29,-107,-117,-97,-97
-58,-78,-19,68,-19,-48,29,-29,-107,-117,-97,-97
-58,-78,-19,68,-19,-48,29,-29,-107,-117,-97,-97
-58,-78,-19,68,-19,-48,29,-29,-107,-117,-97,-97
-58,-78,-19,68,-19,-48,29,-29,-107,-117,-97,-97
-58,-78,-19,68,-19,-48,29,-34,-107,-117,-97,-97
-58,-78,-19,68,-19,-48,29,-34,-107,-117,-102,-97
-58,-78,-19,68,-19,-48,29,-34,-107,-117,-107,-97
-63,-78,-14,70,-24,-46,29,-34,-107,-122,-107,-97
-63,-78,-14,70,-24,-46,29,-34,-112,-122,-107,-92
-58,-82,-24,70,-17,-53,29,-34,-112,-122,-112,-92
-58,-82,-24,70,-17,-53,29,-34,-112,-122,-112,-92
-58,-82,-24,70,-17,-53,29,-34,-112,-122,-107,-97
-58,-82,-24,70,-17,-53,29,-34,-112,-126,-102,-102
-58,-82,-24,70,-17,-53,29,-34,-112,-126,-102,-102
-58,-82,-24,70,-17,-53,29,-29,-112,-126,-102,-102
-58,-78,-19,68,-19,-48,29,-29,-107,-122,-107,-102
-48,-63,-14,56,-17,-39,29,-24,-97,-112,-107,-97
-43,-48,-4,46,-19,-26,29,-24,-97,-107,-102,-92
-39,-19,19,29,-29,0,29,-24,-92,-97,-92,-87
-39,-19,19,29,-29,0,34,-24,-82,-92,-82,-78
-34,-19,14,26,-24,-2,43,-19,-82,-87,-78,-68
-29,-14,14,21,-21,0,43,-14,-73,-87,-73,-68
-29,-14,14,21,-21,0,43,-14,-73,-82,-68,-63
-9,-14,-4,12,-2,-9,39,-4,-68,-78,-73,-58
0,-9,-9,4,4,-9,19,0,-63,-73,-73,-48
29,24,-4,-26,17,9,-4,-9,-29,-34,-34,-19
48,48,0,-48,24,24,-39,-29,-4,-19,-14,-9
53,48,-4,-51,29,21,-53,-34,-14,-19,-14,-9
53,43,-9,-48,31,17,-63,-39,-29,-29,-24,-9
48,24,-24,-36,36,0,-58,-39,-39,-48,-34,-24
48,4,-43,-26,46,-19,-39,-19,-53,-58,-34,-24
48,4,-43,-26,46,-19,-29,-19,-53,-58,-34,-19
43,4,-39,-24,41,-17,-29,-19,-58,-58,-39,-19
24,-14,-39,-4,31,-26,-19,-39,-73,-78,-53,-39
9,-43,-53,17,31,-48,-4,-34,-87,-92,-73,-58
-19,-48,-29,34,4,-39,4,-34,-92,-97,-82,-68
-34,-58,-24,46,-4,-41,14,-34,-92,-102,-87,-78
-48,-68,-19,58,-14,-43,29,-34,-102,-112,-97,-87
-53,-73,-19,63,-17,-46,34,-34,-102,-122,-102,-87
-63,-82,-19,73,-21,-51,34,-39,-112,-131,-112,-102
-68,-82,-14,75,-26,-48,29,-39,-122,-136,-117,-102
-68,-92,-24,80,-21,-58,29,-39,-122,-136,-122,-102
-68,-97,-29,82,-19,-63,34,-39,-122,-136,-126,-107
-78,-97,-19,87,-29,-58,34,-39,-136,-146,-131,-112
-92,-68,24,80,-58,-21,34,-43,-117,-122,-122,-117
-112,-24,87,68,-100,31,43,-43,-43,-73,-92,-112
-117,14,131,51,-124,73,63,34,43,-9,-43,-92
-48,24,73,12,-61,48,112,273,146,78,34,-24
87,78,-9,-82,48,34,87,385,248,195,156,97
297,214,-82,-256,190,65,-24,356,380,385,356,302
502,385,-117,-444,309,134,-180,263,453,570,585,546
658,658,0,-658,329,329,-483,-102,605,873,946,902
629,814,185,-722,222,500,-668,-527,751,1107,1205,1141
405,556,151,-480,126,353,-541,-712,463,683,800,839
126,287,161,-207,-17,224,-346,-673,112,195,317,429
-170,209,380,-19,-275,295,-302,-741,-141,-87,4,92
-292,170,463,61,-378,317,-297,-800,-307,-258,-185,-102
-239,78,317,80,-278,197,-253,-668,-341,-307,-224,-151
-165,34,200,65,-183,117,-185,-473,-297,-268,-200,-131
-117,29,146,43,-131,87,-97,-248,-165,-156,-117,-87
-63,-19,43,41,-53,12,-14,-73,-102,-107,-78,-58
-53,-43,9,48,-31,-17,9,-48,-97,-97,-73,-58
-53,-58,-4,56,-24,-31,14,-43,-87,-92,-73,-58
-68,-68,0,68,-34,-34,14,-29,-82,-92,-78,-78
-73,-73,0,73,-36,-36,29,-4,-92,-107,-87,-82
-73,-73,0,73,-36,-36,29,0,-92,-107,-87,-82
-68,-73,-4,70,-31,-39,29,0,-87,-107,-87,-82
-63,-73,-9,68,-26,-41,34,4,-87,-102,-87,-82
-53,-78,-24,65,-14,-51,34,14,-82,-102,-87,-78
-53,-78,-24,65,-14,-51,39,14,-82,-102,-92,-78
-53,-78,-24,65,-14,-51,39,19,-82,-102,-92,-73
-53,-78,-24,65,-14,-51,48,19,-78,-97,-92,-73
-48,-78,-29,63,-9,-53,53,24,-78,-97,-87,-73
-48,-73,-24,61,-12,-48,53,29,-78,-92,-87,-68
-48,-73,-24,61,-12,-48,53,29,-73,-87,-82,-68
-43,-68,-24,56,-9,-46,53,29,-68,-82,-82,-63
-43,-68,-24,56,-9,-46,53,34,-63,-78,-78,-58
-43,-63,-19,53,-12,-41,58,39,-63,-78,-73,-58
-39,-63,-24,51,-7,-43,58,43,-58,-73,-63,-58
-39,-63,-24,51,-7,-43,53,48,-48,-73,-58,-53
-34,-58,-24,46,-4,-41,43,48,-48,-68,-58,-53
-34,-58,-24,46,-4,-41,43,53,-43,-63,-48,-48
-29,-53,-24,41,-2,-39,43,58,-48,-53,-39,-39
-24,-48,-24,36,0,-36,53,58,-39,-48,-34,-34
-24,-48,-24,36,0,-36,63,63,-29,-43,-34,-29
-19,-43,-24,31,2,-34,63,68,-19,-34,-24,-24
-14,-39,-24,26,4,-31,58,68,-14,-29,-14,-19
-9,-39,-29,24,9,-34,53,73,-9,-24,-19,-24
-9,-34,-24,21,7,-29,48,78,0,-24,-14,-19
-4,-29,-24,17,9,-26,43,82,9,-14,-4,-14
4,-19,-24,7,14,-21,43,87,14,-4,0,-4
9,-14,-24,2,17,-19,39,92,24,0,9,9
14,-14,-29,0,21,-21,34,97,29,9,19,19
19,0,-19,-9,19,-9,29,102,43,19,24,29
24,0,-24,-12,24,-12,29,112,53,29,39,39
34,9,-24,-21,29,-7,24,122,63,43,48,48
39,19,-19,-29,29,0,24,122,78,53,58,53
48,19,-29,-34,39,-4,19,126,82,63,68,58
53,24,-29,-39,41,-2,14,136,92,78,82,68
58,34,-24,-46,41,4,19,151,112,92,92,78
68,39,-29,-53,48,4,19,156,131,107,107,92
82,48,-34,-65,58,7,14,161,146,117,122,102
87,58,-29,-73,58,14,9,170,161,141,131,117
102,73,-29,-87,65,21,0,175,185,156,156,141
107,82,-24,-95,65,29,0,185,204,175,175,156
117,92,-24,-104,70,34,-9,190,224,195,190,170
126,102,-24,-114,75,39,-14,200,244,214,209,185
141,117,-24,-129,82,46,-19,200,263,234,229,204
151,126,-24,-139,87,51,-29,200,283,253,244,219
156,141,-14,-148,85,63,-39,200,297,273,263,239
165,151,-14,-158,90,68,-43,200,322,287,278,248
175,156,-19,-165,97,68,-53,195,326,297,287,258
180,165,-14,-173,97,75,-58,195,346,312,307,273
185,175,-9,-180,97,82,-68,190,356,331,312,287
190,185,-4,-187,97,90,-78,180,361,341,322,302
195,190,-4,-192,100,92,-87,161,366,341,326,302
200,190,-9,-195,104,90,-92,141,361,341,331,302
190,190,0,-190,95,95,-102,107,351,331,326,302
180,185,4,-183,87,95,-102,82,322,312,312,292
165,170,4,-168,80,87,-102,58,297,283,283,268
141,156,14,-148,63,85,-92,43,268,253,248,244
117,131,14,-124,51,73,-82,24,229,214,214,204
92,112,19,-102,36,65,-68,9,185,175,180,170
78,87,9,-82,34,48,-63,0,151,141,156,131
53,63,9,-58,21,36,-53,-4,117,107,126,102
34,43,9,-39,12,26,-43,-9,87,78,97,48
19,24,4,-21,7,14,-29,-14,53,43,63,-4
-4,4,9,0,-7,7,-19,-9,19,4,14,-19
-14,-9,4,12,-9,-2,-9,-4,0,-24,-29,-24
-24,-19,4,21,-14,-7,-9,-4,-19,-43,-43,-24
-34,-29,4,31,-19,-12,0,-4,-48,-68,-58,-14
-34,-43,-9,39,-12,-26,4,-9,-63,-73,-68,-29
-34,-53,-19,43,-7,-36,14,-14,-73,-82,-73,-34
-39,-63,-24,51,-7,-43,19,-14,-73,-92,-78,-48
-39,-63,-24,51,-7,-43,19,-14,-78,-102,-82,-53
-43,-63,-19,53,-12,-41,24,-14,-82,-102,-87,-58
-43,-63,-19,53,-12,-41,24,-14,-82,-102,-87,-63
-43,-63,-19,53,-12,-41,24,-14,-82,-102,-87,-63
-43,-63,-19,53,-12,-41,24,-14,-87,-102,-87,-63
-43,-68,-24,56,-9,-46,19,-14,-87,-102,-87,-63
-43,-68,-24,56,-9,-46,19,-14,-87,-102,-87,-63
-43,-68,-24,56,-9,-46,24,-14,-87,-97,-87,-63
-43,-68,-24,56,-9,-46,24,-14,-87,-92,-87,-63
-48,-68,-19,58,-14,-43,24,-14,-87,-92,-87,-68
-53,-68,-14,61,-19,-41,24,-9,-87,-92,-82,-73
-53,-68,-14,61,-19,-41,24,-9,-82,-92,-82,-73
-53,-63,-9,58,-21,-36,24,-9,-82,-92,-82,-73
-53,-63,-9,58,-21,-36,19,-9,-82,-92,-82,-73
-53,-68,-14,61,-19,-41,14,-9,-82,-87,-82,-73
-53,-68,-14,61,-19,-41,14,-9,-82,-87,-82,-73
-53,-63,-9,58,-21,-36,14,-9,-82,-87,-82,-73
-53,-63,-9,58,-21,-36,24,-9,-82,-87,-82,-73
-53,-63,-9,58,-21,-36,29,-9,-82,-87,-78,-68
-48,-63,-14,56,-17,-39,29,-9,-82,-87,-78,-63
-43,-63,-19,53,-12,-41,29,-9,-78,-87,-78,-58
-43,-58,-14,51,-14,-36,29,-9,-78,-82,-73,-58
-39,-53,-14,46,-12,-34,29,-9,-78,-82,-68,-58
-39,-53,-14,46,-12,-34,29,-9,-78,-82,-68,-58
-39,-53,-14,46,-12,-34,29,-9,-78,-82,-68,-58
-39,-48,-9,43,-14,-29,29,-9,-78,-78,-63,-53
-39,-48,-9,43,-14,-29,29,-9,-78,-73,-63,-53
-39,-48,-9,43,-14,-29,29,-9,-73,-73,-68,-53
-39,-53,-14,46,-12,-34,29,-4,-68,-73,-68,-53
-39,-53,-14,46,-12,-34,34,-4,-68,-73,-63,-53
-39,-53,-14,46,-12,-34,34,-4,-68,-73,-63,-53
-39,-48,-9,43,-14,-29,34,-4,-68,-73,-63,-58
-39,-43,-4,41,-17,-24,34,-4,-68,-73,-63,-58
-39,-43,-4,41,-17,-24,29,-4,-68,-73,-63,-53
-39,-43,-4,41,-17,-24,29,-4,-68,-73,-63,-53
-39,-53,-14,46,-12,-34,29,-4,-68,-73,-63,-58
-39,-58,-19,48,-9,-39,34,-4,-68,-73,-68,-58
-39,-58,-19,48,-9,-39,34,-4,-68,-73,-68,-58
-39,-58,-19,48,-9,-39,29,-4,-73,-78,-68,-58
-39,-53,-14,46,-12,-34,29,-4,-73,-78,-68,-58
-39,-53,-14,46,-12,-34,29,-9,-78,-82,-73,-58
-39,-53,-14,46,-12,-34,29,-9,-78,-82,-73,-63
-39,-53,-14,46,-12,-34,29,-9,-78,-78,-73,-73
-39,-53,-14,46,-12,-34,29,-9,-78,-73,-73,-73
-43,-53,-9,48,-17,-31,29,-14,-78,-73,-78,-73
-43,-53,-9,48,-17,-31,29,-14,-82,-73,-78,-73
-43,-58,-14,51,-14,-36,29,-14,-82,-78,-78,-68
-53,-58,-4,56,-24,-31,29,-14,-82,-78,-78,-68
-58,-58,0,58,-29,-29,34,-14,-87,-78,-78,-68
-53,-58,-4,56,-24,-31,34,-14,-87,-82,-82,-68
-53,-58,-4,56,-24,-31,34,-14,-87,-82,-82,-68
-48,-58,-9,53,-19,-34,29,-14,-87,-82,-82,-73
-43,-63,-19,53,-12,-41,29,-14,-92,-87,-82,-73
-48,-68,-19,58,-14,-43,24,-14,-92,-87,-87,-73
-48,-73,-24,61,-12,-48,19,-14,-92,-87,-87,-78
-53,-73,-19,63,-17,-46,19,-14,-92,-87,-87,-78
-63,-73,-9,68,-26,-41,24,-14,-92,-87,-87,-73
-58,-68,-9,63,-24,-39,34,-9,-87,-87,-92,-73
-58,-68,-9,63,-24,-39,48,-9,-87,-87,-97,-78
-53,-68,-14,61,-19,-41,48,-9,-87,-87,-97,-82
-48,-68,-19,58,-14,-43,48,-9,-87,-87,-97,-87
-48,-68,-19,58,-14,-43,43,-14,-92,-87,-97,-87
-48,-68,-19,58,-14,-43,39,-14,-92,-87,-97,-87
-53,-68,-14,61,-19,-41,39,-19,-97,-87,-97,-87
-58,-68,-9,63,-24,-39,39,-24,-97,-87,-97,-87
-58,-68,-9,63,-24,-39,34,-24,-97,-87,-97,-87
-58,-68,-9,63,-24,-39,29,-24,-97,-87,-97,-87
-63,-68,-4,65,-29,-36,29,-24,-97,-92,-97,-92
-63,-68,-4,65,-29,-36,29,-24,-102,-92,-97,-92
-63,-78,-14,70,-24,-46,29,-24,-97,-92,-102,-92
-68,-82,-14,75,-26,-48,29,-24,-92,-92,-102,-92
-68,-82,-14,75,-26,-48,34,-24,-92,-87,-102,-92
-68,-82,-14,75,-26,-48,39,-24,-92,-87,-102,-92
-68,-82,-14,75,-26,-48,39,-24,-92,-87,-102,-92
-68,-82,-14,75,-26,-48,39,-19,-92,-87,-102,-92
-68,-78,-9,73,-29,-43,34,-19,-92,-87,-102,-92
-58,-63,-4,61,-26,-34,29,-14,-87,-82,-97,-87
-53,-48,4,51,-29,-21,29,-14,-82,-78,-92,-82
-48,-19,29,34,-39,4,29,-14,-73,-68,-82,-78
-48,-19,29,34,-39,4,34,-14,-58,-63,-78,-73
-43,-19,24,31,-34,2,43,-9,-53,-58,-78,-68
-39,-14,24,26,-31,4,48,-4,-43,-58,-73,-68
-39,-14,24,26,-31,4,53,-4,-43,-53,-68,-63
-29,-19,9,24,-19,-4,48,4,-43,-48,-68,-58
-29,-19,9,24,-19,-4,29,9,-43,-43,-63,-48
0,9,9,-4,-4,9,4,0,-14,-4,-34,-19
19,29,9,-24,4,19,-29,-19,4,9,-24,-9
29,39,9,-34,9,24,-39,-29,4,9,-19,-9
34,43,9,-39,12,26,-43,-39,0,0,-24,-9
29,24,-4,-26,17,9,-39,-39,-9,-14,-34,-24
29,4,-24,-17,26,-9,-19,-19,-24,-19,-34,-24
39,4,-34,-21,36,-14,-14,-19,-24,-19,-29,-14
43,4,-39,-24,41,-17,-19,-19,-29,-19,-29,-9
24,-14,-39,-4,31,-26,-9,-34,-43,-39,-43,-29
9,-43,-53,17,31,-48,4,-24,-58,-53,-63,-48
-29,-48,-19,39,-4,-34,9,-24,-68,-58,-73,-58
-53,-58,-4,56,-24,-31,14,-24,-73,-63,-78,-68
-68,-68,0,68,-34,-34,29,-24,-82,-73,-87,-78
-73,-73,0,73,-36,-36,34,-24,-82,-82,-92,-78
-73,-82,-9,78,-31,-46,39,-29,-92,-92,-107,-97
-68,-82,-14,75,-26,-48,39,-29,-102,-97,-117,-102
-68,-92,-24,80,-21,-58,39,-29,-107,-102,-117,-107
-68,-97,-29,82,-19,-63,43,-29,-112,-107,-117,-117
-78,-107,-29,92,-24,-68,43,-34,-126,-122,-126,-117
-92,-87,4,90,-48,-41,43,-43,-107,-102,-122,-117
-117,-43,73,80,-95,14,53,-53,-39,-58,-97,-112
-126,-4,122,65,-124,58,73,14,43,0,-53,-92
-63,0,63,31,-63,31,141,283,151,92,19,-34
68,48,-19,-58,43,14,136,424,258,214,136,78
273,175,-97,-224,185,39,39,439,405,405,341,278
473,336,-136,-405,305,100,-102,390,492,590,575,517
644,649,4,-646,319,326,-434,-9,658,922,966,902
629,844,214,-736,207,529,-649,-468,819,1185,1254,1171
419,585,165,-502,126,375,-531,-653,566,805,873,888
156,317,161,-236,-2,239,-346,-614,248,361,414,497
-170,224,395,-26,-283,309,-278,-683,-34,34,58,126
-322,170,492,75,-407,331,-248,-741,-229,-180,-175,-102
-278,82,361,97,-319,222,-239,-663,-307,-263,-234,-165
-214,43,258,85,-236,151,-204,-522,-307,-258,-229,-161
-151,39,190,56,-170,114,-107,-283,-161,-136,-136,-107
-82,-9,73,46,-78,31,-14,-92,-82,-78,-87,-68
-68,-34,34,51,-51,0,14,-53,-73,-63,-78,-63
-63,-48,14,56,-39,-17,24,-34,-58,-53,-73,-58
-73,-63,9,68,-41,-26,24,-24,-58,-53,-78,-73
-73,-73,0,73,-36,-36,39,-4,-73,-68,-87,-73
-68,-73,-4,70,-31,-39,39,4,-73,-68,-87,-73
-58,-73,-14,65,-21,-43,39,9,-68,-68,-87,-73
-58,-73,-14,65,-21,-43,43,14,-68,-63,-87,-78
-53,-78,-24,65,-14,-51,43,24,-63,-63,-87,-78
-53,-78,-24,65,-14,-51,48,19,-68,-63,-87,-78
-53,-78,-24,65,-14,-51,48,19,-73,-63,-82,-73
-58,-78,-19,68,-19,-48,53,19,-68,-58,-82,-73
-58,-78,-19,68,-19,-48,53,24,-68,-58,-78,-73
-58,-73,-14,65,-21,-43,53,34,-63,-53,-78,-68
-58,-73,-14,65,-21,-43,53,39,-53,-48,-73,-68
-53,-68,-14,61,-19,-41,53,39,-48,-43,-73,-63
-53,-68,-14,61,-19,-41,53,43,-43,-39,-68,-58
-53,-63,-9,58,-21,-36,58,43,-43,-39,-68,-58
-48,-63,-14,56,-17,-39,58,43,-39,-34,-63,-58
-43,-63,-19,53,-12,-41,58,48,-29,-34,-58,-53
-34,-58,-24,46,-4,-41,53,48,-29,-29,-58,-53
-34,-58,-24,46,-4,-41,53,53,-19,-24,-48,-48
-29,-53,-24,41,-2,-39,53,58,-19,-14,-39,-39
-24,-48,-24,36,0,-36,53,58,-19,-14,-34,-34
-24,-48,-24,36,0,-36,53,63,-19,-14,-34,-29
-19,-43,-24,31,2,-34,53,68,-9,-4,-24,-24
-14,-39,-24,26,4,-31,48,68,-4,0,-14,-19
-9,-39,-29,24,9,-34,43,73,0,9,-14,-19
-9,-34,-24,21,7,-29,39,78,9,14,-4,-9
-4,-34,-29,19,12,-31,34,82,19,24,0,-4
4,-29,-34,12,19,-31,34,87,24,34,0,4
9,-24,-34,7,21,-29,39,92,34,34,9,9
14,-24,-39,4,26,-31,43,97,39,39,19,9
19,-14,-34,-2,26,-24,39,102,53,48,24,19
24,-19,-43,-2,34,-31,39,112,63,58,39,29
34,-9,-43,-12,39,-26,34,122,73,73,48,39
39,0,-39,-19,39,-19,34,122,87,82,58,43
48,0,-48,-24,48,-24,24,122,97,87,68,53
53,4,-48,-29,51,-21,14,126,112,97,82,68
58,24,-34,-41,46,-4,14,141,126,117,92,78
68,39,-29,-53,48,4,9,146,141,136,107,92
82,48,-34,-65,58,7,4,151,156,146,122,102
87,58,-29,-73,58,14,0,161,170,170,131,117
102,68,-34,-85,68,17,-9,165,190,180,156,141
107,73,-34,-90,70,19,-9,175,204,195,175,156
112,82,-29,-97,70,26,-19,175,224,214,190,170
117,92,-24,-104,70,34,-24,180,244,234,209,185
131,107,-24,-119,78,41,-29,180,263,253,229,204
141,117,-24,-129,82,46,-39,180,283,273,244,219
151,131,-19,-141,85,56,-48,180,297,297,263,244
165,141,-24,-153,95,58,-53,180,322,317,278,258
175,146,-29,-161,102,58,-63,175,326,326,287,268
180,156,-24,-168,102,65,-68,175,346,341,307,283
185,165,-19,-175,102,73,-78,170,361,361,317,292
190,175,-14,-183,102,80,-87,161,370,370,331,302
190,180,-9,-185,100,85,-97,146,380,375,336,307
190,180,-9,-185,100,85,-102,131,380,380,341,312
185,185,0,-185,92,92,-112,97,370,370,336,307
180,185,4,-183,87,95,-112,73,341,351,322,292
165,170,4,-168,80,87,-117,48,312,317,292,263
141,156,14,-148,63,85,-112,34,278,283,258,234
117,131,14,-124,51,73,-102,14,244,244,219,195
92,112,19,-102,36,65,-87,0,204,204,180,161
73,87,14,-80,29,51,-73,-9,165,161,141,122
43,63,19,-53,12,41,-53,-14,126,117,97,92
24,43,19,-34,2,31,-43,-19,97,87,68,63
9,24,14,-17,-2,19,-29,-24,63,53,34,34
-9,4,14,2,-12,9,-24,-24,29,24,4,4
-14,-9,4,12,-9,-2,-19,-24,9,4,-19,-14
-24,-19,4,21,-14,-7,-19,-19,-4,-9,-34,-34
-34,-29,4,31,-19,-12,-9,-14,-29,-29,-48,-43
-39,-39,0,39,-19,-19,0,-14,-43,-43,-58,-58
-43,-43,0,43,-21,-21,14,-14,-53,-63,-63,-63
-48,-53,-4,51,-21,-29,19,-19,-53,-68,-68,-73
-48,-53,-4,51,-21,-29,19,-24,-58,-73,-73,-73
-53,-53,0,53,-26,-26,24,-24,-68,-78,-82,-78
-53,-53,0,53,-26,-26,24,-24,-73,-82,-87,-82
-53,-53,0,53,-26,-26,24,-24,-73,-82,-87,-82
-53,-53,0,53,-26,-26,24,-24,-78,-82,-87,-82
-53,-58,-4,56,-24,-31,19,-19,-78,-82,-87,-82
-53,-58,-4,56,-24,-31,19,-14,-78,-82,-87,-82
-53,-58,-4,56,-24,-31,19,-14,-78,-82,-87,-82
-53,-58,-4,56,-24,-31,14,-14,-78,-82,-87,-82
-53,-58,-4,56,-24,-31,14,-19,-78,-82,-92,-82
-53,-58,-4,56,-24,-31,14,-19,-78,-82,-92,-82
-53,-63,-9,58,-21,-36,14,-19,-73,-82,-92,-82
-53,-63,-9,58,-21,-36,14,-19,-73,-82,-92,-82
-53,-63,-9,58,-21,-36,14,-19,-73,-82,-92,-78
-53,-68,-14,61,-19,-41,14,-19,-73,-78,-92,-73
-53,-63,-9,58,-21,-36,14,-19,-73,-78,-87,-73
-53,-53,0,53,-26,-26,14,-19,-73,-78,-82,-73
-53,-53,0,53,-26,-26,19,-19,-73,-78,-82,-78
-53,-53,0,53,-26,-26,19,-19,-73,-78,-78,-78
-53,-53,0,53,-26,-26,19,-19,-73,-78,-78,-78
-53,-53,0,53,-26,-26,19,-19,-68,-78,-78,-78
-53,-53,0,53,-26,-26,14,-14,-63,-73,-78,-73
-48,-53,-4,51,-21,-29,9,-9,-58,-73,-78,-68
-48,-53,-4,51,-21,-29,9,-9,-58,-73,-78,-68
-48,-53,-4,51,-21,-29,9,-9,-58,-73,-78,-68
-48,-53,-4,51,-21,-29,9,-9,-58,-73,-73,-68
-48,-58,-9,53,-19,-34,9,-9,-58,-73,-73,-73
-48,-58,-9,53,-19,-34,9,-14,-58,-73,-78,-73
-48,-63,-14,56,-17,-39,9,-14,-58,-73,-78,-73
-48,-63,-14,56,-17,-39,14,-14,-63,-73,-73,-73
-48,-63,-14,56,-17,-39,14,-14,-68,-73,-73,-73
-48,-58,-9,53,-19,-34,14,-14,-68,-73,-73,-78
-48,-53,-4,51,-21,-29,14,-14,-68,-73,-73,-78
-48,-53,-4,51,-21,-29,9,-14,-68,-73,-78,-73
-48,-53,-4,51,-21,-29,9,-14,-68,-73,-82,-73
-43,-58,-14,51,-14,-36,9,-19,-73,-78,-82,-78
-39,-58,-19,48,-9,-39,14,-24,-78,-82,-87,-78
-39,-58,-19,48,-9,-39,14,-24,-78,-82,-87,-78
-39,-58,-19,48,-9,-39,9,-24,-82,-87,-87,-78
-43,-58,-14,51,-14,-36,9,-24,-78,-87,-87,-78
-48,-63,-14,56,-17,-39,9,-29,-78,-92,-92,-78
-48,-63,-14,56,-17,-39,9,-29,-78,-97,-92,-78
-48,-63,-14,56,-17,-39,9,-29,-78,-97,-92,-82
-48,-63,-14,56,-17,-39,9,-29,-82,-92,-92,-82
-53,-63,-9,58,-21,-36,9,-34,-87,-92,-97,-82
-53,-58,-4,56,-24,-31,9,-34,-92,-92,-92,-87
-53,-58,-4,56,-24,-31,9,-34,-92,-97,-87,-87
-58,-58,0,58,-29,-29,9,-34,-92,-97,-87,-87
-58,-58,0,58,-29,-29,14,-34,-97,-97,-87,-87
-53,-58,-4,56,-24,-31,19,-34,-97,-102,-92,-87
-53,-58,-4,56,-24,-31,24,-34,-97,-102,-92,-87
-53,-58,-4,56,-24,-31,19,-34,-97,-97,-92,-92
-53,-63,-9,58,-21,-36,19,-34,-102,-97,-92,-92
-58,-63,-4,61,-26,-34,19,-34,-102,-97,-97,-87
-58,-63,-4,61,-26,-34,19,-34,-102,-97,-97,-87
-58,-63,-4,61,-26,-34,19,-29,-102,-102,-97,-87
-58,-68,-9,63,-24,-39,19,-29,-107,-107,-97,-87
-58,-68,-9,63,-24,-39,19,-29,-107,-107,-97,-92
-58,-68,-9,63,-24,-39,19,-29,-107,-107,-97,-97
-58,-68,-9,63,-24,-39,19,-29,-107,-107,-102,-97
-58,-68,-9,63,-24,-39,19,-29,-107,-107,-102,-97
-58,-68,-9,63,-24,-39,19,-29,-107,-107,-107,-97
-58,-68,-9,63,-24,-39,19,-34,-107,-107,-107,-97
-58,-68,-9,63,-24,-39,19,-34,-107,-107,-107,-97
-58,-68,-9,63,-24,-39,19,-34,-107,-107,-107,-97
-63,-68,-4,65,-29,-36,19,-34,-112,-112,-107,-102
-63,-68,-4,65,-29,-36,19,-34,-122,-112,-107,-102
-58,-73,-14,65,-21,-43,19,-39,-122,-112,-112,-102
-58,-73,-14,65,-21,-43,19,-43,-122,-112,-112,-102
-58,-73,-14,65,-21,-43,19,-43,-117,-112,-112,-102
-58,-73,-14,65,-21,-43,19,-43,-112,-117,-112,-102
-58,-73,-14,65,-21,-43,19,-43,-112,-117,-112,-102
-58,-73,-14,65,-21,-43,19,-39,-112,-117,-112,-102
-58,-68,-9,63,-24,-39,19,-34,-107,-112,-112,-97
-48,-53,-4,51,-21,-29,19,-24,-97,-102,-107,-87
-43,-39,4,41,-24,-17,19,-24,-92,-97,-97,-82
-39,-9,29,24,-34,9,19,-24,-82,-87,-82,-78
-39,-9,29,24,-34,9,19,-24,-73,-82,-78,-73
-34,-9,24,21,-29,7,24,-19,-73,-78,-78,-68
-29,-4,24,17,-26,9,24,-19,-63,-78,-73,-68
-29,-4,24,17,-26,9,24,-24,-63,-73,-68,-63
-9,-4,4,7,-7,0,19,-19,-58,-68,-68,-58
0,0,0,0,0,0,0,-19,-53,-63,-63,-48
29,29,0,-29,14,14,-24,-29,-29,-34,-34,-19
48,48,0,-48,24,24,-58,-48,-14,-29,-24,-9
48,48,0,-48,24,24,-63,-53,-24,-29,-24,-14
43,43,0,-43,21,21,-63,-58,-39,-39,-34,-19
39,24,-14,-31,26,4,-58,-58,-48,-53,-43,-34
39,4,-34,-21,36,-14,-39,-39,-63,-58,-43,-34
39,9,-29,-24,34,-9,-29,-39,-63,-58,-43,-29
34,14,-19,-24,26,-2,-29,-39,-68,-58,-48,-29
14,-4,-19,-4,17,-12,-19,-53,-82,-78,-63,-48
0,-34,-34,17,17,-34,-4,-43,-97,-92,-82,-68
-29,-39,-9,34,-9,-24,0,-43,-102,-97,-92,-78
-43,-48,-4,46,-19,-26,4,-43,-102,-102,-97,-87
-58,-58,0,58,-29,-29,19,-43,-117,-112,-107,-97
-63,-63,0,63,-31,-31,24,-43,-122,-122,-112,-97
-68,-78,-9,73,-29,-43,29,-48,-131,-131,-122,-112
-68,-82,-14,75,-26,-48,29,-48,-141,-136,-126,-112
-73,-87,-14,80,-29,-51,24,-48,-141,-136,-126,-112
-78,-87,-9,82,-34,-48,24,-48,-141,-136,-126,-117
-87,-82,4,85,-46,-39,24,-43,-136,-141,-131,-117
-102,-48,53,75,-78,2,24,-43,-97,-112,-122,-117
-102,-4,97,53,-100,46,39,-14,-24,-53,-82,-97
-87,34,122,26,-104,78,63,92,63,19,-24,-63
0,68,68,-34,-34,68,87,287,170,126,78,24
156,146,-9,-151,82,68,39,356,278,263,224,165
346,307,-39,-326,192,134,-97,273,414,453,439,380
531,502,-29,-517,280,236,-278,126,492,639,683,634
629,697,68,-663,280,383,-522,-219,595,854,946,907
541,775,234,-658,153,505,-649,-624,692,1000,1107,1063
317,517,200,-417,58,358,-531,-761,380,575,688,736
39,248,209,-143,-85,229,-346,-673,4,87,190,302
-204,180,385,12,-295,283,-297,-717,-219,-156,-73,14
-273,151,424,61,-348,287,-287,-751,-356,-287,-214,-131
-219,68,287,75,-253,178,-239,-600,-356,-307,-229,-156
-146,34,180,56,-163,107,-165,-385,-278,-239,-180,-112
-112,29,141,41,-126,85,-82,-200,-161,-146,-112,-78
-73,-19,53,46,-63,17,-4,-63,-112,-117,-87,-58
-63,-34,29,48,-46,-2,14,-43,-107,-107,-82,-58
-63,-39,24,51,-43,-7,14,-43,-97,-102,-82,-58
-73,-48,24,61,-48,-12,14,-29,-97,-102,-87,-78
-73,-53,19,63,-46,-17,29,-4,-112,-117,-97,-82
-68,-53,14,61,-41,-19,29,0,-112,-117,-97,-82
-58,-53,4,56,-31,-24,29,0,-107,-117,-97,-82
-58,-53,4,56,-31,-24,34,0,-107,-112,-97,-87
-53,-58,-4,56,-24,-31,34,4,-102,-112,-97,-87
-53,-58,-4,56,-24,-31,39,4,-102,-112,-97,-87
-53,-58,-4,56,-24,-31,39,9,-102,-112,-92,-82
-58,-58,0,58,-29,-29,43,9,-97,-107,-92,-82
-58,-58,0,58,-29,-29,43,14,-97,-107,-87,-82
-58,-53,4,56,-31,-24,43,24,-97,-102,-87,-78
-58,-53,4,56,-31,-24,43,29,-92,-97,-82,-78
-53,-48,4,51,-29,-21,43,29,-87,-92,-82,-73
-53,-48,4,51,-29,-21,43,34,-82,-87,-78,-68
-53,-43,9,48,-31,-17,48,39,-82,-87,-78,-68
-48,-43,4,46,-26,-19,48,43,-78,-82,-73,-68
-48,-43,4,46,-26,-19,48,48,-68,-82,-68,-63
-43,-39,4,41,-24,-17,43,48,-68,-78,-68,-63
-39,-39,0,39,-19,-19,43,53,-58,-73,-58,-58
-29,-34,-4,31,-12,-19,43,58,-58,-63,-48,-48
-24,-29,-4,26,-9,-17,43,58,-48,-58,-43,-43
-24,-29,-4,26,-9,-17,43,63,-39,-53,-43,-39
-19,-24,-4,21,-7,-14,43,68,-29,-43,-39,-34
-14,-19,-4,17,-4,-12,39,68,-24,-39,-34,-29
-9,-24,-14,17,2,-19,39,73,-19,-29,-34,-34
-9,-24,-14,17,2,-19,39,78,-9,-24,-24,-29
-4,-19,-14,12,4,-17,34,82,0,-14,-14,-24
4,-9,-14,2,9,-12,34,87,4,-4,-9,-14
9,0,-9,-4,9,-4,34,92,14,0,0,-4
14,4,-9,-9,12,-2,34,97,19,9,9,0
19,19,0,-19,9,9,29,102,34,19,14,9
24,19,-4,-21,14,7,29,112,43,29,29,19
34,29,-4,-31,19,12,24,122,53,43,43,34
39,39,0,-39,19,19,24,122,68,53,58,43
48,39,-9,-43,29,14,19,126,78,63,68,53
53,43,-9,-48,31,17,14,136,92,78,82,68
58,53,-4,-56,31,24,14,151,112,97,92,78
68,58,-9,-63,39,24,9,156,131,117,107,92
82,68,-14,-75,48,26,4,161,146,126,122,102
87,78,-9,-82,48,34,0,170,161,151,131,117
102,92,-9,-97,56,41,-9,175,185,165,156,136
107,102,-4,-104,56,48,-9,185,204,185,175,146
117,112,-4,-114,61,53,-19,185,224,204,190,161
126,122,-4,-124,65,58,-24,190,244,224,209,175
141,136,-4,-139,73,65,-29,190,263,244,229,195
151,146,-4,-148,78,70,-39,190,283,263,244,209
156,161,4,-158,75,82,-48,190,297,283,263,229
165,170,4,-168,80,87,-53,190,322,297,278,239
170,175,4,-173,82,90,-63,185,326,307,287,248
170,185,14,-178,78,100,-68,185,346,322,307,263
175,195,19,-185,78,107,-73,175,356,336,312,273
180,204,24,-192,78,114,-78,161,361,341,322,283
185,209,24,-197,80,117,-87,141,361,336,322,283
190,209,19,-200,85,114,-92,122,351,331,322,283
175,204,29,-190,73,117,-102,87,331,317,307,273
161,195,34,-178,63,114,-102,63,292,292,283,253
146,180,34,-163,56,107,-102,39,263,258,253,224
122,165,43,-143,39,104,-92,24,229,224,219,195
97,141,43,-119,26,92,-82,4,190,180,180,156
73,122,48,-97,12,85,-68,-9,146,136,141,122
58,97,39,-78,9,68,-58,-14,107,97,107,82
34,73,39,-53,-2,56,-43,-14,68,58,68,53
14,53,39,-34,-12,46,-34,-19,39,29,39,24
0,34,34,-17,-17,34,-19,-24,4,-4,4,-4
-14,14,29,0,-21,21,-9,-24,-24,-29,-19,-29
-14,0,14,7,-14,7,0,-24,-39,-43,-39,-43
-24,-9,14,17,-19,2,0,-24,-48,-58,-53,-58
-34,-19,14,26,-24,-2,9,-24,-68,-78,-68,-63
-39,-29,9,34,-24,-9,9,-24,-78,-87,-78,-73
-43,-34,9,39,-26,-12,14,-24,-82,-102,-82,-73
-48,-43,4,46,-26,-19,14,-24,-82,-107,-87,-82
-48,-43,4,46,-26,-19,9,-24,-87,-112,-92,-82
-53,-43,9,48,-31,-17,14,-24,-92,-112,-97,-87
-53,-43,9,48,-31,-17,14,-24,-92,-112,-97,-92
-53,-43,9,48,-31,-17,14,-24,-92,-112,-97,-92
-53,-43,9,48,-31,-17,14,-24,-97,-112,-97,-92
-53,-48,4,51,-29,-21,14,-24,-102,-112,-97,-92
-53,-48,4,51,-29,-21,19,-24,-107,-112,-97,-92
-53,-48,4,51,-29,-21,24,-24,-107,-112,-97,-92
-53,-48,4,51,-29,-21,24,-24,-107,-112,-97,-92
-53,-48,4,51,-29,-21,19,-24,-107,-112,-97,-92
-53,-48,4,51,-29,-21,14,-19,-107,-112,-92,-92
-53,-48,4,51,-29,-21,14,-19,-102,-112,-92,-92
-53,-43,9,48,-31,-17,14,-19,-102,-112,-92,-92
-53,-43,9,48,-31,-17,14,-19,-102,-112,-92,-92
-53,-48,4,51,-29,-21,14,-19,-102,-107,-92,-92
-53,-53,0,53,-26,-26,14,-19,-102,-112,-92,-92
-53,-53,0,53,-26,-26,14,-19,-102,-117,-92,-92
-53,-53,0,53,-26,-26,14,-19,-102,-117,-92,-92
-53,-53,0,53,-26,-26,9,-19,-102,-117,-87,-87
-53,-48,4,51,-29,-21,9,-19,-102,-117,-87,-87
-53,-43,9,48,-31,-17,9,-19,-97,-117,-87,-87
-53,-43,9,48,-31,-17,9,-19,-97,-112,-87,-87
-48,-43,4,46,-26,-19,9,-19,-97,-112,-87,-87
-48,-43,4,46,-26,-19,9,-19,-97,-112,-87,-82
-48,-43,4,46,-26,-19,9,-19,-97,-112,-87,-78
-48,-39,9,43,-29,-14,9,-19,-97,-112,-82,-73
-48,-39,9,43,-29,-14,9,-19,-97,-112,-82,-73
-48,-39,9,43,-29,-14,9,-24,-97,-112,-82,-73
-48,-43,4,46,-26,-19,9,-24,-97,-112,-78,-73
-48,-43,4,46,-26,-19,14,-24,-97,-112,-73,-73
-48,-43,4,46,-26,-19,14,-24,-97,-112,-73,-73
-48,-43,4,46,-26,-19,14,-19,-97,-112,-73,-78
-48,-43,4,46,-26,-19,14,-14,-97,-112,-73,-78
-48,-43,4,46,-26,-19,9,-14,-97,-112,-73,-73
-48,-43,4,46,-26,-19,9,-14,-97,-112,-73,-73
-48,-48,0,48,-24,-24,9,-19,-97,-112,-78,-78
-48,-48,0,48,-24,-24,14,-24,-97,-112,-87,-78
-48,-48,0,48,-24,-24,19,-24,-97,-112,-87,-78
-48,-48,0,48,-24,-24,19,-24,-102,-117,-87,-78
-48,-48,0,48,-24,-24,19,-24,-102,-117,-87,-78
-48,-53,-4,51,-21,-29,19,-29,-107,-122,-92,-78
-48,-53,-4,51,-21,-29,14,-29,-107,-126,-92,-78
-48,-53,-4,51,-21,-29,9,-29,-107,-126,-92,-82
-48,-53,-4,51,-21,-29,9,-29,-107,-122,-92,-82
-53,-53,0,53,-26,-26,9,-34,-107,-122,-97,-82
-48,-53,-4,51,-21,-29,14,-34,-112,-122,-97,-87
-43,-58,-14,51,-14,-36,19,-34,-112,-126,-97,-87
-48,-58,-9,53,-19,-34,19,-34,-112,-126,-97,-92
-48,-58,-9,53,-19,-34,24,-34,-117,-126,-97,-97
-43,-58,-14,51,-14,-36,24,-34,-117,-131,-102,-97
-43,-58,-14,51,-14,-36,24,-34,-117,-131,-102,-97
-48,-58,-9,53,-19,-34,19,-34,-117,-131,-102,-102
-53,-63,-9,58,-21,-36,19,-34,-122,-136,-102,-102
-58,-63,-4,61,-26,-34,19,-34,-122,-136,-107,-102
-58,-63,-4,61,-26,-34,19,-34,-122,-136,-107,-107
-58,-58,0,58,-29,-29,19,-34,-122,-136,-107,-107
-63,-53,9,58,-36,-21,24,-34,-122,-136,-107,-102
-58,-58,0,58,-29,-29,19,-34,-122,-141,-107,-97
-58,-68,-9,63,-24,-39,19,-39,-126,-146,-107,-97
-58,-68,-9,63,-24,-39,19,-39,-126,-146,-107,-97
-58,-68,-9,63,-24,-39,19,-39,-126,-146,-107,-97
-58,-68,-9,63,-24,-39,24,-39,-126,-146,-107,-97
-58,-68,-9,63,-24,-39,24,-34,-126,-146,-107,-97
-63,-68,-4,65,-29,-36,29,-34,-126,-146,-107,-97
-68,-68,0,68,-34,-34,29,-34,-126,-146,-107,-97
-68,-68,0,68,-34,-34,29,-34,-126,-146,-107,-97
-68,-68,0,68,-34,-34,29,-34,-126,-146,-107,-97
-68,-68,0,68,-34,-34,19,-39,-131,-151,-107,-102
-63,-68,-4,65,-29,-36,9,-43,-141,-151,-107,-102
-58,-68,-9,63,-24,-39,9,-43,-141,-151,-112,-102
-58,-63,-4,61,-26,-34,9,-43,-141,-151,-112,-102
-58,-63,-4,61,-26,-34,14,-43,-141,-146,-112,-102
-58,-63,-4,61,-26,-34,19,-43,-141,-146,-112,-102
-58,-63,-4,61,-26,-34,19,-43,-136,-146,-107,-102
-58,-63,-4,61,-26,-34,19,-39,-131,-146,-102,-102
-58,-58,0,58,-29,-29,19,-39,-126,-141,-102,-102
-48,-43,4,46,-26,-19,19,-34,-117,-131,-97,-97
-43,-29,14,36,-29,-7,19,-34,-112,-126,-92,-92
-39,0,39,19,-39,19,19,-34,-102,-117,-82,-87
-39,0,39,19,-39,19,19,-34,-92,-112,-78,-82
-34,0,34,17,-34,17,24,-29,-92,-107,-78,-78
-29,4,34,12,-31,19,24,-24,-82,-107,-73,-78
-29,4,34,12,-31,19,24,-24,-82,-102,-68,-73
-14,4,19,4,-17,12,19,-19,-78,-97,-63,-68
-9,9,19,0,-14,14,0,-19,-73,-92,-53,-58
19,39,19,-29,0,29,-24,-29,-43,-58,-24,-29
39,58,19,-48,9,39,-58,-48,-24,-48,-14,-19
43,58,14,-51,14,36,-63,-53,-34,-48,-14,-19
43,53,9,-48,17,31,-63,-58,-48,-58,-24,-19
39,34,-4,-36,21,14,-58,-58,-58,-73,-43,-34
39,14,-24,-26,31,-4,-39,-39,-73,-78,-53,-34
39,14,-24,-26,31,-4,-29,-39,-73,-78,-43,-29
34,14,-19,-24,26,-2,-29,-39,-78,-78,-39,-29
14,-4,-19,-4,17,-12,-24,-53,-97,-102,-53,-48
0,-34,-34,17,17,-34,-14,-43,-117,-122,-73,-68
-29,-39,-9,34,-9,-24,-9,-43,-122,-126,-87,-78
-43,-48,-4,46,-19,-26,-4,-43,-122,-131,-97,-87
-58,-58,0,58,-29,-29,9,-43,-131,-141,-107,-102
-63,-63,0,63,-31,-31,14,-43,-131,-151,-112,-107
-68,-73,-4,70,-31,-39,19,-48,-141,-161,-122,-122
-68,-73,-4,70,-31,-39,19,-48,-151,-165,-126,-122
-68,-82,-14,75,-26,-48,19,-53,-151,-170,-126,-122
-68,-87,-19,78,-24,-53,24,-58,-151,-175,-126,-126
-78,-87,-9,82,-34,-48,24,-53,-161,-185,-131,-126
-92,-58,34,75,-63,-12,24,-53,-136,-161,-122,-126
-112,-14,97,63,-104,41,34,-53,-68,-112,-97,-122
-117,24,141,46,-129,82,53,24,14,-48,-53,-102
-48,39,87,4,-68,63,107,263,122,48,29,-29
87,97,9,-92,39,53,87,375,229,175,156,97
302,239,-63,-270,183,87,-34,336,361,356,361,297
512,414,-97,-463,305,158,-200,234,434,531,595,536
663,678,14,-671,324,346,-497,-131,585,834,946,893
629,824,195,-727,217,509,-678,-556,732,1068,1195,1132
405,566,161,-485,122,363,-551,-736,429,644,785,824
126,297,170,-212,-21,234,-356,-692,63,156,297,409
-170,209,380,-19,-275,295,-312,-751,-185,-126,-9,78
-292,161,453,65,-373,307,-307,-800,-346,-297,-195,-112
-239,73,312,82,-275,192,-263,-668,-375,-341,-234,-156
-165,34,200,65,-183,117,-195,-473,-326,-297,-209,-131
-117,24,141,46,-129,82,-107,-253,-190,-190,-126,-97
-63,-29,34,46,-48,2,-24,-82,-122,-146,-87,-78
-53,-43,9,48,-31,-17,0,-58,-117,-136,-82,-73
-53,-48,4,51,-29,-21,4,-53,-107,-131,-82,-68
-63,-58,4,61,-34,-26,4,-43,-107,-131,-87,-82
-63,-63,0,63,-31,-31,19,-24,-122,-146,-97,-82
-63,-63,0,63,-31,-31,24,-19,-122,-146,-97,-82
-58,-63,-4,61,-26,-34,29,-19,-117,-146,-97,-82
-58,-63,-4,61,-26,-34,34,-9,-117,-141,-97,-87
-53,-68,-14,61,-19,-41,34,4,-112,-141,-97,-87
-53,-68,-14,61,-19,-41,39,4,-112,-141,-97,-87
-53,-68,-14,61,-19,-41,39,9,-112,-141,-92,-82
-53,-68,-14,61,-19,-41,43,9,-107,-136,-92,-82
-48,-68,-19,58,-14,-43,43,14,-107,-136,-87,-82
-48,-63,-14,56,-17,-39,43,19,-107,-131,-87,-82
-48,-63,-14,56,-17,-39,43,19,-102,-126,-82,-87
-43,-58,-14,51,-14,-36,39,19,-97,-122,-82,-82
-43,-58,-14,51,-14,-36,34,24,-92,-117,-78,-78
-43,-53,-9,48,-17,-31,39,29,-92,-117,-78,-78
-39,-53,-14,46,-12,-34,39,34,-87,-112,-73,-78
-43,-53,-9,48,-17,-31,43,39,-78,-112,-68,-73
-43,-48,-4,46,-19,-26,43,39,-78,-107,-68,-73
-43,-48,-4,46,-19,-26,43,43,-68,-102,-58,-68
-39,-43,-4,41,-17,-24,43,48,-68,-92,-48,-58
-34,-39,-4,36,-14,-21,39,53,-58,-87,-43,-53
-34,-39,-4,36,-14,-21,34,63,-48,-82,-43,-48
-24,-34,-9,29,-7,-21,34,68,-39,-73,-34,-43
-14,-29,-14,21,0,-21,29,68,-34,-68,-24,-39
-9,-34,-24,21,7,-29,29,73,-29,-63,-24,-39
-9,-34,-24,21,7,-29,29,78,-19,-63,-14,-29
-4,-29,-24,17,9,-26,24,82,-9,-53,-4,-24
4,-19,-24,7,14,-21,24,87,-4,-43,0,-14
9,-9,-19,0,14,-14,29,92,4,-39,9,-4
14,-4,-19,-4,17,-12,34,97,9,-29,19,0
19,14,-4,-17,12,4,29,102,24,-19,24,9
24,19,-4,-21,14,7,29,112,34,-9,39,19
34,29,-4,-31,19,12,24,122,39,4,48,29
39,39,0,-39,19,19,24,122,48,14,58,34
48,34,-14,-41,31,9,19,122,58,24,68,43
53,34,-19,-43,36,7,14,126,73,39,82,58
58,43,-14,-51,36,14,14,141,92,58,97,68
68,48,-19,-58,43,14,9,146,112,78,117,82
82,58,-24,-70,53,17,4,156,126,87,126,92
87,68,-19,-78,53,24,0,170,141,112,131,107
102,82,-19,-92,61,31,-9,175,165,126,156,131
107,92,-14,-100,61,39,-9,185,185,146,175,146
117,102,-14,-109,65,43,-19,190,204,165,190,161
126,112,-14,-119,70,48,-24,200,224,185,209,175
141,126,-14,-134,78,56,-29,200,244,204,229,195
151,136,-14,-143,82,61,-39,200,263,224,244,209
156,151,-4,-153,80,73,-43,200,278,244,268,229
165,161,-4,-163,85,78,-43,200,302,258,287,239
175,165,-9,-170,92,78,-53,195,307,268,297,248
180,175,-4,-178,92,85,-58,195,326,283,317,263
185,185,0,-185,92,92,-68,185,341,307,322,278
190,195,4,-192,92,100,-78,170,351,322,331,292
200,200,0,-200,100,100,-87,156,356,322,336,292
209,200,-9,-204,109,95,-92,141,351,322,341,292
195,200,4,-197,95,102,-102,107,336,307,326,287
180,195,14,-187,82,104,-102,82,302,283,302,273
165,180,14,-173,75,97,-107,58,273,248,273,244
141,165,24,-153,58,95,-102,43,239,214,239,214
117,141,24,-129,46,82,-92,24,200,175,200,175
92,122,29,-107,31,75,-78,9,156,136,161,141
78,92,14,-85,31,53,-68,0,117,97,126,102
53,63,9,-58,21,36,-53,-4,78,58,87,73
34,43,9,-39,12,26,-43,-14,48,29,58,43
19,24,4,-21,7,14,-29,-24,14,-4,24,14
0,4,4,-2,-2,4,-19,-24,-19,-39,0,-14
-4,-9,-4,7,0,-7,-9,-24,-39,-63,-19,-34
-14,-19,-4,17,-4,-12,-9,-24,-53,-78,-39,-48
-24,-29,-4,26,-9,-17,0,-24,-78,-97,-58,-53
-29,-39,-9,34,-9,-24,0,-24,-87,-102,-68,-68
-34,-43,-9,39,-12,-26,4,-24,-92,-112,-73,-73
-39,-53,-14,46,-12,-34,9,-24,-92,-117,-78,-82
-39,-53,-14,46,-12,-34,9,-24,-97,-122,-82,-82
-48,-58,-9,53,-19,-34,14,-24,-102,-122,-87,-82
-53,-63,-9,58,-21,-36,14,-24,-102,-122,-87,-82
-53,-63,-9,58,-21,-36,19,-19,-102,-122,-87,-82
-53,-63,-9,58,-21,-36,24,-14,-107,-122,-87,-82
-53,-68,-14,61,-19,-41,19,-14,-107,-122,-87,-82
-53,-68,-14,61,-19,-41,19,-14,-107,-122,-87,-82
-53,-68,-14,61,-19,-41,24,-14,-107,-122,-87,-87
-53,-68,-14,61,-19,-41,24,-14,-107,-122,-87,-92
-53,-68,-14,61,-19,-41,24,-14,-107,-122,-87,-92
-53,-68,-14,61,-19,-41,24,-9,-107,-122,-82,-92
-53,-68,-14,61,-19,-41,19,-14,-102,-122,-82,-92
-53,-63,-9,58,-21,-36,14,-19,-102,-122,-82,-92
-53,-63,-9,58,-21,-36,14,-19,-107,-126,-82,-92
-53,-68,-14,61,-19,-41,14,-19,-112,-126,-82,-92
-53,-68,-14,61,-19,-41,14,-19,-112,-126,-87,-92
-53,-63,-9,58,-21,-36,14,-19,-112,-126,-92,-92
-53,-63,-9,58,-21,-36,14,-19,-112,-126,-92,-92
-53,-63,-9,58,-21,-36,9,-19,-112,-126,-87,-87
-53,-63,-9,58,-21,-36,4,-14,-112,-126,-87,-87
-53,-63,-9,58,-21,-36,0,-9,-107,-126,-87,-87
-53,-63,-9,58,-21,-36,0,-4,-102,-122,-87,-87
-48,-63,-14,56,-17,-39,0,0,-97,-122,-87,-87
-48,-63,-14,56,-17,-39,0,0,-97,-117,-87,-87
-48,-63,-14,56,-17,-39,0,0,-97,-112,-87,-87
-48,-53,-4,51,-21,-29,14,-9,-97,-112,-82,-82
-48,-48,0,48,-24,-24,29,-19,-97,-112,-82,-82
-43,-48,-4,46,-19,-26,29,-24,-97,-112,-87,-82
-39,-53,-14,46,-12,-34,29,-24,-97,-112,-87,-82
-39,-53,-14,46,-12,-34,34,-19,-97,-112,-82,-82
-39,-53,-14,46,-12,-34,34,-14,-97,-112,-82,-82
-43,-48,-4,46,-19,-26,34,-14,-97,-112,-82,-87
-48,-43,4,46,-26,-19,34,-14,-97,-112,-82,-87
-48,-48,0,48,-24,-24,29,-14,-97,-112,-82,-82
-48,-53,-4,51,-21,-29,29,-14,-97,-112,-82,-82
-48,-58,-9,53,-19,-34,24,-14,-97,-112,-82,-87
-48,-58,-9,53,-19,-34,24,-14,-97,-112,-87,-87
-48,-58,-9,53,-19,-34,24,-14,-97,-112,-87,-87
-48,-58,-9,53,-19,-34,19,-14,-102,-117,-87,-87
-48,-58,-9,53,-19,-34,19,-14,-102,-117,-87,-87
-48,-63,-14,56,-17,-39,19,-19,-107,-122,-92,-87
-48,-63,-14,56,-17,-39,19,-19,-107,-126,-92,-87
-48,-63,-14,56,-17,-39,19,-19,-107,-126,-92,-92
-48,-63,-14,56,-17,-39,19,-19,-107,-122,-92,-92
-53,-63,-9,58,-21,-36,19,-24,-107,-122,-97,-92
-58,-63,-4,61,-26,-34,19,-24,-112,-122,-97,-97
-63,-68,-4,65,-29,-36,19,-24,-112,-126,-97,-97
-68,-68,0,68,-34,-34,19,-24,-112,-126,-97,-97
-68,-68,0,68,-34,-34,24,-24,-117,-126,-97,-97
-58,-63,-4,61,-26,-34,24,-29,-122,-131,-102,-97
-53,-58,-4,56,-24,-31,24,-34,-126,-131,-102,-97
-53,-58,-4,56,-24,-31,14,-34,-126,-131,-107,-102
-53,-63,-9,58,-21,-36,9,-34,-131,-136,-112,-102
-58,-63,-4,61,-26,-34,9,-34,-131,-136,-117,-102
-58,-63,-4,61,-26,-34,9,-34,-131,-136,-117,-107
-58,-63,-4,61,-26,-34,9,-34,-131,-136,-112,-107
-63,-63,0,63,-31,-31,14,-34,-131,-136,-107,-102
-58,-68,-9,63,-24,-39,19,-34,-131,-136,-107,-102
-58,-73,-14,65,-21,-43,29,-34,-131,-136,-112,-107
-63,-73,-9,68,-26,-41,29,-29,-131,-141,-112,-107
-68,-78,-9,73,-29,-43,29,-29,-136,-146,-117,-107
-68,-73,-4,70,-31,-39,29,-34,-136,-146,-117,-107
-68,-68,0,68,-34,-34,29,-39,-136,-146,-117,-107
-68,-68,0,68,-34,-34,29,-39,-136,-146,-117,-107
-68,-68,0,68,-34,-34,29,-39,-131,-141,-117,-107
-68,-73,-4,70,-31,-39,29,-39,-131,-141,-117,-107
-68,-78,-9,73,-29,-43,29,-34,-126,-136,-117,-107
-68,-78,-9,73,-29,-43,24,-34,-126,-136,-117,-107
-73,-78,-4,75,-34,-41,19,-34,-126,-141,-117,-112
-73,-73,0,73,-36,-36,19,-39,-131,-141,-117,-112
-68,-73,-4,70,-31,-39,19,-43,-131,-141,-122,-112
-68,-73,-4,70,-31,-39,24,-43,-131,-141,-122,-112
-68,-73,-4,70,-31,-39,29,-43,-131,-141,-122,-112
-68,-73,-4,70,-31,-39,29,-43,-131,-146,-122,-112
-68,-73,-4,70,-31,-39,29,-43,-131,-146,-122,-112
-68,-73,-4,70,-31,-39,24,-39,-136,-146,-122,-112
-68,-68,0,68,-34,-34,19,-39,-136,-141,-122,-112
-58,-58,0,58,-29,-29,19,-29,-126,-131,-117,-107
-53,-48,4,51,-29,-21,19,-24,-122,-126,-112,-102
-48,-19,29,34,-39,4,24,-24,-112,-117,-102,-97
-48,-19,29,34,-39,4,29,-24,-102,-112,-97,-92
-48,-19,29,34,-39,4,34,-19,-102,-107,-97,-87
-48,-14,34,31,-41,9,34,-14,-92,-107,-92,-87
-48,-14,34,31,-41,9,39,-14,-92,-102,-92,-87
-34,-14,19,24,-26,2,39,-9,-87,-97,-92,-87
-29,-9,19,19,-24,4,19,-9,-82,-92,-82,-78
0,19,19,-9,-9,19,-4,-19,-53,-58,-53,-48
19,39,19,-29,0,29,-43,-43,-24,-48,-34,-34
24,39,14,-31,4,26,-53,-53,-24,-48,-24,-29
29,39,9,-34,9,24,-53,-58,-39,-53,-34,-29
29,24,-4,-26,17,9,-48,-58,-48,-63,-43,-43
29,4,-24,-17,26,-9,-29,-34,-68,-68,-43,-43
29,4,-24,-17,26,-9,-19,-29,-73,-68,-43,-39
24,4,-19,-14,21,-7,-19,-29,-78,-68,-48,-34
4,-14,-19,4,12,-17,-9,-43,-92,-87,-63,-48
-9,-43,-34,26,12,-39,4,-29,-107,-102,-82,-68
-39,-48,-9,43,-14,-29,9,-24,-112,-107,-92,-78
-53,-58,-4,56,-24,-31,14,-24,-112,-112,-102,-92
-68,-68,0,68,-34,-34,29,-24,-122,-122,-117,-107
-78,-78,0,78,-39,-39,39,-29,-122,-136,-122,-107
-87,-92,-4,90,-41,-48,48,-39,-131,-151,-131,-122
-87,-92,-4,90,-41,-48,48,-39,-141,-156,-136,-122
-87,-97,-9,92,-39,-53,48,-39,-141,-156,-136,-122
-78,-97,-19,87,-29,-58,53,-29,-146,-156,-136,-126
-78,-92,-14,85,-31,-53,53,-14,-146,-156,-136,-126
-92,-58,34,75,-63,-12,53,-29,-107,-122,-122,-126
-92,-14,78,53,-85,31,63,-14,-29,-63,-82,-107
-82,14,97,34,-90,56,82,92,63,9,-24,-78
0,39,39,-19,-19,39,107,287,170,122,82,14
156,102,-53,-129,104,24,78,424,302,278,239,165
341,244,-97,-292,219,73,-39,409,458,483,458,380
522,468,-53,-495,287,207,-219,263,531,683,727,658
610,692,82,-651,263,387,-458,-82,624,902,995,932
522,785,263,-653,129,524,-600,-507,766,1098,1176,1093
307,546,239,-427,34,392,-492,-663,517,732,795,795
9,244,234,-126,-112,239,-244,-541,151,204,244,307
-248,146,395,51,-322,270,-151,-551,-73,-78,-68,-24
-322,146,468,87,-395,307,-209,-688,-268,-248,-224,-175
-278,87,366,95,-322,226,-224,-639,-326,-307,-258,-214
-190,43,234,73,-212,139,-170,-424,-278,-258,-219,-161
-131,29,161,51,-146,95,-102,-239,-190,-180,-156,-117
-73,-19,53,46,-63,17,-9,-78,-117,-122,-112,-82
-53,-34,19,43,-36,-7,24,-34,-87,-87,-92,-68
-53,-39,14,46,-34,-12,24,-34,-78,-82,-92,-68
-63,-48,14,56,-39,-17,24,-24,-78,-82,-97,-82
-63,-58,4,61,-34,-26,39,-4,-97,-102,-107,-82
-63,-63,0,63,-31,-31,39,0,-102,-107,-107,-82
-58,-63,-4,61,-26,-34,39,0,-97,-107,-102,-82
-58,-63,-4,61,-26,-34,43,4,-97,-102,-97,-87
-53,-73,-19,63,-17,-46,43,14,-92,-97,-97,-87
-53,-78,-24,65,-14,-51,48,14,-92,-92,-97,-87
-58,-78,-19,68,-19,-48,48,19,-87,-92,-92,-82
-63,-78,-14,70,-24,-46,53,19,-78,-87,-92,-82
-58,-73,-14,65,-21,-43,53,24,-78,-87,-87,-82
-58,-63,-4,61,-26,-34,53,29,-78,-82,-87,-78
-53,-63,-9,58,-21,-36,48,29,-73,-78,-82,-78
-43,-58,-14,51,-14,-36,43,29,-68,-73,-82,-73
-43,-58,-14,51,-14,-36,43,29,-63,-68,-78,-68
-43,-53,-9,48,-17,-31,48,29,-63,-68,-78,-68
-39,-53,-14,46,-12,-34,48,34,-58,-63,-78,-68
-39,-53,-14,46,-12,-34,48,39,-48,-63,-78,-63
-34,-48,-14,41,-9,-31,43,39,-48,-58,-78,-63
-34,-48,-14,41,-9,-31,43,43,-39,-53,-68,-58
-29,-48,-19,39,-4,-34,43,48,-43,-43,-53,-48
-24,-48,-24,36,0,-36,43,48,-39,-39,-43,-43
-24,-48,-24,36,0,-36,48,53,-29,-34,-43,-39
-19,-43,-24,31,2,-34,53,58,-19,-24,-34,-34
-14,-39,-24,26,4,-31,48,58,-14,-14,-24,-24
-9,-39,-29,24,9,-34,48,63,-9,0,-24,-19
-9,-34,-24,21,7,-29,48,68,0,4,-14,-9
-4,-29,-24,17,9,-26,43,73,9,14,-4,-4
4,-19,-24,7,14,-21,39,78,14,19,0,0
9,-14,-24,2,17,-19,34,82,24,19,9,4
14,-24,-39,4,26,-31,34,82,29,29,19,9
19,-19,-39,0,29,-29,29,82,43,39,24,19
29,-9,-39,-9,34,-24,29,92,58,48,39,29
43,9,-34,-26,39,-12,24,102,73,63,48,39
48,19,-29,-34,39,-4,24,102,87,73,63,48
58,19,-39,-39,48,-9,19,107,97,82,78,63
63,19,-43,-41,53,-12,14,112,112,97,92,78
68,24,-43,-46,56,-9,14,122,131,117,107,87
78,29,-48,-53,63,-9,9,126,151,136,126,102
92,39,-53,-65,73,-7,4,131,165,146,141,112
97,48,-48,-73,73,0,0,141,180,175,151,126
112,63,-48,-87,80,7,-9,146,204,195,175,151
117,73,-43,-95,80,14,-9,151,224,214,195,165
126,82,-43,-104,85,19,-19,146,244,234,209,180
136,92,-43,-114,90,24,-24,151,263,253,224,195
151,107,-43,-129,97,31,-29,151,283,273,239,214
161,117,-43,-139,102,36,-48,151,302,297,253,229
165,131,-34,-148,100,48,-68,151,317,322,273,248
175,141,-34,-158,104,53,-73,151,346,341,292,263
185,146,-39,-165,112,53,-82,146,356,356,307,278
190,156,-34,-173,112,61,-82,146,375,370,331,292
195,165,-29,-180,112,68,-87,136,385,385,341,302
204,175,-29,-190,117,73,-97,126,400,395,351,312
209,180,-29,-195,119,75,-107,112,409,400,351,312
209,185,-24,-197,117,80,-107,97,405,400,356,317
195,190,-4,-192,100,92,-112,68,395,385,346,312
180,185,4,-183,87,95,-107,53,361,361,322,292
165,170,4,-168,80,87,-102,39,331,326,292,263
141,156,14,-148,63,85,-92,29,297,292,253,234
117,131,14,-124,51,73,-82,14,258,253,209,195
92,112,19,-102,36,65,-68,0,214,214,165,151
78,87,9,-82,34,48,-58,-4,175,175,126,102
53,58,4,-56,24,31,-43,-4,126,122,82,73
34,34,0,-34,17,17,-34,-9,87,78,48,43
14,14,0,-14,7,7,-14,-14,53,43,14,14
-9,-4,4,7,-7,0,0,-14,24,14,-9,-9
-19,-19,0,19,-9,-9,9,-14,9,-4,-29,-24
-34,-29,4,31,-19,-12,9,-14,-4,-19,-43,-39
-48,-39,9,43,-29,-14,19,-14,-29,-39,-58,-48
-53,-48,4,51,-29,-21,19,-14,-39,-43,-68,-68
-53,-53,0,53,-26,-26,24,-14,-48,-53,-78,-73
-58,-63,-4,61,-26,-34,29,-14,-53,-58,-87,-82
-58,-68,-9,63,-24,-39,29,-14,-58,-68,-97,-82
-63,-73,-9,68,-26,-41,34,-14,-63,-73,-107,-82
-63,-73,-9,68,-26,-41,34,-14,-63,-73,-107,-87
-63,-73,-9,68,-26,-41,34,-14,-63,-73,-107,-92
-58,-73,-14,65,-21,-43,39,-14,-68,-73,-107,-92
-53,-78,-24,65,-14,-51,39,-14,-68,-73,-107,-92
-53,-73,-19,63,-17,-46,39,-14,-68,-68,-102,-87
-53,-68,-14,61,-19,-41,43,-14,-68,-63,-97,-82
-53,-68,-14,61,-19,-41,43,-9,-63,-58,-92,-82
-53,-68,-14,61,-19,-41,43,-4,-58,-53,-87,-82
-53,-68,-14,61,-19,-41,43,0,-58,-53,-82,-78
-53,-68,-14,61,-19,-41,43,0,-53,-53,-82,-73
-53,-68,-14,61,-19,-41,43,-4,-53,-53,-82,-73
-53,-73,-19,63,-17,-46,43,-9,-53,-53,-82,-73
-53,-78,-24,65,-14,-51,43,-9,-53,-43,-82,-78
-53,-78,-24,65,-14,-51,43,-9,-53,-39,-82,-82
-53,-73,-19,63,-17,-46,43,-4,-53,-39,-82,-82
-53,-73,-19,63,-17,-46,43,0,-53,-39,-82,-82
-53,-73,-19,63,-17,-46,39,0,-53,-39,-82,-78
-53,-73,-19,63,-17,-46,39,0,-53,-39,-87,-78
-53,-73,-19,63,-17,-46,39,0,-53,-43,-87,-78
-53,-73,-19,63,-17,-46,39,0,-58,-43,-87,-78
-48,-73,-24,61,-12,-48,39,0,-58,-43,-82,-78
-48,-73,-24,61,-12,-48,39,0,-58,-43,-78,-78
-48,-73,-24,61,-12,-48,43,0,-53,-39,-78,-78
-48,-68,-19,58,-14,-43,48,0,-48,-34,-73,-73
-43,-68,-24,56,-9,-46,48,0,-48,-34,-73,-73
-39,-68,-29,53,-4,-48,48,-4,-48,-34,-78,-73
-39,-73,-34,56,-2,-53,43,-4,-48,-34,-82,-73
-39,-73,-34,56,-2,-53,43,-4,-48,-34,-82,-73
-43,-78,-34,61,-4,-56,43,-4,-53,-34,-82,-73
-48,-78,-29,63,-9,-53,43,-4,-58,-34,-82,-78
-48,-73,-24,61,-12,-48,43,-4,-63,-34,-82,-78
-48,-73,-24,61,-12,-48,39,-4,-68,-34,-82,-73
-48,-68,-19,58,-14,-43,39,-4,-68,-34,-82,-73
-48,-68,-19,58,-14,-43,39,-4,-68,-34,-82,-78
-48,-68,-19,58,-14,-43,43,-4,-63,-34,-87,-78
-48,-68,-19,58,-14,-43,43,-4,-58,-34,-87,-78
-48,-73,-24,61,-12,-48,39,-4,-63,-34,-87,-78
-48,-78,-29,63,-9,-53,39,-4,-63,-29,-87,-78
-48,-82,-34,65,-7,-58,39,-9,-68,-34,-87,-78
-48,-82,-34,65,-7,-58,39,-9,-68,-39,-82,-78
-48,-82,-34,65,-7,-58,39,-9,-68,-39,-82,-82
-53,-82,-29,68,-12,-56,39,-9,-68,-34,-87,-82
-53,-87,-34,70,-9,-61,39,-9,-73,-39,-92,-82
-58,-97,-39,78,-9,-68,39,-9,-78,-48,-97,-87
-58,-97,-39,78,-9,-68,39,-9,-78,-48,-97,-87
-58,-97,-39,78,-9,-68,39,-9,-78,-48,-97,-87
-58,-92,-34,75,-12,-63,43,-9,-78,-48,-97,-82
-58,-87,-29,73,-14,-58,43,-9,-78,-48,-97,-78
-58,-87,-29,73,-14,-58,48,-9,-78,-48,-97,-78
-58,-87,-29,73,-14,-58,48,-14,-78,-48,-97,-78
-58,-87,-29,73,-14,-58,48,-14,-78,-48,-97,-87
-58,-87,-29,73,-14,-58,48,-14,-78,-48,-97,-97
-63,-87,-24,75,-19,-56,48,-14,-78,-53,-97,-102
-63,-87,-24,75,-19,-56,48,-14,-82,-53,-97,-102
-58,-92,-34,75,-12,-63,43,-14,-82,-53,-102,-102
-58,-92,-34,75,-12,-63,39,-14,-82,-53,-102,-102
-58,-92,-34,75,-12,-63,39,-14,-82,-53,-112,-102
-58,-92,-34,75,-12,-63,39,-14,-82,-58,-122,-102
-58,-92,-34,75,-12,-63,43,-14,-82,-58,-122,-82
-58,-92,-34,75,-12,-63,48,-9,-82,-58,-122,-63
-58,-87,-29,73,-14,-58,48,-9,-78,-53,-122,-73
-48,-73,-24,61,-12,-48,48,-4,-68,-43,-117,-78
-43,-58,-14,51,-14,-36,48,-4,-63,-39,-112,-73
-39,-29,9,34,-24,-9,48,-4,-53,-29,-102,-68
-39,-29,9,34,-24,-9,43,-9,-43,-24,-97,-63
-34,-29,4,31,-19,-12,43,-9,-43,-19,-97,-58
-34,-24,9,29,-21,-7,34,-4,-34,-19,-92,-63
-39,-24,14,31,-26,-4,24,-4,-34,-14,-87,-63
-29,-24,4,26,-17,-9,29,0,-29,-9,-82,-63
-29,-19,9,24,-19,-4,19,0,-24,-4,-73,-58
0,19,19,-9,-9,19,0,-14,4,29,-39,-29
19,48,29,-34,-4,39,-29,-39,24,39,-24,-19
24,48,24,-36,0,36,-34,-43,14,39,-24,-14
24,43,19,-34,2,31,-34,-48,0,29,-34,-9
19,19,0,-19,9,9,-29,-43,-9,14,-43,-24
19,-4,-24,-7,21,-14,-9,-19,-24,9,-43,-24
24,-4,-29,-9,26,-17,0,-19,-19,14,-39,-14
24,-4,-29,-9,26,-17,0,-19,-19,19,-39,-9
4,-24,-29,9,17,-26,9,-29,-34,0,-53,-29
-9,-53,-43,31,17,-48,24,-14,-48,-14,-73,-48
-34,-58,-24,46,-4,-41,29,-14,-53,-19,-82,-58
-43,-68,-24,56,-9,-46,34,-14,-53,-24,-87,-68
-58,-78,-19,68,-19,-48,48,-14,-68,-34,-97,-82
-63,-82,-19,73,-21,-51,53,-14,-73,-43,-102,-87
-68,-92,-24,80,-21,-58,53,-19,-82,-53,-117,-107
-68,-92,-24,80,-21,-58,48,-19,-92,-58,-126,-112
-68,-102,-34,85,-17,-68,48,-19,-97,-63,-131,-112
-68,-107,-39,87,-14,-73,53,-19,-102,-68,-136,-117
-78,-102,-24,90,-26,-63,53,-19,-102,-78,-141,-117
-92,-68,24,80,-58,-21,53,-24,-68,-53,-131,-117
-97,-24,73,61,-85,24,53,-43,9,4,-92,-112
-87,14,102,36,-95,58,63,14,102,78,-34,-92
-34,48,82,-7,-58,65,112,239,239,209,78,4
87,126,39,-107,24,82,87,336,375,370,234,156
244,292,48,-268,97,170,-14,326,517,590,463,356
395,492,97,-444,148,295,-161,253,600,805,722,595
527,756,229,-641,148,492,-439,-87,785,1137,1083,922
473,902,429,-688,21,666,-600,-488,966,1400,1342,1132
307,546,239,-427,34,392,-448,-566,624,897,858,795
87,180,92,-134,-2,136,-229,-419,219,331,297,351
-195,117,312,39,-253,214,-190,-517,-117,-29,-58,0
-302,92,395,104,-348,244,-190,-605,-366,-278,-292,-209
-248,34,283,107,-265,158,-180,-536,-390,-312,-307,-234
-175,24,200,75,-187,112,-146,-405,-336,-258,-258,-190
-122,19,141,51,-131,80,-63,-209,-170,-122,-156,-122
-63,-29,34,46,-48,2,14,-63,-73,-48,-97,-68
-53,-43,9,48,-31,-17,34,-34,-63,-29,-87,-68
-53,-48,4,51,-29,-21,34,-24,-48,-14,-82,-68
-63,-63,0,63,-31,-31,34,-14,-48,-14,-87,-82
-63,-73,-9,68,-26,-41,48,4,-63,-29,-97,-82
-63,-73,-9,68,-26,-41,48,9,-63,-29,-97,-82
-58,-73,-14,65,-21,-43,48,9,-58,-29,-97,-82
-53,-63,-9,58,-21,-36,53,9,-53,-24,-97,-82
-43,-58,-14,51,-14,-36,53,14,-43,-24,-97,-78
-43,-58,-14,51,-14,-36,58,14,-43,-24,-97,-78
-43,-58,-14,51,-14,-36,58,19,-43,-24,-92,-73
-43,-58,-14,51,-14,-36,63,19,-39,-19,-92,-73
-39,-58,-19,48,-9,-39,63,24,-39,-19,-87,-73
-43,-53,-9,48,-17,-31,63,29,-39,-19,-87,-73
-48,-53,-4,51,-21,-29,63,29,-34,-19,-82,-78
-43,-48,-4,46,-19,-26,58,29,-34,-14,-82,-73
-43,-48,-4,46,-19,-26,53,34,-34,-9,-78,-68
-43,-43,0,43,-21,-21,58,34,-34,-9,-78,-68
-39,-43,-4,41,-17,-24,58,34,-29,-4,-73,-68
-39,-43,-4,41,-17,-24,58,39,-19,-4,-68,-63
-34,-39,-4,36,-14,-21,53,39,-19,0,-68,-63
-34,-43,-9,39,-12,-26,53,43,-9,4,-58,-58
-29,-43,-14,36,-7,-29,53,48,-9,14,-48,-48
-24,-39,-14,31,-4,-26,53,48,0,19,-43,-43
-24,-39,-14,31,-4,-26,53,53,9,24,-43,-39
-14,-34,-19,24,2,-26,53,58,19,34,-34,-34
-4,-29,-24,17,9,-26,48,58,24,39,-24,-29
0,-29,-29,14,14,-29,48,58,29,43,-24,-29
0,-24,-24,12,12,-24,48,58,39,43,-14,-19
0,-19,-19,9,9,-19,43,63,48,53,-4,-19
4,-9,-14,2,9,-12,43,68,53,63,0,-14
9,-4,-14,-2,12,-9,43,73,63,68,9,-4
14,-4,-19,-4,17,-12,43,78,68,78,19,0
19,9,-9,-14,14,0,39,78,82,87,24,14
24,9,-14,-17,19,-2,39,82,92,97,39,29
29,19,-9,-24,19,4,29,92,107,117,48,39
29,29,0,-29,14,14,24,92,126,131,58,43
39,29,-9,-34,24,9,19,87,136,141,68,53
43,34,-9,-39,26,12,14,87,151,156,82,68
48,48,0,-48,24,24,14,102,170,175,97,78
58,58,0,-58,29,29,9,107,190,195,117,92
73,68,-4,-70,39,31,4,107,209,204,131,102
78,78,0,-78,39,39,0,112,229,229,141,117
87,87,0,-87,43,43,-9,112,253,248,165,141
87,92,4,-90,41,48,-9,117,273,273,185,156
97,102,4,-100,46,53,-19,117,302,297,204,170
107,112,4,-109,51,58,-24,122,331,322,229,185
126,126,0,-126,63,63,-29,122,351,346,253,209
141,136,-4,-139,73,65,-39,122,370,370,273,229
146,151,4,-148,70,78,-53,122,390,390,297,248
156,161,4,-158,75,82,-63,122,419,405,317,258
165,165,0,-165,82,82,-73,117,424,414,326,268
170,175,4,-173,82,90,-78,117,444,429,346,283
175,190,14,-183,80,102,-87,112,453,453,351,292
180,204,24,-192,78,114,-97,102,458,468,361,302
180,214,34,-197,73,124,-107,92,458,458,356,302
170,219,48,-195,61,134,-117,63,439,439,341,297
170,219,48,-195,61,134,-117,63,439,439,341,297
