I, II, III, aVR, aVL, aVF, V1, V2, V3, V4, V5, V6
-29,-78,-48,53,9,-63,19,-68,-117,-175,-126,-53
-29,-78,-48,53,9,-63,14,-68,-117,-175,-131,-53
-29,-82,-53,56,12,-68,14,-68,-117,-175,-131,-53
-29,-82,-53,56,12,-68,19,-68,-117,-175,-131,-58
-34,-82,-48,58,7,-65,9,-68,-107,-175,-122,-58
-34,-82,-48,58,7,-65,9,-63,-107,-175,-122,-58
-34,-82,-48,58,7,-65,9,-63,-107,-175,-122,-58
-29,-82,-53,56,12,-68,9,-63,-107,-175,-117,-58
-39,-82,-43,61,2,-63,19,-63,-102,-165,-117,-53
-39,-82,-43,61,2,-63,24,-63,-102,-161,-117,-53
-43,-78,-34,61,-4,-56,24,-63,-102,-161,-117,-53
-43,-78,-34,61,-4,-56,24,-63,-97,-161,-112,-53
-29,-78,-48,53,9,-63,29,-58,-97,-161,-112,-43
-29,-68,-39,48,4,-53,19,-58,-92,-156,-112,-43
-39,-68,-29,53,-4,-48,19,-58,-92,-151,-107,-43
-24,-63,-39,43,7,-51,19,-58,-82,-146,-102,-43
-14,-53,-39,34,12,-46,19,-48,-82,-131,-87,-34
-14,-63,-48,39,17,-56,29,-24,-48,-97,-78,-43
-19,-73,-53,46,17,-63,39,34,9,-43,-68,-53
-9,-63,-53,36,21,-58,43,87,112,53,-58,-63
0,-24,-24,12,12,-24,43,141,273,214,9,-43
0,9,9,-4,-4,9,53,200,448,419,107,-9
-4,48,53,-21,-29,51,63,234,561,575,190,24
0,92,92,-46,-46,92,29,175,463,610,273,78
29,146,117,-87,-43,131,-58,-39,175,531,380,170
53,204,151,-129,-48,178,-204,-409,-307,375,522,317
58,263,204,-161,-73,234,-390,-873,-951,117,634,473
102,287,185,-195,-41,236,-585,-1327,-1615,-204,741,624
165,331,165,-248,0,248,-785,-1722,-2166,-414,932,824
239,414,175,-326,31,295,-990,-2093,-2581,-483,1254,1107
331,483,151,-407,90,317,-1190,-2405,-2923,-507,1673,1444
444,536,92,-490,175,314,-1376,-2640,-3186,-473,2142,1786
570,619,48,-595,261,334,-1595,-2859,-3425,-439,2601,2127
683,736,53,-710,314,395,-1815,-3084,-3655,-414,3030,2483
785,800,14,-793,385,407,-1981,-3245,-3782,-375,3416,2796
863,829,-34,-846,448,397,-2093,-3352,-3884,-473,3533,2962
888,810,-78,-849,483,366,-2127,-3440,-3986,-800,3201,2908
883,692,-190,-788,536,251,-2064,-3401,-3996,-1195,2601,2659
819,492,-326,-656,573,82,-1898,-3250,-3904,-1581,1825,2264
644,302,-341,-473,492,-19,-1683,-3103,-3821,-2113,751,1688
453,185,-268,-319,361,-41,-1473,-2971,-3703,-2693,-390,1122
370,24,-346,-197,358,-161,-1317,-2742,-3479,-2976,-1049,756
361,-185,-546,-87,453,-366,-1161,-2381,-3084,-2810,-1180,551
341,-268,-610,-36,475,-439,-990,-1976,-2576,-2381,-1068,439
346,-239,-585,-53,466,-412,-868,-1654,-2103,-1956,-897,429
366,-214,-580,-75,473,-397,-771,-1356,-1712,-1610,-717,419
351,-229,-580,-61,466,-405,-629,-1068,-1371,-1302,-551,380
307,-229,-536,-39,422,-383,-483,-800,-1015,-971,-380,336
253,-161,-414,-46,334,-287,-336,-566,-692,-697,-244,297
190,-82,-273,-53,231,-178,-219,-390,-458,-492,-170,224
141,-53,-195,-43,168,-124,-141,-258,-302,-356,-136,146
102,-63,-165,-19,134,-114,-68,-156,-195,-263,-112,82
58,-48,-107,-4,82,-78,-4,-73,-87,-180,-102,19
14,-48,-63,17,39,-56,48,0,-9,-107,-82,-14
-9,-48,-39,29,14,-43,78,48,53,-68,-73,-48
-29,-63,-34,46,2,-48,107,87,97,-39,-73,-78
-43,-82,-39,63,-2,-61,122,117,131,-19,-82,-107
-43,-78,-34,61,-4,-56,141,126,141,-24,-87,-122
-48,-82,-34,65,-7,-58,156,136,146,-24,-102,-131
-68,-92,-24,80,-21,-58,165,141,151,-24,-112,-141
-78,-97,-19,87,-29,-58,180,165,165,-19,-122,-141
-87,-102,-14,95,-36,-58,180,165,170,-14,-126,-146
-87,-102,-14,95,-36,-58,180,165,170,-14,-131,-151
-73,-92,-19,82,-26,-56,180,165,170,-24,-141,-156
-73,-92,-19,82,-26,-56,175,165,170,-24,-146,-161
-73,-92,-19,82,-26,-56,175,165,170,-24,-151,-165
-68,-92,-24,80,-21,-58,180,175,180,-24,-151,-170
-68,-92,-24,80,-21,-58,190,180,185,-14,-151,-170
-78,-92,-14,85,-31,-53,195,190,195,-14,-151,-170
-82,-92,-9,87,-36,-51,200,195,195,-9,-151,-165
-82,-92,-9,87,-36,-51,204,200,195,-9,-151,-165
-78,-102,-24,90,-26,-63,204,190,200,-4,-146,-170
-78,-102,-24,90,-26,-63,204,195,200,-4,-146,-170
-78,-102,-24,90,-26,-63,204,195,200,-4,-146,-170
-78,-102,-24,90,-26,-63,204,200,204,-4,-146,-175
-78,-92,-14,85,-31,-53,209,209,214,0,-146,-180
-78,-92,-14,85,-31,-53,209,219,214,0,-146,-180
-78,-92,-14,85,-31,-53,209,219,219,0,-151,-180
-78,-92,-14,85,-31,-53,209,219,224,4,-151,-180
-82,-102,-19,92,-31,-61,214,224,214,14,-141,-180
-82,-102,-19,92,-31,-61,214,224,219,14,-146,-185
-82,-97,-14,90,-34,-56,214,229,219,14,-146,-185
-82,-97,-14,90,-34,-56,214,229,219,14,-146,-185
-73,-87,-14,80,-29,-51,214,219,224,14,-156,-190
-73,-92,-19,82,-26,-56,219,224,224,19,-156,-190
-73,-92,-19,82,-26,-56,219,229,229,19,-156,-190
-73,-92,-19,82,-26,-56,219,234,229,19,-161,-195
-82,-87,-4,85,-39,-46,219,248,234,9,-161,-195
-87,-87,0,87,-43,-43,219,248,239,14,-161,-200
-87,-87,0,87,-43,-43,224,248,239,14,-161,-200
-87,-87,0,87,-43,-43,224,248,239,14,-165,-200
-87,-87,0,87,-43,-43,224,244,244,29,-165,-190
-87,-87,0,87,-43,-43,224,248,244,29,-165,-200
-87,-87,0,87,-43,-43,229,258,253,29,-165,-200
-87,-87,0,87,-43,-43,229,258,253,29,-175,-200
-87,-97,-9,92,-39,-53,229,268,253,29,-175,-204
-92,-92,0,92,-46,-46,229,268,258,34,-175,-204
-92,-92,0,92,-46,-46,234,273,263,34,-175,-209
-92,-92,0,92,-46,-46,234,273,263,39,-175,-214
-97,-92,4,95,-51,-43,234,268,273,29,-180,-224
-97,-92,4,95,-51,-43,239,278,283,29,-180,-224
-97,-92,4,95,-51,-43,239,283,287,34,-180,-224
-97,-92,4,95,-51,-43,244,283,292,39,-180,-224
-97,-92,4,95,-51,-43,244,287,287,39,-185,-229
-97,-97,0,97,-48,-48,244,292,292,39,-185,-229
-102,-97,4,100,-53,-46,248,297,297,43,-185,-229
-102,-92,9,97,-56,-41,248,302,302,43,-185,-239
-92,-92,0,92,-46,-46,248,317,302,53,-190,-239
-92,-92,0,92,-46,-46,248,322,312,53,-190,-239
-92,-92,0,92,-46,-46,253,326,317,53,-195,-239
-97,-92,4,95,-51,-43,253,331,322,63,-195,-244
-97,-92,4,95,-51,-43,258,331,326,63,-195,-244
-97,-92,4,95,-51,-43,258,336,331,68,-195,-244
-97,-87,9,92,-53,-39,258,341,336,73,-195,-248
-97,-87,9,92,-53,-39,263,346,341,73,-195,-248
-107,-87,19,97,-63,-34,268,351,351,78,-204,-258
-107,-87,19,97,-63,-34,268,361,356,82,-209,-258
-112,-87,24,100,-68,-31,268,366,361,87,-209,-263
-112,-87,24,100,-68,-31,273,370,375,92,-209,-263
-102,-87,14,95,-58,-36,273,370,380,97,-200,-268
-102,-87,14,95,-58,-36,273,380,385,97,-200,-268
-107,-87,19,97,-63,-34,273,390,390,107,-200,-268
-107,-87,19,97,-63,-34,278,390,395,107,-204,-278
-107,-82,24,95,-65,-29,278,405,405,112,-204,-278
-107,-82,24,95,-65,-29,278,414,414,117,-204,-278
-107,-82,24,95,-65,-29,283,429,424,122,-204,-278
-107,-82,24,95,-65,-29,287,429,434,126,-204,-287
-117,-82,34,100,-75,-24,287,439,444,136,-204,-287
-117,-82,34,100,-75,-24,297,453,444,141,-204,-287
-122,-82,39,102,-80,-21,302,463,458,146,-204,-292
-122,-78,43,100,-82,-17,307,473,463,151,-204,-292
-112,-78,34,95,-73,-21,307,488,478,161,-204,-307
-112,-78,34,95,-73,-21,307,497,488,170,-204,-307
-112,-78,34,95,-73,-21,317,507,502,175,-204,-307
-112,-78,34,95,-73,-21,317,517,512,180,-204,-317
-117,-63,53,90,-85,-4,317,531,522,180,-204,-312
-117,-63,53,90,-85,-4,326,541,531,185,-200,-312
-117,-63,53,90,-85,-4,326,561,541,200,-200,-312
-117,-58,58,87,-87,0,331,566,556,209,-200,-312
-126,-58,68,92,-97,4,336,570,566,219,-200,-326
-126,-48,78,87,-102,14,336,585,575,229,-195,-331
-126,-48,78,87,-102,14,341,600,595,239,-195,-331
-126,-48,78,87,-102,14,346,614,610,244,-195,-331
-126,-39,87,82,-107,24,351,619,610,258,-200,-331
-126,-34,92,80,-109,29,351,629,624,268,-195,-331
-126,-34,92,80,-109,29,351,649,634,278,-195,-341
-126,-34,92,80,-109,29,361,663,644,287,-190,-341
-117,-24,92,70,-104,34,366,668,663,307,-190,-341
-122,-24,97,73,-109,36,370,683,683,322,-180,-341
-122,-19,102,70,-112,41,375,697,697,331,-175,-341
-122,-14,107,68,-114,46,380,712,712,346,-170,-341
-131,-9,122,70,-126,56,380,722,727,366,-156,-341
-131,0,131,65,-131,65,380,736,741,380,-146,-346
-131,4,136,63,-134,70,390,741,761,395,-141,-346
-131,9,141,61,-136,75,390,756,775,414,-136,-346
-131,14,146,58,-139,80,395,766,795,429,-141,-346
-131,19,151,56,-141,85,395,775,810,453,-136,-346
-136,24,161,56,-148,92,395,795,829,468,-126,-346
-136,24,161,56,-148,92,395,805,844,488,-112,-351
-136,29,165,53,-151,97,400,805,858,512,-102,-351
-136,39,175,48,-156,107,405,814,878,531,-92,-351
-136,43,180,46,-158,112,405,814,893,556,-82,-351
-136,48,185,43,-161,117,405,819,902,570,-73,-351
-136,53,190,41,-163,122,405,814,912,600,-68,-356
-136,58,195,39,-165,126,405,814,927,619,-58,-356
-136,63,200,36,-168,131,400,814,941,639,-48,-356
-141,73,214,34,-178,143,400,814,946,668,-34,-351
-141,78,219,31,-180,148,395,824,961,678,-9,-346
-141,82,224,29,-183,153,390,810,971,702,9,-346
-141,87,229,26,-185,158,385,800,980,722,24,-346
-141,92,234,24,-187,163,380,785,980,746,43,-346
-141,97,239,21,-190,168,366,775,985,780,53,-336
-141,97,239,21,-190,168,351,766,990,795,68,-331
-141,107,248,17,-195,178,341,746,990,814,82,-326
-136,107,244,14,-190,175,331,727,990,839,97,-322
-126,107,234,9,-180,170,331,717,980,858,112,-317
-126,107,234,9,-180,170,322,697,976,868,131,-312
-126,112,239,7,-183,175,312,673,961,873,151,-307
-122,117,239,2,-180,178,302,653,951,883,165,-297
-131,117,248,7,-190,183,283,629,936,883,170,-292
-126,117,244,4,-185,180,278,605,917,888,175,-283
-126,122,248,2,-187,185,258,575,897,888,185,-278
-122,122,244,0,-183,183,244,546,883,878,190,-273
-112,122,234,-4,-173,178,229,527,868,868,195,-273
-107,122,229,-7,-168,175,219,497,839,854,195,-268
-102,126,229,-12,-165,178,204,473,814,834,195,-263
-102,131,234,-14,-168,183,200,444,780,814,195,-253
-107,122,229,-7,-168,175,190,424,761,780,200,-239
-102,122,224,-9,-163,173,175,395,727,751,195,-234
-97,117,214,-9,-156,165,161,366,697,717,185,-229
-87,112,200,-12,-143,156,146,336,663,678,170,-224
-92,97,190,-2,-141,143,122,322,614,649,151,-219
-92,92,185,0,-139,139,112,297,580,614,131,-214
-87,92,180,-2,-134,136,97,278,546,580,126,-204
-78,87,165,-4,-122,126,82,248,512,536,107,-204
-73,87,161,-7,-117,124,87,234,483,497,112,-195
-68,82,151,-7,-109,117,78,209,448,458,97,-180
-58,82,141,-12,-100,112,58,185,414,414,82,-180
-53,78,131,-12,-92,104,48,161,380,375,78,-165
-34,73,107,-19,-70,90,39,136,336,341,58,-141
-24,68,92,-21,-58,80,24,117,302,302,48,-131
-14,63,78,-24,-46,70,14,102,268,268,39,-126
-14,63,78,-24,-46,70,9,82,239,239,29,-112
-9,58,68,-24,-39,63,0,73,224,214,34,-92
0,53,53,-26,-26,53,-9,53,195,190,34,-78
4,48,43,-26,-19,46,-19,34,165,161,34,-58
4,48,43,-26,-19,46,-24,24,136,141,39,-53
4,43,39,-24,-17,41,-19,14,126,117,34,-34
4,39,34,-21,-14,36,-24,0,112,92,34,-14
9,39,29,-24,-9,34,-34,-9,92,78,29,-9
14,39,24,-26,-4,31,-34,-14,73,58,24,0
14,34,19,-24,-2,26,-48,-14,58,39,24,0
24,34,9,-29,7,21,-53,-29,43,24,24,9
24,34,9,-29,7,21,-53,-39,29,14,24,9
19,34,14,-26,2,24,-58,-43,14,0,24,19
19,34,14,-26,2,24,-53,-39,4,-4,19,24
24,29,4,-26,9,17,-58,-43,0,-9,19,29
24,29,4,-26,9,17,-58,-48,-9,-19,19,34
24,24,0,-24,12,12,-58,-53,-19,-24,19,39
24,19,-4,-21,14,7,-68,-58,-9,-34,19,48
24,19,-4,-21,14,7,-68,-63,-24,-43,19,48
24,19,-4,-21,14,7,-68,-63,-24,-43,19,53
29,19,-9,-24,19,4,-68,-68,-29,-48,19,53
29,29,0,-29,14,14,-68,-78,-34,-63,14,53
29,29,0,-29,14,14,-68,-78,-39,-68,14,53
29,29,0,-29,14,14,-73,-78,-43,-73,14,53
29,24,-4,-26,17,9,-73,-78,-43,-73,14,53
29,24,-4,-26,17,9,-73,-68,-43,-68,9,43
29,24,-4,-26,17,9,-73,-73,-43,-73,9,43
29,19,-9,-24,19,4,-73,-73,-53,-73,9,43
29,19,-9,-24,19,4,-73,-73,-53,-78,9,43
19,19,0,-19,9,9,-63,-82,-53,-78,9,43
19,19,0,-19,9,9,-63,-82,-53,-78,9,43
19,9,-9,-14,14,0,-63,-82,-53,-78,4,43
19,9,-9,-14,14,0,-63,-82,-53,-78,4,43
29,14,-14,-21,21,0,-73,-82,-63,-78,-4,43
29,14,-14,-21,21,0,-68,-82,-63,-78,-4,43
24,14,-9,-19,17,2,-68,-82,-63,-78,-4,43
24,9,-14,-17,19,-2,-68,-82,-63,-78,-4,43
24,19,-4,-21,14,7,-68,-78,-63,-87,-4,43
29,19,-9,-24,19,4,-68,-78,-63,-87,-9,39
29,19,-9,-24,19,4,-68,-78,-63,-87,-9,39
29,14,-14,-21,21,0,-68,-78,-63,-87,-14,39
24,4,-19,-14,21,-7,-53,-68,-53,-87,-14,34
24,4,-19,-14,21,-7,-53,-68,-53,-87,-14,34
24,4,-19,-14,21,-7,-53,-63,-53,-87,-14,34
24,4,-19,-14,21,-7,-53,-63,-53,-92,-14,34
24,0,-24,-12,24,-12,-63,-63,-48,-82,-9,34
24,0,-24,-12,24,-12,-63,-63,-48,-82,-14,34
24,0,-24,-12,24,-12,-63,-58,-48,-82,-14,29
24,0,-24,-12,24,-12,-58,-58,-48,-82,-14,29
19,-9,-29,-4,24,-19,-48,-58,-48,-82,-24,29
19,-14,-34,-2,26,-24,-48,-58,-43,-87,-34,29
19,-14,-34,-2,26,-24,-48,-53,-43,-87,-34,24
24,-14,-39,-4,31,-26,-43,-53,-43,-87,-39,24
24,-14,-39,-4,31,-26,-43,-53,-39,-97,-29,24
19,-14,-34,-2,26,-24,-43,-53,-39,-97,-29,19
19,-14,-34,-2,26,-24,-43,-53,-39,-97,-29,19
14,-14,-29,0,21,-21,-43,-53,-39,-97,-29,19
14,-14,-29,0,21,-21,-43,-39,-39,-87,-34,29
14,-14,-29,0,21,-21,-43,-39,-34,-87,-34,24
14,-14,-29,0,21,-21,-39,-39,-34,-87,-34,24
14,-14,-29,0,21,-21,-39,-34,-34,-87,-34,19
14,-24,-39,4,26,-31,-34,-34,-34,-87,-34,19
14,-29,-43,7,29,-36,-34,-34,-34,-87,-34,14
14,-29,-43,7,29,-36,-34,-34,-34,-87,-39,14
9,-29,-39,9,24,-34,-34,-34,-29,-87,-39,14
0,-39,-39,19,19,-39,-34,-29,-29,-87,-39,14
0,-39,-39,19,19,-39,-34,-29,-29,-87,-43,14
0,-39,-39,19,19,-39,-34,-29,-29,-87,-43,4
0,-39,-39,19,19,-39,-29,-29,-29,-87,-43,4
9,-39,-48,14,29,-43,-29,-29,-29,-82,-43,4
9,-43,-53,17,31,-48,-29,-29,-24,-82,-43,4
9,-43,-53,17,31,-48,-24,-24,-24,-82,-43,9
4,-39,-43,17,24,-41,-24,-24,-19,-78,-43,9
4,-39,-43,17,24,-41,-14,-24,-19,-68,-39,4
4,-39,-43,17,24,-41,-14,-24,-19,-68,-39,4
0,-39,-39,19,19,-39,-14,-24,-19,-68,-39,4
0,-39,-39,19,19,-39,-14,-24,-19,-68,-39,0
0,-48,-48,24,24,-48,-14,-24,-9,-58,-39,0
0,-48,-48,24,24,-48,-14,-24,-9,-53,-43,0
0,-48,-48,24,24,-48,-14,-19,-9,-53,-43,0
0,-48,-48,24,24,-48,-9,-19,-4,-53,-43,0
0,-53,-53,26,26,-53,-9,-29,-14,-58,-34,9
0,-53,-53,26,26,-53,-9,-29,-14,-58,-29,4
0,-53,-53,26,26,-53,-9,-29,-14,-58,-29,4
0,-53,-53,26,26,-53,-9,-29,-14,-58,-29,4
0,-53,-53,26,26,-53,-19,-29,-14,-58,-39,4
-4,-58,-53,31,24,-56,-19,-29,-14,-58,-39,4
-4,-58,-53,31,24,-56,-14,-29,-14,-58,-39,4
-9,-53,-43,31,17,-48,-14,-29,-14,-58,-39,4
0,-63,-63,31,31,-63,-14,-29,-14,-58,-39,0
0,-63,-63,31,31,-63,-14,-29,-14,-58,-39,0
0,-63,-63,31,31,-63,-14,-29,-14,-58,-39,0
0,-63,-63,31,31,-63,-14,-29,-14,-53,-39,0
-9,-53,-43,31,17,-48,-14,-29,-14,-53,-43,0
-9,-53,-43,31,17,-48,-14,-29,-14,-53,-43,0
-9,-53,-43,31,17,-48,-14,-29,-14,-53,-43,0
-9,-53,-43,31,17,-48,-14,-29,-14,-58,-43,-4
-9,-58,-48,34,19,-53,-14,-29,-14,-58,-43,-4
-9,-58,-48,34,19,-53,-14,-29,-14,-58,-43,-4
-9,-58,-48,34,19,-53,-14,-29,-14,-58,-43,-4
-9,-63,-53,36,21,-58,-14,-29,-19,-58,-43,-4
-9,-63,-53,36,21,-58,-14,-29,-19,-58,-43,-4
-9,-63,-53,36,21,-58,-14,-34,-19,-58,-43,-9
-14,-68,-53,41,19,-61,-14,-34,-19,-58,-43,-9
-14,-68,-53,41,19,-61,-14,-34,-24,-58,-43,-4
0,-58,-58,29,29,-58,-4,-34,-24,-63,-43,-4
0,-58,-58,29,29,-58,-4,-34,-24,-63,-48,-9
0,-58,-58,29,29,-58,-4,-34,-24,-63,-48,-9
0,-58,-58,29,29,-58,-4,-34,-24,-63,-48,-9
0,-73,-73,36,36,-73,-4,-29,-29,-68,-48,-9
0,-73,-73,36,36,-73,-4,-29,-29,-68,-48,-9
0,-68,-68,34,34,-68,-4,-29,-29,-68,-48,-9
0,-68,-68,34,34,-68,-4,-29,-29,-73,-48,-9
-9,-68,-58,39,24,-63,-4,-29,-34,-73,-43,-9
-9,-73,-63,41,26,-68,-9,-34,-34,-78,-43,-9
-9,-73,-63,41,26,-68,-9,-34,-34,-78,-43,-9
-9,-73,-63,41,26,-68,-9,-34,-34,-78,-43,-9
-9,-73,-63,41,26,-68,-19,-34,-34,-78,-53,-9
-9,-73,-63,41,26,-68,-19,-34,-43,-78,-53,-9
-9,-73,-63,41,26,-68,-19,-34,-43,-78,-53,-9
-9,-73,-63,41,26,-68,-19,-34,-43,-82,-53,-9
-9,-73,-63,41,26,-68,-9,-34,-43,-82,-53,-9
-9,-73,-63,41,26,-68,-9,-34,-43,-82,-53,-9
-9,-73,-63,41,26,-68,-9,-39,-43,-82,-53,-9
-9,-73,-63,41,26,-68,-9,-39,-43,-82,-58,-9
-9,-73,-63,41,26,-68,-9,-48,-48,-87,-58,-9
-9,-73,-63,41,26,-68,-9,-48,-48,-87,-58,-9
-9,-73,-63,41,26,-68,-9,-48,-48,-87,-58,-9
-9,-73,-63,41,26,-68,-9,-53,-48,-87,-58,-9
-9,-73,-63,41,26,-68,-9,-43,-48,-87,-58,-9
-9,-73,-63,41,26,-68,-9,-43,-53,-92,-58,-9
-9,-68,-58,39,24,-63,-14,-43,-53,-92,-58,-9
-4,-68,-63,36,29,-65,-14,-43,-53,-92,-58,-9
-4,-63,-58,34,26,-61,-14,-43,-53,-82,-48,-4
-4,-63,-58,34,26,-61,-14,-43,-53,-82,-48,-4
-4,-63,-58,34,26,-61,-14,-43,-53,-87,-48,-4
-4,-63,-58,34,26,-61,-14,-43,-53,-87,-48,-4
-4,-73,-68,39,31,-70,-14,-43,-53,-87,-58,-4
-9,-73,-63,41,26,-68,-14,-43,-58,-87,-58,-4
-9,-73,-63,41,26,-68,-14,-48,-58,-87,-58,-9
-4,-73,-68,39,31,-70,-14,-48,-58,-87,-58,-9
-4,-73,-68,39,31,-70,-14,-48,-58,-92,-53,-9
-9,-73,-63,41,26,-68,-14,-48,-58,-92,-53,-9
-9,-73,-63,41,26,-68,-14,-48,-58,-92,-53,-9
-9,-73,-63,41,26,-68,-14,-48,-58,-92,-53,-9
-9,-82,-73,46,31,-78,-14,-58,-63,-92,-63,-9
-9,-82,-73,46,31,-78,-14,-58,-63,-92,-63,-9
-9,-82,-73,46,31,-78,-14,-58,-63,-92,-63,-4
-4,-78,-73,41,34,-75,-14,-58,-63,-92,-63,-4
-4,-78,-73,41,34,-75,-14,-48,-63,-102,-63,-4
-4,-78,-73,41,34,-75,-14,-48,-63,-102,-63,-4
-4,-82,-78,43,36,-80,-14,-48,-63,-102,-63,-4
-4,-82,-78,43,36,-80,-14,-53,-63,-102,-63,-4
-4,-73,-68,39,31,-70,-14,-53,-68,-92,-63,-4
-4,-73,-68,39,31,-70,-14,-53,-68,-97,-63,-4
-4,-73,-68,39,31,-70,-14,-53,-68,-97,-68,-9
-4,-73,-68,39,31,-70,-14,-53,-68,-97,-68,-9
-4,-73,-68,39,31,-70,-19,-53,-68,-97,-58,0
-4,-73,-68,39,31,-70,-19,-53,-68,-97,-58,0
-4,-73,-68,39,31,-70,-14,-53,-68,-97,-58,0
-4,-73,-68,39,31,-70,-14,-53,-68,-97,-58,0
-4,-78,-73,41,34,-75,-24,-53,-68,-97,-58,-9
-4,-78,-73,41,34,-75,-29,-53,-68,-102,-58,-9
-4,-78,-73,41,34,-75,-29,-53,-68,-102,-58,-9
-4,-78,-73,41,34,-75,-29,-53,-68,-102,-58,-9
-4,-73,-68,39,31,-70,-19,-53,-73,-102,-68,-9
-4,-73,-68,39,31,-70,-19,-58,-73,-102,-68,-9
-4,-73,-68,39,31,-70,-19,-58,-73,-102,-73,-9
-4,-73,-68,39,31,-70,-19,-58,-73,-102,-73,-9
-4,-73,-68,39,31,-70,-19,-53,-73,-112,-68,-9
-4,-68,-63,36,29,-65,-19,-53,-73,-112,-68,-9
-4,-68,-63,36,29,-65,-19,-53,-73,-112,-68,-9
-4,-68,-63,36,29,-65,-19,-53,-73,-112,-68,-9
-4,-68,-63,36,29,-65,-19,-43,-63,-102,-58,0
0,-68,-68,34,34,-68,-19,-48,-68,-107,-68,-9
-9,-78,-68,43,29,-73,-19,-58,-68,-107,-68,-9
-9,-78,-68,43,29,-73,-19,-58,-68,-107,-68,-9
-9,-78,-68,43,29,-73,-19,-58,-68,-107,-68,-9
-9,-78,-68,43,29,-73,-19,-58,-68,-107,-68,-9
0,-78,-78,39,39,-78,-19,-48,-68,-97,-58,-9
4,-82,-87,39,46,-85,-19,-48,-68,-97,-58,-9
4,-82,-87,39,46,-85,-29,-48,-68,-97,-58,-9
14,-73,-87,29,51,-80,-34,-43,-68,-97,-53,-9
24,-48,-73,12,48,-61,-39,-43,-68,-87,-58,4
29,-39,-68,4,48,-53,-39,-43,-53,-78,-48,14
29,-29,-58,0,43,-43,-39,-39,-43,-68,-43,19
34,-9,-43,-12,39,-26,-39,-34,-39,-58,-34,24
34,9,-24,-21,29,-7,-48,-29,-14,-58,-24,29
34,34,0,-34,17,17,-48,-19,-4,-43,-14,29
34,53,19,-43,7,36,-43,-19,4,-34,-4,43
34,73,39,-53,-2,56,-43,-14,14,-34,0,48
34,87,53,-61,-9,70,-39,-14,24,-29,-4,58
34,87,53,-61,-9,70,-43,-9,24,-24,0,58
43,82,39,-63,2,61,-58,-4,24,-19,0,58
48,82,34,-65,7,58,-78,-4,24,-14,4,58
53,82,29,-68,12,56,-107,-14,43,-9,14,68
58,87,29,-73,14,58,-122,-14,53,-4,24,78
63,97,34,-80,14,65,-131,-14,58,0,29,82
68,112,43,-90,12,78,-136,-4,87,19,43,87
92,156,63,-124,14,109,-156,4,102,48,53,102
102,195,92,-148,4,143,-170,4,126,78,82,126
102,214,112,-158,-4,163,-185,-19,126,87,102,141
107,224,117,-165,-4,170,-200,-48,122,87,102,151
102,219,117,-161,-7,168,-200,-68,97,87,117,156
112,224,112,-168,0,168,-209,-82,87,82,122,161
122,224,102,-173,9,163,-214,-92,78,73,122,165
122,219,97,-170,12,158,-224,-107,68,73,117,165
141,214,73,-178,34,143,-224,-102,68,73,117,165
151,214,63,-183,43,139,-229,-102,68,73,126,175
151,219,68,-185,41,143,-229,-102,68,78,131,180
161,219,58,-190,51,139,-229,-97,63,78,131,185
151,209,58,-180,46,134,-229,-97,63,78,122,185
151,195,43,-173,53,119,-214,-92,63,78,126,185
141,195,53,-168,43,124,-214,-92,53,68,126,185
136,190,53,-163,41,122,-204,-97,39,58,117,180
141,175,34,-158,53,104,-200,-92,24,48,107,175
141,161,19,-151,61,90,-195,-92,14,39,97,170
131,156,24,-143,53,90,-180,-92,4,29,92,165
126,146,19,-136,53,82,-175,-87,4,29,92,161
122,146,24,-134,48,85,-146,-78,19,29,102,165
112,126,14,-119,48,70,-126,-63,19,29,102,161
97,97,0,-97,48,48,-92,-48,19,24,82,136
78,58,-19,-68,48,19,-68,-43,4,-4,53,112
63,19,-43,-41,53,-12,-48,-34,-4,-29,24,73
48,9,-39,-29,43,-14,-34,-29,-14,-48,9,58
24,-9,-34,-7,29,-21,-14,-29,-14,-53,0,43
14,-29,-43,7,29,-36,-4,-29,-29,-68,-24,24
-9,-39,-29,24,9,-34,0,-39,-43,-87,-53,9
-24,-58,-34,41,4,-46,0,-48,-58,-102,-63,-4
-24,-63,-39,43,7,-51,0,-53,-63,-107,-73,-4
-24,-68,-43,46,9,-56,0,-53,-63,-112,-78,-14
-29,-78,-48,53,9,-63,4,-53,-68,-112,-78,-24
-29,-82,-53,56,12,-68,9,-53,-68,-117,-82,-29
-29,-87,-58,58,14,-73,9,-53,-78,-122,-87,-29
-29,-87,-58,58,14,-73,9,-58,-82,-136,-92,-34
-19,-78,-58,48,19,-68,9,-73,-87,-136,-107,-48
-24,-78,-53,51,14,-65,9,-73,-87,-136,-107,-48
-24,-78,-53,51,14,-65,9,-73,-87,-136,-107,-48
-24,-82,-58,53,17,-70,9,-73,-87,-136,-112,-48
-24,-82,-58,53,17,-70,9,-73,-97,-136,-102,-39
-24,-82,-58,53,17,-70,14,-68,-97,-136,-102,-39
-24,-87,-63,56,19,-75,14,-68,-102,-136,-102,-39
-29,-87,-58,58,14,-73,14,-68,-102,-141,-102,-39
-39,-97,-58,68,9,-78,14,-58,-92,-141,-112,-39
-39,-97,-58,68,9,-78,19,-58,-92,-141,-112,-43
-39,-97,-58,68,9,-78,19,-58,-97,-141,-117,-43
-39,-97,-58,68,9,-78,19,-58,-97,-146,-117,-43
-39,-87,-48,63,4,-68,4,-68,-97,-146,-122,-53
-39,-92,-53,65,7,-73,4,-68,-97,-146,-122,-53
-39,-92,-53,65,7,-73,9,-68,-97,-146,-122,-58
-43,-92,-48,68,2,-70,9,-68,-97,-146,-122,-58
-34,-92,-58,63,12,-75,19,-63,-97,-146,-122,-48
-34,-92,-58,63,12,-75,19,-63,-97,-146,-122,-48
-29,-92,-63,61,17,-78,19,-63,-97,-146,-117,-48
-29,-92,-63,61,17,-78,19,-63,-92,-146,-117,-43
-19,-92,-73,56,26,-82,24,-53,-92,-131,-117,-43
-24,-87,-63,56,19,-75,24,-53,-92,-131,-117,-43
-24,-87,-63,56,19,-75,24,-53,-87,-131,-112,-43
-19,-87,-68,53,24,-78,29,-48,-87,-131,-112,-43
-19,-87,-68,53,24,-78,29,-48,-73,-126,-112,-43
-29,-87,-58,58,14,-73,19,-58,-82,-131,-107,-43
-24,-82,-58,53,17,-70,19,-58,-82,-126,-102,-43
-24,-82,-58,53,17,-70,19,-58,-73,-112,-87,-24
-14,-73,-58,43,21,-65,19,-43,-58,-87,-68,-14
-9,-82,-73,46,31,-78,29,4,-19,-43,-58,-24
-19,-82,-63,51,21,-73,43,68,63,34,-48,-63
-19,-63,-43,41,12,-53,43,122,195,156,-9,-63
0,-9,-9,4,4,-9,43,170,361,331,68,-29
14,48,34,-31,-9,41,43,234,522,517,161,4
19,63,43,-41,-12,53,29,214,531,619,234,39
29,97,68,-63,-19,82,-19,78,322,580,302,112
43,146,102,-95,-29,124,-126,-214,-73,444,414,229
58,204,146,-131,-43,175,-302,-658,-658,214,527,375
73,239,165,-156,-46,202,-497,-1151,-1361,-117,605,507
97,263,165,-180,-34,214,-688,-1586,-1981,-434,697,649
161,326,165,-244,-2,246,-893,-1986,-2464,-600,932,863
253,414,161,-334,46,287,-1102,-2357,-2884,-663,1293,1161
375,478,102,-427,136,290,-1307,-2659,-3215,-668,1722,1493
502,531,29,-517,236,280,-1517,-2879,-3474,-614,2191,1825
624,629,4,-627,309,317,-1737,-3123,-3703,-561,2640,2181
736,712,-24,-724,380,344,-1932,-3333,-3860,-492,3103,2532
824,771,-53,-797,439,358,-2074,-3469,-3943,-444,3435,2796
868,780,-87,-824,478,346,-2156,-3577,-4026,-614,3347,2849
893,702,-190,-797,541,256,-2132,-3586,-4065,-980,2864,2698
878,541,-336,-710,607,102,-2005,-3445,-3991,-1346,2186,2391
780,351,-429,-566,605,-39,-1820,-3269,-3869,-1790,1288,1903
580,204,-375,-392,478,-85,-1600,-3128,-3762,-2361,156,1317
429,63,-366,-246,397,-151,-1424,-2957,-3606,-2830,-766,873
400,-136,-536,-131,468,-336,-1268,-2654,-3289,-2888,-1122,619
390,-307,-697,-41,544,-502,-1098,-2239,-2820,-2557,-1088,468
366,-317,-683,-24,524,-500,-946,-1859,-2318,-2113,-946,419
366,-253,-619,-56,492,-436,-839,-1542,-1908,-1737,-766,429
370,-248,-619,-61,495,-434,-717,-1254,-1566,-1439,-610,409
346,-258,-605,-43,475,-431,-561,-976,-1220,-1127,-458,356
302,-229,-531,-36,417,-380,-405,-702,-868,-824,-312,317
239,-161,-400,-39,319,-280,-278,-488,-575,-580,-209,263
180,-102,-283,-39,231,-192,-180,-336,-390,-414,-165,195
131,-102,-234,-14,183,-168,-97,-214,-253,-292,-131,122
78,-97,-175,9,126,-136,-24,-102,-136,-200,-102,58
24,-78,-102,26,63,-90,29,-29,-48,-126,-92,14
0,-68,-68,34,34,-68,68,29,14,-68,-82,-29
-29,-82,-53,56,12,-68,97,68,68,-29,-73,-78
-43,-92,-48,68,2,-70,131,107,112,-9,-73,-107
-53,-107,-53,80,0,-80,151,126,141,-4,-97,-122
-48,-112,-63,80,7,-87,165,146,156,4,-102,-131
-68,-112,-43,90,-12,-78,175,161,151,-4,-112,-131
-78,-117,-39,97,-19,-78,190,185,165,0,-122,-131
-87,-122,-34,104,-26,-78,190,185,170,4,-126,-136
-87,-122,-34,104,-26,-78,190,185,170,4,-131,-141
-82,-122,-39,102,-21,-80,190,185,180,4,-131,-146
-82,-122,-39,102,-21,-80,185,185,180,4,-136,-151
-82,-122,-39,102,-21,-80,185,185,180,4,-141,-156
-78,-122,-43,100,-17,-82,190,195,190,4,-141,-161
-68,-112,-43,90,-12,-78,200,200,195,4,-141,-161
-78,-112,-34,95,-21,-73,204,209,204,4,-141,-161
-82,-112,-29,97,-26,-70,209,214,204,9,-141,-156
-82,-112,-29,97,-26,-70,214,219,204,9,-141,-156
-78,-112,-34,95,-21,-73,214,219,209,14,-156,-161
-78,-112,-34,95,-21,-73,214,224,209,14,-156,-161
-78,-112,-34,95,-21,-73,214,224,209,14,-156,-161
-78,-112,-34,95,-21,-73,214,229,214,14,-156,-165
-78,-122,-43,100,-17,-82,229,229,214,19,-146,-170
-78,-122,-43,100,-17,-82,229,239,214,19,-146,-170
-78,-122,-43,100,-17,-82,229,239,219,19,-151,-170
-78,-122,-43,100,-17,-82,229,239,224,24,-151,-170
-82,-112,-29,97,-26,-70,234,244,224,24,-151,-170
-82,-112,-29,97,-26,-70,234,244,229,24,-156,-175
-82,-107,-24,95,-29,-65,234,248,229,24,-156,-175
-82,-107,-24,95,-29,-65,234,248,229,24,-156,-175
-92,-107,-14,100,-39,-61,234,248,234,24,-156,-180
-92,-112,-19,102,-36,-65,239,253,234,29,-156,-180
-92,-112,-19,102,-36,-65,239,258,239,29,-156,-180
-92,-112,-19,102,-36,-65,239,263,239,29,-161,-185
-92,-117,-24,104,-34,-70,239,268,244,29,-161,-185
-97,-117,-19,107,-39,-68,239,268,248,34,-161,-190
-97,-117,-19,107,-39,-68,244,268,248,34,-161,-190
-97,-117,-19,107,-39,-68,244,268,248,34,-165,-190
-87,-107,-19,97,-34,-63,234,273,253,48,-165,-190
-87,-107,-19,97,-34,-63,234,278,253,48,-165,-200
-87,-107,-19,97,-34,-63,239,287,263,48,-165,-200
-87,-107,-19,97,-34,-63,239,287,263,48,-175,-200
-97,-107,-9,102,-43,-58,248,297,273,48,-175,-204
-102,-102,0,102,-51,-51,248,297,278,53,-175,-204
-102,-102,0,102,-51,-51,253,302,283,53,-175,-209
-102,-102,0,102,-51,-51,253,302,283,58,-175,-214
-107,-102,4,104,-56,-48,244,297,273,48,-180,-214
-107,-102,4,104,-56,-48,248,307,283,48,-180,-214
-107,-102,4,104,-56,-48,248,312,287,53,-180,-214
-107,-102,4,104,-56,-48,253,312,292,58,-180,-214
-107,-102,4,104,-56,-48,253,317,297,58,-185,-219
-107,-107,0,107,-53,-53,253,322,302,58,-185,-219
-112,-107,4,109,-58,-51,258,326,307,63,-185,-219
-112,-102,9,107,-61,-46,258,331,312,63,-185,-229
-112,-102,9,107,-61,-46,268,336,312,73,-190,-239
-112,-102,9,107,-61,-46,268,341,322,73,-190,-239
-112,-102,9,107,-61,-46,273,346,326,73,-195,-239
-117,-102,14,109,-65,-43,273,351,331,82,-195,-244
-117,-112,4,114,-61,-53,278,370,336,82,-195,-244
-117,-112,4,114,-61,-53,278,375,341,87,-195,-244
-117,-107,9,112,-63,-48,278,380,346,92,-195,-248
-117,-107,9,112,-63,-48,283,385,351,92,-195,-248
-117,-97,19,107,-68,-39,287,390,361,97,-195,-248
-117,-97,19,107,-68,-39,287,400,366,102,-200,-248
-122,-97,24,109,-73,-36,287,405,370,107,-200,-253
-122,-97,24,109,-73,-36,292,409,385,112,-200,-253
-122,-97,24,109,-73,-36,302,409,390,117,-200,-258
-122,-97,24,109,-73,-36,302,419,395,117,-200,-258
-126,-97,29,112,-78,-34,302,429,400,126,-200,-258
-126,-97,29,112,-78,-34,307,429,405,126,-204,-268
-126,-102,24,114,-75,-39,307,453,414,141,-204,-268
-126,-102,24,114,-75,-39,307,463,424,146,-204,-268
-126,-102,24,114,-75,-39,312,478,434,151,-204,-268
-126,-102,24,114,-75,-39,317,478,444,156,-204,-278
-126,-92,34,109,-80,-29,317,488,463,165,-204,-278
-126,-92,34,109,-80,-29,326,502,463,170,-204,-278
-131,-92,39,112,-85,-26,331,512,478,175,-204,-283
-131,-87,43,109,-87,-21,336,522,483,180,-204,-283
-122,-87,34,104,-78,-26,336,536,497,180,-204,-287
-122,-87,34,104,-78,-26,336,546,507,190,-204,-287
-122,-87,34,104,-78,-26,346,556,522,195,-204,-287
-122,-87,34,104,-78,-26,346,566,531,200,-204,-297
-126,-92,34,109,-80,-29,346,580,541,209,-204,-302
-126,-92,34,109,-80,-29,356,590,551,214,-200,-302
-126,-92,34,109,-80,-29,356,610,561,229,-200,-302
-126,-87,39,107,-82,-24,361,614,575,239,-200,-302
-136,-87,48,112,-92,-19,366,629,585,248,-209,-307
-136,-78,58,107,-97,-9,366,644,595,258,-204,-312
-136,-78,58,107,-97,-9,370,658,614,268,-204,-312
-136,-78,58,107,-97,-9,375,673,629,273,-204,-312
-136,-68,68,102,-102,0,380,688,639,297,-190,-312
-136,-63,73,100,-104,4,380,697,653,307,-185,-312
-136,-63,73,100,-104,4,380,717,663,317,-185,-322
-136,-63,73,100,-104,4,390,732,673,326,-180,-322
-136,-53,82,95,-109,14,395,746,702,346,-180,-322
-141,-53,87,97,-114,17,400,761,722,361,-170,-322
-141,-48,92,95,-117,21,405,775,736,370,-165,-322
-141,-43,97,92,-119,26,409,790,751,385,-161,-322
-141,-48,92,95,-117,21,419,800,756,405,-156,-322
-141,-39,102,90,-122,31,419,814,771,419,-146,-326
-141,-34,107,87,-124,36,429,819,790,434,-141,-326
-141,-29,112,85,-126,41,429,834,805,453,-136,-326
-151,-24,126,87,-139,51,434,854,824,458,-131,-336
-151,-19,131,85,-141,56,434,863,839,483,-126,-336
-156,-14,141,85,-148,63,434,883,858,497,-117,-336
-156,-14,141,85,-148,63,434,893,873,517,-102,-341
-146,-19,126,82,-136,53,429,893,888,551,-102,-331
-146,-9,136,78,-141,63,434,902,907,570,-92,-331
-146,-4,141,75,-143,68,434,902,922,595,-82,-331
-146,0,146,73,-146,73,434,907,932,610,-73,-331
-146,14,161,65,-153,87,444,922,946,629,-48,-326
-146,19,165,63,-156,92,444,922,966,649,-39,-326
-146,24,170,61,-158,97,439,922,985,668,-29,-326
-151,34,185,58,-168,109,439,922,995,697,-14,-322
-151,39,190,56,-170,114,434,922,1000,727,0,-317
-151,43,195,53,-173,119,429,907,1010,751,19,-317
-151,48,200,51,-175,124,424,897,1019,771,34,-317
-151,53,204,48,-178,129,419,883,1019,795,53,-317
-151,48,200,51,-175,124,414,873,1024,819,73,-307
-151,48,200,51,-175,124,400,863,1029,834,87,-302
-151,58,209,46,-180,134,390,844,1029,854,102,-297
-146,58,204,43,-175,131,380,824,1029,878,117,-292
-146,68,214,39,-180,141,370,805,1029,897,122,-278
-146,68,214,39,-180,141,361,785,1024,907,141,-273
-146,73,219,36,-183,146,351,761,1010,912,161,-268
-141,78,219,31,-180,148,341,741,1000,922,175,-258
-131,78,209,26,-170,143,312,717,985,912,190,-263
-126,78,204,24,-165,141,307,692,966,917,195,-253
-126,82,209,21,-168,146,287,663,946,917,204,-248
-122,82,204,19,-163,143,273,634,932,907,209,-244
-131,82,214,24,-173,148,258,605,907,897,214,-234
-126,82,209,21,-168,146,248,575,878,883,214,-229
-122,87,209,17,-165,148,234,551,854,863,214,-224
-122,92,214,14,-168,153,229,522,819,844,214,-214
-107,82,190,12,-148,136,209,483,780,819,209,-209
-102,82,185,9,-143,134,195,453,746,790,204,-204
-97,78,175,9,-136,126,180,424,717,756,195,-200
-87,73,161,7,-124,117,165,395,683,717,180,-195
-82,78,161,2,-122,119,151,370,644,688,180,-190
-82,73,156,4,-119,114,141,346,610,653,161,-185
-78,73,151,2,-114,112,126,326,575,619,156,-175
-68,68,136,0,-102,102,112,297,541,575,136,-175
-73,58,131,7,-102,95,97,263,507,527,122,-165
-68,53,122,7,-95,87,87,239,468,488,107,-151
-58,53,112,2,-85,82,68,214,429,444,92,-151
-53,48,102,2,-78,75,58,190,390,405,87,-136
-43,43,87,0,-65,65,48,175,356,380,87,-122
-34,39,73,-2,-53,56,34,156,322,341,78,-112
-24,34,58,-4,-41,46,24,141,287,307,68,-107
-24,34,58,-4,-41,46,19,122,258,278,58,-92
-9,39,48,-14,-29,43,9,102,234,244,58,-82
0,34,34,-17,-17,34,0,82,204,219,53,-68
4,29,24,-17,-9,26,-9,63,175,190,48,-48
4,29,24,-17,-9,26,-14,53,146,170,48,-43
4,14,9,-9,-2,12,-29,34,126,146,43,-34
4,9,4,-7,0,7,-34,19,112,122,43,-14
9,9,0,-9,4,4,-43,9,92,107,39,-9
14,9,-4,-12,9,2,-43,4,73,87,34,0
14,14,0,-14,7,7,-48,-4,58,68,34,9
24,14,-9,-19,17,2,-53,-19,43,53,34,19
24,14,-9,-19,17,2,-53,-29,29,43,34,19
19,14,-4,-17,12,4,-58,-34,14,29,34,29
29,14,-14,-21,21,0,-53,-39,-4,14,29,24
34,9,-24,-21,29,-7,-58,-43,-9,9,29,29
34,9,-24,-21,29,-7,-58,-48,-19,0,29,34
34,4,-29,-19,31,-12,-58,-53,-29,-4,29,39
34,0,-34,-17,34,-17,-68,-58,-19,-14,29,48
34,0,-34,-17,34,-17,-68,-63,-34,-24,29,48
34,0,-34,-17,34,-17,-68,-63,-34,-24,29,53
39,0,-39,-19,39,-19,-68,-68,-39,-29,29,53
39,9,-29,-24,34,-9,-58,-68,-43,-34,24,63
39,9,-29,-24,34,-9,-58,-68,-48,-39,24,63
39,9,-29,-24,34,-9,-63,-68,-53,-43,24,63
39,4,-34,-21,36,-14,-63,-68,-53,-43,24,63
39,4,-34,-21,36,-14,-63,-68,-53,-48,19,63
39,4,-34,-21,36,-14,-63,-73,-53,-53,19,63
39,0,-39,-19,39,-19,-63,-73,-63,-53,19,63
39,0,-39,-19,39,-19,-63,-73,-63,-58,19,63
29,0,-29,-14,29,-14,-63,-73,-63,-58,19,63
29,0,-29,-14,29,-14,-63,-73,-63,-58,19,63
29,-9,-39,-9,34,-24,-63,-73,-63,-58,14,63
29,-9,-39,-9,34,-24,-63,-73,-63,-58,14,63
29,-4,-34,-12,31,-19,-63,-73,-63,-58,14,53
29,-4,-34,-12,31,-19,-58,-73,-63,-58,14,53
24,-4,-29,-9,26,-17,-58,-73,-63,-58,14,53
24,-9,-34,-7,29,-21,-58,-73,-63,-58,14,53
24,-9,-34,-7,29,-21,-68,-68,-63,-58,14,53
29,-9,-39,-9,34,-24,-68,-68,-63,-58,9,48
29,-9,-39,-9,34,-24,-68,-68,-63,-58,9,48
29,-14,-43,-7,36,-29,-68,-68,-63,-58,4,48
34,-14,-48,-9,41,-31,-53,-68,-53,-58,4,53
34,-14,-48,-9,41,-31,-53,-68,-53,-58,4,53
34,-14,-48,-9,41,-31,-53,-63,-53,-58,4,53
34,-14,-48,-9,41,-31,-53,-63,-53,-63,4,53
34,-9,-43,-12,39,-26,-53,-63,-48,-63,0,53
34,-9,-43,-12,39,-26,-53,-63,-48,-63,-4,53
34,-9,-43,-12,39,-26,-53,-58,-48,-63,-4,48
34,-9,-43,-12,39,-26,-48,-58,-48,-63,-4,48
39,-9,-48,-14,43,-29,-48,-58,-58,-63,-4,48
39,-14,-53,-12,46,-34,-48,-58,-53,-68,-14,48
39,-14,-53,-12,46,-34,-48,-53,-53,-68,-14,43
43,-14,-58,-14,51,-36,-43,-53,-53,-68,-19,43
34,-24,-58,-4,46,-41,-53,-43,-58,-78,-19,43
29,-24,-53,-2,41,-39,-53,-43,-58,-78,-19,39
29,-24,-53,-2,41,-39,-53,-43,-58,-78,-19,39
24,-24,-48,0,36,-36,-53,-43,-58,-78,-19,39
14,-24,-39,4,26,-31,-43,-48,-48,-68,-24,39
14,-24,-39,4,26,-31,-43,-48,-43,-68,-24,34
14,-24,-39,4,26,-31,-39,-48,-43,-68,-24,34
14,-24,-39,4,26,-31,-39,-43,-43,-68,-24,29
24,-24,-48,0,36,-36,-34,-43,-43,-68,-24,19
24,-29,-53,2,39,-41,-34,-43,-43,-68,-24,14
24,-29,-53,2,39,-41,-34,-43,-43,-68,-29,14
19,-29,-48,4,34,-39,-34,-43,-39,-68,-29,14
19,-29,-48,4,34,-39,-34,-39,-39,-68,-29,24
19,-29,-48,4,34,-39,-34,-39,-39,-68,-34,24
19,-29,-48,4,34,-39,-34,-39,-39,-68,-34,14
19,-29,-48,4,34,-39,-29,-39,-39,-68,-34,14
19,-29,-48,4,34,-39,-29,-39,-39,-73,-34,14
19,-34,-53,7,36,-43,-29,-39,-34,-73,-34,14
19,-34,-53,7,36,-43,-24,-34,-34,-73,-34,19
14,-29,-43,7,29,-36,-24,-34,-29,-68,-34,19
14,-29,-43,7,29,-36,-24,-34,-29,-68,-39,14
14,-29,-43,7,29,-36,-24,-34,-29,-68,-39,14
9,-29,-39,9,24,-34,-24,-34,-29,-68,-39,14
9,-29,-39,9,24,-34,-24,-34,-29,-68,-39,9
9,-39,-48,14,29,-43,-24,-34,-19,-58,-39,9
9,-39,-48,14,29,-43,-24,-34,-19,-53,-43,9
9,-39,-48,14,29,-43,-24,-29,-19,-53,-43,9
9,-39,-48,14,29,-43,-19,-29,-14,-53,-43,9
9,-34,-43,12,26,-39,-19,-29,-24,-48,-43,9
9,-34,-43,12,26,-39,-19,-29,-24,-48,-39,4
9,-34,-43,12,26,-39,-19,-29,-24,-48,-39,4
9,-34,-43,12,26,-39,-19,-29,-24,-48,-39,4
0,-34,-34,17,17,-34,-19,-29,-24,-39,-39,4
-4,-39,-34,21,14,-36,-19,-29,-24,-39,-39,4
-4,-39,-34,21,14,-36,-14,-29,-24,-39,-39,4
-9,-34,-24,21,7,-29,-14,-29,-24,-39,-39,4
0,-43,-43,21,21,-43,-14,-29,-14,-48,-39,0
0,-43,-43,21,21,-43,-14,-29,-14,-48,-39,0
0,-43,-43,21,21,-43,-14,-29,-14,-48,-39,0
0,-43,-43,21,21,-43,-14,-29,-14,-43,-39,0
0,-43,-43,21,21,-43,-14,-19,-14,-43,-43,0
0,-43,-43,21,21,-43,-14,-19,-14,-43,-43,0
0,-43,-43,21,21,-43,-14,-19,-14,-43,-43,0
0,-43,-43,21,21,-43,-14,-19,-14,-48,-43,-4
-9,-39,-29,24,9,-34,-14,-29,-24,-48,-43,-4
-9,-39,-29,24,9,-34,-14,-29,-24,-48,-43,-4
-9,-39,-29,24,9,-34,-14,-29,-24,-48,-43,-4
-9,-43,-34,26,12,-39,-14,-29,-29,-48,-43,-4
-9,-43,-34,26,12,-39,-14,-29,-29,-48,-43,-4
-9,-43,-34,26,12,-39,-14,-34,-29,-48,-43,-9
-14,-48,-34,31,9,-41,-14,-34,-29,-48,-43,-9
-14,-48,-34,31,9,-41,-14,-34,-34,-48,-43,-4
-9,-48,-39,29,14,-43,-14,-34,-34,-63,-43,-4
-9,-48,-39,29,14,-43,-14,-34,-34,-63,-48,-9
-9,-48,-39,29,14,-43,-14,-34,-34,-63,-48,-9
-9,-48,-39,29,14,-43,-14,-34,-34,-63,-48,-9
-9,-53,-43,31,17,-48,-14,-29,-39,-58,-48,-9
-9,-53,-43,31,17,-48,-14,-29,-39,-58,-48,-9
-9,-48,-39,29,14,-43,-14,-29,-39,-58,-48,-9
-9,-48,-39,29,14,-43,-14,-29,-39,-63,-48,-9
0,-39,-39,19,19,-39,-4,-39,-43,-63,-53,-9
0,-43,-43,21,21,-43,-9,-43,-43,-68,-53,-9
0,-43,-43,21,21,-43,-9,-43,-43,-68,-53,-9
0,-43,-43,21,21,-43,-9,-43,-43,-68,-53,-9
0,-43,-43,21,21,-43,-19,-43,-34,-68,-53,-9
0,-43,-43,21,21,-43,-19,-43,-43,-68,-53,-9
0,-43,-43,21,21,-43,-19,-43,-43,-68,-53,-9
0,-43,-43,21,21,-43,-19,-43,-43,-73,-53,-9
0,-43,-43,21,21,-43,-19,-43,-43,-73,-53,-9
0,-43,-43,21,21,-43,-19,-43,-43,-73,-53,-9
0,-43,-43,21,21,-43,-19,-48,-43,-73,-53,-9
0,-43,-43,21,21,-43,-19,-48,-43,-73,-58,-9
-9,-53,-43,31,17,-48,-19,-39,-58,-78,-48,0
-9,-53,-43,31,17,-48,-19,-39,-58,-78,-48,0
-9,-53,-43,31,17,-48,-19,-39,-58,-78,-48,0
-9,-53,-43,31,17,-48,-19,-43,-58,-78,-48,0
-9,-53,-43,31,17,-48,-29,-43,-58,-78,-58,-9
-9,-53,-43,31,17,-48,-29,-43,-63,-82,-58,-9
-9,-48,-39,29,14,-43,-34,-43,-63,-82,-58,-9
-4,-48,-43,26,19,-46,-34,-43,-63,-82,-58,-9
-4,-53,-48,29,21,-51,-24,-43,-63,-82,-58,-4
-4,-53,-48,29,21,-51,-24,-43,-63,-82,-58,-4
-4,-53,-48,29,21,-51,-24,-43,-63,-87,-58,-4
-4,-53,-48,29,21,-51,-24,-43,-63,-87,-58,-4
-4,-53,-48,29,21,-51,-24,-43,-63,-87,-58,-4
-9,-53,-43,31,17,-48,-24,-43,-68,-87,-58,-4
-9,-53,-43,31,17,-48,-24,-48,-68,-87,-58,-9
-4,-53,-48,29,21,-51,-24,-48,-68,-87,-58,-9
-4,-53,-48,29,21,-51,-24,-58,-68,-92,-53,0
-9,-53,-43,31,17,-48,-24,-58,-68,-92,-53,0
-9,-53,-43,31,17,-48,-24,-58,-68,-92,-53,0
-9,-53,-43,31,17,-48,-24,-58,-68,-92,-53,0
0,-43,-43,21,21,-43,-24,-58,-63,-92,-53,-9
0,-43,-43,21,21,-43,-24,-58,-63,-92,-53,-9
0,-43,-43,21,21,-43,-24,-58,-63,-92,-53,-4
4,-39,-43,17,24,-41,-24,-58,-63,-92,-53,-4
4,-48,-53,21,29,-51,-24,-58,-73,-102,-53,-4
4,-48,-53,21,29,-51,-24,-58,-73,-102,-53,-4
4,-53,-58,24,31,-56,-24,-58,-73,-102,-53,-4
4,-53,-58,24,31,-56,-24,-63,-73,-102,-53,-4
-4,-43,-39,24,17,-41,-34,-53,-68,-92,-53,-4
-4,-43,-39,24,17,-41,-34,-53,-68,-97,-53,-4
-4,-43,-39,24,17,-41,-34,-53,-68,-97,-58,-9
-4,-43,-39,24,17,-41,-34,-53,-68,-97,-58,-9
-4,-43,-39,24,17,-41,-29,-53,-78,-97,-68,-9
-4,-43,-39,24,17,-41,-29,-53,-78,-97,-68,-9
-4,-43,-39,24,17,-41,-24,-53,-78,-97,-68,-9
-4,-43,-39,24,17,-41,-24,-53,-78,-97,-68,-9
-4,-48,-43,26,19,-46,-24,-53,-78,-97,-68,-9
-4,-48,-43,26,19,-46,-29,-53,-78,-102,-68,-9
-4,-48,-43,26,19,-46,-29,-53,-78,-102,-68,-9
-4,-48,-43,26,19,-46,-29,-53,-78,-102,-68,-9
-4,-53,-48,29,21,-51,-29,-53,-73,-102,-68,-9
-4,-53,-48,29,21,-51,-29,-58,-73,-102,-68,-9
-4,-53,-48,29,21,-51,-29,-58,-73,-102,-73,-9
-4,-53,-48,29,21,-51,-29,-58,-73,-102,-73,-9
-4,-43,-39,24,17,-41,-29,-63,-82,-102,-68,-9
-4,-39,-34,21,14,-36,-29,-63,-82,-102,-68,-9
-4,-39,-34,21,14,-36,-29,-63,-82,-102,-68,-9
-4,-39,-34,21,14,-36,-29,-63,-82,-102,-68,-9
-4,-43,-39,24,17,-41,-29,-53,-82,-102,-68,-9
-4,-48,-43,26,19,-46,-29,-53,-78,-102,-68,-9
-4,-48,-43,26,19,-46,-29,-53,-78,-102,-68,-9
-4,-53,-48,29,21,-51,-29,-53,-78,-102,-68,-9
-4,-53,-48,29,21,-51,-39,-63,-82,-102,-78,-19
-4,-53,-48,29,21,-51,-39,-63,-82,-102,-78,-19
-4,-48,-43,26,19,-46,-39,-63,-78,-102,-78,-19
-4,-43,-39,24,17,-41,-43,-63,-73,-102,-78,-19
-9,-43,-34,26,12,-39,-34,-68,-73,-102,-68,-9
0,-39,-39,19,19,-39,-39,-68,-78,-107,-68,-9
-9,-48,-39,29,14,-43,-29,-58,-78,-107,-68,-9
-9,-48,-39,29,14,-43,-29,-58,-78,-107,-68,-9
-9,-48,-39,29,14,-43,-29,-58,-78,-107,-68,-9
-9,-48,-39,29,14,-43,-29,-58,-78,-107,-68,-9
-9,-48,-39,29,14,-43,-29,-58,-78,-97,-68,-9
-4,-53,-48,29,21,-51,-29,-58,-78,-97,-68,-9
-4,-53,-48,29,21,-51,-39,-58,-78,-97,-68,-9
4,-43,-48,19,26,-46,-43,-53,-78,-97,-63,-9
14,-39,-53,12,34,-46,-58,-43,-58,-97,-58,-14
19,-29,-48,4,34,-39,-58,-43,-43,-87,-48,-4
19,-19,-39,0,29,-29,-58,-39,-34,-78,-43,0
24,0,-24,-12,24,-12,-58,-34,-29,-68,-34,4
34,29,-4,-31,19,12,-48,-29,-24,-58,-24,29
34,53,19,-43,7,36,-48,-19,-14,-43,-14,29
34,73,39,-53,-2,56,-43,-19,-4,-34,-4,43
34,92,58,-63,-12,75,-43,-14,4,-34,0,48
34,97,63,-65,-14,80,-48,-14,24,-29,-4,48
34,97,63,-65,-14,80,-53,-9,24,-24,0,48
43,92,48,-68,-2,70,-68,-4,24,-19,0,48
48,92,43,-70,2,68,-87,-4,24,-14,4,48
53,102,48,-78,2,75,-107,-4,24,0,4,58
58,107,48,-82,4,78,-122,-4,34,4,14,68
63,117,53,-90,4,85,-131,-4,39,9,19,73
68,131,63,-100,2,97,-136,4,68,29,34,78
92,156,63,-124,14,109,-156,24,102,48,63,102
102,195,92,-148,4,143,-170,24,126,78,92,126
102,214,112,-158,-4,163,-185,0,126,87,112,141
107,224,117,-165,-4,170,-200,-29,122,87,112,151
102,229,126,-165,-12,178,-209,-58,107,97,107,156
112,234,122,-173,-4,178,-219,-73,97,92,112,161
122,234,112,-178,4,173,-224,-82,87,82,112,165
122,229,107,-175,7,168,-234,-97,78,82,107,165
141,224,82,-183,29,153,-234,-102,58,73,117,165
151,224,73,-187,39,148,-239,-102,58,73,126,175
151,229,78,-190,36,153,-239,-102,58,78,131,180
161,229,68,-195,46,148,-239,-97,53,78,131,185
170,219,48,-195,61,134,-239,-97,53,87,131,185
170,204,34,-187,68,119,-224,-92,53,87,136,185
161,204,43,-183,58,124,-224,-92,43,78,136,185
156,200,43,-178,56,122,-214,-97,29,68,126,180
141,195,53,-168,43,124,-209,-112,24,58,117,185
141,180,39,-161,51,109,-204,-112,14,48,107,180
131,175,43,-153,43,109,-190,-112,4,39,102,175
126,165,39,-146,43,102,-185,-107,4,39,102,170
131,165,34,-148,48,100,-165,-87,9,39,112,165
122,146,24,-134,48,85,-146,-73,9,39,112,161
107,117,9,-112,48,63,-112,-58,9,34,92,136
87,78,-9,-82,48,34,-87,-53,-4,4,63,112
68,39,-29,-53,48,4,-68,-43,-14,-29,24,82
48,29,-19,-39,34,4,-53,-39,-24,-48,9,68
19,9,-9,-14,14,0,-34,-39,-24,-53,0,53
4,-9,-14,2,9,-12,-24,-39,-39,-68,-24,34
-9,-29,-19,19,4,-24,-19,-48,-53,-78,-43,0
-24,-48,-24,36,0,-36,-19,-58,-68,-92,-53,-14
-24,-53,-29,39,2,-41,-19,-63,-73,-97,-63,-14
-24,-58,-34,41,4,-46,-19,-63,-73,-102,-68,-24
-39,-58,-19,48,-9,-39,-14,-73,-78,-112,-78,-24
-39,-63,-24,51,-7,-43,-9,-73,-78,-117,-82,-29
-39,-68,-29,53,-4,-48,-9,-73,-87,-122,-87,-29
-39,-68,-29,53,-4,-48,-9,-78,-92,-136,-92,-34
-39,-68,-29,53,-4,-48,0,-73,-97,-136,-97,-29
-43,-68,-24,56,-9,-46,0,-73,-97,-136,-97,-29
-43,-68,-24,56,-9,-46,0,-73,-97,-136,-97,-29
-43,-73,-29,58,-7,-51,0,-73,-97,-136,-102,-29
-34,-73,-39,53,2,-56,-9,-73,-97,-126,-102,-39
-34,-73,-39,53,2,-56,-4,-68,-97,-126,-102,-39
-34,-78,-43,56,4,-61,-4,-68,-102,-126,-102,-39
-39,-78,-39,58,0,-58,-4,-68,-102,-131,-102,-39
-39,-78,-39,58,0,-58,-4,-68,-102,-141,-102,-39
-39,-78,-39,58,0,-58,0,-68,-102,-141,-102,-43
-39,-78,-39,58,0,-58,0,-68,-107,-141,-107,-43
-39,-78,-39,58,0,-58,0,-68,-107,-146,-107,-43
-39,-78,-39,58,0,-58,4,-78,-107,-136,-112,-34
-39,-82,-43,61,2,-63,4,-78,-107,-136,-112,-34
-39,-82,-43,61,2,-63,9,-78,-107,-136,-112,-39
-43,-82,-39,63,-2,-61,9,-78,-107,-136,-112,-39
-43,-82,-39,63,-2,-61,9,-63,-107,-146,-112,-48
-43,-82,-39,63,-2,-61,9,-63,-107,-146,-112,-48
-39,-82,-43,61,2,-63,9,-63,-107,-146,-107,-48
-39,-82,-43,61,2,-63,9,-63,-102,-146,-107,-43
-39,-82,-43,61,2,-63,4,-63,-102,-141,-107,-43
-43,-78,-34,61,-4,-56,4,-63,-102,-141,-107,-43
-43,-78,-34,61,-4,-56,4,-63,-97,-141,-102,-43
-39,-78,-39,58,0,-58,9,-58,-97,-141,-102,-43
-29,-78,-48,53,9,-63,9,-58,-92,-136,-112,-43
-29,-68,-39,48,4,-53,9,-58,-92,-131,-107,-43
-34,-73,-39,53,2,-56,19,-58,-82,-117,-92,-34
-34,-73,-39,53,2,-56,19,-58,-73,-102,-78,-34
-34,-63,-29,48,-2,-46,19,-53,-78,-87,-68,-24
-39,-73,-34,56,-2,-53,29,-14,-48,-53,-58,-34
-29,-73,-43,51,7,-58,43,48,24,14,-48,-34
-19,-53,-34,36,7,-43,43,102,146,126,-9,-34
-9,-9,0,9,-4,-4,34,161,312,302,68,-9
-4,39,43,-17,-24,41,43,224,483,497,161,24
0,63,63,-31,-31,63,29,214,522,610,244,58
19,97,78,-58,-29,87,-9,87,351,580,312,112
34,136,102,-85,-34,119,-117,-185,-24,453,395,209
48,195,146,-122,-48,170,-273,-619,-580,224,488,346
53,229,175,-141,-61,202,-468,-1141,-1283,-136,556,478
97,253,156,-175,-29,204,-658,-1615,-1942,-483,619,600
151,297,146,-224,2,222,-854,-2025,-2454,-697,805,795
234,375,141,-305,46,258,-1083,-2435,-2884,-810,1117,1063
346,448,102,-397,122,275,-1298,-2766,-3245,-844,1517,1376
483,492,9,-488,236,251,-1507,-3025,-3523,-810,1976,1698
605,580,-24,-592,314,278,-1737,-3279,-3752,-756,2425,2034
727,673,-53,-700,390,309,-1942,-3508,-3918,-678,2879,2376
834,732,-102,-783,468,314,-2103,-3635,-3991,-610,3250,2669
897,751,-146,-824,522,302,-2186,-3742,-4055,-712,3259,2791
912,692,-219,-802,566,236,-2181,-3762,-4094,-1029,2815,2649
897,531,-366,-714,631,82,-2074,-3630,-4021,-1376,2156,2352
829,351,-478,-590,653,-63,-1888,-3425,-3879,-1761,1337,1912
649,204,-444,-427,546,-119,-1668,-3254,-3762,-2283,273,1346
468,73,-395,-270,431,-161,-1483,-3093,-3616,-2752,-678,863
419,-107,-527,-156,473,-317,-1327,-2801,-3328,-2859,-1093,600
409,-287,-697,-61,553,-492,-1146,-2376,-2879,-2586,-1088,458
385,-317,-702,-34,544,-509,-985,-1966,-2376,-2161,-976,390
385,-263,-649,-61,517,-456,-868,-1639,-1966,-1786,-814,400
390,-258,-649,-65,519,-453,-766,-1351,-1615,-1488,-649,400
366,-278,-644,-43,505,-461,-619,-1063,-1288,-1185,-507,336
331,-258,-590,-36,461,-424,-453,-780,-936,-873,-361,287
258,-180,-439,-39,348,-309,-317,-546,-644,-619,-239,234
190,-102,-292,-43,241,-197,-209,-366,-419,-434,-165,185
131,-82,-214,-24,173,-148,-107,-244,-273,-322,-131,122
78,-87,-165,4,122,-126,-24,-131,-156,-219,-102,68
24,-78,-102,26,63,-90,29,-39,-48,-146,-92,24
-9,-58,-48,34,19,-53,68,29,14,-78,-82,-19
-19,-73,-53,46,17,-63,97,68,68,-29,-82,-58
-34,-82,-48,58,7,-65,122,97,102,-9,-82,-97
-43,-97,-53,70,4,-75,131,117,131,4,-78,-112
-48,-102,-53,75,2,-78,156,136,146,-4,-82,-131
-63,-102,-39,82,-12,-70,175,156,151,-4,-102,-131
-78,-107,-29,92,-24,-68,190,185,165,0,-112,-131
-92,-112,-19,102,-36,-65,190,190,170,4,-117,-136
-97,-112,-14,104,-41,-63,190,195,170,4,-122,-141
-82,-112,-29,97,-26,-70,190,185,170,-4,-122,-136
-82,-112,-29,97,-26,-70,185,185,170,-4,-126,-141
-82,-112,-29,97,-26,-70,185,185,170,-4,-131,-146
-78,-112,-34,95,-21,-73,190,195,180,-4,-131,-151
-78,-102,-24,90,-26,-63,200,209,185,4,-131,-161
-87,-102,-14,95,-36,-58,204,219,195,4,-131,-161
-92,-102,-9,97,-41,-56,209,224,195,9,-131,-156
-92,-102,-9,97,-41,-56,214,229,195,9,-131,-156
-97,-112,-14,104,-41,-63,214,229,200,14,-136,-161
-97,-112,-14,104,-41,-63,214,234,200,14,-136,-161
-97,-112,-14,104,-41,-63,214,234,200,14,-136,-161
-97,-112,-14,104,-41,-63,214,239,204,14,-136,-165
-97,-112,-14,104,-41,-63,229,239,204,19,-136,-170
-97,-112,-14,104,-41,-63,229,248,204,19,-136,-170
-97,-112,-14,104,-41,-63,229,248,209,19,-141,-170
-97,-112,-14,104,-41,-63,229,248,214,24,-141,-170
-102,-112,-9,107,-46,-61,234,253,214,24,-151,-161
-102,-112,-9,107,-46,-61,234,253,219,24,-156,-165
-102,-107,-4,104,-48,-56,234,258,219,24,-156,-165
-102,-107,-4,104,-48,-56,234,258,219,24,-156,-165
-102,-107,-4,104,-48,-56,234,258,234,34,-146,-180
-102,-112,-9,107,-46,-61,239,263,234,39,-146,-180
-102,-112,-9,107,-46,-61,239,268,239,39,-146,-180
-102,-112,-9,107,-46,-61,239,273,239,39,-151,-185
-102,-107,-4,104,-48,-56,239,278,244,39,-161,-175
-107,-107,0,107,-53,-53,239,278,248,43,-161,-180
-107,-107,0,107,-53,-53,244,278,248,43,-161,-180
-107,-107,0,107,-53,-53,244,278,248,43,-165,-180
-97,-107,-9,102,-43,-58,244,273,253,39,-165,-190
-97,-107,-9,102,-43,-58,244,278,253,39,-165,-200
-97,-107,-9,102,-43,-58,248,287,263,39,-165,-200
-97,-107,-9,102,-43,-58,248,287,263,39,-175,-200
-107,-117,-9,112,-48,-63,248,297,253,39,-175,-204
-112,-112,0,112,-56,-56,248,297,258,43,-175,-204
-112,-112,0,112,-56,-56,253,302,263,43,-175,-209
-112,-112,0,112,-56,-56,253,302,263,48,-175,-214
-107,-102,4,104,-56,-48,244,307,263,48,-180,-204
-107,-102,4,104,-56,-48,248,317,273,48,-180,-204
-107,-102,4,104,-56,-48,248,322,278,53,-180,-204
-107,-102,4,104,-56,-48,253,322,283,58,-180,-204
-107,-102,4,104,-56,-48,263,326,297,58,-175,-219
-107,-107,0,107,-53,-53,263,331,302,58,-175,-219
-112,-107,4,109,-58,-51,268,336,307,63,-175,-219
-112,-102,9,107,-61,-46,268,341,312,63,-175,-229
-122,-102,19,112,-70,-41,268,356,312,73,-180,-229
-122,-102,19,112,-70,-41,268,361,322,73,-180,-229
-122,-102,19,112,-70,-41,273,366,326,73,-185,-229
-126,-102,24,114,-75,-39,273,370,331,82,-185,-234
-117,-102,14,109,-65,-43,278,370,336,82,-185,-234
-117,-102,14,109,-65,-43,278,375,341,87,-185,-234
-117,-97,19,107,-68,-39,278,380,346,92,-185,-239
-117,-97,19,107,-68,-39,283,385,351,92,-185,-239
-126,-107,19,117,-73,-43,287,400,351,87,-195,-239
-126,-107,19,117,-73,-43,287,409,356,92,-200,-239
-131,-107,24,119,-78,-41,287,414,361,97,-200,-244
-131,-107,24,119,-78,-41,292,419,375,102,-200,-244
-131,-107,24,119,-78,-41,302,429,390,117,-190,-248
-131,-107,24,119,-78,-41,302,439,395,117,-190,-248
-136,-107,29,122,-82,-39,302,448,400,126,-190,-248
-136,-107,29,122,-82,-39,307,448,405,126,-195,-258
-136,-102,34,119,-85,-34,307,463,405,131,-195,-258
-136,-102,34,119,-85,-34,307,473,414,136,-195,-258
-136,-102,34,119,-85,-34,312,488,424,141,-195,-258
-136,-102,34,119,-85,-34,317,488,434,146,-195,-268
-126,-92,34,109,-80,-29,307,497,453,156,-204,-268
-126,-92,34,109,-80,-29,317,512,453,161,-204,-268
-131,-92,39,112,-85,-26,322,522,468,165,-204,-273
-131,-87,43,109,-87,-21,326,531,473,170,-204,-273
-141,-97,43,119,-92,-26,336,546,478,180,-195,-278
-141,-97,43,119,-92,-26,336,556,488,190,-195,-278
-141,-97,43,119,-92,-26,346,566,502,195,-195,-278
-141,-97,43,119,-92,-26,346,575,512,200,-195,-287
-146,-92,53,119,-100,-19,346,600,522,219,-195,-292
-146,-92,53,119,-100,-19,356,610,531,224,-190,-292
-146,-92,53,119,-100,-19,356,629,541,239,-190,-292
-146,-87,58,117,-102,-14,361,634,556,248,-190,-292
-146,-87,58,117,-102,-14,366,639,566,253,-190,-297
-146,-78,68,112,-107,-4,366,653,575,258,-185,-302
-146,-78,68,112,-107,-4,370,668,595,263,-185,-302
-146,-78,68,112,-107,-4,375,683,610,263,-185,-302
-146,-68,78,107,-112,4,380,707,629,287,-180,-302
-146,-63,82,104,-114,9,380,717,644,297,-175,-302
-146,-63,82,104,-114,9,380,736,653,307,-175,-312
-146,-63,82,104,-114,9,390,751,663,317,-170,-312
-146,-63,82,104,-114,9,395,766,683,336,-170,-302
-151,-63,87,107,-119,12,400,780,702,351,-161,-302
-151,-58,92,104,-122,17,405,795,717,361,-156,-302
-151,-53,97,102,-124,21,409,810,732,375,-151,-302
-141,-48,92,95,-117,21,409,819,756,395,-146,-312
-141,-39,102,90,-122,31,409,834,771,409,-136,-317
-141,-34,107,87,-124,36,419,839,790,424,-131,-317
-141,-29,112,85,-126,41,419,854,805,444,-126,-317
-151,-34,117,92,-134,41,434,873,814,458,-122,-317
-151,-29,122,90,-136,46,434,883,829,483,-117,-317
-156,-24,131,90,-143,53,434,902,849,497,-107,-317
-156,-24,131,90,-143,53,434,912,863,517,-92,-322
-146,-19,126,82,-136,53,439,922,888,541,-82,-312
-146,-9,136,78,-141,63,444,932,907,561,-73,-312
-146,-4,141,75,-143,68,444,932,922,585,-63,-312
-146,0,146,73,-146,73,444,936,932,600,-53,-312
-156,14,170,70,-163,92,444,951,936,619,-48,-307
-156,19,175,68,-165,97,444,951,956,639,-39,-307
-156,24,180,65,-168,102,439,951,976,658,-29,-307
-161,34,195,63,-178,114,439,951,985,688,-14,-302
-161,39,200,61,-180,119,434,951,1000,717,9,-297
-161,43,204,58,-183,124,429,936,1010,741,29,-297
-161,48,209,56,-185,129,424,927,1019,761,43,-297
-161,53,214,53,-187,134,419,912,1019,785,63,-297
-151,58,209,46,-180,134,424,902,1024,810,82,-287
-151,58,209,46,-180,134,409,893,1029,824,97,-283
-151,68,219,41,-185,143,400,873,1029,844,112,-278
-146,68,214,39,-180,141,390,854,1029,868,126,-273
-146,68,214,39,-180,141,375,834,1029,888,141,-268
-146,68,214,39,-180,141,361,814,1024,897,161,-263
-146,73,219,36,-183,146,346,790,1010,902,180,-258
-141,78,219,31,-180,148,331,771,1000,912,195,-248
-141,78,219,31,-180,148,322,736,976,912,200,-244
-136,78,214,29,-175,146,317,712,956,917,204,-234
-136,82,219,26,-178,151,297,683,936,917,214,-229
-131,82,214,24,-173,148,283,653,922,907,219,-224
-131,82,214,24,-173,148,258,624,907,888,224,-224
-126,82,209,21,-168,146,248,595,878,873,224,-219
-122,87,209,17,-165,148,234,570,854,854,224,-214
-122,92,214,14,-168,153,229,541,819,834,224,-204
-117,102,219,7,-168,161,209,502,790,810,219,-190
-112,102,214,4,-163,158,195,473,756,780,214,-185
-107,97,204,4,-156,151,180,444,727,746,204,-180
-97,92,190,2,-143,141,165,414,692,707,190,-175
-92,87,180,2,-136,134,151,380,653,678,190,-180
-92,82,175,4,-134,129,141,356,619,644,170,-175
-87,82,170,2,-129,126,126,336,585,610,165,-165
-78,78,156,0,-117,117,112,307,551,566,146,-165
-63,68,131,-2,-97,100,107,273,507,536,131,-156
-58,63,122,-2,-90,92,97,248,468,497,117,-141
-48,63,112,-7,-80,87,78,224,429,453,102,-141
-43,58,102,-7,-73,80,68,200,390,414,97,-126
-43,53,97,-4,-70,75,48,175,356,380,97,-122
-34,48,82,-7,-58,65,34,156,322,341,87,-112
-24,43,68,-9,-46,56,24,141,287,307,78,-107
-24,43,68,-9,-46,56,19,122,258,278,68,-92
-19,39,58,-9,-39,48,9,92,234,244,58,-82
-9,34,43,-12,-26,39,0,73,204,219,53,-68
-4,29,34,-12,-19,31,-9,53,175,190,48,-48
-4,29,34,-12,-19,31,-14,43,146,170,48,-43
-4,34,39,-14,-21,36,-29,34,126,146,43,-43
-4,29,34,-12,-19,31,-34,19,112,122,43,-24
0,29,29,-14,-14,29,-43,9,92,107,39,-19
4,29,24,-17,-9,26,-43,4,73,87,34,-9
14,24,9,-19,2,17,-48,-14,48,68,34,0
24,24,0,-24,12,12,-53,-29,34,53,34,9
24,24,0,-24,12,12,-53,-39,19,43,34,9
19,24,4,-21,7,14,-58,-43,4,29,34,19
29,24,-4,-26,17,9,-53,-39,4,14,29,24
34,19,-14,-26,24,2,-58,-43,0,9,29,29
34,19,-14,-26,24,2,-58,-48,-9,0,29,34
34,14,-19,-24,26,-2,-58,-53,-19,-4,29,39
34,19,-14,-26,24,2,-68,-58,-19,-14,29,48
34,19,-14,-26,24,2,-68,-63,-34,-24,29,48
34,19,-14,-26,24,2,-68,-63,-34,-24,29,53
39,19,-19,-29,29,0,-68,-68,-39,-29,29,53
39,9,-29,-24,34,-9,-68,-78,-43,-34,24,63
39,9,-29,-24,34,-9,-68,-78,-48,-39,24,63
39,9,-29,-24,34,-9,-73,-78,-53,-43,24,63
39,4,-34,-21,36,-14,-73,-78,-53,-43,24,63
29,4,-24,-17,26,-9,-73,-78,-53,-48,19,63
29,4,-24,-17,26,-9,-73,-82,-53,-53,19,63
29,0,-29,-14,29,-14,-73,-82,-63,-53,19,63
29,0,-29,-14,29,-14,-73,-82,-63,-58,19,63
29,9,-19,-19,24,-4,-73,-82,-73,-58,19,63
29,9,-19,-19,24,-4,-73,-82,-73,-58,19,63
29,0,-29,-14,29,-14,-73,-82,-73,-58,14,63
29,0,-29,-14,29,-14,-73,-82,-73,-58,14,63
29,4,-24,-17,26,-9,-73,-82,-63,-58,14,63
29,4,-24,-17,26,-9,-68,-82,-63,-58,14,63
24,4,-19,-14,21,-7,-68,-82,-63,-58,14,63
24,0,-24,-12,24,-12,-68,-82,-63,-58,14,63
24,-9,-34,-7,29,-21,-68,-78,-63,-58,14,63
29,-9,-39,-9,34,-24,-68,-78,-63,-58,9,58
29,-9,-39,-9,34,-24,-68,-78,-63,-58,9,58
29,-14,-43,-7,36,-29,-68,-78,-63,-58,4,58
24,-4,-29,-9,26,-17,-63,-78,-53,-58,4,53
24,-4,-29,-9,26,-17,-63,-78,-53,-58,4,53
24,-4,-29,-9,26,-17,-63,-73,-53,-58,4,53
24,-4,-29,-9,26,-17,-63,-73,-53,-63,4,53
24,0,-24,-12,24,-12,-63,-73,-58,-63,0,43
24,0,-24,-12,24,-12,-63,-73,-58,-63,-4,43
24,0,-24,-12,24,-12,-63,-68,-58,-63,-4,39
24,0,-24,-12,24,-12,-58,-68,-58,-63,-4,39
29,0,-29,-14,29,-14,-58,-68,-68,-63,-4,48
29,-4,-34,-12,31,-19,-58,-68,-63,-68,-14,48
29,-4,-34,-12,31,-19,-58,-63,-63,-68,-14,43
34,-4,-39,-14,36,-21,-53,-63,-63,-68,-19,43
24,-14,-39,-4,31,-26,-53,-63,-48,-68,-9,43
19,-14,-34,-2,26,-24,-53,-63,-48,-68,-9,39
19,-14,-34,-2,26,-24,-53,-63,-48,-68,-9,39
14,-14,-29,0,21,-21,-53,-63,-48,-68,-9,39
24,-4,-29,-9,26,-17,-53,-58,-58,-68,-14,39
24,-4,-29,-9,26,-17,-53,-58,-53,-68,-14,34
24,-4,-29,-9,26,-17,-48,-58,-53,-68,-14,34
24,-4,-29,-9,26,-17,-48,-53,-53,-68,-14,29
14,-14,-29,0,21,-21,-43,-53,-53,-68,-24,29
14,-19,-34,2,24,-26,-43,-53,-53,-68,-24,24
14,-19,-34,2,24,-26,-43,-53,-53,-68,-29,24
9,-19,-29,4,19,-24,-43,-53,-48,-68,-29,24
9,-19,-29,4,19,-24,-43,-48,-39,-68,-29,24
9,-19,-29,4,19,-24,-43,-48,-39,-68,-34,24
9,-19,-29,4,19,-24,-43,-48,-39,-68,-34,14
9,-19,-29,4,19,-24,-39,-48,-39,-68,-34,14
9,-9,-19,0,14,-14,-39,-48,-39,-63,-43,4
9,-14,-24,2,17,-19,-39,-48,-34,-63,-43,4
9,-14,-24,2,17,-19,-34,-43,-34,-63,-43,9
4,-9,-14,2,9,-12,-34,-43,-29,-58,-43,9
4,-19,-24,7,14,-21,-34,-43,-39,-58,-48,4
4,-19,-24,7,14,-21,-34,-43,-39,-58,-48,4
0,-19,-19,9,9,-19,-34,-43,-39,-58,-48,4
0,-19,-19,9,9,-19,-34,-43,-39,-58,-48,0
0,-19,-19,9,9,-19,-34,-43,-29,-68,-39,0
0,-19,-19,9,9,-19,-34,-43,-29,-63,-43,0
0,-19,-19,9,9,-19,-34,-39,-29,-63,-43,0
0,-19,-19,9,9,-19,-29,-39,-24,-63,-43,0
0,-14,-14,7,7,-14,-29,-39,-34,-58,-53,0
0,-14,-14,7,7,-14,-29,-39,-34,-58,-48,-4
0,-14,-14,7,7,-14,-29,-39,-34,-58,-48,-4
0,-14,-14,7,7,-14,-29,-39,-34,-58,-48,-4
0,-14,-14,7,7,-14,-29,-39,-34,-48,-48,-14
-4,-19,-14,12,4,-17,-29,-39,-34,-48,-48,-14
-4,-19,-14,12,4,-17,-24,-39,-34,-48,-48,-14
-9,-14,-4,12,-2,-9,-24,-39,-34,-48,-48,-14
0,-24,-24,12,12,-24,-24,-29,-24,-48,-39,-14
0,-24,-24,12,12,-24,-24,-29,-24,-48,-39,-9
0,-24,-24,12,12,-24,-24,-29,-24,-48,-39,-4
0,-24,-24,12,12,-24,-24,-29,-24,-43,-39,0
-9,-24,-14,17,2,-19,-24,-39,-24,-43,-43,-9
-9,-24,-14,17,2,-19,-24,-39,-24,-43,-43,-9
-9,-24,-14,17,2,-19,-24,-39,-24,-43,-43,-9
-9,-24,-14,17,2,-19,-24,-39,-24,-48,-43,-14
-14,-19,-4,17,-4,-12,-24,-29,-24,-48,-43,-14
-19,-19,0,19,-9,-9,-24,-29,-24,-48,-43,-14
-24,-19,4,21,-14,-7,-24,-29,-24,-48,-43,-14
-29,-24,4,26,-17,-9,-24,-29,-29,-48,-43,-14
-24,-24,0,24,-12,-12,-24,-29,-29,-58,-53,-14
-19,-24,-4,21,-7,-14,-24,-34,-29,-58,-53,-19
-19,-29,-9,24,-4,-19,-24,-34,-29,-58,-53,-19
-14,-29,-14,21,0,-21,-24,-34,-34,-58,-53,-14
-9,-19,-9,14,0,-14,-24,-43,-34,-63,-43,-14
-9,-19,-9,14,0,-14,-24,-43,-34,-63,-48,-19
-9,-19,-9,14,0,-14,-24,-43,-34,-63,-48,-19
-9,-19,-9,14,0,-14,-24,-43,-34,-63,-48,-19
-9,-24,-14,17,2,-19,-24,-48,-39,-58,-48,-9
-9,-24,-14,17,2,-19,-24,-48,-39,-58,-48,-9
-9,-19,-9,14,0,-14,-24,-48,-39,-58,-48,-9
-9,-19,-9,14,0,-14,-24,-48,-39,-63,-48,-9
-9,-19,-9,14,0,-14,-24,-48,-43,-63,-43,-9
-9,-24,-14,17,2,-19,-29,-53,-43,-68,-43,-9
-9,-24,-14,17,2,-19,-29,-53,-43,-68,-43,-9
-9,-24,-14,17,2,-19,-29,-53,-43,-68,-43,-9
0,-24,-24,12,12,-24,-19,-53,-34,-68,-53,-9
0,-24,-24,12,12,-24,-19,-53,-43,-68,-53,-9
0,-24,-24,12,12,-24,-19,-53,-43,-68,-53,-9
0,-24,-24,12,12,-24,-19,-53,-43,-73,-53,-9
-4,-34,-29,19,12,-31,-29,-53,-48,-82,-53,-19
-9,-34,-24,21,7,-29,-29,-53,-53,-82,-53,-19
-14,-34,-19,24,2,-26,-29,-58,-58,-82,-53,-19
-19,-34,-14,26,-2,-24,-29,-58,-63,-82,-58,-19
-9,-34,-24,21,7,-29,-39,-58,-58,-78,-58,-19
-9,-34,-24,21,7,-29,-39,-58,-58,-78,-58,-19
-9,-34,-24,21,7,-29,-39,-58,-58,-78,-58,-19
-9,-34,-24,21,7,-29,-39,-63,-58,-78,-58,-19
-9,-34,-24,21,7,-29,-29,-53,-58,-78,-58,-19
-9,-34,-24,21,7,-29,-29,-53,-63,-82,-58,-19
-9,-29,-19,19,4,-24,-34,-53,-63,-82,-58,-19
-4,-29,-24,17,9,-26,-34,-53,-63,-82,-58,-19
-4,-24,-19,14,7,-21,-34,-63,-63,-82,-68,-14
-4,-24,-19,14,7,-21,-34,-63,-63,-82,-68,-14
-4,-24,-19,14,7,-21,-34,-63,-63,-87,-68,-14
-4,-24,-19,14,7,-21,-34,-63,-63,-87,-68,-14
4,-24,-29,9,17,-26,-34,-63,-63,-87,-68,-14
0,-24,-24,12,12,-24,-34,-63,-68,-87,-68,-14
0,-24,-24,12,12,-24,-34,-68,-68,-87,-68,-19
4,-24,-29,9,17,-26,-34,-68,-68,-87,-68,-19
-4,-24,-19,14,7,-21,-34,-68,-68,-92,-63,-19
-9,-24,-14,17,2,-19,-34,-68,-68,-92,-63,-19
-9,-24,-14,17,2,-19,-34,-68,-68,-92,-63,-19
-9,-24,-14,17,2,-19,-34,-68,-68,-92,-63,-19
-9,-24,-14,17,2,-19,-34,-68,-73,-92,-63,-19
-9,-24,-14,17,2,-19,-34,-68,-73,-92,-63,-19
-9,-24,-14,17,2,-19,-34,-68,-73,-92,-63,-14
-4,-19,-14,12,4,-17,-34,-68,-73,-92,-63,-14
-14,-29,-14,21,0,-21,-34,-68,-73,-92,-63,-14
-14,-29,-14,21,0,-21,-34,-68,-73,-92,-63,-14
-14,-34,-19,24,2,-26,-34,-68,-73,-92,-63,-14
-14,-34,-19,24,2,-26,-34,-73,-73,-92,-63,-14
-14,-24,-9,19,-2,-17,-34,-73,-78,-102,-73,-14
-14,-24,-9,19,-2,-17,-34,-73,-78,-107,-73,-14
-14,-24,-9,19,-2,-17,-34,-73,-78,-107,-78,-19
-14,-24,-9,19,-2,-17,-34,-73,-78,-107,-78,-19
-14,-24,-9,19,-2,-17,-39,-73,-68,-97,-68,-19
-14,-24,-9,19,-2,-17,-39,-73,-68,-97,-68,-19
-14,-24,-9,19,-2,-17,-34,-73,-68,-97,-68,-19
-14,-24,-9,19,-2,-17,-34,-73,-68,-97,-68,-19
-14,-29,-14,21,0,-21,-24,-73,-78,-97,-68,-9
-14,-29,-14,21,0,-21,-29,-73,-78,-102,-68,-9
-14,-29,-14,21,0,-21,-29,-73,-78,-102,-68,-9
-14,-29,-14,21,0,-21,-29,-73,-78,-102,-68,-9
-14,-24,-9,19,-2,-17,-39,-73,-82,-102,-78,-19
-14,-24,-9,19,-2,-17,-39,-78,-82,-102,-78,-19
-14,-24,-9,19,-2,-17,-39,-78,-82,-102,-82,-19
-14,-24,-9,19,-2,-17,-39,-78,-82,-102,-82,-19
-4,-34,-29,19,12,-31,-39,-73,-82,-102,-78,-9
-4,-29,-24,17,9,-26,-39,-73,-82,-102,-78,-9
-4,-29,-24,17,9,-26,-39,-73,-82,-102,-78,-9
-4,-29,-24,17,9,-26,-39,-73,-82,-102,-78,-9
-4,-29,-24,17,9,-26,-39,-73,-82,-102,-78,-19
-4,-29,-24,17,9,-26,-39,-73,-78,-102,-78,-19
-4,-24,-19,14,7,-21,-39,-73,-78,-102,-78,-19
-4,-24,-19,14,7,-21,-39,-73,-78,-102,-78,-19
-14,-34,-19,24,2,-26,-39,-73,-82,-112,-78,-19
-14,-34,-19,24,2,-26,-39,-73,-82,-112,-78,-19
-14,-29,-14,21,0,-21,-39,-73,-78,-112,-78,-19
-14,-24,-9,19,-2,-17,-43,-73,-73,-112,-78,-19
-9,-34,-24,21,7,-29,-34,-78,-82,-112,-78,-19
-9,-34,-24,21,7,-29,-34,-78,-82,-112,-73,-19
-9,-34,-24,21,7,-29,-39,-78,-82,-107,-73,-14
-9,-34,-24,21,7,-29,-39,-78,-78,-102,-68,-9
-9,-24,-14,17,2,-19,-34,-68,-78,-102,-78,-14
-19,-29,-9,24,-4,-19,-29,-68,-78,-107,-68,-9
-9,-29,-19,19,4,-24,-29,-68,-87,-117,-78,-9
-9,-29,-19,19,4,-24,-29,-68,-87,-117,-78,-9
-9,-29,-19,19,4,-24,-29,-68,-87,-117,-78,-9
-9,-29,-19,19,4,-24,-29,-68,-87,-117,-78,-9
-9,-29,-19,19,4,-24,-29,-68,-87,-117,-78,-19
-4,-34,-29,19,12,-31,-29,-68,-87,-117,-78,-19
-4,-34,-29,19,12,-31,-39,-68,-87,-117,-78,-19
4,-24,-29,9,17,-26,-43,-63,-87,-117,-73,-19
14,-19,-34,2,24,-26,-48,-53,-78,-97,-68,-4
19,-9,-29,-4,24,-19,-48,-53,-63,-87,-58,4
19,0,-19,-9,19,-9,-48,-48,-53,-78,-53,9
24,19,-4,-21,14,7,-48,-43,-48,-68,-43,14
43,48,4,-46,19,26,-48,-39,-34,-58,-34,19
43,73,29,-58,7,51,-48,-29,-24,-43,-24,19
43,92,48,-68,-2,70,-43,-29,-14,-34,-14,34
43,112,68,-78,-12,90,-43,-24,-4,-34,-9,39
34,117,82,-75,-24,100,-48,-14,14,-29,-14,48
34,117,82,-75,-24,100,-53,-9,14,-24,-9,48
43,112,68,-78,-12,90,-68,-4,14,-19,-9,48
48,112,63,-80,-7,87,-87,-4,14,-14,-4,48
53,122,68,-87,-7,95,-107,-14,14,-9,-4,48
58,126,68,-92,-4,97,-122,-14,24,-4,4,58
63,136,73,-100,-4,104,-131,-14,29,0,9,63
68,151,82,-109,-7,117,-136,-4,58,19,24,68
82,175,92,-129,-4,134,-156,9,87,48,53,92
92,214,122,-153,-14,168,-170,14,117,78,82,117
92,234,141,-163,-24,187,-185,-4,122,87,102,131
97,244,146,-170,-24,195,-200,-29,122,87,102,141
112,258,146,-185,-17,202,-209,-58,97,87,107,156
122,263,141,-192,-9,202,-219,-73,87,82,112,161
131,263,131,-197,0,197,-224,-82,78,73,112,165
131,258,126,-195,2,192,-234,-97,68,73,107,165
141,234,92,-187,24,163,-244,-112,58,73,117,165
151,234,82,-192,34,158,-248,-112,58,73,126,175
151,239,87,-195,31,163,-248,-112,58,78,131,180
161,239,78,-200,41,158,-248,-107,53,78,131,185
161,229,68,-195,46,148,-239,-87,53,87,122,185
161,214,53,-187,53,134,-224,-82,53,87,126,185
151,214,63,-183,43,139,-224,-82,43,78,126,185
146,209,63,-178,41,136,-214,-87,29,68,117,180
141,204,63,-173,39,134,-209,-97,14,48,117,175
141,190,48,-165,46,119,-204,-102,4,39,107,170
131,185,53,-158,39,119,-190,-107,-4,29,102,165
126,175,48,-151,39,112,-185,-107,-4,29,102,161
112,175,63,-143,24,119,-175,-87,0,29,92,156
102,156,53,-129,24,104,-156,-73,0,29,92,151
87,126,39,-107,24,82,-122,-58,0,24,73,126
68,87,19,-78,24,53,-97,-53,-14,-4,43,102
63,58,-4,-61,34,26,-68,-53,-24,-29,24,73
48,48,0,-48,24,24,-53,-48,-34,-48,9,58
24,29,4,-26,9,17,-34,-48,-34,-53,0,43
14,9,-4,-12,9,2,-24,-48,-48,-68,-24,24
-9,-9,0,9,-4,-4,-19,-48,-63,-87,-53,0
-24,-29,-4,26,-9,-17,-19,-58,-78,-102,-63,-14
-24,-34,-9,29,-7,-21,-19,-63,-82,-107,-73,-14
-24,-39,-14,31,-4,-26,-19,-63,-82,-112,-78,-24
-29,-39,-9,34,-9,-24,-14,-63,-87,-112,-87,-34
-29,-43,-14,36,-7,-29,-9,-63,-87,-117,-92,-39
-29,-48,-19,39,-4,-34,-9,-63,-97,-122,-97,-39
-29,-48,-19,39,-4,-34,-9,-68,-102,-136,-102,-43
-29,-48,-19,39,-4,-34,-9,-82,-107,-136,-107,-39
-34,-48,-14,41,-9,-31,-9,-82,-107,-136,-107,-39
-34,-48,-14,41,-9,-31,-9,-82,-107,-136,-107,-39
-34,-53,-19,43,-7,-36,-9,-82,-107,-136,-112,-39
-34,-53,-19,43,-7,-36,-9,-82,-107,-146,-112,-48
-34,-53,-19,43,-7,-36,-4,-78,-107,-146,-112,-48
-34,-58,-24,46,-4,-41,-4,-78,-112,-146,-112,-48
-39,-58,-19,48,-9,-39,-4,-78,-112,-151,-112,-48
-39,-58,-19,48,-9,-39,4,-78,-112,-141,-122,-48
-39,-58,-19,48,-9,-39,9,-78,-112,-141,-122,-53
-39,-58,-19,48,-9,-39,9,-78,-117,-141,-126,-53
-39,-58,-19,48,-9,-39,9,-78,-117,-146,-126,-53
-39,-58,-19,48,-9,-39,4,-68,-107,-146,-122,-43
-39,-63,-24,51,-7,-43,4,-68,-107,-146,-122,-43
-39,-63,-24,51,-7,-43,9,-68,-107,-146,-122,-48
-43,-63,-19,53,-12,-41,9,-68,-107,-146,-122,-48
-34,-63,-29,48,-2,-46,9,-73,-117,-146,-122,-48
-34,-63,-29,48,-2,-46,9,-73,-117,-146,-122,-48
-29,-63,-34,46,2,-48,9,-73,-117,-146,-117,-48
-29,-63,-34,46,2,-48,9,-73,-112,-146,-117,-43
-29,-63,-34,46,2,-48,14,-73,-112,-141,-117,-53
-34,-58,-24,46,-4,-41,14,-73,-112,-141,-117,-53
-34,-58,-24,46,-4,-41,14,-73,-107,-141,-112,-53
-29,-58,-29,43,0,-43,19,-68,-107,-141,-112,-53
-39,-58,-19,48,-9,-39,29,-68,-92,-136,-102,-34
-39,-68,-29,53,-4,-48,19,-58,-92,-131,-97,-34
-24,-53,-29,39,2,-41,19,-58,-92,-117,-102,-34
-24,-43,-19,34,-2,-31,9,-68,-92,-102,-87,-24
-34,-53,-19,43,-7,-36,19,-53,-87,-87,-68,-24
-29,-53,-24,41,-2,-39,29,-14,-58,-63,-58,-34
-9,-53,-43,31,17,-48,43,48,4,-4,-58,-53
-9,-43,-34,26,12,-39,43,112,117,97,-29,-53
-9,-9,0,9,-4,-4,43,170,273,263,58,-19
-4,29,34,-12,-19,31,43,224,444,458,151,14
0,63,63,-31,-31,63,29,244,502,590,234,58
9,97,87,-53,-39,92,0,136,370,590,302,102
24,126,102,-75,-39,114,-87,-107,43,473,395,190
48,175,126,-112,-39,151,-234,-531,-473,263,488,317
63,229,165,-146,-51,197,-429,-1054,-1137,-78,546,448
78,244,165,-161,-43,204,-629,-1546,-1795,-424,619,590
131,287,156,-209,-12,222,-824,-1966,-2308,-649,795,766
214,366,151,-290,31,258,-1034,-2366,-2737,-761,1088,1044
326,429,102,-378,112,265,-1249,-2718,-3108,-814,1478,1356
463,483,19,-473,222,251,-1449,-2967,-3396,-810,1917,1678
605,570,-34,-588,319,268,-1678,-3230,-3635,-775,2357,2005
727,673,-53,-700,390,309,-1893,-3479,-3830,-727,2801,2357
824,741,-82,-783,453,329,-2064,-3625,-3923,-668,3181,2659
897,761,-136,-829,517,312,-2166,-3733,-3986,-741,3240,2791
922,722,-200,-822,561,261,-2181,-3782,-4045,-1049,2845,2688
917,580,-336,-749,627,122,-2093,-3679,-4011,-1405,2176,2410
839,390,-448,-614,644,-29,-1908,-3474,-3889,-1781,1376,1981
658,234,-424,-446,541,-95,-1678,-3303,-3772,-2264,331,1405
468,112,-356,-290,412,-122,-1473,-3132,-3625,-2752,-668,893
400,-78,-478,-161,439,-278,-1317,-2849,-3367,-2898,-1141,600
400,-258,-658,-70,529,-458,-1146,-2435,-2947,-2654,-1166,429
375,-317,-692,-29,534,-505,-985,-2025,-2454,-2230,-1044,351
375,-263,-639,-56,507,-451,-868,-1678,-2015,-1844,-893,361
380,-248,-629,-65,505,-439,-766,-1381,-1664,-1527,-717,361
366,-268,-634,-48,500,-451,-639,-1093,-1327,-1224,-556,317
312,-248,-561,-31,436,-405,-473,-810,-985,-912,-400,278
268,-161,-429,-53,348,-295,-326,-556,-673,-649,-268,224
200,-92,-292,-53,246,-192,-209,-395,-458,-463,-195,156
141,-73,-214,-34,178,-143,-126,-263,-302,-341,-161,92
87,-68,-156,-9,122,-112,-43,-141,-175,-239,-141,48
34,-58,-92,12,63,-75,19,-39,-78,-156,-112,14
-9,-58,-48,34,19,-53,58,19,4,-78,-92,-19
-29,-63,-34,46,2,-48,87,68,58,-39,-82,-58
-43,-73,-29,58,-7,-51,112,97,92,-9,-82,-87
-43,-78,-34,61,-4,-56,141,126,112,-4,-87,-112
-48,-73,-24,61,-12,-48,156,136,117,-4,-92,-131
-68,-87,-19,78,-24,-53,175,161,131,-4,-107,-131
-78,-97,-19,87,-29,-58,190,185,146,0,-122,-131
-87,-107,-19,97,-34,-63,190,185,151,4,-131,-136
-87,-112,-24,100,-31,-68,190,185,151,4,-141,-141
-82,-102,-19,92,-31,-61,190,195,161,4,-131,-136
-82,-102,-19,92,-31,-61,185,195,161,4,-136,-141
-82,-102,-19,92,-31,-61,185,195,161,4,-141,-146
-78,-102,-24,90,-26,-63,190,204,170,4,-141,-151
-78,-102,-24,90,-26,-63,209,209,175,4,-131,-161
-87,-102,-14,95,-36,-58,214,219,185,4,-131,-161
-92,-102,-9,97,-41,-56,219,224,185,9,-131,-156
-92,-102,-9,97,-41,-56,224,229,185,9,-131,-156
-97,-112,-14,104,-41,-63,214,229,190,14,-146,-161
-97,-112,-14,104,-41,-63,214,234,190,14,-146,-161
-97,-112,-14,104,-41,-63,214,234,190,14,-146,-161
-97,-112,-14,104,-41,-63,214,239,195,14,-146,-165
-87,-102,-14,95,-36,-58,219,239,195,19,-136,-170
-87,-102,-14,95,-36,-58,219,248,195,19,-136,-170
-87,-102,-14,95,-36,-58,219,248,200,19,-141,-170
-87,-102,-14,95,-36,-58,219,248,204,24,-141,-170
-92,-102,-9,97,-41,-56,224,253,204,24,-151,-180
-92,-102,-9,97,-41,-56,224,253,209,24,-156,-185
-92,-97,-4,95,-43,-51,224,258,209,24,-156,-185
-92,-97,-4,95,-43,-51,224,258,209,24,-156,-185
-102,-97,4,100,-53,-46,224,258,214,24,-156,-190
-102,-102,0,102,-51,-51,229,263,214,29,-156,-190
-102,-102,0,102,-51,-51,229,268,219,29,-156,-190
-102,-102,0,102,-51,-51,229,273,219,29,-161,-195
-92,-97,-4,95,-43,-51,239,278,224,29,-161,-185
-97,-97,0,97,-48,-48,239,278,229,34,-161,-190
-97,-97,0,97,-48,-48,244,278,229,34,-161,-190
-97,-97,0,97,-48,-48,244,278,229,34,-165,-190
-97,-97,0,97,-48,-48,234,283,234,39,-165,-190
-97,-97,0,97,-48,-48,234,287,234,39,-165,-200
-97,-97,0,97,-48,-48,239,297,244,39,-165,-200
-97,-97,0,97,-48,-48,239,297,244,39,-175,-200
-97,-97,0,97,-48,-48,248,297,234,29,-175,-204
-102,-92,9,97,-56,-41,248,297,239,34,-175,-204
-102,-92,9,97,-56,-41,253,302,244,34,-175,-209
-102,-92,9,97,-56,-41,253,302,244,39,-175,-214
-107,-92,14,100,-61,-39,253,307,244,48,-180,-224
-107,-92,14,100,-61,-39,258,317,253,48,-180,-224
-107,-92,14,100,-61,-39,258,322,258,53,-180,-224
-107,-92,14,100,-61,-39,263,322,263,58,-180,-224
-107,-92,14,100,-61,-39,263,326,268,58,-195,-229
-107,-97,9,102,-58,-43,263,331,273,58,-195,-229
-112,-97,14,104,-63,-41,268,336,278,63,-195,-229
-112,-92,19,102,-65,-36,268,341,283,63,-195,-239
-112,-82,29,97,-70,-26,263,346,283,63,-190,-248
-112,-82,29,97,-70,-26,258,351,292,63,-190,-248
-112,-82,29,97,-70,-26,258,356,297,63,-195,-248
-117,-82,34,100,-75,-24,253,361,302,73,-195,-253
-117,-92,24,104,-70,-34,268,370,307,73,-195,-253
-117,-92,24,104,-70,-34,268,375,312,78,-195,-253
-117,-87,29,102,-73,-29,268,380,317,82,-195,-258
-117,-87,29,102,-73,-29,273,385,322,82,-195,-258
-126,-87,39,107,-82,-24,278,390,331,87,-195,-258
-126,-87,39,107,-82,-24,278,400,336,92,-200,-258
-131,-87,43,109,-87,-21,278,405,341,97,-200,-263
-131,-87,43,109,-87,-21,283,409,356,102,-200,-263
-131,-78,53,104,-92,-12,292,419,361,107,-200,-268
-131,-78,53,104,-92,-12,292,429,366,107,-200,-268
-136,-78,58,107,-97,-9,292,439,370,117,-200,-268
-136,-78,58,107,-97,-9,297,439,375,117,-204,-278
-126,-73,53,100,-90,-9,297,453,385,112,-214,-278
-126,-73,53,100,-90,-9,297,463,395,117,-214,-278
-126,-73,53,100,-90,-9,302,478,405,122,-214,-278
-126,-73,53,100,-90,-9,307,478,414,126,-214,-287
-136,-73,63,104,-100,-4,297,478,414,136,-214,-297
-136,-73,63,104,-100,-4,307,492,414,141,-214,-297
-141,-73,68,107,-104,-2,312,502,429,146,-214,-302
-141,-68,73,104,-107,2,317,512,434,151,-214,-302
-141,-68,73,104,-107,2,317,527,458,170,-204,-297
-141,-68,73,104,-107,2,317,536,468,180,-204,-297
-141,-68,73,104,-107,2,326,546,483,185,-204,-297
-141,-68,73,104,-107,2,326,556,492,190,-204,-307
-136,-63,73,100,-104,4,326,570,502,190,-204,-312
-136,-63,73,100,-104,4,336,580,512,195,-200,-312
-136,-63,73,100,-104,4,336,600,522,209,-200,-312
-136,-58,78,97,-107,9,341,605,536,219,-200,-312
-146,-58,87,102,-117,14,356,619,536,239,-200,-317
-146,-48,97,97,-122,24,356,634,546,248,-195,-322
-146,-48,97,97,-122,24,361,649,566,258,-195,-322
-146,-48,97,97,-122,24,366,663,580,263,-195,-322
-146,-39,107,92,-126,34,370,678,600,268,-190,-312
-146,-34,112,90,-129,39,370,688,614,278,-185,-312
-146,-34,112,90,-129,39,370,707,624,287,-185,-322
-146,-34,112,90,-129,39,380,722,634,297,-180,-322
-136,-34,102,85,-119,34,375,727,644,317,-190,-322
-141,-34,107,87,-124,36,380,741,663,331,-180,-322
-141,-29,112,85,-126,41,385,756,678,341,-175,-322
-141,-24,117,82,-129,46,390,771,692,356,-170,-322
-151,-19,131,85,-141,56,390,780,707,375,-165,-331
-151,-9,141,80,-146,65,390,795,722,390,-156,-336
-151,-4,146,78,-148,70,400,800,741,405,-151,-336
-151,0,151,75,-151,75,400,814,756,424,-146,-336
-141,4,146,68,-143,75,405,824,775,429,-141,-336
-141,9,151,65,-146,80,405,834,790,453,-136,-336
-146,14,161,65,-153,87,405,854,810,468,-126,-336
-146,14,161,65,-153,87,405,863,824,488,-112,-341
-146,29,175,58,-161,102,409,873,839,512,-102,-341
-146,39,185,53,-165,112,414,883,858,531,-92,-341
-146,43,190,51,-168,117,414,883,873,556,-82,-341
-146,48,195,48,-170,122,414,888,883,570,-73,-341
-146,53,200,46,-173,126,414,902,897,600,-58,-336
-146,58,204,43,-175,131,414,902,917,619,-48,-336
-146,63,209,41,-178,136,409,902,936,639,-39,-336
-151,73,224,39,-187,148,409,902,946,668,-24,-331
-151,68,219,41,-185,143,405,902,961,688,-9,-317
-151,73,224,39,-187,148,400,888,971,712,9,-317
-151,78,229,36,-190,153,395,878,980,732,24,-317
-151,82,234,34,-192,158,390,863,980,756,43,-317
-151,87,239,31,-195,163,395,863,985,780,63,-317
-151,87,239,31,-195,163,380,854,990,795,78,-312
-151,97,248,26,-200,173,370,834,990,814,92,-307
-146,97,244,24,-195,170,361,814,990,839,107,-302
-146,107,253,19,-200,180,341,805,1000,858,112,-297
-146,107,253,19,-200,180,331,785,995,868,131,-292
-146,112,258,17,-202,185,322,761,980,873,151,-287
-141,117,258,12,-200,187,312,741,971,883,165,-278
-151,117,268,17,-209,192,302,707,956,883,180,-283
-146,117,263,14,-204,190,297,683,936,888,185,-273
-146,122,268,12,-207,195,278,653,917,888,195,-268
-141,122,263,9,-202,192,263,624,902,878,200,-263
-141,122,263,9,-202,192,248,595,888,868,204,-253
-136,122,258,7,-197,190,239,566,858,854,204,-248
-131,126,258,2,-195,192,224,541,834,834,204,-244
-131,131,263,0,-197,197,219,512,800,814,204,-234
-136,131,268,2,-202,200,200,492,780,795,200,-239
-131,131,263,0,-197,197,185,463,746,771,195,-234
-126,126,253,0,-190,190,170,434,717,741,185,-229
-117,122,239,-2,-178,180,156,405,683,707,170,-224
-102,107,209,-2,-156,158,131,370,634,668,170,-209
-102,102,204,0,-153,153,122,346,600,634,151,-204
-97,102,200,-2,-148,151,107,326,566,600,146,-195
-87,97,185,-4,-136,141,92,297,531,556,126,-195
-82,97,180,-7,-131,139,97,273,507,527,122,-195
-78,92,170,-7,-124,131,87,248,468,488,107,-180
-68,92,161,-12,-114,126,68,224,429,444,92,-180
-63,87,151,-12,-107,119,58,200,390,405,87,-165
-53,73,126,-9,-90,100,48,175,366,380,78,-141
-43,68,112,-12,-78,90,34,156,331,341,68,-131
-34,63,97,-14,-65,80,24,141,297,307,58,-126
-34,63,97,-14,-65,80,19,122,268,278,48,-112
-19,68,87,-24,-53,78,0,92,234,234,39,-102
-9,63,73,-26,-41,68,-9,73,204,209,34,-87
-4,58,63,-26,-34,61,-19,53,175,180,29,-68
-4,58,63,-26,-34,61,-24,43,146,161,29,-63
4,53,48,-29,-21,51,-29,24,117,126,34,-53
4,48,43,-26,-19,46,-34,9,102,102,34,-34
9,48,39,-29,-14,43,-43,0,82,87,29,-29
14,48,34,-31,-9,41,-43,-4,63,68,24,-19
14,43,29,-29,-7,36,-48,-14,58,48,24,-9
24,43,19,-34,2,31,-53,-29,43,34,24,0
24,43,19,-34,2,31,-53,-39,29,24,24,0
19,43,24,-31,-2,34,-58,-43,14,9,24,9
19,43,24,-31,-2,34,-53,-48,0,-4,29,14
24,39,14,-31,4,26,-58,-53,-9,-9,29,19
24,39,14,-31,4,26,-58,-58,-24,-19,29,24
24,34,9,-29,7,21,-58,-63,-39,-24,29,29
14,29,14,-21,0,21,-68,-68,-29,-34,19,39
14,29,14,-21,0,21,-68,-73,-43,-43,19,39
14,29,14,-21,0,21,-68,-73,-43,-43,19,43
19,29,9,-24,4,19,-68,-78,-48,-48,19,43
19,19,0,-19,9,9,-68,-78,-53,-53,14,43
19,19,0,-19,9,9,-68,-78,-58,-58,14,43
19,19,0,-19,9,9,-73,-78,-63,-63,14,43
19,14,-4,-17,12,4,-73,-78,-63,-63,14,43
19,24,4,-21,7,14,-63,-78,-63,-68,9,53
19,24,4,-21,7,14,-63,-82,-63,-73,9,53
19,19,0,-19,9,9,-63,-82,-73,-73,9,53
19,19,0,-19,9,9,-63,-82,-73,-78,9,53
29,29,0,-29,14,14,-73,-82,-73,-78,9,53
29,29,0,-29,14,14,-73,-82,-73,-78,9,53
29,19,-9,-24,19,4,-73,-82,-73,-78,4,53
29,19,-9,-24,19,4,-73,-82,-73,-78,4,53
29,14,-14,-21,21,0,-63,-73,-73,-87,14,53
29,14,-14,-21,21,0,-58,-73,-73,-87,14,53
24,14,-9,-19,17,2,-58,-73,-73,-87,14,53
24,9,-14,-17,19,-2,-58,-73,-73,-87,14,53
14,9,-4,-12,9,2,-68,-78,-73,-87,4,43
19,9,-9,-14,14,0,-68,-78,-73,-87,0,39
19,9,-9,-14,14,0,-68,-78,-73,-87,0,39
19,4,-14,-12,17,-4,-68,-78,-73,-87,-4,39
14,-4,-19,-4,17,-12,-63,-78,-73,-87,-4,34
14,-4,-19,-4,17,-12,-63,-78,-73,-87,-4,34
14,-4,-19,-4,17,-12,-63,-73,-73,-87,-4,34
14,-4,-19,-4,17,-12,-63,-73,-73,-92,-4,34
14,-9,-24,-2,19,-17,-63,-73,-68,-92,-9,34
14,-9,-24,-2,19,-17,-63,-73,-68,-92,-14,34
14,-9,-24,-2,19,-17,-63,-68,-68,-92,-14,29
14,-9,-24,-2,19,-17,-58,-68,-68,-92,-14,29
19,0,-19,-9,19,-9,-58,-68,-68,-92,-14,29
19,-4,-24,-7,21,-14,-58,-68,-63,-97,-24,29
19,-4,-24,-7,21,-14,-58,-63,-63,-97,-24,24
24,-4,-29,-9,26,-17,-53,-63,-63,-97,-29,24
24,-4,-29,-9,26,-17,-53,-63,-58,-97,-29,34
19,-4,-24,-7,21,-14,-53,-63,-58,-97,-29,29
19,-4,-24,-7,21,-14,-53,-63,-58,-97,-29,29
14,-4,-19,-4,17,-12,-53,-63,-58,-97,-29,29
14,4,-9,-9,12,-2,-53,-58,-68,-97,-34,29
14,4,-9,-9,12,-2,-53,-58,-63,-97,-34,24
14,4,-9,-9,12,-2,-48,-58,-63,-97,-34,24
14,4,-9,-9,12,-2,-48,-53,-63,-97,-34,19
14,-4,-19,-4,17,-12,-43,-53,-53,-87,-34,19
14,-9,-24,-2,19,-17,-43,-53,-53,-87,-34,14
14,-9,-24,-2,19,-17,-43,-53,-53,-87,-39,14
9,-9,-19,0,14,-14,-43,-53,-48,-87,-39,14
9,-9,-19,0,14,-14,-43,-48,-48,-97,-39,14
9,-9,-19,0,14,-14,-43,-48,-48,-97,-43,14
9,-9,-19,0,14,-14,-43,-48,-48,-97,-43,4
9,-9,-19,0,14,-14,-39,-48,-48,-97,-43,4
9,-9,-19,0,14,-14,-39,-48,-48,-92,-53,-4
9,-14,-24,2,17,-19,-39,-48,-43,-92,-53,-4
9,-14,-24,2,17,-19,-34,-43,-43,-92,-53,0
4,-9,-14,2,9,-12,-34,-43,-39,-87,-53,0
-4,-9,-4,7,0,-7,-34,-34,-39,-87,-58,-4
-4,-9,-4,7,0,-7,-34,-34,-39,-87,-58,-4
-9,-9,0,9,-4,-4,-34,-34,-39,-87,-58,-4
-9,-9,0,9,-4,-4,-34,-34,-39,-87,-58,-9
-9,-9,0,9,-4,-4,-34,-43,-39,-87,-58,-9
-9,-9,0,9,-4,-4,-34,-43,-39,-82,-63,-9
-9,-9,0,9,-4,-4,-34,-39,-39,-82,-63,-9
-9,-9,0,9,-4,-4,-29,-39,-34,-82,-63,-9
-9,-14,-4,12,-2,-9,-29,-39,-34,-78,-53,-9
-9,-14,-4,12,-2,-9,-29,-39,-34,-78,-48,-14
-9,-14,-4,12,-2,-9,-29,-39,-34,-78,-48,-14
-9,-14,-4,12,-2,-9,-29,-39,-34,-78,-48,-14
-9,-14,-4,12,-2,-9,-29,-39,-34,-78,-58,-14
-14,-19,-4,17,-4,-12,-29,-39,-34,-78,-58,-14
-14,-19,-4,17,-4,-12,-24,-39,-34,-78,-58,-14
-19,-14,4,17,-12,-4,-24,-39,-34,-78,-58,-14
-19,-14,4,17,-12,-4,-24,-39,-34,-78,-58,-19
-19,-14,4,17,-12,-4,-24,-39,-34,-78,-58,-19
-19,-14,4,17,-12,-4,-24,-39,-34,-78,-58,-19
-19,-14,4,17,-12,-4,-24,-39,-34,-73,-58,-19
-9,-14,-4,12,-2,-9,-14,-39,-34,-73,-53,-9
-9,-14,-4,12,-2,-9,-14,-39,-34,-73,-53,-9
-9,-14,-4,12,-2,-9,-14,-39,-34,-73,-53,-9
-9,-14,-4,12,-2,-9,-14,-39,-34,-78,-53,-14
-9,-9,0,9,-4,-4,-24,-48,-43,-78,-63,-24
-9,-9,0,9,-4,-4,-24,-48,-43,-78,-63,-24
-9,-9,0,9,-4,-4,-24,-48,-43,-78,-63,-24
-9,-14,-4,12,-2,-9,-24,-48,-48,-78,-63,-24
-9,-14,-4,12,-2,-9,-24,-39,-39,-78,-63,-24
-9,-14,-4,12,-2,-9,-24,-43,-39,-78,-63,-29
-14,-19,-4,17,-4,-12,-24,-43,-39,-78,-63,-29
-14,-19,-4,17,-4,-12,-24,-43,-43,-78,-63,-24
-19,-19,0,19,-9,-9,-14,-43,-43,-82,-63,-24
-19,-19,0,19,-9,-9,-14,-43,-43,-82,-68,-29
-19,-19,0,19,-9,-9,-14,-43,-43,-82,-68,-29
-19,-19,0,19,-9,-9,-14,-43,-43,-82,-68,-29
-9,-24,-14,17,2,-19,-24,-48,-48,-87,-68,-29
-9,-24,-14,17,2,-19,-24,-48,-48,-87,-68,-29
-9,-19,-9,14,0,-14,-24,-48,-48,-87,-68,-29
-9,-19,-9,14,0,-14,-24,-48,-48,-92,-68,-29
-19,-19,0,19,-9,-9,-24,-48,-53,-92,-63,-19
-19,-24,-4,21,-7,-14,-29,-53,-53,-97,-63,-19
-19,-24,-4,21,-7,-14,-29,-53,-53,-97,-63,-19
-19,-24,-4,21,-7,-14,-29,-53,-53,-97,-63,-19
-19,-24,-4,21,-7,-14,-29,-53,-53,-97,-73,-29
-19,-24,-4,21,-7,-14,-29,-53,-63,-97,-73,-29
-19,-24,-4,21,-7,-14,-29,-53,-63,-97,-73,-29
-19,-24,-4,21,-7,-14,-29,-53,-63,-102,-73,-29
-19,-24,-4,21,-7,-14,-29,-63,-63,-102,-73,-29
-19,-24,-4,21,-7,-14,-29,-63,-63,-102,-73,-29
-19,-24,-4,21,-7,-14,-29,-68,-63,-102,-73,-29
-19,-24,-4,21,-7,-14,-29,-68,-63,-102,-78,-29
-19,-24,-4,21,-7,-14,-29,-58,-68,-117,-78,-29
-19,-24,-4,21,-7,-14,-29,-58,-68,-117,-78,-29
-19,-24,-4,21,-7,-14,-29,-58,-68,-117,-78,-29
-19,-24,-4,21,-7,-14,-29,-63,-68,-117,-78,-29
-19,-34,-14,26,-2,-24,-29,-63,-68,-117,-78,-29
-19,-34,-14,26,-2,-24,-29,-63,-73,-122,-78,-29
-19,-29,-9,24,-4,-19,-34,-63,-73,-122,-78,-29
-14,-29,-14,21,0,-21,-34,-63,-73,-122,-78,-29
-14,-24,-9,19,-2,-17,-34,-63,-73,-112,-87,-24
-14,-24,-9,19,-2,-17,-34,-63,-73,-112,-87,-24
-14,-24,-9,19,-2,-17,-34,-63,-73,-117,-87,-24
-14,-24,-9,19,-2,-17,-34,-63,-73,-117,-87,-24
-14,-34,-19,24,2,-26,-34,-63,-73,-126,-78,-14
-19,-34,-14,26,-2,-24,-34,-63,-78,-126,-78,-14
-19,-34,-14,26,-2,-24,-34,-68,-78,-126,-78,-19
-14,-34,-19,24,2,-26,-34,-68,-78,-126,-78,-19
-14,-34,-19,24,2,-26,-34,-68,-78,-131,-92,-29
-19,-34,-14,26,-2,-24,-34,-68,-78,-131,-92,-29
-19,-34,-14,26,-2,-24,-34,-68,-78,-131,-92,-29
-19,-34,-14,26,-2,-24,-34,-68,-78,-131,-92,-29
-19,-34,-14,26,-2,-24,-34,-68,-82,-131,-82,-29
-19,-34,-14,26,-2,-24,-34,-68,-82,-131,-82,-29
-19,-34,-14,26,-2,-24,-34,-68,-82,-131,-82,-24
-14,-29,-14,21,0,-21,-34,-68,-82,-131,-82,-24
-14,-29,-14,21,0,-21,-34,-68,-82,-131,-92,-24
-14,-29,-14,21,0,-21,-34,-68,-82,-131,-92,-24
-14,-34,-19,24,2,-26,-34,-68,-82,-131,-92,-24
-14,-34,-19,24,2,-26,-34,-73,-82,-131,-92,-24
-14,-34,-19,24,2,-26,-24,-63,-87,-122,-82,-14
-14,-34,-19,24,2,-26,-24,-63,-87,-126,-82,-14
-14,-34,-19,24,2,-26,-24,-63,-87,-126,-87,-19
-14,-34,-19,24,2,-26,-24,-63,-87,-126,-87,-19
-14,-34,-19,24,2,-26,-39,-73,-87,-136,-87,-19
-14,-34,-19,24,2,-26,-39,-73,-87,-136,-87,-19
-14,-34,-19,24,2,-26,-34,-73,-87,-136,-87,-19
-14,-34,-19,24,2,-26,-34,-73,-87,-136,-87,-19
-14,-39,-24,26,4,-31,-34,-73,-87,-136,-97,-19
-14,-39,-24,26,4,-31,-39,-73,-87,-141,-97,-19
-14,-39,-24,26,4,-31,-39,-73,-87,-141,-97,-19
-14,-39,-24,26,4,-31,-39,-73,-87,-141,-97,-19
-4,-34,-29,19,12,-31,-29,-73,-92,-141,-87,-19
-4,-34,-29,19,12,-31,-29,-78,-92,-141,-87,-19
-4,-34,-29,19,12,-31,-29,-78,-92,-141,-92,-19
-4,-34,-29,19,12,-31,-29,-78,-92,-141,-92,-19
-4,-34,-29,19,12,-31,-29,-63,-82,-131,-78,-19
-4,-39,-34,21,14,-36,-29,-63,-82,-131,-87,-19
0,-29,-29,14,14,-29,-29,-68,-87,-136,-87,-19
0,-39,-39,19,19,-39,-29,-68,-87,-136,-78,-19
0,-39,-39,19,19,-39,-29,-68,-87,-136,-78,-19
0,-39,-39,19,19,-39,-29,-68,-87,-136,-78,-19
0,-39,-39,19,19,-39,-29,-68,-87,-136,-78,-19
-9,-48,-39,29,14,-43,-39,-68,-87,-136,-87,-19
-4,-53,-48,29,21,-51,-39,-68,-87,-136,-87,-19
-4,-53,-48,29,21,-51,-48,-68,-87,-136,-87,-19
4,-43,-48,19,26,-46,-53,-63,-87,-136,-82,-19
14,-24,-39,4,26,-31,-48,-43,-73,-117,-68,-4
19,-9,-29,-4,24,-19,-48,-43,-53,-107,-58,4
19,4,-14,-12,17,-4,-48,-39,-39,-97,-53,9
24,29,4,-26,9,17,-48,-34,-29,-87,-43,14
34,39,4,-36,14,21,-58,-39,-24,-78,-43,19
34,63,29,-48,2,46,-58,-29,-14,-63,-34,19
34,82,48,-58,-7,65,-53,-29,-4,-53,-24,34
34,102,68,-68,-17,85,-53,-24,4,-53,-19,39
24,102,78,-63,-26,90,-63,-34,4,-58,-14,48
24,97,73,-61,-24,85,-73,-29,4,-53,-9,48
34,87,53,-61,-9,70,-92,-24,4,-48,-9,48
39,82,43,-61,-2,63,-117,-24,4,-43,-4,48
48,97,48,-73,0,73,-136,-24,19,-29,4,68
58,107,48,-82,4,78,-151,-24,34,-24,14,78
68,122,53,-95,7,87,-161,-24,43,-19,19,82
78,141,63,-109,7,102,-165,-14,78,0,34,87
82,180,97,-131,-7,139,-185,-19,97,29,53,112
92,224,131,-158,-19,178,-200,-24,117,58,82,136
92,248,156,-170,-31,202,-214,-53,112,68,102,151
97,263,165,-180,-34,214,-229,-87,102,68,102,161
102,253,151,-178,-24,202,-234,-112,82,63,97,156
112,253,141,-183,-14,197,-239,-122,68,53,102,161
122,248,126,-185,-2,187,-239,-126,53,39,102,165
122,239,117,-180,2,178,-244,-136,39,34,97,165
131,234,102,-183,14,168,-234,-136,34,43,97,165
141,234,92,-187,24,163,-239,-131,39,43,107,175
141,239,97,-190,21,168,-239,-126,43,48,112,180
151,239,87,-195,31,163,-239,-117,43,48,112,185
141,229,87,-185,26,158,-219,-107,34,39,102,185
141,214,73,-178,34,143,-204,-102,34,39,107,185
131,214,82,-173,24,148,-204,-102,24,29,107,185
126,209,82,-168,21,146,-195,-107,9,19,97,180
122,195,73,-158,24,134,-190,-102,9,19,97,165
122,180,58,-151,31,119,-185,-102,4,9,87,161
112,175,63,-143,24,119,-170,-102,0,0,82,156
107,165,58,-136,24,112,-165,-97,4,0,82,151
97,146,48,-122,24,97,-141,-68,4,-4,68,141
82,117,34,-100,24,75,-117,-53,0,-9,63,131
63,78,14,-70,24,46,-78,-39,-4,-19,39,102
39,29,-9,-34,24,9,-48,-34,-24,-53,4,73
24,4,-19,-14,21,-7,-34,-43,-34,-68,-24,43
9,0,-9,-4,9,-4,-24,-39,-43,-87,-39,29
-14,-14,0,14,-7,-7,-9,-39,-43,-92,-48,14
-24,-29,-4,26,-9,-17,-4,-39,-58,-107,-73,-4
-34,-43,-9,39,-12,-26,-9,-53,-73,-126,-97,-19
-43,-58,-14,51,-14,-36,-9,-68,-87,-141,-102,-34
-39,-58,-19,48,-9,-39,-9,-78,-92,-146,-107,-34
-34,-58,-24,46,-4,-41,-9,-82,-92,-151,-107,-43
-29,-58,-29,43,0,-43,-4,-73,-87,-141,-107,-39
-29,-63,-34,46,2,-48,0,-73,-87,-146,-112,-39
-29,-68,-39,48,4,-53,0,-73,-97,-151,-117,-34
-29,-68,-39,48,4,-53,0,-78,-102,-165,-122,-34
-29,-58,-29,43,0,-43,0,-73,-107,-165,-117,-39
-34,-58,-24,46,-4,-41,0,-73,-107,-165,-117,-39
-34,-58,-24,46,-4,-41,0,-73,-107,-165,-117,-39
-34,-63,-29,48,-2,-46,0,-73,-107,-165,-122,-39
-34,-73,-39,53,2,-56,0,-73,-107,-165,-122,-48
-34,-73,-39,53,2,-56,4,-68,-107,-165,-122,-48
-34,-78,-43,56,4,-61,4,-68,-112,-165,-122,-48
-39,-78,-39,58,0,-58,4,-68,-112,-170,-122,-48
-48,-78,-29,63,-9,-53,4,-68,-112,-170,-131,-58
-48,-78,-29,63,-9,-53,9,-68,-112,-170,-131,-63
-48,-78,-29,63,-9,-53,9,-68,-117,-170,-136,-63
-48,-78,-29,63,-9,-53,9,-68,-117,-175,-136,-63
-48,-78,-29,63,-9,-53,4,-68,-107,-175,-131,-53
-48,-82,-34,65,-7,-58,4,-68,-107,-175,-131,-53
-48,-82,-34,65,-7,-58,9,-68,-107,-175,-131,-58
-53,-82,-29,68,-12,-56,9,-68,-107,-175,-131,-58
-43,-82,-39,63,-2,-61,9,-63,-107,-175,-131,-48
-43,-82,-39,63,-2,-61,9,-63,-107,-175,-131,-48
-39,-82,-43,61,2,-63,9,-63,-107,-175,-126,-48
-39,-82,-43,61,2,-63,9,-63,-102,-175,-126,-43
-39,-82,-43,61,2,-63,14,-63,-102,-170,-117,-43
-43,-78,-34,61,-4,-56,14,-63,-102,-170,-117,-43
-43,-78,-34,61,-4,-56,14,-63,-97,-170,-112,-43
-39,-78,-39,58,0,-58,19,-58,-97,-170,-112,-43
-39,-78,-39,58,0,-58,19,-58,-92,-156,-112,-43
-48,-78,-29,63,-9,-53,19,-48,-92,-151,-107,-43
-34,-63,-29,48,-2,-46,19,-58,-92,-136,-92,-34
-24,-63,-39,43,7,-51,19,-48,-92,-112,-87,-34
-34,-73,-39,53,2,-56,29,-14,-48,-78,-87,-43
-29,-82,-53,56,12,-68,39,53,39,-14,-87,-63
-29,-63,-34,46,2,-48,53,107,170,112,-39,-63
-19,-4,14,12,-17,4,53,161,331,283,48,-43
-19,39,58,-9,-39,48,53,219,507,478,136,-9
-4,68,73,-31,-39,70,43,214,551,595,219,34
19,102,82,-61,-31,92,-19,97,366,590,302,107
48,156,107,-102,-29,131,-117,-165,0,492,419,229
73,214,141,-143,-34,178,-283,-585,-541,297,570,395
78,263,185,-170,-53,224,-478,-1068,-1215,-9,683,541
102,297,195,-200,-46,246,-663,-1503,-1859,-302,800,692
156,351,195,-253,-19,273,-863,-1878,-2342,-444,1049,932
248,434,185,-341,31,309,-1078,-2239,-2727,-502,1420,1244
370,502,131,-436,119,317,-1268,-2522,-3040,-497,1859,1581
492,566,73,-529,209,319,-1473,-2737,-3294,-463,2308,1912
619,658,39,-639,290,348,-1693,-2967,-3542,-429,2757,2264
741,756,14,-749,363,385,-1893,-3172,-3733,-405,3186,2620
834,800,-34,-817,434,383,-2039,-3303,-3840,-405,3503,2893
873,819,-53,-846,463,383,-2122,-3411,-3933,-580,3445,2981
868,771,-97,-819,483,336,-2117,-3469,-4016,-966,2976,2849
854,634,-219,-744,536,207,-2025,-3381,-3986,-1351,2308,2542
761,424,-336,-592,549,43,-1830,-3220,-3894,-1786,1415,2059
556,263,-292,-409,424,-14,-1595,-3074,-3801,-2366,253,1454
395,126,-268,-261,331,-70,-1405,-2913,-3655,-2859,-732,956
361,-63,-424,-148,392,-244,-1259,-2625,-3362,-2967,-1156,668
361,-244,-605,-58,483,-424,-1083,-2225,-2908,-2674,-1161,492
331,-278,-610,-26,470,-444,-932,-1849,-2400,-2225,-1029,419
326,-239,-566,-43,446,-402,-829,-1537,-1956,-1830,-839,419
336,-224,-561,-56,448,-392,-722,-1249,-1586,-1493,-649,400
322,-229,-551,-46,436,-390,-570,-961,-1234,-1166,-492,361
287,-209,-497,-39,392,-353,-424,-702,-888,-854,-331,326
253,-131,-385,-61,319,-258,-297,-488,-595,-600,-214,268
190,-63,-253,-63,222,-158,-200,-341,-409,-434,-161,185
131,-63,-195,-34,163,-129,-112,-219,-273,-317,-136,117
82,-73,-156,-4,119,-114,-39,-117,-156,-224,-102,63
19,-58,-78,19,48,-68,14,-43,-58,-151,-82,9
-14,-68,-53,41,19,-61,58,19,9,-87,-82,-34
-19,-78,-58,48,19,-68,87,58,53,-48,-82,-68
-29,-82,-53,56,12,-68,117,97,97,-29,-73,-97
-34,-82,-48,58,7,-65,131,117,122,-19,-82,-117
-34,-87,-53,61,9,-70,151,126,131,-24,-97,-122
-48,-82,-34,65,-7,-58,165,146,136,-14,-112,-122
-68,-87,-19,78,-24,-53,175,151,151,-24,-112,-131
-78,-97,-19,87,-29,-58,190,175,165,-19,-122,-131
-87,-107,-19,97,-34,-63,190,175,170,-14,-126,-136
-87,-112,-24,100,-31,-68,190,175,170,-14,-131,-141
-73,-112,-39,92,-17,-75,180,175,170,-24,-131,-146
-73,-112,-39,92,-17,-75,175,175,170,-24,-136,-151
-73,-112,-39,92,-17,-75,175,175,170,-24,-141,-156
-68,-112,-43,90,-12,-78,180,185,180,-24,-141,-161
-68,-112,-43,90,-12,-78,190,190,185,-14,-141,-161
-78,-112,-34,95,-21,-73,195,200,195,-14,-141,-161
-82,-112,-29,97,-26,-70,200,204,195,-9,-141,-156
-82,-112,-29,97,-26,-70,204,209,195,-9,-141,-156
-78,-102,-24,90,-26,-63,214,209,200,4,-146,-161
-78,-102,-24,90,-26,-63,214,214,200,4,-146,-161
-78,-102,-24,90,-26,-63,214,214,200,4,-146,-161
-78,-102,-24,90,-26,-63,214,219,204,4,-146,-165
-87,-112,-24,100,-31,-68,209,209,204,9,-146,-180
-87,-112,-24,100,-31,-68,209,219,204,9,-146,-180
-87,-112,-24,100,-31,-68,209,219,209,9,-151,-180
-87,-112,-24,100,-31,-68,209,219,214,14,-151,-180
-92,-112,-19,102,-36,-65,214,224,214,14,-151,-180
-92,-112,-19,102,-36,-65,214,224,219,14,-156,-185
-92,-107,-14,100,-39,-61,214,229,219,14,-156,-185
-92,-107,-14,100,-39,-61,214,229,219,14,-156,-185
-82,-107,-24,95,-29,-65,214,229,224,14,-156,-180
-82,-112,-29,97,-26,-70,219,234,224,19,-156,-180
-82,-112,-29,97,-26,-70,219,239,229,19,-156,-180
-82,-112,-29,97,-26,-70,219,244,229,19,-161,-185
-82,-117,-34,100,-24,-75,229,248,244,29,-151,-185
-87,-117,-29,102,-29,-73,229,248,248,34,-151,-190
-87,-117,-29,102,-29,-73,234,248,248,34,-151,-190
-87,-117,-29,102,-29,-73,234,248,248,34,-156,-190
-97,-107,-9,102,-43,-58,234,253,253,29,-165,-200
-97,-107,-9,102,-43,-58,234,258,253,29,-165,-209
-97,-107,-9,102,-43,-58,239,268,263,29,-165,-209
-97,-107,-9,102,-43,-58,239,268,263,29,-175,-209
-87,-107,-19,97,-34,-63,229,268,253,29,-175,-214
-92,-102,-9,97,-41,-56,229,268,258,34,-175,-214
-92,-102,-9,97,-41,-56,234,273,263,34,-175,-219
-92,-102,-9,97,-41,-56,234,273,263,39,-175,-224
-107,-112,-4,109,-51,-58,234,278,263,39,-180,-224
-107,-112,-4,109,-51,-58,239,287,273,39,-180,-224
-107,-112,-4,109,-51,-58,239,292,278,43,-180,-224
-107,-112,-4,109,-51,-58,244,292,283,48,-180,-224
-97,-102,-4,100,-46,-53,244,297,287,48,-185,-229
-97,-107,-9,102,-43,-58,244,302,292,48,-185,-229
-102,-107,-4,104,-48,-56,248,307,297,53,-185,-229
-102,-102,0,102,-51,-51,248,312,302,53,-185,-239
-102,-102,0,102,-51,-51,248,317,302,53,-190,-239
-102,-102,0,102,-51,-51,248,322,312,53,-190,-239
-102,-102,0,102,-51,-51,253,326,317,53,-195,-239
-107,-102,4,104,-56,-48,253,331,322,63,-195,-244
-107,-102,4,104,-56,-48,258,341,326,73,-195,-244
-107,-102,4,104,-56,-48,258,346,331,78,-195,-244
-107,-97,9,102,-58,-43,258,351,336,82,-195,-248
-107,-97,9,102,-58,-43,263,356,341,82,-195,-248
-107,-97,9,102,-58,-43,278,361,351,87,-195,-253
-107,-97,9,102,-58,-43,278,370,356,92,-200,-258
-112,-97,14,104,-63,-41,278,375,361,97,-200,-268
-112,-97,14,104,-63,-41,283,380,375,102,-200,-273
-112,-107,4,109,-58,-51,283,390,380,107,-200,-268
-112,-107,4,109,-58,-51,283,400,385,107,-200,-268
-117,-107,9,112,-63,-48,283,409,390,117,-200,-268
-117,-107,9,112,-63,-48,287,409,395,117,-204,-278
-117,-102,14,109,-65,-43,287,414,414,131,-204,-278
-117,-102,14,109,-65,-43,287,424,424,136,-204,-278
-117,-102,14,109,-65,-43,292,439,434,141,-204,-278
-117,-102,14,109,-65,-43,297,439,444,146,-204,-287
-117,-102,14,109,-65,-43,297,458,453,156,-195,-287
-117,-102,14,109,-65,-43,307,473,453,161,-195,-287
-122,-102,19,112,-70,-41,312,483,468,165,-195,-292
-122,-97,24,109,-73,-36,317,492,473,170,-195,-292
-122,-87,34,104,-78,-26,317,497,478,170,-204,-297
-122,-87,34,104,-78,-26,317,507,488,180,-204,-297
-122,-87,34,104,-78,-26,326,517,502,185,-204,-297
-122,-87,34,104,-78,-26,326,527,512,190,-204,-307
-126,-92,34,109,-80,-29,326,541,522,200,-204,-312
-126,-92,34,109,-80,-29,336,551,531,204,-200,-312
-126,-92,34,109,-80,-29,336,570,541,219,-200,-312
-126,-87,39,107,-82,-24,341,575,556,229,-200,-312
-126,-87,39,107,-82,-24,346,590,566,239,-200,-317
-126,-78,48,102,-87,-14,346,605,575,248,-195,-322
-126,-78,48,102,-87,-14,351,619,595,258,-195,-322
-126,-78,48,102,-87,-14,356,634,610,263,-195,-322
-126,-68,58,97,-92,-4,361,639,629,278,-180,-322
-126,-63,63,95,-95,0,361,649,644,287,-175,-322
-126,-63,63,95,-95,0,361,668,653,297,-175,-331
-126,-63,63,95,-95,0,370,683,663,307,-170,-331
-126,-53,73,90,-100,9,375,688,673,326,-180,-331
-131,-53,78,92,-104,12,380,702,692,341,-170,-331
-131,-48,82,90,-107,17,385,717,707,351,-165,-331
-131,-43,87,87,-109,21,390,732,722,366,-161,-331
-141,-48,92,95,-117,21,380,741,736,385,-156,-331
-141,-39,102,90,-122,31,380,756,751,400,-146,-336
-141,-34,107,87,-124,36,390,761,771,414,-141,-336
-141,-29,112,85,-126,41,390,775,785,434,-136,-336
-131,-24,107,78,-119,41,395,785,805,448,-122,-346
-131,-19,112,75,-122,46,395,795,819,473,-117,-346
-136,-14,122,75,-129,53,395,814,839,488,-107,-346
-136,-14,122,75,-129,53,395,824,854,507,-92,-351
-136,0,136,68,-136,68,400,824,858,541,-82,-341
-136,9,146,63,-141,78,405,834,878,561,-73,-341
-136,14,151,61,-143,82,405,834,893,585,-63,-341
-136,19,156,58,-146,87,405,839,902,600,-53,-341
-136,24,161,56,-148,92,405,834,907,639,-29,-346
-136,29,165,53,-151,97,405,834,927,658,-19,-346
-136,34,170,51,-153,102,400,834,946,678,-9,-346
-141,43,185,48,-163,114,400,834,956,707,4,-341
-131,39,170,46,-151,104,395,824,961,717,19,-336
-131,43,175,43,-153,109,390,810,971,741,39,-336
-131,48,180,41,-156,114,385,800,980,761,53,-336
-131,53,185,39,-158,119,380,785,980,785,73,-336
-141,58,200,41,-170,129,375,785,985,819,82,-326
-141,58,200,41,-170,129,361,775,990,834,97,-322
-141,68,209,36,-175,139,351,756,990,854,112,-317
-136,68,204,34,-170,136,341,736,990,878,126,-312
-136,68,204,34,-170,136,331,717,990,897,141,-297
-136,68,204,34,-170,136,322,697,985,907,161,-292
-136,73,209,31,-173,141,312,673,971,912,180,-287
-131,78,209,26,-170,143,302,653,961,922,195,-278
-131,78,209,26,-170,143,292,639,936,912,200,-273
-126,78,204,24,-165,141,287,614,917,917,204,-263
-126,82,209,21,-168,146,268,585,897,917,214,-258
-122,82,204,19,-163,143,253,556,883,907,219,-253
-131,73,204,29,-168,139,229,536,858,893,234,-244
-126,73,200,26,-163,136,219,507,829,873,234,-239
-122,78,200,21,-161,139,204,483,805,849,234,-234
-122,82,204,19,-163,143,200,453,771,824,234,-224
-117,73,190,21,-153,131,190,434,741,790,224,-229
-112,73,185,19,-148,129,175,405,707,761,214,-224
-107,68,175,19,-141,122,161,375,678,727,200,-219
-97,63,161,17,-129,112,146,346,644,688,180,-214
-82,68,151,7,-117,109,131,322,605,649,161,-200
-82,63,146,9,-114,104,122,297,570,614,141,-195
-78,63,141,7,-109,102,107,278,536,580,136,-185
-68,58,126,4,-97,92,92,248,502,536,117,-185
-63,48,112,7,-87,80,97,234,478,497,122,-175
-58,43,102,7,-80,73,87,209,439,458,107,-161
-48,43,92,2,-70,68,68,185,400,414,92,-161
-43,39,82,2,-63,61,58,161,361,375,87,-146
-24,34,58,-4,-41,46,39,146,336,341,87,-126
-14,29,43,-7,-29,36,24,126,302,302,78,-112
-4,24,29,-9,-17,26,14,112,268,268,68,-102
-4,24,29,-9,-17,26,9,92,239,239,58,-82
-9,29,39,-9,-24,34,0,82,214,204,58,-82
0,24,24,-12,-12,24,-9,63,185,180,53,-68
4,19,14,-12,-4,17,-19,43,156,151,48,-48
4,19,14,-12,-4,17,-24,34,126,131,48,-43
4,14,9,-9,-2,12,-19,24,117,117,43,-24
4,9,4,-7,0,7,-24,9,102,92,43,-4
9,9,0,-9,4,4,-34,0,82,78,39,0
14,9,-4,-12,9,2,-34,-4,63,58,34,9
14,4,-9,-9,12,-2,-39,-4,58,48,34,9
24,4,-19,-14,21,-7,-43,-19,43,34,34,19
24,4,-19,-14,21,-7,-43,-29,29,24,34,19
19,4,-14,-12,17,-4,-48,-34,14,9,34,29
19,4,-14,-12,17,-4,-53,-39,4,-4,29,34
24,0,-24,-12,24,-12,-58,-43,0,-9,29,39
24,0,-24,-12,24,-12,-58,-48,-9,-19,29,43
24,-4,-29,-9,26,-17,-58,-53,-19,-24,29,48
24,-9,-34,-7,29,-21,-58,-48,-9,-34,19,48
24,-9,-34,-7,29,-21,-58,-53,-24,-43,19,48
24,-9,-34,-7,29,-21,-58,-53,-24,-43,19,53
29,-9,-39,-9,34,-24,-58,-58,-29,-48,19,53
29,-9,-39,-9,34,-24,-58,-58,-34,-53,14,53
29,-9,-39,-9,34,-24,-58,-58,-39,-58,14,53
29,-9,-39,-9,34,-24,-63,-58,-43,-63,14,53
29,-14,-43,-7,36,-29,-63,-58,-43,-63,14,53
39,-14,-53,-12,46,-34,-63,-58,-43,-68,9,53
39,-14,-53,-12,46,-34,-63,-63,-43,-73,9,53
39,-19,-58,-9,48,-39,-63,-63,-53,-73,9,53
39,-19,-58,-9,48,-39,-63,-63,-53,-78,9,53
29,-19,-48,-4,39,-34,-53,-63,-53,-68,19,53
29,-19,-48,-4,39,-34,-53,-63,-53,-68,19,53
29,-29,-58,0,43,-43,-53,-63,-53,-68,14,53
29,-29,-58,0,43,-43,-53,-63,-53,-68,14,53
29,-14,-43,-7,36,-29,-63,-73,-53,-68,4,53
29,-14,-43,-7,36,-29,-58,-73,-53,-68,4,53
24,-14,-39,-4,31,-26,-58,-73,-53,-68,4,53
24,-19,-43,-2,34,-31,-58,-73,-53,-68,4,53
24,-9,-34,-7,29,-21,-48,-68,-53,-68,4,53
29,-9,-39,-9,34,-24,-48,-68,-53,-68,0,48
29,-9,-39,-9,34,-24,-48,-68,-53,-68,0,48
29,-14,-43,-7,36,-29,-48,-68,-53,-68,-4,48
24,-24,-48,0,36,-36,-53,-58,-43,-78,-14,43
24,-24,-48,0,36,-36,-53,-58,-43,-78,-14,43
24,-24,-48,0,36,-36,-53,-53,-43,-78,-14,43
24,-24,-48,0,36,-36,-53,-53,-43,-82,-14,43
24,-29,-53,2,39,-41,-53,-63,-48,-82,-9,43
24,-29,-53,2,39,-41,-53,-63,-48,-82,-14,43
24,-29,-53,2,39,-41,-53,-58,-48,-82,-14,39
24,-29,-53,2,39,-41,-48,-58,-48,-82,-14,39
29,-19,-48,-4,39,-34,-39,-48,-48,-82,-14,39
29,-24,-53,-2,41,-39,-39,-48,-43,-87,-24,39
29,-24,-53,-2,41,-39,-39,-43,-43,-87,-24,34
34,-24,-58,-4,46,-41,-34,-43,-43,-87,-29,34
24,-24,-48,0,36,-36,-43,-53,-39,-78,-39,24
19,-24,-43,2,31,-34,-43,-53,-39,-78,-39,19
19,-24,-43,2,31,-34,-43,-53,-39,-78,-39,19
14,-24,-39,4,26,-31,-43,-53,-39,-78,-39,19
14,-34,-48,9,31,-41,-43,-48,-48,-87,-43,19
14,-34,-48,9,31,-41,-43,-48,-43,-87,-43,14
14,-34,-48,9,31,-41,-39,-48,-43,-87,-43,14
14,-34,-48,9,31,-41,-39,-43,-43,-87,-43,9
14,-34,-48,9,31,-41,-34,-34,-43,-87,-43,9
14,-39,-53,12,34,-46,-34,-34,-43,-87,-43,4
14,-39,-53,12,34,-46,-34,-34,-43,-87,-48,4
9,-39,-48,14,29,-43,-34,-34,-39,-87,-48,4
9,-29,-39,9,24,-34,-34,-29,-29,-78,-48,14
9,-29,-39,9,24,-34,-34,-29,-29,-78,-53,14
9,-29,-39,9,24,-34,-34,-29,-29,-78,-53,4
9,-29,-39,9,24,-34,-29,-29,-29,-78,-53,4
9,-29,-39,9,24,-34,-29,-39,-39,-82,-43,4
9,-34,-43,12,26,-39,-29,-39,-34,-82,-43,4
9,-34,-43,12,26,-39,-24,-34,-34,-82,-43,9
4,-29,-34,12,19,-31,-24,-34,-29,-78,-43,9
4,-39,-43,17,24,-41,-34,-34,-29,-78,-58,4
4,-39,-43,17,24,-41,-34,-34,-29,-78,-58,4
0,-39,-39,19,19,-39,-34,-34,-29,-78,-58,4
0,-39,-39,19,19,-39,-34,-34,-29,-78,-58,0
0,-39,-39,19,19,-39,-24,-34,-19,-78,-48,-9
0,-39,-39,19,19,-39,-24,-34,-19,-73,-53,-9
0,-39,-39,19,19,-39,-24,-29,-19,-73,-53,-9
0,-39,-39,19,19,-39,-19,-29,-14,-73,-53,-9
-9,-39,-29,24,9,-34,-19,-29,-24,-58,-53,0
-9,-34,-24,21,7,-29,-19,-29,-24,-58,-48,-4
-9,-29,-19,19,4,-24,-19,-29,-24,-58,-48,-4
-9,-24,-14,17,2,-19,-19,-29,-24,-58,-48,-4
0,-34,-34,17,17,-34,-29,-29,-24,-68,-58,-14
-4,-39,-34,21,14,-36,-29,-29,-24,-68,-58,-14
-4,-39,-34,21,14,-36,-24,-29,-24,-68,-58,-14
-9,-34,-24,21,7,-29,-24,-29,-24,-68,-58,-14
-9,-34,-24,21,7,-29,-24,-29,-24,-58,-58,-19
-9,-34,-24,21,7,-29,-24,-29,-24,-58,-58,-19
-9,-34,-24,21,7,-29,-24,-29,-24,-58,-58,-19
-9,-34,-24,21,7,-29,-24,-29,-24,-53,-58,-19
-9,-34,-24,21,7,-29,-24,-29,-24,-63,-53,-9
-9,-34,-24,21,7,-29,-24,-29,-24,-63,-53,-9
-9,-34,-24,21,7,-29,-24,-29,-24,-63,-53,-9
-9,-34,-24,21,7,-29,-24,-29,-24,-68,-53,-14
0,-39,-39,19,19,-39,-24,-29,-34,-58,-53,-14
0,-39,-39,19,19,-39,-24,-29,-34,-58,-53,-14
0,-39,-39,19,19,-39,-24,-29,-34,-58,-53,-14
0,-43,-43,21,21,-43,-24,-29,-39,-58,-53,-14
-9,-43,-34,26,12,-39,-14,-29,-29,-68,-53,-24
-9,-43,-34,26,12,-39,-14,-34,-29,-68,-53,-29
-14,-48,-34,31,9,-41,-14,-34,-29,-68,-53,-29
-14,-48,-34,31,9,-41,-14,-34,-34,-68,-53,-24
-9,-39,-29,24,9,-34,-24,-34,-34,-73,-53,-24
-9,-39,-29,24,9,-34,-24,-34,-34,-73,-58,-29
-9,-39,-29,24,9,-34,-24,-34,-34,-73,-58,-29
-9,-39,-29,24,9,-34,-24,-34,-34,-73,-58,-29
-9,-53,-43,31,17,-48,-24,-48,-39,-78,-58,-29
-9,-53,-43,31,17,-48,-24,-48,-39,-78,-58,-29
-9,-48,-39,29,14,-43,-24,-48,-39,-78,-58,-29
-9,-48,-39,29,14,-43,-24,-48,-39,-82,-58,-29
-9,-39,-29,24,9,-34,-24,-39,-53,-82,-63,-29
-9,-43,-34,26,12,-39,-29,-43,-53,-87,-63,-29
-9,-43,-34,26,12,-39,-29,-43,-53,-87,-63,-29
-9,-43,-34,26,12,-39,-29,-43,-53,-87,-63,-29
-9,-43,-34,26,12,-39,-19,-43,-43,-87,-63,-29
-9,-43,-34,26,12,-39,-19,-43,-53,-87,-63,-29
-9,-43,-34,26,12,-39,-19,-43,-53,-87,-63,-29
-9,-43,-34,26,12,-39,-19,-43,-53,-92,-63,-29
-9,-43,-34,26,12,-39,-29,-43,-53,-92,-63,-19
-9,-43,-34,26,12,-39,-29,-43,-53,-92,-63,-19
-9,-43,-34,26,12,-39,-29,-48,-53,-92,-63,-19
-9,-43,-34,26,12,-39,-29,-48,-53,-92,-68,-19
-9,-43,-34,26,12,-39,-29,-48,-58,-97,-78,-29
-9,-43,-34,26,12,-39,-29,-48,-58,-97,-78,-29
-9,-43,-34,26,12,-39,-29,-48,-58,-97,-78,-29
-9,-43,-34,26,12,-39,-29,-53,-58,-97,-78,-29
-9,-53,-43,31,17,-48,-19,-53,-58,-97,-78,-19
-9,-53,-43,31,17,-48,-19,-53,-63,-102,-78,-19
-9,-48,-39,29,14,-43,-24,-53,-63,-102,-78,-19
-4,-48,-43,26,19,-46,-24,-53,-63,-102,-78,-19
-4,-53,-48,29,21,-51,-24,-53,-73,-92,-78,-14
-4,-53,-48,29,21,-51,-24,-53,-73,-92,-78,-14
-4,-53,-48,29,21,-51,-24,-53,-73,-97,-78,-14
-4,-53,-48,29,21,-51,-24,-53,-73,-97,-78,-14
-4,-53,-48,29,21,-51,-24,-53,-63,-107,-78,-14
-9,-53,-43,31,17,-48,-24,-53,-68,-107,-78,-14
-9,-53,-43,31,17,-48,-24,-58,-68,-107,-78,-19
-4,-53,-48,29,21,-51,-24,-58,-68,-107,-78,-19
-4,-43,-39,24,17,-41,-34,-58,-68,-102,-82,-19
-9,-43,-34,26,12,-39,-34,-58,-68,-102,-82,-19
-9,-43,-34,26,12,-39,-34,-58,-68,-102,-82,-19
-9,-43,-34,26,12,-39,-34,-58,-68,-102,-82,-19
-9,-53,-43,31,17,-48,-34,-58,-73,-102,-73,-19
-9,-53,-43,31,17,-48,-34,-58,-73,-102,-73,-19
-9,-53,-43,31,17,-48,-34,-58,-73,-102,-73,-14
-4,-48,-43,26,19,-46,-34,-58,-73,-102,-73,-14
-4,-48,-43,26,19,-46,-34,-58,-73,-112,-73,-14
-4,-48,-43,26,19,-46,-34,-58,-73,-112,-73,-14
-4,-53,-48,29,21,-51,-34,-58,-73,-112,-73,-14
-4,-53,-48,29,21,-51,-34,-63,-73,-112,-73,-14
-4,-53,-48,29,21,-51,-34,-63,-68,-112,-82,-24
-4,-53,-48,29,21,-51,-34,-63,-68,-117,-82,-24
-4,-53,-48,29,21,-51,-34,-63,-68,-117,-87,-29
-4,-53,-48,29,21,-51,-34,-63,-68,-117,-87,-29
-14,-53,-39,34,12,-46,-29,-63,-78,-117,-78,-19
-14,-53,-39,34,12,-46,-29,-63,-78,-117,-78,-19
-14,-53,-39,34,12,-46,-24,-63,-78,-117,-78,-19
-14,-53,-39,34,12,-46,-24,-63,-78,-117,-78,-19
-4,-48,-43,26,19,-46,-34,-63,-78,-117,-87,-19
-4,-39,-34,21,14,-36,-29,-63,-78,-112,-87,-19
-9,-48,-39,29,14,-43,-29,-58,-68,-117,-87,-19
-9,-48,-39,29,14,-43,-29,-58,-78,-117,-87,-19
-9,-48,-39,29,14,-43,-29,-58,-78,-117,-87,-19
-9,-48,-39,29,14,-43,-29,-58,-78,-117,-87,-19
-9,-48,-39,29,14,-43,-29,-58,-78,-117,-87,-19
-9,-48,-39,29,14,-43,-29,-58,-78,-117,-78,-19
-4,-53,-48,29,21,-51,-29,-58,-78,-117,-78,-19
-4,-53,-48,29,21,-51,-39,-58,-78,-117,-78,-19
4,-43,-48,19,26,-46,-43,-53,-78,-117,-73,-19
24,-29,-53,2,39,-41,-48,-43,-68,-97,-68,-4
29,-19,-48,-4,39,-34,-48,-43,-53,-87,-58,4
29,-9,-39,-9,34,-24,-48,-39,-43,-78,-53,9
34,9,-24,-21,29,-7,-48,-34,-39,-68,-43,14
34,39,4,-36,14,21,-48,-29,-24,-68,-34,19
34,63,29,-48,2,46,-48,-19,-14,-53,-24,19
34,82,48,-58,-7,65,-43,-19,-4,-43,-14,34
34,102,68,-68,-17,85,-43,-14,4,-43,-9,39
34,107,73,-70,-19,90,-58,-14,14,-29,-14,48
34,107,73,-70,-19,90,-63,-9,14,-24,-9,48
43,102,58,-73,-7,80,-78,-4,14,-19,-9,48
48,102,53,-75,-2,78,-97,-4,14,-14,-4,48
53,112,58,-82,-2,85,-117,-14,24,-19,-4,58
58,117,58,-87,0,87,-131,-14,34,-14,4,68
63,126,63,-95,0,95,-141,-14,39,-9,9,73
68,141,73,-104,-2,107,-146,-4,68,9,24,78
82,175,92,-129,-4,134,-165,0,82,39,43,92
92,214,122,-153,-14,168,-180,-4,107,68,73,117
92,234,141,-163,-24,187,-195,-34,107,78,92,131
97,244,146,-170,-24,195,-209,-68,102,78,92,141
102,239,136,-170,-17,187,-219,-87,87,68,87,146
112,244,131,-178,-9,187,-229,-102,78,63,92,151
122,244,122,-183,0,183,-234,-112,68,53,92,156
122,239,117,-180,2,178,-244,-126,58,53,87,156
131,234,102,-183,14,168,-234,-126,48,63,97,156
141,234,92,-187,24,163,-239,-122,48,63,107,165
141,239,97,-190,21,168,-239,-117,48,68,112,170
151,239,87,-195,31,163,-239,-107,43,68,112,175
151,219,68,-185,41,143,-239,-107,43,58,112,175
151,204,53,-178,48,129,-224,-102,43,58,117,175
141,204,63,-173,39,134,-224,-102,34,48,117,175
136,200,63,-168,36,131,-214,-107,19,39,107,170
122,185,63,-153,29,124,-209,-102,14,39,87,175
122,170,48,-146,36,109,-204,-102,4,29,78,170
112,165,53,-139,29,109,-190,-102,-4,19,73,165
107,156,48,-131,29,102,-185,-97,-4,19,73,161
112,146,34,-129,39,90,-156,-78,9,19,82,146
102,126,24,-114,39,75,-136,-63,9,19,82,141
87,97,9,-92,39,53,-102,-48,9,14,63,117
68,58,-9,-63,39,24,-78,-43,-4,-14,34,92
53,39,-14,-46,34,12,-58,-43,-24,-29,4,73
39,29,-9,-34,24,9,-43,-39,-34,-48,-9,58
14,9,-4,-12,9,2,-24,-39,-34,-53,-19,43
4,-9,-14,2,9,-12,-14,-39,-48,-68,-43,24
-9,-29,-19,19,4,-24,-9,-48,-53,-97,-63,-9
-24,-48,-24,36,0,-36,-9,-58,-68,-112,-73,-24
-24,-53,-29,39,2,-41,-9,-63,-73,-117,-82,-24
-24,-58,-34,41,4,-46,-9,-63,-73,-122,-87,-34
-29,-58,-29,43,0,-43,-4,-63,-78,-122,-87,-24
-29,-63,-34,46,2,-48,0,-63,-78,-126,-92,-29
-29,-68,-39,48,4,-53,0,-63,-87,-131,-97,-29
-29,-68,-39,48,4,-53,0,-68,-92,-146,-102,-34
-29,-68,-39,48,4,-53,0,-73,-97,-146,-107,-48
-34,-68,-34,51,0,-51,0,-73,-97,-146,-107,-48
-34,-68,-34,51,0,-51,0,-73,-97,-146,-107,-48
-34,-73,-39,53,2,-56,0,-73,-97,-146,-112,-48
-34,-73,-39,53,2,-56,0,-73,-107,-146,-112,-39
-34,-73,-39,53,2,-56,4,-68,-107,-146,-112,-39
-34,-78,-43,56,4,-61,4,-68,-112,-146,-112,-39
-39,-78,-39,58,0,-58,4,-68,-112,-151,-112,-39
-39,-78,-39,58,0,-58,-4,-68,-112,-151,-122,-48
-39,-78,-39,58,0,-58,0,-68,-112,-151,-122,-53
-39,-78,-39,58,0,-58,0,-68,-117,-151,-126,-53
-39,-78,-39,58,0,-58,0,-68,-117,-156,-126,-53
-39,-78,-39,58,0,-58,4,-68,-107,-156,-122,-43
-39,-82,-43,61,2,-63,4,-68,-107,-156,-122,-43
-39,-82,-43,61,2,-63,9,-68,-107,-156,-122,-48
-43,-82,-39,63,-2,-61,9,-68,-107,-156,-122,-48
-43,-92,-48,68,2,-70,9,-63,-107,-156,-122,-48
-43,-92,-48,68,2,-70,9,-63,-107,-156,-122,-48
-39,-92,-53,65,7,-73,9,-63,-107,-156,-117,-48
-39,-92,-53,65,7,-73,9,-63,-102,-156,-117,-43
-39,-82,-43,61,2,-63,4,-63,-102,-141,-117,-53
-43,-78,-34,61,-4,-56,4,-63,-102,-141,-117,-53
-43,-78,-34,61,-4,-56,4,-63,-97,-141,-112,-53
-39,-78,-39,58,0,-58,9,-58,-97,-141,-112,-53
-39,-68,-29,53,-4,-48,19,-48,-92,-126,-102,-43
-39,-68,-29,53,-4,-48,19,-48,-92,-131,-107,-34
-34,-63,-29,48,-2,-46,9,-58,-102,-136,-102,-34
-43,-63,-19,53,-12,-41,9,-58,-92,-122,-97,-34
-43,-73,-29,58,-7,-51,9,-43,-78,-97,-78,-34
-29,-82,-53,56,12,-68,19,-4,-48,-53,-78,-43
-19,-82,-63,51,21,-73,24,48,34,14,-68,-53
-19,-63,-43,41,12,-53,34,102,165,136,-39,-53
-9,-9,0,9,-4,-4,43,161,341,312,48,-29
-4,29,34,-12,-19,31,43,224,502,517,151,4
0,53,53,-26,-26,53,29,204,512,610,234,48
9,87,78,-48,-34,82,-29,68,302,570,312,122
24,156,131,-90,-53,143,-136,-234,-92,444,414,229
39,224,185,-131,-73,204,-312,-678,-688,195,517,375
63,258,195,-161,-65,226,-507,-1180,-1400,-156,585,497
97,273,175,-185,-39,224,-697,-1625,-2030,-463,678,639
170,326,156,-248,7,241,-902,-2025,-2532,-629,912,854
253,414,161,-334,46,287,-1122,-2405,-2942,-702,1273,1151
356,468,112,-412,122,290,-1327,-2698,-3284,-717,1712,1483
473,522,48,-497,212,285,-1527,-2928,-3533,-673,2161,1815
605,600,-4,-602,305,297,-1747,-3162,-3762,-619,2620,2152
717,702,-14,-710,366,344,-1952,-3372,-3928,-541,3074,2493
824,771,-53,-797,439,358,-2093,-3498,-3991,-492,3406,2766
868,780,-87,-824,478,346,-2166,-3606,-4055,-644,3328,2840
893,702,-190,-797,541,256,-2142,-3625,-4094,-1000,2845,2688
878,541,-336,-710,607,102,-2034,-3484,-4030,-1366,2156,2371
780,361,-419,-570,600,-29,-1839,-3298,-3899,-1800,1288,1903
580,204,-375,-392,478,-85,-1610,-3167,-3782,-2371,165,1317
419,63,-356,-241,387,-146,-1434,-2986,-3625,-2849,-766,863
390,-136,-527,-126,458,-331,-1288,-2674,-3318,-2908,-1122,619
400,-287,-688,-56,544,-488,-1127,-2259,-2849,-2576,-1098,468
375,-297,-673,-39,524,-485,-966,-1878,-2357,-2152,-976,409
356,-253,-610,-51,483,-431,-849,-1571,-1947,-1786,-805,429
361,-248,-610,-56,485,-429,-727,-1293,-1595,-1468,-639,400
336,-248,-585,-43,461,-417,-590,-1015,-1249,-1156,-488,346
302,-229,-531,-36,417,-380,-424,-732,-888,-844,-331,317
248,-161,-409,-43,329,-285,-287,-488,-585,-600,-209,263
180,-92,-273,-43,226,-183,-190,-336,-390,-424,-165,185
122,-82,-204,-19,163,-143,-107,-224,-263,-312,-141,112
78,-87,-165,4,122,-126,-34,-122,-146,-219,-112,58
24,-78,-102,26,63,-90,19,-39,-48,-126,-102,14
-19,-78,-58,48,19,-68,68,19,14,-68,-92,-29
-39,-92,-53,65,7,-73,107,68,68,-29,-82,-58
-43,-102,-58,73,7,-80,131,107,112,-9,-82,-97
-53,-97,-43,75,-4,-70,151,126,141,-4,-87,-122
-48,-102,-53,75,2,-78,156,146,156,-4,-102,-131
-68,-102,-34,85,-17,-68,165,161,151,-4,-122,-141
-78,-107,-29,92,-24,-68,180,185,165,0,-131,-141
-87,-112,-24,100,-31,-68,180,185,170,4,-136,-146
-87,-112,-24,100,-31,-68,180,185,170,4,-141,-151
-82,-112,-29,97,-26,-70,190,185,170,-4,-141,-146
-82,-112,-29,97,-26,-70,185,185,170,-4,-146,-151
-82,-112,-29,97,-26,-70,185,185,170,-4,-151,-156
-78,-112,-34,95,-21,-73,190,195,180,-4,-151,-161
-78,-112,-34,95,-21,-73,190,200,195,4,-151,-161
-87,-112,-24,100,-31,-68,195,209,204,4,-151,-161
-92,-112,-19,102,-36,-65,200,214,204,9,-151,-156
-92,-112,-19,102,-36,-65,204,219,204,9,-151,-156
-87,-122,-34,104,-26,-78,214,219,200,14,-156,-170
-87,-122,-34,104,-26,-78,214,224,200,14,-156,-170
-87,-122,-34,104,-26,-78,214,224,200,14,-156,-170
-87,-122,-34,104,-26,-78,214,229,204,14,-156,-175
-87,-112,-24,100,-31,-68,219,229,204,19,-156,-170
-87,-112,-24,100,-31,-68,219,239,204,19,-156,-170
-87,-112,-24,100,-31,-68,219,239,209,19,-161,-170
-87,-112,-24,100,-31,-68,219,239,214,24,-161,-170
-92,-112,-19,102,-36,-65,224,244,214,24,-161,-180
-92,-112,-19,102,-36,-65,224,244,219,24,-165,-185
-92,-107,-14,100,-39,-61,224,248,219,24,-165,-185
-92,-107,-14,100,-39,-61,224,248,219,24,-165,-185
-92,-107,-14,100,-39,-61,224,248,234,24,-165,-180
-92,-112,-19,102,-36,-65,229,253,234,29,-165,-180
-92,-112,-19,102,-36,-65,229,258,239,29,-165,-180
-92,-112,-19,102,-36,-65,229,263,239,29,-170,-185
-92,-107,-14,100,-39,-61,229,268,244,29,-170,-185
-97,-107,-9,102,-43,-58,229,268,248,34,-170,-190
-97,-107,-9,102,-43,-58,234,268,248,34,-170,-190
-97,-107,-9,102,-43,-58,234,268,248,34,-175,-190
-97,-107,-9,102,-43,-58,234,273,253,39,-175,-180
-97,-107,-9,102,-43,-58,234,278,253,39,-175,-190
-97,-107,-9,102,-43,-58,239,287,263,39,-175,-190
-97,-107,-9,102,-43,-58,239,287,263,39,-185,-190
-97,-107,-9,102,-43,-58,239,287,263,39,-185,-195
-102,-102,0,102,-51,-51,239,287,268,43,-185,-195
-102,-102,0,102,-51,-51,244,292,273,43,-185,-200
-102,-102,0,102,-51,-51,244,292,273,48,-185,-204
-107,-112,-4,109,-51,-58,244,297,273,48,-190,-214
-107,-112,-4,109,-51,-58,248,307,283,48,-190,-214
-107,-112,-4,109,-51,-58,248,312,287,53,-190,-214
-107,-112,-4,109,-51,-58,253,312,292,58,-190,-214
-107,-112,-4,109,-51,-58,253,317,297,58,-195,-219
-107,-117,-9,112,-48,-63,253,322,302,58,-195,-219
-112,-117,-4,114,-53,-61,258,326,307,63,-195,-219
-112,-112,0,112,-56,-56,258,331,312,63,-195,-229
-112,-102,9,107,-61,-46,258,336,312,63,-200,-239
-112,-102,9,107,-61,-46,258,341,322,63,-200,-239
-112,-102,9,107,-61,-46,263,346,326,63,-204,-239
-117,-102,14,109,-65,-43,263,351,331,73,-204,-244
-117,-102,14,109,-65,-43,278,361,336,82,-204,-244
-117,-102,14,109,-65,-43,278,366,341,87,-204,-244
-117,-97,19,107,-68,-39,278,370,346,92,-204,-248
-117,-97,19,107,-68,-39,283,375,351,92,-204,-248
-126,-107,19,117,-73,-43,287,390,361,97,-204,-248
-126,-107,19,117,-73,-43,287,400,366,102,-209,-248
-131,-107,24,119,-78,-41,287,405,370,107,-209,-253
-131,-107,24,119,-78,-41,292,409,385,112,-209,-253
-122,-107,14,114,-68,-46,302,419,390,117,-209,-258
-122,-107,14,114,-68,-46,302,429,395,117,-209,-258
-126,-107,19,117,-73,-43,302,439,400,126,-209,-258
-126,-107,19,117,-73,-43,307,439,405,126,-214,-268
-126,-102,24,114,-75,-39,307,453,414,131,-214,-268
-126,-102,24,114,-75,-39,307,463,424,136,-214,-268
-126,-102,24,114,-75,-39,312,478,434,141,-214,-268
-126,-102,24,114,-75,-39,317,478,444,146,-214,-278
-126,-102,24,114,-75,-39,307,488,453,156,-214,-278
-126,-102,24,114,-75,-39,317,502,453,161,-214,-278
-131,-102,29,117,-80,-36,322,512,468,165,-214,-283
-131,-97,34,114,-82,-31,326,522,473,170,-214,-283
-131,-97,34,114,-82,-31,336,536,497,180,-204,-287
-131,-97,34,114,-82,-31,336,546,507,190,-204,-287
-131,-97,34,114,-82,-31,346,556,522,195,-204,-287
-131,-97,34,114,-82,-31,346,566,531,200,-204,-297
-136,-92,43,114,-90,-24,346,590,541,219,-204,-302
-136,-92,43,114,-90,-24,356,600,551,224,-200,-302
-136,-92,43,114,-90,-24,356,619,561,239,-200,-302
-136,-87,48,112,-92,-19,361,624,575,248,-200,-302
-136,-87,48,112,-92,-19,366,639,585,258,-190,-297
-136,-78,58,107,-97,-9,366,653,595,268,-185,-302
-136,-78,58,107,-97,-9,370,668,614,278,-185,-302
-136,-78,58,107,-97,-9,375,683,629,283,-185,-302
-136,-78,58,107,-97,-9,380,688,639,297,-190,-302
-136,-73,63,104,-100,-4,380,697,653,307,-185,-302
-136,-73,63,104,-100,-4,380,717,663,317,-185,-312
-136,-73,63,104,-100,-4,390,732,673,326,-180,-312
-136,-63,73,100,-104,4,395,746,692,346,-180,-312
-141,-63,78,102,-109,7,400,761,712,361,-170,-312
-141,-58,82,100,-112,12,405,775,727,370,-165,-312
-141,-53,87,97,-114,17,409,790,741,385,-161,-312
-141,-58,82,100,-112,12,409,810,766,405,-156,-312
-141,-48,92,95,-117,21,409,824,780,419,-146,-317
-141,-43,97,92,-119,26,419,829,800,434,-141,-317
-141,-39,102,90,-122,31,419,844,814,453,-136,-317
-141,-34,107,87,-124,36,434,863,834,468,-131,-326
-141,-29,112,85,-126,41,434,873,849,492,-126,-326
-146,-24,122,85,-134,48,434,893,868,507,-117,-326
-146,-24,122,85,-134,48,434,902,883,527,-102,-331
-146,-19,126,82,-136,53,439,902,907,561,-92,-322
-146,-9,136,78,-141,63,444,912,927,580,-82,-322
-146,-4,141,75,-143,68,444,912,941,605,-73,-322
-146,0,146,73,-146,73,444,917,951,619,-63,-322
-146,4,151,70,-148,78,434,922,956,639,-48,-326
-146,9,156,68,-151,82,434,922,976,658,-39,-326
-146,14,161,65,-153,87,429,922,995,678,-29,-326
-151,24,175,63,-163,100,429,922,1005,707,-14,-322
-151,29,180,61,-165,104,434,922,1019,736,0,-317
-151,34,185,58,-168,109,429,907,1029,761,19,-317
-151,39,190,56,-170,114,424,897,1039,780,34,-317
-151,43,195,53,-173,119,419,883,1039,805,53,-317
-151,48,200,51,-175,124,414,883,1034,829,82,-297
-151,48,200,51,-175,124,400,873,1039,844,97,-292
-151,58,209,46,-180,134,390,854,1039,863,112,-287
-146,58,204,43,-175,131,380,834,1039,888,126,-283
-146,58,204,43,-175,131,361,805,1039,897,141,-278
-146,58,204,43,-175,131,351,785,1034,907,161,-273
-146,63,209,41,-178,136,341,761,1019,912,180,-268
-141,68,209,36,-175,139,331,741,1010,922,195,-258
-131,68,200,31,-165,134,312,717,995,922,209,-244
-126,68,195,29,-161,131,307,692,976,927,214,-234
-126,73,200,26,-163,136,287,663,956,927,224,-229
-122,73,195,24,-158,134,273,634,941,917,229,-224
-122,73,195,24,-158,134,258,605,922,907,234,-224
-117,73,190,21,-153,131,248,575,888,893,234,-219
-112,78,190,17,-151,134,234,551,858,873,234,-214
-112,82,195,14,-153,139,229,522,819,854,234,-204
-117,82,200,17,-158,141,209,492,780,824,219,-200
-112,82,195,14,-153,139,195,463,746,790,214,-195
-107,78,185,14,-146,131,180,434,717,751,204,-190
-97,73,170,12,-134,122,165,405,683,707,190,-185
-92,68,161,12,-126,114,141,370,653,688,180,-180
-92,63,156,14,-124,109,131,346,619,653,161,-175
-87,63,151,12,-119,107,117,326,585,619,156,-165
-78,58,136,9,-107,97,102,297,551,575,136,-165
-63,48,112,7,-87,80,107,263,512,531,131,-156
-58,43,102,7,-80,73,97,239,468,488,117,-141
-48,43,92,2,-70,68,78,214,424,439,102,-141
-43,39,82,2,-63,61,68,190,380,395,97,-126
-43,43,87,0,-65,65,48,165,356,370,87,-112
-34,39,73,-2,-53,56,34,146,322,331,78,-102
-24,34,58,-4,-41,46,24,131,287,297,68,-97
-24,34,58,-4,-41,46,19,112,258,268,58,-82
-19,29,48,-4,-34,39,9,92,224,224,68,-63
-9,24,34,-7,-21,29,0,73,195,200,63,-48
-4,19,24,-7,-14,21,-9,53,165,170,58,-29
-4,19,24,-7,-14,21,-14,43,136,151,58,-24
-4,14,19,-4,-12,17,-19,34,126,136,53,-19
-4,9,14,-2,-9,12,-24,19,112,112,53,-4
0,9,9,-4,-4,9,-34,9,92,97,48,-4
4,9,4,-7,0,7,-34,4,73,78,43,0
14,4,-9,-9,12,-2,-39,-4,58,48,34,9
24,4,-19,-14,21,-7,-43,-19,43,34,34,19
24,4,-19,-14,21,-7,-43,-29,29,24,34,19
19,4,-14,-12,17,-4,-48,-34,14,9,34,29
19,-4,-24,-7,21,-14,-53,-39,4,4,29,24
24,-9,-34,-7,29,-21,-58,-43,0,0,29,29
24,-9,-34,-7,29,-21,-58,-48,-9,-9,29,34
24,-14,-39,-4,31,-26,-58,-53,-19,-14,29,39
24,-9,-34,-7,29,-21,-58,-58,-9,-24,29,48
24,-9,-34,-7,29,-21,-58,-63,-24,-34,29,48
24,-9,-34,-7,29,-21,-58,-63,-24,-34,29,53
29,-9,-39,-9,34,-24,-58,-68,-29,-39,29,53
29,-9,-39,-9,34,-24,-68,-68,-34,-43,24,63
29,-9,-39,-9,34,-24,-68,-68,-39,-48,24,63
29,-9,-39,-9,34,-24,-73,-68,-43,-53,24,63
29,-14,-43,-7,36,-29,-73,-68,-43,-53,24,63
29,-14,-43,-7,36,-29,-63,-68,-53,-58,19,63
29,-14,-43,-7,36,-29,-63,-73,-53,-63,19,63
29,-19,-48,-4,39,-34,-63,-73,-63,-63,19,63
29,-19,-48,-4,39,-34,-63,-73,-63,-68,19,63
19,-19,-39,0,29,-29,-63,-73,-63,-58,19,63
19,-19,-39,0,29,-29,-63,-73,-63,-58,19,63
19,-29,-48,4,34,-39,-63,-73,-63,-58,14,63
19,-29,-48,4,34,-39,-63,-73,-63,-58,14,63
29,-24,-53,-2,41,-39,-63,-73,-63,-58,14,53
29,-24,-53,-2,41,-39,-58,-73,-63,-58,14,53
24,-24,-48,0,36,-36,-58,-73,-63,-58,14,53
24,-29,-53,2,39,-41,-58,-73,-63,-58,14,53
14,-39,-53,12,34,-46,-58,-68,-53,-68,4,63
19,-39,-58,9,39,-48,-58,-68,-53,-68,0,58
19,-39,-58,9,39,-48,-58,-68,-53,-68,0,58
19,-43,-63,12,41,-53,-58,-68,-53,-68,-4,58
24,-34,-58,4,41,-46,-53,-58,-53,-58,4,53
24,-34,-58,4,41,-46,-53,-58,-53,-58,4,53
24,-34,-58,4,41,-46,-53,-53,-53,-58,4,53
24,-34,-58,4,41,-46,-53,-53,-53,-63,4,53
24,-39,-63,7,43,-51,-53,-63,-48,-73,-9,43
24,-39,-63,7,43,-51,-53,-63,-48,-73,-14,43
24,-39,-63,7,43,-51,-53,-58,-48,-73,-14,39
24,-39,-63,7,43,-51,-48,-58,-48,-73,-14,39
19,-39,-58,9,39,-48,-48,-58,-48,-63,-4,39
19,-43,-63,12,41,-53,-48,-58,-43,-68,-14,39
19,-43,-63,12,41,-53,-48,-53,-43,-68,-14,34
24,-43,-68,9,46,-56,-43,-53,-43,-68,-19,34
24,-43,-68,9,46,-56,-43,-43,-48,-68,-19,43
19,-43,-63,12,41,-53,-43,-43,-48,-68,-19,39
19,-43,-63,12,41,-53,-43,-43,-48,-68,-19,39
14,-43,-58,14,36,-51,-43,-43,-48,-68,-19,39
14,-43,-58,14,36,-51,-34,-48,-39,-68,-24,39
14,-43,-58,14,36,-51,-34,-48,-34,-68,-24,34
14,-43,-58,14,36,-51,-29,-48,-34,-68,-24,34
14,-43,-58,14,36,-51,-29,-43,-34,-68,-24,29
14,-34,-48,9,31,-41,-34,-43,-34,-68,-24,29
14,-39,-53,12,34,-46,-34,-43,-34,-68,-24,24
14,-39,-53,12,34,-46,-34,-43,-34,-68,-29,24
9,-39,-48,14,29,-43,-34,-43,-29,-68,-29,24
9,-48,-58,19,34,-53,-34,-39,-39,-68,-29,24
9,-48,-58,19,34,-53,-34,-39,-39,-68,-34,24
9,-48,-58,19,34,-53,-34,-39,-39,-68,-34,14
9,-48,-58,19,34,-53,-29,-39,-39,-68,-34,14
0,-48,-48,24,24,-48,-29,-39,-29,-63,-34,4
0,-53,-53,26,26,-53,-29,-39,-24,-63,-34,4
0,-53,-53,26,26,-53,-24,-34,-24,-63,-34,9
-4,-48,-43,26,19,-46,-24,-34,-19,-58,-34,9
4,-48,-53,21,29,-51,-24,-34,-29,-58,-48,4
4,-48,-53,21,29,-51,-24,-34,-29,-58,-48,4
0,-48,-48,24,24,-48,-24,-34,-29,-58,-48,4
0,-48,-48,24,24,-48,-24,-34,-29,-58,-48,0
0,-48,-48,24,24,-48,-24,-24,-19,-58,-39,0
0,-48,-48,24,24,-48,-24,-24,-19,-53,-43,0
0,-48,-48,24,24,-48,-24,-19,-19,-53,-43,0
0,-48,-48,24,24,-48,-19,-19,-14,-53,-43,0
0,-53,-53,26,26,-53,-19,-29,-24,-48,-43,0
0,-53,-53,26,26,-53,-19,-29,-24,-48,-39,-4
0,-53,-53,26,26,-53,-19,-29,-24,-48,-39,-4
0,-53,-53,26,26,-53,-19,-29,-24,-48,-39,-4
0,-43,-43,21,21,-43,-19,-29,-24,-58,-48,-4
-4,-48,-43,26,19,-46,-19,-29,-24,-58,-48,-4
-4,-48,-43,26,19,-46,-14,-29,-24,-58,-48,-4
-9,-43,-34,26,12,-39,-14,-29,-24,-58,-48,-4
-9,-53,-43,31,17,-48,-14,-29,-24,-48,-39,-9
-9,-53,-43,31,17,-48,-14,-29,-24,-48,-39,-9
-9,-53,-43,31,17,-48,-14,-29,-24,-48,-39,-9
-9,-53,-43,31,17,-48,-14,-29,-24,-43,-39,-9
-9,-53,-43,31,17,-48,-14,-19,-14,-43,-43,-9
-9,-53,-43,31,17,-48,-14,-19,-14,-43,-43,-9
-9,-53,-43,31,17,-48,-14,-19,-14,-43,-43,-9
-9,-53,-43,31,17,-48,-14,-19,-14,-48,-43,-14
-9,-58,-48,34,19,-53,-14,-29,-14,-58,-43,-14
-9,-58,-48,34,19,-53,-14,-29,-14,-58,-43,-14
-9,-58,-48,34,19,-53,-14,-29,-14,-58,-43,-14
-9,-63,-53,36,21,-58,-14,-29,-19,-58,-43,-14
-9,-53,-43,31,17,-48,-24,-29,-29,-58,-43,-14
-9,-53,-43,31,17,-48,-24,-34,-29,-58,-43,-19
-14,-58,-43,36,14,-51,-24,-34,-29,-58,-43,-19
-14,-58,-43,36,14,-51,-24,-34,-34,-58,-43,-14
-9,-58,-48,34,19,-53,-24,-34,-34,-63,-53,-14
-9,-58,-48,34,19,-53,-24,-34,-34,-63,-58,-19
-9,-58,-48,34,19,-53,-24,-34,-34,-63,-58,-19
-9,-58,-48,34,19,-53,-24,-34,-34,-63,-58,-19
-9,-63,-53,36,21,-58,-14,-39,-39,-68,-58,-19
-9,-63,-53,36,21,-58,-14,-39,-39,-68,-58,-19
-9,-58,-48,34,19,-53,-14,-39,-39,-68,-58,-19
-9,-58,-48,34,19,-53,-14,-39,-39,-73,-58,-19
-9,-48,-39,29,14,-43,-14,-39,-43,-63,-53,-9
-9,-53,-43,31,17,-48,-19,-43,-43,-68,-53,-9
-9,-53,-43,31,17,-48,-19,-43,-43,-68,-53,-9
-9,-53,-43,31,17,-48,-19,-43,-43,-68,-53,-9
-9,-53,-43,31,17,-48,-19,-43,-34,-68,-53,-9
-9,-53,-43,31,17,-48,-19,-43,-43,-68,-53,-9
-9,-53,-43,31,17,-48,-19,-43,-43,-68,-53,-9
-9,-53,-43,31,17,-48,-19,-43,-43,-73,-53,-9
-9,-63,-53,36,21,-58,-19,-43,-43,-82,-53,-9
-9,-63,-53,36,21,-58,-19,-43,-43,-82,-53,-9
-9,-63,-53,36,21,-58,-19,-48,-43,-82,-53,-9
-9,-63,-53,36,21,-58,-19,-48,-43,-82,-58,-9
-9,-63,-53,36,21,-58,-19,-48,-48,-87,-58,-9
-9,-63,-53,36,21,-58,-19,-48,-48,-87,-58,-9
-9,-63,-53,36,21,-58,-19,-48,-48,-87,-58,-9
-9,-63,-53,36,21,-58,-19,-53,-48,-87,-58,-9
-9,-63,-53,36,21,-58,-19,-53,-48,-78,-58,-9
-9,-63,-53,36,21,-58,-19,-53,-53,-82,-58,-9
-9,-58,-48,34,19,-53,-24,-53,-53,-82,-58,-9
-4,-58,-53,31,24,-56,-24,-53,-53,-82,-58,-9
-4,-53,-48,29,21,-51,-24,-63,-63,-92,-58,-14
-4,-53,-48,29,21,-51,-24,-63,-63,-92,-58,-14
-4,-53,-48,29,21,-51,-24,-63,-63,-97,-58,-14
-4,-53,-48,29,21,-51,-24,-63,-63,-97,-58,-14
-4,-53,-48,29,21,-51,-24,-63,-53,-97,-58,-14
-9,-53,-43,31,17,-48,-24,-63,-58,-97,-58,-14
-9,-53,-43,31,17,-48,-24,-68,-58,-97,-58,-19
-4,-53,-48,29,21,-51,-24,-68,-58,-97,-58,-19
-4,-63,-58,34,26,-61,-24,-58,-68,-102,-63,-9
-9,-63,-53,36,21,-58,-24,-58,-68,-102,-63,-9
-9,-63,-53,36,21,-58,-24,-58,-68,-102,-63,-9
-9,-63,-53,36,21,-58,-24,-58,-68,-102,-63,-9
-9,-63,-53,36,21,-58,-34,-58,-73,-92,-63,-9
-9,-63,-53,36,21,-58,-34,-58,-73,-92,-63,-9
-9,-63,-53,36,21,-58,-34,-58,-73,-92,-63,-4
-4,-58,-53,31,24,-56,-34,-58,-73,-92,-63,-4
-14,-58,-43,36,14,-51,-24,-58,-63,-92,-63,-14
-14,-58,-43,36,14,-51,-24,-58,-63,-92,-63,-14
-14,-63,-48,39,17,-56,-24,-58,-63,-92,-63,-14
-14,-63,-48,39,17,-56,-24,-63,-63,-92,-63,-14
-4,-53,-48,29,21,-51,-24,-63,-68,-102,-63,-14
-4,-53,-48,29,21,-51,-24,-63,-68,-107,-63,-14
-4,-53,-48,29,21,-51,-24,-63,-68,-107,-68,-19
-4,-53,-48,29,21,-51,-24,-63,-68,-107,-68,-19
-4,-53,-48,29,21,-51,-29,-63,-78,-107,-68,-19
