I, II, III, aVR, aVL, aVF, V1, V2, V3, V4, V5, V6
-107,-97,9,102,-58,-43,19,-87,-126,-97,-97,-97
-107,-97,9,102,-58,-43,19,-92,-126,-102,-97,-97
-107,-97,9,102,-58,-43,19,-97,-126,-107,-97,-97
-107,-97,9,102,-58,-43,19,-97,-131,-107,-102,-97
-107,-97,9,102,-58,-43,19,-97,-136,-107,-107,-97
-112,-97,14,104,-63,-41,19,-97,-136,-107,-107,-97
-117,-97,19,107,-68,-39,19,-97,-136,-107,-107,-97
-117,-97,19,107,-68,-39,19,-102,-136,-112,-107,-97
-117,-97,19,107,-68,-39,19,-107,-136,-117,-107,-97
-117,-97,19,107,-68,-39,14,-107,-141,-117,-107,-97
-117,-97,19,107,-68,-39,9,-107,-146,-117,-107,-97
-117,-97,19,107,-68,-39,9,-107,-146,-117,-112,-97
-117,-97,19,107,-68,-39,9,-107,-146,-117,-117,-97
-117,-97,19,107,-68,-39,14,-107,-146,-117,-117,-97
-117,-97,19,107,-68,-39,19,-107,-146,-117,-117,-97
-112,-87,24,100,-68,-31,29,-102,-136,-112,-107,-97
-107,-78,29,92,-68,-24,39,-92,-126,-107,-97,-92
-107,-68,39,87,-73,-14,48,-87,-122,-102,-92,-92
-107,-63,43,85,-75,-9,63,-82,-112,-97,-92,-87
-107,-63,43,85,-75,-9,73,-73,-112,-97,-92,-78
-107,-68,39,87,-73,-14,82,-63,-112,-97,-92,-73
-102,-53,48,78,-75,-2,82,-63,-107,-97,-97,-82
-92,-24,68,58,-80,21,82,-63,-107,-87,-97,-87
-87,-29,58,58,-73,14,73,-58,-102,-82,-87,-78
-78,-19,58,48,-68,19,53,-68,-102,-82,-82,-68
-68,-14,53,41,-61,19,29,-82,-102,-78,-73,-63
-58,-14,43,36,-51,14,-9,-102,-112,-78,-73,-58
-48,9,58,19,-53,34,-48,-117,-126,-82,-73,-58
-39,39,78,0,-58,58,-63,-141,-146,-92,-78,-58
-34,24,58,4,-46,41,-63,-141,-151,-97,-78,-58
-29,9,39,9,-34,24,-58,-146,-161,-107,-82,-63
-43,-9,34,26,-39,12,-53,-146,-165,-107,-92,-68
-58,-24,34,41,-46,4,-48,-146,-165,-112,-92,-73
-63,-39,24,51,-43,-7,-43,-156,-175,-117,-97,-82
-78,-58,19,68,-48,-19,-39,-161,-185,-122,-112,-92
-92,-78,14,85,-53,-31,-34,-161,-185,-126,-122,-102
-117,-107,9,112,-63,-48,-24,-156,-185,-141,-131,-112
-136,-117,19,126,-78,-48,-14,-156,-185,-141,-136,-117
-146,-117,29,131,-87,-43,-14,-161,-195,-146,-141,-122
-151,-117,34,134,-92,-41,-14,-165,-195,-151,-141,-122
-156,-122,34,139,-95,-43,-14,-170,-195,-161,-146,-126
-161,-126,34,143,-97,-46,-14,-170,-195,-161,-146,-131
-161,-126,34,143,-97,-46,-14,-165,-195,-161,-146,-136
-161,-126,34,143,-97,-46,-14,-165,-195,-161,-146,-136
-161,-126,34,143,-97,-46,-9,-165,-195,-161,-146,-136
-165,-136,29,151,-97,-53,-9,-165,-195,-161,-151,-136
-165,-141,24,153,-95,-58,-4,-165,-195,-161,-156,-136
-170,-141,29,156,-100,-56,-4,-165,-195,-161,-161,-136
-170,-141,29,156,-100,-56,-4,-165,-195,-161,-161,-141
-175,-151,24,163,-100,-63,-4,-165,-195,-165,-161,-141
-180,-156,24,168,-102,-65,-4,-165,-200,-165,-161,-141
-180,-156,24,168,-102,-65,-4,-165,-200,-165,-156,-141
-185,-156,29,170,-107,-63,0,-161,-195,-165,-151,-136
-180,-156,24,168,-102,-65,0,-161,-195,-165,-151,-136
-175,-156,19,165,-97,-68,0,-161,-195,-165,-151,-136
-175,-151,24,163,-100,-63,0,-161,-190,-161,-146,-131
-175,-151,24,163,-100,-63,4,-161,-190,-161,-146,-131
-185,-156,29,170,-107,-63,24,-136,-185,-161,-151,-136
-190,-131,58,161,-124,-36,78,-73,-151,-136,-151,-136
-190,-102,87,146,-139,-7,126,34,-53,-58,-97,-102
-141,-92,48,117,-95,-21,214,204,97,48,-14,-34
9,-29,-39,9,24,-34,346,595,434,268,170,102
248,195,-53,-222,151,70,331,790,790,610,488,375
531,546,14,-539,258,280,-58,156,707,844,790,683
878,985,107,-932,385,546,-556,-380,673,1137,1141,1049
1312,1327,14,-1320,649,671,-1078,-649,834,1478,1532,1444
1493,1415,-78,-1454,785,668,-1478,-814,990,1727,1815,1722
1361,1234,-126,-1298,744,553,-1532,-756,1224,1908,1961,1825
1102,1010,-92,-1056,597,458,-1454,-761,1161,1776,1825,1678
805,614,-190,-710,497,212,-1351,-849,639,971,1063,1039
405,229,-175,-317,290,26,-1073,-819,-14,48,180,273
131,170,39,-151,46,104,-790,-795,-385,-161,-39,43
131,151,19,-141,56,85,-541,-575,-356,-122,0,87
107,112,4,-109,51,58,-273,-253,-112,0,63,107
78,58,-19,-68,48,19,-146,-73,24,53,78,97
48,-9,-58,-19,53,-34,-102,-9,58,63,68,58
9,-43,-53,17,31,-48,-48,29,58,34,34,29
-34,-48,-14,41,-9,-31,-19,29,34,-4,0,0
-48,-58,-9,53,-19,-34,-14,29,4,-29,-24,-19
-58,-82,-24,70,-17,-53,-4,29,-4,-29,-39,-34
-73,-87,-14,80,-29,-51,14,39,-4,-39,-48,-53
-87,-102,-14,95,-36,-58,34,53,-9,-48,-63,-68
-87,-112,-24,100,-31,-68,43,63,-19,-53,-68,-73
-87,-112,-24,100,-31,-68,43,68,-19,-58,-73,-78
-92,-117,-24,104,-34,-70,48,78,-19,-63,-78,-82
-97,-117,-19,107,-39,-68,58,87,-9,-63,-82,-82
-97,-117,-19,107,-39,-68,68,97,-9,-63,-82,-82
-92,-117,-24,104,-34,-70,73,97,0,-63,-78,-82
-92,-117,-24,104,-34,-70,78,107,9,-63,-68,-78
-92,-117,-24,104,-34,-70,78,122,19,-58,-68,-78
-87,-117,-29,102,-29,-73,82,136,24,-58,-68,-78
-87,-112,-24,100,-31,-68,82,141,24,-48,-68,-78
-87,-112,-24,100,-31,-68,87,146,34,-48,-63,-73
-87,-78,9,82,-48,-34,87,146,34,-48,-63,-68
-87,-53,34,70,-61,-9,87,146,29,-43,-63,-68
-78,-63,14,70,-46,-24,87,165,48,-43,-63,-68
-68,-68,0,68,-34,-34,87,185,63,-34,-58,-68
-58,-68,-9,63,-24,-39,92,195,73,-34,-48,-63
-48,-58,-9,53,-19,-34,92,209,82,-29,-43,-58
-43,-58,-14,51,-14,-36,97,219,92,-24,-39,-58
-43,-63,-19,53,-12,-41,102,234,102,-19,-39,-53
-43,-68,-24,56,-9,-46,107,244,112,-9,-34,-53
-43,-68,-24,56,-9,-46,117,258,117,-4,-29,-48
-43,-63,-19,53,-12,-41,117,278,126,0,-29,-48
-29,-58,-29,43,0,-43,126,287,136,4,-29,-43
-29,-58,-29,43,0,-43,136,302,151,9,-19,-39
-19,-53,-34,36,7,-43,136,312,156,9,-19,-39
-14,-53,-39,34,12,-46,141,336,165,14,-19,-39
-4,-48,-43,26,19,-46,146,351,175,14,-19,-39
-4,-43,-39,24,17,-41,146,361,180,14,-14,-34
4,-39,-43,17,24,-41,151,380,185,19,-14,-34
9,-34,-43,12,26,-39,161,400,195,19,-9,-29
19,-29,-48,4,34,-39,170,414,200,14,-9,-29
34,-29,-63,-2,48,-46,170,434,204,19,-9,-29
39,-29,-68,-4,53,-48,170,444,204,19,-14,-29
53,-24,-78,-14,65,-51,170,453,209,4,-19,-29
58,-24,-82,-17,70,-53,170,458,214,0,-24,-34
68,-24,-92,-21,80,-58,170,458,214,-4,-34,-39
73,-19,-92,-26,82,-56,170,463,200,-19,-39,-39
78,-19,-97,-29,87,-58,170,463,200,-29,-39,-39
78,-19,-97,-29,87,-58,170,458,190,-34,-48,-43
87,-19,-107,-34,97,-63,161,444,180,-39,-48,-48
92,-19,-112,-36,102,-65,156,434,170,-43,-53,-48
92,-24,-117,-34,104,-70,146,409,151,-58,-58,-43
87,-24,-112,-31,100,-68,136,380,136,-63,-63,-43
82,-19,-102,-31,92,-61,126,351,122,-68,-63,-43
73,-19,-92,-26,82,-56,117,307,97,-73,-63,-43
58,-24,-82,-17,70,-53,102,258,78,-78,-68,-43
34,-29,-63,-2,48,-46,92,219,58,-78,-73,-43
9,-34,-43,12,26,-39,82,175,29,-78,-73,-48
-14,-43,-29,29,7,-36,68,136,14,-78,-73,-53
-24,-48,-24,36,0,-36,58,97,-9,-82,-73,-53
-43,-53,-9,48,-17,-31,48,58,-29,-87,-78,-58
-58,-58,0,58,-29,-29,43,29,-48,-87,-78,-63
-68,-68,0,68,-34,-34,34,4,-58,-82,-82,-68
-87,-78,9,82,-48,-34,29,-24,-73,-82,-82,-68
-97,-82,14,90,-56,-34,29,-39,-82,-87,-82,-73
-102,-82,19,92,-61,-31,24,-58,-97,-87,-87,-78
-112,-87,24,100,-68,-31,24,-73,-107,-92,-92,-78
-126,-97,29,112,-78,-34,19,-82,-112,-92,-92,-82
-126,-97,29,112,-78,-34,14,-92,-112,-97,-97,-82
-131,-102,29,117,-80,-36,14,-97,-122,-97,-97,-87
-136,-102,34,119,-85,-34,14,-97,-122,-102,-97,-87
-141,-102,39,122,-90,-31,14,-97,-126,-102,-97,-87
-141,-102,39,122,-90,-31,14,-107,-126,-102,-102,-92
-146,-102,43,124,-95,-29,9,-117,-126,-102,-102,-92
-146,-112,34,129,-90,-39,9,-122,-131,-102,-102,-92
-146,-112,34,129,-90,-39,4,-122,-131,-102,-102,-92
-146,-112,34,129,-90,-39,0,-122,-131,-102,-102,-92
-146,-112,34,129,-90,-39,0,-122,-131,-102,-102,-92
-146,-107,39,126,-92,-34,0,-122,-131,-102,-102,-87
-146,-107,39,126,-92,-34,0,-122,-131,-107,-102,-92
-146,-107,39,126,-92,-34,4,-122,-131,-112,-102,-97
-146,-107,39,126,-92,-34,4,-122,-131,-112,-102,-97
-141,-112,29,126,-85,-41,4,-112,-122,-107,-97,-97
-141,-112,29,126,-85,-41,4,-112,-122,-107,-97,-97
-141,-112,29,126,-85,-41,4,-107,-122,-107,-97,-97
-141,-112,29,126,-85,-41,0,-102,-122,-107,-97,-97
-141,-112,29,126,-85,-41,0,-102,-122,-107,-97,-97
-141,-107,34,124,-87,-36,4,-97,-117,-102,-97,-87
-136,-107,29,122,-82,-39,9,-97,-117,-102,-97,-82
-136,-112,24,124,-80,-43,14,-97,-117,-97,-97,-82
-136,-117,19,126,-78,-48,14,-97,-117,-92,-97,-82
-136,-117,19,126,-78,-48,9,-97,-117,-92,-97,-87
-136,-117,19,126,-78,-48,4,-97,-117,-92,-97,-97
-131,-107,24,119,-78,-41,4,-97,-122,-102,-102,-97
-131,-97,34,114,-82,-31,4,-97,-126,-107,-107,-97
-136,-97,39,117,-87,-29,4,-97,-131,-107,-107,-97
-136,-97,39,117,-87,-29,4,-97,-131,-107,-107,-97
-136,-102,34,119,-85,-34,4,-97,-126,-107,-107,-97
-136,-107,29,122,-82,-39,4,-97,-122,-107,-107,-97
-136,-107,29,122,-82,-39,4,-97,-122,-107,-112,-102
-136,-107,29,122,-82,-39,0,-102,-122,-107,-112,-102
-141,-112,29,126,-85,-41,0,-102,-126,-107,-112,-102
-146,-112,34,129,-90,-39,4,-107,-131,-112,-117,-102
-146,-117,29,131,-87,-43,4,-107,-136,-112,-117,-102
-151,-117,34,134,-92,-41,0,-107,-141,-112,-117,-102
-146,-117,29,131,-87,-43,0,-112,-141,-117,-112,-102
-141,-117,24,129,-82,-46,4,-112,-146,-117,-112,-107
-141,-122,19,131,-80,-51,4,-112,-141,-117,-112,-102
-141,-122,19,131,-80,-51,0,-117,-141,-117,-112,-97
-141,-122,19,131,-80,-51,0,-117,-141,-122,-112,-97
-141,-122,19,131,-80,-51,0,-117,-146,-122,-112,-97
-151,-122,29,136,-90,-46,0,-117,-146,-122,-117,-102
-156,-122,34,139,-95,-43,0,-117,-141,-122,-122,-107
-151,-126,24,139,-87,-51,0,-117,-141,-122,-122,-107
-151,-126,24,139,-87,-51,0,-117,-141,-122,-122,-107
-156,-126,29,141,-92,-48,4,-122,-146,-122,-122,-107
-156,-126,29,141,-92,-48,9,-126,-146,-122,-122,-107
-156,-131,24,143,-90,-53,9,-126,-151,-122,-117,-107
-161,-136,24,148,-92,-56,9,-131,-156,-122,-112,-112
-156,-131,24,143,-90,-53,4,-126,-151,-117,-107,-107
-156,-126,29,141,-92,-48,0,-126,-146,-117,-107,-107
-151,-122,29,136,-90,-46,9,-122,-146,-112,-107,-102
-146,-117,29,131,-87,-43,19,-117,-146,-107,-107,-97
-136,-107,29,122,-82,-39,24,-107,-136,-107,-102,-92
-131,-97,34,114,-82,-31,34,-97,-122,-97,-92,-82
-126,-92,34,109,-80,-29,48,-87,-112,-92,-87,-78
-126,-92,34,109,-80,-29,63,-73,-112,-87,-82,-78
-131,-97,34,114,-82,-31,78,-58,-107,-87,-82,-82
-131,-97,34,114,-82,-31,82,-53,-97,-87,-82,-82
-122,-82,39,102,-80,-21,87,-48,-97,-78,-82,-78
-112,-78,34,95,-73,-21,82,-43,-92,-73,-78,-68
-92,-58,34,75,-63,-12,63,-58,-92,-73,-73,-58
-78,-43,34,61,-56,-4,39,-73,-92,-68,-63,-53
-63,-29,34,46,-48,2,-4,-97,-102,-63,-58,-43
-48,-19,29,34,-39,4,-43,-112,-112,-63,-53,-39
-39,-9,29,24,-34,9,-58,-131,-126,-73,-58,-39
-39,-24,14,31,-26,-4,-63,-131,-131,-78,-63,-43
-39,-39,0,39,-19,-19,-58,-136,-141,-87,-73,-53
-53,-53,0,53,-26,-26,-53,-136,-146,-92,-82,-58
-68,-63,4,65,-36,-29,-48,-136,-146,-102,-82,-63
-73,-73,0,73,-36,-36,-48,-146,-156,-107,-87,-73
-87,-87,0,87,-43,-43,-48,-151,-165,-112,-102,-82
-102,-102,0,102,-51,-51,-43,-151,-170,-117,-112,-92
-131,-131,0,131,-65,-65,-34,-146,-175,-131,-122,-102
-156,-146,9,151,-82,-68,-24,-146,-175,-131,-126,-107
-165,-146,19,156,-92,-63,-24,-156,-190,-136,-131,-112
-165,-146,19,156,-92,-63,-24,-165,-195,-136,-131,-112
-165,-151,14,158,-90,-68,-24,-170,-195,-146,-141,-122
-170,-156,14,163,-92,-70,-24,-170,-195,-151,-146,-126
-170,-156,14,163,-92,-70,-24,-165,-195,-151,-146,-126
-170,-156,14,163,-92,-70,-24,-165,-195,-151,-146,-126
-170,-156,14,163,-92,-70,-19,-165,-195,-151,-141,-126
-175,-161,14,168,-95,-73,-19,-165,-195,-151,-136,-126
-175,-161,14,168,-95,-73,-14,-161,-190,-151,-136,-122
-180,-161,19,170,-100,-70,-14,-156,-185,-151,-141,-117
-180,-161,19,170,-100,-70,-14,-156,-185,-151,-141,-122
-180,-165,14,173,-97,-75,-14,-156,-185,-156,-141,-122
-180,-165,14,173,-97,-75,-14,-156,-195,-156,-141,-126
-180,-165,14,173,-97,-75,-14,-156,-200,-156,-141,-136
-185,-165,19,175,-102,-73,-9,-151,-195,-156,-141,-136
-185,-165,19,175,-102,-73,-9,-151,-195,-156,-141,-136
-185,-165,19,175,-102,-73,-9,-151,-195,-156,-141,-131
-185,-161,24,173,-104,-68,-9,-151,-190,-151,-136,-122
-185,-161,24,173,-104,-68,-9,-175,-200,-156,-136,-122
-190,-161,29,175,-109,-65,4,-170,-200,-161,-136,-126
-209,-131,78,170,-143,-26,39,-141,-214,-175,-165,-156
-209,-97,112,153,-161,7,68,-58,-146,-122,-131,-136
-195,-126,68,161,-131,-29,170,102,-29,-63,-102,-117
-97,-107,-9,102,-43,-58,317,453,239,97,19,-29
97,39,-58,-68,78,-9,458,907,722,444,317,219
336,312,-24,-324,180,143,229,541,771,678,595,488
732,824,92,-778,319,458,-278,-131,653,971,946,863
1171,1224,53,-1198,558,639,-800,-531,732,1302,1327,1249
1468,1429,-39,-1449,753,695,-1337,-766,932,1654,1742,1654
1483,1356,-126,-1420,805,614,-1537,-780,1176,1888,1971,1854
1254,1156,-97,-1205,675,529,-1522,-790,1273,1952,2020,1859
1010,839,-170,-924,590,334,-1488,-878,951,1434,1527,1439
517,361,-156,-439,336,102,-1210,-897,131,283,409,473
165,185,19,-175,73,102,-932,-907,-366,-175,-48,43
170,185,14,-178,78,100,-658,-688,-375,-141,0,97
126,161,34,-143,46,97,-375,-390,-219,-39,53,107
97,107,9,-102,43,58,-219,-156,-39,39,82,107
68,34,-34,-51,51,0,-131,-29,48,73,87,78
24,-14,-39,-4,31,-26,-68,24,63,58,53,48
-19,-29,-9,24,-4,-19,-29,39,53,34,19,19
-29,-39,-9,34,-9,-24,-24,39,14,0,-4,-4
-39,-63,-24,51,-7,-43,-14,39,-4,-14,-19,-24
-58,-68,-9,63,-24,-39,4,48,-4,-29,-29,-43
-78,-78,0,78,-39,-39,24,63,-4,-39,-43,-53
-78,-87,-9,82,-34,-48,39,73,-9,-48,-48,-53
-78,-92,-14,85,-31,-53,43,78,-9,-53,-48,-58
-82,-97,-14,90,-34,-56,48,87,-9,-53,-48,-63
-87,-97,-9,92,-39,-53,58,97,0,-53,-53,-63
-87,-102,-14,95,-36,-58,68,107,0,-53,-58,-63
-82,-107,-24,95,-29,-65,68,107,4,-53,-63,-63
-87,-107,-19,97,-34,-63,68,117,9,-53,-58,-58
-92,-107,-14,100,-39,-61,68,126,19,-48,-58,-58
-87,-107,-19,97,-34,-63,73,136,24,-48,-58,-58
-82,-102,-19,92,-31,-61,73,141,24,-39,-58,-58
-78,-102,-24,90,-26,-63,78,146,34,-39,-53,-53
-78,-92,-14,85,-31,-53,82,156,43,-39,-48,-48
-78,-92,-14,85,-31,-53,87,165,48,-34,-43,-48
-73,-92,-19,82,-26,-56,87,175,58,-34,-43,-48
-68,-87,-19,78,-24,-53,87,185,63,-19,-39,-48
-63,-87,-24,75,-19,-56,92,195,73,-14,-34,-43
-53,-78,-24,65,-14,-51,92,209,82,-9,-34,-43
-43,-73,-29,58,-7,-51,97,219,92,-4,-29,-48
-39,-63,-24,51,-7,-43,102,234,102,0,-29,-43
-29,-58,-29,43,0,-43,102,244,112,4,-24,-43
-24,-68,-43,46,9,-56,107,258,117,4,-19,-39
-24,-73,-48,48,12,-61,107,278,126,9,-19,-39
-14,-68,-53,41,19,-61,117,287,136,14,-19,-34
-19,-68,-48,43,14,-58,126,307,151,19,-9,-29
-9,-58,-48,34,19,-53,126,322,156,19,-9,-29
-4,-53,-48,29,21,-51,131,346,165,24,-9,-29
4,-48,-53,21,29,-51,136,361,175,24,-9,-24
4,-43,-48,19,26,-46,136,370,180,24,-4,-14
14,-39,-53,12,34,-46,141,390,185,29,-4,-14
19,-39,-58,9,39,-48,151,405,195,29,-4,-14
29,-39,-68,4,48,-53,165,414,200,24,-4,-19
43,-39,-82,-2,63,-61,170,434,204,24,0,-19
48,-39,-87,-4,68,-63,170,444,204,24,-4,-19
58,-34,-92,-12,75,-63,175,453,204,14,-9,-19
58,-34,-92,-12,75,-63,180,463,209,9,-14,-24
68,-34,-102,-17,85,-68,180,468,214,4,-24,-29
78,-29,-107,-24,92,-68,185,478,204,-9,-29,-29
87,-29,-117,-29,102,-73,185,483,209,-19,-29,-29
87,-29,-117,-29,102,-73,180,483,204,-24,-39,-34
97,-29,-126,-34,112,-78,170,473,200,-34,-43,-39
102,-29,-131,-36,117,-80,165,468,190,-43,-53,-39
102,-34,-136,-34,119,-85,156,448,170,-58,-58,-39
97,-39,-136,-29,117,-87,146,419,156,-63,-63,-43
92,-39,-131,-26,112,-85,136,390,141,-68,-63,-43
87,-39,-126,-24,107,-82,126,346,117,-78,-63,-43
78,-39,-117,-19,97,-78,112,297,97,-82,-63,-43
53,-29,-82,-12,68,-56,102,258,78,-78,-63,-43
34,-24,-58,-4,46,-41,92,214,48,-78,-63,-43
19,-34,-53,7,36,-43,78,175,29,-78,-63,-43
14,-39,-53,12,34,-46,68,136,4,-78,-58,-43
-4,-39,-34,21,14,-36,53,87,-14,-78,-63,-48
-24,-39,-14,31,-4,-26,43,48,-39,-78,-68,-53
-39,-48,-9,43,-14,-29,34,24,-48,-73,-73,-58
-58,-58,0,58,-29,-29,29,-4,-63,-73,-73,-58
-73,-68,4,70,-39,-31,29,-19,-73,-78,-73,-63
-82,-73,9,78,-46,-31,24,-39,-87,-78,-78,-68
-97,-78,19,87,-58,-29,24,-53,-97,-82,-78,-68
-117,-87,29,102,-73,-29,19,-63,-102,-82,-73,-73
-117,-87,29,102,-73,-29,14,-78,-102,-87,-78,-73
-117,-92,24,104,-70,-34,14,-87,-112,-87,-78,-78
-117,-97,19,107,-68,-39,14,-87,-112,-87,-78,-78
-122,-102,19,112,-70,-41,14,-87,-117,-82,-78,-78
-122,-102,19,112,-70,-41,14,-97,-122,-82,-82,-82
-126,-102,24,114,-75,-39,9,-102,-126,-82,-82,-82
-126,-112,14,119,-70,-48,9,-102,-131,-82,-82,-82
-126,-112,14,119,-70,-48,9,-102,-131,-82,-82,-82
-126,-112,14,119,-70,-48,9,-102,-131,-82,-82,-82
-126,-112,14,119,-70,-48,9,-102,-131,-82,-82,-82
-126,-102,24,114,-75,-39,9,-102,-131,-87,-87,-78
-126,-97,29,112,-78,-34,9,-102,-131,-92,-92,-78
-126,-97,29,112,-78,-34,14,-102,-131,-92,-92,-78
-126,-97,29,112,-78,-34,14,-102,-131,-92,-92,-78
-122,-102,19,112,-70,-41,14,-97,-122,-87,-82,-78
-122,-102,19,112,-70,-41,14,-102,-122,-87,-78,-78
-122,-102,19,112,-70,-41,14,-97,-122,-87,-78,-78
-122,-102,19,112,-70,-41,9,-92,-122,-87,-78,-78
-122,-102,19,112,-70,-41,9,-92,-122,-87,-78,-78
-122,-97,24,109,-73,-36,9,-87,-117,-82,-78,-73
-117,-102,14,109,-65,-43,4,-87,-117,-82,-78,-73
-117,-107,9,112,-63,-48,4,-87,-117,-82,-78,-73
-117,-107,9,112,-63,-48,4,-87,-117,-82,-78,-73
-117,-107,9,112,-63,-48,4,-87,-117,-82,-78,-73
-117,-107,9,112,-63,-48,4,-87,-117,-78,-78,-78
-112,-107,4,109,-58,-51,4,-87,-117,-78,-78,-78
-112,-107,4,109,-58,-51,4,-87,-117,-78,-82,-78
-117,-107,9,112,-63,-48,4,-87,-122,-78,-87,-78
-117,-107,9,112,-63,-48,9,-87,-122,-82,-87,-78
-117,-107,9,112,-63,-48,14,-87,-122,-87,-87,-78
-117,-107,9,112,-63,-48,14,-87,-122,-87,-82,-78
-117,-107,9,112,-63,-48,14,-87,-122,-87,-82,-82
-117,-102,14,109,-65,-43,9,-87,-117,-82,-82,-82
-117,-102,14,109,-65,-43,9,-82,-117,-78,-82,-82
-117,-102,14,109,-65,-43,14,-87,-122,-82,-87,-82
-117,-107,9,112,-63,-48,14,-87,-122,-82,-87,-82
-122,-107,14,114,-68,-46,9,-87,-122,-87,-87,-82
-122,-107,14,114,-68,-46,9,-92,-122,-97,-87,-82
-122,-107,14,114,-68,-46,9,-97,-126,-97,-92,-87
-122,-107,14,114,-68,-46,4,-102,-126,-97,-92,-87
-122,-102,19,112,-70,-41,0,-107,-131,-97,-92,-87
-122,-102,19,112,-70,-41,0,-107,-131,-102,-92,-87
-122,-102,19,112,-70,-41,0,-107,-141,-102,-92,-87
-126,-102,24,114,-75,-39,0,-107,-146,-102,-92,-87
-126,-102,24,114,-75,-39,-4,-107,-141,-102,-92,-92
-122,-107,14,114,-68,-46,-9,-107,-141,-102,-92,-97
-122,-107,14,114,-68,-46,-9,-112,-141,-107,-97,-97
-122,-102,19,112,-70,-41,-4,-117,-146,-112,-102,-97
-126,-102,24,114,-75,-39,-4,-117,-146,-112,-102,-97
-126,-107,19,117,-73,-43,0,-117,-146,-112,-102,-97
-131,-107,24,119,-78,-41,0,-117,-151,-112,-107,-97
-131,-97,34,114,-82,-31,0,-122,-151,-112,-107,-92
-131,-102,29,117,-80,-36,-4,-122,-151,-112,-102,-97
-131,-97,34,114,-82,-31,4,-117,-146,-107,-97,-97
-126,-97,29,112,-78,-34,4,-112,-146,-107,-97,-97
-126,-97,29,112,-78,-34,9,-107,-146,-107,-97,-97
-117,-92,24,104,-70,-34,14,-107,-141,-102,-92,-92
-107,-87,19,97,-63,-34,19,-107,-136,-97,-87,-87
-107,-73,34,90,-70,-19,24,-97,-131,-92,-87,-87
-107,-58,48,82,-78,-4,29,-87,-126,-87,-82,-82
-107,-48,58,78,-82,4,39,-78,-122,-82,-82,-82
-107,-43,63,75,-85,9,53,-73,-112,-78,-82,-78
-107,-43,63,75,-85,9,63,-63,-112,-78,-78,-73
-107,-48,58,78,-82,4,73,-53,-112,-78,-73,-73
-102,-48,53,75,-78,2,73,-53,-107,-78,-73,-73
-92,-34,58,63,-75,12,73,-53,-107,-68,-68,-68
-78,-29,48,53,-63,9,58,-53,-102,-63,-58,-58
-58,-9,48,34,-53,19,34,-68,-102,-63,-53,-48
-48,0,48,24,-48,24,9,-82,-102,-58,-43,-43
-39,4,43,17,-41,24,-29,-102,-112,-58,-43,-39
-29,9,39,9,-34,24,-58,-112,-122,-63,-43,-43
-19,19,39,0,-29,29,-63,-131,-136,-73,-48,-48
-19,4,24,7,-21,14,-58,-131,-141,-78,-58,-53
-19,-9,9,14,-14,0,-48,-136,-151,-87,-73,-63
-34,-24,9,29,-21,-7,-43,-136,-156,-92,-82,-68
-48,-34,14,41,-31,-9,-39,-136,-156,-102,-82,-73
-58,-48,9,53,-34,-19,-39,-146,-165,-107,-87,-78
-78,-68,9,73,-43,-29,-39,-151,-175,-112,-102,-82
-92,-82,9,87,-51,-36,-34,-151,-180,-117,-112,-92
-117,-107,9,112,-63,-48,-24,-146,-185,-131,-122,-102
-136,-117,19,126,-78,-48,-14,-146,-185,-131,-126,-107
-146,-117,29,131,-87,-43,-14,-151,-195,-136,-131,-112
-146,-117,29,131,-87,-43,-14,-156,-195,-136,-131,-112
-146,-122,24,134,-85,-48,-14,-161,-195,-141,-136,-117
-151,-126,24,139,-87,-51,-14,-161,-190,-141,-136,-117
-151,-126,24,139,-87,-51,-14,-156,-185,-141,-136,-117
-151,-126,24,139,-87,-51,-14,-156,-185,-141,-131,-117
-151,-126,24,139,-87,-51,-9,-156,-185,-141,-126,-117
-156,-131,24,143,-90,-53,-14,-156,-185,-141,-126,-122
-156,-131,24,143,-90,-53,-14,-156,-185,-141,-126,-126
-161,-131,29,146,-95,-51,-14,-156,-185,-141,-131,-126
-161,-131,29,146,-95,-51,-14,-156,-185,-141,-131,-131
-161,-136,24,148,-92,-56,-14,-156,-185,-146,-131,-126
-161,-136,24,148,-92,-56,-14,-156,-190,-146,-131,-122
-165,-136,29,151,-97,-53,-14,-156,-190,-146,-131,-126
-175,-136,39,156,-107,-48,-9,-151,-185,-146,-131,-126
-175,-136,39,156,-107,-48,-4,-151,-185,-146,-131,-126
-175,-136,39,156,-107,-48,0,-151,-185,-146,-131,-126
-170,-136,34,153,-102,-51,0,-146,-175,-136,-126,-122
-165,-141,24,153,-95,-58,4,-141,-170,-131,-126,-122
-170,-141,29,156,-100,-56,29,-107,-156,-122,-122,-122
-170,-112,58,141,-114,-26,87,-34,-112,-87,-112,-117
-136,-73,63,104,-100,-4,136,102,24,9,-34,-63
-53,-53,0,53,-26,-26,224,302,214,136,73,24
97,39,-58,-68,78,-9,322,624,522,361,268,185
336,292,-43,-314,190,124,273,751,849,707,595,483
619,629,9,-624,305,319,-112,131,771,941,897,790
966,1054,87,-1010,439,570,-605,-390,741,1234,1249,1156
1322,1346,24,-1334,649,685,-1078,-639,897,1551,1605,1512
1424,1385,-39,-1405,732,673,-1429,-785,1049,1776,1854,1751
1273,1161,-112,-1217,692,524,-1473,-741,1180,1810,1873,1742
995,893,-102,-944,549,395,-1385,-761,1015,1532,1610,1483
707,551,-156,-629,431,197,-1273,-849,507,814,917,902
317,219,-97,-268,207,61,-985,-819,-131,-19,102,195
82,170,87,-126,-2,129,-717,-761,-419,-180,-68,4
122,161,39,-141,41,100,-483,-507,-307,-92,19,87
97,126,29,-112,34,78,-234,-204,-73,29,82,107
68,78,9,-73,29,43,-126,-43,53,82,97,97
43,4,-39,-24,41,-17,-87,9,78,87,87,58
9,-34,-43,12,26,-39,-39,39,68,53,53,29
-29,-39,-9,34,-9,-24,-9,39,43,14,19,0
-39,-48,-9,43,-14,-29,-4,39,14,-9,-4,-19
-48,-73,-24,61,-12,-48,4,43,9,-14,-19,-29
-63,-78,-14,70,-24,-46,24,58,14,-29,-29,-43
-78,-87,-9,82,-34,-48,43,73,14,-39,-43,-53
-78,-92,-14,85,-31,-53,53,82,9,-43,-48,-53
-78,-92,-14,85,-31,-53,53,82,4,-43,-48,-58
-82,-97,-14,90,-34,-56,58,87,0,-43,-48,-63
-87,-87,0,87,-43,-43,68,97,9,-43,-53,-63
-87,-78,9,82,-48,-34,78,107,9,-43,-53,-63
-82,-78,4,80,-43,-36,78,107,14,-43,-53,-63
-82,-78,4,80,-43,-36,78,117,19,-43,-48,-58
-92,-78,14,85,-53,-31,78,126,29,-39,-48,-58
-97,-78,19,87,-58,-29,82,136,34,-39,-48,-58
-82,-73,9,78,-46,-31,82,141,34,-29,-48,-58
-68,-73,-4,70,-31,-39,87,146,43,-29,-43,-53
-68,-68,0,68,-34,-34,87,156,53,-29,-39,-48
-68,-73,-4,70,-31,-39,87,165,58,-24,-34,-48
-63,-73,-9,68,-26,-41,87,175,68,-24,-39,-53
-58,-68,-9,63,-24,-39,87,185,73,-14,-39,-58
-53,-68,-14,61,-19,-41,92,195,82,-14,-34,-53
-48,-58,-9,53,-19,-34,92,209,92,-9,-34,-48
-43,-53,-9,48,-17,-31,97,219,102,-4,-29,-48
-43,-53,-9,48,-17,-31,102,234,112,0,-29,-43
-39,-58,-19,48,-9,-39,102,244,122,4,-24,-43
-34,-58,-24,46,-4,-41,107,258,126,4,-19,-39
-34,-53,-19,43,-7,-36,107,278,136,9,-19,-39
-19,-48,-29,34,4,-39,117,287,146,14,-19,-34
-24,-48,-24,36,0,-36,126,307,161,19,-9,-29
-19,-43,-24,31,2,-34,126,322,165,19,-9,-29
-14,-43,-29,29,7,-36,136,346,175,24,-9,-29
-4,-39,-34,21,14,-36,146,361,185,24,-9,-29
-4,-34,-29,19,12,-31,146,370,190,24,-4,-24
4,-29,-34,12,19,-31,151,390,195,29,-4,-24
9,-29,-39,9,24,-34,156,400,204,29,-4,-24
19,-29,-48,4,34,-39,161,405,209,24,-9,-29
34,-29,-63,-2,48,-46,161,424,214,24,-9,-29
39,-29,-68,-4,53,-48,161,434,214,19,-14,-29
53,-24,-78,-14,65,-51,165,448,214,9,-14,-29
58,-24,-82,-17,70,-53,170,458,214,9,-14,-34
68,-24,-92,-21,80,-58,170,458,214,4,-24,-39
73,-19,-92,-26,82,-56,170,463,200,-9,-29,-39
78,-19,-97,-29,87,-58,170,458,200,-24,-29,-34
78,-19,-97,-29,87,-58,170,448,190,-34,-39,-34
87,-19,-107,-34,97,-63,161,434,180,-43,-43,-39
92,-19,-112,-36,102,-65,156,424,170,-53,-53,-39
87,-24,-112,-31,100,-68,141,400,151,-68,-63,-39
78,-24,-102,-26,90,-63,126,370,136,-73,-73,-43
73,-19,-92,-26,82,-56,117,341,122,-78,-73,-43
63,-19,-82,-21,73,-51,107,297,97,-82,-73,-43
53,-19,-73,-17,63,-46,92,248,78,-82,-73,-48
34,-19,-53,-7,43,-36,82,209,58,-78,-73,-53
14,-24,-39,4,26,-31,73,170,29,-78,-73,-53
-4,-34,-29,19,12,-31,58,136,14,-78,-73,-53
-19,-39,-19,29,0,-29,53,97,-4,-78,-68,-53
-43,-43,0,43,-21,-21,48,58,-19,-78,-68,-58
-63,-48,14,56,-39,-17,43,29,-39,-78,-68,-63
-78,-58,19,68,-48,-19,34,4,-48,-73,-73,-68
-97,-68,29,82,-63,-19,29,-24,-63,-73,-73,-68
-107,-73,34,90,-70,-19,29,-39,-73,-78,-73,-73
-107,-73,34,90,-70,-19,24,-58,-87,-78,-78,-78
-112,-78,34,95,-73,-21,24,-73,-97,-82,-82,-78
-126,-87,39,107,-82,-24,19,-82,-102,-82,-82,-82
-126,-87,39,107,-82,-24,14,-92,-102,-87,-87,-82
-126,-97,29,112,-78,-34,9,-97,-112,-87,-87,-82
-126,-102,24,114,-75,-39,4,-97,-112,-92,-87,-78
-131,-102,29,117,-80,-36,4,-92,-117,-92,-87,-78
-131,-102,29,117,-80,-36,4,-97,-117,-92,-92,-82
-136,-102,34,119,-85,-34,0,-102,-117,-92,-87,-82
-136,-112,24,124,-80,-43,0,-102,-122,-92,-82,-82
-141,-107,34,124,-87,-36,0,-107,-122,-92,-82,-87
-146,-102,43,124,-95,-29,0,-112,-122,-92,-82,-92
-146,-102,43,124,-95,-29,0,-112,-122,-92,-82,-92
-146,-97,48,122,-97,-24,0,-112,-122,-92,-82,-87
-136,-92,43,114,-90,-24,0,-112,-122,-92,-82,-87
-126,-87,39,107,-82,-24,4,-112,-122,-92,-82,-87
-126,-82,43,104,-85,-19,9,-112,-122,-92,-87,-87
-122,-82,39,102,-80,-21,14,-102,-112,-87,-87,-87
-131,-82,48,107,-90,-17,14,-102,-112,-87,-87,-87
-141,-82,58,112,-100,-12,14,-97,-112,-87,-87,-87
-131,-82,48,107,-90,-17,9,-92,-112,-87,-82,-87
-122,-82,39,102,-80,-21,9,-92,-112,-87,-78,-87
-122,-78,43,100,-82,-17,9,-87,-102,-82,-78,-82
-117,-78,39,97,-78,-19,9,-87,-97,-82,-78,-82
-117,-78,39,97,-78,-19,14,-87,-97,-82,-78,-78
-117,-78,39,97,-78,-19,14,-87,-97,-82,-78,-73
-117,-78,39,97,-78,-19,14,-87,-102,-82,-78,-73
-117,-78,39,97,-78,-19,14,-87,-107,-82,-78,-78
-112,-78,34,95,-73,-21,14,-87,-107,-87,-82,-78
-112,-78,34,95,-73,-21,14,-87,-107,-87,-87,-78
-117,-78,39,97,-78,-19,14,-87,-112,-87,-87,-78
-117,-78,39,97,-78,-19,14,-87,-112,-87,-87,-78
-117,-78,39,97,-78,-19,19,-87,-107,-87,-82,-78
-117,-78,39,97,-78,-19,24,-87,-102,-87,-78,-78
-112,-73,39,92,-75,-17,24,-82,-102,-87,-82,-82
-107,-68,39,87,-73,-14,19,-82,-102,-87,-82,-82
-107,-73,34,90,-70,-19,14,-82,-107,-87,-82,-82
-107,-73,34,90,-70,-19,14,-87,-112,-92,-87,-82
-102,-73,29,87,-65,-21,14,-87,-112,-92,-87,-82
-102,-68,34,85,-68,-17,9,-87,-112,-92,-87,-82
-102,-68,34,85,-68,-17,9,-92,-112,-97,-87,-82
-102,-68,34,85,-68,-17,14,-92,-117,-97,-92,-87
-102,-68,34,85,-68,-17,14,-92,-117,-97,-97,-87
-102,-63,39,82,-70,-12,9,-97,-122,-97,-102,-87
-102,-68,34,85,-68,-17,9,-97,-122,-102,-102,-87
-102,-73,29,87,-65,-21,9,-97,-126,-102,-102,-87
-107,-73,34,90,-70,-19,9,-97,-131,-102,-102,-87
-107,-73,34,90,-70,-19,9,-97,-131,-102,-102,-87
-102,-78,24,90,-63,-26,9,-97,-131,-102,-102,-87
-102,-78,24,90,-63,-26,9,-97,-131,-102,-102,-87
-102,-73,29,87,-65,-21,14,-97,-136,-102,-102,-87
-102,-68,34,85,-68,-17,14,-97,-136,-102,-102,-87
-102,-78,24,90,-63,-26,19,-107,-136,-102,-102,-87
-102,-82,19,92,-61,-31,19,-112,-131,-102,-97,-82
-107,-82,24,95,-65,-29,19,-102,-126,-97,-97,-82
-117,-87,29,102,-73,-29,19,-97,-126,-97,-97,-87
-117,-87,29,102,-73,-29,19,-97,-126,-97,-97,-87
-117,-87,29,102,-73,-29,19,-97,-126,-97,-97,-87
-112,-82,29,97,-70,-26,24,-92,-122,-92,-92,-87
-107,-73,34,90,-70,-19,29,-82,-117,-87,-82,-82
-107,-68,39,87,-73,-14,39,-78,-112,-82,-78,-82
-107,-63,43,85,-75,-9,53,-73,-102,-78,-73,-78
-112,-68,43,90,-78,-12,68,-63,-102,-78,-73,-78
-117,-78,39,97,-78,-19,82,-53,-102,-78,-73,-82
-112,-78,34,95,-73,-21,87,-53,-97,-78,-78,-82
-102,-63,39,82,-70,-12,92,-53,-97,-68,-78,-78
-87,-53,34,70,-61,-9,82,-48,-92,-63,-68,-68
-68,-29,39,48,-53,4,63,-58,-92,-63,-63,-58
-58,-9,48,34,-53,19,39,-73,-92,-58,-53,-48
-48,4,53,21,-51,29,0,-92,-102,-58,-53,-39
-34,14,48,9,-41,31,-34,-102,-107,-63,-48,-34
-19,29,48,-4,-34,39,-43,-122,-117,-73,-48,-29
-19,19,39,0,-29,29,-43,-122,-122,-73,-53,-34
-19,9,29,4,-24,19,-39,-126,-131,-78,-63,-43
-24,-4,19,14,-21,7,-34,-126,-136,-82,-73,-48
-29,-14,14,21,-21,0,-29,-126,-136,-92,-73,-53
-34,-19,14,26,-24,-2,-29,-136,-146,-97,-78,-63
-48,-29,19,39,-34,-4,-29,-141,-156,-102,-92,-73
-63,-43,19,53,-41,-12,-24,-141,-161,-112,-107,-87
-87,-68,19,78,-53,-24,-14,-136,-165,-131,-122,-102
-107,-78,29,92,-68,-24,-4,-136,-165,-131,-126,-107
-117,-78,39,97,-78,-19,-4,-141,-175,-136,-131,-112
-117,-68,48,92,-82,-9,-4,-146,-175,-136,-131,-112
-117,-63,53,90,-85,-4,-4,-151,-175,-141,-136,-117
-117,-68,48,92,-82,-9,-4,-151,-175,-141,-131,-117
-112,-68,43,90,-78,-12,-4,-146,-175,-141,-126,-117
-112,-68,43,90,-78,-12,-4,-146,-175,-141,-126,-117
-112,-68,43,90,-78,-12,0,-146,-175,-141,-126,-117
-117,-73,43,95,-80,-14,0,-146,-175,-141,-122,-117
-117,-73,43,95,-80,-14,4,-146,-175,-141,-117,-117
-122,-73,48,97,-85,-12,4,-146,-175,-141,-122,-117
-122,-73,48,97,-85,-12,4,-146,-175,-141,-122,-122
-117,-73,43,95,-80,-14,4,-146,-175,-141,-126,-117
-112,-68,43,90,-78,-12,4,-146,-180,-136,-131,-112
-112,-68,43,90,-78,-12,4,-146,-180,-136,-131,-117
-117,-68,48,92,-82,-9,9,-141,-175,-136,-131,-117
-117,-68,48,92,-82,-9,9,-141,-175,-136,-131,-117
-117,-68,48,92,-82,-9,9,-141,-175,-136,-131,-117
-117,-63,53,90,-85,-4,9,-146,-170,-131,-126,-112
-117,-63,53,90,-85,-4,14,-151,-170,-131,-126,-112
-126,-78,48,102,-87,-14,19,-146,-190,-151,-141,-126
-131,-63,68,97,-100,2,58,-102,-180,-146,-151,-136
-151,-34,117,92,-134,41,82,-58,-126,-102,-122,-126
-122,-24,97,73,-109,36,146,48,-19,-29,-63,-82
-24,-43,-19,34,-2,-31,409,639,366,156,63,4
161,97,-63,-129,112,17,527,1034,771,463,322,229
409,414,4,-412,202,209,219,409,683,678,595,502
722,819,97,-771,312,458,-195,-117,644,951,917,834
1263,1307,43,-1285,610,675,-810,-507,756,1327,1366,1298
1551,1542,-9,-1546,780,766,-1302,-795,863,1610,1708,1644
1488,1410,-78,-1449,783,666,-1439,-727,1254,1981,2039,1903
1298,1234,-63,-1266,680,585,-1444,-722,1346,2039,2088,1912
1010,819,-190,-915,600,314,-1410,-849,839,1234,1327,1273
619,414,-204,-517,412,104,-1200,-858,200,312,444,507
273,317,43,-295,114,180,-912,-893,-322,-53,78,156
200,258,58,-229,70,158,-658,-732,-444,-170,-29,78
185,239,53,-212,65,146,-346,-351,-165,-14,63,126
165,204,39,-185,63,122,-175,-112,4,73,107,146
136,112,-24,-124,80,43,-112,-19,68,97,107,107
97,53,-43,-75,70,4,-39,48,97,82,82,78
53,48,-4,-51,29,21,-4,48,73,43,48,43
39,39,0,-39,19,19,4,48,43,19,24,19
29,9,-19,-19,24,-4,14,48,29,9,9,4
14,0,-14,-7,14,-7,34,58,24,-9,0,-14
-4,-9,-4,7,0,-7,58,73,24,-19,-24,-29
-9,-14,-4,12,-2,-9,73,82,19,-24,-39,-34
-9,-14,-4,12,-2,-9,73,87,19,-24,-39,-39
-14,-19,-4,17,-4,-12,78,97,19,-24,-39,-43
-19,-19,0,19,-9,-9,82,112,29,-24,-43,-43
-19,-19,0,19,-9,-9,87,126,29,-24,-43,-43
-14,-19,-4,17,-4,-12,87,126,29,-24,-43,-48
-14,-19,-4,17,-4,-12,87,136,29,-24,-39,-48
-14,-19,-4,17,-4,-12,92,146,39,-19,-39,-48
-9,-19,-9,14,0,-14,102,156,43,-19,-39,-48
-4,-14,-9,9,2,-12,102,161,43,-9,-39,-48
0,-14,-14,7,7,-14,107,165,53,-9,-34,-43
0,-9,-9,4,4,-9,112,175,63,-9,-29,-39
0,-14,-14,7,7,-14,117,185,68,-4,-24,-39
4,-14,-19,4,12,-17,117,195,82,-4,-24,-39
9,-9,-19,0,14,-14,117,204,92,4,-19,-39
14,-9,-24,-2,19,-17,122,214,102,4,-14,-29
19,0,-19,-9,19,-9,122,229,112,9,-14,-19
19,4,-14,-12,17,-4,126,239,117,14,-9,-19
14,4,-9,-9,12,-2,131,253,122,19,-9,-14
19,0,-19,-9,19,-9,131,263,131,24,-4,-14
24,0,-24,-12,24,-12,136,278,136,24,0,-9
24,4,-19,-14,21,-7,136,297,146,29,0,-14
39,9,-29,-24,34,-9,146,307,156,34,0,-14
43,9,-34,-26,39,-12,156,326,170,39,9,-9
58,14,-43,-36,51,-14,156,341,175,39,9,-9
63,14,-48,-39,56,-17,161,366,185,43,9,-9
73,19,-53,-46,63,-17,165,380,195,43,9,-9
63,39,-24,-51,43,7,161,375,195,39,9,-9
63,58,-4,-61,34,26,161,380,195,39,4,-14
68,48,-19,-58,43,14,170,405,204,39,4,-14
78,39,-39,-58,58,0,180,424,209,34,0,-19
92,34,-58,-63,75,-12,185,444,214,39,0,-19
97,29,-68,-63,82,-19,190,453,214,39,-4,-19
107,34,-73,-70,90,-19,195,463,214,24,-9,-19
107,34,-73,-70,90,-19,200,468,214,19,-14,-24
122,34,-87,-78,104,-26,200,473,224,14,-24,-29
131,39,-92,-85,112,-26,200,483,219,0,-29,-29
136,39,-97,-87,117,-29,200,488,219,-9,-24,-24
136,39,-97,-87,117,-29,200,488,209,-14,-29,-24
141,39,-102,-90,122,-31,190,478,200,-24,-34,-29
141,39,-102,-90,122,-31,185,473,190,-34,-43,-29
141,29,-112,-85,126,-41,175,448,170,-48,-48,-29
136,24,-112,-80,124,-43,165,419,156,-53,-53,-34
136,29,-107,-82,122,-39,156,400,146,-63,-58,-34
131,29,-102,-80,117,-36,146,366,126,-73,-63,-34
122,29,-92,-75,107,-31,131,317,107,-73,-63,-34
102,29,-73,-65,87,-21,122,278,87,-68,-63,-34
82,24,-58,-53,70,-17,112,234,58,-68,-63,-34
63,14,-48,-39,56,-17,97,195,43,-68,-63,-34
53,14,-39,-34,46,-12,82,151,19,-68,-58,-34
34,14,-19,-24,26,-2,68,107,0,-68,-58,-39
14,9,-4,-12,9,2,63,68,-19,-68,-58,-43
0,0,0,0,0,0,53,34,-29,-63,-63,-48
-19,-9,9,14,-14,0,48,4,-43,-63,-63,-48
-29,-14,14,21,-21,0,48,-9,-53,-68,-63,-53
-34,-14,19,24,-26,2,43,-29,-68,-68,-68,-58
-43,-19,24,31,-34,2,43,-43,-78,-73,-73,-58
-68,-34,34,51,-51,0,48,-53,-82,-68,-68,-63
-78,-39,39,58,-58,0,53,-63,-82,-68,-68,-63
-78,-43,34,61,-56,-4,43,-68,-92,-68,-68,-68
-78,-43,34,61,-56,-4,34,-68,-92,-73,-68,-68
-78,-43,34,61,-56,-4,34,-68,-97,-73,-73,-68
-73,-43,29,58,-51,-7,34,-78,-97,-73,-82,-73
-78,-43,34,61,-56,-4,29,-82,-92,-73,-82,-73
-78,-53,24,65,-51,-14,29,-82,-92,-73,-82,-73
-78,-53,24,65,-51,-14,29,-82,-92,-73,-78,-73
-78,-53,24,65,-51,-14,29,-82,-92,-73,-73,-73
-78,-53,24,65,-51,-14,29,-82,-97,-73,-73,-73
-78,-48,29,63,-53,-9,29,-82,-102,-73,-73,-68
-73,-48,24,61,-48,-12,29,-82,-102,-73,-73,-63
-68,-48,19,58,-43,-14,34,-82,-102,-73,-73,-58
-68,-48,19,58,-43,-14,39,-82,-102,-73,-73,-58
-63,-53,9,58,-36,-21,43,-73,-92,-68,-68,-58
-63,-58,4,61,-34,-26,43,-73,-92,-68,-68,-63
-63,-63,0,63,-31,-31,43,-68,-92,-68,-68,-68
-63,-63,0,63,-31,-31,39,-68,-92,-73,-68,-68
-63,-63,0,63,-31,-31,39,-73,-92,-78,-68,-68
-63,-53,9,58,-36,-21,39,-68,-87,-73,-68,-63
-58,-48,9,53,-34,-19,39,-68,-87,-73,-68,-63
-58,-48,9,53,-34,-19,39,-68,-87,-73,-68,-63
-58,-48,9,53,-34,-19,34,-68,-87,-73,-68,-63
-58,-48,9,53,-34,-19,34,-68,-87,-73,-68,-63
-58,-48,9,53,-34,-19,34,-68,-87,-73,-68,-68
-53,-53,0,53,-26,-26,34,-63,-87,-73,-68,-68
-53,-58,-4,56,-24,-31,34,-58,-87,-68,-68,-68
-58,-58,0,58,-29,-29,39,-58,-92,-68,-68,-68
-58,-58,0,58,-29,-29,43,-58,-92,-68,-68,-68
-58,-58,0,58,-29,-29,43,-58,-92,-68,-68,-63
-58,-58,0,58,-29,-29,43,-58,-92,-68,-68,-58
-58,-58,0,58,-29,-29,43,-58,-87,-73,-73,-63
-58,-58,0,58,-29,-29,39,-63,-82,-78,-73,-63
-58,-63,-4,61,-26,-34,34,-63,-87,-78,-73,-68
-58,-63,-4,61,-26,-34,34,-68,-92,-82,-78,-73
-58,-68,-9,63,-24,-39,34,-68,-92,-82,-78,-73
-63,-68,-4,65,-29,-36,29,-68,-92,-82,-78,-73
-58,-58,0,58,-29,-29,24,-73,-97,-87,-78,-73
-53,-48,4,51,-29,-21,24,-73,-107,-87,-82,-78
-53,-48,4,51,-29,-21,24,-73,-107,-87,-82,-78
-53,-43,9,48,-31,-17,19,-78,-112,-87,-82,-78
-53,-43,9,48,-31,-17,24,-82,-112,-92,-82,-78
-53,-43,9,48,-31,-17,29,-87,-117,-92,-82,-78
-58,-43,14,51,-36,-14,29,-87,-117,-92,-82,-82
-58,-43,14,51,-36,-14,29,-87,-112,-92,-82,-87
-53,-48,4,51,-29,-21,29,-87,-112,-92,-82,-87
-53,-48,4,51,-29,-21,29,-87,-112,-92,-82,-87
-53,-48,4,51,-29,-21,29,-87,-122,-92,-87,-87
-48,-48,0,48,-24,-24,29,-87,-126,-92,-92,-87
-48,-43,4,46,-26,-19,29,-87,-126,-92,-87,-82
-53,-39,14,46,-34,-12,29,-92,-126,-92,-82,-82
-48,-34,14,41,-31,-9,34,-87,-122,-87,-78,-78
-48,-29,19,39,-34,-4,39,-87,-117,-87,-78,-78
-43,-24,19,34,-31,-2,43,-73,-107,-82,-73,-73
-39,-19,19,29,-29,0,48,-58,-97,-78,-68,-68
-34,-9,24,21,-29,7,53,-53,-97,-73,-68,-68
-29,0,29,14,-29,14,63,-48,-87,-63,-63,-63
-29,4,34,12,-31,19,78,-43,-82,-58,-63,-58
-29,4,34,12,-31,19,92,-34,-82,-58,-63,-58
-29,0,29,14,-29,14,107,-24,-78,-58,-63,-58
-24,0,24,12,-24,12,112,-24,-68,-58,-63,-53
-14,19,34,-2,-24,26,112,-24,-68,-48,-58,-48
-4,29,34,-12,-19,31,102,-24,-63,-43,-48,-39
9,48,39,-29,-14,43,82,-39,-63,-43,-43,-29
19,63,43,-41,-12,53,58,-53,-63,-39,-34,-24
29,68,39,-48,-4,53,19,-73,-73,-39,-34,-19
39,68,29,-53,4,48,-14,-82,-82,-43,-34,-19
48,78,29,-63,9,53,-24,-102,-97,-53,-39,-19
48,63,14,-56,17,39,-24,-102,-102,-58,-43,-24
48,53,4,-51,21,29,-19,-107,-112,-68,-53,-34
34,43,9,-39,12,26,-14,-107,-117,-73,-63,-39
19,34,14,-26,2,24,-9,-107,-117,-78,-63,-43
14,24,9,-19,2,17,-9,-117,-126,-78,-68,-53
0,9,9,-4,-4,9,-9,-122,-136,-82,-82,-63
-14,-4,9,9,-12,2,-4,-122,-141,-87,-92,-73
-34,-34,0,34,-17,-17,4,-117,-146,-107,-102,-87
-48,-48,0,48,-24,-24,14,-117,-146,-112,-107,-97
-58,-48,9,53,-34,-19,14,-122,-156,-117,-112,-102
-58,-48,9,53,-34,-19,14,-126,-156,-117,-112,-102
-58,-53,4,56,-31,-24,14,-131,-156,-122,-117,-102
-63,-58,4,61,-34,-26,14,-131,-156,-122,-117,-97
-63,-58,4,61,-34,-26,14,-126,-156,-122,-112,-97
-63,-58,4,61,-34,-26,14,-126,-156,-122,-107,-97
-63,-58,4,61,-34,-26,19,-126,-156,-122,-107,-97
-68,-63,4,65,-36,-29,19,-126,-156,-122,-107,-97
-68,-63,4,65,-36,-29,19,-126,-156,-122,-112,-97
-73,-63,9,68,-41,-26,14,-126,-156,-122,-122,-97
-73,-63,9,68,-41,-26,14,-126,-156,-122,-122,-102
-73,-68,4,70,-39,-31,14,-126,-156,-126,-122,-102
-73,-68,4,70,-39,-31,19,-126,-161,-126,-122,-102
-73,-68,4,70,-39,-31,24,-126,-161,-126,-122,-107
-78,-68,9,73,-43,-29,29,-117,-156,-126,-117,-107
-78,-68,9,73,-43,-29,29,-112,-156,-126,-112,-107
-78,-68,9,73,-43,-29,29,-112,-156,-126,-112,-107
-78,-63,14,70,-46,-24,29,-112,-151,-122,-107,-102
-73,-63,9,68,-41,-26,34,-112,-151,-122,-107,-102
-73,-63,9,68,-41,-26,53,-82,-141,-122,-107,-107
-73,-34,39,53,-56,2,102,-14,-92,-87,-97,-102
-53,0,53,26,-53,26,146,107,39,14,-24,-48
14,14,0,-14,7,7,234,297,219,141,78,34
165,78,-87,-122,126,-4,366,678,551,370,273,185
390,302,-87,-346,239,107,366,883,917,722,595,473
658,653,-4,-656,331,324,-4,268,849,961,897,780
1015,1107,92,-1061,461,600,-497,-287,795,1263,1259,1156
1415,1449,34,-1432,690,741,-1005,-570,936,1605,1649,1542
1551,1522,-29,-1537,790,746,-1395,-736,1083,1825,1908,1790
1405,1317,-87,-1361,746,614,-1449,-683,1273,1927,1981,1834
1127,1063,-63,-1095,595,500,-1366,-692,1161,1727,1781,1634
834,692,-141,-763,488,275,-1263,-780,629,946,1039,1010
434,336,-97,-385,265,119,-995,-775,-34,53,175,258
175,283,107,-229,34,195,-727,-761,-375,-146,-29,43
200,268,68,-234,65,168,-483,-527,-307,-92,24,107
175,229,53,-202,61,141,-229,-214,-73,29,82,126
156,175,19,-165,68,97,-117,-43,53,82,97,117
136,102,-34,-119,85,34,-73,19,87,92,87,78
97,58,-39,-78,68,9,-19,58,87,63,53,48
58,48,-9,-53,34,19,9,58,63,24,19,19
48,39,-9,-43,29,14,14,58,34,0,-4,0
39,14,-24,-26,31,-4,24,58,24,-4,-19,-14
19,9,-9,-14,14,0,43,68,24,-19,-29,-34
0,0,0,0,0,0,63,82,24,-29,-43,-43
0,-4,-4,2,2,-4,73,92,19,-34,-48,-43
0,-4,-4,2,2,-4,73,97,19,-34,-48,-48
0,-9,-9,4,4,-9,78,107,19,-34,-48,-53
0,-9,-9,4,4,-9,87,117,29,-34,-53,-53
0,-9,-9,4,4,-9,97,126,29,-34,-53,-53
4,-9,-14,2,9,-12,97,126,34,-34,-53,-53
4,-9,-14,2,9,-12,102,136,39,-34,-48,-48
4,-9,-14,2,9,-12,107,146,48,-29,-48,-48
9,-9,-19,0,14,-14,112,156,53,-29,-48,-53
14,-4,-19,-4,17,-12,112,161,53,-19,-48,-58
19,-9,-29,-4,24,-19,117,165,63,-14,-43,-53
19,-4,-24,-7,21,-14,122,175,73,-9,-39,-48
19,-9,-29,-4,24,-19,126,185,78,-4,-29,-43
24,-14,-39,-4,31,-26,126,195,87,-4,-24,-39
29,-9,-39,-9,34,-24,126,204,92,4,-19,-39
34,-9,-43,-12,39,-26,131,214,102,4,-14,-34
39,0,-39,-19,39,-19,131,229,112,9,-14,-29
43,4,-39,-24,41,-17,136,239,122,14,-9,-29
39,9,-29,-24,34,-9,141,253,131,19,-9,-24
39,9,-29,-24,34,-9,141,263,141,24,-4,-24
43,9,-34,-26,39,-12,146,278,146,24,0,-19
43,14,-29,-29,36,-7,146,297,156,29,0,-19
58,19,-39,-39,48,-9,156,307,165,34,0,-14
58,19,-39,-39,48,-9,165,326,180,39,9,-9
68,24,-43,-46,56,-9,165,336,185,39,9,-9
73,24,-48,-48,61,-12,170,356,195,43,9,-9
82,29,-53,-56,68,-12,175,370,204,39,4,-9
82,34,-48,-58,65,-7,175,380,209,34,4,-4
92,39,-53,-65,73,-7,175,400,214,39,4,-4
97,39,-58,-68,78,-9,180,414,224,39,4,-4
107,39,-68,-73,87,-14,190,424,224,34,0,-9
122,39,-82,-80,102,-21,190,444,224,34,0,-9
126,39,-87,-82,107,-24,190,453,224,29,-4,-9
136,43,-92,-90,114,-24,195,463,224,14,-9,-9
136,39,-97,-87,117,-29,200,468,224,9,-14,-14
146,34,-112,-90,129,-39,200,468,224,4,-24,-19
151,39,-112,-95,131,-36,200,473,209,-9,-29,-19
156,39,-117,-97,136,-39,195,473,209,-19,-29,-19
151,43,-107,-97,129,-31,190,468,200,-24,-39,-24
156,48,-107,-102,131,-29,180,453,190,-34,-43,-29
161,48,-112,-104,136,-31,175,444,180,-43,-53,-34
161,43,-117,-102,139,-36,165,419,161,-58,-58,-39
156,43,-112,-100,134,-34,156,390,146,-63,-63,-43
151,48,-102,-100,126,-26,146,361,131,-68,-63,-43
141,48,-92,-95,117,-21,136,322,107,-73,-63,-43
126,48,-78,-87,102,-14,122,278,87,-73,-63,-43
102,43,-58,-73,80,-7,112,239,73,-68,-63,-43
82,34,-48,-58,65,-7,102,195,48,-68,-63,-43
63,24,-39,-43,51,-7,87,156,34,-68,-63,-43
53,19,-34,-36,43,-7,78,117,14,-68,-58,-43
34,14,-19,-24,26,-2,68,78,0,-68,-58,-43
14,9,-4,-12,9,2,63,48,-19,-68,-58,-43
0,0,0,0,0,0,53,24,-29,-63,-63,-48
-19,-9,9,14,-14,0,48,-4,-43,-63,-63,-48
-29,-9,19,19,-24,4,48,-19,-53,-68,-63,-58
-34,-4,29,19,-31,12,43,-39,-68,-68,-68,-68
-43,-9,34,26,-39,12,43,-53,-82,-73,-73,-68
-58,-19,39,39,-48,9,39,-63,-92,-73,-73,-73
-58,-14,43,36,-51,14,29,-78,-92,-78,-78,-73
-58,-14,43,36,-51,14,24,-87,-102,-78,-78,-78
-63,-14,48,39,-56,17,24,-87,-102,-82,-78,-78
-73,-14,58,43,-65,21,24,-87,-107,-82,-78,-78
-73,-19,53,46,-63,17,29,-92,-107,-82,-82,-82
-78,-24,53,51,-65,14,29,-92,-107,-82,-82,-82
-73,-34,39,53,-56,2,29,-92,-112,-82,-82,-82
-68,-34,34,51,-51,0,29,-92,-112,-82,-82,-82
-68,-34,34,51,-51,0,24,-92,-107,-82,-82,-82
-68,-34,34,51,-51,0,19,-92,-102,-82,-82,-82
-73,-29,43,51,-58,7,19,-92,-102,-82,-82,-78
-78,-29,48,53,-63,9,19,-92,-102,-82,-82,-78
-78,-29,48,53,-63,9,29,-92,-107,-82,-82,-78
-78,-29,48,53,-63,9,34,-92,-112,-82,-82,-78
-73,-34,39,53,-56,2,34,-82,-102,-78,-78,-78
-73,-34,39,53,-56,2,34,-82,-102,-78,-78,-78
-73,-39,34,56,-53,-2,39,-78,-102,-78,-78,-78
-73,-43,29,58,-51,-7,39,-73,-102,-78,-78,-78
-73,-43,29,58,-51,-7,39,-73,-102,-78,-78,-78
-73,-39,34,56,-53,-2,39,-68,-97,-73,-78,-73
-68,-39,29,53,-48,-4,34,-68,-97,-73,-78,-73
-68,-39,29,53,-48,-4,34,-68,-97,-73,-78,-73
-68,-39,29,53,-48,-4,34,-68,-97,-73,-78,-73
-68,-39,29,53,-48,-4,34,-68,-97,-73,-78,-73
-68,-43,24,56,-46,-9,34,-68,-97,-73,-78,-78
-63,-48,14,56,-39,-17,34,-68,-97,-78,-78,-78
-63,-48,14,56,-39,-17,34,-73,-97,-78,-78,-78
-68,-48,19,58,-43,-14,34,-78,-102,-78,-78,-78
-73,-53,19,63,-46,-17,34,-78,-102,-78,-78,-78
-78,-58,19,68,-48,-19,34,-78,-102,-78,-78,-78
-78,-58,19,68,-48,-19,34,-78,-102,-78,-78,-73
-78,-58,19,68,-48,-19,34,-78,-102,-78,-82,-73
-78,-53,24,65,-51,-14,29,-78,-102,-78,-82,-73
-78,-53,24,65,-51,-14,29,-73,-107,-78,-82,-73
-78,-53,24,65,-51,-14,34,-78,-112,-82,-87,-78
-78,-58,19,68,-48,-19,34,-78,-112,-82,-87,-82
-82,-63,19,73,-51,-21,29,-82,-112,-82,-87,-82
-82,-68,14,75,-48,-26,29,-92,-112,-87,-87,-82
-82,-68,14,75,-48,-26,34,-92,-117,-87,-92,-87
-82,-68,14,75,-48,-26,34,-92,-117,-87,-92,-87
-82,-63,19,73,-51,-21,24,-97,-122,-87,-92,-87
-82,-63,19,73,-51,-21,19,-97,-122,-92,-92,-87
-82,-63,19,73,-51,-21,19,-97,-126,-92,-92,-87
-87,-63,24,75,-56,-19,19,-97,-126,-92,-92,-87
-92,-63,29,78,-61,-17,19,-97,-126,-97,-92,-87
-92,-68,24,80,-58,-21,19,-97,-131,-102,-92,-87
-92,-73,19,82,-56,-26,19,-97,-131,-102,-97,-87
-92,-73,19,82,-56,-26,24,-97,-136,-102,-102,-87
-97,-73,24,85,-61,-24,24,-107,-136,-107,-102,-92
-97,-78,19,87,-58,-29,29,-112,-136,-112,-102,-97
-92,-73,19,82,-56,-26,29,-107,-136,-107,-97,-92
-87,-73,14,80,-51,-29,29,-102,-141,-102,-92,-87
-87,-68,19,78,-53,-24,34,-97,-136,-97,-87,-87
-87,-68,19,78,-53,-24,39,-97,-136,-97,-87,-87
-87,-58,29,73,-58,-14,39,-92,-131,-97,-87,-82
-87,-48,39,68,-63,-4,39,-87,-126,-97,-87,-78
-82,-43,39,63,-61,-2,48,-78,-117,-92,-82,-78
-78,-39,39,58,-58,0,63,-68,-102,-82,-78,-73
-78,-34,43,56,-61,4,78,-63,-87,-73,-73,-68
-78,-34,43,56,-61,4,92,-53,-82,-68,-73,-68
-78,-39,39,58,-58,0,102,-43,-82,-68,-73,-73
-73,-39,34,56,-53,-2,102,-43,-78,-68,-73,-73
-63,-24,39,43,-51,7,102,-43,-82,-58,-68,-68
-53,-19,34,36,-43,7,92,-43,-82,-53,-58,-58
-39,0,39,19,-39,19,68,-58,-82,-53,-58,-48
-29,14,43,7,-36,29,39,-73,-82,-48,-53,-43
-19,24,43,-2,-31,34,0,-92,-92,-48,-53,-39
-9,29,39,-9,-24,34,-34,-102,-102,-53,-53,-39
-4,39,43,-17,-24,41,-43,-122,-117,-63,-58,-39
-9,24,34,-7,-21,29,-43,-122,-122,-68,-63,-43
-9,9,19,0,-14,14,-39,-131,-136,-78,-73,-53
-24,-4,19,14,-21,7,-34,-136,-146,-82,-82,-58
-39,-9,29,24,-34,9,-29,-136,-146,-97,-82,-63
-43,-14,29,29,-36,7,-29,-146,-156,-107,-87,-73
-58,-29,29,43,-43,0,-29,-151,-165,-112,-102,-82
-73,-43,29,58,-51,-7,-24,-151,-170,-117,-112,-92
-97,-73,24,85,-61,-24,-14,-146,-175,-131,-122,-102
-117,-87,29,102,-73,-29,-4,-146,-175,-131,-126,-107
-131,-87,43,109,-87,-21,-9,-151,-185,-136,-131,-117
-136,-87,48,112,-92,-19,-14,-156,-185,-136,-131,-122
-136,-92,43,114,-90,-24,-14,-161,-185,-141,-136,-126
-141,-97,43,119,-92,-26,-14,-161,-185,-141,-136,-126
-141,-97,43,119,-92,-26,-14,-156,-190,-141,-136,-126
-141,-97,43,119,-92,-26,-14,-156,-195,-141,-136,-126
-141,-102,39,122,-90,-31,-4,-156,-195,-141,-136,-126
-146,-112,34,129,-90,-39,0,-156,-195,-141,-136,-126
-146,-112,34,129,-90,-39,4,-156,-190,-141,-136,-126
-151,-112,39,131,-95,-36,4,-156,-185,-141,-141,-126
-151,-112,39,131,-95,-36,4,-151,-185,-141,-141,-131
-151,-117,34,134,-92,-41,4,-146,-185,-146,-141,-131
-151,-112,39,131,-95,-36,4,-146,-190,-146,-141,-126
-151,-107,43,129,-97,-31,4,-146,-190,-146,-141,-126
-156,-107,48,131,-102,-29,9,-141,-185,-146,-141,-126
-156,-107,48,131,-102,-29,9,-141,-185,-146,-141,-126
-156,-112,43,134,-100,-34,9,-146,-185,-146,-141,-126
-156,-112,43,134,-100,-34,9,-151,-180,-141,-136,-122
-156,-117,39,136,-97,-39,14,-151,-185,-141,-136,-126
-161,-122,39,141,-100,-41,34,-122,-180,-141,-136,-136
-161,-92,68,126,-114,-12,87,-58,-141,-122,-131,-141
-141,-58,82,100,-112,12,136,58,-19,-34,-63,-97
-82,-48,34,65,-58,-7,224,244,151,78,14,-19
58,9,-48,-34,53,-19,356,619,473,292,185,126
297,234,-63,-265,180,85,341,810,819,634,507,405
580,585,4,-583,287,295,-43,180,732,863,810,702
936,1024,87,-980,424,556,-536,-370,683,1156,1161,1068
1337,1351,14,-1344,661,683,-1044,-649,829,1488,1542,1444
1478,1429,-48,-1454,763,690,-1429,-814,990,1737,1830,1717
1337,1229,-107,-1283,722,561,-1478,-761,1195,1869,1932,1786
1063,980,-82,-1022,573,448,-1400,-771,1093,1678,1742,1595
775,614,-161,-695,468,226,-1302,-858,570,907,1010,980
385,258,-126,-322,256,65,-1024,-824,-78,24,151,234
136,204,68,-170,34,136,-746,-780,-405,-165,-48,24
161,195,34,-178,63,114,-497,-546,-336,-107,14,92
136,161,24,-148,56,92,-239,-234,-102,19,82,117
102,107,4,-104,48,56,-126,-58,29,73,97,107
68,34,-34,-51,51,0,-82,9,68,82,87,68
29,-4,-34,-12,31,-19,-29,48,68,53,53,39
-9,-9,0,9,-4,-4,0,48,43,14,19,9
-19,-19,0,19,-9,-9,4,43,14,-9,-4,-9
-29,-43,-14,36,-7,-29,14,39,4,-14,-19,-24
-43,-48,-4,46,-19,-26,34,48,4,-29,-34,-43
-58,-58,0,58,-29,-29,53,63,4,-39,-53,-53
-58,-68,-9,63,-24,-39,58,73,0,-43,-58,-53
-58,-73,-14,65,-21,-43,53,78,0,-43,-58,-58
-63,-78,-14,70,-24,-46,58,87,0,-43,-58,-63
-68,-78,-9,73,-29,-43,68,97,9,-43,-63,-63
-68,-73,-4,70,-31,-39,78,107,9,-43,-63,-68
-63,-68,-4,65,-29,-36,78,107,14,-43,-63,-73
-63,-68,-4,65,-29,-36,82,117,19,-43,-58,-68
-63,-68,-4,65,-29,-36,87,126,29,-39,-58,-68
-58,-68,-9,63,-24,-39,92,136,34,-39,-53,-63
-53,-63,-9,58,-21,-36,92,141,34,-29,-48,-58
-48,-63,-14,56,-17,-39,97,146,43,-24,-43,-53
-48,-53,-4,51,-21,-29,102,156,53,-19,-39,-48
-48,-53,-4,51,-21,-29,107,165,63,-14,-34,-48
-43,-53,-9,48,-17,-31,107,175,78,-14,-34,-48
-39,-48,-9,43,-14,-29,107,185,82,-4,-29,-48
-34,-48,-14,41,-9,-31,112,195,92,-4,-24,-43
-29,-34,-4,31,-12,-19,112,209,97,-4,-29,-39
-24,-24,0,24,-12,-12,117,219,102,-4,-29,-39
-24,-24,0,24,-12,-12,122,234,112,0,-29,-34
-19,-29,-9,24,-4,-19,122,244,122,4,-24,-34
-14,-29,-14,21,0,-21,122,258,126,4,-19,-34
-14,-24,-9,19,-2,-17,117,278,136,9,-19,-39
0,-19,-19,9,9,-19,126,287,146,14,-19,-34
0,-19,-19,9,9,-19,136,307,161,19,-9,-29
9,-14,-24,2,17,-19,141,322,165,19,-9,-29
14,-14,-29,0,21,-21,151,346,175,24,-9,-29
24,-9,-34,-7,29,-21,156,361,185,24,-9,-24
24,-4,-29,-9,26,-17,156,370,190,24,-4,-14
34,0,-34,-17,34,-17,161,390,195,29,-4,-14
39,0,-39,-19,39,-19,170,405,204,29,-4,-14
48,0,-48,-24,48,-24,180,414,209,24,-9,-19
63,0,-63,-31,63,-31,180,434,214,24,-9,-19
68,0,-68,-34,68,-34,175,444,214,24,-14,-19
78,4,-73,-41,75,-34,175,453,214,14,-19,-19
78,4,-73,-41,75,-34,180,458,214,9,-24,-24
87,4,-82,-46,85,-39,180,458,214,4,-34,-29
92,9,-82,-51,87,-36,180,463,200,-9,-39,-29
97,9,-87,-53,92,-39,175,463,200,-19,-39,-29
97,9,-87,-53,92,-39,175,463,190,-24,-43,-34
107,9,-97,-58,102,-43,170,453,180,-34,-43,-39
112,9,-102,-61,107,-46,165,444,170,-43,-53,-39
112,4,-107,-58,109,-51,156,419,151,-58,-58,-39
107,4,-102,-56,104,-48,146,390,136,-63,-63,-43
102,9,-92,-56,97,-41,136,361,122,-68,-63,-43
92,9,-82,-51,87,-36,122,317,97,-73,-68,-48
78,9,-68,-43,73,-29,102,268,78,-73,-73,-53
53,9,-43,-31,48,-17,92,229,58,-73,-73,-53
34,4,-29,-19,31,-12,82,185,29,-78,-73,-53
19,-4,-24,-7,21,-14,73,146,14,-78,-73,-48
14,-9,-24,-2,19,-17,68,107,-4,-78,-68,-43
-4,-14,-9,9,2,-12,58,68,-19,-78,-68,-48
-24,-19,4,21,-14,-7,53,39,-39,-78,-68,-53
-39,-29,9,34,-24,-9,43,14,-48,-73,-73,-58
-58,-39,19,48,-39,-9,39,-14,-63,-73,-73,-58
-68,-43,24,56,-46,-9,39,-34,-73,-78,-73,-63
-73,-43,29,58,-51,-7,34,-58,-87,-78,-78,-68
-87,-53,34,70,-61,-9,34,-73,-97,-82,-82,-73
-107,-68,39,87,-73,-14,29,-82,-102,-82,-82,-82
-107,-68,39,87,-73,-14,24,-92,-102,-87,-87,-82
-107,-73,34,90,-70,-19,24,-97,-112,-87,-87,-87
-107,-73,34,90,-70,-19,24,-97,-112,-92,-87,-87
-112,-73,39,92,-75,-17,24,-97,-117,-92,-87,-87
-112,-73,39,92,-75,-17,24,-107,-117,-92,-92,-92
-117,-73,43,95,-80,-14,19,-112,-117,-92,-92,-92
-117,-82,34,100,-75,-24,19,-112,-122,-92,-92,-92
-117,-82,34,100,-75,-24,19,-112,-122,-92,-92,-92
-117,-82,34,100,-75,-24,19,-112,-122,-92,-92,-92
-117,-82,34,100,-75,-24,19,-112,-122,-92,-92,-92
-117,-78,39,97,-78,-19,19,-112,-122,-92,-92,-87
-117,-78,39,97,-78,-19,19,-112,-122,-92,-92,-87
-117,-78,39,97,-78,-19,24,-107,-122,-92,-92,-87
-117,-78,39,97,-78,-19,24,-102,-122,-92,-92,-87
-112,-82,29,97,-70,-26,24,-92,-112,-87,-87,-82
-112,-82,29,97,-70,-26,24,-92,-112,-87,-87,-78
-112,-87,24,100,-68,-31,24,-87,-112,-87,-87,-78
-112,-92,19,102,-65,-36,19,-82,-112,-87,-87,-78
-112,-92,19,102,-65,-36,19,-82,-112,-87,-87,-78
-112,-87,24,100,-68,-31,19,-78,-107,-82,-87,-73
-107,-82,24,95,-65,-29,19,-78,-107,-82,-87,-73
-107,-78,29,92,-68,-24,24,-78,-107,-82,-87,-73
-112,-78,34,95,-73,-21,24,-78,-107,-82,-87,-73
-117,-78,39,97,-78,-19,24,-78,-107,-82,-87,-73
-117,-78,39,97,-78,-19,24,-78,-107,-82,-87,-78
-112,-78,34,95,-73,-21,24,-78,-107,-87,-87,-78
-112,-78,34,95,-73,-21,24,-82,-107,-87,-87,-78
-117,-78,39,97,-78,-19,24,-87,-112,-87,-87,-78
-117,-78,39,97,-78,-19,24,-87,-112,-87,-87,-78
-117,-78,39,97,-78,-19,24,-87,-112,-87,-87,-78
-117,-78,39,97,-78,-19,19,-87,-112,-87,-87,-78
-117,-78,39,97,-78,-19,14,-87,-112,-87,-92,-82
-117,-78,39,97,-78,-19,9,-92,-112,-87,-97,-82
-117,-82,34,100,-75,-24,9,-92,-117,-87,-102,-82
-117,-78,39,97,-78,-19,14,-97,-122,-92,-107,-82
-117,-78,39,97,-78,-19,14,-97,-122,-92,-107,-82
-122,-78,43,100,-82,-17,9,-97,-122,-92,-107,-87
-122,-78,43,100,-82,-17,9,-102,-122,-97,-107,-92
-122,-78,43,100,-82,-17,14,-102,-126,-97,-112,-97
-122,-78,43,100,-82,-17,14,-102,-126,-97,-112,-97
-122,-78,43,100,-82,-17,9,-107,-136,-97,-112,-97
-122,-82,39,102,-80,-21,9,-107,-141,-102,-112,-97
-122,-82,39,102,-80,-21,9,-107,-146,-102,-107,-97
-126,-82,43,104,-85,-19,9,-107,-146,-102,-102,-97
-126,-82,43,104,-85,-19,9,-112,-141,-102,-102,-97
-122,-87,34,104,-78,-26,9,-117,-141,-102,-102,-97
-122,-92,29,107,-75,-31,9,-117,-141,-102,-102,-97
-122,-92,29,107,-75,-31,14,-117,-146,-102,-102,-97
-122,-87,34,104,-78,-26,9,-117,-146,-107,-107,-97
-117,-87,29,102,-73,-29,9,-112,-146,-112,-112,-97
-117,-82,34,100,-75,-24,14,-112,-141,-107,-107,-92
-117,-82,34,100,-75,-24,19,-112,-141,-102,-102,-87
-117,-78,39,97,-78,-19,24,-107,-136,-97,-97,-87
-117,-78,39,97,-78,-19,29,-107,-136,-97,-97,-87
-107,-73,34,90,-70,-19,34,-92,-126,-92,-92,-87
-97,-68,29,82,-63,-19,39,-78,-117,-87,-87,-87
-97,-63,34,80,-65,-14,48,-73,-112,-87,-82,-82
-92,-58,34,75,-63,-12,58,-68,-102,-78,-78,-73
-92,-53,39,73,-65,-7,73,-63,-92,-73,-73,-68
-87,-53,34,70,-61,-9,82,-53,-92,-68,-73,-68
-87,-58,29,73,-58,-14,92,-43,-92,-68,-73,-73
-82,-58,24,70,-53,-17,92,-43,-87,-68,-73,-73
-73,-43,29,58,-51,-7,87,-43,-87,-58,-68,-68
-63,-39,24,51,-43,-7,73,-43,-82,-53,-58,-58
-48,-19,29,34,-39,4,53,-58,-82,-53,-53,-48
-39,-4,34,21,-36,14,29,-73,-82,-48,-43,-43
-29,0,29,14,-29,14,-9,-92,-92,-48,-43,-39
-19,0,19,9,-19,9,-43,-102,-102,-53,-43,-39
-14,9,24,2,-19,17,-48,-122,-117,-63,-48,-39
-19,-4,14,12,-17,4,-43,-122,-122,-68,-53,-43
-19,-14,4,17,-12,-4,-39,-126,-131,-78,-63,-53
-34,-24,9,29,-21,-7,-34,-126,-136,-82,-73,-58
-43,-34,9,39,-26,-12,-29,-126,-136,-92,-73,-63
-43,-43,0,43,-21,-21,-29,-136,-146,-97,-78,-73
-58,-63,-4,61,-26,-34,-29,-141,-156,-107,-97,-82
-73,-82,-9,78,-31,-46,-24,-141,-161,-117,-112,-92
-107,-107,0,107,-53,-53,-14,-141,-170,-131,-122,-102
-136,-117,19,126,-78,-48,-4,-146,-175,-131,-126,-107
-146,-112,34,129,-90,-39,-4,-151,-185,-136,-131,-112
-146,-107,39,126,-92,-34,-4,-156,-185,-136,-131,-112
-146,-112,34,129,-90,-39,-4,-161,-185,-141,-136,-117
-151,-117,34,134,-92,-41,-4,-161,-185,-141,-136,-117
-151,-117,34,134,-92,-41,-4,-156,-185,-141,-136,-117
-151,-117,34,134,-92,-41,-4,-156,-185,-141,-136,-117
-151,-117,34,134,-92,-41,0,-156,-185,-141,-136,-122
-156,-122,34,139,-95,-43,0,-156,-185,-141,-136,-126
-156,-122,34,139,-95,-43,4,-151,-185,-141,-131,-126
-161,-122,39,141,-100,-41,4,-146,-185,-141,-131,-126
-161,-122,39,141,-100,-41,4,-146,-180,-141,-131,-126
-161,-126,34,143,-97,-46,4,-146,-175,-146,-131,-122
-161,-126,34,143,-97,-46,4,-151,-180,-146,-131,-122
-161,-126,34,143,-97,-46,4,-156,-180,-146,-131,-126
-165,-117,48,141,-107,-34,4,-151,-180,-146,-131,-126
-165,-107,58,136,-112,-24,0,-151,-185,-146,-131,-126
-161,-107,53,134,-107,-26,0,-151,-185,-146,-131,-126
-156,-102,53,129,-104,-24,0,-151,-180,-141,-126,-122
-156,-102,53,129,-104,-24,-4,-165,-190,-146,-136,-126
-161,-102,58,131,-109,-21,4,-151,-190,-151,-146,-136
-175,-78,97,126,-136,9,58,-102,-175,-146,-156,-146
-170,-48,122,109,-146,36,107,0,-78,-73,-102,-107
-136,-78,58,107,-97,-9,200,175,63,4,-48,-68
-19,-58,-39,39,9,-48,336,541,356,185,97,39
195,122,-73,-158,134,24,429,893,780,531,400,307
453,429,-24,-441,239,202,151,424,771,766,683,595
839,917,78,-878,380,497,-356,-214,673,1049,1034,961
1268,1293,24,-1281,622,658,-878,-580,771,1371,1415,1337
1493,1459,-34,-1476,763,712,-1351,-780,961,1688,1781,1693
1434,1346,-87,-1390,761,629,-1488,-761,1195,1888,1961,1844
1185,1098,-87,-1141,636,505,-1454,-775,1195,1834,1903,1756
922,732,-190,-827,556,270,-1400,-868,775,1200,1302,1244
463,326,-136,-395,300,95,-1122,-873,19,161,292,370
146,224,78,-185,34,151,-844,-868,-414,-185,-58,34
170,219,48,-195,61,134,-585,-634,-375,-131,0,97
146,190,43,-168,51,117,-317,-322,-170,-9,63,117
117,136,19,-126,48,78,-180,-112,-4,63,87,112
87,63,-24,-75,56,19,-112,-9,68,92,87,78
48,14,-34,-31,41,-9,-48,34,68,63,53,48
9,0,-9,-4,9,-4,-9,39,43,24,19,19
-4,-9,-4,7,0,-7,-4,43,14,0,-4,0
-19,-34,-14,26,-2,-24,4,48,4,-4,-19,-14
-34,-39,-4,36,-14,-21,24,58,0,-24,-29,-39
-48,-48,0,48,-24,-24,43,73,-4,-39,-43,-53
-48,-53,-4,51,-21,-29,53,78,-9,-43,-48,-53
-48,-53,-4,51,-21,-29,53,78,-9,-43,-48,-58
-53,-63,-9,58,-21,-36,58,87,-4,-43,-48,-63
-58,-68,-9,63,-24,-39,68,97,9,-43,-53,-63
-58,-73,-14,65,-21,-43,82,112,9,-43,-53,-63
-53,-78,-24,65,-14,-51,87,117,14,-43,-53,-63
-53,-78,-24,65,-14,-51,87,126,24,-43,-48,-53
-53,-78,-24,65,-14,-51,87,136,39,-39,-48,-48
-48,-73,-24,61,-12,-48,92,146,43,-39,-48,-48
-43,-63,-19,53,-12,-41,92,151,43,-29,-48,-48
-39,-63,-24,51,-7,-43,92,156,48,-29,-43,-48
-39,-53,-14,46,-12,-34,92,165,53,-29,-39,-48
-39,-53,-14,46,-12,-34,97,175,58,-24,-34,-48
-34,-53,-19,43,-7,-36,97,185,68,-24,-34,-48
-29,-53,-24,41,-2,-39,102,195,73,-14,-29,-48
-24,-58,-34,41,4,-46,112,204,82,-14,-24,-43
-19,-48,-29,34,4,-39,112,219,92,-4,-24,-39
-14,-43,-29,29,7,-36,117,229,102,4,-19,-39
-14,-39,-24,26,4,-31,122,244,112,9,-24,-34
-9,-39,-29,24,9,-34,122,253,122,14,-24,-34
-4,-39,-34,21,14,-36,126,263,126,14,-19,-29
-4,-34,-29,19,12,-31,126,278,136,19,-19,-29
9,-29,-39,9,24,-34,136,287,141,24,-19,-24
9,-29,-39,9,24,-34,146,307,151,29,-9,-19
19,-29,-48,4,34,-39,146,322,156,29,-9,-19
24,-34,-58,4,41,-46,151,346,165,34,-9,-19
34,-29,-63,-2,48,-46,156,361,180,34,-9,-19
34,-24,-58,-4,46,-41,156,370,190,34,-4,-14
43,-19,-63,-12,53,-41,161,390,195,39,-4,-14
48,-19,-68,-14,58,-43,170,405,204,39,-4,-14
53,-19,-73,-17,63,-46,180,414,209,34,-9,-19
63,-19,-82,-21,73,-51,180,434,214,34,-9,-19
68,-19,-87,-24,78,-53,180,448,214,29,-14,-19
78,-14,-92,-31,85,-53,185,463,214,14,-19,-19
78,-14,-92,-31,85,-53,190,468,214,4,-24,-24
87,-14,-102,-36,95,-58,190,468,214,-4,-34,-29
97,-9,-107,-43,102,-58,190,473,200,-19,-39,-29
107,-9,-117,-48,112,-63,185,473,200,-29,-39,-29
107,-9,-117,-48,112,-63,190,473,195,-29,-43,-34
117,-9,-126,-53,122,-68,190,463,190,-34,-43,-39
122,-9,-131,-56,126,-70,185,458,180,-43,-53,-43
122,-14,-136,-53,129,-75,175,439,161,-58,-58,-48
117,-14,-131,-51,124,-73,165,409,146,-73,-68,-53
112,-9,-122,-51,117,-65,156,380,131,-87,-73,-53
102,-9,-112,-46,107,-61,141,336,107,-92,-73,-53
87,-9,-97,-39,92,-53,122,287,87,-92,-73,-53
68,0,-68,-34,68,-34,112,248,68,-87,-73,-53
53,4,-48,-29,51,-21,102,204,39,-87,-73,-53
34,-4,-39,-14,36,-21,87,165,24,-87,-73,-53
24,-9,-34,-7,29,-21,78,126,4,-87,-68,-53
9,-14,-24,2,17,-19,68,87,-9,-87,-68,-58
-4,-19,-14,12,4,-17,63,58,-29,-87,-68,-63
-19,-29,-9,24,-4,-19,48,34,-39,-78,-68,-63
-39,-39,0,39,-19,-19,39,4,-53,-73,-63,-58
-53,-43,9,48,-31,-17,39,-14,-63,-78,-63,-63
-63,-43,19,53,-41,-12,34,-39,-78,-78,-68,-68
-73,-48,24,61,-48,-12,39,-53,-87,-82,-78,-68
-87,-58,29,73,-58,-14,39,-63,-92,-82,-82,-73
-87,-58,29,73,-58,-14,34,-78,-97,-87,-87,-73
-87,-63,24,75,-56,-19,34,-87,-112,-87,-87,-78
-87,-63,24,75,-56,-19,34,-87,-112,-92,-87,-78
-92,-63,29,78,-61,-17,34,-87,-117,-92,-87,-78
-92,-63,29,78,-61,-17,34,-92,-117,-87,-87,-82
-97,-63,34,80,-65,-14,29,-92,-117,-82,-82,-82
-97,-73,24,85,-61,-24,29,-92,-122,-82,-82,-82
-97,-73,24,85,-61,-24,29,-92,-122,-82,-82,-82
-97,-73,24,85,-61,-24,29,-92,-122,-82,-82,-82
-97,-73,24,85,-61,-24,29,-92,-122,-82,-82,-82
-97,-73,24,85,-61,-24,29,-92,-122,-82,-82,-78
-97,-78,19,87,-58,-29,29,-92,-122,-82,-82,-78
-97,-78,19,87,-58,-29,34,-92,-117,-82,-82,-73
-97,-78,19,87,-58,-29,34,-92,-112,-82,-82,-68
-87,-82,4,85,-46,-39,34,-82,-102,-78,-78,-68
-82,-82,0,82,-41,-41,34,-82,-102,-78,-78,-68
-82,-82,0,82,-41,-41,34,-78,-102,-78,-78,-73
-82,-82,0,82,-41,-41,29,-73,-102,-78,-78,-78
-82,-82,0,82,-41,-41,29,-73,-102,-78,-78,-78
-82,-78,4,80,-43,-36,29,-68,-97,-73,-78,-73
-78,-78,0,78,-39,-39,29,-68,-97,-73,-78,-68
-78,-78,0,78,-39,-39,34,-68,-97,-73,-78,-63
-78,-78,0,78,-39,-39,34,-68,-97,-73,-78,-63
-78,-78,0,78,-39,-39,34,-68,-97,-73,-78,-63
-73,-73,0,73,-36,-36,34,-68,-97,-73,-78,-68
-63,-68,-4,65,-29,-36,34,-68,-97,-78,-78,-68
-63,-68,-4,65,-29,-36,34,-73,-97,-78,-78,-68
-68,-68,0,68,-34,-34,34,-78,-102,-78,-78,-68
-68,-68,0,68,-34,-34,34,-78,-102,-78,-78,-68
-68,-68,0,68,-34,-34,34,-78,-102,-78,-78,-68
-68,-68,0,68,-34,-34,34,-78,-102,-78,-73,-68
-68,-68,0,68,-34,-34,34,-78,-102,-78,-73,-73
-68,-63,4,65,-36,-29,29,-78,-102,-78,-73,-73
-68,-63,4,65,-36,-29,29,-73,-107,-78,-73,-73
-68,-63,4,65,-36,-29,34,-78,-112,-82,-78,-73
-68,-68,0,68,-34,-34,34,-78,-112,-82,-78,-73
-73,-68,4,70,-39,-31,29,-78,-112,-82,-78,-73
-73,-68,4,70,-39,-31,29,-82,-112,-87,-78,-73
-73,-63,9,68,-41,-26,34,-82,-117,-87,-82,-73
-73,-58,14,65,-43,-21,34,-82,-117,-87,-82,-68
-73,-53,19,63,-46,-17,29,-87,-122,-87,-82,-68
-73,-53,19,63,-46,-17,29,-87,-122,-92,-82,-68
-73,-63,9,68,-41,-26,29,-87,-126,-92,-87,-73
-78,-73,4,75,-41,-34,29,-87,-126,-92,-92,-78
-78,-73,4,75,-41,-34,29,-87,-122,-92,-92,-78
-73,-78,-4,75,-34,-41,29,-87,-122,-92,-92,-78
-73,-78,-4,75,-34,-41,24,-92,-122,-92,-92,-78
-73,-68,4,70,-39,-31,24,-97,-126,-92,-92,-78
-63,-58,4,61,-34,-26,34,-87,-122,-87,-82,-78
-58,-48,9,53,-34,-19,48,-78,-117,-87,-78,-78
-53,-43,9,48,-31,-17,48,-78,-117,-87,-78,-78
-48,-39,9,43,-29,-14,48,-78,-117,-87,-78,-78
-48,-39,9,43,-29,-14,58,-73,-107,-78,-78,-73
-48,-39,9,43,-29,-14,68,-63,-97,-68,-73,-68
-48,-39,9,43,-29,-14,78,-58,-92,-63,-68,-63
-48,-43,4,46,-26,-19,92,-53,-82,-58,-63,-58
-48,-29,19,39,-34,-4,97,-43,-82,-58,-63,-58
-48,-19,29,34,-39,4,102,-34,-82,-58,-63,-63
-43,-19,24,31,-34,2,102,-34,-82,-63,-63,-63
-34,-4,29,19,-31,12,102,-34,-87,-58,-58,-58
-24,4,29,9,-26,17,87,-34,-82,-53,-48,-48
-9,29,39,-9,-24,34,63,-48,-82,-53,-43,-39
0,43,43,-21,-21,43,39,-63,-82,-48,-39,-39
9,53,43,-31,-17,48,0,-82,-92,-48,-43,-39
19,58,39,-39,-9,48,-29,-92,-102,-53,-43,-39
29,68,39,-48,-4,53,-34,-112,-117,-63,-48,-39
29,53,24,-41,2,39,-34,-112,-122,-68,-53,-43
29,39,9,-34,9,24,-29,-117,-131,-78,-63,-53
14,24,9,-19,2,17,-24,-117,-136,-82,-73,-58
0,14,14,-7,-7,14,-19,-117,-136,-92,-73,-63
-9,0,9,4,-9,4,-14,-126,-146,-102,-78,-73
-29,-19,9,24,-19,-4,-9,-131,-156,-112,-92,-82
-43,-34,9,39,-26,-12,-4,-131,-161,-117,-102,-92
-68,-58,9,63,-39,-24,4,-126,-165,-131,-112,-102
-82,-68,14,75,-48,-26,9,-126,-165,-131,-117,-102
-87,-68,19,78,-53,-24,4,-131,-175,-136,-122,-102
-87,-68,19,78,-53,-24,4,-136,-175,-131,-122,-102
-87,-73,14,80,-51,-29,4,-141,-175,-131,-126,-107
-92,-78,14,85,-53,-31,4,-141,-175,-131,-126,-107
-92,-78,14,85,-53,-31,4,-136,-175,-131,-126,-107
-87,-78,9,82,-48,-34,4,-136,-175,-131,-126,-107
-82,-78,4,80,-43,-36,9,-136,-175,-131,-126,-107
-87,-82,4,85,-46,-39,9,-136,-175,-131,-126,-107
-87,-82,4,85,-46,-39,14,-136,-175,-131,-126,-107
-97,-82,14,90,-56,-34,14,-136,-175,-131,-131,-107
-102,-82,19,92,-61,-31,14,-136,-175,-131,-131,-112
-102,-87,14,95,-58,-36,14,-136,-175,-131,-126,-112
-102,-87,14,95,-58,-36,14,-136,-180,-126,-122,-112
-102,-87,14,95,-58,-36,14,-136,-180,-126,-122,-117
-107,-87,19,97,-63,-34,19,-131,-175,-126,-122,-117
-107,-87,19,97,-63,-34,19,-131,-175,-126,-122,-117
-107,-87,19,97,-63,-34,19,-131,-175,-126,-122,-117
-107,-82,24,95,-65,-29,24,-122,-165,-122,-117,-112
-107,-82,24,95,-65,-29,34,-112,-161,-122,-117,-112
-92,-78,14,85,-53,-31,63,-63,-126,-97,-102,-102
-73,-43,29,58,-51,-7,126,24,-63,-48,-82,-87
-29,4,34,12,-31,19,165,175,97,73,19,-9
63,34,-29,-48,46,2,244,390,312,224,151,102
219,151,-68,-185,143,41,312,644,590,463,366,283
463,429,-34,-446,248,197,234,702,888,824,712,600
746,771,24,-758,361,397,-161,102,834,1078,1034,917
1093,1200,107,-1146,492,653,-663,-400,829,1390,1405,1293
1400,1444,43,-1422,678,744,-1093,-624,976,1678,1727,1610
1454,1434,-19,-1444,736,707,-1400,-746,1117,1873,1942,1810
1283,1190,-92,-1237,688,549,-1420,-692,1190,1820,1873,1737
985,902,-82,-944,534,409,-1307,-702,966,1454,1522,1415
712,590,-122,-651,417,234,-1190,-785,483,785,883,873
336,287,-48,-312,192,119,-897,-751,-131,0,122,204
122,234,112,-178,4,173,-639,-688,-390,-146,-43,19
180,219,39,-200,70,129,-414,-429,-248,-43,48,107
156,180,24,-168,65,102,-185,-151,-39,58,102,126
126,126,0,-126,63,63,-97,-14,63,92,107,117
102,58,-43,-80,73,7,-58,34,82,97,92,78
68,24,-43,-46,56,-9,-9,58,68,63,53,48
29,19,-9,-24,19,4,19,58,53,24,19,19
19,9,-9,-14,14,0,24,58,34,0,-4,0
14,-14,-29,0,21,-21,34,63,24,-4,-19,-14
4,-19,-24,7,14,-21,53,78,24,-19,-29,-34
-9,-29,-19,19,4,-24,73,92,19,-29,-39,-43
-9,-34,-24,21,7,-29,82,102,9,-34,-39,-43
-9,-34,-24,21,7,-29,82,107,9,-34,-39,-48
-14,-39,-24,26,4,-31,87,117,9,-34,-39,-53
-14,-34,-19,24,2,-26,92,126,19,-29,-43,-53
-9,-29,-19,19,4,-24,97,136,19,-24,-43,-53
-4,-29,-24,17,9,-26,97,131,24,-24,-43,-53
-4,-29,-24,17,9,-26,97,136,29,-24,-39,-48
-9,-29,-19,19,4,-24,97,146,39,-19,-39,-48
-9,-29,-19,19,4,-24,102,156,43,-19,-39,-48
-4,-24,-19,14,7,-21,102,161,43,-9,-39,-48
0,-24,-24,12,12,-24,107,165,53,-9,-34,-43
0,-14,-14,7,7,-14,112,175,68,-9,-29,-34
0,-14,-14,7,7,-14,117,185,78,-4,-24,-29
9,-14,-24,2,17,-19,117,195,87,-4,-24,-29
19,-9,-29,-4,24,-19,117,204,92,4,-19,-29
24,-9,-34,-7,29,-21,122,214,102,4,-14,-24
29,0,-29,-14,29,-14,122,229,112,9,-14,-19
34,4,-29,-19,31,-12,126,239,122,14,-9,-19
34,4,-29,-19,31,-12,131,253,131,19,-9,-14
39,0,-39,-19,39,-19,131,263,136,24,-4,-19
43,0,-43,-21,43,-21,136,278,136,24,0,-19
43,4,-39,-24,41,-17,136,297,146,29,0,-19
58,9,-48,-34,53,-19,146,307,156,34,0,-14
53,9,-43,-31,48,-17,156,326,170,39,9,-9
58,14,-43,-36,51,-14,156,341,175,39,9,-9
63,14,-48,-39,56,-17,161,366,185,43,4,-9
73,19,-53,-46,63,-17,165,380,195,43,0,-9
73,24,-48,-48,61,-12,165,390,200,39,4,-4
82,29,-53,-56,68,-12,170,409,204,39,4,-4
87,29,-58,-58,73,-14,180,419,214,39,4,-4
97,29,-68,-63,82,-19,190,424,219,34,0,-9
112,29,-82,-70,97,-26,190,444,224,34,0,-14
117,29,-87,-73,102,-29,190,453,224,29,-4,-19
122,24,-97,-73,109,-36,190,458,219,9,-9,-19
117,14,-102,-65,109,-43,190,458,214,0,-14,-24
126,14,-112,-70,119,-48,190,458,214,-4,-24,-29
131,19,-112,-75,122,-46,190,463,200,-19,-29,-29
136,24,-112,-80,124,-43,185,458,200,-29,-29,-29
136,29,-107,-82,122,-39,180,448,190,-34,-39,-34
146,29,-117,-87,131,-43,170,434,180,-43,-43,-39
151,29,-122,-90,136,-46,165,424,170,-53,-53,-39
151,24,-126,-87,139,-51,156,400,151,-68,-58,-39
146,24,-122,-85,134,-48,146,370,136,-73,-63,-43
141,29,-112,-85,126,-41,136,341,122,-78,-63,-39
131,29,-102,-80,117,-36,126,297,97,-82,-63,-34
117,29,-87,-73,102,-29,112,248,78,-78,-63,-34
92,29,-63,-61,78,-17,102,209,58,-68,-63,-34
68,24,-43,-46,56,-9,92,165,34,-68,-63,-34
43,14,-29,-29,36,-7,78,126,24,-68,-63,-34
34,9,-24,-21,29,-7,68,92,4,-68,-58,-34
14,4,-9,-9,12,-2,58,58,-9,-68,-58,-39
-4,0,4,2,-4,2,58,29,-29,-68,-58,-43
-19,-9,9,14,-14,0,53,4,-39,-63,-63,-48
-39,-19,19,29,-29,0,48,-19,-53,-68,-63,-48
-48,-24,24,36,-36,0,48,-29,-63,-78,-63,-53
-53,-24,29,39,-41,2,43,-48,-78,-78,-68,-58
-63,-29,34,46,-48,2,43,-63,-87,-82,-73,-58
-78,-39,39,58,-58,0,39,-73,-92,-78,-73,-63
-78,-39,39,58,-58,0,34,-82,-92,-78,-78,-63
-78,-43,34,61,-56,-4,34,-87,-102,-78,-78,-68
-78,-43,34,61,-56,-4,34,-87,-102,-82,-78,-68
-82,-43,39,63,-61,-2,29,-87,-112,-87,-78,-73
-82,-43,39,63,-61,-2,24,-97,-117,-92,-82,-82
-87,-43,43,65,-65,0,19,-102,-117,-92,-82,-82
-87,-53,34,70,-61,-9,19,-102,-122,-92,-82,-82
-87,-53,34,70,-61,-9,24,-102,-122,-87,-82,-78
-87,-53,34,70,-61,-9,29,-102,-122,-82,-82,-73
-87,-53,34,70,-61,-9,29,-97,-117,-82,-82,-73
-87,-48,39,68,-63,-4,29,-92,-112,-82,-82,-68
-87,-48,39,68,-63,-4,24,-92,-112,-82,-82,-73
-87,-48,39,68,-63,-4,24,-92,-112,-82,-82,-78
-87,-48,39,68,-63,-4,24,-92,-112,-82,-87,-78
-82,-53,29,68,-56,-12,24,-82,-102,-78,-87,-78
-82,-53,29,68,-56,-12,24,-87,-102,-78,-87,-78
-82,-53,29,68,-56,-12,24,-87,-102,-78,-87,-78
-87,-53,34,70,-61,-9,19,-82,-107,-82,-87,-78
-92,-53,39,73,-65,-7,19,-82,-112,-87,-87,-78
-92,-48,43,70,-68,-2,19,-78,-107,-82,-87,-73
-87,-48,39,68,-63,-4,19,-78,-107,-82,-87,-73
-87,-48,39,68,-63,-4,24,-78,-102,-82,-87,-73
-87,-48,39,68,-63,-4,24,-78,-97,-82,-87,-73
-87,-48,39,68,-63,-4,24,-78,-97,-82,-87,-73
-87,-48,39,68,-63,-4,24,-78,-97,-82,-87,-78
-87,-53,34,70,-61,-9,24,-78,-102,-87,-87,-78
-92,-58,34,75,-63,-12,24,-78,-107,-87,-87,-78
-97,-58,39,78,-68,-9,24,-78,-112,-87,-87,-78
-97,-58,39,78,-68,-9,24,-78,-112,-87,-87,-78
-97,-58,39,78,-68,-9,24,-82,-112,-87,-87,-82
-97,-58,39,78,-68,-9,24,-87,-112,-87,-87,-87
-97,-58,39,78,-68,-9,24,-87,-112,-87,-92,-92
-97,-58,39,78,-68,-9,19,-92,-112,-87,-92,-92
-97,-63,34,80,-65,-14,19,-92,-117,-87,-92,-92
-97,-63,34,80,-65,-14,24,-97,-122,-92,-97,-92
-97,-68,29,82,-63,-19,24,-97,-122,-92,-97,-87
-102,-68,34,85,-68,-17,19,-97,-122,-92,-97,-82
-102,-73,29,87,-65,-21,19,-102,-122,-97,-97,-82
-102,-78,24,90,-63,-26,24,-102,-126,-97,-102,-87
-102,-78,24,90,-63,-26,24,-102,-131,-97,-102,-87
-102,-73,29,87,-65,-21,19,-107,-141,-97,-102,-87
-107,-73,34,90,-70,-19,14,-107,-141,-107,-102,-92
-112,-73,39,92,-75,-17,9,-107,-146,-112,-102,-97
-117,-73,43,95,-80,-14,9,-107,-146,-112,-102,-97
-117,-73,43,95,-80,-14,9,-107,-141,-112,-102,-97
-112,-82,29,97,-70,-26,9,-107,-141,-112,-102,-97
-112,-82,29,97,-70,-26,14,-107,-141,-112,-102,-97
-107,-82,24,95,-65,-29,14,-112,-141,-112,-102,-92
-102,-87,14,95,-58,-36,19,-117,-146,-112,-102,-92
-107,-82,24,95,-65,-29,24,-112,-141,-107,-97,-87
-117,-78,39,97,-78,-19,29,-107,-136,-107,-97,-87
-107,-73,34,90,-70,-19,29,-102,-136,-107,-97,-87
-97,-68,29,82,-63,-19,29,-97,-136,-107,-97,-87
-97,-63,34,80,-65,-14,39,-92,-131,-102,-92,-87
-97,-58,39,78,-68,-9,48,-82,-122,-92,-82,-78
-102,-53,48,78,-75,-2,63,-78,-112,-82,-78,-73
-107,-53,53,80,-80,0,73,-63,-112,-78,-73,-68
-107,-63,43,85,-75,-9,82,-53,-107,-78,-73,-73
-102,-68,34,85,-68,-17,82,-53,-97,-78,-73,-73
-92,-53,39,73,-65,-7,87,-48,-97,-68,-73,-73
-82,-48,34,65,-58,-7,82,-43,-92,-63,-68,-68
-68,-29,39,48,-53,4,63,-58,-92,-63,-63,-58
-58,-14,43,36,-51,14,39,-73,-92,-58,-53,-53
-43,0,43,21,-43,21,0,-97,-102,-58,-53,-48
-29,9,39,9,-34,24,-34,-112,-112,-63,-53,-48
-19,19,39,0,-29,29,-48,-131,-126,-73,-58,-43
-19,4,24,7,-21,14,-53,-131,-131,-78,-63,-43
-24,-9,14,17,-19,2,-48,-136,-141,-87,-73,-53
-43,-24,19,34,-31,-2,-43,-136,-146,-92,-82,-58
-58,-34,24,46,-41,-4,-39,-136,-146,-102,-82,-63
-63,-43,19,53,-41,-12,-39,-146,-156,-107,-87,-73
-73,-58,14,65,-43,-21,-39,-151,-165,-112,-102,-82
-82,-73,9,78,-46,-31,-34,-151,-170,-117,-112,-92
-107,-102,4,104,-56,-48,-24,-146,-180,-131,-122,-107
-126,-117,9,122,-68,-53,-14,-146,-185,-131,-126,-117
-141,-117,24,129,-82,-46,-14,-151,-195,-141,-136,-122
-146,-117,29,131,-87,-43,-14,-156,-195,-146,-141,-122
-146,-122,24,134,-85,-48,-14,-161,-195,-151,-146,-126
-151,-126,24,139,-87,-51,-14,-161,-195,-151,-146,-126
-151,-126,24,139,-87,-51,-14,-156,-195,-151,-146,-126
-151,-126,24,139,-87,-51,-14,-156,-195,-151,-146,-126
-151,-126,24,139,-87,-51,-9,-156,-195,-151,-146,-131
-156,-131,24,143,-90,-53,-9,-156,-195,-151,-146,-136
-156,-131,24,143,-90,-53,-9,-156,-195,-151,-146,-136
-161,-131,29,146,-95,-51,-14,-156,-195,-151,-151,-136
-161,-126,34,143,-97,-46,-14,-161,-200,-151,-151,-141
-161,-126,34,143,-97,-46,-14,-165,-204,-156,-151,-141
-161,-126,34,143,-97,-46,-14,-165,-209,-156,-151,-141
-161,-126,34,143,-97,-46,-14,-165,-209,-156,-151,-146
-165,-126,39,146,-102,-43,-9,-161,-204,-156,-151,-141
-165,-126,39,146,-102,-43,-9,-161,-204,-156,-151,-136
-165,-126,39,146,-102,-43,-9,-161,-204,-156,-151,-136
-165,-122,43,143,-104,-39,-9,-161,-200,-151,-146,-131
-165,-126,39,146,-102,-43,-19,-180,-209,-161,-146,-136
-170,-131,39,151,-104,-46,-14,-170,-209,-170,-146,-146
-195,-102,92,148,-143,-4,29,-131,-214,-180,-175,-170
-200,-68,131,134,-165,31,68,-39,-136,-122,-141,-146
-175,-107,68,141,-122,-19,175,126,-9,-58,-102,-117
-68,-97,-29,82,-19,-63,326,483,268,107,29,-19
131,68,-63,-100,97,2,463,912,736,468,336,239
375,361,-14,-368,195,173,229,522,771,717,624,517
756,863,107,-810,324,485,-283,-141,663,1010,985,897
1180,1254,73,-1217,553,663,-810,-531,751,1342,1376,1288
1464,1459,-4,-1461,734,727,-1332,-761,951,1693,1776,1678
1464,1385,-78,-1424,771,653,-1517,-771,1195,1927,1991,1864
1224,1166,-58,-1195,641,553,-1493,-780,1273,1956,2010,1839
971,829,-141,-900,556,344,-1449,-868,932,1405,1488,1390
492,375,-117,-434,305,129,-1180,-888,112,268,390,444
156,224,68,-190,43,146,-912,-897,-385,-175,-48,34
170,209,39,-190,65,124,-644,-678,-385,-141,0,97
136,170,34,-153,51,102,-366,-380,-219,-39,53,117
107,126,19,-117,43,73,-214,-156,-43,39,78,107
78,63,-14,-70,46,24,-131,-39,39,73,78,68
29,14,-14,-21,21,0,-68,9,43,43,43,39
-19,0,19,9,-19,9,-29,19,24,4,9,9
-29,-9,19,19,-24,4,-24,19,-4,-19,-14,-9
-39,-34,4,36,-21,-14,-14,19,-14,-24,-29,-24
-53,-48,4,51,-29,-21,4,34,-14,-39,-39,-48
-68,-68,0,68,-34,-34,24,53,-14,-48,-53,-63
-68,-73,-4,70,-31,-39,43,63,-19,-53,-58,-63
-68,-73,-4,70,-31,-39,53,68,-19,-53,-58,-68
-73,-78,-4,75,-34,-41,58,82,-14,-53,-58,-73
-78,-78,0,78,-39,-39,68,97,0,-53,-63,-73
-78,-78,0,78,-39,-39,78,107,0,-53,-63,-73
-73,-78,-4,75,-34,-41,78,107,4,-53,-63,-73
-73,-78,-4,75,-34,-41,73,112,9,-53,-63,-68
-73,-78,-4,75,-34,-41,68,117,19,-48,-68,-68
-73,-78,-4,75,-34,-41,73,126,24,-48,-68,-68
-73,-73,0,73,-36,-36,73,131,24,-39,-68,-68
-68,-78,-9,73,-29,-43,78,136,29,-39,-63,-63
-68,-73,-4,70,-31,-39,82,146,34,-39,-58,-58
-68,-73,-4,70,-31,-39,87,156,39,-34,-53,-58
-63,-73,-9,68,-26,-41,87,165,48,-34,-53,-58
-58,-68,-9,63,-24,-39,87,170,53,-24,-48,-58
-53,-68,-14,61,-19,-41,92,175,63,-24,-43,-53
-48,-58,-9,53,-19,-34,92,190,73,-19,-43,-48
-43,-53,-9,48,-17,-31,97,200,82,-14,-39,-48
-43,-48,-4,46,-19,-26,107,219,92,-9,-39,-43
-39,-48,-9,43,-14,-29,112,234,102,-4,-34,-43
-34,-48,-14,41,-9,-31,117,248,107,-4,-29,-39
-34,-43,-9,39,-12,-26,117,268,117,0,-29,-39
-19,-39,-19,29,0,-29,122,278,126,4,-24,-34
-19,-39,-19,29,0,-29,126,297,141,9,-9,-29
-9,-34,-24,21,7,-29,126,312,151,9,-9,-29
-4,-34,-29,19,12,-31,131,336,165,14,-9,-29
4,-29,-34,12,19,-31,136,351,175,14,-9,-29
4,-24,-29,9,17,-26,136,361,180,14,-4,-24
14,-19,-34,2,24,-26,141,380,185,19,-9,-24
19,-19,-39,0,29,-29,151,395,195,19,-14,-24
34,-19,-53,-7,43,-36,161,405,200,14,-19,-29
53,-19,-73,-17,63,-46,161,424,204,14,-19,-29
58,-19,-78,-19,68,-48,161,434,204,14,-24,-29
68,-14,-82,-26,75,-48,165,444,204,4,-29,-29
68,-14,-82,-26,75,-48,170,448,204,0,-29,-34
78,-14,-92,-31,85,-53,170,448,204,-4,-34,-39
82,-14,-97,-34,90,-56,175,458,190,-19,-39,-39
87,-19,-107,-34,97,-63,175,463,190,-29,-39,-39
87,-19,-107,-34,97,-63,180,468,190,-34,-48,-43
97,-19,-117,-39,107,-68,180,463,190,-43,-53,-48
102,-19,-122,-41,112,-70,175,453,180,-53,-63,-48
102,-24,-126,-39,114,-75,165,429,161,-68,-68,-48
102,-19,-122,-41,112,-70,151,405,141,-78,-78,-53
102,-9,-112,-46,107,-61,136,380,122,-87,-82,-53
92,-9,-102,-41,97,-56,126,336,97,-92,-82,-53
78,-9,-87,-34,82,-48,112,287,78,-92,-82,-53
58,-9,-68,-24,63,-39,102,248,58,-87,-82,-53
43,-14,-58,-14,51,-36,92,204,29,-87,-82,-53
24,-19,-43,-2,34,-31,73,165,14,-87,-82,-53
14,-19,-34,2,24,-26,58,126,-4,-87,-78,-53
-4,-24,-19,14,7,-21,43,82,-19,-87,-78,-58
-24,-29,-4,26,-9,-17,34,48,-39,-87,-78,-63
-39,-34,4,36,-21,-14,24,19,-48,-82,-82,-68
-58,-39,19,48,-39,-9,19,-14,-63,-82,-82,-68
-73,-43,29,58,-51,-7,19,-29,-73,-87,-82,-73
-82,-43,39,63,-61,-2,14,-48,-87,-87,-87,-78
-92,-48,43,70,-68,-2,14,-68,-97,-92,-92,-78
-107,-58,48,82,-78,-4,9,-82,-102,-92,-92,-82
-107,-63,43,85,-75,-9,4,-92,-107,-97,-97,-82
-107,-73,34,90,-70,-19,4,-97,-122,-97,-97,-87
-107,-73,34,90,-70,-19,4,-102,-122,-102,-97,-87
-112,-73,39,92,-75,-17,4,-107,-126,-102,-97,-87
-107,-68,39,87,-73,-14,4,-117,-126,-102,-102,-92
-107,-63,43,85,-75,-9,0,-122,-126,-102,-102,-92
-107,-73,34,90,-70,-19,4,-122,-131,-102,-102,-92
-107,-73,34,90,-70,-19,9,-122,-131,-102,-102,-92
-107,-73,34,90,-70,-19,9,-117,-131,-102,-102,-92
-107,-73,34,90,-70,-19,9,-112,-131,-102,-102,-92
-107,-73,34,90,-70,-19,9,-112,-131,-102,-97,-87
-107,-78,29,92,-68,-24,9,-112,-131,-102,-92,-87
-107,-78,29,92,-68,-24,14,-112,-131,-97,-92,-82
-107,-78,29,92,-68,-24,14,-112,-131,-92,-92,-78
-102,-82,19,92,-61,-31,14,-102,-117,-87,-87,-78
-102,-82,19,92,-61,-31,14,-102,-112,-87,-87,-78
-102,-82,19,92,-61,-31,14,-97,-112,-87,-87,-78
-102,-82,19,92,-61,-31,9,-92,-112,-87,-87,-78
-102,-82,19,92,-61,-31,9,-92,-112,-87,-87,-78
-102,-78,24,90,-63,-26,9,-87,-107,-82,-87,-73
-97,-78,19,87,-58,-29,9,-87,-112,-82,-87,-73
-97,-78,19,87,-58,-29,14,-87,-117,-82,-87,-73
-97,-73,24,85,-61,-24,9,-87,-117,-82,-87,-73
-97,-68,29,82,-63,-19,4,-87,-117,-82,-87,-73
-97,-68,29,82,-63,-19,4,-87,-117,-87,-92,-82
-92,-68,24,80,-58,-21,4,-87,-117,-97,-97,-87
-92,-73,19,82,-56,-26,4,-87,-117,-97,-97,-87
-97,-78,19,87,-58,-29,4,-87,-122,-97,-97,-87
-92,-78,14,85,-53,-31,4,-87,-122,-92,-92,-82
-87,-78,9,82,-48,-34,4,-87,-122,-87,-87,-78
-87,-78,9,82,-48,-34,9,-87,-122,-87,-87,-78
-87,-78,9,82,-48,-34,14,-87,-122,-87,-92,-82
-87,-73,14,80,-51,-29,9,-92,-117,-87,-92,-82
-87,-73,14,80,-51,-29,9,-92,-117,-87,-92,-82
-87,-73,14,80,-51,-29,14,-97,-122,-92,-97,-82
-87,-78,9,82,-48,-34,14,-97,-122,-92,-97,-82
-92,-78,14,85,-53,-31,9,-97,-122,-92,-97,-82
-92,-78,14,85,-53,-31,9,-102,-122,-97,-97,-82
-92,-78,14,85,-53,-31,14,-102,-126,-97,-102,-87
-92,-78,14,85,-53,-31,14,-102,-126,-97,-102,-87
-92,-78,14,85,-53,-31,4,-107,-131,-97,-102,-87
-92,-82,9,87,-51,-36,0,-107,-131,-102,-102,-87
-92,-82,9,87,-51,-36,0,-107,-136,-102,-102,-87
-97,-82,14,90,-56,-34,0,-107,-136,-102,-102,-87
-97,-82,14,90,-56,-34,0,-107,-131,-102,-102,-87
-92,-87,4,90,-48,-41,0,-107,-131,-102,-102,-87
-92,-87,4,90,-48,-41,0,-107,-131,-107,-102,-87
-92,-78,14,85,-53,-31,4,-107,-136,-112,-102,-87
-82,-78,4,80,-43,-36,9,-102,-136,-107,-97,-87
-78,-78,0,78,-39,-39,19,-97,-136,-107,-97,-87
-78,-68,9,73,-43,-29,19,-97,-136,-107,-97,-87
-78,-58,19,68,-48,-19,19,-97,-136,-107,-97,-87
-78,-58,19,68,-48,-19,24,-92,-131,-97,-92,-82
-78,-53,24,65,-51,-14,29,-82,-126,-87,-87,-78
-78,-48,29,63,-53,-9,39,-78,-122,-82,-82,-73
-78,-43,34,61,-56,-4,53,-73,-112,-78,-82,-68
-73,-29,43,51,-58,7,63,-63,-112,-82,-82,-73
-68,-19,48,43,-58,14,73,-53,-112,-87,-82,-82
-63,-19,43,41,-53,12,73,-53,-107,-87,-82,-82
-53,-4,48,29,-51,21,73,-53,-107,-78,-78,-78
-48,-9,39,29,-43,14,63,-53,-102,-73,-68,-68
-39,0,39,19,-39,19,43,-68,-102,-73,-63,-58
-29,24,53,2,-41,39,24,-82,-102,-68,-53,-53
-19,43,63,-12,-41,53,-9,-102,-112,-68,-53,-48
-4,48,53,-21,-29,51,-39,-112,-117,-68,-48,-43
9,58,48,-34,-19,53,-43,-131,-126,-73,-48,-39
9,43,34,-26,-12,39,-43,-131,-131,-78,-53,-43
9,29,19,-19,-4,24,-39,-136,-141,-87,-63,-53
-9,9,19,0,-14,14,-39,-136,-146,-92,-78,-58
-29,-4,24,17,-26,9,-39,-136,-146,-102,-82,-63
-34,-14,19,24,-26,2,-39,-141,-156,-107,-87,-73
-48,-29,19,39,-34,-4,-39,-141,-165,-112,-102,-82
-58,-48,9,53,-34,-19,-29,-141,-170,-117,-112,-92
-78,-78,0,78,-39,-39,-14,-136,-175,-131,-122,-102
-97,-87,9,92,-53,-39,-4,-136,-175,-136,-126,-107
-107,-87,19,97,-63,-34,-4,-141,-185,-146,-131,-112
-107,-82,24,95,-65,-29,-9,-146,-185,-146,-131,-117
-107,-82,24,95,-65,-29,-14,-151,-185,-151,-136,-126
-112,-87,24,100,-68,-31,-14,-151,-185,-151,-136,-126
-112,-87,24,100,-68,-31,-14,-146,-185,-151,-136,-126
-112,-87,24,100,-68,-31,-14,-146,-185,-151,-136,-126
-112,-87,24,100,-68,-31,-9,-146,-185,-151,-136,-126
-122,-92,29,107,-75,-31,-9,-146,-185,-151,-136,-122
-126,-92,34,109,-80,-29,-4,-146,-185,-151,-136,-117
-131,-92,39,112,-85,-26,-4,-146,-185,-151,-141,-117
-131,-92,39,112,-85,-26,-4,-146,-185,-151,-141,-122
-126,-97,29,112,-78,-34,-4,-146,-185,-151,-141,-122
-122,-97,24,109,-73,-36,-4,-146,-190,-146,-141,-122
-122,-97,24,109,-73,-36,0,-146,-190,-146,-141,-126
-126,-97,29,112,-78,-34,9,-141,-185,-146,-141,-126
-126,-97,29,112,-78,-34,9,-141,-185,-151,-141,-126
-126,-97,29,112,-78,-34,9,-141,-185,-156,-141,-126
-122,-92,29,107,-75,-31,9,-141,-180,-151,-136,-122
-117,-92,24,104,-70,-34,14,-141,-180,-151,-136,-122
-122,-97,24,109,-73,-36,29,-112,-165,-141,-131,-122
-122,-73,48,97,-85,-12,78,-43,-122,-107,-122,-117
-102,-39,63,70,-82,12,126,78,4,-14,-48,-68
-34,-24,9,29,-21,-7,214,263,185,107,53,14
117,43,-73,-80,95,-14,356,663,527,346,248,175
356,273,-82,-314,219,95,351,868,888,707,575,473
624,634,9,-629,307,322,-24,229,805,961,897,785
956,1083,126,-1019,414,605,-507,-312,771,1273,1268,1156
1346,1420,73,-1383,636,746,-1015,-585,927,1615,1649,1542
1483,1503,19,-1493,732,761,-1400,-756,1078,1864,1922,1810
1337,1283,-53,-1310,695,614,-1449,-702,1268,1961,2000,1849
1063,1019,-43,-1041,553,488,-1366,-712,1161,1747,1795,1639
775,653,-122,-714,448,265,-1268,-814,619,956,1044,1010
385,297,-87,-341,236,104,-995,-800,-53,48,170,253
136,244,107,-190,14,175,-722,-766,-385,-146,-34,39
161,229,68,-195,46,148,-483,-536,-317,-92,19,97
141,185,43,-163,48,114,-229,-224,-82,24,82,117
117,126,9,-122,53,68,-117,-53,43,73,97,107
92,53,-39,-73,65,7,-73,9,78,82,82,68
58,14,-43,-36,51,-14,-19,48,78,53,43,39
19,9,-9,-14,14,0,9,48,48,14,9,9
9,0,-9,-4,9,-4,14,48,14,-9,-14,-9
-4,-24,-19,14,7,-21,24,48,4,-14,-29,-24
-24,-29,-4,26,-9,-17,43,58,4,-29,-39,-43
-39,-43,-4,41,-17,-24,63,73,4,-39,-53,-53
-39,-53,-14,46,-12,-34,73,82,0,-43,-58,-53
-39,-53,-14,46,-12,-34,68,87,0,-43,-58,-58
-43,-58,-14,51,-14,-36,68,97,0,-43,-58,-63
-48,-58,-9,53,-19,-34,78,102,9,-43,-63,-68
-48,-58,-9,53,-19,-34,87,107,9,-43,-63,-73
-43,-58,-14,51,-14,-36,87,107,14,-43,-68,-73
-43,-58,-14,51,-14,-36,87,117,19,-43,-68,-68
-43,-53,-9,48,-17,-31,82,126,29,-43,-68,-68
-39,-48,-9,43,-14,-29,82,136,34,-48,-68,-68
-34,-43,-9,39,-12,-26,82,141,34,-39,-63,-68
-29,-43,-14,36,-7,-29,87,146,43,-39,-53,-63
-29,-34,-4,31,-12,-19,92,156,53,-39,-48,-58
-29,-34,-4,31,-12,-19,97,165,58,-34,-43,-58
-24,-39,-14,31,-4,-26,102,175,68,-34,-43,-58
-19,-39,-19,29,0,-29,107,185,73,-24,-39,-58
-14,-39,-24,26,4,-31,112,200,82,-19,-34,-53
-9,-29,-19,19,4,-24,112,219,92,-9,-34,-48
-4,-24,-19,14,7,-21,112,229,102,-4,-29,-48
-4,-24,-19,14,7,-21,112,244,112,0,-29,-43
0,-29,-29,14,14,-29,112,248,122,4,-24,-43
4,-29,-34,12,19,-31,117,258,126,4,-19,-39
0,-29,-29,14,14,-29,117,278,136,9,-19,-39
9,-29,-39,9,24,-34,126,287,146,14,-19,-34
9,-29,-39,9,24,-34,136,307,161,14,-9,-24
19,-24,-43,2,31,-34,136,322,165,9,-9,-19
24,-24,-48,0,36,-36,141,346,175,14,-9,-19
34,-19,-53,-7,43,-36,146,361,185,14,-9,-19
34,-14,-48,-9,41,-31,146,370,190,14,-4,-14
43,-9,-53,-17,48,-31,151,390,195,19,-4,-14
43,-9,-53,-17,48,-31,161,405,204,19,-4,-14
48,-9,-58,-19,53,-34,170,414,209,14,-9,-19
63,-9,-73,-26,68,-41,170,434,214,19,-9,-19
68,-9,-78,-29,73,-43,170,444,214,19,-14,-19
82,-4,-87,-39,85,-46,175,448,209,4,-19,-24
87,-4,-92,-41,90,-48,180,448,204,0,-24,-34
97,-9,-107,-43,102,-58,180,448,204,-4,-34,-39
102,-9,-112,-46,107,-61,180,453,190,-19,-39,-39
102,-9,-112,-46,107,-61,175,458,195,-34,-39,-39
97,-9,-107,-43,102,-58,170,458,190,-43,-48,-43
107,-9,-117,-48,112,-63,161,444,180,-53,-53,-48
112,-9,-122,-51,117,-65,156,434,170,-63,-63,-48
112,-14,-126,-48,119,-70,146,409,151,-78,-68,-48
107,-14,-122,-46,114,-68,136,380,136,-82,-73,-53
102,-9,-112,-46,107,-61,131,351,122,-82,-73,-53
92,-9,-102,-41,97,-56,126,307,97,-82,-73,-53
78,-9,-87,-34,82,-48,112,258,78,-82,-73,-53
53,-9,-63,-21,58,-36,102,219,58,-78,-73,-53
34,-14,-48,-9,41,-31,92,175,29,-78,-73,-53
14,-24,-39,4,26,-31,78,136,14,-78,-73,-53
4,-24,-29,9,17,-26,68,102,-4,-78,-68,-53
-14,-24,-9,19,-2,-17,58,68,-19,-78,-68,-58
-34,-29,4,31,-19,-12,48,39,-39,-78,-68,-63
-48,-39,9,43,-29,-14,34,14,-48,-73,-73,-68
-68,-48,19,58,-43,-14,29,-19,-63,-73,-73,-68
-78,-53,24,65,-51,-14,29,-39,-73,-78,-73,-73
-82,-53,29,68,-56,-12,24,-58,-87,-78,-78,-78
-92,-58,34,75,-63,-12,24,-73,-97,-82,-82,-78
-107,-68,39,87,-73,-14,19,-82,-107,-82,-82,-82
-107,-68,39,87,-73,-14,14,-92,-112,-87,-87,-82
-112,-73,39,92,-75,-17,14,-97,-122,-87,-87,-87
-117,-73,43,95,-80,-14,14,-97,-122,-92,-87,-87
-122,-73,48,97,-85,-12,14,-97,-122,-92,-87,-82
-122,-73,48,97,-85,-12,14,-107,-117,-92,-92,-82
-117,-73,43,95,-80,-14,9,-112,-117,-92,-92,-82
-107,-82,24,95,-65,-29,9,-112,-122,-92,-92,-82
-117,-82,34,100,-75,-24,9,-112,-122,-97,-92,-87
-126,-82,43,104,-85,-19,9,-112,-122,-102,-92,-92
-126,-87,39,107,-82,-24,9,-112,-122,-102,-92,-92
-126,-87,39,107,-82,-24,9,-112,-122,-102,-92,-87
-122,-87,34,104,-78,-26,9,-112,-122,-102,-92,-87
-117,-87,29,102,-73,-29,14,-112,-122,-102,-92,-87
-117,-87,29,102,-73,-29,14,-112,-122,-102,-92,-87
-112,-92,19,102,-65,-36,14,-102,-112,-97,-87,-87
-112,-92,19,102,-65,-36,14,-102,-112,-97,-87,-87
-112,-92,19,102,-65,-36,14,-97,-112,-97,-87,-87
-112,-92,19,102,-65,-36,9,-92,-112,-97,-87,-87
-112,-92,19,102,-65,-36,9,-92,-112,-97,-87,-87
-112,-87,24,100,-68,-31,9,-87,-112,-92,-92,-87
-107,-87,19,97,-63,-34,9,-87,-117,-92,-97,-92
-112,-87,24,100,-68,-31,14,-97,-117,-92,-97,-92
-117,-87,29,102,-73,-29,14,-107,-117,-92,-97,-92
-117,-87,29,102,-73,-29,14,-97,-117,-92,-97,-92
-117,-87,29,102,-73,-29,14,-87,-117,-92,-97,-97
-112,-87,24,100,-68,-31,9,-87,-117,-97,-97,-97
-112,-87,24,100,-68,-31,4,-87,-117,-97,-97,-97
-117,-87,29,102,-73,-29,4,-87,-122,-97,-97,-92
-117,-87,29,102,-73,-29,4,-87,-122,-97,-97,-87
-117,-87,29,102,-73,-29,9,-87,-122,-102,-97,-87
-117,-87,29,102,-73,-29,14,-87,-122,-107,-97,-87
-117,-87,29,102,-73,-29,14,-87,-122,-107,-102,-97
-117,-87,29,102,-73,-29,9,-92,-122,-107,-102,-102
-117,-92,24,104,-70,-34,9,-97,-126,-107,-102,-102
-117,-92,24,104,-70,-34,14,-107,-131,-112,-107,-102
-117,-97,19,107,-68,-39,14,-107,-131,-112,-102,-102
-122,-97,24,109,-73,-36,9,-107,-131,-112,-97,-102
-122,-97,24,109,-73,-36,9,-107,-131,-117,-97,-97
-122,-97,24,109,-73,-36,14,-102,-136,-117,-102,-97
-122,-102,19,112,-70,-41,14,-102,-136,-117,-102,-97
-122,-102,19,112,-70,-41,9,-107,-141,-117,-102,-97
-122,-102,19,112,-70,-41,9,-107,-141,-122,-107,-97
-122,-102,19,112,-70,-41,9,-107,-146,-122,-112,-97
-131,-102,29,117,-80,-36,9,-112,-146,-122,-112,-102
-136,-102,34,119,-85,-34,9,-117,-141,-122,-112,-107
-131,-112,19,122,-75,-46,9,-117,-141,-122,-112,-107
-131,-112,19,122,-75,-46,14,-117,-141,-122,-112,-107
-131,-107,24,119,-78,-41,9,-117,-141,-122,-112,-102
-131,-107,24,119,-78,-41,9,-117,-146,-122,-112,-102
-126,-102,24,114,-75,-39,14,-112,-141,-117,-107,-97
-126,-97,29,112,-78,-34,19,-107,-136,-117,-107,-97
-122,-92,29,107,-75,-31,24,-97,-131,-112,-102,-97
-117,-87,29,102,-73,-29,29,-87,-126,-107,-97,-97
-112,-82,29,97,-70,-26,39,-82,-126,-102,-92,-97
-107,-78,29,92,-68,-24,48,-78,-117,-92,-87,-87
-107,-73,34,90,-70,-19,63,-73,-107,-87,-82,-82
-107,-73,34,90,-70,-19,73,-63,-102,-87,-82,-78
-112,-78,34,95,-73,-21,87,-53,-102,-87,-82,-82
-112,-78,34,95,-73,-21,92,-53,-97,-87,-82,-82
-102,-63,39,82,-70,-12,92,-53,-97,-78,-82,-78
-92,-58,34,75,-63,-12,82,-53,-92,-73,-78,-68
-78,-39,39,58,-58,0,58,-63,-92,-73,-73,-58
-68,-24,43,46,-56,9,29,-73,-92,-68,-63,-53
-58,-14,43,36,-51,14,-9,-92,-102,-68,-63,-48
-48,-9,39,29,-43,14,-43,-102,-112,-73,-63,-48
-39,0,39,19,-39,19,-53,-126,-131,-82,-68,-48
-39,-14,24,26,-31,4,-53,-131,-141,-87,-73,-53
-39,-29,9,34,-24,-9,-48,-136,-151,-97,-78,-63
-53,-43,9,48,-31,-17,-43,-136,-156,-102,-82,-68
-68,-53,14,61,-41,-19,-39,-136,-151,-112,-82,-73
-73,-63,9,68,-41,-26,-39,-146,-156,-117,-87,-82
-87,-78,9,82,-48,-34,-39,-151,-165,-122,-102,-92
-102,-92,9,97,-56,-41,-34,-151,-170,-126,-112,-102
-126,-117,9,122,-68,-53,-24,-146,-180,-141,-122,-112
-146,-126,19,136,-82,-53,-14,-146,-185,-141,-126,-117
-156,-126,29,141,-92,-48,-14,-151,-195,-146,-131,-122
-156,-126,29,141,-92,-48,-14,-156,-195,-146,-131,-122
-156,-131,24,143,-90,-53,-14,-165,-195,-151,-141,-131
-161,-136,24,148,-92,-56,-14,-170,-195,-151,-146,-136
-161,-136,24,148,-92,-56,-14,-165,-195,-151,-146,-136
-161,-136,24,148,-92,-56,-14,-165,-195,-151,-146,-136
-161,-136,24,148,-92,-56,-9,-165,-195,-151,-146,-136
-165,-141,24,153,-95,-58,-9,-165,-195,-151,-146,-136
-165,-141,24,153,-95,-58,-4,-165,-195,-151,-146,-136
-170,-141,29,156,-100,-56,-4,-165,-195,-151,-151,-136
-170,-156,14,163,-92,-70,-4,-165,-195,-151,-151,-141
-170,-175,-4,173,-82,-90,-4,-165,-195,-156,-151,-141
-170,-151,19,161,-95,-65,-9,-170,-200,-161,-151,-141
-170,-126,43,148,-107,-41,-14,-175,-200,-165,-151,-146
-175,-126,48,151,-112,-39,-9,-170,-200,-165,-151,-146
-175,-126,48,151,-112,-39,-9,-170,-204,-165,-151,-146
-175,-131,43,153,-109,-43,-9,-170,-209,-165,-156,-146
-175,-131,43,153,-109,-43,-9,-170,-209,-161,-156,-141
-175,-136,39,156,-107,-48,-9,-175,-209,-165,-156,-141
-180,-141,39,161,-109,-51,4,-151,-200,-170,-156,-146
-190,-117,73,153,-131,-21,58,-102,-185,-165,-170,-161
-180,-87,92,134,-136,2,107,0,-87,-92,-122,-126
-156,-107,48,131,-102,-29,204,185,53,-14,-63,-82
-48,-78,-29,63,-9,-53,346,561,346,165,87,29
170,107,-63,-139,117,21,419,878,766,527,400,297
434,419,-14,-427,224,202,122,375,751,775,692,585
810,912,102,-861,353,507,-385,-239,673,1068,1054,966
1229,1293,63,-1261,583,678,-907,-580,790,1400,1444,1356
1459,1449,-9,-1454,734,719,-1376,-785,976,1727,1815,1708
1405,1327,-78,-1366,741,624,-1507,-771,1205,1937,2000,1854
1156,1088,-68,-1122,612,509,-1468,-780,1215,1869,1927,1761
893,732,-161,-812,527,285,-1410,-868,805,1220,1312,1244
444,317,-126,-380,285,95,-1132,-868,43,175,297,366
136,204,68,-170,34,136,-854,-858,-395,-175,-58,24
151,190,39,-170,56,114,-585,-624,-370,-131,0,87
117,151,34,-134,41,92,-307,-312,-180,-19,63,107
87,97,9,-92,39,53,-175,-117,-19,48,82,102
58,24,-34,-41,46,-4,-112,-29,48,73,78,68
14,-19,-34,2,24,-26,-53,19,58,48,43,39
-29,-29,0,29,-14,-14,-19,29,43,14,9,9
-39,-39,0,39,-19,-19,-14,29,14,-9,-14,-9
-48,-63,-14,56,-17,-39,-4,29,4,-14,-29,-24
-68,-73,-4,70,-31,-39,19,48,0,-34,-39,-48
-87,-87,0,87,-43,-43,43,73,-4,-48,-53,-63
-87,-92,-4,90,-41,-48,53,73,-9,-58,-63,-63
-87,-92,-4,90,-41,-48,53,68,-9,-63,-68,-68
-92,-102,-9,97,-41,-56,58,78,-9,-63,-68,-73
-97,-107,-9,102,-43,-58,68,87,0,-63,-73,-73
-92,-107,-14,100,-39,-61,78,102,0,-58,-73,-73
-82,-107,-24,95,-29,-65,78,107,4,-53,-73,-73
-82,-102,-19,92,-31,-61,78,117,9,-53,-68,-68
-82,-97,-14,90,-34,-56,78,126,19,-48,-68,-68
-78,-97,-19,87,-29,-58,82,136,24,-48,-68,-68
-73,-92,-19,82,-26,-56,82,141,24,-39,-68,-68
-68,-92,-24,80,-21,-58,87,146,34,-39,-63,-68
-68,-82,-14,75,-26,-48,92,156,43,-39,-58,-68
-68,-82,-14,75,-26,-48,97,165,48,-34,-53,-68
-63,-82,-19,73,-21,-51,97,175,58,-34,-53,-68
-63,-82,-19,73,-21,-51,97,185,63,-24,-48,-63
-63,-87,-24,75,-19,-56,102,195,73,-24,-43,-53
-58,-78,-19,68,-19,-48,102,209,82,-19,-43,-48
-53,-73,-19,63,-17,-46,107,219,92,-14,-39,-48
-53,-73,-19,63,-17,-46,112,234,102,-9,-39,-43
-48,-78,-29,63,-9,-53,112,244,112,-4,-34,-43
-43,-78,-34,61,-4,-56,117,258,117,-4,-29,-39
-43,-73,-29,58,-7,-51,117,278,126,0,-29,-39
-29,-68,-39,48,4,-53,126,287,136,4,-29,-34
-29,-68,-39,48,4,-53,136,307,151,9,-19,-29
-19,-63,-43,41,12,-53,136,317,156,9,-19,-29
-14,-63,-48,39,17,-56,141,336,165,14,-19,-29
-4,-53,-48,29,21,-51,146,351,175,14,-19,-29
-4,-43,-39,24,17,-41,146,361,180,14,-14,-24
4,-39,-43,17,24,-41,151,380,185,19,-14,-24
9,-39,-48,14,29,-43,161,395,195,19,-14,-24
19,-39,-58,9,39,-48,170,405,200,14,-14,-29
34,-39,-73,2,53,-56,170,424,204,14,-9,-29
39,-39,-78,0,58,-58,170,439,209,14,-14,-29
48,-34,-82,-7,65,-58,175,453,214,4,-19,-29
48,-34,-82,-7,65,-58,180,458,214,0,-24,-34
58,-34,-92,-12,75,-63,180,458,214,-4,-34,-39
63,-29,-92,-17,78,-61,180,463,200,-19,-39,-39
68,-29,-97,-19,82,-63,175,463,200,-29,-39,-39
68,-29,-97,-19,82,-63,170,458,190,-34,-48,-43
78,-29,-107,-24,92,-68,161,444,180,-43,-53,-48
87,-24,-112,-31,100,-68,161,439,170,-53,-63,-48
92,-24,-117,-34,104,-70,156,419,151,-68,-68,-48
87,-24,-112,-31,100,-68,146,395,136,-73,-73,-53
82,-19,-102,-31,92,-61,136,370,122,-78,-73,-53
73,-24,-97,-24,85,-61,122,326,97,-87,-73,-53
58,-29,-87,-14,73,-58,102,278,78,-92,-73,-53
34,-29,-63,-2,48,-46,92,239,58,-87,-73,-53
14,-34,-48,9,31,-41,82,195,29,-87,-73,-53
-4,-43,-39,24,17,-41,68,151,14,-87,-78,-53
-14,-48,-34,31,9,-41,58,107,-4,-87,-78,-53
-34,-53,-19,43,-7,-36,48,68,-19,-87,-78,-58
-53,-58,-4,56,-24,-31,43,39,-39,-87,-78,-63
-68,-68,0,68,-34,-34,34,9,-48,-82,-82,-68
-87,-78,9,82,-48,-34,29,-24,-63,-82,-82,-68
-97,-82,14,90,-56,-34,29,-39,-78,-87,-82,-73
-102,-82,19,92,-61,-31,24,-58,-97,-87,-87,-78
-112,-87,24,100,-68,-31,24,-73,-107,-92,-92,-78
-126,-97,29,112,-78,-34,19,-82,-112,-92,-92,-82
-126,-97,29,112,-78,-34,14,-92,-112,-97,-97,-82
-126,-102,24,114,-75,-39,14,-97,-122,-97,-97,-87
-131,-102,29,117,-80,-36,14,-97,-122,-102,-97,-87
-141,-102,39,122,-90,-31,14,-97,-126,-102,-97,-87
-141,-102,39,122,-90,-31,14,-107,-126,-102,-102,-92
-146,-102,43,124,-95,-29,9,-112,-126,-102,-102,-92
-146,-112,34,129,-90,-39,9,-112,-131,-102,-102,-92
-146,-112,34,129,-90,-39,9,-112,-131,-102,-102,-92
-141,-112,29,126,-85,-41,9,-112,-131,-102,-102,-92
-136,-112,24,124,-80,-43,9,-112,-131,-102,-102,-92
-136,-107,29,122,-82,-39,9,-112,-131,-102,-102,-87
-136,-107,29,122,-82,-39,9,-112,-131,-102,-102,-87
-136,-107,29,122,-82,-39,14,-112,-131,-102,-102,-87
-136,-107,29,122,-82,-39,14,-112,-131,-102,-102,-87
-131,-112,19,122,-75,-46,14,-102,-122,-97,-97,-87
-131,-112,19,122,-75,-46,14,-102,-122,-97,-97,-87
-131,-112,19,122,-75,-46,14,-97,-122,-97,-97,-87
-131,-112,19,122,-75,-46,9,-92,-122,-97,-97,-87
-136,-112,24,124,-80,-43,9,-92,-122,-97,-92,-87
-141,-107,34,124,-87,-36,9,-87,-117,-92,-87,-82
-136,-112,24,124,-80,-43,9,-87,-117,-92,-87,-82
-136,-117,19,126,-78,-48,14,-87,-117,-92,-87,-82
-136,-117,19,126,-78,-48,14,-87,-117,-92,-92,-82
-136,-117,19,126,-78,-48,14,-87,-117,-92,-97,-82
-136,-117,19,126,-78,-48,14,-87,-117,-92,-97,-87
-131,-117,14,124,-73,-51,14,-87,-117,-97,-97,-87
-131,-117,14,124,-73,-51,14,-87,-117,-97,-97,-87
-136,-117,19,126,-78,-48,14,-87,-122,-97,-97,-87
-136,-117,19,126,-78,-48,14,-87,-122,-97,-97,-87
-136,-117,19,126,-78,-48,14,-87,-122,-97,-97,-87
-136,-117,19,126,-78,-48,19,-87,-122,-97,-92,-87
-136,-117,19,126,-78,-48,24,-87,-122,-97,-92,-92
-136,-117,19,126,-78,-48,19,-92,-122,-97,-92,-92
-136,-122,14,129,-75,-53,19,-92,-126,-97,-92,-92
-136,-122,14,129,-75,-53,24,-97,-131,-102,-97,-92
-136,-126,9,131,-73,-58,24,-97,-131,-102,-97,-92
-141,-126,14,134,-78,-56,19,-97,-131,-102,-97,-92
-141,-126,14,134,-78,-56,19,-102,-131,-107,-97,-92
-141,-126,14,134,-78,-56,19,-102,-136,-107,-107,-97
-141,-126,14,134,-78,-56,14,-102,-136,-107,-112,-97
-141,-122,19,131,-80,-51,9,-107,-141,-107,-112,-102
-141,-122,19,131,-80,-51,9,-107,-141,-112,-112,-107
-141,-131,9,136,-75,-61,9,-107,-146,-112,-112,-107
-146,-141,4,143,-75,-68,9,-107,-141,-112,-112,-107
-141,-136,4,139,-73,-65,9,-112,-141,-112,-112,-107
-141,-131,9,136,-75,-61,14,-117,-141,-112,-112,-112
-136,-122,14,129,-75,-53,19,-112,-136,-107,-107,-107
-136,-117,19,126,-78,-48,29,-107,-136,-107,-107,-107
-131,-107,24,119,-78,-41,29,-107,-136,-107,-107,-102
-126,-97,29,112,-78,-34,29,-107,-136,-107,-107,-97
-126,-92,34,109,-80,-29,34,-97,-136,-102,-107,-97
-126,-87,39,107,-82,-24,43,-87,-126,-92,-102,-92
-126,-82,43,104,-85,-19,53,-82,-117,-87,-97,-87
-126,-82,43,104,-85,-19,63,-73,-112,-87,-92,-87
-131,-87,43,109,-87,-21,78,-63,-112,-87,-92,-92
-131,-87,43,109,-87,-21,82,-63,-107,-87,-92,-92
-122,-73,48,97,-85,-12,87,-58,-107,-78,-87,-87
-112,-68,43,90,-78,-12,82,-53,-102,-73,-78,-78
-97,-48,48,73,-73,0,68,-63,-97,-73,-73,-68
-87,-34,53,61,-70,9,48,-73,-92,-68,-63,-63
-78,-19,58,48,-68,19,9,-92,-102,-63,-63,-58
-68,-9,58,39,-63,24,-24,-102,-112,-63,-63,-58
-53,0,53,26,-53,26,-43,-126,-126,-73,-68,-58
-48,-14,34,31,-41,9,-53,-131,-131,-78,-73,-63
-48,-29,19,39,-34,-4,-48,-136,-146,-87,-82,-68
-63,-43,19,53,-41,-12,-43,-136,-156,-92,-92,-68
-78,-53,24,65,-51,-14,-39,-141,-156,-102,-87,-73
-82,-63,19,73,-51,-21,-39,-156,-165,-107,-87,-82
-92,-78,14,85,-53,-31,-39,-161,-170,-112,-102,-92
-102,-92,9,97,-56,-41,-34,-161,-170,-117,-112,-102
-126,-117,9,122,-68,-53,-24,-151,-175,-131,-122,-112
-146,-126,19,136,-82,-53,-14,-146,-175,-131,-126,-117
-161,-131,29,146,-95,-51,-14,-151,-190,-141,-131,-122
-165,-136,29,151,-97,-53,-14,-156,-195,-146,-131,-122
-165,-141,24,153,-95,-58,-14,-161,-195,-151,-141,-131
-170,-146,24,158,-97,-61,-14,-161,-195,-151,-146,-136
-170,-151,19,161,-95,-65,-14,-156,-195,-151,-146,-136
-170,-156,14,163,-92,-70,-14,-156,-195,-151,-146,-136
-170,-156,14,163,-92,-70,-9,-156,-195,-151,-146,-131
-175,-161,14,168,-95,-73,-9,-156,-195,-151,-146,-126
-175,-156,19,165,-97,-68,0,-161,-195,-151,-141,-126
-180,-151,29,165,-104,-61,4,-165,-195,-151,-141,-126
-180,-151,29,165,-104,-61,4,-165,-195,-151,-141,-131
-180,-156,24,168,-102,-65,4,-165,-195,-156,-141,-131
-180,-156,24,168,-102,-65,0,-165,-200,-156,-141,-131
-180,-156,24,168,-102,-65,-4,-165,-200,-156,-141,-136
-185,-161,24,173,-104,-68,0,-161,-195,-156,-141,-136
-185,-165,19,175,-102,-73,0,-161,-195,-156,-141,-136
-185,-165,19,175,-102,-73,0,-161,-195,-156,-141,-136
-185,-161,24,173,-104,-68,0,-161,-190,-151,-136,-131
-185,-165,19,175,-102,-73,0,-175,-200,-156,-146,-136
-190,-170,19,180,-104,-75,14,-161,-200,-161,-156,-146
-204,-146,58,175,-131,-43,58,-117,-195,-165,-170,-161
-200,-117,82,158,-141,-17,97,-19,-107,-102,-122,-126
-170,-136,34,153,-102,-51,204,165,34,-24,-73,-92
-58,-107,-48,82,-4,-78,356,541,326,156,68,9
151,68,-82,-109,117,-7,448,897,756,502,370,268
405,370,-34,-387,219,168,170,434,751,736,653,546
785,873,87,-829,348,480,-341,-204,668,1044,1024,936
1210,1263,53,-1237,578,658,-868,-570,780,1390,1424,1337
1449,1434,-14,-1442,732,710,-1356,-780,976,1732,1815,1708
1405,1327,-78,-1366,741,624,-1507,-771,1215,1956,2020,1873
1176,1107,-68,-1141,622,519,-1473,-780,1268,1947,2000,1825
932,771,-161,-851,546,305,-1420,-868,902,1356,1439,1351
463,336,-126,-400,295,104,-1141,-873,102,248,366,424
136,204,68,-170,34,136,-863,-868,-375,-165,-48,34
156,190,34,-173,61,112,-595,-644,-361,-126,9,97
126,151,24,-139,51,87,-317,-341,-180,-19,73,117
97,92,-4,-95,51,43,-175,-126,-14,53,92,112
68,14,-53,-41,61,-19,-102,-19,58,82,87,78
24,-29,-53,2,39,-41,-43,24,68,53,53,48
-19,-39,-19,29,0,-29,-9,29,53,14,19,19
-29,-48,-19,39,-4,-34,-4,29,14,-9,-9,-9
-39,-73,-34,56,-2,-53,4,29,-4,-14,-29,-34
-58,-73,-14,65,-21,-43,24,39,-4,-34,-39,-53
-78,-78,0,78,-39,-39,43,53,-4,-48,-53,-63
-78,-82,-4,80,-36,-43,58,63,-14,-53,-58,-63
-78,-82,-4,80,-36,-43,63,68,-19,-53,-58,-68
-82,-92,-9,87,-36,-51,68,78,-19,-53,-58,-73
-87,-97,-9,92,-39,-53,78,87,-9,-53,-63,-73
-87,-97,-9,92,-39,-53,82,102,-4,-53,-68,-78
-82,-97,-14,90,-34,-56,78,107,4,-53,-73,-82
-82,-92,-9,87,-36,-51,78,117,9,-53,-68,-78
-82,-87,-4,85,-39,-46,78,126,19,-48,-68,-78
-78,-87,-9,82,-34,-48,87,136,24,-48,-68,-73
-73,-82,-9,78,-31,-46,92,141,24,-39,-68,-68
-68,-92,-24,80,-21,-58,97,146,34,-39,-63,-63
-68,-92,-24,80,-21,-58,102,156,43,-39,-58,-58
-68,-92,-24,80,-21,-58,107,165,48,-29,-53,-58
-63,-92,-29,78,-17,-61,107,175,58,-24,-53,-58
-58,-87,-29,73,-14,-58,107,185,63,-14,-48,-63
-53,-87,-34,70,-9,-61,112,195,73,-14,-43,-63
-48,-78,-29,63,-9,-53,112,204,82,-14,-43,-58
-43,-73,-29,58,-7,-51,117,209,92,-14,-39,-58
-43,-68,-24,56,-9,-46,122,224,102,-9,-34,-48
-39,-68,-29,53,-4,-48,122,234,112,-4,-24,-43
-34,-68,-34,51,0,-51,126,248,122,0,-19,-39
-34,-63,-29,48,-2,-46,126,268,136,9,-19,-39
-19,-58,-39,39,9,-48,136,278,146,14,-19,-34
-19,-58,-39,39,9,-48,146,297,161,19,-9,-29
-9,-53,-43,31,17,-48,146,312,165,19,-9,-29
-4,-53,-48,29,21,-51,151,336,175,24,-9,-29
4,-48,-53,21,29,-51,156,351,185,24,-9,-29
4,-43,-48,19,26,-46,156,361,190,24,-4,-24
14,-34,-48,9,31,-41,161,385,195,29,-4,-24
19,-29,-48,4,34,-39,170,405,204,29,-4,-24
29,-29,-58,0,43,-43,180,414,209,24,-9,-29
43,-29,-73,-7,58,-51,180,434,214,24,-9,-29
48,-29,-78,-9,63,-53,180,444,219,24,-14,-29
58,-24,-82,-17,70,-53,185,453,224,14,-19,-29
63,-24,-87,-19,75,-56,190,458,224,9,-24,-34
78,-24,-102,-26,90,-63,190,458,224,4,-34,-39
82,-19,-102,-31,92,-61,190,463,209,-9,-39,-39
87,-19,-107,-34,97,-63,185,463,209,-19,-39,-39
87,-19,-107,-34,97,-63,180,463,200,-24,-48,-39
97,-19,-117,-39,107,-68,170,453,190,-34,-53,-39
102,-14,-117,-43,109,-65,165,444,180,-43,-63,-39
102,-14,-117,-43,109,-65,156,419,161,-58,-68,-39
97,-14,-112,-41,104,-63,146,390,146,-68,-73,-43
92,-9,-102,-41,97,-56,136,361,131,-78,-73,-43
82,-9,-92,-36,87,-51,126,317,107,-82,-73,-43
68,-9,-78,-29,73,-43,112,268,87,-82,-73,-43
48,-9,-58,-19,53,-34,102,229,68,-78,-73,-48
34,-14,-48,-9,41,-31,92,185,39,-78,-73,-53
14,-29,-43,7,29,-36,78,146,19,-78,-73,-53
4,-39,-43,17,24,-41,68,107,-4,-78,-68,-53
-19,-43,-24,31,2,-34,58,68,-19,-82,-68,-58
-43,-48,-4,46,-19,-26,53,39,-39,-87,-68,-63
-58,-58,0,58,-29,-29,43,14,-48,-82,-73,-68
-78,-68,9,73,-43,-29,39,-14,-63,-82,-73,-68
-87,-73,14,80,-51,-29,39,-34,-73,-87,-73,-73
-92,-73,19,82,-56,-26,34,-58,-87,-87,-78,-78
-102,-78,24,90,-63,-26,34,-73,-102,-92,-82,-78
-117,-87,29,102,-73,-29,29,-82,-112,-92,-82,-82
-122,-87,34,104,-78,-26,24,-92,-112,-97,-87,-82
-126,-92,34,109,-80,-29,24,-97,-122,-97,-87,-87
-126,-92,34,109,-80,-29,19,-97,-122,-102,-87,-87
-131,-92,39,112,-85,-26,14,-97,-126,-102,-87,-87
-131,-92,39,112,-85,-26,14,-112,-131,-102,-97,-92
-136,-92,43,114,-90,-24,9,-122,-136,-102,-102,-92
-136,-102,34,119,-85,-34,9,-122,-141,-102,-102,-92
-136,-102,34,119,-85,-34,9,-122,-141,-102,-102,-92
-136,-97,39,117,-87,-29,9,-122,-141,-102,-102,-97
-136,-92,43,114,-90,-24,9,-122,-141,-102,-102,-102
-136,-87,48,112,-92,-19,9,-122,-141,-107,-102,-97
-136,-87,48,112,-92,-19,9,-122,-141,-112,-102,-97
-136,-92,43,114,-90,-24,14,-122,-141,-112,-102,-97
-136,-97,39,117,-87,-29,14,-122,-141,-112,-102,-97
-131,-102,29,117,-80,-36,14,-112,-131,-102,-97,-97
-131,-102,29,117,-80,-36,14,-112,-131,-97,-97,-97
-131,-102,29,117,-80,-36,14,-107,-131,-97,-97,-97
-131,-102,29,117,-80,-36,9,-102,-131,-97,-97,-97
-131,-102,29,117,-80,-36,9,-102,-131,-97,-97,-97
-131,-97,34,114,-82,-31,9,-97,-126,-92,-97,-92
-131,-97,34,114,-82,-31,9,-97,-126,-92,-97,-92
-136,-97,39,117,-87,-29,14,-97,-126,-92,-97,-92
-136,-97,39,117,-87,-29,14,-97,-126,-92,-97,-92
-136,-97,39,117,-87,-29,14,-97,-126,-92,-97,-92
-136,-97,39,117,-87,-29,14,-97,-126,-92,-97,-97
-131,-97,34,114,-82,-31,14,-97,-126,-97,-97,-97
-131,-97,34,114,-82,-31,14,-97,-126,-97,-97,-97
-136,-97,39,117,-87,-29,14,-97,-131,-97,-97,-97
-136,-97,39,117,-87,-29,14,-97,-131,-97,-97,-97
-136,-97,39,117,-87,-29,14,-97,-131,-97,-97,-97
-136,-97,39,117,-87,-29,14,-97,-131,-97,-97,-97
-136,-97,39,117,-87,-29,14,-97,-131,-97,-102,-102
-131,-97,34,114,-82,-31,9,-102,-126,-97,-102,-102
-126,-102,24,114,-75,-39,9,-102,-126,-97,-102,-102
-126,-102,24,114,-75,-39,14,-107,-131,-102,-107,-102
-126,-107,19,117,-73,-43,14,-107,-131,-102,-107,-102
-136,-112,24,124,-80,-43,9,-107,-136,-102,-107,-102
-141,-117,24,129,-82,-46,9,-112,-141,-107,-107,-102
-141,-117,24,129,-82,-46,14,-112,-146,-112,-112,-107
-141,-112,29,126,-85,-41,14,-112,-146,-117,-112,-107
-136,-107,29,122,-82,-39,19,-107,-141,-112,-107,-102
-136,-107,29,122,-82,-39,29,-107,-136,-107,-107,-97
-136,-107,29,122,-82,-39,29,-107,-136,-107,-107,-97
-136,-107,29,122,-82,-39,29,-107,-136,-107,-107,-97
-131,-97,34,114,-82,-31,34,-97,-126,-97,-97,-92
-122,-82,39,102,-80,-21,39,-87,-117,-87,-87,-87
-117,-73,43,95,-80,-14,48,-78,-112,-82,-82,-82
-107,-63,43,85,-75,-9,63,-73,-102,-78,-82,-78
-107,-63,43,85,-75,-9,73,-63,-102,-78,-82,-78
-107,-68,39,87,-73,-14,82,-53,-102,-78,-82,-82
-107,-68,39,87,-73,-14,87,-53,-97,-78,-82,-82
-102,-53,48,78,-75,-2,92,-53,-97,-68,-78,-78
-97,-48,48,73,-73,0,87,-53,-92,-63,-68,-68
-87,-29,58,58,-73,14,73,-68,-92,-63,-63,-58
-78,-14,63,46,-70,24,48,-82,-92,-58,-53,-48
-68,-4,63,36,-65,29,9,-102,-102,-58,-53,-39
-53,0,53,26,-53,26,-34,-112,-112,-63,-53,-39
-39,9,48,14,-43,29,-53,-131,-126,-73,-58,-39
-39,-4,34,21,-36,14,-53,-131,-131,-73,-63,-43
-39,-19,19,29,-29,0,-48,-136,-141,-78,-73,-53
-53,-34,19,43,-36,-7,-43,-136,-146,-82,-82,-58
-68,-43,24,56,-46,-9,-39,-136,-146,-92,-82,-63
-73,-58,14,65,-43,-21,-43,-151,-156,-102,-87,-73
-87,-78,9,82,-48,-34,-48,-161,-165,-112,-102,-82
-102,-92,9,97,-56,-41,-43,-161,-175,-117,-112,-97
-126,-117,9,122,-68,-53,-34,-156,-185,-131,-122,-112
-151,-126,24,139,-87,-51,-24,-156,-185,-131,-126,-117
-165,-126,39,146,-102,-43,-24,-161,-195,-136,-131,-122
-165,-126,39,146,-102,-43,-24,-161,-195,-141,-131,-122
-165,-131,34,148,-100,-48,-24,-161,-195,-151,-136,-126
-170,-136,34,153,-102,-51,-19,-161,-195,-151,-136,-126
-170,-136,34,153,-102,-51,-14,-156,-195,-151,-136,-126
-170,-141,29,156,-100,-56,-14,-156,-195,-151,-136,-126
-170,-146,24,158,-97,-61,-9,-156,-195,-151,-136,-126
-175,-151,24,163,-100,-63,-14,-161,-200,-151,-141,-126
-175,-151,24,163,-100,-63,-14,-165,-204,-151,-146,-126
-175,-151,24,163,-100,-63,-14,-165,-204,-151,-151,-126
-170,-151,19,161,-95,-65,-14,-165,-204,-151,-151,-131
-170,-151,19,161,-95,-65,-14,-165,-200,-156,-151,-131
-170,-146,24,158,-97,-61,-14,-165,-200,-156,-151,-131
-170,-146,24,158,-97,-61,-14,-165,-200,-151,-146,-136
-175,-146,29,161,-102,-58,-9,-161,-195,-146,-141,-136
-180,-146,34,163,-107,-56,-9,-161,-195,-146,-141,-136
-185,-146,39,165,-112,-53,-9,-161,-195,-146,-141,-136
-185,-141,43,163,-114,-48,-9,-165,-190,-146,-141,-131
-185,-141,43,163,-114,-48,-4,-170,-190,-151,-146,-131
-190,-141,48,165,-119,-46,9,-146,-190,-151,-146,-141
-190,-112,78,151,-134,-17,58,-82,-161,-126,-141,-146
-170,-78,92,124,-131,7,107,39,-39,-43,-78,-97
-102,-63,39,82,-70,-12,195,224,136,68,14,-14
58,-4,-63,-26,61,-34,336,629,483,302,204,131
307,214,-92,-261,200,61,331,839,849,658,527,414
600,566,-34,-583,317,265,-53,200,766,893,834,722
956,1005,48,-980,453,527,-546,-341,732,1185,1190,1088
1371,1346,-24,-1359,697,661,-1058,-610,888,1517,1571,1478
1532,1434,-97,-1483,814,668,-1449,-775,1039,1756,1844,1751
1395,1229,-165,-1312,780,531,-1507,-722,1234,1883,1956,1825
1132,980,-151,-1056,641,414,-1434,-732,1132,1698,1786,1649
810,614,-195,-712,502,209,-1332,-834,605,927,1039,1019
385,258,-126,-322,256,65,-1054,-819,-53,39,170,263
126,200,73,-163,26,136,-775,-785,-395,-161,-43,39
141,180,39,-161,51,109,-531,-556,-336,-112,0,87
117,141,24,-129,46,82,-268,-244,-102,9,63,102
87,87,0,-87,43,43,-146,-73,24,63,78,87
58,14,-43,-36,51,-14,-102,-9,58,73,73,48
19,-24,-43,2,31,-34,-48,29,58,43,43,19
-19,-34,-14,26,-2,-24,-19,29,34,4,9,-4
-29,-48,-19,39,-4,-34,-14,29,4,-19,-14,-19
-39,-73,-34,56,-2,-53,-4,29,-4,-24,-29,-34
-53,-78,-24,65,-14,-51,14,39,-4,-39,-39,-53
-68,-87,-19,78,-24,-53,39,53,-4,-48,-53,-63
-68,-92,-24,80,-21,-58,53,63,-9,-53,-58,-63
-68,-92,-24,80,-21,-58,53,68,-9,-53,-63,-68
-73,-97,-24,85,-24,-61,58,78,-9,-53,-68,-73
-78,-97,-19,87,-29,-58,68,87,-4,-53,-73,-73
-78,-97,-19,87,-29,-58,78,97,-9,-53,-73,-73
-73,-97,-24,85,-24,-61,78,97,-4,-53,-73,-73
-73,-97,-24,85,-24,-61,78,107,0,-53,-68,-68
-73,-92,-19,82,-26,-56,78,117,9,-48,-63,-68
-68,-87,-19,78,-24,-53,82,126,14,-48,-58,-68
-58,-82,-24,70,-17,-53,78,136,19,-34,-58,-68
-48,-82,-34,65,-7,-58,78,146,34,-29,-53,-63
-48,-78,-29,63,-9,-53,82,156,43,-29,-48,-58
-48,-82,-34,65,-7,-58,87,165,48,-24,-43,-58
-43,-82,-39,63,-2,-61,92,175,58,-24,-43,-58
-39,-78,-39,58,0,-58,97,185,63,-14,-39,-58
-39,-78,-39,58,0,-58,102,195,73,-14,-34,-53
-39,-68,-29,53,-4,-48,102,209,82,-9,-34,-48
-34,-58,-24,46,-4,-41,107,214,92,-4,-29,-48
-34,-53,-19,43,-7,-36,112,224,102,0,-29,-43
-24,-58,-34,41,4,-46,107,234,112,4,-24,-43
-14,-58,-43,36,14,-51,107,248,117,4,-19,-39
-14,-53,-39,34,12,-46,107,268,126,9,-19,-39
0,-48,-48,24,24,-48,117,278,136,14,-19,-34
0,-48,-48,24,24,-48,131,302,151,19,-9,-29
9,-43,-53,17,31,-48,136,322,156,19,-9,-29
14,-43,-58,14,36,-51,141,346,165,24,-14,-29
24,-39,-63,7,43,-51,146,361,175,24,-19,-29
24,-34,-58,4,41,-46,146,370,180,19,-14,-24
34,-29,-63,-2,48,-46,151,390,185,19,-14,-24
34,-34,-68,0,51,-51,161,405,195,19,-14,-24
39,-39,-78,0,58,-58,170,414,200,14,-19,-29
53,-39,-92,-7,73,-65,170,434,204,14,-19,-29
58,-39,-97,-9,78,-68,170,444,204,9,-24,-29
68,-34,-102,-17,85,-68,175,453,204,-4,-24,-29
68,-34,-102,-17,85,-68,180,458,204,-9,-24,-34
78,-34,-112,-21,95,-73,180,458,204,-14,-34,-43
82,-29,-112,-26,97,-70,180,463,190,-29,-39,-48
87,-29,-117,-29,102,-73,175,458,190,-39,-48,-48
87,-29,-117,-29,102,-73,170,448,180,-43,-68,-53
92,-24,-117,-34,104,-70,165,434,170,-53,-73,-58
92,-19,-112,-36,102,-65,165,424,161,-63,-82,-58
92,-24,-117,-34,104,-70,156,400,141,-73,-78,-53
87,-24,-112,-31,100,-68,146,370,126,-73,-73,-53
82,-24,-107,-29,95,-65,136,341,112,-78,-73,-53
73,-29,-102,-21,87,-65,126,297,87,-82,-73,-53
63,-29,-92,-17,78,-61,107,248,68,-87,-78,-53
43,-29,-73,-7,58,-51,92,209,48,-87,-82,-53
24,-24,-48,0,36,-36,82,165,14,-87,-82,-58
4,-24,-29,9,17,-26,68,126,-4,-87,-82,-63
-4,-24,-19,14,7,-21,58,87,-24,-92,-78,-63
-24,-24,0,24,-12,-12,48,48,-39,-97,-78,-68
-34,-29,4,31,-19,-12,43,19,-58,-97,-78,-73
-39,-39,0,39,-19,-19,34,-4,-68,-92,-82,-78
-58,-48,9,53,-34,-19,29,-34,-78,-87,-78,-73
-68,-53,14,61,-41,-19,29,-48,-82,-87,-73,-73
-68,-53,14,61,-41,-19,24,-63,-97,-87,-78,-78
-73,-58,14,65,-43,-21,24,-73,-107,-92,-82,-78
-87,-53,34,70,-61,-9,19,-82,-112,-92,-82,-82
-87,-39,48,63,-68,4,14,-92,-112,-97,-87,-82
-87,-58,29,73,-58,-14,14,-97,-122,-92,-87,-87
-87,-73,14,80,-51,-29,14,-97,-122,-92,-87,-87
-92,-73,19,82,-56,-26,14,-97,-122,-92,-87,-87
-92,-73,19,82,-56,-26,14,-107,-117,-92,-92,-92
-92,-63,29,78,-61,-17,14,-107,-117,-92,-92,-87
-87,-63,24,75,-56,-19,19,-102,-122,-92,-92,-82
-87,-63,24,75,-56,-19,19,-102,-126,-92,-92,-82
-87,-63,24,75,-56,-19,19,-102,-131,-92,-92,-82
-87,-63,24,75,-56,-19,19,-102,-131,-92,-92,-82
-87,-58,29,73,-58,-14,19,-102,-131,-92,-92,-78
-87,-58,29,73,-58,-14,19,-97,-126,-92,-92,-78
-87,-58,29,73,-58,-14,24,-92,-122,-92,-92,-78
-87,-58,29,73,-58,-14,24,-92,-122,-92,-92,-78
-82,-63,19,73,-51,-21,24,-82,-112,-87,-87,-78
-78,-63,14,70,-46,-24,24,-92,-112,-87,-87,-78
-73,-63,9,68,-41,-26,24,-97,-112,-87,-87,-78
-73,-63,9,68,-41,-26,19,-92,-112,-87,-82,-78
-73,-63,9,68,-41,-26,19,-92,-112,-87,-78,-78
-73,-58,14,65,-43,-21,19,-87,-107,-82,-78,-73
-68,-58,9,63,-39,-24,19,-87,-107,-82,-78,-73
-68,-58,9,63,-39,-24,24,-87,-107,-82,-82,-73
-68,-58,9,63,-39,-24,24,-87,-107,-82,-87,-73
-68,-53,14,61,-41,-19,24,-87,-107,-82,-87,-73
-68,-48,19,58,-43,-14,24,-87,-107,-82,-87,-78
-63,-48,14,56,-39,-17,24,-82,-107,-87,-87,-78
-63,-48,14,56,-39,-17,24,-78,-107,-87,-87,-78
-68,-48,19,58,-43,-14,24,-78,-112,-87,-87,-78
-68,-48,19,58,-43,-14,24,-78,-112,-87,-87,-78
-68,-48,19,58,-43,-14,24,-78,-112,-87,-82,-78
-68,-48,19,58,-43,-14,24,-78,-112,-87,-78,-78
-68,-48,19,58,-43,-14,24,-78,-112,-87,-82,-82
-68,-48,19,58,-43,-14,19,-82,-112,-87,-82,-82
-63,-43,19,53,-41,-12,19,-82,-117,-87,-82,-82
-58,-34,24,46,-41,-4,24,-87,-122,-92,-87,-82
-58,-39,19,48,-39,-9,24,-87,-122,-92,-87,-82
-63,-39,24,51,-43,-7,19,-87,-122,-92,-87,-82
-63,-39,24,51,-43,-7,19,-97,-122,-97,-87,-82
-63,-39,24,51,-43,-7,24,-102,-126,-97,-92,-87
-58,-34,24,46,-41,-4,29,-92,-122,-92,-87,-82
-58,-29,29,43,-43,0,39,-87,-117,-87,-87,-78
-58,-29,29,43,-43,0,39,-82,-112,-87,-87,-78
-58,-29,29,43,-43,0,39,-78,-107,-87,-87,-78
-53,-24,29,39,-41,2,43,-78,-107,-82,-78,-73
-48,-14,34,31,-41,9,48,-73,-102,-78,-68,-68
-48,-9,39,29,-43,14,58,-68,-102,-73,-63,-63
-48,-4,43,26,-46,19,73,-63,-92,-68,-63,-58
-43,0,43,21,-43,21,82,-53,-92,-68,-63,-53
-39,0,39,19,-39,19,92,-43,-92,-68,-63,-53
-34,0,34,17,-34,17,92,-39,-87,-68,-63,-53
-24,14,39,4,-31,26,92,-34,-87,-58,-58,-48
-14,19,34,-2,-24,26,87,-34,-82,-53,-53,-43
0,39,39,-19,-19,39,73,-48,-82,-53,-53,-39
9,53,43,-31,-17,48,53,-63,-82,-43,-43,-34
19,63,43,-41,-12,53,19,-82,-92,-39,-43,-29
29,68,39,-48,-4,53,-14,-92,-102,-43,-43,-29
39,78,39,-58,0,58,-24,-112,-117,-53,-48,-29
43,78,34,-61,4,56,-29,-112,-122,-58,-53,-34
48,78,29,-63,9,53,-29,-117,-131,-68,-63,-43
34,48,14,-41,9,31,-24,-117,-126,-73,-68,-48
19,24,4,-21,7,14,-19,-117,-117,-82,-63,-53
19,34,14,-26,2,24,-19,-131,-136,-92,-68,-63
9,39,29,-24,-9,34,-19,-141,-156,-102,-82,-73
-4,24,29,-9,-17,26,-14,-141,-161,-107,-97,-82
-29,0,29,14,-29,14,-4,-136,-165,-122,-112,-92
-48,-19,29,34,-39,4,4,-136,-161,-122,-117,-97
-58,-29,29,43,-43,0,4,-141,-165,-126,-122,-102
-58,-29,29,43,-43,0,4,-141,-165,-126,-117,-102
-58,-34,24,46,-41,-4,4,-141,-165,-131,-117,-107
-63,-39,24,51,-43,-7,4,-141,-165,-131,-117,-107
-63,-39,24,51,-43,-7,4,-136,-165,-131,-117,-107
-63,-39,24,51,-43,-7,4,-136,-170,-131,-122,-107
-63,-39,24,51,-43,-7,9,-136,-175,-131,-126,-107
-73,-43,29,58,-51,-7,9,-136,-175,-131,-126,-107
-78,-43,34,61,-56,-4,14,-136,-175,-131,-126,-107
-82,-43,39,63,-61,-2,14,-136,-175,-131,-126,-107
-82,-43,39,63,-61,-2,14,-136,-175,-131,-122,-112
-82,-48,34,65,-58,-7,14,-136,-175,-136,-122,-112
-82,-48,34,65,-58,-7,14,-136,-180,-136,-122,-112
-82,-48,34,65,-58,-7,14,-136,-180,-136,-122,-117
-87,-48,39,68,-63,-4,19,-131,-175,-136,-122,-117
-87,-48,39,68,-63,-4,19,-131,-175,-136,-126,-117
-87,-48,39,68,-63,-4,19,-131,-175,-136,-131,-117
-87,-53,34,70,-61,-9,19,-126,-170,-131,-126,-112
-87,-63,24,75,-56,-19,24,-122,-170,-131,-126,-112
-82,-53,29,68,-56,-12,48,-87,-146,-126,-117,-107
-73,-14,58,43,-65,21,107,-14,-92,-97,-102,-97
-39,19,58,9,-48,39,156,136,58,29,-9,-29
43,34,-9,-39,26,12,244,351,263,185,112,73
204,141,-63,-173,134,39,312,614,551,419,322,248
453,409,-43,-431,248,183,234,683,858,775,663,561
736,761,24,-749,356,392,-161,97,819,1049,1000,893
1083,1200,117,-1141,483,658,-663,-390,829,1381,1385,1283
1410,1464,53,-1437,678,758,-1102,-610,1000,1703,1737,1620
1483,1473,-9,-1478,746,732,-1420,-727,1166,1932,1981,1839
1317,1239,-78,-1278,697,580,-1444,-673,1273,1932,1961,1800
1024,961,-63,-993,544,448,-1337,-683,1083,1620,1659,1512
751,629,-122,-690,436,253,-1215,-766,575,888,971,941
375,307,-68,-341,222,119,-917,-732,-63,39,161,244
141,244,102,-192,19,173,-649,-683,-351,-126,-24,39
180,219,39,-200,70,129,-414,-439,-239,-43,48,107
161,180,19,-170,70,100,-185,-156,-29,63,102,126
136,126,-9,-131,73,58,-97,-14,73,102,107,117
112,58,-53,-85,82,2,-58,34,97,107,97,78
78,24,-53,-51,65,-14,-9,58,87,73,63,48
39,19,-19,-29,29,0,14,58,63,34,29,19
29,9,-19,-19,24,-4,14,58,34,9,4,0
24,-9,-34,-7,29,-21,24,58,24,0,-14,-14
14,-9,-24,-2,19,-17,43,68,24,-19,-29,-34
0,-19,-19,9,9,-19,58,82,24,-29,-43,-43
0,-24,-24,12,12,-24,63,92,19,-34,-48,-43
0,-24,-24,12,12,-24,63,97,19,-34,-43,-48
-4,-29,-24,17,9,-26,68,107,19,-34,-39,-53
-9,-34,-24,21,7,-29,78,117,29,-29,-43,-53
-9,-39,-29,24,9,-34,87,126,29,-24,-43,-53
-4,-39,-34,21,14,-36,87,122,34,-24,-43,-53
-4,-39,-34,21,14,-36,87,126,39,-24,-39,-48
-9,-39,-29,24,9,-34,87,136,48,-19,-39,-43
-9,-39,-29,24,9,-34,92,146,53,-19,-39,-39
-4,-34,-29,19,12,-31,92,151,53,-9,-39,-39
0,-34,-34,17,17,-34,97,156,63,-9,-34,-34
4,-24,-29,9,17,-26,102,165,68,-9,-29,-29
9,-24,-34,7,21,-29,107,175,68,-4,-24,-29
14,-24,-39,4,26,-31,107,185,78,-4,-24,-29
19,-19,-39,0,29,-29,107,195,82,4,-19,-29
24,-19,-43,-2,34,-31,112,204,92,4,-14,-24
29,-9,-39,-9,34,-24,112,219,102,9,-14,-19
34,-4,-39,-14,36,-21,117,229,112,14,-9,-24
34,-4,-39,-14,36,-21,122,244,122,19,-9,-24
39,9,-29,-24,34,-9,122,253,131,19,-4,-24
43,29,-14,-36,29,7,126,268,136,14,0,-19
39,14,-24,-26,31,-4,126,287,146,19,0,-19
48,0,-48,-24,48,-24,136,297,156,24,0,-14
48,9,-39,-29,43,-14,141,312,170,29,4,-9
58,24,-34,-41,46,-4,136,322,175,29,0,-9
63,24,-39,-43,51,-7,141,346,185,34,0,-9
73,29,-43,-51,58,-7,146,361,195,34,0,-9
73,34,-39,-53,56,-2,146,370,200,29,4,-4
82,39,-43,-61,63,-2,151,390,204,29,4,-4
87,39,-48,-63,68,-4,161,405,209,29,4,-4
97,39,-58,-68,78,-9,170,414,209,24,0,-9
112,34,-78,-73,95,-21,170,434,214,24,0,-9
117,29,-87,-73,102,-29,170,444,214,19,-4,-9
126,34,-92,-80,109,-29,170,448,214,4,-9,-9
126,34,-92,-80,109,-29,170,448,214,0,-14,-14
131,34,-97,-82,114,-31,170,444,214,-4,-29,-24
131,39,-92,-85,112,-26,170,444,200,-19,-39,-29
136,39,-97,-87,117,-29,165,444,195,-34,-39,-29
136,39,-97,-87,117,-29,161,439,180,-43,-48,-34
146,39,-107,-92,126,-34,151,419,170,-53,-53,-39
151,39,-112,-95,131,-36,146,405,161,-63,-63,-39
151,34,-117,-92,134,-41,136,380,136,-73,-63,-34
146,34,-112,-90,129,-39,126,351,117,-73,-63,-34
136,39,-97,-87,117,-29,112,317,102,-78,-63,-34
122,39,-82,-80,102,-21,97,268,78,-82,-63,-34
107,34,-73,-70,90,-19,82,219,58,-82,-63,-34
82,29,-53,-56,68,-12,73,180,39,-78,-63,-34
63,24,-39,-43,51,-7,68,141,19,-73,-63,-34
43,14,-29,-29,36,-7,58,107,14,-68,-63,-34
34,9,-24,-21,29,-7,48,68,-4,-68,-58,-34
14,4,-9,-9,12,-2,39,29,-19,-68,-58,-39
-4,0,4,2,-4,2,34,0,-39,-73,-58,-43
-19,-9,9,14,-14,0,24,-24,-48,-73,-63,-48
-39,-19,19,29,-29,0,19,-48,-63,-73,-63,-48
-48,-24,24,36,-36,0,19,-58,-73,-78,-63,-53
-53,-24,29,39,-41,2,14,-73,-87,-78,-68,-58
-63,-29,34,46,-48,2,14,-82,-97,-82,-73,-58
-78,-39,39,58,-58,0,9,-92,-102,-78,-73,-63
-78,-39,39,58,-58,0,4,-102,-102,-78,-78,-63
-73,-43,29,58,-51,-7,0,-107,-112,-78,-78,-68
-68,-43,24,56,-46,-9,-4,-107,-112,-82,-78,-68
-73,-43,29,58,-51,-7,-4,-107,-117,-82,-78,-68
-73,-43,29,58,-51,-7,-4,-117,-117,-82,-82,-73
-82,-43,39,63,-61,-2,-9,-122,-117,-82,-78,-73
-87,-53,34,70,-61,-9,-9,-122,-122,-82,-73,-73
-87,-53,34,70,-61,-9,-9,-117,-122,-82,-73,-73
-87,-53,34,70,-61,-9,-9,-112,-122,-82,-73,-73
-87,-53,34,70,-61,-9,-9,-112,-122,-82,-73,-73
-87,-48,39,68,-63,-4,-9,-112,-122,-82,-73,-68
-87,-48,39,68,-63,-4,-9,-112,-122,-82,-73,-68
-87,-48,39,68,-63,-4,-4,-112,-122,-82,-73,-68
-92,-53,39,73,-65,-7,-4,-117,-122,-82,-78,-68
-92,-63,29,78,-61,-17,-4,-112,-112,-78,-78,-68
-92,-63,29,78,-61,-17,-4,-112,-112,-78,-78,-68
-92,-63,29,78,-61,-17,-4,-107,-112,-78,-78,-68
-87,-58,29,73,-58,-14,-9,-102,-112,-78,-78,-68
-82,-53,29,68,-56,-12,-9,-102,-112,-78,-78,-68
-82,-48,34,65,-58,-7,-9,-97,-107,-73,-78,-63
-78,-48,29,63,-53,-9,-9,-97,-107,-73,-78,-63
-82,-53,29,68,-56,-12,-9,-97,-107,-78,-78,-68
-87,-58,29,73,-58,-14,-14,-97,-107,-82,-78,-73
-87,-58,29,73,-58,-14,-14,-97,-107,-82,-78,-73
-87,-58,29,73,-58,-14,-14,-97,-107,-82,-78,-78
-82,-58,24,70,-53,-17,-9,-97,-107,-82,-78,-73
-82,-58,24,70,-53,-17,-4,-97,-107,-78,-78,-68
-87,-58,29,73,-58,-14,-4,-97,-112,-78,-78,-68
-87,-58,29,73,-58,-14,-4,-97,-112,-78,-78,-68
-87,-58,29,73,-58,-14,-4,-97,-112,-82,-78,-68
-87,-58,29,73,-58,-14,-4,-97,-112,-87,-78,-68
-87,-58,29,73,-58,-14,-4,-97,-112,-87,-82,-73
-87,-58,29,73,-58,-14,-9,-102,-112,-87,-82,-73
-87,-63,24,75,-56,-19,-14,-102,-117,-87,-82,-73
-87,-63,24,75,-56,-19,-14,-107,-122,-92,-87,-73
-92,-73,19,82,-56,-26,-14,-112,-126,-92,-87,-73
-102,-78,24,90,-63,-26,-19,-117,-131,-92,-87,-73
-102,-78,24,90,-63,-26,-19,-122,-131,-97,-87,-73
-102,-78,24,90,-63,-26,-14,-122,-136,-97,-92,-78
-102,-78,24,90,-63,-26,-14,-122,-136,-97,-92,-82
-102,-73,29,87,-65,-21,-19,-126,-141,-97,-92,-87
-102,-73,29,87,-65,-21,-19,-131,-141,-102,-97,-87
-102,-73,29,87,-65,-21,-19,-136,-146,-102,-102,-87
-107,-73,34,90,-70,-19,-19,-136,-151,-107,-102,-87
-107,-73,34,90,-70,-19,-19,-136,-151,-112,-102,-87
-102,-78,24,90,-63,-26,-19,-136,-151,-112,-97,-87
-102,-78,24,90,-63,-26,-19,-136,-151,-112,-92,-87
-97,-68,29,82,-63,-19,-9,-126,-146,-102,-87,-82
-92,-58,34,75,-63,-12,-4,-117,-136,-92,-82,-78
-87,-58,29,73,-58,-14,9,-112,-131,-87,-82,-73
-87,-58,29,73,-58,-14,19,-102,-126,-82,-82,-68
-82,-48,34,65,-58,-7,24,-97,-122,-82,-73,-63
-82,-48,34,65,-58,-7,29,-92,-117,-78,-63,-63
-82,-53,29,68,-56,-12,39,-92,-107,-73,-63,-58
-82,-58,24,70,-53,-17,43,-82,-107,-68,-58,-58
-78,-48,29,63,-53,-9,34,-82,-102,-73,-68,-68
-63,-29,34,46,-48,2,29,-87,-97,-82,-73,-68
-48,-24,24,36,-36,0,29,-87,-92,-63,-63,-53
-39,-19,19,29,-29,0,24,-82,-82,-48,-48,-39
-39,-19,19,29,-29,0,24,-82,-82,-48,-48,-39
