I, II, III, aVR, aVL, aVF, V1, V2, V3, V4, V5, V6
-78,-78,0,78,-39,-39,9,-68,-68,-78,-78,-68
-78,-78,0,78,-39,-39,9,-63,-68,-78,-78,-68
-78,-78,0,78,-39,-39,9,-58,-68,-78,-78,-68
-78,-78,0,78,-39,-39,14,-58,-68,-78,-78,-68
-78,-78,0,78,-39,-39,19,-58,-68,-78,-78,-68
-78,-78,0,78,-39,-39,19,-58,-63,-78,-78,-68
-78,-78,0,78,-39,-39,19,-58,-58,-78,-78,-68
-73,-78,-4,75,-34,-41,19,-58,-58,-73,-78,-68
-68,-78,-9,73,-29,-43,19,-58,-58,-68,-78,-68
-68,-73,-4,70,-31,-39,19,-53,-58,-68,-73,-68
-68,-68,0,68,-34,-34,19,-48,-58,-68,-68,-68
-68,-68,0,68,-34,-34,19,-48,-58,-68,-68,-68
-68,-68,0,68,-34,-34,19,-48,-58,-68,-68,-68
-68,-68,0,68,-34,-34,19,-48,-58,-68,-68,-68
-68,-68,0,68,-34,-34,19,-48,-58,-68,-68,-68
-68,-68,0,68,-34,-34,19,-48,-58,-68,-68,-63
-68,-68,0,68,-34,-34,19,-48,-58,-68,-68,-58
-63,-63,0,63,-31,-31,19,-48,-53,-68,-63,-58
-58,-58,0,58,-29,-29,19,-48,-48,-68,-58,-58
-58,-58,0,58,-29,-29,19,-48,-48,-68,-58,-58
-58,-58,0,58,-29,-29,19,-48,-48,-68,-58,-58
-58,-58,0,58,-29,-29,19,-48,-48,-68,-58,-58
-58,-58,0,58,-29,-29,19,-48,-48,-68,-58,-58
-58,-58,0,58,-29,-29,14,-48,-48,-68,-63,-58
-58,-58,0,58,-29,-29,9,-48,-48,-68,-68,-58
-63,-63,0,63,-31,-31,9,-53,-53,-68,-68,-58
-68,-68,0,68,-34,-34,9,-58,-58,-68,-68,-58
-68,-68,0,68,-34,-34,9,-58,-58,-68,-68,-58
-68,-68,0,68,-34,-34,9,-58,-58,-68,-68,-58
-68,-68,0,68,-34,-34,9,-58,-58,-68,-68,-58
-68,-68,0,68,-34,-34,9,-58,-58,-68,-68,-58
-68,-68,0,68,-34,-34,9,-58,-63,-73,-73,-68
-68,-68,0,68,-34,-34,9,-58,-68,-78,-78,-78
-68,-73,-4,70,-31,-39,9,-63,-68,-82,-78,-78
-68,-78,-9,73,-29,-43,9,-68,-68,-87,-78,-78
-68,-78,-9,73,-29,-43,9,-68,-68,-87,-78,-78
-68,-78,-9,73,-29,-43,9,-68,-68,-87,-78,-78
-68,-78,-9,73,-29,-43,9,-68,-73,-87,-78,-78
-68,-78,-9,73,-29,-43,9,-68,-78,-87,-78,-78
-68,-78,-9,73,-29,-43,9,-68,-78,-87,-78,-78
-68,-78,-9,73,-29,-43,9,-68,-78,-87,-78,-78
-68,-78,-9,73,-29,-43,9,-68,-78,-87,-78,-78
-68,-78,-9,73,-29,-43,9,-68,-78,-87,-78,-78
-68,-78,-9,73,-29,-43,4,-68,-78,-87,-82,-78
-68,-78,-9,73,-29,-43,0,-68,-78,-87,-87,-78
-68,-78,-9,73,-29,-43,0,-73,-78,-87,-87,-82
-68,-78,-9,73,-29,-43,0,-78,-78,-87,-87,-87
-68,-78,-9,73,-29,-43,0,-78,-78,-87,-87,-87
-68,-78,-9,73,-29,-43,0,-78,-78,-87,-87,-87
-63,-78,-14,70,-24,-46,0,-78,-78,-87,-87,-87
-58,-78,-19,68,-19,-48,0,-78,-78,-87,-87,-87
-58,-82,-24,70,-17,-53,-4,-78,-82,-92,-87,-87
-58,-87,-29,73,-14,-58,-9,-78,-87,-97,-87,-87
-58,-87,-29,73,-14,-58,-9,-78,-87,-97,-87,-87
-58,-87,-29,73,-14,-58,-9,-78,-87,-97,-87,-87
-53,-82,-29,68,-12,-56,-4,-78,-87,-97,-87,-87
-48,-78,-29,63,-9,-53,0,-78,-87,-97,-87,-87
-48,-73,-24,61,-12,-48,0,-78,-87,-102,-87,-87
-48,-68,-19,58,-14,-43,0,-78,-87,-107,-87,-87
-48,-68,-19,58,-14,-43,0,-78,-92,-107,-87,-87
-48,-68,-19,58,-14,-43,0,-78,-97,-107,-87,-87
-48,-68,-19,58,-14,-43,0,-78,-97,-107,-87,-87
-48,-68,-19,58,-14,-43,0,-78,-97,-107,-87,-87
-43,-63,-19,53,-12,-41,0,-73,-92,-107,-87,-87
-39,-58,-19,48,-9,-39,0,-68,-87,-107,-87,-87
-34,-43,-9,39,-12,-26,9,-58,-78,-102,-82,-82
-29,-29,0,29,-14,-14,19,-48,-68,-97,-78,-78
-19,-9,9,14,-14,0,34,-39,-53,-82,-63,-68
-14,4,19,4,-17,12,43,-29,-39,-68,-53,-53
-9,19,29,-4,-19,24,58,-19,-29,-58,-43,-43
-9,29,39,-9,-24,34,68,-19,-29,-53,-39,-34
-9,29,39,-9,-24,34,68,-14,-29,-58,-43,-43
-4,39,43,-17,-24,41,63,-14,-34,-53,-43,-43
19,97,78,-58,-29,87,58,-9,-9,-39,-14,-19
48,161,112,-104,-31,136,43,-4,19,-4,14,9
58,165,107,-112,-24,136,19,0,29,9,24,19
68,141,73,-104,-2,107,0,0,29,19,34,24
82,126,43,-104,19,85,-14,-4,19,4,24,9
73,102,29,-87,21,65,-19,-9,4,-9,14,4
63,92,29,-78,17,61,-14,-9,-4,-14,0,0
43,82,39,-63,2,61,-14,-14,-9,-14,-9,-4
34,53,19,-43,7,36,-14,-24,-19,-24,-14,-14
24,19,-4,-21,14,7,-24,-34,-43,-48,-29,-24
19,0,-19,-9,19,-9,-24,-39,-53,-58,-39,-29
9,-4,-14,-2,12,-9,-24,-43,-63,-63,-43,-34
0,-4,-4,2,2,-4,-24,-53,-73,-78,-48,-43
-24,-9,14,17,-19,2,-24,-63,-82,-92,-58,-53
-48,-43,4,46,-26,-19,-19,-82,-102,-112,-82,-73
-53,-58,-4,56,-24,-31,-14,-87,-107,-122,-97,-92
-58,-82,-24,70,-17,-53,-14,-87,-107,-131,-102,-102
-58,-92,-34,75,-12,-63,-14,-92,-112,-136,-102,-107
-58,-97,-39,78,-9,-68,-14,-92,-112,-141,-107,-107
-58,-97,-39,78,-9,-68,-14,-92,-117,-141,-107,-112
-63,-97,-34,80,-14,-65,-14,-92,-117,-136,-107,-112
-68,-102,-34,85,-17,-68,-9,-92,-122,-136,-112,-117
-78,-107,-29,92,-24,-68,-9,-92,-122,-136,-112,-117
-78,-107,-29,92,-24,-68,-9,-92,-122,-136,-117,-122
-82,-107,-24,95,-29,-65,-9,-87,-122,-141,-117,-122
-92,-112,-19,102,-36,-65,-4,-82,-122,-141,-122,-126
-92,-112,-19,102,-36,-65,-4,-82,-122,-141,-122,-126
-92,-117,-24,104,-34,-70,0,-82,-122,-141,-122,-126
-87,-117,-29,102,-29,-73,0,-78,-122,-141,-122,-126
-82,-112,-29,97,-26,-70,-4,-78,-122,-141,-122,-126
-82,-112,-29,97,-26,-70,-4,-78,-122,-146,-126,-131
-82,-112,-29,97,-26,-70,-4,-82,-122,-146,-126,-131
-87,-122,-34,104,-26,-78,4,-82,-122,-146,-122,-131
-92,-136,-43,114,-24,-90,9,-78,-122,-146,-122,-131
-92,-126,-34,109,-29,-80,9,-78,-122,-146,-126,-131
-92,-126,-34,109,-29,-80,9,-73,-122,-151,-131,-141
-87,-141,-53,114,-17,-97,19,-63,-122,-156,-141,-151
-78,-156,-78,117,0,-117,24,-34,-122,-161,-151,-165
-63,-175,-112,119,24,-143,39,0,-117,-165,-170,-190
0,-156,-156,78,78,-156,0,9,-102,-151,-165,-185
48,-87,-136,19,92,-112,-43,14,-63,-87,-107,-141
136,14,-122,-75,129,-53,-161,-68,-43,14,0,-43
326,165,-161,-246,244,2,-468,-312,-78,112,146,117
575,439,-136,-507,356,151,-854,-595,-48,341,424,400
800,795,-4,-797,402,395,-1268,-858,73,678,800,766
897,1034,136,-966,380,585,-1454,-951,234,985,1112,1063
854,1024,170,-939,341,597,-1444,-941,297,1166,1293,1234
771,995,224,-883,273,610,-1342,-849,336,1229,1371,1317
619,634,14,-627,302,324,-1073,-678,48,746,1019,1088
322,351,29,-336,146,190,-814,-722,-263,263,614,780
-14,185,200,-85,-107,192,-497,-683,-395,-107,204,385
-117,73,190,21,-153,131,-322,-546,-375,-209,9,146
-126,-39,87,82,-107,24,-209,-424,-322,-219,-82,-4
-126,-112,14,119,-70,-48,-112,-302,-253,-200,-122,-82
-82,-112,-29,97,-26,-70,-73,-190,-195,-180,-122,-92
-53,-112,-58,82,2,-85,-34,-112,-156,-165,-122,-102
-53,-102,-48,78,-2,-75,9,-82,-136,-151,-102,-102
-53,-92,-39,73,-7,-65,53,-48,-107,-131,-92,-97
-58,-78,-19,68,-19,-48,58,-14,-82,-122,-92,-97
-58,-63,-4,61,-26,-34,58,0,-73,-117,-87,-102
-53,-63,-9,58,-21,-36,73,0,-73,-117,-92,-107
-53,-63,-9,58,-21,-36,87,9,-63,-112,-97,-107
-68,-73,-4,70,-31,-39,92,24,-53,-112,-97,-107
-82,-82,0,82,-41,-41,92,34,-53,-112,-97,-112
-82,-78,4,80,-43,-36,97,39,-43,-107,-97,-112
-78,-78,0,78,-39,-39,107,39,-34,-107,-97,-107
-78,-78,0,78,-39,-39,107,48,-34,-97,-97,-107
-78,-73,4,75,-41,-34,107,53,-29,-97,-97,-107
-82,-68,14,75,-48,-26,107,53,-24,-97,-92,-102
-87,-68,19,78,-53,-24,112,58,-19,-92,-87,-102
-78,-58,19,68,-48,-19,112,63,-14,-87,-87,-97
-78,-53,24,65,-51,-14,112,68,-9,-87,-82,-97
-63,-43,19,53,-41,-12,112,73,-4,-82,-78,-97
-58,-39,19,48,-39,-9,112,73,-4,-82,-78,-92
-58,-29,29,43,-43,0,117,78,0,-73,-73,-87
-53,-24,29,39,-41,2,122,92,4,-68,-68,-87
-48,-24,24,36,-36,0,122,102,14,-63,-58,-82
-48,-19,29,34,-39,4,122,107,14,-58,-48,-68
-48,-9,39,29,-43,14,122,112,34,-53,-43,-68
-43,0,43,21,-43,21,122,122,39,-43,-43,-68
-43,0,43,21,-43,21,122,131,43,-39,-43,-68
-39,14,53,12,-46,34,126,136,53,-29,-29,-58
-39,9,48,14,-43,29,131,146,58,-29,-29,-48
-29,14,43,7,-36,29,131,151,63,-19,-34,-48
-14,19,34,-2,-24,26,131,165,73,-14,-24,-53
-9,29,39,-9,-24,34,131,170,78,-14,-19,-53
-4,34,39,-14,-21,36,136,185,82,-4,-19,-43
0,39,39,-19,-19,39,141,195,87,4,-19,-43
-4,48,53,-21,-29,51,146,204,97,14,-9,-39
0,48,48,-24,-24,48,146,219,107,19,0,-29
4,58,53,-31,-24,56,151,239,131,34,14,-19
9,58,48,-34,-19,53,156,248,141,39,29,-14
29,87,58,-58,-14,73,156,268,156,63,34,-9
53,102,48,-78,2,75,161,292,170,78,43,0
43,112,68,-78,-12,90,170,312,190,92,53,9
39,131,92,-85,-26,112,180,336,204,107,73,19
24,126,102,-75,-39,114,180,346,219,122,82,34
14,126,112,-70,-48,119,185,370,239,136,92,43
53,141,87,-97,-17,114,185,385,258,151,102,53
82,161,78,-122,2,119,185,405,273,170,112,63
78,180,102,-129,-12,141,195,429,292,190,141,82
63,195,131,-129,-34,163,200,453,312,214,161,92
87,224,136,-156,-24,180,200,473,331,239,170,107
102,239,136,-170,-17,187,195,483,351,258,190,122
141,263,122,-202,9,192,195,497,361,278,209,136
175,283,107,-229,34,195,190,507,380,292,219,146
180,292,112,-236,34,202,190,517,390,307,234,151
190,312,122,-251,34,217,180,527,400,322,248,161
224,322,97,-273,63,209,170,527,409,331,263,170
253,336,82,-295,85,209,161,527,414,336,268,185
258,341,82,-300,87,212,156,527,419,341,278,190
263,341,78,-302,92,209,146,517,419,351,287,195
258,346,87,-302,85,217,136,507,409,361,287,200
244,351,107,-297,68,229,126,492,405,366,287,209
239,346,107,-292,65,226,117,463,390,356,292,209
219,331,112,-275,53,222,112,434,366,341,283,209
200,307,107,-253,46,207,97,400,336,317,258,200
185,278,92,-231,46,185,87,366,302,292,229,180
151,253,102,-202,24,178,82,312,258,253,204,156
126,209,82,-168,21,146,73,268,224,214,175,141
97,180,82,-139,7,131,73,229,190,175,151,112
73,151,78,-112,-2,114,63,195,156,141,122,82
58,122,63,-90,-2,92,58,161,122,102,87,63
29,92,63,-61,-17,78,58,136,92,73,63,43
14,68,53,-41,-19,61,53,107,63,43,43,29
-4,43,48,-19,-26,46,53,82,29,19,24,9
-19,24,43,-2,-31,34,53,63,9,0,0,0
-39,4,43,17,-41,24,48,43,0,-19,-14,-19
-53,-14,39,34,-46,12,43,29,-19,-39,-29,-29
-63,-19,43,41,-53,12,34,14,-34,-53,-43,-43
-68,-29,39,48,-53,4,34,0,-39,-63,-48,-43
-68,-39,29,53,-48,-4,34,-9,-48,-68,-58,-48
-78,-43,34,61,-56,-4,34,-19,-53,-63,-63,-58
-82,-48,34,65,-58,-7,34,-24,-63,-63,-63,-58
-82,-53,29,68,-56,-12,29,-24,-63,-63,-68,-53
-82,-53,29,68,-56,-12,29,-24,-63,-63,-68,-53
-82,-53,29,68,-56,-12,24,-29,-63,-73,-68,-53
-87,-58,29,73,-58,-14,24,-34,-68,-73,-68,-48
-87,-58,29,73,-58,-14,24,-34,-68,-73,-68,-48
-87,-58,29,73,-58,-14,24,-34,-68,-78,-68,-48
-82,-58,24,70,-53,-17,19,-34,-68,-78,-73,-48
-82,-58,24,70,-53,-17,19,-39,-68,-73,-73,-48
-82,-63,19,73,-51,-21,19,-48,-68,-63,-73,-53
-82,-58,24,70,-53,-17,19,-53,-68,-63,-73,-53
-92,-63,29,78,-61,-17,19,-43,-68,-63,-68,-53
-92,-63,29,78,-61,-17,19,-43,-68,-68,-63,-53
-87,-58,29,73,-58,-14,19,-43,-68,-68,-63,-53
-82,-53,29,68,-56,-12,19,-39,-68,-63,-63,-53
-82,-53,29,68,-56,-12,24,-39,-58,-58,-63,-48
-82,-53,29,68,-56,-12,24,-39,-53,-58,-68,-39
-82,-53,29,68,-56,-12,24,-39,-53,-53,-68,-39
-87,-53,34,70,-61,-9,29,-39,-53,-53,-68,-39
-87,-53,34,70,-61,-9,29,-39,-53,-53,-63,-39
-87,-53,34,70,-61,-9,29,-34,-53,-48,-58,-39
-82,-43,39,63,-61,-2,29,-34,-53,-43,-58,-39
-82,-43,39,63,-61,-2,29,-34,-48,-43,-58,-39
-78,-43,34,61,-56,-4,29,-29,-48,-34,-53,-39
-78,-43,34,61,-56,-4,34,-29,-48,-29,-53,-39
-82,-43,39,63,-61,-2,34,-29,-48,-34,-53,-39
-82,-34,48,58,-65,7,34,-29,-43,-34,-53,-39
-82,-48,34,65,-58,-7,34,-29,-43,-34,-58,-43
-82,-48,34,65,-58,-7,34,-29,-43,-34,-63,-48
-82,-43,39,63,-61,-2,34,-29,-43,-34,-63,-48
-78,-39,39,58,-58,0,29,-29,-34,-29,-58,-43
-78,-39,39,58,-58,0,29,-29,-34,-24,-58,-39
-73,-39,34,56,-53,-2,29,-34,-39,-19,-58,-34
-73,-39,34,56,-53,-2,29,-34,-39,-14,-58,-34
-73,-39,34,56,-53,-2,29,-34,-39,-19,-58,-39
-48,-24,24,36,-36,0,29,-34,-29,-19,-48,-39
-24,-9,14,17,-19,2,29,-34,-19,-14,-39,-39
-39,-14,24,26,-31,4,29,-34,-29,-19,-43,-39
-53,-24,29,39,-41,2,29,-39,-34,-24,-43,-39
-73,-43,29,58,-51,-7,19,-43,-39,-29,-43,-39
-92,-63,29,78,-61,-17,14,-48,-43,-34,-53,-43
-92,-63,29,78,-61,-17,14,-48,-48,-34,-53,-43
-92,-63,29,78,-61,-17,14,-48,-48,-34,-53,-43
-87,-63,24,75,-56,-19,14,-53,-48,-34,-58,-43
-82,-68,14,75,-48,-26,9,-53,-48,-34,-63,-43
-82,-58,24,70,-53,-17,9,-53,-48,-34,-63,-48
-82,-53,29,68,-56,-12,9,-53,-48,-39,-63,-53
-97,-68,29,82,-63,-19,9,-58,-48,-48,-63,-53
-112,-82,29,97,-70,-26,9,-63,-53,-53,-68,-53
-117,-82,34,100,-75,-24,9,-68,-53,-43,-68,-53
-117,-82,34,100,-75,-24,9,-68,-53,-39,-68,-53
-107,-82,24,95,-65,-29,4,-68,-53,-39,-68,-53
-102,-82,19,92,-61,-31,4,-68,-58,-39,-73,-53
-102,-87,14,95,-58,-36,4,-63,-58,-43,-73,-53
-102,-92,9,97,-56,-41,4,-58,-58,-43,-73,-53
-102,-92,9,97,-56,-41,4,-63,-53,-39,-68,-53
-102,-92,9,97,-56,-41,4,-63,-48,-39,-68,-53
-102,-92,9,97,-56,-41,4,-58,-58,-43,-73,-53
-102,-97,4,100,-53,-46,4,-53,-58,-48,-78,-53
-107,-102,4,104,-56,-48,4,-58,-58,-48,-78,-53
-107,-102,4,104,-56,-48,0,-58,-58,-48,-73,-53
-107,-102,4,104,-56,-48,0,-58,-58,-48,-73,-53
-102,-97,4,100,-53,-46,0,-58,-53,-48,-73,-53
-102,-92,9,97,-56,-41,0,-58,-48,-48,-73,-53
-102,-92,9,97,-56,-41,0,-58,-48,-48,-73,-53
-102,-92,9,97,-56,-41,-4,-63,-53,-48,-73,-58
-102,-92,9,97,-56,-41,-9,-63,-58,-53,-73,-63
-102,-92,9,97,-56,-41,-9,-63,-63,-58,-78,-63
-102,-92,9,97,-56,-41,-9,-63,-63,-63,-82,-63
-107,-97,9,102,-58,-43,-14,-68,-63,-68,-82,-68
-102,-97,4,100,-53,-46,-14,-73,-58,-68,-82,-68
-97,-92,4,95,-51,-43,-19,-68,-68,-68,-82,-68
-97,-92,4,95,-51,-43,-19,-73,-78,-73,-82,-68
-97,-102,-4,100,-46,-53,-19,-73,-73,-73,-78,-68
-97,-97,0,97,-48,-48,-14,-78,-68,-73,-78,-68
-87,-97,-9,92,-39,-53,-19,-78,-78,-68,-87,-63
-87,-92,-4,90,-41,-48,-19,-82,-82,-68,-92,-68
-87,-92,-4,90,-41,-48,-19,-82,-78,-68,-87,-73
-87,-87,0,87,-43,-43,-19,-68,-68,-63,-78,-63
-87,-87,0,87,-43,-43,-9,-68,-68,-63,-82,-58
-87,-87,0,87,-43,-43,0,-68,-68,-68,-87,-58
-73,-68,4,70,-39,-31,0,-58,-58,-63,-78,-53
-58,-48,9,53,-34,-19,0,-48,-48,-58,-68,-48
-58,-24,34,41,-46,4,9,-43,-39,-48,-58,-39
-58,-14,43,36,-51,14,19,-34,-29,-39,-48,-29
-63,-4,58,34,-61,26,29,-29,-19,-29,-43,-24
-68,-9,58,39,-63,24,39,-29,-19,-24,-39,-24
-68,-19,48,43,-58,14,43,-24,-14,-29,-43,-34
-63,-19,43,41,-53,12,43,-24,-14,-24,-43,-34
-39,43,82,-2,-61,63,43,-19,9,-9,-14,-9
-9,112,122,-51,-65,117,34,-14,39,24,14,19
0,122,122,-61,-61,122,0,-14,43,34,19,34
9,102,92,-56,-41,97,-29,-19,39,39,24,43
29,87,58,-58,-14,73,-43,-19,29,24,19,29
24,63,39,-43,-7,51,-48,-19,14,9,14,24
14,58,43,-36,-14,51,-43,-24,4,4,4,19
-4,53,58,-24,-31,56,-43,-34,0,4,0,14
-9,29,39,-9,-24,34,-43,-43,-9,-4,-9,4
-14,0,14,7,-14,7,-53,-53,-34,-29,-29,-4
-19,-29,-9,24,-4,-19,-53,-63,-43,-39,-43,-9
-29,-43,-14,36,-7,-29,-53,-73,-53,-43,-53,-14
-34,-39,-4,36,-14,-21,-53,-82,-63,-58,-53,-24
-53,-39,14,46,-34,-12,-53,-92,-73,-73,-58,-34
-78,-73,4,75,-41,-34,-53,-107,-97,-92,-82,-53
-82,-87,-4,85,-39,-46,-53,-107,-107,-102,-97,-73
-97,-112,-14,104,-41,-63,-53,-107,-107,-112,-107,-87
-107,-122,-14,114,-46,-68,-53,-112,-112,-117,-112,-97
-112,-131,-19,122,-46,-75,-53,-112,-112,-122,-117,-97
-117,-136,-19,126,-48,-78,-53,-112,-117,-122,-117,-102
-122,-141,-19,131,-51,-80,-53,-112,-117,-126,-117,-102
-126,-151,-24,139,-51,-87,-48,-112,-122,-136,-122,-107
-136,-161,-24,148,-56,-92,-48,-112,-122,-136,-122,-107
-136,-165,-29,151,-53,-97,-48,-112,-122,-136,-126,-112
-131,-165,-34,148,-48,-100,-48,-112,-122,-141,-126,-112
-131,-170,-39,151,-46,-104,-43,-112,-122,-141,-131,-117
-122,-165,-43,143,-39,-104,-43,-112,-122,-141,-136,-117
-112,-165,-53,139,-29,-109,-39,-112,-122,-141,-141,-117
-122,-165,-43,143,-39,-104,-34,-107,-122,-141,-141,-117
-131,-161,-29,146,-51,-95,-34,-107,-122,-141,-141,-117
-131,-161,-29,146,-51,-95,-34,-107,-122,-146,-146,-122
-131,-161,-29,146,-51,-95,-34,-112,-122,-146,-146,-122
-122,-156,-34,139,-43,-95,-29,-112,-122,-141,-141,-122
-112,-156,-43,134,-34,-100,-29,-107,-122,-136,-141,-122
-112,-156,-43,134,-34,-100,-29,-107,-122,-136,-146,-117
-112,-165,-53,139,-29,-109,-29,-102,-122,-141,-151,-122
-117,-185,-68,151,-24,-126,-24,-92,-126,-146,-161,-131
-117,-204,-87,161,-14,-146,-24,-63,-131,-151,-170,-146
-102,-229,-126,165,12,-178,-14,-39,-126,-161,-185,-175
-39,-214,-175,126,68,-195,-58,-39,-112,-151,-175,-175
34,-131,-165,48,100,-148,-102,-39,-73,-82,-117,-131
146,-14,-161,-65,153,-87,-219,-126,-53,24,-9,-34
307,117,-190,-212,248,-36,-527,-370,-92,117,131,117
527,370,-156,-448,341,107,-912,-653,-68,341,405,390
756,717,-39,-736,397,339,-1327,-927,39,658,766,756
858,946,87,-902,385,517,-1512,-1029,185,946,1063,1054
829,946,117,-888,356,531,-1503,-1005,268,1146,1259,1239
761,927,165,-844,297,546,-1400,-897,326,1229,1351,1337
614,580,-34,-597,324,273,-1132,-722,43,761,1010,1117
322,312,-9,-317,165,151,-873,-761,-263,292,614,819
-29,136,165,-53,-97,151,-546,-712,-385,-82,204,419
-146,14,161,65,-153,87,-361,-566,-356,-190,9,175
-151,-97,53,124,-102,-21,-244,-444,-312,-204,-87,14
-146,-170,-24,158,-61,-97,-141,-322,-253,-190,-131,-73
-112,-170,-58,141,-26,-114,-92,-209,-200,-170,-136,-87
-92,-170,-78,131,-7,-124,-43,-131,-165,-156,-141,-102
-92,-161,-68,126,-12,-114,-4,-102,-146,-141,-126,-107
-92,-151,-58,122,-17,-104,34,-68,-117,-122,-122,-107
-97,-136,-39,117,-29,-87,39,-34,-87,-112,-122,-102
-97,-122,-24,109,-36,-73,39,-19,-73,-107,-117,-102
-92,-122,-29,107,-31,-75,53,-19,-73,-107,-117,-107
-92,-122,-29,107,-31,-75,68,-9,-63,-102,-117,-107
-87,-122,-34,104,-26,-78,73,4,-53,-107,-117,-107
-82,-122,-39,102,-21,-80,73,14,-53,-112,-117,-112
-82,-112,-29,97,-26,-70,78,19,-48,-107,-117,-112
-78,-107,-29,92,-24,-68,87,19,-43,-107,-117,-107
-78,-107,-29,92,-24,-68,87,29,-48,-97,-117,-107
-78,-102,-24,90,-26,-63,87,34,-48,-97,-117,-107
-78,-97,-19,87,-29,-58,87,34,-43,-97,-112,-102
-78,-97,-19,87,-29,-58,92,39,-39,-92,-107,-102
-68,-87,-19,78,-24,-53,92,43,-34,-87,-107,-97
-68,-82,-14,75,-26,-48,92,48,-29,-87,-102,-97
-58,-78,-19,68,-19,-48,92,53,-24,-82,-97,-97
-58,-78,-19,68,-19,-48,92,53,-24,-82,-97,-92
-58,-68,-9,63,-24,-39,92,58,-19,-73,-92,-87
-53,-63,-9,58,-21,-36,92,73,-14,-68,-87,-87
-48,-63,-14,56,-17,-39,92,78,-4,-63,-82,-87
-48,-58,-9,53,-19,-34,92,78,-4,-58,-78,-78
-48,-53,-4,51,-21,-29,97,82,9,-58,-73,-78
-43,-48,-4,46,-19,-26,102,92,9,-53,-73,-78
-43,-48,-4,46,-19,-26,102,102,14,-48,-73,-78
-39,-34,4,36,-21,-14,107,107,24,-39,-58,-68
-43,-34,9,39,-26,-12,112,117,34,-39,-53,-58
-39,-24,14,31,-26,-4,112,122,43,-29,-53,-58
-29,-19,9,24,-19,-4,112,136,53,-14,-43,-58
-29,-9,19,19,-24,4,112,141,58,-4,-39,-53
-14,0,14,7,-14,7,117,165,68,4,-34,-43
0,9,9,-4,-4,9,122,185,78,14,-29,-43
4,24,19,-14,-7,21,126,185,87,19,-19,-39
19,29,9,-24,4,19,126,190,97,19,-9,-29
9,34,24,-21,-7,29,131,209,117,34,0,-24
0,29,29,-14,-14,29,136,219,122,39,9,-24
4,48,43,-26,-19,46,136,234,136,58,14,-19
14,53,39,-34,-12,46,141,253,151,68,24,-9
24,63,39,-43,-7,51,151,273,170,82,34,0
39,82,43,-61,-2,63,161,297,185,97,53,9
48,92,43,-70,2,68,161,307,200,117,63,24
63,107,43,-85,9,75,165,331,219,136,73,34
87,122,34,-104,26,78,165,351,244,151,87,43
102,141,39,-122,31,90,165,375,263,170,102,53
122,170,48,-146,36,109,175,390,283,190,131,73
131,195,63,-163,34,129,180,405,302,214,151,82
146,209,63,-178,41,136,180,424,317,234,156,97
151,209,58,-180,46,134,175,434,331,248,170,112
170,229,58,-200,56,143,175,448,341,268,190,126
185,244,58,-214,63,151,170,458,361,283,200,136
195,258,63,-226,65,161,175,473,375,297,214,146
209,283,73,-246,68,178,170,488,390,312,229,161
224,292,68,-258,78,180,161,492,400,331,244,170
234,307,73,-270,80,190,151,497,405,346,248,185
244,312,68,-278,87,190,146,497,414,351,263,195
253,312,58,-283,97,185,136,488,419,361,278,204
258,317,58,-287,100,187,126,478,409,370,278,209
253,322,68,-287,92,195,117,463,405,375,278,219
248,317,68,-283,90,192,107,429,390,361,287,214
229,302,73,-265,78,187,102,395,366,341,283,209
219,278,58,-248,80,168,92,361,341,317,258,204
214,248,34,-231,90,141,87,326,312,292,229,190
180,224,43,-202,68,134,78,278,268,253,200,161
156,180,24,-168,65,102,63,239,234,214,165,141
126,151,24,-139,51,87,63,200,195,175,136,112
102,122,19,-112,41,70,53,165,156,141,102,82
87,92,4,-90,41,48,43,126,122,102,68,63
58,63,4,-61,26,34,39,97,92,73,43,43
39,39,0,-39,19,19,29,73,68,39,24,29
14,14,0,-14,7,7,24,53,39,9,4,9
4,-4,-9,0,7,-7,24,29,9,-9,-19,0
-9,-24,-14,17,2,-19,19,4,-9,-29,-34,-19
-24,-48,-24,36,0,-36,24,-4,-24,-43,-48,-34
-34,-58,-24,46,-4,-41,24,-14,-34,-53,-63,-53
-39,-63,-24,51,-7,-43,24,-24,-39,-63,-68,-53
-39,-68,-29,53,-4,-48,24,-29,-48,-68,-78,-58
-48,-73,-24,61,-12,-48,24,-39,-53,-73,-82,-73
-53,-78,-24,65,-14,-51,24,-43,-63,-82,-82,-78
-53,-87,-34,70,-9,-61,19,-48,-68,-82,-87,-73
-53,-92,-39,73,-7,-65,19,-53,-73,-82,-87,-73
-48,-87,-39,68,-4,-63,19,-53,-73,-92,-87,-73
-48,-87,-39,68,-4,-63,24,-53,-78,-92,-87,-68
-39,-78,-39,58,0,-58,24,-53,-78,-87,-82,-68
-29,-68,-39,48,4,-53,24,-53,-78,-87,-78,-68
-19,-68,-48,43,14,-58,19,-53,-68,-87,-82,-68
-14,-68,-53,41,19,-61,19,-58,-58,-82,-82,-68
-39,-92,-53,65,7,-73,19,-63,-73,-82,-87,-78
-63,-107,-43,85,-9,-75,19,-63,-87,-92,-92,-82
-82,-117,-34,100,-24,-75,14,-63,-87,-92,-97,-82
-92,-122,-29,107,-31,-75,9,-73,-87,-97,-102,-82
-87,-117,-29,102,-29,-73,9,-73,-87,-97,-102,-82
-82,-112,-29,97,-26,-70,9,-68,-87,-92,-102,-82
-73,-107,-34,90,-19,-70,14,-63,-82,-92,-97,-82
-63,-102,-39,82,-12,-70,14,-58,-82,-97,-97,-78
-63,-102,-39,82,-12,-70,14,-58,-78,-92,-97,-78
-68,-102,-34,85,-17,-68,19,-58,-73,-92,-97,-78
-68,-102,-34,85,-17,-68,19,-58,-73,-97,-97,-78
-68,-102,-34,85,-17,-68,19,-53,-73,-97,-97,-78
-63,-87,-24,75,-19,-56,19,-53,-73,-92,-97,-78
-63,-82,-19,73,-21,-51,19,-53,-68,-92,-97,-78
-53,-82,-29,68,-12,-56,19,-48,-68,-87,-92,-78
-48,-82,-34,65,-7,-58,24,-48,-68,-87,-92,-78
-53,-82,-29,68,-12,-56,24,-43,-68,-92,-87,-78
-53,-73,-19,63,-17,-46,24,-39,-63,-92,-82,-78
-48,-82,-34,65,-7,-58,24,-39,-63,-87,-82,-73
-43,-78,-34,61,-4,-56,24,-39,-63,-82,-82,-68
-43,-73,-29,58,-7,-51,29,-39,-63,-82,-82,-68
-39,-68,-29,53,-4,-48,29,-39,-53,-78,-78,-63
-43,-68,-24,56,-9,-46,29,-34,-53,-78,-78,-63
-43,-68,-24,56,-9,-46,29,-34,-58,-78,-78,-63
-43,-68,-24,56,-9,-46,29,-34,-58,-78,-78,-63
-43,-68,-24,56,-9,-46,29,-34,-58,-87,-78,-68
-48,-68,-19,58,-14,-43,29,-34,-58,-87,-78,-68
-53,-68,-14,61,-19,-41,29,-34,-58,-82,-78,-68
-53,-63,-9,58,-21,-36,29,-29,-63,-82,-82,-68
-53,-63,-9,58,-21,-36,29,-29,-63,-82,-82,-68
-53,-63,-9,58,-21,-36,24,-29,-63,-82,-73,-63
-53,-63,-9,58,-21,-36,24,-29,-63,-82,-73,-63
-58,-68,-9,63,-24,-39,24,-29,-68,-82,-73,-63
-63,-73,-9,68,-26,-41,24,-29,-68,-82,-73,-63
-63,-73,-9,68,-26,-41,24,-34,-68,-82,-78,-63
-63,-78,-14,70,-24,-46,19,-34,-68,-82,-82,-63
-58,-73,-14,65,-21,-43,19,-34,-68,-82,-82,-63
-53,-73,-19,63,-17,-46,19,-34,-68,-87,-82,-63
-53,-73,-19,63,-17,-46,19,-34,-68,-87,-78,-63
-53,-73,-19,63,-17,-46,19,-34,-73,-82,-78,-63
-58,-78,-19,68,-19,-48,19,-39,-73,-82,-78,-63
-58,-82,-24,70,-17,-53,19,-39,-73,-87,-78,-63
-53,-82,-29,68,-12,-56,14,-39,-68,-87,-78,-63
-53,-82,-29,68,-12,-56,14,-39,-68,-87,-82,-63
-53,-82,-29,68,-12,-56,19,-39,-68,-87,-82,-63
-53,-82,-29,68,-12,-56,24,-39,-68,-82,-82,-63
-53,-82,-29,68,-12,-56,24,-43,-68,-78,-78,-63
-53,-82,-29,68,-12,-56,24,-43,-68,-78,-78,-63
-53,-82,-29,68,-12,-56,19,-48,-78,-82,-82,-63
-53,-87,-34,70,-9,-61,14,-53,-78,-87,-87,-63
-58,-92,-34,75,-12,-63,14,-58,-78,-87,-87,-68
-58,-92,-34,75,-12,-63,9,-58,-78,-87,-82,-73
-58,-92,-34,75,-12,-63,9,-58,-78,-87,-82,-73
-53,-87,-34,70,-9,-61,9,-58,-73,-87,-82,-73
-53,-82,-29,68,-12,-56,9,-58,-73,-92,-87,-73
-53,-82,-29,68,-12,-56,9,-58,-78,-97,-92,-73
-53,-82,-29,68,-12,-56,9,-63,-82,-97,-92,-73
-53,-82,-29,68,-12,-56,9,-63,-87,-102,-92,-73
-63,-92,-29,78,-17,-61,9,-63,-87,-102,-92,-73
-73,-102,-29,87,-21,-65,9,-63,-82,-102,-92,-73
-73,-102,-29,87,-21,-65,4,-63,-87,-107,-97,-78
-63,-97,-34,80,-14,-65,4,-63,-87,-107,-102,-78
-58,-92,-34,75,-12,-63,4,-58,-87,-102,-97,-78
-58,-92,-34,75,-12,-63,9,-63,-87,-102,-92,-78
-63,-102,-39,82,-12,-70,4,-58,-87,-97,-92,-78
-63,-92,-29,78,-17,-61,4,-53,-87,-87,-97,-73
-58,-87,-29,73,-14,-58,4,-53,-87,-87,-92,-73
-58,-87,-29,73,-14,-58,9,-58,-87,-87,-87,-78
-48,-78,-29,63,-9,-53,19,-48,-78,-87,-87,-68
-39,-68,-29,53,-4,-48,29,-39,-68,-87,-87,-58
-34,-48,-14,41,-9,-31,43,-24,-53,-78,-78,-48
-29,-29,0,29,-14,-14,53,-9,-39,-68,-68,-39
-29,-14,14,21,-21,0,68,0,-29,-58,-63,-34
-29,0,29,14,-29,14,78,0,-29,-53,-58,-34
-34,-14,19,24,-26,2,82,4,-24,-53,-58,-34
-34,-19,14,26,-24,-2,82,4,-24,-43,-53,-24
-9,34,43,-12,-26,39,82,14,0,-29,-24,0
19,92,73,-56,-26,82,73,24,29,4,4,29
29,112,82,-70,-26,97,48,24,39,19,14,39
39,102,63,-70,-12,82,29,19,39,29,24,43
58,87,29,-73,14,58,9,14,29,14,14,29
53,63,9,-58,21,36,0,9,14,0,4,24
43,58,14,-51,14,36,4,4,4,-4,-4,19
24,53,29,-39,-2,41,4,-4,0,-4,-9,14
19,29,9,-24,4,19,4,-14,-9,-14,-9,9
14,0,-14,-7,14,-7,-4,-24,-34,-39,-19,4
19,-19,-39,0,29,-29,-9,-29,-43,-48,-34,0
19,-24,-43,2,31,-34,-14,-34,-53,-53,-43,-4
4,-29,-34,12,19,-31,-14,-43,-63,-68,-48,-14
-24,-39,-14,31,-4,-26,-14,-53,-73,-82,-58,-24
-53,-73,-19,63,-17,-46,-9,-73,-97,-102,-82,-43
-63,-87,-24,75,-19,-56,-4,-78,-107,-112,-97,-63
-73,-112,-39,92,-17,-75,-4,-78,-107,-122,-107,-78
-78,-122,-43,100,-17,-82,-4,-82,-112,-126,-112,-87
-82,-131,-48,107,-17,-90,-9,-87,-112,-136,-122,-87
-87,-136,-48,112,-19,-92,-14,-92,-117,-141,-126,-92
-92,-141,-48,117,-21,-95,-14,-92,-117,-141,-126,-92
-97,-151,-53,124,-21,-102,-9,-92,-122,-146,-131,-97
-102,-151,-48,126,-26,-100,-9,-92,-122,-146,-131,-97
-97,-146,-48,122,-24,-97,-9,-92,-122,-146,-136,-102
-97,-146,-48,122,-24,-97,-9,-92,-122,-151,-136,-102
-102,-151,-48,126,-26,-100,-4,-92,-122,-151,-141,-107
-97,-151,-53,124,-21,-102,-4,-87,-122,-151,-141,-107
-92,-156,-63,124,-14,-109,0,-82,-122,-151,-141,-107
-92,-156,-63,124,-14,-109,0,-78,-122,-146,-141,-107
-92,-151,-58,122,-17,-104,-4,-78,-122,-141,-141,-107
-92,-151,-58,122,-17,-104,-4,-78,-122,-146,-146,-112
-92,-151,-58,122,-17,-104,-4,-82,-122,-146,-146,-112
-97,-151,-53,124,-21,-102,0,-87,-122,-146,-141,-112
-102,-156,-53,129,-24,-104,0,-87,-122,-146,-141,-112
-102,-156,-53,129,-24,-104,4,-87,-122,-146,-141,-107
-102,-165,-63,134,-19,-114,9,-82,-122,-151,-141,-112
-107,-185,-78,146,-14,-131,14,-82,-126,-161,-151,-122
-107,-204,-97,156,-4,-151,14,-63,-131,-170,-161,-136
-102,-239,-136,170,17,-187,39,-19,-136,-190,-195,-175
-48,-234,-185,141,68,-209,9,0,-131,-190,-204,-185
-4,-190,-185,97,90,-187,0,39,-78,-136,-170,-170
78,-112,-190,17,134,-151,-82,-9,-43,-43,-87,-102
244,19,-224,-131,234,-102,-361,-244,-107,19,29,34
468,273,-195,-370,331,39,-717,-517,-107,214,278,292
736,678,-58,-707,397,309,-1190,-839,14,561,673,683
878,966,87,-922,395,527,-1434,-990,175,878,1005,1005
858,1005,146,-932,356,575,-1464,-995,268,1122,1249,1234
800,1024,224,-912,287,624,-1400,-917,336,1249,1390,1376
673,678,4,-675,334,341,-1151,-732,73,810,1073,1176
400,409,9,-405,195,209,-912,-761,-214,370,702,897
14,219,204,-117,-95,212,-570,-736,-366,-48,263,483
-136,82,219,26,-178,151,-370,-614,-366,-200,39,224
-141,-48,92,95,-117,21,-253,-478,-322,-219,-68,39
-136,-141,-4,139,-65,-73,-151,-341,-263,-209,-122,-73
-102,-161,-58,131,-21,-109,-107,-224,-209,-190,-131,-87
-82,-180,-97,131,7,-139,-63,-141,-175,-175,-141,-102
-87,-170,-82,129,-2,-126,-14,-107,-151,-161,-126,-107
-92,-161,-68,126,-12,-114,34,-68,-117,-141,-122,-107
-97,-141,-43,119,-26,-92,43,-24,-92,-131,-122,-102
-97,-122,-24,109,-36,-73,48,0,-82,-126,-117,-102
-92,-122,-29,107,-31,-75,63,0,-82,-122,-117,-107
-92,-122,-29,107,-31,-75,78,9,-73,-112,-117,-107
-92,-122,-29,107,-31,-75,82,19,-63,-112,-117,-107
-92,-122,-29,107,-31,-75,82,24,-63,-112,-117,-112
-92,-117,-24,104,-34,-70,82,29,-58,-107,-117,-112
-87,-117,-29,102,-29,-73,87,29,-53,-107,-117,-107
-87,-117,-29,102,-29,-73,87,39,-53,-97,-117,-107
-87,-112,-24,100,-31,-68,87,43,-48,-97,-117,-107
-87,-107,-19,97,-34,-63,87,48,-43,-97,-112,-102
-87,-107,-19,97,-34,-63,92,58,-39,-92,-107,-102
-78,-97,-19,87,-29,-58,92,63,-34,-87,-107,-97
-78,-92,-14,85,-31,-53,92,68,-29,-87,-102,-97
-68,-87,-19,78,-24,-53,92,73,-24,-82,-97,-97
-68,-87,-19,78,-24,-53,92,73,-24,-82,-97,-92
-68,-78,-9,73,-29,-43,97,78,-19,-73,-92,-87
-63,-73,-9,68,-26,-41,102,92,-14,-68,-87,-87
-58,-73,-14,65,-21,-43,102,97,0,-63,-82,-87
-58,-68,-9,63,-24,-39,102,97,4,-58,-78,-78
-58,-63,-4,61,-26,-34,102,97,19,-53,-73,-78
-53,-58,-4,56,-24,-31,102,102,19,-43,-73,-78
-53,-58,-4,56,-24,-31,107,112,24,-39,-73,-78
-48,-43,4,46,-26,-19,117,117,34,-29,-58,-68
-48,-43,4,46,-26,-19,122,126,43,-29,-53,-58
-39,-34,4,36,-21,-14,122,131,53,-19,-53,-58
-29,-34,-4,31,-12,-19,122,146,63,-9,-43,-53
-29,-29,0,29,-14,-14,122,151,68,-4,-39,-43
-24,-24,0,24,-12,-12,126,161,73,4,-34,-34
-19,-19,0,19,-9,-9,131,165,78,14,-29,-34
-14,-4,9,9,-12,2,131,175,87,29,-19,-34
0,0,0,0,0,0,126,190,97,39,-9,-29
9,14,4,-12,2,9,131,209,117,53,0,-19
19,19,0,-19,9,9,136,219,122,58,9,-14
29,43,14,-36,7,29,136,234,136,78,14,-9
43,53,9,-48,17,31,141,253,151,87,24,0
53,63,9,-58,21,36,151,273,170,102,29,9
68,82,14,-75,26,48,161,297,185,117,43,19
63,87,24,-75,19,56,161,302,195,131,53,34
63,97,34,-80,14,65,165,322,209,146,63,43
82,107,24,-95,29,65,165,336,229,161,78,48
92,122,29,-107,31,75,165,356,244,180,92,53
112,141,29,-126,41,85,170,370,268,200,122,73
122,156,34,-139,43,95,170,385,292,224,141,82
146,185,39,-165,53,112,170,409,307,244,151,97
161,200,39,-180,61,119,165,424,322,258,170,112
180,219,39,-200,70,129,165,439,331,278,190,126
195,234,39,-214,78,136,161,448,351,292,200,136
200,244,43,-222,78,143,165,458,361,307,214,146
209,263,53,-236,78,158,161,468,370,322,229,161
229,278,48,-253,90,163,151,473,385,336,244,170
244,297,53,-270,95,175,141,478,395,346,248,185
253,312,58,-283,97,185,136,478,400,351,258,195
263,322,58,-292,102,190,126,468,400,361,268,204
263,322,58,-292,102,190,117,458,395,370,273,209
253,322,68,-287,92,195,107,444,395,375,278,219
248,317,68,-283,90,192,92,414,380,361,278,214
229,302,73,-265,78,187,82,385,356,341,263,209
214,278,63,-246,75,170,73,351,331,312,244,200
204,248,43,-226,80,146,68,317,302,283,219,180
175,234,58,-204,58,146,63,273,258,248,195,156
156,200,43,-178,56,122,53,239,224,214,165,141
126,170,43,-148,41,107,53,195,190,175,136,112
102,141,39,-122,31,90,43,156,156,141,102,82
87,112,24,-100,31,68,39,122,122,102,68,63
58,82,24,-70,17,53,39,97,92,73,43,43
43,53,9,-48,17,31,29,68,63,43,24,29
24,24,0,-24,12,12,24,43,29,19,4,9
9,4,-4,-7,7,0,24,24,4,0,-24,0
-9,-14,-4,12,-2,-9,19,4,-9,-19,-43,-19
-24,-43,-19,34,-2,-31,19,-9,-29,-43,-58,-34
-34,-58,-24,46,-4,-41,14,-24,-43,-63,-73,-53
-39,-63,-24,51,-7,-43,14,-34,-48,-73,-78,-58
-39,-68,-29,53,-4,-48,14,-39,-58,-78,-87,-68
-53,-78,-24,65,-14,-51,14,-48,-63,-87,-92,-78
-63,-87,-24,75,-19,-56,14,-53,-73,-102,-92,-78
-63,-92,-29,78,-17,-61,9,-53,-73,-92,-97,-73
-63,-92,-29,78,-17,-61,9,-53,-73,-82,-97,-73
-58,-87,-29,73,-14,-58,9,-53,-73,-92,-97,-78
-58,-87,-29,73,-14,-58,14,-53,-78,-92,-97,-78
-63,-92,-29,78,-17,-61,14,-53,-82,-92,-97,-78
-68,-97,-29,82,-19,-63,14,-53,-87,-97,-97,-78
-68,-97,-29,82,-19,-63,9,-53,-87,-97,-102,-78
-73,-97,-24,85,-24,-61,9,-58,-87,-92,-102,-78
-68,-97,-29,82,-19,-63,9,-63,-87,-92,-102,-82
-63,-87,-24,75,-19,-56,9,-63,-87,-102,-102,-82
-73,-92,-19,82,-26,-56,9,-53,-87,-97,-97,-78
-73,-92,-19,82,-26,-56,9,-53,-87,-97,-92,-73
-68,-87,-19,78,-24,-53,9,-53,-82,-97,-92,-73
-63,-82,-19,73,-21,-51,9,-48,-78,-92,-92,-73
-63,-82,-19,73,-21,-51,14,-48,-73,-92,-92,-78
-63,-82,-19,73,-21,-51,14,-48,-73,-97,-97,-78
-63,-82,-19,73,-21,-51,14,-48,-73,-92,-97,-78
-68,-82,-14,75,-26,-48,19,-48,-73,-92,-97,-78
-68,-82,-14,75,-26,-48,19,-48,-73,-97,-97,-73
-68,-82,-14,75,-26,-48,19,-43,-73,-97,-97,-68
-63,-73,-9,68,-26,-41,19,-43,-73,-92,-97,-68
-63,-73,-9,68,-26,-41,19,-43,-68,-92,-97,-68
-58,-73,-14,65,-21,-43,19,-39,-68,-87,-92,-68
-58,-73,-14,65,-21,-43,24,-39,-68,-87,-92,-68
-63,-73,-9,68,-26,-41,24,-39,-68,-92,-92,-73
-63,-63,0,63,-31,-31,24,-39,-63,-92,-92,-78
-63,-78,-14,70,-24,-46,24,-39,-68,-87,-92,-78
-63,-78,-14,70,-24,-46,24,-39,-73,-82,-92,-78
-63,-73,-9,68,-26,-41,29,-34,-73,-82,-92,-78
-58,-68,-9,63,-24,-39,29,-29,-63,-78,-87,-73
-63,-73,-9,68,-26,-41,29,-29,-63,-78,-87,-73
-63,-78,-14,70,-24,-46,29,-34,-68,-78,-87,-73
-63,-78,-14,70,-24,-46,34,-34,-63,-73,-87,-73
-63,-78,-14,70,-24,-46,39,-34,-58,-78,-87,-78
-58,-73,-14,65,-21,-43,39,-34,-58,-78,-82,-73
-53,-68,-14,61,-19,-41,39,-34,-58,-73,-78,-68
-53,-63,-9,58,-21,-36,39,-29,-58,-73,-82,-68
-53,-63,-9,58,-21,-36,39,-29,-53,-73,-82,-68
-53,-63,-9,58,-21,-36,34,-29,-53,-73,-73,-63
-53,-63,-9,58,-21,-36,34,-29,-53,-73,-73,-63
-53,-63,-9,58,-21,-36,34,-34,-58,-73,-73,-63
-53,-63,-9,58,-21,-36,34,-39,-58,-73,-73,-63
-58,-63,-4,61,-26,-34,34,-43,-58,-73,-73,-63
-63,-68,-4,65,-29,-36,29,-43,-58,-73,-73,-63
-63,-68,-4,65,-29,-36,29,-43,-58,-73,-73,-63
-63,-73,-9,68,-26,-41,29,-43,-58,-78,-73,-63
-58,-68,-9,63,-24,-39,24,-43,-58,-82,-68,-63
-53,-63,-9,58,-21,-36,19,-43,-63,-82,-68,-63
-58,-63,-4,61,-26,-34,19,-48,-63,-82,-68,-63
-58,-63,-4,61,-26,-34,19,-48,-63,-87,-68,-63
-58,-63,-4,61,-26,-34,14,-53,-63,-87,-68,-63
-63,-63,0,63,-31,-31,14,-58,-68,-87,-73,-63
-63,-63,0,63,-31,-31,14,-58,-68,-92,-78,-68
-63,-63,0,63,-31,-31,14,-58,-68,-92,-82,-73
-63,-63,0,63,-31,-31,14,-63,-68,-87,-78,-73
-63,-63,0,63,-31,-31,14,-63,-68,-87,-78,-73
-63,-63,0,63,-31,-31,14,-63,-78,-87,-78,-68
-63,-68,-4,65,-29,-36,14,-63,-78,-87,-78,-63
-68,-73,-4,70,-31,-39,19,-68,-78,-87,-78,-63
-68,-73,-4,70,-31,-39,19,-68,-78,-87,-73,-63
-68,-73,-4,70,-31,-39,19,-63,-78,-87,-73,-63
-63,-68,-4,65,-29,-36,19,-58,-73,-87,-73,-63
-63,-68,-4,65,-29,-36,19,-58,-68,-82,-73,-63
-63,-73,-9,68,-26,-41,19,-58,-68,-78,-73,-63
-63,-73,-9,68,-26,-41,19,-63,-73,-78,-73,-63
-63,-73,-9,68,-26,-41,19,-63,-78,-82,-73,-63
-63,-73,-9,68,-26,-41,19,-63,-78,-82,-73,-63
-63,-73,-9,68,-26,-41,19,-63,-73,-82,-73,-63
-63,-73,-9,68,-26,-41,14,-68,-73,-87,-73,-63
-53,-68,-14,61,-19,-41,14,-73,-68,-87,-73,-58
-53,-68,-14,61,-19,-41,14,-68,-78,-87,-73,-63
-58,-73,-14,65,-21,-43,24,-68,-82,-87,-68,-68
-58,-68,-9,63,-24,-39,29,-58,-68,-82,-68,-68
-58,-68,-9,63,-24,-39,39,-48,-58,-78,-68,-68
-58,-68,-9,63,-24,-39,39,-48,-58,-78,-68,-68
-58,-68,-9,63,-24,-39,39,-48,-58,-78,-68,-68
-53,-43,9,48,-31,-17,53,-39,-43,-68,-53,-53
-43,-19,24,31,-34,2,63,-24,-29,-58,-43,-43
-39,0,39,19,-39,19,78,-14,-19,-48,-34,-34
-29,19,48,4,-39,34,87,-9,-19,-43,-29,-34
-29,4,34,12,-31,19,92,-4,-14,-43,-29,-34
-24,0,24,12,-24,12,92,-4,-14,-34,-24,-24
0,63,63,-31,-31,63,97,9,9,-19,4,0
29,131,102,-80,-36,117,92,24,39,14,34,29
39,146,107,-92,-34,126,58,24,48,29,34,39
48,131,82,-90,-17,107,29,19,48,39,34,43
58,107,48,-82,4,78,9,14,39,24,24,29
43,73,29,-58,7,51,0,9,24,9,14,24
34,63,29,-48,2,46,4,4,14,4,9,19
14,53,39,-34,-12,46,4,-4,9,4,9,14
14,34,19,-24,-2,26,4,-14,0,-4,4,9
14,9,-4,-12,9,2,-4,-24,-24,-29,-9,4
14,-9,-24,-2,19,-17,-4,-34,-34,-39,-19,0
9,-14,-24,2,17,-19,-4,-43,-43,-43,-24,-4
-4,-24,-19,14,7,-21,-4,-53,-53,-58,-29,-19
-34,-39,-4,36,-14,-21,-4,-63,-63,-73,-39,-34
-63,-78,-14,70,-24,-46,0,-78,-87,-92,-68,-53
-73,-97,-24,85,-24,-61,4,-78,-97,-102,-87,-73
-78,-112,-34,95,-21,-73,4,-78,-97,-112,-92,-78
-78,-112,-34,95,-21,-73,4,-82,-102,-117,-92,-78
-82,-117,-34,100,-24,-75,4,-82,-102,-122,-97,-78
-87,-117,-29,102,-29,-73,4,-82,-107,-122,-97,-82
-92,-122,-29,107,-31,-75,4,-82,-107,-122,-97,-82
-97,-131,-34,114,-31,-82,9,-82,-112,-126,-102,-87
-107,-136,-29,122,-39,-82,9,-82,-112,-126,-102,-87
-107,-136,-29,122,-39,-82,9,-82,-112,-126,-107,-92
-107,-136,-29,122,-39,-82,9,-82,-112,-131,-107,-92
-112,-141,-29,126,-41,-85,14,-82,-112,-131,-112,-97
-112,-146,-34,129,-39,-90,14,-87,-117,-136,-112,-102
-112,-156,-43,134,-34,-100,19,-92,-122,-141,-112,-107
-112,-156,-43,134,-34,-100,19,-87,-122,-141,-112,-107
-112,-151,-39,131,-36,-95,14,-87,-122,-141,-112,-107
-112,-151,-39,131,-36,-95,14,-82,-117,-141,-117,-107
-112,-151,-39,131,-36,-95,14,-82,-112,-136,-117,-102
-112,-151,-39,131,-36,-95,19,-82,-112,-136,-112,-102
-112,-156,-43,134,-34,-100,19,-78,-112,-136,-112,-102
-112,-146,-34,129,-39,-90,19,-82,-112,-136,-112,-97
-112,-146,-34,129,-39,-90,19,-82,-112,-141,-112,-102
-107,-161,-53,134,-26,-107,24,-73,-112,-146,-122,-112
-97,-175,-78,136,-9,-126,24,-43,-112,-151,-131,-126
-102,-219,-117,161,7,-168,43,-9,-122,-170,-165,-165
-58,-224,-165,141,53,-195,9,0,-122,-170,-175,-175
4,-165,-170,80,87,-168,0,39,-68,-117,-136,-151
107,-73,-180,-17,143,-126,-82,-9,-34,-24,-48,-73
268,58,-209,-163,239,-75,-370,-253,-97,48,78,68
488,312,-175,-400,331,68,-736,-536,-97,253,336,331
732,697,-34,-714,383,331,-1190,-854,24,590,722,717
849,966,117,-907,366,541,-1415,-1000,185,897,1044,1034
824,1005,180,-915,322,592,-1434,-1000,268,1127,1273,1254
761,1024,263,-893,248,644,-1361,-917,326,1239,1400,1385
634,673,39,-653,297,356,-1107,-736,63,785,1073,1180
361,400,39,-380,161,219,-863,-771,-224,331,692,897
-4,219,224,-107,-114,222,-536,-736,-366,-53,273,483
-136,92,229,21,-183,161,-351,-605,-356,-170,68,224
-151,-39,112,95,-131,36,-239,-468,-312,-195,-43,48
-156,-131,24,143,-90,-53,-141,-331,-253,-190,-102,-53
-112,-141,-29,126,-41,-85,-102,-214,-195,-170,-107,-68
-82,-151,-68,117,-7,-109,-63,-131,-156,-156,-112,-82
-82,-141,-58,112,-12,-100,-14,-102,-136,-141,-97,-82
-82,-131,-48,107,-17,-90,34,-68,-107,-122,-92,-78
-87,-117,-29,102,-29,-73,43,-24,-82,-112,-92,-78
-87,-102,-14,95,-36,-58,48,0,-73,-107,-87,-82
-92,-102,-9,97,-41,-56,63,0,-73,-107,-87,-87
-102,-102,0,102,-51,-51,78,9,-63,-102,-87,-87
-92,-102,-9,97,-41,-56,82,19,-53,-102,-87,-87
-82,-102,-19,92,-31,-61,82,24,-53,-102,-87,-92
-82,-97,-14,90,-34,-56,82,29,-48,-97,-87,-92
-78,-97,-19,87,-29,-58,87,29,-43,-97,-87,-87
-78,-97,-19,87,-29,-58,87,39,-39,-87,-87,-87
-78,-92,-14,85,-31,-53,87,43,-29,-87,-87,-87
-78,-87,-9,82,-34,-48,87,48,-24,-87,-82,-78
-78,-87,-9,82,-34,-48,92,58,-19,-82,-78,-73
-68,-78,-9,73,-29,-43,92,63,-14,-78,-78,-68
-68,-73,-4,70,-31,-39,92,68,-9,-78,-73,-68
-63,-73,-9,68,-26,-41,92,73,-4,-73,-68,-73
-68,-78,-9,73,-29,-43,92,73,-4,-73,-68,-73
-68,-68,0,68,-34,-34,97,78,0,-63,-68,-68
-63,-63,0,63,-31,-31,102,92,4,-58,-68,-68
-53,-63,-9,58,-21,-36,102,97,14,-53,-63,-68
-48,-58,-9,53,-19,-34,102,97,14,-48,-58,-58
-48,-53,-4,51,-21,-29,102,97,29,-43,-48,-58
-43,-48,-4,46,-19,-26,102,102,29,-34,-43,-58
-43,-43,0,43,-21,-21,102,112,34,-29,-43,-58
-39,-24,14,31,-26,-4,107,117,43,-19,-29,-48
-39,-24,14,31,-26,-4,112,126,48,-19,-29,-39
-29,-14,14,21,-21,0,112,131,53,-9,-34,-39
-24,-14,9,19,-17,-2,112,146,63,4,-24,-39
-29,-9,19,19,-24,4,112,151,68,14,-19,-34
-24,-4,19,14,-21,7,117,165,78,24,-19,-24
-19,0,19,9,-19,9,122,175,87,34,-19,-24
-14,9,24,2,-19,17,126,185,97,39,-9,-24
0,9,9,-4,-4,9,126,200,107,39,0,-19
4,19,14,-12,-4,17,131,219,126,53,9,-9
9,19,9,-14,0,14,136,229,131,58,19,-4
19,43,24,-31,-2,34,136,244,146,78,24,0
34,53,19,-43,7,36,141,263,161,87,34,9
43,63,19,-53,12,41,146,278,180,102,43,19
58,82,24,-70,17,53,151,297,195,117,63,29
63,92,29,-78,17,61,151,307,209,136,73,43
73,107,34,-90,19,70,156,331,229,156,82,53
92,122,29,-107,31,75,156,346,248,170,97,63
102,141,39,-122,31,90,156,366,263,190,112,73
117,161,43,-139,36,102,161,380,283,209,141,92
122,175,53,-148,34,114,161,395,302,234,161,102
146,204,58,-175,43,131,161,414,317,253,170,117
161,219,58,-190,51,139,156,424,331,268,190,131
185,239,53,-212,65,146,156,439,341,287,209,146
204,253,48,-229,78,151,151,448,361,302,219,156
209,263,53,-236,78,158,151,458,370,317,234,165
219,283,63,-251,78,173,141,468,380,331,248,180
234,292,58,-263,87,175,136,473,395,346,268,190
244,307,63,-275,90,185,131,478,405,356,278,204
244,312,68,-278,87,190,126,473,409,361,287,209
244,312,68,-278,87,190,117,458,409,370,297,214
244,317,73,-280,85,195,107,453,400,370,302,219
234,322,87,-278,73,204,97,444,395,366,307,229
244,322,78,-283,82,200,87,414,380,361,307,224
239,312,73,-275,82,192,82,385,356,351,292,219
219,292,73,-256,73,183,73,351,331,322,268,209
204,268,63,-236,70,165,68,317,302,292,239,190
170,244,73,-207,48,158,63,273,258,253,214,165
146,200,53,-173,46,126,53,239,224,214,185,151
117,170,53,-143,31,112,53,200,190,175,156,122
92,141,48,-117,21,95,43,165,156,141,122,92
78,112,34,-95,21,73,39,131,122,102,87,73
48,82,34,-65,7,58,39,107,92,73,63,53
24,48,24,-36,0,36,29,78,63,43,39,34
-4,14,19,-4,-12,17,24,53,29,19,14,9
-19,-9,9,14,-14,0,24,29,9,0,-9,0
-39,-34,4,36,-21,-14,19,4,0,-19,-24,-19
-48,-53,-4,51,-21,-29,19,-4,-19,-39,-34,-29
-53,-58,-4,56,-24,-31,14,-14,-34,-53,-43,-43
-58,-63,-4,61,-26,-34,14,-24,-39,-63,-48,-43
-58,-68,-9,63,-24,-39,14,-29,-48,-68,-58,-48
-68,-73,-4,70,-31,-39,14,-39,-53,-73,-63,-63
-73,-78,-4,75,-34,-41,14,-43,-63,-82,-63,-68
-78,-87,-9,82,-34,-48,9,-48,-68,-82,-73,-68
-82,-92,-9,87,-36,-51,9,-53,-73,-82,-78,-73
-78,-87,-9,82,-34,-48,9,-53,-73,-92,-78,-78
-78,-87,-9,82,-34,-48,14,-53,-78,-92,-78,-78
-78,-87,-9,82,-34,-48,14,-53,-78,-92,-78,-73
-78,-87,-9,82,-34,-48,14,-53,-78,-97,-78,-68
-68,-82,-14,75,-26,-48,9,-53,-78,-92,-82,-68
-63,-78,-14,70,-24,-46,9,-58,-78,-82,-82,-68
-63,-78,-14,70,-24,-46,9,-63,-78,-82,-82,-73
-63,-68,-4,65,-29,-36,9,-63,-78,-92,-82,-73
-73,-82,-9,78,-31,-46,9,-58,-78,-97,-82,-73
-73,-92,-19,82,-26,-56,9,-63,-78,-107,-82,-73
-78,-92,-14,85,-31,-53,9,-63,-78,-107,-82,-73
-82,-92,-9,87,-36,-51,9,-58,-78,-102,-82,-73
-82,-92,-9,87,-36,-51,14,-58,-73,-97,-78,-73
-82,-92,-9,87,-36,-51,14,-58,-73,-97,-78,-68
-82,-92,-9,87,-36,-51,14,-58,-73,-92,-78,-68
-87,-92,-4,90,-41,-48,19,-58,-73,-92,-78,-68
-87,-97,-9,92,-39,-53,19,-58,-73,-97,-78,-68
-87,-102,-14,95,-36,-58,19,-53,-73,-97,-78,-68
-82,-92,-9,87,-36,-51,19,-48,-68,-92,-78,-68
-82,-92,-9,87,-36,-51,19,-43,-58,-92,-78,-68
-73,-92,-19,82,-26,-56,19,-39,-58,-87,-78,-73
-68,-92,-24,80,-21,-58,24,-39,-58,-87,-82,-78
-73,-92,-19,82,-26,-56,24,-39,-58,-92,-82,-78
-73,-82,-9,78,-31,-46,24,-39,-53,-92,-82,-78
-73,-92,-19,82,-26,-56,24,-34,-53,-87,-78,-78
-73,-87,-14,80,-29,-51,24,-29,-53,-82,-73,-78
-73,-82,-9,78,-31,-46,29,-24,-53,-82,-73,-78
-68,-78,-9,73,-29,-43,29,-19,-43,-78,-68,-73
-68,-82,-14,75,-26,-48,29,-19,-43,-78,-68,-73
-63,-87,-24,75,-19,-56,29,-24,-48,-78,-68,-73
-63,-87,-24,75,-19,-56,29,-24,-48,-78,-68,-73
-63,-87,-24,75,-19,-56,29,-24,-48,-87,-68,-78
-63,-87,-24,75,-19,-56,29,-24,-48,-87,-68,-78
-63,-87,-24,75,-19,-56,29,-24,-48,-82,-68,-78
-63,-82,-19,73,-21,-51,29,-19,-48,-82,-73,-78
-63,-82,-19,73,-21,-51,29,-19,-43,-82,-73,-78
-63,-82,-19,73,-21,-51,24,-24,-43,-82,-63,-73
-63,-82,-19,73,-21,-51,24,-29,-43,-82,-63,-73
-63,-92,-29,78,-17,-61,24,-29,-48,-82,-63,-73
-63,-102,-39,82,-12,-70,24,-29,-48,-82,-63,-73
-63,-92,-29,78,-17,-61,24,-34,-53,-82,-68,-73
-63,-87,-24,75,-19,-56,19,-34,-58,-82,-73,-73
-63,-87,-24,75,-19,-56,19,-34,-58,-82,-78,-73
-63,-92,-29,78,-17,-61,19,-34,-58,-87,-82,-73
-63,-92,-29,78,-17,-61,19,-34,-58,-87,-78,-73
-63,-92,-29,78,-17,-61,19,-34,-63,-82,-78,-73
-68,-92,-24,80,-21,-58,19,-39,-63,-82,-78,-73
-68,-92,-24,80,-21,-58,19,-39,-63,-87,-78,-73
-63,-92,-29,78,-17,-61,14,-39,-63,-87,-78,-73
-63,-92,-29,78,-17,-61,14,-39,-68,-87,-82,-73
-63,-92,-29,78,-17,-61,19,-43,-68,-92,-82,-73
-63,-92,-29,78,-17,-61,24,-48,-68,-92,-82,-73
-63,-92,-29,78,-17,-61,24,-53,-63,-87,-78,-73
-63,-92,-29,78,-17,-61,24,-53,-58,-87,-78,-73
-63,-92,-29,78,-17,-61,24,-53,-68,-87,-82,-73
-63,-97,-34,80,-14,-65,24,-53,-68,-87,-87,-73
-73,-102,-29,87,-21,-65,24,-58,-73,-87,-87,-78
-78,-102,-24,90,-26,-63,19,-58,-78,-87,-82,-82
-78,-102,-24,90,-26,-63,19,-58,-78,-87,-82,-82
-73,-97,-24,85,-24,-61,19,-58,-73,-87,-82,-82
-73,-97,-24,85,-24,-61,19,-58,-68,-87,-82,-82
-73,-102,-29,87,-21,-65,19,-58,-68,-87,-82,-82
-68,-102,-34,85,-17,-68,14,-58,-73,-87,-87,-82
-63,-102,-39,82,-12,-70,9,-53,-78,-92,-92,-82
-63,-102,-39,82,-12,-70,9,-53,-78,-92,-92,-82
-63,-97,-34,80,-14,-65,9,-53,-73,-92,-92,-82
-48,-92,-43,70,-2,-68,19,-43,-63,-87,-82,-73
-39,-87,-48,63,4,-68,29,-39,-58,-87,-78,-68
-39,-78,-39,58,0,-58,29,-39,-58,-87,-78,-68
-39,-68,-29,53,-4,-48,29,-39,-58,-87,-78,-68
-34,-43,-9,39,-12,-26,48,-19,-43,-73,-63,-58
-29,-24,4,26,-17,-9,63,-4,-29,-58,-53,-48
-29,-4,24,17,-26,9,78,9,-19,-48,-43,-43
-29,9,39,9,-34,24,87,9,-19,-43,-39,-43
-34,-14,19,24,-26,2,92,14,-24,-48,-53,-53
-34,-29,4,31,-19,-12,92,14,-34,-43,-63,-53
-9,39,48,-14,-29,43,87,24,0,-29,-24,-19
19,112,92,-65,-36,102,73,34,39,4,14,19
34,117,82,-75,-24,100,48,34,43,19,24,29
48,92,43,-70,2,68,29,29,39,29,34,34
63,78,14,-70,24,46,14,24,29,14,24,19
53,53,0,-53,26,26,9,19,14,0,14,14
43,43,0,-43,21,21,14,14,4,-9,0,9
24,34,9,-29,7,21,14,4,0,-14,-9,4
19,9,-9,-14,14,0,9,-4,-9,-24,-14,-9
14,-19,-34,2,24,-26,-4,-14,-34,-48,-29,-24
9,-39,-48,14,29,-43,-4,-24,-48,-58,-43,-29
0,-43,-43,21,21,-43,-4,-34,-63,-63,-53,-34
-14,-53,-39,34,12,-46,-4,-48,-73,-78,-58,-48
-43,-68,-24,56,-9,-46,-4,-63,-82,-92,-68,-63
-73,-102,-29,87,-21,-65,-4,-78,-102,-117,-92,-82
-82,-117,-34,100,-24,-75,-4,-78,-107,-131,-107,-102
-92,-141,-48,117,-21,-95,-4,-78,-112,-136,-117,-112
-97,-151,-53,124,-21,-102,-4,-82,-122,-136,-122,-117
-97,-156,-58,126,-19,-107,-4,-82,-122,-141,-126,-117
-97,-156,-58,126,-19,-107,-4,-82,-126,-141,-126,-122
-97,-151,-53,124,-21,-102,-4,-82,-126,-141,-126,-122
-97,-151,-53,124,-21,-102,0,-82,-131,-146,-131,-126
-107,-156,-48,131,-29,-102,0,-82,-131,-146,-131,-126
-107,-156,-48,131,-29,-102,0,-82,-131,-146,-136,-131
-107,-156,-48,131,-29,-102,0,-78,-126,-151,-136,-131
-112,-161,-48,136,-31,-104,4,-73,-122,-151,-141,-136
-112,-161,-48,136,-31,-104,4,-73,-122,-151,-141,-136
-112,-165,-53,139,-29,-109,9,-73,-122,-151,-141,-136
-112,-165,-53,139,-29,-109,9,-73,-122,-151,-141,-136
-112,-161,-48,136,-31,-104,4,-78,-122,-151,-141,-136
-117,-165,-48,141,-34,-107,4,-78,-126,-156,-146,-141
-122,-170,-48,146,-36,-109,4,-82,-131,-156,-146,-141
-122,-170,-48,146,-36,-109,9,-82,-131,-156,-141,-141
-122,-175,-53,148,-34,-114,9,-78,-131,-156,-141,-141
-122,-170,-48,146,-36,-109,9,-78,-131,-151,-141,-136
-122,-175,-53,148,-34,-114,9,-73,-131,-151,-141,-141
-117,-190,-73,153,-21,-131,14,-73,-131,-156,-151,-151
-107,-204,-97,156,-4,-151,14,-53,-131,-161,-161,-165
-92,-234,-141,163,24,-187,34,-14,-131,-180,-190,-204
-29,-224,-195,126,82,-209,0,0,-122,-180,-195,-214
24,-165,-190,70,107,-178,-24,19,-82,-126,-151,-175
117,-73,-190,-21,153,-131,-122,-48,-63,-34,-58,-82
297,68,-229,-183,263,-80,-419,-302,-117,43,78,73
536,331,-204,-434,370,63,-795,-595,-107,253,346,351
751,702,-48,-727,400,326,-1215,-883,14,585,732,732
839,956,117,-897,361,536,-1405,-1000,175,888,1054,1044
805,966,161,-885,322,563,-1405,-990,244,1083,1249,1234
732,956,224,-844,253,590,-1312,-897,287,1161,1342,1337
570,605,34,-588,268,319,-1054,-741,14,692,995,1102
263,331,68,-297,97,200,-805,-800,-283,224,595,790
-63,165,229,-51,-146,197,-492,-732,-390,-117,204,405
-156,53,209,51,-183,131,-322,-566,-346,-190,29,175
-156,-68,87,112,-122,9,-219,-439,-302,-204,-68,9
-146,-151,-4,148,-70,-78,-131,-312,-244,-190,-112,-82
-112,-161,-48,136,-31,-104,-92,-200,-195,-170,-117,-97
-92,-170,-78,131,-7,-124,-53,-122,-165,-156,-122,-112
-97,-161,-63,129,-17,-112,-4,-92,-146,-141,-107,-112
-102,-151,-48,126,-26,-100,43,-58,-117,-122,-102,-107
-107,-136,-29,122,-39,-82,53,-14,-87,-112,-107,-102
-107,-122,-14,114,-46,-68,58,9,-73,-107,-107,-102
-92,-117,-24,104,-34,-70,73,9,-73,-107,-107,-107
-82,-112,-29,97,-26,-70,87,19,-63,-102,-107,-107
-82,-112,-29,97,-26,-70,92,29,-48,-102,-107,-107
-82,-112,-29,97,-26,-70,92,34,-43,-102,-107,-112
-87,-107,-19,97,-34,-63,92,39,-39,-97,-107,-112
-87,-107,-19,97,-34,-63,97,39,-34,-97,-107,-107
-87,-112,-24,100,-31,-68,97,48,-39,-92,-107,-112
-87,-112,-24,100,-31,-68,97,53,-39,-97,-107,-117
-87,-107,-19,97,-34,-63,97,53,-34,-97,-102,-112
-87,-107,-19,97,-34,-63,102,58,-29,-92,-97,-112
-78,-97,-19,87,-29,-58,107,63,-24,-82,-97,-102
-78,-92,-14,85,-31,-53,112,68,-19,-78,-92,-97
-68,-82,-14,75,-26,-48,112,73,-9,-73,-87,-97
-68,-78,-9,73,-29,-43,112,73,-4,-73,-87,-92
-68,-68,0,68,-34,-34,112,78,0,-63,-82,-87
-63,-63,0,63,-31,-31,112,92,4,-58,-78,-87
-58,-63,-4,61,-26,-34,112,97,14,-53,-73,-87
-58,-58,0,58,-29,-29,112,97,14,-48,-68,-78
-58,-53,4,56,-31,-24,112,102,29,-43,-63,-78
-53,-48,4,51,-29,-21,112,112,29,-34,-63,-78
-53,-48,4,51,-29,-21,112,122,29,-29,-63,-78
-48,-34,14,41,-31,-9,117,126,34,-19,-48,-68
-58,-34,24,46,-41,-4,122,136,43,-19,-43,-58
-58,-24,34,41,-46,4,122,141,53,-9,-43,-58
-39,-19,19,29,-29,0,122,156,63,0,-34,-58
-29,-9,19,19,-24,4,122,161,68,4,-29,-53
-24,-4,19,14,-21,7,126,170,73,14,-24,-43
-19,0,19,9,-19,9,131,175,78,24,-19,-43
-14,14,29,0,-21,21,136,185,87,34,-9,-39
0,19,19,-9,-9,19,136,200,97,39,0,-29
4,29,24,-17,-9,26,136,219,117,53,9,-19
9,29,19,-19,-4,24,136,229,122,58,19,-14
19,53,34,-36,-7,43,136,244,136,73,24,-9
34,63,29,-48,2,46,141,263,151,78,34,0
48,78,29,-63,9,53,146,278,170,92,43,4
68,102,34,-85,17,68,151,297,185,107,63,9
73,112,39,-92,17,75,151,307,200,126,73,24
82,126,43,-104,19,85,156,331,219,146,82,34
102,141,39,-122,31,90,156,346,239,161,97,48
112,161,48,-136,31,104,156,366,253,180,112,63
131,180,48,-156,41,114,161,380,273,200,141,82
141,195,53,-168,43,124,161,395,292,224,161,92
165,224,58,-195,53,141,161,414,307,244,170,107
180,239,58,-209,61,148,156,424,322,258,190,122
200,258,58,-229,70,158,156,439,331,278,209,141
214,273,58,-244,78,165,151,448,351,292,219,156
219,283,63,-251,78,173,151,458,361,307,234,165
229,302,73,-265,78,187,141,468,370,322,248,180
239,312,73,-275,82,192,131,468,380,336,263,190
244,326,82,-285,80,204,122,468,385,346,268,204
248,331,82,-290,82,207,122,473,390,351,278,209
253,331,78,-292,87,204,117,468,390,361,287,214
258,336,78,-297,90,207,107,453,380,366,292,219
253,341,87,-297,82,214,97,434,375,366,297,229
253,336,82,-295,85,209,87,405,361,351,292,219
239,322,82,-280,78,202,82,375,336,331,273,209
219,297,78,-258,70,187,73,341,312,302,248,200
204,268,63,-236,70,165,68,307,283,273,219,180
170,244,73,-207,48,158,63,263,239,234,195,146
146,200,53,-173,46,126,53,229,204,195,165,122
117,165,48,-141,34,107,53,190,170,156,136,92
92,131,39,-112,26,85,43,156,136,122,102,63
78,102,24,-90,26,63,39,117,102,82,68,43
48,73,24,-61,12,48,39,87,73,53,43,24
34,43,9,-39,12,26,34,63,48,24,24,9
14,14,0,-14,7,7,34,43,19,0,4,-9
0,-4,-4,2,2,-4,34,24,0,-19,-19,-19
-19,-24,-4,21,-7,-14,29,4,-9,-39,-34,-39
-29,-43,-14,36,-7,-29,29,-4,-29,-53,-43,-48
-34,-48,-14,41,-9,-31,24,-14,-43,-63,-53,-63
-39,-63,-24,51,-7,-43,24,-24,-48,-78,-58,-63
-39,-78,-39,58,0,-58,24,-29,-58,-87,-68,-68
-48,-82,-34,65,-7,-58,24,-39,-63,-87,-73,-78
-53,-87,-34,70,-9,-61,24,-43,-73,-92,-73,-78
-53,-92,-39,73,-7,-65,19,-43,-68,-92,-82,-73
-53,-92,-39,73,-7,-65,19,-43,-63,-92,-87,-73
-53,-87,-34,70,-9,-61,19,-48,-63,-102,-87,-82
-58,-87,-29,73,-14,-58,24,-53,-68,-102,-87,-87
-58,-87,-29,73,-14,-58,24,-53,-68,-102,-87,-87
-58,-87,-29,73,-14,-58,24,-53,-68,-107,-87,-87
-58,-87,-29,73,-14,-58,19,-53,-73,-107,-92,-87
-63,-87,-24,75,-19,-56,19,-58,-78,-102,-92,-87
-63,-97,-34,80,-14,-65,19,-63,-78,-102,-92,-92
-63,-97,-34,80,-14,-65,19,-63,-78,-112,-92,-92
-68,-97,-29,82,-19,-63,19,-53,-78,-107,-92,-87
-63,-92,-29,78,-17,-61,19,-53,-78,-107,-92,-82
-58,-87,-29,73,-14,-58,19,-53,-78,-107,-92,-82
-53,-82,-29,68,-12,-56,19,-48,-78,-102,-92,-82
-58,-82,-24,70,-17,-53,24,-48,-73,-97,-87,-82
-63,-82,-19,73,-21,-51,24,-48,-73,-97,-87,-78
-68,-92,-24,80,-21,-58,24,-48,-73,-92,-87,-82
-78,-102,-24,90,-26,-63,29,-48,-73,-92,-87,-87
-78,-102,-24,90,-26,-63,29,-48,-73,-97,-87,-87
-78,-102,-24,90,-26,-63,29,-43,-73,-97,-87,-87
-68,-87,-19,78,-24,-53,29,-43,-73,-97,-87,-87
-63,-82,-19,73,-21,-51,29,-43,-68,-102,-87,-87
-58,-82,-24,70,-17,-53,29,-39,-68,-97,-82,-87
-58,-82,-24,70,-17,-53,34,-39,-68,-97,-82,-87
-63,-82,-19,73,-21,-51,34,-39,-68,-102,-82,-87
-63,-73,-9,68,-26,-41,34,-39,-63,-102,-82,-87
-68,-92,-24,80,-21,-58,29,-39,-63,-102,-87,-87
-73,-97,-24,85,-24,-61,24,-39,-63,-102,-92,-87
-73,-92,-19,82,-26,-56,29,-34,-63,-102,-92,-87
-68,-87,-19,78,-24,-53,29,-29,-53,-97,-87,-82
-63,-82,-19,73,-21,-51,29,-24,-53,-92,-82,-82
-53,-78,-24,65,-14,-51,29,-24,-58,-87,-78,-82
-53,-78,-24,65,-14,-51,34,-24,-58,-87,-78,-82
-53,-78,-24,65,-14,-51,39,-24,-58,-97,-78,-87
-53,-82,-29,68,-12,-56,39,-29,-58,-97,-78,-87
-53,-87,-34,70,-9,-61,39,-34,-58,-92,-78,-87
-53,-82,-29,68,-12,-56,39,-29,-63,-92,-87,-87
-53,-82,-29,68,-12,-56,39,-29,-63,-92,-92,-87
-53,-82,-29,68,-12,-56,34,-29,-63,-92,-82,-82
-53,-82,-29,68,-12,-56,34,-29,-63,-92,-82,-82
-53,-82,-29,68,-12,-56,34,-29,-63,-92,-82,-87
-53,-82,-29,68,-12,-56,34,-29,-58,-92,-82,-92
-53,-82,-29,68,-12,-56,34,-34,-58,-92,-87,-92
-53,-87,-34,70,-9,-61,29,-34,-58,-92,-92,-92
-53,-87,-34,70,-9,-61,29,-34,-58,-92,-92,-92
-53,-92,-39,73,-7,-65,29,-34,-58,-97,-92,-92
-58,-92,-34,75,-12,-63,29,-34,-58,-97,-87,-92
-63,-92,-29,78,-17,-61,29,-34,-63,-92,-87,-92
-68,-92,-24,80,-21,-58,29,-39,-63,-92,-87,-92
-68,-92,-24,80,-21,-58,29,-39,-63,-97,-87,-92
-63,-92,-29,78,-17,-61,24,-39,-63,-97,-87,-92
-63,-92,-29,78,-17,-61,24,-39,-68,-97,-92,-92
-63,-92,-29,78,-17,-61,24,-39,-68,-102,-92,-92
-63,-92,-29,78,-17,-61,24,-39,-68,-102,-92,-92
-63,-92,-29,78,-17,-61,24,-43,-68,-97,-87,-92
-63,-92,-29,78,-17,-61,24,-43,-68,-97,-87,-92
-63,-92,-29,78,-17,-61,24,-43,-78,-102,-92,-92
-63,-97,-34,80,-14,-65,24,-43,-78,-107,-97,-92
-68,-102,-34,85,-17,-68,24,-48,-78,-107,-97,-92
-68,-102,-34,85,-17,-68,19,-48,-78,-107,-92,-92
-68,-107,-39,87,-14,-73,19,-48,-78,-107,-92,-92
-63,-107,-43,85,-9,-75,19,-48,-73,-107,-92,-92
-63,-107,-43,85,-9,-75,19,-48,-68,-107,-97,-97
-63,-112,-48,87,-7,-80,19,-48,-68,-107,-102,-102
-63,-112,-48,87,-7,-80,14,-53,-73,-107,-102,-102
-63,-112,-48,87,-7,-80,9,-53,-78,-112,-102,-102
-58,-102,-43,80,-7,-73,14,-48,-78,-107,-97,-97
-58,-97,-39,78,-9,-68,19,-48,-78,-107,-97,-97
-48,-78,-29,63,-9,-53,34,-34,-63,-97,-87,-87
-39,-58,-19,48,-9,-39,48,-19,-48,-87,-78,-78
-34,-43,-9,39,-12,-26,58,-9,-39,-82,-73,-73
-29,-34,-4,31,-12,-19,68,0,-29,-73,-68,-68
-29,-24,4,26,-17,-9,78,9,-19,-68,-63,-63
-29,-19,9,24,-19,-4,87,9,-19,-63,-58,-63
-29,-19,9,24,-19,-4,92,14,-14,-63,-58,-63
-24,-9,14,17,-19,2,92,14,-14,-53,-53,-53
0,53,53,-26,-26,53,97,24,14,-29,-14,-19
29,122,92,-75,-31,107,92,34,48,14,24,19
43,126,82,-85,-19,104,58,34,48,19,24,24
58,102,43,-80,7,73,29,29,39,19,24,24
78,87,9,-82,34,48,14,24,29,4,14,9
73,63,-9,-68,41,26,9,19,14,-9,4,4
53,43,-9,-48,31,17,14,14,4,-19,-4,-4
24,24,0,-24,12,12,14,4,0,-24,-9,-14
19,0,-19,-9,19,-9,9,-4,-14,-34,-14,-24
14,-29,-43,7,29,-36,-4,-14,-43,-58,-29,-34
9,-48,-58,19,34,-53,-9,-29,-53,-68,-48,-39
0,-53,-53,26,26,-53,-14,-43,-63,-73,-63,-43
-14,-58,-43,36,14,-51,-14,-53,-68,-82,-68,-58
-43,-68,-24,56,-9,-46,-14,-63,-73,-92,-78,-73
-73,-102,-29,87,-21,-65,-9,-78,-92,-112,-97,-92
-82,-117,-34,100,-24,-75,-4,-78,-97,-122,-107,-112
-87,-131,-43,109,-21,-87,-4,-78,-97,-126,-112,-117
-87,-131,-43,109,-21,-87,-4,-82,-102,-126,-112,-117
-87,-136,-48,112,-19,-92,-4,-82,-102,-131,-117,-117
-87,-136,-48,112,-19,-92,-4,-82,-107,-131,-117,-122
-92,-141,-48,117,-21,-95,-4,-82,-107,-131,-117,-122
-97,-151,-53,124,-21,-102,0,-82,-112,-136,-122,-126
-107,-156,-48,131,-29,-102,0,-82,-112,-136,-122,-126
-107,-156,-48,131,-29,-102,0,-82,-112,-136,-126,-131
-107,-161,-53,134,-26,-107,4,-82,-107,-141,-126,-131
-112,-170,-58,141,-26,-114,14,-82,-102,-141,-131,-136
-112,-175,-63,143,-24,-119,14,-82,-102,-141,-131,-136
-112,-185,-73,148,-19,-129,19,-82,-102,-141,-131,-136
-112,-185,-73,148,-19,-129,19,-78,-102,-141,-131,-136
-112,-180,-68,146,-21,-124,14,-78,-102,-141,-131,-136
-112,-180,-68,146,-21,-124,14,-78,-102,-146,-136,-141
-112,-180,-68,146,-21,-124,14,-82,-102,-146,-136,-141
-112,-175,-63,143,-24,-119,14,-82,-102,-146,-131,-136
-112,-175,-63,143,-24,-119,9,-78,-102,-146,-131,-131
-112,-175,-63,143,-24,-119,9,-78,-107,-146,-131,-131
-112,-185,-73,148,-19,-129,9,-73,-112,-151,-131,-141
-112,-204,-92,158,-9,-148,19,-63,-112,-156,-141,-151
-107,-224,-117,165,4,-170,24,-34,-112,-161,-151,-165
-92,-253,-161,173,34,-207,48,4,-102,-165,-175,-200
-29,-244,-214,136,92,-229,19,19,-82,-151,-175,-204
34,-165,-200,65,117,-183,-19,29,-43,-97,-122,-156
136,-53,-190,-41,163,-122,-131,-48,-24,-4,-19,-53
317,126,-190,-222,253,-31,-439,-312,-68,92,141,126
556,429,-126,-492,341,151,-824,-614,-48,322,434,429
761,800,39,-780,361,419,-1229,-907,78,649,805,810
839,1054,214,-946,312,634,-1405,-1029,244,946,1112,1122
785,1024,239,-905,273,631,-1376,-1005,283,1078,1254,1259
692,976,283,-834,204,629,-1254,-897,297,1093,1293,1307
517,595,78,-556,219,336,-985,-732,24,624,922,1039
195,292,97,-244,48,195,-727,-780,-273,156,497,692
-107,131,239,-12,-173,185,-444,-722,-366,-151,136,331
-175,24,200,75,-187,112,-302,-566,-307,-190,-9,126
-175,-97,78,136,-126,-9,-204,-444,-273,-214,-97,-24
-165,-180,-14,173,-75,-97,-122,-322,-224,-209,-131,-102
-126,-180,-53,153,-36,-117,-82,-214,-175,-190,-131,-112
-102,-180,-78,141,-12,-129,-43,-141,-146,-175,-131,-122
-97,-170,-73,134,-12,-122,0,-107,-126,-156,-117,-122
-92,-161,-68,126,-12,-114,43,-68,-97,-131,-112,-117
-97,-146,-48,122,-24,-97,48,-24,-73,-117,-112,-112
-97,-131,-34,114,-31,-82,48,0,-63,-107,-107,-112
-92,-131,-39,112,-26,-85,68,0,-58,-107,-107,-117
-92,-131,-39,112,-26,-85,87,9,-43,-102,-107,-117
-87,-131,-43,109,-21,-87,92,19,-34,-102,-107,-117
-82,-131,-48,107,-17,-90,92,24,-34,-102,-107,-122
-82,-122,-39,102,-21,-80,92,29,-29,-97,-102,-117
-78,-117,-39,97,-19,-78,97,29,-24,-97,-97,-107
-78,-117,-39,97,-19,-78,97,39,-29,-87,-97,-107
-78,-112,-34,95,-21,-73,97,43,-29,-87,-97,-107
-78,-107,-29,92,-24,-68,97,43,-29,-92,-92,-102
-78,-107,-29,92,-24,-68,102,48,-29,-92,-87,-102
-68,-92,-24,80,-21,-58,102,53,-24,-87,-92,-97
-68,-82,-14,75,-26,-48,102,58,-19,-87,-92,-97
-58,-78,-19,68,-19,-48,102,63,-9,-78,-87,-97
-58,-78,-19,68,-19,-48,102,63,-4,-73,-87,-92
-58,-68,-9,63,-24,-39,102,68,0,-58,-78,-87
-53,-63,-9,58,-21,-36,102,82,4,-48,-68,-87
-48,-63,-14,56,-17,-39,102,87,9,-43,-63,-87
-48,-58,-9,53,-19,-34,102,87,4,-39,-58,-78
-53,-58,-4,56,-24,-31,102,87,19,-43,-58,-78
-53,-58,-4,56,-24,-31,102,92,19,-43,-63,-78
-53,-58,-4,56,-24,-31,97,102,24,-39,-63,-78
-48,-43,4,46,-26,-19,97,107,34,-29,-48,-68
-34,-34,0,34,-17,-17,102,117,48,-24,-39,-58
-9,-14,-4,12,-2,-9,102,122,63,-9,-34,-58
-9,-19,-9,14,0,-14,102,136,73,0,-24,-58
-19,-19,0,19,-9,-9,102,141,78,4,-19,-53
-14,-14,0,14,-7,-7,107,156,82,14,-14,-43
-9,-9,0,9,-4,-4,112,165,87,24,-9,-43
-4,4,9,0,-7,7,117,175,97,39,0,-39
9,9,0,-9,4,4,117,190,107,48,9,-29
14,19,4,-17,4,12,122,209,126,63,19,-19
19,19,0,-19,9,9,126,219,131,68,29,-14
29,43,14,-36,7,29,122,229,146,82,29,-9
43,53,9,-48,17,31,122,244,161,87,34,0
53,63,9,-58,21,36,126,258,175,102,43,9
68,82,14,-75,26,48,131,278,185,117,63,19
73,92,19,-82,26,56,131,287,200,136,73,34
82,107,24,-95,29,65,136,312,219,156,82,43
102,122,19,-112,41,70,136,326,239,170,102,53
112,141,29,-126,41,85,136,346,253,190,122,63
141,161,19,-151,61,90,136,361,273,209,151,87
161,175,14,-168,73,95,131,375,292,234,170,102
175,204,29,-190,73,117,126,390,307,253,180,117
180,219,39,-200,70,129,117,395,322,268,200,131
200,239,39,-219,80,139,117,409,331,287,219,146
214,253,39,-234,87,146,112,419,351,302,229,156
224,263,39,-244,92,151,117,429,361,322,244,165
239,283,43,-261,97,163,112,439,370,341,258,180
253,292,39,-273,107,165,102,439,380,356,273,190
263,307,43,-285,109,175,92,439,385,366,278,204
263,307,43,-285,109,175,87,434,390,370,283,209
263,302,39,-283,112,170,78,419,390,380,287,214
263,302,39,-283,112,170,73,409,380,380,287,219
253,302,48,-278,102,175,68,395,375,375,287,229
248,297,48,-273,100,173,63,366,361,361,283,214
229,283,53,-256,87,168,63,336,336,341,263,200
204,258,53,-231,75,156,53,302,307,312,239,180
185,229,43,-207,70,136,48,268,273,283,209,151
151,204,53,-178,48,129,48,229,234,244,185,131
126,161,34,-143,46,97,43,200,204,204,156,122
97,131,34,-114,31,82,48,161,170,170,126,92
73,102,29,-87,21,65,43,126,136,141,92,63
58,73,14,-65,21,43,39,92,102,102,58,43
29,43,14,-36,7,29,39,68,73,73,34,24
14,19,4,-17,4,12,34,43,48,43,14,4
-4,-4,0,4,-2,-2,34,24,19,19,-4,-19
-14,-24,-9,19,-2,-17,34,4,0,0,-29,-29
-29,-43,-14,36,-7,-29,29,-14,-9,-19,-43,-48
-39,-58,-19,48,-9,-39,29,-19,-24,-34,-48,-48
-43,-58,-14,51,-14,-36,24,-24,-34,-43,-53,-53
-48,-63,-14,56,-17,-39,19,-34,-39,-53,-58,-53
-48,-68,-19,58,-14,-43,14,-39,-48,-58,-68,-58
-63,-73,-9,68,-26,-41,14,-48,-53,-58,-78,-73
-73,-78,-4,75,-34,-41,14,-53,-63,-63,-82,-78
-73,-87,-14,80,-29,-51,9,-53,-63,-58,-87,-73
-73,-92,-19,82,-26,-56,9,-53,-63,-53,-87,-73
-68,-87,-19,78,-24,-53,14,-53,-63,-63,-82,-78
-68,-87,-19,78,-24,-53,24,-53,-68,-63,-78,-78
-68,-87,-19,78,-24,-53,24,-53,-68,-63,-78,-78
-68,-87,-19,78,-24,-53,24,-53,-68,-68,-78,-78
-68,-87,-19,78,-24,-53,19,-53,-68,-68,-82,-78
-73,-87,-14,80,-29,-51,19,-58,-68,-63,-82,-78
-68,-92,-24,80,-21,-58,19,-63,-68,-58,-82,-78
-63,-87,-24,75,-19,-56,19,-63,-68,-63,-82,-73
-73,-92,-19,82,-26,-56,19,-53,-68,-63,-82,-68
-73,-92,-19,82,-26,-56,19,-53,-68,-68,-82,-63
-68,-87,-19,78,-24,-53,19,-53,-63,-68,-82,-63
-63,-82,-19,73,-21,-51,19,-48,-58,-63,-82,-63
-63,-82,-19,73,-21,-51,24,-48,-53,-58,-78,-58
-63,-82,-19,73,-21,-51,24,-48,-53,-58,-78,-48
-63,-82,-19,73,-21,-51,24,-48,-58,-53,-78,-48
-68,-82,-14,75,-26,-48,29,-48,-63,-53,-78,-48
-68,-82,-14,75,-26,-48,29,-48,-63,-58,-78,-53
-68,-82,-14,75,-26,-48,29,-43,-63,-58,-78,-58
-63,-68,-4,65,-29,-36,29,-43,-63,-53,-78,-58
-63,-63,0,63,-31,-31,29,-43,-58,-53,-78,-58
-58,-63,-4,61,-26,-34,29,-39,-58,-43,-73,-58
-58,-63,-4,61,-26,-34,34,-39,-58,-39,-73,-58
-68,-68,0,68,-34,-34,34,-39,-58,-43,-73,-58
-73,-63,9,68,-41,-26,34,-39,-53,-43,-73,-58
-73,-78,-4,75,-34,-41,34,-39,-53,-43,-73,-53
-73,-78,-4,75,-34,-41,34,-39,-53,-43,-73,-48
-73,-73,0,73,-36,-36,34,-34,-53,-43,-73,-48
-68,-68,0,68,-34,-34,29,-29,-43,-39,-68,-43
-68,-68,0,68,-34,-34,29,-24,-43,-34,-58,-39
-63,-68,-4,65,-29,-36,29,-24,-48,-29,-48,-34
-63,-68,-4,65,-29,-36,29,-24,-48,-24,-58,-34
-63,-68,-4,65,-29,-36,29,-24,-48,-29,-68,-39
-58,-63,-4,61,-26,-34,29,-24,-48,-29,-68,-39
-53,-58,-4,56,-24,-31,29,-24,-48,-24,-68,-39
-53,-53,0,53,-26,-26,29,-19,-43,-24,-68,-39
-53,-53,0,53,-26,-26,29,-19,-34,-24,-63,-39
-58,-63,-4,61,-26,-34,24,-14,-34,-24,-53,-29
-63,-73,-9,68,-26,-41,24,-9,-34,-24,-53,-24
-63,-73,-9,68,-26,-41,24,-9,-43,-29,-53,-24
-63,-73,-9,68,-26,-41,24,-9,-48,-34,-53,-24
-58,-68,-9,63,-24,-39,24,-14,-48,-34,-53,-24
-53,-68,-14,61,-19,-41,19,-14,-48,-34,-53,-24
-48,-63,-14,56,-17,-39,19,-14,-48,-19,-53,-19
-43,-63,-19,53,-12,-41,19,-14,-48,-9,-53,-14
-43,-63,-19,53,-12,-41,19,-14,-48,-19,-48,-14
-43,-63,-19,53,-12,-41,19,-14,-53,-24,-48,-14
-48,-63,-14,56,-17,-39,19,-24,-53,-24,-48,-14
-48,-63,-14,56,-17,-39,19,-29,-53,-29,-48,-14
-43,-63,-19,53,-12,-41,14,-34,-53,-29,-48,-19
-43,-63,-19,53,-12,-41,14,-39,-58,-29,-53,-24
-53,-63,-9,58,-21,-36,14,-39,-58,-34,-58,-24
-63,-63,0,63,-31,-31,14,-39,-58,-34,-63,-24
-63,-68,-4,65,-29,-36,14,-43,-58,-29,-58,-24
-63,-73,-9,68,-26,-41,14,-43,-58,-29,-58,-24
-63,-73,-9,68,-26,-41,14,-43,-68,-34,-63,-24
-63,-78,-14,70,-24,-46,14,-43,-68,-39,-68,-24
-63,-78,-14,70,-24,-46,14,-43,-68,-34,-68,-24
-58,-73,-14,65,-21,-43,9,-39,-68,-29,-63,-24
-58,-73,-14,65,-21,-43,9,-39,-73,-29,-63,-24
-53,-68,-14,61,-19,-41,9,-39,-73,-29,-63,-24
-58,-68,-9,63,-24,-39,4,-43,-68,-34,-63,-24
-63,-73,-9,68,-26,-41,0,-48,-68,-39,-63,-24
-58,-73,-14,65,-21,-43,0,-39,-73,-43,-63,-24
-58,-78,-19,68,-19,-48,4,-34,-82,-48,-63,-24
-53,-68,-14,61,-19,-41,14,-24,-68,-39,-53,-14
-48,-58,-9,53,-19,-34,29,-19,-58,-29,-48,-9
-39,-29,9,34,-24,-9,39,-14,-39,-14,-34,-4
-29,0,29,14,-29,14,48,-9,-19,0,-19,0
-29,9,39,9,-34,24,58,0,-14,4,-19,4
-24,19,43,2,-34,31,68,4,-9,9,-14,9
-19,29,48,-4,-34,39,78,9,-9,14,-9,14
-9,29,39,-9,-24,34,78,14,-4,14,-9,14
-14,39,53,-12,-34,46,73,14,-4,34,0,34
0,92,92,-46,-46,92,63,19,19,58,34,68
24,146,122,-85,-48,134,39,24,43,82,63,87
29,141,112,-85,-41,126,9,24,39,78,63,82
39,112,73,-75,-17,92,-9,19,29,78,63,82
48,97,48,-73,0,73,-19,14,19,63,53,68
34,73,39,-53,-2,56,-14,9,4,48,43,63
24,63,39,-43,-7,51,-4,4,-4,43,34,58
9,58,48,-34,-19,53,-4,-4,-9,43,29,53
9,39,29,-24,-9,34,-4,-14,-19,34,24,43
4,19,14,-12,-4,17,-14,-19,-43,9,9,39
0,9,9,-4,-4,9,-14,-24,-53,0,-4,39
-14,-9,4,12,-9,-2,-14,-34,-63,-4,-19,34
-34,-34,0,34,-17,-17,-14,-43,-73,-19,-29,19
-63,-48,14,56,-39,-17,-14,-53,-82,-34,-39,0
-87,-82,4,85,-46,-39,-14,-68,-102,-53,-63,-24
-87,-97,-9,92,-39,-53,-14,-68,-107,-63,-78,-43
-87,-112,-24,100,-31,-68,-14,-68,-107,-68,-82,-48
-87,-107,-19,97,-34,-63,-14,-73,-112,-68,-82,-48
-87,-107,-19,97,-34,-63,-14,-73,-112,-73,-87,-48
-82,-107,-24,95,-29,-65,-14,-73,-117,-78,-87,-58
-82,-112,-29,97,-26,-70,-14,-73,-117,-82,-87,-63
-82,-117,-34,100,-24,-75,-9,-73,-122,-87,-92,-68
-87,-117,-29,102,-29,-73,-9,-73,-122,-87,-92,-68
-87,-117,-29,102,-29,-73,-9,-73,-122,-87,-97,-68
-87,-117,-29,102,-29,-73,-9,-73,-122,-92,-97,-63
-97,-122,-24,109,-36,-73,-4,-73,-122,-92,-102,-68
-102,-122,-19,112,-41,-70,-4,-73,-122,-92,-102,-68
-102,-126,-24,114,-39,-75,0,-73,-122,-92,-102,-68
-102,-126,-24,114,-39,-75,0,-68,-122,-92,-102,-68
-102,-122,-19,112,-41,-70,-4,-68,-122,-92,-102,-68
-102,-122,-19,112,-41,-70,-4,-68,-122,-97,-107,-73
-102,-126,-24,114,-39,-75,-4,-73,-122,-97,-107,-78
-102,-131,-29,117,-36,-80,0,-73,-122,-97,-102,-82
-102,-136,-34,119,-34,-85,0,-68,-122,-102,-102,-82
-102,-136,-34,119,-34,-85,0,-68,-122,-107,-107,-82
-102,-146,-43,124,-29,-95,0,-58,-122,-112,-112,-92
-97,-161,-63,129,-17,-112,4,-43,-122,-117,-122,-102
-87,-165,-78,126,-4,-122,9,-14,-112,-112,-131,-117
-63,-165,-102,114,19,-134,14,9,-97,-102,-141,-136
9,-122,-131,56,70,-126,-39,9,-78,-63,-107,-112
82,-19,-102,-31,92,-61,-117,-19,-34,29,-9,-29
190,151,-39,-170,114,56,-268,-156,0,175,161,136
366,380,14,-373,175,197,-585,-429,-9,336,385,375
561,683,122,-622,219,402,-951,-712,53,610,712,692
692,980,287,-836,202,634,-1259,-922,185,917,1058,1024
727,1112,385,-919,170,749,-1332,-951,297,1127,1273,1244
649,1000,351,-824,148,675,-1244,-897,273,1151,1312,1302
531,854,322,-692,104,588,-1098,-800,200,1015,1210,1229
341,453,112,-397,114,283,-829,-673,-122,448,746,873
68,219,151,-143,-41,185,-605,-727,-375,24,346,541
-161,92,253,34,-207,173,-361,-644,-419,-214,34,209
-180,-4,175,92,-178,85,-248,-478,-346,-219,-68,48
-156,-107,48,131,-102,-29,-175,-356,-302,-219,-126,-53
-146,-170,-24,158,-61,-97,-102,-244,-239,-190,-141,-97
-112,-170,-58,141,-26,-114,-73,-156,-185,-161,-131,-92
-92,-165,-73,129,-9,-119,-34,-92,-156,-146,-126,-102
-92,-151,-58,122,-17,-104,4,-63,-136,-131,-107,-102
-87,-131,-43,109,-21,-87,43,-34,-107,-112,-102,-97
-87,-107,-19,97,-34,-63,48,-4,-82,-102,-102,-92
-87,-92,-4,90,-41,-48,48,9,-73,-97,-97,-92
-82,-92,-9,87,-36,-51,63,9,-73,-97,-97,-97
-82,-92,-9,87,-36,-51,73,19,-68,-92,-92,-92
-82,-92,-9,87,-36,-51,73,29,-63,-92,-87,-87
-73,-92,-19,82,-26,-56,73,34,-63,-92,-87,-92
-63,-87,-24,75,-19,-56,73,39,-58,-87,-87,-92
-68,-87,-19,78,-24,-53,78,39,-53,-87,-87,-87
-78,-87,-9,82,-34,-48,78,48,-53,-78,-87,-87
-78,-82,-4,80,-36,-43,78,53,-48,-78,-87,-87
-78,-78,0,78,-39,-39,78,53,-43,-78,-82,-82
-78,-78,0,78,-39,-39,82,58,-39,-73,-78,-82
-68,-68,0,68,-34,-34,82,63,-34,-68,-78,-78
-68,-63,4,65,-36,-29,82,68,-24,-68,-73,-78
-58,-58,0,58,-29,-29,82,73,-14,-63,-68,-78
-58,-58,0,58,-29,-29,82,73,-14,-63,-68,-73
-58,-48,9,53,-34,-19,87,78,-9,-53,-63,-68
-53,-48,4,51,-29,-21,92,87,-4,-53,-63,-68
-48,-53,-4,51,-21,-29,92,87,4,-53,-63,-68
-48,-48,0,48,-24,-24,92,87,4,-48,-58,-58
-48,-43,4,46,-26,-19,92,92,19,-43,-53,-58
-43,-34,9,39,-26,-12,92,102,19,-29,-53,-58
-43,-29,14,36,-29,-7,92,112,24,-19,-53,-58
-39,-14,24,26,-31,4,92,117,29,-9,-34,-48
-39,-14,24,26,-31,4,92,126,34,-9,-24,-39
-29,-4,24,17,-26,9,92,131,43,0,-24,-39
-19,0,19,9,-19,9,92,146,53,9,-14,-39
-19,9,29,4,-24,19,92,151,63,14,-9,-34
-14,14,29,0,-21,21,97,165,78,24,-4,-24
0,19,19,-9,-9,19,102,175,87,34,4,-24
14,34,19,-24,-2,26,107,185,97,43,19,-19
19,39,19,-29,0,29,107,195,107,48,29,-9
14,48,34,-31,-9,41,112,209,126,63,39,0
19,39,19,-29,0,29,112,219,131,68,48,4
29,53,24,-41,2,39,107,234,146,87,53,9
43,73,29,-58,7,51,112,253,161,102,63,19
53,92,39,-73,7,65,117,273,180,122,73,29
73,117,43,-95,14,80,122,297,195,141,92,39
82,131,48,-107,17,90,122,307,209,165,102,53
92,146,53,-119,19,100,126,326,229,185,112,63
112,161,48,-136,31,104,126,336,248,200,126,73
122,180,58,-151,31,119,117,351,263,219,141,82
141,200,58,-170,41,129,112,361,283,239,170,102
151,214,63,-183,43,139,112,375,307,263,190,117
175,244,68,-209,53,156,112,395,326,283,200,136
190,258,68,-224,61,163,107,405,341,297,219,151
209,278,68,-244,70,173,107,419,351,317,239,165
224,292,68,-258,78,180,102,424,370,326,248,175
229,302,73,-265,78,187,102,429,380,336,263,185
234,312,78,-273,78,195,92,434,385,351,283,204
244,312,68,-278,87,190,82,429,390,366,302,219
253,341,87,-297,82,214,73,429,395,375,307,234
258,361,102,-309,78,231,68,424,400,380,317,239
263,351,87,-307,87,219,63,409,395,385,326,239
263,341,78,-302,92,209,58,395,375,380,326,239
248,331,82,-290,82,207,48,375,361,366,317,248
239,312,73,-275,82,192,39,341,341,341,302,239
214,292,78,-253,68,185,39,307,317,322,283,219
190,268,78,-229,56,173,34,273,287,292,258,200
175,239,63,-207,56,151,29,239,253,258,219,180
141,214,73,-178,34,143,24,195,209,214,185,151
126,170,43,-148,41,107,19,165,170,175,156,131
107,141,34,-124,36,87,24,131,131,136,126,102
73,112,39,-92,17,75,14,97,97,102,92,68
48,82,34,-65,7,58,9,63,63,63,58,43
19,53,34,-36,-7,43,14,48,39,34,34,24
4,29,24,-17,-9,26,14,34,19,4,14,9
-9,9,19,0,-14,14,14,14,-4,-14,-4,-4
-14,-4,9,9,-12,2,14,-4,-19,-29,-29,-9
-29,-19,9,24,-19,-4,9,-24,-29,-43,-43,-29
-39,-34,4,36,-21,-14,9,-34,-43,-53,-53,-39
-43,-39,4,41,-24,-17,4,-43,-53,-63,-58,-48
-48,-43,4,46,-26,-19,4,-53,-58,-73,-58,-43
-48,-48,0,48,-24,-24,4,-53,-68,-82,-68,-48
-58,-53,4,56,-31,-24,4,-58,-73,-87,-73,-58
-63,-58,4,61,-34,-26,4,-63,-82,-92,-73,-58
-63,-63,0,63,-31,-31,0,-63,-82,-92,-78,-53
-58,-58,0,58,-29,-29,0,-63,-78,-87,-78,-53
-48,-48,0,48,-24,-24,0,-63,-73,-92,-78,-58
-48,-48,0,48,-24,-24,4,-63,-78,-92,-78,-58
-48,-48,0,48,-24,-24,4,-63,-78,-92,-78,-58
-53,-48,4,51,-29,-21,0,-63,-82,-102,-78,-63
-58,-48,9,53,-34,-19,-9,-63,-87,-107,-82,-68
-63,-48,14,56,-39,-17,-9,-73,-87,-102,-82,-68
-63,-58,4,61,-34,-26,-9,-82,-87,-102,-82,-73
-58,-53,4,56,-31,-24,-9,-82,-87,-107,-82,-68
-63,-53,9,58,-36,-21,-9,-73,-87,-102,-82,-63
-63,-53,9,58,-36,-21,-4,-68,-87,-107,-82,-63
-58,-48,9,53,-34,-19,0,-63,-87,-107,-82,-63
-53,-48,4,51,-29,-21,0,-58,-87,-102,-82,-63
-53,-53,0,53,-26,-26,4,-58,-82,-97,-78,-63
-53,-53,0,53,-26,-26,0,-58,-82,-102,-78,-63
-53,-53,0,53,-26,-26,-4,-58,-82,-102,-78,-68
-58,-53,4,56,-31,-24,0,-58,-82,-102,-78,-68
-58,-53,4,56,-31,-24,0,-58,-82,-107,-78,-68
-63,-53,9,58,-36,-21,0,-53,-82,-107,-78,-68
-63,-43,19,53,-41,-12,0,-53,-82,-102,-78,-68
-63,-43,19,53,-41,-12,0,-53,-73,-102,-78,-68
-58,-43,14,51,-36,-14,0,-48,-68,-97,-73,-68
-53,-43,9,48,-31,-17,9,-43,-68,-92,-73,-63
-53,-43,9,48,-31,-17,14,-39,-68,-92,-73,-58
-53,-34,19,43,-36,-7,14,-39,-58,-92,-73,-58
-53,-48,4,51,-29,-21,14,-39,-53,-87,-73,-58
-53,-48,4,51,-29,-21,14,-39,-53,-82,-73,-58
-53,-43,9,48,-31,-17,19,-34,-53,-82,-73,-58
-48,-39,9,43,-29,-14,19,-34,-43,-78,-68,-53
-48,-39,9,43,-29,-14,19,-34,-43,-78,-68,-53
-43,-34,9,39,-26,-12,19,-34,-48,-78,-68,-53
-43,-29,14,36,-29,-7,19,-34,-48,-78,-68,-53
-43,-29,14,36,-29,-7,19,-34,-48,-87,-68,-58
-43,-29,14,36,-29,-7,19,-34,-48,-87,-68,-58
-48,-39,9,43,-29,-14,19,-34,-53,-82,-68,-58
-53,-43,9,48,-31,-17,19,-29,-58,-82,-73,-58
-53,-43,9,48,-31,-17,19,-29,-53,-82,-73,-63
-53,-43,9,48,-31,-17,14,-29,-53,-82,-63,-63
-48,-34,14,41,-31,-9,14,-29,-53,-82,-63,-63
-43,-24,19,34,-31,-2,14,-29,-58,-82,-63,-63
-43,-24,19,34,-31,-2,14,-29,-58,-82,-63,-63
-43,-24,19,34,-31,-2,14,-34,-58,-82,-68,-63
-43,-34,9,39,-26,-12,14,-34,-58,-82,-73,-58
-43,-39,4,41,-24,-17,19,-34,-58,-82,-73,-53
-43,-43,0,43,-21,-21,19,-34,-58,-87,-73,-53
-43,-43,0,43,-21,-21,19,-34,-58,-87,-68,-53
-43,-43,0,43,-21,-21,14,-34,-63,-87,-68,-53
-48,-43,4,46,-26,-19,9,-39,-63,-92,-68,-53
-48,-43,4,46,-26,-19,9,-39,-63,-97,-73,-58
-43,-43,0,43,-21,-21,4,-39,-63,-97,-78,-63
-43,-43,0,43,-21,-21,4,-43,-68,-97,-82,-63
-43,-43,0,43,-21,-21,4,-48,-68,-97,-82,-63
-43,-39,4,41,-24,-17,4,-48,-68,-92,-82,-63
-43,-34,9,39,-26,-12,4,-53,-68,-87,-78,-63
-43,-34,9,39,-26,-12,4,-53,-68,-87,-78,-68
-43,-34,9,39,-26,-12,4,-53,-78,-92,-82,-73
-43,-34,9,39,-26,-12,4,-53,-78,-97,-82,-73
-48,-34,14,41,-31,-9,4,-58,-78,-97,-78,-73
-43,-34,9,39,-26,-12,0,-58,-78,-97,-73,-73
-39,-34,4,36,-21,-14,0,-58,-78,-97,-73,-73
-34,-34,0,34,-17,-17,0,-58,-78,-102,-78,-73
-34,-39,-4,36,-14,-21,0,-58,-78,-107,-82,-73
-43,-48,-4,46,-19,-26,0,-58,-78,-107,-82,-73
-53,-53,0,53,-26,-26,0,-63,-82,-107,-82,-73
-43,-48,-4,46,-19,-26,0,-58,-82,-102,-82,-68
-39,-48,-9,43,-14,-29,4,-53,-82,-97,-82,-63
-34,-39,-4,36,-14,-21,4,-43,-68,-97,-73,-53
-29,-29,0,29,-14,-14,9,-39,-58,-97,-68,-48
-29,-9,19,19,-24,4,24,-29,-48,-82,-58,-48
-29,9,39,9,-34,24,39,-19,-39,-68,-48,-48
-14,29,43,-7,-29,36,43,-9,-29,-63,-48,-39
-4,43,48,-19,-26,46,53,-4,-24,-58,-43,-29
0,58,58,-29,-29,58,63,0,-19,-53,-39,-24
0,58,58,-29,-29,58,68,4,-14,-53,-39,-24
-4,53,58,-24,-31,56,68,4,-14,-43,-34,-14
9,92,82,-51,-36,87,63,9,9,-29,-4,9
39,165,126,-102,-43,146,43,14,39,4,29,43
48,180,131,-114,-41,156,19,14,39,9,34,53
63,151,87,-107,-12,119,-4,9,29,9,34,53
78,136,58,-107,9,97,-19,4,19,-4,24,39
63,112,48,-87,7,80,-19,0,4,-19,19,34
53,102,48,-78,2,75,-14,-4,-4,-24,14,29
39,107,68,-73,-14,87,-9,-9,-4,-19,9,29
39,97,58,-68,-9,78,-4,-14,-9,-24,4,24
34,53,19,-43,7,36,-14,-24,-34,-48,-9,14
29,19,-9,-24,19,4,-14,-34,-43,-58,-24,9
19,14,-4,-17,12,4,-14,-43,-53,-63,-34,4
4,4,0,-4,2,2,-14,-53,-63,-78,-39,-9
-24,-9,14,17,-19,2,-14,-63,-78,-92,-48,-24
-48,-43,4,46,-26,-19,-14,-78,-102,-112,-73,-43
-63,-58,4,61,-34,-26,-14,-78,-107,-126,-87,-68
-78,-73,4,75,-41,-34,-14,-78,-107,-136,-92,-78
-68,-73,-4,70,-31,-39,-14,-82,-112,-136,-92,-78
-58,-78,-19,68,-19,-48,-14,-82,-112,-141,-97,-78
-58,-78,-19,68,-19,-48,-19,-87,-117,-141,-102,-87
-63,-82,-19,73,-21,-51,-24,-92,-117,-141,-107,-92
-68,-92,-24,80,-21,-58,-19,-92,-126,-146,-112,-97
-78,-97,-19,87,-29,-58,-19,-92,-131,-146,-112,-97
-78,-97,-19,87,-29,-58,-19,-87,-131,-146,-117,-102
-78,-97,-19,87,-29,-58,-19,-82,-131,-151,-117,-102
-82,-102,-19,92,-31,-61,-14,-82,-131,-151,-122,-107
-82,-102,-19,92,-31,-61,-14,-82,-131,-151,-122,-107
-82,-107,-24,95,-29,-65,-9,-82,-131,-151,-122,-107
-82,-107,-24,95,-29,-65,-9,-78,-131,-151,-122,-107
-82,-102,-19,92,-31,-61,-14,-82,-131,-156,-126,-107
-82,-102,-19,92,-31,-61,-14,-87,-131,-165,-136,-112
-82,-102,-19,92,-31,-61,-14,-92,-131,-165,-136,-112
-82,-102,-19,92,-31,-61,-9,-92,-131,-165,-131,-112
-82,-107,-24,95,-29,-65,-9,-87,-131,-161,-126,-107
-82,-107,-24,95,-29,-65,-9,-87,-131,-156,-126,-102
-82,-112,-29,97,-26,-70,-9,-82,-131,-161,-131,-112
-78,-122,-43,100,-17,-82,-4,-73,-131,-165,-141,-122
-78,-136,-58,107,-9,-97,4,-43,-126,-170,-151,-136
-63,-146,-82,104,9,-114,14,-19,-117,-170,-161,-156
-9,-136,-126,73,58,-131,-9,4,-102,-161,-156,-161
43,-68,-112,12,78,-90,-58,0,-63,-97,-87,-107
122,24,-97,-73,109,-36,-156,-82,-43,-4,0,-24
268,175,-92,-222,180,41,-419,-302,-68,102,141,131
531,492,-39,-512,285,226,-858,-639,-43,351,453,448
732,805,73,-768,329,439,-1239,-902,48,634,785,780
839,1039,200,-939,319,619,-1424,-995,195,956,1107,1088
834,1029,195,-932,319,612,-1449,-1005,204,1093,1254,1234
790,985,195,-888,297,590,-1337,-858,268,1166,1346,1337
673,688,14,-680,329,351,-1102,-683,82,810,1078,1156
297,390,92,-344,102,241,-819,-785,-287,229,590,785
-34,200,234,-82,-134,217,-517,-751,-448,-165,190,414
-102,97,200,2,-151,148,-356,-575,-375,-200,34,190
-126,-9,117,68,-122,53,-234,-444,-331,-229,-78,24
-117,-92,24,104,-70,-34,-136,-312,-263,-209,-112,-53
-82,-112,-29,97,-26,-70,-82,-204,-204,-190,-122,-82
-63,-112,-48,87,-7,-80,-43,-136,-170,-175,-122,-92
-63,-102,-39,82,-12,-70,-4,-102,-146,-161,-107,-92
-63,-92,-29,78,-17,-61,39,-63,-112,-141,-102,-87
-68,-78,-9,73,-29,-43,48,-24,-82,-131,-102,-82
-68,-58,9,63,-39,-24,53,-9,-73,-126,-97,-82
-63,-53,9,58,-36,-21,73,-9,-73,-126,-97,-87
-63,-53,9,58,-36,-21,87,0,-68,-122,-97,-87
-63,-53,9,58,-36,-21,92,9,-63,-122,-97,-87
-63,-53,9,58,-36,-21,92,9,-63,-122,-97,-92
-63,-48,14,56,-39,-17,92,9,-58,-117,-97,-92
-58,-58,0,58,-29,-29,97,9,-53,-117,-97,-92
-58,-68,-9,63,-24,-39,97,19,-53,-107,-97,-97
-58,-53,4,56,-31,-24,97,24,-43,-107,-97,-97
-58,-39,19,48,-39,-9,97,24,-34,-107,-92,-92
-58,-39,19,48,-39,-9,102,29,-29,-97,-87,-87
-48,-29,19,39,-34,-4,102,34,-24,-87,-87,-78
-39,-19,19,29,-29,0,102,43,-19,-87,-78,-78
-19,-9,9,14,-14,0,102,53,-14,-82,-68,-78
-14,-9,4,12,-9,-2,102,53,-14,-82,-68,-73
-9,0,9,4,-9,4,107,58,-9,-73,-63,-68
-4,4,9,0,-7,7,112,73,-4,-68,-58,-68
0,4,4,-2,-2,4,112,78,4,-63,-53,-68
-19,0,19,9,-19,9,112,78,4,-58,-53,-63
-39,-4,34,21,-36,14,112,82,19,-53,-53,-68
-34,-9,24,21,-29,7,107,92,19,-53,-53,-68
-34,-19,14,26,-24,-2,102,102,24,-58,-53,-68
-29,4,34,12,-31,19,107,107,34,-39,-39,-53
-29,14,43,7,-36,29,112,117,43,-29,-34,-39
-14,29,43,-7,-29,36,112,122,53,-19,-34,-39
0,39,39,-19,-19,39,112,136,63,-9,-24,-39
0,48,48,-24,-24,48,112,141,68,-4,-19,-34
4,53,48,-29,-21,51,117,156,78,4,-14,-24
9,58,48,-34,-19,53,122,165,87,14,-9,-24
14,73,58,-43,-21,65,126,175,97,24,0,-19
29,82,53,-56,-12,68,126,190,107,29,9,-9
34,97,63,-65,-14,80,131,209,126,43,19,0
39,97,58,-68,-9,78,136,219,131,48,29,9
48,122,73,-85,-12,97,136,234,146,68,34,19
63,131,68,-97,-2,100,141,253,161,78,43,29
73,141,68,-107,2,104,146,273,180,92,53,39
82,161,78,-122,2,119,151,297,195,107,73,43
82,170,87,-126,-2,129,151,307,209,126,82,53
92,190,97,-141,-2,143,156,336,229,146,92,63
112,209,97,-161,7,153,156,356,248,161,107,73
122,229,107,-175,7,168,156,375,263,180,122,82
141,248,107,-195,17,178,161,390,283,200,151,102
151,263,112,-207,19,187,161,405,307,224,175,112
175,292,117,-234,29,204,161,424,326,244,190,126
190,307,117,-248,36,212,156,434,346,263,209,151
209,326,117,-268,46,222,156,448,361,287,229,175
224,341,117,-283,53,229,151,458,380,302,244,185
229,351,122,-290,53,236,151,468,390,317,263,195
239,370,131,-305,53,251,146,478,400,336,278,209
253,380,126,-317,63,253,141,478,409,356,292,219
273,400,126,-336,73,263,131,478,414,366,297,234
287,409,122,-348,82,265,126,473,419,370,307,239
292,409,117,-351,87,263,117,458,419,380,317,244
292,409,117,-351,87,263,107,444,405,380,317,248
283,409,126,-346,78,268,97,424,395,375,317,258
278,400,122,-339,78,261,87,390,380,361,312,248
258,380,122,-319,68,251,82,356,356,336,292,239
239,356,117,-297,61,236,73,322,326,302,268,229
224,326,102,-275,61,214,68,287,287,273,239,209
190,302,112,-246,39,207,63,244,239,234,214,180
165,258,92,-212,36,175,53,209,204,195,185,161
136,229,92,-183,21,161,53,170,170,156,156,131
102,195,92,-148,4,143,43,136,131,117,117,97
78,161,82,-119,-2,122,39,102,92,73,78,73
48,131,82,-90,-17,107,34,78,63,43,53,53
34,107,73,-70,-19,90,24,53,39,14,34,39
24,82,58,-53,-17,70,24,34,9,-9,14,19
24,63,39,-43,-7,51,24,14,-9,-29,-9,9
9,43,34,-26,-12,39,19,-4,-24,-48,-24,-9
0,24,24,-12,-12,24,19,-14,-43,-63,-34,-19
0,19,19,-9,-9,19,14,-24,-53,-73,-43,-34
0,14,14,-7,-7,14,14,-34,-58,-82,-48,-34
0,14,14,-7,-7,14,14,-39,-68,-92,-63,-39
-9,14,24,-2,-17,19,14,-48,-73,-97,-73,-48
-14,9,24,2,-19,17,14,-53,-82,-102,-73,-53
-14,4,19,4,-17,12,9,-53,-82,-102,-78,-53
-19,0,19,9,-19,9,9,-53,-82,-102,-78,-53
-19,0,19,9,-19,9,9,-53,-82,-112,-78,-58
-24,-4,19,14,-21,7,14,-48,-87,-112,-78,-58
-29,-9,19,19,-24,4,14,-43,-87,-112,-78,-58
-29,-9,19,19,-24,4,19,-43,-87,-122,-78,-58
-29,-9,19,19,-24,4,19,-43,-87,-126,-82,-58
-34,-9,24,21,-29,7,19,-48,-92,-122,-87,-58
-34,-19,14,26,-24,-2,19,-53,-97,-122,-92,-63
-24,-19,4,21,-14,-7,19,-53,-102,-136,-92,-68
-24,-24,0,24,-12,-12,19,-43,-107,-141,-92,-73
-24,-29,-4,26,-9,-17,19,-43,-107,-146,-92,-73
-19,-29,-9,24,-4,-19,19,-43,-107,-146,-92,-73
-29,-29,0,29,-14,-14,14,-39,-117,-146,-92,-73
-43,-34,9,39,-26,-12,14,-39,-122,-146,-87,-73
-48,-34,14,41,-31,-9,4,-43,-112,-146,-87,-68
-53,-34,19,43,-36,-7,-4,-48,-102,-141,-87,-68
-58,-34,24,46,-41,-4,14,-48,-97,-141,-87,-68
-58,-34,24,46,-41,-4,29,-48,-92,-146,-87,-68
-53,-34,19,43,-36,-7,29,-43,-92,-146,-92,-73
-43,-24,19,34,-31,-2,29,-43,-92,-141,-97,-78
-34,-24,9,29,-21,-7,19,-43,-92,-151,-102,-78
-19,-24,-4,21,-7,-14,9,-39,-97,-156,-102,-78
-19,-24,-4,21,-7,-14,34,-39,-97,-156,-102,-78
-24,-24,0,24,-12,-12,53,-39,-97,-161,-102,-78
-48,-34,14,41,-31,-9,58,-39,-117,-175,-117,-87
-73,-68,4,70,-39,-31,63,-39,-141,-185,-131,-97
-58,-68,-9,63,-24,-39,63,-39,-151,-185,-131,-112
-43,-63,-19,53,-12,-41,68,-34,-161,-190,-131,-126
-39,-58,-19,48,-9,-39,68,-19,-151,-190,-141,-126
-39,-58,-19,48,-9,-39,68,-4,-151,-195,-156,-131
-19,-48,-29,34,4,-39,68,-4,-190,-204,-156,-131
-4,-39,-34,21,14,-36,68,-4,-224,-214,-156,-131
-34,-58,-24,46,-4,-41,63,-4,-195,-224,-156,-136
-63,-78,-14,70,-24,-46,58,-4,-165,-224,-156,-136
-53,-78,-24,65,-14,-51,58,4,-122,-204,-146,-126
-43,-73,-29,58,-7,-51,58,19,-78,-190,-141,-117
-43,-73,-29,58,-7,-51,48,19,-112,-190,-141,-117
-43,-73,-29,58,-7,-51,34,19,-151,-190,-131,-112
-19,-63,-43,41,12,-53,34,34,-131,-170,-117,-102
4,-53,-58,24,31,-56,34,48,-117,-151,-102,-92
-4,-53,-48,29,21,-51,24,48,-97,-151,-102,-92
-14,-53,-39,34,12,-46,14,43,-78,-151,-107,-92
-14,-58,-43,36,14,-51,4,43,-87,-151,-112,-102
-14,-58,-43,36,14,-51,0,43,-97,-151,-112,-112
-9,-58,-48,34,19,-53,0,43,-97,-151,-107,-102
-4,-53,-48,29,21,-51,0,43,-97,-146,-97,-92
-4,-53,-48,29,21,-51,4,43,-102,-141,-92,-87
-9,-53,-43,31,17,-48,9,39,-102,-141,-87,-82
0,-43,-43,21,21,-43,19,53,-102,-131,-78,-78
14,-34,-48,9,31,-41,24,68,-102,-117,-68,-73
14,-53,-68,19,41,-61,29,68,-107,-117,-73,-73
14,-73,-87,29,51,-80,34,68,-107,-117,-73,-73
19,-58,-78,19,48,-68,43,78,-78,-102,-63,-73
24,-43,-68,9,46,-56,53,82,-48,-87,-48,-73
24,-43,-68,9,46,-56,43,73,-63,-87,-58,-78
24,-43,-68,9,46,-56,34,63,-87,-92,-73,-82
24,-48,-73,12,48,-61,34,63,-87,-92,-78,-82
19,-53,-73,17,46,-63,34,58,-87,-87,-78,-82
9,-53,-63,21,36,-58,29,58,-73,-68,-63,-73
0,-53,-53,26,26,-53,29,58,-58,-48,-53,-63
4,-48,-53,21,29,-51,29,48,-53,-39,-48,-58
4,-48,-53,21,29,-51,29,39,-48,-29,-43,-53
14,-53,-68,19,41,-61,34,34,-34,-29,-43,-53
24,-53,-78,14,51,-65,39,24,-24,-29,-43,-53
14,-53,-68,19,41,-61,39,24,-29,-24,-43,-53
4,-53,-58,24,31,-56,39,24,-29,-14,-43,-53
4,-53,-58,24,31,-56,39,9,-24,-14,-43,-53
4,-48,-53,21,29,-51,39,-4,-24,-14,-43,-53
0,-48,-48,24,24,-48,43,-4,-19,-9,-43,-43
-9,-53,-43,31,17,-48,43,4,-19,-4,-39,-39
4,-53,-58,24,31,-56,34,-4,-19,-4,-43,-39
19,-43,-63,12,41,-53,29,-9,-9,4,-48,-39
14,-43,-58,14,36,-51,34,0,0,9,-43,-39
9,-48,-58,19,34,-53,39,4,4,19,-39,-39
4,-39,-43,17,24,-41,43,4,9,29,-34,-34
0,-29,-29,14,14,-29,48,9,19,39,-29,-29
-9,-24,-14,17,2,-19,68,19,39,53,-19,-14
-19,-19,0,19,-9,-9,87,29,58,68,-9,0
-19,-19,0,19,-9,-9,92,24,63,73,-9,0
-19,-14,4,17,-12,-4,97,19,63,78,-4,0
-19,-9,9,14,-14,0,102,14,68,87,0,4
-19,-9,9,14,-14,0,97,14,73,92,0,4
-19,0,19,9,-19,9,92,14,82,107,4,14
0,53,53,-26,-26,53,82,19,117,126,34,39
24,82,58,-53,-17,70,63,19,131,161,48,53
29,53,24,-41,2,39,39,14,117,165,34,43
34,48,14,-41,9,31,19,9,107,175,43,43
39,58,19,-48,9,39,9,4,97,170,43,29
24,34,9,-29,7,21,9,-14,97,165,43,29
14,24,9,-19,2,17,14,-34,102,170,43,29
-4,9,14,-2,-9,12,14,-48,97,170,29,24
-9,-19,-9,14,0,-14,14,-63,87,161,14,14
-19,-48,-29,34,4,-39,4,-73,68,146,0,4
-29,-68,-39,48,4,-53,4,-82,63,146,-14,0
-53,-73,-19,63,-17,-46,4,-92,53,141,-24,-4
-82,-82,0,82,-41,-41,4,-102,43,126,-29,-19
-112,-102,9,107,-61,-46,4,-126,34,112,-43,-34
-136,-141,-4,139,-65,-73,4,-156,14,92,-73,-53
-141,-156,-14,148,-63,-85,4,-156,9,87,-87,-73
-146,-170,-24,158,-61,-97,4,-156,9,87,-92,-78
-146,-170,-24,158,-61,-97,4,-161,4,87,-92,-78
-146,-175,-29,161,-58,-102,4,-161,4,82,-97,-78
-161,-190,-29,175,-65,-109,4,-170,0,78,-102,-92
-180,-209,-29,195,-75,-119,4,-180,0,73,-107,-102
-185,-219,-34,202,-75,-126,9,-180,-4,68,-112,-107
-195,-224,-29,209,-82,-126,9,-180,-4,68,-112,-107
-195,-224,-29,209,-82,-126,19,-180,0,73,-117,-107
-195,-224,-29,209,-82,-126,29,-180,4,73,-117,-102
-200,-229,-29,214,-85,-129,24,-185,4,73,-122,-107
-200,-229,-29,214,-85,-129,14,-190,4,73,-122,-107
-209,-239,-29,224,-90,-134,19,-195,-4,58,-122,-117
-219,-244,-24,231,-97,-134,19,-195,-14,43,-122,-126
-219,-244,-24,231,-97,-134,19,-195,-19,39,-126,-126
-219,-248,-29,234,-95,-139,24,-195,-24,29,-136,-131
-234,-263,-29,248,-102,-146,24,-200,-29,19,-141,-136
-248,-278,-29,263,-109,-153,29,-200,-34,9,-141,-141
-239,-283,-43,261,-97,-163,29,-195,-34,4,-141,-141
-229,-283,-53,256,-87,-168,29,-195,-34,0,-146,-141
-229,-292,-63,261,-82,-178,29,-190,-34,-14,-151,-156
-224,-307,-82,265,-70,-195,34,-180,-34,-29,-161,-170
-219,-326,-107,273,-56,-217,14,-156,-53,-43,-180,-185
-200,-341,-141,270,-29,-241,-4,-136,-68,-53,-200,-204
-126,-312,-185,219,29,-248,-58,-136,-58,-43,-185,-204
-53,-224,-170,139,58,-197,-136,-165,-24,19,-107,-146
48,-117,-165,34,107,-141,-302,-268,-4,126,4,-34
219,48,-170,-134,195,-61,-634,-507,-29,248,170,151
497,351,-146,-424,322,102,-1029,-761,4,497,483,468
712,649,-63,-680,387,292,-1366,-941,107,780,814,800
741,800,58,-771,341,429,-1473,-1000,248,1044,1088,1068
658,707,48,-683,305,378,-1420,-976,253,1122,1185,1176
570,658,87,-614,241,373,-1273,-858,239,1083,1195,1215
409,356,-53,-383,231,151,-1005,-712,-24,614,844,971
97,112,14,-104,41,63,-736,-795,-322,131,409,614
-170,-24,146,97,-158,61,-448,-741,-409,-165,63,258
-244,-122,122,183,-183,0,-302,-575,-336,-185,-63,58
-273,-224,48,248,-161,-87,-195,-453,-292,-200,-146,-82
-287,-287,0,287,-143,-143,-102,-326,-214,-180,-170,-141
-278,-287,-9,283,-134,-148,-53,-224,-146,-161,-170,-151
-248,-278,-29,263,-109,-153,-14,-161,-117,-151,-170,-151
-239,-258,-19,248,-109,-139,24,-131,-97,-141,-156,-141
-239,-248,-9,244,-114,-129,63,-102,-73,-126,-151,-146
-244,-234,9,239,-126,-112,68,-73,-53,-122,-151,-151
-244,-229,14,236,-129,-107,63,-58,-58,-131,-151,-156
-239,-239,0,239,-119,-119,73,-58,-73,-146,-156,-165
-234,-239,-4,236,-114,-122,87,-48,-63,-141,-156,-165
-229,-239,-9,234,-109,-124,92,-39,-53,-141,-156,-165
-229,-239,-9,234,-109,-124,92,-34,-53,-141,-151,-165
-229,-234,-4,231,-112,-119,92,-29,-48,-136,-146,-161
-224,-234,-9,229,-107,-122,92,-34,-43,-136,-146,-156
-224,-234,-9,229,-107,-122,87,-29,-43,-126,-146,-156
-224,-239,-14,231,-104,-126,87,-24,-48,-131,-151,-165
-224,-244,-19,234,-102,-131,87,-24,-53,-136,-151,-170
-224,-234,-9,229,-107,-122,92,-19,-48,-131,-146,-161
-214,-214,0,214,-107,-107,92,-14,-43,-126,-146,-146
-219,-209,9,214,-114,-100,97,-9,-39,-126,-136,-146
-214,-204,9,209,-112,-97,102,-4,-34,-122,-126,-146
-234,-204,29,219,-131,-87,107,-4,-34,-122,-126,-141
-253,-195,58,224,-156,-68,117,0,-29,-112,-122,-136
-234,-195,39,214,-136,-78,122,14,-34,-112,-122,-136
-214,-200,14,207,-114,-92,122,19,-34,-112,-122,-136
-190,-195,-4,192,-92,-100,117,19,-34,-117,-122,-131
-165,-190,-24,178,-70,-107,112,24,-19,-122,-122,-136
-161,-175,-14,168,-73,-95,112,34,-4,-102,-122,-136
-161,-165,-4,163,-78,-85,112,43,14,-87,-122,-136
-180,-170,9,175,-95,-80,117,48,14,-78,-107,-126
-204,-190,14,197,-109,-87,122,58,14,-78,-102,-117
-195,-180,14,187,-104,-82,126,63,19,-78,-102,-117
-185,-175,9,180,-97,-82,131,78,24,-78,-92,-117
-170,-161,9,165,-90,-75,131,87,29,-73,-87,-112
-151,-151,0,151,-75,-75,136,107,39,-63,-82,-102
-146,-146,0,146,-73,-73,141,117,48,-53,-78,-102
-141,-131,9,136,-75,-61,146,126,58,-43,-68,-97
-131,-126,4,129,-68,-61,146,146,63,-39,-58,-87
-131,-117,14,124,-73,-51,151,170,78,-24,-48,-78
-126,-117,9,122,-68,-53,156,180,82,-19,-34,-73
-117,-92,24,104,-70,-34,156,195,97,0,-24,-68
-102,-82,19,92,-61,-31,165,219,107,9,-14,-58
-92,-73,19,82,-56,-26,175,244,122,24,-4,-48
-68,-53,14,61,-41,-19,180,268,136,39,14,-39
-53,-43,9,48,-31,-17,180,278,151,58,24,-24
-53,-29,24,41,-39,-2,190,307,170,78,34,-14
-43,-14,29,29,-36,7,195,326,190,92,48,-4
-34,4,39,14,-36,21,195,346,204,107,58,4
-14,24,39,-4,-26,31,200,361,224,122,82,24
-4,39,43,-17,-24,41,200,380,248,146,102,34
19,68,48,-43,-14,58,200,405,268,165,112,48
39,92,53,-65,-7,73,195,414,283,185,136,63
63,122,58,-92,2,90,195,429,292,209,161,78
78,136,58,-107,9,97,190,444,312,229,170,92
82,146,63,-114,9,104,190,458,322,248,185,107
97,165,68,-131,14,117,180,468,331,263,200,122
117,175,58,-146,29,117,170,468,341,278,214,131
126,190,63,-158,31,126,161,468,346,283,214,141
131,195,63,-163,34,129,156,463,351,283,219,141
136,195,58,-165,39,126,136,448,356,287,229,146
136,195,58,-165,39,126,117,434,346,283,229,151
126,195,68,-161,29,131,107,409,336,278,229,161
122,185,63,-153,29,124,97,370,322,263,224,151
107,165,58,-136,24,112,82,336,292,244,204,136
92,141,48,-117,21,95,63,302,258,214,180,122
78,112,34,-95,21,73,53,263,219,180,151,102
43,87,43,-65,0,65,43,214,170,136,126,73
24,43,19,-34,2,31,34,180,136,97,97,63
0,14,14,-7,-7,14,34,141,102,58,68,43
-24,-14,9,19,-17,-2,24,102,68,24,34,4
-39,-43,-4,41,-17,-24,19,63,34,-14,0,-24
-68,-73,-4,70,-31,-39,19,39,4,-39,-24,-43
-82,-97,-14,90,-34,-56,14,14,-19,-63,-43,-58
-87,-117,-29,102,-29,-73,9,0,-48,-87,-63,-73
-82,-131,-48,107,-17,-90,4,-14,-68,-107,-87,-78
-97,-151,-53,124,-21,-102,0,-29,-78,-126,-102,-97
-107,-170,-63,139,-21,-117,0,-34,-92,-141,-112,-107
-112,-175,-63,143,-24,-119,-4,-43,-102,-151,-122,-122
-117,-180,-63,148,-26,-122,-4,-53,-107,-161,-126,-122
-117,-180,-63,148,-26,-122,-4,-53,-112,-165,-126,-122
-126,-180,-53,153,-36,-117,-4,-58,-112,-165,-122,-126
-131,-185,-53,158,-39,-119,-4,-63,-122,-170,-122,-126
-131,-190,-58,161,-36,-124,-9,-63,-122,-170,-126,-122
-131,-195,-63,163,-34,-129,-9,-63,-117,-165,-131,-122
-126,-195,-68,161,-29,-131,-9,-63,-112,-170,-136,-126
-126,-195,-68,161,-29,-131,-4,-63,-117,-170,-136,-126
-126,-195,-68,161,-29,-131,-4,-63,-117,-170,-136,-126
-107,-180,-73,143,-17,-126,-4,-53,-112,-170,-126,-122
-87,-165,-78,126,-4,-122,-9,-43,-107,-165,-122,-117
-92,-156,-63,124,-14,-109,-9,-48,-107,-156,-122,-117
-92,-156,-63,124,-14,-109,-9,-53,-107,-151,-122,-122
-102,-165,-63,134,-19,-114,-9,-58,-107,-161,-122,-122
-122,-180,-58,151,-31,-119,-9,-53,-107,-161,-122,-122
-122,-180,-58,151,-31,-119,-9,-53,-107,-165,-122,-122
-117,-175,-58,146,-29,-117,-9,-53,-107,-165,-122,-122
-107,-170,-63,139,-21,-117,-19,-48,-102,-161,-126,-122
-102,-170,-68,136,-17,-119,-24,-48,-92,-156,-126,-122
-92,-170,-78,131,-7,-124,-24,-48,-92,-156,-126,-117
-82,-170,-87,126,2,-129,-24,-48,-92,-151,-126,-117
-87,-165,-78,126,-4,-122,-19,-48,-92,-151,-122,-117
-87,-161,-73,124,-7,-117,-19,-48,-92,-156,-117,-117
-87,-161,-73,124,-7,-117,-14,-43,-92,-156,-117,-117
-82,-151,-68,117,-7,-109,-9,-43,-92,-151,-117,-117
-82,-151,-68,117,-7,-109,-9,-43,-87,-151,-117,-117
-78,-151,-73,114,-2,-112,-9,-39,-87,-146,-112,-117
-78,-146,-68,112,-4,-107,-4,-39,-87,-146,-112,-112
-82,-141,-58,112,-12,-100,-4,-39,-87,-151,-112,-107
-82,-126,-43,104,-19,-85,-4,-39,-82,-151,-112,-107
-82,-136,-53,109,-14,-95,-4,-39,-82,-146,-112,-107
-82,-136,-53,109,-14,-95,-4,-34,-82,-136,-112,-107
-82,-131,-48,107,-17,-90,0,-24,-82,-131,-112,-107
-82,-126,-43,104,-19,-85,0,-19,-68,-122,-107,-97
-87,-126,-39,107,-24,-82,0,-14,-63,-117,-107,-92
-82,-122,-39,102,-21,-80,0,-14,-68,-117,-107,-92
-82,-117,-34,100,-24,-75,0,-14,-68,-117,-107,-92
-82,-112,-29,97,-26,-70,0,-14,-68,-122,-107,-92
-82,-107,-24,95,-29,-65,0,-14,-68,-117,-107,-87
-82,-107,-24,95,-29,-65,0,-14,-68,-112,-107,-87
-82,-102,-19,92,-31,-61,0,-9,-68,-112,-112,-87
-82,-102,-19,92,-31,-61,4,-9,-63,-112,-112,-92
-82,-102,-19,92,-31,-61,4,-9,-63,-112,-102,-92
-78,-97,-19,87,-29,-58,4,-9,-63,-107,-102,-92
-73,-92,-19,82,-26,-56,4,-9,-68,-102,-102,-92
-73,-92,-19,82,-26,-56,4,-4,-68,-102,-102,-92
-73,-92,-19,82,-26,-56,4,-4,-68,-102,-107,-92
-73,-97,-24,85,-24,-61,4,-4,-63,-102,-107,-92
-73,-97,-24,85,-24,-61,9,-4,-58,-102,-102,-92
-73,-102,-29,87,-21,-65,9,-4,-58,-97,-102,-87
-73,-102,-29,87,-21,-65,9,-4,-58,-87,-97,-82
-73,-102,-29,87,-21,-65,9,-9,-63,-82,-97,-82
-78,-102,-24,90,-26,-63,9,-19,-63,-82,-97,-82
-78,-102,-24,90,-26,-63,9,-19,-63,-87,-97,-82
-73,-102,-29,87,-21,-65,4,-19,-63,-87,-97,-82
-73,-102,-29,87,-21,-65,4,-24,-68,-87,-102,-82
-73,-102,-29,87,-21,-65,4,-29,-68,-87,-102,-82
-73,-102,-29,87,-21,-65,4,-34,-68,-82,-102,-82
-73,-102,-29,87,-21,-65,4,-43,-68,-78,-97,-82
-73,-107,-34,90,-19,-70,4,-48,-68,-78,-92,-82
-73,-112,-39,92,-17,-75,4,-53,-78,-82,-92,-82
-73,-117,-43,95,-14,-80,4,-53,-78,-82,-97,-82
-78,-122,-43,100,-17,-82,4,-58,-78,-78,-97,-82
-78,-122,-43,100,-17,-82,0,-58,-78,-78,-92,-78
-78,-122,-43,100,-17,-82,0,-58,-78,-78,-92,-73
-73,-117,-43,95,-14,-80,-4,-58,-73,-73,-92,-73
-73,-117,-43,95,-14,-80,-9,-58,-68,-68,-92,-73
-73,-122,-48,97,-12,-85,-9,-63,-68,-68,-92,-73
-73,-122,-48,97,-12,-85,-9,-73,-73,-68,-92,-73
-73,-122,-48,97,-12,-85,-9,-78,-82,-68,-87,-73
-73,-122,-48,97,-12,-85,-9,-82,-87,-63,-82,-73
-78,-122,-43,100,-17,-82,-9,-82,-82,-63,-82,-73
-82,-117,-34,100,-24,-75,-9,-82,-82,-63,-82,-73
-78,-107,-29,92,-24,-68,-14,-92,-78,-63,-87,-68
-78,-102,-24,90,-26,-63,-24,-92,-78,-63,-87,-68
-78,-107,-29,92,-24,-68,-24,-97,-82,-63,-82,-68
-78,-112,-34,95,-21,-73,-24,-97,-82,-58,-78,-68
-78,-97,-19,87,-29,-58,-19,-97,-82,-53,-78,-73
-68,-87,-19,78,-24,-53,-19,-92,-82,-48,-73,-68
-68,-87,-19,78,-24,-53,-9,-82,-78,-53,-73,-68
-68,-87,-19,78,-24,-53,0,-78,-78,-58,-78,-68
-63,-58,4,61,-34,-26,9,-68,-63,-39,-68,-53
-58,-29,29,43,-43,0,19,-58,-48,-19,-58,-39
-58,-19,39,39,-48,9,39,-53,-39,-14,-48,-34
-58,-9,48,34,-53,19,53,-43,-29,-4,-39,-29
-58,-4,53,31,-56,24,68,-39,-19,0,-34,-24
-58,0,58,29,-58,29,78,-39,-19,4,-29,-24
-53,14,68,19,-61,41,78,-24,-9,4,-29,-19
-43,39,82,2,-63,61,73,-14,-4,14,-24,-4
-19,82,102,-31,-61,92,63,-9,19,29,4,19
9,131,122,-70,-56,126,43,-4,48,63,34,48
19,131,112,-75,-46,122,19,-4,43,63,29,48
29,102,73,-65,-21,87,0,-9,29,58,24,43
39,92,53,-65,-7,73,-4,-14,19,43,14,29
24,73,48,-48,-12,61,0,-19,4,29,4,24
14,63,48,-39,-17,56,4,-24,-4,24,-4,19
-4,53,58,-24,-31,56,4,-34,-9,24,-9,14
-9,24,34,-7,-21,29,0,-43,-19,14,-14,4
-14,-9,4,12,-9,-2,-14,-53,-43,-9,-29,-4
-19,-29,-9,24,-4,-19,-14,-63,-53,-19,-43,-9
-29,-34,-4,31,-12,-19,-14,-73,-63,-24,-53,-14
-43,-43,0,43,-21,-21,-14,-82,-73,-39,-58,-29
-73,-58,14,65,-43,-21,-14,-92,-82,-53,-68,-43
-102,-92,9,97,-56,-41,-14,-107,-102,-82,-92,-63
-112,-107,4,109,-58,-51,-14,-107,-107,-102,-107,-82
-117,-122,-4,119,-56,-63,-14,-102,-107,-107,-112,-87
-117,-122,-4,119,-56,-63,-14,-102,-112,-107,-112,-87
-107,-126,-19,117,-43,-73,-14,-102,-112,-107,-117,-87
-97,-126,-29,112,-34,-78,-14,-102,-117,-102,-117,-92
-92,-117,-24,104,-34,-70,-19,-102,-117,-102,-117,-92
-87,-112,-24,100,-31,-68,-19,-102,-122,-107,-122,-97
-117,-131,-14,124,-51,-73,-19,-102,-122,-107,-122,-97
-136,-146,-9,141,-63,-78,-19,-102,-122,-107,-126,-102
-136,-156,-19,146,-58,-87,-19,-107,-122,-112,-126,-102
-141,-170,-29,156,-56,-100,-14,-112,-122,-112,-131,-107
-136,-161,-24,148,-56,-92,-19,-112,-122,-112,-126,-107
-131,-156,-24,143,-53,-90,-19,-112,-122,-112,-122,-107
-131,-151,-19,141,-56,-85,-19,-107,-122,-112,-122,-107
-131,-141,-9,136,-61,-75,-24,-107,-122,-112,-122,-107
-126,-141,-14,134,-56,-78,-24,-107,-122,-117,-126,-112
-122,-141,-19,131,-51,-80,-24,-112,-122,-117,-126,-112
-122,-141,-19,131,-51,-80,-19,-112,-122,-122,-122,-112
-122,-146,-24,134,-48,-85,-19,-107,-122,-126,-122,-112
-122,-141,-19,131,-51,-80,-19,-107,-126,-126,-126,-107
-122,-146,-24,134,-48,-85,-19,-102,-131,-131,-131,-112
-122,-161,-39,141,-41,-100,-14,-92,-131,-136,-146,-122
-117,-175,-58,146,-29,-117,-14,-63,-131,-141,-161,-136
-107,-209,-102,158,-2,-156,4,-24,-126,-156,-185,-170
-48,-204,-156,126,53,-180,-29,-9,-112,-151,-185,-175
14,-141,-156,63,85,-148,-58,9,-63,-92,-131,-136
117,-43,-161,-36,139,-102,-161,-58,-34,4,-29,-43
297,107,-190,-202,244,-41,-478,-312,-82,92,107,112
536,380,-156,-458,346,112,-873,-605,-68,312,375,390
785,766,-19,-775,402,373,-1302,-893,58,644,756,771
907,1034,126,-971,390,580,-1503,-1010,224,946,1073,1083
863,1034,170,-949,346,602,-1493,-995,292,1137,1268,1273
780,1015,234,-897,273,624,-1390,-897,336,1210,1361,1376
619,649,29,-634,295,339,-1122,-727,48,741,1010,1137
312,361,48,-336,131,204,-863,-771,-263,273,605,819
-48,190,239,-70,-143,214,-541,-727,-380,-87,209,424
-175,73,248,51,-212,161,-361,-585,-346,-180,29,185
-185,-53,131,119,-158,39,-253,-463,-302,-200,-78,19
-185,-141,43,163,-114,-48,-161,-341,-244,-190,-131,-73
-136,-151,-14,143,-61,-82,-122,-224,-190,-170,-131,-87
-102,-161,-58,131,-21,-109,-82,-141,-156,-156,-131,-102
-102,-151,-48,126,-26,-100,-34,-112,-136,-141,-117,-102
-102,-141,-39,122,-31,-90,14,-78,-107,-122,-112,-97
-107,-126,-19,117,-43,-73,19,-39,-82,-112,-112,-92
-107,-112,-4,109,-51,-58,19,-19,-73,-107,-107,-92
-102,-112,-9,107,-46,-61,34,-19,-73,-107,-107,-97
-102,-112,-9,107,-46,-61,48,-9,-63,-102,-107,-97
-97,-112,-14,104,-41,-63,58,9,-53,-102,-107,-97
-92,-112,-19,102,-36,-65,63,24,-53,-102,-107,-102
-92,-107,-14,100,-39,-61,63,29,-48,-97,-107,-107
-87,-107,-19,97,-34,-63,68,29,-43,-97,-107,-107
-82,-107,-24,95,-29,-65,68,39,-43,-87,-107,-107
-78,-102,-24,90,-26,-63,68,43,-39,-87,-107,-107
-78,-97,-19,87,-29,-58,68,39,-34,-87,-102,-102
-78,-97,-19,87,-29,-58,73,39,-29,-82,-97,-102
-73,-92,-19,82,-26,-56,73,43,-24,-78,-97,-92
-78,-92,-14,85,-31,-53,73,48,-19,-78,-92,-87
-68,-87,-19,78,-24,-53,73,53,-14,-73,-87,-87
-68,-87,-19,78,-24,-53,73,53,-14,-73,-87,-82
-68,-78,-9,73,-29,-43,78,58,-9,-63,-82,-78
-63,-73,-9,68,-26,-41,82,73,-4,-58,-78,-78
-53,-68,-14,61,-19,-41,82,78,4,-58,-73,-78
-48,-58,-9,53,-19,-34,82,78,4,-58,-68,-68
-48,-53,-4,51,-21,-29,82,82,19,-53,-63,-68
-43,-48,-4,46,-19,-26,82,92,19,-43,-63,-68
-43,-48,-4,46,-19,-26,82,102,19,-39,-63,-68
-39,-34,4,36,-21,-14,87,107,24,-29,-48,-58
-39,-34,4,36,-21,-14,97,117,34,-29,-43,-48
-29,-24,4,26,-17,-9,102,122,43,-19,-43,-48
-19,-14,4,17,-12,-4,102,131,53,-9,-34,-48
-19,0,19,9,-19,9,102,131,58,-4,-29,-43
-14,4,19,4,-17,12,107,146,68,4,-24,-34
-9,9,19,0,-14,14,112,156,78,14,-19,-34
-4,24,29,-9,-17,26,117,165,87,24,-9,-29
9,29,19,-19,-4,24,117,180,97,29,0,-19
14,39,24,-26,-4,31,122,200,117,43,9,-9
19,39,19,-29,0,29,126,209,122,48,19,-4
19,53,34,-36,-7,43,126,224,136,68,24,0
24,53,29,-39,-2,41,131,244,151,78,34,9
43,73,29,-58,7,51,131,263,170,92,43,19
68,102,34,-85,17,68,131,287,185,107,63,29
73,112,39,-92,17,75,131,297,200,122,73,43
82,126,43,-104,19,85,136,322,219,136,82,53
102,141,39,-122,31,90,136,336,239,151,92,58
112,161,48,-136,31,104,136,356,253,170,102,63
131,175,43,-153,43,109,141,370,273,190,131,82
141,185,43,-163,48,114,141,385,292,214,151,92
156,214,58,-185,48,136,141,405,307,239,161,112
161,229,68,-195,46,148,136,414,322,258,180,131
190,248,58,-219,65,153,141,429,331,278,204,146
214,263,48,-239,82,156,141,439,351,292,219,156
224,273,48,-248,87,161,141,453,366,307,234,165
239,292,53,-265,92,173,131,468,380,322,248,180
253,302,48,-278,102,175,122,468,390,341,268,190
263,317,53,-290,104,185,112,468,395,356,278,204
268,331,63,-300,102,197,107,468,405,361,287,214
273,341,68,-307,102,204,97,458,409,370,297,224
278,341,63,-309,107,202,87,444,395,370,297,229
273,341,68,-307,102,204,78,424,385,366,297,239
268,331,63,-300,102,197,68,395,375,356,292,229
248,312,63,-280,92,187,63,366,356,341,273,219
229,287,58,-258,85,173,53,331,326,312,248,214
214,258,43,-236,85,151,48,297,292,283,219,200
180,234,53,-207,63,143,43,248,248,244,195,170
156,190,34,-173,61,112,34,209,214,204,165,151
126,161,34,-143,46,97,34,170,180,165,136,117
102,131,29,-117,36,80,24,136,146,131,102,82
82,102,19,-92,31,61,19,92,112,92,68,63
48,73,24,-61,12,48,19,58,82,63,43,43
34,48,14,-41,9,31,14,34,58,34,24,29
14,24,9,-19,2,17,14,14,29,9,4,9
4,4,0,-4,2,2,14,0,9,-9,-14,0
-9,-14,-4,12,-2,-9,9,-14,0,-29,-24,-19
-19,-34,-14,26,-2,-24,14,-24,-14,-43,-34,-29
-24,-39,-14,31,-4,-26,14,-34,-24,-53,-43,-43
-34,-48,-14,41,-9,-31,14,-48,-34,-68,-53,-43
-39,-58,-19,48,-9,-39,14,-58,-48,-78,-68,-48
-48,-63,-14,56,-17,-39,14,-68,-53,-78,-73,-63
-53,-68,-14,61,-19,-41,14,-73,-63,-82,-73,-68
-53,-73,-19,63,-17,-46,9,-73,-63,-82,-78,-63
-53,-73,-19,63,-17,-46,9,-73,-63,-82,-78,-63
-48,-68,-19,58,-14,-43,4,-73,-63,-87,-78,-68
-48,-68,-19,58,-14,-43,4,-73,-68,-82,-78,-68
-43,-68,-24,56,-9,-46,4,-73,-68,-82,-78,-68
-39,-68,-29,53,-4,-48,4,-73,-68,-87,-78,-68
-39,-58,-19,48,-9,-39,0,-73,-68,-87,-82,-68
-43,-48,-4,46,-19,-26,0,-78,-68,-82,-82,-68
-53,-68,-14,61,-19,-41,0,-82,-73,-82,-87,-73
-63,-78,-14,70,-24,-46,0,-82,-78,-92,-92,-73
-73,-82,-9,78,-31,-46,0,-78,-78,-92,-92,-73
-73,-82,-9,78,-31,-46,0,-82,-78,-97,-92,-73
-68,-78,-9,73,-29,-43,0,-82,-78,-97,-92,-73
-63,-73,-9,68,-26,-41,0,-78,-78,-92,-92,-73
-63,-73,-9,68,-26,-41,4,-73,-73,-87,-87,-73
-63,-73,-9,68,-26,-41,4,-68,-73,-87,-87,-68
-58,-73,-14,65,-21,-43,4,-68,-68,-82,-87,-68
-58,-73,-14,65,-21,-43,9,-68,-63,-82,-87,-68
-58,-73,-14,65,-21,-43,9,-68,-63,-87,-87,-68
-58,-73,-14,65,-21,-43,9,-63,-63,-87,-87,-68
-58,-63,-4,61,-26,-34,9,-63,-63,-82,-87,-68
-63,-63,0,63,-31,-31,9,-63,-58,-82,-87,-68
-58,-63,-4,61,-26,-34,9,-58,-58,-78,-82,-68
-58,-63,-4,61,-26,-34,14,-58,-58,-78,-82,-68
-58,-63,-4,61,-26,-34,14,-53,-58,-82,-82,-68
-53,-53,0,53,-26,-26,14,-48,-53,-82,-82,-68
-53,-58,-4,56,-24,-31,14,-48,-53,-78,-78,-68
-53,-48,4,51,-29,-21,14,-48,-53,-73,-73,-68
-53,-43,9,48,-31,-17,19,-43,-53,-73,-73,-68
-48,-39,9,43,-29,-14,19,-39,-43,-68,-68,-63
-39,-39,0,39,-19,-19,19,-34,-43,-68,-68,-58
-24,-39,-14,31,-4,-26,19,-34,-48,-68,-68,-53
-39,-48,-9,43,-14,-29,19,-39,-48,-68,-73,-53
-53,-58,-4,56,-24,-31,19,-43,-48,-78,-78,-58
-63,-63,0,63,-31,-31,19,-43,-48,-78,-78,-63
-73,-68,4,70,-39,-31,19,-43,-48,-73,-78,-68
-63,-63,0,63,-31,-31,24,-34,-48,-73,-82,-68
-53,-63,-9,58,-21,-36,29,-29,-43,-73,-82,-68
-53,-58,-4,56,-24,-31,24,-29,-43,-73,-73,-63
-53,-53,0,53,-26,-26,24,-29,-43,-73,-73,-63
-53,-53,0,53,-26,-26,24,-29,-48,-73,-73,-63
-53,-53,0,53,-26,-26,24,-29,-48,-73,-73,-63
-53,-53,0,53,-26,-26,24,-34,-48,-73,-73,-63
-53,-58,-4,56,-24,-31,19,-34,-48,-73,-73,-63
-53,-53,0,53,-26,-26,14,-34,-48,-73,-73,-63
-53,-53,0,53,-26,-26,9,-34,-48,-78,-73,-63
-48,-53,-4,51,-21,-29,9,-34,-48,-78,-68,-63
-43,-53,-9,48,-17,-31,9,-34,-53,-73,-68,-63
-48,-53,-4,51,-21,-29,9,-39,-53,-73,-68,-63
-48,-53,-4,51,-21,-29,9,-39,-53,-78,-68,-63
-48,-53,-4,51,-21,-29,4,-39,-53,-78,-68,-63
-53,-53,0,53,-26,-26,4,-39,-58,-78,-73,-63
-53,-58,-4,56,-24,-31,4,-39,-58,-82,-78,-63
-53,-63,-9,58,-21,-36,4,-39,-58,-82,-82,-63
-53,-63,-9,58,-21,-36,4,-43,-58,-78,-78,-63
-53,-63,-9,58,-21,-36,4,-43,-58,-78,-78,-63
-48,-58,-9,53,-19,-34,4,-39,-68,-78,-82,-68
-43,-58,-14,51,-14,-36,4,-34,-68,-78,-87,-73
-48,-63,-14,56,-17,-39,4,-39,-68,-78,-87,-73
-48,-63,-14,56,-17,-39,0,-39,-68,-78,-82,-73
-53,-63,-9,58,-21,-36,0,-43,-73,-82,-82,-73
-53,-58,-4,56,-24,-31,0,-48,-73,-87,-82,-73
-53,-58,-4,56,-24,-31,0,-48,-68,-87,-82,-73
-53,-63,-9,58,-21,-36,0,-48,-68,-87,-82,-73
-48,-63,-14,56,-17,-39,0,-48,-68,-87,-82,-73
-43,-63,-19,53,-12,-41,0,-43,-68,-92,-82,-73
-43,-63,-19,53,-12,-41,0,-43,-68,-92,-82,-73
-43,-63,-19,53,-12,-41,0,-43,-63,-92,-82,-73
-53,-63,-9,58,-21,-36,0,-43,-68,-92,-87,-73
-53,-58,-4,56,-24,-31,4,-43,-68,-87,-92,-68
-53,-58,-4,56,-24,-31,-4,-39,-68,-87,-87,-68
-58,-63,-4,61,-26,-34,-9,-43,-68,-92,-82,-68
-63,-73,-9,68,-26,-41,-9,-43,-68,-97,-82,-73
-68,-68,0,68,-34,-34,-4,-48,-68,-102,-87,-78
-58,-73,-14,65,-21,-43,-4,-48,-73,-102,-92,-73
-58,-73,-14,65,-21,-43,0,-53,-73,-107,-92,-78
-58,-68,-9,63,-24,-39,0,-58,-73,-102,-92,-82
-58,-58,0,58,-29,-29,0,-48,-68,-92,-87,-73
-53,-53,0,53,-26,-26,4,-43,-68,-92,-87,-73
-48,-48,0,48,-24,-24,9,-43,-68,-92,-92,-78
-34,-19,14,26,-24,-2,19,-24,-53,-78,-73,-63
-19,9,29,4,-24,19,29,-9,-39,-68,-58,-48
-19,19,39,0,-29,29,43,0,-29,-58,-53,-39
-19,29,48,-4,-34,39,58,9,-19,-48,-48,-29
-19,29,48,-4,-34,39,63,14,-14,-43,-48,-29
-14,43,58,-14,-36,51,68,14,-9,-34,-39,-24
-14,58,73,-21,-43,65,73,19,-4,-29,-34,-19
-9,78,87,-34,-48,82,68,24,4,-24,-29,-14
-4,78,82,-36,-43,80,63,24,4,-14,-24,-4
19,122,102,-70,-41,112,53,29,29,0,4,19
58,165,107,-112,-24,136,34,34,48,24,29,43
78,151,73,-114,2,112,9,34,39,19,24,43
68,117,48,-92,9,82,-4,24,24,19,24,39
58,97,39,-78,9,68,-9,14,9,4,14,19
43,73,29,-58,7,51,-9,9,-4,-14,4,14
34,63,29,-48,2,46,-4,4,-14,-24,-4,9
14,43,29,-29,-7,36,-4,-4,-19,-24,-9,4
9,9,0,-9,4,4,-4,-14,-29,-34,-14,-4
4,-9,-14,2,9,-12,-14,-24,-53,-58,-29,-14
0,-19,-19,9,9,-19,-14,-34,-63,-68,-43,-19
-19,-24,-4,21,-7,-14,-14,-43,-73,-73,-53,-24
-43,-34,9,39,-26,-12,-14,-53,-82,-87,-58,-39
-63,-48,14,56,-39,-17,-14,-63,-87,-102,-68,-53
-78,-82,-4,80,-36,-43,-14,-78,-102,-122,-92,-73
-78,-92,-14,85,-31,-53,-14,-78,-107,-126,-102,-92
-78,-102,-24,90,-26,-63,-14,-78,-107,-126,-102,-97
-73,-97,-24,85,-24,-61,-14,-82,-112,-126,-102,-97
-68,-97,-29,82,-19,-63,-14,-82,-112,-131,-107,-97
-68,-92,-24,80,-21,-58,-9,-82,-117,-131,-107,-102
-73,-92,-19,82,-26,-56,-4,-82,-117,-131,-107,-102
-78,-102,-24,90,-26,-63,0,-78,-122,-136,-112,-107
-87,-107,-19,97,-34,-63,0,-73,-122,-136,-112,-107
-87,-112,-24,100,-31,-68,0,-73,-122,-136,-117,-107
-87,-117,-29,102,-29,-73,0,-73,-122,-141,-117,-102
-92,-122,-29,107,-31,-75,4,-73,-117,-141,-122,-107
-92,-122,-29,107,-31,-75,4,-73,-112,-141,-122,-107
-92,-126,-34,109,-29,-80,9,-73,-112,-141,-122,-107
-92,-126,-34,109,-29,-80,9,-68,-112,-141,-122,-107
-92,-117,-24,104,-34,-70,4,-68,-112,-136,-122,-107
-92,-112,-19,102,-36,-65,4,-68,-112,-136,-126,-112
-92,-112,-19,102,-36,-65,4,-68,-112,-136,-126,-112
-92,-112,-19,102,-36,-65,9,-63,-112,-136,-122,-112
-92,-117,-24,104,-34,-70,9,-58,-112,-136,-122,-112
-92,-117,-24,104,-34,-70,9,-58,-112,-136,-126,-112
-82,-126,-43,104,-19,-85,9,-53,-112,-141,-131,-122
-68,-141,-73,104,2,-107,14,-43,-112,-146,-141,-131
-58,-151,-92,104,17,-122,9,-14,-107,-146,-146,-141
-34,-156,-122,95,43,-139,4,9,-97,-141,-151,-156
48,-117,-165,34,107,-141,-68,-9,-82,-107,-122,-131
131,-19,-151,-56,141,-85,-165,-58,-43,-19,-29,-48
253,126,-126,-190,190,0,-346,-190,-19,117,117,97
444,331,-112,-387,278,109,-692,-458,-39,268,317,317
683,624,-58,-653,370,283,-1063,-722,19,527,629,624
858,912,53,-885,402,483,-1376,-912,146,819,961,946
883,1049,165,-966,358,607,-1444,-936,273,1044,1195,1180
795,941,146,-868,324,544,-1351,-878,263,1083,1254,1254
663,844,180,-753,241,512,-1190,-775,214,1005,1200,1234
458,492,34,-475,212,263,-907,-644,-82,497,785,932
161,253,92,-207,34,173,-658,-702,-336,68,395,605
-92,122,214,-14,-153,168,-390,-624,-380,-175,92,278
-136,29,165,53,-151,97,-258,-458,-307,-190,-19,102
-136,-68,68,102,-102,0,-165,-336,-263,-200,-87,-14
-126,-131,-4,129,-61,-68,-87,-229,-204,-180,-112,-73
-92,-131,-39,112,-26,-85,-53,-146,-156,-161,-112,-82
-78,-131,-53,104,-12,-92,-14,-82,-131,-146,-112,-92
-82,-122,-39,102,-21,-80,24,-53,-117,-131,-97,-92
-82,-112,-29,97,-26,-70,63,-19,-87,-117,-92,-87
-87,-97,-9,92,-39,-53,68,14,-63,-112,-92,-82
-92,-87,4,90,-48,-41,68,24,-58,-107,-92,-82
-92,-92,0,92,-46,-46,82,19,-63,-107,-97,-87
-92,-92,0,92,-46,-46,92,29,-53,-102,-97,-87
-92,-92,0,92,-46,-46,92,39,-43,-102,-97,-87
-82,-87,-4,85,-39,-46,92,43,-39,-102,-92,-92
-73,-78,-4,75,-34,-41,92,48,-29,-97,-87,-92
-68,-78,-9,73,-29,-43,102,48,-24,-97,-87,-87
-68,-78,-9,73,-29,-43,107,58,-24,-87,-87,-87
-68,-73,-4,70,-31,-39,107,68,-19,-87,-87,-87
-68,-68,0,68,-34,-34,107,73,-14,-87,-82,-82
-68,-68,0,68,-34,-34,112,78,-14,-82,-78,-78
-58,-58,0,58,-29,-29,112,82,-14,-78,-78,-68
-58,-53,4,56,-31,-24,112,87,-9,-78,-73,-68
-48,-48,0,48,-24,-24,112,92,-4,-73,-68,-68
-48,-48,0,48,-24,-24,107,92,0,-73,-68,-63
-48,-39,9,43,-29,-14,107,97,9,-63,-63,-58
-43,-34,9,39,-26,-12,112,112,14,-58,-58,-58
-39,-34,4,36,-21,-14,112,117,24,-53,-53,-58
-39,-29,9,34,-24,-9,112,117,24,-48,-48,-48
-39,-24,14,31,-26,-4,112,122,39,-43,-43,-48
-39,-19,19,29,-29,0,112,131,39,-34,-43,-48
-43,-19,24,31,-34,2,112,141,43,-29,-43,-48
-39,-4,34,21,-36,14,117,146,53,-19,-29,-39
-39,-4,34,21,-36,14,122,156,63,-19,-24,-29
-24,9,34,7,-29,21,122,165,73,-9,-19,-29
-9,19,29,-4,-19,24,122,185,82,0,-4,-29
-9,29,39,-9,-24,34,126,190,87,4,0,-29
-4,34,39,-14,-21,36,136,204,97,14,4,-24
-4,34,39,-14,-21,36,141,214,102,24,4,-24
-4,43,48,-19,-26,46,146,224,107,34,9,-19
9,48,39,-29,-14,43,146,239,117,43,19,-4
14,58,43,-36,-14,51,151,258,136,63,29,9
24,63,39,-43,-7,51,156,268,146,68,43,14
39,92,53,-65,-7,73,156,283,165,87,53,19
53,102,48,-78,2,75,161,302,180,97,63,29
63,112,48,-87,7,80,165,322,200,112,73,39
78,131,53,-104,12,92,170,346,214,126,92,48
82,141,58,-112,12,100,170,356,229,146,102,63
92,156,63,-124,14,109,175,380,248,165,112,73
112,170,58,-141,26,114,175,395,268,180,126,82
122,190,68,-156,26,129,175,414,283,204,141,92
141,209,68,-175,36,139,180,429,302,229,170,112
151,224,73,-187,39,148,180,444,322,253,190,126
175,253,78,-214,48,165,180,463,336,273,200,146
190,268,78,-229,56,173,175,473,356,287,219,161
209,287,78,-248,65,183,175,488,370,307,239,175
224,302,78,-263,73,190,170,497,390,322,253,185
229,312,82,-270,73,197,170,507,400,336,273,195
239,331,92,-285,73,212,161,512,409,351,287,209
253,341,87,-297,82,214,151,507,419,366,302,219
263,351,87,-307,87,219,141,507,424,375,307,229
268,351,82,-309,92,217,136,502,429,380,317,229
273,351,78,-312,97,214,126,488,429,390,326,234
273,351,78,-312,97,214,117,473,414,390,326,239
263,351,87,-307,87,219,107,453,400,375,322,248
258,341,82,-300,87,212,97,419,380,351,312,239
239,322,82,-280,78,202,92,380,351,331,292,219
219,297,78,-258,70,187,82,341,317,302,268,200
204,268,63,-236,70,165,78,307,283,273,234,180
170,244,73,-207,48,158,73,263,239,234,204,151
141,190,48,-165,46,119,63,229,204,195,175,131
107,151,43,-129,31,97,63,190,170,156,146,102
82,122,39,-102,21,80,53,156,131,122,112,73
68,92,24,-80,21,58,48,122,92,82,78,53
39,63,24,-51,7,43,48,97,63,53,53,34
24,39,14,-31,4,26,43,73,39,24,34,19
4,14,9,-9,-2,12,43,53,14,0,14,0
-4,-4,0,4,-2,-2,43,34,0,-19,-9,-9
-19,-24,-4,21,-7,-14,39,14,-9,-39,-24,-29
-29,-43,-14,36,-7,-29,39,4,-24,-53,-34,-39
-34,-48,-14,41,-9,-31,34,-4,-34,-63,-43,-53
-39,-53,-14,46,-12,-34,34,-14,-39,-73,-48,-53
-39,-53,-14,46,-12,-34,34,-14,-48,-78,-58,-58
-48,-53,-4,51,-21,-29,34,-19,-53,-78,-63,-68
-53,-58,-4,56,-24,-31,34,-24,-63,-82,-63,-68
-53,-63,-9,58,-21,-36,29,-24,-63,-82,-68,-63
-53,-63,-9,58,-21,-36,29,-29,-63,-82,-68,-58
-48,-58,-9,53,-19,-34,29,-34,-63,-92,-68,-58
-48,-58,-9,53,-19,-34,34,-34,-68,-92,-68,-58
-48,-58,-9,53,-19,-34,34,-34,-68,-92,-68,-58
-48,-63,-14,56,-17,-39,34,-34,-68,-97,-68,-58
-48,-68,-19,58,-14,-43,29,-34,-68,-97,-73,-58
-63,-68,-4,65,-29,-36,29,-39,-68,-92,-73,-58
-73,-78,-4,75,-34,-41,29,-43,-68,-92,-73,-63
-63,-78,-14,70,-24,-46,29,-43,-68,-92,-68,-58
-63,-82,-19,73,-21,-51,29,-34,-68,-82,-63,-53
-63,-82,-19,73,-21,-51,29,-34,-68,-87,-63,-53
-58,-78,-19,68,-19,-48,29,-34,-68,-87,-63,-53
-58,-73,-14,65,-21,-43,29,-29,-68,-87,-63,-58
-63,-73,-9,68,-26,-41,34,-29,-63,-87,-58,-63
-63,-73,-9,68,-26,-41,34,-29,-63,-87,-58,-58
-63,-73,-9,68,-26,-41,34,-29,-63,-82,-58,-58
-63,-73,-9,68,-26,-41,39,-29,-63,-82,-58,-58
-58,-73,-14,65,-21,-43,39,-29,-63,-87,-58,-58
-58,-73,-14,65,-21,-43,39,-24,-63,-87,-58,-58
-53,-63,-9,58,-21,-36,39,-24,-63,-82,-58,-58
-53,-63,-9,58,-21,-36,39,-24,-53,-82,-58,-58
-48,-63,-14,56,-17,-39,39,-19,-48,-78,-53,-58
-48,-63,-14,56,-17,-39,43,-19,-48,-78,-53,-53
-53,-63,-9,58,-21,-36,43,-19,-48,-82,-53,-48
-53,-53,0,53,-26,-26,43,-14,-48,-82,-53,-48
-53,-68,-14,61,-19,-41,43,-9,-53,-78,-53,-48
-58,-68,-9,63,-24,-39,43,-9,-53,-73,-53,-48
-63,-63,0,63,-31,-31,48,-4,-53,-73,-53,-48
-58,-58,0,58,-29,-29,48,-4,-43,-68,-48,-43
-58,-58,0,58,-29,-29,48,-4,-43,-68,-48,-43
-53,-58,-4,56,-24,-31,48,-4,-43,-68,-48,-43
-53,-58,-4,56,-24,-31,48,-4,-39,-68,-48,-43
-53,-58,-4,56,-24,-31,48,-4,-39,-73,-48,-48
-53,-58,-4,56,-24,-31,48,-4,-39,-68,-48,-48
-53,-63,-9,58,-21,-36,48,-4,-39,-63,-48,-48
-53,-63,-9,58,-21,-36,48,0,-39,-63,-53,-48
-53,-63,-9,58,-21,-36,53,-4,-34,-63,-53,-48
-53,-63,-9,58,-21,-36,53,-9,-34,-63,-43,-43
-53,-58,-4,56,-24,-31,53,-9,-34,-63,-43,-43
-53,-53,0,53,-26,-26,53,-9,-39,-63,-43,-43
-43,-48,-4,46,-19,-26,53,-4,-39,-63,-43,-43
-34,-43,-9,39,-12,-26,53,-4,-39,-63,-48,-43
-34,-48,-14,41,-9,-31,48,-4,-39,-63,-53,-48
-34,-48,-14,41,-9,-31,48,-4,-39,-63,-53,-53
-48,-63,-14,56,-17,-39,48,-4,-43,-68,-58,-53
-63,-73,-9,68,-26,-41,48,-4,-48,-68,-58,-53
-63,-73,-9,68,-26,-41,48,-4,-53,-63,-58,-53
-68,-73,-4,70,-31,-39,48,-9,-53,-63,-58,-53
-63,-73,-9,68,-26,-41,48,-9,-48,-68,-58,-53
-53,-73,-19,63,-17,-46,43,-9,-43,-68,-58,-53
-53,-73,-19,63,-17,-46,48,-9,-48,-68,-63,-53
-53,-73,-19,63,-17,-46,53,-9,-48,-68,-63,-53
-53,-73,-19,63,-17,-46,53,-9,-48,-68,-63,-53
-53,-73,-19,63,-17,-46,53,-14,-48,-68,-58,-53
-53,-73,-19,63,-17,-46,48,-14,-48,-68,-53,-53
-53,-73,-19,63,-17,-46,43,-14,-58,-73,-53,-53
-53,-78,-24,65,-14,-51,43,-14,-58,-78,-58,-53
-58,-82,-24,70,-17,-53,43,-19,-58,-78,-58,-53
-58,-82,-24,70,-17,-53,39,-19,-58,-78,-53,-53
-58,-82,-24,70,-17,-53,39,-19,-58,-78,-53,-53
-53,-73,-19,63,-17,-46,39,-19,-53,-73,-53,-53
-53,-68,-14,61,-19,-41,39,-19,-48,-68,-53,-53
-53,-73,-19,63,-17,-46,39,-14,-48,-68,-53,-53
-53,-73,-19,63,-17,-46,39,-14,-53,-68,-53,-53
-58,-73,-14,65,-21,-43,39,-14,-58,-73,-58,-53
-63,-73,-9,68,-26,-41,39,-14,-58,-73,-63,-53
-68,-78,-9,73,-29,-43,39,-19,-58,-78,-68,-53
-73,-78,-4,75,-34,-41,39,-24,-63,-82,-73,-53
-63,-73,-9,68,-26,-41,39,-24,-58,-78,-73,-53
-58,-73,-14,65,-21,-43,34,-14,-58,-73,-68,-58
-63,-78,-14,70,-24,-46,34,-19,-58,-78,-63,-58
-68,-82,-14,75,-26,-48,34,-19,-53,-78,-58,-58
-68,-78,-9,73,-29,-43,43,-19,-53,-78,-63,-63
-58,-82,-24,70,-17,-53,43,-14,-58,-78,-68,-58
-63,-82,-19,73,-21,-51,48,-14,-58,-82,-68,-58
-68,-78,-9,73,-29,-43,48,-14,-53,-78,-63,-58
-68,-82,-14,75,-26,-48,53,-14,-53,-78,-63,-63
-63,-82,-19,73,-21,-51,53,-14,-53,-78,-63,-53
-48,-68,-19,58,-14,-43,53,-9,-53,-78,-63,-39
-39,-68,-29,53,-4,-48,53,-4,-48,-73,-58,-39
-29,-53,-24,41,-2,-39,68,9,-34,-58,-43,-39
-24,-39,-14,31,-4,-26,78,24,-24,-48,-34,-34
-24,-9,14,17,-19,2,102,34,-4,-29,-24,-19
-24,9,34,7,-29,21,122,48,9,-19,-19,-4
-19,29,48,-4,-34,39,131,63,19,-14,-4,0
-19,29,48,-4,-34,39,136,68,24,-14,4,4
0,29,29,-14,-14,29,122,68,24,-9,0,9
9,48,39,-29,-14,43,122,63,29,0,4,14
29,122,92,-75,-31,107,107,78,58,29,48,43
39,146,107,-92,-34,126,87,82,78,43,53,63
43,122,78,-82,-17,100,63,73,63,34,48,58
48,97,48,-73,0,73,39,68,48,29,48,58
48,87,39,-68,4,63,39,63,39,19,39,43
48,78,29,-63,9,53,39,58,29,9,29,29
43,73,29,-58,7,51,39,48,24,4,29,29
39,68,29,-53,4,48,39,39,19,0,29,29
24,29,4,-26,9,17,34,24,0,-19,9,14
9,-9,-19,0,14,-14,29,9,-19,-39,-9,0
4,-14,-19,4,12,-17,29,4,-29,-43,-14,0
0,-19,-19,9,9,-19,29,0,-39,-48,-19,0
-19,-29,-9,24,-4,-19,29,-14,-43,-53,-29,-9
-39,-39,0,39,-19,-19,29,-29,-48,-58,-39,-19
-58,-68,-9,63,-24,-39,34,-34,-58,-78,-53,-39
-78,-97,-19,87,-29,-58,39,-39,-68,-97,-68,-58
-82,-107,-24,95,-29,-65,39,-39,-73,-97,-68,-63
-87,-117,-29,102,-29,-73,39,-39,-78,-97,-68,-68
-87,-117,-29,102,-29,-73,39,-39,-78,-97,-73,-68
-87,-117,-29,102,-29,-73,39,-39,-78,-97,-78,-68
-92,-122,-29,107,-31,-75,39,-39,-78,-97,-78,-68
-97,-126,-29,112,-34,-78,39,-39,-78,-97,-78,-68
-97,-126,-29,112,-34,-78,39,-34,-78,-97,-78,-73
-97,-126,-29,112,-34,-78,39,-29,-78,-97,-78,-78
-97,-126,-29,112,-34,-78,39,-29,-78,-102,-78,-78
-97,-126,-29,112,-34,-78,39,-29,-78,-107,-78,-78
-97,-126,-29,112,-34,-78,48,-29,-78,-107,-78,-78
-97,-126,-29,112,-34,-78,58,-29,-78,-107,-78,-78
-92,-126,-34,109,-29,-80,58,-29,-78,-107,-78,-78
-87,-126,-39,107,-24,-82,58,-29,-78,-107,-78,-78
-78,-126,-48,102,-14,-87,58,-29,-78,-107,-78,-78
-68,-126,-58,97,-4,-92,58,-29,-78,-107,-78,-78
-82,-131,-48,107,-17,-90,53,-29,-82,-107,-82,-78
-97,-136,-39,117,-29,-87,48,-29,-87,-107,-87,-78
-107,-141,-34,124,-36,-87,48,-29,-87,-107,-92,-82
-117,-146,-29,131,-43,-87,48,-29,-87,-107,-97,-87
-102,-156,-53,129,-24,-104,48,-9,-87,-117,-102,-97
-87,-165,-78,126,-4,-122,48,9,-87,-126,-107,-107
-43,-156,-112,100,34,-134,29,29,-73,-112,-107,-107
0,-146,-146,73,73,-146,9,48,-58,-97,-107,-107
107,-43,-151,-31,129,-97,-112,-24,-34,-14,-14,-29
214,58,-156,-136,185,-48,-234,-97,-9,68,78,48
419,278,-141,-348,280,68,-570,-346,4,248,302,287
624,497,-126,-561,375,185,-907,-595,19,429,527,527
756,732,-24,-744,390,353,-1151,-751,126,692,814,814
888,966,78,-927,405,522,-1395,-907,234,956,1102,1102
888,966,78,-927,405,522,-1395,-907,234,956,1102,1102
