I, II, III, aVR, aVL, aVF, V1, V2, V3, V4, V5, V6
14,-4,-19,-4,17,-12,-19,-14,-19,-19,-19,-14
14,-14,-29,0,21,-21,-14,-19,-24,-19,-24,-19
9,-19,-29,4,19,-24,-19,-24,-29,-29,-29,-29
-14,-34,-19,24,2,-26,0,-24,-29,-29,-39,-39
-39,-48,-9,43,-14,-29,4,-34,-43,-34,-48,-48
-58,-58,0,58,-29,-29,24,-39,-48,-39,-53,-53
-73,-73,0,73,-36,-36,34,-43,-63,-48,-68,-68
-92,-78,14,85,-53,-31,34,-58,-78,-58,-78,-78
-107,-87,19,97,-63,-34,34,-68,-87,-68,-87,-87
-107,-87,19,97,-63,-34,34,-68,-92,-78,-87,-87
-107,-87,19,97,-63,-34,34,-68,-92,-82,-92,-87
-107,-87,19,97,-63,-34,34,-68,-87,-82,-92,-87
-107,-87,19,97,-63,-34,34,-73,-87,-82,-92,-92
-112,-87,24,100,-68,-31,39,-68,-87,-82,-92,-92
-112,-87,24,100,-68,-31,39,-63,-87,-82,-92,-97
-117,-87,29,102,-73,-29,39,-68,-92,-87,-97,-97
-122,-87,34,104,-78,-26,39,-68,-92,-87,-97,-97
-122,-92,29,107,-75,-31,43,-68,-92,-87,-97,-97
-122,-92,29,107,-75,-31,43,-63,-92,-87,-97,-97
-122,-87,34,104,-78,-26,43,-63,-97,-87,-97,-97
-122,-82,39,102,-80,-21,43,-68,-102,-87,-97,-97
-122,-82,39,102,-80,-21,43,-73,-102,-87,-97,-97
-126,-82,43,104,-85,-19,43,-78,-102,-87,-102,-97
-126,-82,43,104,-85,-19,48,-78,-97,-87,-102,-92
-131,-82,48,107,-90,-17,48,-78,-92,-87,-102,-92
-156,-87,68,122,-112,-9,68,-78,-82,-87,-102,-97
-190,-87,102,139,-146,7,102,-73,-78,-82,-102,-112
-204,-82,122,143,-163,19,122,-53,-58,-63,-102,-117
-200,-58,141,129,-170,41,131,4,9,-9,-58,-82
-102,-34,68,68,-85,17,151,165,190,107,48,4
102,0,-102,-51,102,-51,126,429,502,283,214,131
434,97,-336,-265,385,-119,19,663,849,507,448,336
805,248,-556,-527,680,-153,-229,629,980,707,683,570
1293,463,-829,-878,1061,-183,-658,536,1024,888,941,873
1615,653,-961,-1134,1288,-153,-1044,341,863,922,1058,1058
1566,644,-922,-1105,1244,-139,-1195,9,380,595,795,902
1220,561,-658,-890,939,-48,-1093,-453,-219,248,463,653
673,448,-224,-561,448,112,-932,-1073,-946,-92,146,400
287,375,87,-331,100,231,-795,-1342,-1244,-190,43,297
253,326,73,-290,90,200,-736,-1058,-1044,-175,34,263
234,297,63,-265,85,180,-624,-741,-756,-122,39,234
156,219,63,-187,46,141,-444,-517,-551,-117,0,141
68,156,87,-112,-9,122,-287,-361,-400,-107,-19,82
-4,73,78,-34,-41,75,-175,-234,-268,-102,-48,19
-39,24,63,7,-51,43,-87,-151,-180,-97,-68,-14
-63,-4,58,34,-61,26,-14,-117,-141,-82,-73,-39
-78,-39,39,58,-58,0,24,-82,-102,-68,-73,-53
-97,-48,48,73,-73,0,24,-68,-92,-68,-73,-58
-107,-48,58,78,-82,4,34,-68,-92,-73,-78,-68
-117,-48,68,82,-92,9,48,-68,-92,-82,-92,-82
-117,-58,58,87,-87,0,58,-58,-87,-87,-97,-97
-126,-68,58,97,-92,-4,58,-48,-78,-87,-97,-97
-126,-68,58,97,-92,-4,53,-48,-73,-87,-97,-97
-126,-68,58,97,-92,-4,63,-43,-73,-87,-97,-97
-131,-73,58,102,-95,-7,63,-39,-73,-92,-97,-102
-131,-78,53,104,-92,-12,73,-34,-68,-92,-97,-102
-131,-78,53,104,-92,-12,78,-29,-63,-87,-97,-102
-131,-73,58,102,-95,-7,78,-29,-58,-87,-97,-102
-131,-73,58,102,-95,-7,78,-29,-58,-87,-92,-102
-131,-73,58,102,-95,-7,78,-24,-58,-87,-92,-102
-131,-73,58,102,-95,-7,78,-24,-53,-87,-87,-102
-126,-68,58,97,-92,-4,78,-14,-48,-87,-87,-97
-122,-68,53,95,-87,-7,78,-14,-43,-82,-87,-97
-122,-68,53,95,-87,-7,78,-14,-43,-82,-92,-97
-122,-68,53,95,-87,-7,78,-9,-39,-82,-92,-92
-117,-73,43,95,-80,-14,78,-4,-39,-78,-92,-92
-117,-78,39,97,-78,-19,78,-4,-34,-78,-92,-92
-112,-78,34,95,-73,-21,78,0,-34,-78,-87,-92
-107,-78,29,92,-68,-24,78,9,-24,-78,-87,-92
-107,-68,39,87,-73,-14,78,9,-19,-78,-78,-87
-102,-63,39,82,-70,-12,73,14,-19,-73,-73,-82
-97,-63,34,80,-65,-14,73,24,-14,-68,-68,-82
-92,-63,29,78,-61,-17,73,29,-4,-68,-68,-82
-92,-63,29,78,-61,-17,68,39,4,-68,-68,-78
-82,-53,29,68,-56,-12,63,43,4,-63,-73,-73
-78,-53,24,65,-51,-14,58,53,9,-63,-68,-73
-68,-48,19,58,-43,-14,58,58,14,-53,-63,-68
-63,-43,19,53,-41,-12,53,68,24,-48,-58,-63
-53,-43,9,48,-31,-17,53,78,29,-39,-53,-58
-34,-29,4,31,-19,-12,53,92,43,-39,-43,-53
-24,-29,-4,26,-9,-17,48,102,63,-34,-34,-43
-14,-24,-9,19,-2,-17,48,117,73,-24,-29,-29
0,-14,-14,7,7,-14,43,131,87,-19,-19,-19
9,-9,-19,0,14,-14,39,141,97,-9,-14,-14
24,0,-24,-12,24,-12,34,161,102,-4,-4,-4
39,4,-34,-21,36,-14,29,180,112,9,4,0
53,4,-48,-29,51,-21,24,195,126,19,19,4
68,14,-53,-41,61,-19,19,204,136,29,29,19
78,19,-58,-48,68,-19,9,219,151,34,39,24
97,34,-63,-65,80,-14,0,234,161,39,48,39
112,43,-68,-78,90,-12,0,244,175,43,58,53
131,48,-82,-90,107,-17,-9,253,190,53,73,63
146,63,-82,-104,114,-9,-14,258,204,63,82,68
165,68,-97,-117,131,-14,-19,263,214,73,87,82
180,73,-107,-126,143,-17,-24,273,224,82,92,92
190,82,-107,-136,148,-12,-39,278,224,92,102,97
200,92,-107,-146,153,-7,-39,283,234,102,112,102
200,92,-107,-146,153,-7,-39,268,234,102,117,112
195,92,-102,-143,148,-4,-39,258,224,107,122,112
185,92,-92,-139,139,0,-39,239,219,112,122,112
175,87,-87,-131,131,0,-29,219,209,112,117,102
151,82,-68,-117,109,7,-29,204,200,97,107,97
131,73,-58,-102,95,7,-24,185,185,92,97,87
112,63,-48,-87,80,7,-14,151,161,82,87,73
92,53,-39,-73,65,7,-4,122,146,73,68,63
68,43,-24,-56,46,9,4,107,126,63,58,48
43,34,-9,-39,26,12,19,87,107,48,39,34
29,24,-4,-26,17,9,24,68,87,43,34,24
9,14,4,-12,2,9,29,53,73,39,29,9
0,9,9,-4,-4,9,29,43,58,29,14,0
-9,9,19,0,-14,14,34,34,39,19,4,-4
-19,4,24,7,-21,14,39,19,29,9,-9,-14
-24,0,24,12,-24,12,39,9,19,4,-19,-19
-34,-9,24,21,-29,7,39,4,9,4,-24,-29
-39,-19,19,29,-29,0,39,0,9,4,-24,-34
-39,-19,19,29,-29,0,43,0,4,-4,-24,-34
-43,-24,19,34,-31,-2,43,-4,4,-9,-24,-34
-48,-24,24,36,-36,0,43,-4,0,-14,-29,-34
-53,-24,29,39,-41,2,43,-4,0,-14,-29,-34
-53,-24,29,39,-41,2,43,-4,0,-14,-29,-39
-53,-29,24,41,-39,-2,43,-4,-4,-14,-29,-39
-53,-29,24,41,-39,-2,43,-9,-4,-14,-29,-39
-53,-29,24,41,-39,-2,43,-14,-4,-14,-29,-39
-53,-29,24,41,-39,-2,39,-14,-4,-14,-29,-39
-53,-29,24,41,-39,-2,39,-14,-4,-14,-29,-39
-48,-29,19,39,-34,-4,39,-9,-4,-9,-29,-34
-48,-29,19,39,-34,-4,39,-4,-4,-4,-29,-29
-43,-29,14,36,-29,-7,39,-4,-4,-4,-29,-29
-43,-24,19,34,-31,-2,39,-4,0,-4,-29,-29
-48,-24,24,36,-36,0,39,-4,0,-4,-24,-29
-48,-24,24,36,-36,0,39,-4,0,-4,-19,-29
-48,-24,24,36,-36,0,39,-4,0,-4,-19,-29
-48,-24,24,36,-36,0,39,-4,0,-4,-19,-29
-48,-24,24,36,-36,0,43,-4,0,-9,-19,-34
-43,-24,19,34,-31,-2,43,-4,0,-14,-19,-39
-43,-24,19,34,-31,-2,43,-4,0,-14,-19,-39
-43,-24,19,34,-31,-2,43,-4,0,-14,-19,-39
-43,-24,19,34,-31,-2,43,-4,0,-14,-24,-39
-48,-24,24,36,-36,0,39,-4,0,-14,-29,-34
-48,-24,24,36,-36,0,39,-4,-4,-9,-29,-34
-48,-24,24,36,-36,0,39,-4,-4,-9,-29,-34
-48,-24,24,36,-36,0,39,-4,-4,-14,-29,-39
-48,-24,24,36,-36,0,39,-4,-4,-14,-29,-39
-48,-24,24,36,-36,0,34,-4,-4,-14,-29,-39
-48,-24,24,36,-36,0,34,-4,-4,-14,-29,-34
-48,-24,24,36,-36,0,34,-9,-4,-14,-29,-34
-48,-24,24,36,-36,0,39,-9,-9,-14,-29,-39
-53,-24,29,39,-41,2,39,-9,-9,-14,-29,-39
-53,-24,29,39,-41,2,39,-14,-9,-14,-29,-39
-53,-29,24,41,-39,-2,39,-14,-9,-19,-34,-39
-53,-29,24,41,-39,-2,39,-14,-14,-29,-39,-39
-58,-29,29,43,-43,0,39,-14,-14,-29,-39,-39
-58,-29,29,43,-43,0,39,-19,-19,-29,-39,-43
-53,-29,24,41,-39,-2,39,-19,-19,-29,-39,-43
-53,-29,24,41,-39,-2,34,-19,-19,-34,-34,-43
-58,-34,24,46,-41,-4,34,-19,-19,-34,-34,-43
-58,-34,24,46,-41,-4,39,-24,-24,-34,-39,-43
-58,-34,24,46,-41,-4,39,-24,-24,-34,-39,-43
-58,-34,24,46,-41,-4,39,-24,-29,-34,-39,-48
-58,-34,24,46,-41,-4,34,-24,-29,-39,-39,-48
-63,-39,24,51,-43,-7,34,-24,-29,-39,-39,-48
-63,-39,24,51,-43,-7,34,-24,-34,-39,-43,-48
-63,-39,24,51,-43,-7,34,-29,-34,-39,-53,-48
-68,-39,29,53,-48,-4,34,-29,-34,-39,-53,-48
-68,-39,29,53,-48,-4,34,-29,-34,-39,-53,-53
-63,-39,24,51,-43,-7,39,-29,-34,-43,-53,-53
-63,-39,24,51,-43,-7,43,-29,-39,-48,-53,-53
-63,-39,24,51,-43,-7,43,-29,-39,-48,-48,-53
-68,-43,24,56,-46,-9,43,-34,-39,-48,-43,-53
-73,-43,29,58,-51,-7,43,-34,-43,-48,-43,-58
-73,-43,29,58,-51,-7,43,-34,-48,-48,-43,-63
-73,-43,29,58,-51,-7,39,-39,-48,-53,-53,-63
-73,-43,29,58,-51,-7,34,-43,-48,-53,-58,-63
-73,-43,29,58,-51,-7,39,-43,-53,-53,-58,-68
-73,-43,29,58,-51,-7,39,-48,-53,-53,-58,-68
-73,-48,24,61,-48,-12,39,-48,-48,-53,-58,-68
-73,-48,24,61,-48,-12,39,-48,-43,-53,-63,-68
-78,-48,29,63,-53,-9,39,-48,-43,-53,-63,-68
-82,-48,34,65,-58,-7,39,-48,-43,-53,-63,-68
-82,-48,34,65,-58,-7,39,-48,-53,-53,-58,-68
-82,-48,34,65,-58,-7,43,-48,-63,-53,-58,-63
-82,-39,43,61,-63,2,43,-48,-58,-53,-53,-58
-78,-34,43,56,-61,4,43,-43,-58,-53,-53,-53
-73,-19,53,46,-63,17,48,-43,-53,-48,-48,-53
-68,-4,63,36,-65,29,48,-39,-39,-39,-39,-43
-58,4,63,26,-61,34,58,-29,-29,-29,-34,-39
-48,19,68,14,-58,43,68,-24,-24,-19,-29,-39
-43,24,68,9,-56,46,68,-19,-14,-14,-34,-34
-39,29,68,4,-53,48,68,-19,-9,-9,-39,-29
-34,29,63,2,-48,46,68,-19,-4,-9,-29,-24
-29,29,58,0,-43,43,68,-19,0,-9,-19,-19
-29,34,63,-2,-46,48,68,-19,4,0,-14,-14
-24,39,63,-7,-43,51,63,-14,9,4,-9,-14
-19,43,63,-12,-41,53,63,-14,14,9,-9,-14
-9,29,39,-9,-24,34,43,-19,9,9,-9,-19
-4,29,34,-12,-19,31,24,-19,9,0,-9,-19
19,43,24,-31,-2,34,4,-14,19,19,4,-4
39,73,34,-56,2,53,-4,-9,29,34,19,19
43,78,34,-61,4,56,-9,-4,29,34,29,24
43,78,34,-61,4,56,-14,0,34,29,19,24
29,53,24,-41,2,39,-14,0,29,14,9,9
9,34,24,-21,-7,29,-14,-19,9,-4,-9,-4
9,19,9,-14,0,14,-14,-19,-4,-9,-14,-9
14,14,0,-14,7,7,-9,-19,-9,-14,-14,-9
14,0,-14,-7,14,-7,-9,-24,-19,-24,-24,-14
14,-4,-19,-4,17,-12,-9,-24,-19,-24,-29,-14
9,-14,-24,2,17,-19,0,-29,-24,-19,-34,-19
0,-19,-19,9,9,-19,4,-29,-29,-29,-34,-29
-24,-34,-9,29,-7,-21,29,-24,-29,-34,-39,-39
-48,-53,-4,51,-21,-29,34,-34,-43,-48,-48,-48
-68,-68,0,68,-34,-34,48,-39,-48,-58,-53,-53
-82,-82,0,82,-41,-41,48,-43,-68,-68,-73,-73
-97,-87,9,92,-53,-39,43,-53,-82,-78,-87,-87
-107,-97,9,102,-58,-43,43,-58,-87,-87,-97,-97
-107,-97,9,102,-58,-43,43,-58,-92,-92,-97,-97
-107,-97,9,102,-58,-43,48,-58,-92,-92,-102,-97
-107,-97,9,102,-58,-43,53,-58,-92,-92,-102,-97
-107,-97,9,102,-58,-43,53,-63,-97,-92,-102,-97
-112,-97,14,104,-63,-41,58,-63,-97,-92,-102,-92
-107,-92,14,100,-61,-39,58,-63,-92,-92,-102,-97
-107,-87,19,97,-63,-34,58,-68,-92,-97,-107,-97
-112,-87,24,100,-68,-31,53,-68,-92,-97,-107,-97
-112,-92,19,102,-65,-36,53,-68,-92,-97,-107,-97
-112,-92,19,102,-65,-36,53,-63,-97,-97,-107,-102
-112,-92,19,102,-65,-36,53,-63,-102,-97,-107,-107
-112,-92,19,102,-65,-36,53,-68,-102,-97,-107,-107
-112,-92,19,102,-65,-36,53,-68,-102,-97,-107,-107
-117,-92,24,104,-70,-34,53,-68,-102,-102,-112,-107
-117,-92,24,104,-70,-34,58,-68,-102,-107,-112,-107
-122,-92,29,107,-75,-31,58,-68,-102,-107,-112,-112
-146,-92,53,119,-100,-19,78,-68,-92,-107,-112,-117
-180,-92,87,136,-134,-2,112,-63,-92,-102,-112,-131
-190,-92,97,141,-143,2,131,-43,-63,-78,-107,-131
-195,-68,126,131,-161,29,141,-9,-4,-29,-68,-102
-112,-34,78,73,-95,21,156,126,161,92,43,-9
82,9,-73,-46,78,-31,151,414,507,297,234,141
405,112,-292,-258,348,-90,58,668,878,551,488,366
775,283,-492,-529,634,-104,-190,639,1054,800,766,639
1239,512,-727,-875,983,-107,-600,556,1132,1005,1058,971
1566,727,-839,-1146,1202,-56,-1000,370,985,1058,1210,1185
1537,736,-800,-1137,1168,-31,-1171,48,507,741,966,1049
1171,658,-512,-915,841,73,-1068,-429,-146,356,600,775
634,556,-78,-595,356,239,-912,-1039,-893,-4,258,507
253,463,209,-358,21,336,-775,-1317,-1220,-126,126,385
204,385,180,-295,12,283,-712,-1078,-1063,-141,87,317
200,326,126,-263,36,226,-605,-751,-775,-112,73,263
136,224,87,-180,24,156,-434,-507,-570,-126,14,156
53,151,97,-102,-21,124,-278,-341,-414,-122,-14,87
-9,63,73,-26,-41,68,-165,-214,-287,-126,-48,19
-39,9,48,14,-43,29,-73,-141,-200,-126,-68,-19
-63,-24,39,43,-51,7,0,-107,-151,-112,-73,-48
-78,-58,19,68,-48,-19,34,-73,-112,-97,-78,-63
-97,-68,29,82,-63,-19,34,-58,-102,-97,-82,-68
-107,-73,34,90,-70,-19,43,-58,-102,-102,-87,-78
-117,-78,39,97,-78,-19,58,-58,-102,-107,-102,-87
-117,-87,29,102,-73,-29,68,-48,-97,-107,-107,-97
-126,-97,29,112,-78,-34,73,-39,-87,-107,-107,-97
-126,-92,34,109,-80,-29,73,-39,-82,-107,-107,-102
-126,-87,39,107,-82,-24,82,-34,-82,-107,-107,-107
-131,-92,39,112,-85,-26,82,-29,-82,-112,-107,-112
-131,-97,34,114,-82,-31,87,-24,-78,-112,-107,-112
-131,-97,34,114,-82,-31,87,-19,-73,-107,-107,-112
-131,-92,39,112,-85,-26,87,-19,-68,-107,-112,-112
-131,-92,39,112,-85,-26,87,-19,-68,-107,-112,-112
-131,-92,39,112,-85,-26,87,-14,-68,-107,-112,-112
-126,-92,34,109,-80,-29,87,-14,-63,-107,-107,-112
-117,-87,29,102,-73,-29,87,-4,-58,-107,-107,-107
-112,-87,24,100,-68,-31,87,-4,-53,-102,-107,-107
-112,-87,24,100,-68,-31,87,-4,-53,-102,-107,-107
-117,-87,29,102,-73,-29,87,0,-48,-107,-102,-102
-117,-87,29,102,-73,-29,87,4,-48,-107,-102,-102
-117,-87,29,102,-73,-29,87,4,-43,-107,-102,-102
-112,-87,24,100,-68,-31,87,9,-43,-107,-97,-102
-107,-87,19,97,-63,-34,87,19,-34,-107,-97,-102
-107,-82,24,95,-65,-29,87,19,-29,-107,-92,-97
-102,-82,19,92,-61,-31,82,24,-29,-102,-92,-92
-97,-82,14,90,-56,-34,82,34,-24,-97,-87,-92
-92,-82,9,87,-51,-36,82,39,-14,-97,-87,-92
-92,-82,9,87,-51,-36,82,48,-4,-97,-82,-87
-82,-73,9,78,-46,-31,82,53,-4,-92,-82,-82
-78,-73,4,75,-41,-34,78,63,4,-92,-78,-82
-68,-68,0,68,-34,-34,78,68,14,-82,-73,-78
-63,-63,0,63,-31,-31,73,78,24,-78,-68,-73
-53,-63,-9,58,-21,-36,73,87,29,-68,-68,-68
-39,-48,-9,43,-14,-29,68,102,39,-68,-63,-63
-34,-53,-19,43,-7,-36,58,112,48,-63,-53,-53
-24,-53,-29,39,2,-41,58,126,53,-53,-48,-43
-9,-43,-34,26,12,-39,53,141,68,-48,-39,-39
4,-39,-43,17,24,-41,48,151,82,-39,-34,-34
19,-29,-48,4,34,-39,43,170,92,-39,-24,-24
29,-19,-48,-4,39,-34,39,185,102,-29,-14,-14
43,-14,-58,-14,51,-36,39,195,117,-19,0,-4
58,-4,-63,-26,61,-34,39,204,126,-9,9,9
68,0,-68,-34,68,-34,29,214,141,-4,19,9
87,14,-73,-51,80,-29,19,224,151,4,29,19
102,24,-78,-63,90,-26,14,234,165,14,39,34
122,29,-92,-75,107,-31,0,244,175,24,53,43
136,43,-92,-90,114,-24,-4,248,185,34,63,48
151,48,-102,-100,126,-26,-9,253,195,43,73,63
161,53,-107,-107,134,-26,-9,263,204,53,82,78
170,63,-107,-117,139,-21,-19,263,204,63,92,87
180,73,-107,-126,143,-17,-19,268,214,78,102,92
180,73,-107,-126,143,-17,-19,258,214,82,102,102
175,73,-102,-124,139,-14,-19,248,204,87,107,102
165,73,-92,-119,129,-9,-19,224,195,87,107,97
156,73,-82,-114,119,-4,-9,200,180,87,97,82
131,73,-58,-102,95,7,-4,185,170,78,87,78
112,63,-48,-87,80,7,4,165,161,73,78,68
92,53,-39,-73,65,7,14,136,141,63,73,53
78,43,-34,-61,56,4,24,112,126,53,58,43
58,34,-24,-46,41,4,29,97,107,43,48,29
34,24,-9,-29,21,7,39,78,87,29,29,14
19,14,-4,-17,12,4,43,58,68,19,19,4
-4,4,9,0,-7,7,48,43,53,9,9,-4
-19,-4,14,12,-17,4,48,34,43,0,-4,-9
-29,-9,19,19,-24,4,53,24,29,-9,-14,-14
-39,-14,24,26,-31,4,58,14,19,-19,-24,-24
-43,-19,24,31,-34,2,58,9,9,-24,-29,-34
-48,-24,24,36,-36,0,58,4,0,-24,-34,-43
-48,-34,14,41,-31,-9,58,0,0,-24,-34,-48
-48,-39,9,43,-29,-14,63,0,-4,-29,-34,-53
-48,-43,4,46,-26,-19,63,-4,-4,-29,-34,-53
-48,-43,4,46,-26,-19,63,-4,-9,-34,-39,-53
-53,-43,9,48,-31,-17,63,-4,-9,-34,-39,-48
-53,-43,9,48,-31,-17,63,-4,-9,-34,-39,-48
-53,-48,4,51,-29,-21,63,-4,-14,-34,-39,-43
-53,-48,4,51,-29,-21,63,-4,-14,-34,-39,-39
-53,-43,9,48,-31,-17,63,-4,-14,-34,-39,-39
-53,-39,14,46,-34,-12,58,-4,-14,-34,-39,-39
-58,-39,19,48,-39,-9,58,-4,-14,-29,-39,-39
-58,-39,19,48,-39,-9,58,-4,-14,-24,-39,-39
-58,-39,19,48,-39,-9,58,-4,-14,-24,-34,-39
-53,-39,14,46,-34,-12,58,-4,-14,-24,-29,-39
-53,-39,14,46,-34,-12,58,-4,-9,-24,-29,-39
-58,-43,14,51,-36,-14,58,-4,-9,-24,-29,-39
-58,-43,14,51,-36,-14,53,-4,-9,-24,-34,-39
-58,-43,14,51,-36,-14,48,-4,-9,-24,-39,-39
-58,-39,19,48,-39,-9,48,-4,-9,-24,-39,-39
-58,-34,24,46,-41,-4,53,-4,-9,-24,-39,-39
-53,-34,19,43,-36,-7,53,-4,-9,-24,-39,-39
-53,-34,19,43,-36,-7,53,-4,-9,-24,-39,-39
-53,-34,19,43,-36,-7,53,-4,-9,-24,-39,-43
-53,-34,19,43,-36,-7,53,-4,-9,-24,-39,-48
-58,-34,24,46,-41,-4,48,-4,-9,-24,-39,-43
-58,-34,24,46,-41,-4,48,-4,-14,-19,-39,-43
-58,-34,24,46,-41,-4,48,-4,-14,-14,-39,-39
-58,-34,24,46,-41,-4,48,-4,-14,-14,-39,-39
-58,-34,24,46,-41,-4,48,-4,-14,-14,-39,-39
-58,-34,24,46,-41,-4,43,-4,-14,-14,-39,-39
-53,-34,19,43,-36,-7,43,-4,-14,-14,-34,-34
-48,-34,14,41,-31,-9,43,-9,-14,-14,-29,-34
-48,-34,14,41,-31,-9,48,-9,-19,-14,-29,-43
-53,-34,19,43,-36,-7,48,-9,-19,-14,-29,-48
-53,-34,19,43,-36,-7,48,-14,-19,-14,-29,-48
-53,-39,14,46,-34,-12,48,-14,-19,-14,-29,-48
-53,-43,9,48,-31,-17,48,-14,-24,-19,-29,-43
-58,-48,9,53,-34,-19,48,-14,-24,-19,-29,-39
-63,-48,14,56,-39,-17,48,-19,-29,-19,-29,-43
-63,-48,14,56,-39,-17,48,-19,-29,-19,-34,-43
-63,-43,19,53,-41,-12,43,-19,-24,-24,-39,-43
-68,-43,24,56,-46,-9,43,-19,-19,-24,-43,-43
-68,-43,24,56,-46,-9,48,-24,-24,-24,-48,-48
-68,-43,24,56,-46,-9,48,-24,-24,-24,-48,-53
-68,-43,24,56,-46,-9,48,-24,-29,-24,-48,-58
-68,-43,24,56,-46,-9,43,-24,-29,-29,-48,-58
-73,-48,24,61,-48,-12,43,-24,-29,-34,-43,-53
-73,-48,24,61,-48,-12,43,-24,-34,-39,-39,-48
-73,-48,24,61,-48,-12,43,-29,-34,-39,-43,-48
-78,-48,29,63,-53,-9,43,-29,-34,-39,-43,-48
-78,-48,29,63,-53,-9,43,-29,-34,-34,-43,-53
-73,-48,24,61,-48,-12,43,-29,-34,-34,-43,-53
-73,-48,24,61,-48,-12,43,-29,-43,-39,-43,-53
-73,-48,24,61,-48,-12,43,-29,-48,-39,-43,-53
-73,-53,19,63,-46,-17,43,-34,-48,-39,-43,-53
-73,-53,19,63,-46,-17,43,-34,-48,-39,-43,-53
-73,-53,19,63,-46,-17,43,-29,-43,-39,-43,-53
-73,-53,19,63,-46,-17,43,-24,-39,-43,-48,-53
-78,-53,24,65,-51,-14,43,-24,-39,-43,-53,-53
-82,-53,29,68,-56,-12,48,-24,-43,-43,-58,-58
-82,-53,29,68,-56,-12,48,-29,-43,-43,-58,-58
-82,-53,29,68,-56,-12,48,-29,-43,-43,-58,-58
-82,-48,34,65,-58,-7,48,-29,-43,-39,-63,-58
-82,-48,34,65,-58,-7,48,-29,-43,-34,-63,-58
-78,-39,39,58,-58,0,48,-29,-43,-34,-63,-58
-73,-24,48,48,-61,12,48,-29,-43,-29,-58,-58
-73,-19,53,46,-63,17,53,-34,-43,-24,-48,-43
-68,-4,63,36,-65,29,53,-34,-39,-24,-34,-34
-58,0,58,29,-58,29,58,-24,-24,-14,-24,-24
-48,9,58,19,-53,34,68,-19,-9,-9,-19,-19
-48,9,58,19,-53,34,63,-19,-9,0,-19,-19
-48,9,58,19,-53,34,58,-19,-9,9,-19,-19
-43,19,63,12,-53,41,58,-14,0,9,-19,-19
-39,24,63,7,-51,43,58,-9,9,14,-9,-14
-34,34,68,0,-51,51,58,-4,24,19,-4,-9
-29,34,63,-2,-46,48,53,0,24,19,0,-9
-19,19,39,0,-29,29,39,0,19,19,0,-9
-9,19,29,-4,-19,24,24,0,19,9,0,-9
19,34,14,-26,2,24,4,4,29,34,19,4
39,58,19,-48,9,39,-4,9,39,53,39,24
43,58,14,-51,14,36,-14,14,39,53,48,24
43,58,14,-51,14,36,-24,14,39,48,39,24
29,39,9,-34,9,24,-24,9,29,34,29,9
9,24,14,-17,-2,19,-24,-9,9,14,9,-4
9,9,0,-9,4,4,-24,-9,-4,9,0,-9
14,9,-4,-12,9,2,-19,-9,-9,4,-4,-9
14,0,-14,-7,14,-7,-19,-14,-19,-4,-14,-14
14,-4,-19,-4,17,-12,-19,-14,-19,-9,-19,-14
9,-14,-24,2,17,-19,-9,-19,-24,-9,-19,-19
0,-19,-19,9,9,-19,-9,-24,-29,-19,-19,-29
-24,-34,-9,29,-7,-21,9,-19,-29,-24,-29,-39
-48,-48,0,48,-24,-24,14,-24,-43,-34,-39,-48
-68,-58,9,63,-39,-24,29,-29,-48,-39,-43,-53
-82,-73,9,78,-46,-31,34,-34,-63,-48,-58,-68
-97,-78,19,87,-58,-29,34,-48,-73,-58,-73,-78
-107,-87,19,97,-63,-34,34,-58,-78,-68,-87,-87
-107,-87,19,97,-63,-34,34,-58,-82,-73,-87,-87
-107,-87,19,97,-63,-34,34,-58,-82,-73,-92,-87
-107,-87,19,97,-63,-34,34,-58,-82,-78,-92,-87
-107,-87,19,97,-63,-34,34,-63,-87,-82,-92,-92
-112,-87,24,100,-68,-31,39,-58,-87,-82,-92,-92
-112,-87,24,100,-68,-31,39,-53,-87,-82,-92,-97
-117,-87,29,102,-73,-29,34,-58,-92,-82,-97,-97
-122,-87,34,104,-78,-26,29,-58,-92,-78,-97,-97
-122,-92,29,107,-75,-31,34,-58,-97,-78,-97,-97
-122,-92,29,107,-75,-31,34,-53,-102,-78,-97,-97
-122,-92,29,107,-75,-31,34,-53,-102,-82,-97,-97
-122,-92,29,107,-75,-31,34,-58,-102,-87,-97,-97
-122,-92,29,107,-75,-31,39,-58,-97,-87,-97,-97
-126,-92,34,109,-80,-29,43,-58,-92,-87,-102,-97
-126,-92,34,109,-80,-29,48,-58,-92,-82,-102,-97
-131,-92,39,112,-85,-26,48,-58,-92,-78,-102,-102
-151,-92,58,122,-104,-17,68,-58,-82,-78,-102,-102
-180,-87,92,134,-136,2,102,-53,-78,-73,-102,-112
-190,-82,107,136,-148,12,122,-34,-39,-43,-87,-112
-180,-58,122,119,-151,31,131,24,48,19,-29,-73
-82,-19,63,51,-73,21,141,180,239,161,97,34
122,29,-92,-75,107,-31,107,439,561,361,283,180
444,136,-307,-290,375,-85,-9,668,917,624,551,409
805,297,-507,-551,656,-104,-268,629,1058,863,819,668
1254,517,-736,-885,995,-109,-683,541,1093,1034,1088,985
1537,712,-824,-1124,1180,-56,-1054,351,922,1058,1215,1185
1478,697,-780,-1088,1129,-41,-1200,29,419,688,907,1000
1122,610,-512,-866,817,48,-1093,-424,-200,297,531,722
610,483,-126,-546,368,178,-932,-1000,-912,-48,204,463
258,395,136,-326,61,265,-795,-1224,-1195,-151,92,356
224,336,112,-280,56,224,-732,-961,-1000,-151,73,297
204,297,92,-251,56,195,-614,-663,-717,-112,68,244
126,214,87,-170,19,151,-434,-448,-512,-107,19,146
39,146,107,-92,-34,126,-278,-302,-361,-97,-9,82
-24,63,87,-19,-56,75,-165,-190,-239,-97,-39,19
-48,14,63,17,-56,39,-78,-122,-161,-97,-58,-14
-73,-14,58,43,-65,21,-9,-92,-131,-82,-63,-39
-87,-48,39,68,-63,-4,24,-63,-102,-68,-63,-53
-102,-58,43,80,-73,-7,24,-53,-92,-68,-68,-58
-107,-58,48,82,-78,-4,34,-58,-92,-73,-78,-68
-117,-58,58,87,-87,0,48,-58,-92,-78,-92,-82
-117,-68,48,92,-82,-9,58,-48,-87,-78,-97,-97
-126,-78,48,102,-87,-14,58,-39,-78,-78,-97,-97
-126,-78,48,102,-87,-14,53,-39,-73,-78,-97,-97
-126,-78,48,102,-87,-14,63,-34,-73,-78,-97,-97
-131,-82,48,107,-90,-17,63,-29,-73,-82,-97,-102
-131,-87,43,109,-87,-21,73,-24,-68,-82,-97,-102
-131,-87,43,109,-87,-21,78,-19,-63,-78,-97,-102
-131,-82,48,107,-90,-17,78,-19,-58,-78,-102,-102
-131,-82,48,107,-90,-17,78,-19,-58,-78,-102,-102
-131,-82,48,107,-90,-17,78,-14,-58,-78,-102,-102
-131,-82,48,107,-90,-17,78,-14,-53,-78,-97,-102
-126,-78,48,102,-87,-14,73,-4,-48,-78,-97,-97
-122,-78,43,100,-82,-17,68,-4,-43,-73,-97,-97
-122,-78,43,100,-82,-17,68,-4,-43,-73,-97,-97
-122,-78,43,100,-82,-17,68,0,-39,-73,-92,-92
-122,-78,43,100,-82,-17,68,4,-39,-68,-87,-87
-126,-78,48,102,-87,-14,68,4,-34,-68,-82,-82
-122,-78,43,100,-82,-17,68,9,-34,-68,-78,-82
-117,-78,39,97,-78,-19,68,19,-24,-68,-78,-82
-117,-73,43,95,-80,-14,68,19,-19,-68,-73,-78
-112,-73,39,92,-75,-17,63,24,-19,-63,-73,-73
-107,-73,34,90,-70,-19,63,34,-14,-58,-68,-73
-102,-73,29,87,-65,-21,63,39,-4,-58,-68,-73
-102,-73,29,87,-65,-21,68,48,4,-58,-63,-68
-92,-63,29,78,-61,-17,73,53,4,-53,-63,-63
-87,-63,24,75,-56,-19,68,63,14,-53,-58,-63
-78,-58,19,68,-48,-19,68,68,24,-43,-53,-58
-73,-48,24,61,-48,-12,58,78,34,-39,-48,-53
-63,-43,19,53,-41,-12,53,87,39,-29,-43,-48
-48,-29,19,39,-34,-4,48,102,48,-29,-34,-43
-43,-29,14,36,-29,-7,39,112,63,-24,-24,-34
-34,-24,9,29,-21,-7,43,126,73,-14,-19,-24
-19,-14,4,17,-12,-4,43,141,87,-9,-9,-19
-4,-9,-4,7,0,-7,39,146,102,0,-4,-14
14,0,-14,-7,14,-7,34,161,112,4,4,-4
29,9,-19,-19,24,-4,29,175,122,19,14,4
43,14,-29,-29,36,-7,24,185,136,29,29,14
53,24,-29,-39,41,-2,19,195,146,39,39,29
58,29,-29,-43,43,0,9,209,161,43,48,34
78,43,-34,-61,56,4,0,224,170,53,58,48
92,53,-39,-73,65,7,0,234,185,63,68,63
112,58,-53,-85,82,2,-9,244,195,73,82,73
126,73,-53,-100,90,9,-14,248,204,82,92,78
141,78,-63,-109,102,7,-19,253,214,92,102,92
151,82,-68,-117,109,7,-24,263,224,102,112,102
161,87,-73,-124,117,7,-43,263,224,112,122,107
170,92,-78,-131,124,7,-48,263,234,122,131,112
170,92,-78,-131,124,7,-48,248,234,122,131,122
165,92,-73,-129,119,9,-48,239,224,126,131,122
156,92,-63,-124,109,14,-48,214,209,126,126,117
146,87,-58,-117,102,14,-39,190,190,122,117,102
122,82,-39,-102,80,21,-34,175,180,107,102,97
102,73,-29,-87,65,21,-24,156,165,102,87,87
87,68,-19,-78,53,24,-14,126,141,92,82,73
73,63,-9,-68,41,26,-4,102,126,82,68,63
48,53,4,-51,21,29,0,87,112,73,58,48
24,43,19,-34,2,31,9,68,97,58,39,34
9,29,19,-19,-4,24,14,48,78,48,29,19
-9,14,24,-2,-17,19,19,34,63,39,19,0
-19,4,24,7,-21,14,19,24,53,29,9,-9
-29,0,29,14,-29,14,24,14,39,19,4,-14
-39,-4,34,21,-36,14,29,4,29,9,-4,-24
-43,-9,34,26,-39,12,29,0,19,4,-9,-29
-48,-14,34,31,-41,9,29,-4,9,4,-14,-34
-48,-19,29,34,-39,4,29,-9,9,4,-14,-34
-48,-19,29,34,-39,4,34,-9,0,0,-14,-34
-53,-24,29,39,-41,2,34,-14,-4,0,-14,-34
-58,-24,34,41,-46,4,34,-14,-9,-4,-24,-34
-63,-24,39,43,-51,7,34,-14,-9,-4,-29,-34
-63,-24,39,43,-51,7,34,-14,-4,-4,-29,-39
-63,-29,34,46,-48,2,34,-14,-4,-4,-29,-39
-63,-29,34,46,-48,2,34,-14,-4,-4,-29,-34
-63,-29,34,46,-48,2,34,-14,-4,-4,-29,-29
-63,-29,34,46,-48,2,29,-14,-4,-4,-29,-29
-63,-29,34,46,-48,2,29,-14,-4,-4,-29,-29
-58,-29,29,43,-43,0,29,-14,-4,-4,-29,-29
-58,-29,29,43,-43,0,29,-14,-4,-4,-29,-29
-53,-29,24,41,-39,-2,29,-14,-4,-4,-29,-29
-53,-24,29,39,-41,2,29,-14,0,-4,-29,-29
-58,-19,39,39,-48,9,29,-14,-4,-4,-29,-29
-58,-14,43,36,-51,14,29,-14,-9,-4,-29,-29
-58,-14,43,36,-51,14,29,-14,-9,-4,-29,-29
-58,-14,43,36,-51,14,29,-14,-9,-4,-29,-29
-63,-19,43,41,-53,12,34,-14,-9,-4,-29,-29
-63,-24,39,43,-51,7,34,-14,-9,-4,-29,-29
-63,-24,39,43,-51,7,34,-14,-4,-4,-29,-29
-63,-24,39,43,-51,7,34,-14,0,-4,-29,-29
-63,-24,39,43,-51,7,34,-14,0,-4,-29,-29
-68,-24,43,46,-56,9,29,-14,0,-4,-29,-24
-63,-24,39,43,-51,7,29,-14,-4,0,-24,-24
-58,-24,34,41,-46,4,29,-14,-4,0,-19,-24
-58,-24,34,41,-46,4,29,-14,-4,-4,-19,-29
-58,-24,34,41,-46,4,29,-14,-4,-4,-19,-29
-58,-24,34,41,-46,4,24,-14,-9,-9,-24,-34
-58,-24,34,41,-46,4,24,-14,-14,-14,-29,-34
-58,-24,34,41,-46,4,24,-19,-14,-14,-29,-34
-58,-24,34,41,-46,4,29,-19,-19,-14,-29,-39
-63,-24,39,43,-51,7,29,-14,-19,-14,-29,-39
-63,-24,39,43,-51,7,29,-14,-19,-14,-29,-39
-63,-29,34,46,-48,2,29,-14,-19,-14,-29,-34
-63,-29,34,46,-48,2,29,-14,-24,-19,-29,-29
-68,-29,39,48,-53,4,29,-14,-24,-19,-29,-29
-68,-29,39,48,-53,4,29,-19,-29,-19,-29,-34
-63,-29,34,46,-48,2,29,-19,-29,-19,-34,-39
-63,-29,34,46,-48,2,24,-19,-29,-24,-34,-43
-68,-34,34,51,-51,0,24,-19,-24,-24,-34,-43
-68,-34,34,51,-51,0,29,-24,-24,-24,-39,-43
-68,-34,34,51,-51,0,29,-24,-24,-24,-39,-43
-68,-34,34,51,-51,0,29,-24,-29,-24,-39,-48
-68,-34,34,51,-51,0,24,-29,-34,-29,-39,-48
-73,-39,34,56,-53,-2,24,-34,-39,-29,-39,-48
-73,-39,34,56,-53,-2,24,-34,-43,-29,-39,-48
-73,-39,34,56,-53,-2,24,-39,-43,-29,-43,-48
-82,-43,39,63,-61,-2,29,-39,-43,-29,-43,-48
-87,-48,39,68,-63,-4,34,-39,-43,-29,-43,-53
-82,-48,34,65,-58,-7,34,-34,-39,-29,-43,-48
-82,-48,34,65,-58,-7,34,-29,-39,-29,-43,-43
-78,-43,34,61,-56,-4,34,-29,-39,-29,-43,-43
-78,-43,34,61,-56,-4,34,-34,-39,-29,-43,-43
-82,-43,39,63,-61,-2,34,-34,-43,-34,-48,-48
-82,-43,39,63,-61,-2,34,-34,-48,-39,-53,-53
-87,-43,43,65,-65,0,34,-34,-48,-43,-58,-53
-92,-43,48,68,-70,2,34,-34,-48,-43,-58,-53
-92,-43,48,68,-70,2,39,-34,-53,-43,-58,-58
-92,-43,48,68,-70,2,39,-39,-53,-43,-58,-58
-92,-48,43,70,-68,-2,39,-39,-53,-43,-53,-58
-92,-48,43,70,-68,-2,39,-39,-53,-43,-53,-58
-92,-48,43,70,-68,-2,39,-39,-53,-43,-53,-58
-92,-48,43,70,-68,-2,39,-39,-53,-43,-53,-58
-87,-39,48,63,-68,4,39,-39,-53,-39,-48,-53
-82,-29,53,56,-68,12,43,-39,-53,-34,-48,-43
-82,-9,73,46,-78,31,48,-39,-39,-24,-43,-34
-73,9,82,31,-78,46,58,-34,-24,-9,-39,-24
-58,14,73,21,-65,43,63,-24,-14,-4,-34,-24
-48,19,68,14,-58,43,68,-19,-9,0,-29,-29
-48,19,68,14,-58,43,63,-19,-9,0,-29,-29
-48,19,68,14,-58,43,58,-19,-9,0,-29,-29
-43,29,73,7,-58,51,58,-14,0,4,-19,-24
-34,34,68,0,-51,51,58,-9,9,9,-9,-14
-29,43,73,-7,-51,58,58,-4,24,19,0,-9
-19,43,63,-12,-41,53,53,0,24,19,0,-9
-9,24,34,-7,-21,29,34,0,19,19,0,-9
0,19,19,-9,-9,19,14,0,19,9,0,-9
24,34,9,-29,7,21,0,4,29,29,14,4
39,58,19,-48,9,39,-4,9,39,43,29,24
43,58,14,-51,14,36,-9,14,34,43,39,24
43,58,14,-51,14,36,-14,14,29,39,29,24
29,34,4,-31,12,19,-14,9,19,24,19,14
9,14,4,-12,2,9,-14,-9,0,4,0,4
9,0,-9,-4,9,-4,-19,-9,-14,0,-4,0
14,0,-14,-7,14,-7,-19,-9,-19,-4,-4,0
14,-9,-24,-2,19,-17,-19,-14,-29,-14,-14,-4
14,-14,-29,0,21,-21,-19,-14,-29,-19,-19,-4
4,-24,-29,9,17,-26,-4,-19,-34,-19,-24,-9
-9,-29,-19,19,4,-24,0,-24,-39,-29,-29,-19
-34,-43,-9,39,-12,-26,19,-24,-34,-34,-39,-34
-58,-58,0,58,-29,-29,24,-34,-43,-43,-48,-48
-78,-68,9,73,-43,-29,39,-39,-48,-48,-53,-53
-92,-82,9,87,-51,-36,43,-43,-63,-58,-68,-68
-107,-92,14,100,-61,-39,39,-53,-73,-63,-78,-73
-117,-107,9,112,-63,-48,34,-58,-78,-68,-87,-78
-117,-107,9,112,-63,-48,34,-58,-82,-73,-87,-78
-117,-107,9,112,-63,-48,34,-58,-82,-73,-92,-78
-117,-102,14,109,-65,-43,34,-58,-82,-78,-92,-82
-117,-97,19,107,-68,-39,34,-63,-87,-82,-92,-92
-122,-97,24,109,-73,-36,39,-63,-87,-82,-92,-92
-122,-97,24,109,-73,-36,39,-63,-87,-82,-92,-97
-126,-97,29,112,-78,-34,39,-68,-92,-87,-97,-97
-131,-97,34,114,-82,-31,39,-68,-92,-87,-97,-97
-131,-97,34,114,-82,-31,43,-68,-92,-87,-97,-97
-131,-92,39,112,-85,-26,43,-63,-92,-87,-97,-97
-131,-92,39,112,-85,-26,43,-63,-92,-92,-97,-97
-131,-92,39,112,-85,-26,43,-68,-92,-97,-97,-97
-131,-97,34,114,-82,-31,43,-68,-92,-97,-97,-97
-136,-102,34,119,-85,-34,43,-68,-92,-97,-102,-97
-136,-102,34,119,-85,-34,53,-68,-92,-92,-102,-92
-141,-102,39,122,-90,-31,58,-68,-92,-87,-102,-92
-161,-97,63,129,-112,-17,78,-68,-82,-87,-102,-97
-190,-87,102,139,-146,7,112,-63,-78,-82,-102,-112
-195,-82,112,139,-153,14,131,-34,-29,-48,-87,-112
-180,-58,122,119,-151,31,141,34,68,19,-29,-73
-58,-19,39,39,-48,9,141,195,258,161,92,39
170,29,-141,-100,156,-56,97,458,580,361,273,190
502,131,-370,-317,436,-119,-39,658,902,585,517,405
873,287,-585,-580,729,-148,-317,590,1010,785,761,649
1298,488,-810,-893,1054,-161,-717,473,1000,922,985,922
1556,663,-893,-1110,1224,-114,-1073,253,785,912,1068,1078
1468,639,-829,-1054,1149,-95,-1205,-78,283,566,780,897
1083,541,-541,-812,812,0,-1083,-541,-336,200,424,624
595,429,-165,-512,380,131,-922,-1073,-976,-117,126,390
268,356,87,-312,90,222,-785,-1254,-1185,-190,43,307
234,302,68,-268,82,185,-712,-980,-985,-180,34,258
214,268,53,-241,80,161,-585,-673,-697,-131,39,214
131,185,53,-158,39,119,-414,-463,-502,-122,0,126
39,117,78,-78,-19,97,-268,-322,-361,-107,-19,73
-29,43,73,-7,-51,58,-156,-209,-244,-102,-48,9
-58,4,63,26,-61,34,-68,-141,-170,-97,-68,-24
-82,-24,58,53,-70,17,-4,-107,-136,-82,-73,-48
-97,-58,39,78,-68,-9,24,-73,-102,-68,-73,-63
-117,-68,48,92,-82,-9,24,-63,-92,-73,-73,-68
-126,-68,58,97,-92,-4,34,-68,-92,-82,-78,-78
-136,-68,68,102,-102,0,53,-68,-92,-87,-92,-87
-136,-78,58,107,-97,-9,68,-58,-87,-87,-97,-97
-146,-87,58,117,-102,-14,73,-48,-78,-87,-97,-97
-146,-87,58,117,-102,-14,73,-48,-73,-87,-97,-97
-146,-87,58,117,-102,-14,78,-43,-73,-82,-97,-92
-151,-92,58,122,-104,-17,73,-39,-73,-82,-97,-92
-146,-97,48,122,-97,-24,78,-34,-68,-82,-97,-92
-141,-97,43,119,-92,-26,78,-29,-63,-78,-97,-92
-141,-92,48,117,-95,-21,78,-29,-58,-82,-102,-97
-141,-92,48,117,-95,-21,78,-29,-58,-87,-102,-102
-141,-92,48,117,-95,-21,78,-24,-63,-87,-102,-102
-141,-92,48,117,-95,-21,78,-24,-63,-87,-97,-102
-136,-87,48,112,-92,-19,78,-14,-58,-87,-97,-97
-131,-87,43,109,-87,-21,78,-14,-53,-82,-97,-97
-131,-87,43,109,-87,-21,78,-14,-53,-82,-97,-97
-131,-87,43,109,-87,-21,78,-9,-48,-82,-92,-92
-126,-87,39,107,-82,-24,78,-4,-48,-78,-92,-92
-126,-87,39,107,-82,-24,78,-4,-43,-78,-92,-92
-122,-87,34,104,-78,-26,78,0,-39,-78,-87,-92
-117,-87,29,102,-73,-29,78,9,-24,-78,-87,-92
-117,-82,34,100,-75,-24,78,9,-19,-78,-82,-87
-112,-82,29,97,-70,-26,73,14,-19,-73,-82,-82
-107,-78,29,92,-68,-24,73,24,-14,-68,-78,-82
-102,-73,29,87,-65,-21,73,29,-4,-68,-78,-82
-102,-73,29,87,-65,-21,73,39,4,-68,-73,-73
-92,-63,29,78,-61,-17,73,43,4,-63,-73,-63
-87,-68,19,78,-53,-24,73,53,14,-63,-68,-63
-78,-68,9,73,-43,-29,78,58,24,-53,-63,-58
-73,-63,9,68,-41,-26,73,68,34,-48,-58,-53
-63,-63,0,63,-31,-31,73,78,39,-39,-53,-48
-48,-48,0,48,-24,-24,68,92,48,-39,-43,-43
-43,-48,-4,46,-19,-26,58,102,63,-34,-34,-34
-34,-43,-9,39,-12,-26,58,117,73,-24,-29,-24
-19,-34,-14,26,-2,-24,53,131,87,-19,-19,-19
-4,-29,-24,17,9,-26,48,141,102,-9,-14,-14
14,-19,-34,2,24,-26,43,161,112,-4,-4,-4
29,-9,-39,-9,34,-24,39,175,122,9,4,4
43,-4,-48,-19,46,-26,34,185,136,19,19,14
58,4,-53,-31,56,-24,29,195,146,29,29,24
68,9,-58,-39,63,-24,19,209,161,34,39,24
87,24,-63,-56,75,-19,4,224,170,48,48,39
102,34,-68,-68,85,-17,0,234,185,63,58,53
122,43,-78,-82,100,-17,-9,244,195,73,73,63
136,63,-73,-100,104,-4,-14,248,204,82,82,68
151,68,-82,-109,117,-7,-19,253,214,87,92,82
161,73,-87,-117,124,-7,-24,263,224,92,102,92
170,78,-92,-124,131,-7,-34,263,219,102,112,97
180,82,-97,-131,139,-7,-29,263,224,112,122,102
180,82,-97,-131,139,-7,-29,248,224,112,122,112
175,82,-92,-129,134,-4,-29,239,214,117,122,112
165,82,-82,-124,124,0,-29,214,204,122,117,107
156,78,-78,-117,117,0,-19,190,190,122,107,92
131,73,-58,-102,95,7,-14,175,180,107,97,87
112,63,-48,-87,80,7,-4,156,165,102,87,78
92,53,-39,-73,65,7,0,126,141,87,82,63
73,43,-29,-58,51,7,4,102,126,73,68,53
48,34,-14,-41,31,9,9,87,107,63,58,39
24,24,0,-24,12,12,19,68,87,48,39,24
9,14,4,-12,2,9,24,48,68,39,29,14
-9,4,14,2,-12,9,29,34,53,29,19,0
-19,-4,14,12,-17,4,29,24,48,24,4,-9
-29,-9,19,19,-24,4,34,14,39,19,-4,-14
-39,-14,24,26,-31,4,39,0,29,9,-14,-24
-43,-19,24,31,-34,2,39,-9,19,4,-19,-29
-48,-24,24,36,-36,0,39,-14,9,0,-24,-34
-48,-29,19,39,-34,-4,39,-19,9,-4,-24,-34
-48,-29,19,39,-34,-4,43,-19,0,-9,-24,-34
-53,-34,19,43,-36,-7,43,-24,-4,-9,-24,-34
-58,-34,24,46,-41,-4,43,-24,-9,-14,-29,-34
-63,-34,29,48,-46,-2,43,-24,-9,-14,-29,-34
-63,-34,29,48,-46,-2,43,-24,-4,-14,-29,-39
-63,-39,24,51,-43,-7,43,-24,-4,-14,-29,-39
-63,-39,24,51,-43,-7,48,-24,-4,-14,-29,-39
-63,-39,24,51,-43,-7,53,-24,-4,-14,-29,-39
-63,-34,29,48,-46,-2,48,-24,-4,-14,-29,-39
-63,-29,34,46,-48,2,48,-24,-4,-14,-29,-39
-58,-29,29,43,-43,0,48,-19,-4,-14,-29,-39
-58,-29,29,43,-43,0,48,-14,-4,-14,-29,-39
-53,-34,19,43,-36,-7,43,-14,-9,-14,-29,-39
-53,-34,19,43,-36,-7,39,-14,-9,-14,-29,-39
-58,-34,24,46,-41,-4,39,-14,-9,-14,-29,-39
-58,-34,24,46,-41,-4,39,-14,-9,-14,-29,-39
-58,-34,24,46,-41,-4,39,-14,-4,-14,-29,-39
-58,-34,24,46,-41,-4,39,-14,0,-14,-29,-39
-58,-34,24,46,-41,-4,43,-14,0,-14,-29,-39
-53,-34,19,43,-36,-7,43,-14,0,-14,-29,-39
-53,-34,19,43,-36,-7,43,-14,0,-14,-29,-39
-53,-34,19,43,-36,-7,43,-14,0,-14,-29,-39
-53,-34,19,43,-36,-7,43,-14,0,-14,-29,-39
-58,-34,24,46,-41,-4,39,-14,0,-14,-29,-34
-58,-34,24,46,-41,-4,39,-14,-4,-9,-29,-34
-58,-34,24,46,-41,-4,39,-14,-4,-9,-29,-34
-58,-34,24,46,-41,-4,39,-14,-4,-14,-29,-39
-58,-34,24,46,-41,-4,39,-14,-4,-14,-29,-39
-58,-34,24,46,-41,-4,34,-14,-4,-14,-29,-39
-58,-34,24,46,-41,-4,34,-14,-4,-14,-29,-34
-58,-34,24,46,-41,-4,34,-19,-4,-14,-29,-34
-58,-34,24,46,-41,-4,39,-19,-9,-14,-29,-39
-58,-29,29,43,-43,0,39,-19,-9,-14,-29,-39
-53,-24,29,39,-41,2,39,-24,-9,-14,-29,-39
-53,-29,24,41,-39,-2,39,-24,-9,-14,-29,-39
-53,-29,24,41,-39,-2,39,-24,-14,-19,-29,-39
-63,-29,34,46,-48,2,39,-24,-14,-19,-29,-39
-68,-29,39,48,-53,4,39,-29,-19,-19,-29,-43
-63,-29,34,46,-48,2,39,-29,-24,-19,-34,-43
-63,-29,34,46,-48,2,34,-29,-29,-24,-34,-43
-68,-34,34,51,-51,0,34,-29,-29,-24,-34,-43
-68,-34,34,51,-51,0,39,-34,-34,-24,-39,-43
-68,-34,34,51,-51,0,39,-34,-34,-24,-39,-43
-68,-34,34,51,-51,0,39,-34,-39,-24,-39,-48
-68,-34,34,51,-51,0,39,-34,-39,-29,-39,-48
-73,-39,34,56,-53,-2,43,-34,-39,-29,-39,-48
-73,-39,34,56,-53,-2,43,-34,-43,-29,-39,-48
-73,-39,34,56,-53,-2,43,-39,-43,-29,-43,-48
-78,-39,39,58,-58,0,39,-39,-43,-29,-43,-48
-78,-39,39,58,-58,0,34,-39,-43,-29,-43,-53
-73,-39,34,56,-53,-2,34,-39,-43,-34,-43,-53
-73,-39,34,56,-53,-2,34,-39,-48,-39,-43,-53
-73,-39,34,56,-53,-2,34,-39,-43,-39,-43,-53
-78,-43,34,61,-56,-4,34,-43,-39,-39,-43,-53
-82,-43,39,63,-61,-2,34,-43,-39,-39,-43,-53
-82,-43,39,63,-61,-2,34,-43,-39,-39,-43,-53
-82,-43,39,63,-61,-2,29,-43,-39,-43,-48,-53
-82,-43,39,63,-61,-2,24,-43,-39,-43,-48,-53
-82,-43,39,63,-61,-2,29,-39,-43,-39,-48,-58
-82,-43,39,63,-61,-2,29,-39,-43,-34,-48,-58
-82,-43,39,63,-61,-2,29,-39,-48,-34,-48,-58
-82,-39,43,61,-63,2,29,-39,-53,-34,-53,-58
-82,-43,39,63,-61,-2,29,-43,-53,-39,-53,-58
-82,-48,34,65,-58,-7,29,-48,-53,-43,-53,-58
-82,-43,39,63,-61,-2,29,-48,-53,-39,-48,-58
-82,-39,43,61,-63,2,34,-48,-53,-34,-48,-53
-87,-29,58,58,-73,14,39,-48,-48,-34,-43,-53
-87,-24,63,56,-75,19,43,-43,-48,-34,-43,-53
-82,-14,68,48,-75,26,48,-48,-43,-34,-43,-53
-78,-4,73,41,-75,34,48,-48,-29,-29,-39,-43
-63,9,73,26,-68,41,53,-39,-24,-14,-29,-29
-48,29,78,9,-63,53,58,-29,-19,0,-19,-19
-43,29,73,7,-58,51,58,-24,-9,0,-19,-19
-39,29,68,4,-53,48,58,-19,0,0,-19,-19
-39,29,68,4,-53,48,58,-14,4,4,-14,-19
-34,29,63,2,-48,46,58,-9,14,9,-4,-14
-34,34,68,0,-51,51,63,-4,29,19,4,-9
-29,34,63,-2,-46,48,63,0,34,19,9,-9
-19,19,39,0,-29,29,43,0,29,19,9,-9
-9,19,29,-4,-19,24,24,0,29,9,9,-9
24,34,9,-29,7,21,0,4,39,34,24,4
48,58,9,-53,19,34,-14,9,48,53,39,24
63,63,0,-63,31,31,-19,14,53,58,53,34
73,68,-4,-70,39,31,-24,14,58,58,48,43
58,43,-14,-51,36,14,-24,19,48,43,39,29
39,24,-14,-31,26,4,-24,9,29,24,19,14
34,9,-24,-21,29,-7,-24,0,14,19,14,9
34,9,-24,-21,29,-7,-19,-9,9,14,14,9
34,0,-34,-17,34,-17,-19,-14,-4,4,4,4
34,-4,-39,-14,36,-21,-19,-14,-9,0,0,4
34,-14,-48,-9,41,-31,-9,-14,-14,0,-4,0
29,-19,-48,-4,39,-34,-9,-14,-19,-9,-9,-9
4,-34,-39,14,21,-36,9,-14,-14,-14,-19,-19
-19,-48,-29,34,4,-39,14,-24,-24,-24,-29,-29
-43,-63,-19,53,-12,-41,29,-29,-29,-29,-34,-34
-63,-82,-19,73,-21,-51,34,-34,-43,-39,-48,-48
-78,-87,-9,82,-34,-48,39,-43,-58,-48,-58,-58
-87,-97,-9,92,-39,-53,43,-48,-68,-58,-68,-68
-92,-102,-9,97,-41,-56,43,-53,-73,-63,-68,-68
-97,-107,-9,102,-43,-58,43,-58,-73,-63,-73,-68
-97,-107,-9,102,-43,-58,43,-58,-73,-63,-73,-68
-97,-107,-9,102,-43,-58,43,-63,-78,-63,-73,-73
-102,-112,-9,107,-46,-61,48,-58,-78,-63,-73,-73
-102,-117,-14,109,-43,-65,48,-53,-78,-63,-73,-78
-107,-117,-9,112,-48,-63,48,-58,-87,-68,-78,-78
-112,-117,-4,114,-53,-61,48,-58,-92,-68,-78,-78
-117,-122,-4,119,-56,-63,53,-58,-92,-68,-78,-78
-122,-122,0,122,-61,-61,53,-53,-92,-68,-78,-78
-126,-117,9,122,-68,-53,58,-53,-92,-68,-78,-78
-131,-112,19,122,-75,-46,63,-58,-92,-68,-78,-78
-131,-112,19,122,-75,-46,63,-58,-97,-68,-78,-78
-136,-112,24,124,-80,-43,63,-58,-102,-68,-82,-78
-136,-112,24,124,-80,-43,63,-63,-107,-68,-82,-78
-141,-112,29,126,-85,-41,58,-68,-112,-68,-82,-82
-156,-112,43,134,-100,-34,73,-73,-107,-73,-87,-87
-180,-107,73,143,-126,-17,102,-73,-107,-73,-92,-102
-224,-102,122,163,-173,9,122,-92,-122,-87,-122,-136
-248,-78,170,163,-209,46,131,-73,-87,-68,-107,-131
-224,-68,156,146,-190,43,180,53,29,14,-39,-73
-92,-48,43,70,-68,-2,185,283,278,156,87,24
190,14,-175,-102,183,-80,165,624,717,395,302,195
512,131,-380,-322,446,-124,4,697,941,610,517,395
1112,380,-732,-746,922,-175,-463,663,1117,902,897,795
1546,605,-941,-1076,1244,-168,-888,527,1088,1049,1137,1078
1673,653,-1019,-1163,1346,-183,-1171,273,692,756,932,990
1503,629,-873,-1066,1188,-122,-1200,-112,180,444,658,810
863,502,-361,-683,612,70,-1015,-927,-756,9,253,492
385,414,29,-400,178,222,-854,-1390,-1263,-180,63,326
317,366,48,-341,134,207,-810,-1166,-1132,-185,48,297
263,336,73,-300,95,204,-712,-907,-912,-151,48,273
185,268,82,-226,51,175,-531,-644,-673,-136,14,175
97,214,117,-156,-9,165,-375,-448,-488,-117,0,112
14,117,102,-65,-43,109,-244,-297,-336,-117,-39,39
-29,53,82,-12,-56,68,-136,-190,-229,-117,-68,-4
-58,19,78,19,-68,48,-48,-146,-180,-97,-73,-34
-78,-19,58,48,-68,19,4,-102,-131,-78,-73,-53
-102,-39,63,70,-82,12,9,-78,-112,-73,-68,-58
-117,-48,68,82,-92,9,24,-68,-102,-73,-68,-68
-126,-48,78,87,-102,14,39,-68,-102,-78,-82,-78
-126,-58,68,92,-97,4,48,-58,-97,-78,-87,-87
-136,-68,68,102,-102,0,53,-48,-87,-78,-87,-92
-136,-68,68,102,-102,0,53,-48,-82,-78,-87,-97
-141,-68,73,104,-107,2,68,-43,-82,-78,-87,-97
-151,-73,78,112,-114,2,73,-39,-82,-82,-87,-102
-151,-82,68,117,-109,-7,78,-34,-78,-82,-87,-102
-151,-87,63,119,-107,-12,78,-29,-73,-78,-87,-102
-151,-82,68,117,-109,-7,78,-29,-63,-78,-92,-102
-151,-82,68,117,-109,-7,78,-29,-58,-78,-92,-102
-151,-82,68,117,-109,-7,78,-24,-58,-78,-92,-102
-151,-82,68,117,-109,-7,78,-24,-53,-78,-87,-102
-146,-78,68,112,-107,-4,78,-14,-48,-82,-92,-97
-141,-78,63,109,-102,-7,78,-14,-43,-82,-97,-97
-141,-78,63,109,-102,-7,78,-14,-43,-82,-97,-97
-141,-78,63,109,-102,-7,78,-9,-39,-82,-92,-92
-131,-78,53,104,-92,-12,78,-4,-39,-78,-87,-92
-126,-78,48,102,-87,-14,78,-4,-34,-78,-82,-92
-122,-78,43,100,-82,-17,78,0,-34,-78,-78,-92
-117,-78,39,97,-78,-19,78,9,-24,-78,-78,-92
-117,-68,48,92,-82,-9,78,9,-19,-78,-78,-87
-112,-63,48,87,-80,-7,73,14,-19,-73,-82,-82
-107,-63,43,85,-75,-9,68,24,-19,-68,-78,-82
-102,-63,39,82,-70,-12,63,29,-14,-68,-78,-82
-102,-63,39,82,-70,-12,63,39,-4,-68,-73,-78
-92,-53,39,73,-65,-7,63,43,-4,-63,-73,-73
-92,-53,39,73,-65,-7,58,53,4,-63,-68,-73
-87,-48,39,68,-63,-4,58,58,14,-53,-63,-68
-82,-48,34,65,-58,-7,53,68,24,-48,-58,-63
-73,-53,19,63,-46,-17,53,78,29,-39,-53,-58
-53,-39,14,46,-34,-12,53,92,39,-39,-48,-53
-43,-39,4,41,-24,-17,48,102,53,-34,-43,-43
-34,-34,0,34,-17,-17,48,117,63,-24,-39,-34
-19,-24,-4,21,-7,-14,43,131,78,-19,-29,-29
-9,-19,-9,14,0,-14,39,141,92,-14,-24,-24
4,-9,-14,2,9,-12,34,161,102,-14,-14,-14
19,0,-19,-9,19,-9,29,175,112,0,-4,-9
34,4,-29,-19,31,-12,24,185,126,9,9,-4
48,14,-34,-31,41,-9,19,195,136,24,19,9
58,19,-39,-39,48,-9,9,209,151,34,29,14
78,29,-48,-53,63,-9,0,224,161,43,43,29
92,34,-58,-63,75,-12,0,234,175,53,58,43
112,39,-73,-75,92,-17,-9,244,185,63,73,53
126,53,-73,-90,100,-9,-14,248,195,73,82,58
146,63,-82,-104,114,-9,-19,258,204,82,92,73
161,73,-87,-117,124,-7,-24,273,214,92,102,82
175,82,-92,-129,134,-4,-39,278,219,102,112,87
190,92,-97,-141,143,-2,-39,283,234,112,122,92
190,92,-97,-141,143,-2,-43,268,239,112,122,102
185,92,-92,-139,139,0,-48,258,234,117,122,102
180,92,-87,-136,134,2,-53,239,224,117,126,107
175,87,-87,-131,131,0,-48,219,209,112,126,102
151,87,-63,-119,107,12,-43,204,200,97,117,97
131,82,-48,-107,90,17,-34,185,185,92,107,87
117,73,-43,-95,80,14,-24,156,161,82,97,73
102,63,-39,-82,70,12,-14,131,146,73,78,63
78,53,-24,-65,51,14,-9,117,126,68,68,48
53,43,-9,-48,31,17,0,97,107,58,48,34
34,34,0,-34,17,17,4,73,87,48,39,24
9,24,14,-17,-2,19,9,53,73,39,29,9
0,14,14,-7,-7,14,14,43,63,29,14,0
-9,9,19,0,-14,14,24,34,48,19,4,-4
-24,4,29,9,-26,17,29,19,39,9,-4,-14
-34,0,34,17,-34,17,29,9,29,4,-9,-19
-39,-4,34,21,-36,14,29,4,19,4,-14,-29
-39,-9,29,24,-34,9,29,0,19,4,-14,-34
-39,-9,29,24,-34,9,34,-4,14,0,-19,-34
-43,-14,29,29,-36,7,34,-14,14,0,-24,-34
-48,-19,29,34,-39,4,34,-14,9,-4,-29,-34
-53,-24,29,39,-41,2,34,-14,9,-4,-29,-34
-53,-24,29,39,-41,2,29,-14,9,-9,-29,-39
-53,-29,24,41,-39,-2,24,-14,4,-14,-29,-39
-53,-29,24,41,-39,-2,24,-14,4,-14,-24,-39
-53,-29,24,41,-39,-2,24,-14,4,-14,-19,-39
-53,-29,24,41,-39,-2,24,-14,4,-14,-19,-39
-53,-29,24,41,-39,-2,29,-14,4,-14,-19,-39
-48,-29,19,39,-34,-4,29,-9,4,-14,-19,-39
-48,-29,19,39,-34,-4,29,-4,4,-14,-19,-39
-43,-29,14,36,-29,-7,29,-4,4,-14,-19,-39
-43,-24,19,34,-31,-2,29,-4,9,-14,-19,-39
-48,-24,24,36,-36,0,29,-4,9,-14,-19,-34
-48,-24,24,36,-36,0,29,-4,9,-14,-19,-29
-48,-19,29,34,-39,4,29,-4,9,-14,-19,-29
-48,-14,34,31,-41,9,29,-4,9,-14,-19,-29
-48,-14,34,31,-41,9,34,-4,9,-14,-19,-29
-43,-14,29,29,-36,7,34,-4,9,-14,-19,-29
-43,-14,29,29,-36,7,34,-4,9,-14,-19,-29
-43,-14,29,29,-36,7,34,-4,9,-14,-19,-29
-43,-14,29,29,-36,7,34,-4,9,-14,-19,-34
-48,-14,34,31,-41,9,29,-4,9,-14,-19,-34
-48,-14,34,31,-41,9,29,-9,4,-9,-19,-34
-48,-14,34,31,-41,9,29,-14,4,-9,-19,-34
-48,-14,34,31,-41,9,29,-14,4,-14,-19,-39
-48,-14,34,31,-41,9,29,-14,4,-14,-19,-39
-48,-14,34,31,-41,9,24,-14,4,-14,-24,-39
-48,-14,34,31,-41,9,24,-14,4,-14,-29,-34
-48,-19,29,34,-39,4,24,-19,4,-14,-29,-34
-48,-24,24,36,-36,0,29,-19,0,-14,-29,-39
-58,-24,34,41,-46,4,29,-19,0,-14,-29,-39
-63,-24,39,43,-51,7,29,-24,0,-14,-29,-39
-63,-24,39,43,-51,7,29,-24,0,-14,-29,-39
-63,-19,43,41,-53,12,29,-24,-4,-19,-29,-39
-63,-19,43,41,-53,12,29,-19,-9,-19,-29,-39
-58,-19,39,39,-48,9,29,-19,-19,-19,-29,-43
-53,-19,34,36,-43,7,29,-19,-19,-19,-34,-43
-53,-19,34,36,-43,7,24,-19,-19,-24,-34,-43
-58,-24,34,41,-46,4,19,-19,-19,-24,-34,-43
-58,-24,34,41,-46,4,19,-24,-24,-24,-39,-43
-58,-29,29,43,-43,0,19,-24,-24,-24,-39,-43
-58,-34,24,46,-41,-4,19,-24,-29,-24,-39,-48
-58,-34,24,46,-41,-4,19,-24,-29,-29,-39,-48
-63,-39,24,51,-43,-7,24,-24,-29,-29,-39,-48
-63,-39,24,51,-43,-7,24,-24,-34,-34,-39,-43
-63,-39,24,51,-43,-7,24,-29,-34,-39,-43,-39
-68,-34,34,51,-51,0,24,-29,-34,-39,-43,-39
-68,-29,39,48,-53,4,24,-29,-34,-39,-43,-43
-68,-29,39,48,-53,4,24,-29,-29,-39,-43,-43
-73,-29,43,51,-58,7,24,-29,-29,-39,-43,-43
-73,-29,43,51,-58,7,24,-29,-29,-39,-43,-43
-78,-34,43,56,-61,4,24,-34,-29,-39,-43,-43
-82,-34,48,58,-65,7,24,-34,-29,-39,-43,-48
-82,-34,48,58,-65,7,24,-34,-29,-39,-43,-53
-82,-34,48,58,-65,7,24,-34,-29,-43,-48,-53
-82,-34,48,58,-65,7,24,-34,-29,-43,-48,-53
-82,-39,43,61,-63,2,29,-34,-34,-43,-48,-58
-82,-43,39,63,-61,-2,29,-39,-34,-43,-48,-58
-78,-43,34,61,-56,-4,29,-39,-34,-43,-48,-58
-73,-39,34,56,-53,-2,29,-39,-34,-43,-53,-58
-73,-39,34,56,-53,-2,29,-39,-39,-43,-53,-58
-73,-39,34,56,-53,-2,29,-39,-43,-43,-53,-58
-73,-34,39,53,-56,2,29,-39,-43,-39,-48,-58
-73,-29,43,51,-58,7,34,-39,-43,-34,-48,-53
-78,-19,58,48,-68,19,34,-39,-39,-34,-43,-53
-73,-9,63,41,-68,26,39,-34,-34,-29,-39,-53
-68,4,73,31,-70,39,39,-29,-19,-24,-29,-43
-63,19,82,21,-73,51,43,-29,-4,-19,-19,-34
-53,29,82,12,-68,56,43,-24,0,-9,-14,-24
-48,39,87,4,-68,63,48,-19,0,0,-9,-19
-43,39,82,2,-63,61,48,-9,0,0,-9,-19
-39,39,78,0,-58,58,48,0,0,0,-9,-19
-34,43,78,-4,-56,61,48,0,14,9,-4,-9
-24,48,73,-12,-48,61,43,4,24,14,0,-4
-19,53,73,-17,-46,63,43,9,34,19,4,0
-9,39,48,-14,-29,43,24,9,29,19,9,0
0,39,39,-19,-19,39,4,9,24,9,9,-4
29,53,24,-41,2,39,-14,14,29,29,24,4
48,78,29,-63,9,53,-24,14,39,48,34,24
53,78,24,-65,14,51,-29,14,39,53,39,24
53,78,24,-65,14,51,-34,14,39,48,29,24
39,53,14,-46,12,34,-34,9,29,34,19,9
19,34,14,-26,2,24,-34,-9,9,14,0,-4
19,19,0,-19,9,9,-34,-9,-4,9,-4,-9
24,19,-4,-21,14,7,-29,-9,-9,4,-4,-4
24,9,-14,-17,19,-2,-29,-14,-19,-4,-14,-4
24,4,-19,-14,21,-7,-29,-14,-19,-9,-19,-4
19,-4,-24,-7,21,-14,-19,-19,-24,-9,-24,-9
9,-9,-19,0,14,-14,-19,-24,-29,-19,-24,-19
-14,-24,-9,19,-2,-17,0,-24,-29,-24,-29,-29
-39,-39,0,39,-19,-19,4,-34,-43,-34,-39,-39
-58,-48,9,53,-34,-19,19,-39,-48,-39,-43,-43
-78,-63,14,70,-46,-24,29,-43,-63,-48,-58,-63
-97,-68,29,82,-63,-19,34,-53,-73,-58,-68,-78
-107,-78,29,92,-68,-24,34,-58,-78,-68,-82,-87
-107,-78,29,92,-68,-24,34,-58,-82,-73,-87,-87
-107,-78,29,92,-68,-24,34,-58,-82,-73,-92,-87
-107,-78,29,92,-68,-24,34,-58,-82,-73,-92,-87
-107,-82,24,95,-65,-29,29,-63,-87,-78,-92,-92
-112,-87,24,100,-68,-31,29,-63,-87,-82,-92,-92
-112,-87,24,100,-68,-31,29,-63,-87,-82,-92,-97
-117,-87,29,102,-73,-29,29,-68,-92,-87,-97,-97
-122,-82,39,102,-80,-21,29,-68,-92,-87,-97,-97
-122,-82,39,102,-80,-21,34,-68,-92,-87,-97,-97
-122,-82,39,102,-80,-21,34,-63,-92,-87,-97,-97
-122,-82,39,102,-80,-21,34,-63,-92,-87,-97,-97
-122,-82,39,102,-80,-21,34,-63,-92,-87,-97,-97
-122,-82,39,102,-80,-21,34,-58,-92,-87,-97,-97
-122,-82,39,102,-80,-21,34,-58,-92,-87,-97,-92
-117,-82,34,100,-75,-24,39,-58,-92,-87,-92,-87
-122,-82,39,102,-80,-21,34,-63,-92,-87,-92,-92
-146,-82,63,114,-104,-9,48,-68,-82,-87,-92,-97
-190,-82,107,136,-148,12,82,-73,-92,-92,-102,-117
-209,-82,126,146,-168,21,102,-63,-73,-78,-107,-122
-229,-58,170,143,-200,56,126,-43,-43,-48,-87,-112
-161,-24,136,92,-148,56,156,78,92,53,4,-39
9,-9,-19,0,14,-14,170,395,434,229,161,78
307,63,-244,-185,275,-90,97,678,800,453,380,268
702,209,-492,-456,597,-141,-131,683,1010,697,639,512
1190,414,-775,-802,983,-180,-522,634,1122,897,912,814
1620,658,-961,-1139,1290,-151,-990,473,1029,1010,1132,1098
1693,697,-995,-1195,1344,-148,-1229,175,605,751,956,1029
1337,624,-712,-980,1024,-43,-1132,-331,-58,361,590,756
810,527,-283,-668,546,122,-980,-971,-814,-4,248,488
356,444,87,-400,134,265,-844,-1351,-1234,-141,112,370
234,375,141,-305,46,258,-780,-1215,-1171,-170,68,307
239,331,92,-285,73,212,-678,-858,-854,-122,68,263
185,244,58,-214,63,151,-512,-585,-619,-117,24,165
82,170,87,-126,-2,129,-341,-405,-448,-107,-4,97
0,82,82,-41,-41,82,-214,-263,-307,-107,-39,29
-29,29,58,0,-43,43,-117,-170,-209,-107,-63,-9
-53,-4,48,29,-51,21,-39,-117,-151,-92,-73,-39
-73,-43,29,58,-51,-7,4,-78,-112,-78,-73,-53
-97,-58,39,78,-68,-9,14,-58,-102,-78,-73,-58
-107,-58,48,82,-78,-4,29,-58,-102,-82,-73,-68
-117,-58,58,87,-87,0,48,-58,-102,-87,-82,-78
-117,-68,48,92,-82,-9,58,-48,-92,-82,-87,-87
-126,-78,48,102,-87,-14,63,-39,-78,-78,-87,-87
-131,-78,53,104,-92,-12,63,-39,-73,-78,-92,-87
-136,-78,58,107,-97,-9,73,-34,-73,-78,-97,-87
-141,-82,58,112,-100,-12,68,-29,-73,-87,-97,-97
-141,-87,53,114,-97,-17,68,-24,-68,-92,-97,-102
-136,-87,48,112,-92,-19,68,-19,-63,-87,-97,-102
-131,-82,48,107,-90,-17,68,-19,-58,-87,-102,-102
-131,-82,48,107,-90,-17,68,-19,-58,-87,-102,-102
-131,-82,48,107,-90,-17,68,-14,-58,-87,-102,-102
-131,-78,53,104,-92,-12,68,-14,-53,-87,-97,-102
-126,-68,58,97,-92,-4,68,-4,-48,-87,-97,-97
-122,-68,53,95,-87,-7,73,-4,-43,-82,-97,-102
-122,-68,53,95,-87,-7,78,-4,-43,-82,-97,-107
-122,-68,53,95,-87,-7,78,-4,-39,-82,-92,-102
-117,-68,48,92,-82,-9,78,-4,-39,-78,-92,-102
-122,-68,53,95,-87,-7,73,-4,-34,-78,-92,-97
-122,-68,53,95,-87,-7,68,0,-34,-78,-87,-92
-117,-68,48,92,-82,-9,68,14,-24,-78,-87,-92
-117,-63,53,90,-85,-4,68,19,-19,-78,-82,-87
-107,-63,43,85,-75,-9,63,24,-19,-78,-82,-82
-97,-63,34,80,-65,-14,63,34,-14,-78,-78,-82
-92,-68,24,80,-58,-21,63,39,-4,-78,-78,-82
-92,-73,19,82,-56,-26,63,48,4,-78,-73,-78
-87,-63,24,75,-56,-19,68,53,4,-73,-73,-73
-87,-63,24,75,-56,-19,68,63,14,-73,-68,-73
-78,-58,19,68,-48,-19,68,68,24,-63,-63,-68
-73,-53,19,63,-46,-17,63,78,34,-58,-58,-63
-63,-53,9,58,-36,-21,63,87,39,-48,-58,-58
-48,-39,9,43,-29,-14,58,102,48,-48,-53,-53
-43,-39,4,41,-24,-17,48,112,58,-43,-43,-43
-34,-34,0,34,-17,-17,48,126,63,-34,-39,-34
-19,-29,-9,24,-4,-19,39,141,78,-29,-29,-29
-4,-29,-24,17,9,-26,29,151,92,-19,-24,-24
14,-19,-34,2,24,-26,24,170,107,-14,-14,-19
29,-9,-39,-9,34,-24,19,185,122,0,-4,-14
43,4,-39,-24,41,-17,14,195,136,9,9,-4
58,24,-34,-41,46,-4,9,204,146,19,19,9
68,19,-48,-43,58,-14,0,219,161,24,29,14
87,24,-63,-56,75,-19,-9,234,170,34,39,29
107,34,-73,-70,90,-19,-4,248,185,43,48,43
131,39,-92,-85,112,-26,-9,263,195,53,63,53
146,53,-92,-100,119,-19,-14,268,204,58,73,58
161,58,-102,-109,131,-21,-19,273,214,63,82,73
170,68,-102,-119,136,-17,-24,287,224,73,92,82
180,82,-97,-131,139,-7,-39,292,224,82,102,87
190,92,-97,-141,143,-2,-43,292,234,92,112,92
190,92,-97,-141,143,-2,-48,278,234,92,112,102
185,92,-92,-139,139,0,-48,268,224,97,117,107
175,92,-82,-134,129,4,-48,244,214,97,117,107
170,87,-82,-129,126,2,-39,219,200,97,107,92
151,82,-68,-117,109,7,-34,204,190,87,97,87
131,78,-53,-104,92,12,-24,185,175,82,87,78
112,73,-39,-92,75,17,-14,156,151,73,82,63
92,63,-29,-78,61,17,-4,126,136,63,68,53
68,53,-14,-61,41,19,0,107,117,53,58,39
43,43,0,-43,21,21,9,87,97,39,39,24
29,34,4,-31,12,19,14,68,78,29,29,14
9,24,14,-17,-2,19,19,53,63,19,19,4
0,14,14,-7,-7,14,19,43,53,9,4,0
-14,4,19,4,-17,12,24,29,39,0,-4,-4
-29,-4,24,17,-26,9,29,14,29,-9,-14,-14
-34,-9,24,21,-29,7,34,9,19,-14,-19,-24
-39,-14,24,26,-31,4,39,4,9,-14,-24,-34
-39,-19,19,29,-29,0,39,0,9,-14,-29,-39
-39,-19,19,29,-29,0,43,0,4,-19,-34,-43
-48,-24,24,36,-36,0,43,-9,4,-19,-34,-43
-58,-24,34,41,-46,4,43,-14,0,-24,-39,-43
-63,-24,39,43,-51,7,43,-14,0,-24,-39,-43
-63,-24,39,43,-51,7,43,-14,0,-24,-39,-48
-63,-29,34,46,-48,2,43,-14,-4,-24,-39,-48
-63,-29,34,46,-48,2,43,-14,-4,-24,-39,-48
-63,-29,34,46,-48,2,43,-14,-9,-24,-39,-43
-63,-29,34,46,-48,2,39,-14,-14,-24,-39,-39
-63,-29,34,46,-48,2,43,-14,-14,-24,-39,-39
-58,-29,29,43,-43,0,48,-14,-14,-24,-39,-39
-58,-29,29,43,-43,0,48,-14,-14,-24,-39,-39
-53,-29,24,41,-39,-2,48,-14,-14,-24,-39,-39
-53,-24,29,39,-41,2,48,-14,-9,-24,-39,-43
-58,-24,34,41,-46,4,48,-14,-9,-24,-39,-48
-58,-24,34,41,-46,4,48,-14,-9,-29,-39,-48
-58,-24,34,41,-46,4,48,-14,-9,-34,-39,-48
-58,-24,34,41,-46,4,43,-14,-9,-34,-43,-48
-58,-24,34,41,-46,4,43,-14,-9,-34,-48,-48
-53,-24,29,39,-41,2,43,-14,-9,-34,-48,-43
-53,-24,29,39,-41,2,43,-14,-9,-34,-48,-39
-53,-24,29,39,-41,2,43,-14,-9,-34,-43,-39
-53,-24,29,39,-41,2,43,-14,-9,-34,-39,-39
-53,-24,29,39,-41,2,43,-14,-9,-34,-39,-34
-48,-24,24,36,-36,0,48,-14,-14,-29,-39,-34
-48,-24,24,36,-36,0,48,-14,-14,-29,-39,-34
-48,-24,24,36,-36,0,48,-14,-14,-34,-39,-39
-53,-24,29,39,-41,2,48,-14,-14,-34,-39,-43
-58,-24,34,41,-46,4,43,-14,-14,-34,-39,-48
-58,-24,34,41,-46,4,43,-14,-14,-34,-39,-43
-58,-24,34,41,-46,4,43,-19,-14,-34,-39,-43
-53,-24,29,39,-41,2,43,-19,-19,-34,-39,-48
-53,-24,29,39,-41,2,39,-19,-19,-34,-39,-48
-53,-24,29,39,-41,2,39,-24,-19,-34,-39,-43
-53,-29,24,41,-39,-2,39,-24,-19,-34,-39,-39
-58,-29,29,43,-43,0,43,-24,-24,-39,-39,-39
-68,-29,39,48,-53,4,48,-24,-24,-39,-39,-39
-68,-29,39,48,-53,4,48,-29,-29,-39,-43,-48
-63,-29,34,46,-48,2,48,-29,-29,-39,-53,-53
-63,-29,34,46,-48,2,43,-29,-29,-43,-53,-53
-68,-34,34,51,-51,0,43,-29,-29,-43,-53,-53
-68,-34,34,51,-51,0,48,-29,-34,-43,-53,-53
-68,-34,34,51,-51,0,48,-24,-34,-43,-48,-53
-68,-34,34,51,-51,0,48,-24,-39,-43,-48,-58
-68,-34,34,51,-51,0,43,-24,-39,-48,-48,-58
-73,-43,29,58,-51,-7,43,-24,-39,-48,-48,-58
-73,-48,24,61,-48,-12,43,-24,-43,-48,-48,-58
-73,-48,24,61,-48,-12,43,-29,-43,-48,-53,-58
-78,-48,29,63,-53,-9,43,-29,-43,-48,-53,-58
-78,-48,29,63,-53,-9,43,-34,-43,-48,-58,-63
-73,-48,24,61,-48,-12,43,-39,-43,-53,-63,-63
-73,-48,24,61,-48,-12,43,-39,-48,-58,-63,-63
-73,-48,24,61,-48,-12,43,-39,-48,-58,-63,-63
-78,-48,29,63,-53,-9,43,-39,-48,-58,-63,-63
-82,-43,39,63,-61,-2,43,-34,-48,-58,-63,-63
-82,-43,39,63,-61,-2,43,-34,-48,-53,-58,-63
-82,-43,39,63,-61,-2,43,-34,-48,-53,-58,-63
-82,-43,39,63,-61,-2,39,-39,-48,-53,-58,-63
-82,-43,39,63,-61,-2,39,-43,-53,-53,-58,-68
-78,-43,34,61,-56,-4,39,-48,-53,-53,-58,-68
-73,-43,29,58,-51,-7,39,-48,-53,-53,-58,-68
-73,-34,39,53,-56,2,48,-43,-53,-53,-63,-63
-73,-29,43,51,-58,7,58,-39,-53,-53,-63,-58
-73,-19,53,46,-63,17,58,-39,-43,-43,-53,-58
-73,0,73,36,-73,36,63,-39,-34,-24,-39,-53
-68,9,78,29,-73,43,63,-29,-24,-19,-34,-43
-68,19,87,24,-78,53,68,-19,-19,-19,-29,-39
-58,19,78,19,-68,48,68,-19,-19,-19,-29,-39
-48,19,68,14,-58,43,68,-19,-19,-19,-29,-39
-48,24,73,12,-61,48,68,-19,-14,-9,-24,-39
-43,29,73,7,-58,51,68,-14,-4,0,-14,-34
-43,34,78,4,-61,56,68,-14,4,9,-9,-29
-39,34,73,2,-56,53,63,-9,4,9,-9,-29
-29,19,48,4,-39,34,43,-9,0,4,-9,-29
-19,19,39,0,-29,29,24,-9,0,-9,-9,-29
9,34,24,-21,-7,29,4,-4,9,9,4,-9
29,58,29,-43,0,43,-4,0,19,24,19,14
34,63,29,-48,2,46,-9,4,19,24,29,14
34,68,34,-51,0,51,-14,4,19,19,19,14
19,43,24,-31,-2,34,-14,0,9,4,9,-4
0,24,24,-12,-12,24,-14,-19,-9,-14,-9,-24
0,9,9,-4,-4,9,-24,-19,-24,-19,-14,-29
4,9,4,-7,0,7,-29,-19,-29,-24,-14,-29
4,0,-4,-2,4,-2,-14,-24,-39,-34,-24,-34
4,-4,-9,0,7,-7,0,-24,-39,-39,-29,-34
0,-14,-14,7,7,-14,9,-29,-43,-39,-34,-34
-9,-19,-9,14,0,-14,9,-34,-48,-48,-39,-39
-34,-39,-4,36,-14,-21,24,-29,-43,-48,-48,-48
-58,-58,0,58,-29,-29,24,-34,-53,-53,-58,-58
-73,-68,4,70,-39,-31,39,-39,-58,-58,-63,-63
-82,-82,0,82,-41,-41,43,-43,-73,-68,-78,-78
-97,-87,9,92,-53,-39,39,-53,-87,-82,-87,-92
-107,-97,9,102,-58,-43,34,-58,-97,-97,-97,-107
-107,-97,9,102,-58,-43,34,-58,-102,-102,-97,-107
-107,-97,9,102,-58,-43,34,-58,-102,-102,-102,-107
-107,-97,9,102,-58,-43,39,-58,-102,-102,-102,-107
-107,-97,9,102,-58,-43,43,-63,-107,-102,-102,-112
-112,-97,14,104,-63,-41,48,-68,-107,-102,-102,-107
-112,-97,14,104,-63,-41,48,-73,-107,-102,-102,-107
-117,-97,19,107,-68,-39,48,-78,-112,-102,-107,-107
-122,-97,24,109,-73,-36,48,-78,-112,-97,-107,-107
-126,-102,24,114,-75,-39,53,-78,-112,-97,-107,-107
-131,-102,29,117,-80,-36,53,-73,-112,-97,-107,-107
-131,-102,29,117,-80,-36,53,-68,-112,-97,-107,-107
-131,-102,29,117,-80,-36,53,-68,-112,-97,-107,-107
-126,-102,24,114,-75,-39,53,-68,-112,-102,-107,-107
-126,-102,24,114,-75,-39,53,-68,-112,-107,-112,-107
-126,-102,24,114,-75,-39,58,-68,-112,-107,-117,-107
-131,-102,29,117,-80,-36,58,-68,-112,-107,-122,-112
-156,-102,53,129,-104,-24,78,-68,-102,-107,-122,-117
-190,-97,92,143,-141,-2,112,-63,-97,-102,-122,-131
-200,-92,107,146,-153,7,131,-48,-63,-78,-117,-131
-190,-68,122,129,-156,26,141,4,19,-19,-68,-92
-97,-34,63,65,-80,14,156,165,209,126,63,9
102,9,-92,-56,97,-41,126,429,531,331,253,151
429,122,-307,-275,368,-92,19,658,907,600,527,395
795,287,-507,-541,651,-109,-229,619,1068,844,800,668
1254,522,-732,-888,993,-104,-649,541,1127,1039,1093,1000
1546,732,-814,-1139,1180,-41,-1024,361,980,1088,1244,1215
1488,732,-756,-1110,1122,-12,-1176,29,463,727,946,1039
1132,658,-473,-895,802,92,-1073,-434,-170,346,580,771
605,531,-73,-568,339,229,-917,-1039,-922,-19,239,497
239,444,204,-341,17,324,-785,-1293,-1244,-141,112,375
204,370,165,-287,19,268,-727,-1019,-1044,-151,82,312
185,317,131,-251,26,224,-614,-712,-756,-122,68,253
117,224,107,-170,4,165,-434,-488,-551,-117,19,151
39,146,107,-92,-34,126,-278,-331,-400,-107,-9,82
-24,63,87,-19,-56,75,-161,-209,-273,-107,-48,14
-48,14,63,17,-56,39,-68,-131,-190,-107,-78,-24
-73,-19,53,46,-63,17,0,-97,-151,-92,-82,-48
-87,-58,29,73,-58,-14,34,-63,-112,-78,-82,-63
-107,-68,39,87,-73,-14,34,-53,-102,-82,-82,-68
-117,-68,48,92,-82,-9,43,-58,-102,-92,-87,-78
-126,-73,53,100,-90,-9,58,-58,-102,-102,-102,-92
-126,-87,39,107,-82,-24,68,-48,-97,-107,-107,-107
-136,-97,39,117,-87,-29,73,-39,-87,-107,-107,-107
-136,-97,39,117,-87,-29,73,-39,-82,-107,-107,-107
-136,-92,43,114,-90,-24,82,-34,-82,-107,-107,-107
-141,-92,48,117,-95,-21,82,-29,-82,-112,-107,-112
-141,-97,43,119,-92,-26,87,-24,-78,-112,-107,-112
-141,-97,43,119,-92,-26,87,-19,-73,-107,-107,-112
-141,-92,48,117,-95,-21,87,-19,-68,-107,-112,-112
-141,-92,48,117,-95,-21,87,-19,-68,-107,-112,-112
-141,-92,48,117,-95,-21,87,-14,-68,-107,-112,-112
-141,-92,48,117,-95,-21,87,-14,-63,-107,-107,-112
-136,-87,48,112,-92,-19,82,-4,-58,-107,-107,-107
-131,-87,43,109,-87,-21,78,-4,-53,-102,-107,-107
-131,-87,43,109,-87,-21,78,-4,-53,-102,-107,-107
-131,-87,43,109,-87,-21,78,0,-48,-102,-102,-102
-126,-87,39,107,-82,-24,78,4,-48,-97,-102,-102
-126,-87,39,107,-82,-24,78,4,-43,-97,-102,-102
-122,-87,34,104,-78,-26,78,9,-43,-97,-97,-102
-117,-87,29,102,-73,-29,78,19,-34,-97,-97,-102
-117,-82,34,100,-75,-24,78,19,-29,-97,-92,-97
-112,-82,29,97,-70,-26,73,24,-29,-92,-92,-92
-107,-82,24,95,-65,-29,73,29,-24,-87,-87,-92
-102,-82,19,92,-61,-31,73,29,-14,-87,-87,-92
-102,-82,19,92,-61,-31,73,39,-4,-87,-82,-87
-92,-73,19,82,-56,-26,73,43,-4,-82,-82,-82
-87,-73,14,80,-51,-29,68,53,4,-78,-78,-82
-78,-68,9,73,-43,-29,68,58,14,-63,-73,-78
-73,-63,9,68,-41,-26,63,68,24,-58,-68,-73
-63,-63,0,63,-31,-31,63,78,29,-48,-63,-68
-48,-48,0,48,-24,-24,58,92,39,-48,-53,-63
-43,-48,-4,46,-19,-26,48,102,53,-43,-43,-53
-34,-43,-9,39,-12,-26,53,117,63,-34,-39,-43
-19,-34,-14,26,-2,-24,53,131,78,-29,-29,-39
-4,-29,-24,17,9,-26,48,141,92,-24,-24,-34
14,-19,-34,2,24,-26,43,161,102,-24,-14,-24
29,-9,-39,-9,34,-24,34,175,112,-9,-4,-14
43,-4,-48,-19,46,-26,24,185,126,0,9,-4
58,4,-53,-31,56,-24,19,190,136,9,19,9
68,9,-58,-39,63,-24,9,200,151,14,29,14
87,24,-63,-56,75,-19,0,214,161,24,39,29
102,34,-68,-68,85,-17,0,224,175,34,48,43
117,39,-78,-78,97,-19,-9,234,185,43,63,53
126,53,-73,-90,100,-9,-14,239,195,53,73,58
141,58,-82,-100,112,-12,-19,244,204,63,82,73
151,63,-87,-107,119,-12,-24,253,214,73,92,82
161,63,-97,-112,129,-17,-34,253,214,82,102,87
170,63,-107,-117,139,-21,-29,253,224,92,112,92
170,73,-97,-122,134,-12,-29,239,219,92,112,102
165,82,-82,-124,124,0,-29,229,204,97,112,102
156,82,-73,-119,114,4,-29,204,195,97,107,97
146,78,-68,-112,107,4,-19,180,180,92,97,82
122,73,-48,-97,85,12,-14,165,170,82,87,78
102,63,-39,-82,70,12,-4,146,156,82,78,68
82,53,-29,-68,56,12,4,117,131,73,73,53
63,43,-19,-53,41,12,14,92,117,63,58,43
43,34,-9,-39,26,12,19,82,97,53,48,29
24,24,0,-24,12,12,29,68,78,39,29,14
9,14,4,-12,2,9,34,48,58,29,19,4
-9,4,14,2,-12,9,39,34,43,19,9,-9
-19,-4,14,12,-17,4,39,24,39,9,-4,-19
-29,-9,19,19,-24,4,43,14,29,0,-14,-24
-39,-14,24,26,-31,4,48,4,19,-4,-19,-34
-43,-19,24,31,-34,2,48,0,9,-4,-19,-39
-48,-24,24,36,-36,0,43,-4,0,-4,-24,-43
-48,-29,19,39,-34,-4,39,-9,0,-4,-24,-43
-53,-34,19,43,-36,-7,43,-9,-4,-14,-29,-43
-63,-43,19,53,-41,-12,43,-14,-4,-19,-34,-43
-68,-43,24,56,-46,-9,43,-14,-9,-24,-39,-43
-73,-43,29,58,-51,-7,43,-14,-9,-24,-39,-43
-68,-39,29,53,-48,-4,43,-14,-9,-24,-39,-48
-63,-39,24,51,-43,-7,43,-14,-14,-24,-39,-48
-63,-39,24,51,-43,-7,43,-14,-14,-24,-39,-48
-63,-39,24,51,-43,-7,43,-14,-14,-24,-39,-48
-63,-39,24,51,-43,-7,43,-9,-9,-19,-39,-48
-63,-39,24,51,-43,-7,48,-4,-4,-14,-39,-48
-58,-39,19,48,-39,-9,48,-4,-4,-14,-34,-43
-58,-39,19,48,-39,-9,48,-4,-4,-14,-29,-39
-53,-39,14,46,-34,-12,48,-4,-9,-14,-29,-39
-53,-34,19,43,-36,-7,48,-4,-9,-14,-29,-39
-58,-34,24,46,-41,-4,48,-4,-9,-14,-29,-39
-58,-34,24,46,-41,-4,48,-4,-9,-14,-29,-39
-58,-34,24,46,-41,-4,48,-4,-9,-14,-29,-39
-58,-34,24,46,-41,-4,48,-4,-9,-14,-29,-39
-58,-39,19,48,-39,-9,48,-4,-9,-14,-29,-39
-53,-43,9,48,-31,-17,43,-4,-9,-14,-29,-39
-53,-43,9,48,-31,-17,43,-4,-9,-14,-29,-43
-53,-43,9,48,-31,-17,43,-4,-9,-14,-29,-48
-53,-39,14,46,-34,-12,43,-4,-9,-14,-29,-48
-58,-34,24,46,-41,-4,39,-4,-9,-14,-29,-43
-58,-34,24,46,-41,-4,39,-9,-14,-9,-29,-39
-58,-34,24,46,-41,-4,39,-14,-14,-9,-29,-34
-58,-34,24,46,-41,-4,43,-14,-14,-14,-29,-39
-58,-34,24,46,-41,-4,48,-14,-14,-14,-29,-39
-58,-34,24,46,-41,-4,43,-14,-14,-14,-29,-43
-58,-34,24,46,-41,-4,43,-14,-14,-14,-29,-43
-58,-34,24,46,-41,-4,43,-19,-14,-19,-34,-43
-58,-34,24,46,-41,-4,48,-19,-19,-24,-39,-48
-63,-34,29,48,-46,-2,48,-14,-19,-24,-39,-48
-63,-34,29,48,-46,-2,48,-14,-19,-24,-39,-48
-63,-39,24,51,-43,-7,43,-14,-19,-19,-39,-48
-63,-39,24,51,-43,-7,39,-14,-24,-19,-39,-48
-68,-39,29,53,-48,-4,39,-14,-24,-19,-39,-48
-68,-39,29,53,-48,-4,39,-19,-29,-19,-39,-53
-63,-39,24,51,-43,-7,39,-19,-29,-19,-43,-53
-63,-39,24,51,-43,-7,34,-19,-29,-24,-43,-53
-68,-43,24,56,-46,-9,34,-19,-29,-29,-43,-53
-68,-43,24,56,-46,-9,39,-24,-34,-34,-48,-53
-68,-43,24,56,-46,-9,39,-24,-34,-34,-48,-53
-68,-43,24,56,-46,-9,39,-24,-39,-34,-48,-58
-68,-43,24,56,-46,-9,34,-24,-39,-39,-48,-58
-73,-48,24,61,-48,-12,34,-24,-39,-39,-48,-58
-73,-48,24,61,-48,-12,34,-24,-43,-39,-48,-58
-73,-48,24,61,-48,-12,34,-29,-43,-39,-53,-58
-78,-48,29,63,-53,-9,34,-34,-43,-39,-53,-58
-78,-48,29,63,-53,-9,34,-39,-43,-39,-53,-63
-73,-48,24,61,-48,-12,39,-39,-43,-39,-53,-58
-73,-48,24,61,-48,-12,43,-39,-48,-39,-53,-53
-78,-48,29,63,-53,-9,43,-39,-48,-39,-53,-53
-87,-53,34,70,-61,-9,43,-43,-48,-39,-53,-53
-92,-53,39,73,-65,-7,39,-43,-48,-39,-58,-58
-92,-53,39,73,-65,-7,34,-43,-48,-39,-63,-63
-87,-53,34,70,-61,-9,24,-43,-48,-43,-68,-63
-82,-53,29,68,-56,-12,14,-43,-48,-43,-68,-63
-82,-43,39,63,-61,-2,29,-34,-48,-43,-58,-63
-82,-34,48,58,-65,7,39,-29,-43,-43,-48,-58
-82,-34,48,58,-65,7,43,-29,-43,-43,-48,-53
-82,-29,53,56,-68,12,48,-29,-43,-43,-53,-48
-73,-9,63,41,-68,26,53,-24,-34,-29,-39,-39
-68,9,78,29,-73,43,58,-24,-24,-14,-29,-29
-58,14,73,21,-65,43,58,-19,-14,-4,-19,-29
-48,19,68,14,-58,43,58,-19,-9,0,-9,-29
-48,19,68,14,-58,43,58,-19,-9,0,-9,-29
-48,19,68,14,-58,43,58,-19,-9,0,-9,-29
-43,24,68,9,-56,46,63,-19,0,9,-4,-19
-34,29,63,2,-48,46,63,-9,4,14,0,-14
-29,34,63,-2,-46,48,68,-4,14,19,0,-9
-19,19,39,0,-29,29,53,0,9,19,0,-9
-9,19,29,-4,-19,24,34,0,9,9,0,-9
19,34,14,-26,2,24,14,4,19,29,14,4
43,63,19,-53,12,41,0,9,34,43,29,24
53,68,14,-61,19,41,-9,14,39,43,39,24
53,68,14,-61,19,41,-14,14,39,39,29,24
39,43,4,-41,17,24,-14,9,29,24,19,9
14,24,9,-19,2,17,-14,-9,9,4,0,-4
9,9,0,-9,4,4,-14,-9,-4,0,-4,-9
14,9,-4,-12,9,2,-9,-9,-9,-4,-4,-9
14,0,-14,-7,14,-7,-9,-14,-19,-14,-14,-14
14,-4,-19,-4,17,-12,-9,-14,-19,-19,-19,-14
9,-14,-24,2,17,-19,0,-19,-24,-19,-24,-19
0,-19,-19,9,9,-19,0,-24,-29,-24,-29,-24
-24,-34,-9,29,-7,-21,19,-24,-29,-24,-39,-29
-48,-48,0,48,-24,-24,24,-34,-43,-34,-48,-39
-68,-58,9,63,-39,-24,39,-39,-48,-39,-53,-43
-82,-73,9,78,-46,-31,43,-43,-63,-48,-68,-63
-97,-78,19,87,-58,-29,43,-53,-73,-58,-78,-78
-107,-92,14,100,-61,-39,43,-58,-78,-73,-87,-87
-107,-97,9,102,-58,-43,43,-58,-82,-82,-87,-87
-107,-97,9,102,-58,-43,43,-58,-82,-82,-92,-87
-107,-97,9,102,-58,-43,43,-58,-82,-82,-92,-87
-107,-97,9,102,-58,-43,39,-68,-87,-82,-92,-92
-112,-97,14,104,-63,-41,39,-73,-87,-82,-92,-92
-112,-97,14,104,-63,-41,39,-73,-87,-82,-92,-97
-117,-97,19,107,-68,-39,39,-78,-92,-87,-97,-97
-122,-97,24,109,-73,-36,43,-78,-92,-87,-97,-97
-122,-102,19,112,-70,-41,53,-78,-92,-87,-97,-97
-122,-102,19,112,-70,-41,53,-73,-92,-87,-97,-97
-122,-102,19,112,-70,-41,53,-73,-92,-87,-97,-97
-122,-102,19,112,-70,-41,48,-78,-92,-87,-97,-97
-122,-102,19,112,-70,-41,43,-78,-92,-87,-97,-97
-126,-102,24,114,-75,-39,43,-78,-92,-87,-102,-97
-126,-102,24,114,-75,-39,48,-78,-92,-87,-102,-97
-131,-102,29,117,-80,-36,48,-78,-97,-87,-102,-102
-156,-102,53,129,-104,-24,68,-78,-92,-87,-102,-107
-190,-97,92,143,-141,-2,102,-78,-97,-92,-112,-126
-200,-92,107,146,-153,7,122,-63,-73,-78,-117,-131
-219,-73,146,146,-183,36,131,-43,-29,-34,-87,-112
-151,-43,107,97,-129,31,146,78,122,82,14,-29
24,-19,-43,-2,34,-31,161,385,468,273,185,97
326,63,-263,-195,295,-100,87,658,839,512,419,297
697,219,-478,-458,588,-129,-151,649,1034,761,692,551
1161,434,-727,-797,944,-146,-551,585,1132,966,980,863
1576,658,-917,-1117,1246,-129,-1005,453,1049,1063,1180,1132
1634,678,-956,-1156,1295,-139,-1229,185,634,790,985,1049
1298,590,-707,-944,1002,-58,-1132,-297,-34,366,590,761
790,478,-312,-634,551,82,-980,-912,-795,-34,219,478
370,405,34,-387,168,219,-844,-1249,-1185,-156,92,366
283,346,63,-314,109,204,-780,-1068,-1093,-170,58,307
258,307,48,-283,104,178,-663,-761,-795,-122,58,263
175,224,48,-200,63,136,-483,-536,-580,-117,14,165
78,156,78,-117,0,117,-322,-366,-419,-107,-9,97
0,73,73,-36,-36,73,-204,-234,-287,-107,-39,29
-34,24,58,4,-46,41,-102,-161,-200,-107,-58,-9
-63,-4,58,34,-61,26,-19,-126,-151,-92,-63,-39
-78,-48,29,63,-53,-9,19,-87,-107,-78,-68,-53
-97,-68,29,82,-63,-19,24,-68,-92,-78,-73,-58
-107,-68,39,87,-73,-14,34,-68,-92,-82,-78,-68
-117,-68,48,92,-82,-9,48,-68,-92,-87,-92,-78
-122,-78,43,100,-82,-17,58,-58,-92,-87,-97,-87
-136,-87,48,112,-92,-19,63,-48,-87,-87,-97,-87
-136,-82,53,109,-95,-14,63,-48,-82,-87,-97,-92
-136,-78,58,107,-97,-9,73,-43,-82,-87,-97,-97
-141,-82,58,112,-100,-12,73,-39,-82,-87,-97,-102
-141,-87,53,114,-97,-17,78,-34,-78,-82,-97,-102
-141,-87,53,114,-97,-17,78,-29,-73,-78,-97,-102
-141,-82,58,112,-100,-12,78,-29,-68,-78,-102,-102
-141,-82,58,112,-100,-12,78,-29,-68,-82,-102,-102
-141,-82,58,112,-100,-12,78,-24,-68,-87,-102,-102
-141,-87,53,114,-97,-17,78,-24,-58,-87,-97,-102
-136,-87,48,112,-92,-19,78,-14,-48,-87,-97,-97
-131,-87,43,109,-87,-21,78,-14,-43,-82,-92,-97
-131,-87,43,109,-87,-21,78,-14,-43,-82,-87,-97
-131,-87,43,109,-87,-21,78,-9,-39,-82,-82,-87
-126,-87,39,107,-82,-24,78,-4,-39,-78,-82,-82
-126,-87,39,107,-82,-24,78,-4,-29,-78,-82,-82
-122,-87,34,104,-78,-26,78,0,-24,-78,-78,-82
-117,-87,29,102,-73,-29,78,9,-14,-78,-82,-87
-117,-82,34,100,-75,-24,78,9,-9,-78,-82,-87
-112,-82,29,97,-70,-26,73,14,-14,-73,-82,-82
-107,-82,24,95,-65,-29,73,24,-14,-68,-78,-82
-102,-82,19,92,-61,-31,73,29,-4,-63,-78,-82
-102,-82,19,92,-61,-31,73,39,4,-58,-73,-78
-92,-68,24,80,-58,-21,73,43,4,-53,-73,-73
-87,-63,24,75,-56,-19,68,53,14,-53,-68,-73
-78,-58,19,68,-48,-19,68,58,24,-43,-63,-68
-73,-53,19,63,-46,-17,63,68,34,-39,-58,-63
-63,-53,9,58,-36,-21,63,78,39,-29,-53,-58
-48,-39,9,43,-29,-14,58,92,48,-29,-43,-53
-43,-39,4,41,-24,-17,53,102,63,-24,-34,-43
-34,-34,0,34,-17,-17,58,117,73,-14,-29,-34
-24,-24,0,24,-12,-12,53,131,87,-9,-19,-29
-14,-19,-4,17,-4,-12,48,141,102,0,-14,-24
4,-9,-14,2,9,-12,43,161,112,4,0,-9
19,0,-19,-9,19,-9,39,175,122,19,14,4
34,4,-29,-19,31,-12,34,185,136,29,29,14
48,14,-34,-31,41,-9,29,195,146,39,39,29
58,19,-39,-39,48,-9,19,209,161,43,48,34
78,34,-43,-56,61,-4,9,224,170,53,58,48
97,43,-53,-70,75,-4,9,234,185,63,68,63
122,48,-73,-85,97,-12,0,244,195,73,82,73
136,63,-73,-100,104,-4,-4,248,204,82,92,78
151,68,-82,-109,117,-7,-9,253,214,92,102,92
161,73,-87,-117,124,-7,-14,268,224,97,107,97
170,82,-87,-126,129,-2,-29,273,224,102,112,97
180,87,-92,-134,136,-2,-34,273,234,112,122,102
180,82,-97,-131,139,-7,-39,258,234,112,122,112
175,82,-92,-129,134,-4,-39,248,224,117,122,117
165,82,-82,-124,124,0,-39,224,214,117,117,117
156,78,-78,-117,117,0,-29,200,200,112,107,102
131,73,-58,-102,95,7,-24,185,190,97,97,97
117,68,-48,-92,82,9,-14,165,175,92,87,87
102,63,-39,-82,70,12,-4,136,151,82,82,73
82,53,-29,-68,56,12,4,112,136,73,68,63
58,43,-14,-51,36,14,9,97,117,63,58,48
29,29,0,-29,14,14,19,78,97,53,39,34
9,14,4,-12,2,9,24,58,78,48,29,24
-9,4,14,2,-12,9,29,43,63,39,19,9
-19,-4,14,12,-17,4,29,34,53,29,4,0
-29,-9,19,19,-24,4,34,24,39,19,-4,-4
-39,-14,24,26,-31,4,39,14,29,9,-14,-14
-43,-19,24,31,-34,2,39,4,19,0,-19,-19
-48,-24,24,36,-36,0,39,-4,9,-4,-24,-24
-48,-29,19,39,-34,-4,39,-9,9,-4,-24,-29
-48,-29,19,39,-34,-4,43,-9,4,-9,-24,-34
-53,-34,19,43,-36,-7,48,-14,4,-9,-24,-34
-58,-34,24,46,-41,-4,53,-14,0,-14,-29,-34
-63,-39,24,51,-43,-7,53,-14,0,-14,-29,-34
-63,-43,19,53,-41,-12,53,-14,0,-14,-29,-39
-63,-48,14,56,-39,-17,48,-14,-9,-14,-29,-39
-63,-48,14,56,-39,-17,43,-14,-14,-14,-29,-39
-63,-48,14,56,-39,-17,43,-14,-14,-14,-29,-39
-63,-48,14,56,-39,-17,39,-14,-14,-14,-29,-39
-63,-48,14,56,-39,-17,39,-14,-14,-14,-29,-34
-58,-48,9,53,-34,-19,39,-14,-14,-14,-29,-29
-58,-43,14,51,-36,-14,39,-14,-9,-14,-29,-29
-53,-39,14,46,-34,-12,39,-14,-4,-14,-29,-29
-53,-34,19,43,-36,-7,39,-14,0,-14,-29,-29
-58,-34,24,46,-41,-4,39,-14,0,-14,-29,-29
-58,-34,24,46,-41,-4,39,-14,0,-14,-29,-34
-58,-34,24,46,-41,-4,39,-14,0,-14,-29,-39
-58,-34,24,46,-41,-4,39,-14,0,-14,-29,-39
-58,-34,24,46,-41,-4,43,-14,0,-14,-29,-39
-53,-34,19,43,-36,-7,43,-14,0,-14,-29,-39
-53,-34,19,43,-36,-7,43,-14,0,-14,-29,-39
-53,-34,19,43,-36,-7,43,-14,0,-14,-29,-39
-53,-34,19,43,-36,-7,43,-14,0,-14,-29,-39
-63,-34,29,48,-46,-2,39,-14,0,-14,-29,-34
-68,-34,34,51,-51,0,39,-14,-4,-9,-29,-34
-68,-34,34,51,-51,0,39,-14,-4,-9,-29,-34
-68,-34,34,51,-51,0,39,-14,-4,-14,-29,-39
-68,-34,34,51,-51,0,39,-14,-4,-19,-29,-39
-68,-34,34,51,-51,0,34,-14,-4,-24,-29,-39
-68,-34,34,51,-51,0,34,-14,-4,-24,-29,-34
-68,-34,34,51,-51,0,34,-19,-4,-24,-29,-34
-63,-34,29,48,-46,-2,43,-19,-9,-19,-29,-39
-63,-34,29,48,-46,-2,48,-19,-9,-14,-29,-39
-63,-34,29,48,-46,-2,48,-24,-9,-14,-29,-39
-63,-39,24,51,-43,-7,48,-24,-9,-14,-29,-39
-68,-39,29,53,-48,-4,43,-24,-14,-19,-29,-34
-78,-39,39,58,-58,0,39,-24,-14,-19,-29,-29
-78,-39,39,58,-58,0,39,-29,-19,-19,-29,-34
-73,-39,34,56,-53,-2,39,-29,-19,-19,-34,-34
-68,-39,29,53,-48,-4,34,-29,-19,-24,-34,-34
-68,-43,24,56,-46,-9,34,-29,-19,-24,-34,-34
-68,-43,24,56,-46,-9,39,-34,-24,-24,-39,-39
-68,-43,24,56,-46,-9,39,-34,-24,-24,-39,-43
-73,-43,29,58,-51,-7,43,-34,-29,-24,-39,-48
-78,-43,34,61,-56,-4,43,-34,-29,-29,-39,-48
-82,-48,34,65,-58,-7,43,-34,-29,-29,-39,-48
-82,-48,34,65,-58,-7,43,-34,-34,-29,-39,-48
-82,-48,34,65,-58,-7,39,-39,-34,-29,-43,-48
-87,-48,39,68,-63,-4,34,-39,-34,-29,-43,-48
-87,-48,39,68,-63,-4,34,-34,-34,-24,-43,-48
-82,-48,34,65,-58,-7,34,-29,-34,-24,-43,-43
-78,-43,34,61,-56,-4,34,-29,-43,-29,-43,-43
-73,-39,34,56,-53,-2,34,-29,-48,-29,-43,-43
-78,-43,34,61,-56,-4,34,-34,-48,-29,-43,-43
-82,-43,39,63,-61,-2,34,-34,-48,-29,-43,-43
-82,-43,39,63,-61,-2,34,-39,-48,-29,-43,-48
-82,-43,39,63,-61,-2,34,-43,-48,-34,-48,-53
-82,-43,39,63,-61,-2,34,-43,-48,-34,-48,-53
-82,-43,39,63,-61,-2,39,-43,-53,-34,-48,-58
-87,-48,39,68,-63,-4,39,-48,-48,-34,-43,-58
-92,-53,39,73,-65,-7,39,-48,-43,-34,-39,-58
-92,-48,43,70,-68,-2,39,-48,-43,-34,-43,-58
-92,-48,43,70,-68,-2,39,-48,-43,-34,-43,-58
-87,-48,39,68,-63,-4,39,-48,-43,-34,-43,-53
-82,-43,39,63,-61,-2,39,-48,-43,-29,-39,-48
-82,-39,43,61,-63,2,43,-48,-43,-24,-39,-43
-78,-24,53,51,-65,14,43,-43,-39,-24,-34,-43
-68,-9,58,39,-63,24,48,-34,-29,-14,-29,-34
-63,0,63,31,-63,31,53,-29,-19,-9,-24,-24
-53,9,63,21,-58,36,53,-24,-19,0,-14,-14
-48,19,68,14,-58,43,58,-19,-19,9,-9,-9
-48,24,73,12,-61,48,58,-19,-4,9,-4,-9
-48,29,78,9,-63,53,58,-19,9,9,0,-9
-48,29,78,9,-63,53,58,-19,14,19,4,-4
-43,29,73,7,-58,51,53,-9,19,24,4,0
-39,34,73,2,-56,53,53,-4,24,29,9,0
-29,19,48,4,-39,34,34,0,19,29,9,0
-14,19,34,-2,-24,26,14,0,19,19,9,0
19,34,14,-26,2,24,-4,4,29,39,24,14
39,58,19,-48,9,39,-14,9,39,53,39,34
43,58,14,-51,14,36,-19,14,39,53,48,34
43,58,14,-51,14,36,-24,14,39,48,39,34
29,34,4,-31,12,19,-24,9,29,34,29,19
9,14,4,-12,2,9,-24,-9,9,14,9,4
9,0,-9,-4,9,-4,-24,-9,-4,9,4,0
14,0,-14,-7,14,-7,-19,-9,-9,4,4,0
14,-9,-24,-2,19,-17,-19,-14,-19,-4,-4,-4
14,-14,-29,0,21,-21,-19,-14,-19,-9,-9,-4
9,-24,-34,7,21,-29,-9,-19,-24,-9,-14,-9
0,-29,-29,14,14,-29,-9,-24,-29,-19,-19,-19
-24,-43,-19,34,-2,-31,9,-24,-29,-24,-29,-29
-48,-58,-9,53,-19,-34,14,-34,-43,-34,-39,-39
-68,-68,0,68,-34,-34,29,-39,-48,-39,-43,-43
-82,-82,0,82,-41,-41,34,-48,-63,-48,-58,-58
-97,-87,9,92,-53,-39,34,-63,-73,-58,-68,-68
-112,-97,14,104,-63,-41,34,-68,-78,-68,-78,-82
-117,-97,19,107,-68,-39,34,-68,-82,-73,-78,-87
-117,-97,19,107,-68,-39,34,-68,-87,-73,-87,-87
-117,-97,19,107,-68,-39,34,-68,-92,-73,-92,-87
-112,-97,14,104,-63,-41,34,-73,-97,-73,-92,-87
-112,-97,14,104,-63,-41,39,-73,-97,-73,-92,-82
-112,-97,14,104,-63,-41,43,-73,-97,-73,-87,-87
-117,-97,19,107,-68,-39,48,-78,-102,-78,-87,-87
-126,-97,29,112,-78,-34,48,-78,-97,-78,-87,-87
-131,-102,29,117,-80,-36,53,-78,-92,-78,-87,-87
-131,-102,29,117,-80,-36,53,-73,-92,-78,-87,-87
-131,-102,29,117,-80,-36,53,-73,-92,-78,-87,-87
-131,-97,34,114,-82,-31,53,-73,-92,-78,-87,-87
-131,-92,39,112,-85,-26,53,-68,-92,-78,-87,-87
-136,-92,43,114,-90,-24,53,-68,-92,-78,-87,-87
-136,-92,43,114,-90,-24,58,-68,-92,-78,-82,-87
-141,-92,48,117,-95,-21,58,-68,-92,-73,-82,-92
-165,-92,73,129,-119,-9,78,-68,-82,-68,-82,-97
-200,-87,112,143,-156,12,112,-58,-73,-63,-82,-107
-209,-82,126,146,-168,21,131,-34,-34,-39,-78,-102
-185,-63,122,124,-153,29,141,24,48,19,-29,-63
-73,-34,39,53,-56,2,156,185,239,151,92,39
131,9,-122,-70,126,-56,122,448,551,331,263,170
463,112,-351,-287,407,-119,0,678,888,561,497,375
844,258,-585,-551,714,-163,-273,629,1005,756,722,605
1317,463,-854,-890,1085,-195,-707,527,1024,907,961,893
1605,644,-961,-1124,1283,-158,-1073,331,844,932,1078,1073
1537,619,-917,-1078,1227,-148,-1210,0,331,585,800,902
1180,531,-649,-856,915,-58,-1098,-463,-268,224,458,644
653,419,-234,-536,444,92,-932,-1058,-961,-112,141,390
287,356,68,-322,109,212,-795,-1288,-1224,-195,43,302
253,307,53,-280,100,180,-732,-1000,-1005,-170,39,268
229,278,48,-253,90,163,-610,-702,-727,-117,43,229
146,204,58,-175,43,131,-424,-488,-531,-107,4,136
53,136,82,-95,-14,109,-268,-336,-380,-97,-14,78
-19,53,73,-17,-46,63,-156,-224,-258,-97,-39,19
-48,4,53,21,-51,29,-73,-151,-180,-92,-58,-14
-73,-24,48,48,-61,12,-9,-117,-141,-73,-63,-39
-92,-58,34,75,-63,-12,24,-78,-102,-58,-63,-53
-117,-68,48,92,-82,-9,24,-58,-92,-58,-63,-58
-126,-68,58,97,-92,-4,39,-58,-92,-68,-68,-68
-136,-68,68,102,-102,0,58,-58,-92,-78,-82,-78
-136,-78,58,107,-97,-9,68,-48,-87,-78,-82,-87
-146,-87,58,117,-102,-14,73,-39,-78,-78,-78,-87
-146,-87,58,117,-102,-14,73,-39,-73,-73,-78,-87
-146,-87,58,117,-102,-14,82,-34,-73,-68,-78,-87
-151,-92,58,122,-104,-17,82,-29,-73,-73,-78,-92
-151,-97,53,124,-102,-21,87,-24,-68,-73,-78,-92
-151,-97,53,124,-102,-21,87,-19,-63,-68,-78,-92
-151,-92,58,122,-104,-17,87,-19,-58,-68,-82,-92
-146,-92,53,119,-100,-19,87,-19,-58,-68,-82,-92
-141,-92,48,117,-95,-21,87,-14,-58,-68,-82,-92
-141,-92,48,117,-95,-21,87,-14,-53,-68,-78,-92
-136,-87,48,112,-92,-19,87,-4,-48,-68,-78,-87
-131,-87,43,109,-87,-21,87,-4,-43,-63,-78,-87
-131,-87,43,109,-87,-21,87,-4,-43,-63,-78,-87
-131,-82,48,107,-90,-17,87,0,-39,-63,-73,-82
-126,-78,48,102,-87,-14,87,4,-39,-58,-73,-82
-126,-78,48,102,-87,-14,87,4,-29,-58,-73,-82
-122,-78,43,100,-82,-17,87,9,-24,-58,-68,-82
-117,-82,34,100,-75,-24,87,19,-14,-58,-68,-82
-117,-82,34,100,-75,-24,87,19,-9,-58,-63,-78
-112,-82,29,97,-70,-26,82,24,-9,-53,-63,-73
-107,-82,24,95,-65,-29,82,34,-4,-48,-58,-73
-102,-78,24,90,-63,-26,82,39,0,-48,-58,-73
-102,-73,29,87,-65,-21,82,48,4,-48,-53,-68
-92,-63,29,78,-61,-17,82,53,4,-43,-53,-63
-87,-63,24,75,-56,-19,78,63,14,-43,-48,-63
-78,-58,19,68,-48,-19,78,73,29,-34,-48,-58
-73,-53,19,63,-46,-17,73,87,43,-29,-48,-53
-63,-53,9,58,-36,-21,73,97,48,-19,-43,-48
-48,-39,9,43,-29,-14,68,112,58,-19,-34,-43
-43,-39,4,41,-24,-17,58,117,73,-9,-19,-34
-34,-34,0,34,-17,-17,58,126,82,4,-9,-24
-19,-19,0,19,-9,-9,48,141,97,9,0,-19
-4,-9,-4,7,0,-7,39,151,112,19,4,-14
14,0,-14,-7,14,-7,34,175,122,19,14,0
29,9,-19,-19,24,-4,29,195,131,29,24,14
43,9,-34,-26,39,-12,29,204,146,39,39,24
58,14,-43,-36,51,-14,29,214,156,48,48,39
73,19,-53,-46,63,-17,19,229,175,53,58,39
97,34,-63,-65,80,-14,9,244,190,63,68,48
112,43,-68,-78,90,-12,9,253,204,73,78,63
131,48,-82,-90,107,-17,0,263,214,82,92,73
146,63,-82,-104,114,-9,-4,268,224,92,102,78
161,68,-92,-114,126,-12,-9,273,234,102,112,92
170,73,-97,-122,134,-12,-14,283,244,112,122,102
180,82,-97,-131,139,-7,-29,283,244,122,131,107
190,87,-102,-139,146,-7,-34,283,253,131,141,112
190,82,-107,-136,148,-12,-39,268,253,131,141,122
185,82,-102,-134,143,-9,-39,253,244,136,141,122
175,82,-92,-129,134,-4,-39,224,234,136,136,117
165,78,-87,-122,126,-4,-29,200,214,131,122,102
141,73,-68,-107,104,2,-24,185,200,117,107,97
117,63,-53,-90,85,4,-14,165,185,112,97,87
92,53,-39,-73,65,7,-4,136,161,102,92,73
73,43,-29,-58,51,7,4,112,146,92,78,58
48,34,-14,-41,31,9,9,97,126,82,68,39
24,24,0,-24,12,12,19,78,107,68,48,24
9,14,4,-12,2,9,24,58,87,58,39,14
-9,4,14,2,-12,9,29,43,73,48,34,4
-19,-4,14,12,-17,4,29,34,63,39,24,0
-29,-4,24,17,-26,9,34,24,48,24,14,-4
-39,-4,34,21,-36,14,39,14,39,9,4,-14
-43,-9,34,26,-39,12,39,9,29,4,0,-24
-48,-14,34,31,-41,9,39,4,19,4,-4,-34
-48,-19,29,34,-39,4,39,0,14,4,-9,-34
-48,-19,29,34,-39,4,43,0,4,0,-14,-34
-48,-24,24,36,-36,0,43,-9,4,0,-14,-34
-48,-24,24,36,-36,0,43,-14,0,-4,-19,-34
-53,-24,29,39,-41,2,43,-14,4,-4,-19,-34
-53,-24,29,39,-41,2,43,-14,9,-4,-19,-39
-53,-29,24,41,-39,-2,43,-14,4,-4,-19,-39
-53,-29,24,41,-39,-2,43,-14,4,-4,-19,-39
-53,-29,24,41,-39,-2,43,-14,4,-4,-19,-39
-53,-29,24,41,-39,-2,39,-14,4,-4,-19,-39
-58,-29,29,43,-43,0,43,-9,4,-4,-19,-34
-58,-29,29,43,-43,0,48,-4,4,-4,-19,-29
-58,-29,29,43,-43,0,48,-4,0,-4,-19,-29
-53,-29,24,41,-39,-2,48,-4,-4,-4,-19,-29
-53,-24,29,39,-41,2,48,-4,0,-4,-19,-29
-58,-24,34,41,-46,4,48,-4,0,-4,-19,-29
-58,-24,34,41,-46,4,48,-4,4,-4,-19,-29
-58,-24,34,41,-46,4,48,-4,9,-4,-19,-29
-58,-29,29,43,-43,0,43,-4,9,-4,-19,-29
-58,-34,24,46,-41,-4,43,-4,9,-4,-19,-29
-53,-34,19,43,-36,-7,43,-4,9,-4,-19,-29
-53,-34,19,43,-36,-7,43,-4,9,-4,-19,-29
-53,-34,19,43,-36,-7,48,-4,9,-4,-19,-29
-53,-34,19,43,-36,-7,53,-4,9,-4,-19,-29
-58,-34,24,46,-41,-4,48,-9,9,-4,-19,-24
-58,-34,24,46,-41,-4,48,-14,4,0,-19,-24
-53,-29,24,41,-39,-2,43,-14,4,0,-19,-24
-48,-24,24,36,-36,0,39,-14,4,-4,-19,-29
-48,-24,24,36,-36,0,39,-9,4,-4,-19,-29
-48,-24,24,36,-36,0,34,-4,4,-4,-19,-29
-48,-24,24,36,-36,0,34,-4,4,-4,-19,-24
-48,-24,24,36,-36,0,34,-9,4,-4,-19,-24
-48,-24,24,36,-36,0,39,-9,0,-4,-19,-29
-53,-24,29,39,-41,2,39,-9,0,-4,-19,-29
-58,-24,34,41,-46,4,39,-14,0,-4,-19,-29
-63,-29,34,46,-48,2,39,-14,0,-4,-19,-29
-63,-29,34,46,-48,2,39,-14,-4,-9,-19,-29
-68,-29,39,48,-53,4,39,-14,-4,-9,-19,-29
-63,-29,34,46,-48,2,39,-19,-9,-4,-19,-34
-53,-29,24,41,-39,-2,39,-19,-9,0,-24,-34
-53,-29,24,41,-39,-2,34,-19,-9,-4,-24,-34
-58,-34,24,46,-41,-4,34,-19,-9,-4,-24,-34
-63,-34,29,48,-46,-2,39,-24,-14,-4,-24,-34
-68,-34,34,51,-51,0,39,-24,-14,-4,-19,-34
-68,-39,29,53,-48,-4,39,-24,-19,-4,-19,-39
-68,-43,24,56,-46,-9,34,-24,-19,-9,-19,-39
-73,-48,24,61,-48,-12,34,-24,-19,-14,-19,-39
-73,-48,24,61,-48,-12,34,-24,-24,-19,-19,-39
-73,-48,24,61,-48,-12,34,-29,-24,-19,-24,-39
-78,-48,29,63,-53,-9,34,-29,-24,-19,-24,-39
-73,-48,24,61,-48,-12,34,-34,-24,-19,-34,-43
-63,-48,14,56,-39,-17,34,-39,-24,-24,-43,-43
-63,-43,19,53,-41,-12,34,-39,-29,-24,-43,-43
-63,-39,24,51,-43,-7,34,-39,-29,-19,-43,-43
-68,-43,24,56,-46,-9,34,-43,-29,-19,-39,-43
-73,-43,29,58,-51,-7,34,-43,-29,-19,-34,-43
-78,-43,34,61,-56,-4,34,-43,-29,-19,-34,-43
-82,-43,39,63,-61,-2,34,-43,-29,-24,-39,-43
-82,-43,39,63,-61,-2,34,-43,-29,-24,-39,-43
-82,-43,39,63,-61,-2,39,-43,-34,-24,-39,-48
-82,-48,34,65,-58,-7,39,-48,-34,-29,-34,-48
-82,-53,29,68,-56,-12,39,-48,-34,-34,-29,-48
-82,-48,34,65,-58,-7,39,-48,-34,-34,-34,-48
-82,-48,34,65,-58,-7,39,-48,-34,-34,-34,-48
-82,-53,29,68,-56,-12,39,-48,-39,-34,-39,-48
-82,-53,29,68,-56,-12,39,-48,-43,-29,-39,-48
-82,-48,34,65,-58,-7,43,-48,-43,-24,-39,-43
-82,-39,43,61,-63,2,43,-48,-39,-24,-34,-43
-78,-34,43,56,-61,4,43,-43,-39,-24,-34,-43
-68,-19,48,43,-58,14,48,-43,-29,-19,-24,-39
-63,-4,58,34,-61,26,48,-34,-19,-9,-19,-34
-63,4,68,29,-65,36,53,-29,-14,0,-19,-29
-53,9,63,21,-58,36,53,-24,-4,4,-14,-24
-48,19,68,14,-58,43,58,-19,0,9,-9,-19
-43,19,63,12,-53,41,58,-19,4,9,-9,-19
-39,19,58,9,-48,39,58,-19,9,9,-9,-19
-39,24,63,7,-51,43,63,-14,19,19,0,-14
-34,29,63,2,-48,46,63,-4,24,24,4,-9
-29,34,63,-2,-46,48,68,0,34,29,9,-9
-19,19,39,0,-29,29,53,0,29,29,9,-9
-9,19,29,-4,-19,24,34,0,29,19,9,-9
19,34,14,-26,2,24,14,4,39,39,24,4
43,63,19,-53,12,41,0,14,48,58,43,34
53,68,14,-61,19,41,-9,24,48,63,58,43
53,68,14,-61,19,41,-19,24,48,58,48,43
39,43,4,-41,17,24,-24,19,39,43,39,29
19,24,4,-21,7,14,-24,0,19,24,14,14
19,9,-9,-14,14,0,-24,0,4,19,4,9
24,9,-14,-17,19,-2,-19,0,0,14,4,4
24,0,-24,-12,24,-12,-19,-4,-9,4,-4,-4
29,-9,-39,-9,34,-24,-19,-4,-9,0,-4,-4
29,-24,-53,-2,41,-39,-9,-9,-14,0,-4,-9
19,-29,-48,4,34,-39,-9,-14,-19,-9,-9,-14
-4,-43,-39,24,17,-41,9,-14,-19,-14,-19,-19
-29,-53,-24,41,-2,-39,14,-24,-34,-24,-29,-29
-48,-58,-9,53,-19,-34,29,-29,-39,-29,-34,-34
-68,-73,-4,70,-31,-39,34,-39,-53,-39,-48,-48
-87,-78,9,82,-48,-34,34,-53,-63,-48,-58,-58
-97,-87,9,92,-53,-39,34,-58,-68,-63,-73,-78
-97,-87,9,92,-53,-39,34,-58,-73,-73,-78,-87
-102,-87,14,95,-58,-36,34,-58,-78,-73,-82,-87
-107,-87,19,97,-63,-34,34,-58,-82,-73,-82,-87
-107,-87,19,97,-63,-34,34,-63,-87,-73,-82,-87
-112,-87,24,100,-68,-31,39,-63,-87,-73,-82,-82
-112,-87,24,100,-68,-31,39,-63,-82,-73,-82,-87
-117,-87,29,102,-73,-29,39,-68,-82,-78,-87,-87
-122,-87,34,104,-78,-26,39,-68,-82,-78,-87,-87
-122,-92,29,107,-75,-31,43,-68,-82,-78,-87,-87
-122,-92,29,107,-75,-31,43,-63,-82,-78,-87,-87
-122,-92,29,107,-75,-31,43,-63,-82,-78,-87,-87
-122,-92,29,107,-75,-31,43,-68,-82,-78,-82,-87
-122,-92,29,107,-75,-31,43,-68,-82,-78,-78,-87
-126,-92,34,109,-80,-29,43,-68,-82,-78,-82,-87
-126,-92,34,109,-80,-29,48,-68,-82,-78,-82,-87
-117,-92,24,104,-70,-34,43,-68,-87,-78,-87,-92
-126,-92,34,109,-80,-29,58,-68,-82,-78,-92,-97
-180,-97,82,139,-131,-7,92,-78,-92,-87,-102,-117
-209,-102,107,156,-158,2,112,-73,-73,-78,-107,-122
-253,-87,165,170,-209,39,131,-78,-73,-68,-102,-122
-209,-63,146,136,-178,41,156,19,34,14,-24,-58
-63,-53,9,58,-36,-21,195,351,375,175,112,34
209,14,-195,-112,202,-90,146,649,741,385,312,200
600,131,-468,-366,534,-168,-48,692,985,639,570,444
1083,307,-775,-695,929,-234,-405,683,1132,849,844,746
1605,590,-1015,-1098,1310,-212,-927,575,1127,1029,1137,1088
1771,668,-1102,-1220,1437,-217,-1220,331,790,839,1034,1078
1468,595,-873,-1032,1171,-139,-1161,-175,112,414,649,800
995,497,-497,-746,746,0,-1049,-814,-658,14,287,527
468,424,-43,-446,256,190,-888,-1302,-1185,-146,122,390
273,366,92,-319,90,229,-800,-1273,-1229,-200,48,307
278,336,58,-307,109,197,-712,-907,-907,-141,58,278
224,263,39,-244,92,151,-561,-624,-668,-126,24,195
117,185,68,-151,24,126,-380,-434,-483,-112,0,122
29,92,63,-61,-17,78,-244,-283,-326,-107,-29,48
-9,39,48,-14,-29,43,-131,-190,-229,-107,-53,4
-43,4,48,19,-46,26,-39,-136,-170,-92,-63,-29
-63,-43,19,53,-41,-12,4,-87,-117,-73,-63,-43
-87,-68,19,78,-53,-24,14,-58,-92,-68,-63,-48
-102,-68,34,85,-68,-17,24,-58,-92,-73,-63,-58
-117,-68,48,92,-82,-9,39,-58,-92,-78,-73,-68
-117,-78,39,97,-78,-19,53,-48,-82,-78,-78,-82
-126,-87,39,107,-82,-24,63,-39,-68,-78,-78,-87
-131,-87,43,109,-87,-21,63,-39,-63,-82,-82,-87
-136,-87,48,112,-92,-19,73,-34,-63,-87,-87,-87
-141,-92,48,117,-95,-21,73,-29,-68,-92,-87,-92
-141,-97,43,119,-92,-26,78,-24,-68,-92,-87,-92
-136,-97,39,117,-87,-29,78,-19,-63,-87,-87,-92
-131,-92,39,112,-85,-26,78,-19,-58,-87,-92,-92
-131,-97,34,114,-82,-31,82,-19,-53,-87,-92,-92
-131,-102,29,117,-80,-36,87,-14,-48,-87,-92,-92
-131,-102,29,117,-80,-36,87,-14,-43,-87,-87,-92
-126,-97,29,112,-78,-34,87,-4,-39,-87,-87,-87
-122,-92,29,107,-75,-31,82,-4,-34,-82,-87,-92
-122,-87,34,104,-78,-26,78,-4,-34,-82,-87,-97
-122,-87,34,104,-78,-26,78,0,-29,-82,-82,-92
-117,-87,29,102,-73,-29,78,4,-29,-78,-82,-92
-117,-87,29,102,-73,-29,78,4,-29,-78,-87,-92
-112,-87,24,100,-68,-31,78,9,-34,-78,-87,-92
-107,-87,19,97,-63,-34,78,19,-24,-78,-87,-92
-107,-82,24,95,-65,-29,78,19,-19,-78,-82,-87
-102,-82,19,92,-61,-31,73,24,-19,-73,-78,-82
-97,-82,14,90,-56,-34,73,34,-14,-68,-68,-82
-97,-82,14,90,-56,-34,73,39,-4,-68,-68,-82
-102,-82,19,92,-61,-31,73,48,4,-68,-63,-78
-92,-73,19,82,-56,-26,73,53,4,-63,-63,-68
-87,-73,14,80,-51,-29,68,63,14,-63,-58,-63
-78,-68,9,73,-43,-29,68,68,24,-53,-53,-58
-73,-63,9,68,-41,-26,63,78,34,-48,-48,-53
-63,-63,0,63,-31,-31,63,87,39,-39,-43,-53
-48,-48,0,48,-24,-24,58,102,48,-39,-34,-53
-43,-48,-4,46,-19,-26,48,112,63,-34,-29,-43
-34,-43,-9,39,-12,-26,48,126,73,-24,-29,-34
-19,-34,-14,26,-2,-24,43,141,87,-19,-19,-29
-4,-29,-24,17,9,-26,39,151,102,-9,-14,-24
14,-19,-34,2,24,-26,34,170,112,-4,-4,-14
29,-9,-39,-9,34,-24,29,185,122,9,4,-4
48,-4,-53,-21,51,-29,29,200,141,19,19,4
68,4,-63,-36,65,-29,29,214,156,29,29,19
78,9,-68,-43,73,-29,19,229,170,34,39,24
97,24,-73,-61,85,-24,9,244,180,43,48,39
112,34,-78,-73,95,-21,9,258,195,53,58,53
131,39,-92,-85,112,-26,0,273,204,63,73,63
151,53,-97,-102,124,-21,-9,278,214,73,82,68
170,58,-112,-114,141,-26,-19,283,224,82,92,82
180,63,-117,-122,148,-26,-24,297,234,92,102,92
190,73,-117,-131,153,-21,-39,302,234,102,112,97
204,82,-122,-143,163,-19,-43,307,248,112,126,102
209,82,-126,-146,168,-21,-48,297,253,112,131,112
204,82,-122,-143,163,-19,-48,287,248,117,131,117
195,82,-112,-139,153,-14,-48,263,244,117,126,117
190,78,-112,-134,151,-17,-39,239,229,117,117,102
170,73,-97,-122,134,-12,-34,224,219,107,107,97
151,68,-82,-109,117,-7,-24,204,204,102,102,92
131,63,-68,-97,100,-2,-14,175,180,92,102,82
112,53,-58,-82,85,-2,-4,146,161,82,87,73
87,43,-43,-65,65,0,0,126,136,73,78,58
58,29,-29,-43,43,0,9,102,117,58,53,43
39,14,-24,-26,31,-4,14,78,97,48,39,34
19,4,-14,-12,17,-4,19,63,78,39,29,19
9,-4,-14,-2,12,-9,19,53,63,29,14,9
-4,-9,-4,7,0,-7,24,43,48,14,4,-4
-19,-14,4,17,-12,-4,29,34,39,0,-4,-24
-24,-19,4,21,-14,-7,29,24,24,-4,-14,-29
-29,-24,4,26,-17,-9,29,14,9,-4,-24,-34
-34,-29,4,31,-19,-12,29,4,9,-4,-24,-34
-39,-29,9,34,-24,-9,34,0,4,-9,-24,-34
-43,-34,9,39,-26,-12,39,-4,4,-9,-24,-34
-48,-34,14,41,-31,-9,43,-4,0,-14,-29,-34
-53,-34,19,43,-36,-7,43,-4,0,-14,-29,-34
-53,-34,19,43,-36,-7,43,-4,0,-14,-29,-39
-53,-39,14,46,-34,-12,43,-4,-4,-14,-29,-39
-53,-39,14,46,-34,-12,43,-4,-4,-14,-29,-39
-53,-39,14,46,-34,-12,43,-4,-4,-19,-34,-39
-53,-39,14,46,-34,-12,39,-4,-4,-24,-39,-39
-53,-39,14,46,-34,-12,39,-4,-4,-24,-39,-39
-48,-39,9,43,-29,-14,39,-4,-4,-24,-39,-39
-48,-39,9,43,-29,-14,39,-4,-4,-19,-29,-34
-43,-39,4,41,-24,-17,39,-4,-4,-14,-19,-29
-43,-34,9,39,-26,-12,39,-4,0,-14,-19,-29
-48,-34,14,41,-31,-9,39,-4,0,-14,-19,-29
-48,-34,14,41,-31,-9,39,-4,0,-14,-24,-29
-48,-34,14,41,-31,-9,39,-4,0,-14,-29,-29
-48,-34,14,41,-31,-9,39,-4,-4,-14,-29,-29
-48,-34,14,41,-31,-9,43,-4,-9,-14,-29,-29
-43,-34,9,39,-26,-12,43,-4,-9,-14,-29,-34
-43,-34,9,39,-26,-12,43,-4,-9,-14,-29,-39
-43,-34,9,39,-26,-12,43,-4,-4,-14,-29,-39
-43,-34,9,39,-26,-12,43,-4,0,-14,-29,-39
-48,-34,14,41,-31,-9,39,-4,0,-14,-29,-34
-48,-34,14,41,-31,-9,39,-4,-4,-9,-29,-34
-48,-34,14,41,-31,-9,39,-4,-9,-9,-29,-34
-48,-34,14,41,-31,-9,39,-4,-14,-14,-29,-39
-48,-34,14,41,-31,-9,39,-4,-14,-14,-29,-39
-48,-34,14,41,-31,-9,34,-4,-14,-14,-29,-39
-48,-34,14,41,-31,-9,34,-4,-14,-14,-29,-34
-48,-34,14,41,-31,-9,34,-9,-14,-14,-29,-34
-48,-34,14,41,-31,-9,39,-9,-19,-19,-29,-39
-53,-34,19,43,-36,-7,39,-9,-19,-24,-29,-39
-53,-34,19,43,-36,-7,39,-14,-19,-24,-29,-39
-53,-39,14,46,-34,-12,39,-14,-19,-24,-29,-39
-53,-39,14,46,-34,-12,39,-14,-24,-24,-29,-39
-58,-39,19,48,-39,-9,39,-14,-24,-19,-29,-39
-58,-39,19,48,-39,-9,39,-14,-24,-19,-29,-43
-53,-39,14,46,-34,-12,39,-9,-19,-19,-34,-43
-53,-39,14,46,-34,-12,34,-9,-19,-29,-34,-43
-58,-43,14,51,-36,-14,34,-9,-19,-34,-34,-43
-63,-43,19,53,-41,-12,39,-14,-29,-34,-39,-43
-68,-43,24,56,-46,-9,39,-14,-34,-34,-39,-43
-68,-43,24,56,-46,-9,39,-19,-39,-34,-39,-48
-68,-43,24,56,-46,-9,34,-24,-39,-39,-39,-48
-68,-48,19,58,-43,-14,34,-24,-34,-39,-39,-48
-63,-48,14,56,-39,-17,34,-24,-34,-39,-39,-48
-63,-48,14,56,-39,-17,34,-29,-34,-39,-43,-48
-68,-48,19,58,-43,-14,34,-29,-34,-39,-43,-48
-68,-48,19,58,-43,-14,34,-29,-39,-39,-43,-53
-63,-48,14,56,-39,-17,34,-29,-43,-43,-43,-53
-63,-48,14,56,-39,-17,34,-29,-48,-48,-43,-53
-63,-48,14,56,-39,-17,34,-29,-48,-48,-43,-53
-68,-48,19,58,-43,-14,34,-34,-53,-48,-48,-53
-73,-43,29,58,-51,-7,34,-34,-58,-48,-53,-53
-73,-43,29,58,-51,-7,34,-34,-58,-48,-53,-53
-73,-43,29,58,-51,-7,34,-34,-58,-53,-58,-53
-73,-43,29,58,-51,-7,34,-29,-48,-53,-58,-53
-73,-43,29,58,-51,-7,39,-24,-43,-53,-58,-58
-73,-48,24,61,-48,-12,39,-29,-43,-53,-58,-58
-73,-53,19,63,-46,-17,39,-29,-43,-53,-58,-58
-73,-53,19,63,-46,-17,39,-29,-48,-53,-63,-58
-73,-58,14,65,-43,-21,39,-29,-53,-53,-63,-58
-73,-58,14,65,-43,-21,34,-29,-58,-53,-63,-58
-73,-53,19,63,-46,-17,29,-29,-63,-48,-58,-58
-78,-53,24,65,-51,-14,34,-34,-63,-48,-63,-53
-82,-48,34,65,-58,-7,34,-39,-58,-53,-63,-53
-78,-53,24,65,-51,-14,34,-34,-58,-58,-68,-53
-73,-53,19,63,-46,-17,39,-34,-53,-58,-68,-53
-78,-58,19,68,-48,-19,34,-39,-53,-68,-63,-58
-87,-58,29,73,-58,-14,29,-39,-58,-63,-58,-63
-82,-53,29,68,-56,-12,34,-34,-63,-58,-63,-63
-82,-39,43,61,-63,2,34,-34,-58,-58,-63,-63
-73,-29,43,51,-58,7,43,-29,-48,-43,-53,-58
-63,-14,48,39,-56,17,53,-19,-39,-34,-48,-53
-58,0,58,29,-58,29,53,-19,-34,-24,-39,-43
-58,9,68,24,-63,39,58,-19,-29,-19,-29,-39
-53,9,63,21,-58,36,58,-14,-29,-19,-29,-34
-48,9,58,19,-53,34,58,-9,-29,-19,-29,-29
-48,14,63,17,-56,39,58,-9,-19,-14,-24,-29
-43,19,63,12,-53,41,58,-4,-4,-4,-14,-24
-43,24,68,9,-56,46,63,-4,4,0,-9,-19
-39,24,63,7,-51,43,63,0,4,0,-9,-19
-29,9,39,9,-34,24,43,0,0,0,-9,-19
-19,9,29,4,-24,19,24,0,0,-9,-9,-19
14,24,9,-19,2,17,14,4,14,9,4,-4
39,48,9,-43,14,29,14,9,29,24,19,14
43,53,9,-48,17,31,0,14,29,24,29,19
43,58,14,-51,14,36,-14,14,29,19,19,24
29,34,4,-31,12,19,-14,9,19,9,9,9
9,14,4,-12,2,9,-14,-9,0,-4,-9,-4
9,-4,-14,-2,12,-9,-14,-14,-14,-9,-14,-9
14,-9,-24,-2,19,-17,-9,-19,-19,-14,-14,-9
19,-19,-39,0,29,-29,-14,-24,-29,-24,-24,-14
24,-24,-48,0,36,-36,-19,-24,-29,-29,-29,-14
19,-29,-48,4,34,-39,-9,-29,-34,-29,-29,-14
9,-29,-39,9,24,-34,-9,-34,-39,-39,-29,-19
-14,-39,-24,26,4,-31,9,-29,-39,-43,-39,-29
-39,-48,-9,43,-14,-29,14,-34,-53,-53,-48,-39
-58,-58,0,58,-29,-29,29,-39,-58,-58,-53,-48
-73,-73,0,73,-36,-36,34,-43,-73,-68,-68,-68
-87,-82,4,85,-46,-39,34,-53,-82,-82,-82,-82
-97,-97,0,97,-48,-48,34,-58,-87,-97,-97,-97
-97,-97,0,97,-48,-48,34,-63,-92,-102,-97,-97
-97,-97,0,97,-48,-48,34,-68,-92,-102,-102,-97
-97,-97,0,97,-48,-48,34,-68,-92,-102,-102,-97
-97,-97,0,97,-48,-48,34,-73,-97,-102,-102,-102
-107,-97,9,102,-58,-43,39,-73,-97,-102,-102,-102
-112,-97,14,104,-63,-41,39,-73,-97,-102,-102,-107
-117,-97,19,107,-68,-39,39,-78,-102,-107,-107,-107
-122,-97,24,109,-73,-36,39,-78,-102,-107,-107,-107
-122,-97,24,109,-73,-36,48,-78,-102,-107,-107,-107
-122,-92,29,107,-75,-31,53,-73,-102,-107,-107,-107
-122,-92,29,107,-75,-31,53,-73,-102,-107,-107,-107
-122,-92,29,107,-75,-31,53,-78,-102,-107,-107,-107
-117,-92,24,104,-70,-34,48,-73,-102,-107,-107,-107
-117,-92,24,104,-70,-34,43,-68,-102,-107,-112,-107
-117,-97,19,107,-68,-39,48,-68,-102,-107,-112,-107
-122,-102,19,112,-70,-41,48,-68,-102,-107,-112,-112
-146,-102,43,124,-95,-29,68,-68,-97,-107,-117,-117
-180,-97,82,139,-131,-7,102,-63,-97,-102,-122,-131
-200,-92,107,146,-153,7,122,-63,-87,-92,-131,-146
-200,-68,131,134,-165,31,131,-24,-29,-48,-97,-122
-141,-48,92,95,-117,21,165,117,136,68,4,-34
24,-19,-43,-2,34,-31,156,361,434,244,165,92
331,82,-248,-207,290,-82,87,644,854,522,439,322
678,239,-439,-458,558,-100,-122,658,1058,775,712,580
1200,488,-712,-844,956,-112,-566,605,1190,1044,1073,971
1556,712,-844,-1134,1200,-65,-966,448,1117,1166,1293,1244
1571,736,-834,-1154,1202,-48,-1161,161,644,819,1029,1102
1288,688,-600,-988,944,43,-1102,-258,53,453,697,868
697,566,-131,-631,414,217,-941,-976,-814,43,307,561
268,483,214,-375,26,348,-805,-1342,-1254,-122,131,405
234,395,161,-314,36,278,-756,-1083,-1083,-131,102,346
214,326,112,-270,51,219,-653,-790,-824,-102,87,292
146,239,92,-192,26,165,-473,-546,-600,-102,29,180
68,165,97,-117,-14,131,-317,-370,-429,-97,-9,102
0,73,73,-36,-36,73,-190,-234,-292,-102,-39,29
-29,14,43,7,-36,29,-87,-141,-200,-107,-58,-14
-58,-14,43,36,-51,14,-9,-107,-156,-92,-68,-43
-78,-48,29,63,-53,-9,34,-73,-112,-78,-73,-63
-97,-63,34,80,-65,-14,34,-58,-102,-78,-73,-68
-107,-68,39,87,-73,-14,43,-58,-102,-82,-78,-78
-117,-73,43,95,-80,-14,58,-53,-102,-92,-97,-87
-117,-87,29,102,-73,-29,68,-39,-97,-97,-107,-97
-126,-97,29,112,-78,-34,73,-29,-87,-97,-107,-97
-126,-97,29,112,-78,-34,73,-29,-82,-97,-107,-97
-126,-97,29,112,-78,-34,82,-24,-82,-92,-107,-97
-131,-102,29,117,-80,-36,82,-19,-82,-92,-107,-102
-131,-107,24,119,-78,-41,87,-14,-78,-92,-107,-102
-131,-107,24,119,-78,-41,87,-9,-73,-87,-107,-102
-131,-102,29,117,-80,-36,87,-9,-63,-87,-112,-102
-131,-102,29,117,-80,-36,87,-9,-58,-87,-112,-102
-131,-102,29,117,-80,-36,87,-4,-58,-87,-112,-102
-131,-102,29,117,-80,-36,87,-4,-53,-87,-107,-102
-126,-97,29,112,-78,-34,87,4,-48,-92,-107,-97
-122,-97,24,109,-73,-36,87,4,-43,-92,-107,-97
-126,-97,29,112,-78,-34,87,4,-43,-92,-107,-102
-131,-97,34,114,-82,-31,87,9,-39,-92,-102,-102
-126,-92,34,109,-80,-29,87,14,-39,-87,-102,-102
-126,-87,39,107,-82,-24,87,14,-34,-87,-102,-102
-122,-87,34,104,-78,-26,87,19,-39,-87,-97,-102
-117,-87,29,102,-73,-29,87,29,-34,-87,-97,-102
-117,-82,34,100,-75,-24,87,24,-29,-87,-92,-97
-112,-82,29,97,-70,-26,82,24,-29,-82,-92,-92
-107,-82,24,95,-65,-29,82,34,-24,-78,-87,-92
-102,-82,19,92,-61,-31,82,39,-14,-78,-87,-92
-102,-87,14,95,-58,-36,82,48,-4,-78,-82,-87
-92,-82,9,87,-51,-36,82,53,-4,-73,-82,-82
-87,-82,4,85,-46,-39,78,63,4,-73,-78,-82
-78,-78,0,78,-39,-39,78,68,14,-63,-73,-78
-73,-73,0,73,-36,-36,73,78,24,-58,-68,-73
-63,-73,-9,68,-26,-41,73,87,29,-48,-63,-68
-48,-58,-9,53,-19,-34,68,102,39,-48,-53,-63
-43,-58,-14,51,-14,-36,58,112,53,-43,-43,-53
-34,-53,-19,43,-7,-36,58,126,63,-34,-39,-43
-19,-43,-24,31,2,-34,53,141,78,-29,-29,-39
-4,-39,-34,21,14,-36,48,151,92,-19,-24,-34
14,-29,-43,7,29,-36,43,170,102,-14,-14,-24
29,-19,-48,-4,39,-34,39,185,112,0,-4,-14
43,-14,-58,-14,51,-36,34,195,126,9,9,-4
58,-4,-63,-26,61,-34,34,200,136,19,19,9
68,0,-68,-34,68,-34,29,209,151,24,29,14
87,19,-68,-53,78,-24,19,224,161,34,39,29
102,34,-68,-68,85,-17,19,234,175,43,48,43
122,39,-82,-80,102,-21,9,244,185,53,63,53
136,53,-82,-95,109,-14,4,248,195,63,73,58
151,58,-92,-104,122,-17,0,253,204,73,82,73
161,63,-97,-112,129,-17,-4,263,214,82,92,82
170,73,-97,-122,134,-12,-24,268,214,92,102,87
180,82,-97,-131,139,-7,-29,273,224,102,112,92
180,82,-97,-131,139,-7,-29,258,229,102,117,107
175,82,-92,-129,134,-4,-29,248,224,107,122,112
170,82,-87,-126,129,-2,-29,224,214,112,117,107
165,78,-87,-122,126,-4,-19,200,200,112,107,92
141,78,-63,-109,102,7,-19,185,190,97,97,87
122,73,-48,-97,85,12,-14,165,175,92,87,78
102,63,-39,-82,70,12,-4,141,151,82,82,63
82,53,-29,-68,56,12,4,122,136,73,68,53
58,43,-14,-51,36,14,14,107,117,68,58,39
34,34,0,-34,17,17,29,87,97,58,39,24
19,24,4,-21,7,14,34,68,78,48,29,14
0,14,14,-7,-7,14,39,53,63,39,19,0
-9,4,14,2,-12,9,39,43,53,29,4,-9
-19,0,19,9,-19,9,43,34,39,19,-4,-14
-34,-4,29,19,-31,12,48,24,29,4,-14,-24
-43,-9,34,26,-39,12,48,19,19,-4,-19,-29
-48,-14,34,31,-41,9,48,9,9,-4,-24,-34
-48,-19,29,34,-39,4,48,0,9,-4,-24,-34
-48,-19,29,34,-39,4,53,0,4,-9,-24,-34
-53,-24,29,39,-41,2,53,-4,4,-9,-24,-34
-53,-24,29,39,-41,2,53,-4,0,-14,-29,-34
-53,-24,29,39,-41,2,53,-4,0,-14,-29,-34
-53,-24,29,39,-41,2,53,-4,0,-14,-29,-39
-53,-29,24,41,-39,-2,53,-4,-4,-14,-29,-39
-58,-29,29,43,-43,0,53,-4,-4,-14,-29,-39
-63,-29,34,46,-48,2,53,-4,-4,-14,-29,-39
-63,-24,39,43,-51,7,48,-4,-4,-14,-29,-39
-63,-19,43,41,-53,12,48,-4,-4,-14,-29,-39
-58,-19,39,39,-48,9,48,-4,-4,-14,-29,-39
-58,-19,39,39,-48,9,48,-4,-4,-14,-29,-39
-53,-19,34,36,-43,7,48,-4,-4,-9,-29,-39
-53,-14,39,34,-46,12,48,-4,0,-4,-29,-39
-58,-19,39,39,-48,9,48,-4,0,-4,-29,-39
-58,-24,34,41,-46,4,48,-4,0,-4,-29,-39
-58,-24,34,41,-46,4,48,-4,0,-4,-29,-39
-58,-24,34,41,-46,4,48,-4,0,-4,-29,-39
-58,-24,34,41,-46,4,48,-4,0,-4,-29,-39
-53,-24,29,39,-41,2,43,-4,0,-4,-29,-39
-53,-24,29,39,-41,2,43,-4,0,-4,-29,-39
-53,-24,29,39,-41,2,43,-4,0,-4,-29,-39
-53,-19,34,36,-43,7,43,-4,0,-9,-29,-39
-58,-14,43,36,-51,14,39,-4,0,-14,-29,-34
-58,-14,43,36,-51,14,39,-4,-4,-9,-29,-34
-58,-14,43,36,-51,14,39,-4,-4,-9,-29,-34
-58,-19,39,39,-48,9,39,-4,-4,-14,-29,-39
-58,-24,34,41,-46,4,39,-4,-4,-14,-29,-39
-58,-24,34,41,-46,4,34,-4,-4,-14,-29,-39
-58,-24,34,41,-46,4,34,-4,-4,-14,-29,-34
-58,-24,34,41,-46,4,34,-9,-4,-14,-29,-34
-58,-24,34,41,-46,4,39,-9,-9,-14,-29,-39
-63,-24,39,43,-51,7,39,-9,-9,-14,-29,-39
-63,-24,39,43,-51,7,39,-14,-9,-14,-29,-39
-63,-29,34,46,-48,2,39,-14,-9,-14,-29,-39
-63,-29,34,46,-48,2,39,-14,-14,-19,-29,-39
-68,-29,39,48,-53,4,39,-14,-14,-19,-29,-39
-68,-29,39,48,-53,4,39,-19,-19,-19,-29,-43
-63,-24,39,43,-51,7,39,-19,-19,-19,-34,-43
-63,-19,43,41,-53,12,34,-19,-19,-24,-34,-43
-68,-24,43,46,-56,9,34,-19,-19,-24,-34,-43
-68,-24,43,46,-56,9,39,-24,-24,-24,-39,-43
-68,-29,39,48,-53,4,39,-24,-24,-24,-39,-43
-68,-34,34,51,-51,0,39,-24,-29,-24,-39,-48
-68,-34,34,51,-51,0,34,-24,-29,-29,-39,-48
-73,-39,34,56,-53,-2,34,-24,-29,-29,-39,-48
-73,-39,34,56,-53,-2,34,-24,-34,-29,-39,-48
-73,-39,34,56,-53,-2,34,-29,-34,-29,-43,-48
-78,-39,39,58,-58,0,34,-29,-34,-29,-43,-48
-78,-39,39,58,-58,0,34,-29,-34,-29,-43,-53
-73,-39,34,56,-53,-2,34,-29,-39,-34,-43,-53
-73,-39,34,56,-53,-2,34,-29,-48,-39,-43,-53
-73,-39,34,56,-53,-2,34,-29,-48,-39,-43,-53
-78,-43,34,61,-56,-4,34,-34,-48,-39,-43,-53
-82,-43,39,63,-61,-2,34,-34,-48,-39,-43,-53
-82,-43,39,63,-61,-2,34,-34,-48,-39,-43,-53
-82,-43,39,63,-61,-2,34,-34,-48,-43,-48,-53
-82,-43,39,63,-61,-2,34,-34,-48,-43,-48,-53
-82,-43,39,63,-61,-2,39,-34,-48,-43,-48,-58
-82,-43,39,63,-61,-2,39,-39,-43,-43,-48,-58
-82,-43,39,63,-61,-2,39,-39,-43,-43,-48,-58
-82,-39,43,61,-63,2,39,-39,-43,-43,-53,-58
-82,-43,39,63,-61,-2,39,-39,-48,-48,-58,-58
-82,-48,34,65,-58,-7,39,-39,-53,-53,-63,-58
-82,-43,39,63,-61,-2,39,-39,-53,-48,-58,-58
-82,-39,43,61,-63,2,43,-39,-53,-43,-58,-53
-82,-34,48,58,-65,7,43,-39,-53,-43,-53,-58
-78,-34,43,56,-61,4,43,-34,-58,-43,-53,-63
-78,-34,43,56,-61,4,39,-39,-63,-48,-53,-68
-78,-39,39,58,-58,0,29,-43,-63,-58,-53,-68
-82,-29,53,56,-68,12,39,-39,-58,-43,-48,-63
-73,-14,58,43,-65,21,53,-34,-53,-39,-43,-53
-63,0,63,31,-63,31,53,-34,-39,-29,-34,-48
-58,14,73,21,-65,43,58,-34,-24,-24,-29,-43
-53,19,73,17,-63,46,58,-29,-19,-19,-24,-39
-48,29,78,9,-63,53,58,-29,-19,-19,-19,-39
-48,29,78,9,-63,53,58,-24,-14,-14,-19,-39
-48,29,78,9,-63,53,58,-19,-9,-9,-19,-39
-48,34,82,7,-65,58,58,-14,0,0,-9,-29
-43,39,82,2,-63,61,58,-4,9,4,-4,-24
-39,43,82,-2,-61,63,63,0,24,9,0,-19
-29,29,58,0,-43,43,53,0,29,9,0,-19
-19,29,48,-4,-34,39,34,0,19,0,0,-19
9,43,34,-26,-12,39,14,4,19,19,14,-4
29,73,43,-51,-7,58,0,9,29,39,29,14
34,78,43,-56,-4,61,-9,14,29,43,39,14
39,78,39,-58,0,58,-14,14,34,39,29,24
29,53,24,-41,2,39,-14,9,29,24,19,19
9,29,19,-19,-4,24,-14,-9,9,4,0,-4
9,9,0,-9,4,4,-14,-9,-4,0,-4,-19
14,9,-4,-12,9,2,-9,-9,-9,-4,-4,-19
14,0,-14,-7,14,-7,-9,-14,-19,-14,-14,-24
19,-4,-24,-7,21,-14,-9,-14,-19,-19,-19,-19
19,-14,-34,-2,26,-24,0,-19,-24,-19,-24,-19
9,-14,-24,2,17,-19,-4,-24,-29,-29,-29,-29
-14,-24,-9,19,-2,-17,9,-24,-29,-34,-39,-39
-39,-39,0,39,-19,-19,14,-29,-43,-43,-48,-48
-58,-48,9,53,-34,-19,29,-29,-48,-48,-53,-53
-73,-63,9,68,-41,-26,39,-34,-63,-58,-68,-68
-87,-68,19,78,-53,-24,43,-43,-73,-68,-78,-78
-102,-82,19,92,-61,-31,43,-48,-82,-78,-87,-92
-107,-87,19,97,-63,-34,43,-48,-92,-82,-87,-97
-107,-87,19,97,-63,-34,39,-48,-92,-87,-92,-97
-107,-87,19,97,-63,-34,34,-48,-92,-92,-92,-97
-107,-87,19,97,-63,-34,34,-53,-97,-92,-97,-102
-112,-87,24,100,-68,-31,39,-53,-97,-92,-102,-102
-112,-87,24,100,-68,-31,39,-58,-97,-92,-102,-107
-117,-87,29,102,-73,-29,39,-68,-102,-97,-107,-107
-122,-87,34,104,-78,-26,39,-68,-102,-97,-107,-107
-122,-92,29,107,-75,-31,43,-68,-102,-97,-107,-107
-122,-92,29,107,-75,-31,43,-63,-102,-97,-107,-107
-122,-92,29,107,-75,-31,43,-63,-102,-97,-107,-107
-122,-92,29,107,-75,-31,43,-63,-102,-97,-102,-107
-122,-92,29,107,-75,-31,43,-58,-102,-97,-97,-107
-126,-92,34,109,-80,-29,43,-58,-102,-97,-102,-107
-126,-92,34,109,-80,-29,48,-58,-102,-97,-102,-107
-131,-92,39,112,-85,-26,48,-58,-102,-97,-102,-112
-156,-92,63,124,-109,-14,68,-58,-92,-97,-102,-117
-190,-92,97,141,-143,2,102,-68,-102,-107,-117,-136
-200,-92,107,146,-153,7,122,-63,-82,-97,-126,-141
-234,-73,161,153,-197,43,136,-48,-53,-63,-107,-131
-180,-43,136,112,-158,46,156,68,82,43,-14,-58
-29,-24,4,26,-17,-9,180,375,429,234,151,63
248,53,-195,-151,222,-70,117,649,800,473,380,258
619,200,-419,-409,519,-109,-92,663,1019,732,653,512
1083,405,-678,-744,880,-136,-463,624,1141,946,941,824
1546,658,-888,-1102,1217,-114,-956,512,1107,1088,1200,1137
1654,707,-946,-1180,1300,-119,-1220,263,741,858,1063,1098
1337,619,-717,-978,1027,-48,-1137,-214,63,419,649,800
849,507,-341,-678,595,82,-1000,-824,-707,4,258,507
385,424,39,-405,173,231,-863,-1234,-1166,-151,112,385
253,356,102,-305,75,229,-800,-1127,-1141,-200,58,317
253,326,73,-290,90,200,-683,-795,-834,-141,58,273
195,253,58,-224,68,156,-502,-546,-610,-126,14,175
92,185,92,-139,0,139,-336,-375,-444,-117,-9,107
9,102,92,-56,-41,97,-214,-244,-307,-117,-39,39
-29,43,73,-7,-51,58,-107,-161,-214,-117,-63,-4
-63,4,68,29,-65,36,-19,-117,-161,-102,-73,-39
-82,-34,48,58,-65,7,24,-73,-117,-87,-73,-58
-107,-48,58,78,-82,4,34,-48,-102,-87,-73,-68
-117,-48,68,82,-92,9,43,-48,-102,-92,-78,-78
-126,-48,78,87,-102,14,58,-48,-102,-97,-92,-87
-126,-63,63,95,-95,0,68,-39,-97,-97,-102,-97
-136,-78,58,107,-97,-9,73,-29,-87,-97,-107,-97
-141,-78,63,109,-102,-7,73,-29,-82,-97,-107,-102
-146,-78,68,112,-107,-4,82,-24,-82,-97,-107,-107
-151,-82,68,117,-109,-7,82,-24,-82,-97,-107,-112
-151,-87,63,119,-107,-12,87,-24,-78,-92,-107,-112
-151,-87,63,119,-107,-12,87,-19,-73,-87,-107,-112
-151,-82,68,117,-109,-7,87,-19,-68,-87,-112,-112
-151,-82,68,117,-109,-7,87,-14,-63,-87,-112,-112
-151,-82,68,117,-109,-7,87,-4,-58,-87,-112,-112
-151,-82,68,117,-109,-7,87,-4,-53,-92,-107,-112
-146,-78,68,112,-107,-4,87,4,-48,-97,-107,-107
-141,-78,63,109,-102,-7,87,4,-48,-92,-107,-107
-141,-78,63,109,-102,-7,87,4,-53,-92,-107,-107
-141,-78,63,109,-102,-7,87,9,-48,-92,-102,-102
-136,-78,58,107,-97,-9,87,14,-48,-87,-102,-102
-136,-78,58,107,-97,-9,87,14,-43,-87,-102,-102
-131,-78,53,104,-92,-12,87,19,-43,-87,-97,-102
-126,-78,48,102,-87,-14,87,29,-34,-87,-97,-97
-126,-73,53,100,-90,-9,87,29,-29,-87,-92,-87
-122,-73,48,97,-85,-12,82,34,-29,-82,-92,-82
-117,-73,43,95,-80,-14,82,43,-24,-78,-87,-82
-112,-73,39,92,-75,-17,82,48,-14,-73,-87,-87
-112,-73,39,92,-75,-17,82,58,-4,-68,-82,-87
-102,-63,39,82,-70,-12,82,63,-4,-63,-82,-82
-97,-63,34,80,-65,-14,78,73,4,-63,-78,-82
-87,-58,29,73,-58,-14,78,78,14,-58,-73,-78
-82,-53,29,68,-56,-12,73,87,24,-58,-68,-73
-78,-53,24,65,-51,-14,73,97,29,-48,-63,-68
-68,-39,29,53,-48,-4,68,112,39,-48,-53,-63
-63,-39,24,51,-43,-7,58,122,53,-43,-43,-53
-53,-34,19,43,-36,-7,58,136,63,-34,-39,-43
-39,-24,14,31,-26,-4,53,151,78,-29,-29,-39
-24,-19,4,21,-14,-7,48,161,92,-19,-24,-34
-4,-9,-4,7,0,-7,43,180,102,-14,-14,-24
9,0,-9,-4,9,-4,39,195,112,0,-4,-14
24,4,-19,-14,21,-7,34,204,131,14,9,-4
39,14,-24,-26,31,-4,29,214,146,29,19,9
48,19,-29,-34,39,-4,19,229,161,34,29,14
68,34,-34,-51,51,0,9,244,170,43,39,29
87,48,-39,-68,63,4,9,253,185,53,48,43
112,58,-53,-85,82,2,0,263,195,63,63,53
126,73,-53,-100,90,9,-4,273,204,73,73,58
141,78,-63,-109,102,7,-9,283,214,82,82,73
151,82,-68,-117,109,7,-14,292,229,92,97,82
161,92,-68,-126,114,12,-29,292,234,102,112,87
170,102,-68,-136,119,17,-29,297,244,112,122,97
170,102,-68,-136,119,17,-29,287,244,112,122,112
170,102,-68,-136,119,17,-34,278,234,117,126,112
165,102,-63,-134,114,19,-39,253,224,117,126,107
161,97,-63,-129,112,17,-29,229,209,117,117,92
141,92,-48,-117,95,21,-24,214,200,107,107,87
122,82,-39,-102,80,21,-14,195,185,102,92,78
102,73,-29,-87,65,21,-4,165,161,92,82,63
82,63,-19,-73,51,21,9,141,146,82,68,53
58,53,-4,-56,31,24,19,126,126,73,58,39
34,43,9,-39,12,26,29,107,107,58,39,24
19,34,14,-26,2,24,34,87,87,48,29,14
-4,19,24,-7,-14,21,39,68,73,39,19,0
-19,4,24,7,-21,14,39,53,63,29,4,-9
-29,0,29,14,-29,14,43,43,48,19,-4,-14
-39,-4,34,21,-36,14,48,34,39,9,-14,-24
-43,-9,34,26,-39,12,48,29,24,0,-19,-34
-48,-14,34,31,-41,9,48,24,9,-4,-24,-43
-48,-19,29,34,-39,4,48,19,9,-4,-24,-43
-48,-19,29,34,-39,4,53,19,4,-9,-24,-43
-53,-24,29,39,-41,2,48,14,4,-9,-24,-43
-58,-24,34,41,-46,4,43,14,0,-14,-29,-43
-63,-24,39,43,-51,7,43,14,0,-14,-34,-43
-63,-24,39,43,-51,7,43,14,0,-14,-39,-48
-63,-29,34,46,-48,2,48,14,-4,-14,-39,-48
-63,-29,34,46,-48,2,53,14,-4,-14,-39,-48
-63,-29,34,46,-48,2,53,14,-9,-14,-39,-48
-63,-29,34,46,-48,2,48,14,-14,-14,-39,-48
-68,-29,39,48,-53,4,48,14,-14,-14,-39,-48
-68,-29,39,48,-53,4,48,14,-14,-14,-39,-48
-68,-29,39,48,-53,4,48,14,-14,-14,-39,-48
-63,-29,34,46,-48,2,48,14,-14,-14,-39,-48
-63,-24,39,43,-51,7,48,14,-9,-14,-39,-43
-68,-24,43,46,-56,9,48,14,-9,-14,-39,-39
-68,-24,43,46,-56,9,48,14,-9,-14,-39,-39
-68,-24,43,46,-56,9,48,14,-9,-14,-39,-39
-68,-24,43,46,-56,9,48,14,-9,-14,-39,-43
-68,-24,43,46,-56,9,53,14,-9,-14,-39,-48
-63,-24,39,43,-51,7,53,14,-9,-14,-39,-48
-63,-24,39,43,-51,7,53,14,-9,-14,-39,-48
-63,-24,39,43,-51,7,53,14,-9,-14,-34,-48
-63,-24,39,43,-51,7,53,14,-9,-14,-29,-48
-63,-24,39,43,-51,7,53,14,-4,-14,-29,-43
-58,-24,34,41,-46,4,58,14,-4,-9,-29,-43
-58,-24,34,41,-46,4,58,14,-4,-9,-29,-43
-58,-24,34,41,-46,4,58,14,-4,-14,-29,-48
-63,-24,39,43,-51,7,58,9,-4,-14,-29,-48
-68,-24,43,46,-56,9,53,4,-4,-14,-29,-48
-68,-24,43,46,-56,9,53,4,-4,-14,-29,-39
-68,-24,43,46,-56,9,53,0,-4,-14,-29,-34
-68,-24,43,46,-56,9,58,0,-9,-14,-29,-39
-73,-24,48,48,-61,12,58,0,-9,-14,-29,-39
-73,-24,48,48,-61,12,58,-9,-9,-14,-29,-39
-73,-29,43,51,-58,7,58,-14,-9,-14,-29,-39
-73,-29,43,51,-58,7,58,-14,-14,-19,-29,-39
-78,-29,48,53,-63,9,58,-14,-14,-19,-29,-39
-78,-34,43,56,-61,4,53,-19,-19,-19,-29,-43
-73,-39,34,56,-53,-2,48,-19,-19,-19,-34,-43
-73,-39,34,56,-53,-2,43,-19,-19,-24,-34,-43
-78,-43,34,61,-56,-4,43,-19,-19,-24,-34,-43
-78,-39,39,58,-58,0,48,-24,-24,-24,-39,-43
-78,-34,43,56,-61,4,48,-24,-24,-24,-39,-43
-78,-34,43,56,-61,4,48,-29,-29,-24,-39,-48
-78,-34,43,56,-61,4,43,-34,-29,-29,-39,-48
-78,-39,39,58,-58,0,43,-34,-29,-29,-39,-48
-73,-39,34,56,-53,-2,43,-34,-34,-29,-39,-48
-73,-39,34,56,-53,-2,43,-34,-34,-29,-43,-48
-78,-39,39,58,-58,0,43,-29,-34,-29,-43,-48
-82,-39,43,61,-63,2,43,-29,-34,-29,-48,-53
-82,-39,43,61,-63,2,43,-29,-34,-34,-53,-53
-82,-39,43,61,-63,2,43,-34,-39,-39,-53,-53
-82,-39,43,61,-63,2,43,-39,-39,-39,-53,-53
-87,-43,43,65,-65,0,43,-43,-39,-39,-48,-53
-92,-43,48,68,-70,2,43,-43,-39,-39,-43,-53
-92,-48,43,70,-68,-2,43,-43,-39,-39,-43,-53
-92,-53,39,73,-65,-7,43,-43,-39,-43,-48,-53
-92,-53,39,73,-65,-7,43,-39,-39,-43,-48,-53
-92,-53,39,73,-65,-7,48,-34,-43,-43,-48,-58
-92,-53,39,73,-65,-7,48,-39,-43,-43,-53,-58
-92,-53,39,73,-65,-7,48,-39,-43,-43,-58,-58
-92,-53,39,73,-65,-7,48,-39,-43,-43,-63,-63
-92,-58,34,75,-63,-12,48,-39,-43,-43,-63,-68
-92,-58,34,75,-63,-12,48,-43,-43,-43,-63,-68
-92,-53,39,73,-65,-7,48,-48,-43,-39,-58,-68
-97,-53,43,75,-70,-4,53,-48,-48,-39,-63,-63
-102,-48,53,75,-78,2,53,-48,-48,-43,-63,-63
-102,-43,58,73,-80,7,53,-43,-48,-43,-63,-63
-102,-34,68,68,-85,17,58,-43,-43,-39,-58,-63
-97,-29,68,63,-82,19,63,-43,-34,-39,-48,-58
-92,-14,78,53,-85,31,73,-34,-29,-19,-39,-48
-82,-4,78,43,-80,36,73,-34,-19,-14,-29,-43
-73,4,78,34,-75,41,78,-34,-9,-9,-24,-43
-68,9,78,29,-73,43,78,-29,-4,-4,-19,-39
-68,19,87,24,-78,53,78,-29,0,0,-19,-39
-58,19,78,19,-68,48,78,-19,4,4,-14,-34
-48,19,68,14,-58,43,78,-9,9,9,-9,-29
-48,24,73,12,-61,48,78,-9,19,14,-4,-24
-43,29,73,7,-58,51,73,-4,24,14,0,-19
-39,34,73,2,-56,53,73,0,34,19,0,-19
-29,19,48,4,-39,34,53,0,29,19,0,-19
-19,19,39,0,-29,29,34,0,29,9,0,-19
9,34,24,-21,-7,29,14,4,39,29,14,-4
29,58,29,-43,0,43,4,9,48,43,29,14
34,58,24,-46,4,41,0,14,48,43,39,14
34,58,24,-46,4,41,-9,14,48,39,29,14
19,34,14,-26,2,24,-14,9,39,24,19,0
0,14,14,-7,-7,14,-14,-9,19,4,0,-14
0,0,0,0,0,0,-14,-9,4,0,-4,-19
4,0,-4,-2,4,-2,-9,-9,0,-4,-4,-19
4,-9,-14,2,9,-12,-9,-14,-9,-14,-14,-24
4,-14,-19,4,12,-17,-9,-14,-9,-19,-24,-24
0,-24,-24,12,12,-24,0,-19,-14,-19,-34,-29
-9,-29,-19,19,4,-24,4,-24,-19,-29,-39,-39
-34,-43,-9,39,-12,-26,29,-24,-19,-34,-48,-48
-63,-58,4,61,-34,-26,34,-34,-34,-43,-58,-58
-87,-68,19,78,-53,-24,48,-39,-39,-48,-63,-63
-102,-82,19,92,-61,-31,53,-48,-53,-58,-78,-78
-117,-87,29,102,-73,-29,53,-63,-63,-68,-87,-87
-126,-102,24,114,-75,-39,53,-68,-68,-78,-97,-97
-126,-107,19,117,-73,-43,53,-68,-73,-82,-97,-97
-126,-107,19,117,-73,-43,53,-63,-73,-82,-102,-97
-126,-107,19,117,-73,-43,53,-58,-73,-82,-102,-97
-126,-107,19,117,-73,-43,53,-63,-82,-82,-102,-102
-131,-107,24,119,-78,-41,58,-63,-87,-82,-102,-102
-131,-102,29,117,-80,-36,58,-63,-87,-87,-102,-107
-136,-97,39,117,-87,-29,58,-68,-92,-97,-107,-107
-141,-97,43,119,-92,-26,58,-68,-87,-97,-107,-107
-141,-102,39,122,-90,-31,63,-68,-82,-97,-107,-107
-141,-102,39,122,-90,-31,63,-63,-82,-97,-107,-107
-141,-102,39,122,-90,-31,63,-63,-82,-97,-107,-107
-141,-102,39,122,-90,-31,63,-68,-82,-97,-107,-112
-141,-102,39,122,-90,-31,63,-68,-82,-97,-107,-117
-146,-102,43,124,-95,-29,63,-68,-82,-97,-112,-117
-146,-102,43,124,-95,-29,68,-68,-82,-97,-112,-117
-151,-102,48,126,-100,-26,68,-68,-82,-97,-112,-117
-175,-102,73,139,-124,-14,87,-68,-73,-97,-112,-117
-209,-97,112,153,-161,7,126,-58,-68,-92,-112,-131
-219,-92,126,156,-173,17,151,-34,-34,-68,-107,-131
-209,-68,141,139,-175,36,161,24,48,-9,-58,-97
-112,-34,78,73,-95,21,175,185,239,122,63,0
97,9,-87,-53,92,-39,146,448,551,302,234,136
434,112,-322,-273,378,-104,29,678,888,531,468,346
810,253,-556,-531,683,-151,-234,634,1010,732,697,575
1278,453,-824,-866,1051,-185,-658,536,1034,888,941,863
1576,644,-932,-1110,1254,-143,-1034,336,863,912,1058,1049
1517,629,-888,-1073,1202,-129,-1180,0,361,566,780,883
1161,531,-629,-846,895,-48,-1068,-463,-244,204,434,624
634,409,-224,-522,429,92,-902,-1058,-941,-131,112,370
268,356,87,-312,90,222,-766,-1298,-1220,-219,14,278
234,317,82,-275,75,200,-702,-1019,-1015,-200,9,239
209,278,68,-244,70,173,-585,-712,-727,-146,19,204
126,195,68,-161,29,131,-405,-488,-522,-136,-14,117
34,136,102,-85,-34,119,-248,-331,-370,-126,-39,53
-39,63,102,-12,-70,82,-136,-214,-248,-126,-68,-9
-73,4,78,34,-75,41,-43,-141,-170,-126,-87,-43
-102,-34,68,68,-85,17,29,-107,-131,-112,-92,-68
-117,-68,48,92,-82,-9,63,-73,-92,-97,-92,-82
-136,-78,58,107,-97,-9,63,-58,-82,-97,-92,-87
-146,-78,68,112,-107,-4,73,-58,-82,-102,-97,-97
-156,-78,78,117,-117,0,87,-58,-82,-107,-112,-107
-156,-87,68,122,-112,-9,97,-48,-78,-102,-117,-117
-165,-97,68,131,-117,-14,102,-39,-68,-97,-117,-117
-165,-97,68,131,-117,-14,102,-43,-63,-97,-117,-117
-165,-97,68,131,-117,-14,112,-43,-63,-97,-117,-117
-170,-102,68,136,-119,-17,112,-39,-63,-102,-117,-122
-170,-107,63,139,-117,-21,117,-34,-58,-102,-117,-122
-170,-107,63,139,-117,-21,117,-24,-53,-97,-112,-122
-170,-102,68,136,-119,-17,117,-19,-48,-97,-112,-122
-170,-102,68,136,-119,-17,122,-19,-43,-92,-112,-122
-170,-102,68,136,-119,-17,126,-14,-34,-87,-107,-122
-170,-102,68,136,-119,-17,126,-14,-34,-87,-107,-122
