I, II, III, aVR, aVL, aVF, V1, V2, V3, V4, V5, V6
-19,-53,-34,36,7,-43,0,9,29,19,4,-14
-19,-58,-39,39,9,-48,0,19,39,29,4,-9
-19,-63,-43,41,12,-53,0,29,43,29,4,-4
-24,-73,-48,48,12,-61,4,43,48,34,4,-24
-39,-112,-73,75,17,-92,24,58,53,24,-29,-53
-63,-126,-63,95,0,-95,48,102,107,48,-24,-73
-112,-156,-43,134,-34,-100,73,97,126,63,-29,-78
-102,-190,-87,146,-7,-139,29,97,170,122,9,-78
-43,-117,-73,80,14,-95,-73,122,395,370,204,53
92,-39,-131,-26,112,-85,-322,-14,483,561,390,219
234,78,-156,-156,195,-39,-663,-317,400,610,497,375
341,219,-122,-280,231,48,-961,-697,78,380,439,439
278,278,0,-278,139,139,-1137,-1556,-966,-531,0,278
185,14,-170,-100,178,-78,-1220,-2601,-2298,-1654,-702,-48
151,-336,-488,92,319,-412,-1185,-2981,-2879,-2259,-1180,-336
78,-497,-575,209,326,-536,-1137,-2976,-2830,-2254,-1229,-400
-68,-673,-605,370,268,-639,-941,-2727,-2591,-2093,-1210,-463
-219,-761,-541,490,161,-651,-639,-2152,-2069,-1698,-1044,-478
-331,-727,-395,529,31,-561,-405,-1595,-1561,-1307,-868,-463
-361,-697,-336,529,-12,-517,-297,-1200,-1180,-1029,-751,-458
-351,-605,-253,478,-48,-429,-214,-868,-824,-727,-575,-409
-253,-444,-190,348,-31,-317,-175,-575,-541,-488,-395,-302
-156,-322,-165,239,4,-244,-122,-317,-326,-317,-273,-204
-102,-229,-126,165,12,-178,0,-92,-141,-170,-180,-146
-73,-170,-97,122,12,-134,53,9,-39,-73,-92,-107
-53,-141,-87,97,17,-114,63,43,-4,-34,-63,-87
-34,-136,-102,85,34,-119,63,87,14,-24,-58,-82
-34,-131,-97,82,31,-114,73,122,43,-14,-58,-82
-34,-122,-87,78,26,-104,73,131,68,9,-43,-78
-29,-107,-78,68,24,-92,78,136,73,24,-34,-73
-19,-107,-87,63,34,-97,78,151,78,29,-29,-68
-14,-112,-97,63,41,-104,78,165,87,29,-19,-63
-9,-117,-107,63,48,-112,82,175,102,43,-9,-58
-9,-112,-102,61,46,-107,82,175,112,48,-14,-58
-4,-112,-107,58,51,-109,82,185,112,48,-19,-58
-4,-107,-102,56,48,-104,82,195,122,48,-24,-58
0,-107,-107,53,53,-107,87,200,126,53,-29,-58
0,-107,-107,53,53,-107,87,214,131,58,-29,-58
0,-107,-107,53,53,-107,82,214,131,58,-34,-58
4,-112,-117,53,61,-114,87,219,131,58,-34,-58
4,-112,-117,53,61,-114,87,229,136,63,-29,-58
4,-107,-112,51,58,-109,92,239,141,68,-24,-63
4,-107,-112,51,58,-109,97,244,146,68,-19,-68
4,-107,-112,51,58,-109,102,258,146,68,-14,-68
9,-107,-117,48,63,-112,102,268,151,73,-14,-68
9,-107,-117,48,63,-112,107,273,161,78,-9,-63
14,-102,-117,43,65,-109,107,283,165,78,-9,-58
14,-97,-112,41,63,-104,112,292,175,82,-4,-58
14,-97,-112,41,63,-104,112,297,175,82,-4,-58
14,-92,-107,39,61,-100,117,297,175,87,-4,-58
14,-92,-107,39,61,-100,122,302,180,87,-4,-58
19,-87,-107,34,63,-97,122,312,185,97,-4,-53
19,-87,-107,34,63,-97,126,317,195,97,-9,-48
19,-73,-92,26,56,-82,136,331,195,97,-9,-48
14,-63,-78,24,46,-70,141,336,195,92,-14,-48
14,-58,-73,21,43,-65,141,341,200,97,-14,-48
14,-58,-73,21,43,-65,141,346,200,97,-14,-48
14,-48,-63,17,39,-56,151,361,204,102,-4,-43
14,-43,-58,14,36,-51,156,366,209,102,-4,-43
14,-39,-53,12,34,-46,165,370,209,107,0,-39
9,-34,-43,12,26,-39,175,380,214,107,9,-34
4,-24,-29,9,17,-26,190,385,229,107,14,-34
0,-14,-14,7,7,-14,200,390,239,112,14,-34
-4,-14,-9,9,2,-12,209,395,239,112,19,-24
-9,-4,4,7,-7,0,219,395,239,112,24,-19
-9,-9,0,9,-4,-4,229,400,234,112,24,-24
-24,-4,19,14,-21,7,239,400,229,107,24,-24
-29,4,34,12,-31,19,244,395,224,107,14,-19
-34,9,43,12,-39,26,253,385,224,102,9,-19
-43,24,68,9,-56,46,258,380,219,102,9,-19
-43,39,82,2,-63,61,258,370,209,97,9,-14
-48,58,107,-4,-78,82,258,361,204,92,14,-9
-53,68,122,-7,-87,95,253,351,204,82,14,-9
-58,82,141,-12,-100,112,253,336,204,87,24,0
-68,92,161,-12,-114,126,253,322,200,92,34,9
-73,107,180,-17,-126,143,239,297,195,92,34,14
-78,126,204,-24,-141,165,234,273,190,92,39,29
-87,141,229,-26,-158,185,224,253,185,97,43,39
-87,151,239,-31,-163,195,214,229,180,97,53,48
-87,165,253,-39,-170,209,204,209,175,107,68,58
-87,175,263,-43,-175,219,185,180,175,117,73,68
-87,180,268,-46,-178,224,165,161,175,126,87,82
-87,185,273,-48,-180,229,151,141,175,136,97,87
-87,185,273,-48,-180,229,131,131,180,141,112,92
-78,180,258,-51,-168,219,112,122,180,146,122,102
-73,175,248,-51,-161,212,102,107,175,151,122,102
-63,175,239,-56,-151,207,92,87,165,151,126,102
-58,161,219,-51,-139,190,73,73,156,146,122,102
-48,161,209,-56,-129,185,58,58,146,136,117,102
-43,151,195,-53,-119,173,43,53,136,136,117,92
-39,141,180,-51,-109,161,34,53,131,131,112,82
-34,122,156,-43,-95,139,24,43,122,122,107,78
-24,112,136,-43,-80,124,14,39,112,117,107,78
-24,102,126,-39,-75,114,9,34,102,112,102,82
-14,87,102,-36,-58,95,4,34,97,107,97,82
-14,78,92,-31,-53,85,0,34,97,97,87,63
-14,68,82,-26,-48,75,4,29,92,87,82,48
-9,63,73,-26,-41,68,4,29,82,82,73,48
-4,53,58,-24,-31,56,0,29,82,82,73,48
0,43,43,-21,-21,43,0,34,82,82,73,53
4,39,34,-21,-14,36,0,39,82,78,68,53
4,29,24,-17,-9,26,4,39,82,78,68,53
4,19,14,-12,-4,17,9,43,82,73,63,39
4,14,9,-9,-2,12,9,43,73,68,53,39
4,14,9,-9,-2,12,9,43,68,68,43,39
9,14,4,-12,2,9,9,48,68,58,39,24
9,14,4,-12,2,9,9,48,63,53,34,19
9,14,4,-12,2,9,9,48,63,48,29,14
9,14,4,-12,2,9,9,48,63,48,29,14
9,14,4,-12,2,9,4,48,63,48,29,14
9,9,0,-9,4,4,4,48,68,48,24,9
9,14,4,-12,2,9,4,53,68,48,24,9
4,19,14,-12,-4,17,4,53,68,48,24,9
4,14,9,-9,-2,12,9,53,68,48,29,9
4,14,9,-9,-2,12,14,53,73,48,34,14
4,14,9,-9,-2,12,14,53,73,48,34,9
4,14,9,-9,-2,12,14,53,73,48,29,9
4,14,9,-9,-2,12,9,48,63,43,24,9
4,14,9,-9,-2,12,0,43,58,34,14,4
4,14,9,-9,-2,12,0,39,58,29,14,4
0,14,14,-7,-7,14,0,39,58,29,14,-4
0,9,9,-4,-4,9,4,39,58,39,14,0
0,4,4,-2,-2,4,9,43,63,43,19,4
0,4,4,-2,-2,4,9,43,63,48,19,4
0,4,4,-2,-2,4,9,43,63,48,19,9
0,4,4,-2,-2,4,0,39,58,48,19,9
0,0,0,0,0,0,-4,29,43,48,19,9
0,0,0,0,0,0,-4,29,43,39,14,9
0,0,0,0,0,0,-4,24,43,34,9,4
0,0,0,0,0,0,-4,24,48,29,9,4
0,-4,-4,2,2,-4,-4,24,48,29,9,4
0,-4,-4,2,2,-4,-9,19,43,24,9,0
0,-4,-4,2,2,-4,-9,19,43,24,4,0
0,-4,-4,2,2,-4,-9,14,39,19,4,-4
0,0,0,0,0,0,-14,14,39,19,0,-9
0,0,0,0,0,0,-9,19,39,19,0,-9
0,-4,-4,2,2,-4,-4,19,34,19,0,-9
0,-4,-4,2,2,-4,-4,19,34,19,0,-9
0,-9,-9,4,4,-9,-4,19,34,19,0,-4
0,-9,-9,4,4,-9,-9,9,29,19,4,-4
0,-9,-9,4,4,-9,-19,4,24,19,4,-4
4,-9,-14,2,9,-12,-19,4,19,19,4,-4
4,-4,-9,0,7,-7,-19,4,19,19,9,0
4,-9,-14,2,9,-12,-19,9,24,19,14,0
0,-19,-19,9,9,-19,-19,9,29,19,9,0
0,-19,-19,9,9,-19,-19,9,24,19,4,0
0,-19,-19,9,9,-19,-19,9,19,19,0,0
0,-9,-9,4,4,-9,-19,4,19,19,0,-4
0,0,0,0,0,0,-19,0,19,19,0,-9
0,0,0,0,0,0,-19,0,19,19,4,-9
0,0,0,0,0,0,-19,0,19,19,4,-9
4,0,-4,-2,4,-2,-19,0,24,24,9,-9
4,9,4,-7,0,7,-9,9,34,29,14,4
9,24,14,-17,-2,19,9,24,43,43,29,19
14,48,34,-31,-9,41,24,39,58,53,48,34
14,63,48,-39,-17,56,34,53,73,68,53,43
19,73,53,-46,-17,63,43,63,82,78,53,43
24,87,63,-56,-19,75,43,68,82,78,63,53
29,102,73,-65,-21,87,43,73,92,87,68,58
34,117,82,-75,-24,100,43,73,102,92,73,63
34,126,92,-80,-29,109,34,73,102,92,78,73
43,151,107,-97,-31,129,14,58,92,92,82,73
48,175,126,-112,-39,151,-14,43,87,92,87,78
53,195,141,-124,-43,168,-29,39,87,92,92,82
68,224,156,-146,-43,190,-39,39,92,107,107,97
92,248,156,-170,-31,202,-63,34,102,117,122,122
107,268,161,-187,-26,214,-78,24,102,117,131,126
117,258,141,-187,-12,200,-87,24,92,117,131,126
117,239,122,-178,-2,180,-92,19,87,112,126,126
102,204,102,-153,0,153,-102,0,63,102,117,117
97,180,82,-139,7,131,-102,-14,43,82,102,112
92,156,63,-124,14,109,-97,-24,34,73,92,97
87,126,39,-107,24,82,-92,-24,34,63,82,82
48,97,48,-73,0,73,-73,-14,34,63,73,73
29,63,34,-46,-2,48,-48,-4,34,58,63,58
14,19,4,-17,4,12,-43,-19,9,29,29,24
0,9,9,-4,-4,9,-43,-19,4,24,19,14
-4,-9,-4,7,0,-7,-43,-29,-9,4,0,-4
-4,-19,-14,12,4,-17,-43,-24,-14,0,-4,-9
-4,-29,-24,17,9,-26,-43,-24,-14,-4,-4,-14
-4,-34,-29,19,12,-31,-39,-24,-14,-9,-4,-14
-4,-34,-29,19,12,-31,-34,-24,-14,-9,-4,-19
-4,-34,-29,19,12,-31,-29,-19,-14,-9,-4,-19
-9,-34,-24,21,7,-29,-29,-14,-4,-4,-4,-14
-9,-39,-29,24,9,-34,-24,-9,4,4,-4,-14
-9,-48,-39,29,14,-43,-19,-9,9,9,4,-4
-9,-53,-43,31,17,-48,-19,0,19,19,4,-4
-9,-53,-43,31,17,-48,-19,9,24,19,4,-4
-14,-63,-48,39,17,-56,-9,24,29,19,0,-24
-29,-92,-63,61,17,-78,14,39,29,0,-43,-58
-53,-107,-53,80,0,-80,39,78,63,4,-58,-92
-107,-156,-48,131,-29,-102,73,73,68,4,-78,-107
-112,-190,-78,151,-17,-134,43,78,112,63,-39,-107
-63,-107,-43,85,-9,-75,-39,112,351,322,165,24
73,-29,-102,-21,87,-65,-273,14,517,595,409,209
219,97,-122,-158,170,-12,-634,-248,531,756,585,405
336,268,-68,-302,202,100,-951,-561,297,614,585,522
283,375,92,-329,95,234,-1137,-1376,-707,-258,185,400
200,97,-102,-148,151,-2,-1229,-2435,-2122,-1468,-570,48
170,-297,-468,63,319,-383,-1195,-2840,-2815,-2191,-1117,-268
117,-448,-566,165,341,-507,-1171,-2918,-2859,-2259,-1200,-336
-14,-634,-619,324,302,-627,-1000,-2737,-2674,-2142,-1210,-419
-180,-741,-561,461,190,-651,-697,-2205,-2171,-1781,-1068,-463
-302,-727,-424,514,61,-575,-463,-1683,-1683,-1415,-912,-468
-331,-697,-366,514,17,-531,-336,-1259,-1263,-1093,-775,-458
-326,-605,-278,466,-24,-441,-239,-897,-863,-746,-580,-405
-239,-463,-224,351,-7,-344,-185,-605,-580,-507,-405,-302
-146,-326,-180,236,17,-253,-112,-336,-356,-336,-283,-204
-97,-224,-126,161,14,-175,-4,-107,-161,-190,-190,-146
-73,-165,-92,119,9,-129,39,0,-48,-82,-97,-107
-53,-131,-78,92,12,-104,53,39,-9,-39,-68,-87
-29,-126,-97,78,34,-112,53,78,4,-34,-68,-82
-24,-126,-102,75,39,-114,63,112,34,-24,-68,-82
-24,-122,-97,73,36,-109,63,126,58,4,-48,-73
-19,-107,-87,63,34,-97,68,136,63,24,-34,-63
-9,-107,-97,58,43,-102,73,151,68,29,-24,-58
-9,-107,-97,58,43,-102,78,165,78,29,-19,-58
-9,-107,-97,58,43,-102,82,175,92,43,-19,-63
-9,-102,-92,56,41,-97,82,175,102,48,-14,-68
-9,-102,-92,56,41,-97,82,185,102,48,-19,-68
-14,-102,-87,58,36,-95,82,195,112,48,-29,-68
-9,-107,-97,58,43,-102,87,200,117,53,-29,-68
-9,-107,-97,58,43,-102,92,214,122,58,-29,-68
-9,-107,-97,58,43,-102,92,214,122,58,-29,-68
-4,-112,-107,58,51,-109,97,219,122,58,-29,-68
-4,-112,-107,58,51,-109,97,229,126,58,-29,-73
-4,-107,-102,56,48,-104,102,239,136,58,-24,-78
-4,-107,-102,56,48,-104,107,244,146,58,-19,-78
-4,-107,-102,56,48,-104,112,258,146,58,-14,-78
0,-107,-107,53,53,-107,112,268,151,68,-14,-73
0,-107,-107,53,53,-107,117,273,161,78,-9,-68
9,-102,-112,46,61,-107,117,283,165,78,-9,-68
14,-97,-112,41,63,-104,122,292,175,82,-4,-68
14,-97,-112,41,63,-104,122,297,175,82,-4,-68
14,-92,-107,39,61,-100,126,302,175,87,-4,-68
14,-92,-107,39,61,-100,131,312,180,87,-4,-68
19,-87,-107,34,63,-97,131,322,185,97,0,-63
19,-87,-107,34,63,-97,136,326,195,97,0,-58
19,-78,-97,29,58,-87,146,341,200,102,0,-58
14,-73,-87,29,51,-80,146,341,204,102,-9,-63
14,-68,-82,26,48,-75,146,341,209,107,-14,-68
14,-68,-82,26,48,-75,151,346,209,107,-14,-68
14,-53,-68,19,41,-61,161,361,214,112,-4,-63
14,-39,-53,12,34,-46,165,366,219,107,-4,-63
14,-29,-43,7,29,-36,170,370,219,107,-4,-58
9,-24,-34,7,21,-29,175,380,224,107,0,-53
4,-19,-24,7,14,-21,190,385,234,107,4,-53
0,-14,-14,7,7,-14,200,390,239,112,9,-48
-4,-14,-9,9,2,-12,209,395,239,112,14,-39
-9,-9,0,9,-4,-4,219,395,234,112,14,-39
-9,-9,0,9,-4,-4,229,400,229,112,14,-43
-24,0,24,12,-24,12,239,400,229,102,9,-43
-29,4,34,12,-31,19,244,400,224,97,0,-39
-34,9,43,12,-39,26,253,395,224,92,0,-39
-43,19,63,12,-53,41,258,390,219,92,0,-39
-43,29,73,7,-58,51,258,380,209,87,0,-34
-48,43,92,2,-70,68,263,370,204,82,4,-29
-53,53,107,0,-80,80,263,361,204,78,9,-29
-58,73,131,-7,-95,102,263,346,200,82,19,-19
-68,82,151,-7,-109,117,263,331,190,82,24,-9
-73,97,170,-12,-122,134,248,312,185,82,24,-4
-78,117,195,-19,-136,156,244,292,180,78,24,4
-87,131,219,-21,-153,175,234,273,175,78,24,9
-87,141,229,-26,-158,185,224,248,170,78,34,19
-87,156,244,-34,-165,200,214,229,165,82,48,29
-87,165,253,-39,-170,209,200,200,165,87,53,39
-87,170,258,-41,-173,214,185,180,165,97,68,53
-87,175,263,-43,-175,219,170,161,165,112,78,63
-87,180,268,-46,-178,224,151,141,165,122,92,73
-78,180,258,-51,-168,219,131,122,161,131,107,82
-73,175,248,-51,-161,212,112,107,156,141,112,82
-63,180,244,-58,-153,212,92,87,151,141,117,82
-58,170,229,-56,-143,200,73,73,146,141,117,82
-48,170,219,-61,-134,195,58,58,136,136,117,82
-43,161,204,-58,-124,183,43,48,126,136,117,82
-39,151,190,-56,-114,170,34,43,122,131,112,82
-34,131,165,-48,-100,148,24,34,112,122,107,78
-24,122,146,-48,-85,134,14,29,102,117,107,78
-24,112,136,-43,-80,124,9,24,92,112,102,73
-14,97,112,-41,-63,104,4,24,87,112,102,68
-14,87,102,-36,-58,95,-4,24,87,107,97,63
-14,78,92,-31,-53,85,0,24,82,97,92,58
-9,73,82,-31,-46,78,4,29,73,87,82,58
-4,63,68,-29,-36,65,0,29,73,82,82,58
0,53,53,-26,-26,53,0,29,68,82,78,58
4,53,48,-29,-21,51,0,24,58,73,68,48
4,53,48,-29,-21,51,0,19,53,68,68,43
4,48,43,-26,-19,46,0,24,53,63,63,29
4,43,39,-24,-17,41,0,24,48,58,58,29
4,43,39,-24,-17,41,0,24,53,63,48,29
9,39,29,-24,-9,34,0,29,58,63,43,19
9,29,19,-19,-4,24,0,34,58,63,43,19
9,24,14,-17,-2,19,0,39,63,58,39,14
4,24,19,-14,-7,21,0,39,63,58,39,14
0,24,24,-12,-12,24,0,39,63,58,39,14
0,24,24,-12,-12,24,0,39,63,53,34,9
0,29,29,-14,-14,29,-4,43,58,48,34,9
-4,29,34,-12,-19,31,-4,39,53,48,34,9
-4,24,29,-9,-17,26,-4,34,48,48,34,4
0,24,24,-12,-12,24,-4,34,53,48,34,4
4,24,19,-14,-7,21,-4,34,53,48,34,0
4,24,19,-14,-7,21,-4,34,53,53,29,0
4,24,19,-14,-7,21,-4,34,48,58,29,4
4,24,19,-14,-7,21,-9,39,53,53,24,4
4,24,19,-14,-7,21,-9,39,58,48,24,4
0,19,19,-9,-9,19,-4,39,58,48,24,-4
0,14,14,-7,-7,14,0,34,53,53,19,-4
0,14,14,-7,-7,14,0,34,53,53,19,-4
0,14,14,-7,-7,14,0,34,53,53,19,-4
0,14,14,-7,-7,14,0,34,53,48,19,0
0,14,14,-7,-7,14,-4,34,53,48,19,0
0,14,14,-7,-7,14,-9,24,43,48,19,0
0,19,19,-9,-9,19,-14,19,43,43,19,0
0,19,19,-9,-9,19,-14,14,43,43,19,-4
0,19,19,-9,-9,19,-14,14,43,39,19,-4
0,14,14,-7,-7,14,-14,14,39,39,19,-4
0,14,14,-7,-7,14,-19,9,34,34,19,-9
0,9,9,-4,-4,9,-14,9,34,34,19,-9
0,4,4,-2,-2,4,-9,4,29,29,24,-9
0,9,9,-4,-4,9,-14,4,29,29,19,-9
0,9,9,-4,-4,9,-14,4,29,29,19,-9
0,4,4,-2,-2,4,-14,4,24,29,19,-4
0,4,4,-2,-2,4,-14,9,24,29,19,0
0,4,4,-2,-2,4,-19,9,19,24,14,4
0,9,9,-4,-4,9,-24,4,14,19,14,4
0,9,9,-4,-4,9,-29,0,14,19,14,4
4,9,4,-7,0,7,-29,-4,9,19,9,0
4,14,9,-9,-2,12,-29,-4,9,19,9,-4
4,14,9,-9,-2,12,-29,-4,9,19,14,-9
9,9,0,-9,4,4,-29,-9,9,19,14,-9
9,9,0,-9,4,4,-29,-9,4,19,9,-9
9,9,0,-9,4,4,-24,-9,0,19,14,0
9,9,0,-9,4,4,-24,-9,0,19,19,9
9,9,0,-9,4,4,-24,-9,0,19,19,9
9,9,0,-9,4,4,-29,-9,0,19,19,9
9,9,0,-9,4,4,-29,-9,0,19,19,4
9,9,0,-9,4,4,-29,-9,0,19,19,0
9,9,0,-9,4,4,-29,-9,0,19,19,-4
9,14,4,-12,2,9,-24,-4,4,19,19,0
9,19,9,-14,0,14,-19,-4,14,24,19,4
9,39,29,-24,-9,34,-4,4,24,34,29,14
14,73,58,-43,-21,65,4,19,39,43,48,29
14,92,78,-53,-31,85,14,29,53,58,53,43
19,102,82,-61,-31,92,24,34,68,68,53,43
24,112,87,-68,-31,100,24,39,73,68,63,48
29,122,92,-75,-31,107,29,48,82,82,68,48
34,136,102,-85,-34,119,34,53,92,92,73,53
34,136,102,-85,-34,119,24,53,92,92,78,58
43,151,107,-97,-31,129,4,39,82,92,82,58
48,175,126,-112,-39,151,-24,24,73,92,87,68
53,195,141,-124,-43,168,-39,19,68,92,92,73
68,229,161,-148,-46,195,-48,19,73,107,107,92
92,258,165,-175,-36,212,-68,19,82,117,122,122
107,283,175,-195,-34,229,-78,14,87,117,131,126
117,278,161,-197,-21,219,-87,14,82,117,131,126
122,258,136,-190,-7,197,-97,9,78,112,126,126
112,224,112,-168,0,168,-112,-4,58,102,117,117
107,200,92,-153,7,146,-112,-14,43,82,102,112
102,175,73,-139,14,124,-107,-24,34,73,92,97
97,146,48,-122,24,97,-102,-24,34,68,87,87
58,117,58,-87,0,87,-82,-14,34,73,82,82
34,78,43,-56,-4,61,-58,-4,34,68,73,68
19,29,9,-24,4,19,-53,-19,9,39,39,34
9,19,9,-14,0,14,-53,-19,4,34,29,24
4,0,-4,-2,4,-2,-53,-34,-9,14,9,4
4,-9,-14,2,9,-12,-48,-34,-14,4,4,-4
0,-19,-19,9,9,-19,-43,-34,-14,0,4,-14
-4,-24,-19,14,7,-21,-39,-34,-14,-4,0,-14
-4,-24,-19,14,7,-21,-34,-34,-14,-9,-4,-19
-4,-24,-19,14,7,-21,-29,-29,-19,-9,-4,-19
-9,-24,-14,17,2,-19,-29,-24,-19,-9,-4,-14
-9,-29,-19,19,4,-24,-29,-24,-14,-4,-4,-14
-9,-34,-24,21,7,-29,-29,-29,-9,0,4,-4
-9,-34,-24,21,7,-29,-29,-19,0,9,9,-4
-9,-34,-24,21,7,-29,-29,-9,4,9,14,-4
-14,-43,-29,29,7,-36,-19,4,4,9,9,-24
-29,-82,-53,56,12,-68,4,19,4,-4,-29,-53
-53,-107,-53,80,0,-80,34,58,29,-19,-58,-92
-102,-146,-43,124,-29,-95,63,48,19,-43,-97,-117
-131,-190,-58,161,-36,-124,68,58,34,-24,-102,-156
-112,-126,-14,119,-48,-70,14,92,229,185,48,-63
34,-48,-82,7,58,-65,-209,68,502,561,351,146
185,68,-117,-126,151,-24,-527,-122,605,795,575,346
341,302,-39,-322,190,131,-883,-297,590,858,722,551
326,453,126,-390,100,290,-1117,-951,-146,239,488,531
239,146,-92,-192,165,26,-1244,-2225,-1844,-1200,-380,131
209,-248,-458,19,334,-353,-1254,-2835,-2791,-2122,-1024,-229
185,-424,-610,119,397,-517,-1293,-3030,-2942,-2283,-1171,-322
87,-614,-702,263,395,-658,-1185,-2981,-2903,-2288,-1249,-414
-112,-741,-629,427,258,-685,-849,-2440,-2396,-1917,-1112,-453
-273,-746,-473,509,100,-610,-580,-1917,-1903,-1551,-966,-463
-331,-712,-380,522,24,-546,-419,-1439,-1429,-1210,-824,-463
-351,-614,-263,483,-43,-439,-283,-1024,-980,-844,-624,-419
-258,-444,-185,351,-36,-314,-219,-697,-663,-570,-429,-312
-165,-312,-146,239,-9,-229,-141,-405,-414,-366,-292,-214
-107,-209,-102,158,-2,-156,-14,-146,-200,-200,-190,-146
-73,-141,-68,107,-2,-104,43,-9,-68,-82,-92,-97
-48,-112,-63,80,7,-87,58,19,-34,-43,-63,-78
-24,-107,-82,65,29,-95,63,58,-14,-34,-58,-73
-24,-107,-82,65,29,-95,73,97,19,-24,-58,-73
-24,-102,-78,63,26,-90,73,112,48,0,-43,-68
-19,-87,-68,53,24,-78,78,117,53,14,-34,-68
-9,-87,-78,48,34,-82,78,131,58,19,-29,-68
-9,-82,-73,46,31,-78,78,151,68,19,-29,-68
-9,-78,-68,43,29,-73,82,165,82,34,-29,-68
-9,-73,-63,41,26,-68,82,165,92,43,-24,-63
-4,-73,-68,39,31,-70,82,175,92,48,-19,-58
-4,-73,-68,39,31,-70,78,185,102,48,-14,-58
0,-78,-78,39,39,-78,78,190,107,53,-9,-58
0,-78,-78,39,39,-78,82,204,112,58,-9,-63
0,-78,-78,39,39,-78,82,204,112,58,-14,-68
4,-87,-92,41,48,-90,87,209,112,58,-24,-68
4,-92,-97,43,51,-95,87,219,117,63,-29,-68
4,-87,-92,41,48,-90,92,234,126,68,-24,-68
4,-87,-92,41,48,-90,97,244,136,68,-19,-68
4,-87,-92,41,48,-90,107,258,136,68,-14,-63
9,-87,-97,39,53,-92,112,268,141,73,-14,-58
9,-87,-97,39,53,-92,117,273,151,78,-9,-58
14,-82,-97,34,56,-90,117,283,156,78,-9,-58
14,-73,-87,29,51,-80,122,292,165,82,-4,-58
14,-68,-82,26,48,-75,122,297,165,82,-4,-58
14,-63,-78,24,46,-70,126,297,165,87,-4,-58
14,-63,-78,24,46,-70,131,302,170,87,-4,-58
24,-58,-82,17,53,-70,131,312,175,97,0,-58
29,-58,-87,14,58,-73,136,317,185,97,0,-58
29,-48,-78,9,53,-63,146,331,190,102,0,-58
24,-43,-68,9,46,-56,151,336,195,102,-4,-58
19,-43,-63,12,41,-53,156,346,204,107,-4,-58
14,-48,-63,17,39,-56,161,356,209,107,-4,-58
14,-39,-53,12,34,-46,175,370,214,112,4,-53
14,-34,-48,9,31,-41,185,375,219,112,4,-53
14,-29,-43,7,29,-36,190,380,214,117,4,-48
9,-24,-34,7,21,-29,195,390,214,117,9,-43
4,-14,-19,4,12,-17,204,395,224,112,14,-43
0,-4,-4,2,2,-4,209,400,229,112,14,-43
-4,-4,0,4,-2,-2,219,405,229,112,14,-39
-9,4,14,2,-12,9,229,405,229,112,14,-39
-9,4,14,2,-12,9,244,409,229,112,14,-43
-24,14,39,4,-31,26,258,409,229,107,14,-43
-34,24,58,4,-46,41,263,414,224,107,9,-39
-43,29,73,7,-58,51,273,414,224,102,9,-39
-53,39,92,7,-73,65,278,409,219,102,4,-39
-53,48,102,2,-78,75,278,400,209,97,0,-34
-58,63,122,-2,-90,92,283,385,204,92,4,-29
-63,68,131,-2,-97,100,283,370,204,82,4,-29
-63,78,141,-7,-102,109,287,356,200,82,9,-19
-68,82,151,-7,-109,117,292,341,190,82,14,-9
-73,97,170,-12,-122,134,278,322,185,82,14,-4
-78,117,195,-19,-136,156,273,302,180,82,19,9
-92,131,224,-19,-158,178,263,287,175,82,24,19
-97,141,239,-21,-168,190,253,268,170,78,34,29
-97,156,253,-29,-175,204,244,248,165,82,48,29
-97,165,263,-34,-180,214,224,219,165,87,53,29
-97,175,273,-39,-185,224,204,195,165,97,68,53
-97,185,283,-43,-190,234,190,170,165,107,78,68
-97,190,287,-46,-192,239,170,151,165,117,97,78
-87,190,278,-51,-183,234,151,131,161,126,112,92
-82,190,273,-53,-178,231,126,117,156,131,112,92
-73,195,268,-61,-170,231,102,97,146,131,117,92
-63,180,244,-58,-153,212,82,82,136,136,117,92
-48,180,229,-65,-139,204,68,68,126,136,117,92
-43,175,219,-65,-131,197,53,53,122,136,117,92
-39,170,209,-65,-124,190,43,43,122,131,112,92
-34,151,185,-58,-109,168,34,34,112,122,107,87
-24,141,165,-58,-95,153,24,29,102,117,107,87
-24,126,151,-51,-87,139,19,24,92,117,107,87
-14,107,122,-46,-68,114,14,24,87,117,107,82
-9,97,107,-43,-58,102,4,24,87,107,97,73
-4,87,92,-41,-48,90,4,19,82,97,92,68
0,82,82,-41,-41,82,0,19,68,87,82,68
4,73,68,-39,-31,70,-9,19,63,82,82,68
4,63,58,-34,-26,61,-9,19,58,82,78,63
4,58,53,-31,-24,56,-9,19,53,78,68,53
4,53,48,-29,-21,51,-9,19,53,78,68,53
4,48,43,-26,-19,46,-9,24,53,73,63,39
4,43,39,-24,-17,41,-9,24,48,68,58,39
4,43,39,-24,-17,41,-9,24,48,68,53,39
9,39,29,-24,-9,34,-9,29,48,63,53,29
9,34,24,-21,-7,29,-9,29,43,63,53,29
9,34,24,-21,-7,29,-9,29,43,58,48,24
9,34,24,-21,-7,29,-9,29,43,58,48,24
9,34,24,-21,-7,29,-9,29,43,58,48,29
9,29,19,-19,-4,24,-4,29,48,58,43,29
9,29,19,-19,-4,24,-4,34,48,58,43,29
4,29,24,-17,-9,26,-4,34,48,58,43,29
4,24,19,-14,-7,21,-4,34,48,58,43,24
4,24,19,-14,-7,21,-4,34,53,58,43,24
4,24,19,-14,-7,21,-4,34,53,58,43,19
4,24,19,-14,-7,21,-4,34,53,58,39,19
4,24,19,-14,-7,21,0,34,48,58,39,24
4,24,19,-14,-7,21,0,34,48,53,34,24
9,19,9,-14,0,14,0,29,48,48,34,24
9,14,4,-12,2,9,0,29,48,48,34,14
9,14,4,-12,2,9,0,24,43,53,29,14
9,14,4,-12,2,9,0,24,43,53,29,14
4,19,14,-12,-4,17,-4,24,39,53,29,9
0,24,24,-12,-12,24,-9,24,34,48,29,9
0,29,29,-14,-14,29,-14,19,34,48,29,9
0,29,29,-14,-14,29,-14,9,24,48,29,9
0,29,29,-14,-14,29,-14,9,24,43,29,9
0,29,29,-14,-14,29,-14,4,24,43,29,4
0,29,29,-14,-14,29,-14,9,24,39,24,4
0,24,24,-12,-12,24,-14,14,19,39,19,4
0,19,19,-9,-9,19,-14,9,14,34,19,0
0,14,14,-7,-7,14,-9,9,14,34,14,0
0,14,14,-7,-7,14,-9,4,9,29,14,0
0,19,19,-9,-9,19,-14,4,9,29,9,0
4,24,19,-14,-7,21,-19,0,14,29,9,0
9,24,14,-17,-2,19,-24,-9,14,29,9,0
9,24,14,-17,-2,19,-24,-9,14,29,14,0
9,19,9,-14,0,14,-24,-9,14,29,19,4
4,19,14,-12,-4,17,-24,-14,14,34,29,9
0,19,19,-9,-9,19,-29,-14,14,39,34,14
4,19,14,-12,-4,17,-29,-9,9,39,29,9
4,24,19,-14,-7,21,-29,-4,9,39,29,9
9,24,14,-17,-2,19,-29,-4,9,34,29,4
14,19,4,-17,4,12,-29,-9,9,29,24,0
9,19,9,-14,0,14,-29,-14,9,29,14,0
9,19,9,-14,0,14,-29,-19,4,24,9,0
9,19,9,-14,0,14,-29,-19,4,24,9,0
9,19,9,-14,0,14,-29,-19,4,24,14,0
9,19,9,-14,0,14,-24,-14,0,19,9,0
9,19,9,-14,0,14,-19,-9,0,19,9,0
9,19,9,-14,0,14,-19,-9,0,19,9,0
9,19,9,-14,0,14,-19,-9,0,19,9,0
9,14,4,-12,2,9,-19,-4,4,24,19,4
9,9,0,-9,4,4,-19,0,9,29,24,9
14,9,-4,-12,9,2,-19,0,14,39,29,14
14,19,4,-17,4,12,-9,9,24,48,34,34
19,39,19,-29,0,29,4,24,34,63,48,43
24,68,43,-46,-9,56,14,39,48,73,68,53
24,82,58,-53,-17,70,19,48,63,82,73,58
29,92,63,-61,-17,78,24,53,73,87,73,53
34,107,73,-70,-19,90,24,58,73,87,78,58
39,122,82,-80,-21,102,24,63,82,97,78,58
43,136,92,-90,-24,114,24,58,87,102,82,63
43,146,102,-95,-29,124,14,53,82,102,87,73
58,170,112,-114,-26,141,-4,39,73,102,97,78
68,195,126,-131,-29,161,-34,24,68,102,107,87
73,214,141,-143,-34,178,-53,19,73,102,112,92
87,244,156,-165,-34,200,-68,19,82,117,126,107
112,268,156,-190,-21,212,-87,19,92,126,136,126
126,287,161,-207,-17,224,-97,14,92,126,141,126
136,273,136,-204,0,204,-107,14,82,126,141,126
136,248,112,-192,12,180,-112,9,78,122,136,126
122,214,92,-168,14,153,-117,0,58,112,131,117
117,190,73,-153,21,131,-112,-4,43,92,122,112
107,161,53,-134,26,107,-107,-14,34,82,112,102
97,126,29,-112,34,78,-102,-14,34,73,102,92
58,97,39,-78,9,68,-82,-9,34,73,87,82
39,63,24,-51,7,43,-58,-4,34,68,73,68
29,24,-4,-26,17,9,-53,-19,9,39,39,34
19,19,0,-19,9,9,-53,-19,4,34,29,24
14,4,-9,-9,12,-2,-53,-39,-14,9,9,4
14,0,-14,-7,14,-7,-53,-43,-24,0,4,0
4,-9,-14,2,9,-12,-53,-43,-24,0,4,-9
-4,-14,-9,9,2,-12,-48,-43,-24,0,4,-14
-4,-14,-9,9,2,-12,-43,-39,-24,0,0,-19
-4,-14,-9,9,2,-12,-39,-29,-24,0,-4,-19
-9,-24,-14,17,2,-19,-34,-24,-19,4,-4,-14
-9,-39,-29,24,9,-34,-24,-19,-14,14,-4,-14
-14,-43,-29,29,7,-36,-19,-19,-4,19,4,-4
-19,-43,-24,31,2,-34,-19,-9,9,29,4,-4
-19,-39,-19,29,0,-29,-19,0,14,24,9,0
-24,-43,-19,34,-2,-31,-9,14,19,19,9,-14
-39,-82,-43,61,2,-63,14,29,19,4,-29,-43
-63,-107,-43,85,-9,-75,39,68,53,14,-39,-73
-107,-146,-39,126,-34,-92,58,48,48,4,-58,-87
-102,-170,-68,136,-17,-119,14,39,82,53,-19,-87
-43,-87,-43,65,0,-65,-87,97,336,312,175,43
102,-9,-112,-46,107,-61,-341,24,517,585,409,229
253,107,-146,-180,200,-19,-688,-239,497,707,561,400
375,268,-107,-322,241,80,-990,-551,229,527,536,492
317,331,14,-324,151,173,-1176,-1429,-780,-336,136,356
229,9,-219,-119,224,-104,-1268,-2552,-2200,-1537,-619,-9
200,-385,-585,92,392,-485,-1254,-2947,-2869,-2230,-1151,-326
146,-536,-683,195,414,-610,-1249,-3015,-2888,-2269,-1220,-395
-4,-692,-688,348,341,-690,-1068,-2825,-2688,-2127,-1215,-448
-190,-771,-580,480,195,-675,-756,-2283,-2171,-1742,-1058,-463
-312,-722,-409,517,48,-566,-502,-1712,-1659,-1371,-888,-458
-341,-658,-317,500,-12,-488,-356,-1239,-1215,-1044,-736,-439
-331,-546,-214,439,-58,-380,-234,-863,-810,-692,-536,-380
-239,-385,-146,312,-46,-265,-156,-556,-522,-448,-356,-273
-141,-268,-126,204,-7,-197,-82,-287,-307,-278,-234,-175
-87,-185,-97,136,4,-141,24,-58,-122,-131,-141,-117
-63,-136,-73,100,4,-104,63,29,-29,-39,-58,-78
-43,-112,-68,78,12,-90,73,48,-9,-9,-39,-58
-24,-112,-87,68,31,-100,73,87,4,-9,-39,-53
-24,-117,-92,70,34,-104,82,122,34,-4,-39,-53
-24,-112,-87,68,31,-100,82,131,58,19,-29,-48
-19,-97,-78,58,29,-87,87,136,63,34,-24,-43
-9,-97,-87,53,39,-92,87,151,68,39,-19,-43
-9,-97,-87,53,39,-92,87,165,78,39,-19,-48
-9,-97,-87,53,39,-92,92,175,87,48,-24,-48
-9,-92,-82,51,36,-87,92,175,92,48,-24,-48
-4,-87,-82,46,39,-85,87,185,92,48,-19,-48
-4,-82,-78,43,36,-80,82,195,102,48,-19,-48
0,-87,-87,43,43,-87,87,200,112,53,-14,-48
0,-87,-87,43,43,-87,92,214,122,58,-9,-48
0,-92,-92,46,46,-92,92,214,122,58,-14,-53
4,-102,-107,48,56,-104,97,219,122,58,-19,-58
4,-102,-107,48,56,-104,97,229,126,63,-24,-58
4,-97,-102,46,53,-100,102,239,136,68,-24,-58
4,-97,-102,46,53,-100,107,244,146,68,-19,-58
4,-97,-102,46,53,-100,112,258,146,68,-14,-58
9,-97,-107,43,58,-102,117,268,151,73,-14,-58
9,-97,-107,43,58,-102,126,273,161,78,-9,-58
14,-92,-107,39,61,-100,126,287,165,78,-9,-58
14,-87,-102,36,58,-95,131,302,175,82,-4,-58
14,-82,-97,34,56,-90,131,307,175,82,-4,-63
14,-73,-87,29,51,-80,136,312,175,87,-4,-68
14,-73,-87,29,51,-80,141,322,180,87,-4,-68
19,-68,-87,24,53,-78,141,331,185,97,0,-63
19,-68,-87,24,53,-78,146,336,195,102,9,-53
19,-58,-78,19,48,-68,156,351,200,112,19,-48
14,-53,-68,19,41,-61,161,356,204,112,14,-48
14,-48,-63,17,39,-56,165,361,209,117,14,-48
14,-58,-73,21,43,-65,170,366,209,112,9,-48
14,-53,-68,19,41,-61,180,380,214,112,14,-43
14,-34,-48,9,31,-41,185,385,219,112,9,-53
14,-19,-34,2,24,-26,190,390,219,117,4,-58
9,-14,-24,2,17,-19,195,400,224,117,9,-53
4,-9,-14,2,9,-12,209,405,234,117,14,-53
0,-4,-4,2,2,-4,219,409,239,122,19,-48
-4,-4,0,4,-2,-2,229,414,239,122,24,-39
-9,4,14,2,-12,9,239,414,239,122,24,-34
-9,9,19,0,-14,14,248,419,239,122,24,-34
-24,19,43,2,-34,31,263,424,248,122,24,-34
-29,24,53,2,-41,39,273,429,253,126,19,-29
-34,29,63,2,-48,46,283,424,253,122,19,-24
-43,39,82,2,-63,61,287,419,248,122,19,-19
-43,48,92,-2,-68,70,287,414,239,117,19,-14
-48,63,112,-7,-80,87,292,409,234,112,24,-9
-53,68,122,-7,-87,95,292,400,234,102,19,-14
-58,82,141,-12,-100,112,292,385,229,102,19,-9
-68,92,161,-12,-114,126,292,370,219,102,24,0
-73,107,180,-17,-126,143,278,351,214,102,24,4
-78,126,204,-24,-141,165,273,331,214,102,34,14
-87,141,229,-26,-158,185,263,312,214,107,43,19
-87,146,234,-29,-161,190,253,287,209,112,53,29
-87,156,244,-34,-165,200,244,268,204,122,68,39
-87,165,253,-39,-170,209,224,239,204,126,82,58
-87,170,258,-41,-173,214,204,219,204,136,107,82
-87,185,273,-48,-180,229,190,200,204,146,107,87
-87,200,287,-56,-187,244,170,180,204,151,112,92
-78,200,278,-61,-178,239,151,161,195,156,122,102
-73,195,268,-61,-170,231,131,146,185,161,122,102
-63,195,258,-65,-161,226,107,122,175,161,126,97
-58,180,239,-61,-148,209,82,102,165,161,126,92
-48,180,229,-65,-139,204,68,87,156,151,126,92
-43,170,214,-63,-129,192,53,78,146,146,126,92
-39,161,200,-61,-119,180,43,73,141,141,117,87
-34,141,175,-53,-104,158,34,63,131,131,107,78
-19,131,151,-56,-85,141,24,53,122,126,107,78
-14,122,136,-53,-75,129,19,43,112,122,102,73
-4,107,112,-51,-58,109,14,43,102,117,97,73
-4,97,102,-46,-53,100,4,43,97,107,87,73
-4,87,92,-41,-48,90,4,39,92,97,92,68
0,82,82,-41,-41,82,4,39,82,87,92,68
0,73,73,-36,-36,73,0,39,78,82,82,58
0,63,63,-31,-31,63,0,39,68,82,68,48
4,58,53,-31,-24,56,0,34,63,73,58,43
4,53,48,-29,-21,51,0,29,63,68,58,43
4,43,39,-24,-17,41,0,34,63,63,53,29
4,34,29,-19,-12,31,0,34,58,58,48,29
4,34,29,-19,-12,31,0,34,58,58,43,34
9,29,19,-19,-4,24,0,39,58,53,43,29
9,24,14,-17,-2,19,0,39,53,53,43,29
9,24,14,-17,-2,19,0,39,53,48,39,24
9,24,14,-17,-2,19,0,39,53,48,34,14
9,24,14,-17,-2,19,0,39,53,48,29,4
9,19,9,-14,0,14,4,39,58,48,24,0
9,19,9,-14,0,14,4,43,58,48,24,0
4,19,14,-12,-4,17,4,43,58,48,29,0
4,14,9,-9,-2,12,4,43,58,48,34,-4
4,14,9,-9,-2,12,4,43,63,48,34,0
4,14,9,-9,-2,12,4,43,63,48,34,0
4,19,14,-12,-4,17,4,43,63,48,29,0
4,24,19,-14,-7,21,4,43,58,48,29,4
4,24,19,-14,-7,21,0,43,53,43,24,4
4,24,19,-14,-7,21,0,39,48,39,24,4
0,24,24,-12,-12,24,0,39,48,39,24,-4
0,24,24,-12,-12,24,0,34,43,43,19,-4
0,24,24,-12,-12,24,0,34,48,48,19,-4
0,24,24,-12,-12,24,0,34,53,53,19,-4
0,19,19,-9,-9,19,0,34,53,48,19,-4
0,14,14,-7,-7,14,-4,34,53,48,19,-9
0,9,9,-4,-4,9,-4,29,43,48,19,-9
0,9,9,-4,-4,9,-4,29,43,43,19,-9
0,9,9,-4,-4,9,-4,24,43,43,19,-9
0,9,9,-4,-4,9,-4,24,43,39,19,-4
0,9,9,-4,-4,9,-4,24,39,34,19,-4
0,14,14,-7,-7,14,-9,19,34,24,19,-9
0,14,14,-7,-7,14,-9,14,34,24,14,-9
0,14,14,-7,-7,14,-9,4,29,19,14,-9
0,14,14,-7,-7,14,-9,4,29,19,9,-9
0,9,9,-4,-4,9,-4,4,29,19,9,-9
0,4,4,-2,-2,4,-4,4,24,24,14,-9
0,4,4,-2,-2,4,-4,9,24,29,19,-9
0,0,0,0,0,0,-4,9,24,29,19,-4
0,0,0,0,0,0,-4,4,24,29,24,-4
0,0,0,0,0,0,-14,4,24,29,19,-4
4,0,-4,-2,4,-2,-19,4,19,29,9,-9
4,0,-4,-2,4,-2,-19,4,24,29,9,-9
4,-9,-14,2,9,-12,-19,0,29,29,14,-9
0,-9,-9,4,4,-9,-14,0,24,24,14,-9
0,-9,-9,4,4,-9,-9,0,19,19,19,-9
0,-4,-4,2,2,-4,-9,0,19,19,19,-9
0,0,0,0,0,0,-9,0,19,19,19,-9
0,0,0,0,0,0,-14,0,19,19,24,-4
0,0,0,0,0,0,-14,0,19,24,24,0
4,0,-4,-2,4,-2,-19,-4,24,29,29,0
4,9,4,-7,0,7,-9,0,34,39,34,14
9,29,19,-19,-4,24,4,14,43,53,43,14
14,58,43,-36,-14,51,14,29,58,63,58,14
14,73,58,-43,-21,65,24,43,73,78,63,34
19,82,63,-51,-21,73,34,53,82,87,63,43
24,87,63,-56,-19,75,34,58,82,87,73,48
29,92,63,-61,-17,78,34,63,92,97,78,48
34,102,68,-68,-17,85,39,63,102,102,82,53
34,107,73,-70,-19,90,34,63,102,102,87,63
43,126,82,-85,-19,104,14,48,92,102,92,63
48,146,97,-97,-24,122,-14,34,87,102,97,68
53,165,112,-109,-29,139,-29,29,87,97,102,73
68,195,126,-131,-29,161,-39,29,92,107,117,87
92,234,141,-163,-24,187,-58,29,102,117,131,117
107,268,161,-187,-26,214,-68,24,102,117,141,126
122,258,136,-190,-7,197,-78,24,97,117,141,126
126,239,112,-183,7,175,-82,19,97,112,136,126
112,204,92,-158,9,148,-97,4,78,102,126,117
107,180,73,-143,17,126,-102,-4,63,82,112,112
102,156,53,-129,24,104,-97,-14,53,78,102,97
97,126,29,-112,34,78,-92,-14,53,73,92,82
58,97,39,-78,9,68,-68,-4,53,73,92,78
39,63,24,-51,7,43,-39,4,53,68,92,68
24,9,-14,-17,19,-2,-34,-9,29,39,58,34
9,-9,-19,0,14,-14,-34,-9,24,34,48,24
4,-29,-34,12,19,-31,-34,-29,4,9,19,0
4,-39,-43,17,24,-41,-34,-34,-4,0,4,-9
0,-43,-43,21,21,-43,-34,-34,-4,0,0,-19
-4,-43,-39,24,17,-41,-29,-34,-4,0,-4,-24
-4,-39,-34,21,14,-36,-24,-29,-4,0,-4,-29
-4,-34,-29,19,12,-31,-19,-19,-4,0,-4,-29
-9,-34,-24,21,7,-29,-19,-14,0,0,-4,-24
-9,-39,-29,24,9,-34,-14,-9,4,4,-4,-24
-9,-43,-34,26,12,-39,-9,-19,9,9,9,-9
-9,-43,-34,26,12,-39,-9,-19,19,19,14,-4
-4,-43,-39,24,17,-41,-14,0,29,24,19,0
-4,-53,-48,29,21,-51,-9,24,39,29,19,-14
-19,-92,-73,56,26,-82,14,43,43,14,-19,-43
-43,-117,-73,80,14,-95,39,87,82,24,-29,-73
-107,-165,-58,136,-24,-112,82,78,68,4,-68,-102
-122,-200,-78,161,-21,-139,63,78,92,43,-48,-117
-87,-126,-39,107,-24,-82,9,141,341,292,136,0
34,-58,-92,12,63,-75,-195,73,517,556,361,170
209,58,-151,-134,180,-46,-556,-131,619,800,585,385
356,219,-136,-287,246,41,-873,-385,473,741,634,522
297,380,82,-339,107,231,-1088,-1224,-517,-112,278,439
209,156,-53,-183,131,51,-1210,-2308,-1917,-1302,-434,126
185,-253,-439,34,312,-346,-1205,-2801,-2732,-2122,-1058,-229
136,-419,-556,141,346,-488,-1210,-2967,-2898,-2288,-1220,-336
9,-624,-634,307,322,-629,-1049,-2835,-2752,-2196,-1234,-414
-151,-751,-600,451,224,-675,-756,-2352,-2288,-1859,-1098,-453
-292,-741,-448,517,78,-595,-497,-1795,-1786,-1493,-946,-473
-341,-717,-375,529,17,-546,-346,-1337,-1351,-1171,-814,-478
-351,-634,-283,492,-34,-458,-244,-971,-932,-810,-614,-429
-278,-502,-224,390,-26,-363,-185,-673,-629,-556,-434,-331
-165,-361,-195,263,14,-278,-112,-385,-390,-370,-302,-219
-97,-253,-156,175,29,-204,-4,-136,-180,-209,-200,-146
-73,-185,-112,129,19,-148,39,-14,-58,-92,-97,-97
-53,-141,-87,97,17,-114,53,39,-9,-39,-58,-68
-29,-136,-107,82,39,-122,58,78,4,-34,-58,-63
-24,-136,-112,80,43,-124,73,112,34,-24,-58,-63
-24,-131,-107,78,41,-119,73,122,58,0,-39,-63
-19,-117,-97,68,39,-107,78,126,63,14,-24,-63
-4,-112,-107,58,51,-109,78,141,68,19,-19,-58
0,-107,-107,53,53,-107,78,156,78,19,-19,-58
0,-107,-107,53,53,-107,82,165,97,39,-19,-58
0,-102,-102,51,51,-102,82,165,112,48,-14,-58
0,-102,-102,51,51,-102,87,175,112,48,-9,-58
-4,-102,-97,53,46,-100,92,185,122,48,-9,-58
0,-107,-107,53,53,-107,97,190,131,53,-9,-58
0,-107,-107,53,53,-107,102,204,141,58,-9,-58
0,-107,-107,53,53,-107,102,204,141,58,-19,-58
4,-112,-117,53,61,-114,107,209,141,58,-29,-58
4,-112,-117,53,61,-114,107,219,146,63,-29,-53
4,-107,-112,51,58,-109,112,229,156,68,-24,-48
4,-102,-107,48,56,-104,117,234,165,73,-9,-48
4,-97,-102,46,53,-100,122,248,165,78,4,-48
9,-97,-107,43,58,-102,117,258,165,82,4,-53
9,-97,-107,43,58,-102,117,263,170,87,9,-58
14,-97,-112,41,63,-104,117,273,175,87,4,-58
14,-97,-112,41,63,-104,122,283,185,92,4,-58
14,-97,-112,41,63,-104,126,287,185,87,0,-58
14,-92,-107,39,61,-100,136,292,185,87,-4,-58
14,-92,-107,39,61,-100,141,302,190,87,-4,-63
19,-87,-107,34,63,-97,141,312,195,97,0,-63
19,-87,-107,34,63,-97,141,317,204,97,0,-58
19,-78,-97,29,58,-87,146,331,209,102,0,-58
14,-73,-87,29,51,-80,151,336,214,102,0,-48
14,-68,-82,26,48,-75,156,341,219,107,4,-39
14,-68,-82,26,48,-75,161,346,224,107,4,-39
14,-53,-68,19,41,-61,170,361,234,112,14,-34
14,-48,-63,17,39,-56,175,366,239,112,14,-34
14,-48,-63,17,39,-56,180,370,239,117,14,-29
9,-43,-53,17,31,-48,185,380,239,117,19,-24
4,-39,-43,17,24,-41,200,385,244,117,24,-24
0,-29,-29,14,14,-29,204,390,248,122,24,-29
-4,-24,-19,14,7,-21,209,395,248,122,24,-29
-9,-14,-4,12,-2,-9,219,395,248,122,14,-29
-9,-9,0,9,-4,-4,229,400,248,122,4,-34
-24,4,29,9,-26,17,244,400,248,122,14,-34
-29,14,43,7,-36,29,253,400,244,126,19,-29
-34,14,48,9,-41,31,263,395,248,122,24,-24
-43,19,63,12,-53,41,268,390,248,122,29,-19
-43,29,73,7,-58,51,268,380,239,117,29,-9
-48,43,92,2,-70,68,273,370,234,112,34,0
-53,48,102,2,-78,75,273,361,234,102,34,0
-58,63,122,-2,-90,92,273,346,229,102,39,9
-68,78,146,-4,-107,112,273,331,219,102,39,14
-73,97,170,-12,-122,134,258,312,214,102,34,14
-78,117,195,-19,-136,156,253,297,209,102,39,24
-87,131,219,-21,-153,175,244,283,204,107,43,29
-87,141,229,-26,-158,185,234,258,200,107,53,39
-87,156,244,-34,-165,200,224,239,195,112,68,48
-87,165,253,-39,-170,209,209,214,195,117,73,58
-87,170,258,-41,-173,214,195,200,195,126,87,73
-87,175,263,-43,-175,219,180,180,195,136,97,82
-87,180,268,-46,-178,224,161,161,195,141,112,92
-78,180,258,-51,-168,219,141,141,190,146,122,102
-73,175,248,-51,-161,212,122,126,185,151,122,102
-63,175,239,-56,-151,207,107,107,180,151,126,97
-58,161,219,-51,-139,190,92,92,175,151,126,92
-48,161,209,-56,-129,185,78,78,165,146,122,92
-43,151,195,-53,-119,173,63,68,156,146,117,92
-39,141,180,-51,-109,161,48,58,146,136,112,92
-34,122,156,-43,-95,139,34,43,131,122,107,87
-24,112,136,-43,-80,124,24,39,122,117,112,92
-24,102,126,-39,-75,114,19,34,112,112,112,92
-14,92,107,-39,-61,100,14,34,102,112,107,82
-14,87,102,-36,-58,95,4,34,97,107,97,73
-14,78,92,-31,-53,85,4,29,92,97,92,63
-9,73,82,-31,-46,78,4,29,82,87,82,58
-4,63,68,-29,-36,65,0,29,82,82,82,58
0,53,53,-26,-26,53,0,29,78,82,78,58
4,39,34,-21,-14,36,4,34,73,78,68,53
4,24,19,-14,-7,21,9,39,73,78,68,53
4,19,14,-12,-4,17,9,43,73,73,63,39
4,14,9,-9,-2,12,9,43,68,68,58,39
4,19,14,-12,-4,17,9,39,63,68,48,39
9,19,9,-14,0,14,9,39,58,63,43,29
9,14,4,-12,2,9,4,39,53,63,43,29
9,14,4,-12,2,9,0,39,53,58,39,24
9,14,4,-12,2,9,0,39,58,58,43,24
9,14,4,-12,2,9,0,39,63,58,48,24
9,4,-4,-7,7,0,4,39,68,58,43,19
9,0,-9,-4,9,-4,4,43,68,58,43,19
4,0,-4,-2,4,-2,9,43,68,58,39,14
4,-4,-9,0,7,-7,14,43,68,58,34,4
4,-4,-9,0,7,-7,14,43,73,58,34,4
4,-4,-9,0,7,-7,14,43,73,58,34,0
4,0,-4,-2,4,-2,14,43,73,58,29,4
4,4,0,-4,2,2,14,43,68,58,29,14
4,4,0,-4,2,2,9,43,68,53,24,14
4,4,0,-4,2,2,9,39,68,48,24,14
0,0,0,0,0,0,9,39,68,48,24,4
0,-4,-4,2,2,-4,9,34,63,53,19,4
-4,-4,0,4,-2,-2,9,34,63,53,19,4
-9,-4,4,7,-7,0,9,34,63,53,19,4
-9,-4,4,7,-7,0,9,34,63,48,24,9
-9,-4,4,7,-7,0,4,34,63,48,29,9
-4,-9,-4,7,0,-7,4,29,53,48,29,9
0,-9,-9,4,4,-9,4,29,53,43,29,9
0,-9,-9,4,4,-9,4,29,53,43,29,9
0,-9,-9,4,4,-9,4,34,53,39,29,14
0,-14,-14,7,7,-14,4,34,48,39,24,14
0,-14,-14,7,7,-14,0,29,43,34,19,9
0,-9,-9,4,4,-9,0,29,43,34,14,4
0,-4,-4,2,2,-4,0,24,39,29,14,0
0,0,0,0,0,0,-4,29,39,29,9,0
0,0,0,0,0,0,-4,34,39,29,9,0
0,-4,-4,2,2,-4,-4,29,29,29,14,0
0,-4,-4,2,2,-4,-4,29,24,29,19,0
0,-9,-9,4,4,-9,-4,24,24,29,19,4
0,-9,-9,4,4,-9,-4,14,24,29,24,4
0,-9,-9,4,4,-9,-9,14,29,29,19,4
4,-9,-14,2,9,-12,-9,14,29,29,9,0
0,-9,-9,4,4,-9,-9,9,24,24,9,0
0,-9,-9,4,4,-9,-14,9,24,19,9,0
0,-9,-9,4,4,-9,-9,9,19,19,9,0
0,-9,-9,4,4,-9,-9,9,19,19,9,0
0,-9,-9,4,4,-9,-9,9,19,19,9,0
0,-9,-9,4,4,-9,-9,9,19,19,9,0
0,-9,-9,4,4,-9,-14,9,14,19,9,0
0,-4,-4,2,2,-4,-9,14,19,24,9,4
4,0,-4,-2,4,-2,-9,19,24,29,14,14
9,19,9,-14,0,14,4,34,34,43,29,24
14,48,34,-31,-9,41,14,48,53,53,53,29
14,63,48,-39,-17,56,24,58,73,68,63,34
14,73,58,-43,-21,65,34,63,82,78,63,34
14,82,68,-48,-26,75,34,68,82,78,73,39
19,92,73,-56,-26,82,39,73,92,87,73,39
24,107,82,-65,-29,95,43,73,102,92,73,43
24,112,87,-68,-31,100,34,82,102,92,78,58
34,131,97,-82,-31,114,14,78,92,92,82,68
39,156,117,-97,-39,136,-14,53,82,92,87,78
43,175,131,-109,-43,153,-29,39,78,92,92,82
58,219,161,-139,-51,190,-39,39,82,107,107,97
82,258,175,-170,-46,217,-58,39,92,117,122,122
97,268,170,-183,-36,219,-58,34,102,122,141,131
107,248,141,-178,-17,195,-58,34,102,126,151,136
112,229,117,-170,-2,173,-73,34,97,122,146,141
102,195,92,-148,4,143,-92,24,78,112,136,136
97,170,73,-134,12,122,-92,14,63,92,122,131
92,146,53,-119,19,100,-87,4,53,82,112,117
87,122,34,-104,26,78,-82,4,53,73,102,97
48,97,48,-73,0,73,-63,14,53,73,92,82
29,68,39,-48,-4,53,-39,24,53,68,78,63
19,29,9,-24,4,19,-34,9,29,39,39,24
9,19,9,-14,0,14,-39,4,19,29,29,14
4,0,-4,-2,4,-2,-43,-14,0,4,9,-4
4,-19,-24,7,14,-21,-43,-14,-4,0,4,-9
0,-39,-39,19,19,-39,-43,-14,-4,0,4,-14
-4,-48,-43,26,19,-46,-34,-14,-4,0,4,-9
-4,-53,-48,29,21,-51,-24,-14,-4,0,4,-9
-4,-53,-48,29,21,-51,-19,-4,-4,0,4,-9
-9,-53,-43,31,17,-48,-19,4,0,0,4,-4
-9,-58,-48,34,19,-53,-14,9,4,4,4,-4
-9,-63,-53,36,21,-58,-9,9,9,9,14,4
-9,-63,-53,36,21,-58,-9,14,19,24,14,4
-9,-63,-53,36,21,-58,-9,19,24,29,14,4
-9,-63,-53,36,21,-58,-4,34,29,29,9,-14
-19,-92,-73,56,26,-82,14,48,34,14,-29,-43
-43,-117,-73,80,14,-95,39,92,73,24,-43,-78
-92,-156,-63,124,-14,-109,63,87,78,24,-68,-97
-107,-185,-78,146,-14,-131,48,87,122,63,-43,-117
-73,-107,-34,90,-19,-70,-24,112,346,292,136,-4
63,-29,-92,-17,78,-61,-258,14,522,595,400,195
204,87,-117,-146,161,-14,-585,-248,527,756,585,385
322,292,-29,-307,175,131,-907,-488,361,668,629,531
268,414,146,-341,61,280,-1107,-1205,-527,-102,292,453
180,92,-87,-136,134,2,-1190,-2288,-2034,-1400,-512,82
151,-317,-468,82,309,-392,-1156,-2708,-2791,-2181,-1093,-248
117,-492,-610,187,363,-551,-1156,-2820,-2849,-2264,-1200,-336
9,-683,-692,336,351,-688,-1010,-2688,-2718,-2191,-1239,-424
-151,-780,-629,466,239,-705,-707,-2176,-2225,-1834,-1107,-473
-273,-756,-483,514,104,-619,-473,-1683,-1747,-1483,-966,-492
-312,-727,-414,519,51,-570,-346,-1249,-1307,-1146,-814,-478
-312,-634,-322,473,4,-478,-244,-878,-893,-785,-605,-419
-219,-463,-244,341,12,-353,-185,-585,-595,-531,-414,-307
-126,-331,-204,229,39,-268,-112,-326,-366,-346,-283,-204
-78,-229,-151,153,36,-190,9,-87,-161,-185,-185,-146
-53,-161,-107,107,26,-134,63,29,-39,-73,-92,-107
-34,-126,-92,80,29,-109,73,63,-9,-39,-68,-82
-14,-117,-102,65,43,-109,73,107,4,-34,-68,-73
-14,-117,-102,65,43,-109,78,141,34,-24,-68,-73
-14,-112,-97,63,41,-104,73,151,58,0,-53,-68
-9,-97,-87,53,39,-92,78,156,73,19,-34,-63
0,-97,-97,48,48,-97,78,170,87,29,-19,-58
0,-102,-102,51,51,-102,78,185,97,39,-19,-53
0,-107,-107,53,53,-107,82,195,112,63,-19,-48
0,-102,-102,51,51,-102,82,195,122,68,-14,-48
4,-102,-107,48,56,-104,82,204,122,68,-9,-48
0,-102,-102,51,51,-102,82,214,131,63,-9,-48
0,-107,-107,53,53,-107,87,219,136,63,-9,-48
0,-107,-107,53,53,-107,97,234,141,68,-9,-48
0,-107,-107,53,53,-107,102,234,141,68,-14,-48
4,-112,-117,53,61,-114,107,239,141,68,-19,-53
4,-112,-117,53,61,-114,107,248,146,73,-19,-58
9,-107,-117,48,63,-112,112,258,151,78,-19,-58
14,-107,-122,46,68,-114,117,263,156,78,-19,-58
14,-107,-122,46,68,-114,122,278,156,78,-14,-58
19,-107,-126,43,73,-117,122,287,161,82,-14,-58
19,-112,-131,46,75,-122,126,292,170,87,-4,-58
24,-112,-136,43,80,-124,126,302,175,87,0,-58
24,-107,-131,41,78,-119,131,312,190,92,4,-53
24,-107,-131,41,78,-119,131,317,195,92,4,-48
24,-97,-122,36,73,-109,136,322,195,97,4,-48
24,-92,-117,34,70,-104,141,331,200,97,4,-48
24,-87,-112,31,68,-100,136,341,204,107,4,-43
19,-87,-107,34,63,-97,136,346,214,107,0,-39
19,-78,-97,29,58,-87,146,361,219,112,0,-39
14,-73,-87,29,51,-80,151,366,224,112,-4,-39
14,-63,-78,24,46,-70,156,370,229,117,-4,-43
14,-58,-73,21,43,-65,161,375,229,117,-4,-48
14,-39,-53,12,34,-46,170,390,234,122,4,-43
14,-24,-39,4,26,-31,175,395,239,122,4,-43
19,-19,-39,0,29,-29,180,400,239,126,4,-39
19,-14,-34,-2,26,-24,185,409,244,126,9,-34
14,-14,-29,0,21,-21,200,414,253,126,14,-34
9,-14,-24,2,17,-19,209,419,258,131,14,-34
4,-14,-19,4,12,-17,219,424,258,131,14,-19
0,-4,-4,2,2,-4,229,424,258,131,14,-9
4,0,-4,-2,4,-2,234,429,258,131,14,-24
-4,14,19,-4,-12,17,239,429,258,126,14,-34
-9,29,39,-9,-24,34,244,429,253,126,9,-29
-14,39,53,-12,-34,46,253,424,253,122,9,-29
-29,48,78,-9,-53,63,263,419,248,122,14,-29
-34,58,92,-12,-63,75,268,409,239,117,19,-24
-39,73,112,-17,-75,92,273,405,234,112,24,-19
-43,78,122,-17,-82,100,273,400,234,102,24,-19
-48,92,141,-21,-95,117,273,385,229,102,29,-9
-58,102,161,-21,-109,131,273,370,219,102,34,0
-63,117,180,-26,-122,148,258,346,214,102,34,4
-68,136,204,-34,-136,170,253,322,209,102,39,19
-78,151,229,-36,-153,190,244,302,204,107,43,29
-78,161,239,-41,-158,200,234,278,200,107,53,39
-78,175,253,-48,-165,214,224,258,195,112,63,48
-78,185,263,-53,-170,224,204,229,195,117,63,58
-78,190,268,-56,-173,229,185,209,195,126,78,73
-78,195,273,-58,-175,234,170,190,195,136,87,78
-82,200,283,-58,-183,241,151,165,190,136,97,82
-78,200,278,-61,-178,239,131,141,180,136,102,92
-73,190,263,-58,-168,226,112,126,175,141,102,97
-63,185,248,-61,-156,217,92,107,165,141,107,102
-58,170,229,-56,-143,200,73,87,156,141,117,102
-48,170,219,-61,-134,195,58,68,146,136,126,102
-43,161,204,-58,-124,183,43,53,136,131,126,97
-39,151,190,-56,-114,170,34,43,131,122,122,92
-34,131,165,-48,-100,148,29,34,122,112,112,82
-24,122,146,-48,-85,134,24,29,112,107,107,78
-24,112,136,-43,-80,124,19,24,102,102,102,73
-14,97,112,-41,-63,104,14,24,97,97,97,63
-14,87,102,-36,-58,95,4,24,97,97,92,58
-14,78,92,-31,-53,85,4,19,92,97,92,58
-9,68,78,-29,-43,73,9,24,78,87,82,58
-4,53,58,-24,-31,56,9,29,73,82,82,58
-4,43,48,-19,-26,46,9,29,68,78,73,58
-4,39,43,-17,-24,41,9,29,63,68,58,53
-4,39,43,-17,-24,41,4,24,58,68,58,58
-4,39,43,-17,-24,41,0,24,53,63,53,48
-4,34,39,-14,-21,36,0,24,48,58,48,48
-4,34,39,-14,-21,36,0,24,48,58,43,48
0,29,29,-14,-14,29,0,29,53,53,43,34
0,24,24,-12,-12,24,0,29,53,53,43,29
0,24,24,-12,-12,24,0,29,53,53,43,24
0,24,24,-12,-12,24,0,29,53,58,48,24
0,19,19,-9,-9,19,0,34,53,58,48,24
0,9,9,-4,-4,9,4,39,58,58,43,19
0,9,9,-4,-4,9,4,43,58,53,43,19
-4,9,14,-2,-9,12,4,43,58,48,43,19
-4,9,14,-2,-9,12,4,43,58,48,39,9
-4,14,19,-4,-12,17,4,43,63,48,34,4
-4,14,19,-4,-12,17,4,43,63,48,34,0
-4,14,19,-4,-12,17,4,43,63,48,29,0
-4,9,14,-2,-9,12,4,43,58,48,34,9
-4,4,9,0,-7,7,0,43,58,43,34,14
-4,4,9,0,-7,7,0,34,58,39,34,14
-9,4,14,2,-12,9,0,29,58,39,34,4
-9,4,14,2,-12,9,0,24,53,43,24,4
-9,4,14,2,-12,9,0,24,53,43,19,4
-9,4,14,2,-12,9,0,24,53,43,19,0
-9,4,14,2,-12,9,0,24,53,39,19,0
-4,14,19,-4,-12,17,-9,24,53,39,19,0
0,19,19,-9,-9,19,-14,19,43,39,19,0
0,19,19,-9,-9,19,-14,19,43,34,19,0
0,19,19,-9,-9,19,-14,14,43,34,19,-4
0,9,9,-4,-4,9,-9,14,43,29,19,0
0,-4,-4,2,2,-4,-4,14,39,29,19,4
0,-4,-4,2,2,-4,-9,9,34,24,19,0
0,-4,-4,2,2,-4,-9,9,34,24,14,0
0,-4,-4,2,2,-4,-9,4,29,19,19,0
0,0,0,0,0,0,-14,4,29,19,19,0
0,0,0,0,0,0,-14,4,29,19,19,0
0,-4,-4,2,2,-4,-14,0,24,19,19,0
-4,-4,0,4,-2,-2,-14,0,24,19,14,-4
-9,-9,0,9,-4,-4,-14,0,24,19,9,-4
-9,-9,0,9,-4,-4,-14,-4,24,19,14,-4
-9,-9,0,9,-4,-4,-19,-4,19,19,9,-9
-9,-4,4,7,-7,0,-19,-9,19,19,9,-9
-9,0,9,4,-9,4,-24,-19,24,19,9,-9
-9,0,9,4,-9,4,-19,-19,19,19,9,-4
-9,0,9,4,-9,4,-19,-19,19,19,9,0
-9,0,9,4,-9,4,-19,-14,14,19,9,0
-9,0,9,4,-9,4,-19,-9,9,19,9,0
-4,-4,0,4,-2,-2,-19,-9,9,14,9,0
0,0,0,0,0,0,-14,-4,14,14,9,4
4,0,-4,-2,4,-2,-14,-4,19,19,14,9
9,19,9,-14,0,14,-4,4,24,34,29,14
14,48,34,-31,-9,41,4,19,39,43,48,24
14,63,48,-39,-17,56,14,29,53,58,53,34
14,73,58,-43,-21,65,24,34,68,68,53,34
14,82,68,-48,-26,75,24,39,73,68,63,39
19,92,73,-56,-26,82,24,43,82,78,68,43
24,107,82,-65,-29,95,24,43,92,82,73,53
24,117,92,-70,-34,104,19,43,92,82,78,63
34,141,107,-87,-36,124,4,29,82,82,82,68
39,170,131,-104,-46,151,-24,14,78,82,87,78
43,195,151,-119,-53,173,-39,9,78,82,92,82
58,224,165,-141,-53,195,-48,14,82,102,112,97
82,248,165,-165,-41,207,-68,19,92,117,131,122
97,268,170,-183,-36,219,-78,14,92,117,141,126
107,258,151,-183,-21,204,-87,14,82,117,141,126
107,239,131,-173,-12,185,-92,9,78,112,136,126
92,204,112,-148,-9,158,-102,-4,58,102,126,117
87,185,97,-136,-4,141,-107,-14,43,82,112,112
82,165,82,-124,0,124,-107,-24,34,73,102,97
82,136,53,-109,14,95,-102,-24,34,63,92,82
48,107,58,-78,-4,82,-82,-14,34,63,82,73
29,73,43,-51,-7,58,-58,-4,34,58,73,58
19,29,9,-24,4,19,-53,-19,9,29,39,24
9,14,4,-12,2,9,-53,-19,4,19,29,14
4,-9,-14,2,9,-12,-53,-34,-9,-4,9,-4
4,-24,-29,9,17,-26,-48,-34,-14,-9,0,-9
0,-39,-39,19,19,-39,-43,-34,-14,-9,-4,-14
-4,-43,-39,24,17,-41,-39,-34,-19,-9,-4,-14
-4,-43,-39,24,17,-41,-34,-34,-24,-9,-4,-19
-4,-43,-39,24,17,-41,-34,-29,-24,-4,0,-19
-9,-43,-34,26,12,-39,-39,-24,-19,0,4,-14
-9,-48,-39,29,14,-43,-34,-19,-9,4,4,-14
-9,-53,-43,31,17,-48,-29,-19,0,9,14,-4
-9,-53,-43,31,17,-48,-24,-9,9,19,14,-4
-9,-53,-43,31,17,-48,-19,0,14,19,14,-4
-9,-63,-53,36,21,-58,-9,14,24,19,14,-24
-19,-102,-82,61,31,-92,14,29,34,4,-19,-53
-43,-122,-78,82,17,-100,34,63,73,19,-29,-82
-92,-156,-63,124,-14,-109,53,48,78,24,-48,-97
-92,-175,-82,134,-4,-129,14,34,122,92,-4,-97
-43,-87,-43,65,0,-65,-82,43,346,351,195,34
82,-9,-92,-36,87,-51,-326,-63,483,605,429,224
214,107,-107,-161,161,0,-663,-336,448,717,585,405
322,258,-63,-290,192,97,-956,-639,165,517,551,502
258,326,68,-292,95,197,-1127,-1420,-839,-366,136,375
170,-4,-175,-82,173,-90,-1210,-2410,-2220,-1566,-624,14
141,-424,-566,141,353,-495,-1176,-2737,-2849,-2249,-1161,-307
97,-566,-663,234,380,-614,-1151,-2791,-2849,-2278,-1229,-375
-19,-722,-702,370,341,-712,-980,-2601,-2659,-2152,-1229,-444
-165,-800,-634,483,234,-717,-692,-2098,-2161,-1781,-1088,-483
-273,-756,-483,514,104,-619,-473,-1615,-1678,-1415,-936,-492
-302,-697,-395,500,46,-546,-331,-1180,-1229,-1073,-771,-468
-292,-575,-283,434,-4,-429,-214,-810,-805,-707,-546,-400
-204,-414,-209,309,2,-312,-156,-517,-522,-463,-366,-287
-117,-292,-175,204,29,-234,-82,-258,-307,-287,-244,-185
-73,-204,-131,139,29,-168,19,-53,-122,-141,-151,-126
-53,-151,-97,102,21,-124,53,29,-19,-43,-63,-87
-34,-126,-92,80,29,-109,63,53,4,-14,-39,-68
-14,-126,-112,70,48,-119,63,87,14,-14,-39,-63
-14,-131,-117,73,51,-124,73,122,43,-4,-39,-63
-14,-131,-117,73,51,-124,73,131,68,19,-24,-58
-9,-117,-107,63,48,-112,78,131,73,29,-19,-53
0,-117,-117,58,58,-117,78,141,78,29,-19,-48
0,-112,-112,56,56,-112,73,156,87,29,-19,-48
0,-107,-107,53,53,-107,73,165,102,43,-19,-48
-4,-102,-97,53,46,-100,73,170,112,53,-14,-48
-4,-102,-97,53,46,-100,73,185,112,58,-9,-48
-4,-102,-97,53,46,-100,78,195,122,58,-9,-48
0,-107,-107,53,53,-107,87,200,126,63,-9,-48
0,-107,-107,53,53,-107,92,214,131,68,-4,-53
0,-107,-107,53,53,-107,92,214,131,68,-4,-58
4,-107,-112,51,58,-109,92,214,131,68,-9,-58
4,-102,-107,48,56,-104,87,219,136,73,-9,-58
9,-97,-107,43,58,-102,92,229,141,78,-9,-58
14,-97,-112,41,63,-104,97,234,146,78,-9,-58
14,-97,-112,41,63,-104,107,248,146,78,-4,-58
19,-97,-117,39,68,-107,112,258,151,82,-4,-58
14,-97,-112,41,63,-104,117,263,161,87,0,-58
14,-92,-107,39,61,-100,117,273,165,87,0,-58
14,-87,-102,36,58,-95,122,287,180,92,4,-58
14,-87,-102,36,58,-95,122,297,185,92,4,-58
14,-82,-97,34,56,-90,126,302,190,97,4,-58
14,-82,-97,34,56,-90,131,312,200,97,4,-58
19,-82,-102,31,61,-92,131,322,204,107,9,-53
19,-87,-107,34,63,-97,136,326,214,107,9,-48
19,-78,-97,29,58,-87,146,341,219,112,14,-43
14,-73,-87,29,51,-80,151,346,224,112,14,-39
14,-63,-78,24,46,-70,156,351,234,122,14,-39
14,-58,-73,21,43,-65,161,356,239,126,14,-39
14,-43,-58,14,36,-51,175,370,244,131,24,-34
14,-34,-48,9,31,-41,185,375,248,131,24,-34
14,-34,-48,9,31,-41,190,380,244,136,24,-29
9,-34,-43,12,26,-39,195,390,244,136,29,-24
4,-29,-34,12,19,-31,209,400,253,136,34,-24
0,-24,-24,12,12,-24,219,409,258,141,34,-24
-4,-19,-14,12,4,-17,229,414,258,136,29,-19
-9,-4,4,7,-7,0,239,414,258,131,24,-19
-9,0,9,4,-9,4,248,419,258,131,24,-24
-24,14,39,4,-31,26,258,419,258,126,24,-24
-29,24,53,2,-41,39,263,419,253,126,19,-24
-34,29,63,2,-48,46,273,414,253,122,19,-29
-43,39,82,2,-63,61,278,409,248,122,19,-29
-43,48,92,-2,-68,70,278,400,239,117,19,-24
-48,68,117,-9,-82,92,283,390,234,112,24,-14
-53,78,131,-12,-92,104,283,380,234,102,24,-9
-58,92,151,-17,-104,122,287,366,229,107,29,0
-68,102,170,-17,-119,136,292,351,219,112,34,9
-73,112,185,-19,-129,148,278,331,219,112,34,14
-78,126,204,-24,-141,165,273,312,219,112,39,29
-87,141,229,-26,-158,185,258,292,214,117,48,39
-87,151,239,-31,-163,195,244,268,209,117,63,48
-87,165,253,-39,-170,209,234,248,204,122,78,58
-87,175,263,-43,-175,219,214,219,204,126,82,68
-82,180,263,-48,-173,222,195,200,200,131,97,82
-78,185,263,-53,-170,224,180,180,195,136,107,87
-78,190,268,-56,-173,229,156,156,195,141,122,92
-68,190,258,-61,-163,224,131,131,190,146,131,102
-63,180,244,-58,-153,212,112,117,185,151,131,102
-53,175,229,-61,-141,202,92,97,175,151,136,102
-53,161,214,-53,-134,187,73,82,161,151,131,97
-48,161,209,-56,-129,185,58,68,146,146,126,92
-43,151,195,-53,-119,173,43,53,136,141,126,92
-39,141,180,-51,-109,161,34,43,131,131,122,92
-34,122,156,-43,-95,139,24,34,122,122,117,87
-24,112,136,-43,-80,124,14,29,112,117,117,87
-19,102,122,-41,-70,112,9,24,97,112,112,82
-4,87,92,-41,-48,90,4,24,87,107,107,73
-4,78,82,-36,-43,80,-4,24,87,102,97,63
-4,68,73,-31,-39,70,-4,19,82,97,92,58
0,63,63,-31,-31,63,0,19,73,87,87,58
4,53,48,-29,-21,51,0,19,73,82,92,58
9,43,34,-26,-12,39,0,24,68,82,87,58
14,39,24,-26,-4,31,0,29,63,78,78,53
14,34,19,-24,-2,26,0,29,63,78,78,53
14,29,14,-21,0,21,0,34,63,73,73,39
9,24,14,-17,-2,19,0,34,58,68,63,39
4,24,19,-14,-7,21,0,34,58,68,53,39
9,14,4,-12,2,9,0,39,58,63,53,29
9,4,-4,-7,7,0,0,39,53,63,53,29
9,4,-4,-7,7,0,0,39,53,58,48,24
9,4,-4,-7,7,0,0,39,53,58,48,24
9,9,0,-9,4,4,0,39,53,58,48,24
9,9,0,-9,4,4,4,39,58,58,43,19
14,9,-4,-12,9,2,4,43,58,58,43,24
14,9,-4,-12,9,2,4,43,58,58,43,29
14,4,-9,-9,12,-2,4,43,58,58,48,24
14,4,-9,-9,12,-2,4,43,63,58,53,24
14,4,-9,-9,12,-2,4,43,63,58,53,19
14,4,-9,-9,12,-2,4,43,63,58,48,19
14,4,-9,-9,12,-2,4,43,58,63,48,24
14,4,-9,-9,12,-2,0,43,58,63,43,24
14,4,-9,-9,12,-2,0,39,58,58,43,24
9,4,-4,-7,7,0,0,39,58,58,43,14
9,0,-9,-4,9,-4,0,34,53,63,39,14
9,-4,-14,-2,12,-9,0,34,53,63,39,14
9,-4,-14,-2,12,-9,0,34,53,58,39,14
9,-4,-14,-2,12,-9,0,34,53,48,39,19
9,-4,-14,-2,12,-9,-4,34,53,48,43,19
9,-9,-19,0,14,-14,-4,29,43,48,48,19
9,-9,-19,0,14,-14,-4,29,43,43,48,19
9,-9,-19,0,14,-14,-4,24,43,43,48,14
9,-4,-14,-2,12,-9,-4,19,43,39,39,9
9,-4,-14,-2,12,-9,-4,14,39,39,29,4
9,-4,-14,-2,12,-9,-9,9,34,34,29,0
9,-4,-14,-2,12,-9,-9,9,34,34,24,0
9,-4,-14,-2,12,-9,-9,9,29,29,29,4
9,0,-9,-4,9,-4,-14,14,29,29,29,9
9,0,-9,-4,9,-4,-14,14,29,29,29,9
9,-4,-14,-2,12,-9,-14,9,24,29,29,9
9,-4,-14,-2,12,-9,-14,9,24,29,29,9
9,-9,-19,0,14,-14,-14,9,24,29,29,14
9,-9,-19,0,14,-14,-14,9,29,29,39,14
9,-9,-19,0,14,-14,-19,14,34,29,43,14
14,-9,-24,-2,19,-17,-19,14,29,34,39,9
14,-4,-19,-4,17,-12,-19,14,29,39,39,9
14,-4,-19,-4,17,-12,-14,14,29,39,43,14
14,-9,-24,-2,19,-17,-9,9,29,39,43,19
14,-9,-24,-2,19,-17,-9,9,29,39,39,19
19,-9,-29,-4,24,-19,-9,9,24,34,39,19
19,-9,-29,-4,24,-19,-9,4,14,34,34,19
19,-9,-29,-4,24,-19,-14,0,9,39,29,19
19,-4,-24,-7,21,-14,-14,0,9,34,29,19
19,0,-19,-9,19,-9,-19,0,9,29,29,19
19,0,-19,-9,19,-9,-19,0,9,29,29,14
19,0,-19,-9,19,-9,-19,0,9,29,29,9
14,0,-14,-7,14,-7,-19,0,9,24,29,4
14,0,-14,-7,14,-7,-14,4,14,24,34,9
14,4,-9,-9,12,-2,-9,9,24,29,39,14
19,19,0,-19,9,9,4,24,34,43,58,24
24,48,24,-36,0,36,14,39,48,58,78,39
24,63,39,-43,-7,51,24,48,63,78,82,53
29,73,43,-51,-7,58,34,53,73,87,78,53
34,82,48,-58,-7,65,34,58,73,87,82,58
39,92,53,-65,-7,73,39,63,82,97,87,58
43,107,63,-75,-9,85,43,63,92,102,92,63
39,112,73,-75,-17,92,34,63,92,102,97,73
43,131,87,-87,-21,109,14,48,82,102,102,78
48,156,107,-102,-29,131,-14,34,78,102,107,87
53,175,122,-114,-34,148,-29,29,78,102,112,92
73,209,136,-141,-31,173,-39,29,82,117,126,107
102,239,136,-170,-17,187,-58,29,92,126,141,131
117,263,146,-190,-14,204,-68,24,92,126,151,136
126,258,131,-192,-2,195,-78,24,82,126,151,136
126,239,112,-183,7,175,-82,19,78,122,146,136
112,204,92,-158,9,148,-92,4,58,112,136,126
107,180,73,-143,17,126,-92,-4,43,92,122,122
102,156,53,-129,24,104,-87,-14,34,82,112,107
97,131,34,-114,31,82,-82,-14,39,73,102,97
58,107,48,-82,4,78,-63,-4,43,73,92,92
39,73,34,-56,2,53,-43,4,43,68,92,78
29,29,0,-29,14,14,-43,-9,19,39,68,43
19,14,-4,-17,12,4,-43,-9,9,34,48,29
14,-9,-24,-2,19,-17,-43,-24,-9,14,19,4
14,-24,-39,4,26,-31,-43,-24,-14,9,9,0
9,-39,-48,14,29,-43,-43,-24,-14,9,4,-4
4,-43,-48,19,26,-46,-39,-24,-14,9,4,-4
4,-43,-48,19,26,-46,-34,-24,-14,9,4,-9
4,-39,-43,17,24,-41,-29,-24,-14,9,4,-14
0,-34,-34,17,17,-34,-29,-24,-9,9,4,-14
0,-34,-34,17,17,-34,-24,-19,-4,9,4,-14
0,-34,-34,17,17,-34,-19,-19,0,9,14,-4
0,-34,-34,17,17,-34,-19,-9,9,19,14,-4
0,-34,-34,17,17,-34,-19,0,14,19,14,-4
-4,-39,-34,21,14,-36,-9,14,19,19,9,-19
-19,-73,-53,46,17,-63,14,29,24,4,-29,-43
-43,-97,-53,70,4,-75,39,68,58,14,-39,-73
-92,-136,-43,114,-24,-90,63,58,58,14,-58,-87
-97,-165,-68,131,-14,-117,24,48,102,78,-14,-92
-53,-87,-34,70,-9,-61,-73,63,326,331,185,34
82,-9,-92,-36,87,-51,-322,-24,492,605,424,219
224,107,-117,-165,170,-4,-663,-278,488,736,585,395
346,278,-68,-312,207,104,-976,-575,239,570,580,502
297,366,68,-331,114,217,-1166,-1351,-732,-278,195,385
209,43,-165,-126,187,-61,-1249,-2396,-2166,-1503,-580,29
180,-366,-546,92,363,-456,-1215,-2776,-2849,-2210,-1132,-287
126,-517,-644,195,385,-580,-1200,-2864,-2869,-2259,-1210,-361
0,-683,-683,341,341,-683,-1039,-2708,-2698,-2152,-1220,-434
-161,-771,-610,466,224,-690,-727,-2186,-2191,-1781,-1068,-468
-283,-736,-453,509,85,-595,-483,-1683,-1698,-1415,-907,-473
-312,-673,-361,492,24,-517,-346,-1234,-1254,-1078,-761,-458
-302,-546,-244,424,-29,-395,-234,-849,-834,-717,-556,-400
-214,-385,-170,300,-21,-278,-165,-556,-551,-478,-375,-292
-126,-263,-136,195,4,-200,-82,-297,-336,-307,-253,-195
-82,-175,-92,129,4,-134,14,-82,-151,-161,-161,-136
-63,-122,-58,92,-2,-90,43,9,-48,-63,-73,-97
-43,-92,-48,68,2,-70,53,34,-19,-29,-48,-78
-24,-87,-63,56,19,-75,53,68,-4,-24,-48,-73
-24,-92,-68,58,21,-80,68,102,24,-14,-48,-73
-24,-92,-68,58,21,-80,73,112,48,9,-34,-68
-14,-78,-63,46,24,-70,78,117,53,24,-24,-63
0,-78,-78,39,39,-78,78,131,58,29,-19,-58
0,-73,-73,36,36,-73,78,146,68,24,-19,-58
0,-68,-68,34,34,-68,82,156,82,34,-19,-58
-4,-58,-53,31,24,-56,82,156,92,39,-14,-58
-4,-53,-48,29,21,-51,82,165,92,39,-9,-58
-4,-53,-48,29,21,-51,82,175,102,43,-9,-58
0,-58,-58,29,29,-58,87,180,107,53,-9,-58
0,-63,-63,31,31,-63,92,200,112,58,-9,-58
0,-68,-68,34,34,-68,92,204,112,58,-14,-58
4,-73,-78,34,41,-75,97,209,112,58,-19,-63
4,-73,-78,34,41,-75,97,219,117,63,-19,-68
4,-68,-73,31,39,-70,102,224,122,63,-19,-68
4,-68,-73,31,39,-70,107,224,126,58,-19,-68
4,-63,-68,29,36,-65,112,239,126,58,-19,-68
9,-58,-68,24,39,-63,112,248,131,63,-24,-68
9,-58,-68,24,39,-63,117,253,141,68,-19,-68
14,-53,-68,19,41,-61,117,263,146,68,-19,-68
9,-53,-63,21,36,-58,122,273,161,78,-14,-68
4,-58,-63,26,34,-61,122,278,165,82,-14,-68
4,-53,-58,24,31,-56,126,283,165,87,-9,-68
4,-53,-58,24,31,-56,131,292,170,87,-4,-68
9,-53,-63,21,36,-58,131,302,175,97,0,-63
9,-58,-68,24,39,-63,136,307,185,97,0,-58
9,-48,-58,19,34,-53,146,322,190,102,0,-58
4,-43,-48,19,26,-46,151,326,195,102,-4,-58
4,-43,-48,19,26,-46,156,331,200,102,-4,-58
4,-48,-53,21,29,-51,161,336,200,97,-4,-58
4,-34,-39,14,21,-36,170,351,204,102,0,-53
4,-24,-29,9,17,-26,175,356,209,102,-4,-53
4,-19,-24,7,14,-21,185,361,204,107,-4,-53
0,-14,-14,7,7,-14,195,370,204,107,0,-53
-4,-9,-4,7,0,-7,209,375,214,107,4,-53
-9,-4,4,7,-7,0,219,380,219,112,4,-53
-14,0,14,7,-14,7,224,385,219,107,4,-48
-19,14,34,2,-26,24,229,385,219,102,4,-48
-19,19,39,0,-29,29,239,390,219,102,4,-48
-34,34,68,0,-51,51,248,390,219,97,4,-43
-39,43,82,-2,-61,63,253,390,214,97,0,-39
-43,48,92,-2,-68,70,263,385,214,92,0,-39
-53,58,112,-2,-82,85,273,380,209,97,0,-39
-53,68,122,-7,-87,95,278,370,200,97,0,-34
-58,82,141,-12,-100,112,283,361,195,92,4,-29
-63,87,151,-12,-107,119,283,351,195,82,4,-29
-68,107,175,-19,-122,141,283,336,190,82,9,-19
-78,122,200,-21,-139,161,283,322,180,82,14,-9
-78,136,214,-29,-146,175,268,302,175,82,14,-4
-78,156,234,-39,-156,195,263,283,170,82,19,9
-87,170,258,-41,-173,214,253,268,165,87,24,19
-87,180,268,-46,-178,224,244,248,161,87,34,29
-87,190,278,-51,-183,234,234,234,161,92,48,39
-87,195,283,-53,-185,239,214,209,165,97,53,48
-87,200,287,-56,-187,244,190,190,165,107,68,63
-87,204,292,-58,-190,248,170,170,165,117,78,68
-87,209,297,-61,-192,253,151,151,165,122,92,73
-78,209,287,-65,-183,248,131,131,161,126,102,82
-73,204,278,-65,-175,241,112,117,156,131,102,87
-63,204,268,-70,-165,236,92,97,146,131,107,92
-58,190,248,-65,-153,219,73,78,136,131,107,92
-48,190,239,-70,-143,214,58,58,126,126,107,92
-43,185,229,-70,-136,207,43,48,117,131,112,92
-39,180,219,-70,-129,200,34,43,112,131,112,92
-34,161,195,-63,-114,178,24,34,102,122,107,87
-24,151,175,-63,-100,163,14,29,92,117,107,87
-24,141,165,-58,-95,153,9,24,82,112,102,82
-14,126,141,-56,-78,134,4,24,78,107,97,73
-14,117,131,-51,-73,124,-4,24,78,97,92,63
-14,107,122,-46,-68,114,-4,19,73,87,92,58
-9,102,112,-46,-61,107,-4,19,58,78,82,58
-4,92,97,-43,-51,95,-9,19,53,73,82,58
0,78,78,-39,-39,78,-9,19,48,73,78,58
4,68,63,-36,-29,65,-9,19,43,68,68,53
4,63,58,-34,-26,61,-9,14,43,68,68,53
4,58,53,-31,-24,56,-9,14,43,63,63,39
4,53,48,-29,-21,51,-4,14,39,58,58,39
4,53,48,-29,-21,51,0,14,39,58,53,39
9,48,39,-29,-14,43,0,24,39,53,48,29
9,43,34,-26,-12,39,0,29,34,53,43,29
4,39,34,-21,-14,36,0,29,34,48,39,24
0,34,34,-17,-17,34,0,29,34,48,39,24
0,34,34,-17,-17,34,0,29,29,48,39,24
0,29,29,-14,-14,29,4,29,29,48,34,19
0,29,29,-14,-14,29,0,34,29,48,34,19
-4,29,34,-12,-19,31,-4,34,29,48,34,19
-4,24,29,-9,-17,26,-4,34,29,48,34,14
-4,24,29,-9,-17,26,-4,34,34,48,34,14
-4,24,29,-9,-17,26,-4,29,34,48,34,9
-4,24,29,-9,-17,26,-4,24,34,48,29,9
-4,24,29,-9,-17,26,-4,24,29,48,29,14
-4,24,29,-9,-17,26,-9,24,29,43,24,14
-4,24,29,-9,-17,26,-9,19,29,39,24,14
-9,24,34,-7,-21,29,-9,19,29,39,24,4
-9,24,34,-7,-21,29,-9,14,24,43,19,0
-9,24,34,-7,-21,29,-9,14,24,43,19,-4
-9,24,34,-7,-21,29,-9,19,24,43,19,-4
-9,24,34,-7,-21,29,-9,24,24,39,19,0
-9,24,34,-7,-21,29,-14,24,29,39,19,0
-9,19,29,-4,-19,24,-14,19,24,39,19,0
-9,19,29,-4,-19,24,-14,19,24,34,19,0
-9,19,29,-4,-19,24,-14,14,24,34,19,-4
-4,19,24,-7,-14,21,-14,14,24,29,14,-4
0,14,14,-7,-7,14,-14,14,19,29,9,-4
0,14,14,-7,-7,14,-14,9,14,24,9,-9
0,14,14,-7,-7,14,-9,9,14,24,4,-9
0,14,14,-7,-7,14,-9,4,9,19,9,-9
0,19,19,-9,-9,19,-14,4,9,19,9,-9
0,19,19,-9,-9,19,-14,4,14,19,9,-9
0,14,14,-7,-7,14,-14,0,14,19,9,-9
0,14,14,-7,-7,14,-14,0,14,24,9,-9
0,9,9,-4,-4,9,-14,0,14,29,9,-4
0,4,4,-2,-2,4,-14,0,14,29,19,0
0,0,0,0,0,0,-19,4,14,29,24,4
4,0,-4,-2,4,-2,-19,4,9,29,19,0
4,4,0,-4,2,2,-19,4,9,29,19,0
4,4,0,-4,2,2,-19,4,4,29,24,0
0,0,0,0,0,0,-19,0,0,29,19,0
0,4,4,-2,-2,4,-19,-4,-4,24,14,0
0,9,9,-4,-4,9,-24,-9,-9,19,9,0
0,9,9,-4,-4,9,-24,-9,-4,19,9,0
0,9,9,-4,-4,9,-29,-9,0,19,9,0
0,9,9,-4,-4,9,-29,-9,0,19,9,0
0,9,9,-4,-4,9,-29,-9,0,19,9,0
0,9,9,-4,-4,9,-29,-9,-4,19,9,0
0,14,14,-7,-7,14,-24,-4,0,19,4,4
4,19,14,-12,-4,17,-19,0,4,24,4,9
9,39,29,-24,-9,34,-4,14,14,34,9,14
14,68,53,-41,-19,61,4,29,29,43,39,24
14,82,68,-48,-26,75,14,39,43,58,53,34
19,92,73,-56,-26,82,24,43,53,73,53,39
24,102,78,-63,-26,90,24,48,53,78,63,48
29,122,92,-75,-31,107,24,53,63,87,68,48
34,146,112,-90,-39,129,24,53,73,92,73,53
34,141,107,-87,-36,124,14,53,73,92,78,58
43,151,107,-97,-31,129,-4,39,63,92,82,58
48,175,126,-112,-39,151,-34,24,58,92,87,68
53,195,141,-124,-43,168,-48,19,58,92,92,73
73,224,151,-148,-39,187,-58,24,68,107,107,87
102,248,146,-175,-21,197,-78,29,82,117,122,112
117,268,151,-192,-17,209,-87,24,82,117,131,117
126,258,131,-192,-2,195,-97,24,73,117,131,117
126,244,117,-185,4,180,-102,19,68,112,131,122
112,214,102,-163,4,158,-112,4,48,102,126,117
107,190,82,-148,12,136,-112,-4,34,82,112,112
102,165,63,-134,19,114,-107,-14,24,73,102,97
97,141,43,-119,26,92,-102,-14,24,63,92,82
58,117,58,-87,0,87,-82,-4,24,63,82,73
34,82,48,-58,-7,65,-58,4,24,58,73,58
19,39,19,-29,0,29,-53,-9,0,29,39,24
9,29,19,-19,-4,24,-53,-14,-9,24,29,14
4,9,4,-7,0,7,-53,-34,-29,4,9,-4
4,-4,-9,0,7,-7,-53,-34,-34,0,4,-9
0,-19,-19,9,9,-19,-53,-34,-34,0,4,-14
-4,-29,-24,17,9,-26,-48,-34,-34,0,4,-14
-4,-34,-29,19,12,-31,-43,-34,-34,0,4,-19
-4,-34,-29,19,12,-31,-39,-29,-34,0,4,-19
-9,-34,-24,21,7,-29,-39,-24,-29,0,4,-14
-9,-34,-24,21,7,-29,-34,-19,-24,4,4,-14
-9,-34,-24,21,7,-29,-29,-19,-19,9,14,-4
-9,-34,-24,21,7,-29,-29,-9,-9,19,14,-4
-9,-34,-24,21,7,-29,-29,0,-4,19,14,-4
-14,-34,-19,24,2,-26,-19,14,-9,19,4,-24
-29,-63,-34,46,2,-48,4,29,-14,4,-39,-53
-53,-87,-34,70,-9,-61,34,68,24,0,-53,-87
-102,-126,-24,114,-39,-75,63,58,29,-14,-78,-107
-126,-180,-53,153,-36,-117,63,73,39,-9,-92,-151
-102,-126,-24,114,-39,-75,4,112,229,185,48,-63
34,-68,-102,17,68,-85,-219,87,478,527,326,131
175,29,-146,-102,161,-58,-536,-102,556,727,527,317
331,263,-68,-297,200,97,-888,-287,527,775,653,502
317,414,97,-366,109,256,-1117,-951,-224,141,400,463
229,107,-122,-168,175,-7,-1234,-2210,-1873,-1249,-444,68
200,-287,-488,43,344,-387,-1234,-2806,-2771,-2122,-1063,-287
170,-463,-634,146,402,-549,-1273,-2981,-2903,-2259,-1195,-370
68,-653,-722,292,395,-688,-1166,-2913,-2845,-2239,-1259,-453
-126,-766,-639,446,256,-702,-824,-2381,-2337,-1869,-1107,-483
-283,-756,-473,519,95,-614,-551,-1869,-1844,-1503,-946,-483
-341,-707,-366,524,12,-536,-395,-1390,-1385,-1166,-805,-473
-361,-595,-234,478,-63,-414,-263,-976,-951,-805,-605,-419
-268,-434,-165,351,-51,-300,-204,-663,-644,-541,-414,-312
-175,-312,-136,244,-19,-224,-131,-385,-405,-346,-283,-214
-112,-214,-102,163,-4,-158,-9,-131,-200,-185,-185,-146
-73,-151,-78,112,2,-114,43,0,-78,-73,-92,-97
-53,-117,-63,85,4,-90,53,29,-43,-39,-63,-78
-34,-107,-73,70,19,-90,53,68,-24,-34,-58,-73
-34,-107,-73,70,19,-90,63,102,4,-24,-58,-73
-34,-102,-68,68,17,-85,63,112,29,0,-43,-68
-29,-87,-58,58,14,-73,68,117,34,14,-29,-63
-19,-87,-68,53,24,-78,68,131,39,19,-19,-58
-14,-87,-73,51,29,-80,68,146,48,19,-19,-58
-9,-87,-78,48,34,-82,73,156,63,34,-19,-58
-9,-82,-73,46,31,-78,73,156,73,43,-14,-58
-4,-82,-78,43,36,-80,73,165,73,48,-9,-58
-4,-82,-78,43,36,-80,73,180,82,48,-9,-58
0,-87,-87,43,43,-87,78,190,87,53,-9,-58
0,-87,-87,43,43,-87,87,204,92,58,-9,-58
0,-87,-87,43,43,-87,92,204,92,58,-14,-58
0,-92,-92,46,46,-92,97,204,92,58,-19,-58
-4,-92,-87,48,41,-90,97,209,97,63,-19,-58
-4,-87,-82,46,39,-85,102,219,107,68,-19,-58
-4,-87,-82,46,39,-85,107,224,117,68,-19,-58
-4,-92,-87,48,41,-90,112,244,122,68,-14,-58
0,-97,-97,48,48,-97,112,258,131,73,-14,-58
4,-97,-102,46,53,-100,117,263,141,78,-9,-58
14,-92,-107,39,61,-100,117,273,146,78,-9,-58
14,-87,-102,36,58,-95,122,283,156,82,-4,-53
14,-87,-102,36,58,-95,122,287,156,82,-4,-48
9,-78,-87,34,48,-82,126,292,156,87,-4,-48
4,-73,-78,34,41,-75,131,302,161,87,-4,-48
9,-68,-78,29,43,-73,131,312,165,97,4,-43
9,-68,-78,29,43,-73,136,317,175,97,9,-39
14,-58,-73,21,43,-65,146,326,180,102,14,-39
14,-53,-68,19,41,-61,151,326,185,102,14,-39
14,-48,-63,17,39,-56,156,331,195,107,14,-39
14,-48,-63,17,39,-56,161,336,200,107,14,-39
9,-39,-48,14,29,-43,170,351,204,112,24,-34
4,-34,-39,14,21,-36,175,356,209,112,24,-34
4,-29,-34,12,19,-31,180,361,204,117,19,-34
0,-24,-24,12,12,-24,185,370,204,117,19,-34
-4,-14,-9,9,2,-12,200,375,214,117,24,-34
-9,-4,4,7,-7,0,209,380,219,122,24,-34
-14,-4,9,9,-12,2,224,385,219,122,24,-29
-19,4,24,7,-21,14,239,385,219,122,24,-29
-19,9,29,4,-24,19,248,385,219,122,24,-29
-34,24,58,4,-46,41,258,380,219,117,24,-24
-39,34,73,2,-56,53,263,380,214,117,19,-19
-43,39,82,2,-63,61,273,375,214,112,19,-19
-53,48,102,2,-78,75,278,370,209,112,19,-19
-53,58,112,-2,-82,85,278,361,200,107,19,-14
-63,73,136,-4,-100,104,283,351,195,107,24,-9
-73,78,151,-2,-112,114,283,341,195,102,24,-9
-78,92,170,-7,-124,131,287,331,190,102,29,0
-87,102,190,-7,-139,146,292,322,180,102,34,9
-92,112,204,-9,-148,158,278,302,175,102,34,9
-97,126,224,-14,-161,175,273,283,170,102,39,19
-107,141,248,-17,-178,195,263,268,170,107,43,29
-107,151,258,-21,-183,204,253,248,170,107,53,39
-107,165,273,-29,-190,219,244,234,170,112,68,48
-107,175,283,-34,-195,229,224,209,175,117,73,58
-107,180,287,-36,-197,234,204,190,175,126,87,78
-107,185,292,-39,-200,239,190,170,175,136,97,87
-107,190,297,-41,-202,244,170,151,175,141,112,92
-97,190,287,-46,-192,239,151,131,170,146,122,102
-87,185,273,-48,-180,229,131,117,165,151,122,102
-73,185,258,-56,-165,222,112,97,156,151,126,102
-68,170,239,-51,-153,204,92,82,146,151,126,102
-58,170,229,-56,-143,200,78,68,136,146,126,102
-53,161,214,-53,-134,187,58,58,126,146,126,102
-48,151,200,-51,-124,175,43,53,122,141,122,102
-43,136,180,-46,-112,158,34,43,112,131,117,97
-34,131,165,-48,-100,148,24,39,102,126,117,97
-34,122,156,-43,-95,139,19,34,87,122,112,92
-24,107,131,-41,-78,119,14,34,78,117,107,82
-19,97,117,-39,-68,107,0,34,78,107,97,73
-14,87,102,-36,-58,95,-4,29,73,97,92,68
-9,82,92,-36,-51,87,-4,24,63,87,82,63
-4,73,78,-34,-41,75,-9,19,63,82,82,58
0,58,58,-29,-29,58,-9,19,53,82,78,58
4,48,43,-26,-19,46,-9,19,43,78,68,53
4,43,39,-24,-17,41,-9,19,43,78,68,53
4,39,34,-21,-14,36,-9,24,43,73,63,39
4,34,29,-19,-12,31,-9,19,39,63,53,39
4,34,29,-19,-12,31,-9,14,39,58,43,39
9,29,19,-19,-4,24,-4,19,39,53,43,29
9,24,14,-17,-2,19,0,19,34,53,43,29
9,24,14,-17,-2,19,0,24,34,48,39,24
9,24,14,-17,-2,19,0,29,34,48,39,24
9,24,14,-17,-2,19,-4,29,34,48,39,24
9,19,9,-14,0,14,-4,29,39,48,34,19
9,19,9,-14,0,14,-4,34,34,48,34,19
4,19,14,-12,-4,17,-4,34,29,48,34,19
4,14,9,-9,-2,12,-4,34,29,48,34,14
4,14,9,-9,-2,12,-4,34,34,48,34,14
4,14,9,-9,-2,12,-4,34,39,48,34,9
4,14,9,-9,-2,12,-4,34,43,48,29,9
4,14,9,-9,-2,12,-4,34,39,48,29,14
4,14,9,-9,-2,12,-9,34,39,43,24,14
4,14,9,-9,-2,12,-9,29,39,39,24,14
0,14,14,-7,-7,14,-9,29,39,39,24,4
0,14,14,-7,-7,14,-9,24,34,43,19,4
0,14,14,-7,-7,14,-9,24,34,43,19,4
0,14,14,-7,-7,14,-9,24,34,43,19,0
0,14,14,-7,-7,14,-9,24,34,39,19,0
0,14,14,-7,-7,14,-14,24,34,43,19,0
0,9,9,-4,-4,9,-14,19,24,48,19,0
0,9,9,-4,-4,9,-14,19,24,43,19,4
0,9,9,-4,-4,9,-14,14,24,43,19,4
0,9,9,-4,-4,9,-14,14,24,39,19,4
0,4,4,-2,-2,4,-14,14,19,39,19,4
0,4,4,-2,-2,4,-19,9,14,34,24,4
0,4,4,-2,-2,4,-19,9,14,34,24,9
0,4,4,-2,-2,4,-19,4,9,29,24,9
0,9,9,-4,-4,9,-24,4,9,29,19,9
0,9,9,-4,-4,9,-24,4,9,24,14,4
0,4,4,-2,-2,4,-24,0,4,19,9,0
0,9,9,-4,-4,9,-24,0,4,19,9,-4
0,9,9,-4,-4,9,-24,0,4,19,9,-4
0,9,9,-4,-4,9,-24,-4,4,19,14,-4
0,9,9,-4,-4,9,-29,-4,4,19,14,-4
4,9,4,-7,0,7,-29,-9,0,19,9,-9
4,14,9,-9,-2,12,-29,-14,0,19,9,-9
4,14,9,-9,-2,12,-29,-14,0,19,9,-9
9,19,9,-14,0,14,-34,-19,-4,19,9,-9
9,19,9,-14,0,14,-29,-14,0,19,9,-4
9,19,9,-14,0,14,-29,-9,0,19,9,0
9,19,9,-14,0,14,-29,-9,0,24,14,0
9,19,9,-14,0,14,-29,-9,0,29,19,0
4,19,14,-12,-4,17,-29,-9,0,29,19,0
4,24,19,-14,-7,21,-24,-4,4,34,19,9
4,29,24,-17,-9,26,-19,0,14,39,24,19
9,48,39,-29,-14,43,-4,14,24,53,39,34
19,73,53,-46,-17,63,4,29,39,58,58,43
24,82,58,-53,-17,70,14,39,53,68,63,53
29,92,63,-61,-17,78,24,43,63,78,63,53
34,102,68,-68,-17,85,24,48,63,78,73,58
39,112,73,-75,-17,92,24,53,73,87,78,58
43,126,82,-85,-19,104,24,53,82,92,82,63
43,136,92,-90,-24,114,9,53,82,92,87,73
53,161,107,-107,-26,134,-14,39,73,92,92,78
68,190,122,-129,-26,156,-43,24,68,97,102,87
82,214,131,-148,-24,173,-58,19,68,102,112,92
97,244,146,-170,-24,195,-68,19,78,117,126,107
122,268,146,-195,-12,207,-87,19,92,126,141,131
131,283,151,-207,-9,217,-97,14,92,126,146,136
136,268,131,-202,2,200,-107,14,82,126,141,136
136,248,112,-192,12,180,-107,14,78,117,131,131
122,214,92,-168,14,153,-112,4,58,102,117,117
112,190,78,-151,17,134,-112,-4,43,82,102,107
102,165,63,-134,19,114,-107,-14,34,73,92,87
92,136,43,-114,24,90,-102,-14,34,63,82,73
48,107,58,-78,-4,82,-82,-4,34,63,73,63
29,73,43,-51,-7,58,-58,4,29,58,63,53
19,29,9,-24,4,19,-53,-9,0,29,29,24
9,19,9,-14,0,14,-53,-9,-4,24,19,14
4,0,-4,-2,4,-2,-53,-24,-19,4,0,-4
4,-9,-14,2,9,-12,-53,-29,-24,0,-4,-9
0,-19,-19,9,9,-19,-53,-34,-24,0,-4,-14
-4,-24,-19,14,7,-21,-48,-34,-24,0,-4,-14
-4,-24,-19,14,7,-21,-43,-34,-24,0,-4,-19
-4,-24,-19,14,7,-21,-39,-29,-19,0,0,-19
-9,-24,-14,17,2,-19,-39,-24,-9,0,4,-14
-9,-29,-19,19,4,-24,-34,-19,-4,4,4,-14
-9,-34,-24,21,7,-29,-29,-19,0,9,14,-4
-9,-34,-24,21,7,-29,-29,-14,4,19,9,-4
-9,-34,-24,21,7,-29,-29,-9,4,19,4,-4
-19,-34,-14,26,-2,-24,-19,4,4,14,0,-24
-39,-63,-24,51,-7,-43,4,19,4,-4,-39,-53
-68,-87,-19,78,-24,-53,34,58,34,-4,-53,-87
-122,-126,-4,124,-58,-65,63,48,29,-14,-78,-107
-122,-156,-34,139,-43,-95,24,87,82,29,-53,-117
-73,-78,-4,75,-34,-41,-73,151,317,263,126,4
82,-4,-87,-39,85,-46,-322,97,497,527,346,170
244,107,-136,-175,190,-14,-663,-122,507,649,488,326
370,268,-102,-319,236,82,-990,-473,292,546,512,434
326,346,19,-336,153,183,-1195,-1302,-644,-239,156,317
239,29,-209,-134,224,-90,-1298,-2440,-2098,-1454,-595,-39
209,-375,-585,82,397,-480,-1283,-2913,-2801,-2152,-1122,-356
146,-527,-673,190,409,-600,-1268,-2991,-2825,-2196,-1190,-414
9,-692,-702,341,356,-697,-1107,-2825,-2659,-2083,-1190,-473
-175,-771,-595,473,209,-683,-771,-2259,-2142,-1712,-1034,-483
-322,-727,-405,524,41,-566,-502,-1712,-1639,-1346,-868,-463
-351,-673,-322,512,-14,-497,-361,-1263,-1215,-1029,-727,-448
-341,-556,-214,448,-63,-385,-244,-878,-814,-688,-527,-390
-248,-395,-146,322,-51,-270,-180,-585,-536,-458,-356,-283
-156,-273,-117,214,-19,-195,-102,-326,-326,-297,-244,-185
-102,-190,-87,146,-7,-139,9,-102,-141,-151,-156,-131
-73,-141,-68,107,-2,-104,53,0,-39,-53,-73,-97
-53,-112,-58,82,2,-85,63,29,-14,-24,-48,-78
-34,-107,-73,70,19,-90,63,68,-4,-24,-48,-73
-34,-107,-73,70,19,-90,73,102,24,-19,-53,-73
-34,-102,-68,68,17,-85,73,112,48,0,-43,-68
-29,-87,-58,58,14,-73,78,117,53,14,-34,-63
-19,-87,-68,53,24,-78,78,131,58,19,-29,-58
-19,-87,-68,53,24,-78,78,146,68,19,-29,-58
-19,-87,-68,53,24,-78,82,156,82,34,-29,-58
-19,-82,-63,51,21,-73,82,156,87,39,-24,-58
-14,-82,-68,48,26,-75,82,165,82,39,-19,-58
-14,-82,-68,48,26,-75,82,175,92,39,-14,-58
-9,-87,-78,48,34,-82,87,180,97,43,-9,-58
-9,-87,-78,48,34,-82,97,200,107,48,-9,-58
-9,-87,-78,48,34,-82,102,204,112,48,-14,-58
-4,-92,-87,48,41,-90,107,209,112,53,-24,-63
-4,-92,-87,48,41,-90,107,219,117,63,-29,-68
-4,-92,-87,48,41,-90,112,229,126,68,-24,-68
-4,-97,-92,51,43,-95,117,234,136,68,-19,-68
-4,-97,-92,51,43,-95,122,248,136,68,-9,-63
0,-97,-97,48,48,-97,122,258,141,73,-4,-58
0,-92,-92,46,46,-92,122,263,151,78,0,-58
4,-82,-87,39,46,-85,117,273,156,78,0,-58
4,-78,-82,36,43,-80,122,283,165,82,4,-58
4,-78,-82,36,43,-80,122,287,165,82,4,-58
4,-68,-73,31,39,-70,126,292,165,87,4,-58
4,-63,-68,29,36,-65,131,302,170,87,4,-58
9,-58,-68,24,39,-63,131,312,175,97,9,-58
9,-58,-68,24,39,-63,136,317,185,97,9,-58
14,-48,-63,17,39,-56,146,331,190,102,9,-58
14,-43,-58,14,36,-51,151,336,195,102,4,-58
14,-39,-53,12,34,-46,156,341,200,107,4,-58
14,-39,-53,12,34,-46,161,346,200,107,4,-58
14,-29,-43,7,29,-36,170,361,204,112,14,-53
14,-24,-39,4,26,-31,175,366,209,112,14,-53
14,-19,-34,2,24,-26,185,370,209,117,14,-48
9,-14,-24,2,17,-19,195,380,214,117,19,-43
4,-9,-14,2,9,-12,209,385,224,117,24,-39
0,-4,-4,2,2,-4,219,390,229,122,24,-34
-4,-4,0,4,-2,-2,229,395,234,122,24,-29
-9,4,14,2,-12,9,239,395,239,122,24,-29
-9,9,19,0,-14,14,248,400,239,122,24,-29
-24,24,48,0,-36,36,258,400,239,117,24,-24
-34,34,68,0,-51,51,263,400,234,122,24,-14
-43,39,82,2,-63,61,273,395,234,122,29,-9
-53,48,102,2,-78,75,283,395,234,126,29,-9
-53,58,112,-2,-82,85,287,390,229,126,29,-4
-58,78,136,-9,-97,107,292,380,224,122,34,-4
-63,87,151,-12,-107,119,292,370,224,112,34,-9
-68,102,170,-17,-119,136,292,356,224,112,34,-4
-78,112,190,-17,-134,151,292,341,219,112,34,0
-82,126,209,-21,-146,168,278,326,214,112,34,4
-87,146,234,-29,-161,190,273,312,209,112,39,19
-97,156,253,-29,-175,204,263,297,209,117,48,34
-97,161,258,-31,-178,209,253,278,209,117,63,48
-97,175,273,-39,-185,224,244,258,204,122,78,58
-97,185,283,-43,-190,234,224,229,204,126,82,68
-97,190,287,-46,-192,239,204,209,204,136,97,82
-97,195,292,-48,-195,244,190,190,204,146,107,87
-97,200,297,-51,-197,248,170,170,209,151,122,92
-87,200,287,-56,-187,244,151,151,209,156,131,102
-82,195,278,-56,-180,236,131,136,204,161,131,102
-73,195,268,-61,-170,231,112,117,195,161,136,102
-63,180,244,-58,-153,212,87,97,175,156,131,97
-48,180,229,-65,-139,204,68,78,156,146,126,92
-43,170,214,-63,-129,192,53,68,146,146,126,92
-39,161,200,-61,-119,180,43,63,141,141,122,92
-34,146,180,-56,-107,163,34,53,131,131,117,87
-24,141,165,-58,-95,153,24,48,122,126,117,87
-24,131,156,-53,-90,143,19,39,107,122,112,82
-14,117,131,-51,-73,124,14,34,97,117,107,73
-14,107,122,-46,-68,114,4,34,92,107,92,58
-14,97,112,-41,-63,104,4,29,82,97,82,48
-9,92,102,-41,-56,97,4,29,73,82,73,48
-4,82,87,-39,-46,85,0,29,73,73,73,48
0,73,73,-36,-36,73,-4,29,68,73,68,53
4,68,63,-36,-29,65,-9,29,63,68,58,53
4,63,58,-34,-26,61,-9,29,63,68,58,53
4,58,53,-31,-24,56,-9,34,63,63,53,39
4,48,43,-26,-19,46,-4,34,58,58,48,39
4,43,39,-24,-17,41,0,34,58,58,43,39
9,39,29,-24,-9,34,0,34,58,53,43,29
9,34,24,-21,-7,29,0,29,53,53,43,29
9,34,24,-21,-7,29,0,29,53,48,39,24
9,34,24,-21,-7,29,0,29,53,48,39,24
9,34,24,-21,-7,29,0,29,53,48,39,24
9,29,19,-19,-4,24,4,29,58,48,34,19
9,29,19,-19,-4,24,4,34,58,48,34,14
4,29,24,-17,-9,26,4,34,58,48,34,9
4,24,19,-14,-7,21,4,34,58,48,29,4
4,24,19,-14,-7,21,4,34,63,48,24,4
4,24,19,-14,-7,21,0,34,63,48,24,-4
4,24,19,-14,-7,21,-4,34,63,48,19,-9
4,29,24,-17,-9,26,-4,34,58,48,24,-4
4,34,29,-19,-12,31,-9,34,58,43,24,-4
4,34,29,-19,-12,31,-9,29,58,39,24,4
0,34,34,-17,-17,34,-9,29,58,39,24,4
0,29,29,-14,-14,29,-9,24,53,43,19,4
0,24,24,-12,-12,24,-9,24,53,43,19,4
0,24,24,-12,-12,24,-9,24,53,43,19,0
0,24,24,-12,-12,24,-9,24,53,39,19,0
0,24,24,-12,-12,24,-14,24,53,39,14,0
0,19,19,-9,-9,19,-14,19,43,39,9,0
0,19,19,-9,-9,19,-14,19,43,34,9,0
0,19,19,-9,-9,19,-14,14,43,34,9,-4
0,19,19,-9,-9,19,-14,14,48,34,9,0
0,14,14,-7,-7,14,-14,14,48,39,9,4
0,19,19,-9,-9,19,-19,9,43,34,19,0
0,24,24,-12,-12,24,-19,9,43,34,24,0
0,24,24,-12,-12,24,-19,4,34,24,24,0
0,29,29,-14,-14,29,-24,4,29,19,19,0
0,29,29,-14,-14,29,-24,4,29,19,19,-4
0,24,24,-12,-12,24,-24,0,24,19,19,-9
0,19,19,-9,-9,19,-19,0,19,19,19,-9
0,9,9,-4,-4,9,-14,0,14,19,19,-4
0,9,9,-4,-4,9,-14,0,14,19,19,-4
0,9,9,-4,-4,9,-19,4,14,19,14,-4
4,9,4,-7,0,7,-19,4,14,19,9,-9
4,14,9,-9,-2,12,-19,4,19,19,9,-9
4,14,9,-9,-2,12,-19,4,19,19,14,-4
0,9,9,-4,-4,9,-19,0,19,19,9,0
0,9,9,-4,-4,9,-19,0,24,24,9,0
0,9,9,-4,-4,9,-19,0,29,29,9,0
0,9,9,-4,-4,9,-19,0,29,29,9,0
0,9,9,-4,-4,9,-19,0,29,29,9,0
0,9,9,-4,-4,9,-19,0,29,29,9,0
4,9,4,-7,0,7,-14,0,29,29,9,0
9,9,0,-9,4,4,-14,0,34,34,14,0
14,19,4,-17,4,12,0,9,43,39,24,14
19,39,19,-29,0,29,14,24,53,53,39,24
24,68,43,-46,-9,56,24,39,68,63,58,34
24,78,53,-51,-14,65,34,48,82,78,63,43
29,82,53,-56,-12,68,43,53,92,87,63,43
34,92,58,-63,-12,75,39,58,87,82,68,48
39,102,63,-70,-12,82,34,63,92,87,68,48
43,122,78,-82,-17,100,29,63,102,92,73,53
43,136,92,-90,-24,114,14,63,102,92,78,63
53,161,107,-107,-26,134,-4,48,92,97,92,78
58,185,126,-122,-34,156,-34,34,87,102,107,97
73,204,131,-139,-29,168,-48,29,92,102,112,102
97,234,136,-165,-19,185,-58,29,102,117,126,117
112,248,136,-180,-12,192,-78,29,112,122,136,131
117,258,141,-187,-12,200,-87,24,112,117,141,126
126,248,122,-187,2,185,-97,24,102,117,136,126
126,229,102,-178,12,165,-102,19,97,112,126,126
112,195,82,-153,14,139,-107,4,78,102,112,107
107,170,63,-139,21,117,-102,-4,63,82,92,92
92,146,53,-119,19,100,-92,-14,53,73,82,78
78,117,39,-97,19,78,-82,-14,53,63,73,63
39,87,48,-63,-4,68,-63,-4,48,63,63,58
19,53,34,-36,-7,43,-39,4,43,58,53,48
9,9,0,-9,4,4,-34,-9,19,29,29,19
0,0,0,0,0,0,-34,-9,14,24,29,14
-4,-19,-14,12,4,-17,-39,-24,0,4,9,-4
-4,-29,-24,17,9,-26,-43,-24,-4,0,4,-9
-4,-39,-34,21,14,-36,-43,-24,0,0,4,-14
-4,-43,-39,24,17,-41,-39,-24,4,0,4,-14
-4,-43,-39,24,17,-41,-34,-24,4,4,4,-19
-4,-43,-39,24,17,-41,-29,-19,4,9,4,-19
-9,-39,-29,24,9,-34,-29,-9,9,9,4,-14
-9,-39,-29,24,9,-34,-24,0,14,14,4,-14
-9,-43,-34,26,12,-39,-14,0,19,19,14,-9
-9,-43,-34,26,12,-39,-9,9,29,29,14,-14
-14,-43,-29,29,7,-36,-9,19,34,29,4,-14
-24,-53,-29,39,2,-41,0,34,39,29,-9,-34
-39,-92,-53,65,7,-73,24,48,48,19,-39,-58
-63,-117,-53,90,-4,-85,48,87,92,34,-39,-82
-112,-156,-43,134,-34,-100,63,97,126,63,-39,-82
-112,-180,-68,146,-21,-124,14,117,200,151,19,-68
-48,-107,-58,78,4,-82,-92,102,370,346,185,53
102,-39,-141,-31,122,-90,-351,-43,468,556,390,229
229,68,-161,-148,195,-46,-673,-390,322,551,463,356
326,219,-107,-273,217,56,-951,-785,-73,244,361,405
263,283,19,-273,122,151,-1112,-1586,-995,-556,-14,278
170,-39,-209,-65,190,-124,-1180,-2630,-2327,-1693,-746,-78
136,-395,-531,129,334,-463,-1137,-2918,-2859,-2264,-1205,-370
78,-507,-585,214,331,-546,-1102,-2879,-2742,-2181,-1200,-414
-58,-668,-610,363,275,-639,-912,-2635,-2518,-2025,-1176,-453
-229,-751,-522,490,146,-636,-590,-2039,-1976,-1625,-1000,-453
-341,-717,-375,529,17,-546,-375,-1551,-1522,-1288,-854,-463
-361,-668,-307,514,-26,-488,-268,-1161,-1137,-995,-727,-458
-346,-566,-219,456,-63,-392,-200,-829,-780,-688,-551,-405
-248,-414,-165,331,-41,-290,-175,-566,-541,-488,-395,-302
-151,-292,-141,222,-4,-217,-102,-317,-326,-317,-273,-204
-97,-204,-107,151,4,-156,4,-107,-141,-170,-180,-146
-73,-156,-82,114,4,-119,48,0,-39,-73,-92,-107
-53,-131,-78,92,12,-104,63,39,-9,-39,-68,-87
-34,-126,-92,80,29,-109,63,78,4,-29,-63,-82
-34,-126,-92,80,29,-109,73,112,34,-14,-58,-82
-34,-122,-87,78,26,-104,73,122,63,9,-39,-73
-29,-107,-78,68,24,-92,78,126,73,24,-24,-63
-14,-107,-92,61,39,-100,78,141,78,29,-19,-53
-9,-107,-97,58,43,-102,78,156,87,29,-19,-48
-9,-107,-97,58,43,-102,82,165,102,43,-19,-48
-9,-102,-92,56,41,-97,82,165,112,48,-14,-48
-4,-102,-97,53,46,-100,82,175,112,48,-14,-48
-4,-102,-97,53,46,-100,82,185,122,48,-19,-48
0,-102,-102,51,51,-102,87,190,122,48,-19,-53
0,-97,-97,48,48,-97,92,204,122,48,-19,-58
0,-97,-97,48,48,-97,92,204,122,48,-24,-58
4,-102,-107,48,56,-104,97,209,122,48,-29,-58
4,-102,-107,48,56,-104,92,219,126,58,-29,-63
4,-97,-102,46,53,-100,92,229,136,68,-24,-68
4,-97,-102,46,53,-100,97,234,146,68,-19,-68
4,-97,-102,46,53,-100,102,248,146,68,-14,-68
9,-97,-107,43,58,-102,102,258,151,73,-14,-68
9,-97,-107,43,58,-102,107,263,161,78,-9,-68
14,-92,-107,39,61,-100,107,273,165,78,-4,-63
14,-87,-102,36,58,-95,112,283,175,82,4,-58
14,-87,-102,36,58,-95,112,287,175,82,4,-58
14,-82,-97,34,56,-90,117,292,175,87,4,-58
14,-82,-97,34,56,-90,122,297,180,82,4,-58
19,-78,-97,29,58,-87,122,302,185,87,9,-53
24,-78,-102,26,63,-90,126,307,190,87,9,-48
29,-68,-97,19,63,-82,136,322,190,92,9,-48
24,-63,-87,19,56,-75,141,326,195,92,4,-48
24,-58,-82,17,53,-70,146,331,200,97,4,-48
24,-63,-87,19,56,-75,146,336,204,97,4,-48
24,-53,-78,14,51,-65,151,351,214,102,14,-43
24,-43,-68,9,46,-56,156,351,219,102,14,-43
24,-39,-63,7,43,-51,161,351,219,107,14,-39
19,-29,-48,4,34,-39,165,361,224,107,14,-34
14,-19,-34,2,24,-26,180,366,234,107,14,-34
9,-14,-24,2,17,-19,190,375,239,112,14,-29
4,-14,-19,4,12,-17,200,385,239,112,14,-19
0,-9,-9,4,4,-9,209,385,239,112,14,-19
0,-9,-9,4,4,-9,219,390,239,112,14,-24
-14,4,19,4,-17,12,229,390,234,107,14,-24
-19,14,34,2,-26,24,234,390,224,107,9,-19
-24,19,43,2,-34,31,244,385,224,102,9,-19
-34,29,63,2,-48,46,248,380,219,102,9,-19
-39,39,78,0,-58,58,248,370,214,97,9,-14
-48,53,102,-2,-75,78,253,361,214,92,14,-9
-53,58,112,-2,-82,85,253,351,214,87,19,-4
-58,73,131,-7,-95,102,253,336,209,92,29,9
-68,82,151,-7,-109,117,253,322,200,92,34,19
-73,97,170,-12,-122,134,239,302,195,92,34,24
-78,122,200,-21,-139,161,234,283,190,92,39,34
-87,141,229,-26,-158,185,224,263,185,97,43,39
-87,151,239,-31,-163,195,214,239,180,97,53,48
-87,165,253,-39,-170,209,204,219,175,102,68,58
-87,175,263,-43,-175,219,185,190,180,107,68,63
-87,180,268,-46,-178,224,165,170,185,117,78,73
-87,180,268,-46,-178,224,156,151,185,126,87,78
-87,180,268,-46,-178,224,141,131,185,131,102,82
-78,180,258,-51,-168,219,122,112,180,141,117,97
-73,175,248,-51,-161,212,102,97,175,151,122,102
-63,175,239,-56,-151,207,87,82,170,151,126,102
-58,161,219,-51,-139,190,73,73,165,151,126,102
-48,161,209,-56,-129,185,63,63,156,146,126,102
-43,151,195,-53,-119,173,53,58,146,146,126,102
-39,141,180,-51,-109,161,43,53,146,141,122,97
-34,122,156,-43,-95,139,34,43,141,131,117,87
-24,117,141,-46,-82,129,24,34,131,126,112,87
-24,112,136,-43,-80,124,19,24,122,122,102,82
-14,97,112,-41,-63,104,14,24,112,117,97,73
-14,87,102,-36,-58,95,4,24,107,107,87,63
-14,78,92,-31,-53,85,4,19,97,97,82,58
-9,73,82,-31,-46,78,4,19,82,87,73,58
-4,68,73,-31,-39,70,0,19,82,82,73,58
0,63,63,-31,-31,63,0,19,78,82,68,58
4,58,53,-31,-24,56,0,19,78,78,68,53
4,53,48,-29,-21,51,0,19,82,78,78,53
4,48,43,-26,-19,46,0,29,82,73,73,39
4,43,39,-24,-17,41,0,34,78,68,68,39
4,43,39,-24,-17,41,4,34,78,68,58,34
9,39,29,-24,-9,34,9,39,78,63,53,19
9,29,19,-19,-4,24,9,39,73,63,48,19
9,24,14,-17,-2,19,9,39,73,58,39,14
9,24,14,-17,-2,19,9,39,73,58,39,14
9,24,14,-17,-2,19,9,39,73,58,39,14
9,19,9,-14,0,14,14,39,78,58,39,14
9,19,9,-14,0,14,14,43,78,58,43,19
4,24,19,-14,-7,21,9,43,78,58,43,19
4,24,19,-14,-7,21,4,43,78,58,43,14
9,24,14,-17,-2,19,4,43,82,58,43,14
14,24,9,-19,2,17,4,43,82,58,43,9
14,24,9,-19,2,17,4,43,82,58,39,9
14,24,9,-19,2,17,4,43,78,58,39,14
9,24,14,-17,-2,19,0,43,78,53,34,14
4,24,19,-14,-7,21,0,39,78,48,34,14
0,19,19,-9,-9,19,0,39,78,48,34,4
0,14,14,-7,-7,14,0,34,73,53,29,4
0,14,14,-7,-7,14,0,34,73,53,24,0
0,14,14,-7,-7,14,0,34,73,53,19,-4
0,14,14,-7,-7,14,4,34,73,48,19,0
0,14,14,-7,-7,14,4,34,73,48,19,0
0,4,4,-2,-2,4,4,29,63,48,19,4
0,0,0,0,0,0,4,29,63,43,19,9
0,0,0,0,0,0,0,24,63,48,19,9
0,0,0,0,0,0,-4,24,63,48,19,14
0,0,0,0,0,0,-4,24,58,48,24,14
0,4,4,-2,-2,4,-9,19,53,43,29,9
0,4,4,-2,-2,4,-9,19,53,43,24,4
0,4,4,-2,-2,4,-9,14,48,39,24,0
0,9,9,-4,-4,9,-14,14,48,39,19,0
0,9,9,-4,-4,9,-14,14,48,39,19,0
0,4,4,-2,-2,4,-14,9,43,34,14,0
0,4,4,-2,-2,4,-14,9,43,29,9,0
0,0,0,0,0,0,-9,9,43,29,9,4
0,0,0,0,0,0,-4,4,43,29,14,4
-4,0,4,2,-4,2,-9,4,43,29,14,4
-4,0,4,2,-4,2,-9,4,39,29,9,0
-4,4,9,0,-7,7,-14,4,39,29,9,0
-4,0,4,2,-4,2,-19,0,39,29,14,0
0,0,0,0,0,0,-14,0,34,29,9,0
0,0,0,0,0,0,-14,0,34,29,9,0
0,0,0,0,0,0,-14,0,29,29,9,0
0,0,0,0,0,0,-19,0,29,29,9,0
0,0,0,0,0,0,-19,0,29,29,9,0
0,0,0,0,0,0,-19,0,29,29,9,0
0,0,0,0,0,0,-19,0,29,24,9,0
0,4,4,-2,-2,4,-9,4,34,24,9,4
4,9,4,-7,0,7,-4,9,43,29,14,14
9,29,19,-19,-4,24,14,24,53,43,29,24
14,58,43,-36,-14,51,24,39,68,53,58,39
14,73,58,-43,-21,65,34,48,82,68,73,53
19,82,63,-51,-21,73,39,53,92,78,73,53
24,92,68,-58,-21,80,34,58,92,78,82,58
29,107,78,-68,-24,92,34,63,102,87,78,53
34,126,92,-80,-29,109,34,63,112,92,73,53
34,136,102,-85,-34,119,24,58,112,92,78,63
43,161,117,-102,-36,139,4,39,102,92,82,68
48,175,126,-112,-39,151,-24,24,97,92,87,78
53,185,131,-119,-39,158,-39,19,97,92,92,82
68,214,146,-141,-39,180,-48,19,102,107,107,92
92,239,146,-165,-26,192,-68,19,112,117,122,112
107,268,161,-187,-26,214,-78,14,112,117,131,117
117,268,151,-192,-17,209,-87,14,102,117,131,117
117,248,131,-183,-7,190,-92,9,97,117,131,122
102,214,112,-158,-4,163,-102,-4,78,112,126,117
97,190,92,-143,2,141,-102,-14,63,92,112,122
92,165,73,-129,9,119,-97,-24,53,82,102,117
87,136,48,-112,19,92,-92,-24,48,68,92,92
48,107,58,-78,-4,82,-73,-14,43,63,82,73
29,68,39,-48,-4,53,-48,-4,43,58,73,58
19,19,0,-19,9,9,-43,-19,19,29,39,24
9,9,0,-9,4,4,-43,-24,14,24,29,14
4,-9,-14,2,9,-12,-43,-43,0,4,9,-4
4,-19,-24,7,14,-21,-43,-43,-4,0,4,-9
0,-29,-29,14,14,-29,-43,-43,-4,0,4,-14
-4,-34,-29,19,12,-31,-39,-43,-4,0,4,-14
-4,-34,-29,19,12,-31,-34,-43,-4,0,4,-19
-4,-34,-29,19,12,-31,-29,-34,-4,0,0,-19
-9,-34,-24,21,7,-29,-29,-24,0,0,-4,-14
-9,-39,-29,24,9,-34,-24,-19,4,4,-4,-14
-9,-43,-34,26,12,-39,-19,-19,9,9,4,-4
-9,-39,-29,24,9,-34,-19,-9,19,19,4,-4
-9,-34,-24,21,7,-29,-19,0,24,19,4,-4
-14,-43,-29,29,7,-36,-9,14,29,19,0,-24
-29,-82,-53,56,12,-68,14,29,34,4,-39,-53
-53,-107,-53,80,0,-80,43,78,82,14,-48,-87
-102,-146,-43,124,-29,-95,73,78,97,14,-68,-107
-112,-185,-73,148,-19,-129,48,78,131,73,-29,-107
-73,-117,-43,95,-14,-80,-34,102,346,322,165,24
63,-39,-102,-12,82,-70,-273,-24,497,585,400,209
204,78,-126,-141,165,-24,-605,-317,478,707,556,385
317,268,-48,-292,183,109,-902,-590,258,561,561,507
258,375,117,-317,70,246,-1078,-1342,-683,-268,185,405
170,92,-78,-131,124,7,-1166,-2400,-2113,-1493,-585,39
141,-278,-419,68,280,-348,-1137,-2796,-2791,-2200,-1132,-287
97,-448,-546,175,322,-497,-1117,-2859,-2806,-2239,-1210,-356
-19,-634,-614,326,297,-624,-951,-2679,-2630,-2122,-1220,-424
-180,-746,-566,463,192,-656,-649,-2147,-2132,-1756,-1078,-463
-302,-736,-434,519,65,-585,-414,-1634,-1649,-1395,-927,-473
-341,-712,-370,527,14,-541,-302,-1244,-1254,-1102,-805,-483
-341,-624,-283,483,-29,-453,-214,-917,-883,-785,-624,-448
-248,-463,-214,356,-17,-339,-180,-624,-600,-536,-434,-331
-156,-341,-185,248,14,-263,-131,-366,-385,-356,-302,-224
-97,-239,-141,168,21,-190,-9,-126,-170,-185,-190,-156
-63,-170,-107,117,21,-139,43,-9,-39,-63,-82,-107
-43,-136,-92,90,24,-114,58,24,-4,-29,-53,-82
-24,-126,-102,75,39,-114,63,68,14,-24,-48,-73
-24,-126,-102,75,39,-114,73,102,43,-14,-48,-73
-24,-122,-97,73,36,-109,73,112,68,9,-34,-68
-19,-107,-87,63,34,-97,78,117,73,24,-24,-68
-9,-107,-97,58,43,-102,78,131,78,29,-19,-68
-9,-102,-92,56,41,-97,73,146,87,24,-24,-68
-9,-97,-87,53,39,-92,73,156,102,34,-29,-68
-9,-92,-82,51,36,-87,73,156,112,39,-24,-68
-4,-92,-87,48,41,-90,73,165,112,39,-19,-68
-4,-92,-87,48,41,-90,73,180,122,43,-24,-68
0,-97,-97,48,48,-97,78,190,126,53,-29,-68
0,-97,-97,48,48,-97,82,204,131,58,-29,-68
0,-97,-97,48,48,-97,82,204,131,58,-34,-68
4,-107,-112,51,58,-109,87,209,131,58,-34,-63
4,-112,-117,53,61,-114,87,219,136,63,-29,-58
4,-107,-112,51,58,-109,92,229,146,68,-24,-58
4,-107,-112,51,58,-109,97,234,156,68,-19,-58
4,-102,-107,48,56,-104,102,248,151,68,-14,-58
9,-97,-107,43,58,-102,102,258,151,73,-14,-58
9,-97,-107,43,58,-102,107,263,161,78,-9,-58
14,-92,-107,39,61,-100,107,273,165,78,-9,-58
14,-87,-102,36,58,-95,112,283,180,82,-9,-58
14,-87,-102,36,58,-95,112,287,185,82,-14,-58
14,-82,-97,34,56,-90,117,292,185,87,-14,-58
14,-82,-97,34,56,-90,122,302,190,87,-14,-58
19,-82,-102,31,61,-92,122,312,195,97,-9,-53
19,-87,-107,34,63,-97,126,317,204,97,-9,-48
19,-87,-107,34,63,-97,136,331,209,102,-9,-48
14,-92,-107,39,61,-100,141,336,214,102,-14,-48
19,-73,-92,26,56,-82,141,341,214,107,-9,-48
24,-58,-82,17,53,-70,141,346,209,107,-4,-48
24,-43,-68,9,46,-56,151,361,214,112,4,-43
24,-34,-58,4,41,-46,156,366,219,112,4,-43
24,-34,-58,4,41,-46,165,370,219,117,4,-39
19,-34,-53,7,36,-43,175,380,224,117,9,-34
14,-29,-43,7,29,-36,190,390,234,117,14,-34
9,-24,-34,7,21,-29,200,400,239,122,14,-34
4,-24,-29,9,17,-26,204,409,239,122,14,-24
0,-14,-14,7,7,-14,209,414,239,122,14,-19
0,-9,-9,4,4,-9,219,419,239,122,14,-24
-14,4,19,4,-17,12,229,419,239,117,14,-24
-19,14,34,2,-26,24,234,419,234,112,4,-24
-24,19,43,2,-34,31,244,414,234,102,0,-29
-34,29,63,2,-48,46,248,405,224,97,-4,-39
-34,39,73,-2,-53,56,248,390,209,87,-9,-43
-43,53,97,-4,-70,75,253,380,204,82,-4,-39
-53,58,112,-2,-82,85,253,370,204,73,-4,-39
-58,73,131,-7,-95,102,253,356,200,73,0,-24
-68,82,151,-7,-109,117,253,341,190,73,4,-9
-68,92,161,-12,-114,126,239,326,185,78,14,0
-68,107,175,-19,-122,141,234,312,180,82,29,19
-78,117,195,-19,-136,156,224,297,180,87,34,29
-78,122,200,-21,-139,161,214,278,180,87,43,39
-78,136,214,-29,-146,175,204,258,175,92,53,48
-78,146,224,-34,-151,185,185,229,175,97,53,58
-82,161,244,-39,-163,202,165,200,170,102,68,68
-87,175,263,-43,-175,219,151,170,165,107,78,68
-87,180,268,-46,-178,224,136,151,165,112,87,73
-78,180,258,-51,-168,219,122,131,161,117,92,82
-73,175,248,-51,-161,212,102,117,161,122,92,82
-63,175,239,-56,-151,207,82,97,156,122,97,82
-58,161,219,-51,-139,190,63,82,146,122,97,82
-48,161,209,-56,-129,185,48,68,136,117,97,82
-43,151,195,-53,-119,173,39,58,126,126,107,82
-39,141,180,-51,-109,161,34,53,122,131,112,82
-34,117,151,-41,-92,134,29,48,117,126,112,87
-24,102,126,-39,-75,114,24,48,112,126,117,97
-24,92,117,-34,-70,104,19,43,102,122,112,92
-14,78,92,-31,-53,85,14,43,97,117,107,82
-14,73,87,-29,-51,80,4,43,92,102,97,73
-14,68,82,-26,-48,75,4,39,82,87,92,68
-9,73,82,-31,-46,78,4,39,73,78,78,58
-4,73,78,-34,-41,75,0,39,73,73,73,48
0,63,63,-31,-31,63,0,39,68,73,68,48
4,58,53,-31,-24,56,0,39,63,68,58,43
4,48,43,-26,-19,46,0,39,63,68,53,43
4,39,34,-21,-14,36,0,43,63,63,43,29
4,19,14,-12,-4,17,0,48,63,58,39,29
4,4,0,-4,2,2,0,53,68,58,34,29
9,9,0,-9,4,4,0,58,68,58,43,29
9,14,4,-12,2,9,0,58,63,63,53,39
9,14,4,-12,2,9,4,58,63,58,48,34
9,14,4,-12,2,9,9,58,63,58,48,34
14,14,0,-14,7,7,9,63,63,58,48,34
19,9,-9,-14,14,0,14,68,68,58,43,29
19,9,-9,-14,14,0,14,73,68,58,43,29
14,9,-4,-12,9,2,14,73,68,58,43,29
9,9,0,-9,4,4,14,68,68,58,39,19
4,14,9,-9,-2,12,14,63,73,58,34,14
4,14,9,-9,-2,12,14,63,73,58,34,9
4,14,9,-9,-2,12,14,63,73,58,29,9
4,14,9,-9,-2,12,14,63,68,58,29,19
4,14,9,-9,-2,12,9,63,68,53,24,24
9,14,4,-12,2,9,4,58,68,48,24,24
9,14,4,-12,2,9,0,58,68,48,24,14
9,19,9,-14,0,14,0,53,58,53,24,9
9,24,14,-17,-2,19,0,53,53,53,29,4
9,24,14,-17,-2,19,0,48,53,53,29,4
9,24,14,-17,-2,19,0,43,53,48,29,9
9,24,14,-17,-2,19,-4,43,53,43,24,4
9,19,9,-14,0,14,-4,39,43,39,19,0
4,19,14,-12,-4,17,-4,39,43,34,19,0
0,19,19,-9,-9,19,-4,34,43,34,19,-4
0,19,19,-9,-9,19,-4,39,48,34,24,0
0,14,14,-7,-7,14,-4,43,48,39,29,4
0,14,14,-7,-7,14,-9,39,43,34,29,0
0,14,14,-7,-7,14,-9,39,43,34,24,0
0,14,14,-7,-7,14,-9,29,29,24,14,-4
0,19,19,-9,-9,19,-14,24,19,19,0,-9
0,19,19,-9,-9,19,-14,24,29,19,0,-9
0,14,14,-7,-7,14,-14,19,34,19,0,-9
0,4,4,-2,-2,4,-9,19,34,24,4,-4
0,-9,-9,4,4,-9,-4,19,34,29,9,4
0,-9,-9,4,4,-9,-4,14,34,29,19,4
0,-9,-9,4,4,-9,-9,14,34,29,24,4
4,-4,-9,0,7,-7,-9,14,29,29,19,0
4,4,0,-4,2,2,-9,14,29,29,19,0
0,0,0,0,0,0,-4,9,24,24,19,0
0,0,0,0,0,0,-4,9,24,19,19,0
4,-9,-14,2,9,-12,-9,9,19,19,19,4
9,-19,-29,4,19,-24,-19,9,19,19,19,9
9,-9,-19,0,14,-14,-19,4,19,14,19,9
9,0,-9,-4,9,-4,-19,0,19,9,19,9
4,0,-4,-2,4,-2,-19,0,14,9,19,9
4,4,0,-4,2,2,-14,0,19,14,19,14
4,9,4,-7,0,7,-14,4,24,19,19,19
9,29,19,-19,-4,24,-4,14,34,34,29,24
14,63,48,-39,-17,56,4,29,48,43,48,29
14,82,68,-48,-26,75,14,39,63,58,53,34
19,92,73,-56,-26,82,29,48,73,68,43,34
24,102,78,-63,-26,90,34,58,73,68,43,39
29,97,68,-63,-19,82,39,68,82,82,63,48
34,97,63,-65,-14,80,43,73,92,92,82,63
34,107,73,-70,-19,90,34,73,97,92,97,73
43,131,87,-87,-21,109,14,58,92,92,112,78
43,156,112,-100,-34,134,-14,34,87,92,107,82
43,175,131,-109,-43,153,-29,19,87,92,102,82
58,219,161,-139,-51,190,-39,19,87,102,112,97
82,258,175,-170,-46,217,-58,19,92,107,122,122
97,278,180,-187,-41,229,-68,14,92,107,126,126
107,268,161,-187,-26,214,-78,14,82,107,122,126
112,248,136,-180,-12,192,-82,9,78,102,117,126
102,214,112,-158,-4,163,-92,-4,58,92,107,117
97,190,92,-143,2,141,-97,-14,43,78,97,117
92,165,73,-129,9,119,-97,-24,34,73,92,107
87,146,58,-117,14,102,-92,-24,34,63,82,92
48,126,78,-87,-14,102,-73,-14,34,63,73,82
29,78,48,-53,-9,63,-48,-4,34,58,63,68
19,19,0,-19,9,9,-43,-19,9,29,29,34
9,9,0,-9,4,4,-43,-19,4,24,24,24
4,-9,-14,2,9,-12,-43,-34,-9,4,9,4
4,-19,-24,7,14,-21,-43,-34,-14,0,4,0
0,-29,-29,14,14,-29,-43,-34,-14,0,4,-4
-4,-29,-24,17,9,-26,-39,-34,-14,0,4,-4
-4,-24,-19,14,7,-21,-34,-34,-14,0,4,-9
0,-24,-24,12,12,-24,-29,-24,-14,0,4,-9
0,-24,-24,12,12,-24,-29,-14,-9,0,4,-4
0,-29,-29,14,14,-29,-24,-9,-4,4,4,-4
0,-34,-34,17,17,-34,-19,-9,0,9,14,4
0,-34,-34,17,17,-34,-19,0,9,14,9,0
0,-34,-34,17,17,-34,-19,9,14,9,4,-4
-4,-43,-39,24,17,-41,-9,24,19,9,0,-34
-19,-82,-63,51,21,-73,14,39,24,-4,-39,-73
-43,-117,-73,80,14,-95,39,78,68,14,-39,-92
-92,-165,-73,129,-9,-119,63,68,78,24,-48,-97
-92,-175,-82,134,-4,-129,14,48,122,92,4,-82
-43,-78,-34,61,-4,-56,-92,53,346,351,214,63
82,0,-82,-41,82,-41,-331,-73,488,614,448,253
214,117,-97,-165,156,9,-663,-366,458,736,605,434
317,278,-39,-297,178,119,-951,-663,156,517,566,531
248,356,107,-302,70,231,-1117,-1439,-868,-385,146,405
161,43,-117,-102,139,-36,-1176,-2391,-2200,-1551,-610,43
131,-356,-488,112,309,-422,-1117,-2679,-2781,-2200,-1141,-278
82,-512,-595,214,339,-553,-1093,-2723,-2781,-2230,-1220,-361
-39,-683,-644,361,302,-663,-922,-2522,-2591,-2103,-1229,-444
-180,-775,-595,478,207,-685,-634,-2025,-2098,-1747,-1088,-483
-283,-746,-463,514,90,-605,-414,-1546,-1620,-1395,-936,-492
-312,-697,-385,505,36,-541,-302,-1151,-1210,-1073,-785,-478
-302,-585,-283,444,-9,-434,-214,-819,-824,-727,-575,-419
-209,-419,-209,314,0,-314,-161,-536,-541,-488,-390,-302
-117,-292,-175,204,29,-234,-92,-287,-326,-317,-263,-195
-68,-204,-136,136,34,-170,14,-68,-136,-161,-170,-136
-43,-151,-107,97,31,-129,53,29,-29,-53,-82,-97
-29,-117,-87,73,29,-102,63,58,0,-19,-58,-78
-14,-107,-92,61,39,-100,63,97,14,-14,-58,-73
-14,-107,-92,61,39,-100,73,126,43,-4,-48,-73
-14,-102,-87,58,36,-95,73,131,68,19,-24,-68
-9,-87,-78,48,34,-82,78,136,73,34,-14,-58
0,-87,-87,43,43,-87,78,151,78,39,-9,-48
0,-87,-87,43,43,-87,78,170,87,34,-9,-48
0,-87,-87,43,43,-87,82,185,102,43,-9,-48
0,-97,-97,48,48,-97,82,185,112,48,-9,-48
4,-112,-117,53,61,-114,82,195,112,48,-9,-48
4,-102,-107,48,56,-104,82,204,122,53,-9,-53
9,-97,-107,43,58,-102,87,209,126,63,-9,-58
9,-87,-97,39,53,-92,92,219,131,68,-9,-58
9,-78,-87,34,48,-82,92,214,131,68,-14,-58
14,-82,-97,34,56,-90,97,219,131,68,-19,-58
14,-82,-97,34,56,-90,97,229,136,73,-19,-58
14,-87,-102,36,58,-95,102,244,146,82,-9,-53
14,-97,-112,41,63,-104,107,253,156,87,0,-48
14,-97,-112,41,63,-104,112,268,156,87,4,-48
19,-97,-117,39,68,-107,112,278,161,92,4,-48
19,-82,-102,31,61,-92,107,273,170,92,4,-53
24,-63,-87,19,56,-75,97,273,175,87,0,-58
24,-68,-92,21,58,-80,112,292,185,92,4,-58
24,-78,-102,26,63,-90,122,307,185,92,4,-58
19,-73,-92,26,56,-82,126,312,185,97,4,-48
14,-73,-87,29,51,-80,131,322,190,97,4,-39
19,-68,-87,24,53,-78,131,326,195,107,4,-43
19,-68,-87,24,53,-78,136,326,204,107,0,-48
19,-58,-78,19,48,-68,141,341,209,112,0,-48
14,-53,-68,19,41,-61,141,346,214,112,-4,-48
14,-48,-63,17,39,-56,146,351,224,122,0,-43
14,-48,-63,17,39,-56,151,356,229,126,4,-39
19,-34,-53,7,36,-43,161,370,234,131,14,-34
24,-24,-48,0,36,-36,165,375,239,131,14,-34
24,-19,-43,-2,34,-31,170,380,239,131,14,-29
19,-14,-34,-2,26,-24,175,390,244,126,19,-24
14,-14,-29,0,21,-21,190,400,253,126,24,-24
9,-14,-24,2,17,-19,200,409,258,131,24,-24
4,-14,-19,4,12,-17,209,414,258,131,24,-19
0,-4,-4,2,2,-4,219,414,258,131,24,-19
4,4,0,-4,2,2,229,414,253,126,24,-34
-4,24,29,-9,-17,26,239,409,248,117,24,-43
-9,34,43,-12,-26,39,244,409,244,117,19,-29
-14,39,53,-12,-34,46,253,405,244,112,19,-19
-29,48,78,-9,-53,63,258,405,239,117,19,-19
-34,58,92,-12,-63,75,258,400,229,117,19,-14
-43,73,117,-14,-80,95,263,390,224,112,19,-9
-53,78,131,-12,-92,104,263,380,224,102,14,-9
-58,92,151,-17,-104,122,263,361,219,92,14,-9
-68,102,170,-17,-119,136,263,341,209,82,14,-9
-68,117,185,-24,-126,151,248,317,200,82,9,-4
-68,136,204,-34,-136,170,244,292,190,82,9,9
-78,151,229,-36,-153,190,229,273,185,87,14,19
-78,161,239,-41,-158,200,214,248,180,87,24,29
-78,170,248,-46,-163,209,204,224,170,92,43,39
-78,175,253,-48,-165,214,185,190,165,97,53,48
-78,180,258,-51,-168,219,165,170,165,107,68,63
-78,185,263,-53,-170,224,151,151,165,117,78,68
-78,195,273,-58,-175,234,131,131,165,122,92,73
-68,200,268,-65,-168,234,112,112,161,126,102,82
-68,195,263,-63,-165,229,97,97,151,126,102,82
-63,195,258,-65,-161,226,82,78,136,122,107,82
-58,180,239,-61,-148,209,63,63,126,122,107,82
-48,180,229,-65,-139,204,48,48,117,117,107,82
-43,170,214,-63,-129,192,34,39,112,117,107,82
-39,161,200,-61,-119,180,24,34,112,112,102,82
-34,136,170,-51,-102,153,14,24,102,107,102,82
-24,122,146,-48,-85,134,4,19,92,107,107,87
-19,112,131,-46,-75,122,0,14,82,102,102,82
-4,97,102,-46,-53,100,-4,14,78,97,97,73
-4,92,97,-43,-51,95,-14,9,73,87,87,63
-4,87,92,-41,-48,90,-14,0,63,78,82,58
-4,82,87,-39,-46,85,-14,0,53,68,73,58
-4,73,78,-34,-41,75,-19,0,53,63,73,58
0,53,53,-26,-26,53,-14,4,53,68,73,58
4,39,34,-21,-14,36,-9,9,53,68,68,53
4,43,39,-24,-17,41,-9,9,53,68,73,53
4,48,43,-26,-19,46,-9,14,53,63,73,39
4,43,39,-24,-17,41,-9,14,43,58,68,39
4,43,39,-24,-17,41,-9,14,39,58,63,39
9,39,29,-24,-9,34,-9,19,39,53,58,29
9,34,24,-21,-7,29,-9,19,34,53,53,29
9,34,24,-21,-7,29,-9,14,34,48,48,24
9,34,24,-21,-7,29,-9,9,34,48,48,24
9,43,34,-26,-12,39,-9,9,34,48,43,24
9,48,39,-29,-14,43,-4,9,39,48,34,19
14,39,24,-26,-4,31,-4,19,43,48,34,19
14,29,14,-21,0,21,-4,24,48,48,34,19
14,24,9,-19,2,17,-4,24,48,48,34,19
14,24,9,-19,2,17,-4,24,53,48,34,24
9,24,14,-17,-2,19,-4,24,53,53,43,19
4,24,19,-14,-7,21,-4,24,53,58,48,19
4,24,19,-14,-7,21,-4,24,48,58,48,24
4,24,19,-14,-7,21,-9,24,48,53,43,24
4,29,24,-17,-9,26,-9,19,48,43,39,24
0,34,34,-17,-17,34,-9,19,48,39,34,14
0,34,34,-17,-17,34,-9,14,39,43,29,14
0,34,34,-17,-17,34,-9,14,34,43,29,14
0,34,34,-17,-17,34,-9,14,34,43,29,9
0,34,34,-17,-17,34,-9,14,34,39,29,9
0,34,34,-17,-17,34,-14,14,34,39,29,9
0,29,29,-14,-14,29,-14,9,24,39,29,9
0,24,24,-12,-12,24,-19,9,24,34,29,9
0,19,19,-9,-9,19,-24,4,24,34,29,4
0,19,19,-9,-9,19,-24,4,29,29,29,4
0,14,14,-7,-7,14,-24,4,29,29,29,4
0,14,14,-7,-7,14,-29,0,24,24,29,0
0,14,14,-7,-7,14,-29,0,24,24,24,0
0,14,14,-7,-7,14,-29,-4,19,19,24,0
0,19,19,-9,-9,19,-34,-4,19,19,19,0
0,14,14,-7,-7,14,-34,-4,19,19,19,0
0,4,4,-2,-2,4,-34,-9,14,19,19,0
0,4,4,-2,-2,4,-34,-9,9,19,19,0
0,0,0,0,0,0,-34,-9,4,19,19,4
0,0,0,0,0,0,-34,-14,4,19,24,4
0,0,0,0,0,0,-39,-14,0,19,19,0
0,0,0,0,0,0,-34,-19,0,19,19,0
0,0,0,0,0,0,-34,-29,4,19,19,0
0,4,4,-2,-2,4,-29,-29,0,19,19,0
0,9,9,-4,-4,9,-29,-29,0,19,19,0
0,9,9,-4,-4,9,-34,-29,0,19,19,0
0,9,9,-4,-4,9,-39,-29,0,19,19,0
0,9,9,-4,-4,9,-39,-29,-4,19,19,0
0,9,9,-4,-4,9,-34,-24,0,19,19,4
0,14,14,-7,-7,14,-29,-19,4,24,24,14
0,29,29,-14,-14,29,-14,-4,14,34,39,24
4,58,53,-31,-24,56,-4,9,29,43,58,34
4,73,68,-39,-31,70,4,19,43,58,63,43
9,87,78,-48,-34,82,14,19,53,68,63,43
14,102,87,-58,-36,95,14,19,53,68,73,48
24,112,87,-68,-31,100,14,24,63,78,78,48
34,126,92,-80,-29,109,14,24,73,82,82,53
34,131,97,-82,-31,114,9,24,73,82,87,58
43,151,107,-97,-31,129,-4,9,63,82,92,58
39,175,136,-107,-48,156,-34,-4,58,78,92,63
34,195,161,-114,-63,178,-48,-9,58,73,92,63
48,224,175,-136,-63,200,-58,-9,63,87,107,78
73,248,175,-161,-51,212,-78,-9,73,97,122,102
87,283,195,-185,-53,239,-87,-14,73,107,131,112
97,287,190,-192,-46,239,-97,-14,63,117,131,117
102,278,175,-190,-36,226,-107,-19,58,112,126,117
92,253,161,-173,-34,207,-122,-34,39,102,117,107
87,229,141,-158,-26,185,-131,-43,24,78,102,107
82,204,122,-143,-19,163,-136,-53,14,63,92,97
82,175,92,-129,-4,134,-131,-53,14,53,92,87
48,146,97,-97,-24,122,-112,-43,14,53,92,82
29,112,82,-70,-26,97,-82,-34,14,53,82,68
19,68,48,-43,-14,58,-73,-48,-9,29,48,34
9,53,43,-31,-17,48,-73,-48,-14,24,39,24
4,29,24,-17,-9,26,-73,-63,-29,4,19,4
4,14,9,-9,-2,12,-73,-63,-34,0,9,0
0,0,0,0,0,0,-73,-63,-34,0,4,-4
-4,-9,-4,7,0,-7,-68,-63,-34,0,4,-4
-4,-14,-9,9,2,-12,-63,-63,-34,0,4,-9
-4,-14,-9,9,2,-12,-58,-58,-39,0,4,-9
-9,-14,-4,12,-2,-9,-58,-53,-39,0,4,-4
-9,-19,-9,14,0,-14,-53,-48,-34,0,0,-14
-9,-24,-14,17,2,-19,-48,-48,-29,0,4,-14
-9,-14,-4,12,-2,-9,-48,-48,-19,4,4,-14
-9,-4,4,7,-7,0,-48,-48,-14,0,4,-14
-9,-14,-4,12,-2,-9,-39,-34,-14,0,0,-34
-19,-53,-34,36,7,-43,-14,-19,-14,-14,-39,-63
-43,-87,-43,65,0,-65,19,29,24,-14,-53,-92
-92,-136,-43,114,-24,-90,53,29,29,-24,-78,-107
-122,-185,-63,153,-29,-124,58,29,24,-19,-87,-151
-102,-126,-24,114,-39,-75,4,53,200,175,58,-63
24,-48,-73,12,48,-61,-214,9,468,561,366,151
156,68,-87,-112,122,-9,-527,-200,566,805,595,356
307,322,14,-314,146,168,-883,-331,570,883,751,570
287,492,204,-390,41,348,-1117,-941,-146,278,527,561
200,170,-29,-185,114,70,-1210,-2122,-1810,-1166,-361,161
170,-239,-409,34,290,-324,-1185,-2640,-2723,-2093,-1024,-200
151,-429,-580,139,366,-505,-1224,-2845,-2893,-2269,-1185,-312
58,-634,-692,287,375,-663,-1117,-2806,-2874,-2288,-1278,-424
-112,-761,-649,436,268,-705,-800,-2313,-2391,-1947,-1161,-478
-244,-766,-522,505,139,-644,-551,-1839,-1922,-1610,-1034,-502
-302,-727,-424,514,61,-575,-405,-1395,-1459,-1254,-878,-502
-322,-624,-302,473,-9,-463,-283,-1015,-1019,-873,-663,-458
-229,-448,-219,339,-4,-334,-224,-697,-692,-590,-453,-331
-136,-312,-175,224,19,-244,-151,-414,-434,-375,-302,-214
-87,-209,-122,148,17,-165,-29,-161,-214,-209,-190,-151
-63,-141,-78,102,7,-109,24,-29,-78,-92,-82,-107
-43,-107,-63,75,9,-85,34,0,-48,-53,-58,-87
-24,-97,-73,61,24,-85,34,39,-34,-43,-58,-82
-24,-97,-73,61,24,-85,43,78,4,-29,-53,-82
-24,-92,-68,58,21,-80,43,92,39,0,-34,-78
-19,-78,-58,48,19,-68,48,97,43,19,-24,-68
-9,-78,-68,43,29,-73,48,112,48,29,-19,-58
-9,-78,-68,43,29,-73,48,126,58,29,-19,-58
-9,-78,-68,43,29,-73,53,136,73,43,-19,-58
-9,-68,-58,39,24,-63,53,136,82,48,-14,-58
-4,-63,-58,34,26,-61,53,146,82,48,-9,-58
-4,-63,-58,34,26,-61,53,151,87,48,-14,-63
0,-68,-68,34,34,-68,58,151,87,53,-19,-68
0,-68,-68,34,34,-68,63,165,92,53,-19,-68
0,-68,-68,34,34,-68,63,165,92,48,-24,-68
4,-73,-78,34,41,-75,68,170,92,48,-24,-68
4,-73,-78,34,41,-75,68,180,97,53,-19,-68
4,-68,-73,31,39,-70,73,190,107,63,-14,-63
4,-68,-73,31,39,-70,78,195,117,68,-9,-58
4,-68,-73,31,39,-70,82,214,117,68,-4,-58
9,-68,-78,29,43,-73,82,229,122,73,-4,-58
9,-68,-78,29,43,-73,87,234,131,78,0,-63
14,-63,-78,24,46,-70,87,244,136,78,0,-68
9,-58,-68,24,39,-63,92,253,146,82,-4,-68
4,-58,-63,26,34,-61,92,258,146,82,-14,-68
4,-53,-58,24,31,-56,97,258,151,87,-14,-68
4,-53,-58,24,31,-56,102,263,161,87,-14,-68
14,-53,-68,19,41,-61,102,273,165,97,-4,-63
19,-58,-78,19,48,-68,107,278,175,97,0,-58
19,-48,-68,14,43,-58,117,292,180,102,0,-58
14,-43,-58,14,36,-51,122,297,185,102,-4,-58
14,-39,-53,12,34,-46,126,302,190,107,-4,-58
14,-39,-53,12,34,-46,131,307,190,107,-4,-58
14,-24,-39,4,26,-31,141,326,195,112,4,-53
14,-14,-29,0,21,-21,146,336,200,112,4,-53
14,-9,-24,-2,19,-17,151,341,200,117,4,-48
9,-4,-14,-2,12,-9,156,351,204,117,9,-43
4,4,0,-4,2,2,170,356,214,117,14,-43
0,14,14,-7,-7,14,180,361,219,122,14,-43
-4,14,19,-4,-12,17,190,366,219,122,14,-39
-9,24,34,-7,-21,29,200,366,219,122,14,-39
-4,29,34,-12,-19,31,209,370,219,122,14,-43
-14,43,58,-14,-36,51,219,370,219,117,14,-43
-19,53,73,-17,-46,63,224,375,219,117,9,-39
-24,58,82,-17,-53,70,234,375,224,112,9,-39
-39,68,107,-14,-73,87,239,370,219,112,4,-39
-43,78,122,-17,-82,100,239,361,209,107,0,-34
-48,97,146,-24,-97,122,244,351,200,97,4,-34
-53,107,161,-26,-107,134,244,341,195,82,4,-39
-58,122,180,-31,-119,151,244,326,190,82,9,-29
-68,131,200,-31,-134,165,244,312,180,82,14,-19
-73,141,214,-34,-143,178,229,292,175,82,14,-14
-78,156,234,-39,-156,195,224,273,170,82,19,0
-87,170,258,-41,-173,214,219,253,165,87,24,9
-87,180,268,-46,-178,224,214,229,161,87,34,19
-87,195,283,-53,-185,239,204,204,146,87,43,29
-87,204,292,-58,-190,248,185,170,136,87,43,39
-87,209,297,-61,-192,253,161,146,136,97,58,53
-87,214,302,-63,-195,258,141,122,136,107,68,58
-87,224,312,-68,-200,268,122,102,131,107,82,63
-78,229,307,-75,-192,268,102,82,122,107,92,73
-73,224,297,-75,-185,261,82,63,117,112,92,73
-63,224,287,-80,-175,256,63,39,107,112,97,73
-58,209,268,-75,-163,239,43,24,97,117,107,78
-48,209,258,-80,-153,234,29,9,87,117,117,82
-43,195,239,-75,-141,217,9,-4,78,117,117,82
-39,180,219,-70,-129,200,-4,-14,73,112,112,82
-34,161,195,-63,-114,178,-14,-24,63,102,107,78
-24,151,175,-63,-100,163,-24,-29,53,97,107,78
-29,151,180,-61,-104,165,-34,-39,39,92,102,78
-24,141,165,-58,-95,153,-48,-43,29,82,92,68
-24,141,165,-58,-95,153,-48,-43,29,82,92,68
