I, II, III, aVR, aVL, aVF, V1, V2, V3, V4, V5, V6
-19,14,34,2,-26,24,43,-4,-97,-39,-24,-19
0,19,19,-9,-9,19,29,-14,-92,-39,-24,-19
14,24,9,-19,2,17,19,-39,-97,-48,-29,-19
14,4,-9,-9,12,-2,14,-53,-112,-53,-34,-29
0,-4,-4,2,2,-4,9,-68,-131,-58,-39,-39
-14,4,19,4,-17,12,4,-87,-131,-68,-39,-39
-34,14,48,9,-41,31,9,-87,-131,-73,-39,-39
-58,19,78,19,-68,48,39,-63,-126,-73,-43,-43
-73,14,87,29,-80,51,58,-43,-117,-73,-48,-48
-92,-9,82,51,-87,36,58,-43,-136,-87,-73,-63
-97,-29,68,63,-82,19,48,-43,-151,-97,-92,-73
-102,-29,73,65,-87,21,43,-43,-151,-102,-92,-78
-112,-29,82,70,-97,26,43,-43,-151,-107,-92,-73
-112,-48,63,80,-87,7,43,-43,-156,-107,-92,-78
-112,-53,58,82,-85,2,43,-43,-161,-112,-87,-87
-107,-48,58,78,-82,4,48,-63,-170,-141,-117,-107
-102,-48,53,75,-78,2,53,-73,-170,-161,-146,-126
-102,-48,53,75,-78,2,73,-68,-170,-141,-131,-112
-102,-43,58,73,-80,7,73,-68,-170,-126,-112,-97
-102,-39,63,70,-82,12,63,-63,-165,-122,-107,-87
-107,-39,68,73,-87,14,68,-58,-161,-117,-102,-82
-102,-39,63,70,-82,12,78,-43,-161,-117,-102,-97
-107,-34,73,70,-90,19,92,-29,-151,-126,-117,-112
-136,-48,87,92,-112,19,97,-4,-146,-136,-141,-146
-161,-53,107,107,-134,26,131,19,-141,-151,-156,-161
-185,-43,141,114,-163,48,209,78,-112,-170,-195,-190
-180,-29,151,104,-165,61,229,107,-68,-156,-180,-170
-122,0,122,61,-122,61,224,180,48,-29,-68,-73
-48,58,107,-4,-78,82,161,175,170,136,107,82
34,107,73,-70,-19,90,-24,-102,92,204,258,263
156,209,53,-183,51,131,-273,-488,-53,287,473,517
341,390,48,-366,146,219,-561,-917,-185,463,819,902
536,590,53,-563,241,322,-854,-1322,-283,683,1171,1288
780,873,92,-827,344,483,-1132,-1610,-170,1088,1712,1825
927,961,34,-944,446,497,-1317,-1786,-214,1210,1883,2015
932,678,-253,-805,592,212,-1376,-1859,-595,697,1356,1546
854,497,-356,-675,605,70,-1361,-1834,-893,219,824,1122
678,370,-307,-524,492,31,-1151,-1625,-1093,-287,268,649
527,248,-278,-387,402,-14,-976,-1390,-1176,-619,-117,317
468,200,-268,-334,368,-34,-834,-1151,-1054,-649,-200,204
380,141,-239,-261,309,-48,-644,-893,-868,-575,-234,97
239,68,-170,-153,204,-51,-439,-619,-658,-478,-263,-48
126,14,-112,-70,119,-48,-278,-414,-463,-370,-244,-122
19,9,-9,-14,14,0,-126,-258,-322,-283,-209,-131
-43,0,43,21,-43,21,-14,-126,-214,-200,-170,-126
-53,-9,43,31,-48,17,0,-39,-126,-122,-112,-107
-78,-24,53,51,-65,14,19,24,-48,-63,-63,-87
-78,-24,53,51,-65,14,78,68,-14,-53,-58,-73
-78,-29,48,53,-63,9,112,92,0,-48,-58,-63
-68,-39,29,53,-48,-4,122,97,0,-43,-63,-68
-73,-53,19,63,-46,-17,122,97,14,-43,-68,-82
-82,-53,29,68,-56,-12,131,102,29,-43,-68,-87
-82,-53,29,68,-56,-12,136,112,39,-43,-68,-87
-82,-53,29,68,-56,-12,156,102,29,-39,-68,-87
-87,-53,34,70,-61,-9,170,92,24,-34,-73,-92
-92,-48,43,70,-68,-2,161,102,34,-29,-63,-97
-92,-43,48,68,-70,2,156,112,39,-29,-53,-97
-92,-43,48,68,-70,2,156,126,39,-29,-63,-97
-92,-48,43,70,-68,-2,156,141,39,-29,-73,-92
-97,-53,43,75,-70,-4,161,141,43,-29,-73,-92
-97,-53,43,75,-70,-4,161,141,43,-24,-73,-92
-97,-53,43,75,-70,-4,156,141,48,-24,-73,-97
-97,-53,43,75,-70,-4,151,141,48,-24,-73,-97
-87,-53,34,70,-61,-9,141,146,68,-9,-53,-78
-78,-53,24,65,-51,-14,136,151,87,0,-34,-53
-87,-53,34,70,-61,-9,136,151,82,-4,-48,-68
-97,-53,43,75,-70,-4,131,156,78,-9,-63,-82
-97,-48,48,73,-73,0,161,156,78,-19,-68,-97
-97,-48,48,73,-73,0,190,156,82,-29,-68,-107
-97,-34,63,65,-80,14,180,151,87,-14,-58,-97
-97,-19,78,58,-87,29,175,151,92,0,-48,-87
-97,-29,68,63,-82,19,175,151,102,0,-53,-87
-92,-43,48,68,-70,2,175,151,107,-4,-58,-82
-87,-43,43,65,-65,0,165,156,107,-4,-73,-82
-82,-43,39,63,-61,-2,156,165,112,0,-87,-82
-78,-39,39,58,-58,0,156,165,112,0,-68,-73
-73,-34,39,53,-56,2,161,161,122,9,-48,-63
-68,-29,39,48,-53,4,161,161,126,34,-29,-58
-68,-24,43,46,-56,9,156,165,136,48,-14,-53
-73,-19,53,46,-63,17,151,170,151,48,-24,-63
-73,-14,58,43,-65,21,151,180,156,43,-39,-73
-73,-19,53,46,-63,17,156,185,170,48,-39,-73
-73,-29,43,51,-58,7,156,195,180,53,-34,-73
-78,-29,48,53,-63,9,156,204,195,63,-4,-53
-82,-19,63,51,-73,21,151,214,214,73,19,-29
-87,-19,68,53,-78,24,151,229,219,78,14,-24
-97,-14,82,56,-90,34,151,239,234,87,14,-19
-78,0,78,39,-78,39,141,239,234,87,4,-24
-68,9,78,29,-73,43,126,239,239,87,4,-29
-53,19,73,17,-63,46,126,244,258,102,9,-34
-53,24,78,14,-65,51,122,253,273,122,14,-34
-48,29,78,9,-63,53,122,258,287,141,24,-24
-43,34,78,4,-61,56,126,263,307,161,39,-24
-43,29,73,7,-58,51,136,283,331,175,53,-9
-39,24,63,7,-51,43,136,297,351,200,73,0
-29,39,68,-4,-48,53,151,312,375,219,87,9
-19,43,63,-12,-41,53,156,317,405,244,112,24
-9,58,68,-24,-39,63,141,346,429,263,112,39
4,68,63,-36,-29,65,141,366,453,278,122,43
14,78,63,-46,-24,70,141,380,483,302,146,53
24,92,68,-58,-21,80,136,405,527,326,165,68
34,102,68,-68,-17,85,131,424,561,361,195,78
39,102,63,-70,-12,82,131,453,600,400,214,92
43,112,68,-78,-12,90,122,478,639,434,234,107
58,136,78,-97,-9,107,112,492,678,463,263,122
63,161,97,-112,-17,129,102,517,712,492,283,146
82,185,102,-134,-9,143,92,546,741,531,297,151
92,229,136,-161,-21,183,87,556,780,556,317,165
102,258,156,-180,-26,207,87,570,805,580,336,180
112,268,156,-190,-21,212,87,575,844,605,346,195
122,283,161,-202,-19,222,73,575,868,619,361,204
126,331,204,-229,-39,268,63,575,868,619,361,204
126,366,239,-246,-56,302,48,566,863,614,356,204
126,361,234,-244,-53,297,43,551,858,619,361,214
122,351,229,-236,-53,290,34,527,849,614,366,219
117,351,234,-234,-58,292,43,507,824,595,356,224
112,346,234,-229,-61,290,53,483,785,570,341,219
102,336,234,-219,-65,285,53,434,736,527,312,200
97,326,229,-212,-65,278,58,385,702,483,283,180
87,302,214,-195,-63,258,39,356,629,424,244,156
73,273,200,-173,-63,236,24,336,561,375,209,136
63,253,190,-158,-63,222,24,273,502,322,175,117
53,239,185,-146,-65,212,19,244,444,268,146,102
43,204,161,-124,-58,183,19,214,380,219,112,87
39,185,146,-112,-53,165,14,190,317,180,87,68
29,156,126,-92,-48,141,39,156,258,136,73,53
19,117,97,-68,-39,107,63,126,214,97,48,39
9,82,73,-46,-31,78,78,97,170,68,24,34
4,58,53,-31,-24,56,68,68,131,43,9,29
0,48,48,-24,-24,48,68,48,102,29,14,24
-4,34,39,-14,-21,36,73,34,68,9,14,24
-14,24,39,-4,-26,31,68,19,43,-4,9,24
-19,14,34,2,-26,24,58,4,29,-14,4,19
-19,4,24,7,-21,14,43,-4,9,-34,-9,4
-24,0,24,12,-24,12,39,-9,-9,-53,-34,-4
-29,0,29,14,-29,14,39,-24,-29,-63,-43,-9
-29,-4,24,17,-26,9,39,-29,-34,-78,-53,-9
-29,-9,19,19,-24,4,34,-29,-43,-78,-53,-9
-29,-9,19,19,-24,4,29,-29,-48,-82,-53,-9
-29,-9,19,19,-24,4,34,-29,-48,-82,-48,-14
-34,-9,24,21,-29,7,24,-29,-48,-82,-39,-14
-34,-9,24,21,-29,7,48,-24,-48,-78,-39,-14
-34,-14,19,24,-26,2,68,-24,-48,-73,-39,-14
-29,-14,14,21,-21,0,58,-24,-48,-73,-39,-14
-29,-14,14,21,-21,0,53,-24,-48,-73,-39,-14
-24,-19,4,21,-14,-7,53,-24,-48,-73,-43,-19
-24,-24,0,24,-12,-12,58,-14,-48,-73,-43,-19
-24,-29,-4,26,-9,-17,53,-14,-43,-73,-39,-19
-24,-39,-14,31,-4,-26,53,-14,-43,-68,-34,-19
-24,-39,-14,31,-4,-26,53,-14,-43,-63,-29,-14
-24,-39,-14,31,-4,-26,53,-19,-43,-58,-29,-14
-24,-29,-4,26,-9,-17,48,-19,-43,-53,-29,-14
-24,-39,-14,31,-4,-26,48,-19,-39,-53,-29,-9
-29,-48,-19,39,-4,-34,43,-14,-24,-48,-29,-9
-39,-53,-14,46,-12,-34,39,-4,-19,-48,-34,-14
-39,-53,-14,46,-12,-34,39,-4,-19,-43,-34,-19
-39,-48,-9,43,-14,-29,39,0,-19,-43,-34,-19
-34,-43,-9,39,-12,-26,43,4,-19,-43,-34,-19
-29,-39,-9,34,-9,-24,48,4,-14,-43,-34,-19
-29,-34,-4,31,-12,-19,53,9,-14,-43,-34,-19
-29,-34,-4,31,-12,-19,53,9,-14,-43,-34,-19
-29,-24,4,26,-17,-9,48,0,-9,-43,-39,-24
-29,-14,14,21,-21,0,43,-9,-9,-48,-43,-34
-34,-24,9,29,-21,-7,48,-9,-9,-48,-43,-34
-34,-24,9,29,-21,-7,48,-9,-9,-48,-43,-34
-34,-29,4,31,-19,-12,39,-14,-9,-48,-39,-34
-39,-29,9,34,-24,-9,29,-19,-9,-48,-43,-34
-39,-29,9,34,-24,-9,39,-19,-14,-48,-43,-34
-34,-34,0,34,-17,-17,48,-9,-19,-48,-43,-34
-34,-34,0,34,-17,-17,63,0,-19,-48,-43,-29
-34,-34,0,34,-17,-17,73,14,-19,-48,-43,-24
-34,-29,4,31,-19,-12,58,14,-19,-48,-34,-24
-39,-29,9,34,-24,-9,48,14,-19,-53,-24,-29
-43,-34,9,39,-26,-12,29,-14,-24,-58,-43,-34
-43,-34,9,39,-26,-12,14,-34,-29,-68,-53,-43
-43,-24,19,34,-31,-2,14,-24,-29,-68,-63,-48
-43,-14,29,29,-36,7,24,-14,-34,-68,-73,-53
-43,-29,14,36,-29,-7,29,-9,-39,-68,-78,-58
-43,-43,0,43,-21,-21,39,-9,-43,-68,-78,-58
-43,-48,-4,46,-19,-26,48,-19,-43,-82,-78,-58
-48,-48,0,48,-24,-24,53,-24,-48,-102,-87,-63
-43,-39,4,41,-24,-17,58,-24,-53,-102,-87,-63
-34,-29,4,31,-19,-12,63,-19,-53,-102,-87,-63
-34,-29,4,31,-19,-12,53,-19,-53,-97,-82,-58
-34,-34,0,34,-17,-17,53,-24,-53,-92,-78,-58
-48,-34,14,41,-31,-9,43,-24,-63,-97,-78,-63
-58,-34,24,46,-41,-4,34,-29,-63,-97,-78,-73
-43,-29,14,36,-29,-7,29,-29,-68,-112,-87,-78
-34,-29,4,31,-19,-12,24,-29,-68,-122,-92,-78
-34,-34,0,34,-17,-17,14,-24,-68,-112,-92,-78
-34,-34,0,34,-17,-17,9,-24,-68,-102,-92,-73
-39,-34,4,36,-21,-14,14,-29,-68,-102,-87,-68
-48,-29,19,39,-34,-4,14,-34,-68,-102,-82,-63
-48,-19,29,34,-39,4,24,-39,-68,-102,-82,-63
-48,-9,39,29,-43,14,39,-43,-73,-102,-82,-63
-43,-9,34,26,-39,12,43,-43,-78,-102,-82,-63
-43,-9,34,26,-39,12,43,-43,-78,-107,-82,-63
-43,-14,29,29,-36,7,39,-48,-82,-117,-87,-63
-43,-19,24,31,-34,2,34,-48,-82,-122,-92,-63
-43,-19,24,31,-34,2,34,-43,-82,-117,-92,-63
-43,-19,24,31,-34,2,34,-39,-82,-117,-92,-63
-43,-19,24,31,-34,2,53,-39,-87,-117,-92,-63
-43,-19,24,31,-34,2,48,-34,-87,-117,-92,-63
-48,-19,29,34,-39,4,39,-34,-87,-117,-97,-73
-48,-19,29,34,-39,4,24,-34,-87,-117,-102,-78
-53,-29,24,41,-39,-2,19,-43,-87,-117,-102,-78
-53,-43,9,48,-31,-17,14,-53,-92,-122,-97,-78
-58,-43,14,51,-36,-14,9,-53,-92,-122,-97,-73
-58,-34,24,46,-41,-4,9,-63,-92,-122,-97,-73
-58,-34,24,46,-41,-4,29,-63,-92,-122,-97,-73
-58,-29,29,43,-43,0,34,-58,-92,-122,-97,-73
-53,-19,34,36,-43,7,34,-53,-92,-122,-97,-78
-48,-9,39,29,-43,14,34,-43,-97,-117,-97,-78
-48,-19,29,34,-39,4,29,-39,-97,-117,-97,-78
-48,-29,19,39,-34,-4,29,-39,-97,-117,-97,-78
-53,-29,24,41,-39,-2,24,-39,-97,-122,-97,-78
-58,-29,29,43,-43,0,19,-39,-97,-126,-97,-78
-58,-29,29,43,-43,0,19,-39,-97,-126,-97,-78
-58,-29,29,43,-43,0,19,-39,-97,-126,-97,-78
-53,-29,24,41,-39,-2,19,-48,-102,-126,-102,-82
-48,-29,19,39,-34,-4,19,-58,-107,-126,-107,-87
-48,-29,19,39,-34,-4,24,-58,-107,-126,-107,-87
-48,-29,19,39,-34,-4,29,-58,-107,-126,-107,-87
-48,-29,19,39,-34,-4,29,-53,-102,-126,-102,-82
-48,-29,19,39,-34,-4,29,-48,-97,-126,-97,-78
-48,-29,19,39,-34,-4,29,-39,-97,-122,-97,-73
-48,-29,19,39,-34,-4,29,-29,-97,-117,-97,-68
-48,-29,19,39,-34,-4,29,-29,-97,-117,-102,-68
-48,-24,24,36,-36,0,24,-29,-92,-117,-102,-63
-48,-24,24,36,-36,0,19,-34,-87,-117,-102,-63
-48,-19,29,34,-39,4,19,-29,-87,-112,-102,-68
-43,-4,39,24,-41,17,39,-24,-78,-102,-82,-58
-29,9,39,9,-34,24,68,-19,-63,-92,-78,-58
-24,14,39,4,-31,26,82,4,-48,-78,-63,-53
-19,9,29,4,-24,19,87,19,-48,-73,-58,-53
-9,4,14,2,-12,9,87,19,-48,-68,-43,-39
-9,4,14,2,-12,9,87,19,-48,-68,-34,-24
-4,9,14,-2,-9,12,97,14,-58,-73,-53,-24
4,14,9,-9,-2,12,78,4,-63,-87,-63,-24
4,14,9,-9,-2,12,68,-9,-68,-92,-73,-29
0,4,4,-2,-2,4,63,-14,-73,-97,-78,-34
0,4,4,-2,-2,4,63,-14,-73,-97,-78,-43
0,4,4,-2,-2,4,58,-14,-68,-92,-73,-43
0,9,9,-4,-4,9,34,-14,-58,-87,-63,-34
9,14,4,-12,2,9,-4,-24,-58,-78,-53,-19
19,4,-14,-12,17,-4,-24,-29,-58,-73,-48,-19
24,-4,-29,-9,26,-17,-39,-48,-68,-78,-48,-19
24,-14,-39,-4,31,-26,-24,-53,-78,-92,-58,-29
9,-14,-24,2,17,-19,-9,-58,-92,-107,-68,-39
-4,4,9,0,-7,7,-9,-68,-92,-107,-78,-43
-24,24,48,0,-36,36,0,-58,-92,-102,-87,-48
-43,14,58,14,-51,36,29,-48,-92,-102,-87,-53
-53,-4,48,29,-51,21,48,-43,-87,-102,-87,-58
-63,-29,34,46,-48,2,48,-48,-102,-117,-97,-73
-58,-48,9,53,-34,-19,39,-53,-112,-126,-102,-82
-68,-53,14,61,-41,-19,39,-53,-117,-141,-112,-92
-82,-58,24,70,-53,-17,43,-53,-122,-156,-122,-92
-82,-87,-4,85,-39,-46,48,-53,-126,-156,-131,-97
-82,-102,-19,92,-31,-61,53,-53,-131,-161,-136,-107
-78,-87,-9,82,-34,-48,53,-63,-136,-170,-141,-107
-73,-78,-4,75,-34,-41,53,-63,-131,-170,-146,-107
-73,-78,-4,75,-34,-41,48,-58,-131,-161,-146,-107
-73,-73,0,73,-36,-36,24,-58,-131,-156,-141,-107
-73,-73,0,73,-36,-36,24,-43,-126,-151,-141,-102
-78,-78,0,78,-39,-39,39,-29,-122,-146,-141,-102
-78,-87,-9,82,-34,-48,53,-14,-117,-146,-141,-122
-87,-92,-4,90,-41,-48,73,0,-102,-156,-156,-141
-117,-78,39,97,-78,-19,97,24,-97,-161,-170,-170
-141,-53,87,97,-114,17,151,48,-92,-170,-175,-180
-141,-39,102,90,-122,31,190,82,-53,-156,-165,-165
-112,-19,92,65,-102,36,170,87,0,-107,-102,-102
-39,14,53,12,-46,34,122,68,63,29,53,48
48,78,29,-63,9,53,14,-29,131,204,273,258
156,165,9,-161,73,87,-175,-336,4,287,468,502
302,307,4,-305,148,156,-429,-751,-190,385,727,819
483,483,0,-483,241,241,-717,-1088,-273,580,1068,1190
673,678,4,-675,334,341,-1010,-1400,-322,819,1415,1561
834,824,-9,-829,422,407,-1224,-1586,-297,1000,1678,1839
897,775,-122,-836,509,326,-1346,-1659,-429,897,1571,1771
849,531,-317,-690,583,107,-1307,-1649,-736,400,1039,1278
717,390,-326,-553,522,31,-1195,-1542,-961,-63,502,829
556,273,-283,-414,419,-4,-995,-1322,-1058,-434,73,448
419,161,-258,-290,339,-48,-829,-1078,-1039,-629,-185,209
370,97,-273,-234,322,-87,-702,-858,-888,-595,-219,117
292,24,-268,-158,280,-122,-527,-619,-673,-458,-204,29
165,-14,-180,-75,173,-97,-322,-414,-492,-370,-219,-73
68,-34,-102,-17,85,-68,-161,-278,-326,-273,-185,-102
0,-39,-39,19,19,-39,-58,-161,-224,-209,-165,-117
-24,-48,-24,36,0,-36,4,-68,-156,-151,-141,-117
-34,-58,-24,46,-4,-41,29,-4,-82,-97,-112,-112
-58,-73,-14,65,-21,-43,58,34,-19,-63,-92,-107
-53,-73,-19,63,-17,-46,92,68,-4,-63,-87,-102
-48,-78,-29,63,-9,-53,102,82,-9,-68,-87,-102
-48,-78,-29,63,-9,-53,107,82,-9,-63,-92,-102
-63,-82,-19,73,-21,-51,102,78,4,-63,-97,-112
-73,-78,-4,75,-34,-41,87,73,9,-63,-97,-112
-73,-73,0,73,-36,-36,68,73,9,-63,-97,-107
-68,-73,-4,70,-31,-39,92,82,9,-58,-87,-107
-68,-73,-4,70,-31,-39,112,92,14,-53,-82,-112
-73,-78,-4,75,-34,-41,122,102,24,-48,-82,-117
-73,-82,-9,78,-31,-46,136,112,29,-48,-82,-117
-73,-82,-9,78,-31,-46,122,122,29,-48,-82,-117
-73,-87,-14,80,-29,-51,107,131,29,-48,-82,-112
-78,-92,-14,85,-31,-53,122,126,34,-53,-92,-117
-78,-92,-14,85,-31,-53,131,122,34,-53,-102,-122
-82,-92,-9,87,-36,-51,131,122,39,-53,-102,-126
-87,-92,-4,90,-41,-48,131,122,39,-53,-102,-126
-87,-92,-4,90,-41,-48,131,126,43,-48,-97,-122
-87,-92,-4,90,-41,-48,136,131,48,-48,-92,-112
-82,-87,-4,85,-39,-46,136,126,53,-43,-87,-112
-78,-82,-4,80,-36,-43,131,126,58,-39,-82,-112
-78,-78,0,78,-39,-39,122,126,58,-39,-87,-117
-78,-78,0,78,-39,-39,112,126,63,-39,-87,-117
-78,-78,0,78,-39,-39,112,117,63,-39,-87,-117
-78,-78,0,78,-39,-39,117,112,63,-39,-87,-117
-78,-73,4,75,-41,-34,126,131,73,-29,-82,-117
-73,-73,0,73,-36,-36,136,151,78,-24,-78,-112
-73,-73,0,73,-36,-36,136,156,82,-24,-78,-112
-73,-73,0,73,-36,-36,136,165,92,-19,-78,-112
-73,-73,0,73,-36,-36,136,165,92,-14,-78,-112
-73,-73,0,73,-36,-36,141,161,102,0,-78,-112
-68,-68,0,68,-34,-34,141,161,107,9,-68,-107
-68,-63,4,65,-36,-29,136,165,117,9,-63,-102
-68,-58,9,63,-39,-24,126,170,126,14,-58,-102
-63,-53,9,58,-36,-21,122,180,126,14,-58,-102
-63,-53,9,58,-36,-21,126,185,136,19,-58,-102
-63,-58,4,61,-34,-26,126,195,141,24,-53,-102
-63,-58,4,61,-34,-26,126,195,151,34,-43,-97
-63,-48,14,56,-39,-17,122,195,165,43,-39,-87
-58,-48,9,53,-34,-19,122,200,170,48,-43,-87
-58,-43,14,51,-36,-14,122,200,185,58,-43,-87
-53,-43,9,48,-31,-17,136,209,195,68,-39,-82
-58,-48,9,53,-34,-19,146,219,209,78,-24,-78
-48,-39,9,43,-29,-14,136,234,234,97,0,-73
-53,-34,19,43,-36,-7,122,253,253,122,24,-63
-48,-29,19,39,-34,-4,122,273,273,141,24,-53
-43,-24,19,34,-31,-2,126,292,297,161,29,-53
-39,-19,19,29,-29,0,117,297,317,170,39,-39
-29,-14,14,21,-21,0,97,297,331,190,53,-29
-19,0,19,9,-19,9,107,317,361,209,68,-19
-9,4,14,2,-12,9,107,326,395,234,92,-4
-4,19,24,-7,-14,21,107,361,429,268,102,9
4,29,24,-17,-9,26,122,385,463,297,122,14
9,39,29,-24,-9,34,126,405,492,322,146,29
14,53,39,-34,-12,46,126,434,536,346,165,48
29,73,43,-51,-7,58,107,448,561,375,190,63
39,82,43,-61,-2,63,92,473,590,409,204,82
53,92,39,-73,7,65,97,497,639,444,224,97
78,117,39,-97,19,78,102,512,688,473,253,112
82,131,48,-107,17,90,97,527,717,497,273,131
102,146,43,-124,29,95,92,546,741,531,287,131
102,170,68,-136,17,119,87,556,780,551,307,146
102,180,78,-141,12,129,87,570,805,570,326,161
112,190,78,-151,17,134,73,575,829,590,336,175
122,204,82,-163,19,143,43,575,839,600,351,185
126,229,102,-178,12,165,43,570,839,605,351,185
126,239,112,-183,7,175,39,556,834,605,346,185
122,248,126,-185,-2,187,34,536,810,585,336,185
112,253,141,-183,-14,197,24,507,780,556,326,180
107,258,151,-183,-21,204,9,473,746,522,302,170
102,258,156,-180,-26,207,-4,434,697,483,273,151
87,248,161,-168,-36,204,4,400,639,439,244,136
78,239,161,-158,-41,200,19,366,595,395,214,122
63,234,170,-148,-53,202,19,312,522,336,180,97
43,224,180,-134,-68,202,24,268,453,287,151,78
34,195,161,-114,-63,178,29,214,390,244,126,63
24,170,146,-97,-61,158,29,195,326,200,107,53
14,136,122,-75,-53,129,29,165,273,156,78,39
9,117,107,-63,-48,112,24,141,219,122,58,19
0,102,102,-51,-51,102,24,97,156,82,43,9
-9,78,87,-34,-48,82,24,58,107,48,19,0
-19,53,73,-17,-46,63,24,43,73,19,4,-4
-24,39,63,-7,-43,51,0,29,43,-4,0,-9
-29,29,58,0,-43,43,0,-4,14,-19,-4,-19
-34,14,48,9,-41,31,4,-34,-19,-39,-14,-24
-39,4,43,17,-41,24,24,-48,-43,-53,-24,-24
-39,-4,34,21,-36,14,39,-63,-58,-63,-34,-29
-39,-14,24,26,-31,4,19,-53,-68,-68,-34,-29
-43,-19,24,31,-34,2,9,-39,-78,-73,-43,-24
-48,-19,29,34,-39,4,9,-48,-92,-78,-48,-29
-48,-24,24,36,-36,0,9,-48,-92,-87,-53,-29
-48,-29,19,39,-34,-4,19,-53,-102,-87,-53,-34
-48,-29,19,39,-34,-4,29,-58,-107,-92,-53,-39
-48,-34,14,41,-31,-9,34,-63,-107,-97,-63,-48
-53,-39,14,46,-34,-12,24,-68,-107,-102,-68,-53
-58,-39,19,48,-39,-9,29,-68,-107,-107,-68,-53
-63,-43,19,53,-41,-12,29,-73,-107,-112,-68,-53
-58,-43,14,51,-36,-14,19,-68,-112,-112,-68,-53
-58,-43,14,51,-36,-14,14,-63,-117,-112,-68,-53
-58,-39,19,48,-39,-9,14,-63,-117,-102,-68,-53
-63,-34,29,48,-46,-2,19,-53,-117,-92,-63,-48
-58,-34,24,46,-41,-4,24,-63,-107,-92,-58,-48
-53,-39,14,46,-34,-12,34,-73,-102,-87,-53,-48
-53,-39,14,46,-34,-12,34,-63,-102,-87,-53,-48
-53,-39,14,46,-34,-12,34,-58,-102,-87,-58,-53
-53,-24,29,39,-41,2,29,-53,-97,-82,-58,-53
-53,-29,24,41,-39,-2,29,-48,-87,-82,-58,-48
-53,-34,19,43,-36,-7,19,-43,-78,-78,-53,-43
-58,-34,24,46,-41,-4,9,-34,-78,-78,-53,-43
-63,-39,24,51,-43,-7,9,-34,-78,-68,-53,-48
-68,-39,29,53,-48,-4,9,-29,-78,-63,-53,-48
-68,-39,29,53,-48,-4,19,-24,-78,-63,-53,-48
-68,-39,29,53,-48,-4,29,-24,-73,-63,-53,-48
-68,-34,34,51,-51,0,34,-19,-68,-63,-48,-43
-68,-34,34,51,-51,0,34,-19,-63,-63,-43,-39
-68,-34,34,51,-51,0,34,-19,-58,-58,-43,-39
-68,-34,34,51,-51,0,34,-19,-58,-58,-43,-43
-73,-43,29,58,-51,-7,43,-24,-58,-58,-43,-43
-73,-43,29,58,-51,-7,48,-29,-58,-58,-43,-43
-68,-48,19,58,-43,-14,48,-29,-58,-58,-43,-48
-68,-48,19,58,-43,-14,48,-29,-58,-58,-53,-53
-68,-43,24,56,-46,-9,48,-34,-58,-58,-53,-53
-63,-43,19,53,-41,-12,48,-29,-58,-58,-53,-53
-68,-48,19,58,-43,-14,39,-29,-63,-63,-53,-53
-73,-53,19,63,-46,-17,24,-24,-68,-68,-53,-53
-73,-53,19,63,-46,-17,19,-19,-68,-68,-53,-53
-78,-58,19,68,-48,-19,19,-14,-68,-73,-53,-58
-82,-58,24,70,-53,-17,29,-24,-73,-73,-68,-63
-82,-53,29,68,-56,-12,43,-24,-78,-78,-73,-73
-78,-48,29,63,-53,-9,53,-24,-78,-78,-73,-73
-73,-43,29,58,-51,-7,73,-24,-82,-78,-73,-73
-73,-34,39,53,-56,2,63,-19,-82,-78,-78,-78
-73,-24,48,48,-61,12,58,-19,-82,-78,-78,-78
-73,-39,34,56,-53,-2,58,-29,-82,-82,-78,-78
-78,-48,29,63,-53,-9,53,-34,-87,-92,-87,-82
-78,-48,29,63,-53,-9,48,-39,-92,-92,-87,-82
-73,-48,24,61,-48,-12,43,-39,-92,-92,-87,-82
-78,-53,24,65,-51,-14,24,-39,-92,-92,-87,-78
-82,-63,19,73,-51,-21,14,-43,-92,-92,-87,-78
-87,-63,24,75,-56,-19,29,-39,-97,-92,-82,-68
-87,-63,24,75,-56,-19,43,-39,-92,-87,-78,-63
-82,-58,24,70,-53,-17,43,-39,-97,-92,-78,-68
-82,-58,24,70,-53,-17,43,-39,-97,-92,-73,-68
-78,-58,19,68,-48,-19,39,-43,-102,-92,-73,-73
-73,-53,19,63,-46,-17,39,-53,-107,-92,-73,-73
-73,-53,19,63,-46,-17,43,-53,-107,-97,-78,-73
-78,-48,29,63,-53,-9,43,-53,-107,-102,-82,-73
-78,-53,24,65,-51,-14,43,-48,-107,-102,-82,-73
-78,-58,19,68,-48,-19,48,-43,-112,-102,-82,-73
-73,-58,14,65,-43,-21,53,-43,-117,-102,-87,-73
-73,-58,14,65,-43,-21,53,-43,-117,-107,-92,-73
-63,-58,4,61,-34,-26,48,-48,-117,-112,-92,-78
-53,-58,-4,56,-24,-31,43,-48,-112,-112,-92,-82
-68,-58,9,63,-39,-24,39,-48,-112,-107,-92,-82
-82,-58,24,70,-53,-17,34,-48,-112,-107,-92,-82
-82,-53,29,68,-56,-12,43,-48,-117,-107,-87,-73
-82,-48,34,65,-58,-7,29,-43,-117,-107,-82,-63
-78,-43,34,61,-56,-4,39,-43,-112,-107,-87,-68
-68,-39,29,53,-48,-4,43,-43,-107,-107,-92,-68
-73,-43,29,58,-51,-7,43,-53,-107,-112,-97,-73
-73,-53,19,63,-46,-17,43,-63,-112,-122,-97,-78
-73,-58,14,65,-43,-21,39,-63,-117,-122,-97,-78
-68,-53,14,61,-41,-19,39,-73,-122,-122,-97,-82
-68,-53,14,61,-41,-19,53,-68,-122,-117,-97,-82
-68,-48,19,58,-43,-14,53,-58,-122,-112,-97,-82
-68,-48,19,58,-43,-14,48,-58,-117,-112,-92,-82
-68,-48,19,58,-43,-14,43,-53,-117,-107,-87,-78
-68,-48,19,58,-43,-14,39,-48,-117,-107,-87,-73
-68,-48,19,58,-43,-14,39,-48,-117,-107,-87,-68
-68,-48,19,58,-43,-14,24,-53,-117,-107,-87,-68
-68,-48,19,58,-43,-14,9,-58,-117,-107,-87,-68
-73,-48,24,61,-48,-12,39,-58,-117,-102,-82,-68
-78,-48,29,63,-53,-9,68,-58,-117,-97,-78,-68
-78,-48,29,63,-53,-9,48,-48,-117,-97,-78,-68
-78,-48,29,63,-53,-9,29,-39,-117,-97,-78,-68
-78,-48,29,63,-53,-9,19,-48,-117,-102,-78,-68
-78,-48,29,63,-53,-9,9,-58,-117,-107,-78,-68
-78,-48,29,63,-53,-9,24,-58,-117,-107,-82,-68
-78,-48,29,63,-53,-9,39,-58,-117,-107,-87,-68
-78,-53,24,65,-51,-14,39,-63,-122,-107,-87,-68
-78,-58,19,68,-48,-19,39,-68,-126,-107,-87,-68
-78,-58,19,68,-48,-19,34,-68,-126,-112,-92,-73
-78,-58,19,68,-48,-19,29,-68,-126,-117,-97,-78
-78,-53,24,65,-51,-14,29,-63,-126,-117,-97,-78
-78,-48,29,63,-53,-9,29,-58,-126,-117,-97,-78
-78,-48,29,63,-53,-9,29,-53,-126,-117,-97,-78
-78,-48,29,63,-53,-9,29,-48,-126,-117,-97,-78
-82,-53,29,68,-56,-12,39,-48,-126,-117,-97,-78
-87,-58,29,73,-58,-14,48,-48,-126,-117,-97,-78
-87,-58,29,73,-58,-14,39,-53,-126,-117,-97,-78
-87,-58,29,73,-58,-14,29,-58,-126,-117,-97,-78
-82,-58,24,70,-53,-17,9,-58,-126,-117,-97,-78
-78,-58,19,68,-48,-19,-9,-58,-126,-117,-97,-78
-78,-58,19,68,-48,-19,4,-58,-126,-117,-97,-78
-78,-58,19,68,-48,-19,19,-58,-126,-117,-97,-78
-78,-58,19,68,-48,-19,19,-58,-126,-117,-97,-78
-78,-58,19,68,-48,-19,19,-58,-126,-117,-97,-78
-73,-58,14,65,-43,-21,19,-58,-126,-117,-92,-78
-68,-58,9,63,-39,-24,19,-58,-126,-117,-87,-78
-68,-43,24,56,-46,-9,29,-58,-117,-107,-82,-73
-68,-29,39,48,-53,4,34,-53,-107,-102,-73,-63
-68,-19,48,43,-58,14,39,-53,-97,-97,-63,-58
-68,-9,58,39,-63,24,48,-39,-97,-92,-53,-58
-63,-4,58,34,-61,26,48,-24,-87,-82,-48,-43
-48,0,48,24,-48,24,58,-9,-73,-73,-58,-39
-43,0,43,21,-43,21,73,0,-63,-68,-53,-34
-39,-9,29,24,-34,9,78,0,-68,-73,-58,-34
-29,-14,14,21,-21,0,68,-9,-78,-73,-53,-39
-29,-14,14,21,-21,0,58,-19,-87,-78,-53,-43
-34,-4,29,19,-31,12,73,-24,-97,-78,-58,-43
-34,4,39,14,-36,21,58,-34,-102,-87,-53,-43
-24,14,39,4,-31,26,48,-39,-97,-82,-58,-39
-19,14,34,2,-26,24,43,-34,-92,-78,-58,-34
-19,4,24,7,-21,14,39,-34,-92,-78,-48,-34
-19,-4,14,12,-17,4,29,-34,-87,-73,-34,-24
-19,-14,4,17,-12,-4,14,-48,-87,-78,-39,-29
-9,-24,-14,17,2,-19,-14,-73,-97,-78,-43,-29
0,-34,-34,17,17,-34,-19,-68,-107,-78,-53,-29
4,-43,-48,19,26,-46,-19,-78,-126,-87,-68,-29
-4,-39,-34,21,14,-36,-9,-82,-126,-92,-63,-34
-29,-24,4,26,-17,-9,0,-87,-131,-97,-58,-39
-43,-24,19,34,-31,-2,0,-92,-131,-97,-58,-39
-63,-24,39,43,-51,7,9,-78,-131,-92,-58,-39
-73,-34,39,53,-56,2,39,-68,-131,-102,-68,-58
-73,-53,19,63,-46,-17,58,-63,-126,-112,-78,-78
-92,-63,29,78,-61,-17,58,-63,-141,-126,-97,-82
-97,-68,29,82,-63,-19,48,-63,-151,-136,-112,-82
-97,-78,19,87,-58,-29,39,-68,-151,-141,-112,-92
-102,-87,14,95,-58,-36,34,-73,-151,-146,-112,-92
-112,-102,9,107,-61,-46,34,-73,-151,-141,-117,-92
-122,-102,19,112,-70,-41,34,-73,-151,-141,-117,-97
-112,-92,19,102,-65,-36,24,-78,-161,-151,-122,-97
-102,-87,14,95,-58,-36,14,-73,-161,-151,-126,-97
-102,-92,9,97,-56,-41,34,-68,-161,-151,-126,-97
-102,-92,9,97,-56,-41,34,-68,-161,-156,-122,-97
-102,-92,9,97,-56,-41,43,-68,-156,-156,-122,-92
-107,-97,9,102,-58,-43,68,-68,-151,-156,-122,-92
-112,-97,14,104,-63,-41,87,-53,-151,-156,-122,-107
-126,-92,34,109,-80,-29,112,-39,-141,-165,-136,-122
-156,-92,63,124,-109,-14,122,-14,-136,-175,-161,-151
-180,-82,97,131,-139,7,161,9,-131,-190,-175,-161
-170,-63,107,117,-139,21,200,39,-102,-165,-161,-146
-131,-39,92,85,-112,26,180,39,-58,-107,-92,-82
-43,-9,34,26,-39,12,102,-24,-4,29,63,68
58,48,-9,-53,34,19,-34,-165,53,204,283,278
195,117,-78,-156,136,19,-263,-458,-43,322,507,522
370,239,-131,-305,251,53,-556,-858,-209,453,795,839
570,405,-165,-488,368,119,-834,-1156,-244,692,1156,1210
780,590,-190,-685,485,200,-1117,-1429,-244,976,1522,1581
951,707,-244,-829,597,231,-1317,-1586,-234,1117,1742,1820
1024,629,-395,-827,710,117,-1424,-1629,-380,976,1590,1712
980,414,-566,-697,773,-75,-1410,-1629,-707,458,1078,1273
854,302,-551,-578,702,-124,-1322,-1532,-951,-24,561,878
692,200,-492,-446,592,-146,-1122,-1356,-1073,-395,141,522
556,102,-453,-329,505,-175,-956,-1156,-1078,-590,-107,307
458,58,-400,-258,429,-170,-785,-936,-927,-570,-161,195
331,4,-326,-168,329,-161,-566,-697,-712,-448,-165,87
195,-34,-229,-80,212,-131,-370,-478,-527,-366,-195,-19
87,-53,-141,-17,114,-97,-219,-326,-356,-273,-175,-53
-4,-58,-53,31,24,-56,-87,-185,-244,-209,-156,-73
-53,-68,-14,61,-19,-41,4,-68,-165,-151,-131,-78
-63,-68,-4,65,-29,-36,29,-4,-97,-102,-102,-82
-87,-73,14,80,-51,-29,58,34,-39,-73,-82,-87
-87,-73,14,80,-51,-29,82,73,-19,-68,-78,-82
-87,-78,9,82,-48,-34,82,92,-19,-68,-78,-82
-82,-82,0,82,-41,-41,102,87,-24,-63,-82,-87
-92,-92,0,92,-46,-46,112,78,-14,-63,-87,-102
-102,-92,9,97,-56,-41,117,82,-9,-63,-87,-102
-102,-92,9,97,-56,-41,117,92,-9,-63,-87,-97
-102,-92,9,97,-56,-41,117,92,-9,-63,-87,-97
-107,-92,14,100,-61,-39,112,92,-4,-63,-92,-102
-112,-92,19,102,-65,-36,112,92,4,-63,-92,-107
-112,-92,19,102,-65,-36,117,92,9,-68,-92,-107
-107,-92,14,100,-61,-39,117,97,9,-68,-92,-107
-102,-97,4,100,-53,-46,117,102,9,-68,-92,-102
-107,-97,9,102,-58,-43,126,102,14,-68,-92,-102
-107,-92,14,100,-61,-39,131,102,14,-63,-92,-102
-107,-92,14,100,-61,-39,131,102,19,-63,-92,-107
-107,-92,14,100,-61,-39,131,102,19,-63,-92,-107
-107,-92,14,100,-61,-39,131,112,24,-53,-87,-107
-107,-92,14,100,-61,-39,136,122,29,-48,-82,-102
-107,-87,19,97,-63,-34,136,122,34,-43,-82,-102
-107,-82,24,95,-65,-29,131,126,39,-39,-82,-102
-107,-78,29,92,-68,-24,131,126,39,-39,-87,-107
-107,-78,29,92,-68,-24,131,126,43,-39,-87,-107
-107,-78,29,92,-68,-24,131,126,43,-39,-92,-112
-107,-78,29,92,-68,-24,136,131,43,-39,-97,-117
-107,-73,34,90,-70,-19,136,131,53,-29,-92,-117
-102,-73,29,87,-65,-21,136,131,58,-24,-87,-112
-102,-73,29,87,-65,-21,136,131,63,-24,-78,-112
-102,-73,29,87,-65,-21,136,136,73,-19,-68,-112
-97,-73,24,85,-61,-24,126,141,73,-24,-78,-112
-92,-73,19,82,-56,-26,122,141,82,-19,-87,-112
-87,-73,14,80,-51,-29,122,156,87,-9,-78,-107
-87,-73,14,80,-51,-29,117,175,97,-9,-73,-102
-87,-68,19,78,-53,-24,117,180,112,4,-63,-97
-82,-63,19,73,-51,-21,122,190,117,14,-58,-92
-82,-58,24,70,-53,-17,131,185,126,19,-58,-92
-82,-58,24,70,-53,-17,136,185,131,24,-53,-92
-82,-58,24,70,-53,-17,136,195,146,29,-43,-92
-82,-48,34,65,-58,-7,131,204,165,34,-39,-87
-78,-48,29,63,-53,-9,131,229,175,43,-34,-82
-78,-43,34,61,-56,-4,131,248,195,58,-24,-78
-68,-39,29,53,-48,-4,136,248,204,68,-24,-73
-68,-39,29,53,-48,-4,136,248,219,78,-14,-68
-48,-29,19,39,-34,-4,136,258,244,92,-4,-63
-43,-24,19,34,-31,-2,131,273,263,112,4,-53
-39,-14,24,26,-31,4,131,302,292,136,24,-34
-34,-4,29,19,-31,12,136,331,326,161,48,-24
-29,0,29,14,-29,14,136,356,356,175,58,-9
-19,4,24,7,-21,14,126,375,380,200,73,0
-14,19,34,-2,-24,26,146,395,409,219,82,4
-9,24,34,-7,-21,29,156,405,444,244,102,14
0,39,39,-19,-19,39,131,453,483,278,112,29
14,48,34,-31,-9,41,122,492,522,307,131,34
24,53,29,-39,-2,41,126,507,551,331,151,48
34,63,29,-48,2,46,126,531,595,356,165,68
48,78,29,-63,9,53,122,556,634,390,195,82
58,82,24,-70,17,53,122,590,678,429,214,102
68,92,24,-80,21,58,117,619,722,463,234,112
87,117,29,-102,29,73,112,639,766,492,263,122
92,136,43,-114,24,90,102,663,810,517,283,146
112,156,43,-134,34,100,92,692,849,551,297,151
122,180,58,-151,31,119,87,702,878,570,317,165
131,190,58,-161,36,124,87,717,893,590,336,180
141,195,53,-168,43,124,87,727,917,610,346,195
151,204,53,-178,48,129,73,732,927,619,361,204
156,229,73,-192,41,151,63,727,922,619,361,204
156,239,82,-197,36,161,48,712,912,614,356,204
151,248,97,-200,26,173,48,663,878,580,336,200
141,253,112,-197,14,183,43,605,839,536,317,190
136,258,122,-197,7,190,39,561,795,502,292,180
131,258,126,-195,2,192,34,512,736,463,263,161
112,248,136,-180,-12,192,24,453,668,419,239,146
97,239,141,-168,-21,190,19,395,614,375,214,131
82,219,136,-151,-26,178,19,351,536,317,175,107
63,195,131,-129,-34,163,24,317,463,268,141,87
53,175,122,-114,-34,148,39,253,395,219,112,68
43,161,117,-102,-36,139,48,224,326,170,87,53
34,131,97,-82,-31,114,48,175,263,131,63,39
29,117,87,-73,-29,102,43,131,200,102,48,19
19,97,78,-58,-29,87,34,87,146,63,34,9
9,68,58,-39,-24,63,24,48,107,29,9,0
-4,43,48,-19,-26,46,34,19,68,9,0,-4
-14,29,43,-7,-29,36,19,-9,34,-4,0,-9
-19,19,39,0,-29,29,19,-14,14,-9,-4,-14
-24,4,29,9,-26,17,24,-14,-9,-19,-14,-14
-29,-4,24,17,-26,9,24,-29,-34,-34,-19,-9
-29,-14,14,21,-21,0,19,-43,-48,-43,-24,-9
-29,-24,4,26,-17,-9,9,-63,-63,-53,-24,-14
-34,-29,4,31,-19,-12,9,-78,-78,-63,-34,-14
-39,-24,14,31,-26,-4,4,-87,-92,-68,-39,-19
-39,-24,14,31,-26,-4,0,-87,-92,-78,-43,-19
-39,-29,9,34,-24,-9,0,-82,-97,-78,-43,-19
-39,-29,9,34,-24,-9,0,-78,-97,-82,-43,-19
-39,-29,9,34,-24,-9,14,-73,-97,-82,-43,-24
-43,-29,14,36,-29,-7,14,-68,-97,-82,-39,-24
-43,-29,14,36,-29,-7,29,-68,-97,-82,-39,-24
-43,-34,9,39,-26,-12,39,-73,-97,-82,-39,-24
-39,-34,4,36,-21,-14,29,-78,-102,-82,-39,-29
-39,-34,4,36,-21,-14,24,-82,-107,-82,-39,-34
-39,-34,4,36,-21,-14,19,-82,-107,-82,-43,-39
-43,-34,9,39,-26,-12,19,-73,-107,-82,-43,-39
-43,-34,9,39,-26,-12,19,-68,-102,-82,-43,-39
-43,-39,4,41,-24,-17,24,-63,-102,-78,-43,-39
-39,-39,0,39,-19,-19,24,-58,-97,-78,-43,-34
-34,-39,-4,36,-14,-21,24,-58,-92,-78,-48,-34
-34,-29,4,31,-19,-12,19,-58,-92,-73,-48,-34
-34,-39,-4,36,-14,-21,19,-58,-87,-73,-48,-29
-34,-43,-9,39,-12,-26,14,-63,-78,-68,-43,-29
-39,-43,-4,41,-17,-24,9,-63,-78,-68,-43,-34
-48,-48,0,48,-24,-24,9,-63,-78,-63,-43,-39
-58,-48,9,53,-34,-19,9,-58,-78,-63,-43,-39
-58,-48,9,53,-34,-19,29,-53,-82,-63,-43,-34
-58,-48,9,53,-34,-19,48,-53,-82,-63,-43,-29
-53,-34,19,43,-36,-7,53,-43,-78,-63,-43,-29
-48,-24,24,36,-36,0,53,-39,-73,-63,-43,-29
-48,-24,24,36,-36,0,53,-39,-68,-58,-43,-29
-48,-24,24,36,-36,0,53,-39,-68,-58,-43,-34
-48,-34,14,41,-31,-9,58,-53,-68,-58,-43,-39
-43,-34,9,39,-26,-12,58,-68,-68,-58,-43,-43
-43,-34,9,39,-26,-12,48,-53,-68,-58,-43,-48
-48,-29,19,39,-34,-4,39,-39,-68,-58,-53,-53
-53,-24,29,39,-41,2,39,-39,-68,-58,-53,-53
-53,-24,29,39,-41,2,39,-29,-68,-58,-53,-53
-53,-29,24,41,-39,-2,48,-29,-68,-58,-53,-48
-53,-34,19,43,-36,-7,53,-24,-68,-58,-53,-43
-53,-34,19,43,-36,-7,48,-24,-73,-58,-53,-43
-58,-39,19,48,-39,-9,48,-24,-78,-63,-53,-48
-68,-43,24,56,-46,-9,34,-34,-78,-63,-63,-48
-73,-43,29,58,-51,-7,24,-34,-78,-68,-63,-53
-73,-43,29,58,-51,-7,34,-39,-73,-68,-63,-53
-73,-43,29,58,-51,-7,53,-43,-73,-68,-63,-53
-63,-43,19,53,-41,-12,53,-39,-73,-68,-63,-58
-53,-43,9,48,-31,-17,58,-39,-73,-68,-58,-58
-53,-43,9,48,-31,-17,58,-48,-73,-73,-58,-58
-58,-39,19,48,-39,-9,53,-53,-78,-82,-68,-63
-68,-39,29,53,-48,-4,53,-53,-82,-82,-68,-68
-73,-39,34,56,-53,-2,53,-48,-82,-82,-68,-73
-73,-39,34,56,-53,-2,43,-48,-82,-82,-68,-68
-73,-43,29,58,-51,-7,43,-53,-82,-82,-68,-68
-73,-43,29,58,-51,-7,43,-43,-87,-82,-68,-63
-68,-43,24,56,-46,-9,43,-39,-82,-78,-68,-63
-63,-39,24,51,-43,-7,43,-39,-87,-82,-73,-68
-63,-39,24,51,-43,-7,43,-39,-87,-82,-73,-68
-63,-48,14,56,-39,-17,34,-39,-92,-97,-78,-78
-63,-53,9,58,-36,-21,29,-43,-97,-112,-82,-82
-63,-53,9,58,-36,-21,34,-43,-97,-102,-82,-73
-68,-48,19,58,-43,-14,34,-43,-97,-92,-82,-63
-68,-48,19,58,-43,-14,34,-48,-97,-92,-82,-63
-68,-48,19,58,-43,-14,39,-53,-102,-92,-82,-63
-63,-48,14,56,-39,-17,43,-53,-107,-92,-78,-63
-63,-48,14,56,-39,-17,43,-53,-107,-97,-73,-63
-68,-48,19,58,-43,-14,53,-63,-107,-97,-68,-63
-73,-48,24,61,-48,-12,63,-68,-102,-92,-63,-63
-73,-48,24,61,-48,-12,48,-68,-102,-87,-63,-63
-73,-48,24,61,-48,-12,34,-68,-102,-87,-63,-63
-68,-48,19,58,-43,-14,43,-68,-107,-87,-63,-58
-63,-48,14,56,-39,-17,29,-63,-107,-87,-63,-53
-68,-48,19,58,-43,-14,29,-63,-107,-87,-68,-58
-68,-48,19,58,-43,-14,24,-63,-107,-87,-73,-58
-73,-53,19,63,-46,-17,24,-63,-107,-87,-78,-63
-73,-63,9,68,-41,-26,24,-63,-112,-92,-78,-68
-73,-63,9,68,-41,-26,0,-63,-112,-92,-78,-63
-68,-53,14,61,-41,-19,-19,-73,-112,-92,-78,-63
-68,-53,14,61,-41,-19,29,-73,-112,-97,-78,-63
-68,-48,19,58,-43,-14,63,-68,-112,-102,-78,-63
-73,-48,24,61,-48,-12,63,-68,-112,-102,-78,-68
-78,-48,29,63,-53,-9,63,-63,-117,-97,-78,-68
-78,-48,29,63,-53,-9,48,-58,-117,-97,-78,-68
-78,-48,29,63,-53,-9,39,-58,-117,-97,-78,-68
-73,-48,24,61,-48,-12,39,-48,-112,-97,-78,-63
-68,-48,19,58,-43,-14,39,-39,-107,-97,-78,-58
-68,-48,19,58,-43,-14,29,-48,-107,-97,-78,-58
-68,-48,19,58,-43,-14,19,-58,-107,-97,-78,-58
-68,-48,19,58,-43,-14,19,-58,-112,-97,-78,-58
-68,-48,19,58,-43,-14,19,-58,-117,-97,-78,-58
-73,-48,24,61,-48,-12,19,-58,-117,-97,-78,-63
-78,-48,29,63,-53,-9,19,-58,-117,-97,-78,-68
-78,-53,24,65,-51,-14,19,-58,-117,-97,-78,-68
-78,-58,19,68,-48,-19,19,-58,-117,-97,-78,-68
-78,-58,19,68,-48,-19,19,-63,-117,-97,-78,-63
-78,-58,19,68,-48,-19,19,-68,-117,-97,-78,-58
-78,-58,19,68,-48,-19,19,-68,-117,-97,-78,-58
-78,-58,19,68,-48,-19,19,-68,-117,-97,-78,-58
-78,-58,19,68,-48,-19,4,-68,-117,-102,-82,-58
-78,-58,19,68,-48,-19,-9,-68,-117,-107,-87,-58
-78,-58,19,68,-48,-19,0,-68,-117,-107,-87,-63
-78,-58,19,68,-48,-19,9,-68,-117,-107,-87,-68
-78,-58,19,68,-48,-19,19,-68,-117,-107,-87,-68
-78,-58,19,68,-48,-19,29,-68,-117,-107,-87,-68
-78,-58,19,68,-48,-19,34,-68,-117,-102,-82,-68
-78,-58,19,68,-48,-19,39,-68,-117,-97,-78,-68
-82,-58,24,70,-53,-17,39,-58,-117,-97,-78,-68
-87,-58,29,73,-58,-14,39,-48,-117,-97,-78,-68
-87,-58,29,73,-58,-14,39,-48,-117,-97,-78,-68
-87,-58,29,73,-58,-14,39,-48,-117,-97,-78,-68
-87,-58,29,73,-58,-14,34,-48,-117,-97,-78,-63
-87,-58,29,73,-58,-14,29,-48,-117,-97,-78,-58
-82,-58,24,70,-53,-17,29,-48,-117,-97,-78,-58
-78,-58,19,68,-48,-19,29,-48,-117,-97,-78,-58
-78,-58,19,68,-48,-19,24,-68,-117,-97,-82,-63
-78,-58,19,68,-48,-19,19,-87,-117,-97,-87,-68
-78,-58,19,68,-48,-19,9,-78,-117,-102,-87,-68
-78,-58,19,68,-48,-19,0,-68,-117,-107,-87,-68
-78,-58,19,68,-48,-19,14,-63,-117,-107,-82,-68
-78,-58,19,68,-48,-19,29,-58,-117,-107,-78,-68
-78,-58,19,68,-48,-19,29,-58,-112,-102,-78,-63
-78,-58,19,68,-48,-19,29,-58,-107,-97,-78,-58
-78,-58,19,68,-48,-19,34,-58,-107,-97,-78,-58
-78,-58,19,68,-48,-19,39,-58,-107,-97,-78,-58
-78,-58,19,68,-48,-19,48,-63,-112,-107,-82,-68
-78,-58,19,68,-48,-19,58,-68,-117,-117,-87,-78
-78,-58,19,68,-48,-19,39,-68,-117,-117,-87,-78
-78,-58,19,68,-48,-19,19,-68,-117,-117,-87,-78
-78,-63,14,70,-46,-24,19,-58,-117,-112,-87,-73
-78,-68,9,73,-43,-29,19,-48,-117,-107,-87,-68
-78,-68,9,73,-43,-29,24,-48,-117,-107,-87,-68
-78,-68,9,73,-43,-29,29,-48,-117,-107,-87,-68
-78,-58,19,68,-48,-19,34,-53,-117,-107,-87,-68
-78,-48,29,63,-53,-9,39,-58,-117,-107,-87,-68
-78,-48,29,63,-53,-9,39,-58,-117,-102,-82,-68
-73,-43,29,58,-51,-7,39,-58,-112,-97,-78,-63
-73,-43,29,58,-51,-7,39,-58,-112,-92,-73,-63
-73,-39,34,56,-53,-2,39,-58,-97,-87,-73,-58
-68,-24,43,46,-56,9,48,-39,-97,-82,-73,-58
-63,-4,58,34,-61,26,53,-24,-87,-73,-58,-43
-48,9,58,19,-53,34,68,-19,-78,-68,-58,-39
-43,9,53,17,-48,31,82,0,-68,-58,-43,-34
-39,-9,29,24,-34,9,97,9,-68,-53,-39,-34
-29,-24,4,26,-17,-9,107,9,-68,-53,-34,-34
-29,-24,4,26,-17,-9,97,4,-63,-53,-34,-34
-34,-19,14,26,-24,-2,102,-4,-68,-53,-43,-34
-34,-9,24,21,-29,7,87,-14,-73,-68,-43,-34
-24,4,29,9,-26,17,78,-24,-78,-68,-48,-34
-19,4,24,7,-21,14,73,-24,-82,-68,-48,-34
-19,4,24,7,-21,14,68,-24,-82,-68,-48,-34
-19,4,24,7,-21,14,63,-19,-78,-63,-43,-24
-19,0,19,9,-19,9,43,-14,-68,-58,-39,-24
-4,-4,0,4,-2,-2,4,-24,-73,-48,-34,-19
9,-14,-24,2,17,-19,0,-29,-78,-48,-34,-19
14,-24,-39,4,26,-31,-4,-53,-87,-58,-43,-19
14,-34,-48,9,31,-41,-9,-68,-102,-73,-58,-29
-9,-34,-24,21,7,-29,-9,-92,-122,-92,-68,-39
-34,-24,9,29,-21,-7,-9,-117,-122,-97,-68,-39
-53,-14,39,34,-46,12,0,-92,-122,-92,-68,-34
-73,-14,58,43,-65,21,29,-68,-117,-92,-68,-34
-78,-24,53,51,-65,14,48,-63,-102,-82,-63,-39
-92,-48,43,70,-68,-2,48,-63,-112,-87,-78,-53
-97,-68,29,82,-63,-19,39,-63,-122,-97,-92,-63
-97,-68,29,82,-63,-19,39,-63,-122,-102,-92,-73
-97,-58,39,78,-68,-9,43,-63,-122,-112,-92,-73
-92,-63,29,78,-61,-17,43,-63,-126,-117,-102,-78
-92,-73,19,82,-56,-26,43,-63,-131,-122,-107,-87
-92,-78,14,85,-53,-31,43,-73,-141,-131,-112,-87
-97,-78,19,87,-58,-29,43,-73,-141,-131,-117,-87
-102,-82,19,92,-61,-31,53,-68,-141,-126,-117,-87
-102,-78,24,90,-63,-26,43,-68,-141,-126,-107,-87
-102,-73,29,87,-65,-21,43,-63,-136,-126,-102,-82
-97,-78,19,87,-58,-29,53,-63,-131,-117,-97,-73
-92,-78,14,85,-53,-31,58,-53,-131,-107,-92,-78
-107,-78,29,92,-68,-24,73,-39,-122,-117,-107,-92
-136,-82,53,109,-95,-14,97,-14,-117,-126,-131,-122
-180,-78,102,129,-141,12,165,14,-122,-161,-165,-151
-200,-68,131,134,-165,31,219,48,-102,-165,-185,-170
-195,-63,131,129,-163,34,224,82,-78,-161,-185,-175
-136,-48,87,92,-112,19,200,87,-19,-68,-92,-92
-48,-4,43,26,-46,19,156,78,146,122,92,53
78,43,-34,-61,56,4,4,-136,131,244,273,234
244,117,-126,-180,185,-4,-273,-575,-63,317,483,483
453,239,-214,-346,334,12,-575,-932,-141,507,800,814
727,473,-253,-600,490,109,-941,-1288,-117,873,1278,1283
961,668,-292,-814,627,187,-1229,-1517,-39,1185,1693,1688
1137,688,-448,-912,793,119,-1439,-1634,-82,1322,1854,1859
1190,531,-658,-861,924,-63,-1522,-1698,-375,956,1522,1586
1098,395,-702,-746,900,-153,-1522,-1708,-761,356,917,1132
941,278,-663,-610,802,-192,-1361,-1586,-1010,-141,409,722
771,165,-605,-468,688,-219,-1161,-1361,-1141,-517,29,439
653,102,-551,-378,602,-224,-995,-1141,-1093,-629,-122,283
522,43,-478,-283,500,-217,-775,-893,-878,-507,-136,165
366,4,-361,-185,363,-178,-556,-658,-683,-419,-175,43
209,-14,-224,-97,217,-119,-366,-458,-468,-317,-165,-24
78,-19,-97,-29,87,-58,-204,-283,-317,-244,-156,-73
0,-34,-34,17,17,-34,-92,-146,-229,-180,-131,-82
-34,-43,-9,39,-12,-26,-39,-58,-151,-126,-102,-87
-58,-53,4,56,-31,-24,24,0,-63,-78,-82,-87
-58,-53,4,56,-31,-24,82,53,-19,-58,-78,-82
-58,-48,9,53,-34,-19,97,82,-19,-58,-78,-82
-58,-43,14,51,-36,-14,112,97,-19,-53,-82,-87
-78,-63,14,70,-46,-24,112,97,-4,-53,-87,-102
-92,-73,19,82,-56,-26,117,102,0,-53,-87,-102
-97,-73,24,85,-61,-24,107,112,0,-53,-87,-97
-97,-73,24,85,-61,-24,107,112,0,-53,-87,-97
-97,-73,24,85,-61,-24,112,107,4,-53,-92,-102
-102,-73,29,87,-65,-21,112,102,14,-48,-92,-107
-102,-73,29,87,-65,-21,117,102,19,-48,-87,-107
-102,-73,29,87,-65,-21,117,112,19,-48,-82,-107
-102,-78,24,90,-63,-26,117,122,19,-48,-82,-102
-107,-78,29,92,-68,-24,122,122,24,-48,-82,-102
-107,-73,34,90,-70,-19,131,122,24,-43,-82,-102
-107,-73,34,90,-70,-19,141,122,29,-43,-82,-107
-107,-73,34,90,-70,-19,141,122,24,-43,-87,-112
-107,-73,34,90,-70,-19,141,126,24,-39,-87,-117
-107,-73,34,90,-70,-19,141,122,29,-43,-82,-112
-107,-73,34,90,-70,-19,136,112,34,-43,-82,-112
-107,-73,34,90,-70,-19,131,117,39,-39,-82,-112
-107,-68,39,87,-73,-14,131,117,39,-39,-87,-117
-107,-68,39,87,-73,-14,131,131,48,-39,-82,-117
-107,-68,39,87,-73,-14,131,146,53,-39,-78,-117
-107,-68,39,87,-73,-14,136,151,53,-34,-78,-112
-107,-63,43,85,-75,-9,136,151,63,-19,-73,-107
-102,-68,34,85,-68,-17,136,151,68,-14,-68,-102
-102,-73,29,87,-65,-21,136,156,73,-14,-68,-102
-102,-73,29,87,-65,-21,136,165,82,-9,-68,-102
-102,-73,29,87,-65,-21,136,170,82,-9,-68,-102
-102,-73,29,87,-65,-21,151,170,92,-4,-73,-102
-97,-68,29,82,-63,-19,161,175,97,0,-68,-97
-97,-63,34,80,-65,-14,136,180,102,0,-63,-97
-97,-58,39,78,-68,-9,112,180,112,9,-58,-102
-92,-48,43,70,-68,-2,122,190,112,14,-58,-102
-92,-43,48,68,-70,2,136,195,117,19,-58,-102
-92,-48,43,70,-68,-2,141,204,122,24,-53,-102
-92,-48,43,70,-68,-2,146,214,136,34,-43,-97
-87,-39,48,63,-68,4,141,224,156,43,-39,-87
-78,-39,39,58,-58,0,141,239,165,53,-34,-82
-78,-34,43,56,-61,4,146,248,185,63,-29,-78
-68,-29,39,48,-53,4,156,258,195,68,-29,-73
-73,-34,39,53,-56,2,156,258,209,78,-14,-68
-63,-29,34,46,-48,2,156,258,234,92,-4,-63
-63,-24,39,43,-51,7,151,287,253,112,4,-53
-58,-19,39,39,-48,9,151,322,273,131,14,-43
-53,-14,39,34,-46,12,156,341,297,151,29,-43
-48,-9,39,29,-43,14,156,366,326,165,39,-29
-39,-4,34,21,-36,14,136,385,351,190,53,-19
-29,9,39,9,-34,24,136,405,380,209,68,-9
-19,14,34,2,-26,24,122,414,414,234,92,4
-9,29,39,-9,-24,34,92,453,453,268,102,19
4,39,34,-21,-14,36,107,488,492,297,122,24
14,48,34,-31,-9,41,126,522,527,326,146,39
24,58,34,-41,-4,46,141,561,575,356,156,58
39,68,29,-53,4,48,151,585,614,390,175,73
53,73,19,-63,17,46,151,624,658,429,204,92
68,82,14,-75,26,48,146,658,707,463,234,107
87,107,19,-97,34,63,141,678,756,492,263,122
92,126,34,-109,29,80,131,702,800,522,283,146
112,146,34,-129,39,90,122,741,844,561,302,156
122,170,48,-146,36,109,117,761,888,585,326,175
136,180,43,-158,46,112,117,780,917,614,346,190
151,190,39,-170,56,114,117,790,946,639,356,204
161,204,43,-183,58,124,92,795,961,649,370,214
165,229,63,-197,51,146,73,795,966,649,370,214
170,239,68,-204,51,153,58,780,966,649,366,214
170,248,78,-209,46,163,53,746,941,634,356,214
161,253,92,-207,34,173,43,702,912,610,346,209
156,258,102,-207,26,180,39,663,878,580,322,200
146,258,112,-202,17,185,14,619,824,541,292,180
122,248,126,-185,-2,187,-4,570,756,492,263,161
107,244,136,-175,-14,190,24,522,707,448,244,141
92,234,141,-163,-24,187,48,468,634,395,214,117
73,214,141,-143,-34,178,53,409,561,351,180,102
63,195,131,-129,-34,163,53,331,492,302,151,87
53,185,131,-119,-39,158,34,302,424,248,126,73
39,156,117,-97,-39,136,19,253,361,204,97,58
24,146,122,-85,-48,134,29,204,292,170,78,34
9,136,126,-73,-58,131,43,156,224,131,63,19
0,107,107,-53,-53,107,43,107,170,92,39,9
-9,82,92,-36,-51,87,53,68,122,58,24,4
-14,68,82,-26,-48,75,29,39,82,29,14,0
-19,58,78,-19,-48,68,19,14,53,9,4,-4
-24,43,68,-9,-46,56,19,-9,14,-9,-4,-9
-29,34,63,-2,-46,48,14,-29,-14,-24,-9,-14
-29,24,53,2,-41,39,9,-43,-34,-34,-14,-19
-29,14,43,7,-36,29,0,-53,-53,-43,-14,-24
-34,0,34,17,-34,17,4,-58,-68,-53,-24,-19
-39,-9,29,24,-34,9,9,-68,-82,-58,-29,-19
-39,-14,24,26,-31,4,24,-68,-82,-68,-34,-19
-39,-19,19,29,-29,0,39,-68,-92,-68,-34,-19
-39,-24,14,31,-26,-4,29,-68,-97,-73,-34,-19
-39,-29,9,34,-24,-9,34,-68,-97,-73,-39,-24
-43,-29,14,36,-29,-7,24,-68,-97,-73,-39,-24
-43,-29,14,36,-29,-7,19,-68,-97,-73,-39,-24
-43,-34,9,39,-26,-12,19,-73,-97,-73,-39,-24
-39,-34,4,36,-21,-14,9,-73,-102,-73,-39,-24
-39,-34,4,36,-21,-14,4,-78,-107,-73,-39,-24
-39,-34,4,36,-21,-14,4,-82,-107,-73,-43,-29
-43,-34,9,39,-26,-12,14,-73,-107,-73,-43,-29
-43,-34,9,39,-26,-12,19,-73,-102,-73,-39,-29
-43,-39,4,41,-24,-17,24,-73,-102,-68,-34,-29
-43,-39,4,41,-24,-17,24,-73,-102,-68,-34,-29
-43,-39,4,41,-24,-17,19,-73,-102,-68,-39,-34
-43,-29,14,36,-29,-7,9,-68,-102,-63,-39,-34
-43,-29,14,36,-29,-7,9,-68,-92,-63,-39,-29
-43,-24,19,34,-31,-2,9,-63,-78,-58,-34,-24
-48,-24,24,36,-36,0,24,-58,-78,-63,-34,-24
-48,-24,24,36,-36,0,39,-63,-78,-63,-34,-29
-48,-24,24,36,-36,0,29,-58,-82,-63,-34,-29
-48,-29,19,39,-34,-4,24,-53,-87,-63,-34,-29
-48,-29,19,39,-34,-4,24,-53,-82,-63,-34,-29
-48,-24,24,36,-36,0,24,-48,-78,-63,-34,-29
-48,-24,24,36,-36,0,24,-48,-73,-63,-34,-29
-48,-24,24,36,-36,0,24,-48,-68,-58,-34,-29
-53,-24,29,39,-41,2,24,-43,-68,-58,-34,-34
-63,-34,29,48,-46,-2,29,-39,-68,-58,-34,-34
-63,-34,29,48,-46,-2,53,-34,-68,-58,-34,-34
-63,-34,29,48,-46,-2,78,-29,-68,-58,-34,-39
-63,-29,34,46,-48,2,68,-29,-68,-53,-43,-43
-58,-24,34,41,-46,4,58,-29,-68,-48,-43,-43
-53,-24,29,39,-41,2,48,-29,-68,-48,-48,-43
-53,-24,29,39,-41,2,43,-39,-68,-48,-53,-43
-53,-24,29,39,-41,2,43,-34,-68,-53,-53,-43
-53,-24,29,39,-41,2,39,-34,-68,-58,-53,-43
-58,-29,29,43,-43,0,39,-24,-68,-63,-53,-48
-63,-34,29,48,-46,-2,34,-24,-68,-63,-63,-48
-63,-39,24,51,-43,-7,34,-24,-68,-68,-63,-53
-63,-43,19,53,-41,-12,34,-24,-68,-68,-63,-53
-63,-43,19,53,-41,-12,43,-34,-73,-68,-63,-53
-63,-43,19,53,-41,-12,43,-39,-73,-68,-68,-58
-63,-43,19,53,-41,-12,58,-39,-73,-63,-58,-58
-63,-48,14,56,-39,-17,68,-48,-73,-63,-48,-58
-68,-48,19,58,-43,-14,53,-53,-78,-73,-58,-63
-68,-48,19,58,-43,-14,43,-53,-82,-73,-58,-63
-63,-43,19,53,-41,-12,43,-48,-82,-78,-63,-63
-63,-39,24,51,-43,-7,34,-48,-82,-82,-68,-58
-63,-43,19,53,-41,-12,34,-48,-82,-82,-68,-58
-68,-43,24,56,-46,-9,34,-43,-92,-87,-68,-58
-68,-53,14,61,-41,-19,34,-48,-92,-87,-68,-63
-63,-58,4,61,-34,-26,34,-48,-97,-92,-73,-68
-63,-48,14,56,-39,-17,29,-48,-97,-92,-78,-68
-63,-43,19,53,-41,-12,19,-43,-97,-92,-82,-68
-63,-43,19,53,-41,-12,19,-43,-97,-92,-82,-63
-63,-43,19,53,-41,-12,24,-43,-97,-92,-82,-63
-73,-43,29,58,-51,-7,39,-43,-97,-92,-78,-63
-78,-48,29,63,-53,-9,53,-48,-97,-92,-73,-63
-78,-48,29,63,-53,-9,58,-63,-102,-92,-73,-63
-73,-48,24,61,-48,-12,63,-73,-107,-92,-73,-63
-68,-48,19,58,-43,-14,63,-63,-107,-97,-73,-63
-63,-48,14,56,-39,-17,58,-58,-107,-102,-73,-63
-63,-48,14,56,-39,-17,34,-58,-102,-102,-73,-63
-63,-48,14,56,-39,-17,14,-58,-102,-97,-73,-63
-63,-48,14,56,-39,-17,29,-58,-107,-97,-82,-68
-63,-48,14,56,-39,-17,53,-58,-117,-97,-92,-73
-63,-48,14,56,-39,-17,48,-53,-117,-97,-82,-73
-68,-48,19,58,-43,-14,58,-53,-117,-97,-78,-78
-68,-48,19,58,-43,-14,34,-58,-117,-97,-82,-73
-73,-53,19,63,-46,-17,14,-63,-117,-97,-82,-68
-73,-53,19,63,-46,-17,14,-63,-122,-102,-78,-68
-73,-43,29,58,-51,-7,9,-63,-122,-102,-78,-63
-78,-43,34,61,-56,-4,19,-73,-122,-102,-78,-63
-87,-53,34,70,-61,-9,48,-73,-122,-102,-78,-63
-78,-48,29,63,-53,-9,53,-68,-122,-102,-78,-63
-68,-48,19,58,-43,-14,53,-68,-126,-102,-78,-68
-68,-48,19,58,-43,-14,48,-63,-126,-97,-78,-68
-68,-48,19,58,-43,-14,48,-58,-126,-97,-78,-68
-68,-48,19,58,-43,-14,39,-58,-126,-102,-82,-68
-68,-48,19,58,-43,-14,29,-58,-126,-107,-87,-68
-68,-48,19,58,-43,-14,24,-63,-126,-112,-92,-68
-68,-48,19,58,-43,-14,19,-68,-126,-117,-97,-68
-68,-48,19,58,-43,-14,19,-73,-126,-117,-97,-73
-68,-48,19,58,-43,-14,19,-78,-126,-117,-97,-78
-68,-48,19,58,-43,-14,19,-78,-126,-112,-87,-78
-68,-48,19,58,-43,-14,19,-78,-126,-107,-78,-78
-68,-48,19,58,-43,-14,19,-73,-126,-107,-78,-73
-68,-48,19,58,-43,-14,19,-68,-126,-107,-78,-68
-68,-53,14,61,-41,-19,29,-68,-126,-107,-78,-68
-68,-58,9,63,-39,-24,39,-68,-126,-107,-78,-68
-68,-58,9,63,-39,-24,39,-68,-126,-107,-78,-68
-68,-58,9,63,-39,-24,39,-68,-126,-107,-78,-68
-68,-58,9,63,-39,-24,29,-68,-126,-107,-78,-68
-68,-58,9,63,-39,-24,19,-68,-126,-107,-78,-68
-68,-58,9,63,-39,-24,19,-63,-126,-107,-78,-68
-68,-58,9,63,-39,-24,19,-58,-126,-107,-78,-68
-68,-53,14,61,-41,-19,34,-58,-122,-107,-78,-68
-68,-48,19,58,-43,-14,48,-58,-117,-107,-78,-68
-68,-48,19,58,-43,-14,39,-58,-117,-107,-82,-73
-68,-48,19,58,-43,-14,29,-58,-117,-107,-87,-78
-68,-53,14,61,-41,-19,29,-63,-122,-107,-87,-78
-68,-58,9,63,-39,-24,29,-68,-126,-107,-87,-78
-68,-58,9,63,-39,-24,14,-68,-126,-107,-87,-73
-68,-58,9,63,-39,-24,0,-68,-126,-107,-87,-68
-68,-58,9,63,-39,-24,0,-68,-126,-112,-87,-68
-68,-58,9,63,-39,-24,0,-68,-126,-117,-87,-68
-68,-58,9,63,-39,-24,29,-73,-131,-117,-92,-73
-68,-58,9,63,-39,-24,58,-78,-136,-117,-97,-78
-68,-58,9,63,-39,-24,48,-78,-136,-117,-97,-78
-68,-58,9,63,-39,-24,39,-78,-136,-117,-97,-78
-68,-58,9,63,-39,-24,29,-68,-131,-117,-92,-78
-68,-58,9,63,-39,-24,19,-58,-126,-117,-87,-78
-68,-58,9,63,-39,-24,29,-58,-126,-117,-87,-78
-68,-58,9,63,-39,-24,39,-58,-126,-117,-87,-78
-68,-58,9,63,-39,-24,39,-58,-126,-117,-87,-73
-68,-58,9,63,-39,-24,39,-58,-126,-117,-87,-68
-73,-63,9,68,-41,-26,34,-63,-126,-117,-87,-68
-78,-68,9,73,-43,-29,29,-68,-126,-117,-87,-68
-78,-68,9,73,-43,-29,19,-68,-126,-117,-87,-68
-78,-68,9,73,-43,-29,9,-68,-126,-117,-87,-68
-73,-68,4,70,-39,-31,19,-68,-126,-117,-87,-68
-68,-68,0,68,-34,-34,29,-68,-126,-117,-87,-68
-63,-63,0,63,-31,-31,29,-82,-126,-117,-92,-73
-58,-58,0,58,-29,-29,29,-97,-126,-117,-97,-78
-58,-53,4,56,-31,-24,19,-82,-126,-117,-97,-78
-58,-48,9,53,-34,-19,9,-68,-126,-117,-97,-78
-63,-48,14,56,-39,-17,24,-58,-126,-117,-97,-78
-68,-48,19,58,-43,-14,39,-48,-126,-117,-97,-78
-68,-48,19,58,-43,-14,39,-48,-126,-117,-97,-78
-68,-48,19,58,-43,-14,39,-48,-126,-117,-97,-78
-68,-53,14,61,-41,-19,29,-48,-126,-112,-97,-73
-63,-53,9,58,-36,-21,29,-48,-126,-107,-87,-68
-63,-53,9,58,-36,-21,29,-48,-126,-107,-82,-63
-63,-48,14,56,-39,-17,39,-48,-117,-107,-73,-58
-58,-34,24,46,-41,-4,48,-39,-117,-102,-73,-63
-53,-14,39,34,-46,12,53,-34,-107,-92,-58,-53
-39,0,39,19,-39,19,68,-39,-92,-82,-63,-48
-34,0,34,17,-34,17,82,-29,-78,-68,-53,-43
-29,-9,19,19,-24,4,87,-19,-78,-63,-48,-43
-19,-14,4,17,-12,-4,87,-19,-78,-63,-43,-43
-24,-19,4,21,-14,-7,82,-19,-78,-68,-48,-43
-34,-19,14,26,-24,-2,92,-24,-87,-73,-63,-43
-34,-14,19,24,-26,2,78,-34,-92,-87,-63,-43
-24,-4,19,14,-21,7,68,-43,-97,-87,-68,-43
-14,0,14,7,-14,7,63,-34,-102,-87,-68,-43
-9,4,14,2,-12,9,58,-24,-102,-87,-68,-43
-9,4,14,2,-12,9,53,-19,-92,-78,-58,-29
-9,0,9,4,-9,4,34,-14,-78,-68,-48,-24
0,-4,-4,2,2,-4,-4,-24,-78,-58,-43,-19
9,-14,-24,2,17,-19,-9,-29,-78,-58,-43,-19
14,-34,-48,9,31,-41,-9,-58,-92,-78,-53,-24
14,-53,-68,19,41,-61,-9,-78,-112,-102,-68,-39
4,-43,-48,19,26,-46,-19,-87,-131,-117,-78,-48
-4,-24,-19,14,7,-21,-29,-97,-131,-117,-78,-48
-24,-14,9,19,-17,-2,-19,-87,-131,-107,-78,-48
-43,-14,29,29,-36,7,9,-78,-126,-102,-78,-53
-58,-24,34,41,-46,4,43,-78,-117,-102,-78,-58
-82,-48,34,65,-58,-7,58,-82,-131,-117,-97,-73
-87,-68,19,78,-53,-24,39,-82,-141,-126,-107,-78
-87,-68,19,78,-53,-24,29,-82,-141,-131,-102,-82
-92,-68,24,80,-58,-21,34,-68,-136,-131,-102,-82
-92,-82,9,87,-51,-36,34,-53,-136,-126,-112,-87
-92,-82,9,87,-51,-36,34,-53,-141,-131,-112,-97
-92,-78,14,85,-53,-31,34,-63,-151,-141,-112,-97
-92,-78,14,85,-53,-31,34,-73,-151,-141,-117,-97
-92,-82,9,87,-51,-36,43,-78,-151,-136,-117,-97
-87,-82,4,85,-46,-39,34,-78,-156,-141,-117,-97
-82,-82,0,82,-41,-41,34,-73,-156,-146,-122,-92
-87,-92,-4,90,-41,-48,58,-73,-151,-146,-122,-92
-92,-97,-4,95,-43,-51,78,-63,-151,-146,-122,-107
-107,-92,14,100,-61,-39,68,-48,-146,-161,-136,-122
-136,-92,43,114,-90,-24,68,-24,-146,-175,-161,-151
-170,-82,87,126,-129,2,136,4,-151,-195,-185,-170
-180,-68,112,124,-146,21,190,39,-131,-185,-195,-180
-170,-58,112,114,-141,26,190,43,-87,-151,-165,-156
-107,-39,68,73,-87,14,161,19,-9,-29,-43,-43
-9,9,19,0,-14,14,82,-48,102,146,151,126
126,63,-63,-95,95,0,-102,-322,34,253,341,331
302,180,-122,-241,212,29,-390,-741,-131,375,595,619
522,346,-175,-434,348,85,-702,-1078,-180,614,956,990
771,556,-214,-663,492,170,-1039,-1400,-161,966,1424,1444
980,727,-253,-854,617,236,-1298,-1595,-87,1263,1830,1834
1112,702,-409,-907,761,146,-1468,-1688,-161,1307,1883,1908
1122,502,-619,-812,871,-58,-1512,-1727,-483,849,1444,1537
1029,361,-668,-695,849,-153,-1483,-1688,-819,268,844,1088
873,239,-634,-556,753,-197,-1293,-1517,-1019,-209,341,683
712,141,-570,-427,641,-214,-1088,-1288,-1117,-541,-9,400
605,92,-512,-348,558,-209,-917,-1063,-1034,-610,-131,244
473,29,-444,-251,458,-207,-707,-814,-819,-492,-146,126
317,-14,-331,-151,324,-173,-497,-580,-624,-409,-185,4
170,-34,-204,-68,187,-119,-326,-414,-429,-312,-175,-48
48,-39,-87,-4,68,-63,-185,-273,-297,-244,-165,-82
-14,-48,-34,31,9,-41,-78,-141,-209,-180,-141,-87
-34,-53,-19,43,-7,-36,-29,-58,-131,-126,-112,-87
-58,-63,-4,61,-26,-34,9,0,-58,-78,-87,-82
-58,-63,-4,61,-26,-34,43,53,-29,-58,-78,-73
-58,-68,-9,63,-24,-39,73,73,-29,-58,-78,-73
-58,-73,-14,65,-21,-43,102,78,-29,-53,-82,-78
-78,-82,-4,80,-36,-43,102,78,-14,-63,-92,-102
-92,-82,9,87,-51,-36,107,82,-9,-73,-97,-112
-92,-82,9,87,-51,-36,102,92,-9,-73,-97,-107
-87,-82,4,85,-46,-39,107,92,-9,-73,-97,-107
-87,-82,4,85,-46,-39,112,92,-9,-73,-102,-112
-92,-82,9,87,-51,-36,112,92,-4,-68,-102,-117
-87,-82,4,85,-46,-39,97,87,0,-68,-102,-117
-82,-82,0,82,-41,-41,78,92,0,-68,-102,-117
-82,-87,-4,85,-39,-46,97,102,0,-68,-102,-112
-87,-87,0,87,-43,-43,122,102,4,-68,-102,-112
-87,-82,4,85,-46,-39,122,107,9,-58,-102,-112
-87,-82,4,85,-46,-39,122,112,19,-53,-102,-117
-87,-82,4,85,-46,-39,117,112,19,-53,-102,-117
-87,-82,4,85,-46,-39,112,117,24,-48,-97,-117
-87,-82,4,85,-46,-39,117,122,29,-53,-92,-112
-87,-82,4,85,-46,-39,117,122,34,-53,-92,-112
-87,-82,4,85,-46,-39,122,126,39,-48,-92,-112
-87,-78,9,82,-48,-34,131,126,39,-48,-97,-117
-87,-78,9,82,-48,-34,131,126,43,-48,-97,-117
-87,-78,9,82,-48,-34,131,126,43,-48,-97,-117
-87,-78,9,82,-48,-34,126,131,43,-48,-97,-122
-87,-73,14,80,-51,-29,117,131,53,-39,-92,-126
-82,-73,9,78,-46,-31,117,131,58,-29,-87,-122
-82,-73,9,78,-46,-31,117,136,63,-24,-87,-122
-82,-73,9,78,-46,-31,122,141,73,-19,-87,-117
-82,-73,9,78,-46,-31,126,141,73,-19,-87,-112
-82,-73,9,78,-46,-31,131,141,82,-9,-87,-112
-78,-68,9,73,-43,-29,131,146,87,0,-78,-107
-78,-63,14,70,-46,-24,126,156,92,0,-73,-102
-78,-58,19,68,-48,-19,122,161,102,9,-68,-102
-73,-48,24,61,-48,-12,122,175,107,14,-68,-102
-73,-43,29,58,-51,-7,126,185,117,19,-68,-102
-73,-48,24,61,-48,-12,126,195,122,19,-63,-102
-73,-48,24,61,-48,-12,126,204,136,24,-53,-97
-73,-39,34,56,-53,-2,117,214,156,34,-48,-87
-68,-39,29,53,-48,-4,112,229,165,43,-43,-82
-68,-34,34,51,-51,0,112,239,185,58,-39,-78
-58,-29,29,43,-43,0,117,248,195,68,-39,-73
-58,-29,29,43,-43,0,122,258,209,78,-24,-68
-43,-19,24,31,-34,2,126,268,234,92,-14,-63
-43,-14,29,29,-36,7,122,283,253,112,-4,-53
-39,-9,29,24,-34,9,122,302,273,131,4,-43
-34,-4,29,19,-31,12,126,322,297,151,19,-48
-29,0,29,14,-29,14,126,346,326,165,29,-39
-19,0,19,9,-19,9,122,366,351,190,48,-29
-9,9,19,0,-14,14,136,385,380,209,68,-19
0,14,14,-7,-7,14,136,385,414,229,92,0
9,29,19,-19,-4,24,122,414,453,258,102,19
24,39,14,-31,4,26,107,444,492,287,117,24
34,48,14,-41,9,31,97,473,527,317,136,39
43,63,19,-53,12,41,107,527,575,346,156,58
58,78,19,-68,19,48,112,566,614,380,185,73
68,82,14,-75,26,48,117,600,658,419,204,87
78,92,14,-85,31,53,117,629,707,453,224,97
97,117,19,-107,39,68,112,649,756,483,258,112
102,136,34,-119,34,85,102,673,800,512,283,136
122,156,34,-139,43,95,82,712,844,556,297,146
131,180,48,-156,41,114,68,732,888,585,317,165
141,190,48,-165,46,119,68,746,917,610,336,180
151,200,48,-175,51,124,68,751,946,629,346,195
165,214,48,-190,58,131,58,746,956,639,361,204
175,239,63,-207,56,151,53,736,956,639,361,204
180,248,68,-214,56,158,39,722,956,639,356,204
180,258,78,-219,51,168,34,688,932,624,346,204
170,263,92,-217,39,178,19,649,897,600,346,204
165,268,102,-217,31,185,9,614,858,570,331,200
156,278,122,-217,17,200,4,570,814,531,302,180
131,278,146,-204,-7,212,4,522,756,483,273,161
117,268,151,-192,-17,209,19,473,702,434,244,141
102,253,151,-178,-24,202,29,419,624,375,204,117
82,234,151,-158,-34,192,34,375,551,326,170,97
73,214,141,-143,-34,178,34,312,483,273,141,78
63,200,136,-131,-36,168,9,283,409,214,117,63
48,165,117,-107,-34,141,-9,234,341,165,87,48
34,141,107,-87,-36,124,0,185,278,131,68,29
19,117,97,-68,-39,107,14,136,214,92,53,19
9,87,78,-48,-34,82,0,97,156,58,29,4
0,63,63,-31,-31,63,-4,68,102,29,14,-4
0,58,58,-29,-29,58,-4,29,63,0,4,-9
0,58,58,-29,-29,58,9,-4,34,-19,-4,-14
-4,34,39,-14,-21,36,14,-24,-4,-39,-19,-19
-9,14,24,-2,-17,19,14,-39,-34,-53,-29,-24
-9,4,14,2,-12,9,9,-53,-48,-63,-34,-29
-9,-4,4,7,-7,0,0,-63,-63,-73,-34,-34
-14,-9,4,12,-9,-2,0,-68,-78,-78,-39,-29
-19,-9,9,14,-14,0,0,-78,-92,-78,-39,-29
-24,-14,9,19,-17,-2,0,-78,-92,-87,-43,-29
-29,-19,9,24,-19,-4,0,-78,-102,-87,-43,-29
-29,-19,9,24,-19,-4,0,-78,-107,-97,-43,-29
-29,-19,9,24,-19,-4,14,-78,-107,-102,-48,-34
-29,-19,9,24,-19,-4,9,-82,-112,-102,-53,-39
-24,-19,4,21,-14,-7,9,-87,-117,-102,-58,-43
-24,-29,-4,26,-9,-17,9,-102,-117,-107,-58,-43
-19,-34,-14,26,-2,-24,0,-112,-122,-112,-58,-43
-19,-34,-14,26,-2,-24,0,-102,-126,-112,-58,-43
-19,-34,-14,26,-2,-24,4,-92,-126,-112,-63,-48
-29,-34,-4,31,-12,-19,9,-78,-122,-107,-63,-48
-34,-34,0,34,-17,-17,9,-73,-112,-102,-58,-48
-34,-39,-4,36,-14,-21,0,-73,-112,-97,-53,-48
-34,-39,-4,36,-14,-21,-14,-73,-112,-97,-53,-48
-34,-39,-4,36,-14,-21,-4,-87,-122,-112,-58,-58
-34,-29,4,31,-19,-12,0,-97,-131,-122,-58,-63
-29,-34,-4,31,-12,-19,0,-97,-126,-112,-58,-58
-24,-34,-9,29,-7,-21,0,-92,-117,-97,-53,-53
-29,-34,-4,31,-12,-19,0,-73,-107,-97,-53,-43
-29,-34,-4,31,-12,-19,0,-63,-97,-92,-53,-39
-29,-34,-4,31,-12,-19,0,-58,-97,-87,-48,-39
-29,-39,-9,34,-9,-24,4,-53,-97,-82,-43,-39
-34,-39,-4,36,-14,-21,4,-63,-97,-82,-43,-39
-39,-34,4,36,-21,-14,4,-68,-97,-82,-43,-39
-39,-29,9,34,-24,-9,4,-68,-92,-87,-48,-43
-39,-24,14,31,-26,-4,4,-68,-87,-87,-53,-48
-34,-24,9,29,-21,-7,14,-58,-87,-87,-53,-53
-34,-34,0,34,-17,-17,29,-48,-87,-87,-53,-53
-34,-34,0,34,-17,-17,29,-48,-87,-87,-53,-53
-34,-34,0,34,-17,-17,29,-48,-87,-87,-53,-58
-39,-34,4,36,-21,-14,29,-58,-87,-87,-63,-63
-39,-34,4,36,-21,-14,29,-68,-87,-87,-63,-63
-39,-34,4,36,-21,-14,29,-58,-87,-82,-68,-63
-43,-34,9,39,-26,-12,34,-58,-87,-78,-73,-63
-43,-34,9,39,-26,-12,34,-43,-82,-78,-73,-63
-43,-34,9,39,-26,-12,29,-34,-78,-78,-73,-63
-48,-39,9,43,-29,-14,29,-34,-78,-82,-73,-68
-53,-43,9,48,-31,-17,24,-43,-78,-82,-82,-68
-53,-43,9,48,-31,-17,19,-43,-82,-87,-82,-73
-53,-43,9,48,-31,-17,14,-43,-87,-87,-82,-73
-53,-43,9,48,-31,-17,24,-53,-92,-92,-82,-73
-53,-43,9,48,-31,-17,24,-58,-92,-97,-87,-78
-53,-43,9,48,-31,-17,34,-58,-92,-97,-87,-78
-53,-48,4,51,-29,-21,39,-68,-92,-102,-87,-78
-58,-48,9,53,-34,-19,34,-63,-97,-102,-92,-82
-58,-48,9,53,-34,-19,34,-53,-102,-92,-87,-82
-48,-48,0,48,-24,-24,34,-48,-102,-92,-87,-82
-43,-48,-4,46,-19,-26,24,-48,-102,-92,-87,-78
-43,-53,-9,48,-17,-31,24,-53,-97,-92,-82,-73
-48,-53,-4,51,-21,-29,24,-53,-102,-97,-78,-68
-48,-53,-4,51,-21,-29,24,-68,-102,-102,-78,-73
-43,-48,-4,46,-19,-26,24,-78,-107,-112,-82,-78
-48,-48,0,48,-24,-24,24,-78,-107,-112,-87,-78
-53,-53,0,53,-26,-26,19,-73,-107,-112,-92,-78
-53,-53,0,53,-26,-26,14,-63,-107,-107,-92,-73
-53,-53,0,53,-26,-26,14,-53,-107,-102,-92,-73
-58,-48,9,53,-34,-19,9,-48,-107,-102,-92,-78
-58,-48,9,53,-34,-19,4,-48,-107,-102,-92,-82
-58,-48,9,53,-34,-19,9,-53,-117,-102,-92,-82
-53,-48,4,51,-29,-21,14,-53,-126,-102,-92,-82
-53,-48,4,51,-29,-21,14,-58,-126,-107,-92,-78
-53,-48,4,51,-29,-21,9,-68,-126,-112,-92,-73
-53,-48,4,51,-29,-21,19,-68,-122,-112,-92,-73
-53,-48,4,51,-29,-21,34,-68,-122,-107,-92,-73
-53,-48,4,51,-29,-21,24,-78,-122,-107,-92,-73
-53,-48,4,51,-29,-21,24,-87,-126,-107,-92,-73
-53,-53,0,53,-26,-26,-4,-82,-126,-107,-87,-73
-58,-58,0,58,-29,-29,-19,-82,-126,-107,-87,-78
-58,-58,0,58,-29,-29,-14,-68,-126,-107,-92,-78
-63,-63,0,63,-31,-31,-4,-53,-126,-107,-92,-78
-63,-68,-4,65,-29,-36,9,-53,-126,-112,-87,-78
-63,-63,0,63,-31,-31,19,-53,-122,-112,-87,-73
-53,-48,4,51,-29,-21,19,-68,-122,-112,-87,-73
-48,-43,4,46,-26,-19,39,-73,-122,-112,-87,-73
-48,-39,9,43,-29,-14,53,-68,-122,-112,-87,-73
-48,-39,9,43,-29,-14,63,-68,-126,-112,-87,-78
-53,-43,9,48,-31,-17,43,-63,-126,-107,-87,-78
-58,-48,9,53,-34,-19,29,-58,-126,-107,-87,-78
-58,-48,9,53,-34,-19,29,-58,-126,-112,-87,-78
-58,-48,9,53,-34,-19,29,-58,-126,-117,-87,-78
-53,-48,4,51,-29,-21,34,-63,-126,-117,-87,-78
-48,-48,0,48,-24,-24,39,-68,-126,-117,-87,-78
-48,-48,0,48,-24,-24,39,-68,-126,-117,-87,-78
-48,-48,0,48,-24,-24,39,-68,-126,-117,-87,-78
-53,-48,4,51,-29,-21,34,-82,-131,-117,-92,-78
-58,-48,9,53,-34,-19,29,-97,-136,-117,-97,-78
-58,-48,9,53,-34,-19,29,-82,-136,-117,-97,-78
-58,-48,9,53,-34,-19,29,-68,-136,-117,-97,-78
-58,-43,14,51,-36,-14,29,-63,-131,-112,-92,-78
-58,-39,19,48,-39,-9,29,-58,-126,-107,-87,-78
-58,-39,19,48,-39,-9,29,-58,-126,-107,-87,-73
-58,-39,19,48,-39,-9,29,-58,-126,-107,-87,-68
-58,-43,14,51,-36,-14,19,-63,-126,-107,-87,-68
-58,-48,9,53,-34,-19,9,-68,-126,-107,-87,-68
-58,-48,9,53,-34,-19,19,-68,-126,-107,-87,-68
-58,-48,9,53,-34,-19,29,-68,-126,-107,-87,-68
-58,-48,9,53,-34,-19,39,-68,-126,-107,-87,-68
-58,-48,9,53,-34,-19,48,-68,-126,-107,-87,-68
-58,-48,9,53,-34,-19,39,-63,-126,-112,-87,-68
-58,-48,9,53,-34,-19,29,-58,-126,-117,-87,-68
-58,-48,9,53,-34,-19,29,-58,-126,-117,-87,-68
-58,-48,9,53,-34,-19,29,-58,-126,-117,-87,-68
-58,-48,9,53,-34,-19,29,-58,-126,-117,-87,-73
-58,-48,9,53,-34,-19,29,-58,-126,-117,-87,-78
-58,-48,9,53,-34,-19,29,-58,-126,-117,-87,-78
-58,-48,9,53,-34,-19,29,-58,-126,-117,-87,-78
-58,-48,9,53,-34,-19,29,-58,-126,-112,-87,-73
-58,-48,9,53,-34,-19,29,-58,-126,-107,-87,-68
-53,-48,4,51,-29,-21,29,-63,-126,-107,-87,-68
-48,-48,0,48,-24,-24,29,-68,-126,-107,-87,-68
-48,-48,0,48,-24,-24,29,-68,-126,-107,-92,-73
-48,-48,0,48,-24,-24,29,-68,-126,-107,-97,-78
-58,-48,9,53,-34,-19,29,-63,-126,-107,-97,-78
-68,-48,19,58,-43,-14,29,-58,-126,-107,-97,-78
-68,-48,19,58,-43,-14,29,-58,-126,-107,-92,-73
-68,-48,19,58,-43,-14,29,-58,-126,-107,-87,-68
-63,-43,19,53,-41,-12,39,-58,-122,-107,-87,-68
-58,-39,19,48,-39,-9,48,-58,-117,-107,-87,-68
-58,-39,19,48,-39,-9,48,-53,-117,-102,-87,-73
-53,-34,19,43,-36,-7,43,-48,-112,-97,-82,-68
-53,-29,24,41,-39,-2,43,-48,-107,-97,-82,-68
-48,-19,29,34,-39,4,48,-39,-107,-92,-82,-68
-48,-4,43,26,-46,19,53,-43,-97,-87,-68,-53
-39,9,48,14,-43,29,68,-48,-82,-82,-68,-48
-34,14,48,9,-41,31,82,-29,-68,-68,-53,-39
-29,9,39,9,-34,24,87,-19,-68,-63,-48,-34
-14,4,19,4,-17,12,92,4,-68,-58,-39,-34
-9,4,14,2,-12,9,97,29,-68,-58,-34,-34
-14,9,24,2,-19,17,112,14,-78,-63,-43,-34
-14,14,29,0,-21,21,97,-4,-82,-78,-43,-34
0,24,24,-12,-12,24,82,-19,-87,-78,-58,-39
9,24,14,-17,-2,19,73,-24,-92,-78,-68,-43
9,24,14,-17,-2,19,68,-24,-92,-78,-68,-43
9,24,14,-17,-2,19,58,-24,-87,-73,-63,-34
4,19,14,-12,-4,17,34,-19,-73,-63,-48,-29
9,14,4,-12,2,9,-4,-24,-68,-48,-34,-19
19,0,-19,-9,19,-9,-9,-29,-68,-48,-34,-19
24,-14,-39,-4,31,-26,-9,-48,-78,-58,-39,-19
29,-24,-53,-2,41,-39,-19,-63,-92,-73,-48,-29
19,-24,-43,2,31,-34,-29,-78,-112,-87,-58,-39
4,-14,-19,4,12,-17,-14,-87,-112,-87,-58,-39
-14,-4,9,9,-12,2,9,-78,-112,-82,-58,-39
-43,-4,39,24,-41,17,24,-68,-107,-82,-58,-43
-63,-14,48,39,-56,17,29,-63,-97,-82,-58,-48
-82,-39,43,61,-63,2,39,-63,-117,-97,-78,-63
-87,-58,29,73,-58,-14,39,-63,-131,-107,-92,-73
-82,-53,29,68,-56,-12,48,-73,-131,-112,-92,-82
-82,-48,34,65,-58,-7,63,-82,-131,-117,-92,-82
-82,-63,19,73,-51,-21,63,-73,-131,-117,-102,-87
-82,-63,19,73,-51,-21,63,-63,-131,-122,-107,-97
-82,-63,19,73,-51,-21,58,-73,-141,-131,-112,-97
-82,-68,14,75,-48,-26,53,-73,-141,-131,-117,-97
-82,-73,9,78,-46,-31,63,-68,-146,-131,-122,-97
-82,-73,9,78,-46,-31,53,-68,-151,-136,-122,-97
-82,-73,9,78,-46,-31,53,-68,-151,-136,-122,-92
-87,-78,9,82,-48,-34,68,-68,-151,-136,-122,-92
-92,-73,19,82,-56,-26,78,-58,-151,-136,-122,-107
-107,-63,43,85,-75,-9,92,-48,-141,-146,-136,-122
-141,-63,78,102,-109,7,117,-24,-141,-161,-165,-151
-170,-53,117,112,-143,31,170,0,-141,-180,-185,-161
-170,-43,126,107,-148,41,209,34,-112,-165,-185,-161
-141,-29,112,85,-126,41,190,39,-68,-117,-131,-112
-53,-4,48,29,-51,21,151,9,24,19,4,4
48,48,0,-48,24,24,53,-97,122,195,204,180
204,87,-117,-146,161,-14,-185,-424,29,302,400,390
400,180,-219,-290,309,-19,-488,-858,-131,424,658,673
639,346,-292,-492,466,26,-795,-1180,-156,688,1044,1049
888,531,-356,-710,622,87,-1107,-1478,-146,995,1434,1424
1112,683,-429,-897,771,126,-1342,-1649,-87,1244,1786,1786
1239,639,-600,-939,919,19,-1483,-1708,-185,1210,1766,1800
1210,414,-795,-812,1002,-190,-1507,-1756,-590,639,1220,1342
1098,292,-805,-695,951,-256,-1459,-1708,-912,102,668,927
912,195,-717,-553,814,-261,-1234,-1517,-1088,-341,204,551
751,102,-649,-427,700,-273,-1044,-1302,-1146,-610,-87,317
639,68,-570,-353,605,-251,-883,-1044,-995,-590,-141,209
497,24,-473,-261,485,-224,-673,-766,-780,-468,-146,107
307,-14,-322,-146,314,-168,-453,-527,-580,-380,-175,-4
146,-34,-180,-56,163,-107,-278,-356,-395,-283,-156,-43
39,-34,-73,-2,56,-53,-126,-214,-273,-219,-146,-73
-24,-39,-14,31,-4,-26,-14,-97,-185,-161,-131,-87
-34,-43,-9,39,-12,-26,19,-29,-112,-107,-102,-87
-58,-53,4,56,-31,-24,58,14,-48,-73,-82,-87
-63,-53,9,58,-36,-21,92,53,-29,-68,-78,-82
-68,-58,9,63,-39,-24,102,73,-29,-68,-78,-82
-73,-63,9,68,-41,-26,107,87,-29,-58,-82,-92
-92,-73,19,82,-56,-26,102,97,-14,-53,-87,-112
-102,-78,24,90,-63,-26,107,92,-9,-53,-87,-112
-102,-82,19,92,-61,-31,107,92,-9,-53,-87,-107
-97,-82,14,90,-56,-34,131,92,-9,-53,-87,-107
-97,-82,14,90,-56,-34,151,92,-4,-53,-92,-112
-102,-78,24,90,-63,-26,141,97,4,-48,-92,-117
-102,-73,29,87,-65,-21,136,102,9,-48,-92,-117
-97,-73,24,85,-61,-24,136,117,9,-48,-92,-117
-92,-78,14,85,-53,-31,136,131,9,-48,-92,-112
-97,-78,19,87,-58,-29,141,131,14,-53,-92,-112
-97,-73,24,85,-61,-24,141,131,14,-53,-92,-112
-97,-73,24,85,-61,-24,131,131,24,-53,-92,-117
-97,-73,24,85,-61,-24,122,131,29,-53,-92,-117
-97,-73,24,85,-61,-24,131,131,34,-43,-87,-112
-97,-73,24,85,-61,-24,146,131,39,-39,-82,-102
-102,-73,29,87,-65,-21,146,131,43,-34,-82,-102
-107,-73,34,90,-70,-19,141,136,48,-29,-82,-102
-107,-68,39,87,-73,-14,136,136,43,-29,-87,-112
-107,-68,39,87,-73,-14,131,136,43,-29,-87,-117
-107,-68,39,87,-73,-14,131,141,43,-29,-87,-117
-107,-68,39,87,-73,-14,136,151,43,-29,-87,-117
-107,-63,43,85,-75,-9,146,156,58,-19,-82,-117
-102,-63,39,82,-70,-12,156,161,68,-14,-78,-112
-102,-63,39,82,-70,-12,156,165,73,-14,-73,-107
-102,-63,39,82,-70,-12,156,175,82,-9,-68,-102
-102,-63,39,82,-70,-12,146,180,78,-9,-68,-102
-102,-63,39,82,-70,-12,141,180,82,0,-68,-102
-97,-58,39,78,-68,-9,141,195,87,9,-58,-97
-97,-53,43,75,-70,-4,136,214,97,9,-53,-92
-97,-48,48,73,-73,0,136,209,117,19,-48,-92
-92,-43,48,68,-70,2,141,209,126,24,-48,-92
-92,-43,48,68,-70,2,146,214,136,29,-48,-92
-92,-48,43,70,-68,-2,146,224,141,34,-43,-92
-92,-48,43,70,-68,-2,136,234,151,39,-39,-92
-92,-39,53,65,-73,7,122,244,165,43,-39,-87
-87,-39,48,63,-68,4,136,258,175,53,-34,-82
-87,-34,53,61,-70,9,151,268,195,68,-24,-78
-78,-29,48,53,-63,9,156,278,209,82,-14,-68
-78,-29,48,53,-63,9,156,287,229,97,4,-58
-63,-19,43,41,-53,12,156,307,253,112,14,-53
-63,-14,48,39,-56,17,151,331,273,131,24,-43
-58,-9,48,34,-53,19,151,351,292,151,34,-34
-53,-4,48,29,-51,21,156,370,317,170,48,-34
-43,4,48,19,-46,26,156,395,346,185,53,-24
-29,14,43,7,-36,29,146,414,370,209,63,-19
-19,29,48,-4,-34,39,165,444,400,229,78,-9
-9,34,43,-12,-26,39,175,463,434,253,102,4
0,43,43,-21,-21,43,151,502,473,278,102,19
14,48,34,-31,-9,41,141,531,512,297,112,24
24,58,34,-41,-4,46,141,561,551,336,146,43
34,73,39,-53,-2,56,136,600,605,375,175,68
53,92,39,-73,7,65,131,629,649,409,204,82
68,102,34,-85,17,68,131,668,697,448,224,102
78,112,34,-95,21,73,117,702,746,483,244,117
97,136,39,-117,29,87,102,727,795,512,273,131
97,151,53,-124,21,102,107,751,839,541,292,156
112,165,53,-139,29,109,112,780,878,580,307,161
122,190,68,-156,26,129,107,805,917,605,326,175
131,200,68,-165,31,134,107,834,941,629,346,190
146,209,63,-178,41,136,107,839,971,658,361,204
161,224,63,-192,48,143,92,839,985,678,380,214
165,248,82,-207,41,165,82,834,985,678,380,219
165,258,92,-212,36,175,68,819,980,673,375,224
161,268,107,-214,26,187,63,780,951,653,366,224
151,273,122,-212,14,197,53,732,917,624,356,219
146,278,131,-212,7,204,48,683,878,585,331,204
141,278,136,-209,2,207,43,629,824,541,302,180
117,268,151,-192,-17,209,29,570,756,492,273,161
97,258,161,-178,-31,209,19,512,702,444,244,141
82,248,165,-165,-41,207,34,453,619,385,204,117
63,234,170,-148,-53,202,53,405,541,336,170,97
53,214,161,-134,-53,187,63,326,468,283,141,78
43,200,156,-122,-56,178,68,283,395,229,117,63
29,156,126,-92,-48,141,48,234,331,175,87,48
19,126,107,-73,-43,117,24,190,268,131,68,29
9,117,107,-63,-48,112,9,141,204,102,53,19
0,97,97,-48,-48,97,-4,97,156,78,29,9
-9,73,82,-31,-46,78,24,68,112,53,14,9
-14,58,73,-21,-43,65,29,39,73,34,9,9
-19,48,68,-14,-43,58,29,14,43,19,4,4
-24,34,58,-4,-41,46,34,-4,9,0,-4,4
-29,24,53,2,-41,39,34,-24,-14,-14,-4,4
-29,14,43,7,-36,29,29,-43,-29,-24,-4,0
-29,4,34,12,-31,19,-4,-58,-48,-34,-4,-4
-34,0,34,17,-34,17,-29,-68,-68,-43,-14,-4
-39,-9,29,24,-34,9,-4,-82,-82,-58,-19,-9
-39,-24,14,31,-26,-4,19,-87,-82,-78,-24,-9
-39,-19,19,29,-29,0,34,-87,-92,-68,-24,-9
-39,-9,29,24,-34,9,48,-87,-97,-63,-24,-9
-39,-9,29,24,-34,9,48,-82,-97,-63,-29,-14
-43,-9,34,26,-39,12,34,-78,-97,-63,-29,-14
-43,-9,34,26,-39,12,39,-78,-97,-68,-29,-19
-43,-14,29,29,-36,7,39,-82,-97,-73,-29,-24
-39,-19,19,29,-29,0,19,-82,-102,-73,-29,-24
-39,-24,14,31,-26,-4,4,-82,-107,-73,-29,-24
-43,-24,19,34,-31,-2,4,-82,-107,-73,-34,-24
-53,-24,29,39,-41,2,9,-73,-107,-73,-34,-19
-53,-24,29,39,-41,2,14,-73,-102,-73,-34,-19
-53,-29,24,41,-39,-2,24,-73,-102,-68,-34,-19
-48,-19,29,34,-39,4,24,-73,-102,-68,-34,-19
-43,-9,34,26,-39,12,24,-78,-102,-68,-39,-24
-43,-9,34,26,-39,12,24,-78,-102,-63,-39,-24
-43,-29,14,36,-29,-7,29,-78,-97,-63,-39,-19
-43,-34,9,39,-26,-12,29,-78,-87,-58,-34,-14
-48,-34,14,41,-31,-9,29,-73,-87,-58,-34,-14
-48,-34,14,41,-31,-9,29,-73,-87,-53,-34,-19
-48,-29,19,39,-34,-4,29,-68,-87,-53,-34,-19
-48,-29,19,39,-34,-4,34,-53,-82,-53,-34,-19
-48,-29,19,39,-34,-4,39,-43,-73,-53,-34,-19
-48,-24,24,36,-36,0,43,-39,-68,-53,-34,-19
-48,-24,24,36,-36,0,43,-39,-63,-53,-34,-19
-48,-19,29,34,-39,4,39,-43,-63,-48,-34,-19
-48,-14,34,31,-41,9,34,-48,-68,-48,-34,-24
-58,-24,34,41,-46,4,29,-48,-68,-48,-34,-24
-63,-24,39,43,-51,7,19,-48,-68,-48,-34,-24
-73,-29,43,51,-58,7,19,-48,-68,-48,-34,-29
-87,-29,58,58,-73,14,19,-48,-68,-48,-43,-34
-78,-24,53,51,-65,14,39,-48,-68,-48,-39,-34
-63,-24,39,43,-51,7,58,-39,-68,-48,-34,-34
-58,-24,34,41,-46,4,63,-39,-68,-48,-34,-34
-53,-24,29,39,-41,2,63,-34,-68,-48,-34,-34
-53,-24,29,39,-41,2,58,-34,-68,-58,-39,-43
-58,-29,29,43,-43,0,58,-34,-68,-73,-43,-58
-68,-34,34,51,-51,0,53,-43,-68,-63,-53,-48
-73,-34,39,53,-56,2,53,-43,-68,-58,-53,-43
-73,-34,39,53,-56,2,43,-39,-68,-53,-48,-39
-73,-34,39,53,-56,2,43,-34,-73,-48,-43,-34
-73,-43,29,58,-51,-7,43,-24,-73,-48,-48,-39
-73,-53,19,63,-46,-17,48,-19,-73,-48,-48,-39
-68,-43,24,56,-46,-9,48,-29,-73,-53,-48,-43
-68,-29,39,48,-53,4,43,-34,-78,-63,-58,-53
-68,-29,39,48,-53,4,43,-39,-82,-68,-63,-53
-63,-29,34,46,-48,2,43,-39,-82,-73,-68,-53
-63,-34,29,48,-46,-2,24,-39,-82,-73,-68,-48
-63,-43,19,53,-41,-12,14,-43,-82,-73,-68,-48
-73,-43,29,58,-51,-7,29,-43,-92,-78,-68,-48
-78,-43,34,61,-56,-4,43,-48,-92,-78,-68,-53
-73,-39,34,56,-53,-2,43,-53,-97,-82,-73,-58
-73,-39,34,56,-53,-2,43,-58,-97,-82,-73,-58
-68,-43,24,56,-46,-9,43,-53,-97,-82,-68,-58
-63,-43,19,53,-41,-12,48,-53,-97,-82,-63,-53
-63,-43,19,53,-41,-12,53,-53,-97,-82,-63,-53
-68,-39,29,53,-48,-4,53,-53,-97,-82,-63,-53
-68,-39,29,53,-48,-4,39,-58,-97,-82,-73,-53
-68,-39,29,53,-48,-4,29,-63,-102,-82,-82,-53
-68,-43,24,56,-46,-9,34,-63,-107,-82,-82,-53
-73,-48,24,61,-48,-12,34,-63,-107,-87,-82,-53
-73,-48,24,61,-48,-12,34,-63,-107,-92,-78,-53
-73,-48,24,61,-48,-12,34,-58,-102,-92,-73,-53
-68,-48,19,58,-43,-14,34,-53,-97,-82,-73,-53
-63,-48,14,56,-39,-17,34,-48,-92,-78,-73,-53
-63,-48,14,56,-39,-17,43,-48,-97,-78,-73,-53
-63,-48,14,56,-39,-17,29,-43,-97,-78,-73,-53
-68,-48,19,58,-43,-14,29,-58,-107,-82,-82,-63
-68,-48,19,58,-43,-14,24,-73,-117,-87,-92,-68
-73,-48,24,61,-48,-12,29,-73,-117,-97,-92,-68
-73,-53,19,63,-46,-17,34,-73,-122,-112,-87,-68
-78,-53,24,65,-51,-14,29,-68,-117,-97,-78,-63
-78,-43,34,61,-56,-4,29,-73,-112,-82,-68,-63
-78,-43,34,61,-56,-4,43,-73,-112,-82,-68,-48
-78,-39,39,58,-58,0,43,-68,-112,-82,-68,-34
-78,-39,39,58,-58,0,43,-68,-112,-87,-73,-48
-78,-39,39,58,-58,0,43,-63,-117,-87,-78,-58
-78,-43,34,61,-56,-4,34,-63,-117,-97,-78,-63
-78,-48,29,63,-53,-9,29,-68,-117,-107,-78,-68
-78,-53,24,65,-51,-14,29,-68,-117,-97,-73,-68
-78,-58,19,68,-48,-19,29,-68,-117,-87,-68,-68
-78,-58,19,68,-48,-19,29,-63,-117,-87,-68,-63
-78,-58,19,68,-48,-19,29,-58,-117,-87,-68,-58
-78,-58,19,68,-48,-19,29,-58,-117,-87,-73,-58
-78,-58,19,68,-48,-19,29,-58,-117,-87,-78,-58
-78,-58,19,68,-48,-19,29,-58,-117,-87,-78,-58
-78,-58,19,68,-48,-19,29,-58,-117,-87,-78,-58
-78,-58,19,68,-48,-19,9,-68,-117,-92,-82,-63
-78,-58,19,68,-48,-19,-9,-78,-117,-97,-87,-68
-78,-58,19,68,-48,-19,9,-78,-117,-97,-87,-68
-78,-58,19,68,-48,-19,29,-78,-117,-97,-87,-68
-73,-58,14,65,-43,-21,34,-68,-117,-102,-87,-68
-68,-58,9,63,-39,-24,39,-58,-117,-107,-87,-68
-68,-48,19,58,-43,-14,39,-68,-117,-107,-87,-68
-68,-39,29,53,-48,-4,39,-78,-117,-107,-87,-68
-68,-39,29,53,-48,-4,39,-78,-117,-107,-87,-68
-68,-39,29,53,-48,-4,39,-78,-117,-107,-87,-68
-68,-43,24,56,-46,-9,34,-73,-117,-107,-87,-68
-68,-48,19,58,-43,-14,29,-68,-117,-107,-87,-68
-68,-48,19,58,-43,-14,24,-68,-117,-107,-87,-68
-68,-48,19,58,-43,-14,19,-68,-117,-107,-87,-68
-73,-48,24,61,-48,-12,14,-68,-122,-107,-87,-68
-78,-48,29,63,-53,-9,9,-68,-126,-107,-87,-68
-78,-53,24,65,-51,-14,9,-68,-126,-107,-87,-68
-78,-58,19,68,-48,-19,9,-68,-126,-107,-87,-68
-78,-58,19,68,-48,-19,19,-68,-122,-102,-82,-68
-78,-58,19,68,-48,-19,29,-68,-117,-97,-78,-68
-78,-58,19,68,-48,-19,39,-68,-117,-97,-78,-68
-78,-58,19,68,-48,-19,48,-68,-117,-97,-78,-68
-68,-53,14,61,-41,-19,48,-68,-117,-102,-78,-68
-58,-48,9,53,-34,-19,48,-68,-117,-107,-78,-68
-58,-43,14,51,-36,-14,39,-58,-117,-107,-82,-68
-58,-39,19,48,-39,-9,29,-48,-117,-107,-87,-68
-63,-39,24,51,-43,-7,29,-58,-122,-112,-92,-73
-68,-39,29,53,-48,-4,29,-68,-126,-117,-97,-78
-68,-39,29,53,-48,-4,29,-68,-126,-117,-97,-78
-68,-39,29,53,-48,-4,29,-68,-126,-117,-97,-78
-68,-43,24,56,-46,-9,29,-68,-126,-112,-92,-78
-68,-48,19,58,-43,-14,29,-68,-126,-107,-87,-78
-68,-48,19,58,-43,-14,29,-68,-126,-107,-87,-78
-68,-48,19,58,-43,-14,29,-68,-126,-107,-87,-78
-68,-48,19,58,-43,-14,24,-68,-126,-107,-87,-78
-68,-48,19,58,-43,-14,19,-68,-126,-107,-87,-78
-68,-48,19,58,-43,-14,19,-68,-126,-107,-92,-78
-68,-48,19,58,-43,-14,19,-68,-126,-107,-97,-78
-68,-48,19,58,-43,-14,19,-63,-126,-107,-97,-78
-68,-48,19,58,-43,-14,19,-58,-126,-107,-97,-78
-68,-48,19,58,-43,-14,29,-58,-122,-102,-92,-78
-63,-43,19,53,-41,-12,34,-58,-112,-97,-87,-73
-63,-39,24,51,-43,-7,39,-58,-107,-97,-82,-68
-58,-29,29,43,-43,0,48,-48,-107,-92,-82,-68
-43,-9,34,26,-39,12,53,-43,-97,-82,-68,-53
-19,9,29,4,-24,19,68,-39,-82,-73,-68,-48
-14,9,24,2,-19,17,82,-19,-68,-58,-53,-43
-9,0,9,4,-9,4,87,-9,-68,-53,-48,-43
-4,-4,0,4,-2,-2,87,0,-68,-53,-43,-43
-9,-4,4,7,-7,0,87,9,-68,-58,-43,-43
-19,0,19,9,-19,9,102,4,-78,-63,-48,-39
-24,4,29,9,-26,17,87,-4,-82,-78,-43,-34
-14,14,29,0,-21,21,78,-24,-87,-78,-48,-34
-9,14,24,-2,-17,19,73,-34,-92,-78,-48,-34
-4,14,19,-4,-12,17,68,-39,-92,-82,-53,-39
0,14,14,-7,-7,14,58,-43,-87,-82,-53,-34
0,9,9,-4,-4,9,34,-43,-78,-78,-48,-34
9,4,-4,-7,7,0,-4,-53,-78,-68,-43,-29
24,-4,-29,-9,26,-17,-9,-53,-78,-68,-43,-29
34,-14,-48,-9,41,-31,-9,-68,-87,-78,-48,-29
34,-24,-58,-4,46,-41,-24,-78,-102,-92,-58,-39
19,-24,-43,2,31,-34,-39,-87,-122,-107,-68,-48
0,-14,-14,7,7,-14,-29,-97,-126,-107,-68,-48
-24,-4,19,14,-21,7,-9,-87,-131,-102,-68,-48
-43,-4,39,24,-41,17,19,-78,-126,-97,-68,-53
-53,-14,39,34,-46,12,39,-73,-117,-92,-68,-58
-73,-39,34,56,-53,-2,39,-73,-131,-107,-87,-73
-78,-58,19,68,-48,-19,29,-73,-141,-117,-102,-82
-78,-58,19,68,-48,-19,29,-73,-141,-122,-102,-92
-82,-58,24,70,-53,-17,34,-73,-141,-126,-102,-92
-82,-73,9,78,-46,-31,34,-73,-146,-126,-112,-97
-82,-73,9,78,-46,-31,34,-73,-151,-131,-117,-107
-87,-68,19,78,-53,-24,34,-82,-161,-141,-122,-107
-92,-68,24,80,-58,-21,34,-82,-161,-141,-126,-107
-92,-73,19,82,-56,-26,43,-87,-161,-141,-126,-107
-92,-73,19,82,-56,-26,34,-97,-161,-146,-122,-107
-92,-73,19,82,-56,-26,43,-82,-156,-146,-122,-102
-97,-78,19,87,-58,-29,68,-68,-151,-146,-122,-102
-102,-78,24,90,-63,-26,78,-43,-146,-141,-122,-112
-117,-73,43,95,-80,-14,92,-19,-131,-146,-136,-122
-146,-73,73,109,-109,0,102,-4,-126,-156,-156,-151
-170,-63,107,117,-139,21,141,9,-122,-170,-165,-161
-156,-48,107,102,-131,29,165,24,-92,-136,-146,-146
-112,-29,82,70,-97,26,131,9,-48,-68,-73,-82
-14,0,14,7,-14,7,68,-53,19,68,78,58
97,58,-39,-78,68,9,-53,-195,92,244,292,258
258,131,-126,-195,192,2,-268,-488,29,400,536,517
458,258,-200,-358,329,29,-546,-888,-102,570,844,849
678,409,-268,-544,473,70,-839,-1215,-126,819,1220,1224
907,580,-326,-744,617,126,-1137,-1517,-117,1112,1600,1600
1093,712,-380,-902,736,165,-1351,-1693,-131,1254,1834,1859
1180,649,-531,-915,856,58,-1473,-1756,-302,1112,1698,1771
1132,434,-697,-783,915,-131,-1473,-1766,-688,536,1141,1302
1000,322,-678,-661,839,-178,-1400,-1678,-990,-4,580,878
824,219,-605,-522,714,-192,-1176,-1444,-1107,-390,156,517
673,122,-551,-397,612,-214,-985,-1185,-1107,-600,-97,297
556,73,-483,-314,519,-204,-814,-976,-951,-575,-151,185
409,14,-395,-212,402,-190,-595,-746,-732,-448,-156,78
258,-14,-273,-122,265,-143,-400,-497,-536,-361,-180,-29
136,-24,-161,-56,148,-92,-248,-317,-356,-263,-156,-63
34,-29,-63,-2,48,-46,-122,-185,-244,-195,-136,-82
-24,-39,-14,31,-4,-26,-34,-78,-165,-131,-112,-87
-34,-48,-14,41,-9,-31,0,-9,-97,-87,-92,-92
-58,-63,-4,61,-26,-34,39,34,-39,-63,-82,-97
-68,-63,4,65,-36,-29,68,68,-19,-58,-78,-92
-78,-68,9,73,-43,-29,73,82,-19,-58,-78,-92
-68,-68,0,68,-34,-34,82,87,-19,-58,-82,-97
-73,-73,0,73,-36,-36,82,87,-4,-63,-87,-112
-82,-73,9,78,-46,-31,87,92,0,-63,-87,-117
-82,-73,9,78,-46,-31,87,102,0,-63,-87,-117
-82,-73,9,78,-46,-31,97,97,0,-63,-92,-117
-87,-73,14,80,-51,-29,102,92,4,-63,-102,-122
-92,-73,19,82,-56,-26,112,92,9,-58,-102,-126
-92,-73,19,82,-56,-26,126,92,9,-58,-102,-126
-92,-73,19,82,-56,-26,126,102,9,-58,-97,-126
-92,-78,14,85,-53,-31,126,112,9,-58,-92,-122
-97,-78,19,87,-58,-29,107,117,14,-58,-92,-122
-97,-73,24,85,-61,-24,82,122,14,-53,-92,-122
-97,-82,14,90,-56,-34,97,122,19,-53,-92,-122
-97,-92,4,95,-51,-43,112,122,19,-53,-92,-117
-97,-92,4,95,-51,-43,112,122,24,-43,-87,-117
-97,-92,4,95,-51,-43,117,122,29,-39,-82,-112
-97,-87,9,92,-53,-39,117,122,34,-34,-82,-112
-97,-82,14,90,-56,-34,112,126,39,-29,-82,-112
-97,-78,19,87,-58,-29,117,136,39,-34,-87,-117
-97,-78,19,87,-58,-29,122,146,43,-39,-87,-117
-97,-78,19,87,-58,-29,122,136,43,-39,-92,-117
-97,-78,19,87,-58,-29,126,131,43,-39,-97,-117
-97,-73,24,85,-61,-24,126,131,53,-29,-92,-117
-92,-73,19,82,-56,-26,126,131,58,-24,-87,-112
-92,-73,19,82,-56,-26,126,141,63,-24,-82,-112
-92,-73,19,82,-56,-26,126,156,73,-19,-78,-112
-92,-73,19,82,-56,-26,126,161,73,-19,-78,-112
-92,-73,19,82,-56,-26,131,161,82,-9,-78,-112
-78,-68,9,73,-43,-29,122,165,87,0,-73,-107
-68,-63,4,65,-36,-29,107,175,97,0,-73,-102
-78,-63,14,70,-46,-24,102,185,112,9,-68,-102
-82,-63,19,73,-51,-21,102,200,117,14,-68,-102
-82,-63,19,73,-51,-21,112,204,131,19,-68,-102
-82,-68,14,75,-48,-26,117,214,141,24,-63,-102
-78,-68,9,73,-43,-29,117,224,156,39,-48,-97
-73,-58,14,65,-43,-21,112,234,175,53,-39,-87
-68,-53,14,61,-41,-19,112,248,185,68,-34,-78
-68,-43,24,56,-46,-9,112,258,204,87,-24,-68
-58,-34,24,46,-41,-4,122,278,219,97,-19,-63
-58,-29,29,43,-43,0,126,297,239,107,-4,-58
-43,-19,24,31,-34,2,126,307,263,122,9,-53
-43,-14,29,29,-36,7,122,322,283,141,24,-43
-39,-9,29,24,-34,9,122,341,302,161,34,-29
-34,-4,29,19,-31,12,126,361,326,180,48,-24
-29,0,29,14,-29,14,122,385,356,195,58,-9
-19,4,24,7,-21,14,107,405,380,219,73,0
-9,19,29,-4,-19,24,117,434,414,244,97,9
0,24,24,-12,-12,24,117,453,453,273,131,24
9,29,19,-19,-4,24,102,492,492,307,131,34
24,29,4,-26,9,17,102,522,531,336,141,34
39,39,0,-39,19,19,102,551,575,366,165,48
53,53,0,-53,26,26,97,590,634,395,185,68
68,73,4,-70,31,39,92,619,673,434,219,87
78,82,4,-80,36,43,92,658,717,478,244,112
87,92,4,-90,41,48,102,692,766,512,263,126
107,117,9,-112,48,63,112,717,814,541,292,141
117,136,19,-126,48,78,92,741,854,566,307,161
141,156,14,-148,63,85,73,771,888,600,317,161
151,180,29,-165,61,104,68,780,927,624,336,175
161,190,29,-175,65,109,68,795,951,649,356,190
170,200,29,-185,70,114,73,800,976,668,366,204
180,214,34,-197,73,124,63,800,985,678,380,214
185,239,53,-212,65,146,53,780,976,668,375,214
185,248,63,-217,61,156,39,751,961,653,366,214
175,258,82,-217,46,170,24,717,932,634,356,214
161,263,102,-212,29,183,4,673,897,605,346,209
151,268,117,-209,17,192,9,644,858,570,322,200
141,268,126,-204,7,197,14,610,805,531,292,180
122,258,136,-190,-7,197,14,541,727,478,258,156
107,248,141,-178,-17,195,19,473,663,424,224,131
87,229,141,-158,-26,185,19,414,585,366,185,107
63,204,141,-134,-39,173,24,366,512,317,151,87
53,185,131,-119,-39,158,24,302,444,263,122,68
43,170,126,-107,-41,148,19,273,375,209,97,53
34,141,107,-87,-36,124,19,214,312,165,68,39
29,126,97,-78,-34,112,14,161,248,131,48,19
19,112,92,-65,-36,102,14,117,180,87,34,4
9,87,78,-48,-34,82,14,78,126,48,9,-9
0,63,63,-31,-31,63,14,48,82,19,-4,-14
-4,48,53,-21,-29,51,-9,19,43,-4,-9,-19
-14,39,53,-12,-34,46,-9,-4,14,-19,-14,-19
-24,24,48,0,-36,36,-4,-24,-19,-39,-24,-14
-29,14,43,7,-36,29,-4,-39,-43,-53,-29,-14
-29,4,34,12,-31,19,-9,-53,-58,-63,-34,-19
-19,-4,14,12,-17,4,-4,-63,-68,-68,-29,-24
-14,-9,4,12,-9,-2,9,-68,-78,-73,-34,-24
-19,-9,9,14,-14,0,-4,-87,-92,-78,-39,-29
-19,-14,4,17,-12,-4,-19,-97,-92,-87,-43,-29
-29,-19,9,24,-19,-4,-34,-97,-107,-87,-48,-29
-39,-19,19,29,-29,0,-48,-97,-117,-92,-53,-29
-39,-19,19,29,-29,0,0,-92,-117,-92,-58,-34
-43,-19,24,31,-34,2,34,-87,-117,-92,-58,-34
-43,-19,24,31,-34,2,24,-87,-112,-92,-53,-34
-43,-24,19,34,-31,-2,9,-92,-107,-92,-48,-34
-39,-29,9,34,-24,-9,-4,-92,-112,-92,-48,-34
-39,-34,4,36,-21,-14,-14,-92,-117,-92,-48,-34
-39,-34,4,36,-21,-14,-14,-92,-117,-92,-53,-34
-43,-34,9,39,-26,-12,-9,-82,-117,-92,-53,-29
-43,-29,14,36,-29,-7,-9,-78,-112,-92,-48,-29
-43,-29,14,36,-29,-7,-4,-73,-112,-87,-43,-29
-43,-29,14,36,-29,-7,4,-73,-112,-87,-43,-34
-43,-29,14,36,-29,-7,14,-78,-112,-87,-48,-43
-43,-19,24,31,-34,2,-4,-82,-112,-82,-48,-43
-43,-29,14,36,-29,-7,-19,-87,-107,-82,-48,-39
-43,-34,9,39,-26,-12,-9,-82,-97,-82,-48,-34
-48,-34,14,41,-31,-9,0,-73,-97,-87,-53,-34
-43,-29,14,36,-29,-7,0,-73,-102,-82,-53,-39
-39,-19,19,29,-29,0,0,-68,-107,-82,-53,-39
-39,-19,19,29,-29,0,4,-68,-107,-82,-53,-39
-39,-19,19,29,-29,0,9,-73,-102,-82,-53,-39
-43,-19,24,31,-34,2,14,-68,-97,-82,-53,-39
-48,-24,24,36,-36,0,14,-68,-92,-82,-53,-39
-48,-24,24,36,-36,0,9,-58,-87,-78,-53,-39
-48,-24,24,36,-36,0,4,-48,-87,-78,-53,-43
-53,-34,19,43,-36,-7,0,-58,-87,-73,-48,-39
-53,-34,19,43,-36,-7,-9,-68,-87,-68,-43,-34
-48,-34,14,41,-31,-9,9,-68,-87,-68,-43,-39
-48,-29,19,39,-34,-4,29,-68,-87,-68,-53,-43
-48,-24,24,36,-36,0,29,-58,-82,-68,-53,-48
-43,-24,19,34,-31,-2,29,-39,-78,-68,-53,-53
-48,-24,24,36,-36,0,24,-39,-78,-68,-53,-53
-53,-24,29,39,-41,2,14,-34,-78,-68,-53,-53
-53,-24,29,39,-41,2,9,-34,-78,-63,-48,-48
-58,-29,29,43,-43,0,9,-34,-78,-63,-43,-48
-58,-34,24,46,-41,-4,14,-43,-78,-63,-53,-48
-53,-34,19,43,-36,-7,24,-43,-78,-68,-53,-53
-53,-34,19,43,-36,-7,24,-43,-78,-68,-58,-53
-53,-34,19,43,-36,-7,34,-43,-82,-68,-63,-53
-53,-29,24,41,-39,-2,29,-39,-82,-73,-68,-58
-53,-24,29,39,-41,2,29,-39,-82,-78,-68,-58
-53,-29,24,41,-39,-2,24,-48,-82,-82,-68,-63
-58,-29,29,43,-43,0,14,-53,-87,-92,-78,-73
-58,-34,24,46,-41,-4,14,-58,-92,-87,-78,-73
-53,-39,14,46,-34,-12,14,-58,-92,-82,-78,-73
-53,-39,14,46,-34,-12,9,-68,-92,-82,-78,-63
-53,-43,9,48,-31,-17,14,-82,-92,-82,-78,-58
-58,-43,14,51,-36,-14,19,-73,-102,-92,-78,-58
-58,-43,14,51,-36,-14,24,-68,-102,-97,-78,-63
-53,-39,14,46,-34,-12,24,-53,-107,-102,-82,-68
-53,-39,14,46,-34,-12,24,-39,-107,-102,-82,-68
-58,-43,14,51,-36,-14,9,-43,-107,-102,-82,-68
-63,-43,19,53,-41,-12,0,-53,-107,-102,-82,-63
-63,-43,19,53,-41,-12,4,-53,-107,-102,-82,-63
-68,-39,29,53,-48,-4,4,-53,-107,-102,-82,-63
-63,-39,24,51,-43,-7,14,-58,-107,-102,-82,-63
-58,-39,19,48,-39,-9,29,-63,-112,-102,-82,-63
-53,-39,14,46,-34,-12,34,-63,-117,-102,-82,-68
-53,-39,14,46,-34,-12,34,-63,-117,-107,-82,-73
-53,-39,14,46,-34,-12,24,-73,-122,-112,-82,-73
-53,-39,14,46,-34,-12,14,-78,-122,-112,-82,-73
-53,-43,9,48,-31,-17,14,-78,-122,-107,-82,-73
-53,-48,4,51,-29,-21,14,-78,-122,-107,-82,-73
-53,-48,4,51,-29,-21,39,-73,-122,-102,-78,-63
-53,-48,4,51,-29,-21,39,-63,-117,-97,-73,-53
-58,-43,14,51,-36,-14,39,-63,-117,-97,-78,-58
-58,-39,19,48,-39,-9,34,-63,-117,-97,-82,-58
-63,-43,19,53,-41,-12,19,-63,-117,-97,-87,-63
-63,-53,9,58,-36,-21,4,-63,-122,-102,-87,-68
-63,-53,9,58,-36,-21,0,-53,-122,-107,-87,-63
-58,-43,14,51,-36,-14,0,-53,-122,-112,-87,-63
-58,-43,14,51,-36,-14,19,-53,-122,-112,-87,-63
-58,-39,19,48,-39,-9,24,-48,-122,-112,-87,-63
-58,-39,19,48,-39,-9,9,-63,-126,-112,-87,-68
-58,-39,19,48,-39,-9,-4,-73,-136,-107,-87,-68
-58,-39,19,48,-39,-9,-4,-73,-136,-107,-87,-68
-58,-39,19,48,-39,-9,-9,-78,-136,-107,-87,-68
-58,-39,19,48,-39,-9,4,-78,-136,-107,-87,-68
-58,-39,19,48,-39,-9,19,-78,-136,-107,-87,-68
-58,-39,19,48,-39,-9,19,-78,-136,-107,-87,-68
-58,-39,19,48,-39,-9,19,-78,-136,-107,-87,-68
-58,-39,19,48,-39,-9,19,-73,-131,-107,-87,-68
-58,-39,19,48,-39,-9,19,-68,-126,-107,-87,-68
-58,-39,19,48,-39,-9,19,-63,-122,-107,-87,-68
-58,-39,19,48,-39,-9,19,-58,-117,-107,-87,-68
-58,-48,9,53,-34,-19,4,-58,-117,-107,-87,-68
-58,-58,0,58,-29,-29,-9,-58,-117,-107,-87,-68
-63,-58,4,61,-34,-26,0,-68,-126,-112,-97,-73
-68,-58,9,63,-39,-24,9,-78,-136,-117,-107,-78
-68,-63,4,65,-36,-29,14,-78,-136,-117,-107,-78
-68,-68,0,68,-34,-34,19,-78,-136,-117,-107,-78
-68,-68,0,68,-34,-34,19,-73,-136,-117,-107,-78
-68,-68,0,68,-34,-34,19,-68,-136,-117,-107,-78
-68,-68,0,68,-34,-34,19,-68,-136,-112,-102,-73
-68,-68,0,68,-34,-34,19,-68,-136,-107,-97,-68
-63,-58,4,61,-34,-26,19,-68,-131,-107,-87,-68
-58,-48,9,53,-34,-19,19,-68,-126,-107,-78,-68
-58,-48,9,53,-34,-19,39,-68,-126,-107,-78,-68
-58,-48,9,53,-34,-19,58,-68,-126,-107,-78,-68
-58,-48,9,53,-34,-19,39,-68,-126,-112,-87,-73
-58,-48,9,53,-34,-19,19,-68,-126,-117,-97,-78
-58,-53,4,56,-31,-24,14,-68,-126,-117,-97,-78
-58,-58,0,58,-29,-29,9,-68,-126,-117,-97,-78
-63,-58,4,61,-34,-26,9,-58,-126,-112,-92,-73
-68,-58,9,63,-39,-24,9,-48,-126,-107,-87,-68
-68,-58,9,63,-39,-24,9,-48,-126,-107,-87,-68
-68,-58,9,63,-39,-24,9,-48,-126,-107,-87,-68
-68,-58,9,63,-39,-24,19,-53,-126,-112,-92,-73
-68,-58,9,63,-39,-24,29,-58,-126,-117,-97,-78
-68,-58,9,63,-39,-24,29,-63,-131,-117,-102,-78
-68,-58,9,63,-39,-24,29,-68,-136,-117,-107,-78
-73,-63,9,68,-41,-26,24,-68,-136,-117,-107,-78
-78,-68,9,73,-43,-29,19,-68,-136,-117,-107,-78
-78,-68,9,73,-43,-29,19,-68,-136,-117,-107,-78
-78,-68,9,73,-43,-29,19,-68,-136,-117,-107,-78
-68,-63,4,65,-36,-29,24,-58,-131,-117,-107,-73
-58,-58,0,58,-29,-29,29,-48,-126,-117,-107,-68
-58,-53,4,56,-31,-24,29,-48,-126,-117,-102,-68
-58,-48,9,53,-34,-19,29,-48,-126,-117,-97,-68
-58,-48,9,53,-34,-19,24,-53,-131,-117,-97,-68
-58,-48,9,53,-34,-19,19,-58,-136,-117,-97,-68
-63,-53,9,58,-36,-21,19,-58,-136,-117,-97,-68
-68,-58,9,63,-39,-24,19,-58,-136,-117,-97,-68
-73,-63,9,68,-41,-26,19,-58,-131,-117,-97,-68
-73,-63,9,68,-41,-26,19,-58,-126,-117,-92,-63
-73,-63,9,68,-41,-26,19,-58,-126,-117,-92,-63
-73,-58,14,65,-43,-21,19,-58,-117,-117,-92,-58
-68,-48,19,58,-43,-14,29,-48,-117,-112,-97,-73
-63,-34,29,48,-46,-2,34,-43,-107,-102,-87,-73
-48,-19,29,34,-39,4,58,-29,-92,-92,-87,-58
-43,-19,24,31,-34,2,82,0,-78,-78,-73,-43
-34,-29,4,31,-19,-12,73,14,-73,-73,-68,-43
-19,-34,-14,26,-2,-24,58,19,-68,-73,-63,-43
-14,-34,-19,24,2,-26,78,19,-68,-78,-63,-43
-14,-29,-14,21,0,-21,112,14,-78,-82,-73,-43
-14,-24,-9,19,-2,-17,102,0,-87,-97,-73,-43
-4,-14,-9,9,2,-12,97,-14,-97,-97,-78,-43
-4,-14,-9,9,2,-12,92,-19,-102,-97,-73,-43
-9,-14,-4,12,-2,-9,87,-24,-102,-97,-68,-43
-9,-9,0,9,-4,-4,78,-24,-97,-92,-58,-29
-9,-9,0,9,-4,-4,53,-24,-87,-87,-48,-24
0,-14,-14,7,7,-14,-4,-24,-78,-68,-43,-14
9,-24,-34,7,21,-29,-29,-19,-68,-58,-43,-9
14,-39,-53,12,34,-46,-29,-39,-78,-68,-48,-9
14,-53,-68,19,41,-61,-29,-48,-92,-82,-58,-19
0,-53,-53,26,26,-53,-29,-68,-122,-107,-73,-39
-14,-43,-29,29,7,-36,-29,-87,-131,-117,-78,-48
-34,-29,4,31,-19,-12,-29,-78,-131,-112,-78,-48
-53,-24,29,39,-41,2,-9,-68,-126,-112,-78,-53
-63,-34,29,48,-46,-2,39,-63,-117,-107,-73,-53
-82,-58,24,70,-53,-17,68,-63,-131,-117,-87,-63
-87,-78,9,82,-48,-34,58,-63,-141,-126,-102,-73
-87,-78,9,82,-48,-34,58,-63,-141,-131,-102,-82
-92,-78,14,85,-53,-31,53,-53,-141,-136,-107,-82
-92,-92,0,92,-46,-46,43,-43,-146,-136,-122,-87
-92,-92,0,92,-46,-46,43,-53,-151,-146,-126,-97
-92,-87,4,90,-48,-41,43,-73,-161,-161,-131,-97
-92,-87,4,90,-48,-41,43,-73,-161,-161,-136,-102
-92,-92,0,92,-46,-46,53,-68,-161,-156,-136,-107
-92,-102,-9,97,-41,-56,34,-68,-161,-156,-131,-107
-92,-112,-19,102,-36,-65,24,-63,-156,-156,-131,-102
-97,-117,-19,107,-39,-68,34,-58,-151,-156,-136,-102
-102,-117,-14,109,-43,-65,39,-43,-151,-156,-141,-117
-117,-112,4,114,-61,-53,53,-29,-141,-165,-161,-131
-146,-112,34,129,-90,-39,78,-4,-136,-175,-190,-161
-175,-102,73,139,-124,-14,151,29,-131,-195,-209,-180
-180,-87,92,134,-136,2,209,68,-102,-185,-214,-190
-165,-68,97,117,-131,14,190,73,-58,-141,-165,-151
-97,-39,58,68,-78,9,141,48,19,-9,-24,-24
-9,19,29,-4,-19,24,63,-29,117,165,185,170
117,82,-34,-100,75,24,-122,-312,34,273,390,400
283,200,-82,-241,183,58,-380,-751,-141,385,663,712
492,366,-126,-429,309,119,-663,-1107,-200,614,1044,1107
732,580,-151,-656,441,214,-1000,-1498,-229,922,1473,1551
932,756,-175,-844,553,290,-1259,-1761,-204,1176,1839,1932
1054,732,-322,-893,688,204,-1434,-1844,-297,1185,1844,1961
1054,531,-522,-793,788,4,-1483,-1873,-639,692,1356,1546
941,400,-541,-671,741,-70,-1420,-1786,-951,126,741,1063
766,287,-478,-527,622,-95,-1195,-1566,-1127,-336,224,624
614,175,-439,-395,527,-131,-1010,-1317,-1166,-629,-97,341
517,112,-405,-314,461,-146,-858,-1073,-1024,-658,-190,185
390,34,-356,-212,373,-161,-653,-800,-810,-522,-195,78
239,-24,-263,-107,251,-143,-448,-541,-614,-419,-224,-34
117,-43,-161,-36,139,-102,-278,-361,-405,-312,-195,-73
19,-48,-68,14,43,-58,-136,-204,-258,-234,-165,-92
-29,-63,-34,46,2,-48,-34,-87,-185,-170,-141,-97
-34,-73,-39,53,2,-56,9,-19,-122,-117,-112,-97
-58,-82,-24,70,-17,-53,48,24,-58,-82,-97,-102
-58,-82,-24,70,-17,-53,82,63,-39,-78,-97,-102
-63,-92,-29,78,-17,-61,87,82,-39,-78,-97,-102
-68,-102,-34,85,-17,-68,92,87,-39,-73,-102,-107
-82,-112,-29,97,-26,-70,92,87,-19,-73,-107,-122
-92,-112,-19,102,-36,-65,97,92,-9,-73,-107,-122
-92,-112,-19,102,-36,-65,92,107,-4,-68,-102,-117
-87,-112,-24,100,-31,-68,97,112,0,-63,-97,-117
-87,-112,-24,100,-31,-68,102,126,4,-63,-97,-117
-92,-112,-19,102,-36,-65,102,141,14,-58,-92,-117
-92,-112,-19,102,-36,-65,107,126,19,-58,-92,-117
-92,-112,-19,102,-36,-65,107,122,19,-58,-92,-117
-92,-117,-24,104,-34,-70,107,126,14,-63,-97,-112
-97,-117,-19,107,-39,-68,112,122,14,-68,-102,-112
-97,-112,-14,104,-41,-63,112,122,14,-63,-102,-112
-97,-112,-14,104,-41,-63,112,122,19,-63,-102,-117
-97,-102,-4,100,-46,-53,117,126,19,-58,-97,-117
-97,-92,4,95,-51,-43,122,136,24,-48,-87,-117
-97,-102,-4,100,-46,-53,136,141,29,-48,-82,-117
-97,-112,-14,104,-41,-63,146,141,34,-43,-82,-122
-97,-112,-14,104,-41,-63,131,136,39,-43,-87,-122
-97,-107,-9,102,-43,-58,122,126,39,-48,-97,-126
-97,-102,-4,100,-46,-53,122,126,43,-48,-97,-126
-97,-97,0,97,-48,-48,122,126,43,-48,-97,-126
-97,-97,0,97,-48,-48,122,141,48,-48,-97,-126
-97,-92,4,95,-51,-43,117,151,63,-39,-92,-126
-92,-92,0,92,-46,-46,112,151,68,-34,-97,-122
-92,-92,0,92,-46,-46,107,156,73,-34,-107,-122
-92,-92,0,92,-46,-46,107,165,82,-29,-97,-122
-92,-92,0,92,-46,-46,107,170,82,-29,-87,-122
-92,-92,0,92,-46,-46,117,170,92,-14,-87,-117
-87,-87,0,87,-43,-43,122,175,97,0,-78,-107
-82,-82,0,82,-41,-41,126,180,102,0,-73,-102
-78,-78,0,78,-39,-39,131,180,112,9,-68,-102
-73,-73,0,73,-36,-36,122,185,117,14,-68,-102
-73,-73,0,73,-36,-36,117,185,126,19,-68,-102
-78,-78,0,78,-39,-39,117,195,131,19,-63,-107
-82,-78,4,80,-43,-36,117,204,146,24,-53,-107
-82,-78,4,80,-43,-36,126,219,165,34,-48,-97
-78,-87,-9,82,-34,-48,141,239,175,43,-43,-92
-78,-82,-4,80,-36,-43,131,248,195,63,-34,-82
-68,-78,-9,73,-29,-43,126,258,204,78,-29,-73
-68,-78,-9,73,-29,-43,107,268,219,87,-14,-68
-53,-68,-14,61,-19,-41,87,278,244,102,-4,-63
-53,-63,-9,58,-21,-36,92,283,263,122,4,-58
-48,-58,-9,53,-19,-34,102,292,283,141,14,-53
-43,-53,-9,48,-17,-31,117,312,307,161,29,-53
-39,-48,-9,43,-14,-29,126,336,336,175,39,-39
-24,-39,-14,31,-4,-26,117,351,361,200,53,-29
-9,-19,-9,14,0,-14,126,366,390,219,68,-19
0,-14,-14,7,7,-14,126,375,424,244,92,-4
9,0,-9,-4,9,-4,112,414,463,278,102,9
24,9,-14,-17,19,-2,112,439,502,307,122,14
34,19,-14,-26,24,2,117,463,536,336,146,29
43,34,-9,-39,26,12,107,502,585,370,170,48
58,48,-9,-53,34,19,92,527,624,409,204,63
68,53,-14,-61,41,19,82,566,668,453,224,82
78,63,-14,-70,46,24,68,600,717,492,244,97
97,87,-9,-92,53,39,63,619,771,527,283,117
102,107,4,-104,48,56,53,644,819,561,312,146
122,126,4,-124,58,65,53,673,858,605,331,156
131,151,19,-141,56,85,58,683,897,634,356,175
141,161,19,-151,61,90,58,697,932,658,375,190
151,170,19,-161,65,95,58,702,966,678,385,204
161,185,24,-173,68,104,43,702,980,692,400,219
165,209,43,-187,61,126,34,697,985,697,400,224
170,219,48,-195,61,134,34,688,985,692,395,224
170,229,58,-200,56,143,43,658,961,673,385,224
161,239,78,-200,41,158,24,619,927,644,375,214
156,248,92,-202,31,170,9,585,888,610,351,200
151,248,97,-200,26,173,4,551,844,570,322,180
131,239,107,-185,12,173,4,512,785,522,292,161
117,234,117,-175,0,175,9,463,732,473,258,141
102,224,122,-163,-9,173,9,409,653,414,214,117
82,204,122,-143,-19,163,-9,366,575,361,175,87
73,185,112,-129,-19,148,-34,302,502,302,141,58
58,165,107,-112,-24,136,-19,273,424,239,112,43
39,126,87,-82,-24,107,0,224,351,185,78,29
24,102,78,-63,-26,90,4,180,287,146,53,9
9,78,68,-43,-29,73,14,136,224,102,34,0
0,48,48,-24,-24,48,14,102,165,63,9,-14
-9,24,34,-7,-21,29,24,78,112,29,-4,-24
-14,9,24,2,-19,17,9,48,68,4,-14,-29
-19,0,19,9,-19,9,9,24,34,-9,-24,-34
-24,-14,9,19,-17,-2,14,-4,-4,-39,-39,-34
-29,-24,4,26,-17,-9,14,-29,-34,-63,-48,-34
-29,-34,-4,31,-12,-19,24,-43,-48,-73,-53,-34
-29,-43,-14,36,-7,-29,29,-53,-63,-82,-53,-34
-34,-48,-14,41,-9,-31,14,-58,-82,-92,-63,-34
-39,-48,-9,43,-14,-29,0,-68,-102,-97,-68,-39
-39,-53,-14,46,-12,-34,-4,-68,-102,-107,-73,-43
-39,-58,-19,48,-9,-39,-9,-68,-112,-107,-73,-48
-39,-58,-19,48,-9,-39,-19,-73,-117,-112,-73,-48
-39,-58,-19,48,-9,-39,-14,-78,-117,-112,-78,-53
-43,-58,-14,51,-14,-36,-4,-87,-122,-117,-82,-58
-43,-58,-14,51,-14,-36,9,-97,-126,-122,-87,-63
-43,-63,-19,53,-12,-41,19,-87,-126,-122,-87,-63
-39,-63,-24,51,-7,-43,19,-73,-131,-122,-87,-63
-43,-63,-19,53,-12,-41,4,-73,-131,-122,-82,-58
-48,-63,-14,56,-17,-39,-4,-73,-126,-122,-82,-58
-53,-63,-9,58,-21,-36,0,-68,-126,-122,-82,-58
-53,-63,-9,58,-21,-36,0,-73,-122,-122,-78,-58
-48,-68,-19,58,-14,-43,4,-73,-122,-117,-73,-58
-43,-68,-24,56,-9,-46,4,-73,-122,-117,-73,-58
-43,-82,-39,63,-2,-61,9,-78,-122,-117,-78,-63
-43,-87,-43,65,0,-65,9,-78,-122,-112,-78,-63
-43,-82,-39,63,-2,-61,9,-78,-117,-112,-78,-63
-43,-73,-29,58,-7,-51,9,-73,-107,-107,-73,-63
-48,-73,-24,61,-12,-48,4,-63,-107,-107,-73,-63
-48,-73,-24,61,-12,-48,0,-63,-107,-102,-73,-68
-48,-68,-19,58,-14,-43,0,-73,-112,-107,-78,-68
-48,-68,-19,58,-14,-43,4,-82,-117,-112,-82,-68
-48,-78,-29,63,-9,-53,9,-68,-112,-112,-82,-68
-48,-82,-34,65,-7,-58,14,-48,-107,-112,-82,-68
-48,-73,-24,61,-12,-48,9,-48,-102,-112,-78,-68
-48,-63,-14,56,-17,-39,4,-48,-97,-107,-73,-68
-48,-63,-14,56,-17,-39,4,-43,-97,-107,-73,-73
-53,-73,-19,63,-17,-46,9,-39,-97,-107,-73,-73
-48,-68,-19,58,-14,-43,14,-39,-97,-107,-82,-73
-43,-63,-19,53,-12,-41,19,-39,-97,-107,-92,-78
-48,-58,-9,53,-19,-34,19,-43,-92,-97,-87,-73
-48,-53,-4,51,-21,-29,19,-48,-87,-87,-73,-63
-48,-58,-9,53,-19,-34,14,-39,-87,-87,-73,-63
-53,-63,-9,58,-21,-36,14,-39,-87,-87,-73,-63
-53,-63,-9,58,-21,-36,14,-34,-87,-87,-73,-73
-53,-63,-9,58,-21,-36,9,-34,-87,-87,-73,-82
-58,-68,-9,63,-24,-39,29,-29,-87,-92,-73,-87
-63,-73,-9,68,-26,-41,43,-34,-87,-92,-82,-87
-58,-73,-14,65,-21,-43,29,-34,-87,-102,-82,-92
-53,-73,-19,63,-17,-46,14,-34,-87,-107,-82,-92
-53,-73,-19,63,-17,-46,24,-39,-92,-107,-82,-92
-53,-73,-19,63,-17,-46,24,-39,-92,-107,-87,-97
-53,-73,-19,63,-17,-46,29,-39,-92,-107,-87,-97
-53,-78,-24,65,-14,-51,29,-48,-92,-112,-87,-97
-68,-82,-14,75,-26,-48,24,-53,-97,-122,-97,-102
-78,-87,-9,82,-34,-48,24,-53,-102,-122,-97,-102
-73,-87,-14,80,-29,-51,9,-48,-102,-122,-97,-102
-73,-87,-14,80,-29,-51,-14,-48,-102,-122,-97,-97
-68,-87,-19,78,-24,-53,0,-53,-102,-117,-97,-97
-68,-82,-14,75,-26,-48,14,-53,-112,-117,-97,-97
-68,-82,-14,75,-26,-48,14,-58,-112,-117,-97,-102
-63,-78,-14,70,-24,-46,14,-58,-117,-122,-102,-107
-63,-78,-14,70,-24,-46,14,-58,-117,-122,-102,-107
-63,-82,-19,73,-21,-51,9,-53,-117,-122,-102,-107
-58,-82,-24,70,-17,-53,9,-48,-117,-122,-107,-102
-53,-82,-29,68,-12,-56,14,-43,-117,-122,-112,-102
-58,-78,-19,68,-19,-48,14,-43,-117,-122,-112,-102
-58,-78,-19,68,-19,-48,14,-48,-117,-122,-112,-102
-63,-78,-14,70,-24,-46,14,-58,-122,-122,-112,-102
-63,-78,-14,70,-24,-46,14,-63,-126,-122,-112,-102
-63,-78,-14,70,-24,-46,14,-63,-131,-126,-112,-102
-63,-78,-14,70,-24,-46,9,-68,-136,-131,-112,-102
-63,-78,-14,70,-24,-46,4,-68,-131,-136,-112,-102
-63,-78,-14,70,-24,-46,4,-68,-131,-136,-112,-102
-63,-78,-14,70,-24,-46,4,-68,-131,-136,-112,-102
-63,-78,-14,70,-24,-46,14,-68,-136,-136,-112,-102
-63,-78,-14,70,-24,-46,0,-68,-136,-136,-112,-102
-68,-78,-9,73,-29,-43,0,-73,-136,-136,-117,-107
-63,-78,-14,70,-24,-46,4,-73,-136,-136,-122,-107
-63,-82,-19,73,-21,-51,14,-73,-136,-136,-122,-107
-63,-92,-29,78,-17,-61,14,-73,-141,-141,-122,-107
-63,-92,-29,78,-17,-61,9,-73,-141,-141,-126,-102
-58,-82,-24,70,-17,-53,4,-82,-141,-141,-126,-102
-58,-82,-24,70,-17,-53,19,-82,-141,-141,-126,-102
-58,-82,-24,70,-17,-53,14,-73,-141,-141,-122,-102
-58,-87,-29,73,-14,-58,4,-68,-146,-141,-117,-107
-58,-87,-29,73,-14,-58,0,-63,-146,-136,-117,-102
-58,-87,-29,73,-14,-58,0,-58,-146,-136,-117,-97
-58,-87,-29,73,-14,-58,0,-63,-146,-136,-117,-97
-58,-87,-29,73,-14,-58,0,-68,-146,-136,-117,-97
-58,-87,-29,73,-14,-58,0,-73,-146,-136,-117,-97
-58,-87,-29,73,-14,-58,0,-78,-146,-136,-117,-97
-58,-82,-24,70,-17,-53,0,-78,-146,-136,-117,-97
-58,-78,-19,68,-19,-48,0,-78,-146,-136,-117,-97
-58,-78,-19,68,-19,-48,-9,-73,-146,-141,-117,-97
-58,-78,-19,68,-19,-48,-19,-68,-146,-146,-117,-97
-58,-78,-19,68,-19,-48,-4,-68,-146,-146,-117,-97
-58,-78,-19,68,-19,-48,9,-68,-146,-146,-117,-97
-58,-78,-19,68,-19,-48,9,-68,-146,-146,-117,-102
-58,-78,-19,68,-19,-48,9,-68,-146,-146,-117,-107
-58,-78,-19,68,-19,-48,4,-68,-146,-146,-117,-107
-58,-78,-19,68,-19,-48,0,-68,-146,-146,-117,-107
-58,-78,-19,68,-19,-48,0,-73,-146,-146,-117,-102
-58,-78,-19,68,-19,-48,0,-78,-146,-146,-117,-97
-58,-78,-19,68,-19,-48,4,-78,-146,-146,-117,-97
-58,-78,-19,68,-19,-48,9,-78,-146,-146,-117,-97
-58,-78,-19,68,-19,-48,9,-78,-146,-146,-117,-97
-58,-78,-19,68,-19,-48,9,-78,-146,-146,-117,-97
-58,-78,-19,68,-19,-48,4,-78,-146,-146,-117,-97
-58,-78,-19,68,-19,-48,0,-78,-146,-146,-117,-97
-58,-78,-19,68,-19,-48,0,-78,-146,-146,-122,-102
-58,-78,-19,68,-19,-48,0,-78,-146,-146,-126,-107
-53,-78,-24,65,-14,-51,0,-82,-146,-146,-126,-107
-48,-78,-29,63,-9,-53,0,-87,-146,-146,-126,-107
-48,-78,-29,63,-9,-53,4,-87,-146,-146,-122,-107
-48,-78,-29,63,-9,-53,9,-87,-146,-146,-117,-107
-48,-78,-29,63,-9,-53,9,-78,-146,-146,-117,-107
-48,-78,-29,63,-9,-53,9,-68,-146,-146,-117,-107
-48,-78,-29,63,-9,-53,0,-68,-146,-146,-117,-107
-48,-78,-29,63,-9,-53,-9,-68,-146,-146,-117,-107
-48,-78,-29,63,-9,-53,-9,-68,-146,-146,-122,-102
-48,-78,-29,63,-9,-53,-9,-68,-146,-146,-126,-97
-48,-78,-29,63,-9,-53,-4,-68,-146,-146,-126,-97
-48,-78,-29,63,-9,-53,0,-68,-146,-146,-126,-97
-53,-78,-24,65,-14,-51,0,-68,-146,-146,-126,-97
-58,-78,-19,68,-19,-48,0,-68,-146,-146,-126,-97
-58,-82,-24,70,-17,-53,4,-68,-146,-146,-126,-97
-58,-87,-29,73,-14,-58,9,-68,-146,-146,-126,-97
-58,-87,-29,73,-14,-58,9,-68,-146,-141,-122,-97
-58,-87,-29,73,-14,-58,9,-68,-146,-136,-117,-97
-53,-82,-29,68,-12,-56,9,-63,-141,-136,-117,-97
-48,-78,-29,63,-9,-53,9,-58,-136,-136,-117,-97
-48,-78,-29,63,-9,-53,19,-58,-136,-136,-122,-102
-43,-73,-29,58,-7,-51,24,-58,-131,-136,-122,-97
-43,-68,-24,56,-9,-46,29,-58,-126,-136,-122,-97
-39,-58,-19,48,-9,-39,39,-48,-126,-131,-122,-97
-34,-34,0,34,-17,-17,29,-48,-126,-122,-102,-78
-19,-9,9,14,-14,0,29,-48,-122,-112,-97,-68
-24,-9,14,17,-19,2,43,-29,-97,-97,-82,-63
-29,-19,9,24,-19,-4,48,-19,-87,-92,-78,-63
-9,-24,-14,17,2,-19,53,-9,-87,-92,-73,-63
0,-24,-24,12,12,-24,58,0,-87,-97,-73,-63
-4,-19,-14,12,4,-17,82,-4,-92,-97,-82,-58
-4,-14,-9,9,2,-12,78,-14,-92,-107,-82,-53
4,-4,-9,0,7,-7,68,-24,-97,-107,-82,-53
9,-4,-14,-2,12,-9,63,-24,-102,-107,-78,-53
4,-4,-9,0,7,-7,58,-24,-102,-107,-78,-58
0,-4,-4,2,2,-4,48,-24,-97,-102,-73,-53
0,-9,-9,4,4,-9,19,-24,-87,-97,-68,-53
9,-14,-24,2,17,-19,-24,-34,-87,-87,-63,-48
19,-24,-43,2,31,-34,-29,-39,-87,-78,-58,-43
24,-34,-58,4,41,-46,-29,-58,-97,-78,-58,-39
43,-43,-87,0,65,-65,-29,-68,-112,-92,-68,-48
48,-43,-92,-2,70,-68,-29,-78,-131,-107,-78,-58
34,-34,-68,0,51,-51,-34,-87,-131,-112,-78,-58
14,-24,-39,4,26,-31,-29,-78,-131,-112,-78,-58
-14,-9,4,12,-9,-2,0,-68,-122,-112,-78,-63
-34,-4,29,19,-31,12,19,-63,-107,-112,-78,-68
-53,-43,9,48,-31,-17,19,-63,-122,-126,-102,-82
-58,-78,-19,68,-19,-48,9,-63,-131,-136,-122,-92
-63,-78,-14,70,-24,-46,14,-68,-136,-141,-122,-102
-73,-78,-4,75,-34,-41,24,-73,-141,-146,-122,-102
-73,-92,-19,82,-26,-56,29,-73,-146,-146,-131,-107
-73,-92,-19,82,-26,-56,34,-73,-151,-151,-136,-117
-73,-87,-14,80,-29,-51,34,-82,-161,-161,-141,-117
-73,-87,-14,80,-29,-51,34,-82,-161,-161,-146,-117
-73,-92,-19,82,-26,-56,43,-68,-161,-156,-146,-117
-73,-92,-19,82,-26,-56,34,-58,-161,-156,-141,-117
-73,-92,-19,82,-26,-56,24,-53,-156,-156,-141,-107
-78,-97,-19,87,-29,-58,29,-48,-151,-156,-141,-102
-82,-97,-14,90,-34,-56,29,-43,-151,-156,-141,-117
-97,-92,4,95,-51,-43,34,-39,-141,-165,-156,-131
-117,-92,24,104,-70,-34,73,-14,-141,-185,-185,-170
-131,-82,48,107,-90,-17,141,9,-141,-209,-204,-190
-151,-68,82,109,-117,7,195,48,-131,-219,-239,-219
-141,-48,92,95,-117,21,190,58,-107,-195,-219,-200
-82,-34,48,58,-65,7,175,73,0,-63,-92,-92
-9,9,19,0,-14,14,102,9,112,107,97,73
122,43,-78,-82,100,-17,-63,-287,14,200,273,273
292,131,-161,-212,226,-14,-292,-692,-151,307,512,546
512,287,-224,-400,368,31,-639,-1078,-234,546,917,956
741,463,-278,-602,509,92,-990,-1439,-283,829,1327,1366
1000,702,-297,-851,649,202,-1273,-1668,-141,1259,1869,1888
1161,746,-414,-954,788,165,-1464,-1786,-156,1405,2039,2064
1190,507,-683,-849,936,-87,-1542,-1854,-556,849,1493,1610
1137,370,-766,-753,951,-197,-1546,-1825,-873,326,941,1200
951,268,-683,-610,817,-207,-1307,-1615,-1098,-224,370,732
790,170,-619,-480,705,-224,-1102,-1381,-1205,-600,-29,405
688,117,-570,-402,629,-226,-961,-1151,-1078,-619,-126,273
556,53,-502,-305,529,-224,-771,-902,-888,-536,-175,146
375,9,-366,-192,370,-178,-541,-649,-673,-448,-214,4
224,-14,-239,-104,231,-126,-356,-463,-473,-351,-204,-63
92,-24,-117,-34,104,-70,-200,-287,-336,-273,-185,-87
4,-39,-43,17,24,-41,-82,-136,-234,-200,-161,-97
-4,-43,-39,24,17,-41,-29,-48,-141,-131,-126,-102
-29,-53,-24,41,-2,-39,29,14,-58,-82,-102,-107
-34,-58,-24,46,-4,-41,63,58,-34,-73,-92,-102
-39,-68,-29,53,-4,-48,73,82,-29,-68,-87,-102
-39,-73,-34,56,-2,-53,73,87,-29,-63,-92,-107
-53,-82,-29,68,-12,-56,63,87,-14,-63,-97,-122
-68,-82,-14,75,-26,-48,78,92,-4,-63,-97,-122
-73,-82,-9,78,-31,-46,87,102,0,-63,-97,-117
-68,-82,-14,75,-26,-48,102,107,0,-63,-97,-117
-68,-82,-14,75,-26,-48,112,112,4,-63,-102,-122
-73,-82,-9,78,-31,-46,112,112,14,-58,-102,-126
-73,-82,-9,78,-31,-46,117,112,19,-58,-102,-126
-73,-82,-9,78,-31,-46,117,117,19,-63,-102,-126
-73,-87,-14,80,-29,-51,117,122,19,-68,-102,-122
-78,-87,-9,82,-34,-48,122,122,24,-68,-102,-122
-78,-82,-4,80,-36,-43,122,122,24,-63,-102,-122
-78,-82,-4,80,-36,-43,122,126,29,-58,-107,-126
-78,-82,-4,80,-36,-43,122,131,29,-53,-112,-126
-78,-82,-4,80,-36,-43,122,136,34,-48,-107,-126
-78,-82,-4,80,-36,-43,126,141,39,-48,-102,-122
-82,-82,0,82,-41,-41,141,141,43,-43,-102,-122
-87,-82,4,85,-46,-39,151,146,48,-39,-102,-122
-87,-82,4,85,-46,-39,131,146,48,-39,-107,-126
-87,-87,0,87,-43,-43,112,146,53,-39,-107,-126
-87,-87,0,87,-43,-43,112,146,53,-43,-107,-126
-87,-87,0,87,-43,-43,117,151,53,-48,-107,-126
-87,-78,9,82,-48,-34,131,151,63,-39,-102,-126
-82,-73,9,78,-46,-31,146,151,68,-34,-97,-122
-73,-73,0,73,-36,-36,136,165,78,-29,-92,-122
-63,-73,-9,68,-26,-41,126,185,92,-19,-87,-122
-73,-73,0,73,-36,-36,126,190,92,-19,-87,-122
-82,-73,9,78,-46,-31,131,190,102,-9,-87,-122
-78,-68,9,73,-43,-29,136,195,107,0,-78,-117
-78,-63,14,70,-46,-24,136,204,117,0,-73,-112
-73,-53,19,63,-46,-17,131,209,131,14,-68,-107
-63,-43,19,53,-41,-12,131,219,136,24,-68,-102
-63,-43,19,53,-41,-12,131,224,151,29,-68,-102
-63,-48,14,56,-39,-17,126,234,161,34,-63,-102
-63,-53,9,58,-36,-21,126,239,175,43,-48,-97
-63,-48,14,56,-39,-17,122,244,195,53,-39,-87
-63,-48,14,56,-39,-17,126,258,200,68,-34,-82
-68,-43,24,56,-46,-9,131,268,214,87,-24,-78
-58,-39,19,48,-39,-9,136,283,224,97,-19,-73
-58,-39,19,48,-39,-9,136,297,239,107,-4,-68
-43,-29,14,36,-29,-7,136,312,263,117,0,-68
-43,-24,19,34,-31,-2,131,331,283,131,4,-63
-34,-19,14,26,-24,-2,131,351,302,151,14,-53
-24,-14,9,19,-17,-2,136,370,326,170,29,-53
-19,-9,9,14,-14,0,136,400,366,190,39,-39
-9,-4,4,7,-7,0,126,424,400,219,53,-29
-4,9,14,-2,-9,12,136,444,429,239,73,-14
0,14,14,-7,-7,14,136,453,463,263,102,4
9,29,19,-19,-4,24,122,492,507,302,112,24
24,39,14,-31,4,26,122,522,551,336,131,34
34,48,14,-41,9,31,136,551,585,366,156,48
43,63,19,-53,12,41,146,590,634,395,175,68
63,87,24,-75,19,56,126,624,678,429,209,78
78,102,24,-90,26,63,112,668,727,468,234,92
87,97,9,-92,39,53,122,702,780,512,253,107
107,107,0,-107,53,53,131,727,834,551,283,122
112,126,14,-119,48,70,122,756,883,580,302,151
131,146,14,-139,58,80,112,790,927,619,317,161
141,170,29,-156,56,100,102,814,976,649,336,175
151,180,29,-165,61,104,97,844,1010,678,356,190
161,190,29,-175,65,109,97,849,1039,697,366,204
170,204,34,-187,68,119,82,849,1054,707,380,214
175,229,53,-202,61,141,78,839,1058,712,390,214
175,239,63,-207,56,151,68,819,1058,712,395,214
170,253,82,-212,43,168,63,785,1029,697,385,219
161,263,102,-212,29,183,53,741,995,673,375,219
156,268,112,-212,21,190,39,702,956,639,351,209
151,268,117,-209,17,192,24,658,902,600,322,190
131,263,131,-197,0,197,24,610,834,551,292,170
117,258,141,-187,-12,200,29,561,780,502,263,151
102,248,146,-175,-21,197,34,507,702,439,219,122
82,234,151,-158,-34,192,43,463,629,385,180,97
73,214,141,-143,-34,178,48,380,546,322,146,78
63,200,136,-131,-36,168,48,331,463,258,117,63
48,165,117,-107,-34,141,48,283,400,204,87,48
39,146,107,-92,-34,126,43,239,336,161,68,29
29,126,97,-78,-34,112,39,190,258,117,43,14
19,97,78,-58,-29,87,34,146,195,78,9,0
9,73,63,-41,-26,68,39,107,136,43,-4,-9
4,58,53,-31,-24,56,19,68,82,14,-9,-19
-4,48,53,-21,-29,51,19,39,53,0,-14,-24
-14,34,48,-9,-31,41,24,14,19,-19,-24,-24
-19,24,43,-2,-31,34,24,0,-4,-34,-29,-19
-19,14,34,2,-26,24,19,-14,-19,-43,-34,-19
-19,4,24,7,-21,14,9,-29,-43,-58,-34,-24
-24,0,24,12,-24,12,9,-39,-68,-73,-43,-24
-29,0,29,14,-29,14,9,-48,-82,-78,-48,-29
-29,-4,24,17,-26,9,9,-48,-82,-87,-53,-29
-29,-19,9,24,-19,-4,4,-53,-92,-87,-53,-29
-29,-29,0,29,-14,-14,0,-58,-97,-92,-53,-29
-29,-29,0,29,-14,-14,14,-58,-97,-92,-58,-43
-34,-29,4,31,-19,-12,14,-58,-97,-92,-58,-53
-29,-19,9,24,-19,-4,29,-48,-97,-92,-58,-43
-24,-14,9,19,-17,-2,39,-43,-97,-92,-58,-34
-19,-14,4,17,-12,-4,29,-43,-97,-92,-53,-34
-19,-14,4,17,-12,-4,24,-43,-97,-92,-48,-34
-19,-19,0,19,-9,-9,24,-53,-97,-92,-53,-39
-24,-24,0,24,-12,-12,29,-53,-97,-92,-53,-39
-29,-24,4,26,-17,-9,29,-53,-92,-92,-53,-39
-34,-29,4,31,-19,-12,34,-53,-92,-87,-53,-39
-34,-34,0,34,-17,-17,14,-53,-92,-87,-53,-39
-34,-39,-4,36,-14,-21,-4,-58,-92,-87,-58,-43
-34,-29,4,31,-19,-12,0,-63,-97,-87,-58,-48
-34,-39,-4,36,-14,-21,9,-68,-97,-92,-58,-48
-34,-34,0,34,-17,-17,29,-63,-87,-87,-53,-43
-39,-24,14,31,-26,-4,48,-53,-87,-87,-53,-43
-39,-24,14,31,-26,-4,48,-34,-82,-78,-53,-48
-39,-19,19,29,-29,0,48,-9,-78,-73,-53,-48
-39,-24,14,31,-26,-4,48,-4,-78,-73,-53,-48
-39,-29,9,34,-24,-9,48,-4,-73,-73,-53,-48
-39,-24,14,31,-26,-4,43,-4,-73,-78,-53,-48
-39,-24,14,31,-26,-4,34,-9,-73,-82,-53,-48
-39,-24,14,31,-26,-4,34,-14,-68,-78,-53,-48
-39,-24,14,31,-26,-4,34,-19,-68,-78,-53,-53
-43,-34,9,39,-26,-12,48,-19,-68,-73,-53,-53
-43,-34,9,39,-26,-12,58,-19,-68,-68,-53,-53
-43,-34,9,39,-26,-12,48,-14,-63,-68,-53,-58
-48,-29,19,39,-34,-4,39,-9,-58,-68,-63,-63
-48,-24,24,36,-36,0,39,-9,-58,-68,-63,-63
-43,-24,19,34,-31,-2,39,0,-58,-68,-63,-63
-43,-24,19,34,-31,-2,48,-4,-58,-68,-63,-63
-43,-24,19,34,-31,-2,53,-4,-58,-68,-63,-63
-43,-19,24,31,-34,2,53,-4,-53,-68,-58,-58
-48,-19,29,34,-39,4,58,-4,-48,-73,-53,-58
-53,-24,29,39,-41,2,53,-4,-48,-68,-63,-53
-53,-24,29,39,-41,2,53,4,-48,-68,-63,-53
-53,-29,24,41,-39,-2,53,4,-48,-68,-63,-53
-53,-34,19,43,-36,-7,63,4,-53,-68,-63,-53
-53,-34,19,43,-36,-7,63,9,-53,-78,-68,-63
-53,-34,19,43,-36,-7,68,9,-53,-87,-68,-68
-53,-34,19,43,-36,-7,68,9,-53,-82,-68,-68
-58,-29,29,43,-43,0,63,14,-58,-82,-78,-73
-68,-29,39,48,-53,4,63,4,-63,-82,-78,-73
-73,-29,43,51,-58,7,63,0,-63,-82,-78,-73
-63,-29,34,46,-48,2,53,0,-63,-82,-82,-73
-53,-34,19,43,-36,-7,53,-4,-63,-82,-87,-78
-58,-34,24,46,-41,-4,53,-4,-73,-92,-87,-78
-58,-34,24,46,-41,-4,53,-9,-73,-97,-87,-82
-58,-34,24,46,-41,-4,53,-9,-78,-102,-92,-87
-63,-39,24,51,-43,-7,53,-9,-78,-102,-92,-87
-63,-43,19,53,-41,-12,48,0,-78,-102,-92,-82
-63,-43,19,53,-41,-12,48,4,-78,-102,-92,-73
-63,-43,19,53,-41,-12,53,4,-78,-102,-92,-73
-68,-39,29,53,-48,-4,53,4,-78,-102,-92,-73
-63,-39,24,51,-43,-7,53,0,-78,-102,-92,-78
-58,-39,19,48,-39,-9,58,-4,-82,-102,-92,-82
-53,-39,14,46,-34,-12,78,-4,-87,-102,-92,-82
-53,-39,14,46,-34,-12,92,-4,-87,-107,-92,-82
-53,-39,14,46,-34,-12,78,-9,-87,-112,-92,-82
-53,-39,14,46,-34,-12,63,-9,-82,-112,-92,-82
-53,-39,14,46,-34,-12,63,-14,-82,-107,-92,-82
-53,-39,14,46,-34,-12,63,-19,-82,-107,-92,-82
-58,-39,19,48,-39,-9,68,-29,-87,-107,-92,-82
-63,-39,24,51,-43,-7,48,-34,-87,-107,-92,-82
-68,-39,29,53,-48,-4,48,-19,-87,-107,-97,-87
-68,-39,29,53,-48,-4,43,-4,-87,-107,-102,-87
-73,-39,34,56,-53,-2,63,0,-82,-97,-92,-78
-73,-43,29,58,-51,-7,82,4,-82,-92,-78,-68
-73,-43,29,58,-51,-7,58,4,-82,-92,-78,-63
-68,-34,34,51,-51,0,39,-4,-82,-92,-78,-63
-68,-39,29,53,-48,-4,58,-14,-82,-92,-82,-68
-68,-39,29,53,-48,-4,63,-19,-82,-92,-87,-73
-68,-39,29,53,-48,-4,63,-24,-87,-107,-92,-82
-68,-39,29,53,-48,-4,63,-24,-97,-117,-97,-87
-68,-34,34,51,-51,0,58,-19,-97,-117,-97,-87
-68,-29,39,48,-53,4,58,-19,-97,-117,-97,-87
-68,-29,39,48,-53,4,58,-19,-97,-112,-97,-87
-68,-29,39,48,-53,4,58,-19,-97,-107,-97,-87
-68,-29,39,48,-53,4,63,-19,-97,-107,-97,-87
-68,-29,39,48,-53,4,68,-19,-97,-107,-97,-87
-63,-29,34,46,-48,2,68,-19,-92,-107,-97,-87
-58,-29,29,43,-43,0,68,-19,-87,-107,-97,-87
-58,-34,24,46,-41,-4,58,-9,-87,-107,-97,-87
-58,-39,19,48,-39,-9,48,0,-87,-107,-97,-87
-63,-39,24,51,-43,-7,43,0,-87,-112,-97,-87
-68,-39,29,53,-48,-4,39,0,-87,-117,-97,-87
-68,-39,29,53,-48,-4,39,-4,-87,-117,-97,-87
-68,-39,29,53,-48,-4,39,-9,-87,-117,-97,-87
-63,-29,34,46,-48,2,63,-9,-87,-107,-97,-87
-58,-19,39,39,-48,9,87,-9,-87,-97,-97,-87
-53,-19,34,36,-43,7,87,-9,-87,-97,-97,-87
-48,-19,29,34,-39,4,87,-9,-87,-97,-97,-87
-48,-19,29,34,-39,4,73,-9,-87,-102,-97,-92
-48,-19,29,34,-39,4,58,-9,-87,-107,-97,-97
-58,-24,34,41,-46,4,58,-9,-87,-107,-97,-97
-68,-29,39,48,-53,4,58,-9,-87,-107,-97,-97
-68,-29,39,48,-53,4,58,-9,-87,-107,-92,-92
-68,-29,39,48,-53,4,58,-9,-87,-107,-87,-87
-68,-29,39,48,-53,4,58,-9,-87,-102,-87,-82
-68,-29,39,48,-53,4,58,-9,-87,-97,-87,-78
-68,-29,39,48,-53,4,68,-4,-87,-97,-87,-78
-68,-29,39,48,-53,4,78,0,-87,-97,-87,-78
-68,-29,39,48,-53,4,78,0,-82,-102,-87,-78
-68,-29,39,48,-53,4,78,0,-78,-107,-87,-78
-68,-34,34,51,-51,0,68,4,-78,-107,-92,-82
-68,-39,29,53,-48,-4,58,9,-78,-107,-97,-87
-73,-39,34,56,-53,-2,58,9,-82,-107,-102,-87
-78,-39,39,58,-58,0,58,9,-87,-107,-107,-87
-78,-34,43,56,-61,4,63,4,-87,-107,-107,-92
-78,-29,48,53,-63,9,68,0,-87,-107,-107,-97
-73,-29,43,51,-58,7,73,0,-82,-107,-102,-97
-68,-29,39,48,-53,4,78,0,-78,-107,-97,-97
-68,-29,39,48,-53,4,78,0,-78,-107,-97,-92
-68,-29,39,48,-53,4,78,0,-78,-107,-97,-87
-68,-29,39,48,-53,4,73,0,-78,-107,-97,-87
-68,-29,39,48,-53,4,68,0,-78,-107,-97,-87
-68,-29,39,48,-53,4,68,0,-78,-107,-97,-87
-68,-29,39,48,-53,4,68,0,-78,-107,-97,-87
-68,-29,39,48,-53,4,82,9,-78,-107,-97,-87
-68,-29,39,48,-53,4,97,19,-78,-107,-97,-87
-68,-29,39,48,-53,4,87,9,-78,-107,-97,-92
-68,-29,39,48,-53,4,78,0,-78,-107,-97,-97
-68,-29,39,48,-53,4,78,0,-78,-107,-97,-97
-68,-29,39,48,-53,4,78,0,-78,-107,-97,-97
-68,-29,39,48,-53,4,78,14,-73,-102,-97,-97
-68,-29,39,48,-53,4,78,29,-68,-97,-97,-97
-68,-29,39,48,-53,4,73,29,-68,-97,-97,-97
-68,-29,39,48,-53,4,68,29,-68,-97,-97,-97
-58,-19,39,39,-48,9,68,39,-58,-87,-87,-78
-48,-9,39,29,-43,14,68,48,-48,-78,-78,-58
-48,4,53,21,-51,29,87,58,-39,-68,-73,-58
-48,19,68,14,-58,43,107,68,-29,-58,-68,-58
-39,24,63,7,-51,43,126,68,-19,-53,-58,-53
-29,29,58,0,-43,43,146,68,-9,-48,-48,-48
-19,29,48,-4,-34,39,146,73,-9,-48,-48,-48
-9,29,39,-9,-24,34,146,78,-9,-48,-48,-48
-9,29,39,-9,-24,34,156,78,-9,-53,-53,-48
-9,29,39,-9,-24,34,165,78,-9,-58,-58,-48
-9,34,43,-12,-26,39,151,73,-14,-58,-58,-48
-9,39,48,-14,-29,43,136,68,-19,-58,-58,-48
-9,39,48,-14,-29,43,122,63,-19,-58,-58,-48
-9,39,48,-14,-29,43,107,58,-19,-58,-58,-48
-4,29,34,-12,-19,31,78,53,-19,-58,-58,-48
0,19,19,-9,-9,19,48,48,-19,-58,-58,-48
9,14,4,-12,2,9,48,48,-24,-63,-58,-48
19,9,-9,-14,14,0,48,48,-29,-68,-58,-48
19,0,-19,-9,19,-9,48,39,-43,-73,-63,-48
19,-9,-29,-4,24,-19,48,29,-58,-78,-68,-48
4,0,-4,-2,4,-2,39,19,-58,-82,-73,-58
-9,9,19,0,-14,14,29,9,-58,-87,-78,-68
-34,9,43,12,-39,26,53,9,-58,-87,-78,-68
-58,9,68,24,-63,39,78,9,-58,-87,-78,-68
-73,-4,68,39,-70,31,92,19,-58,-92,-87,-78
-87,-19,68,53,-78,24,107,29,-58,-97,-97,-87
-87,-29,58,58,-73,14,107,34,-68,-107,-107,-102
-87,-39,48,63,-68,4,107,39,-78,-117,-117,-117
-92,-43,48,68,-70,2,107,39,-78,-117,-126,-122
-97,-48,48,73,-73,0,107,39,-78,-117,-136,-126
-97,-53,43,75,-70,-4,107,29,-87,-122,-136,-126
-97,-58,39,78,-68,-9,107,19,-97,-126,-136,-126
-97,-58,39,78,-68,-9,112,29,-87,-126,-131,-126
-97,-58,39,78,-68,-9,117,39,-78,-126,-126,-126
-97,-63,34,80,-65,-14,117,39,-78,-126,-126,-126
-97,-68,29,82,-63,-19,117,39,-78,-126,-126,-126
-112,-68,43,90,-78,-12,126,63,-73,-126,-131,-131
-126,-68,58,97,-92,-4,136,87,-68,-126,-136,-136
-146,-53,92,100,-119,19,170,107,-63,-141,-161,-161
-165,-39,126,102,-146,43,204,126,-58,-156,-185,-185
-165,-29,136,97,-151,53,219,141,-29,-136,-165,-170
-165,-19,146,92,-156,63,234,156,0,-117,-146,-156
-78,19,97,29,-87,58,175,78,78,24,9,-9
9,58,48,-34,-19,53,117,0,156,165,165,136
175,141,-34,-158,104,53,-112,-346,53,292,400,385
341,224,-117,-283,229,53,-341,-692,-48,419,634,634
580,375,-204,-478,392,85,-644,-1029,-97,673,1005,1015
819,527,-292,-673,556,117,-946,-1366,-146,927,1376,1395
1000,600,-400,-800,700,100,-1146,-1527,-161,1068,1586,1600
1180,673,-507,-927,844,82,-1346,-1688,-175,1210,1795,1805
1146,512,-634,-829,890,-61,-1366,-1673,-497,732,1307,1424
1112,351,-761,-732,936,-204,-1385,-1659,-819,253,819,1044
961,263,-697,-612,829,-217,-1210,-1454,-941,-136,409,707
810,175,-634,-492,722,-229,-1034,-1249,-1063,-527,0,370
810,175,-634,-492,722,-229,-1034,-1249,-1063,-527,0,370
