I, II, III, aVR, aVL, aVF, V1, V2, V3, V4, V5, V6
0,9,9,-4,-4,9,19,107,185,117,87,48
4,14,9,-9,-2,12,14,112,195,131,97,53
9,19,9,-14,0,14,9,117,204,146,107,58
14,19,4,-17,4,12,9,122,214,151,117,63
19,19,0,-19,9,9,9,126,224,156,126,68
19,24,4,-21,7,14,9,126,234,165,131,73
19,29,9,-24,4,19,9,126,244,175,136,78
19,34,14,-26,2,24,9,131,248,185,141,78
19,39,19,-29,0,29,9,136,253,195,146,78
24,39,14,-31,4,26,9,141,263,204,161,87
29,39,9,-34,9,24,9,146,273,214,175,97
29,43,14,-36,7,29,9,151,283,224,180,102
29,48,19,-39,4,34,9,156,292,234,185,107
29,53,24,-41,2,39,9,156,302,239,195,117
29,58,29,-43,0,43,9,156,312,244,204,126
29,63,34,-46,-2,48,9,156,317,248,204,126
29,68,39,-48,-4,53,9,156,322,253,204,126
29,78,48,-53,-9,63,4,156,326,258,209,131
29,87,58,-58,-14,73,0,156,331,263,214,136
29,97,68,-63,-19,82,0,151,331,268,219,141
29,107,78,-68,-24,92,0,146,331,273,224,146
19,122,102,-70,-41,112,0,141,331,273,224,146
9,136,126,-73,-58,131,0,136,331,273,224,146
4,146,141,-75,-68,143,0,126,326,268,219,146
0,156,156,-78,-78,156,0,117,322,263,214,146
-4,165,170,-80,-87,168,0,107,307,258,204,141
-9,175,185,-82,-97,180,0,97,292,253,195,136
-24,185,209,-80,-117,197,0,73,278,239,185,126
-39,195,234,-78,-136,214,0,48,263,224,175,117
-53,204,258,-75,-156,231,4,29,239,204,156,102
-68,214,283,-73,-175,248,9,9,214,185,136,87
-78,224,302,-73,-190,263,9,-9,185,161,117,78
-87,234,322,-73,-204,278,9,-29,156,136,97,68
-102,239,341,-68,-222,290,4,-48,126,107,68,48
-117,244,361,-63,-239,302,0,-68,97,78,39,29
-131,244,375,-56,-253,309,0,-87,63,48,14,9
-146,244,390,-48,-268,317,0,-107,29,19,-9,-9
-156,244,400,-43,-278,322,0,-122,4,-9,-39,-24
-165,244,409,-39,-287,326,0,-136,-19,-39,-68,-39
-165,234,400,-34,-283,317,-4,-141,-43,-58,-82,-53
-165,224,390,-29,-278,307,-9,-146,-68,-78,-97,-68
-165,219,385,-26,-275,302,-14,-156,-82,-92,-112,-78
-165,214,380,-24,-273,297,-19,-165,-97,-107,-126,-87
-161,200,361,-19,-261,280,-24,-165,-112,-117,-126,-87
-156,185,341,-14,-248,263,-29,-165,-126,-126,-126,-87
-141,170,312,-14,-226,241,-29,-165,-131,-131,-126,-87
-126,156,283,-14,-204,219,-29,-165,-136,-136,-126,-87
-117,141,258,-12,-187,200,-34,-161,-141,-136,-126,-82
-107,126,234,-9,-170,180,-39,-156,-146,-136,-126,-78
-97,112,209,-7,-153,161,-43,-156,-146,-136,-126,-78
-87,97,185,-4,-136,141,-48,-156,-146,-136,-126,-78
-78,87,165,-4,-122,126,-48,-146,-141,-131,-117,-73
-68,78,146,-4,-107,112,-48,-136,-136,-126,-107,-68
-58,68,126,-4,-92,97,-48,-136,-131,-122,-102,-68
-48,58,107,-4,-78,82,-48,-136,-126,-117,-97,-68
-43,48,92,-2,-68,70,-48,-131,-126,-112,-97,-63
-39,39,78,0,-58,58,-48,-126,-126,-107,-97,-58
-39,34,73,2,-56,53,-48,-122,-122,-102,-92,-53
-39,29,68,4,-53,48,-48,-117,-117,-97,-87,-48
-39,29,68,4,-53,48,-43,-117,-112,-92,-82,-48
-39,29,68,4,-53,48,-39,-117,-107,-87,-78,-48
-34,19,53,7,-43,36,-39,-107,-97,-82,-73,-48
-29,9,39,9,-34,24,-39,-97,-87,-78,-68,-48
-29,9,39,9,-34,24,-39,-97,-87,-78,-63,-48
-29,9,39,9,-34,24,-39,-97,-87,-78,-58,-48
-29,9,39,9,-34,24,-39,-92,-82,-68,-58,-43
-29,9,39,9,-34,24,-39,-87,-78,-58,-58,-39
-29,4,34,12,-31,19,-34,-82,-73,-58,-58,-39
-29,0,29,14,-29,14,-29,-78,-68,-58,-58,-39
-24,0,24,12,-24,12,-29,-78,-68,-58,-58,-39
-19,0,19,9,-19,9,-29,-78,-68,-58,-58,-39
-19,0,19,9,-19,9,-29,-73,-68,-58,-53,-34
-19,0,19,9,-19,9,-29,-68,-68,-58,-48,-29
-19,0,19,9,-19,9,-29,-68,-63,-53,-48,-29
-19,0,19,9,-19,9,-29,-68,-58,-48,-48,-29
-19,0,19,9,-19,9,-29,-63,-53,-48,-48,-29
-19,0,19,9,-19,9,-29,-58,-48,-48,-48,-29
-19,0,19,9,-19,9,-29,-58,-48,-48,-48,-29
-19,0,19,9,-19,9,-29,-58,-48,-48,-48,-29
-19,0,19,9,-19,9,-29,-58,-48,-48,-48,-29
-19,0,19,9,-19,9,-29,-58,-48,-48,-48,-29
-19,0,19,9,-19,9,-29,-53,-43,-48,-48,-29
-19,0,19,9,-19,9,-29,-48,-39,-48,-48,-29
-19,-4,14,12,-17,4,-29,-48,-39,-48,-48,-29
-19,-9,9,14,-14,0,-29,-48,-39,-48,-48,-29
-19,-9,9,14,-14,0,-29,-48,-39,-48,-48,-29
-19,-9,9,14,-14,0,-29,-48,-39,-48,-48,-29
-19,-9,9,14,-14,0,-29,-48,-39,-48,-48,-29
-19,-9,9,14,-14,0,-29,-48,-39,-48,-48,-29
-19,-9,9,14,-14,0,-29,-48,-39,-48,-48,-29
-19,-9,9,14,-14,0,-29,-48,-39,-48,-48,-29
-19,-9,9,14,-14,0,-34,-48,-39,-48,-48,-29
-19,-9,9,14,-14,0,-39,-48,-39,-48,-48,-29
-19,-9,9,14,-14,0,-39,-48,-43,-48,-48,-34
-19,-9,9,14,-14,0,-39,-48,-48,-48,-48,-39
-19,-9,9,14,-14,0,-39,-53,-48,-48,-48,-39
-19,-9,9,14,-14,0,-39,-58,-48,-48,-48,-39
-19,-4,14,12,-17,4,-39,-58,-48,-48,-48,-34
-19,0,19,9,-19,9,-39,-58,-48,-48,-48,-29
-14,19,34,-2,-24,26,-39,-53,-34,-39,-39,-19
-9,39,48,-14,-29,43,-39,-48,-19,-29,-29,-9
-4,48,53,-21,-29,51,-34,-48,-14,-19,-19,-4
0,58,58,-29,-29,58,-29,-48,-9,-9,-9,0
0,63,63,-31,-31,63,-24,-48,-4,-4,-9,4
0,68,68,-34,-34,68,-19,-48,0,0,-9,9
4,82,78,-43,-36,80,-19,-43,14,14,4,14
9,97,87,-53,-39,92,-19,-39,29,29,19,19
24,112,87,-68,-31,100,-34,-39,29,34,24,24
34,122,87,-78,-26,104,-68,-58,19,34,24,24
43,136,92,-90,-24,114,-102,-78,9,39,29,29
48,146,97,-97,-24,122,-151,-117,-19,24,19,29
53,156,102,-104,-24,129,-165,-131,-34,9,14,29
63,161,97,-112,-17,129,-170,-131,-43,9,14,29
78,175,97,-126,-9,136,-175,-136,-43,9,14,39
102,200,97,-151,2,148,-185,-136,-39,24,29,58
112,209,97,-161,7,153,-185,-136,-29,34,48,68
112,209,97,-161,7,153,-180,-131,-29,34,39,68
97,180,82,-139,7,131,-165,-122,-29,24,29,68
78,146,68,-112,4,107,-151,-117,-34,14,24,53
43,117,73,-80,-14,95,-131,-117,-58,-4,0,29
4,82,78,-43,-36,80,-107,-112,-58,-19,-24,4
-4,63,68,-29,-36,65,-87,-107,-58,-29,-29,-4
-9,34,43,-12,-26,39,-78,-107,-68,-39,-39,-19
-14,19,34,-2,-24,26,-68,-107,-73,-43,-43,-24
-14,19,34,-2,-24,26,-68,-107,-73,-48,-43,-29
-19,19,39,0,-29,29,-68,-107,-73,-48,-43,-34
-29,9,39,9,-34,24,-63,-107,-78,-48,-48,-34
-34,0,34,17,-34,17,-53,-102,-78,-53,-48,-34
-39,-9,29,24,-34,9,-48,-102,-78,-53,-48,-39
-43,-14,29,29,-36,7,-48,-102,-78,-53,-48,-39
-43,-19,24,31,-34,2,-43,-97,-78,-53,-53,-43
-48,-24,24,36,-36,0,-39,-97,-78,-58,-53,-43
-48,-24,24,36,-36,0,-39,-92,-78,-58,-53,-43
-53,-29,24,41,-39,-2,-34,-92,-78,-63,-58,-48
-53,-29,24,41,-39,-2,-34,-92,-78,-68,-58,-48
-48,-29,19,39,-34,-4,-29,-92,-78,-68,-58,-48
-43,-34,9,39,-26,-12,-29,-92,-78,-68,-58,-48
-48,-29,19,39,-34,-4,-24,-92,-78,-68,-58,-48
-48,-24,24,36,-36,0,-24,-92,-78,-68,-58,-48
-53,-24,29,39,-41,2,-24,-97,-78,-63,-58,-48
-58,-24,34,41,-46,4,-24,-102,-78,-58,-58,-48
-63,-4,58,34,-61,26,-24,-107,-68,-43,-43,-43
-82,48,131,17,-107,90,-14,-107,-9,14,9,-9
-131,122,253,4,-192,187,19,-97,68,107,63,19
-214,200,414,7,-314,307,82,-68,161,185,102,29
-263,278,541,-7,-402,409,136,-34,234,253,151,48
-263,370,634,-53,-448,502,146,-34,273,331,219,107
-204,448,653,-122,-429,551,122,-43,292,390,312,209
-82,566,649,-241,-366,607,19,-112,292,492,473,419
68,507,439,-287,-185,473,9,-39,385,600,605,531
302,131,-170,-217,236,-19,122,356,702,741,736,585
600,-229,-829,-185,714,-529,136,639,819,805,805,649
888,-536,-1424,-175,1156,-980,117,771,814,863,897,751
1093,-722,-1815,-185,1454,-1268,14,688,600,795,897,775
1229,-795,-2025,-217,1627,-1410,-224,312,53,512,751,741
1156,-1054,-2210,-51,1683,-1632,-263,4,-585,-82,258,444
800,-1307,-2108,253,1454,-1708,-34,-136,-1146,-785,-424,-68
268,-1366,-1634,549,951,-1500,336,-43,-1444,-1273,-897,-488
-185,-1351,-1166,768,490,-1259,590,112,-1395,-1390,-1098,-766
-448,-1298,-849,873,200,-1073,688,258,-1166,-1278,-1107,-907
-497,-1220,-722,858,112,-971,668,307,-1005,-1171,-1073,-946
-444,-1039,-595,741,75,-817,517,200,-873,-1005,-932,-824
-351,-883,-531,617,90,-707,366,190,-717,-824,-756,-688
-239,-688,-448,463,104,-568,234,190,-522,-610,-536,-502
-151,-512,-361,331,104,-436,209,209,-322,-424,-370,-346
-107,-375,-268,241,80,-322,190,229,-180,-297,-273,-258
-78,-258,-180,168,51,-219,156,258,-53,-151,-146,-175
-43,-180,-136,112,46,-158,117,214,14,-58,-48,-92
-24,-112,-87,68,31,-100,78,151,48,-4,0,-29
-19,-58,-39,39,9,-48,68,141,102,29,19,-9
-19,-43,-24,31,2,-34,58,156,136,58,34,-4
-19,-34,-14,26,-2,-24,53,146,141,78,63,9
-9,-24,-14,17,2,-19,53,131,141,82,73,19
-4,-14,-9,9,2,-12,48,131,151,92,73,24
-4,-9,-4,7,0,-7,39,131,175,107,78,29
4,-4,-9,0,7,-7,34,131,185,126,92,34
14,4,-9,-9,12,-2,34,126,185,131,117,43
19,4,-14,-12,17,-4,24,126,195,136,117,53
19,14,-4,-17,12,4,19,131,209,146,122,53
19,14,-4,-17,12,4,14,136,219,156,131,58
24,19,-4,-21,14,7,14,136,229,170,141,73
24,19,-4,-21,14,7,14,141,234,170,146,73
24,29,4,-26,9,17,14,146,244,180,156,73
34,29,-4,-31,19,12,19,151,258,190,161,78
34,34,0,-34,17,17,19,156,273,200,170,87
34,34,0,-34,17,17,19,161,278,204,175,92
39,39,0,-39,19,19,19,161,287,209,185,102
39,43,4,-41,17,24,19,170,302,219,185,102
39,48,9,-43,14,29,19,170,307,229,195,112
39,53,14,-46,12,34,14,170,312,239,204,112
39,63,24,-51,7,43,14,175,317,244,209,112
43,68,24,-56,9,46,9,175,326,248,219,122
43,78,34,-61,4,56,4,175,331,258,219,122
43,82,39,-63,2,61,0,175,336,268,229,136
43,82,39,-63,2,61,0,170,341,278,234,146
43,92,48,-68,-2,70,0,170,346,278,234,151
39,97,58,-68,-9,78,0,165,346,283,234,151
39,107,68,-73,-14,87,0,161,346,287,239,156
29,117,87,-73,-29,102,0,156,346,287,244,156
24,126,102,-75,-39,114,0,146,351,287,244,156
14,136,122,-75,-53,129,0,136,346,287,244,156
9,146,136,-78,-63,141,0,126,336,283,234,156
0,156,156,-78,-78,156,0,117,326,273,229,151
-9,165,175,-78,-92,170,0,102,317,263,224,141
-19,180,200,-80,-109,190,0,87,297,248,214,131
-29,190,219,-80,-124,204,0,68,283,239,200,126
-39,200,239,-80,-139,219,0,48,258,219,180,117
-53,214,268,-80,-161,241,0,29,234,200,161,102
-63,224,287,-80,-175,256,0,4,209,180,141,92
-78,234,312,-78,-195,273,0,-14,180,156,122,82
-92,239,331,-73,-212,285,0,-43,151,126,97,63
-117,244,361,-63,-239,302,0,-58,122,107,68,43
-131,248,380,-58,-256,314,0,-82,97,82,39,24
-141,244,385,-51,-263,314,4,-97,68,53,14,9
-156,239,395,-41,-275,317,9,-112,34,29,-9,-4
-165,234,400,-34,-283,317,4,-122,0,0,-29,-24
-165,224,390,-29,-278,307,4,-131,-24,-24,-48,-34
-170,219,390,-24,-280,305,0,-141,-39,-43,-63,-43
-170,209,380,-19,-275,295,-9,-146,-63,-63,-68,-53
-165,204,370,-19,-268,287,-14,-151,-82,-78,-82,-58
-161,190,351,-14,-256,270,-19,-156,-92,-87,-92,-58
-151,185,336,-17,-244,261,-19,-156,-102,-97,-97,-63
-141,161,302,-9,-222,231,-24,-156,-107,-97,-97,-63
-131,151,283,-9,-207,217,-29,-156,-107,-102,-97,-63
-122,131,253,-4,-187,192,-29,-151,-107,-102,-97,-63
-112,122,234,-4,-173,178,-34,-146,-112,-102,-92,-63
-97,107,204,-4,-151,156,-34,-136,-112,-102,-92,-58
-87,92,180,-2,-134,136,-34,-136,-112,-97,-87,-58
-78,78,156,0,-117,117,-39,-131,-112,-97,-87,-58
-63,73,136,-4,-100,104,-39,-126,-112,-92,-82,-58
-48,63,112,-7,-80,87,-39,-122,-107,-87,-78,-53
-48,48,97,0,-73,73,-39,-122,-107,-87,-82,-48
-43,39,82,2,-63,61,-39,-122,-107,-82,-78,-48
-43,34,78,4,-61,56,-39,-122,-102,-78,-73,-43
-39,24,63,7,-51,43,-39,-112,-97,-73,-68,-43
-34,24,58,4,-46,41,-34,-107,-92,-68,-63,-39
-29,19,48,4,-39,34,-34,-102,-92,-63,-63,-39
-29,19,48,4,-39,34,-34,-102,-87,-68,-58,-34
-24,14,39,4,-31,26,-34,-97,-78,-68,-53,-34
-24,9,34,7,-29,21,-39,-92,-73,-63,-48,-29
-19,9,29,4,-24,19,-43,-92,-73,-58,-43,-29
-19,4,24,7,-21,14,-39,-82,-68,-58,-43,-29
-19,4,24,7,-21,14,-39,-82,-68,-53,-43,-29
-24,0,24,12,-24,12,-34,-78,-63,-53,-39,-34
-29,0,29,14,-29,14,-29,-73,-58,-48,-39,-34
-24,0,24,12,-24,12,-29,-73,-53,-43,-39,-34
-24,0,24,12,-24,12,-29,-73,-53,-43,-43,-34
-24,0,24,12,-24,12,-29,-68,-48,-43,-43,-34
-24,0,24,12,-24,12,-24,-68,-48,-43,-43,-34
-19,-4,14,12,-17,4,-24,-63,-43,-43,-43,-34
-19,-4,14,12,-17,4,-24,-58,-39,-39,-43,-34
-24,-9,14,17,-19,2,-24,-58,-43,-34,-39,-29
-24,-9,14,17,-19,2,-24,-53,-48,-34,-34,-29
-24,-9,14,17,-19,2,-24,-53,-43,-34,-34,-29
-24,-9,14,17,-19,2,-24,-53,-39,-34,-34,-29
-14,-4,9,9,-12,2,-24,-43,-39,-39,-34,-29
-9,0,9,4,-9,4,-24,-43,-39,-43,-34,-34
-9,-4,4,7,-7,0,-24,-43,-39,-43,-34,-34
-9,-4,4,7,-7,0,-24,-43,-39,-43,-34,-34
-9,-4,4,7,-7,0,-19,-43,-39,-43,-34,-34
-9,-4,4,7,-7,0,-19,-43,-39,-39,-34,-34
-9,-4,4,7,-7,0,-24,-43,-34,-39,-34,-34
-9,-4,4,7,-7,0,-29,-39,-34,-39,-34,-34
-9,-4,4,7,-7,0,-29,-39,-34,-39,-34,-34
-9,-4,4,7,-7,0,-34,-43,-34,-39,-34,-29
-9,-4,4,7,-7,0,-34,-43,-34,-39,-39,-29
-9,-4,4,7,-7,0,-34,-43,-34,-39,-43,-29
-9,-4,4,7,-7,0,-34,-43,-34,-39,-43,-29
-9,-4,4,7,-7,0,-34,-48,-34,-39,-43,-34
-14,-9,4,12,-9,-2,-34,-53,-39,-43,-43,-34
-19,-14,4,17,-12,-4,-34,-53,-39,-43,-43,-34
-19,-19,0,19,-9,-9,-34,-53,-43,-43,-43,-39
-19,-19,0,19,-9,-9,-34,-53,-43,-39,-43,-39
-14,-14,0,14,-7,-7,-39,-53,-48,-43,-43,-39
-14,-14,0,14,-7,-7,-39,-58,-48,-43,-39,-39
-9,-14,-4,12,-2,-9,-39,-58,-48,-43,-39,-39
-9,-14,-4,12,-2,-9,-39,-58,-43,-39,-43,-43
-4,-4,0,4,-2,-2,-34,-58,-39,-34,-43,-39
-4,0,4,2,-4,2,-29,-53,-39,-34,-39,-34
-4,9,14,-2,-9,12,-29,-53,-34,-24,-34,-34
4,24,19,-14,-7,21,-29,-53,-24,-14,-24,-24
4,39,34,-21,-14,36,-29,-48,-19,-9,-19,-14
4,53,48,-29,-21,51,-29,-48,-14,-4,-14,-4
9,63,53,-36,-21,58,-24,-43,-4,0,-4,0
19,78,58,-48,-19,68,-19,-39,0,9,0,9
24,87,63,-56,-19,75,-19,-34,14,19,9,14
29,97,68,-63,-19,82,-19,-29,29,29,19,19
39,107,68,-73,-14,87,-43,-29,24,39,24,24
43,117,73,-80,-14,95,-82,-58,4,34,19,24
48,126,78,-87,-14,102,-122,-92,-9,34,19,29
53,136,82,-95,-14,109,-146,-122,-24,19,14,29
63,141,78,-102,-7,109,-156,-126,-39,14,14,29
78,156,78,-117,0,117,-170,-136,-43,9,14,34
102,180,78,-141,12,129,-195,-136,-39,24,34,53
112,190,78,-151,17,134,-204,-136,-29,34,58,68
122,204,82,-163,19,143,-200,-131,-29,34,53,68
122,190,68,-156,26,129,-180,-122,-29,24,48,68
107,156,48,-131,29,102,-161,-117,-34,14,43,53
73,126,53,-100,9,90,-141,-117,-58,-4,19,29
24,92,68,-58,-21,80,-117,-112,-58,-19,-9,4
4,73,68,-39,-31,70,-102,-107,-58,-29,-19,-4
-4,39,43,-17,-24,41,-92,-107,-68,-39,-34,-19
-14,19,34,-2,-24,26,-78,-107,-73,-43,-43,-19
-14,19,34,-2,-24,26,-78,-107,-73,-48,-43,-19
-14,19,34,-2,-24,26,-78,-107,-73,-48,-43,-24
-19,9,29,4,-24,19,-73,-107,-78,-48,-48,-29
-24,4,29,9,-26,17,-63,-102,-78,-53,-48,-34
-29,0,29,14,-29,14,-58,-102,-78,-53,-48,-39
-34,-4,29,19,-31,12,-58,-102,-78,-53,-48,-39
-34,-9,24,21,-29,7,-53,-97,-78,-53,-53,-43
-39,-14,24,26,-31,4,-48,-97,-78,-58,-53,-43
-39,-14,24,26,-31,4,-48,-92,-78,-63,-53,-43
-43,-19,24,31,-34,2,-43,-92,-78,-68,-58,-48
-43,-19,24,31,-34,2,-43,-97,-78,-68,-58,-48
-43,-19,24,31,-34,2,-39,-102,-78,-68,-58,-48
-43,-24,19,34,-31,-2,-39,-102,-78,-63,-63,-48
-48,-24,24,36,-36,0,-34,-102,-78,-58,-68,-48
-48,-29,19,39,-34,-4,-34,-97,-78,-58,-68,-48
-48,-34,14,41,-31,-9,-34,-92,-78,-58,-68,-48
-43,-48,-4,46,-19,-26,-34,-92,-87,-78,-73,-53
-43,-43,0,43,-21,-21,-34,-97,-92,-82,-68,-53
-43,4,48,19,-46,26,-39,-97,-53,-24,-19,-19
-73,73,146,0,-109,109,-19,-92,9,63,34,4
-175,146,322,14,-248,234,58,-63,122,136,68,4
-244,219,463,12,-353,341,126,-24,214,204,112,19
-287,302,590,-7,-439,446,175,0,263,278,156,39
-273,370,644,-48,-458,507,185,14,297,336,234,112
-185,610,795,-212,-490,702,29,-170,214,405,380,331
-63,668,732,-302,-397,700,-29,-209,244,512,517,468
146,312,165,-229,-9,239,102,190,605,678,663,531
414,-24,-439,-195,427,-231,141,502,780,751,736,580
756,-390,-1146,-183,951,-768,180,795,941,902,893,702
1015,-629,-1644,-192,1329,-1137,131,863,873,912,936,756
1288,-649,-1937,-319,1612,-1293,-214,473,414,814,976,883
1351,-858,-2210,-246,1781,-1534,-361,102,-195,366,649,722
1073,-1200,-2274,63,1673,-1737,-180,-146,-932,-463,-126,170
614,-1351,-1966,368,1290,-1659,141,-151,-1395,-1088,-707,-287
34,-1371,-1405,668,719,-1388,488,24,-1444,-1351,-1024,-644
-351,-1346,-995,849,322,-1171,688,209,-1293,-1356,-1127,-863
-463,-1293,-829,878,183,-1061,732,307,-1117,-1273,-1146,-980
-483,-1141,-658,812,87,-900,634,244,-971,-1127,-1054,-927
-400,-990,-590,695,95,-790,448,200,-839,-951,-883,-795
-287,-795,-507,541,109,-651,278,170,-668,-736,-668,-614
-185,-605,-419,395,117,-512,239,190,-463,-536,-492,-444
-126,-453,-326,290,100,-390,209,209,-297,-395,-380,-336
-92,-326,-234,209,70,-280,175,268,-131,-229,-244,-248
-48,-234,-185,141,68,-209,136,253,-34,-112,-126,-156
-24,-141,-117,82,46,-129,92,175,0,-48,-58,-73
-19,-68,-48,43,14,-58,78,151,58,-4,-19,-34
-19,-53,-34,36,7,-43,68,165,107,34,4,-24
-19,-43,-24,31,2,-34,58,156,122,58,34,-4
-9,-34,-24,21,7,-29,53,136,122,63,53,9
-4,-19,-14,12,4,-17,48,131,131,73,63,14
-4,-9,-4,7,0,-7,39,131,161,92,68,24
0,-4,-4,2,2,-4,34,131,175,117,78,34
9,4,-4,-7,7,0,29,126,175,122,97,43
19,4,-14,-12,17,-4,19,126,185,126,97,53
19,14,-4,-17,12,4,19,131,200,136,102,48
19,14,-4,-17,12,4,14,136,209,146,112,48
24,19,-4,-21,14,7,14,136,219,161,122,63
24,19,-4,-21,14,7,14,136,224,161,126,63
19,29,9,-24,4,19,14,141,234,170,136,63
24,29,4,-26,9,17,14,151,244,180,141,68
24,34,9,-29,7,21,9,156,253,190,151,78
24,34,9,-29,7,21,9,161,258,195,156,82
29,39,9,-34,9,24,9,156,268,200,165,92
29,43,14,-36,7,29,9,161,283,209,165,92
34,48,14,-41,9,31,9,161,287,219,175,102
39,48,9,-43,14,29,4,161,292,229,185,102
39,48,9,-43,14,29,4,165,297,234,190,102
43,48,4,-46,19,26,4,165,307,239,200,112
43,58,14,-51,14,36,4,170,317,248,200,117
43,68,24,-56,9,46,0,175,326,253,209,131
43,73,29,-58,7,51,0,170,331,263,219,136
43,82,39,-63,2,61,0,170,336,268,224,141
39,87,48,-63,-4,68,0,165,336,273,224,141
39,97,58,-68,-9,78,0,161,336,278,229,146
34,112,78,-73,-21,95,0,161,336,278,234,146
34,126,92,-80,-29,109,0,156,336,278,234,146
24,136,112,-80,-43,124,0,146,331,278,239,151
19,146,126,-82,-53,136,0,136,326,273,229,156
9,156,146,-82,-68,151,0,126,322,268,219,151
0,165,165,-82,-82,165,0,112,317,263,214,141
-9,175,185,-82,-97,180,0,97,297,248,209,131
-19,180,200,-80,-109,190,0,78,283,239,200,126
-34,190,224,-78,-129,207,0,58,258,219,180,117
-53,204,258,-75,-156,231,0,39,234,200,161,102
-63,219,283,-78,-173,251,0,14,209,185,146,92
-78,234,312,-78,-195,273,0,-4,180,165,131,82
-92,239,331,-73,-212,285,0,-34,156,136,107,68
-112,244,356,-65,-234,300,0,-48,131,112,78,53
-122,248,370,-63,-246,309,0,-73,107,82,48,34
-131,248,380,-58,-256,314,0,-92,78,53,24,19
-146,248,395,-51,-270,322,0,-112,43,29,0,4
-156,244,400,-43,-278,322,-4,-122,14,0,-19,-14
-161,239,400,-39,-280,319,0,-131,-9,-24,-39,-24
-170,239,409,-34,-290,324,0,-141,-29,-39,-53,-34
-170,229,400,-29,-285,314,-9,-146,-53,-58,-68,-48
-165,224,390,-29,-278,307,-14,-146,-73,-78,-92,-58
-161,209,370,-24,-265,290,-24,-151,-87,-87,-102,-63
-151,204,356,-26,-253,280,-29,-156,-102,-97,-107,-73
-141,185,326,-21,-234,256,-34,-156,-107,-97,-107,-73
-131,180,312,-24,-222,246,-39,-156,-107,-102,-107,-73
-122,161,283,-19,-202,222,-39,-151,-107,-107,-107,-73
-112,151,263,-19,-187,207,-43,-146,-112,-112,-102,-73
-97,136,234,-19,-165,185,-43,-136,-112,-112,-102,-68
-87,122,209,-17,-148,165,-43,-136,-112,-107,-97,-68
-78,107,185,-14,-131,146,-48,-136,-112,-107,-97,-68
-68,102,170,-17,-119,136,-48,-136,-112,-102,-92,-68
-58,92,151,-17,-104,122,-48,-131,-107,-97,-87,-63
-58,78,136,-9,-97,107,-48,-126,-107,-97,-87,-58
-48,63,112,-7,-80,87,-48,-122,-112,-92,-78,-58
-43,53,97,-4,-70,75,-48,-122,-112,-87,-73,-53
-39,43,82,-2,-61,63,-48,-112,-107,-82,-68,-53
-34,43,78,-4,-56,61,-43,-107,-102,-78,-63,-48
-29,39,68,-4,-48,53,-43,-102,-102,-73,-63,-48
-29,39,68,-4,-48,53,-43,-102,-97,-73,-58,-43
-24,34,58,-4,-41,46,-43,-97,-87,-68,-58,-43
-24,29,53,-2,-39,41,-43,-92,-82,-63,-58,-39
-19,29,48,-4,-34,39,-43,-92,-78,-58,-53,-39
-19,24,43,-2,-31,34,-39,-82,-68,-58,-53,-39
-19,24,43,-2,-31,34,-39,-82,-68,-53,-53,-39
-19,19,39,0,-29,29,-39,-78,-63,-53,-48,-39
-19,19,39,0,-29,29,-39,-73,-58,-48,-48,-34
-14,19,34,-2,-24,26,-39,-73,-53,-43,-43,-34
-14,19,34,-2,-24,26,-39,-73,-53,-43,-43,-34
-14,19,34,-2,-24,26,-39,-68,-48,-43,-43,-34
-14,19,34,-2,-24,26,-34,-68,-48,-43,-43,-34
-9,14,24,-2,-17,19,-34,-63,-43,-43,-43,-34
-9,14,24,-2,-17,19,-34,-58,-39,-39,-43,-34
-14,9,24,2,-19,17,-34,-58,-39,-34,-39,-29
-14,9,24,2,-19,17,-34,-53,-43,-34,-34,-29
-14,9,24,2,-19,17,-34,-53,-43,-34,-34,-29
-14,4,19,4,-17,12,-34,-53,-39,-34,-34,-29
-9,0,9,4,-9,4,-34,-43,-39,-34,-34,-29
-14,0,14,7,-14,7,-34,-43,-34,-29,-34,-34
-19,-4,14,12,-17,4,-34,-43,-29,-24,-34,-34
-19,-4,14,12,-17,4,-34,-43,-29,-24,-34,-34
-19,-4,14,12,-17,4,-29,-43,-29,-24,-34,-34
-14,-4,9,9,-12,2,-29,-43,-29,-24,-34,-34
-9,-4,4,7,-7,0,-29,-43,-24,-29,-34,-34
-9,-4,4,7,-7,0,-29,-39,-24,-29,-34,-34
-9,-4,4,7,-7,0,-29,-39,-24,-29,-34,-34
-9,-4,4,7,-7,0,-34,-39,-24,-29,-34,-29
-9,-4,4,7,-7,0,-34,-34,-24,-29,-34,-29
-9,-4,4,7,-7,0,-34,-34,-24,-29,-34,-29
-9,-4,4,7,-7,0,-34,-34,-24,-29,-34,-29
-9,-4,4,7,-7,0,-34,-39,-29,-29,-34,-34
-9,-4,4,7,-7,0,-34,-39,-39,-34,-34,-34
-9,-4,4,7,-7,0,-34,-39,-39,-34,-34,-34
-9,-4,4,7,-7,0,-34,-43,-39,-34,-34,-34
-14,0,14,7,-14,7,-34,-43,-39,-34,-39,-34
-14,4,19,4,-17,12,-39,-43,-43,-39,-43,-39
-19,-4,14,12,-17,4,-39,-53,-39,-34,-43,-39
-19,-4,14,12,-17,4,-39,-58,-39,-34,-43,-34
-19,-4,14,12,-17,4,-39,-58,-39,-34,-43,-39
-14,-4,9,9,-12,2,-39,-58,-39,-34,-43,-39
-14,-4,9,9,-12,2,-39,-53,-43,-43,-43,-34
-14,0,14,7,-14,7,-39,-53,-43,-43,-43,-34
-14,9,24,2,-19,17,-39,-53,-39,-39,-34,-34
-14,19,34,-2,-24,26,-39,-58,-34,-34,-34,-29
-9,29,39,-9,-24,34,-34,-53,-24,-24,-24,-29
-4,43,48,-19,-26,46,-39,-48,-19,-14,-19,-29
0,53,53,-26,-26,53,-29,-34,-19,-14,-19,-24
9,73,63,-41,-26,68,-39,-43,-9,-9,-14,-14
4,73,68,-39,-31,70,-29,-43,-9,-4,-4,-4
0,78,78,-39,-39,78,-19,-48,-9,0,0,0
9,97,87,-53,-39,92,-19,-39,4,9,0,0
19,117,97,-68,-39,107,-19,-29,19,19,0,0
29,126,97,-78,-34,112,-34,-29,24,24,14,9
34,136,102,-85,-34,119,-63,-48,19,29,19,14
43,146,102,-95,-29,124,-97,-73,14,39,29,19
48,156,107,-102,-29,131,-141,-117,-9,34,19,19
53,165,112,-109,-29,139,-161,-131,-24,19,14,24
63,170,107,-117,-21,139,-170,-131,-34,19,14,29
78,185,107,-131,-14,146,-180,-136,-34,19,14,34
102,209,107,-156,-2,158,-195,-136,-29,34,29,48
112,219,107,-165,2,163,-195,-136,-19,43,48,58
112,219,107,-165,2,163,-190,-131,-19,43,39,58
97,190,92,-143,2,141,-170,-122,-24,29,29,58
78,156,78,-117,0,117,-151,-117,-34,14,24,43
43,126,82,-85,-19,104,-131,-117,-58,-4,0,19
4,92,87,-48,-41,90,-107,-112,-58,-19,-24,-4
-4,73,78,-34,-41,75,-92,-107,-58,-29,-29,-14
-9,43,53,-17,-31,48,-87,-107,-68,-39,-39,-29
-14,29,43,-7,-29,36,-78,-107,-73,-43,-43,-29
-14,29,43,-7,-29,36,-78,-107,-73,-48,-43,-29
-14,34,48,-9,-31,41,-78,-107,-73,-48,-43,-34
-19,29,48,-4,-34,39,-73,-107,-78,-48,-48,-34
-24,24,48,0,-36,36,-63,-102,-78,-58,-48,-34
-29,19,48,4,-39,34,-58,-102,-78,-63,-48,-39
-34,14,48,9,-41,31,-58,-107,-78,-63,-48,-39
-34,9,43,12,-39,26,-53,-107,-78,-63,-53,-43
-39,0,39,19,-39,19,-48,-107,-78,-68,-53,-43
-39,-4,34,21,-36,14,-48,-102,-78,-68,-53,-43
-43,-9,34,26,-39,12,-43,-102,-78,-68,-58,-53
-43,-9,34,26,-39,12,-43,-102,-78,-68,-58,-58
-43,-4,39,24,-41,17,-39,-102,-78,-68,-63,-58
-43,-4,39,24,-41,17,-39,-102,-78,-68,-68,-58
-48,-4,43,26,-46,19,-34,-102,-78,-68,-68,-53
-48,-4,43,26,-46,19,-34,-102,-78,-68,-68,-48
-48,-4,43,26,-46,19,-34,-102,-78,-68,-63,-48
-48,-4,43,26,-46,19,-34,-102,-78,-68,-58,-48
-53,9,63,21,-58,36,-34,-102,-63,-43,-43,-43
-73,58,131,7,-102,95,-24,-97,0,24,9,-9
-122,131,253,-4,-187,192,19,-82,87,122,68,19
-204,209,414,-2,-309,312,92,-48,190,204,112,29
-253,283,536,-14,-395,409,146,-9,263,273,161,48
-253,370,624,-58,-439,497,156,-4,302,351,229,107
-195,444,639,-124,-417,541,126,-14,326,400,322,209
-73,556,629,-241,-351,592,19,-82,331,492,483,419
92,492,400,-292,-153,446,4,-14,409,600,600,527
341,112,-229,-226,285,-58,112,375,712,741,717,575
639,-239,-878,-200,758,-558,126,649,819,795,780,624
927,-536,-1464,-195,1195,-1000,107,771,805,844,868,712
1122,-717,-1839,-202,1481,-1278,4,673,600,785,868,746
1249,-785,-2034,-231,1642,-1410,-234,283,63,512,722,722
1171,-1039,-2210,-65,1690,-1625,-263,-24,-575,-78,234,414
810,-1288,-2098,239,1454,-1693,-24,-165,-1137,-775,-444,-107
268,-1351,-1620,541,944,-1485,356,-63,-1434,-1263,-917,-517
-195,-1342,-1146,768,475,-1244,619,102,-1385,-1381,-1117,-785
-458,-1283,-824,871,183,-1054,712,248,-1156,-1273,-1127,-922
-507,-1200,-692,854,92,-946,688,297,-995,-1171,-1093,-956
-453,-1024,-570,739,58,-797,527,180,-873,-1010,-956,-839
-361,-873,-512,617,75,-692,366,161,-727,-834,-785,-707
-248,-678,-429,463,90,-553,229,161,-546,-629,-570,-527
-161,-502,-341,331,90,-422,200,180,-361,-453,-409,-375
-117,-370,-253,244,68,-312,180,204,-209,-326,-312,-287
-87,-258,-170,173,41,-214,146,239,-73,-180,-185,-204
-48,-175,-126,112,39,-151,112,200,-4,-82,-82,-122
-24,-102,-78,63,26,-90,78,141,29,-24,-29,-58
-19,-48,-29,34,4,-39,68,131,87,14,-4,-34
-19,-34,-14,26,-2,-24,58,146,126,48,14,-24
-19,-24,-4,21,-7,-14,48,136,131,63,43,-4
-9,-14,-4,12,-2,-9,43,122,131,63,53,9
-4,0,4,2,-4,2,39,122,141,73,53,14
-4,9,14,-2,-9,12,29,122,165,87,58,19
0,14,14,-7,-7,14,24,122,175,107,68,24
4,24,19,-14,-7,21,24,117,175,112,87,34
9,19,9,-14,0,14,19,117,185,117,92,43
9,24,14,-17,-2,19,19,122,200,126,102,43
9,24,14,-17,-2,19,9,126,209,136,112,48
14,29,14,-21,0,21,4,126,219,151,122,63
14,29,14,-21,0,21,4,131,224,151,122,63
14,39,24,-26,-4,31,4,136,234,161,126,63
24,39,14,-31,4,26,4,141,244,170,131,63
24,43,19,-34,2,31,0,146,253,180,141,68
24,43,19,-34,2,31,0,151,258,185,146,73
29,48,19,-39,4,34,0,151,268,190,156,82
29,53,24,-41,2,39,4,161,283,200,156,82
29,58,29,-43,0,43,9,161,287,209,165,92
29,58,29,-43,0,43,4,161,292,219,175,97
29,63,34,-46,-2,48,4,165,297,224,180,102
34,68,34,-51,0,51,4,161,307,229,190,112
34,78,43,-56,-4,61,4,156,312,239,190,112
34,87,53,-61,-9,70,0,156,317,244,200,122
34,92,58,-63,-12,75,0,151,322,248,204,126
39,102,63,-70,-12,82,0,156,326,248,204,131
39,107,68,-73,-14,87,0,156,326,253,204,131
39,117,78,-78,-19,97,-4,151,326,258,209,136
29,126,97,-78,-34,112,-9,146,326,258,214,136
29,136,107,-82,-39,122,-9,136,326,258,214,136
24,146,122,-85,-48,134,-9,126,317,258,214,136
19,156,136,-87,-58,146,-9,117,307,253,204,136
9,165,156,-87,-73,161,-9,107,297,244,200,131
-4,175,180,-85,-92,178,-9,92,292,239,195,126
-19,190,209,-85,-114,200,-9,78,278,229,185,122
-29,200,229,-85,-129,214,-9,58,263,219,175,117
-39,209,248,-85,-143,229,-9,39,239,200,161,107
-53,224,278,-85,-165,251,-9,19,214,185,141,92
-63,234,297,-85,-180,265,-9,-4,190,170,122,82
-78,248,326,-85,-202,287,-9,-24,161,151,107,73
-92,258,351,-82,-222,305,-9,-53,131,126,87,53
-112,263,375,-75,-244,319,-9,-68,102,102,58,39
-122,268,390,-73,-256,329,-9,-92,78,73,29,24
-131,268,400,-68,-265,334,-9,-112,53,43,4,9
-146,268,414,-61,-280,341,-9,-131,24,19,-19,-4
-156,263,419,-53,-287,341,-14,-141,-4,-9,-39,-24
-156,253,409,-48,-283,331,-14,-151,-24,-34,-58,-34
-161,248,409,-43,-285,329,-19,-161,-39,-48,-73,-43
-161,239,400,-39,-280,319,-29,-165,-63,-63,-78,-53
-156,234,390,-39,-273,312,-34,-165,-82,-78,-92,-63
-151,219,370,-34,-261,295,-39,-165,-92,-87,-102,-68
-141,214,356,-36,-248,285,-34,-165,-102,-97,-112,-73
-131,190,322,-29,-226,256,-34,-165,-107,-97,-117,-73
-122,180,302,-29,-212,241,-39,-165,-107,-102,-117,-73
-112,161,273,-24,-192,217,-39,-161,-107,-102,-117,-73
-102,151,253,-24,-178,202,-43,-156,-112,-102,-112,-73
-87,136,224,-24,-156,180,-43,-146,-112,-102,-112,-68
-78,122,200,-21,-139,161,-43,-146,-112,-102,-107,-68
-68,107,175,-19,-122,141,-48,-141,-112,-107,-107,-68
-58,102,161,-21,-109,131,-48,-136,-112,-102,-102,-68
-48,92,141,-21,-95,117,-48,-131,-107,-97,-97,-63
-48,73,122,-12,-85,97,-48,-126,-107,-97,-102,-58
-43,58,102,-7,-73,80,-48,-122,-107,-92,-97,-58
-43,53,97,-4,-70,75,-48,-122,-102,-87,-92,-53
-39,43,82,-2,-61,63,-48,-112,-97,-82,-87,-53
-34,43,78,-4,-56,61,-43,-112,-92,-78,-82,-53
-29,39,68,-4,-48,53,-43,-112,-92,-73,-82,-58
-34,39,73,-2,-53,56,-43,-112,-87,-73,-78,-53
-34,34,68,0,-51,51,-43,-107,-78,-68,-73,-53
-34,34,68,0,-51,51,-43,-102,-78,-63,-68,-48
-29,39,68,-4,-48,53,-43,-102,-82,-58,-63,-48
-29,34,63,-2,-46,48,-39,-92,-78,-63,-63,-48
-29,34,63,-2,-46,48,-39,-92,-78,-63,-63,-48
-29,29,58,0,-43,43,-39,-87,-73,-63,-58,-48
-29,29,58,0,-43,43,-39,-82,-68,-58,-58,-43
-24,24,48,0,-36,36,-39,-78,-63,-53,-53,-43
-24,19,43,2,-34,31,-39,-73,-63,-53,-53,-43
-19,19,39,0,-29,29,-39,-68,-58,-53,-53,-43
-14,19,34,-2,-24,26,-34,-68,-58,-53,-53,-43
-9,19,29,-4,-19,24,-34,-63,-53,-53,-53,-43
-9,24,34,-7,-21,29,-34,-58,-48,-48,-53,-43
-14,19,34,-2,-24,26,-34,-58,-48,-43,-48,-43
-14,19,34,-2,-24,26,-34,-53,-48,-43,-43,-48
-14,14,29,0,-21,21,-34,-53,-43,-43,-43,-48
-14,9,24,2,-19,17,-34,-53,-39,-43,-43,-48
-14,9,24,2,-19,17,-34,-43,-39,-43,-43,-43
-19,9,29,4,-24,19,-34,-43,-39,-43,-43,-43
-19,4,24,7,-21,14,-34,-43,-39,-43,-43,-43
-19,4,24,7,-21,14,-34,-43,-39,-43,-43,-43
-14,4,19,4,-17,12,-29,-43,-39,-43,-43,-43
-9,4,14,2,-12,9,-29,-43,-39,-39,-43,-43
-9,4,14,2,-12,9,-29,-43,-34,-39,-43,-43
-9,4,14,2,-12,9,-29,-39,-34,-39,-43,-43
-9,4,14,2,-12,9,-29,-39,-34,-43,-43,-48
-9,4,14,2,-12,9,-34,-43,-34,-48,-43,-48
-9,4,14,2,-12,9,-34,-43,-39,-48,-43,-48
-9,4,14,2,-12,9,-34,-43,-43,-48,-43,-48
-4,4,9,0,-7,7,-34,-43,-43,-43,-43,-48
0,4,4,-2,-2,4,-34,-48,-43,-39,-43,-53
0,0,0,0,0,0,-34,-48,-48,-43,-43,-53
0,-4,-4,2,2,-4,-34,-43,-48,-43,-43,-53
-4,-9,-4,7,0,-7,-34,-48,-48,-48,-43,-53
-9,-9,0,9,-4,-4,-34,-53,-43,-48,-43,-48
-9,-4,4,7,-7,0,-39,-53,-43,-48,-48,-48
-14,-4,9,9,-12,2,-39,-58,-39,-43,-48,-48
-9,-4,4,7,-7,0,-39,-58,-43,-43,-43,-43
-9,-4,4,7,-7,0,-39,-58,-43,-39,-43,-43
-4,14,19,-4,-12,17,-39,-58,-39,-34,-43,-39
-4,29,34,-12,-19,31,-39,-53,-39,-34,-39,-34
-4,39,43,-17,-24,41,-39,-53,-34,-29,-34,-34
4,53,48,-29,-21,51,-39,-53,-24,-24,-24,-24
9,68,58,-39,-24,63,-39,-48,-24,-19,-24,-19
14,82,68,-48,-26,75,-39,-48,-24,-14,-24,-14
19,92,73,-56,-26,82,-29,-43,-14,-4,-14,-4
29,107,78,-68,-24,92,-19,-39,-9,0,-9,0
29,117,87,-73,-29,102,-29,-39,0,9,0,9
29,126,97,-78,-34,112,-39,-39,9,19,9,19
39,136,97,-87,-29,117,-73,-58,4,19,9,19
43,146,102,-95,-29,124,-112,-87,-9,14,4,19
48,161,112,-104,-31,136,-151,-122,-29,9,0,19
53,175,122,-114,-34,148,-165,-131,-43,0,-4,19
63,180,117,-122,-26,148,-170,-131,-53,0,-4,19
78,195,117,-136,-19,156,-180,-136,-53,0,-4,24
102,214,112,-158,-4,163,-195,-136,-48,14,9,39
112,219,107,-165,2,163,-195,-136,-39,24,29,48
112,219,107,-165,2,163,-190,-131,-39,24,24,48
102,190,87,-146,7,139,-170,-122,-39,14,19,48
87,156,68,-122,9,112,-151,-117,-43,4,14,34
53,126,73,-90,-9,100,-131,-117,-68,-14,-9,9
9,92,82,-51,-36,87,-107,-112,-68,-29,-34,-14
-4,73,78,-34,-41,75,-92,-107,-68,-39,-39,-24
-9,43,53,-17,-31,48,-87,-107,-78,-48,-48,-43
-14,29,43,-7,-29,36,-78,-107,-82,-53,-53,-48
-14,29,43,-7,-29,36,-78,-107,-82,-58,-53,-48
-14,29,43,-7,-29,36,-78,-107,-82,-58,-53,-53
-14,19,34,-2,-24,26,-73,-107,-87,-58,-58,-53
-14,14,29,0,-21,21,-63,-102,-87,-63,-58,-53
-19,9,29,4,-24,19,-58,-102,-87,-63,-58,-58
-24,4,29,9,-26,17,-58,-102,-87,-63,-58,-58
-24,0,24,12,-24,12,-53,-97,-82,-63,-68,-63
-29,-4,24,17,-26,9,-48,-97,-78,-68,-73,-63
-29,-4,24,17,-26,9,-48,-92,-78,-68,-73,-63
-34,-9,24,21,-29,7,-43,-92,-78,-68,-78,-68
-34,-9,24,21,-29,7,-43,-92,-78,-68,-73,-63
-34,-9,24,21,-29,7,-39,-92,-78,-68,-68,-58
-34,-9,24,21,-29,7,-39,-92,-78,-68,-68,-58
-39,-4,34,21,-36,14,-34,-92,-78,-68,-68,-58
-39,-4,34,21,-36,14,-34,-92,-78,-68,-68,-58
-39,-4,34,21,-36,14,-34,-92,-78,-68,-68,-58
-39,-9,29,24,-34,9,-34,-92,-78,-68,-68,-58
-43,4,48,19,-46,26,-34,-97,-73,-53,-58,-53
-63,58,122,2,-92,90,-24,-92,-19,9,-4,-19
-112,131,244,-9,-178,187,9,-82,58,102,53,4
-190,209,400,-9,-295,305,73,-58,151,175,92,14
-234,287,522,-26,-378,405,126,-24,224,244,141,39
-229,375,605,-73,-417,490,131,-19,268,331,214,102
-165,448,614,-141,-390,531,97,-24,297,405,322,219
-29,556,585,-263,-307,570,-9,-78,312,512,492,439
141,483,341,-312,-100,412,-19,14,439,658,653,575
380,97,-283,-239,331,-92,97,414,780,829,810,649
678,-268,-946,-204,812,-607,122,727,936,907,893,707
956,-575,-1532,-190,1244,-1054,112,868,946,985,1000,805
1151,-756,-1908,-197,1529,-1332,14,785,727,922,995,834
1273,-819,-2093,-226,1683,-1456,-219,424,209,644,839,800
1185,-1073,-2259,-56,1722,-1666,-253,82,-458,14,317,478
810,-1322,-2132,256,1471,-1727,-9,-87,-1058,-717,-385,-53
253,-1381,-1634,563,944,-1507,375,-14,-1385,-1244,-893,-492
-204,-1366,-1161,785,478,-1263,629,122,-1366,-1395,-1122,-785
-468,-1307,-839,888,185,-1073,736,268,-1146,-1288,-1137,-941
-507,-1229,-722,868,107,-976,712,317,-995,-1190,-1112,-985
-453,-1054,-600,753,73,-827,546,204,-873,-1029,-976,-858
-370,-902,-531,636,80,-717,390,180,-732,-854,-805,-727
-258,-707,-448,483,95,-578,248,170,-551,-639,-590,-546
-165,-541,-375,353,104,-458,219,190,-361,-453,-429,-395
-117,-414,-297,265,90,-356,200,209,-209,-326,-331,-307
-87,-287,-200,187,56,-244,161,248,-73,-180,-204,-224
-48,-195,-146,122,48,-170,117,214,-4,-82,-97,-136
-19,-117,-97,68,39,-107,78,151,29,-24,-39,-68
-9,-58,-48,34,19,-53,68,141,87,14,-9,-43
-9,-43,-34,26,12,-39,58,156,126,48,14,-34
-9,-34,-24,21,7,-29,48,146,131,68,43,-14
0,-24,-24,12,12,-24,43,131,131,73,58,4
4,-9,-14,2,9,-12,39,131,141,82,63,14
4,0,-4,-2,4,-2,24,131,165,97,68,19
9,4,-4,-7,7,0,14,131,175,117,78,24
14,14,0,-14,7,7,14,126,175,122,97,34
19,14,-4,-17,12,4,9,126,185,126,97,43
19,19,0,-19,9,9,9,131,200,136,102,43
19,14,-4,-17,12,4,4,136,209,146,112,48
24,19,-4,-21,14,7,4,136,219,161,122,63
24,19,-4,-21,14,7,4,136,224,161,126,63
19,34,14,-26,2,24,4,136,234,170,136,63
24,39,14,-31,4,26,4,141,244,180,141,68
24,43,19,-34,2,31,0,146,253,190,151,78
24,43,19,-34,2,31,0,151,258,195,156,82
29,48,19,-39,4,34,0,151,268,200,165,92
29,53,24,-41,2,39,0,161,283,209,165,92
29,58,29,-43,0,43,0,161,292,219,175,102
29,58,29,-43,0,43,-4,161,302,229,185,102
29,63,34,-46,-2,48,-4,165,307,234,190,102
34,68,34,-51,0,51,-4,165,317,239,200,112
34,78,43,-56,-4,61,-4,165,317,248,200,112
34,87,53,-61,-9,70,-9,165,317,253,209,122
34,92,58,-63,-12,75,-9,161,322,258,214,126
34,102,68,-68,-17,85,-9,161,326,258,214,131
29,107,78,-68,-24,92,-9,156,326,263,214,131
29,117,87,-73,-29,102,-9,151,326,268,219,136
19,126,107,-73,-43,117,-9,141,326,268,224,136
14,136,122,-75,-53,129,-9,126,326,268,224,136
4,146,141,-75,-68,143,-9,117,317,268,224,136
0,156,156,-78,-78,156,-9,107,307,263,209,136
-9,170,180,-80,-95,175,-9,97,297,253,200,131
-19,185,204,-82,-112,195,-9,82,287,244,195,122
-29,200,229,-85,-129,214,-9,68,263,224,185,112
-39,209,248,-85,-143,229,-9,48,244,209,170,107
-48,219,268,-85,-158,244,-9,24,219,190,151,97
-63,234,297,-85,-180,265,-9,0,195,170,131,82
-73,244,317,-85,-195,280,-9,-24,170,151,112,73
-87,253,341,-82,-214,297,-9,-43,141,126,92,63
-102,258,361,-78,-231,309,-9,-73,112,97,68,43
-122,263,385,-70,-253,324,-9,-87,82,73,39,24
-131,268,400,-68,-265,334,-9,-107,58,43,9,4
-141,268,409,-63,-275,339,-9,-122,29,14,-14,-9
-156,273,429,-58,-292,351,-9,-141,-4,-4,-39,-24
-165,273,439,-53,-302,356,-14,-151,-34,-29,-58,-43
-161,263,424,-51,-292,344,-14,-161,-53,-53,-78,-53
-161,258,419,-48,-290,339,-19,-170,-68,-68,-92,-63
-161,244,405,-41,-283,324,-29,-170,-87,-82,-97,-73
-156,234,390,-39,-273,312,-34,-165,-102,-97,-112,-78
-151,219,370,-34,-261,295,-39,-165,-112,-107,-122,-78
-141,214,356,-36,-248,285,-39,-165,-122,-117,-126,-82
-131,190,322,-29,-226,256,-43,-165,-126,-117,-126,-82
-122,180,302,-29,-212,241,-48,-165,-126,-122,-126,-82
-112,156,268,-21,-190,212,-43,-161,-126,-122,-126,-82
-102,141,244,-19,-173,192,-43,-156,-131,-122,-122,-82
-87,126,214,-19,-151,170,-43,-146,-131,-122,-122,-78
-78,112,190,-17,-134,151,-43,-146,-131,-117,-117,-78
-73,97,170,-12,-122,134,-48,-141,-131,-117,-117,-78
-68,92,161,-12,-114,126,-48,-136,-131,-112,-112,-78
-58,82,141,-12,-100,112,-48,-131,-126,-112,-107,-73
-58,68,126,-4,-92,97,-48,-126,-126,-117,-107,-68
-53,58,112,-2,-82,85,-48,-122,-126,-112,-97,-68
-53,53,107,0,-80,80,-48,-122,-122,-107,-92,-63
-48,43,92,2,-70,68,-48,-112,-117,-97,-87,-63
-43,43,87,0,-65,65,-43,-107,-112,-87,-82,-58
-39,34,73,2,-56,53,-43,-102,-107,-82,-82,-58
-39,29,68,4,-53,48,-43,-102,-97,-82,-78,-53
-34,24,58,4,-46,41,-43,-97,-87,-78,-73,-53
-34,19,53,7,-43,36,-43,-92,-82,-73,-68,-48
-29,24,53,2,-41,39,-43,-92,-82,-68,-63,-48
-29,24,53,2,-41,39,-39,-82,-78,-68,-63,-48
-29,24,53,2,-41,39,-39,-82,-78,-63,-63,-48
-29,19,48,4,-39,34,-39,-78,-73,-63,-58,-48
-29,19,48,4,-39,34,-39,-73,-73,-58,-63,-43
-24,19,43,2,-34,31,-39,-73,-73,-53,-63,-43
-24,19,43,2,-34,31,-39,-73,-73,-53,-63,-48
-24,19,43,2,-34,31,-39,-68,-68,-53,-63,-53
-24,19,43,2,-34,31,-34,-68,-68,-53,-58,-53
-19,14,34,2,-26,24,-34,-63,-63,-53,-53,-53
-19,9,29,4,-24,19,-34,-58,-58,-48,-53,-53
-24,0,24,12,-24,12,-34,-58,-58,-43,-48,-48
-24,0,24,12,-24,12,-34,-58,-58,-43,-48,-48
-24,0,24,12,-24,12,-34,-63,-53,-43,-53,-48
-24,4,29,9,-26,17,-34,-63,-48,-43,-53,-48
-19,9,29,4,-24,19,-34,-53,-48,-43,-53,-48
-19,9,29,4,-24,19,-34,-53,-43,-43,-48,-48
-19,4,24,7,-21,14,-34,-53,-39,-43,-43,-43
-19,4,24,7,-21,14,-34,-53,-39,-43,-43,-43
-19,4,24,7,-21,14,-29,-53,-39,-43,-43,-43
-19,4,24,7,-21,14,-29,-53,-43,-43,-43,-43
-19,4,24,7,-21,14,-29,-53,-43,-48,-43,-43
-19,0,19,9,-19,9,-29,-48,-43,-48,-43,-48
-19,-4,14,12,-17,4,-29,-48,-43,-48,-43,-53
-19,-4,14,12,-17,4,-34,-53,-43,-48,-43,-48
-19,-4,14,12,-17,4,-34,-53,-43,-48,-43,-48
-19,0,19,9,-19,9,-34,-53,-43,-48,-43,-48
-19,4,24,7,-21,14,-34,-53,-43,-48,-43,-48
-19,4,24,7,-21,14,-39,-58,-43,-48,-48,-53
-19,4,24,7,-21,14,-43,-58,-48,-53,-53,-53
-19,9,29,4,-24,19,-43,-53,-48,-53,-53,-53
-19,14,34,2,-26,24,-43,-53,-48,-53,-53,-53
-19,34,53,-7,-36,43,-43,-48,-39,-39,-43,-43
-14,53,68,-19,-41,61,-48,-43,-34,-29,-34,-39
-14,53,68,-19,-41,61,-48,-48,-29,-24,-29,-39
-9,68,78,-29,-43,73,-48,-48,-24,-19,-24,-34
0,78,78,-39,-39,78,-43,-43,-14,-14,-19,-19
9,87,78,-48,-34,82,-39,-39,-9,-9,-19,-9
9,102,92,-56,-41,97,-39,-39,4,0,-9,-9
9,117,107,-63,-48,112,-39,-39,19,9,0,-9
24,126,102,-75,-39,114,-48,-39,19,14,4,4
29,136,107,-82,-39,122,-78,-58,9,14,4,4
39,146,107,-92,-34,126,-107,-82,0,19,9,9
39,156,117,-97,-39,136,-151,-126,-29,4,0,0
39,165,126,-102,-43,146,-165,-141,-43,-9,-4,0
43,170,126,-107,-41,148,-170,-141,-53,-9,-4,0
53,185,131,-119,-39,158,-180,-146,-53,-9,-4,9
73,209,136,-141,-31,173,-195,-146,-48,4,9,29
82,219,136,-151,-26,178,-195,-146,-39,14,29,39
82,219,136,-151,-26,178,-190,-141,-39,14,19,39
78,190,112,-134,-17,151,-170,-131,-39,4,9,39
68,156,87,-112,-9,122,-151,-126,-43,-4,4,24
34,126,92,-80,-29,109,-131,-126,-68,-24,-19,0
-4,92,97,-43,-51,95,-107,-122,-68,-39,-43,-24
-14,73,87,-29,-51,80,-92,-117,-68,-48,-48,-34
-19,43,63,-12,-41,53,-87,-117,-78,-58,-58,-48
-24,29,53,-2,-39,41,-78,-117,-82,-63,-63,-48
-24,29,53,-2,-39,41,-78,-117,-82,-68,-63,-48
-24,29,53,-2,-39,41,-78,-117,-82,-68,-63,-53
-29,19,48,4,-39,34,-73,-117,-87,-68,-68,-53
-34,14,48,9,-41,31,-63,-107,-87,-73,-68,-53
-39,9,48,14,-43,29,-58,-102,-87,-73,-68,-58
-43,4,48,19,-46,26,-58,-102,-87,-73,-68,-58
-43,0,43,21,-43,21,-53,-97,-87,-73,-73,-63
-48,-4,43,26,-46,19,-48,-102,-87,-78,-73,-63
-48,-4,43,26,-46,19,-48,-102,-87,-78,-73,-63
-53,-9,43,31,-48,17,-43,-102,-87,-78,-78,-68
-53,-9,43,31,-48,17,-43,-102,-87,-78,-78,-68
-48,-9,39,29,-43,14,-39,-102,-87,-78,-78,-68
-43,-14,29,29,-36,7,-39,-102,-87,-78,-78,-68
-48,-14,34,31,-41,9,-34,-97,-87,-78,-78,-68
-48,-14,34,31,-41,9,-34,-92,-87,-78,-78,-68
-48,-19,29,34,-39,4,-34,-92,-87,-82,-82,-68
-48,-24,24,36,-36,0,-34,-92,-87,-87,-87,-68
-48,-4,43,26,-46,19,-43,-107,-102,-82,-87,-73
-63,48,112,7,-87,80,-43,-117,-68,-34,-48,-48
-112,122,234,-4,-173,178,-14,-122,-9,43,-4,-29
-195,200,395,-2,-295,297,43,-107,63,107,24,-29
-253,283,536,-14,-395,409,97,-82,131,165,63,-24
-263,380,644,-58,-453,512,107,-92,165,234,122,19
-214,473,688,-129,-451,580,73,-107,190,317,244,151
-102,605,707,-251,-405,656,-39,-180,195,444,434,390
53,566,512,-309,-229,539,-48,-102,356,653,658,580
292,209,-82,-251,187,63,63,297,741,897,883,712
590,-180,-771,-204,680,-475,117,692,1019,1058,1029,810
878,-517,-1395,-180,1137,-956,136,936,1176,1215,1200,946
1112,-697,-1810,-207,1461,-1254,34,936,1068,1259,1288,1039
1278,-766,-2044,-256,1661,-1405,-204,644,629,1088,1229,1073
1254,-1039,-2293,-107,1773,-1666,-287,278,-126,380,673,761
946,-1307,-2254,180,1600,-1781,-102,78,-805,-434,-73,234
380,-1390,-1771,505,1076,-1581,287,87,-1229,-1088,-692,-292
-107,-1400,-1293,753,592,-1346,561,161,-1307,-1371,-1039,-678
-409,-1351,-941,880,265,-1146,697,307,-1117,-1302,-1112,-893
-497,-1278,-780,888,141,-1029,717,356,-995,-1239,-1141,-1005
-458,-1102,-644,780,92,-873,566,229,-893,-1088,-1019,-897
-380,-951,-570,666,95,-761,414,200,-766,-922,-863,-775
-268,-756,-488,512,109,-622,263,185,-580,-697,-629,-585
-180,-580,-400,380,109,-490,219,190,-390,-502,-448,-424
-136,-434,-297,285,80,-366,200,219,-234,-370,-351,-331
-107,-307,-200,207,46,-253,165,258,-92,-219,-224,-244
-63,-214,-151,139,43,-183,122,214,-19,-107,-107,-151
-34,-131,-97,82,31,-114,78,151,19,-34,-39,-78
-29,-68,-39,48,4,-53,68,131,78,4,-9,-48
-29,-43,-14,36,-7,-29,58,136,117,39,14,-34
-24,-34,-9,29,-7,-21,43,122,122,58,43,-14
-9,-24,-14,17,2,-19,34,102,122,63,53,0
-4,-9,-4,7,0,-7,29,102,131,73,58,4
-4,0,4,2,-4,2,19,102,156,87,68,9
-4,9,14,-2,-9,12,9,102,165,107,78,14
-4,24,29,-9,-17,26,4,97,165,112,97,24
0,24,24,-12,-12,24,0,97,175,117,92,34
0,34,34,-17,-17,34,0,102,190,126,92,34
0,29,29,-14,-14,29,-4,107,200,136,102,39
4,29,24,-17,-9,26,-4,107,209,151,112,53
9,29,19,-19,-4,24,-4,107,214,151,117,53
14,39,24,-26,-4,31,-4,107,224,161,126,53
24,39,14,-31,4,26,0,107,234,170,131,58
24,43,19,-34,2,31,0,107,244,180,141,68
19,43,24,-31,-2,34,0,112,248,185,146,73
19,48,29,-34,-4,39,0,112,258,190,156,82
19,53,34,-36,-7,43,0,122,273,200,156,82
19,58,39,-39,-9,48,0,122,278,209,165,92
19,63,43,-41,-12,53,-4,122,283,219,175,92
19,73,53,-46,-17,63,-4,126,287,224,180,92
24,78,53,-51,-14,65,-4,126,297,229,195,102
24,87,63,-56,-19,75,-4,126,302,239,200,102
24,92,68,-58,-21,80,-9,126,307,248,209,112
24,92,68,-58,-21,80,-9,122,312,258,214,117
24,102,78,-63,-26,90,-9,122,317,258,214,122
19,107,87,-63,-34,97,-9,117,317,263,214,122
24,122,97,-73,-36,109,-9,112,317,263,214,126
19,136,117,-78,-48,126,-9,107,317,258,214,126
14,146,131,-80,-58,139,-9,97,317,258,214,126
4,156,151,-80,-73,153,-9,87,307,258,214,126
-4,165,170,-80,-87,168,-9,78,297,248,200,126
-19,175,195,-78,-107,185,-9,68,287,234,190,122
-29,185,214,-78,-122,200,-9,53,273,224,185,112
-39,200,239,-80,-139,219,-9,39,248,209,175,102
-43,209,253,-82,-148,231,-9,19,234,200,161,92
-48,219,268,-85,-158,244,-9,0,209,180,141,78
-63,234,297,-85,-180,265,-9,-19,185,156,117,63
-73,244,317,-85,-195,280,-9,-43,161,131,92,53
-87,253,341,-82,-214,297,-9,-63,131,107,73,43
-102,258,361,-78,-231,309,-9,-92,102,78,48,24
-122,263,385,-70,-253,324,-14,-107,63,53,19,4
-131,268,400,-68,-265,334,-19,-131,29,24,-9,-14
-136,268,405,-65,-270,336,-19,-151,0,-9,-34,-34
-146,268,414,-61,-280,341,-19,-170,-34,-39,-58,-53
-156,263,419,-53,-287,341,-24,-180,-63,-68,-82,-73
-156,253,409,-48,-283,331,-24,-190,-82,-92,-107,-82
-161,248,409,-43,-285,329,-29,-200,-92,-107,-122,-92
-161,239,400,-39,-280,319,-39,-204,-112,-122,-126,-102
-156,239,395,-41,-275,317,-43,-204,-131,-136,-141,-107
-151,229,380,-39,-265,305,-48,-204,-141,-146,-151,-107
-141,224,366,-41,-253,295,-43,-204,-151,-156,-156,-112
-131,200,331,-34,-231,265,-43,-204,-156,-156,-156,-112
-126,190,317,-31,-222,253,-48,-204,-156,-161,-156,-112
-122,170,292,-24,-207,231,-48,-200,-156,-161,-156,-112
-112,156,268,-21,-190,212,-53,-195,-161,-156,-151,-107
-97,136,234,-19,-165,185,-53,-185,-161,-151,-151,-97
-87,122,209,-17,-148,165,-53,-180,-156,-146,-136,-92
-78,107,185,-14,-131,146,-58,-170,-151,-146,-126,-87
-68,97,165,-14,-117,131,-58,-165,-151,-141,-122,-87
-58,82,141,-12,-100,112,-58,-161,-146,-136,-117,-82
-58,68,126,-4,-92,97,-58,-151,-146,-131,-122,-78
-53,58,112,-2,-82,85,-58,-141,-146,-122,-117,-78
-53,53,107,0,-80,80,-53,-141,-141,-117,-112,-73
-48,43,92,2,-70,68,-48,-131,-136,-112,-107,-73
-43,43,87,0,-65,65,-43,-126,-131,-107,-102,-68
-39,39,78,0,-58,58,-43,-122,-131,-102,-102,-68
-39,39,78,0,-58,58,-43,-126,-122,-102,-97,-63
-34,34,68,0,-51,51,-43,-126,-107,-97,-92,-63
-34,34,68,0,-51,51,-48,-122,-102,-92,-87,-58
-29,39,68,-4,-48,53,-53,-122,-102,-87,-82,-58
-29,34,63,-2,-46,48,-48,-112,-97,-87,-82,-58
-29,34,63,-2,-46,48,-48,-112,-97,-82,-82,-58
-29,29,58,0,-43,43,-48,-107,-92,-82,-78,-58
-29,29,58,0,-43,43,-48,-102,-87,-78,-78,-53
-24,24,48,0,-36,36,-48,-102,-82,-73,-68,-53
-24,19,43,2,-34,31,-48,-102,-82,-73,-63,-53
-24,19,43,2,-34,31,-48,-92,-78,-73,-63,-53
-24,19,43,2,-34,31,-43,-87,-78,-73,-63,-53
-19,14,34,2,-26,24,-43,-82,-73,-73,-63,-53
-19,14,34,2,-26,24,-43,-78,-68,-68,-63,-53
-24,9,34,7,-29,21,-43,-82,-68,-63,-63,-48
-24,9,34,7,-29,21,-43,-82,-68,-63,-63,-48
-24,14,39,4,-31,26,-43,-82,-63,-63,-63,-48
-24,19,43,2,-34,31,-43,-82,-58,-63,-63,-48
-19,19,39,0,-29,29,-43,-73,-58,-63,-63,-48
-19,19,39,0,-29,29,-43,-73,-58,-63,-63,-53
-19,14,34,2,-26,24,-43,-73,-58,-63,-63,-53
-19,14,34,2,-26,24,-43,-73,-58,-63,-63,-53
-19,14,34,2,-26,24,-39,-73,-58,-63,-63,-53
-19,14,34,2,-26,24,-39,-73,-58,-58,-63,-53
-19,14,34,2,-26,24,-39,-73,-53,-58,-63,-53
-19,14,34,2,-26,24,-39,-68,-53,-58,-63,-53
-19,14,34,2,-26,24,-39,-63,-53,-58,-58,-53
-19,14,34,2,-26,24,-43,-63,-53,-58,-53,-48
-19,14,34,2,-26,24,-43,-63,-53,-58,-53,-48
-19,14,34,2,-26,24,-43,-63,-53,-58,-53,-48
-14,14,29,0,-21,21,-43,-63,-53,-58,-53,-48
-9,14,24,-2,-17,19,-43,-68,-53,-58,-53,-53
-9,19,29,-4,-19,24,-43,-68,-53,-58,-48,-48
-9,24,34,-7,-21,29,-43,-63,-48,-53,-43,-43
-4,39,43,-17,-24,41,-43,-63,-39,-43,-34,-39
0,58,58,-29,-29,58,-43,-63,-24,-29,-24,-29
4,73,68,-39,-31,70,-48,-63,-24,-29,-24,-29
9,87,78,-48,-34,82,-48,-68,-19,-24,-14,-24
9,92,82,-51,-36,87,-48,-58,-14,-14,-14,-9
9,97,87,-53,-39,92,-48,-48,-9,-9,-19,0
19,112,92,-65,-36,102,-48,-48,0,0,-9,0
29,126,97,-78,-34,112,-48,-48,9,9,0,0
39,131,92,-85,-26,112,-68,-48,9,9,4,4
43,136,92,-90,-24,114,-97,-68,0,9,4,4
48,146,97,-97,-24,122,-126,-92,-9,9,9,9
48,156,107,-102,-29,131,-161,-136,-39,-4,0,9
48,165,117,-107,-34,141,-175,-151,-53,-19,-4,9
53,170,117,-112,-31,143,-180,-151,-63,-19,-4,9
68,195,126,-131,-29,161,-190,-156,-63,-19,-4,14
92,229,136,-161,-21,183,-204,-156,-58,-4,9,29
102,229,126,-165,-12,178,-204,-156,-48,4,29,39
102,219,117,-161,-7,168,-200,-151,-48,4,19,39
92,190,97,-141,-2,143,-180,-141,-48,-4,9,39
78,156,78,-117,0,117,-161,-136,-53,-14,4,24
43,126,82,-85,-19,104,-141,-136,-78,-34,-19,0
4,92,87,-48,-41,90,-117,-131,-78,-48,-43,-24
-4,73,78,-34,-41,75,-102,-126,-78,-58,-48,-34
-9,43,53,-17,-31,48,-97,-126,-87,-68,-58,-48
-14,34,48,-9,-31,41,-87,-126,-92,-73,-63,-48
-14,39,53,-12,-34,46,-87,-126,-92,-78,-63,-48
-14,39,53,-12,-34,46,-87,-126,-92,-78,-68,-53
-19,29,48,-4,-34,39,-82,-126,-97,-78,-78,-53
-24,24,48,0,-36,36,-73,-122,-97,-82,-78,-53
-29,19,48,4,-39,34,-68,-122,-97,-82,-78,-58
-34,14,48,9,-41,31,-68,-122,-97,-82,-78,-58
-34,9,43,12,-39,26,-63,-117,-97,-82,-82,-63
-39,4,43,17,-41,24,-58,-117,-97,-87,-82,-63
-39,4,43,17,-41,24,-58,-112,-97,-87,-82,-63
-43,0,43,21,-43,21,-53,-112,-97,-87,-82,-68
-43,0,43,21,-43,21,-53,-112,-97,-87,-78,-68
-43,0,43,21,-43,21,-48,-112,-97,-87,-78,-68
-43,-4,39,24,-41,17,-48,-112,-97,-87,-78,-68
-48,-4,43,26,-46,19,-43,-117,-97,-87,-82,-68
-48,-4,43,26,-46,19,-43,-122,-97,-87,-87,-68
-48,-4,43,26,-46,19,-43,-122,-97,-87,-87,-68
-48,-4,43,26,-46,19,-43,-122,-97,-87,-87,-68
-53,14,68,19,-61,41,-43,-126,-92,-73,-78,-63
-73,68,141,2,-107,104,-34,-126,-39,-14,-29,-29
-122,146,268,-12,-195,207,-4,-131,24,68,19,-9
-204,229,434,-12,-319,331,53,-117,102,136,53,-9
-253,307,561,-26,-407,434,102,-82,165,204,102,9
-253,400,653,-73,-453,527,107,-82,195,283,170,68
-190,478,668,-143,-429,573,78,-87,229,361,292,190
-63,595,658,-265,-361,627,-29,-151,244,483,483,419
92,531,439,-312,-173,485,-39,-63,390,649,658,570
331,151,-180,-241,256,-14,73,346,761,849,834,663
629,-209,-839,-209,734,-524,92,673,946,956,941,741
917,-517,-1434,-200,1176,-976,78,849,1010,1058,1073,858
1117,-707,-1825,-204,1471,-1266,-24,795,824,1015,1073,893
1249,-785,-2034,-231,1642,-1410,-263,448,307,756,927,868
1166,-1044,-2210,-61,1688,-1627,-292,122,-390,87,390,551
800,-1298,-2098,248,1449,-1698,-53,-39,-1010,-688,-336,19
273,-1356,-1629,541,951,-1493,302,4,-1346,-1215,-844,-434
-175,-1342,-1166,758,495,-1254,541,112,-1337,-1371,-1078,-746
-434,-1288,-854,861,209,-1071,649,253,-1132,-1278,-1112,-902
-478,-1210,-732,844,126,-971,639,297,-995,-1190,-1102,-956
-434,-1024,-590,729,78,-807,502,185,-873,-1029,-966,-839
-351,-863,-512,607,80,-688,366,170,-727,-854,-795,-707
-239,-668,-429,453,95,-549,229,170,-541,-634,-575,-527
-151,-492,-341,322,95,-417,200,190,-351,-444,-409,-375
-107,-356,-248,231,70,-302,175,209,-200,-317,-312,-287
-78,-239,-161,158,41,-200,136,239,-63,-170,-185,-204
-43,-156,-112,100,34,-134,97,190,0,-78,-82,-117
-24,-82,-58,53,17,-70,58,122,29,-24,-29,-48
-19,-29,-9,24,-4,-19,48,112,87,14,-4,-29
-19,-14,4,17,-12,-4,39,126,126,48,14,-24
-19,-9,9,14,-14,0,29,117,131,68,43,-4
-9,-4,4,7,-7,0,24,102,131,73,53,9
-4,9,14,-2,-9,12,19,102,141,82,53,14
-4,19,24,-7,-14,21,9,102,165,97,58,19
0,24,24,-12,-12,24,4,102,170,112,68,24
4,34,29,-19,-12,31,4,97,165,112,87,34
14,34,19,-24,-2,26,0,97,175,117,87,43
19,43,24,-31,-2,34,0,102,190,126,92,43
19,43,24,-31,-2,34,-4,112,200,136,102,48
24,48,24,-36,0,36,-4,117,209,151,112,63
24,48,24,-36,0,36,-4,117,214,151,117,63
24,58,34,-41,-4,46,-4,117,224,161,126,63
34,58,24,-46,4,41,0,122,239,170,131,68
34,63,29,-48,2,46,0,126,253,180,141,78
29,63,34,-46,-2,48,0,131,258,185,146,82
29,68,39,-48,-4,53,0,131,268,190,156,92
29,73,43,-51,-7,58,0,141,283,200,156,87
29,78,48,-53,-9,63,0,141,287,209,165,92
29,78,48,-53,-9,63,0,141,292,224,175,92
29,82,53,-56,-12,68,4,146,297,234,180,92
34,82,48,-58,-7,65,4,146,307,239,190,107
34,87,53,-61,-9,70,4,146,312,248,190,112
34,97,63,-65,-14,80,0,151,317,253,200,122
34,102,68,-68,-17,85,0,151,322,258,204,126
34,112,78,-73,-21,95,0,151,326,253,204,131
29,117,87,-73,-29,102,0,146,326,253,204,131
29,126,97,-78,-34,112,0,136,326,258,209,136
19,136,117,-78,-48,126,0,126,326,258,214,136
14,146,131,-80,-58,139,0,117,326,258,214,131
4,156,151,-80,-73,153,0,107,317,258,214,126
0,165,165,-82,-82,165,0,97,307,253,200,126
-9,175,185,-82,-97,180,0,87,297,244,190,122
-19,185,204,-82,-112,195,0,73,287,229,180,112
-29,200,229,-85,-129,214,0,58,268,209,165,102
-39,209,248,-85,-143,229,0,39,248,200,151,97
-48,219,268,-85,-158,244,0,19,219,180,131,87
-63,234,297,-85,-180,265,0,0,195,161,112,73
-73,244,317,-85,-195,280,0,-24,170,141,92,63
-87,253,341,-82,-214,297,0,-43,141,112,68,53
-102,258,361,-78,-231,309,0,-73,112,78,39,34
-122,263,385,-70,-253,324,0,-87,78,53,9,9
-131,268,400,-68,-265,334,0,-112,48,24,-19,-14
-141,268,409,-63,-275,339,0,-131,19,-9,-43,-29
-156,268,424,-56,-290,346,0,-151,-14,-39,-68,-43
-165,263,429,-48,-297,346,-4,-161,-43,-68,-87,-63
-165,253,419,-43,-292,336,-4,-170,-63,-92,-107,-73
-170,239,409,-34,-290,324,-4,-180,-78,-102,-122,-82
-170,219,390,-24,-280,305,-9,-185,-102,-112,-126,-92
-165,214,380,-24,-273,297,-14,-185,-117,-126,-136,-97
-161,200,361,-19,-261,280,-19,-185,-122,-136,-141,-97
-151,195,346,-21,-248,270,-24,-180,-131,-146,-146,-97
-141,170,312,-14,-226,241,-34,-175,-136,-146,-146,-92
-131,161,292,-14,-212,226,-39,-175,-136,-146,-146,-92
-122,141,263,-9,-192,202,-39,-170,-136,-141,-146,-92
-112,131,244,-9,-178,187,-43,-165,-141,-141,-136,-92
-97,117,214,-9,-156,165,-43,-156,-141,-141,-131,-87
-87,102,190,-7,-139,146,-43,-156,-141,-136,-126,-82
-78,87,165,-4,-122,126,-48,-151,-141,-136,-126,-78
-68,87,156,-9,-112,122,-53,-146,-141,-131,-122,-78
-58,82,141,-12,-100,112,-58,-141,-136,-126,-117,-73
-58,68,126,-4,-92,97,-58,-136,-131,-126,-117,-68
-53,58,112,-2,-82,85,-58,-131,-126,-122,-107,-68
-53,53,107,0,-80,80,-53,-136,-122,-117,-102,-63
-48,43,92,2,-70,68,-48,-131,-117,-112,-97,-63
-43,39,82,2,-63,61,-43,-126,-112,-102,-92,-58
-39,29,68,4,-53,48,-43,-122,-112,-92,-92,-58
-39,29,68,4,-53,48,-43,-122,-107,-92,-87,-53
-34,24,58,4,-46,41,-43,-117,-97,-87,-82,-53
-34,19,53,7,-43,36,-43,-112,-92,-82,-78,-48
-29,19,48,4,-39,34,-43,-112,-92,-78,-73,-48
-29,14,43,7,-36,29,-39,-102,-87,-78,-73,-48
-29,14,43,7,-36,29,-39,-102,-87,-73,-73,-48
-29,9,39,9,-34,24,-39,-92,-82,-73,-68,-53
-29,9,39,9,-34,24,-39,-82,-78,-68,-68,-53
-24,9,34,7,-29,21,-39,-82,-73,-63,-63,-53
-24,9,34,7,-29,21,-39,-82,-73,-63,-63,-53
-24,9,34,7,-29,21,-39,-78,-68,-63,-63,-53
-24,9,34,7,-29,21,-34,-78,-68,-63,-63,-53
-19,4,24,7,-21,14,-34,-78,-63,-63,-63,-53
-19,4,24,7,-21,14,-34,-78,-58,-58,-63,-53
-24,0,24,12,-24,12,-34,-78,-58,-53,-58,-43
-24,0,24,12,-24,12,-34,-73,-58,-53,-53,-39
-24,0,24,12,-24,12,-34,-73,-53,-53,-53,-39
-24,0,24,12,-24,12,-34,-73,-48,-53,-53,-39
-19,0,19,9,-19,9,-34,-63,-48,-53,-53,-39
-19,0,19,9,-19,9,-34,-63,-48,-53,-53,-43
-19,-4,14,12,-17,4,-34,-58,-48,-53,-53,-43
-19,-4,14,12,-17,4,-34,-53,-48,-53,-53,-43
-19,-4,14,12,-17,4,-29,-53,-48,-53,-53,-43
-19,-4,14,12,-17,4,-29,-53,-48,-48,-53,-43
-19,-4,14,12,-17,4,-29,-53,-43,-48,-53,-43
-19,-4,14,12,-17,4,-29,-48,-43,-48,-53,-43
-19,-4,14,12,-17,4,-29,-48,-43,-48,-53,-43
-19,-4,14,12,-17,4,-34,-53,-43,-48,-53,-39
-19,-4,14,12,-17,4,-34,-53,-43,-48,-53,-39
-19,-4,14,12,-17,4,-34,-53,-43,-48,-53,-39
-19,-4,14,12,-17,4,-34,-53,-43,-48,-53,-39
-19,-4,14,12,-17,4,-34,-58,-43,-48,-53,-43
-19,-4,14,12,-17,4,-34,-58,-48,-53,-48,-43
-19,-4,14,12,-17,4,-34,-53,-48,-53,-43,-43
-19,-4,14,12,-17,4,-34,-53,-48,-53,-43,-43
-19,0,19,9,-19,9,-34,-53,-43,-48,-43,-39
-9,14,24,-2,-17,19,-39,-53,-43,-43,-43,-34
-4,24,29,-9,-17,26,-39,-58,-39,-34,-39,-29
0,34,34,-17,-17,34,-39,-58,-29,-34,-34,-24
4,48,43,-26,-19,46,-39,-58,-9,-24,-34,-19
4,58,53,-31,-24,56,-39,-48,-9,-19,-24,-14
9,73,63,-41,-26,68,-39,-43,-14,-14,-14,-9
9,78,68,-43,-29,73,-34,-39,0,0,0,0
9,87,78,-48,-34,82,-29,-39,9,9,9,9
19,102,82,-61,-31,92,-29,-29,19,19,14,14
29,117,87,-73,-29,102,-29,-19,29,29,19,19
39,122,82,-80,-21,102,-63,-39,19,29,19,19
43,126,82,-85,-19,104,-102,-73,0,19,14,19
48,136,87,-92,-19,112,-141,-112,-19,14,9,19
53,146,92,-100,-19,119,-156,-131,-34,0,4,19
58,151,92,-104,-17,122,-165,-131,-43,0,4,19
68,165,97,-117,-14,131,-180,-136,-43,0,4,24
92,190,97,-141,-2,143,-195,-141,-39,14,19,39
102,200,97,-151,2,148,-195,-146,-29,24,39,48
112,204,92,-158,9,148,-190,-141,-34,24,34,48
112,180,68,-146,21,124,-170,-131,-39,14,29,48
97,146,48,-122,24,97,-156,-126,-43,4,24,34
63,117,53,-90,4,85,-141,-126,-68,-14,0,9
19,82,63,-51,-21,73,-117,-122,-68,-29,-24,-14
4,63,58,-34,-26,61,-102,-117,-68,-39,-29,-24
0,34,34,-17,-17,34,-92,-117,-78,-48,-39,-39
-4,19,24,-7,-14,21,-78,-117,-82,-53,-43,-39
-4,19,24,-7,-14,21,-78,-117,-82,-58,-43,-39
-4,19,24,-7,-14,21,-78,-117,-82,-58,-43,-43
-14,9,24,2,-19,17,-73,-117,-87,-58,-48,-43
-24,4,29,9,-26,17,-63,-112,-87,-63,-48,-43
-29,0,29,14,-29,14,-58,-112,-82,-63,-53,-48
-34,-4,29,19,-31,12,-58,-112,-78,-63,-58,-48
-34,-9,24,21,-29,7,-53,-107,-78,-63,-63,-53
-39,-14,24,26,-31,4,-48,-107,-78,-68,-63,-53
-39,-14,24,26,-31,4,-48,-102,-82,-73,-63,-53
-43,-19,24,31,-34,2,-43,-102,-87,-78,-68,-58
-43,-19,24,31,-34,2,-43,-102,-87,-78,-68,-58
-43,-19,24,31,-34,2,-39,-102,-87,-78,-68,-58
-43,-24,19,34,-31,-2,-39,-102,-87,-73,-68,-58
-48,-24,24,36,-36,0,-34,-102,-87,-68,-68,-58
-43,-24,19,34,-31,-2,-34,-102,-87,-68,-68,-58
-39,-24,14,31,-26,-4,-34,-102,-87,-68,-68,-58
-34,-34,0,34,-17,-17,-34,-102,-92,-78,-73,-58
-34,-24,9,29,-21,-7,-34,-107,-92,-73,-68,-53
-53,29,82,12,-68,56,-34,-112,-48,-14,-19,-19
-102,102,204,0,-153,153,-9,-112,19,73,34,4
-190,180,370,4,-280,275,63,-87,122,141,68,0
-244,258,502,-7,-373,380,126,-53,204,204,112,9
-273,351,624,-39,-448,488,161,-43,244,283,165,53
-244,429,673,-92,-458,551,156,-43,268,346,253,151
-146,619,766,-236,-456,692,14,-190,219,424,409,370
-14,629,644,-307,-329,636,-29,-190,283,541,556,507
204,258,53,-231,75,156,102,229,649,722,707,570
483,-92,-575,-195,529,-334,141,561,829,810,785,619
805,-444,-1249,-180,1027,-846,156,810,946,941,936,741
1044,-668,-1712,-187,1378,-1190,82,834,834,932,976,795
1273,-712,-1986,-280,1629,-1349,-229,448,331,761,941,868
1293,-946,-2239,-173,1766,-1593,-341,82,-322,239,541,653
980,-1254,-2235,136,1607,-1744,-141,-126,-1010,-580,-224,97
488,-1371,-1859,441,1173,-1615,200,-92,-1424,-1195,-795,-366
-43,-1376,-1332,710,644,-1354,507,63,-1434,-1400,-1073,-697
-380,-1337,-956,858,287,-1146,668,229,-1244,-1346,-1137,-893
-463,-1273,-810,868,173,-1041,688,312,-1078,-1249,-1137,-976
-453,-1112,-658,783,102,-885,566,234,-941,-1088,-1024,-888
-370,-961,-590,666,109,-775,414,209,-790,-912,-844,-756
-258,-766,-507,512,124,-636,278,200,-600,-697,-619,-575
-165,-580,-414,373,124,-497,239,219,-395,-497,-444,-409
-117,-434,-317,275,100,-375,209,239,-229,-356,-331,-307
-87,-302,-214,195,63,-258,175,268,-87,-200,-200,-219
-48,-204,-156,126,53,-180,136,224,-14,-92,-87,-126
-19,-131,-112,75,46,-122,92,156,19,-29,-29,-58
-9,-78,-68,43,29,-73,78,141,78,14,0,-34
-9,-63,-53,36,21,-58,68,156,122,48,24,-24
-9,-53,-43,31,17,-48,58,146,131,68,53,-4
0,-43,-43,21,21,-43,53,131,131,73,63,9
4,-29,-34,12,19,-31,48,131,141,82,63,14
4,-19,-24,7,14,-21,39,131,165,97,68,19
9,-14,-24,2,17,-19,34,131,175,117,78,24
14,0,-14,-7,14,-7,34,126,175,122,97,34
19,4,-14,-12,17,-4,29,126,185,126,97,43
19,14,-4,-17,12,4,29,131,200,136,102,43
19,14,-4,-17,12,4,24,136,209,146,112,48
24,19,-4,-21,14,7,24,136,219,161,122,63
24,19,-4,-21,14,7,24,136,224,161,126,63
24,29,4,-26,9,17,24,136,239,170,136,63
34,29,-4,-31,19,12,24,141,253,180,141,68
34,34,0,-34,17,17,19,146,263,190,151,78
34,34,0,-34,17,17,19,151,268,195,156,82
39,39,0,-39,19,19,19,151,278,200,165,92
39,43,4,-41,17,24,19,161,292,209,165,92
39,48,9,-43,14,29,19,161,297,219,175,102
39,48,9,-43,14,29,14,161,302,229,185,102
39,48,9,-43,14,29,14,165,312,239,190,107
43,48,4,-46,19,26,14,165,326,248,200,122
43,58,14,-51,14,36,14,165,331,258,200,122
43,68,24,-56,9,46,9,165,336,263,209,131
43,73,29,-58,7,51,9,161,341,268,219,131
43,82,39,-63,2,61,9,161,346,268,224,131
39,87,48,-63,-4,68,4,161,346,273,224,131
39,97,58,-68,-9,78,0,161,346,278,229,136
29,107,78,-68,-24,92,0,156,346,278,234,141
24,117,92,-70,-34,104,0,146,346,278,234,146
14,126,112,-70,-48,119,0,136,341,278,239,146
9,136,126,-73,-58,131,0,126,336,273,229,146
0,146,146,-73,-73,146,0,117,326,263,219,141
-9,156,165,-73,-87,161,0,102,317,253,214,131
-19,170,190,-75,-104,180,0,87,297,244,204,122
-29,180,209,-75,-119,195,0,68,283,239,190,117
-39,190,229,-75,-134,209,4,53,258,219,170,107
-53,204,258,-75,-156,231,9,39,234,200,151,92
-63,209,273,-73,-168,241,9,14,209,180,131,82
-78,214,292,-68,-185,253,9,-4,180,156,112,73
-92,219,312,-63,-202,265,9,-34,151,122,87,53
-112,224,336,-56,-224,280,9,-48,122,92,58,34
-126,229,356,-51,-241,292,9,-73,97,63,29,14
-141,229,370,-43,-256,300,9,-92,68,34,4,0
-156,234,390,-39,-273,312,9,-112,29,9,-19,-19
-165,234,400,-34,-283,317,4,-122,-4,-19,-39,-43
-165,224,390,-29,-278,307,4,-131,-29,-43,-63,-53
-170,219,390,-24,-280,305,0,-141,-48,-58,-82,-63
-170,209,380,-19,-275,295,-9,-151,-73,-73,-87,-73
-165,204,370,-19,-268,287,-14,-156,-92,-87,-102,-78
-161,190,351,-14,-256,270,-19,-161,-102,-97,-112,-78
-151,185,336,-17,-244,261,-19,-165,-112,-107,-117,-82
-141,161,302,-9,-222,231,-24,-165,-117,-107,-117,-82
-131,151,283,-9,-207,217,-29,-165,-117,-112,-117,-82
-122,131,253,-4,-187,192,-34,-161,-117,-112,-117,-82
-112,122,234,-4,-173,178,-43,-156,-122,-112,-112,-82
-97,107,204,-4,-151,156,-43,-146,-122,-112,-112,-78
-87,92,180,-2,-134,136,-43,-146,-122,-107,-107,-78
-78,78,156,0,-117,117,-48,-141,-122,-107,-107,-73
-68,73,141,-2,-104,107,-48,-136,-122,-102,-102,-68
-53,63,117,-4,-85,90,-48,-131,-117,-97,-97,-63
-48,48,97,0,-73,73,-48,-126,-117,-97,-97,-58
-43,39,82,2,-63,61,-48,-122,-117,-97,-87,-58
-43,34,78,4,-61,56,-48,-122,-112,-97,-82,-53
-39,24,63,7,-51,43,-48,-117,-107,-92,-78,-53
-34,24,58,4,-46,41,-43,-117,-102,-87,-73,-48
-29,19,48,4,-39,34,-43,-112,-102,-78,-73,-53
-29,19,48,4,-39,34,-43,-112,-97,-73,-68,-53
-24,14,39,4,-31,26,-43,-107,-87,-68,-63,-53
-24,9,34,7,-29,21,-43,-102,-82,-63,-58,-48
-19,9,29,4,-24,19,-43,-102,-82,-58,-53,-48
-19,4,24,7,-21,14,-39,-92,-78,-58,-53,-48
-19,4,24,7,-21,14,-39,-92,-78,-58,-53,-48
-19,0,19,9,-19,9,-39,-87,-73,-63,-48,-48
-19,0,19,9,-19,9,-39,-78,-68,-58,-48,-39
-14,0,14,7,-14,7,-39,-73,-63,-53,-43,-34
-14,-4,9,9,-12,2,-39,-73,-63,-53,-43,-34
-14,-9,4,12,-9,-2,-39,-68,-58,-53,-43,-34
-14,-9,4,12,-9,-2,-34,-68,-58,-53,-43,-34
-9,-14,-4,12,-2,-9,-34,-63,-53,-53,-43,-34
-9,-9,0,9,-4,-4,-34,-58,-48,-48,-48,-39
-14,-9,4,12,-9,-2,-34,-58,-48,-43,-48,-39
-14,-9,4,12,-9,-2,-34,-53,-53,-43,-43,-39
-14,-9,4,12,-9,-2,-34,-53,-53,-43,-43,-39
-14,-9,4,12,-9,-2,-34,-58,-48,-43,-43,-39
-9,-9,0,9,-4,-4,-34,-53,-48,-43,-43,-39
-9,-9,0,9,-4,-4,-34,-53,-48,-43,-43,-43
-9,-14,-4,12,-2,-9,-34,-53,-48,-43,-43,-43
-9,-14,-4,12,-2,-9,-34,-53,-43,-43,-43,-43
-9,-14,-4,12,-2,-9,-29,-53,-39,-43,-43,-43
-9,-14,-4,12,-2,-9,-29,-53,-39,-43,-43,-43
-9,-14,-4,12,-2,-9,-29,-53,-34,-48,-43,-43
-9,-14,-4,12,-2,-9,-29,-48,-39,-48,-43,-43
-9,-14,-4,12,-2,-9,-29,-48,-43,-48,-43,-43
-9,-14,-4,12,-2,-9,-34,-53,-43,-48,-43,-39
-9,-14,-4,12,-2,-9,-34,-53,-43,-48,-43,-39
-9,-14,-4,12,-2,-9,-34,-48,-43,-43,-43,-39
-9,-14,-4,12,-2,-9,-34,-43,-43,-39,-43,-39
-9,-14,-4,12,-2,-9,-34,-48,-43,-39,-43,-43
-9,-14,-4,12,-2,-9,-34,-48,-48,-43,-43,-43
-9,-19,-9,14,0,-14,-34,-43,-48,-48,-43,-43
-9,-24,-14,17,2,-19,-34,-43,-48,-53,-43,-43
-14,-19,-4,17,-4,-12,-34,-43,-43,-48,-43,-39
-14,-14,0,14,-7,-7,-39,-43,-43,-48,-43,-39
-19,-19,0,19,-9,-9,-39,-53,-43,-43,-43,-43
-19,-14,4,17,-12,-4,-39,-58,-48,-43,-43,-43
-19,-14,4,17,-12,-4,-39,-63,-48,-43,-48,-48
-14,-14,0,14,-7,-7,-39,-68,-48,-43,-53,-48
-14,-14,0,14,-7,-7,-34,-63,-53,-53,-53,-43
-14,-9,4,12,-9,-2,-29,-63,-53,-53,-53,-43
-14,-9,4,12,-9,-2,-29,-58,-48,-48,-43,-39
-14,-9,4,12,-9,-2,-29,-58,-43,-43,-43,-29
-9,9,19,0,-14,14,-24,-58,-34,-39,-34,-29
-4,34,39,-14,-21,36,-29,-58,-29,-34,-29,-29
0,43,43,-21,-21,43,-19,-43,-29,-24,-19,-24
9,63,53,-36,-21,58,-29,-53,-19,-9,-4,-14
9,68,58,-39,-24,63,-19,-43,-19,-9,-4,-4
9,78,68,-43,-29,73,-9,-39,-19,-9,-9,0
9,87,78,-48,-34,82,-9,-39,-4,0,0,0
9,97,87,-53,-39,92,-9,-39,9,9,9,0
29,112,82,-70,-26,97,-24,-39,14,19,19,9
39,122,82,-80,-21,102,-53,-58,9,24,24,14
48,136,87,-92,-19,112,-87,-78,4,29,29,19
48,146,97,-97,-24,122,-131,-117,-19,14,19,19
53,156,102,-104,-24,129,-151,-131,-34,0,14,19
63,161,97,-112,-17,129,-161,-131,-43,0,14,19
78,175,97,-126,-9,136,-175,-136,-43,0,9,24
102,200,97,-151,2,148,-195,-136,-39,14,19,39
117,209,92,-163,12,151,-200,-136,-29,24,39,48
122,209,87,-165,17,148,-200,-131,-29,24,29,48
112,185,73,-148,19,129,-180,-126,-29,14,24,48
97,156,58,-126,19,107,-161,-126,-34,4,24,34
58,126,68,-92,-4,97,-141,-126,-58,-14,0,9
14,92,78,-53,-31,85,-117,-122,-58,-29,-24,-14
4,73,68,-39,-31,70,-97,-117,-58,-34,-29,-24
0,43,43,-21,-21,43,-87,-117,-68,-39,-39,-39
-4,29,34,-12,-19,31,-78,-117,-73,-43,-43,-39
-4,29,34,-12,-19,31,-78,-117,-73,-48,-43,-39
-9,29,39,-9,-24,34,-78,-117,-73,-48,-43,-43
-19,19,39,0,-29,29,-73,-117,-78,-48,-48,-43
-24,14,39,4,-31,26,-63,-112,-82,-53,-48,-43
-29,9,39,9,-34,24,-58,-112,-87,-53,-48,-48
-34,4,39,14,-36,21,-58,-112,-87,-58,-48,-48
-34,0,34,17,-34,17,-53,-107,-87,-63,-53,-53
-39,-9,29,24,-34,9,-48,-107,-87,-68,-53,-53
-39,-14,24,26,-31,4,-48,-102,-87,-68,-53,-53
-43,-19,24,31,-34,2,-43,-102,-87,-68,-58,-58
-43,-19,24,31,-34,2,-43,-102,-87,-68,-58,-58
-43,-19,24,31,-34,2,-39,-102,-82,-68,-58,-58
-43,-24,19,34,-31,-2,-39,-102,-78,-68,-58,-58
-48,-29,19,39,-34,-4,-34,-102,-78,-68,-58,-58
-48,-34,14,41,-31,-9,-34,-102,-78,-68,-58,-58
-48,-34,14,41,-31,-9,-34,-97,-78,-68,-58,-53
-48,-34,14,41,-31,-9,-34,-92,-78,-68,-58,-48
-53,-19,34,36,-43,7,-34,-97,-73,-53,-48,-43
-73,29,102,21,-87,65,-24,-97,-19,4,0,-9
-122,102,224,9,-173,163,14,-92,58,92,53,9
-204,180,385,12,-295,283,82,-68,151,165,92,9
-268,258,527,4,-397,392,146,-24,224,234,131,24
-283,351,634,-34,-458,492,165,-14,263,312,190,78
-234,439,673,-102,-453,556,136,-39,278,361,278,175
-122,566,688,-222,-405,627,29,-122,273,453,434,380
19,531,512,-275,-246,522,14,-68,361,570,566,502
244,180,-63,-212,153,58,122,307,673,722,697,566
556,-190,-746,-183,651,-468,141,619,810,785,775,614
858,-507,-1366,-175,1112,-936,126,780,824,844,878,702
1088,-688,-1776,-200,1432,-1232,19,717,658,834,912,766
1249,-756,-2005,-246,1627,-1381,-224,361,161,610,800,771
1220,-1019,-2239,-100,1729,-1629,-297,4,-517,-4,312,478
907,-1278,-2186,185,1546,-1732,-102,-185,-1117,-727,-366,-29
346,-1361,-1708,507,1027,-1534,297,-78,-1454,-1254,-873,-463
-136,-1371,-1234,753,549,-1302,580,92,-1444,-1410,-1107,-756
-424,-1317,-893,871,234,-1105,697,253,-1205,-1307,-1132,-922
-497,-1239,-741,868,122,-990,697,317,-1034,-1210,-1112,-985
-453,-1063,-610,758,78,-836,546,204,-912,-1049,-976,-868
-370,-912,-541,641,85,-727,395,190,-766,-873,-805,-736
-258,-717,-458,488,100,-588,253,190,-575,-658,-585,-556
-170,-541,-370,356,100,-456,219,209,-380,-473,-419,-405
-126,-405,-278,265,75,-341,200,229,-219,-341,-322,-302
-97,-287,-190,192,46,-239,165,258,-73,-190,-195,-204
-53,-200,-146,126,46,-173,126,214,-4,-92,-87,-126
-24,-122,-97,73,36,-109,87,151,29,-34,-29,-68
-19,-68,-48,43,14,-58,78,141,87,9,-4,-43
-19,-53,-34,36,7,-43,68,156,126,48,14,-34
-14,-43,-29,29,7,-36,58,146,131,68,43,-9
0,-34,-34,17,17,-34,53,131,131,73,53,9
4,-19,-24,7,14,-21,48,131,141,82,58,14
4,-9,-14,2,9,-12,39,131,165,97,68,19
9,-4,-14,-2,12,-9,34,131,180,117,82,24
14,4,-9,-9,12,-2,34,126,185,122,107,34
19,4,-14,-12,17,-4,29,126,195,131,107,43
19,14,-4,-17,12,4,29,131,209,146,112,43
19,14,-4,-17,12,4,19,141,219,156,122,48
24,19,-4,-21,14,7,14,146,229,170,131,63
24,19,-4,-21,14,7,14,146,239,170,136,68
24,29,4,-26,9,17,14,146,253,180,146,73
34,29,-4,-31,19,12,14,151,263,190,151,78
34,34,0,-34,17,17,9,156,273,200,161,87
34,34,0,-34,17,17,9,161,278,204,170,92
39,39,0,-39,19,19,9,161,287,209,185,102
39,43,4,-41,17,24,9,170,302,219,185,102
39,48,9,-43,14,29,9,170,307,229,195,112
39,48,9,-43,14,29,4,170,312,239,204,112
39,53,14,-46,12,34,4,175,317,244,209,112
43,58,14,-51,14,36,9,175,326,248,219,122
43,68,24,-56,9,46,14,175,331,258,219,122
43,78,34,-61,4,56,9,175,336,263,229,131
43,82,39,-63,2,61,9,170,341,268,234,136
43,92,48,-68,-2,70,9,170,346,268,234,141
39,97,58,-68,-9,78,9,165,346,273,234,141
39,107,68,-73,-14,87,9,161,346,283,239,146
29,117,87,-73,-29,102,9,156,346,287,244,146
24,126,102,-75,-39,114,9,146,346,287,244,146
14,136,122,-75,-53,129,9,136,336,287,244,146
9,141,131,-75,-61,136,9,126,331,283,234,151
0,146,146,-73,-73,146,9,117,326,273,229,151
-9,156,165,-73,-87,161,9,107,317,263,224,141
-19,170,190,-75,-104,180,9,97,297,248,214,131
-29,175,204,-73,-117,190,9,78,287,239,200,126
-39,180,219,-70,-129,200,9,58,268,219,180,117
-53,195,248,-70,-151,222,9,39,244,204,161,102
-63,204,268,-70,-165,236,9,14,219,190,141,92
-78,214,292,-68,-185,253,9,-4,190,165,122,82
-92,219,312,-63,-202,265,9,-34,161,136,97,63
-112,224,336,-56,-224,280,9,-48,131,112,68,43
-122,229,351,-53,-236,290,9,-73,107,82,39,24
-131,229,361,-48,-246,295,9,-92,78,53,14,9
-146,229,375,-41,-261,302,9,-112,43,29,-9,-4
-156,224,380,-34,-268,302,4,-122,9,-4,-34,-24
-156,214,370,-29,-263,292,4,-131,-14,-34,-58,-34
-165,209,375,-21,-270,292,0,-141,-29,-48,-73,-43
-170,200,370,-14,-270,285,-9,-146,-53,-63,-78,-53
-165,195,361,-14,-263,278,-9,-146,-73,-78,-92,-58
-161,180,341,-9,-251,261,-9,-146,-82,-87,-102,-58
-151,180,331,-14,-241,256,-9,-146,-97,-97,-107,-68
-141,161,302,-9,-222,231,-14,-146,-107,-97,-107,-73
-131,151,283,-9,-207,217,-24,-151,-107,-102,-107,-73
-122,131,253,-4,-187,192,-29,-151,-107,-102,-107,-73
-112,122,234,-4,-173,178,-34,-151,-112,-102,-102,-73
-97,107,204,-4,-151,156,-34,-146,-112,-102,-102,-68
-87,97,185,-4,-136,141,-34,-146,-112,-97,-97,-68
-78,87,165,-4,-122,126,-39,-141,-112,-97,-97,-68
-63,82,146,-9,-104,114,-39,-136,-112,-92,-92,-63
-48,73,122,-12,-85,97,-39,-131,-107,-87,-87,-53
-48,58,107,-4,-78,82,-39,-126,-107,-87,-87,-48
-43,48,92,-2,-68,70,-39,-122,-107,-82,-78,-48
-43,43,87,0,-65,65,-39,-122,-102,-78,-73,-39
-39,34,73,2,-56,53,-39,-112,-97,-73,-68,-34
-34,34,68,0,-51,51,-34,-107,-87,-63,-58,-24
-29,29,58,0,-43,43,-34,-102,-82,-53,-53,-19
-29,24,53,2,-41,39,-34,-102,-78,-53,-48,-14
-24,14,39,4,-31,26,-34,-97,-68,-48,-43,-14
-24,9,34,7,-29,21,-34,-92,-63,-43,-39,-9
-19,9,29,4,-24,19,-34,-92,-63,-39,-34,-9
-14,9,24,2,-19,17,-29,-82,-53,-39,-34,-9
-9,14,24,-2,-17,19,-29,-82,-48,-34,-34,-9
-9,9,19,0,-14,14,-29,-78,-43,-34,-29,-9
-9,9,19,0,-14,14,-29,-73,-39,-29,-29,-4
-4,9,14,-2,-9,12,-29,-68,-34,-24,-24,-4
-4,9,14,-2,-9,12,-29,-63,-34,-24,-24,-4
-4,4,9,0,-7,7,-29,-58,-34,-24,-24,-4
-4,0,4,2,-4,2,-24,-58,-39,-24,-24,-4
0,-4,-4,2,2,-4,-24,-58,-34,-29,-24,-9
0,-4,-4,2,2,-4,-24,-58,-29,-29,-24,-14
-4,-9,-4,7,0,-7,-24,-58,-29,-24,-24,-9
-4,-9,-4,7,0,-7,-24,-53,-29,-24,-24,-9
-9,-9,0,9,-4,-4,-24,-53,-29,-24,-24,-9
-14,-9,4,12,-9,-2,-24,-53,-29,-24,-24,-9
-9,-9,0,9,-4,-4,-24,-43,-29,-24,-24,-14
-9,-9,0,9,-4,-4,-24,-43,-29,-24,-24,-24
-9,-14,-4,12,-2,-9,-24,-43,-29,-24,-24,-24
-9,-14,-4,12,-2,-9,-24,-43,-29,-24,-24,-24
-9,-14,-4,12,-2,-9,-19,-43,-29,-24,-24,-24
-9,-14,-4,12,-2,-9,-19,-43,-29,-19,-24,-24
-9,-14,-4,12,-2,-9,-19,-43,-24,-24,-29,-24
-9,-14,-4,12,-2,-9,-19,-39,-24,-29,-34,-24
-9,-14,-4,12,-2,-9,-19,-39,-24,-29,-34,-24
-9,-14,-4,12,-2,-9,-24,-43,-24,-29,-34,-19
-9,-14,-4,12,-2,-9,-24,-39,-24,-29,-34,-19
-9,-14,-4,12,-2,-9,-24,-34,-24,-29,-34,-19
-9,-14,-4,12,-2,-9,-24,-34,-24,-24,-34,-19
-9,-14,-4,12,-2,-9,-24,-39,-24,-19,-34,-24
-9,-14,-4,12,-2,-9,-29,-43,-24,-24,-29,-24
-9,-14,-4,12,-2,-9,-34,-43,-19,-24,-24,-24
-9,-14,-4,12,-2,-9,-34,-43,-19,-24,-24,-24
-9,-9,0,9,-4,-4,-34,-43,-14,-19,-24,-19
-9,-9,0,9,-4,-4,-34,-43,-19,-24,-29,-19
-14,-14,0,14,-7,-7,-29,-48,-19,-24,-29,-19
-9,-14,-4,12,-2,-9,-29,-48,-24,-29,-24,-14
-9,-14,-4,12,-2,-9,-29,-48,-24,-29,-24,-14
-4,-14,-9,9,2,-12,-34,-53,-24,-29,-29,-14
-4,-19,-14,12,4,-17,-39,-53,-29,-34,-29,-14
-9,-14,-4,12,-2,-9,-39,-53,-24,-24,-29,-19
-9,-9,0,9,-4,-4,-39,-53,-19,-19,-24,-19
-4,-4,0,4,-2,-2,-34,-58,-14,-14,-24,-9
0,0,0,0,0,0,-29,-58,-14,-14,-19,-9
4,14,9,-9,-2,12,-24,-48,-14,-14,-19,-9
9,24,14,-17,-2,19,-24,-43,-19,-14,-19,-4
9,34,24,-21,-7,29,-39,-43,-9,0,-14,0
19,53,34,-36,-7,43,-43,-43,0,14,-9,9
14,53,39,-34,-12,46,-29,-43,0,9,0,14
9,58,48,-34,-19,53,-19,-48,0,9,9,19
9,68,58,-39,-24,63,-19,-39,9,19,14,19
9,78,68,-43,-29,73,-19,-29,19,29,19,19
29,92,63,-61,-17,78,-19,-24,34,39,29,34
39,102,63,-70,-12,82,-43,-43,29,48,34,39
48,117,68,-82,-9,92,-73,-63,29,58,43,48
48,126,78,-87,-14,102,-122,-107,0,53,39,48
53,141,87,-97,-17,114,-146,-126,-14,29,34,48
63,151,87,-107,-12,119,-161,-131,-24,19,34,48
78,165,87,-122,-4,126,-175,-136,-24,19,24,53
102,190,87,-146,7,139,-195,-136,-19,34,29,68
117,209,92,-163,12,151,-200,-136,-9,48,58,78
122,219,97,-170,12,158,-200,-131,-9,53,58,78
117,190,73,-153,21,131,-180,-122,-9,43,48,82
107,156,48,-131,29,102,-161,-117,-14,34,43,73
73,126,53,-100,9,90,-141,-117,-39,14,19,48
34,92,58,-63,-12,75,-117,-112,-39,0,-4,24
19,73,53,-46,-17,63,-97,-107,-39,-9,-9,14
9,43,34,-26,-12,39,-87,-107,-48,-19,-19,0
4,24,19,-14,-7,21,-78,-107,-53,-29,-29,-9
4,19,14,-12,-4,17,-78,-107,-53,-39,-34,-19
4,19,14,-12,-4,17,-82,-107,-53,-39,-34,-24
0,9,9,-4,-4,9,-82,-107,-58,-39,-39,-24
-4,4,9,0,-7,7,-73,-102,-58,-43,-39,-24
-9,0,9,4,-9,4,-68,-102,-58,-43,-39,-29
-19,-4,14,12,-17,4,-63,-102,-63,-43,-39,-24
-24,-9,14,17,-19,2,-53,-97,-68,-43,-43,-24
-29,-14,14,21,-21,0,-48,-97,-68,-48,-43,-24
-29,-14,14,21,-21,0,-48,-92,-68,-48,-43,-24
-34,-19,14,26,-24,-2,-43,-92,-63,-43,-43,-29
-34,-19,14,26,-24,-2,-43,-92,-58,-39,-39,-29
-34,-19,14,26,-24,-2,-39,-92,-58,-39,-39,-29
-34,-24,9,29,-21,-7,-39,-92,-58,-39,-39,-29
-34,-29,4,31,-19,-12,-34,-92,-63,-43,-39,-29
-29,-34,-4,31,-12,-19,-34,-92,-68,-48,-39,-29
-29,-34,-4,31,-12,-19,-39,-92,-68,-53,-43,-29
-29,-34,-4,31,-12,-19,-43,-92,-68,-58,-48,-29
-19,-29,-9,24,-4,-19,-48,-97,-73,-53,-39,-24
-24,9,34,7,-29,21,-43,-97,-29,-4,9,9
-73,78,151,-2,-112,114,-9,-87,58,92,63,34
-156,151,307,2,-231,229,53,-58,161,175,102,39
-234,229,463,2,-348,346,131,-4,253,244,146,43
-263,322,585,-29,-424,453,165,14,312,322,209,87
-229,414,644,-92,-436,529,136,-4,317,370,287,180
-131,546,678,-207,-405,612,29,-82,302,463,434,380
-4,575,580,-285,-292,578,-4,-92,375,580,575,512
204,287,82,-246,61,185,82,219,673,732,717,585
517,-102,-619,-207,568,-361,131,595,863,819,795,634
819,-439,-1259,-190,1039,-849,146,819,932,902,897,722
1083,-619,-1703,-231,1393,-1161,43,819,863,971,1010,824
1278,-688,-1966,-295,1622,-1327,-195,527,463,824,976,868
1332,-961,-2293,-185,1812,-1627,-346,87,-268,239,517,624
1102,-1229,-2332,63,1717,-1781,-229,-185,-922,-453,-131,165
507,-1342,-1849,417,1178,-1595,209,-112,-1371,-1112,-736,-326
-9,-1381,-1371,695,680,-1376,531,24,-1473,-1400,-1068,-678
-370,-1356,-985,863,307,-1171,697,229,-1239,-1317,-1122,-883
-517,-1307,-790,912,136,-1049,746,336,-1073,-1239,-1132,-985
-483,-1132,-649,807,82,-890,595,200,-951,-1098,-1019,-893
-409,-980,-570,695,80,-775,444,161,-805,-941,-873,-785
-283,-785,-502,534,109,-644,278,151,-619,-712,-639,-585
-180,-610,-429,395,124,-519,219,161,-429,-512,-458,-414
-126,-463,-336,295,104,-400,200,204,-263,-380,-361,-326
-87,-336,-248,212,80,-292,165,258,-112,-229,-234,-244
-43,-244,-200,143,78,-222,126,219,-29,-112,-112,-136
-14,-161,-146,87,65,-153,87,161,19,-34,-39,-48
-9,-97,-87,53,39,-92,78,151,82,9,-9,-24
-9,-73,-63,41,26,-68,68,165,126,48,14,-14
-9,-63,-53,36,21,-58,53,151,131,68,48,9
0,-53,-53,26,26,-53,43,131,131,73,63,29
4,-34,-39,14,21,-36,39,131,141,82,63,34
4,-19,-24,7,14,-21,29,131,165,97,68,39
9,-14,-24,2,17,-19,24,131,175,117,78,39
14,-4,-19,-4,17,-12,24,126,175,122,97,43
19,-4,-24,-7,21,-14,14,126,185,126,97,53
19,4,-14,-12,17,-4,9,131,200,136,102,53
19,4,-14,-12,17,-4,4,136,214,151,117,58
24,9,-14,-17,19,-2,4,136,229,170,131,73
24,9,-14,-17,19,-2,4,141,234,170,136,73
24,19,-4,-21,14,7,4,146,244,180,146,73
34,19,-14,-26,24,2,4,151,253,190,151,78
34,24,-9,-29,21,7,0,156,263,200,161,87
34,24,-9,-29,21,7,0,161,268,204,165,92
39,29,-9,-34,24,9,0,161,278,209,175,102
43,34,-9,-39,26,12,0,170,292,219,175,107
48,39,-9,-43,29,14,0,170,297,229,185,122
48,39,-9,-43,29,14,-4,170,302,239,190,122
48,43,-4,-46,26,19,-4,175,307,244,190,122
53,48,-4,-51,29,21,-4,175,317,248,200,131
53,58,4,-56,24,31,-4,175,322,258,200,131
53,68,14,-61,19,41,-9,175,326,263,214,136
53,73,19,-63,17,46,-9,170,331,268,224,136
53,82,29,-68,12,56,-9,170,336,268,224,141
48,87,39,-68,4,63,-9,165,336,273,224,141
53,97,43,-75,4,70,-9,165,336,278,229,151
48,107,58,-78,-4,82,-9,165,336,278,234,156
43,117,73,-80,-14,95,-9,156,341,283,234,156
34,126,92,-80,-29,109,-9,146,336,287,234,156
29,136,107,-82,-39,122,-9,136,331,283,229,156
19,146,126,-82,-53,136,-9,126,326,273,229,151
9,156,146,-82,-68,151,-4,112,317,268,224,151
0,170,170,-85,-85,170,0,97,297,258,214,151
-14,180,195,-82,-104,187,0,82,287,253,204,146
-29,190,219,-80,-124,204,0,68,268,239,190,136
-43,204,248,-80,-146,226,-4,48,248,224,175,122
-53,214,268,-80,-161,241,-9,24,229,209,161,112
-68,224,292,-78,-180,258,-9,4,200,185,146,107
-82,229,312,-73,-197,270,-9,-24,170,156,126,92
-102,239,341,-68,-222,290,-9,-39,141,131,97,73
-112,248,361,-68,-236,305,-9,-63,117,102,68,53
-122,248,370,-63,-246,309,-9,-82,87,73,43,39
-136,248,385,-56,-261,317,-9,-102,53,48,19,24
-146,244,390,-48,-268,317,-9,-112,24,19,0,4
-146,234,380,-43,-263,307,-4,-122,4,-4,-19,-4
-151,229,380,-39,-265,305,-9,-131,-9,-19,-39,-14
-151,219,370,-34,-261,295,-19,-136,-34,-34,-48,-24
-146,214,361,-34,-253,287,-24,-141,-58,-53,-63,-34
-141,200,341,-29,-241,270,-29,-146,-73,-68,-73,-39
-131,200,331,-34,-231,265,-29,-146,-82,-78,-82,-43
-122,180,302,-29,-212,241,-34,-146,-87,-78,-87,-43
-117,170,287,-26,-202,229,-39,-151,-92,-87,-92,-48
-112,151,263,-19,-187,207,-39,-151,-97,-92,-97,-53
-102,141,244,-19,-173,192,-43,-146,-102,-92,-92,-53
-87,126,214,-19,-151,170,-43,-136,-102,-92,-92,-48
-78,112,190,-17,-134,151,-43,-136,-107,-87,-87,-48
-68,97,165,-14,-117,131,-48,-131,-112,-87,-87,-48
-58,87,146,-14,-102,117,-48,-126,-112,-82,-82,-53
-48,73,122,-12,-85,97,-48,-122,-107,-78,-78,-53
-48,58,107,-4,-78,82,-48,-117,-102,-78,-78,-48
-43,48,92,-2,-68,70,-48,-112,-97,-73,-68,-48
-43,43,87,0,-65,65,-48,-112,-92,-73,-63,-43
-39,34,73,2,-56,53,-48,-102,-87,-73,-58,-43
-34,34,68,0,-51,51,-43,-97,-82,-68,-53,-39
-29,29,58,0,-43,43,-43,-92,-82,-63,-53,-39
-29,29,58,0,-43,43,-43,-92,-82,-63,-48,-29
-24,24,48,0,-36,36,-43,-87,-78,-58,-43,-24
-24,19,43,2,-34,31,-43,-82,-73,-53,-39,-19
-19,19,39,0,-29,29,-43,-82,-73,-48,-34,-19
-19,14,34,2,-26,24,-39,-73,-68,-48,-39,-19
-19,14,34,2,-26,24,-39,-73,-68,-43,-43,-19
-19,9,29,4,-24,19,-39,-68,-63,-43,-39,-19
-19,9,29,4,-24,19,-39,-63,-58,-39,-39,-14
-14,9,24,2,-19,17,-39,-63,-53,-34,-34,-14
-14,9,24,2,-19,17,-39,-63,-53,-34,-34,-14
-14,9,24,2,-19,17,-39,-58,-48,-34,-34,-19
-14,9,24,2,-19,17,-34,-58,-48,-34,-34,-24
-9,9,19,0,-14,14,-34,-58,-43,-34,-34,-24
-9,14,24,-2,-17,19,-34,-58,-39,-29,-34,-24
-14,9,24,2,-19,17,-34,-58,-39,-24,-29,-19
-14,9,24,2,-19,17,-34,-53,-39,-24,-24,-19
-14,4,19,4,-17,12,-29,-53,-39,-24,-24,-19
-14,0,14,7,-14,7,-24,-53,-39,-24,-24,-19
-9,0,9,4,-9,4,-24,-43,-39,-24,-24,-19
-9,0,9,4,-9,4,-24,-43,-39,-24,-24,-24
-9,-4,4,7,-7,0,-24,-39,-34,-24,-24,-24
-9,-4,4,7,-7,0,-24,-34,-29,-24,-24,-24
-9,-4,4,7,-7,0,-24,-34,-29,-24,-24,-24
-9,-4,4,7,-7,0,-29,-34,-29,-19,-24,-24
-4,-4,0,4,-2,-2,-29,-34,-24,-19,-24,-24
0,-4,-4,2,2,-4,-29,-29,-24,-19,-24,-24
0,-4,-4,2,2,-4,-24,-29,-24,-19,-24,-29
0,-4,-4,2,2,-4,-24,-34,-24,-19,-24,-29
0,-4,-4,2,2,-4,-24,-34,-24,-19,-24,-29
0,-4,-4,2,2,-4,-24,-34,-24,-19,-24,-29
-4,-4,0,4,-2,-2,-24,-34,-24,-19,-24,-24
-9,-4,4,7,-7,0,-24,-39,-24,-19,-24,-24
-9,-4,4,7,-7,0,-24,-43,-29,-24,-29,-24
-9,-4,4,7,-7,0,-24,-43,-29,-24,-34,-24
-9,-9,0,9,-4,-4,-29,-43,-34,-29,-34,-29
-9,-9,0,9,-4,-4,-34,-43,-34,-29,-34,-29
-9,-4,4,7,-7,0,-39,-43,-39,-34,-39,-29
-14,-4,9,9,-12,2,-39,-48,-39,-34,-39,-29
-9,-4,4,7,-7,0,-39,-53,-39,-39,-34,-29
-9,-4,4,7,-7,0,-39,-58,-34,-39,-34,-34
-4,-4,0,4,-2,-2,-39,-58,-34,-39,-39,-29
-4,-9,-4,7,0,-7,-39,-53,-39,-43,-39,-24
-4,0,4,2,-4,2,-39,-53,-34,-34,-34,-29
0,9,9,-4,-4,9,-39,-53,-29,-29,-24,-29
4,19,14,-12,-4,17,-34,-58,-19,-24,-24,-19
14,39,24,-26,-4,31,-34,-58,-14,-24,-19,-19
9,53,43,-31,-17,48,-29,-53,-9,-14,-14,-9
9,68,58,-39,-24,63,-29,-48,-4,-4,-14,0
14,73,58,-43,-21,65,-24,-43,-4,0,-4,4
19,78,58,-48,-19,68,-19,-39,-9,9,0,9
19,87,68,-53,-24,78,-19,-34,4,19,9,9
19,97,78,-58,-29,87,-19,-29,19,29,19,9
34,112,78,-73,-21,95,-43,-29,19,34,29,19
39,122,82,-80,-21,102,-82,-63,4,29,29,24
48,136,87,-92,-19,112,-122,-97,-9,24,29,29
53,146,92,-100,-19,119,-146,-131,-24,9,24,29
58,151,92,-104,-17,122,-151,-131,-39,9,19,29
68,165,97,-117,-14,131,-161,-136,-43,9,14,34
92,195,102,-143,-4,148,-185,-141,-39,24,29,48
102,209,107,-156,-2,158,-195,-146,-29,34,48,58
112,224,112,-168,0,168,-195,-141,-29,39,43,58
112,209,97,-161,7,153,-180,-131,-29,34,39,58
107,175,68,-141,19,122,-161,-122,-24,24,43,53
82,146,63,-114,9,104,-141,-117,-39,4,29,39
29,107,78,-68,-24,92,-117,-112,-48,-9,-4,4
4,82,78,-43,-36,80,-102,-107,-58,-19,-19,-14
0,53,53,-26,-26,53,-92,-107,-68,-29,-29,-29
-4,39,43,-17,-24,41,-78,-107,-73,-34,-34,-29
-4,34,39,-14,-21,36,-78,-107,-73,-39,-34,-29
-4,29,34,-12,-19,31,-78,-107,-73,-39,-34,-34
-9,19,29,-4,-19,24,-73,-107,-78,-39,-39,-34
-14,14,29,0,-21,21,-63,-102,-78,-43,-39,-34
-19,9,29,4,-24,19,-58,-102,-78,-43,-39,-39
-24,4,29,9,-26,17,-58,-102,-78,-43,-39,-39
-24,0,24,12,-24,12,-53,-97,-78,-43,-48,-43
-29,-4,24,17,-26,9,-48,-97,-78,-48,-53,-43
-29,-9,19,19,-24,4,-48,-92,-78,-53,-53,-43
-34,-19,14,26,-24,-2,-43,-92,-78,-58,-58,-48
-34,-19,14,26,-24,-2,-43,-92,-78,-58,-58,-48
-34,-19,14,26,-24,-2,-39,-92,-78,-58,-58,-48
-34,-24,9,29,-21,-7,-39,-87,-78,-58,-58,-48
-39,-24,14,31,-26,-4,-34,-82,-78,-58,-58,-48
-39,-24,14,31,-26,-4,-34,-82,-78,-58,-58,-48
-39,-24,14,31,-26,-4,-34,-82,-78,-58,-58,-48
-34,-34,0,34,-17,-17,-34,-82,-87,-73,-63,-58
-34,-24,9,29,-21,-7,-34,-87,-92,-73,-58,-63
-34,9,43,12,-39,26,-43,-87,-58,-19,-9,-14
-63,63,126,0,-95,95,-29,-82,0,63,43,24
-161,136,297,12,-229,217,43,-58,107,136,73,9
-224,209,434,7,-329,322,107,-24,195,204,112,9
-263,292,556,-14,-409,424,156,0,248,278,156,34
-244,361,605,-58,-424,483,165,14,287,336,234,112
-151,614,766,-231,-458,690,4,-165,209,424,405,361
-24,688,712,-331,-368,700,-58,-200,244,551,566,527
185,307,122,-246,31,214,87,239,668,761,746,605
453,-53,-507,-200,480,-280,141,590,907,878,854,668
790,-429,-1220,-180,1005,-824,190,912,1112,1063,1039,805
1044,-678,-1722,-183,1383,-1200,151,1010,1088,1107,1112,873
1322,-673,-1995,-324,1659,-1334,-204,639,649,1029,1166,1019
1390,-858,-2249,-265,1820,-1554,-361,287,58,600,854,878
1112,-1200,-2313,43,1712,-1756,-195,-19,-746,-297,24,292
653,-1351,-2005,348,1329,-1678,112,-82,-1278,-990,-610,-200
43,-1385,-1429,671,736,-1407,488,53,-1371,-1302,-976,-595
-370,-1376,-1005,873,317,-1190,717,200,-1263,-1356,-1127,-854
-488,-1332,-844,910,178,-1088,771,307,-1093,-1278,-1151,-980
-512,-1190,-678,851,82,-934,683,253,-951,-1137,-1063,-936
-439,-1039,-600,739,80,-819,492,200,-844,-980,-912,-824
-336,-844,-507,590,85,-675,317,161,-697,-785,-717,-663
-219,-658,-439,439,109,-549,268,180,-488,-575,-527,-478
-146,-512,-366,329,109,-439,229,200,-317,-424,-400,-356
-112,-370,-258,241,73,-314,195,273,-141,-253,-258,-268
-68,-263,-195,165,63,-229,156,273,-34,-131,-136,-175
-29,-170,-141,100,56,-156,107,185,4,-53,-58,-87
-9,-97,-87,53,39,-92,87,151,68,4,-9,-43
-9,-73,-63,41,26,-68,78,165,117,43,14,-34
-9,-53,-43,31,17,-48,68,156,131,68,43,-14
0,-43,-43,21,21,-43,63,136,131,78,58,4
4,-29,-34,12,19,-31,58,131,141,92,63,14
4,-14,-19,4,12,-17,43,131,170,107,68,19
9,-4,-14,-2,12,-9,34,131,185,126,78,24
14,4,-9,-9,12,-2,34,126,185,131,102,39
19,4,-14,-12,17,-4,29,126,195,136,107,53
19,14,-4,-17,12,4,29,131,209,146,112,53
19,14,-4,-17,12,4,24,136,219,156,122,58
24,19,-4,-21,14,7,24,136,229,170,126,73
24,19,-4,-21,14,7,24,136,234,170,126,73
24,29,4,-26,9,17,24,136,244,180,136,73
34,29,-4,-31,19,12,24,141,253,190,141,78
34,34,0,-34,17,17,14,146,263,200,156,87
34,34,0,-34,17,17,9,151,268,204,165,92
39,39,0,-39,19,19,9,151,278,209,175,102
39,43,4,-41,17,24,9,161,292,219,175,102
39,48,9,-43,14,29,9,156,297,224,185,112
39,48,9,-43,14,29,4,151,302,229,195,112
39,53,14,-46,12,34,4,156,307,234,200,112
43,58,14,-51,14,36,4,156,317,239,209,122
43,68,24,-56,9,46,4,156,322,248,209,122
43,78,34,-61,4,56,0,156,326,253,219,131
43,82,39,-63,2,61,0,156,331,263,224,136
43,92,48,-68,-2,70,0,161,336,268,224,141
39,97,58,-68,-9,78,0,156,336,273,224,141
39,107,68,-73,-14,87,0,151,336,278,229,146
29,117,87,-73,-29,102,0,146,336,278,234,146
24,126,102,-75,-39,114,0,136,336,278,234,146
19,136,117,-78,-48,126,0,131,331,278,239,151
19,146,126,-82,-53,136,0,126,326,273,229,156
9,156,146,-82,-68,151,0,117,317,263,219,151
0,165,165,-82,-82,165,0,102,307,253,214,141
-9,180,190,-85,-100,185,4,87,287,244,204,131
-19,190,209,-85,-114,200,9,68,273,239,190,126
-29,200,229,-85,-129,214,9,48,253,224,175,117
-43,214,258,-85,-151,236,9,29,234,209,161,102
-53,229,283,-87,-168,256,9,4,209,190,141,92
-68,244,312,-87,-190,278,9,-14,180,165,122,82
-82,248,331,-82,-207,290,9,-43,151,136,97,68
-102,253,356,-75,-229,305,9,-58,122,112,68,53
-112,258,370,-73,-241,314,9,-87,97,82,39,34
-122,258,380,-68,-251,319,9,-112,68,53,14,19
-131,263,395,-65,-263,329,4,-131,29,29,-9,0
-136,263,400,-63,-268,331,-4,-141,-4,0,-29,-24
-136,253,390,-58,-263,322,-4,-151,-24,-29,-53,-34
-141,248,390,-53,-265,319,-9,-161,-39,-48,-73,-43
-151,244,395,-46,-273,319,-19,-170,-63,-63,-78,-58
-156,244,400,-43,-278,322,-24,-175,-82,-78,-92,-68
-151,229,380,-39,-265,305,-29,-175,-92,-92,-107,-68
-141,224,366,-41,-253,295,-29,-175,-102,-107,-117,-73
-131,200,331,-34,-231,265,-34,-175,-112,-107,-117,-73
-122,190,312,-34,-217,251,-39,-175,-117,-112,-117,-73
-112,170,283,-29,-197,226,-39,-170,-117,-112,-117,-73
-102,161,263,-29,-183,212,-43,-165,-122,-112,-112,-73
-87,146,234,-29,-161,190,-43,-156,-122,-112,-112,-68
-78,131,209,-26,-143,170,-43,-156,-122,-107,-107,-68
-68,117,185,-24,-126,151,-48,-151,-122,-107,-107,-68
-58,112,170,-26,-114,141,-48,-146,-122,-102,-102,-68
-48,102,151,-26,-100,126,-48,-141,-117,-97,-97,-63
-48,87,136,-19,-92,112,-48,-136,-117,-97,-97,-58
-43,78,122,-17,-82,100,-48,-131,-117,-97,-87,-58
-43,73,117,-14,-80,95,-48,-131,-112,-97,-82,-53
-39,53,92,-7,-65,73,-43,-122,-107,-92,-78,-53
-34,43,78,-4,-56,61,-34,-117,-102,-87,-73,-48
-29,39,68,-4,-48,53,-34,-107,-102,-82,-73,-48
-29,39,68,-4,-48,53,-34,-102,-97,-82,-68,-43
-24,34,58,-4,-41,46,-39,-97,-87,-78,-63,-43
-24,29,53,-2,-39,41,-43,-92,-82,-73,-58,-39
-19,29,48,-4,-34,39,-43,-97,-82,-68,-53,-39
-19,24,43,-2,-31,34,-39,-92,-78,-68,-53,-39
-19,24,43,-2,-31,34,-39,-92,-78,-58,-53,-39
-19,19,39,0,-29,29,-39,-87,-73,-53,-48,-39
-19,19,39,0,-29,29,-39,-78,-68,-48,-48,-29
-14,19,34,-2,-24,26,-39,-73,-63,-43,-43,-24
-14,19,34,-2,-24,26,-39,-73,-63,-43,-43,-24
-14,19,34,-2,-24,26,-39,-68,-58,-43,-43,-24
-14,19,34,-2,-24,26,-34,-68,-58,-43,-43,-24
-9,14,24,-2,-17,19,-34,-63,-53,-43,-43,-24
-4,14,19,-4,-12,17,-34,-58,-48,-39,-43,-24
-4,9,14,-2,-9,12,-34,-58,-48,-34,-39,-19
-4,9,14,-2,-9,12,-34,-53,-48,-34,-39,-19
-4,9,14,-2,-9,12,-34,-53,-43,-34,-43,-19
-9,9,19,0,-14,14,-34,-58,-39,-34,-43,-19
-9,9,19,0,-14,14,-34,-53,-39,-34,-43,-19
-9,9,19,0,-14,14,-34,-53,-39,-34,-43,-24
-9,4,14,2,-12,9,-34,-53,-39,-34,-43,-24
-9,4,14,2,-12,9,-34,-48,-39,-34,-39,-24
-9,4,14,2,-12,9,-29,-43,-39,-34,-34,-24
-9,4,14,2,-12,9,-29,-43,-39,-29,-34,-24
-9,4,14,2,-12,9,-29,-43,-34,-29,-34,-24
-9,4,14,2,-12,9,-34,-39,-29,-29,-34,-24
-9,4,14,2,-12,9,-39,-39,-24,-29,-34,-24
-9,4,14,2,-12,9,-43,-43,-24,-29,-34,-19
-9,4,14,2,-12,9,-43,-43,-24,-29,-34,-19
-9,4,14,2,-12,9,-39,-43,-29,-29,-34,-19
-9,4,14,2,-12,9,-34,-43,-34,-29,-34,-19
-9,4,14,2,-12,9,-34,-48,-34,-29,-34,-24
-9,4,14,2,-12,9,-34,-48,-39,-34,-34,-24
-9,4,14,2,-12,9,-34,-43,-43,-39,-34,-24
-9,4,14,2,-12,9,-34,-43,-48,-43,-34,-24
-14,4,19,4,-17,12,-34,-43,-43,-39,-39,-19
-14,4,19,4,-17,12,-39,-43,-43,-39,-43,-19
-14,4,19,4,-17,12,-39,-48,-34,-29,-39,-19
-9,14,24,-2,-17,19,-39,-48,-29,-24,-34,-14
-9,34,43,-12,-26,39,-39,-48,-24,-19,-34,-14
-4,58,63,-26,-34,61,-39,-43,-19,-14,-29,-4
0,63,63,-31,-31,63,-43,-48,-14,-4,-19,4
9,68,58,-39,-24,63,-48,-53,-9,0,-9,19
4,78,73,-41,-34,75,-43,-48,0,9,-9,24
0,87,87,-43,-43,87,-39,-48,9,19,-9,29
9,102,92,-56,-41,97,-39,-39,14,24,0,29
19,117,97,-68,-39,107,-39,-29,19,29,9,29
29,126,97,-78,-34,112,-63,-39,14,29,14,34
34,136,102,-85,-34,119,-97,-73,0,19,9,34
39,146,107,-92,-34,126,-136,-112,-19,14,9,39
43,156,112,-100,-34,134,-156,-141,-34,0,4,39
43,161,117,-102,-36,139,-161,-141,-48,-4,0,39
48,175,126,-112,-39,151,-170,-146,-53,-9,-4,43
73,204,131,-139,-29,168,-190,-146,-48,4,9,58
82,219,136,-151,-26,178,-195,-146,-39,14,29,68
92,224,131,-158,-19,178,-195,-141,-39,19,24,68
92,200,107,-146,-7,153,-180,-131,-39,14,19,68
82,165,82,-124,0,124,-161,-126,-39,4,24,58
53,136,82,-95,-14,109,-141,-126,-58,-14,9,39
14,102,87,-58,-36,95,-112,-122,-58,-29,-24,14
4,82,78,-43,-36,80,-92,-117,-58,-39,-39,4
0,48,48,-24,-24,48,-87,-112,-68,-48,-48,-14
-4,29,34,-12,-19,31,-78,-107,-73,-53,-53,-19
-9,29,39,-9,-24,34,-78,-107,-73,-58,-53,-19
-14,29,43,-7,-29,36,-78,-107,-73,-58,-53,-24
-19,19,39,0,-29,29,-73,-107,-78,-58,-58,-24
-24,14,39,4,-31,26,-63,-102,-78,-63,-58,-24
-29,9,39,9,-34,24,-58,-102,-78,-63,-63,-29
-34,4,39,14,-36,21,-58,-102,-78,-63,-68,-29
-34,0,34,17,-34,17,-53,-97,-78,-63,-73,-34
-39,-4,34,21,-36,14,-48,-97,-78,-68,-73,-34
-39,-4,34,21,-36,14,-48,-92,-78,-68,-73,-34
-43,-9,34,26,-39,12,-43,-92,-78,-68,-78,-39
-43,-14,29,29,-36,7,-43,-92,-78,-68,-78,-39
-43,-19,24,31,-34,2,-39,-92,-78,-68,-78,-39
-39,-24,14,31,-26,-4,-39,-92,-78,-68,-78,-39
-39,-24,14,31,-26,-4,-34,-92,-78,-68,-78,-39
-39,-24,14,31,-26,-4,-34,-92,-78,-73,-78,-39
-39,-24,14,31,-26,-4,-34,-92,-78,-78,-78,-39
-34,-34,0,34,-17,-17,-39,-97,-87,-87,-87,-43
-34,-24,9,29,-21,-7,-43,-107,-92,-82,-87,-43
-39,24,63,7,-51,43,-48,-117,-63,-39,-43,-9
-73,92,165,-9,-119,129,-29,-122,-9,34,4,14
-170,170,341,0,-256,256,34,-102,78,97,24,0
-234,248,483,-7,-358,366,87,-73,146,156,53,0
-258,341,600,-41,-429,470,117,-73,185,234,112,34
-224,419,644,-97,-434,531,107,-82,209,297,204,122
-122,634,756,-256,-439,695,-43,-224,165,424,414,395
14,668,653,-341,-319,661,-97,-219,234,590,614,585
244,263,19,-253,112,141,53,248,712,854,839,702
531,-122,-653,-204,592,-387,112,629,1005,1024,990,805
844,-478,-1322,-183,1083,-900,156,941,1220,1239,1200,966
1073,-707,-1781,-183,1427,-1244,112,1029,1205,1312,1298,1058
1312,-732,-2044,-290,1678,-1388,-209,692,741,1171,1293,1151
1342,-946,-2288,-197,1815,-1617,-331,375,126,678,922,956
1024,-1268,-2293,122,1659,-1781,-131,97,-678,-283,53,351
527,-1400,-1927,436,1227,-1664,209,63,-1210,-1039,-619,-161
-19,-1415,-1395,717,688,-1405,522,170,-1273,-1307,-976,-570
-370,-1385,-1015,878,322,-1200,688,287,-1137,-1317,-1117,-844
-463,-1312,-849,888,192,-1080,722,361,-1010,-1254,-1141,-951
-463,-1141,-678,802,107,-910,614,273,-912,-1127,-1054,-888
-390,-1010,-619,700,114,-814,448,234,-780,-961,-893,-771
-287,-834,-546,561,129,-690,297,209,-610,-756,-688,-605
-190,-644,-453,417,131,-549,258,219,-419,-556,-502,-429
-136,-492,-356,314,109,-424,229,229,-268,-414,-380,-317
-102,-351,-248,226,73,-300,190,283,-107,-244,-244,-234
-58,-244,-185,151,63,-214,146,263,-14,-122,-126,-146
-29,-156,-126,92,48,-141,97,180,19,-43,-53,-58
-19,-87,-68,53,24,-78,78,151,78,14,-9,-14
-19,-63,-43,41,12,-53,63,161,122,48,14,-4
-19,-43,-24,31,2,-34,48,146,131,68,43,14
-4,-34,-29,19,12,-31,43,131,131,73,58,34
4,-19,-24,7,14,-21,39,131,141,82,63,43
4,-9,-14,2,9,-12,29,131,165,97,68,48
9,-4,-14,-2,12,-9,24,131,175,117,78,53
14,4,-9,-9,12,-2,24,122,175,122,97,63
19,4,-14,-12,17,-4,19,117,185,126,97,73
19,14,-4,-17,12,4,19,117,200,136,102,68
19,14,-4,-17,12,4,14,117,209,146,112,68
24,19,-4,-21,14,7,9,117,219,161,122,82
24,19,-4,-21,14,7,4,117,224,161,126,82
24,34,9,-29,7,21,4,117,234,165,136,87
34,39,4,-36,14,21,4,122,244,170,141,97
34,43,9,-39,12,26,0,126,253,180,146,107
34,43,9,-39,12,26,0,131,258,185,146,112
39,48,9,-43,14,29,0,131,268,190,156,122
39,53,14,-46,12,34,0,141,283,200,156,122
39,58,19,-48,9,39,0,141,287,209,165,131
39,58,19,-48,9,39,-4,141,292,219,175,131
39,63,24,-51,7,43,-4,146,297,224,180,126
43,68,24,-56,9,46,-4,146,307,229,190,131
43,78,34,-61,4,56,-4,146,312,244,190,131
43,87,43,-65,0,65,-9,146,317,253,200,141
43,92,48,-68,-2,70,-9,141,322,258,204,146
43,102,58,-73,-7,80,-9,141,326,258,204,151
39,107,68,-73,-14,87,-9,136,326,263,204,151
39,117,78,-78,-19,97,-9,131,326,268,209,156
29,126,97,-78,-34,112,-9,126,326,268,214,156
24,136,112,-80,-43,124,-9,117,326,268,214,156
14,151,136,-82,-61,143,-9,107,317,268,214,156
9,165,156,-87,-73,161,-9,97,307,263,200,156
0,175,175,-87,-87,175,-9,87,292,253,190,151
-9,185,195,-87,-102,190,-9,73,278,244,185,141
-19,200,219,-90,-119,209,-9,58,258,224,175,122
-29,209,239,-90,-134,224,-9,39,244,209,161,107
-39,219,258,-90,-148,239,-9,19,219,190,141,97
-53,234,287,-90,-170,261,-9,0,195,170,122,82
-58,244,302,-92,-180,273,-9,-24,170,151,102,68
-68,253,322,-92,-195,287,-9,-43,141,126,82,53
-82,258,341,-87,-212,300,-9,-78,107,92,58,34
-102,263,366,-80,-234,314,-9,-97,73,63,29,14
-112,273,385,-80,-248,329,-14,-122,48,29,-4,-14
-122,278,400,-78,-261,339,-19,-141,19,-4,-34,-39
-136,278,414,-70,-275,346,-19,-161,-14,-29,-63,-53
-146,273,419,-63,-283,346,-24,-170,-43,-58,-87,-73
-146,263,409,-58,-278,336,-19,-180,-63,-87,-112,-87
-151,258,409,-53,-280,334,-19,-190,-78,-107,-131,-102
-156,248,405,-46,-280,326,-29,-200,-102,-122,-136,-112
-156,244,400,-43,-278,322,-34,-204,-122,-136,-151,-117
-151,229,380,-39,-265,305,-39,-204,-131,-146,-161,-117
-141,224,366,-41,-253,295,-39,-204,-141,-156,-165,-122
-131,200,331,-34,-231,265,-43,-200,-146,-156,-165,-122
-122,190,312,-34,-217,251,-48,-195,-146,-161,-165,-122
-112,170,283,-29,-197,226,-48,-190,-146,-156,-161,-117
-102,161,263,-29,-183,212,-53,-185,-151,-151,-151,-112
-92,146,239,-26,-165,192,-53,-170,-151,-151,-146,-107
-87,131,219,-21,-153,175,-53,-165,-151,-146,-136,-107
-78,117,195,-19,-136,156,-58,-161,-146,-146,-136,-102
-68,112,180,-21,-124,146,-58,-156,-141,-141,-131,-97
-58,102,161,-21,-109,131,-58,-151,-136,-131,-126,-92
-58,87,146,-14,-102,117,-58,-146,-136,-126,-126,-87
-53,78,131,-12,-92,104,-58,-141,-136,-122,-117,-87
-53,73,126,-9,-90,100,-58,-141,-131,-117,-112,-82
-48,58,107,-4,-78,82,-58,-131,-126,-112,-107,-82
-43,53,97,-4,-70,75,-53,-126,-122,-107,-102,-78
-39,48,87,-4,-63,68,-53,-122,-122,-102,-102,-78
-39,48,87,-4,-63,68,-53,-122,-117,-102,-97,-73
-34,43,78,-4,-56,61,-53,-117,-107,-92,-92,-73
-34,39,73,-2,-53,56,-53,-112,-102,-82,-87,-68
-29,39,68,-4,-48,53,-53,-112,-102,-78,-82,-68
-29,34,63,-2,-46,48,-48,-102,-97,-78,-82,-68
-29,34,63,-2,-46,48,-48,-102,-97,-73,-82,-68
-29,29,58,0,-43,43,-48,-97,-92,-73,-78,-68
-29,29,58,0,-43,43,-48,-87,-82,-68,-73,-63
-24,29,53,-2,-39,41,-48,-82,-73,-63,-63,-63
-24,29,53,-2,-39,41,-48,-82,-73,-63,-63,-63
-24,29,53,-2,-39,41,-48,-78,-68,-63,-63,-63
-24,29,53,-2,-39,41,-43,-78,-68,-63,-63,-63
-19,24,43,-2,-31,34,-43,-73,-63,-63,-63,-63
-19,24,43,-2,-31,34,-43,-68,-58,-63,-63,-63
-24,19,43,2,-34,31,-43,-68,-58,-63,-58,-58
-24,19,43,2,-34,31,-43,-63,-58,-63,-53,-53
-24,19,43,2,-34,31,-43,-63,-53,-63,-53,-48
-24,19,43,2,-34,31,-43,-63,-48,-58,-48,-48
-19,19,39,0,-29,29,-43,-53,-48,-53,-43,-48
-19,24,43,-2,-31,34,-43,-53,-48,-48,-43,-53
-19,24,43,-2,-31,34,-43,-53,-48,-43,-43,-53
-19,24,43,-2,-31,34,-48,-53,-43,-43,-43,-53
-19,24,43,-2,-31,34,-48,-53,-39,-43,-43,-53
-19,19,39,0,-29,29,-48,-53,-39,-39,-43,-53
-19,14,34,2,-26,24,-48,-53,-34,-39,-43,-53
-19,14,34,2,-26,24,-43,-48,-39,-43,-48,-53
-19,14,34,2,-26,24,-39,-48,-43,-48,-53,-53
-19,14,34,2,-26,24,-43,-53,-43,-48,-53,-48
-19,14,34,2,-26,24,-43,-53,-43,-48,-53,-48
-19,19,39,0,-29,29,-43,-53,-43,-48,-48,-48
-19,24,43,-2,-31,34,-43,-53,-43,-48,-43,-48
-19,24,43,-2,-31,34,-43,-58,-39,-48,-43,-53
-19,24,43,-2,-31,34,-43,-58,-39,-53,-43,-53
-14,24,39,-4,-26,31,-43,-53,-39,-48,-43,-53
-9,24,34,-7,-21,29,-43,-53,-39,-43,-43,-53
-4,48,53,-21,-29,51,-48,-53,-29,-34,-39,-43
4,73,68,-39,-31,70,-58,-53,-24,-29,-34,-39
4,73,68,-39,-31,70,-58,-58,-19,-24,-29,-39
9,87,78,-48,-34,82,-58,-58,-14,-19,-24,-34
14,97,82,-56,-34,90,-53,-48,-9,-14,-19,-24
19,107,87,-63,-34,97,-48,-39,-9,-9,-19,-19
19,126,107,-73,-43,117,-48,-39,0,0,-9,-19
19,146,126,-82,-53,136,-48,-39,9,9,0,-19
29,151,122,-90,-46,136,-63,-43,9,9,4,-14
34,156,122,-95,-43,139,-92,-68,0,9,4,-9
39,165,126,-102,-43,146,-126,-92,-9,9,9,-9
39,175,136,-107,-48,156,-170,-136,-39,-4,0,-9
43,185,141,-114,-48,163,-180,-151,-53,-19,-4,-9
53,190,136,-122,-41,163,-180,-151,-63,-19,-4,-9
63,204,141,-134,-39,173,-185,-156,-63,-14,-4,-4
82,229,146,-156,-31,187,-195,-156,-58,4,9,9
92,234,141,-163,-24,187,-195,-156,-48,14,29,19
92,229,136,-161,-21,183,-190,-151,-48,14,19,19
82,200,117,-141,-17,158,-175,-141,-48,4,9,19
68,165,97,-117,-14,131,-161,-136,-53,-4,4,4
39,136,97,-87,-29,117,-141,-131,-78,-24,-19,-19
4,102,97,-53,-46,100,-117,-122,-78,-39,-43,-43
-4,87,92,-41,-48,90,-102,-117,-78,-53,-48,-48
-9,63,73,-26,-41,68,-97,-117,-87,-68,-58,-58
-14,48,63,-17,-39,56,-87,-117,-92,-73,-63,-58
-14,48,63,-17,-39,56,-87,-117,-92,-78,-63,-58
-14,43,58,-14,-36,51,-87,-117,-92,-78,-63,-63
-19,29,48,-4,-34,39,-82,-117,-97,-78,-68,-63
-24,24,48,0,-36,36,-73,-112,-97,-82,-68,-63
-29,19,48,4,-39,34,-68,-112,-97,-82,-68,-68
-34,19,53,7,-43,36,-68,-112,-97,-82,-68,-68
-34,19,53,7,-43,36,-63,-107,-97,-82,-73,-73
-39,14,53,12,-46,34,-58,-107,-97,-87,-73,-73
-39,14,53,12,-46,34,-58,-102,-97,-87,-73,-73
-43,4,48,19,-46,26,-53,-102,-97,-87,-78,-78
-43,0,43,21,-43,21,-53,-102,-97,-87,-78,-78
-43,0,43,21,-43,21,-48,-107,-97,-87,-78,-82
-43,-4,39,24,-41,17,-48,-112,-97,-87,-78,-87
-48,-4,43,26,-46,19,-43,-112,-97,-87,-78,-87
-48,-4,43,26,-46,19,-43,-112,-97,-87,-78,-87
-48,-4,43,26,-46,19,-43,-112,-97,-87,-78,-87
-48,-4,43,26,-46,19,-43,-112,-97,-87,-78,-87
-53,24,78,14,-65,51,-43,-122,-97,-73,-73,-82
-73,87,161,-7,-117,124,-34,-126,-48,-14,-29,-48
-122,165,287,-21,-204,226,-4,-141,4,53,14,-39
-204,248,453,-21,-329,351,53,-136,73,107,43,-48
-248,326,575,-39,-412,451,92,-102,131,175,92,-19
-244,419,663,-87,-453,541,87,-102,156,253,161,48
-175,492,668,-158,-422,580,58,-97,204,356,297,185
-43,605,649,-280,-346,627,-48,-151,234,502,502,429
126,522,395,-324,-134,458,-48,-39,424,717,727,614
380,122,-258,-251,319,-68,73,395,839,966,951,741
663,-239,-902,-212,783,-570,92,717,1049,1102,1073,829
936,-546,-1483,-195,1210,-1015,78,888,1137,1234,1220,956
1117,-732,-1849,-192,1483,-1290,-14,849,951,1176,1220,990
1229,-805,-2034,-212,1632,-1420,-244,517,434,902,1073,966
1127,-1063,-2191,-31,1659,-1627,-268,190,-287,180,492,619
741,-1317,-2059,287,1400,-1688,-24,29,-932,-649,-278,58
239,-1376,-1615,568,927,-1495,317,58,-1268,-1180,-805,-419
-185,-1361,-1176,773,495,-1268,541,151,-1259,-1342,-1058,-756
-429,-1293,-863,861,217,-1078,634,268,-1078,-1263,-1093,-912
-458,-1200,-741,829,141,-971,610,287,-966,-1190,-1083,-966
-414,-1024,-610,719,97,-817,483,185,-844,-1019,-946,-844
-331,-873,-541,602,104,-707,356,180,-697,-834,-775,-707
-224,-678,-453,451,114,-566,224,180,-512,-619,-561,-527
-141,-502,-361,322,109,-431,200,200,-322,-434,-400,-375
-97,-366,-268,231,85,-317,180,209,-175,-307,-302,-292
-68,-248,-180,158,56,-214,146,229,-43,-161,-175,-214
-39,-165,-126,102,43,-146,107,185,14,-68,-78,-126
-24,-92,-68,58,21,-80,68,122,39,-14,-29,-58
-19,-39,-19,29,0,-29,58,117,92,19,0,-39
-19,-24,-4,21,-7,-14,48,136,126,48,24,-34
-19,-14,4,17,-12,-4,39,126,131,63,53,-14
-9,-4,4,7,-7,0,34,112,131,63,63,0
-4,9,14,-2,-9,12,29,112,141,73,63,0
-4,19,24,-7,-14,21,19,112,165,87,68,0
0,19,19,-9,-9,19,14,112,175,107,73,4
4,24,19,-14,-7,21,14,107,175,112,87,14
9,24,14,-17,-2,19,9,102,185,117,87,24
9,34,24,-21,-7,29,9,102,200,126,92,24
9,34,24,-21,-7,29,4,107,204,136,102,29
14,39,24,-26,-4,31,4,107,209,151,112,43
14,39,24,-26,-4,31,4,112,214,151,117,43
14,48,34,-31,-9,41,4,117,224,161,126,43
24,48,24,-36,0,36,9,122,234,170,131,48
24,53,29,-39,-2,41,9,126,244,180,141,58
24,53,29,-39,-2,41,9,131,248,185,146,63
29,58,29,-43,0,43,9,131,258,190,156,73
29,63,34,-46,-2,48,9,141,273,200,156,73
29,68,39,-48,-4,53,9,141,278,209,165,82
29,68,39,-48,-4,53,4,141,283,219,175,82
29,73,43,-51,-7,58,4,146,287,224,180,82
29,73,43,-51,-7,58,4,146,302,229,190,92
24,78,53,-51,-14,65,4,146,312,239,190,92
24,87,63,-56,-19,75,0,146,317,244,200,102
24,92,68,-58,-21,80,0,141,322,248,204,107
24,107,82,-65,-29,95,0,141,322,248,204,112
19,117,97,-68,-39,107,0,136,317,253,204,112
19,126,107,-73,-43,117,0,131,317,258,209,117
9,136,126,-73,-58,131,0,126,317,258,214,117
9,146,136,-78,-63,141,4,117,317,258,214,112
4,156,151,-80,-73,153,9,107,307,258,214,107
0,165,165,-82,-82,165,9,97,297,253,200,107
-9,175,185,-82,-97,180,9,87,287,244,190,102
-19,185,204,-82,-112,195,9,73,278,229,180,87
-29,200,229,-85,-129,214,9,58,258,209,165,73
-43,209,253,-82,-148,231,9,39,244,200,151,68
-58,219,278,-80,-168,248,9,19,219,180,131,58
-73,229,302,-78,-187,265,9,0,190,151,107,43
-82,234,317,-75,-200,275,9,-24,161,122,82,34
-97,244,341,-73,-219,292,9,-43,131,97,63,19
-112,248,361,-68,-236,305,9,-73,102,68,39,-4
-131,253,385,-61,-258,319,9,-87,68,43,9,-24
-141,258,400,-58,-270,329,9,-112,39,14,-19,-43
-146,253,400,-53,-273,326,9,-131,9,-14,-48,-58
-156,248,405,-46,-280,326,9,-151,-24,-39,-78,-73
-165,244,409,-39,-287,326,4,-165,-53,-68,-97,-92
-165,234,400,-34,-283,317,4,-180,-73,-92,-117,-102
-170,234,405,-31,-287,319,0,-190,-87,-107,-131,-112
-170,229,400,-29,-285,314,-9,-195,-112,-122,-136,-122
-165,224,390,-29,-278,307,-19,-195,-126,-131,-146,-122
-161,209,370,-24,-265,290,-29,-195,-131,-136,-151,-117
-146,204,351,-29,-248,278,-29,-190,-141,-146,-151,-117
-131,180,312,-24,-222,246,-34,-185,-146,-146,-146,-112
-122,170,292,-24,-207,231,-39,-185,-146,-151,-146,-107
-112,151,263,-19,-187,207,-39,-180,-146,-151,-146,-102
-102,141,244,-19,-173,192,-43,-175,-146,-146,-136,-102
-87,126,214,-19,-151,170,-43,-165,-141,-141,-131,-97
-78,112,190,-17,-134,151,-43,-165,-141,-136,-126,-92
-68,97,165,-14,-117,131,-48,-161,-141,-136,-126,-87
-58,92,151,-17,-104,122,-48,-156,-141,-126,-117,-87
-48,82,131,-17,-90,107,-48,-151,-136,-117,-107,-82
-48,68,117,-9,-82,92,-48,-146,-136,-117,-107,-78
-43,58,102,-7,-73,80,-48,-141,-136,-112,-97,-78
-43,53,97,-4,-70,75,-53,-141,-131,-107,-92,-73
-39,43,82,-2,-61,63,-58,-131,-126,-102,-87,-73
-34,43,78,-4,-56,61,-53,-126,-122,-97,-82,-68
-29,39,68,-4,-48,53,-53,-122,-122,-92,-82,-68
-29,39,68,-4,-48,53,-53,-122,-117,-92,-82,-63
-24,34,58,-4,-41,46,-53,-117,-107,-87,-82,-63
-29,29,58,0,-43,43,-48,-112,-102,-82,-78,-58
-29,29,58,0,-43,43,-43,-112,-102,-78,-73,-58
-29,24,53,2,-41,39,-39,-102,-92,-78,-73,-58
-29,24,53,2,-41,39,-39,-102,-87,-73,-73,-58
-24,19,43,2,-34,31,-43,-97,-82,-73,-68,-58
-19,19,39,0,-29,29,-48,-92,-78,-68,-68,-53
-14,24,39,-4,-26,31,-48,-87,-73,-63,-58,-48
-14,29,43,-7,-29,36,-48,-82,-73,-63,-53,-43
-14,29,43,-7,-29,36,-48,-78,-68,-63,-53,-43
-14,29,43,-7,-29,36,-43,-78,-68,-63,-53,-43
-14,24,39,-4,-26,31,-43,-78,-63,-63,-58,-43
-19,24,43,-2,-31,34,-43,-78,-58,-58,-63,-43
-24,19,43,2,-34,31,-43,-78,-58,-53,-58,-39
-24,19,43,2,-34,31,-43,-73,-58,-53,-53,-39
-24,19,43,2,-34,31,-43,-73,-53,-48,-53,-39
-24,19,43,2,-34,31,-43,-73,-48,-43,-53,-39
-19,19,39,0,-29,29,-43,-63,-48,-43,-53,-39
-19,19,39,0,-29,29,-43,-63,-48,-43,-53,-43
-19,14,34,2,-26,24,-43,-63,-48,-43,-53,-43
-19,14,34,2,-26,24,-43,-63,-48,-43,-53,-43
-19,14,34,2,-26,24,-39,-63,-48,-43,-48,-43
-19,14,34,2,-26,24,-39,-63,-48,-39,-43,-43
-19,14,34,2,-26,24,-39,-63,-43,-39,-43,-43
-19,14,34,2,-26,24,-39,-58,-43,-39,-43,-43
-19,14,34,2,-26,24,-39,-58,-43,-43,-43,-43
-19,14,34,2,-26,24,-43,-63,-43,-48,-43,-39
-19,14,34,2,-26,24,-43,-63,-43,-48,-43,-39
-19,14,34,2,-26,24,-43,-63,-43,-48,-43,-39
-19,14,34,2,-26,24,-43,-63,-43,-48,-43,-39
-19,14,34,2,-26,24,-43,-68,-43,-48,-43,-43
-19,14,34,2,-26,24,-43,-68,-43,-48,-43,-43
-19,14,34,2,-26,24,-43,-63,-39,-43,-43,-43
-19,19,39,0,-29,29,-39,-58,-34,-39,-39,-43
-19,29,48,-4,-34,39,-34,-53,-24,-29,-34,-39
-14,48,63,-17,-39,56,-39,-53,-24,-29,-34,-29
-9,68,78,-29,-43,73,-39,-58,-19,-24,-24,-14
0,78,78,-39,-39,78,-39,-58,-14,-14,-19,-19
4,87,82,-46,-39,85,-39,-58,-14,-9,-14,-24
4,92,87,-48,-41,90,-39,-53,0,-4,-9,-9
9,97,87,-53,-39,92,-39,-48,9,0,-9,0
19,117,97,-68,-39,107,-39,-48,14,9,0,4
29,136,107,-82,-39,122,-39,-48,19,19,9,9
29,141,112,-85,-41,126,-73,-68,9,19,9,9
29,146,117,-87,-43,131,-112,-102,-9,9,4,9
29,156,126,-92,-48,141,-151,-136,-34,4,0,9
34,165,131,-100,-48,148,-165,-151,-53,-9,-4,9
43,170,126,-107,-41,148,-170,-151,-63,-9,-4,9
58,185,126,-122,-34,156,-180,-156,-63,-9,-4,14
82,209,126,-146,-21,168,-195,-156,-58,4,9,34
92,219,126,-156,-17,173,-195,-156,-48,14,29,48
92,219,126,-156,-17,173,-190,-151,-43,14,19,48
82,190,107,-136,-12,148,-170,-141,-39,4,9,48
68,156,87,-112,-9,122,-151,-136,-43,-4,4,34
34,126,92,-80,-29,109,-131,-136,-68,-24,-19,9
-4,92,97,-43,-51,95,-107,-126,-73,-39,-43,-14
-14,73,87,-29,-51,80,-92,-117,-78,-48,-48,-24
-14,43,58,-14,-36,51,-87,-117,-87,-58,-58,-43
-14,29,43,-7,-29,36,-78,-117,-92,-63,-63,-48
-14,29,43,-7,-29,36,-78,-117,-92,-68,-63,-48
-14,29,43,-7,-29,36,-78,-117,-92,-68,-63,-53
-19,19,39,0,-29,29,-73,-117,-97,-68,-68,-53
-24,14,39,4,-31,26,-63,-112,-97,-73,-68,-53
-29,9,39,9,-34,24,-58,-112,-97,-73,-68,-58
-34,4,39,14,-36,21,-58,-112,-97,-73,-68,-58
-34,0,34,17,-34,17,-53,-107,-97,-73,-73,-63
-39,-4,34,21,-36,14,-48,-107,-97,-78,-73,-63
-39,-4,34,21,-36,14,-48,-102,-97,-78,-73,-63
-43,-9,34,26,-39,12,-43,-102,-97,-78,-78,-68
-43,-9,34,26,-39,12,-43,-102,-97,-78,-78,-68
-43,-9,34,26,-39,12,-39,-102,-97,-78,-78,-68
-43,-14,29,29,-36,7,-39,-102,-92,-78,-78,-63
-48,-14,34,31,-41,9,-34,-102,-87,-78,-78,-58
-48,-14,34,31,-41,9,-34,-102,-87,-78,-78,-58
-48,-14,34,31,-41,9,-34,-102,-87,-78,-78,-58
-48,-14,34,31,-41,9,-34,-102,-87,-78,-78,-58
-53,4,58,24,-56,31,-34,-107,-82,-63,-68,-53
-73,63,136,4,-104,100,-29,-112,-39,-9,-24,-29
-122,141,263,-9,-192,202,0,-112,29,73,24,-14
-204,219,424,-7,-314,322,58,-102,112,131,63,-9
-253,297,551,-21,-402,424,107,-82,175,185,112,9
-253,395,649,-70,-451,522,117,-73,214,278,185,73
-195,478,673,-141,-434,575,87,-73,239,356,292,190
-73,595,668,-261,-370,631,-19,-141,263,488,483,424
82,531,448,-307,-183,490,-29,-63,400,658,663,575
322,151,-170,-236,246,-9,87,356,780,858,844,663
619,-209,-829,-204,724,-519,112,688,976,966,951,736
907,-522,-1429,-192,1168,-976,97,863,1039,1068,1073,849
1112,-707,-1820,-202,1466,-1263,-4,814,873,1029,1083,893
1249,-775,-2025,-236,1637,-1400,-253,468,336,756,936,878
1176,-1034,-2210,-70,1693,-1622,-302,141,-351,131,424,575
824,-1288,-2113,231,1468,-1700,-87,-58,-990,-644,-302,34
292,-1351,-1644,529,968,-1498,268,-14,-1356,-1215,-834,-414
-165,-1342,-1176,753,505,-1259,522,97,-1356,-1385,-1078,-727
-429,-1288,-858,858,214,-1073,629,219,-1156,-1298,-1107,-902
-478,-1210,-732,844,126,-971,629,278,-1005,-1200,-1088,-956
-434,-1034,-600,734,82,-817,488,175,-883,-1039,-956,-839
-356,-883,-527,619,85,-705,356,165,-727,-858,-785,-707
-248,-688,-439,468,95,-563,239,170,-531,-639,-570,-527
-161,-512,-351,336,95,-431,209,200,-341,-448,-400,-370
-117,-375,-258,246,70,-317,190,229,-190,-317,-292,-278
-87,-248,-161,168,36,-204,151,248,-58,-170,-175,-195
-48,-156,-107,102,29,-131,107,195,4,-73,-78,-107
-24,-92,-68,58,21,-80,68,131,34,-19,-24,-43
-19,-48,-29,34,4,-39,58,122,87,14,0,-24
-24,-34,-9,29,-7,-21,48,136,126,48,24,-14
-29,-24,4,26,-17,-9,39,126,131,68,53,4
-19,-19,0,19,-9,-9,34,112,131,73,63,19
-14,-9,4,12,-9,-2,29,112,141,82,63,24
-14,0,14,7,-14,7,19,112,165,92,68,29
-9,4,14,2,-12,9,14,112,175,107,78,34
-4,14,19,-4,-12,17,14,107,175,112,97,43
0,14,14,-7,-7,14,9,107,185,117,97,53
0,24,24,-12,-12,24,9,112,200,126,102,53
0,24,24,-12,-12,24,4,117,209,136,112,58
4,34,29,-19,-12,31,4,117,219,151,122,73
4,39,34,-21,-14,36,4,117,224,151,126,73
4,48,43,-26,-19,46,4,117,234,165,136,73
14,48,34,-31,-9,41,4,122,244,180,141,78
14,53,39,-34,-12,46,0,126,253,190,151,82
14,53,39,-34,-12,46,0,131,258,195,156,82
19,58,39,-39,-9,48,0,131,268,200,165,92
19,63,43,-41,-12,53,0,141,283,209,165,92
19,68,48,-43,-14,58,4,141,292,219,175,102
19,68,48,-43,-14,58,4,141,302,229,185,102
19,73,53,-46,-17,63,4,146,307,234,190,102
24,78,53,-51,-14,65,4,146,317,239,200,112
24,87,63,-56,-19,75,4,146,322,248,200,112
24,97,73,-61,-24,85,0,146,326,253,209,122
24,102,78,-63,-26,90,0,141,331,258,214,126
24,112,87,-68,-31,100,0,141,336,258,214,131
19,117,97,-68,-39,107,4,136,336,263,214,131
19,126,107,-73,-43,117,9,131,336,268,219,136
9,136,126,-73,-58,131,9,126,336,268,224,136
4,146,141,-75,-68,143,9,117,336,268,224,136
-4,156,161,-75,-82,158,4,107,326,268,224,136
-9,165,175,-78,-92,170,0,97,317,263,209,136
-19,175,195,-78,-107,185,0,87,307,253,200,131
-29,185,214,-78,-122,200,0,73,297,244,195,122
-39,200,239,-80,-139,219,4,63,278,229,185,112
-48,209,258,-80,-153,234,9,48,263,219,170,107
-58,219,278,-80,-168,248,9,29,239,200,151,97
-73,234,307,-80,-190,270,9,9,214,180,131,82
-82,244,326,-80,-204,285,9,-14,190,161,112,73
-97,253,351,-78,-224,302,9,-34,161,136,92,63
-112,258,370,-73,-241,314,9,-63,131,107,68,43
-131,263,395,-65,-263,329,9,-78,102,82,39,24
-141,268,409,-63,-275,339,4,-102,73,53,4,4
-151,268,419,-58,-285,344,0,-122,39,24,-24,-9
-165,268,434,-51,-300,351,0,-141,4,0,-48,-24
-175,263,439,-43,-307,351,-4,-151,-24,-29,-68,-43
-175,253,429,-39,-302,341,-4,-161,-48,-58,-87,-58
-180,248,429,-34,-305,339,-9,-170,-68,-78,-102,-73
-180,239,419,-29,-300,329,-19,-180,-92,-92,-107,-82
-175,234,409,-29,-292,322,-24,-185,-112,-107,-122,-87
-165,219,385,-26,-275,302,-29,-185,-122,-117,-131,-82
-151,214,366,-31,-258,290,-29,-185,-131,-126,-136,-82
-141,190,331,-24,-236,261,-34,-185,-136,-126,-136,-82
-131,180,312,-24,-222,246,-39,-185,-136,-131,-136,-82
-122,161,283,-19,-202,222,-39,-180,-136,-131,-131,-82
-112,151,263,-19,-187,207,-43,-175,-141,-131,-122,-82
-97,136,234,-19,-165,185,-48,-165,-141,-131,-122,-73
-87,122,209,-17,-148,165,-53,-165,-141,-126,-117,-68
-78,107,185,-14,-131,146,-58,-165,-141,-126,-117,-68
-68,102,170,-17,-119,136,-58,-165,-141,-122,-112,-68
-58,97,156,-19,-107,126,-58,-161,-136,-117,-107,-63
-58,87,146,-14,-102,117,-58,-156,-136,-117,-107,-58
-53,78,131,-12,-92,104,-58,-151,-131,-107,-97,-58
-53,73,126,-9,-90,100,-58,-151,-122,-97,-92,-53
-48,63,112,-7,-80,87,-58,-141,-117,-92,-82,-53
-43,63,107,-9,-75,85,-53,-136,-112,-87,-73,-48
-39,53,92,-7,-65,73,-53,-131,-112,-82,-73,-48
-39,48,87,-4,-63,68,-53,-131,-107,-82,-68,-43
-34,43,78,-4,-56,61,-53,-126,-97,-78,-68,-43
-34,39,73,-2,-53,56,-53,-122,-92,-73,-68,-39
-29,39,68,-4,-48,53,-53,-122,-92,-68,-63,-39
-29,34,63,-2,-46,48,-48,-112,-87,-68,-63,-39
-29,34,63,-2,-46,48,-48,-112,-87,-63,-63,-39
-29,29,58,0,-43,43,-48,-107,-82,-63,-58,-39
-29,29,58,0,-43,43,-48,-102,-78,-58,-58,-34
-24,29,53,-2,-39,41,-48,-102,-73,-53,-53,-34
-24,29,53,-2,-39,41,-53,-102,-73,-53,-53,-34
-24,29,53,-2,-39,41,-58,-97,-68,-53,-53,-34
-24,29,53,-2,-39,41,-53,-97,-68,-53,-53,-34
-19,24,43,-2,-31,34,-53,-92,-63,-53,-53,-34
-19,24,43,-2,-31,34,-48,-87,-58,-48,-53,-34
-24,19,43,2,-34,31,-43,-87,-58,-43,-48,-29
-24,19,43,2,-34,31,-43,-82,-58,-43,-48,-29
-24,19,43,2,-34,31,-43,-82,-53,-43,-53,-29
-24,24,48,0,-36,36,-43,-82,-48,-43,-53,-29
-19,29,48,-4,-34,39,-43,-73,-48,-43,-53,-29
-24,29,53,-2,-39,41,-43,-73,-48,-43,-48,-34
-29,24,53,2,-41,39,-43,-73,-48,-43,-43,-34
-29,24,53,2,-41,39,-43,-73,-48,-43,-43,-34
-29,24,53,2,-41,39,-39,-73,-48,-43,-43,-34
-24,24,48,0,-36,36,-39,-73,-48,-39,-43,-34
-19,24,43,-2,-31,34,-39,-73,-43,-39,-43,-34
-19,19,39,0,-29,29,-39,-68,-43,-39,-43,-34
-19,14,34,2,-26,24,-39,-68,-43,-39,-43,-34
-19,14,34,2,-26,24,-43,-73,-43,-39,-48,-29
-19,14,34,2,-26,24,-43,-73,-43,-39,-53,-29
-19,14,34,2,-26,24,-48,-73,-43,-39,-53,-29
-19,14,34,2,-26,24,-53,-73,-43,-39,-53,-29
-19,14,34,2,-26,24,-53,-78,-43,-39,-53,-34
-19,14,34,2,-26,24,-53,-78,-48,-43,-53,-34
-19,14,34,2,-26,24,-53,-78,-48,-43,-53,-34
-19,14,34,2,-26,24,-53,-82,-48,-43,-53,-34
-19,19,39,0,-29,29,-48,-82,-43,-39,-53,-29
-14,24,39,-4,-26,31,-48,-82,-43,-39,-53,-29
-14,29,43,-7,-29,36,-48,-87,-39,-29,-43,-24
-9,43,53,-17,-31,48,-48,-87,-39,-24,-34,-14
-9,63,73,-26,-41,68,-48,-87,-34,-19,-34,-14
-4,87,92,-41,-48,90,-48,-82,-29,-14,-29,-4
0,87,87,-43,-43,87,-43,-78,-24,-4,-19,0
0,87,87,-43,-43,87,-39,-73,-19,0,-9,0
0,107,107,-53,-53,107,-34,-63,-9,0,-9,9
0,126,126,-63,-63,126,-29,-58,0,0,-9,19
14,141,126,-78,-56,134,-43,-58,9,9,4,24
29,156,126,-92,-48,141,-58,-58,19,19,19,29
34,161,126,-97,-46,143,-87,-78,9,19,19,29
34,165,131,-100,-48,148,-122,-112,-9,9,14,29
39,175,136,-107,-48,156,-161,-146,-29,4,9,29
43,185,141,-114,-48,163,-175,-161,-43,-9,4,29
53,190,136,-122,-41,163,-180,-161,-53,-9,4,29
68,204,136,-136,-34,170,-190,-165,-53,-9,4,34
92,224,131,-158,-19,178,-204,-165,-48,4,14,48
102,229,126,-165,-12,178,-204,-165,-39,14,29,58
102,229,126,-165,-12,178,-200,-161,-39,14,19,58
92,200,107,-146,-7,153,-180,-151,-39,4,9,58
73,165,92,-119,-9,129,-161,-146,-43,-4,4,43
34,136,102,-85,-34,119,-141,-146,-68,-24,-19,19
-4,102,107,-48,-56,104,-117,-141,-68,-39,-43,-4
-14,82,97,-34,-56,90,-102,-136,-68,-48,-48,-14
-19,58,78,-19,-48,68,-97,-136,-78,-58,-58,-29
-24,48,73,-12,-48,61,-87,-136,-82,-63,-63,-29
-24,48,73,-12,-48,61,-87,-136,-87,-68,-63,-29
-24,48,73,-12,-48,61,-87,-136,-92,-68,-63,-34
-29,39,68,-4,-48,53,-82,-136,-97,-63,-68,-39
-34,34,68,0,-51,51,-73,-131,-97,-63,-68,-43
-39,29,68,4,-53,48,-68,-131,-97,-63,-68,-48
-43,24,68,9,-56,46,-68,-131,-97,-63,-68,-48
-43,19,63,12,-53,41,-63,-126,-97,-63,-73,-53
-48,14,63,17,-56,39,-58,-126,-97,-68,-73,-53
-48,14,63,17,-56,39,-58,-122,-97,-68,-73,-48
-53,9,63,21,-58,36,-53,-122,-97,-68,-78,-48
-53,14,68,19,-61,41,-53,-122,-92,-68,-78,-48
-53,19,73,17,-63,46,-48,-122,-87,-68,-78,-48
-53,14,68,19,-61,41,-48,-122,-87,-68,-78,-48
-58,14,73,21,-65,43,-43,-122,-87,-68,-78,-48
-58,14,73,21,-65,43,-43,-122,-87,-68,-78,-48
-58,14,73,21,-65,43,-43,-122,-87,-68,-78,-48
-58,19,78,19,-68,48,-43,-122,-82,-58,-68,-48
-63,43,107,9,-85,75,-43,-126,-73,-34,-48,-43
-92,102,195,-4,-143,148,-19,-126,-19,24,0,-9
-151,180,331,-14,-241,256,29,-122,58,112,53,14
-224,263,488,-19,-356,375,82,-102,146,185,92,34
-263,346,610,-41,-436,478,126,-73,214,253,141,68
-244,439,683,-97,-463,561,122,-73,253,346,229,141
-165,517,683,-175,-424,600,78,-82,278,424,351,268
-39,570,610,-265,-324,590,0,-102,312,517,497,458
122,444,322,-283,-100,383,19,24,458,649,634,566
361,73,-287,-217,324,-107,117,390,746,795,775,624
658,-278,-936,-190,797,-607,122,668,849,849,844,668
922,-561,-1483,-180,1202,-1022,78,751,800,883,912,756
1102,-717,-1820,-192,1461,-1268,-53,610,522,775,868,775
1180,-785,-1966,-197,1573,-1376,-244,268,-14,453,673,702
1049,-1044,-2093,-2,1571,-1568,-234,-53,-702,-219,112,341
692,-1273,-1966,290,1329,-1620,-4,-165,-1200,-854,-512,-141
156,-1312,-1468,578,812,-1390,366,-34,-1424,-1283,-941,-531
-248,-1293,-1044,771,397,-1168,575,92,-1385,-1395,-1137,-785
-458,-1229,-771,844,156,-1000,639,229,-1146,-1249,-1117,-902
-488,-1146,-658,817,85,-902,619,278,-980,-1137,-1068,-932
-424,-966,-541,695,58,-753,458,165,-844,-961,-907,-790
-341,-805,-463,573,61,-634,331,156,-688,-785,-736,-658
-229,-600,-370,414,70,-485,219,161,-492,-570,-522,-478
-146,-444,-297,295,75,-370,190,190,-302,-385,-361,-326
-107,-326,-219,217,56,-273,170,219,-151,-258,-263,-239
-82,-209,-126,146,21,-168,136,224,-34,-131,-156,-161
-48,-126,-78,87,14,-102,97,156,14,-53,-68,-78
-29,-63,-34,46,2,-48,63,107,48,4,-19,-24
-29,-19,9,24,-19,-4,58,112,107,43,0,-14
-29,-4,24,17,-26,9,48,126,141,68,24,-4
-29,4,34,12,-31,19,39,117,141,78,53,14
-19,9,29,4,-24,19,34,102,141,82,63,29
-14,19,34,-2,-24,26,29,102,151,92,63,34
-14,29,43,-7,-29,36,19,102,175,107,68,39
-9,34,43,-12,-26,39,14,102,185,126,78,43
-4,43,48,-19,-26,46,14,97,185,131,97,53
0,43,43,-21,-21,43,9,97,195,136,97,63
0,53,53,-26,-26,53,9,102,209,146,102,63
0,53,53,-26,-26,53,4,107,219,156,112,68
4,58,53,-31,-24,56,4,112,229,170,122,82
4,58,53,-31,-24,56,4,117,234,170,126,82
4,68,63,-36,-29,65,4,117,244,180,136,82
14,68,53,-41,-19,61,4,122,253,190,141,87
14,73,58,-43,-21,65,0,126,263,200,151,97
14,73,58,-43,-21,65,0,131,268,204,156,102
19,78,58,-48,-19,68,0,131,278,209,165,112
19,82,63,-51,-21,73,0,141,292,219,165,112
19,87,68,-53,-24,78,0,141,297,229,175,122
19,87,68,-53,-24,78,-4,141,302,239,185,122
14,92,78,-53,-31,85,-4,146,307,244,185,122
14,102,87,-58,-36,95,-4,146,317,253,190,131
14,102,87,-58,-36,95,-4,146,317,253,190,131
