I, II, III, aVR, aVL, aVF, V1, V2, V3, V4, V5, V6
0,29,29,-14,-14,29,-97,-63,-34,-4,-19,-39
29,58,29,-43,0,43,-97,-48,-9,0,-14,-39
58,87,29,-73,14,58,-107,-29,19,0,-29,-43
102,53,-48,-78,75,2,-87,0,39,24,0,-14
112,19,-92,-65,102,-36,-87,14,43,43,29,14
97,-14,-112,-41,104,-63,-87,9,24,53,24,9
82,-39,-122,-21,102,-80,-102,-9,-4,48,19,4
73,0,-73,-36,73,-36,-131,-63,-29,14,0,-4
73,24,-48,-48,61,-12,-156,-102,-48,-24,-19,-14
87,53,-34,-70,61,9,-156,-102,-53,-14,-19,-14
102,78,-24,-90,63,26,-146,-102,-43,-4,-14,-14
87,39,-48,-63,68,-4,-136,-92,-39,0,9,0
87,0,-87,-43,87,-43,-126,-82,-34,4,34,14
97,39,-58,-68,78,-9,-126,-68,-19,24,34,24
117,78,-39,-97,78,19,-122,-68,-14,29,34,24
87,58,-29,-73,58,14,-112,-78,-29,4,14,4
48,39,-9,-43,29,14,-102,-82,-34,0,-4,-4
43,48,4,-46,19,26,-112,-82,-34,0,0,-4
19,53,34,-36,-7,43,-107,-82,-29,4,-4,-14
-9,39,48,-14,-29,43,-92,-87,-43,-29,-39,-53
-19,29,48,-4,-34,39,-92,-92,-58,-58,-58,-78
-34,0,34,17,-34,17,-92,-97,-58,-58,-58,-68
-48,-24,24,36,-36,0,-87,-97,-58,-53,-53,-53
-29,-14,14,21,-21,0,-82,-97,-58,-53,-53,-53
-19,-9,9,14,-14,0,-82,-97,-63,-53,-53,-58
-43,-9,34,26,-39,12,-82,-112,-78,-58,-58,-58
-63,-9,53,36,-58,21,-73,-126,-87,-63,-58,-58
-63,0,63,31,-63,31,-82,-122,-87,-63,-63,-73
-63,4,68,29,-65,36,-92,-117,-87,-53,-73,-87
-34,4,39,14,-36,21,-107,-146,-82,-53,-53,-68
-19,4,24,7,-21,14,-107,-131,-68,-39,-39,-58
-14,19,34,-2,-24,26,-73,-43,9,19,-14,-53
-29,24,53,2,-41,39,-39,73,102,63,-9,-58
-53,-4,48,29,-51,21,68,263,180,34,-78,-131
-63,24,87,19,-75,56,107,346,263,63,-63,-136
-229,63,292,82,-261,178,185,219,200,-19,-141,-185
-278,141,419,68,-348,280,180,92,209,14,-112,-151
-151,248,400,-48,-275,324,131,58,512,419,258,102
-24,434,458,-204,-241,446,-9,-24,756,785,566,346
434,1083,649,-758,-107,866,-556,146,1522,1795,1439,1063
766,1254,488,-1010,139,871,-1015,97,1712,2196,1786,1366
619,531,-87,-575,353,222,-1302,-1234,-522,-24,287,395
614,-122,-736,-246,675,-429,-1278,-1693,-1644,-1146,-536,-204
741,-566,-1307,-87,1024,-936,-1239,-2005,-2181,-1542,-814,-385
697,-741,-1439,21,1068,-1090,-1058,-1952,-2303,-1629,-888,-434
444,-395,-839,-24,641,-617,-712,-1395,-1551,-1068,-531,-204
224,-185,-409,-19,317,-297,-453,-976,-985,-688,-336,-126
-14,-117,-102,65,43,-109,-185,-527,-517,-375,-224,-117
-112,-48,63,80,-87,7,-39,-239,-234,-170,-122,-107
-92,-19,73,56,-82,26,-4,-117,-122,-68,-73,-92
-87,0,87,43,-87,43,14,-39,-29,-9,-39,-78
-87,-9,78,48,-82,34,24,0,-19,-9,-39,-82
-92,-19,73,56,-82,26,34,24,-14,-4,-48,-87
-92,-4,87,48,-90,41,43,39,0,-19,-58,-92
-92,9,102,41,-97,56,53,53,14,-9,-58,-92
-92,-14,78,53,-85,31,63,63,24,-9,-53,-92
-97,-39,58,68,-78,9,68,78,24,-14,-53,-92
-92,-43,48,68,-70,2,73,97,34,-14,-53,-102
-82,-43,39,63,-61,-2,78,107,48,-9,-53,-102
-73,-39,34,56,-53,-2,78,117,53,9,-43,-97
-73,-39,34,56,-53,-2,78,126,58,24,-34,-97
-92,-43,48,68,-70,2,78,126,48,0,-53,-107
-107,-43,63,75,-85,9,78,117,48,-9,-68,-122
-82,-34,48,58,-65,7,87,122,58,-9,-68,-112
-63,-24,39,43,-51,7,87,136,58,-9,-63,-102
-58,-34,24,46,-41,-4,92,156,63,4,-53,-102
-58,-43,14,51,-36,-14,97,170,78,19,-43,-102
-58,-43,14,51,-36,-14,97,170,82,34,-43,-102
-63,-43,19,53,-41,-12,102,180,92,43,-43,-102
-68,-53,14,61,-41,-19,102,185,97,43,-43,-102
-68,-53,14,61,-41,-19,102,185,97,43,-39,-97
-68,-48,19,58,-43,-14,112,200,107,48,-39,-92
-58,-43,14,51,-36,-14,112,204,112,48,-39,-92
-63,-43,19,53,-41,-12,117,224,122,58,-24,-92
-73,-43,29,58,-51,-7,131,244,146,78,-14,-92
-73,-58,14,65,-43,-21,131,239,141,82,-14,-92
-63,-68,-4,65,-29,-36,131,239,141,82,-14,-92
-63,-48,14,56,-39,-17,136,244,141,68,-24,-97
-63,-29,34,46,-48,2,136,253,146,58,-43,-102
-53,-39,14,46,-34,-12,141,244,151,63,-43,-102
-48,-48,0,48,-24,-24,146,244,165,68,-39,-102
-53,-53,0,53,-26,-26,151,263,165,82,-24,-87
-53,-53,0,53,-26,-26,156,283,170,102,-4,-68
-82,-63,19,73,-51,-21,161,292,180,102,0,-73
-112,-73,39,92,-75,-17,161,302,190,117,4,-82
-92,-58,34,75,-63,-12,170,297,195,117,-9,-87
-73,-39,34,56,-53,-2,175,297,195,107,-19,-97
-73,-29,43,51,-58,7,185,307,204,102,-19,-92
-68,-19,48,43,-58,14,200,302,204,102,-19,-92
-73,-19,53,46,-63,17,204,307,209,112,-9,-92
-73,-4,68,39,-70,31,209,322,224,122,4,-82
-78,-9,68,43,-73,29,219,322,229,141,14,-63
-82,0,82,41,-82,41,229,331,229,161,24,-53
-87,4,92,41,-90,48,234,322,224,141,14,-73
-97,9,107,43,-102,58,244,312,214,117,0,-87
-102,9,112,46,-107,61,248,302,209,131,4,-82
-102,24,126,39,-114,75,253,292,214,136,9,-82
-117,29,146,43,-131,87,258,287,219,141,19,-68
-131,39,170,46,-151,104,263,283,214,146,29,-68
-136,48,185,43,-161,117,263,278,219,151,34,-68
-136,58,195,39,-165,126,263,258,219,151,39,-53
-146,68,214,39,-180,141,253,248,214,161,43,-39
-161,68,229,46,-195,148,244,224,204,161,48,-39
-175,87,263,43,-219,175,239,185,190,156,58,-29
-185,97,283,43,-234,190,224,151,180,146,63,-19
-165,117,283,24,-224,200,200,117,165,136,63,-19
-151,136,287,7,-219,212,180,87,146,131,63,-19
-151,146,297,2,-224,222,156,48,122,126,53,-14
-156,161,317,-2,-236,239,126,4,102,112,39,-14
-165,170,336,-2,-251,253,107,-19,78,107,53,-4
-175,175,351,0,-263,263,73,-53,53,112,68,4
-161,185,346,-12,-253,265,48,-73,48,117,68,4
-156,185,341,-14,-248,263,29,-102,39,102,68,9
-146,185,331,-19,-239,258,9,-141,14,87,68,24
-136,185,322,-24,-229,253,-9,-156,-4,73,58,19
-126,185,312,-29,-219,248,-39,-165,-19,48,48,24
-117,180,297,-31,-207,239,-63,-180,-34,39,48,34
-107,161,268,-26,-187,214,-68,-185,-43,29,39,14
-107,151,258,-21,-183,204,-78,-180,-48,14,29,-4
-82,141,224,-29,-153,183,-78,-165,-39,24,39,9
-63,136,200,-36,-131,168,-82,-151,-24,29,43,24
-68,126,195,-29,-131,161,-82,-151,-48,9,14,0
-73,117,190,-21,-131,153,-82,-151,-48,4,4,-14
-78,112,190,-17,-134,151,-92,-151,-53,0,-4,-34
-82,107,190,-12,-136,148,-92,-146,-53,-9,-14,-48
-58,87,146,-14,-102,117,-82,-131,-43,-19,-24,-29
-34,78,112,-21,-73,95,-78,-117,-43,-19,-29,-19
-48,78,126,-14,-87,102,-78,-112,-53,-43,-48,-48
-63,68,131,-2,-97,100,-78,-112,-63,-58,-63,-68
-78,48,126,14,-102,87,-78,-102,-63,-68,-68,-68
-82,34,117,24,-100,75,-73,-97,-63,-78,-78,-68
-63,48,112,7,-87,80,-73,-92,-58,-68,-73,-68
-48,73,122,-12,-85,97,-73,-87,-58,-58,-68,-68
-48,58,107,-4,-78,82,-73,-82,-58,-63,-63,-63
-48,53,102,-2,-75,78,-68,-82,-58,-58,-58,-58
-53,39,92,7,-73,65,-68,-68,-48,-48,-48,-48
-53,29,82,12,-68,56,-73,-58,-39,-43,-39,-34
-53,19,73,17,-63,46,-73,-58,-39,-24,-34,-39
-53,14,68,19,-61,41,-73,-58,-39,-9,-24,-39
-53,14,68,19,-61,41,-73,-58,-39,-9,-24,-39
-53,14,68,19,-61,41,-73,-58,-34,-9,-24,-39
-53,24,78,14,-65,51,-73,-63,-34,-19,-34,-48
-53,39,92,7,-73,65,-68,-63,-34,-29,-43,-58
-48,39,87,4,-68,63,-63,-63,-39,-29,-48,-63
-43,39,82,2,-63,61,-58,-63,-43,-29,-53,-63
-53,24,78,14,-65,51,-58,-63,-43,-34,-53,-63
-53,9,63,21,-58,36,-58,-63,-43,-43,-58,-63
-78,9,87,34,-82,48,-58,-63,-43,-43,-63,-63
-97,-4,92,51,-95,43,-58,-63,-43,-48,-68,-63
-63,19,82,21,-73,51,-58,-63,-43,-39,-58,-63
-43,39,82,2,-63,61,-53,-58,-43,-29,-43,-63
-43,34,78,4,-61,56,-53,-58,-43,-43,-53,-63
-43,24,68,9,-56,46,-53,-63,-43,-63,-68,-63
-63,24,87,19,-75,56,-53,-63,-39,-58,-73,-63
-78,14,92,31,-85,53,-58,-58,-43,-48,-73,-68
-43,29,73,7,-58,51,-58,-58,-43,-39,-63,-58
-14,34,48,-9,-31,41,-58,-63,-39,-48,-53,-48
-29,34,63,-2,-46,48,-58,-63,-43,-48,-48,-48
-43,29,73,7,-58,51,-58,-68,-48,-53,-53,-48
-43,24,68,9,-56,46,-58,-68,-53,-53,-53,-53
-43,14,58,14,-51,36,-68,-68,-53,-48,-48,-53
-43,14,58,14,-51,36,-73,-68,-48,-39,-48,-48
-43,19,63,12,-53,41,-73,-63,-43,-34,-58,-48
-48,9,58,19,-53,34,-73,-63,-43,-24,-48,-48
-58,0,58,29,-58,29,-73,-63,-43,-24,-43,-48
-63,0,63,31,-63,31,-73,-68,-53,-43,-43,-53
-68,0,68,34,-68,34,-73,-73,-53,-53,-43,-58
-63,4,68,29,-65,36,-68,-73,-53,-43,-48,-63
-58,4,63,26,-61,34,-68,-73,-58,-43,-53,-68
-48,0,48,24,-48,24,-63,-78,-63,-53,-63,-73
-48,0,48,24,-48,24,-58,-82,-63,-63,-73,-78
-53,0,53,26,-53,26,-68,-82,-73,-63,-78,-82
-53,9,63,21,-58,36,-73,-78,-82,-63,-78,-82
-34,19,53,7,-43,36,-73,-73,-68,-63,-78,-73
-24,14,39,4,-31,26,-73,-73,-53,-63,-78,-63
-43,4,48,19,-46,26,-68,-73,-53,-58,-58,-53
-63,-9,53,36,-58,21,-63,-73,-53,-58,-48,-48
-48,-9,39,29,-43,14,-63,-78,-63,-58,-39,-43
-34,4,39,14,-36,21,-63,-78,-68,-53,-29,-34
-68,0,68,34,-68,34,-63,-78,-73,-63,-48,-53
-68,0,68,34,-68,34,-63,-73,-73,-73,-58,-63
-63,0,63,31,-63,31,-68,-78,-82,-68,-68,-73
-53,-9,43,31,-48,17,-73,-82,-92,-68,-78,-82
-43,-14,29,29,-36,7,-73,-82,-87,-63,-63,-73
-39,-19,19,29,-29,0,-73,-87,-87,-58,-53,-63
-53,-24,29,39,-41,2,-73,-82,-78,-63,-58,-68
-68,-29,39,48,-53,4,-78,-78,-68,-68,-68,-78
-68,-14,53,41,-61,19,-78,-78,-68,-73,-68,-78
-68,0,68,34,-68,34,-78,-78,-68,-78,-68,-78
-68,-9,58,39,-63,24,-82,-87,-82,-82,-73,-78
-58,-14,43,36,-51,14,-82,-92,-82,-78,-73,-78
-53,-19,34,36,-43,7,-87,-102,-87,-78,-73,-78
-43,-14,29,29,-36,7,-82,-102,-78,-78,-63,-78
-29,4,34,12,-31,19,-78,-78,-63,-68,-58,-58
-14,14,29,0,-21,21,-78,-58,-53,-58,-58,-48
0,24,24,-12,-12,24,-73,-43,-43,-43,-48,-34
19,29,9,-24,4,19,-73,-34,-43,-39,-24,-14
63,29,-34,-46,48,-2,-87,4,9,4,4,4
102,19,-82,-61,92,-31,-87,29,48,39,29,14
102,0,-102,-51,102,-51,-78,39,34,43,29,14
97,-9,-107,-43,102,-58,-68,34,14,39,14,9
68,0,-68,-34,68,-34,-117,-39,-39,-14,-9,0
53,14,-39,-34,46,-12,-136,-82,-68,-39,-19,-4
63,19,-43,-41,53,-12,-151,-82,-68,-43,-19,-4
63,19,-43,-41,53,-12,-165,-82,-82,-43,-19,-4
82,14,-68,-48,75,-26,-146,-78,-63,-34,-14,0
87,19,-68,-53,78,-24,-131,-73,-43,-24,-14,4
97,29,-68,-63,82,-19,-122,-58,-43,-19,-4,9
82,39,-43,-61,63,-2,-117,-43,-43,-14,-4,9
68,53,-14,-61,41,19,-112,-68,-53,-29,-14,-4
48,48,0,-48,24,24,-102,-87,-68,-53,-34,-24
19,29,9,-24,4,19,-97,-92,-68,-48,-39,-19
14,19,4,-17,4,12,-102,-92,-73,-53,-29,-14
-9,-9,0,9,-4,-4,-87,-92,-78,-63,-43,-34
-34,-29,4,31,-19,-12,-73,-92,-82,-73,-58,-48
-39,-29,9,34,-24,-9,-73,-97,-92,-87,-68,-58
-43,-34,9,39,-26,-12,-78,-107,-97,-97,-78,-68
-48,-29,19,39,-34,-4,-78,-107,-97,-97,-82,-73
-53,-24,29,39,-41,2,-73,-107,-97,-102,-92,-82
-78,-29,48,53,-63,9,-73,-107,-102,-112,-92,-87
-87,-29,58,58,-73,14,-73,-107,-102,-122,-97,-87
-82,-29,53,56,-68,12,-63,-107,-97,-107,-92,-78
-82,-24,58,53,-70,17,-63,-102,-97,-92,-82,-68
-78,-24,53,51,-65,14,-73,-112,-102,-82,-78,-63
-73,-34,39,53,-56,2,-73,-107,-87,-82,-73,-58
-78,-43,34,61,-56,-4,-87,-97,-73,-68,-68,-53
-87,-58,29,73,-58,-14,-48,-34,-34,-53,-73,-73
-107,-87,19,97,-63,-34,48,190,63,-19,-82,-107
-122,-92,29,107,-75,-31,136,312,126,-14,-112,-141
-165,-58,107,112,-136,24,195,302,141,-53,-161,-190
-204,19,224,92,-214,122,214,229,185,-34,-141,-170
-234,107,341,63,-287,224,200,122,307,117,-4,-63
-68,253,322,-92,-195,287,58,102,551,458,297,170
190,678,488,-434,-148,583,-239,131,1015,1063,790,600
517,1015,497,-766,9,756,-697,-4,1220,1434,1176,946
917,917,0,-917,458,458,-1244,-234,912,1346,1205,1024
849,468,-380,-658,614,43,-1483,-1224,-590,-112,244,414
761,-444,-1205,-158,983,-824,-1327,-2010,-1961,-1512,-849,-409
780,-795,-1576,7,1178,-1185,-1224,-2249,-2464,-1932,-1127,-590
712,-527,-1239,-92,976,-883,-995,-1820,-1961,-1434,-771,-341
497,-292,-790,-102,644,-541,-692,-1327,-1361,-946,-444,-126
175,-131,-307,-21,241,-219,-390,-829,-775,-551,-248,-63
-58,-58,0,58,-29,-29,-146,-444,-380,-297,-185,-78
-117,-53,63,85,-90,4,-14,-161,-204,-180,-126,-87
-117,-39,78,78,-97,19,43,-24,-78,-92,-87,-78
-107,-39,68,73,-87,14,58,-9,-24,-48,-58,-68
-107,-48,58,78,-82,4,63,19,-19,-34,-48,-78
-107,-63,43,85,-75,-9,63,53,-34,-58,-87,-92
-102,-73,29,87,-65,-21,73,82,-19,-73,-107,-102
-97,-78,19,87,-58,-29,87,78,-4,-63,-107,-112
-92,-78,14,85,-53,-31,97,73,4,-78,-112,-122
-97,-78,19,87,-58,-29,102,87,4,-73,-87,-102
-97,-82,14,90,-56,-34,112,102,9,-63,-63,-92
-92,-82,9,87,-51,-36,117,107,19,-53,-63,-92
-82,-78,4,80,-43,-36,122,117,24,-43,-63,-87
-87,-78,9,82,-48,-34,122,131,29,-43,-73,-97
-97,-82,14,90,-56,-34,117,146,29,-43,-82,-102
-97,-82,14,90,-56,-34,117,146,43,-29,-68,-92
-92,-82,9,87,-51,-36,126,151,58,-29,-58,-82
-92,-82,9,87,-51,-36,122,165,58,-29,-53,-82
-87,-82,4,85,-46,-39,122,175,58,-24,-53,-82
-92,-87,4,90,-48,-41,126,180,68,-19,-63,-87
-92,-92,0,92,-46,-46,126,180,73,-14,-73,-92
-92,-92,0,92,-46,-46,141,190,82,-14,-73,-92
-97,-102,-4,100,-46,-53,151,204,87,-4,-68,-92
-97,-102,-4,100,-46,-53,151,214,87,4,-58,-87
-97,-102,-4,100,-46,-53,161,229,97,9,-58,-82
-87,-102,-14,95,-36,-58,156,234,102,4,-58,-82
-82,-102,-19,92,-31,-61,151,244,102,0,-53,-82
-73,-92,-19,82,-26,-56,161,248,112,9,-53,-82
-63,-82,-19,73,-21,-51,161,248,112,14,-53,-82
-53,-78,-24,65,-14,-51,165,258,122,9,-58,-87
-53,-78,-24,65,-14,-51,175,263,122,9,-53,-92
-53,-78,-24,65,-14,-51,180,273,126,4,-63,-102
-48,-78,-29,63,-9,-53,190,278,131,-4,-73,-112
-58,-82,-24,70,-17,-53,195,292,151,24,-53,-97
-73,-87,-14,80,-29,-51,200,297,156,48,-39,-82
-73,-92,-19,82,-26,-56,200,302,161,53,-34,-78
-73,-102,-29,87,-21,-65,204,312,170,53,-29,-73
-73,-102,-29,87,-21,-65,209,322,175,53,-34,-78
-73,-97,-24,85,-24,-61,219,326,180,53,-39,-73
-73,-87,-14,80,-29,-51,224,336,180,58,-29,-68
-78,-87,-9,82,-34,-48,229,351,195,63,-19,-63
-82,-87,-4,85,-39,-46,239,351,204,73,-9,-68
-92,-87,4,90,-48,-41,244,356,209,82,-9,-73
-102,-82,19,92,-61,-31,239,366,224,73,-19,-82
-112,-92,19,102,-65,-36,239,361,229,63,-24,-92
-112,-78,34,95,-73,-21,263,370,229,82,-14,-78
-117,-73,43,95,-80,-14,283,370,239,97,-9,-63
-107,-58,48,82,-78,-4,297,370,244,97,0,-58
-92,-48,43,70,-68,-2,307,370,248,117,19,-48
-112,-43,68,78,-90,12,312,370,253,117,19,-48
-141,-48,92,95,-117,21,322,370,258,117,19,-39
-151,-39,112,95,-131,36,331,370,258,122,14,-43
-156,-29,126,92,-141,48,331,366,258,122,4,-48
-156,-19,136,87,-146,58,331,351,258,122,29,-34
-165,-9,156,87,-161,73,322,346,258,131,53,-19
-180,-19,161,100,-170,70,312,322,253,117,29,-34
-180,-14,165,97,-173,75,302,292,239,97,0,-48
-175,0,175,87,-175,87,287,273,234,102,19,-24
-175,24,200,75,-187,112,268,244,224,107,43,0
-170,48,219,61,-195,134,248,214,204,112,43,0
-161,63,224,48,-192,143,224,180,185,117,43,4
-165,73,239,46,-202,156,195,136,170,102,43,9
-165,78,244,43,-204,161,175,107,146,82,43,14
-175,73,248,51,-212,161,136,58,122,73,39,14
-170,78,248,46,-209,163,107,19,107,73,34,14
-151,78,229,36,-190,153,78,-4,92,63,48,24
-131,78,209,26,-170,143,48,-34,73,58,63,39
-136,92,229,21,-183,161,43,-48,68,58,58,43
-136,107,244,14,-190,175,34,-58,68,48,58,53
-126,87,214,19,-170,151,4,-73,43,39,48,53
-117,63,180,26,-148,122,-9,-82,24,24,29,48
-107,73,180,17,-143,126,-19,-82,19,-4,19,43
-87,73,161,7,-124,117,-19,-82,14,-14,19,43
-78,68,146,4,-112,107,-24,-82,19,-9,19,43
-68,63,131,2,-100,97,-24,-82,0,-19,4,29
-63,48,112,7,-87,80,-24,-82,0,-24,4,24
-58,34,92,12,-75,63,-34,-82,-4,-29,-4,14
-53,24,78,14,-65,51,-39,-78,-9,-39,-14,9
-53,4,58,24,-56,31,-39,-73,-14,-48,-24,9
-53,0,53,26,-53,26,-39,-68,-24,-39,-29,9
-53,0,53,26,-53,26,-39,-63,-24,-39,-34,9
-53,-9,43,31,-48,17,-39,-63,-24,-48,-34,-4
-53,-14,39,34,-46,12,-39,-58,-24,-58,-29,-19
-43,-24,19,34,-31,-2,-39,-58,-34,-58,-29,-19
-39,-34,4,36,-21,-14,-43,-58,-43,-58,-34,-19
-34,-9,24,21,-29,7,-43,-48,-34,-48,-39,-14
-29,-9,19,19,-24,4,-43,-34,-19,-48,-39,-9
-29,-14,14,21,-21,0,-34,-43,-29,-63,-43,-9
-34,-19,14,26,-24,-2,-29,-48,-39,-73,-48,-14
-39,-19,19,29,-29,0,-34,-48,-39,-73,-53,-19
-43,-19,24,31,-34,2,-34,-48,-39,-73,-63,-29
-43,-14,29,29,-36,7,-34,-48,-39,-73,-63,-29
-43,-14,29,29,-36,7,-34,-48,-39,-68,-63,-29
-43,-19,24,31,-34,2,-34,-48,-34,-63,-58,-24
-43,-29,14,36,-29,-7,-34,-48,-34,-58,-53,-19
-43,-29,14,36,-29,-7,-29,-34,-29,-58,-48,-9
-43,-29,14,36,-29,-7,-29,-24,-24,-58,-43,-4
-43,-34,9,39,-26,-12,-29,-24,-24,-58,-43,-14
-53,-39,14,46,-34,-12,-29,-24,-24,-53,-39,-24
-48,-39,9,43,-29,-14,-29,-29,-24,-58,-39,-24
-48,-39,9,43,-29,-14,-29,-34,-24,-63,-43,-24
-39,-53,-14,46,-12,-34,-29,-34,-29,-68,-48,-24
-14,-43,-29,29,7,-36,-29,-39,-34,-68,-48,-24
-39,-48,-9,43,-14,-29,-24,-39,-34,-63,-43,-24
-63,-53,9,58,-36,-21,-24,-39,-34,-53,-39,-24
-53,-43,9,48,-31,-17,-24,-43,-34,-53,-43,-24
-48,-34,14,41,-31,-9,-24,-43,-34,-58,-53,-24
-48,-43,4,46,-26,-19,-29,-39,-48,-73,-53,-29
-43,-34,9,39,-26,-12,-29,-39,-53,-78,-53,-29
-34,-29,4,31,-19,-12,-29,-43,-48,-78,-53,-29
-24,-24,0,24,-12,-12,-29,-43,-48,-68,-53,-29
-24,-29,-4,26,-9,-17,-24,-43,-43,-68,-63,-29
-24,-29,-4,26,-9,-17,-19,-39,-43,-63,-63,-29
-34,-34,0,34,-17,-17,-29,-39,-43,-58,-58,-24
-43,-34,9,39,-26,-12,-29,-39,-39,-48,-48,-19
-48,-34,14,41,-31,-9,-29,-34,-34,-48,-48,-19
-53,-39,14,46,-34,-12,-34,-34,-34,-53,-48,-19
-58,-39,19,48,-39,-9,-34,-48,-34,-63,-53,-19
-58,-39,19,48,-39,-9,-34,-63,-43,-73,-53,-19
-53,-39,14,46,-34,-12,-34,-53,-43,-73,-48,-19
-43,-34,9,39,-26,-12,-34,-43,-39,-63,-43,-19
-39,-39,0,39,-19,-19,-39,-43,-43,-68,-43,-24
-29,-43,-14,36,-7,-29,-43,-48,-53,-73,-43,-29
-39,-53,-14,46,-12,-34,-43,-58,-58,-73,-48,-29
-53,-68,-14,61,-19,-41,-39,-63,-63,-73,-53,-34
-58,-58,0,58,-29,-29,-34,-58,-63,-73,-53,-39
-53,-58,-4,56,-24,-31,-34,-53,-63,-73,-58,-34
-53,-68,-14,61,-19,-41,-39,-58,-68,-82,-63,-29
-53,-63,-9,58,-21,-36,-43,-63,-73,-87,-58,-29
-58,-68,-9,63,-24,-39,-43,-63,-82,-107,-78,-34
-43,-68,-24,56,-9,-46,-48,-68,-92,-126,-97,-43
-24,-53,-29,39,2,-41,-43,-68,-87,-107,-82,-43
-29,-43,-14,36,-7,-29,-34,-68,-87,-92,-63,-39
-34,-48,-14,41,-9,-31,-29,-48,-73,-82,-63,-34
-43,-58,-14,51,-14,-36,-24,-34,-58,-78,-63,-34
-53,-63,-9,58,-21,-36,-24,-34,-58,-73,-58,-34
-68,-68,0,68,-34,-34,-29,-39,-58,-68,-58,-39
-58,-63,-4,61,-26,-34,-29,-43,-58,-68,-53,-29
-48,-58,-9,53,-19,-34,-29,-48,-58,-68,-48,-19
-34,-58,-24,46,-4,-41,-29,-48,-63,-68,-48,-19
-19,-58,-39,39,9,-48,-29,-48,-58,-63,-48,-14
-4,-58,-53,31,24,-56,-34,-48,-58,-63,-48,-14
4,-53,-58,24,31,-56,-34,-43,-48,-68,-43,-9
14,-34,-48,9,31,-41,-34,-14,-34,-53,-29,9
24,-24,-48,0,36,-36,-39,9,-24,-39,-19,19
48,-9,-58,-19,53,-34,-39,24,0,-14,-9,24
78,0,-78,-39,78,-39,-43,34,14,0,14,34
107,0,-107,-53,107,-53,-43,48,29,9,29,43
131,-9,-141,-61,136,-75,-29,48,29,9,39,43
122,-29,-151,-46,136,-90,-48,34,0,-4,24,39
107,-39,-146,-34,126,-92,-68,4,-34,-29,-4,29
82,-29,-112,-26,97,-70,-107,-39,-63,-58,-19,24
73,-14,-87,-29,80,-51,-117,-53,-68,-58,-19,24
102,-9,-112,-46,107,-61,-117,-53,-63,-63,-19,24
122,-9,-131,-56,126,-70,-117,-53,-73,-63,-19,24
122,-19,-141,-51,131,-80,-107,-53,-73,-63,-14,24
107,-19,-126,-43,117,-73,-102,-53,-73,-63,-14,24
82,-19,-102,-31,92,-61,-97,-43,-53,-39,9,39
34,-19,-53,-7,43,-36,-97,-34,-34,-14,24,48
34,-9,-43,-12,39,-26,-92,-43,-43,-24,14,43
29,-19,-48,-4,39,-34,-82,-48,-58,-43,-4,34
14,-29,-43,7,29,-36,-68,-53,-63,-48,-24,24
24,-29,-53,2,39,-41,-63,-53,-73,-63,-29,14
0,-58,-58,29,29,-58,-48,-63,-82,-82,-48,-14
-24,-78,-53,51,14,-65,-34,-73,-92,-102,-68,-39
-43,-78,-34,61,-4,-56,-34,-73,-97,-112,-73,-43
-63,-82,-19,73,-21,-51,-39,-78,-97,-117,-78,-48
-68,-82,-14,75,-26,-48,-43,-78,-107,-117,-73,-43
-73,-82,-9,78,-31,-46,-43,-78,-117,-122,-73,-43
-87,-82,4,85,-46,-39,-43,-78,-122,-122,-73,-48
-87,-78,9,82,-48,-34,-43,-78,-122,-122,-78,-48
-73,-78,-4,75,-34,-41,-24,-78,-102,-112,-68,-43
-63,-73,-9,68,-26,-41,-14,-73,-87,-102,-53,-39
-63,-78,-14,70,-24,-46,-24,-73,-107,-102,-63,-39
-63,-92,-29,78,-17,-61,-24,-58,-107,-112,-73,-39
-97,-102,-4,100,-46,-53,0,4,-58,-97,-78,-48
-136,-117,19,126,-78,-48,78,122,14,-82,-92,-82
-161,-131,29,146,-95,-51,156,283,87,-63,-112,-117
-180,-122,58,151,-119,-31,224,341,126,-73,-151,-151
-190,-58,131,124,-161,36,239,302,170,-39,-122,-126
-195,48,244,73,-219,146,214,200,244,53,-24,-34
-92,190,283,-48,-187,236,92,73,385,273,190,141
204,390,185,-297,9,287,-156,34,649,683,570,444
488,678,190,-583,148,434,-527,-68,839,1019,878,736
839,878,39,-858,400,458,-1058,-336,771,1122,1078,946
1093,580,-512,-836,802,34,-1449,-810,141,634,751,751
878,-68,-946,-405,912,-507,-1532,-2044,-1683,-1224,-566,-131
790,-639,-1429,-75,1110,-1034,-1327,-2386,-2376,-1971,-1190,-634
810,-649,-1459,-80,1134,-1054,-1176,-2181,-2200,-1737,-1000,-492
644,-395,-1039,-124,841,-717,-883,-1644,-1644,-1224,-653,-263
331,-175,-507,-78,419,-341,-517,-1044,-990,-722,-336,-68
68,-92,-161,12,114,-126,-244,-590,-527,-405,-170,-24
-107,-97,9,102,-58,-43,-29,-248,-253,-229,-136,-58
-136,-97,39,117,-87,-29,63,-43,-136,-141,-92,-68
-107,-87,19,97,-63,-34,82,14,-68,-82,-68,-58
-97,-87,9,92,-53,-39,92,29,-29,-68,-53,-48
-97,-97,0,97,-48,-48,92,58,-39,-82,-58,-58
-102,-107,-4,104,-48,-56,92,73,-58,-92,-78,-68
-102,-112,-9,107,-46,-61,102,82,-48,-92,-78,-73
-102,-117,-14,109,-43,-65,112,82,-39,-68,-73,-73
-102,-117,-14,109,-43,-65,117,82,-34,-68,-73,-73
-117,-117,0,117,-58,-58,117,97,-34,-73,-73,-68
-126,-122,4,124,-65,-58,122,112,-29,-73,-73,-73
-112,-122,-9,117,-51,-65,126,126,-9,-63,-68,-73
-92,-117,-24,104,-34,-70,131,146,4,-53,-63,-68
-92,-102,-9,97,-41,-56,136,156,9,-53,-63,-73
-97,-92,4,95,-51,-43,136,165,9,-53,-63,-73
-97,-117,-19,107,-39,-68,136,161,14,-39,-58,-73
-92,-141,-48,117,-21,-95,146,161,19,-39,-58,-73
-92,-126,-34,109,-29,-80,151,175,19,-39,-53,-68
-87,-112,-24,100,-31,-68,161,185,19,-34,-53,-63
-87,-112,-24,100,-31,-68,165,190,29,-29,-53,-63
-82,-112,-29,97,-26,-70,165,190,34,-24,-53,-63
-82,-112,-29,97,-26,-70,170,200,43,-34,-63,-68
-87,-122,-34,104,-26,-78,170,214,48,-34,-68,-73
-87,-126,-39,107,-24,-82,170,224,43,-24,-58,-68
-87,-131,-43,109,-21,-87,180,239,48,-19,-58,-63
-68,-131,-63,100,-2,-97,180,244,53,-19,-63,-68
-53,-131,-78,92,12,-104,180,253,53,-19,-63,-73
-68,-136,-68,102,0,-102,185,258,68,-9,-63,-73
-82,-141,-58,112,-12,-100,180,258,73,-4,-63,-73
-73,-136,-63,104,-4,-100,180,268,87,14,-48,-58
-73,-136,-63,104,-4,-100,185,273,92,39,-24,-43
-73,-136,-63,104,-4,-100,185,302,112,48,-14,-43
-68,-136,-68,102,0,-102,190,326,131,53,-4,-43
-68,-136,-68,102,0,-102,195,326,131,48,-19,-48
-73,-136,-63,104,-4,-100,200,317,117,39,-39,-53
-58,-122,-63,90,2,-92,209,322,122,43,-34,-48
-43,-112,-68,78,12,-90,224,331,131,43,-29,-43
-58,-122,-63,90,2,-92,229,341,151,58,-24,-48
-73,-126,-53,100,-9,-90,239,346,170,73,-19,-43
-73,-117,-43,95,-14,-80,244,356,165,78,-9,-39
-78,-117,-39,97,-19,-78,248,370,175,82,0,-34
-63,-112,-48,87,-7,-80,263,375,185,92,9,-34
-53,-107,-53,80,0,-80,273,385,190,102,9,-34
-63,-92,-29,78,-17,-61,278,400,209,112,14,-24
-73,-92,-19,82,-26,-56,287,400,219,122,24,-14
-73,-78,-4,75,-34,-41,297,409,219,131,34,-14
-78,-73,4,75,-41,-34,302,409,229,136,39,-14
-87,-68,19,78,-53,-24,312,409,234,131,39,-14
-92,-68,24,80,-58,-21,317,409,239,146,48,-9
-97,-53,43,75,-70,-4,312,409,253,156,58,-4
-112,-48,63,80,-87,7,312,409,268,165,68,9
-126,-43,82,85,-104,19,331,429,278,185,78,9
-136,-39,97,87,-117,29,341,444,287,200,82,9
-136,-29,107,82,-122,39,341,424,287,200,87,24
-146,-19,126,82,-136,53,331,414,287,209,92,39
-151,-14,136,82,-143,61,322,390,283,209,102,43
-141,4,146,68,-143,75,312,361,268,204,107,48
-136,9,146,63,-141,78,292,331,258,195,102,48
-136,24,161,56,-148,92,268,292,244,185,102,48
-141,39,180,51,-161,109,248,263,224,175,97,48
-141,43,185,48,-163,114,224,229,204,165,92,53
-146,53,200,46,-173,126,195,185,190,151,87,53
-146,58,204,43,-175,131,175,156,165,131,82,53
-161,58,219,51,-190,139,141,117,136,117,82,53
-161,68,229,46,-195,148,117,87,117,112,82,53
-141,73,214,34,-178,143,97,53,97,92,78,58
-122,78,200,21,-161,139,78,14,73,78,73,68
-107,78,185,14,-146,131,58,-4,53,68,58,58
-87,78,165,4,-126,122,34,-19,39,48,48,53
-78,73,151,2,-114,112,9,-43,9,43,53,63
-68,63,131,2,-100,97,0,-63,-14,34,48,68
-92,63,156,14,-124,109,-9,-63,-4,24,39,63
-107,53,161,26,-134,107,-9,-63,4,34,39,63
-82,39,122,21,-102,80,-19,-63,-9,9,34,63
-58,24,82,17,-70,53,-24,-63,-48,-29,14,48
-53,19,73,17,-63,46,-24,-63,-39,-14,24,43
-48,14,63,17,-56,39,-34,-63,-34,0,24,34
-43,9,53,17,-48,31,-34,-58,-34,-9,14,29
-43,-4,39,24,-41,17,-29,-53,-34,-19,4,29
-43,-9,34,26,-39,12,-29,-48,-43,-19,-4,19
-43,-9,34,26,-39,12,-29,-43,-43,-29,-14,9
-43,-19,24,31,-34,2,-29,-43,-43,-29,-14,9
-43,-24,19,34,-31,-2,-29,-39,-43,-29,-9,9
-34,-24,9,29,-21,-7,-24,-39,-43,-29,-9,9
-29,-24,4,26,-17,-9,-24,-39,-43,-29,-14,9
-29,-14,14,21,-21,0,-29,-39,-48,-39,-24,9
-29,-29,0,29,-14,-14,-34,-34,-48,-58,-29,9
-29,-34,-4,31,-12,-19,-29,-39,-48,-58,-29,9
-34,-39,-4,36,-14,-21,-29,-39,-48,-53,-29,4
-24,-39,-14,31,-4,-26,-29,-39,-53,-58,-29,0
-14,-39,-24,26,4,-31,-24,-39,-58,-63,-34,-9
-14,-29,-14,21,0,-21,-24,-34,-58,-68,-34,-9
-14,-24,-9,19,-2,-17,-24,-29,-58,-68,-34,-9
-24,-24,0,24,-12,-12,-24,-29,-53,-68,-34,-9
-34,-29,4,31,-19,-12,-24,-29,-53,-68,-34,-9
-34,-29,4,31,-19,-12,-19,-29,-53,-68,-34,-9
-34,-29,4,31,-19,-12,-19,-34,-53,-68,-34,-14
-24,-34,-9,29,-7,-21,-19,-34,-58,-68,-34,-14
-24,-39,-14,31,-4,-26,-19,-34,-63,-63,-29,-14
-34,-39,-4,36,-14,-21,-19,-34,-63,-53,-24,-9
-48,-39,9,43,-29,-14,-19,-34,-63,-43,-24,-4
-48,-43,4,46,-26,-19,-19,-19,-43,-48,-29,-4
-34,-24,9,29,-21,-7,-19,-9,-24,-48,-29,-4
-29,-29,0,29,-14,-14,-14,-19,-39,-53,-29,-4
-24,-34,-9,29,-7,-21,-14,-29,-53,-53,-29,-4
-24,-34,-9,29,-7,-21,-14,-43,-53,-53,-29,0
-29,-34,-4,31,-12,-19,-14,-53,-53,-58,-34,4
-29,-43,-14,36,-7,-29,-19,-39,-53,-63,-34,0
-24,-34,-9,29,-7,-21,-19,-29,-43,-58,-34,0
-24,-34,-9,29,-7,-21,-24,-34,-48,-68,-34,0
-24,-34,-9,29,-7,-21,-29,-34,-58,-68,-34,0
-34,-39,-4,36,-14,-21,-29,-39,-58,-73,-43,0
-43,-39,4,41,-24,-17,-29,-39,-63,-73,-43,0
-43,-43,0,43,-21,-21,-39,-39,-63,-68,-39,-4
-43,-43,0,43,-21,-21,-39,-39,-58,-58,-29,-9
-34,-43,-9,39,-12,-26,-24,-39,-53,-68,-34,-14
-24,-48,-24,36,0,-36,-14,-43,-53,-82,-39,-19
-39,-48,-9,43,-14,-29,-14,-43,-53,-82,-43,-19
-48,-48,0,48,-24,-24,-14,-43,-63,-82,-43,-19
-48,-48,0,48,-24,-24,-19,-43,-63,-78,-34,-9
-43,-43,0,43,-21,-21,-24,-43,-58,-63,-24,0
-39,-43,-4,41,-17,-24,-29,-43,-58,-63,-24,0
-29,-43,-14,36,-7,-29,-34,-48,-63,-63,-24,0
-34,-43,-9,39,-12,-26,-39,-53,-63,-63,-34,-9
-43,-48,-4,46,-19,-26,-39,-53,-63,-63,-43,-24
-43,-39,4,41,-24,-17,-34,-48,-63,-63,-39,-29
-34,-39,-4,36,-14,-21,-34,-43,-63,-63,-39,-24
-29,-53,-24,41,-2,-39,-34,-43,-58,-63,-39,-14
-24,-58,-34,41,4,-46,-34,-43,-53,-58,-29,-9
-24,-58,-34,41,4,-46,-34,-48,-58,-68,-39,-14
-29,-58,-29,43,0,-43,-39,-58,-68,-78,-48,-19
-29,-58,-29,43,0,-43,-39,-53,-68,-78,-48,-19
-29,-58,-29,43,0,-43,-39,-48,-68,-78,-48,-19
-34,-53,-19,43,-7,-36,-39,-48,-68,-73,-39,-9
-29,-48,-19,39,-4,-34,-39,-48,-63,-63,-29,0
-24,-43,-19,34,-2,-31,-39,-48,-63,-58,-24,4
-14,-43,-29,29,7,-36,-39,-39,-58,-48,-24,4
0,-34,-34,17,17,-34,-29,-19,-43,-48,-19,0
19,-14,-34,-2,26,-24,-19,0,-24,-34,-9,9
34,-4,-39,-14,36,-21,-19,9,-14,-39,-9,19
58,0,-58,-29,58,-29,-19,24,4,-34,-9,29
87,0,-87,-43,87,-43,-24,39,14,-4,29,48
117,0,-117,-58,117,-58,-39,58,29,19,48,63
156,0,-156,-78,156,-78,-24,63,39,34,53,63
161,0,-161,-80,161,-80,-29,53,34,43,58,63
146,0,-146,-73,146,-73,-68,24,14,29,43,58
131,9,-122,-70,126,-56,-122,-19,-14,0,29,53
131,24,-107,-78,119,-41,-126,-39,-19,0,29,58
141,24,-117,-82,129,-46,-126,-43,-19,-4,29,63
141,14,-126,-78,134,-56,-122,-43,-34,-4,29,63
141,0,-141,-70,141,-70,-107,-43,-34,-4,34,63
117,0,-117,-58,117,-58,-102,-43,-39,-9,34,63
107,0,-107,-53,107,-53,-97,-43,-43,-14,34,63
92,14,-78,-53,85,-31,-102,-43,-43,-14,24,58
87,29,-58,-58,73,-14,-102,-58,-53,-29,14,43
82,9,-73,-46,78,-31,-97,-87,-82,-73,-14,24
68,-9,-78,-29,73,-43,-92,-112,-102,-97,-43,14
39,-24,-63,-7,51,-43,-92,-102,-102,-92,-39,4
-9,-43,-34,26,12,-39,-78,-92,-97,-82,-43,-14
-39,-48,-9,43,-14,-29,-53,-82,-97,-82,-53,-24
-48,-48,0,48,-24,-24,-43,-73,-97,-78,-48,-19
-53,-53,0,53,-26,-26,-48,-78,-97,-87,-48,-19
-58,-53,4,56,-31,-24,-48,-78,-97,-92,-43,-14
-63,-53,9,58,-36,-21,-43,-78,-97,-97,-53,-19
-78,-58,19,68,-48,-19,-43,-78,-102,-102,-63,-29
-78,-53,24,65,-51,-14,-43,-78,-102,-102,-68,-29
-73,-48,24,61,-48,-12,-34,-78,-97,-102,-68,-29
-63,-43,19,53,-41,-12,-39,-82,-97,-102,-63,-29
-53,-43,9,48,-31,-17,-43,-87,-97,-92,-63,-29
-63,-53,9,58,-36,-21,-34,-82,-78,-92,-63,-29
-87,-63,24,75,-56,-19,-9,-34,-48,-78,-68,-39
-107,-78,29,92,-68,-24,73,102,4,-63,-78,-73
-146,-102,43,124,-95,-29,156,268,73,-63,-107,-117
-190,-122,68,156,-129,-26,229,326,97,-92,-161,-161
-219,-82,136,151,-178,26,234,278,126,-63,-131,-136
-244,4,248,119,-246,126,224,175,195,14,-58,-68
-151,131,283,9,-217,207,131,73,336,209,122,82
180,356,175,-268,2,265,-107,58,610,595,502,395
512,658,146,-585,183,402,-439,-4,824,941,819,697
927,912,-14,-919,470,448,-1000,-244,893,1190,1102,966
1215,688,-527,-951,871,80,-1473,-702,385,829,858,819
976,9,-966,-492,971,-478,-1654,-2093,-1576,-1151,-551,-131
878,-600,-1478,-139,1178,-1039,-1522,-2610,-2425,-2034,-1288,-712
897,-644,-1542,-126,1220,-1093,-1371,-2444,-2313,-1854,-1137,-600
746,-419,-1166,-163,956,-793,-1078,-1912,-1786,-1366,-780,-356
424,-165,-590,-129,507,-378,-653,-1224,-1083,-800,-395,-102
136,-48,-185,-43,161,-117,-317,-673,-566,-414,-170,0
-63,-48,14,56,-39,-17,-73,-287,-244,-219,-117,-19
-122,-48,73,85,-97,12,48,-63,-107,-131,-73,-39
-102,-39,63,70,-82,12,73,-4,-48,-68,-48,-34
-97,-39,58,68,-78,9,82,9,-9,-48,-39,-29
-97,-48,48,73,-73,0,78,39,-24,-63,-48,-39
-102,-58,43,80,-73,-7,73,53,-43,-73,-68,-48
-102,-68,34,85,-68,-17,82,63,-29,-73,-68,-53
-102,-78,24,90,-63,-26,92,73,-14,-48,-58,-53
-107,-78,29,92,-68,-24,102,82,-9,-53,-53,-53
-117,-78,39,97,-78,-19,107,97,-14,-63,-53,-53
-131,-97,34,114,-82,-31,112,112,-9,-63,-53,-63
-141,-112,29,126,-85,-41,117,117,0,-58,-53,-63
-102,-87,14,95,-58,-36,122,122,4,-53,-53,-58
-73,-68,4,70,-39,-31,126,126,9,-53,-53,-58
-78,-73,4,75,-41,-34,126,136,14,-48,-53,-53
-78,-73,4,75,-41,-34,126,136,29,-29,-48,-53
-78,-78,0,78,-39,-39,136,141,39,-29,-48,-53
-82,-82,0,82,-41,-41,136,156,39,-29,-43,-53
-78,-82,-4,80,-36,-43,141,170,34,-24,-43,-53
-78,-82,-4,80,-36,-43,146,180,39,-19,-43,-53
-73,-82,-9,78,-31,-46,151,180,39,-29,-53,-63
-73,-82,-9,78,-31,-46,161,190,43,-43,-63,-73
-82,-92,-9,87,-36,-51,161,204,48,-14,-39,-53
-87,-92,-4,90,-41,-48,161,214,48,14,-9,-29
-92,-92,0,92,-46,-46,165,229,68,29,-9,-24
-87,-92,-4,90,-41,-48,161,234,82,39,-9,-24
-82,-97,-14,90,-34,-56,161,244,82,29,-9,-34
-82,-102,-19,92,-31,-61,170,253,97,29,-14,-43
-78,-102,-24,90,-26,-63,175,258,102,34,-14,-43
-63,-97,-34,80,-14,-65,180,268,112,34,-14,-43
-58,-97,-39,78,-9,-68,185,273,112,39,-4,-34
-53,-97,-43,75,-4,-70,185,283,117,48,-4,-24
-39,-97,-58,68,9,-78,190,278,117,48,-9,-34
-29,-97,-68,63,19,-82,195,283,126,48,-9,-43
-48,-97,-48,73,0,-73,200,297,126,39,-19,-43
-63,-92,-29,78,-17,-61,204,312,131,34,-24,-39
-53,-78,-24,65,-14,-51,214,322,141,43,-4,-34
-43,-63,-19,53,-12,-41,219,331,151,68,14,-34
-43,-68,-24,56,-9,-46,229,336,161,92,19,-19
-43,-68,-24,56,-9,-46,234,346,165,107,29,-9
-53,-68,-14,61,-19,-41,239,375,200,117,43,0
-58,-68,-9,63,-24,-39,248,390,224,131,58,4
-63,-68,-4,65,-29,-36,253,395,229,141,58,4
-63,-53,9,58,-36,-21,258,409,244,151,63,14
-63,-53,9,58,-36,-21,273,409,248,156,73,24
-63,-39,24,51,-43,-7,287,419,248,161,82,24
-58,-34,24,46,-41,-4,292,419,258,165,87,24
-58,-29,29,43,-43,0,302,419,263,165,87,29
-63,-29,34,46,-48,2,307,419,273,185,97,39
-63,-14,48,39,-56,17,312,419,292,195,107,43
-78,-9,68,43,-73,29,326,429,307,209,117,58
-92,0,92,46,-92,46,341,439,312,224,126,58
-97,9,107,43,-102,58,341,444,322,234,131,58
-97,19,117,39,-107,68,341,434,326,239,136,73
-97,34,131,31,-114,82,331,424,326,248,141,82
-102,39,141,31,-122,90,322,400,322,248,146,78
-122,53,175,34,-148,114,312,370,307,234,146,78
-136,58,195,39,-165,126,292,346,297,214,141,78
-126,78,204,24,-165,141,268,317,292,214,141,82
-122,97,219,12,-170,158,248,292,283,219,141,87
-117,102,219,7,-168,161,224,258,263,214,141,92
-117,112,229,2,-173,170,195,219,248,200,136,92
-112,117,229,-2,-170,173,175,180,209,180,131,92
-107,117,224,-4,-165,170,141,131,170,170,126,92
-92,126,219,-17,-156,173,112,117,170,170,122,92
-87,126,214,-19,-151,170,87,92,165,151,117,97
-97,112,209,-7,-153,161,68,53,141,146,112,107
-107,97,204,4,-156,151,48,39,122,141,97,97
-97,97,195,0,-146,146,24,14,97,107,87,92
-87,92,180,-2,-134,136,4,-14,73,87,87,92
-73,82,156,-4,-114,119,0,-24,58,73,82,87
-68,82,151,-7,-109,117,-9,-24,48,53,78,82
-58,73,131,-7,-95,102,-9,-29,39,53,78,82
-53,68,122,-7,-87,95,-14,-34,34,48,73,82
-39,63,102,-12,-70,82,-14,-34,9,24,43,63
-24,58,82,-17,-53,70,-14,-34,9,14,34,53
-19,53,73,-17,-46,63,-24,-43,-4,4,24,43
-14,48,63,-17,-39,56,-24,-48,-14,-9,14,39
-14,34,48,-9,-31,41,-24,-43,-14,-19,4,39
-14,29,43,-7,-29,36,-29,-39,-24,-19,0,29
-24,29,53,-2,-39,41,-29,-34,-24,-24,-4,19
-34,19,53,7,-43,36,-29,-34,-24,-19,-4,19
-24,14,39,4,-31,26,-29,-29,-19,-19,0,19
-4,14,19,-4,-12,17,-24,-29,-14,-19,0,19
0,14,14,-7,-7,14,-24,-29,-14,-24,-4,9
0,24,24,-12,-12,24,-24,-29,-19,-29,-9,0
-9,9,19,0,-14,14,-24,-24,-19,-39,-9,9
-19,4,24,7,-21,14,-19,-24,-19,-39,-9,19
-24,-4,19,14,-21,7,-19,-19,-19,-34,-9,14
-24,-9,14,17,-19,2,-24,-19,-19,-34,-9,14
-19,-9,9,14,-14,0,-24,-19,-19,-34,-14,9
-14,-4,9,9,-12,2,-24,-19,-19,-39,-14,9
-14,-4,9,9,-12,2,-24,-19,-19,-29,-9,14
-14,-4,9,9,-12,2,-24,-19,-14,-19,-4,19
-24,-9,14,17,-19,2,-29,-19,-14,-19,-4,19
-34,-9,24,21,-29,7,-29,-14,-14,-19,-4,19
-24,-9,14,17,-19,2,-29,-14,-14,-24,-9,9
-14,-9,4,12,-9,-2,-29,-14,-14,-29,-14,4
-24,-14,9,19,-17,-2,-29,-14,-19,-29,-14,4
-24,-19,4,21,-14,-7,-29,-14,-24,-34,-19,4
-39,-19,19,29,-29,0,-29,-24,-34,-34,-24,4
-48,-34,14,41,-31,-9,-29,-34,-43,-39,-29,4
-24,-14,9,19,-17,-2,-24,-24,-29,-24,-24,4
-14,0,14,7,-14,7,-14,-9,-14,-9,-14,4
-14,4,19,4,-17,12,-14,-9,-14,-14,-9,4
-14,4,19,4,-17,12,-14,-14,-14,-24,-9,4
-9,4,14,2,-12,9,-14,-19,-19,-29,-14,4
0,-4,-4,2,2,-4,-19,-19,-34,-29,-14,0
-4,0,4,2,-4,2,-19,-19,-34,-19,-14,-4
-14,-4,9,9,-12,2,-19,-24,-29,-29,-14,-9
-14,-4,9,9,-12,2,-19,-24,-29,-34,-19,-9
-14,-9,4,12,-9,-2,-19,-29,-29,-43,-34,-9
-19,-9,9,14,-14,0,-14,-29,-34,-43,-34,-9
-24,-14,9,19,-17,-2,-19,-29,-34,-39,-29,-4
-24,-19,4,21,-14,-7,-19,-29,-34,-29,-19,0
-24,-19,4,21,-14,-7,-14,-24,-34,-24,-19,0
-24,-24,0,24,-12,-12,-24,-29,-34,-24,-19,-4
-29,-29,0,29,-14,-14,-34,-34,-34,-34,-24,-9
-43,-29,14,36,-29,-7,-34,-34,-43,-43,-24,-9
-58,-29,29,43,-43,0,-34,-34,-43,-43,-24,-9
-43,-19,24,31,-34,2,-24,-34,-39,-34,-24,-9
-29,-14,14,21,-21,0,-19,-34,-39,-34,-24,-9
-19,-14,4,17,-12,-4,-24,-39,-43,-43,-34,-14
-19,-9,9,14,-14,0,-29,-43,-43,-53,-43,-19
-34,-24,9,29,-21,-7,-39,-48,-48,-53,-43,-24
-43,-29,14,36,-29,-7,-43,-48,-53,-53,-39,-24
-34,-19,14,26,-24,-2,-43,-43,-53,-53,-39,-14
-34,-24,9,29,-21,-7,-43,-43,-53,-53,-34,-4
-34,-29,4,31,-19,-12,-39,-43,-53,-53,-34,-9
-39,-39,0,39,-19,-19,-39,-48,-58,-58,-39,-19
-24,-24,0,24,-12,-12,-39,-43,-53,-58,-39,-14
-9,-9,0,9,-4,-4,-39,-39,-48,-58,-39,-9
-4,-9,-4,7,0,-7,-39,-39,-48,-58,-39,-9
4,-4,-9,0,7,-7,-34,-39,-43,-53,-34,-4
14,-4,-19,-4,17,-12,-34,-39,-43,-53,-34,-4
24,-4,-29,-9,26,-17,-29,-29,-39,-48,-34,-4
34,-9,-43,-12,39,-26,-24,-9,-29,-39,-19,0
48,-4,-53,-21,51,-29,-19,9,-14,-14,0,19
63,19,-43,-41,53,-12,-19,24,0,0,9,34
87,39,-48,-63,68,-4,-19,43,24,24,19,48
117,39,-78,-78,97,-19,-19,53,34,39,48,63
146,39,-107,-92,126,-34,-29,68,48,48,58,73
170,29,-141,-100,156,-56,-29,68,48,48,58,73
161,19,-141,-90,151,-61,-48,53,34,43,58,73
131,4,-126,-68,129,-61,-82,14,9,24,39,63
102,0,-102,-51,102,-51,-131,-39,-24,-9,19,53
112,24,-87,-68,100,-31,-136,-53,-29,-9,19,53
131,34,-97,-82,114,-31,-136,-53,-29,-14,19,53
156,48,-107,-102,131,-29,-136,-53,-43,-14,19,53
180,58,-122,-119,151,-31,-126,-53,-43,-14,24,53
146,39,-107,-92,126,-34,-122,-53,-43,-14,24,53
126,19,-107,-73,117,-43,-117,-53,-43,-14,24,53
102,19,-82,-61,92,-31,-126,-58,-43,-14,14,48
87,19,-68,-53,78,-24,-131,-78,-53,-29,4,34
68,9,-58,-39,63,-24,-122,-87,-68,-48,-14,14
39,0,-39,-19,39,-19,-112,-92,-73,-48,-34,4
34,-9,-43,-12,39,-26,-97,-87,-82,-63,-43,-4
9,-24,-34,7,21,-29,-68,-82,-87,-73,-63,-24
-19,-29,-9,24,-4,-19,-53,-82,-97,-87,-78,-39
-29,-29,0,29,-14,-14,-53,-82,-107,-97,-78,-39
-34,-34,0,34,-17,-17,-58,-87,-112,-97,-78,-39
-39,-34,4,36,-21,-14,-58,-87,-117,-92,-73,-34
-48,-39,9,43,-29,-14,-63,-87,-126,-92,-73,-34
-68,-48,19,58,-43,-14,-73,-87,-141,-92,-73,-39
-68,-48,19,58,-43,-14,-73,-87,-141,-82,-73,-39
-63,-48,14,56,-39,-17,-63,-87,-136,-73,-68,-39
-53,-43,9,48,-31,-17,-63,-82,-136,-82,-63,-39
-43,-43,0,43,-21,-21,-63,-78,-136,-82,-63,-39
-53,-53,0,53,-26,-26,-53,-78,-131,-82,-63,-34
-78,-63,14,70,-46,-24,-29,-34,-117,-68,-68,-39
-97,-78,19,87,-58,-29,48,92,-63,-53,-82,-73
-136,-102,34,119,-85,-34,126,248,4,-53,-117,-117
-180,-122,58,151,-119,-31,214,312,29,-92,-185,-175
-209,-82,126,146,-168,21,234,268,58,-73,-170,-165
-263,-4,258,134,-261,126,224,141,107,-29,-107,-107
-200,112,312,43,-256,212,131,14,229,131,63,34
107,312,204,-209,-48,258,-82,14,527,541,448,351
414,590,175,-502,119,383,-390,-34,766,912,771,658
888,912,24,-900,431,468,-980,-248,902,1234,1122,976
1234,756,-478,-995,856,139,-1483,-683,463,946,946,878
985,68,-917,-527,951,-424,-1698,-2156,-1566,-1107,-531,-122
878,-551,-1429,-163,1154,-990,-1600,-2757,-2483,-2064,-1337,-751
927,-614,-1542,-156,1234,-1078,-1449,-2586,-2405,-1917,-1205,-653
805,-409,-1215,-197,1010,-812,-1156,-2049,-1912,-1464,-868,-424
458,-156,-614,-151,536,-385,-712,-1317,-1176,-854,-453,-146
146,-39,-185,-53,165,-112,-356,-722,-624,-424,-200,-19
-53,-48,4,51,-29,-21,-102,-317,-302,-209,-126,-29
-112,-58,53,85,-82,-2,29,-73,-165,-102,-63,-39
-102,-58,43,80,-73,-7,53,-14,-107,-34,-39,-29
-107,-68,39,87,-73,-14,63,0,-68,-9,-29,-19
-92,-68,24,80,-58,-21,68,39,-73,-34,-39,-34
-82,-68,14,75,-48,-26,73,63,-82,-53,-58,-48
-92,-73,19,82,-56,-26,87,73,-68,-53,-63,-53
-102,-78,24,90,-63,-26,102,82,-53,-29,-58,-53
-102,-82,19,92,-61,-31,107,82,-53,-39,-58,-53
-107,-87,19,97,-63,-34,107,87,-63,-53,-63,-53
-107,-97,9,102,-58,-43,107,102,-63,-53,-68,-73
-102,-102,0,102,-51,-51,107,107,-58,-48,-73,-82
-97,-102,-4,100,-46,-53,112,117,-53,-48,-73,-78
-102,-107,-4,104,-48,-56,117,126,-48,-53,-73,-78
-107,-112,-4,109,-51,-58,117,131,-48,-58,-78,-73
-107,-112,-4,109,-51,-58,117,126,-39,-48,-78,-73
-102,-112,-9,107,-46,-61,126,131,-29,-48,-78,-73
-102,-112,-9,107,-46,-61,126,146,-29,-48,-73,-73
-87,-102,-14,95,-36,-58,131,165,-29,-43,-68,-68
-78,-92,-14,85,-31,-53,136,180,-19,-39,-63,-63
-68,-82,-14,75,-26,-48,141,180,-9,-14,-53,-58
-63,-73,-9,68,-26,-41,151,190,4,4,-43,-53
-68,-92,-24,80,-21,-58,151,204,14,14,-39,-53
-68,-102,-34,85,-17,-68,151,214,19,24,-29,-48
-68,-102,-34,85,-17,-68,161,229,29,24,-29,-43
-58,-102,-43,80,-7,-73,161,234,34,19,-29,-43
-63,-102,-39,82,-12,-70,161,244,34,19,-24,-43
-73,-102,-29,87,-21,-65,170,253,48,29,-24,-43
-73,-102,-29,87,-21,-65,170,258,53,34,-24,-48
-63,-97,-34,80,-14,-65,170,268,63,34,-24,-53
-58,-97,-39,78,-9,-68,175,268,53,29,-19,-53
-53,-97,-43,75,-4,-70,175,273,48,29,-24,-53
-48,-97,-48,73,0,-73,180,278,53,34,-24,-53
-48,-97,-48,73,0,-73,185,292,68,39,-19,-53
-48,-102,-53,75,2,-78,190,297,68,39,-24,-53
-43,-102,-58,73,7,-80,195,302,73,43,-24,-48
-43,-102,-58,73,7,-80,204,312,82,43,-19,-48
-43,-102,-58,73,7,-80,209,322,92,58,-14,-53
-53,-97,-43,75,-4,-70,219,326,102,73,-9,-43
-63,-87,-24,75,-19,-56,224,336,107,78,0,-39
-68,-87,-19,78,-24,-53,224,351,126,82,9,-34
-68,-87,-19,78,-24,-53,229,351,136,92,19,-34
-63,-87,-24,75,-19,-56,234,356,141,102,19,-34
-53,-73,-19,63,-17,-46,239,370,156,112,24,-24
-53,-68,-14,61,-19,-41,253,385,175,126,39,-14
-53,-48,4,51,-29,-21,268,409,190,141,53,-14
-58,-43,14,51,-36,-14,278,409,200,146,58,-14
-68,-39,29,53,-48,-4,292,409,204,146,58,-9
-73,-39,34,56,-53,-2,297,414,209,165,68,0
-73,-24,48,48,-61,12,302,419,224,175,78,4
-82,-24,58,53,-70,17,317,424,244,185,82,19
-92,-19,73,56,-82,26,331,429,253,195,87,19
-82,-9,73,46,-78,31,331,429,263,204,92,19
-68,0,68,34,-68,34,331,414,268,209,97,34
-78,19,97,29,-87,58,331,409,268,219,107,53
-92,29,122,31,-107,75,331,390,263,219,117,58
-107,34,141,36,-124,87,322,366,253,219,122,58
-117,29,146,43,-131,87,302,346,248,214,122,58
-117,43,161,36,-139,102,273,312,234,204,122,58
-122,58,180,31,-151,119,248,283,214,200,122,58
-122,63,185,29,-153,124,224,248,195,195,122,63
-126,73,200,26,-163,136,195,209,180,180,117,63
-126,78,204,24,-165,141,175,175,156,146,102,58
-126,78,204,24,-165,141,141,131,131,122,87,53
-112,87,200,12,-156,143,117,107,122,122,82,53
-107,87,195,9,-151,141,97,73,107,102,78,58
-102,82,185,9,-143,134,73,34,82,102,82,73
-97,78,175,9,-136,126,48,19,63,102,78,68
-87,78,165,4,-126,122,24,4,43,82,68,63
-78,73,151,2,-114,112,4,-14,24,78,68,63
-63,63,126,0,-95,95,0,-24,14,63,53,53
-58,63,122,-2,-90,92,-9,-24,9,43,39,43
-48,53,102,-2,-75,78,-14,-39,0,39,39,43
-43,48,92,-2,-68,70,-24,-53,-4,29,34,43
-48,29,78,9,-63,53,-29,-53,-34,4,14,29
-53,9,63,21,-58,36,-34,-53,-39,-4,14,24
-39,24,63,7,-51,43,-43,-53,-43,-9,4,19
-24,39,63,-7,-43,51,-43,-48,-43,-19,-4,19
-24,24,48,0,-36,36,-29,-43,-43,-19,0,24
-24,19,43,2,-34,31,-19,-39,-53,-9,9,19
-29,14,43,7,-36,29,-19,-34,-53,-19,-4,9
-34,0,34,17,-34,17,-19,-34,-53,-19,-14,9
-34,-9,24,21,-29,7,-24,-29,-53,-34,-19,0
-24,-14,9,19,-17,-2,-24,-29,-53,-48,-29,-9
-19,-14,4,17,-12,-4,-24,-34,-53,-48,-34,-9
-19,-4,14,12,-17,4,-24,-39,-58,-48,-39,-9
-14,-19,-4,17,-4,-12,-24,-34,-58,-58,-34,-9
-9,-24,-14,17,2,-19,-19,-34,-58,-58,-29,-9
-14,-29,-14,21,0,-21,-19,-29,-68,-53,-29,-14
-14,-29,-14,21,0,-21,-24,-29,-78,-53,-29,-14
-24,-29,-4,26,-9,-17,-24,-29,-63,-48,-34,-19
-34,-24,9,29,-21,-7,-24,-29,-48,-48,-34,-19
-34,-24,9,29,-21,-7,-24,-29,-58,-48,-34,-19
-34,-24,9,29,-21,-7,-24,-29,-63,-48,-34,-19
-29,-29,0,29,-14,-14,-24,-29,-63,-48,-34,-19
-24,-29,-4,26,-9,-17,-19,-24,-63,-48,-34,-19
-24,-29,-4,26,-9,-17,-19,-24,-58,-48,-34,-24
-24,-29,-4,26,-9,-17,-19,-24,-53,-48,-34,-24
-24,-29,-4,26,-9,-17,-19,-24,-53,-48,-34,-24
-14,-29,-14,21,0,-21,-19,-24,-53,-53,-39,-24
-29,-29,0,29,-14,-14,-19,-29,-53,-53,-43,-24
-39,-43,-4,41,-17,-24,-19,-34,-53,-58,-48,-24
-39,-39,0,39,-19,-19,-19,-39,-53,-53,-43,-24
-53,-39,14,46,-34,-12,-14,-39,-53,-48,-34,-24
-34,-34,0,34,-17,-17,-9,-34,-53,-43,-29,-24
-14,-34,-19,24,2,-26,-4,-34,-53,-43,-29,-24
-19,-34,-14,26,-2,-24,-4,-34,-53,-48,-34,-24
-19,-43,-24,31,2,-34,-9,-29,-63,-48,-34,-29
-24,-39,-14,31,-4,-26,-9,-29,-63,-39,-34,-29
-34,-43,-9,39,-12,-26,-9,-34,-58,-48,-34,-29
-34,-43,-9,39,-12,-26,-9,-34,-58,-58,-39,-29
-34,-48,-14,41,-9,-31,-9,-39,-58,-73,-53,-29
-29,-43,-14,36,-7,-29,-9,-39,-68,-73,-63,-39
-24,-43,-19,34,-2,-31,-19,-39,-73,-68,-68,-43
-24,-43,-19,34,-2,-31,-19,-39,-68,-43,-39,-29
-24,-39,-14,31,-4,-26,-14,-34,-63,-24,-19,-19
-24,-43,-19,34,-2,-31,-14,-34,-63,-24,-19,-19
-29,-48,-19,39,-4,-34,-14,-34,-63,-34,-24,-19
-29,-48,-19,39,-4,-34,-14,-34,-73,-53,-29,-19
-29,-48,-19,39,-4,-34,-14,-34,-73,-63,-34,-19
-29,-48,-19,39,-4,-34,-9,-34,-68,-53,-34,-19
-29,-53,-24,41,-2,-39,-9,-34,-68,-53,-34,-19
-24,-58,-34,41,4,-46,-14,-39,-73,-53,-34,-19
-29,-58,-29,43,0,-43,-19,-43,-73,-53,-34,-19
-43,-68,-24,56,-9,-46,-24,-53,-73,-58,-43,-29
-48,-68,-19,58,-14,-43,-24,-58,-73,-63,-48,-29
-34,-58,-24,46,-4,-41,-19,-48,-78,-63,-48,-29
-19,-53,-34,36,7,-43,-19,-43,-82,-68,-53,-29
-14,-48,-34,31,9,-41,-24,-43,-82,-68,-53,-29
-9,-48,-39,29,14,-43,-29,-48,-87,-68,-58,-29
9,-43,-53,17,31,-48,-29,-48,-82,-68,-58,-29
29,-39,-68,4,48,-53,-29,-48,-78,-68,-58,-29
4,-39,-43,17,24,-41,-24,-39,-68,-63,-48,-29
4,-39,-43,17,24,-41,-19,-29,-58,-53,-39,-24
4,-43,-48,19,26,-46,-19,-19,-48,-48,-34,-24
24,-43,-68,9,46,-56,-14,-4,-39,-48,-24,-19
39,-24,-63,-7,51,-43,-9,14,-24,-34,-4,4
53,-14,-68,-19,61,-41,-9,29,-14,-19,9,19
78,-9,-87,-34,82,-48,-9,48,4,9,19,29
107,-9,-117,-48,112,-63,-14,63,14,29,43,43
156,-4,-161,-75,158,-82,-29,78,29,39,48,53
200,-9,-209,-95,204,-109,-29,78,29,39,48,53
175,-14,-190,-80,183,-102,-48,43,14,34,48,53
146,-9,-156,-68,151,-82,-68,-4,-4,19,34,48
131,0,-131,-65,131,-65,-102,-39,-34,-9,19,43
131,14,-117,-73,124,-51,-107,-43,-39,-9,19,43
146,14,-131,-80,139,-58,-107,-43,-39,-14,19,43
151,9,-141,-80,146,-65,-107,-43,-53,-14,19,43
151,4,-146,-78,148,-70,-102,-43,-53,-9,24,48
136,9,-126,-73,131,-58,-102,-43,-53,-4,24,53
136,9,-126,-73,131,-58,-97,-43,-53,-4,24,53
112,9,-102,-61,107,-46,-97,-43,-53,-4,14,48
92,9,-82,-51,87,-36,-92,-58,-63,-19,9,39
68,-9,-78,-29,73,-43,-82,-68,-78,-43,-4,24
39,-29,-68,-4,53,-48,-73,-73,-82,-53,-24,14
34,-39,-73,2,53,-56,-73,-73,-92,-73,-29,4
9,-58,-68,24,39,-63,-53,-73,-97,-92,-48,-19
-14,-68,-53,41,19,-61,-34,-73,-102,-112,-68,-39
-24,-68,-43,46,9,-56,-34,-73,-102,-107,-68,-39
-34,-73,-39,53,2,-56,-39,-78,-97,-97,-68,-39
-39,-73,-34,56,-2,-53,-43,-78,-97,-87,-63,-34
-43,-73,-29,58,-7,-51,-43,-78,-97,-82,-63,-34
-63,-78,-14,70,-24,-46,-43,-78,-102,-82,-63,-39
-68,-78,-9,73,-29,-43,-43,-78,-102,-82,-68,-39
-63,-87,-24,75,-19,-56,-34,-78,-97,-82,-68,-43
-63,-92,-29,78,-17,-61,-34,-73,-97,-82,-63,-48
-58,-78,-19,68,-19,-48,-24,-63,-97,-78,-68,-48
-53,-73,-19,63,-17,-46,-4,-39,-78,-82,-73,-48
-68,-82,-14,75,-26,-48,19,24,-58,-78,-82,-63
-87,-97,-9,92,-39,-53,97,141,-14,-73,-102,-102
-151,-131,19,141,-85,-56,175,273,43,-82,-136,-146
-209,-141,68,175,-139,-36,244,302,68,-122,-190,-190
-214,-82,131,148,-173,24,229,214,107,-73,-146,-146
-214,19,234,97,-224,126,175,63,175,34,-34,-34
-73,175,248,-51,-161,212,43,-24,341,248,190,141
263,390,126,-326,68,258,-214,-24,629,653,580,444
575,649,73,-612,251,361,-580,-156,790,961,844,722
956,819,-136,-888,546,341,-1107,-453,692,1034,1000,917
1180,531,-649,-856,915,-58,-1556,-1049,48,531,634,663
936,-107,-1044,-414,990,-575,-1698,-2405,-1790,-1342,-722,-278
839,-634,-1473,-102,1156,-1054,-1483,-2684,-2430,-2044,-1312,-751
849,-600,-1449,-124,1149,-1024,-1322,-2415,-2200,-1766,-1088,-580
673,-375,-1049,-148,861,-712,-976,-1781,-1629,-1224,-707,-322
351,-185,-536,-82,444,-361,-556,-1083,-961,-692,-356,-97
87,-97,-185,4,136,-141,-263,-595,-488,-356,-156,-19
-87,-97,-9,92,-39,-53,-29,-219,-204,-161,-87,-19
-112,-92,19,102,-65,-36,68,-24,-102,-92,-58,-39
-78,-78,0,78,-39,-39,92,24,-48,-53,-48,-39
-68,-78,-9,73,-29,-43,102,24,-19,-39,-39,-29
-68,-87,-19,78,-24,-53,102,39,-39,-53,-48,-39
-73,-97,-24,85,-24,-61,102,53,-53,-63,-63,-48
-73,-102,-29,87,-21,-65,112,63,-39,-63,-58,-53
-78,-107,-29,92,-24,-68,122,78,-24,-29,-48,-53
-82,-107,-24,95,-29,-65,126,92,-14,-19,-43,-53
-92,-107,-14,100,-39,-61,126,107,-14,-24,-43,-53
-97,-112,-14,104,-41,-63,131,122,-9,-24,-43,-63
-92,-117,-24,104,-34,-70,136,126,0,-29,-48,-68
-82,-117,-34,100,-24,-75,141,136,4,-34,-53,-68
-82,-117,-34,100,-24,-75,146,146,4,-34,-53,-68
-87,-122,-34,104,-26,-78,146,156,0,-34,-53,-63
-92,-122,-29,107,-31,-75,146,156,9,-19,-48,-63
-92,-122,-29,107,-31,-75,156,161,19,-19,-48,-63
-92,-122,-29,107,-31,-75,156,175,19,-19,-48,-63
-87,-122,-34,104,-26,-78,161,185,19,-14,-53,-63
-82,-122,-39,102,-21,-80,165,190,24,-19,-53,-63
-73,-122,-48,97,-12,-85,165,190,24,-24,-53,-63
-73,-122,-48,97,-12,-85,170,195,34,-24,-53,-63
-78,-131,-53,104,-12,-92,170,204,39,-14,-48,-63
-78,-131,-53,104,-12,-92,170,214,39,4,-29,-58
-78,-131,-53,104,-12,-92,180,229,48,19,-19,-53
-68,-131,-63,100,-2,-97,180,244,58,19,-19,-53
-63,-131,-68,97,2,-100,180,263,63,19,-14,-53
-63,-136,-73,100,4,-104,195,273,78,29,-19,-53
-63,-141,-78,102,7,-109,200,278,82,34,-24,-53
-48,-136,-87,92,19,-112,200,287,92,34,-24,-53
-43,-136,-92,90,24,-114,204,292,92,39,-14,-53
-34,-136,-102,85,34,-119,204,297,82,39,-24,-53
-19,-136,-117,78,48,-126,209,297,73,34,-34,-53
-34,-136,-102,85,34,-119,214,312,97,39,-14,-48
-53,-136,-82,95,14,-109,219,317,107,39,0,-43
-53,-131,-78,92,12,-104,224,326,117,53,4,-39
-53,-131,-78,92,12,-104,234,341,131,63,9,-34
-53,-131,-78,92,12,-104,239,351,141,78,14,-39
-53,-126,-73,90,9,-100,248,356,151,92,19,-34
-53,-112,-58,82,2,-85,248,366,151,97,24,-29
-58,-107,-48,82,-4,-78,248,380,165,102,29,-24
-63,-107,-43,85,-9,-75,258,380,175,107,39,-24
-73,-107,-34,90,-19,-70,263,385,180,112,39,-24
-73,-92,-19,82,-26,-56,268,395,195,117,39,-19
-73,-92,-19,82,-26,-56,278,390,200,122,43,-14
-73,-87,-14,80,-29,-51,292,400,204,131,53,-14
-78,-92,-14,85,-31,-53,302,400,219,136,58,-14
-53,-73,-19,63,-17,-46,312,405,224,126,58,-19
-24,-58,-34,41,4,-46,317,409,229,136,68,-19
-48,-53,-4,51,-21,-29,331,419,248,161,82,0
-82,-58,24,70,-53,-17,351,429,268,185,97,29
-92,-53,39,73,-65,-7,361,429,273,195,107,29
-97,-48,48,73,-73,0,361,424,278,200,112,29
-107,-39,68,73,-87,14,356,405,278,190,117,34
-126,-29,97,78,-112,34,341,395,278,190,122,39
-126,-19,107,73,-117,43,331,385,278,204,131,48
-112,4,117,53,-114,61,322,370,268,214,136,58
-107,0,107,53,-107,53,302,346,258,209,131,58
-107,4,112,51,-109,58,278,312,244,204,131,58
-122,14,136,53,-129,75,258,283,229,200,131,58
-131,14,146,58,-139,80,234,248,214,195,131,63
-136,24,161,56,-148,92,209,209,209,190,126,63
-136,29,165,53,-151,97,195,185,195,180,122,63
-131,34,165,48,-148,100,161,151,170,161,117,58
-112,48,161,31,-136,104,136,126,156,151,112,53
-107,48,156,29,-131,102,112,92,136,126,107,58
-102,48,151,26,-126,100,87,53,112,107,102,68
-97,43,141,26,-119,92,68,29,82,92,82,58
-87,39,126,24,-107,82,43,9,58,68,68,53
-78,34,112,21,-95,73,24,-4,43,58,68,53
-68,24,92,21,-80,58,19,-14,34,43,58,48
-68,19,87,24,-78,53,-4,-34,9,4,34,34
-58,4,63,26,-61,34,-19,-53,-14,-14,19,24
-53,0,53,26,-53,26,-24,-53,-4,0,29,34
-48,-4,43,26,-46,19,-24,-53,-19,0,24,29
-53,0,53,26,-53,26,-19,-48,-14,0,39,29
-58,4,63,26,-61,34,-24,-43,-14,0,43,24
-53,-9,43,31,-48,17,-24,-39,-14,-9,24,19
-53,-34,19,43,-36,-7,-19,-34,-14,-19,4,19
-48,-39,9,43,-29,-14,-19,-29,-24,-19,0,9
-43,-39,4,41,-24,-17,-19,-24,-24,-29,-4,0
-39,-43,-4,41,-17,-24,-29,-29,-34,-39,-9,-4
-34,-43,-9,39,-12,-26,-39,-29,-43,-48,-9,-9
-24,-43,-19,34,-2,-31,-24,-29,-43,-48,-9,-9
-19,-43,-24,31,2,-34,-14,-29,-43,-48,-14,-9
-19,-34,-14,26,-2,-24,-14,-34,-48,-43,-19,-14
-19,-48,-29,34,4,-39,-14,-34,-48,-48,-19,-19
-29,-58,-29,43,0,-43,-9,-34,-48,-48,-19,-19
-43,-68,-24,56,-9,-46,-9,-29,-48,-43,-19,-24
-29,-68,-39,48,4,-53,-14,-29,-48,-48,-19,-24
-14,-68,-53,41,19,-61,-14,-29,-48,-53,-24,-29
-14,-58,-43,36,14,-51,-14,-29,-48,-63,-24,-29
-14,-53,-39,34,12,-46,-14,-29,-48,-68,-24,-29
-19,-53,-34,36,7,-43,-14,-29,-48,-68,-24,-24
-24,-58,-34,41,4,-46,-14,-29,-53,-68,-24,-19
-29,-58,-29,43,0,-43,-9,-24,-53,-68,-24,-19
-34,-58,-24,46,-4,-41,-9,-24,-53,-68,-24,-24
-39,-63,-24,51,-7,-43,-9,-14,-43,-53,-19,-24
-53,-68,-14,61,-19,-41,-9,-4,-34,-34,-9,-24
-53,-68,-14,61,-19,-41,-9,-4,-34,-34,0,-24
-58,-68,-9,63,-24,-39,-9,-4,-34,-34,4,-24
-58,-82,-24,70,-17,-53,-9,-9,-39,-39,-14,-24
-43,-73,-29,58,-7,-51,-9,-19,-43,-39,-29,-24
-43,-68,-24,56,-9,-46,-4,-19,-43,-39,-24,-24
-43,-63,-19,53,-12,-41,-4,-19,-43,-34,-19,-24
-43,-63,-19,53,-12,-41,-4,-24,-39,-34,-19,-24
-48,-63,-14,56,-17,-39,-4,-24,-34,-39,-24,-24
-43,-73,-29,58,-7,-51,-9,-19,-43,-43,-24,-29
-34,-63,-29,48,-2,-46,-9,-19,-43,-39,-24,-29
-34,-63,-29,48,-2,-46,-9,-24,-39,-48,-24,-29
-34,-63,-29,48,-2,-46,-9,-24,-39,-48,-24,-29
-43,-68,-24,56,-9,-46,-4,-29,-43,-58,-34,-29
-53,-68,-14,61,-19,-41,0,-29,-53,-63,-34,-29
-34,-73,-39,53,2,-56,-9,-34,-58,-68,-39,-34
-14,-73,-58,43,21,-65,-9,-39,-58,-68,-39,-39
-29,-82,-53,56,12,-68,-4,-34,-63,-63,-39,-39
-43,-97,-53,70,4,-75,-4,-34,-73,-63,-39,-39
-34,-82,-48,58,7,-65,-4,-34,-58,-58,-34,-29
-19,-68,-48,43,14,-58,-4,-34,-53,-53,-24,-19
-34,-68,-34,51,0,-51,0,-29,-48,-53,-19,-19
-43,-63,-19,53,-12,-41,4,-24,-39,-43,-14,-19
-39,-68,-29,53,-4,-48,0,-24,-39,-48,-14,-19
-29,-73,-43,51,7,-58,-4,-34,-43,-53,-14,-19
-34,-73,-39,53,2,-56,-9,-34,-48,-53,-19,-24
-39,-78,-39,58,0,-58,-14,-39,-53,-58,-29,-29
-48,-82,-34,65,-7,-58,-14,-34,-53,-58,-29,-29
-58,-87,-29,73,-14,-58,-19,-29,-58,-58,-29,-29
-43,-78,-34,61,-4,-56,-19,-29,-53,-53,-29,-24
-29,-68,-39,48,4,-53,-19,-29,-48,-48,-29,-19
-24,-68,-43,46,9,-56,-14,-29,-48,-48,-29,-19
-4,-63,-58,34,26,-61,-9,-24,-43,-43,-24,-19
14,-63,-78,24,46,-70,-9,-19,-39,-39,-24,-19
43,-53,-97,4,70,-75,-4,-4,-29,-39,-14,-19
63,-29,-92,-17,78,-61,0,14,-14,-29,0,0
82,-14,-97,-34,90,-56,0,29,-4,-19,9,9
107,-9,-117,-48,112,-63,9,48,19,4,24,24
136,-9,-146,-63,141,-78,14,63,34,19,53,43
165,-9,-175,-78,170,-92,0,87,48,39,63,63
190,-19,-209,-85,200,-114,0,97,48,48,68,73
180,-29,-209,-75,195,-119,-24,73,34,43,68,63
165,-29,-195,-68,180,-112,-48,34,14,29,53,48
141,-19,-161,-61,151,-90,-97,-14,-14,-4,29,39
131,-4,-136,-63,134,-70,-117,-34,-19,-9,19,34
151,-4,-156,-73,153,-80,-117,-34,-24,-14,19,34
161,-9,-170,-75,165,-90,-117,-34,-43,-14,19,34
161,-19,-180,-70,170,-100,-102,-34,-43,-9,29,39
146,-19,-165,-63,156,-92,-92,-34,-43,-4,34,43
146,-14,-161,-65,153,-87,-87,-34,-39,0,43,53
122,-9,-131,-56,126,-70,-87,-34,-34,4,43,58
107,-9,-117,-48,112,-63,-92,-53,-43,-9,34,43
87,-29,-117,-29,102,-73,-92,-68,-58,-34,14,24
48,-48,-97,0,73,-73,-82,-78,-68,-48,-9,9
34,-58,-92,12,63,-75,-82,-82,-82,-73,-19,-4
0,-82,-82,41,41,-82,-63,-82,-87,-82,-43,-29
-34,-97,-63,65,14,-80,-43,-82,-92,-92,-68,-48
-39,-97,-58,68,9,-78,-43,-78,-97,-97,-68,-53
-43,-102,-58,73,7,-80,-48,-78,-97,-97,-68,-58
-39,-102,-63,70,12,-82,-48,-78,-97,-92,-63,-53
-34,-102,-68,68,17,-85,-43,-78,-97,-92,-63,-53
-48,-107,-58,78,4,-82,-43,-82,-107,-97,-63,-68
-48,-107,-58,78,4,-82,-43,-87,-112,-102,-68,-78
-53,-97,-43,75,-4,-70,-34,-87,-107,-102,-68,-63
-63,-82,-19,73,-21,-51,-34,-82,-107,-102,-63,-48
-68,-82,-14,75,-26,-48,-34,-78,-97,-87,-58,-43
-73,-92,-19,82,-26,-56,-24,-58,-68,-82,-53,-39
-87,-102,-14,95,-36,-58,0,-14,-53,-68,-58,-48
-107,-117,-9,112,-48,-63,78,82,-14,-53,-73,-82
-156,-175,-19,165,-68,-97,165,244,29,-78,-122,-146
-200,-209,-9,204,-95,-109,244,302,39,-131,-190,-209
-244,-156,87,200,-165,-34,258,239,53,-141,-195,-209
-283,-58,224,170,-253,82,234,112,97,-92,-131,-141
-190,53,244,68,-217,148,165,4,229,78,34,0
97,224,126,-161,-14,175,-29,-14,483,439,366,268
429,605,175,-517,126,390,-351,-9,858,932,785,649
829,897,68,-863,380,483,-834,-170,976,1190,1098,946
1161,697,-463,-929,812,117,-1449,-746,468,888,888,819
1024,146,-878,-585,951,-366,-1756,-2083,-1234,-785,-312,4
922,-585,-1507,-168,1215,-1046,-1625,-2713,-2288,-1912,-1229,-707
927,-756,-1683,-85,1305,-1220,-1546,-2796,-2474,-2059,-1332,-775
790,-497,-1288,-146,1039,-893,-1185,-2152,-1917,-1507,-912,-483
507,-273,-780,-117,644,-527,-751,-1444,-1263,-966,-522,-224
180,-151,-331,-14,256,-241,-400,-844,-673,-531,-263,-92
-58,-117,-58,87,0,-87,-107,-356,-273,-239,-136,-39
-102,-107,-4,104,-48,-56,24,-107,-141,-146,-87,-58
-87,-87,0,87,-43,-43,82,-4,-58,-82,-58,-58
-78,-87,-9,82,-34,-48,97,9,-19,-68,-48,-48
-78,-97,-19,87,-29,-58,102,39,-29,-82,-58,-58
-97,-117,-19,107,-39,-68,102,53,-48,-87,-73,-63
-112,-131,-19,122,-46,-75,112,63,-39,-82,-68,-63
-117,-141,-24,129,-46,-82,122,73,-24,-53,-58,-63
-122,-146,-24,134,-48,-85,126,82,-14,-48,-53,-63
-126,-146,-19,136,-53,-82,126,97,-14,-53,-58,-63
-126,-151,-24,139,-51,-87,131,112,-9,-53,-63,-73
-112,-141,-29,126,-41,-85,141,117,0,-48,-63,-73
-92,-126,-34,109,-29,-80,151,126,4,-43,-63,-68
-92,-126,-34,109,-29,-80,161,136,9,-43,-58,-68
-97,-131,-34,114,-31,-82,165,146,9,-43,-53,-63
-97,-131,-34,114,-31,-82,165,146,19,-29,-48,-63
-92,-131,-39,112,-26,-85,175,151,29,-29,-48,-63
-92,-131,-39,112,-26,-85,170,165,29,-34,-43,-63
-87,-131,-43,109,-21,-87,170,175,29,-34,-43,-63
-87,-131,-43,109,-21,-87,175,180,34,-29,-48,-63
-82,-131,-48,107,-17,-90,175,180,34,-24,-53,-63
-82,-141,-58,112,-12,-100,180,185,39,-39,-58,-78
-87,-161,-73,124,-7,-117,180,195,39,-43,-58,-92
-78,-146,-68,112,-4,-107,180,204,39,-34,-48,-78
-68,-131,-63,100,-2,-97,190,219,48,-29,-48,-63
-78,-141,-63,109,-7,-102,190,229,53,-19,-43,-63
-92,-151,-58,122,-17,-104,190,244,53,-9,-34,-63
-92,-151,-58,122,-17,-104,200,258,68,0,-34,-63
-92,-151,-58,122,-17,-104,200,268,73,4,-34,-63
-82,-146,-63,114,-9,-104,200,278,82,4,-34,-63
-82,-146,-63,114,-9,-104,204,283,82,9,-24,-63
-78,-146,-68,112,-4,-107,204,292,87,19,-24,-63
-68,-146,-78,107,4,-112,209,297,92,24,-24,-63
-68,-146,-78,107,4,-112,214,312,112,29,-19,-63
-73,-146,-73,109,0,-109,219,317,117,29,-19,-63
-73,-141,-68,107,-2,-104,224,322,122,39,-9,-58
-73,-141,-68,107,-2,-104,234,331,131,43,0,-53
-68,-141,-73,104,2,-107,239,341,141,58,4,-53
-63,-136,-73,100,4,-104,248,346,151,73,9,-43
-53,-126,-73,90,9,-100,253,356,151,78,19,-39
-48,-126,-78,87,14,-102,258,370,165,82,29,-34
-48,-131,-82,90,17,-107,268,370,175,73,19,-34
-53,-136,-82,95,14,-109,273,375,180,63,0,-34
-73,-122,-48,97,-12,-85,287,395,200,87,19,-24
-92,-122,-29,107,-31,-75,307,400,209,112,43,-14
-82,-107,-24,95,-29,-65,317,409,214,122,53,-14
-78,-102,-24,90,-26,-63,322,409,229,126,58,-14
-87,-97,-9,92,-39,-53,326,409,234,126,58,-9
-92,-97,-4,95,-43,-51,326,409,239,146,68,0
-92,-82,9,87,-51,-36,331,429,258,161,78,4
-102,-78,24,90,-63,-26,341,448,278,175,87,19
-112,-68,43,90,-78,-12,356,453,287,185,97,19
-117,-58,58,87,-87,0,361,453,297,190,102,19
-117,-48,68,82,-92,9,366,434,297,195,107,34
-126,-39,87,82,-107,24,361,424,297,209,112,48
-141,-43,97,92,-119,26,351,405,297,209,117,48
-141,-34,107,87,-124,36,341,380,287,204,117,48
-136,-39,97,87,-117,29,312,356,283,200,117,58
-136,-34,102,85,-119,34,278,322,273,195,122,68
-141,-9,131,75,-136,61,278,312,263,190,122,68
-141,4,146,68,-143,75,273,297,253,185,122,73
-146,14,161,65,-153,87,244,248,239,170,117,73
-146,19,165,63,-156,92,224,214,214,151,112,73
-141,19,161,61,-151,90,185,175,190,141,107,68
-122,29,151,46,-136,90,156,146,175,141,102,63
-117,34,151,41,-134,92,136,112,156,126,97,68
-112,39,151,36,-131,95,117,73,131,117,92,78
-112,39,151,36,-131,95,97,53,112,102,78,68
-107,39,146,34,-126,92,73,39,97,78,68,63
-97,34,131,31,-114,82,43,14,78,68,68,63
-87,24,112,31,-100,68,29,-4,63,53,58,58
-87,24,112,31,-100,68,19,-9,53,34,53,58
-78,14,92,31,-85,53,19,-14,43,34,58,63
-73,9,82,31,-78,46,9,-19,43,34,58,63
-68,4,73,31,-70,39,4,-24,19,19,43,48
-58,0,58,29,-58,29,4,-24,9,14,43,43
-48,-4,43,26,-46,19,-4,-24,-4,9,34,34
-43,-9,34,26,-39,12,-4,-29,-4,-4,19,24
-43,-24,19,34,-31,-2,0,-34,-4,-19,4,19
-53,-29,24,41,-39,-2,-4,-29,-4,-19,0,9
-63,-29,34,46,-48,2,-9,-24,4,-29,-4,0
-63,-39,24,51,-43,-7,-9,-24,-14,-43,-14,0
-63,-43,19,53,-41,-12,-9,-19,-34,-58,-19,0
-48,-43,4,46,-26,-19,-4,-14,-24,-39,-9,0
-39,-43,-4,41,-17,-24,-4,-9,-14,-19,-4,0
-39,-34,4,36,-21,-14,-4,-9,-14,-19,-9,4
-39,-48,-9,43,-14,-29,-4,-4,-9,-29,-9,9
-39,-53,-14,46,-12,-34,4,-4,-9,-29,-9,9
-43,-58,-14,51,-14,-36,9,0,-9,-24,-9,4
-43,-58,-14,51,-14,-36,4,0,-9,-24,-9,4
-43,-58,-14,51,-14,-36,4,0,-9,-24,-14,0
-43,-58,-14,51,-14,-36,0,-4,-9,-34,-19,-4
-43,-63,-19,53,-12,-41,-4,-9,-9,-39,-24,-9
-53,-63,-9,58,-21,-36,-4,-9,-4,-39,-24,-9
-63,-68,-4,65,-29,-36,-4,-9,-4,-39,-24,-9
-53,-68,-14,61,-19,-41,0,-4,-4,-34,-19,-9
-43,-68,-24,56,-9,-46,0,-4,-4,-29,-14,-14
-34,-63,-29,48,-2,-46,4,-4,-9,-29,-14,-9
-34,-58,-24,46,-4,-41,9,-4,-14,-24,-9,-4
-43,-58,-14,51,-14,-36,9,-4,-14,-29,-14,-4
-58,-58,0,58,-29,-29,9,-4,-14,-34,-24,-4
-58,-78,-19,68,-19,-48,4,-4,-14,-43,-29,-9
-43,-73,-29,58,-7,-51,0,-9,-14,-48,-29,-14
-43,-68,-24,56,-9,-46,4,-9,-14,-48,-24,-14
-43,-63,-19,53,-12,-41,4,-9,-14,-43,-19,-14
-34,-63,-29,48,-2,-46,4,-14,-14,-43,-24,-14
-29,-63,-34,46,2,-48,4,-14,-14,-48,-34,-14
-29,-73,-43,51,7,-58,0,-14,-29,-63,-34,-19
-24,-63,-39,43,7,-51,0,-19,-34,-68,-34,-19
-34,-63,-29,48,-2,-46,0,-24,-29,-53,-19,-9
-43,-63,-19,53,-12,-41,0,-24,-29,-29,-4,0
-43,-68,-24,56,-9,-46,0,-19,-19,-34,-14,-9
-43,-68,-24,56,-9,-46,0,-9,-14,-34,-14,-19
-39,-73,-34,56,-2,-53,-14,-19,-24,-39,-19,-14
-34,-73,-39,53,2,-56,-19,-29,-29,-39,-19,-9
-34,-68,-34,51,0,-51,-14,-24,-24,-34,-19,-14
-34,-68,-34,51,0,-51,-14,-24,-24,-34,-19,-19
-39,-68,-29,53,-4,-48,-9,-24,-24,-48,-24,-19
-39,-68,-29,53,-4,-48,-4,-24,-34,-63,-24,-19
-43,-78,-34,61,-4,-56,-4,-24,-34,-63,-24,-19
-39,-82,-43,61,2,-63,-9,-24,-29,-53,-24,-19
-34,-78,-43,56,4,-61,-9,-29,-39,-53,-24,-24
-29,-78,-48,53,9,-63,-9,-39,-48,-58,-29,-29
-24,-58,-34,41,4,-46,-9,-29,-39,-53,-29,-24
-19,-39,-19,29,0,-29,-9,-19,-29,-48,-29,-19
-19,-48,-29,34,4,-39,-14,-19,-29,-48,-29,-19
-9,-53,-43,31,17,-48,-14,-19,-24,-43,-19,-9
-4,-58,-53,31,24,-56,-19,-19,-24,-39,-14,-4
4,-63,-68,29,36,-65,-19,-9,-19,-29,-4,4
29,-53,-82,12,56,-68,-14,4,-9,-29,-4,0
58,-34,-92,-12,75,-63,-9,19,4,-14,0,9
82,-14,-97,-34,90,-56,-4,34,14,0,9,19
117,0,-117,-58,117,-58,0,53,34,24,19,29
131,0,-131,-65,131,-65,4,68,43,39,53,48
146,0,-146,-73,146,-73,0,87,58,48,68,63
180,-9,-190,-85,185,-100,9,97,68,48,68,63
180,-19,-200,-80,190,-109,0,92,63,43,68,63
170,-19,-190,-75,180,-104,-48,43,29,24,48,58
161,-9,-170,-75,165,-90,-112,-19,-14,-9,29,53
161,4,-156,-82,158,-75,-117,-34,-19,-9,29,53
170,4,-165,-87,168,-80,-117,-34,-19,-14,29,53
170,0,-170,-85,170,-85,-117,-34,-34,-14,24,53
170,-9,-180,-80,175,-95,-107,-34,-34,-14,24,53
151,-19,-170,-65,161,-95,-102,-34,-34,-14,24,53
146,-29,-175,-58,161,-102,-97,-34,-34,-14,24,53
117,-14,-131,-51,124,-73,-102,-34,-24,0,24,53
97,0,-97,-48,97,-48,-102,-48,-24,0,24,43
78,-19,-97,-29,87,-58,-92,-58,-39,-34,4,24
48,-39,-87,-4,68,-63,-82,-63,-43,-48,-14,14
48,-48,-97,0,73,-73,-82,-73,-63,-68,-24,0
29,-63,-92,17,61,-78,-68,-82,-78,-82,-43,-24
4,-68,-73,31,39,-70,-43,-82,-82,-102,-63,-43
0,-68,-68,34,34,-68,-34,-82,-87,-117,-68,-48
-24,-78,-53,51,14,-65,-39,-87,-87,-102,-68,-48
-48,-82,-34,65,-7,-58,-39,-87,-87,-82,-63,-43
-53,-82,-29,68,-12,-56,-39,-78,-78,-82,-58,-43
-68,-87,-19,78,-24,-53,-43,-68,-73,-82,-53,-48
-63,-82,-19,73,-21,-51,-48,-68,-73,-82,-58,-48
-53,-78,-24,65,-14,-51,-43,-68,-68,-82,-58,-48
-53,-73,-19,63,-17,-46,-43,-73,-73,-87,-53,-39
-53,-73,-19,63,-17,-46,-43,-78,-78,-82,-53,-29
-53,-82,-29,68,-12,-56,-39,-78,-68,-82,-48,-29
-68,-92,-24,80,-21,-58,-19,-34,-48,-68,-48,-39
-87,-107,-19,97,-34,-63,58,82,-14,-53,-63,-73
-126,-131,-4,129,-61,-68,136,229,34,-53,-97,-117
-185,-170,14,178,-100,-78,224,302,58,-122,-185,-195
-229,-151,78,190,-153,-36,244,268,87,-131,-190,-204
-307,-78,229,192,-268,75,244,102,97,-112,-156,-156
-268,34,302,117,-285,168,161,-63,180,24,-14,-24
53,224,170,-139,-58,197,-19,-9,517,439,370,278
375,492,117,-434,129,305,-292,-4,795,814,692,570
878,902,24,-890,427,463,-888,-126,1093,1327,1185,995
1254,834,-419,-1044,836,207,-1395,-468,814,1229,1151,1005
976,102,-873,-539,924,-385,-1712,-2117,-1346,-961,-424,-73
839,-561,-1400,-139,1119,-980,-1717,-2893,-2396,-2054,-1327,-780
927,-668,-1595,-129,1261,-1132,-1566,-2771,-2405,-1971,-1244,-707
844,-507,-1351,-168,1098,-929,-1273,-2283,-2000,-1581,-956,-502
517,-234,-751,-141,634,-492,-805,-1488,-1239,-951,-512,-195
224,-97,-322,-63,273,-209,-424,-829,-663,-502,-229,-39
-19,-87,-68,53,24,-78,-126,-380,-292,-263,-141,-39
-122,-78,43,100,-82,-17,48,-92,-107,-131,-63,-39
-97,-68,29,82,-63,-19,78,-19,-48,-63,-34,-29
-87,-68,19,78,-53,-24,92,9,-9,-39,-19,-19
-97,-97,0,97,-48,-48,92,39,-19,-53,-29,-34
-112,-126,-14,119,-48,-70,92,53,-34,-63,-48,-48
-112,-117,-4,114,-53,-61,102,73,-19,-63,-48,-53
-112,-107,4,109,-58,-51,112,92,-4,-39,-39,-53
-102,-107,-4,104,-48,-56,122,92,4,-43,-39,-53
-97,-107,-9,102,-43,-58,126,97,4,-53,-43,-53
-97,-112,-14,104,-41,-63,131,112,4,-53,-43,-63
-92,-112,-19,102,-36,-65,136,117,9,-48,-43,-63
-82,-107,-24,95,-29,-65,141,126,14,-43,-43,-58
-82,-107,-24,95,-29,-65,146,136,19,-43,-43,-58
-92,-117,-24,104,-34,-70,151,146,19,-43,-43,-53
-97,-122,-24,109,-36,-73,156,146,29,-29,-39,-53
-92,-122,-29,107,-31,-75,165,151,39,-29,-39,-53
-92,-122,-29,107,-31,-75,165,165,39,-29,-34,-53
-87,-117,-29,102,-29,-73,165,175,29,-29,-39,-58
-87,-112,-24,100,-31,-68,165,180,29,-29,-43,-63
-82,-112,-29,97,-26,-70,165,165,34,-24,-43,-63
-82,-112,-29,97,-26,-70,170,161,43,-24,-43,-63
-87,-122,-34,104,-26,-78,170,195,58,-4,-39,-63
-87,-122,-34,104,-26,-78,170,224,68,14,-29,-58
-102,-126,-24,114,-39,-75,180,239,78,9,-29,-53
-107,-131,-24,119,-41,-78,180,244,82,0,-29,-53
-92,-131,-39,112,-26,-85,180,248,73,0,-24,-53
-82,-131,-48,107,-17,-90,190,253,78,9,-24,-53
-78,-126,-48,102,-14,-87,190,258,82,14,-24,-53
-63,-117,-53,90,-4,-85,190,268,92,14,-24,-53
-63,-117,-53,90,-4,-85,195,273,92,14,-14,-53
-63,-117,-53,90,-4,-85,195,283,97,19,-14,-53
-53,-107,-53,80,0,-80,200,287,102,24,-14,-48
-48,-97,-48,73,0,-73,204,302,117,29,-9,-43
-48,-82,-34,65,-7,-58,209,307,117,43,-9,-43
-43,-63,-19,53,-12,-41,214,312,122,63,-4,-39
-43,-73,-29,58,-7,-51,224,322,131,53,0,-34
-43,-82,-39,63,-2,-61,229,331,141,58,4,-34
-43,-87,-43,65,0,-65,239,336,151,68,0,-24
-43,-87,-43,65,0,-65,244,346,156,68,0,-19
-48,-92,-43,70,-2,-68,248,361,175,73,9,-14
-48,-97,-48,73,0,-73,258,361,185,82,19,-14
-58,-102,-43,80,-7,-73,263,366,190,97,29,-14
-63,-92,-29,78,-17,-61,268,380,204,112,43,-4
-63,-92,-29,78,-17,-61,283,390,219,122,53,4
-63,-78,-14,70,-24,-46,297,409,229,131,63,4
-68,-73,-4,70,-31,-39,302,409,239,141,68,4
-78,-68,9,73,-43,-29,312,409,244,146,68,9
-82,-68,14,75,-48,-26,312,414,258,165,78,19
-82,-53,29,68,-56,-12,312,419,283,175,87,24
-92,-53,39,73,-65,-7,322,429,297,185,97,39
-102,-48,53,75,-78,2,331,439,302,195,107,39
-97,-39,58,68,-78,9,336,434,307,200,112,39
-87,-29,58,58,-73,14,341,414,307,200,117,53
-92,-19,73,56,-82,26,331,414,312,204,122,68
-102,-19,82,61,-92,31,322,400,312,200,126,68
-102,-4,97,53,-100,46,317,370,297,195,126,68
-97,0,97,48,-97,48,302,346,287,185,122,68
-107,14,122,46,-114,68,278,312,273,175,122,73
-122,29,151,46,-136,90,258,283,253,170,122,78
-136,24,161,56,-148,92,234,253,248,185,126,82
-156,24,180,65,-168,102,204,219,248,190,126,82
-141,39,180,51,-161,109,185,195,224,170,122,82
-126,48,175,39,-151,112,151,161,200,161,117,82
-112,58,170,26,-141,114,126,131,180,151,112,78
-107,58,165,24,-136,112,107,92,156,122,107,78
-102,48,151,26,-126,100,78,48,126,107,97,87
-97,39,136,29,-117,87,48,29,102,92,78,78
-87,53,141,17,-114,97,24,14,87,73,68,73
-78,63,141,7,-109,102,4,-4,73,68,68,73
-68,43,112,12,-90,78,-4,-14,63,63,58,68
-68,34,102,17,-85,68,-19,-14,58,53,48,63
-58,24,82,17,-70,53,-19,-24,48,43,48,63
-53,19,73,17,-63,46,-24,-34,43,29,43,63
-43,24,68,9,-56,46,-24,-34,19,9,29,48
-34,29,63,2,-48,46,-24,-34,19,4,34,43
-29,24,53,2,-41,39,-34,-39,9,0,24,34
-24,19,43,2,-34,31,-34,-39,4,-9,14,29
-34,-4,29,19,-31,12,-29,-43,0,-24,0,24
-43,-19,24,31,-34,2,-29,-48,-14,-29,-9,9
-43,-19,24,31,-34,2,-29,-43,-14,-39,-14,-4
-43,-29,14,36,-29,-7,-29,-43,-14,-39,-14,-9
-43,-34,9,39,-26,-12,-29,-39,-14,-39,-9,-9
-34,-34,0,34,-17,-17,-24,-39,-14,-39,-9,-9
-29,-29,0,29,-14,-14,-24,-39,-19,-43,-14,-9
-29,-14,14,21,-21,0,-24,-39,-29,-48,-19,-9
-29,-29,0,29,-14,-14,-24,-34,-29,-58,-29,-9
-29,-34,-4,31,-12,-19,-19,-34,-29,-58,-39,-9
-34,-34,0,34,-17,-17,-19,-24,-29,-48,-29,-14
-34,-29,4,31,-19,-12,-24,-19,-29,-43,-19,-14
-29,-29,0,29,-14,-14,-29,-19,-29,-43,-24,-19
-24,-24,0,24,-12,-12,-34,-19,-29,-48,-24,-19
-24,-24,0,24,-12,-12,-34,-24,-29,-48,-24,-19
-24,-24,0,24,-12,-12,-34,-29,-24,-48,-24,-19
-14,-24,-9,19,-2,-17,-34,-29,-24,-48,-29,-19
-4,-19,-14,12,4,-17,-29,-24,-24,-48,-34,-19
-4,-19,-14,12,4,-17,-29,-29,-29,-53,-34,-24
-4,-19,-14,12,4,-17,-29,-34,-34,-58,-34,-24
-24,-29,-4,26,-9,-17,-29,-34,-34,-53,-29,-29
-34,-39,-4,36,-14,-21,-29,-34,-34,-53,-29,-34
-39,-29,9,34,-24,-9,-29,-29,-29,-48,-29,-34
-39,-34,4,36,-21,-14,-29,-24,-24,-48,-29,-34
-24,-24,0,24,-12,-12,-24,-29,-19,-48,-29,-24
-24,-19,4,21,-14,-7,-14,-29,-14,-48,-24,-14
-29,-19,9,24,-19,-4,-14,-29,-14,-43,-19,-14
-34,-24,9,29,-21,-7,-14,-34,-14,-43,-19,-14
-39,-24,14,31,-26,-4,-14,-34,-14,-48,-24,-14
-39,-34,4,36,-21,-14,-19,-29,-24,-48,-24,-19
-34,-24,9,29,-21,-7,-19,-29,-24,-39,-29,-24
-34,-24,9,29,-21,-7,-19,-34,-19,-48,-34,-29
-29,-24,4,26,-17,-9,-19,-34,-19,-48,-34,-29
-24,-29,-4,26,-9,-17,-19,-39,-19,-53,-43,-29
-24,-29,-4,26,-9,-17,-19,-39,-24,-53,-39,-29
-24,-34,-9,29,-7,-21,-29,-39,-24,-48,-29,-24
-29,-34,-4,31,-12,-19,-34,-39,-24,-43,-19,-24
-34,-29,4,31,-19,-12,-34,-34,-24,-43,-19,-29
-29,-29,0,29,-14,-14,-34,-39,-29,-48,-29,-29
-29,-34,-4,31,-12,-19,-39,-43,-39,-58,-39,-34
-29,-34,-4,31,-12,-19,-39,-43,-43,-58,-39,-29
-29,-39,-9,34,-9,-24,-39,-48,-48,-58,-39,-29
-29,-39,-9,34,-9,-24,-39,-48,-48,-58,-39,-29
-29,-39,-9,34,-9,-24,-39,-48,-48,-58,-39,-29
-4,-39,-34,21,14,-36,-39,-48,-48,-68,-39,-29
19,-34,-53,7,36,-43,-34,-39,-39,-63,-34,-24
43,-34,-78,-4,61,-56,-29,-29,-29,-58,-34,-24
63,-24,-87,-19,75,-56,-14,-4,-9,-48,-24,-19
63,-4,-68,-29,65,-36,-9,9,4,-29,-9,0
63,4,-58,-34,61,-26,-9,19,14,-9,0,9
87,9,-78,-48,82,-34,-9,39,39,24,14,19
117,9,-107,-63,112,-48,-14,53,53,48,43,34
146,9,-136,-78,141,-63,-29,68,68,48,48,43
170,0,-170,-85,170,-85,-29,68,68,39,48,43
175,-4,-180,-85,178,-92,-58,43,34,34,48,43
175,0,-175,-87,175,-87,-87,4,-4,19,34,39
151,14,-136,-82,143,-61,-122,-39,-19,-4,19,39
141,34,-107,-87,124,-36,-126,-53,-9,0,19,43
151,34,-117,-92,134,-41,-126,-53,-9,-4,19,43
151,29,-122,-90,136,-46,-126,-53,-24,-4,19,43
146,19,-126,-82,136,-53,-117,-53,-24,-14,19,39
126,19,-107,-73,117,-43,-112,-53,-24,-24,14,34
126,14,-112,-70,119,-48,-107,-53,-29,-24,14,34
102,9,-92,-56,97,-41,-107,-53,-34,-24,4,29
87,9,-78,-48,82,-34,-107,-73,-48,-39,-4,14
68,-9,-78,-29,73,-43,-102,-87,-68,-63,-24,-4
34,-29,-63,-2,48,-46,-92,-102,-73,-68,-43,-14
24,-39,-63,7,43,-51,-92,-112,-82,-82,-48,-24
0,-53,-53,26,26,-53,-78,-102,-78,-87,-58,-34
-24,-58,-34,41,4,-46,-63,-92,-73,-92,-68,-39
-29,-58,-29,43,0,-43,-63,-92,-78,-97,-68,-48
-34,-63,-29,48,-2,-46,-68,-97,-78,-97,-68,-58
-39,-63,-24,51,-7,-43,-68,-97,-78,-92,-63,-53
-43,-63,-19,53,-12,-41,-63,-97,-78,-92,-63,-53
-58,-68,-9,63,-24,-39,-63,-97,-82,-92,-63,-58
-58,-68,-9,63,-24,-39,-63,-97,-82,-92,-68,-58
-53,-68,-14,61,-19,-41,-53,-97,-78,-97,-68,-58
-53,-63,-9,58,-21,-36,-53,-92,-78,-102,-63,-58
-48,-48,0,48,-24,-24,-43,-82,-78,-92,-68,-58
-43,-43,0,43,-21,-21,-24,-58,-58,-92,-73,-58
-58,-53,4,56,-31,-24,0,9,-29,-78,-78,-68
-78,-68,9,73,-43,-29,78,131,24,-63,-92,-102
-126,-92,34,109,-80,-29,156,278,97,-53,-122,-141
-170,-92,78,131,-124,-7,224,322,136,-73,-170,-180
-190,-43,146,117,-168,51,204,239,190,-9,-97,-126
-204,48,253,78,-229,151,146,92,273,112,43,-4
-73,204,278,-65,-175,241,0,-43,414,317,248,170
253,419,165,-336,43,292,-273,-92,678,712,619,473
551,639,87,-595,231,363,-566,-214,785,941,814,683
917,771,-146,-844,531,312,-1019,-502,634,936,902,810
1093,483,-610,-788,851,-63,-1464,-1083,-9,419,517,546
800,-156,-956,-322,878,-556,-1600,-2425,-1849,-1468,-858,-405
692,-673,-1366,-9,1029,-1019,-1415,-2703,-2444,-2108,-1385,-829
692,-629,-1322,-31,1007,-976,-1283,-2435,-2171,-1766,-1098,-610
561,-370,-932,-95,746,-651,-932,-1776,-1581,-1210,-707,-346
283,-146,-429,-68,356,-287,-507,-1054,-893,-663,-346,-117
43,-73,-117,14,80,-95,-244,-590,-444,-346,-161,-48
-107,-87,19,97,-63,-34,-39,-239,-185,-170,-107,-58
-126,-73,53,100,-90,-9,53,-39,-82,-87,-63,-58
-87,-48,39,68,-63,-4,73,14,-29,-34,-39,-39
-78,-48,29,63,-53,-9,82,19,9,-29,-29,-29
-78,-58,19,68,-48,-19,82,39,0,-53,-39,-39
-82,-73,9,78,-46,-31,82,53,-24,-63,-63,-63
-82,-82,0,82,-41,-41,92,63,-19,-63,-68,-82
-82,-87,-4,85,-39,-46,102,73,-4,-39,-58,-73
-82,-87,-4,85,-39,-46,107,82,4,-39,-53,-63
-87,-87,0,87,-43,-43,107,97,4,-43,-53,-63
-87,-92,-4,90,-41,-48,112,112,9,-43,-53,-73
-87,-92,-4,90,-41,-48,117,117,19,-39,-53,-73
-82,-87,-4,85,-39,-46,122,126,24,-34,-53,-68
-82,-87,-4,85,-39,-46,126,141,29,-34,-48,-68
-87,-92,-4,90,-41,-48,126,156,29,-34,-43,-63
-78,-102,-24,90,-26,-63,126,156,39,-19,-39,-63
-63,-112,-48,87,-7,-80,136,161,48,-19,-39,-63
-63,-112,-48,87,-7,-80,136,175,53,-9,-29,-63
-58,-112,-53,85,-2,-82,141,185,58,4,-24,-63
-58,-107,-48,82,-4,-78,146,190,68,14,-14,-53
-53,-102,-48,78,-2,-75,146,190,73,24,-4,-43
-58,-102,-43,80,-7,-73,151,204,87,24,-4,-43
-68,-112,-43,90,-12,-78,151,224,97,34,0,-43
-68,-112,-43,90,-12,-78,146,234,97,39,0,-43
-68,-112,-43,90,-12,-78,151,248,107,39,-9,-43
-58,-112,-53,85,-2,-82,151,253,107,34,-19,-48
-53,-112,-58,82,2,-85,151,263,102,29,-24,-53
-53,-112,-58,82,2,-85,161,268,117,39,-14,-53
-53,-112,-58,82,2,-85,161,268,122,43,-4,-53
-43,-112,-68,78,12,-90,165,278,131,43,-4,-48
-43,-117,-73,80,14,-95,175,283,131,48,4,-43
-43,-117,-73,80,14,-95,175,292,136,63,9,-43
-39,-117,-78,78,19,-97,180,297,141,73,14,-43
-34,-107,-73,70,19,-90,185,312,156,78,19,-43
-34,-97,-63,65,14,-80,190,317,156,78,19,-43
-29,-92,-63,61,17,-78,190,322,161,78,19,-48
-24,-92,-68,58,21,-80,195,331,170,73,19,-53
-24,-102,-78,63,26,-90,200,341,180,87,24,-43
-24,-107,-82,65,29,-95,209,346,190,102,29,-24
-29,-97,-68,63,19,-82,214,356,195,122,48,-14
-39,-97,-58,68,9,-78,219,370,214,141,68,-4
-39,-97,-58,68,9,-78,219,370,224,151,78,-4
-43,-97,-53,70,4,-75,214,375,229,161,78,-4
-43,-78,-34,61,-4,-56,219,390,248,170,82,4
-43,-73,-29,58,-7,-51,229,390,258,180,92,14
-34,-48,-14,41,-9,-31,239,395,258,190,102,19
-29,-34,-4,31,-12,-19,244,390,268,195,107,24
-39,-24,14,31,-26,-4,253,390,278,204,117,39
-43,-19,24,31,-34,2,258,390,287,234,136,58
-39,-4,34,21,-36,14,263,390,302,244,146,63
-43,0,43,21,-43,21,273,390,317,253,156,78
-53,9,63,21,-58,36,278,385,322,263,165,78
-58,19,78,19,-68,48,273,375,326,268,170,78
-63,24,87,19,-75,56,273,356,322,263,175,87
-78,29,107,24,-92,68,263,346,317,268,180,97
-97,29,126,34,-112,78,253,322,312,268,185,97
-102,43,146,29,-124,95,244,292,297,263,185,97
-97,48,146,24,-122,97,224,268,287,253,180,97
-97,63,161,17,-129,112,200,234,273,244,180,97
-97,78,175,9,-136,126,180,204,253,239,180,97
-92,82,175,4,-134,129,156,170,234,234,180,102
-97,92,190,2,-143,141,126,126,219,219,170,102
-97,97,195,0,-146,146,107,97,195,200,161,102
-97,92,190,2,-143,141,78,63,170,175,146,92
-82,97,180,-7,-131,139,58,39,156,161,131,82
-68,97,165,-14,-117,131,39,4,126,141,126,87
-53,97,151,-21,-102,124,19,-34,92,126,122,97
-58,97,156,-19,-107,126,9,-48,73,112,107,82
-58,97,156,-19,-107,126,-4,-58,58,87,97,73
-68,73,141,-2,-104,107,-19,-68,43,78,97,73
-78,43,122,17,-100,82,-19,-73,34,63,87,68
-78,53,131,12,-104,92,-29,-73,24,43,73,58
-68,53,122,7,-95,87,-29,-73,14,43,68,53
-58,48,107,4,-82,78,-34,-73,14,34,53,48
-48,43,92,2,-70,68,-34,-73,-9,9,24,29
-43,39,82,2,-63,61,-29,-73,-14,-4,19,24
-39,34,73,2,-56,53,-34,-73,-24,-19,4,14
-34,29,63,2,-48,46,-34,-68,-24,-29,-4,4
-34,14,48,9,-41,31,-29,-63,-24,-39,-14,0
-34,9,43,12,-39,26,-29,-58,-29,-34,-19,-9
-34,9,43,12,-39,26,-29,-53,-24,-39,-24,-19
-34,0,34,17,-34,17,-29,-53,-24,-39,-24,-19
-34,-4,29,19,-31,12,-29,-48,-24,-39,-19,-19
-19,-4,14,12,-17,4,-34,-48,-34,-39,-19,-19
-9,-4,4,7,-7,0,-43,-48,-43,-39,-24,-19
-9,4,14,2,-12,9,-29,-39,-39,-29,-29,-19
-9,-9,0,9,-4,-4,-14,-24,-29,-29,-29,-19
-24,-24,0,24,-12,-12,-19,-43,-29,-39,-24,-14
-43,-39,4,41,-24,-17,-29,-58,-29,-43,-19,-14
-24,-24,0,24,-12,-12,-34,-48,-29,-43,-19,-14
-4,-9,-4,7,0,-7,-34,-39,-29,-43,-24,-19
-19,-4,14,12,-17,4,-29,-39,-29,-39,-24,-19
-34,-4,29,19,-31,12,-24,-39,-29,-29,-24,-19
-34,-9,24,21,-29,7,-24,-39,-19,-19,-19,-9
-34,-19,14,26,-24,-2,-24,-39,-14,-9,-14,0
-34,-19,14,26,-24,-2,-19,-34,-14,-19,-14,0
-34,-19,14,26,-24,-2,-19,-34,-14,-29,-14,-4
-29,-14,14,21,-21,0,-19,-34,-19,-34,-19,-9
-34,-9,24,21,-29,7,-19,-34,-24,-34,-19,-14
-34,-9,24,21,-29,7,-19,-34,-24,-39,-24,-24
-39,-9,29,24,-34,9,-19,-34,-24,-43,-34,-34
-34,-24,9,29,-21,-7,-19,-39,-34,-58,-43,-34
-14,-14,0,14,-7,-7,-19,-48,-43,-68,-48,-34
-14,-9,4,12,-9,-2,-24,-58,-43,-68,-43,-34
-14,-4,9,9,-12,2,-34,-68,-43,-63,-39,-34
-24,-4,19,14,-21,7,-34,-63,-43,-48,-34,-29
-39,-4,34,21,-36,14,-34,-53,-43,-39,-34,-24
-48,-19,29,34,-39,4,-29,-39,-39,-39,-34,-29
-53,-14,39,34,-46,12,-19,-29,-24,-29,-34,-29
-39,-14,24,26,-31,4,-19,-34,-19,-43,-34,-29
-24,-14,9,19,-17,-2,-19,-34,-19,-48,-34,-29
-24,-19,4,21,-14,-7,-14,-43,-39,-53,-43,-29
-24,-24,0,24,-12,-12,-14,-48,-63,-48,-39,-29
-24,-24,0,24,-12,-12,-14,-48,-53,-39,-29,-24
-24,-29,-4,26,-9,-17,-19,-53,-48,-34,-24,-24
-24,-24,0,24,-12,-12,-24,-48,-43,-29,-24,-24
-29,-19,9,24,-19,-4,-29,-48,-39,-29,-29,-29
-29,-9,19,19,-24,4,-29,-48,-39,-29,-29,-29
-29,0,29,14,-29,14,-29,-48,-39,-29,-29,-29
-14,0,14,7,-14,7,-29,-48,-39,-29,-34,-29
-4,0,4,2,-4,2,-29,-43,-34,-34,-39,-24
4,4,0,-4,2,2,-29,-43,-34,-39,-43,-24
4,14,9,-9,-2,12,-24,-34,-29,-58,-43,-19
19,34,14,-26,2,24,-19,-19,-14,-34,-14,0
34,43,9,-39,12,26,-19,-9,-4,-9,9,9
58,39,-19,-48,39,9,-4,9,14,14,19,19
87,29,-58,-58,73,-14,4,24,24,29,43,34
122,43,-78,-82,100,-17,-24,53,53,58,53,58
151,48,-102,-100,126,-26,-39,68,68,78,58,73
151,58,-92,-104,122,-17,-73,39,53,53,58,63
146,78,-68,-112,107,4,-107,-4,34,19,43,48
122,63,-58,-92,90,2,-126,-48,-4,-9,19,34
112,53,-58,-82,85,-2,-117,-63,-19,-9,9,24
117,48,-68,-82,92,-9,-117,-68,-19,-14,9,34
112,39,-73,-75,92,-17,-117,-73,-34,-14,9,43
112,29,-82,-70,97,-26,-107,-73,-34,-9,14,43
97,29,-68,-63,82,-19,-102,-73,-34,-4,14,43
117,39,-78,-78,97,-19,-97,-73,-34,-4,24,43
112,48,-63,-80,87,-7,-97,-73,-34,-4,24,39
97,48,-48,-73,73,0,-102,-87,-43,-14,24,29
78,29,-48,-53,63,-9,-102,-97,-58,-34,14,14
39,4,-34,-21,36,-14,-92,-102,-63,-39,-14,4
24,-9,-34,-7,29,-21,-92,-102,-73,-53,-29,-4
-4,-29,-24,17,9,-26,-73,-92,-78,-78,-63,-39
-34,-39,-4,36,-14,-21,-53,-82,-82,-102,-97,-68
-39,-39,0,39,-19,-19,-53,-92,-92,-107,-82,-58
-43,-43,0,43,-21,-21,-58,-107,-97,-107,-68,-48
-43,-43,0,43,-21,-21,-53,-107,-97,-97,-63,-39
-43,-43,0,43,-21,-21,-43,-107,-97,-92,-63,-34
-53,-48,4,51,-29,-21,-43,-107,-102,-92,-63,-39
-48,-48,0,48,-24,-24,-43,-107,-102,-92,-68,-39
-43,-48,-4,46,-19,-26,-39,-107,-97,-92,-73,-48
-43,-43,0,43,-21,-21,-43,-102,-97,-92,-73,-58
-39,-39,0,39,-19,-19,-48,-112,-102,-87,-73,-58
-34,-43,-9,39,-12,-26,-43,-107,-87,-92,-73,-58
-43,-39,4,41,-24,-17,-39,-82,-73,-78,-73,-53
-58,-39,19,48,-39,-9,19,-4,-34,-63,-82,-73
-97,-82,14,90,-56,-34,117,224,53,-63,-117,-126
-131,-102,29,117,-80,-36,204,351,107,-92,-170,-180
-195,-78,117,136,-156,19,244,322,126,-107,-204,-214
-253,-9,244,131,-248,117,244,229,175,-63,-170,-180
-248,92,341,78,-295,217,204,39,268,73,-14,-48
-48,253,302,-102,-175,278,39,-63,483,400,307,209
234,658,424,-446,-95,541,-258,-53,917,1000,795,624
585,976,390,-780,97,683,-717,-209,1093,1366,1176,956
966,839,-126,-902,546,356,-1283,-522,756,1220,1127,976
878,351,-527,-614,702,-87,-1542,-1595,-775,-297,87,307
761,-527,-1288,-117,1024,-907,-1390,-2366,-2127,-1732,-1073,-585
751,-844,-1595,46,1173,-1220,-1293,-2591,-2610,-2186,-1420,-834
692,-561,-1254,-65,973,-907,-1044,-2074,-2064,-1615,-980,-512
488,-312,-800,-87,644,-556,-722,-1493,-1420,-1054,-570,-224
190,-156,-346,-17,268,-251,-400,-922,-805,-600,-297,-102
-19,-87,-68,53,24,-78,-136,-463,-380,-287,-156,-58
-87,-73,14,80,-51,-29,0,-165,-195,-156,-97,-68
-97,-48,48,73,-73,0,63,-14,-58,-53,-58,-58
-73,-43,29,58,-51,-7,73,0,-4,-29,-48,-48
-58,-48,9,53,-34,-19,73,29,0,-34,-58,-58
-78,-58,19,68,-48,-19,78,48,-24,-63,-87,-78
-92,-63,29,78,-61,-17,92,63,-19,-82,-97,-92
-82,-73,9,78,-46,-31,102,73,-4,-48,-78,-78
-73,-78,-4,75,-34,-41,107,82,4,-39,-63,-63
-78,-78,0,78,-39,-39,107,97,4,-43,-63,-63
-78,-82,-4,80,-36,-43,112,112,9,-43,-63,-73
-78,-82,-4,80,-36,-43,117,122,19,-29,-53,-63
-73,-78,-4,75,-34,-41,122,136,24,-14,-43,-48
-73,-78,-4,75,-34,-41,126,146,29,-14,-43,-58
-78,-82,-4,80,-36,-43,126,156,29,-14,-43,-63
-78,-82,-4,80,-36,-43,126,156,39,0,-43,-63
-73,-82,-9,78,-31,-46,136,161,48,0,-48,-63
-73,-92,-19,82,-26,-56,136,175,48,0,-43,-63
-68,-102,-34,85,-17,-68,141,185,48,4,-43,-63
-68,-102,-34,85,-17,-68,146,190,58,9,-43,-63
-63,-102,-39,82,-12,-70,146,190,63,14,-43,-63
-48,-92,-43,70,-2,-68,151,200,73,14,-43,-63
-39,-92,-53,65,7,-73,151,214,78,24,-39,-63
-48,-87,-39,68,-4,-63,151,219,78,29,-34,-68
-58,-82,-24,70,-17,-53,161,229,87,29,-39,-73
-48,-82,-34,65,-7,-58,161,234,92,29,-39,-73
-43,-82,-39,63,-2,-61,161,244,92,29,-34,-73
-39,-87,-48,63,4,-68,170,253,107,39,-34,-68
-34,-92,-58,63,12,-75,170,258,112,43,-34,-63
-24,-92,-68,58,21,-80,170,273,126,48,-29,-53
-24,-97,-73,61,24,-85,175,283,131,58,-14,-43
-29,-97,-68,63,19,-82,175,292,136,68,-14,-53
-29,-97,-68,63,19,-82,180,297,141,73,-14,-63
-29,-97,-68,63,19,-82,185,312,156,82,-9,-63
-34,-97,-63,65,14,-80,190,317,156,87,-9,-63
-39,-92,-53,65,7,-73,195,322,165,92,4,-53
-43,-92,-48,68,2,-70,204,331,180,92,19,-43
-43,-92,-48,68,2,-70,209,341,190,102,14,-43
-43,-87,-43,65,0,-65,219,346,200,112,9,-34
-39,-78,-39,58,0,-58,219,351,190,117,19,-29
-39,-78,-39,58,0,-58,219,361,195,122,29,-24
-39,-78,-39,58,0,-58,229,361,204,136,48,-24
-43,-78,-34,61,-4,-56,234,366,209,151,58,-24
-43,-63,-19,53,-12,-41,234,380,234,161,63,-14
-43,-63,-19,53,-12,-41,239,380,248,170,73,-4
-43,-48,-4,46,-19,-26,248,380,239,165,63,-19
-48,-43,4,46,-26,-19,253,370,239,156,48,-34
-58,-39,19,48,-39,-9,263,370,244,156,48,-29
-63,-39,24,51,-43,-7,268,370,248,175,58,-19
-58,-14,43,36,-51,14,268,370,263,190,78,-4
-63,0,63,31,-63,31,273,370,278,204,97,19
-73,-9,63,41,-68,26,283,370,278,214,107,19
-78,-19,58,48,-68,19,283,366,278,219,112,19
-63,-9,53,36,-58,21,287,346,278,219,122,39
-58,0,58,29,-58,29,283,336,278,229,131,58
-92,0,92,46,-92,46,273,312,273,239,136,58
-112,14,126,48,-119,70,263,283,258,244,136,58
-117,9,126,53,-122,68,244,258,248,219,126,43
-126,14,141,56,-134,78,219,224,234,195,122,29
-102,53,156,24,-129,104,204,195,214,190,122,43
-73,82,156,-4,-114,119,185,161,195,185,122,63
-87,92,180,-2,-134,136,156,122,180,170,102,48
-97,97,195,0,-146,146,136,97,156,151,82,34
-126,97,224,14,-175,161,102,53,131,146,92,48
-141,107,248,17,-195,178,78,19,117,151,102,63
-117,122,239,-2,-178,180,68,-4,102,136,107,73
-92,136,229,-21,-161,183,58,-34,82,126,112,87
-87,122,209,-17,-148,165,39,-48,63,112,97,78
-78,107,185,-14,-131,146,14,-58,48,87,87,73
-73,97,170,-12,-122,134,-9,-73,29,78,82,73
-68,82,151,-7,-109,117,-19,-82,14,63,68,68
-68,82,151,-7,-109,117,-29,-87,4,39,48,53
-58,73,131,-7,-95,102,-29,-92,-4,34,39,43
-39,87,126,-24,-82,107,-29,-92,-4,24,34,43
-19,102,122,-41,-70,112,-24,-92,-29,0,14,29
-29,82,112,-26,-70,97,-24,-92,-34,-4,14,24
-39,63,102,-12,-70,82,-34,-92,-43,-9,4,14
-24,58,82,-17,-53,70,-39,-87,-43,-19,-4,9
-14,43,58,-14,-36,51,-39,-82,-43,-29,-14,9
-14,48,63,-17,-39,56,-39,-68,-39,-24,-24,-9
-14,58,73,-21,-43,65,-39,-53,-24,-29,-34,-29
-19,39,58,-9,-39,48,-39,-68,-43,-29,-34,-19
-24,24,48,0,-36,36,-39,-78,-63,-29,-29,-9
-14,24,39,-4,-26,31,-29,-63,-43,-19,-19,-4
-9,24,34,-7,-21,29,-24,-48,-24,-9,-14,0
-9,29,39,-9,-24,34,-24,-48,-29,-9,-9,4
-9,9,19,0,-14,14,-24,-43,-29,-19,0,9
-9,4,14,2,-12,9,-24,-48,-29,-24,-9,9
-14,0,14,7,-14,7,-29,-48,-29,-24,-19,4
-14,19,34,-2,-24,26,-34,-48,-34,-34,-29,-4
-14,39,53,-12,-34,46,-34,-48,-39,-43,-43,-19
-14,29,43,-7,-29,36,-34,-48,-39,-48,-43,-19
-14,14,29,0,-21,21,-34,-48,-39,-48,-43,-19
-24,4,29,9,-26,17,-34,-48,-34,-43,-39,-14
-34,-9,24,21,-29,7,-34,-48,-34,-39,-34,-9
-19,9,29,4,-24,19,-19,-39,-19,-24,-34,-9
-4,29,34,-12,-19,31,-9,-34,-4,-9,-34,-14
-4,29,34,-12,-19,31,-9,-34,-19,-29,-48,-24
-14,29,43,-7,-29,36,-9,-34,-34,-43,-58,-34
-14,24,39,-4,-26,31,-14,-39,-39,-43,-43,-24
-19,19,39,0,-29,29,-19,-43,-43,-43,-34,-14
-19,4,24,7,-21,14,-19,-43,-43,-43,-39,-14
-4,14,19,-4,-12,17,-19,-48,-43,-39,-39,-14
-4,19,24,-7,-14,21,-14,-48,-34,-39,-34,-14
-4,24,29,-9,-17,26,-14,-48,-24,-34,-29,-14
4,24,19,-14,-7,21,-19,-53,-24,-34,-29,-14
9,24,14,-17,-2,19,-24,-53,-24,-39,-34,-14
-14,9,24,2,-19,17,-29,-48,-39,-39,-34,-19
-34,14,48,9,-41,31,-29,-48,-43,-29,-34,-19
-34,4,39,14,-36,21,-29,-53,-39,-39,-34,-19
-34,-9,24,21,-29,7,-29,-58,-39,-39,-39,-19
-24,9,34,7,-29,21,-29,-53,-39,-39,-39,-29
-14,34,48,-9,-31,41,-34,-53,-43,-39,-39,-39
-9,29,39,-9,-24,34,-34,-53,-34,-39,-34,-24
-9,29,39,-9,-24,34,-39,-58,-29,-39,-29,-9
4,48,43,-26,-19,46,-39,-43,-24,-24,-14,-4
19,68,48,-43,-14,58,-39,-29,-19,-9,0,0
14,82,68,-48,-26,75,-43,-29,-9,-9,0,0
9,92,82,-51,-36,87,-43,-29,-4,-9,0,0
9,102,92,-56,-41,97,-48,-34,0,-9,-4,0
4,112,107,-58,-51,109,-43,-34,0,-19,-4,0
9,122,112,-65,-51,117,-43,-29,4,-4,9,19
14,122,107,-68,-46,114,-48,-29,4,9,19,29
29,151,122,-90,-46,136,-78,-29,24,29,24,34
48,175,126,-112,-39,151,-112,-34,34,39,43,43
78,204,126,-141,-24,165,-136,-34,39,39,39,53
102,224,122,-163,-9,173,-146,-48,29,29,29,53
117,204,87,-161,14,146,-131,-24,43,53,58,68
126,195,68,-161,29,131,-117,-14,53,68,73,78
112,195,82,-153,14,139,-146,-48,24,39,58,73
112,200,87,-156,12,143,-146,-53,19,39,58,73
97,170,73,-134,12,122,-146,-73,9,14,43,63
73,136,63,-104,4,100,-146,-92,-14,-4,29,53
107,141,34,-124,36,87,-131,-82,-14,19,53,78
126,156,29,-141,48,92,-122,-73,-14,43,73,102
112,112,0,-112,56,56,-107,-73,-24,19,43,73
73,68,-4,-70,39,31,-97,-73,-34,-4,4,39
24,39,14,-31,4,26,-78,-82,-43,-19,-4,14
-29,-9,19,19,-24,4,-53,-87,-58,-43,-24,-14
-34,-14,19,24,-26,2,-53,-92,-63,-48,-43,-24
-14,-9,4,12,-9,-2,-63,-92,-73,-63,-48,-34
-19,-19,0,19,-9,-9,-58,-92,-78,-73,-63,-48
-24,-19,4,21,-14,-7,-53,-92,-82,-82,-78,-58
-19,-19,0,19,-9,-9,-53,-97,-92,-87,-78,-58
-14,-24,-9,19,-2,-17,-58,-107,-97,-87,-78,-58
-19,-14,4,17,-12,-4,-58,-107,-97,-78,-68,-53
-24,-4,19,14,-21,7,-53,-107,-97,-73,-63,-53
-39,-9,29,24,-34,9,-53,-102,-92,-73,-63,-53
-39,-9,29,24,-34,9,-53,-97,-82,-73,-68,-48
-39,-9,29,24,-34,9,-43,-97,-87,-78,-68,-48
-43,-4,39,24,-41,17,-43,-92,-97,-82,-63,-48
-43,-9,34,26,-39,12,-53,-102,-97,-73,-63,-48
-43,-24,19,34,-31,-2,-53,-97,-78,-73,-63,-48
-48,-39,9,43,-29,-14,-39,-53,-48,-63,-78,-63
-58,-58,0,58,-29,-29,29,43,4,-53,-102,-102
-82,-82,0,82,-41,-41,122,234,68,-68,-141,-161
-102,-82,19,92,-61,-31,204,322,97,-112,-200,-219
-161,-29,131,95,-146,51,234,258,117,-117,-219,-234
-214,68,283,73,-248,175,224,131,165,-63,-170,-180
-190,175,366,7,-278,270,146,-29,292,122,19,-24
29,341,312,-185,-141,326,-58,-102,541,497,375,258
317,702,385,-509,-34,544,-370,-117,917,1073,854,668
673,976,302,-824,185,639,-844,-297,1034,1415,1224,995
985,741,-244,-863,614,248,-1293,-600,566,1093,1054,927
829,156,-673,-492,751,-258,-1434,-1664,-1098,-600,-107,170
746,-610,-1356,-68,1051,-983,-1249,-2244,-2210,-1776,-1063,-561
771,-814,-1586,21,1178,-1200,-1117,-2278,-2454,-1971,-1205,-649
663,-536,-1200,-63,932,-868,-893,-1786,-1883,-1420,-810,-370
409,-292,-702,-58,556,-497,-595,-1229,-1215,-878,-444,-126
146,-126,-273,-9,209,-200,-302,-717,-653,-478,-214,-48
-29,-48,-19,39,-4,-34,-68,-317,-283,-219,-117,-48
-68,-48,19,58,-43,-14,29,-87,-141,-117,-73,-58
-48,-39,9,43,-29,-14,53,-4,-48,-43,-48,-48
-39,-48,-9,43,-14,-29,73,14,0,-24,-29,-39
-39,-68,-29,53,-4,-48,82,48,0,-34,-29,-48
-58,-78,-19,68,-19,-48,82,73,-14,-43,-63,-58
-73,-82,-9,78,-31,-46,92,92,0,-43,-78,-63
-58,-82,-24,70,-17,-53,102,102,24,-14,-58,-58
-43,-78,-34,61,-4,-56,107,112,43,-9,-43,-53
-48,-68,-19,58,-14,-43,107,122,34,-14,-43,-53
-48,-63,-14,56,-17,-39,112,131,29,-14,-43,-63
-43,-63,-19,53,-12,-41,112,131,39,-9,-43,-68
-34,-58,-24,46,-4,-41,112,136,43,-4,-43,-68
-34,-68,-34,51,0,-51,117,146,39,0,-43,-68
-39,-82,-43,61,2,-63,117,156,29,4,-43,-63
-39,-82,-43,61,2,-63,117,161,53,19,-39,-68
-34,-82,-48,58,7,-65,126,170,78,19,-39,-73
-34,-82,-48,58,7,-65,126,185,78,9,-39,-73
-29,-82,-53,56,12,-68,131,195,78,4,-43,-73
-29,-82,-53,56,12,-68,136,200,82,9,-43,-68
-24,-82,-58,53,17,-70,136,200,82,14,-43,-63
-24,-82,-58,53,17,-70,141,219,92,24,-34,-58
-29,-92,-63,61,17,-78,141,244,97,43,-19,-53
-29,-92,-63,61,17,-78,141,244,97,53,-9,-48
-29,-92,-63,61,17,-78,151,248,107,58,-9,-43
-34,-92,-58,63,12,-75,151,253,112,58,-14,-48
-43,-92,-48,68,2,-70,151,263,112,58,-14,-53
-43,-92,-48,68,2,-70,161,278,126,68,-14,-53
-43,-92,-48,68,2,-70,161,287,131,73,-14,-53
-24,-87,-63,56,19,-75,161,297,151,73,-14,-53
-14,-87,-73,51,29,-80,165,302,161,78,-4,-53
-14,-87,-73,51,29,-80,165,307,156,82,-9,-58
-9,-87,-78,48,34,-82,170,307,151,82,-14,-63
-24,-87,-63,56,19,-75,170,322,165,87,-9,-63
-43,-87,-43,65,0,-65,170,326,165,87,-9,-63
-29,-82,-53,56,12,-68,175,331,175,97,0,-58
-14,-82,-68,48,26,-75,185,341,190,102,9,-53
-24,-82,-58,53,17,-70,195,351,200,117,14,-43
-34,-78,-43,56,4,-61,209,356,209,131,19,-24
-34,-73,-39,53,2,-56,214,366,204,131,24,-29
-39,-78,-39,58,0,-58,219,380,214,131,29,-34
-39,-78,-39,58,0,-58,229,375,224,131,39,-34
-43,-78,-34,61,-4,-56,234,375,229,131,39,-34
-43,-58,-14,51,-14,-36,234,385,244,151,48,-24
-43,-53,-9,48,-17,-31,239,380,248,170,63,-14
-43,-39,4,41,-24,-17,244,390,248,190,73,-4
-48,-34,14,41,-31,-9,244,390,258,204,78,4
-58,-29,29,43,-43,0,253,385,258,190,73,0
-63,-29,34,46,-48,2,258,380,258,195,78,0
-63,-4,58,34,-61,26,263,375,273,204,87,0
-73,9,82,31,-78,46,273,370,287,214,97,9
-87,19,107,34,-97,63,283,370,292,219,107,9
-97,29,126,34,-112,78,283,366,297,219,112,9
-97,24,122,36,-109,73,283,346,283,219,122,24
-107,19,126,43,-117,73,273,336,268,229,131,39
-117,19,136,48,-126,78,263,312,263,229,136,48
-112,34,146,39,-129,90,253,283,248,224,136,58
-107,43,151,31,-129,97,234,248,234,204,117,43
-107,63,170,21,-139,117,209,204,214,185,102,29
-117,78,195,19,-156,136,195,175,195,180,102,29
-122,82,204,19,-163,143,175,141,175,175,102,34
-141,82,224,29,-183,153,146,97,161,161,97,43
-156,78,234,39,-195,156,126,68,136,141,92,53
-141,87,229,26,-185,158,87,34,102,126,87,53
-112,107,219,2,-165,163,58,9,78,122,82,53
-107,107,214,0,-161,161,39,-24,73,102,82,53
-102,107,209,-2,-156,158,19,-63,63,87,82,58
-107,107,214,0,-161,161,4,-78,34,73,68,48
-107,107,214,0,-161,161,-14,-87,9,48,58,43
-78,112,190,-17,-134,151,-34,-102,-4,39,48,39
-48,112,161,-31,-104,136,-39,-112,-14,24,29,29
-48,112,161,-31,-104,136,-48,-112,-19,-4,9,24
-39,102,141,-31,-90,122,-48,-112,-24,-14,0,24
-58,92,151,-17,-104,122,-43,-112,-19,4,14,24
-78,82,161,-2,-119,122,-34,-112,-39,9,14,9
-53,78,131,-12,-92,104,-43,-112,-39,-19,0,0
-29,73,102,-21,-65,87,-63,-112,-43,-48,-24,-14
-39,58,97,-9,-68,78,-63,-102,-43,-48,-24,-19
-53,34,87,9,-70,61,-58,-92,-43,-48,-24,-19
-34,43,78,-4,-56,61,-58,-82,-48,-43,-29,-14
-14,58,73,-21,-43,65,-58,-73,-43,-48,-34,-9
-14,48,63,-17,-39,56,-58,-73,-43,-39,-24,-4
-14,43,58,-14,-36,51,-58,-68,-43,-29,-9,0
-9,34,43,-12,-26,39,-53,-68,-43,-29,-9,0
-9,24,34,-7,-21,29,-53,-68,-43,-29,-14,0
-9,43,53,-17,-31,48,-53,-73,-48,-39,-29,-9
-9,39,48,-14,-29,43,-53,-73,-48,-58,-39,-19
0,43,43,-21,-21,43,-48,-73,-53,-68,-43,-34
4,48,43,-26,-19,46,-48,-68,-58,-73,-48,-53
-9,39,48,-14,-29,43,-53,-68,-58,-63,-48,-53
-24,29,53,-2,-39,41,-53,-68,-58,-53,-53,-58
-24,34,58,-4,-41,46,-48,-53,-48,-48,-43,-39
-24,34,58,-4,-41,46,-43,-39,-39,-39,-34,-19
-24,34,58,-4,-41,46,-43,-48,-43,-58,-53,-34
-24,29,53,-2,-39,41,-43,-58,-53,-78,-73,-48
-24,29,53,-2,-39,41,-39,-53,-63,-78,-73,-48
-24,29,53,-2,-39,41,-39,-53,-73,-78,-73,-53
-24,29,53,-2,-39,41,-39,-48,-53,-58,-53,-39
-34,29,63,2,-48,46,-39,-43,-34,-34,-29,-24
-34,34,68,0,-51,51,-39,-43,-34,-34,-29,-24
-39,39,78,0,-58,58,-39,-43,-34,-34,-34,-24
-39,24,63,7,-51,43,-43,-48,-34,-39,-43,-34
-24,34,58,-4,-41,46,-48,-58,-34,-39,-48,-43
-24,29,53,-2,-39,41,-48,-58,-43,-48,-53,-43
-24,24,48,0,-36,36,-53,-58,-53,-53,-58,-43
-24,24,48,0,-36,36,-53,-63,-53,-53,-58,-43
-29,24,53,2,-41,39,-53,-63,-53,-58,-63,-43
-24,29,53,-2,-39,41,-53,-58,-63,-58,-63,-48
-14,53,68,-19,-41,61,-48,-63,-63,-53,-63,-48
-9,48,58,-19,-34,53,-43,-63,-53,-48,-53,-43
-4,43,48,-19,-26,46,-43,-63,-48,-48,-48,-39
-4,39,43,-17,-24,41,-43,-63,-48,-39,-39,-29
-9,39,48,-14,-29,43,-48,-68,-48,-29,-29,-19
-9,63,73,-26,-41,68,-48,-48,-29,-24,-24,-14
-9,87,97,-39,-53,92,-48,-29,-9,-19,-19,-9
-9,112,122,-51,-65,117,-48,-29,-9,-19,-9,-9
-4,112,117,-53,-61,114,-48,-29,-9,-14,-9,-9
0,112,112,-56,-56,112,-48,-29,-9,-9,-9,-9
4,92,87,-48,-41,90,-43,-24,-9,-9,-14,-9
14,126,112,-70,-48,119,-48,-19,4,-9,-9,0
24,151,126,-87,-51,139,-58,-19,14,-9,-9,0
48,185,136,-117,-43,161,-92,-34,19,9,0,9
78,214,136,-146,-29,175,-131,-53,14,19,24,24
63,224,161,-143,-48,192,-146,-48,29,29,29,39
43,224,180,-134,-68,202,-146,-58,29,29,29,43
63,214,151,-139,-43,183,-141,-43,34,48,58,68
78,214,136,-146,-29,175,-136,-43,34,58,73,87
87,214,126,-151,-19,170,-161,-68,14,39,58,82
112,219,107,-165,2,163,-156,-63,19,48,58,82
112,200,87,-156,12,143,-146,-63,19,34,53,78
102,175,73,-139,14,124,-136,-63,4,24,48,73
102,156,53,-129,24,104,-126,-73,-14,14,43,58
87,146,58,-117,14,102,-122,-82,-34,4,34,43
78,107,29,-92,24,68,-107,-82,-43,-14,19,29
43,68,24,-56,9,46,-97,-82,-53,-34,-4,9
24,58,34,-41,-4,46,-87,-92,-68,-48,-14,-9
0,29,29,-14,-14,29,-73,-97,-87,-73,-34,-34
-29,9,39,9,-34,24,-63,-102,-92,-78,-53,-43
-34,0,34,17,-34,17,-63,-102,-102,-92,-58,-53
-34,-9,24,21,-29,7,-58,-102,-102,-92,-73,-68
-34,-9,24,21,-29,7,-53,-102,-102,-92,-87,-78
-39,-9,29,24,-34,9,-53,-102,-107,-97,-87,-73
-43,-14,29,29,-36,7,-58,-107,-107,-97,-87,-68
-43,-14,29,29,-36,7,-58,-107,-107,-92,-82,-63
-43,-14,29,29,-36,7,-53,-107,-107,-92,-82,-63
-58,-19,39,39,-48,9,-53,-102,-107,-92,-82,-63
-58,-19,39,39,-48,9,-53,-97,-102,-92,-87,-58
-48,-19,29,34,-39,4,-43,-97,-97,-92,-78,-58
-43,-14,29,29,-36,7,-43,-92,-97,-92,-63,-58
-43,-14,29,29,-36,7,-48,-102,-102,-68,-53,-53
-43,-24,19,34,-31,-2,-43,-97,-87,-53,-43,-48
-58,-39,19,48,-39,-9,-34,-48,-63,-53,-58,-58
-78,-58,19,68,-48,-19,29,53,-14,-53,-82,-92
-102,-92,9,97,-56,-41,117,229,34,-92,-151,-165
-122,-102,19,112,-70,-41,195,302,48,-161,-239,-239
-175,-43,131,109,-153,43,224,239,73,-156,-248,-248
-224,58,283,82,-253,170,214,112,126,-92,-190,-190
-195,175,370,9,-283,273,141,-9,268,112,14,-34
29,351,322,-190,-146,336,-58,-43,531,507,385,248
326,702,375,-514,-24,539,-400,-48,917,1063,849,658
692,966,273,-829,209,619,-902,-219,1044,1385,1205,985
1024,707,-317,-866,671,195,-1317,-566,522,1024,995,888
888,97,-790,-492,839,-346,-1424,-1673,-1195,-707,-204,102
800,-639,-1439,-80,1119,-1039,-1259,-2235,-2244,-1810,-1093,-580
819,-814,-1634,-2,1227,-1224,-1146,-2249,-2425,-1932,-1166,-619
707,-522,-1229,-92,968,-875,-893,-1751,-1854,-1395,-790,-366
448,-263,-712,-92,580,-488,-566,-1190,-1185,-868,-444,-146
156,-122,-278,-17,217,-200,-287,-702,-644,-488,-239,-73
-48,-68,-19,58,-14,-43,-68,-326,-292,-248,-165,-78
-97,-68,29,82,-63,-19,39,-92,-165,-141,-112,-87
-87,-58,29,73,-58,-14,73,-4,-87,-63,-78,-78
-78,-58,19,68,-48,-19,82,9,-34,-24,-48,-53
-78,-68,9,73,-43,-29,82,39,-29,-14,-39,-48
-73,-78,-4,75,-34,-41,82,58,-43,-39,-58,-58
-63,-82,-19,73,-21,-51,92,73,-29,-53,-58,-63
-63,-82,-19,73,-21,-51,102,82,-14,-29,-58,-68
-63,-78,-14,70,-24,-46,107,92,-4,-29,-63,-73
-68,-78,-9,73,-29,-43,107,107,-4,-34,-63,-82
-68,-82,-14,75,-26,-48,112,122,0,-34,-63,-102
-68,-82,-14,75,-26,-48,117,126,9,-29,-58,-92
-63,-78,-14,70,-24,-46,122,136,14,-24,-53,-78
-63,-78,-14,70,-24,-46,126,146,19,-19,-53,-78
-68,-82,-14,75,-26,-48,126,156,19,-14,-53,-73
-63,-82,-19,73,-21,-51,126,156,29,0,-48,-73
-53,-82,-29,68,-12,-56,136,161,39,0,-48,-73
-53,-82,-29,68,-12,-56,136,175,43,0,-39,-73
-48,-82,-34,65,-7,-58,141,185,48,4,-34,-73
-48,-82,-34,65,-7,-58,146,195,58,9,-34,-73
-43,-82,-39,63,-2,-61,146,200,63,14,-34,-73
-34,-82,-48,58,7,-65,151,209,73,14,-39,-73
-29,-92,-63,61,17,-78,151,224,78,24,-39,-73
-43,-82,-39,63,-2,-61,151,234,78,34,-29,-68
-58,-73,-14,65,-21,-43,161,248,87,39,-29,-63
-48,-87,-39,68,-4,-63,161,248,92,29,-39,-63
-43,-102,-58,73,7,-80,161,253,92,19,-43,-63
-39,-87,-48,63,4,-68,170,263,107,39,-34,-58
-34,-73,-39,53,2,-56,170,268,112,53,-24,-53
-24,-78,-53,51,14,-65,170,278,122,53,-24,-53
-24,-87,-63,56,19,-75,175,283,122,58,-14,-53
-39,-87,-48,63,4,-68,180,297,131,73,0,-53
-48,-87,-39,68,-4,-63,190,307,141,82,14,-53
-39,-82,-43,61,2,-63,195,322,156,87,9,-63
-34,-78,-43,56,4,-61,200,326,156,87,0,-73
-34,-73,-39,53,2,-56,195,326,161,78,-9,-68
-34,-73,-39,53,2,-56,195,331,170,63,-19,-63
-34,-63,-29,48,-2,-46,200,341,180,87,4,-53
-34,-48,-14,41,-9,-31,209,346,190,112,29,-34
-34,-48,-14,41,-9,-31,219,351,195,126,39,-29
-39,-58,-19,48,-9,-39,229,361,214,141,48,-24
-48,-58,-9,53,-19,-34,239,361,224,151,58,-24
-63,-58,4,61,-34,-26,244,366,229,161,58,-24
-63,-43,19,53,-41,-12,244,375,244,161,53,-24
-63,-43,19,53,-41,-12,248,370,248,161,53,-24
-53,-29,24,41,-39,-2,258,380,248,165,63,-24
-48,-24,24,36,-36,0,263,380,258,165,68,-24
-73,-19,53,46,-63,17,273,380,258,165,68,-19
-92,-19,73,56,-82,26,278,380,258,185,78,-9
-92,0,92,46,-92,46,283,375,273,204,92,0
-102,9,112,46,-107,61,292,370,287,224,107,19
-107,19,126,43,-117,73,297,370,287,234,126,24
-107,29,136,39,-122,82,292,366,287,239,141,29
-107,39,146,34,-126,92,292,346,287,239,146,43
-117,48,165,34,-141,107,283,336,287,248,151,58
-131,48,180,41,-156,114,268,307,278,239,146,58
-131,63,195,34,-163,129,253,273,258,224,136,58
-126,68,195,29,-161,131,234,239,244,214,131,58
-126,82,209,21,-168,146,209,195,224,204,131,58
-126,97,224,14,-175,161,190,165,200,200,126,58
-122,102,224,9,-173,163,165,131,175,195,122,63
-126,112,239,7,-183,175,136,87,161,180,117,63
-126,117,244,4,-185,180,117,58,136,161,112,63
-136,117,253,9,-195,185,82,24,112,151,107,63
-131,126,258,2,-195,192,58,0,97,151,102,63
-126,122,248,2,-187,185,39,-34,78,112,92,63
-122,117,239,2,-180,178,19,-73,53,78,82,68
-107,117,224,-4,-165,170,4,-78,34,73,68,58
-87,117,204,-14,-146,161,-14,-78,19,58,58,53
-78,112,190,-17,-134,151,-29,-92,4,48,58,53
-68,102,170,-17,-119,136,-29,-102,-4,34,48,48
-68,102,170,-17,-119,136,-39,-102,-14,14,39,39
-58,92,151,-17,-104,122,-39,-102,-24,14,39,34
-53,78,131,-12,-92,104,-43,-102,-24,9,34,34
-48,63,112,-7,-80,87,-43,-102,-48,-9,14,19
-43,68,112,-12,-78,90,-43,-97,-43,-9,14,19
-39,73,112,-17,-75,92,-53,-92,-43,-9,4,14
-34,68,102,-17,-68,85,-53,-87,-34,-19,-4,9
-34,53,87,-9,-61,70,-48,-82,-24,-29,-14,9
-34,48,82,-7,-58,65,-48,-78,-34,-29,-19,0
-34,48,82,-7,-58,65,-48,-73,-34,-39,-24,-9
-29,39,68,-4,-48,53,-53,-73,-39,-39,-24,-9
-24,34,58,-4,-41,46,-58,-68,-43,-39,-19,-9
-14,34,48,-9,-31,41,-53,-68,-48,-39,-19,-9
-9,34,43,-12,-26,39,-53,-68,-53,-39,-24,-9
-14,43,58,-14,-36,51,-53,-73,-58,-34,-29,-9
-19,29,48,-4,-34,39,-53,-73,-58,-39,-29,-9
-29,14,43,7,-36,29,-48,-73,-58,-39,-29,-9
-43,0,43,21,-43,21,-48,-68,-58,-34,-29,-14
-34,9,43,12,-39,26,-48,-58,-48,-34,-19,-9
-24,19,43,2,-34,31,-43,-48,-39,-34,-14,-9
-24,29,53,-2,-39,41,-43,-48,-39,-39,-14,-9
-24,34,58,-4,-41,46,-43,-48,-39,-39,-14,-9
-24,34,58,-4,-41,46,-43,-53,-43,-43,-24,-14
-24,29,53,-2,-39,41,-43,-58,-53,-48,-34,-19
-24,29,53,-2,-39,41,-43,-53,-53,-48,-34,-19
-24,29,53,-2,-39,41,-48,-53,-53,-48,-34,-24
-34,19,53,7,-43,36,-48,-48,-48,-43,-34,-24
-53,9,63,21,-58,36,-48,-43,-43,-34,-29,-24
-53,9,63,21,-58,36,-43,-43,-43,-34,-29,-24
-58,9,68,24,-63,39,-39,-43,-43,-34,-34,-24
-43,0,43,21,-43,21,-39,-43,-43,-39,-34,-19
-14,14,29,0,-21,21,-39,-48,-43,-39,-29,-14
-14,19,34,-2,-24,26,-34,-48,-43,-39,-24,-14
-14,24,39,-4,-26,31,-34,-48,-43,-34,-19,-14
-19,24,43,-2,-31,34,-34,-53,-43,-53,-39,-34
-29,24,53,2,-41,39,-34,-53,-43,-78,-63,-53
-29,14,43,7,-36,29,-39,-48,-53,-58,-43,-43
-24,24,48,0,-36,36,-39,-48,-53,-29,-24,-29
-24,24,48,0,-36,36,-39,-53,-53,-39,-24,-29
-24,24,48,0,-36,36,-39,-53,-58,-39,-24,-29
-29,14,43,7,-36,29,-39,-68,-58,-43,-34,-29
-34,9,43,12,-39,26,-39,-78,-63,-43,-34,-29
-34,4,39,14,-36,21,-48,-68,-58,-39,-29,-19
-34,4,39,14,-36,21,-48,-58,-48,-29,-19,-9
-34,9,43,12,-39,26,-43,-53,-43,-24,-19,-9
-34,9,43,12,-39,26,-43,-53,-43,-24,-19,-9
-39,9,48,14,-43,29,-43,-53,-43,-34,-24,-9
-39,9,48,14,-43,29,-43,-53,-53,-43,-24,-9
-39,9,48,14,-43,29,-43,-53,-53,-48,-34,-19
-34,14,48,9,-41,31,-43,-53,-48,-43,-43,-29
-29,14,43,7,-36,29,-53,-58,-53,-43,-43,-29
-19,14,34,2,-26,24,-63,-68,-63,-43,-43,-29
-29,14,43,7,-36,29,-68,-78,-63,-43,-43,-29
-43,9,53,17,-48,31,-68,-82,-63,-43,-43,-34
-53,9,63,21,-58,36,-63,-78,-63,-53,-39,-34
-53,-9,43,31,-48,17,-63,-73,-63,-63,-39,-19
-39,-4,34,21,-36,14,-58,-68,-63,-53,-34,-14
-29,-4,24,17,-26,9,-58,-63,-63,-43,-29,-14
-29,9,39,9,-34,24,-53,-58,-58,-39,-29,-19
-29,29,58,0,-43,43,-48,-58,-58,-39,-29,-29
-19,53,73,-17,-46,63,-48,-53,-48,-29,-24,-24
-9,78,87,-34,-48,82,-48,-48,-39,-19,-19,-19
4,97,92,-51,-43,95,-48,-48,-29,-19,-14,-14
19,102,82,-61,-31,92,-53,-48,-24,-14,-9,-9
34,112,78,-73,-21,95,-58,-53,-24,-14,-4,-4
43,112,68,-78,-12,90,-63,-53,-29,-19,4,0
34,131,97,-82,-31,114,-63,-43,-14,-9,19,19
24,141,117,-82,-46,129,-68,-39,-4,0,29,29
29,156,126,-92,-48,141,-87,-39,9,19,29,39
39,165,126,-102,-43,146,-112,-43,14,29,43,53
78,185,107,-131,-14,146,-126,-29,29,39,48,63
112,195,82,-153,14,139,-126,-29,29,39,48,63
136,185,48,-161,43,117,-126,-4,48,63,78,87
156,185,29,-170,63,107,-126,4,63,78,92,107
141,180,39,-161,51,109,-156,-24,34,63,87,102
141,180,39,-161,51,109,-156,-24,29,78,97,102
122,161,39,-141,41,100,-156,-48,19,53,78,87
92,136,43,-114,24,90,-156,-73,-4,34,58,73
87,112,24,-100,31,68,-146,-78,-24,14,48,58
68,97,29,-82,19,63,-141,-82,-43,-4,34,43
68,78,9,-73,29,43,-122,-82,-53,-19,9,29
43,58,14,-51,14,36,-107,-82,-63,-34,-24,9
14,29,14,-21,0,21,-92,-92,-73,-48,-24,-4
-19,-19,0,19,-9,-9,-73,-97,-87,-73,-34,-24
-24,-19,4,21,-14,-7,-73,-102,-87,-68,-48,-24
-4,-9,-4,7,0,-7,-82,-102,-92,-73,-48,-24
-14,-14,0,14,-7,-7,-68,-102,-92,-73,-53,-34
-24,-9,14,17,-19,2,-53,-102,-92,-73,-58,-39
-29,-9,19,19,-24,4,-53,-97,-97,-78,-58,-39
-34,-14,19,24,-26,2,-58,-97,-97,-78,-58,-39
-34,-14,19,24,-26,2,-58,-97,-92,-73,-53,-34
-34,-14,19,24,-26,2,-53,-97,-87,-73,-53,-34
-48,-19,29,34,-39,4,-53,-97,-92,-73,-58,-39
-48,-19,29,34,-39,4,-53,-97,-92,-73,-68,-39
-43,-19,24,31,-34,2,-43,-102,-92,-92,-78,-53
-43,-14,29,29,-36,7,-43,-102,-97,-112,-82,-68
-43,-14,29,29,-36,7,-43,-102,-102,-87,-63,-53
-43,-24,19,34,-31,-2,-34,-87,-87,-73,-43,-39
-53,-34,19,43,-36,-7,-34,-48,-63,-48,-48,-39
-68,-48,19,58,-43,-14,19,43,-14,-24,-63,-63
-107,-92,14,100,-61,-39,122,239,53,-43,-112,-131
-141,-112,29,126,-85,-41,214,331,87,-92,-180,-200
-190,-58,131,124,-161,36,239,273,107,-112,-204,-214
-234,39,273,97,-253,156,224,151,156,-73,-161,-161
-185,156,341,14,-263,248,136,24,287,117,34,-4
58,331,273,-195,-107,302,-78,-14,541,497,395,278
356,692,336,-524,9,514,-419,-19,927,1058,858,688
722,966,244,-844,239,605,-922,-190,1054,1385,1215,1015
1063,766,-297,-915,680,234,-1395,-580,570,1078,1044,936
936,214,-722,-575,829,-253,-1561,-1732,-1107,-600,-117,170
849,-580,-1429,-134,1139,-1005,-1376,-2322,-2215,-1771,-1073,-570
868,-814,-1683,-26,1276,-1249,-1244,-2366,-2454,-1961,-1215,-668
780,-488,-1268,-146,1024,-878,-990,-1859,-1883,-1410,-810,-380
546,-195,-741,-175,644,-468,-663,-1288,-1215,-868,-434,-126
214,-82,-297,-65,256,-190,-346,-761,-663,-483,-219,-48
-29,-58,-29,43,0,-43,-87,-346,-302,-239,-136,-48
-82,-58,24,70,-53,-17,24,-117,-156,-131,-87,-58
-78,-48,29,63,-53,-9,63,-34,-58,-53,-58,-48
-68,-43,24,56,-46,-9,82,-4,-14,-24,-39,-34
-68,-48,19,58,-43,-14,92,39,-19,-24,-39,-39
-68,-58,9,63,-39,-24,92,58,-24,-34,-58,-48
-63,-63,0,63,-31,-31,102,73,0,-34,-58,-53
-63,-68,-4,65,-29,-36,107,82,4,-9,-48,-53
-63,-68,-4,65,-29,-36,107,92,4,-9,-43,-53
-68,-68,0,68,-34,-34,102,102,4,-14,-43,-53
-68,-73,-4,70,-31,-39,102,112,9,-14,-43,-63
-68,-82,-14,75,-26,-48,107,117,19,-9,-43,-63
-63,-87,-24,75,-19,-56,112,126,24,-4,-43,-58
-68,-78,-9,73,-29,-43,122,136,29,-4,-43,-58
-78,-73,4,75,-41,-34,126,146,29,-4,-43,-53
-78,-73,4,75,-41,-34,126,141,39,0,-43,-58
-73,-73,0,73,-36,-36,136,141,48,-9,-48,-63
-68,-82,-14,75,-26,-48,131,156,48,0,-43,-63
-58,-92,-34,75,-12,-63,131,165,48,14,-43,-63
-58,-82,-24,70,-17,-53,136,175,58,19,-39,-63
-53,-73,-19,63,-17,-46,136,180,63,24,-34,-63
-53,-73,-19,63,-17,-46,141,190,63,19,-34,-63
-58,-82,-24,70,-17,-53,141,204,58,24,-29,-63
-58,-82,-24,70,-17,-53,141,214,68,34,-14,-53
-58,-82,-24,70,-17,-53,151,229,87,39,-9,-43
-48,-82,-34,65,-7,-58,151,244,102,39,-9,-43
-43,-82,-39,63,-2,-61,151,263,112,39,-4,-43
-43,-82,-39,63,-2,-61,161,263,117,48,-4,-43
-43,-82,-39,63,-2,-61,161,258,112,53,-4,-43
-34,-78,-43,56,4,-61,161,268,122,53,-9,-43
-34,-78,-43,56,4,-61,165,273,122,58,-4,-43
-48,-73,-24,61,-12,-48,165,283,126,68,-4,-43
-58,-68,-9,63,-24,-39,170,287,131,73,-4,-43
-48,-68,-19,58,-14,-43,175,297,146,78,0,-43
-43,-68,-24,56,-9,-46,180,297,146,78,0,-43
-43,-63,-19,53,-12,-41,185,302,151,82,4,-39
-43,-63,-19,53,-12,-41,195,312,161,82,9,-34
-43,-63,-19,53,-12,-41,200,322,170,102,14,-34
-43,-58,-14,51,-14,-36,209,326,180,122,19,-24
-48,-48,0,48,-24,-24,204,336,185,126,34,-19
-58,-48,9,53,-34,-19,200,351,204,131,48,-14
-58,-43,14,51,-36,-14,219,351,219,141,58,-9
-63,-39,24,51,-43,-7,234,356,229,151,58,-4
-53,-24,29,39,-41,2,239,370,244,161,63,4
-43,-24,19,34,-31,-2,248,370,248,170,73,14
-43,-14,29,29,-36,7,258,380,244,180,78,4
-48,-14,34,31,-41,9,263,380,248,185,78,-4
-63,-9,53,36,-58,21,273,380,253,175,78,0
-73,-9,63,41,-68,26,278,380,258,185,87,9
-73,9,82,31,-78,46,283,385,273,204,97,19
-82,19,102,31,-92,61,292,390,287,224,107,39
-92,29,122,31,-107,75,302,390,292,234,117,39
-97,39,136,29,-117,87,302,385,297,239,122,39
-97,48,146,24,-122,97,302,375,302,239,126,53
-107,58,165,24,-136,112,292,375,307,248,131,68
-122,58,180,31,-151,119,283,351,302,248,136,68
-122,73,195,24,-158,134,273,322,287,244,136,68
-122,73,195,24,-158,134,253,292,273,219,131,68
-126,82,209,21,-168,146,229,253,253,195,131,68
-131,97,229,17,-180,163,209,224,234,200,136,73
-131,102,234,14,-183,168,185,190,214,204,141,82
-131,122,253,4,-192,187,161,151,204,204,141,82
-126,136,263,-4,-195,200,146,126,185,200,141,82
-126,126,253,0,-190,190,112,92,170,180,136,82
-112,126,239,-7,-175,183,87,68,165,170,131,82
-107,126,234,-9,-170,180,68,29,136,151,122,82
-102,126,229,-12,-165,178,48,-14,102,136,112,87
-97,131,229,-17,-163,180,29,-29,82,117,92,78
-87,136,224,-24,-156,180,4,-39,68,87,78,73
-78,131,209,-26,-143,170,-19,-63,43,78,78,68
-68,122,190,-26,-129,156,-29,-82,24,63,68,58
-68,117,185,-24,-126,151,-39,-82,19,43,58,53
-58,102,161,-21,-109,131,-39,-82,14,43,58,53
-48,97,146,-24,-97,122,-43,-82,24,39,53,58
-39,92,131,-26,-85,112,-43,-82,9,19,34,48
-34,87,122,-26,-78,104,-43,-82,0,14,39,43
-29,82,112,-26,-70,97,-53,-82,-14,9,34,34
-24,73,97,-24,-61,85,-53,-78,-14,0,24,29
-24,53,78,-14,-51,65,-48,-73,-14,-9,14,29
-24,48,73,-12,-48,61,-48,-68,-24,-9,4,19
-24,48,73,-12,-48,61,-48,-63,-24,-19,-4,9
-24,43,68,-9,-46,56,-53,-58,-24,-19,-4,9
-24,43,68,-9,-46,56,-58,-48,-24,-19,0,9
-14,43,58,-14,-36,51,-53,-43,-24,-9,4,9
-9,43,53,-17,-31,48,-53,-39,-24,0,4,9
-4,53,58,-24,-31,56,-53,-39,-19,0,0,14
0,39,39,-19,-19,39,-53,-34,-9,-9,0,19
0,43,43,-21,-21,43,-48,-43,-19,-14,0,19
-4,48,53,-21,-29,51,-48,-48,-29,-14,0,14
-14,48,63,-17,-39,56,-53,-48,-29,-14,0,14
-24,48,73,-12,-48,61,-53,-48,-29,-14,-4,9
-24,53,78,-14,-51,65,-53,-53,-34,-24,-9,4
-24,53,78,-14,-51,65,-53,-58,-39,-29,-14,0
-19,53,73,-17,-46,63,-53,-58,-34,-29,-14,0
-14,48,63,-17,-39,56,-53,-58,-34,-29,-14,0
-14,43,58,-14,-36,51,-48,-48,-34,-19,-14,0
-14,39,53,-12,-34,46,-48,-43,-34,-9,-14,-4
-9,39,48,-14,-29,43,-48,-43,-34,-9,-14,-4
-14,39,53,-12,-34,46,-48,-43,-34,-4,-9,-4
-14,39,53,-12,-34,46,-48,-43,-34,-14,-9,-4
-19,39,58,-9,-39,48,-48,-43,-34,-24,-14,-4
-43,9,53,17,-48,31,-48,-43,-34,-29,-19,-4
-53,4,58,24,-56,31,-48,-48,-34,-29,-19,-4
-39,19,58,9,-48,39,-43,-48,-34,-29,-9,0
-24,34,58,-4,-41,46,-43,-48,-34,-24,0,4
-19,43,63,-12,-41,53,-43,-53,-29,-14,0,9
-19,53,73,-17,-46,63,-43,-53,-24,-9,-4,14
-19,43,63,-12,-41,53,-43,-43,-34,-9,-4,9
-14,53,68,-19,-41,61,-39,-39,-34,0,-4,9
-14,53,68,-19,-41,61,-39,-43,-29,-9,-4,4
-14,53,68,-19,-41,61,-39,-43,-29,-9,-4,0
-24,43,68,-9,-46,56,-43,-53,-29,-19,-19,-4
-34,39,73,-2,-53,56,-48,-58,-34,-24,-24,-9
-34,34,68,0,-51,51,-58,-63,-39,-19,-19,-4
-34,34,68,0,-51,51,-58,-68,-39,-9,-9,0
-9,43,53,-17,-31,48,-48,-63,-34,-4,-4,0
14,48,34,-31,-9,41,-43,-63,-34,-4,0,0
-4,48,53,-21,-29,51,-43,-63,-34,-14,-4,0
-19,48,68,-14,-43,58,-43,-63,-43,-24,-4,0
-24,34,58,-4,-41,46,-43,-63,-43,-24,-4,0
-24,24,48,0,-36,36,-43,-63,-39,-14,-4,0
-34,24,58,4,-46,41,-48,-63,-39,-14,-4,0
-39,24,63,7,-51,43,-53,-68,-43,-14,-4,0
-19,29,48,-4,-34,39,-58,-78,-48,-19,-19,-4
-4,29,34,-12,-19,31,-58,-82,-53,-24,-34,-14
-14,43,58,-14,-36,51,-53,-78,-53,-24,-19,-14
-14,48,63,-17,-39,56,-53,-73,-53,-24,-9,-4
-19,34,53,-7,-36,43,-53,-73,-53,-24,-9,4
-24,34,58,-4,-41,46,-53,-73,-53,-19,0,9
-34,19,53,7,-43,36,-53,-73,-53,-19,-4,4
-24,9,34,7,-29,21,-58,-78,-53,-19,-9,-4
-4,24,29,-9,-17,26,-63,-78,-53,-14,-9,-4
-19,29,48,-4,-34,39,-63,-78,-58,-14,-9,-4
-9,29,39,-9,-24,34,-63,-73,-53,-24,-4,0
-14,19,34,-2,-24,26,-63,-73,-53,-29,-9,-4
-4,24,29,-9,-17,26,-63,-78,-58,-39,-14,-9
-4,29,34,-12,-19,31,-63,-78,-63,-48,-19,-14
-14,24,39,-4,-26,31,-63,-78,-63,-39,-19,-14
-19,24,43,-2,-31,34,-63,-78,-63,-29,-19,-14
-29,14,43,7,-36,29,-58,-73,-48,-24,-9,-9
-39,0,39,19,-39,19,-63,-73,-53,-19,-4,-9
-19,19,39,0,-29,29,-68,-78,-53,-19,-9,-9
9,34,24,-21,-7,29,-68,-73,-53,-19,-14,-9
0,39,39,-19,-19,39,-63,-68,-58,-24,-19,-9
0,39,39,-19,-19,39,-58,-68,-58,-29,-19,0
-14,34,48,-9,-31,41,-58,-73,-43,-29,-4,0
-24,19,43,2,-34,31,-63,-63,-43,-29,-4,4
-19,14,34,2,-26,24,-63,-68,-43,-29,-9,0
-19,9,29,4,-24,19,-68,-78,-48,-29,-19,-9
-19,9,29,4,-24,19,-68,-78,-48,-29,-19,-9
-19,9,29,4,-24,19,-68,-78,-48,-29,-19,-9
-9,24,34,-7,-21,29,-68,-68,-48,-19,-4,0
4,43,39,-24,-17,41,-68,-63,-39,-4,4,9
24,68,43,-46,-9,56,-68,-58,-34,4,14,19
43,92,48,-68,-2,70,-68,-48,-19,19,14,24
53,92,39,-73,7,65,-63,-29,-9,19,24,29
68,102,34,-85,17,68,-58,-9,4,34,39,48
82,97,14,-90,34,56,-58,9,14,43,48,58
107,87,-19,-97,63,34,-58,34,34,63,58,68
131,87,-43,-109,87,21,-63,29,43,78,82,78
156,87,-68,-122,112,9,-78,29,58,87,87,82
170,92,-78,-131,124,7,-102,4,39,68,82,78
151,97,-53,-124,102,21,-146,-34,4,43,78,73
156,97,-58,-126,107,19,-131,-43,-4,39,63,68
161,107,-53,-134,107,26,-131,-68,-24,19,48,63
146,112,-34,-129,90,39,-136,-78,-24,24,48,63
141,102,-39,-122,90,31,-136,-73,-19,24,48,63
136,97,-39,-117,87,29,-141,-73,-34,29,48,68
131,87,-43,-109,87,21,-136,-73,-34,34,53,73
117,87,-29,-102,73,29,-131,-73,-34,34,53,73
117,87,-29,-102,73,29,-126,-73,-34,34,53,73
97,87,-9,-92,53,39,-126,-73,-34,29,43,68
87,87,0,-87,43,43,-122,-87,-43,9,34,53
68,68,0,-68,34,34,-112,-97,-58,-14,14,34
39,48,9,-43,14,29,-102,-102,-63,-19,-4,24
29,39,9,-34,9,24,-102,-102,-73,-34,-9,14
0,24,24,-12,-12,24,-87,-102,-78,-43,-24,-4
-24,19,43,2,-34,31,-78,-102,-82,-53,-39,-19
-29,19,48,4,-39,34,-82,-102,-87,-58,-39,-19
-34,14,48,9,-41,31,-87,-107,-82,-53,-29,-19
-39,14,53,12,-46,34,-87,-107,-78,-43,-14,-14
-39,14,53,12,-46,34,-82,-107,-78,-43,-24,-14
-48,9,58,19,-53,34,-82,-107,-82,-43,-34,-19
-48,9,58,19,-53,34,-82,-107,-82,-58,-39,-19
-43,9,53,17,-48,31,-73,-107,-78,-73,-39,-19
-43,14,58,14,-51,36,-68,-97,-73,-48,-24,-14
-43,14,58,14,-51,36,-63,-87,-68,-14,-14,-9
-43,4,48,19,-46,26,-53,-53,-39,-14,-14,-9
-58,-4,53,31,-56,24,-29,24,0,0,-19,-19
-78,-19,58,48,-68,19,48,126,53,4,-48,-63
-117,-43,73,80,-95,14,126,258,122,-4,-97,-117
-146,-24,122,85,-134,48,190,302,156,-9,-117,-131
-161,53,214,53,-187,134,185,239,195,43,-53,-78
-165,156,322,4,-244,239,122,112,278,156,53,19
-53,297,351,-122,-202,324,-24,-14,434,385,268,200
283,492,209,-387,36,351,-317,-78,658,751,639,502
619,766,146,-692,236,456,-702,-190,824,1078,946,795
946,878,-68,-912,507,405,-1146,-512,663,1063,1019,902
1146,512,-634,-829,890,-61,-1503,-1054,-73,439,566,595
917,-92,-1010,-412,963,-551,-1590,-2186,-1771,-1293,-663,-234
829,-629,-1459,-100,1144,-1044,-1366,-2444,-2357,-1927,-1220,-692
829,-610,-1439,-109,1134,-1024,-1195,-2220,-2142,-1673,-1024,-546
658,-322,-980,-168,819,-651,-883,-1629,-1512,-1112,-624,-268
361,-97,-458,-131,409,-278,-527,-1034,-888,-614,-297,-58
97,-9,-107,-43,102,-58,-258,-575,-448,-297,-131,0
-78,-4,73,41,-75,34,-53,-229,-156,-122,-78,-9
-112,0,112,56,-112,56,29,-43,-48,-53,-34,-19
-78,14,92,31,-85,53,53,0,-14,0,-9,-9
-58,19,78,19,-68,48,63,0,0,9,0,0
-58,9,68,24,-63,39,63,29,-9,-4,-9,-9
-63,0,63,31,-63,31,63,43,-24,-14,-29,-19
-73,-4,68,39,-70,31,68,53,-9,-4,-24,-24
-82,-9,73,46,-78,31,73,63,4,29,-9,-24
-73,-9,63,41,-68,26,78,78,19,34,-4,-24
-68,-9,58,39,-63,24,78,97,24,34,-4,-24
-68,-14,53,41,-61,19,82,112,29,34,-4,-34
-63,-14,48,39,-56,17,87,117,39,39,-4,-34
-53,-19,34,36,-43,7,92,126,43,43,-4,-29
-53,-29,24,41,-39,-2,97,136,48,43,-4,-29
-63,-34,29,48,-46,-2,102,146,48,43,0,-19
-68,-34,34,51,-51,0,107,146,58,58,9,-14
-63,-24,39,43,-51,7,117,151,68,58,9,-14
-63,-14,48,39,-56,17,117,165,68,58,14,-14
-48,-14,34,31,-41,9,117,170,63,58,14,-14
-39,-14,24,26,-31,4,117,170,68,58,14,-14
-53,-14,39,34,-46,12,117,170,73,63,14,-14
-73,-14,58,43,-65,21,122,180,82,63,14,-14
-58,-19,39,39,-48,9,122,195,97,68,14,-19
-39,-14,24,26,-31,4,122,204,107,73,19,-19
-39,-14,24,26,-31,4,131,214,102,78,19,-14
-29,-14,14,21,-21,0,131,214,92,78,19,-14
-29,-14,14,21,-21,0,131,224,102,78,24,-14
-34,-14,19,24,-26,2,141,234,126,87,24,-14
-39,-19,19,29,-29,0,136,244,131,92,24,-14
-34,-19,14,26,-24,-2,131,258,141,92,24,-14
-34,-19,14,26,-24,-2,136,263,141,102,34,-9
-34,-19,14,26,-24,-2,136,273,146,117,34,-4
-19,-9,9,14,-14,0,141,278,151,136,53,9
-9,0,9,4,-9,4,146,292,165,156,78,24
-14,-9,4,12,-9,-2,151,297,165,156,68,14
-14,-14,0,14,-7,-7,156,302,170,161,63,9
-19,-14,4,17,-12,-4,165,312,180,151,68,14
-24,-14,9,19,-17,-2,170,322,190,156,73,14
-24,-9,14,17,-19,2,180,326,195,170,73,24
-24,0,24,12,-24,12,185,336,195,175,78,29
-29,0,29,14,-29,14,190,341,214,180,87,29
-29,0,29,14,-29,14,200,331,224,190,97,24
-34,0,34,17,-34,17,209,336,229,200,97,24
-34,14,48,9,-41,31,219,351,244,209,102,34
-39,14,53,12,-46,34,229,351,248,209,107,43
-43,29,73,7,-58,51,239,361,248,209,112,43
-48,34,82,7,-65,58,244,361,258,214,117,43
-58,39,97,9,-78,68,253,361,263,214,117,48
-58,43,102,7,-80,73,258,361,268,239,126,53
-53,63,117,-4,-85,90,263,361,283,253,136,53
-58,68,126,-4,-92,97,268,370,297,263,146,68
-63,78,141,-7,-102,109,273,380,302,273,156,68
-68,87,156,-9,-112,122,273,375,307,278,161,68
-68,97,165,-14,-117,131,273,356,307,278,165,82
-78,107,185,-14,-131,146,263,346,307,278,170,97
-92,107,200,-7,-146,153,253,322,302,268,175,97
-112,112,224,0,-168,168,244,292,287,278,185,107
-126,107,234,9,-180,170,224,268,278,283,190,117
-107,131,239,-12,-173,185,200,248,283,287,190,117
-92,156,248,-31,-170,202,180,234,283,297,190,117
-92,161,253,-34,-173,207,156,190,248,283,175,117
-97,170,268,-36,-183,219,126,141,219,258,156,112
-107,175,283,-34,-195,229,112,117,204,239,165,112
-117,175,292,-29,-204,234,82,82,190,229,175,112
-87,190,278,-51,-183,234,58,63,175,229,170,112
-68,195,263,-63,-165,229,39,34,156,209,165,117
-63,195,258,-65,-161,226,19,-4,131,195,161,126
-58,195,253,-68,-156,224,0,-19,112,180,146,117
-48,190,239,-70,-143,214,-24,-29,92,156,136,112
-34,175,209,-70,-122,192,-48,-48,68,136,131,107
-34,175,209,-70,-122,192,-48,-48,68,136,131,107
