I, II, III, aVR, aVL, aVF, V1, V2, V3, V4, V5, V6
-78,-68,9,73,-43,-29,0,-97,-156,-165,-156,-117
-78,-68,9,73,-43,-29,0,-102,-161,-165,-156,-117
-78,-68,9,73,-43,-29,0,-107,-165,-165,-156,-117
-82,-68,14,75,-48,-26,0,-107,-165,-165,-156,-117
-87,-68,19,78,-53,-24,0,-107,-165,-165,-156,-117
-87,-68,19,78,-53,-24,0,-107,-165,-170,-156,-122
-87,-68,19,78,-53,-24,0,-107,-165,-175,-156,-126
-87,-68,19,78,-53,-24,0,-107,-170,-175,-156,-126
-87,-68,19,78,-53,-24,0,-107,-175,-175,-156,-126
-87,-68,19,78,-53,-24,0,-107,-175,-175,-156,-126
-87,-58,29,73,-58,-14,0,-107,-170,-175,-156,-126
-87,-53,34,70,-61,-9,-4,-112,-170,-175,-156,-126
-78,-39,39,58,-58,0,-19,-112,-151,-165,-146,-117
-68,-9,58,39,-63,24,-19,-112,-141,-146,-131,-102
-53,4,58,24,-56,31,-14,-107,-126,-136,-122,-92
-43,19,63,12,-53,41,-9,-102,-117,-122,-102,-78
-43,29,73,7,-58,51,-9,-92,-102,-107,-92,-68
-39,34,73,2,-56,53,-9,-92,-102,-102,-92,-63
-39,34,73,2,-56,53,-14,-92,-97,-97,-87,-63
-39,34,73,2,-56,53,-29,-102,-92,-97,-87,-63
-19,48,68,-14,-43,58,-43,-107,-87,-87,-78,-53
0,63,63,-31,-31,63,-58,-112,-82,-82,-68,-48
9,73,63,-41,-26,68,-63,-112,-82,-82,-68,-43
14,73,58,-43,-21,65,-73,-112,-87,-82,-68,-39
14,78,63,-46,-24,70,-82,-122,-92,-82,-68,-39
29,82,53,-56,-12,68,-82,-126,-102,-82,-63,-29
29,82,53,-56,-12,68,-82,-126,-112,-92,-63,-29
39,78,39,-58,0,58,-82,-122,-122,-92,-63,-19
34,68,34,-51,0,51,-78,-117,-126,-97,-68,-14
19,58,39,-39,-9,48,-68,-122,-141,-112,-73,-24
-9,48,58,-19,-34,53,-58,-126,-141,-112,-73,-34
-34,29,63,2,-48,46,-43,-131,-146,-122,-87,-48
-58,4,63,26,-61,34,-19,-131,-151,-136,-107,-68
-73,-29,43,51,-58,7,-4,-122,-156,-146,-122,-87
-82,-39,43,61,-63,2,0,-117,-170,-156,-146,-107
-87,-53,34,70,-61,-9,-4,-117,-175,-170,-156,-117
-97,-63,34,80,-65,-14,-4,-122,-190,-190,-170,-136
-97,-82,14,90,-56,-34,-4,-131,-209,-214,-185,-146
-97,-82,14,90,-56,-34,-4,-131,-209,-214,-185,-141
-112,-87,24,100,-68,-31,0,-126,-209,-209,-185,-141
-112,-92,19,102,-65,-36,9,-126,-214,-209,-185,-146
-112,-92,19,102,-65,-36,9,-131,-214,-214,-195,-146
-112,-97,14,104,-63,-41,9,-131,-214,-214,-195,-151
-117,-97,19,107,-68,-39,14,-131,-214,-219,-195,-156
-122,-107,14,114,-68,-46,19,-131,-214,-224,-195,-165
-122,-107,14,114,-68,-46,19,-131,-214,-224,-195,-165
-126,-107,19,117,-73,-43,19,-136,-214,-229,-200,-165
-126,-107,19,117,-73,-43,19,-136,-214,-229,-204,-170
-131,-112,19,122,-75,-46,19,-136,-214,-229,-209,-170
-141,-117,24,129,-82,-46,39,-122,-209,-234,-224,-180
-170,-122,48,146,-109,-36,73,-107,-190,-244,-253,-214
-209,-136,73,173,-141,-31,126,-87,-161,-248,-292,-263
-219,-136,82,178,-151,-26,161,-73,-131,-244,-287,-273
-204,-141,63,173,-134,-39,180,-24,-107,-209,-258,-244
-112,-136,-24,124,-43,-80,180,112,-4,-82,-122,-131
53,-82,-136,14,95,-109,112,229,141,131,117,87
268,92,-175,-180,222,-41,-53,258,302,414,453,395
507,346,-161,-427,334,92,-307,214,439,746,858,756
780,634,-146,-707,463,244,-614,97,570,1127,1332,1185
980,878,-102,-929,541,387,-829,0,697,1488,1732,1542
1151,976,-175,-1063,663,400,-941,-63,819,1805,2059,1825
1224,951,-273,-1088,749,339,-941,-97,897,2039,2269,1976
1151,854,-297,-1002,724,278,-868,-175,790,1991,2200,1898
951,658,-292,-805,622,183,-688,-209,614,1717,1912,1649
741,346,-395,-544,568,-24,-453,-107,414,1263,1434,1234
478,92,-385,-285,431,-146,-258,-82,136,629,775,683
200,-82,-283,-58,241,-183,-102,-92,-107,122,185,165
14,-122,-136,53,75,-129,24,-63,-107,0,19,14
-34,-122,-87,78,26,-104,58,-53,-97,-24,0,0
-39,-107,-68,73,14,-87,58,-29,-58,-24,-4,-4
-43,-68,-24,56,-9,-46,34,-14,-43,-29,-14,-14
-43,-68,-24,56,-9,-46,34,-14,-43,-34,-34,-29
-48,-87,-39,68,-4,-63,34,-14,-63,-63,-58,-53
-73,-97,-24,85,-24,-61,53,-19,-87,-97,-97,-82
-92,-92,0,92,-46,-46,63,-24,-97,-131,-131,-112
-97,-97,0,97,-48,-48,63,-24,-97,-136,-136,-117
-102,-107,-4,104,-48,-56,63,-24,-97,-136,-141,-131
-107,-107,0,107,-53,-53,68,-24,-102,-146,-156,-141
-112,-107,4,109,-58,-51,73,-24,-107,-151,-165,-146
-112,-102,9,107,-61,-46,68,-24,-107,-151,-165,-146
-112,-102,9,107,-61,-46,63,-14,-102,-151,-165,-141
-112,-102,9,107,-61,-46,68,-9,-102,-146,-156,-141
-107,-102,4,104,-56,-48,68,-4,-97,-146,-151,-141
-107,-102,4,104,-56,-48,68,-4,-97,-146,-151,-136
-107,-97,9,102,-58,-43,68,4,-92,-141,-151,-131
-102,-97,4,100,-53,-46,68,9,-82,-136,-146,-126
-102,-92,9,97,-56,-41,68,14,-73,-131,-141,-126
-92,-92,0,92,-46,-46,68,24,-68,-126,-136,-126
-82,-87,-4,85,-39,-46,68,29,-63,-122,-136,-131
-82,-87,-4,85,-39,-46,68,29,-53,-117,-131,-126
-78,-82,-4,80,-36,-43,68,43,-48,-117,-131,-122
-78,-82,-4,80,-36,-43,68,48,-39,-112,-126,-122
-73,-78,-4,75,-34,-41,68,58,-29,-102,-122,-117
-78,-73,4,75,-41,-34,68,68,-14,-92,-112,-107
-78,-73,4,75,-41,-34,68,73,-4,-78,-102,-102
-73,-68,4,70,-39,-31,68,82,4,-68,-92,-97
-68,-63,4,65,-36,-29,73,97,19,-53,-87,-92
-68,-63,4,65,-36,-29,73,112,34,-53,-82,-92
-63,-58,4,61,-34,-26,78,126,53,-48,-82,-92
-58,-53,4,56,-31,-24,78,131,68,-39,-73,-87
-48,-58,-9,53,-19,-34,82,146,78,-24,-63,-78
-43,-48,-4,46,-19,-26,87,170,102,-14,-58,-68
-39,-43,-4,41,-17,-24,92,185,126,0,-48,-68
-34,-34,0,34,-17,-17,92,204,146,24,-39,-63
-29,-29,0,29,-14,-14,97,224,170,39,-24,-58
-24,-24,0,24,-12,-12,102,244,190,53,-14,-48
-19,-14,4,17,-12,-4,107,268,214,68,-4,-43
-9,-9,0,9,-4,-4,117,287,239,82,0,-39
-9,0,9,4,-9,4,122,307,263,102,14,-34
4,4,0,-4,2,2,126,326,287,122,24,-19
14,9,-4,-12,9,2,131,341,307,136,34,-9
19,14,-4,-17,12,4,131,361,331,156,43,0
24,19,-4,-21,14,7,136,380,356,165,53,0
24,29,4,-26,9,17,141,400,375,180,68,4
29,34,4,-31,12,19,146,409,395,195,78,9
29,39,9,-34,9,24,151,419,419,204,87,19
34,43,9,-39,12,26,151,429,434,219,92,24
39,48,9,-43,14,29,151,439,444,234,102,34
39,53,14,-46,12,34,151,439,458,239,112,43
43,68,24,-56,9,46,146,434,463,244,117,43
48,82,34,-65,7,58,131,414,463,253,122,48
48,87,39,-68,4,63,117,395,463,263,131,58
48,92,43,-70,2,68,102,361,448,263,141,63
48,97,48,-73,0,73,87,331,429,263,141,73
43,97,53,-70,-4,75,78,297,395,258,146,73
43,97,53,-70,-4,75,68,258,356,239,146,73
34,92,58,-63,-12,75,58,209,322,214,136,73
29,78,48,-53,-9,63,43,180,283,185,117,63
19,63,43,-41,-12,53,34,146,229,161,102,53
9,58,48,-34,-19,53,29,107,190,136,82,43
0,43,43,-21,-21,43,24,68,146,107,68,29
-4,39,43,-17,-24,41,19,43,112,73,39,14
-14,24,39,-4,-26,31,9,19,73,39,14,4
-24,14,39,4,-31,26,4,-4,34,14,0,-14
-34,0,34,17,-34,17,0,-24,0,-9,-24,-24
-39,-9,29,24,-34,9,-4,-43,-24,-29,-34,-39
-39,-19,19,29,-29,0,-4,-58,-43,-53,-48,-48
-43,-24,19,34,-31,-2,-4,-63,-68,-68,-58,-58
-53,-34,19,43,-36,-7,-4,-73,-78,-78,-68,-68
-58,-34,24,46,-41,-4,-4,-82,-87,-87,-82,-73
-68,-43,24,56,-46,-9,-4,-82,-97,-102,-97,-73
-68,-43,24,56,-46,-9,-9,-87,-107,-112,-102,-87
-68,-43,24,56,-46,-9,-9,-87,-107,-117,-102,-87
-63,-43,19,53,-41,-12,-9,-92,-117,-122,-102,-87
-58,-48,9,53,-34,-19,-9,-97,-122,-126,-102,-87
-63,-48,14,56,-39,-17,-9,-97,-122,-122,-102,-87
-63,-48,14,56,-39,-17,-9,-92,-122,-117,-107,-87
-63,-48,14,56,-39,-17,-4,-92,-117,-122,-107,-87
-63,-48,14,56,-39,-17,0,-92,-117,-122,-107,-87
-63,-53,9,58,-36,-21,0,-92,-117,-122,-107,-92
-63,-58,4,61,-34,-26,0,-92,-117,-122,-107,-92
-68,-58,9,63,-39,-24,-4,-87,-117,-126,-107,-92
-73,-58,14,65,-43,-21,-9,-87,-117,-126,-107,-92
-73,-53,19,63,-46,-17,-9,-87,-117,-126,-107,-92
-73,-48,24,61,-48,-12,-4,-87,-117,-126,-107,-92
-68,-43,24,56,-46,-9,-4,-87,-122,-126,-102,-92
-63,-43,19,53,-41,-12,-4,-87,-122,-126,-102,-87
-63,-43,19,53,-41,-12,0,-82,-122,-126,-97,-87
-63,-39,24,51,-43,-7,0,-82,-117,-126,-97,-87
-68,-39,29,53,-48,-4,0,-87,-117,-122,-102,-87
-73,-39,34,56,-53,-2,4,-87,-117,-117,-102,-87
-73,-48,24,61,-48,-12,4,-82,-117,-117,-102,-87
-73,-53,19,63,-46,-17,4,-82,-117,-117,-102,-87
-68,-53,14,61,-41,-19,4,-82,-117,-117,-102,-82
-63,-53,9,58,-36,-21,4,-82,-117,-117,-102,-78
-63,-48,14,56,-39,-17,4,-87,-117,-117,-102,-78
-63,-48,14,56,-39,-17,4,-92,-117,-117,-97,-78
-68,-53,14,61,-41,-19,4,-92,-117,-117,-97,-78
-73,-58,14,65,-43,-21,4,-92,-122,-117,-92,-78
-73,-58,14,65,-43,-21,4,-92,-122,-117,-92,-82
-73,-58,14,65,-43,-21,4,-97,-122,-117,-92,-87
-73,-53,19,63,-46,-17,4,-97,-122,-117,-97,-87
-78,-53,24,65,-51,-14,4,-97,-122,-117,-97,-87
-73,-53,19,63,-46,-17,4,-92,-122,-122,-97,-87
-68,-53,14,61,-41,-19,4,-87,-126,-122,-97,-87
-68,-53,14,61,-41,-19,4,-87,-126,-126,-102,-87
-68,-58,9,63,-39,-24,4,-92,-131,-131,-102,-87
-68,-63,4,65,-36,-29,0,-92,-131,-136,-112,-92
-68,-63,4,65,-36,-29,-4,-92,-136,-141,-117,-92
-68,-58,9,63,-39,-24,0,-92,-141,-141,-117,-92
-73,-58,14,65,-43,-21,0,-97,-141,-146,-122,-92
-73,-58,14,65,-43,-21,4,-97,-141,-146,-122,-97
-73,-58,14,65,-43,-21,4,-97,-141,-141,-126,-97
-73,-63,9,68,-41,-26,4,-97,-141,-146,-126,-102
-73,-63,9,68,-41,-26,4,-102,-146,-146,-126,-102
-78,-63,14,70,-46,-24,4,-102,-146,-146,-126,-102
-78,-63,14,70,-46,-24,4,-102,-151,-146,-131,-102
-78,-63,14,70,-46,-24,4,-107,-156,-156,-131,-102
-78,-63,14,70,-46,-24,4,-112,-156,-161,-136,-102
-78,-68,9,73,-43,-29,4,-112,-156,-161,-136,-107
-78,-73,4,75,-41,-34,4,-112,-161,-161,-136,-107
-78,-73,4,75,-41,-34,4,-117,-161,-165,-136,-107
-78,-73,4,75,-41,-34,4,-117,-161,-165,-141,-107
-78,-68,9,73,-43,-29,4,-117,-161,-165,-141,-107
-78,-68,9,73,-43,-29,9,-117,-165,-165,-146,-112
-78,-68,9,73,-43,-29,9,-117,-165,-165,-146,-112
-78,-68,9,73,-43,-29,9,-117,-165,-165,-146,-117
-78,-63,14,70,-46,-24,9,-112,-161,-161,-141,-117
-78,-58,19,68,-48,-19,9,-107,-156,-156,-136,-117
-78,-53,24,65,-51,-14,9,-107,-156,-156,-131,-117
-73,-43,29,58,-51,-7,0,-107,-146,-151,-122,-112
-68,-34,34,51,-51,0,-9,-112,-141,-146,-117,-107
-63,-9,53,36,-58,21,-9,-112,-131,-126,-102,-92
-58,4,63,26,-61,34,-4,-107,-117,-117,-92,-82
-53,19,73,17,-63,46,0,-102,-107,-107,-78,-73
-53,34,87,9,-70,61,0,-92,-92,-97,-78,-68
-48,43,92,2,-70,68,0,-92,-92,-92,-82,-63
-43,43,87,0,-65,65,-4,-97,-87,-92,-78,-63
-39,43,82,-2,-61,63,-19,-107,-82,-97,-78,-63
-19,58,78,-19,-48,68,-34,-107,-78,-87,-68,-53
0,68,68,-34,-34,68,-53,-112,-73,-78,-53,-43
9,68,58,-39,-24,63,-63,-107,-73,-73,-48,-34
14,63,48,-39,-17,56,-73,-102,-78,-73,-48,-29
14,68,53,-41,-19,61,-87,-112,-87,-73,-53,-29
29,73,43,-51,-7,58,-92,-117,-102,-78,-53,-19
29,73,43,-51,-7,58,-92,-117,-112,-92,-53,-19
43,73,29,-58,7,51,-92,-117,-122,-92,-53,-14
43,68,24,-56,9,46,-87,-117,-126,-97,-58,-14
29,58,29,-43,0,43,-78,-122,-141,-112,-68,-24
0,48,48,-24,-24,48,-68,-126,-141,-112,-73,-34
-29,29,58,0,-43,43,-53,-131,-146,-122,-87,-48
-58,4,63,26,-61,34,-29,-131,-151,-136,-107,-68
-73,-29,43,51,-58,7,-14,-126,-156,-146,-117,-82
-82,-39,43,61,-63,2,-9,-126,-170,-156,-136,-97
-87,-58,29,73,-58,-14,-9,-126,-175,-170,-146,-107
-97,-73,24,85,-61,-24,-4,-131,-190,-190,-161,-126
-97,-92,4,95,-51,-43,-4,-141,-209,-214,-180,-141
-97,-92,4,95,-51,-43,0,-141,-209,-214,-180,-141
-112,-92,19,102,-65,-36,4,-136,-209,-209,-175,-141
-112,-92,19,102,-65,-36,9,-136,-214,-209,-175,-146
-112,-92,19,102,-65,-36,9,-141,-214,-214,-185,-146
-112,-97,14,104,-63,-41,9,-141,-209,-214,-190,-151
-117,-97,19,107,-68,-39,14,-141,-204,-214,-195,-151
-122,-107,14,114,-68,-46,19,-141,-204,-214,-195,-156
-122,-107,14,114,-68,-46,24,-136,-204,-214,-195,-156
-126,-107,19,117,-73,-43,29,-136,-209,-219,-200,-156
-126,-107,19,117,-73,-43,29,-136,-214,-219,-200,-161
-131,-112,19,122,-75,-46,29,-141,-214,-219,-200,-161
-141,-117,24,129,-82,-46,43,-141,-214,-229,-214,-170
-170,-122,48,146,-109,-36,73,-136,-204,-248,-248,-204
-214,-136,78,175,-146,-29,126,-117,-185,-263,-297,-253
-229,-136,92,183,-161,-21,161,-102,-161,-273,-297,-263
-214,-146,68,180,-141,-39,180,-48,-141,-263,-287,-248
-112,-146,-34,129,-39,-90,170,92,-43,-141,-165,-151
73,-92,-165,9,119,-129,92,224,102,78,68,48
302,92,-209,-197,256,-58,-87,268,263,361,395,331
556,356,-200,-456,378,78,-356,234,409,683,780,678
839,634,-204,-736,522,214,-649,141,566,1049,1224,1088
1054,868,-185,-961,619,341,-858,48,707,1405,1615,1434
1239,946,-292,-1093,766,326,-976,-9,805,1688,1912,1698
1332,902,-429,-1117,880,236,-980,-43,858,1893,2103,1839
1273,795,-478,-1034,875,158,-917,-151,761,1844,2044,1771
1054,595,-458,-824,756,68,-736,-209,595,1595,1790,1551
829,317,-512,-573,671,-97,-512,-117,400,1176,1366,1185
546,97,-448,-322,497,-175,-312,-82,131,566,732,663
244,-68,-312,-87,278,-190,-131,-82,-82,102,175,170
43,-102,-146,29,95,-124,9,-48,-58,14,39,24
-14,-102,-87,58,36,-95,48,-43,-58,-4,19,0
-19,-87,-68,53,24,-78,48,-29,-29,-4,14,-4
-34,-53,-19,43,-7,-36,29,-14,-24,-19,-4,-19
-48,-58,-9,53,-19,-34,34,-14,-34,-34,-34,-39
-58,-78,-19,68,-19,-48,34,-19,-53,-63,-58,-63
-82,-92,-9,87,-36,-51,53,-29,-78,-97,-97,-92
-97,-87,9,92,-53,-39,63,-34,-87,-131,-126,-117
-97,-87,9,92,-53,-39,63,-34,-87,-136,-126,-112
-102,-97,4,100,-53,-46,63,-29,-87,-136,-131,-122
-107,-97,9,102,-58,-43,68,-24,-92,-146,-141,-131
-112,-97,14,104,-63,-41,73,-24,-102,-151,-151,-136
-112,-92,19,102,-65,-36,73,-24,-107,-151,-156,-136
-112,-92,19,102,-65,-36,73,-14,-102,-151,-156,-136
-112,-92,19,102,-65,-36,78,-9,-102,-146,-151,-141
-112,-92,19,102,-65,-36,78,-4,-92,-146,-151,-141
-117,-92,24,104,-70,-34,78,-4,-87,-146,-151,-141
-117,-87,29,102,-73,-29,78,4,-82,-141,-151,-136
-112,-87,24,100,-68,-31,78,9,-73,-136,-146,-126
-112,-87,24,100,-68,-31,78,14,-63,-131,-141,-126
-107,-92,14,100,-61,-39,78,24,-58,-126,-136,-122
-102,-87,14,95,-58,-36,78,29,-53,-122,-136,-122
-102,-87,14,95,-58,-36,78,29,-43,-112,-126,-117
-97,-78,19,87,-58,-29,78,43,-39,-107,-122,-112
-97,-73,24,85,-61,-24,78,48,-29,-102,-117,-112
-92,-68,24,80,-58,-21,78,58,-19,-92,-112,-107
-92,-63,29,78,-61,-17,78,68,-4,-87,-107,-102
-87,-63,24,75,-56,-19,78,73,4,-78,-102,-102
-82,-58,24,70,-53,-17,78,82,14,-68,-92,-97
-73,-53,19,63,-46,-17,82,97,29,-53,-87,-92
-68,-53,14,61,-41,-19,82,112,43,-48,-78,-87
-63,-48,14,56,-39,-17,87,126,63,-39,-73,-87
-58,-39,19,48,-39,-9,87,136,78,-29,-63,-87
-48,-39,9,43,-29,-14,92,156,87,-14,-53,-78
-43,-29,14,36,-29,-7,97,180,112,-4,-48,-68
-39,-19,19,29,-29,0,107,195,136,9,-39,-68
-34,-9,24,21,-29,7,112,214,151,29,-34,-63
-29,-9,19,19,-24,4,117,239,175,39,-24,-58
-24,-4,19,14,-21,7,122,263,200,53,-14,-48
-24,0,24,12,-24,12,126,287,224,68,-4,-43
-19,0,19,9,-19,9,136,307,248,82,0,-39
-19,9,29,4,-24,19,141,326,273,102,14,-34
-9,14,24,-2,-17,19,146,351,297,117,24,-24
-4,19,24,-7,-14,21,151,370,317,126,34,-19
0,24,24,-12,-12,24,151,390,341,146,43,-9
4,29,24,-17,-9,26,156,409,366,156,53,-9
9,39,29,-24,-9,34,161,429,385,170,63,-4
19,43,24,-31,-2,34,165,444,405,185,68,0
19,48,29,-34,-4,39,170,458,429,195,78,9
24,53,29,-39,-2,41,170,468,444,209,82,14
29,58,29,-43,0,43,170,478,453,224,92,24
29,63,34,-46,-2,48,170,473,468,229,102,34
34,73,39,-53,-2,56,165,463,473,239,112,39
39,82,43,-61,-2,63,151,444,468,253,122,48
39,87,48,-63,-4,68,141,424,463,263,131,58
43,92,48,-68,-2,70,131,390,448,263,141,63
48,97,48,-73,0,73,117,361,434,263,141,73
43,97,53,-70,-4,75,107,326,405,258,141,73
43,97,53,-70,-4,75,92,287,366,239,136,73
34,92,58,-63,-12,75,73,234,326,214,126,73
29,82,53,-56,-12,68,53,195,283,185,107,63
19,73,53,-46,-17,63,43,156,229,156,92,48
9,68,58,-39,-24,63,34,117,190,126,73,34
0,53,53,-26,-26,53,24,73,146,97,58,19
-4,48,53,-21,-29,51,19,39,112,63,34,4
-14,34,48,-9,-31,41,9,9,73,29,14,0
-24,24,48,0,-36,36,9,-14,34,4,0,-14
-34,9,43,12,-39,26,4,-34,0,-19,-19,-24
-39,0,39,19,-39,19,-4,-53,-24,-39,-29,-39
-39,-9,29,24,-34,9,-4,-68,-43,-58,-48,-48
-43,-14,29,29,-36,7,-4,-73,-68,-68,-58,-58
-53,-24,29,39,-41,2,-4,-82,-78,-78,-68,-68
-53,-24,29,39,-41,2,-4,-92,-87,-87,-78,-73
-58,-39,19,48,-39,-9,-4,-92,-97,-102,-87,-73
-58,-43,14,51,-36,-14,-9,-97,-107,-107,-92,-87
-58,-43,14,51,-36,-14,-9,-97,-107,-107,-92,-87
-58,-43,14,51,-36,-14,-9,-102,-117,-112,-97,-87
-58,-48,9,53,-34,-19,-9,-107,-117,-117,-102,-87
-63,-48,14,56,-39,-17,-9,-107,-112,-117,-102,-87
-63,-48,14,56,-39,-17,-9,-102,-112,-117,-107,-87
-63,-48,14,56,-39,-17,-9,-102,-112,-122,-107,-87
-68,-43,24,56,-46,-9,-9,-102,-122,-122,-107,-87
-73,-39,34,56,-53,-2,-9,-102,-126,-122,-107,-92
-73,-39,34,56,-53,-2,-9,-102,-126,-122,-107,-92
-73,-39,34,56,-53,-2,-9,-97,-122,-122,-107,-92
-68,-39,29,53,-48,-4,-9,-97,-117,-117,-107,-92
-63,-39,24,51,-43,-7,-9,-97,-117,-117,-107,-92
-63,-39,24,51,-43,-7,-4,-97,-117,-117,-107,-92
-63,-39,24,51,-43,-7,-4,-97,-122,-117,-102,-92
-63,-43,19,53,-41,-12,-4,-97,-122,-117,-102,-87
-63,-43,19,53,-41,-12,-4,-92,-122,-117,-97,-87
-63,-39,24,51,-43,-7,-9,-92,-117,-117,-97,-87
-63,-39,24,51,-43,-7,-9,-97,-117,-117,-102,-87
-63,-39,24,51,-43,-7,-4,-97,-117,-117,-102,-87
-63,-43,19,53,-41,-12,-4,-92,-117,-117,-102,-87
-58,-43,14,51,-36,-14,-4,-92,-117,-117,-102,-87
-53,-43,9,48,-31,-17,-4,-92,-117,-117,-102,-87
-53,-43,9,48,-31,-17,-4,-92,-117,-117,-102,-87
-53,-39,14,46,-34,-12,-4,-92,-117,-117,-107,-87
-58,-39,19,48,-39,-9,-4,-92,-117,-122,-107,-92
-63,-39,24,51,-43,-7,-4,-92,-117,-126,-107,-97
-63,-39,24,51,-43,-7,-4,-92,-122,-126,-102,-97
-63,-39,24,51,-43,-7,-4,-92,-122,-126,-102,-97
-63,-39,24,51,-43,-7,-4,-97,-122,-122,-102,-92
-63,-39,24,51,-43,-7,-4,-97,-122,-117,-107,-87
-68,-43,24,56,-46,-9,-4,-97,-122,-117,-107,-87
-68,-43,24,56,-46,-9,-4,-97,-122,-122,-107,-92
-68,-43,24,56,-46,-9,-4,-97,-126,-126,-107,-97
-68,-43,24,56,-46,-9,-4,-97,-126,-136,-112,-97
-68,-53,14,61,-41,-19,-4,-102,-131,-141,-112,-97
-68,-63,4,65,-36,-29,-4,-102,-131,-141,-117,-102
-68,-63,4,65,-36,-29,-4,-102,-136,-141,-117,-102
-68,-58,9,63,-39,-24,0,-102,-141,-141,-117,-102
-73,-58,14,65,-43,-21,0,-107,-141,-146,-122,-102
-73,-58,14,65,-43,-21,0,-107,-141,-151,-122,-107
-78,-58,19,68,-48,-19,-4,-107,-141,-151,-131,-107
-82,-63,19,73,-51,-21,-4,-107,-141,-156,-136,-112
-82,-63,19,73,-51,-21,-4,-112,-146,-156,-136,-112
-87,-63,24,75,-56,-19,-4,-112,-146,-156,-136,-112
-82,-58,24,70,-53,-17,-4,-117,-151,-156,-141,-117
-78,-53,24,65,-51,-14,-4,-122,-156,-161,-141,-122
-78,-53,24,65,-51,-14,-4,-122,-156,-161,-146,-122
-78,-53,24,65,-51,-14,-4,-122,-156,-161,-146,-126
-78,-58,19,68,-48,-19,-4,-122,-161,-161,-146,-126
-78,-63,14,70,-46,-24,-4,-126,-161,-165,-146,-126
-78,-63,14,70,-46,-24,-4,-126,-161,-165,-146,-126
-82,-68,14,75,-48,-26,-4,-126,-161,-170,-141,-126
-82,-68,14,75,-48,-26,0,-126,-161,-165,-141,-122
-87,-68,19,78,-53,-24,0,-126,-165,-165,-146,-117
-87,-68,19,78,-53,-24,0,-126,-165,-165,-146,-117
-87,-68,19,78,-53,-24,0,-126,-165,-165,-146,-117
-82,-63,19,73,-51,-21,0,-126,-161,-165,-146,-117
-78,-53,24,65,-51,-14,0,-126,-156,-165,-146,-117
-78,-43,34,61,-56,-4,-4,-126,-156,-165,-146,-117
-68,-29,39,48,-53,4,-19,-122,-141,-156,-136,-107
-63,0,63,31,-63,31,-19,-122,-126,-136,-122,-92
-53,14,68,19,-61,41,-14,-117,-107,-126,-112,-82
-43,29,73,7,-58,51,-9,-112,-97,-117,-97,-73
-43,39,82,2,-63,61,-9,-102,-82,-107,-92,-68
-34,43,78,-4,-56,61,-9,-102,-82,-102,-87,-63
-29,43,73,-7,-51,58,-14,-102,-78,-97,-78,-63
-29,43,73,-7,-51,58,-29,-107,-78,-97,-78,-63
-9,58,68,-24,-39,63,-43,-107,-78,-87,-68,-53
9,63,53,-36,-21,58,-63,-112,-73,-78,-53,-43
19,63,43,-41,-12,53,-73,-112,-73,-73,-48,-34
24,63,39,-43,-7,51,-82,-107,-78,-73,-53,-29
24,68,43,-46,-9,56,-92,-112,-82,-73,-58,-29
43,73,29,-58,7,51,-92,-117,-92,-78,-53,-19
48,73,24,-61,12,48,-92,-117,-102,-92,-53,-19
63,73,9,-68,26,41,-92,-122,-117,-97,-53,-19
63,68,4,-65,29,36,-87,-126,-126,-107,-58,-24
39,58,19,-48,9,39,-78,-131,-141,-122,-73,-34
0,48,48,-24,-24,48,-68,-136,-141,-122,-82,-43
-29,29,58,0,-43,43,-53,-146,-146,-131,-97,-58
-58,4,63,26,-61,34,-29,-151,-151,-146,-117,-78
-73,-29,43,51,-58,7,-14,-146,-156,-156,-126,-92
-82,-39,43,61,-63,2,-9,-146,-170,-165,-146,-107
-87,-58,29,73,-58,-14,-9,-146,-175,-175,-156,-117
-97,-73,24,85,-61,-24,-4,-151,-190,-190,-170,-136
-97,-92,4,95,-51,-43,-4,-161,-209,-214,-190,-151
-97,-92,4,95,-51,-43,-4,-161,-209,-214,-195,-151
-112,-87,24,100,-68,-31,-4,-156,-209,-209,-190,-151
-112,-82,29,97,-70,-26,0,-156,-214,-209,-185,-156
-117,-82,34,100,-75,-24,0,-161,-214,-214,-195,-156
-122,-87,34,104,-78,-26,0,-161,-214,-214,-195,-161
-126,-92,34,109,-80,-29,4,-161,-214,-214,-195,-161
-131,-107,24,119,-78,-41,9,-161,-214,-214,-195,-165
-126,-107,19,117,-73,-43,14,-151,-214,-214,-195,-165
-126,-107,19,117,-73,-43,19,-146,-214,-219,-200,-165
-126,-107,19,117,-73,-43,24,-146,-209,-219,-200,-170
-131,-112,19,122,-75,-46,29,-146,-204,-219,-200,-170
-151,-117,34,134,-92,-41,43,-141,-204,-224,-209,-175
-190,-122,68,156,-129,-26,73,-136,-190,-234,-234,-204
-224,-131,92,178,-158,-19,122,-117,-165,-239,-273,-248
-229,-126,102,178,-165,-12,151,-102,-141,-234,-268,-253
-204,-136,68,170,-136,-34,165,-39,-122,-214,-253,-234
-102,-136,-34,119,-34,-85,161,112,-24,-102,-131,-131
97,-63,-161,-17,129,-112,68,244,126,107,97,68
346,131,-214,-239,280,-41,-122,287,292,385,424,356
605,385,-219,-495,412,82,-375,248,439,683,775,683
897,673,-224,-785,561,224,-683,136,580,1029,1195,1078
1102,888,-214,-995,658,336,-893,29,692,1351,1556,1395
1278,956,-322,-1117,800,317,-1000,-43,800,1629,1844,1639
1351,902,-448,-1127,900,226,-995,-97,849,1805,2020,1776
1278,775,-502,-1027,890,136,-917,-195,712,1698,1917,1683
1049,595,-453,-822,751,70,-736,-239,536,1449,1654,1454
810,297,-512,-553,661,-107,-502,-146,336,1019,1200,1058
527,73,-453,-300,490,-190,-283,-112,102,473,629,585
229,-73,-302,-78,265,-187,-102,-112,-97,53,126,146
39,-107,-146,34,92,-126,19,-73,-92,-34,-9,4
-14,-102,-87,58,36,-95,48,-53,-78,-24,0,0
-19,-87,-68,53,24,-78,48,-29,-39,-24,-4,-4
-24,-48,-24,36,0,-36,24,-14,-24,-29,-14,-14
-34,-48,-14,41,-9,-31,29,-14,-24,-34,-34,-29
-48,-68,-19,58,-14,-43,34,-14,-43,-63,-58,-53
-73,-82,-9,78,-31,-46,53,-19,-68,-92,-97,-82
-92,-82,9,87,-51,-36,63,-24,-78,-122,-131,-112
-97,-87,9,92,-53,-39,63,-24,-82,-126,-136,-112
-102,-97,4,100,-53,-46,63,-24,-87,-126,-141,-122
-112,-97,14,104,-63,-41,68,-24,-97,-141,-151,-131
-122,-97,24,109,-73,-36,73,-24,-107,-151,-156,-136
-122,-92,29,107,-75,-31,68,-29,-107,-151,-156,-136
-122,-92,29,107,-75,-31,63,-24,-102,-151,-156,-131
-117,-92,24,104,-70,-34,68,-19,-97,-141,-151,-131
-107,-92,14,100,-61,-39,68,-14,-87,-136,-151,-131
-107,-92,14,100,-61,-39,68,-9,-87,-136,-151,-131
-107,-87,19,97,-63,-34,68,4,-82,-131,-151,-131
-102,-87,14,95,-58,-36,68,9,-73,-126,-146,-126
-102,-82,19,92,-61,-31,68,14,-63,-122,-141,-126
-97,-82,14,90,-56,-34,68,24,-58,-117,-136,-122
-92,-78,14,85,-53,-31,68,29,-53,-112,-136,-122
-92,-78,14,85,-53,-31,68,29,-39,-102,-126,-112
-87,-73,14,80,-51,-29,68,43,-29,-97,-122,-102
-87,-73,14,80,-51,-29,68,48,-19,-92,-112,-102
-82,-68,14,75,-48,-26,68,58,-9,-82,-102,-97
-82,-63,19,73,-51,-21,73,68,4,-78,-97,-97
-78,-63,14,70,-46,-24,78,73,14,-68,-92,-102
-73,-58,14,65,-43,-21,78,82,19,-63,-87,-97
-68,-53,14,61,-41,-19,82,97,29,-53,-87,-92
-68,-48,19,58,-43,-14,82,112,39,-48,-78,-87
-63,-39,24,51,-43,-7,87,126,53,-39,-73,-82
-58,-29,29,43,-43,0,87,136,68,-29,-63,-78
-48,-29,19,39,-34,-4,92,156,78,-14,-53,-68
-43,-24,19,34,-31,-2,97,185,102,-4,-48,-58
-39,-24,14,31,-26,-4,102,204,126,9,-39,-58
-34,-19,14,26,-24,-2,102,224,141,29,-34,-53
-29,-19,9,24,-19,-4,107,244,161,39,-24,-48
-24,-14,9,19,-17,-2,112,263,180,53,-14,-39
-19,-4,14,12,-17,4,117,287,204,68,-4,-34
-9,0,9,4,-9,4,126,307,229,78,0,-34
-9,9,19,0,-14,14,131,326,253,92,14,-34
0,14,14,-7,-7,14,136,356,278,107,24,-24
4,19,14,-12,-4,17,141,380,297,117,34,-19
9,29,19,-19,-4,24,141,400,322,141,43,-4
14,39,24,-26,-4,31,146,419,346,156,53,0
19,48,29,-34,-4,39,151,444,366,170,63,4
29,53,24,-41,2,39,156,458,385,185,68,9
34,58,24,-46,4,41,161,468,409,195,78,19
43,63,19,-53,12,41,161,478,424,209,82,24
48,68,19,-58,14,43,161,488,434,224,92,34
48,73,24,-61,12,48,161,488,448,229,102,43
53,82,29,-68,12,56,156,483,453,234,112,48
58,92,34,-75,12,63,141,463,453,244,122,58
58,97,39,-78,9,68,131,439,453,253,126,68
58,102,43,-80,7,73,122,400,439,253,131,73
58,107,48,-82,4,78,107,366,424,253,131,82
53,107,53,-80,0,80,97,326,395,248,136,82
53,107,53,-80,0,80,82,287,356,234,136,82
43,102,58,-73,-7,80,68,239,322,214,126,82
39,82,43,-61,-2,63,53,200,283,185,107,73
29,63,34,-46,-2,48,43,156,229,161,92,63
19,58,39,-39,-9,48,34,117,190,136,73,53
9,43,34,-26,-12,39,24,78,146,107,58,39
4,39,34,-21,-14,36,14,43,112,73,34,24
-4,24,29,-9,-17,26,0,9,73,39,14,14
-19,14,34,2,-26,24,0,-14,34,14,4,-4
-34,0,34,17,-34,17,0,-34,0,-9,-14,-14
-39,-9,29,24,-34,9,-4,-53,-24,-29,-29,-24
-39,-19,19,29,-29,0,-4,-68,-43,-53,-48,-29
-43,-24,19,34,-31,-2,-9,-73,-68,-68,-58,-39
-53,-34,19,43,-36,-7,-14,-82,-78,-78,-68,-48
-53,-29,24,41,-39,-2,-14,-92,-87,-87,-78,-58
-58,-34,24,46,-41,-4,-14,-92,-97,-102,-87,-63
-58,-34,24,46,-41,-4,-14,-97,-107,-107,-92,-78
-58,-34,24,46,-41,-4,-9,-97,-107,-107,-92,-78
-58,-34,24,46,-41,-4,-9,-102,-112,-112,-97,-78
-58,-39,19,48,-39,-9,-9,-107,-112,-117,-102,-78
-63,-43,19,53,-41,-12,-9,-107,-112,-117,-102,-78
-63,-48,14,56,-39,-17,-9,-102,-112,-117,-107,-78
-58,-48,9,53,-34,-19,-9,-102,-112,-122,-107,-78
-53,-48,4,51,-29,-21,-9,-102,-117,-122,-107,-78
-53,-43,9,48,-31,-17,-9,-102,-117,-122,-107,-82
-53,-39,14,46,-34,-12,-9,-102,-117,-122,-107,-82
-53,-39,14,46,-34,-12,-9,-97,-117,-122,-107,-78
-53,-39,14,46,-34,-12,-9,-97,-117,-117,-107,-73
-53,-39,14,46,-34,-12,-9,-97,-117,-117,-107,-73
-53,-39,14,46,-34,-12,-4,-97,-117,-117,-107,-73
-53,-39,14,46,-34,-12,-4,-97,-122,-117,-102,-73
-53,-43,9,48,-31,-17,-4,-97,-122,-117,-102,-68
-53,-43,9,48,-31,-17,-4,-92,-117,-117,-102,-78
-53,-39,14,46,-34,-12,-9,-92,-107,-117,-107,-87
-53,-39,14,46,-34,-12,-9,-97,-107,-117,-112,-87
-53,-39,14,46,-34,-12,-4,-97,-107,-117,-112,-87
-53,-43,9,48,-31,-17,-4,-92,-112,-117,-112,-87
-53,-43,9,48,-31,-17,-4,-92,-117,-117,-112,-87
-58,-43,14,51,-36,-14,-4,-92,-117,-122,-112,-82
-63,-43,19,53,-41,-12,-4,-92,-117,-126,-112,-78
-63,-39,24,51,-43,-7,-4,-92,-117,-126,-117,-78
-63,-39,24,51,-43,-7,-4,-92,-117,-126,-117,-78
-63,-43,19,53,-41,-12,-4,-92,-117,-122,-117,-78
-63,-48,14,56,-39,-17,-4,-92,-122,-117,-112,-78
-63,-48,14,56,-39,-17,-4,-92,-122,-117,-112,-78
-63,-48,14,56,-39,-17,-4,-97,-122,-117,-112,-78
-63,-48,14,56,-39,-17,-4,-97,-122,-117,-117,-78
-68,-53,14,61,-41,-19,-4,-97,-122,-117,-117,-78
-68,-53,14,61,-41,-19,-4,-97,-122,-122,-117,-82
-68,-53,14,61,-41,-19,-4,-97,-126,-122,-117,-87
-68,-48,19,58,-43,-14,-4,-97,-126,-126,-122,-87
-68,-48,19,58,-43,-14,-4,-102,-131,-131,-122,-87
-68,-53,14,61,-41,-19,-4,-102,-126,-131,-126,-92
-68,-53,14,61,-41,-19,-4,-102,-126,-131,-126,-92
-68,-53,14,61,-41,-19,0,-102,-131,-131,-126,-92
-73,-58,14,65,-43,-21,0,-107,-131,-136,-131,-92
-73,-58,14,65,-43,-21,0,-107,-136,-141,-131,-97
-73,-58,14,65,-43,-21,-4,-107,-141,-141,-136,-97
-73,-63,9,68,-41,-26,-4,-107,-141,-146,-136,-102
-73,-63,9,68,-41,-26,-4,-112,-146,-146,-136,-102
-78,-63,14,70,-46,-24,-4,-112,-146,-146,-136,-102
-78,-63,14,70,-46,-24,-4,-112,-151,-146,-141,-102
-78,-63,14,70,-46,-24,-4,-112,-156,-151,-141,-102
-78,-63,14,70,-46,-24,-4,-112,-156,-151,-146,-102
-78,-63,14,70,-46,-24,-4,-112,-151,-151,-146,-107
-78,-63,14,70,-46,-24,-4,-112,-151,-151,-146,-107
-78,-63,14,70,-46,-24,-4,-117,-151,-156,-146,-107
-78,-63,14,70,-46,-24,-4,-117,-151,-156,-151,-107
-78,-63,14,70,-46,-24,0,-117,-151,-161,-151,-112
-78,-68,9,73,-43,-29,0,-117,-156,-165,-156,-117
-78,-68,9,73,-43,-29,0,-117,-156,-165,-156,-117
-78,-68,9,73,-43,-29,0,-117,-156,-165,-156,-117
-78,-73,4,75,-41,-34,0,-117,-156,-165,-156,-117
-78,-68,9,73,-43,-29,0,-117,-156,-165,-156,-117
-78,-63,14,70,-46,-24,-4,-117,-156,-165,-156,-117
-68,-48,19,58,-43,-14,-19,-112,-141,-156,-146,-107
-63,-19,43,41,-53,12,-19,-112,-131,-136,-131,-92
-53,-4,48,29,-51,21,-14,-107,-117,-126,-122,-82
-43,9,53,17,-48,31,-9,-102,-107,-117,-107,-73
-43,19,63,12,-53,41,-9,-92,-92,-107,-102,-68
-39,24,63,7,-51,43,-4,-97,-97,-102,-102,-63
-39,24,63,7,-51,43,-4,-102,-97,-97,-97,-63
-48,24,73,12,-61,48,-19,-107,-92,-97,-97,-63
-39,39,78,0,-58,58,-34,-107,-87,-87,-87,-53
-9,53,63,-21,-36,58,-58,-112,-78,-78,-73,-43
9,63,53,-36,-21,58,-73,-112,-73,-73,-68,-34
14,63,48,-39,-17,56,-82,-107,-73,-73,-68,-34
14,68,53,-41,-19,61,-92,-112,-73,-73,-68,-39
29,73,43,-51,-7,58,-92,-117,-82,-78,-63,-29
29,73,43,-51,-7,58,-92,-117,-92,-92,-63,-29
48,82,34,-65,7,58,-97,-117,-107,-92,-63,-19
53,87,34,-70,9,61,-97,-117,-117,-97,-68,-14
43,78,34,-61,4,56,-87,-122,-131,-112,-78,-14
19,68,48,-43,-14,58,-78,-126,-131,-112,-82,-14
-9,48,58,-19,-34,53,-63,-131,-136,-122,-92,-29
-39,24,63,7,-51,43,-39,-131,-141,-136,-107,-48
-58,-9,48,34,-53,19,-19,-126,-141,-146,-117,-68
-73,-19,53,46,-63,17,-9,-126,-151,-156,-136,-87
-78,-39,39,58,-58,0,-9,-126,-156,-161,-146,-97
-87,-53,34,70,-61,-9,-4,-131,-170,-170,-161,-117
-87,-78,9,82,-48,-34,-4,-141,-195,-204,-185,-136
-87,-82,4,85,-46,-39,-4,-141,-200,-214,-195,-141
-102,-82,19,92,-61,-31,-4,-136,-200,-209,-195,-146
-102,-82,19,92,-61,-31,0,-136,-204,-209,-195,-156
-107,-82,24,95,-65,-29,0,-141,-204,-214,-209,-156
-112,-87,24,100,-68,-31,0,-141,-204,-214,-214,-161
-117,-87,29,102,-73,-29,4,-141,-204,-214,-214,-161
-122,-97,24,109,-73,-36,9,-141,-204,-214,-214,-165
-122,-97,24,109,-73,-36,14,-136,-204,-214,-214,-165
-126,-97,29,112,-78,-34,19,-136,-204,-219,-219,-165
-117,-92,24,104,-70,-34,19,-136,-204,-219,-209,-165
-112,-92,19,102,-65,-36,19,-136,-204,-219,-200,-161
-112,-97,14,104,-63,-41,24,-131,-204,-224,-200,-156
-131,-102,29,117,-80,-36,43,-126,-190,-234,-214,-175
-195,-117,78,156,-136,-19,97,-117,-165,-244,-273,-239
-229,-117,112,173,-170,-2,131,-112,-141,-244,-287,-263
-263,-141,122,202,-192,-9,175,-87,-156,-273,-326,-297
-219,-156,63,187,-141,-46,200,24,-92,-209,-258,-248
-73,-165,-92,119,9,-129,195,204,48,-39,-87,-102
122,-53,-175,-34,148,-114,92,297,204,200,180,131
370,185,-185,-278,278,0,-146,287,351,497,556,483
653,458,-195,-556,424,131,-439,204,492,844,1000,902
912,790,-122,-851,517,334,-746,63,624,1224,1449,1322
1141,976,-165,-1058,653,405,-951,-43,751,1561,1825,1668
1322,1015,-307,-1168,814,353,-1024,-97,897,1927,2186,1942
1356,980,-375,-1168,866,302,-1024,-195,858,2010,2269,1986
1176,829,-346,-1002,761,241,-858,-268,707,1869,2127,1864
985,561,-424,-773,705,68,-639,-204,531,1546,1795,1576
688,239,-448,-463,568,-104,-400,-156,204,829,1049,956
375,-4,-380,-185,378,-192,-200,-141,-87,239,370,370
107,-82,-190,-12,148,-136,-34,-97,-107,58,112,117
-24,-122,-97,73,36,-109,39,-73,-117,-24,0,0
-29,-107,-78,68,24,-92,53,-39,-78,-24,-4,-4
-34,-68,-34,51,0,-51,43,-14,-63,-29,-14,-14
-29,-63,-34,46,2,-48,24,-14,-43,-24,-34,-24
-29,-78,-48,53,9,-63,4,-14,-43,-43,-58,-43
-63,-92,-29,78,-17,-61,34,-19,-78,-87,-97,-73
-92,-92,0,92,-46,-46,53,-24,-97,-131,-131,-102
-97,-97,0,97,-48,-48,53,-24,-97,-136,-136,-102
-102,-107,-4,104,-48,-56,53,-24,-97,-136,-141,-112
-107,-107,0,107,-53,-53,58,-24,-97,-146,-151,-126
-112,-107,4,109,-58,-51,63,-24,-97,-151,-156,-136
-112,-102,9,107,-61,-46,63,-24,-97,-151,-156,-136
-112,-102,9,107,-61,-46,63,-14,-92,-151,-156,-131
-112,-102,9,107,-61,-46,63,-9,-97,-146,-156,-136
-107,-102,4,104,-56,-48,58,-4,-97,-146,-161,-141
-107,-102,4,104,-56,-48,58,-4,-97,-146,-161,-141
-107,-97,9,102,-58,-43,58,4,-92,-141,-161,-141
-102,-97,4,100,-53,-46,58,9,-82,-136,-156,-136
-102,-92,9,97,-56,-41,58,14,-73,-131,-151,-136
-97,-92,4,95,-51,-43,58,24,-68,-131,-146,-131
-92,-87,4,90,-48,-41,58,29,-63,-131,-146,-131
-97,-87,9,92,-53,-39,63,24,-58,-122,-141,-126
-97,-82,14,90,-56,-34,68,34,-58,-117,-141,-122
-97,-82,14,90,-56,-34,68,39,-48,-112,-136,-122
-92,-78,14,85,-53,-31,68,48,-39,-102,-131,-117
-92,-73,19,82,-56,-26,68,58,-24,-97,-122,-107
-87,-73,14,80,-51,-29,68,63,-14,-87,-112,-102
-82,-68,14,75,-48,-26,68,73,-4,-78,-102,-97
-78,-63,14,70,-46,-24,73,87,9,-63,-97,-92
-78,-63,14,70,-46,-24,73,102,24,-58,-87,-87
-73,-58,14,65,-43,-21,78,117,43,-48,-82,-82
-63,-48,14,56,-39,-17,73,122,53,-39,-73,-82
-48,-48,0,48,-24,-24,73,136,58,-24,-63,-78
-43,-39,4,41,-24,-17,78,161,82,-14,-58,-68
-39,-34,4,36,-21,-14,82,175,107,0,-48,-68
-34,-29,4,31,-19,-12,82,195,122,19,-43,-63
-29,-29,0,29,-14,-14,87,214,141,29,-34,-58
-29,-34,-4,31,-12,-19,92,234,161,43,-24,-48
-29,-34,-4,31,-12,-19,97,258,185,58,-14,-43
-19,-29,-9,24,-4,-19,107,278,209,68,-14,-39
-19,-19,0,19,-9,-9,112,297,234,82,-4,-34
-9,-4,4,7,-7,0,117,322,258,97,4,-24
-4,9,14,-2,-9,12,122,341,278,107,14,-19
0,14,14,-7,-7,14,122,361,302,131,24,-9
4,19,14,-12,-4,17,126,380,326,146,34,-9
9,29,19,-19,-4,24,131,400,346,161,48,0
19,34,14,-26,2,24,136,409,366,175,58,9
24,34,9,-29,7,21,141,424,395,185,68,19
34,34,0,-34,17,17,141,439,414,200,73,24
39,39,0,-39,19,19,146,453,429,214,82,29
39,43,4,-41,17,24,151,458,448,219,92,34
48,53,4,-51,21,29,146,458,453,229,102,39
58,63,4,-61,26,34,131,444,453,244,112,48
58,73,14,-65,21,43,126,424,458,258,126,63
58,82,24,-70,17,53,122,390,448,263,141,73
58,87,29,-73,14,58,107,366,444,268,141,87
53,87,34,-70,9,61,97,336,424,268,146,92
53,92,39,-73,7,65,82,297,385,253,146,92
43,92,48,-68,-2,70,68,248,351,234,136,92
39,82,43,-61,-2,63,53,214,312,204,122,82
29,73,43,-51,-7,58,43,175,258,180,112,73
14,68,53,-41,-19,61,34,136,219,156,92,63
0,53,53,-26,-26,53,24,97,175,126,78,48
-4,48,53,-21,-29,51,19,68,141,92,53,34
-14,34,48,-9,-31,41,9,39,102,58,34,24
-24,24,48,0,-36,36,4,14,63,34,19,4
-34,9,43,12,-39,26,0,-4,29,9,-4,-4
-39,0,39,19,-39,19,-4,-24,4,-9,-19,-19
-39,-9,29,24,-34,9,-4,-39,-14,-34,-39,-29
-43,-14,29,29,-36,7,-4,-48,-39,-53,-48,-39
-53,-24,29,39,-41,2,-4,-63,-48,-68,-58,-48
-58,-29,29,43,-43,0,-4,-73,-63,-78,-73,-58
-68,-43,24,56,-46,-9,-4,-73,-78,-92,-87,-63
-68,-43,24,56,-46,-9,-4,-78,-87,-97,-92,-78
-68,-43,24,56,-46,-9,0,-78,-87,-97,-92,-78
-68,-43,24,56,-46,-9,0,-82,-97,-107,-97,-78
-68,-48,19,58,-43,-14,0,-87,-102,-117,-102,-78
-73,-48,24,61,-48,-12,0,-92,-107,-122,-102,-78
-73,-48,24,61,-48,-12,0,-92,-112,-126,-107,-78
-73,-43,29,58,-51,-7,-4,-92,-112,-131,-107,-78
-73,-39,34,56,-53,-2,-9,-92,-117,-131,-107,-78
-73,-39,34,56,-53,-2,-9,-92,-117,-131,-107,-82
-73,-39,34,56,-53,-2,-9,-92,-117,-131,-107,-82
-73,-39,34,56,-53,-2,-9,-92,-117,-131,-112,-82
-73,-39,34,56,-53,-2,-9,-97,-117,-126,-117,-82
-73,-39,34,56,-53,-2,-9,-97,-117,-126,-117,-87
-73,-39,34,56,-53,-2,-4,-97,-117,-126,-117,-92
-73,-39,34,56,-53,-2,-4,-92,-117,-122,-112,-92
-73,-43,29,58,-51,-7,-4,-87,-112,-117,-112,-87
-73,-43,29,58,-51,-7,0,-82,-112,-117,-107,-87
-73,-39,34,56,-53,-2,0,-82,-107,-117,-107,-87
-73,-43,29,58,-51,-7,0,-87,-107,-117,-112,-87
-73,-48,24,61,-48,-12,4,-87,-107,-117,-112,-87
-73,-53,19,63,-46,-17,0,-82,-107,-122,-112,-87
-73,-53,19,63,-46,-17,-4,-82,-107,-126,-112,-87
-73,-48,24,61,-48,-12,-4,-82,-112,-126,-112,-87
-73,-43,29,58,-51,-7,-4,-82,-117,-126,-112,-87
-73,-39,34,56,-53,-2,-4,-82,-117,-126,-117,-87
-73,-39,34,56,-53,-2,-4,-82,-117,-126,-117,-87
-73,-39,34,56,-53,-2,-4,-82,-117,-126,-117,-87
-73,-39,34,56,-53,-2,-4,-82,-122,-126,-112,-87
-73,-39,34,56,-53,-2,-4,-82,-122,-126,-112,-87
-73,-39,34,56,-53,-2,-4,-87,-122,-126,-112,-87
-68,-43,24,56,-46,-9,-4,-92,-122,-126,-117,-87
-68,-53,14,61,-41,-19,-4,-97,-122,-126,-117,-87
-68,-53,14,61,-41,-19,-4,-97,-122,-131,-117,-92
-68,-53,14,61,-41,-19,-4,-97,-126,-131,-117,-97
-73,-53,19,63,-46,-17,0,-92,-126,-136,-126,-97
-78,-58,19,68,-48,-19,4,-92,-131,-141,-131,-97
-78,-63,14,70,-46,-24,4,-92,-131,-141,-136,-102
-78,-63,14,70,-46,-24,4,-92,-136,-141,-136,-102
-73,-58,14,65,-43,-21,4,-92,-141,-141,-131,-102
-73,-58,14,65,-43,-21,0,-97,-141,-146,-131,-102
-73,-58,14,65,-43,-21,0,-97,-141,-151,-131,-107
-73,-58,14,65,-43,-21,-4,-97,-141,-151,-136,-107
-73,-63,9,68,-41,-26,-4,-97,-141,-156,-136,-112
-73,-63,9,68,-41,-26,-4,-102,-146,-156,-136,-112
-78,-63,14,70,-46,-24,-4,-102,-146,-156,-131,-112
-78,-63,14,70,-46,-24,-4,-102,-151,-156,-131,-112
-78,-63,14,70,-46,-24,-4,-102,-156,-161,-131,-112
-78,-63,14,70,-46,-24,-4,-102,-156,-161,-136,-112
-82,-58,24,70,-53,-17,-4,-102,-156,-161,-146,-117
-87,-53,34,70,-61,-9,-4,-102,-161,-161,-156,-117
-87,-53,34,70,-61,-9,-4,-107,-161,-165,-156,-117
-87,-53,34,70,-61,-9,-4,-107,-161,-165,-161,-117
-87,-58,29,73,-58,-14,0,-107,-161,-170,-161,-122
-87,-68,19,78,-53,-24,0,-107,-165,-175,-165,-126
-87,-68,19,78,-53,-24,0,-107,-165,-175,-165,-126
-87,-68,19,78,-53,-24,0,-107,-165,-175,-165,-126
-87,-68,19,78,-53,-24,0,-107,-165,-175,-165,-126
-87,-63,24,75,-56,-19,0,-107,-165,-175,-165,-126
-92,-58,34,75,-63,-12,-4,-112,-170,-175,-165,-131
-87,-48,39,68,-63,-4,-19,-112,-161,-165,-156,-126
-82,-29,53,56,-68,12,-19,-112,-151,-146,-141,-112
-73,-24,48,48,-61,12,-14,-107,-136,-136,-131,-102
-58,4,63,26,-61,34,-9,-102,-122,-126,-117,-87
-53,29,82,12,-68,56,-9,-92,-102,-117,-112,-78
-48,34,82,7,-65,58,-4,-92,-102,-112,-112,-73
-48,34,82,7,-65,58,-4,-92,-97,-107,-107,-73
-48,24,73,12,-61,48,-19,-97,-92,-107,-107,-73
-29,29,58,0,-43,43,-34,-97,-87,-97,-97,-63
-9,48,58,-19,-34,53,-53,-102,-82,-87,-82,-53
0,63,63,-31,-31,63,-63,-102,-82,-82,-78,-43
4,68,63,-36,-29,65,-73,-102,-82,-78,-73,-39
4,78,73,-41,-34,75,-82,-112,-82,-73,-68,-39
19,82,63,-51,-21,73,-82,-117,-92,-73,-63,-29
19,82,63,-51,-21,73,-82,-117,-102,-82,-63,-29
39,82,43,-61,-2,63,-87,-117,-112,-82,-58,-19
43,78,34,-61,4,56,-87,-117,-117,-87,-58,-14
34,68,34,-51,0,51,-78,-122,-131,-102,-68,-24
9,58,48,-34,-19,53,-68,-126,-131,-102,-73,-34
-19,39,58,-9,-39,48,-53,-131,-136,-117,-87,-48
-48,14,63,17,-56,39,-29,-131,-141,-136,-107,-68
-63,-19,43,41,-53,12,-14,-126,-146,-146,-117,-82
-73,-29,43,51,-58,7,-9,-126,-161,-156,-136,-97
-78,-48,29,63,-53,-9,-4,-126,-165,-170,-146,-107
-87,-63,24,75,-56,-19,4,-131,-180,-190,-161,-126
-97,-82,14,90,-56,-34,4,-141,-200,-219,-185,-151
-107,-82,24,95,-65,-29,4,-141,-200,-224,-195,-161
-122,-82,39,102,-80,-21,4,-136,-200,-219,-195,-161
-122,-82,39,102,-80,-21,9,-136,-204,-219,-195,-165
-122,-82,39,102,-80,-21,9,-141,-209,-224,-204,-165
-122,-87,34,104,-78,-26,9,-141,-214,-224,-204,-170
-126,-87,39,107,-82,-24,14,-141,-214,-224,-204,-165
-131,-97,34,114,-82,-31,19,-141,-214,-224,-204,-165
-126,-97,29,112,-78,-34,19,-136,-214,-219,-200,-165
-126,-97,29,112,-78,-34,19,-136,-214,-219,-200,-165
-122,-97,24,109,-73,-36,19,-136,-214,-219,-200,-170
-122,-102,19,112,-70,-41,19,-136,-214,-219,-200,-170
-117,-102,14,109,-65,-43,24,-131,-214,-229,-204,-170
-131,-102,29,117,-80,-36,43,-126,-200,-244,-224,-195
-195,-117,78,156,-136,-19,97,-112,-175,-263,-287,-263
-229,-117,112,173,-170,-2,131,-102,-151,-273,-307,-292
-258,-141,117,200,-187,-12,175,-82,-161,-297,-346,-322
-209,-156,53,183,-131,-51,200,24,-92,-229,-278,-268
-82,-170,-87,126,2,-129,204,190,48,-53,-102,-112
92,-63,-156,-14,124,-109,112,268,204,190,170,131
326,180,-146,-253,236,17,-126,263,351,492,556,483
595,458,-136,-527,366,161,-419,185,492,844,1010,902
844,785,-58,-814,451,363,-712,58,619,1249,1478,1327
1063,966,-97,-1015,580,434,-902,-34,741,1610,1873,1678
1244,1015,-229,-1129,736,392,-976,-82,917,2015,2264,1976
1278,990,-287,-1134,783,351,-976,-175,907,2137,2376,2044
1107,834,-273,-971,690,280,-810,-229,771,2010,2239,1917
927,561,-366,-744,646,97,-590,-146,610,1703,1912,1625
644,234,-409,-439,527,-87,-366,-112,273,946,1141,990
346,-14,-361,-165,353,-187,-180,-112,-29,317,439,390
97,-82,-180,-7,139,-131,-19,-78,-82,102,156,131
-14,-112,-97,63,41,-104,48,-63,-126,-14,19,9
-29,-97,-68,63,19,-82,63,-34,-78,-14,14,4
-43,-58,-14,51,-14,-36,53,-14,-53,-19,4,-4
-34,-53,-19,43,-7,-36,39,-14,-34,-14,-14,-24
-29,-68,-39,48,4,-53,24,-14,-34,-34,-39,-53
-53,-82,-29,68,-12,-56,43,-19,-73,-82,-87,-82
-73,-82,-9,78,-31,-46,53,-24,-97,-131,-131,-112
-82,-87,-4,85,-39,-46,53,-24,-97,-136,-136,-112
-92,-97,-4,95,-43,-51,53,-24,-97,-136,-141,-122
-97,-102,-4,100,-46,-53,58,-24,-102,-146,-156,-141
-102,-107,-4,104,-48,-56,63,-24,-107,-151,-165,-156
-107,-102,4,104,-56,-48,63,-24,-112,-156,-165,-156
-112,-102,9,107,-61,-46,63,-14,-112,-161,-165,-151
-112,-102,9,107,-61,-46,68,-9,-112,-156,-161,-151
-107,-102,4,104,-56,-48,68,-4,-107,-156,-161,-151
-107,-102,4,104,-56,-48,68,-4,-107,-156,-161,-151
-107,-97,9,102,-58,-43,68,4,-102,-151,-161,-151
-102,-97,4,100,-53,-46,68,9,-92,-146,-156,-141
-102,-92,9,97,-56,-41,68,14,-82,-141,-151,-136
-97,-92,4,95,-51,-43,68,24,-73,-136,-146,-131
-92,-87,4,90,-48,-41,68,29,-63,-131,-146,-131
-92,-87,4,90,-48,-41,68,29,-53,-122,-136,-131
-87,-82,4,85,-46,-39,68,43,-48,-117,-131,-131
-82,-82,0,82,-41,-41,68,48,-39,-112,-126,-131
-73,-78,-4,75,-34,-41,68,58,-29,-102,-122,-126
-73,-73,0,73,-36,-36,68,68,-14,-97,-117,-122
-68,-73,-4,70,-31,-39,68,73,-4,-87,-112,-122
-63,-68,-4,65,-29,-36,68,78,0,-78,-107,-117
-58,-63,-4,61,-26,-34,73,87,9,-63,-107,-112
-63,-63,0,63,-31,-31,73,102,24,-58,-97,-107
-63,-58,4,61,-34,-26,78,117,43,-48,-92,-102
-58,-48,9,53,-34,-19,78,122,58,-39,-78,-97
-48,-48,0,48,-24,-24,82,136,68,-24,-63,-87
-43,-39,4,41,-24,-17,82,161,82,-14,-58,-78
-39,-34,4,36,-21,-14,82,175,97,0,-48,-78
-34,-29,4,31,-19,-12,82,195,122,19,-43,-73
-29,-29,0,29,-14,-14,87,214,151,29,-34,-68
-24,-24,0,24,-12,-12,92,229,170,43,-24,-58
-19,-14,4,17,-12,-4,97,248,195,58,-14,-53
-9,-14,-4,12,-2,-9,112,268,219,73,-9,-48
-9,-9,0,9,-4,-4,122,287,244,92,4,-43
0,-4,-4,2,2,-4,126,312,268,107,14,-34
4,0,-4,-2,4,-2,131,331,287,117,24,-29
9,4,-4,-7,7,0,131,351,312,136,34,-19
14,9,-4,-12,9,2,136,370,336,146,43,-19
19,19,0,-19,9,9,141,390,356,161,53,-14
29,24,-4,-26,17,9,146,400,375,175,58,-9
29,34,4,-31,12,19,151,414,400,185,68,0
34,43,9,-39,12,26,151,429,414,200,73,4
39,48,9,-43,14,29,151,439,429,214,82,14
39,53,14,-46,12,34,151,439,448,219,92,24
48,63,14,-56,17,39,146,439,453,229,102,29
58,73,14,-65,21,43,131,424,453,244,112,39
58,78,19,-68,19,48,122,409,463,253,122,48
58,82,24,-70,17,53,112,380,458,253,131,53
58,87,29,-73,14,58,102,356,448,258,131,63
53,87,34,-70,9,61,97,326,424,258,136,63
53,87,34,-70,9,61,82,287,385,244,146,68
43,82,39,-63,2,61,68,239,351,224,146,73
39,73,34,-56,2,53,53,204,312,200,126,68
29,63,34,-46,-2,48,43,165,258,180,112,63
19,58,39,-39,-9,48,34,131,219,156,92,53
9,43,34,-26,-12,39,24,97,175,126,78,39
0,43,43,-21,-21,43,19,68,141,87,48,24
-14,34,48,-9,-31,41,9,39,102,48,24,14
-24,24,48,0,-36,36,4,9,58,24,9,-9
-34,9,43,12,-39,26,0,-14,19,0,-14,-24
-39,0,39,19,-39,19,-4,-34,-4,-19,-29,-39
-39,-9,29,24,-34,9,-4,-48,-24,-43,-48,-48
-34,-14,19,24,-26,2,-4,-58,-53,-63,-58,-58
-34,-24,9,29,-21,-7,-4,-73,-68,-78,-68,-68
-43,-24,19,34,-31,-2,-4,-82,-78,-87,-78,-73
-58,-34,24,46,-41,-4,-4,-82,-87,-102,-87,-73
-58,-39,19,48,-39,-9,-4,-87,-97,-107,-97,-87
-58,-43,14,51,-36,-14,0,-87,-97,-107,-102,-87
-63,-43,19,53,-41,-12,0,-92,-112,-117,-107,-87
-68,-48,19,58,-43,-14,0,-97,-122,-126,-112,-87
-73,-48,24,61,-48,-12,0,-102,-122,-126,-112,-87
-73,-48,24,61,-48,-12,0,-102,-122,-126,-117,-87
-68,-48,19,58,-43,-14,0,-102,-122,-131,-117,-92
-63,-48,14,56,-39,-17,0,-102,-126,-131,-117,-97
-63,-48,14,56,-39,-17,-4,-102,-131,-131,-117,-102
-63,-48,14,56,-39,-17,-9,-102,-136,-131,-117,-102
-63,-48,14,56,-39,-17,-9,-92,-131,-131,-117,-102
-63,-48,14,56,-39,-17,-9,-87,-126,-126,-117,-102
-63,-48,14,56,-39,-17,-9,-87,-122,-122,-117,-102
-63,-48,14,56,-39,-17,-4,-87,-117,-117,-117,-102
-63,-48,14,56,-39,-17,-4,-87,-122,-117,-112,-102
-63,-53,9,58,-36,-21,-4,-87,-122,-117,-112,-97
-63,-53,9,58,-36,-21,-4,-82,-122,-122,-107,-97
-63,-48,14,56,-39,-17,-9,-82,-117,-126,-107,-97
-63,-48,14,56,-39,-17,-9,-87,-117,-126,-112,-97
-63,-48,14,56,-39,-17,-4,-87,-117,-126,-112,-97
-58,-53,4,56,-31,-24,-4,-87,-117,-126,-112,-97
-53,-53,0,53,-26,-26,-4,-92,-117,-126,-112,-97
-53,-53,0,53,-26,-26,-4,-92,-117,-126,-112,-97
-53,-53,0,53,-26,-26,-4,-92,-117,-126,-112,-97
-58,-53,4,56,-31,-24,-4,-92,-117,-126,-117,-97
-63,-58,4,61,-34,-26,-4,-92,-117,-126,-117,-97
-63,-58,4,61,-34,-26,-4,-92,-117,-126,-117,-97
-63,-58,4,61,-34,-26,-4,-92,-122,-126,-112,-97
-63,-58,4,61,-34,-26,-4,-92,-122,-126,-112,-97
-63,-58,4,61,-34,-26,-4,-97,-122,-126,-112,-97
-63,-53,9,58,-36,-21,0,-97,-122,-126,-117,-97
-68,-53,14,61,-41,-19,4,-97,-122,-126,-117,-97
-68,-53,14,61,-41,-19,4,-92,-122,-131,-112,-97
-68,-53,14,61,-41,-19,4,-87,-126,-131,-107,-97
-73,-53,19,63,-46,-17,4,-87,-126,-136,-112,-97
-78,-58,19,68,-48,-19,4,-92,-131,-141,-112,-97
-78,-63,14,70,-46,-24,4,-92,-131,-141,-117,-102
-78,-63,14,70,-46,-24,4,-92,-136,-141,-117,-102
-78,-58,19,68,-48,-19,4,-92,-141,-141,-117,-102
-82,-58,24,70,-53,-17,0,-97,-141,-146,-122,-102
-82,-58,24,70,-53,-17,0,-97,-146,-151,-122,-112
-82,-58,24,70,-53,-17,-4,-97,-151,-151,-126,-117
-82,-63,19,73,-51,-21,-4,-102,-151,-156,-131,-122
-82,-63,19,73,-51,-21,-4,-112,-156,-156,-136,-122
-87,-63,24,75,-56,-19,-4,-112,-156,-156,-136,-122
-87,-63,24,75,-56,-19,-4,-112,-161,-156,-141,-122
-87,-63,24,75,-56,-19,-4,-112,-161,-161,-141,-122
-87,-63,24,75,-56,-19,-4,-112,-156,-161,-146,-122
-87,-68,19,78,-53,-24,0,-112,-156,-161,-141,-122
-87,-73,14,80,-51,-29,4,-112,-161,-161,-136,-117
-87,-73,14,80,-51,-29,4,-112,-161,-165,-136,-117
-87,-73,14,80,-51,-29,4,-107,-161,-165,-141,-117
-87,-73,14,80,-51,-29,4,-107,-161,-165,-141,-117
-87,-78,9,82,-48,-34,9,-107,-165,-165,-146,-117
-87,-78,9,82,-48,-34,9,-107,-165,-165,-146,-117
-87,-78,9,82,-48,-34,9,-107,-165,-165,-146,-117
-87,-78,9,82,-48,-34,9,-107,-165,-165,-146,-122
-87,-68,19,78,-53,-24,4,-107,-165,-165,-146,-122
-87,-63,24,75,-56,-19,4,-112,-165,-165,-151,-126
-78,-48,29,63,-53,-9,-9,-112,-151,-156,-146,-117
-73,-19,53,46,-63,17,-19,-112,-141,-136,-131,-102
-63,-4,58,34,-61,26,-24,-107,-126,-126,-122,-92
-53,9,63,21,-58,36,-9,-102,-117,-117,-102,-82
-53,19,73,17,-63,46,0,-92,-102,-107,-92,-78
-48,24,73,12,-61,48,0,-92,-102,-102,-92,-73
-48,24,73,12,-61,48,-4,-92,-97,-97,-87,-73
-48,29,78,9,-63,53,-19,-97,-92,-97,-87,-73
-29,48,78,-9,-53,63,-34,-97,-87,-87,-78,-63
-9,58,68,-24,-39,63,-53,-102,-82,-78,-63,-53
0,63,63,-31,-31,63,-63,-102,-82,-73,-58,-43
4,58,53,-31,-24,56,-73,-102,-82,-73,-58,-34
4,58,53,-31,-24,56,-82,-112,-82,-73,-58,-29
19,63,43,-41,-12,53,-82,-117,-92,-78,-53,-19
19,63,43,-41,-12,53,-82,-117,-102,-92,-53,-19
39,68,29,-53,4,48,-87,-117,-112,-92,-53,-14
43,68,24,-56,9,46,-87,-117,-117,-97,-58,-14
34,58,24,-46,4,41,-78,-122,-131,-112,-68,-24
9,48,39,-29,-14,43,-68,-126,-131,-112,-73,-34
-19,29,48,-4,-34,39,-53,-131,-136,-122,-82,-48
-48,4,53,21,-51,29,-29,-131,-141,-136,-97,-68
-68,-29,39,48,-53,4,-14,-126,-146,-141,-107,-82
-82,-39,43,61,-63,2,-9,-126,-161,-146,-126,-97
-87,-58,29,73,-58,-14,-9,-126,-170,-161,-136,-107
-97,-73,24,85,-61,-24,-4,-131,-190,-180,-151,-126
-102,-92,9,97,-56,-41,-4,-141,-209,-209,-170,-146
-107,-92,14,100,-61,-39,-4,-141,-209,-214,-175,-151
-122,-97,24,109,-73,-36,-4,-141,-209,-209,-175,-151
-122,-102,19,112,-70,-41,0,-146,-214,-209,-175,-156
-122,-102,19,112,-70,-41,0,-151,-214,-219,-190,-156
-122,-107,14,114,-68,-46,0,-151,-214,-224,-195,-161
-126,-107,19,117,-73,-43,4,-151,-214,-224,-195,-161
-131,-117,14,124,-73,-51,9,-151,-214,-224,-195,-165
-131,-112,19,122,-75,-46,14,-141,-214,-224,-195,-165
-136,-107,29,122,-82,-39,19,-136,-214,-229,-200,-165
-131,-107,24,119,-78,-41,19,-136,-214,-229,-200,-165
-131,-112,19,122,-75,-46,19,-136,-214,-229,-200,-161
-131,-117,14,124,-73,-51,29,-136,-219,-239,-204,-170
-151,-122,29,136,-90,-46,53,-136,-209,-253,-224,-204
-214,-141,73,178,-143,-34,107,-131,-195,-268,-287,-263
-248,-146,102,197,-175,-21,141,-131,-180,-273,-307,-283
-268,-170,97,219,-183,-36,180,-97,-185,-302,-346,-312
-209,-185,24,197,-117,-80,200,24,-112,-239,-278,-258
-43,-175,-131,109,43,-153,170,200,34,-58,-92,-97
170,-43,-214,-63,192,-129,43,287,195,190,190,151
419,209,-209,-314,314,0,-209,273,341,507,566,488
702,497,-204,-600,453,146,-517,185,483,873,1010,893
951,805,-146,-878,549,329,-785,82,629,1244,1449,1288
1171,966,-204,-1068,688,380,-951,14,771,1571,1815,1610
1332,961,-370,-1146,851,295,-1000,-34,897,1908,2132,1864
1346,883,-463,-1115,905,209,-976,-126,839,1961,2171,1888
1161,732,-429,-946,795,151,-829,-214,697,1810,2025,1756
966,463,-502,-714,734,-19,-629,-165,531,1478,1688,1459
673,175,-497,-424,585,-161,-400,-117,229,790,980,878
366,-34,-400,-165,383,-217,-209,-102,-39,229,341,331
107,-87,-195,-9,151,-141,-34,-68,-58,68,107,107
-14,-102,-87,58,36,-95,48,-53,-68,4,19,19
-19,-87,-68,53,24,-78,53,-29,-29,0,14,9
-24,-48,-24,36,0,-36,34,-14,-14,-9,4,-4
-29,-53,-24,41,-2,-39,34,-14,-14,-14,-14,-19
-39,-78,-39,58,0,-58,34,-14,-34,-43,-39,-43
-68,-92,-24,80,-21,-58,53,-19,-68,-82,-82,-73
-92,-92,0,92,-46,-46,63,-24,-87,-122,-122,-102
-97,-97,0,97,-48,-48,63,-24,-87,-126,-126,-102
-102,-107,-4,104,-48,-56,63,-24,-87,-126,-131,-112
-112,-107,4,109,-58,-51,68,-24,-92,-141,-146,-126
-122,-107,14,114,-68,-46,73,-24,-97,-151,-156,-136
-122,-102,19,112,-70,-41,73,-24,-97,-151,-156,-136
-122,-102,19,112,-70,-41,73,-14,-92,-151,-156,-131
-122,-102,19,112,-70,-41,78,-9,-92,-146,-151,-131
-117,-102,14,109,-65,-43,78,-4,-87,-146,-151,-131
-117,-107,9,112,-63,-48,78,-4,-87,-146,-151,-131
-117,-107,9,112,-63,-48,78,4,-82,-141,-151,-131
-112,-107,4,109,-58,-51,82,9,-73,-136,-146,-126
-112,-102,9,107,-61,-46,87,14,-63,-131,-141,-126
-107,-102,4,104,-56,-48,87,24,-58,-126,-136,-122
-102,-97,4,100,-53,-46,87,29,-53,-122,-136,-122
-102,-97,4,100,-53,-46,87,29,-43,-112,-126,-117
-97,-92,4,95,-51,-43,87,43,-39,-107,-122,-112
-97,-92,4,95,-51,-43,87,48,-29,-102,-117,-112
-92,-87,4,90,-48,-41,87,58,-19,-92,-112,-107
-92,-82,9,87,-51,-36,87,68,-4,-87,-107,-102
-87,-82,4,85,-46,-39,87,73,4,-78,-102,-102
-82,-73,9,78,-46,-31,82,82,14,-68,-92,-97
-78,-63,14,70,-46,-24,82,97,29,-53,-87,-92
-78,-63,14,70,-46,-24,82,112,43,-48,-78,-87
-73,-58,14,65,-43,-21,87,126,63,-39,-73,-82
-73,-53,19,63,-46,-17,92,136,78,-29,-63,-78
-68,-58,9,63,-39,-24,102,156,87,-14,-53,-68
-63,-48,14,56,-39,-17,107,180,112,-4,-48,-58
-58,-43,14,51,-36,-14,112,195,136,9,-39,-58
-53,-34,19,43,-36,-7,112,214,151,29,-34,-53
-48,-29,19,39,-34,-4,117,234,170,39,-24,-48
-43,-24,19,34,-31,-2,122,253,190,53,-14,-39
-39,-14,24,26,-31,4,126,278,214,68,-4,-34
-29,-9,19,19,-24,4,136,297,239,82,0,-34
-29,0,29,14,-29,14,141,317,263,102,14,-34
-19,4,24,7,-21,14,146,341,287,117,24,-24
-14,9,24,2,-19,17,151,361,307,126,34,-19
-9,14,24,-2,-17,19,151,385,331,151,43,-9
-4,19,24,-7,-14,21,156,409,356,165,53,-9
0,29,29,-14,-14,29,161,434,375,180,63,-4
9,34,24,-21,-7,29,165,448,395,195,68,0
9,39,29,-24,-9,34,170,458,419,200,78,9
14,43,29,-29,-7,36,170,468,434,209,82,14
19,48,29,-34,-4,39,170,478,444,224,92,24
19,53,34,-36,-7,43,170,478,458,229,102,34
24,58,34,-41,-4,46,175,478,468,239,112,43
29,63,34,-46,-2,48,170,463,473,253,122,58
34,68,34,-51,0,51,161,444,483,263,131,68
39,73,34,-56,2,53,151,409,478,263,141,73
39,78,39,-58,0,58,131,380,463,268,141,82
34,78,43,-56,-4,61,117,346,434,268,146,82
34,82,48,-58,-7,65,102,307,390,248,146,82
24,82,58,-53,-17,70,87,258,351,224,136,82
19,73,53,-46,-17,63,73,224,312,195,117,73
9,63,53,-36,-21,58,63,185,258,170,102,63
0,58,58,-29,-29,58,48,141,219,146,82,53
-9,43,53,-17,-31,48,34,97,175,117,68,39
-9,39,48,-14,-29,43,24,68,141,82,43,24
-14,24,39,-4,-26,31,9,39,102,48,24,14
-24,14,39,4,-31,26,9,14,63,24,14,-4
-34,0,34,17,-34,17,9,-4,29,0,-4,-14
-39,-9,29,24,-34,9,4,-29,4,-19,-19,-29
-39,-19,19,29,-29,0,4,-48,-14,-43,-39,-39
-43,-29,14,36,-29,-7,4,-53,-48,-58,-48,-48
-53,-43,9,48,-31,-17,4,-63,-68,-68,-58,-58
-53,-43,9,48,-31,-17,4,-78,-78,-78,-68,-63
-58,-53,4,56,-31,-24,4,-82,-87,-92,-78,-63
-58,-53,4,56,-31,-24,0,-87,-97,-97,-82,-78
-58,-53,4,56,-31,-24,0,-87,-97,-97,-82,-78
-63,-53,9,58,-36,-21,0,-92,-107,-107,-87,-78
-68,-58,9,63,-39,-24,0,-97,-112,-117,-92,-78
-73,-58,14,65,-43,-21,0,-97,-112,-117,-97,-78
-73,-58,14,65,-43,-21,0,-92,-112,-117,-107,-78
-68,-63,4,65,-36,-29,0,-92,-112,-122,-107,-78
-63,-68,-4,65,-29,-36,0,-92,-117,-122,-107,-78
-63,-68,-4,65,-29,-36,0,-92,-117,-122,-107,-82
-63,-68,-4,65,-29,-36,0,-92,-117,-122,-107,-82
-63,-63,0,63,-31,-31,0,-87,-112,-122,-107,-82
-63,-58,4,61,-34,-26,0,-87,-107,-117,-107,-82
-63,-58,4,61,-34,-26,0,-87,-107,-117,-107,-82
-63,-58,4,61,-34,-26,4,-87,-107,-117,-107,-82
-63,-58,4,61,-34,-26,4,-87,-112,-117,-102,-87
-63,-63,0,63,-31,-31,4,-87,-112,-117,-102,-87
-63,-63,0,63,-31,-31,4,-82,-112,-117,-97,-87
-63,-58,4,61,-34,-26,0,-82,-107,-117,-97,-87
-63,-58,4,61,-34,-26,0,-87,-107,-117,-102,-87
-63,-58,4,61,-34,-26,4,-87,-107,-117,-102,-87
-63,-63,0,63,-31,-31,4,-82,-107,-112,-97,-82
-63,-63,0,63,-31,-31,4,-82,-107,-107,-92,-78
-63,-63,0,63,-31,-31,4,-82,-107,-107,-92,-78
-63,-63,0,63,-31,-31,4,-82,-107,-107,-92,-78
-68,-63,4,65,-36,-29,4,-82,-107,-112,-97,-78
-73,-68,4,70,-39,-31,4,-82,-107,-117,-97,-78
-73,-68,4,70,-39,-31,0,-82,-107,-122,-102,-78
-73,-68,4,70,-39,-31,-4,-82,-112,-126,-102,-78
-73,-68,4,70,-39,-31,-4,-82,-112,-126,-102,-78
-73,-68,4,70,-39,-31,-4,-87,-112,-126,-102,-78
-68,-68,0,68,-34,-34,-4,-92,-117,-126,-107,-78
-68,-73,-4,70,-31,-39,-4,-97,-122,-126,-107,-78
-68,-73,-4,70,-31,-39,0,-97,-122,-131,-107,-82
-68,-73,-4,70,-31,-39,4,-97,-126,-131,-107,-87
-73,-68,4,70,-39,-31,4,-92,-122,-131,-112,-87
-78,-68,9,73,-43,-29,4,-92,-122,-131,-112,-87
-78,-73,4,75,-41,-34,4,-92,-122,-131,-117,-92
-78,-73,4,75,-41,-34,4,-92,-126,-131,-117,-92
-73,-68,4,70,-39,-31,9,-97,-131,-131,-117,-92
-73,-68,4,70,-39,-31,9,-107,-131,-136,-122,-92
-73,-68,4,70,-39,-31,9,-107,-131,-141,-117,-97
-73,-68,4,70,-39,-31,4,-107,-131,-141,-117,-97
-73,-78,-4,75,-34,-41,4,-107,-131,-146,-117,-102
-73,-82,-9,78,-31,-46,4,-112,-136,-146,-117,-102
-78,-82,-4,80,-36,-43,4,-112,-136,-146,-117,-102
-78,-82,-4,80,-36,-43,4,-112,-141,-146,-122,-102
-78,-78,0,78,-39,-39,4,-112,-146,-151,-126,-102
-78,-73,4,75,-41,-34,4,-112,-146,-151,-136,-102
-78,-73,4,75,-41,-34,4,-112,-146,-151,-136,-107
-78,-73,4,75,-41,-34,4,-112,-151,-151,-136,-107
-78,-73,4,75,-41,-34,4,-117,-151,-156,-136,-107
-78,-73,4,75,-41,-34,4,-117,-151,-156,-141,-107
-78,-78,0,78,-39,-39,0,-117,-151,-161,-141,-107
-78,-87,-9,82,-34,-48,0,-117,-156,-165,-146,-112
-78,-87,-9,82,-34,-48,0,-117,-156,-165,-146,-107
-78,-87,-9,82,-34,-48,0,-117,-156,-165,-146,-107
-78,-82,-4,80,-36,-43,0,-117,-156,-165,-146,-107
-78,-78,0,78,-39,-39,0,-117,-156,-165,-146,-107
-78,-68,9,73,-43,-29,0,-112,-151,-161,-141,-107
-73,-53,19,63,-46,-17,-9,-112,-141,-151,-131,-102
-68,-39,29,53,-48,-4,-19,-112,-131,-146,-126,-97
-63,-9,53,36,-58,21,-19,-112,-122,-126,-112,-82
-53,4,58,24,-56,31,-14,-107,-107,-117,-102,-73
-43,19,63,12,-53,41,-9,-102,-97,-107,-87,-63
-43,29,73,7,-58,51,-9,-92,-82,-97,-82,-58
-39,34,73,2,-56,53,-9,-92,-82,-92,-82,-53
-29,34,63,-2,-46,48,-14,-92,-82,-87,-78,-53
-19,34,53,-7,-36,43,-29,-97,-82,-87,-78,-53
0,43,43,-21,-21,43,-43,-97,-78,-82,-68,-43
19,48,29,-34,-4,39,-63,-102,-73,-78,-53,-34
24,53,29,-39,-2,41,-73,-102,-73,-73,-48,-29
24,53,29,-39,-2,41,-82,-102,-78,-73,-48,-29
24,58,34,-41,-4,46,-92,-112,-87,-73,-48,-29
39,63,24,-51,7,43,-92,-117,-102,-78,-43,-19
39,63,24,-51,7,43,-92,-117,-112,-92,-43,-19
53,63,9,-58,21,36,-92,-117,-122,-92,-43,-14
48,58,9,-53,19,34,-82,-117,-122,-92,-48,-14
29,48,19,-39,4,34,-68,-122,-131,-102,-58,-24
0,34,34,-17,-17,34,-58,-126,-131,-102,-63,-34
-29,9,39,9,-34,24,-43,-131,-136,-112,-78,-48
-58,-14,43,36,-51,14,-19,-131,-141,-126,-97,-68
-73,-48,24,61,-48,-12,-4,-126,-146,-136,-107,-82
-82,-53,29,68,-56,-12,0,-126,-161,-146,-126,-92
-87,-68,19,78,-53,-24,0,-126,-165,-161,-136,-97
-97,-82,14,90,-56,-34,4,-131,-180,-180,-151,-117
-97,-102,-4,100,-46,-53,4,-141,-200,-204,-170,-131
-97,-102,-4,100,-46,-53,0,-141,-200,-209,-175,-131
-112,-102,9,107,-61,-46,-4,-136,-200,-209,-175,-131
-117,-102,14,109,-65,-43,0,-136,-204,-209,-175,-141
-122,-102,19,112,-70,-41,0,-141,-204,-214,-185,-146
-122,-102,19,112,-70,-41,4,-141,-204,-209,-185,-151
-126,-97,29,112,-78,-34,14,-141,-204,-204,-185,-151
-131,-107,24,119,-78,-41,19,-141,-204,-204,-185,-156
-131,-107,24,119,-78,-41,24,-136,-204,-204,-185,-156
-136,-112,24,124,-80,-43,29,-136,-204,-209,-190,-151
-136,-117,19,126,-78,-48,29,-136,-204,-209,-190,-151
-141,-122,19,131,-80,-51,29,-141,-204,-209,-190,-151
-151,-126,24,139,-87,-51,43,-141,-204,-219,-204,-161
-180,-131,48,156,-114,-41,78,-136,-195,-234,-234,-195
-224,-146,78,185,-151,-34,136,-117,-175,-244,-278,-244
-234,-146,87,190,-161,-29,170,-92,-151,-244,-278,-253
-214,-156,58,185,-136,-48,190,-29,-131,-224,-268,-239
-107,-146,-39,126,-34,-92,175,117,-29,-112,-151,-141
82,-82,-165,0,124,-124,92,253,122,97,78,58
331,102,-229,-217,280,-63,-97,307,292,375,395,346
605,366,-239,-485,422,63,-375,283,448,692,771,697
888,639,-248,-763,568,195,-668,175,590,1029,1190,1083
1102,868,-234,-985,668,317,-878,68,717,1356,1556,1405
1278,946,-331,-1112,805,307,-990,-9,810,1615,1834,1649
1361,902,-458,-1132,910,222,-990,-63,858,1795,2005,1771
1298,795,-502,-1046,900,146,-927,-170,746,1722,1932,1693
1073,595,-478,-834,775,58,-746,-229,566,1449,1664,1464
829,302,-527,-566,678,-112,-507,-136,366,1054,1249,1107
527,68,-458,-297,492,-195,-292,-102,92,468,624,595
229,-92,-322,-68,275,-207,-122,-97,-112,39,112,136
34,-122,-156,43,95,-139,9,-58,-78,-14,19,24
-24,-112,-87,68,31,-100,48,-43,-68,-29,0,0
-29,-87,-58,58,14,-73,48,-19,-29,-24,-4,-4
-34,-63,-29,48,-2,-46,24,-9,-24,-29,-14,-14
-39,-78,-39,58,0,-58,24,-14,-34,-34,-34,-29
-48,-97,-48,73,0,-73,24,-14,-53,-58,-53,-53
-73,-112,-39,92,-17,-75,43,-19,-78,-87,-87,-82
-92,-107,-14,100,-39,-61,53,-24,-87,-122,-122,-112
-97,-107,-9,102,-43,-58,53,-24,-87,-126,-126,-112
-102,-117,-14,109,-43,-65,58,-24,-87,-126,-131,-117
-107,-117,-9,112,-48,-63,68,-24,-92,-136,-141,-122
-112,-117,-4,114,-53,-61,73,-24,-97,-141,-146,-126
-112,-112,0,112,-56,-56,73,-24,-97,-141,-146,-126
-112,-112,0,112,-56,-56,68,-14,-92,-141,-151,-122
-112,-112,0,112,-56,-56,68,-9,-92,-136,-151,-122
-107,-112,-4,109,-51,-58,68,-4,-87,-136,-151,-122
-107,-112,-4,109,-51,-58,68,-4,-87,-136,-151,-122
-107,-107,0,107,-53,-53,73,4,-82,-131,-151,-126
-102,-107,-4,104,-48,-56,78,9,-73,-126,-146,-126
-107,-102,4,104,-56,-48,78,19,-58,-122,-141,-126
-107,-102,4,104,-56,-48,78,34,-48,-117,-136,-122
-102,-97,4,100,-53,-46,78,39,-43,-112,-131,-117
-102,-97,4,100,-53,-46,78,39,-34,-102,-117,-107
-92,-92,0,92,-46,-46,78,53,-34,-97,-112,-102
-87,-92,-4,90,-41,-48,78,58,-29,-92,-107,-102
-82,-87,-4,85,-39,-46,78,68,-19,-82,-102,-97
-82,-82,0,82,-41,-41,78,78,-4,-78,-97,-92
-78,-82,-4,80,-36,-43,78,82,4,-68,-92,-92
-73,-78,-4,75,-34,-41,78,92,14,-58,-82,-87
-68,-73,-4,70,-31,-39,82,107,29,-43,-78,-82
-68,-73,-4,70,-31,-39,82,122,43,-39,-68,-78
-63,-68,-4,65,-29,-36,87,136,63,-24,-63,-73
-58,-58,0,58,-29,-29,87,146,78,-9,-53,-68
-48,-53,-4,51,-21,-29,92,165,87,4,-43,-58
-43,-39,4,41,-24,-17,97,190,112,14,-39,-48
-39,-34,4,36,-21,-14,102,204,136,19,-34,-53
-34,-29,4,31,-19,-12,102,224,151,29,-34,-53
-29,-29,0,29,-14,-14,107,248,165,39,-24,-48
-24,-24,0,24,-12,-12,112,273,180,53,-14,-39
-19,-14,4,17,-12,-4,117,297,204,68,-4,-34
-9,-9,0,9,-4,-4,126,317,229,82,0,-29
-9,0,9,4,-9,4,131,341,253,102,14,-24
0,4,4,-2,-2,4,136,370,278,117,24,-14
4,9,4,-7,0,7,141,390,297,126,34,-4
9,14,4,-12,2,9,141,409,322,146,43,9
14,19,4,-17,4,12,146,429,341,156,53,9
19,29,9,-24,4,19,151,448,356,170,63,14
34,34,0,-34,17,17,156,458,375,185,68,14
39,39,0,-39,19,19,161,468,400,195,78,19
43,53,9,-48,17,31,161,478,414,209,82,24
48,68,19,-58,14,43,161,488,424,224,92,34
48,63,14,-56,17,39,161,488,444,224,102,48
53,63,9,-58,21,36,156,483,453,229,112,58
58,73,14,-65,21,43,141,458,453,244,122,68
58,78,19,-68,19,48,131,434,453,253,131,78
58,82,24,-70,17,53,122,400,439,253,141,82
58,87,29,-73,14,58,107,370,424,253,141,92
48,87,39,-68,4,63,97,331,395,248,141,92
43,87,43,-65,0,65,82,287,356,229,136,92
34,82,48,-58,-7,65,68,239,322,204,126,87
29,73,43,-51,-7,58,53,204,283,175,107,73
19,63,43,-41,-12,53,43,161,229,151,92,63
9,58,48,-34,-19,53,34,117,190,126,73,53
0,43,43,-21,-21,43,24,78,146,97,58,39
-4,39,43,-17,-24,41,19,48,112,63,34,24
-14,24,39,-4,-26,31,4,19,73,29,14,14
-24,14,39,4,-31,26,0,-4,34,4,0,-4
-34,0,34,17,-34,17,-4,-24,0,-14,-24,-14
-39,-9,29,24,-34,9,-14,-43,-24,-29,-39,-29
-39,-19,19,29,-29,0,-14,-58,-43,-53,-58,-39
-43,-24,19,34,-31,-2,-14,-63,-68,-68,-68,-48
-53,-34,19,43,-36,-7,-9,-73,-78,-78,-73,-53
-53,-34,19,43,-36,-7,-4,-82,-87,-87,-78,-53
-58,-43,14,51,-36,-14,-4,-92,-92,-102,-87,-53
-58,-43,14,51,-36,-14,-9,-107,-97,-107,-92,-68
-58,-43,14,51,-36,-14,-9,-97,-97,-107,-92,-73
-58,-43,14,51,-36,-14,-9,-92,-107,-112,-97,-78
-53,-48,4,51,-29,-21,-9,-97,-112,-117,-102,-78
-53,-48,4,51,-29,-21,-9,-97,-112,-117,-102,-78
-53,-53,0,53,-26,-26,-9,-92,-112,-117,-107,-78
-53,-58,-4,56,-24,-31,-9,-92,-112,-122,-107,-78
-53,-58,-4,56,-24,-31,-9,-92,-117,-122,-107,-78
-53,-58,-4,56,-24,-31,-9,-92,-117,-122,-107,-82
-53,-58,-4,56,-24,-31,-9,-92,-117,-122,-107,-82
-53,-58,-4,56,-24,-31,-9,-87,-112,-122,-107,-82
-53,-58,-4,56,-24,-31,-9,-87,-107,-117,-107,-82
-53,-58,-4,56,-24,-31,-9,-87,-107,-117,-107,-82
-53,-58,-4,56,-24,-31,-4,-87,-107,-112,-107,-82
-53,-58,-4,56,-24,-31,-4,-87,-112,-107,-102,-82
-58,-58,0,58,-29,-29,-4,-87,-112,-107,-102,-78
-63,-53,9,58,-36,-21,-4,-82,-112,-107,-97,-78
-63,-48,14,56,-39,-17,-9,-82,-112,-107,-97,-78
-63,-48,14,56,-39,-17,-9,-87,-117,-107,-102,-78
-63,-48,14,56,-39,-17,-4,-92,-117,-112,-102,-78
-63,-53,9,58,-36,-21,-4,-92,-117,-117,-102,-78
-63,-53,9,58,-36,-21,0,-92,-112,-117,-102,-78
-63,-53,9,58,-36,-21,4,-92,-107,-117,-102,-78
-63,-58,4,61,-34,-26,4,-92,-107,-117,-102,-82
-63,-58,4,61,-34,-26,4,-92,-107,-117,-107,-87
-63,-58,4,61,-34,-26,4,-92,-112,-117,-112,-87
-63,-58,4,61,-34,-26,4,-92,-117,-117,-117,-87
-63,-58,4,61,-34,-26,4,-92,-122,-117,-112,-82
-63,-58,4,61,-34,-26,4,-92,-122,-117,-112,-78
-63,-58,4,61,-34,-26,0,-92,-117,-117,-107,-73
-63,-58,4,61,-34,-26,-4,-87,-112,-117,-107,-68
-68,-58,9,63,-39,-24,-4,-87,-112,-117,-107,-68
-68,-53,14,61,-41,-19,-4,-87,-112,-122,-107,-73
-68,-53,14,61,-41,-19,0,-87,-117,-122,-107,-82
-68,-53,14,61,-41,-19,4,-87,-117,-126,-112,-87
-73,-58,14,65,-43,-21,4,-97,-126,-131,-117,-87
-78,-63,14,70,-46,-24,4,-102,-131,-131,-126,-92
-78,-63,14,70,-46,-24,0,-102,-136,-131,-126,-97
-78,-58,19,68,-48,-19,0,-102,-141,-131,-126,-102
-78,-58,19,68,-48,-19,0,-107,-141,-136,-131,-102
-73,-58,14,65,-43,-21,0,-107,-141,-141,-131,-107
-73,-53,19,63,-46,-17,-4,-107,-136,-141,-136,-102
-73,-53,19,63,-46,-17,-4,-107,-131,-146,-136,-102
-73,-53,19,63,-46,-17,-4,-112,-136,-146,-136,-102
-78,-53,24,65,-51,-14,-4,-112,-136,-146,-136,-102
-78,-58,19,68,-48,-19,-4,-112,-141,-146,-141,-107
-78,-63,14,70,-46,-24,-4,-112,-146,-151,-141,-112
-78,-63,14,70,-46,-24,-4,-112,-146,-151,-146,-112
-78,-63,14,70,-46,-24,-4,-112,-146,-151,-146,-117
-78,-63,14,70,-46,-24,-4,-107,-151,-151,-146,-112
-78,-63,14,70,-46,-24,-4,-107,-151,-156,-151,-107
-78,-63,14,70,-46,-24,0,-107,-151,-156,-146,-107
-78,-68,9,73,-43,-29,0,-107,-156,-161,-146,-112
-78,-68,9,73,-43,-29,0,-107,-156,-161,-146,-112
-78,-68,9,73,-43,-29,0,-107,-156,-165,-146,-117
-78,-68,9,73,-43,-29,4,-107,-156,-165,-146,-117
-78,-68,9,73,-43,-29,9,-107,-156,-165,-146,-117
-78,-68,9,73,-43,-29,9,-112,-161,-165,-151,-117
-73,-58,14,65,-43,-21,0,-117,-156,-161,-146,-112
-68,-48,19,58,-43,-14,-9,-122,-151,-156,-146,-107
-63,-19,43,41,-53,12,-9,-122,-141,-136,-131,-92
-53,-4,48,29,-51,21,-4,-117,-126,-126,-122,-82
-43,9,53,17,-48,31,0,-112,-117,-117,-107,-73
-43,19,63,12,-53,41,4,-97,-97,-107,-102,-68
-39,24,63,7,-51,43,9,-92,-92,-102,-102,-63
-39,29,68,4,-53,48,4,-92,-87,-97,-97,-63
-39,34,73,2,-56,53,-9,-97,-82,-97,-97,-63
-19,48,68,-14,-43,58,-24,-97,-78,-87,-87,-53
0,58,58,-29,-29,58,-43,-102,-73,-78,-73,-43
9,63,53,-36,-21,58,-58,-102,-73,-73,-68,-39
14,63,48,-39,-17,56,-73,-102,-78,-73,-68,-39
14,68,53,-41,-19,61,-87,-112,-82,-68,-68,-39
29,73,43,-51,-7,58,-92,-117,-92,-68,-63,-29
29,73,43,-51,-7,58,-92,-117,-102,-82,-63,-29
43,73,29,-58,7,51,-92,-117,-112,-82,-63,-24
48,68,19,-58,14,43,-87,-117,-117,-87,-63,-14
39,58,19,-48,9,39,-78,-122,-131,-102,-68,-14
19,53,34,-36,-7,43,-68,-126,-131,-102,-73,-24
0,39,39,-19,-19,39,-53,-131,-136,-112,-87,-39
-43,14,58,14,-51,36,-29,-136,-136,-126,-107,-58
-73,-19,53,46,-63,17,-14,-136,-136,-136,-117,-73
-82,-29,53,56,-68,12,-9,-136,-151,-141,-131,-87
-87,-48,39,68,-63,-4,-9,-136,-156,-151,-136,-97
-97,-63,34,80,-65,-14,-4,-141,-175,-170,-151,-117
-97,-82,14,90,-56,-34,-4,-151,-200,-195,-170,-131
-97,-82,14,90,-56,-34,-4,-151,-200,-200,-180,-136
-112,-82,29,97,-70,-26,-4,-146,-200,-200,-185,-141
-112,-82,29,97,-70,-26,0,-141,-204,-204,-185,-151
-112,-82,29,97,-70,-26,0,-141,-204,-214,-195,-156
-112,-92,19,102,-65,-36,0,-141,-204,-214,-200,-161
-117,-97,19,107,-68,-39,4,-141,-204,-214,-204,-161
-122,-107,14,114,-68,-46,9,-141,-204,-214,-204,-165
-122,-107,14,114,-68,-46,14,-136,-204,-214,-204,-165
-126,-107,19,117,-73,-43,19,-136,-204,-219,-209,-165
-126,-107,19,117,-73,-43,19,-136,-204,-219,-209,-170
-122,-112,9,117,-65,-51,14,-136,-204,-209,-200,-165
-122,-117,4,119,-63,-56,24,-131,-204,-209,-204,-170
-151,-117,34,134,-92,-41,39,-131,-195,-224,-234,-195
-195,-126,68,161,-131,-29,78,-117,-175,-234,-278,-234
-239,-126,112,183,-175,-7,131,-122,-151,-253,-297,-268
-253,-136,117,195,-185,-9,170,-87,-131,-253,-307,-278
-219,-190,29,204,-124,-80,219,53,-73,-204,-263,-248
-102,-190,-87,146,-7,-139,200,185,34,-58,-107,-117
102,-68,-170,-17,136,-119,97,287,195,170,151,122
331,131,-200,-231,265,-34,-92,312,341,439,468,424
653,473,-180,-563,417,146,-453,195,483,819,966,888
907,771,-136,-839,522,317,-732,78,610,1190,1410,1288
1161,951,-209,-1056,685,370,-941,-14,775,1586,1844,1678
1322,1010,-312,-1166,817,348,-1039,-82,897,1903,2171,1947
1351,990,-361,-1171,856,314,-1029,-219,849,1995,2259,1995
1220,878,-341,-1049,780,268,-902,-307,732,1888,2152,1893
1015,541,-473,-778,744,34,-639,-190,546,1522,1781,1566
751,263,-488,-507,619,-112,-400,-131,287,966,1200,1083
375,9,-366,-192,370,-178,-200,-156,-53,287,405,390
102,-112,-214,4,158,-163,-39,-146,-156,-14,29,43
4,-131,-136,63,70,-134,34,-107,-146,-34,0,14
-39,-136,-97,87,29,-117,68,-58,-107,-34,-14,4
-34,-73,-39,53,2,-56,34,-34,-63,-34,-14,-4
-29,-48,-19,39,-4,-34,24,-24,-34,-34,-24,-19
-39,-68,-29,53,-4,-48,24,-24,-53,-53,-48,-43
-63,-82,-19,73,-21,-51,43,-29,-78,-78,-87,-73
-82,-82,0,82,-41,-41,53,-34,-92,-122,-126,-102
-87,-87,0,87,-43,-43,53,-34,-97,-136,-136,-102
-92,-102,-9,97,-41,-56,53,-29,-97,-136,-141,-112
-97,-107,-9,102,-43,-58,58,-24,-102,-146,-151,-122
-107,-107,0,107,-53,-53,63,-24,-107,-151,-161,-131
-112,-102,9,107,-61,-46,63,-24,-107,-151,-165,-136
-112,-102,9,107,-61,-46,63,-14,-102,-151,-165,-131
-112,-102,9,107,-61,-46,68,-9,-102,-146,-161,-131
-107,-102,4,104,-56,-48,68,-9,-102,-146,-161,-131
-107,-102,4,104,-56,-48,68,-14,-107,-146,-161,-131
-107,-97,9,102,-58,-43,68,-4,-102,-141,-161,-136
-102,-97,4,100,-53,-46,68,0,-92,-136,-156,-136
-102,-92,9,97,-56,-41,63,4,-82,-131,-151,-136
-97,-92,4,95,-51,-43,58,14,-78,-126,-146,-131
-92,-82,9,87,-51,-36,58,19,-73,-126,-146,-131
-92,-78,14,85,-53,-31,58,19,-63,-122,-136,-126
-87,-73,14,80,-51,-29,58,34,-58,-117,-131,-122
-87,-73,14,80,-51,-29,58,39,-48,-112,-126,-122
-82,-68,14,75,-48,-26,58,43,-39,-102,-122,-117
-82,-63,19,73,-51,-21,58,48,-24,-97,-117,-112
-78,-63,14,70,-46,-24,63,53,-14,-87,-117,-112
-73,-58,14,65,-43,-21,68,63,-4,-78,-112,-107
-63,-53,9,58,-36,-21,73,82,9,-63,-107,-102
-58,-53,4,56,-31,-24,73,102,24,-58,-97,-97
-53,-53,0,53,-26,-26,78,117,43,-48,-87,-87
-48,-48,0,48,-24,-24,78,126,58,-39,-73,-78
-43,-48,-4,46,-19,-26,82,136,58,-24,-63,-68
-43,-39,4,41,-24,-17,87,151,73,-14,-58,-58
-39,-34,4,36,-21,-14,92,165,97,-4,-48,-58
-34,-29,4,31,-19,-12,92,185,112,9,-43,-53
-29,-34,-4,31,-12,-19,97,204,136,19,-39,-53
-24,-34,-9,29,-7,-21,102,224,161,34,-34,-48
-19,-24,-4,21,-7,-14,102,248,185,48,-24,-43
-9,-19,-9,14,0,-14,107,268,209,63,-19,-39
-9,-4,4,7,-7,0,112,287,234,87,-4,-34
0,4,4,-2,-2,4,117,312,258,107,4,-24
4,9,4,-7,0,7,122,331,278,117,24,-19
9,14,4,-12,2,9,122,351,302,136,43,-9
14,19,4,-17,4,12,126,370,322,146,43,-9
19,29,9,-24,4,19,131,390,336,161,43,-4
29,34,4,-31,12,19,136,405,356,170,43,-4
29,39,9,-34,9,24,141,419,380,175,48,0
34,43,9,-39,12,26,141,429,400,190,53,4
39,48,9,-43,14,29,141,439,414,204,63,14
39,48,9,-43,14,29,146,448,434,209,82,29
43,53,9,-48,17,31,146,453,444,219,102,39
53,63,9,-58,21,36,131,439,444,234,112,53
58,68,9,-63,24,39,122,424,444,244,122,68
58,78,19,-68,19,48,112,390,439,248,136,73
58,87,29,-73,14,58,97,361,434,253,141,82
53,87,34,-70,9,61,87,331,409,258,146,87
53,87,34,-70,9,61,73,297,375,248,146,92
43,87,43,-65,0,65,58,248,341,224,141,92
39,82,43,-61,-2,63,43,214,302,195,126,82
29,73,43,-51,-7,58,34,175,258,180,112,73
19,68,48,-43,-14,58,24,136,229,165,92,63
9,53,43,-31,-17,48,14,97,185,136,78,48
4,48,43,-26,-19,46,9,68,151,102,53,34
-4,34,39,-14,-21,36,0,34,112,68,34,24
-14,24,39,-4,-26,31,0,4,73,43,19,4
-24,9,34,7,-29,21,0,-14,29,14,-9,-4
-29,0,29,14,-29,14,-4,-34,-4,-9,-29,-19
-29,-9,19,19,-24,4,-4,-53,-29,-34,-48,-29
-34,-14,19,24,-26,2,-4,-63,-58,-48,-58,-39
-48,-29,19,39,-34,-4,-4,-73,-68,-63,-68,-53
-53,-34,19,43,-36,-7,-4,-82,-78,-78,-78,-63
-58,-43,14,51,-36,-14,-4,-82,-92,-92,-87,-63
-58,-43,14,51,-36,-14,-9,-87,-107,-97,-92,-78
-58,-43,14,51,-36,-14,-4,-87,-107,-107,-92,-78
-58,-43,14,51,-36,-14,0,-92,-117,-122,-97,-78
-58,-48,9,53,-34,-19,0,-97,-122,-126,-102,-78
-63,-48,14,56,-39,-17,0,-97,-122,-126,-102,-78
-63,-48,14,56,-39,-17,-4,-92,-117,-117,-107,-78
-63,-48,14,56,-39,-17,-9,-92,-112,-112,-107,-78
-63,-48,14,56,-39,-17,-9,-92,-117,-112,-112,-78
-63,-48,14,56,-39,-17,-9,-92,-117,-112,-117,-82
-63,-48,14,56,-39,-17,-9,-92,-122,-117,-117,-82
-63,-48,14,56,-39,-17,-9,-87,-122,-122,-117,-82
-63,-48,14,56,-39,-17,-9,-87,-117,-122,-117,-82
-63,-48,14,56,-39,-17,-9,-87,-117,-126,-117,-82
-68,-53,14,61,-41,-19,-4,-87,-117,-126,-117,-82
-73,-58,14,65,-43,-21,-4,-87,-122,-126,-112,-82
-73,-63,9,68,-41,-26,-4,-92,-122,-122,-112,-78
-73,-63,9,68,-41,-26,-4,-92,-122,-117,-107,-78
-68,-53,14,61,-41,-19,-9,-92,-122,-117,-107,-78
-63,-48,14,56,-39,-17,-9,-97,-126,-117,-112,-78
-63,-48,14,56,-39,-17,-4,-97,-126,-117,-112,-78
-63,-53,9,58,-36,-21,-4,-92,-126,-117,-112,-78
-63,-48,14,56,-39,-17,-4,-92,-122,-117,-112,-82
-63,-43,19,53,-41,-12,-4,-92,-117,-117,-112,-87
-58,-43,14,51,-36,-14,-4,-87,-117,-117,-112,-87
-53,-39,14,46,-34,-12,-4,-82,-117,-117,-117,-87
-53,-43,9,48,-31,-17,-4,-82,-117,-117,-112,-82
-53,-48,4,51,-29,-21,-4,-82,-117,-117,-107,-78
-53,-48,4,51,-29,-21,-4,-82,-122,-117,-102,-78
-53,-48,4,51,-29,-21,-4,-82,-122,-117,-102,-78
-53,-43,9,48,-31,-17,-4,-87,-122,-117,-102,-82
-53,-39,14,46,-34,-12,-4,-87,-122,-117,-107,-87
-58,-39,19,48,-39,-9,-4,-87,-122,-117,-112,-87
-58,-34,24,46,-41,-4,-4,-87,-122,-122,-117,-92
-58,-34,24,46,-41,-4,-4,-87,-126,-122,-117,-97
-58,-34,24,46,-41,-4,-4,-87,-126,-126,-122,-97
-58,-43,14,51,-36,-14,-4,-92,-131,-131,-117,-92
-58,-53,4,56,-31,-24,-4,-92,-131,-131,-117,-92
-58,-58,0,58,-29,-29,-4,-92,-136,-131,-117,-92
-58,-58,0,58,-29,-29,0,-92,-141,-131,-117,-92
-63,-58,4,61,-34,-26,0,-97,-141,-136,-122,-92
-63,-58,4,61,-34,-26,0,-97,-141,-141,-122,-97
-63,-53,9,58,-36,-21,0,-97,-136,-141,-131,-97
-63,-53,9,58,-36,-21,4,-97,-131,-146,-136,-102
-63,-53,9,58,-36,-21,4,-102,-136,-151,-141,-107
-68,-53,14,61,-41,-19,4,-102,-136,-156,-146,-112
-68,-53,14,61,-41,-19,4,-102,-141,-156,-151,-112
-68,-53,14,61,-41,-19,4,-102,-146,-161,-151,-112
-68,-53,14,61,-41,-19,4,-102,-146,-156,-151,-107
-68,-53,14,61,-41,-19,4,-102,-146,-151,-146,-107
-68,-53,14,61,-41,-19,4,-102,-156,-151,-146,-107
-68,-53,14,61,-41,-19,4,-107,-161,-156,-146,-107
-68,-53,14,61,-41,-19,4,-107,-161,-156,-151,-112
-73,-58,14,65,-43,-21,4,-107,-161,-161,-151,-117
-68,-58,9,63,-39,-24,4,-107,-156,-161,-151,-122
-68,-58,9,63,-39,-24,9,-107,-156,-165,-156,-126
-68,-58,9,63,-39,-24,9,-107,-156,-165,-156,-126
-68,-58,9,63,-39,-24,9,-107,-156,-165,-156,-126
-68,-63,4,65,-36,-29,9,-107,-156,-165,-156,-122
-68,-58,9,63,-39,-24,4,-107,-156,-165,-156,-117
-68,-58,9,63,-39,-24,4,-112,-161,-170,-156,-117
-58,-48,9,53,-34,-19,-9,-112,-151,-165,-146,-107
-53,-19,34,36,-43,7,-14,-112,-141,-146,-131,-97
-43,-4,39,24,-41,17,-14,-107,-126,-136,-122,-92
-34,9,43,12,-39,26,-9,-102,-117,-126,-107,-82
-34,19,53,7,-43,36,-9,-92,-102,-117,-102,-78
-29,24,53,2,-41,39,-4,-92,-97,-107,-102,-73
-29,24,53,2,-41,39,-4,-92,-87,-97,-97,-73
-29,29,58,0,-43,43,-19,-97,-82,-97,-97,-73
-9,48,58,-19,-34,53,-34,-97,-78,-87,-87,-63
9,63,53,-36,-21,58,-53,-102,-73,-78,-68,-53
19,73,53,-46,-17,63,-63,-102,-73,-73,-58,-43
24,73,48,-48,-12,61,-78,-102,-78,-73,-58,-34
24,78,53,-51,-14,65,-92,-112,-82,-73,-58,-29
39,82,43,-61,-2,63,-92,-117,-97,-78,-53,-19
39,82,43,-61,-2,63,-92,-117,-112,-92,-53,-19
53,82,29,-68,12,56,-87,-117,-122,-92,-53,-14
53,78,24,-65,14,51,-78,-117,-126,-97,-58,-14
34,68,34,-51,0,51,-68,-122,-141,-112,-73,-34
0,58,58,-29,-29,58,-58,-126,-141,-112,-82,-53
-29,39,68,-4,-48,53,-43,-131,-146,-122,-107,-68
-58,14,73,21,-65,43,-19,-131,-151,-136,-136,-87
-68,-19,48,43,-58,14,-4,-126,-156,-146,-136,-97
-73,-29,43,51,-58,7,0,-126,-170,-156,-146,-107
-78,-48,29,63,-53,-9,-4,-126,-175,-170,-156,-117
-87,-63,24,75,-56,-19,-4,-131,-190,-190,-170,-136
-87,-82,4,85,-46,-39,-4,-141,-209,-214,-190,-151
-87,-82,4,85,-46,-39,-4,-141,-209,-214,-195,-151
-102,-87,14,95,-58,-36,-4,-131,-209,-209,-195,-156
-102,-92,9,97,-56,-41,0,-126,-214,-209,-195,-165
-102,-92,9,97,-56,-41,4,-131,-214,-219,-204,-165
-102,-97,4,100,-53,-46,9,-131,-214,-224,-204,-170
-107,-97,9,102,-58,-43,14,-131,-214,-224,-204,-165
-112,-107,4,109,-58,-51,19,-131,-214,-224,-204,-165
-112,-107,4,109,-58,-51,24,-126,-209,-219,-200,-165
-117,-107,9,112,-63,-48,29,-126,-204,-219,-200,-165
-117,-107,9,112,-63,-48,29,-126,-204,-219,-200,-170
-122,-112,9,117,-65,-51,29,-126,-204,-219,-200,-170
-131,-117,14,124,-73,-51,43,-117,-204,-229,-214,-180
-161,-122,39,141,-100,-41,73,-107,-190,-244,-244,-214
-204,-131,73,168,-139,-29,126,-87,-165,-253,-287,-263
-219,-126,92,173,-156,-17,161,-73,-141,-253,-287,-273
-209,-136,73,173,-141,-31,180,-29,-117,-224,-273,-258
-122,-136,-14,129,-53,-75,180,102,-14,-102,-151,-161
34,-82,-117,24,75,-100,126,224,131,107,82,48
239,92,-146,-165,192,-26,-24,258,292,385,414,346
483,346,-136,-414,309,104,-278,224,439,727,829,722
761,634,-126,-697,444,253,-585,117,580,1117,1312,1166
966,878,-87,-922,527,395,-810,0,692,1488,1737,1546
1141,976,-165,-1058,653,405,-932,-82,800,1815,2088,1854
1234,971,-263,-1102,749,353,-941,-122,912,2088,2332,2025
1180,893,-287,-1037,734,302,-878,-204,839,2078,2298,1966
980,688,-292,-834,636,197,-688,-224,653,1810,2020,1722
771,366,-405,-568,588,-19,-444,-107,444,1361,1551,1312
497,102,-395,-300,446,-146,-253,-87,151,683,839,727
209,-82,-292,-63,251,-187,-102,-102,-107,131,195,175
24,-122,-146,48,85,-134,24,-68,-122,-4,24,14
-24,-122,-97,73,36,-109,58,-53,-126,-43,0,-9
-24,-102,-78,63,26,-90,58,-29,-73,-29,-4,-14
-24,-58,-34,41,4,-46,34,-14,-43,-19,-14,-24
-29,-53,-24,41,-2,-39,29,-14,-43,-24,-34,-39
-39,-68,-29,53,-4,-48,24,-14,-63,-53,-58,-63
-63,-82,-19,73,-21,-51,43,-19,-87,-92,-97,-92
-82,-82,0,82,-41,-41,53,-24,-97,-131,-131,-122
-87,-87,0,87,-43,-43,53,-24,-102,-136,-136,-122
-92,-97,-4,95,-43,-51,53,-24,-107,-136,-141,-131
-92,-97,-4,95,-43,-51,58,-24,-112,-151,-151,-141
-92,-97,-4,95,-43,-51,63,-24,-117,-161,-156,-146
-92,-92,0,92,-46,-46,58,-24,-117,-161,-156,-146
-92,-92,0,92,-46,-46,53,-14,-112,-161,-156,-141
-97,-92,4,95,-51,-43,58,-14,-112,-156,-151,-141
-97,-92,4,95,-51,-43,58,-14,-107,-156,-151,-141
-97,-92,4,95,-51,-43,58,-14,-107,-156,-151,-141
-97,-87,9,92,-53,-39,58,-4,-102,-151,-151,-141
-92,-87,4,90,-48,-41,63,0,-92,-146,-146,-136
-92,-82,9,87,-51,-36,68,4,-82,-141,-141,-136
-87,-82,4,85,-46,-39,68,14,-78,-136,-136,-131
-82,-78,4,80,-43,-36,68,19,-73,-131,-136,-131
-82,-78,4,80,-43,-36,68,19,-63,-122,-126,-126
-78,-73,4,75,-41,-34,68,34,-58,-117,-122,-122
-78,-73,4,75,-41,-34,68,39,-48,-112,-117,-122
-73,-68,4,70,-39,-31,68,48,-39,-102,-112,-117
-73,-63,9,68,-41,-26,68,58,-24,-97,-107,-107
-68,-63,4,65,-36,-29,68,63,-14,-87,-102,-102
-63,-58,4,61,-34,-26,68,73,4,-73,-87,-97
-58,-53,4,56,-31,-24,73,87,29,-53,-78,-92
-58,-58,0,58,-29,-29,73,102,43,-48,-68,-87
-53,-58,-4,56,-24,-31,78,117,63,-39,-63,-82
-48,-48,0,48,-24,-24,78,126,78,-29,-58,-78
-39,-48,-9,43,-14,-29,82,146,87,-14,-53,-68
-34,-39,-4,36,-14,-21,87,170,107,-4,-48,-58
-29,-34,-4,31,-12,-19,92,185,126,9,-39,-58
-24,-29,-4,26,-9,-17,92,200,141,29,-34,-53
-19,-29,-9,24,-4,-19,97,214,161,39,-24,-48
-14,-24,-9,19,-2,-17,97,234,185,53,-14,-43
-9,-14,-4,12,-2,-9,97,258,214,68,-4,-43
0,-9,-9,4,4,-9,107,278,239,82,0,-39
0,0,0,0,0,0,112,297,263,102,14,-34
9,4,-4,-7,7,0,122,322,287,117,24,-24
14,9,-4,-12,9,2,131,341,307,126,34,-19
19,14,-4,-17,12,4,131,356,326,146,43,-4
24,19,-4,-21,14,7,136,370,346,156,53,0
29,39,9,-34,9,24,136,390,366,170,63,4
39,53,14,-46,12,34,136,400,385,185,68,9
39,48,9,-43,14,29,141,409,409,195,82,19
43,43,0,-43,21,21,141,419,424,209,92,24
48,48,0,-48,24,24,141,429,434,224,102,34
48,53,4,-51,21,29,141,429,448,229,112,43
53,63,9,-58,21,36,136,424,458,239,122,48
58,73,14,-65,21,43,122,405,463,253,131,58
53,78,24,-65,14,51,117,390,463,263,136,68
48,82,34,-65,7,58,112,361,448,263,141,73
48,87,39,-68,4,63,97,331,434,263,141,82
43,87,43,-65,0,65,87,297,405,258,146,82
43,87,43,-65,0,65,73,258,366,239,146,82
34,82,48,-58,-7,65,58,209,331,214,136,82
29,73,43,-51,-7,58,43,175,292,185,117,73
19,63,43,-41,-12,53,34,136,239,161,102,63
9,58,48,-34,-19,53,24,102,195,136,82,53
0,43,43,-21,-21,43,14,68,146,107,68,39
-4,39,43,-17,-24,41,9,43,112,73,43,24
-14,24,39,-4,-26,31,0,19,73,39,24,14
-24,19,43,2,-34,31,0,-4,34,14,9,-9
-34,9,43,12,-39,26,0,-24,0,-9,-14,-24
-39,4,43,17,-41,24,-4,-43,-24,-29,-39,-39
-39,0,39,19,-39,19,-4,-58,-43,-53,-68,-48
-43,-4,39,24,-41,17,-4,-63,-68,-68,-63,-58
-53,-14,39,34,-46,12,-4,-73,-78,-78,-58,-68
-53,-19,34,36,-43,7,-4,-82,-87,-87,-78,-73
-58,-34,24,46,-41,-4,-4,-82,-97,-102,-97,-73
-63,-39,24,51,-43,-7,-4,-87,-107,-107,-102,-87
-68,-43,24,56,-46,-9,0,-87,-107,-107,-102,-87
-68,-43,24,56,-46,-9,0,-92,-117,-117,-107,-92
-68,-48,19,58,-43,-14,0,-97,-122,-126,-112,-97
-68,-43,24,56,-46,-9,-4,-97,-122,-126,-112,-97
-63,-39,24,51,-43,-7,-9,-92,-122,-126,-117,-97
-63,-39,24,51,-43,-7,-9,-92,-122,-126,-112,-92
-63,-39,24,51,-43,-7,-9,-92,-126,-122,-107,-87
-63,-43,19,53,-41,-12,-9,-92,-126,-122,-107,-87
-63,-48,14,56,-39,-17,-9,-92,-126,-122,-107,-82
-63,-48,14,56,-39,-17,-9,-87,-122,-122,-107,-82
-63,-48,14,56,-39,-17,-9,-87,-117,-117,-107,-82
-63,-48,14,56,-39,-17,-9,-87,-117,-117,-107,-82
-63,-48,14,56,-39,-17,-4,-87,-117,-117,-107,-82
-63,-48,14,56,-39,-17,-4,-87,-117,-117,-102,-82
-63,-53,9,58,-36,-21,-4,-87,-112,-117,-102,-78
-63,-53,9,58,-36,-21,0,-82,-112,-117,-97,-82
-63,-48,14,56,-39,-17,0,-82,-107,-117,-97,-87
-63,-48,14,56,-39,-17,0,-87,-107,-117,-102,-87
-63,-48,14,56,-39,-17,4,-87,-107,-117,-102,-87
-63,-53,9,58,-36,-21,0,-82,-112,-117,-102,-87
-63,-53,9,58,-36,-21,-4,-82,-117,-117,-102,-87
-63,-53,9,58,-36,-21,-4,-82,-117,-117,-102,-87
-63,-53,9,58,-36,-21,-4,-82,-117,-117,-102,-87
-63,-48,14,56,-39,-17,-4,-82,-117,-117,-107,-87
-63,-48,14,56,-39,-17,-4,-82,-117,-117,-107,-87
-63,-48,14,56,-39,-17,-4,-82,-117,-117,-107,-92
-63,-48,14,56,-39,-17,-4,-82,-122,-117,-102,-97
-63,-48,14,56,-39,-17,0,-82,-122,-117,-102,-97
-63,-48,14,56,-39,-17,4,-87,-122,-117,-102,-97
-63,-48,14,56,-39,-17,4,-87,-122,-117,-107,-92
-68,-53,14,61,-41,-19,4,-87,-122,-117,-107,-87
-68,-53,14,61,-41,-19,4,-87,-122,-122,-107,-92
-68,-53,14,61,-41,-19,4,-87,-126,-122,-107,-97
-73,-58,14,65,-43,-21,4,-87,-126,-126,-112,-97
-78,-68,9,73,-43,-29,4,-92,-131,-131,-112,-97
-78,-73,4,75,-41,-34,4,-92,-126,-131,-117,-97
-78,-73,4,75,-41,-34,4,-92,-126,-131,-117,-92
-78,-63,14,70,-46,-24,4,-92,-131,-131,-117,-92
-82,-58,24,70,-53,-17,0,-97,-131,-136,-122,-92
-82,-58,24,70,-53,-17,0,-97,-131,-141,-122,-97
-82,-58,24,70,-53,-17,-4,-97,-131,-141,-126,-97
-82,-68,14,75,-48,-26,0,-97,-131,-146,-126,-102
-82,-73,9,78,-46,-31,4,-102,-136,-146,-126,-102
-87,-73,14,80,-51,-29,4,-102,-136,-146,-126,-102
-87,-73,14,80,-51,-29,4,-102,-141,-146,-131,-102
-87,-73,14,80,-51,-29,0,-102,-146,-151,-131,-102
-87,-73,14,80,-51,-29,-4,-102,-146,-151,-136,-102
-82,-68,14,75,-48,-26,-4,-102,-146,-151,-136,-107
-78,-63,14,70,-46,-24,-4,-102,-151,-151,-136,-107
-78,-63,14,70,-46,-24,-4,-107,-151,-156,-136,-107
-78,-63,14,70,-46,-24,-4,-107,-151,-156,-141,-107
-78,-63,14,70,-46,-24,0,-107,-151,-161,-141,-112
-78,-68,9,73,-43,-29,0,-107,-156,-165,-146,-117
-78,-68,9,73,-43,-29,0,-107,-156,-165,-146,-117
-78,-68,9,73,-43,-29,0,-107,-156,-165,-146,-117
-78,-73,4,75,-41,-34,4,-102,-156,-165,-146,-117
-78,-68,9,73,-43,-29,4,-102,-156,-165,-146,-117
-78,-63,14,70,-46,-24,4,-102,-156,-165,-146,-117
-68,-48,19,58,-43,-14,-9,-102,-141,-156,-136,-107
-63,-19,43,41,-53,12,-9,-102,-131,-136,-122,-92
-53,-4,48,29,-51,21,-4,-97,-117,-126,-112,-82
-43,9,53,17,-48,31,0,-92,-107,-117,-97,-78
-43,19,63,12,-53,41,0,-82,-92,-107,-92,-78
-39,24,63,7,-51,43,0,-87,-92,-102,-92,-73
-39,24,63,7,-51,43,-4,-92,-87,-97,-87,-73
-43,24,68,9,-56,46,-19,-97,-82,-97,-87,-68
-29,39,68,-4,-48,53,-34,-97,-78,-87,-78,-53
-9,48,58,-19,-34,53,-53,-102,-73,-73,-58,-43
0,53,53,-26,-26,53,-63,-102,-73,-63,-48,-34
9,53,43,-31,-17,48,-73,-102,-78,-63,-48,-29
14,58,43,-36,-14,51,-82,-112,-82,-63,-48,-29
34,68,34,-51,0,51,-87,-117,-92,-68,-43,-19
39,73,34,-56,2,53,-92,-117,-102,-82,-43,-19
53,73,19,-63,17,46,-92,-117,-112,-82,-43,-14
53,68,14,-61,19,41,-87,-117,-117,-87,-48,-14
39,58,19,-48,9,39,-78,-126,-136,-107,-58,-24
9,48,39,-29,-14,43,-68,-136,-141,-112,-63,-34
-19,29,48,-4,-34,39,-53,-141,-146,-122,-78,-48
-48,4,53,21,-51,29,-29,-141,-151,-136,-97,-68
-63,-29,34,46,-48,2,-9,-131,-156,-141,-107,-82
-73,-39,34,56,-53,-2,0,-126,-170,-146,-126,-97
-82,-58,24,70,-53,-17,0,-126,-170,-161,-136,-107
-97,-73,24,85,-61,-24,4,-131,-180,-180,-151,-126
-97,-92,4,95,-51,-43,4,-141,-200,-204,-170,-141
-97,-92,4,95,-51,-43,4,-141,-200,-204,-175,-141
-112,-97,14,104,-63,-41,4,-136,-204,-204,-180,-141
-112,-102,9,107,-61,-46,9,-136,-214,-209,-185,-146
-112,-102,9,107,-61,-46,9,-141,-214,-214,-195,-146
-112,-107,4,109,-58,-51,9,-141,-214,-214,-195,-151
-117,-107,9,112,-63,-48,9,-141,-214,-214,-195,-151
-122,-117,4,119,-63,-56,9,-141,-214,-214,-195,-156
-122,-117,4,119,-63,-56,14,-136,-214,-214,-195,-156
-126,-117,9,122,-68,-53,19,-136,-214,-219,-200,-156
-126,-117,9,122,-68,-53,19,-136,-214,-219,-200,-161
-131,-122,9,126,-70,-56,19,-136,-214,-219,-200,-161
-141,-126,14,134,-78,-56,29,-136,-219,-234,-214,-170
-170,-131,39,151,-104,-46,53,-136,-209,-253,-244,-204
-224,-146,78,185,-151,-34,107,-126,-195,-273,-297,-263
-248,-146,102,197,-175,-21,141,-122,-180,-283,-307,-283
-258,-170,87,214,-173,-41,180,-82,-185,-302,-336,-307
-190,-185,4,187,-97,-90,200,43,-112,-229,-258,-248
-29,-156,-126,92,48,-141,161,209,34,-43,-63,-78
180,-4,-185,-87,183,-95,24,287,195,209,229,180
439,239,-200,-339,319,19,-229,273,346,527,614,531
732,517,-214,-624,473,151,-536,185,492,893,1068,951
971,810,-161,-890,566,324,-795,82,644,1288,1507,1346
1180,956,-224,-1068,702,366,-951,14,790,1639,1873,1668
1332,961,-370,-1146,851,295,-995,-24,932,1976,2191,1908
1337,893,-444,-1115,890,224,-966,-107,888,2030,2230,1917
1132,727,-405,-929,768,161,-810,-195,727,1854,2054,1766
917,444,-473,-680,695,-14,-600,-146,541,1498,1688,1449
634,161,-473,-397,553,-156,-375,-102,234,805,976,868
336,-43,-380,-146,358,-212,-190,-92,-39,239,331,322
92,-92,-185,0,139,-139,-24,-58,-58,78,107,102
-14,-102,-87,58,36,-95,48,-43,-68,14,29,19
-24,-87,-63,56,19,-75,48,-19,-29,0,14,9
-34,-48,-14,41,-9,-31,24,-4,-14,-19,-4,-4
-39,-53,-14,46,-12,-34,29,-4,-14,-24,-24,-19
-48,-78,-29,63,-9,-53,34,-4,-34,-53,-48,-43
-73,-92,-19,82,-26,-56,53,-14,-68,-87,-87,-73
-92,-92,0,92,-46,-46,63,-24,-87,-122,-122,-102
-97,-97,0,97,-48,-48,63,-24,-87,-126,-126,-102
-102,-107,-4,104,-48,-56,63,-24,-87,-126,-131,-112
-112,-107,4,109,-58,-51,68,-24,-92,-141,-146,-131
-122,-107,14,114,-68,-46,73,-24,-97,-151,-156,-146
-126,-102,24,114,-75,-39,73,-24,-97,-151,-156,-146
-131,-102,29,117,-80,-36,73,-14,-92,-151,-156,-141
-131,-102,29,117,-80,-36,78,-9,-92,-146,-151,-141
-126,-102,24,114,-75,-39,78,-4,-87,-146,-151,-141
-122,-107,14,114,-68,-46,78,-4,-87,-146,-151,-136
-117,-107,9,112,-63,-48,78,4,-82,-141,-151,-131
-112,-107,4,109,-58,-51,78,9,-73,-136,-146,-126
-112,-102,9,107,-61,-46,78,14,-63,-131,-141,-126
-107,-102,4,104,-56,-48,78,24,-58,-126,-136,-122
-102,-97,4,100,-53,-46,78,29,-53,-122,-136,-122
-102,-97,4,100,-53,-46,78,29,-39,-112,-126,-117
-97,-92,4,95,-51,-43,78,43,-29,-107,-122,-112
-97,-92,4,95,-51,-43,78,48,-19,-102,-117,-112
-92,-87,4,90,-48,-41,78,58,-9,-92,-112,-107
-92,-82,9,87,-51,-36,78,68,0,-87,-107,-102
-87,-82,4,85,-46,-39,78,73,4,-78,-102,-102
-82,-78,4,80,-43,-36,78,82,14,-68,-97,-102
-78,-73,4,75,-41,-34,82,97,29,-53,-97,-102
-78,-73,4,75,-41,-34,82,112,43,-48,-87,-97
-73,-68,4,70,-39,-31,87,126,63,-39,-82,-92
-68,-53,14,61,-41,-19,87,136,78,-29,-73,-87
-58,-48,9,53,-34,-19,92,156,87,-14,-63,-78
-53,-39,14,46,-34,-12,97,180,112,-4,-58,-68
-48,-34,14,41,-31,-9,102,195,136,9,-48,-68
-43,-29,14,36,-29,-7,102,214,151,29,-43,-63
-39,-29,9,34,-24,-9,107,234,170,39,-34,-58
-34,-24,9,29,-21,-7,112,253,190,48,-24,-48
-29,-14,14,21,-21,0,117,278,214,58,-14,-43
-19,-9,9,14,-14,0,131,302,239,73,-9,-39
-19,0,19,9,-19,9,141,326,263,92,4,-34
-9,0,9,4,-9,4,146,351,287,112,14,-24
-4,0,4,2,-4,2,151,370,307,126,24,-19
-4,4,9,0,-7,7,151,390,331,146,34,-9
-4,9,14,-2,-9,12,156,409,356,156,43,-9
0,24,24,-12,-12,24,161,429,375,170,58,-4
9,34,24,-21,-7,29,165,439,395,185,68,0
9,39,29,-24,-9,34,170,448,419,195,78,9
14,43,29,-29,-7,36,170,458,434,209,82,14
24,48,24,-36,0,36,170,468,444,224,92,24
29,53,24,-41,2,39,170,468,458,229,102,34
34,58,24,-46,4,41,165,468,468,239,112,39
39,63,24,-51,7,43,151,453,473,253,122,48
39,68,29,-53,4,48,141,434,473,263,131,58
39,73,34,-56,2,53,131,400,458,263,141,63
39,78,39,-58,0,58,117,370,444,263,141,73
34,78,43,-56,-4,61,107,336,414,258,146,73
34,78,43,-56,-4,61,92,297,375,239,146,73
24,73,48,-48,-12,61,78,248,341,214,136,73
19,63,43,-41,-12,53,63,214,302,185,117,63
9,53,43,-31,-17,48,53,175,248,161,102,53
4,53,48,-29,-21,51,43,136,209,141,82,48
0,43,43,-21,-21,43,34,97,165,117,68,39
-4,39,43,-17,-24,41,24,63,131,82,43,24
-14,24,39,-4,-26,31,9,29,92,48,24,14
-29,14,43,7,-36,29,9,4,53,24,9,-4
-43,0,43,21,-43,21,9,-14,19,0,-14,-14
-48,-9,39,29,-43,14,0,-34,-9,-24,-29,-29
-48,-19,29,34,-39,4,-4,-48,-34,-53,-48,-39
-48,-24,24,36,-36,0,-4,-53,-58,-68,-58,-48
-53,-34,19,43,-36,-7,-4,-63,-68,-78,-68,-58
-53,-34,19,43,-36,-7,-4,-82,-78,-87,-78,-63
-58,-43,14,51,-36,-14,-4,-92,-87,-102,-87,-63
-63,-48,14,56,-39,-17,-9,-97,-97,-112,-92,-78
-68,-53,14,61,-41,-19,-9,-97,-97,-117,-92,-78
-68,-53,14,61,-41,-19,-9,-102,-107,-122,-97,-78
-68,-58,9,63,-39,-24,-9,-107,-112,-126,-102,-78
-73,-58,14,65,-43,-21,-4,-107,-112,-122,-102,-82
-73,-58,14,65,-43,-21,0,-102,-112,-117,-107,-87
-73,-58,14,65,-43,-21,0,-102,-112,-122,-107,-87
-73,-58,14,65,-43,-21,0,-102,-117,-122,-107,-87
-73,-58,14,65,-43,-21,-4,-102,-117,-122,-107,-92
-73,-58,14,65,-43,-21,-9,-102,-117,-122,-107,-92
-73,-58,14,65,-43,-21,-9,-92,-112,-122,-107,-92
-73,-58,14,65,-43,-21,-9,-87,-107,-117,-107,-92
-73,-58,14,65,-43,-21,-9,-87,-107,-117,-107,-92
-73,-58,14,65,-43,-21,-4,-87,-107,-117,-107,-92
-73,-63,9,68,-41,-26,-4,-87,-112,-117,-102,-92
-73,-73,0,73,-36,-36,-4,-87,-112,-117,-102,-87
-73,-73,0,73,-36,-36,0,-82,-117,-117,-97,-82
-73,-68,4,70,-39,-31,0,-82,-117,-117,-97,-78
-73,-68,4,70,-39,-31,0,-87,-117,-117,-102,-78
-73,-68,4,70,-39,-31,4,-87,-117,-117,-102,-78
-73,-68,4,70,-39,-31,4,-82,-112,-117,-102,-78
-73,-63,9,68,-41,-26,4,-82,-107,-117,-102,-78
-73,-63,9,68,-41,-26,4,-82,-107,-117,-102,-78
-73,-63,9,68,-41,-26,4,-82,-107,-117,-102,-78
-73,-63,9,68,-41,-26,0,-82,-107,-117,-107,-78
-73,-68,4,70,-39,-31,-4,-82,-107,-117,-107,-78
-78,-68,9,73,-43,-29,-4,-82,-107,-117,-107,-78
-82,-68,14,75,-48,-26,-4,-82,-112,-117,-102,-78
-82,-63,19,73,-51,-21,-4,-82,-112,-117,-102,-82
-82,-58,24,70,-53,-17,-4,-87,-112,-117,-102,-87
-78,-58,19,68,-48,-19,-4,-87,-112,-117,-107,-87
-78,-63,14,70,-46,-24,-4,-87,-112,-117,-107,-87
-78,-63,14,70,-46,-24,-4,-87,-112,-122,-107,-87
-78,-63,14,70,-46,-24,-4,-87,-117,-122,-107,-87
-78,-63,14,70,-46,-24,-4,-87,-117,-126,-112,-87
-78,-68,9,73,-43,-29,-4,-92,-122,-131,-112,-87
-78,-73,4,75,-41,-34,-4,-92,-122,-131,-117,-92
-78,-73,4,75,-41,-34,-4,-92,-126,-131,-117,-92
-78,-68,9,73,-43,-29,0,-92,-131,-131,-117,-92
-82,-68,14,75,-48,-26,0,-97,-131,-136,-122,-92
-82,-63,19,73,-51,-21,0,-97,-136,-141,-122,-97
-82,-58,24,70,-53,-17,-4,-97,-141,-141,-126,-97
-82,-63,19,73,-51,-21,-4,-97,-141,-146,-126,-107
-82,-63,19,73,-51,-21,-4,-102,-146,-146,-126,-112
-87,-68,19,78,-53,-24,-4,-107,-141,-146,-126,-112
-87,-73,14,80,-51,-29,-4,-112,-141,-146,-131,-112
-87,-73,14,80,-51,-29,-4,-112,-146,-151,-131,-112
-87,-73,14,80,-51,-29,-4,-112,-146,-151,-136,-112
-87,-73,14,80,-51,-29,-4,-112,-146,-151,-136,-117
-87,-73,14,80,-51,-29,-4,-112,-151,-151,-136,-117
-87,-73,14,80,-51,-29,-4,-117,-151,-156,-136,-117
-87,-73,14,80,-51,-29,-4,-117,-151,-156,-141,-117
-87,-68,19,78,-53,-24,0,-117,-151,-161,-141,-112
-87,-68,19,78,-53,-24,0,-117,-156,-165,-146,-112
-87,-68,19,78,-53,-24,0,-117,-156,-165,-146,-112
-87,-68,19,78,-53,-24,0,-117,-156,-165,-146,-117
-82,-68,14,75,-48,-26,0,-117,-156,-165,-146,-117
-78,-68,9,73,-43,-29,0,-117,-156,-165,-146,-117
-78,-63,14,70,-46,-24,0,-112,-156,-165,-146,-117
-73,-48,24,61,-48,-12,-9,-112,-146,-161,-136,-112
-68,-39,29,53,-48,-4,-19,-112,-141,-156,-131,-107
-63,-9,53,36,-58,21,-19,-112,-131,-136,-112,-92
-53,4,58,24,-56,31,-14,-107,-117,-122,-102,-82
-43,19,63,12,-53,41,-9,-102,-107,-107,-87,-73
-43,29,73,7,-58,51,-9,-92,-92,-97,-82,-68
-39,34,73,2,-56,53,-9,-92,-92,-92,-82,-63
-39,34,73,2,-56,53,-14,-92,-87,-92,-82,-63
-39,34,73,2,-56,53,-29,-97,-82,-97,-87,-63
-19,48,68,-14,-43,58,-43,-97,-78,-87,-78,-53
0,58,58,-29,-29,58,-63,-102,-73,-78,-63,-43
9,58,48,-34,-19,53,-73,-102,-73,-73,-58,-34
14,53,39,-34,-12,46,-82,-102,-78,-73,-58,-29
14,58,43,-36,-14,51,-92,-112,-82,-73,-58,-34
29,63,34,-46,-2,48,-92,-117,-92,-78,-53,-29
34,73,39,-53,-2,56,-97,-117,-102,-92,-53,-29
53,82,29,-68,12,56,-102,-117,-112,-92,-53,-24
53,78,24,-65,14,51,-97,-117,-117,-97,-58,-24
39,68,29,-53,4,48,-87,-122,-131,-112,-68,-34
4,53,48,-29,-21,51,-78,-126,-131,-112,-73,-39
-29,29,58,0,-43,43,-63,-131,-136,-122,-87,-48
-58,4,63,26,-61,34,-39,-131,-136,-131,-107,-68
-73,-29,43,51,-58,7,-24,-126,-136,-136,-117,-82
-82,-39,43,61,-63,2,-14,-126,-151,-146,-136,-97
-87,-58,29,73,-58,-14,-9,-126,-156,-161,-146,-107
-97,-73,24,85,-61,-24,-4,-131,-170,-180,-161,-126
-97,-92,4,95,-51,-43,-4,-141,-190,-204,-180,-141
-102,-92,9,97,-56,-41,-4,-146,-195,-209,-185,-141
-122,-92,29,107,-75,-31,-4,-146,-200,-209,-185,-141
-122,-92,29,107,-75,-31,0,-146,-204,-209,-185,-146
-122,-92,29,107,-75,-31,0,-151,-204,-214,-195,-146
-117,-97,19,107,-68,-39,0,-151,-204,-214,-195,-151
-117,-97,19,107,-68,-39,4,-151,-204,-214,-195,-151
-122,-107,14,114,-68,-46,9,-151,-204,-214,-195,-156
-122,-107,14,114,-68,-46,14,-146,-204,-214,-195,-156
-126,-107,19,117,-73,-43,19,-146,-209,-219,-200,-156
-126,-107,19,117,-73,-43,19,-146,-214,-219,-200,-161
-131,-112,19,122,-75,-46,14,-146,-214,-219,-200,-156
-141,-117,24,129,-82,-46,24,-141,-214,-229,-214,-161
-170,-122,48,146,-109,-36,53,-141,-204,-244,-244,-195
-214,-136,78,175,-146,-29,107,-126,-185,-253,-287,-244
-253,-141,112,197,-183,-14,151,-136,-175,-278,-312,-278
-263,-156,107,209,-185,-24,180,-107,-170,-283,-326,-287
-190,-180,9,185,-100,-85,204,58,-102,-219,-258,-239
-34,-151,-117,92,41,-134,161,214,14,-58,-78,-87
200,0,-200,-100,200,-100,19,297,200,200,204,165
458,229,-229,-344,344,0,-209,302,370,497,546,483
766,541,-224,-653,495,158,-556,204,522,863,1000,902
1005,810,-195,-907,600,307,-819,107,658,1220,1400,1259
1239,951,-287,-1095,763,331,-980,34,814,1571,1771,1586
1381,971,-409,-1176,895,280,-1029,-14,927,1844,2034,1790
1366,902,-463,-1134,915,219,-1005,-151,844,1878,2074,1810
1190,741,-448,-966,819,146,-863,-239,692,1712,1917,1678
966,434,-531,-700,749,-48,-619,-146,492,1322,1532,1346
683,185,-497,-434,590,-156,-400,-112,219,741,936,858
331,-24,-356,-153,344,-190,-190,-112,-53,185,278,278
82,-102,-185,9,134,-143,-19,-78,-87,4,39,43
4,-102,-107,48,56,-104,34,-63,-82,-19,9,14
-19,-87,-68,53,24,-78,48,-39,-48,-24,-4,4
-24,-48,-24,36,0,-36,24,-24,-34,-29,-14,-4
-29,-48,-19,39,-4,-34,24,-24,-34,-34,-34,-19
-43,-73,-29,58,-7,-51,24,-24,-53,-63,-58,-48
-73,-92,-19,82,-26,-56,43,-29,-78,-97,-97,-82
-97,-92,4,95,-51,-43,58,-34,-87,-131,-131,-112
-107,-97,9,102,-58,-43,63,-34,-87,-136,-136,-112
-112,-107,4,109,-58,-51,63,-34,-92,-136,-141,-122
-117,-107,9,112,-63,-48,68,-34,-102,-146,-151,-131
-122,-107,14,114,-68,-46,68,-34,-107,-146,-156,-136
-122,-102,19,112,-70,-41,63,-34,-107,-141,-156,-136
-122,-102,19,112,-70,-41,63,-19,-102,-141,-156,-131
-122,-102,19,112,-70,-41,68,-9,-102,-136,-151,-131
-117,-102,14,109,-65,-43,68,-4,-97,-141,-151,-131
-117,-102,14,109,-65,-43,68,-4,-97,-146,-151,-131
-117,-92,24,104,-70,-34,73,4,-92,-141,-151,-131
-112,-87,24,100,-68,-31,78,9,-82,-136,-146,-126
-112,-82,29,97,-70,-26,78,14,-73,-131,-141,-126
-107,-82,24,95,-65,-29,78,24,-68,-126,-136,-122
-102,-78,24,90,-63,-26,78,29,-63,-122,-136,-122
-102,-78,24,90,-63,-26,78,29,-53,-112,-126,-117
-97,-78,19,87,-58,-29,78,43,-48,-107,-122,-112
-97,-82,14,90,-56,-34,78,48,-39,-102,-117,-112
-92,-78,14,85,-53,-31,78,58,-29,-92,-112,-107
-92,-73,19,82,-56,-26,78,68,-14,-87,-107,-102
-87,-73,14,80,-51,-29,78,73,-4,-82,-107,-102
-82,-68,14,75,-48,-26,78,82,4,-78,-102,-97
-78,-58,19,68,-48,-19,82,97,14,-63,-97,-92
-78,-53,24,65,-51,-14,82,112,24,-58,-87,-87
-73,-48,24,61,-48,-12,82,126,43,-43,-82,-82
-68,-39,29,53,-48,-4,78,136,58,-29,-73,-78
-58,-39,19,48,-39,-9,82,156,68,-14,-63,-73
-53,-29,24,41,-39,-2,87,180,92,-4,-58,-68
-48,-24,24,36,-36,0,97,195,117,9,-48,-68
-43,-19,24,31,-34,2,102,214,131,29,-43,-63
-39,-19,19,29,-29,0,107,239,151,39,-34,-58
-34,-14,19,24,-26,2,112,263,170,53,-24,-48
-19,-4,14,12,-17,4,117,287,195,63,-14,-43
0,0,0,0,0,0,126,307,219,73,-9,-39
-9,9,19,0,-14,14,131,326,244,92,4,-34
-9,14,24,-2,-17,19,136,351,268,107,14,-24
-4,19,24,-7,-14,21,141,370,287,117,24,-19
0,24,24,-12,-12,24,141,390,312,136,34,-9
9,24,14,-17,-2,19,146,414,336,141,39,-9
19,29,9,-24,4,19,151,439,356,151,43,-4
29,34,4,-31,12,19,156,448,375,165,48,0
29,39,9,-34,9,24,161,458,400,175,58,9
34,48,14,-41,9,31,161,473,419,190,63,14
39,58,19,-48,9,39,161,488,434,204,73,24
39,63,24,-51,7,43,161,488,448,209,82,34
43,73,29,-58,7,51,156,483,453,219,92,39
48,82,34,-65,7,58,141,463,453,234,102,48
48,87,39,-68,4,63,131,444,453,244,112,58
48,92,43,-70,2,68,122,409,444,248,126,63
48,97,48,-73,0,73,107,380,434,253,131,73
43,102,58,-73,-7,80,97,346,405,253,136,73
43,107,63,-75,-9,85,82,307,366,239,136,73
34,102,68,-68,-17,85,68,253,336,214,136,78
29,92,63,-61,-17,78,53,214,302,185,126,73
19,78,58,-48,-19,68,43,175,248,161,102,63
9,68,58,-39,-24,63,34,136,209,136,73,53
0,53,53,-26,-26,53,24,92,165,107,58,39
-4,48,53,-21,-29,51,19,58,131,73,34,24
-14,34,48,-9,-31,41,9,29,92,39,14,14
-24,24,48,0,-36,36,9,4,53,14,0,-4
-39,9,48,14,-43,29,4,-19,19,-9,-24,-14
-48,0,48,24,-48,24,-4,-43,-4,-29,-39,-29
-48,-9,39,29,-43,14,-4,-58,-24,-53,-58,-39
-53,-14,39,34,-46,12,-4,-63,-48,-68,-68,-48
-63,-24,39,43,-51,7,-4,-73,-68,-78,-78,-63
-63,-24,39,43,-51,7,-4,-82,-87,-87,-87,-73
-68,-34,34,51,-51,0,-4,-87,-97,-107,-97,-73
-68,-34,34,51,-51,0,-9,-97,-107,-117,-102,-87
-68,-34,34,51,-51,0,-9,-97,-107,-117,-102,-87
-68,-34,34,51,-51,0,-9,-102,-117,-122,-107,-87
-68,-39,29,53,-48,-4,-9,-107,-122,-126,-112,-87
-73,-39,34,56,-53,-2,-9,-107,-122,-126,-112,-87
-73,-39,34,56,-53,-2,-9,-102,-122,-126,-117,-87
-73,-39,34,56,-53,-2,-9,-102,-122,-131,-117,-87
-73,-39,34,56,-53,-2,-9,-102,-126,-131,-117,-87
-73,-39,34,56,-53,-2,-9,-102,-126,-131,-117,-92
-73,-39,34,56,-53,-2,-9,-102,-126,-131,-117,-92
-73,-39,34,56,-53,-2,-9,-97,-122,-131,-117,-92
-73,-43,29,58,-51,-7,-9,-97,-117,-126,-117,-92
-73,-48,24,61,-48,-12,-9,-97,-117,-126,-117,-92
-73,-48,24,61,-48,-12,-4,-97,-117,-122,-117,-92
-73,-48,24,61,-48,-12,-4,-97,-122,-117,-112,-92
-73,-48,24,61,-48,-12,-4,-97,-117,-117,-112,-87
-73,-43,29,58,-51,-7,-4,-92,-112,-117,-107,-87
-73,-39,34,56,-53,-2,-9,-92,-107,-122,-112,-87
-73,-39,34,56,-53,-2,-9,-97,-107,-126,-122,-87
-73,-39,34,56,-53,-2,-4,-97,-112,-126,-122,-92
-73,-43,29,58,-51,-7,-4,-92,-117,-126,-122,-97
-73,-43,29,58,-51,-7,-4,-92,-117,-126,-122,-97
-73,-43,29,58,-51,-7,-4,-92,-117,-126,-122,-97
-73,-43,29,58,-51,-7,-4,-92,-117,-126,-117,-92
-73,-39,34,56,-53,-2,-4,-92,-117,-126,-117,-87
-73,-43,29,58,-51,-7,-4,-92,-117,-126,-117,-87
-73,-48,24,61,-48,-12,-4,-92,-117,-126,-117,-87
-73,-48,24,61,-48,-12,-4,-92,-122,-126,-112,-87
-73,-48,24,61,-48,-12,-4,-92,-122,-126,-112,-87
-73,-48,24,61,-48,-12,-4,-97,-122,-126,-112,-87
-73,-48,24,61,-48,-12,-4,-97,-122,-126,-117,-87
-78,-53,24,65,-51,-14,-4,-97,-122,-131,-126,-87
-78,-53,24,65,-51,-14,-4,-97,-122,-141,-136,-92
-78,-43,34,61,-56,-4,-4,-97,-126,-141,-136,-97
-78,-34,43,56,-61,4,-4,-97,-126,-146,-141,-97
-78,-39,39,58,-58,0,-4,-102,-131,-146,-136,-97
-78,-43,34,61,-56,-4,-4,-102,-131,-141,-136,-102
-78,-48,29,63,-53,-9,-4,-102,-136,-141,-136,-102
-78,-48,29,63,-53,-9,0,-102,-141,-141,-136,-102
-78,-48,29,63,-53,-9,0,-107,-141,-146,-141,-102
-73,-48,24,61,-48,-12,0,-107,-141,-151,-141,-107
-73,-48,24,61,-48,-12,-4,-107,-141,-151,-146,-107
-73,-53,19,63,-46,-17,-4,-107,-141,-156,-146,-112
-78,-53,24,65,-51,-14,-4,-112,-146,-156,-146,-112
-87,-53,34,70,-61,-9,-4,-112,-146,-156,-146,-112
-87,-53,34,70,-61,-9,-4,-112,-146,-156,-146,-112
-87,-53,34,70,-61,-9,-4,-112,-146,-161,-141,-112
-87,-58,29,73,-58,-14,-4,-112,-146,-161,-146,-112
-87,-63,24,75,-56,-19,-4,-112,-146,-161,-146,-117
-87,-63,24,75,-56,-19,-4,-107,-156,-161,-151,-122
-87,-63,24,75,-56,-19,-4,-107,-161,-165,-156,-126
-87,-58,29,73,-58,-14,-4,-107,-161,-165,-161,-126
-92,-58,34,75,-63,-12,-4,-107,-161,-170,-161,-126
-87,-58,29,73,-58,-14,0,-112,-161,-170,-161,-131
-87,-58,29,73,-58,-14,0,-117,-165,-175,-165,-136
-87,-58,29,73,-58,-14,0,-117,-165,-175,-165,-136
-87,-58,29,73,-58,-14,0,-117,-165,-175,-165,-136
-82,-58,24,70,-53,-17,0,-117,-165,-175,-161,-126
-78,-48,29,63,-53,-9,0,-117,-165,-170,-156,-122
-78,-43,34,61,-56,-4,-4,-122,-165,-170,-156,-117
-68,-29,39,48,-53,4,-19,-122,-151,-156,-146,-107
-63,0,63,31,-63,31,-19,-122,-136,-136,-131,-97
-53,14,68,19,-61,41,-14,-117,-117,-126,-122,-92
-43,29,73,7,-58,51,-9,-112,-107,-117,-112,-82
-43,39,82,2,-63,61,-9,-102,-92,-107,-112,-78
-39,43,82,-2,-61,63,-9,-97,-92,-107,-112,-73
-39,43,82,-2,-61,63,-14,-92,-87,-107,-107,-73
-39,43,82,-2,-61,63,-24,-97,-82,-107,-102,-73
-19,58,78,-19,-48,68,-34,-97,-78,-97,-87,-63
0,68,68,-34,-34,68,-53,-102,-73,-87,-73,-48
9,73,63,-41,-26,68,-63,-102,-73,-82,-68,-34
14,73,58,-43,-21,65,-73,-102,-78,-82,-68,-29
14,78,63,-46,-24,70,-82,-112,-82,-82,-68,-29
29,82,53,-56,-12,68,-87,-117,-92,-87,-63,-19
29,82,53,-56,-12,68,-92,-117,-102,-102,-63,-19
43,82,39,-63,2,61,-92,-117,-112,-102,-63,-24
43,78,34,-61,4,56,-87,-117,-117,-107,-68,-34
29,68,39,-48,-4,53,-78,-122,-131,-122,-82,-43
0,58,58,-29,-29,58,-68,-126,-131,-122,-92,-53
-29,39,68,-4,-48,53,-53,-131,-146,-131,-107,-68
-58,14,73,21,-65,43,-29,-131,-161,-146,-126,-87
-73,-19,53,46,-63,17,-14,-126,-156,-151,-136,-102
-82,-29,53,56,-68,12,-9,-126,-161,-156,-156,-117
-87,-48,39,68,-63,-4,-9,-126,-165,-170,-165,-126
-97,-63,34,80,-65,-14,-4,-131,-180,-190,-180,-146
-97,-82,14,90,-56,-34,-4,-141,-200,-219,-200,-161
-97,-82,14,90,-56,-34,-4,-141,-200,-224,-204,-161
-112,-82,29,97,-70,-26,-4,-136,-204,-219,-204,-156
-112,-82,29,97,-70,-26,0,-136,-214,-219,-204,-156
-112,-82,29,97,-70,-26,0,-141,-214,-224,-214,-156
-112,-87,24,100,-68,-31,0,-141,-214,-224,-214,-161
-117,-87,29,102,-73,-29,4,-141,-214,-224,-214,-161
-122,-97,24,109,-73,-36,9,-141,-214,-224,-214,-165
-122,-97,24,109,-73,-36,14,-136,-214,-224,-214,-165
-126,-97,29,112,-78,-34,19,-136,-214,-229,-219,-165
-126,-97,29,112,-78,-34,19,-136,-209,-229,-219,-175
-131,-102,29,117,-80,-36,19,-136,-204,-229,-219,-180
-141,-107,34,124,-87,-36,34,-126,-204,-234,-234,-190
-170,-112,58,141,-114,-26,63,-117,-190,-244,-263,-224
-214,-126,87,170,-151,-19,117,-97,-161,-248,-297,-263
-229,-126,102,178,-165,-12,151,-82,-131,-244,-287,-263
-209,-131,78,170,-143,-26,170,-29,-107,-209,-263,-239
-112,-126,-14,119,-48,-70,170,112,-4,-82,-131,-131
63,-73,-136,4,100,-104,102,244,141,126,102,78
287,102,-185,-195,236,-41,-63,287,302,405,434,375
536,356,-180,-446,358,87,-317,244,448,732,829,732
819,644,-175,-732,497,234,-624,126,590,1107,1293,1156
1029,888,-141,-958,585,373,-849,9,707,1449,1693,1512
1210,985,-224,-1098,717,380,-971,-73,819,1747,2020,1795
1293,961,-331,-1127,812,314,-971,-122,893,1966,2215,1942
1229,863,-366,-1046,797,248,-897,-214,780,1903,2132,1859
1015,668,-346,-841,680,161,-712,-248,595,1639,1854,1625
790,356,-434,-573,612,-39,-473,-146,385,1195,1385,1224
507,97,-409,-302,458,-156,-263,-112,112,575,732,668
209,-82,-292,-63,251,-187,-92,-112,-126,82,146,146
24,-122,-146,48,85,-134,34,-73,-122,-29,-9,-4
-24,-122,-97,73,36,-109,68,-53,-107,-43,-19,-19
-29,-97,-68,63,19,-82,63,-29,-63,-34,-19,-19
-34,-48,-14,41,-9,-31,34,-14,-43,-29,-24,-24
-39,-48,-9,43,-14,-29,34,-24,-43,-34,-43,-34
-48,-68,-19,58,-14,-43,34,-34,-63,-63,-68,-53
-73,-82,-9,78,-31,-46,53,-29,-87,-97,-107,-82
-92,-82,9,87,-51,-36,63,-24,-97,-131,-141,-112
-97,-82,14,90,-56,-34,63,-24,-97,-141,-146,-117
-102,-87,14,95,-58,-36,63,-24,-97,-146,-151,-131
-107,-87,19,97,-63,-34,68,-19,-97,-156,-161,-141
-112,-87,24,100,-68,-31,73,-14,-97,-161,-165,-146
-112,-87,24,100,-68,-31,73,-14,-97,-156,-165,-146
-112,-92,19,102,-65,-36,73,-4,-92,-151,-165,-141
-112,-92,19,102,-65,-36,78,-4,-92,-146,-161,-141
-107,-92,14,100,-61,-39,78,-4,-87,-146,-161,-141
-102,-92,9,97,-56,-41,73,-4,-92,-146,-161,-141
-97,-87,9,92,-53,-39,68,4,-92,-141,-161,-141
-92,-87,4,90,-48,-41,68,9,-82,-136,-156,-136
-92,-82,9,87,-51,-36,68,14,-73,-131,-151,-136
-87,-82,4,85,-46,-39,68,24,-68,-126,-146,-131
-82,-78,4,80,-43,-36,68,29,-63,-122,-146,-131
-82,-78,4,80,-43,-36,68,29,-53,-112,-131,-122
-78,-73,4,75,-41,-34,68,43,-48,-107,-122,-112
-82,-73,9,78,-46,-31,68,48,-39,-102,-117,-112
-82,-68,14,75,-48,-26,68,58,-29,-92,-112,-107
-82,-63,19,73,-51,-21,68,68,-14,-87,-112,-102
-78,-63,14,70,-46,-24,68,73,-4,-78,-112,-102
-73,-63,9,68,-41,-26,68,82,9,-68,-102,-102
-68,-63,4,65,-36,-29,73,97,29,-53,-97,-102
-68,-63,4,65,-36,-29,73,112,43,-48,-87,-97
-63,-58,4,61,-34,-26,78,126,63,-39,-82,-92
-58,-48,9,53,-34,-19,82,136,78,-29,-68,-82
-48,-48,0,48,-24,-24,92,156,87,-14,-53,-68
-43,-39,4,41,-24,-17,97,180,107,-4,-48,-58
-39,-34,4,36,-21,-14,102,195,126,9,-39,-58
-34,-29,4,31,-19,-12,97,214,141,29,-39,-58
-29,-29,0,29,-14,-14,97,234,161,39,-34,-58
-24,-24,0,24,-12,-12,102,248,185,58,-24,-48
-19,-14,4,17,-12,-4,107,268,214,78,-14,-43
-9,-9,0,9,-4,-4,117,287,239,92,-4,-34
-9,0,9,4,-9,4,122,307,263,112,14,-24
0,4,4,-2,-2,4,126,331,287,126,24,-14
4,9,4,-7,0,7,131,351,307,136,34,-9
14,14,0,-14,7,7,131,370,331,156,43,0
24,19,-4,-21,14,7,136,390,356,165,53,0
29,29,0,-29,14,14,136,409,375,180,63,4
39,34,-4,-36,21,14,136,419,395,195,68,9
39,39,0,-39,19,19,141,429,419,204,78,14
43,43,0,-43,21,21,141,439,434,219,82,14
48,48,0,-48,24,24,141,448,444,229,87,24
48,53,4,-51,21,29,141,448,458,229,92,34
53,63,9,-58,21,36,136,444,458,239,102,39
58,73,14,-65,21,43,122,424,453,253,112,48
58,78,19,-68,19,48,117,405,453,263,126,63
58,82,24,-70,17,53,112,370,439,263,141,73
58,87,29,-73,14,58,97,341,424,263,141,82
53,87,34,-70,9,61,87,307,395,258,146,82
48,87,39,-68,4,63,73,268,356,244,146,82
34,82,48,-58,-7,65,58,219,322,224,136,82
29,73,43,-51,-7,58,43,190,283,195,117,73
19,63,43,-41,-12,53,34,156,229,170,102,63
9,58,48,-34,-19,53,24,117,190,146,82,53
0,43,43,-21,-21,43,14,78,146,117,68,39
-4,39,43,-17,-24,41,9,48,112,82,43,24
-14,24,39,-4,-26,31,0,19,73,48,24,14
-24,14,39,4,-31,26,0,-4,39,24,14,0
-34,0,34,17,-34,17,0,-24,9,0,-4,-4
-39,-9,29,24,-34,9,0,-39,-14,-19,-19,-19
-39,-19,19,29,-29,0,4,-48,-34,-43,-39,-29
-43,-24,19,34,-31,-2,4,-53,-53,-58,-53,-43
-53,-34,19,43,-36,-7,4,-63,-58,-68,-68,-58
-58,-34,24,46,-41,-4,4,-73,-68,-82,-78,-63
-68,-43,24,56,-46,-9,4,-73,-78,-102,-87,-63
-68,-39,29,53,-48,-4,0,-82,-92,-107,-92,-82
-68,-34,34,51,-51,0,0,-87,-97,-107,-92,-87
-63,-34,29,48,-46,-2,0,-92,-107,-112,-97,-87
-58,-39,19,48,-39,-9,0,-97,-112,-117,-102,-87
-63,-48,14,56,-39,-17,0,-97,-112,-117,-97,-82
-63,-58,4,61,-34,-26,0,-92,-112,-117,-97,-78
-63,-48,14,56,-39,-17,0,-92,-112,-122,-97,-78
-63,-39,24,51,-43,-7,0,-92,-117,-122,-97,-78
-63,-39,24,51,-43,-7,0,-87,-117,-122,-97,-82
-63,-39,24,51,-43,-7,0,-82,-117,-122,-97,-82
-63,-39,24,51,-43,-7,0,-78,-112,-122,-102,-82
-63,-39,24,51,-43,-7,0,-78,-107,-117,-107,-82
-63,-39,24,51,-43,-7,-4,-82,-107,-112,-107,-82
-63,-39,24,51,-43,-7,-4,-87,-107,-107,-107,-82
-63,-39,24,51,-43,-7,-4,-87,-112,-107,-97,-82
-63,-43,19,53,-41,-12,-4,-87,-112,-107,-92,-78
-63,-43,19,53,-41,-12,0,-82,-112,-107,-87,-78
-63,-39,24,51,-43,-7,0,-82,-107,-107,-87,-78
-63,-43,19,53,-41,-12,0,-87,-107,-107,-92,-78
-63,-48,14,56,-39,-17,4,-87,-107,-107,-92,-78
-63,-53,9,58,-36,-21,4,-82,-107,-107,-92,-78
-63,-53,9,58,-36,-21,4,-82,-107,-107,-92,-78
-63,-53,9,58,-36,-21,0,-82,-107,-112,-92,-78
-63,-53,9,58,-36,-21,-4,-82,-107,-117,-92,-78
-63,-43,19,53,-41,-12,-4,-82,-112,-117,-102,-78
-63,-39,24,51,-43,-7,-4,-82,-117,-117,-107,-78
-63,-39,24,51,-43,-7,-4,-78,-117,-117,-107,-78
-63,-39,24,51,-43,-7,-4,-73,-122,-117,-102,-78
-63,-39,24,51,-43,-7,-4,-73,-122,-117,-102,-78
-63,-39,24,51,-43,-7,-4,-78,-122,-117,-102,-78
-63,-39,24,51,-43,-7,-4,-82,-122,-117,-107,-78
-68,-43,24,56,-46,-9,-4,-87,-122,-117,-107,-78
-68,-43,24,56,-46,-9,-4,-87,-117,-117,-102,-82
-68,-43,24,56,-46,-9,-4,-87,-117,-112,-97,-87
-68,-43,24,56,-46,-9,-4,-87,-117,-117,-102,-87
-68,-48,19,58,-43,-14,-4,-92,-122,-122,-102,-87
-68,-53,14,61,-41,-19,-4,-92,-126,-126,-112,-92
-68,-53,14,61,-41,-19,-4,-92,-136,-131,-117,-92
-68,-48,19,58,-43,-14,0,-92,-141,-131,-122,-97
-73,-48,24,61,-48,-12,0,-97,-141,-136,-131,-102
-73,-48,24,61,-48,-12,0,-97,-141,-141,-131,-107
-73,-48,24,61,-48,-12,-4,-97,-141,-141,-136,-107
-68,-53,14,61,-41,-19,-4,-97,-141,-146,-131,-107
-63,-53,9,58,-36,-21,-4,-102,-146,-146,-126,-102
-68,-53,14,61,-41,-19,-4,-102,-146,-146,-126,-102
-68,-53,14,61,-41,-19,-4,-102,-151,-146,-131,-102
-73,-53,19,63,-46,-17,-4,-102,-156,-151,-131,-102
-78,-53,24,65,-51,-14,-4,-102,-156,-151,-136,-102
-78,-53,24,65,-51,-14,-4,-102,-156,-151,-136,-112
-78,-53,24,65,-51,-14,-4,-102,-161,-151,-136,-117
-78,-53,24,65,-51,-14,-4,-107,-161,-156,-136,-117
-78,-53,24,65,-51,-14,-4,-107,-161,-156,-141,-117
-78,-48,29,63,-53,-9,0,-107,-161,-161,-141,-122
-78,-48,29,63,-53,-9,0,-107,-165,-165,-146,-126
-78,-48,29,63,-53,-9,0,-107,-165,-165,-151,-126
-78,-48,29,63,-53,-9,0,-107,-165,-165,-156,-126
-82,-58,24,70,-53,-17,4,-107,-165,-165,-156,-126
-82,-58,24,70,-53,-17,4,-107,-165,-165,-151,-126
-87,-58,29,73,-58,-14,4,-112,-165,-165,-151,-126
-78,-48,29,63,-53,-9,-9,-112,-151,-156,-136,-117
-73,-19,53,46,-63,17,-14,-112,-141,-136,-122,-97
-63,-4,58,34,-61,26,-14,-107,-126,-126,-112,-82
-48,14,63,17,-56,39,-9,-102,-117,-117,-97,-73
-43,29,73,7,-58,51,-9,-92,-102,-107,-92,-68
-39,34,73,2,-56,53,-4,-92,-102,-102,-92,-63
-39,34,73,2,-56,53,-4,-92,-97,-97,-87,-63
-43,34,78,4,-61,56,-19,-97,-92,-97,-87,-63
-29,48,78,-9,-53,63,-34,-97,-87,-87,-78,-53
-9,63,73,-26,-41,68,-58,-102,-78,-78,-58,-43
0,73,73,-36,-36,73,-73,-102,-73,-73,-48,-34
4,78,73,-41,-34,75,-82,-97,-78,-68,-48,-29
4,87,82,-46,-39,85,-92,-102,-82,-63,-48,-29
19,92,73,-56,-26,82,-92,-107,-92,-68,-43,-19
19,92,73,-56,-26,82,-92,-107,-102,-82,-43,-19
39,92,53,-65,-7,73,-92,-107,-107,-82,-43,-14
43,87,43,-65,0,65,-87,-107,-107,-87,-48,-14
34,78,43,-56,-4,61,-78,-112,-122,-102,-58,-19
9,68,58,-39,-24,63,-68,-117,-122,-102,-63,-24
-19,48,68,-14,-43,58,-53,-122,-126,-112,-78,-39
-48,24,73,12,-61,48,-29,-122,-131,-126,-97,-58
-63,-9,53,36,-58,21,-14,-112,-136,-136,-107,-73
-73,-19,53,46,-63,17,-9,-107,-151,-146,-126,-87
-78,-39,39,58,-58,0,-9,-107,-156,-151,-136,-97
-87,-53,34,70,-61,-9,-4,-112,-170,-161,-151,-117
-87,-73,14,80,-51,-29,-4,-126,-195,-195,-170,-136
-87,-73,14,80,-51,-29,-4,-131,-200,-204,-175,-141
-102,-78,24,90,-63,-26,0,-126,-200,-200,-175,-141
-102,-82,19,92,-61,-31,9,-126,-204,-200,-175,-146
-102,-82,19,92,-61,-31,9,-131,-204,-204,-190,-146
-102,-87,14,95,-58,-36,9,-131,-204,-204,-195,-151
-107,-82,24,95,-65,-29,9,-131,-204,-204,-195,-151
-112,-87,24,100,-68,-31,9,-131,-204,-204,-195,-156
-112,-87,24,100,-68,-31,14,-126,-209,-209,-195,-156
-117,-87,29,102,-73,-29,19,-126,-214,-219,-200,-156
-117,-87,29,102,-73,-29,19,-126,-214,-219,-200,-161
-122,-92,29,107,-75,-31,19,-126,-214,-219,-200,-161
-117,-97,19,107,-68,-39,24,-126,-214,-229,-200,-161
-131,-102,29,117,-80,-36,43,-126,-200,-244,-214,-185
-190,-117,73,153,-131,-21,97,-112,-175,-258,-278,-248
-219,-117,102,168,-161,-7,131,-102,-151,-263,-297,-273
-248,-146,102,197,-175,-21,175,-78,-161,-283,-331,-302
-200,-165,34,183,-117,-65,200,34,-92,-209,-258,-248
-68,-165,-97,117,14,-131,190,200,48,-29,-68,-82
112,-43,-156,-34,134,-100,82,278,204,219,219,170
361,209,-151,-285,256,29,-156,268,351,536,605,522
644,497,-146,-570,395,175,-448,185,492,902,1058,941
883,814,-68,-849,475,373,-732,58,639,1307,1527,1366
1093,985,-107,-1039,600,439,-912,-34,780,1668,1922,1717
1254,1019,-234,-1137,744,392,-976,-68,946,2059,2288,1995
1268,980,-287,-1124,778,346,-966,-146,927,2166,2376,2044
1093,814,-278,-954,685,268,-800,-204,785,2025,2220,1898
907,531,-375,-719,641,78,-580,-126,619,1703,1873,1586
634,214,-419,-424,527,-102,-356,-92,283,941,1098,951
346,-24,-370,-161,358,-197,-170,-92,-19,307,390,351
97,-97,-195,0,146,-146,-14,-63,-63,102,131,112
-14,-131,-117,73,51,-124,48,-53,-97,-4,19,9
-19,-107,-87,63,34,-97,58,-29,-58,-4,14,4
-24,-58,-34,41,4,-46,43,-14,-43,-9,4,-4
-29,-53,-24,41,-2,-39,34,-9,-29,-4,-4,-9
-39,-68,-29,53,-4,-48,24,-4,-34,-24,-19,-24
-63,-82,-19,73,-21,-51,43,-9,-58,-68,-68,-63
-82,-82,0,82,-41,-41,53,-14,-68,-112,-112,-102
-87,-87,0,87,-43,-43,53,-14,-78,-117,-117,-102
-92,-97,-4,95,-43,-51,53,-14,-87,-117,-122,-112
-97,-97,0,97,-48,-48,58,-19,-92,-131,-136,-122
-102,-97,4,100,-53,-46,63,-24,-97,-141,-146,-126
-102,-92,9,97,-56,-41,63,-24,-97,-141,-146,-126
-102,-92,9,97,-56,-41,63,-14,-92,-141,-146,-122
-102,-92,9,97,-56,-41,68,-9,-92,-136,-141,-122
-97,-92,4,95,-51,-43,68,-4,-87,-136,-141,-122
-97,-92,4,95,-51,-43,68,-4,-87,-136,-141,-122
-97,-87,9,92,-53,-39,68,4,-82,-131,-141,-122
-92,-87,4,90,-48,-41,68,14,-73,-126,-136,-122
-92,-82,9,87,-51,-36,68,24,-63,-122,-131,-126
-87,-82,4,85,-46,-39,68,34,-58,-117,-126,-122
-82,-78,4,80,-43,-36,68,39,-53,-112,-126,-122
-82,-78,4,80,-43,-36,68,34,-43,-102,-117,-117
-78,-73,4,75,-41,-34,68,43,-39,-97,-112,-112
-78,-82,-4,80,-36,-43,68,48,-29,-92,-107,-112
-73,-87,-14,80,-29,-51,68,58,-19,-82,-102,-107
-73,-73,0,73,-36,-36,68,68,-4,-78,-97,-102
-68,-63,4,65,-36,-29,68,73,4,-68,-92,-102
-63,-58,4,61,-34,-26,68,82,14,-58,-82,-97
-58,-53,4,56,-31,-24,73,97,29,-43,-78,-92
-58,-53,4,56,-31,-24,73,112,43,-39,-68,-87
-53,-48,4,51,-29,-21,78,126,63,-29,-63,-82
-48,-39,9,43,-29,-14,78,136,78,-19,-53,-73
-39,-39,0,39,-19,-19,82,156,87,-4,-43,-58
-34,-29,4,31,-19,-12,87,175,112,4,-39,-48
-29,-24,4,26,-17,-9,92,185,136,19,-29,-48
-24,-19,4,21,-14,-7,92,204,151,39,-24,-48
-19,-19,0,19,-9,-9,97,224,170,48,-14,-48
-14,-14,0,14,-7,-7,102,244,190,63,-9,-39
-9,-4,4,7,-7,0,107,268,214,78,-4,-34
0,0,0,0,0,0,117,287,239,92,0,-29
0,9,9,-4,-4,9,122,307,263,112,14,-24
9,14,4,-12,2,9,126,331,287,126,34,-9
14,19,4,-17,4,12,131,351,307,136,53,0
19,19,0,-19,9,9,131,370,331,156,63,9
24,19,-4,-21,14,7,136,390,356,165,73,9
29,29,0,-29,14,14,136,409,375,185,82,14
39,34,-4,-36,21,14,136,419,395,204,87,19
39,39,0,-39,19,19,141,429,419,214,97,29
43,43,0,-43,21,21,141,439,434,229,102,34
48,48,0,-48,24,24,146,453,444,244,112,43
48,53,4,-51,21,29,151,458,458,248,122,53
53,63,9,-58,21,36,146,453,463,258,131,58
58,73,14,-65,21,43,131,434,463,273,141,68
58,78,19,-68,19,48,122,419,478,283,151,78
58,82,24,-70,17,53,112,390,478,283,161,82
63,87,24,-75,19,56,97,366,463,287,161,92
63,87,24,-75,19,56,87,336,434,287,165,92
63,92,29,-78,17,61,73,297,395,273,170,97
53,92,39,-73,7,65,58,248,361,253,165,102
48,87,39,-68,4,63,43,214,322,224,146,92
39,82,43,-61,-2,63,34,175,268,200,131,82
29,78,48,-53,-9,63,24,136,229,175,112,73
19,63,43,-41,-12,53,14,97,185,146,97,58
14,53,39,-34,-12,46,9,68,151,112,73,43
4,34,29,-19,-12,31,0,39,112,78,53,34
-4,24,29,-9,-17,26,0,14,73,53,39,14
-14,9,24,2,-19,17,0,-4,39,29,14,4
-19,4,24,7,-21,14,-4,-24,14,9,0,-9
-19,0,19,9,-19,9,-4,-39,-4,-14,-19,-19
-24,-4,19,14,-21,7,-4,-43,-29,-34,-29,-29
-34,-14,19,24,-26,2,-4,-53,-39,-48,-39,-39
-39,-14,24,26,-31,4,-4,-63,-48,-58,-48,-43
-48,-24,24,36,-36,0,-4,-63,-58,-73,-58,-43
-48,-29,19,39,-34,-4,-9,-68,-73,-78,-68,-58
-48,-34,14,41,-31,-9,-9,-68,-78,-78,-73,-58
-48,-34,14,41,-31,-9,-9,-73,-87,-82,-78,-58
-48,-39,9,43,-29,-14,-9,-78,-92,-87,-82,-58
-53,-34,19,43,-36,-7,-9,-78,-92,-87,-82,-63
-53,-29,24,41,-39,-2,-9,-73,-92,-87,-87,-68
-48,-29,19,39,-34,-4,-9,-73,-92,-92,-87,-68
-43,-29,14,36,-29,-7,-9,-73,-97,-92,-87,-68
-43,-34,9,39,-26,-12,-9,-73,-97,-92,-87,-68
-43,-39,4,41,-24,-17,-9,-73,-97,-92,-87,-63
-43,-39,4,41,-24,-17,-9,-68,-92,-92,-87,-63
-43,-39,4,41,-24,-17,-9,-68,-87,-87,-87,-63
-43,-39,4,41,-24,-17,-9,-68,-87,-87,-87,-63
-43,-39,4,41,-24,-17,-4,-68,-87,-87,-87,-63
-43,-39,4,41,-24,-17,-4,-68,-92,-87,-82,-63
-43,-43,0,43,-21,-21,-4,-68,-92,-87,-82,-58
-43,-43,0,43,-21,-21,-4,-63,-92,-87,-78,-58
-43,-39,4,41,-24,-17,-9,-63,-87,-87,-78,-58
-43,-39,4,41,-24,-17,-9,-68,-82,-87,-78,-58
-43,-39,4,41,-24,-17,-4,-68,-78,-87,-73,-58
-43,-43,0,43,-21,-21,-4,-63,-78,-87,-73,-58
-43,-43,0,43,-21,-21,-4,-63,-78,-87,-73,-58
-43,-43,0,43,-21,-21,-4,-63,-82,-87,-73,-58
-43,-43,0,43,-21,-21,-4,-63,-87,-87,-73,-58
-43,-39,4,41,-24,-17,-4,-63,-87,-87,-78,-58
-43,-39,4,41,-24,-17,-4,-63,-87,-87,-78,-58
-43,-39,4,41,-24,-17,-4,-63,-87,-87,-78,-58
-43,-39,4,41,-24,-17,-4,-63,-92,-87,-73,-58
-43,-39,4,41,-24,-17,-4,-63,-92,-87,-73,-63
-43,-39,4,41,-24,-17,-4,-68,-92,-87,-73,-68
-43,-39,4,41,-24,-17,-4,-68,-92,-82,-78,-68
-48,-43,4,46,-26,-19,-4,-68,-92,-78,-78,-68
-48,-43,4,46,-26,-19,-4,-68,-92,-82,-78,-68
-48,-43,4,46,-26,-19,-4,-68,-97,-82,-78,-68
-48,-39,9,43,-29,-14,-4,-68,-97,-87,-82,-68
-48,-39,9,43,-29,-14,-4,-73,-102,-92,-82,-68
-48,-43,4,46,-26,-19,-4,-73,-97,-92,-87,-73
-48,-43,4,46,-26,-19,-4,-73,-97,-92,-87,-73
-48,-43,4,46,-26,-19,0,-73,-102,-92,-82,-73
-53,-48,4,51,-29,-21,0,-78,-102,-97,-82,-73
-53,-48,4,51,-29,-21,0,-78,-102,-102,-82,-73
-53,-48,4,51,-29,-21,-4,-78,-102,-102,-87,-68
-53,-53,0,53,-26,-26,-4,-78,-102,-107,-87,-73
-53,-53,0,53,-26,-26,-4,-82,-107,-107,-87,-73
-58,-58,0,58,-29,-29,-4,-82,-107,-107,-87,-73
-58,-63,-4,61,-26,-34,-4,-82,-112,-107,-92,-73
-58,-63,-4,61,-26,-34,-4,-82,-117,-112,-92,-78
-58,-63,-4,61,-26,-34,-4,-82,-117,-112,-97,-82
-58,-63,-4,61,-26,-34,-4,-82,-117,-112,-97,-87
-58,-63,-4,61,-26,-34,-4,-82,-122,-112,-97,-87
-53,-63,-9,58,-21,-36,-4,-87,-122,-117,-97,-87
-48,-63,-14,56,-17,-39,-4,-87,-122,-117,-102,-87
-53,-58,-4,56,-24,-31,-4,-87,-122,-117,-102,-87
-53,-58,-4,56,-24,-31,-4,-87,-122,-122,-102,-87
-53,-58,-4,56,-24,-31,0,-87,-126,-122,-102,-87
-53,-58,-4,56,-24,-31,0,-87,-126,-122,-107,-82
-53,-58,-4,56,-24,-31,0,-87,-126,-122,-107,-82
-58,-58,0,58,-29,-29,0,-87,-122,-122,-107,-82
-58,-53,4,56,-31,-24,-4,-87,-126,-122,-107,-82
-53,-43,9,48,-31,-17,-14,-87,-126,-122,-97,-78
-43,-24,19,34,-31,-2,-19,-87,-112,-112,-87,-68
-34,-4,29,19,-31,12,-24,-87,-102,-107,-73,-58
-24,19,43,2,-34,31,-24,-82,-87,-87,-63,-43
-19,34,53,-7,-36,43,-14,-78,-73,-68,-53,-34
-19,39,58,-9,-39,48,-9,-68,-63,-63,-48,-34
-19,43,63,-12,-41,53,-9,-68,-53,-58,-48,-34
-19,43,63,-12,-41,53,-14,-78,-53,-58,-48,-34
-19,53,73,-17,-46,63,-24,-78,-48,-53,-39,-29
0,63,63,-31,-31,63,-43,-78,-43,-43,-29,-19
19,68,48,-43,-14,58,-63,-78,-43,-34,-19,-4
34,78,43,-56,-4,61,-68,-82,-39,-24,-9,4
39,87,48,-63,-4,68,-78,-87,-39,-14,-4,14
48,87,39,-68,4,63,-87,-92,-48,-14,-4,19
63,92,29,-78,17,61,-92,-92,-53,-24,-4,24
68,92,24,-80,21,58,-97,-87,-68,-29,-4,24
82,92,9,-87,36,51,-102,-82,-73,-29,-4,24
87,92,4,-90,41,48,-97,-82,-82,-43,-4,29
78,82,4,-80,36,43,-82,-82,-87,-53,-4,19
48,73,24,-61,12,48,-73,-87,-92,-53,-9,9
19,53,34,-36,-7,43,-53,-97,-97,-63,-29,-9
-14,24,39,-4,-26,31,-34,-102,-102,-73,-48,-24
-39,-14,24,26,-31,4,-24,-97,-117,-87,-78,-48
-43,-24,19,34,-31,-2,-14,-97,-122,-102,-87,-58
-48,-39,9,43,-29,-14,-9,-97,-126,-117,-97,-68
-53,-53,0,53,-26,-26,-9,-102,-141,-131,-112,-82
-58,-68,-9,63,-24,-39,-9,-107,-156,-146,-126,-97
-63,-73,-9,68,-26,-41,-9,-107,-161,-151,-131,-102
-68,-78,-9,73,-29,-43,-9,-107,-165,-156,-136,-107
-73,-82,-9,78,-31,-46,0,-107,-165,-156,-136,-107
-78,-87,-9,82,-34,-48,9,-107,-165,-156,-136,-107
-78,-92,-14,85,-31,-53,9,-107,-165,-156,-136,-107
-78,-97,-19,87,-29,-58,9,-107,-165,-156,-136,-107
-82,-97,-14,90,-34,-56,14,-107,-165,-156,-141,-112
-87,-97,-9,92,-39,-53,19,-107,-165,-156,-146,-117
-92,-102,-9,97,-41,-56,19,-107,-165,-161,-151,-117
-97,-107,-9,102,-43,-58,19,-107,-165,-165,-156,-117
-97,-107,-9,102,-43,-58,19,-107,-165,-165,-156,-117
