I, II, III, aVR, aVL, aVF, V1, V2, V3, V4, V5, V6
-58,-185,-126,122,34,-156,48,0,-117,-126,-136,-117
-58,-185,-126,122,34,-156,48,0,-117,-126,-136,-117
-58,-185,-126,122,34,-156,48,0,-117,-126,-136,-117
-58,-185,-126,122,34,-156,48,0,-117,-126,-136,-117
-58,-185,-126,122,34,-156,48,-9,-117,-136,-136,-117
-58,-185,-126,122,34,-156,48,-9,-117,-136,-136,-117
-58,-185,-126,122,34,-156,48,-9,-117,-136,-136,-117
-58,-185,-126,122,34,-156,48,-9,-117,-136,-136,-117
-58,-195,-136,126,39,-165,58,0,-117,-136,-136,-117
-58,-195,-136,126,39,-165,58,0,-117,-136,-136,-117
-58,-195,-136,126,39,-165,58,0,-117,-136,-136,-117
-58,-195,-136,126,39,-165,58,0,-117,-136,-136,-117
-68,-209,-141,139,36,-175,73,9,-117,-141,-151,-122
-68,-214,-146,141,39,-180,78,9,-117,-146,-156,-126
-68,-219,-151,143,41,-185,82,9,-117,-151,-161,-131
-68,-224,-156,146,43,-190,87,9,-117,-156,-165,-136
-63,-204,-141,134,39,-173,97,29,-92,-141,-151,-136
-58,-195,-136,126,39,-165,97,39,-78,-126,-146,-136
-53,-185,-131,119,39,-158,97,48,-63,-112,-141,-136
-48,-175,-126,112,39,-151,97,58,-48,-97,-136,-136
-19,-97,-78,58,29,-87,63,58,0,-43,-82,-92
9,-19,-29,4,19,-24,39,58,48,9,-39,-58
39,58,19,-48,9,39,14,58,97,63,4,-24
68,136,68,-102,0,102,-9,58,146,117,48,9
92,253,161,-173,-34,207,-97,-9,180,200,136,97
117,370,253,-244,-68,312,-175,-78,214,273,224,175
141,488,346,-314,-102,417,-253,-146,248,346,312,253
165,605,439,-385,-136,522,-331,-214,283,419,400,331
180,678,497,-429,-158,588,-453,-331,263,448,468,414
185,751,566,-468,-190,658,-575,-448,253,478,527,488
190,824,634,-507,-222,729,-697,-566,244,507,585,561
195,897,702,-546,-253,800,-819,-683,234,536,644,634
141,668,527,-405,-192,597,-800,-707,29,331,488,531
87,439,351,-263,-131,395,-780,-722,-175,126,341,439
34,209,175,-122,-70,192,-761,-736,-380,-78,195,346
-19,-19,0,19,-9,-9,-741,-751,-585,-283,48,253
-87,-141,-53,114,-17,-97,-653,-688,-614,-351,-34,185
-146,-253,-107,200,-19,-180,-566,-634,-644,-409,-107,117
-204,-366,-161,285,-21,-263,-478,-580,-673,-468,-180,48
-263,-478,-214,370,-24,-346,-390,-527,-702,-527,-253,-19
-244,-468,-224,356,-9,-346,-331,-453,-629,-488,-253,-58
-224,-458,-234,341,4,-346,-283,-380,-566,-448,-253,-87
-204,-448,-244,326,19,-346,-234,-307,-502,-409,-253,-117
-185,-439,-253,312,34,-346,-185,-234,-439,-370,-253,-146
-161,-395,-234,278,36,-314,-131,-190,-370,-326,-219,-136
-146,-351,-204,248,29,-278,-87,-146,-312,-283,-195,-126
-131,-307,-175,219,21,-241,-43,-102,-253,-239,-170,-117
-117,-263,-146,190,14,-204,0,-58,-195,-195,-146,-107
-102,-234,-131,168,14,-183,19,-48,-165,-161,-122,-87
-97,-204,-107,151,4,-156,29,-39,-136,-136,-107,-78
-92,-175,-82,134,-4,-129,39,-29,-107,-112,-92,-68
-87,-146,-58,117,-14,-102,48,-19,-78,-87,-78,-58
-82,-126,-43,104,-19,-85,48,-14,-68,-73,-73,-48
-78,-117,-39,97,-19,-78,48,-9,-58,-68,-68,-48
-73,-107,-34,90,-19,-70,48,-4,-48,-63,-63,-48
-68,-97,-29,82,-19,-63,48,0,-39,-58,-58,-48
-68,-97,-29,82,-19,-63,48,9,-39,-58,-58,-48
-68,-97,-29,82,-19,-63,48,9,-39,-58,-58,-48
-68,-97,-29,82,-19,-63,48,9,-39,-58,-58,-48
-68,-97,-29,82,-19,-63,48,9,-39,-58,-58,-48
-58,-97,-39,78,-9,-68,48,19,-34,-48,-58,-48
-58,-97,-39,78,-9,-68,48,19,-29,-48,-58,-48
-58,-97,-39,78,-9,-68,48,19,-24,-48,-58,-48
-58,-97,-39,78,-9,-68,48,19,-19,-48,-58,-48
-58,-92,-34,75,-12,-63,48,19,-19,-39,-48,-48
-58,-87,-29,73,-14,-58,48,19,-19,-39,-48,-48
-58,-82,-24,70,-17,-53,48,19,-19,-39,-48,-48
-58,-78,-19,68,-19,-48,48,19,-19,-39,-48,-48
-48,-68,-19,58,-14,-43,48,29,-4,-29,-39,-39
-48,-68,-19,58,-14,-43,48,29,0,-29,-39,-39
-48,-68,-19,58,-14,-43,48,29,4,-29,-39,-39
-48,-68,-19,58,-14,-43,48,29,9,-29,-39,-39
-58,-58,0,58,-29,-29,48,29,19,-19,-29,-29
-58,-58,0,58,-29,-29,48,29,19,-9,-29,-29
-58,-58,0,58,-29,-29,48,29,19,0,-29,-29
-58,-58,0,58,-29,-29,48,29,19,9,-29,-29
-58,-43,14,51,-36,-14,48,29,29,14,-24,-19
-58,-39,19,48,-39,-9,48,29,29,19,-19,-19
-58,-34,24,46,-41,-4,48,29,29,24,-14,-19
-58,-29,29,43,-43,0,48,29,29,29,-9,-19
-53,-24,29,39,-41,2,48,39,39,39,0,-19
-48,-19,29,34,-39,4,48,39,39,39,0,-19
-43,-14,29,29,-36,7,48,39,39,39,0,-19
-39,-9,29,24,-34,9,48,39,39,39,0,-19
-34,4,39,14,-36,21,43,39,53,39,4,-14
-29,9,39,9,-34,24,39,39,58,39,9,-9
-24,14,39,4,-31,26,34,39,63,39,14,-4
-19,19,39,0,-29,29,29,39,68,39,19,0
-4,34,39,-14,-21,36,29,48,68,43,29,9
0,39,39,-19,-19,39,29,48,68,48,29,9
4,43,39,-24,-17,41,29,48,68,53,29,9
9,48,39,-29,-14,43,29,48,68,58,29,9
19,58,39,-39,-9,48,24,48,78,63,34,14
19,68,48,-43,-14,58,19,48,87,68,39,19
19,78,58,-48,-19,68,14,48,97,73,43,24
19,87,68,-53,-24,78,9,48,107,78,48,29
29,97,68,-63,-19,82,0,48,112,87,58,34
29,107,78,-68,-24,92,0,48,117,97,68,39
29,117,87,-73,-29,102,0,48,122,107,78,43
29,126,97,-78,-34,112,0,48,126,117,87,48
34,146,112,-90,-39,129,-4,58,136,126,102,53
39,156,117,-97,-39,136,-9,58,146,136,107,58
43,165,122,-104,-39,143,-14,58,156,146,112,63
48,175,126,-112,-39,151,-19,58,165,156,117,68
58,195,136,-126,-39,165,-29,63,180,165,131,82
58,204,146,-131,-43,175,-29,68,185,175,136,87
58,214,156,-136,-48,185,-29,73,190,185,141,92
58,224,165,-141,-53,195,-29,78,195,195,146,97
63,244,180,-153,-58,212,-34,78,214,209,161,117
68,263,195,-165,-63,229,-39,78,224,224,175,126
73,283,209,-178,-68,246,-43,78,234,239,190,136
78,302,224,-190,-73,263,-48,78,244,253,204,146
92,322,229,-207,-68,275,-53,87,258,263,214,161
97,331,234,-214,-68,283,-58,87,263,273,224,165
102,341,239,-222,-68,290,-63,87,268,283,234,170
107,351,244,-229,-68,297,-68,87,273,292,244,175
122,370,248,-246,-63,309,-73,97,292,312,253,185
126,390,263,-258,-68,326,-78,97,302,322,263,195
131,409,278,-270,-73,344,-82,97,312,331,273,204
136,429,292,-283,-78,361,-87,97,322,341,283,214
146,444,297,-295,-75,370,-87,97,336,351,292,224
146,458,312,-302,-82,385,-87,97,341,361,302,234
146,473,326,-309,-90,400,-87,97,346,370,312,244
146,488,341,-317,-97,414,-87,97,351,380,322,253
151,497,346,-324,-97,422,-92,97,366,395,336,268
156,507,351,-331,-97,429,-97,97,370,400,341,273
161,517,356,-339,-97,436,-102,97,375,405,346,278
165,527,361,-346,-97,444,-107,97,380,409,351,283
175,536,361,-356,-92,448,-117,97,380,414,356,292
175,546,370,-361,-97,458,-117,97,380,419,361,292
175,556,380,-366,-102,468,-117,97,380,424,366,292
175,566,390,-370,-107,478,-117,97,380,429,370,292
175,570,395,-373,-109,483,-122,87,390,439,375,297
175,575,400,-375,-112,488,-126,87,390,439,380,302
175,580,405,-378,-114,492,-131,87,390,439,385,307
175,585,409,-380,-117,497,-136,87,390,439,390,312
165,575,409,-370,-122,492,-126,82,380,429,390,322
165,575,409,-370,-122,492,-126,78,380,429,390,322
165,575,409,-370,-122,492,-126,73,380,429,390,322
165,575,409,-370,-122,492,-126,68,380,429,390,322
161,556,395,-358,-117,475,-117,63,366,409,380,312
156,546,390,-351,-117,468,-117,58,361,400,370,302
151,536,385,-344,-117,461,-117,53,356,390,361,292
146,527,380,-336,-117,453,-117,48,351,380,351,283
131,497,366,-314,-117,431,-107,39,336,366,326,263
126,478,351,-302,-112,414,-97,39,322,351,312,253
122,458,336,-290,-107,397,-87,39,307,336,297,244
117,439,322,-278,-102,380,-78,39,292,322,283,234
97,409,312,-253,-107,361,-68,29,278,297,258,209
87,380,292,-234,-102,336,-58,29,263,283,244,195
78,351,273,-214,-97,312,-48,29,248,268,229,180
68,322,253,-195,-92,287,-39,29,234,253,214,165
63,292,229,-178,-82,261,-29,29,214,229,185,151
58,263,204,-161,-73,234,-19,29,195,204,165,136
53,234,180,-143,-63,207,-9,29,175,180,146,122
48,204,156,-126,-53,180,0,29,156,156,126,107
34,170,136,-102,-51,153,14,29,131,131,102,92
29,146,117,-87,-43,131,19,29,117,117,87,78
24,122,97,-73,-36,109,24,29,102,102,73,63
19,97,78,-58,-29,87,29,29,87,87,58,48
14,78,63,-46,-24,70,39,29,73,73,39,29
9,58,48,-34,-19,53,39,29,58,58,29,19
4,39,34,-21,-14,36,39,29,43,43,19,9
0,19,19,-9,-9,19,39,29,29,29,9,0
-4,4,9,0,-7,7,48,29,19,19,-9,-9
-9,-9,0,9,-4,-4,48,29,9,9,-19,-19
-14,-24,-9,19,-2,-17,48,29,0,0,-29,-29
-19,-39,-19,29,0,-29,48,29,-9,-9,-39,-39
-29,-53,-24,41,-2,-39,58,19,-14,-24,-43,-48
-29,-58,-29,43,0,-43,58,19,-19,-29,-48,-48
-29,-63,-34,46,2,-48,58,19,-24,-34,-53,-48
-29,-68,-39,48,4,-53,58,19,-29,-39,-58,-48
-29,-82,-53,56,12,-68,58,19,-34,-43,-68,-58
-29,-87,-58,58,14,-73,58,19,-39,-48,-68,-58
-29,-92,-63,61,17,-78,58,19,-43,-53,-68,-58
-29,-97,-68,63,19,-82,58,19,-48,-58,-68,-58
-29,-107,-78,68,24,-92,58,19,-48,-58,-78,-68
-29,-107,-78,68,24,-92,58,19,-48,-58,-78,-68
-29,-107,-78,68,24,-92,58,19,-48,-58,-78,-68
-29,-107,-78,68,24,-92,58,19,-48,-58,-78,-68
-29,-107,-78,68,24,-92,58,19,-58,-58,-78,-68
-29,-107,-78,68,24,-92,58,19,-58,-58,-78,-68
-29,-107,-78,68,24,-92,58,19,-58,-58,-78,-68
-29,-107,-78,68,24,-92,58,19,-58,-58,-78,-68
-29,-97,-68,63,19,-82,58,19,-48,-58,-68,-58
-29,-97,-68,63,19,-82,58,19,-48,-58,-68,-58
-29,-97,-68,63,19,-82,58,19,-48,-58,-68,-58
-29,-97,-68,63,19,-82,58,19,-48,-58,-68,-58
-19,-97,-78,58,29,-87,58,19,-48,-48,-68,-58
-19,-97,-78,58,29,-87,58,19,-48,-48,-68,-58
-19,-97,-78,58,29,-87,58,19,-48,-48,-68,-58
-19,-97,-78,58,29,-87,58,19,-48,-48,-68,-58
-29,-97,-68,63,19,-82,58,19,-48,-58,-68,-58
-29,-97,-68,63,19,-82,58,19,-48,-58,-68,-58
-29,-97,-68,63,19,-82,58,19,-48,-58,-68,-58
-29,-97,-68,63,19,-82,58,19,-48,-58,-68,-58
-29,-87,-58,58,14,-73,58,19,-39,-58,-68,-58
-29,-87,-58,58,14,-73,58,19,-39,-58,-68,-58
-29,-87,-58,58,14,-73,58,19,-39,-58,-68,-58
-29,-87,-58,58,14,-73,58,19,-39,-58,-68,-58
-29,-97,-68,63,19,-82,48,19,-39,-58,-68,-58
-29,-97,-68,63,19,-82,48,19,-39,-58,-68,-58
-29,-97,-68,63,19,-82,48,19,-39,-58,-68,-58
-29,-97,-68,63,19,-82,48,19,-39,-58,-68,-58
-29,-97,-68,63,19,-82,48,19,-39,-58,-68,-58
-29,-97,-68,63,19,-82,48,19,-39,-58,-68,-58
-29,-97,-68,63,19,-82,48,19,-39,-58,-68,-58
-29,-97,-68,63,19,-82,48,19,-39,-58,-68,-58
-29,-87,-58,58,14,-73,58,19,-39,-58,-68,-58
-29,-87,-58,58,14,-73,58,19,-39,-58,-68,-58
-29,-87,-58,58,14,-73,58,19,-39,-58,-68,-58
-29,-87,-58,58,14,-73,58,19,-39,-58,-68,-58
-29,-97,-68,63,19,-82,58,19,-39,-58,-68,-58
-29,-102,-73,65,21,-87,58,19,-39,-58,-68,-63
-34,-102,-68,68,17,-85,58,19,-43,-58,-73,-63
-34,-107,-73,70,19,-90,58,19,-43,-63,-73,-63
-29,-112,-82,70,26,-97,58,19,-43,-63,-73,-58
-29,-112,-82,70,26,-97,58,19,-43,-63,-78,-58
-29,-117,-87,73,29,-102,58,19,-48,-63,-78,-58
-29,-117,-87,73,29,-102,58,19,-48,-68,-78,-63
-29,-117,-87,73,29,-102,48,19,-48,-68,-68,-53
-29,-117,-87,73,29,-102,48,14,-48,-73,-68,-53
-29,-117,-87,73,29,-102,53,14,-48,-73,-73,-53
-29,-117,-87,73,29,-102,53,14,-48,-73,-73,-58
-29,-107,-78,68,24,-92,53,4,-58,-63,-73,-68
-29,-107,-78,68,24,-92,53,4,-63,-63,-78,-68
-29,-112,-82,70,26,-97,53,4,-63,-63,-78,-73
-34,-112,-78,73,21,-95,53,4,-63,-63,-78,-73
-34,-112,-78,73,21,-95,53,4,-63,-63,-68,-73
-34,-112,-78,73,21,-95,53,4,-63,-63,-73,-73
-34,-112,-78,73,21,-95,53,4,-63,-63,-73,-73
-34,-112,-78,73,21,-95,53,4,-68,-63,-68,-73
-34,-122,-87,78,26,-104,53,4,-68,-78,-78,-73
-34,-122,-87,78,26,-104,53,4,-68,-78,-78,-73
-34,-122,-87,78,26,-104,53,4,-68,-78,-78,-73
-34,-122,-87,78,26,-104,53,4,-63,-78,-78,-73
-39,-122,-82,80,21,-102,63,4,-63,-87,-82,-73
-39,-117,-78,78,19,-97,63,4,-63,-87,-78,-68
-39,-107,-68,73,14,-87,63,4,-58,-82,-78,-68
-43,-102,-58,73,7,-80,63,4,-58,-82,-73,-63
-43,-102,-58,73,7,-80,63,4,-68,-87,-73,-63
-43,-102,-58,73,7,-80,63,4,-63,-82,-73,-58
-39,-107,-68,73,14,-87,68,4,-63,-78,-73,-58
-39,-107,-68,73,14,-87,68,4,-58,-78,-68,-58
-34,-107,-73,70,19,-90,68,0,-58,-78,-68,-63
-34,-102,-68,68,17,-85,68,0,-58,-78,-68,-63
-29,-102,-73,65,21,-87,68,0,-58,-78,-73,-63
-29,-102,-73,65,21,-87,63,0,-58,-78,-73,-68
-29,-102,-73,65,21,-87,63,0,-68,-82,-78,-78
-24,-102,-78,63,26,-90,53,0,-68,-82,-78,-78
-19,-102,-82,61,31,-92,53,0,-68,-82,-78,-78
-14,-102,-87,58,36,-95,48,-4,-68,-82,-73,-73
-4,-102,-97,53,46,-100,34,-14,-68,-82,-78,-68
4,-97,-102,46,53,-100,29,-14,-68,-78,-73,-68
9,-87,-97,39,53,-92,24,-14,-68,-78,-73,-68
19,-82,-102,31,61,-92,19,-19,-68,-78,-73,-68
19,-78,-97,29,58,-87,14,-9,-63,-78,-73,-73
19,-73,-92,26,56,-82,9,-9,-63,-73,-63,-73
24,-68,-92,21,58,-80,9,-9,-63,-73,-63,-63
29,-58,-87,14,58,-73,9,-9,-53,-63,-58,-58
34,-53,-87,9,61,-70,0,-9,-48,-58,-53,-53
34,-48,-82,7,58,-65,0,-4,-48,-58,-48,-48
34,-43,-78,4,56,-61,0,0,-48,-58,-48,-48
39,-43,-82,2,61,-63,0,0,-48,-58,-48,-48
39,-43,-82,2,61,-63,9,0,-48,-48,-48,-48
39,-43,-82,2,61,-63,9,0,-48,-48,-48,-48
39,-48,-87,4,63,-68,14,0,-48,-48,-48,-48
29,-53,-82,12,56,-68,19,0,-58,-48,-53,-48
24,-63,-87,19,56,-75,29,9,-58,-63,-58,-48
19,-78,-97,29,58,-87,29,9,-63,-73,-63,-53
9,-97,-107,43,58,-102,39,9,-68,-82,-68,-58
0,-112,-112,56,56,-112,39,9,-82,-97,-82,-68
-9,-141,-131,75,61,-136,39,0,-82,-117,-87,-82
-19,-151,-131,85,56,-141,43,0,-97,-117,-97,-87
-24,-165,-141,95,58,-153,48,0,-97,-126,-102,-87
-34,-175,-141,104,53,-158,48,0,-107,-131,-112,-97
-39,-200,-161,119,61,-180,53,-14,-122,-136,-117,-107
-43,-204,-161,124,58,-183,53,-14,-122,-141,-126,-117
-48,-214,-165,131,58,-190,53,-14,-126,-146,-136,-122
-53,-224,-170,139,58,-197,53,-14,-126,-151,-141,-126
-58,-219,-161,139,51,-190,58,-19,-126,-151,-141,-126
-63,-219,-156,141,46,-187,58,-19,-131,-151,-146,-126
-63,-219,-156,141,46,-187,58,-19,-131,-151,-146,-126
-58,-219,-161,139,51,-190,58,-19,-126,-151,-146,-126
-58,-209,-151,134,46,-180,48,-19,-126,-141,-146,-136
-58,-209,-151,134,46,-180,48,-19,-126,-141,-146,-136
-63,-209,-146,136,41,-178,48,-19,-126,-141,-146,-136
-63,-214,-151,139,43,-183,48,-19,-126,-136,-146,-131
-63,-214,-151,139,43,-183,58,-19,-126,-146,-136,-131
-63,-209,-146,136,41,-178,58,-19,-126,-146,-136,-131
-63,-209,-146,136,41,-178,58,-19,-126,-146,-136,-131
-63,-209,-146,136,41,-178,58,-19,-126,-146,-131,-131
-78,-214,-136,146,29,-175,48,-19,-131,-146,-131,-122
-78,-214,-136,146,29,-175,53,-14,-131,-146,-131,-122
-78,-214,-136,146,29,-175,53,-14,-131,-146,-131,-122
-78,-219,-141,148,31,-180,53,-14,-136,-146,-131,-122
-68,-219,-151,143,41,-185,63,-14,-126,-146,-141,-136
-68,-219,-151,143,41,-185,68,-4,-126,-156,-151,-131
-73,-229,-156,151,41,-192,78,-4,-126,-156,-156,-146
-82,-229,-146,156,31,-187,92,0,-122,-156,-156,-151
-92,-244,-151,168,29,-197,102,0,-112,-165,-161,-156
-82,-234,-151,158,34,-192,112,24,-97,-161,-161,-161
-63,-209,-146,136,41,-178,97,43,-78,-131,-156,-151
-39,-156,-117,97,39,-136,87,63,-24,-92,-122,-141
-9,-82,-73,46,31,-78,87,82,39,-34,-78,-102
24,0,-24,-12,24,-12,73,102,97,24,-43,-78
63,82,19,-73,21,51,39,92,141,82,9,-39
97,170,73,-134,12,122,-14,78,165,131,58,9
122,253,131,-187,-4,192,-63,34,185,175,122,73
141,356,214,-248,-36,285,-126,-39,209,239,204,146
156,478,322,-317,-82,400,-204,-131,239,317,302,244
200,644,444,-422,-122,544,-341,-244,307,444,439,356
248,839,590,-544,-170,714,-531,-385,375,561,570,492
273,980,707,-627,-217,844,-688,-536,419,649,678,590
253,1000,746,-627,-246,873,-785,-663,351,629,702,649
209,893,683,-551,-236,788,-849,-751,190,502,644,649
156,673,517,-414,-180,595,-868,-810,-39,287,502,566
92,366,273,-229,-90,319,-844,-824,-297,19,307,444
29,63,34,-46,-2,48,-790,-810,-527,-234,117,297
-53,-185,-131,119,39,-158,-717,-775,-688,-434,-58,175
-161,-361,-200,261,19,-280,-614,-741,-780,-541,-170,87
-253,-434,-180,344,-36,-307,-522,-707,-780,-570,-214,53
-292,-473,-180,383,-56,-326,-448,-644,-736,-546,-229,9
-292,-512,-219,402,-36,-366,-375,-541,-688,-527,-263,-48
-297,-546,-248,422,-24,-397,-317,-458,-649,-512,-297,-117
-268,-541,-273,405,2,-407,-278,-390,-580,-478,-297,-146
-229,-502,-273,366,21,-387,-244,-307,-497,-419,-273,-156
-195,-448,-253,322,29,-351,-185,-239,-424,-366,-263,-165
-175,-395,-219,285,21,-307,-117,-180,-336,-307,-234,-156
-156,-346,-190,251,17,-268,-68,-122,-283,-258,-204,-146
-131,-302,-170,217,19,-236,-29,-97,-229,-224,-180,-131
-122,-283,-161,202,19,-222,0,-68,-195,-180,-151,-112
-112,-239,-126,175,7,-183,19,-58,-161,-151,-131,-92
-112,-209,-97,161,-7,-153,29,-43,-136,-126,-107,-82
-87,-180,-92,134,2,-136,39,-43,-102,-97,-92,-68
-87,-151,-63,119,-12,-107,39,-43,-82,-78,-78,-63
-73,-131,-58,102,-7,-95,39,-34,-63,-68,-78,-63
-63,-117,-53,90,-4,-85,39,-29,-58,-68,-78,-53
-68,-117,-48,92,-9,-82,39,-14,-58,-78,-78,-53
-63,-112,-48,87,-7,-80,39,-9,-53,-78,-78,-53
-53,-112,-58,82,2,-85,39,0,-53,-68,-73,-53
-53,-107,-53,80,0,-80,39,0,-53,-63,-68,-53
-53,-112,-58,82,2,-85,29,0,-53,-68,-68,-63
-58,-112,-53,85,-2,-82,34,0,-43,-68,-68,-58
-58,-107,-48,82,-4,-78,34,0,-39,-73,-68,-58
-53,-107,-53,80,0,-80,34,0,-39,-73,-68,-58
-58,-107,-48,82,-4,-78,43,-4,-29,-68,-68,-58
-53,-107,-53,80,0,-80,43,4,-29,-68,-68,-58
-53,-107,-53,80,0,-80,43,4,-29,-63,-68,-58
-48,-107,-58,78,4,-82,43,4,-29,-63,-68,-58
-48,-102,-53,75,2,-78,53,14,-34,-53,-63,-58
-48,-102,-53,75,2,-78,53,14,-34,-53,-53,-58
-48,-87,-39,68,-4,-63,48,9,-24,-53,-53,-58
-48,-82,-34,65,-7,-58,48,9,-19,-43,-48,-58
-43,-78,-34,61,-4,-56,48,19,-14,-43,-48,-48
-43,-78,-34,61,-4,-56,48,19,-9,-43,-48,-48
-48,-78,-29,63,-9,-53,53,24,-9,-43,-43,-48
-48,-78,-29,63,-9,-53,53,24,-9,-34,-43,-48
-43,-78,-34,61,-4,-56,53,19,0,-29,-43,-48
-43,-73,-29,58,-7,-51,53,19,4,-24,-39,-48
-43,-63,-19,53,-12,-41,43,14,14,-19,-29,-43
-43,-58,-14,51,-14,-36,43,14,19,-19,-29,-43
-34,-43,-9,39,-12,-26,43,24,14,-14,-34,-43
-29,-43,-14,36,-7,-29,43,24,14,-9,-34,-39
-24,-43,-19,34,-2,-31,43,29,14,-4,-29,-39
-24,-34,-9,29,-7,-21,48,29,14,0,-24,-39
-24,-39,-14,31,-4,-26,48,29,14,0,-24,-34
-19,-39,-19,29,0,-29,43,29,24,9,-19,-34
-19,-19,0,19,-9,-9,39,29,34,14,-9,-24
-19,-9,9,14,-14,0,34,29,48,19,-4,-19
-4,0,4,2,-4,2,24,29,48,14,0,-14
-4,9,14,-2,-9,12,24,29,48,24,4,-9
0,9,9,-4,-4,9,24,29,48,29,9,-4
0,14,14,-7,-7,14,24,29,53,39,14,-4
14,14,0,-14,7,7,34,29,53,43,19,-4
14,29,14,-21,0,21,24,29,63,53,19,0
14,39,24,-26,-4,31,19,29,68,58,24,0
14,53,39,-34,-12,46,14,29,73,58,34,9
14,53,39,-34,-12,46,14,29,78,63,29,9
14,58,43,-36,-14,51,9,34,87,68,34,9
24,73,48,-48,-12,61,9,39,87,73,43,19
34,82,48,-58,-7,65,9,48,92,82,48,24
39,92,53,-65,-7,73,9,48,97,87,63,39
39,102,63,-70,-12,82,4,53,102,97,68,43
39,112,73,-75,-17,92,0,58,107,107,73,48
34,122,87,-78,-26,104,-4,58,122,117,82,53
48,136,87,-92,-19,112,-9,58,141,126,87,58
53,146,92,-100,-19,119,-14,58,151,131,102,63
63,156,92,-109,-14,124,-14,68,161,141,107,78
68,165,97,-117,-14,131,-14,73,161,141,112,78
73,185,112,-129,-19,148,-14,78,165,156,136,92
78,204,126,-141,-24,165,-24,78,170,165,146,97
82,219,136,-151,-26,178,-29,73,185,185,156,112
87,244,156,-165,-34,200,-34,73,200,200,165,122
92,268,175,-180,-41,222,-43,78,219,214,175,117
97,287,190,-192,-46,239,-43,78,234,229,185,131
102,307,204,-204,-51,256,-48,78,244,244,200,141
107,317,209,-212,-51,263,-48,87,248,248,209,146
126,322,195,-224,-34,258,-58,97,253,258,209,141
136,341,204,-239,-34,273,-63,102,258,268,229,156
146,361,214,-253,-34,287,-68,102,273,283,234,165
146,375,229,-261,-41,302,-78,102,283,297,253,170
156,395,239,-275,-41,317,-82,92,297,297,248,190
156,419,263,-287,-53,341,-87,92,307,307,258,200
156,439,283,-297,-63,361,-87,92,317,326,273,219
156,448,292,-302,-68,370,-87,92,326,331,283,224
156,458,302,-307,-73,380,-78,97,326,341,292,234
165,468,302,-317,-68,385,-87,102,326,351,302,239
165,478,312,-322,-73,395,-92,102,331,361,312,244
170,492,322,-331,-75,407,-97,102,341,370,322,253
185,497,312,-341,-63,405,-112,102,346,380,331,263
185,512,326,-348,-70,419,-117,102,361,380,341,273
185,517,331,-351,-73,424,-117,97,366,395,346,273
195,531,336,-363,-70,434,-117,97,366,400,351,278
195,541,346,-368,-75,444,-112,97,356,395,356,283
200,546,346,-373,-73,446,-117,97,356,400,361,283
200,551,351,-375,-75,451,-122,97,356,405,366,292
195,556,361,-375,-82,458,-126,87,366,409,366,297
204,556,351,-380,-73,453,-141,92,370,414,375,302
204,566,361,-385,-78,463,-141,82,375,419,380,307
195,570,375,-383,-90,473,-141,78,375,419,385,317
195,575,380,-385,-92,478,-136,78,375,419,390,322
195,566,370,-380,-87,468,-136,63,366,409,380,312
195,566,370,-380,-87,468,-136,58,366,409,380,307
195,561,366,-378,-85,463,-136,58,356,409,375,307
185,556,370,-370,-92,463,-136,58,351,405,370,307
170,536,366,-353,-97,451,-136,58,341,395,361,302
165,527,361,-346,-97,444,-131,48,336,375,356,287
165,512,346,-339,-90,429,-122,43,331,361,336,278
161,492,331,-326,-85,412,-107,43,326,346,322,268
141,468,326,-305,-92,397,-92,48,302,317,302,253
131,439,307,-285,-87,373,-78,48,283,302,283,239
122,414,292,-268,-85,353,-68,48,263,292,268,219
112,390,278,-251,-82,334,-63,48,253,278,253,204
97,356,258,-226,-80,307,-43,39,239,263,239,180
92,336,244,-214,-75,290,-43,39,224,244,214,165
87,312,224,-200,-68,268,-39,39,209,224,195,151
78,278,200,-178,-61,239,-24,39,190,200,175,131
78,253,175,-165,-48,214,-19,29,170,175,146,117
63,224,161,-143,-48,192,-4,34,146,151,126,92
53,190,136,-122,-41,163,14,39,126,126,112,78
43,161,117,-102,-36,139,19,39,107,112,87,63
34,131,97,-82,-31,114,19,39,97,102,82,58
34,102,68,-68,-17,85,29,39,87,82,63,43
24,82,58,-53,-17,70,29,34,73,63,43,29
24,58,34,-41,-4,46,34,29,58,48,34,14
9,39,29,-24,-9,34,39,29,53,39,29,9
9,19,9,-14,0,14,43,29,39,19,4,-4
4,0,-4,-2,4,-2,48,29,19,4,-9,-19
0,-19,-19,9,9,-19,53,29,4,-9,-19,-34
-4,-43,-39,24,17,-41,58,29,0,-19,-24,-29
-14,-53,-39,34,12,-46,58,29,-14,-19,-34,-39
-14,-58,-43,36,14,-51,58,29,-19,-34,-43,-48
-19,-73,-53,46,17,-63,58,24,-19,-34,-53,-48
-14,-82,-68,48,26,-75,53,34,-24,-34,-53,-48
-14,-92,-78,53,31,-85,53,34,-34,-43,-63,-58
-14,-102,-87,58,36,-95,58,34,-43,-53,-68,-68
-14,-102,-87,58,36,-95,58,34,-48,-53,-73,-68
-24,-102,-78,63,26,-90,58,24,-48,-53,-68,-63
-24,-107,-82,65,29,-95,58,24,-48,-58,-68,-68
-24,-107,-82,65,29,-95,58,24,-48,-58,-73,-73
-29,-107,-78,68,24,-92,58,24,-48,-63,-73,-73
-19,-102,-82,61,31,-92,58,24,-48,-63,-78,-73
-19,-102,-82,61,31,-92,63,24,-53,-63,-78,-73
-24,-112,-87,68,31,-100,63,19,-58,-73,-82,-82
-24,-117,-92,70,34,-104,63,19,-58,-73,-82,-82
-24,-107,-82,65,29,-95,53,19,-58,-73,-73,-68
-24,-112,-87,68,31,-100,58,19,-58,-73,-73,-68
-24,-117,-92,70,34,-104,58,19,-63,-73,-78,-68
-24,-117,-92,70,34,-104,58,24,-63,-73,-78,-68
-24,-112,-87,68,31,-100,58,19,-53,-73,-78,-68
-24,-107,-82,65,29,-95,58,19,-53,-73,-78,-68
-24,-107,-82,65,29,-95,58,19,-53,-73,-78,-73
-24,-107,-82,65,29,-95,58,24,-53,-73,-78,-73
-24,-107,-82,65,29,-95,58,24,-53,-63,-78,-73
-24,-107,-82,65,29,-95,58,24,-53,-63,-78,-73
-24,-112,-87,68,31,-100,58,24,-53,-63,-78,-73
-24,-112,-87,68,31,-100,58,24,-53,-63,-78,-73
-34,-102,-68,68,17,-85,58,24,-53,-53,-78,-73
-34,-102,-68,68,17,-85,58,24,-48,-53,-78,-73
-34,-102,-68,68,17,-85,58,24,-48,-53,-78,-73
-34,-102,-68,68,17,-85,58,24,-48,-53,-78,-68
-34,-107,-73,70,19,-90,58,24,-39,-63,-78,-68
-34,-107,-73,70,19,-90,58,24,-39,-63,-78,-63
-34,-107,-73,70,19,-90,58,24,-39,-63,-78,-63
-29,-107,-78,68,24,-92,58,24,-39,-63,-78,-63
-29,-102,-73,65,21,-87,58,24,-48,-63,-78,-73
-29,-97,-68,63,19,-82,58,24,-43,-63,-78,-73
-29,-97,-68,63,19,-82,58,24,-43,-63,-73,-73
-29,-97,-68,63,19,-82,58,24,-43,-63,-73,-68
-19,-102,-82,61,31,-92,58,19,-53,-68,-73,-68
-19,-102,-82,61,31,-92,58,19,-48,-68,-73,-68
-19,-102,-82,61,31,-92,58,19,-48,-68,-73,-68
-19,-102,-82,61,31,-92,58,24,-48,-68,-73,-68
-29,-102,-73,65,21,-87,58,14,-48,-58,-73,-68
-29,-102,-73,65,21,-87,53,14,-48,-58,-73,-68
-29,-102,-73,65,21,-87,53,9,-48,-58,-73,-68
-29,-102,-73,65,21,-87,53,9,-53,-58,-73,-68
-29,-102,-73,65,21,-87,53,19,-43,-68,-73,-68
-29,-102,-73,65,21,-87,53,19,-43,-68,-73,-68
-34,-107,-73,70,19,-90,53,14,-43,-68,-73,-68
-34,-107,-73,70,19,-90,53,14,-43,-68,-73,-68
-24,-107,-82,65,29,-95,53,14,-53,-63,-73,-68
-24,-107,-82,65,29,-95,48,14,-58,-63,-73,-68
-24,-107,-82,65,29,-95,48,14,-58,-63,-73,-68
-24,-107,-82,65,29,-95,48,14,-58,-63,-73,-68
-24,-97,-73,61,24,-85,48,14,-58,-73,-82,-78
-24,-102,-78,63,26,-90,48,14,-58,-73,-82,-78
-24,-107,-82,65,29,-95,48,14,-58,-73,-82,-78
-24,-107,-82,65,29,-95,48,14,-63,-73,-82,-78
-24,-117,-92,70,34,-104,58,14,-63,-63,-73,-78
-24,-117,-92,70,34,-104,58,14,-63,-63,-73,-78
-24,-117,-92,70,34,-104,58,4,-63,-73,-82,-82
-29,-126,-97,78,34,-112,58,9,-58,-68,-78,-78
-29,-126,-97,78,34,-112,58,9,-68,-78,-87,-78
-29,-126,-97,78,34,-112,58,9,-68,-78,-87,-78
-29,-126,-97,78,34,-112,58,9,-68,-78,-87,-78
-29,-126,-97,78,34,-112,58,9,-68,-78,-87,-78
-29,-131,-102,80,36,-117,58,0,-68,-87,-87,-82
-34,-131,-97,82,31,-114,58,0,-73,-87,-92,-82
-34,-136,-102,85,34,-119,58,0,-73,-92,-92,-82
-39,-141,-102,90,31,-122,58,0,-73,-92,-92,-87
-39,-131,-92,85,26,-112,48,0,-73,-92,-97,-87
-39,-136,-97,87,29,-117,48,0,-78,-92,-97,-87
-39,-136,-97,87,29,-117,48,0,-78,-97,-97,-92
-39,-136,-97,87,29,-117,48,0,-78,-97,-97,-92
-39,-136,-97,87,29,-117,48,4,-87,-92,-97,-92
-39,-136,-97,87,29,-117,53,4,-87,-92,-102,-92
-39,-136,-97,87,29,-117,53,4,-87,-92,-102,-97
-39,-136,-97,87,29,-117,53,4,-87,-92,-102,-97
-39,-136,-97,87,29,-117,53,4,-92,-92,-97,-87
-39,-141,-102,90,31,-122,53,4,-92,-92,-97,-92
-43,-141,-97,92,26,-119,53,4,-92,-92,-97,-92
-43,-141,-97,92,26,-119,53,4,-92,-92,-97,-92
-34,-141,-107,87,36,-124,53,4,-92,-92,-102,-102
-34,-141,-107,87,36,-124,53,4,-92,-92,-102,-102
-34,-141,-107,87,36,-124,53,4,-97,-92,-97,-102
-34,-141,-107,87,36,-124,53,4,-97,-97,-97,-102
-43,-151,-107,97,31,-129,53,4,-97,-97,-107,-92
-43,-151,-107,97,31,-129,53,4,-97,-97,-107,-92
-43,-151,-107,97,31,-129,53,4,-92,-97,-107,-92
-39,-151,-112,95,36,-131,53,4,-92,-97,-102,-92
-29,-156,-126,92,48,-141,63,-4,-92,-107,-97,-97
-29,-146,-117,87,43,-131,63,-4,-87,-102,-97,-97
-34,-141,-107,87,36,-124,63,-4,-87,-102,-92,-92
-34,-136,-102,85,34,-119,63,-4,-87,-97,-92,-92
-43,-131,-87,87,21,-109,53,-4,-82,-92,-92,-87
-39,-131,-92,85,26,-112,58,-4,-82,-87,-92,-87
-39,-126,-87,82,24,-107,58,-4,-78,-87,-87,-87
-43,-126,-82,85,19,-104,58,-9,-78,-87,-87,-82
-43,-122,-78,82,17,-100,68,0,-78,-87,-78,-73
-39,-122,-82,80,21,-102,68,0,-78,-87,-82,-73
-39,-122,-82,80,21,-102,63,0,-78,-87,-82,-78
-39,-122,-82,80,21,-102,63,0,-78,-92,-87,-78
-34,-122,-87,78,26,-104,53,-9,-78,-92,-87,-78
-29,-122,-92,75,31,-107,53,-9,-78,-92,-87,-78
-24,-122,-97,73,36,-109,48,-14,-78,-92,-82,-73
-24,-122,-97,73,36,-109,43,-14,-78,-92,-78,-68
-24,-126,-102,75,39,-114,39,-14,-87,-87,-82,-78
-19,-117,-97,68,39,-107,34,-14,-87,-87,-82,-78
-9,-112,-102,61,46,-107,29,-19,-87,-87,-82,-78
-9,-107,-97,58,43,-102,24,-19,-82,-87,-82,-73
0,-102,-102,51,51,-102,9,-9,-82,-92,-82,-73
4,-97,-102,46,53,-100,9,-9,-82,-92,-82,-63
9,-87,-97,39,53,-92,9,-9,-73,-82,-78,-58
14,-82,-97,34,56,-90,9,-9,-68,-78,-73,-53
14,-78,-92,31,53,-85,9,-4,-58,-78,-68,-48
14,-73,-87,29,51,-80,9,0,-58,-78,-68,-48
19,-73,-92,26,56,-82,9,0,-58,-78,-68,-48
19,-73,-92,26,56,-82,19,9,-58,-78,-68,-48
29,-63,-92,17,61,-78,19,9,-48,-68,-58,-48
29,-68,-97,19,63,-82,24,9,-48,-68,-58,-48
19,-73,-92,26,56,-82,29,9,-58,-68,-63,-48
14,-82,-97,34,56,-90,29,9,-58,-78,-68,-58
9,-92,-102,41,56,-97,29,9,-73,-82,-73,-53
0,-107,-107,53,53,-107,39,9,-78,-87,-78,-58
-9,-117,-107,63,48,-112,39,9,-92,-97,-92,-68
-19,-131,-112,75,46,-122,39,9,-92,-107,-97,-82
-29,-141,-112,85,41,-126,43,0,-107,-107,-107,-97
-34,-156,-122,95,43,-139,48,0,-107,-117,-112,-97
-43,-165,-122,104,39,-143,48,0,-117,-122,-122,-107
-48,-180,-131,114,41,-156,53,-4,-122,-126,-122,-107
-53,-195,-141,124,43,-168,53,-4,-122,-131,-136,-117
-58,-204,-146,131,43,-175,53,-4,-126,-136,-141,-122
-63,-214,-151,139,43,-183,53,-4,-126,-141,-141,-126
-68,-219,-151,143,41,-185,58,-9,-126,-141,-141,-126
-82,-219,-136,151,26,-178,58,-19,-141,-131,-136,-126
-82,-219,-136,151,26,-178,58,-19,-141,-131,-136,-126
-78,-219,-141,148,31,-180,58,-19,-136,-131,-136,-126
-78,-219,-141,148,31,-180,58,-19,-136,-131,-136,-126
-78,-219,-141,148,31,-180,58,-19,-126,-131,-136,-126
-82,-219,-136,151,26,-178,58,-19,-126,-131,-136,-126
-82,-224,-141,153,29,-183,58,-19,-126,-126,-136,-122
-82,-224,-141,153,29,-183,58,-19,-126,-126,-136,-122
-73,-209,-136,141,31,-173,48,-19,-126,-136,-136,-122
-73,-209,-136,141,31,-173,48,-19,-126,-136,-136,-122
-73,-209,-136,141,31,-173,48,-19,-126,-136,-131,-122
-78,-204,-126,141,24,-165,48,-19,-122,-136,-131,-122
-78,-204,-126,141,24,-165,53,-14,-122,-136,-131,-122
-78,-204,-126,141,24,-165,53,-14,-122,-136,-131,-122
-78,-209,-131,143,26,-170,53,-14,-126,-136,-131,-122
-78,-209,-131,143,26,-170,53,-14,-126,-136,-141,-126
-78,-219,-141,148,31,-180,58,-14,-136,-146,-151,-131
-82,-239,-156,161,36,-197,68,-14,-136,-156,-165,-136
-92,-248,-156,170,31,-202,82,-19,-131,-165,-165,-141
-102,-253,-151,178,24,-202,102,0,-122,-165,-170,-146
-102,-273,-170,187,34,-222,112,14,-107,-161,-170,-151
-82,-248,-165,165,41,-207,107,43,-87,-141,-165,-151
-58,-204,-146,131,43,-175,97,63,-43,-102,-141,-141
-39,-141,-102,90,31,-122,107,92,19,-53,-117,-112
4,-78,-82,36,43,-80,102,112,68,4,-73,-97
34,-14,-48,-9,41,-31,78,122,102,43,-39,-68
68,73,4,-70,31,39,43,107,126,92,9,-29
102,165,63,-134,19,114,-14,73,146,146,73,24
122,278,156,-200,-17,217,-78,19,180,219,156,107
146,419,273,-283,-63,346,-146,-63,229,317,263,204
190,595,405,-392,-107,500,-292,-175,307,434,400,326
248,810,561,-529,-156,685,-483,-307,385,580,551,453
283,971,688,-627,-202,829,-649,-468,429,668,658,561
273,1010,736,-641,-231,873,-756,-595,370,649,692,629
239,902,663,-570,-212,783,-829,-702,209,522,644,629
185,692,507,-439,-161,600,-858,-761,-29,297,502,556
131,405,273,-268,-70,339,-844,-785,-278,48,317,444
68,112,43,-90,12,78,-800,-780,-507,-195,126,307
-14,-126,-112,70,48,-119,-736,-756,-678,-395,-48,185
-122,-312,-190,217,34,-251,-634,-741,-780,-522,-151,117
-214,-395,-180,305,-17,-287,-551,-717,-800,-551,-195,73
-263,-444,-180,353,-41,-312,-488,-653,-756,-546,-229,39
-263,-512,-248,387,-7,-380,-424,-561,-727,-546,-273,-39
-268,-546,-278,407,4,-412,-356,-488,-697,-541,-307,-107
-248,-551,-302,400,26,-427,-317,-419,-639,-507,-317,-136
-229,-522,-292,375,31,-407,-273,-336,-546,-448,-302,-156
-195,-468,-273,331,39,-370,-214,-268,-473,-395,-283,-156
-175,-414,-239,295,31,-326,-136,-200,-385,-336,-253,-156
-156,-366,-209,261,26,-287,-78,-151,-322,-287,-224,-146
-141,-322,-180,231,19,-251,-48,-117,-268,-244,-200,-131
-131,-292,-161,212,14,-226,-19,-87,-224,-200,-180,-112
-122,-258,-136,190,7,-197,9,-68,-190,-170,-151,-102
-122,-219,-97,170,-12,-158,19,-53,-146,-136,-126,-92
-107,-180,-73,143,-17,-126,29,-43,-112,-107,-112,-78
-97,-141,-43,119,-26,-92,29,-43,-92,-87,-97,-63
-82,-131,-48,107,-17,-90,39,-34,-73,-78,-78,-53
-73,-117,-43,95,-14,-80,39,-29,-58,-58,-78,-53
-68,-107,-39,87,-14,-73,39,-24,-58,-68,-78,-53
-63,-102,-39,82,-12,-70,39,-19,-53,-68,-78,-53
-53,-102,-48,78,-2,-75,39,-9,-53,-58,-73,-53
-53,-97,-43,75,-4,-70,39,-9,-53,-53,-68,-53
-53,-92,-39,73,-7,-65,39,0,-43,-48,-58,-53
-58,-92,-34,75,-12,-63,43,0,-34,-48,-58,-48
-58,-87,-29,73,-14,-58,43,0,-29,-53,-58,-48
-53,-87,-34,70,-9,-61,43,0,-29,-53,-58,-48
-48,-87,-39,68,-4,-63,43,4,-29,-48,-68,-58
-43,-87,-43,65,0,-65,43,14,-29,-48,-68,-58
-43,-87,-43,65,0,-65,43,14,-29,-43,-68,-58
-39,-87,-48,63,4,-68,43,14,-29,-43,-68,-58
-39,-82,-43,61,2,-63,43,14,-24,-43,-63,-58
-39,-82,-43,61,2,-63,43,14,-24,-43,-53,-58
-39,-68,-29,53,-4,-48,39,9,-14,-43,-53,-58
-39,-63,-24,51,-7,-43,39,9,-9,-34,-48,-58
-43,-58,-14,51,-14,-36,39,9,-4,-34,-58,-48
-43,-58,-14,51,-14,-36,39,9,0,-34,-58,-48
-48,-58,-9,53,-19,-34,43,14,0,-34,-53,-48
-48,-58,-9,53,-19,-34,43,14,0,-24,-53,-48
-43,-58,-14,51,-14,-36,43,9,0,-19,-53,-48
-43,-53,-9,48,-17,-31,43,9,4,-14,-48,-48
-43,-43,0,43,-21,-21,34,4,14,-9,-39,-43
-43,-39,4,41,-24,-17,34,4,19,-9,-39,-43
-43,-43,0,43,-21,-21,34,9,14,-19,-34,-43
-39,-43,-4,41,-17,-24,34,14,14,-19,-34,-39
-34,-43,-9,39,-12,-26,34,24,14,-19,-29,-39
-34,-34,0,34,-17,-17,39,29,14,-19,-24,-39
-24,-29,-4,26,-9,-17,39,29,14,-9,-24,-34
-19,-29,-9,24,-4,-19,34,29,24,0,-19,-34
-19,-9,9,14,-14,0,29,29,34,4,-9,-24
-19,0,19,9,-19,9,24,29,48,9,-4,-19
-14,9,24,2,-19,17,34,29,58,4,0,-14
-14,19,34,-2,-24,26,34,29,58,14,4,-9
-9,19,29,-4,-19,24,34,29,58,19,9,-4
-9,24,34,-7,-21,29,34,29,63,29,14,-4
-4,24,29,-9,-17,26,34,29,53,43,9,-4
-4,39,43,-17,-24,41,24,29,63,53,9,0
-4,48,53,-21,-29,51,19,29,68,58,14,0
-4,63,68,-29,-36,65,14,29,73,58,24,9
4,63,58,-34,-26,61,14,34,87,73,39,9
4,68,63,-36,-29,65,9,34,97,78,43,9
14,82,68,-48,-26,75,9,34,97,82,53,19
24,92,68,-58,-21,80,9,39,102,92,58,24
24,102,78,-63,-26,90,0,39,107,107,63,39
29,112,82,-70,-26,97,-4,43,112,117,68,43
34,122,87,-78,-26,104,-9,48,117,126,73,48
34,131,97,-82,-31,114,-14,48,131,136,82,53
39,146,107,-92,-34,126,-19,48,151,136,87,68
43,156,112,-100,-34,134,-24,48,161,141,102,73
53,165,112,-109,-29,139,-24,58,170,151,107,87
58,175,117,-117,-29,146,-24,63,170,151,112,87
63,185,122,-124,-29,153,-14,68,175,165,117,92
68,204,136,-136,-34,170,-24,68,180,175,126,97
73,219,146,-146,-36,183,-29,63,195,195,136,112
78,244,165,-161,-43,204,-34,63,209,209,146,122
73,248,175,-161,-51,212,-43,68,219,214,165,117
78,268,190,-173,-56,229,-43,68,234,229,175,131
82,287,204,-185,-61,246,-48,68,244,244,190,141
87,297,209,-192,-61,253,-48,78,248,248,200,146
107,297,190,-202,-41,244,-58,87,253,258,200,151
117,322,204,-219,-43,263,-63,92,258,268,219,165
126,346,219,-236,-46,283,-68,92,273,283,224,175
126,366,239,-246,-56,302,-78,92,283,297,244,180
136,385,248,-261,-56,317,-82,92,287,297,248,190
136,409,273,-273,-68,341,-87,92,297,307,258,200
136,429,292,-283,-78,361,-87,92,307,326,273,219
136,439,302,-287,-82,370,-87,92,317,331,283,224
146,458,312,-302,-82,385,-78,97,336,351,292,234
156,468,312,-312,-78,390,-87,102,336,361,302,239
156,478,322,-317,-82,400,-92,102,341,370,312,244
161,492,331,-326,-85,412,-97,102,351,380,322,253
175,507,331,-341,-78,419,-112,102,356,380,322,263
175,522,346,-348,-85,434,-117,102,370,380,331,273
175,527,351,-351,-87,439,-117,97,375,395,336,273
185,541,356,-363,-85,448,-117,97,375,400,341,278
185,551,366,-368,-90,458,-122,97,375,405,346,273
190,556,366,-373,-87,461,-126,97,375,409,351,273
190,561,370,-375,-90,466,-131,97,375,414,356,283
185,566,380,-375,-97,473,-136,87,385,419,356,287
195,585,390,-390,-97,488,-141,92,390,424,375,302
195,595,400,-395,-102,497,-141,82,395,429,380,307
185,600,414,-392,-114,507,-141,78,395,429,385,317
185,605,419,-395,-117,512,-136,78,395,429,390,322
185,605,419,-395,-117,512,-136,73,395,429,390,322
185,605,419,-395,-117,512,-136,68,395,429,390,317
185,600,414,-392,-114,507,-136,68,385,429,385,317
175,595,419,-385,-122,507,-136,68,380,424,380,317
180,580,400,-380,-109,490,-141,58,370,409,366,317
175,575,400,-375,-112,488,-141,48,366,395,366,307
175,566,390,-370,-107,478,-136,43,361,385,351,302
170,551,380,-361,-104,466,-126,43,356,375,341,297
161,527,366,-344,-102,446,-122,48,351,366,331,283
151,497,346,-324,-97,422,-107,48,331,351,312,268
141,473,331,-307,-95,402,-97,48,312,341,297,248
131,448,317,-290,-92,383,-92,48,302,326,283,234
122,424,302,-273,-90,363,-73,29,287,307,278,219
112,405,292,-258,-90,348,-73,29,273,292,253,204
102,380,278,-241,-87,329,-68,29,258,278,234,190
87,346,258,-217,-85,302,-53,29,239,258,214,170
87,322,234,-204,-73,278,-48,29,219,234,185,165
73,292,219,-183,-73,256,-34,34,195,209,165,141
63,258,195,-161,-65,226,-14,39,175,185,151,126
53,229,175,-141,-61,202,-9,39,156,170,126,112
43,200,156,-122,-56,178,0,39,136,141,122,97
43,170,126,-107,-41,148,9,39,126,122,102,82
34,151,117,-92,-41,134,9,34,112,102,82,68
34,126,92,-80,-29,109,14,29,97,87,73,53
19,102,82,-61,-31,92,19,29,82,68,58,39
19,78,58,-48,-19,68,24,29,68,48,34,24
14,53,39,-34,-12,46,29,29,48,34,19,9
9,29,19,-19,-4,24,34,29,34,19,9,-4
14,14,0,-14,7,7,39,19,29,4,-14,-9
4,4,0,-4,2,2,39,19,14,0,-24,-19
4,0,-4,-2,4,-2,39,19,9,-19,-34,-29
0,-14,-14,7,7,-14,39,14,9,-24,-43,-29
4,-29,-34,12,19,-31,43,24,-14,-34,-53,-39
4,-43,-48,19,26,-46,43,24,-24,-43,-63,-48
4,-58,-63,26,34,-61,48,24,-34,-53,-68,-58
4,-63,-68,29,36,-65,48,24,-39,-53,-73,-58
-4,-58,-53,31,24,-56,48,24,-39,-53,-68,-53
-4,-68,-63,36,29,-65,48,24,-39,-58,-68,-58
-4,-73,-68,39,31,-70,48,24,-39,-58,-73,-63
-9,-78,-68,43,29,-73,48,24,-39,-63,-73,-63
-19,-92,-73,56,26,-82,48,24,-39,-63,-87,-63
-19,-92,-73,56,26,-82,53,24,-43,-63,-87,-63
-24,-102,-78,63,26,-90,53,19,-48,-73,-92,-73
-24,-107,-82,65,29,-95,53,19,-48,-73,-92,-73
-24,-97,-73,61,24,-85,53,19,-48,-73,-82,-68
-24,-102,-78,63,26,-90,58,19,-48,-73,-82,-68
-24,-107,-82,65,29,-95,58,19,-53,-73,-87,-68
-24,-107,-82,65,29,-95,58,24,-53,-73,-87,-68
-24,-112,-87,68,31,-100,58,29,-53,-73,-78,-68
-24,-107,-82,65,29,-95,58,29,-53,-73,-78,-68
-24,-107,-82,65,29,-95,58,29,-53,-73,-78,-73
-24,-107,-82,65,29,-95,58,34,-53,-73,-78,-73
-24,-97,-73,61,24,-85,58,24,-43,-73,-78,-63
-24,-97,-73,61,24,-85,58,24,-43,-73,-78,-63
-24,-102,-78,63,26,-90,58,24,-43,-73,-78,-63
-24,-102,-78,63,26,-90,58,24,-43,-73,-78,-63
-24,-92,-68,58,21,-80,58,24,-53,-73,-87,-73
-24,-92,-68,58,21,-80,58,24,-48,-73,-87,-73
-24,-92,-68,58,21,-80,58,24,-48,-73,-87,-73
-24,-92,-68,58,21,-80,58,24,-48,-73,-87,-68
-24,-87,-63,56,19,-75,58,24,-48,-73,-87,-78
-24,-87,-63,56,19,-75,58,24,-48,-73,-87,-73
-24,-87,-63,56,19,-75,58,24,-48,-73,-87,-73
-19,-87,-68,53,24,-78,58,24,-48,-73,-87,-73
-19,-87,-68,53,24,-78,58,24,-48,-73,-87,-73
-19,-87,-68,53,24,-78,58,24,-43,-73,-87,-73
-19,-92,-73,56,26,-82,58,24,-43,-73,-82,-73
-19,-97,-78,58,29,-87,58,24,-43,-73,-82,-68
-19,-92,-73,56,26,-82,58,19,-53,-68,-82,-68
-19,-92,-73,56,26,-82,58,19,-48,-68,-82,-68
-19,-92,-73,56,26,-82,58,19,-48,-68,-82,-68
-19,-92,-73,56,26,-82,58,24,-48,-68,-82,-68
-29,-92,-63,61,17,-78,58,24,-48,-68,-73,-68
-29,-92,-63,61,17,-78,53,24,-48,-68,-73,-68
-29,-92,-63,61,17,-78,53,19,-48,-68,-73,-68
-29,-92,-63,61,17,-78,53,19,-53,-68,-73,-68
-19,-92,-73,56,26,-82,53,19,-43,-68,-73,-68
-19,-92,-73,56,26,-82,53,19,-43,-68,-73,-68
-24,-97,-73,61,24,-85,53,14,-43,-68,-73,-68
-24,-97,-73,61,24,-85,53,14,-43,-68,-73,-68
-24,-97,-73,61,24,-85,53,14,-43,-73,-82,-68
-24,-97,-73,61,24,-85,48,14,-48,-73,-82,-68
-24,-97,-73,61,24,-85,48,14,-48,-73,-82,-68
-24,-97,-73,61,24,-85,48,14,-48,-73,-82,-68
-24,-87,-63,56,19,-75,58,14,-48,-73,-82,-68
-24,-92,-68,58,21,-80,58,14,-48,-73,-82,-68
-24,-97,-73,61,24,-85,58,14,-48,-73,-82,-68
-24,-97,-73,61,24,-85,58,14,-53,-73,-82,-68
-34,-97,-63,65,14,-80,58,14,-53,-73,-82,-68
-34,-97,-63,65,14,-80,58,14,-53,-73,-82,-68
-34,-97,-63,65,14,-80,58,14,-53,-73,-82,-73
-34,-97,-63,65,14,-80,58,14,-53,-73,-87,-73
-34,-112,-78,73,21,-95,58,9,-53,-78,-87,-73
-34,-112,-78,73,21,-95,58,9,-58,-78,-87,-73
-34,-112,-78,73,21,-95,58,9,-58,-82,-87,-73
-39,-117,-78,78,19,-97,58,9,-58,-87,-87,-73
-29,-117,-87,73,29,-102,53,14,-63,-87,-87,-78
-34,-117,-82,75,24,-100,53,14,-63,-87,-92,-78
-34,-117,-82,75,24,-100,53,14,-73,-87,-92,-78
-34,-117,-82,75,24,-100,53,9,-73,-87,-102,-82
-39,-117,-78,78,19,-97,48,9,-68,-87,-97,-78
-39,-117,-78,78,19,-97,48,0,-78,-97,-107,-87
-39,-117,-78,78,19,-97,48,0,-78,-97,-107,-87
-39,-117,-78,78,19,-97,48,0,-78,-97,-107,-87
-39,-117,-78,78,19,-97,48,0,-78,-97,-107,-87
-29,-131,-102,80,36,-117,48,0,-87,-97,-107,-82
-34,-131,-97,82,31,-114,48,0,-92,-97,-112,-82
-34,-136,-102,85,34,-119,48,0,-92,-102,-112,-82
-39,-141,-102,90,31,-122,48,0,-92,-102,-112,-87
-39,-141,-102,90,31,-122,58,0,-92,-102,-107,-87
-39,-146,-107,92,34,-126,58,0,-97,-102,-107,-87
-39,-146,-107,92,34,-126,58,0,-97,-107,-107,-92
-39,-146,-107,92,34,-126,58,0,-97,-107,-107,-92
-48,-156,-107,102,29,-131,48,4,-97,-112,-107,-92
-48,-156,-107,102,29,-131,53,4,-97,-112,-112,-92
-48,-156,-107,102,29,-131,53,4,-97,-112,-112,-97
-48,-156,-107,102,29,-131,53,4,-97,-112,-112,-97
-48,-146,-97,97,24,-122,53,4,-92,-112,-117,-97
-48,-151,-102,100,26,-126,53,4,-92,-112,-117,-102
-53,-151,-97,102,21,-124,53,4,-92,-112,-117,-102
-53,-151,-97,102,21,-124,53,4,-92,-112,-117,-102
-43,-151,-107,97,31,-129,53,4,-92,-112,-131,-112
-43,-151,-107,97,31,-129,53,4,-92,-112,-131,-112
-43,-151,-107,97,31,-129,53,4,-97,-112,-126,-112
-43,-151,-107,97,31,-129,53,4,-97,-117,-126,-112
-43,-151,-107,97,31,-129,53,4,-97,-117,-126,-102
-43,-151,-107,97,31,-129,53,4,-97,-117,-126,-102
-43,-151,-107,97,31,-129,53,4,-92,-117,-126,-102
-39,-151,-112,95,36,-131,53,4,-92,-117,-122,-102
-39,-156,-117,97,39,-136,53,4,-92,-126,-117,-97
-39,-146,-107,92,34,-126,53,4,-87,-122,-117,-97
-43,-141,-97,92,26,-119,53,4,-87,-122,-112,-92
-43,-136,-92,90,24,-114,53,4,-87,-117,-112,-92
-43,-141,-97,92,26,-119,63,4,-92,-122,-112,-97
-39,-141,-102,90,31,-122,68,4,-92,-117,-112,-97
-39,-136,-97,87,29,-117,68,4,-87,-117,-107,-97
-43,-136,-92,90,24,-114,68,0,-87,-117,-107,-92
-43,-141,-97,92,26,-119,68,0,-87,-117,-107,-92
-39,-141,-102,90,31,-122,68,0,-87,-117,-112,-92
-39,-141,-102,90,31,-122,63,0,-87,-117,-112,-97
-39,-141,-102,90,31,-122,63,0,-87,-122,-117,-97
-34,-141,-107,87,36,-124,53,0,-87,-112,-107,-97
-29,-141,-112,85,41,-126,53,0,-87,-112,-107,-97
-24,-141,-117,82,46,-129,48,-4,-87,-112,-102,-92
-24,-141,-117,82,46,-129,43,-4,-87,-112,-97,-87
-24,-131,-107,78,41,-119,29,-14,-87,-107,-102,-87
-19,-117,-97,68,39,-107,24,-14,-87,-107,-102,-87
-9,-107,-97,58,43,-102,19,-19,-87,-107,-102,-87
-9,-97,-87,53,39,-92,14,-19,-82,-107,-102,-82
0,-92,-92,46,46,-92,9,-19,-82,-92,-82,-73
4,-87,-92,41,48,-90,9,-19,-82,-92,-82,-63
9,-78,-87,34,48,-82,9,-19,-73,-82,-78,-58
14,-73,-87,29,51,-80,9,-19,-68,-78,-73,-53
14,-58,-73,21,43,-65,9,-24,-58,-78,-68,-48
14,-53,-68,19,41,-61,9,-19,-58,-78,-68,-48
19,-53,-73,17,46,-63,9,-19,-58,-78,-68,-48
19,-53,-73,17,46,-63,19,-9,-58,-78,-68,-48
19,-53,-73,17,46,-63,9,0,-58,-78,-58,-48
19,-58,-78,19,48,-68,14,0,-58,-78,-58,-48
9,-63,-73,26,41,-68,19,0,-68,-78,-63,-48
4,-73,-78,34,41,-75,19,0,-68,-87,-68,-58
0,-82,-82,41,41,-82,29,0,-73,-92,-82,-63
-9,-97,-87,53,39,-92,39,0,-78,-97,-87,-68
-19,-107,-87,63,34,-97,39,0,-92,-107,-102,-78
-29,-122,-92,75,31,-107,39,0,-92,-117,-107,-92
-39,-131,-92,85,26,-112,43,-9,-107,-117,-117,-97
-43,-146,-102,95,29,-124,48,-9,-107,-126,-122,-97
-53,-156,-102,104,24,-129,48,-9,-117,-131,-131,-107
-58,-170,-112,114,26,-141,53,-14,-122,-136,-131,-107
-63,-175,-112,119,24,-143,53,-14,-122,-141,-146,-126
-68,-185,-117,126,24,-151,53,-14,-126,-146,-151,-131
-73,-195,-122,134,24,-158,53,-14,-126,-151,-151,-136
-78,-200,-122,139,21,-161,58,-19,-126,-151,-151,-136
-73,-200,-126,136,26,-163,58,-19,-141,-151,-156,-136
-73,-200,-126,136,26,-163,58,-19,-141,-151,-156,-136
-68,-200,-131,134,31,-165,58,-19,-136,-151,-156,-136
-68,-200,-131,134,31,-165,58,-19,-136,-151,-156,-136
-58,-209,-151,134,46,-180,58,-9,-126,-151,-156,-136
-63,-209,-146,136,41,-178,58,-9,-126,-151,-156,-136
-63,-214,-151,139,43,-183,58,-9,-126,-146,-156,-131
-63,-214,-151,139,43,-183,58,-9,-126,-146,-156,-131
-63,-209,-146,136,41,-178,58,-9,-126,-146,-156,-141
-63,-209,-146,136,41,-178,58,-9,-126,-146,-156,-141
-63,-209,-146,136,41,-178,58,-9,-126,-146,-151,-141
-68,-204,-136,136,34,-170,58,-9,-122,-146,-151,-141
-68,-204,-136,136,34,-170,63,-14,-131,-156,-151,-131
-68,-204,-136,136,34,-170,63,-14,-131,-156,-151,-131
-68,-209,-141,139,36,-175,63,-14,-136,-156,-151,-131
-68,-209,-141,139,36,-175,63,-14,-136,-156,-161,-136
-68,-219,-151,143,41,-185,68,-4,-136,-156,-161,-141
-73,-229,-156,151,41,-192,78,4,-136,-165,-165,-146
-82,-239,-156,161,36,-197,102,0,-131,-165,-175,-151
-102,-253,-151,178,24,-202,112,9,-122,-165,-180,-165
-92,-263,-170,178,39,-217,122,34,-107,-161,-180,-170
-73,-239,-165,156,46,-202,117,63,-87,-151,-165,-170
-48,-195,-146,122,48,-170,117,92,-34,-102,-151,-161
-29,-131,-102,80,36,-117,126,122,19,-63,-117,-131
14,-68,-82,26,48,-75,112,151,68,-14,-82,-107
43,4,-39,-24,41,-17,97,161,102,34,-48,-78
78,73,-4,-75,41,34,73,146,136,73,9,-48
102,156,53,-129,24,104,24,122,146,126,73,14
122,258,136,-190,-7,197,-29,58,170,180,146,87
136,380,244,-258,-53,312,-87,-24,219,278,244,175
170,546,375,-358,-102,461,-214,-126,287,385,361,287
219,732,512,-475,-146,622,-375,-258,356,522,502,414
234,883,649,-558,-207,766,-512,-409,390,600,590,512
214,893,678,-553,-231,785,-610,-536,331,570,614,561
170,785,614,-478,-222,700,-663,-634,170,434,556,551
107,556,448,-331,-170,502,-673,-692,-58,219,414,478
53,258,204,-156,-75,231,-649,-707,-317,-48,219,346
-9,-43,-34,26,12,-39,-595,-692,-556,-292,19,209
-92,-292,-200,192,53,-246,-522,-668,-727,-492,-156,87
-200,-468,-268,334,34,-368,-419,-653,-829,-629,-268,9
-292,-541,-248,417,-21,-395,-336,-619,-839,-649,-312,-43
-322,-580,-258,451,-31,-419,-292,-556,-805,-634,-336,-78
-312,-619,-307,466,-2,-463,-239,-473,-756,-624,-370,-136
-307,-653,-346,480,19,-500,-200,-400,-727,-610,-395,-185
-278,-649,-370,463,46,-509,-180,-331,-658,-575,-395,-214
-239,-600,-361,419,61,-480,-156,-258,-575,-507,-361,-224
-195,-546,-351,370,78,-448,-117,-190,-502,-463,-341,-224
-175,-492,-317,334,70,-405,-68,-141,-424,-395,-302,-224
-156,-444,-287,300,65,-366,-19,-92,-351,-336,-273,-204
-141,-390,-248,265,53,-319,9,-58,-307,-302,-248,-180
-122,-361,-239,241,58,-300,19,-39,-253,-258,-219,-151
-122,-317,-195,219,36,-256,39,-29,-219,-229,-190,-131
-112,-268,-156,190,21,-212,39,-24,-175,-185,-156,-122
-107,-239,-131,173,12,-185,48,-24,-141,-156,-141,-107
-97,-190,-92,143,-2,-141,48,-24,-112,-126,-117,-92
-82,-170,-87,126,2,-129,48,-14,-92,-117,-117,-82
-73,-156,-82,114,4,-119,48,-9,-78,-107,-107,-82
-68,-141,-73,104,2,-107,48,-14,-78,-102,-97,-73
-63,-131,-68,97,2,-100,48,-9,-73,-97,-97,-73
-53,-126,-73,90,9,-100,48,0,-73,-82,-92,-73
-53,-117,-63,85,4,-90,48,0,-73,-73,-87,-73
-63,-102,-39,82,-12,-70,39,0,-53,-68,-78,-73
-68,-102,-34,85,-17,-68,43,0,-43,-68,-78,-68
-68,-97,-29,82,-19,-63,43,0,-39,-73,-78,-68
-63,-97,-34,80,-14,-65,43,0,-39,-73,-78,-68
-48,-87,-39,68,-4,-63,53,-4,-39,-58,-78,-58
-43,-87,-43,65,0,-65,53,4,-39,-58,-78,-58
-43,-87,-43,65,0,-65,53,4,-39,-53,-78,-58
-39,-87,-48,63,4,-68,53,4,-39,-53,-78,-58
-48,-73,-24,61,-12,-48,43,4,-34,-53,-63,-58
-48,-73,-24,61,-12,-48,43,4,-34,-53,-53,-58
-48,-58,-9,53,-19,-34,39,0,-24,-53,-53,-58
-48,-53,-4,51,-21,-29,39,0,-19,-43,-48,-58
-43,-58,-14,51,-14,-36,39,9,-14,-43,-48,-48
-43,-58,-14,51,-14,-36,39,9,-9,-43,-48,-48
-48,-58,-9,53,-19,-34,43,14,-9,-43,-43,-48
-48,-58,-9,53,-19,-34,43,14,-9,-34,-43,-48
-43,-48,-4,46,-19,-26,43,9,-9,-29,-43,-58
-43,-43,0,43,-21,-21,43,9,-4,-24,-39,-58
-43,-34,9,39,-26,-12,34,4,4,-19,-29,-53
-43,-29,14,36,-29,-7,34,4,9,-19,-29,-53
-43,-34,9,39,-26,-12,34,4,14,-19,-34,-53
-39,-34,4,36,-21,-14,34,4,14,-19,-34,-48
-34,-34,0,34,-17,-17,34,9,14,-19,-29,-48
-34,-24,9,29,-21,-7,39,9,14,-19,-24,-48
-24,-19,4,21,-14,-7,29,19,14,-9,-34,-43
-19,-19,0,19,-9,-9,24,19,24,0,-29,-43
-19,0,19,9,-19,9,19,19,34,4,-19,-34
-19,9,29,4,-24,19,14,19,48,9,-14,-29
-4,19,24,-7,-14,21,14,19,48,14,-9,-24
-4,29,34,-12,-19,31,14,19,48,24,-4,-19
0,29,29,-14,-14,29,14,19,48,29,0,-14
0,34,34,-17,-17,34,14,19,53,39,4,-14
4,24,19,-14,-7,21,14,19,53,34,9,-4
4,39,34,-21,-14,36,4,19,63,43,9,0
4,48,43,-26,-19,46,0,19,68,48,14,0
4,63,58,-34,-26,61,-4,19,73,48,24,9
4,73,68,-39,-31,70,4,24,78,63,39,9
4,78,73,-41,-34,75,0,24,87,68,43,9
14,92,78,-53,-31,85,0,24,87,73,53,19
24,102,78,-63,-26,90,0,29,92,82,58,24
24,102,78,-63,-26,90,-9,29,97,87,63,39
29,112,82,-70,-26,97,-14,34,102,97,68,43
34,122,87,-78,-26,104,-19,39,107,107,73,48
34,131,97,-82,-31,114,-24,39,122,117,82,53
48,146,97,-97,-24,122,-29,39,141,126,87,58
53,156,102,-104,-24,129,-34,39,151,131,102,63
63,165,102,-114,-19,134,-34,48,161,141,107,78
68,175,107,-122,-19,141,-34,53,161,141,112,78
63,185,122,-124,-29,153,-34,58,156,165,117,82
68,204,136,-136,-34,170,-43,58,161,175,126,87
73,219,146,-146,-36,183,-48,53,175,195,136,102
78,244,165,-161,-43,204,-53,53,190,209,146,112
82,258,175,-170,-46,217,-53,58,209,214,165,107
87,278,190,-183,-51,234,-53,58,224,229,175,122
92,297,204,-195,-56,251,-58,58,234,244,190,131
97,307,209,-202,-56,258,-58,68,239,248,200,136
107,312,204,-209,-48,258,-68,68,234,258,200,151
117,331,214,-224,-48,273,-73,73,239,268,219,165
126,351,224,-239,-48,287,-78,73,253,283,224,175
126,366,239,-246,-56,302,-87,73,263,297,244,180
136,375,239,-256,-51,307,-102,73,278,297,248,190
136,400,263,-268,-63,331,-107,73,287,307,258,200
136,419,283,-278,-73,351,-107,73,297,326,273,219
136,429,292,-283,-78,361,-107,73,307,331,283,224
126,439,312,-283,-92,375,-107,68,317,351,292,234
136,448,312,-292,-87,380,-117,73,317,361,302,239
136,458,322,-297,-92,390,-122,73,322,370,312,244
141,473,331,-307,-95,402,-126,73,331,380,322,253
156,488,331,-322,-87,409,-141,73,326,380,326,253
156,502,346,-329,-95,424,-146,73,341,380,331,263
156,507,351,-331,-97,429,-146,68,346,395,331,263
165,522,356,-344,-95,439,-146,68,346,400,331,268
175,531,356,-353,-90,444,-161,68,346,395,336,263
180,536,356,-358,-87,446,-165,68,346,400,341,263
180,541,361,-361,-90,451,-170,68,346,405,346,273
175,546,370,-361,-97,458,-175,58,356,409,346,278
180,556,375,-368,-97,466,-180,63,361,414,366,292
185,566,380,-375,-97,473,-180,53,366,419,370,297
180,570,390,-375,-104,480,-180,48,366,419,375,307
185,575,390,-380,-102,483,-175,48,366,419,380,312
185,575,390,-380,-102,483,-175,43,366,419,380,312
185,575,390,-380,-102,483,-175,39,366,419,380,307
185,570,385,-378,-100,478,-175,39,356,419,375,307
175,566,390,-370,-107,478,-175,39,351,414,370,307
161,551,390,-356,-114,470,-180,39,341,405,356,297
156,546,390,-351,-117,468,-180,29,336,385,356,287
156,536,380,-346,-112,458,-175,24,331,370,341,283
151,522,370,-336,-109,446,-165,24,326,356,331,278
151,497,346,-324,-97,422,-151,19,312,336,312,273
141,468,326,-305,-92,397,-136,19,292,322,292,258
131,444,312,-287,-90,378,-126,19,273,312,278,239
122,419,297,-270,-87,358,-122,19,263,297,263,224
107,395,287,-251,-90,341,-102,9,248,283,258,200
102,375,273,-239,-85,324,-102,9,234,263,234,185
97,351,253,-224,-78,302,-97,9,219,244,214,170
87,317,229,-202,-70,273,-82,9,200,219,195,151
97,292,195,-195,-48,244,-78,9,180,204,165,146
82,263,180,-173,-48,222,-63,14,156,180,146,122
73,229,156,-151,-41,192,-43,19,136,156,131,107
63,200,136,-131,-36,168,-39,19,117,141,107,92
43,180,136,-112,-46,158,-19,14,102,122,102,78
43,151,107,-97,-31,129,-9,19,97,102,82,63
34,131,97,-82,-31,114,-9,19,87,82,63,48
34,107,73,-70,-19,90,-4,19,78,68,53,34
19,82,63,-51,-21,73,4,19,73,58,48,29
19,58,39,-39,-9,48,14,19,58,39,24,14
14,34,19,-24,-2,26,24,19,39,24,9,0
9,9,0,-9,4,4,34,19,24,9,0,-14
4,-4,-9,0,7,-7,39,19,19,4,-4,-19
-4,-14,-9,9,2,-12,39,19,4,0,-14,-29
-4,-19,-14,12,4,-17,39,19,0,-19,-24,-39
-9,-34,-24,21,7,-29,39,14,0,-24,-34,-39
-24,-48,-24,36,0,-36,53,14,-14,-34,-43,-39
-24,-63,-39,43,7,-51,53,14,-24,-43,-53,-48
-24,-78,-53,51,14,-65,58,14,-34,-53,-58,-58
-24,-82,-58,53,17,-70,58,14,-39,-53,-63,-58
-24,-78,-53,51,14,-65,58,14,-39,-63,-68,-53
-24,-87,-63,56,19,-75,58,14,-39,-68,-68,-58
-24,-92,-68,58,21,-80,58,14,-39,-68,-73,-63
-29,-97,-68,63,19,-82,58,14,-39,-73,-73,-63
-29,-102,-73,65,21,-87,58,24,-39,-63,-78,-73
-29,-102,-73,65,21,-87,63,24,-43,-63,-78,-73
-34,-112,-78,73,21,-95,63,19,-48,-73,-82,-82
-34,-117,-82,75,24,-100,63,19,-48,-73,-82,-82
-24,-107,-82,65,29,-95,63,19,-48,-73,-82,-87
-24,-112,-87,68,31,-100,68,19,-48,-73,-82,-87
-24,-117,-92,70,34,-104,68,19,-53,-73,-87,-87
-24,-117,-92,70,34,-104,68,24,-53,-73,-87,-87
-24,-112,-87,68,31,-100,68,19,-53,-73,-87,-78
-24,-107,-82,65,29,-95,68,19,-53,-73,-87,-78
-24,-107,-82,65,29,-95,68,19,-53,-73,-87,-82
-24,-107,-82,65,29,-95,68,24,-53,-73,-87,-82
-24,-97,-73,61,24,-85,58,24,-53,-82,-87,-82
-24,-97,-73,61,24,-85,58,24,-53,-82,-87,-82
-24,-102,-78,63,26,-90,58,24,-53,-82,-87,-82
-24,-102,-78,63,26,-90,58,24,-53,-82,-87,-82
-24,-102,-78,63,26,-90,68,24,-53,-73,-87,-82
-24,-102,-78,63,26,-90,68,24,-48,-73,-87,-82
-24,-102,-78,63,26,-90,68,24,-48,-73,-87,-82
-24,-102,-78,63,26,-90,68,24,-48,-73,-87,-78
-34,-97,-63,65,14,-80,58,24,-48,-73,-78,-78
-34,-97,-63,65,14,-80,58,24,-48,-73,-78,-73
-34,-97,-63,65,14,-80,58,24,-48,-73,-78,-73
-29,-97,-68,63,19,-82,58,24,-48,-73,-78,-73
-29,-102,-73,65,21,-87,58,14,-48,-63,-78,-73
-29,-97,-68,63,19,-82,58,14,-43,-63,-78,-73
-29,-97,-68,63,19,-82,58,14,-43,-63,-73,-73
-29,-97,-68,63,19,-82,58,14,-43,-63,-73,-68
-29,-82,-53,56,12,-68,48,9,-43,-58,-73,-68
-29,-82,-53,56,12,-68,48,9,-39,-58,-73,-68
-29,-82,-53,56,12,-68,48,9,-39,-58,-73,-68
-29,-82,-53,56,12,-68,48,14,-39,-58,-73,-68
-29,-82,-53,56,12,-68,48,14,-48,-58,-73,-68
-29,-82,-53,56,12,-68,43,14,-48,-58,-73,-68
-29,-82,-53,56,12,-68,43,9,-48,-58,-73,-68
-29,-82,-53,56,12,-68,43,9,-53,-58,-73,-68
-29,-82,-53,56,12,-68,43,19,-43,-68,-73,-68
-29,-82,-53,56,12,-68,43,19,-43,-68,-73,-68
-34,-87,-53,61,9,-70,43,14,-43,-68,-73,-68
-34,-87,-53,61,9,-70,43,14,-43,-68,-73,-68
-34,-87,-53,61,9,-70,53,14,-53,-73,-73,-68
-34,-87,-53,61,9,-70,48,14,-58,-73,-73,-68
-34,-87,-53,61,9,-70,48,14,-58,-73,-73,-68
-34,-87,-53,61,9,-70,48,14,-58,-73,-73,-68
-34,-87,-53,61,9,-70,48,4,-58,-63,-73,-68
-34,-92,-58,63,12,-75,48,4,-58,-63,-73,-68
-34,-97,-63,65,14,-80,48,4,-58,-63,-73,-68
-34,-97,-63,65,14,-80,48,4,-63,-63,-73,-68
-43,-97,-53,70,4,-75,48,4,-63,-63,-73,-68
-43,-97,-53,70,4,-75,48,4,-63,-63,-73,-68
-43,-97,-53,70,4,-75,48,4,-63,-63,-73,-73
-43,-97,-53,70,4,-75,48,4,-63,-63,-78,-73
-43,-102,-58,73,7,-80,48,0,-63,-68,-78,-73
-43,-102,-58,73,7,-80,48,0,-68,-68,-78,-73
-43,-102,-58,73,7,-80,48,0,-68,-73,-78,-73
-48,-107,-58,78,4,-82,48,0,-68,-78,-78,-73
-39,-107,-68,73,14,-87,53,4,-73,-78,-78,-78
-34,-107,-73,70,19,-90,53,4,-73,-87,-82,-78
-34,-107,-73,70,19,-90,53,4,-73,-87,-82,-78
-34,-107,-73,70,19,-90,53,0,-73,-87,-82,-82
-39,-107,-68,73,14,-87,48,0,-78,-87,-87,-78
-39,-117,-78,78,19,-97,48,0,-87,-87,-87,-78
-39,-117,-78,78,19,-97,48,0,-87,-87,-87,-78
-39,-117,-78,78,19,-97,48,0,-87,-87,-87,-78
-39,-117,-78,78,19,-97,48,0,-87,-87,-87,-78
-29,-122,-92,75,31,-107,48,0,-87,-97,-87,-82
-34,-122,-87,78,26,-104,48,0,-92,-97,-92,-82
-34,-126,-92,80,29,-109,48,0,-92,-102,-92,-82
-39,-131,-92,85,26,-112,48,0,-92,-102,-92,-87
-39,-131,-92,85,26,-112,48,9,-82,-102,-97,-87
-39,-136,-97,87,29,-117,48,9,-87,-102,-97,-87
-39,-136,-97,87,29,-117,48,9,-87,-107,-97,-92
-39,-136,-97,87,29,-117,48,9,-87,-107,-97,-92
-39,-146,-107,92,34,-126,48,4,-87,-112,-97,-82
-39,-146,-107,92,34,-126,53,4,-87,-112,-102,-82
-39,-146,-107,92,34,-126,53,4,-87,-112,-102,-87
-39,-146,-107,92,34,-126,53,4,-87,-112,-102,-87
-39,-156,-117,97,39,-136,53,4,-92,-112,-107,-87
-39,-161,-122,100,41,-141,53,4,-92,-112,-107,-92
-43,-161,-117,102,36,-139,53,4,-92,-112,-107,-92
-43,-161,-117,102,36,-139,53,4,-92,-112,-107,-92
-53,-161,-107,107,26,-134,63,4,-92,-112,-102,-92
-53,-161,-107,107,26,-134,63,4,-92,-112,-102,-92
-53,-161,-107,107,26,-134,63,4,-97,-112,-97,-92
-53,-161,-107,107,26,-134,63,4,-97,-117,-97,-92
-53,-161,-107,107,26,-134,63,4,-97,-117,-107,-92
-53,-161,-107,107,26,-134,63,4,-97,-117,-107,-92
-53,-161,-107,107,26,-134,63,4,-92,-117,-107,-92
-48,-161,-112,104,31,-136,63,4,-92,-117,-102,-92
-48,-156,-107,102,29,-131,63,4,-92,-117,-97,-97
-48,-146,-97,97,24,-122,63,4,-87,-112,-97,-97
-53,-141,-87,97,17,-114,63,4,-87,-112,-92,-92
-53,-136,-82,95,14,-109,63,4,-87,-107,-92,-92
-43,-122,-78,82,17,-100,63,4,-82,-102,-92,-87
-39,-122,-82,80,21,-102,68,4,-82,-97,-92,-87
-39,-117,-78,78,19,-97,68,4,-78,-97,-87,-87
-43,-117,-73,80,14,-95,68,0,-78,-97,-87,-82
-34,-112,-78,73,21,-95,68,0,-78,-87,-87,-82
-29,-112,-82,70,26,-97,68,0,-78,-87,-92,-82
-29,-112,-82,70,26,-97,63,0,-78,-87,-92,-87
-29,-112,-82,70,26,-97,63,0,-78,-92,-97,-87
-34,-122,-87,78,26,-104,43,0,-78,-92,-97,-78
-29,-122,-92,75,31,-107,43,0,-78,-92,-97,-78
-24,-122,-97,73,36,-109,39,-4,-78,-92,-92,-73
-24,-122,-97,73,36,-109,34,-4,-78,-92,-87,-68
-14,-126,-112,70,48,-119,29,-4,-87,-97,-92,-68
-9,-117,-107,63,48,-112,24,-4,-87,-97,-92,-68
0,-112,-112,56,56,-112,19,-9,-87,-97,-92,-68
0,-107,-107,53,53,-107,14,-9,-82,-97,-92,-63
9,-92,-102,41,56,-97,9,0,-82,-92,-82,-73
14,-87,-102,36,58,-95,9,0,-82,-92,-82,-63
19,-78,-97,29,58,-87,9,0,-73,-82,-78,-58
24,-73,-97,24,61,-85,9,0,-68,-78,-73,-53
24,-58,-82,17,53,-70,9,-4,-58,-78,-68,-48
24,-53,-78,14,51,-65,9,0,-58,-78,-68,-48
29,-53,-82,12,56,-68,9,0,-58,-78,-68,-48
29,-53,-82,12,56,-68,19,9,-58,-78,-68,-48
29,-53,-82,12,56,-68,19,9,-58,-78,-68,-48
29,-58,-87,14,58,-73,24,9,-58,-78,-68,-48
19,-63,-82,21,51,-73,29,9,-68,-78,-73,-48
14,-73,-87,29,51,-80,29,9,-68,-87,-78,-58
9,-87,-97,39,53,-92,39,9,-73,-92,-82,-63
0,-107,-107,53,53,-107,48,9,-78,-97,-87,-68
-9,-122,-112,65,51,-117,48,9,-92,-107,-102,-78
-19,-141,-122,80,51,-131,48,9,-92,-117,-107,-92
-29,-161,-131,95,51,-146,53,9,-107,-126,-117,-97
-34,-175,-141,104,53,-158,58,9,-107,-136,-122,-97
-43,-185,-141,114,48,-163,58,9,-117,-141,-131,-107
-48,-200,-151,124,51,-175,63,4,-122,-146,-131,-107
-53,-214,-161,134,53,-187,63,-4,-122,-161,-136,-117
-58,-224,-165,141,53,-195,63,-4,-126,-165,-141,-122
-63,-234,-170,148,53,-202,63,-4,-126,-170,-141,-126
-68,-239,-170,153,51,-204,68,-9,-126,-170,-141,-126
-73,-239,-165,156,46,-202,68,0,-131,-161,-146,-126
-73,-239,-165,156,46,-202,68,0,-131,-161,-146,-126
-68,-239,-170,153,51,-204,68,0,-126,-161,-146,-126
-68,-239,-170,153,51,-204,68,0,-126,-161,-146,-126
-68,-229,-161,148,46,-195,58,0,-126,-170,-146,-126
-73,-229,-156,151,41,-192,58,0,-126,-170,-146,-126
-73,-234,-161,153,43,-197,58,0,-126,-165,-146,-122
-73,-234,-161,153,43,-197,58,0,-126,-165,-146,-122
-73,-219,-146,146,36,-183,58,0,-126,-156,-146,-122
-73,-219,-146,146,36,-183,58,0,-126,-156,-146,-122
-73,-219,-146,146,36,-183,58,0,-126,-156,-141,-122
-78,-214,-136,146,29,-175,58,0,-122,-156,-141,-122
-78,-214,-136,146,29,-175,63,-4,-122,-156,-141,-122
-78,-214,-136,146,29,-175,63,-4,-122,-156,-141,-122
-78,-219,-141,148,31,-180,63,-4,-126,-156,-141,-122
-78,-219,-141,148,31,-180,63,-4,-126,-156,-151,-126
-78,-219,-141,148,31,-180,68,-4,-126,-146,-151,-131
-82,-229,-146,156,31,-187,78,4,-126,-146,-156,-136
-92,-239,-146,165,26,-192,92,0,-122,-156,-156,-141
-102,-253,-151,178,24,-202,112,9,-112,-156,-170,-146
-92,-253,-161,173,34,-207,112,24,-97,-151,-161,-151
-73,-229,-156,151,41,-192,107,53,-78,-131,-156,-151
-48,-165,-117,107,34,-141,97,73,-34,-92,-122,-131
-19,-102,-82,61,31,-92,97,92,29,-43,-97,-112
14,-29,-43,7,29,-36,82,112,78,14,-53,-78
53,43,-9,-48,31,17,58,122,122,63,-19,-48
87,122,34,-104,26,78,24,97,146,112,39,-9
112,214,102,-163,4,158,-43,63,165,156,102,53
131,317,185,-224,-26,251,-97,0,180,229,175,117
146,429,283,-287,-68,356,-165,-82,219,307,273,214
180,595,414,-387,-117,505,-292,-185,278,414,400,317
229,780,551,-505,-161,666,-473,-317,346,541,522,444
253,912,658,-583,-202,785,-629,-468,370,610,619,531
234,922,688,-578,-226,805,-717,-585,302,570,644,580
190,805,614,-497,-212,710,-771,-683,131,444,566,570
136,575,439,-356,-151,507,-780,-722,-107,209,424,497
82,268,185,-175,-51,226,-756,-736,-366,-58,229,366
19,-34,-53,7,36,-43,-702,-722,-595,-302,29,229
-63,-283,-219,173,78,-251,-619,-688,-766,-502,-136,97
-161,-458,-297,309,68,-378,-517,-663,-858,-629,-258,29
-253,-531,-278,392,12,-405,-424,-619,-868,-649,-292,-14
-292,-561,-268,427,-12,-414,-361,-556,-805,-634,-307,-48
-283,-600,-317,441,17,-458,-297,-473,-766,-605,-341,-107
-278,-634,-356,456,39,-495,-258,-400,-717,-590,-366,-165
-248,-610,-361,429,56,-485,-219,-341,-649,-546,-356,-185
-209,-561,-351,385,70,-456,-185,-268,-556,-478,-331,-195
-175,-497,-322,336,73,-409,-136,-200,-473,-424,-302,-195
-156,-444,-287,300,65,-366,-78,-141,-375,-346,-273,-185
-136,-385,-248,261,56,-317,-39,-102,-312,-297,-234,-165
-122,-331,-209,226,43,-270,0,-68,-258,-253,-209,-151
-112,-302,-190,207,39,-246,19,-58,-214,-229,-180,-131
-112,-268,-156,190,21,-212,29,-39,-180,-180,-161,-112
-112,-229,-117,170,2,-173,39,-43,-146,-146,-126,-102
-97,-190,-92,143,-2,-141,48,-34,-112,-117,-112,-87
-87,-151,-63,119,-12,-107,39,-34,-82,-107,-97,-73
-73,-131,-58,102,-7,-95,39,-24,-73,-87,-78,-73
-63,-117,-53,90,-4,-85,39,-19,-58,-78,-78,-73
-68,-117,-48,92,-9,-82,39,-14,-58,-78,-78,-63
-63,-112,-48,87,-7,-80,39,-9,-53,-78,-78,-63
-53,-112,-58,82,2,-85,39,0,-53,-68,-73,-63
-53,-107,-53,80,0,-80,39,0,-53,-63,-68,-63
-53,-102,-48,78,-2,-75,39,0,-43,-58,-68,-63
-58,-102,-43,80,-7,-73,43,0,-34,-58,-68,-58
-58,-97,-39,78,-9,-68,43,0,-29,-63,-68,-58
-53,-97,-43,75,-4,-70,43,0,-29,-63,-68,-58
-48,-97,-48,73,0,-73,53,4,-29,-58,-68,-58
-43,-97,-53,70,4,-75,53,14,-29,-58,-68,-58
-43,-97,-53,70,4,-75,53,14,-29,-53,-68,-58
-39,-97,-58,68,9,-78,53,14,-29,-53,-68,-58
-39,-87,-48,63,4,-68,43,14,-24,-43,-63,-58
-39,-82,-43,61,2,-63,43,14,-24,-43,-53,-58
-39,-63,-24,51,-7,-43,39,9,-14,-43,-53,-58
-39,-53,-14,46,-12,-34,39,9,-9,-34,-48,-58
-34,-39,-4,36,-14,-21,39,9,-4,-34,-48,-48
-34,-39,-4,36,-14,-21,39,9,0,-34,-48,-48
-39,-39,0,39,-19,-19,43,14,0,-34,-43,-48
-39,-39,0,39,-19,-19,43,14,0,-24,-43,-48
-34,-48,-14,41,-9,-31,43,19,0,-19,-43,-48
-34,-43,-9,39,-12,-26,43,19,4,-14,-39,-48
-34,-34,0,34,-17,-17,34,14,14,-9,-29,-43
-34,-29,4,31,-19,-12,34,14,19,-9,-29,-43
-34,-34,0,34,-17,-17,34,14,24,-19,-34,-43
-29,-34,-4,31,-12,-19,34,14,24,-19,-34,-39
-24,-34,-9,29,-7,-21,34,19,24,-19,-29,-39
-24,-24,0,24,-12,-12,39,19,24,-19,-24,-39
-24,-9,14,17,-19,2,39,19,24,-9,-24,-34
-19,-9,9,14,-14,0,34,19,34,0,-19,-34
-19,9,29,4,-24,19,29,19,43,4,-9,-24
-19,19,39,0,-29,29,24,19,58,9,-4,-19
-14,19,34,-2,-24,26,24,19,58,14,-9,-14
-14,29,43,-7,-29,36,24,19,58,24,-4,-9
-9,29,39,-9,-24,34,24,19,58,29,0,-4
-9,34,43,-12,-26,39,24,19,63,39,4,-4
4,34,29,-19,-12,31,24,19,63,43,9,-4
4,48,43,-26,-19,46,14,19,73,53,9,0
4,58,53,-31,-24,56,9,19,78,58,14,0
4,73,68,-39,-31,70,4,19,82,58,24,9
4,73,68,-39,-31,70,4,24,97,63,29,19
4,78,73,-41,-34,75,0,24,107,68,34,19
14,92,78,-53,-31,85,0,24,107,73,43,29
24,102,78,-63,-26,90,0,29,112,82,48,34
24,102,78,-63,-26,90,0,29,117,97,63,39
29,112,82,-70,-26,97,-4,34,122,107,68,43
34,122,87,-78,-26,104,-9,39,126,117,73,48
34,131,97,-82,-31,114,-14,39,141,126,82,53
39,146,107,-92,-34,126,-19,39,151,136,87,68
43,156,112,-100,-34,134,-24,39,161,141,102,73
53,165,112,-109,-29,139,-24,48,170,151,107,87
58,175,117,-117,-29,146,-24,53,170,151,112,87
63,185,122,-124,-29,153,-24,68,175,156,126,82
68,204,136,-136,-34,170,-34,68,180,165,136,87
73,219,146,-146,-36,183,-39,63,195,185,146,102
78,244,165,-161,-43,204,-43,63,209,200,156,112
82,258,175,-170,-46,217,-53,58,229,224,175,117
87,278,190,-183,-51,234,-53,58,244,239,185,131
92,297,204,-195,-56,251,-58,58,253,253,200,141
97,307,209,-202,-56,258,-58,68,258,258,209,146
107,307,200,-207,-46,253,-58,78,273,268,209,151
117,331,214,-224,-48,273,-63,82,278,278,229,165
126,356,229,-241,-51,292,-68,82,292,292,234,175
126,375,248,-251,-61,312,-78,82,302,307,253,180
136,395,258,-265,-61,326,-92,82,317,317,258,190
136,419,283,-278,-73,351,-97,82,326,326,268,200
136,439,302,-287,-82,370,-97,82,336,346,283,219
136,448,312,-292,-87,380,-97,82,346,351,292,224
136,458,322,-297,-92,390,-92,87,356,361,302,244
146,468,322,-307,-87,395,-97,92,356,370,312,248
146,478,331,-312,-92,405,-97,92,361,380,322,253
151,492,341,-322,-95,417,-97,92,370,390,331,263
156,497,341,-326,-92,419,-112,82,375,409,341,273
156,512,356,-334,-100,434,-117,82,390,409,351,283
156,517,361,-336,-102,439,-117,78,395,424,356,283
165,531,366,-348,-100,448,-117,78,395,429,361,287
175,541,366,-358,-95,453,-122,87,395,424,356,283
180,546,366,-363,-92,456,-126,87,395,429,361,283
180,551,370,-366,-95,461,-131,87,395,434,366,292
175,556,380,-366,-102,468,-136,78,405,439,366,297
175,566,390,-370,-107,478,-141,82,409,444,385,302
175,575,400,-375,-112,488,-141,73,414,448,390,307
165,580,414,-373,-124,497,-141,68,414,448,395,317
165,585,419,-375,-126,502,-136,68,414,448,400,322
175,585,409,-380,-117,497,-136,63,414,448,390,322
175,585,409,-380,-117,497,-136,58,414,448,390,317
175,580,405,-378,-114,492,-136,58,405,448,385,317
165,575,409,-370,-122,492,-136,58,400,444,380,317
170,561,390,-366,-109,475,-141,48,395,429,375,307
165,556,390,-361,-112,473,-141,39,385,414,375,297
165,546,380,-356,-107,463,-136,34,375,405,361,292
161,531,370,-346,-104,451,-126,34,366,395,351,287
141,507,366,-324,-112,436,-112,39,351,366,331,273
131,478,346,-305,-107,412,-97,39,331,351,312,258
122,453,331,-287,-104,392,-87,39,312,341,297,239
112,429,317,-270,-102,373,-82,39,302,326,283,224
102,390,287,-246,-92,339,-63,29,297,312,268,219
92,366,273,-229,-90,319,-63,29,283,292,244,204
82,336,253,-209,-85,295,-58,29,268,273,224,190
68,297,229,-183,-80,263,-43,29,248,248,204,170
78,273,195,-175,-58,234,-29,29,219,224,175,156
63,244,180,-153,-58,212,-14,34,195,200,156,131
53,209,156,-131,-51,183,4,39,175,175,141,117
43,180,136,-112,-46,158,9,39,156,161,117,102
34,161,126,-97,-46,143,9,39,146,141,112,87
34,131,97,-82,-31,114,19,39,136,122,92,73
24,112,87,-68,-31,100,19,34,122,102,73,58
24,87,63,-56,-19,75,24,29,107,87,63,43
14,63,48,-39,-17,56,39,29,92,78,58,34
9,39,29,-24,-9,34,43,29,78,58,34,24
0,14,14,-7,-7,14,48,29,58,43,19,14
-9,-9,0,9,-4,-4,53,29,43,29,9,4
-14,-24,-9,19,-2,-17,58,29,29,14,-4,-9
-24,-34,-9,29,-7,-21,58,29,14,9,-14,-19
-24,-39,-14,31,-4,-26,58,29,9,-9,-24,-29
-29,-53,-24,41,-2,-39,58,24,9,-14,-34,-29
-34,-68,-34,51,0,-51,63,24,-4,-14,-43,-29
-34,-82,-48,58,7,-65,63,24,-14,-24,-53,-39
-34,-97,-63,65,14,-80,68,24,-24,-34,-58,-48
-34,-102,-68,68,17,-85,68,24,-29,-34,-63,-48
-34,-102,-68,68,17,-85,68,24,-29,-34,-58,-53
-34,-107,-73,70,19,-90,68,24,-29,-39,-58,-58
-34,-107,-73,70,19,-90,68,24,-29,-39,-63,-63
-39,-107,-68,73,14,-87,68,24,-29,-43,-63,-63
-39,-112,-73,75,17,-92,68,24,-39,-53,-68,-63
-39,-112,-73,75,17,-92,73,24,-43,-53,-68,-63
-43,-122,-78,82,17,-100,73,19,-48,-63,-73,-73
-43,-126,-82,85,19,-104,73,19,-48,-63,-73,-73
-34,-117,-82,75,24,-100,63,29,-48,-63,-73,-78
-34,-122,-87,78,26,-104,68,29,-48,-63,-73,-78
-34,-126,-92,80,29,-109,68,29,-53,-63,-78,-78
-34,-126,-92,80,29,-109,68,34,-53,-63,-78,-78
-34,-122,-87,78,26,-104,68,29,-43,-63,-78,-68
-34,-117,-82,75,24,-100,68,29,-43,-63,-78,-68
-34,-117,-82,75,24,-100,68,29,-43,-63,-78,-73
-34,-117,-82,75,24,-100,68,34,-43,-63,-78,-73
-34,-107,-73,70,19,-90,68,24,-43,-63,-78,-73
-34,-107,-73,70,19,-90,68,24,-43,-63,-78,-73
-34,-112,-78,73,21,-95,68,24,-43,-63,-78,-73
-34,-112,-78,73,21,-95,68,24,-43,-63,-78,-73
-34,-112,-78,73,21,-95,68,24,-43,-53,-78,-73
-34,-112,-78,73,21,-95,68,24,-39,-53,-78,-73
-34,-112,-78,73,21,-95,68,24,-39,-53,-78,-73
-34,-112,-78,73,21,-95,68,24,-39,-53,-78,-68
-34,-107,-73,70,19,-90,68,24,-39,-63,-68,-68
-34,-107,-73,70,19,-90,68,24,-39,-63,-68,-63
-34,-107,-73,70,19,-90,68,24,-39,-63,-68,-63
-29,-107,-78,68,24,-92,68,24,-39,-63,-68,-63
-39,-112,-73,75,17,-92,68,24,-39,-63,-68,-73
-39,-107,-68,73,14,-87,68,24,-34,-63,-68,-73
-39,-107,-68,73,14,-87,68,24,-34,-63,-63,-73
-39,-107,-68,73,14,-87,68,24,-34,-63,-63,-68
-39,-102,-63,70,12,-82,68,19,-43,-58,-63,-68
-39,-102,-63,70,12,-82,68,19,-39,-58,-63,-68
-39,-102,-63,70,12,-82,68,19,-39,-58,-63,-68
-39,-102,-63,70,12,-82,68,24,-39,-58,-63,-68
-39,-92,-53,65,7,-73,68,14,-39,-58,-63,-68
-39,-92,-53,65,7,-73,63,14,-39,-58,-63,-68
-39,-92,-53,65,7,-73,63,9,-39,-58,-63,-68
-39,-92,-53,65,7,-73,63,9,-43,-58,-63,-68
-29,-92,-63,61,17,-78,53,9,-34,-58,-63,-68
-29,-92,-63,61,17,-78,53,9,-34,-58,-63,-68
-34,-97,-63,65,14,-80,53,4,-34,-58,-63,-68
-34,-97,-63,65,14,-80,53,4,-34,-58,-63,-68
-34,-87,-53,61,9,-70,53,14,-43,-63,-63,-68
-34,-87,-53,61,9,-70,48,14,-48,-63,-63,-68
-34,-87,-53,61,9,-70,48,14,-48,-63,-63,-68
-34,-87,-53,61,9,-70,48,14,-48,-63,-63,-68
-34,-87,-53,61,9,-70,48,14,-48,-63,-63,-68
-34,-92,-58,63,12,-75,48,14,-48,-63,-63,-68
-34,-97,-63,65,14,-80,48,14,-48,-63,-63,-68
-34,-97,-63,65,14,-80,48,14,-53,-63,-63,-68
-34,-107,-73,70,19,-90,58,14,-53,-63,-63,-68
-34,-107,-73,70,19,-90,58,14,-53,-63,-63,-68
-34,-107,-73,70,19,-90,58,14,-53,-63,-63,-73
-34,-107,-73,70,19,-90,58,14,-53,-63,-68,-73
-34,-112,-78,73,21,-95,58,9,-53,-68,-68,-73
-34,-112,-78,73,21,-95,58,9,-58,-68,-68,-73
-34,-112,-78,73,21,-95,58,9,-58,-73,-68,-73
-39,-117,-78,78,19,-97,58,9,-58,-78,-68,-73
-39,-117,-78,78,19,-97,53,4,-63,-68,-68,-78
-43,-117,-73,80,14,-95,53,4,-63,-68,-73,-78
-43,-117,-73,80,14,-95,53,4,-63,-68,-73,-78
-43,-117,-73,80,14,-95,53,0,-63,-68,-73,-82
-39,-117,-78,78,19,-97,53,0,-73,-78,-78,-82
-39,-117,-78,78,19,-97,53,0,-73,-78,-78,-82
-39,-117,-78,78,19,-97,53,0,-78,-78,-78,-82
-43,-122,-78,82,17,-100,53,0,-78,-78,-78,-82
-43,-122,-78,82,17,-100,53,0,-73,-82,-87,-82
-43,-126,-82,85,19,-104,53,0,-73,-82,-92,-82
-43,-131,-87,87,21,-109,53,0,-78,-82,-92,-82
-39,-131,-92,85,26,-112,53,0,-78,-87,-92,-82
-48,-131,-82,90,17,-107,53,0,-78,-92,-87,-82
-48,-136,-87,92,19,-112,58,0,-78,-87,-87,-87
-48,-146,-97,97,24,-122,58,0,-87,-97,-97,-87
-48,-146,-97,97,24,-122,58,0,-87,-97,-97,-87
-48,-146,-97,97,24,-122,58,0,-87,-97,-97,-87
-48,-146,-97,97,24,-122,58,0,-87,-97,-97,-87
-48,-151,-102,100,26,-126,58,9,-87,-107,-87,-82
-53,-151,-97,102,21,-124,58,9,-92,-107,-92,-82
-53,-156,-102,104,24,-129,58,9,-92,-112,-92,-82
-58,-161,-102,109,21,-131,58,9,-92,-112,-92,-87
-58,-151,-92,104,17,-122,58,9,-82,-112,-97,-87
-58,-156,-97,107,19,-126,58,9,-87,-112,-97,-87
-58,-156,-97,107,19,-126,58,9,-87,-117,-97,-92
-58,-156,-97,107,19,-126,58,9,-87,-117,-97,-92
-58,-156,-97,107,19,-126,58,4,-87,-112,-97,-92
-58,-156,-97,107,19,-126,63,4,-87,-112,-102,-92
-58,-156,-97,107,19,-126,63,4,-87,-112,-102,-97
-58,-156,-97,107,19,-126,63,4,-87,-112,-102,-97
-58,-156,-97,107,19,-126,63,4,-92,-112,-107,-97
-58,-161,-102,109,21,-131,63,4,-92,-112,-107,-102
-63,-161,-97,112,17,-129,63,4,-92,-112,-107,-102
-63,-161,-97,112,17,-129,63,4,-92,-112,-107,-102
-63,-161,-97,112,17,-129,63,4,-92,-112,-112,-102
-63,-161,-97,112,17,-129,63,4,-92,-112,-112,-102
-63,-161,-97,112,17,-129,63,4,-97,-112,-107,-102
-63,-161,-97,112,17,-129,63,4,-97,-117,-107,-102
-73,-151,-78,112,2,-114,63,4,-107,-107,-107,-102
-73,-151,-78,112,2,-114,63,4,-107,-107,-107,-102
-73,-151,-78,112,2,-114,63,4,-102,-107,-107,-102
-68,-151,-82,109,7,-117,63,4,-102,-107,-102,-102
-68,-156,-87,112,9,-122,63,-4,-92,-107,-107,-107
-68,-146,-78,107,4,-112,63,-4,-87,-102,-107,-107
-73,-141,-68,107,-2,-104,63,-4,-87,-102,-102,-102
-73,-136,-63,104,-4,-100,63,-4,-87,-97,-102,-102
-73,-131,-58,102,-7,-95,63,-4,-82,-92,-92,-97
-68,-131,-63,100,-2,-97,68,-4,-82,-87,-92,-97
-68,-126,-58,97,-4,-92,68,-4,-78,-87,-87,-97
-73,-126,-53,100,-9,-90,68,-9,-78,-87,-87,-92
-73,-122,-48,97,-12,-85,68,0,-78,-87,-87,-82
-68,-122,-53,95,-7,-87,68,0,-78,-87,-92,-82
-68,-122,-53,95,-7,-87,63,0,-78,-87,-92,-87
-68,-122,-53,95,-7,-87,63,0,-78,-92,-97,-87
-63,-131,-68,97,2,-100,63,0,-78,-92,-97,-87
-58,-131,-73,95,7,-102,63,0,-78,-92,-97,-87
-53,-131,-78,92,12,-104,58,-4,-78,-92,-92,-82
-53,-131,-78,92,12,-104,53,-4,-78,-92,-87,-78
-53,-136,-82,95,14,-109,48,-4,-87,-97,-92,-87
-48,-126,-78,87,14,-102,43,-4,-87,-97,-92,-87
-39,-122,-82,80,21,-102,39,-9,-87,-97,-92,-87
-39,-117,-78,78,19,-97,34,-9,-82,-97,-92,-82
-39,-112,-73,75,17,-92,19,-9,-82,-92,-82,-92
-34,-107,-73,70,19,-90,19,-9,-82,-92,-82,-82
-29,-97,-68,63,19,-82,19,-9,-73,-82,-78,-78
-24,-92,-68,58,21,-80,19,-9,-68,-78,-73,-73
-14,-78,-63,46,24,-70,19,-14,-58,-78,-68,-58
-14,-73,-58,43,21,-65,19,-9,-58,-78,-68,-58
-9,-73,-63,41,26,-68,19,-9,-58,-78,-68,-58
-9,-73,-63,41,26,-68,29,0,-58,-78,-68,-58
0,-73,-73,36,36,-73,29,9,-58,-68,-68,-58
0,-78,-78,39,39,-78,34,9,-58,-68,-68,-58
-9,-82,-73,46,31,-78,39,9,-68,-68,-73,-58
-14,-92,-78,53,31,-85,39,9,-68,-78,-78,-68
-19,-97,-78,58,29,-87,39,9,-73,-82,-73,-63
-29,-117,-87,73,29,-102,48,9,-78,-87,-78,-68
-39,-131,-92,85,26,-112,48,9,-92,-97,-92,-78
-48,-151,-102,100,26,-126,48,9,-92,-107,-97,-92
-48,-161,-112,104,31,-136,53,9,-107,-107,-107,-107
-53,-175,-122,114,34,-148,58,9,-107,-117,-112,-107
-63,-185,-122,124,29,-153,58,9,-117,-122,-122,-117
-68,-200,-131,134,31,-165,63,4,-122,-126,-122,-117
-82,-214,-131,148,24,-173,63,4,-131,-131,-136,-126
-87,-224,-136,156,24,-180,63,4,-136,-136,-141,-131
-92,-234,-141,163,24,-187,63,4,-136,-141,-141,-136
-97,-239,-141,168,21,-190,68,0,-136,-141,-141,-136
-102,-239,-136,170,17,-187,68,0,-141,-141,-146,-136
-102,-239,-136,170,17,-187,68,0,-141,-141,-146,-136
-97,-239,-141,168,21,-190,68,0,-136,-141,-146,-136
-97,-239,-141,168,21,-190,68,0,-136,-141,-146,-136
-97,-229,-131,163,17,-180,68,0,-136,-151,-146,-146
-102,-229,-126,165,12,-178,68,0,-136,-151,-146,-146
-102,-234,-131,168,14,-183,68,0,-136,-146,-146,-141
-102,-234,-131,168,14,-183,68,0,-136,-146,-146,-141
-92,-229,-136,161,21,-183,68,0,-136,-146,-146,-131
-92,-229,-136,161,21,-183,68,0,-136,-146,-146,-131
-92,-229,-136,161,21,-183,68,0,-136,-146,-141,-131
-97,-224,-126,161,14,-175,68,0,-131,-146,-141,-131
-87,-234,-146,161,29,-190,73,4,-122,-146,-131,-122
-87,-234,-146,161,29,-190,73,4,-122,-146,-131,-122
-87,-239,-151,163,31,-195,73,4,-126,-146,-131,-122
-87,-239,-151,163,31,-195,73,4,-126,-146,-141,-126
-87,-239,-151,163,31,-195,78,4,-126,-146,-141,-122
-82,-239,-156,161,36,-197,78,4,-126,-146,-136,-126
-92,-239,-146,165,26,-192,82,9,-122,-146,-146,-131
-102,-253,-151,178,24,-202,102,9,-112,-146,-151,-136
-102,-253,-151,178,24,-202,112,14,-97,-151,-161,-151
-102,-248,-146,175,21,-197,126,24,-87,-141,-156,-151
-78,-224,-146,151,34,-185,117,53,-73,-122,-141,-141
-68,-161,-92,114,12,-126,107,73,-19,-82,-126,-131
-43,-87,-43,65,0,-65,102,92,39,-24,-92,-107
-14,-14,0,14,-7,-7,87,112,92,34,-48,-78
19,63,43,-41,-12,53,53,107,136,82,0,-39
53,146,92,-100,-19,119,14,82,165,126,53,4
92,239,146,-165,-26,192,-58,48,190,180,117,58
107,331,224,-219,-58,278,-117,-14,209,248,195,136
131,458,326,-295,-97,392,-195,-87,239,326,292,219
170,624,453,-397,-141,539,-336,-190,297,444,414,326
224,795,570,-509,-173,683,-522,-322,351,561,541,453
253,922,668,-588,-207,795,-688,-458,380,639,644,541
239,941,702,-590,-231,822,-800,-575,307,610,663,590
214,829,614,-522,-200,722,-868,-673,146,473,600,575
170,600,429,-385,-129,514,-883,-717,-102,253,453,502
117,287,170,-202,-26,229,-868,-732,-361,-19,253,366
63,-19,-82,-21,73,-51,-814,-717,-600,-268,58,224
-24,-273,-248,148,112,-261,-741,-683,-771,-463,-122,107
-126,-444,-317,285,95,-380,-639,-658,-868,-590,-234,24
-214,-512,-297,363,41,-405,-536,-614,-873,-614,-268,-19
-253,-541,-287,397,17,-414,-463,-551,-814,-595,-283,-48
-258,-575,-317,417,29,-446,-385,-468,-756,-570,-317,-107
-248,-600,-351,424,51,-475,-326,-400,-707,-556,-336,-156
-229,-580,-351,405,61,-466,-283,-346,-634,-507,-331,-175
-195,-517,-322,356,63,-419,-244,-278,-531,-434,-302,-175
-165,-463,-297,314,65,-380,-185,-209,-434,-366,-263,-185
-146,-395,-248,270,51,-322,-117,-151,-341,-307,-234,-165
-141,-341,-200,241,29,-270,-58,-107,-278,-253,-190,-151
-122,-292,-170,207,24,-231,-19,-68,-224,-209,-170,-131
-112,-258,-146,185,17,-202,9,-48,-180,-170,-141,-112
-112,-219,-107,165,-2,-163,29,-34,-146,-136,-117,-92
-97,-170,-73,134,-12,-122,48,-24,-112,-107,-92,-78
-97,-131,-34,114,-31,-82,58,-14,-73,-78,-78,-63
-82,-102,-19,92,-31,-61,58,-14,-53,-58,-68,-53
-73,-78,-4,75,-34,-41,58,0,-29,-48,-58,-53
-58,-78,-19,68,-19,-48,48,-4,-39,-48,-58,-53
-53,-73,-19,63,-17,-46,48,0,-34,-48,-58,-53
-43,-73,-29,58,-7,-51,48,9,-34,-39,-53,-53
-43,-68,-24,56,-9,-46,48,9,-34,-34,-48,-53
-53,-73,-19,63,-17,-46,48,19,-34,-29,-48,-63
-58,-73,-14,65,-21,-43,53,19,-24,-29,-48,-58
-58,-68,-9,63,-24,-39,53,19,-19,-34,-48,-58
-53,-68,-14,61,-19,-41,53,19,-19,-34,-48,-58
-58,-78,-19,68,-19,-48,53,14,-14,-29,-48,-58
-53,-78,-24,65,-14,-51,53,24,-9,-29,-48,-58
-53,-78,-24,65,-14,-51,53,24,-4,-24,-48,-58
-48,-78,-29,63,-9,-53,53,24,0,-24,-48,-58
-58,-73,-14,65,-21,-43,53,24,-4,-24,-53,-58
-58,-73,-14,65,-21,-43,53,24,-4,-24,-43,-58
-58,-58,0,58,-29,-29,48,19,4,-24,-43,-58
-58,-53,4,56,-31,-24,48,19,9,-14,-39,-58
-73,-58,14,65,-43,-21,58,29,14,-14,-39,-48
-73,-58,14,65,-43,-21,58,29,19,-14,-39,-48
-78,-58,19,68,-48,-19,63,34,19,-14,-34,-48
-78,-58,19,68,-48,-19,63,34,19,-4,-34,-48
-82,-68,14,75,-48,-26,73,39,9,0,-43,-48
-82,-63,19,73,-51,-21,73,39,14,4,-39,-48
-82,-53,29,68,-56,-12,63,34,24,9,-29,-43
-82,-48,34,65,-58,-7,63,34,29,9,-29,-43
-92,-43,48,68,-70,2,63,24,34,19,-24,-43
-87,-43,43,65,-65,0,63,24,34,19,-24,-39
-82,-43,39,63,-61,-2,63,29,34,19,-19,-39
-82,-34,48,58,-65,7,68,29,34,19,-14,-39
-73,-29,43,51,-58,7,78,39,34,19,-14,-34
-68,-29,39,48,-53,4,73,39,43,29,-9,-34
-68,-9,58,39,-63,24,68,39,53,34,0,-24
-68,0,68,34,-68,34,63,39,68,39,4,-19
-78,9,87,34,-82,48,63,48,73,53,19,-14
-82,19,102,31,-92,61,63,48,78,63,24,-9
-82,19,102,31,-92,61,63,48,82,68,29,-4
-87,24,112,31,-100,68,63,48,92,78,34,-4
-102,14,117,43,-109,65,78,58,102,92,43,9
-112,29,141,41,-126,85,73,58,112,102,48,19
-122,39,161,41,-141,100,73,58,117,107,58,24
-131,53,185,39,-158,119,73,58,122,107,73,39
-122,53,175,34,-148,114,73,43,126,122,68,39
-122,58,180,31,-151,119,68,43,136,126,73,39
-112,73,185,19,-148,129,68,43,136,131,82,48
-102,82,185,9,-143,134,68,48,141,141,87,53
-82,82,165,0,-124,124,63,39,136,131,78,43
-68,92,161,-12,-114,126,53,43,141,136,78,43
-53,102,156,-24,-104,129,43,48,146,141,78,43
-43,112,156,-34,-100,134,34,48,161,146,82,43
-24,136,161,-56,-92,148,19,48,161,146,78,43
-4,146,151,-70,-78,148,14,48,170,151,92,43
19,156,136,-87,-58,146,14,58,180,161,97,53
39,165,126,-102,-43,146,14,63,180,161,102,48
58,175,117,-117,-29,146,14,78,175,170,107,53
68,195,126,-131,-29,161,4,78,180,175,117,58
78,209,131,-143,-26,170,0,73,195,190,126,73
87,234,146,-161,-29,190,-4,73,209,200,136,82
102,248,146,-175,-21,197,-14,78,219,214,146,78
107,268,161,-187,-26,214,-14,78,234,229,156,92
112,287,175,-200,-31,231,-19,78,244,244,170,102
117,297,180,-207,-31,239,-19,87,248,248,180,107
126,297,170,-212,-21,234,-29,87,253,253,175,102
136,312,175,-224,-19,244,-34,92,258,258,190,117
146,326,180,-236,-17,253,-39,92,273,268,190,126
146,336,190,-241,-21,263,-48,92,283,278,204,131
136,351,214,-244,-39,283,-43,92,297,287,219,131
126,370,244,-248,-58,307,-48,92,307,297,229,141
117,385,268,-251,-75,326,-48,92,317,317,244,161
107,390,283,-248,-87,336,-48,92,326,322,253,165
97,400,302,-248,-102,351,-39,87,336,341,263,180
107,409,302,-258,-97,356,-48,92,336,351,273,190
107,419,312,-263,-102,366,-53,92,341,361,283,200
112,434,322,-273,-104,378,-58,92,351,370,292,214
126,448,322,-287,-97,385,-63,92,356,380,292,224
126,463,336,-295,-104,400,-68,92,370,380,302,234
126,468,341,-297,-107,405,-68,87,375,395,307,234
136,483,346,-309,-104,414,-68,87,375,400,312,239
165,507,341,-336,-87,424,-82,87,366,395,307,234
180,517,336,-348,-78,427,-87,87,366,400,312,234
190,527,336,-358,-73,431,-92,87,366,405,317,244
195,536,341,-366,-73,439,-97,78,375,409,317,248
200,551,351,-375,-75,451,-92,82,390,424,336,258
204,566,361,-385,-78,463,-92,73,395,429,341,268
200,575,375,-387,-87,475,-92,68,395,429,346,283
204,585,380,-395,-87,483,-87,68,395,429,351,292
195,595,400,-395,-102,497,-97,73,400,434,361,302
195,595,400,-395,-102,497,-97,68,405,439,361,297
195,590,395,-392,-100,492,-97,68,400,444,356,297
185,585,400,-385,-107,492,-97,68,400,444,351,297
156,570,414,-363,-129,492,-97,58,405,453,351,312
136,566,429,-351,-146,497,-92,48,405,444,356,307
122,556,434,-339,-156,495,-82,43,405,439,346,307
102,541,439,-322,-168,490,-68,43,405,434,341,307
107,541,434,-324,-163,488,-68,43,390,405,341,312
102,517,414,-309,-156,466,-58,39,370,390,322,297
97,497,400,-297,-151,448,-53,34,351,380,307,278
92,478,385,-285,-146,431,-53,29,341,366,292,263
97,448,351,-273,-126,400,-43,29,336,351,287,258
92,434,341,-263,-124,387,-43,29,322,331,263,244
87,414,326,-251,-119,370,-39,29,307,312,244,229
78,385,307,-231,-114,346,-24,29,287,287,224,209
92,370,278,-231,-92,324,-14,19,268,273,195,195
82,341,258,-212,-87,300,-4,24,244,248,175,170
78,307,229,-192,-75,268,9,29,224,224,161,156
73,278,204,-175,-65,241,9,29,204,209,136,141
68,239,170,-153,-51,204,9,29,170,185,117,122
73,209,136,-141,-31,173,19,29,156,161,92,102
68,190,122,-129,-26,156,19,24,136,136,68,82
73,165,92,-119,-9,129,24,19,117,117,53,63
68,136,68,-102,0,102,19,9,92,87,39,58
68,107,39,-87,14,73,24,9,78,68,14,43
63,78,14,-70,24,46,29,9,58,53,0,29
58,48,-9,-53,34,19,34,9,43,39,-9,14
63,24,-39,-43,51,-7,29,0,24,19,-29,-4
63,14,-48,-39,56,-17,29,0,4,9,-43,-19
73,9,-63,-41,68,-26,29,0,-4,-14,-58,-34
78,-4,-82,-36,80,-43,29,-4,-9,-24,-73,-39
78,-19,-97,-29,87,-58,24,4,-24,-43,-92,-48
82,-34,-117,-24,100,-75,24,4,-34,-53,-102,-58
87,-48,-136,-19,112,-92,29,4,-43,-63,-107,-68
92,-53,-146,-19,119,-100,29,4,-48,-63,-112,-68
82,-58,-141,-12,112,-100,29,-4,-68,-73,-117,-73
82,-68,-151,-7,117,-109,29,-4,-68,-78,-117,-78
82,-73,-156,-4,119,-114,29,-4,-68,-78,-122,-82
78,-78,-156,0,117,-117,29,-4,-68,-82,-122,-82
63,-82,-146,9,104,-114,29,-4,-58,-73,-117,-73
58,-82,-141,12,100,-112,34,-4,-63,-73,-117,-73
48,-92,-141,21,95,-117,34,-9,-68,-82,-122,-82
43,-97,-141,26,92,-119,34,-9,-68,-82,-122,-82
39,-92,-131,26,85,-112,43,-19,-68,-82,-112,-78
34,-92,-126,29,80,-109,48,-19,-68,-82,-112,-78
29,-92,-122,31,75,-107,48,-19,-73,-82,-117,-78
24,-87,-112,31,68,-100,48,-14,-73,-82,-117,-78
14,-92,-107,39,61,-100,39,-19,-73,-82,-126,-78
14,-87,-102,36,58,-95,39,-19,-73,-82,-126,-78
14,-87,-102,36,58,-95,39,-19,-73,-82,-126,-82
14,-87,-102,36,58,-95,39,-14,-73,-82,-126,-82
24,-92,-117,34,70,-104,34,-24,-78,-87,-131,-87
34,-97,-131,31,82,-114,29,-24,-82,-92,-136,-92
43,-107,-151,31,97,-129,24,-24,-87,-97,-141,-97
53,-112,-165,29,109,-139,19,-24,-92,-102,-146,-102
63,-122,-185,29,124,-153,19,-24,-102,-107,-156,-112
63,-122,-185,29,124,-153,19,-24,-97,-112,-156,-112
63,-122,-185,29,124,-153,19,-24,-97,-117,-156,-112
63,-122,-185,29,124,-153,19,-24,-97,-122,-156,-107
58,-117,-175,29,117,-146,29,-14,-87,-112,-156,-102
53,-117,-170,31,112,-143,29,-14,-87,-112,-156,-92
48,-117,-165,34,107,-141,29,-14,-87,-112,-156,-87
48,-117,-165,34,107,-141,29,-14,-87,-112,-156,-82
43,-112,-156,34,100,-134,39,-9,-78,-102,-146,-73
39,-107,-146,34,92,-126,39,-4,-73,-102,-146,-73
34,-107,-141,36,87,-124,39,0,-73,-102,-141,-73
29,-107,-136,39,82,-122,39,4,-73,-102,-141,-68
14,-92,-107,39,61,-100,43,9,-63,-92,-126,-63
0,-92,-92,46,46,-92,48,9,-58,-87,-122,-58
-14,-92,-78,53,31,-85,53,9,-58,-82,-117,-53
-29,-92,-63,61,17,-78,58,14,-58,-78,-112,-48
-14,-87,-73,51,29,-80,58,14,-58,-68,-112,-48
-9,-82,-73,46,31,-78,53,14,-58,-68,-112,-48
-4,-78,-73,41,34,-75,53,9,-58,-68,-112,-48
0,-73,-73,36,36,-73,53,9,-63,-68,-112,-48
0,-73,-73,36,36,-73,53,19,-53,-78,-112,-48
0,-73,-73,36,36,-73,53,19,-53,-78,-112,-48
-4,-78,-73,41,34,-75,53,14,-53,-78,-112,-48
-4,-78,-73,41,34,-75,53,14,-53,-78,-112,-48
-19,-87,-68,53,24,-78,63,24,-53,-73,-112,-58
-24,-87,-63,56,19,-75,58,24,-58,-73,-112,-58
-29,-87,-58,58,14,-73,58,24,-58,-73,-112,-58
-34,-87,-53,61,9,-70,58,24,-58,-73,-112,-58
-43,-97,-53,70,4,-75,58,14,-48,-73,-112,-48
-53,-102,-48,78,-2,-75,58,14,-48,-73,-112,-48
-63,-107,-43,85,-9,-75,58,14,-48,-73,-112,-48
-73,-107,-34,90,-19,-70,58,14,-53,-73,-112,-48
-68,-117,-48,92,-9,-82,48,4,-58,-78,-122,-58
-63,-117,-53,90,-4,-85,48,4,-63,-82,-122,-58
-58,-117,-58,87,0,-87,48,4,-68,-87,-122,-63
-53,-117,-63,85,4,-90,48,4,-73,-92,-126,-63
-48,-112,-63,80,7,-87,48,9,-73,-87,-117,-63
-43,-112,-68,78,12,-90,48,9,-78,-87,-117,-63
-39,-112,-73,75,17,-92,48,9,-78,-92,-117,-63
-39,-117,-78,78,19,-97,48,9,-78,-97,-117,-63
-58,-117,-58,87,0,-87,58,14,-78,-92,-112,-63
-73,-117,-43,95,-14,-80,63,14,-73,-87,-112,-58
-82,-117,-34,100,-24,-75,68,14,-68,-82,-107,-53
-92,-117,-24,104,-34,-70,73,9,-63,-78,-102,-53
-92,-107,-14,100,-39,-61,82,14,-53,-68,-87,-43
-97,-107,-9,102,-43,-58,82,19,-53,-68,-87,-43
-102,-107,-4,104,-48,-56,82,24,-58,-68,-87,-43
-112,-112,0,112,-56,-56,82,29,-58,-68,-87,-43
-117,-122,-4,119,-56,-63,82,19,-53,-73,-87,-43
-122,-126,-4,124,-58,-65,82,19,-53,-73,-92,-43
-126,-131,-4,129,-61,-68,82,19,-58,-73,-92,-43
-126,-131,-4,129,-61,-68,82,19,-58,-78,-92,-43
-112,-141,-29,126,-41,-85,78,9,-73,-87,-102,-58
-92,-141,-48,117,-21,-95,73,9,-78,-92,-112,-68
-78,-151,-73,114,-2,-112,63,9,-82,-97,-117,-73
-63,-156,-92,109,14,-124,53,9,-92,-112,-122,-78
-48,-151,-102,100,26,-126,53,9,-92,-112,-136,-82
-43,-151,-107,97,31,-129,53,9,-97,-117,-141,-82
-39,-151,-112,95,36,-131,53,9,-97,-117,-141,-82
-34,-146,-112,90,39,-129,53,9,-97,-117,-141,-82
-14,-136,-122,75,53,-129,43,19,-107,-126,-141,-92
4,-136,-141,65,73,-139,43,19,-107,-126,-131,-92
4,-136,-141,65,73,-139,43,19,-112,-126,-131,-102
0,-141,-141,70,70,-141,39,19,-112,-126,-131,-102
-9,-146,-136,78,63,-141,39,19,-107,-126,-126,-97
-24,-156,-131,90,53,-143,48,9,-107,-126,-126,-97
-29,-156,-126,92,48,-141,48,9,-107,-126,-126,-97
-34,-156,-122,95,43,-139,48,9,-107,-126,-126,-97
-39,-156,-117,97,39,-136,48,9,-107,-126,-126,-97
-53,-161,-107,107,26,-134,48,0,-107,-126,-117,-102
-63,-161,-97,112,17,-129,48,0,-112,-126,-122,-102
-68,-165,-97,117,14,-131,48,0,-112,-131,-122,-102
-78,-170,-92,124,7,-131,48,0,-112,-131,-122,-107
-78,-161,-82,119,2,-122,48,0,-112,-141,-126,-97
-78,-165,-87,122,4,-126,48,0,-117,-141,-126,-97
-78,-165,-87,122,4,-126,48,0,-117,-146,-126,-102
-78,-165,-87,122,4,-126,48,0,-117,-146,-126,-102
-87,-165,-78,126,-4,-122,48,4,-117,-146,-122,-92
-87,-165,-78,126,-4,-122,53,4,-117,-141,-122,-92
-87,-165,-78,126,-4,-122,53,4,-117,-136,-117,-97
-87,-165,-78,126,-4,-122,53,4,-117,-131,-112,-97
-102,-165,-63,134,-19,-114,63,4,-112,-131,-112,-87
-107,-170,-63,139,-21,-117,63,4,-112,-131,-107,-92
-117,-170,-53,143,-31,-112,63,4,-112,-131,-102,-92
-122,-170,-48,146,-36,-109,63,4,-112,-131,-97,-92
-117,-161,-43,139,-36,-102,63,4,-112,-131,-92,-92
-112,-161,-48,136,-31,-104,63,4,-112,-131,-92,-92
-107,-161,-53,134,-26,-107,63,4,-117,-131,-87,-92
-102,-161,-58,131,-21,-109,63,4,-117,-136,-87,-92
-87,-151,-63,119,-12,-107,53,-4,-117,-136,-97,-92
-82,-151,-68,117,-7,-109,53,-4,-117,-136,-97,-92
-78,-151,-73,114,-2,-112,53,-4,-112,-136,-97,-92
-68,-151,-82,109,7,-117,53,-4,-112,-136,-92,-92
-48,-156,-107,102,29,-131,48,-14,-117,-146,-92,-92
-29,-146,-117,87,43,-131,43,-14,-117,-141,-97,-97
-14,-141,-126,78,56,-134,39,-14,-122,-141,-97,-97
4,-136,-141,65,73,-139,34,-14,-126,-136,-102,-102
14,-122,-136,53,75,-129,34,-14,-122,-141,-102,-97
29,-122,-151,46,90,-136,39,-14,-122,-136,-102,-97
39,-117,-156,39,97,-136,39,-14,-117,-136,-97,-97
43,-117,-161,36,102,-139,39,-19,-117,-136,-97,-92
39,-112,-151,36,95,-131,48,-14,-112,-126,-92,-82
39,-112,-151,36,95,-131,48,-9,-107,-126,-92,-82
34,-112,-146,39,90,-129,43,-4,-102,-126,-87,-87
29,-112,-141,41,85,-126,43,0,-97,-131,-87,-87
24,-112,-136,43,80,-124,24,-9,-107,-122,-78,-87
29,-112,-141,41,85,-126,24,-9,-107,-122,-78,-87
34,-112,-146,39,90,-129,19,-14,-107,-122,-73,-82
34,-112,-146,39,90,-129,14,-14,-107,-122,-68,-78
29,-117,-146,43,87,-131,0,-14,-107,-126,-73,-78
29,-107,-136,39,82,-122,-4,-14,-107,-126,-73,-78
34,-102,-136,34,85,-119,-9,-19,-107,-126,-73,-78
29,-97,-126,34,78,-112,-14,-19,-102,-126,-73,-73
34,-82,-117,24,75,-100,-19,-19,-112,-131,-63,-73
43,-78,-122,17,82,-100,-19,-19,-112,-131,-63,-63
53,-68,-122,7,87,-95,-19,-19,-102,-122,-58,-58
63,-63,-126,0,95,-95,-19,-19,-97,-117,-53,-53
48,-48,-97,0,73,-73,-9,-4,-87,-112,-39,-39
43,-43,-87,0,65,-65,-9,0,-87,-107,-39,-39
43,-43,-87,0,65,-65,-9,0,-87,-102,-39,-39
39,-43,-82,2,61,-63,0,9,-87,-97,-39,-39
24,-53,-78,14,51,-65,4,19,-82,-87,-34,-34
9,-58,-68,24,39,-63,14,19,-78,-87,-29,-29
-14,-63,-48,39,17,-56,24,19,-82,-87,-29,-24
-34,-73,-39,53,2,-56,29,19,-78,-97,-29,-29
-53,-97,-43,75,-4,-70,39,29,-73,-97,-24,-24
-78,-117,-39,97,-19,-78,48,29,-78,-97,-29,-29
-102,-131,-29,117,-36,-80,48,29,-92,-102,-43,-39
-126,-151,-24,139,-51,-87,48,29,-92,-107,-48,-53
-151,-151,0,151,-75,-75,63,29,-97,-107,-48,-48
-161,-165,-4,163,-78,-85,68,29,-97,-117,-53,-48
-175,-175,0,175,-87,-87,68,29,-107,-122,-63,-58
-185,-190,-4,187,-90,-97,73,24,-112,-126,-63,-58
-190,-195,-4,192,-92,-100,82,29,-102,-126,-68,-58
-195,-204,-9,200,-92,-107,82,34,-107,-126,-73,-63
-200,-214,-14,207,-92,-114,82,39,-107,-126,-73,-68
-204,-219,-14,212,-95,-117,87,39,-107,-122,-73,-68
-224,-229,-4,226,-109,-117,92,48,-107,-112,-73,-63
-229,-229,0,229,-114,-114,97,48,-102,-112,-68,-58
-229,-229,0,229,-114,-114,102,48,-92,-112,-63,-53
-234,-229,4,231,-119,-112,107,48,-87,-112,-58,-48
-244,-239,4,241,-124,-117,107,58,-78,-102,-48,-48
-248,-239,9,244,-129,-114,107,58,-78,-102,-48,-48
-248,-244,4,246,-126,-119,107,58,-78,-97,-48,-43
-248,-244,4,246,-126,-119,107,58,-78,-97,-48,-43
-239,-239,0,239,-119,-119,107,48,-78,-97,-48,-43
-239,-239,0,239,-119,-119,107,48,-78,-97,-48,-43
-239,-239,0,239,-119,-119,107,48,-78,-97,-43,-43
-244,-234,9,239,-126,-112,107,48,-73,-97,-43,-43
-224,-234,-9,229,-107,-122,102,43,-78,-107,-53,-43
-214,-234,-19,224,-97,-126,102,43,-82,-107,-53,-43
-204,-239,-34,222,-85,-136,102,43,-92,-107,-53,-43
-195,-239,-43,217,-75,-141,102,43,-97,-107,-63,-48
-175,-229,-53,202,-61,-141,97,43,-97,-117,-82,-53
-180,-239,-58,209,-61,-148,107,43,-97,-117,-87,-58
-190,-248,-58,219,-65,-153,122,48,-92,-126,-97,-73
-200,-253,-53,226,-73,-153,141,58,-92,-126,-102,-78
-190,-253,-63,222,-63,-158,141,73,-78,-122,-102,-82
-161,-229,-68,195,-46,-148,136,92,-58,-102,-87,-82
-146,-185,-39,165,-53,-112,126,112,-14,-63,-63,-63
-117,-122,-4,119,-56,-63,126,131,48,-14,-39,-43
-92,-58,34,75,-63,-12,112,151,97,43,14,0
-53,14,68,19,-61,41,87,151,141,92,48,29
-29,92,122,-31,-75,107,43,126,165,131,97,68
14,175,161,-95,-73,168,-14,82,175,185,161,122
34,278,244,-156,-104,261,-78,19,209,248,244,204
58,409,351,-234,-146,380,-156,-63,239,326,341,292
102,585,483,-344,-190,534,-302,-175,297,453,468,395
151,771,619,-461,-234,695,-492,-326,366,570,600,522
185,912,727,-549,-270,819,-658,-478,400,649,697,619
185,941,756,-563,-285,849,-775,-614,341,629,722,668
151,834,683,-492,-265,758,-849,-702,170,492,663,668
107,614,507,-361,-200,561,-868,-761,-58,278,522,585
63,317,253,-190,-95,285,-854,-775,-317,19,326,463
0,14,14,-7,-7,14,-810,-761,-556,-234,126,326
-82,-234,-151,158,34,-192,-736,-736,-727,-444,-48,204
-190,-400,-209,295,9,-305,-634,-712,-810,-561,-161,117
-292,-483,-190,387,-51,-336,-541,-678,-829,-580,-195,82
-322,-522,-200,422,-61,-361,-468,-614,-775,-566,-229,39
-322,-570,-248,446,-36,-409,-405,-522,-727,-556,-263,-29
-307,-605,-297,456,-4,-451,-346,-448,-688,-551,-297,-97
-287,-590,-302,439,7,-446,-297,-370,-629,-517,-307,-117
-239,-551,-312,395,36,-431,-253,-297,-536,-448,-283,-126
-214,-497,-283,356,34,-390,-195,-229,-444,-385,-253,-136
-185,-444,-258,314,36,-351,-126,-170,-366,-326,-224,-126
-165,-385,-219,275,26,-302,-68,-112,-302,-278,-185,-117
-151,-331,-180,241,14,-256,-29,-87,-248,-234,-151,-102
-131,-302,-170,217,19,-236,0,-68,-214,-200,-131,-82
-122,-268,-146,195,12,-207,19,-39,-180,-161,-102,-73
-112,-229,-117,170,2,-173,39,-34,-146,-136,-87,-63
-107,-190,-82,148,-12,-136,48,-24,-102,-107,-63,-48
-107,-161,-53,134,-26,-107,48,-24,-82,-78,-48,-34
-92,-131,-39,112,-26,-85,48,-24,-63,-68,-29,-24
-92,-117,-24,104,-34,-70,48,-19,-48,-58,-19,-14
-78,-117,-39,97,-19,-78,48,-4,-58,-58,-29,-24
-73,-112,-39,92,-17,-75,48,0,-53,-58,-29,-24
-63,-112,-48,87,-7,-80,48,9,-53,-48,-24,-24
-63,-107,-43,85,-9,-75,48,9,-53,-43,-19,-24
-43,-102,-58,73,7,-80,39,9,-48,-43,-24,-29
-39,-102,-63,70,12,-82,43,9,-43,-48,-29,-29
-29,-97,-68,63,19,-82,43,9,-43,-58,-34,-34
-14,-97,-82,56,34,-90,43,9,-48,-63,-39,-39
4,-97,-102,46,53,-100,34,4,-58,-63,-43,-43
14,-97,-112,41,63,-104,34,14,-58,-68,-48,-48
19,-97,-117,39,68,-107,34,14,-58,-68,-53,-53
29,-97,-126,34,78,-112,34,14,-58,-73,-58,-58
19,-92,-112,36,65,-102,34,14,-53,-53,-63,-58
19,-92,-112,36,65,-102,34,14,-53,-53,-53,-58
19,-78,-97,29,58,-87,29,9,-43,-53,-53,-58
19,-73,-92,26,56,-82,29,9,-39,-43,-48,-58
24,-78,-102,26,63,-90,29,0,-43,-53,-48,-48
24,-78,-102,26,63,-90,29,0,-39,-53,-48,-48
19,-78,-97,29,58,-87,34,4,-39,-53,-43,-48
19,-78,-97,29,58,-87,34,4,-39,-43,-43,-48
39,-78,-117,19,78,-97,34,9,-39,-48,-43,-58
43,-73,-117,14,80,-95,34,9,-34,-43,-39,-58
48,-63,-112,7,80,-87,24,4,-24,-39,-29,-53
53,-58,-112,2,82,-85,24,4,-19,-39,-29,-53
63,-43,-107,-9,85,-75,24,4,-24,-29,-43,-43
68,-43,-112,-12,90,-78,24,4,-24,-29,-43,-39
73,-43,-117,-14,95,-80,24,9,-24,-29,-39,-39
73,-34,-107,-19,90,-70,29,9,-24,-29,-34,-39
68,-19,-87,-24,78,-53,39,19,-19,-9,-24,-34
68,-19,-87,-24,78,-53,34,19,-4,0,-19,-34
63,0,-63,-31,63,-31,29,19,9,4,-9,-24
58,9,-48,-34,53,-19,24,19,29,9,-4,-19
58,9,-48,-34,53,-19,24,9,39,14,9,-24
53,19,-34,-36,43,-7,24,9,39,24,14,-19
53,19,-34,-36,43,-7,24,9,39,29,19,-14
48,24,-24,-36,36,0,24,9,43,39,24,-14
53,14,-39,-34,46,-12,24,9,34,34,19,-24
53,29,-24,-41,39,2,14,9,43,43,19,-19
53,39,-14,-46,34,12,9,9,48,48,24,-19
53,53,0,-53,26,26,4,9,53,48,34,-9
53,53,0,-53,26,26,14,14,58,53,39,-9
53,58,4,-56,24,31,9,14,68,58,43,-9
63,73,9,-68,26,41,9,14,68,63,53,0
73,82,9,-78,31,46,9,19,73,73,58,4
82,92,9,-87,36,51,0,9,68,68,63,9
87,102,14,-95,36,58,-4,14,73,78,68,14
92,112,19,-102,36,65,-9,19,78,87,73,19
92,122,29,-107,31,75,-14,19,92,97,82,24
97,136,39,-117,29,87,-29,19,102,97,78,19
102,146,43,-124,29,95,-34,19,112,102,92,24
112,156,43,-134,34,100,-34,29,122,112,97,39
117,165,48,-141,34,107,-34,34,122,112,102,39
122,175,53,-148,34,114,-34,39,117,126,107,43
126,195,68,-161,29,131,-43,39,122,136,117,48
131,209,78,-170,26,143,-48,34,136,156,126,63
136,234,97,-185,19,165,-53,34,151,170,136,73
141,258,117,-200,12,187,-53,29,180,185,146,68
146,278,131,-212,7,204,-53,29,195,200,156,82
151,297,146,-224,2,222,-58,29,204,214,170,92
156,307,151,-231,2,229,-58,39,209,219,180,97
165,307,141,-236,12,224,-58,48,214,239,190,102
175,331,156,-253,9,244,-63,53,219,248,209,117
185,356,170,-270,7,263,-68,53,234,263,214,126
185,375,190,-280,-2,283,-78,53,244,278,234,131
204,405,200,-305,2,302,-82,63,258,278,239,151
204,429,224,-317,-9,326,-87,63,268,287,248,161
204,448,244,-326,-19,346,-87,63,278,307,263,180
204,458,253,-331,-24,356,-87,63,287,312,273,185
195,458,263,-326,-34,361,-78,68,307,322,283,204
204,468,263,-336,-29,366,-87,73,307,331,292,209
204,478,273,-341,-34,375,-92,73,312,341,302,214
209,492,283,-351,-36,387,-97,73,322,351,312,224
224,507,283,-366,-29,395,-102,73,326,361,322,234
224,522,297,-373,-36,409,-107,73,341,361,331,244
224,527,302,-375,-39,414,-107,68,346,375,336,244
234,541,307,-387,-36,424,-107,68,346,380,341,248
234,551,317,-392,-41,434,-102,78,346,395,346,253
239,556,317,-397,-39,436,-107,78,346,400,351,253
239,561,322,-400,-41,441,-112,78,346,405,356,263
234,566,331,-400,-48,448,-117,68,356,409,356,268
234,585,351,-409,-58,468,-122,73,370,424,366,273
234,595,361,-414,-63,478,-122,63,375,429,370,278
224,600,375,-412,-75,488,-122,58,375,429,375,287
224,605,380,-414,-78,492,-117,58,375,429,380,292
214,614,400,-414,-92,507,-126,53,375,429,385,302
214,614,400,-414,-92,507,-126,48,375,429,390,297
214,610,395,-412,-90,502,-126,48,366,429,390,297
204,605,400,-405,-97,502,-126,48,361,424,390,297
190,590,400,-390,-104,495,-122,48,370,419,385,307
185,585,400,-385,-107,492,-122,39,366,405,385,297
185,575,390,-380,-102,483,-117,34,361,395,370,292
180,561,380,-370,-100,470,-107,34,356,385,361,287
170,551,380,-361,-104,466,-112,29,341,375,351,283
161,527,366,-344,-102,446,-97,29,322,361,331,268
151,507,356,-329,-102,431,-87,29,302,351,317,248
141,488,346,-314,-102,417,-82,29,292,336,302,234
126,463,336,-295,-104,400,-63,19,287,322,287,219
122,444,322,-283,-100,383,-63,19,273,302,263,204
117,419,302,-268,-92,361,-58,19,258,283,244,190
107,385,278,-246,-85,331,-43,19,239,258,224,170
107,361,253,-234,-73,307,-34,19,219,234,204,165
92,331,239,-212,-73,285,-24,24,195,209,185,141
82,297,214,-190,-65,256,-9,29,175,185,170,126
73,268,195,-170,-61,231,-9,29,156,170,146,112
53,239,185,-146,-65,212,0,29,136,151,131,97
53,209,156,-131,-51,183,9,29,126,131,112,82
43,190,146,-117,-51,168,9,24,112,112,92,68
43,165,122,-104,-39,143,14,19,97,97,82,53
34,141,107,-87,-36,124,29,19,82,78,68,48
29,117,87,-73,-29,102,34,19,68,58,43,34
19,92,73,-56,-26,82,39,19,48,43,29,19
9,68,58,-39,-24,63,43,19,34,29,19,4
9,43,34,-26,-12,39,48,19,19,4,-4,-9
4,34,29,-19,-12,31,48,19,4,0,-14,-19
9,29,19,-19,-4,24,48,19,0,-19,-24,-29
9,14,4,-12,2,9,48,14,0,-24,-34,-29
4,0,-4,-2,4,-2,43,14,-14,-34,-43,-39
4,-14,-19,4,12,-17,43,14,-24,-43,-53,-48
4,-29,-34,12,19,-31,48,14,-34,-53,-58,-58
4,-34,-39,14,21,-36,48,14,-39,-53,-63,-58
0,-48,-48,24,24,-48,48,4,-48,-63,-68,-63
-4,-58,-53,31,24,-56,48,4,-48,-68,-68,-68
-9,-63,-53,36,21,-58,48,4,-48,-68,-73,-73
-19,-68,-48,43,14,-58,48,4,-48,-73,-73,-73
-19,-78,-58,48,19,-68,48,4,-48,-82,-78,-73
-19,-82,-63,51,21,-73,53,4,-53,-82,-78,-73
-24,-97,-73,61,24,-85,53,0,-58,-92,-82,-82
-24,-107,-82,65,29,-95,53,0,-58,-92,-82,-82
-34,-107,-73,70,19,-90,63,9,-58,-82,-82,-78
-34,-112,-78,73,21,-95,68,9,-58,-82,-82,-78
-34,-117,-82,75,24,-100,68,9,-63,-82,-87,-78
-34,-117,-82,75,24,-100,68,14,-63,-82,-87,-78
-43,-117,-73,80,14,-95,78,29,-53,-82,-78,-78
-43,-117,-73,80,14,-95,78,29,-53,-82,-78,-78
-43,-122,-78,82,17,-100,78,29,-53,-82,-78,-82
-43,-126,-82,85,19,-104,78,34,-53,-82,-78,-82
-53,-136,-82,95,14,-109,78,34,-53,-82,-78,-73
-53,-136,-82,95,14,-109,78,34,-53,-82,-78,-73
-53,-141,-87,97,17,-114,78,34,-53,-82,-78,-73
-53,-141,-87,97,17,-114,78,34,-53,-82,-78,-73
-43,-136,-92,90,24,-114,68,24,-53,-82,-87,-73
-43,-131,-87,87,21,-109,68,24,-48,-82,-87,-73
-43,-126,-82,85,19,-104,68,24,-48,-82,-87,-73
-43,-122,-78,82,17,-100,68,24,-48,-82,-87,-68
-34,-107,-73,70,19,-90,68,24,-58,-92,-87,-78
-34,-107,-73,70,19,-90,68,24,-58,-92,-87,-73
-34,-107,-73,70,19,-90,68,24,-58,-92,-87,-73
-29,-107,-78,68,24,-92,68,24,-58,-92,-87,-73
-19,-102,-82,61,31,-92,68,24,-58,-92,-97,-82
-19,-97,-78,58,29,-87,68,24,-53,-92,-97,-82
-19,-97,-78,58,29,-87,68,24,-53,-92,-92,-82
-19,-97,-78,58,29,-87,68,24,-53,-92,-92,-78
-19,-102,-82,61,31,-92,58,19,-53,-87,-92,-78
-19,-102,-82,61,31,-92,58,19,-48,-87,-92,-78
-19,-102,-82,61,31,-92,58,19,-48,-87,-92,-78
-19,-102,-82,61,31,-92,58,24,-48,-87,-92,-78
-9,-112,-102,61,46,-107,58,14,-58,-87,-102,-87
-9,-112,-102,61,46,-107,53,14,-58,-87,-102,-87
-9,-112,-102,61,46,-107,53,9,-58,-87,-102,-87
-9,-112,-102,61,46,-107,53,9,-63,-87,-102,-87
0,-122,-122,61,61,-122,53,9,-53,-97,-102,-87
0,-122,-122,61,61,-122,53,9,-53,-97,-102,-87
-4,-126,-122,65,58,-124,53,4,-53,-97,-102,-87
-4,-126,-122,65,58,-124,53,4,-53,-97,-102,-87
-4,-126,-122,65,58,-124,63,4,-53,-102,-102,-87
-4,-126,-122,65,58,-124,58,4,-58,-102,-102,-87
-4,-126,-122,65,58,-124,58,4,-58,-102,-102,-87
-4,-126,-122,65,58,-124,58,4,-58,-102,-102,-87
4,-126,-131,61,68,-129,58,4,-58,-102,-102,-87
4,-131,-136,63,70,-134,58,4,-58,-102,-102,-87
4,-136,-141,65,73,-139,58,4,-58,-102,-102,-87
4,-136,-141,65,73,-139,58,4,-63,-102,-102,-87
-4,-136,-131,70,63,-134,58,4,-63,-112,-102,-78
-4,-136,-131,70,63,-134,58,4,-63,-112,-102,-78
-4,-136,-131,70,63,-134,58,4,-63,-112,-102,-82
-4,-136,-131,70,63,-134,58,4,-63,-112,-107,-82
-4,-131,-126,68,61,-129,58,0,-73,-117,-107,-82
-4,-131,-126,68,61,-129,58,0,-78,-117,-107,-82
-4,-131,-126,68,61,-129,58,0,-78,-122,-107,-82
-9,-136,-126,73,58,-131,58,0,-78,-126,-107,-82
-9,-146,-136,78,63,-141,53,4,-82,-117,-107,-87
-14,-146,-131,80,58,-139,53,4,-82,-117,-112,-87
-14,-146,-131,80,58,-139,53,4,-82,-117,-112,-87
-14,-146,-131,80,58,-139,53,0,-82,-117,-112,-92
-9,-156,-146,82,68,-151,53,0,-82,-117,-117,-102
-9,-156,-146,82,68,-151,53,0,-82,-117,-117,-102
-9,-156,-146,82,68,-151,53,0,-87,-117,-117,-102
-14,-161,-146,87,65,-153,53,0,-87,-117,-117,-102
-14,-161,-146,87,65,-153,53,0,-82,-122,-126,-112
-14,-165,-151,90,68,-158,53,0,-82,-122,-131,-112
-14,-170,-156,92,70,-163,53,0,-87,-122,-131,-112
-9,-170,-161,90,75,-165,53,0,-87,-126,-131,-112
-19,-161,-141,90,61,-151,53,-9,-97,-131,-136,-112
-14,-161,-146,87,65,-153,53,-9,-97,-131,-141,-117
-14,-170,-156,92,70,-163,48,-9,-97,-131,-141,-117
-14,-175,-161,95,73,-168,43,-9,-102,-141,-141,-117
-9,-165,-156,87,73,-161,53,-9,-102,-141,-146,-122
-4,-170,-165,87,80,-168,53,-9,-107,-146,-151,-122
0,-175,-175,87,87,-175,53,-9,-107,-146,-151,-122
4,-175,-180,85,92,-178,53,-9,-107,-146,-151,-122
4,-175,-180,85,92,-178,43,-9,-107,-156,-151,-131
4,-175,-180,85,92,-178,43,-9,-107,-156,-151,-131
4,-175,-180,85,92,-178,43,-9,-112,-156,-151,-131
0,-180,-180,90,90,-180,48,-9,-112,-156,-151,-131
9,-170,-180,80,95,-175,53,-9,-112,-156,-151,-131
9,-180,-190,85,100,-185,53,-9,-112,-156,-151,-122
9,-175,-185,82,97,-180,48,-9,-117,-156,-156,-126
0,-175,-175,87,87,-175,48,-9,-117,-156,-156,-126
0,-175,-175,87,87,-175,48,-9,-117,-156,-156,-126
0,-175,-175,87,87,-175,48,-9,-117,-156,-156,-126
0,-175,-175,87,87,-175,48,-9,-117,-156,-156,-126
0,-170,-170,85,85,-170,48,-19,-126,-156,-156,-122
-4,-170,-165,87,80,-168,48,-19,-131,-156,-161,-122
-4,-175,-170,90,82,-173,48,-19,-131,-161,-161,-122
-9,-180,-170,95,80,-175,48,-19,-131,-161,-161,-126
0,-180,-180,90,90,-180,48,-19,-122,-161,-165,-126
0,-185,-185,92,92,-185,48,-19,-126,-161,-165,-126
0,-185,-185,92,92,-185,48,-19,-126,-165,-165,-131
0,-185,-185,92,92,-185,48,-19,-126,-165,-165,-131
0,-195,-195,97,97,-195,48,-24,-126,-170,-175,-131
0,-195,-195,97,97,-195,53,-24,-126,-170,-180,-131
0,-195,-195,97,97,-195,53,-24,-126,-170,-180,-136
0,-195,-195,97,97,-195,53,-24,-126,-170,-180,-136
0,-195,-195,97,97,-195,53,-24,-131,-170,-175,-136
0,-200,-200,100,100,-200,53,-24,-131,-170,-175,-141
-4,-200,-195,102,95,-197,53,-24,-131,-170,-175,-141
-4,-200,-195,102,95,-197,53,-24,-131,-170,-175,-141
-4,-195,-190,100,92,-192,53,-24,-131,-170,-180,-131
-4,-190,-185,97,90,-187,53,-24,-131,-170,-180,-131
-4,-185,-180,95,87,-183,53,-24,-136,-170,-175,-131
-4,-180,-175,92,85,-178,53,-24,-136,-175,-175,-131
-14,-180,-165,97,75,-173,43,-24,-136,-165,-175,-131
-14,-180,-165,97,75,-173,43,-24,-136,-165,-175,-131
-14,-180,-165,97,75,-173,43,-24,-131,-165,-175,-131
-9,-180,-170,95,80,-175,43,-24,-131,-165,-170,-131
0,-185,-185,92,92,-185,43,-14,-131,-165,-175,-126
0,-175,-175,87,87,-175,43,-14,-126,-161,-175,-126
-4,-170,-165,87,80,-168,43,-14,-126,-161,-170,-122
-4,-165,-161,85,78,-163,43,-14,-126,-156,-170,-122
-4,-170,-165,87,80,-168,53,-14,-122,-161,-170,-126
0,-170,-170,85,85,-170,58,-14,-122,-156,-170,-126
0,-165,-165,82,82,-165,58,-14,-117,-156,-165,-126
-4,-165,-161,85,78,-163,58,-19,-117,-156,-165,-122
4,-161,-165,78,85,-163,58,-19,-117,-146,-156,-122
9,-161,-170,75,90,-165,58,-19,-117,-146,-161,-122
9,-161,-170,75,90,-165,53,-19,-117,-146,-161,-126
9,-161,-170,75,90,-165,53,-19,-117,-151,-165,-126
4,-161,-165,78,85,-163,43,-19,-117,-141,-165,-117
9,-161,-170,75,90,-165,43,-19,-117,-141,-165,-117
14,-161,-175,73,95,-168,39,-24,-117,-141,-161,-112
14,-161,-175,73,95,-168,34,-24,-117,-141,-156,-107
14,-146,-161,65,87,-153,29,-24,-107,-126,-141,-102
19,-136,-156,58,87,-146,24,-24,-107,-126,-141,-97
29,-131,-161,51,95,-146,19,-29,-107,-126,-141,-92
29,-126,-156,48,92,-141,14,-29,-102,-126,-141,-82
34,-117,-151,41,92,-134,0,-19,-92,-122,-122,-82
43,-107,-151,31,97,-129,0,-19,-92,-122,-122,-73
53,-92,-146,19,100,-119,0,-19,-82,-112,-117,-68
63,-82,-146,9,104,-114,0,-19,-78,-107,-112,-63
73,-73,-146,0,109,-109,-9,-14,-87,-97,-107,-48
73,-63,-136,-4,104,-100,-9,-9,-87,-97,-107,-48
78,-58,-136,-9,107,-97,-9,-9,-87,-97,-107,-48
78,-53,-131,-12,104,-92,0,0,-87,-97,-107,-48
78,-63,-141,-7,109,-102,0,0,-87,-107,-107,-58
78,-68,-146,-4,112,-107,4,0,-87,-107,-107,-58
68,-73,-141,2,104,-107,9,0,-97,-107,-112,-58
63,-82,-146,9,104,-114,9,0,-97,-117,-117,-68
48,-97,-146,24,97,-122,9,-9,-102,-112,-122,-73
39,-117,-156,39,97,-136,19,-9,-107,-117,-126,-78
29,-131,-161,51,95,-146,19,-9,-122,-126,-141,-87
19,-151,-170,65,95,-161,19,-9,-122,-136,-146,-102
19,-170,-190,75,104,-180,24,-19,-126,-136,-156,-107
14,-185,-200,85,107,-192,29,-19,-126,-146,-161,-107
4,-195,-200,95,102,-197,29,-19,-136,-151,-170,-117
0,-209,-209,104,104,-209,34,-24,-141,-156,-170,-117
-4,-204,-200,104,97,-202,34,-24,-141,-151,-165,-126
-9,-214,-204,112,97,-209,34,-24,-146,-156,-170,-131
-14,-224,-209,119,97,-217,34,-24,-146,-161,-170,-136
-19,-229,-209,124,95,-219,39,-29,-146,-161,-170,-136
-24,-219,-195,122,85,-207,48,-19,-141,-161,-175,-126
-24,-219,-195,122,85,-207,48,-19,-141,-161,-175,-126
-19,-219,-200,119,90,-209,48,-19,-136,-161,-175,-126
-19,-219,-200,119,90,-209,48,-19,-136,-161,-175,-126
-19,-229,-209,124,95,-219,39,-29,-146,-161,-175,-136
-24,-229,-204,126,90,-217,39,-29,-146,-161,-175,-136
-24,-234,-209,129,92,-222,39,-29,-146,-156,-175,-131
-24,-234,-209,129,92,-222,39,-29,-146,-156,-175,-131
-34,-239,-204,136,85,-222,39,-29,-146,-156,-175,-141
-34,-239,-204,136,85,-222,39,-29,-146,-156,-175,-141
-34,-239,-204,136,85,-222,39,-29,-146,-156,-170,-141
-39,-234,-195,136,78,-214,39,-29,-141,-156,-170,-141
-48,-244,-195,146,73,-219,43,-24,-151,-165,-170,-141
-48,-244,-195,146,73,-219,43,-24,-151,-165,-170,-141
-48,-248,-200,148,75,-224,43,-24,-156,-165,-170,-141
-48,-248,-200,148,75,-224,43,-24,-156,-165,-180,-146
-48,-248,-200,148,75,-224,58,-14,-146,-165,-180,-151
-53,-268,-214,161,80,-241,78,-4,-146,-165,-195,-165
-63,-287,-224,175,80,-256,92,9,-141,-165,-204,-170
-73,-302,-229,187,78,-265,112,19,-141,-175,-219,-185
-63,-302,-239,183,87,-270,122,43,-126,-170,-229,-200
-53,-287,-234,170,90,-261,126,73,-107,-161,-214,-200
-29,-244,-214,136,92,-229,117,102,-53,-112,-190,-190
0,-180,-180,90,90,-180,126,131,0,-63,-146,-161
34,-117,-151,41,92,-134,122,161,58,-14,-112,-136
73,-53,-126,-9,100,-90,97,180,92,34,-78,-107
107,24,-82,-65,95,-29,63,165,117,73,-29,-68
141,107,-34,-124,87,36,14,131,136,126,34,-14
151,209,58,-180,46,134,-39,78,151,180,107,58
165,331,165,-248,0,248,-97,-14,180,258,204,146
200,497,297,-348,-48,397,-214,-117,248,375,322,258
248,692,444,-470,-97,568,-375,-248,317,492,453,375
273,844,570,-558,-148,707,-531,-400,361,570,561,492
253,883,629,-568,-187,756,-629,-536,322,561,595,551
209,775,566,-492,-178,671,-673,-634,170,444,546,541
156,566,409,-361,-126,488,-692,-692,-58,239,414,468
92,278,185,-185,-46,231,-668,-717,-307,-29,219,346
39,-24,-63,-7,51,-43,-624,-702,-536,-273,19,209
-53,-273,-219,163,82,-246,-541,-678,-717,-483,-146,78
-151,-448,-297,300,73,-373,-448,-653,-819,-610,-268,0
-244,-522,-278,383,17,-400,-366,-629,-839,-639,-312,-43
-273,-551,-278,412,2,-414,-312,-556,-785,-614,-326,-78
-283,-600,-317,441,17,-458,-258,-473,-736,-595,-361,-136
-268,-634,-366,451,48,-500,-229,-400,-707,-590,-385,-204
-248,-629,-380,439,65,-505,-200,-341,-649,-556,-385,-234
-200,-590,-390,395,95,-490,-175,-278,-556,-488,-370,-253
-165,-527,-361,346,97,-444,-146,-200,-492,-434,-341,-253
-136,-483,-346,309,104,-414,-97,-151,-414,-375,-312,-244
-126,-434,-307,280,90,-370,-48,-112,-351,-317,-283,-234
-112,-380,-268,246,78,-324,-29,-78,-297,-283,-258,-219
-92,-341,-248,217,78,-295,0,-68,-253,-248,-229,-190
-92,-297,-204,195,56,-251,9,-48,-219,-200,-200,-170
-82,-258,-175,170,46,-217,19,-43,-185,-175,-175,-161
-78,-219,-141,148,31,-180,29,-43,-141,-146,-151,-146
-68,-180,-112,124,21,-146,19,-43,-122,-117,-136,-131
-53,-151,-97,102,21,-124,29,-34,-102,-117,-126,-122
-43,-126,-82,85,19,-104,29,-29,-87,-97,-117,-112
-29,-112,-82,70,26,-97,29,-24,-78,-87,-107,-102
-24,-102,-78,63,26,-90,29,-19,-73,-87,-107,-102
-14,-97,-82,56,34,-90,29,-9,-73,-78,-102,-102
-14,-87,-73,51,29,-80,29,-9,-73,-73,-97,-102
-4,-82,-78,43,36,-80,19,-9,-63,-68,-87,-102
-9,-82,-73,46,31,-78,24,-9,-53,-68,-87,-97
-9,-78,-68,43,29,-73,24,-9,-48,-73,-87,-97
-4,-78,-73,41,34,-75,24,-9,-48,-73,-87,-97
-14,-87,-73,51,29,-80,34,-4,-39,-58,-87,-97
-14,-87,-73,51,29,-80,34,4,-39,-58,-87,-97
-19,-87,-68,53,24,-78,34,4,-39,-53,-87,-97
-19,-87,-68,53,24,-78,34,4,-39,-53,-87,-97
-24,-92,-68,58,21,-80,24,4,-43,-53,-92,-87
-29,-92,-63,61,17,-78,24,4,-43,-53,-82,-87
-34,-78,-43,56,4,-61,19,0,-34,-53,-82,-87
-39,-73,-34,56,-2,-53,19,0,-29,-43,-78,-87
-34,-58,-24,46,-4,-41,29,0,-14,-43,-73,-73
-34,-58,-24,46,-4,-41,29,0,-9,-43,-68,-68
-39,-58,-19,48,-9,-39,34,4,-9,-43,-58,-63
-39,-58,-19,48,-9,-39,34,4,-9,-34,-53,-58
-24,-48,-24,36,0,-36,34,9,0,-29,-53,-58
-24,-43,-19,34,-2,-31,34,9,4,-24,-48,-58
-24,-34,-9,29,-7,-21,24,4,14,-19,-39,-53
-24,-29,-4,26,-9,-17,24,4,19,-19,-39,-53
-19,-19,0,19,-9,-9,24,14,24,-14,-34,-48
-9,-14,-4,12,-2,-9,24,14,24,-9,-34,-39
0,-9,-9,4,4,-9,24,19,24,-4,-29,-34
4,4,0,-4,2,2,29,19,24,0,-24,-29
0,0,0,0,0,0,29,19,24,19,-24,-34
0,0,0,0,0,0,24,19,34,29,-19,-34
-4,19,24,-7,-14,21,19,19,43,34,-9,-24
-9,29,39,-9,-24,34,14,19,58,39,-4,-19
-14,34,48,-9,-31,41,4,19,48,39,0,-14
-14,39,53,-12,-34,46,4,19,48,43,4,-9
-9,34,43,-12,-26,39,4,19,48,43,9,-4
-9,34,43,-12,-26,39,4,19,53,48,14,-4
-4,29,34,-12,-19,31,4,29,43,43,9,-9
-4,39,43,-17,-24,41,-4,29,53,53,9,-9
-4,43,48,-19,-26,46,-9,29,58,58,14,-14
-4,53,58,-24,-31,56,-14,29,63,58,24,-9
-14,63,78,-24,-46,70,-4,24,78,73,29,9
-14,68,82,-26,-48,75,-9,24,87,78,34,9
-4,82,87,-39,-46,85,-9,24,87,82,43,19
4,92,87,-48,-41,90,-9,29,92,92,48,24
9,102,92,-56,-41,97,-9,29,97,97,63,29
9,112,102,-61,-46,107,-14,34,102,107,68,34
9,122,112,-65,-51,117,-19,39,107,117,73,39
4,131,126,-68,-61,129,-24,39,122,126,82,43
9,156,146,-82,-68,151,-29,39,141,146,87,48
14,165,151,-90,-68,158,-34,39,151,151,102,53
24,175,151,-100,-63,163,-34,48,161,161,107,68
29,185,156,-107,-63,170,-34,53,161,161,112,68
43,204,161,-124,-58,183,-24,68,165,175,117,73
48,224,175,-136,-63,200,-34,68,170,185,126,78
53,239,185,-146,-65,212,-39,63,185,204,136,92
58,263,204,-161,-73,234,-43,63,200,219,146,102
78,292,214,-185,-68,253,-53,63,219,224,161,117
87,317,229,-202,-70,273,-53,68,234,239,175,131
97,341,244,-219,-73,292,-58,73,244,253,195,141
107,356,248,-231,-70,302,-58,87,248,258,209,146
112,361,248,-236,-68,305,-68,87,253,258,209,141
117,380,263,-248,-73,322,-73,92,258,268,229,156
122,400,278,-261,-78,339,-78,92,273,283,234,165
117,414,297,-265,-90,356,-87,92,283,297,253,170
122,419,297,-270,-87,358,-102,82,292,307,248,170
117,439,322,-278,-102,380,-107,82,297,317,258,180
112,453,341,-283,-114,397,-107,82,302,336,273,200
107,458,351,-283,-122,405,-107,82,307,341,283,204
87,453,366,-270,-139,409,-107,82,317,341,292,214
87,458,370,-273,-141,414,-117,82,317,351,302,219
78,463,385,-270,-153,424,-122,78,322,361,312,224
73,473,400,-273,-163,436,-126,73,331,370,322,234
82,497,414,-290,-165,456,-131,73,346,390,341,253
87,512,424,-300,-168,468,-136,73,361,390,351,263
92,517,424,-305,-165,470,-136,68,366,405,356,263
107,531,424,-319,-158,478,-136,68,366,409,361,268
117,546,429,-331,-156,488,-141,78,366,424,375,273
122,556,434,-339,-156,495,-146,78,366,429,380,273
122,566,444,-344,-161,505,-151,78,366,434,385,283
117,575,458,-346,-170,517,-156,68,375,439,385,287
122,595,473,-358,-175,534,-161,73,385,453,405,292
126,605,478,-366,-175,541,-161,63,395,458,409,297
122,610,488,-366,-183,549,-161,58,400,458,414,307
126,614,488,-370,-180,551,-156,58,405,458,419,312
126,614,488,-370,-180,551,-165,63,414,468,429,317
126,614,488,-370,-180,551,-165,58,414,468,429,317
126,610,483,-368,-178,546,-165,58,405,468,424,322
117,605,488,-361,-185,546,-165,58,400,463,419,326
112,600,488,-356,-187,544,-170,48,390,463,419,336
107,595,488,-351,-190,541,-170,39,385,453,424,326
107,585,478,-346,-185,531,-165,34,380,448,414,322
102,570,468,-336,-183,519,-156,34,375,444,409,317
102,561,458,-331,-178,509,-161,29,370,434,400,302
92,536,444,-314,-175,490,-146,29,351,419,380,287
82,517,434,-300,-175,475,-136,29,331,409,366,268
73,497,424,-285,-175,461,-131,29,322,395,351,253
58,473,414,-265,-178,444,-112,29,317,370,346,244
53,453,400,-253,-173,427,-112,29,302,351,322,234
48,429,380,-239,-165,405,-107,29,287,331,302,224
39,395,356,-217,-158,375,-92,29,268,307,283,209
39,361,322,-200,-141,341,-68,29,258,292,263,185
24,331,307,-178,-141,319,-53,34,234,268,244,161
14,297,283,-156,-134,290,-34,39,214,244,229,146
4,268,263,-136,-129,265,-29,39,195,229,204,131
-9,229,239,-109,-124,234,-19,34,175,200,180,107
-14,200,214,-92,-114,207,-9,39,165,180,161,92
-29,180,209,-75,-119,195,-9,39,151,161,141,78
-34,156,190,-61,-112,173,-4,39,136,146,131,63
-53,122,175,-34,-114,148,14,39,131,136,117,58
-58,97,156,-19,-107,126,24,39,117,117,92,43
-68,73,141,-2,-104,107,34,39,97,102,78,29
-78,48,126,14,-102,87,43,39,82,87,68,14
-82,34,117,24,-100,75,58,39,78,73,53,0
-92,24,117,34,-104,70,58,39,63,68,43,-9
-92,19,112,36,-102,65,58,39,58,48,34,-19
-97,4,102,46,-100,53,58,34,58,43,24,-19
-112,-9,102,61,-107,46,68,39,43,43,14,-19
-112,-24,87,68,-100,31,73,43,34,34,4,-29
-112,-39,73,75,-92,17,82,48,24,24,0,-39
-112,-43,68,78,-90,12,87,53,19,24,-4,-39
-117,-58,58,87,-87,0,97,53,14,14,-9,-53
-122,-68,53,95,-87,-7,97,53,19,9,-9,-58
-126,-73,53,100,-90,-9,97,53,24,9,-14,-63
-136,-78,58,107,-97,-9,97,53,29,4,-14,-63
-136,-92,43,114,-90,-24,97,53,19,-4,-29,-73
-136,-92,43,114,-90,-24,102,53,14,-4,-29,-73
-141,-102,39,122,-90,-31,102,48,9,-14,-34,-82
-141,-107,34,124,-87,-36,102,48,9,-14,-34,-82
-151,-107,43,129,-97,-31,102,48,0,-24,-34,-87
-151,-112,39,131,-95,-36,107,48,0,-24,-34,-87
-151,-117,34,134,-92,-41,107,48,-4,-24,-39,-87
-151,-117,34,134,-92,-41,107,53,-4,-24,-39,-87
-151,-122,29,136,-90,-46,107,48,-14,-24,-39,-87
-151,-117,34,134,-92,-41,107,48,-14,-24,-39,-87
-151,-117,34,134,-92,-41,107,48,-14,-24,-39,-92
-151,-117,34,134,-92,-41,107,53,-14,-24,-39,-92
-141,-126,14,134,-78,-56,107,53,-14,-34,-48,-102
-141,-126,14,134,-78,-56,107,53,-14,-34,-48,-102
-141,-131,9,136,-75,-61,107,53,-14,-34,-48,-102
-141,-131,9,136,-75,-61,107,53,-14,-34,-48,-102
-141,-122,19,131,-80,-51,107,53,-14,-24,-39,-97
-141,-122,19,131,-80,-51,107,53,-9,-24,-39,-92
-141,-122,19,131,-80,-51,107,53,-9,-24,-39,-87
-141,-122,19,131,-80,-51,107,53,-9,-24,-39,-78
-131,-107,24,119,-78,-41,97,53,-9,-24,-39,-78
-131,-107,24,119,-78,-41,97,53,-9,-24,-39,-73
-131,-107,24,119,-78,-41,97,53,-9,-24,-39,-73
-126,-107,19,117,-73,-43,97,53,-9,-24,-39,-73
-112,-92,19,102,-65,-36,92,43,-14,-34,-39,-73
-107,-87,19,97,-63,-34,87,43,-14,-34,-39,-73
-102,-87,14,95,-58,-36,82,43,-19,-34,-34,-73
-97,-87,9,92,-53,-39,78,43,-24,-34,-34,-68
-92,-82,9,87,-51,-36,68,39,-24,-39,-39,-78
-87,-82,4,85,-46,-39,68,39,-19,-39,-43,-78
-82,-82,0,82,-41,-41,68,39,-19,-39,-48,-78
-78,-82,-4,80,-36,-43,68,43,-19,-39,-53,-78
-68,-82,-14,75,-26,-48,78,43,-19,-39,-43,-68
-68,-82,-14,75,-26,-48,73,43,-19,-39,-43,-68
-68,-82,-14,75,-26,-48,73,39,-19,-39,-43,-68
-68,-82,-14,75,-26,-48,73,39,-24,-39,-43,-68
-58,-73,-14,65,-21,-43,73,48,-14,-29,-34,-58
-58,-73,-14,65,-21,-43,73,48,-14,-29,-34,-58
-63,-78,-14,70,-24,-46,73,43,-14,-29,-34,-58
-63,-78,-14,70,-24,-46,73,43,-14,-29,-34,-58
-63,-87,-24,75,-19,-56,73,34,-24,-34,-43,-58
-63,-87,-24,75,-19,-56,68,34,-29,-34,-43,-58
-63,-87,-24,75,-19,-56,68,34,-29,-34,-43,-58
-63,-87,-24,75,-19,-56,68,34,-29,-34,-43,-58
-63,-87,-24,75,-19,-56,68,24,-29,-39,-53,-68
-63,-92,-29,78,-17,-61,68,24,-29,-43,-53,-68
-63,-97,-34,80,-14,-65,68,24,-29,-48,-53,-68
-63,-97,-34,80,-14,-65,68,24,-34,-53,-53,-68
-63,-97,-34,80,-14,-65,68,24,-43,-63,-53,-68
-63,-97,-34,80,-14,-65,68,24,-43,-63,-53,-68
-63,-97,-34,80,-14,-65,68,24,-43,-63,-53,-73
-63,-97,-34,80,-14,-65,68,24,-43,-63,-58,-73
-53,-112,-58,82,2,-85,68,29,-43,-58,-58,-73
-53,-112,-58,82,2,-85,68,29,-48,-58,-58,-73
-53,-112,-58,82,2,-85,68,29,-48,-63,-58,-73
-58,-117,-58,87,0,-87,68,29,-48,-68,-58,-73
-68,-126,-58,97,-4,-92,73,24,-53,-68,-58,-78
-73,-126,-53,100,-9,-90,73,24,-53,-68,-63,-78
-73,-126,-53,100,-9,-90,73,24,-53,-68,-63,-78
-73,-126,-53,100,-9,-90,73,19,-53,-68,-63,-82
-78,-136,-58,107,-9,-97,73,29,-53,-68,-68,-82
-78,-136,-58,107,-9,-97,73,29,-53,-68,-68,-82
-78,-136,-58,107,-9,-97,73,29,-58,-68,-68,-82
-82,-141,-58,112,-12,-100,73,29,-58,-68,-68,-82
-82,-131,-48,107,-17,-90,73,29,-53,-73,-68,-82
-82,-136,-53,109,-14,-95,73,29,-53,-73,-73,-82
-82,-141,-58,112,-12,-100,73,29,-58,-73,-73,-82
-78,-141,-63,109,-7,-102,73,29,-58,-78,-73,-82
-78,-141,-63,109,-7,-102,73,29,-58,-82,-68,-82
-73,-141,-68,107,-2,-104,73,29,-58,-82,-73,-87
-73,-151,-78,112,2,-114,68,29,-58,-82,-73,-87
-73,-156,-82,114,4,-119,63,29,-63,-92,-73,-87
-73,-146,-73,109,0,-109,73,29,-63,-82,-68,-82
-73,-151,-78,112,2,-114,73,29,-68,-87,-73,-82
-73,-156,-82,114,4,-119,73,29,-68,-87,-73,-82
-73,-156,-82,114,4,-119,73,29,-68,-87,-73,-82
-82,-165,-82,124,0,-124,82,29,-68,-87,-82,-92
-82,-165,-82,124,0,-124,82,29,-68,-87,-82,-92
-82,-165,-82,124,0,-124,82,29,-73,-87,-82,-92
-87,-170,-82,129,-2,-126,87,29,-73,-87,-82,-92
-87,-161,-73,124,-7,-117,82,29,-63,-87,-82,-102
-87,-170,-82,129,-2,-126,82,29,-63,-87,-82,-102
-87,-170,-82,129,-2,-126,82,29,-63,-97,-87,-107
-87,-170,-82,129,-2,-126,92,34,-63,-97,-87,-107
-87,-175,-87,131,0,-131,87,29,-68,-97,-87,-107
-82,-170,-87,126,2,-129,87,29,-68,-97,-87,-107
-78,-165,-87,122,4,-126,87,29,-68,-97,-87,-107
-73,-161,-87,117,7,-124,87,29,-68,-97,-87,-107
-68,-156,-87,112,9,-122,87,29,-68,-97,-87,-107
-63,-151,-87,107,12,-119,78,39,-78,-97,-87,-102
-63,-151,-87,107,12,-119,78,39,-82,-97,-92,-102
-58,-156,-97,107,19,-126,78,39,-82,-102,-92,-102
-58,-161,-102,109,21,-131,78,39,-82,-102,-92,-107
-58,-170,-112,114,26,-141,78,29,-82,-112,-97,-107
-58,-175,-117,117,29,-146,78,29,-87,-112,-97,-107
-58,-175,-117,117,29,-146,78,29,-87,-117,-97,-112
-58,-175,-117,117,29,-146,78,29,-87,-117,-97,-112
-68,-185,-117,126,24,-151,68,24,-97,-122,-97,-122
-68,-185,-117,126,24,-151,73,24,-97,-122,-102,-122
-68,-185,-117,126,24,-151,73,24,-97,-122,-102,-126
-68,-185,-117,126,24,-151,73,24,-97,-122,-102,-126
-58,-195,-136,126,39,-165,73,14,-102,-122,-117,-126
-58,-200,-141,129,41,-170,73,14,-102,-122,-117,-131
-63,-200,-136,131,36,-168,73,14,-102,-122,-117,-131
-63,-200,-136,131,36,-168,73,14,-102,-122,-117,-131
-58,-190,-131,124,36,-161,73,14,-102,-131,-112,-131
-53,-190,-136,122,41,-163,73,14,-102,-131,-112,-131
-48,-190,-141,119,46,-165,73,14,-107,-131,-107,-131
-43,-190,-146,117,51,-168,73,14,-107,-136,-107,-131
-43,-200,-156,122,56,-178,73,4,-117,-136,-117,-131
-43,-200,-156,122,56,-178,73,4,-117,-136,-117,-131
-43,-200,-156,122,56,-178,73,4,-112,-136,-117,-131
-39,-200,-161,119,61,-180,73,4,-112,-136,-112,-131
-29,-204,-175,117,73,-190,73,-4,-112,-136,-117,-126
-29,-195,-165,112,68,-180,73,-4,-107,-131,-117,-126
-34,-190,-156,112,61,-173,73,-4,-107,-131,-112,-122
-34,-185,-151,109,58,-168,73,-4,-107,-126,-112,-122
-14,-180,-165,97,75,-173,63,-14,-112,-136,-117,-122
0,-180,-180,90,90,-180,68,-14,-112,-136,-122,-126
9,-175,-185,82,97,-180,68,-14,-107,-141,-122,-131
14,-175,-190,80,102,-183,68,-19,-107,-146,-126,-131
29,-170,-200,70,114,-185,58,-19,-112,-156,-126,-141
39,-170,-209,65,124,-190,58,-19,-117,-156,-131,-141
43,-170,-214,63,129,-192,53,-19,-122,-156,-131,-146
48,-170,-219,61,134,-195,53,-19,-126,-161,-136,-146
58,-161,-219,51,139,-190,43,-19,-126,-151,-136,-146
68,-161,-229,46,148,-195,43,-19,-126,-151,-136,-146
78,-161,-239,41,158,-200,39,-24,-126,-151,-131,-141
82,-161,-244,39,163,-202,34,-24,-126,-151,-126,-136
102,-151,-253,24,178,-202,19,-14,-117,-136,-112,-126
107,-136,-244,14,175,-190,14,-14,-117,-136,-112,-126
117,-126,-244,4,180,-185,9,-19,-117,-136,-112,-126
117,-117,-234,0,175,-175,4,-19,-112,-136,-112,-122
122,-97,-219,-12,170,-158,0,-19,-102,-122,-92,-117
131,-87,-219,-21,175,-153,0,-19,-102,-122,-92,-102
141,-73,-214,-34,178,-143,0,-19,-92,-112,-87,-92
151,-63,-214,-43,183,-139,0,-19,-87,-107,-82,-82
156,-58,-214,-48,185,-136,0,-4,-87,-117,-87,-87
161,-53,-214,-53,187,-134,0,0,-87,-117,-87,-87
170,-53,-224,-58,197,-139,0,0,-87,-117,-87,-87
175,-53,-229,-61,202,-141,9,9,-87,-117,-87,-87
175,-63,-239,-56,207,-151,9,0,-97,-126,-97,-92
175,-68,-244,-53,209,-156,14,0,-97,-126,-97,-97
165,-73,-239,-46,202,-156,19,0,-107,-126,-102,-102
161,-82,-244,-39,202,-163,19,0,-107,-136,-107,-117
151,-102,-253,-24,202,-178,19,-4,-112,-141,-122,-131
136,-126,-263,-4,200,-195,29,-9,-117,-146,-126,-136
122,-146,-268,12,195,-207,29,-14,-131,-156,-141,-146
107,-170,-278,31,192,-224,29,-19,-131,-165,-146,-161
97,-170,-268,36,183,-219,34,-19,-146,-165,-146,-156
92,-185,-278,46,185,-231,39,-19,-146,-175,-151,-156
82,-195,-278,56,180,-236,39,-19,-156,-180,-161,-165
78,-209,-287,65,183,-248,43,-24,-161,-185,-161,-165
73,-204,-278,65,175,-241,43,-14,-161,-180,-165,-170
68,-214,-283,73,175,-248,43,-14,-165,-185,-170,-170
63,-224,-287,80,175,-256,43,-14,-165,-190,-170,-170
58,-229,-287,85,173,-258,48,-19,-165,-190,-170,-165
53,-229,-283,87,168,-256,39,-19,-170,-190,-165,-156
53,-229,-283,87,168,-256,39,-19,-170,-190,-165,-156
58,-229,-287,85,173,-258,39,-19,-165,-190,-165,-156
58,-229,-287,85,173,-258,39,-19,-165,-190,-165,-156
48,-239,-287,95,168,-263,39,-29,-165,-200,-175,-165
43,-239,-283,97,163,-261,39,-29,-165,-200,-175,-165
43,-244,-287,100,165,-265,39,-29,-165,-195,-175,-161
43,-244,-287,100,165,-265,39,-29,-165,-195,-175,-161
39,-248,-287,104,163,-268,39,-39,-165,-195,-175,-161
34,-248,-283,107,158,-265,39,-39,-165,-195,-175,-161
29,-248,-278,109,153,-263,39,-39,-165,-195,-170,-161
19,-244,-263,112,141,-253,39,-39,-161,-195,-170,-161
24,-234,-258,104,141,-246,43,-34,-161,-195,-170,-161
29,-234,-263,102,146,-248,43,-34,-161,-195,-170,-161
34,-239,-273,102,153,-256,43,-34,-165,-195,-170,-161
39,-239,-278,100,158,-258,43,-34,-165,-195,-180,-165
39,-239,-278,100,158,-258,68,-14,-156,-185,-180,-161
14,-258,-273,122,143,-265,87,-14,-146,-195,-185,-175
4,-268,-273,131,139,-270,102,0,-151,-195,-214,-180
14,-273,-287,129,151,-280,122,19,-141,-195,-219,-185
24,-263,-287,119,156,-275,112,43,-126,-180,-200,-190
53,-219,-273,82,163,-246,97,73,-78,-141,-175,-170
68,-146,-214,39,141,-180,97,92,-24,-92,-141,-151
97,-82,-180,-7,139,-131,78,112,39,-34,-97,-122
131,-9,-141,-61,136,-75,53,122,78,24,-63,-87
161,73,-87,-117,124,-7,0,102,102,63,-9,-48
185,151,-34,-168,109,58,-53,68,117,112,58,19
209,244,34,-226,87,139,-112,14,126,165,122,73
219,356,136,-287,41,246,-175,-68,161,248,224,165
253,527,273,-390,-9,400,-302,-180,219,356,341,283
307,722,414,-514,-53,568,-478,-312,287,483,478,414
326,878,551,-602,-112,714,-629,-453,336,570,580,522
322,922,600,-622,-139,761,-727,-575,283,551,619,590
