I, II, III, aVR, aVL, aVF, V1, V2, V3, V4, V5, V6
-39,-175,-136,107,48,-156,-19,0,-78,-73,-102,-131
-39,-175,-136,107,48,-156,-19,0,-78,-78,-102,-126
-39,-175,-136,107,48,-156,-19,0,-78,-78,-97,-126
-34,-175,-141,104,53,-158,-19,0,-78,-73,-92,-126
-29,-180,-151,104,61,-165,-19,0,-82,-68,-87,-126
-34,-180,-146,107,56,-163,-14,0,-78,-68,-87,-126
-34,-185,-151,109,58,-168,-14,4,-68,-63,-87,-126
-34,-180,-146,107,56,-163,-14,0,-68,-63,-82,-117
-43,-195,-151,119,53,-173,-4,14,-68,-78,-97,-122
-53,-234,-180,143,63,-207,24,43,-78,-117,-141,-170
-63,-283,-219,173,78,-251,68,87,-78,-141,-190,-214
-82,-366,-283,224,100,-324,117,175,-117,-195,-253,-278
-87,-356,-268,222,90,-312,195,366,9,-107,-219,-278
-29,-244,-214,136,92,-229,263,707,429,253,34,-170
117,-58,-175,-29,146,-117,185,775,893,722,375,-14
317,175,-141,-246,229,17,78,893,1527,1307,766,146
527,385,-141,-456,334,122,-43,1044,2039,1790,1093,287
697,468,-229,-583,463,119,-248,902,2113,1937,1263,370
741,653,-87,-697,414,283,-600,73,1464,1483,1107,448
863,941,78,-902,392,509,-1141,-1449,-19,419,707,561
531,1137,605,-834,-36,871,-1381,-2947,-1459,-829,-58,536
-517,1444,1961,-463,-1239,1703,-1478,-4850,-2415,-1444,-380,810
-961,1507,2469,-273,-1715,1988,-1581,-5597,-2849,-1693,-541,883
-927,1039,1966,-56,-1446,1503,-1537,-5016,-2864,-1805,-766,580
-805,414,1220,195,-1012,817,-1185,-3747,-2449,-1659,-839,244
-561,-190,370,375,-466,90,-712,-2191,-1634,-1273,-810,-131
-366,-502,-136,434,-114,-319,-370,-1132,-1010,-922,-727,-356
-287,-439,-151,363,-68,-295,-170,-658,-649,-629,-536,-331
-229,-370,-141,300,-43,-256,-53,-336,-414,-419,-375,-268
-180,-297,-117,239,-31,-207,-9,-141,-258,-302,-278,-204
-131,-244,-112,187,-9,-178,29,-9,-136,-200,-214,-180
-117,-200,-82,158,-17,-141,68,58,-87,-141,-170,-180
-107,-180,-73,143,-17,-126,82,107,-63,-107,-141,-161
-87,-175,-87,131,0,-131,82,156,-34,-107,-126,-141
-58,-175,-117,117,29,-146,82,200,0,-82,-117,-136
-39,-165,-126,102,43,-146,87,214,14,-63,-102,-136
-39,-165,-126,102,43,-146,92,224,14,-58,-92,-131
-39,-165,-126,102,43,-146,92,239,14,-58,-87,-126
-29,-165,-136,97,53,-151,92,258,24,-53,-87,-122
-19,-161,-141,90,61,-151,97,273,43,-43,-87,-117
-14,-156,-141,85,63,-148,97,278,48,-39,-82,-117
-14,-156,-141,85,63,-148,97,283,48,-43,-78,-117
-14,-151,-136,82,61,-143,102,287,53,-43,-78,-122
-14,-141,-126,78,56,-134,102,297,63,-34,-78,-117
-9,-136,-126,73,58,-131,107,307,73,-34,-73,-117
-9,-136,-126,73,58,-131,112,317,78,-24,-73,-112
-9,-131,-122,70,56,-126,112,322,87,-14,-73,-112
-4,-131,-126,68,61,-129,122,336,102,-14,-68,-112
-4,-131,-126,68,61,-129,131,351,117,-4,-63,-107
-9,-122,-112,65,51,-117,131,361,122,-4,-63,-107
-9,-117,-107,63,48,-112,141,370,131,-4,-63,-102
-9,-112,-102,61,46,-107,141,380,136,0,-63,-102
-9,-102,-92,56,41,-97,141,390,146,9,-58,-97
-9,-97,-87,53,39,-92,146,400,151,9,-53,-92
-9,-92,-82,51,36,-87,151,409,156,14,-48,-92
-9,-78,-68,43,29,-73,151,414,156,19,-48,-87
-4,-68,-63,36,29,-65,156,419,165,24,-43,-82
0,-58,-58,29,29,-58,161,429,170,24,-39,-82
4,-48,-53,21,29,-51,161,429,170,29,-39,-73
4,-43,-48,19,26,-46,165,429,170,29,-34,-68
4,-34,-39,14,21,-36,170,434,175,29,-29,-58
4,-24,-29,9,17,-26,170,434,180,39,-19,-48
9,0,-9,-4,9,-4,175,434,185,43,-19,-39
9,19,9,-14,0,14,175,429,185,43,-9,-29
9,34,24,-21,-7,29,175,419,185,48,0,-14
9,58,48,-34,-19,53,175,405,175,48,9,0
9,78,68,-43,-29,73,175,390,170,48,19,9
14,102,87,-58,-36,95,170,370,170,53,29,34
14,126,112,-70,-48,119,161,361,165,58,39,43
19,161,141,-90,-61,151,151,331,161,63,53,63
24,190,165,-107,-70,178,136,307,151,68,68,87
19,219,200,-119,-90,209,126,278,141,73,82,107
24,239,214,-131,-95,226,112,253,136,78,97,126
29,268,239,-148,-104,253,107,224,131,87,117,146
29,287,258,-158,-114,273,87,200,122,92,131,170
39,312,273,-175,-117,292,73,170,112,97,156,190
43,326,283,-185,-119,305,58,146,102,107,175,204
53,336,283,-195,-114,309,43,126,97,117,180,224
63,346,283,-204,-109,314,29,102,87,117,190,239
73,346,273,-209,-100,309,9,82,73,117,195,239
82,341,258,-212,-87,300,0,73,73,117,204,239
87,331,244,-209,-78,287,-9,58,68,112,204,239
97,322,224,-209,-63,273,-19,48,63,112,204,229
102,307,204,-204,-51,256,-39,39,58,112,200,219
102,297,195,-200,-46,246,-48,39,58,107,195,209
107,278,170,-192,-31,224,-48,48,58,107,190,200
107,248,141,-178,-17,195,-48,53,63,107,180,185
107,234,126,-170,-9,180,-43,53,58,112,175,170
102,204,102,-153,0,153,-39,53,58,117,170,156
97,180,82,-139,7,131,-39,58,53,112,156,141
87,151,63,-119,12,107,-39,63,53,102,146,117
78,126,48,-102,14,87,-34,63,48,92,122,92
73,102,29,-87,21,65,-34,63,48,82,107,68
73,82,9,-78,31,46,-29,68,43,78,97,53
68,63,-4,-65,36,29,-24,68,39,63,87,39
58,43,-14,-51,36,14,-14,73,43,58,68,29
48,24,-24,-36,36,0,-9,73,39,48,53,19
43,0,-43,-21,43,-21,-9,73,34,39,43,9
34,-19,-53,-7,43,-36,0,73,29,29,34,0
24,-34,-58,4,41,-46,4,73,24,24,24,-9
14,-43,-58,14,36,-51,14,73,24,19,9,-19
9,-53,-63,21,36,-58,19,68,14,9,4,-29
4,-63,-68,29,36,-65,19,63,14,0,-4,-34
0,-68,-68,34,34,-68,24,63,4,-4,-9,-34
-4,-78,-73,41,34,-75,24,63,-4,-9,-14,-39
-4,-78,-73,41,34,-75,19,63,-9,-14,-24,-53
-9,-87,-78,48,34,-82,14,63,-9,-14,-29,-58
-14,-92,-78,53,31,-85,19,63,-9,-19,-39,-63
-14,-92,-78,53,31,-85,19,63,-14,-24,-48,-63
-14,-92,-78,53,31,-85,19,63,-14,-29,-53,-68
-14,-87,-73,51,29,-80,24,63,-19,-34,-58,-73
-19,-92,-73,56,26,-82,29,63,-19,-34,-53,-73
-19,-97,-78,58,29,-87,34,63,-19,-34,-48,-73
-24,-107,-82,65,29,-95,39,63,-19,-34,-48,-73
-24,-112,-87,68,31,-100,39,68,-14,-34,-48,-78
-24,-117,-92,70,34,-104,39,73,-14,-34,-58,-82
-24,-117,-92,70,34,-104,43,82,-14,-34,-63,-82
-29,-117,-87,73,29,-102,43,87,-14,-34,-63,-82
-29,-122,-92,75,31,-107,48,87,-14,-34,-63,-82
-29,-122,-92,75,31,-107,48,87,-9,-34,-63,-87
-29,-122,-92,75,31,-107,48,92,0,-34,-68,-92
-29,-126,-97,78,34,-112,53,97,0,-34,-68,-92
-29,-126,-97,78,34,-112,53,97,4,-34,-63,-97
-34,-131,-97,82,31,-114,53,102,4,-29,-63,-97
-34,-131,-97,82,31,-114,53,102,9,-29,-63,-97
-34,-136,-102,85,34,-119,53,107,9,-29,-68,-102
-29,-136,-107,82,39,-122,48,107,9,-29,-73,-102
-24,-136,-112,80,43,-124,48,102,9,-29,-68,-102
-19,-136,-117,78,48,-126,48,97,9,-29,-63,-102
-19,-141,-122,80,51,-131,53,97,14,-29,-58,-97
-19,-141,-122,80,51,-131,53,97,14,-29,-58,-92
-19,-136,-117,78,48,-126,53,97,9,-24,-58,-92
-19,-136,-117,78,48,-126,48,97,4,-24,-53,-92
-19,-141,-122,80,51,-131,43,92,4,-24,-53,-97
-19,-141,-122,80,51,-131,39,92,0,-24,-53,-97
-19,-131,-112,75,46,-122,39,87,4,-19,-53,-97
-19,-122,-102,70,41,-112,43,87,14,-14,-53,-102
-9,-107,-97,58,43,-102,43,92,19,-4,-43,-92
0,-97,-97,48,48,-97,48,97,29,0,-39,-87
4,-87,-92,41,48,-90,53,102,29,0,-34,-78
9,-78,-87,34,48,-82,58,107,29,0,-29,-68
9,-73,-82,31,46,-78,58,107,29,9,-24,-68
14,-63,-78,24,46,-70,58,112,34,14,-14,-63
24,-58,-82,17,53,-70,63,117,43,24,-4,-58
39,-34,-73,-2,56,-53,63,126,53,34,4,-48
43,-24,-68,-9,56,-46,63,146,58,39,14,-43
43,-19,-63,-12,53,-41,63,151,63,39,19,-43
53,-4,-58,-24,56,-31,58,161,73,58,34,-29
63,34,-29,-48,46,2,43,161,87,78,53,4
87,73,-14,-80,51,29,29,161,97,92,68,24
92,78,-14,-85,53,31,4,136,97,92,68,29
107,87,-19,-97,63,34,-14,126,92,92,68,34
112,92,-19,-102,65,36,-29,117,82,92,68,39
112,92,-19,-102,65,36,-29,97,73,87,73,39
102,87,-14,-95,58,36,-29,87,63,82,78,39
97,73,-24,-85,61,24,-39,58,34,58,63,39
87,39,-48,-63,68,-4,-43,34,9,39,43,19
78,9,-68,-43,73,-29,-43,14,-4,19,24,0
58,-4,-63,-26,61,-34,-34,9,-9,9,9,-14
29,-24,-53,-2,41,-39,-24,9,-9,4,0,-19
0,-53,-53,26,26,-53,-19,9,-19,-9,-14,-39
-19,-107,-87,63,34,-97,-9,9,-39,-29,-39,-73
-24,-117,-92,70,34,-104,-9,14,-39,-34,-48,-82
-24,-131,-107,78,41,-119,-9,9,-48,-48,-58,-92
-29,-151,-122,90,46,-136,-9,0,-68,-63,-78,-102
-29,-161,-131,95,51,-146,-14,0,-68,-68,-82,-107
-29,-161,-131,95,51,-146,-14,0,-73,-68,-82,-107
-39,-165,-126,102,43,-146,-9,0,-73,-63,-78,-107
-43,-165,-122,104,39,-143,-9,0,-73,-58,-78,-107
-43,-170,-126,107,41,-148,-9,0,-78,-63,-82,-112
-48,-175,-126,112,39,-151,-9,0,-78,-63,-82,-112
-48,-175,-126,112,39,-151,-9,0,-78,-73,-87,-112
-48,-175,-126,112,39,-151,-9,0,-78,-78,-87,-117
-43,-175,-131,109,43,-153,-9,0,-78,-78,-87,-117
-39,-180,-141,109,51,-161,-9,0,-82,-78,-87,-117
-43,-180,-136,112,46,-158,-4,-4,-82,-78,-87,-117
-43,-185,-141,114,48,-163,-4,-4,-78,-73,-87,-117
-43,-175,-131,109,43,-153,-4,-4,-78,-68,-82,-112
-53,-185,-131,119,39,-158,4,14,-78,-78,-97,-122
-63,-224,-161,143,48,-192,34,53,-78,-107,-141,-170
-73,-273,-200,173,63,-236,78,107,-68,-122,-190,-214
-87,-341,-253,214,82,-297,131,224,-68,-151,-224,-263
-87,-317,-229,202,70,-273,214,444,97,-39,-161,-248
-4,-185,-180,95,87,-183,258,732,527,346,107,-126
165,19,-146,-92,156,-63,156,746,1000,839,463,43
356,253,-102,-305,229,75,34,824,1576,1381,844,204
556,463,-92,-509,324,185,-102,936,2030,1820,1161,346
722,536,-185,-629,453,175,-346,644,1942,1849,1268,429
761,712,-48,-736,405,331,-736,-336,1132,1278,1049,507
805,956,151,-880,326,553,-1249,-1888,-375,175,600,605
395,1107,712,-751,-158,910,-1459,-3416,-1839,-1112,-214,566
-590,1371,1961,-390,-1276,1666,-1537,-5104,-2688,-1634,-488,814
-971,1390,2361,-209,-1666,1876,-1620,-5636,-3015,-1790,-600,863
-912,946,1859,-17,-1385,1403,-1507,-4899,-2879,-1820,-775,566
-766,346,1112,209,-939,729,-1088,-3474,-2313,-1590,-800,234
-531,-224,307,378,-419,41,-629,-1976,-1503,-1190,-756,-136
-346,-502,-156,424,-95,-329,-302,-976,-883,-824,-658,-356
-278,-424,-146,351,-65,-285,-126,-556,-561,-561,-488,-317
-229,-341,-112,285,-58,-226,-34,-287,-366,-380,-346,-239
-185,-278,-92,231,-46,-185,19,-102,-219,-268,-248,-175
-141,-234,-92,187,-24,-163,68,19,-107,-170,-185,-151
-126,-195,-68,161,-29,-131,97,82,-58,-117,-141,-151
-117,-180,-63,148,-26,-122,102,126,-34,-87,-112,-131
-97,-175,-78,136,-9,-126,102,170,-9,-87,-102,-117
-68,-175,-107,122,19,-141,102,209,19,-63,-97,-117
-43,-165,-122,104,39,-143,107,224,34,-43,-87,-122
-39,-165,-126,102,43,-146,112,234,34,-39,-82,-122
-39,-165,-126,102,43,-146,112,248,34,-39,-78,-122
-29,-165,-136,97,53,-151,112,268,43,-34,-78,-122
-24,-161,-136,92,56,-148,117,283,63,-24,-78,-117
-24,-156,-131,90,53,-143,117,287,68,-19,-73,-117
-24,-161,-136,92,56,-148,122,297,68,-19,-68,-112
-24,-161,-136,92,56,-148,131,307,73,-14,-68,-112
-24,-151,-126,87,51,-139,131,317,87,-4,-68,-102
-19,-146,-126,82,53,-136,136,326,102,-4,-63,-97
-19,-141,-122,80,51,-131,141,341,107,0,-63,-92
-19,-131,-112,75,46,-122,141,351,117,4,-63,-92
-14,-126,-112,70,48,-119,146,361,126,4,-58,-92
-14,-122,-107,68,46,-114,151,370,136,14,-53,-87
-19,-112,-92,65,36,-102,151,380,141,14,-53,-87
-19,-107,-87,63,34,-97,161,390,151,14,-53,-82
-19,-102,-82,61,31,-92,161,400,156,19,-53,-82
-19,-92,-73,56,26,-82,161,409,165,29,-48,-78
-19,-87,-68,53,24,-78,165,419,170,24,-43,-73
-19,-82,-63,51,21,-73,170,429,175,24,-39,-73
-19,-73,-53,46,17,-63,170,434,175,29,-39,-68
-14,-68,-53,41,19,-61,175,439,185,34,-34,-63
-14,-58,-43,36,14,-51,185,448,190,39,-29,-63
-14,-48,-34,31,9,-41,190,448,190,48,-29,-53
-14,-39,-24,26,4,-31,195,448,190,48,-24,-48
-14,-24,-9,19,-2,-17,200,453,195,48,-19,-39
-14,-14,0,14,-7,-7,195,458,200,58,-9,-29
-9,9,19,0,-14,14,195,463,204,63,-9,-19
-9,29,39,-9,-24,34,195,458,204,63,0,-14
-9,43,53,-17,-31,48,195,448,204,68,9,-4
-9,68,78,-29,-43,73,195,439,200,68,19,9
-9,87,97,-39,-53,92,195,429,200,68,29,19
-4,112,117,-53,-61,114,190,409,200,73,39,43
-4,136,141,-65,-73,139,180,400,195,78,48,53
0,165,165,-82,-82,165,175,375,190,82,63,73
4,190,185,-97,-90,187,165,356,180,87,78,97
4,219,214,-112,-104,217,156,326,170,92,97,122
14,239,224,-126,-104,231,141,302,165,97,117,146
19,268,248,-143,-114,258,136,273,161,112,136,165
19,287,268,-153,-124,278,117,248,151,122,151,190
34,317,283,-175,-124,300,102,214,141,122,170,204
43,336,292,-190,-124,314,87,185,131,126,185,214
53,346,292,-200,-119,319,73,165,126,136,190,229
63,356,292,-209,-114,324,58,141,117,136,200,239
68,356,287,-212,-109,322,39,117,102,136,204,244
73,351,278,-212,-102,314,29,102,102,136,214,248
78,341,263,-209,-92,302,19,87,97,131,214,248
87,331,244,-209,-78,287,9,78,92,131,214,239
97,312,214,-204,-58,263,-9,68,92,136,214,229
102,297,195,-200,-46,246,-19,68,97,136,214,219
107,278,170,-192,-31,224,-24,68,92,136,209,209
107,248,141,-178,-17,195,-29,63,92,136,200,195
107,234,126,-170,-9,180,-29,63,82,131,185,175
102,204,102,-153,0,153,-29,63,78,126,170,156
102,180,78,-141,12,129,-29,63,73,122,156,141
97,151,53,-124,21,102,-29,63,73,112,146,117
87,122,34,-104,26,78,-19,63,68,107,126,102
82,92,9,-87,36,51,-14,63,68,102,117,87
78,73,-4,-75,41,34,-9,68,63,97,107,73
68,53,-14,-61,41,19,-4,68,58,82,97,58
58,34,-24,-46,41,4,4,73,58,78,82,43
48,14,-34,-31,41,-9,9,73,48,68,73,29
43,0,-43,-21,43,-21,9,73,43,58,63,19
34,-9,-43,-12,39,-26,19,73,39,48,53,9
29,-24,-53,-2,41,-39,19,73,34,43,43,0
24,-34,-58,4,41,-46,24,73,34,39,29,-9
19,-43,-63,12,41,-53,24,68,24,29,19,-19
14,-53,-68,19,41,-61,19,63,24,19,4,-24
9,-58,-68,24,39,-63,24,63,19,14,0,-24
4,-68,-73,31,39,-70,24,63,14,9,-4,-29
4,-68,-73,31,39,-70,24,63,9,0,-9,-39
0,-78,-78,39,39,-78,24,63,9,-4,-9,-39
-4,-87,-82,46,39,-85,29,63,9,-4,-14,-48
-4,-92,-87,48,41,-90,29,63,4,-4,-19,-53
-4,-97,-92,51,43,-95,29,63,4,-9,-24,-58
-4,-97,-92,51,43,-95,34,63,0,-14,-29,-63
-9,-97,-87,53,39,-92,34,63,0,-14,-34,-63
-9,-97,-87,53,39,-92,34,63,0,-14,-39,-63
-14,-102,-87,58,36,-95,39,63,-4,-14,-39,-63
-14,-102,-87,58,36,-95,39,68,-4,-14,-39,-68
-14,-107,-92,61,39,-100,39,68,-4,-19,-43,-73
-14,-107,-92,61,39,-100,43,73,-4,-24,-43,-73
-19,-107,-87,63,34,-97,43,78,0,-24,-43,-73
-19,-112,-92,65,36,-102,48,78,4,-24,-43,-73
-19,-112,-92,65,36,-102,48,78,4,-19,-43,-73
-19,-112,-92,65,36,-102,48,82,9,-14,-48,-73
-19,-122,-102,70,41,-112,53,87,9,-14,-48,-73
-19,-126,-107,73,43,-117,53,87,14,-14,-43,-78
-24,-131,-107,78,41,-119,53,92,14,-9,-43,-78
-24,-131,-107,78,41,-119,53,92,19,-9,-43,-78
-29,-136,-107,82,39,-122,58,97,19,-14,-48,-87
-29,-136,-107,82,39,-122,58,97,19,-19,-53,-92
-29,-136,-107,82,39,-122,58,97,14,-19,-58,-92
-29,-136,-107,82,39,-122,58,97,9,-19,-63,-92
-29,-141,-112,85,41,-126,58,97,14,-19,-58,-92
-29,-141,-112,85,41,-126,53,97,14,-19,-58,-92
-29,-131,-102,80,36,-117,53,97,14,-14,-58,-92
-29,-126,-97,78,34,-112,48,97,14,-14,-53,-92
-24,-131,-107,78,41,-119,48,92,14,-14,-53,-92
-19,-131,-112,75,46,-122,48,92,9,-14,-53,-87
-19,-136,-117,78,48,-126,48,87,4,-14,-53,-87
-19,-131,-112,75,46,-122,48,87,0,-9,-53,-87
-19,-122,-102,70,41,-112,53,87,9,-4,-39,-78
-19,-117,-97,68,39,-107,58,87,19,0,-29,-68
-9,-107,-97,58,43,-102,58,97,19,9,-29,-68
0,-97,-97,48,48,-97,58,107,19,19,-29,-68
4,-92,-97,43,51,-95,63,107,24,19,-24,-68
9,-82,-92,36,51,-87,68,107,29,24,-19,-63
14,-78,-92,31,53,-85,73,112,34,29,-14,-58
24,-68,-92,21,58,-80,73,117,43,34,-4,-48
43,-43,-87,0,65,-65,73,131,53,43,4,-39
53,-39,-92,-7,73,-65,73,151,58,48,14,-34
53,-39,-92,-7,73,-65,73,151,63,48,19,-34
63,-24,-87,-19,75,-56,68,161,73,68,34,-19
73,14,-58,-43,65,-21,53,161,87,87,53,14
97,53,-43,-75,70,4,39,161,97,102,73,34
102,63,-39,-82,70,12,14,136,102,102,78,39
112,73,-39,-92,75,17,0,126,102,102,78,39
117,73,-43,-95,80,14,-9,117,92,102,78,39
122,73,-48,-97,85,12,-9,97,82,97,78,39
112,68,-43,-90,78,12,-9,87,73,97,78,43
107,53,-53,-80,80,0,-19,63,43,78,63,48
97,19,-78,-58,87,-29,-29,39,14,58,48,29
87,-9,-97,-39,92,-53,-34,19,-4,39,34,9
68,-19,-87,-24,78,-53,-24,19,-9,29,19,-4
39,-34,-73,-2,56,-53,-14,19,-9,24,9,-9
4,-63,-68,29,36,-65,-9,19,-19,9,-4,-29
-19,-112,-92,65,36,-102,0,14,-39,-9,-29,-58
-24,-122,-97,73,36,-109,0,14,-39,-14,-43,-63
-24,-136,-112,80,43,-124,0,9,-43,-24,-48,-73
-34,-156,-122,95,43,-139,0,0,-58,-39,-58,-87
-39,-170,-131,104,46,-151,-4,0,-58,-48,-63,-97
-39,-175,-136,107,48,-156,-4,0,-63,-48,-58,-97
-43,-185,-141,114,48,-163,0,0,-63,-48,-53,-97
-43,-185,-141,114,48,-163,0,0,-63,-48,-58,-97
-43,-190,-146,117,51,-168,0,0,-68,-53,-63,-102
-48,-195,-146,122,48,-170,4,0,-68,-53,-63,-97
-48,-195,-146,122,48,-170,9,0,-68,-58,-68,-92
-48,-190,-141,119,46,-165,9,0,-68,-58,-68,-97
-48,-185,-136,117,43,-161,9,0,-68,-58,-68,-97
-48,-190,-141,119,46,-165,4,0,-73,-58,-68,-97
-53,-190,-136,122,41,-163,4,0,-73,-58,-68,-97
-53,-190,-136,122,41,-163,4,0,-68,-53,-63,-97
-53,-185,-131,119,39,-158,9,-4,-68,-53,-58,-97
-63,-195,-131,129,34,-163,19,4,-68,-68,-78,-102
-73,-224,-151,148,39,-187,43,43,-68,-97,-122,-141
-82,-292,-209,187,63,-251,78,73,-97,-141,-195,-204
-82,-356,-273,219,95,-314,117,175,-92,-151,-219,-253
-102,-341,-239,222,68,-290,234,453,43,-73,-185,-239
-43,-234,-190,139,73,-212,297,771,400,229,29,-136
136,-19,-156,-58,146,-87,185,780,883,736,409,34
326,195,-131,-261,229,31,58,795,1366,1210,756,185
566,385,-180,-475,373,102,-43,1058,1976,1771,1132,326
732,483,-248,-607,490,117,-253,834,2010,1888,1278,419
834,668,-165,-751,500,251,-692,-195,1190,1332,1083,497
873,897,24,-885,424,461,-1176,-1615,-48,473,766,610
356,1088,732,-722,-187,910,-1366,-3337,-1605,-912,-126,595
-512,1302,1815,-395,-1163,1559,-1459,-4933,-2542,-1556,-478,795
-922,1400,2322,-239,-1622,1861,-1600,-5563,-2874,-1678,-536,893
-985,1098,2083,-56,-1534,1590,-1551,-5177,-2864,-1747,-692,688
-814,400,1215,207,-1015,807,-1093,-3596,-2283,-1527,-741,312
-590,-156,434,373,-512,139,-668,-2152,-1561,-1180,-722,-34
-385,-448,-63,417,-161,-256,-336,-1122,-936,-819,-644,-278
-292,-473,-180,383,-56,-326,-122,-570,-556,-551,-497,-317
-248,-375,-126,312,-61,-251,-34,-312,-370,-375,-341,-239
-204,-297,-92,251,-56,-195,19,-107,-219,-258,-239,-175
-156,-244,-87,200,-34,-165,68,14,-102,-161,-180,-146
-136,-200,-63,168,-36,-131,107,87,-48,-102,-136,-141
-126,-190,-63,158,-31,-126,112,131,-34,-73,-107,-122
-107,-185,-78,146,-14,-131,112,175,-9,-68,-92,-107
-68,-185,-117,126,24,-151,112,209,24,-43,-87,-107
-39,-175,-136,107,48,-156,117,224,43,-29,-78,-112
-39,-175,-136,107,48,-156,122,234,43,-29,-73,-112
-39,-175,-136,107,48,-156,122,248,43,-29,-68,-112
-29,-175,-146,102,58,-161,122,268,53,-24,-68,-112
-24,-170,-146,97,61,-158,126,283,73,-14,-68,-107
-24,-165,-141,95,58,-153,126,287,78,-9,-63,-107
-24,-165,-141,95,58,-153,126,297,78,-9,-58,-102
-24,-161,-136,92,56,-148,131,307,82,-4,-58,-102
-24,-151,-126,87,51,-139,131,317,92,4,-58,-97
-19,-146,-126,82,53,-136,136,326,102,4,-58,-97
-19,-146,-126,82,53,-136,141,336,107,9,-63,-92
-19,-141,-122,80,51,-131,141,346,117,14,-63,-92
-14,-136,-122,75,53,-129,146,361,126,14,-58,-92
-19,-131,-112,75,46,-122,151,370,136,24,-53,-87
-24,-122,-97,73,36,-109,151,380,141,24,-53,-87
-19,-117,-97,68,39,-107,161,390,151,29,-48,-82
-19,-112,-92,65,36,-102,161,400,156,39,-43,-82
-19,-102,-82,61,31,-92,161,409,165,48,-39,-78
-19,-97,-78,58,29,-87,165,419,170,48,-34,-73
-19,-92,-73,56,26,-82,170,429,175,48,-29,-73
-19,-82,-63,51,21,-73,170,434,175,48,-29,-68
-14,-78,-63,46,24,-70,175,439,185,53,-24,-63
-14,-68,-53,41,19,-61,180,448,190,53,-19,-63
-14,-58,-43,36,14,-51,180,448,195,58,-19,-53
-14,-48,-34,31,9,-41,185,448,200,58,-14,-48
-14,-34,-19,24,2,-26,190,453,204,63,-9,-39
-14,-24,-9,19,-2,-17,190,453,209,73,0,-29
-9,0,9,4,-9,4,195,453,214,73,0,-19
-9,19,29,-4,-19,24,195,448,214,73,9,-9
-9,34,43,-12,-26,39,195,444,214,78,19,9
-9,58,68,-24,-39,63,195,439,209,82,29,29
-9,78,87,-34,-48,82,200,429,209,87,39,39
-4,102,107,-48,-56,104,200,409,209,92,48,63
-4,126,131,-61,-68,129,190,400,204,97,58,73
0,156,156,-78,-78,156,185,375,200,102,73,92
4,180,175,-92,-85,178,170,361,190,107,87,112
4,209,204,-107,-100,207,156,336,180,112,102,126
14,229,214,-122,-100,222,141,312,175,117,117,146
19,258,239,-139,-109,248,136,283,170,126,136,165
19,283,263,-151,-122,273,117,253,165,131,151,190
29,312,283,-170,-126,297,102,219,161,131,170,204
34,326,292,-180,-129,309,87,195,151,136,185,214
43,336,292,-190,-124,314,73,175,146,146,185,229
53,346,292,-200,-119,319,58,151,136,146,190,244
63,346,283,-204,-109,314,39,131,122,146,195,248
73,346,273,-209,-100,309,29,117,122,146,204,248
78,341,263,-209,-92,302,19,97,117,141,204,248
87,331,244,-209,-78,287,9,87,112,141,209,244
97,312,214,-204,-58,263,-9,78,107,146,214,239
102,297,195,-200,-46,246,-24,78,107,146,214,229
107,278,170,-192,-31,224,-29,78,102,146,209,219
107,248,141,-178,-17,195,-29,73,102,146,200,204
107,234,126,-170,-9,180,-29,73,92,141,190,185
107,200,92,-153,7,146,-29,73,82,131,175,165
107,170,63,-139,21,117,-29,73,73,122,156,151
97,141,43,-119,26,92,-29,73,73,112,146,126
87,117,29,-102,29,73,-24,73,68,107,126,112
82,92,9,-87,36,51,-24,68,68,102,117,97
78,73,-4,-75,41,34,-19,68,63,97,107,82
68,48,-19,-58,43,14,-14,68,58,82,97,68
58,24,-34,-41,46,-4,-4,73,58,78,78,53
48,4,-43,-26,46,-19,0,73,48,68,63,34
43,-9,-53,-17,48,-31,0,73,43,58,53,19
34,-19,-53,-7,43,-36,9,73,34,48,43,9
29,-34,-63,2,46,-48,9,73,24,43,34,0
24,-43,-68,9,46,-56,14,73,24,39,19,-9
19,-53,-73,17,46,-63,19,68,14,29,14,-19
14,-63,-78,24,46,-70,19,63,14,24,4,-24
9,-68,-78,29,43,-73,24,63,9,24,0,-24
4,-78,-82,36,43,-80,24,58,4,19,-4,-29
4,-78,-82,36,43,-80,24,53,0,14,-9,-39
0,-87,-87,43,43,-87,24,53,0,9,-9,-39
-4,-92,-87,48,41,-90,29,53,0,4,-14,-43
-9,-97,-87,53,39,-92,29,53,0,4,-19,-43
-14,-107,-92,61,39,-100,29,53,4,0,-24,-48
-14,-107,-92,61,39,-100,34,53,0,-4,-29,-53
-19,-112,-92,65,36,-102,34,53,0,-9,-34,-53
-19,-117,-97,68,39,-107,34,53,-4,-14,-39,-53
-24,-122,-97,73,36,-109,39,53,-9,-14,-39,-53
-24,-122,-97,73,36,-109,39,58,-4,-14,-39,-58
-24,-126,-102,75,39,-114,39,58,-4,-14,-43,-63
-24,-126,-102,75,39,-114,43,63,-4,-14,-43,-63
-29,-126,-97,78,34,-112,43,68,-4,-14,-43,-63
-29,-131,-102,80,36,-117,48,73,-4,-14,-43,-63
-29,-131,-102,80,36,-117,48,78,-4,-14,-43,-68
-29,-131,-102,80,36,-117,48,82,0,-14,-48,-73
-29,-136,-107,82,39,-122,53,87,0,-14,-48,-73
-29,-136,-107,82,39,-122,53,87,4,-19,-43,-78
-34,-141,-107,87,36,-124,53,92,4,-19,-43,-78
-34,-141,-107,87,36,-124,53,92,9,-19,-43,-78
-34,-146,-112,90,39,-129,58,97,9,-19,-48,-82
-29,-146,-117,87,43,-131,58,97,9,-19,-53,-82
-29,-146,-117,87,43,-131,58,97,9,-19,-53,-82
-29,-146,-117,87,43,-131,58,97,9,-19,-53,-82
-29,-151,-122,90,46,-136,58,97,14,-19,-48,-82
-29,-151,-122,90,46,-136,53,97,14,-19,-48,-82
-29,-146,-117,87,43,-131,53,97,14,-14,-48,-82
-29,-146,-117,87,43,-131,48,97,14,-14,-43,-87
-29,-151,-122,90,46,-136,48,92,14,-14,-43,-92
-29,-151,-122,90,46,-136,48,92,9,-14,-43,-87
-29,-146,-117,87,43,-131,48,87,9,-14,-43,-87
-29,-141,-112,85,41,-126,48,87,9,-9,-39,-82
-29,-136,-107,82,39,-122,53,87,14,-4,-34,-82
-19,-126,-107,73,43,-117,53,92,19,0,-29,-73
-9,-117,-107,63,48,-112,58,97,29,9,-29,-68
0,-107,-107,53,53,-107,58,102,29,9,-29,-63
9,-97,-107,43,58,-102,58,107,29,9,-29,-58
9,-92,-102,41,56,-97,58,112,34,14,-29,-58
14,-82,-97,34,56,-90,58,117,43,19,-19,-53
24,-78,-102,26,63,-90,63,126,53,24,-14,-48
39,-53,-92,7,65,-73,63,136,63,34,-4,-39
43,-48,-92,2,68,-70,63,146,63,39,4,-34
43,-48,-92,2,68,-70,63,141,63,39,9,-34
53,-34,-87,-9,70,-61,63,151,73,58,24,-19
63,4,-58,-34,61,-26,53,151,87,78,43,14
92,43,-48,-68,70,-2,39,165,102,97,68,34
102,48,-53,-75,78,-2,14,156,107,102,78,39
112,58,-53,-85,82,2,0,136,102,102,78,39
112,63,-48,-87,80,7,-9,117,92,102,78,39
112,68,-43,-90,78,12,-9,97,82,97,78,39
102,68,-34,-85,68,17,-9,87,73,92,78,39
97,53,-43,-75,70,4,-24,63,43,68,68,43
87,19,-68,-53,78,-24,-34,43,19,48,53,29
82,-9,-92,-36,87,-51,-34,24,4,29,34,9
68,-24,-92,-21,80,-58,-24,19,0,19,19,-4
39,-43,-82,2,61,-63,-14,19,0,19,9,-9
9,-73,-82,31,46,-78,-9,19,-9,9,-4,-29
-19,-126,-107,73,43,-117,0,14,-29,-9,-29,-58
-34,-136,-102,85,34,-119,0,14,-29,-14,-39,-63
-34,-146,-112,90,39,-129,0,9,-34,-24,-43,-73
-39,-161,-122,100,41,-141,0,0,-48,-34,-58,-82
-39,-170,-131,104,46,-151,-4,0,-53,-43,-63,-92
-39,-170,-131,104,46,-151,-4,0,-63,-48,-63,-97
-48,-175,-126,112,39,-151,0,0,-63,-48,-63,-97
-53,-175,-122,114,34,-148,0,0,-63,-48,-68,-97
-53,-180,-126,117,36,-153,0,0,-68,-53,-73,-102
-58,-185,-126,122,34,-156,0,0,-68,-53,-73,-102
-58,-185,-126,122,34,-156,0,0,-68,-58,-78,-102
-58,-185,-126,122,34,-156,0,0,-68,-58,-78,-107
-53,-185,-131,119,39,-158,0,-4,-68,-58,-78,-107
-48,-190,-141,119,46,-165,0,-9,-73,-58,-78,-107
-53,-190,-136,122,41,-163,4,-9,-73,-58,-78,-107
-53,-195,-141,124,43,-168,4,-4,-68,-53,-78,-107
-53,-185,-131,119,39,-158,4,-9,-68,-53,-73,-97
-63,-195,-131,129,34,-163,14,4,-68,-68,-87,-102
-73,-234,-161,153,43,-197,39,34,-68,-102,-131,-151
-82,-283,-200,183,58,-241,78,78,-58,-122,-180,-195
-97,-366,-268,231,85,-317,126,195,-112,-180,-244,-263
-97,-356,-258,226,80,-307,204,414,0,-97,-209,-268
-29,-239,-209,134,90,-224,278,775,395,234,39,-161
126,-48,-175,-39,151,-112,204,863,834,673,375,-4
336,195,-141,-265,239,26,92,917,1410,1224,761,170
556,414,-141,-485,348,136,-34,1005,1864,1673,1083,326
727,483,-244,-605,485,119,-248,795,1942,1830,1244,409
771,653,-117,-712,444,268,-610,-102,1298,1385,1078,488
868,897,29,-883,419,463,-1132,-1644,-126,361,678,600
512,1049,536,-780,-12,793,-1351,-3162,-1507,-849,-87,575
-570,1366,1937,-397,-1254,1651,-1424,-4943,-2391,-1395,-361,858
-1049,1439,2488,-195,-1769,1964,-1503,-5568,-2752,-1576,-473,941
-1000,1034,2034,-17,-1517,1534,-1459,-4982,-2742,-1678,-678,658
-863,473,1337,195,-1100,905,-1107,-3708,-2303,-1522,-732,341
-605,-151,453,378,-529,151,-653,-2142,-1512,-1151,-722,-63
-395,-483,-87,439,-153,-285,-331,-1073,-912,-814,-658,-317
-317,-419,-102,368,-107,-261,-136,-619,-575,-556,-488,-302
-258,-351,-92,305,-82,-222,-24,-317,-366,-380,-346,-248
-209,-287,-78,248,-65,-183,24,-112,-209,-258,-244,-170
-161,-244,-82,202,-39,-163,68,29,-87,-151,-175,-131
-141,-204,-63,173,-39,-134,97,87,-48,-97,-131,-131
-126,-190,-63,158,-31,-126,102,126,-34,-68,-102,-112
-107,-185,-78,146,-14,-131,102,170,-9,-68,-92,-97
-78,-185,-107,131,14,-146,102,209,19,-43,-87,-97
-53,-175,-122,114,34,-148,107,224,34,-29,-78,-102
-48,-175,-126,112,39,-151,112,234,34,-29,-73,-102
-48,-175,-126,112,39,-151,112,248,34,-34,-68,-107
-39,-175,-136,107,48,-156,112,268,43,-34,-68,-112
-34,-165,-131,100,48,-148,117,283,63,-24,-68,-107
-34,-156,-122,95,43,-139,117,287,68,-19,-63,-107
-34,-156,-122,95,43,-139,117,297,68,-14,-58,-97
-34,-151,-117,92,41,-134,122,307,73,-4,-58,-92
-34,-146,-112,90,39,-129,122,317,82,4,-58,-87
-29,-146,-117,87,43,-131,126,326,92,4,-53,-87
-29,-146,-117,87,43,-131,131,336,97,9,-53,-82
-29,-141,-112,85,41,-126,131,341,107,14,-53,-82
-24,-136,-112,80,43,-124,136,351,117,14,-48,-82
-24,-131,-107,78,41,-119,141,361,126,24,-43,-78
-24,-117,-92,70,34,-104,141,370,131,24,-43,-78
-19,-107,-87,63,34,-97,151,380,141,24,-43,-73
-19,-102,-82,61,31,-92,151,390,151,29,-43,-73
-19,-92,-73,56,26,-82,151,400,165,39,-39,-68
-19,-92,-73,56,26,-82,156,409,170,39,-29,-63
-19,-92,-73,56,26,-82,161,419,175,43,-19,-63
-19,-82,-63,51,21,-73,161,424,175,48,-19,-58
-14,-78,-63,46,24,-70,165,429,185,53,-14,-53
-14,-63,-48,39,17,-56,170,439,190,53,-14,-58
-14,-48,-34,31,9,-41,170,439,190,58,-19,-53
-14,-39,-24,26,4,-31,175,439,190,58,-14,-48
-14,-24,-9,19,-2,-17,180,444,195,58,-9,-39
-14,-19,-4,17,-4,-12,180,444,200,68,4,-24
-9,0,9,4,-9,4,185,444,204,73,9,-9
-9,19,29,-4,-19,24,185,439,204,73,19,0
-9,34,43,-12,-26,39,185,429,204,78,29,14
-9,58,68,-24,-39,63,185,424,200,82,39,29
-9,78,87,-34,-48,82,185,419,200,87,48,39
-4,102,107,-48,-56,104,180,400,204,92,58,63
-4,126,131,-61,-68,129,170,390,204,97,68,73
0,156,156,-78,-78,156,165,366,200,97,78,92
4,180,175,-92,-85,178,156,346,190,97,87,117
4,209,204,-107,-100,207,151,322,180,102,102,136
14,229,214,-122,-100,222,141,302,175,107,117,156
19,263,244,-141,-112,253,136,273,175,122,136,170
19,287,268,-153,-124,278,117,248,170,131,151,190
29,312,283,-170,-126,297,102,219,161,131,170,204
34,326,292,-180,-129,309,87,195,151,136,185,214
43,336,292,-190,-124,314,73,170,146,146,190,229
53,346,292,-200,-119,319,58,141,136,146,200,239
63,351,287,-207,-112,319,39,122,117,146,204,244
73,351,278,-212,-102,314,29,112,112,146,214,248
78,341,263,-209,-92,302,19,92,107,141,214,253
87,331,244,-209,-78,287,9,78,102,141,214,248
97,312,214,-204,-58,263,-9,68,97,146,209,239
102,297,195,-200,-46,246,-19,68,97,146,204,229
107,278,170,-192,-31,224,-19,68,92,141,200,219
107,248,141,-178,-17,195,-19,63,92,136,190,204
107,229,122,-168,-7,175,-19,63,82,126,180,185
102,195,92,-148,4,143,-19,63,78,117,170,165
102,170,68,-136,17,119,-24,58,73,112,156,151
97,141,43,-119,26,92,-29,53,73,102,146,126
87,117,29,-102,29,73,-24,53,63,102,126,112
82,92,9,-87,36,51,-24,53,58,102,117,97
78,73,-4,-75,41,34,-19,58,53,97,107,82
68,53,-14,-61,41,19,-14,58,48,82,97,68
58,34,-24,-46,41,4,-4,63,48,78,82,53
48,14,-34,-31,41,-9,0,63,39,68,73,39
43,0,-43,-21,43,-21,0,63,34,58,63,24
34,-9,-43,-12,39,-26,9,63,29,48,53,9
24,-29,-53,2,39,-41,14,63,24,43,39,0
14,-43,-58,14,36,-51,24,63,24,39,19,-9
9,-53,-63,21,36,-58,29,58,14,29,14,-19
4,-63,-68,29,36,-65,29,53,14,19,4,-24
0,-68,-68,34,34,-68,34,53,9,14,0,-24
-4,-78,-73,41,34,-75,34,53,4,9,-4,-29
-4,-78,-73,41,34,-75,34,53,0,0,-9,-39
-9,-87,-78,48,34,-82,34,53,0,-4,-9,-39
-14,-97,-82,56,34,-90,39,53,0,-4,-14,-43
-14,-102,-87,58,36,-95,39,53,-4,-4,-19,-43
-14,-107,-92,61,39,-100,34,53,-4,-9,-24,-48
-14,-107,-92,61,39,-100,34,53,-9,-14,-29,-53
-19,-107,-87,63,34,-97,34,53,-9,-19,-34,-53
-19,-107,-87,63,34,-97,34,53,-9,-24,-39,-53
-24,-112,-87,68,31,-100,39,53,-9,-19,-34,-53
-24,-112,-87,68,31,-100,39,58,-4,-14,-29,-58
-24,-117,-92,70,34,-104,39,58,-4,-14,-34,-63
-24,-117,-92,70,34,-104,43,63,-4,-14,-34,-63
-29,-122,-92,75,31,-107,43,73,-4,-14,-43,-63
-29,-131,-102,80,36,-117,48,78,-4,-14,-53,-63
-29,-131,-102,80,36,-117,48,78,-4,-19,-53,-68
-29,-131,-102,80,36,-117,48,82,0,-24,-58,-73
-29,-136,-107,82,39,-122,53,87,0,-24,-58,-73
-29,-136,-107,82,39,-122,53,87,4,-24,-53,-78
-34,-136,-102,85,34,-119,53,92,4,-19,-53,-78
-34,-131,-97,82,31,-114,53,92,9,-19,-53,-78
-34,-136,-102,85,34,-119,58,97,9,-19,-53,-82
-29,-136,-107,82,39,-122,58,97,9,-19,-53,-82
-29,-136,-107,82,39,-122,58,97,4,-19,-53,-82
-29,-136,-107,82,39,-122,58,97,0,-19,-53,-82
-29,-141,-112,85,41,-126,58,97,4,-14,-48,-82
-29,-141,-112,85,41,-126,53,97,4,-9,-48,-82
-29,-141,-112,85,41,-126,53,97,9,-4,-48,-82
-29,-146,-117,87,43,-131,48,97,14,-4,-43,-82
-29,-151,-122,90,46,-136,48,92,14,-9,-48,-87
-29,-151,-122,90,46,-136,48,92,9,-14,-53,-87
-29,-151,-122,90,46,-136,48,87,9,-14,-53,-87
-29,-141,-112,85,41,-126,48,87,9,-9,-53,-87
-24,-126,-102,75,39,-114,53,97,19,0,-48,-87
-19,-117,-97,68,39,-107,58,107,29,9,-48,-87
-9,-102,-92,56,41,-97,58,107,29,9,-39,-78
0,-87,-87,43,43,-87,58,107,29,9,-29,-68
4,-87,-92,41,48,-90,58,112,29,9,-19,-58
9,-82,-92,36,51,-87,58,117,34,19,-9,-48
19,-78,-97,29,58,-87,63,122,39,29,-4,-43
34,-68,-102,17,68,-85,63,126,53,43,4,-39
48,-43,-92,-2,70,-68,63,136,63,53,14,-34
53,-39,-92,-7,73,-65,63,151,68,58,24,-34
53,-39,-92,-7,73,-65,63,146,73,58,24,-39
63,-24,-87,-19,75,-56,58,151,82,78,34,-29
73,14,-58,-43,65,-21,43,151,97,92,48,4
97,53,-43,-75,70,4,29,151,107,102,63,24
102,58,-43,-80,73,7,4,126,102,102,68,34
112,63,-48,-87,80,7,-9,117,92,102,68,39
107,63,-43,-85,75,9,-19,107,82,102,73,39
102,63,-39,-82,70,12,-19,87,73,97,78,39
92,58,-34,-75,63,12,-19,73,63,87,78,39
87,43,-43,-65,65,0,-29,43,34,58,63,39
78,9,-68,-43,73,-29,-34,24,9,39,43,19
68,-19,-87,-24,78,-53,-34,9,-4,19,24,0
48,-34,-82,-7,65,-58,-24,9,-9,14,9,-14
19,-53,-73,17,46,-63,-14,9,-9,14,0,-19
-9,-82,-73,46,31,-78,-9,9,-19,0,-9,-39
-29,-131,-102,80,36,-117,0,4,-39,-19,-29,-68
-34,-136,-102,85,34,-119,0,4,-39,-19,-39,-73
-34,-146,-112,90,39,-129,0,0,-43,-24,-39,-82
-39,-161,-122,100,41,-141,0,-4,-58,-34,-53,-92
-39,-170,-131,104,46,-151,-4,0,-58,-39,-63,-97
-39,-170,-131,104,46,-151,-4,0,-63,-39,-63,-97
-43,-175,-131,109,43,-153,0,0,-63,-39,-63,-97
-43,-175,-131,109,43,-153,0,0,-63,-39,-68,-97
-43,-180,-136,112,46,-158,0,0,-68,-43,-73,-102
-48,-185,-136,117,43,-161,0,0,-68,-43,-68,-97
-48,-185,-136,117,43,-161,0,0,-68,-48,-68,-92
-48,-185,-136,117,43,-161,0,0,-68,-48,-68,-97
-48,-185,-136,117,43,-161,0,0,-68,-48,-68,-97
-48,-190,-141,119,46,-165,0,0,-73,-53,-73,-102
-53,-190,-136,122,41,-163,4,0,-73,-58,-78,-107
-53,-195,-141,124,43,-168,4,4,-68,-53,-78,-117
-53,-195,-141,124,43,-168,9,4,-68,-53,-78,-126
-63,-214,-151,139,43,-183,24,24,-68,-78,-107,-141
-73,-253,-180,163,53,-217,53,73,-68,-117,-161,-190
-78,-297,-219,187,70,-258,97,156,-48,-112,-195,-224
-73,-336,-263,204,95,-300,146,312,4,-73,-180,-244
-39,-287,-248,163,104,-268,224,580,229,102,-63,-204
73,-146,-219,36,146,-183,248,888,673,502,234,-78
253,68,-185,-161,219,-58,126,873,1102,956,580,92
444,283,-161,-363,302,61,-9,863,1532,1376,893,244
634,483,-151,-558,392,165,-161,814,1815,1664,1122,375
751,590,-161,-671,456,214,-419,278,1522,1507,1122,458
688,790,102,-739,292,446,-790,-902,629,868,834,546
561,1034,473,-797,43,753,-1205,-2474,-683,-73,424,668
29,1185,1156,-607,-563,1171,-1312,-3806,-1839,-1122,-273,653
-854,1361,2215,-253,-1534,1788,-1322,-5011,-2376,-1429,-429,854
-1058,1254,2313,-97,-1686,1783,-1385,-5148,-2566,-1512,-512,819
-917,746,1664,85,-1290,1205,-1259,-4270,-2415,-1542,-692,483
-736,151,888,292,-812,519,-854,-2859,-1883,-1327,-717,136
-502,-302,200,402,-351,-51,-483,-1586,-1210,-985,-673,-180
-326,-488,-161,407,-82,-324,-224,-766,-712,-673,-580,-341
-263,-405,-141,334,-61,-273,-82,-424,-458,-453,-419,-297
-219,-322,-102,270,-58,-212,-4,-209,-297,-302,-287,-219
-175,-258,-82,217,-46,-170,39,-48,-170,-209,-209,-156
-131,-219,-87,175,-21,-153,73,53,-73,-131,-161,-131
-117,-190,-73,153,-21,-131,97,107,-39,-92,-126,-131
-107,-185,-78,146,-14,-131,102,146,-24,-68,-102,-112
-87,-185,-97,136,4,-141,102,185,0,-68,-92,-97
-58,-185,-126,122,34,-156,102,219,24,-43,-87,-97
-39,-175,-136,107,48,-156,107,234,34,-29,-78,-102
-39,-175,-136,107,48,-156,107,244,34,-29,-73,-102
-39,-175,-136,107,48,-156,102,258,34,-29,-68,-102
-29,-175,-146,102,58,-161,102,273,43,-24,-68,-107
-24,-170,-146,97,61,-158,107,283,63,-14,-68,-107
-24,-165,-141,95,58,-153,112,287,68,-9,-68,-107
-24,-165,-141,95,58,-153,117,297,68,-9,-68,-102
-24,-161,-136,92,56,-148,122,307,73,-4,-68,-107
-24,-151,-126,87,51,-139,122,317,82,4,-68,-107
-19,-141,-122,80,51,-131,126,326,92,0,-63,-107
-19,-136,-117,78,48,-126,131,336,97,0,-63,-102
-19,-131,-112,75,46,-122,131,341,107,4,-63,-102
-14,-126,-112,70,48,-119,136,351,117,4,-58,-102
-14,-126,-112,70,48,-119,141,361,126,19,-48,-92
-14,-122,-107,68,46,-114,141,370,131,24,-43,-87
-9,-117,-107,63,48,-112,151,380,141,24,-43,-82
-9,-112,-102,61,46,-107,151,390,146,29,-43,-82
-9,-102,-92,56,41,-97,151,400,156,34,-39,-78
-9,-97,-87,53,39,-92,156,409,161,29,-34,-73
-9,-92,-82,51,36,-87,156,419,165,34,-29,-73
-9,-82,-73,46,31,-78,151,424,165,39,-29,-68
-4,-78,-73,41,34,-75,156,429,175,48,-24,-58
-4,-68,-63,36,29,-65,161,439,180,53,-19,-53
-4,-58,-53,31,24,-56,165,439,185,58,-19,-43
-4,-48,-43,26,19,-46,175,439,190,58,-14,-39
-4,-34,-29,19,12,-31,180,444,195,58,-9,-29
-4,-24,-19,14,7,-21,180,444,200,63,0,-19
4,4,0,-4,2,2,180,444,200,63,0,-9
9,29,19,-19,-4,24,175,439,195,63,9,0
9,43,34,-26,-12,39,175,429,195,73,24,14
9,68,58,-39,-24,63,175,419,190,82,39,29
9,87,78,-48,-34,82,175,409,195,87,48,39
14,112,97,-63,-41,104,170,390,200,92,58,63
9,136,126,-73,-58,131,161,380,195,97,68,73
9,165,156,-87,-73,161,156,356,190,102,82,92
14,190,175,-102,-80,183,146,336,175,97,92,107
14,219,204,-117,-95,212,136,307,161,92,102,117
29,239,209,-134,-90,224,122,283,156,97,117,146
39,268,229,-153,-95,248,117,253,151,107,136,175
39,283,244,-161,-102,263,97,229,141,122,151,200
48,302,253,-175,-102,278,82,200,131,131,170,214
53,317,263,-185,-104,290,68,170,122,126,185,219
63,326,263,-195,-100,295,53,146,117,126,185,229
73,336,263,-204,-95,300,39,122,107,126,185,234
82,336,253,-209,-85,295,19,102,92,126,185,229
92,326,234,-209,-70,280,9,92,92,126,195,229
97,312,214,-204,-58,263,0,78,87,122,195,229
102,302,200,-202,-48,251,-9,68,78,117,190,219
107,283,175,-195,-34,229,-29,58,68,117,185,209
112,268,156,-190,-21,212,-39,58,68,117,185,200
117,248,131,-183,-7,190,-39,58,63,117,180,190
117,219,102,-168,7,161,-39,58,68,117,170,175
117,204,87,-161,14,146,-39,63,63,112,161,156
112,175,63,-143,24,119,-34,63,58,107,151,136
107,151,43,-129,31,97,-29,63,53,102,136,122
97,112,14,-104,41,63,-24,68,53,92,126,97
87,78,-9,-82,48,34,-14,73,48,87,107,82
82,53,-29,-68,56,12,-14,73,48,82,97,68
78,34,-43,-56,61,-4,-9,78,43,78,87,53
68,14,-53,-41,61,-19,-4,73,39,68,78,39
58,-4,-63,-26,61,-34,4,73,39,68,58,24
48,-19,-68,-14,58,-43,9,73,34,58,43,9
43,-29,-73,-7,58,-51,9,73,34,48,34,0
34,-39,-73,2,53,-56,19,73,29,39,34,-9
29,-53,-82,12,56,-68,19,73,24,34,34,-19
24,-63,-87,19,56,-75,24,73,24,34,19,-24
19,-73,-92,26,56,-82,29,68,14,29,14,-29
9,-82,-92,36,51,-87,24,68,14,19,4,-34
0,-87,-87,43,43,-87,24,73,9,14,0,-34
-4,-97,-92,51,43,-95,24,73,4,0,-14,-43
-4,-97,-92,51,43,-95,24,73,0,-14,-29,-58
-9,-107,-97,58,43,-102,24,68,0,-14,-29,-63
-14,-112,-97,63,41,-104,29,63,0,-14,-34,-73
-14,-112,-97,63,41,-104,29,63,-4,-14,-43,-73
-14,-117,-102,65,43,-109,29,63,-4,-19,-53,-78
-14,-117,-102,65,43,-109,34,68,-9,-24,-58,-82
-19,-122,-102,70,41,-112,34,73,-9,-29,-63,-82
-19,-126,-107,73,43,-117,34,73,-9,-29,-58,-78
-24,-131,-107,78,41,-119,39,73,-9,-24,-48,-73
-24,-131,-107,78,41,-119,39,78,0,-24,-48,-78
-24,-136,-112,80,43,-124,39,78,4,-24,-53,-82
-19,-136,-117,78,48,-126,43,82,4,-24,-53,-87
-19,-136,-117,78,48,-126,43,87,4,-24,-53,-92
-19,-141,-122,80,51,-131,48,87,4,-24,-53,-92
-19,-141,-122,80,51,-131,48,87,4,-24,-53,-97
-19,-141,-122,80,51,-131,48,97,4,-24,-58,-97
-19,-146,-126,82,53,-136,53,107,0,-24,-58,-92
-19,-141,-122,80,51,-131,53,107,4,-24,-58,-97
-24,-141,-117,82,46,-129,53,112,4,-19,-63,-97
-24,-141,-117,82,46,-129,48,107,9,-19,-63,-97
-24,-146,-122,85,48,-134,48,107,9,-19,-68,-102
-19,-146,-126,82,53,-136,48,107,9,-19,-63,-102
-19,-146,-126,82,53,-136,48,107,9,-19,-53,-102
-19,-146,-126,82,53,-136,48,107,9,-19,-53,-102
-19,-151,-131,85,56,-141,48,107,14,-19,-48,-102
-19,-146,-126,82,53,-136,43,107,14,-19,-48,-102
-19,-136,-117,78,48,-126,43,107,14,-14,-48,-102
-19,-136,-117,78,48,-126,39,107,14,-14,-43,-102
-19,-141,-122,80,51,-131,39,102,14,-14,-43,-102
-19,-141,-122,80,51,-131,39,102,9,-14,-48,-97
-19,-136,-117,78,48,-126,39,97,9,-14,-53,-97
-9,-122,-112,65,51,-117,43,97,9,-9,-53,-97
0,-107,-107,53,53,-107,48,97,9,-9,-58,-97
0,-107,-107,53,53,-107,53,107,24,0,-43,-87
0,-107,-107,53,53,-107,58,117,39,9,-29,-78
4,-107,-112,51,58,-109,58,117,39,9,-29,-78
9,-97,-107,43,58,-102,58,117,39,14,-24,-73
14,-92,-107,39,61,-100,58,122,39,19,-24,-73
24,-78,-102,26,63,-90,53,126,43,24,-14,-68
43,-53,-97,4,70,-75,53,136,53,34,-4,-58
53,-48,-102,-2,78,-75,53,151,58,39,4,-53
53,-48,-102,-2,78,-75,53,151,63,39,9,-53
63,-34,-97,-14,80,-65,48,161,73,58,24,-39
73,4,-68,-39,70,-31,39,161,87,78,43,-4
97,43,-53,-70,75,-4,29,161,97,92,63,14
102,48,-53,-75,78,-2,4,136,97,92,73,24
112,53,-58,-82,85,-2,-9,126,92,92,78,29
112,53,-58,-82,85,-2,-19,117,82,92,78,29
112,53,-58,-82,85,-2,-19,97,73,87,78,29
102,48,-53,-75,78,-2,-24,87,63,82,73,24
97,34,-63,-65,80,-14,-39,63,34,58,53,19
87,4,-82,-46,85,-39,-43,43,9,39,34,0
78,-19,-97,-29,87,-58,-43,29,-4,19,14,-19
58,-34,-92,-12,75,-63,-34,29,-9,14,4,-29
29,-53,-82,12,56,-68,-24,29,-9,14,0,-29
0,-87,-87,43,43,-87,-19,29,-19,0,-14,-48
-19,-141,-122,80,51,-131,-9,24,-39,-19,-39,-78
-24,-146,-122,85,48,-134,-9,24,-39,-24,-48,-82
-24,-156,-131,90,53,-143,-9,19,-43,-34,-48,-92
-29,-170,-141,100,56,-156,-9,9,-58,-53,-63,-102
-29,-180,-151,104,61,-165,-14,9,-58,-68,-73,-107
-29,-180,-151,104,61,-165,-14,9,-63,-68,-78,-112
-34,-185,-151,109,58,-168,-9,9,-63,-68,-82,-117
-34,-185,-151,109,58,-168,-9,9,-63,-68,-87,-122
-34,-190,-156,112,61,-173,-9,9,-68,-73,-92,-131
-39,-195,-156,117,58,-175,-9,14,-68,-73,-92,-131
-39,-195,-156,117,58,-175,-9,19,-68,-78,-97,-131
-39,-195,-156,117,58,-175,-9,19,-68,-78,-97,-136
-39,-195,-156,117,58,-175,-9,19,-68,-78,-97,-136
-39,-200,-161,119,61,-180,-9,19,-73,-73,-92,-131
-43,-200,-156,122,56,-178,-4,19,-73,-68,-87,-126
-43,-204,-161,124,58,-183,-4,24,-68,-63,-87,-126
-43,-204,-161,124,58,-183,0,24,-68,-63,-87,-126
-53,-224,-170,139,58,-197,14,43,-68,-78,-107,-141
-63,-263,-200,163,68,-231,43,92,-68,-107,-151,-190
-73,-317,-244,195,85,-280,87,136,-63,-126,-204,-234
-73,-366,-292,219,109,-329,136,253,-24,-112,-209,-263
-63,-322,-258,192,97,-290,219,492,185,48,-112,-229
24,-185,-209,80,117,-197,248,771,614,434,165,-107
204,29,-175,-117,190,-73,131,800,1107,941,536,58
395,244,-151,-319,273,46,0,834,1600,1415,873,204
595,434,-161,-514,378,136,-136,927,1995,1800,1156,336
722,531,-190,-627,456,170,-380,531,1815,1742,1210,419
732,766,34,-749,348,400,-785,-561,878,1054,936,507
678,1044,366,-861,156,705,-1234,-2044,-478,63,541,629
151,1215,1063,-683,-456,1139,-1371,-3611,-1839,-1156,-278,595
-727,1410,2137,-341,-1432,1773,-1410,-5050,-2581,-1634,-556,775
-990,1302,2293,-156,-1642,1798,-1498,-5314,-2810,-1727,-649,751
-907,795,1703,56,-1305,1249,-1395,-4562,-2698,-1766,-839,424
-736,165,902,285,-819,534,-956,-3098,-2127,-1537,-858,78
-512,-322,190,417,-351,-65,-551,-1771,-1415,-1180,-810,-239
-326,-512,-185,419,-70,-348,-273,-888,-854,-814,-688,-395
-253,-434,-180,344,-36,-307,-112,-483,-536,-541,-497,-346
-209,-351,-141,280,-34,-246,-34,-258,-356,-380,-351,-263
-165,-287,-122,226,-21,-204,9,-87,-209,-278,-258,-195
-122,-244,-122,183,0,-183,48,24,-107,-180,-200,-165
-107,-209,-102,158,-2,-156,78,87,-68,-122,-156,-161
-97,-195,-97,146,0,-146,82,126,-53,-97,-131,-141
-78,-185,-107,131,14,-146,82,165,-29,-97,-122,-126
-53,-185,-131,119,39,-158,82,200,4,-73,-117,-126
-39,-175,-136,107,48,-156,87,214,24,-58,-107,-131
-39,-180,-141,109,51,-161,97,224,24,-63,-102,-131
-39,-185,-146,112,53,-165,102,239,24,-68,-97,-131
-29,-185,-156,107,63,-170,102,258,34,-63,-97,-131
-24,-180,-156,102,65,-168,107,273,53,-53,-97,-126
-24,-175,-151,100,63,-163,107,278,58,-48,-92,-126
-24,-175,-151,100,63,-163,107,287,58,-48,-87,-122
-24,-170,-146,97,61,-158,112,297,63,-43,-87,-122
-24,-161,-136,92,56,-148,112,307,73,-34,-87,-117
-19,-156,-136,87,58,-146,117,317,82,-34,-82,-117
-19,-156,-136,87,58,-146,122,326,87,-29,-82,-112
-19,-151,-131,85,56,-141,122,331,97,-24,-82,-112
-14,-146,-131,80,58,-139,126,341,107,-24,-78,-112
-14,-141,-126,78,56,-134,131,351,112,-14,-73,-107
-14,-131,-117,73,51,-124,131,361,112,-14,-73,-107
-9,-126,-117,68,53,-122,141,370,122,-14,-73,-102
-9,-122,-112,65,51,-117,141,380,126,-9,-73,-102
-9,-112,-102,61,46,-107,141,390,136,0,-68,-97
-9,-107,-97,58,43,-102,146,400,141,0,-63,-92
-4,-102,-97,53,46,-100,151,409,146,4,-58,-92
0,-92,-92,46,46,-92,151,414,146,9,-58,-87
4,-87,-92,41,48,-90,156,419,156,14,-58,-82
4,-78,-82,36,43,-80,161,429,161,14,-58,-82
4,-68,-73,31,39,-70,156,429,161,19,-58,-73
4,-58,-63,26,34,-61,156,429,161,19,-53,-68
4,-43,-48,19,26,-46,161,434,165,19,-43,-58
4,-34,-39,14,21,-36,161,434,170,24,-29,-48
9,-14,-24,2,17,-19,165,434,175,29,-29,-39
9,0,-9,-4,9,-4,165,429,175,34,-19,-29
14,14,0,-14,7,7,165,414,175,39,-9,-14
19,39,19,-29,0,29,165,400,170,43,0,0
19,63,43,-41,-12,53,165,385,161,43,9,9
24,92,68,-58,-21,80,161,361,151,43,19,34
24,117,92,-70,-34,104,146,346,146,48,29,43
29,146,117,-87,-43,131,136,317,141,53,43,63
34,170,136,-102,-51,153,126,297,131,53,58,87
34,200,165,-117,-65,183,117,268,122,53,73,107
39,219,180,-129,-70,200,102,244,117,58,87,126
39,248,209,-143,-85,229,97,214,112,68,107,146
39,268,229,-153,-95,248,78,190,102,73,122,170
48,292,244,-170,-97,268,63,161,92,73,141,185
53,302,248,-178,-97,275,48,136,82,78,156,195
63,307,244,-185,-90,275,34,117,78,87,156,209
73,317,244,-195,-85,280,19,92,68,92,161,214
82,317,234,-200,-75,275,0,73,53,97,165,209
92,317,224,-204,-65,270,-9,68,58,97,175,209
97,312,214,-204,-58,263,-19,58,58,92,175,209
107,302,195,-204,-43,248,-29,53,53,92,175,204
117,283,165,-200,-24,224,-48,48,48,97,175,200
122,268,146,-195,-12,207,-58,53,53,97,175,190
126,248,122,-187,2,185,-58,58,53,97,170,180
122,219,97,-170,12,158,-53,53,58,102,165,165
117,204,87,-161,14,146,-48,53,53,102,161,146
112,175,63,-143,24,119,-43,53,48,97,151,126
107,151,43,-129,31,97,-39,53,43,92,136,112
97,122,24,-109,36,73,-39,58,43,82,126,92
87,97,9,-92,39,53,-34,63,39,78,107,82
82,73,-9,-78,46,31,-34,63,43,73,97,68
78,53,-24,-65,51,14,-29,68,43,68,87,53
68,34,-34,-51,51,0,-24,68,39,58,78,39
58,14,-43,-36,51,-14,-14,73,39,58,58,24
48,-4,-53,-21,51,-29,-9,78,29,48,43,9
43,-19,-63,-12,53,-41,-9,82,24,39,34,0
34,-29,-63,-2,48,-46,4,82,19,24,19,-14
29,-43,-73,7,51,-58,9,82,14,14,4,-29
24,-53,-78,14,51,-65,14,78,14,9,-9,-39
19,-63,-82,21,51,-73,19,68,4,0,-14,-48
14,-73,-87,29,51,-80,19,63,4,-9,-24,-53
9,-78,-87,34,48,-82,24,63,0,-14,-29,-53
4,-87,-92,41,48,-90,24,63,-4,-19,-39,-58
4,-87,-92,41,48,-90,24,63,-9,-24,-48,-68
0,-97,-97,48,48,-97,24,68,-9,-29,-48,-73
-4,-102,-97,53,46,-100,29,73,-9,-34,-53,-82
-4,-102,-97,53,46,-100,29,73,-14,-34,-58,-82
-4,-107,-102,56,48,-104,29,73,-14,-39,-63,-87
-4,-107,-102,56,48,-104,34,73,-19,-39,-68,-92
-9,-112,-102,61,46,-107,34,73,-19,-39,-73,-92
-9,-112,-102,61,46,-107,34,73,-19,-43,-78,-92
-14,-112,-97,63,41,-104,39,73,-19,-43,-78,-92
-14,-112,-97,63,41,-104,39,78,-14,-43,-73,-92
-14,-117,-102,65,43,-109,39,78,-14,-43,-73,-92
-14,-122,-107,68,46,-114,43,82,-9,-39,-73,-92
-19,-126,-107,73,43,-117,43,87,-4,-34,-73,-92
-19,-131,-112,75,46,-122,48,87,-4,-34,-73,-92
-19,-131,-112,75,46,-122,48,87,-4,-34,-73,-97
-19,-131,-112,75,46,-122,48,92,0,-39,-78,-102
-19,-136,-117,78,48,-126,53,97,0,-43,-78,-102
-14,-131,-117,73,51,-124,53,97,0,-43,-73,-107
-14,-131,-117,73,51,-124,53,102,-4,-39,-73,-107
-14,-131,-117,73,51,-124,48,97,0,-34,-73,-107
-14,-136,-122,75,53,-129,48,97,0,-29,-78,-112
-14,-131,-117,73,51,-124,48,97,0,-29,-82,-112
-19,-126,-107,73,43,-117,48,97,0,-29,-82,-112
-19,-126,-107,73,43,-117,48,92,0,-29,-82,-107
-19,-131,-112,75,46,-122,48,87,4,-29,-78,-102
-14,-131,-117,73,51,-124,43,87,9,-29,-68,-102
-9,-126,-117,68,53,-122,43,87,14,-24,-58,-102
-9,-126,-117,68,53,-122,39,87,14,-24,-53,-102
-9,-131,-122,70,56,-126,39,82,14,-24,-53,-102
-9,-131,-122,70,56,-126,39,82,4,-24,-58,-102
-9,-126,-117,68,53,-122,39,78,0,-24,-63,-107
-4,-112,-107,58,51,-109,43,87,4,-14,-53,-102
0,-97,-97,48,48,-97,48,97,9,-9,-48,-97
9,-87,-97,39,53,-92,48,102,19,0,-39,-87
19,-78,-97,29,58,-87,48,107,29,9,-29,-78
24,-78,-102,26,63,-90,53,107,29,9,-29,-78
29,-73,-102,21,65,-87,58,107,29,14,-24,-73
34,-68,-102,17,68,-85,63,112,34,19,-24,-73
43,-58,-102,7,73,-80,63,117,43,24,-14,-68
58,-34,-92,-12,75,-63,63,126,53,39,-4,-53
63,-29,-92,-17,78,-61,63,141,58,48,4,-43
63,-29,-92,-17,78,-61,63,141,63,48,9,-43
73,-14,-87,-29,80,-51,58,151,73,68,24,-29
78,24,-53,-51,65,-14,39,151,82,82,43,4
97,63,-34,-80,65,14,19,151,87,92,63,24
102,68,-34,-85,68,17,-4,122,87,92,68,29
112,73,-39,-92,75,17,-19,107,82,92,68,29
112,73,-39,-92,75,17,-29,97,73,92,68,29
112,73,-39,-92,75,17,-29,78,63,87,68,29
102,68,-34,-85,68,17,-24,73,53,82,68,24
97,53,-43,-75,70,4,-29,53,24,58,53,19
82,19,-63,-51,73,-21,-34,34,0,39,29,0
68,-9,-78,-29,73,-43,-34,19,-14,19,4,-19
48,-24,-73,-12,61,-48,-24,19,-19,9,-9,-34
19,-43,-63,12,41,-53,-14,19,-19,4,-19,-39
0,-73,-73,36,36,-73,-9,19,-29,-9,-34,-58
-9,-122,-112,65,51,-117,0,14,-48,-29,-58,-87
-14,-126,-112,70,48,-119,0,14,-48,-39,-68,-92
-14,-136,-122,75,53,-129,0,9,-53,-53,-68,-102
-24,-151,-126,87,51,-139,0,0,-68,-63,-78,-112
-29,-161,-131,95,51,-146,-4,0,-68,-68,-82,-117
-29,-161,-131,95,51,-146,-9,0,-73,-68,-78,-117
-34,-165,-131,100,48,-148,-9,0,-73,-68,-73,-117
-34,-165,-131,100,48,-148,-9,0,-73,-68,-78,-117
-34,-170,-136,102,51,-153,-9,0,-78,-73,-82,-122
-39,-175,-136,107,48,-156,-9,0,-78,-73,-87,-122
-39,-175,-136,107,48,-156,-9,0,-78,-78,-97,-122
-39,-175,-136,107,48,-156,-4,0,-78,-78,-97,-131
-39,-175,-136,107,48,-156,0,0,-78,-78,-97,-136
-34,-180,-146,107,56,-163,0,0,-82,-73,-97,-136
-34,-180,-146,107,56,-163,4,0,-82,-68,-97,-136
-34,-185,-151,109,58,-168,4,4,-78,-63,-97,-131
-34,-185,-151,109,58,-168,9,4,-78,-63,-97,-126
-48,-204,-156,126,53,-180,24,29,-73,-78,-117,-141
-63,-244,-180,153,58,-212,53,82,-68,-107,-161,-190
-73,-287,-214,180,70,-251,97,146,-53,-117,-204,-234
-73,-326,-253,200,90,-290,146,283,-4,-92,-200,-263
-58,-268,-209,163,75,-239,214,478,229,92,-87,-219
34,-117,-151,41,92,-134,229,712,683,502,204,-87
214,97,-117,-156,165,-9,102,727,1176,1019,580,82
405,312,-92,-358,248,109,-39,746,1668,1503,922,234
605,502,-102,-553,353,200,-204,790,1981,1830,1180,366
732,600,-131,-666,431,234,-478,346,1717,1712,1210,448
732,785,53,-758,339,419,-897,-785,683,946,893,522
668,1015,346,-841,161,680,-1361,-2308,-771,-122,453,629
170,1161,990,-666,-409,1076,-1517,-3855,-2166,-1346,-356,590
-678,1332,2010,-326,-1344,1671,-1576,-5275,-2942,-1830,-624,766
-941,1244,2186,-151,-1564,1715,-1590,-5411,-3050,-1859,-683,746
-858,756,1615,51,-1237,1185,-1415,-4533,-2815,-1834,-839,424
-692,141,834,275,-763,488,-956,-3040,-2156,-1537,-834,92
-473,-331,141,402,-307,-95,-531,-1683,-1356,-1112,-761,-209
-307,-507,-200,407,-53,-353,-248,-829,-810,-771,-653,-375
-253,-414,-161,334,-46,-287,-82,-453,-507,-522,-478,-336
-209,-331,-122,270,-43,-226,-4,-234,-336,-361,-336,-253
-165,-268,-102,217,-31,-185,39,-68,-200,-258,-248,-185
-126,-224,-97,175,-14,-161,73,39,-97,-170,-195,-161
-117,-190,-73,153,-21,-131,97,97,-58,-122,-156,-161
-107,-180,-73,143,-17,-126,102,136,-43,-97,-131,-141
-87,-175,-87,131,0,-131,102,175,-19,-97,-122,-126
-58,-175,-117,117,29,-146,102,209,9,-73,-117,-126
-39,-165,-126,102,43,-146,107,224,24,-58,-107,-131
-39,-165,-126,102,43,-146,112,234,29,-53,-97,-126
-39,-165,-126,102,43,-146,112,248,34,-48,-87,-122
-29,-165,-136,97,53,-151,112,268,43,-43,-87,-122
-24,-161,-136,92,56,-148,117,283,63,-34,-87,-117
-24,-156,-131,90,53,-143,122,287,68,-29,-82,-117
-24,-156,-131,90,53,-143,126,297,68,-29,-78,-112
-24,-151,-126,87,51,-139,131,307,73,-24,-78,-117
-24,-141,-117,82,46,-129,131,317,82,-14,-78,-117
-19,-136,-117,78,48,-126,131,326,92,-19,-73,-117
-19,-136,-117,78,48,-126,131,336,97,-19,-73,-112
-24,-126,-102,75,39,-114,131,341,107,-14,-78,-112
-24,-117,-92,70,34,-104,136,351,117,-14,-78,-112
-24,-112,-87,68,31,-100,146,366,126,0,-73,-107
-24,-102,-78,63,26,-90,151,380,131,4,-73,-107
-14,-97,-82,56,34,-90,161,390,141,4,-68,-102
-9,-92,-82,51,36,-87,161,400,146,9,-63,-102
-9,-82,-73,46,31,-78,161,409,156,19,-58,-97
-9,-78,-68,43,29,-73,165,419,161,19,-53,-92
-9,-73,-63,41,26,-68,170,429,165,24,-48,-87
-9,-63,-53,36,21,-58,170,434,165,29,-48,-78
-4,-58,-53,31,24,-56,175,439,175,34,-43,-73
-4,-48,-43,26,19,-46,180,448,180,34,-39,-73
-4,-39,-34,21,14,-36,180,448,180,34,-43,-63
-4,-29,-24,17,9,-26,185,448,180,29,-43,-58
-9,-14,-4,12,-2,-9,190,453,185,29,-39,-48
-14,-4,9,9,-12,2,190,453,190,34,-29,-39
-9,19,29,-4,-19,24,195,453,195,39,-24,-29
-9,39,48,-14,-29,43,195,448,195,43,-9,-19
-9,48,58,-19,-34,53,195,434,195,48,0,-4
-9,68,78,-29,-43,73,195,419,190,53,9,9
-4,87,92,-41,-48,90,190,409,185,58,19,19
4,112,107,-58,-51,109,180,390,180,63,29,43
4,136,131,-70,-63,134,170,375,175,68,39,53
9,165,156,-87,-73,161,165,346,170,73,53,73
14,190,175,-102,-80,183,156,326,161,78,73,97
14,219,204,-117,-95,212,146,297,151,82,92,117
24,239,214,-131,-95,226,131,278,146,87,107,136
29,268,239,-148,-104,253,126,253,141,97,126,156
29,287,258,-158,-114,273,107,229,131,102,141,180
39,312,273,-175,-117,292,92,200,122,102,161,195
43,326,283,-185,-119,305,78,170,112,107,175,204
53,336,283,-195,-114,309,63,146,107,117,175,219
63,346,283,-204,-109,314,48,122,97,117,180,229
73,346,273,-209,-100,309,29,102,82,117,185,229
82,341,258,-212,-87,300,19,92,82,117,195,229
87,331,244,-209,-78,287,9,78,78,112,195,229
97,322,224,-209,-63,273,0,73,78,117,195,219
107,302,195,-204,-43,248,-19,68,78,126,195,209
112,287,175,-200,-31,231,-29,68,78,126,195,200
117,268,151,-192,-17,209,-29,68,73,126,190,190
112,239,126,-175,-7,183,-29,63,78,126,180,175
107,224,117,-165,-4,170,-29,63,73,122,170,156
102,195,92,-148,4,143,-29,63,68,117,161,136
97,170,73,-134,12,122,-29,63,63,112,146,122
87,136,48,-112,19,92,-24,63,63,102,136,102
78,107,29,-92,24,68,-14,63,58,97,117,92
73,82,9,-78,31,46,-14,63,58,92,107,78
68,63,-4,-65,36,29,-9,68,53,87,97,63
58,43,-14,-51,36,14,-4,68,48,73,87,48
48,24,-24,-36,36,0,4,73,48,68,68,34
39,4,-34,-21,36,-14,9,73,39,58,53,19
34,-9,-43,-12,39,-26,9,73,34,48,43,9
24,-19,-43,-2,34,-31,14,73,29,39,39,0
19,-34,-53,7,36,-43,9,73,24,34,34,-9
14,-43,-58,14,36,-51,14,73,24,34,19,-19
9,-53,-63,21,36,-58,19,68,14,29,14,-29
4,-58,-63,26,34,-61,19,63,14,19,4,-39
0,-58,-58,29,29,-58,24,63,9,14,0,-43
-4,-68,-63,36,29,-65,24,63,4,4,-9,-48
-4,-68,-63,36,29,-65,24,63,0,-4,-19,-58
-9,-78,-68,43,29,-73,24,63,0,-9,-19,-53
-14,-82,-68,48,26,-75,29,63,0,-14,-24,-53
-14,-82,-68,48,26,-75,29,63,-4,-14,-24,-53
-14,-87,-73,51,29,-80,29,63,-4,-19,-24,-58
-9,-87,-78,48,34,-82,34,63,-9,-19,-29,-63
-9,-92,-82,51,36,-87,34,63,-9,-19,-34,-63
-9,-97,-87,53,39,-92,34,68,-9,-24,-39,-63
-14,-102,-87,58,36,-95,39,73,-9,-24,-39,-63
-19,-102,-82,61,31,-92,39,78,-4,-24,-39,-68
-24,-107,-82,65,29,-95,39,78,-4,-24,-43,-73
-24,-107,-82,65,29,-95,43,82,-4,-24,-43,-73
-29,-107,-78,68,24,-92,43,87,-4,-24,-43,-73
-29,-117,-87,73,29,-102,48,87,-4,-24,-43,-73
-29,-122,-92,75,31,-107,48,87,-4,-24,-43,-78
-29,-122,-92,75,31,-107,48,92,0,-24,-48,-82
-29,-126,-97,78,34,-112,53,97,0,-24,-48,-82
-29,-126,-97,78,34,-112,53,97,4,-24,-43,-87
-34,-131,-97,82,31,-114,53,102,4,-19,-43,-87
-34,-131,-97,82,31,-114,53,102,9,-19,-43,-87
-34,-136,-102,85,34,-119,58,107,9,-19,-48,-92
-29,-136,-107,82,39,-122,58,107,9,-14,-53,-92
-29,-136,-107,82,39,-122,58,107,9,-9,-53,-92
-29,-136,-107,82,39,-122,63,102,9,-9,-53,-92
-29,-141,-112,85,41,-126,68,97,14,-9,-48,-92
-29,-141,-112,85,41,-126,63,97,14,-9,-48,-92
-29,-136,-107,82,39,-122,63,97,14,-4,-48,-92
-29,-136,-107,82,39,-122,58,97,14,-4,-43,-92
-29,-141,-112,85,41,-126,58,92,14,-4,-43,-87
-29,-131,-102,80,36,-117,58,92,19,0,-34,-82
-29,-122,-92,75,31,-107,63,97,24,4,-24,-82
-19,-107,-87,63,34,-97,68,102,29,9,-19,-73
-9,-97,-87,53,39,-92,78,107,39,19,-19,-68
0,-92,-92,46,46,-92,78,112,39,19,-19,-68
9,-87,-97,39,53,-92,78,117,39,19,-19,-68
9,-78,-87,34,48,-82,73,117,39,24,-19,-63
14,-68,-82,26,48,-75,73,122,43,29,-9,-53
24,-58,-82,17,53,-70,73,126,53,39,-4,-48
39,-34,-73,-2,56,-53,73,136,63,53,4,-39
43,-29,-73,-7,58,-51,73,151,68,58,14,-34
43,-29,-73,-7,58,-51,73,151,73,58,19,-34
53,-14,-68,-19,61,-41,68,161,82,78,34,-24
63,24,-39,-43,51,-7,53,161,97,97,53,4
87,63,-24,-75,56,19,39,161,107,112,78,24
92,68,-24,-80,58,21,14,136,107,112,87,29
102,73,-29,-87,65,21,0,126,102,112,87,34
102,73,-29,-87,65,21,-9,117,92,112,87,39
102,78,-24,-90,63,26,-9,97,87,107,87,39
92,78,-14,-85,53,31,-9,87,82,102,87,39
87,63,-24,-75,56,19,-19,63,53,78,73,43
78,29,-48,-53,63,-9,-24,43,29,58,53,29
68,-4,-73,-31,70,-39,-24,24,9,39,34,9
48,-24,-73,-12,61,-48,-14,19,0,29,19,-4
19,-43,-63,12,41,-53,-4,19,0,24,9,-9
-9,-73,-63,41,26,-68,0,19,-9,9,-4,-29
-29,-126,-97,78,34,-112,9,14,-29,-9,-29,-58
-34,-136,-102,85,34,-119,9,14,-29,-14,-39,-63
-34,-146,-112,90,39,-129,9,9,-34,-24,-39,-73
-39,-161,-122,100,41,-141,9,0,-48,-34,-48,-82
-39,-170,-131,104,46,-151,4,0,-48,-43,-58,-92
-39,-170,-131,104,46,-151,4,0,-53,-48,-63,-97
-43,-175,-131,109,43,-153,9,0,-58,-48,-63,-97
-43,-175,-131,109,43,-153,9,0,-63,-48,-68,-97
-43,-180,-136,112,46,-158,9,0,-68,-53,-73,-102
-48,-185,-136,117,43,-161,9,0,-68,-53,-73,-102
-48,-185,-136,117,43,-161,9,0,-68,-58,-78,-102
-48,-185,-136,117,43,-161,9,0,-68,-58,-78,-107
-48,-185,-136,117,43,-161,9,0,-63,-58,-73,-107
-48,-190,-141,119,46,-165,9,0,-63,-58,-68,-107
-53,-190,-136,122,41,-163,14,0,-63,-58,-68,-107
-53,-195,-141,124,43,-168,14,4,-58,-53,-68,-107
-53,-185,-131,119,39,-158,14,-4,-58,-43,-58,-102
-63,-195,-131,129,34,-163,24,4,-58,-48,-68,-112
-73,-234,-161,153,43,-197,53,39,-68,-87,-122,-161
-82,-283,-200,183,58,-241,97,87,-68,-112,-180,-204
-102,-356,-253,229,75,-305,146,204,-82,-156,-224,-253
-107,-336,-229,222,61,-283,224,424,68,-58,-170,-239
-34,-209,-175,122,70,-192,283,732,473,302,92,-126
126,-9,-136,-58,131,-73,195,766,922,771,444,34
331,229,-102,-280,217,63,68,839,1507,1327,824,204
546,444,-102,-495,324,170,-73,946,1971,1781,1141,356
717,512,-204,-614,461,153,-312,688,1956,1869,1273,429
761,683,-78,-722,419,302,-697,-258,1220,1356,1078,497
849,912,63,-880,392,488,-1234,-1810,-292,258,639,595
483,1049,566,-766,-41,807,-1468,-3337,-1761,-1024,-165,556
-556,1346,1903,-395,-1229,1625,-1542,-5109,-2654,-1581,-444,824
-990,1400,2391,-204,-1690,1895,-1620,-5724,-3025,-1771,-561,893
-941,976,1917,-17,-1429,1446,-1517,-5016,-2903,-1810,-746,605
-805,395,1200,204,-1002,797,-1107,-3620,-2352,-1590,-780,283
-561,-200,361,380,-461,80,-644,-2074,-1532,-1190,-741,-102
-366,-502,-136,434,-114,-319,-312,-1024,-902,-824,-649,-336
-297,-429,-131,363,-82,-280,-122,-580,-566,-556,-478,-302
-248,-351,-102,300,-73,-226,-14,-287,-356,-370,-336,-229
-204,-287,-82,246,-61,-185,39,-97,-200,-253,-239,-165
-161,-244,-82,202,-39,-163,87,29,-78,-151,-175,-141
-141,-204,-63,173,-39,-134,117,92,-39,-97,-131,-141
-126,-190,-63,158,-31,-126,122,136,-24,-68,-102,-122
-107,-185,-78,146,-14,-131,122,180,4,-68,-92,-107
-78,-185,-107,131,14,-146,122,219,39,-43,-87,-107
-58,-175,-117,117,29,-146,126,234,53,-29,-78,-112
-58,-175,-117,117,29,-146,131,244,53,-29,-73,-112
-58,-175,-117,117,29,-146,131,258,53,-29,-68,-112
-48,-175,-126,112,39,-151,131,278,63,-24,-68,-112
-39,-170,-131,104,46,-151,136,292,82,-14,-68,-107
-34,-165,-131,100,48,-148,136,297,87,-9,-63,-107
-34,-165,-131,100,48,-148,136,307,87,-9,-58,-102
-34,-161,-126,97,46,-143,141,317,92,-4,-58,-102
-34,-151,-117,92,41,-134,141,326,102,4,-58,-97
-29,-146,-117,87,43,-131,146,336,112,4,-53,-97
-29,-146,-117,87,43,-131,151,346,117,9,-53,-92
-29,-141,-112,85,41,-126,151,351,126,14,-53,-92
-24,-136,-112,80,43,-124,156,361,136,14,-48,-92
-24,-131,-107,78,41,-119,161,370,146,24,-43,-87
-24,-122,-97,73,36,-109,161,380,151,29,-39,-87
-19,-117,-97,68,39,-107,170,390,161,34,-34,-82
-19,-112,-92,65,36,-102,170,400,165,39,-34,-82
-19,-102,-82,61,31,-92,170,409,175,48,-29,-78
-19,-97,-78,58,29,-87,175,419,185,48,-24,-73
-19,-92,-73,56,26,-82,180,429,195,53,-19,-73
-19,-82,-63,51,21,-73,180,434,195,53,-19,-63
-14,-78,-63,46,24,-70,185,439,204,53,-14,-53
-19,-68,-48,43,14,-58,190,453,209,53,-9,-53
-24,-58,-34,41,4,-46,190,458,209,58,-9,-43
-24,-48,-24,36,0,-36,195,458,204,58,-9,-43
-24,-34,-9,29,-7,-21,200,463,204,58,-9,-39
-24,-24,0,24,-12,-12,200,463,209,63,0,-29
-19,0,19,9,-19,9,204,463,214,63,0,-19
-19,19,39,0,-29,29,204,458,214,68,9,-9
-19,34,53,-7,-36,43,204,448,214,78,19,4
-19,58,78,-19,-48,68,204,439,209,82,29,19
-19,78,97,-29,-58,87,204,429,209,87,39,29
-9,97,107,-43,-58,102,200,414,209,87,48,48
-4,117,122,-56,-63,119,190,409,204,87,58,53
0,146,146,-73,-73,146,185,385,200,92,68,73
4,170,165,-87,-80,168,175,366,190,97,78,97
0,200,200,-100,-100,200,165,336,185,102,92,117
4,219,214,-112,-104,217,151,312,185,107,107,136
9,248,239,-129,-114,244,146,283,180,122,126,156
9,268,258,-139,-124,263,126,258,170,131,141,180
19,297,278,-158,-129,287,112,229,161,131,161,200
24,317,292,-170,-134,305,97,204,151,136,175,214
34,326,292,-180,-129,309,82,180,146,141,175,229
43,336,292,-190,-124,314,68,151,136,136,180,239
53,341,287,-197,-117,314,48,131,122,136,185,239
63,341,278,-202,-107,309,39,122,122,136,195,239
68,331,263,-200,-97,297,29,107,117,131,200,239
78,322,244,-200,-82,283,19,97,112,131,204,229
87,302,214,-195,-63,258,-4,87,107,136,204,219
92,287,195,-190,-51,241,-19,87,107,136,204,209
102,268,165,-185,-31,217,-19,87,102,136,200,204
107,239,131,-173,-12,185,-19,82,102,136,190,195
107,224,117,-165,-4,170,-19,78,92,131,180,175
102,195,92,-148,4,143,-19,73,87,126,170,156
97,170,73,-134,12,122,-19,73,82,122,156,141
87,141,53,-114,17,97,-19,73,82,112,146,117
78,117,39,-97,19,78,-14,68,78,107,126,102
73,92,19,-82,26,56,-14,63,78,102,117,87
68,73,4,-70,31,39,-9,68,68,97,107,73
58,53,-4,-56,31,24,-4,68,58,82,97,58
48,34,-14,-41,31,9,4,73,58,78,78,43
39,14,-24,-26,31,-4,9,73,48,68,63,29
34,-4,-39,-14,36,-21,9,73,43,58,53,19
24,-19,-43,-2,34,-31,19,73,39,48,43,9
19,-34,-53,7,36,-43,14,73,34,43,34,0
14,-43,-58,14,36,-51,14,73,34,39,19,-9
9,-48,-58,19,34,-53,19,68,24,34,19,-19
4,-53,-58,24,31,-56,19,63,24,29,14,-24
0,-58,-58,29,29,-58,24,63,19,24,9,-24
-4,-68,-63,36,29,-65,24,63,14,19,4,-29
-4,-68,-63,36,29,-65,24,63,9,14,0,-39
-9,-78,-68,43,29,-73,24,63,9,14,0,-39
-14,-87,-73,51,29,-80,29,58,9,9,-9,-43
-14,-92,-78,53,31,-85,29,53,4,4,-19,-43
-14,-97,-82,56,34,-90,29,53,4,0,-24,-48
-14,-97,-82,56,34,-90,34,53,0,-4,-29,-53
-19,-102,-82,61,31,-92,34,58,0,-9,-34,-53
-19,-107,-87,63,34,-97,34,63,0,-14,-39,-53
-24,-112,-87,68,31,-100,39,63,0,-14,-39,-53
-24,-112,-87,68,31,-100,39,68,4,-14,-39,-58
-24,-117,-92,70,34,-104,39,68,4,-14,-43,-68
-24,-117,-92,70,34,-104,43,73,4,-14,-43,-73
-29,-117,-87,73,29,-102,43,78,4,-14,-43,-73
-29,-122,-92,75,31,-107,48,78,4,-14,-43,-73
-29,-122,-92,75,31,-107,48,78,4,-14,-43,-73
-29,-122,-92,75,31,-107,48,82,9,-14,-48,-73
-29,-126,-97,78,34,-112,53,87,9,-14,-48,-73
-29,-126,-97,78,34,-112,53,87,14,-14,-43,-78
-34,-131,-97,82,31,-114,58,87,9,-9,-43,-78
-34,-131,-97,82,31,-114,63,82,9,-9,-43,-78
-34,-136,-102,85,34,-119,68,87,9,-9,-48,-82
-29,-136,-107,82,39,-122,68,87,9,-9,-53,-82
-34,-136,-102,85,34,-119,68,87,9,-9,-53,-82
-39,-136,-97,87,29,-117,68,87,9,-9,-53,-82
-39,-141,-102,90,31,-122,68,87,14,-9,-48,-82
-39,-141,-102,90,31,-122,63,87,14,-9,-48,-82
-39,-136,-97,87,29,-117,63,87,14,-4,-48,-82
-39,-136,-97,87,29,-117,58,87,14,-4,-43,-82
-39,-146,-107,92,34,-126,58,82,14,-4,-43,-82
-39,-151,-112,95,36,-131,58,82,9,-4,-43,-78
-34,-141,-107,87,36,-124,58,82,9,-4,-43,-78
-29,-131,-102,80,36,-117,63,87,14,-4,-43,-82
-19,-117,-97,68,39,-107,63,92,19,0,-34,-73
-9,-107,-97,58,43,-102,68,97,29,9,-29,-68
-4,-107,-102,56,48,-104,68,102,34,14,-24,-58
0,-107,-107,53,53,-107,68,107,39,19,-19,-48
0,-102,-102,51,51,-102,68,107,39,24,-19,-48
4,-92,-97,43,51,-95,68,112,43,29,-9,-43
14,-82,-97,34,56,-90,73,117,53,34,-4,-43
29,-53,-82,12,56,-68,73,126,63,43,4,-39
34,-48,-82,7,58,-65,73,141,63,48,14,-34
34,-48,-82,7,58,-65,73,141,63,48,19,-34
43,-43,-87,0,65,-65,73,151,73,68,34,-29
53,-14,-68,-19,61,-41,63,151,87,87,53,-4
82,34,-48,-58,65,-7,48,156,102,102,73,24
92,48,-43,-70,68,2,24,136,107,102,78,39
102,53,-48,-78,75,2,4,126,102,102,78,39
102,53,-48,-78,75,2,-9,117,92,102,78,39
102,63,-39,-82,70,12,-9,97,87,102,82,43
92,68,-24,-80,58,21,-9,87,82,102,87,48
92,53,-39,-73,65,7,-19,58,53,78,78,53
87,19,-68,-53,78,-24,-24,34,29,58,63,39
78,-9,-87,-34,82,-48,-29,14,9,39,43,19
58,-24,-82,-17,70,-53,-24,9,0,29,29,4
29,-34,-63,2,46,-48,-14,9,0,24,19,0
0,-53,-53,26,26,-53,-9,9,-9,9,4,-19
-29,-112,-82,70,26,-97,4,9,-29,-9,-24,-53
-43,-126,-82,85,19,-104,9,14,-29,-14,-39,-63
-43,-136,-92,90,24,-114,9,9,-34,-24,-39,-73
-48,-151,-102,100,26,-126,9,0,-48,-34,-48,-82
-48,-165,-117,107,34,-141,4,0,-53,-43,-53,-92
-48,-170,-122,109,36,-146,4,0,-63,-48,-53,-97
-53,-175,-122,114,34,-148,4,-4,-63,-48,-53,-97
-53,-175,-122,114,34,-148,0,-9,-63,-48,-58,-97
-53,-180,-126,117,36,-153,0,-9,-68,-53,-63,-102
-58,-185,-126,122,34,-156,0,-9,-68,-53,-63,-102
-58,-185,-126,122,34,-156,4,-9,-68,-58,-68,-97
-58,-185,-126,122,34,-156,9,-9,-68,-58,-68,-97
-58,-185,-126,122,34,-156,9,-9,-68,-58,-73,-97
-58,-190,-131,124,36,-161,9,-9,-73,-58,-78,-97
-58,-190,-131,124,36,-161,9,-9,-73,-58,-78,-97
-53,-195,-141,124,43,-168,4,-4,-68,-53,-78,-97
-53,-185,-131,119,39,-158,9,-14,-68,-43,-68,-87
-63,-195,-131,129,34,-163,24,-4,-68,-48,-78,-92
-78,-234,-156,156,39,-195,43,19,-78,-87,-122,-141
-92,-283,-190,187,48,-236,78,58,-78,-112,-170,-185
-112,-380,-268,246,78,-324,126,156,-141,-195,-253,-258
-117,-385,-268,251,75,-326,204,356,-39,-136,-239,-268
-63,-273,-209,168,73,-241,292,732,336,185,-4,-170
78,-87,-165,4,122,-126,234,834,756,614,317,-24
287,165,-122,-226,204,21,122,907,1376,1190,727,151
507,395,-112,-451,309,141,-4,1015,1873,1664,1073,307
697,458,-239,-578,468,109,-195,907,2044,1893,1268,390
761,624,-136,-692,448,244,-531,112,1493,1522,1137,468
922,868,-53,-895,488,407,-1098,-1429,39,492,746,580
629,1019,390,-824,119,705,-1361,-2947,-1371,-722,-9,556
-497,1366,1864,-434,-1180,1615,-1444,-4889,-2366,-1361,-326,858
-1019,1468,2488,-224,-1754,1978,-1532,-5675,-2840,-1634,-483,961
-1000,1083,2083,-41,-1542,1583,-1517,-5172,-2864,-1756,-702,683
-893,541,1434,175,-1163,988,-1195,-3982,-2459,-1620,-771,370
-629,-107,522,368,-575,207,-717,-2342,-1634,-1239,-751,-43
-414,-463,-48,439,-183,-256,-370,-1200,-1000,-893,-678,-307
-331,-424,-92,378,-119,-258,-161,-702,-634,-600,-507,-302
-268,-380,-112,324,-78,-246,-34,-356,-395,-390,-366,-258
-219,-307,-87,263,-65,-197,19,-141,-234,-273,-258,-185
-170,-253,-82,212,-43,-168,68,9,-107,-170,-185,-151
-156,-209,-53,183,-51,-131,102,73,-63,-112,-146,-151
-146,-190,-43,168,-51,-117,112,117,-43,-78,-122,-131
-126,-185,-58,156,-34,-122,112,165,-19,-78,-107,-112
-97,-185,-87,141,-4,-136,112,209,9,-53,-97,-107
-68,-175,-107,122,19,-141,117,224,29,-39,-87,-112
-58,-175,-117,117,29,-146,122,234,34,-39,-82,-112
-58,-175,-117,117,29,-146,122,248,34,-39,-78,-112
-48,-175,-126,112,39,-151,122,268,43,-34,-78,-112
-39,-170,-131,104,46,-151,126,283,63,-24,-78,-102
-34,-165,-131,100,48,-148,126,287,68,-19,-73,-97
-34,-165,-131,100,48,-148,126,297,68,-19,-63,-92
-34,-161,-126,97,46,-143,131,307,73,-14,-58,-92
-39,-151,-112,95,36,-131,131,317,82,0,-58,-87
-39,-146,-107,92,34,-126,136,326,92,4,-53,-87
-39,-146,-107,92,34,-126,141,336,97,9,-53,-82
-39,-141,-102,90,31,-122,141,341,107,14,-53,-82
-34,-136,-102,85,34,-119,146,351,117,9,-48,-82
-34,-131,-97,82,31,-114,151,361,126,14,-43,-78
-34,-122,-87,78,26,-104,151,370,131,14,-43,-82
-29,-117,-87,73,29,-102,161,380,141,14,-43,-82
-29,-112,-82,70,26,-97,161,390,146,24,-39,-82
-29,-102,-73,65,21,-87,161,400,156,39,-29,-78
-29,-97,-68,63,19,-82,165,409,165,43,-24,-73
-29,-92,-63,61,17,-78,170,419,175,53,-19,-73
-24,-82,-58,53,17,-70,170,424,175,58,-24,-68
-14,-78,-63,46,24,-70,175,429,185,63,-24,-63
-14,-68,-53,41,19,-61,180,439,185,58,-24,-63
-14,-58,-43,36,14,-51,180,439,180,58,-29,-53
-14,-48,-34,31,9,-41,185,444,180,58,-24,-43
-14,-34,-19,24,2,-26,190,453,185,58,-19,-29
-14,-29,-14,21,0,-21,190,453,190,68,-4,-19
-9,-9,0,9,-4,-4,195,453,195,73,0,-9
-9,4,14,2,-12,9,195,453,200,73,9,-4
-9,14,24,-2,-17,19,195,448,204,78,19,4
-9,39,48,-14,-29,43,195,439,200,82,24,19
-9,58,68,-24,-39,63,195,429,200,87,29,29
-4,82,87,-39,-46,85,195,409,200,87,39,48
-4,107,112,-51,-58,109,190,400,195,87,48,53
-4,136,141,-65,-73,139,185,385,195,92,63,73
-4,161,165,-78,-85,163,175,375,190,97,78,97
-4,195,200,-95,-102,197,165,346,180,102,92,117
4,219,214,-112,-104,217,151,322,175,107,107,136
9,248,239,-129,-114,244,146,292,175,122,126,156
9,268,258,-139,-124,263,126,268,170,131,141,180
19,297,278,-158,-129,287,112,239,161,131,165,200
24,317,292,-170,-134,305,97,214,151,136,185,214
34,326,292,-180,-129,309,82,195,146,141,185,229
43,336,292,-190,-124,314,68,170,136,136,190,239
53,341,287,-197,-117,314,48,141,112,131,190,239
63,341,278,-202,-107,309,39,122,102,126,195,239
73,331,258,-202,-92,295,29,107,97,122,195,239
87,322,234,-204,-73,278,19,97,92,122,195,229
97,302,204,-200,-53,253,0,82,87,126,195,219
102,287,185,-195,-41,236,-9,78,87,126,195,209
107,268,161,-187,-26,214,-14,78,82,126,190,200
107,239,131,-173,-12,185,-19,73,82,126,180,185
107,224,117,-165,-4,170,-24,73,73,122,170,175
102,195,92,-148,4,143,-29,73,68,117,161,165
97,170,73,-134,12,122,-29,73,63,112,146,151
87,141,53,-114,17,97,-29,73,63,102,136,126
78,112,34,-95,21,73,-24,73,58,97,126,112
73,82,9,-78,31,46,-24,73,58,92,126,97
68,63,-4,-65,36,29,-19,73,53,92,117,82
58,43,-14,-51,36,14,-14,68,48,82,107,68
48,24,-24,-36,36,0,-4,73,48,78,82,48
39,4,-34,-21,36,-14,0,73,39,68,63,29
34,-9,-43,-12,39,-26,0,73,34,58,53,19
24,-19,-43,-2,34,-31,9,73,29,48,43,9
19,-34,-53,7,36,-43,9,73,24,43,34,4
14,-43,-58,14,36,-51,14,73,24,39,19,0
9,-58,-68,24,39,-63,24,68,14,29,19,-9
4,-73,-78,34,41,-75,29,63,14,19,14,-14
0,-78,-78,39,39,-78,34,63,9,14,9,-19
-4,-87,-82,46,39,-85,34,63,4,9,4,-29
-4,-82,-78,43,36,-80,34,63,0,0,-4,-39
-9,-87,-78,48,34,-82,34,63,0,-4,-9,-39
-14,-92,-78,53,31,-85,39,63,0,-4,-14,-48
-14,-92,-78,53,31,-85,39,63,-4,-4,-19,-53
-14,-97,-82,56,34,-90,34,63,-4,-9,-24,-58
-14,-97,-82,56,34,-90,34,63,-9,-14,-29,-63
-19,-102,-82,61,31,-92,34,63,-9,-19,-34,-63
-19,-107,-87,63,34,-97,34,63,-9,-24,-39,-63
-24,-117,-92,70,34,-104,39,63,-9,-24,-39,-63
-24,-122,-97,73,36,-109,39,68,-4,-24,-39,-68
-29,-126,-97,78,34,-112,39,68,-4,-24,-43,-73
-34,-126,-92,80,29,-109,43,73,-4,-24,-43,-73
-39,-126,-87,82,24,-107,48,82,-4,-19,-43,-68
-39,-131,-92,85,26,-112,58,87,-4,-14,-43,-63
-34,-131,-97,82,31,-114,58,87,-4,-14,-43,-68
-29,-131,-102,80,36,-117,58,92,0,-14,-48,-73
-29,-136,-107,82,39,-122,58,97,0,-14,-48,-73
-29,-136,-107,82,39,-122,53,97,4,-14,-43,-78
-34,-141,-107,87,36,-124,53,97,4,-14,-43,-78
-34,-141,-107,87,36,-124,53,92,9,-19,-43,-78
-39,-146,-107,92,34,-126,58,97,9,-19,-48,-87
-39,-146,-107,92,34,-126,58,97,9,-19,-53,-92
-39,-141,-102,90,31,-122,58,97,9,-19,-58,-97
-39,-136,-97,87,29,-117,58,97,9,-19,-63,-102
-34,-141,-107,87,36,-124,58,97,14,-19,-58,-102
-29,-141,-112,85,41,-126,53,97,14,-19,-58,-102
-29,-136,-107,82,39,-122,53,97,14,-14,-58,-92
-29,-136,-107,82,39,-122,48,97,14,-14,-53,-82
-29,-146,-117,87,43,-131,48,92,14,-14,-48,-82
-29,-151,-122,90,46,-136,48,92,9,-14,-43,-78
-34,-156,-122,95,43,-139,48,87,9,-14,-43,-82
-39,-156,-117,97,39,-136,48,87,9,-14,-43,-87
-43,-151,-107,97,31,-129,48,78,4,-9,-48,-92
-34,-141,-107,87,36,-124,53,73,9,-4,-48,-92
-24,-141,-117,82,46,-129,53,78,4,-4,-53,-87
-19,-141,-122,80,51,-131,58,87,4,-9,-58,-87
-14,-126,-112,70,48,-119,53,87,4,-4,-43,-82
-9,-117,-107,63,48,-112,48,87,9,0,-29,-78
-4,-107,-102,56,48,-104,48,92,14,4,-29,-73
0,-97,-97,48,48,-97,48,97,19,9,-29,-68
0,-92,-92,46,46,-92,48,97,19,14,-29,-68
9,-82,-92,36,51,-87,53,102,24,19,-24,-63
19,-78,-97,29,58,-87,58,107,34,24,-19,-58
39,-53,-92,7,65,-73,63,117,43,34,-14,-48
43,-48,-92,2,68,-70,63,131,48,34,-4,-48
43,-48,-92,2,68,-70,63,131,53,29,0,-53
53,-48,-102,-2,78,-75,58,146,63,48,19,-39
63,-24,-87,-19,75,-56,43,151,78,68,43,-4
87,24,-63,-56,75,-19,29,156,92,92,68,24
92,39,-53,-65,73,-7,4,136,97,102,78,39
102,48,-53,-75,78,-2,-9,126,92,102,78,39
102,53,-48,-78,75,2,-19,117,82,102,78,39
107,53,-53,-80,80,0,-19,97,73,97,78,34
102,48,-53,-75,78,-2,-19,87,63,92,78,29
97,39,-58,-68,78,-9,-29,63,34,68,63,29
87,9,-78,-48,82,-34,-34,43,9,48,43,9
78,-19,-97,-29,87,-58,-34,24,-4,29,24,-9
58,-34,-92,-12,75,-63,-24,19,-9,19,9,-24
29,-53,-82,12,56,-68,-14,19,-9,14,0,-24
0,-82,-82,41,41,-82,-9,19,-19,0,-14,-39
-19,-131,-112,75,46,-122,0,14,-39,-19,-39,-68
-24,-136,-112,80,43,-124,0,14,-39,-24,-48,-73
-24,-146,-122,85,48,-134,0,9,-43,-34,-48,-87
-29,-161,-131,95,51,-146,0,0,-58,-43,-58,-102
-29,-170,-141,100,56,-156,-4,0,-58,-48,-63,-107
-29,-170,-141,100,56,-156,-4,0,-63,-48,-63,-107
-34,-175,-141,104,53,-158,0,0,-63,-48,-63,-102
-34,-175,-141,104,53,-158,0,0,-63,-48,-68,-97
-34,-180,-146,107,56,-163,0,0,-63,-53,-73,-102
-39,-185,-146,112,53,-165,0,0,-58,-53,-73,-102
-39,-185,-146,112,53,-165,0,4,-58,-58,-78,-102
-39,-185,-146,112,53,-165,0,9,-58,-58,-78,-107
-39,-190,-151,114,56,-170,0,14,-58,-58,-78,-107
-39,-200,-161,119,61,-180,0,19,-63,-58,-78,-107
-43,-200,-156,122,56,-178,4,19,-63,-58,-78,-112
-43,-204,-161,124,58,-183,4,24,-58,-53,-78,-117
-43,-195,-151,119,53,-173,4,14,-63,-58,-78,-117
-53,-204,-151,129,48,-178,14,24,-68,-78,-97,-131
-63,-244,-180,153,58,-212,34,53,-78,-112,-141,-180
-73,-292,-219,183,73,-256,68,97,-78,-131,-190,-224
-87,-375,-287,231,100,-331,126,214,-87,-161,-229,-273
-87,-366,-278,226,95,-322,214,434,68,-48,-170,-258
-9,-239,-229,124,109,-234,273,771,483,317,92,-141
156,-39,-195,-58,175,-117,185,834,941,790,444,24
356,190,-165,-273,261,12,63,912,1522,1327,810,175
566,395,-170,-480,368,112,-73,1024,1981,1761,1112,307
722,492,-229,-607,475,131,-287,775,1971,1839,1244,400
751,692,-58,-722,405,317,-649,-161,1239,1317,1049,488
790,980,190,-885,300,585,-1141,-1693,-156,312,658,614
375,1176,800,-775,-212,988,-1332,-3201,-1507,-878,-97,605
-629,1424,2054,-397,-1342,1739,-1410,-4909,-2361,-1424,-390,839
-1029,1429,2459,-200,-1744,1944,-1493,-5460,-2693,-1605,-522,873
-961,951,1912,4,-1437,1432,-1429,-4821,-2698,-1717,-746,551
-805,317,1122,244,-963,719,-1058,-3494,-2274,-1571,-819,195
-561,-248,312,405,-436,31,-624,-2005,-1498,-1200,-795,-165
-366,-522,-156,444,-104,-339,-322,-1015,-912,-863,-717,-375
-287,-444,-156,366,-65,-300,-136,-580,-585,-585,-517,-336
-229,-361,-131,295,-48,-246,-34,-297,-385,-390,-346,-258
-180,-297,-117,239,-31,-207,9,-107,-229,-283,-258,-190
-131,-253,-122,192,-4,-187,48,19,-107,-190,-204,-161
-117,-209,-92,163,-12,-151,82,78,-63,-131,-161,-161
-107,-190,-82,148,-12,-136,92,117,-43,-97,-131,-141
-87,-185,-97,136,4,-141,92,165,-14,-97,-122,-122
-58,-185,-126,122,34,-156,92,209,19,-73,-117,-117
-39,-180,-141,109,51,-161,97,224,34,-53,-102,-122
-39,-185,-146,112,53,-165,102,234,34,-48,-92,-122
-39,-185,-146,112,53,-165,102,248,34,-48,-87,-122
-29,-185,-156,107,63,-170,102,268,43,-43,-87,-122
-24,-180,-156,102,65,-168,107,283,63,-34,-82,-117
-24,-175,-151,100,63,-163,107,287,68,-29,-73,-117
-24,-175,-151,100,63,-163,107,292,63,-34,-68,-112
-24,-170,-146,97,61,-158,112,297,63,-34,-68,-112
-24,-156,-131,90,53,-143,112,307,73,-24,-73,-107
-19,-146,-126,82,53,-136,117,317,82,-24,-73,-107
-19,-146,-126,82,53,-136,122,331,87,-14,-73,-102
-19,-141,-122,80,51,-131,122,341,97,-4,-73,-102
-9,-141,-131,75,61,-136,126,351,107,-4,-68,-102
-4,-141,-136,73,65,-139,131,361,117,4,-63,-97
-4,-131,-126,68,61,-129,131,366,122,4,-63,-102
0,-126,-126,63,63,-126,141,370,131,4,-63,-102
0,-122,-122,61,61,-122,141,380,136,4,-63,-102
0,-112,-112,56,56,-112,141,390,146,9,-58,-97
0,-107,-107,53,53,-107,146,400,151,4,-58,-87
0,-102,-102,51,51,-102,151,409,156,4,-58,-82
0,-92,-92,46,46,-92,151,414,156,9,-58,-78
4,-87,-92,41,48,-90,156,419,165,14,-53,-73
4,-78,-82,36,43,-80,161,429,170,14,-48,-73
4,-68,-73,31,39,-70,161,429,170,19,-48,-63
4,-58,-63,26,34,-61,165,429,170,19,-43,-58
4,-43,-48,19,26,-46,170,434,175,19,-39,-48
4,-43,-48,19,26,-46,170,434,175,29,-29,-39
9,-29,-39,9,24,-34,175,434,175,34,-29,-29
9,0,-9,-4,9,-4,170,429,175,34,-19,-24
9,24,14,-17,-2,19,165,419,175,39,-9,-14
9,48,39,-29,-14,43,165,409,170,43,0,0
9,68,58,-39,-24,63,165,400,170,48,9,9
14,92,78,-53,-31,85,165,380,170,53,24,34
14,117,102,-65,-43,109,161,370,165,58,39,43
19,141,122,-80,-51,131,156,346,161,63,53,63
24,161,136,-92,-56,148,146,326,151,68,68,87
24,190,165,-107,-70,178,131,297,141,68,78,107
34,209,175,-122,-70,192,112,273,136,68,87,126
39,239,200,-139,-80,219,107,244,131,78,102,141
39,258,219,-148,-90,239,87,219,122,82,112,161
48,287,239,-168,-95,263,73,185,107,73,117,175
53,307,253,-180,-100,280,58,156,92,68,117,185
63,317,253,-190,-95,285,43,136,87,78,126,200
73,326,253,-200,-90,290,29,112,78,78,141,209
78,326,248,-202,-85,287,9,92,63,78,146,214
82,322,239,-202,-78,280,0,82,63,78,156,219
87,312,224,-200,-68,268,-9,73,58,78,165,219
97,302,204,-200,-53,253,-19,68,53,82,175,209
112,283,170,-197,-29,226,-39,63,53,92,175,204
122,268,146,-195,-12,207,-48,68,58,97,175,200
126,248,122,-187,2,185,-48,73,58,102,175,190
126,219,92,-173,17,156,-48,73,63,107,170,175
126,204,78,-165,24,141,-48,73,58,102,161,156
122,175,53,-148,34,114,-48,73,58,97,151,136
117,151,34,-134,41,92,-43,73,53,92,136,122
107,122,14,-114,46,68,-39,73,53,82,126,97
97,97,0,-97,48,48,-34,73,48,78,107,82
92,73,-19,-82,56,26,-34,73,48,73,97,68
87,53,-34,-70,61,9,-29,82,48,73,87,53
78,34,-43,-56,61,-4,-24,87,48,63,78,39
68,14,-53,-41,61,-19,-14,92,48,58,58,24
58,-4,-63,-26,61,-34,-9,92,39,48,43,9
53,-19,-73,-17,63,-46,-9,87,34,39,34,0
43,-29,-73,-7,58,-51,0,82,29,29,24,-9
39,-43,-82,2,61,-63,0,82,24,24,14,-19
34,-53,-87,9,61,-70,4,82,24,19,0,-29
24,-63,-87,19,56,-75,9,82,14,9,-4,-39
14,-73,-87,29,51,-80,9,82,14,0,-14,-43
9,-78,-87,34,48,-82,14,82,9,-4,-19,-53
4,-87,-92,41,48,-90,14,82,4,-9,-24,-68
4,-87,-92,41,48,-90,14,82,0,-14,-34,-78
0,-97,-97,48,48,-97,14,82,0,-14,-39,-78
-4,-102,-97,53,46,-100,19,82,0,-19,-43,-78
-4,-102,-97,53,46,-100,19,82,-4,-24,-48,-73
-4,-107,-102,56,48,-104,19,82,-4,-29,-48,-78
-4,-107,-102,56,48,-104,24,82,-9,-34,-48,-82
-9,-112,-102,61,46,-107,29,82,-9,-34,-53,-82
-9,-117,-107,63,48,-112,34,82,-9,-34,-58,-82
-14,-126,-112,70,48,-119,39,82,-9,-34,-58,-82
-14,-131,-117,73,51,-124,39,87,-4,-34,-58,-87
-14,-136,-122,75,53,-129,34,87,-4,-34,-63,-97
-14,-136,-122,75,53,-129,34,92,-4,-34,-63,-102
-19,-136,-117,78,48,-126,34,97,-4,-34,-63,-102
-19,-141,-122,80,51,-131,39,97,-4,-34,-63,-102
-19,-141,-122,80,51,-131,39,97,-4,-34,-63,-102
-19,-141,-122,80,51,-131,39,102,0,-34,-68,-102
-19,-141,-122,80,51,-131,43,107,0,-29,-68,-102
-19,-136,-117,78,48,-126,43,107,4,-24,-63,-107
-24,-136,-112,80,43,-124,43,107,4,-19,-63,-107
-24,-131,-107,78,41,-119,43,102,9,-19,-63,-107
-24,-136,-112,80,43,-124,43,107,9,-19,-68,-112
-19,-136,-117,78,48,-126,39,107,9,-19,-73,-112
-14,-136,-122,75,53,-129,39,107,9,-19,-73,-112
-9,-136,-126,73,58,-131,39,107,9,-19,-73,-112
-9,-136,-126,73,58,-131,39,102,14,-19,-68,-112
-9,-131,-122,70,56,-126,34,97,14,-19,-68,-112
-9,-126,-117,68,53,-122,34,97,14,-14,-68,-112
-9,-126,-117,68,53,-122,29,97,14,-14,-63,-112
-9,-131,-122,70,56,-126,29,92,14,-14,-58,-112
-9,-131,-122,70,56,-126,29,92,9,-14,-53,-107
-9,-131,-122,70,56,-126,29,87,9,-14,-53,-107
-9,-122,-112,65,51,-117,29,87,9,-9,-53,-107
-4,-112,-107,58,51,-109,34,87,14,0,-48,-97
0,-107,-107,53,53,-107,39,87,19,9,-48,-87
9,-92,-102,41,56,-97,43,97,29,9,-39,-87
19,-78,-97,29,58,-87,48,107,39,9,-29,-87
19,-78,-97,29,58,-87,48,107,39,14,-29,-82
19,-73,-92,26,56,-82,48,107,39,19,-24,-78
24,-68,-92,21,58,-80,53,107,39,29,-24,-73
34,-58,-92,12,63,-75,53,107,43,34,-14,-68
48,-34,-82,-7,65,-58,53,117,53,43,-4,-58
53,-29,-82,-12,68,-56,53,131,58,48,4,-53
48,-29,-78,-9,63,-53,53,136,68,48,9,-53
53,-14,-68,-19,61,-41,48,151,82,68,24,-39
63,24,-39,-43,51,-7,34,151,97,87,43,-4
87,63,-24,-75,56,19,19,151,107,102,63,14
97,73,-24,-85,61,24,-4,126,107,97,68,19
112,82,-29,-97,70,26,-19,117,102,92,68,19
112,82,-29,-97,70,26,-29,112,92,92,68,19
112,82,-29,-97,70,26,-29,97,82,87,68,19
102,78,-24,-90,63,26,-29,87,73,87,73,29
97,63,-34,-80,65,14,-39,63,43,68,63,39
87,24,-63,-56,75,-19,-43,43,19,48,43,19
78,-9,-87,-34,82,-48,-43,29,4,29,24,0
63,-24,-87,-19,75,-56,-34,29,0,19,9,-19
39,-43,-82,2,61,-63,-24,29,0,14,0,-29
9,-68,-78,29,43,-73,-24,29,-9,0,-14,-48
-9,-112,-102,61,46,-107,-19,24,-29,-19,-39,-78
-14,-117,-102,65,43,-109,-19,24,-34,-24,-58,-87
-14,-126,-112,70,48,-119,-19,19,-43,-34,-68,-102
-19,-146,-126,82,53,-136,-14,9,-58,-48,-78,-112
-19,-161,-141,90,61,-151,-14,9,-58,-58,-82,-117
-19,-161,-141,90,61,-151,-14,9,-63,-58,-78,-117
-24,-165,-141,95,58,-153,-9,9,-63,-58,-73,-117
-24,-165,-141,95,58,-153,-9,4,-63,-58,-78,-117
-24,-170,-146,97,61,-158,-9,0,-68,-63,-82,-122
-29,-175,-146,102,58,-161,-9,0,-68,-63,-82,-122
-29,-175,-146,102,58,-161,-9,0,-68,-68,-87,-122
-29,-175,-146,102,58,-161,-9,0,-63,-68,-87,-126
-29,-175,-146,102,58,-161,-9,0,-58,-68,-87,-126
-29,-180,-151,104,61,-165,-9,4,-63,-68,-87,-126
-34,-180,-146,107,56,-163,-4,9,-63,-68,-87,-126
-34,-180,-146,107,56,-163,-9,14,-63,-63,-82,-122
-34,-175,-141,104,53,-158,-9,14,-68,-63,-78,-117
-43,-195,-151,119,53,-173,0,24,-68,-78,-97,-131
-53,-234,-180,143,63,-207,24,63,-68,-107,-141,-180
-68,-292,-224,180,78,-258,68,87,-92,-151,-209,-234
-73,-346,-273,209,100,-309,117,185,-82,-161,-229,-273
-92,-326,-234,209,70,-280,219,424,82,-48,-180,-258
-34,-214,-180,124,73,-197,268,702,468,287,48,-156
136,0,-136,-68,136,-68,161,751,1005,829,439,14
317,214,-102,-265,209,56,39,805,1542,1337,795,165
546,405,-141,-475,344,131,-73,1073,2117,1873,1156,307
702,502,-200,-602,451,151,-292,854,2117,1966,1288,400
800,727,-73,-763,436,326,-746,-161,1229,1351,1093,497
834,995,161,-915,336,578,-1244,-1566,-78,434,775,629
336,1195,858,-766,-261,1027,-1429,-3313,-1664,-976,-141,590
-512,1420,1932,-453,-1222,1676,-1517,-4933,-2630,-1644,-517,766
-873,1415,2288,-270,-1581,1851,-1644,-5490,-2952,-1771,-605,810
-888,1010,1898,-61,-1393,1454,-1581,-5031,-2932,-1844,-790,551
-741,307,1049,217,-895,678,-1107,-3484,-2342,-1634,-839,175
-541,-253,287,397,-414,17,-668,-2074,-1610,-1298,-819,-170
-346,-483,-136,414,-104,-309,-351,-1088,-985,-902,-717,-370
-263,-444,-180,353,-41,-312,-151,-580,-605,-600,-546,-366
-219,-351,-131,285,-43,-241,-63,-326,-409,-419,-385,-273
-175,-278,-102,226,-36,-190,-9,-126,-248,-297,-278,-195
-131,-229,-97,180,-17,-163,39,-4,-126,-195,-214,-165
-117,-190,-73,153,-21,-131,78,68,-68,-131,-165,-161
-107,-175,-68,141,-19,-122,82,107,-53,-107,-136,-141
-87,-165,-78,126,-4,-122,82,146,-29,-107,-122,-126
-58,-165,-107,112,24,-136,82,185,4,-82,-117,-126
-39,-156,-117,97,39,-136,87,204,24,-68,-107,-131
-39,-161,-122,100,41,-141,92,214,24,-68,-102,-131
-39,-165,-126,102,43,-146,92,229,24,-68,-97,-131
-29,-165,-136,97,53,-151,92,248,34,-63,-97,-126
-24,-161,-136,92,56,-148,97,263,53,-53,-97,-117
-24,-156,-131,90,53,-143,97,268,58,-43,-87,-117
-24,-156,-131,90,53,-143,97,278,58,-39,-78,-112
-24,-151,-126,87,51,-139,102,287,63,-34,-78,-112
-24,-141,-117,82,46,-129,102,297,73,-24,-78,-107
-19,-131,-112,75,46,-122,112,307,82,-19,-73,-112
-19,-126,-107,73,43,-117,122,317,87,-9,-73,-112
-19,-122,-102,70,41,-112,122,322,97,-4,-78,-112
-14,-117,-102,65,43,-109,126,331,107,-4,-78,-112
-14,-112,-97,63,41,-104,131,341,117,4,-73,-107
-14,-102,-87,58,36,-95,131,351,122,4,-73,-107
-9,-97,-87,53,39,-92,141,361,131,0,-73,-97
-9,-92,-82,51,36,-87,141,370,136,0,-73,-92
-9,-82,-73,46,31,-78,141,380,146,9,-68,-87
-9,-78,-68,43,29,-73,146,390,151,9,-63,-82
-9,-73,-63,41,26,-68,151,400,156,14,-53,-82
-9,-63,-53,36,21,-58,151,405,156,19,-48,-78
-4,-58,-53,31,24,-56,156,409,165,24,-43,-73
-4,-48,-43,26,19,-46,161,419,170,24,-39,-73
-4,-39,-34,21,14,-36,161,419,170,29,-39,-63
-4,-29,-24,17,9,-26,165,419,170,29,-34,-58
-4,-14,-9,9,2,-12,170,424,175,29,-29,-53
-4,-4,0,4,-2,-2,170,424,180,34,-19,-48
0,19,19,-9,-9,19,170,419,180,34,-19,-39
0,39,39,-19,-19,39,165,409,175,34,-9,-29
0,48,48,-24,-24,48,165,400,175,39,0,-14
0,68,68,-34,-34,68,165,390,170,43,9,0
0,87,87,-43,-43,87,165,380,165,43,14,9
4,112,107,-58,-51,109,161,361,161,43,19,34
4,136,131,-70,-63,134,151,351,156,43,24,39
9,165,156,-87,-73,161,146,326,151,43,34,53
14,190,175,-102,-80,183,136,307,141,48,48,78
14,219,204,-117,-95,212,126,278,131,53,63,97
24,234,209,-129,-92,222,112,253,126,58,78,117
29,258,229,-143,-100,244,107,224,122,68,97,136
29,278,248,-153,-109,263,87,200,112,73,117,165
39,302,263,-170,-112,283,73,170,102,73,141,185
43,322,278,-183,-117,300,58,146,92,78,156,195
53,336,283,-195,-114,309,43,126,87,87,156,209
63,346,283,-204,-109,314,29,102,78,87,161,219
73,346,273,-209,-100,309,9,82,63,87,165,219
82,346,263,-214,-90,305,0,73,63,97,180,224
87,341,253,-214,-82,297,-9,58,58,102,185,229
97,331,234,-214,-68,283,-19,58,58,107,195,224
107,312,204,-209,-48,258,-39,58,58,117,204,219
112,297,185,-204,-36,241,-48,58,63,117,204,209
117,278,161,-197,-21,219,-48,58,63,117,200,200
117,248,131,-183,-7,190,-48,53,68,117,185,185
117,234,117,-175,0,175,-48,53,63,112,170,165
112,204,92,-158,9,148,-48,53,58,107,161,146
107,180,73,-143,17,126,-48,53,53,102,146,131
97,151,53,-124,21,102,-48,58,58,97,136,107
87,126,39,-107,24,82,-43,63,58,97,117,92
82,102,19,-92,31,61,-43,63,58,92,107,78
78,82,4,-80,36,43,-39,68,53,87,97,63
68,63,-4,-65,36,29,-34,68,48,73,87,48
58,43,-14,-51,36,14,-24,73,48,68,68,34
48,24,-24,-36,36,0,-14,73,39,58,53,19
43,9,-34,-26,39,-12,-9,73,34,48,43,9
34,-4,-39,-14,36,-21,0,73,29,34,34,0
29,-24,-53,-2,41,-39,0,73,24,24,24,-9
24,-34,-58,4,41,-46,4,73,24,19,9,-19
19,-43,-63,12,41,-53,9,68,14,9,4,-29
14,-48,-63,17,39,-56,9,63,14,0,-4,-34
9,-48,-58,19,34,-53,14,63,9,-4,-9,-34
4,-58,-63,26,34,-61,14,63,4,-9,-14,-39
4,-58,-63,26,34,-61,14,63,0,-14,-19,-48
0,-73,-73,36,36,-73,14,63,0,-14,-19,-48
-4,-82,-78,43,36,-80,19,63,0,-14,-24,-53
-4,-82,-78,43,36,-80,19,63,-4,-14,-29,-53
-4,-87,-82,46,39,-85,19,63,-4,-19,-34,-58
-4,-87,-82,46,39,-85,24,63,-9,-24,-39,-68
-9,-92,-82,51,36,-87,24,63,-9,-29,-43,-73
-9,-97,-87,53,39,-92,24,68,-9,-34,-48,-78
-14,-102,-87,58,36,-95,29,73,-9,-34,-48,-82
-14,-102,-87,58,36,-95,29,78,-4,-34,-53,-87
-14,-107,-92,61,39,-100,29,78,-4,-34,-63,-92
-14,-107,-92,61,39,-100,34,82,-4,-34,-63,-87
-19,-107,-87,63,34,-97,34,87,-4,-34,-63,-82
-19,-117,-97,68,39,-107,39,87,0,-34,-63,-82
-19,-122,-102,70,41,-112,39,87,4,-34,-63,-87
-19,-122,-102,70,41,-112,39,92,9,-29,-68,-92
-19,-126,-107,73,43,-117,43,97,9,-24,-68,-92
-19,-122,-102,70,41,-112,43,92,9,-24,-58,-92
-24,-122,-97,73,36,-109,43,92,4,-19,-53,-87
-24,-122,-97,73,36,-109,39,92,9,-19,-53,-87
-24,-126,-102,75,39,-114,39,97,9,-19,-58,-92
-19,-122,-102,70,41,-112,39,92,9,-24,-63,-92
-19,-117,-97,68,39,-107,39,87,9,-29,-63,-92
-19,-117,-97,68,39,-107,39,87,9,-29,-63,-92
-19,-122,-102,70,41,-112,39,87,14,-29,-58,-92
-19,-122,-102,70,41,-112,34,87,14,-29,-58,-92
-19,-117,-97,68,39,-107,34,87,14,-24,-58,-92
-19,-117,-97,68,39,-107,29,87,14,-19,-53,-92
-19,-122,-102,70,41,-112,29,82,14,-14,-53,-92
-19,-122,-102,70,41,-112,29,82,9,-14,-53,-87
-19,-122,-102,70,41,-112,29,78,9,-14,-53,-87
-19,-126,-107,73,43,-117,24,73,0,-19,-53,-87
-19,-126,-107,73,43,-117,19,68,-9,-19,-53,-87
-19,-126,-107,73,43,-117,19,63,-4,-24,-53,-87
-19,-112,-92,65,36,-102,29,73,4,-19,-53,-78
-9,-102,-92,56,41,-97,29,73,9,-9,-48,-73
0,-97,-97,48,48,-97,29,78,19,0,-48,-68
4,-87,-92,41,48,-90,34,82,19,0,-39,-68
9,-78,-87,34,48,-82,39,87,19,0,-29,-68
14,-78,-92,31,53,-85,39,87,19,4,-29,-63
19,-73,-92,26,56,-82,39,87,19,9,-24,-58
24,-68,-92,21,58,-80,43,92,24,19,-24,-53
34,-58,-92,12,63,-75,43,97,34,24,-14,-48
48,-34,-82,-7,65,-58,48,107,43,34,-4,-39
53,-29,-82,-12,68,-56,53,122,48,39,4,-34
53,-34,-87,-9,70,-61,53,126,53,34,9,-39
63,-24,-87,-19,75,-56,48,141,63,48,24,-29
68,14,-53,-41,61,-19,34,141,78,68,43,4
87,53,-34,-70,61,9,19,141,87,82,63,24
92,58,-34,-75,63,12,-4,117,87,87,68,29
102,63,-39,-82,70,12,-19,107,82,92,68,29
107,63,-43,-85,75,9,-29,102,73,92,68,29
112,63,-48,-87,80,7,-29,87,63,87,68,29
102,68,-34,-85,68,17,-29,78,58,87,73,34
97,63,-34,-80,65,14,-39,53,34,68,63,39
92,34,-58,-63,75,-12,-43,29,9,48,43,19
87,9,-78,-48,82,-34,-43,9,-4,29,24,0
68,-4,-73,-31,70,-39,-34,9,-9,19,9,-9
39,-24,-63,-7,51,-43,-24,9,-9,14,0,-9
9,-58,-68,24,39,-63,-19,9,-19,0,-14,-29
-9,-112,-102,61,46,-107,-9,4,-39,-19,-39,-58
-19,-117,-97,68,39,-107,-9,4,-39,-24,-48,-63
-24,-126,-102,75,39,-114,-9,0,-43,-34,-48,-73
-29,-141,-112,85,41,-126,-9,-9,-63,-48,-63,-87
-29,-151,-122,90,46,-136,-14,-9,-68,-58,-73,-97
-29,-151,-122,90,46,-136,-14,-9,-73,-58,-73,-97
-34,-156,-122,95,43,-139,-9,-9,-73,-58,-73,-97
-34,-156,-122,95,43,-139,-9,-9,-73,-58,-73,-97
-34,-161,-126,97,46,-143,-9,-9,-78,-63,-73,-102
-39,-165,-126,102,43,-146,-9,-9,-78,-58,-68,-102
-39,-165,-126,102,43,-146,-9,-9,-78,-58,-68,-102
-39,-165,-126,102,43,-146,-9,-4,-73,-58,-68,-107
-39,-165,-126,102,43,-146,-9,0,-68,-58,-68,-107
-39,-170,-131,104,46,-151,-9,0,-73,-63,-68,-107
-43,-170,-126,107,41,-148,-4,0,-73,-68,-68,-107
-43,-175,-131,109,43,-153,-9,0,-68,-63,-68,-102
-43,-175,-131,109,43,-153,-9,-4,-68,-63,-68,-97
-53,-180,-126,117,36,-153,0,4,-68,-78,-87,-102
-63,-204,-141,134,39,-173,24,43,-68,-107,-131,-141
-78,-273,-195,175,58,-234,68,78,-82,-146,-200,-204
-82,-336,-253,209,85,-295,117,185,-63,-151,-219,-253
-102,-312,-209,207,53,-261,219,424,87,-43,-170,-239
-43,-195,-151,119,53,-173,268,702,458,287,58,-136
122,19,-102,-70,112,-41,161,727,990,829,448,43
297,234,-63,-265,180,85,39,756,1522,1337,805,204
536,424,-112,-480,324,156,-73,1024,2108,1883,1176,341
702,522,-180,-612,441,170,-292,805,2117,1986,1317,429
814,707,-107,-761,461,300,-756,-209,1200,1351,1107,507
863,936,73,-900,395,505,-1263,-1615,-136,414,775,619
380,1122,741,-751,-180,932,-1488,-3406,-1805,-1049,-156,595
-453,1332,1786,-439,-1119,1559,-1615,-5070,-2854,-1771,-546,785
-844,1390,2235,-273,-1539,1812,-1722,-5646,-3142,-1878,-619,854
-888,1049,1937,-80,-1412,1493,-1639,-5206,-3089,-1932,-790,619
-746,361,1107,192,-927,734,-1146,-3601,-2425,-1659,-814,253
-551,-185,366,368,-458,90,-688,-2132,-1620,-1259,-771,-82
-366,-453,-87,409,-139,-270,-356,-1117,-980,-883,-678,-312
-292,-453,-161,373,-65,-307,-141,-580,-585,-600,-517,-336
-248,-356,-107,302,-70,-231,-48,-326,-390,-409,-356,-248
-204,-278,-73,241,-65,-175,9,-126,-229,-278,-248,-175
-156,-229,-73,192,-41,-151,53,0,-107,-180,-185,-146
-136,-190,-53,163,-41,-122,87,78,-48,-122,-136,-141
-126,-180,-53,153,-36,-117,97,122,-34,-92,-112,-122
-107,-175,-68,141,-19,-122,102,165,-9,-87,-102,-107
-73,-170,-97,122,12,-134,102,200,19,-63,-102,-107
-48,-156,-107,102,29,-131,107,214,34,-48,-97,-112
-48,-156,-107,102,29,-131,112,224,34,-48,-92,-112
-48,-156,-107,102,29,-131,112,239,34,-48,-87,-112
-34,-161,-126,97,46,-143,112,258,48,-39,-82,-112
-24,-161,-136,92,56,-148,117,273,73,-24,-78,-107
-24,-156,-131,90,53,-143,117,278,78,-19,-73,-107
-24,-156,-131,90,53,-143,117,287,78,-19,-68,-102
-24,-151,-126,87,51,-139,122,297,82,-14,-68,-102
-24,-141,-117,82,46,-129,122,307,92,-4,-68,-97
-19,-131,-112,75,46,-122,126,322,102,-4,-63,-97
-19,-126,-107,73,43,-117,131,336,107,0,-63,-92
-19,-122,-102,70,41,-112,131,346,117,4,-63,-92
-14,-117,-102,65,43,-109,136,361,126,4,-58,-92
-19,-112,-92,65,36,-102,141,370,136,14,-53,-87
-24,-102,-78,63,26,-90,141,380,141,14,-53,-87
-19,-102,-82,61,31,-92,151,385,151,14,-53,-82
-19,-102,-82,61,31,-92,151,390,156,19,-53,-82
-19,-92,-73,56,26,-82,151,400,165,29,-48,-78
-19,-87,-68,53,24,-78,156,409,170,29,-43,-73
-19,-82,-63,51,21,-73,165,419,175,29,-39,-73
-19,-73,-53,46,17,-63,170,424,175,29,-39,-68
-14,-68,-53,41,19,-61,175,429,185,34,-39,-63
-14,-58,-43,36,14,-51,180,439,190,34,-39,-63
-14,-48,-34,31,9,-41,180,439,190,39,-39,-53
-14,-39,-24,26,4,-31,185,439,190,39,-34,-48
-14,-24,-9,19,-2,-17,190,448,190,39,-29,-39
-14,-14,0,14,-7,-7,190,453,190,43,-19,-29
-9,9,19,0,-14,14,195,453,195,43,-19,-24
-9,29,39,-9,-24,34,195,448,195,43,-9,-19
-9,39,48,-14,-29,43,195,439,195,48,0,-4
-9,58,68,-24,-39,63,195,429,190,53,9,9
-9,78,87,-34,-48,82,195,419,190,58,19,19
-4,102,107,-48,-56,104,190,400,190,63,29,43
-4,126,131,-61,-68,129,180,390,185,68,39,53
0,156,156,-78,-78,156,175,366,180,73,53,73
4,180,175,-92,-85,178,165,346,170,73,68,97
4,209,204,-107,-100,207,156,317,161,73,82,117
9,229,219,-119,-104,224,141,292,156,78,97,136
9,258,248,-134,-119,253,136,263,151,87,117,156
9,278,268,-143,-129,273,117,239,141,97,131,180
19,302,283,-161,-131,292,102,209,131,102,151,195
24,317,292,-170,-134,305,87,185,122,107,165,204
34,326,292,-180,-129,309,73,165,117,117,165,219
43,341,297,-192,-126,319,58,141,107,117,175,234
53,346,292,-200,-119,319,39,122,92,117,185,239
63,346,283,-204,-109,314,29,112,97,122,195,239
68,341,273,-204,-102,307,19,97,97,122,195,239
78,336,258,-207,-90,297,9,87,92,122,195,229
87,322,234,-204,-73,278,-9,78,87,126,195,219
97,307,209,-202,-56,258,-24,78,92,126,200,214
107,287,180,-197,-36,234,-29,78,92,126,200,209
107,258,151,-183,-21,204,-29,73,92,126,190,200
107,244,136,-175,-14,190,-29,73,82,122,180,185
102,214,112,-158,-4,163,-34,73,78,117,170,165
97,190,92,-143,2,141,-39,73,73,112,156,151
92,161,68,-126,12,114,-39,68,68,102,146,126
87,136,48,-112,19,92,-34,63,58,97,126,112
82,112,29,-97,26,70,-34,63,58,92,117,97
78,92,14,-85,31,53,-29,68,53,87,107,82
68,73,4,-70,31,39,-24,68,53,78,97,68
58,53,-4,-56,31,24,-14,73,58,78,78,53
48,29,-19,-39,34,4,-9,73,48,68,63,39
43,9,-34,-26,39,-12,-9,73,43,58,53,29
34,0,-34,-17,34,-17,0,73,34,48,43,19
29,-14,-43,-7,36,-29,0,73,24,43,34,9
24,-24,-48,0,36,-36,4,73,24,39,19,-4
19,-34,-53,7,36,-43,9,68,14,29,14,-19
14,-43,-58,14,36,-51,9,58,14,19,4,-24
9,-48,-58,19,34,-53,14,53,9,14,0,-24
4,-58,-63,26,34,-61,14,53,0,9,-4,-29
4,-58,-63,26,34,-61,14,53,-9,4,-9,-39
0,-68,-68,34,34,-68,14,53,-9,4,-9,-39
-4,-73,-68,39,31,-70,19,53,-9,4,-14,-43
-4,-73,-68,39,31,-70,19,53,-9,4,-19,-43
-4,-78,-73,41,34,-75,19,53,-4,0,-24,-48
-4,-82,-78,43,36,-80,24,53,-9,-4,-29,-53
-9,-92,-82,51,36,-87,24,53,-9,-9,-34,-53
-9,-97,-87,53,39,-92,24,53,-9,-14,-39,-53
-14,-102,-87,58,36,-95,29,53,-9,-14,-39,-53
-19,-102,-82,61,31,-92,29,58,-4,-14,-39,-58
-24,-107,-82,65,29,-95,29,58,-4,-14,-43,-63
-24,-107,-82,65,29,-95,34,63,-4,-14,-43,-63
-29,-107,-78,68,24,-92,34,68,-4,-14,-43,-63
-29,-112,-82,70,26,-97,39,68,-4,-19,-43,-63
-29,-112,-82,70,26,-97,39,68,-4,-24,-43,-68
-29,-112,-82,70,26,-97,39,73,0,-24,-48,-73
-29,-117,-87,73,29,-102,43,78,0,-24,-48,-73
-29,-117,-87,73,29,-102,43,78,4,-24,-43,-78
-34,-122,-87,78,26,-104,43,82,4,-19,-43,-78
-34,-122,-87,78,26,-104,43,82,9,-19,-43,-78
-34,-126,-92,80,29,-109,48,87,9,-19,-48,-82
-29,-126,-97,78,34,-112,48,87,9,-19,-53,-82
-29,-126,-97,78,34,-112,48,87,9,-19,-53,-82
-29,-126,-97,78,34,-112,53,87,9,-19,-53,-82
-29,-131,-102,80,36,-117,58,87,14,-19,-48,-82
-29,-131,-102,80,36,-117,53,87,9,-19,-53,-87
-29,-126,-97,78,34,-112,53,87,4,-14,-58,-92
-29,-126,-97,78,34,-112,48,87,4,-14,-53,-92
-29,-131,-102,80,36,-117,48,82,4,-14,-53,-92
-29,-136,-107,82,39,-122,43,82,0,-14,-53,-87
-29,-141,-112,85,41,-126,39,78,0,-14,-53,-87
-29,-141,-112,85,41,-126,39,78,-4,-19,-53,-87
-29,-136,-107,82,39,-122,39,78,-9,-19,-53,-87
-24,-141,-117,82,46,-129,34,68,-9,-24,-53,-92
-24,-136,-112,80,43,-124,34,68,-9,-24,-58,-87
-29,-126,-97,78,34,-112,39,68,-9,-19,-48,-87
-24,-122,-97,73,36,-109,39,68,-9,-4,-39,-78
-19,-117,-97,68,39,-107,39,68,-4,0,-34,-73
-19,-117,-97,68,39,-107,39,68,0,0,-29,-68
-9,-102,-92,56,41,-97,43,78,9,4,-24,-63
0,-87,-87,43,43,-87,48,87,19,9,-19,-58
0,-82,-82,41,41,-82,48,92,19,9,-19,-58
4,-73,-78,34,41,-75,48,97,19,14,-14,-53
9,-68,-78,29,43,-73,53,102,24,19,-14,-53
24,-58,-82,17,53,-70,53,107,34,24,-4,-48
39,-34,-73,-2,56,-53,53,117,43,34,0,-39
43,-29,-73,-7,58,-51,53,131,48,39,4,-34
43,-34,-78,-4,61,-56,53,131,53,39,9,-39
53,-24,-78,-14,65,-51,48,141,63,58,24,-29
63,14,-48,-39,56,-17,34,141,78,78,43,4
87,53,-34,-70,61,9,19,141,87,92,63,24
92,58,-34,-75,63,12,-4,117,87,92,68,29
102,63,-39,-82,70,12,-19,107,82,92,68,29
102,63,-39,-82,70,12,-29,97,73,92,68,29
102,63,-39,-82,70,12,-29,78,63,87,68,29
92,63,-29,-78,61,17,-29,68,58,82,68,34
87,53,-34,-70,61,9,-39,43,34,58,53,39
82,19,-63,-51,73,-21,-43,24,9,39,39,24
78,-9,-87,-34,82,-48,-43,9,-4,19,24,9
58,-24,-82,-17,70,-53,-34,9,-9,9,9,-4
29,-43,-73,7,51,-58,-24,9,-9,4,0,-9
0,-73,-73,36,36,-73,-19,14,-19,-9,-14,-29
-19,-122,-102,70,41,-112,-9,14,-39,-29,-39,-58
-29,-126,-97,78,34,-112,-9,14,-39,-29,-48,-68
-34,-136,-102,85,34,-119,-9,9,-43,-34,-48,-82
-39,-156,-117,97,39,-136,-4,0,-58,-43,-58,-92
-39,-170,-131,104,46,-151,-4,0,-58,-48,-63,-97
-39,-170,-131,104,46,-151,-4,0,-63,-53,-63,-97
-43,-175,-131,109,43,-153,0,0,-63,-58,-63,-97
-43,-170,-126,107,41,-148,0,0,-68,-58,-68,-97
-43,-170,-126,107,41,-148,0,0,-78,-63,-73,-102
-48,-175,-126,112,39,-151,0,0,-78,-58,-73,-102
-48,-175,-126,112,39,-151,0,0,-78,-58,-78,-102
-48,-175,-126,112,39,-151,0,0,-73,-58,-78,-107
-48,-175,-126,112,39,-151,0,0,-68,-58,-78,-107
-48,-180,-131,114,41,-156,0,-4,-73,-58,-78,-107
-53,-180,-126,117,36,-153,4,-9,-73,-58,-78,-107
-53,-180,-126,117,36,-153,4,-4,-68,-53,-78,-107
-53,-175,-122,114,34,-148,9,-4,-68,-53,-78,-107
-63,-195,-131,129,34,-163,19,14,-68,-68,-97,-122
-73,-234,-161,153,43,-197,43,63,-68,-97,-141,-170
-82,-287,-204,185,61,-246,87,126,-68,-126,-195,-219
-82,-336,-253,209,85,-295,136,263,-34,-122,-200,-253
-82,-292,-209,187,63,-251,229,502,156,19,-122,-219
-4,-156,-151,80,73,-153,268,780,566,385,136,-97
185,58,-126,-122,156,-34,146,785,1039,878,512,78
385,273,-112,-329,248,80,9,795,1512,1337,854,234
600,458,-141,-529,370,158,-131,893,1932,1756,1151,366
741,551,-190,-646,466,180,-380,502,1776,1732,1220,448
785,736,-48,-761,417,344,-814,-629,829,1063,946,527
766,966,200,-866,283,583,-1293,-2152,-536,92,551,639
234,1132,897,-683,-331,1015,-1454,-3723,-1937,-1146,-253,619
-649,1322,1971,-336,-1310,1647,-1517,-5167,-2718,-1644,-517,814
-956,1307,2264,-175,-1610,1786,-1571,-5465,-2898,-1703,-575,829
-917,893,1810,12,-1363,1351,-1434,-4748,-2737,-1708,-732,541
-746,253,1000,246,-873,627,-980,-3220,-2127,-1464,-751,195
-522,-244,278,383,-400,17,-561,-1830,-1376,-1093,-702,-122
-346,-463,-117,405,-114,-290,-268,-922,-814,-751,-610,-317
-283,-414,-131,348,-75,-273,-92,-492,-497,-502,-448,-307
-239,-331,-92,285,-73,-212,-9,-253,-326,-341,-307,-229
-195,-268,-73,231,-61,-170,39,-68,-190,-239,-219,-165
-151,-224,-73,187,-39,-148,78,39,-82,-151,-165,-141
-136,-190,-53,163,-41,-122,107,97,-39,-102,-126,-141
-126,-180,-53,153,-36,-117,112,136,-24,-78,-102,-122
-107,-175,-68,141,-19,-122,112,175,0,-78,-92,-107
-78,-175,-97,126,9,-136,112,209,29,-53,-92,-107
-58,-165,-107,112,24,-136,117,224,43,-39,-87,-112
-53,-165,-112,109,29,-139,122,234,43,-39,-82,-112
-48,-165,-117,107,34,-141,122,248,43,-39,-78,-112
-39,-161,-122,100,41,-141,122,268,53,-34,-78,-112
-34,-151,-117,92,41,-134,126,283,73,-24,-78,-107
-29,-146,-117,87,43,-131,126,287,78,-19,-73,-107
-24,-146,-122,85,48,-134,126,297,78,-19,-68,-102
-24,-146,-122,85,48,-134,131,307,82,-14,-68,-102
-24,-141,-117,82,46,-129,131,317,92,-4,-68,-97
-19,-136,-117,78,48,-126,136,326,102,-4,-58,-97
-19,-136,-117,78,48,-126,141,336,107,0,-53,-92
-24,-131,-107,78,41,-119,141,341,117,9,-53,-92
-24,-126,-102,75,39,-114,146,351,126,14,-48,-92
-24,-122,-97,73,36,-109,151,361,136,24,-43,-87
-24,-112,-87,68,31,-100,151,370,141,24,-43,-87
-19,-107,-87,63,34,-97,161,380,151,24,-43,-82
-19,-102,-82,61,31,-92,161,390,156,29,-43,-82
-19,-92,-73,56,26,-82,161,400,165,39,-39,-78
-19,-87,-68,53,24,-78,165,409,170,39,-34,-73
-19,-82,-63,51,21,-73,170,419,175,39,-29,-73
-19,-73,-53,46,17,-63,170,424,175,39,-29,-68
-14,-63,-48,39,17,-56,175,429,185,43,-29,-63
-14,-48,-34,31,9,-41,180,439,190,43,-29,-63
-14,-39,-24,26,4,-31,180,439,190,48,-29,-53
-14,-29,-14,21,0,-21,185,439,190,48,-24,-48
-14,-14,0,14,-7,-7,190,444,190,48,-19,-43
-14,-4,9,9,-12,2,190,444,190,53,-9,-39
-9,19,29,-4,-19,24,195,444,195,53,-9,-29
-9,39,48,-14,-29,43,195,439,195,53,0,-19
-9,48,58,-19,-34,53,200,434,195,58,9,0
-9,68,78,-29,-43,73,204,429,190,63,19,19
-9,87,97,-39,-53,92,204,419,190,68,29,29
-4,112,117,-53,-61,114,200,400,190,73,39,53
-4,136,141,-65,-73,139,190,390,185,82,48,63
0,165,165,-82,-82,165,185,366,180,92,63,82
4,190,185,-97,-90,187,175,346,175,97,78,107
4,219,214,-112,-104,217,165,317,170,102,92,126
9,239,229,-124,-109,234,151,292,165,107,107,141
9,268,258,-139,-124,263,146,263,161,117,126,156
9,292,283,-151,-136,287,126,239,151,122,141,180
19,322,302,-170,-141,312,112,209,141,122,161,195
24,336,312,-180,-143,324,97,180,131,122,175,204
34,346,312,-190,-139,329,82,156,126,126,175,219
43,361,317,-202,-136,339,68,131,117,126,180,234
53,366,312,-209,-129,339,48,112,102,126,185,239
63,361,297,-212,-117,329,34,102,102,126,195,239
68,351,283,-209,-107,317,19,87,97,122,195,239
78,341,263,-209,-92,302,9,78,92,122,195,234
87,322,234,-204,-73,278,-9,68,87,126,195,229
97,307,209,-202,-56,258,-19,68,87,126,200,219
107,287,180,-197,-36,234,-19,68,82,126,200,209
107,258,151,-183,-21,204,-19,63,82,126,190,195
107,244,136,-175,-14,190,-19,63,73,122,180,175
102,214,112,-158,-4,163,-19,63,68,117,170,156
97,190,92,-143,2,141,-19,63,63,112,156,141
92,161,68,-126,12,114,-19,63,63,102,146,117
87,136,48,-112,19,92,-14,63,58,97,126,102
82,112,29,-97,26,70,-14,63,58,97,117,87
78,92,14,-85,31,53,-9,68,53,97,107,73
68,68,0,-68,34,34,-4,63,48,82,97,58
58,43,-14,-51,36,14,4,63,48,78,78,43
48,24,-24,-36,36,0,9,63,39,73,63,29
43,9,-34,-26,39,-12,9,63,34,68,53,19
29,0,-29,-14,29,-14,19,63,29,58,48,9
19,-14,-34,-2,26,-24,19,63,24,53,43,0
14,-24,-39,4,26,-31,24,63,24,48,29,-9
9,-34,-43,12,26,-39,29,58,14,39,24,-19
4,-43,-48,19,26,-46,24,53,14,19,14,-24
0,-48,-48,24,24,-48,24,53,9,4,9,-24
-4,-58,-53,31,24,-56,24,53,4,0,0,-29
-4,-58,-53,31,24,-56,24,53,0,-4,-9,-39
-9,-68,-58,39,24,-63,24,53,0,-4,-9,-39
-14,-73,-58,43,21,-65,29,53,0,-4,-14,-43
-14,-73,-58,43,21,-65,29,53,0,0,-19,-43
-14,-78,-63,46,24,-70,29,53,4,0,-24,-48
-14,-78,-63,46,24,-70,34,53,0,-4,-29,-53
-19,-82,-63,51,21,-73,34,53,0,-9,-34,-53
-19,-87,-68,53,24,-78,34,53,-4,-14,-39,-53
-24,-92,-68,58,21,-80,39,53,-9,-14,-39,-53
-24,-92,-68,58,21,-80,39,58,-4,-14,-39,-58
-24,-97,-73,61,24,-85,39,58,-4,-14,-43,-63
-24,-102,-78,63,26,-90,43,63,-4,-14,-43,-68
-29,-107,-78,68,24,-92,43,68,-4,-14,-43,-73
-29,-112,-82,70,26,-97,48,68,-4,-14,-43,-73
-29,-112,-82,70,26,-97,48,68,-4,-14,-43,-78
-24,-112,-87,68,31,-100,48,73,0,-19,-48,-78
-19,-117,-97,68,39,-107,53,78,0,-24,-48,-73
-19,-117,-97,68,39,-107,53,78,4,-24,-43,-78
-24,-122,-97,73,36,-109,53,82,4,-19,-43,-78
-29,-122,-92,75,31,-107,53,82,14,-14,-43,-78
-34,-126,-92,80,29,-109,58,87,19,-9,-48,-82
-29,-126,-97,78,34,-112,58,87,19,-9,-53,-82
-29,-126,-97,78,34,-112,58,87,19,-9,-53,-82
-29,-126,-97,78,34,-112,58,92,19,-9,-53,-82
-29,-131,-102,80,36,-117,58,97,24,-9,-48,-82
-29,-131,-102,80,36,-117,53,97,24,-9,-48,-82
-29,-126,-97,78,34,-112,53,97,24,-4,-48,-82
-29,-126,-97,78,34,-112,48,97,24,-4,-43,-87
-29,-131,-102,80,36,-117,48,92,24,-4,-43,-92
-29,-131,-102,80,36,-117,48,92,19,-4,-43,-87
-29,-131,-102,80,36,-117,48,87,19,-4,-43,-87
-34,-136,-102,85,34,-119,48,82,14,-9,-43,-87
-39,-136,-97,87,29,-117,48,78,9,-9,-43,-87
-34,-141,-107,87,36,-124,43,68,0,-14,-48,-87
-34,-136,-102,85,34,-119,43,68,-9,-14,-58,-78
-39,-126,-87,82,24,-107,43,68,-4,-14,-58,-82
-39,-126,-87,82,24,-107,39,63,-4,-9,-63,-82
-39,-131,-92,85,26,-112,39,58,-4,-14,-53,-87
-29,-131,-102,80,36,-117,39,53,-4,-14,-48,-87
-29,-126,-97,78,34,-112,39,53,0,-9,-43,-82
-29,-126,-97,78,34,-112,39,58,0,-9,-43,-82
-19,-122,-102,70,41,-112,43,63,0,-4,-29,-68
-9,-117,-107,63,48,-112,48,68,0,0,-19,-58
-4,-107,-102,56,48,-104,53,73,9,4,-19,-58
0,-97,-97,48,48,-97,58,78,19,9,-19,-58
0,-92,-92,46,46,-92,58,82,19,14,-19,-58
4,-82,-87,39,46,-85,58,87,24,19,-14,-53
14,-78,-92,31,53,-85,63,97,34,24,-9,-48
29,-53,-82,12,56,-68,63,107,43,34,-4,-39
34,-48,-82,7,58,-65,63,122,48,39,4,-34
34,-48,-82,7,58,-65,63,122,53,39,9,-34
43,-48,-92,2,68,-70,68,131,53,48,14,-39
53,-24,-78,-14,65,-51,63,131,58,58,24,-24
82,34,-48,-58,65,-7,48,141,82,87,58,14
92,58,-34,-75,63,12,24,126,97,102,78,39
107,63,-43,-85,75,9,4,117,92,102,78,39
112,63,-48,-87,80,7,-9,107,82,102,78,39
112,63,-48,-87,80,7,-9,92,82,102,82,43
102,58,-43,-80,73,7,-9,87,82,102,87,48
102,48,-53,-75,78,-2,-19,63,53,78,73,53
97,19,-78,-58,87,-29,-24,43,29,58,53,39
92,-9,-102,-41,97,-56,-34,19,9,39,34,19
78,-24,-102,-26,90,-63,-34,9,0,29,19,4
48,-29,-78,-9,63,-53,-24,9,0,24,19,0
19,-43,-63,12,41,-53,-19,9,-9,9,14,-19
-14,-107,-92,61,39,-100,-4,4,-29,-9,-19,-48
-34,-126,-92,80,29,-109,0,4,-29,-14,-39,-53
-34,-136,-102,85,34,-119,0,0,-34,-24,-39,-68
-39,-151,-112,95,36,-131,0,-9,-48,-34,-48,-82
-39,-161,-122,100,41,-141,-4,-9,-48,-39,-53,-87
-39,-161,-122,100,41,-141,-4,-9,-53,-39,-53,-87
-43,-170,-126,107,41,-148,4,-9,-53,-39,-53,-87
-43,-175,-131,109,43,-153,9,-9,-53,-39,-58,-87
-43,-180,-136,112,46,-158,9,-4,-58,-43,-63,-97
-48,-185,-136,117,43,-161,9,0,-58,-43,-63,-102
-48,-185,-136,117,43,-161,9,0,-58,-48,-68,-102
-48,-185,-136,117,43,-161,9,0,-58,-48,-68,-107
-48,-185,-136,117,43,-161,9,0,-58,-48,-68,-107
-48,-190,-141,119,46,-165,9,0,-63,-48,-68,-107
-53,-190,-136,122,41,-163,14,0,-63,-48,-68,-102
-53,-195,-141,124,43,-168,14,4,-58,-43,-68,-97
-53,-180,-126,117,36,-153,9,-9,-63,-43,-58,-87
-63,-185,-122,124,29,-153,14,-4,-68,-58,-68,-92
-73,-224,-151,148,39,-187,39,19,-73,-87,-112,-141
-82,-273,-190,178,53,-231,78,58,-68,-102,-161,-185
-102,-370,-268,236,82,-319,126,156,-136,-195,-244,-258
-107,-375,-268,241,80,-322,204,356,-39,-146,-229,-268
-53,-268,-214,161,80,-241,297,746,331,170,-4,-165
87,-87,-175,0,131,-131,244,863,746,595,307,-14
292,161,-131,-226,212,14,131,936,1356,1171,712,161
507,385,-122,-446,314,131,4,1044,1844,1644,1054,317
707,439,-268,-573,488,85,-175,961,2049,1898,1254,390
780,595,-185,-688,483,204,-502,190,1532,1551,1127,458
951,854,-97,-902,524,378,-1063,-1332,102,536,756,570
668,1019,351,-844,158,685,-1322,-2830,-1283,-663,19,546
-473,1361,1834,-444,-1154,1598,-1410,-4797,-2274,-1302,-297,858
-1010,1459,2469,-224,-1739,1964,-1503,-5607,-2742,-1576,-453,971
-1000,1098,2098,-48,-1549,1598,-1503,-5153,-2806,-1712,-668,702
-902,580,1483,161,-1193,1032,-1195,-4011,-2440,-1590,-732,400
-639,-82,556,361,-597,236,-722,-2371,-1629,-1220,-732,-24
-424,-453,-29,439,-197,-241,-380,-1229,-1010,-883,-678,-297
-336,-409,-73,373,-131,-241,-165,-722,-649,-605,-507,-297
-268,-361,-92,314,-87,-226,-34,-366,-414,-409,-366,-258
-219,-297,-78,258,-70,-187,14,-156,-248,-283,-258,-185
-170,-253,-82,212,-43,-168,58,-9,-117,-170,-185,-151
-151,-209,-58,180,-46,-134,97,63,-68,-117,-141,-151
-136,-190,-53,163,-41,-122,112,117,-43,-87,-112,-131
-117,-180,-63,148,-26,-122,112,161,-19,-87,-102,-107
-87,-175,-87,131,0,-131,112,200,9,-63,-97,-97
-63,-165,-102,114,19,-134,112,214,24,-43,-87,-102
-58,-165,-107,112,24,-136,112,224,24,-39,-82,-102
-58,-165,-107,112,24,-136,112,239,24,-39,-78,-102
-48,-165,-117,107,34,-141,112,258,34,-34,-78,-102
-39,-161,-122,100,41,-141,122,278,58,-19,-78,-97
-34,-156,-122,95,43,-139,126,287,68,-9,-73,-97
-34,-156,-122,95,43,-139,126,297,73,-9,-63,-92
-34,-151,-117,92,41,-134,131,307,82,-4,-58,-92
-34,-146,-112,90,39,-129,131,317,92,4,-53,-87
-29,-146,-117,87,43,-131,136,326,102,4,-43,-87
-29,-146,-117,87,43,-131,136,331,102,9,-43,-82
-29,-141,-112,85,41,-126,131,331,107,14,-43,-82
-24,-136,-112,80,43,-124,136,341,117,14,-43,-87
-24,-131,-107,78,41,-119,141,351,126,24,-43,-87
-24,-122,-97,73,36,-109,141,361,131,24,-43,-87
-19,-117,-97,68,39,-107,151,370,141,24,-43,-82
-19,-112,-92,65,36,-102,156,380,146,29,-43,-82
-19,-102,-82,61,31,-92,161,390,156,39,-39,-78
-19,-97,-78,58,29,-87,165,400,161,39,-34,-73
-19,-92,-73,56,26,-82,170,409,165,43,-29,-73
-19,-82,-63,51,21,-73,170,414,165,48,-29,-68
-14,-78,-63,46,24,-70,175,419,175,53,-24,-63
-14,-68,-53,41,19,-61,175,429,180,53,-19,-63
-14,-58,-43,36,14,-51,170,429,180,58,-19,-53
-14,-48,-34,31,9,-41,175,429,180,58,-14,-53
-14,-34,-19,24,2,-26,180,434,185,58,-9,-48
-14,-24,-9,19,-2,-17,180,434,190,63,-4,-39
-9,0,9,4,-9,4,185,434,195,63,-9,-29
-9,19,29,-4,-19,24,185,434,195,58,0,-19
-9,34,43,-12,-26,39,185,429,195,58,9,-4
-9,53,63,-21,-36,58,185,419,190,63,19,9
-9,68,78,-29,-43,73,185,409,190,68,29,19
-4,92,97,-43,-51,95,185,395,190,73,39,43
-4,117,122,-56,-63,119,180,390,185,78,48,53
0,146,146,-73,-73,146,180,366,185,87,63,68
4,170,165,-87,-80,168,175,346,180,97,78,87
4,200,195,-102,-95,197,165,322,175,102,92,107
14,219,204,-117,-95,212,151,302,175,107,107,126
19,248,229,-134,-104,239,146,273,170,117,126,146
19,268,248,-143,-114,258,126,248,161,122,141,170
29,297,268,-163,-119,283,112,219,146,117,161,190
34,317,283,-175,-124,300,97,195,131,117,175,204
39,331,292,-185,-126,312,82,170,126,126,175,224
43,346,302,-195,-129,324,68,141,117,126,180,239
53,346,292,-200,-119,319,48,122,102,126,185,244
63,341,278,-202,-107,309,39,112,102,126,195,248
73,336,263,-204,-95,300,29,92,97,122,195,248
87,331,244,-209,-78,287,19,78,92,122,195,239
97,312,214,-204,-58,263,0,68,87,126,195,229
102,297,195,-200,-46,246,-9,68,87,126,195,219
107,278,170,-192,-31,224,-14,68,82,126,195,209
107,248,141,-178,-17,195,-19,63,82,126,190,195
107,234,126,-170,-9,180,-19,63,73,122,180,180
102,204,102,-153,0,153,-19,63,68,117,170,165
102,180,78,-141,12,129,-19,63,63,112,156,151
97,151,53,-124,21,102,-19,63,63,102,146,126
87,126,39,-107,24,82,-14,63,58,97,126,107
82,102,19,-92,31,61,-14,63,58,92,117,87
78,82,4,-80,36,43,-14,68,53,92,112,73
68,63,-4,-65,36,29,-14,68,48,82,107,58
58,43,-14,-51,36,14,-4,68,48,78,87,43
48,24,-24,-36,36,0,0,63,39,68,73,29
43,4,-39,-24,41,-17,0,63,34,63,68,19
34,-9,-43,-12,39,-26,9,63,29,58,63,9
29,-29,-58,0,43,-43,9,68,24,53,53,9
24,-43,-68,9,46,-56,14,73,24,48,39,9
19,-53,-73,17,46,-63,19,68,14,39,29,-9
14,-63,-78,24,46,-70,19,63,14,29,14,-24
9,-63,-73,26,41,-68,24,63,9,19,4,-24
4,-68,-73,31,39,-70,24,63,4,9,-4,-29
4,-68,-73,31,39,-70,24,63,0,4,-9,-39
0,-78,-78,39,39,-78,24,63,0,4,-9,-39
-4,-92,-87,48,41,-90,34,63,0,9,-9,-43
-4,-102,-97,53,46,-100,39,63,-4,14,-9,-43
-9,-107,-97,58,43,-102,39,63,-4,9,-14,-53
-14,-107,-92,61,39,-100,43,63,-9,4,-19,-63
-19,-107,-87,63,34,-97,39,63,-9,-4,-29,-68
-19,-107,-87,63,34,-97,34,63,-9,-14,-39,-73
-24,-112,-87,68,31,-100,39,63,-14,-14,-39,-73
-24,-112,-87,68,31,-100,39,68,-14,-14,-39,-78
-24,-122,-97,73,36,-109,39,68,-14,-14,-39,-73
-24,-126,-102,75,39,-114,43,73,-14,-14,-34,-63
-29,-126,-97,78,34,-112,43,78,-9,-14,-34,-63
-29,-131,-102,80,36,-117,48,78,-4,-14,-34,-63
-29,-131,-102,80,36,-117,48,78,-4,-14,-34,-73
-29,-131,-102,80,36,-117,48,82,0,-14,-39,-82
-29,-136,-107,82,39,-122,53,87,0,-14,-48,-82
-29,-136,-107,82,39,-122,53,87,4,-14,-53,-87
-34,-141,-107,87,36,-124,53,92,9,-9,-53,-87
-34,-141,-107,87,36,-124,53,92,19,-9,-53,-87
-34,-146,-112,90,39,-129,58,97,19,-9,-58,-92
-29,-146,-117,87,43,-131,58,97,19,-9,-63,-92
-29,-146,-117,87,43,-131,58,97,19,-9,-63,-97
-29,-146,-117,87,43,-131,58,97,19,-9,-63,-102
-29,-151,-122,90,46,-136,58,97,24,-9,-58,-102
-29,-151,-122,90,46,-136,53,97,24,-9,-58,-102
-29,-151,-122,90,46,-136,53,102,24,-4,-58,-92
-29,-156,-126,92,48,-141,48,107,24,-4,-53,-82
-29,-161,-131,95,51,-146,48,102,24,-9,-53,-92
-29,-161,-131,95,51,-146,48,102,19,-14,-53,-97
-29,-161,-131,95,51,-146,48,92,14,-14,-53,-97
-29,-156,-126,92,48,-141,48,87,9,-14,-53,-97
-34,-151,-117,92,41,-134,43,82,9,-9,-53,-92
-29,-151,-122,90,46,-136,39,78,14,-9,-48,-87
-29,-151,-122,90,46,-136,43,82,14,-9,-48,-78
-24,-156,-131,90,53,-143,48,82,14,-4,-34,-73
-14,-151,-136,82,61,-143,48,82,4,-4,-39,-82
-9,-146,-136,78,63,-141,48,87,0,-9,-48,-92
-4,-126,-122,65,58,-124,48,87,9,0,-39,-87
0,-107,-107,53,53,-107,48,87,19,9,-29,-87
4,-107,-112,51,58,-109,53,97,19,9,-29,-78
9,-107,-117,48,63,-112,58,107,19,9,-29,-68
9,-102,-112,46,61,-107,58,107,19,14,-29,-68
14,-92,-107,39,61,-100,58,112,24,19,-19,-63
24,-87,-112,31,68,-100,63,117,34,24,-9,-58
39,-63,-102,12,70,-82,63,126,43,34,4,-48
43,-58,-102,7,73,-80,63,141,48,43,14,-34
43,-58,-102,7,73,-80,63,141,53,48,19,-24
53,-43,-97,-4,75,-70,63,151,63,68,34,-19
63,-4,-68,-29,65,-36,53,151,78,87,53,4
92,34,-58,-63,75,-12,39,156,92,102,73,24
102,39,-63,-70,82,-12,14,136,97,102,78,29
112,48,-63,-80,87,-7,-4,126,97,107,78,29
112,53,-58,-82,85,-2,-19,117,92,112,78,29
112,53,-58,-82,85,-2,-19,97,82,107,78,29
102,48,-53,-75,78,-2,-19,87,73,102,78,29
97,34,-63,-65,80,-14,-29,63,43,73,63,29
87,0,-87,-43,87,-43,-34,43,19,48,43,9
78,-29,-107,-24,92,-68,-34,29,0,29,24,-9
58,-43,-102,-7,80,-73,-24,29,-9,19,9,-24
29,-63,-92,17,61,-78,-14,29,-9,14,0,-29
0,-92,-92,46,46,-92,-9,29,-19,0,-14,-48
-19,-141,-122,80,51,-131,0,24,-39,-19,-39,-73
-24,-146,-122,85,48,-134,0,24,-39,-24,-48,-73
-24,-161,-136,92,56,-148,0,19,-39,-34,-48,-82
-29,-180,-151,104,61,-165,0,9,-48,-43,-58,-92
-29,-190,-161,109,65,-175,-4,9,-48,-48,-63,-102
-29,-190,-161,109,65,-175,-4,9,-53,-48,-63,-107
-34,-195,-161,114,63,-178,0,9,-58,-43,-63,-107
-34,-195,-161,114,63,-178,0,9,-63,-39,-68,-107
-34,-200,-165,117,65,-183,0,9,-68,-43,-73,-112
-39,-204,-165,122,63,-185,0,9,-68,-43,-73,-112
-39,-204,-165,122,63,-185,0,9,-68,-53,-78,-117
-39,-204,-165,122,63,-185,0,9,-68,-58,-78,-126
-39,-204,-165,122,63,-185,0,9,-63,-58,-78,-126
-39,-209,-170,124,65,-190,0,9,-63,-58,-78,-126
-43,-209,-165,126,61,-187,4,9,-63,-58,-78,-122
-43,-214,-170,129,63,-192,4,14,-58,-53,-78,-117
-43,-214,-170,129,63,-192,4,9,-58,-53,-68,-112
-53,-234,-180,143,63,-207,14,24,-58,-68,-78,-122
-63,-273,-209,168,73,-241,39,48,-73,-107,-136,-170
-73,-322,-248,197,87,-285,78,87,-78,-131,-200,-214
-87,-395,-307,241,109,-351,126,190,-117,-185,-258,-287
-87,-375,-287,231,100,-331,204,395,9,-97,-219,-297
-14,-263,-248,139,117,-256,278,766,414,244,34,-175
146,-78,-224,-34,185,-151,204,863,863,692,375,-4
346,146,-200,-246,273,-26,92,946,1459,1254,761,151
556,346,-209,-451,383,68,-34,1063,1932,1712,1083,287
727,444,-283,-585,505,80,-234,888,2015,1864,1244,380
771,644,-126,-707,448,258,-580,24,1376,1415,1078,468
849,932,82,-890,383,507,-1088,-1498,9,434,707,585
473,1127,653,-800,-90,890,-1293,-2996,-1312,-732,-29,566
-585,1420,2005,-417,-1295,1712,-1366,-4787,-2196,-1293,-322,839
-1039,1468,2508,-214,-1773,1988,-1444,-5421,-2557,-1488,-453,912
-985,1010,1995,-12,-1490,1503,-1424,-4880,-2635,-1644,-692,600
-844,395,1239,224,-1041,817,-1098,-3650,-2283,-1542,-780,253
-585,-214,370,400,-478,78,-653,-2117,-1522,-1190,-771,-126
-375,-531,-156,453,-109,-344,-341,-1083,-951,-873,-707,-356
-297,-473,-175,385,-61,-324,-151,-624,-610,-595,-522,-336
-239,-409,-170,324,-34,-290,-43,-317,-395,-400,-366,-278
-185,-326,-141,256,-21,-234,4,-122,-244,-287,-268,-204
-131,-263,-131,197,0,-197,48,9,-126,-190,-204,-170
-117,-229,-112,173,-2,-170,82,78,-78,-136,-161,-170
-107,-219,-112,163,2,-165,92,126,-53,-107,-131,-151
-87,-214,-126,151,19,-170,92,170,-29,-107,-117,-131
-58,-214,-156,136,48,-185,92,209,0,-82,-107,-126
-39,-204,-165,122,63,-185,97,224,19,-63,-97,-131
-39,-204,-165,122,63,-185,102,234,24,-58,-92,-131
-39,-204,-165,122,63,-185,102,248,24,-53,-87,-136
-29,-204,-175,117,73,-190,102,268,34,-43,-87,-141
-24,-200,-175,112,75,-187,107,283,53,-34,-87,-136
-24,-195,-170,109,73,-183,107,287,58,-29,-82,-136
-19,-195,-175,107,78,-185,107,292,58,-34,-78,-131
-14,-190,-175,102,80,-183,112,297,63,-34,-78,-131
-14,-180,-165,97,75,-173,112,307,73,-24,-82,-126
-9,-175,-165,92,78,-170,117,317,82,-24,-82,-126
-9,-180,-170,95,80,-175,122,326,82,-24,-82,-122
-9,-180,-170,95,80,-175,122,331,87,-24,-82,-122
-4,-175,-170,90,82,-173,126,341,97,-24,-78,-122
-4,-170,-165,87,80,-168,131,351,107,-14,-73,-117
-4,-161,-156,82,75,-158,131,361,107,-9,-73,-117
0,-156,-156,78,78,-156,141,370,112,-4,-73,-112
0,-151,-151,75,75,-151,141,380,117,0,-73,-117
0,-141,-141,70,70,-141,141,390,126,9,-68,-117
0,-136,-136,68,68,-136,146,400,136,9,-63,-112
0,-131,-131,65,65,-131,151,409,146,14,-58,-112
0,-117,-117,58,58,-117,151,414,146,19,-58,-107
4,-107,-112,51,58,-109,156,419,156,24,-53,-102
4,-97,-102,46,53,-100,161,429,161,24,-48,-102
4,-87,-92,41,48,-90,161,429,161,29,-48,-92
4,-82,-87,39,46,-85,161,429,161,29,-43,-87
4,-73,-78,34,41,-75,161,434,165,29,-39,-78
4,-68,-73,31,39,-70,161,439,170,34,-29,-68
9,-48,-58,19,34,-53,165,444,175,34,-29,-58
9,-29,-39,9,24,-34,170,439,175,29,-24,-48
9,-14,-24,2,17,-19,175,429,175,29,-19,-34
9,9,0,-9,4,4,175,419,165,29,-9,-24
9,29,19,-19,-4,24,175,409,161,29,0,-19
14,53,39,-34,-12,46,170,390,161,34,9,4
14,78,63,-46,-24,70,161,380,156,39,19,14
19,102,82,-61,-31,92,161,356,156,43,34,34
24,122,97,-73,-36,109,156,336,151,48,48,58
24,151,126,-87,-51,139,146,307,141,53,53,73
34,170,136,-102,-51,153,131,283,136,58,58,87
39,204,165,-122,-63,185,122,253,126,68,78,107
39,229,190,-134,-75,209,97,229,112,73,92,131
48,253,204,-151,-78,229,82,200,102,73,117,151
53,268,214,-161,-80,241,68,175,92,78,136,165
63,278,214,-170,-75,246,53,156,87,82,136,180
73,287,214,-180,-70,251,39,131,78,78,141,190
82,292,209,-187,-63,251,19,112,63,78,141,190
92,292,200,-192,-53,246,9,102,63,78,146,190
97,283,185,-190,-43,234,0,87,53,73,146,190
107,273,165,-190,-29,219,-9,78,43,73,146,180
117,253,136,-185,-9,195,-29,68,39,78,156,175
122,239,117,-180,2,178,-39,68,39,78,165,170
126,219,92,-173,17,156,-43,73,39,78,161,161
126,180,53,-153,36,117,-48,73,39,73,146,136
126,180,53,-153,36,117,-48,73,39,73,146,136
