I, II, III, aVR, aVL, aVF, V1, V2, V3, V4, V5, V6
-48,-48,0,48,-24,-24,9,-87,-39,-39,-48,-9
-48,-48,0,48,-24,-24,9,-87,-39,-39,-48,-9
-48,-48,0,48,-24,-24,9,-87,-39,-39,-48,-9
-48,-48,0,48,-24,-24,9,-87,-39,-39,-48,-9
-58,-48,9,53,-34,-19,9,-97,-48,-48,-58,-19
-58,-48,9,53,-34,-19,9,-97,-48,-48,-58,-19
-58,-48,9,53,-34,-19,9,-97,-48,-48,-58,-19
-58,-48,9,53,-34,-19,9,-97,-48,-48,-58,-19
-53,-39,14,46,-34,-12,0,-107,-48,-48,-58,-19
-48,-39,9,43,-29,-14,0,-107,-48,-48,-58,-19
-43,-39,4,41,-24,-17,0,-107,-48,-48,-58,-19
-39,-39,0,39,-19,-19,0,-107,-48,-48,-58,-19
-48,-43,4,46,-26,-19,9,-107,-58,-58,-58,-19
-48,-48,0,48,-24,-24,9,-107,-58,-58,-58,-19
-48,-53,-4,51,-21,-29,9,-107,-58,-58,-58,-19
-48,-58,-9,53,-19,-34,9,-107,-58,-58,-58,-19
-53,-43,9,48,-31,-17,0,-112,-68,-68,-63,-24
-58,-39,19,48,-39,-9,0,-117,-68,-68,-68,-29
-63,-34,29,48,-46,-2,0,-122,-68,-68,-73,-34
-68,-29,39,48,-53,4,0,-126,-68,-68,-78,-39
-58,-53,4,56,-31,-24,4,-122,-63,-58,-73,-24
-58,-68,-9,63,-24,-39,9,-117,-58,-58,-68,-19
-58,-82,-24,70,-17,-53,14,-112,-53,-58,-63,-14
-58,-97,-39,78,-9,-68,19,-107,-48,-58,-58,-9
-58,-68,-9,63,-24,-39,9,-117,-58,-68,-68,-19
-58,-48,9,53,-34,-19,0,-126,-68,-78,-78,-29
-58,-29,29,43,-43,0,-9,-136,-78,-87,-87,-39
-58,-9,48,34,-53,19,-19,-146,-87,-97,-97,-48
-58,-34,24,46,-41,-4,-9,-131,-73,-82,-82,-34
-58,-58,0,58,-29,-29,0,-126,-68,-78,-78,-29
-58,-82,-24,70,-17,-53,9,-122,-63,-73,-73,-24
-58,-107,-48,82,-4,-78,19,-117,-58,-68,-68,-19
-58,-73,-14,65,-21,-43,9,-126,-68,-78,-78,-29
-58,-48,9,53,-34,-19,0,-136,-78,-87,-87,-39
-58,-24,34,41,-46,4,-9,-146,-87,-97,-97,-48
-58,0,58,29,-58,29,-19,-156,-97,-107,-107,-58
-58,-34,24,46,-41,-4,0,-146,-87,-87,-87,-48
-58,-68,-9,63,-24,-39,9,-136,-78,-78,-78,-39
-58,-102,-43,80,-7,-73,19,-126,-68,-68,-68,-29
-58,-136,-78,97,9,-107,29,-117,-58,-58,-58,-19
-53,-97,-43,75,-4,-70,14,-131,-73,-82,-73,-39
-48,-58,-9,53,-19,-34,0,-146,-87,-97,-87,-48
-43,-19,24,31,-34,2,-14,-161,-102,-112,-102,-58
-39,19,58,9,-48,39,-29,-175,-117,-126,-117,-68
-48,-29,19,39,-34,-4,-14,-161,-97,-112,-102,-53
-48,-68,-19,58,-14,-43,0,-146,-87,-97,-87,-39
-48,-107,-58,78,4,-82,14,-131,-78,-82,-73,-24
-48,-146,-97,97,24,-122,29,-117,-68,-68,-58,-9
-48,-107,-58,78,4,-82,4,-131,-82,-92,-82,-34
-48,-68,-19,58,-14,-43,-9,-146,-97,-107,-97,-48
-48,-29,19,39,-34,-4,-24,-161,-112,-122,-112,-63
-48,9,58,19,-53,34,-39,-175,-126,-136,-126,-78
-48,-29,19,39,-34,-4,-24,-156,-112,-122,-112,-63
-48,-68,-19,58,-14,-43,-9,-146,-97,-107,-97,-48
-48,-107,-58,78,4,-82,4,-136,-82,-92,-82,-34
-48,-146,-97,97,24,-122,19,-126,-68,-78,-68,-19
-39,-102,-63,70,12,-82,-4,-141,-82,-102,-82,-34
-39,-58,-19,48,-9,-39,-19,-156,-97,-117,-97,-48
-39,-14,24,26,-31,4,-34,-170,-112,-131,-112,-63
-39,29,68,4,-53,48,-48,-185,-126,-146,-126,-78
-48,-14,34,31,-41,9,-24,-165,-107,-131,-107,-63
-48,-58,-9,53,-19,-34,-9,-156,-97,-117,-97,-48
-48,-102,-53,75,2,-78,4,-146,-87,-102,-87,-34
-48,-146,-97,97,24,-122,19,-136,-78,-87,-78,-19
-48,-107,-58,78,4,-82,4,-151,-92,-102,-97,-34
-48,-68,-19,58,-14,-43,-9,-165,-107,-117,-107,-48
-48,-29,19,39,-34,-4,-24,-180,-122,-131,-117,-63
-48,9,58,19,-53,34,-39,-195,-136,-146,-126,-78
-58,-39,19,48,-39,-9,-14,-170,-112,-131,-107,-63
-58,-78,-19,68,-19,-48,0,-156,-97,-117,-97,-48
-58,-117,-58,87,0,-87,14,-141,-82,-102,-87,-34
-58,-156,-97,107,19,-126,29,-126,-68,-87,-78,-19
-48,-107,-58,78,4,-82,4,-151,-92,-102,-92,-34
-48,-68,-19,58,-14,-43,-9,-165,-107,-117,-107,-48
-48,-29,19,39,-34,-4,-24,-180,-122,-131,-122,-63
-48,9,58,19,-53,34,-39,-195,-136,-146,-136,-78
-58,-34,24,46,-41,-4,-24,-175,-122,-126,-117,-63
-58,-68,-9,63,-24,-39,-9,-165,-107,-117,-107,-48
-58,-102,-43,80,-7,-73,4,-156,-92,-107,-97,-34
-58,-136,-78,97,9,-107,19,-146,-78,-97,-87,-19
-48,-102,-53,75,2,-78,4,-156,-97,-117,-102,-39
-48,-68,-19,58,-14,-43,-9,-165,-107,-126,-107,-48
-48,-34,14,41,-31,-9,-24,-175,-117,-136,-112,-58
-48,0,48,24,-48,24,-39,-185,-126,-146,-117,-68
-48,-39,9,43,-29,-14,-19,-170,-117,-126,-102,-58
-48,-68,-19,58,-14,-43,-9,-165,-107,-117,-97,-48
-48,-97,-48,73,0,-73,0,-161,-97,-107,-92,-39
-48,-126,-78,87,14,-102,9,-156,-87,-97,-87,-29
-48,-102,-53,75,2,-78,0,-170,-102,-107,-102,-43
-48,-78,-29,63,-9,-53,-9,-175,-107,-117,-107,-48
-48,-53,-4,51,-21,-29,-19,-180,-112,-126,-112,-53
-48,-29,19,39,-34,-4,-29,-185,-117,-136,-117,-58
-48,-48,0,48,-24,-24,-14,-170,-112,-131,-112,-53
-48,-68,-19,58,-14,-43,-9,-165,-107,-126,-107,-48
-48,-87,-39,68,-4,-63,-4,-161,-102,-122,-102,-43
-48,-107,-58,78,4,-82,0,-156,-97,-117,-97,-39
-39,-92,-53,65,7,-73,-14,-161,-102,-126,-102,-43
-39,-78,-39,58,0,-58,-19,-165,-107,-126,-107,-48
-39,-63,-24,51,-7,-43,-24,-170,-112,-126,-112,-53
-39,-48,-9,43,-14,-29,-29,-175,-117,-126,-117,-58
-48,-58,-9,53,-19,-34,-24,-165,-107,-117,-107,-48
-48,-68,-19,58,-14,-43,-19,-165,-107,-117,-107,-48
-48,-78,-29,63,-9,-53,-14,-165,-107,-117,-107,-48
-48,-87,-39,68,-4,-63,-9,-165,-107,-117,-107,-48
-48,-73,-24,61,-12,-48,-14,-170,-117,-122,-117,-58
-48,-68,-19,58,-14,-43,-19,-175,-117,-126,-117,-58
-48,-63,-14,56,-17,-39,-24,-180,-117,-131,-117,-58
-48,-58,-9,53,-19,-34,-29,-185,-117,-136,-117,-58
-48,-48,0,48,-24,-24,-19,-175,-112,-131,-112,-53
-48,-48,0,48,-24,-24,-19,-175,-107,-126,-107,-48
-48,-48,0,48,-24,-24,-19,-175,-102,-122,-102,-43
-48,-48,0,48,-24,-24,-19,-175,-97,-117,-97,-39
-43,-39,4,41,-24,-17,-14,-165,-82,-102,-92,-29
-39,-39,0,39,-19,-19,-9,-156,-78,-97,-87,-29
-34,-39,-4,36,-14,-21,-4,-146,-73,-92,-82,-29
-29,-39,-9,34,-9,-24,0,-136,-68,-87,-78,-29
-19,-24,-4,21,-7,-14,-9,-146,-58,-78,-68,-19
-19,-9,9,14,-14,0,-9,-146,-58,-78,-68,-19
-19,4,24,7,-21,14,-9,-146,-58,-78,-68,-19
-19,19,39,0,-29,29,-9,-146,-58,-78,-68,-19
-9,4,14,2,-12,9,-4,-131,-53,-73,-63,-4
-9,-9,0,9,-4,-4,0,-126,-48,-68,-58,0
-9,-24,-14,17,2,-19,4,-122,-43,-63,-53,4
-9,-29,-19,19,4,-24,0,-117,-39,-58,-48,4
-9,4,14,2,-12,9,-4,-136,-53,-63,-63,-9
-9,24,34,-7,-21,29,-4,-136,-48,-68,-68,-14
-4,53,58,-24,-31,56,-9,-136,-53,-68,-63,-14
-4,43,48,-19,-26,46,-14,-122,-53,-63,-68,-9
-9,24,34,-7,-21,29,0,-107,-34,-48,-34,9
-14,4,19,4,-17,12,4,-102,-14,-34,-29,29
-4,-4,0,4,-2,-2,-9,-97,-14,-24,-24,34
0,-9,-9,4,4,-9,-9,-97,-9,-19,-19,39
9,53,43,-31,-17,48,-53,-126,-14,-29,-24,24
14,92,78,-53,-31,85,-68,-141,-29,-43,-29,19
19,117,97,-68,-39,107,-78,-151,-39,-48,-34,14
24,97,73,-61,-24,85,-87,-156,-53,-53,-39,9
24,63,39,-43,-7,51,-73,-141,-43,-53,-39,19
29,19,-9,-24,19,4,-73,-151,-43,-48,-29,29
34,4,-29,-19,31,-12,-78,-156,-48,-58,-39,29
34,-19,-53,-7,43,-36,-78,-161,-48,-53,-29,34
43,34,-9,-39,26,12,-107,-175,-78,-73,-43,19
43,63,19,-53,12,41,-126,-195,-107,-102,-68,4
43,78,34,-61,4,56,-141,-204,-117,-112,-78,-9
48,82,34,-65,7,58,-151,-214,-131,-122,-92,-19
48,39,-9,-43,29,14,-112,-204,-126,-117,-78,-9
43,-9,-53,-17,48,-31,-102,-200,-107,-112,-82,-9
39,-29,-68,-4,53,-48,-97,-190,-117,-107,-78,0
34,-39,-73,2,53,-56,-87,-175,-102,-92,-63,14
39,9,-29,-24,34,-9,-107,-190,-117,-107,-82,0
34,39,4,-36,14,21,-107,-204,-126,-122,-92,-9
29,68,39,-48,-4,53,-112,-214,-136,-136,-102,-19
24,107,82,-65,-29,95,-112,-224,-136,-146,-107,-29
14,24,9,-19,2,17,-82,-195,-117,-131,-92,-9
4,-14,-19,4,12,-17,-53,-185,-102,-102,-68,0
-4,-87,-82,46,39,-85,-34,-165,-92,-102,-68,4
-19,-107,-87,63,34,-97,-19,-165,-97,-102,-73,-4
-34,-63,-29,48,-2,-46,-39,-175,-126,-126,-82,-19
-34,-39,-4,36,-14,-21,-48,-200,-141,-141,-102,-43
-39,-4,34,21,-36,14,-58,-219,-151,-151,-117,-58
-39,39,78,0,-58,58,-68,-214,-156,-161,-126,-68
-48,-29,19,39,-34,-4,-48,-200,-136,-146,-117,-53
-48,-73,-24,61,-12,-48,-29,-190,-126,-131,-107,-43
-48,-136,-87,92,19,-112,4,-175,-117,-117,-97,-34
-48,-161,-112,104,31,-136,4,-165,-112,-107,-97,-34
-39,-122,-82,80,21,-102,-9,-185,-131,-136,-117,-58
-34,-78,-43,56,4,-61,-29,-204,-141,-156,-131,-78
-34,-19,14,26,-24,-2,-43,-214,-146,-165,-151,-87
-39,19,58,9,-48,39,-58,-224,-151,-170,-141,-87
-39,-34,4,36,-21,-14,-39,-204,-136,-136,-112,-63
-43,-92,-48,68,2,-70,-24,-190,-117,-131,-107,-53
-48,-146,-97,97,24,-122,-4,-175,-112,-126,-102,-43
-48,-175,-126,112,39,-151,9,-165,-112,-122,-102,-43
-53,-131,-78,92,12,-104,-4,-185,-122,-131,-112,-63
-48,-78,-29,63,-9,-53,-19,-200,-131,-146,-122,-73
-48,-43,4,46,-26,-19,-34,-214,-141,-156,-131,-82
-58,-9,48,34,-53,19,-48,-224,-151,-170,-141,-92
-58,-34,24,46,-41,-4,-34,-200,-136,-161,-136,-87
-53,-87,-34,70,-9,-61,-14,-185,-126,-151,-117,-73
-53,-122,-68,87,7,-95,0,-175,-117,-136,-102,-53
-53,-161,-107,107,26,-134,19,-165,-102,-122,-87,-34
-53,-156,-102,104,24,-129,0,-180,-112,-136,-102,-43
-53,-92,-39,73,-7,-65,-9,-185,-122,-156,-122,-63
-58,-48,9,53,-34,-19,-19,-190,-136,-161,-136,-73
-58,0,58,29,-58,29,-34,-195,-146,-156,-131,-82
-58,-58,0,58,-29,-29,-24,-185,-126,-151,-126,-73
-58,-87,-29,73,-14,-58,-9,-180,-122,-146,-117,-68
-58,-112,-53,85,-2,-82,0,-175,-117,-141,-112,-63
-58,-151,-92,104,17,-122,24,-151,-102,-131,-107,-43
-48,-112,-63,80,7,-87,14,-175,-117,-136,-112,-68
-48,-92,-43,70,-2,-68,-4,-185,-126,-141,-107,-73
-48,-58,-9,53,-19,-34,-14,-195,-136,-146,-122,-78
-53,-29,24,41,-39,-2,-29,-200,-141,-151,-126,-82
-53,-58,-4,56,-24,-31,-14,-185,-122,-151,-117,-73
-53,-82,-29,68,-12,-56,-9,-180,-117,-146,-112,-68
-53,-117,-63,85,4,-90,-4,-170,-112,-136,-102,-58
-53,-122,-68,87,7,-95,4,-165,-107,-131,-97,-53
-63,-107,-43,85,-9,-75,-9,-170,-122,-141,-107,-58
-68,-92,-24,80,-21,-58,-4,-170,-126,-151,-126,-68
-73,-78,-4,75,-34,-41,-9,-175,-136,-161,-131,-87
-82,-68,14,75,-48,-26,-4,-180,-141,-161,-146,-112
-73,-9,63,41,-68,26,-19,-200,-165,-190,-175,-141
-87,-92,-4,90,-41,-48,29,-180,-126,-161,-151,-112
-97,-185,-87,141,-4,-136,63,-151,-87,-122,-122,-92
-112,-224,-112,168,0,-168,92,-151,-58,-102,-112,-82
-131,-204,-73,168,-29,-139,82,-156,-58,-102,-112,-97
-131,-136,-4,134,-63,-70,63,-190,-87,-126,-126,-117
-141,-58,82,100,-112,12,19,-234,-126,-161,-165,-141
-141,9,151,65,-146,80,-14,-292,-170,-204,-195,-165
-126,14,141,56,-134,78,-24,-317,-195,-219,-195,-161
-102,-43,58,73,-80,7,-24,-312,-195,-200,-165,-107
-73,-126,-53,100,-9,-90,-19,-283,-180,-180,-117,-43
-39,-200,-161,119,61,-180,-14,-273,-180,-170,-102,-4
-9,-200,-190,104,90,-195,-29,-297,-200,-170,-78,24
29,-107,-136,39,82,-122,-97,-326,-204,-161,-48,63
97,58,-39,-78,68,9,-195,-375,-224,-151,-14,126
204,200,-4,-202,104,97,-312,-444,-253,-141,53,219
322,283,-39,-302,180,122,-434,-492,-278,-117,146,351
453,302,-151,-378,302,75,-522,-507,-297,-87,263,512
585,268,-317,-427,451,-24,-600,-517,-326,-58,361,668
722,224,-497,-473,610,-136,-702,-546,-390,-87,434,800
858,253,-605,-556,732,-175,-805,-575,-458,-102,502,936
971,409,-561,-690,766,-75,-922,-610,-473,-73,590,1078
1044,585,-458,-814,751,63,-1010,-688,-502,-58,629,1156
1093,683,-409,-888,751,136,-1058,-771,-575,-136,561,1137
1141,683,-458,-912,800,112,-1098,-839,-668,-229,488,1088
1132,566,-566,-849,849,0,-1083,-888,-722,-302,375,976
1054,307,-746,-680,900,-219,-995,-917,-785,-429,136,697
922,-29,-951,-446,936,-490,-854,-956,-858,-590,-195,317
790,-248,-1039,-270,915,-644,-766,-1024,-932,-732,-429,48
663,-283,-946,-190,805,-614,-732,-1161,-985,-814,-561,-97
527,-165,-692,-180,610,-429,-707,-1298,-1005,-868,-663,-209
366,39,-326,-202,346,-143,-624,-1342,-936,-839,-697,-268
244,239,-4,-241,124,117,-527,-1278,-805,-732,-639,-248
165,317,151,-241,7,234,-429,-1185,-692,-649,-566,-209
107,234,126,-170,-9,180,-317,-1078,-619,-590,-531,-195
63,63,0,-63,31,31,-190,-932,-531,-546,-497,-190
19,-78,-97,29,58,-87,-68,-790,-453,-497,-463,-190
-43,-126,-82,85,19,-104,9,-712,-419,-492,-478,-219
-97,-126,-29,112,-34,-78,58,-663,-409,-512,-507,-273
-141,-68,73,104,-107,2,107,-610,-400,-522,-527,-331
-170,4,175,82,-173,90,141,-570,-385,-527,-536,-370
-180,19,200,80,-190,109,146,-531,-366,-497,-527,-366
-175,-39,136,107,-156,48,165,-453,-312,-439,-468,-331
-170,-117,53,143,-112,-31,195,-361,-248,-356,-390,-283
-170,-185,-14,178,-78,-100,224,-278,-190,-287,-312,-229
-165,-214,-48,190,-58,-131,224,-224,-151,-234,-258,-195
-161,-175,-14,168,-73,-95,204,-170,-117,-204,-234,-180
-151,-92,58,122,-104,-17,180,-131,-97,-180,-209,-190
-141,4,146,68,-143,75,151,-117,-78,-161,-200,-200
-126,53,180,36,-153,117,136,-92,-53,-146,-190,-195
-126,34,161,46,-143,97,126,-53,-24,-112,-156,-161
-117,-43,73,80,-95,14,146,-14,14,-63,-102,-112
-107,-146,-39,126,-34,-92,170,34,58,-24,-58,-68
-97,-151,-53,124,-21,-102,161,43,73,-9,-53,-63
-92,-170,-78,131,-7,-124,156,63,73,-9,-34,-43
-87,-151,-63,119,-12,-107,151,63,68,-14,-43,-53
-82,-136,-53,109,-14,-95,131,53,58,-14,-48,-63
-82,-112,-29,97,-26,-70,117,39,53,-19,-53,-73
-78,-73,4,75,-41,-34,107,34,48,-24,-53,-73
-78,-29,48,53,-63,9,97,53,43,-14,-43,-78
-78,-48,29,63,-53,-9,87,53,58,-14,-43,-82
-68,-82,-14,75,-26,-48,97,63,73,-4,-34,-68
-58,-117,-58,87,0,-87,117,82,92,14,-9,-58
-58,-126,-68,92,4,-97,117,92,92,24,0,-48
-58,-151,-92,104,17,-122,126,102,102,34,9,-34
-48,-112,-63,80,7,-87,97,87,87,19,-4,-48
-48,-58,-9,53,-19,-34,82,68,68,4,-19,-63
-48,-43,4,46,-26,-19,73,73,53,-4,-34,-78
-48,-19,29,34,-39,4,73,73,53,-14,-34,-87
-48,-68,-19,58,-14,-43,92,82,78,14,-9,-73
-58,-102,-43,80,-7,-73,102,102,87,39,0,-53
-58,-131,-73,95,7,-102,112,112,97,39,9,-39
-53,-161,-107,107,26,-134,122,122,107,48,19,-29
-48,-102,-53,75,2,-78,97,102,97,29,4,-43
-48,-68,-19,58,-14,-43,82,92,82,19,-9,-58
-48,-34,14,41,-31,-9,73,92,68,19,-9,-63
-48,29,78,9,-63,53,58,97,63,24,-19,-73
-58,-43,14,51,-36,-14,78,117,92,43,-4,-58
-58,-82,-24,70,-17,-53,92,136,102,58,9,-43
-53,-136,-82,95,14,-109,112,156,117,68,34,-29
-53,-156,-102,104,24,-129,136,156,126,73,39,-14
-58,-102,-43,80,-7,-73,107,136,107,53,19,-29
-58,-58,0,58,-29,-29,87,131,97,48,9,-53
-58,-4,53,31,-56,24,73,122,92,48,4,-58
-53,24,78,14,-65,51,63,126,87,43,4,-63
-53,-34,19,43,-36,-7,82,146,107,63,24,-48
-58,-73,-14,65,-21,-43,97,161,122,73,34,-29
-58,-117,-58,87,0,-87,122,185,141,92,63,-14
-53,-136,-82,95,14,-109,126,195,151,107,73,0
-53,-87,-34,70,-9,-61,112,175,136,92,53,-14
-53,-39,14,46,-34,-12,97,165,126,87,43,-29
-53,4,58,24,-56,31,82,156,112,73,34,-43
-48,19,68,14,-58,43,68,156,107,58,29,-58
-48,-19,29,34,-39,4,87,175,117,78,48,-39
-48,-48,0,48,-24,-24,102,190,141,102,68,-24
-48,-112,-63,80,7,-87,112,204,156,126,87,4
-48,-122,-73,85,12,-97,122,229,165,136,102,19
-58,-78,-19,68,-19,-48,102,209,156,117,87,-4
-58,-24,34,41,-46,4,92,204,151,107,78,-14
-53,4,58,24,-56,31,82,200,141,102,63,-24
-53,29,82,12,-68,56,73,190,131,102,53,-34
-48,-4,43,26,-46,19,92,219,156,107,68,-14
-48,-48,0,48,-24,-24,102,234,170,131,92,4
-48,-102,-53,75,2,-78,117,253,185,161,107,14
-48,-112,-63,80,7,-87,126,273,195,170,126,24
-43,-73,-29,58,-7,-51,117,268,185,151,107,14
-39,-29,9,34,-24,-9,107,258,175,151,102,4
-39,-4,34,21,-36,14,97,258,170,141,92,-14
-43,53,97,-4,-70,75,87,253,161,131,82,-24
-34,0,34,17,-34,17,102,273,170,165,97,0
-34,-34,0,34,-17,-17,112,278,195,165,112,9
-34,-58,-24,46,-4,-41,122,302,209,185,126,14
-34,-107,-73,70,19,-90,141,317,224,190,141,24
-43,-48,-4,46,-19,-26,112,312,209,180,131,19
-39,-24,14,31,-26,-4,107,312,204,180,131,14
-39,9,48,14,-43,29,102,322,204,180,131,9
-34,58,92,-12,-63,75,97,317,200,185,131,4
-29,-4,24,17,-26,9,102,346,229,214,161,24
-29,-14,14,21,-21,0,117,351,244,219,161,29
-29,-39,-9,34,-9,-24,122,366,253,229,170,34
-29,-92,-63,61,17,-78,131,390,278,253,190,53
-29,-34,-4,31,-12,-19,126,390,268,248,185,48
-29,-14,14,21,-21,0,122,395,273,244,180,43
-29,34,63,-2,-46,48,117,400,273,239,175,39
-24,82,107,-29,-65,95,102,400,268,234,170,39
-19,24,43,-2,-31,34,117,434,287,268,195,43
-19,14,34,2,-26,24,126,439,307,283,204,58
-19,-9,9,14,-14,0,131,444,317,292,219,63
-19,-29,-9,24,-4,-19,146,463,336,307,239,78
-9,-19,-9,14,0,-14,146,478,331,312,229,68
-9,0,9,4,-9,4,141,483,346,312,224,68
-9,39,48,-14,-29,43,136,488,356,317,224,68
-4,73,78,-34,-41,75,126,507,361,317,229,73
-4,53,58,-24,-31,56,126,507,356,322,234,73
-4,39,43,-17,-24,41,136,522,366,341,244,87
-4,34,39,-14,-21,36,141,522,380,356,253,87
0,39,39,-19,-19,39,141,536,395,361,258,87
9,-9,-19,0,14,-14,161,561,414,380,287,97
4,48,43,-26,-19,46,146,566,419,380,287,97
4,58,53,-31,-24,56,146,566,424,385,287,107
4,87,82,-46,-39,85,141,595,424,385,292,107
-4,117,122,-56,-63,119,122,605,424,375,292,97
-4,73,78,-34,-41,75,146,600,439,405,302,112
0,82,82,-41,-41,82,151,595,448,409,307,112
0,68,68,-34,-34,68,151,595,463,414,307,107
-4,48,53,-21,-29,51,161,614,473,434,322,122
-4,48,53,-21,-29,51,175,634,492,439,331,126
-9,68,78,-29,-43,73,165,639,497,444,336,131
-9,73,82,-31,-46,78,170,649,502,448,336,131
-9,97,107,-43,-58,102,161,658,497,434,331,122
-9,112,122,-51,-65,117,156,658,507,453,336,126
-9,131,141,-61,-75,136,156,653,507,458,336,122
-19,131,151,-56,-85,141,151,634,522,458,336,112
-9,117,126,-53,-68,122,165,663,531,473,351,117
-9,82,92,-36,-51,87,170,678,541,478,356,126
-9,122,131,-56,-70,126,175,673,541,473,361,136
-9,87,97,-39,-53,92,180,678,556,488,370,146
-9,136,146,-63,-78,141,165,683,531,483,356,126
-9,161,170,-75,-90,165,146,678,527,468,346,122
-9,156,165,-73,-87,161,151,658,527,463,341,122
-9,170,180,-80,-95,175,146,644,527,473,341,126
-9,136,146,-63,-78,141,156,663,546,488,356,141
-9,102,112,-46,-61,107,165,663,556,507,375,146
-9,112,122,-51,-65,117,170,658,556,492,366,151
-9,102,112,-46,-61,107,175,658,556,483,366,146
-9,141,151,-65,-80,146,146,629,527,448,341,126
-9,200,209,-95,-109,204,126,614,512,439,331,117
-9,200,209,-95,-109,204,117,595,502,434,326,112
-9,234,244,-112,-126,239,107,546,483,409,312,102
-9,185,195,-87,-102,190,107,546,483,414,331,117
-9,151,161,-70,-85,156,122,527,492,429,341,126
-9,122,131,-56,-70,126,126,531,478,444,346,141
-9,107,117,-48,-63,112,136,522,473,429,336,156
-14,165,180,-75,-97,173,122,488,439,409,317,131
-14,219,234,-102,-124,226,92,453,409,375,297,102
-14,229,244,-107,-129,236,68,409,395,341,268,87
-14,268,283,-126,-148,275,53,370,370,322,248,82
-19,214,234,-97,-126,224,53,370,356,317,244,102
-19,180,200,-80,-109,190,68,346,351,312,248,102
-19,151,170,-65,-95,161,82,322,346,307,253,102
-29,122,151,-46,-90,136,92,307,331,297,253,122
-14,180,195,-82,-104,187,53,273,292,268,224,92
-9,224,234,-107,-122,229,24,239,253,234,200,73
-4,268,273,-131,-139,270,0,195,224,190,165,63
0,273,273,-136,-136,273,-14,161,200,170,151,53
0,204,204,-102,-102,204,-9,156,195,161,141,82
4,170,165,-87,-80,168,0,141,185,156,146,78
4,107,102,-56,-48,104,9,126,185,165,161,78
4,102,97,-53,-46,100,9,117,156,156,151,82
0,146,146,-73,-73,146,-9,78,117,112,117,58
0,209,209,-104,-104,209,-29,58,82,92,92,39
-4,244,248,-119,-126,246,-53,14,63,48,63,14
-4,258,263,-126,-134,261,-63,-4,48,24,43,0
-4,200,204,-97,-104,202,-53,0,53,43,53,29
0,156,156,-78,-78,156,-43,-14,29,29,58,29
0,107,107,-53,-53,107,-29,-14,39,39,48,39
0,78,78,-39,-39,78,-19,-24,34,34,43,39
9,112,102,-61,-46,107,-39,-53,4,-4,14,4
9,170,161,-90,-75,165,-63,-68,-24,-29,-4,-9
9,209,200,-109,-95,204,-87,-97,-39,-53,-29,-29
4,224,219,-114,-107,222,-102,-112,-48,-68,-43,-48
-4,180,185,-87,-95,183,-87,-107,-43,-53,-29,-24
-4,117,122,-56,-63,119,-78,-102,-43,-48,-29,-19
0,102,102,-51,-51,102,-63,-102,-48,-48,-29,-14
0,78,78,-39,-39,78,-39,-102,-48,-48,-24,-9
-9,117,126,-53,-68,122,-73,-117,-68,-68,-43,-24
-9,146,156,-68,-82,151,-82,-126,-87,-82,-63,-43
-9,170,180,-80,-95,175,-97,-141,-107,-102,-78,-58
-9,214,224,-102,-117,219,-102,-146,-117,-117,-92,-68
0,161,161,-80,-80,161,-87,-136,-97,-102,-87,-63
0,112,112,-56,-56,112,-78,-131,-78,-92,-73,-53
4,92,87,-48,-41,90,-68,-131,-92,-87,-68,-48
4,68,63,-36,-29,65,-63,-131,-92,-82,-63,-48
0,97,97,-48,-48,97,-82,-151,-112,-102,-82,-58
0,122,122,-61,-61,122,-92,-156,-117,-112,-87,-73
0,156,156,-78,-78,156,-97,-170,-122,-136,-102,-82
0,209,209,-104,-104,209,-102,-175,-126,-146,-107,-87
-9,161,170,-75,-90,165,-87,-161,-117,-136,-92,-68
-9,122,131,-56,-70,126,-78,-151,-102,-122,-82,-58
-9,97,107,-43,-58,102,-73,-146,-102,-117,-82,-53
-9,73,82,-31,-46,78,-63,-136,-107,-107,-82,-34
-9,107,117,-48,-63,112,-68,-141,-112,-122,-92,-53
-9,122,131,-56,-70,126,-73,-151,-117,-131,-102,-68
-9,146,156,-68,-82,151,-82,-161,-131,-141,-117,-87
-9,165,175,-78,-92,170,-92,-165,-136,-161,-131,-97
-4,151,156,-73,-80,153,-87,-156,-131,-146,-117,-92
-4,141,146,-68,-75,143,-78,-156,-112,-136,-102,-82
-4,112,117,-53,-61,114,-68,-151,-92,-112,-97,-58
-9,107,117,-48,-63,112,-63,-151,-107,-117,-82,-63
-19,117,136,-48,-78,126,-68,-146,-97,-117,-92,-68
-14,117,131,-51,-73,124,-68,-146,-97,-117,-97,-73
-14,131,146,-58,-80,139,-73,-151,-112,-117,-102,-73
-19,146,165,-63,-92,156,-78,-156,-112,-126,-107,-82
-24,146,170,-61,-97,158,-78,-156,-112,-136,-112,-82
-29,126,156,-48,-92,141,-73,-156,-107,-131,-112,-82
-29,112,141,-41,-85,126,-68,-151,-97,-131,-102,-78
-29,107,136,-39,-82,122,-68,-151,-97,-131,-102,-78
-29,97,126,-34,-78,112,-43,-136,-97,-126,-97,-82
-29,112,141,-41,-85,126,-63,-146,-102,-126,-97,-82
-29,131,161,-51,-95,146,-73,-151,-107,-117,-97,-82
-29,146,175,-58,-102,161,-73,-161,-112,-131,-107,-87
-19,175,195,-78,-107,185,-82,-170,-122,-122,-107,-92
-19,161,180,-70,-100,170,-82,-165,-117,-122,-107,-92
-19,146,165,-63,-92,156,-73,-165,-107,-122,-107,-92
-24,136,161,-56,-92,148,-73,-161,-107,-122,-102,-92
-34,117,151,-41,-92,134,-58,-141,-102,-107,-92,-82
-34,102,136,-34,-85,119,-53,-136,-97,-102,-92,-82
-34,97,131,-31,-82,114,-48,-136,-92,-107,-97,-82
-39,107,146,-34,-92,126,-48,-136,-97,-102,-97,-92
-39,141,180,-51,-109,161,-63,-146,-112,-122,-112,-97
-39,156,195,-58,-117,175,-68,-151,-112,-126,-117,-102
-39,151,190,-56,-114,170,-68,-156,-112,-126,-117,-107
-43,126,170,-41,-107,148,-63,-161,-102,-126,-117,-107
-34,117,151,-41,-92,134,-48,-146,-87,-117,-92,-92
-34,92,126,-29,-80,109,-43,-136,-82,-107,-87,-82
-34,68,102,-17,-68,85,-39,-131,-82,-97,-92,-82
-34,68,102,-17,-68,85,-43,-131,-82,-92,-87,-82
-43,107,151,-31,-97,129,-58,-141,-97,-122,-112,-92
-43,156,200,-56,-122,178,-68,-161,-107,-126,-126,-102
-43,146,190,-51,-117,168,-73,-170,-112,-131,-117,-112
-48,136,185,-43,-117,161,-68,-175,-122,-126,-122,-117
-48,102,151,-26,-100,126,-48,-156,-112,-117,-102,-97
-48,68,117,-9,-82,92,-34,-146,-102,-107,-92,-87
-48,58,107,-4,-78,82,-24,-136,-97,-102,-92,-82
-39,58,97,-9,-68,78,-19,-131,-92,-97,-82,-73
-53,107,161,-26,-107,134,-43,-156,-117,-117,-97,-92
-53,156,209,-51,-131,183,-63,-165,-122,-126,-107,-107
-53,156,209,-51,-131,183,-63,-175,-126,-131,-117,-117
-58,165,224,-53,-141,195,-68,-185,-117,-131,-122,-126
-58,97,156,-19,-107,126,-48,-165,-107,-122,-112,-107
-58,68,126,-4,-92,97,-34,-156,-97,-112,-102,-87
-58,48,107,4,-82,78,-24,-146,-92,-102,-102,-87
-53,19,73,17,-63,46,-24,-141,-92,-97,-92,-82
-53,87,141,-17,-97,114,-43,-161,-117,-122,-117,-102
-53,122,175,-34,-114,148,-58,-175,-136,-141,-126,-117
-53,146,200,-46,-126,173,-68,-185,-136,-151,-136,-136
-53,151,204,-48,-129,178,-68,-195,-146,-161,-146,-136
-53,73,126,-9,-90,100,-53,-175,-131,-141,-122,-107
-53,53,107,0,-80,80,-39,-165,-117,-126,-107,-92
-43,24,68,9,-56,46,-19,-146,-102,-112,-92,-82
-43,4,48,19,-46,26,-4,-136,-92,-102,-87,-68
-53,53,107,0,-80,80,-29,-156,-117,-117,-107,-92
-53,117,170,-31,-112,143,-48,-185,-136,-146,-131,-112
-53,165,219,-56,-136,192,-63,-204,-146,-161,-141,-131
-53,165,219,-56,-136,192,-73,-219,-151,-175,-151,-146
-63,97,161,-17,-112,129,-48,-200,-131,-151,-131,-112
-63,63,126,0,-95,95,-39,-180,-122,-136,-122,-102
-63,19,82,21,-73,51,-29,-165,-102,-122,-112,-92
-63,-4,58,34,-61,26,-24,-156,-107,-107,-107,-92
-63,34,97,14,-80,65,-48,-175,-126,-131,-131,-112
-63,97,161,-17,-112,129,-58,-190,-146,-146,-146,-131
-63,141,204,-39,-134,173,-82,-204,-156,-165,-156,-141
-63,126,190,-31,-126,158,-82,-214,-161,-175,-161,-151
-53,78,131,-12,-92,104,-68,-204,-136,-161,-146,-126
-53,39,92,7,-73,65,-48,-190,-126,-146,-136,-117
-53,-9,43,31,-48,17,-39,-175,-117,-136,-126,-102
-53,-19,34,36,-43,7,-29,-165,-112,-126,-122,-92
-63,19,82,21,-73,51,-48,-190,-126,-141,-141,-117
-63,82,146,-9,-104,114,-63,-204,-141,-156,-151,-126
-63,136,200,-36,-131,168,-73,-209,-156,-180,-165,-136
-63,146,209,-41,-136,178,-82,-219,-165,-190,-170,-156
-53,107,161,-26,-107,134,-73,-204,-156,-175,-141,-146
-48,48,97,0,-73,73,-58,-195,-146,-156,-131,-122
-48,24,73,12,-61,48,-43,-185,-131,-146,-122,-112
-53,0,53,26,-53,26,-34,-180,-122,-136,-117,-102
-63,29,92,17,-78,61,-43,-190,-131,-156,-146,-122
-63,78,141,-7,-102,109,-63,-200,-141,-165,-156,-141
-63,126,190,-31,-126,158,-73,-219,-156,-180,-165,-151
-58,165,224,-53,-141,195,-82,-234,-165,-185,-175,-170
-58,97,156,-19,-107,126,-73,-219,-151,-180,-161,-161
-58,53,112,2,-85,82,-58,-209,-146,-170,-146,-141
-58,39,97,9,-78,68,-48,-200,-136,-156,-141,-122
-63,4,68,29,-65,36,-39,-190,-131,-151,-126,-112
-63,43,107,9,-85,75,-48,-204,-141,-161,-136,-126
-63,78,141,-7,-102,109,-63,-214,-156,-175,-151,-136
-58,136,195,-39,-126,165,-78,-229,-175,-190,-165,-151
-58,195,253,-68,-156,224,-92,-234,-185,-200,-180,-165
-58,131,190,-36,-124,161,-87,-219,-165,-195,-175,-151
-58,97,156,-19,-107,126,-68,-219,-161,-185,-156,-146
-58,78,136,-9,-97,107,-63,-219,-156,-180,-151,-136
-53,24,78,14,-65,51,-43,-214,-156,-170,-146,-122
-63,73,136,-4,-100,104,-58,-229,-165,-180,-156,-131
-63,102,165,-19,-114,134,-73,-234,-170,-185,-165,-131
-63,131,195,-34,-129,163,-82,-234,-175,-190,-170,-151
-63,156,219,-46,-141,187,-87,-239,-185,-195,-175,-165
-63,141,204,-39,-134,173,-97,-239,-185,-200,-175,-165
-58,126,185,-34,-122,156,-87,-239,-175,-200,-170,-161
-53,112,165,-29,-109,139,-87,-239,-175,-190,-165,-141
-53,102,156,-24,-104,129,-87,-229,-170,-185,-156,-151
-48,107,156,-29,-102,131,-87,-239,-161,-195,-161,-156
-48,122,170,-36,-109,146,-87,-239,-165,-195,-165,-151
-58,146,204,-43,-131,175,-87,-244,-170,-200,-170,-146
-48,170,219,-61,-134,195,-97,-248,-185,-214,-180,-165
-58,180,239,-61,-148,209,-102,-263,-190,-224,-185,-175
-58,161,219,-51,-139,190,-102,-263,-185,-224,-185,-175
-53,146,200,-46,-126,173,-92,-258,-185,-209,-190,-156
-53,146,200,-46,-126,173,-92,-248,-180,-200,-180,-156
-53,131,185,-39,-119,158,-82,-248,-180,-204,-185,-156
-53,146,200,-46,-126,173,-92,-248,-180,-204,-185,-161
-53,141,195,-43,-124,168,-92,-244,-175,-190,-185,-151
-53,151,204,-48,-129,178,-92,-244,-165,-190,-185,-156
-63,185,248,-61,-156,217,-102,-258,-180,-204,-200,-175
-63,170,234,-53,-148,202,-102,-258,-185,-219,-195,-175
-58,146,204,-43,-131,175,-107,-258,-180,-214,-190,-165
-53,141,195,-43,-124,168,-107,-258,-175,-209,-190,-161
-53,122,175,-34,-114,148,-87,-248,-161,-200,-170,-156
-53,107,161,-26,-107,134,-82,-239,-170,-190,-161,-146
-53,102,156,-24,-104,129,-73,-234,-175,-190,-161,-141
-53,97,151,-21,-102,124,-68,-229,-180,-185,-156,-136
-43,122,165,-39,-104,143,-87,-229,-170,-180,-165,-151
-43,161,204,-58,-124,183,-87,-229,-170,-180,-156,-146
-48,141,190,-46,-119,165,-82,-219,-151,-175,-136,-136
-48,151,200,-51,-124,175,-78,-234,-161,-175,-136,-126
-53,4,58,24,-56,31,-4,-175,-92,-107,-87,-58
-43,14,58,14,-51,36,-4,-165,-78,-97,-78,-58
-43,82,126,-19,-85,104,-24,-170,-87,-107,-92,-78
-39,165,204,-63,-122,185,-63,-190,-107,-131,-117,-112
-29,234,263,-102,-146,248,-87,-214,-126,-156,-136,-126
-29,200,229,-85,-129,214,-68,-204,-117,-146,-126,-107
-29,165,195,-68,-112,180,-58,-195,-107,-136,-117,-97
-29,131,161,-51,-95,146,-48,-185,-97,-126,-107,-87
-29,97,126,-34,-78,112,-39,-175,-87,-117,-97,-78
-39,87,126,-24,-82,107,-34,-161,-82,-102,-92,-78
-39,78,117,-19,-78,97,-29,-165,-78,-97,-87,-73
-39,63,102,-12,-70,82,-19,-161,-63,-92,-82,-68
-34,58,92,-12,-63,75,-14,-156,-58,-82,-68,-58
-24,58,82,-17,-53,70,-19,-146,-63,-78,-73,-53
-24,82,107,-29,-65,95,-29,-151,-53,-82,-58,-53
-24,97,122,-36,-73,109,-39,-156,-43,-78,-63,-43
-9,122,131,-56,-70,126,-68,-161,-53,-78,-68,-48
0,112,112,-56,-56,112,-73,-156,-48,-68,-58,-39
4,117,112,-61,-53,114,-92,-161,-39,-63,-48,-29
4,107,102,-56,-48,104,-92,-161,-39,-63,-39,-19
4,82,78,-43,-36,80,-87,-156,-34,-53,-29,-9
4,63,58,-34,-26,61,-102,-165,-58,-68,-43,-24
14,78,63,-46,-24,70,-107,-175,-73,-82,-58,-29
19,82,63,-51,-21,73,-117,-200,-87,-92,-63,-34
24,117,92,-70,-34,104,-131,-219,-107,-117,-87,-48
24,82,58,-53,-17,70,-117,-209,-107,-112,-78,-34
24,63,39,-43,-7,51,-117,-204,-107,-112,-73,-29
24,29,4,-26,9,17,-117,-204,-117,-122,-78,-24
24,-19,-43,-2,34,-31,-112,-195,-107,-112,-68,-19
39,-4,-43,-17,41,-24,-131,-204,-131,-122,-82,-39
39,9,-29,-24,34,-9,-117,-214,-151,-141,-92,-48
34,19,-14,-26,24,2,-122,-229,-146,-151,-112,-68
29,58,29,-43,0,43,-131,-239,-170,-161,-122,-78
19,34,14,-26,2,24,-102,-219,-141,-131,-92,-53
9,0,-9,-4,9,-4,-87,-204,-126,-122,-82,-39
0,-43,-43,21,21,-43,-63,-190,-117,-112,-73,-29
-9,-87,-78,48,34,-82,-43,-170,-107,-102,-63,-19
-4,-24,-19,14,7,-21,-58,-180,-117,-117,-78,-39
-14,-29,-14,21,0,-21,-58,-185,-126,-126,-87,-48
-24,9,34,7,-29,21,-58,-200,-131,-122,-87,-58
-34,14,48,9,-41,31,-68,-204,-141,-146,-112,-73
-48,-24,24,36,-36,0,-48,-200,-141,-146,-117,-78
-53,-68,-14,61,-19,-41,-29,-185,-136,-136,-102,-68
-53,-122,-68,87,7,-95,-9,-185,-126,-126,-97,-68
-58,-165,-107,112,24,-136,9,-180,-112,-112,-87,-58
-58,-107,-48,82,-4,-78,-14,-180,-122,-126,-107,-73
-58,-97,-39,78,-9,-68,-24,-190,-136,-141,-117,-82
-58,-63,-4,61,-26,-34,-34,-204,-151,-156,-126,-97
-58,-48,9,53,-34,-19,-29,-214,-165,-170,-136,-112
-58,-82,-24,70,-17,-53,-19,-190,-146,-156,-126,-102
-58,-131,-73,95,7,-102,-4,-175,-136,-146,-117,-87
-53,-175,-122,114,34,-148,4,-170,-126,-136,-102,-78
-53,-204,-151,129,48,-178,19,-156,-112,-117,-92,-58
-58,-161,-102,109,21,-131,0,-180,-136,-141,-102,-78
-58,-131,-73,95,7,-102,-14,-195,-151,-141,-107,-82
-63,-107,-43,85,-9,-75,-34,-204,-151,-161,-126,-102
-68,-78,-9,73,-29,-43,-48,-214,-165,-180,-146,-122
-58,-112,-53,85,-2,-82,-29,-190,-146,-161,-126,-112
-53,-156,-102,104,24,-129,-9,-175,-131,-141,-112,-92
-48,-180,-131,114,41,-156,9,-165,-117,-126,-97,-73
-48,-224,-175,136,63,-200,29,-156,-102,-107,-82,-53
-48,-180,-131,114,41,-156,4,-165,-122,-131,-102,-73
-48,-136,-87,92,19,-112,-9,-170,-136,-141,-126,-92
-43,-122,-78,82,17,-100,-19,-175,-146,-151,-126,-102
-43,-87,-43,65,0,-65,-34,-185,-156,-156,-131,-107
-48,-131,-82,90,17,-107,-4,-165,-131,-131,-112,-78
-53,-200,-146,126,46,-173,9,-156,-122,-122,-97,-63
-58,-209,-151,134,46,-180,24,-146,-112,-126,-97,-58
-68,-239,-170,153,51,-204,39,-136,-107,-117,-92,-43
-68,-185,-117,126,24,-151,14,-156,-117,-117,-92,-58
-68,-180,-112,124,21,-146,4,-161,-122,-126,-102,-68
-68,-156,-87,112,9,-122,0,-170,-131,-136,-107,-82
-68,-126,-58,97,-4,-92,-9,-180,-141,-146,-117,-97
-78,-170,-92,124,7,-131,14,-151,-112,-131,-107,-63
-78,-180,-102,129,12,-141,24,-151,-102,-122,-97,-63
-78,-209,-131,143,26,-170,24,-146,-97,-112,-78,-53
-78,-224,-146,151,34,-185,34,-141,-92,-102,-78,-43
-73,-180,-107,126,17,-143,19,-156,-112,-112,-87,-53
-73,-170,-97,122,12,-134,9,-161,-117,-126,-102,-68
-73,-156,-82,114,4,-119,0,-165,-126,-136,-112,-78
-73,-151,-78,112,2,-114,-9,-165,-136,-141,-117,-82
-63,-161,-97,112,17,-129,4,-151,-126,-126,-102,-68
-63,-180,-117,122,26,-148,14,-146,-117,-122,-97,-68
-68,-200,-131,134,31,-165,34,-136,-107,-126,-112,-73
-73,-219,-146,146,36,-183,43,-131,-102,-131,-112,-87
-92,-263,-170,178,39,-217,73,-112,-92,-122,-117,-92
-92,-165,-73,129,-9,-119,48,-141,-117,-151,-156,-131
-107,-73,34,90,-70,-19,19,-190,-146,-180,-190,-180
-117,-29,87,73,-102,29,4,-209,-156,-190,-209,-200
-122,-68,53,95,-87,-7,24,-209,-146,-170,-200,-190
-122,-146,-24,134,-48,-85,43,-195,-117,-151,-151,-146
-141,-224,-82,183,-29,-153,73,-190,-107,-136,-126,-117
-161,-244,-82,202,-39,-163,78,-214,-126,-141,-126,-112
-141,-214,-73,178,-34,-143,43,-244,-161,-165,-146,-107
-97,-131,-34,114,-31,-82,-4,-268,-195,-200,-146,-102
-63,-34,29,48,-46,-2,-63,-302,-244,-248,-175,-117
-43,29,73,7,-58,51,-107,-341,-287,-278,-195,-122
-19,43,63,-12,-41,53,-131,-361,-287,-268,-161,-73
19,14,-4,-17,12,4,-146,-346,-248,-209,-78,34
87,0,-87,-43,87,-43,-175,-346,-214,-131,48,170
195,19,-175,-107,185,-78,-253,-356,-195,-63,170,341
322,82,-239,-202,280,-78,-361,-385,-214,-24,297,502
429,234,-195,-331,312,19,-492,-434,-268,-19,380,624
551,390,-161,-470,356,114,-649,-507,-366,-48,429,717
692,512,-180,-602,436,165,-795,-585,-483,-107,468,824
819,624,-195,-722,507,214,-917,-634,-536,-107,561,985
897,712,-185,-805,541,263,-990,-653,-517,-34,697,1161
951,692,-258,-822,605,217,-1000,-658,-483,14,766,1283
1015,595,-419,-805,717,87,-990,-658,-512,-9,766,1332
1054,536,-517,-795,785,9,-990,-683,-585,-68,717,1312
1034,488,-546,-761,790,-29,-990,-751,-678,-190,536,1137
946,361,-585,-653,766,-112,-956,-829,-800,-400,200,751
839,200,-639,-519,739,-219,-897,-917,-922,-624,-175,326
727,87,-639,-407,683,-275,-854,-1034,-1015,-785,-429,53
585,14,-570,-300,578,-278,-795,-1151,-1049,-849,-556,-78
419,-19,-439,-200,429,-229,-673,-1229,-1005,-854,-639,-175
263,0,-263,-131,263,-131,-531,-1200,-878,-771,-624,-200
161,97,-63,-129,112,17,-409,-1107,-732,-663,-561,-161
117,170,53,-143,31,112,-331,-1034,-658,-614,-541,-161
78,200,122,-139,-21,161,-273,-980,-644,-619,-566,-219
19,214,195,-117,-87,204,-219,-902,-619,-619,-580,-273
-53,190,244,-68,-148,217,-151,-814,-580,-614,-585,-317
-87,126,214,-19,-151,170,-68,-741,-551,-614,-590,-346
-122,0,122,61,-122,61,29,-653,-497,-590,-575,-366
-156,-117,39,136,-97,-39,126,-546,-419,-531,-536,-351
-180,-185,-4,183,-87,-95,195,-463,-351,-473,-497,-331
-180,-190,-9,185,-85,-100,209,-414,-326,-448,-468,-322
-170,-126,43,148,-107,-41,185,-366,-317,-419,-439,-326
-175,-19,156,97,-165,68,156,-326,-292,-390,-419,-331
-170,39,209,65,-190,124,126,-302,-287,-375,-400,-331
-161,29,190,65,-175,109,117,-258,-258,-336,-370,-326
-146,-19,126,82,-136,53,136,-185,-200,-273,-307,-283
-141,-107,34,124,-87,-36,165,-92,-107,-185,-224,-219
-141,-180,-39,161,-51,-109,209,-24,-39,-112,-161,-161
-131,-200,-68,165,-31,-134,209,19,0,-63,-122,-141
-107,-151,-43,129,-31,-97,185,34,14,-58,-102,-126
-107,-73,34,90,-70,-19,146,24,4,-63,-107,-141
-107,-14,92,61,-100,39,107,14,-14,-73,-122,-161
-97,9,107,43,-102,58,82,4,-29,-73,-117,-165
-97,-43,53,70,-75,4,92,34,9,-29,-82,-136
-92,-102,-9,97,-41,-56,107,63,24,-19,-53,-102
-87,-122,-34,104,-26,-78,122,73,34,-14,-53,-97
-82,-146,-63,114,-9,-104,122,73,39,-4,-48,-92
-73,-141,-68,107,-2,-104,107,73,39,-14,-48,-92
-68,-122,-53,95,-7,-87,107,73,39,-14,-43,-82
-68,-97,-29,82,-19,-63,107,97,39,0,-29,-78
-68,-136,-68,102,0,-102,107,102,58,4,-24,-73
-78,-146,-68,112,-4,-107,107,112,63,14,-14,-68
-68,-156,-87,112,9,-122,117,122,73,24,0,-68
-68,-141,-73,104,2,-107,107,122,63,24,0,-68
-68,-141,-73,104,2,-107,107,122,63,24,0,-63
-58,-151,-92,104,17,-122,97,126,73,24,-9,-73
-58,-126,-68,92,4,-97,92,117,68,24,-9,-73
-58,-141,-82,100,12,-112,92,131,68,29,-9,-73
-58,-146,-87,102,14,-117,102,141,82,34,4,-68
-58,-141,-82,100,12,-112,102,131,78,34,9,-58
-68,-141,-73,104,2,-107,102,141,78,48,9,-53
-68,-136,-68,102,0,-102,102,141,78,39,9,-53
-63,-131,-68,97,2,-100,102,141,78,39,9,-58
-58,-131,-73,95,7,-102,97,146,92,43,14,-48
-58,-146,-87,102,14,-117,102,151,92,48,19,-48
-58,-161,-102,109,21,-131,112,165,92,63,39,-39
-58,-146,-87,102,14,-117,117,185,102,82,48,-34
-58,-156,-97,107,19,-126,107,175,97,68,34,-39
-58,-141,-82,100,12,-112,102,175,92,68,29,-43
-53,-141,-87,97,17,-114,102,175,92,63,34,-48
-53,-107,-53,80,0,-80,107,156,87,53,19,-53
-58,-112,-53,85,-2,-82,97,165,97,63,29,-39
-58,-126,-68,92,4,-97,97,180,107,78,39,-43
-58,-131,-73,95,7,-102,102,190,122,97,53,-29
-53,-161,-107,107,26,-134,112,214,136,112,73,-14
-53,-146,-92,100,19,-119,107,204,126,92,53,-29
-58,-122,-63,90,2,-92,97,200,122,82,43,-39
-58,-102,-43,80,-7,-73,97,204,122,82,53,-53
-53,-58,-4,56,-24,-31,78,195,112,78,43,-68
-63,-82,-19,73,-21,-51,87,204,126,87,58,-58
-63,-97,-34,80,-14,-65,97,214,136,107,63,-48
-63,-117,-53,90,-4,-85,107,224,141,117,68,-39
-58,-165,-107,112,24,-136,117,244,156,126,78,-29
-48,-126,-78,87,14,-102,107,234,141,107,68,-43
-48,-87,-39,68,-4,-63,102,229,141,112,68,-53
-48,-82,-34,65,-7,-58,92,224,131,117,68,-48
-48,-24,24,36,-36,0,82,229,117,107,63,-58
-58,-58,0,58,-29,-29,102,239,136,117,78,-48
-58,-73,-14,65,-21,-43,112,253,151,126,87,-34
-53,-112,-58,82,2,-85,122,268,161,141,92,-19
-53,-156,-102,104,24,-129,131,278,170,161,102,-4
-53,-112,-58,82,2,-85,117,268,165,136,87,-9
-48,-78,-29,63,-9,-53,102,263,161,141,92,-14
-43,-53,-9,48,-17,-31,92,263,156,151,87,-29
-39,14,53,12,-46,34,78,263,146,141,87,-43
-39,-24,14,31,-26,-4,92,283,175,161,102,-29
-39,-48,-9,43,-14,-29,107,297,185,180,122,-14
-43,-92,-48,68,2,-70,122,322,200,190,136,-9
-53,-102,-48,78,-2,-75,136,341,209,200,151,4
-53,-87,-34,70,-9,-61,112,341,200,204,146,0
-53,-53,0,53,-26,-26,102,326,204,185,141,-9
-53,-9,43,31,-48,17,92,331,200,185,136,-24
-53,9,63,21,-58,36,92,326,195,170,131,-34
-48,4,53,21,-51,29,92,346,214,195,151,-9
-39,-34,4,36,-21,-14,107,361,224,209,161,4
-34,-63,-29,48,-2,-46,122,385,239,224,170,19
-24,-78,-53,51,14,-65,136,395,248,244,180,34
-29,-68,-39,48,4,-53,112,405,239,239,175,24
-29,-14,14,21,-21,0,107,390,234,229,161,9
-29,24,53,2,-41,39,92,385,224,224,156,-4
-29,34,63,-2,-46,48,82,390,229,234,161,-4
-19,19,39,0,-29,29,97,414,248,248,185,9
-19,-14,4,17,-12,-4,112,434,273,263,200,24
-19,-19,0,19,-9,-9,126,453,292,278,214,39
-14,-24,-9,19,-2,-17,131,468,307,292,229,58
-19,-29,-9,24,-4,-19,126,478,292,292,224,34
-19,14,34,2,-26,24,117,468,297,292,214,29
-19,43,63,-12,-41,53,102,458,292,287,209,14
-19,78,97,-29,-58,87,97,463,297,287,209,9
-19,39,58,-9,-39,48,117,492,317,317,234,24
-19,19,39,0,-29,29,131,512,346,331,244,39
-19,19,39,0,-29,29,146,531,370,351,258,53
-14,14,29,0,-21,21,156,566,390,366,278,73
-4,29,34,-12,-19,31,141,556,375,366,263,53
-4,48,53,-21,-29,51,136,561,375,370,263,58
-4,78,82,-36,-43,80,126,551,380,370,263,48
0,117,117,-58,-58,117,112,556,385,361,258,39
-9,34,43,-12,-26,39,151,590,414,390,287,58
-14,58,73,-21,-43,65,146,605,429,400,297,68
-14,34,48,-9,-31,41,156,614,444,414,307,87
-14,29,43,-7,-29,36,161,653,453,424,322,97
-4,82,87,-39,-46,85,141,649,453,414,307,78
-4,63,68,-29,-36,65,156,639,458,434,312,82
0,97,97,-48,-48,97,151,629,458,429,312,73
0,107,107,-53,-53,107,141,624,463,424,307,58
-14,73,87,-29,-51,80,161,649,483,448,331,78
-14,58,73,-21,-43,65,175,673,502,458,341,87
-19,63,82,-21,-51,73,165,683,507,468,346,97
-19,53,73,-17,-46,63,170,697,512,478,346,102
-29,78,107,-24,-68,92,170,712,512,463,336,92
-29,82,112,-26,-70,97,165,707,517,483,346,97
-29,92,122,-31,-75,107,165,697,512,488,351,92
-39,82,122,-21,-80,102,161,673,522,488,356,82
-29,73,102,-21,-65,87,175,702,527,502,361,87
-29,43,73,-7,-51,58,180,717,541,507,366,97
-29,87,117,-29,-73,102,185,712,546,502,370,107
-29,58,87,-14,-58,73,190,717,566,517,380,117
-24,92,117,-34,-70,104,185,732,541,507,370,107
-19,102,122,-41,-70,112,165,727,536,497,366,102
-14,82,97,-34,-56,90,170,707,536,497,366,102
-9,82,92,-36,-51,87,165,692,536,512,370,107
-19,68,87,-24,-53,78,175,702,546,502,370,117
-19,53,73,-17,-46,63,175,692,546,517,385,117
-19,82,102,-31,-61,92,170,678,536,497,370,117
-19,92,112,-36,-65,102,165,668,527,483,366,107
-19,87,107,-34,-63,97,165,658,517,478,366,107
-19,112,131,-46,-75,122,156,653,512,478,361,107
-19,78,97,-29,-58,87,156,644,512,483,361,112
-19,78,97,-29,-58,87,156,605,502,468,351,112
-19,78,97,-29,-58,87,131,585,478,444,336,102
-19,82,102,-31,-61,92,131,546,473,439,331,97
-19,92,112,-36,-65,102,122,531,444,434,322,97
-19,117,136,-48,-78,126,117,502,424,400,297,97
-24,117,141,-46,-82,129,126,502,405,405,302,102
-24,122,146,-48,-85,134,112,483,390,385,297,92
-24,82,107,-29,-65,95,102,453,390,366,283,97
-24,73,97,-24,-61,85,102,429,380,361,278,112
-19,68,87,-24,-53,78,82,409,346,331,248,107
-19,82,102,-31,-61,92,78,366,322,312,239,82
-19,102,122,-41,-70,112,73,322,297,292,229,58
-29,122,151,-46,-90,136,63,287,263,268,214,53
-29,122,151,-46,-90,136,53,283,248,263,204,53
-29,107,136,-39,-82,122,43,268,224,244,200,53
-29,92,122,-31,-75,107,39,244,209,214,185,63
-29,39,68,-4,-48,53,43,229,200,209,190,73
-19,34,53,-7,-36,43,19,190,175,170,151,68
-14,63,78,-24,-46,70,9,161,146,146,136,48
-14,63,78,-24,-46,70,0,131,126,136,131,34
-14,122,136,-53,-75,129,-19,107,78,107,102,24
-9,87,97,-39,-53,92,-14,92,78,97,92,34
-9,82,92,-36,-51,87,-9,97,63,102,92,39
-14,48,63,-17,-39,56,-9,78,63,82,87,39
-14,-4,9,9,-12,2,4,82,68,82,92,48
-14,19,34,-2,-24,26,-9,63,43,63,68,39
-9,39,48,-14,-29,43,-24,34,0,29,58,19
-9,53,63,-21,-36,58,-34,19,-9,19,34,9
-9,87,97,-39,-53,92,-48,-4,-34,-4,14,-9
-9,53,63,-21,-36,58,-39,-4,-39,-9,9,-9
-9,43,53,-17,-31,48,-34,0,-43,-9,14,0
-9,14,24,-2,-17,19,-29,-9,-34,-9,14,4
-14,-39,-24,26,4,-31,-14,-4,-19,0,24,9
-4,-9,-4,7,0,-7,-34,-19,-43,-24,0,-4
-4,-9,-4,7,0,-7,-48,-34,-63,-39,-19,-19
0,39,39,-19,-19,39,-58,-53,-87,-58,-39,-34
0,78,78,-39,-39,78,-58,-73,-107,-78,-53,-48
-4,39,43,-17,-24,41,-53,-68,-92,-63,-39,-39
-9,0,9,4,-9,4,-43,-58,-87,-53,-34,-34
-14,-43,-29,29,7,-36,-39,-53,-82,-48,-24,-24
-19,-68,-48,43,14,-58,-24,-39,-68,-39,-14,-9
-9,-39,-29,24,9,-34,-29,-58,-82,-63,-34,-34
-9,-24,-14,17,2,-19,-39,-63,-78,-73,-43,-43
-4,19,24,-7,-14,21,-48,-73,-107,-87,-63,-58
-4,58,63,-26,-34,61,-63,-82,-122,-102,-82,-78
-19,4,24,7,-21,14,-53,-68,-122,-97,-73,-58
-19,-34,-14,26,-2,-24,-43,-58,-107,-82,-58,-53
-19,-63,-43,41,12,-53,-29,-58,-92,-82,-53,-43
-19,-73,-53,46,17,-63,-14,-48,-78,-68,-39,-29
-9,-48,-39,29,14,-43,-29,-68,-92,-82,-48,-39
-9,-24,-14,17,2,-19,-39,-73,-92,-82,-53,-48
-9,14,24,-2,-17,19,-53,-82,-107,-92,-68,-63
-9,53,63,-21,-36,58,-63,-87,-126,-97,-82,-63
-19,24,43,-2,-31,34,-48,-68,-112,-78,-73,-58
-19,-14,4,17,-12,-4,-34,-63,-97,-73,-63,-48
-19,-43,-24,31,2,-34,-24,-58,-92,-68,-58,-43
-19,-78,-58,48,19,-68,-14,-48,-78,-73,-53,-29
-19,-39,-19,29,0,-29,-29,-68,-92,-78,-58,-43
-14,-4,9,9,-12,2,-39,-78,-92,-87,-63,-53
-9,9,19,0,-14,14,-48,-82,-92,-82,-78,-48
-9,48,58,-19,-34,53,-63,-92,-126,-107,-82,-73
-19,9,29,4,-24,19,-43,-68,-102,-87,-63,-63
-14,-29,-14,21,0,-21,-29,-58,-87,-78,-58,-53
-14,-53,-39,34,12,-46,-19,-53,-87,-68,-53,-39
-19,-78,-58,48,19,-68,-9,-48,-73,-68,-48,-34
-24,-34,-9,29,-7,-21,-29,-58,-82,-78,-63,-53
-29,-19,9,24,-19,-4,-34,-68,-87,-82,-73,-63
-29,0,29,14,-29,14,-39,-73,-87,-92,-73,-68
-29,29,58,0,-43,43,-48,-82,-97,-102,-82,-78
-19,-24,-4,21,-7,-14,-14,-53,-78,-87,-63,-58
-19,-34,-14,26,-2,-24,-24,-58,-73,-78,-58,-53
-19,-39,-19,29,0,-29,-24,-58,-68,-58,-53,-48
-19,-48,-29,34,4,-39,-14,-63,-63,-63,-58,-48
-29,0,29,14,-29,14,-24,-78,-82,-73,-73,-68
-29,4,34,12,-31,19,-34,-78,-87,-82,-78,-73
-29,9,39,9,-34,24,-34,-82,-87,-92,-82,-78
-34,19,53,7,-43,36,-43,-82,-97,-102,-82,-82
-34,-4,29,19,-31,12,-29,-63,-82,-82,-73,-63
-34,-24,9,29,-21,-7,-24,-58,-78,-73,-63,-53
-34,-34,0,34,-17,-17,-19,-58,-73,-73,-58,-43
-39,-29,9,34,-24,-9,-19,-58,-78,-63,-48,-43
-29,0,29,14,-29,14,-34,-68,-87,-82,-63,-58
-29,19,48,4,-39,34,-39,-73,-92,-87,-68,-63
-29,19,48,4,-39,34,-39,-78,-97,-87,-68,-68
-34,0,34,17,-34,17,-34,-82,-92,-87,-68,-68
-43,0,43,21,-43,21,-29,-73,-87,-73,-48,-48
-43,-14,29,29,-36,7,-24,-68,-82,-68,-48,-43
-43,-29,14,36,-29,-7,-19,-68,-82,-63,-58,-48
-43,-19,24,31,-34,2,-24,-73,-82,-63,-58,-53
-34,-4,29,19,-31,12,-34,-73,-92,-82,-78,-68
-34,29,63,2,-48,46,-39,-82,-97,-87,-87,-73
-34,4,39,14,-36,21,-39,-82,-97,-92,-73,-78
-39,-19,19,29,-29,0,-29,-78,-102,-87,-73,-78
-48,-14,34,31,-41,9,-19,-78,-97,-78,-63,-78
-48,-29,19,39,-34,-4,-14,-78,-92,-78,-63,-78
-48,-19,29,34,-39,4,-14,-78,-92,-82,-73,-82
-39,0,39,19,-39,19,-19,-82,-92,-87,-73,-82
-53,4,58,24,-56,31,-24,-87,-102,-92,-78,-73
-53,19,73,17,-63,46,-34,-87,-102,-97,-78,-78
-53,-14,39,34,-46,12,-24,-87,-102,-97,-78,-78
-58,-39,19,48,-39,-9,-19,-87,-87,-92,-73,-78
-68,-53,14,61,-41,-19,-29,-97,-92,-92,-82,-87
-68,-39,29,53,-48,-4,-24,-97,-97,-92,-82,-78
-68,-14,53,41,-61,19,-24,-97,-107,-92,-92,-87
-63,0,63,31,-63,31,-34,-102,-122,-97,-92,-92
-53,9,63,21,-58,36,-24,-107,-122,-92,-102,-87
-53,4,58,24,-56,31,-29,-107,-126,-102,-97,-87
-53,-9,43,31,-48,17,-29,-102,-112,-102,-92,-92
-53,-43,9,48,-31,-17,-19,-97,-107,-102,-87,-78
-53,-58,-4,56,-24,-31,-24,-102,-122,-112,-87,-87
-53,-24,29,39,-41,2,-29,-107,-126,-117,-97,-92
-43,0,43,21,-43,21,-29,-102,-131,-122,-107,-102
-43,34,78,4,-61,56,-34,-107,-141,-131,-126,-107
-53,9,63,21,-58,36,-29,-97,-126,-122,-107,-97
-53,9,63,21,-58,36,-29,-107,-126,-126,-112,-92
-53,-4,48,29,-51,21,-24,-107,-117,-117,-102,-87
-53,-68,-14,61,-19,-41,-14,-102,-102,-107,-92,-78
-53,-58,-4,56,-24,-31,-29,-107,-112,-117,-102,-82
-53,-24,29,39,-41,2,-39,-112,-122,-126,-112,-92
-53,0,53,26,-53,26,-48,-122,-122,-136,-122,-102
-53,43,97,4,-75,70,-63,-136,-146,-146,-136,-122
-53,19,73,17,-63,46,-53,-122,-136,-131,-131,-112
-53,19,73,17,-63,46,-39,-122,-136,-126,-126,-112
-53,0,53,26,-53,26,-39,-122,-126,-126,-117,-102
-53,-78,-24,65,-14,-51,-14,-117,-112,-117,-102,-92
-43,-43,0,43,-21,-21,-34,-136,-126,-131,-117,-107
-43,-19,24,31,-34,2,-39,-141,-136,-136,-126,-117
-43,-4,39,24,-41,17,-53,-146,-146,-146,-136,-122
-43,48,92,-2,-68,70,-68,-156,-161,-156,-151,-131
-43,14,58,14,-51,36,-53,-151,-151,-141,-141,-122
-43,4,48,19,-46,26,-43,-146,-141,-136,-131,-107
-43,-14,29,29,-36,7,-29,-131,-131,-141,-126,-92
-43,-78,-34,61,-4,-56,-14,-122,-117,-131,-112,-87
-53,-43,9,48,-31,-17,-29,-136,-141,-141,-122,-102
-48,-29,19,39,-34,-4,-39,-146,-156,-146,-131,-102
-48,19,68,14,-58,43,-48,-156,-165,-161,-141,-117
-53,68,122,-7,-87,95,-63,-170,-180,-175,-156,-131
-53,19,73,17,-63,46,-48,-156,-165,-156,-146,-117
-53,0,53,26,-53,26,-43,-141,-151,-146,-136,-112
-53,-19,34,36,-43,7,-29,-136,-141,-141,-126,-97
-48,-48,0,48,-24,-24,-14,-126,-126,-126,-117,-92
-48,-43,4,46,-26,-19,-39,-141,-146,-141,-131,-107
-48,-24,24,36,-36,0,-48,-151,-156,-151,-136,-112
-48,24,73,12,-61,48,-63,-161,-161,-156,-151,-117
-53,53,107,0,-80,80,-78,-170,-170,-170,-156,-131
-63,24,87,19,-75,56,-53,-151,-151,-151,-141,-117
-63,-9,53,36,-58,21,-43,-146,-146,-146,-131,-107
-58,-19,39,39,-48,9,-34,-146,-146,-141,-122,-102
-58,-29,29,43,-43,0,-24,-136,-136,-131,-112,-97
-58,-24,34,41,-46,4,-48,-151,-141,-156,-136,-102
-58,0,58,29,-58,29,-48,-161,-151,-165,-136,-117
-58,39,97,9,-78,68,-63,-170,-161,-180,-151,-126
-53,43,97,4,-75,70,-63,-175,-175,-190,-165,-131
-63,29,92,17,-78,61,-48,-156,-161,-170,-156,-112
-63,-4,58,34,-61,26,-43,-146,-151,-156,-146,-92
-63,-39,24,51,-43,-7,-34,-131,-141,-141,-131,-92
-63,-78,-14,70,-24,-46,-19,-122,-136,-126,-117,-87
-53,-39,14,46,-34,-12,-43,-146,-151,-156,-141,-112
-48,-9,39,29,-43,14,-48,-161,-156,-170,-151,-122
-43,19,63,12,-53,41,-63,-175,-170,-175,-161,-117
-43,53,97,-4,-70,75,-78,-180,-180,-185,-165,-141
-48,9,58,19,-53,34,-63,-161,-151,-170,-146,-122
-48,-14,34,31,-41,9,-48,-151,-146,-156,-136,-102
-58,-29,29,43,-43,0,-34,-146,-141,-146,-126,-82
-48,-43,4,46,-26,-19,-29,-141,-146,-146,-122,-87
-48,4,53,21,-51,29,-53,-170,-156,-165,-141,-107
-48,14,63,17,-56,39,-63,-175,-156,-175,-146,-117
-43,29,73,7,-58,51,-63,-175,-161,-170,-156,-107
-43,58,102,-7,-73,80,-73,-170,-161,-170,-151,-117
-43,24,68,9,-56,46,-58,-151,-151,-156,-136,-97
-43,19,63,12,-53,41,-53,-141,-141,-146,-126,-92
-43,-4,39,24,-41,17,-39,-126,-126,-122,-117,-73
-43,-14,29,29,-36,7,-24,-117,-107,-112,-107,-68
-34,48,82,-7,-58,65,-39,-136,-122,-126,-112,-82
-34,63,97,-14,-65,80,-43,-141,-126,-141,-107,-87
-29,68,97,-19,-63,82,-53,-146,-122,-136,-102,-82
-24,92,117,-34,-70,104,-58,-151,-117,-131,-102,-82
-24,117,141,-46,-82,129,-58,-141,-117,-112,-102,-82
-9,19,29,-4,-19,24,-19,-107,-78,-87,-78,-48
-19,9,29,4,-24,19,-14,-102,-68,-78,-68,-39
-19,0,19,9,-19,9,-9,-97,-68,-78,-68,-39
-19,-9,9,14,-14,0,-4,-92,-68,-78,-68,-39
-19,-19,0,19,-9,-9,0,-87,-68,-78,-68,-39
-19,29,48,-4,-34,39,-29,-102,-78,-97,-87,-53
-19,68,87,-24,-53,78,-39,-117,-87,-107,-97,-63
-19,102,122,-41,-70,112,-43,-122,-87,-117,-107,-73
-14,146,161,-65,-87,153,-53,-126,-97,-122,-107,-78
-14,82,97,-34,-56,90,-34,-102,-82,-92,-87,-58
-14,63,78,-24,-46,70,-29,-92,-63,-82,-58,-43
-14,34,48,-9,-31,41,-24,-82,-43,-63,-48,-19
0,14,14,-7,-7,14,-39,-73,-43,-48,-39,-9
19,63,43,-41,-12,53,-63,-97,-63,-63,-53,-24
24,126,102,-75,-39,114,-102,-122,-68,-73,-58,-29
24,175,151,-100,-63,163,-122,-141,-82,-87,-63,-34
24,209,185,-117,-80,197,-136,-156,-92,-92,-68,-39
14,131,117,-73,-51,124,-122,-146,-92,-82,-53,-29
24,87,63,-56,-19,75,-107,-136,-92,-82,-58,-19
29,34,4,-31,12,19,-97,-141,-92,-78,-53,-9
34,9,-24,-21,29,-7,-92,-141,-97,-87,-68,-9
43,43,0,-43,21,21,-112,-161,-126,-107,-87,-34
43,92,48,-68,-2,70,-136,-175,-146,-131,-102,-48
43,126,82,-85,-19,104,-161,-195,-175,-165,-126,-63
43,146,102,-95,-29,124,-180,-204,-185,-180,-136,-78
39,78,39,-58,0,58,-161,-195,-170,-161,-122,-58
39,29,-9,-34,24,9,-126,-185,-170,-161,-112,-48
34,-24,-58,-4,46,-41,-112,-180,-146,-151,-112,-48
29,-48,-78,9,53,-63,-102,-170,-151,-141,-102,-39
24,14,-9,-19,17,2,-117,-175,-156,-151,-112,-48
19,58,39,-39,-9,48,-126,-185,-165,-161,-122,-58
14,92,78,-53,-31,85,-126,-195,-180,-170,-131,-73
9,126,117,-68,-53,122,-131,-200,-195,-180,-141,-87
4,97,92,-51,-43,95,-107,-175,-170,-156,-117,-73
-4,19,24,-7,-14,21,-78,-156,-156,-146,-107,-58
-14,-14,0,14,-7,-7,-48,-146,-136,-122,-87,-43
-24,-82,-58,53,17,-70,-29,-126,-122,-126,-92,-34
-39,-34,4,36,-21,-14,-48,-156,-146,-151,-122,-73
-43,-9,34,26,-39,12,-58,-165,-165,-165,-131,-87
-43,4,48,19,-46,26,-68,-190,-180,-180,-151,-112
-48,29,78,9,-63,53,-78,-209,-190,-190,-165,-126
-48,0,48,24,-48,24,-68,-185,-175,-180,-156,-117
-48,-58,-9,53,-19,-34,-53,-170,-165,-170,-146,-102
-48,-92,-43,70,-2,-68,-39,-161,-156,-161,-136,-92
-48,-146,-97,97,24,-122,-9,-146,-146,-151,-126,-82
-39,-92,-53,65,7,-73,-43,-156,-161,-170,-141,-107
-39,-63,-24,51,-7,-43,-53,-165,-175,-185,-156,-117
-34,-29,4,31,-19,-12,-68,-185,-190,-200,-165,-131
-34,19,53,7,-43,36,-78,-195,-200,-204,-180,-136
-48,-14,34,31,-41,9,-58,-180,-185,-185,-156,-122
-48,-53,-4,51,-21,-29,-43,-175,-180,-161,-136,-102
-53,-97,-43,75,-4,-70,-34,-165,-161,-156,-131,-97
-58,-136,-78,97,9,-107,-19,-156,-156,-151,-126,-92
-58,-97,-39,78,-9,-68,-34,-161,-165,-165,-146,-112
-53,-78,-24,65,-14,-51,-39,-165,-170,-170,-151,-112
-48,-39,9,43,-29,-14,-43,-175,-175,-180,-156,-112
-48,-19,29,34,-39,4,-48,-185,-180,-185,-161,-112
-58,-39,19,48,-39,-9,-34,-170,-165,-185,-146,-107
-58,-48,9,53,-34,-19,-29,-161,-165,-180,-156,-112
-53,-87,-34,70,-9,-61,-19,-151,-161,-175,-141,-107
-53,-107,-53,80,0,-80,-14,-146,-156,-165,-131,-97
-43,-87,-43,65,0,-65,-14,-151,-156,-161,-131,-97
-43,-102,-58,73,7,-80,-19,-156,-161,-161,-136,-102
-43,-58,-14,51,-14,-36,-24,-161,-165,-175,-156,-117
-48,-34,14,41,-31,-9,-29,-165,-175,-175,-170,-122
-48,-34,14,41,-31,-9,-34,-165,-165,-165,-161,-112
-48,-63,-14,56,-17,-39,-34,-161,-161,-165,-161,-107
-48,-73,-24,61,-12,-48,-29,-161,-161,-165,-156,-107
-48,-78,-29,63,-9,-53,-29,-161,-161,-165,-156,-107
-53,-82,-29,68,-12,-56,-14,-141,-161,-161,-146,-102
-58,-63,-4,61,-26,-34,-14,-151,-161,-161,-146,-112
-63,-63,0,63,-31,-31,-24,-156,-165,-161,-136,-112
-68,-48,19,58,-43,-14,-24,-161,-170,-161,-146,-112
-63,-29,34,46,-48,2,-29,-151,-161,-161,-146,-102
-63,-43,19,53,-41,-12,-29,-151,-156,-165,-151,-107
-63,-53,9,58,-36,-21,-29,-151,-156,-165,-151,-107
-63,-73,-9,68,-26,-41,-29,-146,-156,-161,-146,-102
-53,-73,-19,63,-17,-46,-19,-136,-156,-161,-146,-102
-53,-82,-29,68,-12,-56,-14,-136,-156,-161,-146,-107
-58,-92,-34,75,-12,-63,0,-131,-156,-170,-165,-117
-63,-102,-39,82,-12,-70,4,-131,-161,-180,-170,-136
-82,39,122,21,-102,80,-43,-180,-200,-219,-234,-200
-92,9,102,41,-97,56,-19,-180,-185,-209,-224,-200
-107,-73,34,90,-70,-19,19,-161,-146,-170,-200,-170
-117,-165,-48,141,-34,-107,63,-141,-126,-141,-170,-151
-122,-214,-92,168,-14,-153,73,-141,-107,-131,-151,-131
-122,-175,-53,148,-34,-114,63,-165,-117,-131,-161,-136
-122,-97,24,109,-73,-36,24,-209,-156,-165,-185,-156
-122,-9,112,65,-117,51,-19,-263,-204,-229,-214,-180
-112,48,161,31,-136,104,-53,-292,-248,-253,-224,-175
-78,34,112,21,-95,73,-73,-297,-263,-248,-195,-141
-53,-34,19,43,-36,-7,-63,-273,-253,-229,-165,-97
-24,-126,-102,75,39,-114,-58,-263,-239,-200,-126,-34
9,-151,-161,70,85,-156,-73,-253,-229,-170,-82,34
58,-92,-151,17,104,-122,-117,-268,-209,-131,-9,112
126,39,-87,-82,107,-24,-204,-317,-214,-112,68,209
234,214,-19,-224,126,97,-351,-385,-263,-102,151,322
361,356,-4,-358,183,175,-488,-434,-312,-82,248,463
478,429,-48,-453,263,190,-590,-453,-346,-58,361,605
610,400,-209,-505,409,95,-688,-468,-385,-48,468,766
751,366,-385,-558,568,-9,-766,-478,-453,-39,566,932
868,400,-468,-634,668,-34,-849,-478,-468,0,697,1112
956,517,-439,-736,697,39,-922,-497,-439,73,814,1278
1010,634,-375,-822,692,129,-980,-561,-473,63,824,1332
1063,692,-370,-878,717,161,-1029,-639,-570,-29,746,1302
1102,712,-390,-907,746,161,-1078,-702,-663,-136,658,1244
1073,624,-448,-849,761,87,-1058,-771,-746,-258,458,1039
976,361,-614,-668,795,-126,-966,-819,-839,-439,122,663
858,53,-805,-456,832,-375,-849,-868,-912,-614,-195,317
746,-146,-893,-300,819,-519,-766,-946,-976,-727,-380,112
634,-209,-844,-212,739,-527,-717,-1083,-1029,-819,-527,-19
478,-126,-605,-175,541,-366,-663,-1210,-1044,-883,-658,-156
312,58,-253,-185,283,-97,-561,-1239,-966,-849,-692,-229
200,263,63,-231,68,163,-478,-1185,-878,-790,-678,-239
136,346,209,-241,-36,278,-409,-1141,-824,-771,-668,-258
87,268,180,-178,-46,224,-322,-1049,-761,-736,-663,-278
39,107,68,-73,-14,87,-209,-902,-668,-678,-619,-283
-14,-43,-29,29,7,-36,-82,-766,-590,-624,-575,-268
-58,-136,-78,97,9,-107,19,-653,-531,-585,-551,-268
-102,-175,-73,139,-14,-124,87,-585,-478,-570,-556,-297
-136,-117,19,126,-78,-48,117,-536,-448,-561,-556,-341
-151,-19,131,85,-141,56,117,-512,-448,-551,-566,-370
-161,43,204,58,-183,124,92,-473,-444,-536,-546,-380
-151,48,200,51,-175,124,87,-414,-414,-488,-497,-366
-146,-19,126,82,-136,53,107,-336,-351,-419,-429,-322
-161,-97,63,129,-112,-17,146,-244,-278,-336,-351,-273
-161,-156,4,158,-82,-75,175,-151,-200,-258,-273,-219
-146,-185,-39,165,-53,-112,185,-78,-141,-195,-219,-185
-141,-136,4,139,-73,-65,165,-53,-97,-156,-195,-180
-131,-43,87,87,-109,21,131,-43,-87,-141,-190,-190
-112,43,156,34,-134,100,102,-29,-78,-131,-180,-190
-107,63,170,21,-139,117,87,-14,-63,-117,-161,-175
-97,34,131,31,-114,82,97,4,-34,-82,-126,-161
-87,-53,34,70,-61,-9,117,43,4,-43,-92,-122
-87,-156,-68,122,-9,-112,131,82,39,-4,-58,-87
-87,-151,-63,119,-12,-107,122,87,53,4,-58,-87
-82,-161,-78,122,-2,-119,117,102,53,0,-43,-73
-78,-131,-53,104,-12,-92,112,97,48,-9,-58,-87
-73,-107,-34,90,-19,-70,92,82,39,-14,-68,-102
-63,-92,-29,78,-17,-61,82,78,24,-29,-73,-107
-58,-63,-4,61,-26,-34,78,73,19,-34,-73,-102
-58,-29,29,43,-43,0,73,92,14,-24,-63,-102
-58,-58,0,58,-29,-29,68,92,29,-24,-63,-102
-63,-78,-14,70,-24,-46,82,107,39,-14,-53,-82
-58,-107,-48,82,-4,-78,97,122,53,4,-29,-78
-63,-112,-48,87,-7,-80,92,126,48,14,-19,-73
-68,-131,-63,100,-2,-97,97,131,53,24,-9,-63
-58,-102,-43,80,-7,-73,73,122,48,9,-24,-73
-58,-48,9,53,-34,-19,63,107,39,4,-29,-82
-58,-34,24,46,-41,-4,58,117,34,4,-34,-92
-58,-9,48,34,-53,19,63,122,43,4,-24,-97
-48,-58,-9,53,-19,-34,82,131,58,29,-4,-87
-58,-92,-34,75,-12,-63,92,151,68,48,0,-73
-58,-122,-63,90,2,-92,102,161,78,43,4,-63
-53,-151,-97,102,21,-124,112,170,87,48,9,-58
-48,-97,-48,73,0,-73,87,151,82,39,0,-68
-48,-68,-19,58,-14,-43,73,141,73,29,-9,-78
-48,-39,9,43,-29,-14,63,141,63,29,-4,-78
-48,19,68,14,-58,43,48,146,63,34,-9,-82
-58,-58,0,58,-29,-29,68,165,92,53,9,-68
-58,-92,-34,75,-12,-63,82,185,102,68,19,-53
-53,-141,-87,97,17,-114,102,204,117,78,39,-39
-53,-156,-102,104,24,-129,126,204,126,82,39,-24
-58,-107,-48,82,-4,-78,97,185,107,63,19,-39
-58,-68,-9,63,-24,-39,78,180,97,58,9,-63
-58,-19,39,39,-48,9,63,170,92,58,4,-68
-53,4,58,24,-56,31,53,175,87,53,4,-73
-53,-53,0,53,-26,-26,73,195,107,78,19,-58
-58,-92,-34,75,-12,-63,87,209,122,92,34,-39
-58,-136,-78,97,9,-107,112,234,141,117,68,-24
-53,-156,-102,104,24,-129,117,244,151,136,82,-9
-43,-102,-58,73,7,-80,102,234,131,112,68,-24
-43,-48,-4,46,-19,-26,87,224,126,107,53,-39
-43,0,43,21,-43,21,73,214,117,92,39,-53
-39,19,58,9,-48,39,58,214,117,78,29,-68
-39,-19,19,29,-29,0,73,244,136,92,43,-39
-39,-58,-19,48,-9,-39,92,258,161,122,68,-24
-39,-131,-92,85,26,-112,107,273,175,151,92,4
-39,-151,-112,95,36,-131,122,297,185,165,112,19
-39,-102,-63,70,12,-82,102,278,165,156,97,0
-39,-43,-4,41,-17,-24,92,273,161,146,87,-14
-34,-9,24,21,-29,7,82,268,151,141,73,-29
-34,19,53,7,-43,36,73,258,141,141,63,-43
-48,-19,29,34,-39,4,87,278,175,146,87,-14
-48,-68,-19,58,-14,-43,102,292,190,170,112,4
-48,-126,-78,87,14,-102,122,312,204,200,126,14
-48,-141,-92,95,21,-117,136,331,214,209,146,24
-43,-97,-53,70,4,-75,122,326,204,190,136,14
-39,-48,-9,43,-14,-29,107,317,195,190,131,4
-39,-19,19,29,-29,0,92,317,190,180,122,-14
-43,43,87,0,-65,65,78,312,180,170,112,-24
-34,-14,19,24,-26,2,97,346,195,209,141,4
-34,-53,-19,43,-7,-36,112,356,224,214,161,19
-34,-82,-48,58,7,-65,126,385,244,239,180,29
-34,-136,-102,85,34,-119,151,405,263,248,200,43
-34,-73,-39,53,2,-56,126,390,258,244,190,34
-29,-43,-14,36,-7,-29,117,390,253,239,180,24
-29,-4,24,17,-26,9,107,400,253,234,170,14
-24,48,73,-12,-48,61,97,395,248,234,161,4
-29,-19,9,24,-19,-4,117,434,278,258,195,29
-29,-34,-4,31,-12,-19,136,439,292,268,200,39
-29,-63,-34,46,2,-48,146,453,302,283,214,48
-29,-122,-92,75,31,-107,161,478,326,312,239,73
-19,-68,-48,43,14,-58,151,478,317,302,234,68
-19,-43,-24,31,2,-34,141,483,322,302,229,63
-19,9,29,4,-24,19,131,488,322,302,224,58
-14,63,78,-24,-46,70,112,488,317,302,219,58
-19,0,19,9,-19,9,136,517,331,336,244,63
-19,-14,4,17,-12,-4,146,527,356,351,253,78
-19,-43,-24,31,2,-34,151,536,370,361,268,82
-19,-68,-48,43,14,-58,165,561,395,375,287,97
-9,-53,-43,31,17,-48,165,566,390,380,278,87
-9,-29,-19,19,4,-24,161,570,405,380,273,87
-9,14,24,-2,-17,19,156,575,414,385,273,87
-4,53,58,-24,-31,56,146,595,419,385,278,92
-14,19,34,-2,-24,26,156,614,429,400,287,102
-14,0,14,7,-14,7,165,629,444,419,302,117
-14,-9,4,12,-9,-2,170,629,463,434,317,117
-9,-9,0,9,-4,-4,170,644,483,439,326,117
0,-48,-48,24,24,-48,180,658,483,458,341,107
-4,9,14,-2,-9,12,165,663,488,458,336,107
-4,19,24,-7,-14,21,165,663,492,463,331,117
-4,48,53,-21,-29,51,161,692,492,463,331,117
-4,78,82,-36,-43,80,151,707,512,463,341,117
-4,24,29,-9,-17,26,175,707,527,492,351,131
0,24,24,-12,-12,24,180,707,536,497,356,131
0,0,0,0,0,0,180,712,551,502,356,126
-14,-4,9,9,-12,2,190,722,556,512,375,131
-14,0,14,7,-14,7,204,741,570,517,380,136
-19,24,43,-2,-31,34,195,746,570,522,380,141
-19,34,53,-7,-36,43,200,756,570,527,375,141
-9,53,63,-21,-36,58,190,771,570,512,366,126
-9,53,63,-21,-36,58,185,766,575,531,375,136
-9,58,68,-24,-39,63,185,756,570,536,380,136
-19,43,63,-12,-41,53,180,732,580,536,385,131
-19,39,58,-9,-39,48,195,756,595,546,400,141
-19,4,24,7,-21,14,200,775,610,556,405,146
-19,43,63,-12,-41,53,204,775,614,556,409,151
-19,9,29,4,-24,19,209,785,634,575,419,156
-9,63,73,-26,-41,68,204,795,614,570,405,136
-9,82,92,-36,-51,87,185,785,605,556,395,131
-9,73,82,-31,-46,78,190,761,600,551,390,131
-9,82,92,-36,-51,87,185,741,595,561,390,136
-14,58,73,-21,-43,65,200,751,610,570,400,151
-19,24,43,-2,-31,34,204,751,614,585,414,156
-24,34,58,-4,-41,46,204,746,610,566,400,161
-29,24,53,2,-41,39,204,746,605,551,395,156
-19,63,82,-21,-51,73,175,712,575,517,370,136
-19,112,131,-46,-75,122,156,692,561,507,361,126
-19,102,122,-41,-70,112,146,668,551,502,356,122
-19,126,146,-53,-82,136,136,614,531,478,341,112
-19,82,102,-31,-61,92,136,619,522,483,356,126
-19,53,73,-17,-46,63,151,595,531,488,361,136
-19,29,48,-4,-34,39,156,595,517,492,361,151
-19,19,39,0,-29,29,165,580,512,468,346,165
-24,68,92,-21,-58,80,151,546,463,448,326,151
-24,112,136,-43,-80,124,122,512,429,414,307,122
-24,112,136,-43,-80,124,97,468,409,380,278,107
-24,141,165,-58,-95,153,82,429,380,361,258,102
-9,82,92,-36,-51,87,78,424,370,346,258,126
-9,53,63,-21,-36,58,87,395,361,341,258,122
-9,29,39,-9,-24,34,97,366,351,336,258,117
-19,4,24,7,-21,14,102,346,331,326,253,131
-9,58,68,-24,-39,63,68,317,287,297,219,102
-9,97,107,-43,-58,102,43,287,253,263,200,82
-9,136,146,-63,-78,141,24,248,229,219,170,73
-9,136,146,-63,-78,141,14,219,209,200,161,63
-9,68,78,-29,-43,73,29,214,209,195,146,92
-4,34,39,-14,-21,36,39,200,195,185,146,87
-4,-29,-24,17,9,-26,48,185,190,190,156,87
-4,-34,-29,19,12,-31,48,175,156,175,141,92
-9,4,14,2,-12,9,19,131,126,136,112,73
-9,63,73,-26,-41,68,0,117,92,122,92,58
-14,92,107,-39,-61,100,-24,78,73,82,68,39
-14,102,117,-43,-65,109,-34,63,58,63,53,29
-14,43,58,-14,-36,51,-14,63,73,73,63,48
-9,0,9,4,-9,4,-4,53,48,58,68,48
-9,-48,-39,29,14,-43,9,58,58,68,58,58
-9,-78,-68,43,29,-73,19,53,53,63,53,58
-9,-34,-24,21,7,-29,0,24,14,34,24,24
-9,24,34,-7,-21,29,-24,9,-14,9,4,9
-9,63,73,-26,-41,68,-48,-19,-29,-14,-19,-9
-14,78,92,-31,-53,85,-63,-34,-39,-29,-34,-29
-14,29,43,-7,-29,36,-39,-24,-29,-19,-14,0
-14,-39,-24,26,4,-31,-29,-14,-24,-9,-9,9
-9,-58,-48,34,19,-53,-14,-9,-24,-4,-4,19
-9,-87,-78,48,34,-82,9,-4,-19,0,4,29
-9,-43,-34,26,12,-39,-19,-24,-39,-19,-24,4
-9,-9,0,9,-4,-4,-34,-39,-58,-34,-43,-14
-9,19,29,-4,-19,24,-53,-58,-78,-53,-58,-29
-9,68,78,-29,-43,73,-63,-68,-87,-68,-73,-39
-19,9,29,4,-24,19,-34,-58,-63,-58,-63,-19
-19,-43,-24,31,2,-34,-19,-43,-39,-43,-43,-4
-14,-68,-53,41,19,-61,-4,-34,-48,-34,-34,4
-14,-97,-82,56,34,-90,4,-24,-43,-24,-24,9
-9,-68,-58,39,24,-63,-19,-39,-73,-48,-53,-4
-9,-34,-24,21,7,-29,-34,-48,-78,-53,-58,-24
-9,9,19,0,-14,14,-43,-68,-82,-73,-73,-39
-9,73,82,-31,-46,78,-53,-78,-87,-78,-78,-48
-9,14,24,-2,-17,19,-43,-68,-73,-68,-58,-29
-9,-34,-24,21,7,-29,-29,-53,-53,-53,-43,-19
-9,-68,-58,39,24,-63,-19,-43,-48,-48,-39,-14
-9,-102,-92,56,41,-97,-4,-29,-48,-39,-34,4
-9,-63,-53,36,21,-58,-19,-43,-63,-43,-43,-19
-9,-43,-34,26,12,-39,-24,-53,-68,-53,-53,-29
-9,-14,-4,12,-2,-9,-34,-63,-82,-63,-68,-43
-9,9,19,0,-14,14,-43,-68,-87,-82,-82,-48
-24,-4,19,14,-21,7,-39,-63,-82,-63,-63,-43
-24,-24,0,24,-12,-12,-29,-58,-63,-58,-53,-34
-24,-63,-39,43,7,-51,-19,-48,-43,-39,-53,-9
-29,-78,-48,53,9,-63,-14,-43,-58,-48,-43,-14
-29,-58,-29,43,0,-43,-19,-43,-48,-48,-53,-29
-24,-48,-24,36,0,-36,-19,-48,-48,-48,-58,-34
-24,-24,0,24,-12,-12,-24,-58,-63,-48,-63,-34
-29,0,29,14,-29,14,-29,-68,-63,-58,-68,-43
-24,-4,19,14,-21,7,-29,-58,-63,-48,-63,-34
-29,-29,0,29,-14,-14,-24,-58,-58,-43,-63,-34
-29,-48,-19,39,-4,-34,-19,-53,-48,-43,-53,-29
-29,-58,-29,43,0,-43,-19,-53,-48,-43,-53,-29
-29,-73,-43,51,7,-58,4,-39,-48,-48,-58,-34
-29,-53,-24,41,-2,-39,-14,-48,-53,-48,-58,-34
-29,-29,0,29,-14,-14,-24,-53,-58,-39,-58,-34
-29,-9,19,19,-24,4,-24,-63,-63,-53,-68,-39
-29,14,43,7,-36,29,-24,-63,-73,-53,-68,-43
-29,-4,24,17,-26,9,-24,-58,-68,-53,-68,-43
-29,-24,4,26,-17,-9,-14,-58,-58,-53,-68,-43
-34,-39,-4,36,-14,-21,-14,-53,-58,-53,-63,-43
-34,-48,-14,41,-9,-31,-4,-48,-48,-34,-53,-34
-34,-53,-19,43,-7,-36,-4,-48,-48,-34,-53,-34
-34,-48,-14,41,-9,-31,-4,-53,-48,-43,-58,-34
-39,-29,9,34,-24,-9,-9,-58,-58,-43,-58,-43
-39,-9,29,24,-34,9,-14,-73,-73,-58,-78,-53
-39,0,39,19,-39,19,-19,-73,-73,-58,-78,-53
-39,-9,29,24,-34,9,-19,-73,-73,-53,-73,-53
-43,-39,4,41,-24,-17,-14,-73,-63,-48,-68,-48
-43,-48,-4,46,-19,-26,0,-68,-48,-43,-53,-39
-43,-63,-19,53,-12,-41,4,-58,-43,-39,-48,-34
-43,-78,-34,61,-4,-56,9,-53,-43,-34,-53,-39
-43,-68,-24,56,-9,-46,4,-53,-43,-34,-48,-43
-43,-34,9,39,-26,-12,0,-58,-63,-58,-63,-48
-43,9,53,17,-48,31,-9,-73,-68,-58,-78,-53
-43,-4,39,24,-41,17,-14,-78,-68,-58,-68,-58
-48,-19,29,34,-39,4,-9,-78,-73,-48,-73,-58
-39,-48,-9,43,-14,-29,-4,-63,-63,-43,-58,-43
-39,-78,-39,58,0,-58,4,-58,-53,-39,-53,-39
-39,-82,-43,61,2,-63,9,-53,-48,-39,-58,-39
-29,-78,-48,53,9,-63,9,-53,-43,-39,-53,-34
-43,-34,9,39,-26,-12,-4,-68,-73,-53,-68,-53
-43,9,53,17,-48,31,-24,-78,-82,-68,-78,-68
-43,4,48,19,-46,26,-24,-87,-92,-78,-87,-78
-48,9,58,19,-53,34,-29,-97,-87,-82,-92,-87
-39,-48,-9,43,-14,-29,-9,-87,-68,-63,-73,-68
-39,-68,-29,53,-4,-48,4,-78,-58,-53,-63,-48
-39,-78,-39,58,0,-58,14,-68,-53,-43,-63,-48
-34,-97,-63,65,14,-80,14,-63,-53,-39,-53,-43
-43,-29,14,36,-29,-7,-4,-87,-68,-63,-78,-53
-43,4,48,19,-46,26,-19,-97,-87,-82,-87,-68
-43,29,73,7,-58,51,-29,-102,-87,-92,-97,-87
-43,34,78,4,-61,56,-29,-107,-97,-102,-107,-87
-53,-48,4,51,-29,-21,-9,-97,-87,-78,-87,-63
-53,-63,-9,58,-21,-36,0,-87,-78,-68,-78,-53
-43,-87,-43,65,0,-65,14,-68,-68,-58,-68,-48
-43,-102,-58,73,7,-80,24,-58,-63,-53,-68,-39
-53,-63,-9,58,-21,-36,-4,-82,-87,-73,-87,-53
-53,-9,43,31,-48,17,-19,-107,-107,-97,-112,-73
-53,29,82,12,-68,56,-29,-122,-117,-107,-122,-92
-53,19,73,17,-63,46,-34,-131,-122,-117,-131,-107
-43,-48,-4,46,-19,-26,-14,-107,-107,-87,-107,-78
-43,-73,-29,58,-7,-51,0,-92,-92,-78,-92,-63
-43,-107,-63,75,9,-85,14,-82,-68,-68,-78,-48
-43,-122,-78,82,17,-100,24,-78,-68,-58,-68,-43
-43,-68,-24,56,-9,-46,4,-97,-82,-82,-87,-63
-43,0,43,21,-43,21,-9,-112,-107,-97,-107,-82
-43,48,92,-2,-68,70,-39,-126,-122,-117,-122,-92
-43,39,82,2,-63,61,-43,-136,-131,-126,-131,-102
-43,-14,29,29,-36,7,-19,-117,-107,-107,-107,-78
-43,-58,-14,51,-14,-36,0,-102,-97,-87,-97,-68
-43,-112,-68,78,12,-90,9,-87,-87,-73,-87,-53
-43,-126,-82,85,19,-104,19,-78,-82,-58,-82,-43
-43,-87,-43,65,0,-65,-9,-107,-97,-82,-97,-68
-43,-24,19,34,-31,-2,-24,-126,-112,-97,-112,-78
-43,29,73,7,-58,51,-34,-136,-126,-122,-131,-87
-43,39,82,2,-63,61,-43,-151,-136,-131,-141,-107
-43,-4,39,24,-41,17,-24,-136,-117,-117,-112,-87
-39,-68,-29,53,-4,-48,-9,-117,-107,-97,-102,-63
-39,-97,-58,68,9,-78,4,-97,-92,-87,-92,-53
-43,-126,-82,85,19,-104,14,-82,-82,-78,-87,-43
-53,-97,-43,75,-4,-70,-4,-97,-97,-92,-112,-58
-53,-39,14,46,-34,-12,-24,-112,-112,-107,-126,-82
-53,19,73,17,-63,46,-34,-136,-131,-126,-141,-97
-48,68,117,-9,-82,92,-43,-156,-146,-136,-156,-122
-48,-9,39,29,-43,14,-24,-136,-126,-126,-141,-107
-48,-63,-14,56,-17,-39,-9,-122,-117,-112,-117,-82
-48,-87,-39,68,-4,-63,0,-107,-102,-92,-102,-58
-53,-131,-78,92,12,-104,9,-92,-92,-82,-78,-43
-43,-92,-48,68,2,-70,0,-102,-102,-92,-97,-53
-43,-58,-14,51,-14,-36,-14,-117,-117,-107,-112,-68
-39,0,39,19,-39,19,-29,-136,-136,-122,-126,-87
-39,58,97,-9,-68,78,-43,-146,-146,-131,-141,-107
-39,-4,34,21,-36,14,-29,-136,-131,-117,-126,-92
-39,-39,0,39,-19,-19,-9,-131,-122,-107,-107,-87
-39,-58,-19,48,-9,-39,-4,-126,-112,-102,-102,-78
-34,-112,-78,73,21,-95,14,-117,-107,-92,-97,-63
-34,-58,-24,46,-4,-41,-9,-131,-117,-97,-117,-78
-34,-34,0,34,-17,-17,-24,-136,-122,-107,-126,-73
-34,-9,24,21,-29,7,-34,-136,-126,-117,-131,-87
-34,9,43,12,-39,26,-39,-141,-136,-126,-136,-97
-43,-14,29,29,-36,7,-34,-136,-126,-126,-126,-87
-39,-39,0,39,-19,-19,-19,-131,-117,-122,-122,-82
-34,-63,-29,48,-2,-46,-14,-126,-117,-107,-117,-63
-34,-82,-48,58,7,-65,-9,-112,-112,-97,-107,-73
-39,-68,-29,53,-4,-48,-19,-122,-102,-107,-112,-78
-39,-53,-14,46,-12,-34,-19,-122,-107,-107,-117,-73
-48,-29,19,39,-34,-4,-19,-126,-112,-112,-122,-68
-39,-4,34,21,-36,14,-29,-131,-126,-126,-131,-87
-39,0,39,19,-39,19,-29,-141,-122,-122,-126,-92
-39,-24,14,31,-26,-4,-24,-136,-107,-117,-117,-87
-34,-43,-9,39,-12,-26,-9,-126,-97,-97,-112,-63
-34,-48,-14,41,-9,-31,-4,-112,-82,-82,-92,-58
-24,-34,-9,29,-7,-21,-4,-102,-82,-87,-87,-63
-24,-9,14,17,-19,2,-14,-102,-82,-87,-87,-63
-24,-4,19,14,-21,7,-14,-97,-78,-73,-87,-48
-24,14,39,4,-31,26,-14,-97,-68,-73,-87,-48
-24,136,161,-56,-92,148,-53,-141,-97,-112,-117,-87
-24,92,117,-34,-70,104,-34,-122,-78,-82,-87,-58
-9,0,9,4,-9,4,0,-78,-39,-48,-58,-19
0,-9,-9,4,4,-9,4,-73,-34,-43,-53,-9
0,-19,-19,9,9,-19,9,-68,-29,-39,-48,-9
0,-29,-29,14,14,-29,14,-63,-24,-34,-43,-9
0,-39,-39,19,19,-39,19,-58,-19,-29,-39,-9
0,0,0,0,0,0,-9,-68,-39,-48,-58,-24
0,39,39,-19,-19,39,-19,-87,-48,-58,-68,-34
0,73,73,-36,-36,73,-24,-97,-48,-68,-78,-43
4,117,112,-61,-53,114,-34,-107,-58,-73,-78,-48
4,48,43,-26,-19,46,-9,-73,-39,-48,-63,-19
4,24,19,-14,-7,21,0,-63,-14,-34,-29,-4
4,-9,-14,2,9,-12,9,-53,9,-9,-14,19
19,-34,-53,7,36,-43,0,-43,14,9,0,29
29,24,-4,-26,17,9,-24,-58,0,-9,-19,9
34,87,53,-61,-9,70,-63,-82,-9,-24,-29,0
34,136,102,-85,-34,119,-82,-102,-29,-43,-39,-9
34,170,136,-102,-51,153,-97,-117,-43,-53,-48,-19
34,97,63,-65,-14,80,-78,-107,-43,-34,-29,-4
43,58,14,-51,14,36,-68,-97,-43,-34,-29,9
48,9,-39,-29,43,-14,-63,-102,-43,-29,-19,24
53,-9,-63,-21,58,-36,-63,-102,-48,-39,-29,29
43,29,-14,-36,29,7,-82,-122,-78,-53,-43,9
43,73,29,-58,7,51,-107,-136,-97,-73,-63,-9
43,102,58,-73,-7,80,-131,-156,-126,-102,-92,-29
43,117,73,-80,-14,95,-151,-165,-136,-112,-107,-48
58,58,0,-58,29,29,-131,-151,-131,-102,-92,-29
58,9,-48,-34,53,-19,-97,-146,-131,-102,-82,-19
53,-43,-97,-4,75,-70,-82,-146,-107,-92,-82,-19
48,-68,-117,9,82,-92,-73,-141,-112,-82,-73,-9
43,-4,-48,-19,46,-26,-87,-156,-117,-87,-82,-19
39,39,0,-39,19,19,-97,-165,-126,-102,-92,-29
34,73,39,-53,-2,56,-97,-175,-141,-117,-102,-43
29,107,78,-68,-24,92,-102,-180,-156,-131,-112,-58
34,87,53,-61,-9,70,-73,-156,-131,-112,-92,-43
24,9,-14,-17,19,-2,-48,-136,-117,-97,-78,-29
14,-24,-39,4,26,-31,-24,-126,-97,-68,-53,-14
4,-92,-97,43,51,-95,-9,-107,-82,-68,-53,-4
-9,-39,-29,24,9,-34,-29,-126,-117,-102,-92,-43
-14,-9,4,12,-9,-2,-39,-136,-136,-117,-102,-58
-14,9,24,2,-19,17,-48,-161,-151,-131,-122,-82
-19,39,58,-9,-39,48,-58,-180,-161,-141,-136,-97
-29,14,43,7,-36,29,-39,-151,-146,-126,-126,-87
-29,-48,-19,39,-4,-34,-24,-141,-136,-122,-117,-73
-29,-87,-58,58,14,-73,-9,-136,-126,-117,-107,-63
-29,-146,-117,87,43,-131,19,-126,-117,-112,-97,-53
-29,-102,-73,65,21,-87,-4,-141,-131,-122,-112,-78
-29,-73,-43,51,7,-58,-14,-146,-146,-136,-126,-87
-24,-39,-14,31,-4,-26,-29,-161,-161,-151,-136,-102
-24,9,34,7,-29,21,-39,-165,-170,-156,-151,-107
-39,-19,19,29,-29,0,-29,-161,-161,-146,-122,-92
-39,-53,-14,46,-12,-34,-14,-156,-151,-122,-107,-73
-43,-92,-48,68,2,-70,-4,-146,-126,-117,-107,-68
-48,-126,-78,87,14,-102,9,-136,-117,-112,-107,-63
-39,-87,-48,63,4,-68,-4,-141,-131,-126,-126,-87
-34,-68,-34,51,0,-51,-9,-146,-141,-131,-131,-92
-29,-29,0,29,-14,-14,-14,-156,-151,-141,-136,-97
-29,-9,19,19,-24,4,-19,-165,-161,-146,-141,-102
-48,-34,14,41,-31,-9,-14,-156,-146,-146,-136,-97
-48,-39,9,43,-29,-14,-9,-151,-146,-141,-146,-102
-43,-73,-29,58,-7,-51,0,-146,-141,-136,-131,-97
-43,-87,-43,65,0,-65,4,-146,-136,-126,-122,-87
-34,-78,-43,56,4,-61,4,-156,-136,-131,-126,-92
-34,-92,-58,63,12,-75,0,-156,-141,-131,-126,-92
-34,-48,-14,41,-9,-31,-4,-156,-146,-146,-141,-102
-39,-24,14,31,-26,-4,-9,-156,-156,-146,-151,-102
-39,-19,19,29,-29,0,-4,-156,-151,-126,-131,-92
-39,-53,-14,46,-12,-34,-4,-151,-141,-126,-131,-87
-39,-68,-29,53,-4,-48,0,-151,-136,-126,-126,-87
-39,-78,-39,58,0,-58,0,-151,-131,-126,-126,-87
-48,-82,-34,65,-7,-58,4,-131,-131,-131,-126,-73
-48,-63,-14,56,-17,-39,4,-141,-131,-131,-126,-82
-48,-63,-14,56,-17,-39,-4,-146,-136,-131,-117,-82
-48,-48,0,48,-24,-24,-4,-151,-141,-131,-126,-82
-43,-29,14,36,-29,-7,-9,-151,-141,-131,-126,-82
-43,-43,0,43,-21,-21,-9,-151,-136,-136,-131,-87
-43,-53,-9,48,-17,-31,-9,-151,-136,-136,-131,-87
-43,-73,-29,58,-7,-51,-9,-146,-136,-131,-126,-82
-43,-78,-34,61,-4,-56,4,-136,-126,-122,-117,-73
-43,-82,-39,63,-2,-61,4,-136,-126,-122,-117,-78
-48,-87,-39,68,-4,-63,14,-131,-126,-131,-136,-87
-53,-92,-39,73,-7,-65,14,-131,-131,-141,-141,-107
-53,29,82,12,-68,56,-24,-170,-180,-190,-185,-161
-63,-9,53,36,-58,21,9,-161,-156,-170,-185,-161
-87,-73,14,80,-51,-29,48,-141,-117,-131,-161,-141
-107,-156,-48,131,-29,-102,82,-122,-87,-112,-141,-131
-131,-195,-63,163,-34,-129,102,-122,-68,-92,-122,-112
-141,-175,-34,158,-53,-104,92,-146,-68,-92,-131,-107
-131,-97,34,114,-82,-31,53,-180,-107,-117,-146,-136
-122,0,122,61,-122,61,9,-224,-156,-161,-185,-170
-131,58,190,36,-161,124,-14,-273,-190,-195,-204,-175
-107,53,161,26,-134,107,-34,-287,-204,-200,-195,-151
-53,-24,29,39,-41,2,-34,-263,-204,-190,-156,-97
-34,-117,-82,75,24,-100,-19,-234,-200,-170,-126,-43
-29,-170,-141,100,56,-156,-14,-224,-180,-151,-92,4
19,-141,-161,61,90,-151,-48,-239,-190,-141,-58,53
78,-29,-107,-24,92,-68,-126,-278,-195,-122,0,112
156,126,-29,-141,92,48,-224,-346,-214,-112,63,195
263,258,-4,-261,134,126,-351,-395,-263,-102,141,317
400,341,-58,-370,229,141,-463,-414,-297,-58,253,478
522,351,-170,-436,346,90,-541,-419,-297,-9,390,649
644,287,-356,-466,500,-34,-629,-419,-326,9,497,805
790,234,-556,-512,673,-161,-712,-429,-390,0,580,966
917,312,-605,-614,761,-146,-795,-439,-419,24,688,1122
1000,507,-492,-753,746,7,-893,-473,-424,63,775,1254
1063,663,-400,-863,732,131,-980,-561,-483,29,766,1273
1122,722,-400,-922,761,161,-1039,-653,-585,-78,678,1234
1151,692,-458,-922,805,117,-1058,-722,-668,-170,595,1176
1122,536,-585,-829,854,-24,-1015,-771,-722,-273,405,976
1034,229,-805,-631,919,-287,-907,-800,-805,-439,78,610
902,-78,-980,-412,941,-529,-795,-858,-878,-600,-234,258
771,-209,-980,-280,875,-595,-746,-966,-951,-712,-419,58
634,-224,-858,-204,746,-541,-712,-1132,-1054,-844,-580,-97
468,-117,-585,-175,527,-351,-658,-1278,-1102,-946,-732,-258
317,68,-248,-192,283,-90,-566,-1312,-1044,-936,-795,-336
214,229,14,-222,100,122,-478,-1259,-951,-888,-775,-336
146,258,112,-202,17,185,-390,-1176,-878,-834,-741,-326
97,136,39,-117,29,87,-278,-1058,-785,-775,-717,-331
34,-24,-58,-4,46,-41,-151,-902,-678,-702,-663,-317
-9,-117,-107,63,48,-112,-48,-761,-590,-634,-610,-297
-53,-136,-82,95,14,-109,29,-683,-556,-610,-595,-307
-97,-117,-19,107,-39,-68,87,-605,-507,-590,-595,-341
-131,-58,73,95,-102,7,107,-561,-468,-580,-585,-380
-131,4,136,63,-134,70,92,-522,-453,-566,-575,-400
-131,29,161,51,-146,95,87,-473,-434,-527,-536,-385
-126,-19,107,73,-117,43,107,-395,-380,-468,-478,-341
-141,-107,34,124,-87,-36,136,-302,-307,-375,-400,-283
-151,-175,-24,163,-63,-100,175,-200,-219,-278,-312,-229
-146,-175,-29,161,-58,-102,195,-117,-151,-204,-248,-195
-131,-136,-4,134,-63,-70,175,-73,-117,-165,-204,-180
-122,-53,68,87,-95,7,151,-53,-87,-151,-200,-190
-102,34,136,34,-119,85,122,-39,-68,-131,-190,-200
-97,63,161,17,-129,112,107,-14,-34,-107,-161,-185
-97,34,131,31,-114,82,117,4,-4,-73,-126,-151
-87,-43,43,65,-65,0,136,43,24,-24,-92,-112
-78,-146,-68,112,-4,-107,151,82,58,4,-48,-78
-87,-141,-53,114,-17,-97,141,87,63,24,-48,-78
-82,-151,-68,117,-7,-109,136,102,63,19,-34,-63
-78,-122,-43,100,-17,-82,131,97,58,9,-48,-78
-73,-97,-24,85,-24,-61,112,82,48,4,-58,-92
-73,-78,-4,75,-34,-41,102,73,39,0,-68,-97
-68,-43,24,56,-46,-9,97,73,39,-4,-63,-92
-68,-4,63,36,-65,29,92,97,39,4,-48,-92
-68,-29,39,48,-53,4,87,102,58,4,-43,-92
-78,-53,24,65,-51,-14,102,117,68,14,-39,-78
-68,-87,-19,78,-24,-53,117,131,82,34,-19,-68
-68,-97,-29,82,-19,-63,112,136,78,43,-14,-58
-68,-122,-53,95,-7,-87,117,141,82,53,-9,-43
-58,-87,-29,73,-14,-58,97,122,78,43,-19,-63
-58,-39,19,48,-39,-9,82,107,68,34,-29,-73
-58,-29,29,43,-43,0,73,117,63,29,-39,-82
-58,-9,48,34,-53,19,73,122,73,24,-34,-87
-48,-58,-9,53,-19,-34,87,131,87,48,-9,-68
-58,-92,-34,75,-12,-63,102,151,97,68,0,-53
-58,-122,-63,90,2,-92,117,161,107,63,9,-43
-53,-151,-97,102,21,-124,131,170,117,68,19,-39
-58,-87,-29,73,-14,-58,107,151,112,48,0,-58
-58,-58,0,58,-29,-29,92,141,102,39,-9,-68
-58,-29,29,43,-43,0,82,141,92,39,-4,-68
-58,29,87,14,-73,58,68,146,92,43,-9,-73
-68,-39,29,53,-48,-4,92,165,122,58,4,-58
-68,-73,-4,70,-31,-39,102,185,131,78,19,-43
-63,-122,-58,92,-2,-90,117,204,146,92,43,-29
-63,-136,-73,100,4,-104,136,204,156,102,48,-14
-58,-82,-24,70,-17,-53,102,185,136,82,29,-39
-58,-48,9,53,-34,-19,87,180,126,78,19,-63
-58,-4,53,31,-56,24,78,170,122,78,14,-68
-53,14,68,19,-61,41,73,175,117,73,14,-73
-58,-43,14,51,-36,-14,97,195,131,87,34,-58
-68,-82,-14,75,-26,-48,107,209,151,102,43,-39
-73,-126,-53,100,-9,-90,126,234,175,126,73,-24
-73,-146,-73,109,0,-109,126,244,190,146,82,-9
-63,-97,-34,80,-14,-65,107,224,170,126,63,-29
-63,-48,14,56,-39,-17,97,214,165,126,53,-39
-63,-4,58,34,-61,26,87,204,156,117,43,-48
-58,9,68,24,-63,39,78,204,156,107,39,-58
-58,-24,34,41,-46,4,92,234,165,117,48,-39
-58,-58,0,58,-29,-29,112,248,190,141,68,-24
-58,-126,-68,92,4,-97,126,263,204,165,87,4
-58,-141,-82,100,12,-112,141,287,214,175,102,19
-48,-92,-43,70,-2,-68,126,268,195,165,97,-4
-48,-34,14,41,-31,-9,112,263,190,156,87,-14
-43,0,43,21,-43,21,97,258,180,151,73,-24
-43,29,73,7,-58,51,82,248,170,151,63,-34
-48,-14,34,31,-41,9,97,278,200,151,82,-4
-48,-58,-9,53,-19,-34,112,292,219,180,112,14
-48,-112,-63,80,7,-87,131,312,239,214,131,24
-48,-122,-73,85,12,-97,146,331,253,229,156,34
-53,-73,-19,63,-17,-46,126,326,248,209,136,24
-48,-29,19,39,-34,-4,117,317,234,209,131,14
-48,-4,43,26,-46,19,107,317,224,200,122,-4
-53,53,107,0,-80,80,97,312,209,190,112,-14
-43,-4,39,24,-41,17,107,336,229,229,131,14
-43,-43,0,43,-21,-21,122,346,253,234,151,29
-43,-73,-29,58,-7,-51,136,375,268,258,170,39
-43,-126,-82,85,19,-104,161,395,283,268,190,53
-34,-63,-29,48,-2,-46,136,380,268,253,175,39
-29,-34,-4,31,-12,-19,126,380,263,248,170,34
-29,4,34,12,-31,19,117,390,263,244,165,29
-24,58,82,-17,-53,70,107,385,258,244,161,24
-29,-9,19,19,-24,4,117,424,287,278,195,48
-29,-24,4,26,-17,-9,136,429,302,287,200,58
-29,-53,-24,41,-2,-39,146,444,312,302,214,68
-29,-112,-82,70,26,-97,161,468,336,331,239,92
-29,-58,-29,43,0,-43,146,468,326,326,234,78
-29,-34,-4,31,-12,-19,141,473,331,322,229,73
-29,19,48,4,-39,34,136,478,331,317,224,68
-24,73,97,-24,-61,85,122,478,326,312,219,68
-24,4,29,9,-26,17,136,507,341,341,244,73
-29,-4,24,17,-26,9,146,517,366,361,253,87
-34,-29,4,31,-19,-12,151,527,380,375,268,92
-39,-48,-9,43,-14,-29,165,551,405,395,287,107
-34,-34,0,34,-17,-17,165,556,405,390,287,97
-29,-9,19,19,-24,4,161,561,414,390,283,97
-24,34,58,-4,-41,46,156,566,419,395,283,97
-14,73,87,-29,-51,80,146,585,419,395,287,102
-14,43,58,-14,-36,51,151,600,434,409,292,112
-14,19,34,-2,-24,26,165,619,444,429,302,126
-14,4,19,4,-17,12,175,624,458,444,312,126
-9,0,9,4,-9,4,180,644,473,448,317,126
-9,-48,-39,29,14,-43,200,658,492,468,336,126
-14,9,24,2,-19,17,185,663,497,468,336,126
-14,19,34,-2,-24,26,185,663,502,473,336,136
-14,48,63,-17,-39,56,180,692,502,473,341,136
-14,82,97,-34,-56,90,161,697,502,473,341,126
-14,34,48,-9,-31,41,185,697,517,502,351,141
-9,39,48,-14,-29,43,190,697,527,507,356,141
-9,19,29,-4,-19,24,190,702,541,512,356,136
-14,9,24,2,-19,17,200,722,556,522,375,141
-14,9,24,2,-19,17,214,741,570,527,380,146
-19,29,48,-4,-34,39,204,746,570,531,380,151
-19,34,53,-7,-36,43,209,756,570,536,375,151
-19,48,68,-14,-43,58,209,766,566,522,366,136
-19,53,73,-17,-46,63,204,766,575,541,375,146
-19,63,82,-21,-51,73,204,761,575,546,380,146
-29,53,82,-12,-56,68,200,741,590,546,385,141
-9,43,53,-17,-31,48,214,766,595,561,390,151
-9,14,24,-2,-17,19,219,785,610,566,395,156
-9,58,68,-24,-39,63,224,785,614,561,400,161
-9,29,39,-9,-24,34,229,795,634,575,409,165
-9,78,87,-34,-48,82,224,805,614,561,395,146
-9,92,102,-41,-56,97,204,795,605,546,385,141
-9,78,87,-34,-48,82,209,771,600,541,380,141
-9,82,92,-36,-51,87,204,751,595,551,380,146
-19,53,73,-17,-46,63,219,761,605,566,395,161
-19,24,43,-2,-31,34,224,761,614,585,414,165
-19,39,58,-9,-39,48,224,756,614,570,405,170
-19,34,53,-7,-36,43,224,756,614,561,405,165
-9,73,82,-31,-46,78,204,732,585,527,385,146
-9,122,131,-56,-70,126,185,712,570,517,370,136
-9,112,122,-51,-65,117,175,688,561,512,361,131
-9,136,146,-63,-78,141,165,634,541,488,341,122
-14,102,117,-43,-65,109,170,639,531,492,356,141
-19,73,92,-26,-56,82,180,614,541,497,361,146
-24,48,73,-12,-48,61,180,614,527,502,361,156
-29,39,68,-4,-48,53,185,600,522,478,346,165
-19,87,107,-34,-63,97,170,575,488,453,322,146
-14,131,146,-58,-80,139,141,541,458,424,307,122
-9,131,141,-61,-75,136,117,497,444,395,283,112
-4,161,165,-78,-85,163,102,458,419,380,268,112
-9,107,117,-48,-63,112,107,453,409,366,263,136
-9,73,82,-31,-46,78,117,424,400,361,268,131
-9,43,53,-17,-31,48,126,395,390,356,273,126
-19,14,34,2,-26,24,131,375,370,346,273,141
-9,68,78,-29,-43,73,102,351,326,317,244,112
-9,107,117,-48,-63,112,73,317,292,283,219,92
-9,146,156,-68,-82,151,48,273,268,239,185,82
-9,146,156,-68,-82,151,34,239,248,219,170,73
-9,82,92,-36,-51,87,48,234,239,214,156,102
-4,53,58,-24,-31,56,58,219,224,204,156,97
-4,-4,0,4,-2,-2,68,204,219,209,165,97
-4,-4,0,4,-2,-2,68,195,185,195,151,102
0,34,34,-17,-17,34,43,156,151,156,122,82
0,92,92,-46,-46,92,19,136,122,141,102,68
-4,122,126,-58,-65,124,-9,92,107,102,78,48
-4,131,136,-63,-70,134,-24,73,97,82,63,39
4,73,68,-39,-31,70,-9,73,107,92,68,68
9,29,19,-19,-4,24,4,63,78,78,78,68
9,-19,-29,4,19,-24,24,68,82,87,73,78
9,-48,-58,19,34,-53,39,63,73,82,73,78
9,-4,-14,-2,12,-9,9,34,43,53,39,53
9,53,43,-31,-17,48,-14,19,14,29,24,39
9,92,82,-51,-36,87,-39,-9,0,4,4,19
4,107,102,-56,-48,104,-53,-24,-9,-9,-4,0
-4,48,53,-21,-29,51,-34,-14,0,0,14,19
-4,-19,-14,12,4,-17,-19,-4,4,9,19,29
0,-39,-39,19,19,-39,0,0,4,14,24,39
0,-68,-68,34,34,-68,29,4,9,19,34,48
4,-24,-29,9,17,-26,-9,-14,-14,-9,4,34
9,9,0,-9,4,4,-24,-29,-29,-24,-14,14
14,39,24,-26,-4,31,-43,-48,-43,-43,-29,0
19,87,68,-53,-24,78,-53,-58,-48,-58,-43,-9
14,29,14,-21,0,21,-34,-43,-29,-48,-29,0
9,-24,-34,7,21,-29,-19,-34,-9,-34,-14,14
9,-48,-58,19,34,-53,-4,-29,-24,-24,-9,24
4,-78,-82,36,43,-80,4,-24,-24,-14,-4,29
9,-48,-58,19,34,-53,-9,-43,-43,-39,-34,9
9,-14,-24,2,17,-19,-24,-48,-48,-43,-39,-4
9,29,19,-19,-4,24,-34,-63,-53,-63,-53,-14
9,92,82,-51,-36,87,-43,-68,-58,-68,-58,-19
9,43,34,-26,-12,39,-34,-53,-53,-48,-48,-9
9,-4,-14,-2,12,-9,-19,-43,-34,-34,-34,0
9,-39,-48,14,29,-43,-9,-39,-29,-29,-29,4
9,-73,-82,31,46,-78,4,-29,-29,-19,-24,24
9,-39,-48,14,29,-43,-4,-43,-34,-24,-39,9
9,-14,-24,2,17,-19,-14,-53,-39,-34,-43,0
9,19,9,-14,0,14,-29,-63,-53,-43,-53,-14
9,48,39,-29,-14,43,-43,-68,-58,-63,-63,-19
-4,24,29,-9,-17,26,-29,-63,-48,-43,-43,-14
-4,4,9,0,-7,7,-19,-58,-34,-39,-34,-4
-4,-34,-29,19,12,-31,-9,-48,-19,-19,-34,19
-9,-48,-39,29,14,-43,-4,-43,-39,-29,-24,14
0,-29,-29,14,14,-29,-4,-43,-39,-34,-29,4
4,-19,-24,7,14,-21,-9,-48,-39,-39,-39,-4
4,4,0,-4,2,2,-19,-58,-53,-43,-48,-9
0,29,29,-14,-14,29,-29,-68,-53,-58,-58,-24
-4,34,39,-14,-21,36,-29,-68,-53,-48,-53,-14
-9,9,19,0,-14,14,-24,-68,-48,-43,-53,-14
-9,-9,0,9,-4,-4,-19,-63,-39,-43,-43,-9
-9,-19,-9,14,0,-14,-19,-63,-39,-43,-43,-9
-19,-39,-19,29,0,-29,14,-48,-29,-39,-39,-14
-19,-24,-4,21,-7,-14,-4,-58,-34,-39,-39,-14
-19,-4,14,12,-17,4,-14,-63,-39,-29,-39,-14
-19,9,29,4,-24,19,-14,-73,-43,-43,-48,-19
-9,43,53,-17,-31,48,-24,-73,-53,-43,-48,-24
-9,24,34,-7,-21,29,-24,-68,-48,-43,-48,-24
-9,4,14,2,-12,9,-14,-68,-39,-43,-48,-24
-14,-9,4,12,-9,-2,-14,-63,-39,-43,-43,-24
-24,-29,-4,26,-9,-17,-9,-48,-29,-24,-34,-19
-24,-34,-9,29,-7,-21,-4,-48,-29,-24,-34,-14
-24,-29,-4,26,-9,-17,0,-53,-29,-34,-39,-9
-29,-9,19,19,-24,4,0,-58,-39,-34,-39,-14
-19,9,29,4,-24,19,-4,-68,-43,-43,-53,-19
-19,19,39,0,-29,29,-9,-73,-43,-48,-58,-24
-19,9,29,4,-24,19,-9,-78,-43,-48,-58,-29
-24,-19,4,21,-14,-7,-4,-82,-34,-48,-58,-29
-24,-24,0,24,-12,-12,4,-78,-24,-43,-43,-19
-24,-34,-9,29,-7,-21,4,-68,-24,-39,-39,-14
-24,-43,-19,34,-2,-31,4,-63,-29,-34,-43,-19
-24,-29,-4,26,-9,-17,-4,-63,-34,-34,-39,-24
-34,4,39,14,-36,21,-9,-68,-43,-53,-63,-39
-34,48,82,-7,-58,65,-19,-82,-48,-58,-78,-43
-34,34,68,0,-51,51,-24,-87,-48,-63,-68,-48
-39,19,58,9,-48,39,-19,-87,-53,-58,-73,-48
-39,-14,24,26,-31,4,-9,-78,-39,-48,-63,-39
-39,-48,-9,43,-14,-29,4,-68,-34,-39,-53,-29
-39,-58,-19,48,-9,-39,14,-58,-34,-34,-53,-24
-29,-58,-29,43,0,-43,19,-53,-34,-29,-43,-14
-39,-9,29,24,-34,9,-4,-78,-53,-43,-58,-34
-34,39,73,-2,-53,56,-24,-87,-63,-58,-68,-48
-29,39,68,-4,-48,53,-24,-97,-73,-68,-78,-58
-29,48,78,-9,-53,63,-29,-107,-68,-73,-82,-68
-29,-9,19,19,-24,4,-9,-97,-53,-63,-68,-48
-29,-39,-9,34,-9,-24,4,-87,-48,-53,-63,-29
-29,-58,-29,43,0,-43,14,-78,-48,-43,-68,-29
-24,-87,-63,56,19,-75,14,-73,-53,-39,-63,-24
-29,-19,9,24,-19,-4,-4,-97,-73,-53,-92,-34
-34,14,48,9,-41,31,-19,-107,-87,-73,-97,-48
-39,39,78,0,-58,58,-29,-112,-82,-82,-102,-68
-43,43,87,0,-65,65,-29,-117,-87,-92,-107,-68
-43,-34,9,39,-26,-12,-14,-97,-68,-68,-87,-43
-43,-53,-9,48,-17,-31,0,-87,-58,-58,-78,-34
-34,-82,-48,58,7,-65,19,-68,-48,-48,-68,-29
-34,-102,-68,68,17,-85,34,-58,-43,-43,-68,-19
-34,-58,-24,46,-4,-41,9,-82,-68,-58,-78,-39
-34,0,34,17,-34,17,-9,-107,-87,-87,-102,-53
-34,43,78,-4,-56,61,-24,-122,-97,-102,-112,-68
-34,39,73,-2,-53,56,-34,-131,-102,-117,-122,-78
-34,-24,9,29,-21,-7,-14,-107,-92,-87,-102,-53
-34,-53,-19,43,-7,-36,0,-92,-82,-78,-92,-43
-34,-92,-58,63,12,-75,14,-82,-63,-68,-82,-34
-34,-112,-78,73,21,-95,24,-78,-68,-58,-78,-34
-43,-68,-24,56,-9,-46,4,-92,-87,-82,-97,-53
-43,0,43,21,-43,21,-9,-112,-107,-97,-117,-73
-43,48,92,-2,-68,70,-39,-131,-117,-117,-131,-82
-43,39,82,2,-63,61,-43,-146,-122,-126,-141,-92
-34,-14,19,24,-26,2,-19,-126,-97,-102,-117,-68
-34,-58,-24,46,-4,-41,0,-112,-87,-87,-107,-58
-34,-112,-78,73,21,-95,9,-97,-78,-78,-97,-43
-34,-126,-92,80,29,-109,19,-87,-73,-68,-92,-34
-34,-78,-43,56,4,-61,-9,-117,-87,-92,-107,-58
-34,-14,19,24,-26,2,-24,-136,-102,-107,-122,-68
-34,39,73,-2,-53,56,-34,-146,-117,-131,-141,-78
-34,48,82,-7,-58,65,-43,-161,-126,-141,-151,-97
-34,4,39,14,-36,21,-24,-141,-107,-117,-122,-78
-29,-58,-29,43,0,-43,-9,-126,-97,-97,-112,-53
-29,-87,-58,58,14,-73,4,-112,-82,-87,-102,-43
-34,-117,-82,75,24,-100,14,-102,-73,-78,-97,-34
-34,-87,-53,61,9,-70,-4,-112,-82,-92,-122,-43
-34,-39,-4,36,-14,-21,-24,-122,-92,-107,-126,-63
-34,9,43,12,-39,26,-34,-141,-107,-126,-131,-73
-29,48,78,-9,-53,63,-43,-156,-117,-136,-136,-92
-29,-14,14,21,-21,0,-24,-146,-107,-126,-131,-82
-29,-63,-34,46,2,-48,-9,-131,-97,-112,-117,-63
-29,-82,-53,56,12,-68,0,-117,-82,-92,-112,-43
-34,-122,-87,78,26,-104,9,-102,-73,-82,-97,-34
-34,-82,-48,58,7,-65,0,-122,-82,-92,-107,-43
-34,-48,-14,41,-9,-31,-14,-136,-97,-107,-122,-58
-29,9,39,9,-34,24,-29,-156,-117,-122,-136,-78
-29,68,97,-19,-63,82,-43,-165,-126,-131,-151,-97
-29,-9,19,19,-24,4,-39,-146,-107,-126,-136,-73
-29,-48,-19,39,-4,-34,-19,-141,-102,-117,-117,-68
-29,-73,-43,51,7,-58,-14,-136,-97,-112,-112,-58
-24,-131,-107,78,41,-119,4,-126,-97,-102,-107,-43
-24,-78,-53,51,14,-65,-9,-141,-107,-107,-117,-53
-24,-43,-19,34,-2,-31,-24,-146,-112,-117,-126,-53
-24,-9,14,17,-19,2,-34,-146,-117,-126,-131,-73
-24,19,43,2,-34,31,-39,-151,-126,-136,-136,-87
-24,4,29,9,-26,17,-24,-146,-112,-126,-131,-73
-19,-19,0,19,-9,-9,-9,-141,-97,-122,-122,-63
-14,-43,-29,29,7,-36,-4,-136,-92,-107,-112,-39
-14,-63,-48,39,17,-56,0,-122,-82,-97,-97,-43
-19,-39,-19,29,0,-29,-9,-117,-68,-82,-87,-43
-19,-14,4,17,-12,-4,-9,-112,-68,-78,-87,-34
-29,19,48,4,-39,34,-9,-112,-68,-78,-87,-24
-19,53,73,-17,-46,63,-19,-112,-78,-87,-92,-39
0,131,131,-65,-65,131,-43,-146,-87,-107,-112,-58
-9,63,73,-26,-41,68,-14,-117,-58,-78,-87,-39
0,-19,-19,9,9,-19,19,-87,-19,-39,-48,9
9,-29,-39,9,24,-34,19,-82,-19,-29,-48,9
9,-29,-39,9,24,-34,19,-78,-19,-29,-48,9
9,-29,-39,9,24,-34,19,-73,-19,-29,-48,9
9,-29,-39,9,24,-34,19,-68,-19,-29,-48,9
4,4,0,-4,2,2,0,-73,-34,-43,-63,-9
0,39,39,-19,-19,39,-9,-87,-39,-48,-68,-14
-4,68,73,-31,-39,70,-14,-92,-34,-53,-73,-19
-4,107,112,-51,-58,109,-24,-97,-39,-53,-68,-19
4,58,53,-31,-24,56,-9,-68,-24,-34,-53,4
4,43,39,-24,-17,41,0,-63,-4,-24,-29,14
4,19,14,-12,-4,17,9,-58,14,-4,-24,34
19,4,-14,-12,17,-4,0,-53,14,9,-19,39
39,48,9,-43,14,29,-29,-73,-4,-9,-29,29
43,107,63,-75,-9,85,-63,-92,-9,-24,-39,19
43,151,107,-97,-31,129,-78,-107,-24,-43,-48,9
43,180,136,-112,-46,158,-87,-117,-34,-53,-58,0
34,102,68,-68,-17,85,-78,-107,-34,-34,-39,19
43,58,14,-51,14,36,-68,-97,-34,-34,-39,29
48,4,-43,-26,46,-19,-63,-102,-34,-29,-29,39
53,-19,-73,-17,63,-46,-63,-102,-39,-39,-39,39
63,19,-43,-41,53,-12,-82,-131,-63,-58,-53,19
63,63,0,-63,31,31,-107,-146,-87,-82,-73,0
63,92,29,-78,17,61,-131,-165,-122,-117,-102,-19
63,107,43,-85,9,75,-151,-175,-136,-131,-117,-39
58,48,-9,-53,34,19,-141,-165,-122,-112,-102,-24
58,0,-58,-29,58,-29,-107,-156,-122,-112,-92,-9
53,-53,-107,0,80,-80,-92,-151,-97,-102,-92,-4
48,-78,-126,14,87,-102,-82,-141,-102,-92,-82,9
48,-9,-58,-19,53,-34,-92,-151,-117,-97,-87,-9
48,39,-9,-43,29,14,-107,-165,-126,-112,-102,-19
48,78,29,-63,9,53,-112,-180,-141,-126,-117,-34
48,117,68,-82,-9,92,-122,-190,-156,-141,-131,-48
34,82,48,-58,-7,65,-97,-165,-131,-117,-107,-34
24,0,-24,-12,24,-12,-68,-146,-117,-107,-97,-19
14,-39,-53,12,34,-46,-39,-136,-97,-82,-78,-4
4,-112,-117,53,61,-114,-19,-117,-82,-87,-82,4
-9,-58,-48,34,19,-53,-39,-136,-107,-112,-112,-34
-14,-19,-4,17,-4,-12,-48,-146,-126,-126,-122,-48
-14,9,24,2,-19,17,-58,-170,-141,-141,-141,-73
-19,48,68,-14,-43,58,-68,-190,-151,-151,-156,-87
-29,19,48,4,-39,34,-53,-165,-136,-141,-146,-68
-29,-48,-19,39,-4,-34,-34,-151,-126,-131,-136,-53
-29,-92,-63,61,17,-78,-14,-141,-117,-122,-126,-43
-29,-156,-126,92,48,-141,19,-126,-107,-112,-117,-34
-39,-107,-68,73,14,-87,-14,-146,-131,-126,-141,-53
-39,-73,-34,56,-2,-53,-24,-156,-146,-146,-156,-68
-34,-34,0,34,-17,-17,-39,-175,-161,-165,-165,-87
-34,19,53,7,-43,36,-48,-185,-170,-175,-180,-97
-39,-19,19,29,-29,0,-39,-165,-161,-156,-156,-82
-39,-63,-24,51,-7,-43,-24,-156,-151,-131,-136,-63
-43,-112,-68,78,12,-90,-14,-141,-126,-126,-131,-58
-48,-156,-107,102,29,-131,0,-126,-117,-122,-126,-53
-58,-112,-53,85,-2,-82,-9,-136,-131,-136,-146,-78
-53,-87,-34,70,-9,-61,-19,-146,-141,-141,-151,-82
-48,-43,4,46,-26,-19,-29,-161,-151,-151,-156,-87
-48,-19,29,34,-39,4,-39,-175,-161,-156,-161,-92
-48,-53,-4,51,-21,-29,-29,-170,-151,-146,-146,-82
-48,-68,-19,58,-14,-43,-19,-161,-146,-141,-156,-82
-43,-112,-68,78,12,-90,-4,-151,-136,-136,-141,-73
-43,-136,-92,90,24,-114,4,-146,-126,-126,-131,-58
-43,-117,-73,80,14,-95,-4,-151,-136,-136,-141,-68
-43,-122,-78,82,17,-100,-9,-156,-141,-141,-146,-73
-43,-68,-24,56,-9,-46,-14,-161,-146,-161,-165,-87
-48,-34,14,41,-31,-9,-19,-165,-156,-165,-180,-92
-39,-43,-4,41,-17,-24,-19,-156,-151,-151,-156,-87
-39,-82,-43,61,2,-63,-14,-151,-141,-146,-151,-78
-39,-102,-63,70,12,-82,-4,-151,-136,-141,-141,-73
-39,-117,-78,78,19,-97,0,-151,-131,-136,-136,-68
-43,-117,-73,80,14,-95,9,-141,-131,-141,-146,-58
-48,-92,-43,70,-2,-68,4,-151,-131,-141,-146,-73
-53,-87,-34,70,-9,-61,-9,-156,-136,-141,-136,-78
-58,-68,-9,63,-24,-39,-14,-161,-141,-141,-146,-82
-63,-63,0,63,-31,-31,-14,-151,-131,-131,-136,-78
-63,-82,-19,73,-21,-51,-9,-151,-126,-136,-141,-78
-63,-97,-34,80,-14,-65,-4,-151,-126,-136,-141,-73
-63,-122,-58,92,-2,-90,0,-146,-126,-131,-136,-63
-58,-107,-48,82,-4,-78,-4,-146,-136,-122,-136,-53
-53,-102,-48,78,-2,-75,-4,-146,-136,-122,-136,-58
-53,-97,-43,75,-4,-70,4,-141,-136,-131,-156,-68
-53,-92,-39,73,-7,-65,4,-141,-141,-141,-161,-87
-63,0,63,31,-63,31,-24,-170,-170,-180,-195,-141
-63,-58,4,61,-34,-26,0,-161,-156,-170,-195,-131
-68,-141,-73,104,2,-107,39,-131,-126,-131,-170,-112
-107,-214,-107,161,0,-161,82,-112,-87,-102,-151,-92
-122,-224,-102,173,-9,-163,92,-122,-87,-102,-151,-92
-131,-165,-34,148,-48,-100,73,-156,-107,-112,-170,-117
-131,-68,63,100,-97,-2,34,-200,-136,-146,-185,-136
-141,9,151,65,-146,80,0,-234,-165,-180,-204,-151
-131,29,161,51,-146,95,-24,-283,-200,-204,-224,-175
-117,-4,112,61,-114,53,-34,-307,-214,-209,-224,-151
-92,-82,9,87,-51,-36,-14,-273,-204,-180,-185,-87
-63,-165,-102,114,19,-134,0,-244,-190,-161,-146,-34
-39,-209,-170,124,65,-190,-4,-244,-200,-161,-141,-4
-9,-170,-161,90,75,-165,-48,-268,-219,-170,-126,14
39,-48,-87,4,63,-68,-117,-317,-234,-170,-97,53
107,97,-9,-102,58,43,-204,-366,-253,-161,-53,117
204,209,4,-207,100,107,-322,-434,-283,-151,24,219
331,273,-58,-302,195,107,-434,-463,-317,-136,117,361
473,263,-209,-368,341,26,-522,-458,-326,-87,234,522
605,209,-395,-407,500,-92,-590,-458,-346,-58,341,668
741,165,-575,-453,658,-204,-683,-478,-419,-78,405,790
878,224,-653,-551,766,-214,-785,-497,-488,-102,463,907
990,409,-580,-700,785,-85,-893,-531,-512,-73,551,1039
1054,605,-448,-829,751,78,-990,-610,-531,-68,590,1117
1102,683,-419,-893,761,131,-1049,-702,-614,-146,531,1098
1161,624,-536,-893,849,43,-1068,-771,-717,-239,448,1058
1151,478,-673,-814,912,-97,-1034,-819,-771,-322,336,946
1063,190,-873,-627,968,-341,-936,-858,-834,-448,78,649
941,-117,-1058,-412,1000,-588,-834,-907,-907,-629,-263,258
819,-287,-1107,-265,963,-697,-766,-1005,-1000,-780,-507,-29
712,-283,-995,-214,854,-639,-761,-1171,-1102,-912,-678,-195
556,-185,-741,-185,649,-463,-736,-1366,-1200,-1034,-829,-336
375,-39,-414,-168,395,-226,-653,-1459,-1171,-1063,-922,-444
244,112,-131,-178,187,-9,-546,-1405,-1078,-995,-902,-444
156,161,4,-158,75,82,-439,-1302,-946,-902,-829,-395
117,78,-39,-97,78,19,-317,-1166,-834,-814,-766,-361
63,-92,-156,14,109,-124,-180,-1000,-727,-741,-722,-336
19,-204,-224,92,122,-214,-68,-849,-639,-692,-678,-336
-24,-204,-180,114,78,-192,0,-761,-595,-658,-653,-346
-68,-146,-78,107,4,-112,48,-683,-546,-629,-644,-370
-112,-68,43,90,-78,-12,78,-619,-507,-610,-644,-400
-122,-4,117,63,-119,56,92,-570,-473,-585,-624,-419
-122,0,122,61,-122,61,97,-512,-444,-536,-575,-395
-117,-78,39,97,-78,-19,117,-424,-390,-468,-507,-341
-131,-165,-34,148,-48,-100,146,-331,-317,-385,-419,-273
-141,-224,-82,183,-29,-153,185,-239,-229,-297,-341,-219
-156,-214,-58,185,-48,-136,185,-156,-170,-224,-278,-185
-141,-146,-4,143,-68,-75,165,-112,-136,-185,-244,-180
-112,-53,58,82,-85,2,131,-102,-126,-180,-239,-200
-102,24,126,39,-114,75,112,-78,-97,-161,-229,-190
-107,53,161,26,-134,107,107,-43,-63,-117,-190,-175
-107,4,112,51,-109,58,117,4,-24,-73,-146,-141
-97,-102,-4,100,-46,-53,146,43,14,-34,-102,-102
-78,-185,-107,131,14,-146,161,82,58,4,-68,-58
-78,-170,-92,124,7,-131,141,87,68,14,-68,-68
-73,-170,-97,122,12,-134,136,102,63,9,-53,-53
-68,-131,-63,100,-2,-97,131,97,53,0,-68,-68
-63,-97,-34,80,-14,-65,112,82,39,-4,-78,-82
-63,-87,-24,75,-19,-56,102,73,29,-9,-87,-87
-58,-63,-4,61,-26,-34,97,73,29,-14,-82,-82
-58,-34,24,46,-41,-4,92,97,29,-4,-68,-82
-58,-68,-9,63,-24,-39,87,102,48,-4,-63,-82
-58,-82,-24,70,-17,-53,102,107,58,0,-58,-63
-48,-107,-58,78,4,-82,117,122,73,14,-39,-58
-48,-107,-58,78,4,-82,112,126,68,19,-34,-53
-48,-122,-73,85,12,-97,117,131,73,24,-29,-43
-58,-102,-43,80,-7,-73,102,122,68,19,-43,-58
-58,-58,0,58,-29,-29,92,107,58,14,-48,-63
-58,-53,4,56,-31,-24,87,117,53,14,-53,-68
-58,-39,19,48,-39,-9,92,122,63,14,-43,-68
-48,-73,-24,61,-12,-48,107,131,82,34,-29,-58
-58,-102,-43,80,-7,-73,112,151,87,58,-19,-43
-58,-126,-68,92,4,-97,117,161,92,58,-9,-34
-53,-151,-97,102,21,-124,122,170,97,68,0,-29
-48,-97,-48,73,0,-73,102,151,82,53,-14,-48
-48,-68,-19,58,-14,-43,92,141,73,39,-29,-58
-48,-39,9,43,-29,-14,87,141,63,34,-29,-58
-48,19,68,14,-58,43,78,146,63,34,-39,-63
-48,-58,-9,53,-19,-34,92,165,82,53,-19,-43
-48,-92,-43,70,-2,-68,102,185,92,68,-9,-34
-43,-141,-97,92,26,-119,117,204,107,78,9,-24
-43,-156,-112,100,34,-134,136,204,117,82,9,-14
-48,-107,-58,78,4,-82,102,195,102,73,-4,-24
-48,-68,-19,58,-14,-43,87,190,97,68,-9,-43
-48,-19,29,34,-39,4,78,180,97,68,-9,-43
-43,4,48,19,-46,26,73,185,97,63,-4,-43
-43,-48,-4,46,-19,-26,92,195,117,82,14,-24
-48,-82,-34,65,-7,-58,107,209,131,92,24,-9
-48,-122,-73,85,12,-97,131,234,151,112,53,0
-43,-136,-92,90,24,-114,136,244,161,126,63,9
-34,-78,-43,56,4,-61,112,234,146,107,48,-9
-34,-29,4,31,-19,-12,97,224,136,107,34,-19
-34,14,48,9,-41,31,82,214,122,97,19,-29
-29,29,58,0,-43,43,68,214,117,87,9,-39
-39,-19,19,29,-29,0,87,244,131,102,24,-19
-39,-58,-19,48,-9,-39,112,258,161,131,48,-4
-39,-131,-92,85,26,-112,131,273,180,161,73,24
-39,-151,-112,95,36,-131,151,297,195,175,92,39
-39,-102,-63,70,12,-82,126,287,175,151,82,19
-39,-43,-4,41,-17,-24,112,283,170,136,68,4
-34,-9,24,21,-29,7,97,278,161,126,48,-9
-34,19,53,7,-43,36,82,268,151,122,34,-24
-39,-19,19,29,-29,0,107,297,185,122,53,0
-39,-68,-29,53,-4,-48,122,312,200,151,82,24
-39,-126,-87,82,24,-107,141,331,214,185,102,39
-39,-141,-102,90,31,-122,156,351,224,200,126,53
-34,-87,-53,61,9,-70,131,336,219,180,107,39
-29,-39,-9,34,-9,-24,117,326,204,180,102,24
-29,-9,19,19,-24,4,102,326,195,170,92,0
-34,53,87,-9,-61,70,87,322,180,161,82,-14
-34,-4,29,19,-31,12,102,346,195,195,102,14
-34,-43,-9,39,-12,-26,122,356,224,204,122,29
-34,-73,-39,53,2,-56,141,385,244,234,141,39
-34,-126,-92,80,29,-109,170,405,263,248,161,53
-34,-63,-29,48,-2,-46,136,395,253,239,151,43
-29,-34,-4,31,-12,-19,126,390,244,229,141,34
-29,4,34,12,-31,19,117,395,239,219,131,24
-24,58,82,-17,-53,70,107,385,229,214,122,14
-19,-4,14,12,-17,4,126,419,253,248,161,48
-19,-24,-4,21,-7,-14,146,429,273,258,170,58
-19,-58,-39,39,9,-48,156,448,287,273,190,68
-19,-122,-102,70,41,-112,170,478,317,302,219,92
-29,-63,-34,46,2,-48,161,478,312,287,209,82
-29,-34,-4,31,-12,-19,151,483,312,283,200,73
-29,24,53,2,-41,39,141,488,307,278,190,63
-24,82,107,-29,-65,95,122,488,297,273,180,58
-9,14,24,-2,-17,19,146,517,322,312,200,73
-9,-4,4,7,-7,0,156,527,346,331,214,87
-9,-39,-29,24,9,-34,161,536,361,346,234,92
-9,-68,-58,39,24,-63,175,561,385,366,258,107
-9,-48,-39,29,14,-43,165,570,380,356,253,102
-9,-19,-9,14,0,-14,161,570,385,351,244,97
-9,29,39,-9,-24,34,156,570,385,351,239,92
-4,73,78,-34,-41,75,146,585,380,346,239,92
-4,34,39,-14,-21,36,161,610,395,366,258,107
-4,9,14,-2,-9,12,175,629,414,390,273,126
-4,-4,0,4,-2,-2,185,634,439,409,287,131
0,-9,-9,4,4,-9,190,653,463,419,297,136
-9,-43,-34,26,12,-39,200,668,468,434,302,131
-14,19,34,-2,-24,26,185,673,468,429,297,126
-14,34,48,-9,-31,41,185,673,468,429,292,131
-14,68,82,-26,-48,75,180,702,463,424,292,126
-4,82,87,-39,-46,85,170,707,483,424,302,117
-4,24,29,-9,-17,26,195,707,497,453,312,131
0,19,19,-9,-9,19,200,707,507,458,317,131
0,-9,-9,4,4,-9,200,712,522,463,317,126
-4,0,4,2,-4,2,204,722,527,483,336,131
-4,9,14,-2,-9,12,214,741,541,488,341,136
-9,39,48,-14,-29,43,200,746,541,492,341,141
-9,53,63,-21,-36,58,200,756,541,497,336,141
0,58,58,-29,-29,58,195,771,546,488,346,141
0,53,53,-26,-26,53,195,775,556,512,356,156
0,53,53,-26,-26,53,200,775,556,522,361,161
-9,34,43,-12,-26,39,200,761,570,527,366,161
-9,39,48,-14,-29,43,214,780,575,536,375,165
-9,14,24,-2,-17,19,219,795,590,536,375,165
-9,63,73,-26,-41,68,224,790,595,527,375,165
-9,39,48,-14,-29,43,229,795,614,536,380,165
0,82,82,-41,-41,82,214,800,595,527,366,146
0,92,92,-46,-46,92,195,795,585,517,356,141
0,73,73,-36,-36,73,200,775,580,517,351,141
0,73,73,-36,-36,73,195,761,575,531,351,146
-9,48,58,-19,-34,53,209,771,585,536,361,156
-9,24,34,-7,-21,29,214,771,595,556,385,165
-9,43,53,-17,-31,48,214,766,595,541,380,175
-9,43,53,-17,-31,48,214,766,595,531,385,175
-9,78,87,-34,-48,82,190,741,570,507,366,165
-9,122,131,-56,-70,126,175,732,561,497,351,156
-9,107,117,-48,-63,112,170,717,556,492,341,151
-9,126,136,-58,-73,131,165,673,541,468,322,141
-19,87,107,-34,-63,97,170,673,536,468,331,151
-19,63,82,-21,-51,73,180,644,541,478,341,156
-19,43,63,-12,-41,53,180,639,522,488,346,165
-19,39,58,-9,-39,48,185,619,512,468,336,175
-14,82,97,-34,-56,90,170,595,468,444,322,156
-14,122,136,-53,-75,129,141,561,439,414,307,131
-14,117,131,-51,-73,124,117,517,424,385,283,122
-14,141,156,-63,-85,148,102,478,400,370,268,122
0,92,92,-46,-46,92,102,468,385,361,263,136
0,63,63,-31,-31,63,107,434,370,351,258,131
0,39,39,-19,-19,39,112,400,356,341,253,126
-9,14,24,-2,-17,19,112,375,331,326,244,141
-9,68,78,-29,-43,73,78,351,292,302,219,122
-9,107,117,-48,-63,112,53,317,263,273,200,102
-9,146,156,-68,-82,151,34,273,244,234,170,92
-9,146,156,-68,-82,151,24,239,229,219,161,82
-9,78,87,-34,-48,82,39,234,229,214,156,112
-4,43,48,-19,-26,46,48,219,214,204,156,107
-4,-19,-14,12,4,-17,58,204,209,209,165,107
-4,-24,-19,14,7,-21,58,195,175,195,151,112
9,24,14,-17,-2,19,29,156,141,161,112,92
9,82,73,-46,-31,78,9,136,112,141,92,78
4,112,107,-58,-51,109,-14,92,97,97,68,58
4,122,117,-63,-56,119,-24,73,87,73,53,48
-4,58,63,-26,-34,61,-9,82,92,92,58,68
0,9,9,-4,-4,9,4,73,68,78,68,68
0,-43,-43,21,21,-43,24,78,78,87,63,78
0,-78,-78,39,39,-78,39,73,73,82,63,78
9,-34,-43,12,26,-39,19,34,34,43,24,43
9,24,14,-17,-2,19,-4,19,4,19,4,29
9,63,53,-36,-21,58,-29,-9,-9,-4,-19,9
4,78,73,-41,-34,75,-43,-24,-19,-19,-34,-9
4,29,24,-17,-9,26,-19,-9,0,-9,-14,19
4,-39,-43,17,24,-41,-9,-4,4,0,-9,29
9,-58,-68,24,39,-63,4,-4,4,4,-4,39
9,-87,-97,39,53,-92,29,-4,9,9,4,48
9,-39,-48,14,29,-43,-9,-24,-19,-19,-14,29
9,0,-9,-4,9,-4,-24,-39,-39,-34,-34,4
9,34,24,-21,-7,29,-43,-58,-58,-53,-48,-14
9,87,78,-48,-34,82,-53,-68,-68,-68,-63,-29
0,29,29,-14,-14,29,-34,-58,-43,-48,-53,-9
0,-34,-34,17,17,-34,-19,-43,-19,-34,-34,4
4,-68,-73,31,39,-70,-4,-34,-29,-24,-24,14
4,-107,-112,51,58,-109,4,-24,-24,-14,-14,19
9,-68,-78,29,43,-73,-19,-48,-53,-34,-39,-4
9,-34,-43,12,26,-39,-34,-58,-58,-43,-48,-24
9,9,0,-9,4,4,-43,-78,-63,-68,-68,-39
9,73,63,-41,-26,68,-53,-87,-68,-78,-78,-48
0,19,19,-9,-9,19,-34,-73,-63,-63,-68,-34
0,-34,-34,17,17,-34,-19,-63,-43,-43,-53,-19
0,-73,-73,36,36,-73,-9,-58,-39,-34,-48,-9
0,-112,-112,56,56,-112,4,-48,-39,-19,-43,14
9,-68,-78,29,43,-73,-14,-58,-43,-29,-53,-4
9,-34,-43,12,26,-39,-24,-73,-48,-43,-63,-19
9,9,0,-9,4,4,-39,-87,-63,-58,-78,-39
9,48,39,-29,-14,43,-53,-97,-68,-82,-92,-48
-4,24,29,-9,-17,26,-43,-82,-63,-58,-78,-39
-4,-4,0,4,-2,-2,-29,-78,-43,-48,-63,-24
-4,-53,-48,29,21,-51,-14,-68,-24,-24,-58,4
-9,-78,-68,43,29,-73,-4,-63,-39,-29,-43,4
-9,-48,-39,29,14,-43,-9,-63,-43,-43,-48,-14
-4,-29,-24,17,9,-26,-19,-68,-48,-48,-58,-24
-4,4,9,0,-7,7,-34,-78,-68,-53,-68,-29
-9,39,48,-14,-29,43,-48,-87,-73,-68,-78,-43
-4,24,29,-9,-17,26,-34,-82,-68,-58,-73,-39
-9,-9,0,9,-4,-4,-24,-78,-58,-53,-73,-34
-9,-39,-29,24,9,-34,-14,-68,-43,-53,-63,-24
-9,-58,-48,34,19,-53,-9,-63,-39,-53,-63,-19
-14,-58,-43,36,14,-51,9,-58,-39,-58,-63,-24
-19,-34,-14,26,-2,-24,-14,-68,-43,-58,-68,-24
-24,-4,19,14,-21,7,-29,-73,-48,-48,-73,-24
-29,19,48,4,-39,34,-34,-82,-53,-63,-87,-29
-29,34,63,-2,-46,48,-29,-73,-53,-53,-82,-24
-29,4,34,12,-31,19,-24,-68,-48,-53,-78,-24
-29,-24,4,26,-17,-9,-9,-68,-39,-53,-73,-24
-34,-48,-14,41,-9,-31,-4,-63,-39,-53,-63,-24
-24,-43,-19,34,-2,-31,-14,-68,-39,-43,-63,-24
-24,-43,-19,34,-2,-31,-14,-68,-39,-43,-63,-24
-24,-34,-9,29,-7,-21,-14,-73,-39,-53,-68,-24
-29,-9,19,19,-24,4,-19,-78,-48,-53,-68,-34
-29,14,43,7,-36,29,-19,-92,-63,-68,-87,-39
-29,19,48,4,-39,34,-19,-92,-63,-68,-87,-43
-29,4,34,12,-31,19,-14,-92,-63,-63,-82,-48
-34,-29,4,31,-19,-12,-4,-92,-53,-58,-78,-48
-34,-24,9,29,-21,-7,4,-87,-48,-53,-58,-39
-34,-34,0,34,-17,-17,4,-78,-43,-48,-58,-34
-34,-43,-9,39,-12,-26,4,-73,-43,-43,-68,-39
-34,-29,4,31,-19,-12,-4,-73,-43,-43,-68,-43
-43,-4,39,24,-41,17,-4,-82,-48,-58,-68,-43
-43,29,73,7,-58,51,-9,-92,-48,-58,-78,-43
-43,4,48,19,-46,26,-9,-92,-43,-58,-63,-43
-48,-19,29,34,-39,4,0,-87,-43,-48,-63,-39
-48,-34,14,41,-31,-9,9,-78,-34,-48,-53,-29
-48,-58,-9,53,-19,-34,14,-78,-34,-48,-53,-29
-48,-58,-9,53,-19,-34,14,-78,-39,-53,-63,-34
-39,-48,-9,43,-14,-29,9,-82,-43,-58,-63,-34
-43,-19,24,31,-34,2,-9,-102,-68,-68,-82,-48
-43,19,63,12,-53,41,-24,-107,-73,-78,-87,-58
-43,9,53,17,-48,31,-19,-112,-78,-82,-92,-63
-48,9,58,19,-53,34,-19,-117,-68,-82,-92,-68
-58,-39,19,48,-39,-9,-4,-107,-53,-73,-82,-58
-58,-58,0,58,-29,-29,4,-97,-48,-63,-73,-39
-58,-68,-9,63,-24,-39,9,-87,-48,-53,-73,-39
-53,-87,-34,70,-9,-61,4,-82,-53,-48,-63,-34
-53,-24,29,39,-41,2,-9,-97,-63,-68,-92,-48
-53,4,58,24,-56,31,-19,-107,-78,-82,-97,-58
-53,24,78,14,-65,51,-24,-112,-73,-87,-102,-73
-53,24,78,14,-65,51,-19,-117,-78,-92,-107,-68
-53,-48,4,51,-29,-21,-9,-102,-68,-73,-92,-48
-53,-63,-9,58,-21,-36,0,-97,-58,-68,-87,-43
-43,-87,-43,65,0,-65,14,-82,-48,-63,-82,-43
-43,-102,-58,73,7,-80,24,-78,-43,-63,-87,-39
-43,-53,-9,48,-17,-31,-4,-102,-68,-73,-97,-48
-43,0,43,21,-43,21,-19,-126,-87,-97,-122,-63
-43,39,82,2,-63,61,-29,-141,-97,-107,-131,-78
-43,29,73,7,-58,51,-34,-151,-102,-117,-141,-87
-53,-34,19,43,-36,-7,-14,-126,-87,-97,-112,-63
-53,-63,-9,58,-21,-36,0,-112,-73,-87,-102,-53
-53,-102,-48,78,-2,-75,14,-102,-48,-78,-92,-43
-53,-122,-68,87,7,-95,24,-97,-48,-68,-87,-43
-53,-78,-24,65,-14,-51,4,-117,-63,-92,-102,-63
-53,-9,43,31,-48,17,-9,-131,-87,-107,-117,-82
-53,39,92,7,-73,65,-39,-146,-102,-126,-126,-92
-53,29,82,12,-68,56,-43,-156,-112,-136,-131,-102
-53,-24,29,39,-41,2,-19,-146,-97,-112,-117,-82
-53,-68,-14,61,-19,-41,0,-131,-87,-97,-107,-68
-53,-122,-68,87,7,-95,9,-117,-78,-87,-97,-48
-53,-136,-82,95,14,-109,19,-107,-73,-78,-92,-34
-43,-87,-43,65,0,-65,-9,-126,-87,-102,-117,-63
-43,-24,19,34,-31,-2,-24,-146,-102,-117,-131,-78
-43,29,73,7,-58,51,-34,-156,-117,-141,-151,-92
-43,39,82,2,-63,61,-43,-170,-126,-151,-161,-117
-48,-9,39,29,-43,14,-24,-151,-112,-126,-136,-102
-48,-78,-29,63,-9,-53,-9,-136,-97,-107,-122,-73
-53,-112,-58,82,2,-85,4,-122,-78,-97,-107,-58
-63,-146,-82,104,9,-114,14,-112,-63,-87,-97,-43
-58,-107,-48,82,-4,-78,-4,-131,-82,-102,-126,-53
-53,-48,4,51,-29,-21,-24,-141,-92,-117,-136,-73
-48,9,58,19,-53,34,-34,-161,-107,-136,-146,-82
-39,58,97,-9,-68,78,-43,-175,-117,-146,-156,-102
-48,-19,29,34,-39,4,-29,-156,-97,-126,-141,-82
-48,-73,-24,61,-12,-48,-9,-141,-87,-112,-117,-63
-48,-97,-48,73,0,-73,4,-126,-73,-92,-102,-43
-53,-141,-87,97,17,-114,19,-112,-63,-82,-78,-34
-43,-87,-43,65,0,-65,0,-126,-68,-97,-87,-43
-43,-48,-4,46,-19,-26,-14,-136,-78,-107,-102,-58
-39,14,53,12,-46,34,-29,-151,-92,-117,-117,-78
-39,78,117,-19,-78,97,-43,-156,-97,-122,-131,-97
-39,14,53,12,-46,34,-24,-136,-73,-102,-112,-73
-39,-19,19,29,-29,0,0,-122,-63,-87,-87,-58
-39,-39,0,39,-19,-19,9,-107,-53,-78,-78,-39
-34,-92,-58,63,12,-75,34,-87,-48,-63,-68,-14
-24,-39,-14,31,-4,-26,24,-87,-34,-48,-63,-14
-29,48,78,-9,-53,63,-19,-117,-48,-78,-87,-39
-19,63,82,-21,-51,73,-29,-126,-58,-87,-87,-43
-19,68,87,-24,-53,78,-29,-126,-58,-87,-87,-48
-19,73,92,-26,-56,82,-29,-126,-58,-87,-87,-53
-19,78,97,-29,-58,87,-29,-126,-58,-87,-87,-58
-19,39,58,-9,-39,48,-14,-112,-39,-68,-78,-48
-19,9,29,4,-24,19,0,-107,-29,-58,-68,-34
-19,-24,-4,21,-7,-14,19,-92,-9,-48,-58,-19
-14,-48,-34,31,9,-41,34,-78,0,-34,-39,0
-14,-24,-9,19,-2,-17,19,-82,-14,-39,-53,-14
-14,24,39,-4,-26,31,0,-92,-14,-53,-48,-24
-14,63,78,-24,-46,70,-19,-102,-14,-58,-63,-24
0,112,112,-56,-56,112,-58,-112,-34,-68,-78,-39
9,87,78,-48,-34,82,-53,-102,-14,-43,-53,-19
14,78,63,-46,-24,70,-63,-102,0,-34,-39,0
14,53,39,-34,-12,46,-53,-97,4,-29,-24,19
14,14,0,-14,7,7,-39,-87,14,-14,-9,39
14,19,4,-17,4,12,-58,-107,-19,-29,-29,14
24,58,34,-41,-4,46,-78,-126,-43,-53,-48,0
29,87,58,-58,-14,73,-102,-161,-68,-73,-58,-14
34,146,112,-90,-39,129,-131,-190,-97,-107,-87,-39
43,97,53,-70,-4,75,-112,-175,-82,-87,-73,-19
43,63,19,-53,12,41,-107,-165,-78,-82,-63,-9
43,14,-29,-29,36,-7,-102,-161,-82,-87,-63,0
43,-48,-92,2,68,-70,-92,-146,-68,-73,-48,9
39,-24,-63,-7,51,-43,-112,-170,-97,-92,-78,-9
39,9,-29,-24,34,-9,-107,-185,-122,-122,-92,-29
34,39,4,-36,14,21,-122,-204,-122,-141,-117,-58
29,97,68,-63,-19,82,-141,-219,-151,-161,-131,-78
24,68,43,-46,-9,56,-122,-195,-122,-131,-102,-48
19,39,19,-29,0,29,-107,-185,-107,-122,-92,-29
14,0,-14,-7,14,-7,-82,-175,-97,-112,-82,-14
9,-39,-48,14,29,-43,-63,-161,-87,-102,-73,0
4,19,14,-12,-4,17,-68,-175,-92,-112,-87,-24
-4,9,14,-2,-9,12,-68,-175,-107,-126,-97,-39
-14,43,58,-14,-36,51,-68,-185,-117,-126,-97,-53
-24,43,68,-9,-46,56,-78,-185,-131,-156,-122,-73
-39,9,48,14,-43,29,-63,-185,-126,-156,-131,-73
-43,-29,14,36,-29,-7,-48,-175,-126,-146,-122,-68
-43,-78,-34,61,-4,-56,-34,-180,-122,-136,-122,-73
-48,-117,-68,82,9,-92,-19,-180,-112,-122,-117,-68
-48,-73,-24,61,-12,-48,-39,-180,-117,-141,-131,-78
-48,-68,-19,58,-14,-43,-43,-180,-126,-151,-136,-82
-48,-39,9,43,-29,-14,-48,-185,-136,-161,-141,-92
-48,-29,19,39,-34,-4,-39,-185,-146,-170,-146,-102
-48,-48,0,48,-24,-24,-34,-170,-131,-156,-146,-92
-48,-82,-34,65,-7,-58,-24,-165,-126,-156,-146,-87
-43,-112,-68,78,12,-90,-19,-170,-122,-156,-141,-87
-43,-126,-82,85,19,-104,-9,-165,-112,-146,-141,-78
-58,-97,-39,78,-9,-68,-19,-175,-131,-161,-136,-92
-58,-82,-24,70,-17,-53,-24,-185,-141,-151,-136,-92
-63,-73,-9,68,-26,-41,-34,-190,-136,-161,-151,-107
-68,-58,9,63,-39,-24,-39,-195,-146,-170,-165,-122
-63,-68,-4,65,-29,-36,-24,-180,-146,-165,-161,-112
-53,-87,-34,70,-9,-61,-19,-175,-141,-161,-151,-102
-43,-87,-43,65,0,-65,-14,-175,-136,-161,-141,-92
-39,-107,-68,73,14,-87,-9,-175,-131,-156,-131,-82
-58,-92,-34,75,-12,-63,-14,-185,-141,-170,-141,-87
-58,-68,-9,63,-24,-39,-19,-180,-146,-170,-156,-102
-53,-73,-19,63,-17,-46,-19,-175,-146,-170,-146,-107
-53,-58,-4,56,-24,-31,-24,-175,-146,-165,-141,-107
-53,-78,-24,65,-14,-51,-9,-165,-131,-156,-126,-97
-53,-112,-58,82,2,-85,-9,-165,-131,-151,-126,-92
-53,-87,-34,70,-9,-61,-9,-165,-131,-161,-141,-97
-58,-82,-24,70,-17,-53,-9,-165,-136,-156,-151,-92
-58,-63,-4,61,-26,-34,-14,-170,-136,-156,-141,-102
-58,-82,-24,70,-17,-53,-14,-170,-131,-156,-141,-97
-58,-82,-24,70,-17,-53,-9,-175,-131,-156,-136,-97
-58,-78,-19,68,-19,-48,-9,-180,-131,-156,-136,-97
-58,-102,-43,80,-7,-73,0,-161,-131,-151,-146,-82
-58,-82,-24,70,-17,-53,-4,-170,-131,-151,-146,-92
-58,-82,-24,70,-17,-53,-19,-175,-136,-151,-136,-92
-58,-68,-9,63,-24,-39,-24,-180,-141,-151,-146,-92
-73,-68,4,70,-39,-31,-14,-170,-131,-151,-136,-82
-73,-82,-9,78,-31,-46,-9,-170,-126,-156,-141,-87
-73,-92,-19,82,-26,-56,-4,-170,-126,-156,-141,-87
-73,-112,-39,92,-17,-75,0,-165,-126,-151,-136,-82
-63,-92,-29,78,-17,-61,0,-170,-136,-161,-146,-92
-63,-82,-19,73,-21,-51,-4,-175,-136,-161,-146,-97
-68,-73,-4,70,-31,-39,0,-175,-136,-170,-165,-107
-73,-63,9,68,-41,-26,-4,-180,-141,-180,-170,-126
-82,-224,-141,153,29,-183,53,-122,-102,-122,-126,-82
-102,-195,-92,148,-4,-143,58,-122,-97,-122,-136,-102
-107,-102,4,104,-56,-48,39,-151,-107,-151,-161,-131
-117,-19,97,68,-107,39,4,-190,-136,-180,-190,-180
-131,29,161,51,-146,95,-14,-219,-156,-200,-219,-200
-151,0,151,75,-151,75,4,-224,-146,-180,-209,-195
-141,-87,53,114,-97,-17,43,-209,-117,-156,-175,-156
-141,-175,-34,158,-53,-104,68,-204,-107,-141,-165,-131
-151,-214,-63,183,-43,-139,73,-224,-122,-156,-165,-117
-136,-200,-63,168,-36,-131,43,-248,-156,-180,-165,-112
-102,-122,-19,112,-41,-70,-14,-283,-204,-209,-185,-117
-73,-48,24,61,-48,-12,-68,-312,-248,-248,-214,-122
-58,4,63,26,-61,34,-92,-351,-297,-297,-229,-131
-29,24,53,2,-41,39,-126,-385,-317,-297,-214,-92
19,9,-9,-14,14,0,-156,-385,-292,-248,-136,-4
78,-29,-107,-24,92,-68,-175,-375,-234,-161,-14,126
175,-24,-200,-75,187,-112,-244,-385,-224,-102,102,268
302,39,-263,-170,283,-112,-366,-414,-248,-78,204,419
434,156,-278,-295,356,-61,-492,-458,-287,-68,283,541
585,297,-287,-441,436,4,-649,-536,-375,-117,322,619
732,429,-302,-580,517,63,-800,-634,-517,-185,326,702
829,527,-302,-678,566,112,-922,-683,-595,-209,395,839
902,605,-297,-753,600,153,-980,-707,-580,-161,512,1000
966,585,-380,-775,673,102,-1010,-717,-561,-117,580,1107
1034,488,-546,-761,790,-29,-1010,-722,-595,-136,570,1146
1083,380,-702,-732,893,-161,-1000,-741,-649,-209,507,1117
1054,312,-741,-683,897,-214,-995,-810,-732,-322,346,936
966,209,-756,-588,861,-273,-956,-907,-854,-517,19,570
844,78,-766,-461,805,-344,-893,-1015,-985,-736,-361,151
722,-14,-736,-353,729,-375,-854,-1122,-1068,-888,-605,-126
595,-58,-653,-268,624,-356,-819,-1268,-1112,-951,-707,-244
448,-78,-527,-185,488,-302,-707,-1346,-1073,-946,-761,-307
297,-58,-356,-119,326,-207,-556,-1312,-917,-839,-727,-297
195,24,-170,-109,183,-73,-429,-1190,-746,-683,-610,-219
117,112,-4,-114,61,53,-331,-1107,-644,-610,-546,-180
68,156,87,-112,-9,122,-278,-1029,-610,-600,-551,-214
14,161,146,-87,-65,153,-209,-932,-561,-595,-556,-258
-29,165,195,-68,-112,180,-146,-849,-531,-585,-561,-307
-73,107,180,-17,-126,143,-68,-771,-507,-580,-575,-336
-107,0,107,53,-107,53,19,-683,-458,-561,-575,-361
-141,-117,24,129,-82,-46,136,-570,-390,-522,-536,-351
-180,-209,-29,195,-75,-119,219,-483,-317,-468,-497,-331
-200,-224,-24,212,-87,-124,234,-424,-278,-429,-478,-317
-204,-165,39,185,-122,-63,224,-385,-273,-409,-448,-312
-190,-68,122,129,-156,26,185,-351,-268,-385,-419,-322
-180,29,209,75,-195,119,146,-326,-268,-366,-400,-326
-175,48,224,63,-200,136,126,-283,-239,-341,-375,-312
-161,0,161,80,-161,80,136,-209,-185,-283,-322,-268
-161,-92,68,126,-114,-12,180,-122,-97,-190,-229,-200
-161,-180,-19,170,-70,-100,209,-39,-29,-112,-151,-151
-146,-209,-63,178,-41,-136,214,4,14,-68,-112,-117
-126,-161,-34,143,-46,-97,195,14,24,-63,-97,-112
-107,-63,43,85,-75,-9,156,4,4,-63,-102,-122
-97,19,117,39,-107,68,102,-24,-19,-92,-136,-156
-97,-4,92,51,-95,43,97,4,4,-58,-112,-146
-92,-34,58,63,-75,12,97,24,14,-58,-92,-122
-87,-24,63,56,-75,19,97,24,19,-63,-102,-126
-82,-19,63,51,-73,21,82,14,19,-63,-107,-131
-92,-53,39,73,-65,-7,97,29,39,-43,-87,-122
-87,-73,14,80,-51,-29,107,43,48,-34,-73,-102
-87,-87,0,87,-43,-43,117,82,58,-9,-48,-87
-87,-165,-78,126,-4,-122,126,102,87,4,-34,-73
-82,-131,-48,107,-17,-90,107,82,73,-4,-48,-82
-68,-107,-39,87,-14,-73,107,82,73,-4,-39,-87
-63,-58,4,61,-34,-26,87,73,53,-14,-43,-92
-58,-24,34,41,-46,4,78,63,43,-24,-48,-92
-68,-58,9,63,-39,-24,87,73,63,-4,-29,-73
-68,-68,0,68,-34,-34,92,78,68,4,-19,-63
-68,-117,-48,92,-9,-82,102,107,78,19,-9,-53
-68,-156,-87,112,9,-122,122,131,102,34,14,-39
-58,-122,-63,90,2,-92,102,112,87,24,4,-53
-68,-92,-24,80,-21,-58,92,112,78,29,-9,-63
-68,-58,9,63,-39,-24,82,102,68,9,-24,-78
-63,-24,39,43,-51,7,73,92,58,0,-39,-97
-68,-43,24,56,-46,-9,82,112,82,19,-19,-78
-68,-87,-19,78,-24,-53,92,122,92,29,-9,-68
-68,-131,-63,100,-2,-97,107,141,102,48,14,-48
-68,-146,-78,107,4,-112,117,165,122,73,29,-34
-78,-141,-63,109,-7,-102,107,141,117,48,14,-48
-78,-102,-24,90,-26,-63,92,136,102,39,0,-63
-73,-78,-4,75,-34,-41,82,131,92,24,-4,-78
-73,-19,53,46,-63,17,78,107,78,4,-29,-92
-78,-48,29,63,-53,-9,78,131,97,29,-4,-68
-78,-87,-9,82,-34,-48,87,151,107,48,9,-63
-78,-117,-39,97,-19,-78,102,165,122,73,29,-39
-73,-170,-97,122,12,-134,122,195,136,92,53,-14
-63,-131,-68,97,2,-100,112,180,117,78,39,-39
-68,-92,-24,80,-21,-58,97,170,112,63,24,-48
-68,-58,9,63,-39,-24,92,170,112,58,29,-63
-63,0,63,31,-63,31,68,156,102,48,14,-78
-63,-34,29,48,-46,-2,82,170,122,68,34,-53
-63,-68,-4,65,-29,-36,97,185,136,87,43,-39
-63,-107,-43,85,-9,-75,112,200,146,97,53,-24
-58,-175,-117,117,29,-146,126,224,165,107,68,-9
-58,-122,-63,90,2,-92,112,219,151,87,53,-19
-58,-78,-19,68,-19,-48,102,209,151,92,48,-34
-58,-68,-9,63,-24,-39,87,200,141,97,43,-34
-58,-4,53,31,-56,24,73,200,126,87,34,-48
-58,-43,14,51,-36,-14,87,219,146,107,53,-29
-58,-63,-4,61,-26,-34,102,234,161,117,68,-14
-53,-107,-53,80,0,-80,117,248,170,131,78,0
-53,-156,-102,104,24,-129,131,258,180,151,92,14
-68,-112,-43,90,-12,-78,117,248,175,122,82,0
-68,-87,-19,78,-24,-53,102,244,170,122,82,-4
-68,-73,-4,70,-31,-39,92,244,165,126,73,-19
-68,-14,53,41,-61,19,78,244,156,112,68,-34
-63,-39,24,51,-43,-7,97,258,175,131,87,-14
-58,-58,0,58,-29,-29,107,268,185,151,102,-4
-58,-97,-39,78,-9,-68,117,287,200,161,112,-4
-63,-102,-39,82,-12,-70,126,302,209,170,122,4
-53,-87,-34,70,-9,-61,112,297,195,170,117,9
-53,-63,-9,58,-21,-36,102,287,204,156,112,0
-53,-29,24,41,-39,-2,92,297,204,161,107,-14
-53,-19,34,36,-43,7,92,297,204,151,102,-24
-53,-24,29,39,-41,2,92,317,214,170,122,-4
-48,-53,-4,51,-21,-29,107,331,224,180,131,4
-48,-73,-24,61,-12,-48,122,356,239,190,141,14
-43,-78,-34,61,-4,-56,136,366,248,204,151,24
-48,-87,-39,68,-4,-63,126,380,253,214,161,29
-48,-53,-4,51,-21,-29,126,370,253,209,151,19
-48,-34,14,41,-31,-9,117,370,248,209,151,9
-48,-43,4,46,-26,-19,112,380,258,224,161,14
-39,-34,4,36,-21,-14,126,400,278,234,175,24
-39,-53,-14,46,-12,-34,131,414,292,244,180,34
-39,-43,-4,41,-17,-24,136,429,302,253,185,43
-34,-34,0,34,-17,-17,131,439,307,263,190,58
-29,-68,-39,48,4,-53,136,458,302,273,200,53
-29,-53,-24,41,-2,-39,136,458,317,283,204,58
-29,-53,-24,41,-2,-39,131,458,322,287,214,53
-29,-48,-19,39,-4,-34,136,473,336,297,229,58
-39,-58,-19,48,-9,-39,151,497,351,307,234,63
-39,-48,-9,43,-14,-29,151,502,366,312,234,68
-39,-19,19,29,-29,0,151,507,375,322,239,73
-34,4,39,14,-36,21,146,527,380,326,248,82
-24,-4,19,14,-21,7,146,536,385,336,253,78
-24,-19,4,21,-14,-7,156,551,395,351,263,87
-24,-24,0,24,-12,-12,161,551,409,361,273,82
-19,-19,0,19,-9,-9,161,566,424,361,278,78
-19,-58,-39,39,9,-48,170,580,444,390,297,87
-24,0,24,12,-24,12,156,585,448,390,297,87
-24,9,34,7,-29,21,156,585,453,395,297,97
-24,39,63,-7,-43,51,151,614,453,395,302,97
-34,43,78,-4,-56,61,151,629,453,395,312,97
-34,-14,19,24,-26,2,175,629,468,424,322,112
-29,-19,9,24,-19,-4,180,629,478,429,326,112
-29,-48,-19,39,-4,-34,180,634,492,434,326,107
-29,-29,0,29,-14,-14,180,639,488,439,336,117
-24,-9,14,17,-19,2,185,653,502,439,341,117
-24,29,53,-2,-39,41,165,653,502,439,341,117
-19,53,73,-17,-46,63,161,658,502,439,336,112
-19,39,58,-9,-39,48,170,692,512,448,346,122
-19,14,34,2,-26,24,175,697,527,473,356,136
-19,-4,14,12,-17,4,185,697,531,483,361,141
-29,-43,-14,36,-7,-29,190,683,551,488,366,141
-19,-9,9,14,-14,0,185,692,546,483,356,131
-19,-4,14,12,-17,4,180,697,551,478,356,126
-19,73,92,-26,-56,82,175,683,546,463,356,122
-19,78,97,-29,-58,87,170,678,556,468,361,117
-29,68,97,-19,-63,82,180,702,551,478,375,126
-29,43,73,-7,-51,58,175,707,556,478,375,131
-29,-9,19,19,-24,4,195,697,566,488,380,141
-29,-43,-14,36,-7,-29,204,692,575,512,390,156
-24,-9,14,17,-19,2,185,678,566,502,380,146
-19,14,34,2,-26,24,175,663,556,507,385,136
-14,82,97,-34,-56,90,161,644,536,478,361,126
-9,131,141,-61,-75,136,146,629,517,453,346,107
-19,92,112,-36,-65,102,151,629,512,453,351,126
-19,82,102,-31,-61,92,156,634,522,468,361,136
-19,14,34,2,-26,24,170,634,536,488,375,151
-19,-19,0,19,-9,-9,185,605,541,488,380,161
-24,19,43,2,-34,31,156,575,497,458,356,141
-29,53,82,-12,-56,68,141,527,483,439,341,126
-34,92,126,-29,-80,109,117,502,444,419,322,117
-39,146,185,-53,-112,165,97,463,414,370,287,107
-39,107,146,-34,-92,126,117,463,409,380,297,126
-34,82,117,-24,-75,100,112,453,400,375,307,122
-29,14,43,7,-36,29,112,434,405,370,307,131
-24,-24,0,24,-12,-12,122,419,400,380,317,151
-19,0,19,9,-19,9,87,385,361,331,283,141
-19,43,63,-12,-41,53,78,336,331,302,258,112
-19,92,112,-36,-65,102,68,287,302,273,234,82
-29,141,170,-56,-100,156,53,248,263,239,204,73
-19,112,131,-46,-75,122,53,253,253,248,204,87
-19,68,87,-24,-53,78,53,248,244,244,209,92
-19,24,43,-2,-31,34,58,234,244,229,204,107
-19,-58,-39,39,9,-48,73,229,248,239,219,122
-29,-34,-4,31,-12,-19,48,185,214,190,170,112
-24,14,39,4,-31,26,29,151,175,156,146,78
-24,34,58,-4,-41,46,9,117,146,136,131,48
-24,112,136,-43,-80,124,-19,87,87,97,92,24
-19,68,87,-24,-53,78,-9,82,92,102,87,39
-19,43,63,-12,-41,53,0,87,82,112,92,48
-24,-9,14,17,-19,2,4,68,87,97,92,53
-24,-82,-58,53,17,-70,24,73,97,102,102,68
-24,-48,-24,36,0,-36,0,48,78,87,78,53
-19,-9,9,14,-14,0,-14,14,29,48,68,29
-19,24,43,-2,-31,34,-24,-4,14,34,43,14
-19,78,97,-29,-58,87,-39,-34,-14,4,24,-9
-19,29,48,-4,-34,39,-19,-29,-9,9,19,0
-19,4,24,7,-21,14,-14,-19,-14,9,24,9
-19,-39,-19,29,0,-29,-9,-24,-4,9,24,14
-24,-107,-82,65,29,-95,4,-14,9,19,34,19
-24,-78,-53,51,14,-65,-14,-29,-14,-4,19,14
-24,-68,-43,46,9,-56,-29,-43,-34,-19,0,0
-19,-9,9,14,-14,0,-39,-63,-58,-39,-19,-14
-19,39,58,-9,-39,48,-39,-82,-78,-58,-34,-29
-19,0,19,9,-19,9,-34,-78,-68,-53,-29,-19
-19,-29,-9,24,-4,-19,-24,-68,-58,-43,-24,-14
-19,-63,-43,41,12,-53,-19,-63,-48,-39,-14,-4
-19,-78,-58,48,19,-68,-4,-48,-29,-29,-4,9
-9,-58,-48,34,19,-53,-9,-58,-43,-48,-19,-4
-9,-53,-43,31,17,-48,-19,-63,-39,-53,-24,-14
-4,-19,-14,12,4,-17,-29,-73,-68,-63,-39,-29
-4,9,14,-2,-9,12,-43,-82,-82,-73,-53,-48
-19,-24,-4,21,-7,-14,-34,-73,-78,-73,-48,-39
-19,-53,-34,36,7,-43,-24,-68,-68,-63,-39,-34
-19,-73,-53,46,17,-63,-9,-73,-58,-68,-39,-24
-19,-73,-53,46,17,-63,4,-68,-48,-58,-29,-9
-9,-58,-48,34,19,-53,-14,-78,-63,-73,-43,-19
-9,-53,-43,31,17,-48,-19,-82,-63,-73,-43,-29
-9,-34,-24,21,7,-29,-29,-92,-78,-82,-53,-43
-9,-14,-4,12,-2,-9,-34,-97,-97,-87,-63,-43
-9,-29,-19,19,4,-24,-24,-82,-82,-68,-58,-43
-9,-43,-34,26,12,-39,-14,-82,-68,-63,-53,-39
-9,-48,-39,29,14,-43,-9,-82,-63,-58,-53,-39
-9,-58,-48,34,19,-53,-4,-78,-48,-63,-53,-29
-24,-43,-19,34,-2,-31,-19,-87,-63,-68,-48,-34
-24,-34,-9,29,-7,-21,-19,-87,-53,-68,-43,-34
-24,-43,-19,34,-2,-31,-19,-82,-43,-53,-48,-19
-29,-29,0,29,-14,-14,-24,-82,-68,-68,-43,-34
-39,-39,0,39,-19,-19,-14,-68,-48,-58,-43,-29
-34,-48,-14,41,-9,-31,-9,-68,-48,-58,-48,-34
-34,-43,-9,39,-12,-26,-9,-73,-63,-58,-53,-34
-39,-39,0,39,-19,-19,-9,-78,-63,-68,-58,-43
-34,-24,9,29,-21,-7,-19,-78,-73,-68,-53,-43
-39,-39,0,39,-19,-19,-14,-78,-68,-63,-53,-43
-39,-48,-9,43,-14,-29,-9,-73,-58,-63,-43,-39
-39,-48,-9,43,-14,-29,-9,-73,-58,-63,-43,-39
-39,-68,-29,53,-4,-48,4,-68,-48,-58,-39,-43
-39,-53,-14,46,-12,-34,-14,-78,-53,-58,-39,-43
-39,-34,4,36,-21,-14,-24,-82,-58,-48,-39,-43
-39,-19,19,29,-29,0,-24,-92,-63,-63,-48,-48
-48,-4,43,26,-46,19,-19,-87,-63,-53,-48,-43
-48,-34,14,41,-31,-9,-14,-78,-58,-53,-48,-43
-48,-63,-14,56,-17,-39,0,-73,-48,-53,-48,-43
-53,-87,-34,70,-9,-61,4,-63,-48,-53,-43,-43
-43,-78,-34,61,-4,-56,0,-73,-53,-48,-48,-48
-43,-63,-19,53,-12,-41,-4,-78,-58,-53,-53,-53
-43,-39,4,41,-24,-17,-9,-87,-63,-68,-63,-58
-48,0,48,24,-48,24,-19,-97,-78,-73,-68,-73
-58,-9,48,34,-53,19,-4,-87,-78,-63,-68,-68
-58,-29,29,43,-43,0,0,-82,-73,-58,-58,-63
-58,-68,-9,63,-24,-39,9,-78,-68,-48,-43,-58
-63,-126,-63,95,0,-95,24,-73,-53,-39,-29,-48
-53,-78,-24,65,-14,-51,14,-87,-63,-53,-34,-48
-53,-53,0,53,-26,-26,4,-87,-63,-58,-39,-53
-53,-29,24,41,-39,-2,-4,-92,-68,-63,-53,-68
-53,19,73,17,-63,46,-24,-102,-73,-73,-58,-82
-53,-4,48,29,-51,21,-14,-87,-73,-73,-53,-68
-53,-9,43,31,-48,17,-9,-92,-68,-68,-58,-63
-53,-73,-19,63,-17,-46,0,-87,-58,-63,-39,-58
-58,-136,-78,97,9,-107,19,-78,-53,-48,-34,-48
-58,-102,-43,80,-7,-73,0,-87,-63,-63,-43,-58
-58,-78,-19,68,-19,-48,-4,-97,-73,-68,-53,-68
-58,-29,29,43,-43,0,-14,-107,-87,-78,-73,-82
-48,29,78,9,-63,53,-29,-122,-102,-87,-82,-92
-63,0,63,31,-63,31,-19,-107,-92,-82,-68,-73
-63,-19,43,41,-53,12,-14,-97,-82,-78,-58,-68
-63,-87,-24,75,-19,-56,9,-87,-73,-68,-48,-58
-68,-146,-78,107,4,-112,29,-78,-48,-53,-34,-48
-58,-131,-73,95,7,-102,4,-97,-68,-73,-53,-68
-58,-87,-29,73,-14,-58,-4,-107,-78,-82,-63,-68
-58,-34,24,46,-41,-4,-19,-117,-92,-92,-82,-87
-53,9,63,21,-58,36,-43,-131,-112,-107,-92,-102
