I, II, III, aVR, aVL, aVF, V1, V2, V3, V4, V5, V6
-78,-87,-9,82,-34,-48,39,-9,-117,-117,-117,-97
-78,-78,0,78,-39,-39,34,-9,-112,-112,-107,-92
-78,-68,9,73,-43,-29,29,-9,-107,-107,-97,-87
-78,-58,19,68,-48,-19,29,-9,-92,-92,-87,-78
-78,-48,29,63,-53,-9,29,-9,-78,-78,-78,-68
-73,-39,34,56,-53,-2,24,-9,-73,-78,-78,-68
-68,-29,39,48,-53,4,19,-9,-68,-78,-78,-68
-68,-4,63,36,-65,29,19,-14,-63,-63,-53,-48
-68,19,87,24,-78,53,19,-19,-58,-48,-29,-29
-68,19,87,24,-78,53,19,-19,-58,-48,-29,-29
-73,19,92,26,-82,56,19,-14,-53,-53,-34,-29
-78,19,97,29,-87,58,19,-14,-53,-58,-43,-34
-78,34,112,21,-95,73,19,-14,-48,-63,-48,-29
-53,58,112,-2,-82,85,9,-14,-24,-43,-29,-19
-34,78,112,-21,-73,95,0,-19,-9,-24,-9,-9
-34,82,117,-24,-75,100,-9,-24,-9,-24,0,-4
-29,82,112,-26,-70,97,-14,-39,-24,-24,-9,-4
-24,82,107,-29,-65,95,-53,-73,-24,-39,-14,-9
-24,87,112,-31,-68,100,-63,-78,-24,-39,-14,-9
-24,107,131,-41,-78,119,-78,-92,-29,-19,0,4
-19,126,146,-53,-82,136,-87,-102,-24,0,14,19
-9,102,112,-46,-61,107,-78,-87,-39,-14,4,4
-4,73,78,-34,-41,75,-68,-78,-68,-48,-19,-19
-4,53,58,-24,-31,56,-58,-68,-78,-63,-34,-34
-14,39,53,-12,-34,46,-48,-63,-78,-63,-39,-34
-19,24,43,-2,-31,34,-39,-53,-82,-68,-43,-34
-29,4,34,12,-31,19,-24,-48,-92,-78,-53,-43
-39,-9,29,24,-34,9,-19,-43,-97,-78,-53,-48
-48,-29,19,39,-34,-4,-9,-34,-107,-87,-63,-58
-58,-48,9,53,-34,-19,0,-24,-107,-87,-73,-63
-73,-58,14,65,-43,-21,19,-14,-112,-102,-78,-73
-92,-78,14,85,-53,-31,24,-4,-117,-117,-97,-87
-97,-87,9,92,-53,-39,39,-4,-117,-122,-102,-102
-97,-97,0,97,-48,-48,39,-9,-131,-131,-122,-107
-97,-97,0,97,-48,-48,34,-9,-141,-136,-136,-107
-102,-97,4,100,-53,-46,34,-14,-141,-136,-126,-107
-107,-97,9,102,-58,-43,34,-14,-141,-136,-117,-107
-107,-97,9,102,-58,-43,34,-9,-136,-136,-117,-107
-107,-97,9,102,-58,-43,34,-9,-136,-141,-122,-112
-102,-87,14,95,-58,-36,34,-9,-126,-131,-107,-102
-97,-78,19,87,-58,-29,34,-9,-117,-122,-87,-87
-97,-68,29,82,-63,-19,34,-9,-112,-107,-87,-87
-97,-58,39,78,-68,-9,34,-9,-112,-97,-87,-87
-102,-78,24,90,-63,-26,34,-4,-126,-122,-102,-97
-102,-97,4,100,-53,-46,34,0,-141,-146,-117,-112
-102,-97,4,100,-53,-46,34,0,-136,-146,-126,-122
-102,-97,4,100,-53,-46,34,0,-136,-146,-136,-131
-97,-82,14,90,-56,-34,34,0,-136,-136,-126,-117
-92,-73,19,82,-56,-26,34,4,-131,-131,-112,-97
-92,-78,14,85,-53,-31,39,9,-122,-122,-102,-87
-102,-53,48,78,-75,-2,48,14,-68,-87,-78,-73
-131,-14,117,73,-124,51,68,34,14,-48,-53,-53
-175,4,180,85,-178,92,214,229,165,-4,-34,-48
-253,29,283,112,-268,156,380,395,351,63,-4,-43
-307,87,395,109,-351,241,458,429,531,170,78,4
-287,156,444,65,-366,300,468,424,624,292,185,102
-185,258,444,-36,-314,351,356,302,517,395,322,244
29,370,341,-200,-156,356,170,151,229,473,473,409
361,517,156,-439,102,336,-200,-175,-117,566,663,624
785,775,-9,-780,397,383,-761,-639,-380,810,976,976
1254,1068,-185,-1161,719,441,-1337,-1083,-483,1146,1371,1371
1722,1171,-551,-1446,1137,309,-1844,-1390,-580,1332,1590,1600
1956,985,-971,-1471,1464,7,-1966,-1454,-727,1200,1478,1532
1917,453,-1464,-1185,1690,-505,-1688,-1244,-971,531,819,990
1766,-68,-1834,-849,1800,-951,-1293,-956,-1151,-73,219,463
1454,-165,-1620,-644,1537,-893,-1024,-819,-1102,-331,-43,224
1112,-165,-1278,-473,1195,-722,-810,-717,-1049,-517,-234,43
888,-146,-1034,-370,961,-590,-678,-629,-961,-556,-287,-29
717,-151,-868,-283,793,-509,-561,-536,-844,-561,-322,-87
541,-136,-678,-202,610,-407,-424,-414,-702,-488,-297,-102
405,-136,-541,-134,473,-339,-307,-292,-561,-419,-268,-122
234,-136,-370,-48,302,-253,-204,-214,-429,-366,-263,-156
117,-131,-248,7,183,-190,-112,-146,-336,-312,-248,-165
39,-122,-161,41,100,-141,-24,-58,-224,-244,-200,-151
-34,-117,-82,75,24,-100,48,19,-131,-195,-170,-141
-92,-122,-29,107,-31,-75,82,68,-58,-156,-146,-136
-107,-131,-24,119,-41,-78,107,87,-29,-131,-131,-141
-117,-141,-24,129,-46,-82,131,102,-24,-126,-131,-141
-126,-141,-14,134,-56,-78,146,122,4,-117,-122,-136
-136,-131,4,134,-70,-63,146,122,9,-117,-117,-131
-141,-122,19,131,-80,-51,146,122,9,-112,-112,-131
-151,-122,29,136,-90,-46,151,122,4,-112,-112,-131
-156,-126,29,141,-92,-48,161,126,9,-107,-112,-131
-156,-126,29,141,-92,-48,161,131,14,-102,-112,-131
-161,-126,34,143,-97,-46,161,131,14,-102,-112,-131
-161,-126,34,143,-97,-46,165,131,19,-102,-107,-126
-161,-126,34,143,-97,-46,165,136,24,-97,-107,-122
-161,-126,34,143,-97,-46,165,136,29,-92,-107,-122
-165,-126,39,146,-102,-43,161,136,29,-92,-102,-126
-165,-126,39,146,-102,-43,165,136,34,-92,-102,-126
-165,-126,39,146,-102,-43,165,136,39,-92,-102,-126
-165,-126,39,146,-102,-43,165,146,43,-87,-97,-122
-165,-126,39,146,-102,-43,170,146,48,-78,-97,-117
-165,-122,43,143,-104,-39,170,146,53,-78,-92,-107
-165,-122,43,143,-104,-39,175,151,58,-78,-87,-102
-165,-117,48,141,-107,-34,175,156,63,-73,-87,-102
-165,-112,53,139,-109,-29,180,165,68,-68,-82,-102
-165,-112,53,139,-109,-29,185,165,73,-63,-78,-102
-165,-112,53,139,-109,-29,185,170,78,-68,-73,-102
-165,-117,48,141,-107,-34,185,175,82,-58,-82,-107
-165,-126,39,146,-102,-43,195,180,92,-53,-92,-112
-165,-122,43,143,-104,-39,195,190,97,-53,-92,-112
-165,-122,43,143,-104,-39,195,195,107,-48,-92,-112
-170,-122,48,146,-109,-36,200,204,122,-43,-78,-102
-170,-122,48,146,-109,-36,204,209,141,-24,-68,-97
-170,-112,58,141,-114,-26,204,214,156,-14,-58,-92
-170,-107,63,139,-117,-21,204,214,165,-9,-58,-92
-170,-97,73,134,-122,-12,204,219,185,-4,-53,-87
-170,-82,87,126,-129,2,209,224,204,0,-43,-82
-165,-82,82,124,-124,0,214,229,214,9,-43,-82
-165,-73,92,119,-129,9,219,229,229,14,-34,-82
-161,-58,102,109,-131,21,214,239,248,19,-34,-78
-156,-48,107,102,-131,29,214,244,268,29,-24,-73
-156,-48,107,102,-131,29,214,253,283,48,-19,-73
-156,-39,117,97,-136,39,219,258,307,68,-4,-68
-156,-24,131,90,-143,53,214,273,331,82,9,-48
-156,-9,146,82,-151,68,214,273,356,97,19,-34
-151,4,156,73,-153,80,214,273,380,112,39,-19
-151,24,175,63,-163,100,214,278,405,126,48,-14
-151,24,175,63,-163,100,214,273,419,131,58,-4
-151,39,190,56,-170,114,214,273,444,151,82,9
-146,58,204,43,-175,131,214,273,468,180,87,24
-146,78,224,34,-185,151,209,268,492,195,102,34
-136,82,219,26,-178,151,195,263,502,204,117,39
-126,92,219,17,-173,156,190,248,517,219,131,48
-126,107,234,9,-180,170,185,244,527,229,146,63
-122,112,234,4,-178,173,180,234,531,239,151,73
-122,122,244,0,-183,183,161,219,536,248,151,78
-117,136,253,-9,-185,195,151,209,536,253,151,92
-117,141,258,-12,-187,200,141,200,531,258,156,92
-107,146,253,-19,-180,200,126,190,522,258,156,92
-102,165,268,-31,-185,217,112,190,512,258,156,92
-92,175,268,-41,-180,222,102,165,507,253,165,102
-82,170,253,-43,-168,212,97,161,497,248,161,102
-78,165,244,-43,-161,204,97,151,483,244,156,102
-78,165,244,-43,-161,204,87,146,468,234,156,102
-73,165,239,-46,-156,202,78,126,453,224,151,102
-63,170,234,-53,-148,202,58,107,439,229,151,102
-58,175,234,-58,-146,204,39,92,424,229,156,102
-48,185,234,-68,-141,209,29,87,409,239,165,112
-43,195,239,-75,-141,217,19,68,400,244,175,122
-43,190,234,-73,-139,212,19,63,366,224,175,122
-34,180,214,-73,-124,197,14,53,341,204,165,122
-29,170,200,-70,-114,185,4,43,317,185,151,112
-29,151,180,-61,-104,165,-4,29,287,175,136,107
-19,146,165,-63,-92,156,-9,24,253,161,126,102
-14,141,156,-63,-85,148,-19,19,229,146,117,102
-9,136,146,-63,-78,141,-29,4,204,131,107,102
-9,122,131,-56,-70,126,-29,-4,170,117,102,87
-9,117,126,-53,-68,122,-29,-14,146,97,92,82
-4,102,107,-48,-56,104,-29,-19,122,87,87,78
-4,92,97,-43,-51,95,-34,-24,97,82,87,73
-4,82,87,-39,-46,85,-34,-29,68,73,78,73
0,73,73,-36,-36,73,-34,-29,53,58,68,63
0,63,63,-31,-31,63,-34,-29,39,48,58,58
-9,48,58,-19,-34,53,-34,-29,19,39,48,43
-9,39,48,-14,-29,43,-29,-34,0,24,39,34
-4,14,19,-4,-12,17,-24,-29,-14,4,19,19
-4,-9,-4,7,0,-7,-14,-24,-24,-9,0,19
-9,-14,-4,12,-2,-9,-14,-24,-39,-24,-14,9
-9,-24,-14,17,2,-19,-9,-19,-43,-29,-19,0
-9,-34,-24,21,7,-29,-9,-19,-53,-39,-19,-9
-14,-39,-24,26,4,-31,-4,-19,-63,-48,-19,-19
-14,-48,-34,31,9,-41,0,-14,-68,-53,-19,-19
-14,-53,-39,34,12,-46,0,-14,-73,-53,-24,-19
-14,-58,-43,36,14,-51,0,-14,-73,-58,-29,-24
-19,-63,-43,41,12,-53,0,-9,-73,-63,-34,-29
-19,-63,-43,41,12,-53,0,-4,-73,-68,-34,-29
-19,-68,-48,43,14,-58,0,-4,-78,-68,-43,-29
-19,-68,-48,43,14,-58,0,-4,-78,-63,-43,-24
-19,-63,-43,41,12,-53,0,0,-78,-58,-43,-24
-24,-63,-39,43,7,-51,4,0,-78,-58,-43,-24
-24,-58,-34,41,4,-46,4,4,-78,-53,-43,-24
-24,-58,-34,41,4,-46,9,0,-73,-53,-39,-29
-24,-58,-34,41,4,-46,9,0,-73,-53,-34,-29
-24,-58,-34,41,4,-46,9,0,-63,-53,-29,-29
-29,-58,-29,43,0,-43,9,0,-53,-48,-24,-24
-29,-53,-24,41,-2,-39,9,4,-53,-39,-19,-14
-29,-53,-24,41,-2,-39,9,9,-53,-34,-14,-9
-24,-53,-29,39,2,-41,14,9,-43,-34,-14,-14
-29,-48,-19,39,-4,-34,14,14,-39,-29,-14,-14
-29,-43,-14,36,-7,-29,14,14,-34,-34,-14,-9
-29,-43,-14,36,-7,-29,19,14,-24,-29,-9,-4
-29,-43,-14,36,-7,-29,24,14,-19,-29,-9,-4
-34,-48,-14,41,-9,-31,29,19,-14,-24,-9,-4
-39,-53,-14,46,-12,-34,29,19,-9,-24,-4,-4
-39,-53,-14,46,-12,-34,29,19,-9,-24,-4,-4
-48,-53,-4,51,-21,-29,29,19,-9,-24,-14,-14
-53,-53,0,53,-26,-26,29,24,-14,-29,-24,-24
-58,-53,4,56,-31,-24,34,24,-4,-24,-24,-24
-58,-53,4,56,-31,-24,34,24,-4,-24,-19,-24
-58,-53,4,56,-31,-24,34,24,-4,-24,-19,-24
-63,-53,9,58,-36,-21,39,29,0,-19,-19,-19
-63,-53,9,58,-36,-21,39,29,0,-19,-14,-19
-63,-53,9,58,-36,-21,39,24,0,-14,-9,-19
-58,-48,9,53,-34,-19,39,24,0,-14,-9,-19
-53,-48,4,51,-29,-21,39,24,0,-19,-14,-19
-58,-58,0,58,-29,-29,34,24,0,-19,-9,-19
-58,-68,-9,63,-24,-39,34,24,0,-19,-9,-19
-63,-68,-4,65,-29,-36,39,19,0,-9,-9,-19
-63,-68,-4,65,-29,-36,43,19,0,0,-9,-24
-58,-68,-9,63,-24,-39,43,19,-14,-24,-19,-29
-58,-68,-9,63,-24,-39,43,14,-19,-43,-29,-34
-58,-68,-9,63,-24,-39,43,14,-24,-43,-34,-34
-63,-68,-4,65,-29,-36,43,14,-24,-48,-34,-34
-68,-63,4,65,-36,-29,43,14,-24,-48,-34,-34
-73,-68,4,70,-39,-31,43,14,-34,-48,-34,-34
-73,-68,4,70,-39,-31,43,19,-39,-53,-39,-43
-73,-73,0,73,-36,-36,43,24,-39,-53,-39,-43
-73,-73,0,73,-36,-36,43,19,-43,-53,-48,-48
-73,-73,0,73,-36,-36,43,19,-43,-63,-48,-48
-73,-73,0,73,-36,-36,43,14,-43,-53,-48,-48
-73,-73,0,73,-36,-36,39,9,-48,-53,-48,-43
-68,-68,0,68,-34,-34,34,4,-48,-48,-48,-43
-63,-63,0,63,-31,-31,29,4,-48,-48,-48,-48
-63,-63,0,63,-31,-31,29,4,-53,-53,-48,-53
-63,-68,-4,65,-29,-36,29,0,-58,-53,-53,-53
-68,-73,-4,70,-31,-39,29,4,-68,-58,-53,-53
-73,-73,0,73,-36,-36,29,9,-68,-68,-53,-53
-73,-78,-4,75,-34,-41,24,9,-68,-68,-53,-53
-73,-82,-9,78,-31,-46,24,4,-68,-68,-53,-53
-73,-78,-4,75,-34,-41,24,4,-68,-68,-53,-53
-73,-78,-4,75,-34,-41,29,4,-73,-73,-53,-53
-73,-82,-9,78,-31,-46,34,4,-78,-78,-58,-53
-73,-82,-9,78,-31,-46,34,4,-78,-78,-63,-58
-73,-78,-4,75,-34,-41,29,0,-78,-78,-63,-58
-73,-73,0,73,-36,-36,24,-4,-78,-78,-63,-58
-73,-73,0,73,-36,-36,24,-4,-78,-78,-58,-58
-73,-73,0,73,-36,-36,24,-4,-78,-78,-58,-58
-78,-78,0,78,-39,-39,24,0,-78,-78,-58,-58
-78,-82,-4,80,-36,-43,24,0,-82,-78,-58,-58
-78,-82,-4,80,-36,-43,24,0,-82,-78,-58,-53
-78,-82,-4,80,-36,-43,19,0,-82,-78,-53,-53
-78,-78,0,78,-39,-39,19,-4,-82,-78,-53,-53
-78,-73,4,75,-41,-34,19,-9,-82,-73,-53,-53
-78,-73,4,75,-41,-34,19,-14,-82,-73,-53,-53
-73,-73,0,73,-36,-36,19,-14,-82,-73,-48,-53
-73,-73,0,73,-36,-36,19,-14,-92,-87,-63,-63
-73,-78,-4,75,-34,-41,19,-9,-97,-102,-78,-73
-73,-78,-4,75,-34,-41,19,-9,-92,-97,-78,-73
-73,-82,-9,78,-31,-46,24,-9,-92,-92,-82,-73
-68,-78,-9,73,-29,-43,19,-9,-92,-87,-73,-63
-68,-78,-9,73,-29,-43,19,-9,-97,-87,-68,-58
-68,-78,-9,73,-29,-43,19,-9,-97,-87,-68,-58
-68,-78,-9,73,-29,-43,19,-9,-97,-87,-68,-58
-73,-78,-4,75,-34,-41,19,-9,-97,-87,-68,-58
-78,-78,0,78,-39,-39,19,-9,-97,-87,-68,-58
-78,-78,0,78,-39,-39,19,-9,-97,-87,-68,-58
-78,-78,0,78,-39,-39,19,-9,-97,-87,-68,-58
-73,-68,4,70,-39,-31,19,-9,-92,-82,-63,-58
-68,-58,9,63,-39,-24,19,-9,-87,-78,-58,-58
-68,-34,34,51,-51,0,19,-14,-78,-68,-48,-43
-68,-9,58,39,-63,24,19,-19,-68,-58,-39,-29
-68,-4,63,36,-65,29,14,-19,-63,-58,-39,-29
-68,0,68,34,-68,34,9,-19,-58,-58,-39,-29
-68,9,78,29,-73,43,9,-24,-48,-53,-34,-29
-63,19,82,21,-73,51,9,-24,-39,-39,-24,-24
-58,34,92,12,-75,63,9,-24,-29,-29,-19,-19
-43,53,97,-4,-70,75,0,-24,-14,-14,-9,-9
-34,68,102,-17,-68,85,0,-19,-4,-4,0,0
-34,73,107,-19,-70,90,-9,-19,0,-4,9,4
-29,73,102,-21,-65,87,-24,-24,-14,-4,0,4
-29,73,102,-21,-65,87,-53,-43,-19,-19,-4,0
-34,82,117,-24,-75,100,-58,-63,-24,-19,-4,0
-34,87,122,-26,-78,104,-68,-82,-39,-19,-4,0
-29,97,126,-34,-78,112,-78,-87,-43,-14,4,0
-19,92,112,-36,-65,102,-78,-78,-48,-9,14,0
-14,73,87,-29,-51,80,-68,-68,-68,-29,9,4
-14,53,68,-19,-41,61,-58,-63,-78,-43,4,4
-24,34,58,-4,-41,46,-43,-63,-78,-48,-14,-4
-29,19,48,4,-39,34,-34,-53,-82,-58,-34,-19
-39,0,39,19,-39,19,-24,-48,-92,-68,-43,-34
-48,-14,34,31,-41,9,-19,-43,-92,-68,-43,-39
-53,-29,24,41,-39,-2,-9,-34,-102,-78,-53,-48
-58,-48,9,53,-34,-19,0,-24,-107,-78,-63,-53
-73,-73,0,73,-36,-36,19,-14,-117,-102,-78,-73
-92,-102,-9,97,-41,-56,24,-4,-126,-122,-102,-87
-97,-107,-9,102,-43,-58,39,-4,-126,-122,-102,-92
-97,-117,-19,107,-39,-68,39,-9,-131,-126,-107,-97
-97,-112,-14,104,-41,-63,34,-4,-131,-131,-107,-97
-97,-107,-9,102,-43,-58,34,-4,-131,-136,-107,-97
-102,-107,-4,104,-48,-56,34,-4,-131,-136,-107,-97
-107,-107,0,107,-53,-53,34,0,-131,-136,-107,-97
-107,-107,0,107,-53,-53,34,0,-136,-136,-112,-102
-107,-107,0,107,-53,-53,34,0,-136,-131,-112,-102
-107,-107,0,107,-53,-53,34,0,-136,-131,-107,-97
-107,-107,0,107,-53,-53,34,0,-131,-126,-107,-97
-107,-102,4,104,-56,-48,34,0,-131,-126,-107,-92
-107,-97,9,102,-58,-43,34,0,-131,-126,-107,-87
-102,-97,4,100,-53,-46,39,0,-131,-126,-102,-92
-102,-97,4,100,-53,-46,43,0,-126,-126,-97,-92
-102,-102,0,102,-51,-51,43,0,-126,-126,-97,-97
-102,-102,0,102,-51,-51,43,0,-126,-122,-97,-102
-97,-102,-4,100,-46,-53,39,4,-126,-126,-97,-97
-97,-92,4,95,-51,-43,39,14,-117,-122,-92,-87
-107,-53,53,80,-80,0,43,0,-58,-87,-68,-73
-141,-14,126,78,-134,56,82,24,24,-48,-43,-53
-195,4,200,95,-197,102,253,268,175,-14,-34,-53
-248,39,287,104,-268,163,380,409,341,48,-4,-39
-287,107,395,90,-341,251,434,419,522,175,97,24
-234,195,429,19,-331,312,405,385,570,312,224,136
-112,326,439,-107,-275,383,253,224,414,434,385,307
136,463,326,-300,-95,395,4,24,141,546,566,502
512,644,131,-578,190,387,-434,-341,-204,688,800,756
922,888,-34,-905,478,427,-961,-756,-419,946,1107,1093
1390,1166,-224,-1278,807,470,-1512,-1185,-453,1307,1517,1493
1795,1185,-610,-1490,1202,287,-1898,-1420,-546,1424,1664,1659
1991,897,-1093,-1444,1542,-97,-1912,-1405,-707,1180,1429,1483
1942,434,-1507,-1188,1725,-536,-1649,-1205,-927,561,829,980
1761,-58,-1820,-851,1790,-939,-1254,-922,-1117,-63,229,453
1454,-175,-1629,-639,1542,-902,-990,-795,-1083,-336,-43,219
1117,-156,-1273,-480,1195,-714,-800,-707,-1029,-488,-195,68
897,-122,-1019,-387,958,-570,-688,-629,-946,-507,-224,9
732,-112,-844,-309,788,-478,-570,-551,-819,-478,-239,-24
546,-97,-644,-224,595,-370,-434,-439,-683,-419,-229,-43
400,-102,-502,-148,451,-302,-322,-312,-541,-361,-204,-73
234,-112,-346,-61,290,-229,-224,-229,-414,-312,-209,-117
117,-112,-229,-2,173,-170,-131,-156,-322,-263,-200,-131
39,-112,-151,36,95,-131,-43,-68,-219,-204,-161,-122
-34,-117,-82,75,24,-100,34,14,-141,-170,-146,-117
-92,-122,-29,107,-31,-75,73,63,-78,-146,-136,-122
-107,-136,-29,122,-39,-82,97,78,-58,-136,-136,-136
-117,-151,-34,134,-41,-92,122,92,-58,-136,-141,-141
-126,-151,-24,139,-51,-87,136,112,-24,-126,-131,-136
-136,-146,-9,141,-63,-78,136,112,-9,-126,-131,-131
-146,-141,4,143,-75,-68,136,112,-9,-117,-126,-126
-156,-141,14,148,-85,-63,141,112,-9,-112,-122,-122
-156,-146,9,151,-82,-68,151,117,0,-107,-122,-122
-156,-146,9,151,-82,-68,151,122,4,-102,-117,-122
-161,-146,14,153,-87,-65,151,122,4,-102,-112,-122
-161,-146,14,153,-87,-65,156,122,9,-102,-107,-122
-161,-151,9,156,-85,-70,156,126,9,-102,-107,-122
-161,-156,4,158,-82,-75,161,131,9,-102,-112,-122
-165,-156,9,161,-87,-73,161,136,9,-102,-117,-126
-165,-156,9,161,-87,-73,165,136,14,-102,-122,-126
-165,-156,9,161,-87,-73,165,136,24,-102,-122,-126
-165,-156,9,161,-87,-73,165,146,34,-102,-117,-126
-165,-156,9,161,-87,-73,170,146,39,-97,-112,-126
-165,-151,14,158,-90,-68,170,146,43,-97,-107,-122
-165,-151,14,158,-90,-68,175,151,43,-92,-107,-122
-165,-151,14,158,-90,-68,175,156,48,-82,-107,-122
-165,-151,14,158,-90,-68,180,165,58,-78,-102,-122
-165,-151,14,158,-90,-68,185,165,68,-68,-97,-117
-165,-151,14,158,-90,-68,185,170,78,-68,-92,-112
-165,-146,19,156,-92,-63,185,175,82,-58,-92,-112
-165,-141,24,153,-95,-58,195,180,92,-53,-87,-112
-165,-131,34,148,-100,-48,195,190,97,-53,-82,-112
-165,-126,39,146,-102,-43,195,195,112,-48,-82,-112
-170,-122,48,146,-109,-36,200,204,126,-48,-73,-107
-170,-122,48,146,-109,-36,204,209,141,-34,-73,-107
-170,-112,58,141,-114,-26,209,219,156,-24,-68,-102
-170,-107,63,139,-117,-21,214,224,165,-19,-68,-102
-170,-102,68,136,-119,-17,214,234,185,-9,-63,-97
-170,-92,78,131,-124,-7,219,244,204,0,-53,-92
-165,-92,73,129,-119,-9,224,253,219,14,-48,-87
-165,-82,82,124,-124,0,229,258,239,24,-29,-82
-165,-68,97,117,-131,14,229,268,258,29,-24,-73
-165,-58,107,112,-136,24,234,273,278,39,-14,-58
-165,-58,107,112,-136,24,234,283,297,58,-9,-53
-165,-53,112,109,-139,29,239,283,326,78,4,-48
-165,-43,122,104,-143,39,239,292,351,92,19,-34
-165,-29,136,97,-151,53,239,292,380,112,29,-24
-161,-14,146,87,-153,65,234,292,409,136,48,-9
-161,9,170,75,-165,90,234,297,434,161,58,-4
-161,19,180,70,-170,100,234,297,448,170,68,4
-161,39,200,61,-180,119,234,297,478,190,97,24
-156,58,214,48,-185,136,229,292,502,214,107,43
-156,87,244,34,-200,165,219,287,522,224,122,53
-151,102,253,24,-202,178,204,283,531,234,131,58
-146,112,258,17,-202,185,200,268,536,244,141,63
-146,126,273,9,-209,200,195,263,536,248,156,73
-141,117,258,12,-200,187,190,253,541,253,156,82
-136,112,248,12,-192,180,170,239,546,258,156,87
-126,122,248,2,-187,185,161,229,546,263,156,97
-126,122,248,2,-187,185,156,219,541,263,156,92
-117,126,244,-4,-180,185,146,209,536,258,156,92
-112,136,248,-12,-180,192,131,204,531,258,156,92
-102,141,244,-19,-173,192,122,175,527,258,170,107
-92,151,244,-29,-168,197,107,165,517,263,175,112
-87,165,253,-39,-170,209,97,151,502,268,180,117
-82,175,258,-46,-170,217,87,146,488,263,185,122
-78,175,253,-48,-165,214,78,126,473,253,180,122
-73,175,248,-51,-161,212,68,112,453,248,175,122
-68,170,239,-51,-153,204,58,102,429,239,170,117
-58,165,224,-53,-141,195,48,97,405,234,161,112
-53,165,219,-56,-136,192,39,78,390,219,151,107
-53,161,214,-53,-134,187,34,68,356,204,146,102
-43,146,190,-51,-117,168,24,58,331,195,136,102
-34,141,175,-53,-104,158,9,48,307,180,131,97
-29,131,161,-51,-95,146,-4,34,278,175,126,102
-19,126,146,-53,-82,136,-9,29,248,165,122,102
-14,126,141,-56,-78,134,-19,19,234,156,117,102
-9,126,136,-58,-73,131,-29,4,214,141,107,102
-9,117,126,-53,-68,122,-29,-9,180,126,107,87
-9,117,126,-53,-68,122,-34,-24,156,107,97,82
0,102,102,-51,-51,102,-39,-29,131,97,87,78
4,92,87,-48,-41,90,-43,-34,107,87,82,68
4,78,73,-41,-34,75,-39,-39,68,73,63,63
9,63,53,-36,-21,58,-34,-39,39,53,48,53
9,53,43,-31,-17,48,-34,-39,19,39,39,48
0,39,39,-19,-19,39,-34,-39,0,29,29,34
0,29,29,-14,-14,29,-29,-39,-14,14,24,24
0,14,14,-7,-7,14,-29,-34,-24,0,19,9
-4,0,4,2,-4,2,-24,-34,-34,-9,9,14
-9,-4,4,7,-7,0,-24,-34,-48,-24,-4,9
-9,-9,0,9,-4,-4,-24,-29,-53,-24,-9,0
-9,-14,-4,12,-2,-9,-29,-29,-63,-29,-19,-9
-14,-14,0,14,-7,-7,-24,-29,-73,-39,-34,-19
-14,-19,-4,17,-4,-12,-19,-24,-78,-43,-39,-19
-9,-24,-14,17,2,-19,-19,-24,-82,-48,-43,-29
-4,-24,-19,14,7,-21,-19,-24,-82,-53,-43,-39
-9,-24,-14,17,2,-19,-19,-19,-82,-53,-39,-39
-9,-24,-14,17,2,-19,-14,-14,-82,-58,-34,-39
-14,-29,-14,21,0,-21,-9,-14,-87,-58,-43,-34
-19,-34,-14,26,-2,-24,-9,-14,-87,-58,-43,-29
-19,-34,-14,26,-2,-24,-9,-9,-87,-58,-43,-34
-24,-39,-14,31,-4,-26,-4,-9,-87,-63,-43,-34
-24,-39,-14,31,-4,-26,-4,-4,-92,-63,-43,-34
-24,-39,-14,31,-4,-26,0,-4,-92,-63,-43,-39
-24,-39,-14,31,-4,-26,0,0,-92,-63,-43,-39
-24,-39,-14,31,-4,-26,0,0,-87,-63,-43,-39
-29,-39,-9,34,-9,-24,0,-4,-78,-58,-43,-34
-29,-39,-9,34,-9,-24,4,-4,-73,-58,-43,-34
-29,-39,-9,34,-9,-24,9,0,-73,-63,-43,-39
-29,-34,-4,31,-12,-19,14,0,-63,-63,-43,-43
-39,-29,9,34,-24,-9,14,4,-63,-58,-43,-43
-39,-24,14,31,-26,-4,14,4,-63,-58,-43,-39
-39,-39,0,39,-19,-19,19,9,-53,-53,-48,-39
-39,-48,-9,43,-14,-29,19,14,-48,-58,-58,-43
-43,-48,-4,46,-19,-26,19,19,-39,-53,-58,-43
-48,-48,0,48,-24,-24,19,19,-29,-53,-53,-43
-48,-43,4,46,-26,-19,19,14,-29,-53,-48,-43
-53,-43,9,48,-31,-17,19,9,-24,-48,-43,-43
-53,-39,14,46,-34,-12,19,14,-29,-48,-43,-39
-58,-34,24,46,-41,-4,24,14,-24,-43,-43,-34
-58,-34,24,46,-41,-4,24,14,-24,-43,-39,-34
-58,-34,24,46,-41,-4,24,14,-24,-43,-39,-34
-63,-34,29,48,-46,-2,29,19,-14,-39,-39,-29
-63,-34,29,48,-46,-2,29,19,-9,-39,-34,-29
-63,-34,29,48,-46,-2,29,14,-9,-34,-29,-29
-63,-29,34,46,-48,2,29,14,-9,-34,-29,-29
-63,-34,29,48,-46,-2,29,14,-14,-39,-39,-34
-68,-39,29,53,-48,-4,24,14,-19,-39,-43,-39
-68,-39,29,53,-48,-4,24,14,-19,-39,-48,-39
-73,-39,34,56,-53,-2,24,9,-19,-39,-48,-39
-73,-34,39,53,-56,2,24,9,-19,-39,-43,-43
-68,-29,39,48,-53,4,24,9,-29,-43,-39,-43
-68,-29,39,48,-53,4,24,4,-29,-39,-39,-43
-68,-29,39,48,-53,4,24,4,-34,-34,-43,-43
-73,-29,43,51,-58,7,24,4,-34,-39,-43,-43
-73,-29,43,51,-58,7,24,4,-34,-43,-43,-43
-73,-39,34,56,-53,-2,24,4,-43,-48,-43,-39
-73,-39,34,56,-53,-2,24,4,-48,-53,-48,-43
-73,-43,29,58,-51,-7,24,0,-48,-53,-48,-43
-73,-43,29,58,-51,-7,24,-9,-53,-53,-58,-48
-73,-48,24,61,-48,-12,24,-9,-53,-68,-58,-53
-73,-53,19,63,-46,-17,24,-9,-53,-63,-58,-58
-73,-53,19,63,-46,-17,19,-9,-58,-63,-58,-53
-73,-53,19,63,-46,-17,19,-14,-58,-63,-58,-53
-73,-48,24,61,-48,-12,14,-14,-58,-68,-58,-48
-73,-43,29,58,-51,-7,9,-14,-63,-73,-58,-43
-73,-48,24,61,-48,-12,9,-19,-68,-73,-63,-53
-73,-53,19,63,-46,-17,9,-19,-78,-73,-63,-63
-73,-58,14,65,-43,-21,14,-19,-78,-87,-63,-63
-73,-63,9,68,-41,-26,14,-19,-78,-97,-63,-63
-73,-63,9,68,-41,-26,14,-24,-78,-87,-63,-63
-73,-58,14,65,-43,-21,9,-24,-78,-78,-63,-63
-73,-53,19,63,-46,-17,9,-24,-82,-78,-63,-63
-73,-53,19,63,-46,-17,14,-24,-87,-78,-68,-63
-73,-53,19,63,-46,-17,14,-19,-87,-78,-73,-68
-73,-53,19,63,-46,-17,14,-14,-87,-78,-73,-68
-73,-53,19,63,-46,-17,14,-14,-87,-78,-73,-68
-73,-53,19,63,-46,-17,14,-14,-87,-78,-68,-68
-73,-53,19,63,-46,-17,14,-14,-87,-82,-68,-68
-78,-53,24,65,-51,-14,14,-14,-87,-87,-68,-68
-78,-58,19,68,-48,-19,14,-19,-97,-87,-73,-68
-78,-63,14,70,-46,-24,14,-19,-102,-87,-82,-68
-78,-63,14,70,-46,-24,9,-19,-102,-87,-82,-73
-78,-63,14,70,-46,-24,9,-19,-102,-92,-82,-73
-78,-63,14,70,-46,-24,9,-19,-97,-92,-82,-73
-78,-63,14,70,-46,-24,9,-24,-92,-92,-82,-68
-73,-53,19,63,-46,-17,9,-24,-92,-87,-73,-63
-73,-43,29,58,-51,-7,9,-24,-97,-82,-68,-63
-73,-48,24,61,-48,-12,9,-19,-97,-82,-68,-63
-78,-48,29,63,-53,-9,9,-24,-97,-82,-73,-68
-78,-48,29,63,-53,-9,4,-24,-97,-82,-73,-68
-78,-48,29,63,-53,-9,0,-29,-97,-87,-78,-68
-78,-48,29,63,-53,-9,0,-29,-102,-92,-78,-68
-78,-48,29,63,-53,-9,0,-29,-107,-97,-78,-68
-78,-48,29,63,-53,-9,4,-29,-107,-97,-78,-73
-78,-48,29,63,-53,-9,9,-29,-107,-97,-78,-78
-78,-48,29,63,-53,-9,9,-29,-107,-92,-78,-78
-78,-48,29,63,-53,-9,9,-29,-107,-87,-78,-78
-78,-43,34,61,-56,-4,4,-29,-107,-87,-78,-73
-78,-39,39,58,-58,0,0,-29,-107,-87,-78,-68
-73,-34,39,53,-56,2,0,-29,-92,-82,-73,-63
-68,-29,39,48,-53,4,0,-29,-78,-78,-68,-58
-68,-9,58,39,-63,24,-4,-34,-73,-73,-58,-48
-68,9,78,29,-73,43,-9,-39,-68,-68,-48,-39
-68,24,92,21,-80,58,-9,-43,-58,-63,-43,-39
-68,39,107,14,-87,73,-9,-48,-48,-58,-39,-39
-68,43,112,12,-90,78,-9,-48,-43,-53,-34,-34
-63,53,117,4,-90,85,-9,-43,-34,-43,-24,-24
-58,63,122,-2,-90,92,-9,-43,-29,-34,-19,-19
-43,82,126,-19,-85,104,-19,-43,-14,-24,-9,-9
-34,97,131,-31,-82,114,-19,-43,-9,-9,0,0
-34,102,136,-34,-85,119,-29,-48,-9,-4,9,4
-29,107,136,-39,-82,122,-43,-68,-24,-4,-4,0
-29,112,141,-41,-85,126,-73,-102,-29,-19,-14,-9
-34,117,151,-41,-92,134,-87,-112,-29,-19,-14,-9
-34,117,151,-41,-92,134,-107,-122,-39,-19,-14,-9
-24,126,151,-51,-87,139,-112,-126,-39,-14,-4,0
-9,122,131,-56,-70,126,-107,-117,-39,-9,4,9
-4,102,107,-48,-56,104,-97,-107,-58,-29,0,4
-4,82,87,-39,-46,85,-87,-102,-68,-43,-4,-4
-19,63,82,-21,-51,73,-73,-97,-73,-48,-19,-4
-29,48,78,-9,-53,63,-63,-82,-82,-58,-34,-9
-39,24,63,7,-51,43,-48,-73,-97,-68,-48,-29
-48,4,53,21,-51,29,-39,-63,-102,-68,-53,-39
-53,-14,39,34,-46,12,-29,-53,-107,-78,-63,-53
-58,-39,19,48,-39,-9,-19,-43,-107,-78,-73,-63
-73,-48,24,61,-48,-12,0,-34,-112,-92,-82,-73
-92,-63,29,78,-61,-17,4,-24,-117,-102,-102,-78
-97,-68,29,82,-63,-19,19,-24,-117,-107,-102,-82
-97,-78,19,87,-58,-29,19,-29,-122,-117,-107,-87
-97,-78,19,87,-58,-29,14,-29,-122,-117,-107,-87
-97,-78,19,87,-58,-29,14,-34,-122,-117,-107,-87
-97,-78,19,87,-58,-29,14,-39,-122,-117,-107,-87
-97,-78,19,87,-58,-29,14,-39,-122,-117,-107,-87
-102,-78,24,90,-63,-26,14,-39,-131,-126,-117,-97
-107,-78,29,92,-68,-24,14,-39,-136,-131,-122,-102
-107,-87,19,97,-63,-34,14,-39,-136,-131,-117,-97
-107,-97,9,102,-58,-43,14,-39,-131,-126,-117,-97
-107,-87,19,97,-63,-34,14,-39,-126,-126,-112,-97
-107,-78,29,92,-68,-24,14,-39,-122,-126,-107,-97
-102,-78,24,90,-63,-26,14,-39,-122,-126,-107,-97
-102,-78,24,90,-63,-26,14,-39,-117,-126,-107,-92
-102,-82,19,92,-61,-31,14,-34,-122,-126,-107,-92
-102,-82,19,92,-61,-31,14,-29,-126,-122,-107,-92
-102,-82,19,92,-61,-31,14,-24,-122,-117,-102,-87
-107,-73,34,90,-70,-19,19,-14,-107,-102,-92,-78
-122,-29,92,75,-107,31,29,-9,-48,-68,-68,-63
-161,14,175,73,-168,95,73,34,34,-29,-43,-43
-214,34,248,90,-231,141,244,258,175,9,-24,-39
-268,68,336,100,-302,202,370,380,331,78,14,-19
-297,136,434,80,-366,285,409,366,492,185,102,39
-234,224,458,4,-346,341,366,307,522,302,214,146
-82,346,429,-131,-256,387,200,136,346,400,356,297
195,473,278,-334,-41,375,-63,-73,53,488,517,473
600,624,24,-612,287,324,-522,-458,-292,595,712,692
1039,839,-200,-939,619,319,-1068,-893,-507,819,980,995
1522,1093,-429,-1307,976,331,-1620,-1307,-556,1137,1342,1351
1942,1088,-854,-1515,1398,117,-2005,-1527,-663,1210,1439,1473
2127,800,-1327,-1464,1727,-263,-2000,-1498,-824,971,1210,1298
2069,336,-1732,-1202,1900,-697,-1717,-1283,-1044,356,614,795
1869,-117,-1986,-875,1927,-1051,-1322,-995,-1200,-200,78,312
1542,-195,-1737,-673,1639,-966,-1058,-863,-1132,-405,-131,122
1195,-165,-1361,-514,1278,-763,-849,-771,-1049,-522,-263,-9
966,-122,-1088,-422,1027,-605,-717,-688,-936,-507,-273,-48
785,-112,-897,-336,841,-505,-600,-600,-805,-473,-273,-68
585,-97,-683,-244,634,-390,-463,-478,-663,-409,-248,-73
429,-92,-522,-168,475,-307,-346,-351,-517,-346,-214,-92
253,-92,-346,-80,300,-219,-244,-268,-385,-292,-209,-126
126,-92,-219,-17,173,-156,-146,-190,-297,-244,-200,-136
39,-92,-131,26,85,-112,-53,-97,-200,-185,-161,-122
-34,-97,-63,65,14,-80,19,-14,-126,-156,-146,-112
-92,-102,-9,97,-41,-56,53,34,-68,-136,-136,-112
-112,-112,0,112,-56,-56,78,48,-48,-122,-131,-122
-126,-122,4,124,-65,-58,102,63,-48,-117,-131,-122
-136,-126,9,131,-73,-58,117,82,-19,-102,-117,-117
-146,-126,19,136,-82,-53,117,82,-9,-97,-112,-112
-151,-122,29,136,-90,-46,117,82,-9,-92,-112,-112
-156,-122,34,139,-95,-43,122,82,-9,-92,-112,-112
-156,-122,34,139,-95,-43,131,87,0,-87,-117,-112
-156,-117,39,136,-97,-39,131,92,4,-82,-117,-112
-161,-117,43,139,-102,-36,131,92,4,-82,-112,-112
-161,-117,43,139,-102,-36,136,92,9,-82,-107,-112
-161,-117,43,139,-102,-36,136,97,14,-82,-107,-112
-161,-117,43,139,-102,-36,141,102,19,-82,-112,-112
-165,-117,48,141,-107,-34,141,112,19,-82,-107,-117
-165,-117,48,141,-107,-34,146,117,24,-82,-102,-117
-165,-122,43,143,-104,-39,146,117,29,-82,-102,-117
-165,-126,39,146,-102,-43,146,126,34,-82,-97,-117
-165,-126,39,146,-102,-43,151,126,39,-73,-102,-117
-165,-122,43,143,-104,-39,151,126,43,-68,-107,-112
-165,-122,43,143,-104,-39,156,131,48,-68,-107,-112
-165,-122,43,143,-104,-39,156,136,58,-63,-107,-112
-165,-122,43,143,-104,-39,161,146,68,-48,-102,-112
-165,-122,43,143,-104,-39,165,146,78,-29,-97,-107
-170,-122,48,146,-109,-36,170,151,82,-39,-92,-102
-175,-117,58,146,-117,-29,175,156,82,-39,-92,-102
-175,-122,53,148,-114,-34,185,161,92,-34,-92,-102
-175,-122,53,148,-114,-34,185,170,97,-34,-92,-102
-175,-122,53,148,-114,-34,185,175,107,-29,-92,-102
-180,-122,58,151,-119,-31,190,185,117,-29,-82,-97
-180,-122,58,151,-119,-31,195,195,131,-14,-78,-97
-180,-112,68,146,-124,-21,200,209,146,-4,-68,-92
-180,-102,78,141,-129,-12,204,214,156,0,-68,-92
-180,-92,87,136,-134,-2,204,224,175,9,-63,-87
-175,-78,97,126,-136,9,209,229,204,19,-48,-82
-165,-73,92,119,-129,9,214,234,229,34,-39,-78
-165,-63,102,114,-134,19,219,239,239,43,-24,-73
-165,-48,117,107,-141,34,219,248,248,48,-24,-63
-170,-48,122,109,-146,36,234,258,268,53,-19,-53
-175,-58,117,117,-146,29,244,273,287,68,-19,-53
-175,-48,126,112,-151,39,239,278,317,87,-4,-48
-175,-34,141,104,-158,53,229,292,341,102,9,-34
-175,-14,161,95,-168,73,229,292,366,122,19,-24
-170,4,175,82,-173,90,224,292,390,146,39,-9
-170,24,195,73,-183,109,224,297,419,165,48,-4
-170,29,200,70,-185,114,224,297,439,170,58,4
-165,48,214,58,-190,131,229,302,463,185,82,19
-156,68,224,43,-190,146,229,302,483,204,87,34
-156,87,244,34,-200,165,219,302,502,214,102,43
-151,92,244,29,-197,168,204,302,512,224,112,48
-146,102,248,21,-197,175,200,287,527,244,126,58
-146,117,263,14,-204,190,195,283,536,258,146,73
-141,122,263,9,-202,192,190,273,541,268,151,82
-136,131,268,2,-202,200,170,258,546,278,156,87
-126,146,273,-9,-200,209,161,244,546,283,161,102
-126,151,278,-12,-202,214,156,229,541,283,165,102
-122,156,278,-17,-200,217,146,219,531,278,165,102
-122,165,287,-21,-204,226,131,214,522,278,165,102
-112,165,278,-26,-195,222,122,185,517,273,175,112
-102,170,273,-34,-187,222,107,175,507,273,175,112
-92,175,268,-41,-180,222,97,161,492,273,175,112
-82,175,258,-46,-170,217,87,156,478,263,175,112
-73,165,239,-46,-156,202,73,136,463,253,170,112
-63,156,219,-46,-141,187,58,122,444,248,165,112
-58,165,224,-53,-141,195,48,112,424,239,165,112
-48,175,224,-63,-136,200,39,107,405,234,161,112
-43,175,219,-65,-131,197,29,87,390,224,156,112
-43,170,214,-63,-129,192,24,78,356,214,156,112
-34,156,190,-61,-112,173,19,63,331,200,141,107
-24,151,175,-63,-100,163,9,48,307,180,131,97
-19,141,161,-61,-90,151,-4,29,278,175,126,97
-9,136,146,-63,-78,141,-9,19,248,165,122,92
-4,131,136,-63,-70,134,-19,9,229,156,117,92
0,126,126,-63,-63,126,-29,-4,204,141,107,92
0,112,112,-56,-56,112,-29,-14,170,126,107,78
0,107,107,-53,-53,107,-34,-24,146,107,97,73
4,92,87,-48,-41,90,-39,-29,122,97,87,68
4,82,78,-43,-36,80,-43,-34,97,87,82,58
4,82,78,-43,-36,80,-43,-43,68,73,58,53
9,82,73,-46,-31,78,-43,-48,48,53,39,43
9,73,63,-41,-26,68,-43,-48,29,34,29,39
0,58,58,-29,-29,58,-43,-48,9,19,19,24
0,39,39,-19,-19,39,-39,-53,-9,4,9,14
0,14,14,-7,-7,14,-39,-53,-24,-9,0,0
-4,0,4,2,-4,2,-34,-48,-34,-19,-9,0
-9,-4,4,7,-7,0,-34,-43,-48,-34,-24,-9
-9,-14,-4,12,-2,-9,-29,-39,-53,-39,-29,-19
-9,-24,-14,17,2,-19,-29,-39,-63,-48,-39,-29
-14,-29,-14,21,0,-21,-24,-39,-73,-58,-48,-43
-14,-39,-24,26,4,-31,-19,-34,-78,-63,-48,-48
-14,-34,-19,24,2,-26,-19,-34,-82,-63,-53,-48
-14,-24,-9,19,-2,-17,-19,-34,-82,-63,-53,-48
-19,-39,-19,29,0,-29,-19,-29,-87,-63,-53,-48
-19,-53,-34,36,7,-43,-14,-24,-92,-68,-53,-48
-19,-58,-39,39,9,-48,-9,-24,-97,-68,-63,-48
-19,-63,-43,41,12,-53,-9,-24,-97,-68,-63,-48
-19,-63,-43,41,12,-53,-4,-19,-97,-73,-68,-53
-24,-68,-43,46,9,-56,4,-19,-97,-82,-73,-53
-24,-68,-43,46,9,-56,4,-9,-97,-82,-73,-53
-24,-68,-43,46,9,-56,9,-4,-92,-82,-73,-58
-24,-63,-39,43,7,-51,9,0,-92,-78,-68,-58
-24,-58,-34,41,4,-46,9,0,-87,-73,-63,-58
-29,-58,-29,43,0,-43,9,0,-78,-68,-63,-53
-29,-58,-29,43,0,-43,14,4,-73,-68,-63,-53
-29,-63,-34,46,2,-48,19,9,-73,-68,-58,-53
-29,-63,-34,46,2,-48,24,9,-63,-63,-53,-53
-39,-58,-19,48,-9,-39,24,9,-58,-58,-53,-53
-39,-53,-14,46,-12,-34,24,4,-53,-58,-53,-48
-39,-53,-14,46,-12,-34,29,4,-48,-48,-48,-43
-39,-48,-9,43,-14,-29,29,4,-48,-48,-48,-43
-43,-48,-4,46,-19,-26,29,9,-43,-48,-53,-43
-48,-48,0,48,-24,-24,29,9,-39,-53,-53,-43
-48,-48,0,48,-24,-24,29,14,-39,-58,-53,-48
-53,-53,0,53,-26,-26,29,19,-34,-58,-53,-53
-53,-53,0,53,-26,-26,29,24,-34,-58,-53,-53
-58,-53,4,56,-31,-24,34,24,-24,-53,-53,-53
-58,-48,9,53,-34,-19,34,19,-24,-43,-48,-48
-58,-43,14,51,-36,-14,34,14,-24,-34,-48,-43
-63,-43,19,53,-41,-12,39,19,-14,-29,-43,-39
-63,-43,19,53,-41,-12,39,19,-9,-29,-34,-39
-63,-48,14,56,-39,-17,39,14,-9,-24,-29,-39
-63,-48,14,56,-39,-17,39,14,-9,-24,-29,-39
-63,-48,14,56,-39,-17,39,19,-9,-29,-34,-39
-68,-48,19,58,-43,-14,34,24,-9,-29,-34,-39
-68,-48,19,58,-43,-14,34,24,-14,-29,-39,-39
-73,-48,24,61,-48,-12,34,19,-19,-29,-39,-39
-73,-48,24,61,-48,-12,34,14,-19,-34,-39,-48
-68,-48,19,58,-43,-14,34,9,-29,-43,-39,-53
-68,-48,19,58,-43,-14,34,4,-29,-43,-39,-53
-68,-48,19,58,-43,-14,34,4,-34,-43,-43,-53
-73,-43,29,58,-51,-7,34,4,-34,-43,-43,-48
-73,-39,34,56,-53,-2,34,4,-34,-43,-43,-43
-73,-48,24,61,-48,-12,34,4,-43,-48,-43,-43
-73,-48,24,61,-48,-12,34,4,-48,-53,-48,-53
-73,-58,14,65,-43,-21,34,9,-48,-53,-48,-53
-73,-63,9,68,-41,-26,34,9,-53,-53,-58,-58
-73,-63,9,68,-41,-26,34,9,-53,-63,-58,-58
-73,-63,9,68,-41,-26,34,9,-53,-53,-58,-58
-73,-63,9,68,-41,-26,29,9,-58,-53,-58,-53
-73,-63,9,68,-41,-26,29,4,-58,-53,-58,-53
-73,-68,4,70,-39,-31,29,4,-58,-63,-58,-58
-73,-73,0,73,-36,-36,29,4,-63,-73,-58,-63
-73,-78,-4,75,-34,-41,29,0,-68,-73,-63,-63
-73,-82,-9,78,-31,-46,29,0,-78,-73,-63,-63
-73,-78,-4,75,-34,-41,29,0,-73,-73,-63,-63
-73,-73,0,73,-36,-36,24,0,-68,-68,-63,-63
-73,-73,0,73,-36,-36,24,-4,-68,-68,-63,-63
-73,-68,4,70,-39,-31,19,-4,-68,-68,-63,-63
-73,-68,4,70,-39,-31,19,-4,-78,-82,-68,-68
-73,-73,0,73,-36,-36,24,-4,-87,-97,-78,-73
-73,-78,-4,75,-34,-41,29,-4,-87,-97,-82,-78
-73,-82,-9,78,-31,-46,34,-4,-87,-97,-82,-78
-73,-82,-9,78,-31,-46,34,-4,-87,-92,-82,-78
-73,-82,-9,78,-31,-46,34,-4,-87,-87,-78,-78
-73,-78,-4,75,-34,-41,34,-4,-87,-87,-78,-73
-78,-73,4,75,-41,-34,34,-4,-87,-87,-78,-68
-78,-73,4,75,-41,-34,34,-9,-92,-87,-73,-68
-78,-73,4,75,-41,-34,34,-9,-92,-87,-73,-68
-73,-73,0,73,-36,-36,29,-9,-92,-87,-73,-73
-68,-73,-4,70,-31,-39,29,-9,-92,-92,-73,-73
-68,-73,-4,70,-31,-39,29,-9,-92,-92,-78,-78
-68,-73,-4,70,-31,-39,29,-14,-92,-92,-82,-78
-68,-68,0,68,-34,-34,29,-14,-92,-92,-78,-73
-73,-63,9,68,-41,-26,29,-14,-97,-92,-78,-73
-73,-68,4,70,-39,-31,29,-9,-97,-92,-78,-73
-78,-68,9,73,-43,-29,29,-14,-97,-92,-82,-78
-78,-68,9,73,-43,-29,24,-9,-92,-87,-78,-78
-78,-68,9,73,-43,-29,19,-9,-87,-87,-78,-78
-78,-68,9,73,-43,-29,19,-9,-92,-87,-78,-78
-78,-68,9,73,-43,-29,19,-9,-97,-87,-78,-78
-78,-68,9,73,-43,-29,24,-14,-97,-87,-78,-78
-78,-68,9,73,-43,-29,29,-19,-97,-87,-78,-78
-78,-68,9,73,-43,-29,29,-19,-97,-87,-78,-78
-78,-68,9,73,-43,-29,29,-19,-97,-87,-78,-78
-78,-63,14,70,-46,-24,29,-19,-97,-87,-78,-73
-78,-58,19,68,-48,-19,29,-19,-97,-87,-78,-68
-78,-58,19,68,-48,-19,29,-14,-97,-87,-73,-68
-78,-58,19,68,-48,-19,29,-9,-97,-87,-68,-68
-78,-53,24,65,-51,-14,29,-9,-92,-82,-68,-68
-78,-48,29,63,-53,-9,29,-9,-87,-78,-68,-68
-68,-34,34,51,-51,0,29,-9,-73,-73,-63,-58
-58,-19,39,39,-48,9,29,-9,-58,-68,-58,-48
-58,-4,53,31,-56,24,24,-14,-53,-63,-48,-43
-58,9,68,24,-63,39,19,-19,-48,-58,-39,-39
-58,14,73,21,-65,43,19,-19,-48,-58,-39,-39
-58,14,73,21,-65,43,19,-14,-43,-53,-39,-39
-63,19,82,21,-73,51,19,-14,-43,-53,-39,-39
-58,34,92,12,-75,63,19,-14,-39,-43,-29,-29
-43,53,97,-4,-70,75,14,-14,-24,-34,-19,-19
-34,68,102,-17,-68,85,9,-19,-19,-24,-9,-9
-29,73,102,-21,-65,87,-9,-29,-14,-19,4,-4
-19,73,92,-26,-56,82,-24,-48,-24,-14,0,-4
-19,73,92,-26,-56,82,-63,-82,-29,-29,-4,-9
-24,78,102,-26,-63,90,-73,-87,-34,-29,-4,-9
-34,82,117,-24,-75,100,-78,-97,-48,-29,-4,-9
-39,87,126,-24,-82,107,-78,-102,-53,-29,-4,-9
-19,78,97,-29,-58,87,-68,-87,-53,-29,0,-4
-4,63,68,-29,-36,65,-58,-78,-68,-48,-9,-9
-4,43,48,-19,-26,46,-48,-73,-78,-63,-24,-24
-14,29,43,-7,-29,36,-39,-73,-78,-63,-29,-24
-19,14,34,2,-26,24,-34,-63,-87,-68,-34,-29
-29,-4,24,17,-26,9,-24,-58,-102,-78,-43,-43
-39,-14,24,26,-31,4,-19,-53,-102,-78,-48,-48
-48,-29,19,39,-34,-4,-9,-43,-107,-87,-63,-58
-58,-43,14,51,-36,-14,0,-34,-107,-82,-73,-63
-73,-48,24,61,-48,-12,19,-24,-112,-92,-78,-73
-92,-63,29,78,-61,-17,24,-14,-117,-102,-92,-78
-97,-68,29,82,-63,-19,39,-14,-117,-102,-92,-82
-97,-82,14,90,-56,-34,39,-19,-122,-112,-97,-87
-97,-87,9,92,-53,-39,34,-19,-122,-117,-97,-87
-97,-92,4,95,-51,-43,34,-24,-126,-122,-102,-92
-97,-97,0,97,-48,-48,34,-24,-131,-126,-107,-97
-97,-97,0,97,-48,-48,34,-19,-131,-126,-107,-97
-97,-97,0,97,-48,-48,34,-19,-136,-131,-112,-102
-97,-92,4,95,-51,-43,34,-19,-131,-126,-107,-97
-97,-87,9,92,-53,-39,34,-19,-126,-122,-97,-87
-97,-87,9,92,-53,-39,34,-19,-122,-117,-97,-87
-97,-87,9,92,-53,-39,34,-19,-122,-117,-97,-87
-97,-87,9,92,-53,-39,34,-19,-126,-117,-102,-92
-92,-87,4,90,-48,-41,34,-19,-131,-117,-107,-102
-92,-87,4,90,-48,-41,34,-19,-126,-117,-107,-102
-92,-87,4,90,-48,-41,34,-19,-126,-117,-107,-102
-92,-82,9,87,-51,-36,29,-24,-126,-112,-107,-102
-92,-82,9,87,-51,-36,24,-24,-122,-112,-102,-97
-87,-87,0,87,-43,-43,24,-19,-131,-112,-102,-87
-92,-63,29,78,-61,-17,29,-14,-97,-87,-87,-73
-131,-24,107,78,-119,41,39,0,-34,-58,-63,-58
-185,-4,180,95,-183,87,175,190,97,-24,-43,-58
-258,14,273,122,-265,143,351,370,292,29,-29,-63
-307,68,375,119,-341,222,439,419,483,122,39,-24
-312,136,448,87,-380,292,468,424,624,258,151,68
-234,239,473,-2,-353,356,375,312,566,375,292,204
-14,346,361,-165,-187,353,204,170,278,444,424,356
322,488,165,-405,78,326,-151,-146,-68,527,595,556
746,756,9,-751,368,383,-722,-624,-346,761,897,897
1215,1058,-156,-1137,685,451,-1307,-1083,-463,1088,1283,1283
1747,1210,-536,-1478,1141,336,-1888,-1444,-551,1342,1571,1571
2044,1073,-971,-1559,1507,51,-2083,-1561,-688,1278,1527,1561
2039,546,-1493,-1293,1766,-473,-1830,-1351,-966,605,883,1029
1922,29,-1893,-976,1908,-932,-1459,-1063,-1180,-4,297,512
1610,-122,-1732,-744,1671,-927,-1151,-912,-1137,-283,4,258
1268,-175,-1444,-546,1356,-810,-897,-795,-1088,-488,-214,63
1029,-141,-1171,-444,1100,-656,-766,-707,-1000,-517,-258,0
844,-131,-976,-356,910,-553,-649,-614,-883,-512,-283,-48
649,-112,-761,-268,705,-436,-502,-488,-741,-448,-258,-63
492,-107,-600,-192,546,-353,-375,-361,-600,-390,-229,-82
302,-112,-414,-95,358,-263,-273,-273,-458,-341,-229,-126
165,-112,-278,-26,222,-195,-180,-195,-356,-292,-219,-146
78,-112,-190,17,134,-151,-73,-97,-248,-229,-175,-131
-4,-117,-112,61,53,-114,19,-9,-161,-185,-151,-122
-78,-122,-43,100,-17,-82,53,39,-82,-151,-136,-117
-107,-131,-24,119,-41,-78,78,58,-48,-131,-131,-122
-117,-141,-24,129,-46,-82,107,78,-43,-117,-122,-122
-126,-141,-14,134,-56,-78,126,102,-14,-97,-102,-117
-136,-136,0,136,-68,-68,126,102,-9,-97,-102,-112
-141,-131,9,136,-75,-61,126,102,-9,-92,-102,-112
-146,-131,14,139,-80,-58,131,102,-9,-92,-107,-112
-146,-136,9,141,-78,-63,141,107,0,-87,-112,-112
-146,-136,9,141,-78,-63,141,112,4,-82,-107,-112
-151,-136,14,143,-82,-61,141,112,4,-82,-102,-112
-151,-136,14,143,-82,-61,146,112,4,-87,-102,-112
-151,-136,14,143,-82,-61,146,117,4,-87,-107,-112
-151,-136,14,143,-82,-61,151,122,9,-82,-112,-112
-156,-136,19,146,-87,-58,151,126,9,-82,-112,-117
-156,-136,19,146,-87,-58,156,126,14,-82,-112,-117
-156,-136,19,146,-87,-58,156,126,19,-82,-112,-117
-156,-141,14,148,-85,-63,156,136,29,-82,-102,-112
-156,-146,9,151,-82,-68,161,136,39,-78,-97,-107
-156,-141,14,148,-85,-63,165,141,43,-78,-97,-102
-156,-141,14,148,-85,-63,175,151,48,-78,-97,-102
-156,-141,14,148,-85,-63,175,156,53,-73,-97,-102
-156,-141,14,148,-85,-63,180,165,58,-68,-92,-102
-161,-141,19,151,-90,-61,185,165,68,-58,-87,-102
-165,-141,24,153,-95,-58,185,170,78,-58,-82,-102
-165,-131,34,148,-100,-48,185,170,87,-43,-82,-102
-165,-126,39,146,-102,-43,195,170,102,-34,-82,-102
-165,-122,43,143,-104,-39,190,180,107,-34,-82,-102
-165,-122,43,143,-104,-39,185,185,117,-29,-82,-102
-170,-126,43,148,-107,-41,190,195,122,-39,-78,-97
-170,-131,39,151,-104,-46,195,200,131,-34,-78,-97
-170,-122,48,146,-109,-36,204,209,146,-24,-68,-92
-170,-117,53,143,-112,-31,214,214,156,-19,-68,-92
-170,-107,63,139,-117,-21,214,224,175,-4,-58,-87
-170,-92,78,131,-124,-7,219,234,195,9,-43,-82
-161,-92,68,126,-114,-12,224,244,209,24,-39,-78
-156,-82,73,119,-114,-4,229,248,229,34,-24,-73
-156,-73,82,114,-119,4,229,258,248,39,-24,-63
-156,-68,87,112,-122,9,234,263,268,48,-14,-53
-156,-68,87,112,-122,9,234,273,287,68,-9,-53
-156,-58,97,107,-126,19,239,278,317,87,4,-48
-156,-43,112,100,-134,34,239,292,341,97,14,-34
-156,-29,126,92,-141,48,244,292,366,107,19,-24
-151,-14,136,82,-143,61,244,292,390,126,39,-9
-151,4,156,73,-153,80,244,297,414,146,48,-4
-151,9,161,70,-156,85,244,297,429,151,58,4
-151,29,180,61,-165,104,244,302,453,170,82,19
-151,48,200,51,-175,124,239,302,478,195,87,34
-156,68,224,43,-190,146,229,297,502,204,102,43
-151,73,224,39,-187,148,214,297,512,224,112,48
-146,82,229,31,-187,156,209,287,527,248,122,58
-146,97,244,24,-195,170,204,283,536,248,136,73
-141,102,244,19,-192,173,200,273,541,248,141,82
-136,112,248,12,-192,180,180,258,546,258,146,87
-126,126,253,0,-190,190,170,248,546,263,151,102
-126,131,258,-2,-192,195,165,239,546,268,156,102
-117,136,253,-9,-185,195,156,229,541,268,156,102
-112,146,258,-17,-185,202,141,224,531,268,156,102
-102,146,248,-21,-175,197,131,195,527,263,165,112
-92,151,244,-29,-168,197,117,185,517,263,165,112
-87,156,244,-34,-165,200,107,170,502,263,165,112
-82,156,239,-36,-161,197,97,165,488,253,165,112
-73,156,229,-41,-151,192,87,146,473,244,161,112
-63,151,214,-43,-139,183,82,131,453,239,156,112
-58,146,204,-43,-131,175,78,122,434,229,156,112
-48,146,195,-48,-122,170,68,117,414,224,151,112
-43,146,190,-51,-117,168,58,97,400,214,146,112
-43,146,190,-51,-117,168,48,87,370,209,151,112
-34,141,175,-53,-104,158,34,73,351,204,146,112
-19,146,165,-63,-92,156,19,58,326,190,141,107
-9,141,151,-65,-80,146,4,39,297,185,136,107
0,136,136,-68,-68,136,0,29,268,175,131,102
4,131,126,-68,-61,129,-9,19,248,165,126,102
9,126,117,-68,-53,122,-19,4,224,151,117,102
9,112,102,-61,-46,107,-19,-4,190,136,112,87
9,112,102,-61,-46,107,-24,-14,165,117,97,82
14,102,87,-58,-36,95,-29,-19,141,107,87,78
9,92,82,-51,-36,87,-34,-24,117,97,82,68
4,82,78,-43,-36,80,-34,-29,87,82,68,63
9,68,58,-39,-24,63,-34,-29,68,63,58,53
9,53,43,-31,-17,48,-34,-29,48,48,48,48
0,39,39,-19,-19,39,-34,-34,29,39,39,39
0,29,29,-14,-14,29,-29,-43,9,24,29,34
0,19,19,-9,-9,19,-29,-43,-4,14,29,24
-4,9,14,-2,-9,12,-24,-43,-14,9,29,29
-9,4,14,2,-12,9,-24,-43,-34,-4,4,19
-9,-4,4,7,-7,0,-19,-39,-43,-9,-9,9
-9,-19,-9,14,0,-14,-19,-39,-58,-24,-19,-4
-14,-29,-14,21,0,-21,-14,-39,-73,-39,-29,-19
-14,-39,-24,26,4,-31,-9,-34,-78,-43,-29,-24
-14,-43,-29,29,7,-36,-9,-34,-82,-43,-34,-29
-14,-43,-29,29,7,-36,-9,-34,-82,-48,-34,-29
-19,-43,-24,31,2,-34,-9,-29,-82,-53,-34,-29
-19,-43,-24,31,2,-34,-4,-24,-82,-58,-34,-29
-19,-48,-29,34,4,-39,0,-24,-87,-58,-43,-29
-19,-53,-34,36,7,-43,0,-24,-87,-58,-43,-29
-19,-53,-34,36,7,-43,0,-19,-87,-58,-43,-34
-24,-58,-34,41,4,-46,4,-19,-82,-63,-43,-34
-24,-58,-34,41,4,-46,4,-14,-78,-63,-43,-34
-19,-58,-39,39,9,-48,9,-14,-73,-63,-43,-39
-14,-58,-43,36,14,-51,9,-9,-73,-63,-43,-39
-14,-58,-43,36,14,-51,9,-9,-73,-63,-43,-43
-19,-58,-39,39,9,-48,9,-9,-73,-58,-43,-43
-19,-58,-39,39,9,-48,14,-4,-73,-58,-43,-43
-19,-63,-43,41,12,-53,19,0,-73,-63,-43,-48
-19,-68,-48,43,14,-58,24,0,-63,-63,-43,-53
-29,-68,-39,48,4,-53,24,4,-58,-58,-43,-53
-34,-63,-29,48,-2,-46,24,9,-53,-58,-43,-48
-39,-63,-24,51,-7,-43,29,14,-43,-48,-39,-43
-39,-53,-14,46,-12,-34,29,14,-39,-39,-39,-39
-43,-48,-4,46,-19,-26,29,19,-34,-24,-39,-34
-43,-43,0,43,-21,-21,24,14,-29,-24,-29,-34
-39,-34,4,36,-21,-14,19,9,-29,-24,-24,-34
-43,-34,9,39,-26,-12,19,9,-24,-29,-24,-34
-43,-34,9,39,-26,-12,19,14,-24,-39,-24,-34
-48,-39,9,43,-29,-14,29,14,-14,-34,-29,-34
-48,-43,4,46,-26,-19,34,14,-14,-34,-29,-34
-48,-43,4,46,-26,-19,34,14,-14,-34,-29,-34
-53,-43,9,48,-31,-17,39,19,-9,-29,-29,-29
-53,-39,14,46,-34,-12,39,19,-9,-24,-24,-29
-53,-34,19,43,-36,-7,39,14,-9,-14,-19,-29
-58,-29,29,43,-43,0,39,14,-4,-14,-14,-29
-63,-29,34,46,-48,2,39,14,0,-19,-14,-29
-68,-34,34,51,-51,0,34,14,0,-19,-14,-29
-68,-39,29,53,-48,-4,34,14,0,-19,-19,-29
-73,-39,34,56,-53,-2,34,9,0,-19,-19,-29
-73,-39,34,56,-53,-2,34,9,0,-19,-19,-34
-68,-39,29,53,-48,-4,29,9,-9,-24,-19,-34
-68,-39,29,53,-48,-4,24,4,-9,-24,-19,-34
-68,-39,29,53,-48,-4,24,4,-14,-24,-24,-29
-73,-39,34,56,-53,-2,24,4,-14,-29,-24,-24
-73,-34,39,53,-56,2,29,4,-14,-29,-24,-24
-73,-39,34,56,-53,-2,34,4,-24,-29,-24,-24
-73,-39,34,56,-53,-2,34,4,-29,-34,-29,-34
-73,-43,29,58,-51,-7,34,4,-29,-34,-29,-34
-73,-48,24,61,-48,-12,34,0,-34,-34,-39,-39
-73,-53,19,63,-46,-17,34,0,-34,-43,-39,-39
-73,-53,19,63,-46,-17,34,0,-39,-39,-39,-39
-73,-53,19,63,-46,-17,29,0,-48,-43,-39,-34
-73,-53,19,63,-46,-17,29,-4,-48,-43,-39,-34
-73,-53,19,63,-46,-17,29,-4,-48,-48,-39,-39
-73,-53,19,63,-46,-17,29,0,-53,-53,-39,-43
-73,-58,14,65,-43,-21,29,0,-58,-53,-43,-43
-73,-63,9,68,-41,-26,29,0,-68,-53,-43,-43
-73,-63,9,68,-41,-26,29,0,-68,-58,-43,-43
-73,-63,9,68,-41,-26,24,0,-68,-58,-48,-48
-73,-63,9,68,-41,-26,24,-4,-68,-58,-53,-53
-73,-58,14,65,-43,-21,19,-4,-68,-58,-53,-53
-73,-58,14,65,-43,-21,19,-4,-73,-63,-53,-53
-73,-63,9,68,-41,-26,24,-9,-78,-68,-58,-48
-73,-63,9,68,-41,-26,24,-14,-78,-68,-63,-48
-73,-63,9,68,-41,-26,19,-14,-78,-68,-63,-48
-73,-63,9,68,-41,-26,14,-14,-78,-68,-63,-48
-68,-63,4,65,-36,-29,14,-14,-78,-73,-58,-53
-63,-63,0,63,-31,-31,14,-14,-78,-78,-58,-58
-68,-63,4,65,-36,-29,14,-14,-78,-78,-58,-58
-68,-63,4,65,-36,-29,14,-19,-82,-78,-58,-58
-68,-63,4,65,-36,-29,14,-19,-82,-73,-58,-53
-68,-63,4,65,-36,-29,9,-19,-82,-68,-53,-53
-68,-58,9,63,-39,-24,14,-19,-82,-73,-53,-53
-68,-53,14,61,-41,-19,19,-19,-82,-73,-53,-53
-68,-53,14,61,-41,-19,19,-24,-78,-73,-53,-53
-63,-53,9,58,-36,-21,19,-24,-73,-73,-48,-53
-68,-53,14,61,-41,-19,19,-24,-78,-73,-53,-53
-73,-58,14,65,-43,-21,19,-19,-78,-73,-58,-53
-73,-58,14,65,-43,-21,14,-24,-78,-73,-53,-53
-73,-63,9,68,-41,-26,14,-29,-82,-73,-53,-53
-68,-63,4,65,-36,-29,14,-24,-78,-68,-53,-53
-68,-68,0,68,-34,-34,19,-19,-78,-68,-58,-58
-68,-68,0,68,-34,-34,19,-19,-78,-68,-58,-58
-68,-68,0,68,-34,-34,19,-19,-78,-68,-58,-58
-68,-63,4,65,-36,-29,14,-19,-82,-68,-58,-58
-68,-58,9,63,-39,-24,9,-19,-87,-68,-58,-58
-68,-58,9,63,-39,-24,9,-19,-87,-68,-58,-53
-68,-58,9,63,-39,-24,9,-19,-87,-68,-58,-48
-68,-58,9,63,-39,-24,14,-19,-82,-68,-58,-48
-68,-58,9,63,-39,-24,19,-19,-78,-68,-58,-48
-68,-48,19,58,-43,-14,19,-19,-73,-63,-58,-48
-68,-39,29,53,-48,-4,19,-19,-68,-58,-58,-48
-63,-19,43,41,-53,12,14,-19,-53,-43,-43,-39
-58,0,58,29,-58,29,9,-19,-39,-29,-29,-29
-58,19,78,19,-68,48,4,-24,-29,-24,-19,-19
-58,39,97,9,-78,68,0,-29,-19,-19,-9,-9
-58,29,87,14,-73,58,0,-29,-19,-19,-9,-9
-58,24,82,17,-70,53,0,-24,-14,-14,-9,-9
-58,19,78,19,-68,48,4,-24,-14,-14,-9,-9
-48,34,82,7,-65,58,9,-24,-9,-4,0,0
-34,53,87,-9,-61,70,0,-24,4,4,9,4
-24,68,92,-21,-58,80,-9,-29,9,14,19,9
-24,68,92,-21,-58,80,-34,-43,4,9,24,9
-19,63,82,-21,-51,73,-53,-68,-14,4,9,4
-19,63,82,-21,-51,73,-82,-102,-19,-9,4,0
-24,68,92,-21,-58,80,-82,-107,-24,-9,4,0
-24,68,92,-21,-58,80,-87,-112,-39,-9,4,4
-19,68,87,-24,-53,78,-87,-112,-43,-9,4,9
-9,53,63,-21,-36,58,-78,-97,-48,-9,4,9
-4,34,39,-14,-21,36,-68,-87,-68,-29,-9,0
-4,24,29,-9,-17,26,-58,-78,-78,-43,-24,-14
-14,19,34,-2,-24,26,-48,-73,-78,-43,-29,-14
-19,9,29,4,-24,19,-43,-63,-82,-48,-29,-14
-29,-4,24,17,-26,9,-34,-58,-92,-58,-34,-24
-39,-14,24,26,-31,4,-29,-58,-92,-53,-34,-29
-48,-29,19,39,-34,-4,-19,-53,-97,-58,-43,-39
-58,-48,9,53,-34,-19,-9,-43,-92,-58,-53,-43
-73,-58,14,65,-43,-21,9,-34,-92,-73,-58,-53
-92,-73,19,82,-56,-26,14,-24,-97,-82,-73,-58
-97,-78,19,87,-58,-29,29,-24,-97,-82,-73,-63
-97,-87,9,92,-53,-39,29,-29,-102,-87,-78,-68
-97,-87,9,92,-53,-39,24,-29,-102,-87,-78,-68
-97,-92,4,95,-51,-43,24,-34,-102,-87,-78,-68
-97,-97,0,97,-48,-48,24,-34,-102,-87,-78,-68
-97,-97,0,97,-48,-48,24,-29,-102,-87,-78,-68
-97,-97,0,97,-48,-48,24,-29,-107,-92,-82,-73
-97,-97,0,97,-48,-48,24,-29,-112,-97,-82,-78
-97,-97,0,97,-48,-48,24,-29,-117,-102,-78,-78
-102,-97,4,100,-53,-46,24,-29,-112,-97,-78,-78
-107,-97,9,102,-58,-43,24,-29,-112,-97,-78,-78
-107,-97,9,102,-58,-43,24,-29,-112,-97,-78,-73
-102,-97,4,100,-53,-46,24,-29,-112,-97,-78,-73
-97,-97,0,97,-48,-48,24,-29,-107,-97,-78,-73
-92,-97,-4,95,-43,-51,24,-29,-107,-97,-78,-73
-92,-92,0,92,-46,-46,24,-29,-107,-92,-78,-73
-92,-92,0,92,-46,-46,24,-24,-102,-92,-73,-68
-97,-82,14,90,-56,-34,24,-19,-92,-82,-63,-58
-112,-43,68,78,-90,12,29,-14,-39,-48,-39,-43
-151,-4,146,78,-148,70,73,34,43,-9,-14,-24
-204,14,219,95,-212,117,244,258,195,34,4,-19
-258,43,302,107,-280,173,380,385,361,102,34,-4
-287,107,395,90,-341,251,429,380,522,209,117,53
-244,195,439,24,-341,317,400,341,575,331,234,161
-117,317,434,-100,-275,375,248,185,429,434,380,312
156,434,278,-295,-61,356,0,-9,126,512,527,473
546,585,39,-566,253,312,-434,-380,-234,605,712,683
980,819,-161,-900,570,329,-990,-824,-448,839,1000,1005
1459,1088,-370,-1273,915,358,-1561,-1249,-502,1166,1371,1371
1908,1122,-785,-1515,1346,168,-1981,-1493,-605,1283,1512,1527
2122,868,-1254,-1495,1688,-192,-2015,-1493,-756,1083,1322,1385
2059,375,-1683,-1217,1871,-653,-1737,-1283,-990,434,697,868
1883,-107,-1991,-888,1937,-1049,-1342,-995,-1161,-151,131,366
1571,-185,-1756,-692,1664,-971,-1078,-863,-1098,-356,-82,170
1229,-165,-1395,-531,1312,-780,-868,-766,-1029,-488,-224,34
995,-126,-1122,-434,1058,-624,-732,-683,-927,-488,-244,-4
814,-112,-927,-351,871,-519,-610,-595,-795,-453,-244,-29
619,-92,-712,-263,666,-402,-473,-468,-653,-390,-219,-43
463,-87,-551,-187,507,-319,-356,-341,-512,-331,-190,-63
273,-92,-366,-90,319,-229,-244,-253,-380,-287,-190,-102
136,-92,-229,-21,183,-161,-141,-175,-287,-244,-180,-117
58,-97,-156,19,107,-126,-53,-82,-190,-185,-141,-102
-14,-107,-92,61,39,-100,19,0,-112,-146,-122,-92
-82,-112,-29,97,-26,-70,53,43,-48,-112,-107,-92
-107,-122,-14,114,-46,-68,78,58,-29,-92,-102,-102
-117,-131,-14,124,-51,-73,107,73,-29,-87,-102,-102
-126,-131,-4,129,-61,-68,126,92,-4,-78,-92,-97
-136,-126,9,131,-73,-58,126,92,0,-82,-92,-92
-141,-122,19,131,-80,-51,126,92,0,-82,-92,-92
-146,-122,24,134,-85,-48,131,97,4,-82,-92,-92
-146,-126,19,136,-82,-53,141,107,19,-78,-92,-92
-146,-126,19,136,-82,-53,141,112,24,-73,-87,-92
-151,-126,24,139,-87,-51,141,112,24,-73,-82,-92
-151,-126,24,139,-87,-51,146,112,29,-73,-78,-92
-151,-126,24,139,-87,-51,146,117,34,-68,-78,-92
-156,-126,29,141,-92,-48,151,122,39,-58,-82,-92
-165,-126,39,146,-102,-43,151,126,39,-53,-82,-97
-165,-126,39,146,-102,-43,156,126,43,-53,-87,-97
-165,-126,39,146,-102,-43,156,126,48,-53,-92,-97
-161,-126,34,143,-97,-46,156,136,48,-53,-87,-97
-156,-126,29,141,-92,-48,161,136,48,-48,-87,-97
-156,-122,34,139,-95,-43,161,136,53,-48,-87,-92
-156,-122,34,139,-95,-43,165,141,58,-48,-87,-92
-161,-122,39,141,-100,-41,165,146,68,-48,-87,-97
-165,-122,43,143,-104,-39,170,156,78,-48,-82,-102
-165,-122,43,143,-104,-39,175,156,87,-39,-78,-97
-165,-122,43,143,-104,-39,175,161,97,-39,-73,-92
-165,-117,48,141,-107,-34,175,165,102,-29,-73,-87
-165,-117,48,141,-107,-34,185,170,112,-24,-73,-82
-165,-107,58,136,-112,-24,185,180,122,-24,-73,-82
-165,-102,63,134,-114,-19,185,185,136,-19,-73,-82
-170,-102,68,136,-119,-17,190,190,146,-19,-63,-78
-170,-102,68,136,-119,-17,195,190,161,-4,-58,-78
-170,-92,78,131,-124,-7,200,200,170,4,-48,-73
-170,-87,82,129,-126,-2,204,204,175,9,-48,-73
-170,-92,78,131,-124,-7,204,219,195,19,-48,-73
-170,-92,78,131,-124,-7,209,234,214,29,-43,-73
-165,-92,73,129,-119,-9,214,244,229,43,-39,-68
-165,-82,82,124,-124,0,219,248,248,53,-24,-63
-165,-68,97,117,-131,14,219,258,268,58,-19,-53
-165,-58,107,112,-136,24,224,263,287,68,-4,-43
-165,-58,107,112,-136,24,224,273,307,87,0,-43
-165,-48,117,107,-141,34,229,278,336,107,14,-39
-165,-34,131,100,-148,48,229,297,361,122,24,-24
-165,-19,146,92,-156,63,234,302,385,136,29,-14
-161,-4,156,82,-158,75,234,302,409,156,48,0
-161,14,175,73,-168,95,234,307,434,175,58,4
-161,19,180,70,-170,100,234,307,448,180,68,14
-161,39,200,61,-180,119,234,312,473,200,92,29
-156,58,214,48,-185,136,234,312,492,224,97,43
-156,78,234,39,-195,156,229,307,512,234,112,53
-151,82,234,34,-192,158,214,302,522,239,122,58
-146,92,239,26,-192,165,209,287,536,248,131,68
-146,107,253,19,-200,180,204,283,546,258,146,78
-141,112,253,14,-197,183,200,273,551,268,151,82
-136,126,263,4,-200,195,175,258,556,278,156,87
-126,146,273,-9,-200,209,161,248,556,283,161,102
-126,151,278,-12,-202,214,156,239,551,283,165,107
-117,156,273,-19,-195,214,146,229,541,278,165,112
-112,165,278,-26,-195,222,136,224,531,278,165,112
-102,165,268,-31,-185,217,131,195,527,273,175,122
-92,165,258,-36,-175,212,117,185,522,273,175,122
-87,165,253,-39,-170,209,107,170,512,273,175,122
-82,165,248,-41,-165,207,97,165,497,268,180,126
-73,165,239,-46,-156,202,87,146,483,263,180,131
-63,165,229,-51,-146,197,73,126,463,258,175,131
-58,165,224,-53,-141,195,58,112,444,248,175,131
-48,165,214,-58,-131,190,48,107,424,248,170,126
-43,165,209,-61,-126,187,39,87,409,244,165,122
-39,161,200,-61,-119,180,34,78,375,234,165,122
-24,151,175,-63,-100,163,24,63,351,224,156,122
-14,151,165,-68,-90,158,9,48,322,200,146,112
-9,141,151,-65,-80,146,-4,29,287,185,136,107
0,136,136,-68,-68,136,-9,19,258,175,131,102
4,131,126,-68,-61,129,-19,9,239,165,126,102
9,126,117,-68,-53,122,-29,-4,214,151,122,107
9,112,102,-61,-46,107,-29,-14,180,136,122,97
9,112,102,-61,-46,107,-34,-29,156,117,107,92
14,102,87,-58,-36,95,-39,-39,131,107,97,87
14,92,78,-53,-31,85,-48,-43,107,102,92,78
14,82,68,-48,-26,75,-53,-48,78,92,78,73
19,73,53,-46,-17,63,-53,-48,58,73,68,63
19,63,43,-41,-12,53,-53,-48,39,58,58,58
9,48,39,-29,-14,43,-53,-48,14,43,39,39
9,39,29,-24,-9,34,-48,-53,-9,24,19,24
9,24,14,-17,-2,19,-48,-53,-24,9,9,9
4,9,4,-7,0,7,-43,-53,-34,0,0,9
0,4,4,-2,-2,4,-43,-58,-48,-14,-9,0
0,-4,-4,2,2,-4,-39,-58,-53,-19,-9,-9
0,-14,-14,7,7,-14,-39,-58,-58,-29,-19,-19
-4,-19,-14,12,4,-17,-34,-58,-63,-39,-29,-29
-4,-29,-24,17,9,-26,-29,-53,-68,-43,-29,-29
-4,-34,-29,19,12,-31,-29,-53,-73,-43,-34,-29
-4,-34,-29,19,12,-31,-29,-53,-78,-43,-34,-29
-9,-34,-24,21,7,-29,-29,-48,-82,-43,-34,-29
-9,-34,-24,21,7,-29,-24,-39,-82,-53,-34,-34
-9,-39,-29,24,9,-34,-19,-34,-87,-58,-43,-39
-9,-43,-34,26,12,-39,-19,-34,-87,-58,-43,-39
-9,-43,-34,26,12,-39,-19,-29,-87,-58,-43,-43
-14,-48,-34,31,9,-41,-14,-29,-87,-63,-43,-43
-14,-48,-34,31,9,-41,-14,-24,-87,-63,-43,-43
-14,-53,-39,34,12,-46,-9,-24,-82,-63,-48,-48
-14,-58,-43,36,14,-51,-9,-19,-82,-63,-53,-48
-19,-58,-39,39,9,-48,-9,-19,-78,-63,-53,-48
-29,-58,-29,43,0,-43,-9,-19,-73,-58,-53,-43
-29,-53,-24,41,-2,-39,-4,-19,-73,-58,-53,-39
-29,-53,-24,41,-2,-39,0,-19,-73,-63,-53,-39
-29,-53,-24,41,-2,-39,4,-19,-63,-63,-53,-43
-39,-48,-9,43,-14,-29,4,-14,-58,-58,-53,-43
-39,-43,-4,41,-17,-24,4,-14,-58,-58,-53,-43
-39,-43,-4,41,-17,-24,9,-14,-53,-48,-48,-43
-39,-39,0,39,-19,-19,9,-14,-48,-48,-48,-43
-43,-39,4,41,-24,-17,9,-9,-43,-43,-48,-43
-48,-43,4,46,-26,-19,9,-9,-39,-43,-48,-43
-48,-43,4,46,-26,-19,9,-9,-39,-43,-53,-43
-53,-43,9,48,-31,-17,9,-9,-34,-39,-53,-43
-53,-43,9,48,-31,-17,9,-4,-34,-39,-53,-43
-63,-39,24,51,-43,-7,14,-4,-24,-29,-48,-39
-68,-34,34,51,-51,0,14,-4,-24,-24,-39,-34
-68,-34,34,51,-51,0,14,-4,-24,-24,-39,-34
-73,-34,39,53,-56,2,19,0,-19,-19,-39,-29
-68,-34,34,51,-51,0,19,0,-19,-24,-39,-34
-63,-34,29,48,-46,-2,19,-4,-19,-24,-39,-39
-63,-29,34,46,-48,2,19,-4,-19,-24,-39,-39
-63,-29,34,46,-48,2,19,-4,-19,-29,-43,-39
-68,-29,39,48,-53,4,14,-4,-19,-29,-39,-39
-68,-29,39,48,-53,4,14,-4,-19,-29,-39,-39
-73,-29,43,51,-58,7,14,-9,-19,-29,-39,-39
-73,-29,43,51,-58,7,14,-9,-19,-29,-39,-43
-68,-34,34,51,-51,0,14,-9,-29,-43,-39,-43
-68,-39,29,53,-48,-4,14,-14,-29,-53,-39,-43
-68,-39,29,53,-48,-4,14,-14,-34,-43,-43,-43
-73,-39,34,56,-53,-2,14,-14,-34,-39,-43,-43
-73,-39,34,56,-53,-2,14,-14,-34,-43,-48,-39
-73,-48,24,61,-48,-12,14,-14,-43,-48,-53,-34
-68,-48,19,58,-43,-14,14,-14,-48,-53,-58,-43
-63,-53,9,58,-36,-21,14,-14,-48,-53,-58,-43
-63,-48,14,56,-39,-17,14,-19,-53,-53,-63,-48
-63,-43,19,53,-41,-12,14,-19,-53,-63,-58,-48
-68,-43,24,56,-46,-9,14,-19,-53,-53,-58,-48
-73,-43,29,58,-51,-7,9,-19,-58,-53,-58,-43
-73,-43,29,58,-51,-7,9,-24,-58,-53,-58,-43
-73,-43,29,58,-51,-7,9,-24,-58,-58,-58,-48
-73,-43,29,58,-51,-7,9,-24,-63,-68,-63,-58
-73,-48,24,61,-48,-12,9,-29,-68,-73,-73,-63
-73,-53,19,63,-46,-17,9,-29,-78,-73,-73,-63
-73,-53,19,63,-46,-17,9,-29,-78,-78,-73,-63
-73,-53,19,63,-46,-17,9,-24,-78,-78,-73,-63
-73,-53,19,63,-46,-17,14,-24,-78,-78,-73,-63
-73,-53,19,63,-46,-17,9,-24,-78,-73,-73,-63
-73,-58,14,65,-43,-21,9,-24,-82,-73,-73,-63
-73,-63,9,68,-41,-26,14,-24,-87,-78,-78,-63
-73,-63,9,68,-41,-26,14,-24,-87,-78,-82,-68
-73,-63,9,68,-41,-26,14,-24,-87,-78,-82,-68
-73,-63,9,68,-41,-26,14,-24,-87,-78,-82,-68
-73,-63,9,68,-41,-26,14,-24,-87,-78,-78,-68
-73,-63,9,68,-41,-26,14,-24,-87,-78,-78,-68
-78,-63,14,70,-46,-24,14,-24,-87,-82,-78,-68
-78,-63,14,70,-46,-24,14,-29,-92,-87,-78,-68
-78,-63,14,70,-46,-24,14,-29,-92,-87,-82,-68
-78,-63,14,70,-46,-24,9,-29,-92,-87,-82,-73
-78,-73,4,75,-41,-34,9,-29,-92,-92,-82,-73
-78,-82,-4,80,-36,-43,9,-29,-92,-92,-82,-73
-78,-73,4,75,-41,-34,9,-34,-92,-92,-82,-73
-73,-63,9,68,-41,-26,9,-34,-92,-92,-78,-73
-73,-63,9,68,-41,-26,9,-34,-97,-92,-78,-73
-73,-68,4,70,-39,-31,9,-29,-97,-92,-78,-73
-78,-63,14,70,-46,-24,4,-34,-97,-97,-78,-73
-82,-63,19,73,-51,-21,4,-39,-102,-102,-82,-73
-78,-53,24,65,-51,-14,0,-39,-97,-92,-78,-68
-78,-48,29,63,-53,-9,0,-39,-97,-87,-78,-68
-78,-48,29,63,-53,-9,0,-34,-97,-87,-78,-68
-78,-48,29,63,-53,-9,0,-29,-97,-87,-78,-68
-78,-53,24,65,-51,-14,0,-29,-97,-92,-82,-73
-78,-58,19,68,-48,-19,0,-29,-97,-97,-87,-78
-82,-63,19,73,-51,-21,0,-29,-102,-97,-87,-78
-87,-68,19,78,-53,-24,0,-29,-107,-97,-87,-78
-87,-68,19,78,-53,-24,4,-29,-107,-97,-87,-73
-87,-68,19,78,-53,-24,9,-29,-107,-97,-87,-68
-82,-63,19,73,-51,-21,9,-29,-102,-97,-87,-68
-78,-58,19,68,-48,-19,9,-29,-97,-97,-87,-68
-73,-43,29,58,-51,-7,9,-29,-92,-87,-78,-63
-68,-29,39,48,-53,4,9,-29,-87,-78,-68,-58
-68,-4,63,36,-65,29,4,-34,-73,-63,-58,-48
-68,19,87,24,-78,53,0,-39,-58,-48,-48,-39
-73,19,92,26,-82,56,0,-39,-53,-48,-48,-39
-78,19,97,29,-87,58,0,-39,-48,-48,-48,-39
-78,9,87,34,-82,48,4,-34,-48,-53,-48,-39
-68,14,82,26,-75,48,4,-29,-43,-48,-43,-34
-63,24,87,19,-75,56,9,-24,-39,-43,-39,-29
-43,53,97,-4,-70,75,0,-24,-24,-34,-29,-19
-34,68,102,-17,-68,85,-14,-29,-19,-24,-19,-9
-34,73,107,-19,-70,90,-39,-39,-19,-24,-9,-4
-29,73,102,-21,-65,87,-53,-58,-34,-24,-19,-4
-29,73,102,-21,-65,87,-82,-92,-39,-39,-24,-9
-34,78,112,-21,-73,95,-82,-102,-39,-39,-24,-9
-34,78,112,-21,-73,95,-87,-112,-48,-39,-24,-9
-29,87,117,-29,-73,102,-87,-112,-53,-39,-24,-9
-19,82,102,-31,-61,92,-78,-97,-58,-39,-24,-9
-14,53,68,-19,-41,61,-68,-87,-82,-58,-39,-19
-14,24,39,-4,-26,31,-58,-82,-97,-73,-53,-34
-24,9,34,7,-29,21,-53,-82,-97,-73,-58,-34
-29,0,29,14,-29,14,-53,-73,-102,-78,-63,-39
-39,-9,29,24,-34,9,-43,-68,-112,-87,-73,-53
-48,-14,34,31,-41,9,-39,-63,-112,-87,-73,-58
-58,-29,29,43,-43,0,-29,-53,-117,-92,-82,-63
-68,-48,19,58,-43,-14,-19,-43,-117,-87,-92,-63
-82,-58,24,70,-53,-17,4,-34,-117,-102,-82,-73
-102,-73,29,87,-65,-21,14,-24,-117,-112,-82,-78
-107,-82,24,95,-65,-29,29,-24,-117,-112,-92,-82
-107,-97,9,102,-58,-43,29,-29,-122,-117,-107,-87
-107,-102,4,104,-56,-48,24,-29,-126,-122,-112,-92
-107,-107,0,107,-53,-53,24,-34,-131,-126,-117,-97
-107,-107,0,107,-53,-53,24,-34,-131,-126,-117,-97
-107,-107,0,107,-53,-53,24,-29,-131,-126,-117,-97
-107,-107,0,107,-53,-53,24,-29,-136,-131,-122,-102
-107,-107,0,107,-53,-53,24,-29,-136,-131,-122,-102
-107,-107,0,107,-53,-53,24,-24,-136,-131,-117,-97
-107,-107,0,107,-53,-53,24,-19,-131,-126,-117,-97
-107,-97,9,102,-58,-43,24,-19,-131,-126,-117,-97
-107,-87,19,97,-63,-34,24,-19,-131,-126,-117,-97
-102,-87,14,95,-58,-36,24,-24,-131,-126,-117,-102
-102,-87,14,95,-58,-36,24,-29,-126,-126,-117,-102
-102,-92,9,97,-56,-41,24,-29,-126,-126,-117,-102
-102,-92,9,97,-56,-41,24,-29,-126,-122,-117,-102
-102,-97,4,100,-53,-46,24,-24,-136,-126,-112,-97
-107,-92,14,100,-61,-39,29,-14,-136,-122,-102,-87
-112,-53,58,82,-85,2,9,-39,-92,-92,-82,-78
-141,-14,126,78,-134,56,24,-24,-24,-58,-63,-63
-195,4,200,95,-197,102,209,229,126,-24,-48,-58
-248,39,287,104,-268,163,351,380,292,39,-14,-39
-322,82,405,119,-363,244,444,414,522,146,58,-4
-302,146,448,78,-375,297,453,405,619,263,156,78
-219,258,478,-19,-348,368,361,283,502,361,287,214
-9,375,385,-183,-197,380,170,122,268,448,439,375
366,517,151,-441,107,334,-239,-248,-146,512,605,570
775,722,-53,-749,414,334,-736,-668,-429,692,844,849
1307,1093,-214,-1200,761,439,-1424,-1195,-488,1107,1317,1307
1776,1205,-570,-1490,1173,317,-1947,-1527,-605,1278,1527,1532
2054,976,-1078,-1515,1566,-51,-2054,-1571,-771,1127,1390,1454
2088,570,-1517,-1329,1803,-473,-1883,-1429,-995,600,888,1049
1937,0,-1937,-968,1937,-968,-1444,-1088,-1195,-58,239,468
1659,-195,-1854,-732,1756,-1024,-1137,-902,-1171,-366,-82,180
1273,-175,-1449,-549,1361,-812,-907,-805,-1102,-527,-248,24
1005,-141,-1146,-431,1076,-644,-756,-717,-1005,-556,-292,-39
824,-126,-951,-348,888,-539,-639,-624,-873,-522,-292,-68
624,-107,-732,-258,678,-419,-502,-497,-732,-458,-268,-82
468,-107,-575,-180,522,-341,-375,-361,-590,-400,-239,-102
292,-112,-405,-90,348,-258,-263,-268,-463,-351,-239,-136
165,-112,-278,-26,222,-195,-170,-195,-361,-302,-229,-146
78,-112,-190,17,134,-151,-82,-107,-248,-244,-190,-131
-9,-117,-107,63,48,-112,4,-19,-161,-190,-165,-122
-82,-122,-39,102,-21,-80,53,34,-87,-146,-146,-122
-102,-131,-29,117,-36,-80,78,48,-58,-131,-141,-131
-117,-141,-24,129,-46,-82,102,63,-48,-126,-141,-131
-131,-141,-9,136,-61,-75,126,97,-24,-122,-131,-126
-146,-136,9,141,-78,-63,136,112,-19,-126,-131,-122
-151,-131,19,141,-85,-56,136,112,-24,-122,-131,-122
-156,-131,24,143,-90,-53,141,112,-29,-122,-131,-122
-156,-136,19,146,-87,-58,151,117,-19,-117,-131,-122
-156,-136,19,146,-87,-58,151,122,-14,-112,-126,-122
-161,-136,24,148,-92,-56,151,122,-14,-112,-122,-122
-161,-136,24,148,-92,-56,156,122,-9,-112,-117,-122
-161,-136,24,148,-92,-56,156,126,0,-102,-112,-122
-161,-136,24,148,-92,-56,161,131,9,-92,-112,-122
-161,-136,24,148,-92,-56,161,131,9,-92,-112,-126
-156,-136,19,146,-87,-58,165,126,14,-92,-112,-126
-156,-136,19,146,-87,-58,165,126,14,-92,-117,-126
-156,-136,19,146,-87,-58,165,136,14,-92,-117,-126
-161,-141,19,151,-90,-61,170,136,19,-87,-117,-126
-165,-141,24,153,-95,-58,170,136,24,-87,-117,-122
-165,-141,24,153,-95,-58,175,141,29,-92,-117,-122
-165,-141,24,153,-95,-58,175,146,39,-92,-117,-122
-165,-141,24,153,-95,-58,180,161,48,-87,-112,-122
-165,-141,24,153,-95,-58,185,165,58,-78,-107,-117
-165,-141,24,153,-95,-58,185,170,73,-73,-97,-112
-165,-136,29,151,-97,-53,185,175,82,-58,-92,-112
-165,-136,29,151,-97,-53,195,180,92,-53,-92,-112
-165,-131,34,148,-100,-48,195,190,97,-53,-92,-112
-165,-126,39,146,-102,-43,195,195,102,-53,-97,-112
-170,-122,48,146,-109,-36,200,204,107,-58,-92,-107
-170,-122,48,146,-109,-36,204,209,122,-43,-87,-107
-170,-112,58,141,-114,-26,209,219,136,-34,-78,-102
-165,-112,53,139,-109,-29,214,219,146,-29,-78,-102
-161,-112,48,136,-104,-31,214,224,165,-19,-73,-97
-161,-102,58,131,-109,-21,219,234,185,-9,-63,-92
-156,-102,53,129,-104,-24,224,244,200,4,-58,-87
-156,-92,63,124,-109,-14,234,248,214,14,-43,-82
-156,-78,78,117,-117,0,239,258,229,19,-43,-73
-156,-68,87,112,-122,9,244,263,248,24,-39,-63
-156,-68,87,112,-122,9,244,273,268,39,-39,-63
-156,-58,97,107,-126,19,248,278,297,58,-24,-58
-156,-43,112,100,-134,34,248,292,322,73,-9,-43
-156,-29,126,92,-141,48,253,297,346,87,0,-34
-151,-14,136,82,-143,61,253,302,370,107,19,-19
-151,4,156,73,-153,80,248,307,395,131,29,-14
-151,9,161,70,-156,85,244,307,409,141,39,-4
-156,24,180,65,-168,102,244,312,439,161,68,14
-156,39,195,58,-175,117,239,312,463,185,78,34
-156,58,214,48,-185,136,234,312,488,195,92,43
-151,63,214,43,-183,139,224,312,502,204,102,48
-141,73,214,34,-178,143,219,297,517,219,112,58
-136,87,224,24,-180,156,214,292,527,229,126,73
-131,92,224,19,-178,158,209,283,531,244,136,82
-126,102,229,12,-178,165,190,268,536,258,146,87
-117,122,239,-2,-178,180,180,258,536,263,151,102
-117,131,248,-7,-183,190,175,248,531,263,156,102
-107,136,244,-14,-175,190,165,239,522,258,151,97
-102,146,248,-21,-175,197,151,234,512,258,146,92
-92,146,239,-26,-165,192,141,204,512,253,156,102
-82,151,234,-34,-158,192,126,195,507,253,156,102
-78,156,234,-39,-156,195,117,180,492,253,156,107
-73,156,229,-41,-151,192,107,175,478,244,156,112
-68,151,219,-41,-143,185,97,156,463,239,156,112
-63,146,209,-41,-136,178,87,141,444,239,156,112
-58,146,204,-43,-131,175,78,131,424,229,156,112
-48,146,195,-48,-122,170,68,126,405,224,151,112
-43,146,190,-51,-117,168,58,107,395,214,146,112
-43,141,185,-48,-114,163,53,97,366,204,146,112
-34,136,170,-51,-102,153,43,82,341,195,141,112
-24,141,165,-58,-95,153,29,68,317,180,141,107
-19,136,156,-58,-87,146,14,48,287,175,136,112
-9,136,146,-63,-78,141,9,39,258,165,131,112
-4,131,136,-63,-70,134,0,29,239,156,126,112
0,126,126,-63,-63,126,-9,14,214,141,117,112
0,112,112,-56,-56,112,-9,4,180,126,107,97
0,107,107,-53,-53,107,-14,-4,156,107,87,92
4,92,87,-48,-41,90,-19,-9,131,97,78,87
4,82,78,-43,-36,80,-24,-14,107,87,73,78
4,73,68,-39,-31,70,-24,-19,78,73,63,73
9,63,53,-36,-21,58,-24,-19,58,53,58,63
9,48,39,-29,-14,43,-24,-19,39,39,48,58
0,29,29,-14,-14,29,-24,-19,19,29,39,43
-4,19,24,-7,-14,21,-19,-24,-4,14,29,34
-9,4,14,2,-12,9,-19,-24,-24,0,19,19
-14,-4,9,9,-12,2,-14,-24,-34,-9,9,19
-19,-4,14,12,-17,4,-14,-24,-48,-24,-4,9
-19,-9,9,14,-14,0,-14,-19,-53,-29,-9,0
-19,-14,4,17,-12,-4,-19,-19,-63,-39,-19,-9
-19,-19,0,19,-9,-9,-14,-24,-73,-48,-29,-19
-14,-29,-14,21,0,-21,-9,-24,-78,-53,-29,-19
-14,-39,-24,26,4,-31,-9,-24,-82,-53,-34,-24
-14,-43,-29,29,7,-36,-9,-24,-82,-53,-34,-29
-19,-43,-24,31,2,-34,-9,-19,-87,-53,-39,-29
-19,-43,-24,31,2,-34,-4,-14,-92,-58,-43,-29
-19,-48,-29,34,4,-39,0,-14,-97,-63,-53,-29
-19,-53,-34,36,7,-43,0,-14,-97,-68,-53,-29
-19,-48,-29,34,4,-39,0,-9,-97,-68,-53,-34
-24,-48,-24,36,0,-36,4,-9,-97,-73,-53,-34
-24,-48,-24,36,0,-36,4,-4,-97,-73,-53,-34
-24,-48,-24,36,0,-36,9,-4,-92,-73,-53,-39
-24,-53,-29,39,2,-41,9,0,-92,-73,-53,-39
-24,-58,-34,41,4,-46,9,0,-87,-73,-53,-39
-29,-58,-29,43,0,-43,9,0,-82,-68,-53,-34
-29,-58,-29,43,0,-43,14,4,-82,-68,-53,-34
-29,-63,-34,46,2,-48,19,9,-82,-73,-53,-39
-29,-63,-34,46,2,-48,24,9,-73,-73,-53,-43
-39,-63,-24,51,-7,-43,24,14,-68,-68,-53,-43
-39,-63,-24,51,-7,-43,24,14,-63,-68,-53,-39
-39,-63,-24,51,-7,-43,29,14,-53,-58,-43,-34
-39,-58,-19,48,-9,-39,29,14,-48,-58,-39,-34
-43,-53,-9,48,-17,-31,34,19,-43,-48,-39,-29
-48,-48,0,48,-24,-24,39,19,-39,-43,-34,-24
-43,-43,0,43,-21,-21,39,19,-39,-43,-34,-24
-43,-43,0,43,-21,-21,39,19,-34,-39,-34,-24
-43,-43,0,43,-21,-21,39,24,-34,-39,-34,-24
-48,-43,4,46,-26,-19,43,24,-24,-34,-34,-24
-53,-43,9,48,-31,-17,43,24,-24,-39,-34,-29
-58,-43,14,51,-36,-14,43,24,-24,-43,-39,-34
-63,-43,19,53,-41,-12,48,29,-19,-39,-39,-29
-63,-43,19,53,-41,-12,48,29,-19,-39,-34,-29
-63,-43,19,53,-41,-12,43,24,-19,-34,-29,-29
-63,-39,24,51,-43,-7,39,24,-19,-34,-29,-29
-63,-39,24,51,-43,-7,39,24,-19,-39,-34,-29
-68,-39,29,53,-48,-4,34,24,-19,-39,-34,-29
-68,-39,29,53,-48,-4,34,24,-19,-34,-34,-24
-73,-39,34,56,-53,-2,34,19,-19,-29,-29,-19
-73,-39,34,56,-53,-2,34,19,-14,-29,-29,-24
-68,-39,29,53,-48,-4,34,19,-19,-34,-29,-24
-68,-39,29,53,-48,-4,34,14,-19,-34,-29,-24
-68,-39,29,53,-48,-4,34,14,-24,-34,-34,-24
-73,-39,34,56,-53,-2,34,14,-24,-39,-39,-24
-73,-39,34,56,-53,-2,34,14,-24,-43,-43,-24
-73,-48,24,61,-48,-12,34,14,-34,-43,-43,-24
-73,-48,24,61,-48,-12,34,14,-39,-43,-48,-34
-73,-53,19,63,-46,-17,34,14,-39,-43,-48,-34
-73,-53,19,63,-46,-17,34,9,-43,-43,-58,-39
-73,-53,19,63,-46,-17,34,9,-43,-63,-58,-43
-73,-53,19,63,-46,-17,34,9,-43,-63,-58,-48
-73,-48,24,61,-48,-12,29,9,-48,-63,-58,-43
-73,-43,29,58,-51,-7,29,4,-48,-63,-58,-43
-73,-43,29,58,-51,-7,29,4,-48,-63,-53,-43
-73,-43,29,58,-51,-7,29,4,-53,-63,-48,-43
-73,-48,24,61,-48,-12,29,0,-58,-63,-53,-43
-73,-53,19,63,-46,-17,29,0,-68,-63,-53,-43
-73,-58,14,65,-43,-21,29,0,-68,-68,-53,-43
-73,-63,9,68,-41,-26,24,0,-68,-68,-53,-43
-73,-63,9,68,-41,-26,24,-4,-73,-73,-58,-48
-73,-58,14,65,-43,-21,19,-4,-78,-78,-63,-53
-73,-58,14,65,-43,-21,19,-4,-82,-82,-63,-53
-73,-63,9,68,-41,-26,24,-4,-87,-87,-68,-53
-73,-63,9,68,-41,-26,24,-4,-87,-87,-73,-58
-73,-63,9,68,-41,-26,24,-4,-87,-87,-73,-58
-73,-63,9,68,-41,-26,24,-4,-87,-87,-73,-53
-73,-63,9,68,-41,-26,24,-4,-87,-87,-68,-48
-73,-63,9,68,-41,-26,24,-4,-82,-87,-63,-48
-78,-63,14,70,-46,-24,24,-4,-78,-87,-58,-48
-78,-63,14,70,-46,-24,24,-9,-82,-87,-58,-48
-78,-63,14,70,-46,-24,24,-9,-82,-87,-63,-48
-78,-63,14,70,-46,-24,19,-9,-87,-87,-68,-53
-78,-63,14,70,-46,-24,19,-9,-92,-92,-73,-53
-78,-63,14,70,-46,-24,19,-9,-92,-92,-73,-58
-78,-63,14,70,-46,-24,19,-14,-92,-92,-73,-58
-73,-58,14,65,-43,-21,19,-14,-92,-87,-68,-53
-73,-53,19,63,-46,-17,19,-14,-97,-82,-68,-53
-73,-58,14,65,-43,-21,19,-9,-97,-82,-68,-53
-78,-58,19,68,-48,-19,19,-14,-97,-82,-73,-58
-78,-58,19,68,-48,-19,19,-14,-97,-82,-68,-53
-78,-58,19,68,-48,-19,19,-19,-97,-87,-68,-48
-78,-58,19,68,-48,-19,19,-19,-97,-87,-68,-48
-78,-58,19,68,-48,-19,19,-19,-97,-87,-68,-48
-78,-63,14,70,-46,-24,19,-14,-97,-87,-68,-48
-78,-68,9,73,-43,-29,19,-9,-97,-87,-68,-48
-78,-68,9,73,-43,-29,19,-9,-97,-87,-73,-48
-78,-68,9,73,-43,-29,19,-9,-97,-87,-78,-48
-78,-68,9,73,-43,-29,19,-9,-102,-92,-82,-53
-78,-68,9,73,-43,-29,19,-9,-107,-97,-87,-58
-78,-63,14,70,-46,-24,19,-9,-107,-97,-87,-58
-78,-58,19,68,-48,-19,19,-9,-107,-97,-87,-58
-73,-48,24,61,-48,-12,19,-14,-92,-87,-78,-53
-68,-39,29,53,-48,-4,19,-19,-78,-78,-68,-48
-63,-19,43,41,-53,12,14,-19,-63,-68,-58,-34
-58,0,58,29,-58,29,9,-19,-48,-58,-48,-19
-58,4,63,26,-61,34,9,-19,-48,-53,-43,-19
-58,9,68,24,-63,39,9,-19,-48,-48,-39,-19
-58,9,68,24,-63,39,9,-19,-43,-43,-39,-19
-58,9,68,24,-63,39,9,-14,-39,-39,-39,-19
-58,9,68,24,-63,39,9,-14,-34,-34,-39,-19
-48,24,73,12,-61,48,9,-14,-29,-24,-29,-9
-34,43,78,-4,-56,61,0,-14,-14,-24,-19,0
-24,58,82,-17,-53,70,-9,-19,-9,-24,-9,9
-29,63,92,-17,-61,78,-34,-34,-9,-24,0,14
-29,63,92,-17,-61,78,-53,-58,-24,-24,-9,14
-29,63,92,-17,-61,78,-82,-92,-34,-39,-14,9
-34,68,102,-17,-68,85,-82,-97,-43,-39,-14,9
-34,63,97,-14,-65,80,-78,-97,-58,-39,-14,9
-29,58,87,-14,-58,73,-68,-92,-63,-39,-14,9
-19,43,63,-12,-41,53,-58,-78,-63,-39,-14,9
-14,24,39,-4,-26,31,-48,-68,-78,-58,-29,0
-14,9,24,2,-19,17,-39,-63,-87,-73,-43,-14
-24,0,24,12,-24,12,-29,-63,-87,-73,-48,-14
-29,-9,19,19,-24,4,-29,-53,-92,-78,-53,-14
-39,-24,14,31,-26,-4,-24,-48,-102,-87,-63,-24
-48,-34,14,41,-31,-9,-19,-43,-102,-87,-63,-29
-58,-48,9,53,-34,-19,-9,-34,-107,-97,-73,-39
-68,-68,0,68,-34,-34,0,-24,-107,-92,-82,-43
-82,-78,4,80,-43,-36,19,-14,-112,-102,-87,-53
-102,-92,9,97,-56,-41,24,-4,-117,-112,-97,-58
-107,-97,9,102,-58,-43,39,-4,-117,-112,-92,-63
-107,-107,0,107,-53,-53,39,-14,-122,-117,-97,-68
-107,-107,0,107,-53,-53,34,-19,-122,-117,-97,-68
-107,-107,0,107,-53,-53,34,-24,-122,-117,-97,-68
-107,-107,0,107,-53,-53,34,-24,-122,-117,-97,-68
-107,-107,0,107,-53,-53,34,-14,-122,-117,-97,-68
-107,-107,0,107,-53,-53,34,-9,-126,-122,-102,-73
-107,-107,0,107,-53,-53,34,-9,-126,-126,-107,-78
-107,-107,0,107,-53,-53,34,-9,-126,-131,-107,-78
-107,-107,0,107,-53,-53,34,-9,-122,-126,-107,-78
-107,-107,0,107,-53,-53,34,-9,-122,-126,-107,-78
-107,-107,0,107,-53,-53,34,-9,-122,-122,-107,-73
-102,-107,-4,104,-48,-56,34,-9,-122,-117,-107,-73
-102,-107,-4,104,-48,-56,34,-9,-117,-117,-107,-73
-102,-107,-4,104,-48,-56,34,-9,-117,-117,-107,-73
-102,-102,0,102,-51,-51,34,-9,-117,-112,-107,-73
-102,-102,0,102,-51,-51,34,-4,-112,-112,-102,-68
-107,-92,14,100,-61,-39,39,4,-97,-102,-92,-58
-122,-53,68,87,-95,7,48,14,-39,-68,-68,-43
-161,-14,146,87,-153,65,92,63,43,-29,-43,-24
-214,4,219,104,-217,112,263,287,195,14,-24,-19
-268,43,312,112,-290,178,390,409,361,87,14,0
-297,117,414,90,-356,265,429,400,522,200,107,63
-234,204,439,14,-336,322,385,346,546,322,229,180
-87,326,414,-119,-251,370,219,175,370,424,380,341
185,453,268,-319,-41,361,-43,-34,82,531,556,527
575,614,39,-595,268,326,-492,-419,-263,653,771,761
1000,839,-161,-919,580,339,-1029,-844,-478,878,1049,1073
1468,1098,-370,-1283,919,363,-1581,-1249,-531,1195,1410,1429
1869,1098,-771,-1483,1320,163,-1952,-1464,-644,1259,1503,1546
2034,810,-1224,-1422,1629,-207,-1937,-1434,-805,1005,1263,1366
1956,346,-1610,-1151,1783,-631,-1649,-1224,-1010,385,663,863
1766,-107,-1873,-829,1820,-990,-1244,-936,-1151,-170,122,375
1454,-190,-1644,-631,1549,-917,-995,-810,-1093,-385,-102,175
1112,-175,-1288,-468,1200,-732,-800,-717,-1029,-527,-253,34
893,-141,-1034,-375,963,-588,-668,-634,-932,-527,-273,-14
727,-131,-858,-297,793,-495,-551,-546,-805,-492,-273,-48
536,-117,-653,-209,595,-385,-419,-424,-663,-429,-258,-63
385,-117,-502,-134,444,-309,-307,-302,-522,-370,-239,-82
219,-122,-341,-48,280,-231,-204,-219,-395,-322,-229,-117
107,-122,-229,7,168,-175,-112,-146,-307,-273,-209,-126
29,-122,-151,46,90,-136,-24,-58,-209,-214,-170,-112
-43,-126,-82,85,19,-104,48,19,-131,-175,-151,-102
-102,-131,-29,117,-36,-80,82,63,-68,-146,-136,-102
-117,-141,-24,129,-46,-82,107,78,-48,-131,-131,-112
-126,-151,-24,139,-51,-87,126,92,-43,-126,-131,-112
-136,-151,-14,143,-61,-82,136,112,-14,-117,-122,-107
-146,-151,-4,148,-70,-78,136,112,-9,-117,-122,-102
-151,-151,0,151,-75,-75,136,112,-9,-112,-122,-102
-156,-151,4,153,-80,-73,141,112,-9,-112,-122,-102
-156,-156,0,156,-78,-78,151,117,0,-107,-122,-102
-156,-156,0,156,-78,-78,151,122,4,-102,-122,-102
-161,-156,4,158,-82,-75,151,122,4,-102,-122,-102
-156,-156,0,156,-78,-78,156,122,9,-102,-117,-112
-151,-156,-4,153,-73,-80,156,126,14,-97,-117,-122
-151,-151,0,151,-75,-75,161,131,19,-92,-117,-122
-156,-146,9,151,-82,-68,161,136,19,-92,-112,-126
-161,-146,14,153,-87,-65,165,136,24,-92,-112,-126
-165,-146,19,156,-92,-63,165,136,29,-92,-112,-126
-165,-151,14,158,-90,-68,165,146,29,-92,-107,-126
-165,-156,9,161,-87,-73,170,146,29,-87,-107,-126
-165,-151,14,158,-90,-68,170,146,34,-87,-107,-126
-165,-151,14,158,-90,-68,175,151,39,-87,-107,-131
-165,-146,19,156,-92,-63,175,156,48,-82,-107,-131
-165,-141,24,153,-95,-58,180,165,58,-78,-102,-131
-165,-141,24,153,-95,-58,185,165,68,-68,-97,-126
-165,-141,24,153,-95,-58,185,170,78,-68,-92,-122
-165,-136,29,151,-97,-53,185,175,82,-58,-92,-122
-165,-136,29,151,-97,-53,195,180,92,-53,-92,-122
-165,-131,34,148,-100,-48,195,190,97,-53,-92,-126
-165,-131,34,148,-100,-48,195,195,107,-48,-92,-131
-170,-131,39,151,-104,-46,200,204,117,-48,-82,-126
-170,-131,39,151,-104,-46,204,209,131,-34,-78,-126
-170,-122,48,146,-109,-36,209,219,146,-24,-68,-117
-170,-117,53,143,-112,-31,214,224,156,-19,-68,-112
-170,-112,58,141,-114,-26,214,234,175,-9,-63,-107
-170,-102,68,136,-119,-17,219,244,195,0,-53,-102
-165,-102,63,134,-114,-19,224,253,209,14,-48,-97
-165,-92,73,129,-119,-9,229,258,229,24,-34,-92
-165,-78,87,122,-126,4,229,268,253,29,-29,-82
-165,-68,97,117,-131,14,234,273,278,39,-14,-73
-165,-63,102,114,-134,19,234,283,297,58,-9,-73
-165,-48,117,107,-141,34,239,287,326,78,4,-68
-165,-34,131,100,-148,48,239,302,351,92,19,-53
-165,-19,146,92,-156,63,244,302,375,107,29,-43
-161,-9,151,85,-156,70,244,302,400,126,43,-29
-161,4,165,78,-163,85,244,307,424,146,48,-24
-161,9,170,75,-165,90,244,307,439,151,58,-14
-161,29,190,65,-175,109,244,312,463,170,82,0
-156,48,204,53,-180,126,239,307,483,195,87,14
-156,68,224,43,-190,146,229,297,502,204,102,24
-151,78,229,36,-190,153,214,292,512,214,112,29
-146,92,239,26,-192,165,209,278,527,229,122,39
-146,107,253,19,-200,180,204,273,536,239,136,53
-141,112,253,14,-197,183,200,263,541,248,141,63
-136,117,253,9,-195,185,180,248,536,258,146,68
-126,126,253,0,-190,190,170,239,527,263,151,82
-126,131,258,-2,-192,195,165,229,531,268,161,82
-117,136,253,-9,-185,195,156,219,531,268,165,82
-112,151,263,-19,-187,207,141,219,522,268,165,82
-102,156,258,-26,-180,207,131,195,517,263,175,92
-92,161,253,-34,-173,207,117,185,507,263,170,92
-87,165,253,-39,-170,209,107,170,492,263,165,92
-82,165,248,-41,-165,207,97,165,473,248,165,92
-73,165,239,-46,-156,202,87,146,453,234,161,92
-63,165,229,-51,-146,197,73,126,434,229,151,87
-58,165,224,-53,-141,195,58,112,414,219,146,82
-48,165,214,-58,-131,190,48,107,395,214,141,82
-43,165,209,-61,-126,187,39,87,380,204,136,82
-43,161,204,-58,-124,183,34,78,346,195,141,82
-34,151,185,-58,-109,168,24,63,322,185,136,82
-19,151,170,-65,-95,161,9,48,297,170,131,78
-9,141,151,-65,-80,146,-4,29,268,165,126,78
0,136,136,-68,-68,136,-9,24,239,156,122,73
4,131,126,-68,-61,129,-19,19,219,146,117,73
9,126,117,-68,-53,122,-29,4,195,131,107,78
9,112,102,-61,-46,107,-29,-4,161,117,102,68
9,102,92,-56,-41,97,-29,-14,136,97,87,63
14,82,68,-48,-26,75,-29,-19,112,87,78,58
14,73,58,-43,-21,65,-34,-24,92,78,73,48
14,63,48,-39,-17,56,-34,-29,68,63,58,43
14,58,43,-36,-14,51,-34,-34,48,43,53,34
9,53,43,-31,-17,48,-34,-39,29,29,48,29
0,39,39,-19,-19,39,-34,-39,9,24,39,19
0,29,29,-14,-14,29,-29,-43,-9,14,29,14
0,9,9,-4,-4,9,-29,-39,-24,0,19,0
-4,-9,-4,7,0,-7,-24,-34,-34,-9,9,0
-9,-14,-4,12,-2,-9,-24,-34,-48,-24,-4,-9
-9,-24,-14,17,2,-19,-19,-29,-53,-29,-9,-19
-9,-34,-24,21,7,-29,-24,-29,-68,-39,-19,-29
-14,-39,-24,26,4,-31,-24,-29,-82,-48,-29,-39
-9,-48,-39,29,14,-43,-19,-24,-87,-53,-34,-43
-4,-53,-48,29,21,-51,-19,-24,-92,-53,-43,-48
-4,-53,-48,29,21,-51,-14,-24,-92,-53,-43,-48
-9,-53,-43,31,17,-48,-9,-19,-92,-53,-43,-48
-9,-53,-43,31,17,-48,-4,-14,-92,-58,-39,-48
-9,-58,-48,34,19,-53,0,-14,-97,-58,-43,-48
-14,-63,-48,39,17,-56,0,-14,-97,-58,-43,-48
-19,-63,-43,41,12,-53,0,-9,-97,-58,-43,-53
-24,-68,-43,46,9,-56,4,-9,-97,-63,-48,-53
-24,-68,-43,46,9,-56,4,-4,-97,-63,-53,-53
-24,-68,-43,46,9,-56,9,-4,-87,-63,-53,-58
-24,-68,-43,46,9,-56,9,0,-82,-63,-53,-58
-24,-68,-43,46,9,-56,9,0,-78,-68,-53,-58
-29,-68,-39,48,4,-53,9,0,-73,-68,-53,-53
-29,-68,-39,48,4,-53,14,4,-78,-68,-53,-53
-29,-73,-43,51,7,-58,19,9,-82,-73,-53,-58
-29,-73,-43,51,7,-58,24,9,-73,-68,-53,-63
-39,-68,-29,53,-4,-48,24,14,-68,-58,-53,-63
-39,-63,-24,51,-7,-43,24,14,-63,-58,-53,-58
-39,-63,-24,51,-7,-43,29,14,-53,-48,-48,-53
-39,-58,-19,48,-9,-39,29,14,-48,-48,-48,-53
-43,-58,-14,51,-14,-36,29,19,-43,-43,-48,-53
-48,-58,-9,53,-19,-34,29,19,-34,-43,-43,-53
-48,-53,-4,51,-21,-29,29,19,-29,-43,-43,-53
-53,-53,0,53,-26,-26,29,19,-24,-39,-39,-48
-53,-53,0,53,-26,-26,29,24,-24,-39,-34,-43
-58,-53,4,56,-31,-24,34,24,-14,-34,-34,-43
-58,-53,4,56,-31,-24,34,24,-14,-34,-29,-43
-58,-53,4,56,-31,-24,34,19,-19,-34,-29,-48
-63,-53,9,58,-36,-21,39,19,-19,-29,-29,-48
-63,-53,9,58,-36,-21,39,19,-19,-34,-29,-48
-63,-53,9,58,-36,-21,39,14,-19,-34,-29,-48
-63,-48,14,56,-39,-17,39,14,-19,-34,-29,-48
-63,-48,14,56,-39,-17,39,14,-19,-39,-34,-48
-68,-48,19,58,-43,-14,34,14,-19,-39,-29,-48
-68,-48,19,58,-43,-14,34,14,-19,-39,-29,-48
-73,-48,24,61,-48,-12,34,9,-19,-34,-29,-48
-73,-48,24,61,-48,-12,34,9,-19,-29,-29,-53
-68,-48,19,58,-43,-14,34,9,-29,-34,-29,-53
-68,-48,19,58,-43,-14,34,4,-29,-34,-29,-53
-68,-48,19,58,-43,-14,34,4,-34,-34,-39,-53
-73,-48,24,61,-48,-12,34,4,-34,-39,-43,-53
-73,-48,24,61,-48,-12,29,4,-34,-43,-43,-53
-73,-58,14,65,-43,-21,24,4,-43,-48,-43,-53
-73,-53,19,63,-46,-17,24,4,-48,-58,-48,-63
-73,-53,19,63,-46,-17,24,4,-48,-63,-48,-63
-78,-53,24,65,-51,-14,24,0,-53,-63,-58,-68
-82,-53,29,68,-56,-12,24,0,-53,-73,-58,-68
-82,-58,24,70,-53,-17,29,0,-58,-63,-58,-68
-82,-63,19,73,-51,-21,29,0,-68,-63,-58,-63
-78,-63,14,70,-46,-24,29,-4,-68,-63,-58,-63
-73,-63,9,68,-41,-26,29,-4,-68,-68,-58,-68
-73,-63,9,68,-41,-26,29,-4,-68,-68,-58,-68
-73,-68,4,70,-39,-31,29,-9,-68,-63,-63,-63
-73,-73,0,73,-36,-36,29,-9,-78,-63,-63,-63
-73,-73,0,73,-36,-36,29,-9,-78,-68,-63,-63
-73,-73,0,73,-36,-36,24,-9,-78,-68,-63,-63
-73,-73,0,73,-36,-36,24,-14,-78,-68,-63,-63
-73,-68,4,70,-39,-31,19,-14,-78,-68,-63,-68
-73,-68,4,70,-39,-31,19,-14,-82,-73,-63,-73
-73,-73,0,73,-36,-36,24,-14,-87,-78,-68,-73
-73,-73,0,73,-36,-36,24,-14,-87,-78,-73,-78
-73,-73,0,73,-36,-36,24,-14,-87,-78,-73,-73
-73,-73,0,73,-36,-36,24,-14,-87,-78,-73,-68
-73,-73,0,73,-36,-36,24,-14,-87,-78,-68,-68
-73,-73,0,73,-36,-36,24,-14,-87,-78,-68,-68
-73,-73,0,73,-36,-36,19,-14,-87,-78,-68,-68
-68,-73,-4,70,-31,-39,14,-19,-92,-78,-68,-68
-68,-73,-4,70,-31,-39,14,-19,-92,-78,-73,-68
-68,-73,-4,70,-31,-39,9,-19,-92,-78,-73,-73
-68,-73,-4,70,-31,-39,9,-19,-92,-82,-73,-78
-68,-73,-4,70,-31,-39,9,-19,-92,-82,-73,-82
-78,-73,4,75,-41,-34,9,-24,-92,-82,-78,-78
-82,-73,9,78,-46,-31,9,-24,-92,-82,-78,-73
-82,-73,9,78,-46,-31,9,-24,-102,-92,-78,-78
-82,-78,4,80,-43,-36,9,-19,-107,-102,-78,-82
-82,-73,9,78,-46,-31,9,-19,-102,-97,-78,-78
-82,-73,9,78,-46,-31,14,-19,-102,-92,-82,-73
-78,-73,4,75,-41,-34,14,-19,-102,-92,-73,-73
-78,-78,0,78,-39,-39,19,-19,-107,-97,-68,-78
-78,-78,0,78,-39,-39,19,-19,-107,-97,-73,-78
-78,-78,0,78,-39,-39,19,-19,-107,-97,-78,-78
-78,-78,0,78,-39,-39,14,-19,-107,-97,-78,-78
-78,-78,0,78,-39,-39,9,-19,-107,-97,-78,-78
-82,-78,4,80,-43,-36,9,-19,-107,-97,-78,-78
-87,-78,9,82,-48,-34,9,-19,-107,-97,-78,-78
-87,-78,9,82,-48,-34,9,-19,-107,-97,-78,-78
-87,-78,9,82,-48,-34,9,-19,-107,-97,-78,-78
-82,-73,9,78,-46,-31,9,-19,-102,-92,-78,-78
-78,-68,9,73,-43,-29,9,-19,-97,-87,-78,-78
-78,-53,24,65,-51,-14,9,-19,-92,-78,-68,-68
-78,-39,39,58,-58,0,9,-19,-87,-68,-58,-58
-68,-24,43,46,-56,9,9,-24,-78,-63,-53,-53
-58,-9,48,34,-53,19,9,-29,-68,-58,-48,-48
-58,4,63,26,-61,34,4,-29,-63,-53,-48,-48
-58,19,78,19,-68,48,0,-29,-58,-48,-48,-48
-63,19,82,21,-73,51,0,-29,-53,-48,-48,-48
-63,14,78,24,-70,46,0,-24,-48,-43,-48,-48
-68,14,82,26,-75,48,4,-19,-43,-43,-48,-48
-58,24,82,17,-70,53,9,-14,-39,-34,-39,-39
-39,43,82,-2,-61,63,0,-14,-24,-24,-29,-24
-24,58,82,-17,-53,70,-9,-19,-19,-14,-19,-9
-24,63,87,-19,-56,75,-29,-29,-19,-14,-4,-4
-19,63,82,-21,-51,73,-43,-48,-34,-14,-9,-4
-24,68,92,-21,-58,80,-78,-92,-39,-29,-14,-9
-34,78,112,-21,-73,95,-82,-107,-43,-29,-14,-9
-34,82,117,-24,-75,100,-87,-112,-58,-29,-9,-9
-29,87,117,-29,-73,102,-87,-112,-63,-29,-4,-9
-19,73,92,-26,-56,82,-78,-97,-68,-29,-4,-9
-14,53,68,-19,-41,61,-68,-87,-87,-48,-19,-19
-9,29,39,-9,-24,34,-58,-82,-107,-68,-43,-34
-14,9,24,2,-19,17,-48,-82,-117,-73,-58,-34
-19,0,19,9,-19,9,-43,-73,-112,-78,-63,-39
-29,-14,14,21,-21,0,-34,-68,-112,-87,-73,-53
-39,-24,14,31,-26,-4,-29,-63,-112,-87,-68,-58
-48,-39,9,43,-29,-14,-19,-53,-117,-97,-73,-68
-58,-58,0,58,-29,-29,-14,-43,-117,-92,-82,-73
-73,-68,4,70,-39,-31,0,-34,-122,-102,-87,-82
-92,-82,9,87,-51,-36,4,-24,-126,-112,-102,-87
-97,-87,9,92,-53,-39,19,-24,-126,-112,-102,-92
-97,-97,0,97,-48,-48,19,-29,-131,-117,-107,-97
-97,-97,0,97,-48,-48,14,-29,-131,-117,-107,-97
-97,-97,0,97,-48,-48,14,-34,-131,-117,-107,-97
-97,-97,0,97,-48,-48,14,-34,-131,-117,-107,-97
-102,-97,4,100,-53,-46,14,-29,-131,-117,-107,-97
-107,-97,9,102,-58,-43,14,-29,-136,-122,-112,-102
-107,-97,9,102,-58,-43,14,-29,-136,-122,-112,-102
-107,-97,9,102,-58,-43,14,-29,-136,-122,-107,-97
-107,-97,9,102,-58,-43,14,-29,-131,-117,-107,-97
-107,-97,9,102,-58,-43,14,-29,-131,-117,-107,-97
-107,-97,9,102,-58,-43,14,-29,-131,-117,-107,-97
-102,-97,4,100,-53,-46,14,-29,-131,-117,-107,-102
-102,-97,4,100,-53,-46,14,-29,-126,-117,-107,-102
-102,-97,4,100,-53,-46,14,-29,-126,-117,-107,-102
-102,-92,9,97,-56,-41,14,-34,-126,-112,-107,-102
-102,-92,9,97,-56,-41,14,-34,-122,-112,-102,-97
-97,-87,9,92,-53,-39,14,-34,-126,-112,-97,-87
-102,-53,48,78,-75,-2,19,-34,-87,-87,-78,-73
-141,-14,126,78,-134,56,39,-4,-34,-58,-58,-53
-195,4,200,95,-197,102,185,200,87,-24,-43,-48
-268,24,292,122,-280,158,356,370,278,39,-24,-53
-317,78,395,119,-356,236,439,409,463,141,48,-14
-307,151,458,78,-383,305,444,395,570,258,151,78
-214,258,473,-21,-344,366,326,263,478,356,283,214
19,366,346,-192,-163,356,126,87,190,429,414,356
370,507,136,-439,117,322,-258,-263,-156,517,585,546
810,766,-43,-788,427,361,-839,-756,-414,741,878,878
1293,1058,-234,-1176,763,412,-1434,-1229,-512,1058,1254,1254
1825,1200,-624,-1512,1224,287,-1986,-1561,-585,1307,1532,1532
2122,1054,-1068,-1588,1595,-7,-2152,-1649,-707,1239,1478,1512
2127,536,-1590,-1332,1859,-527,-1883,-1429,-980,575,839,985
2020,29,-1991,-1024,2005,-980,-1498,-1132,-1190,-24,258,473
1693,-117,-1810,-788,1751,-963,-1190,-971,-1137,-292,-14,229
1337,-165,-1503,-585,1420,-834,-936,-844,-1078,-488,-214,43
1088,-122,-1210,-483,1149,-666,-800,-756,-985,-502,-244,0
893,-102,-995,-395,944,-549,-678,-663,-863,-483,-253,-29
688,-82,-771,-302,729,-427,-531,-531,-722,-424,-234,-43
522,-78,-600,-222,561,-339,-405,-400,-580,-370,-209,-63
322,-82,-405,-119,363,-244,-292,-312,-444,-322,-209,-107
175,-82,-258,-46,217,-170,-190,-234,-346,-273,-200,-126
82,-87,-170,2,126,-129,-92,-126,-244,-214,-161,-112
-4,-97,-92,51,43,-95,-9,-29,-161,-175,-141,-102
-78,-102,-24,90,-26,-63,39,24,-82,-136,-126,-107
-107,-112,-4,109,-51,-58,78,48,-48,-112,-122,-122
-117,-126,-9,122,-53,-68,102,68,-48,-107,-122,-122
-126,-131,-4,129,-61,-68,117,92,-24,-97,-112,-117
-136,-126,9,131,-73,-58,117,92,-19,-97,-112,-112
-141,-122,19,131,-80,-51,117,92,-19,-92,-112,-112
-146,-117,29,131,-87,-43,122,92,-19,-92,-112,-112
-146,-117,29,131,-87,-43,131,97,-9,-87,-112,-112
-151,-112,39,131,-95,-36,131,102,-4,-82,-107,-112
-161,-107,53,134,-107,-26,131,102,-4,-82,-102,-112
-165,-107,58,136,-112,-24,141,102,0,-82,-97,-112
-170,-107,63,139,-117,-21,146,107,4,-78,-97,-112
-170,-117,53,143,-112,-31,151,112,9,-82,-107,-117
-175,-126,48,151,-112,-39,151,117,9,-92,-112,-126
-170,-126,43,148,-107,-41,156,117,14,-92,-112,-126
-165,-126,39,146,-102,-43,156,117,19,-92,-112,-126
-165,-126,39,146,-102,-43,156,126,24,-87,-107,-122
-165,-126,39,146,-102,-43,161,126,29,-78,-107,-117
-165,-117,48,141,-107,-34,161,126,34,-78,-107,-112
-165,-112,53,139,-109,-29,165,131,39,-78,-107,-112
-165,-112,53,139,-109,-29,165,136,48,-73,-102,-112
-165,-112,53,139,-109,-29,170,146,58,-68,-92,-112
-165,-112,53,139,-109,-29,175,146,68,-58,-87,-107
-165,-112,53,139,-109,-29,175,151,78,-58,-82,-102
-170,-107,63,139,-117,-21,175,156,82,-48,-82,-102
-175,-107,68,141,-122,-19,185,161,92,-43,-82,-102
-175,-107,68,141,-122,-19,185,175,97,-43,-82,-102
-175,-112,63,143,-119,-24,185,185,107,-39,-82,-102
-175,-112,63,143,-119,-24,190,195,117,-39,-78,-97
-170,-112,58,141,-114,-26,195,200,131,-24,-78,-97
-170,-97,73,134,-122,-12,200,209,146,-14,-68,-92
-170,-87,82,129,-126,-2,204,214,156,-9,-68,-92
-170,-82,87,126,-129,2,204,219,170,0,-58,-87
-170,-73,97,122,-134,12,209,224,185,9,-43,-82
-165,-73,92,119,-129,9,214,234,200,24,-39,-78
-165,-63,102,114,-134,19,219,239,219,34,-24,-73
-170,-48,122,109,-146,36,219,253,239,39,-24,-63
-175,-39,136,107,-156,48,224,263,258,48,-14,-53
-175,-39,136,107,-156,48,229,273,273,68,-14,-53
-175,-29,146,102,-161,58,239,278,297,87,-4,-48
-175,-24,151,100,-163,63,239,297,322,102,9,-34
-175,-19,156,97,-165,68,244,302,346,117,19,-24
-170,4,175,82,-173,90,239,302,375,136,39,-9
-170,34,204,68,-187,119,234,307,405,156,48,-4
-170,39,209,65,-190,124,234,307,419,161,58,4
-170,58,229,56,-200,143,234,312,444,180,82,19
-165,73,239,46,-202,156,234,312,463,204,87,34
-165,87,253,39,-209,170,229,307,483,214,102,43
-161,92,253,34,-207,173,214,302,497,224,112,48
-156,102,258,26,-207,180,209,287,517,239,122,58
-156,122,278,17,-217,200,204,283,527,248,136,73
-151,131,283,9,-217,207,200,273,531,258,141,82
-146,141,287,2,-217,214,180,258,536,268,151,87
-136,156,292,-9,-214,224,170,248,536,273,161,102
-136,165,302,-14,-219,234,165,239,536,278,165,102
-126,175,302,-24,-214,239,156,229,531,278,165,102
-122,185,307,-31,-214,246,141,224,522,278,165,102
-112,185,297,-36,-204,241,131,195,517,273,175,112
-97,185,283,-43,-190,234,117,185,507,273,175,112
-87,185,273,-48,-180,229,107,170,492,273,175,112
-82,185,268,-51,-175,226,97,165,478,263,175,112
-73,185,258,-56,-165,222,87,146,463,253,170,112
-63,185,248,-61,-156,217,78,126,444,248,161,112
-58,185,244,-63,-151,214,68,112,424,239,156,112
-48,185,234,-68,-141,209,53,107,405,234,151,112
-43,185,229,-70,-136,207,39,87,390,224,146,112
-43,185,229,-70,-136,207,34,78,356,214,151,112
-34,180,214,-73,-124,197,24,63,331,204,146,112
-24,180,204,-78,-114,192,9,48,307,190,141,107
-19,170,190,-75,-104,180,-4,29,278,185,136,107
-9,165,175,-78,-92,170,-9,14,248,175,131,102
-4,161,165,-78,-85,163,-19,0,229,165,126,102
4,156,151,-80,-73,153,-34,-14,204,156,122,102
9,141,131,-75,-61,136,-39,-24,170,146,122,87
9,141,131,-75,-61,136,-43,-34,146,126,107,82
14,131,117,-73,-51,124,-48,-39,122,117,97,78
14,122,107,-68,-46,114,-53,-48,97,102,87,68
14,112,97,-63,-41,104,-53,-58,68,82,68,63
19,97,78,-58,-29,87,-53,-63,48,63,58,53
19,82,63,-51,-21,73,-53,-68,29,48,48,48
9,68,58,-39,-24,63,-53,-68,9,43,39,39
9,58,48,-34,-19,53,-48,-73,-9,34,29,34
9,43,34,-26,-12,39,-53,-73,-24,19,19,19
4,29,24,-17,-9,26,-53,-73,-34,9,9,19
0,24,24,-12,-12,24,-53,-73,-53,-9,-4,9
0,14,14,-7,-7,14,-48,-68,-63,-19,-9,0
0,4,4,-2,-2,4,-48,-68,-73,-34,-24,-19
-4,0,4,2,-4,2,-43,-68,-82,-48,-39,-39
-4,-9,-4,7,0,-7,-39,-63,-87,-53,-39,-39
-4,-14,-9,9,2,-12,-39,-63,-92,-53,-43,-39
-4,-14,-9,9,2,-12,-39,-63,-92,-53,-43,-39
-9,-14,-4,12,-2,-9,-39,-58,-92,-53,-43,-39
-9,-14,-4,12,-2,-9,-34,-48,-92,-58,-43,-39
-9,-19,-9,14,0,-14,-29,-43,-97,-58,-53,-39
-9,-24,-14,17,2,-19,-29,-43,-97,-58,-53,-39
-9,-24,-14,17,2,-19,-29,-39,-97,-58,-53,-43
-14,-29,-14,21,0,-21,-24,-39,-97,-63,-53,-43
-14,-29,-14,21,0,-21,-24,-34,-97,-63,-53,-43
-14,-34,-19,24,2,-26,-14,-34,-92,-63,-53,-48
-14,-39,-24,26,4,-31,-9,-29,-92,-63,-53,-48
-14,-39,-24,26,4,-31,-9,-29,-87,-63,-53,-48
-19,-39,-19,29,0,-29,-9,-29,-82,-58,-53,-43
-24,-39,-14,31,-4,-26,-9,-24,-82,-58,-53,-43
-29,-43,-14,36,-7,-29,-9,-19,-82,-63,-53,-48
-29,-48,-19,39,-4,-34,-4,-19,-78,-63,-53,-53
-39,-48,-9,43,-14,-29,-4,-14,-78,-58,-53,-53
-39,-43,-4,41,-17,-24,0,-14,-78,-58,-53,-48
-39,-43,-4,41,-17,-24,9,-14,-73,-48,-48,-43
-34,-34,0,34,-17,-17,9,-14,-68,-48,-48,-39
-34,-29,4,31,-19,-12,9,-9,-63,-43,-48,-34
-39,-29,9,34,-24,-9,9,-9,-53,-43,-43,-34
-39,-24,14,31,-26,-4,9,-9,-48,-43,-43,-34
-43,-29,14,36,-29,-7,9,-9,-39,-39,-43,-39
-43,-34,9,39,-26,-12,9,-4,-34,-39,-43,-43
-53,-34,19,43,-36,-7,14,-4,-24,-34,-43,-43
-58,-34,24,46,-41,-4,14,-4,-24,-34,-39,-43
-58,-29,29,43,-43,0,14,-4,-24,-34,-39,-43
-63,-24,39,43,-51,7,19,0,-19,-29,-39,-39
-63,-24,39,43,-51,7,14,0,-19,-34,-34,-39
-63,-24,39,43,-51,7,9,-4,-19,-34,-29,-39
-63,-19,43,41,-53,12,9,-4,-19,-34,-29,-39
-63,-19,43,41,-53,12,9,-4,-19,-39,-34,-39
-68,-19,48,43,-58,14,4,-4,-19,-39,-34,-39
-68,-19,48,43,-58,14,4,-4,-19,-39,-39,-39
-73,-19,53,46,-63,17,4,-9,-19,-34,-39,-39
-73,-19,53,46,-63,17,4,-9,-19,-29,-39,-43
-68,-24,43,46,-56,9,4,-9,-29,-34,-39,-43
-68,-29,39,48,-53,4,4,-14,-29,-34,-39,-43
-68,-29,39,48,-53,4,4,-14,-34,-34,-43,-43
-73,-29,43,51,-58,7,4,-14,-34,-39,-43,-43
-73,-29,43,51,-58,7,4,-14,-34,-43,-43,-43
-73,-39,34,56,-53,-2,4,-14,-43,-48,-43,-43
-73,-34,39,53,-56,2,4,-19,-48,-53,-48,-53
-73,-34,39,53,-56,2,4,-24,-48,-53,-48,-53
-73,-34,39,53,-56,2,4,-29,-53,-53,-58,-58
-73,-34,39,53,-56,2,4,-29,-53,-63,-58,-58
-73,-34,39,53,-56,2,4,-29,-53,-53,-58,-58
-73,-34,39,53,-56,2,0,-29,-58,-53,-58,-53
-73,-34,39,53,-56,2,0,-34,-58,-53,-58,-48
-73,-34,39,53,-56,2,0,-34,-58,-58,-58,-48
-73,-34,39,53,-56,2,4,-34,-68,-63,-58,-53
-73,-39,34,56,-53,-2,9,-39,-78,-63,-63,-53
-78,-43,34,61,-56,-4,9,-39,-87,-63,-63,-58
-82,-43,39,63,-61,-2,9,-39,-87,-68,-63,-63
-82,-43,39,63,-61,-2,4,-34,-87,-73,-68,-68
-82,-43,39,63,-61,-2,4,-34,-87,-78,-73,-73
-78,-39,39,58,-58,0,-4,-34,-87,-78,-73,-73
-73,-39,34,56,-53,-2,-9,-34,-92,-82,-73,-73
-73,-43,29,58,-51,-7,-4,-39,-97,-82,-73,-63
-73,-43,29,58,-51,-7,-4,-43,-97,-78,-73,-58
-73,-43,29,58,-51,-7,0,-43,-97,-78,-73,-58
-73,-43,29,58,-51,-7,4,-43,-97,-78,-73,-58
-73,-48,24,61,-48,-12,4,-43,-92,-78,-68,-58
-73,-53,19,63,-46,-17,4,-43,-87,-78,-68,-58
-78,-53,24,65,-51,-14,4,-43,-87,-82,-68,-63
-78,-53,24,65,-51,-14,4,-48,-92,-87,-68,-68
-78,-53,24,65,-51,-14,4,-48,-97,-87,-73,-68
-78,-53,24,65,-51,-14,0,-48,-102,-87,-73,-73
-78,-48,29,63,-53,-9,0,-48,-102,-87,-73,-73
-78,-43,34,61,-56,-4,0,-48,-102,-82,-73,-73
-78,-43,34,61,-56,-4,0,-53,-97,-82,-73,-68
-73,-43,29,58,-51,-7,0,-53,-92,-82,-68,-63
-73,-43,29,58,-51,-7,0,-53,-97,-82,-68,-63
-73,-48,24,61,-48,-12,0,-48,-97,-82,-68,-63
-73,-48,24,61,-48,-12,0,-48,-97,-82,-68,-68
-73,-53,19,63,-46,-17,-4,-48,-102,-82,-73,-73
-73,-53,19,63,-46,-17,-4,-48,-92,-78,-73,-68
-78,-58,19,68,-48,-19,-9,-48,-87,-78,-78,-68
-78,-58,19,68,-48,-19,-4,-48,-97,-82,-82,-68
-78,-58,19,68,-48,-19,0,-48,-107,-87,-87,-68
-78,-53,24,65,-51,-14,0,-48,-107,-87,-87,-73
-78,-48,29,63,-53,-9,0,-48,-107,-87,-87,-78
-78,-48,29,63,-53,-9,0,-48,-107,-92,-87,-78
-78,-48,29,63,-53,-9,0,-48,-107,-97,-87,-78
-78,-53,24,65,-51,-14,0,-43,-107,-97,-87,-78
-78,-58,19,68,-48,-19,0,-39,-107,-97,-87,-78
-78,-58,19,68,-48,-19,0,-39,-107,-92,-87,-78
-78,-58,19,68,-48,-19,0,-39,-107,-87,-87,-78
-78,-58,19,68,-48,-19,0,-39,-102,-87,-82,-73
-78,-58,19,68,-48,-19,0,-39,-97,-87,-78,-68
-78,-53,24,65,-51,-14,0,-39,-97,-87,-78,-68
-78,-48,29,63,-53,-9,0,-39,-97,-87,-78,-68
-73,-39,34,56,-53,-2,0,-39,-87,-78,-68,-63
-68,-29,39,48,-53,4,0,-39,-78,-68,-58,-58
-68,-4,63,36,-65,29,-4,-43,-68,-63,-58,-53
-68,19,87,24,-78,53,-9,-48,-58,-58,-58,-48
-68,24,92,21,-80,58,-9,-48,-53,-58,-53,-48
-68,29,97,19,-82,63,-9,-48,-48,-58,-48,-48
-68,29,97,19,-82,63,-9,-48,-48,-58,-48,-48
-63,34,97,14,-80,65,-4,-43,-43,-48,-43,-43
-58,39,97,9,-78,68,-4,-43,-39,-43,-39,-39
-43,53,97,-4,-70,75,-9,-43,-24,-34,-29,-29
-29,68,97,-19,-63,82,-19,-48,-14,-14,-14,-14
-24,73,97,-24,-61,85,-39,-58,-9,-4,0,-4
-19,78,97,-29,-58,87,-63,-78,-24,-4,-9,-4
-19,82,102,-31,-61,92,-102,-112,-29,-19,-14,-9
-24,87,112,-31,-68,100,-102,-117,-34,-19,-14,-9
-24,87,112,-31,-68,100,-107,-122,-48,-19,-14,-9
-19,92,112,-36,-65,102,-107,-122,-53,-19,-14,-9
-9,82,92,-36,-51,87,-97,-107,-58,-19,-14,-9
-4,63,68,-29,-36,65,-87,-97,-82,-43,-34,-19
-4,43,48,-19,-26,46,-78,-92,-97,-63,-53,-34
-9,29,39,-9,-24,34,-68,-97,-97,-63,-58,-34
-9,19,29,-4,-19,24,-63,-92,-102,-68,-63,-39
-19,9,29,4,-24,19,-53,-87,-112,-78,-73,-53
-29,4,34,12,-31,19,-48,-82,-112,-78,-73,-58
-39,-9,29,24,-34,9,-39,-73,-117,-87,-78,-68
-48,-29,19,39,-34,-4,-29,-63,-117,-87,-82,-73
-68,-43,24,56,-46,-9,-9,-48,-122,-102,-87,-82
-92,-63,29,78,-61,-17,-4,-34,-126,-112,-102,-87
-97,-68,29,82,-63,-19,9,-34,-122,-112,-102,-92
-97,-78,19,87,-58,-29,9,-39,-122,-117,-107,-97
-97,-78,19,87,-58,-29,4,-39,-122,-117,-107,-97
-97,-78,19,87,-58,-29,4,-43,-122,-117,-107,-97
-97,-78,19,87,-58,-29,4,-43,-122,-117,-107,-97
-97,-78,19,87,-58,-29,4,-39,-122,-117,-107,-97
-97,-78,19,87,-58,-29,4,-39,-126,-122,-112,-102
-97,-78,19,87,-58,-29,4,-39,-126,-122,-112,-102
-102,-78,24,90,-63,-26,4,-39,-131,-122,-112,-97
-107,-78,29,92,-68,-24,4,-39,-131,-117,-117,-97
-107,-78,29,92,-68,-24,4,-39,-131,-122,-117,-102
-107,-78,29,92,-68,-24,4,-39,-131,-126,-117,-107
-102,-78,24,90,-63,-26,4,-39,-131,-126,-117,-112
-102,-78,24,90,-63,-26,4,-39,-126,-126,-117,-112
-97,-78,19,87,-58,-29,4,-39,-126,-126,-117,-112
-92,-73,19,82,-56,-26,4,-39,-126,-122,-117,-112
-92,-87,4,90,-48,-41,4,-39,-141,-131,-122,-112
-97,-92,4,95,-51,-43,9,-34,-146,-131,-122,-107
-92,-53,39,73,-65,-7,-24,-78,-117,-102,-97,-92
-112,-14,97,63,-104,41,-24,-82,-63,-68,-73,-73
-165,-9,156,87,-161,73,170,190,63,-48,-73,-78
-219,9,229,104,-224,119,322,361,204,0,-53,-68
-317,53,370,131,-344,212,439,414,478,112,19,-43
-322,117,439,102,-380,278,473,424,619,234,117,29
-278,214,492,31,-385,353,424,336,561,336,234,151
-107,317,424,-104,-265,370,278,209,385,429,370,297
239,439,200,-339,19,319,-97,-156,-58,448,502,458
619,624,4,-622,307,314,-561,-570,-370,585,707,702
1185,1073,-112,-1129,649,480,-1317,-1161,-434,1049,1234,1220
1688,1263,-424,-1476,1056,419,-1908,-1556,-556,1268,1498,1503
2044,1107,-936,-1576,1490,85,-2132,-1678,-717,1229,1473,1522
2156,775,-1381,-1466,1769,-302,-2078,-1615,-936,814,1083,1215
2044,131,-1912,-1088,1978,-890,-1605,-1234,-1185,82,375,585
1805,-136,-1942,-834,1873,-1039,-1263,-1010,-1210,-297,-4,248
1395,-131,-1527,-631,1461,-829,-1015,-893,-1141,-488,-200,68
1102,-112,-1215,-495,1159,-663,-844,-785,-1044,-546,-273,-19
917,-102,-1019,-407,968,-561,-717,-692,-922,-527,-287,-63
712,-87,-800,-312,756,-444,-570,-566,-790,-478,-278,-92
556,-92,-649,-231,602,-370,-444,-419,-639,-419,-248,-112
380,-102,-483,-139,431,-292,-331,-317,-502,-370,-248,-146
229,-102,-331,-63,280,-217,-219,-244,-405,-317,-239,-165
117,-102,-219,-7,168,-161,-112,-156,-297,-253,-200,-161
19,-107,-126,43,73,-117,-19,-48,-195,-200,-170,-141
-63,-112,-48,87,-7,-80,34,24,-107,-156,-146,-131
-87,-122,-34,104,-26,-78,63,43,-73,-136,-141,-141
-107,-131,-24,119,-41,-78,92,63,-58,-126,-141,-141
-117,-131,-14,124,-51,-73,112,87,-34,-117,-131,-136
-126,-126,0,126,-63,-63,117,92,-29,-117,-131,-131
-136,-122,14,129,-75,-53,117,92,-24,-112,-126,-131
-146,-122,24,134,-85,-48,122,92,-19,-112,-122,-131
-146,-126,19,136,-82,-53,131,97,-9,-102,-122,-131
-146,-126,19,136,-82,-53,131,102,-4,-92,-117,-131
-151,-126,24,139,-87,-51,131,102,-9,-92,-112,-131
-151,-126,24,139,-87,-51,136,102,-9,-92,-107,-131
-151,-126,24,139,-87,-51,136,107,-4,-97,-112,-131
-151,-126,24,139,-87,-51,141,112,0,-102,-122,-131
-156,-126,29,141,-92,-48,141,117,0,-102,-122,-136
-156,-126,29,141,-92,-48,146,117,4,-102,-122,-136
-156,-126,29,141,-92,-48,151,117,9,-97,-117,-136
-156,-126,29,141,-92,-48,156,126,14,-92,-107,-136
-156,-126,29,141,-92,-48,161,126,19,-87,-107,-136
-156,-122,34,139,-95,-43,161,126,24,-87,-107,-131
-156,-126,29,141,-92,-48,165,131,24,-87,-112,-131
-156,-131,24,143,-90,-53,165,136,29,-82,-117,-131
-156,-131,24,143,-90,-53,170,151,39,-78,-112,-131
-156,-131,24,143,-90,-53,175,156,48,-68,-107,-126
-156,-131,24,143,-90,-53,175,161,58,-73,-102,-122
-156,-126,29,141,-92,-48,175,165,63,-68,-102,-122
-156,-126,29,141,-92,-48,185,170,78,-63,-102,-122
-156,-122,34,139,-95,-43,185,180,87,-63,-102,-122
-156,-122,34,139,-95,-43,185,180,97,-53,-102,-117
-161,-122,39,141,-100,-41,190,185,107,-48,-92,-107
-161,-122,39,141,-100,-41,195,190,117,-34,-87,-107
-161,-112,48,136,-104,-31,200,200,126,-24,-78,-102
-156,-107,48,131,-102,-29,204,204,136,-19,-78,-107
-151,-102,48,126,-100,-26,204,214,156,-9,-73,-107
-151,-92,58,122,-104,-17,209,224,170,-4,-63,-102
-146,-92,53,119,-100,-19,214,234,180,4,-58,-97
-146,-82,63,114,-104,-9,219,239,195,14,-43,-92
-146,-68,78,107,-112,4,219,248,209,19,-43,-82
-146,-58,87,102,-117,14,224,253,229,29,-34,-73
-146,-58,87,102,-117,14,224,263,248,48,-29,-73
-146,-48,97,97,-122,24,229,268,278,68,-4,-68
-146,-34,112,90,-129,39,229,283,302,82,19,-53
-146,-34,112,90,-129,39,234,292,326,87,19,-43
-141,-34,107,87,-124,36,234,302,351,97,29,-29
-141,-14,126,78,-134,56,234,307,375,117,19,-39
-141,-9,131,75,-136,61,234,307,390,122,9,-43
-141,14,156,63,-148,85,234,312,419,141,43,-19
-136,39,175,48,-156,107,229,312,444,165,58,4
-136,63,200,36,-168,131,224,307,463,180,78,19
-131,73,204,29,-168,139,214,302,473,195,92,29
-126,82,209,21,-168,146,209,287,502,224,107,39
-126,97,224,14,-175,161,204,283,527,248,126,53
-117,102,219,7,-168,161,200,273,512,244,131,58
-107,112,219,-2,-163,165,180,258,497,239,136,58
-97,126,224,-14,-161,175,170,248,507,244,141,73
-97,131,229,-17,-163,180,165,239,512,244,146,73
-92,136,229,-21,-161,183,156,229,517,253,151,82
-92,146,239,-26,-165,192,141,224,522,268,156,92
-87,151,239,-31,-163,195,131,195,517,263,165,102
-82,161,244,-39,-163,202,117,185,507,263,165,102
-78,165,244,-43,-161,204,107,170,492,263,165,102
-73,165,239,-46,-156,202,97,165,478,253,165,102
-63,165,229,-51,-146,197,87,146,468,244,156,97
-53,165,219,-56,-136,192,78,131,453,239,146,92
-43,165,209,-61,-126,187,58,122,434,229,146,92
-29,165,195,-68,-112,180,39,117,414,224,141,92
-24,161,185,-68,-104,173,39,102,400,209,136,92
-24,151,175,-63,-100,163,43,97,366,195,136,92
-14,141,156,-63,-85,148,34,82,341,185,126,92
-4,141,146,-68,-75,143,19,68,317,170,122,87
0,141,141,-70,-70,141,4,43,287,165,126,87
9,146,136,-78,-63,141,0,29,258,156,131,82
14,141,126,-78,-56,134,-9,19,239,146,117,82
19,136,117,-78,-48,126,-19,4,214,131,97,82
19,107,87,-63,-34,97,-19,-4,180,117,92,68
19,87,68,-53,-24,78,-24,-14,156,97,78,63
24,87,63,-56,-19,75,-34,-24,131,92,78,63
24,92,68,-58,-21,80,-43,-34,107,87,82,58
24,82,58,-53,-17,70,-43,-39,78,73,68,58
29,73,43,-51,-7,58,-43,-39,58,53,58,53
29,63,34,-46,-2,48,-43,-39,39,39,48,48
19,48,29,-34,-4,39,-43,-39,19,29,39,34
19,29,9,-24,4,19,-39,-43,-4,9,14,19
19,4,-14,-12,17,-4,-39,-43,-24,-9,-9,0
14,-9,-24,-2,19,-17,-34,-43,-34,-19,-9,0
9,-14,-24,2,17,-19,-34,-43,-48,-34,-14,-9
9,-9,-19,0,14,-14,-29,-39,-53,-39,-19,-19
9,-4,-14,-2,12,-9,-29,-39,-63,-48,-29,-29
4,-19,-24,7,14,-21,-24,-39,-78,-63,-43,-43
4,-39,-43,17,24,-41,-19,-34,-87,-73,-48,-48
0,-43,-43,21,21,-43,-14,-34,-92,-73,-53,-48
-4,-43,-39,24,17,-41,-9,-34,-92,-73,-53,-48
-9,-43,-34,26,12,-39,-9,-29,-92,-73,-53,-48
-9,-43,-34,26,12,-39,-4,-24,-92,-78,-53,-48
-9,-53,-43,31,17,-48,0,-24,-102,-78,-63,-53
-9,-63,-53,36,21,-58,0,-24,-107,-78,-63,-58
-9,-63,-53,36,21,-58,0,-19,-107,-78,-63,-63
-14,-68,-53,41,19,-61,4,-19,-107,-82,-63,-63
-14,-63,-48,39,17,-56,0,-14,-102,-78,-58,-53
-14,-58,-43,36,14,-51,0,-14,-92,-73,-53,-48
-14,-58,-43,36,14,-51,0,-9,-92,-73,-53,-48
-14,-58,-43,36,14,-51,0,-9,-87,-73,-53,-48
-19,-63,-43,41,12,-53,4,-9,-82,-73,-58,-48
-19,-68,-48,43,14,-58,14,-4,-82,-78,-63,-53
-14,-73,-58,43,21,-65,19,0,-87,-82,-68,-63
-9,-73,-63,41,26,-68,24,0,-82,-82,-73,-73
-19,-68,-48,43,14,-58,24,4,-78,-82,-73,-73
-19,-63,-43,41,12,-53,24,4,-73,-87,-73,-68
-19,-63,-43,41,12,-53,29,4,-63,-78,-63,-63
-19,-58,-39,39,9,-48,29,4,-58,-78,-58,-63
-24,-58,-34,41,4,-46,29,9,-48,-68,-58,-58
-29,-58,-29,43,0,-43,29,9,-39,-63,-53,-53
-39,-53,-14,46,-12,-34,29,9,-39,-63,-48,-53
-53,-53,0,53,-26,-26,29,9,-34,-58,-43,-53
-43,-53,-9,48,-17,-31,29,19,-34,-58,-43,-53
-39,-53,-14,46,-12,-34,34,24,-24,-53,-43,-53
-39,-63,-24,51,-7,-43,34,24,-24,-53,-43,-63
-39,-73,-34,56,-2,-53,34,24,-24,-53,-48,-73
-43,-58,-14,51,-14,-36,39,29,-19,-43,-48,-58
-43,-43,0,43,-21,-21,39,29,-19,-39,-43,-48
-43,-43,0,43,-21,-21,39,24,-19,-34,-39,-48
-43,-39,4,41,-24,-17,39,24,-19,-34,-39,-48
-43,-63,-19,53,-12,-41,43,24,-19,-53,-53,-58
-48,-87,-39,68,-4,-63,43,24,-19,-68,-63,-68
-48,-78,-29,63,-9,-53,43,24,-19,-68,-68,-68
-53,-68,-14,61,-19,-41,43,19,-19,-68,-68,-68
-53,-63,-9,58,-21,-36,43,19,-19,-63,-63,-73
-48,-58,-9,53,-19,-34,43,19,-29,-63,-58,-73
-48,-53,-4,51,-21,-29,43,19,-19,-53,-53,-63
-48,-48,0,48,-24,-24,43,24,-14,-43,-53,-53
-53,-48,4,51,-29,-21,43,24,-14,-43,-48,-48
-53,-48,4,51,-29,-21,43,24,-14,-43,-43,-43
-58,-58,0,58,-29,-29,43,24,-24,-48,-43,-43
-63,-58,4,61,-34,-26,43,24,-29,-53,-48,-53
-63,-68,-4,65,-29,-36,43,24,-29,-63,-53,-58
-63,-73,-9,68,-26,-41,43,19,-34,-73,-68,-68
-63,-73,-9,68,-26,-41,43,19,-34,-82,-68,-68
-63,-73,-9,68,-26,-41,43,19,-34,-73,-68,-68
-58,-73,-14,65,-21,-43,39,19,-39,-73,-68,-63
-53,-73,-19,63,-17,-46,39,14,-39,-73,-68,-63
-53,-68,-14,61,-19,-41,39,14,-39,-73,-68,-68
-53,-63,-9,58,-21,-36,39,14,-43,-73,-68,-73
-53,-68,-14,61,-19,-41,39,9,-48,-73,-68,-68
-53,-73,-19,63,-17,-46,39,9,-58,-73,-63,-63
-58,-73,-14,65,-21,-43,39,9,-58,-78,-63,-63
-63,-73,-9,68,-26,-41,34,9,-58,-78,-63,-63
-63,-73,-9,68,-26,-41,34,4,-58,-78,-63,-63
-63,-68,-4,65,-29,-36,29,4,-58,-78,-63,-63
-63,-68,-4,65,-29,-36,29,4,-63,-82,-63,-63
-63,-73,-9,68,-26,-41,34,4,-68,-87,-68,-63
-63,-73,-9,68,-26,-41,34,4,-68,-87,-73,-68
-63,-73,-9,68,-26,-41,34,4,-68,-87,-73,-68
-63,-73,-9,68,-26,-41,34,4,-68,-87,-73,-68
-63,-73,-9,68,-26,-41,34,4,-68,-87,-68,-68
-63,-73,-9,68,-26,-41,34,4,-68,-87,-68,-68
-68,-73,-4,70,-31,-39,34,4,-68,-87,-68,-68
-68,-68,0,68,-34,-34,34,-4,-73,-82,-63,-63
-68,-63,4,65,-36,-29,34,-9,-73,-78,-63,-58
-68,-63,4,65,-36,-29,29,-9,-73,-78,-63,-63
-68,-63,4,65,-36,-29,29,-9,-73,-82,-63,-63
-68,-63,4,65,-36,-29,24,-9,-73,-82,-63,-63
-68,-63,4,65,-36,-29,19,-14,-73,-82,-63,-58
-63,-58,4,61,-34,-26,19,-14,-73,-82,-58,-53
-63,-53,9,58,-36,-21,19,-14,-78,-82,-58,-53
-63,-58,4,61,-34,-26,19,-9,-78,-82,-58,-53
-68,-58,9,63,-39,-24,19,-14,-78,-82,-63,-58
-68,-63,4,65,-36,-29,19,-14,-82,-82,-63,-58
-68,-68,0,68,-34,-34,19,-19,-87,-87,-68,-58
-68,-68,0,68,-34,-34,19,-19,-87,-87,-68,-63
-68,-68,0,68,-34,-34,19,-19,-87,-87,-68,-68
-68,-68,0,68,-34,-34,19,-19,-87,-87,-68,-68
-68,-68,0,68,-34,-34,19,-19,-87,-87,-68,-68
-63,-68,-4,65,-29,-36,19,-19,-87,-87,-68,-68
-58,-68,-9,63,-24,-39,19,-19,-87,-87,-68,-68
-58,-68,-9,63,-24,-39,14,-19,-87,-87,-68,-63
-58,-68,-9,63,-24,-39,9,-19,-87,-87,-68,-58
-58,-58,0,58,-29,-29,9,-24,-87,-87,-68,-58
-58,-48,9,53,-34,-19,9,-29,-87,-87,-68,-58
-58,-43,14,51,-36,-14,9,-29,-87,-82,-63,-58
-58,-39,19,48,-39,-9,9,-29,-87,-78,-58,-58
-58,-29,29,43,-43,0,9,-29,-78,-73,-53,-48
-58,-19,39,39,-48,9,9,-29,-68,-68,-48,-39
-53,-4,48,29,-51,21,4,-29,-63,-68,-43,-39
-48,9,58,19,-53,34,0,-29,-58,-68,-39,-39
-48,14,63,17,-56,39,0,-29,-48,-58,-34,-34
-48,19,68,14,-58,43,0,-29,-39,-48,-29,-29
-43,24,68,9,-56,46,0,-29,-39,-48,-24,-24
-39,24,63,7,-51,43,0,-29,-39,-43,-19,-19
-39,29,68,4,-53,48,-4,-29,-39,-39,-19,-19
-29,43,73,-7,-51,58,-9,-34,-39,-24,-9,-9
-14,63,78,-24,-46,70,-24,-39,-24,-9,0,0
-4,78,82,-36,-43,80,-39,-48,-19,4,9,9
-9,82,92,-36,-51,87,-58,-58,-19,4,19,14
-9,82,92,-36,-51,87,-73,-78,-34,4,9,14
-9,82,92,-36,-51,87,-97,-107,-39,-19,0,4
-14,87,102,-36,-58,95,-92,-107,-43,-29,-4,0
-14,82,97,-34,-56,90,-92,-107,-63,-29,-9,0
-9,78,87,-34,-48,82,-87,-102,-73,-29,-14,0
0,63,63,-31,-31,63,-78,-87,-78,-29,-14,0
4,43,39,-24,-17,41,-68,-78,-97,-48,-29,-9
4,24,19,-14,-7,21,-58,-73,-102,-58,-34,-19
-4,9,14,-2,-9,12,-48,-73,-97,-53,-29,-14
-9,0,9,4,-9,4,-43,-63,-97,-58,-34,-19
-19,-14,4,17,-12,-4,-34,-58,-102,-68,-43,-34
-29,-24,4,26,-17,-9,-24,-53,-102,-68,-43,-39
-39,-39,0,39,-19,-19,-9,-43,-107,-78,-53,-48
-48,-58,-9,53,-19,-34,0,-34,-107,-78,-63,-53
-63,-68,-4,65,-29,-36,19,-24,-112,-92,-68,-63
-82,-78,4,80,-43,-36,14,-19,-117,-102,-82,-68
-87,-78,9,82,-48,-34,19,-24,-117,-102,-82,-73
-82,-87,-4,85,-39,-46,19,-29,-112,-102,-82,-78
-78,-87,-9,82,-34,-48,14,-29,-102,-97,-78,-78
-78,-92,-14,85,-31,-53,14,-29,-112,-97,-78,-78
-78,-97,-19,87,-29,-58,14,-24,-122,-97,-78,-78
-82,-107,-24,95,-29,-65,14,-19,-122,-97,-78,-73
-87,-117,-29,102,-29,-73,14,-19,-126,-102,-82,-73
-87,-107,-19,97,-34,-63,14,-19,-126,-102,-82,-73
-87,-97,-9,92,-39,-53,14,-19,-126,-102,-78,-68
-87,-97,-9,92,-39,-53,19,-19,-122,-97,-78,-68
-87,-97,-9,92,-39,-53,24,-19,-122,-97,-78,-68
-87,-97,-9,92,-39,-53,24,-19,-122,-97,-78,-68
-82,-97,-14,90,-34,-56,24,-19,-122,-97,-78,-73
-82,-97,-14,90,-34,-56,24,-19,-117,-97,-78,-73
-82,-97,-14,90,-34,-56,24,-19,-117,-97,-78,-73
-82,-82,0,82,-41,-41,24,-19,-112,-87,-78,-73
-82,-73,9,78,-46,-31,24,-14,-102,-82,-73,-68
-92,-63,29,78,-61,-17,43,9,-68,-73,-68,-58
-112,-24,87,68,-100,31,68,34,9,-39,-48,-43
-151,4,156,73,-153,80,112,82,112,0,-24,-39
-204,14,219,95,-212,117,283,307,283,43,-4,-48
-224,63,287,80,-256,175,375,405,414,131,58,0
-219,146,366,36,-292,256,380,370,541,258,175,92
-122,258,380,-68,-251,319,292,283,502,400,326,248
58,405,346,-231,-143,375,82,78,263,522,507,448
331,575,244,-453,43,409,-224,-161,24,702,751,697
722,780,58,-751,331,419,-717,-575,-273,897,1034,995
1098,951,-146,-1024,622,402,-1176,-941,-453,1107,1283,1273
1517,1156,-361,-1337,939,397,-1649,-1288,-473,1410,1615,1595
1810,1073,-736,-1442,1273,168,-1883,-1415,-580,1337,1576,1600
1869,702,-1166,-1285,1517,-231,-1732,-1298,-736,946,1205,1307
1742,297,-1444,-1019,1593,-573,-1468,-1107,-922,361,639,844
1503,-97,-1600,-702,1551,-849,-1088,-839,-1044,-161,131,395
1244,-175,-1420,-534,1332,-797,-873,-722,-1000,-366,-82,185
956,-156,-1112,-400,1034,-634,-712,-639,-951,-497,-224,34
756,-126,-883,-314,819,-505,-585,-551,-854,-483,-234,-9
610,-122,-732,-244,671,-427,-473,-458,-727,-434,-224,-39
444,-107,-551,-168,497,-329,-356,-356,-585,-370,-209,-58
317,-107,-424,-104,370,-265,-258,-253,-444,-312,-190,-82
175,-112,-287,-31,231,-200,-165,-180,-336,-273,-190,-117
87,-112,-200,12,143,-156,-82,-117,-268,-234,-180,-126
24,-122,-146,48,85,-134,-9,-43,-170,-185,-151,-117
-34,-136,-102,85,34,-119,48,19,-92,-156,-141,-112
-82,-131,-48,107,-17,-90,73,58,-39,-126,-126,-112
-87,-131,-43,109,-21,-87,87,68,-29,-112,-122,-122
-97,-141,-43,119,-26,-92,107,78,-29,-107,-117,-122
-107,-141,-34,124,-36,-87,117,92,-4,-97,-102,-117
-112,-136,-24,124,-43,-80,117,92,-4,-97,-102,-112
-112,-131,-19,122,-46,-75,117,92,-9,-92,-102,-112
-117,-131,-14,124,-51,-73,122,92,-14,-97,-107,-112
-117,-136,-19,126,-48,-78,131,97,-9,-97,-112,-112
-117,-136,-19,126,-48,-78,131,102,-4,-92,-107,-112
-122,-136,-14,129,-53,-75,131,102,-4,-92,-102,-112
-122,-131,-9,126,-56,-70,136,102,4,-87,-92,-107
-122,-126,-4,124,-58,-65,136,107,14,-78,-87,-102
-122,-122,0,122,-61,-61,141,107,19,-73,-92,-102
-126,-117,9,122,-68,-53,141,107,19,-73,-92,-107
-126,-117,9,122,-68,-53,146,107,29,-73,-92,-107
-126,-117,9,122,-68,-53,146,107,39,-73,-92,-107
-131,-122,9,126,-70,-56,146,122,43,-73,-87,-107
-136,-126,9,131,-73,-58,151,126,48,-68,-87,-107
-136,-126,9,131,-73,-58,151,126,48,-68,-92,-107
-136,-131,4,134,-70,-63,156,131,48,-68,-97,-112
-131,-131,0,131,-65,-65,156,136,58,-63,-97,-112
-126,-131,-4,129,-61,-68,161,146,68,-58,-92,-112
-126,-126,0,126,-63,-63,165,146,78,-39,-87,-102
-126,-122,4,124,-65,-58,165,151,87,-29,-82,-92
-126,-117,9,122,-68,-53,165,156,92,-34,-82,-92
-126,-117,9,122,-68,-53,175,161,102,-43,-82,-92
-126,-122,4,124,-65,-58,175,165,107,-43,-82,-92
-126,-131,-4,129,-61,-68,175,165,117,-39,-82,-92
-131,-122,9,126,-70,-56,180,170,131,-29,-68,-87
-131,-112,19,122,-75,-46,185,170,151,-4,-58,-87
-131,-102,29,117,-80,-36,185,180,165,4,-48,-82
-131,-97,34,114,-82,-31,185,185,175,9,-48,-82
-131,-92,39,112,-85,-26,185,195,190,9,-48,-82
-131,-82,48,107,-90,-17,190,204,204,9,-43,-82
-126,-82,43,104,-85,-19,195,214,219,24,-48,-78
-126,-73,53,100,-90,-9,200,219,239,34,-43,-73
-126,-58,68,92,-97,4,200,229,263,43,-34,-63
-126,-48,78,87,-102,14,204,234,287,58,-14,-53
-126,-39,87,82,-107,24,204,239,312,78,-9,-48
-126,-19,107,73,-117,43,209,239,346,97,4,-39
-122,-4,117,63,-119,56,204,253,370,117,24,-24
-117,9,126,53,-122,68,204,253,395,136,39,-14
-112,19,131,46,-122,75,204,253,419,156,58,0
-112,34,146,39,-129,90,204,258,444,175,68,4
-117,34,151,41,-134,92,204,258,453,170,68,9
-122,48,170,36,-146,109,204,263,473,180,82,19
-117,68,185,24,-151,126,200,258,492,204,87,34
-117,87,204,14,-161,146,190,248,512,214,102,43
-117,97,214,9,-165,156,175,244,517,229,117,53
-117,112,229,2,-173,170,170,229,527,248,131,68
-117,136,253,-9,-185,195,165,224,536,263,151,82
-112,151,263,-19,-187,207,161,214,541,278,161,92
-107,161,268,-26,-187,214,141,200,546,287,175,97
-97,175,273,-39,-185,224,131,190,546,292,190,112
-97,175,273,-39,-185,224,126,180,536,283,185,107
-87,175,263,-43,-175,219,117,170,522,268,175,102
-82,170,253,-43,-168,212,107,175,512,268,170,102
-73,156,229,-41,-151,192,102,156,507,263,175,112
-63,161,224,-48,-143,192,87,146,497,263,175,112
-58,165,224,-53,-141,195,78,131,483,263,175,112
-53,170,224,-58,-139,197,68,126,468,258,175,112
-43,175,219,-65,-131,197,58,107,453,253,170,112
-34,180,214,-73,-124,197,48,92,434,248,165,117
-29,185,214,-78,-122,200,39,82,414,239,165,122
-14,185,200,-85,-107,192,29,78,395,234,161,122
-4,185,190,-90,-97,187,19,58,380,224,156,122
-4,180,185,-87,-95,183,14,53,351,214,156,122
4,170,165,-87,-80,168,4,43,331,204,146,122
9,165,156,-87,-73,161,-4,34,307,190,146,117
9,151,141,-80,-65,146,-14,19,278,185,146,117
19,146,126,-82,-53,136,-19,9,244,175,141,112
24,141,117,-82,-46,129,-29,0,219,165,136,112
29,141,112,-85,-41,126,-39,-9,195,151,126,112
29,131,102,-80,-36,117,-39,-14,161,136,122,97
34,126,92,-80,-29,109,-43,-24,136,117,107,92
43,112,68,-78,-12,90,-48,-29,112,107,97,87
43,102,58,-73,-7,80,-53,-39,87,97,92,78
43,92,48,-68,-2,70,-53,-48,58,82,78,73
43,82,39,-63,2,61,-53,-48,39,58,63,63
39,73,34,-56,2,53,-53,-48,19,39,48,58
29,58,29,-43,0,43,-53,-43,0,29,39,43
29,48,19,-39,4,34,-48,-43,-19,14,29,34
29,34,4,-31,12,19,-43,-43,-34,0,19,19
24,19,-4,-21,14,7,-34,-43,-43,-9,9,19
19,14,-4,-17,12,4,-34,-43,-58,-24,-4,9
19,4,-14,-12,17,-4,-29,-39,-63,-29,-9,0
19,0,-19,-9,19,-9,-34,-39,-68,-34,-14,-4
14,0,-14,-7,14,-7,-34,-39,-73,-39,-19,-9
14,-9,-24,-2,19,-17,-29,-34,-78,-39,-19,-9
14,-14,-29,0,21,-21,-29,-34,-82,-34,-24,-9
19,-14,-34,-2,26,-24,-29,-34,-82,-34,-19,-9
19,-14,-34,-2,26,-24,-29,-29,-82,-34,-14,-9
19,-14,-34,-2,26,-24,-24,-19,-82,-39,-14,-9
19,-19,-39,0,29,-29,-19,-14,-87,-39,-24,-9
19,-29,-48,4,34,-39,-19,-14,-87,-39,-29,-14
19,-34,-53,7,36,-43,-19,-9,-87,-39,-34,-24
14,-39,-53,12,34,-46,-14,-14,-87,-43,-34,-24
14,-39,-53,12,34,-46,-14,-14,-87,-43,-34,-24
14,-34,-48,9,31,-41,-9,-14,-82,-43,-29,-29
14,-29,-43,7,29,-36,-9,-9,-82,-43,-24,-29
9,-29,-39,9,24,-34,-4,-9,-73,-43,-24,-29
0,-29,-29,14,14,-29,0,-9,-63,-39,-24,-24
0,-34,-34,17,17,-34,4,-4,-63,-39,-29,-24
0,-43,-43,21,21,-43,9,0,-63,-43,-34,-29
4,-43,-48,19,26,-46,9,-4,-53,-43,-34,-29
0,-39,-39,19,19,-39,4,-4,-48,-39,-34,-24
0,-24,-24,12,12,-24,4,-4,-43,-39,-24,-19
0,-14,-14,7,7,-14,9,-4,-34,-29,-9,-14
0,-24,-24,12,12,-24,14,0,-29,-29,-19,-14
-4,-39,-34,21,14,-36,19,9,-24,-24,-29,-14
-9,-48,-39,29,14,-43,19,9,-19,-24,-24,-14
-9,-53,-43,31,17,-48,19,9,-19,-24,-24,-14
-14,-34,-19,24,2,-26,19,9,-14,-19,-24,-14
-14,-14,0,14,-7,-7,19,14,-14,-19,-24,-14
-19,-14,4,17,-12,-4,19,14,-4,-14,-24,-14
-19,-14,4,17,-12,-4,14,14,-4,-14,-19,-14
-14,-24,-9,19,-2,-17,14,14,-9,-19,-24,-19
-14,-34,-19,24,2,-26,19,19,-9,-19,-29,-19
-14,-34,-19,24,2,-26,24,19,-9,-19,-24,-19
-14,-34,-19,24,2,-26,29,14,-9,-14,-19,-19
-19,-24,-4,21,-7,-14,29,14,-9,-9,-14,-19
-24,-19,4,21,-14,-7,29,14,-9,-9,-14,-19
-29,-19,9,24,-19,-4,24,14,-9,-9,-14,-19
-29,-19,9,24,-19,-4,24,14,-9,-9,-19,-19
-29,-19,9,24,-19,-4,19,4,-9,-9,-19,-19
-24,-19,4,21,-14,-7,14,0,-9,-9,-19,-24
-19,-19,0,19,-9,-9,14,0,-19,-14,-19,-24
-19,-19,0,19,-9,-9,14,-4,-19,-14,-19,-24
-19,-9,9,14,-14,0,14,-4,-24,-19,-24,-24
-24,0,24,12,-24,12,14,-4,-24,-29,-24,-24
-24,-9,14,17,-19,2,19,-4,-24,-34,-29,-24
-24,-29,-4,26,-9,-17,24,-4,-34,-39,-34,-24
-24,-29,-4,26,-9,-17,24,-4,-39,-43,-39,-34
-24,-34,-9,29,-7,-21,24,-4,-39,-43,-39,-34
-24,-29,-4,26,-9,-17,19,-9,-43,-39,-39,-34
-24,-24,0,24,-12,-12,14,-9,-43,-43,-29,-29
-24,-24,0,24,-12,-12,14,-9,-43,-34,-29,-29
-24,-24,0,24,-12,-12,9,-9,-48,-34,-29,-24
-24,-39,-14,31,-4,-26,9,-9,-58,-53,-39,-29
-24,-53,-29,39,2,-41,9,-4,-68,-78,-48,-39
-24,-43,-19,34,-2,-31,9,-4,-63,-73,-48,-43
-24,-39,-14,31,-4,-26,9,-9,-58,-63,-53,-43
-24,-29,-4,26,-9,-17,4,-14,-68,-53,-43,-39
-24,-14,9,19,-17,-2,0,-19,-68,-48,-34,-34
-24,-14,9,19,-17,-2,-4,-19,-68,-48,-34,-34
-24,-14,9,19,-17,-2,-4,-24,-68,-48,-34,-34
-24,-14,9,19,-17,-2,-4,-24,-68,-53,-39,-34
-24,-19,4,21,-14,-7,0,-24,-73,-63,-43,-34
-24,-34,-9,29,-7,-21,4,-24,-78,-68,-48,-39
-24,-43,-19,34,-2,-31,4,-24,-78,-68,-53,-48
-24,-43,-19,34,-2,-31,4,-24,-78,-68,-53,-48
-24,-43,-19,34,-2,-31,4,-24,-78,-68,-53,-48
-24,-39,-14,31,-4,-26,4,-19,-78,-68,-43,-43
-24,-34,-9,29,-7,-21,4,-14,-78,-68,-39,-39
-29,-34,-4,31,-12,-19,4,-14,-78,-68,-39,-39
-29,-34,-4,31,-12,-19,4,-19,-82,-68,-39,-39
-29,-43,-14,36,-7,-29,4,-19,-82,-68,-53,-39
-29,-53,-24,41,-2,-39,0,-19,-82,-68,-63,-43
-24,-43,-19,34,-2,-31,0,-24,-82,-63,-48,-39
-19,-34,-14,26,-2,-24,0,-29,-82,-53,-34,-34
-19,-24,-4,21,-7,-14,0,-34,-82,-53,-34,-29
-14,-14,0,14,-7,-7,0,-34,-82,-53,-29,-24
-14,-29,-14,21,0,-21,4,-34,-87,-73,-48,-39
-14,-48,-34,31,9,-41,9,-29,-87,-92,-68,-53
-14,-48,-34,31,9,-41,4,-29,-87,-87,-63,-58
-14,-53,-39,34,12,-46,4,-29,-92,-82,-63,-63
-14,-34,-19,24,2,-26,0,-29,-87,-73,-53,-53
-19,-19,0,19,-9,-9,0,-29,-87,-68,-48,-48
-19,-19,0,19,-9,-9,0,-29,-87,-68,-48,-43
-19,-19,0,19,-9,-9,0,-29,-87,-68,-48,-39
-19,-19,0,19,-9,-9,-4,-29,-87,-68,-48,-39
-19,-19,0,19,-9,-9,-9,-29,-87,-68,-48,-39
-19,-29,-9,24,-4,-19,-9,-29,-92,-78,-53,-39
-19,-39,-19,29,0,-29,-9,-29,-97,-87,-58,-39
-19,-39,-19,29,0,-29,-4,-29,-97,-87,-68,-43
-19,-39,-19,29,0,-29,0,-29,-97,-87,-78,-48
-19,-34,-14,26,-2,-24,0,-29,-92,-82,-68,-48
-19,-29,-9,24,-4,-19,0,-29,-87,-78,-58,-48
-14,-19,-4,17,-4,-12,0,-29,-82,-68,-48,-39
-9,-9,0,9,-4,-4,0,-29,-78,-58,-39,-29
-4,19,24,-7,-14,21,-9,-34,-68,-48,-29,-19
0,48,48,-24,-24,48,-19,-39,-58,-39,-19,-9
0,53,53,-26,-26,53,-19,-43,-48,-34,-19,-9
0,58,58,-29,-29,58,-19,-48,-39,-29,-19,-9
0,58,58,-29,-29,58,-19,-48,-39,-29,-19,-9
