I, II, III, aVR, aVL, aVF, V1, V2, V3, V4, V5, V6
195,507,312,-351,-58,409,-634,-858,-29,283,566,732
-136,551,688,-207,-412,619,-566,-1171,-331,68,395,624
-468,595,1063,-63,-766,829,-497,-1483,-634,-146,224,517
-561,409,971,75,-766,690,-439,-1595,-888,-414,-24,302
-653,224,878,214,-766,551,-380,-1708,-1141,-683,-273,87
-624,161,785,231,-705,473,-341,-1503,-1054,-663,-302,29
-595,97,692,248,-644,395,-302,-1298,-966,-644,-331,-29
-473,97,570,187,-522,334,-248,-1019,-771,-531,-278,-39
-351,97,448,126,-400,273,-195,-741,-575,-419,-224,-48
-302,73,375,114,-339,224,-141,-575,-458,-336,-190,-58
-253,48,302,102,-278,175,-87,-409,-341,-253,-156,-68
-214,0,214,107,-214,107,-53,-307,-268,-214,-141,-73
-175,-48,126,112,-151,39,-19,-204,-195,-175,-126,-78
-146,-68,78,107,-112,4,-4,-156,-161,-146,-117,-82
-117,-87,29,102,-73,-29,9,-107,-126,-117,-107,-87
-117,-102,14,109,-65,-43,14,-82,-107,-117,-107,-87
-117,-117,0,117,-58,-58,19,-58,-87,-117,-107,-87
-107,-126,-19,117,-43,-73,24,-43,-82,-107,-102,-87
-97,-136,-39,117,-29,-87,29,-29,-78,-97,-97,-87
-87,-136,-48,112,-19,-92,34,-9,-63,-97,-87,-87
-78,-136,-58,107,-9,-97,39,9,-48,-97,-78,-87
-73,-136,-63,104,-4,-100,39,19,-43,-87,-78,-87
-68,-136,-68,102,0,-102,39,29,-39,-78,-78,-87
-63,-131,-68,97,2,-100,43,48,-29,-68,-73,-82
-58,-126,-68,92,4,-97,48,68,-19,-58,-68,-78
-53,-126,-73,90,9,-100,48,73,-9,-53,-63,-78
-48,-126,-78,87,14,-102,48,78,0,-48,-58,-78
-43,-122,-78,82,17,-100,43,82,9,-43,-53,-73
-39,-117,-78,78,19,-97,39,87,19,-39,-48,-68
-29,-112,-82,70,26,-97,39,107,34,-29,-39,-63
-19,-107,-87,63,34,-97,39,126,48,-19,-29,-58
-14,-102,-87,58,36,-95,39,151,58,-9,-24,-53
-9,-97,-87,53,39,-92,39,175,68,0,-19,-48
-4,-87,-82,46,39,-85,39,185,87,14,-4,-39
0,-78,-78,39,39,-78,39,195,107,29,9,-29
14,-63,-78,24,46,-70,39,214,122,39,14,-24
29,-48,-78,9,53,-63,39,234,136,48,19,-19
39,-39,-78,0,58,-58,34,244,151,63,29,-9
48,-29,-78,-9,63,-53,29,253,165,78,39,0
58,-19,-78,-19,68,-48,29,283,190,97,53,9
68,-9,-78,-29,73,-43,29,312,214,117,68,19
82,4,-78,-43,80,-36,24,331,229,131,78,29
97,19,-78,-58,87,-29,19,351,244,146,87,39
112,34,-78,-73,95,-21,19,390,273,170,107,53
126,48,-78,-87,102,-14,19,429,302,195,126,68
146,58,-87,-102,117,-14,14,458,331,214,141,78
165,68,-97,-117,131,-14,9,488,361,234,156,87
185,82,-102,-134,143,-9,9,522,390,253,175,102
204,97,-107,-151,156,-4,9,556,419,273,195,117
224,122,-102,-173,163,9,9,595,448,302,219,136
244,146,-97,-195,170,24,9,634,478,331,244,156
263,165,-97,-214,180,34,4,673,512,361,268,180
283,185,-97,-234,190,43,0,712,546,390,292,204
312,209,-102,-261,207,53,-9,736,575,414,317,219
341,234,-107,-287,224,63,-19,761,605,439,341,234
361,248,-112,-305,236,68,-19,819,649,473,370,258
380,263,-117,-322,248,73,-19,878,692,507,400,283
405,283,-122,-344,263,80,-29,902,717,527,414,297
429,302,-126,-366,278,87,-39,927,741,546,429,312
444,317,-126,-380,285,95,-39,946,766,566,448,331
458,331,-126,-395,292,102,-39,966,790,585,468,351
473,351,-122,-412,297,114,-48,966,800,600,483,366
488,370,-117,-429,302,126,-58,966,810,614,497,380
488,380,-107,-434,297,136,-68,961,810,614,507,395
488,390,-97,-439,292,146,-78,956,810,614,517,409
488,390,-97,-439,292,146,-78,912,785,610,517,409
488,390,-97,-439,292,146,-78,868,761,605,517,409
458,375,-82,-417,270,146,-82,805,717,575,492,400
429,361,-68,-395,248,146,-87,741,673,546,468,390
395,341,-53,-368,224,143,-87,663,610,502,439,366
361,322,-39,-341,200,141,-87,585,546,458,409,341
317,287,-29,-302,173,129,-78,502,478,405,361,307
273,253,-19,-263,146,117,-68,419,409,351,312,273
239,214,-24,-226,131,95,-63,356,346,297,268,234
204,175,-29,-190,117,73,-58,292,283,244,224,195
165,141,-24,-153,95,58,-48,229,224,190,180,156
126,107,-19,-117,73,43,-39,165,165,136,136,117
97,73,-24,-85,61,24,-34,122,126,107,102,87
68,39,-29,-53,48,4,-29,78,87,78,68,58
43,19,-24,-31,34,-2,-19,43,43,39,39,34
19,0,-19,-9,19,-9,-9,9,0,0,9,9
4,-19,-24,7,14,-21,-9,-14,-19,-14,-9,-9
-9,-39,-29,24,9,-34,-9,-39,-39,-29,-29,-29
-19,-43,-24,31,2,-34,-4,-58,-58,-43,-43,-39
-29,-48,-19,39,-4,-34,0,-78,-78,-58,-58,-48
-34,-58,-24,46,-4,-41,4,-82,-82,-68,-63,-58
-39,-68,-29,53,-4,-48,9,-87,-87,-78,-68,-68
-43,-68,-24,56,-9,-46,9,-92,-92,-82,-73,-73
-48,-68,-19,58,-14,-43,9,-97,-97,-87,-78,-78
-53,-73,-19,63,-17,-46,9,-97,-102,-87,-78,-78
-58,-78,-19,68,-19,-48,9,-97,-107,-87,-78,-78
-58,-82,-24,70,-17,-53,14,-97,-107,-87,-78,-78
-58,-87,-29,73,-14,-58,19,-97,-107,-87,-78,-78
-58,-87,-29,73,-14,-58,19,-97,-102,-92,-78,-78
-58,-87,-29,73,-14,-58,19,-97,-97,-97,-78,-78
-58,-82,-24,70,-17,-53,19,-92,-97,-97,-78,-78
-58,-78,-19,68,-19,-48,19,-87,-97,-97,-78,-78
-53,-78,-24,65,-14,-51,19,-87,-97,-92,-78,-78
-48,-78,-29,63,-9,-53,19,-87,-97,-87,-78,-78
-48,-78,-29,63,-9,-53,19,-87,-97,-87,-78,-78
-48,-78,-29,63,-9,-53,19,-87,-97,-87,-78,-78
-48,-78,-29,63,-9,-53,19,-87,-97,-87,-78,-78
-48,-78,-29,63,-9,-53,19,-87,-97,-87,-78,-78
-48,-78,-29,63,-9,-53,19,-87,-97,-87,-78,-78
-48,-78,-29,63,-9,-53,19,-87,-97,-87,-78,-78
-48,-78,-29,63,-9,-53,19,-87,-97,-87,-78,-78
-48,-78,-29,63,-9,-53,19,-87,-97,-87,-78,-78
-48,-78,-29,63,-9,-53,24,-87,-97,-87,-78,-78
-48,-78,-29,63,-9,-53,29,-87,-97,-87,-78,-78
-48,-78,-29,63,-9,-53,29,-87,-97,-87,-82,-78
-48,-78,-29,63,-9,-53,29,-87,-97,-87,-87,-78
-48,-78,-29,63,-9,-53,24,-87,-97,-87,-87,-82
-48,-78,-29,63,-9,-53,19,-87,-97,-87,-87,-87
-48,-78,-29,63,-9,-53,19,-87,-97,-87,-87,-87
-48,-78,-29,63,-9,-53,19,-87,-97,-87,-87,-87
-48,-78,-29,63,-9,-53,19,-92,-97,-87,-87,-87
-48,-78,-29,63,-9,-53,19,-97,-97,-87,-87,-87
-48,-78,-29,63,-9,-53,19,-97,-97,-87,-87,-87
-48,-78,-29,63,-9,-53,19,-97,-97,-87,-87,-87
-48,-82,-34,65,-7,-58,19,-97,-102,-92,-87,-92
-48,-87,-39,68,-4,-63,19,-97,-107,-97,-87,-97
-48,-87,-39,68,-4,-63,19,-107,-112,-102,-92,-97
-48,-87,-39,68,-4,-63,19,-117,-117,-107,-97,-97
-53,-87,-34,70,-9,-61,19,-117,-117,-107,-97,-97
-58,-87,-29,73,-14,-58,19,-117,-117,-107,-97,-97
-58,-87,-29,73,-14,-58,24,-117,-117,-107,-97,-97
-58,-87,-29,73,-14,-58,29,-117,-117,-107,-97,-97
-58,-87,-29,73,-14,-58,29,-117,-117,-107,-97,-97
-58,-87,-29,73,-14,-58,29,-117,-117,-107,-97,-97
-58,-87,-29,73,-14,-58,24,-117,-117,-107,-97,-97
-58,-87,-29,73,-14,-58,19,-117,-117,-107,-97,-97
-58,-87,-29,73,-14,-58,19,-117,-117,-112,-97,-102
-58,-87,-29,73,-14,-58,19,-117,-117,-117,-97,-107
-58,-92,-34,75,-12,-63,24,-117,-122,-117,-97,-107
-58,-97,-39,78,-9,-68,29,-117,-126,-117,-97,-107
-58,-97,-39,78,-9,-68,29,-117,-126,-117,-97,-107
-58,-97,-39,78,-9,-68,29,-117,-126,-117,-97,-107
-58,-97,-39,78,-9,-68,29,-117,-131,-117,-102,-107
-58,-97,-39,78,-9,-68,29,-117,-136,-117,-107,-107
-58,-97,-39,78,-9,-68,29,-117,-136,-117,-107,-107
-58,-97,-39,78,-9,-68,29,-117,-136,-117,-107,-107
-53,-92,-39,73,-7,-65,29,-117,-136,-117,-107,-107
-48,-87,-39,68,-4,-63,29,-117,-136,-117,-107,-107
-48,-87,-39,68,-4,-63,29,-122,-136,-117,-107,-107
-48,-87,-39,68,-4,-63,29,-126,-136,-117,-107,-107
-48,-87,-39,68,-4,-63,29,-126,-136,-117,-107,-107
-48,-87,-39,68,-4,-63,29,-126,-136,-117,-107,-107
-48,-87,-39,68,-4,-63,29,-126,-136,-117,-107,-107
-48,-87,-39,68,-4,-63,29,-126,-136,-117,-107,-107
-48,-87,-39,68,-4,-63,29,-126,-136,-122,-107,-107
-48,-87,-39,68,-4,-63,29,-126,-136,-126,-107,-107
-48,-87,-39,68,-4,-63,29,-126,-136,-126,-107,-107
-48,-87,-39,68,-4,-63,29,-126,-136,-126,-107,-107
-48,-87,-39,68,-4,-63,24,-126,-136,-122,-107,-107
-48,-87,-39,68,-4,-63,19,-126,-136,-117,-107,-107
-48,-87,-39,68,-4,-63,19,-117,-136,-117,-107,-107
-48,-87,-39,68,-4,-63,19,-107,-136,-117,-107,-107
-48,-92,-43,70,-2,-68,24,-117,-136,-117,-107,-107
-48,-97,-48,73,0,-73,29,-126,-136,-117,-107,-107
-48,-97,-48,73,0,-73,29,-126,-136,-117,-107,-107
-48,-97,-48,73,0,-73,29,-126,-136,-117,-107,-107
-48,-92,-43,70,-2,-68,29,-126,-136,-117,-107,-107
-48,-87,-39,68,-4,-63,29,-126,-136,-117,-107,-107
-48,-87,-39,68,-4,-63,29,-122,-136,-117,-107,-107
-48,-87,-39,68,-4,-63,29,-117,-136,-117,-107,-107
-48,-87,-39,68,-4,-63,29,-117,-136,-117,-107,-107
-48,-87,-39,68,-4,-63,29,-117,-136,-117,-107,-107
-48,-87,-39,68,-4,-63,29,-122,-136,-117,-107,-107
-48,-87,-39,68,-4,-63,29,-126,-136,-117,-107,-107
-43,-87,-43,65,0,-65,29,-126,-131,-117,-107,-107
-39,-87,-48,63,4,-68,29,-126,-126,-117,-107,-107
-39,-87,-48,63,4,-68,29,-117,-126,-117,-107,-107
-39,-87,-48,63,4,-68,29,-107,-126,-117,-107,-107
-34,-82,-48,58,7,-65,29,-107,-126,-117,-102,-107
-29,-78,-48,53,9,-63,29,-107,-126,-117,-97,-107
-24,-63,-39,43,7,-51,39,-107,-122,-107,-92,-97
-19,-48,-29,34,4,-39,48,-107,-117,-97,-87,-87
-19,-43,-24,31,2,-34,48,-107,-107,-92,-82,-82
-19,-39,-19,29,0,-29,48,-107,-97,-87,-78,-78
-9,-34,-24,21,7,-29,48,-82,-87,-82,-73,-78
-4,-24,-19,14,7,-21,48,-63,-78,-73,-68,-73
0,-19,-19,9,9,-19,53,-48,-68,-68,-63,-68
0,-14,-14,7,7,-14,58,-43,-68,-68,-58,-68
14,-14,-29,0,21,-21,58,-39,-63,-68,-58,-73
14,-14,-29,0,21,-21,58,-34,-63,-63,-58,-73
29,-4,-34,-12,31,-19,58,-34,-53,-48,-53,-63
34,19,-14,-26,24,2,48,-39,-43,-34,-39,-53
39,39,0,-39,19,19,29,-48,-43,-34,-29,-39
39,63,24,-51,7,43,0,-58,-43,-29,-19,-29
48,78,29,-63,9,53,-14,-58,-43,-29,-19,-19
58,82,24,-70,17,53,-34,-63,-53,-29,-19,-19
68,68,0,-68,34,34,-34,-63,-53,-29,-19,-19
68,58,-9,-63,39,24,-34,-68,-63,-43,-24,-24
63,34,-29,-48,46,2,-34,-82,-73,-63,-43,-39
53,34,-19,-43,36,7,-39,-102,-87,-73,-48,-43
43,29,-14,-36,29,7,-39,-112,-97,-82,-53,-48
34,9,-24,-21,29,-7,-34,-117,-112,-92,-68,-58
24,-9,-34,-7,29,-21,-24,-126,-117,-102,-82,-68
9,-29,-39,9,24,-34,-9,-136,-126,-112,-92,-82
4,-43,-48,19,26,-46,-4,-136,-136,-117,-97,-87
-4,-58,-53,31,24,-56,-4,-146,-141,-126,-107,-102
-4,-68,-63,36,29,-65,0,-146,-141,-136,-117,-112
-4,-87,-82,46,39,-85,4,-146,-141,-136,-117,-117
-14,-92,-78,53,31,-85,4,-141,-141,-136,-122,-112
-34,-97,-63,65,14,-80,14,-141,-141,-136,-122,-112
-58,-102,-43,80,-7,-73,19,-146,-146,-141,-126,-117
-68,-117,-48,92,-9,-82,19,-165,-165,-151,-136,-126
-68,-117,-48,92,-9,-82,24,-165,-165,-146,-141,-126
-68,-117,-48,92,-9,-82,29,-161,-165,-141,-141,-126
-63,-117,-53,90,-4,-85,29,-156,-165,-141,-141,-131
-58,-117,-58,87,0,-87,29,-156,-165,-146,-141,-141
-58,-112,-53,85,-2,-82,29,-151,-165,-146,-141,-141
-58,-107,-48,82,-4,-78,34,-146,-165,-146,-141,-136
-58,-112,-53,85,-2,-82,34,-141,-165,-151,-141,-131
-58,-112,-53,85,-2,-82,34,-141,-165,-156,-141,-131
-63,-112,-48,87,-7,-80,34,-141,-165,-156,-141,-131
-63,-117,-53,90,-4,-85,34,-136,-165,-156,-146,-136
-58,-117,-58,87,0,-87,48,-102,-146,-141,-141,-136
-58,-112,-53,85,-2,-82,58,-29,-87,-97,-112,-131
-53,-87,-34,70,-9,-61,63,48,-9,-29,-63,-102
-14,-53,-39,34,12,-46,63,146,102,73,24,-29
43,4,-39,-24,41,-17,53,268,253,195,136,58
112,58,-53,-85,82,2,43,380,419,336,268,170
185,117,-68,-151,126,24,9,424,566,488,409,302
302,219,-82,-261,192,68,-107,287,590,575,546,478
468,341,-126,-405,297,107,-292,82,507,561,634,639
517,536,19,-527,248,278,-502,-268,346,512,697,761
351,619,268,-485,41,444,-570,-717,34,322,566,732
19,717,697,-368,-339,707,-536,-1117,-302,112,395,634
-356,780,1137,-212,-746,958,-439,-1371,-541,-39,312,570
-507,590,1098,-41,-802,844,-409,-1615,-927,-405,-9,317
-546,351,897,97,-722,624,-351,-1678,-1132,-649,-253,97
-561,200,761,180,-661,480,-297,-1566,-1132,-702,-341,-9
-502,180,683,161,-592,431,-278,-1312,-966,-614,-312,-14
-375,195,570,90,-473,383,-258,-1019,-756,-488,-253,-19
-244,185,429,29,-336,307,-195,-756,-575,-385,-219,-53
-161,165,326,-2,-244,246,-117,-541,-424,-278,-170,-53
-136,131,268,2,-202,200,-68,-370,-312,-204,-126,-58
-102,63,165,19,-134,114,-34,-239,-234,-170,-117,-63
-58,39,97,9,-78,68,-9,-170,-165,-141,-102,-73
-14,29,43,-7,-29,36,14,-112,-112,-97,-87,-73
-14,4,19,4,-17,12,19,-73,-97,-78,-78,-68
-14,-14,0,14,-7,-7,29,-43,-82,-78,-78,-68
0,-24,-24,12,12,-24,39,-24,-68,-78,-78,-78
9,-34,-43,12,26,-39,43,-14,-58,-73,-78,-82
14,-39,-53,12,34,-46,43,9,-48,-68,-73,-82
19,-43,-63,12,41,-53,48,24,-39,-58,-63,-82
24,-48,-73,12,48,-61,53,34,-29,-53,-53,-78
34,-53,-87,9,61,-70,53,43,-9,-43,-53,-68
43,-53,-97,4,70,-75,58,58,-4,-34,-53,-68
43,-48,-92,2,68,-70,58,73,0,-29,-43,-63
43,-43,-87,0,65,-65,58,82,9,-24,-39,-58
48,-39,-87,-4,68,-63,58,92,19,-19,-34,-53
53,-29,-82,-12,68,-56,58,97,29,-9,-24,-48
63,-24,-87,-19,75,-56,58,107,39,4,-24,-48
63,-19,-82,-21,73,-51,58,131,48,9,-14,-43
68,-19,-87,-24,78,-53,58,141,58,19,-9,-39
73,-14,-87,-29,80,-51,58,151,68,24,-4,-39
82,-9,-92,-36,87,-51,53,165,82,29,4,-34
87,-14,-102,-36,95,-58,53,180,92,39,9,-29
92,-9,-102,-41,97,-56,53,204,102,43,14,-24
102,0,-102,-51,102,-51,53,219,117,58,24,-14
112,9,-102,-61,107,-46,53,234,131,68,29,-4
126,14,-112,-70,119,-48,48,253,146,78,43,4
136,19,-117,-78,126,-48,48,268,170,87,53,9
146,34,-112,-90,129,-39,43,287,175,102,58,19
156,48,-107,-102,131,-29,43,307,200,122,73,29
175,63,-112,-119,143,-24,43,326,219,131,82,39
185,73,-112,-129,148,-19,39,351,244,151,102,43
195,87,-107,-141,151,-9,39,385,263,175,117,53
204,97,-107,-151,156,-4,34,419,287,185,131,68
224,107,-117,-165,170,-4,34,439,312,209,151,78
234,117,-117,-175,175,0,29,468,336,229,165,92
253,126,-126,-190,190,0,24,497,366,244,180,102
273,146,-126,-209,200,9,24,531,390,273,200,126
302,165,-136,-234,219,14,19,566,424,292,219,136
326,180,-146,-253,236,17,14,605,458,317,239,151
351,204,-146,-278,248,29,14,644,483,346,263,170
375,224,-151,-300,263,36,4,683,522,375,283,190
400,244,-156,-322,278,43,4,727,561,400,307,209
424,263,-161,-344,292,51,4,766,600,429,331,229
448,287,-161,-368,305,63,0,805,629,453,351,248
473,307,-165,-390,319,70,-9,844,663,483,375,268
497,326,-170,-412,334,78,-14,878,702,512,400,292
517,346,-170,-431,344,87,-19,912,732,536,419,317
536,366,-170,-451,353,97,-29,946,761,566,448,336
556,385,-170,-470,363,107,-34,976,795,595,473,361
575,400,-175,-488,375,112,-34,995,819,614,492,380
590,414,-175,-502,383,119,-39,1005,839,634,512,400
600,429,-170,-514,385,129,-48,1015,854,649,527,419
610,434,-175,-522,392,129,-53,1015,863,658,541,434
610,444,-165,-527,387,139,-58,1005,863,668,551,439
605,448,-156,-527,380,146,-63,980,854,668,556,448
590,448,-141,-519,366,153,-63,932,829,649,556,444
566,444,-122,-505,344,161,-68,868,780,624,541,434
536,434,-102,-485,319,165,-63,805,727,595,517,419
512,414,-97,-463,305,158,-63,732,678,561,488,395
468,380,-87,-424,278,146,-63,644,614,512,448,370
424,351,-73,-387,248,139,-58,551,536,458,405,331
375,317,-58,-346,217,129,-48,483,463,400,351,302
326,278,-48,-302,187,114,-43,414,395,351,302,258
292,239,-53,-265,173,92,-34,341,336,292,258,214
248,204,-43,-226,146,80,-24,263,263,239,209,175
209,165,-43,-187,126,61,-14,209,200,185,161,136
175,131,-43,-153,109,43,-9,156,156,141,122,97
146,102,-43,-124,95,29,0,107,107,107,92,68
122,82,-39,-102,80,21,4,63,63,68,58,39
97,58,-39,-78,68,9,9,39,34,34,29,19
78,34,-43,-56,61,-4,19,19,14,14,4,0
63,19,-43,-41,53,-12,19,0,-4,0,-9,-14
48,4,-43,-26,46,-19,24,-29,-29,-19,-19,-29
39,0,-39,-19,39,-19,34,-48,-53,-39,-34,-34
29,-4,-34,-12,31,-19,39,-53,-63,-48,-48,-39
19,-14,-34,-2,26,-24,39,-58,-68,-48,-48,-48
19,-14,-34,-2,26,-24,43,-63,-73,-53,-58,-53
9,-19,-29,4,19,-24,43,-73,-82,-58,-63,-63
0,-19,-19,9,9,-19,48,-78,-82,-63,-58,-68
0,-14,-14,7,7,-14,48,-78,-82,-63,-58,-73
0,-19,-19,9,9,-19,48,-73,-82,-63,-63,-73
4,-19,-24,7,14,-21,43,-73,-82,-68,-68,-78
4,-19,-24,7,14,-21,43,-73,-87,-68,-73,-78
4,-19,-24,7,14,-21,43,-78,-87,-68,-73,-78
4,-19,-24,7,14,-21,43,-78,-82,-73,-73,-78
4,-14,-19,4,12,-17,43,-78,-82,-73,-68,-73
4,-14,-19,4,12,-17,48,-78,-82,-68,-58,-68
4,-24,-29,9,17,-26,53,-73,-82,-68,-58,-68
4,-24,-29,9,17,-26,58,-73,-82,-63,-58,-68
0,-24,-24,12,12,-24,58,-68,-78,-63,-58,-63
0,-24,-24,12,12,-24,58,-63,-73,-63,-58,-58
0,-19,-19,9,9,-19,63,-58,-73,-63,-58,-58
0,-19,-19,9,9,-19,63,-53,-73,-63,-63,-58
0,-24,-24,12,12,-24,63,-53,-73,-63,-68,-68
0,-29,-29,14,14,-29,63,-58,-73,-68,-73,-78
0,-29,-29,14,14,-29,58,-68,-78,-68,-73,-78
0,-29,-29,14,14,-29,53,-78,-82,-68,-73,-78
0,-29,-29,14,14,-29,53,-78,-87,-68,-73,-73
0,-29,-29,14,14,-29,53,-73,-87,-73,-73,-68
0,-29,-29,14,14,-29,53,-73,-87,-73,-73,-68
0,-24,-24,12,12,-24,53,-73,-87,-73,-73,-68
-4,-24,-19,14,7,-21,53,-82,-87,-73,-73,-68
-9,-29,-19,19,4,-24,53,-87,-87,-73,-73,-68
-9,-34,-24,21,7,-29,53,-87,-87,-73,-73,-68
-9,-39,-29,24,9,-34,53,-82,-87,-73,-78,-73
-9,-39,-29,24,9,-34,53,-82,-87,-73,-78,-73
-9,-34,-24,21,7,-29,53,-82,-87,-73,-78,-73
-9,-39,-29,24,9,-34,58,-82,-92,-78,-78,-78
-9,-48,-39,29,14,-43,63,-87,-92,-78,-78,-82
-14,-48,-34,31,9,-41,63,-92,-92,-82,-82,-87
-14,-43,-29,29,7,-36,63,-97,-97,-92,-92,-87
-14,-39,-24,26,4,-31,63,-97,-97,-97,-92,-87
-19,-39,-19,29,0,-29,63,-102,-102,-97,-97,-92
-24,-39,-14,31,-4,-26,63,-102,-102,-92,-97,-92
-29,-43,-14,36,-7,-29,63,-102,-107,-92,-97,-92
-29,-43,-14,36,-7,-29,68,-102,-107,-92,-92,-92
-29,-43,-14,36,-7,-29,68,-102,-107,-92,-87,-92
-29,-43,-14,36,-7,-29,73,-102,-107,-92,-87,-97
-29,-43,-14,36,-7,-29,68,-107,-112,-92,-92,-97
-29,-48,-19,39,-4,-34,68,-107,-112,-92,-92,-92
-29,-53,-24,41,-2,-39,68,-107,-112,-92,-92,-92
-29,-53,-24,41,-2,-39,68,-107,-112,-92,-102,-97
-29,-63,-34,46,2,-48,73,-107,-112,-97,-107,-97
-29,-68,-39,48,4,-53,73,-107,-117,-102,-107,-97
-29,-68,-39,48,4,-53,73,-112,-117,-102,-107,-97
-34,-68,-34,51,0,-51,68,-117,-122,-102,-102,-97
-34,-58,-24,46,-4,-41,68,-117,-122,-102,-102,-102
-39,-53,-14,46,-12,-34,68,-117,-122,-102,-102,-102
-39,-53,-14,46,-12,-34,68,-117,-122,-102,-102,-102
-39,-53,-14,46,-12,-34,68,-117,-122,-107,-102,-102
-34,-53,-19,43,-7,-36,68,-122,-122,-107,-102,-102
-34,-58,-24,46,-4,-41,68,-122,-126,-107,-107,-102
-34,-63,-29,48,-2,-46,68,-122,-126,-107,-107,-97
-34,-63,-29,48,-2,-46,68,-122,-126,-107,-107,-97
-39,-68,-29,53,-4,-48,68,-122,-126,-107,-107,-97
-39,-68,-29,53,-4,-48,68,-122,-131,-107,-107,-92
-39,-68,-29,53,-4,-48,73,-122,-136,-107,-112,-92
-39,-68,-29,53,-4,-48,73,-122,-136,-107,-112,-92
-39,-68,-29,53,-4,-48,73,-122,-136,-107,-112,-97
-39,-68,-29,53,-4,-48,73,-122,-131,-107,-112,-97
-39,-68,-29,53,-4,-48,73,-122,-126,-107,-112,-97
-39,-68,-29,53,-4,-48,73,-122,-126,-107,-112,-102
-39,-68,-29,53,-4,-48,73,-122,-126,-112,-117,-107
-39,-63,-24,51,-7,-43,73,-122,-126,-112,-117,-107
-39,-58,-19,48,-9,-39,73,-122,-126,-112,-117,-107
-39,-63,-24,51,-7,-43,73,-122,-126,-112,-117,-107
-39,-63,-24,51,-7,-43,73,-126,-126,-112,-117,-107
-34,-58,-24,46,-4,-41,73,-126,-131,-112,-117,-107
-29,-58,-29,43,0,-43,73,-126,-131,-112,-117,-107
-34,-63,-29,48,-2,-46,73,-126,-131,-112,-117,-112
-34,-68,-34,51,0,-51,73,-126,-126,-112,-117,-112
-39,-68,-29,53,-4,-48,73,-126,-126,-117,-117,-107
-39,-73,-34,56,-2,-53,73,-122,-126,-122,-117,-107
-39,-73,-34,56,-2,-53,73,-122,-126,-122,-117,-107
-39,-73,-34,56,-2,-53,78,-122,-126,-122,-117,-107
-39,-73,-34,56,-2,-53,82,-126,-126,-122,-117,-107
-39,-68,-29,53,-4,-48,87,-131,-126,-122,-117,-107
-39,-58,-19,48,-9,-39,87,-122,-126,-117,-117,-107
-39,-53,-14,46,-12,-34,92,-112,-131,-117,-117,-112
-39,-48,-9,43,-14,-29,92,-107,-117,-107,-107,-102
-39,-48,-9,43,-14,-29,97,-107,-107,-97,-97,-97
-29,-39,-9,34,-9,-24,97,-97,-102,-97,-97,-92
-19,-29,-9,24,-4,-19,97,-87,-97,-97,-97,-87
-19,-19,0,19,-9,-9,97,-78,-87,-92,-97,-82
-19,-9,9,14,-14,0,102,-68,-82,-82,-87,-78
-19,-4,14,12,-17,4,107,-63,-78,-78,-78,-73
-4,-4,0,4,-2,-2,107,-58,-73,-68,-68,-73
-4,-4,0,4,-2,-2,112,-53,-73,-63,-68,-73
4,4,0,-4,2,2,117,-48,-63,-53,-63,-63
4,29,24,-17,-9,26,122,-48,-53,-43,-48,-53
9,39,29,-24,-9,34,117,-58,-53,-43,-43,-43
9,58,48,-34,-19,53,78,-68,-48,-39,-39,-39
19,73,53,-46,-17,63,58,-68,-43,-39,-39,-29
29,73,43,-51,-7,58,39,-73,-53,-39,-39,-29
39,58,19,-48,9,39,34,-73,-53,-39,-39,-29
43,48,4,-46,19,26,34,-73,-63,-48,-39,-29
43,24,-19,-34,31,2,34,-82,-73,-58,-48,-34
39,29,-9,-34,24,9,29,-102,-87,-63,-48,-34
34,34,0,-34,17,17,29,-112,-97,-73,-53,-39
24,19,-4,-21,14,7,34,-122,-112,-87,-68,-48
14,0,-14,-7,14,-7,39,-131,-117,-102,-82,-58
-4,-24,-19,14,7,-21,48,-136,-126,-112,-92,-73
-14,-43,-29,29,7,-36,53,-136,-136,-117,-97,-78
-29,-58,-29,43,0,-43,53,-146,-141,-126,-107,-97
-34,-68,-34,51,0,-51,63,-146,-141,-136,-117,-112
-34,-87,-53,61,9,-70,73,-141,-141,-136,-122,-117
-39,-92,-53,65,7,-73,73,-131,-141,-136,-131,-117
-48,-97,-48,73,0,-73,82,-131,-141,-136,-131,-122
-68,-97,-29,82,-19,-63,87,-136,-146,-141,-136,-126
-78,-107,-29,92,-24,-68,87,-156,-165,-151,-146,-136
-78,-107,-29,92,-24,-68,87,-161,-165,-151,-151,-136
-78,-112,-34,95,-21,-73,87,-161,-165,-151,-151,-136
-78,-117,-39,97,-19,-78,87,-156,-165,-151,-151,-136
-82,-117,-34,100,-24,-75,87,-156,-165,-161,-151,-141
-87,-117,-29,102,-29,-73,87,-156,-165,-165,-151,-141
-87,-122,-34,104,-26,-78,92,-161,-165,-165,-151,-136
-87,-131,-43,109,-21,-87,92,-161,-165,-165,-151,-136
-87,-131,-43,109,-21,-87,92,-161,-165,-165,-151,-141
-92,-131,-39,112,-26,-85,92,-161,-165,-165,-151,-141
-92,-136,-43,114,-24,-90,92,-170,-185,-170,-165,-146
-87,-141,-53,114,-17,-97,107,-151,-185,-170,-175,-151
-92,-146,-53,119,-19,-100,117,-82,-131,-151,-161,-165
-92,-126,-34,109,-29,-80,122,-9,-58,-97,-122,-151
-73,-102,-29,87,-21,-65,126,78,34,-4,-43,-92
-34,-48,-14,41,-9,-31,122,180,165,117,68,-4
34,0,-34,-17,34,-17,141,346,380,283,209,117
107,53,-53,-80,80,0,126,453,575,453,361,248
229,146,-82,-187,156,31,29,429,673,600,541,429
400,253,-146,-326,273,53,-126,336,673,653,663,600
561,488,-73,-524,317,207,-405,34,585,673,795,810
507,600,92,-553,207,346,-551,-356,336,522,727,844
175,751,575,-463,-200,663,-546,-839,-39,297,551,746
-195,868,1063,-336,-629,966,-458,-1180,-322,136,453,692
-405,678,1083,-136,-744,880,-429,-1542,-819,-312,78,419
-507,458,966,24,-736,712,-380,-1717,-1132,-629,-204,185
-566,253,819,156,-692,536,-317,-1664,-1205,-751,-351,29
-556,175,732,190,-644,453,-283,-1478,-1112,-732,-380,-29
-434,195,629,119,-531,412,-258,-1166,-888,-605,-322,-39
-307,185,492,61,-400,339,-195,-888,-692,-502,-287,-73
-224,161,385,31,-305,273,-102,-658,-517,-370,-229,-73
-195,122,317,36,-256,219,-34,-473,-380,-273,-170,-73
-161,43,204,58,-183,124,9,-312,-287,-229,-151,-73
-117,4,122,56,-119,63,39,-209,-209,-190,-131,-82
-73,-9,63,41,-68,26,68,-146,-146,-136,-112,-78
-73,-34,39,53,-56,2,78,-102,-117,-107,-97,-68
-73,-53,19,63,-46,-17,87,-68,-102,-107,-97,-68
-63,-63,0,63,-31,-31,97,-43,-87,-107,-97,-78
-58,-78,-19,68,-19,-48,102,-34,-78,-102,-97,-82
-53,-82,-29,68,-12,-56,102,-9,-68,-97,-97,-82
-48,-82,-34,65,-7,-58,107,4,-58,-87,-92,-82
-43,-87,-43,65,0,-65,112,14,-48,-82,-82,-82
-34,-92,-58,63,12,-75,112,24,-24,-73,-82,-78
-24,-92,-68,58,21,-80,117,39,-14,-63,-82,-78
-24,-87,-63,56,19,-75,122,53,-9,-58,-73,-73
-24,-87,-63,56,19,-75,126,63,0,-53,-68,-68
-24,-87,-63,56,19,-75,126,73,9,-43,-63,-63
-24,-82,-58,53,17,-70,126,78,19,-34,-53,-58
-14,-82,-68,48,26,-75,122,87,29,-24,-53,-63
-9,-78,-68,43,29,-73,117,112,39,-19,-43,-63
0,-78,-78,39,39,-78,117,122,43,-19,-43,-58
4,-68,-73,31,39,-70,117,131,48,-19,-43,-58
14,-63,-78,24,46,-70,112,146,63,-9,-34,-53
19,-68,-87,24,53,-78,112,156,73,0,-29,-48
24,-58,-82,17,53,-70,112,170,82,4,-24,-43
34,-48,-82,7,58,-65,112,180,97,19,-14,-34
43,-43,-87,0,65,-65,112,195,112,29,-9,-24
53,-43,-97,-4,75,-70,107,219,126,39,4,-14
58,-39,-97,-9,78,-68,107,239,151,48,14,-9
68,-29,-97,-19,82,-63,102,258,156,63,19,0
73,-19,-92,-26,82,-56,102,278,175,82,34,9
87,-4,-92,-41,90,-48,102,297,190,92,43,19
97,0,-97,-48,97,-48,97,322,214,112,63,24
112,9,-102,-61,107,-46,97,356,234,136,78,34
126,19,-107,-73,117,-43,87,390,263,146,92,48
146,34,-112,-90,129,-39,82,409,292,170,112,58
151,48,-102,-100,126,-26,78,439,317,190,126,73
165,58,-107,-112,136,-24,73,473,346,204,141,82
180,78,-102,-129,141,-12,73,512,370,234,161,102
200,97,-102,-148,151,-2,68,546,405,253,180,107
219,107,-112,-163,165,-2,63,585,439,278,200,122
239,126,-112,-183,175,7,63,624,463,307,224,141
258,146,-112,-202,185,17,53,663,502,336,239,161
283,165,-117,-224,200,24,53,707,541,361,258,180
307,180,-126,-244,217,26,53,746,580,390,283,200
331,200,-131,-265,231,34,48,785,610,419,307,219
356,219,-136,-287,246,41,39,824,644,453,341,239
380,239,-141,-309,261,48,34,858,683,483,370,263
400,258,-141,-329,270,58,29,893,712,507,390,287
419,283,-136,-351,278,73,19,927,741,536,419,307
444,307,-136,-375,290,85,9,966,775,566,444,331
468,322,-146,-395,307,87,0,995,800,585,463,351
483,336,-146,-409,314,95,-9,1005,824,605,483,370
492,351,-141,-422,317,104,-19,1015,844,619,497,390
502,361,-141,-431,322,109,-29,1019,854,634,512,405
507,375,-131,-441,319,122,-39,1015,854,649,522,414
507,380,-126,-444,317,126,-43,995,844,649,531,429
497,380,-117,-439,307,131,-43,951,824,629,536,429
478,375,-102,-427,290,136,-48,888,780,605,522,424
448,366,-82,-407,265,141,-48,824,727,575,497,409
419,351,-68,-385,244,141,-53,746,678,541,468,385
375,322,-53,-348,214,134,-58,663,619,492,434,361
336,292,-43,-314,190,124,-58,575,546,439,395,322
292,258,-34,-275,163,112,-48,492,473,380,341,292
244,219,-24,-231,134,97,-43,409,400,331,292,248
204,180,-24,-192,114,78,-34,331,336,273,248,204
156,141,-14,-148,85,63,-24,248,263,214,195,165
112,97,-14,-104,63,41,-14,190,200,156,141,126
78,63,-14,-70,46,24,-14,136,151,112,102,87
43,34,-9,-39,26,12,-9,87,97,78,73,58
19,14,-4,-17,12,4,-9,48,53,39,39,29
0,-9,-9,4,4,-9,-9,19,14,0,4,4
-19,-34,-14,26,-2,-24,0,-9,-14,-29,-29,-19
-39,-53,-14,46,-12,-34,0,-29,-34,-48,-48,-34
-58,-78,-19,68,-19,-48,4,-58,-58,-68,-58,-48
-68,-87,-19,78,-24,-53,9,-78,-82,-87,-73,-58
-78,-92,-14,85,-31,-53,4,-82,-92,-97,-87,-68
-87,-102,-14,95,-36,-58,0,-87,-97,-102,-87,-78
-87,-107,-19,97,-34,-63,4,-92,-102,-112,-97,-82
-97,-117,-19,107,-39,-68,4,-102,-112,-117,-107,-87
-107,-117,-9,112,-48,-63,9,-107,-112,-122,-107,-87
-107,-117,-9,112,-48,-63,9,-112,-117,-122,-107,-92
-107,-122,-14,114,-46,-68,9,-112,-122,-117,-107,-87
-107,-117,-9,112,-48,-63,9,-112,-122,-117,-102,-87
-112,-117,-4,114,-53,-61,9,-112,-126,-117,-102,-87
-112,-117,-4,114,-53,-61,4,-112,-126,-117,-102,-87
-112,-117,-4,114,-53,-61,4,-107,-122,-122,-107,-92
-112,-112,0,112,-56,-56,4,-107,-122,-122,-112,-97
-112,-112,0,112,-56,-56,4,-112,-122,-117,-107,-97
-112,-122,-9,117,-51,-65,0,-112,-122,-117,-107,-97
-112,-122,-9,117,-51,-65,0,-112,-122,-112,-107,-97
-112,-122,-9,117,-51,-65,0,-107,-117,-112,-107,-97
-107,-126,-19,117,-43,-73,-4,-102,-112,-112,-102,-97
-107,-126,-19,117,-43,-73,-4,-102,-112,-112,-97,-97
-107,-126,-19,117,-43,-73,-4,-102,-112,-112,-102,-97
-107,-126,-19,117,-43,-73,-4,-102,-112,-107,-102,-97
-112,-126,-14,119,-48,-70,-4,-107,-112,-112,-102,-97
-117,-126,-9,122,-53,-68,-4,-107,-112,-117,-102,-97
-117,-126,-9,122,-53,-68,-4,-107,-112,-117,-107,-97
-117,-126,-9,122,-53,-68,-4,-107,-117,-117,-112,-97
-117,-126,-9,122,-53,-68,-4,-102,-117,-122,-112,-97
-117,-126,-9,122,-53,-68,-4,-102,-117,-122,-112,-97
-117,-122,-4,119,-56,-63,-4,-102,-117,-122,-112,-97
-117,-122,-4,119,-56,-63,-4,-112,-117,-122,-112,-97
-117,-126,-9,122,-53,-68,-4,-117,-122,-122,-112,-97
-117,-131,-14,124,-51,-73,-4,-117,-126,-122,-112,-97
-122,-136,-14,129,-53,-75,-9,-117,-131,-126,-117,-102
-126,-136,-9,131,-58,-73,-14,-122,-136,-131,-117,-102
-126,-131,-4,129,-61,-68,-14,-122,-136,-131,-117,-102
-126,-131,-4,129,-61,-68,-14,-122,-141,-136,-117,-102
-126,-141,-14,134,-56,-78,-14,-126,-141,-131,-117,-102
-131,-146,-14,139,-58,-80,-14,-126,-141,-126,-117,-107
-131,-141,-9,136,-61,-75,-14,-126,-141,-131,-122,-107
-131,-141,-9,136,-61,-75,-14,-126,-136,-136,-122,-107
-136,-151,-14,143,-61,-82,-14,-136,-141,-136,-126,-112
-136,-156,-19,146,-58,-87,-14,-146,-141,-136,-126,-112
-136,-161,-24,148,-56,-92,-14,-151,-146,-146,-126,-112
-136,-161,-24,148,-56,-92,-9,-151,-146,-151,-126,-112
-136,-161,-24,148,-56,-92,-9,-146,-146,-151,-126,-112
-136,-161,-24,148,-56,-92,-9,-141,-146,-151,-126,-117
-141,-161,-19,151,-61,-90,-19,-146,-151,-151,-131,-117
-146,-161,-14,153,-65,-87,-19,-146,-151,-151,-131,-112
-146,-156,-9,151,-68,-82,-19,-146,-156,-146,-131,-112
-146,-151,-4,148,-70,-78,-19,-146,-161,-141,-136,-117
-146,-161,-14,153,-65,-87,-14,-141,-161,-146,-136,-117
-146,-165,-19,156,-63,-92,-14,-136,-165,-151,-136,-117
-146,-165,-19,156,-63,-92,-14,-141,-161,-151,-136,-117
-151,-165,-14,158,-68,-90,-14,-146,-161,-151,-136,-117
-151,-156,-4,153,-73,-80,-9,-151,-161,-151,-141,-122
-156,-156,0,156,-78,-78,-9,-156,-161,-151,-141,-122
-156,-165,-9,161,-73,-87,-9,-156,-161,-151,-141,-122
-156,-170,-14,163,-70,-92,-9,-156,-161,-156,-141,-122
-156,-170,-14,163,-70,-92,-9,-161,-161,-161,-141,-122
-161,-170,-9,165,-75,-90,-9,-161,-165,-165,-146,-126
-161,-170,-9,165,-75,-90,-9,-165,-170,-165,-146,-131
-161,-170,-9,165,-75,-90,-9,-170,-175,-165,-146,-136
-161,-175,-14,168,-73,-95,-14,-170,-175,-165,-146,-136
-156,-175,-19,165,-68,-97,-19,-170,-175,-165,-141,-131
-156,-175,-19,165,-68,-97,-14,-170,-175,-165,-141,-131
-156,-175,-19,165,-68,-97,-14,-170,-175,-165,-141,-131
-156,-175,-19,165,-68,-97,-14,-170,-175,-165,-141,-136
-156,-175,-19,165,-68,-97,-14,-170,-175,-165,-141,-136
-156,-175,-19,165,-68,-97,-14,-170,-175,-161,-136,-131
-156,-175,-19,165,-68,-97,-14,-170,-175,-156,-131,-126
-156,-175,-19,165,-68,-97,-14,-165,-170,-161,-136,-126
-156,-175,-19,165,-68,-97,-14,-161,-165,-161,-136,-126
-156,-175,-19,165,-68,-97,-14,-161,-165,-161,-136,-126
-156,-180,-24,168,-65,-102,-14,-161,-165,-161,-136,-126
-156,-180,-24,168,-65,-102,-14,-165,-165,-161,-141,-126
-156,-175,-19,165,-68,-97,-14,-165,-170,-161,-146,-126
-156,-175,-19,165,-68,-97,-14,-165,-170,-161,-146,-126
-161,-175,-14,168,-73,-95,-14,-165,-170,-161,-146,-131
-161,-175,-14,168,-73,-95,-14,-170,-165,-161,-146,-131
-161,-175,-14,168,-73,-95,-14,-175,-165,-161,-146,-126
-156,-175,-19,165,-68,-97,-14,-170,-170,-161,-146,-131
-156,-170,-14,163,-70,-92,-14,-170,-175,-161,-146,-136
-156,-170,-14,163,-70,-92,-9,-170,-175,-165,-146,-136
-156,-170,-14,163,-70,-92,-9,-170,-175,-170,-146,-136
-156,-170,-14,163,-70,-92,-9,-170,-175,-170,-146,-136
-156,-165,-9,161,-73,-87,-14,-170,-180,-170,-146,-136
-156,-175,-19,165,-68,-97,-14,-170,-180,-170,-146,-131
-156,-180,-24,168,-65,-102,-14,-170,-180,-170,-146,-126
-161,-180,-19,170,-70,-100,-14,-170,-180,-165,-146,-126
-165,-180,-14,173,-75,-97,-9,-170,-175,-165,-146,-126
-165,-185,-19,175,-73,-102,-4,-170,-175,-165,-146,-126
-165,-185,-19,175,-73,-102,-4,-165,-170,-165,-141,-126
-161,-170,-9,165,-75,-90,0,-151,-156,-161,-136,-117
-156,-161,-4,158,-75,-82,4,-141,-146,-156,-131,-112
-146,-146,0,146,-73,-73,4,-136,-136,-146,-122,-102
-136,-136,0,136,-68,-68,9,-136,-126,-136,-117,-97
-131,-126,4,129,-68,-61,14,-122,-126,-131,-112,-97
-126,-117,9,122,-68,-53,19,-107,-126,-126,-107,-97
-126,-112,14,119,-70,-48,19,-102,-117,-117,-102,-92
-126,-107,19,117,-73,-43,24,-97,-112,-112,-92,-87
-126,-102,24,114,-75,-39,29,-97,-107,-107,-87,-87
-112,-102,9,107,-61,-46,29,-97,-102,-107,-87,-92
-112,-102,9,107,-61,-46,29,-92,-107,-107,-92,-92
-102,-92,9,97,-56,-41,29,-87,-102,-102,-92,-82
-102,-68,34,85,-68,-17,19,-87,-92,-92,-78,-73
-97,-58,39,78,-68,-9,0,-97,-92,-92,-73,-63
-97,-48,48,73,-73,0,-34,-102,-92,-87,-63,-58
-87,-43,43,65,-65,0,-48,-97,-92,-87,-58,-48
-78,-43,34,61,-56,-4,-63,-102,-102,-87,-58,-48
-68,-58,9,63,-39,-24,-63,-102,-102,-87,-58,-48
-68,-63,4,65,-36,-29,-58,-107,-112,-102,-63,-53
-73,-82,-9,78,-31,-46,-53,-122,-122,-117,-78,-63
-82,-82,0,82,-41,-41,-58,-141,-131,-122,-78,-58
-92,-82,9,87,-51,-36,-58,-151,-136,-131,-82,-58
-102,-97,4,100,-53,-46,-53,-156,-151,-141,-97,-68
-112,-117,-4,114,-53,-61,-48,-161,-156,-151,-112,-78
-126,-136,-9,131,-58,-73,-43,-175,-165,-161,-122,-92
-131,-151,-19,141,-56,-85,-43,-185,-175,-165,-126,-97
-141,-165,-24,153,-58,-95,-43,-185,-180,-170,-136,-112
-141,-175,-34,158,-53,-104,-34,-175,-180,-175,-146,-122
-141,-195,-53,168,-43,-124,-24,-175,-180,-175,-146,-131
-146,-200,-53,173,-46,-126,-24,-170,-180,-175,-151,-136
-161,-204,-43,183,-58,-124,-14,-170,-180,-175,-151,-141
-185,-204,-19,195,-82,-112,-9,-175,-185,-180,-156,-146
-195,-219,-24,207,-85,-122,-9,-195,-204,-190,-165,-156
-195,-224,-29,209,-82,-126,-9,-200,-204,-190,-170,-156
-195,-224,-29,209,-82,-126,-9,-200,-204,-190,-170,-156
-195,-224,-29,209,-82,-126,-9,-195,-204,-190,-170,-156
-195,-224,-29,209,-82,-126,-9,-195,-204,-195,-170,-161
-195,-224,-29,209,-82,-126,-9,-195,-204,-195,-170,-161
-195,-224,-29,209,-82,-126,-4,-195,-204,-195,-170,-156
-195,-229,-34,212,-80,-131,-4,-190,-204,-195,-170,-156
-195,-229,-34,212,-80,-131,0,-195,-204,-195,-170,-161
-200,-229,-29,214,-85,-129,4,-200,-204,-195,-170,-161
-200,-229,-29,214,-85,-129,4,-195,-204,-200,-180,-165
-195,-229,-34,212,-80,-131,19,-161,-185,-200,-185,-170
-195,-229,-34,212,-80,-131,24,-87,-126,-165,-161,-170
-190,-204,-14,197,-87,-109,24,-9,-48,-97,-112,-141
-151,-170,-19,161,-65,-95,24,87,63,14,-14,-68
-92,-107,-14,100,-39,-61,14,200,214,156,117,34
-24,-43,-19,34,-2,-31,0,283,380,307,258,170
48,24,-24,-36,36,0,-48,307,527,463,409,317
165,131,-34,-148,100,48,-180,180,561,566,570,502
331,253,-78,-292,204,87,-370,-14,497,575,673,678
370,444,73,-407,148,258,-580,-366,336,527,727,810
195,512,317,-353,-61,414,-658,-805,14,307,580,766
-122,590,712,-234,-417,651,-634,-1205,-341,73,395,644
-478,634,1112,-78,-795,873,-527,-1464,-605,-97,287,566
-614,434,1049,90,-832,741,-488,-1688,-985,-473,-48,307
-644,204,849,219,-746,527,-429,-1727,-1180,-717,-292,87
-649,73,722,287,-685,397,-370,-1581,-1166,-761,-375,-24
-585,68,653,258,-619,361,-341,-1302,-985,-663,-341,-39
-478,87,566,195,-522,326,-307,-1010,-775,-536,-283,-48
-366,78,444,143,-405,261,-234,-751,-595,-434,-248,-82
-292,58,351,117,-322,204,-156,-556,-448,-326,-204,-82
-273,24,297,124,-285,161,-102,-405,-341,-253,-161,-82
-239,-43,195,141,-217,75,-63,-278,-263,-219,-146,-82
-195,-73,122,134,-158,24,-39,-209,-200,-190,-131,-92
-151,-87,63,119,-107,-12,-14,-146,-146,-146,-117,-92
-151,-112,39,131,-95,-36,-9,-102,-126,-126,-107,-87
-151,-131,19,141,-85,-56,0,-73,-112,-122,-107,-82
-141,-141,0,141,-70,-70,9,-53,-97,-117,-107,-87
-136,-151,-14,143,-61,-82,14,-43,-87,-112,-102,-92
-131,-151,-19,141,-56,-85,14,-19,-78,-107,-97,-92
-126,-151,-24,139,-51,-87,19,-4,-68,-97,-92,-92
-122,-156,-34,139,-43,-95,24,4,-58,-92,-82,-92
-112,-161,-48,136,-31,-104,24,14,-39,-82,-82,-87
-102,-161,-58,131,-21,-109,29,29,-34,-73,-82,-87
-102,-156,-53,129,-24,-104,29,43,-29,-68,-73,-82
-102,-156,-53,129,-24,-104,29,53,-19,-63,-68,-78
-97,-156,-58,126,-19,-107,29,63,-9,-58,-68,-73
-92,-151,-58,122,-17,-104,29,68,0,-53,-63,-68
-82,-151,-68,117,-7,-109,24,78,9,-43,-63,-68
-78,-146,-68,112,-4,-107,19,102,19,-39,-53,-63
-68,-146,-78,107,4,-112,19,117,34,-29,-48,-53
-63,-136,-73,100,4,-104,19,131,48,-19,-43,-48
-53,-126,-73,90,9,-100,19,146,63,-9,-29,-43
-48,-126,-78,87,14,-102,24,156,73,0,-19,-39
-43,-117,-73,80,14,-95,24,175,82,9,-14,-39
-34,-107,-73,70,19,-90,24,190,97,29,-4,-34
-24,-92,-68,58,21,-80,24,200,112,39,0,-24
-14,-82,-68,48,26,-75,19,219,126,48,14,-14
-9,-78,-68,43,29,-73,19,239,151,58,24,-9
0,-68,-68,34,34,-68,14,258,156,73,29,0
9,-58,-68,24,39,-63,14,283,180,92,43,9
29,-43,-73,7,51,-58,14,307,200,102,53,19
39,-34,-73,-2,56,-53,9,331,224,122,68,29
53,-19,-73,-17,63,-46,9,366,244,146,78,43
68,-9,-78,-29,73,-43,4,400,268,156,92,58
87,4,-82,-46,85,-39,4,419,292,180,112,68
97,19,-78,-58,87,-29,0,448,322,200,131,82
117,29,-87,-73,102,-29,-4,483,356,214,151,92
136,48,-87,-92,112,-19,-4,522,380,248,170,117
161,68,-92,-114,126,-12,-9,556,414,273,190,126
180,87,-92,-134,136,-2,-14,595,448,297,209,141
200,117,-82,-158,141,17,-14,634,473,326,234,161
219,136,-82,-178,151,26,-24,673,512,356,253,180
244,156,-87,-200,165,34,-24,717,551,380,278,200
268,175,-92,-222,180,41,-24,756,595,409,302,219
292,200,-92,-246,192,53,-29,795,629,439,326,239
317,219,-97,-268,207,61,-39,834,663,468,356,258
341,239,-102,-290,222,68,-43,868,702,492,380,283
361,253,-107,-307,234,73,-48,902,727,517,400,307
380,273,-107,-326,244,82,-58,936,751,546,429,326
400,297,-102,-348,251,97,-63,966,785,575,453,346
419,312,-107,-366,263,102,-68,985,810,595,473,361
434,331,-102,-383,268,114,-78,990,824,614,488,380
444,351,-92,-397,268,129,-87,995,834,629,497,400
453,356,-97,-405,275,129,-92,985,839,634,512,414
458,366,-92,-412,275,136,-97,966,834,639,522,424
453,370,-82,-412,268,143,-102,941,819,639,527,439
439,370,-68,-405,253,151,-102,893,795,619,527,439
419,366,-53,-392,236,156,-107,824,751,590,507,429
390,356,-34,-373,212,161,-107,756,697,556,478,409
366,336,-29,-351,197,153,-107,683,644,522,448,385
326,302,-24,-314,175,139,-107,605,580,473,414,361
287,273,-14,-280,151,129,-107,522,507,419,375,322
244,239,-4,-241,124,117,-97,444,434,361,322,292
200,200,0,-200,100,100,-92,366,366,312,273,248
165,161,-4,-163,85,78,-82,292,307,253,229,204
122,126,4,-124,58,65,-73,219,234,200,180,165
82,87,4,-85,39,46,-63,170,170,146,131,126
58,48,-9,-53,34,19,-58,117,126,102,92,87
34,14,-19,-24,26,-2,-48,68,78,68,63,58
4,-4,-9,0,7,-7,-39,29,39,34,34,34
-19,-29,-9,24,-4,-19,-29,0,4,0,4,14
-34,-48,-14,41,-9,-31,-19,-29,-24,-24,-24,-9
-48,-63,-14,56,-17,-39,-19,-48,-43,-39,-39,-24
-68,-82,-14,75,-26,-48,-19,-78,-63,-58,-48,-39
-78,-87,-9,82,-34,-48,-19,-97,-82,-78,-63,-48
-87,-92,-4,90,-41,-48,-19,-97,-92,-82,-78,-58
-97,-102,-4,100,-46,-53,-19,-97,-97,-82,-78,-68
-92,-102,-9,97,-41,-56,-14,-102,-97,-92,-87,-73
-97,-107,-9,102,-43,-58,-14,-112,-102,-97,-97,-78
-107,-107,0,107,-53,-53,-4,-117,-102,-102,-97,-73
-107,-107,0,107,-53,-53,0,-122,-107,-102,-97,-73
-107,-117,-9,112,-48,-63,0,-122,-112,-102,-97,-73
-107,-117,-9,112,-48,-63,0,-122,-112,-107,-92,-78
-107,-117,-9,112,-48,-63,4,-122,-117,-107,-92,-78
-102,-117,-14,109,-43,-65,4,-122,-117,-107,-92,-78
-102,-117,-14,109,-43,-65,0,-117,-112,-112,-92,-78
-102,-112,-9,107,-46,-61,-4,-117,-112,-112,-92,-78
-102,-107,-4,104,-48,-56,0,-117,-112,-107,-87,-78
-102,-112,-9,107,-46,-61,0,-112,-112,-107,-87,-78
-102,-112,-9,107,-46,-61,0,-117,-112,-102,-87,-78
-102,-112,-9,107,-46,-61,0,-117,-107,-102,-87,-78
-97,-112,-14,104,-41,-63,0,-112,-102,-102,-87,-78
-97,-107,-9,102,-43,-58,4,-112,-102,-102,-87,-78
-97,-107,-9,102,-43,-58,4,-112,-102,-102,-87,-78
-97,-107,-9,102,-43,-58,4,-112,-102,-97,-82,-78
-97,-107,-9,102,-43,-58,4,-107,-102,-97,-82,-78
-97,-107,-9,102,-43,-58,4,-97,-102,-97,-82,-78
-97,-107,-9,102,-43,-58,4,-107,-102,-97,-82,-78
-97,-107,-9,102,-43,-58,4,-117,-107,-97,-82,-78
-97,-107,-9,102,-43,-58,4,-112,-107,-102,-87,-82
-97,-107,-9,102,-43,-58,4,-112,-107,-102,-92,-87
-97,-102,-4,100,-46,-53,4,-112,-107,-102,-92,-87
-97,-102,-4,100,-46,-53,4,-122,-107,-102,-92,-87
-97,-102,-4,100,-46,-53,4,-122,-107,-102,-92,-87
-97,-102,-4,100,-46,-53,4,-117,-107,-102,-92,-87
-97,-107,-9,102,-43,-58,4,-112,-107,-102,-97,-92
-97,-107,-9,102,-43,-58,4,-112,-107,-102,-97,-92
-97,-102,-4,100,-46,-53,4,-112,-107,-102,-97,-92
-97,-102,-4,100,-46,-53,4,-112,-112,-107,-97,-92
-92,-107,-14,100,-39,-61,4,-122,-112,-107,-97,-92
-92,-107,-14,100,-39,-61,4,-126,-112,-107,-97,-97
-92,-102,-9,97,-41,-56,4,-126,-117,-112,-102,-97
-92,-102,-9,97,-41,-56,4,-126,-117,-117,-102,-97
-97,-107,-9,102,-43,-58,4,-131,-122,-117,-102,-102
-97,-107,-9,102,-43,-58,4,-136,-122,-117,-97,-102
-97,-112,-14,104,-41,-63,4,-136,-126,-122,-97,-102
-97,-112,-14,104,-41,-63,9,-131,-126,-122,-97,-102
-97,-112,-14,104,-41,-63,9,-131,-126,-122,-102,-102
-97,-112,-14,104,-41,-63,9,-131,-126,-122,-107,-107
-97,-112,-14,104,-41,-63,4,-136,-131,-122,-112,-107
-97,-112,-14,104,-41,-63,9,-136,-131,-122,-112,-102
-97,-112,-14,104,-41,-63,9,-136,-131,-122,-107,-102
-97,-112,-14,104,-41,-63,9,-136,-131,-122,-107,-107
-97,-117,-19,107,-39,-68,9,-136,-131,-122,-107,-107
-97,-117,-19,107,-39,-68,4,-136,-136,-122,-107,-107
-97,-117,-19,107,-39,-68,4,-141,-136,-122,-107,-107
-102,-117,-14,109,-43,-65,4,-146,-141,-122,-107,-107
-102,-112,-9,107,-46,-61,9,-146,-141,-122,-112,-112
-107,-117,-9,112,-48,-63,9,-146,-141,-122,-112,-112
-107,-122,-14,114,-46,-68,9,-146,-141,-122,-112,-107
-107,-122,-14,114,-46,-68,9,-146,-141,-126,-112,-102
-102,-122,-19,112,-41,-70,9,-151,-141,-126,-112,-102
-102,-122,-19,112,-41,-70,9,-151,-146,-126,-117,-107
-102,-122,-19,112,-41,-70,14,-146,-146,-126,-117,-107
-102,-122,-19,112,-41,-70,19,-141,-146,-126,-117,-107
-107,-126,-19,117,-43,-73,19,-141,-146,-126,-117,-107
-107,-126,-19,117,-43,-73,19,-141,-146,-126,-112,-102
-107,-126,-19,117,-43,-73,19,-146,-146,-126,-112,-102
-107,-126,-19,117,-43,-73,14,-151,-146,-126,-112,-102
-107,-122,-14,114,-46,-68,14,-151,-146,-126,-117,-107
-107,-117,-9,112,-48,-63,14,-151,-146,-126,-122,-107
-107,-117,-9,112,-48,-63,14,-151,-146,-126,-122,-107
-107,-117,-9,112,-48,-63,14,-151,-146,-126,-122,-107
-102,-117,-14,109,-43,-65,14,-151,-146,-131,-122,-107
-97,-117,-19,107,-39,-68,14,-151,-146,-131,-117,-107
-97,-117,-19,107,-39,-68,14,-146,-146,-131,-117,-107
-97,-122,-24,109,-36,-73,14,-141,-146,-131,-117,-107
-97,-122,-24,109,-36,-73,14,-146,-146,-131,-117,-107
-97,-117,-19,107,-39,-68,14,-146,-151,-131,-117,-107
-97,-117,-19,107,-39,-68,14,-146,-151,-131,-117,-112
-102,-117,-14,109,-43,-65,14,-146,-151,-131,-117,-122
-102,-117,-14,109,-43,-65,14,-146,-146,-131,-117,-122
-102,-117,-14,109,-43,-65,14,-146,-146,-131,-117,-117
-102,-122,-19,112,-41,-70,14,-141,-146,-131,-117,-112
-107,-122,-14,114,-46,-68,14,-141,-146,-131,-117,-107
-107,-122,-14,114,-46,-68,19,-141,-146,-131,-117,-107
-107,-122,-14,114,-46,-68,19,-141,-146,-131,-117,-107
-102,-126,-24,114,-39,-75,19,-141,-146,-131,-117,-107
-97,-126,-29,112,-34,-78,14,-141,-151,-131,-117,-107
-97,-126,-29,112,-34,-78,14,-146,-151,-131,-117,-112
-97,-122,-24,109,-36,-73,14,-151,-151,-131,-117,-117
-97,-117,-19,107,-39,-68,9,-151,-151,-126,-117,-117
-97,-112,-14,104,-41,-63,9,-151,-146,-126,-117,-117
-92,-117,-24,104,-34,-70,14,-151,-146,-126,-122,-117
-87,-117,-29,102,-29,-73,14,-151,-146,-126,-122,-117
-92,-117,-24,104,-34,-70,19,-146,-141,-131,-122,-117
-92,-117,-24,104,-34,-70,24,-146,-141,-136,-122,-117
-87,-117,-29,102,-29,-73,24,-146,-146,-136,-122,-117
-87,-122,-34,104,-26,-78,24,-146,-146,-136,-122,-117
-87,-122,-34,104,-26,-78,24,-146,-146,-131,-122,-117
-87,-117,-29,102,-29,-73,24,-141,-151,-131,-117,-112
-87,-117,-29,102,-29,-73,19,-136,-146,-136,-117,-112
-87,-112,-24,100,-31,-68,19,-136,-141,-136,-117,-112
-82,-102,-19,92,-31,-61,19,-131,-136,-126,-112,-112
-78,-97,-19,87,-29,-58,19,-126,-136,-117,-107,-117
-78,-97,-19,87,-29,-58,19,-126,-136,-117,-107,-117
-78,-97,-19,87,-29,-58,19,-126,-136,-117,-107,-117
-73,-87,-14,80,-29,-51,24,-117,-126,-117,-102,-112
-68,-78,-9,73,-29,-43,29,-107,-117,-117,-97,-107
-58,-63,-4,61,-26,-34,34,-107,-107,-107,-92,-97
-48,-48,0,48,-24,-24,39,-107,-97,-97,-87,-87
-43,-43,0,43,-21,-21,39,-102,-97,-92,-82,-82
-39,-34,4,36,-21,-14,39,-92,-92,-82,-78,-73
-39,-29,9,34,-24,-9,43,-82,-87,-78,-73,-68
-39,-24,14,31,-26,-4,48,-73,-87,-78,-68,-68
-24,-24,0,24,-12,-12,48,-68,-82,-78,-68,-73
-24,-24,0,24,-12,-12,48,-63,-82,-73,-68,-73
-14,-19,-4,17,-4,-12,48,-58,-73,-63,-63,-68
-14,0,14,7,-14,7,39,-58,-63,-53,-48,-63
-9,9,19,0,-14,14,19,-68,-68,-53,-43,-53
-9,24,34,-7,-21,29,-9,-78,-73,-48,-39,-48
0,39,39,-19,-19,39,-19,-87,-73,-48,-39,-39
9,43,34,-26,-12,39,-34,-102,-82,-48,-39,-39
24,29,4,-26,9,17,-34,-87,-73,-48,-39,-39
29,19,-9,-24,19,4,-34,-78,-73,-63,-43,-43
24,-4,-29,-9,26,-17,-34,-92,-82,-78,-58,-53
14,-4,-19,-4,17,-12,-39,-112,-97,-82,-58,-53
0,-4,-4,2,2,-4,-39,-126,-107,-92,-63,-58
-14,-19,-4,17,-4,-12,-34,-136,-122,-102,-78,-68
-24,-34,-9,29,-7,-21,-29,-141,-126,-107,-87,-73
-39,-48,-9,43,-14,-29,-19,-146,-136,-112,-92,-82
-43,-63,-19,53,-12,-41,-14,-146,-146,-117,-97,-87
-53,-78,-24,65,-14,-51,-14,-156,-151,-126,-107,-102
-48,-87,-39,68,-4,-63,-4,-156,-151,-141,-117,-117
-43,-107,-63,75,9,-85,4,-156,-151,-146,-117,-126
-48,-112,-63,80,7,-87,9,-151,-151,-146,-122,-126
-63,-117,-53,90,-4,-85,24,-151,-151,-146,-122,-131
-92,-117,-24,104,-34,-70,29,-156,-156,-151,-126,-131
-107,-126,-19,117,-43,-73,29,-175,-175,-161,-136,-136
-107,-131,-24,119,-41,-78,29,-180,-175,-161,-141,-136
-107,-136,-29,122,-39,-82,29,-180,-175,-161,-141,-136
-107,-136,-29,122,-39,-82,29,-170,-175,-156,-141,-136
-107,-136,-29,122,-39,-82,29,-165,-175,-156,-141,-141
-107,-131,-24,119,-41,-78,29,-165,-175,-156,-141,-141
-107,-126,-19,117,-43,-73,34,-165,-175,-156,-141,-136
-107,-131,-24,119,-41,-78,34,-165,-175,-156,-141,-136
-107,-131,-24,119,-41,-78,34,-170,-175,-156,-141,-141
-112,-131,-19,122,-46,-75,34,-170,-175,-156,-141,-141
-112,-136,-24,124,-43,-80,34,-165,-175,-156,-146,-146
-112,-141,-29,126,-41,-85,48,-136,-170,-161,-151,-156
-117,-141,-24,129,-46,-82,58,-68,-126,-136,-131,-161
-112,-117,-4,114,-53,-61,63,9,-48,-68,-87,-131
-73,-82,-9,78,-31,-46,63,107,63,34,-4,-58
-19,-19,0,19,-9,-9,53,195,200,156,117,34
43,39,-4,-41,24,17,43,273,351,297,258,151
117,102,-14,-109,65,43,-4,317,507,463,409,287
234,209,-24,-222,129,92,-136,180,541,566,556,468
429,326,-102,-378,265,112,-336,0,488,575,663,658
507,517,9,-512,248,263,-561,-326,356,551,746,810
351,590,239,-470,56,414,-639,-756,53,356,610,771
29,678,649,-353,-309,663,-614,-1137,-273,141,434,663
-361,746,1107,-192,-734,927,-497,-1385,-492,4,361,614
-527,561,1088,-17,-807,824,-448,-1625,-858,-346,48,375
-570,331,902,119,-736,617,-390,-1683,-1093,-614,-219,141
-590,190,780,200,-685,485,-336,-1566,-1122,-692,-331,19
-536,175,712,180,-624,444,-302,-1312,-961,-614,-302,9
-414,195,610,109,-512,402,-268,-1019,-756,-497,-244,0
-292,180,473,56,-383,326,-204,-766,-580,-395,-214,-43
-219,156,375,31,-297,265,-126,-561,-434,-287,-170,-53
-195,122,317,36,-256,219,-73,-395,-322,-214,-126,-58
-161,53,214,53,-187,134,-34,-268,-244,-180,-117,-63
-112,24,136,43,-124,80,-9,-200,-175,-151,-102,-73
-63,9,73,26,-68,41,14,-141,-122,-107,-87,-73
-63,-14,48,39,-56,17,19,-97,-107,-87,-73,-68
-63,-34,29,48,-46,-2,29,-63,-92,-87,-68,-68
-53,-43,9,48,-31,-17,39,-43,-78,-87,-68,-78
-48,-53,-4,51,-21,-29,43,-34,-68,-82,-68,-82
-43,-48,-4,46,-19,-26,43,-9,-58,-78,-73,-82
-39,-43,-4,41,-17,-24,48,4,-48,-68,-73,-82
-34,-48,-14,41,-9,-31,53,14,-39,-63,-63,-82
-24,-53,-29,39,2,-41,53,24,-19,-53,-63,-78
-9,-58,-48,34,19,-53,58,39,-14,-43,-63,-78
-4,-58,-53,31,24,-56,58,53,-9,-39,-53,-73
-4,-58,-53,31,24,-56,58,63,0,-34,-48,-68
0,-58,-58,29,29,-58,58,73,9,-29,-43,-63
0,-53,-53,26,26,-53,58,82,19,-24,-29,-58
4,-53,-58,24,31,-56,58,97,29,-14,-24,-58
9,-48,-58,19,34,-53,58,122,39,-9,-14,-48
19,-48,-68,14,43,-58,58,131,48,0,-9,-39
29,-34,-63,2,46,-48,58,141,58,9,-4,-34
43,-19,-63,-12,53,-41,53,156,73,19,4,-24
48,-19,-68,-14,58,-43,53,165,82,29,9,-19
53,-9,-63,-21,58,-36,53,185,92,34,14,-14
63,0,-63,-31,63,-31,53,200,107,48,19,-9
73,9,-63,-41,68,-26,53,214,122,58,19,-4
82,14,-68,-48,75,-26,43,229,136,68,34,0
87,19,-68,-53,78,-24,39,239,161,78,43,0
97,29,-68,-63,82,-19,34,268,165,92,48,9
107,39,-68,-73,87,-14,34,297,190,112,63,19
126,53,-73,-90,100,-9,34,317,209,122,73,34
136,63,-73,-100,104,-4,29,341,234,141,92,43
151,78,-73,-114,112,2,29,375,253,165,107,53
165,87,-78,-126,122,4,24,409,278,175,122,68
185,102,-82,-143,134,9,24,429,302,200,141,78
195,117,-78,-156,136,19,19,458,326,219,156,92
214,126,-87,-170,151,19,14,492,356,234,170,102
234,146,-87,-190,161,29,14,531,380,263,190,126
258,165,-92,-212,175,36,9,556,409,283,209,136
278,180,-97,-229,187,41,4,585,439,307,229,151
297,204,-92,-251,195,56,4,624,463,336,253,161
317,224,-92,-270,204,65,-4,663,502,366,273,170
341,244,-97,-292,219,73,-4,707,541,390,297,200
366,263,-102,-314,234,80,-4,746,580,419,322,229
390,287,-102,-339,246,92,-9,785,610,444,346,248
414,307,-107,-361,261,100,-19,824,644,473,375,268
439,322,-117,-380,278,102,-24,858,683,502,400,287
458,336,-122,-397,290,107,-29,893,712,527,419,307
478,361,-117,-419,297,122,-39,936,741,556,448,326
497,385,-112,-441,305,136,-43,976,775,585,473,351
517,400,-117,-458,317,141,-48,995,800,605,492,370
531,414,-117,-473,324,148,-58,1005,819,624,512,390
541,434,-107,-488,324,163,-68,1015,834,639,527,405
551,444,-107,-497,329,168,-73,1015,844,649,541,414
556,453,-102,-505,329,175,-78,1005,849,658,546,424
556,458,-97,-507,326,180,-82,980,844,658,546,439
546,463,-82,-505,314,190,-82,936,824,644,546,444
527,463,-63,-495,295,200,-87,878,780,624,531,444
497,453,-43,-475,270,204,-87,814,727,595,512,429
473,434,-39,-453,256,197,-92,741,678,561,488,405
434,400,-34,-417,234,183,-97,663,619,512,453,380
395,370,-24,-383,209,173,-97,580,546,458,414,341
351,336,-14,-344,183,161,-87,502,478,405,366,312
307,297,-9,-302,158,143,-82,424,414,361,322,268
273,258,-14,-265,143,122,-73,351,356,302,278,229
229,224,-4,-226,117,109,-63,273,283,248,229,195
190,185,-4,-187,97,90,-53,219,219,195,180,156
156,151,-4,-153,80,73,-48,165,175,151,141,117
126,122,-4,-124,65,58,-39,117,126,117,112,87
102,102,0,-102,51,51,-34,73,82,78,78,58
78,87,9,-82,34,48,-34,39,43,39,43,34
58,73,14,-65,21,43,-29,9,14,14,14,9
39,53,14,-46,12,34,-29,-14,-4,0,0,-4
19,34,14,-26,2,24,-24,-48,-29,-19,-9,-19
9,19,9,-14,0,14,-14,-68,-53,-34,-19,-24
0,4,4,-2,-2,4,-9,-73,-63,-39,-29,-29
-9,-9,0,9,-4,-4,-9,-68,-68,-43,-29,-39
-9,-14,-4,12,-2,-9,-4,-63,-73,-53,-39,-43
-19,-19,0,19,-9,-9,-4,-73,-82,-63,-53,-53
-29,-19,9,24,-19,-4,0,-78,-82,-73,-58,-58
-29,-19,9,24,-19,-4,4,-87,-87,-73,-58,-63
-29,-29,0,29,-14,-14,9,-92,-92,-73,-63,-63
-29,-29,0,29,-14,-14,9,-97,-92,-78,-68,-68
-34,-29,4,31,-19,-12,14,-102,-97,-78,-73,-68
-34,-29,4,31,-19,-12,9,-102,-97,-73,-73,-68
-34,-29,4,31,-19,-12,4,-97,-92,-73,-73,-68
-29,-19,9,24,-19,-4,0,-97,-92,-73,-73,-68
-24,-14,9,19,-17,-2,0,-97,-92,-68,-68,-68
-24,-24,0,24,-12,-12,0,-92,-92,-68,-68,-63
-24,-24,0,24,-12,-12,0,-92,-92,-63,-68,-58
-29,-29,0,29,-14,-14,4,-87,-92,-73,-68,-58
-29,-34,-4,31,-12,-19,9,-82,-92,-82,-68,-58
-29,-29,0,29,-14,-14,14,-78,-92,-82,-68,-63
-29,-29,0,29,-14,-14,14,-73,-92,-82,-73,-68
-29,-29,0,29,-14,-14,9,-73,-87,-73,-73,-73
-29,-29,0,29,-14,-14,4,-78,-82,-68,-73,-78
-29,-24,4,26,-17,-9,4,-87,-82,-68,-73,-78
-29,-19,9,24,-19,-4,4,-97,-82,-68,-73,-78
-29,-19,9,24,-19,-4,4,-97,-87,-63,-68,-73
-29,-19,9,24,-19,-4,4,-92,-87,-63,-63,-68
-29,-19,9,24,-19,-4,9,-82,-87,-63,-63,-68
-29,-14,14,21,-21,0,14,-73,-87,-63,-63,-68
-29,-14,14,21,-21,0,14,-82,-87,-63,-63,-68
-29,-19,9,24,-19,-4,14,-87,-87,-63,-63,-68
-29,-24,4,26,-17,-9,14,-92,-92,-63,-63,-68
-29,-29,0,29,-14,-14,14,-92,-97,-63,-68,-73
-29,-34,-4,31,-12,-19,14,-92,-97,-68,-68,-73
-29,-34,-4,31,-12,-19,14,-92,-97,-73,-68,-73
-34,-34,0,34,-17,-17,14,-92,-102,-78,-73,-73
-39,-39,0,39,-19,-19,14,-97,-102,-78,-78,-73
-43,-43,0,43,-21,-21,14,-97,-102,-78,-78,-78
-43,-43,0,43,-21,-21,14,-97,-107,-82,-82,-78
-39,-43,-4,41,-17,-24,14,-97,-107,-87,-82,-78
-39,-48,-9,43,-14,-29,14,-102,-112,-87,-87,-82
-39,-43,-4,41,-17,-24,14,-107,-107,-87,-82,-82
-39,-43,-4,41,-17,-24,14,-112,-107,-92,-78,-82
-43,-43,0,43,-21,-21,19,-112,-107,-92,-78,-82
-48,-43,4,46,-26,-19,19,-112,-107,-92,-78,-82
-48,-43,4,46,-26,-19,24,-112,-107,-92,-78,-87
-48,-43,4,46,-26,-19,19,-117,-112,-92,-82,-87
-43,-43,0,43,-21,-21,19,-117,-112,-92,-82,-82
-39,-43,-4,41,-17,-24,19,-117,-112,-92,-82,-82
-39,-39,0,39,-19,-19,19,-117,-112,-92,-87,-87
-39,-43,-4,41,-17,-24,24,-117,-112,-97,-87,-87
-43,-48,-4,46,-19,-26,24,-112,-117,-102,-87,-87
-48,-48,0,48,-24,-24,24,-112,-117,-102,-87,-87
-53,-53,0,53,-26,-26,24,-117,-122,-102,-87,-87
-53,-48,4,51,-29,-21,29,-117,-122,-102,-92,-92
-58,-48,9,53,-34,-19,29,-122,-126,-102,-92,-92
-58,-53,4,56,-31,-24,29,-126,-131,-102,-92,-92
-58,-53,4,56,-31,-24,29,-126,-131,-107,-92,-92
-53,-53,0,53,-26,-26,29,-131,-131,-107,-92,-92
-53,-53,0,53,-26,-26,29,-131,-131,-107,-97,-97
-53,-53,0,53,-26,-26,29,-131,-126,-107,-97,-97
-53,-48,4,51,-29,-21,29,-126,-126,-107,-97,-92
-58,-48,9,53,-34,-19,29,-122,-126,-107,-97,-87
-53,-48,4,51,-29,-21,29,-122,-126,-102,-92,-82
-48,-48,0,48,-24,-24,34,-122,-126,-97,-92,-82
-48,-53,-4,51,-21,-29,34,-122,-126,-97,-92,-82
-48,-58,-9,53,-19,-34,34,-122,-126,-97,-92,-87
-53,-58,-4,56,-24,-31,34,-117,-122,-97,-92,-87
-58,-58,0,58,-29,-29,34,-112,-117,-97,-92,-87
-58,-58,0,58,-29,-29,34,-112,-117,-97,-92,-87
-58,-58,0,58,-29,-29,34,-112,-117,-102,-97,-87
-58,-58,0,58,-29,-29,34,-117,-117,-107,-97,-87
-58,-58,0,58,-29,-29,34,-122,-117,-112,-97,-87
-53,-63,-9,58,-21,-36,34,-122,-117,-112,-97,-87
-48,-63,-14,56,-17,-39,34,-126,-117,-112,-97,-87
-48,-58,-9,53,-19,-34,34,-131,-126,-112,-97,-87
-48,-58,-9,53,-19,-34,34,-136,-131,-112,-97,-87
-58,-58,0,58,-29,-29,39,-136,-131,-112,-97,-97
-63,-58,4,61,-34,-26,43,-136,-126,-112,-97,-102
-63,-58,4,61,-34,-26,43,-131,-126,-112,-97,-97
-58,-63,-4,61,-26,-34,43,-122,-126,-112,-97,-97
-58,-63,-4,61,-26,-34,39,-122,-126,-112,-97,-92
-58,-63,-4,61,-26,-34,39,-122,-126,-112,-97,-87
-58,-63,-4,61,-26,-34,39,-122,-122,-112,-97,-87
-58,-63,-4,61,-26,-34,39,-122,-117,-112,-97,-87
-53,-63,-9,58,-21,-36,39,-122,-122,-112,-97,-87
-48,-68,-19,58,-14,-43,43,-122,-122,-112,-97,-87
-48,-63,-14,56,-17,-39,43,-122,-126,-112,-97,-87
-48,-63,-14,56,-17,-39,39,-122,-131,-107,-97,-87
-48,-63,-14,56,-17,-39,39,-126,-126,-112,-102,-87
-48,-68,-19,58,-14,-43,43,-131,-126,-117,-107,-87
-48,-68,-19,58,-14,-43,43,-131,-126,-117,-102,-87
-53,-68,-14,61,-19,-41,43,-126,-122,-117,-102,-87
-58,-68,-9,63,-24,-39,43,-117,-122,-117,-102,-87
-58,-68,-9,63,-24,-39,43,-107,-126,-117,-102,-87
-58,-73,-14,65,-21,-43,48,-117,-131,-117,-102,-92
-58,-73,-14,65,-21,-43,53,-126,-131,-112,-102,-97
-58,-68,-9,63,-24,-39,53,-126,-131,-117,-97,-92
-58,-63,-4,61,-26,-34,53,-126,-126,-122,-97,-92
-63,-63,0,63,-31,-31,58,-126,-117,-112,-97,-87
-68,-68,0,68,-34,-34,63,-126,-112,-102,-102,-87
-58,-73,-14,65,-21,-43,63,-117,-107,-97,-92,-82
-48,-78,-29,63,-9,-53,68,-107,-107,-97,-87,-78
-48,-63,-14,56,-17,-39,68,-102,-107,-97,-82,-78
-48,-48,0,48,-24,-24,68,-97,-107,-97,-78,-78
-43,-34,9,39,-26,-12,68,-97,-102,-87,-78,-78
-39,-19,19,29,-29,0,68,-97,-97,-78,-78,-78
-34,-14,19,24,-26,2,73,-97,-92,-78,-73,-78
-29,-4,24,17,-26,9,78,-87,-82,-73,-68,-68
-29,0,29,14,-29,14,82,-78,-78,-68,-63,-63
-29,4,34,12,-31,19,87,-63,-78,-68,-58,-58
-14,0,14,7,-14,7,87,-58,-73,-68,-58,-63
-14,-4,9,9,-12,2,87,-53,-73,-63,-58,-63
-4,4,9,0,-7,7,92,-48,-63,-48,-53,-53
-4,29,34,-12,-19,31,87,-48,-53,-34,-39,-43
0,39,39,-19,-19,39,68,-53,-48,-34,-34,-29
0,53,53,-26,-26,53,39,-58,-43,-29,-29,-19
9,68,58,-39,-24,63,29,-58,-39,-29,-29,-9
19,73,53,-46,-17,63,14,-63,-43,-29,-29,-9
29,58,29,-43,0,43,14,-63,-43,-29,-24,-9
29,48,19,-39,4,34,14,-68,-53,-43,-24,-14
29,34,4,-31,12,19,9,-87,-63,-58,-39,-24
24,43,19,-34,2,31,0,-112,-78,-63,-39,-24
14,43,29,-29,-7,36,0,-122,-87,-73,-43,-29
4,29,24,-17,-9,26,4,-126,-102,-82,-58,-39
0,4,4,-2,-2,4,9,-131,-107,-92,-78,-48
-9,-19,-9,14,0,-14,19,-136,-117,-102,-92,-63
-14,-43,-29,29,7,-36,24,-136,-131,-107,-97,-68
-24,-68,-43,46,9,-56,24,-146,-141,-117,-107,-82
-24,-78,-53,51,14,-65,34,-146,-141,-126,-117,-97
-24,-97,-73,61,24,-85,43,-146,-141,-126,-117,-107
-29,-102,-73,65,21,-87,43,-141,-141,-131,-122,-107
-43,-107,-63,75,9,-85,53,-141,-141,-136,-122,-112
-68,-107,-39,87,-14,-73,58,-146,-146,-141,-126,-117
-78,-117,-39,97,-19,-78,58,-165,-165,-151,-136,-126
-82,-117,-34,100,-24,-75,58,-170,-165,-151,-141,-126
-87,-117,-29,102,-29,-73,58,-170,-165,-151,-141,-126
-87,-117,-29,102,-29,-73,58,-165,-165,-151,-141,-126
-87,-117,-29,102,-29,-73,58,-165,-165,-156,-141,-131
-87,-117,-29,102,-29,-73,58,-165,-165,-156,-141,-131
-87,-117,-29,102,-29,-73,63,-165,-165,-156,-141,-126
-87,-122,-34,104,-26,-78,63,-161,-165,-156,-141,-126
-87,-122,-34,104,-26,-78,63,-161,-165,-156,-141,-131
-92,-122,-29,107,-31,-75,63,-165,-170,-161,-141,-131
-92,-126,-34,109,-29,-80,63,-165,-175,-165,-146,-136
-87,-131,-43,109,-21,-87,78,-136,-165,-165,-156,-146
-87,-131,-43,109,-21,-87,87,-68,-117,-136,-141,-151
-92,-117,-24,104,-34,-70,92,0,-53,-82,-102,-131
-63,-92,-29,78,-17,-61,92,87,43,4,-24,-68
-14,-34,-19,24,2,-26,97,214,195,136,82,19
43,19,-24,-31,34,-2,102,331,361,287,209,131
102,63,-39,-82,70,12,97,473,575,473,375,253
204,151,-53,-178,129,48,9,434,668,595,536,419
434,283,-151,-358,292,65,-185,297,639,639,663,634
546,488,-58,-517,302,214,-405,14,531,649,766,810
444,585,141,-514,151,363,-531,-468,219,448,644,780
175,697,522,-436,-173,610,-556,-902,-117,229,483,683
-263,824,1088,-280,-675,956,-448,-1244,-390,82,419,653
-478,697,1176,-109,-827,936,-409,-1576,-810,-278,117,434
-546,414,961,65,-753,688,-351,-1712,-1112,-610,-200,165
-590,219,810,185,-700,514,-297,-1673,-1210,-751,-361,9
-561,185,746,187,-653,466,-283,-1444,-1063,-683,-341,-4
-463,185,649,139,-556,417,-268,-1176,-873,-575,-292,-19
-317,175,492,70,-405,334,-204,-878,-668,-458,-258,-53
-219,156,375,31,-297,265,-126,-629,-492,-336,-209,-53
-195,122,317,36,-256,219,-63,-439,-361,-248,-151,-53
-161,53,214,53,-187,134,-14,-287,-263,-200,-126,-53
-107,24,131,41,-119,78,14,-209,-185,-161,-112,-63
-53,9,63,21,-58,36,43,-141,-122,-107,-97,-63
-53,-14,39,34,-46,12,48,-102,-107,-87,-82,-58
-53,-34,19,43,-36,-7,58,-73,-92,-87,-78,-58
-48,-48,0,48,-24,-24,68,-53,-78,-87,-78,-68
-48,-63,-14,56,-17,-39,73,-43,-68,-82,-78,-73
-43,-63,-19,53,-12,-41,73,-19,-58,-78,-78,-73
-39,-63,-24,51,-7,-43,78,-4,-48,-68,-73,-73
-39,-68,-29,53,-4,-48,82,9,-39,-63,-63,-73
-34,-73,-39,53,2,-56,82,24,-19,-53,-63,-68
-24,-78,-53,51,14,-65,87,39,-14,-43,-63,-68
-24,-78,-53,51,14,-65,87,53,-9,-39,-53,-63
-19,-78,-58,48,19,-68,87,68,0,-34,-53,-58
-9,-78,-68,43,29,-73,87,82,9,-29,-53,-53
-4,-68,-63,36,29,-65,87,87,19,-24,-43,-48
4,-63,-68,29,36,-65,87,97,29,-14,-43,-48
9,-58,-68,24,39,-63,87,122,39,-14,-34,-43
19,-58,-78,19,48,-68,87,131,48,-9,-29,-39
24,-53,-78,14,51,-65,87,136,58,0,-24,-39
34,-48,-82,7,58,-65,82,146,73,9,-14,-34
39,-53,-92,7,65,-73,82,156,82,19,-9,-34
43,-48,-92,2,68,-70,82,175,92,24,-4,-34
53,-39,-92,-7,73,-65,82,190,107,39,4,-24
63,-29,-92,-17,78,-61,82,204,122,48,9,-14
73,-24,-97,-24,85,-61,78,229,136,58,24,-4
78,-19,-97,-29,87,-58,78,248,161,68,34,0
82,-9,-92,-36,87,-51,73,268,161,82,39,9
87,0,-87,-43,87,-43,73,287,180,102,53,19
107,9,-97,-58,102,-43,73,307,200,107,58,29
117,14,-102,-65,109,-43,68,331,224,122,73,34
131,29,-102,-80,117,-36,68,361,239,146,87,43
146,39,-107,-92,126,-34,63,390,258,156,102,58
165,53,-112,-109,139,-29,63,409,283,180,122,68
175,68,-107,-122,141,-19,58,439,307,200,136,82
190,78,-112,-134,151,-17,53,473,341,214,151,92
204,97,-107,-151,156,-4,53,512,370,244,170,117
229,117,-112,-173,170,2,43,546,405,263,190,126
248,131,-117,-190,183,7,34,585,439,287,209,141
268,156,-112,-212,190,21,34,624,463,317,234,161
287,175,-112,-231,200,31,24,663,502,346,253,180
312,185,-126,-248,219,29,24,712,541,370,278,200
336,195,-141,-265,239,26,24,756,580,400,302,219
366,219,-146,-292,256,36,19,795,610,429,326,239
395,239,-156,-317,275,41,9,834,644,463,356,258
424,263,-161,-344,292,51,4,868,688,492,380,283
448,287,-161,-368,305,63,0,902,722,517,400,307
468,312,-156,-390,312,78,-9,936,751,551,434,326
488,336,-151,-412,319,92,-14,966,785,585,463,351
507,351,-156,-429,331,97,-19,1000,814,605,488,375
522,366,-156,-444,339,104,-29,1024,839,624,512,400
531,390,-141,-461,336,124,-39,1034,858,644,527,419
541,405,-136,-473,339,134,-43,1034,873,658,541,434
546,414,-131,-480,339,141,-53,1029,878,673,556,448
546,419,-126,-483,336,146,-63,1010,873,678,566,468
541,424,-117,-483,329,153,-63,976,858,663,570,468
527,424,-102,-475,314,161,-68,927,819,644,561,463
497,419,-78,-458,287,170,-68,863,766,619,536,448
473,405,-68,-439,270,168,-73,790,717,590,507,424
434,370,-63,-402,248,153,-78,702,658,541,473,400
395,341,-53,-368,224,143,-78,610,585,488,434,361
346,307,-39,-326,192,134,-68,527,512,429,380,331
297,268,-29,-283,163,119,-63,444,444,380,331,287
258,229,-29,-244,143,100,-53,370,385,317,287,244
209,195,-14,-202,112,90,-43,292,312,258,239,204
170,151,-19,-161,95,65,-34,239,244,204,185,165
136,112,-24,-124,80,43,-29,185,195,161,141,126
97,78,-19,-87,58,29,-19,131,146,126,112,97
63,53,-9,-58,36,21,-14,82,102,87,78,68
39,29,-9,-34,24,9,-9,43,58,43,39,43
19,4,-14,-12,17,-4,0,9,24,14,4,19
0,-14,-14,7,7,-14,0,-9,4,-4,-9,4
-19,-34,-14,26,-2,-24,4,-39,-19,-29,-19,-9
-29,-43,-14,36,-7,-29,9,-58,-48,-48,-39,-24
-39,-53,-14,46,-12,-34,9,-63,-63,-58,-58,-39
-48,-63,-14,56,-17,-39,9,-68,-68,-63,-58,-48
-48,-63,-14,56,-17,-39,14,-73,-73,-73,-68,-53
-58,-68,-9,63,-24,-39,9,-82,-82,-78,-78,-63
-68,-68,0,68,-34,-34,9,-87,-82,-82,-78,-68
-73,-68,4,70,-39,-31,9,-97,-87,-87,-78,-73
-78,-78,0,78,-39,-39,9,-102,-92,-92,-82,-73
-78,-82,-4,80,-36,-43,9,-102,-92,-97,-82,-78
-82,-87,-4,85,-39,-46,14,-102,-97,-97,-82,-78
-78,-87,-9,82,-34,-48,14,-97,-97,-92,-82,-73
-73,-87,-14,80,-29,-51,14,-87,-92,-92,-82,-68
-73,-78,-4,75,-34,-41,14,-87,-87,-92,-82,-68
-73,-73,0,73,-36,-36,19,-87,-82,-87,-78,-68
-78,-82,-4,80,-36,-43,19,-82,-82,-87,-78,-68
-82,-82,0,82,-41,-41,19,-82,-82,-82,-78,-68
-82,-82,0,82,-41,-41,14,-78,-82,-82,-78,-68
-78,-82,-4,80,-36,-43,9,-73,-82,-82,-78,-68
-78,-78,0,78,-39,-39,14,-78,-82,-87,-78,-68
-78,-78,0,78,-39,-39,14,-82,-82,-92,-82,-68
-78,-82,-4,80,-36,-43,19,-82,-82,-87,-82,-68
-78,-87,-9,82,-34,-48,24,-87,-82,-87,-82,-68
-82,-87,-4,85,-39,-46,24,-87,-82,-87,-82,-68
-87,-87,0,87,-43,-43,24,-87,-82,-87,-82,-68
-87,-87,0,87,-43,-43,19,-87,-87,-87,-82,-68
-87,-87,0,87,-43,-43,14,-82,-87,-92,-82,-68
-82,-87,-4,85,-39,-46,14,-82,-87,-92,-82,-73
-78,-82,-4,80,-36,-43,14,-82,-87,-92,-82,-78
-78,-78,0,78,-39,-39,14,-92,-87,-92,-82,-78
-78,-78,0,78,-39,-39,14,-97,-87,-92,-82,-78
-82,-82,0,82,-41,-41,14,-102,-92,-92,-82,-78
-87,-87,0,87,-43,-43,14,-102,-97,-92,-87,-82
-87,-92,-4,90,-41,-48,14,-102,-97,-92,-87,-82
-87,-92,-4,90,-41,-48,14,-102,-97,-92,-87,-82
-87,-92,-4,90,-41,-48,14,-97,-102,-97,-87,-78
-87,-97,-9,92,-39,-53,14,-97,-102,-97,-87,-73
-92,-102,-9,97,-41,-56,14,-97,-102,-97,-87,-78
-92,-102,-9,97,-41,-56,14,-97,-107,-102,-92,-78
-92,-102,-9,97,-41,-56,14,-97,-107,-107,-92,-78
-97,-107,-9,102,-43,-58,14,-102,-112,-107,-97,-82
-97,-102,-4,100,-46,-53,9,-107,-112,-107,-97,-87
-97,-102,-4,100,-46,-53,4,-112,-117,-112,-97,-92
-97,-102,-4,100,-46,-53,9,-117,-117,-112,-97,-92
-97,-102,-4,100,-46,-53,9,-122,-117,-112,-97,-92
-97,-107,-9,102,-43,-58,14,-122,-117,-112,-97,-92
-97,-112,-14,104,-41,-63,9,-126,-122,-112,-102,-87
-97,-112,-14,104,-41,-63,9,-122,-122,-112,-102,-82
-97,-112,-14,104,-41,-63,9,-117,-122,-112,-102,-82
-102,-107,-4,104,-48,-56,9,-117,-122,-112,-107,-92
-107,-112,-4,109,-51,-58,14,-117,-122,-117,-107,-97
-107,-117,-9,112,-48,-63,14,-117,-126,-122,-107,-97
-107,-117,-9,112,-48,-63,14,-122,-126,-122,-107,-97
-107,-117,-9,112,-48,-63,9,-126,-131,-122,-107,-97
-102,-107,-4,104,-48,-56,9,-126,-131,-122,-112,-102
-107,-107,0,107,-53,-53,9,-126,-131,-122,-112,-102
-107,-112,-4,109,-51,-58,9,-126,-131,-122,-112,-102
-112,-117,-4,114,-53,-61,9,-136,-131,-126,-112,-102
-112,-122,-9,117,-51,-65,9,-151,-131,-126,-112,-102
-112,-122,-9,117,-51,-65,9,-141,-136,-126,-117,-102
-112,-122,-9,117,-51,-65,9,-131,-136,-126,-117,-97
-112,-117,-4,114,-53,-61,4,-131,-136,-126,-117,-97
-117,-117,0,117,-58,-58,0,-131,-136,-126,-117,-97
-117,-117,0,117,-58,-58,0,-131,-136,-126,-112,-92
-117,-117,0,117,-58,-58,4,-131,-136,-126,-112,-92
-117,-122,-4,119,-56,-63,9,-131,-136,-126,-112,-92
-117,-126,-9,122,-53,-68,14,-131,-136,-126,-112,-97
-117,-126,-9,122,-53,-68,14,-131,-136,-126,-112,-102
-117,-126,-9,122,-53,-68,14,-131,-136,-126,-112,-107
-117,-126,-9,122,-53,-68,14,-131,-136,-122,-112,-107
-117,-126,-9,122,-53,-68,14,-131,-136,-122,-117,-107
-117,-126,-9,122,-53,-68,14,-136,-136,-122,-117,-107
-117,-126,-9,122,-53,-68,14,-141,-136,-122,-117,-107
-117,-131,-14,124,-51,-73,9,-141,-136,-122,-117,-107
-117,-131,-14,124,-51,-73,4,-146,-136,-122,-117,-107
-117,-126,-9,122,-53,-68,4,-146,-141,-122,-117,-102
-117,-126,-9,122,-53,-68,4,-146,-141,-122,-117,-97
-122,-126,-4,124,-58,-65,4,-141,-141,-122,-117,-102
-122,-126,-4,124,-58,-65,4,-136,-136,-122,-117,-102
-126,-126,0,126,-63,-63,4,-136,-136,-122,-117,-97
-126,-131,-4,129,-61,-68,4,-131,-136,-122,-117,-97
-126,-131,-4,129,-61,-68,4,-136,-136,-122,-117,-102
-126,-131,-4,129,-61,-68,9,-141,-136,-122,-117,-107
-126,-131,-4,129,-61,-68,9,-141,-136,-122,-112,-107
-126,-131,-4,129,-61,-68,9,-141,-136,-122,-107,-107
-126,-131,-4,129,-61,-68,9,-141,-136,-122,-107,-107
-126,-136,-9,131,-58,-73,14,-141,-131,-122,-107,-107
-126,-131,-4,129,-61,-68,14,-141,-131,-126,-112,-107
-126,-131,-4,129,-61,-68,9,-141,-131,-126,-117,-107
-126,-131,-4,129,-61,-68,9,-141,-131,-126,-122,-107
-126,-136,-9,131,-58,-73,14,-141,-136,-126,-126,-107
-126,-136,-9,131,-58,-73,9,-141,-136,-126,-122,-107
-131,-136,-4,134,-63,-70,4,-136,-131,-126,-122,-107
-131,-131,0,131,-65,-65,4,-136,-131,-126,-122,-107
-126,-126,0,126,-63,-63,4,-136,-136,-126,-122,-107
-126,-131,-4,129,-61,-68,4,-141,-141,-131,-122,-107
-126,-131,-4,129,-61,-68,4,-146,-141,-131,-122,-107
-126,-131,-4,129,-61,-68,4,-141,-146,-131,-117,-102
-126,-131,-4,129,-61,-68,4,-136,-146,-131,-117,-102
-126,-131,-4,129,-61,-68,4,-136,-141,-131,-117,-102
-126,-136,-9,131,-58,-73,4,-136,-141,-131,-122,-107
-122,-131,-9,126,-56,-70,4,-136,-136,-126,-117,-107
-117,-126,-9,122,-53,-68,9,-136,-136,-126,-117,-107
-117,-126,-9,122,-53,-68,9,-136,-136,-126,-117,-107
-117,-126,-9,122,-53,-68,9,-136,-136,-126,-117,-107
-117,-117,0,117,-58,-58,14,-126,-126,-117,-107,-102
-117,-107,9,112,-63,-48,19,-117,-117,-107,-97,-97
-107,-97,9,102,-58,-43,24,-112,-112,-102,-92,-92
-97,-87,9,92,-53,-39,29,-107,-107,-97,-87,-87
-92,-78,14,85,-53,-31,34,-97,-102,-92,-82,-82
-87,-68,19,78,-53,-24,39,-87,-92,-82,-78,-73
-87,-58,29,73,-58,-14,43,-78,-82,-78,-73,-68
-87,-53,34,70,-61,-9,48,-73,-78,-78,-68,-68
-73,-58,14,65,-43,-21,48,-68,-73,-78,-68,-73
-73,-63,9,68,-41,-26,48,-63,-73,-73,-68,-73
-63,-53,9,58,-36,-21,48,-58,-63,-63,-63,-63
-63,-29,34,46,-48,2,39,-58,-53,-53,-48,-53
-58,-19,39,39,-48,9,19,-68,-53,-53,-43,-43
-58,-4,53,31,-56,24,-9,-78,-53,-48,-39,-39
-48,9,58,19,-53,34,-19,-78,-53,-48,-39,-29
-39,14,53,12,-46,34,-34,-82,-63,-48,-39,-29
-24,0,24,12,-24,12,-34,-78,-63,-43,-39,-29
-19,-9,9,14,-14,0,-34,-78,-73,-53,-43,-34
-19,-34,-14,26,-2,-24,-34,-92,-82,-68,-58,-43
-24,-34,-9,29,-7,-21,-39,-112,-97,-73,-58,-43
-34,-34,0,34,-17,-17,-39,-126,-107,-82,-63,-48
-43,-48,-4,46,-19,-26,-34,-136,-122,-92,-78,-58
-53,-68,-14,61,-19,-41,-29,-141,-126,-102,-92,-68
-68,-87,-19,78,-24,-53,-19,-146,-136,-112,-102,-82
-73,-102,-29,87,-21,-65,-14,-146,-146,-117,-107,-87
-82,-117,-34,100,-24,-75,-14,-156,-151,-126,-117,-102
-82,-126,-43,104,-19,-85,-9,-156,-151,-136,-126,-112
-82,-146,-63,114,-9,-104,-4,-156,-151,-136,-126,-117
-87,-151,-63,119,-12,-107,-4,-151,-151,-141,-131,-117
-102,-156,-53,129,-24,-104,4,-151,-151,-146,-131,-122
-126,-156,-29,141,-48,-92,14,-156,-156,-151,-136,-126
-136,-165,-29,151,-53,-97,19,-175,-175,-161,-146,-136
-136,-165,-29,151,-53,-97,19,-180,-175,-161,-151,-141
-136,-165,-29,151,-53,-97,19,-180,-175,-161,-151,-146
-131,-170,-39,151,-46,-104,19,-175,-175,-161,-151,-146
-126,-175,-48,151,-39,-112,19,-175,-175,-165,-151,-151
-126,-175,-48,151,-39,-112,19,-175,-180,-165,-151,-151
-126,-175,-48,151,-39,-112,24,-175,-185,-165,-151,-146
-126,-180,-53,153,-36,-117,24,-170,-185,-165,-151,-146
-126,-180,-53,153,-36,-117,24,-170,-185,-165,-151,-151
-136,-180,-43,158,-46,-112,24,-180,-185,-170,-151,-151
-141,-185,-43,163,-48,-114,24,-185,-185,-175,-156,-156
-136,-195,-58,165,-39,-126,39,-161,-185,-185,-170,-165
-136,-200,-63,168,-36,-131,48,-97,-146,-165,-161,-170
-141,-180,-39,161,-51,-109,58,-29,-87,-112,-136,-165
-112,-151,-39,131,-36,-95,63,58,4,-24,-73,-117
-63,-92,-29,78,-17,-61,63,180,156,107,48,-19
-4,-39,-34,21,14,-36,63,292,322,258,190,102
43,19,-24,-31,34,-2,43,375,517,448,356,239
136,122,-14,-129,75,53,-58,278,590,575,517,419
366,244,-122,-305,244,61,-263,141,580,629,668,639
478,439,-39,-458,258,200,-492,-141,492,649,795,819
370,527,156,-448,107,341,-614,-610,180,444,663,795
97,629,531,-363,-217,580,-634,-1029,-156,219,492,702
-341,741,1083,-200,-712,912,-512,-1317,-400,78,424,663
-556,600,1156,-21,-856,878,-458,-1595,-790,-278,117,434
-610,322,932,143,-771,627,-400,-1722,-1102,-610,-204,161
-639,131,771,253,-705,451,-346,-1673,-1210,-751,-370,0
-605,117,722,244,-663,419,-322,-1429,-1054,-678,-346,-9
-502,136,639,183,-570,387,-297,-1146,-854,-566,-292,-19
-361,136,497,112,-429,317,-234,-863,-653,-453,-258,-63
-268,126,395,70,-331,261,-156,-629,-483,-336,-209,-73
-244,92,336,75,-290,214,-102,-448,-361,-253,-161,-73
-209,24,234,92,-222,129,-63,-307,-273,-209,-146,-73
-156,-9,146,82,-151,68,-29,-224,-200,-180,-126,-82
-102,-29,73,65,-87,21,4,-151,-141,-136,-107,-82
-102,-58,43,80,-73,-7,9,-107,-122,-107,-97,-78
-102,-82,19,92,-61,-31,19,-73,-102,-97,-97,-78
-87,-92,-4,90,-41,-48,29,-53,-87,-97,-97,-87
-78,-102,-24,90,-26,-63,34,-43,-78,-92,-97,-92
-73,-102,-29,87,-21,-65,34,-14,-68,-87,-92,-92
-68,-102,-34,85,-17,-68,39,4,-58,-78,-82,-92
-63,-112,-48,87,-7,-80,43,14,-48,-73,-73,-92
-53,-122,-68,87,7,-95,43,24,-29,-63,-73,-87
-43,-122,-78,82,17,-100,48,39,-24,-53,-78,-87
-43,-117,-73,80,14,-95,48,53,-19,-48,-73,-82
-43,-117,-73,80,14,-95,48,63,-9,-43,-68,-78
-39,-117,-78,78,19,-97,48,73,0,-39,-63,-73
-34,-112,-78,73,21,-95,48,73,9,-34,-53,-73
-24,-112,-87,68,31,-100,48,78,19,-24,-53,-78
-19,-102,-82,61,31,-92,48,102,29,-24,-43,-73
-9,-97,-87,53,39,-92,48,112,39,-19,-39,-68
-4,-87,-82,46,39,-85,48,122,48,-9,-34,-63
4,-78,-82,36,43,-80,43,136,63,0,-24,-53
9,-78,-87,34,48,-82,43,146,73,14,-19,-48
14,-68,-82,26,48,-75,43,165,82,24,-14,-43
24,-63,-87,19,56,-75,43,185,97,39,-4,-34
34,-58,-92,12,63,-75,43,204,112,48,0,-24
43,-53,-97,4,70,-75,43,229,126,58,19,-14
48,-48,-97,0,73,-73,48,248,151,68,34,-9
58,-34,-92,-12,75,-63,43,263,156,82,39,0
68,-19,-87,-24,78,-53,43,278,180,102,53,9
82,-4,-87,-39,85,-46,43,297,200,112,58,19
87,4,-82,-46,85,-39,39,322,224,131,73,24
97,19,-78,-58,87,-29,39,356,244,156,87,34
107,29,-78,-68,92,-24,34,390,268,165,102,48
126,43,-82,-85,104,-19,34,409,292,190,122,58
136,58,-78,-97,107,-9,29,439,317,209,136,73
156,68,-87,-112,122,-9,24,473,346,224,151,82
175,87,-87,-131,131,0,24,512,370,253,170,107
200,107,-92,-153,146,7,19,546,405,273,190,117
219,122,-97,-170,158,12,14,585,439,297,209,131
239,146,-92,-192,165,26,14,619,463,326,234,151
258,165,-92,-212,175,36,4,653,502,356,253,170
283,180,-102,-231,192,39,4,697,541,380,278,190
307,195,-112,-251,209,41,4,736,580,409,302,209
331,219,-112,-275,222,53,0,775,610,434,326,224
356,239,-117,-297,236,61,-9,814,644,463,356,239
380,258,-122,-319,251,68,-14,849,683,492,380,263
400,278,-122,-339,261,78,-19,883,712,517,400,287
419,302,-117,-361,268,92,-29,917,736,546,429,307
439,326,-112,-383,275,107,-34,946,766,575,453,331
458,346,-112,-402,285,117,-39,966,790,595,473,351
473,366,-107,-419,290,129,-48,976,810,614,492,370
488,385,-102,-436,295,141,-58,995,829,629,507,390
502,395,-107,-448,305,143,-63,1005,844,639,522,405
507,405,-102,-456,305,151,-68,1000,854,658,536,414
507,409,-97,-458,302,156,-73,980,854,668,546,429
502,419,-82,-461,292,168,-73,936,834,653,551,439
488,424,-63,-456,275,180,-78,878,790,634,541,444
463,419,-43,-441,253,187,-78,824,741,610,522,434
444,405,-39,-424,241,183,-82,761,697,580,497,414
409,370,-39,-390,224,165,-87,683,644,536,468,395
375,341,-34,-358,204,153,-87,600,575,488,434,361
331,307,-24,-319,178,141,-78,522,502,429,380,331
287,268,-19,-278,153,124,-73,444,434,380,331,287
253,229,-24,-241,139,102,-68,370,375,322,287,244
209,195,-14,-202,112,90,-63,292,302,268,239,204
170,156,-14,-163,92,70,-53,229,234,214,190,161
136,122,-14,-129,75,53,-48,165,185,170,151,117
102,87,-14,-95,58,36,-39,117,136,126,117,87
73,63,-9,-68,41,26,-34,73,92,78,78,58
48,39,-9,-43,29,14,-24,39,48,39,43,29
29,14,-14,-21,21,0,-9,9,14,14,14,0
9,-4,-14,-2,12,-9,-9,-9,-4,0,-4,-14
-9,-24,-14,17,2,-19,-4,-39,-29,-19,-19,-29
-19,-39,-19,29,0,-29,0,-68,-53,-43,-34,-39
-29,-53,-24,41,-2,-39,0,-82,-63,-58,-48,-48
-39,-63,-24,51,-7,-43,0,-87,-73,-63,-48,-58
-39,-63,-24,51,-7,-43,4,-92,-82,-73,-58,-63
-48,-68,-19,58,-14,-43,4,-102,-92,-82,-68,-68
-58,-68,-9,63,-24,-39,9,-107,-92,-92,-68,-68
-58,-68,-9,63,-24,-39,9,-112,-97,-92,-73,-73
-58,-78,-19,68,-19,-48,9,-112,-102,-92,-82,-73
-58,-78,-19,68,-19,-48,9,-102,-102,-92,-82,-78
-63,-78,-14,70,-24,-46,14,-92,-107,-87,-82,-78
-63,-82,-19,73,-21,-51,14,-107,-107,-87,-82,-82
-63,-87,-24,75,-19,-56,14,-117,-102,-92,-82,-87
-63,-82,-19,73,-21,-51,9,-107,-102,-92,-82,-87
-63,-82,-19,73,-21,-51,9,-97,-102,-87,-78,-87
-63,-87,-24,75,-19,-56,9,-92,-102,-87,-78,-82
-63,-82,-19,73,-21,-51,9,-92,-102,-82,-78,-78
-63,-78,-14,70,-24,-46,9,-92,-97,-82,-78,-78
-58,-73,-14,65,-21,-43,9,-92,-92,-82,-78,-78
-58,-68,-9,63,-24,-39,14,-97,-92,-82,-73,-78
-58,-68,-9,63,-24,-39,14,-102,-92,-82,-73,-78
-53,-68,-14,61,-19,-41,14,-102,-92,-78,-73,-78
-48,-68,-19,58,-14,-43,14,-107,-92,-78,-73,-78
-48,-73,-24,61,-12,-48,14,-97,-92,-78,-73,-78
-48,-78,-29,63,-9,-53,14,-87,-92,-78,-73,-78
-48,-78,-29,63,-9,-53,14,-87,-92,-73,-73,-78
-48,-78,-29,63,-9,-53,14,-82,-87,-73,-73,-78
-48,-78,-29,63,-9,-53,14,-82,-87,-73,-73,-78
-48,-73,-24,61,-12,-48,14,-82,-87,-73,-73,-78
-48,-68,-19,58,-14,-43,14,-97,-92,-78,-73,-78
-48,-68,-19,58,-14,-43,14,-107,-97,-82,-73,-78
-53,-73,-19,63,-17,-46,14,-107,-97,-82,-73,-78
-58,-78,-19,68,-19,-48,14,-102,-97,-82,-78,-82
-58,-78,-19,68,-19,-48,14,-102,-97,-82,-78,-87
-58,-73,-14,65,-21,-43,14,-102,-97,-82,-78,-92
-53,-73,-19,63,-17,-46,14,-102,-102,-87,-78,-92
-48,-78,-29,63,-9,-53,14,-107,-102,-87,-78,-92
-53,-78,-24,65,-14,-51,14,-107,-102,-87,-78,-97
-53,-73,-19,63,-17,-46,14,-107,-107,-92,-82,-97
-53,-73,-19,63,-17,-46,14,-107,-107,-97,-82,-92
-58,-78,-19,68,-19,-48,14,-112,-112,-97,-87,-92
-58,-78,-19,68,-19,-48,14,-112,-107,-97,-87,-92
-58,-82,-24,70,-17,-53,14,-112,-107,-102,-87,-92
-58,-82,-24,70,-17,-53,19,-112,-107,-102,-87,-92
-58,-82,-24,70,-17,-53,19,-112,-107,-102,-87,-92
-58,-87,-29,73,-14,-58,24,-112,-112,-102,-87,-97
-58,-92,-34,75,-12,-63,19,-117,-122,-102,-92,-97
-58,-92,-34,75,-12,-63,19,-117,-122,-102,-92,-92
-58,-92,-34,75,-12,-63,19,-117,-122,-102,-92,-92
-63,-87,-24,75,-19,-56,19,-122,-122,-102,-97,-97
-68,-92,-24,80,-21,-58,24,-126,-122,-107,-97,-97
-68,-97,-29,82,-19,-63,24,-126,-126,-112,-97,-97
-68,-97,-29,82,-19,-63,24,-131,-126,-112,-97,-97
-68,-97,-29,82,-19,-63,24,-136,-131,-112,-97,-97
-63,-87,-24,75,-19,-56,29,-136,-131,-112,-102,-102
-68,-87,-19,78,-24,-53,24,-136,-131,-112,-102,-102
-68,-92,-24,80,-21,-58,19,-136,-131,-112,-102,-102
-68,-92,-24,80,-21,-58,19,-136,-131,-112,-102,-102
-63,-92,-29,78,-17,-61,19,-141,-131,-107,-102,-102
-63,-87,-24,75,-19,-56,19,-141,-136,-107,-107,-107
-63,-82,-19,73,-21,-51,19,-141,-136,-107,-107,-107
-63,-82,-19,73,-21,-51,19,-141,-136,-107,-102,-107
-68,-87,-19,78,-24,-53,19,-141,-136,-107,-97,-107
-68,-87,-19,78,-24,-53,19,-141,-136,-107,-92,-102
-68,-87,-19,78,-24,-53,24,-141,-136,-107,-92,-102
-68,-92,-24,80,-21,-58,24,-141,-136,-107,-97,-102
-68,-97,-29,82,-19,-63,24,-141,-136,-107,-102,-107
-68,-97,-29,82,-19,-63,24,-136,-136,-112,-102,-107
-68,-97,-29,82,-19,-63,24,-131,-136,-117,-102,-107
-68,-102,-34,85,-17,-68,29,-131,-136,-117,-102,-107
-68,-107,-39,87,-14,-73,34,-131,-136,-122,-107,-107
-68,-107,-39,87,-14,-73,34,-131,-136,-117,-107,-107
-68,-107,-39,87,-14,-73,34,-131,-136,-112,-107,-107
-68,-107,-39,87,-14,-73,29,-131,-136,-112,-102,-107
-68,-102,-34,85,-17,-68,24,-136,-136,-112,-97,-107
-63,-97,-34,80,-14,-65,24,-136,-141,-112,-97,-107
-58,-97,-39,78,-9,-68,24,-136,-141,-112,-97,-107
-63,-97,-34,80,-14,-65,24,-136,-141,-112,-102,-112
-63,-97,-34,80,-14,-65,24,-136,-136,-112,-107,-112
-63,-97,-34,80,-14,-65,24,-136,-136,-112,-107,-107
-58,-102,-43,80,-7,-73,24,-131,-136,-112,-107,-107
-58,-102,-43,80,-7,-73,24,-131,-136,-112,-107,-107
-58,-102,-43,80,-7,-73,29,-131,-136,-112,-107,-107
-58,-102,-43,80,-7,-73,29,-131,-136,-117,-107,-107
-58,-102,-43,80,-7,-73,29,-131,-136,-122,-107,-107
-58,-97,-39,78,-9,-68,24,-136,-141,-122,-107,-107
-58,-97,-39,78,-9,-68,24,-141,-141,-122,-107,-107
-63,-92,-29,78,-17,-61,24,-141,-141,-122,-107,-107
-68,-92,-24,80,-21,-58,19,-141,-141,-117,-107,-107
-68,-92,-24,80,-21,-58,19,-136,-136,-117,-107,-107
-68,-97,-29,82,-19,-63,24,-131,-136,-117,-107,-107
-68,-97,-29,82,-19,-63,24,-131,-136,-117,-107,-107
-73,-97,-24,85,-24,-61,24,-126,-131,-117,-112,-107
-73,-97,-24,85,-24,-61,24,-131,-136,-122,-112,-107
-68,-97,-29,82,-19,-63,24,-136,-146,-126,-112,-107
-68,-102,-34,85,-17,-68,24,-141,-146,-126,-112,-112
-68,-102,-34,85,-17,-68,24,-146,-141,-122,-112,-117
-68,-102,-34,85,-17,-68,24,-141,-141,-122,-107,-112
-68,-102,-34,85,-17,-68,24,-136,-136,-122,-107,-112
-63,-102,-39,82,-12,-70,24,-131,-131,-117,-102,-107
-58,-107,-48,82,-4,-78,24,-126,-131,-112,-102,-107
-58,-102,-43,80,-7,-73,24,-126,-131,-112,-102,-107
-58,-97,-39,78,-9,-68,29,-126,-136,-117,-107,-107
-58,-97,-39,78,-9,-68,29,-126,-136,-117,-107,-107
-58,-97,-39,78,-9,-68,29,-126,-136,-117,-107,-107
-58,-92,-34,75,-12,-63,29,-126,-136,-117,-107,-107
-58,-87,-29,73,-14,-58,29,-126,-136,-117,-107,-107
-53,-87,-34,70,-9,-61,29,-112,-131,-112,-107,-107
-48,-87,-39,68,-4,-63,29,-97,-126,-107,-107,-107
-39,-78,-39,58,0,-58,29,-97,-117,-102,-97,-102
-29,-68,-39,48,4,-53,29,-97,-107,-97,-87,-97
-24,-58,-34,41,4,-46,39,-92,-102,-92,-82,-92
-19,-48,-29,34,4,-39,48,-87,-97,-87,-78,-87
-14,-43,-29,29,7,-36,48,-78,-92,-82,-73,-82
-9,-34,-24,21,7,-29,48,-68,-82,-73,-68,-73
-9,-24,-14,17,2,-19,53,-58,-78,-63,-63,-68
-9,-14,-4,12,-2,-9,58,-53,-78,-58,-58,-68
4,-14,-19,4,12,-17,58,-48,-73,-58,-58,-68
4,-14,-19,4,12,-17,58,-43,-73,-53,-58,-63
19,-4,-24,-7,21,-14,58,-39,-63,-43,-53,-53
24,19,-4,-21,14,7,48,-39,-53,-34,-39,-43
29,29,0,-29,14,14,29,-48,-53,-39,-34,-34
29,43,14,-36,7,29,0,-58,-53,-39,-29,-29
29,48,19,-39,4,34,-9,-58,-53,-39,-29,-24
29,43,14,-36,7,29,-24,-63,-63,-39,-29,-29
39,29,-9,-34,24,9,-24,-68,-63,-39,-29,-29
39,19,-19,-29,29,0,-24,-78,-73,-53,-34,-34
34,-9,-43,-12,39,-26,-19,-92,-82,-68,-48,-43
24,-14,-39,-4,31,-26,-19,-112,-97,-73,-48,-43
14,-14,-29,0,21,-21,-19,-122,-107,-82,-53,-48
4,-29,-34,12,19,-31,-14,-126,-122,-92,-68,-58
-4,-43,-39,24,17,-41,-9,-136,-126,-102,-82,-68
-19,-58,-39,39,9,-48,0,-146,-136,-112,-92,-82
-24,-73,-48,48,12,-61,4,-146,-146,-117,-102,-87
-34,-87,-53,61,9,-70,4,-156,-151,-126,-117,-102
-34,-97,-63,65,14,-80,9,-146,-151,-136,-126,-112
-34,-117,-82,75,24,-100,14,-136,-151,-136,-126,-117
-39,-117,-78,78,19,-97,14,-131,-151,-136,-126,-117
-53,-117,-63,85,4,-90,24,-131,-151,-136,-122,-122
-73,-117,-43,95,-14,-80,29,-136,-156,-141,-126,-126
-78,-126,-48,102,-14,-87,29,-156,-175,-151,-136,-136
-78,-126,-48,102,-14,-87,29,-161,-175,-151,-141,-136
-78,-126,-48,102,-14,-87,29,-161,-175,-151,-141,-136
-82,-131,-48,107,-17,-90,29,-156,-170,-151,-141,-136
-87,-136,-48,112,-19,-92,29,-156,-165,-156,-141,-141
-87,-136,-48,112,-19,-92,29,-156,-165,-156,-146,-141
-87,-136,-48,112,-19,-92,34,-156,-165,-156,-151,-136
-87,-141,-53,114,-17,-97,34,-151,-170,-156,-151,-136
-87,-141,-53,114,-17,-97,34,-151,-175,-156,-151,-141
-92,-141,-48,117,-21,-95,34,-151,-175,-156,-151,-141
-92,-146,-53,119,-19,-100,34,-146,-175,-156,-156,-146
-82,-146,-63,114,-9,-104,48,-112,-156,-146,-151,-146
-78,-141,-63,109,-7,-102,58,-39,-97,-107,-122,-141
-73,-117,-43,95,-14,-80,63,43,-19,-39,-73,-112
-34,-82,-48,58,7,-65,63,146,92,63,14,-39
24,-19,-43,-2,34,-31,48,258,244,190,131,63
92,39,-53,-65,73,-7,34,361,409,336,268,190
165,102,-63,-134,114,19,-9,395,551,478,414,317
283,209,-73,-246,178,68,-136,248,570,556,556,488
448,331,-117,-390,283,107,-317,43,483,556,644,658
497,527,29,-512,234,278,-522,-307,317,522,707,790
326,600,273,-463,26,436,-595,-736,19,326,570,751
-9,688,697,-339,-353,692,-566,-1117,-302,112,395,644
-380,736,1117,-178,-749,927,-458,-1366,-536,-39,307,575
-527,531,1058,-2,-793,795,-419,-1605,-917,-405,-19,317
-566,302,868,131,-717,585,-366,-1659,-1122,-649,-263,97
-580,161,741,209,-661,451,-317,-1537,-1122,-702,-351,-9
-527,146,673,190,-600,409,-292,-1288,-956,-614,-322,-19
-405,165,570,119,-488,368,-268,-1000,-746,-488,-263,-29
-278,151,429,63,-353,290,-204,-741,-570,-390,-229,-63
-200,126,326,36,-263,226,-126,-531,-424,-287,-180,-63
-170,92,263,39,-217,178,-73,-366,-312,-214,-131,-63
-131,24,156,53,-143,90,-34,-239,-234,-180,-117,-63
-87,0,87,43,-87,43,-19,-170,-170,-151,-102,-73
-43,-9,34,26,-39,12,-4,-112,-122,-107,-87,-73
-48,-34,14,41,-31,-9,9,-73,-102,-87,-78,-68
-53,-53,0,53,-26,-26,29,-43,-82,-87,-78,-68
-43,-63,-19,53,-12,-41,39,-24,-68,-87,-82,-78
-39,-73,-34,56,-2,-53,43,-14,-58,-82,-87,-82
-34,-73,-39,53,2,-56,43,9,-48,-78,-87,-82
-29,-73,-43,51,7,-58,48,24,-39,-68,-82,-82
-24,-78,-53,51,14,-65,48,34,-29,-63,-73,-82
-14,-82,-68,48,26,-75,43,43,-9,-53,-73,-78
0,-82,-82,41,41,-82,48,58,-4,-43,-73,-78
4,-78,-82,36,43,-80,48,73,0,-39,-63,-73
4,-73,-78,34,41,-75,48,82,4,-34,-58,-68
9,-68,-78,29,43,-73,48,92,9,-29,-53,-63
9,-63,-73,26,41,-68,43,92,19,-24,-43,-58
14,-63,-78,24,46,-70,39,97,29,-14,-43,-58
19,-58,-78,19,48,-68,39,122,39,-9,-34,-53
29,-58,-87,14,58,-73,39,131,48,0,-29,-48
34,-53,-87,9,61,-70,43,146,58,9,-24,-48
43,-48,-92,2,68,-70,43,165,73,19,-14,-43
48,-48,-97,0,73,-73,43,175,82,29,-9,-39
53,-39,-92,-7,73,-65,43,195,92,34,-4,-34
63,-29,-92,-17,78,-61,43,209,107,48,4,-24
73,-19,-92,-26,82,-56,43,224,122,58,9,-14
82,-14,-97,-34,90,-56,39,248,136,68,24,-4
87,-9,-97,-39,92,-53,39,268,161,78,34,0
102,0,-102,-51,102,-51,34,287,161,87,39,9
117,9,-107,-63,112,-48,34,307,180,102,53,19
136,24,-112,-80,124,-43,34,326,200,112,63,29
146,34,-112,-90,129,-39,29,351,224,131,82,34
156,48,-107,-102,131,-29,29,380,244,156,92,43
165,58,-107,-112,136,-24,24,409,268,165,102,58
185,73,-112,-129,148,-19,24,429,292,190,122,68
195,87,-107,-141,151,-9,19,458,317,209,136,82
214,97,-117,-156,165,-9,19,492,346,224,151,92
234,117,-117,-175,175,0,24,531,370,253,170,117
258,131,-126,-195,192,2,19,570,409,273,190,126
278,141,-136,-209,207,2,14,614,448,297,209,141
297,165,-131,-231,214,17,14,653,473,326,234,161
317,185,-131,-251,224,26,4,692,512,356,253,180
341,200,-141,-270,241,29,4,736,551,380,278,200
366,214,-151,-290,258,31,4,775,590,409,302,219
395,239,-156,-317,275,41,0,814,614,434,326,239
424,258,-165,-341,295,46,-9,854,644,463,356,258
448,278,-170,-363,309,53,-14,888,683,492,380,283
468,297,-170,-383,319,63,-19,922,712,517,400,307
492,322,-170,-407,331,75,-29,956,746,546,429,326
517,346,-170,-431,344,87,-34,985,785,575,453,351
536,361,-175,-448,356,92,-34,1010,810,595,473,370
551,375,-175,-463,363,100,-39,1024,829,614,492,390
561,395,-165,-478,363,114,-48,1034,844,634,507,409
570,405,-165,-488,368,119,-53,1034,854,649,522,424
575,419,-156,-497,366,131,-63,1024,854,658,536,434
575,429,-146,-502,361,141,-73,1000,844,658,546,448
561,429,-131,-495,346,148,-73,956,829,644,551,448
536,424,-112,-480,324,156,-78,897,790,624,541,444
507,414,-92,-461,300,161,-73,834,736,595,517,429
483,395,-87,-439,285,153,-73,761,688,561,488,405
444,361,-82,-402,263,139,-78,678,629,512,453,380
405,331,-73,-368,239,129,-78,590,556,458,414,341
361,297,-63,-329,212,117,-68,512,483,400,361,312
317,258,-58,-287,187,100,-63,434,414,351,312,268
278,224,-53,-251,165,85,-53,361,356,292,268,224
229,195,-34,-212,131,80,-43,283,283,239,219,185
190,156,-34,-173,112,61,-34,229,219,185,170,146
156,122,-34,-139,95,43,-29,175,175,141,131,107
122,87,-34,-104,78,26,-19,122,126,107,102,78
92,63,-29,-78,61,17,-14,73,82,68,68,48
63,39,-24,-51,43,7,-9,39,39,29,29,24
39,14,-24,-26,31,-4,0,9,4,4,-4,0
19,-4,-24,-7,21,-14,4,-9,-14,-9,-19,-14
0,-24,-24,12,12,-24,14,-39,-39,-29,-29,-29
-9,-34,-24,21,7,-29,19,-58,-63,-53,-43,-39
-19,-43,-24,31,2,-34,19,-63,-73,-68,-58,-48
-29,-53,-24,41,-2,-39,19,-68,-78,-73,-58,-58
-29,-53,-24,41,-2,-39,24,-73,-82,-82,-68,-63
-39,-58,-19,48,-9,-39,24,-82,-92,-87,-78,-68
-48,-58,-9,53,-19,-34,29,-87,-92,-92,-78,-68
-48,-58,-9,53,-19,-34,29,-92,-97,-92,-78,-73
-48,-68,-19,58,-14,-43,29,-92,-102,-92,-82,-73
-48,-68,-19,58,-14,-43,29,-92,-102,-97,-82,-78
-53,-68,-14,61,-19,-41,34,-92,-107,-97,-82,-78
-53,-68,-14,61,-19,-41,34,-92,-107,-97,-82,-78
-53,-68,-14,61,-19,-41,34,-87,-102,-102,-82,-78
-53,-63,-9,58,-21,-36,34,-87,-102,-102,-87,-78
-53,-63,-9,58,-21,-36,39,-87,-102,-97,-87,-78
-53,-68,-14,61,-19,-41,39,-87,-107,-97,-87,-78
-53,-63,-9,58,-21,-36,39,-92,-112,-92,-87,-78
-53,-63,-9,58,-21,-36,39,-87,-107,-92,-87,-78
-48,-63,-14,56,-17,-39,39,-82,-102,-92,-87,-78
-48,-58,-9,53,-19,-34,43,-82,-97,-92,-87,-78
-48,-58,-9,53,-19,-34,43,-82,-92,-92,-92,-78
-48,-58,-9,53,-19,-34,43,-82,-92,-87,-87,-78
-48,-58,-9,53,-19,-34,43,-87,-92,-87,-82,-78
-48,-58,-9,53,-19,-34,43,-87,-92,-87,-82,-78
-48,-58,-9,53,-19,-34,43,-87,-92,-87,-82,-78
-53,-58,-4,56,-24,-31,43,-92,-97,-87,-82,-78
-58,-58,0,58,-29,-29,43,-92,-97,-92,-82,-78
-58,-58,0,58,-29,-29,43,-92,-97,-92,-82,-78
-58,-53,4,56,-31,-24,43,-92,-97,-92,-82,-78
-58,-53,4,56,-31,-24,43,-92,-97,-92,-82,-78
-58,-58,0,58,-29,-29,43,-87,-97,-92,-82,-78
-58,-63,-4,61,-26,-34,43,-87,-97,-92,-82,-78
-58,-68,-9,63,-24,-39,43,-82,-97,-92,-87,-82
-58,-73,-14,65,-21,-43,43,-87,-97,-92,-87,-82
-58,-73,-14,65,-21,-43,43,-92,-97,-92,-87,-82
-63,-73,-9,68,-26,-41,43,-92,-102,-92,-87,-82
-68,-78,-9,73,-29,-43,43,-97,-102,-87,-87,-82
-73,-78,-4,75,-34,-41,43,-97,-102,-87,-87,-82
-73,-73,0,73,-36,-36,43,-97,-107,-92,-92,-78
-73,-73,0,73,-36,-36,43,-97,-107,-97,-92,-78
-78,-78,0,78,-39,-39,43,-102,-112,-97,-97,-82
-78,-78,0,78,-39,-39,43,-107,-112,-97,-102,-82
-78,-82,-4,80,-36,-43,43,-112,-117,-102,-107,-82
-78,-82,-4,80,-36,-43,48,-112,-117,-107,-107,-82
-78,-82,-4,80,-36,-43,48,-112,-117,-112,-107,-82
-78,-87,-9,82,-34,-48,48,-112,-117,-112,-102,-87
-78,-92,-14,85,-31,-53,39,-117,-122,-112,-102,-87
-78,-92,-14,85,-31,-53,43,-117,-122,-112,-102,-87
-78,-92,-14,85,-31,-53,48,-117,-122,-112,-102,-92
-78,-87,-9,82,-34,-48,48,-117,-122,-107,-107,-97
-78,-92,-14,85,-31,-53,53,-117,-122,-107,-107,-97
-78,-97,-19,87,-29,-58,48,-117,-126,-112,-107,-97
-78,-97,-19,87,-29,-58,43,-122,-126,-112,-107,-97
-82,-97,-14,90,-34,-56,43,-126,-131,-112,-107,-97
-82,-87,-4,85,-39,-46,48,-126,-131,-112,-112,-102
-87,-87,0,87,-43,-43,48,-126,-131,-112,-112,-102
-87,-92,-4,90,-41,-48,48,-126,-131,-112,-112,-102
-92,-97,-4,95,-43,-51,48,-126,-131,-117,-112,-102
-92,-102,-9,97,-41,-56,48,-131,-131,-117,-112,-102
-92,-102,-9,97,-41,-56,48,-131,-136,-117,-117,-107
-92,-102,-9,97,-41,-56,48,-131,-136,-117,-117,-107
-87,-102,-14,95,-36,-58,48,-131,-136,-117,-117,-107
-87,-107,-19,97,-34,-63,48,-131,-136,-117,-117,-107
-87,-107,-19,97,-34,-63,43,-131,-136,-117,-112,-102
-87,-107,-19,97,-34,-63,43,-131,-136,-117,-112,-102
-87,-112,-24,100,-31,-68,43,-131,-136,-122,-112,-97
-87,-117,-29,102,-29,-73,43,-131,-136,-126,-112,-97
-92,-117,-24,104,-34,-70,43,-131,-136,-126,-117,-97
-97,-117,-19,107,-39,-68,43,-131,-136,-126,-122,-97
-97,-117,-19,107,-39,-68,43,-131,-136,-126,-122,-102
-97,-117,-19,107,-39,-68,43,-131,-136,-131,-126,-107
-92,-117,-24,104,-34,-70,43,-131,-136,-131,-126,-107
-87,-117,-29,102,-29,-73,43,-131,-136,-131,-126,-107
-87,-122,-34,104,-26,-78,43,-131,-136,-131,-126,-107
-87,-122,-34,104,-26,-78,43,-136,-136,-131,-126,-107
-87,-117,-29,102,-29,-73,43,-136,-141,-131,-126,-107
-87,-117,-29,102,-29,-73,43,-136,-141,-131,-126,-107
-92,-117,-24,104,-34,-70,43,-131,-141,-131,-126,-112
-92,-117,-24,104,-34,-70,43,-126,-136,-131,-126,-112
-97,-117,-19,107,-39,-68,43,-126,-136,-126,-126,-107
-97,-122,-24,109,-36,-73,43,-122,-136,-122,-126,-107
-97,-122,-24,109,-36,-73,39,-126,-136,-122,-126,-107
-97,-122,-24,109,-36,-73,39,-131,-136,-122,-126,-107
-97,-122,-24,109,-36,-73,39,-131,-136,-126,-126,-107
-97,-122,-24,109,-36,-73,39,-131,-136,-131,-126,-107
-97,-117,-19,107,-39,-68,34,-131,-141,-131,-126,-107
-97,-117,-19,107,-39,-68,34,-131,-141,-131,-126,-107
-97,-112,-14,104,-41,-63,34,-136,-141,-131,-126,-107
-97,-112,-14,104,-41,-63,29,-141,-141,-126,-126,-107
-97,-112,-14,104,-41,-63,29,-141,-136,-126,-126,-107
-97,-117,-19,107,-39,-68,34,-141,-136,-126,-126,-107
-97,-117,-19,107,-39,-68,34,-141,-136,-126,-122,-107
-102,-117,-14,109,-43,-65,34,-136,-131,-126,-122,-107
-102,-117,-14,109,-43,-65,34,-136,-131,-126,-122,-112
-97,-117,-19,107,-39,-68,34,-136,-136,-126,-122,-117
-102,-122,-19,112,-41,-70,34,-141,-141,-131,-126,-117
-107,-122,-14,114,-46,-68,34,-146,-141,-131,-131,-117
-107,-122,-14,114,-46,-68,34,-141,-146,-131,-126,-112
-107,-122,-14,114,-46,-68,34,-136,-146,-131,-126,-112
-97,-117,-19,107,-39,-68,39,-126,-131,-126,-122,-102
-87,-117,-29,102,-29,-73,43,-117,-122,-122,-122,-97
-87,-107,-19,97,-34,-63,43,-107,-112,-112,-112,-92
-87,-97,-9,92,-39,-53,48,-97,-107,-107,-107,-87
-78,-87,-9,82,-34,-48,48,-97,-107,-107,-102,-87
-68,-78,-9,73,-29,-43,48,-97,-107,-107,-97,-87
-63,-73,-9,68,-26,-41,53,-92,-102,-97,-92,-87
-58,-63,-4,61,-26,-34,58,-82,-92,-87,-87,-82
-58,-58,0,58,-29,-29,63,-78,-87,-78,-82,-78
-58,-53,4,56,-31,-24,68,-73,-87,-78,-78,-78
-43,-53,-9,48,-17,-31,68,-63,-82,-78,-78,-78
-43,-53,-9,48,-17,-31,68,-53,-82,-73,-78,-73
-34,-43,-9,39,-12,-26,68,-48,-68,-63,-68,-63
-34,-19,14,26,-24,-2,58,-48,-53,-53,-48,-53
-29,-9,19,19,-24,4,39,-58,-53,-53,-43,-43
-29,4,34,12,-31,19,9,-68,-53,-48,-39,-39
-19,14,34,2,-26,24,0,-68,-53,-48,-39,-24
-9,14,24,-2,-17,19,-14,-73,-63,-48,-39,-19
0,0,0,0,0,0,-19,-73,-63,-48,-39,-19
0,-9,-9,4,4,-9,-24,-78,-73,-63,-43,-24
-4,-34,-29,19,12,-31,-24,-92,-82,-78,-58,-34
-14,-34,-19,24,2,-26,-29,-112,-97,-82,-58,-34
-24,-34,-9,29,-7,-21,-29,-122,-107,-87,-63,-39
-34,-48,-14,41,-9,-31,-24,-126,-122,-92,-78,-48
-43,-68,-24,56,-9,-46,-19,-136,-126,-102,-92,-58
-58,-87,-29,73,-14,-58,-9,-146,-136,-112,-102,-73
-63,-102,-39,82,-12,-70,-4,-146,-146,-117,-107,-78
-73,-117,-43,95,-14,-80,-4,-156,-151,-126,-117,-92
-73,-126,-53,100,-9,-90,4,-156,-151,-141,-131,-107
-73,-146,-73,109,0,-109,14,-156,-151,-146,-136,-117
-78,-151,-73,114,-2,-112,14,-146,-151,-146,-141,-117
-92,-156,-63,124,-14,-109,24,-141,-151,-146,-141,-122
-117,-156,-39,136,-39,-97,29,-146,-156,-151,-146,-126
-126,-165,-39,146,-43,-102,29,-165,-175,-161,-156,-136
-126,-165,-39,146,-43,-102,29,-170,-175,-161,-161,-136
-126,-165,-39,146,-43,-102,29,-170,-175,-161,-161,-136
-126,-165,-39,146,-43,-102,29,-170,-180,-161,-161,-136
-126,-165,-39,146,-43,-102,29,-175,-185,-165,-161,-141
-126,-165,-39,146,-43,-102,29,-175,-185,-165,-161,-141
-126,-165,-39,146,-43,-102,34,-175,-185,-165,-161,-136
-126,-170,-43,148,-41,-107,34,-170,-185,-165,-161,-136
-126,-170,-43,148,-41,-107,34,-170,-185,-165,-161,-141
-131,-170,-39,151,-46,-104,34,-170,-185,-165,-161,-141
-131,-175,-43,153,-43,-109,34,-165,-185,-165,-165,-146
-131,-185,-53,158,-39,-119,48,-146,-175,-170,-175,-161
-136,-190,-53,163,-41,-122,58,-87,-126,-146,-161,-170
-131,-170,-39,151,-46,-104,63,-9,-53,-82,-117,-146
-92,-141,-48,117,-21,-95,63,87,53,14,-34,-78
-39,-82,-43,61,2,-63,58,219,204,146,87,19
24,-29,-53,2,39,-41,53,341,370,297,229,141
82,34,-48,-58,65,-7,29,400,546,473,385,278
185,141,-43,-163,114,48,-78,278,600,585,536,458
380,263,-117,-322,248,73,-273,87,551,610,658,658
458,458,0,-458,229,229,-492,-248,424,600,756,819
322,541,219,-431,51,380,-595,-688,112,395,619,785
19,639,619,-329,-300,629,-595,-1078,-224,170,444,683
-395,722,1117,-163,-756,919,-473,-1356,-468,19,366,629
-585,551,1137,17,-861,844,-419,-1625,-858,-346,48,385
-629,292,922,168,-775,607,-370,-1712,-1122,-639,-239,136
-649,122,771,263,-710,446,-326,-1625,-1180,-741,-370,0
-595,107,702,244,-649,405,-302,-1371,-1015,-658,-346,-9
-473,126,600,173,-536,363,-278,-1078,-805,-536,-292,-19
-341,126,468,107,-405,297,-219,-814,-619,-434,-258,-58
-258,117,375,70,-317,246,-146,-600,-463,-326,-209,-63
-234,82,317,75,-275,200,-92,-419,-341,-244,-156,-63
-200,14,214,92,-207,114,-53,-278,-253,-200,-136,-63
-151,-19,131,85,-141,56,-24,-204,-185,-170,-122,-73
-102,-39,63,70,-82,12,4,-141,-131,-126,-107,-73
-102,-63,39,82,-70,-12,9,-102,-117,-102,-97,-68
-102,-82,19,92,-61,-31,19,-73,-102,-97,-97,-68
-92,-92,0,92,-46,-46,29,-53,-82,-97,-97,-78
-87,-102,-14,95,-36,-58,34,-43,-68,-92,-97,-82
-82,-102,-19,92,-31,-61,29,-19,-58,-87,-97,-82
-78,-102,-24,90,-26,-63,29,-4,-48,-78,-92,-82
-73,-107,-34,90,-19,-70,34,4,-39,-73,-82,-82
-63,-112,-48,87,-7,-80,34,14,-19,-63,-82,-78
-53,-112,-58,82,2,-85,43,34,-14,-53,-82,-78
-53,-107,-53,80,0,-80,48,53,-9,-48,-73,-73
-53,-107,-53,80,0,-80,48,63,-4,-43,-68,-73
-48,-107,-58,78,4,-82,48,73,0,-39,-63,-73
-43,-102,-58,73,7,-80,48,78,9,-34,-53,-68
-34,-102,-68,68,17,-85,48,87,19,-24,-53,-68
-29,-97,-68,63,19,-82,48,112,29,-19,-43,-63
-19,-97,-78,58,29,-87,48,122,39,-9,-39,-58
-14,-87,-73,51,29,-80,48,131,53,0,-29,-53
-4,-78,-73,41,34,-75,43,146,73,9,-14,-43
0,-78,-78,39,39,-78,43,156,82,19,-9,-39
4,-68,-73,31,39,-70,43,175,92,24,-4,-34
14,-58,-73,21,43,-65,43,190,107,39,4,-24
24,-48,-73,12,48,-61,43,204,122,48,9,-14
34,-39,-73,2,53,-56,39,229,136,58,24,-4
39,-29,-68,-4,53,-48,39,248,161,68,34,0
48,-19,-68,-14,58,-43,34,268,165,82,39,9
58,-9,-68,-24,63,-39,34,287,190,102,53,19
78,0,-78,-39,78,-39,34,307,209,112,63,29
87,4,-82,-46,85,-39,29,331,234,131,82,34
102,19,-82,-61,92,-31,34,366,253,156,92,43
117,29,-87,-73,102,-29,34,400,278,165,102,58
136,43,-92,-90,114,-24,34,419,302,195,122,68
146,58,-87,-102,117,-14,29,448,326,219,136,82
161,68,-92,-114,126,-12,24,483,356,234,151,92
175,87,-87,-131,131,0,24,522,380,263,170,117
200,107,-92,-153,146,7,19,556,414,283,190,126
219,122,-97,-170,158,12,14,595,448,307,209,141
239,146,-92,-192,165,26,9,634,473,331,234,161
258,165,-92,-212,175,36,-4,673,512,356,253,180
283,185,-97,-234,190,43,-4,712,551,380,278,200
307,204,-102,-256,204,51,-4,746,590,409,302,219
331,229,-102,-280,217,63,-9,785,619,439,326,239
356,248,-107,-302,231,70,-19,824,653,473,356,258
385,268,-117,-326,251,75,-24,858,692,502,385,283
409,287,-122,-348,265,82,-29,893,722,527,409,307
429,312,-117,-370,273,97,-39,927,751,556,439,326
448,336,-112,-392,280,112,-43,956,785,585,463,351
468,356,-112,-412,290,122,-48,980,810,605,483,370
483,375,-107,-429,295,134,-58,995,829,624,502,390
492,395,-97,-444,295,148,-68,1005,844,644,522,409
502,405,-97,-453,300,153,-73,1005,854,658,541,424
507,414,-92,-461,300,161,-78,995,858,668,551,439
507,419,-87,-463,297,165,-82,971,854,668,556,458
502,424,-78,-463,290,173,-87,927,834,653,561,458
488,424,-63,-456,275,180,-97,868,790,634,551,453
458,414,-43,-436,251,185,-97,814,741,610,531,444
434,395,-39,-414,236,178,-102,751,697,580,507,424
395,366,-29,-380,212,168,-102,673,644,531,473,405
356,341,-14,-348,185,163,-97,590,575,478,434,370
312,307,-4,-309,158,151,-87,512,502,419,380,341
268,268,0,-268,134,134,-82,434,434,370,331,297
234,229,-4,-231,119,112,-73,361,375,312,287,253
190,195,4,-192,92,100,-63,283,302,258,239,214
151,151,0,-151,75,75,-53,224,234,204,185,170
117,112,-4,-114,61,53,-48,165,185,161,141,126
82,78,-4,-80,43,36,-39,112,131,122,112,92
53,53,0,-53,26,26,-34,63,82,78,78,58
29,24,-4,-26,17,9,-24,29,43,39,43,34
9,-4,-14,-2,12,-9,-9,0,14,14,14,9
-9,-24,-14,17,2,-19,-9,-19,-4,-4,-4,-9
-29,-43,-14,36,-7,-29,-4,-48,-29,-29,-19,-29
-39,-53,-14,46,-12,-34,0,-68,-58,-48,-34,-39
-48,-63,-14,56,-17,-39,0,-73,-73,-58,-48,-48
-58,-73,-14,65,-21,-43,0,-78,-78,-63,-48,-58
-58,-73,-14,65,-21,-43,4,-82,-82,-73,-58,-63
-68,-78,-9,73,-29,-43,4,-92,-92,-82,-73,-68
-78,-78,0,78,-39,-39,9,-97,-92,-92,-78,-68
-78,-78,0,78,-39,-39,9,-102,-97,-92,-78,-73
-78,-87,-9,82,-34,-48,9,-102,-102,-92,-82,-73
-73,-87,-14,80,-29,-51,9,-102,-102,-97,-82,-78
-73,-87,-14,80,-29,-51,14,-102,-107,-97,-82,-78
-73,-87,-14,80,-29,-51,14,-107,-112,-97,-82,-78
-73,-87,-14,80,-29,-51,14,-107,-112,-102,-82,-78
-78,-82,-4,80,-36,-43,14,-107,-112,-102,-87,-78
-82,-82,0,82,-41,-41,19,-107,-112,-97,-87,-78
-82,-92,-9,87,-36,-51,19,-102,-107,-97,-87,-78
-82,-92,-9,87,-36,-51,19,-102,-102,-92,-87,-78
-82,-92,-9,87,-36,-51,19,-97,-97,-92,-82,-78
-78,-92,-14,85,-31,-53,19,-92,-92,-92,-78,-78
-78,-87,-9,82,-34,-48,24,-92,-92,-87,-73,-78
-78,-87,-9,82,-34,-48,24,-92,-92,-82,-73,-78
-78,-87,-9,82,-34,-48,24,-87,-92,-78,-73,-78
-78,-87,-9,82,-34,-48,24,-87,-92,-78,-73,-78
-78,-87,-9,82,-34,-48,24,-87,-92,-82,-78,-78
-78,-87,-9,82,-34,-48,24,-87,-92,-87,-82,-78
-78,-87,-9,82,-34,-48,24,-87,-97,-87,-82,-78
-78,-87,-9,82,-34,-48,24,-82,-97,-92,-82,-78
-78,-87,-9,82,-34,-48,24,-82,-97,-92,-82,-82
-78,-82,-4,80,-36,-43,24,-82,-97,-92,-82,-87
-78,-82,-4,80,-36,-43,24,-92,-97,-92,-82,-87
-78,-87,-9,82,-34,-48,24,-97,-97,-92,-82,-87
-78,-92,-14,85,-31,-53,19,-97,-97,-92,-82,-82
-78,-97,-19,87,-29,-58,14,-92,-97,-92,-87,-82
-78,-97,-19,87,-29,-58,14,-92,-97,-92,-87,-82
-78,-92,-14,85,-31,-53,14,-92,-97,-92,-87,-82
-78,-92,-14,85,-31,-53,19,-92,-102,-97,-87,-82
-78,-97,-19,87,-29,-58,24,-97,-102,-97,-87,-82
-82,-97,-14,90,-34,-56,24,-102,-102,-92,-87,-82
-82,-92,-9,87,-36,-51,24,-107,-107,-92,-92,-78
-82,-92,-9,87,-36,-51,24,-107,-112,-97,-87,-78
-87,-97,-9,92,-39,-53,24,-112,-122,-97,-87,-82
-87,-97,-9,92,-39,-53,24,-117,-122,-97,-87,-82
-87,-102,-14,95,-36,-58,24,-122,-126,-102,-87,-82
-87,-102,-14,95,-36,-58,29,-117,-122,-102,-87,-87
-87,-102,-14,95,-36,-58,29,-112,-117,-102,-87,-92
-87,-102,-14,95,-36,-58,29,-107,-117,-107,-87,-97
-87,-102,-14,95,-36,-58,19,-107,-122,-112,-92,-97
-87,-102,-14,95,-36,-58,19,-107,-122,-112,-92,-92
-87,-102,-14,95,-36,-58,19,-107,-122,-112,-92,-92
-87,-97,-9,92,-39,-53,19,-112,-122,-107,-97,-97
-87,-102,-14,95,-36,-58,24,-117,-122,-107,-97,-97
-87,-107,-19,97,-34,-63,24,-117,-126,-112,-97,-97
-87,-107,-19,97,-34,-63,24,-122,-126,-112,-97,-97
-92,-112,-19,102,-36,-65,24,-126,-131,-112,-97,-97
-92,-107,-14,100,-39,-61,29,-126,-131,-112,-102,-102
-97,-107,-9,102,-43,-58,29,-126,-131,-112,-102,-102
-97,-112,-14,104,-41,-63,29,-126,-131,-112,-102,-102
-97,-112,-14,104,-41,-63,29,-126,-131,-117,-102,-102
-92,-112,-19,102,-36,-65,29,-131,-131,-117,-102,-102
-92,-112,-19,102,-36,-65,29,-131,-136,-122,-107,-107
-92,-112,-19,102,-36,-65,29,-131,-136,-126,-107,-107
-92,-112,-19,102,-36,-65,29,-131,-136,-126,-107,-112
-97,-117,-19,107,-39,-68,29,-131,-136,-126,-107,-117
-97,-117,-19,107,-39,-68,29,-131,-136,-126,-107,-112
-97,-117,-19,107,-39,-68,34,-131,-136,-126,-112,-112
-92,-117,-24,104,-34,-70,34,-131,-136,-126,-112,-107
-87,-117,-29,102,-29,-73,34,-131,-136,-126,-112,-107
-87,-117,-29,102,-29,-73,29,-131,-141,-126,-112,-107
-87,-117,-29,102,-29,-73,24,-131,-146,-126,-112,-107
-92,-117,-24,104,-34,-70,24,-136,-146,-126,-112,-107
-97,-117,-19,107,-39,-68,24,-141,-146,-131,-117,-107
-97,-117,-19,107,-39,-68,24,-141,-141,-131,-117,-107
-97,-117,-19,107,-39,-68,24,-141,-136,-131,-117,-107
-97,-122,-24,109,-36,-73,24,-136,-136,-131,-117,-107
-97,-122,-24,109,-36,-73,24,-136,-136,-131,-117,-107
-97,-117,-19,107,-39,-68,24,-136,-141,-131,-117,-107
-97,-117,-19,107,-39,-68,24,-136,-141,-131,-117,-107
-97,-117,-19,107,-39,-68,24,-141,-141,-131,-117,-112
-92,-117,-24,104,-34,-70,24,-146,-136,-131,-117,-112
-92,-112,-19,102,-36,-65,24,-146,-136,-131,-117,-107
-87,-112,-24,100,-31,-68,24,-141,-136,-131,-117,-107
-92,-112,-19,102,-36,-65,24,-136,-136,-131,-117,-107
-97,-112,-14,104,-41,-63,29,-131,-136,-131,-117,-107
-97,-117,-19,107,-39,-68,29,-131,-136,-131,-117,-107
-97,-122,-24,109,-36,-73,29,-131,-136,-131,-117,-107
-92,-117,-24,104,-34,-70,24,-131,-141,-131,-117,-107
-87,-117,-29,102,-29,-73,24,-131,-141,-131,-117,-107
-87,-112,-24,100,-31,-68,24,-131,-141,-131,-117,-107
-87,-112,-24,100,-31,-68,19,-131,-141,-126,-117,-107
-92,-112,-19,102,-36,-65,24,-131,-136,-126,-117,-107
-97,-117,-19,107,-39,-68,34,-131,-136,-126,-117,-107
-97,-117,-19,107,-39,-68,34,-136,-141,-126,-117,-112
-102,-117,-14,109,-43,-65,34,-136,-141,-126,-122,-117
-102,-117,-14,109,-43,-65,29,-136,-141,-126,-122,-117
-97,-117,-19,107,-39,-68,24,-136,-146,-126,-122,-117
-97,-122,-24,109,-36,-73,24,-136,-146,-131,-122,-117
-97,-122,-24,109,-36,-73,24,-136,-141,-131,-122,-117
-97,-122,-24,109,-36,-73,24,-136,-146,-131,-117,-112
-97,-122,-24,109,-36,-73,24,-136,-146,-131,-117,-112
-92,-117,-24,104,-34,-70,29,-136,-141,-131,-112,-107
-87,-117,-29,102,-29,-73,34,-136,-141,-131,-112,-107
-87,-117,-29,102,-29,-73,29,-136,-141,-126,-112,-112
-87,-117,-29,102,-29,-73,29,-136,-146,-126,-117,-117
-87,-117,-29,102,-29,-73,29,-136,-146,-126,-117,-117
-87,-117,-29,102,-29,-73,29,-136,-146,-126,-117,-117
-82,-117,-34,100,-24,-75,29,-131,-146,-126,-117,-112
-78,-117,-39,97,-19,-78,29,-126,-146,-126,-117,-107
-73,-107,-34,90,-19,-70,34,-122,-136,-122,-112,-107
-68,-97,-29,82,-19,-63,39,-117,-126,-117,-107,-107
-63,-82,-19,73,-21,-51,39,-107,-117,-107,-102,-97
-58,-68,-9,63,-24,-39,39,-97,-107,-97,-97,-87
-53,-58,-4,56,-24,-31,48,-87,-102,-92,-87,-82
-48,-48,0,48,-24,-24,58,-78,-97,-87,-78,-78
-43,-43,0,43,-21,-21,58,-73,-92,-78,-78,-73
-39,-39,0,39,-19,-19,58,-68,-87,-73,-73,-68
-39,-34,4,36,-21,-14,63,-63,-82,-68,-68,-68
-24,-34,-9,29,-7,-21,58,-58,-73,-68,-68,-73
-24,-34,-9,29,-7,-21,58,-53,-73,-68,-68,-73
-14,-24,-9,19,-2,-17,58,-48,-63,-63,-63,-63
-14,-4,9,9,-12,2,48,-48,-58,-53,-48,-53
-9,0,9,4,-9,4,29,-58,-63,-53,-43,-43
-14,14,29,0,-21,21,0,-68,-63,-48,-39,-39
-9,24,34,-7,-21,29,-9,-68,-63,-48,-39,-29
0,29,29,-14,-14,29,-24,-73,-73,-48,-39,-29
9,19,9,-14,0,14,-24,-73,-73,-48,-39,-29
14,9,-4,-12,9,2,-24,-78,-82,-63,-43,-34
14,-14,-29,0,21,-21,-24,-92,-92,-78,-58,-43
4,-19,-24,7,14,-21,-29,-112,-102,-82,-58,-43
-4,-24,-19,14,7,-21,-29,-122,-107,-92,-63,-48
-14,-39,-24,26,4,-31,-24,-126,-122,-102,-78,-58
-24,-58,-34,41,4,-46,-19,-131,-126,-112,-92,-68
-43,-78,-34,61,-4,-56,-9,-136,-136,-122,-102,-82
-53,-92,-39,73,-7,-65,-4,-136,-146,-126,-107,-87
-63,-107,-43,85,-9,-75,-4,-151,-156,-136,-117,-102
-63,-117,-53,90,-4,-85,4,-156,-161,-146,-126,-112
-58,-131,-73,95,7,-102,14,-156,-161,-146,-126,-117
-58,-131,-73,95,7,-102,14,-151,-161,-146,-131,-117
-73,-136,-63,104,-4,-100,24,-151,-161,-146,-131,-122
-97,-136,-39,117,-29,-87,29,-156,-165,-151,-136,-126
-107,-151,-43,129,-31,-97,29,-175,-185,-161,-146,-136
-107,-156,-48,131,-29,-102,29,-180,-185,-161,-151,-136
-107,-156,-48,131,-29,-102,29,-175,-180,-161,-151,-136
-107,-156,-48,131,-29,-102,29,-165,-175,-161,-151,-136
-112,-156,-43,134,-34,-100,29,-165,-175,-165,-151,-141
-117,-156,-39,136,-39,-97,29,-165,-175,-165,-151,-141
-117,-156,-39,136,-39,-97,39,-165,-180,-165,-151,-136
-117,-161,-43,139,-36,-102,43,-161,-185,-165,-151,-136
-117,-161,-43,139,-36,-102,43,-161,-185,-165,-151,-141
-122,-161,-39,141,-41,-100,43,-161,-185,-165,-151,-141
-122,-165,-43,143,-39,-104,43,-156,-185,-165,-156,-146
-117,-170,-53,143,-31,-112,58,-122,-165,-161,-156,-151
-112,-170,-58,141,-26,-114,68,-48,-107,-126,-131,-151
-102,-146,-43,124,-29,-95,73,29,-29,-58,-82,-122
-63,-107,-43,85,-9,-75,68,126,82,43,9,-43
-4,-39,-34,21,14,-36,53,239,234,175,136,63
63,24,-39,-43,51,-7,24,278,370,322,278,200
136,92,-43,-114,90,24,-39,258,488,473,429,346
244,200,-43,-222,143,78,-175,92,502,556,575,527
400,322,-78,-361,239,122,-370,-141,419,546,663,697
429,507,78,-468,175,292,-561,-483,253,497,712,814
244,570,326,-407,-41,448,-619,-912,-73,278,561,756
-87,639,727,-275,-407,683,-580,-1244,-366,73,385,644
-458,673,1132,-107,-795,902,-458,-1434,-566,-68,287,575
-585,473,1058,56,-822,766,-414,-1634,-932,-429,-39,317
-605,244,849,180,-727,546,-351,-1649,-1112,-658,-273,97
-614,126,741,244,-678,434,-292,-1503,-1088,-688,-346,0
-556,136,692,209,-624,414,-263,-1224,-897,-575,-302,0
-434,156,590,139,-512,373,-239,-951,-707,-463,-244,-9
-307,146,453,80,-380,300,-175,-712,-546,-375,-209,-43
-229,126,356,51,-292,241,-107,-522,-405,-278,-170,-48
-204,92,297,56,-251,195,-63,-375,-302,-214,-131,-53
-170,24,195,73,-183,109,-24,-248,-229,-180,-117,-53
-126,-4,122,65,-124,58,0,-180,-170,-151,-102,-63
-82,-19,63,51,-73,21,19,-122,-122,-107,-87,-68
-82,-43,39,63,-61,-2,19,-82,-107,-87,-78,-68
-82,-63,19,73,-51,-21,29,-53,-92,-87,-78,-68
-73,-73,0,73,-36,-36,39,-34,-78,-87,-78,-78
-68,-82,-14,75,-26,-48,43,-29,-68,-82,-82,-82
-63,-82,-19,73,-21,-51,43,-9,-58,-78,-87,-82
-58,-82,-24,70,-17,-53,48,4,-48,-73,-82,-82
-53,-87,-34,70,-9,-61,53,14,-39,-73,-73,-82
-43,-92,-48,68,2,-70,53,24,-19,-63,-73,-78
-34,-92,-58,63,12,-75,58,39,-14,-53,-73,-78
-29,-87,-58,58,14,-73,58,53,-9,-48,-63,-78
-24,-87,-63,56,19,-75,58,63,0,-43,-58,-78
-19,-87,-68,53,24,-78,58,73,4,-39,-53,-73
-14,-82,-68,48,26,-75,58,78,9,-34,-43,-68
-9,-82,-73,46,31,-78,58,87,19,-24,-43,-63
-9,-78,-68,43,29,-73,58,112,29,-19,-34,-53
0,-78,-78,39,39,-78,58,126,39,-9,-29,-48
4,-68,-73,31,39,-70,58,141,48,0,-24,-48
14,-58,-73,21,43,-65,53,156,63,9,-14,-43
19,-58,-78,19,48,-68,53,165,73,19,-9,-39
24,-48,-73,12,48,-61,53,185,82,29,-4,-34
34,-39,-73,2,53,-56,53,200,97,48,4,-24
43,-29,-73,-7,58,-51,53,214,112,58,9,-14
53,-24,-78,-14,65,-51,48,239,126,68,24,-4
58,-14,-73,-21,65,-43,48,258,156,78,34,0
68,0,-68,-34,68,-34,43,278,165,92,39,9
78,9,-68,-43,73,-29,43,297,190,112,53,19
97,24,-73,-61,85,-24,43,317,209,122,63,29
107,34,-73,-70,90,-19,39,341,234,141,82,34
122,48,-73,-85,97,-12,39,375,253,165,97,43
136,58,-78,-97,107,-9,39,409,278,175,112,58
156,73,-82,-114,119,-4,43,429,302,200,131,68
165,82,-82,-124,124,0,39,458,326,219,146,82
185,87,-97,-136,141,-4,34,492,356,234,161,92
204,107,-97,-156,151,4,34,531,380,268,180,117
229,126,-102,-178,165,12,29,566,414,292,200,126
248,141,-107,-195,178,17,24,605,448,317,219,141
268,165,-102,-217,185,31,24,644,473,346,244,161
287,185,-102,-236,195,41,14,678,512,370,263,180
312,204,-107,-258,209,48,14,717,551,390,287,200
336,224,-112,-280,224,56,14,756,590,419,312,219
361,248,-112,-305,236,68,9,795,619,448,336,239
385,268,-117,-326,251,75,0,834,649,483,366,258
409,287,-122,-348,265,82,-4,868,683,512,390,283
429,312,-117,-370,273,97,-9,902,712,536,409,307
448,341,-107,-395,278,117,-19,936,741,566,439,326
468,366,-102,-417,285,131,-24,966,775,595,463,351
488,380,-107,-434,297,136,-29,985,800,614,483,370
502,400,-102,-451,302,148,-39,990,814,629,502,390
512,419,-92,-466,302,163,-48,995,824,639,517,409
522,424,-97,-473,309,163,-53,995,834,649,531,424
527,434,-92,-480,309,170,-58,985,834,658,541,434
527,439,-87,-483,307,175,-68,966,824,658,546,448
517,439,-78,-478,297,180,-73,922,805,639,546,448
497,434,-63,-466,280,185,-78,858,766,614,531,444
468,424,-43,-446,256,190,-78,795,717,585,507,429
448,409,-39,-429,244,185,-82,722,668,551,483,405
414,380,-34,-397,224,173,-87,644,610,502,453,380
375,351,-24,-363,200,163,-87,561,536,453,414,341
331,317,-14,-324,173,151,-78,483,463,400,361,312
287,278,-9,-283,148,134,-73,409,400,356,317,273
253,239,-14,-246,134,112,-63,341,346,302,278,234
209,204,-4,-207,107,100,-53,263,273,248,229,195
170,165,-4,-168,87,80,-43,209,209,195,180,156
136,126,-9,-131,73,58,-39,156,161,146,136,117
102,92,-9,-97,56,41,-29,107,107,107,102,87
78,68,-9,-73,43,29,-24,63,63,68,63,58
58,39,-19,-48,39,9,-19,29,24,29,24,34
39,14,-24,-26,31,-4,-4,0,-4,4,-4,9
19,-4,-24,-7,21,-14,0,-19,-24,-9,-19,-4
-4,-24,-19,14,7,-21,4,-48,-43,-29,-29,-19
-19,-29,-9,24,-4,-19,9,-68,-63,-48,-43,-29
-29,-39,-9,34,-9,-24,9,-73,-73,-63,-58,-43
-39,-53,-14,46,-12,-34,9,-78,-78,-73,-58,-58
-34,-53,-19,43,-7,-36,9,-82,-87,-82,-68,-63
-39,-58,-19,48,-9,-39,4,-92,-102,-87,-78,-68
-48,-58,-9,53,-19,-34,9,-102,-102,-92,-78,-68
-48,-58,-9,53,-19,-34,9,-112,-107,-92,-78,-73
-48,-68,-19,58,-14,-43,9,-112,-112,-92,-82,-73
-48,-68,-19,58,-14,-43,9,-112,-112,-97,-82,-78
-53,-68,-14,61,-19,-41,14,-112,-117,-92,-82,-78
-53,-68,-14,61,-19,-41,14,-112,-117,-87,-82,-78
-53,-68,-14,61,-19,-41,14,-107,-112,-92,-82,-78
-53,-63,-9,58,-21,-36,14,-107,-112,-92,-82,-78
-53,-58,-4,56,-24,-31,14,-107,-112,-87,-78,-78
-53,-63,-9,58,-21,-36,9,-102,-112,-87,-78,-78
-53,-63,-9,58,-21,-36,9,-102,-117,-87,-78,-78
-53,-63,-9,58,-21,-36,9,-97,-117,-92,-78,-78
-48,-63,-14,56,-17,-39,4,-92,-112,-92,-78,-82
-48,-58,-9,53,-19,-34,4,-92,-112,-92,-78,-87
-43,-58,-14,51,-14,-36,4,-92,-107,-92,-82,-87
-39,-58,-19,48,-9,-39,4,-92,-102,-87,-82,-87
-39,-58,-19,48,-9,-39,9,-102,-102,-87,-82,-82
-39,-58,-19,48,-9,-39,14,-107,-102,-87,-82,-78
-43,-58,-14,51,-14,-36,14,-107,-102,-87,-82,-78
-48,-58,-9,53,-19,-34,14,-107,-107,-87,-82,-78
-48,-58,-9,53,-19,-34,14,-102,-107,-87,-82,-78
-48,-58,-9,53,-19,-34,14,-102,-107,-82,-82,-78
-53,-53,0,53,-26,-26,14,-97,-107,-82,-82,-78
-58,-53,4,56,-31,-24,14,-102,-107,-82,-82,-78
-58,-58,0,58,-29,-29,14,-107,-107,-87,-82,-78
-58,-63,-4,61,-26,-34,14,-107,-107,-92,-82,-78
-58,-73,-14,65,-21,-43,14,-102,-107,-92,-87,-82
-58,-78,-19,68,-19,-48,14,-102,-107,-92,-87,-82
-58,-73,-14,65,-21,-43,14,-102,-107,-92,-87,-82
-58,-73,-14,65,-21,-43,14,-102,-112,-97,-87,-82
-53,-78,-24,65,-14,-51,14,-107,-112,-92,-87,-82
-53,-78,-24,65,-14,-51,14,-107,-112,-87,-87,-87
-53,-73,-19,63,-17,-46,14,-107,-117,-92,-87,-87
-53,-73,-19,63,-17,-46,14,-107,-117,-97,-82,-87
-58,-78,-19,68,-19,-48,14,-112,-122,-97,-87,-92
-58,-78,-19,68,-19,-48,14,-117,-122,-97,-87,-92
-58,-82,-24,70,-17,-53,14,-117,-126,-102,-92,-92
-58,-82,-24,70,-17,-53,19,-112,-126,-102,-97,-92
-58,-78,-19,68,-19,-48,19,-112,-126,-102,-97,-92
-58,-73,-14,65,-21,-43,19,-112,-126,-102,-97,-97
-63,-73,-9,68,-26,-41,9,-122,-131,-102,-102,-97
-68,-73,-4,70,-31,-39,9,-126,-131,-102,-102,-92
-68,-73,-4,70,-31,-39,9,-126,-131,-102,-102,-92
-68,-73,-4,70,-31,-39,9,-126,-131,-102,-107,-97
-68,-82,-14,75,-26,-48,14,-126,-131,-107,-107,-97
-68,-87,-19,78,-24,-53,14,-126,-136,-112,-107,-97
-68,-92,-24,80,-21,-58,14,-126,-136,-112,-107,-97
-73,-97,-24,85,-24,-61,14,-126,-141,-112,-107,-97
-73,-87,-14,80,-29,-51,19,-126,-141,-112,-112,-102
-78,-87,-9,82,-34,-48,19,-126,-141,-112,-112,-102
-78,-92,-14,85,-31,-53,19,-131,-141,-112,-112,-102
-78,-92,-14,85,-31,-53,19,-136,-141,-117,-112,-102
-73,-92,-19,82,-26,-56,19,-141,-141,-117,-112,-102
-73,-92,-19,82,-26,-56,19,-141,-146,-117,-117,-107
-73,-92,-19,82,-26,-56,19,-141,-146,-117,-117,-107
-73,-92,-19,82,-26,-56,19,-141,-146,-117,-117,-107
-73,-97,-24,85,-24,-61,14,-141,-146,-117,-117,-107
-68,-97,-29,82,-19,-63,9,-141,-146,-117,-112,-102
-68,-97,-29,82,-19,-63,14,-141,-146,-117,-112,-102
-68,-97,-29,82,-19,-63,14,-141,-146,-117,-112,-102
-68,-92,-24,80,-21,-58,14,-141,-146,-117,-112,-107
-68,-87,-19,78,-24,-53,14,-141,-146,-117,-112,-107
-68,-87,-19,78,-24,-53,14,-141,-146,-117,-112,-112
-68,-87,-19,78,-24,-53,14,-141,-146,-117,-112,-117
-68,-87,-19,78,-24,-53,14,-141,-146,-122,-117,-117
-68,-87,-19,78,-24,-53,14,-141,-146,-122,-117,-117
-68,-87,-19,78,-24,-53,14,-141,-141,-122,-117,-112
-68,-92,-24,80,-21,-58,14,-141,-136,-122,-117,-107
-68,-92,-24,80,-21,-58,14,-146,-136,-122,-117,-107
-68,-87,-19,78,-24,-53,14,-146,-141,-122,-117,-107
-68,-87,-19,78,-24,-53,14,-146,-146,-122,-117,-107
-73,-87,-14,80,-29,-51,14,-146,-151,-122,-117,-112
-78,-92,-14,85,-31,-53,14,-146,-146,-122,-117,-112
-82,-97,-14,90,-34,-56,14,-146,-146,-122,-117,-107
-78,-102,-24,90,-26,-63,14,-141,-146,-122,-117,-107
-78,-102,-24,90,-26,-63,14,-141,-146,-122,-117,-107
-78,-102,-24,90,-26,-63,19,-141,-146,-122,-117,-107
-78,-102,-24,90,-26,-63,19,-141,-146,-122,-117,-107
-78,-102,-24,90,-26,-63,19,-141,-146,-122,-117,-112
-78,-97,-19,87,-29,-58,14,-141,-151,-122,-117,-117
-78,-97,-19,87,-29,-58,14,-146,-151,-122,-117,-117
-78,-92,-14,85,-31,-53,14,-151,-151,-122,-117,-117
-78,-92,-14,85,-31,-53,9,-151,-151,-117,-117,-112
-78,-92,-14,85,-31,-53,9,-151,-146,-117,-117,-107
-78,-97,-19,87,-29,-58,14,-151,-146,-117,-117,-107
-78,-97,-19,87,-29,-58,14,-151,-146,-117,-112,-107
-82,-97,-14,90,-34,-56,14,-146,-146,-117,-112,-112
-82,-97,-14,90,-34,-56,14,-146,-151,-117,-112,-117
-78,-97,-19,87,-29,-58,14,-146,-156,-122,-117,-117
-78,-102,-24,90,-26,-63,14,-146,-156,-126,-122,-117
-78,-102,-24,90,-26,-63,14,-151,-151,-122,-126,-117
-78,-97,-19,87,-29,-58,14,-151,-151,-122,-126,-112
-82,-102,-19,92,-31,-61,14,-146,-146,-122,-126,-112
-87,-102,-14,95,-36,-58,19,-146,-141,-117,-126,-112
-82,-97,-14,90,-34,-56,19,-141,-141,-117,-122,-112
-78,-97,-19,87,-29,-58,19,-136,-146,-117,-117,-117
-78,-97,-19,87,-29,-58,19,-136,-146,-117,-117,-117
-78,-97,-19,87,-29,-58,19,-136,-146,-117,-117,-117
-73,-82,-9,78,-31,-46,19,-126,-136,-112,-107,-107
-68,-68,0,68,-34,-34,19,-117,-126,-107,-97,-97
-63,-63,0,63,-31,-31,24,-112,-122,-102,-92,-92
-58,-58,0,58,-29,-29,29,-107,-117,-97,-87,-87
-53,-53,0,53,-26,-26,34,-97,-107,-92,-87,-87
-48,-43,4,46,-26,-19,39,-87,-97,-82,-82,-82
-48,-39,9,43,-29,-14,43,-78,-87,-78,-82,-78
-48,-34,14,41,-31,-9,48,-73,-87,-78,-78,-78
-29,-34,-4,31,-12,-19,48,-68,-82,-78,-78,-82
-24,-34,-9,29,-7,-21,48,-63,-82,-73,-78,-82
-14,-24,-9,19,-2,-17,48,-58,-73,-63,-73,-73
-14,0,14,7,-14,7,39,-58,-63,-53,-58,-63
-9,9,19,0,-14,14,24,-68,-63,-53,-48,-53
-9,24,34,-7,-21,29,0,-78,-63,-48,-39,-48
0,39,39,-19,-19,39,-9,-78,-63,-48,-39,-39
9,43,34,-26,-12,39,-24,-82,-73,-48,-39,-39
19,29,9,-24,4,19,-24,-82,-73,-43,-43,-39
19,19,0,-19,9,9,-24,-87,-82,-53,-53,-43
19,-4,-24,-7,21,-14,-29,-102,-92,-68,-68,-53
14,-4,-19,-4,17,-12,-39,-122,-107,-73,-68,-53
4,-4,-9,0,7,-7,-39,-131,-112,-82,-68,-53
-4,-19,-14,12,4,-17,-34,-136,-122,-92,-78,-58
-14,-34,-19,24,2,-26,-29,-141,-126,-102,-92,-68
-29,-48,-19,39,-4,-34,-19,-146,-136,-112,-102,-82
-39,-63,-24,51,-7,-43,-14,-156,-151,-117,-107,-92
-53,-78,-24,65,-14,-51,-14,-175,-161,-126,-117,-112
-53,-97,-43,75,-4,-70,-4,-165,-165,-136,-126,-122
-53,-126,-73,90,9,-100,4,-156,-170,-136,-126,-126
-58,-131,-73,95,7,-102,9,-151,-170,-141,-131,-126
-73,-136,-63,104,-4,-100,24,-151,-170,-146,-131,-131
-102,-136,-34,119,-34,-85,29,-156,-170,-151,-136,-136
-117,-146,-29,131,-43,-87,29,-175,-185,-161,-146,-146
-117,-146,-29,131,-43,-87,24,-180,-185,-161,-151,-146
-117,-146,-29,131,-43,-87,19,-180,-185,-161,-151,-146
-117,-141,-24,129,-46,-82,19,-175,-185,-156,-151,-146
-117,-136,-19,126,-48,-78,19,-175,-185,-156,-151,-151
-117,-136,-19,126,-48,-78,19,-175,-185,-156,-151,-151
-117,-136,-19,126,-48,-78,24,-175,-185,-156,-151,-146
-117,-141,-24,129,-46,-82,24,-170,-185,-156,-151,-146
-117,-141,-24,129,-46,-82,24,-170,-185,-156,-151,-151
-122,-146,-24,134,-48,-85,24,-175,-185,-156,-151,-146
-122,-156,-34,139,-43,-95,24,-175,-185,-156,-156,-146
-117,-161,-43,139,-36,-102,43,-141,-170,-156,-156,-151
-117,-161,-43,139,-36,-102,58,-68,-117,-126,-131,-151
-117,-141,-24,129,-46,-82,63,9,-48,-68,-97,-131
-82,-112,-29,97,-26,-70,63,107,53,24,-24,-68
-24,-53,-29,39,2,-41,58,248,204,146,87,19
43,0,-43,-21,43,-21,53,380,370,287,219,131
107,48,-58,-78,82,-4,43,478,556,458,370,253
214,141,-73,-178,143,34,-48,395,619,566,517,419
419,263,-156,-341,287,53,-234,209,551,575,619,610
507,458,-48,-483,278,204,-444,-122,405,551,697,761
370,551,180,-461,95,366,-541,-590,97,366,580,732
68,658,590,-363,-261,624,-536,-1010,-234,161,424,634
-366,761,1127,-197,-746,944,-429,-1322,-478,29,361,605
-575,610,1185,-17,-880,897,-390,-1625,-868,-317,58,385
-634,341,976,146,-805,658,-336,-1732,-1137,-614,-234,131
-668,161,829,253,-749,495,-287,-1664,-1200,-722,-370,-9
-624,141,766,241,-695,453,-278,-1429,-1049,-658,-346,-19
-512,156,668,178,-590,412,-268,-1156,-854,-556,-292,-29
-356,146,502,104,-429,324,-209,-873,-663,-444,-258,-63
-248,126,375,61,-312,251,-136,-639,-502,-326,-209,-63
-224,92,317,65,-270,204,-82,-448,-366,-239,-156,-63
-190,24,214,82,-202,119,-43,-297,-263,-190,-136,-63
-136,-4,131,70,-134,63,-14,-219,-195,-161,-117,-73
-82,-19,63,51,-73,21,14,-151,-141,-117,-97,-73
-82,-43,39,63,-61,-2,19,-112,-126,-97,-87,-73
-82,-63,19,73,-51,-21,29,-82,-112,-97,-87,-78
-73,-73,0,73,-36,-36,39,-58,-97,-97,-92,-87
-68,-82,-14,75,-26,-48,43,-43,-87,-92,-97,-92
-63,-82,-19,73,-21,-51,43,-19,-78,-82,-97,-92
-58,-82,-24,70,-17,-53,48,-4,-68,-68,-92,-92
-53,-87,-34,70,-9,-61,53,4,-58,-63,-78,-92
-43,-92,-48,68,2,-70,53,14,-39,-53,-73,-87
-34,-92,-58,63,12,-75,58,29,-34,-43,-73,-82
-34,-87,-53,61,9,-70,58,43,-29,-39,-63,-73
-34,-87,-53,61,9,-70,58,53,-19,-34,-58,-68
-29,-87,-58,58,14,-73,58,63,-9,-29,-53,-63
-24,-82,-58,53,17,-70,58,68,0,-29,-43,-63
-14,-82,-68,48,26,-75,58,78,9,-24,-43,-68
-14,-78,-63,46,24,-70,58,102,19,-19,-39,-63
-9,-78,-68,43,29,-73,58,112,29,-9,-39,-58
-4,-68,-63,36,29,-65,58,122,34,0,-34,-58
4,-58,-63,26,34,-61,53,136,43,9,-24,-53
9,-58,-68,24,39,-63,58,146,53,19,-19,-48
14,-48,-63,17,39,-56,63,165,63,24,-14,-43
24,-43,-68,9,46,-56,63,175,78,39,-4,-34
34,-39,-73,2,53,-56,63,185,92,48,0,-24
43,-34,-78,-4,61,-56,53,209,107,58,14,-14
48,-29,-78,-9,63,-53,48,229,131,68,24,-9
58,-19,-78,-19,68,-48,43,248,136,82,29,0
68,-9,-78,-29,73,-43,43,268,161,102,43,9
87,4,-82,-46,85,-39,43,287,180,107,53,19
97,14,-82,-56,90,-34,39,312,204,122,73,24
112,29,-82,-70,97,-26,39,341,219,146,87,29
126,39,-87,-82,107,-24,34,370,239,156,102,39
146,53,-92,-100,119,-19,34,390,263,180,117,48
156,68,-87,-112,122,-9,29,419,287,200,126,63
175,73,-102,-124,139,-14,24,453,317,214,141,73
195,87,-107,-141,151,-9,24,492,341,244,161,97
224,102,-122,-163,173,-9,19,527,375,263,180,107
248,112,-136,-180,192,-12,14,566,409,287,200,122
268,136,-131,-202,200,2,14,605,434,317,224,146
287,156,-131,-222,209,12,4,644,473,346,244,170
312,175,-136,-244,224,19,4,688,512,370,268,190
336,195,-141,-265,239,26,4,727,551,400,292,209
361,219,-141,-290,251,39,0,771,580,429,322,229
385,239,-146,-312,265,46,-9,814,614,463,356,248
414,258,-156,-336,285,51,-14,849,658,492,380,278
439,278,-161,-358,300,58,-19,883,692,517,400,307
463,302,-161,-383,312,70,-29,917,722,551,434,326
488,326,-161,-407,324,82,-34,946,756,585,463,351
512,351,-161,-431,336,95,-39,971,785,605,483,370
531,375,-156,-453,344,109,-48,985,810,624,502,390
541,395,-146,-468,344,124,-58,1005,829,644,522,409
551,405,-146,-478,348,129,-63,1015,844,658,541,424
556,414,-141,-485,348,136,-68,1005,849,678,551,439
556,419,-136,-488,346,141,-73,980,844,688,556,458
546,424,-122,-485,334,151,-73,946,834,673,566,463
527,424,-102,-475,314,161,-78,897,800,653,561,463
492,419,-73,-456,283,173,-78,834,746,624,536,448
463,405,-58,-434,261,173,-82,761,697,590,507,424
424,370,-53,-397,239,158,-82,683,639,541,473,400
385,341,-43,-363,214,148,-78,600,566,488,434,361
336,307,-29,-322,183,139,-68,517,492,429,380,331
287,268,-19,-278,153,124,-63,434,424,380,331,287
248,224,-24,-236,136,100,-53,356,366,322,287,244
200,185,-14,-192,107,85,-43,273,292,268,239,204
156,141,-14,-148,85,63,-34,214,219,204,180,161
117,102,-14,-109,65,43,-29,156,165,151,131,117
82,63,-19,-73,51,21,-19,102,117,117,102,87
53,34,-19,-43,36,7,-14,53,73,78,68,58
29,9,-19,-19,24,-4,-9,19,29,34,29,29
9,-14,-24,2,17,-19,0,-9,-4,4,-4,0
-9,-34,-24,21,7,-29,0,-29,-24,-9,-24,-19
-29,-53,-24,41,-2,-39,4,-58,-48,-29,-39,-39
-43,-63,-19,53,-12,-41,14,-82,-78,-48,-53,-48
-58,-73,-14,65,-21,-43,19,-92,-92,-58,-68,-58
-68,-82,-14,75,-26,-48,19,-97,-97,-68,-68,-68
-68,-82,-14,75,-26,-48,24,-102,-102,-82,-78,-73
-78,-87,-9,82,-34,-48,19,-112,-112,-87,-87,-78
-87,-87,0,87,-43,-43,19,-117,-112,-92,-87,-78
-87,-87,0,87,-43,-43,19,-126,-117,-92,-87,-82
-87,-97,-9,92,-39,-53,19,-131,-122,-92,-92,-82
-87,-97,-9,92,-39,-53,19,-136,-126,-97,-97,-92
-92,-97,-4,95,-43,-51,24,-141,-136,-97,-102,-97
-92,-97,-4,95,-43,-51,24,-141,-136,-97,-102,-97
-92,-97,-4,95,-43,-51,24,-136,-131,-102,-102,-97
-92,-92,0,92,-46,-46,19,-131,-126,-102,-102,-92
-92,-92,0,92,-46,-46,19,-126,-122,-97,-97,-87
-92,-102,-9,97,-41,-56,19,-122,-122,-97,-97,-87
-92,-102,-9,97,-41,-56,19,-122,-122,-92,-97,-87
-92,-102,-9,97,-41,-56,19,-122,-117,-92,-97,-87
-87,-102,-14,95,-36,-58,19,-122,-112,-92,-97,-87
-87,-97,-9,92,-39,-53,24,-122,-117,-92,-92,-87
-87,-97,-9,92,-39,-53,24,-122,-122,-92,-92,-87
-87,-97,-9,92,-39,-53,24,-122,-122,-87,-92,-92
-87,-97,-9,92,-39,-53,24,-126,-122,-87,-92,-97
-87,-97,-9,92,-39,-53,24,-126,-117,-87,-92,-97
-87,-97,-9,92,-39,-53,24,-126,-112,-87,-92,-97
-87,-97,-9,92,-39,-53,24,-126,-117,-87,-92,-97
-87,-97,-9,92,-39,-53,24,-122,-117,-92,-92,-97
-87,-97,-9,92,-39,-53,24,-122,-117,-92,-92,-92
-87,-92,-4,90,-41,-48,24,-122,-117,-92,-92,-87
-92,-87,4,90,-48,-41,24,-131,-122,-92,-92,-87
-97,-87,9,92,-53,-39,24,-136,-126,-92,-92,-87
-97,-92,4,95,-51,-43,24,-136,-126,-92,-92,-87
-97,-97,0,97,-48,-48,24,-131,-126,-92,-97,-92
-97,-102,-4,100,-46,-53,24,-131,-126,-92,-97,-92
-97,-102,-4,100,-46,-53,24,-131,-126,-92,-97,-92
-97,-102,-4,100,-46,-53,24,-131,-131,-97,-97,-92
-97,-107,-9,102,-43,-58,24,-136,-131,-97,-97,-92
-102,-107,-4,104,-48,-56,24,-141,-131,-97,-97,-97
-102,-102,0,102,-51,-51,24,-146,-136,-102,-102,-97
-97,-102,-4,100,-46,-53,24,-146,-136,-107,-102,-97
-97,-107,-9,102,-43,-58,24,-151,-141,-107,-107,-102
-97,-107,-9,102,-43,-58,24,-156,-141,-107,-107,-107
-97,-112,-14,104,-41,-63,24,-161,-146,-112,-107,-112
-102,-112,-9,107,-46,-61,29,-161,-146,-112,-107,-112
-107,-112,-4,109,-51,-58,29,-161,-146,-112,-107,-112
-107,-117,-9,112,-48,-63,29,-161,-146,-112,-107,-117
-107,-122,-14,114,-46,-68,19,-165,-151,-112,-112,-117
-107,-122,-14,114,-46,-68,19,-165,-151,-112,-112,-112
-107,-122,-14,114,-46,-68,19,-165,-151,-112,-112,-112
-112,-117,-4,114,-53,-61,19,-165,-151,-112,-117,-117
-117,-122,-4,119,-56,-63,24,-165,-151,-117,-117,-117
-117,-126,-9,122,-53,-68,24,-165,-156,-122,-117,-117
-117,-126,-9,122,-53,-68,24,-170,-156,-122,-117,-117
-122,-126,-4,124,-58,-65,19,-175,-161,-122,-117,-117
-122,-117,4,119,-63,-56,19,-175,-161,-122,-122,-122
-126,-117,9,122,-68,-53,19,-175,-161,-122,-122,-122
-126,-122,4,124,-65,-58,19,-175,-161,-122,-122,-122
-126,-126,0,126,-63,-63,19,-175,-161,-126,-122,-122
-122,-131,-9,126,-56,-70,19,-180,-161,-126,-122,-122
-122,-131,-9,126,-56,-70,19,-180,-165,-126,-126,-126
-122,-131,-9,126,-56,-70,19,-180,-165,-126,-126,-126
-122,-131,-9,126,-56,-70,19,-180,-165,-126,-126,-126
