I, II, III, aVR, aVL, aVF, V1, V2, V3, V4, V5, V6
-78,-87,-9,82,-34,-48,14,-82,-112,-107,-102,-73
-78,-92,-14,85,-31,-53,9,-82,-117,-117,-117,-78
-78,-97,-19,87,-29,-58,4,-82,-117,-117,-122,-78
-82,-97,-14,90,-34,-56,4,-82,-117,-112,-117,-78
-82,-92,-9,87,-36,-51,9,-82,-112,-112,-117,-73
-87,-92,-4,90,-41,-48,9,-82,-112,-117,-117,-73
-92,-92,0,92,-46,-46,9,-87,-117,-122,-117,-78
-92,-92,0,92,-46,-46,9,-87,-122,-122,-122,-78
-92,-92,0,92,-46,-46,9,-87,-126,-122,-122,-78
-92,-92,0,92,-46,-46,9,-78,-122,-122,-122,-78
-92,-92,0,92,-46,-46,14,-73,-122,-122,-117,-73
-92,-92,0,92,-46,-46,14,-73,-117,-117,-117,-73
-92,-92,0,92,-46,-46,14,-73,-117,-117,-117,-73
-92,-92,0,92,-46,-46,14,-68,-112,-112,-112,-73
-92,-92,0,92,-46,-46,14,-68,-107,-107,-112,-68
-92,-92,0,92,-46,-46,14,-58,-107,-107,-112,-68
-87,-92,-4,90,-41,-48,14,-53,-102,-107,-107,-68
-78,-102,-24,90,-26,-63,14,-29,-78,-92,-97,-63
-68,-97,-29,82,-19,-63,9,0,-39,-63,-78,-53
-24,-78,-53,51,14,-65,-14,24,19,-9,-34,-39
68,-39,-107,-14,87,-73,-34,126,165,136,87,39
234,24,-209,-129,222,-92,-97,190,370,361,292,170
453,131,-322,-292,387,-95,-195,175,551,614,536,336
702,258,-444,-480,573,-92,-351,87,673,858,805,527
922,448,-473,-685,697,-12,-527,-39,761,1107,1102,775
932,639,-292,-785,612,173,-756,-429,610,1137,1234,941
727,634,-92,-680,409,270,-902,-956,78,653,863,761
366,444,78,-405,143,261,-927,-1459,-814,-326,-24,239
29,331,302,-180,-136,317,-912,-1781,-1410,-961,-561,-92
-92,302,395,-104,-244,348,-912,-1786,-1590,-1141,-692,-175
-97,331,429,-117,-263,380,-873,-1649,-1444,-1044,-634,-156
-117,317,434,-100,-275,375,-785,-1424,-1254,-912,-570,-141
-126,317,444,-95,-285,380,-634,-1107,-985,-712,-439,-87
-126,263,390,-68,-258,326,-492,-839,-732,-541,-351,-63
-107,204,312,-48,-209,258,-375,-619,-536,-409,-273,-58
-87,151,239,-31,-163,195,-283,-453,-409,-326,-229,-58
-82,97,180,-7,-131,139,-175,-307,-317,-253,-190,-48
-73,58,131,7,-102,95,-102,-180,-200,-175,-141,-39
-63,24,87,19,-75,56,-53,-82,-102,-102,-92,-29
-53,0,53,26,-53,26,-19,-34,-68,-73,-68,-19
-53,-24,29,39,-41,2,9,0,-53,-63,-53,-14
-53,-39,14,46,-34,-12,29,24,-39,-48,-53,-19
-53,-39,14,46,-34,-12,29,29,-14,-39,-43,-24
-58,-39,19,48,-39,-9,29,34,-14,-29,-43,-29
-53,-39,14,46,-34,-12,39,43,-14,-29,-34,-34
-53,-43,9,48,-31,-17,48,58,0,-29,-39,-29
-53,-43,9,48,-31,-17,53,68,9,-19,-39,-29
-53,-39,14,46,-34,-12,53,68,19,-14,-39,-29
-48,-39,9,43,-29,-14,48,73,19,-9,-39,-29
-48,-39,9,43,-29,-14,48,78,19,-9,-39,-29
-48,-43,4,46,-26,-19,53,82,24,0,-34,-29
-48,-43,4,46,-26,-19,63,87,34,4,-29,-29
-48,-39,9,43,-29,-14,68,97,39,9,-24,-24
-43,-39,4,41,-24,-17,73,107,48,19,-14,-9
-43,-43,0,43,-21,-21,73,112,63,19,-14,-9
-39,-43,-4,41,-17,-24,73,117,68,24,-9,-9
-39,-39,0,39,-19,-19,78,126,73,34,-9,-9
-34,-39,-4,36,-14,-21,78,126,82,39,0,-4
-34,-39,-4,36,-14,-21,78,141,87,43,0,0
-29,-34,-4,31,-12,-19,78,146,97,43,9,4
-24,-34,-9,29,-7,-21,78,151,102,53,9,9
-24,-34,-9,29,-7,-21,78,156,112,58,24,14
-19,-24,-4,21,-7,-14,73,165,122,68,24,19
-14,-24,-9,19,-2,-17,73,175,131,78,34,14
-4,-24,-19,14,7,-21,73,180,146,87,39,14
0,-19,-19,9,9,-19,78,195,151,97,53,24
9,-14,-24,2,17,-19,78,209,165,97,58,34
14,-4,-19,-4,17,-12,78,219,175,107,68,39
19,9,-9,-14,14,0,78,229,185,117,73,39
24,14,-9,-19,17,2,78,244,195,131,82,48
29,19,-9,-24,19,4,82,263,209,151,97,53
34,24,-9,-29,21,7,82,273,234,170,107,58
39,43,4,-41,17,24,82,292,248,180,117,68
43,43,0,-43,21,21,87,317,263,190,126,73
53,58,4,-56,24,31,92,331,287,209,146,78
68,63,-4,-65,36,29,92,361,307,224,156,82
78,73,-4,-75,41,34,102,380,331,244,175,97
87,87,0,-87,43,43,102,400,356,268,185,107
102,102,0,-102,51,51,102,419,380,283,204,112
117,112,-4,-114,61,53,102,439,400,307,219,126
122,126,4,-124,58,65,102,458,424,326,239,136
131,141,9,-136,61,75,102,478,444,346,258,151
141,156,14,-148,63,85,107,497,463,366,278,165
156,170,14,-163,70,92,107,512,488,390,297,185
165,185,19,-175,73,102,107,531,507,409,312,200
175,200,24,-187,75,112,112,546,536,424,322,214
185,209,24,-197,80,117,112,556,556,439,346,229
190,224,34,-207,78,129,107,566,570,453,361,248
200,244,43,-222,78,143,107,570,580,463,366,253
209,258,48,-234,80,153,107,570,585,478,380,258
209,263,53,-236,78,158,112,570,590,488,390,263
209,273,63,-241,73,168,107,566,590,492,390,273
204,283,78,-244,63,180,97,551,590,492,390,278
209,292,82,-251,63,187,92,531,580,483,390,278
209,292,82,-251,63,187,87,502,556,468,385,273
204,292,87,-248,58,190,73,463,536,458,370,273
195,292,97,-244,48,195,58,424,512,439,356,268
185,273,87,-229,48,180,48,380,473,414,336,263
180,263,82,-222,48,173,43,331,429,375,312,248
165,244,78,-204,43,161,34,292,380,336,287,224
141,219,78,-180,31,148,29,248,341,302,258,200
122,204,82,-163,19,143,24,204,287,258,219,170
107,180,73,-143,17,126,19,156,234,204,175,141
87,146,58,-117,14,102,9,117,195,170,146,117
63,117,53,-90,4,85,4,87,161,136,122,92
43,97,53,-70,-4,75,9,58,126,107,92,73
29,78,48,-53,-9,63,9,34,92,73,58,53
9,53,43,-31,-17,48,9,9,58,48,39,19
-9,43,53,-17,-31,48,9,-4,43,24,14,-4
-9,24,34,-7,-21,29,9,-14,19,9,0,-4
-14,9,24,2,-19,17,9,-29,-4,-14,-19,-14
-24,4,29,9,-26,17,9,-34,-19,-29,-34,-34
-34,-4,29,19,-31,12,14,-43,-34,-34,-43,-39
-39,-14,24,26,-31,4,14,-48,-43,-43,-43,-43
-39,-19,19,29,-29,0,14,-58,-53,-48,-48,-43
-48,-19,29,34,-39,4,14,-58,-53,-53,-58,-58
-48,-29,19,39,-34,-4,9,-58,-58,-63,-63,-58
-48,-29,19,39,-34,-4,14,-58,-58,-73,-68,-63
-53,-34,19,43,-36,-7,14,-58,-63,-78,-73,-68
-58,-34,24,46,-41,-4,14,-58,-68,-78,-73,-68
-63,-34,29,48,-46,-2,14,-58,-68,-78,-78,-68
-63,-34,29,48,-46,-2,14,-53,-68,-78,-78,-68
-63,-34,29,48,-46,-2,14,-48,-68,-78,-78,-63
-63,-34,29,48,-46,-2,14,-48,-63,-78,-73,-63
-63,-34,29,48,-46,-2,14,-48,-63,-78,-68,-63
-58,-34,24,46,-41,-4,19,-53,-63,-73,-68,-68
-58,-34,24,46,-41,-4,19,-53,-63,-68,-73,-68
-58,-34,24,46,-41,-4,19,-43,-63,-68,-73,-73
-58,-34,24,46,-41,-4,19,-43,-68,-68,-73,-78
-58,-34,24,46,-41,-4,19,-43,-68,-68,-78,-82
-58,-34,24,46,-41,-4,19,-43,-68,-68,-78,-82
-58,-39,19,48,-39,-9,19,-43,-68,-73,-73,-78
-63,-39,24,51,-43,-7,19,-43,-68,-73,-68,-78
-63,-39,24,51,-43,-7,24,-39,-68,-73,-73,-73
-68,-39,29,53,-48,-4,29,-39,-68,-73,-73,-68
-68,-39,29,53,-48,-4,29,-39,-58,-68,-73,-68
-63,-39,24,51,-43,-7,29,-39,-53,-63,-73,-68
-63,-39,24,51,-43,-7,24,-39,-53,-63,-73,-68
-63,-39,24,51,-43,-7,24,-39,-53,-63,-68,-68
-63,-39,24,51,-43,-7,24,-39,-53,-63,-68,-68
-63,-39,24,51,-43,-7,24,-39,-53,-63,-68,-68
-63,-39,24,51,-43,-7,24,-39,-53,-63,-68,-68
-63,-39,24,51,-43,-7,24,-39,-53,-63,-68,-68
-63,-39,24,51,-43,-7,19,-39,-53,-63,-68,-68
-63,-43,19,53,-41,-12,14,-39,-58,-63,-68,-68
-63,-43,19,53,-41,-12,14,-43,-63,-73,-73,-73
-63,-43,19,53,-41,-12,14,-43,-63,-73,-73,-78
-68,-48,19,58,-43,-14,14,-43,-63,-73,-78,-78
-68,-48,19,58,-43,-14,14,-43,-58,-68,-78,-73
-63,-53,9,58,-36,-21,14,-43,-58,-68,-78,-73
-63,-53,9,58,-36,-21,14,-43,-63,-68,-78,-73
-63,-53,9,58,-36,-21,19,-43,-68,-73,-78,-68
-63,-48,14,56,-39,-17,24,-43,-68,-73,-82,-68
-63,-48,14,56,-39,-17,19,-48,-68,-78,-82,-73
-68,-48,19,58,-43,-14,19,-48,-68,-78,-82,-73
-68,-48,19,58,-43,-14,19,-48,-78,-82,-82,-78
-68,-48,19,58,-43,-14,19,-53,-78,-82,-82,-78
-73,-53,19,63,-46,-17,24,-53,-73,-78,-82,-78
-73,-58,14,65,-43,-21,24,-53,-73,-78,-87,-78
-68,-58,9,63,-39,-24,19,-53,-78,-82,-92,-82
-68,-58,9,63,-39,-24,19,-53,-87,-87,-102,-82
-73,-58,14,65,-43,-21,19,-63,-87,-87,-102,-87
-78,-53,24,65,-51,-14,19,-68,-87,-92,-102,-92
-78,-53,24,65,-51,-14,14,-68,-82,-92,-102,-92
-73,-53,19,63,-46,-17,9,-68,-82,-92,-102,-92
-73,-53,19,63,-46,-17,9,-68,-87,-92,-107,-92
-73,-53,19,63,-46,-17,9,-63,-87,-92,-107,-92
-73,-53,19,63,-46,-17,14,-63,-87,-92,-107,-92
-73,-53,19,63,-46,-17,19,-68,-87,-92,-107,-92
-78,-53,24,65,-51,-14,14,-68,-92,-97,-107,-87
-78,-53,24,65,-51,-14,14,-63,-92,-97,-107,-87
-73,-58,14,65,-43,-21,14,-63,-92,-92,-102,-87
-73,-58,14,65,-43,-21,14,-63,-92,-92,-102,-87
-73,-58,14,65,-43,-21,14,-63,-92,-97,-102,-87
-73,-58,14,65,-43,-21,14,-63,-97,-97,-102,-82
-82,-53,29,68,-56,-12,14,-63,-97,-97,-102,-82
-82,-53,29,68,-56,-12,14,-68,-92,-97,-102,-82
-82,-53,29,68,-56,-12,14,-68,-92,-97,-97,-82
-78,-53,24,65,-51,-14,14,-68,-92,-97,-97,-82
-78,-53,24,65,-51,-14,14,-68,-97,-102,-102,-82
-78,-53,24,65,-51,-14,14,-68,-97,-102,-102,-87
-78,-53,24,65,-51,-14,9,-73,-97,-97,-102,-87
-78,-53,24,65,-51,-14,9,-78,-97,-97,-102,-87
-78,-53,24,65,-51,-14,9,-78,-97,-97,-102,-87
-82,-53,29,68,-56,-12,9,-78,-102,-97,-102,-87
-82,-53,29,68,-56,-12,9,-78,-102,-102,-107,-87
-82,-53,29,68,-56,-12,4,-78,-102,-112,-112,-92
-82,-53,29,68,-56,-12,4,-82,-107,-112,-112,-97
-78,-53,24,65,-51,-14,4,-82,-107,-112,-112,-92
-78,-53,24,65,-51,-14,4,-82,-107,-107,-112,-92
-78,-53,24,65,-51,-14,4,-82,-107,-102,-112,-92
-78,-53,24,65,-51,-14,4,-82,-107,-102,-112,-92
-78,-53,24,65,-51,-14,4,-78,-107,-102,-117,-92
-78,-53,24,65,-51,-14,4,-78,-102,-107,-117,-92
-78,-53,24,65,-51,-14,4,-78,-97,-107,-117,-92
-87,-53,34,70,-61,-9,4,-78,-102,-107,-112,-97
-92,-53,39,73,-65,-7,4,-78,-102,-107,-107,-97
-87,-53,34,70,-61,-9,4,-78,-102,-112,-107,-92
-87,-53,34,70,-61,-9,4,-78,-97,-112,-102,-92
-87,-58,29,73,-58,-14,4,-73,-97,-107,-107,-92
-87,-63,24,75,-56,-19,9,-73,-92,-107,-112,-92
-87,-63,24,75,-56,-19,9,-73,-97,-107,-112,-92
-87,-63,24,75,-56,-19,9,-73,-107,-107,-112,-92
-87,-58,29,73,-58,-14,14,-73,-107,-102,-112,-97
-82,-48,34,65,-58,-7,14,-63,-97,-102,-112,-97
-68,-34,34,51,-51,0,24,-53,-82,-87,-102,-92
-58,-24,34,41,-46,4,34,-48,-73,-78,-92,-87
-53,-14,39,34,-46,12,39,-39,-58,-68,-78,-78
-48,-9,39,29,-43,14,48,-29,-48,-58,-68,-68
-48,-9,39,29,-43,14,53,-24,-43,-58,-68,-68
-48,-9,39,29,-43,14,58,-19,-39,-58,-68,-68
-39,-9,29,24,-34,9,58,-14,-39,-48,-68,-68
-24,-9,14,17,-19,2,58,0,-29,-39,-58,-63
-9,-14,-4,12,-2,-9,63,9,-24,-29,-48,-58
14,-9,-24,-2,19,-17,63,19,-9,-19,-39,-48
29,-9,-39,-9,34,-24,53,29,0,-14,-34,-39
39,-9,-48,-14,43,-29,53,34,4,-14,-29,-39
34,-9,-43,-12,39,-26,43,29,0,-19,-34,-53
34,0,-34,-17,34,-17,29,19,-9,-24,-39,-48
34,0,-34,-17,34,-17,14,4,-9,-24,-39,-48
34,0,-34,-17,34,-17,-14,-39,-48,-58,-58,-68
19,-4,-24,-7,21,-14,-43,-82,-97,-82,-78,-78
19,-19,-39,0,29,-29,-53,-87,-102,-87,-78,-82
19,-34,-53,7,36,-43,-48,-78,-102,-87,-78,-87
24,-34,-58,4,41,-46,-48,-73,-102,-87,-87,-87
24,-43,-68,9,46,-56,-48,-73,-102,-92,-87,-92
24,-48,-73,12,48,-61,-48,-78,-117,-97,-97,-97
4,-53,-58,24,31,-56,-43,-82,-117,-102,-102,-102
-9,-53,-43,31,17,-48,-34,-87,-117,-102,-107,-102
-34,-53,-19,43,-7,-36,-19,-87,-107,-102,-107,-102
-53,-48,4,51,-29,-21,-9,-82,-107,-102,-107,-102
-78,-48,29,63,-53,-9,-4,-82,-107,-102,-107,-112
-87,-58,29,73,-58,-14,-4,-92,-122,-117,-122,-122
-87,-63,24,75,-56,-19,-4,-92,-126,-126,-131,-126
-87,-68,19,78,-53,-24,-4,-92,-126,-126,-131,-126
-92,-68,24,80,-58,-21,-4,-92,-126,-122,-126,-131
-92,-63,29,78,-61,-17,0,-92,-122,-122,-126,-131
-97,-63,34,80,-65,-14,0,-92,-122,-122,-126,-131
-102,-63,39,82,-70,-12,0,-97,-126,-122,-126,-136
-102,-63,39,82,-70,-12,0,-97,-122,-122,-131,-136
-102,-63,39,82,-70,-12,0,-97,-117,-122,-131,-136
-102,-63,39,82,-70,-12,0,-92,-112,-122,-131,-136
-102,-63,39,82,-70,-12,4,-92,-112,-122,-126,-131
-112,-63,48,87,-80,-7,9,-92,-107,-117,-126,-131
-122,-63,58,92,-90,-2,14,-92,-107,-117,-126,-131
-112,-63,48,87,-80,-7,14,-87,-107,-117,-122,-136
-102,-63,39,82,-70,-12,14,-87,-107,-117,-122,-136
-97,-63,34,80,-65,-14,14,-78,-102,-117,-122,-136
-87,-63,24,75,-56,-19,14,-73,-92,-117,-117,-136
-78,-73,4,75,-41,-34,9,-39,-68,-92,-107,-131
-68,-68,0,68,-34,-34,0,0,-29,-53,-87,-122
-4,-39,-34,21,14,-36,-34,24,43,19,-19,-92
107,9,-97,-58,102,-43,-63,126,204,185,126,0
302,87,-214,-195,258,-63,-141,165,385,400,326,126
551,209,-341,-380,446,-65,-253,126,541,644,566,287
761,336,-424,-549,592,-43,-419,-9,634,834,790,458
941,527,-414,-734,678,56,-605,-185,692,1029,1044,688
897,663,-234,-780,566,214,-800,-610,448,941,1058,775
639,605,-34,-622,336,285,-912,-1171,-175,341,570,517
302,448,146,-375,78,297,-936,-1590,-946,-488,-180,78
-9,370,380,-180,-195,375,-922,-1830,-1420,-971,-580,-170
-112,346,458,-117,-285,402,-917,-1805,-1561,-1117,-692,-239
-97,380,478,-141,-287,429,-873,-1639,-1376,-985,-614,-204
-112,361,473,-124,-292,417,-780,-1400,-1185,-863,-551,-200
-117,356,473,-119,-295,414,-624,-1068,-917,-673,-419,-156
-122,297,419,-87,-270,358,-483,-810,-688,-517,-346,-136
-107,234,341,-63,-224,287,-366,-600,-517,-400,-283,-136
-87,175,263,-43,-175,219,-273,-434,-385,-317,-234,-141
-82,117,200,-17,-141,158,-165,-287,-287,-244,-190,-136
-78,73,151,2,-114,112,-92,-180,-185,-170,-146,-122
-73,34,107,19,-90,70,-43,-102,-102,-102,-102,-107
-63,19,82,21,-73,51,-19,-53,-73,-78,-87,-102
-63,4,68,29,-65,36,0,-19,-63,-73,-82,-102
-63,-9,53,36,-58,21,14,4,-48,-63,-82,-107
-63,-9,53,36,-58,21,9,9,-24,-58,-73,-112
-63,-9,53,36,-58,21,9,14,-24,-48,-73,-112
-53,-9,43,31,-48,17,19,24,-24,-48,-63,-112
-53,-14,39,34,-46,12,29,39,-14,-48,-68,-102
-53,-14,39,34,-46,12,34,48,-9,-39,-68,-97
-53,-9,43,31,-48,17,39,53,0,-34,-63,-97
-48,-9,39,29,-43,14,39,63,0,-29,-58,-97
-48,-9,39,29,-43,14,39,68,4,-29,-58,-102
-48,-14,34,31,-41,9,43,73,14,-19,-53,-107
-48,-19,29,34,-39,4,53,78,29,-9,-48,-107
-48,-19,29,34,-39,4,58,87,39,0,-43,-102
-43,-19,24,31,-34,2,63,92,43,9,-34,-82
-43,-24,19,34,-31,-2,63,92,53,9,-34,-78
-39,-19,19,29,-29,0,58,97,58,9,-29,-78
-39,-9,29,24,-34,9,58,107,63,14,-29,-78
-29,-9,19,19,-24,4,58,107,68,19,-19,-73
-24,-9,14,17,-19,2,58,122,68,24,-19,-68
-19,-4,14,12,-17,4,58,126,78,24,-9,-63
-14,-4,9,9,-12,2,58,131,82,34,-9,-58
-14,-4,9,9,-12,2,63,136,92,39,4,-58
-9,4,14,2,-12,9,63,146,102,48,4,-58
-4,4,9,0,-7,7,58,156,112,58,14,-58
4,4,0,-4,2,2,53,161,126,68,19,-53
9,14,4,-12,2,9,58,180,136,87,34,-43
19,24,4,-21,7,14,58,200,156,97,39,-34
24,29,4,-26,9,17,58,209,165,107,48,-29
29,39,9,-34,9,24,58,219,175,117,53,-29
34,43,9,-39,12,26,58,229,180,122,58,-29
39,48,9,-43,14,29,63,244,190,131,68,-34
43,48,4,-46,19,26,68,253,214,151,78,-29
48,63,14,-56,17,39,73,273,229,161,87,-19
53,63,9,-58,21,36,73,297,244,175,102,-4
63,78,14,-70,24,46,73,312,268,200,126,9
78,87,9,-82,34,48,68,341,287,214,136,19
87,102,14,-95,36,58,73,361,312,234,156,39
102,117,14,-109,43,65,73,380,336,258,170,53
122,131,9,-126,56,70,73,400,361,273,195,63
136,141,4,-139,65,73,73,419,380,292,204,78
141,156,14,-148,63,85,73,439,405,307,219,87
151,170,19,-161,65,95,73,458,424,331,239,97
161,185,24,-173,68,104,78,478,444,356,258,107
175,200,24,-187,75,112,78,492,468,380,283,126
185,214,29,-200,78,122,78,512,488,400,302,141
195,234,39,-214,78,136,82,527,517,419,312,151
204,248,43,-226,80,146,82,536,536,439,336,161
214,263,48,-239,82,156,73,546,551,453,351,180
229,283,53,-256,87,168,68,551,561,463,356,185
239,297,58,-268,90,178,63,551,570,473,366,195
239,302,63,-270,87,183,63,551,580,478,370,204
239,312,73,-275,82,192,58,546,580,483,375,214
234,322,87,-278,73,204,48,531,580,483,380,219
239,331,92,-285,73,212,43,512,575,478,380,224
239,331,92,-285,73,212,39,483,556,468,375,224
234,326,92,-280,70,209,29,444,531,453,366,214
224,322,97,-273,63,209,19,405,502,429,356,200
204,297,92,-251,56,195,14,366,463,405,336,185
190,283,92,-236,48,187,14,322,419,366,312,161
180,258,78,-219,51,168,9,278,370,326,287,141
161,229,68,-195,46,148,9,229,331,292,258,122
136,214,78,-175,29,146,4,190,283,248,214,87
117,190,73,-153,21,131,0,146,234,195,165,53
97,151,53,-124,21,102,-4,112,195,165,136,29
73,117,43,-95,14,80,-4,87,161,136,112,4
48,97,48,-73,0,73,0,58,126,102,78,-9
29,78,48,-53,-9,63,0,34,92,63,39,-24
9,58,48,-34,-19,53,0,9,53,34,19,-53
-9,53,63,-21,-36,58,0,-4,34,4,-4,-73
-9,34,43,-12,-26,39,-4,-19,9,-9,-19,-82
-14,19,34,-2,-24,26,-9,-39,-14,-34,-39,-102
-24,9,34,7,-29,21,-9,-43,-19,-43,-48,-117
-34,-4,29,19,-31,12,-4,-53,-24,-43,-53,-117
-39,-9,29,24,-34,9,-4,-48,-34,-53,-53,-126
-39,-9,29,24,-34,9,-4,-48,-43,-58,-58,-131
-48,-9,39,29,-43,14,0,-48,-43,-58,-68,-146
-48,-19,29,34,-39,4,0,-48,-48,-63,-73,-146
-48,-19,29,34,-39,4,9,-48,-48,-73,-78,-151
-53,-24,29,39,-41,2,14,-48,-53,-78,-82,-156
-58,-24,34,41,-46,4,14,-48,-58,-78,-82,-156
-63,-24,39,43,-51,7,14,-48,-58,-78,-87,-156
-63,-24,39,43,-51,7,14,-48,-58,-78,-87,-156
-63,-24,39,43,-51,7,14,-48,-58,-78,-87,-151
-63,-29,34,46,-48,2,14,-48,-53,-78,-87,-151
-63,-34,29,48,-46,-2,14,-48,-53,-78,-87,-151
-58,-34,24,46,-41,-4,14,-53,-53,-78,-87,-156
-58,-34,24,46,-41,-4,9,-53,-53,-78,-92,-156
-58,-29,29,43,-43,0,9,-43,-53,-78,-92,-156
-58,-24,34,41,-46,4,9,-43,-58,-78,-92,-156
-58,-24,34,41,-46,4,9,-43,-58,-78,-97,-161
-58,-24,34,41,-46,4,9,-43,-58,-78,-97,-161
-58,-29,29,43,-43,0,14,-43,-58,-82,-97,-161
-63,-29,34,46,-48,2,19,-43,-58,-82,-97,-165
-63,-29,34,46,-48,2,24,-39,-58,-82,-102,-165
-68,-29,39,48,-53,4,29,-39,-58,-82,-102,-165
-68,-34,34,51,-51,0,29,-39,-53,-82,-102,-165
-63,-39,24,51,-43,-7,29,-39,-53,-82,-102,-165
-63,-39,24,51,-43,-7,24,-39,-53,-78,-97,-156
-63,-39,24,51,-43,-7,24,-39,-53,-73,-87,-146
-63,-34,29,48,-46,-2,19,-39,-53,-73,-87,-146
-63,-29,34,46,-48,2,14,-39,-53,-73,-87,-146
-53,-29,24,41,-39,-2,14,-39,-53,-73,-82,-146
-43,-29,14,36,-29,-7,14,-39,-53,-73,-78,-146
-53,-29,24,41,-39,-2,14,-39,-53,-73,-78,-146
-63,-34,29,48,-46,-2,14,-39,-58,-73,-78,-146
-63,-34,29,48,-46,-2,14,-43,-58,-82,-82,-151
-63,-34,29,48,-46,-2,14,-43,-53,-82,-82,-156
-68,-53,14,61,-41,-19,24,-43,-53,-82,-87,-156
-68,-68,0,68,-34,-34,34,-43,-48,-78,-87,-151
-63,-63,0,63,-31,-31,24,-43,-48,-78,-92,-151
-63,-53,9,58,-36,-21,14,-43,-53,-78,-97,-151
-58,-48,9,53,-34,-19,14,-43,-58,-82,-97,-151
-53,-39,14,46,-34,-12,14,-43,-58,-82,-102,-156
-53,-39,14,46,-34,-12,9,-48,-63,-87,-102,-161
-58,-39,19,48,-39,-9,9,-48,-68,-87,-102,-161
-58,-39,19,48,-39,-9,9,-48,-78,-92,-102,-165
-58,-39,19,48,-39,-9,9,-53,-78,-92,-102,-165
-63,-34,29,48,-46,-2,14,-53,-73,-92,-107,-170
-63,-29,34,46,-48,2,14,-53,-73,-97,-117,-175
-63,-29,34,46,-48,2,9,-63,-87,-112,-117,-180
-68,-29,39,48,-53,4,9,-73,-107,-126,-122,-180
-73,-43,29,58,-51,-7,9,-68,-97,-112,-117,-175
-78,-53,24,65,-51,-14,9,-58,-87,-102,-112,-170
-78,-58,19,68,-48,-19,9,-58,-82,-102,-102,-165
-73,-63,9,68,-41,-26,9,-58,-82,-102,-92,-161
-73,-63,9,68,-41,-26,9,-63,-87,-102,-97,-161
-73,-63,9,68,-41,-26,9,-63,-87,-102,-97,-161
-73,-63,9,68,-41,-26,9,-63,-87,-102,-102,-161
-73,-63,9,68,-41,-26,9,-68,-87,-102,-107,-161
-78,-53,24,65,-51,-14,9,-68,-97,-112,-112,-165
-78,-43,34,61,-56,-4,14,-63,-102,-117,-117,-175
-73,-48,24,61,-48,-12,14,-68,-102,-112,-117,-180
-73,-48,24,61,-48,-12,14,-73,-102,-112,-122,-185
-73,-48,24,61,-48,-12,9,-73,-102,-117,-122,-185
-73,-48,24,61,-48,-12,4,-73,-107,-117,-122,-180
-78,-43,34,61,-56,-4,4,-68,-107,-117,-122,-180
-73,-43,29,58,-51,-7,4,-68,-102,-117,-122,-180
-73,-43,29,58,-51,-7,0,-68,-102,-117,-117,-180
-68,-43,24,56,-46,-9,-4,-68,-102,-117,-117,-180
-68,-48,19,58,-43,-14,-4,-78,-117,-126,-131,-180
-68,-53,14,61,-41,-19,-4,-87,-126,-131,-141,-185
-68,-53,14,61,-41,-19,-4,-78,-112,-126,-131,-185
-68,-53,14,61,-41,-19,0,-68,-97,-126,-122,-185
-68,-53,14,61,-41,-19,0,-68,-97,-122,-117,-185
-73,-53,19,63,-46,-17,0,-68,-102,-117,-112,-185
-73,-53,19,63,-46,-17,9,-68,-102,-117,-112,-185
-73,-53,19,63,-46,-17,14,-68,-102,-122,-112,-190
-78,-53,24,65,-51,-14,14,-73,-102,-122,-112,-190
-78,-53,24,65,-51,-14,14,-73,-97,-122,-112,-180
-78,-53,24,65,-51,-14,9,-73,-102,-122,-117,-180
-78,-53,24,65,-51,-14,4,-73,-107,-122,-122,-180
-78,-53,24,65,-51,-14,0,-78,-107,-126,-122,-185
-78,-53,24,65,-51,-14,-4,-78,-107,-131,-126,-190
-78,-53,24,65,-51,-14,-4,-78,-107,-131,-126,-190
-78,-53,24,65,-51,-14,-4,-78,-107,-126,-126,-190
-82,-53,29,68,-56,-12,-4,-68,-112,-126,-126,-195
-78,-53,24,65,-51,-14,-4,-58,-112,-126,-126,-190
-68,-39,29,53,-48,-4,4,-53,-102,-112,-117,-185
-63,-29,34,46,-48,2,19,-53,-92,-102,-112,-180
-53,-24,29,39,-41,2,29,-39,-73,-92,-97,-170
-48,-19,29,34,-39,4,39,-29,-58,-87,-87,-165
-48,-19,29,34,-39,4,48,-24,-53,-78,-82,-161
-48,-19,29,34,-39,4,58,-19,-48,-68,-78,-156
-48,-14,34,31,-41,9,63,-19,-48,-68,-78,-156
-39,-14,24,26,-31,4,63,-9,-43,-63,-68,-151
-29,-14,14,21,-21,0,68,0,-39,-58,-63,-146
-4,-9,-4,7,0,-7,63,9,-29,-48,-58,-136
9,-9,-19,0,14,-14,53,24,-19,-39,-53,-126
19,-9,-29,-4,24,-19,53,34,-14,-34,-48,-126
19,-9,-29,-4,24,-19,48,43,-4,-29,-43,-126
24,0,-24,-12,24,-12,39,48,0,-24,-39,-107
34,0,-34,-17,34,-17,24,34,0,-24,-34,-107
43,0,-43,-21,43,-21,-4,-9,-39,-58,-48,-126
24,-4,-29,-9,26,-17,-43,-68,-97,-92,-78,-146
19,-19,-39,0,29,-29,-63,-87,-112,-107,-87,-161
19,-39,-58,9,39,-48,-53,-78,-112,-107,-87,-165
24,-43,-68,9,46,-56,-48,-73,-112,-107,-97,-165
19,-53,-73,17,46,-63,-48,-73,-112,-117,-107,-175
14,-58,-73,21,43,-65,-48,-78,-126,-126,-126,-185
4,-63,-68,29,36,-65,-48,-78,-131,-131,-126,-190
0,-63,-63,31,31,-63,-43,-78,-136,-131,-126,-190
-24,-58,-34,41,4,-46,-24,-78,-126,-131,-122,-185
-43,-48,-4,46,-19,-26,-9,-73,-126,-131,-117,-180
-68,-48,19,58,-43,-14,0,-68,-122,-126,-117,-185
-78,-58,19,68,-48,-19,4,-73,-131,-136,-131,-190
-78,-63,14,70,-46,-24,0,-73,-136,-146,-141,-195
-78,-68,9,73,-43,-29,-4,-73,-136,-146,-141,-195
-82,-73,9,78,-46,-31,-4,-73,-136,-141,-136,-209
-82,-73,9,78,-46,-31,0,-73,-131,-141,-136,-219
-87,-73,14,80,-51,-29,0,-73,-131,-146,-141,-219
-92,-73,19,82,-56,-26,0,-78,-136,-151,-146,-224
-92,-73,19,82,-56,-26,0,-78,-136,-151,-151,-224
-92,-73,19,82,-56,-26,0,-78,-136,-151,-151,-224
-92,-73,19,82,-56,-26,0,-73,-131,-151,-151,-224
-92,-73,19,82,-56,-26,4,-73,-131,-151,-146,-219
-92,-73,19,82,-56,-26,4,-73,-126,-146,-146,-214
-92,-73,19,82,-56,-26,4,-73,-126,-146,-146,-209
-97,-73,24,85,-61,-24,4,-68,-126,-141,-136,-209
-102,-73,29,87,-65,-21,4,-68,-126,-136,-131,-204
-102,-68,34,85,-68,-17,4,-63,-126,-136,-131,-204
-97,-63,34,80,-65,-14,4,-63,-122,-136,-126,-204
-97,-78,19,87,-58,-29,9,-48,-122,-141,-131,-209
-97,-78,19,87,-58,-29,9,-29,-107,-131,-126,-209
-92,-82,9,87,-51,-36,-9,-39,-97,-131,-141,-229
-39,-68,-29,53,-4,-48,-24,29,0,-39,-78,-185
73,-39,-112,-17,92,-75,-53,151,204,165,102,-82
239,34,-204,-136,222,-85,-117,195,385,400,322,53
497,141,-356,-319,427,-107,-229,151,561,688,634,268
727,312,-414,-519,570,-51,-361,68,702,980,976,541
883,634,-248,-758,566,192,-590,-165,844,1366,1459,961
824,761,-63,-793,444,348,-736,-536,605,1239,1439,1034
419,570,151,-495,134,361,-780,-1156,-448,58,331,380
39,458,419,-248,-190,439,-785,-1595,-1205,-775,-424,-82
-151,419,570,-134,-361,495,-819,-1742,-1581,-1132,-683,-239
-224,439,663,-107,-444,551,-814,-1747,-1629,-1210,-751,-292
-224,414,639,-95,-431,527,-785,-1590,-1498,-1127,-727,-307
-214,405,619,-95,-417,512,-692,-1342,-1288,-976,-634,-283
-204,351,556,-73,-380,453,-561,-1034,-990,-766,-517,-248
-175,292,468,-58,-322,380,-453,-775,-751,-595,-409,-234
-131,234,366,-51,-248,300,-366,-585,-585,-473,-336,-229
-102,175,278,-36,-190,226,-263,-414,-453,-361,-268,-214
-87,126,214,-19,-151,170,-175,-273,-312,-263,-204,-195
-73,82,156,-4,-114,119,-112,-161,-190,-170,-141,-175
-63,48,112,7,-87,80,-63,-87,-131,-126,-112,-165
-63,14,78,24,-70,46,-19,-29,-92,-102,-92,-161
-63,-9,53,36,-58,21,9,0,-73,-87,-92,-161
-63,-19,43,41,-53,12,19,9,-43,-78,-82,-161
-63,-9,53,36,-58,21,9,14,-43,-68,-82,-156
-53,0,53,26,-53,26,9,24,-43,-68,-73,-151
-48,-4,43,26,-46,19,19,39,-34,-63,-73,-146
-43,-4,39,24,-41,17,24,48,-29,-48,-68,-146
-43,0,43,21,-43,21,24,48,-19,-48,-63,-146
-39,0,39,19,-39,19,19,53,-19,-48,-58,-146
-39,-4,34,21,-36,14,19,58,-14,-48,-58,-146
-39,-14,24,26,-31,4,24,63,-4,-39,-53,-146
-39,-14,24,26,-31,4,29,68,4,-34,-48,-151
-39,-9,29,24,-34,9,29,78,9,-29,-43,-151
-34,-4,29,19,-31,12,34,82,14,-19,-34,-136
-34,-4,29,19,-31,12,34,82,24,-19,-34,-136
-29,0,29,14,-29,14,34,87,29,-14,-29,-136
-29,9,39,9,-34,24,39,97,34,-4,-29,-136
-24,9,34,7,-29,21,39,97,43,4,-14,-126
-24,9,34,7,-29,21,39,112,48,14,-9,-117
-19,14,34,2,-26,24,34,117,53,14,0,-107
-14,14,29,0,-21,21,29,122,53,24,0,-97
-19,14,34,2,-26,24,34,126,63,24,9,-92
-19,24,43,-2,-31,34,34,136,73,29,4,-87
-14,24,39,-4,-26,31,34,146,82,39,14,-92
-4,24,29,-9,-17,26,34,151,97,48,19,-92
0,29,29,-14,-14,29,39,161,102,63,34,-82
9,34,24,-21,-7,29,39,170,117,68,39,-73
14,39,24,-26,-4,31,39,180,126,82,53,-63
19,48,29,-34,-4,39,39,190,136,97,63,-58
24,53,29,-39,-2,41,39,200,146,107,73,-48
29,58,29,-43,0,43,43,214,161,122,87,-43
39,63,24,-51,7,43,43,224,185,141,97,-29
48,82,34,-65,7,58,43,244,200,151,107,-9
53,82,29,-68,12,56,43,258,209,161,112,0
63,97,34,-80,14,65,43,263,229,180,126,9
73,102,29,-87,21,65,39,287,248,190,136,19
78,112,34,-95,21,73,43,302,273,204,156,39
87,131,43,-109,21,87,43,322,297,229,170,53
102,151,48,-126,26,100,43,341,322,244,195,63
117,161,43,-139,36,102,43,361,341,268,209,82
122,175,53,-148,34,114,43,380,366,287,229,97
131,190,58,-161,36,124,43,400,390,317,253,122
141,204,63,-173,39,134,48,419,414,346,278,146
156,219,63,-187,46,141,48,434,444,375,302,165
165,234,68,-200,48,151,48,453,468,400,322,180
175,253,78,-214,48,165,53,468,497,419,331,195
185,268,82,-226,51,175,53,478,517,439,356,209
190,283,92,-236,48,187,48,488,531,453,380,239
200,302,102,-251,48,202,48,492,541,463,395,253
214,322,107,-268,53,214,43,492,551,478,409,263
219,331,112,-275,53,222,43,492,561,488,419,273
224,341,117,-283,53,229,39,492,566,502,424,283
224,351,126,-287,48,239,29,483,570,512,429,287
229,361,131,-295,48,246,29,473,570,507,429,292
229,361,131,-295,48,246,29,453,556,497,424,292
224,361,136,-292,43,248,19,424,536,488,414,287
214,361,146,-287,34,253,9,395,512,468,405,278
200,351,151,-275,24,251,0,361,478,444,385,273
190,351,161,-270,14,256,-4,322,439,405,361,258
180,331,151,-256,14,241,-14,283,390,366,336,239
161,307,146,-234,7,226,-19,239,351,331,307,219
136,292,156,-214,-9,224,-24,200,297,283,263,185
117,268,151,-192,-17,209,-29,156,244,224,214,151
92,234,141,-163,-24,187,-29,122,204,190,180,122
63,204,141,-134,-39,173,-24,97,170,156,151,92
48,185,136,-117,-43,161,-19,73,131,122,117,68
39,165,126,-102,-43,146,-19,53,92,82,78,43
24,136,112,-80,-43,124,-19,29,53,53,53,19
9,122,112,-65,-51,117,-19,14,34,24,24,4
4,102,97,-53,-46,100,-19,0,9,9,9,-4
-4,87,92,-41,-48,90,-19,-19,-14,-14,-9,-24
-19,78,97,-29,-58,87,-19,-24,-34,-39,-34,-48
-34,63,97,-14,-65,80,-14,-34,-53,-53,-53,-58
-39,53,92,-7,-65,73,-14,-34,-63,-68,-58,-68
-39,48,87,-4,-63,68,-14,-39,-73,-78,-68,-73
-48,48,97,0,-73,73,-9,-43,-78,-82,-78,-92
-48,39,87,4,-68,63,-9,-48,-87,-92,-82,-97
-48,39,87,4,-68,63,-4,-48,-87,-102,-87,-102
-53,34,87,9,-70,61,-4,-48,-92,-107,-92,-107
-58,34,92,12,-75,63,-4,-48,-97,-107,-92,-97
-63,34,97,14,-80,65,-4,-48,-97,-107,-97,-87
-63,39,102,12,-82,70,-4,-48,-97,-102,-92,-92
-63,43,107,9,-85,75,-4,-48,-97,-97,-87,-92
-63,43,107,9,-85,75,-4,-48,-92,-97,-87,-92
-63,43,107,9,-85,75,-4,-48,-92,-97,-87,-92
-58,43,102,7,-80,73,-4,-53,-92,-97,-87,-97
-58,43,102,7,-80,73,-9,-53,-92,-97,-92,-97
-53,43,97,4,-75,70,-9,-43,-92,-97,-92,-97
-48,43,92,2,-70,68,-9,-43,-97,-97,-92,-97
-48,43,92,2,-70,68,-9,-43,-97,-102,-102,-107
-48,43,92,2,-70,68,-9,-43,-97,-107,-107,-112
-48,39,87,4,-68,63,-9,-43,-97,-112,-107,-112
-53,39,92,7,-73,65,-9,-43,-97,-112,-107,-117
-53,43,97,4,-75,70,-9,-43,-102,-112,-112,-117
-58,48,107,4,-82,78,-9,-48,-107,-112,-112,-117
-58,48,107,4,-82,78,-9,-48,-102,-112,-112,-117
-53,48,102,2,-78,75,-9,-48,-102,-112,-112,-117
-53,48,102,2,-78,75,-9,-48,-102,-112,-117,-117
-53,48,102,2,-78,75,-4,-48,-102,-112,-117,-117
-53,48,102,2,-78,75,-4,-48,-102,-112,-117,-117
-53,48,102,2,-78,75,-4,-48,-102,-112,-117,-117
-58,48,107,4,-82,78,-4,-48,-102,-112,-117,-117
-63,48,112,7,-87,80,-4,-48,-102,-112,-117,-117
-63,48,112,7,-87,80,-4,-48,-102,-112,-117,-117
-63,43,107,9,-85,75,-4,-48,-107,-112,-117,-117
-63,48,112,7,-87,80,-4,-53,-112,-122,-122,-122
-63,53,117,4,-90,85,-4,-53,-112,-122,-122,-126
-63,48,112,7,-87,80,-4,-53,-112,-122,-126,-126
-58,48,107,4,-82,78,-4,-53,-107,-117,-126,-122
-53,39,92,7,-73,65,-4,-53,-102,-112,-122,-122
-53,34,87,9,-70,61,-4,-53,-102,-107,-117,-122
-53,34,87,9,-70,61,-4,-53,-107,-112,-117,-117
-53,39,92,7,-73,65,-4,-53,-107,-112,-122,-117
-53,39,92,7,-73,65,-9,-58,-112,-117,-126,-122
-58,39,97,9,-78,68,-9,-58,-117,-117,-131,-122
-63,39,102,12,-82,70,-9,-63,-126,-131,-136,-126
-68,39,107,14,-87,73,-9,-73,-126,-141,-141,-126
-73,39,112,17,-92,75,-9,-73,-122,-136,-141,-126
-73,39,112,17,-92,75,-14,-73,-122,-136,-146,-126
-63,43,107,9,-85,75,-19,-73,-126,-136,-141,-131
-58,48,107,4,-82,78,-19,-73,-136,-136,-141,-131
-63,43,107,9,-85,75,-19,-78,-136,-136,-141,-131
-68,43,112,12,-90,78,-19,-78,-136,-141,-141,-131
-73,48,122,12,-97,85,-19,-78,-136,-146,-141,-131
-73,53,126,9,-100,90,-19,-78,-141,-151,-141,-131
-73,53,126,9,-100,90,-19,-82,-146,-151,-146,-141
-73,53,126,9,-100,90,-19,-82,-146,-151,-146,-151
-73,43,117,14,-95,80,-19,-82,-141,-151,-146,-141
-73,34,107,19,-90,70,-19,-87,-136,-151,-146,-131
-78,43,122,17,-100,82,-14,-87,-141,-156,-146,-131
-78,53,131,12,-104,92,-4,-82,-141,-156,-146,-136
-73,48,122,12,-97,85,-14,-82,-141,-151,-146,-141
-73,48,122,12,-97,85,-24,-82,-141,-151,-151,-146
-68,48,117,9,-92,82,-24,-82,-141,-156,-151,-146
-63,48,112,7,-87,80,-24,-82,-146,-156,-151,-141
-73,53,126,9,-100,90,-24,-87,-151,-156,-156,-141
-73,53,126,9,-100,90,-24,-97,-151,-156,-161,-141
-73,58,131,7,-102,95,-24,-97,-151,-156,-156,-141
-68,63,131,2,-100,97,-24,-97,-151,-156,-156,-141
-68,63,131,2,-100,97,-24,-97,-156,-161,-161,-141
-68,63,131,2,-100,97,-24,-97,-156,-161,-161,-146
-68,63,131,2,-100,97,-29,-97,-156,-161,-161,-146
-68,63,131,2,-100,97,-29,-97,-156,-165,-161,-146
-73,63,136,4,-104,100,-29,-97,-156,-165,-161,-146
-82,63,146,9,-114,104,-29,-97,-161,-165,-161,-146
-82,63,146,9,-114,104,-24,-97,-161,-165,-161,-146
-82,63,146,9,-114,104,-24,-97,-161,-170,-161,-151
-82,63,146,9,-114,104,-24,-97,-161,-170,-161,-151
-78,63,141,7,-109,102,-24,-92,-156,-170,-161,-141
-73,63,136,4,-104,100,-24,-92,-156,-170,-161,-141
-68,63,131,2,-100,97,-24,-92,-156,-170,-161,-141
-68,63,131,2,-100,97,-24,-97,-156,-170,-156,-146
-68,63,131,2,-100,97,-24,-97,-156,-170,-156,-151
-68,63,131,2,-100,97,-24,-97,-156,-170,-156,-151
-68,63,131,2,-100,97,-24,-97,-156,-165,-156,-151
-78,63,141,7,-109,102,-24,-97,-161,-165,-161,-156
-82,63,146,9,-114,104,-24,-97,-161,-165,-165,-156
-78,68,146,4,-112,107,-29,-97,-165,-170,-170,-151
-78,73,151,2,-114,112,-34,-97,-165,-170,-170,-151
-78,73,151,2,-114,112,-34,-97,-165,-170,-170,-151
-78,73,151,2,-114,112,-29,-102,-161,-175,-170,-151
-78,73,151,2,-114,112,-29,-102,-161,-175,-170,-151
-78,73,151,2,-114,112,-29,-102,-165,-175,-170,-151
-78,73,151,2,-114,112,-29,-107,-165,-170,-170,-156
-73,78,151,-2,-112,114,-34,-102,-156,-170,-170,-156
-63,87,151,-12,-107,119,-24,-92,-146,-161,-161,-146
-58,102,161,-21,-109,131,-14,-87,-141,-156,-151,-136
-53,107,161,-26,-107,134,0,-78,-126,-151,-136,-126
-48,117,165,-34,-107,141,9,-68,-117,-146,-126,-117
-48,117,165,-34,-107,141,14,-63,-107,-131,-122,-117
-48,117,165,-34,-107,141,19,-58,-97,-117,-117,-117
-43,117,161,-36,-102,139,24,-58,-97,-117,-117,-117
-29,112,141,-41,-85,126,24,-48,-92,-112,-107,-112
-19,112,131,-46,-75,122,29,-39,-87,-107,-102,-107
4,117,112,-61,-53,114,24,-29,-78,-97,-97,-97
19,117,97,-68,-39,107,14,-19,-68,-87,-92,-87
29,117,87,-73,-29,102,14,-14,-63,-82,-87,-87
29,122,92,-75,-31,107,4,-4,-58,-78,-82,-87
34,136,102,-85,-34,119,-9,0,-58,-73,-78,-68
34,136,102,-85,-34,119,-24,-14,-58,-73,-78,-63
34,136,102,-85,-34,119,-53,-58,-97,-107,-97,-78
14,131,117,-73,-51,124,-87,-107,-151,-141,-126,-92
9,117,107,-63,-48,112,-102,-117,-161,-156,-136,-102
14,102,87,-58,-36,95,-92,-107,-161,-156,-136,-112
24,102,78,-63,-26,90,-87,-102,-161,-156,-146,-117
24,92,68,-58,-21,80,-82,-107,-165,-165,-151,-122
24,87,63,-56,-19,75,-78,-117,-185,-175,-165,-126
14,82,68,-48,-26,75,-78,-117,-185,-180,-165,-131
9,82,73,-46,-31,78,-73,-117,-185,-180,-165,-131
-14,82,97,-34,-56,90,-58,-112,-170,-175,-161,-131
-34,87,122,-26,-78,104,-48,-102,-165,-170,-156,-131
-58,87,146,-14,-102,117,-43,-102,-165,-170,-161,-141
-68,78,146,-4,-107,112,-43,-112,-180,-185,-180,-151
-68,73,141,-2,-104,107,-43,-117,-185,-195,-190,-156
-68,68,136,0,-102,102,-43,-122,-185,-195,-190,-156
-73,68,141,2,-107,104,-43,-122,-185,-190,-190,-161
-73,73,146,0,-109,109,-39,-122,-180,-190,-195,-161
-82,73,156,4,-119,114,-39,-122,-180,-190,-195,-156
-92,73,165,9,-129,119,-39,-126,-185,-190,-195,-156
-92,73,165,9,-129,119,-39,-126,-185,-190,-190,-151
-92,73,165,9,-129,119,-39,-126,-185,-190,-180,-146
-92,73,165,9,-129,119,-39,-122,-180,-190,-180,-146
-92,73,165,9,-129,119,-34,-122,-180,-190,-175,-141
-87,78,165,4,-126,122,-34,-122,-180,-185,-185,-141
-82,82,165,0,-124,124,-34,-122,-185,-185,-195,-141
-82,82,165,0,-124,124,-34,-117,-185,-185,-190,-146
-82,82,165,0,-124,124,-34,-117,-185,-185,-190,-146
-82,82,165,0,-124,124,-34,-112,-180,-185,-190,-146
-78,82,161,-2,-119,122,-34,-112,-170,-185,-185,-146
-78,68,146,4,-112,107,-34,-97,-156,-180,-185,-151
-78,68,146,4,-112,107,-39,-78,-126,-161,-175,-151
-58,73,131,-7,-95,102,-58,-63,-78,-107,-131,-136
9,97,87,-53,-39,92,-73,29,58,39,-9,-58
136,161,24,-148,56,92,-112,107,278,283,214,87
317,268,-48,-292,183,109,-185,107,473,556,478,268
527,395,-131,-461,329,131,-317,43,619,849,805,502
707,585,-122,-646,414,231,-468,-58,732,1146,1161,795
790,839,48,-814,370,444,-683,-366,663,1288,1415,1058
658,897,239,-778,209,568,-814,-810,214,917,1166,976
307,683,375,-495,-34,529,-858,-1327,-795,-248,82,326
-19,546,566,-263,-292,556,-863,-1664,-1507,-1068,-649,-131
-156,517,673,-180,-414,595,-883,-1732,-1751,-1298,-819,-239
-175,546,722,-185,-448,634,-863,-1659,-1668,-1249,-800,-244
-175,527,702,-175,-439,614,-805,-1468,-1468,-1117,-736,-239
-165,522,688,-178,-427,605,-683,-1185,-1190,-917,-605,-195
-151,463,614,-156,-383,539,-546,-912,-912,-717,-497,-161
-117,400,517,-141,-317,458,-434,-688,-692,-556,-400,-146
-92,341,434,-124,-263,387,-346,-522,-546,-458,-341,-141
-82,283,366,-100,-224,324,-244,-375,-434,-370,-287,-126
-73,239,312,-82,-192,275,-170,-258,-307,-278,-234,-112
-63,200,263,-68,-163,231,-122,-170,-200,-190,-180,-97
-53,170,224,-58,-139,197,-82,-112,-151,-156,-156,-87
-53,141,195,-43,-124,168,-48,-68,-122,-141,-141,-82
-53,126,180,-36,-117,153,-29,-43,-107,-126,-141,-87
-53,126,180,-36,-117,153,-29,-39,-82,-117,-131,-92
-58,126,185,-34,-122,156,-24,-29,-78,-102,-122,-92
-53,126,180,-36,-117,153,-9,-14,-73,-97,-102,-92
-53,117,170,-31,-112,143,0,0,-58,-92,-102,-87
-53,112,165,-29,-109,139,4,9,-48,-78,-97,-87
-53,117,170,-31,-112,143,4,4,-39,-73,-97,-92
-48,117,165,-34,-107,141,0,4,-39,-68,-97,-97
-48,122,170,-36,-109,146,-4,9,-34,-68,-97,-97
-48,122,170,-36,-109,146,-4,14,-24,-58,-92,-97
-48,122,170,-36,-109,146,0,19,-14,-53,-82,-92
-48,126,175,-39,-112,151,0,29,-9,-48,-73,-82
-39,126,165,-43,-102,146,9,34,-4,-39,-63,-68
-34,122,156,-43,-95,139,14,34,4,-39,-63,-68
-29,122,151,-46,-90,136,14,39,9,-34,-58,-68
-29,126,156,-48,-92,141,19,48,14,-24,-58,-68
-24,126,151,-51,-87,139,19,48,24,-14,-48,-63
-24,126,151,-51,-87,139,19,63,29,-4,-48,-58
-19,131,151,-56,-85,141,19,73,43,-4,-39,-53
-14,131,146,-58,-80,139,19,82,53,4,-39,-48
-14,131,146,-58,-80,139,19,87,63,9,-24,-43
-9,141,151,-65,-80,146,14,97,73,19,-24,-39
-4,141,146,-68,-75,143,14,107,82,29,-14,-39
4,141,136,-73,-65,139,14,112,97,39,-9,-34
0,146,146,-73,-73,146,24,122,102,53,4,-24
0,151,151,-75,-75,151,29,131,117,58,9,-14
4,156,151,-80,-73,153,29,141,126,68,19,-9
9,165,156,-87,-73,161,29,151,136,78,24,-9
19,165,146,-92,-63,156,29,161,146,87,39,0
29,165,136,-97,-53,151,34,175,161,102,58,4
34,165,131,-100,-48,148,34,185,185,122,68,9
39,180,141,-109,-51,161,34,204,200,131,78,19
43,180,136,-112,-46,158,34,224,214,146,87,29
53,195,141,-124,-43,168,34,234,239,170,107,39
68,204,136,-136,-34,170,34,258,263,190,122,48
78,219,141,-148,-31,180,43,273,292,214,146,68
87,229,141,-158,-26,185,43,292,317,239,161,82
102,239,136,-170,-17,187,43,312,341,253,185,92
112,248,136,-180,-12,192,48,336,361,278,200,112
112,263,151,-187,-19,207,53,361,385,297,219,126
122,278,156,-200,-17,217,53,380,414,322,239,146
131,292,161,-212,-14,226,58,400,444,346,258,165
146,307,161,-226,-7,234,53,405,468,375,283,185
156,322,165,-239,-4,244,48,414,488,400,302,200
165,341,175,-253,-4,258,53,429,517,419,317,214
175,356,180,-265,-2,268,53,439,536,439,346,229
175,361,185,-268,-4,273,48,448,551,453,361,248
180,370,190,-275,-4,280,48,453,561,463,366,253
190,395,204,-292,-7,300,43,453,570,478,375,263
190,409,219,-300,-14,314,43,453,580,488,380,273
195,419,224,-307,-14,322,43,448,580,492,385,283
195,429,234,-312,-19,331,39,434,580,492,390,287
200,439,239,-319,-19,339,34,419,575,488,395,292
200,439,239,-319,-19,339,29,395,556,478,395,292
195,439,244,-317,-24,341,19,366,536,468,385,292
185,439,253,-312,-34,346,9,336,512,448,375,287
175,419,244,-297,-34,331,0,297,468,419,351,278
170,409,239,-290,-34,324,-4,253,419,375,322,258
161,390,229,-275,-34,309,-14,214,370,336,297,239
141,366,224,-253,-41,295,-19,170,331,302,268,219
122,351,229,-236,-53,290,-24,141,278,258,229,190
107,326,219,-217,-56,273,-29,107,224,204,185,161
87,292,204,-190,-58,248,-34,73,185,170,156,136
63,263,200,-163,-68,231,-34,48,151,136,131,112
48,239,190,-143,-70,214,-29,24,107,97,97,87
39,214,175,-126,-68,195,-29,4,63,53,58,63
19,180,161,-100,-70,170,-29,-19,24,24,29,29
0,161,161,-80,-80,161,-29,-34,4,-4,-4,4
-4,141,146,-68,-75,143,-29,-43,-19,-19,-19,-4
-14,126,141,-56,-78,134,-29,-58,-43,-43,-39,-24
-24,122,146,-48,-85,134,-29,-63,-58,-63,-58,-43
-34,112,146,-39,-90,129,-24,-73,-73,-73,-73,-48
-39,102,141,-31,-90,122,-29,-73,-82,-87,-78,-53
-39,97,136,-29,-87,117,-34,-78,-92,-97,-87,-53
-43,92,136,-24,-90,114,-29,-78,-92,-92,-92,-68
-39,78,117,-19,-78,97,-29,-78,-97,-92,-92,-68
-39,73,112,-17,-75,92,-24,-78,-92,-97,-92,-73
-43,63,107,-9,-75,85,-24,-78,-92,-97,-92,-78
-48,63,112,-7,-80,87,-19,-78,-97,-97,-92,-78
-53,63,117,-4,-85,90,-14,-78,-97,-97,-97,-78
-53,63,117,-4,-85,90,-14,-78,-97,-102,-97,-82
-53,63,117,-4,-85,90,-14,-78,-97,-107,-97,-82
-53,63,117,-4,-85,90,-14,-73,-92,-107,-97,-82
-53,63,117,-4,-85,90,-14,-68,-92,-107,-97,-82
-48,58,107,-4,-78,82,-9,-73,-92,-107,-97,-82
-48,53,102,-2,-75,78,-9,-73,-92,-107,-102,-78
-48,53,102,-2,-75,78,-9,-63,-92,-107,-102,-78
-48,53,102,-2,-75,78,-9,-63,-97,-107,-102,-78
-48,53,102,-2,-75,78,-9,-63,-97,-107,-107,-82
-48,53,102,-2,-75,78,-9,-63,-97,-107,-107,-82
-48,53,102,-2,-75,78,-9,-63,-97,-112,-107,-78
-53,58,112,-2,-82,85,-9,-63,-97,-112,-107,-78
-53,58,112,-2,-82,85,-9,-58,-97,-112,-112,-78
-58,58,117,0,-87,87,-9,-58,-97,-112,-112,-78
-58,48,107,4,-82,78,-4,-58,-92,-107,-112,-73
-53,39,92,7,-73,65,0,-58,-92,-102,-112,-68
-53,39,92,7,-73,65,0,-58,-92,-102,-112,-68
-53,39,92,7,-73,65,4,-58,-92,-102,-107,-68
-53,39,92,7,-73,65,4,-53,-87,-102,-107,-68
-53,39,92,7,-73,65,4,-48,-82,-102,-107,-68
-53,34,87,9,-70,61,4,-48,-82,-102,-107,-68
-53,29,82,12,-68,56,4,-48,-82,-102,-107,-68
-53,29,82,12,-68,56,4,-48,-82,-97,-107,-63
-53,24,78,14,-65,51,4,-48,-87,-92,-107,-58
-53,24,78,14,-65,51,4,-53,-97,-102,-112,-58
-53,24,78,14,-65,51,4,-53,-102,-102,-112,-58
-58,19,78,19,-68,48,4,-53,-102,-107,-117,-58
-58,19,78,19,-68,48,4,-53,-97,-107,-117,-53
-53,14,68,19,-61,41,4,-53,-97,-107,-117,-58
-53,14,68,19,-61,41,4,-53,-102,-107,-117,-63
-53,9,63,21,-58,36,4,-53,-102,-112,-117,-63
-53,9,63,21,-58,36,4,-53,-97,-112,-122,-68
-53,4,58,24,-56,31,0,-58,-97,-117,-122,-68
-58,0,58,29,-58,29,0,-58,-97,-117,-122,-63
-58,0,58,29,-58,29,0,-58,-107,-122,-117,-68
-58,0,58,29,-58,29,0,-63,-107,-122,-112,-68
-63,-4,58,34,-61,26,4,-63,-102,-117,-112,-73
-63,-9,53,36,-58,21,4,-63,-102,-117,-117,-78
-58,-9,48,34,-53,19,0,-63,-107,-117,-117,-82
-58,-9,48,34,-53,19,0,-63,-117,-117,-122,-82
-63,-14,48,39,-56,17,0,-68,-117,-117,-122,-82
-68,-14,53,41,-61,19,0,-68,-117,-122,-122,-82
-68,-14,53,41,-61,19,0,-68,-112,-122,-122,-87
-63,-14,48,39,-56,17,0,-68,-112,-122,-122,-92
-63,-14,48,39,-56,17,0,-68,-117,-122,-126,-92
-63,-14,48,39,-56,17,0,-63,-117,-122,-126,-92
-63,-14,48,39,-56,17,0,-63,-117,-126,-126,-92
-63,-14,48,39,-56,17,0,-68,-117,-131,-126,-92
-63,-14,48,39,-56,17,-4,-68,-122,-136,-126,-92
-58,-14,43,36,-51,14,-4,-63,-122,-136,-126,-97
-53,-19,34,36,-43,7,0,-63,-117,-126,-122,-92
-53,-19,34,36,-43,7,4,-63,-112,-122,-122,-87
-58,-24,34,41,-46,4,4,-63,-112,-126,-122,-82
-63,-29,34,46,-48,2,4,-63,-117,-126,-122,-73
-73,-24,48,48,-61,12,4,-63,-117,-122,-122,-73
-73,-24,48,48,-61,12,4,-68,-112,-117,-122,-73
-73,-24,48,48,-61,12,4,-68,-112,-117,-117,-73
-68,-24,43,46,-56,9,4,-68,-112,-117,-117,-73
-68,-29,39,48,-53,4,4,-68,-117,-126,-122,-73
-68,-34,34,51,-51,0,4,-68,-117,-131,-122,-78
-68,-34,34,51,-51,0,4,-68,-117,-126,-122,-82
-68,-34,34,51,-51,0,9,-68,-117,-126,-122,-87
-68,-34,34,51,-51,0,9,-68,-117,-126,-122,-87
-73,-34,39,53,-56,2,9,-68,-122,-126,-122,-87
-73,-34,39,53,-56,2,9,-63,-122,-122,-122,-87
-73,-34,39,53,-56,2,4,-58,-122,-122,-122,-92
-73,-39,34,56,-53,-2,4,-63,-122,-122,-122,-92
-68,-43,24,56,-46,-9,4,-63,-117,-122,-122,-82
-68,-43,24,56,-46,-9,9,-63,-117,-122,-117,-78
-68,-43,24,56,-46,-9,14,-63,-117,-122,-112,-73
-68,-48,19,58,-43,-14,14,-63,-117,-122,-112,-73
-68,-53,14,61,-41,-19,14,-58,-117,-122,-117,-73
-68,-53,14,61,-41,-19,14,-63,-117,-122,-117,-73
-68,-53,14,61,-41,-19,14,-68,-117,-117,-117,-73
-73,-53,19,63,-46,-17,14,-68,-122,-117,-117,-82
-73,-53,19,63,-46,-17,14,-68,-122,-117,-117,-87
-68,-58,9,63,-39,-24,14,-68,-122,-122,-117,-82
-68,-63,4,65,-36,-29,14,-68,-117,-122,-112,-82
-68,-68,0,68,-34,-34,14,-58,-117,-117,-112,-78
-68,-73,-4,70,-31,-39,19,-53,-112,-117,-112,-73
-68,-73,-4,70,-31,-39,19,-53,-112,-117,-112,-73
-68,-73,-4,70,-31,-39,19,-53,-117,-117,-112,-73
-68,-78,-9,73,-29,-43,24,-58,-117,-117,-112,-78
-68,-78,-9,73,-29,-43,24,-53,-112,-122,-112,-78
-63,-78,-14,70,-24,-46,19,-58,-112,-126,-117,-78
-63,-73,-9,68,-26,-41,14,-63,-107,-126,-117,-78
-68,-73,-4,70,-31,-39,19,-53,-112,-122,-117,-68
-68,-73,-4,70,-31,-39,19,-48,-112,-112,-107,-58
-63,-73,-9,68,-26,-41,24,-43,-97,-102,-102,-58
-58,-78,-19,68,-19,-48,29,-39,-87,-97,-97,-58
-58,-78,-19,68,-19,-48,29,-39,-87,-97,-97,-58
-58,-78,-19,68,-19,-48,29,-39,-87,-97,-97,-58
-48,-63,-14,56,-17,-39,39,-29,-73,-87,-82,-48
-39,-48,-9,43,-14,-29,48,-19,-58,-78,-68,-39
-34,-48,-14,41,-9,-31,58,-9,-53,-68,-63,-34
-29,-48,-19,39,-4,-34,68,0,-48,-58,-58,-29
-24,-53,-29,39,2,-41,68,0,-39,-58,-58,-29
-14,-58,-43,36,14,-51,68,9,-29,-48,-48,-19
-4,-63,-58,34,26,-61,73,19,-19,-39,-39,-14
14,-58,-73,21,43,-65,73,29,-9,-19,-29,0
29,-63,-92,17,61,-78,63,43,0,-9,-24,9
39,-68,-107,14,73,-87,63,53,4,-4,-19,9
39,-73,-112,17,75,-92,58,58,9,-4,-14,0
43,-68,-112,12,78,-90,48,58,9,-4,-9,9
43,-68,-112,12,78,-90,34,39,4,-9,-14,4
43,-68,-112,12,78,-90,4,-9,-39,-48,-39,-19
24,-78,-102,26,63,-90,-24,-58,-92,-82,-68,-34
19,-97,-117,39,68,-107,-34,-68,-102,-97,-78,-43
19,-112,-131,46,75,-122,-24,-58,-102,-92,-68,-34
24,-112,-136,43,80,-124,-19,-53,-102,-87,-68,-19
24,-122,-146,48,85,-134,-19,-48,-97,-87,-68,-24
24,-126,-151,51,87,-139,-19,-48,-107,-87,-78,-29
14,-131,-146,58,80,-139,-19,-43,-102,-92,-78,-34
9,-131,-141,61,75,-136,-14,-39,-97,-92,-78,-34
-14,-131,-117,73,51,-124,4,-39,-87,-92,-78,-29
-34,-126,-92,80,29,-109,19,-34,-87,-92,-78,-24
-58,-131,-73,95,7,-102,29,-34,-87,-92,-82,-34
-68,-146,-78,107,4,-112,34,-43,-102,-107,-102,-43
-68,-161,-92,114,12,-126,34,-43,-107,-117,-112,-48
-68,-175,-107,122,19,-141,34,-43,-107,-117,-112,-48
-73,-175,-102,124,14,-139,34,-43,-107,-112,-107,-53
-73,-170,-97,122,12,-134,39,-43,-102,-112,-107,-53
-78,-165,-87,122,4,-126,39,-43,-102,-112,-107,-58
-82,-161,-78,122,-2,-119,39,-48,-107,-112,-107,-68
-82,-161,-78,122,-2,-119,39,-48,-107,-112,-112,-68
-82,-161,-78,122,-2,-119,39,-48,-107,-112,-112,-68
-78,-165,-87,122,4,-126,39,-39,-102,-107,-107,-63
-73,-170,-97,122,12,-134,43,-34,-102,-102,-97,-53
-73,-170,-97,122,12,-134,43,-34,-97,-97,-97,-53
-73,-170,-97,122,12,-134,43,-34,-97,-97,-97,-53
-73,-170,-97,122,12,-134,43,-29,-97,-97,-92,-53
-73,-170,-97,122,12,-134,43,-29,-97,-97,-92,-48
-73,-175,-102,124,14,-139,43,-24,-97,-97,-92,-48
-68,-180,-112,124,21,-146,43,-24,-92,-97,-87,-48
-63,-195,-131,129,34,-163,43,-9,-73,-87,-87,-48
-58,-195,-136,126,39,-165,39,9,-39,-63,-78,-43
-24,-185,-161,104,68,-173,19,34,43,24,-9,-9
58,-156,-214,48,136,-185,4,136,214,204,136,87
180,-87,-268,-46,224,-178,-39,204,429,458,390,248
356,24,-331,-190,344,-153,-117,195,619,741,683,444
561,161,-400,-361,480,-119,-248,112,732,1010,985,678
736,361,-375,-549,556,-7,-400,-9,810,1283,1317,971
766,551,-214,-658,490,168,-610,-351,614,1249,1405,1117
580,546,-34,-563,307,256,-736,-829,39,702,990,917
258,356,97,-307,80,226,-780,-1288,-873,-346,9,322
-39,244,283,-102,-161,263,-785,-1566,-1488,-1049,-619,-82
-156,219,375,-31,-265,297,-785,-1600,-1659,-1224,-741,-170
-156,253,409,-48,-283,331,-746,-1493,-1503,-1122,-673,-156
-156,229,385,-36,-270,307,-688,-1302,-1307,-985,-610,-146
-146,219,366,-36,-256,292,-566,-1019,-1034,-780,-478,-97
-136,161,297,-12,-217,229,-429,-756,-761,-585,-370,-63
-107,97,204,4,-156,151,-317,-541,-546,-429,-273,-48
-82,39,122,21,-102,80,-229,-385,-405,-331,-219,-43
-73,-19,53,46,-63,17,-126,-248,-297,-244,-170,-29
-63,-63,0,63,-31,-31,-53,-136,-175,-156,-117,-14
-53,-102,-48,78,-2,-75,-4,-53,-73,-73,-63,0
-43,-126,-82,85,19,-104,24,0,-34,-43,-39,14
-43,-151,-107,97,31,-129,48,39,-14,-34,-24,24
-43,-165,-122,104,39,-143,68,63,0,-19,-24,24
-43,-165,-122,104,39,-143,68,68,24,-9,-14,24
-43,-170,-126,107,41,-148,68,73,29,4,-14,24
-34,-175,-141,104,53,-158,78,82,34,9,-4,24
-34,-185,-151,109,58,-168,87,97,48,14,-4,29
-34,-190,-156,112,61,-173,92,107,58,29,0,29
-34,-185,-151,109,58,-168,97,107,68,34,9,34
-29,-185,-156,107,63,-170,97,112,68,39,19,39
-29,-185,-156,107,63,-170,97,117,73,39,19,39
-29,-190,-161,109,65,-175,102,122,82,48,24,39
-29,-190,-161,109,65,-175,107,126,92,53,29,43
-29,-185,-156,107,63,-170,107,136,97,58,34,53
-24,-185,-161,104,68,-173,112,141,102,68,43,68
-24,-190,-165,107,70,-178,112,141,112,68,43,68
-19,-190,-170,104,75,-180,112,146,117,73,48,68
-19,-185,-165,102,73,-175,117,156,122,82,48,68
-19,-185,-165,102,73,-175,117,156,131,87,58,73
-24,-185,-161,104,68,-173,117,170,136,92,58,78
-19,-180,-161,100,70,-170,117,175,146,92,68,87
-14,-180,-165,97,75,-173,117,180,151,102,68,97
-14,-190,-175,102,80,-183,122,185,165,107,82,102
-9,-190,-180,100,85,-185,122,195,180,117,82,107
-4,-190,-185,97,90,-187,122,204,190,131,92,112
4,-190,-195,92,100,-192,122,209,204,146,97,122
4,-185,-190,90,97,-187,126,219,209,161,117,131
9,-180,-190,85,100,-185,126,229,224,165,126,141
14,-175,-190,80,102,-183,126,244,234,175,136,141
19,-165,-185,73,102,-175,126,258,244,185,141,136
24,-161,-185,68,104,-173,126,268,253,200,151,146
29,-156,-185,63,107,-170,131,283,268,219,165,151
34,-156,-190,61,112,-173,131,292,297,239,175,161
39,-141,-180,51,109,-161,131,312,317,248,185,175
48,-141,-190,46,119,-165,131,331,331,263,200,185
63,-126,-190,31,126,-158,131,341,356,287,224,195
78,-122,-200,21,139,-161,131,366,375,302,234,204
87,-112,-200,12,143,-156,141,380,400,322,253,224
92,-102,-195,4,143,-148,151,400,424,346,263,239
102,-92,-195,-4,148,-143,161,419,448,361,283,248
112,-82,-195,-14,153,-139,161,444,473,385,297,263
112,-68,-180,-21,146,-124,161,468,502,405,317,273
122,-58,-180,-31,151,-119,161,488,527,434,346,287
131,-48,-180,-41,156,-114,165,507,551,463,375,302
146,-34,-180,-56,163,-107,161,512,575,488,400,322
156,-19,-175,-68,165,-97,156,522,595,507,419,336
165,4,-161,-85,163,-78,161,536,624,527,429,351
175,24,-151,-100,163,-63,161,546,644,546,453,366
180,39,-141,-109,161,-51,156,551,658,561,468,385
190,58,-131,-124,161,-36,156,551,668,570,473,390
195,73,-122,-134,158,-24,156,551,678,585,488,400
190,78,-112,-134,151,-17,161,551,688,595,497,409
195,82,-112,-139,153,-14,156,546,688,600,497,419
195,87,-107,-141,151,-9,146,531,688,600,497,424
204,97,-107,-151,156,-4,141,517,678,590,497,429
209,97,-112,-153,161,-7,136,492,653,575,492,429
204,97,-107,-151,156,-4,126,463,634,566,483,429
195,97,-97,-146,146,0,117,434,610,546,473,424
180,82,-97,-131,139,-7,102,400,570,517,453,414
170,78,-92,-124,131,-7,92,361,527,473,429,395
161,58,-102,-109,131,-21,82,322,473,434,400,375
141,34,-107,-87,124,-36,78,278,429,400,366,356
122,19,-102,-70,112,-41,73,244,375,356,326,322
107,-4,-112,-51,109,-58,68,204,322,302,283,287
92,-39,-131,-26,112,-85,63,170,283,268,253,263
73,-68,-141,-2,107,-104,63,146,248,234,229,239
58,-92,-151,17,104,-122,68,126,209,204,195,219
48,-117,-165,34,107,-141,68,112,170,170,156,200
29,-146,-175,58,102,-161,68,87,131,141,131,165
9,-161,-170,75,90,-165,68,73,112,112,102,141
0,-180,-180,90,90,-180,73,63,87,92,87,126
-14,-195,-180,104,82,-187,78,48,63,63,68,102
-24,-204,-180,114,78,-192,78,43,48,43,48,82
-34,-219,-185,126,75,-202,82,34,34,34,34,78
-34,-229,-195,131,80,-212,78,34,24,24,34,73
-29,-234,-204,131,87,-219,73,29,14,19,29,73
-39,-229,-190,134,75,-209,78,29,14,19,19,58
-39,-234,-195,136,78,-214,78,29,9,14,14,58
-39,-234,-195,136,78,-214,82,29,9,4,9,53
-43,-239,-195,141,75,-217,82,29,4,0,4,48
-43,-239,-195,141,75,-217,82,29,-4,0,4,43
-43,-239,-195,141,75,-217,82,29,-9,0,0,39
-43,-239,-195,141,75,-217,82,29,-9,-4,0,34
-43,-239,-195,141,75,-217,82,29,-9,-9,0,34
-43,-239,-195,141,75,-217,82,29,-4,-9,0,34
-43,-239,-195,141,75,-217,82,29,-4,-9,0,34
-39,-239,-200,139,80,-219,87,24,-4,-9,0,29
-39,-239,-200,139,80,-219,87,24,-4,-9,-4,29
-39,-239,-200,139,80,-219,87,34,-4,-9,-4,29
-39,-239,-200,139,80,-219,87,34,-9,-9,-4,29
-43,-239,-195,141,75,-217,87,34,-4,-9,-9,24
-48,-239,-190,143,70,-214,87,34,0,-9,-9,24
-48,-244,-195,146,73,-219,87,34,0,-14,-9,24
-53,-244,-190,148,68,-217,87,34,0,-14,-9,19
-48,-244,-195,146,73,-219,87,39,-4,-14,-9,14
-48,-244,-195,146,73,-219,87,39,-9,-14,-4,9
-48,-244,-195,146,73,-219,87,39,-4,-14,-4,9
-43,-244,-200,143,78,-222,87,39,-4,-14,-4,9
-48,-244,-195,146,73,-219,87,39,-4,-14,-9,9
-53,-244,-190,148,68,-217,92,39,-4,-14,-9,9
-53,-244,-190,148,68,-217,87,39,-4,-14,-9,4
-53,-244,-190,148,68,-217,82,39,-4,-14,-9,0
-48,-244,-195,146,73,-219,82,39,-4,-14,-9,0
-43,-244,-200,143,78,-222,82,39,-4,-14,-9,0
-43,-244,-200,143,78,-222,87,39,0,-14,-9,4
-43,-248,-204,146,80,-226,92,39,0,-14,-9,9
-43,-248,-204,146,80,-226,92,34,-4,-24,-14,4
-43,-248,-204,146,80,-226,92,34,-4,-24,-14,0
-48,-253,-204,151,78,-229,87,34,-4,-24,-19,0
-48,-253,-204,151,78,-229,82,34,0,-19,-19,4
-43,-258,-214,151,85,-236,82,34,0,-19,-19,4
-43,-258,-214,151,85,-236,82,34,-4,-19,-19,4
-48,-258,-209,153,80,-234,87,34,-9,-24,-19,9
-53,-253,-200,153,73,-226,92,34,-9,-24,-24,9
-53,-253,-200,153,73,-226,87,29,-14,-29,-29,4
-58,-253,-195,156,68,-224,87,29,-19,-29,-34,4
-53,-258,-204,156,75,-231,82,29,-29,-34,-34,0
-48,-263,-214,156,82,-239,78,24,-29,-34,-34,0
-53,-263,-209,158,78,-236,82,24,-24,-29,-29,0
-53,-263,-209,158,78,-236,82,24,-24,-29,-29,0
-48,-258,-209,153,80,-234,78,24,-29,-34,-29,-4
-48,-253,-204,151,78,-229,78,24,-39,-39,-34,-4
-53,-258,-204,156,75,-231,78,19,-39,-39,-34,-4
-58,-258,-200,158,70,-229,78,19,-39,-43,-34,-4
-63,-258,-195,161,65,-226,78,19,-34,-48,-34,-4
-63,-258,-195,161,65,-226,78,19,-34,-53,-34,-4
-63,-258,-195,161,65,-226,78,14,-39,-53,-39,-9
-63,-258,-195,161,65,-226,78,14,-39,-53,-39,-14
-63,-258,-195,161,65,-226,78,14,-39,-53,-43,-14
-63,-258,-195,161,65,-226,78,9,-39,-53,-48,-14
-63,-253,-190,158,63,-222,73,9,-43,-53,-48,-14
-58,-248,-190,153,65,-219,73,14,-43,-48,-48,-19
-53,-253,-200,153,73,-226,73,14,-43,-43,-48,-19
-53,-253,-200,153,73,-226,73,14,-43,-43,-53,-19
-53,-253,-200,153,73,-226,73,14,-43,-48,-53,-19
-53,-253,-200,153,73,-226,73,14,-48,-48,-53,-14
-63,-248,-185,156,61,-217,73,14,-48,-48,-53,-14
-63,-248,-185,156,61,-217,73,9,-43,-48,-53,-14
-63,-253,-190,158,63,-222,73,9,-43,-48,-48,-14
-58,-258,-200,158,70,-229,73,9,-43,-48,-48,-14
-58,-258,-200,158,70,-229,73,9,-48,-53,-53,-14
-58,-258,-200,158,70,-229,73,9,-48,-53,-53,-19
-58,-258,-200,158,70,-229,73,4,-48,-48,-53,-19
-58,-258,-200,158,70,-229,78,0,-48,-48,-53,-19
-58,-258,-200,158,70,-229,78,0,-48,-53,-53,-19
-63,-258,-195,161,65,-226,78,0,-53,-58,-53,-19
-63,-258,-195,161,65,-226,78,0,-53,-58,-53,-14
-63,-258,-195,161,65,-226,73,0,-53,-63,-53,-14
-68,-258,-190,163,61,-224,73,0,-53,-63,-53,-14
-68,-258,-190,163,61,-224,73,4,-48,-63,-53,-4
-68,-253,-185,161,58,-219,73,4,-48,-63,-53,-4
-68,-248,-180,158,56,-214,73,4,-48,-63,-53,-4
-68,-248,-180,158,56,-214,73,0,-48,-63,-48,-4
-68,-248,-180,158,56,-214,73,0,-48,-63,-48,-4
-63,-248,-185,156,61,-217,73,0,-48,-63,-48,-4
-58,-248,-190,153,65,-219,73,0,-48,-58,-48,-4
-63,-248,-185,156,61,-217,73,0,-53,-58,-53,-9
-63,-248,-185,156,61,-217,73,0,-53,-58,-58,-9
-63,-253,-190,158,63,-222,73,0,-58,-63,-58,-9
-68,-258,-190,163,61,-224,73,0,-58,-63,-53,-14
-68,-258,-190,163,61,-224,73,0,-58,-58,-53,-14
-68,-258,-190,163,61,-224,78,-4,-53,-58,-53,-14
-68,-258,-190,163,61,-224,73,-4,-53,-58,-53,-14
-68,-258,-190,163,61,-224,68,-4,-58,-58,-53,-14
-68,-258,-190,163,61,-224,68,-4,-58,-58,-53,-19
-68,-253,-185,161,58,-219,63,4,-53,-63,-53,-19
-63,-258,-195,161,65,-226,63,0,-58,-63,-58,-19
-63,-258,-195,161,65,-226,63,-4,-58,-58,-58,-19
-73,-258,-185,165,56,-222,68,4,-58,-58,-58,-19
-78,-258,-180,168,51,-219,68,9,-53,-53,-48,-19
-68,-248,-180,158,56,-214,68,9,-48,-53,-53,-19
-58,-244,-185,151,63,-214,68,9,-48,-58,-58,-19
-58,-244,-185,151,63,-214,68,9,-48,-58,-58,-19
-58,-244,-185,151,63,-214,68,9,-48,-58,-58,-19
-58,-244,-185,151,63,-214,68,9,-48,-58,-58,-19
-58,-244,-185,151,63,-214,68,9,-48,-58,-58,-19
-58,-239,-180,148,61,-209,73,9,-48,-58,-53,-19
-58,-234,-175,146,58,-204,78,9,-48,-58,-48,-19
-53,-234,-180,143,63,-207,82,14,-43,-48,-43,-14
-48,-234,-185,141,68,-209,87,19,-39,-39,-39,-9
-48,-219,-170,134,61,-195,92,29,-29,-34,-34,0
-48,-204,-156,126,53,-180,97,39,-19,-29,-29,9
-48,-204,-156,126,53,-180,107,43,-4,-19,-24,14
-48,-204,-156,126,53,-180,117,48,9,-9,-19,19
-39,-204,-165,122,63,-185,117,48,9,-4,-14,19
-24,-204,-180,114,78,-192,117,58,14,0,0,24
-9,-209,-200,109,95,-204,117,68,19,9,9,29
14,-204,-219,95,117,-212,112,78,29,19,19,39
29,-204,-234,87,131,-219,102,87,39,29,24,48
39,-204,-244,82,141,-224,102,92,43,34,29,48
39,-204,-244,82,141,-224,97,97,48,34,34,43
43,-195,-239,75,141,-217,87,97,48,34,39,58
43,-195,-239,75,141,-217,73,82,43,34,34,58
43,-195,-239,75,141,-217,43,39,0,0,9,39
19,-200,-219,90,119,-209,14,-9,-53,-34,-19,19
9,-214,-224,102,117,-219,4,-19,-63,-48,-29,4
9,-229,-239,109,124,-234,14,-9,-58,-48,-29,0
14,-229,-244,107,129,-236,19,-4,-53,-48,-39,0
19,-234,-253,107,136,-244,19,-4,-53,-53,-39,-4
24,-234,-258,104,141,-246,19,-9,-68,-58,-48,-9
14,-239,-253,112,134,-246,19,-9,-68,-63,-48,-14
9,-239,-248,114,129,-244,24,-9,-68,-63,-48,-14
-14,-239,-224,126,104,-231,39,-9,-58,-63,-48,-14
-34,-234,-200,134,82,-217,48,-4,-58,-63,-48,-14
-58,-234,-175,146,58,-204,58,-4,-58,-63,-53,-24
-68,-244,-175,156,53,-209,63,-14,-73,-78,-73,-34
-68,-248,-180,158,56,-214,63,-14,-78,-87,-82,-43
-68,-253,-185,161,58,-219,63,-14,-78,-87,-82,-48
-73,-253,-180,163,53,-217,58,-14,-78,-82,-78,-53
-73,-248,-175,161,51,-212,58,-14,-73,-82,-78,-53
-78,-248,-170,163,46,-209,58,-14,-73,-82,-78,-48
-82,-248,-165,165,41,-207,58,-19,-78,-82,-78,-48
-82,-248,-165,165,41,-207,58,-19,-78,-82,-82,-48
-82,-248,-165,165,41,-207,58,-19,-78,-82,-82,-48
-82,-248,-165,165,41,-207,63,-14,-73,-82,-82,-48
-82,-248,-165,165,41,-207,73,-14,-73,-82,-78,-43
-82,-248,-165,165,41,-207,73,-14,-68,-78,-78,-48
-82,-248,-165,165,41,-207,73,-14,-68,-78,-78,-53
-82,-244,-161,163,39,-202,73,-9,-73,-78,-73,-53
-82,-239,-156,161,36,-197,73,-9,-78,-78,-73,-48
-82,-239,-156,161,36,-197,73,-4,-78,-78,-78,-48
-78,-239,-161,158,41,-200,73,-4,-73,-78,-78,-48
-73,-253,-180,163,53,-217,73,9,-58,-68,-78,-53
-68,-253,-185,161,58,-219,68,29,-29,-43,-68,-53
-48,-244,-195,146,73,-219,48,53,39,14,-14,-39
19,-214,-234,97,126,-224,34,156,195,165,117,39
151,-146,-297,-2,224,-222,-4,234,414,434,366,204
336,-34,-370,-151,353,-202,-78,234,610,732,653,405
531,92,-439,-312,485,-173,-209,165,746,1005,966,629
697,283,-414,-490,556,-65,-361,58,849,1283,1307,912
766,502,-263,-634,514,119,-575,-258,707,1337,1473,1122
619,527,-92,-573,356,217,-707,-712,185,878,1137,985
283,336,53,-309,114,195,-756,-1215,-785,-244,97,361
-29,224,253,-97,-141,239,-766,-1537,-1459,-1019,-590,-73
-151,195,346,-21,-248,270,-780,-1595,-1668,-1224,-736,-161
-156,224,380,-34,-268,302,-756,-1512,-1551,-1151,-692,-146
-161,209,370,-24,-265,290,-697,-1327,-1346,-1005,-624,-141
-156,209,366,-26,-261,287,-575,-1049,-1063,-790,-488,-97
-146,156,302,-4,-224,229,-439,-780,-790,-595,-380,-63
-117,97,214,9,-165,156,-326,-561,-575,-439,-283,-48
-92,39,131,26,-112,85,-239,-405,-429,-341,-229,-53
-82,-19,63,51,-73,21,-136,-268,-317,-253,-180,-48
-73,-63,9,68,-41,-26,-63,-151,-195,-165,-126,-34
-63,-102,-39,82,-12,-70,-14,-63,-92,-82,-73,-19
-53,-126,-73,90,9,-100,19,-9,-43,-43,-39,-4
-53,-151,-97,102,21,-124,48,29,-14,-24,-14,4
-53,-165,-112,109,29,-139,63,53,0,-9,-14,4
-53,-165,-112,109,29,-139,58,58,24,0,-4,4
-53,-165,-112,109,29,-139,58,63,24,9,-4,9
-43,-165,-122,104,39,-143,68,73,24,9,4,14
-43,-175,-131,109,43,-153,78,87,39,14,4,19
-43,-180,-136,112,46,-158,82,97,48,29,9,19
-43,-175,-131,109,43,-153,87,97,63,34,14,19
-39,-175,-136,107,48,-156,87,102,68,39,19,19
-39,-175,-136,107,48,-156,87,107,73,39,19,24
-39,-180,-141,109,51,-161,92,112,82,48,24,29
-39,-180,-141,109,51,-161,97,117,92,53,24,29
-39,-175,-136,107,48,-156,97,126,97,58,24,34
-34,-170,-136,102,51,-153,102,131,97,68,34,48
-34,-170,-136,102,51,-153,102,131,102,68,34,48
-29,-170,-141,100,56,-156,97,136,107,68,39,48
-29,-165,-136,97,53,-151,97,146,112,73,39,48
-24,-165,-141,95,58,-153,97,146,122,78,48,53
-24,-165,-141,95,58,-153,97,161,126,82,48,58
-19,-156,-136,87,58,-146,102,165,141,92,63,63
-14,-151,-136,82,61,-143,107,170,151,112,68,68
-9,-151,-141,80,65,-146,112,175,161,117,82,73
0,-141,-141,70,70,-141,112,185,170,126,82,78
4,-141,-146,68,75,-143,112,195,180,131,92,78
14,-141,-156,63,85,-148,112,200,195,136,97,82
9,-136,-146,63,78,-141,117,209,200,151,112,92
9,-131,-141,61,75,-136,117,219,214,156,117,102
14,-126,-141,56,78,-134,117,224,224,165,126,107
19,-117,-136,48,78,-126,117,229,234,175,131,107
24,-112,-136,43,80,-124,117,239,244,185,141,117
29,-107,-136,39,82,-122,122,253,258,200,156,122
34,-107,-141,36,87,-124,122,263,283,219,165,131
39,-92,-131,26,85,-112,122,283,297,229,175,146
43,-92,-136,24,90,-114,122,302,312,244,185,156
53,-78,-131,12,92,-104,122,312,336,268,204,165
68,-68,-136,0,102,-102,122,336,356,283,214,170
78,-53,-131,-12,104,-92,131,351,380,302,234,185
82,-43,-126,-19,104,-85,131,366,405,326,248,200
92,-34,-126,-29,109,-80,131,380,429,341,273,209
102,-19,-122,-41,112,-70,131,400,453,370,287,229
102,0,-102,-51,102,-51,131,419,483,395,307,244
112,14,-97,-63,104,-41,131,439,507,419,326,258
122,29,-92,-75,107,-31,136,458,531,444,346,273
136,43,-92,-90,114,-24,136,468,556,468,370,287
146,58,-87,-102,117,-14,136,483,575,488,390,297
156,78,-78,-117,117,0,141,497,605,507,400,312
165,92,-73,-129,119,9,141,507,624,527,424,326
170,107,-63,-139,117,21,136,517,639,536,439,346
180,126,-53,-153,117,36,136,522,649,541,444,351
190,141,-48,-165,119,46,131,522,653,556,453,361
190,146,-43,-168,117,51,131,522,658,566,458,370
195,156,-39,-175,117,58,126,517,658,575,463,380
195,165,-29,-180,112,68,117,502,658,580,468,385
200,180,-19,-190,109,80,112,488,658,575,473,390
200,185,-14,-192,107,85,107,463,644,566,473,390
195,185,-9,-190,102,87,97,434,624,551,463,390
185,185,0,-185,92,92,87,405,600,527,453,385
180,170,-9,-175,95,80,73,370,556,502,434,375
180,165,-14,-173,97,75,63,331,507,463,409,356
170,146,-24,-158,97,61,53,292,458,424,385,336
151,122,-29,-136,90,46,48,248,419,390,356,317
131,107,-24,-119,78,41,43,219,366,346,317,287
117,82,-34,-100,75,24,39,185,312,292,273,258
102,48,-53,-75,78,-2,34,151,273,258,244,234
82,19,-63,-51,73,-21,34,126,239,224,219,209
68,0,-68,-34,68,-34,39,102,200,190,185,190
58,-19,-78,-19,68,-48,39,82,161,151,146,170
34,-48,-82,7,58,-65,39,58,117,117,122,136
9,-63,-73,26,41,-68,39,43,92,82,92,112
4,-82,-87,39,46,-85,39,34,63,63,73,102
-4,-97,-92,51,43,-95,39,19,34,34,48,82
-14,-107,-92,61,39,-100,39,14,19,14,29,58
-24,-122,-97,73,36,-109,43,4,4,4,14,48
-29,-131,-102,80,36,-117,43,4,-4,-4,9,39
-29,-136,-107,82,39,-122,43,0,-14,-9,0,34
-39,-131,-92,85,26,-112,43,-4,-14,-14,-9,19
-39,-136,-97,87,29,-117,39,-9,-19,-24,-14,19
-34,-136,-102,85,34,-119,43,-9,-19,-29,-19,19
-34,-141,-107,87,36,-124,43,-9,-24,-29,-24,19
-39,-141,-102,90,31,-122,48,-9,-29,-29,-24,19
-43,-141,-97,92,26,-119,53,-9,-29,-29,-29,19
-48,-146,-97,97,24,-122,53,-4,-29,-29,-29,14
-53,-151,-97,102,21,-124,53,0,-29,-29,-29,14
-53,-151,-97,102,21,-124,53,0,-24,-29,-29,14
-53,-151,-97,102,21,-124,53,0,-24,-29,-29,14
-48,-151,-102,100,26,-126,58,-4,-24,-29,-29,4
-48,-151,-102,100,26,-126,58,-4,-24,-29,-34,0
-48,-151,-102,100,26,-126,58,4,-24,-29,-34,0
-48,-151,-102,100,26,-126,58,4,-29,-29,-34,0
-48,-146,-97,97,24,-122,58,4,-29,-29,-39,-4
-48,-141,-92,95,21,-117,58,4,-29,-29,-39,-4
-48,-146,-97,97,24,-122,58,4,-29,-34,-39,-4
-53,-146,-92,100,19,-119,58,4,-29,-34,-39,-9
-53,-146,-92,100,19,-119,58,9,-29,-34,-43,-9
-58,-146,-87,102,14,-117,58,9,-29,-34,-43,-9
-58,-146,-87,102,14,-117,58,9,-24,-34,-43,-9
-53,-146,-92,100,19,-119,58,9,-24,-34,-43,-9
-53,-146,-92,100,19,-119,53,9,-34,-39,-48,-14
-53,-146,-92,100,19,-119,53,9,-43,-43,-48,-19
-53,-146,-92,100,19,-119,53,9,-43,-43,-48,-19
-53,-146,-92,100,19,-119,53,9,-43,-43,-48,-19
-53,-146,-92,100,19,-119,53,9,-34,-43,-48,-19
-53,-146,-92,100,19,-119,53,9,-24,-43,-48,-19
-53,-146,-92,100,19,-119,53,9,-24,-43,-43,-14
-53,-151,-97,102,21,-124,53,9,-29,-43,-39,-9
-48,-151,-102,100,26,-126,53,4,-34,-53,-43,-14
-43,-151,-107,97,31,-129,53,4,-34,-53,-43,-19
-48,-151,-102,100,26,-126,53,4,-34,-53,-48,-19
-48,-146,-97,97,24,-122,53,4,-29,-48,-48,-14
-48,-151,-102,100,26,-126,53,4,-29,-48,-48,-14
-53,-151,-97,102,21,-124,53,4,-34,-48,-48,-14
-53,-151,-97,102,21,-124,53,4,-39,-53,-53,-19
-53,-146,-92,100,19,-119,53,4,-39,-53,-63,-29
-53,-151,-97,102,21,-124,48,0,-39,-58,-63,-34
-58,-156,-97,107,19,-126,48,0,-39,-58,-63,-34
-58,-156,-97,107,19,-126,48,0,-48,-63,-63,-39
-58,-156,-97,107,19,-126,48,-4,-48,-63,-63,-39
-63,-156,-92,109,14,-124,53,-9,-48,-58,-63,-39
-63,-156,-92,109,14,-124,53,-14,-53,-58,-68,-39
-58,-156,-97,107,19,-126,48,-14,-58,-63,-63,-43
-58,-156,-97,107,19,-126,48,-14,-68,-68,-63,-43
-58,-161,-102,109,21,-131,48,-19,-68,-68,-63,-43
-58,-161,-102,109,21,-131,48,-19,-68,-73,-63,-43
-58,-161,-102,109,21,-131,43,-19,-63,-73,-63,-43
-53,-161,-107,107,26,-134,39,-19,-63,-73,-63,-43
-53,-161,-107,107,26,-134,39,-19,-68,-73,-68,-43
-53,-161,-107,107,26,-134,39,-14,-68,-73,-68,-43
-53,-161,-107,107,26,-134,39,-14,-68,-73,-68,-39
-53,-161,-107,107,26,-134,39,-19,-68,-73,-68,-34
-58,-161,-102,109,21,-131,34,-19,-73,-78,-68,-34
-58,-161,-102,109,21,-131,34,-14,-73,-78,-68,-39
-58,-161,-102,109,21,-131,34,-14,-73,-73,-68,-39
-63,-156,-92,109,14,-124,34,-14,-73,-73,-73,-39
-63,-156,-92,109,14,-124,34,-14,-73,-78,-73,-39
-63,-156,-92,109,14,-124,34,-14,-78,-78,-73,-34
-73,-151,-78,112,2,-114,34,-19,-78,-78,-73,-34
-73,-151,-78,112,2,-114,34,-29,-73,-78,-73,-34
-68,-151,-82,109,7,-117,34,-29,-73,-78,-68,-39
-58,-151,-92,104,17,-122,34,-29,-73,-78,-68,-43
-58,-151,-92,104,17,-122,34,-29,-73,-82,-73,-43
-58,-151,-92,104,17,-122,34,-29,-68,-82,-73,-48
-63,-151,-87,107,12,-119,34,-29,-68,-82,-73,-48
-68,-151,-82,109,7,-117,39,-29,-68,-87,-73,-48
-68,-151,-82,109,7,-117,39,-29,-68,-87,-73,-48
-73,-151,-78,112,2,-114,39,-29,-73,-87,-73,-48
-73,-151,-78,112,2,-114,39,-29,-78,-87,-78,-48
-73,-151,-78,112,2,-114,34,-29,-82,-92,-82,-53
-73,-151,-78,112,2,-114,34,-29,-82,-87,-82,-58
-68,-151,-82,109,7,-117,34,-24,-78,-82,-82,-53
-68,-151,-82,109,7,-117,34,-24,-78,-82,-82,-53
-68,-151,-82,109,7,-117,34,-24,-78,-82,-82,-53
-68,-151,-82,109,7,-117,34,-24,-78,-82,-78,-53
-68,-151,-82,109,7,-117,34,-19,-78,-82,-78,-53
-63,-151,-87,107,12,-119,34,-19,-78,-87,-78,-48
-58,-151,-92,104,17,-122,34,-19,-78,-87,-78,-43
-63,-146,-82,104,9,-114,34,-19,-82,-87,-78,-48
-63,-141,-78,102,7,-109,34,-19,-82,-87,-78,-48
-63,-141,-78,102,7,-109,34,-19,-82,-92,-82,-48
-68,-141,-73,104,2,-107,34,-19,-78,-92,-82,-53
-68,-141,-73,104,2,-107,29,-19,-78,-87,-82,-53
-68,-141,-73,104,2,-107,29,-24,-73,-87,-82,-53
-68,-141,-73,104,2,-107,29,-24,-73,-87,-82,-53
-68,-141,-73,104,2,-107,29,-24,-78,-87,-82,-53
-68,-141,-73,104,2,-107,34,-29,-82,-82,-82,-58
-68,-136,-68,102,0,-102,34,-24,-82,-82,-82,-58
-63,-136,-73,100,4,-104,34,-29,-82,-92,-87,-63
-63,-131,-68,97,2,-100,34,-34,-78,-97,-87,-68
-63,-131,-68,97,2,-100,34,-29,-82,-97,-92,-58
-58,-131,-73,95,7,-102,29,-29,-82,-92,-87,-48
-58,-131,-73,95,7,-102,29,-29,-82,-87,-82,-48
-58,-136,-78,97,9,-107,29,-29,-87,-87,-78,-48
-58,-136,-78,97,9,-107,29,-29,-87,-92,-82,-53
-58,-136,-78,97,9,-107,29,-29,-87,-97,-87,-58
-63,-136,-73,100,4,-104,29,-29,-87,-97,-87,-58
-68,-136,-68,102,0,-102,29,-29,-87,-97,-87,-58
-68,-131,-63,100,-2,-97,29,-29,-87,-97,-87,-58
-68,-126,-58,97,-4,-92,29,-29,-87,-97,-87,-58
-68,-126,-58,97,-4,-92,34,-24,-82,-92,-82,-53
-68,-126,-58,97,-4,-92,39,-19,-78,-87,-78,-48
-68,-126,-58,97,-4,-92,39,-19,-73,-82,-78,-48
-68,-126,-58,97,-4,-92,39,-19,-68,-78,-78,-48
-58,-117,-58,87,0,-87,48,-9,-58,-68,-68,-39
-48,-107,-58,78,4,-82,58,0,-48,-58,-58,-29
-48,-97,-48,73,0,-73,63,4,-39,-53,-53,-29
-48,-87,-39,68,-4,-63,68,9,-29,-48,-48,-29
-48,-87,-39,68,-4,-63,73,14,-29,-43,-48,-29
-39,-87,-48,63,4,-68,73,19,-29,-39,-43,-29
-34,-92,-58,63,12,-75,78,24,-29,-39,-39,-29
-19,-92,-73,56,26,-82,78,39,-19,-29,-19,-19
4,-87,-92,41,48,-90,73,48,-4,-19,-9,-9
19,-87,-107,34,63,-97,63,58,9,-9,-4,0
34,-87,-122,26,78,-104,63,63,14,-4,0,0
39,-87,-126,24,82,-107,58,68,19,0,4,0
43,-82,-126,19,85,-104,48,73,19,9,9,19
43,-87,-131,21,87,-109,34,63,19,14,9,19
43,-87,-131,21,87,-109,4,19,-19,-19,-9,0
24,-92,-117,34,70,-104,-24,-29,-73,-53,-39,-14
19,-107,-126,43,73,-117,-34,-39,-82,-68,-48,-29
19,-122,-141,51,80,-131,-24,-29,-82,-68,-48,-39
29,-117,-146,43,87,-131,-19,-24,-82,-68,-58,-39
34,-122,-156,43,95,-139,-19,-24,-82,-73,-58,-43
34,-126,-161,46,97,-143,-19,-29,-97,-78,-68,-48
24,-131,-156,53,90,-143,-19,-29,-97,-82,-68,-53
19,-126,-146,53,82,-136,-14,-29,-97,-82,-68,-48
-4,-122,-117,63,56,-119,0,-29,-87,-82,-68,-43
-24,-117,-92,70,34,-104,9,-24,-87,-82,-68,-43
-48,-117,-68,82,9,-92,19,-24,-87,-82,-73,-53
-58,-126,-68,92,4,-97,24,-39,-102,-102,-92,-68
-58,-131,-73,95,7,-102,24,-43,-107,-117,-102,-78
-58,-136,-78,97,9,-107,24,-43,-107,-117,-102,-78
-63,-136,-73,100,4,-104,24,-43,-107,-112,-97,-82
-63,-131,-68,97,2,-100,29,-39,-102,-112,-97,-82
-68,-131,-63,100,-2,-97,29,-34,-102,-112,-97,-82
-78,-131,-53,104,-12,-92,29,-39,-107,-112,-97,-82
-82,-131,-48,107,-17,-90,29,-39,-107,-112,-102,-78
-82,-131,-48,107,-17,-90,29,-43,-107,-112,-107,-78
-82,-131,-48,107,-17,-90,29,-43,-102,-112,-112,-78
-78,-131,-53,104,-12,-92,34,-43,-102,-112,-107,-78
-73,-131,-58,102,-7,-95,34,-43,-97,-107,-107,-82
-73,-131,-58,102,-7,-95,34,-43,-97,-107,-107,-82
-73,-131,-58,102,-7,-95,34,-39,-97,-107,-102,-82
-73,-131,-58,102,-7,-95,34,-39,-97,-107,-102,-78
-73,-131,-58,102,-7,-95,34,-34,-97,-107,-102,-78
-73,-131,-58,102,-7,-95,39,-39,-97,-112,-97,-82
-73,-146,-73,109,0,-109,43,-29,-87,-107,-97,-92
-82,-151,-68,117,-7,-109,39,-24,-82,-107,-117,-107
-73,-151,-78,112,2,-114,19,-14,-48,-78,-102,-107
-29,-141,-112,85,41,-126,19,107,97,53,0,-43
73,-92,-165,9,119,-129,-9,204,302,273,200,82
234,0,-234,-117,234,-117,-58,244,517,570,473,258
419,112,-307,-265,363,-97,-161,200,673,858,775,473
678,326,-351,-502,514,-12,-312,156,873,1259,1229,824
800,570,-229,-685,514,170,-522,-82,863,1473,1551,1122
688,634,-53,-661,370,290,-692,-546,385,1093,1312,1058
409,483,73,-446,168,278,-780,-1058,-527,82,395,517
48,336,287,-192,-119,312,-795,-1473,-1346,-858,-444,-4
-122,278,400,-78,-261,339,-819,-1625,-1737,-1283,-785,-200
-136,322,458,-92,-297,390,-819,-1586,-1649,-1229,-751,-185
-146,317,463,-85,-305,390,-785,-1439,-1488,-1117,-697,-180
-141,331,473,-95,-307,402,-663,-1156,-1205,-902,-556,-131
-136,292,429,-78,-283,361,-531,-888,-917,-692,-439,-92
-107,244,351,-68,-229,297,-419,-663,-673,-517,-336,-78
-82,195,278,-56,-180,236,-326,-492,-497,-400,-273,-73
-78,122,200,-21,-139,161,-214,-341,-385,-312,-219,-58
-73,63,136,4,-104,100,-131,-219,-263,-224,-165,-43
-63,19,82,21,-73,51,-78,-126,-141,-126,-102,-29
-53,-14,39,34,-46,12,-34,-63,-78,-78,-68,-19
-53,-48,4,51,-29,-21,4,-9,-53,-63,-53,-14
-53,-68,-14,61,-19,-41,29,24,-39,-48,-53,-14
-53,-68,-14,61,-19,-41,29,29,-14,-39,-43,-19
-53,-68,-14,61,-19,-41,29,34,-14,-29,-43,-24
-43,-68,-24,56,-9,-46,43,43,-14,-29,-34,-24
-43,-73,-29,58,-7,-51,58,58,0,-24,-34,-19
-43,-73,-29,58,-7,-51,63,68,14,-9,-29,-19
-43,-68,-24,56,-9,-46,63,68,29,-4,-24,-19
-34,-63,-29,48,-2,-46,58,73,29,0,-14,-19
-29,-58,-29,43,0,-43,58,78,34,0,-9,-19
-29,-63,-34,46,2,-48,63,82,43,14,-4,-19
-29,-63,-34,46,2,-48,68,87,53,24,0,-19
-34,-63,-29,48,-2,-46,68,97,58,29,0,-14
-34,-68,-34,51,0,-51,73,102,63,39,4,0
-34,-73,-39,53,2,-56,73,102,73,39,4,0
-29,-73,-43,51,7,-58,73,107,78,43,9,0
-29,-63,-34,46,2,-48,78,117,82,53,14,4
-24,-58,-34,41,4,-46,78,117,92,58,29,14
-24,-58,-34,41,4,-46,78,126,102,63,29,19
-19,-53,-34,36,7,-43,78,126,117,63,39,24
-14,-53,-39,34,12,-46,73,131,122,73,34,29
-14,-53,-39,34,12,-46,73,136,131,78,43,34
-9,-43,-34,26,12,-39,73,146,136,82,43,39
-4,-43,-39,24,17,-41,73,156,141,87,53,39
4,-43,-48,19,26,-46,78,161,156,97,58,43
4,-39,-43,17,24,-41,87,170,161,112,73,53
9,-34,-43,12,26,-39,87,180,175,117,78,58
14,-29,-43,7,29,-36,87,190,185,126,87,58
19,-19,-39,0,29,-29,87,195,200,136,92,58
24,-14,-39,-4,31,-26,87,200,214,146,102,68
24,-9,-34,-7,29,-21,92,214,229,161,117,73
24,-4,-29,-9,26,-17,92,224,253,180,126,78
29,4,-24,-17,26,-9,92,244,268,190,136,87
34,-4,-39,-14,36,-21,92,263,283,204,146,97
43,9,-34,-26,39,-12,92,273,307,234,165,107
58,14,-43,-36,51,-14,92,297,326,253,175,117
68,29,-39,-48,53,-4,102,312,351,273,190,131
78,43,-34,-61,56,4,102,331,375,297,200,141
92,53,-39,-73,65,7,107,346,400,312,224,151
102,63,-39,-82,70,12,112,361,419,336,239,165
102,82,-19,-92,61,31,112,380,444,356,258,180
112,102,-9,-107,61,46,112,400,468,380,278,200
117,117,0,-117,58,58,117,419,497,405,297,214
126,131,4,-129,61,68,117,429,527,429,322,234
136,141,4,-139,65,73,117,444,546,448,341,248
146,156,9,-151,68,82,122,458,575,468,351,263
156,170,14,-163,70,92,122,468,595,488,375,278
161,185,24,-173,68,104,117,478,610,502,390,297
161,204,43,-183,58,124,117,488,624,512,395,307
161,219,58,-190,51,139,112,492,639,527,409,322
170,224,53,-197,58,139,112,492,649,541,424,331
185,234,48,-209,68,141,107,488,649,551,434,341
185,244,58,-214,63,151,97,478,649,551,439,346
190,253,63,-222,63,158,92,468,644,546,439,351
190,258,68,-224,61,163,87,444,624,536,439,351
185,263,78,-224,53,170,78,414,605,527,434,351
180,268,87,-224,46,178,68,385,585,507,424,346
175,258,82,-217,46,170,58,351,551,483,405,341
170,258,87,-214,41,173,48,317,507,448,380,326
161,244,82,-202,39,163,34,283,458,414,356,307
146,224,78,-185,34,151,24,239,419,380,326,292
131,214,82,-173,24,148,14,204,366,336,287,268
122,190,68,-156,26,129,9,165,302,283,244,239
107,156,48,-131,29,102,4,131,253,248,214,214
82,126,43,-104,19,85,4,107,219,209,190,190
68,107,39,-87,14,73,9,82,180,170,156,165
58,82,24,-70,17,53,9,63,141,131,117,141
39,48,9,-43,14,29,9,39,102,102,92,107
19,34,14,-26,2,24,4,24,82,68,63,82
14,14,0,-14,7,7,0,14,58,48,48,73
4,0,-4,-2,4,-2,0,0,29,24,29,48
-4,-9,-4,7,0,-7,0,-4,9,4,9,24
-14,-24,-9,19,-2,-17,4,-14,-9,-4,-9,19
-19,-34,-14,26,-2,-24,4,-14,-24,-19,-19,9
-19,-39,-19,29,0,-29,4,-24,-39,-29,-29,0
-29,-43,-14,36,-7,-29,9,-29,-43,-34,-39,-19
-29,-53,-24,41,-2,-39,9,-29,-48,-43,-43,-19
-29,-48,-19,39,-4,-34,14,-29,-48,-53,-48,-24
-34,-53,-19,43,-7,-36,14,-29,-53,-58,-53,-29
-39,-53,-14,46,-12,-34,14,-29,-58,-58,-53,-29
-43,-58,-14,51,-14,-36,14,-29,-58,-58,-58,-29
-43,-63,-19,53,-12,-41,14,-29,-58,-58,-58,-34
-43,-63,-19,53,-12,-41,14,-29,-58,-58,-58,-34
-43,-63,-19,53,-12,-41,14,-29,-53,-58,-58,-34
-43,-63,-19,53,-12,-41,14,-29,-53,-58,-58,-34
-39,-63,-24,51,-7,-43,19,-34,-53,-58,-58,-39
-39,-63,-24,51,-7,-43,19,-34,-53,-58,-63,-39
-39,-63,-24,51,-7,-43,19,-24,-53,-58,-63,-39
-39,-58,-19,48,-9,-39,19,-24,-58,-58,-63,-39
-39,-53,-14,46,-12,-34,19,-24,-58,-58,-68,-43
-39,-53,-14,46,-12,-34,19,-24,-58,-58,-68,-43
-39,-58,-19,48,-9,-39,19,-24,-58,-63,-68,-43
-43,-63,-19,53,-12,-41,19,-24,-58,-63,-63,-48
-43,-68,-24,56,-9,-46,19,-19,-58,-63,-63,-48
-48,-68,-19,58,-14,-43,24,-19,-58,-63,-63,-48
-48,-68,-19,58,-14,-43,29,-19,-53,-63,-63,-48
-43,-68,-24,56,-9,-46,29,-19,-53,-63,-63,-48
-43,-68,-24,56,-9,-46,29,-19,-53,-63,-63,-48
-43,-68,-24,56,-9,-46,34,-19,-53,-63,-63,-48
-43,-68,-24,56,-9,-46,34,-19,-53,-63,-68,-48
-43,-68,-24,56,-9,-46,29,-19,-53,-63,-68,-48
-43,-68,-24,56,-9,-46,24,-19,-53,-63,-68,-48
-43,-68,-24,56,-9,-46,24,-19,-53,-63,-68,-48
-43,-68,-24,56,-9,-46,24,-19,-53,-63,-68,-48
-43,-68,-24,56,-9,-46,24,-19,-58,-63,-68,-48
-43,-63,-19,53,-12,-41,24,-24,-63,-73,-73,-53
-43,-63,-19,53,-12,-41,24,-24,-63,-73,-73,-58
-48,-68,-19,58,-14,-43,24,-24,-63,-73,-78,-58
-48,-68,-19,58,-14,-43,24,-24,-58,-73,-78,-53
-43,-73,-29,58,-7,-51,24,-24,-58,-78,-78,-53
-43,-78,-34,61,-4,-56,24,-24,-63,-78,-78,-53
-43,-82,-39,63,-2,-61,24,-24,-68,-82,-78,-53
-43,-82,-39,63,-2,-61,24,-24,-68,-78,-82,-58
-43,-87,-43,65,0,-65,19,-29,-68,-78,-82,-63
-48,-87,-39,68,-4,-63,19,-29,-68,-78,-78,-63
-48,-87,-39,68,-4,-63,19,-29,-78,-82,-73,-68
-48,-87,-39,68,-4,-63,19,-34,-78,-82,-73,-68
-53,-87,-34,70,-9,-61,24,-34,-73,-78,-73,-68
-53,-87,-34,70,-9,-61,29,-34,-73,-78,-78,-68
-48,-87,-39,68,-4,-63,29,-34,-78,-82,-78,-73
-48,-82,-34,65,-7,-58,29,-34,-87,-87,-82,-73
-53,-82,-29,68,-12,-56,29,-39,-87,-87,-82,-73
-58,-82,-24,70,-17,-53,24,-39,-87,-92,-82,-73
-58,-82,-24,70,-17,-53,19,-39,-82,-92,-82,-73
-53,-82,-29,68,-12,-56,19,-39,-82,-92,-82,-73
-53,-82,-29,68,-12,-56,19,-43,-87,-92,-87,-73
-53,-82,-29,68,-12,-56,19,-43,-87,-92,-87,-73
-53,-82,-29,68,-12,-56,19,-43,-87,-92,-87,-73
-53,-82,-29,68,-12,-56,19,-43,-87,-92,-87,-73
-58,-82,-24,70,-17,-53,14,-39,-92,-97,-87,-73
-58,-82,-24,70,-17,-53,14,-34,-92,-97,-87,-78
-53,-87,-34,70,-9,-61,14,-34,-92,-92,-87,-78
-53,-87,-34,70,-9,-61,14,-39,-87,-92,-92,-78
-53,-87,-34,70,-9,-61,14,-43,-82,-97,-92,-78
-53,-87,-34,70,-9,-61,14,-43,-87,-97,-92,-73
-63,-82,-19,73,-21,-51,14,-43,-87,-97,-92,-73
-63,-82,-19,73,-21,-51,14,-43,-87,-97,-92,-73
-63,-82,-19,73,-21,-51,14,-39,-92,-97,-87,-73
-58,-82,-24,70,-17,-53,14,-39,-92,-97,-87,-73
-58,-82,-24,70,-17,-53,14,-39,-97,-102,-92,-73
-58,-78,-19,68,-19,-48,14,-39,-97,-102,-92,-78
-58,-73,-14,65,-21,-43,14,-39,-97,-97,-92,-78
-58,-73,-14,65,-21,-43,19,-39,-97,-97,-92,-78
-58,-73,-14,65,-21,-43,19,-39,-97,-97,-92,-78
-63,-78,-14,70,-24,-46,19,-39,-102,-97,-92,-78
-63,-82,-19,73,-21,-51,19,-39,-102,-97,-92,-78
-63,-82,-19,73,-21,-51,14,-34,-102,-102,-92,-82
-63,-82,-19,73,-21,-51,14,-34,-102,-102,-92,-82
-58,-82,-24,70,-17,-53,14,-34,-97,-102,-92,-73
-58,-82,-24,70,-17,-53,14,-34,-97,-102,-92,-73
-58,-78,-19,68,-19,-48,14,-39,-97,-102,-92,-73
-58,-73,-14,65,-21,-43,14,-43,-97,-102,-92,-73
-58,-73,-14,65,-21,-43,14,-39,-97,-102,-97,-73
-58,-73,-14,65,-21,-43,14,-39,-97,-102,-97,-73
-58,-78,-19,68,-19,-48,14,-39,-97,-97,-97,-73
-63,-82,-19,73,-21,-51,14,-39,-102,-97,-97,-78
-63,-82,-19,73,-21,-51,14,-39,-102,-97,-97,-78
-58,-82,-24,70,-17,-53,14,-39,-102,-102,-97,-73
-58,-82,-24,70,-17,-53,14,-39,-97,-102,-92,-73
-58,-82,-24,70,-17,-53,14,-39,-97,-97,-92,-73
-58,-82,-24,70,-17,-53,19,-43,-92,-97,-92,-73
-58,-82,-24,70,-17,-53,19,-43,-92,-97,-92,-73
-58,-87,-29,73,-14,-58,14,-43,-102,-97,-92,-68
-58,-92,-34,75,-12,-63,14,-43,-107,-92,-92,-68
-63,-87,-24,75,-19,-56,14,-39,-102,-97,-97,-68
-63,-87,-24,75,-19,-56,14,-43,-97,-102,-102,-68
-63,-82,-19,73,-21,-51,9,-48,-92,-102,-102,-73
-58,-82,-24,70,-17,-53,9,-34,-92,-97,-97,-63
-58,-82,-24,70,-17,-53,9,-39,-92,-97,-97,-63
-58,-82,-24,70,-17,-53,14,-48,-97,-97,-102,-68
-63,-78,-14,70,-24,-46,14,-43,-97,-97,-97,-68
-68,-78,-9,73,-29,-43,19,-39,-97,-97,-97,-68
-68,-78,-9,73,-29,-43,19,-39,-97,-97,-97,-68
-68,-78,-9,73,-29,-43,19,-39,-97,-97,-97,-68
-63,-78,-14,70,-24,-46,19,-39,-97,-97,-97,-68
-58,-78,-19,68,-19,-48,19,-39,-97,-97,-97,-68
-58,-82,-24,70,-17,-53,19,-39,-97,-97,-97,-68
-58,-87,-29,73,-14,-58,19,-39,-97,-97,-97,-68
-58,-87,-29,73,-14,-58,19,-39,-97,-97,-97,-68
-58,-87,-29,73,-14,-58,19,-39,-97,-97,-97,-68
-58,-82,-24,70,-17,-53,19,-34,-97,-97,-97,-73
-58,-78,-19,68,-19,-48,19,-29,-97,-97,-97,-78
-58,-78,-19,68,-19,-48,19,-29,-97,-97,-97,-78
-58,-78,-19,68,-19,-48,19,-29,-97,-97,-97,-78
-58,-78,-19,68,-19,-48,19,-29,-92,-97,-97,-78
-58,-78,-19,68,-19,-48,19,-29,-87,-97,-97,-78
-53,-73,-19,63,-17,-46,24,-29,-82,-92,-92,-73
-48,-68,-19,58,-14,-43,29,-29,-78,-87,-87,-68
-43,-53,-9,48,-17,-31,39,-19,-63,-78,-78,-63
-39,-39,0,39,-19,-19,48,-9,-48,-68,-68,-58
-39,-39,0,39,-19,-19,53,-4,-43,-58,-63,-53
-39,-39,0,39,-19,-19,58,0,-39,-48,-58,-48
-34,-39,-4,36,-14,-21,58,4,-39,-48,-58,-48
-19,-39,-19,29,0,-29,58,14,-34,-43,-48,-43
-9,-43,-34,26,12,-39,58,29,-29,-39,-39,-39
14,-39,-53,12,34,-46,53,39,-19,-29,-29,-29
29,-39,-68,4,48,-53,43,48,-4,-14,-19,-19
39,-39,-78,0,58,-58,43,53,4,-4,-9,-19
43,-39,-82,-2,63,-61,39,58,9,0,-4,-19
53,-29,-82,-12,68,-56,29,58,9,4,0,0
53,-29,-82,-12,68,-56,14,48,9,4,0,0
53,-29,-82,-12,68,-56,-14,9,-29,-29,-19,-19
34,-34,-68,0,51,-51,-43,-39,-82,-68,-53,-34
29,-48,-78,9,53,-63,-53,-48,-92,-87,-68,-43
29,-63,-92,17,61,-78,-43,-39,-92,-87,-68,-48
34,-63,-97,14,65,-80,-39,-34,-92,-87,-78,-48
34,-68,-102,17,68,-85,-34,-39,-92,-92,-78,-53
34,-68,-102,17,68,-85,-29,-48,-107,-97,-87,-58
24,-73,-97,24,61,-85,-29,-48,-107,-102,-87,-58
19,-73,-92,26,56,-82,-24,-48,-107,-102,-87,-53
-4,-73,-68,39,31,-70,-14,-48,-97,-102,-87,-53
-24,-68,-43,46,9,-56,-9,-43,-97,-102,-87,-53
-48,-68,-19,58,-14,-43,0,-48,-97,-102,-92,-63
-58,-78,-19,68,-19,-48,4,-63,-112,-117,-112,-73
-63,-87,-24,75,-19,-56,4,-63,-117,-126,-122,-78
-68,-97,-29,82,-19,-63,4,-63,-117,-126,-122,-78
-73,-97,-24,85,-24,-61,4,-58,-117,-122,-117,-82
-73,-92,-19,82,-26,-56,9,-53,-112,-122,-117,-82
-78,-92,-14,85,-31,-53,9,-48,-112,-122,-117,-82
-82,-92,-9,87,-36,-51,9,-48,-117,-122,-117,-87
-82,-92,-9,87,-36,-51,14,-48,-117,-122,-117,-82
-82,-92,-9,87,-36,-51,19,-48,-117,-122,-112,-78
-78,-92,-14,85,-31,-53,19,-43,-112,-122,-112,-78
-73,-92,-19,82,-26,-56,24,-43,-112,-122,-107,-73
-73,-92,-19,82,-26,-56,19,-48,-107,-117,-112,-78
-73,-92,-19,82,-26,-56,14,-53,-107,-117,-117,-82
-73,-92,-19,82,-26,-56,14,-48,-107,-117,-112,-82
-73,-92,-19,82,-26,-56,14,-48,-107,-117,-112,-78
-73,-92,-19,82,-26,-56,14,-43,-112,-117,-112,-78
-68,-92,-24,80,-21,-58,14,-43,-112,-117,-107,-78
-73,-112,-39,92,-17,-75,14,-39,-107,-117,-122,-92
-78,-117,-39,97,-19,-78,9,-29,-87,-102,-126,-102
-68,-117,-48,92,-9,-82,0,-4,-39,-68,-102,-102
-9,-97,-87,53,39,-92,-4,97,97,58,0,-39
97,-39,-136,-29,117,-87,-29,195,326,317,239,102
258,63,-195,-161,226,-65,-87,214,531,605,517,278
468,180,-287,-324,378,-53,-195,175,678,893,834,507
649,361,-287,-505,468,36,-322,97,790,1185,1180,795
756,614,-141,-685,448,236,-566,-200,717,1351,1468,1083
649,673,24,-661,312,348,-727,-634,263,1005,1254,1024
312,458,146,-385,82,302,-780,-1161,-766,-204,136,346
0,322,322,-161,-161,322,-795,-1507,-1498,-1068,-629,-141
-126,312,439,-92,-283,375,-824,-1605,-1747,-1302,-805,-239
-136,361,497,-112,-317,429,-814,-1561,-1668,-1259,-790,-234
-141,356,497,-107,-319,427,-761,-1385,-1464,-1112,-712,-219
-136,366,502,-114,-319,434,-644,-1117,-1180,-897,-566,-165
-126,326,453,-100,-290,390,-512,-854,-883,-678,-444,-122
-97,283,380,-92,-239,331,-405,-639,-644,-497,-331,-97
-82,214,297,-65,-190,256,-312,-473,-492,-395,-273,-92
-82,146,229,-31,-156,187,-204,-326,-375,-302,-219,-78
-73,97,170,-12,-122,134,-126,-209,-244,-214,-161,-63
-63,53,117,4,-90,85,-73,-122,-131,-131,-102,-48
-53,24,78,14,-65,51,-34,-58,-87,-92,-78,-39
-53,-4,48,29,-51,21,0,-9,-63,-73,-63,-34
-53,-24,29,39,-41,2,19,14,-43,-58,-63,-39
-53,-29,24,41,-39,-2,19,19,-14,-48,-53,-43
-53,-34,19,43,-36,-7,19,24,-14,-39,-53,-43
-43,-39,4,41,-24,-17,29,34,-14,-39,-43,-43
-43,-43,0,43,-21,-21,39,48,0,-34,-39,-39
-43,-43,0,43,-21,-21,43,58,9,-19,-29,-39
-43,-39,4,41,-24,-17,48,58,19,-14,-24,-34
-39,-39,0,39,-19,-19,48,63,19,-9,-19,-29
-39,-39,0,39,-19,-19,48,68,24,-9,-24,-29
-39,-43,-4,41,-17,-24,53,73,34,0,-24,-29
-39,-43,-4,41,-17,-24,58,78,43,9,-19,-29
-39,-39,0,39,-19,-19,58,87,48,19,-14,-24
-34,-34,0,34,-17,-17,58,92,53,29,-4,-9
-34,-34,0,34,-17,-17,53,92,63,29,-4,-9
-29,-34,-4,31,-12,-19,53,97,68,29,0,-9
-29,-29,0,29,-14,-14,58,107,73,34,0,-9
-24,-29,-4,26,-9,-17,63,102,82,39,9,-4
-24,-29,-4,26,-9,-17,68,112,87,43,9,0
-19,-24,-4,21,-7,-14,68,117,102,48,24,4
-14,-24,-9,19,-2,-17,68,122,112,63,29,9
-14,-24,-9,19,-2,-17,73,126,122,68,43,14
-9,-14,-4,12,-2,-9,73,136,131,78,43,19
-4,-9,-4,7,0,-7,73,146,141,87,53,19
4,-4,-9,0,7,-7,73,151,156,97,58,24
4,0,-4,-2,4,-2,78,161,161,112,73,34
9,4,-4,-7,7,0,78,170,175,117,78,43
9,9,0,-9,4,4,78,180,185,126,87,48
9,19,9,-14,0,14,78,190,195,136,92,48
14,24,9,-19,2,17,78,200,204,146,102,58
19,29,9,-24,4,19,82,214,219,161,117,63
24,29,4,-26,9,17,82,219,244,180,126,73
29,43,14,-36,7,29,82,234,258,190,136,87
34,43,9,-39,12,26,82,253,273,204,146,97
43,58,14,-51,14,36,82,263,297,229,165,107
53,63,9,-58,21,36,82,287,317,244,170,107
58,73,14,-65,21,43,92,302,341,263,185,117
68,82,14,-75,26,48,92,317,366,287,200,131
82,92,9,-87,36,51,92,331,390,302,224,141
92,102,9,-97,41,56,97,351,414,326,239,156
92,117,24,-104,34,70,102,370,444,346,258,165
102,131,29,-117,36,80,102,390,468,370,273,180
112,146,34,-129,39,90,107,409,492,395,287,195
126,161,34,-143,46,97,107,419,517,419,312,214
136,175,39,-156,48,107,107,434,536,439,331,229
146,195,48,-170,48,122,112,448,566,458,341,244
156,209,53,-183,51,131,112,458,585,478,366,258
156,219,63,-187,46,141,107,468,605,497,385,278
161,234,73,-197,43,153,107,473,619,512,395,283
170,248,78,-209,46,163,102,473,629,527,409,292
170,253,82,-212,43,168,102,473,639,536,419,302
180,273,92,-226,43,183,97,473,639,541,424,312
185,292,107,-239,39,200,87,463,639,541,429,317
190,302,112,-246,39,207,82,448,634,536,429,322
190,302,112,-246,39,207,78,424,614,527,424,322
185,302,117,-244,34,209,68,400,595,517,414,322
175,302,126,-239,24,214,58,375,570,497,405,317
170,292,122,-231,24,207,43,341,531,478,390,317
170,292,122,-231,24,207,34,302,488,444,370,307
170,273,102,-222,34,187,19,268,439,405,346,287
161,248,87,-204,36,168,9,229,400,370,317,268
141,234,92,-187,24,163,4,195,346,326,278,239
126,209,82,-168,21,146,0,156,292,273,234,209
107,175,68,-141,19,122,-4,126,248,239,204,185
82,146,63,-114,9,104,-4,107,209,204,180,161
68,126,58,-97,4,92,0,82,170,170,156,136
58,107,48,-82,4,78,0,63,131,131,126,112
39,78,39,-58,0,58,-4,34,82,97,92,78
19,63,43,-41,-12,53,-9,14,53,63,53,53
14,43,29,-29,-7,36,-9,4,29,48,39,43
4,29,24,-17,-9,26,-9,-9,4,24,19,24
0,24,24,-12,-12,24,-9,-14,-9,0,0,4
-4,14,19,-4,-12,17,-4,-24,-24,-14,-14,0
-9,4,14,2,-12,9,-4,-24,-34,-29,-19,-9
-9,0,9,4,-9,4,-4,-29,-43,-39,-29,-14
-19,-4,14,12,-17,4,0,-29,-43,-39,-39,-29
-19,-19,0,19,-9,-9,0,-29,-48,-43,-43,-29
-19,-19,0,19,-9,-9,4,-29,-48,-53,-48,-34
-24,-24,0,24,-12,-12,4,-29,-53,-58,-53,-39
-29,-24,4,26,-17,-9,4,-29,-58,-63,-53,-39
-34,-24,9,29,-21,-7,4,-29,-58,-68,-58,-39
-34,-24,9,29,-21,-7,4,-29,-63,-68,-58,-43
-34,-24,9,29,-21,-7,4,-29,-68,-68,-58,-43
-34,-29,4,31,-19,-12,4,-29,-63,-68,-63,-43
-34,-34,0,34,-17,-17,4,-29,-63,-68,-68,-43
-34,-34,0,34,-17,-17,9,-34,-63,-68,-68,-48
-39,-34,4,36,-21,-14,9,-34,-63,-68,-73,-48
-39,-34,4,36,-21,-14,14,-24,-58,-68,-68,-48
-39,-34,4,36,-21,-14,19,-24,-58,-68,-63,-48
-39,-34,4,36,-21,-14,19,-24,-58,-68,-68,-53
-39,-34,4,36,-21,-14,19,-24,-58,-68,-68,-53
-39,-39,0,39,-19,-19,19,-24,-58,-73,-68,-53
-43,-39,4,41,-24,-17,19,-24,-58,-73,-68,-58
-43,-39,4,41,-24,-17,19,-24,-63,-73,-73,-58
-48,-39,9,43,-29,-14,19,-29,-68,-73,-73,-58
-48,-39,9,43,-29,-14,14,-29,-68,-73,-73,-68
-43,-39,4,41,-24,-17,9,-29,-73,-73,-73,-78
-43,-39,4,41,-24,-17,9,-29,-73,-73,-78,-78
-43,-39,4,41,-24,-17,14,-29,-73,-73,-78,-78
-43,-39,4,41,-24,-17,14,-29,-68,-73,-78,-78
-43,-39,4,41,-24,-17,14,-29,-63,-73,-78,-78
-43,-39,4,41,-24,-17,14,-24,-63,-73,-78,-78
-43,-39,4,41,-24,-17,14,-19,-63,-73,-78,-78
-43,-39,4,41,-24,-17,19,-19,-63,-73,-78,-82
-43,-43,0,43,-21,-21,24,-19,-68,-73,-78,-87
-43,-43,0,43,-21,-21,24,-24,-73,-82,-82,-92
-43,-43,0,43,-21,-21,24,-24,-73,-82,-82,-97
-48,-48,0,48,-24,-24,24,-24,-73,-82,-87,-97
-48,-48,0,48,-24,-24,24,-24,-68,-78,-87,-92
-43,-53,-9,48,-17,-31,24,-24,-68,-78,-87,-92
-43,-53,-9,48,-17,-31,24,-24,-73,-78,-87,-92
-43,-58,-14,51,-14,-36,19,-24,-78,-82,-87,-92
-43,-58,-14,51,-14,-36,14,-24,-78,-82,-92,-97
-43,-58,-14,51,-14,-36,9,-29,-78,-87,-92,-102
-48,-58,-9,53,-19,-34,9,-29,-78,-87,-92,-102
-43,-53,-9,48,-17,-31,9,-29,-87,-92,-92,-107
-39,-48,-9,43,-14,-29,9,-34,-87,-92,-92,-107
-43,-48,-4,46,-19,-26,14,-34,-82,-87,-92,-107
-43,-48,-4,46,-19,-26,14,-34,-82,-87,-97,-107
-43,-48,-4,46,-19,-26,14,-34,-87,-92,-92,-112
-48,-48,0,48,-24,-24,19,-34,-97,-97,-92,-112
-53,-53,0,53,-26,-26,19,-39,-97,-97,-92,-112
-58,-53,4,56,-31,-24,19,-39,-97,-102,-92,-112
-58,-53,4,56,-31,-24,14,-39,-92,-102,-92,-112
-53,-53,0,53,-26,-26,9,-39,-92,-102,-92,-112
-53,-53,0,53,-26,-26,9,-43,-97,-102,-97,-112
-53,-53,0,53,-26,-26,9,-43,-97,-102,-97,-112
-48,-53,-4,51,-21,-29,9,-43,-97,-102,-97,-112
-43,-53,-9,48,-17,-31,9,-48,-97,-102,-97,-112
-48,-53,-4,51,-21,-29,4,-48,-102,-107,-97,-107
-48,-53,-4,51,-21,-29,4,-43,-102,-107,-97,-107
-48,-58,-9,53,-19,-34,4,-43,-102,-102,-92,-107
-53,-58,-4,56,-24,-31,4,-43,-102,-102,-92,-107
-53,-58,-4,56,-24,-31,9,-43,-102,-102,-92,-102
-53,-58,-4,56,-24,-31,14,-43,-107,-97,-92,-92
-63,-53,9,58,-36,-21,14,-43,-107,-97,-97,-92
-63,-53,9,58,-36,-21,14,-48,-102,-97,-102,-92
-63,-53,9,58,-36,-21,14,-48,-102,-97,-97,-92
-58,-53,4,56,-31,-24,14,-48,-102,-97,-97,-92
-53,-53,0,53,-26,-26,14,-48,-107,-107,-102,-92
-48,-53,-4,51,-21,-29,14,-48,-107,-112,-102,-97
-48,-53,-4,51,-21,-29,9,-48,-107,-107,-102,-97
-48,-53,-4,51,-21,-29,9,-48,-107,-107,-102,-97
-53,-53,0,53,-26,-26,9,-48,-102,-107,-102,-97
-63,-53,9,58,-36,-21,9,-48,-102,-107,-102,-97
-63,-58,4,61,-34,-26,14,-48,-102,-107,-102,-87
-63,-63,0,63,-31,-31,14,-48,-102,-112,-102,-82
-63,-63,0,63,-31,-31,14,-53,-107,-112,-107,-92
-58,-63,-4,61,-26,-34,14,-53,-107,-112,-112,-92
-58,-63,-4,61,-26,-34,9,-53,-107,-112,-112,-92
-58,-63,-4,61,-26,-34,4,-53,-107,-112,-112,-92
-58,-63,-4,61,-26,-34,4,-53,-102,-107,-102,-92
-58,-63,-4,61,-26,-34,4,-48,-97,-102,-97,-92
-58,-63,-4,61,-26,-34,4,-48,-97,-102,-97,-92
-58,-63,-4,61,-26,-34,4,-48,-97,-97,-97,-92
-58,-63,-4,61,-26,-34,4,-48,-102,-102,-102,-97
-53,-63,-9,58,-21,-36,4,-48,-102,-107,-107,-97
-48,-63,-14,56,-17,-39,4,-48,-102,-112,-107,-92
-48,-63,-14,56,-17,-39,4,-48,-97,-112,-102,-92
-53,-63,-9,58,-21,-36,4,-48,-102,-107,-102,-97
-58,-63,-4,61,-26,-34,9,-53,-102,-107,-102,-102
-58,-63,-4,61,-26,-34,9,-53,-102,-107,-102,-102
-58,-63,-4,61,-26,-34,9,-53,-107,-107,-102,-102
-58,-63,-4,61,-26,-34,14,-58,-107,-102,-102,-102
-58,-58,0,58,-29,-29,14,-53,-102,-102,-102,-97
-53,-58,-4,56,-24,-31,9,-58,-102,-107,-107,-97
-53,-53,0,53,-26,-26,4,-63,-97,-107,-107,-97
-53,-53,0,53,-26,-26,9,-53,-102,-107,-112,-102
-48,-53,-4,51,-21,-29,9,-48,-102,-102,-107,-107
-53,-53,0,53,-26,-26,9,-48,-97,-102,-107,-107
-58,-58,0,58,-29,-29,9,-48,-97,-107,-107,-107
-58,-58,0,58,-29,-29,9,-48,-97,-107,-107,-107
-58,-58,0,58,-29,-29,9,-48,-97,-107,-107,-107
-58,-58,0,58,-29,-29,9,-48,-102,-107,-107,-107
-58,-58,0,58,-29,-29,9,-48,-107,-107,-107,-107
-58,-58,0,58,-29,-29,9,-48,-107,-107,-107,-107
-58,-58,0,58,-29,-29,9,-48,-107,-107,-107,-107
-58,-58,0,58,-29,-29,9,-48,-102,-107,-102,-107
-58,-58,0,58,-29,-29,9,-48,-97,-107,-97,-107
-58,-58,0,58,-29,-29,9,-48,-97,-107,-97,-107
-58,-58,0,58,-29,-29,9,-48,-97,-107,-97,-107
-58,-58,0,58,-29,-29,9,-48,-97,-107,-97,-107
-58,-58,0,58,-29,-29,9,-48,-97,-107,-97,-107
-58,-58,0,58,-29,-29,14,-48,-97,-107,-97,-107
-58,-58,0,58,-29,-29,19,-48,-97,-107,-97,-107
-58,-53,4,56,-31,-24,19,-43,-92,-107,-97,-107
-58,-48,9,53,-34,-19,19,-39,-87,-107,-97,-107
-53,-43,9,48,-31,-17,24,-34,-82,-97,-92,-107
-48,-39,9,43,-29,-14,29,-29,-78,-87,-87,-107
-43,-29,14,36,-29,-7,39,-24,-68,-78,-82,-97
-39,-19,19,29,-29,0,48,-19,-58,-68,-78,-87
-39,-19,19,29,-29,0,48,-9,-48,-63,-73,-87
-29,-19,9,24,-19,-4,53,0,-43,-58,-68,-87
-24,-24,0,24,-12,-12,58,4,-39,-58,-63,-87
-9,-24,-14,17,2,-19,68,19,-29,-48,-48,-78
14,-19,-34,2,24,-26,63,34,-14,-39,-39,-68
29,-19,-48,-4,39,-34,53,48,0,-29,-34,-58
43,-19,-63,-12,53,-41,53,53,4,-19,-24,-58
48,-19,-68,-14,58,-43,48,58,9,-9,-14,-58
53,-9,-63,-21,58,-36,39,63,14,4,-9,-34
53,-9,-63,-21,58,-36,24,53,19,14,-9,-29
48,-9,-58,-19,53,-34,-4,9,-19,-29,-29,-48
24,-14,-39,-4,31,-26,-34,-39,-73,-73,-58,-63
19,-29,-48,4,34,-39,-43,-53,-87,-87,-68,-73
19,-43,-63,12,41,-53,-34,-48,-92,-87,-68,-78
29,-39,-68,4,48,-53,-34,-43,-92,-87,-78,-73
34,-43,-78,4,56,-61,-39,-43,-92,-92,-78,-73
39,-48,-87,4,63,-68,-39,-48,-107,-97,-87,-78
34,-53,-87,9,61,-70,-39,-48,-107,-102,-87,-82
29,-53,-82,12,56,-68,-34,-48,-107,-102,-87,-82
4,-53,-58,24,31,-56,-19,-48,-97,-102,-87,-82
-19,-48,-29,34,4,-39,-9,-43,-97,-102,-87,-82
-48,-48,0,48,-24,-24,0,-43,-97,-102,-92,-92
-58,-63,-4,61,-26,-34,4,-53,-112,-117,-112,-107
-58,-73,-14,65,-21,-43,4,-53,-117,-126,-122,-117
-58,-78,-19,68,-19,-48,4,-53,-117,-126,-122,-117
-63,-78,-14,70,-24,-46,4,-53,-117,-122,-117,-122
-63,-73,-9,68,-26,-41,9,-53,-112,-122,-117,-122
-68,-73,-4,70,-31,-39,9,-53,-112,-122,-117,-122
-73,-73,0,73,-36,-36,9,-58,-117,-122,-117,-126
-73,-73,0,73,-36,-36,9,-58,-117,-122,-122,-126
-73,-73,0,73,-36,-36,9,-58,-117,-122,-122,-126
-73,-73,0,73,-36,-36,9,-53,-112,-122,-122,-126
-73,-73,0,73,-36,-36,14,-53,-112,-126,-122,-122
-73,-73,0,73,-36,-36,14,-53,-107,-126,-126,-122
-73,-73,0,73,-36,-36,14,-53,-107,-126,-126,-122
-73,-73,0,73,-36,-36,14,-48,-107,-126,-122,-122
-73,-73,0,73,-36,-36,14,-53,-112,-126,-126,-117
-73,-73,0,73,-36,-36,14,-53,-117,-126,-131,-117
-73,-73,0,73,-36,-36,14,-53,-117,-126,-126,-117
-73,-87,-14,80,-29,-51,14,-39,-107,-117,-126,-122
-78,-92,-14,85,-31,-53,9,-39,-102,-122,-136,-136
-63,-92,-29,78,-17,-61,-9,-34,-68,-97,-112,-136
-19,-87,-68,53,24,-78,0,92,78,39,-9,-78
82,-43,-126,-19,104,-85,-19,195,283,263,190,43
239,43,-195,-141,217,-75,-68,224,473,527,448,219
419,151,-268,-285,344,-58,-170,170,605,780,736,434
639,351,-287,-495,463,31,-312,107,746,1117,1132,751
722,580,-141,-651,431,219,-512,-151,678,1268,1395,1015
610,644,34,-627,287,339,-678,-619,190,858,1117,917
331,492,161,-412,85,326,-761,-1137,-732,-180,161,341
-9,361,370,-175,-190,366,-780,-1522,-1488,-1044,-614,-146
-161,317,478,-78,-319,397,-810,-1644,-1815,-1390,-893,-307
-165,370,536,-102,-351,453,-805,-1595,-1698,-1307,-834,-283
-165,375,541,-104,-353,458,-766,-1439,-1507,-1166,-756,-268
-156,390,546,-117,-351,468,-644,-1156,-1220,-941,-605,-200
-146,351,497,-102,-322,424,-512,-888,-927,-722,-478,-141
-117,292,409,-87,-263,351,-405,-668,-683,-541,-361,-117
-92,234,326,-70,-209,280,-317,-502,-507,-419,-283,-102
-82,170,253,-43,-168,212,-209,-346,-395,-326,-229,-87
-73,122,195,-24,-134,158,-131,-219,-273,-234,-175,-73
-63,78,141,-7,-102,109,-78,-126,-156,-141,-117,-58
-53,43,97,4,-75,70,-34,-63,-97,-97,-87,-48
-53,9,63,21,-58,36,0,-19,-73,-82,-73,-43
-53,-9,43,31,-48,17,19,4,-58,-68,-73,-43
-53,-9,43,31,-48,17,19,14,-24,-53,-63,-43
-53,-9,43,31,-48,17,19,24,-14,-39,-63,-43
-43,-9,34,26,-39,12,29,34,-14,-39,-48,-43
-43,-14,29,29,-36,7,39,48,0,-34,-43,-39
-43,-19,24,31,-34,2,43,53,9,-19,-39,-39
-43,-19,24,31,-34,2,43,48,19,-14,-34,-39
-39,-19,19,29,-29,0,39,53,19,-14,-29,-34
-39,-19,19,29,-29,0,39,58,24,-19,-29,-29
-39,-19,19,29,-29,0,48,63,34,-9,-24,-29
-39,-14,24,26,-31,4,58,68,43,-4,-19,-29
-43,-9,34,26,-39,12,58,78,48,0,-14,-29
-43,-9,34,26,-39,12,63,82,53,9,-4,-19
-43,-14,29,29,-36,7,63,82,63,9,-4,-19
-39,-14,24,26,-31,4,63,87,68,14,0,-19
-39,-9,29,24,-34,9,68,97,73,29,0,-19
-34,-9,24,21,-29,7,68,97,82,39,9,-14
-34,-9,24,21,-29,7,68,112,87,43,9,-9
-29,-4,24,17,-26,9,68,117,97,43,19,-4
-24,-4,19,14,-21,7,68,122,102,53,19,0
-24,-4,19,14,-21,7,73,126,112,58,34,4
-19,4,24,7,-21,14,73,136,122,68,29,9
-14,4,19,4,-17,12,73,146,131,78,34,9
-4,4,9,0,-7,7,73,151,146,87,39,14
-4,9,14,-2,-9,12,78,161,151,102,53,24
0,9,9,-4,-4,9,78,165,165,107,58,34
4,9,4,-7,0,7,78,170,175,117,68,39
9,19,9,-14,0,14,78,180,185,126,73,39
14,24,9,-19,2,17,78,190,195,136,82,48
19,29,9,-24,4,19,82,200,204,146,97,53
24,34,9,-29,7,21,82,204,224,161,107,58
29,53,24,-41,2,39,82,224,239,170,117,68
34,53,19,-43,7,36,82,244,253,185,126,78
39,68,29,-53,4,48,82,253,278,214,146,87
48,73,24,-61,12,48,82,278,297,234,156,97
58,78,19,-68,19,48,92,287,322,253,170,107
68,82,14,-75,26,48,92,302,346,278,180,112
82,92,9,-87,36,51,97,317,370,292,204,122
92,102,9,-97,41,56,102,331,390,317,219,136
87,117,29,-102,29,73,102,351,414,336,239,146
92,131,39,-112,26,85,102,370,439,361,258,161
102,146,43,-124,29,95,107,390,463,380,278,175
117,161,43,-139,36,102,107,400,488,400,302,195
126,175,48,-151,39,112,107,414,507,419,322,204
136,195,58,-165,39,126,112,429,536,439,331,214
146,209,63,-178,41,136,112,439,556,458,351,229
151,224,73,-187,39,148,107,448,570,473,361,248
161,248,87,-204,36,168,107,458,585,483,366,258
170,268,97,-219,36,183,102,463,600,497,380,273
170,273,102,-222,34,187,102,468,610,507,395,283
175,283,107,-229,34,195,97,468,610,512,405,292
175,292,117,-234,29,204,87,458,614,517,409,297
180,302,122,-241,29,212,82,448,614,517,409,302
190,307,117,-248,36,212,78,429,595,507,414,307
195,312,117,-253,39,214,68,405,575,497,414,312
185,317,131,-251,26,224,58,375,556,483,405,307
175,307,131,-241,21,219,48,341,522,463,385,302
170,302,131,-236,19,217,43,302,478,429,361,287
161,283,122,-222,19,202,34,263,429,395,336,268
151,263,112,-207,19,187,19,219,390,361,312,248
141,253,112,-197,14,183,4,185,336,317,278,219
131,229,97,-180,17,163,0,156,283,263,234,190
117,195,78,-156,19,136,-4,131,244,229,204,165
92,165,73,-129,9,119,-9,107,204,195,185,141
78,146,68,-112,4,107,-9,82,161,161,156,117
68,126,58,-97,4,92,-9,63,122,122,117,97
48,97,48,-73,0,73,-9,39,82,92,92,68
29,82,53,-56,-12,68,-9,24,58,58,58,43
24,63,39,-43,-7,51,-9,14,29,39,39,34
9,43,34,-26,-12,39,-4,0,4,14,19,14
-4,29,34,-12,-19,31,0,-4,-9,-4,0,-4
-14,14,29,0,-21,21,4,-19,-29,-19,-19,-14
-19,4,24,7,-21,14,4,-24,-43,-39,-29,-29
-19,4,24,7,-21,14,4,-29,-53,-48,-39,-34
-29,4,34,12,-31,19,9,-29,-53,-53,-48,-48
-29,-9,19,19,-24,4,4,-34,-58,-58,-53,-48
-29,-9,19,19,-24,4,4,-39,-58,-63,-58,-53
-34,-14,19,24,-26,2,4,-39,-63,-68,-63,-63
-39,-14,24,26,-31,4,4,-39,-68,-68,-63,-68
-43,-14,29,29,-36,7,4,-39,-73,-73,-68,-68
-43,-14,29,29,-36,7,4,-39,-78,-78,-68,-73
-43,-14,29,29,-36,7,4,-39,-78,-78,-73,-73
-43,-14,29,29,-36,7,4,-39,-73,-78,-78,-73
-43,-14,29,29,-36,7,4,-39,-73,-78,-78,-73
-39,-14,24,26,-31,4,9,-43,-73,-78,-78,-78
-43,-14,29,29,-36,7,9,-43,-73,-78,-82,-78
-48,-14,34,31,-41,9,9,-34,-73,-78,-82,-78
-48,-14,34,31,-41,9,9,-34,-78,-78,-78,-78
-48,-14,34,31,-41,9,9,-34,-78,-78,-78,-82
-48,-14,34,31,-41,9,14,-34,-73,-78,-78,-82
-48,-19,29,34,-39,4,19,-34,-68,-82,-78,-82
-53,-19,34,36,-43,7,19,-34,-68,-82,-78,-87
-53,-19,34,36,-43,7,19,-29,-68,-82,-82,-87
-58,-19,39,39,-48,9,19,-29,-68,-82,-82,-87
-58,-19,39,39,-48,9,19,-29,-63,-82,-82,-87
-58,-24,34,41,-46,4,19,-29,-68,-82,-87,-87
-63,-29,34,46,-48,2,19,-29,-73,-82,-92,-87
-63,-29,34,46,-48,2,24,-29,-73,-82,-92,-87
-63,-29,34,46,-48,2,24,-29,-73,-82,-97,-87
-58,-29,29,43,-43,0,24,-29,-73,-87,-97,-87
-53,-29,24,41,-39,-2,24,-29,-73,-92,-97,-87
-53,-29,24,41,-39,-2,24,-29,-73,-92,-97,-87
-53,-29,24,41,-39,-2,24,-29,-73,-92,-97,-87
-53,-29,24,41,-39,-2,24,-29,-78,-87,-97,-87
-53,-24,29,39,-41,2,24,-34,-82,-92,-102,-92
-53,-24,29,39,-41,2,24,-34,-82,-92,-102,-97
-58,-29,29,43,-43,0,24,-34,-82,-92,-107,-97
-58,-29,29,43,-43,0,24,-34,-78,-92,-107,-97
-53,-34,19,43,-36,-7,24,-34,-78,-97,-107,-102
-53,-34,19,43,-36,-7,24,-34,-82,-97,-107,-102
-53,-34,19,43,-36,-7,24,-34,-87,-102,-107,-102
-53,-34,19,43,-36,-7,24,-34,-87,-97,-107,-102
-53,-39,14,46,-34,-12,19,-39,-87,-97,-102,-102
-58,-39,19,48,-39,-9,14,-39,-87,-97,-102,-102
-58,-39,19,48,-39,-9,9,-39,-97,-102,-102,-107
-58,-39,19,48,-39,-9,9,-43,-97,-102,-102,-107
-63,-39,24,51,-43,-7,14,-43,-92,-97,-102,-107
-63,-39,24,51,-43,-7,14,-48,-87,-97,-107,-107
-58,-39,19,48,-39,-9,9,-53,-87,-102,-107,-112
-58,-39,19,48,-39,-9,9,-53,-97,-107,-112,-112
-63,-43,19,53,-41,-12,9,-58,-97,-107,-112,-112
-68,-43,24,56,-46,-9,9,-53,-102,-117,-112,-112
-68,-43,24,56,-46,-9,9,-48,-102,-122,-112,-112
-63,-43,19,53,-41,-12,9,-48,-102,-122,-112,-112
-63,-43,19,53,-41,-12,9,-53,-107,-122,-117,-112
-63,-43,19,53,-41,-12,9,-53,-107,-122,-117,-112
-63,-43,19,53,-41,-12,9,-53,-107,-122,-117,-112
-63,-43,19,53,-41,-12,14,-63,-102,-117,-117,-112
-68,-43,24,56,-46,-9,14,-68,-102,-117,-117,-112
-68,-43,24,56,-46,-9,14,-63,-102,-117,-117,-117
-63,-48,14,56,-39,-17,14,-63,-102,-112,-117,-117
-63,-48,14,56,-39,-17,14,-63,-102,-112,-122,-122
-63,-48,14,56,-39,-17,14,-63,-102,-117,-122,-126
-63,-48,14,56,-39,-17,14,-63,-107,-117,-122,-122
-73,-43,29,58,-51,-7,14,-63,-107,-117,-122,-122
-73,-43,29,58,-51,-7,14,-63,-102,-117,-122,-122
-73,-43,29,58,-51,-7,14,-58,-102,-117,-117,-122
-68,-43,24,56,-46,-9,14,-58,-102,-117,-117,-117
-68,-43,24,56,-46,-9,14,-58,-107,-122,-122,-112
-68,-43,24,56,-46,-9,14,-63,-107,-122,-122,-117
-68,-43,24,56,-46,-9,14,-68,-107,-117,-122,-117
-68,-43,24,56,-46,-9,19,-68,-102,-117,-122,-112
-68,-43,24,56,-46,-9,19,-68,-97,-117,-122,-107
-73,-43,29,58,-51,-7,19,-68,-102,-117,-122,-107
-73,-43,29,58,-51,-7,19,-68,-102,-117,-122,-107
-73,-39,34,56,-53,-2,14,-63,-102,-117,-117,-112
-73,-34,39,53,-56,2,14,-63,-102,-112,-112,-112
-68,-34,34,51,-51,0,14,-63,-97,-112,-112,-102
-68,-34,34,51,-51,0,14,-63,-97,-112,-112,-102
-68,-34,34,51,-51,0,14,-68,-97,-112,-112,-102
-68,-34,34,51,-51,0,14,-73,-97,-112,-112,-102
-68,-39,29,53,-48,-4,14,-68,-97,-112,-117,-102
-68,-43,24,56,-46,-9,14,-68,-97,-112,-117,-102
-68,-43,24,56,-46,-9,14,-68,-97,-107,-117,-102
-73,-43,29,58,-51,-7,14,-68,-102,-107,-117,-107
-73,-43,29,58,-51,-7,14,-68,-102,-107,-117,-107
-68,-43,24,56,-46,-9,14,-68,-102,-112,-117,-102
-68,-43,24,56,-46,-9,14,-63,-102,-112,-112,-102
-68,-43,24,56,-46,-9,14,-58,-107,-107,-112,-102
-68,-43,24,56,-46,-9,14,-63,-102,-112,-112,-107
-68,-43,24,56,-46,-9,9,-63,-102,-117,-112,-112
-68,-43,24,56,-46,-9,9,-68,-107,-117,-112,-112
-68,-43,24,56,-46,-9,14,-73,-107,-112,-112,-117
-73,-39,34,56,-53,-2,14,-68,-107,-112,-112,-117
-73,-39,34,56,-53,-2,14,-73,-107,-112,-112,-117
-73,-34,39,53,-56,2,14,-78,-97,-112,-117,-122
-68,-34,34,51,-51,0,19,-63,-92,-107,-117,-112
-68,-34,34,51,-51,0,14,-58,-92,-107,-112,-112
-68,-34,34,51,-51,0,14,-58,-97,-107,-112,-117
-63,-24,39,43,-51,7,19,-53,-87,-97,-102,-112
-58,-19,39,39,-48,9,29,-48,-78,-87,-97,-107
-53,-9,43,31,-48,17,34,-39,-68,-82,-87,-102
-48,0,48,24,-48,24,39,-29,-58,-78,-78,-97
-43,0,43,21,-43,21,43,-24,-48,-68,-73,-97
-39,0,39,19,-39,19,48,-19,-39,-58,-68,-97
-34,0,34,17,-34,17,53,-19,-34,-53,-68,-97
-19,0,19,9,-19,9,53,-4,-24,-43,-58,-92
-4,-4,0,4,-2,-2,58,4,-19,-39,-48,-87
24,0,-24,-12,24,-12,53,19,-9,-29,-39,-78
39,0,-39,-19,39,-19,43,29,0,-19,-34,-63
48,0,-48,-24,48,-24,43,34,4,-14,-29,-58
48,0,-48,-24,48,-24,39,39,9,-9,-24,-58
53,9,-43,-31,48,-17,29,39,9,-4,-19,-39
43,9,-34,-26,39,-12,14,19,9,-4,-19,-39
34,9,-24,-21,29,-7,-14,-29,-29,-39,-39,-58
14,4,-9,-9,12,-2,-43,-78,-87,-78,-68,-78
9,-9,-19,0,14,-14,-53,-87,-102,-97,-78,-92
14,-19,-34,2,24,-26,-43,-78,-102,-97,-78,-97
24,-14,-39,-4,31,-26,-39,-73,-102,-97,-87,-97
29,-24,-53,-2,41,-39,-39,-73,-102,-102,-92,-102
34,-29,-63,-2,48,-46,-39,-78,-117,-107,-107,-107
24,-34,-58,4,41,-46,-39,-78,-117,-112,-107,-117
19,-34,-53,7,36,-43,-34,-78,-117,-112,-107,-122
-9,-34,-24,21,7,-29,-19,-78,-102,-112,-107,-122
-34,-29,4,31,-19,-12,-9,-73,-97,-112,-107,-122
-58,-29,29,43,-43,0,-4,-78,-97,-112,-112,-131
-68,-39,29,53,-48,-4,-4,-92,-112,-126,-131,-141
-68,-43,24,56,-46,-9,-4,-92,-122,-136,-141,-136
-68,-48,19,58,-43,-14,-4,-92,-126,-136,-141,-126
-73,-58,14,65,-43,-21,0,-92,-126,-131,-136,-131
-73,-63,9,68,-41,-26,9,-92,-122,-131,-136,-131
-82,-63,19,73,-51,-21,9,-92,-122,-131,-136,-131
-92,-63,29,78,-61,-17,9,-97,-126,-131,-136,-136
-92,-58,34,75,-63,-12,9,-97,-122,-131,-141,-141
-92,-53,39,73,-65,-7,9,-97,-117,-131,-141,-146
-92,-53,39,73,-65,-7,4,-92,-112,-131,-141,-146
-92,-53,39,73,-65,-7,4,-92,-112,-131,-136,-141
-92,-53,39,73,-65,-7,0,-92,-112,-126,-136,-141
-92,-53,39,73,-65,-7,-4,-92,-117,-126,-136,-141
-87,-53,34,70,-61,-9,-4,-87,-117,-122,-126,-141
-82,-53,29,68,-56,-12,-4,-87,-117,-117,-122,-136
-78,-53,24,65,-51,-14,0,-78,-107,-117,-122,-136
-68,-53,14,61,-41,-19,4,-73,-92,-117,-117,-136
-63,-68,-4,65,-29,-36,9,-53,-78,-102,-107,-136
-58,-68,-9,63,-24,-39,9,-29,-48,-73,-87,-131
-29,-63,-34,46,2,-48,-9,0,9,-19,-43,-117
48,-39,-87,-4,68,-63,-24,107,156,126,78,-39
200,14,-185,-107,192,-85,-73,185,336,331,263,87
405,112,-292,-258,348,-90,-156,185,492,566,488,248
614,239,-375,-427,495,-68,-297,58,556,741,717,419
795,429,-366,-612,580,31,-458,-107,585,922,976,649
775,649,-126,-712,451,261,-649,-463,444,941,1083,810
541,673,131,-607,204,402,-756,-956,-78,448,688,624
204,497,292,-351,-43,395,-800,-1439,-917,-478,-165,112
-107,400,507,-146,-307,453,-805,-1742,-1459,-1058,-668,-209
-214,375,590,-80,-402,483,-819,-1771,-1644,-1234,-790,-283
-204,409,614,-102,-409,512,-795,-1659,-1503,-1132,-722,-253
-204,395,600,-95,-402,497,-736,-1449,-1312,-1000,-658,-248
-195,395,590,-100,-392,492,-614,-1146,-1044,-800,-527,-204
-161,341,502,-90,-331,422,-497,-878,-780,-605,-414,-161
-107,283,390,-87,-248,336,-405,-658,-575,-448,-312,-136
-82,219,302,-68,-192,261,-307,-492,-434,-356,-253,-131
-73,156,229,-41,-151,192,-195,-346,-326,-273,-200,-117
-68,107,175,-19,-122,141,-122,-229,-214,-195,-151,-107
-63,63,126,0,-95,95,-73,-141,-122,-122,-102,-97
-53,34,87,9,-70,61,-34,-82,-78,-87,-87,-92
-53,4,58,24,-56,31,0,-39,-53,-73,-82,-92
-53,-9,43,31,-48,17,14,-14,-43,-63,-82,-92
-53,-9,43,31,-48,17,9,-9,-24,-58,-73,-92
-53,-9,43,31,-48,17,9,-4,-29,-48,-73,-92
-43,-9,34,26,-39,12,19,4,-34,-48,-63,-92
-43,-9,34,26,-39,12,24,19,-19,-43,-63,-87
-43,-4,39,24,-41,17,24,29,-9,-29,-58,-87
-43,0,43,21,-43,21,24,29,9,-19,-53,-87
-39,0,39,19,-39,19,19,34,19,-9,-48,-87
-39,0,39,19,-39,19,24,39,24,-9,-43,-87
-39,-4,34,21,-36,14,34,43,34,0,-34,-87
-39,-4,34,21,-36,14,39,48,43,0,-29,-87
-39,0,39,19,-39,19,39,58,48,0,-24,-82
-34,0,34,17,-34,17,43,63,43,9,-19,-68
-34,-4,29,19,-31,12,43,63,43,9,-24,-68
-29,-4,24,17,-26,9,39,73,48,14,-19,-68
-29,0,29,14,-29,14,39,87,53,24,-19,-68
-19,-4,14,12,-17,4,39,87,63,29,-9,-63
-14,-9,4,12,-9,-2,39,102,68,34,-9,-58
-9,-4,4,7,-7,0,34,102,78,34,0,-58
-4,-4,0,4,-2,-2,29,102,82,43,0,-58
-4,-4,0,4,-2,-2,34,107,92,48,14,-53
0,4,4,-2,-2,4,34,117,102,58,14,-48
0,4,4,-2,-2,4,39,131,112,68,24,-48
4,4,0,-4,2,2,43,141,126,78,29,-43
4,9,4,-7,0,7,48,151,126,87,43,-39
9,14,4,-12,2,9,48,161,136,87,48,-34
19,24,4,-21,7,14,43,170,146,97,58,-29
29,39,9,-34,9,24,39,180,156,107,63,-29
34,43,9,-39,12,26,34,190,165,117,73,-19
39,48,9,-43,14,29,34,204,180,131,87,-14
48,48,0,-48,24,24,34,214,200,151,97,-9
58,63,4,-61,26,34,34,234,209,161,107,0
63,63,0,-63,31,31,39,253,224,170,117,4
73,78,4,-75,34,41,43,263,248,190,136,9
82,82,0,-82,41,41,43,287,268,204,146,19
87,92,4,-90,41,48,53,302,292,224,165,39
97,102,4,-100,46,53,53,322,317,248,180,53
112,112,0,-112,56,56,53,341,341,263,204,63
126,122,-4,-124,65,58,53,361,361,287,219,82
131,136,4,-134,63,70,53,380,385,307,239,97
141,151,9,-146,65,80,53,400,409,331,258,112
151,165,14,-158,68,90,58,419,434,356,278,126
165,180,14,-173,75,97,58,429,458,380,302,151
175,195,19,-185,78,107,58,444,478,400,322,170
185,214,29,-200,78,122,63,463,507,419,331,185
195,229,34,-212,80,131,63,478,527,439,356,200
200,244,43,-222,78,143,58,488,541,453,370,219
209,263,53,-236,78,158,58,492,551,463,375,224
224,278,53,-251,85,165,53,492,561,478,390,234
229,283,53,-256,87,168,53,492,570,488,400,244
234,292,58,-263,87,175,48,488,561,492,405,253
234,302,68,-268,82,185,39,473,551,492,409,258
234,312,78,-273,78,195,39,468,561,488,409,263
229,312,82,-270,73,197,39,453,556,478,405,263
224,312,87,-268,68,200,29,424,541,468,395,253
214,312,97,-263,58,204,19,395,522,448,385,239
204,297,92,-251,56,195,9,356,483,429,366,244
200,292,92,-246,53,192,4,312,439,395,341,239
190,273,82,-231,53,178,-4,273,395,356,317,219
170,248,78,-209,46,163,-9,229,361,322,287,200
146,234,87,-190,29,161,-9,195,307,278,248,170
126,209,82,-168,21,146,-9,156,253,224,204,141
107,165,58,-136,24,112,-14,122,219,195,175,117
82,126,43,-104,19,85,-14,97,190,165,151,92
68,117,48,-92,9,82,-9,73,151,131,122,73
58,107,48,-82,4,78,-9,53,112,92,87,53
39,78,39,-58,0,58,-9,29,73,63,63,24
19,63,43,-41,-12,53,-9,14,53,34,34,4
9,43,34,-26,-12,39,-4,4,34,24,19,-4
-4,29,34,-12,-19,31,0,-9,14,4,0,-24
-14,19,34,-2,-24,26,0,-14,0,-14,-19,-48
-24,4,29,9,-26,17,4,-24,-14,-24,-34,-58
-29,-14,14,21,-21,0,4,-24,-24,-39,-39,-68
-29,-29,0,29,-14,-14,4,-29,-34,-48,-48,-73
-39,-24,14,31,-26,-4,9,-34,-34,-48,-53,-87
-39,-29,9,34,-24,-9,9,-39,-39,-53,-53,-87
-39,-29,9,34,-24,-9,14,-39,-43,-63,-58,-87
-43,-34,9,39,-26,-12,14,-39,-53,-68,-63,-87
-48,-34,14,41,-31,-9,9,-39,-58,-68,-63,-87
-53,-34,19,43,-36,-7,4,-39,-58,-68,-68,-87
-48,-34,14,41,-31,-9,4,-34,-58,-68,-68,-97
-43,-34,9,39,-26,-12,4,-29,-58,-68,-68,-102
-43,-34,9,39,-26,-12,9,-29,-53,-68,-68,-102
-43,-34,9,39,-26,-12,14,-29,-53,-68,-68,-102
-48,-39,9,43,-29,-14,19,-34,-53,-68,-68,-107
-58,-43,14,51,-36,-14,19,-34,-53,-68,-73,-107
-58,-43,14,51,-36,-14,19,-24,-53,-68,-73,-107
-58,-43,14,51,-36,-14,19,-24,-58,-68,-73,-107
-53,-39,14,46,-34,-12,14,-29,-58,-68,-78,-112
-48,-34,14,41,-31,-9,9,-34,-58,-68,-78,-112
-48,-39,9,43,-29,-14,9,-34,-58,-73,-78,-112
-53,-39,14,46,-34,-12,9,-34,-58,-73,-78,-117
-53,-39,14,46,-34,-12,9,-29,-63,-78,-82,-117
-58,-39,19,48,-39,-9,9,-29,-68,-82,-82,-117
-63,-43,19,53,-41,-12,9,-34,-63,-82,-82,-117
-63,-48,14,56,-39,-17,9,-39,-63,-82,-82,-117
-63,-48,14,56,-39,-17,9,-39,-63,-73,-82,-112
-63,-48,14,56,-39,-17,14,-39,-63,-63,-78,-107
-63,-48,14,56,-39,-17,14,-34,-63,-73,-78,-107
-63,-48,14,56,-39,-17,14,-29,-63,-82,-78,-107
-63,-48,14,56,-39,-17,14,-29,-63,-82,-82,-112
-63,-48,14,56,-39,-17,14,-29,-63,-82,-87,-117
-63,-48,14,56,-39,-17,19,-29,-63,-82,-92,-126
-63,-53,9,58,-36,-21,24,-29,-68,-82,-97,-136
-63,-53,9,58,-36,-21,24,-34,-73,-92,-102,-141
-63,-53,9,58,-36,-21,24,-34,-73,-92,-102,-146
-68,-58,9,63,-39,-24,24,-34,-73,-92,-97,-141
-68,-58,9,63,-39,-24,24,-34,-68,-87,-87,-131
-63,-68,-4,65,-29,-36,24,-34,-68,-102,-97,-131
-63,-73,-9,68,-26,-41,24,-34,-73,-117,-107,-131
-63,-73,-9,68,-26,-41,19,-34,-78,-107,-107,-126
-63,-68,-4,65,-29,-36,14,-34,-78,-92,-112,-126
-63,-68,-4,65,-29,-36,9,-39,-78,-97,-102,-126
-68,-68,0,68,-34,-34,9,-39,-78,-97,-92,-122
-68,-73,-4,70,-31,-39,14,-39,-82,-102,-92,-126
-68,-78,-9,73,-29,-43,19,-43,-78,-102,-92,-126
-73,-78,-4,75,-34,-41,24,-43,-73,-97,-92,-126
-73,-78,-4,75,-34,-41,24,-43,-73,-97,-97,-126
-63,-73,-9,68,-26,-41,14,-43,-78,-102,-102,-136
-58,-68,-9,63,-24,-39,9,-43,-87,-107,-112,-141
-63,-73,-9,68,-26,-41,9,-48,-87,-107,-112,-141
-68,-73,-4,70,-31,-39,9,-48,-87,-112,-112,-141
-73,-82,-9,78,-31,-46,9,-48,-82,-112,-112,-146
-73,-92,-19,82,-26,-56,9,-48,-82,-112,-112,-151
-73,-82,-9,78,-31,-46,9,-53,-87,-112,-117,-151
-73,-73,0,73,-36,-36,9,-53,-87,-112,-117,-151
-73,-73,0,73,-36,-36,9,-53,-87,-112,-112,-146
-73,-73,0,73,-36,-36,9,-58,-87,-112,-107,-141
-78,-82,-4,80,-36,-43,9,-58,-97,-117,-107,-141
-78,-92,-14,85,-31,-53,14,-53,-102,-117,-107,-146
-73,-87,-14,80,-29,-51,14,-53,-102,-112,-107,-151
-73,-78,-4,75,-34,-41,14,-53,-102,-112,-112,-156
-73,-78,-4,75,-34,-41,14,-53,-102,-117,-112,-161
-73,-78,-4,75,-34,-41,14,-53,-107,-117,-112,-161
-78,-73,4,75,-41,-34,14,-53,-107,-117,-117,-165
-73,-73,0,73,-36,-36,14,-58,-102,-117,-122,-170
-73,-73,0,73,-36,-36,14,-58,-102,-117,-117,-170
-68,-73,-4,70,-31,-39,14,-58,-102,-117,-117,-170
-68,-78,-9,73,-29,-43,14,-58,-107,-122,-117,-156
-68,-82,-14,75,-26,-48,14,-58,-107,-122,-112,-146
-68,-82,-14,75,-26,-48,14,-58,-107,-117,-112,-146
-68,-82,-14,75,-26,-48,19,-58,-107,-117,-112,-146
-73,-82,-9,78,-31,-46,19,-58,-107,-117,-117,-146
-82,-82,0,82,-41,-41,19,-58,-112,-117,-122,-146
-82,-82,0,82,-41,-41,14,-58,-112,-117,-122,-146
-82,-82,0,82,-41,-41,4,-58,-112,-122,-122,-151
-82,-78,4,80,-43,-36,4,-63,-112,-122,-122,-156
-78,-73,4,75,-41,-34,4,-63,-107,-122,-122,-151
-78,-73,4,75,-41,-34,4,-63,-112,-122,-122,-156
-78,-73,4,75,-41,-34,4,-63,-117,-122,-122,-161
-78,-78,0,78,-39,-39,4,-63,-117,-122,-122,-161
-78,-82,-4,80,-36,-43,4,-58,-117,-122,-126,-161
-78,-82,-4,80,-36,-43,9,-58,-112,-122,-122,-161
-78,-82,-4,80,-36,-43,14,-58,-107,-117,-117,-161
-82,-82,0,82,-41,-41,14,-58,-112,-117,-117,-165
-78,-82,-4,80,-36,-43,14,-58,-112,-117,-117,-161
-73,-68,4,70,-39,-31,19,-48,-107,-107,-107,-151
-73,-58,14,65,-43,-21,29,-43,-102,-102,-102,-141
-63,-48,14,56,-39,-17,39,-29,-82,-87,-87,-131
-58,-39,19,48,-39,-9,48,-19,-68,-78,-78,-126
-58,-39,19,48,-39,-9,53,-14,-63,-78,-78,-131
-58,-39,19,48,-39,-9,58,-9,-58,-78,-78,-136
-48,-39,9,43,-29,-14,58,-9,-58,-78,-82,-141
-34,-39,-4,36,-14,-21,53,0,-53,-73,-73,-136
-19,-43,-24,31,2,-34,53,9,-48,-68,-68,-136
4,-39,-43,17,24,-41,43,19,-39,-58,-58,-126
9,-39,-48,14,29,-43,34,29,-29,-48,-53,-107
9,-39,-48,14,29,-43,34,34,-24,-43,-48,-97
19,-39,-58,9,39,-48,34,39,-14,-34,-39,-97
34,-29,-63,-2,48,-46,29,39,-9,-24,-29,-78
34,-29,-63,-2,48,-46,14,24,-9,-24,-29,-78
34,-29,-63,-2,48,-46,-14,-19,-48,-58,-48,-97
4,-34,-39,14,21,-36,-43,-68,-107,-97,-82,-117
-9,-48,-39,29,14,-43,-53,-78,-122,-117,-97,-131
-9,-68,-58,39,24,-63,-43,-73,-122,-122,-102,-136
-4,-73,-68,39,31,-70,-39,-73,-122,-126,-117,-136
0,-87,-87,43,43,-87,-39,-73,-126,-131,-117,-141
4,-97,-102,46,53,-100,-39,-78,-146,-136,-126,-146
-4,-102,-97,53,46,-100,-39,-73,-146,-141,-126,-151
-9,-102,-92,56,41,-97,-34,-68,-146,-141,-126,-151
-29,-97,-68,63,19,-82,-19,-68,-131,-136,-122,-151
-43,-87,-43,65,0,-65,-9,-63,-126,-131,-117,-151
-68,-87,-19,78,-24,-53,0,-58,-126,-131,-122,-156
-78,-97,-19,87,-29,-58,4,-63,-141,-146,-141,-161
-78,-102,-24,90,-26,-63,4,-63,-146,-156,-151,-165
-78,-107,-29,92,-24,-68,4,-63,-146,-156,-151,-165
-82,-107,-24,95,-29,-65,4,-63,-146,-151,-146,-175
-82,-102,-19,92,-31,-61,9,-63,-141,-151,-146,-180
-87,-102,-14,95,-36,-58,9,-68,-141,-156,-146,-180
-92,-102,-9,97,-41,-56,9,-78,-146,-161,-146,-185
-92,-102,-9,97,-41,-56,9,-78,-146,-161,-151,-180
-92,-102,-9,97,-41,-56,9,-78,-146,-161,-151,-175
-92,-102,-9,97,-41,-56,9,-68,-141,-161,-151,-175
-92,-102,-9,97,-41,-56,14,-63,-141,-161,-146,-170
-92,-102,-9,97,-41,-56,14,-63,-136,-156,-146,-165
-92,-102,-9,97,-41,-56,14,-63,-136,-156,-146,-161
-87,-102,-14,95,-36,-58,14,-58,-136,-146,-136,-161
-82,-102,-19,92,-31,-61,14,-58,-136,-136,-131,-156
-82,-102,-19,92,-31,-61,9,-53,-136,-131,-126,-146
-78,-102,-24,90,-26,-63,4,-53,-131,-126,-117,-136
-78,-122,-43,100,-17,-82,4,-39,-107,-117,-117,-141
-78,-126,-48,102,-14,-87,0,-19,-68,-92,-107,-141
-58,-136,-78,97,9,-107,-14,4,-29,-48,-68,-126
9,-126,-136,58,73,-131,-24,107,97,87,48,-48
141,-53,-195,-43,168,-124,-63,185,292,307,253,87
326,63,-263,-195,295,-100,-136,185,463,556,497,258
522,195,-326,-358,424,-65,-258,102,561,785,775,473
688,390,-297,-539,492,46,-400,-19,624,1019,1083,746
712,639,-73,-675,392,283,-575,-326,551,1117,1278,971
522,692,170,-607,175,431,-668,-771,97,702,971,849
161,502,341,-331,-90,422,-697,-1263,-805,-336,-24,244
-175,390,566,-107,-370,478,-688,-1576,-1410,-1029,-668,-170
-297,351,649,-26,-473,500,-712,-1659,-1664,-1263,-824,-283
-302,370,673,-34,-488,522,-697,-1600,-1590,-1220,-790,-292
-292,341,634,-24,-463,488,-673,-1424,-1424,-1107,-741,-302
-273,326,600,-26,-436,463,-585,-1156,-1180,-927,-624,-273
-244,258,502,-7,-373,380,-468,-888,-917,-732,-517,-239
-195,185,380,4,-287,283,-375,-668,-712,-575,-419,-224
-151,146,297,2,-224,222,-297,-492,-546,-458,-341,-195
-122,107,229,7,-175,168,-204,-336,-414,-351,-268,-156
-107,63,170,21,-139,117,-131,-219,-287,-258,-204,-136
-92,24,117,34,-104,70,-82,-131,-180,-170,-141,-117
-78,-9,68,43,-73,29,-39,-68,-131,-131,-112,-107
-73,-43,29,58,-51,-7,0,-19,-102,-112,-92,-102
-68,-58,9,63,-39,-24,19,9,-82,-92,-92,-102
-63,-58,4,61,-34,-26,19,19,-53,-78,-82,-102
-63,-58,4,61,-34,-26,19,24,-53,-68,-78,-102
-53,-58,-4,56,-24,-31,29,34,-53,-68,-63,-102
-53,-68,-14,61,-19,-41,39,48,-39,-63,-63,-97
-53,-73,-19,63,-17,-46,43,58,-29,-48,-58,-97
-53,-68,-14,61,-19,-41,43,58,-19,-43,-53,-97
-48,-68,-19,58,-14,-43,39,63,-19,-39,-48,-97
-48,-63,-14,56,-17,-39,39,68,-14,-39,-48,-92
-48,-63,-14,56,-17,-39,43,73,-4,-29,-43,-87
-48,-63,-14,56,-17,-39,48,78,0,-24,-39,-87
-48,-58,-9,53,-19,-34,48,87,0,-19,-34,-82
-43,-58,-14,51,-14,-36,48,92,4,-9,-24,-73
-43,-63,-19,53,-12,-41,43,92,14,-9,-24,-78
-39,-58,-19,48,-9,-39,43,92,14,-14,-24,-78
-39,-48,-9,43,-14,-29,48,97,14,-14,-29,-78
-34,-43,-9,39,-12,-26,48,97,19,-9,-19,-73
-34,-39,-4,36,-14,-21,48,112,19,-4,-19,-68
-29,-34,-4,31,-12,-19,48,117,29,-4,-14,-63
-24,-34,-9,29,-7,-21,48,122,34,4,-19,-58
-24,-39,-14,31,-4,-26,53,126,43,9,-4,-53
-19,-34,-14,26,-2,-24,53,136,53,19,-4,-48
-14,-34,-19,24,2,-26,48,146,63,29,9,-48
-4,-34,-29,19,12,-31,43,151,78,39,19,-43
-4,-29,-24,17,9,-26,48,156,82,53,34,-34
0,-24,-24,12,12,-24,48,161,97,58,39,-24
4,-19,-24,7,14,-21,48,170,107,68,43,-19
9,-9,-19,0,14,-14,48,180,117,78,43,-19
14,-4,-19,-4,17,-12,43,185,122,87,53,-4
19,0,-19,-9,19,-9,43,195,131,102,68,4
24,4,-19,-14,21,-7,43,204,156,122,78,14
29,24,-4,-26,17,9,43,224,170,131,87,29
34,24,-9,-29,21,7,43,239,180,141,97,39
43,39,-4,-41,24,17,43,244,200,161,117,48
58,48,-9,-53,34,19,43,268,214,175,126,53
68,63,-4,-65,36,29,53,283,234,195,146,68
78,73,-4,-75,41,34,48,297,258,219,161,82
92,82,-9,-87,51,36,43,312,283,234,185,92
102,92,-9,-97,56,41,43,331,302,258,200,112
102,107,4,-104,48,56,43,351,326,278,219,126
112,112,0,-112,56,56,43,370,351,302,248,141
122,117,-4,-119,63,56,48,390,375,326,278,156
136,131,-4,-134,70,63,48,400,400,351,292,175
146,146,0,-146,73,73,48,414,419,370,302,190
156,180,24,-168,65,102,53,429,448,390,312,204
165,209,43,-187,61,126,53,439,468,409,336,219
170,214,43,-192,63,129,48,448,483,424,356,239
180,224,43,-202,68,134,48,453,492,434,366,244
190,239,48,-214,70,143,43,453,502,448,380,253
190,244,53,-217,68,148,43,453,512,458,390,263
195,253,58,-224,68,156,43,453,512,463,395,273
195,263,68,-229,63,165,39,444,512,463,400,278
200,273,73,-236,63,173,34,429,507,458,400,278
200,273,73,-236,63,173,29,405,488,448,395,273
195,273,78,-234,58,175,24,375,468,439,385,273
185,273,87,-229,48,180,19,346,444,419,375,268
170,258,87,-214,41,173,9,312,409,395,356,263
161,253,92,-207,34,173,4,273,370,356,331,248
151,234,82,-192,34,158,0,244,326,322,307,234
131,209,78,-170,26,143,0,209,292,292,278,219
112,195,82,-153,14,139,-4,175,239,248,239,190
97,170,73,-134,12,122,-9,136,185,195,195,161
78,136,58,-107,9,97,-9,107,146,161,165,136
53,107,53,-80,0,80,-4,87,112,126,141,112
39,87,48,-63,-4,68,0,63,73,87,97,82
29,68,39,-48,-4,53,0,43,34,43,48,53
4,39,34,-21,-14,36,0,24,-4,14,24,19
-19,24,43,-2,-31,34,0,14,-24,-14,-4,-4
-24,4,29,9,-26,17,0,4,-39,-24,-14,-14
-34,-9,24,21,-29,7,0,-9,-53,-43,-29,-34
-43,-19,24,31,-34,2,4,-14,-68,-63,-48,-53
-53,-34,19,43,-36,-7,14,-24,-82,-73,-63,-58
-53,-39,14,46,-34,-12,14,-24,-97,-87,-73,-73
-53,-39,14,46,-34,-12,19,-29,-112,-97,-92,-92
-53,-39,14,46,-34,-12,19,-29,-112,-97,-92,-92
