I, II, III, aVR, aVL, aVF, V1, V2, V3, V4, V5, V6
922,2005,1083,-1464,-80,1544,-1322,-356,497,1356,1522,1546
824,1834,1010,-1329,-92,1422,-1205,-351,448,1268,1429,1459
717,1590,873,-1154,-78,1232,-1078,-317,366,1122,1283,1327
600,1312,712,-956,-56,1012,-922,-263,273,941,1098,1161
488,1010,522,-749,-17,766,-756,-200,156,741,893,971
375,727,351,-551,12,539,-585,-141,53,546,697,790
278,488,209,-383,34,348,-444,-97,-39,366,512,619
190,317,126,-253,31,222,-322,-68,-97,234,366,478
131,209,78,-170,26,143,-229,-43,-112,156,273,370
87,146,58,-117,14,102,-151,-34,-112,107,209,292
58,117,58,-87,0,87,-107,-29,-102,82,156,229
39,97,58,-68,-9,78,-78,-29,-78,73,126,175
19,87,68,-53,-24,78,-53,-24,-58,78,102,136
4,68,63,-36,-29,65,-39,-24,-43,73,78,97
-14,39,53,-12,-34,46,-19,-19,-39,63,48,58
-29,9,39,9,-34,24,0,-19,-43,48,19,24
-43,-24,19,34,-31,-2,9,-14,-48,34,0,0
-53,-48,4,51,-29,-21,19,-19,-53,19,-19,-29
-63,-63,0,63,-31,-31,34,-19,-58,14,-34,-39
-78,-78,0,78,-39,-39,43,-24,-58,9,-39,-43
-87,-87,0,87,-43,-43,48,-29,-63,4,-43,-53
-92,-97,-4,95,-43,-51,58,-29,-68,0,-48,-58
-97,-107,-9,102,-43,-58,68,-24,-68,-9,-53,-58
-97,-112,-14,104,-41,-63,73,-19,-68,-9,-53,-58
-92,-112,-19,102,-36,-65,73,-24,-78,-19,-63,-68
-87,-117,-29,102,-29,-73,73,-19,-78,-19,-68,-73
-82,-117,-34,100,-24,-75,78,-14,-73,-19,-68,-73
-82,-117,-34,100,-24,-75,78,-19,-73,-19,-68,-78
-87,-117,-29,102,-29,-73,78,-29,-73,-19,-68,-78
-92,-117,-24,104,-34,-70,82,-34,-68,-14,-63,-73
-102,-117,-14,109,-43,-65,82,-43,-63,-19,-63,-73
-107,-117,-9,112,-48,-63,87,-43,-63,-14,-63,-73
-112,-117,-4,114,-53,-61,87,-48,-63,-14,-63,-73
-112,-117,-4,114,-53,-61,82,-43,-63,-14,-63,-73
-107,-117,-9,112,-48,-63,82,-39,-58,-14,-63,-73
-102,-112,-9,107,-46,-61,78,-34,-63,-19,-63,-78
-87,-107,-19,97,-34,-63,73,-29,-63,-19,-68,-78
-78,-102,-24,90,-26,-63,68,-19,-63,-14,-68,-73
-63,-97,-34,80,-14,-65,58,-14,-68,-24,-73,-82
-58,-97,-39,78,-9,-68,63,-9,-63,-24,-73,-78
-58,-97,-39,78,-9,-68,63,0,-63,-24,-73,-78
-58,-97,-39,78,-9,-68,63,4,-63,-19,-73,-82
-58,-102,-43,80,-7,-73,63,4,-63,-24,-73,-82
-63,-107,-43,85,-9,-75,63,4,-63,-19,-73,-82
-68,-112,-43,90,-12,-78,63,4,-63,-19,-73,-82
-73,-107,-34,90,-19,-70,63,4,-63,-19,-73,-82
-73,-107,-34,90,-19,-70,63,4,-63,-19,-73,-82
-73,-107,-34,90,-19,-70,63,4,-58,-19,-68,-78
-73,-102,-29,87,-21,-65,58,4,-63,-19,-73,-82
-73,-97,-24,85,-24,-61,58,9,-53,-14,-68,-78
-63,-87,-24,75,-19,-56,53,14,-48,-14,-68,-78
-58,-87,-29,73,-14,-58,43,14,-53,-14,-68,-82
-53,-87,-34,70,-9,-61,43,14,-53,-14,-68,-82
-48,-87,-39,68,-4,-63,43,14,-53,-14,-73,-82
-48,-92,-43,70,-2,-68,39,9,-53,-14,-78,-87
-58,-97,-39,78,-9,-68,48,4,-53,-19,-78,-87
-68,-107,-39,87,-14,-73,53,0,-58,-19,-78,-92
-78,-107,-29,92,-24,-68,63,0,-53,-19,-78,-87
-87,-107,-19,97,-34,-63,73,0,-48,-14,-73,-82
-92,-107,-14,100,-39,-61,73,-9,-48,-9,-68,-82
-102,-107,-4,104,-48,-56,82,0,-39,0,-63,-78
-97,-107,-9,102,-43,-58,78,-9,-43,-9,-68,-82
-92,-102,-9,97,-41,-56,78,4,-43,-9,-68,-82
-87,-102,-14,95,-36,-58,78,4,-48,-14,-73,-87
-78,-102,-24,90,-26,-63,78,9,-48,-14,-73,-87
-73,-102,-29,87,-21,-65,73,9,-48,-19,-78,-92
-68,-102,-34,85,-17,-68,78,14,-48,-19,-78,-92
-68,-102,-34,85,-17,-68,82,4,-43,-19,-82,-97
-78,-107,-29,92,-24,-68,87,0,-43,-19,-78,-92
-82,-112,-29,97,-26,-70,92,-14,-39,-14,-78,-92
-92,-117,-24,104,-34,-70,97,-19,-43,-14,-78,-92
-102,-122,-19,112,-41,-70,102,-29,-43,-19,-82,-92
-117,-131,-14,124,-51,-73,107,-39,-48,-19,-82,-92
-126,-131,-4,129,-61,-68,112,-39,-43,-19,-78,-92
-126,-131,-4,129,-61,-68,117,-43,-43,-19,-82,-92
-131,-131,0,131,-65,-65,117,-39,-43,-19,-78,-92
-131,-126,4,129,-68,-61,117,-34,-39,-14,-78,-92
-126,-122,4,124,-65,-58,117,-24,-39,-14,-78,-97
-117,-117,0,117,-58,-58,107,-14,-39,-14,-78,-97
-102,-112,-9,107,-46,-61,102,0,-39,-14,-82,-97
-87,-112,-24,100,-31,-68,97,9,-39,-14,-82,-97
-82,-107,-24,95,-29,-65,92,14,-43,-19,-87,-102
-78,-107,-29,92,-24,-68,92,14,-43,-19,-87,-102
-78,-107,-29,92,-24,-68,92,9,-39,-19,-87,-102
-82,-102,-19,92,-31,-61,97,4,-34,-19,-87,-97
-82,-97,-14,90,-34,-56,97,0,-24,-14,-82,-97
-87,-97,-9,92,-39,-53,102,-9,-19,-9,-78,-92
-92,-92,0,92,-46,-46,102,-14,-19,-9,-78,-92
-97,-92,4,95,-51,-43,102,-19,-19,-9,-73,-92
-97,-92,4,95,-51,-43,102,-14,-14,-9,-78,-92
-97,-87,9,92,-53,-39,102,-9,-14,-9,-73,-92
-102,-87,14,95,-58,-36,97,0,-14,0,-73,-92
-97,-87,9,92,-53,-39,97,9,-9,0,-73,-92
-92,-87,4,90,-48,-41,97,24,0,4,-73,-87
-82,-82,0,82,-41,-41,97,29,0,0,-73,-92
-78,-82,-4,80,-36,-43,97,34,-9,-9,-78,-97
-73,-87,-14,80,-29,-51,102,34,-9,-14,-82,-102
-73,-92,-19,82,-26,-56,112,34,-9,-14,-87,-107
-78,-97,-19,87,-29,-58,117,29,-9,-19,-92,-112
-82,-102,-19,92,-31,-61,122,24,-9,-19,-92,-112
-92,-102,-9,97,-41,-56,131,14,0,-14,-87,-112
-107,-102,4,104,-56,-48,136,14,9,-9,-87,-107
-117,-102,14,109,-65,-43,136,9,9,-9,-87,-107
-126,-102,24,114,-75,-39,141,9,14,0,-82,-102
-126,-97,29,112,-78,-34,141,14,19,0,-78,-97
-126,-92,34,109,-80,-29,136,14,19,0,-82,-97
-117,-87,29,102,-73,-29,136,24,19,0,-82,-97
-102,-82,19,92,-61,-31,131,29,24,0,-82,-102
-92,-78,14,85,-53,-31,136,39,29,4,-78,-102
-87,-68,19,78,-53,-24,136,39,29,4,-78,-102
-82,-63,19,73,-51,-21,141,39,34,9,-78,-102
-82,-58,24,70,-53,-17,146,39,43,14,-73,-97
-92,-58,34,75,-63,-12,156,39,48,19,-68,-92
-102,-58,43,80,-73,-7,161,29,48,19,-73,-92
-107,-63,43,85,-75,-9,165,24,53,24,-68,-92
-112,-63,48,87,-80,-7,170,19,53,19,-73,-92
-117,-63,53,90,-85,-4,175,19,58,19,-73,-92
-122,-73,48,97,-85,-12,180,14,58,14,-73,-92
-131,-73,58,102,-95,-7,180,4,53,14,-78,-97
-131,-73,58,102,-95,-7,185,4,53,14,-78,-97
-131,-68,63,100,-97,-2,185,9,58,14,-78,-97
-131,-63,68,97,-100,2,190,19,63,19,-73,-92
-126,-58,68,92,-97,4,190,29,68,19,-73,-92
-117,-48,68,82,-92,9,190,34,73,24,-68,-87
-112,-39,73,75,-92,17,185,43,78,29,-68,-87
-107,-34,73,70,-90,19,180,48,78,24,-68,-87
-107,-34,73,70,-90,19,180,48,82,29,-68,-87
-107,-34,73,70,-90,19,180,48,82,24,-68,-87
-112,-39,73,75,-92,17,185,43,87,24,-68,-82
-117,-43,73,80,-95,14,180,39,82,19,-73,-87
-126,-43,82,85,-104,19,190,34,87,24,-68,-82
-136,-43,92,90,-114,24,195,24,92,24,-68,-82
-146,-43,102,95,-124,29,204,14,92,24,-68,-87
-146,-43,102,95,-124,29,204,9,92,19,-73,-87
-141,-39,102,90,-122,31,209,9,92,24,-68,-82
-141,-34,107,87,-124,36,204,14,92,24,-73,-87
-131,-29,102,80,-117,36,204,14,92,24,-73,-87
-126,-24,102,75,-114,39,204,29,97,29,-68,-82
-112,-19,92,65,-102,36,195,39,92,24,-68,-82
-102,-14,87,58,-95,36,190,48,92,24,-68,-82
-92,-9,82,51,-87,36,185,58,92,19,-68,-82
-82,0,82,41,-82,41,180,63,92,19,-68,-78
-78,0,78,39,-78,39,180,73,92,24,-63,-73
-73,0,73,36,-73,36,175,73,92,24,-58,-68
-73,0,73,36,-73,36,175,78,92,24,-58,-68
-73,0,73,36,-73,36,170,73,92,24,-58,-68
-73,0,73,36,-73,36,170,68,87,19,-63,-68
-78,-9,68,43,-73,29,165,63,82,14,-63,-68
-78,-14,63,46,-70,24,170,58,78,14,-63,-68
-82,-19,63,51,-73,21,170,48,68,9,-68,-73
-92,-29,63,61,-78,17,180,43,68,9,-63,-68
-97,-34,63,65,-80,14,175,29,58,4,-73,-73
-102,-39,63,70,-82,12,180,24,53,4,-68,-73
-102,-39,63,70,-82,12,180,19,53,4,-68,-68
-97,-39,58,68,-78,9,175,24,53,4,-63,-63
-92,-34,58,63,-75,12,165,29,48,9,-58,-63
-82,-24,58,53,-70,17,156,34,43,9,-58,-58
-73,-19,53,46,-63,17,146,43,48,14,-48,-48
-53,-9,43,31,-48,17,131,43,43,14,-48,-48
-43,0,43,21,-43,21,117,48,39,14,-48,-48
-39,0,39,19,-39,19,102,43,29,9,-48,-43
-34,0,34,17,-34,17,97,39,24,14,-43,-43
-24,4,29,9,-26,17,82,34,14,9,-43,-43
-24,0,24,12,-24,12,78,29,9,9,-43,-39
-29,0,29,14,-29,14,78,24,4,9,-39,-34
-34,-9,24,21,-29,7,73,9,0,9,-39,-34
-43,-9,34,26,-39,12,73,0,-9,9,-34,-29
-53,-19,34,36,-43,7,73,-19,-14,9,-29,-29
-63,-24,39,43,-51,7,73,-29,-19,9,-29,-29
-68,-29,39,48,-53,4,68,-34,-24,9,-29,-29
-73,-39,34,56,-53,-2,63,-34,-29,9,-29,-29
-68,-43,24,56,-46,-9,48,-39,-34,9,-34,-34
-63,-48,14,56,-39,-17,39,-34,-39,4,-34,-34
-58,-48,9,53,-34,-19,29,-29,-43,9,-34,-34
-53,-43,9,48,-31,-17,19,-24,-48,4,-34,-34
-43,-43,0,43,-21,-21,14,-29,-53,4,-34,-34
-39,-43,-4,41,-17,-24,9,-24,-53,4,-34,-34
-29,-43,-14,36,-7,-29,9,-24,-58,4,-34,-34
-29,-39,-9,34,-9,-24,14,-19,-53,9,-29,-29
-29,-34,-4,31,-12,-19,14,-14,-53,14,-24,-24
-24,-34,-9,29,-7,-21,14,-19,-53,14,-24,-24
-24,-29,-4,26,-9,-17,19,-14,-53,19,-19,-19
-19,-19,0,19,-9,-9,14,-14,-48,19,-14,-14
-14,-9,4,12,-9,-2,4,-19,-48,24,-14,-19
0,-9,-9,4,4,-9,-14,-19,-53,19,-19,-24
9,-9,-19,0,14,-14,-19,-19,-53,19,-19,-24
14,-9,-24,-2,19,-17,-34,-24,-63,14,-24,-29
14,-14,-29,0,21,-21,-39,-24,-63,14,-24,-29
9,-24,-34,7,21,-29,-39,-34,-68,9,-24,-29
0,-34,-34,17,17,-34,-39,-39,-73,9,-29,-34
-14,-43,-29,29,7,-36,-29,-43,-78,4,-34,-34
-24,-48,-24,36,0,-36,-24,-43,-78,9,-29,-34
-34,-48,-14,41,-9,-31,-19,-39,-73,9,-29,-29
-29,-48,-19,39,-4,-34,-14,-29,-68,14,-24,-29
-19,-43,-24,31,2,-34,-9,-24,-68,14,-24,-29
-19,-39,-19,29,0,-29,-14,-19,-68,14,-24,-29
-9,-29,-19,19,4,-24,-14,-19,-68,14,-24,-29
0,-29,-29,14,14,-29,-14,-14,-63,14,-24,-29
0,-29,-29,14,14,-29,-14,-14,-63,14,-24,-29
-9,-29,-19,19,4,-24,-19,-14,-63,14,-24,-34
-9,-29,-19,19,4,-24,-19,-19,-68,9,-29,-34
-9,-34,-24,21,7,-29,-19,-19,-68,9,-29,-34
-14,-39,-24,26,4,-31,-14,-14,-68,14,-24,-34
-19,-43,-24,31,2,-34,-14,-19,-68,14,-24,-29
-24,-48,-24,36,0,-36,-14,-29,-73,9,-29,-34
-29,-53,-24,41,-2,-39,-9,-34,-73,9,-29,-34
-39,-58,-19,48,-9,-39,0,-39,-73,9,-29,-34
-43,-63,-19,53,-12,-41,0,-43,-73,9,-29,-34
-48,-63,-14,56,-17,-39,0,-53,-73,9,-29,-34
-53,-63,-9,58,-21,-36,0,-53,-73,9,-29,-34
-48,-58,-9,53,-19,-34,4,-53,-68,14,-24,-29
-43,-53,-9,48,-17,-31,4,-53,-68,14,-24,-29
-43,-43,0,43,-21,-21,0,-53,-68,14,-24,-29
-39,-43,-4,41,-17,-24,0,-48,-63,14,-24,-24
-39,-48,-9,43,-14,-29,0,-48,-63,14,-24,-29
-39,-48,-9,43,-14,-29,-9,-43,-68,14,-29,-29
-39,-48,-9,43,-14,-29,-9,-43,-68,9,-29,-29
-39,-48,-9,43,-14,-29,-9,-43,-73,9,-29,-34
-34,-48,-14,41,-9,-31,-9,-39,-68,14,-29,-34
-29,-43,-14,36,-7,-29,0,-39,-63,14,-24,-34
-24,-34,-9,29,-7,-21,0,-29,-58,19,-24,-29
-24,-29,-4,26,-9,-17,0,-24,-53,24,-14,-19
-19,-19,0,19,-9,-9,0,-19,-48,29,-14,-19
-14,-14,0,14,-7,-7,-14,-24,-48,29,-14,-19
-14,-14,0,14,-7,-7,-19,-19,-43,29,-14,-19
-19,-14,4,17,-12,-4,-24,-19,-43,34,-14,-14
-19,-19,0,19,-9,-9,-29,-29,-48,29,-14,-19
-19,-19,0,19,-9,-9,-34,-34,-48,24,-19,-24
-24,-24,0,24,-12,-12,-29,-34,-48,24,-19,-24
-29,-34,-4,31,-12,-19,-24,-34,-53,24,-19,-24
-34,-39,-4,36,-14,-21,-19,-39,-58,19,-24,-29
-34,-43,-9,39,-12,-26,-9,-34,-53,19,-24,-29
-34,-43,-9,39,-12,-26,0,-34,-58,14,-29,-34
-34,-43,-9,39,-12,-26,9,-34,-58,19,-29,-34
-34,-39,-4,36,-14,-21,9,-39,-58,14,-29,-39
-34,-39,-4,36,-14,-21,9,-34,-58,19,-29,-34
-29,-34,-4,31,-12,-19,14,-29,-53,19,-24,-34
-24,-29,-4,26,-9,-17,9,-34,-53,19,-29,-34
-24,-29,-4,26,-9,-17,14,-34,-48,24,-24,-29
-24,-29,-4,26,-9,-17,14,-29,-48,24,-19,-29
-19,-24,-4,21,-7,-14,9,-29,-48,19,-24,-29
-19,-24,-4,21,-7,-14,9,-24,-43,24,-19,-29
-24,-24,0,24,-12,-12,9,-19,-39,29,-14,-24
-24,-24,0,24,-12,-12,9,-19,-39,29,-14,-24
-29,-24,4,26,-17,-9,4,-24,-39,24,-19,-24
-29,-29,0,29,-14,-14,0,-24,-43,24,-19,-29
-34,-29,4,31,-19,-12,4,-24,-39,29,-19,-29
-39,-34,4,36,-21,-14,0,-29,-43,24,-19,-29
-39,-34,4,36,-21,-14,4,-39,-43,19,-24,-34
-48,-39,9,43,-29,-14,9,-43,-43,24,-24,-34
-58,-43,14,51,-36,-14,14,-48,-43,24,-24,-34
-73,-43,29,58,-51,-7,24,-53,-39,29,-19,-34
-78,-43,34,61,-56,-4,29,-53,-39,29,-19,-29
-82,-48,34,65,-58,-7,29,-58,-39,29,-24,-34
-78,-43,34,61,-56,-4,29,-53,-34,29,-19,-29
-63,-34,29,48,-46,-2,24,-48,-39,29,-19,-29
-43,-29,14,36,-29,-7,14,-43,-39,24,-24,-34
-34,-24,9,29,-21,-7,14,-39,-39,24,-24,-34
-29,-24,4,26,-17,-9,14,-29,-39,24,-24,-29
-29,-24,4,26,-17,-9,14,-29,-34,24,-19,-29
-39,-24,14,31,-26,-4,14,-29,-34,29,-14,-24
-48,-29,19,39,-34,-4,14,-34,-34,29,-14,-24
-58,-29,29,43,-43,0,14,-43,-34,29,-19,-29
-63,-29,34,46,-48,2,19,-43,-34,29,-14,-24
-58,-29,29,43,-43,0,14,-48,-39,29,-19,-29
-53,-29,24,41,-39,-2,19,-48,-34,29,-14,-24
-48,-24,24,36,-36,0,19,-48,-34,29,-14,-29
-39,-19,19,29,-29,0,14,-43,-34,29,-19,-29
-29,-14,14,21,-21,0,9,-39,-39,29,-19,-34
-19,-14,4,17,-12,-4,14,-29,-39,29,-19,-34
-19,-19,0,19,-9,-9,14,-29,-39,29,-19,-34
-19,-24,-4,21,-7,-14,9,-29,-43,24,-24,-39
-29,-29,0,29,-14,-14,9,-29,-48,19,-29,-43
-39,-39,0,39,-19,-19,19,-34,-48,24,-29,-39
-48,-43,4,46,-26,-19,24,-34,-43,24,-29,-39
-58,-43,14,51,-36,-14,24,-43,-43,19,-29,-39
-68,-43,24,56,-46,-9,29,-43,-39,24,-24,-34
-68,-39,29,53,-48,-4,29,-43,-39,29,-19,-29
-63,-34,29,48,-46,-2,24,-43,-34,29,-19,-29
-58,-24,34,41,-46,4,19,-39,-34,34,-14,-24
-48,-19,29,34,-39,4,9,-39,-34,34,-9,-24
-39,-14,24,26,-31,4,4,-39,-34,34,-9,-24
-29,-14,14,21,-21,0,0,-39,-34,29,-14,-24
-24,-9,14,17,-19,2,0,-39,-34,34,-9,-24
-24,-14,9,19,-17,-2,0,-39,-34,29,-14,-24
-29,-19,9,24,-19,-4,4,-34,-34,29,-14,-24
-34,-24,9,29,-21,-7,4,-43,-43,24,-24,-34
-39,-34,4,36,-21,-14,4,-39,-48,24,-24,-34
-43,-39,4,41,-24,-17,9,-34,-48,19,-24,-34
-43,-43,0,43,-21,-21,9,-39,-53,14,-29,-39
-48,-48,0,48,-24,-24,14,-34,-48,19,-24,-34
-48,-48,0,48,-24,-24,9,-39,-53,14,-29,-39
-48,-48,0,48,-24,-24,9,-43,-53,14,-29,-39
-53,-53,0,53,-26,-26,14,-39,-53,14,-24,-34
-53,-53,0,53,-26,-26,14,-48,-58,14,-29,-34
-58,-53,4,56,-31,-24,14,-48,-58,14,-29,-34
-53,-53,0,53,-26,-26,9,-43,-58,14,-29,-34
-48,-53,-4,51,-21,-29,9,-39,-63,9,-34,-39
-48,-48,0,48,-24,-24,9,-34,-58,14,-29,-39
-43,-48,-4,46,-19,-26,14,-29,-53,19,-24,-34
-34,-43,-9,39,-12,-26,9,-29,-58,14,-29,-39
-34,-43,-9,39,-12,-26,9,-24,-53,14,-29,-39
-39,-43,-4,41,-17,-24,9,-29,-53,14,-29,-39
-43,-48,-4,46,-19,-26,14,-29,-48,19,-24,-39
-43,-48,-4,46,-19,-26,9,-34,-53,19,-29,-39
-48,-53,-4,51,-21,-29,4,-34,-53,14,-29,-39
-53,-53,0,53,-26,-26,0,-29,-48,19,-29,-34
-53,-48,4,51,-29,-21,-9,-34,-53,14,-29,-39
-48,-48,0,48,-24,-24,-14,-34,-53,19,-29,-34
-48,-48,0,48,-24,-24,-14,-29,-53,19,-24,-29
-48,-48,0,48,-24,-24,-14,-29,-53,19,-24,-29
-48,-48,0,48,-24,-24,-9,-34,-58,14,-24,-29
-48,-48,0,48,-24,-24,4,-39,-58,14,-24,-29
-48,-48,0,48,-24,-24,9,-39,-63,9,-24,-34
-43,-53,-9,48,-17,-31,14,-39,-68,9,-29,-39
-39,-53,-14,46,-12,-34,19,-39,-68,4,-29,-39
-39,-53,-14,46,-12,-34,19,-39,-68,4,-29,-39
-34,-53,-19,43,-7,-36,14,-39,-68,4,-34,-39
-29,-48,-19,39,-4,-34,14,-39,-68,4,-29,-39
-29,-48,-19,39,-4,-34,9,-39,-63,9,-29,-34
-34,-43,-9,39,-12,-26,9,-39,-58,14,-24,-29
-34,-39,-4,36,-14,-21,0,-43,-63,14,-24,-29
-39,-39,0,39,-19,-19,0,-43,-58,19,-19,-24
-43,-39,4,41,-24,-17,0,-48,-58,14,-24,-24
-43,-39,4,41,-24,-17,-9,-48,-58,14,-24,-24
-39,-39,0,39,-19,-19,-9,-53,-58,14,-24,-29
-29,-43,-14,36,-7,-29,-14,-58,-63,9,-29,-34
-24,-39,-14,31,-4,-26,-14,-53,-63,9,-29,-34
-14,-39,-24,26,4,-31,-19,-48,-68,4,-34,-39
-14,-34,-19,24,2,-26,-14,-43,-63,9,-29,-34
-14,-34,-19,24,2,-26,-14,-39,-63,9,-29,-34
-24,-39,-14,31,-4,-26,-9,-39,-63,9,-29,-34
-39,-43,-4,41,-17,-24,0,-39,-68,4,-29,-34
-53,-53,0,53,-26,-26,9,-39,-63,9,-24,-34
-68,-58,9,63,-39,-24,14,-48,-68,9,-29,-34
-73,-63,9,68,-41,-26,19,-48,-68,9,-24,-34
-68,-68,0,68,-34,-34,19,-48,-68,4,-29,-34
-58,-63,-4,61,-26,-34,19,-43,-68,4,-29,-39
-48,-58,-9,53,-19,-34,14,-39,-68,9,-29,-39
-39,-48,-9,43,-14,-29,4,-39,-68,4,-34,-39
-24,-39,-14,31,-4,-26,4,-29,-63,9,-29,-34
-19,-29,-9,24,-4,-19,0,-24,-58,19,-24,-29
-14,-14,0,14,-7,-7,-9,-29,-53,19,-19,-24
-9,4,14,2,-12,9,-9,-29,-43,29,-9,-19
0,19,19,-9,-9,19,-9,-29,-39,39,0,-14
0,29,29,-14,-14,29,0,-34,-34,43,9,-9
-9,34,43,-12,-26,39,9,-34,-29,48,14,0
-19,29,48,-4,-34,39,14,-34,-24,48,14,4
-29,24,53,2,-41,39,24,-39,-29,48,14,0
-34,19,53,7,-43,36,34,-43,-29,48,14,0
-39,14,53,12,-46,34,34,-43,-29,43,9,0
-39,9,48,14,-43,29,34,-43,-34,43,9,0
-34,4,39,14,-36,21,29,-48,-39,39,4,-14
-34,0,34,17,-34,17,24,-43,-39,39,0,-19
-29,-9,19,19,-24,4,19,-39,-43,34,-9,-24
-29,-14,14,21,-21,0,19,-39,-43,29,-14,-24
-34,-14,19,24,-26,2,19,-34,-39,34,-9,-19
-29,-9,19,19,-24,4,14,-34,-39,34,-9,-19
-24,4,29,9,-26,17,14,-34,-29,39,0,-14
-19,19,39,0,-29,29,9,-29,-19,48,9,4
-9,39,48,-14,-29,43,-9,-34,-14,58,19,9
4,53,48,-29,-21,51,-19,-29,-14,63,24,19
19,63,43,-41,-12,53,-29,-29,-14,63,29,24
24,68,43,-46,-9,56,-29,-29,-9,68,39,34
29,68,39,-48,-4,53,-39,-29,-14,63,34,29
34,68,34,-51,0,51,-39,-29,-19,63,34,34
39,68,29,-53,4,48,-43,-29,-24,58,34,29
39,58,19,-48,9,39,-48,-29,-34,53,24,24
39,53,14,-46,12,34,-48,-29,-34,48,19,19
39,43,4,-41,17,24,-53,-34,-43,39,14,14
39,39,0,-39,19,19,-53,-39,-48,39,14,14
34,34,0,-34,17,17,-53,-48,-53,34,9,14
24,29,4,-26,9,17,-48,-48,-53,34,9,19
24,29,4,-26,9,17,-48,-53,-58,34,14,19
19,29,9,-24,4,19,-43,-53,-53,34,19,24
9,24,14,-17,-2,19,-39,-58,-53,39,19,24
0,29,29,-14,-14,29,-34,-63,-53,34,19,24
0,29,29,-14,-14,29,-34,-63,-53,39,19,24
-9,29,39,-9,-24,34,-29,-63,-48,43,24,24
-14,34,48,-9,-31,41,-29,-63,-43,43,24,24
-19,34,53,-7,-36,43,-19,-58,-34,53,29,29
-19,39,58,-9,-39,48,-24,-58,-39,48,24,24
-9,39,48,-14,-29,43,-24,-48,-34,53,29,29
4,39,34,-21,-14,36,-29,-43,-39,53,24,24
14,39,24,-26,-4,31,-39,-39,-39,48,24,19
24,39,14,-31,4,26,-39,-29,-39,48,24,24
34,39,4,-36,14,21,-48,-24,-43,43,19,19
34,34,0,-34,17,17,-53,-24,-48,39,9,9
29,19,-9,-24,19,4,-53,-19,-48,34,4,4
19,4,-14,-12,17,-4,-53,-29,-58,19,-9,-9
4,-19,-24,7,14,-21,-43,-29,-63,19,-14,-14
-19,-43,-24,31,2,-34,-34,-39,-68,9,-24,-24
-43,-63,-19,53,-12,-41,-29,-48,-78,0,-34,-34
-58,-78,-19,68,-19,-48,-19,-58,-82,-9,-39,-39
-68,-87,-19,78,-24,-53,-9,-63,-87,-14,-43,-43
-78,-92,-14,85,-31,-53,9,-63,-87,-14,-43,-43
-87,-102,-14,95,-36,-58,19,-63,-92,-14,-43,-43
-87,-102,-14,95,-36,-58,24,-63,-92,-19,-48,-48
-78,-102,-24,90,-26,-63,24,-53,-87,-14,-43,-43
-68,-97,-29,82,-19,-63,24,-43,-87,-19,-48,-48
-58,-97,-39,78,-9,-68,19,-43,-92,-19,-48,-53
-48,-92,-43,70,-2,-68,14,-39,-92,-24,-53,-53
-39,-87,-48,63,4,-68,4,-39,-92,-24,-53,-58
-34,-82,-48,58,7,-65,-9,-43,-97,-24,-53,-58
-39,-82,-43,61,2,-63,0,-39,-87,-14,-48,-48
-43,-82,-39,63,-2,-61,0,-43,-92,-19,-48,-48
-43,-82,-39,63,-2,-61,-9,-43,-92,-14,-48,-48
-43,-82,-39,63,-2,-61,-9,-43,-92,-14,-48,-48
-43,-82,-39,63,-2,-61,-9,-39,-92,-14,-48,-48
-39,-82,-43,61,2,-63,0,-39,-92,-14,-48,-48
-34,-87,-53,61,9,-70,0,-34,-92,-19,-48,-53
-34,-87,-53,61,9,-70,0,-34,-97,-19,-53,-53
-29,-82,-53,56,12,-68,-9,-34,-97,-24,-53,-58
-34,-82,-48,58,7,-65,0,-34,-97,-19,-53,-53
-34,-82,-48,58,7,-65,0,-39,-97,-19,-48,-53
-34,-78,-43,56,4,-61,0,-39,-97,-24,-48,-53
-39,-78,-39,58,0,-58,4,-39,-92,-19,-48,-48
-39,-73,-34,56,-2,-53,4,-39,-92,-19,-43,-48
-39,-78,-39,58,0,-58,0,-43,-92,-19,-48,-48
-39,-82,-43,61,2,-63,4,-43,-92,-19,-43,-48
-43,-82,-39,63,-2,-61,0,-53,-97,-24,-48,-48
-43,-87,-43,65,0,-65,-9,-53,-97,-24,-48,-48
-43,-87,-43,65,0,-65,-14,-58,-97,-24,-53,-48
-48,-87,-39,68,-4,-63,-9,-58,-97,-19,-48,-48
-58,-92,-34,75,-12,-63,0,-58,-92,-19,-48,-48
-68,-97,-29,82,-19,-63,9,-53,-92,-19,-48,-48
-78,-107,-29,92,-24,-68,14,-48,-97,-29,-58,-58
-82,-122,-39,102,-21,-80,24,-43,-102,-39,-68,-73
-87,-136,-48,112,-19,-92,34,-39,-102,-43,-78,-82
-92,-156,-63,124,-14,-109,48,-34,-112,-63,-97,-107
-97,-180,-82,139,-7,-131,63,-24,-112,-73,-117,-126
-107,-200,-92,153,-7,-146,82,-19,-112,-87,-131,-146
-117,-214,-97,165,-9,-156,102,-19,-102,-87,-141,-161
-131,-214,-82,173,-24,-148,122,-19,-87,-87,-146,-165
-141,-200,-58,170,-41,-129,131,-19,-63,-78,-146,-170
-156,-180,-24,168,-65,-102,141,-24,-34,-58,-136,-165
-156,-146,9,151,-82,-68,141,-29,0,-29,-117,-146
-146,-102,43,124,-95,-29,131,-34,29,4,-97,-131
-131,-53,78,92,-104,12,117,-39,58,34,-68,-107
-107,-9,97,58,-102,43,87,-39,73,63,-39,-82
-63,48,112,7,-87,80,48,-34,87,87,-9,-48
0,102,102,-51,-51,102,-14,-29,87,112,29,-14
78,165,87,-122,-4,126,-92,-9,82,141,73,34
165,248,82,-207,41,165,-180,19,78,175,122,92
278,351,73,-314,102,212,-302,34,68,224,180,156
409,483,73,-446,168,278,-439,63,68,283,268,253
551,639,87,-595,231,363,-585,87,78,361,366,361
702,819,117,-761,292,468,-741,107,97,448,483,483
849,1010,161,-929,344,585,-893,117,126,551,614,619
976,1229,253,-1102,361,741,-1044,102,175,668,751,766
1088,1444,356,-1266,366,900,-1176,82,234,790,902,917
1171,1629,458,-1400,356,1044,-1293,48,283,912,1039,1063
1220,1790,570,-1505,324,1180,-1381,-9,326,1019,1166,1190
1234,1922,688,-1578,273,1305,-1444,-73,380,1122,1278,1307
1220,2020,800,-1620,209,1410,-1478,-136,434,1210,1371,1400
1185,2083,897,-1634,143,1490,-1493,-195,468,1278,1439,1468
1137,2088,951,-1612,92,1520,-1468,-248,492,1312,1473,1498
1063,2034,971,-1549,46,1503,-1405,-283,507,1317,1473,1498
971,1917,946,-1444,12,1432,-1312,-292,492,1273,1424,1454
873,1732,858,-1302,7,1295,-1185,-278,444,1171,1322,1356
756,1488,732,-1122,12,1110,-1044,-248,356,1029,1171,1224
639,1210,570,-924,34,890,-883,-200,258,849,990,1063
512,932,419,-722,46,675,-712,-151,151,663,800,883
390,673,283,-531,53,478,-551,-112,53,478,619,712
292,458,165,-375,63,312,-419,-78,-29,322,453,556
214,312,97,-263,58,204,-307,-58,-78,209,331,429
151,224,73,-187,39,148,-234,-43,-92,141,248,331
107,161,53,-134,26,107,-165,-43,-92,102,185,263
73,126,53,-100,9,90,-117,-43,-78,78,141,204
43,102,58,-73,-7,80,-82,-43,-58,78,117,161
14,82,68,-48,-26,75,-58,-53,-43,68,87,117
-24,48,73,-12,-48,61,-29,-53,-29,68,63,82
-53,14,68,19,-61,41,4,-53,-29,53,39,43
-73,-19,53,46,-63,17,24,-43,-29,48,19,19
-82,-39,43,61,-63,2,39,-34,-29,39,4,0
-82,-48,34,65,-58,-7,43,-24,-34,29,-14,-24
-78,-53,24,65,-51,-14,48,-14,-34,24,-24,-29
-68,-53,14,61,-41,-19,48,0,-34,24,-24,-29
-58,-58,0,58,-29,-29,48,4,-39,19,-29,-39
-53,-58,-4,56,-24,-31,48,9,-34,19,-34,-39
-48,-58,-9,53,-19,-34,43,9,-39,14,-34,-39
-48,-58,-9,53,-19,-34,39,4,-39,9,-39,-48
-48,-63,-14,56,-17,-39,39,0,-43,4,-48,-53
-53,-68,-14,61,-19,-41,39,0,-39,4,-48,-53
-58,-68,-9,63,-24,-39,39,-14,-43,0,-53,-58
-63,-73,-9,68,-26,-41,43,-14,-43,0,-53,-58
-68,-82,-14,75,-26,-48,53,-19,-48,0,-53,-63
-73,-87,-14,80,-29,-51,58,-19,-53,-14,-58,-68
-73,-97,-24,85,-24,-61,63,-19,-53,-14,-63,-68
-73,-102,-29,87,-21,-65,63,-14,-58,-19,-63,-73
-73,-102,-29,87,-21,-65,63,-14,-58,-24,-68,-78
-78,-107,-29,92,-24,-68,68,-14,-58,-19,-68,-78
-78,-107,-29,92,-24,-68,68,-14,-58,-19,-73,-82
-78,-107,-29,92,-24,-68,68,-14,-53,-19,-73,-82
-78,-107,-29,92,-24,-68,68,-14,-53,-19,-73,-82
-78,-112,-34,95,-21,-73,73,-14,-53,-19,-73,-82
-82,-112,-29,97,-26,-70,78,-14,-48,-19,-68,-78
-82,-112,-29,97,-26,-70,78,-19,-48,-19,-68,-78
-87,-107,-19,97,-34,-63,78,-24,-43,-14,-68,-73
-82,-102,-19,92,-31,-61,78,-29,-43,-19,-68,-78
-82,-102,-19,92,-31,-61,78,-29,-43,-14,-68,-73
-78,-97,-19,87,-29,-58,73,-24,-43,-14,-63,-73
-68,-87,-19,78,-24,-53,68,-19,-39,-9,-63,-73
-58,-82,-24,70,-17,-53,63,-14,-39,-9,-63,-73
-53,-82,-29,68,-12,-56,58,0,-39,0,-58,-68
-53,-78,-24,65,-14,-51,53,4,-39,-9,-63,-73
-53,-78,-24,65,-14,-51,48,4,-39,-9,-63,-73
-63,-82,-19,73,-21,-51,53,0,-39,-9,-63,-78
-73,-92,-19,82,-26,-56,63,0,-34,-9,-63,-73
-82,-97,-14,90,-34,-56,68,-9,-39,-14,-68,-78
-92,-107,-14,100,-39,-61,73,-19,-43,-19,-73,-82
-102,-117,-14,109,-43,-65,82,-29,-48,-24,-78,-87
-107,-126,-19,117,-43,-73,87,-29,-48,-29,-82,-87
-107,-126,-19,117,-43,-73,87,-29,-53,-29,-82,-92
-97,-126,-29,112,-34,-78,87,-24,-48,-29,-78,-87
-92,-122,-29,107,-31,-75,82,-24,-48,-29,-78,-87
-82,-112,-29,97,-26,-70,78,-19,-43,-24,-78,-87
-78,-107,-29,92,-24,-68,73,-14,-43,-24,-78,-87
-73,-102,-29,87,-21,-65,63,-9,-43,-24,-73,-87
-73,-97,-24,85,-24,-61,63,0,-39,-19,-73,-82
-78,-97,-19,87,-29,-58,68,0,-39,-19,-73,-82
-87,-102,-14,95,-36,-58,73,4,-34,-14,-68,-82
-92,-102,-9,97,-41,-56,82,4,-34,-14,-68,-82
-97,-107,-9,102,-43,-58,87,4,-34,-14,-73,-87
-97,-107,-9,102,-43,-58,92,4,-34,-14,-78,-87
-97,-107,-9,102,-43,-58,92,4,-34,-14,-78,-87
-87,-107,-19,97,-34,-63,92,4,-29,-14,-73,-82
-82,-102,-19,92,-31,-61,87,0,-29,-14,-73,-82
-73,-97,-24,85,-24,-61,82,0,-34,-19,-78,-87
-73,-97,-24,85,-24,-61,82,0,-29,-14,-73,-82
-73,-92,-19,82,-26,-56,87,0,-29,-14,-73,-82
-78,-97,-19,87,-29,-58,87,-9,-29,-19,-78,-87
-87,-102,-14,95,-36,-58,97,-19,-29,-19,-78,-87
-97,-107,-9,102,-43,-58,102,-19,-24,-19,-78,-87
-102,-107,-4,104,-48,-56,107,-19,-19,-14,-78,-87
-107,-112,-4,109,-51,-58,107,-19,-24,-19,-78,-87
-107,-117,-9,112,-48,-63,112,-14,-19,-14,-78,-87
-102,-117,-14,109,-43,-65,102,-9,-24,-19,-82,-92
-92,-107,-14,100,-39,-61,97,4,-24,-19,-82,-92
-82,-102,-19,92,-31,-61,92,19,-19,-19,-78,-92
-73,-92,-19,82,-26,-56,87,29,-19,-14,-78,-92
-68,-87,-19,78,-24,-53,82,29,-14,-14,-78,-92
-58,-78,-19,68,-19,-48,82,34,-14,-14,-78,-92
-53,-78,-24,65,-14,-51,78,29,-14,-14,-78,-92
-58,-78,-19,68,-19,-48,87,34,-9,-9,-73,-87
-58,-78,-19,68,-19,-48,87,24,-9,-14,-78,-87
-63,-82,-19,73,-21,-51,92,19,-14,-19,-82,-92
-73,-87,-14,80,-29,-51,97,19,-14,-19,-82,-92
-82,-92,-9,87,-36,-51,102,14,-14,-19,-82,-92
-97,-97,0,97,-48,-48,117,9,0,-14,-78,-87
-107,-102,4,104,-56,-48,126,4,4,-14,-78,-87
-117,-107,9,112,-63,-48,136,0,4,-9,-78,-87
-131,-112,19,122,-75,-46,146,-14,9,-9,-78,-87
-136,-117,19,126,-78,-48,151,-14,9,-9,-78,-87
-136,-117,19,126,-78,-48,156,-14,9,-9,-78,-92
-131,-117,14,124,-73,-51,151,-14,4,-14,-82,-97
-126,-112,14,119,-70,-48,151,0,9,-9,-82,-97
-126,-112,14,119,-70,-48,146,0,9,-9,-82,-97
-126,-107,19,117,-73,-43,141,0,9,-14,-87,-102
-136,-107,29,122,-82,-39,146,0,19,-9,-82,-97
-141,-102,39,122,-90,-31,146,0,24,0,-82,-97
-141,-102,39,122,-90,-31,146,0,24,0,-78,-97
-141,-102,39,122,-90,-31,146,4,29,0,-78,-92
-131,-97,34,114,-82,-31,146,9,29,0,-82,-97
-122,-92,29,107,-75,-31,141,19,29,0,-78,-97
-107,-87,19,97,-63,-34,146,34,34,0,-78,-92
-97,-78,19,87,-58,-29,141,34,34,0,-82,-97
-97,-78,19,87,-58,-29,146,39,39,4,-78,-97
-102,-73,29,87,-65,-21,156,39,39,4,-78,-97
-107,-73,34,90,-70,-19,165,39,48,9,-68,-92
-112,-73,39,92,-75,-17,170,34,53,9,-68,-92
-122,-73,48,97,-85,-12,180,34,58,14,-68,-87
-126,-73,53,100,-90,-9,180,34,53,9,-68,-92
-126,-73,53,100,-90,-9,180,29,58,9,-73,-92
-126,-73,53,100,-90,-9,185,29,58,9,-73,-92
-122,-73,48,97,-85,-12,185,34,63,9,-73,-87
-122,-73,48,97,-85,-12,180,34,68,14,-73,-87
-122,-68,53,95,-87,-7,175,34,68,14,-73,-92
-112,-58,53,85,-82,-2,175,39,68,14,-73,-87
-102,-48,53,75,-78,2,175,48,78,19,-63,-82
-92,-39,53,65,-73,7,175,48,78,24,-63,-82
-87,-24,63,56,-75,19,180,53,87,29,-58,-78
-82,-14,68,48,-75,26,180,58,92,34,-58,-78
-78,-14,63,46,-70,24,185,63,97,34,-53,-73
-87,-14,73,51,-80,29,180,58,97,34,-58,-78
-92,-19,73,56,-82,26,185,63,102,34,-58,-78
-102,-24,78,63,-90,26,185,63,97,29,-58,-82
-112,-29,82,70,-97,26,185,58,92,29,-63,-82
-117,-34,82,75,-100,24,190,58,92,29,-63,-82
-117,-34,82,75,-100,24,195,63,92,29,-63,-82
-112,-29,82,70,-97,26,195,63,92,24,-63,-82
-112,-29,82,70,-97,26,195,63,92,24,-63,-78
-112,-24,87,68,-100,31,204,58,92,19,-63,-78
-107,-24,82,65,-95,29,204,53,92,19,-68,-78
-107,-24,82,65,-95,29,204,53,92,19,-63,-78
-112,-24,87,68,-100,31,209,58,97,19,-58,-73
-117,-29,87,73,-102,29,209,48,92,19,-63,-73
-122,-29,92,75,-107,31,214,48,92,19,-58,-68
-117,-29,87,73,-102,29,209,43,87,14,-68,-73
-122,-29,92,75,-107,31,219,48,92,19,-58,-68
-117,-29,87,73,-102,29,214,43,92,14,-63,-73
-122,-24,97,73,-109,36,214,43,92,14,-63,-68
-126,-24,102,75,-114,39,219,43,92,19,-58,-63
-131,-29,102,80,-117,36,214,39,92,19,-58,-68
-131,-29,102,80,-117,36,209,43,87,14,-63,-68
-126,-34,92,80,-109,29,204,43,87,14,-63,-68
-126,-34,92,80,-109,29,195,43,82,9,-63,-68
-117,-34,82,75,-100,24,195,43,82,14,-63,-68
-107,-34,73,70,-90,19,190,48,78,14,-63,-68
-102,-29,73,65,-87,21,185,43,73,9,-63,-68
-97,-29,68,63,-82,19,185,39,68,14,-58,-63
-97,-24,73,61,-85,24,180,39,68,14,-53,-58
-92,-29,63,61,-78,17,175,39,63,14,-53,-58
-87,-29,58,58,-73,14,161,39,58,9,-58,-58
-82,-24,58,53,-70,17,156,39,53,9,-53,-58
-68,-24,43,46,-56,9,146,48,53,9,-48,-53
-58,-19,39,39,-48,9,131,53,48,9,-48,-48
-53,-14,39,34,-46,12,122,48,43,9,-43,-43
-48,-9,39,29,-43,14,112,43,39,9,-43,-43
-43,-9,34,26,-39,12,107,34,34,9,-43,-43
-43,-14,29,29,-36,7,97,24,24,9,-43,-43
-48,-19,29,34,-39,4,92,19,24,9,-39,-39
-48,-24,24,36,-36,0,87,14,14,4,-43,-43
-39,-29,9,34,-24,-9,82,14,9,9,-43,-39
-29,-24,4,26,-17,-9,73,14,4,4,-39,-39
-24,-19,4,21,-14,-7,63,14,0,4,-39,-39
-14,-14,0,14,-7,-7,53,14,-9,4,-39,-39
-9,-14,-4,12,-2,-9,48,14,-14,9,-34,-34
-9,-14,-4,12,-2,-9,43,9,-14,9,-29,-29
-9,-14,-4,12,-2,-9,34,4,-24,4,-29,-29
-14,-24,-9,19,-2,-17,29,0,-24,4,-29,-29
-19,-29,-9,24,-4,-19,29,0,-29,4,-29,-24
-14,-29,-14,21,0,-21,19,-14,-34,0,-34,-29
-14,-29,-14,21,0,-21,14,-19,-39,0,-34,-29
-14,-34,-19,24,2,-26,14,-19,-34,4,-29,-24
-14,-29,-14,21,0,-21,9,-24,-43,4,-34,-29
-9,-29,-19,19,4,-24,9,-19,-43,9,-29,-29
-14,-34,-19,24,2,-26,9,-14,-43,9,-29,-24
-19,-43,-24,31,2,-34,9,-14,-48,4,-29,-29
-24,-48,-24,36,0,-36,4,-14,-58,0,-34,-34
-24,-53,-29,39,2,-41,4,-9,-53,0,-34,-29
-24,-58,-34,41,4,-46,0,-9,-58,0,-39,-34
-24,-63,-39,43,7,-51,0,-14,-63,-9,-39,-39
-19,-63,-43,41,12,-53,0,-9,-58,-9,-39,-39
-9,-58,-48,34,19,-53,0,-14,-63,-9,-43,-39
0,-58,-58,29,29,-58,0,-9,-58,0,-39,-39
0,-58,-58,29,29,-58,0,-9,-58,-9,-39,-39
-9,-58,-48,34,19,-53,0,-14,-63,-9,-43,-43
-19,-63,-43,41,12,-53,0,-19,-58,0,-39,-39
-24,-58,-34,41,4,-46,-9,-24,-58,0,-39,-39
-29,-58,-29,43,0,-43,-14,-29,-58,0,-39,-39
-34,-58,-24,46,-4,-41,-14,-29,-53,4,-34,-29
-34,-53,-19,43,-7,-36,-19,-34,-58,4,-34,-34
-29,-53,-24,41,-2,-39,-14,-34,-58,4,-34,-34
-24,-53,-29,39,2,-41,-14,-29,-58,4,-34,-34
-19,-58,-39,39,9,-48,-14,-29,-58,0,-34,-34
-24,-58,-34,41,4,-46,-9,-34,-58,0,-39,-39
-24,-63,-39,43,7,-51,0,-39,-63,-9,-39,-39
-29,-68,-39,48,4,-53,9,-39,-58,0,-39,-39
-39,-68,-29,53,-4,-48,14,-43,-58,4,-39,-39
-53,-73,-19,63,-17,-46,19,-48,-58,4,-34,-39
-58,-73,-14,65,-21,-43,19,-48,-58,0,-34,-39
-53,-73,-19,63,-17,-46,19,-43,-58,0,-34,-39
-43,-68,-24,56,-9,-46,19,-39,-63,0,-39,-39
-34,-63,-29,48,-2,-46,14,-29,-63,0,-39,-39
-19,-58,-39,39,9,-48,9,-14,-58,0,-39,-39
0,-53,-53,26,26,-53,0,-9,-63,-9,-43,-43
4,-48,-53,21,29,-51,0,4,-58,0,-39,-34
0,-48,-48,24,24,-48,0,4,-58,4,-34,-34
0,-53,-53,26,26,-53,-9,-9,-63,0,-39,-39
-9,-58,-48,34,19,-53,0,-9,-63,0,-34,-34
-14,-63,-48,39,17,-56,4,-14,-63,0,-34,-34
-19,-63,-43,41,12,-53,9,-19,-63,0,-39,-39
-19,-68,-48,43,14,-58,9,-24,-63,-9,-39,-39
-19,-63,-43,41,12,-53,9,-29,-63,0,-39,-39
-19,-63,-43,41,12,-53,9,-34,-58,0,-39,-39
-24,-63,-39,43,7,-51,4,-39,-58,0,-39,-43
-29,-63,-34,46,2,-48,9,-39,-53,4,-34,-34
-29,-58,-29,43,0,-43,4,-43,-58,0,-39,-39
-34,-58,-24,46,-4,-41,14,-43,-53,4,-34,-34
-34,-58,-24,46,-4,-41,14,-43,-53,4,-34,-34
-39,-58,-19,48,-9,-39,14,-43,-53,4,-34,-34
-39,-58,-19,48,-9,-39,14,-39,-53,4,-34,-34
-39,-58,-19,48,-9,-39,9,-34,-53,4,-39,-34
-34,-63,-29,48,-2,-46,9,-29,-53,4,-39,-34
-34,-63,-29,48,-2,-46,4,-24,-53,4,-39,-34
-29,-58,-29,43,0,-43,0,-19,-53,4,-39,-39
-19,-58,-39,39,9,-48,0,-14,-53,9,-34,-34
-9,-48,-39,29,14,-43,-14,-9,-53,4,-34,-34
4,-39,-43,17,24,-41,-19,0,-48,9,-29,-29
4,-34,-39,14,21,-36,-19,4,-39,19,-24,-24
4,-29,-34,12,19,-31,-24,4,-39,19,-24,-24
9,-24,-34,7,21,-29,-24,9,-34,19,-19,-24
4,-24,-29,9,17,-26,-24,4,-34,19,-19,-24
-9,-34,-24,21,7,-29,-19,-9,-39,19,-24,-29
-19,-43,-24,31,2,-34,0,-14,-39,14,-29,-29
-24,-58,-34,41,4,-46,4,-29,-43,9,-34,-39
-39,-63,-24,51,-7,-43,14,-39,-48,0,-39,-43
-48,-73,-24,61,-12,-48,24,-39,-43,4,-39,-39
-53,-78,-24,65,-14,-51,29,-43,-48,0,-39,-43
-53,-73,-19,63,-17,-46,34,-43,-43,4,-39,-43
-58,-68,-9,63,-24,-39,39,-43,-39,9,-34,-39
-53,-63,-9,58,-21,-36,39,-43,-39,9,-34,-39
-53,-58,-4,56,-24,-31,43,-39,-34,14,-29,-34
-48,-58,-9,53,-19,-34,39,-39,-34,14,-29,-34
-48,-53,-4,51,-21,-29,29,-39,-39,9,-34,-39
-48,-53,-4,51,-21,-29,29,-34,-34,9,-34,-39
-39,-53,-14,46,-12,-34,24,-29,-34,9,-34,-39
-39,-53,-14,46,-12,-34,24,-24,-34,9,-34,-39
-34,-53,-19,43,-7,-36,19,-29,-39,4,-39,-43
-39,-53,-14,46,-12,-34,24,-24,-34,9,-34,-39
-43,-58,-14,51,-14,-36,24,-34,-39,4,-39,-43
-53,-68,-14,61,-19,-41,34,-34,-34,9,-39,-39
-63,-73,-9,68,-26,-41,43,-34,-34,9,-39,-39
-68,-78,-9,73,-29,-43,43,-39,-39,4,-39,-43
-68,-78,-9,73,-29,-43,43,-43,-39,4,-43,-48
-63,-78,-14,70,-24,-46,48,-43,-39,4,-39,-43
-58,-73,-14,65,-21,-43,43,-43,-39,4,-43,-43
-53,-68,-14,61,-19,-41,43,-34,-34,9,-39,-39
-53,-63,-9,58,-21,-36,39,-34,-29,9,-34,-39
-48,-58,-9,53,-19,-34,39,-29,-29,14,-34,-34
-48,-53,-4,51,-21,-29,34,-29,-29,9,-34,-39
-48,-53,-4,51,-21,-29,34,-24,-29,9,-34,-39
-48,-53,-4,51,-21,-29,29,-24,-34,9,-34,-39
-48,-58,-9,53,-19,-34,34,-19,-29,14,-34,-34
-43,-58,-14,51,-14,-36,29,-24,-39,4,-39,-43
-43,-63,-19,53,-12,-41,29,-24,-39,9,-39,-43
-48,-63,-14,56,-17,-39,24,-29,-39,9,-39,-43
-48,-63,-14,56,-17,-39,24,-29,-39,9,-39,-43
-43,-63,-19,53,-12,-41,24,-24,-34,9,-39,-43
-43,-63,-19,53,-12,-41,24,-19,-29,14,-39,-39
-43,-58,-14,51,-14,-36,19,-24,-34,9,-43,-43
-39,-58,-19,48,-9,-39,14,-19,-34,9,-39,-43
-39,-58,-19,48,-9,-39,14,-19,-34,9,-39,-39
-43,-58,-14,51,-14,-36,14,-24,-34,9,-39,-39
-48,-63,-14,56,-17,-39,19,-29,-34,9,-39,-39
-48,-68,-19,58,-14,-43,19,-34,-39,4,-39,-39
-53,-68,-14,61,-19,-41,29,-34,-39,9,-34,-39
-58,-68,-9,63,-24,-39,34,-39,-39,4,-34,-39
-53,-68,-14,61,-19,-41,34,-39,-39,9,-34,-39
-48,-63,-14,56,-17,-39,34,-34,-39,9,-39,-43
-43,-63,-19,53,-12,-41,34,-29,-34,9,-34,-39
-43,-63,-19,53,-12,-41,34,-29,-39,9,-34,-39
-43,-63,-19,53,-12,-41,34,-34,-39,9,-39,-39
-43,-68,-24,56,-9,-46,29,-34,-43,4,-43,-43
-48,-78,-29,63,-9,-53,34,-34,-43,4,-43,-43
-53,-82,-29,68,-12,-56,34,-34,-48,0,-43,-43
-53,-87,-34,70,-9,-61,34,-34,-53,-9,-48,-48
-48,-87,-39,68,-4,-63,34,-24,-53,-9,-48,-48
-48,-82,-34,65,-7,-58,24,-29,-58,-14,-48,-53
-43,-82,-39,63,-2,-61,24,-24,-58,-14,-48,-48
-39,-82,-43,61,2,-63,24,-19,-53,-9,-43,-48
-39,-82,-43,61,2,-63,24,-19,-53,-9,-43,-43
-39,-82,-43,61,2,-63,19,-19,-53,-9,-48,-48
-43,-87,-43,65,0,-65,19,-24,-58,-14,-53,-48
-48,-87,-39,68,-4,-63,24,-19,-58,-14,-53,-48
-48,-92,-43,70,-2,-68,24,-19,-58,-14,-53,-48
-43,-92,-48,68,2,-70,29,-24,-58,-14,-53,-48
-43,-92,-48,68,2,-70,29,-24,-58,-14,-53,-48
-43,-92,-48,68,2,-70,29,-29,-58,-14,-53,-48
-48,-92,-43,70,-2,-68,29,-34,-58,-14,-53,-53
-53,-97,-43,75,-4,-70,34,-39,-58,-14,-48,-53
-58,-102,-43,80,-7,-73,34,-43,-63,-19,-53,-58
-63,-97,-34,80,-14,-65,29,-43,-63,-19,-53,-58
-63,-97,-34,80,-14,-65,29,-43,-63,-14,-53,-53
-63,-97,-34,80,-14,-65,29,-43,-63,-14,-53,-53
-58,-92,-34,75,-12,-63,24,-34,-58,-9,-48,-48
-43,-82,-39,63,-2,-61,19,-29,-58,-9,-48,-43
-29,-73,-43,51,7,-58,9,-19,-53,-9,-48,-43
-19,-68,-48,43,14,-58,4,-14,-58,-9,-48,-43
-14,-68,-53,41,19,-61,0,-9,-58,-9,-43,-43
-9,-68,-58,39,24,-63,0,4,-53,-9,-43,-43
-9,-73,-63,41,26,-68,-9,4,-58,-9,-48,-48
-14,-78,-63,46,24,-70,-9,0,-63,-14,-48,-53
-24,-87,-63,56,19,-75,0,-14,-68,-19,-58,-58
-34,-97,-63,65,14,-80,4,-24,-73,-24,-58,-58
-43,-102,-58,73,7,-80,9,-29,-68,-24,-58,-58
-53,-102,-48,78,-2,-75,19,-29,-68,-19,-53,-53
-58,-102,-43,80,-7,-73,24,-39,-68,-24,-58,-58
-63,-102,-39,82,-12,-70,29,-39,-63,-19,-53,-48
-58,-102,-43,80,-7,-73,29,-43,-68,-19,-53,-53
-58,-97,-39,78,-9,-68,29,-43,-63,-19,-53,-48
-53,-92,-39,73,-7,-65,24,-48,-68,-24,-58,-48
-48,-92,-43,70,-2,-68,19,-53,-63,-19,-53,-48
-48,-87,-39,68,-4,-63,19,-48,-58,-14,-53,-43
-43,-82,-39,63,-2,-61,14,-48,-58,-14,-48,-43
-34,-78,-43,56,4,-61,9,-39,-63,-14,-48,-43
-29,-78,-48,53,9,-63,9,-29,-58,-14,-48,-43
-29,-78,-48,53,9,-63,4,-19,-58,-14,-48,-43
-29,-78,-48,53,9,-63,4,-14,-58,-14,-48,-48
-29,-82,-53,56,12,-68,0,-19,-68,-19,-53,-53
-34,-92,-58,63,12,-75,0,-24,-68,-24,-58,-53
-39,-97,-58,68,9,-78,4,-24,-68,-24,-58,-53
-43,-97,-53,70,4,-75,9,-29,-73,-24,-58,-53
-43,-97,-53,70,4,-75,19,-34,-73,-24,-58,-53
-43,-97,-53,70,4,-75,24,-34,-73,-24,-58,-53
-48,-92,-43,70,-2,-68,34,-34,-68,-19,-53,-53
-53,-92,-39,73,-7,-65,39,-34,-63,-14,-48,-48
-53,-82,-29,68,-12,-56,48,-34,-58,-9,-43,-43
-58,-78,-19,68,-19,-48,53,-39,-48,0,-39,-39
-53,-73,-19,63,-17,-46,48,-43,-48,4,-39,-39
-48,-63,-14,56,-17,-39,43,-43,-43,9,-34,-39
-39,-53,-14,46,-12,-34,43,-43,-39,14,-29,-29
-34,-43,-9,39,-12,-26,39,-39,-34,14,-24,-24
-29,-39,-9,34,-9,-24,39,-39,-34,19,-24,-24
-24,-34,-9,29,-7,-21,34,-39,-34,14,-24,-19
-19,-29,-9,24,-4,-19,29,-29,-34,19,-19,-14
-14,-34,-19,24,2,-26,29,-24,-34,14,-19,-14
-14,-34,-19,24,2,-26,24,-19,-34,14,-24,-19
-14,-39,-24,26,4,-31,19,-14,-39,9,-29,-24
-14,-43,-29,29,7,-36,19,-9,-39,9,-29,-29
-14,-43,-29,29,7,-36,19,4,-39,9,-34,-34
-9,-39,-29,24,9,-34,19,9,-34,14,-29,-29
-9,-34,-24,21,7,-29,19,4,-29,19,-24,-29
0,-24,-24,12,12,-24,19,4,-24,24,-19,-24
4,-14,-19,4,12,-17,14,0,-19,29,-14,-19
14,0,-14,-7,14,-7,4,-9,-14,34,-9,-9
14,9,-4,-12,9,2,-9,-19,-14,39,0,0
14,14,0,-14,7,7,-9,-24,-9,43,4,4
14,19,4,-17,4,12,-14,-29,-9,48,9,9
14,19,4,-17,4,12,-19,-34,-9,48,9,14
14,19,4,-17,4,12,-24,-39,-14,43,9,14
14,14,0,-14,7,7,-29,-43,-24,34,4,9
14,4,-9,-9,12,-2,-29,-39,-29,29,0,9
19,0,-19,-9,19,-9,-34,-39,-39,24,-9,4
19,-14,-34,-2,26,-24,-34,-39,-43,14,-14,0
24,-14,-39,-4,31,-26,-43,-34,-48,9,-19,-9
29,-19,-48,-4,39,-34,-48,-29,-53,9,-14,0
34,-9,-43,-12,39,-26,-53,-24,-53,9,-14,0
34,0,-34,-17,34,-17,-53,-19,-48,14,0,4
34,0,-34,-17,34,-17,-53,-24,-53,14,0,9
24,-9,-34,-7,29,-21,-53,-24,-53,19,0,9
14,-14,-29,0,21,-21,-48,-29,-48,19,4,9
4,-14,-19,4,12,-17,-43,-43,-53,19,0,4
-14,-24,-9,19,-2,-17,-29,-48,-48,19,4,9
-24,-29,-4,26,-9,-17,-19,-58,-48,19,0,4
-34,-34,0,34,-17,-17,-9,-63,-48,19,0,4
-39,-39,0,39,-19,-19,4,-63,-48,19,4,9
-34,-39,-4,36,-14,-21,4,-58,-53,14,-9,4
-29,-34,-4,31,-12,-19,9,-48,-53,14,-9,4
-19,-34,-14,26,-2,-24,0,-43,-53,9,-9,0
-14,-34,-19,24,2,-26,0,-34,-53,9,-14,-9
-9,-39,-29,24,9,-34,-9,-24,-53,9,-14,-9
-9,-43,-34,26,12,-39,-14,-24,-58,4,-24,-19
-9,-48,-39,29,14,-43,-24,-29,-58,-9,-34,-29
-9,-58,-48,34,19,-53,-19,-24,-63,-14,-39,-34
-19,-73,-53,46,17,-63,-9,-24,-63,-14,-43,-39
-24,-82,-58,53,17,-70,-9,-29,-68,-19,-48,-43
-24,-97,-73,61,24,-85,0,-24,-73,-29,-53,-53
-29,-102,-73,65,21,-87,0,-29,-82,-34,-63,-58
-34,-107,-73,70,19,-90,4,-24,-82,-39,-63,-58
-34,-112,-78,73,21,-95,0,-24,-87,-43,-68,-63
-34,-117,-82,75,24,-100,0,-19,-87,-39,-68,-58
-34,-117,-82,75,24,-100,0,-14,-87,-39,-68,-63
-34,-117,-82,75,24,-100,0,-14,-87,-39,-68,-63
-34,-112,-78,73,21,-95,-9,-19,-87,-39,-68,-63
-34,-112,-78,73,21,-95,0,-19,-87,-39,-68,-63
-39,-112,-73,75,17,-92,4,-24,-82,-34,-68,-58
-43,-112,-68,78,12,-90,9,-34,-82,-34,-68,-63
-48,-117,-68,82,9,-92,19,-39,-82,-29,-63,-58
-53,-117,-63,85,4,-90,19,-43,-82,-34,-63,-58
-58,-126,-68,92,4,-97,24,-48,-87,-39,-63,-63
-63,-131,-68,97,2,-100,24,-48,-87,-39,-63,-63
-63,-131,-68,97,2,-100,24,-48,-87,-39,-68,-63
-58,-131,-73,95,7,-102,14,-48,-97,-48,-73,-73
-53,-136,-82,95,14,-109,9,-43,-97,-48,-78,-73
-48,-136,-87,92,19,-112,9,-34,-102,-53,-78,-73
-43,-136,-92,90,24,-114,9,-29,-97,-48,-78,-73
-43,-131,-87,87,21,-109,4,-29,-102,-53,-82,-78
-43,-131,-87,87,21,-109,4,-24,-97,-48,-78,-73
-39,-131,-92,85,26,-112,4,-24,-97,-43,-78,-68
-39,-131,-92,85,26,-112,0,-19,-97,-43,-73,-68
-39,-131,-92,85,26,-112,-9,-24,-97,-43,-73,-68
-39,-131,-92,85,26,-112,-9,-24,-97,-43,-78,-73
-39,-131,-92,85,26,-112,-14,-29,-97,-48,-78,-73
-48,-131,-82,90,17,-107,0,-29,-97,-43,-73,-73
-53,-136,-82,95,14,-109,0,-34,-97,-48,-78,-73
-63,-136,-73,100,4,-104,9,-43,-97,-48,-78,-73
-73,-141,-68,107,-2,-104,14,-48,-97,-48,-78,-73
-82,-146,-63,114,-9,-104,24,-53,-97,-48,-78,-73
-82,-151,-68,117,-7,-109,29,-58,-102,-53,-82,-78
-82,-156,-73,119,-4,-114,34,-58,-102,-53,-82,-78
-82,-165,-82,124,0,-124,39,-58,-107,-63,-92,-82
-82,-170,-87,126,2,-129,48,-43,-107,-68,-97,-87
-82,-185,-102,134,9,-143,58,-34,-112,-73,-107,-97
-87,-200,-112,143,12,-156,68,-29,-117,-87,-122,-117
-102,-229,-126,165,12,-178,87,-19,-117,-97,-136,-131
-117,-248,-131,183,7,-190,102,-14,-122,-112,-156,-156
-131,-268,-136,200,2,-202,117,-14,-117,-122,-170,-175
-151,-283,-131,217,-9,-207,136,-14,-102,-122,-175,-180
-170,-278,-107,224,-31,-192,156,-19,-82,-112,-180,-190
-185,-263,-78,224,-53,-170,170,-24,-53,-97,-170,-190
-190,-234,-43,212,-73,-139,170,-34,-19,-78,-161,-180
-185,-190,-4,187,-90,-97,170,-34,14,-48,-136,-161
-165,-141,24,153,-95,-58,156,-39,43,-24,-112,-136
-131,-87,43,109,-87,-21,131,-39,63,14,-78,-107
-78,-24,53,51,-65,14,87,-29,73,39,-48,-78
0,43,43,-21,-21,43,24,-9,73,68,-14,-39
82,117,34,-100,24,75,-53,14,73,97,34,14
175,204,29,-190,73,117,-146,39,63,136,87,73
292,307,14,-300,139,161,-273,58,53,180,151,141
419,439,19,-429,200,229,-405,78,53,244,234,229
551,585,34,-568,258,309,-556,97,58,312,326,331
688,751,63,-719,312,407,-707,107,73,400,444,453
829,941,112,-885,358,527,-863,112,102,507,566,580
946,1151,204,-1049,370,678,-1005,97,146,624,707,732
1049,1356,307,-1202,370,832,-1141,68,195,746,858,883
1122,1546,424,-1334,348,985,-1263,19,244,868,995,1024
1171,1717,546,-1444,312,1132,-1356,-29,302,985,1132,1161
1195,1864,668,-1529,263,1266,-1429,-92,351,1093,1254,1283
1190,1976,785,-1583,202,1381,-1468,-156,409,1185,1351,1381
1161,2049,888,-1605,136,1468,-1488,-224,448,1263,1429,1454
1117,2074,956,-1595,80,1515,-1468,-273,483,1312,1473,1498
1044,2039,995,-1542,24,1517,-1415,-307,502,1322,1483,1503
951,1932,980,-1442,-14,1456,-1327,-322,492,1288,1439,1464
844,1756,912,-1300,-34,1334,-1205,-317,448,1195,1342,1376
727,1512,785,-1119,-29,1149,-1063,-283,370,1054,1195,1249
610,1234,624,-922,-7,929,-897,-239,278,878,1019,1088
483,941,458,-712,12,700,-722,-190,165,678,824,907
356,668,312,-512,21,490,-546,-141,73,492,639,732
253,444,190,-348,31,317,-400,-112,-14,326,473,575
161,287,126,-224,17,207,-287,-97,-63,214,341,448
92,185,92,-139,0,139,-195,-87,-73,141,258,351
48,126,78,-87,-14,102,-131,-82,-73,97,190,278
24,92,68,-58,-21,80,-102,-78,-68,68,141,214
9,73,63,-41,-26,68,-73,-68,-48,58,107,161
-9,53,63,-21,-36,58,-48,-58,-29,58,82,122
-24,24,48,0,-36,36,-24,-43,-19,53,53,82
-34,-9,24,21,-29,7,0,-39,-24,34,24,39
-43,-34,9,39,-26,-12,19,-29,-19,29,4,14
-48,-53,-4,51,-21,-29,29,-29,-29,9,-19,-19
-53,-73,-19,63,-17,-46,43,-24,-29,4,-34,-34
-53,-82,-29,68,-12,-56,53,-19,-29,0,-43,-43
-53,-87,-34,70,-9,-61,53,-14,-34,-14,-48,-48
-53,-92,-39,73,-7,-65,53,0,-43,-19,-58,-58
-53,-97,-43,75,-4,-70,58,14,-39,-19,-58,-58
-48,-97,-48,73,0,-73,53,14,-43,-24,-63,-63
-48,-102,-53,75,2,-78,58,24,-39,-19,-63,-63
-48,-102,-53,75,2,-78,58,24,-43,-24,-68,-68
-53,-102,-48,78,-2,-75,58,14,-43,-29,-68,-73
-53,-107,-53,80,0,-80,58,4,-43,-29,-73,-73
-63,-112,-48,87,-7,-80,63,-9,-43,-34,-73,-78
-78,-122,-43,100,-17,-82,73,-14,-39,-34,-73,-78
-92,-131,-39,112,-26,-85,82,-19,-39,-34,-73,-78
-97,-136,-39,117,-29,-87,82,-24,-48,-39,-78,-82
-97,-146,-48,122,-24,-97,82,-14,-48,-43,-82,-82
-97,-151,-53,124,-21,-102,82,-14,-48,-43,-82,-87
-87,-146,-58,117,-14,-102,78,-9,-53,-48,-87,-92
-73,-141,-68,107,-2,-104,73,9,-48,-43,-87,-92
-58,-131,-73,95,7,-102,68,19,-53,-43,-92,-92
-48,-126,-78,87,14,-102,63,24,-48,-43,-92,-92
-43,-122,-78,82,17,-100,68,29,-43,-39,-82,-87
-43,-122,-78,82,17,-100,68,34,-43,-39,-82,-87
-48,-122,-73,85,12,-97,63,29,-48,-43,-87,-92
-58,-126,-68,92,4,-97,68,19,-48,-43,-92,-92
-68,-136,-68,102,0,-102,68,9,-48,-43,-92,-97
-78,-141,-63,109,-7,-102,68,4,-48,-43,-92,-97
-82,-141,-58,112,-12,-100,68,0,-48,-43,-92,-97
-87,-146,-58,117,-14,-102,63,-9,-48,-43,-92,-102
-87,-151,-63,119,-12,-107,68,0,-43,-39,-87,-97
-87,-151,-63,119,-12,-107,73,0,-43,-39,-87,-92
-87,-146,-58,117,-14,-102,68,-14,-48,-43,-92,-97
-87,-146,-58,117,-14,-102,73,-9,-43,-39,-87,-97
-87,-141,-53,114,-17,-97,78,-9,-39,-39,-87,-92
-92,-141,-48,117,-21,-95,82,-14,-39,-34,-87,-92
-97,-136,-39,117,-29,-87,82,-19,-34,-34,-87,-92
-97,-136,-39,117,-29,-87,87,-19,-34,-34,-87,-92
-97,-136,-39,117,-29,-87,87,-19,-34,-39,-87,-97
-97,-141,-43,119,-26,-92,87,-14,-29,-34,-87,-92
-97,-141,-43,119,-26,-92,87,-19,-34,-39,-92,-97
-92,-146,-53,119,-19,-100,82,-14,-34,-43,-92,-102
-87,-146,-58,117,-14,-102,78,-14,-39,-43,-97,-107
-82,-141,-58,112,-12,-100,78,-9,-34,-39,-97,-102
-73,-136,-63,104,-4,-100,78,0,-34,-39,-97,-102
-63,-131,-68,97,2,-100,78,4,-34,-39,-97,-102
-58,-122,-63,90,2,-92,78,9,-29,-39,-97,-102
-48,-117,-68,82,9,-92,82,19,-29,-39,-92,-102
-48,-112,-63,80,7,-87,82,19,-34,-39,-92,-102
-48,-112,-63,80,7,-87,87,19,-34,-39,-92,-102
-53,-117,-63,85,4,-90,97,29,-29,-39,-92,-97
-58,-117,-58,87,0,-87,92,24,-34,-43,-97,-102
-68,-122,-53,95,-7,-87,97,19,-29,-43,-97,-102
-78,-126,-48,102,-14,-87,102,19,-29,-39,-97,-107
-82,-131,-48,107,-17,-90,102,19,-24,-39,-92,-107
-87,-136,-48,112,-19,-92,107,14,-19,-34,-92,-102
-92,-136,-43,114,-24,-90,102,9,-19,-39,-97,-107
-92,-136,-43,114,-24,-90,102,4,-19,-34,-97,-102
-87,-131,-43,109,-21,-87,97,4,-19,-39,-97,-107
-87,-126,-39,107,-24,-82,97,9,-14,-34,-92,-102
-87,-126,-39,107,-24,-82,97,9,-9,-29,-92,-97
-87,-117,-29,102,-29,-73,92,9,-9,-34,-92,-102
-87,-117,-29,102,-29,-73,92,9,-9,-29,-92,-97
-97,-117,-19,107,-39,-68,97,14,0,-29,-87,-97
-102,-122,-19,112,-41,-70,102,9,0,-29,-87,-97
-107,-126,-19,117,-43,-73,102,4,-9,-34,-92,-102
-107,-131,-24,119,-41,-78,112,4,0,-34,-92,-102
-107,-141,-34,124,-36,-87,112,0,-9,-39,-97,-107
-102,-146,-43,124,-29,-95,112,0,-14,-43,-102,-112
-97,-141,-43,119,-26,-92,117,4,-9,-43,-102,-112
-92,-136,-43,114,-24,-90,117,9,-9,-43,-102,-112
-87,-131,-43,109,-21,-87,112,14,-9,-43,-107,-117
-87,-131,-43,109,-21,-87,117,19,0,-39,-102,-112
-87,-126,-39,107,-24,-82,117,29,9,-29,-92,-107
-82,-117,-34,100,-24,-75,112,39,14,-29,-92,-102
-73,-112,-39,92,-17,-75,107,43,14,-29,-92,-102
-73,-107,-34,90,-19,-70,112,43,19,-24,-92,-102
-78,-107,-29,92,-24,-68,112,39,19,-29,-92,-102
-82,-107,-24,95,-29,-65,112,29,14,-29,-97,-107
-92,-117,-24,104,-34,-70,126,24,19,-29,-92,-102
-107,-126,-19,117,-43,-73,131,9,14,-34,-97,-107
-126,-136,-9,131,-58,-73,141,0,14,-34,-97,-107
-136,-141,-4,139,-65,-73,146,0,14,-34,-97,-112
-141,-141,0,141,-70,-70,151,4,19,-34,-92,-107
-141,-141,0,141,-70,-70,151,4,19,-29,-92,-107
-131,-131,0,131,-65,-65,146,4,24,-34,-97,-112
-122,-122,0,122,-61,-61,146,14,29,-29,-92,-107
-112,-112,0,112,-56,-56,146,19,34,-24,-87,-107
-102,-107,-4,104,-48,-56,141,24,39,-24,-92,-107
-97,-107,-9,102,-43,-58,141,19,39,-29,-97,-112
-92,-102,-9,97,-41,-56,146,24,43,-24,-92,-112
-92,-102,-9,97,-41,-56,146,24,43,-24,-92,-112
-97,-102,-4,100,-46,-53,146,24,43,-24,-97,-112
-102,-102,0,102,-51,-51,146,29,48,-24,-97,-112
-97,-92,4,95,-51,-43,146,34,53,-19,-92,-112
-92,-82,9,87,-51,-36,146,43,58,-14,-92,-107
-87,-78,9,82,-48,-34,156,53,68,-9,-87,-102
-92,-73,19,82,-56,-26,161,53,73,0,-82,-97
-92,-78,14,85,-53,-31,165,53,73,0,-87,-102
-102,-78,24,90,-63,-26,175,58,73,0,-87,-102
-107,-82,24,95,-65,-29,180,53,73,-9,-92,-107
-112,-87,24,100,-68,-31,185,53,73,-9,-92,-112
-122,-92,29,107,-75,-31,190,58,78,-9,-92,-107
-122,-92,29,107,-75,-31,195,53,78,-9,-92,-107
-122,-82,39,102,-80,-21,195,53,78,0,-87,-107
-117,-78,39,97,-78,-19,204,53,87,4,-82,-97
-117,-68,48,92,-82,-9,204,48,92,9,-78,-97
-112,-63,48,87,-80,-7,209,39,92,4,-82,-97
-112,-63,48,87,-80,-7,209,43,97,4,-82,-97
-117,-63,53,90,-85,-4,214,48,102,4,-78,-97
-122,-68,53,95,-87,-7,214,48,97,0,-82,-97
-126,-68,58,97,-92,-4,214,53,102,4,-82,-97
-126,-68,58,97,-92,-4,214,58,107,4,-82,-97
-126,-68,58,97,-92,-4,214,63,107,4,-82,-92
-122,-63,58,92,-90,-2,209,63,112,4,-82,-92
-112,-53,58,82,-85,2,204,68,112,4,-82,-92
-107,-48,58,78,-82,4,204,73,117,9,-78,-87
-102,-43,58,73,-80,7,195,73,117,4,-78,-87
-102,-39,63,70,-82,12,204,68,122,9,-78,-87
-107,-39,68,73,-87,14,204,63,126,9,-78,-87
-112,-34,78,73,-95,21,204,53,126,14,-78,-87
-112,-34,78,73,-95,21,204,48,126,14,-73,-87
-117,-39,78,78,-97,19,209,48,126,14,-73,-87
-122,-43,78,82,-100,17,214,48,126,14,-73,-87
-122,-43,78,82,-100,17,219,48,122,9,-73,-87
-122,-43,78,82,-100,17,224,48,117,9,-73,-87
-122,-48,73,85,-97,12,229,53,117,9,-78,-87
-126,-43,82,85,-104,19,234,58,117,9,-73,-82
-122,-39,82,80,-102,21,229,53,117,9,-73,-82
-122,-34,87,78,-104,26,229,58,126,14,-68,-73
-117,-24,92,70,-104,34,224,58,126,14,-63,-73
-107,-19,87,63,-97,34,214,58,122,14,-63,-73
-97,-19,78,58,-87,29,209,58,122,9,-63,-73
-87,-19,68,53,-78,24,204,63,117,9,-63,-68
-82,-19,63,51,-73,21,190,63,112,4,-68,-73
-78,-19,58,48,-68,19,190,63,107,4,-68,-73
-73,-19,53,46,-63,17,185,68,107,4,-63,-68
-73,-19,53,46,-63,17,180,63,102,4,-63,-63
-78,-19,58,48,-68,19,175,53,97,9,-63,-63
-82,-19,63,51,-73,21,175,43,97,9,-58,-58
-87,-14,73,51,-80,29,170,34,92,9,-53,-53
-87,-14,73,51,-80,29,161,29,87,9,-53,-48
-87,-19,68,53,-78,24,156,29,87,9,-48,-43
-82,-19,63,51,-73,21,146,29,82,9,-48,-43
-68,-14,53,41,-61,19,136,39,73,9,-43,-43
-53,-14,39,34,-46,12,122,48,68,4,-43,-39
-39,-9,29,24,-34,9,107,53,63,4,-43,-39
-29,0,29,14,-29,14,97,58,53,9,-39,-39
-24,0,24,12,-24,12,87,53,43,4,-43,-39
-19,-9,9,14,-14,0,73,48,39,4,-43,-39
-24,-9,14,17,-19,2,68,39,39,4,-39,-34
-34,-19,14,26,-24,-2,63,34,34,4,-39,-34
-39,-24,14,31,-26,-4,58,24,29,4,-34,-34
-34,-34,0,34,-17,-17,53,19,19,0,-39,-34
-29,-34,-4,31,-12,-19,48,19,14,0,-39,-34
-24,-39,-14,31,-4,-26,43,14,9,-9,-39,-34
-19,-39,-19,29,0,-29,34,9,0,-14,-43,-39
-14,-39,-24,26,4,-31,34,14,0,-9,-39,-34
-9,-39,-29,24,9,-34,29,14,-9,0,-39,-34
0,-34,-34,17,17,-34,19,4,-14,-9,-43,-34
0,-34,-34,17,17,-34,14,0,-14,-9,-39,-34
0,-34,-34,17,17,-34,14,-14,-19,-9,-39,-34
-14,-43,-29,29,7,-36,14,-14,-24,-9,-34,-34
-19,-48,-29,34,4,-39,14,-19,-29,-9,-34,-34
-24,-53,-29,39,2,-41,19,-19,-29,-9,-34,-29
-24,-58,-34,41,4,-46,19,-19,-34,-14,-39,-34
-29,-63,-34,46,2,-48,19,-14,-34,-14,-34,-29
-24,-63,-39,43,7,-51,14,-14,-34,-14,-39,-34
-14,-53,-39,34,12,-46,9,-14,-34,-14,-39,-34
-9,-53,-43,31,17,-48,4,-14,-34,-9,-34,-34
-9,-53,-43,31,17,-48,0,-19,-34,-9,-34,-34
-14,-58,-43,36,14,-51,-9,-24,-39,-14,-39,-39
-19,-63,-43,41,12,-53,-9,-24,-39,-14,-39,-39
-24,-63,-39,43,7,-51,-9,-29,-43,-19,-43,-39
-29,-68,-39,48,4,-53,0,-29,-43,-14,-39,-39
-34,-68,-34,51,0,-51,4,-29,-43,-19,-39,-39
-34,-68,-34,51,0,-51,9,-24,-43,-14,-39,-34
-29,-63,-34,46,2,-48,9,-19,-39,-9,-34,-34
-24,-63,-39,43,7,-51,9,-19,-39,-9,-34,-34
-14,-58,-43,36,14,-51,4,-19,-43,-9,-34,-34
-9,-53,-43,31,17,-48,0,-19,-39,0,-29,-34
-9,-58,-48,34,19,-53,-9,-19,-39,0,-34,-34
-9,-58,-48,34,19,-53,-14,-19,-43,-9,-34,-34
0,-58,-58,29,29,-58,-14,-19,-43,-9,-34,-34
0,-53,-53,26,26,-53,-24,-19,-43,-14,-39,-39
0,-53,-53,26,26,-53,-24,-19,-43,-14,-39,-39
0,-53,-53,26,26,-53,-19,-14,-39,-9,-34,-34
4,-48,-53,21,29,-51,-14,-9,-39,-9,-34,-34
4,-48,-53,21,29,-51,-9,0,-34,0,-29,-29
4,-48,-53,21,29,-51,0,0,-34,0,-29,-29
0,-48,-48,24,24,-48,0,-9,-34,0,-34,-34
-9,-53,-43,31,17,-48,0,-9,-34,0,-29,-34
-9,-58,-48,34,19,-53,-9,-9,-39,-9,-34,-39
-9,-63,-53,36,21,-58,-9,-9,-39,-9,-39,-43
-9,-68,-58,39,24,-63,-9,-9,-39,-9,-39,-39
-14,-73,-58,43,21,-65,-14,-14,-43,-14,-43,-43
-19,-73,-53,46,17,-63,-9,-19,-43,-14,-39,-39
-24,-73,-48,48,12,-61,0,-24,-43,-14,-43,-39
-29,-73,-43,51,7,-58,0,-29,-43,-14,-43,-39
-34,-73,-39,53,2,-56,9,-29,-39,-9,-39,-34
-34,-68,-34,51,0,-51,4,-39,-43,-14,-39,-34
-34,-68,-34,51,0,-51,9,-34,-39,-9,-34,-34
-29,-63,-34,46,2,-48,9,-29,-34,0,-34,-34
-19,-63,-43,41,12,-53,4,-29,-43,-14,-39,-39
-14,-68,-53,41,19,-61,4,-24,-48,-14,-43,-43
-14,-73,-58,43,21,-65,0,-24,-48,-19,-48,-43
-19,-78,-58,48,19,-68,4,-19,-53,-19,-48,-43
-24,-82,-58,53,17,-70,4,-14,-53,-19,-48,-43
-29,-82,-53,56,12,-68,0,-19,-53,-24,-48,-48
-34,-82,-48,58,7,-65,0,-19,-53,-24,-48,-48
-43,-82,-39,63,-2,-61,4,-19,-48,-14,-43,-43
-43,-78,-34,61,-4,-56,4,-24,-43,-14,-43,-39
-43,-78,-34,61,-4,-56,9,-24,-39,-14,-39,-39
-39,-68,-29,53,-4,-48,9,-24,-39,-9,-39,-39
-29,-63,-34,46,2,-48,9,-19,-29,0,-34,-34
-14,-53,-39,34,12,-46,4,-19,-34,0,-34,-34
4,-48,-53,21,29,-51,0,-14,-29,0,-34,-34
9,-43,-53,17,31,-48,-9,0,-34,0,-34,-34
14,-43,-58,14,36,-51,-9,4,-34,0,-34,-34
4,-43,-48,19,26,-46,-9,0,-39,-9,-39,-39
-9,-53,-43,31,17,-48,0,0,-34,0,-39,-39
-19,-63,-43,41,12,-53,4,-9,-39,-9,-43,-43
-29,-68,-39,48,4,-53,9,-14,-39,-14,-48,-48
-34,-73,-39,53,2,-56,14,-19,-39,-14,-48,-48
-34,-78,-43,56,4,-61,19,-24,-39,-14,-48,-48
-34,-73,-39,53,2,-56,19,-19,-34,-14,-43,-43
-34,-63,-29,48,-2,-46,19,-24,-34,-14,-43,-43
-34,-58,-24,46,-4,-41,19,-24,-24,0,-39,-39
-39,-53,-14,46,-12,-34,24,-24,-19,4,-34,-34
-43,-53,-9,48,-17,-31,19,-24,-19,4,-29,-29
-43,-53,-9,48,-17,-31,19,-24,-19,4,-34,-34
-43,-58,-14,51,-14,-36,14,-24,-19,0,-39,-39
-39,-58,-19,48,-9,-39,14,-24,-24,0,-39,-43
-29,-58,-29,43,0,-43,9,-24,-29,-9,-48,-48
-19,-53,-34,36,7,-43,4,-19,-29,-14,-48,-48
-14,-48,-34,31,9,-41,9,-14,-24,-9,-39,-43
-9,-39,-29,24,9,-34,9,-14,-19,0,-39,-39
0,-29,-29,14,14,-29,9,-19,-19,0,-34,-39
-9,-29,-19,19,4,-24,4,-19,-19,4,-34,-34
-24,-34,-9,29,-7,-21,9,-24,-19,4,-34,-34
-39,-48,-9,43,-14,-29,14,-29,-19,4,-34,-39
-48,-58,-9,53,-19,-34,24,-29,-19,4,-34,-39
-58,-68,-9,63,-24,-39,24,-34,-24,4,-39,-43
-73,-82,-9,78,-31,-46,34,-34,-24,4,-43,-43
-78,-87,-9,82,-34,-48,39,-34,-24,0,-43,-48
-73,-92,-19,82,-26,-56,43,-34,-24,0,-43,-48
-73,-87,-14,80,-29,-51,39,-34,-29,-9,-48,-53
-73,-87,-14,80,-29,-51,39,-34,-29,-9,-48,-53
-68,-87,-19,78,-24,-53,43,-24,-29,-9,-43,-48
-53,-82,-29,68,-12,-56,39,-19,-29,-9,-48,-48
-48,-82,-34,65,-7,-58,34,-14,-34,-14,-48,-53
-43,-78,-34,61,-4,-56,34,-9,-29,-14,-48,-48
-39,-73,-34,56,-2,-53,24,-9,-29,-14,-48,-48
-34,-73,-39,53,2,-56,24,-9,-24,-9,-43,-43
-39,-73,-34,56,-2,-53,19,-19,-29,-9,-43,-43
-48,-73,-24,61,-12,-48,19,-24,-24,-9,-43,-43
-58,-73,-14,65,-21,-43,19,-34,-24,0,-39,-43
-58,-73,-14,65,-21,-43,24,-39,-24,0,-39,-43
-68,-78,-9,73,-29,-43,29,-43,-29,0,-39,-43
-73,-82,-9,78,-31,-46,39,-43,-29,0,-43,-43
-68,-78,-9,73,-29,-43,39,-43,-29,-9,-43,-48
-53,-78,-24,65,-14,-51,39,-34,-34,-14,-48,-48
-48,-78,-29,63,-9,-53,39,-29,-34,-14,-48,-53
-43,-82,-39,63,-2,-61,34,-19,-39,-19,-48,-53
-39,-78,-39,58,0,-58,29,-19,-39,-19,-48,-53
-39,-73,-34,56,-2,-53,29,-9,-29,-14,-48,-48
-39,-73,-34,56,-2,-53,24,0,-29,-14,-43,-53
-39,-73,-34,56,-2,-53,24,0,-24,-9,-43,-48
-39,-68,-29,53,-4,-48,24,0,-19,0,-39,-48
-39,-63,-24,51,-7,-43,24,-14,-19,0,-43,-48
-43,-58,-14,51,-14,-36,24,-14,-19,0,-39,-48
-39,-58,-19,48,-9,-39,19,-14,-19,0,-39,-43
-39,-58,-19,48,-9,-39,19,-14,-19,0,-34,-43
-39,-58,-19,48,-9,-39,14,-14,-24,0,-34,-43
-39,-58,-19,48,-9,-39,14,-14,-24,0,-39,-43
-29,-63,-34,46,2,-48,14,-9,-29,-9,-39,-43
-29,-63,-34,46,2,-48,14,-9,-29,-9,-43,-43
-29,-63,-34,46,2,-48,14,-14,-34,-14,-43,-43
-29,-63,-34,46,2,-48,14,-14,-34,-14,-43,-43
-24,-68,-43,46,9,-56,9,-14,-39,-14,-48,-43
-29,-73,-43,51,7,-58,9,-19,-39,-19,-48,-48
-34,-73,-39,53,2,-56,9,-19,-39,-14,-43,-43
-34,-78,-43,56,4,-61,9,-24,-39,-14,-43,-43
-34,-78,-43,56,4,-61,9,-29,-43,-19,-48,-48
-34,-82,-48,58,7,-65,4,-34,-48,-24,-53,-53
-39,-82,-43,61,2,-63,9,-34,-48,-24,-48,-48
-39,-78,-39,58,0,-58,4,-34,-53,-24,-58,-53
-39,-78,-39,58,0,-58,4,-34,-48,-24,-53,-53
-39,-78,-39,58,0,-58,9,-34,-48,-19,-53,-53
-43,-73,-29,58,-7,-51,14,-29,-43,-19,-48,-48
-48,-73,-24,61,-12,-48,24,-24,-39,-9,-43,-43
-48,-78,-29,63,-9,-53,24,-24,-39,-14,-43,-43
-53,-82,-29,68,-12,-56,29,-24,-39,-14,-43,-43
-53,-82,-29,68,-12,-56,24,-24,-39,-19,-48,-43
-48,-87,-39,68,-4,-63,14,-24,-43,-24,-48,-48
-48,-92,-43,70,-2,-68,9,-24,-48,-29,-53,-48
-43,-97,-53,70,4,-75,9,-24,-53,-29,-58,-53
-39,-97,-58,68,9,-78,9,-24,-53,-29,-58,-48
-34,-97,-63,65,14,-80,4,-24,-53,-29,-63,-53
-29,-92,-63,61,17,-78,9,-19,-48,-29,-58,-48
-24,-92,-68,58,21,-80,9,-24,-53,-29,-58,-53
-24,-87,-63,56,19,-75,4,-19,-53,-29,-58,-53
-19,-87,-68,53,24,-78,4,-9,-48,-24,-53,-48
-19,-82,-63,51,21,-73,4,-9,-53,-24,-58,-53
-24,-82,-58,53,17,-70,9,4,-48,-19,-53,-48
-24,-82,-58,53,17,-70,9,4,-48,-24,-53,-48
-24,-82,-58,53,17,-70,4,4,-48,-24,-53,-48
-24,-82,-58,53,17,-70,4,4,-48,-24,-53,-48
-24,-82,-58,53,17,-70,4,0,-48,-24,-53,-43
-29,-87,-58,58,14,-73,4,-14,-53,-29,-58,-48
-34,-87,-53,61,9,-70,4,-19,-53,-29,-53,-48
-39,-92,-53,65,7,-73,4,-29,-58,-34,-58,-53
-43,-97,-53,70,4,-75,14,-34,-58,-29,-53,-53
-53,-102,-48,78,-2,-75,24,-39,-58,-34,-58,-53
-63,-112,-48,87,-7,-80,29,-48,-63,-34,-58,-58
-68,-112,-43,90,-12,-78,34,-48,-58,-29,-58,-53
-68,-112,-43,90,-12,-78,34,-48,-58,-29,-58,-53
-68,-112,-43,90,-12,-78,34,-39,-53,-29,-58,-53
-58,-107,-48,82,-4,-78,29,-34,-53,-29,-58,-53
-48,-97,-48,73,0,-73,19,-29,-53,-29,-58,-53
-34,-87,-53,61,9,-70,9,-14,-48,-24,-53,-53
-19,-82,-63,51,21,-73,0,-9,-53,-29,-53,-53
-9,-78,-68,43,29,-73,-14,0,-53,-29,-53,-53
-9,-73,-63,41,26,-68,-14,4,-53,-29,-53,-53
-9,-73,-63,41,26,-68,-14,0,-53,-29,-53,-53
-14,-73,-58,43,21,-65,-14,0,-53,-29,-53,-53
-19,-73,-53,46,17,-63,4,-9,-48,-24,-48,-48
-29,-78,-48,53,9,-63,14,-14,-48,-19,-48,-43
-34,-78,-43,56,4,-61,19,-19,-48,-24,-48,-48
-34,-78,-43,56,4,-61,24,-19,-48,-19,-48,-43
-34,-78,-43,56,4,-61,29,-19,-43,-19,-48,-43
-34,-73,-39,53,2,-56,29,-14,-43,-14,-43,-43
-24,-68,-43,46,9,-56,29,-9,-43,-19,-43,-43
-14,-63,-48,39,17,-56,24,0,-39,-14,-43,-43
-9,-58,-48,34,19,-53,19,-9,-39,-14,-43,-43
0,-53,-53,26,26,-53,14,-14,-39,-9,-43,-48
0,-48,-48,24,24,-48,19,-14,-29,0,-39,-39
0,-43,-43,21,21,-43,19,-19,-24,4,-34,-39
-14,-39,-24,26,4,-31,24,-24,-24,4,-29,-34
-19,-34,-14,26,-2,-24,24,-24,-19,9,-29,-29
-24,-29,-4,26,-9,-17,24,-24,-19,9,-24,-29
-24,-29,-4,26,-9,-17,24,-19,-14,14,-24,-24
-29,-24,4,26,-17,-9,24,-19,-9,19,-19,-19
-24,-24,0,24,-12,-12,19,-14,-9,19,-14,-19
-19,-24,-4,21,-7,-14,14,-14,-14,19,-19,-19
-14,-19,-4,17,-4,-12,14,-9,-9,19,-14,-19
-9,-19,-9,14,0,-14,4,-9,-9,19,-19,-19
0,-19,-19,9,9,-19,4,0,0,24,-14,-14
4,-14,-19,4,12,-17,0,0,-9,24,-14,-14
4,-9,-14,2,9,-12,4,0,0,29,-9,-9
9,0,-9,-4,9,-4,4,0,0,29,0,-9
14,14,0,-14,7,7,9,0,4,34,4,4
19,24,4,-21,7,14,9,0,9,39,9,9
19,29,9,-24,4,19,9,0,9,39,14,14
19,29,9,-24,4,19,9,-14,9,39,14,19
29,29,0,-29,14,14,0,-19,4,34,14,14
29,29,0,-29,14,14,-14,-24,0,34,14,14
29,19,-9,-24,19,4,-19,-29,-9,29,9,14
24,14,-9,-19,17,2,-29,-39,-19,24,4,9
29,9,-19,-19,24,-4,-39,-39,-24,19,0,4
34,9,-24,-21,29,-7,-48,-29,-24,19,0,9
39,14,-24,-26,31,-4,-58,-24,-29,19,0,9
48,19,-29,-34,39,-4,-68,-19,-29,19,4,9
48,24,-24,-36,36,0,-68,-9,-24,24,9,14
48,29,-19,-39,34,4,-63,0,-19,29,14,19
48,34,-14,-41,31,9,-63,-9,-24,29,9,19
39,34,-4,-36,21,14,-53,0,-14,34,14,24
29,29,0,-29,14,14,-43,-14,-14,34,19,24
14,24,9,-19,2,17,-39,-29,-14,34,14,24
0,14,14,-7,-7,14,-29,-39,-9,34,14,24
-14,9,24,2,-19,17,-24,-43,-9,34,14,19
-19,0,19,9,-19,9,-24,-48,-9,29,9,14
-19,-14,4,17,-12,-4,-24,-48,-14,24,4,9
-14,-19,-4,17,-4,-12,-24,-48,-19,19,0,4
-9,-19,-9,14,0,-14,-29,-39,-24,14,-9,0
4,-19,-24,7,14,-21,-34,-34,-29,9,-14,0
9,-24,-34,7,21,-29,-34,-24,-34,4,-19,-14
19,-34,-53,7,36,-43,-29,-19,-39,-9,-24,-19
14,-43,-58,14,36,-51,-24,-14,-43,-14,-34,-29
9,-53,-63,21,36,-58,-24,-14,-48,-19,-39,-34
4,-63,-68,29,36,-65,-19,-14,-53,-24,-48,-43
0,-78,-78,39,39,-78,-19,-14,-63,-34,-58,-53
-19,-92,-73,56,26,-82,-9,-14,-68,-39,-63,-58
-29,-102,-73,65,21,-87,0,-19,-73,-39,-68,-58
-39,-112,-73,75,17,-92,9,-19,-68,-34,-63,-53
-48,-117,-68,82,9,-92,14,-24,-68,-34,-63,-53
-53,-117,-63,85,4,-90,14,-34,-73,-39,-68,-58
-53,-117,-63,85,4,-90,14,-34,-68,-39,-63,-53
-53,-107,-53,80,0,-80,9,-39,-68,-39,-63,-58
-48,-107,-58,78,4,-82,4,-34,-68,-34,-58,-53
-43,-102,-58,73,7,-80,0,-34,-68,-34,-58,-53
-34,-97,-63,65,14,-80,-9,-29,-73,-39,-58,-58
-34,-97,-63,65,14,-80,-9,-29,-73,-39,-58,-58
-39,-102,-63,70,12,-82,0,-29,-68,-34,-58,-58
-39,-107,-68,73,14,-87,4,-34,-73,-39,-63,-63
-43,-107,-63,75,9,-85,9,-34,-68,-39,-63,-63
-53,-112,-58,82,2,-85,14,-39,-68,-39,-63,-63
-63,-117,-53,90,-4,-85,19,-39,-68,-34,-63,-58
-63,-122,-58,92,-2,-90,19,-43,-68,-39,-63,-58
-63,-126,-63,95,0,-95,14,-43,-73,-43,-63,-63
-58,-126,-68,92,4,-97,9,-39,-73,-43,-68,-63
-53,-122,-68,87,7,-95,4,-39,-78,-48,-68,-68
-43,-122,-78,82,17,-100,4,-34,-73,-48,-68,-63
-39,-117,-78,78,19,-97,0,-34,-78,-48,-68,-68
-29,-117,-87,73,29,-102,-9,-29,-78,-53,-73,-68
-29,-112,-82,70,26,-97,0,-24,-68,-48,-68,-63
-29,-107,-78,68,24,-92,0,-19,-68,-43,-68,-63
-29,-112,-82,70,26,-97,0,-19,-68,-43,-68,-63
-29,-112,-82,70,26,-97,0,-14,-68,-43,-68,-63
-29,-112,-82,70,26,-97,-9,-9,-63,-39,-63,-58
-29,-112,-82,70,26,-97,-9,-14,-68,-39,-68,-63
-34,-112,-78,73,21,-95,-14,-19,-68,-39,-68,-63
-39,-112,-73,75,17,-92,-14,-19,-63,-34,-58,-58
-39,-107,-68,73,14,-87,-14,-24,-68,-39,-63,-63
-43,-107,-63,75,9,-85,0,-19,-63,-34,-63,-58
-43,-112,-68,78,12,-90,4,-19,-63,-34,-68,-68
-43,-117,-73,80,14,-95,14,-19,-63,-39,-73,-73
-53,-126,-73,90,9,-100,34,-9,-58,-43,-78,-78
-68,-151,-82,109,7,-117,48,-14,-63,-58,-97,-102
-87,-175,-87,131,0,-131,73,-14,-68,-73,-117,-122
-112,-209,-97,161,-7,-153,97,-9,-63,-78,-131,-136
-136,-229,-92,183,-21,-161,122,-14,-53,-82,-141,-156
-161,-244,-82,202,-39,-163,151,-14,-39,-82,-151,-165
-175,-239,-63,207,-56,-151,165,-14,-24,-78,-156,-180
-180,-224,-43,202,-68,-134,185,0,9,-58,-146,-175
-175,-190,-14,183,-80,-102,185,0,34,-39,-141,-170
-165,-161,4,163,-85,-78,190,9,68,-9,-117,-156
-146,-117,29,131,-87,-43,170,9,87,14,-97,-141
-122,-78,43,100,-82,-17,146,19,112,43,-68,-112
-82,-29,53,56,-68,12,112,24,126,73,-39,-82
-34,34,68,0,-51,51,63,29,136,97,-9,-48
39,102,63,-70,-12,82,-9,39,141,131,39,4
122,185,63,-153,29,124,-92,48,141,165,92,63
229,287,58,-258,85,173,-190,58,136,209,146,131
351,414,63,-383,143,239,-312,63,136,253,224,214
492,556,63,-524,214,309,-444,78,141,317,312,312
644,727,82,-685,280,405,-585,78,161,395,424,434
780,917,136,-849,322,527,-736,73,185,492,546,566
917,1127,209,-1022,353,668,-883,58,229,595,678,712
1034,1337,302,-1185,366,819,-1024,29,278,717,824,868
1132,1542,409,-1337,361,976,-1151,-9,326,834,971,1024
1205,1727,522,-1466,341,1124,-1268,-53,380,946,1107,1166
1254,1883,629,-1568,312,1256,-1356,-112,429,1044,1224,1293
1263,2000,736,-1632,263,1368,-1405,-165,478,1137,1332,1400
1249,2074,824,-1661,212,1449,-1429,-224,517,1205,1405,1478
1200,2083,883,-1642,158,1483,-1415,-263,531,1244,1444,1512
1122,2015,893,-1568,114,1454,-1351,-287,527,1239,1439,1507
1019,1883,863,-1451,78,1373,-1259,-292,497,1180,1371,1449
888,1673,785,-1281,51,1229,-1122,-278,439,1073,1263,1342
751,1395,644,-1073,53,1019,-976,-244,331,907,1093,1180
610,1088,478,-849,65,783,-810,-190,214,717,893,995
463,775,312,-619,75,544,-644,-141,97,517,688,800
326,492,165,-409,80,329,-488,-102,-14,326,492,614
209,263,53,-236,78,158,-351,-68,-97,170,326,444
117,107,-9,-112,63,48,-244,-48,-146,68,204,312
58,19,-39,-39,48,-9,-161,-34,-156,14,122,219
19,-24,-43,2,31,-34,-107,-29,-146,-19,73,146
-9,-39,-29,24,9,-34,-68,-14,-117,-14,48,107
-24,-34,-9,29,-7,-21,-39,-9,-82,4,34,78
-29,-29,0,29,-14,-14,-24,-9,-53,14,24,48
-39,-34,4,36,-21,-14,-9,0,-34,19,14,29
-43,-43,0,43,-21,-21,4,0,-29,19,0,9
-53,-58,-4,56,-24,-31,19,0,-19,14,-14,-9
-58,-68,-9,63,-24,-39,24,0,-19,9,-29,-24
-58,-73,-14,65,-21,-43,19,0,-19,0,-34,-34
-53,-73,-19,63,-17,-46,24,-9,-19,0,-39,-34
-53,-78,-24,65,-14,-51,29,-9,-24,-9,-39,-39
-48,-82,-34,65,-7,-58,39,0,-24,-14,-43,-43
-39,-82,-43,61,2,-63,43,4,-24,-14,-43,-43
-34,-87,-53,61,9,-70,53,9,-29,-19,-53,-53
-34,-92,-58,63,12,-75,58,9,-34,-29,-58,-58
-34,-97,-63,65,14,-80,58,9,-34,-34,-63,-68
-34,-102,-68,68,17,-85,58,14,-29,-29,-63,-63
-43,-107,-63,75,9,-85,58,14,-29,-29,-63,-68
-63,-117,-53,90,-4,-85,63,4,-29,-29,-63,-68
-73,-126,-53,100,-9,-90,58,0,-34,-34,-68,-73
-78,-126,-48,102,-14,-87,58,0,-39,-39,-73,-78
-78,-126,-48,102,-14,-87,53,0,-43,-39,-73,-82
-82,-131,-48,107,-17,-90,58,9,-39,-39,-73,-78
-78,-126,-48,102,-14,-87,53,14,-43,-39,-73,-82
-63,-117,-53,90,-4,-85,43,24,-39,-39,-73,-78
-53,-112,-58,82,2,-85,39,29,-39,-34,-73,-78
-48,-112,-63,80,7,-87,39,29,-39,-39,-73,-82
-48,-117,-68,82,9,-92,48,34,-34,-34,-68,-78
-43,-117,-73,80,14,-95,43,29,-43,-43,-78,-87
-43,-126,-82,85,19,-104,48,29,-43,-43,-78,-82
-48,-131,-82,90,17,-107,58,29,-43,-43,-78,-82
-58,-136,-78,97,9,-107,63,24,-43,-43,-82,-87
-68,-141,-73,104,2,-107,68,19,-43,-43,-82,-87
-78,-151,-73,114,-2,-112,73,9,-43,-48,-87,-87
-87,-156,-68,122,-9,-112,78,9,-43,-43,-87,-92
-87,-156,-68,122,-9,-112,78,4,-43,-48,-87,-92
-87,-156,-68,122,-9,-112,82,4,-43,-48,-87,-92
-87,-156,-68,122,-9,-112,82,4,-43,-48,-92,-92
-87,-156,-68,122,-9,-112,82,14,-43,-43,-87,-92
-82,-151,-68,117,-7,-109,78,14,-43,-48,-87,-92
-78,-146,-68,112,-4,-107,78,24,-39,-39,-82,-87
-73,-141,-68,107,-2,-104,68,24,-39,-43,-82,-87
-68,-136,-68,102,0,-102,63,24,-39,-43,-82,-87
-63,-131,-68,97,2,-100,63,24,-34,-39,-78,-82
-63,-126,-63,95,0,-95,63,19,-39,-39,-82,-87
-58,-126,-68,92,4,-97,63,19,-39,-39,-82,-87
-48,-122,-73,85,12,-97,58,19,-39,-43,-87,-92
-48,-122,-73,85,12,-97,63,19,-39,-48,-87,-92
-48,-122,-73,85,12,-97,63,19,-39,-43,-87,-92
-48,-122,-73,85,12,-97,58,24,-39,-43,-87,-92
-43,-117,-73,80,14,-95,53,24,-43,-48,-87,-97
-53,-117,-63,85,4,-90,58,24,-34,-39,-82,-87
-58,-112,-53,85,-2,-82,58,24,-34,-39,-78,-87
-63,-112,-48,87,-7,-80,63,19,-34,-39,-82,-87
-68,-117,-48,92,-9,-82,73,19,-34,-39,-78,-87
-78,-122,-43,100,-17,-82,82,14,-29,-39,-78,-87
-82,-126,-43,104,-19,-85,87,9,-29,-39,-82,-87
-82,-131,-48,107,-17,-90,87,4,-34,-43,-87,-92
-82,-136,-53,109,-14,-95,87,4,-39,-48,-92,-92
-78,-141,-63,109,-7,-102,82,0,-39,-53,-92,-97
-78,-146,-68,112,-4,-107,78,9,-39,-48,-87,-92
-73,-141,-68,107,-2,-104,68,9,-39,-48,-92,-92
-63,-141,-78,102,7,-109,63,19,-39,-48,-92,-92
-58,-136,-78,97,9,-107,63,34,-29,-43,-82,-87
-48,-126,-78,87,14,-102,53,39,-34,-48,-87,-87
-39,-117,-78,78,19,-97,53,48,-29,-43,-82,-87
-29,-112,-82,70,26,-97,53,48,-24,-43,-82,-87
-24,-112,-87,68,31,-100,53,48,-24,-43,-82,-87
-29,-117,-87,73,29,-102,58,43,-34,-48,-87,-97
-43,-122,-78,82,17,-100,68,39,-29,-43,-87,-97
-58,-131,-73,95,7,-102,78,29,-34,-48,-92,-102
-78,-136,-58,107,-9,-97,87,24,-34,-48,-92,-97
-87,-146,-58,117,-14,-102,97,24,-34,-53,-97,-102
-92,-151,-58,122,-17,-104,97,29,-29,-53,-97,-102
-92,-146,-53,119,-19,-100,97,39,-24,-48,-97,-102
-87,-141,-53,114,-17,-97,92,43,-24,-48,-92,-102
-78,-136,-58,107,-9,-97,87,48,-19,-43,-92,-102
-73,-131,-58,102,-7,-95,78,53,-19,-43,-92,-102
-68,-126,-58,97,-4,-92,78,53,-14,-39,-87,-97
-68,-126,-58,97,-4,-92,82,53,-9,-39,-87,-97
-68,-126,-58,97,-4,-92,87,48,-14,-39,-87,-97
-73,-131,-58,102,-7,-95,92,43,-19,-43,-92,-102
-73,-131,-58,102,-7,-95,92,39,-19,-48,-97,-107
-73,-141,-68,107,-2,-104,102,43,-19,-48,-102,-107
-78,-146,-68,112,-4,-107,107,43,-19,-48,-102,-107
-78,-151,-73,114,-2,-112,107,48,-24,-53,-107,-112
-82,-151,-68,117,-7,-109,102,43,-24,-58,-107,-112
-87,-156,-68,122,-9,-112,107,48,-19,-53,-107,-107
-87,-156,-68,122,-9,-112,112,48,-19,-53,-102,-107
-87,-151,-63,119,-12,-107,112,48,-9,-48,-97,-102
-87,-141,-53,114,-17,-97,112,53,-9,-48,-97,-102
-82,-131,-48,107,-17,-90,112,53,0,-43,-92,-102
-78,-126,-48,102,-14,-87,112,53,4,-39,-92,-97
-73,-117,-43,95,-14,-80,107,53,9,-39,-87,-97
-68,-107,-39,87,-14,-73,107,58,9,-34,-87,-102
-63,-102,-39,82,-12,-70,112,58,14,-29,-82,-97
-68,-97,-29,82,-19,-63,112,58,19,-29,-82,-97
-68,-92,-24,80,-21,-58,107,53,19,-29,-87,-102
-73,-92,-19,82,-26,-56,117,58,29,-24,-82,-97
-78,-87,-9,82,-34,-48,117,53,29,-24,-82,-92
-82,-92,-9,87,-36,-51,122,53,29,-29,-87,-97
-92,-102,-9,97,-41,-56,131,53,34,-24,-82,-92
-102,-112,-9,107,-46,-61,136,48,29,-29,-87,-97
-107,-117,-9,112,-48,-63,141,48,29,-29,-92,-97
-107,-122,-14,114,-46,-68,141,43,29,-34,-97,-97
-107,-117,-9,112,-48,-63,141,39,34,-34,-97,-97
-102,-112,-9,107,-46,-61,141,34,34,-34,-92,-97
-92,-97,-4,95,-43,-51,131,34,39,-29,-92,-97
-78,-82,-4,80,-36,-43,122,43,43,-29,-87,-92
-68,-73,-4,70,-31,-39,117,53,48,-24,-82,-92
-63,-68,-4,65,-29,-36,112,68,48,-24,-82,-92
-53,-68,-14,61,-19,-41,112,82,48,-24,-78,-92
-48,-68,-19,58,-14,-43,107,92,43,-29,-87,-102
-48,-73,-24,61,-12,-48,117,107,43,-34,-87,-102
-48,-78,-29,63,-9,-53,122,112,39,-39,-92,-107
-53,-82,-29,68,-12,-56,136,122,39,-39,-97,-107
-53,-92,-39,73,-7,-65,141,117,34,-43,-102,-112
-53,-97,-43,75,-4,-70,156,117,34,-43,-102,-112
-58,-97,-39,78,-9,-68,156,117,34,-48,-102,-112
-63,-97,-34,80,-14,-65,156,112,34,-48,-102,-112
-68,-97,-29,82,-19,-63,156,117,43,-39,-97,-107
-63,-92,-29,78,-17,-61,146,117,43,-43,-97,-107
-63,-87,-24,75,-19,-56,146,117,48,-39,-92,-97
-63,-82,-19,73,-21,-51,136,117,48,-39,-92,-97
-58,-78,-19,68,-19,-48,136,117,48,-39,-92,-92
-53,-78,-24,65,-14,-51,136,112,43,-43,-92,-97
-53,-78,-24,65,-14,-51,141,107,43,-43,-97,-97
-53,-82,-29,68,-12,-56,151,112,43,-43,-97,-97
-53,-92,-39,73,-7,-65,156,107,34,-53,-102,-102
-63,-102,-39,82,-12,-70,170,107,34,-53,-102,-102
-78,-112,-34,95,-21,-73,175,102,24,-58,-112,-107
-87,-122,-34,104,-26,-78,185,107,29,-58,-107,-107
-92,-126,-34,109,-29,-80,180,102,24,-63,-112,-107
-97,-126,-29,112,-34,-78,185,102,29,-63,-107,-107
-102,-122,-19,112,-41,-70,185,97,29,-58,-107,-102
-97,-117,-19,107,-39,-68,175,97,29,-63,-107,-102
-82,-112,-29,97,-26,-70,175,102,24,-63,-107,-102
-73,-107,-34,90,-19,-70,170,107,24,-63,-102,-97
-63,-102,-39,82,-12,-70,165,112,24,-63,-102,-97
-48,-97,-48,73,0,-73,156,112,14,-73,-112,-102
-43,-97,-53,70,4,-75,151,117,19,-68,-107,-97
-34,-92,-58,63,12,-75,146,112,14,-73,-107,-97
-29,-92,-63,61,17,-78,141,112,19,-68,-102,-92
-29,-87,-58,58,14,-73,131,107,14,-68,-102,-87
-24,-82,-58,53,17,-70,122,112,14,-63,-97,-82
-24,-78,-53,51,14,-65,107,107,14,-58,-92,-78
-19,-73,-53,46,17,-63,97,107,14,-58,-87,-73
-24,-68,-43,46,9,-56,87,97,14,-53,-82,-73
-34,-68,-34,51,0,-51,78,82,4,-53,-82,-68
-43,-73,-29,58,-7,-51,78,73,4,-53,-78,-68
-53,-78,-24,65,-14,-51,78,58,-9,-53,-78,-63
-58,-82,-24,70,-17,-53,82,48,-14,-53,-73,-63
-58,-82,-24,70,-17,-53,82,43,-19,-53,-73,-63
-53,-82,-29,68,-12,-56,87,43,-19,-48,-68,-58
-39,-78,-39,58,0,-58,82,48,-24,-53,-68,-58
-24,-68,-43,46,9,-56,78,58,-19,-48,-63,-53
-9,-63,-53,36,21,-58,63,58,-24,-43,-63,-53
4,-58,-63,26,34,-61,53,63,-24,-43,-58,-48
14,-53,-68,19,41,-61,39,63,-24,-43,-58,-48
14,-53,-68,19,41,-61,29,58,-29,-39,-58,-48
9,-53,-63,21,36,-58,29,53,-29,-34,-48,-43
0,-53,-53,26,26,-53,24,43,-34,-34,-48,-43
-9,-53,-43,31,17,-48,24,43,-29,-24,-39,-34
-9,-53,-43,31,17,-48,24,39,-29,-24,-39,-34
-9,-48,-39,29,14,-43,19,29,-29,-24,-39,-34
0,-48,-48,24,24,-48,19,34,-29,-19,-34,-29
9,-43,-53,17,31,-48,14,29,-29,-19,-34,-29
19,-43,-63,12,41,-53,9,24,-34,-24,-39,-34
24,-43,-68,9,46,-56,9,24,-39,-24,-39,-34
19,-48,-68,14,43,-58,9,24,-39,-24,-34,-29
14,-53,-68,19,41,-61,4,14,-43,-24,-39,-34
4,-63,-68,29,36,-65,14,14,-39,-24,-34,-29
-9,-68,-58,39,24,-63,14,9,-43,-24,-34,-29
-14,-73,-58,43,21,-65,9,0,-48,-29,-39,-34
-19,-78,-58,48,19,-68,14,0,-48,-29,-39,-34
-24,-78,-53,51,14,-65,9,-9,-53,-29,-39,-34
-29,-78,-48,53,9,-63,14,-9,-48,-24,-34,-34
-24,-78,-53,51,14,-65,4,-14,-53,-29,-39,-34
-19,-78,-58,48,19,-68,0,0,-48,-24,-34,-29
-14,-73,-58,43,21,-65,-9,0,-48,-24,-34,-29
-9,-68,-58,39,24,-63,-9,9,-43,-19,-29,-24
4,-58,-63,26,34,-61,-19,9,-43,-19,-29,-24
14,-48,-63,17,39,-56,-24,14,-39,-14,-24,-19
19,-39,-58,9,39,-48,-29,14,-39,-9,-19,-19
19,-34,-53,7,36,-43,-29,9,-34,-9,-19,-14
9,-39,-48,14,29,-43,-29,9,-34,0,-14,-14
4,-43,-48,19,26,-46,-34,0,-39,-9,-19,-19
-9,-48,-39,29,14,-43,-34,0,-39,-9,-24,-19
-14,-58,-43,36,14,-51,-29,-9,-43,-14,-24,-24
-24,-68,-43,46,9,-56,-19,-14,-43,-14,-24,-24
-34,-78,-43,56,4,-61,-9,-19,-48,-19,-29,-29
-39,-82,-43,61,2,-63,4,-19,-48,-19,-29,-29
-39,-87,-48,63,4,-68,14,-24,-53,-24,-34,-34
-39,-92,-53,65,7,-73,19,-24,-58,-24,-39,-39
-39,-92,-53,65,7,-73,24,-34,-63,-29,-43,-39
-43,-97,-53,70,4,-75,29,-29,-58,-29,-39,-34
-39,-97,-58,68,9,-78,29,-29,-58,-29,-39,-34
-39,-92,-53,65,7,-73,24,-39,-63,-34,-43,-39
-43,-92,-48,68,2,-70,24,-34,-53,-29,-39,-34
-48,-92,-43,70,-2,-68,24,-34,-53,-24,-34,-39
-48,-87,-39,68,-4,-63,19,-29,-48,-24,-34,-39
-48,-87,-39,68,-4,-63,19,-19,-48,-24,-34,-39
-43,-87,-43,65,0,-65,19,-14,-48,-24,-39,-39
-34,-82,-48,58,7,-65,14,0,-53,-24,-39,-39
-24,-82,-58,53,17,-70,14,9,-48,-24,-34,-39
-19,-82,-63,51,21,-73,4,9,-53,-24,-39,-39
-9,-82,-73,46,31,-78,0,14,-48,-24,-39,-39
-9,-78,-68,43,29,-73,-14,9,-53,-24,-39,-39
0,-73,-73,36,36,-73,-19,9,-48,-19,-34,-29
-9,-68,-58,39,24,-63,-19,4,-43,-19,-29,-29
-9,-63,-53,36,21,-58,-24,-9,-48,-19,-34,-29
-9,-58,-48,34,19,-53,-19,-14,-43,-14,-29,-24
-9,-58,-48,34,19,-53,-14,-14,-39,-9,-29,-24
-14,-58,-43,36,14,-51,-9,-19,-43,-14,-29,-29
-19,-63,-43,41,12,-53,4,-19,-39,-9,-29,-29
-24,-63,-39,43,7,-51,4,-19,-43,-14,-29,-39
-24,-68,-43,46,9,-56,9,-14,-39,-14,-29,-39
-29,-68,-39,48,4,-53,9,-14,-43,-14,-34,-39
-29,-68,-39,48,4,-53,9,-9,-43,-14,-34,-39
-29,-63,-34,46,2,-48,9,-9,-39,-14,-29,-34
-24,-63,-39,43,7,-51,9,-9,-43,-14,-34,-39
-24,-58,-34,41,4,-46,9,0,-39,-14,-29,-34
-19,-58,-39,39,9,-48,14,9,-34,-9,-29,-29
-14,-53,-39,34,12,-46,9,14,-29,-9,-29,-29
-9,-53,-43,31,17,-48,9,19,-24,0,-24,-24
-9,-53,-43,31,17,-48,4,24,-19,0,-24,-24
0,-53,-53,26,26,-53,-9,19,-24,0,-24,-24
0,-53,-53,26,26,-53,-14,19,-24,0,-24,-24
0,-53,-53,26,26,-53,-19,14,-24,0,-24,-24
-9,-53,-43,31,17,-48,-19,14,-24,0,-24,-24
-9,-58,-48,34,19,-53,-19,9,-24,-9,-29,-29
-14,-58,-43,36,14,-51,-14,0,-29,-9,-29,-29
-19,-63,-43,41,12,-53,4,-9,-24,-9,-29,-29
-29,-68,-39,48,4,-53,14,-9,-24,-9,-29,-29
-34,-73,-39,53,2,-56,24,-14,-29,-14,-34,-29
-39,-78,-39,58,0,-58,29,-19,-34,-14,-39,-34
-43,-82,-39,63,-2,-61,39,-19,-34,-14,-34,-34
-48,-82,-34,65,-7,-58,43,-24,-34,-14,-39,-39
-48,-82,-34,65,-7,-58,43,-24,-39,-19,-39,-39
-48,-82,-34,65,-7,-58,39,-24,-39,-19,-39,-43
-53,-82,-29,68,-12,-56,39,-24,-34,-14,-34,-39
-53,-82,-29,68,-12,-56,34,-19,-39,-14,-39,-43
-53,-82,-29,68,-12,-56,29,-14,-39,-19,-39,-43
-48,-82,-34,65,-7,-58,24,-14,-39,-19,-39,-43
-43,-78,-34,61,-4,-56,24,0,-34,-19,-39,-43
-34,-78,-43,56,4,-61,19,4,-34,-19,-39,-43
-29,-73,-43,51,7,-58,14,4,-34,-19,-39,-43
-29,-73,-43,51,7,-58,19,9,-29,-19,-39,-39
-29,-73,-43,51,7,-58,19,4,-29,-19,-39,-39
-39,-73,-34,56,-2,-53,24,0,-29,-14,-34,-39
-48,-78,-29,63,-9,-53,29,-9,-24,-14,-34,-34
-53,-82,-29,68,-12,-56,34,-14,-29,-14,-34,-39
-58,-87,-29,73,-14,-58,29,-19,-34,-19,-39,-43
-58,-87,-29,73,-14,-58,29,-19,-34,-19,-39,-43
-53,-82,-29,68,-12,-56,34,-14,-29,-14,-34,-39
-43,-78,-34,61,-4,-56,29,-9,-29,-14,-34,-39
-34,-73,-39,53,2,-56,24,0,-29,-14,-34,-43
-19,-63,-43,41,12,-53,14,4,-34,-19,-39,-43
-9,-58,-48,34,19,-53,14,14,-34,-14,-34,-43
0,-58,-58,29,29,-58,14,14,-34,-14,-34,-39
0,-63,-63,31,31,-63,4,14,-34,-19,-39,-43
-9,-73,-63,41,26,-68,4,9,-39,-19,-39,-43
-19,-78,-58,48,19,-68,9,4,-43,-24,-43,-43
-24,-87,-63,56,19,-75,14,0,-43,-24,-43,-43
-39,-92,-53,65,7,-73,14,-9,-43,-29,-43,-43
-48,-92,-43,70,-2,-68,19,-14,-43,-24,-39,-39
-48,-87,-39,68,-4,-63,24,-14,-43,-19,-34,-34
-43,-82,-39,63,-2,-61,24,-14,-43,-19,-34,-34
-43,-78,-34,61,-4,-56,24,0,-34,-14,-29,-29
-34,-68,-34,51,0,-51,14,-9,-39,-19,-34,-34
-24,-63,-39,43,7,-51,9,-9,-39,-19,-34,-39
-9,-63,-53,36,21,-58,0,0,-43,-19,-34,-39
0,-58,-58,29,29,-58,0,9,-39,-19,-34,-39
0,-58,-58,29,29,-58,0,9,-39,-19,-34,-39
-9,-63,-53,36,21,-58,0,4,-39,-19,-34,-34
-14,-63,-48,39,17,-56,4,4,-34,-19,-34,-29
-24,-68,-43,46,9,-56,9,0,-34,-14,-29,-29
-34,-73,-39,53,2,-56,14,-14,-39,-19,-29,-29
-48,-78,-29,63,-9,-53,14,-24,-39,-19,-34,-34
-53,-87,-34,70,-9,-61,19,-24,-43,-19,-34,-34
-53,-92,-39,73,-7,-65,19,-29,-48,-29,-39,-39
-58,-102,-43,80,-7,-73,24,-29,-53,-29,-39,-43
-58,-107,-48,82,-4,-78,34,-24,-53,-29,-39,-43
-58,-107,-48,82,-4,-78,39,-19,-53,-29,-39,-43
-53,-107,-53,80,0,-80,39,-19,-58,-34,-43,-43
-48,-107,-58,78,4,-82,39,-14,-58,-34,-43,-43
-43,-102,-58,73,7,-80,39,-14,-58,-39,-48,-43
-34,-92,-58,63,12,-75,34,-9,-53,-34,-43,-43
-19,-82,-63,51,21,-73,24,0,-53,-34,-43,-43
-9,-78,-68,43,29,-73,14,4,-53,-34,-43,-43
-9,-73,-63,41,26,-68,9,4,-53,-29,-43,-39
-14,-68,-53,41,19,-61,4,4,-48,-29,-39,-39
-19,-68,-48,43,14,-58,-9,4,-53,-29,-39,-43
-29,-78,-48,53,9,-63,0,9,-48,-29,-39,-39
-39,-87,-48,63,4,-68,0,0,-53,-34,-43,-43
-48,-97,-48,73,0,-73,0,-9,-58,-39,-43,-43
-53,-102,-48,78,-2,-75,4,-9,-58,-39,-48,-43
-48,-107,-58,78,4,-82,4,-14,-63,-43,-48,-48
-48,-102,-53,75,2,-78,9,-19,-58,-39,-48,-48
-43,-97,-53,70,4,-75,9,-24,-58,-39,-48,-48
-34,-92,-58,63,12,-75,9,-29,-58,-39,-48,-48
-34,-87,-53,61,9,-70,14,-29,-58,-34,-43,-43
-29,-87,-58,58,14,-73,9,-29,-63,-39,-48,-48
-29,-87,-58,58,14,-73,9,-24,-58,-39,-48,-48
-34,-92,-58,63,12,-75,14,-24,-58,-39,-48,-43
-43,-97,-53,70,4,-75,19,-19,-53,-34,-43,-43
-48,-102,-53,75,2,-78,19,-14,-53,-29,-43,-39
-48,-97,-48,73,0,-73,9,-14,-53,-29,-43,-39
-43,-92,-48,68,2,-70,9,-9,-48,-24,-39,-34
-39,-87,-48,63,4,-68,4,-9,-48,-24,-39,-34
-34,-82,-48,58,7,-65,0,0,-43,-24,-34,-34
-19,-73,-53,46,17,-63,0,4,-43,-24,-34,-34
-14,-68,-53,41,19,-61,0,4,-43,-24,-34,-34
-14,-68,-53,41,19,-61,9,4,-43,-24,-34,-34
-19,-68,-48,43,14,-58,14,0,-48,-29,-39,-39
-24,-73,-48,48,12,-61,24,0,-43,-24,-34,-34
-29,-73,-43,51,7,-58,29,-9,-48,-29,-34,-34
-29,-73,-43,51,7,-58,34,-19,-48,-29,-34,-39
-34,-73,-39,53,2,-56,43,-19,-39,-19,-29,-29
-34,-68,-34,51,0,-51,43,-24,-39,-19,-29,-29
-34,-63,-29,48,-2,-46,43,-29,-34,-14,-24,-24
-39,-58,-19,48,-9,-39,43,-29,-29,-9,-24,-24
-39,-48,-9,43,-14,-29,39,-34,-29,-9,-19,-19
-39,-39,0,39,-19,-19,39,-29,-19,4,-14,-14
-39,-39,0,39,-19,-19,39,-29,-19,9,-9,-14
-43,-39,4,41,-24,-17,34,-29,-19,4,-9,-14
-43,-43,0,43,-21,-21,34,-29,-24,4,-14,-14
-34,-43,-9,39,-12,-26,34,-14,-19,9,-9,-14
-24,-39,-14,31,-4,-26,29,-9,-24,4,-14,-14
-19,-39,-19,29,0,-29,24,0,-19,4,-14,-14
-14,-29,-14,21,0,-21,24,4,-19,4,-9,-9
4,-19,-24,7,14,-21,19,14,-9,14,0,4
19,0,-19,-9,19,-9,9,19,0,14,4,9
24,9,-14,-17,19,-2,4,19,4,19,9,14
29,19,-9,-24,19,4,0,14,0,19,14,19
34,24,-9,-29,21,7,-14,14,0,19,14,19
39,24,-14,-31,26,4,-14,9,-9,19,19,24
34,19,-14,-26,24,2,-19,0,-14,14,14,19
29,14,-14,-21,21,0,-24,-14,-19,9,14,19
19,0,-19,-9,19,-9,-19,-14,-24,9,9,19
14,-14,-29,0,21,-21,-19,-24,-29,4,9,14
4,-24,-29,9,17,-26,-19,-29,-39,0,4,14
0,-29,-29,14,14,-29,-19,-34,-43,-9,0,9
-9,-34,-24,21,7,-29,-19,-34,-48,-14,-9,9
0,-34,-34,17,17,-34,-19,-34,-48,-14,0,9
4,-29,-34,12,19,-31,-29,-34,-48,-14,0,9
4,-24,-29,9,17,-26,-29,-34,-43,0,9,14
14,-14,-29,0,21,-21,-34,-29,-43,0,9,19
24,0,-24,-12,24,-12,-43,-34,-43,0,4,14
24,4,-19,-14,21,-7,-43,-24,-34,9,14,24
24,9,-14,-17,19,-2,-43,-19,-29,14,19,29
24,14,-9,-19,17,2,-48,-24,-29,14,14,24
24,14,-9,-19,17,2,-43,-19,-24,14,14,29
19,9,-9,-14,14,0,-39,-19,-24,14,19,29
9,4,-4,-7,7,0,-34,-19,-24,14,14,24
4,-9,-14,2,9,-12,-29,-24,-29,9,9,19
0,-19,-19,9,9,-19,-24,-19,-29,9,9,19
-9,-24,-14,17,2,-19,-14,-24,-29,9,9,14
-19,-29,-9,24,-4,-19,0,-24,-34,4,4,9
-24,-39,-14,31,-4,-26,4,-29,-34,0,0,4
-24,-48,-24,36,0,-36,0,-34,-43,-14,-14,-9
-24,-58,-34,41,4,-46,4,-34,-48,-19,-24,-19
-24,-73,-48,48,12,-61,9,-29,-53,-24,-29,-24
-19,-82,-63,51,21,-73,4,-29,-63,-34,-39,-34
-9,-82,-73,46,31,-78,-9,-24,-68,-39,-43,-39
0,-82,-82,41,41,-82,-19,-19,-73,-43,-48,-43
0,-82,-82,41,41,-82,-24,-19,-73,-43,-53,-48
-9,-87,-78,48,34,-82,-24,-24,-73,-43,-48,-48
-24,-97,-73,61,24,-85,-19,-24,-68,-39,-43,-43
-39,-102,-63,70,12,-82,-14,-39,-73,-43,-48,-48
-58,-117,-58,87,0,-87,0,-43,-78,-48,-53,-48
-73,-126,-53,100,-9,-90,9,-48,-78,-53,-53,-48
-78,-131,-53,104,-12,-92,19,-43,-82,-58,-58,-48
-78,-136,-58,107,-9,-97,19,-39,-82,-58,-58,-53
-68,-136,-68,102,0,-102,14,-29,-87,-63,-63,-58
-58,-131,-73,95,7,-102,14,-19,-87,-63,-68,-58
-48,-126,-78,87,14,-102,9,-9,-92,-63,-68,-58
-43,-126,-82,85,19,-104,9,0,-87,-58,-63,-58
-39,-122,-82,80,21,-102,4,-9,-92,-58,-63,-58
-39,-122,-82,80,21,-102,4,-9,-87,-58,-63,-58
-34,-122,-87,78,26,-104,4,-9,-87,-58,-63,-58
-39,-122,-82,80,21,-102,0,-14,-92,-58,-63,-58
-34,-122,-87,78,26,-104,0,-14,-92,-63,-63,-58
-29,-122,-92,75,31,-107,0,-14,-87,-63,-63,-58
-29,-126,-97,78,34,-112,0,-19,-92,-63,-68,-63
-29,-126,-97,78,34,-112,-9,-24,-92,-63,-68,-63
-34,-126,-92,80,29,-109,0,-29,-92,-63,-68,-63
-34,-126,-92,80,29,-109,0,-29,-92,-63,-68,-63
-39,-126,-87,82,24,-107,4,-29,-87,-58,-58,-53
-39,-122,-82,80,21,-102,-9,-39,-87,-63,-63,-58
-39,-122,-82,80,21,-102,-9,-34,-87,-58,-58,-53
-34,-117,-82,75,24,-100,0,-24,-82,-58,-58,-48
-34,-117,-82,75,24,-100,0,-14,-78,-53,-53,-48
-29,-112,-82,70,26,-97,-9,-19,-82,-58,-58,-48
-29,-112,-82,70,26,-97,0,-14,-82,-58,-58,-48
-34,-112,-78,73,21,-95,4,-14,-82,-58,-58,-53
-34,-112,-78,73,21,-95,4,-14,-82,-58,-58,-53
-34,-117,-82,75,24,-100,14,-14,-82,-53,-58,-53
-43,-122,-78,82,17,-100,19,-19,-78,-58,-58,-53
-53,-136,-82,95,14,-109,24,-24,-87,-63,-68,-68
-63,-156,-92,109,14,-124,34,-24,-92,-73,-78,-78
-78,-175,-97,126,9,-136,48,-14,-97,-78,-87,-87
-87,-200,-112,143,12,-156,63,-14,-102,-92,-107,-102
-107,-229,-122,168,7,-175,82,-9,-107,-107,-122,-126
-122,-253,-131,187,4,-192,102,0,-107,-117,-141,-146
-131,-273,-141,202,4,-207,117,4,-102,-126,-156,-165
-151,-278,-126,214,-12,-202,131,0,-92,-131,-170,-180
-170,-278,-107,224,-31,-192,156,0,-68,-117,-165,-185
-190,-268,-78,229,-56,-173,175,-14,-39,-102,-161,-185
-195,-239,-43,217,-75,-141,185,-19,0,-78,-146,-175
-195,-195,0,195,-97,-97,180,-24,34,-53,-131,-161
-180,-151,29,165,-104,-61,170,-29,63,-24,-107,-141
-151,-102,48,126,-100,-26,156,-24,87,9,-78,-117
-102,-48,53,75,-78,2,117,-14,102,39,-48,-87
-43,14,58,14,-51,36,68,4,112,68,-19,-53
34,82,48,-58,-7,65,0,24,107,92,24,-14
117,165,48,-141,34,107,-87,43,107,126,73,43
224,258,34,-241,95,146,-180,68,102,165,131,107
336,375,39,-356,148,207,-297,87,102,219,209,190
463,517,53,-490,204,285,-429,97,107,283,297,292
585,678,92,-631,246,385,-566,97,122,361,400,409
717,858,141,-788,287,500,-712,92,146,453,522,536
839,1058,219,-949,309,639,-858,73,185,566,663,688
946,1268,322,-1107,312,795,-990,39,244,688,805,839
1039,1478,439,-1259,300,958,-1122,0,292,814,956,990
1122,1668,546,-1395,287,1107,-1249,-53,341,922,1093,1137
1171,1839,668,-1505,251,1254,-1337,-102,395,1039,1229,1273
1190,1971,780,-1581,204,1376,-1395,-161,448,1137,1337,1385
1180,2069,888,-1625,146,1478,-1429,-224,497,1224,1434,1478
1146,2108,961,-1627,92,1534,-1429,-273,522,1278,1488,1532
1083,2083,1000,-1583,41,1542,-1381,-307,536,1298,1503,1546
976,1981,1005,-1478,-14,1493,-1298,-326,527,1268,1473,1517
858,1800,941,-1329,-41,1371,-1180,-331,478,1185,1376,1434
732,1556,824,-1144,-46,1190,-1044,-302,395,1044,1239,1302
610,1268,658,-939,-24,963,-883,-263,287,858,1054,1132
483,961,478,-722,2,719,-717,-200,170,658,849,936
361,663,302,-512,29,483,-551,-146,58,453,639,746
263,414,151,-339,56,283,-414,-97,-48,273,453,561
185,229,43,-207,70,136,-292,-53,-107,136,307,419
122,112,-9,-117,65,51,-200,-24,-136,58,204,307
78,43,-34,-61,56,4,-141,-14,-141,9,126,219
43,9,-34,-26,39,-12,-97,-9,-131,-14,82,156
19,4,-14,-12,17,-4,-68,0,-102,-9,63,117
4,0,-4,-2,4,-2,-39,0,-68,9,53,92
-24,-14,9,19,-17,-2,-19,0,-43,14,39,63
-39,-29,9,34,-24,-9,0,-9,-39,9,19,34
-53,-53,0,53,-26,-26,19,0,-34,4,4,14
-68,-73,-4,70,-31,-39,29,-9,-34,-9,-19,-9
-73,-87,-14,80,-29,-51,34,-14,-39,-19,-34,-29
-78,-97,-19,87,-29,-58,43,-14,-39,-29,-39,-39
-73,-107,-34,90,-19,-70,53,-14,-39,-29,-43,-43
-73,-112,-39,92,-17,-75,58,-19,-43,-39,-48,-48
-78,-117,-39,97,-19,-78,68,-14,-43,-39,-53,-53
-78,-126,-48,102,-14,-87,68,-19,-48,-48,-63,-58
-78,-131,-53,104,-12,-92,68,-9,-48,-48,-63,-63
-73,-136,-63,104,-4,-100,68,4,-53,-48,-68,-68
-73,-136,-63,104,-4,-100,63,4,-53,-53,-73,-73
-73,-136,-63,104,-4,-100,63,14,-48,-48,-73,-73
-68,-136,-68,102,0,-102,53,14,-53,-53,-78,-78
-63,-136,-73,100,4,-104,53,19,-53,-48,-73,-78
-63,-136,-73,100,4,-104,53,19,-53,-53,-73,-73
-63,-136,-73,100,4,-104,53,19,-53,-58,-78,-78
-63,-141,-78,102,7,-109,53,19,-53,-58,-78,-78
-58,-141,-82,100,12,-112,53,24,-58,-63,-82,-78
-58,-141,-82,100,12,-112,53,24,-53,-63,-78,-78
-58,-141,-82,100,12,-112,53,24,-53,-58,-78,-78
-53,-136,-82,95,14,-109,48,19,-53,-58,-78,-78
-53,-136,-82,95,14,-109,43,24,-48,-58,-78,-78
-48,-131,-82,90,17,-107,48,29,-48,-53,-73,-73
-48,-131,-82,90,17,-107,48,29,-43,-53,-73,-73
-43,-131,-87,87,21,-109,43,29,-48,-58,-78,-78
-43,-131,-87,87,21,-109,48,29,-48,-63,-82,-82
-43,-136,-92,90,24,-114,58,34,-48,-63,-82,-87
-48,-136,-87,92,19,-112,63,29,-48,-63,-87,-92
-53,-136,-82,95,14,-109,63,24,-53,-63,-87,-92
-63,-141,-78,102,7,-109,68,19,-48,-63,-87,-92
-63,-141,-78,102,7,-109,68,14,-53,-63,-87,-92
-63,-146,-82,104,9,-114,78,14,-48,-58,-82,-92
-68,-151,-82,109,7,-117,78,9,-53,-63,-87,-92
-68,-151,-82,109,7,-117,78,9,-53,-63,-87,-92
-68,-146,-78,107,4,-112,78,4,-53,-63,-87,-92
-68,-146,-78,107,4,-112,78,9,-48,-63,-87,-87
-68,-141,-73,104,2,-107,78,9,-43,-63,-87,-87
-73,-141,-68,107,-2,-104,78,14,-43,-58,-82,-87
-68,-136,-68,102,0,-102,73,14,-43,-63,-87,-87
-68,-136,-68,102,0,-102,68,19,-43,-63,-87,-82
-63,-136,-73,100,4,-104,68,19,-43,-63,-87,-82
-63,-141,-78,102,7,-109,63,19,-48,-68,-92,-87
-63,-146,-82,104,9,-114,68,19,-48,-63,-87,-87
-68,-146,-78,107,4,-112,63,14,-48,-63,-92,-92
-73,-146,-73,109,0,-109,63,4,-48,-63,-92,-92
-82,-151,-68,117,-7,-109,68,0,-43,-58,-87,-87
-87,-151,-63,119,-12,-107,73,0,-39,-53,-82,-87
-92,-146,-53,119,-19,-100,73,-9,-39,-53,-82,-82
-92,-146,-53,119,-19,-100,73,0,-39,-53,-82,-82
-87,-141,-53,114,-17,-97,73,0,-43,-58,-87,-87
-78,-141,-63,109,-7,-102,68,4,-43,-63,-87,-87
-73,-136,-63,104,-4,-100,73,14,-39,-58,-82,-87
-68,-131,-63,100,-2,-97,73,19,-39,-63,-87,-92
-73,-131,-58,102,-7,-95,78,29,-39,-58,-82,-87
-73,-131,-58,102,-7,-95,78,29,-39,-58,-82,-87
-73,-131,-58,102,-7,-95,78,34,-39,-58,-82,-87
-73,-136,-63,104,-4,-100,82,43,-34,-53,-78,-87
-68,-136,-68,102,0,-102,78,43,-39,-58,-87,-92
-68,-141,-73,104,2,-107,78,48,-34,-58,-87,-92
-63,-141,-78,102,7,-109,68,43,-39,-63,-92,-97
-58,-136,-78,97,9,-107,68,43,-39,-63,-92,-102
-63,-136,-73,100,4,-104,68,34,-34,-63,-92,-102
-63,-136,-73,100,4,-104,68,34,-34,-63,-92,-102
-63,-136,-73,100,4,-104,68,29,-34,-63,-92,-102
-63,-136,-73,100,4,-104,68,29,-34,-63,-92,-102
-63,-136,-73,100,4,-104,73,29,-34,-63,-92,-97
-63,-131,-68,97,2,-100,73,34,-29,-58,-92,-97
-68,-131,-63,100,-2,-97,78,34,-29,-58,-92,-97
-73,-136,-63,104,-4,-100,87,39,-24,-53,-87,-97
-73,-136,-63,104,-4,-100,92,39,-24,-53,-92,-97
-78,-136,-58,107,-9,-97,102,34,-19,-53,-92,-97
-82,-141,-58,112,-12,-100,112,34,-19,-53,-87,-97
-82,-146,-63,114,-9,-104,112,29,-19,-58,-92,-102
-87,-151,-63,119,-12,-107,117,29,-19,-53,-92,-97
-87,-151,-63,119,-12,-107,117,24,-19,-58,-92,-97
-92,-156,-63,124,-14,-109,112,24,-19,-63,-97,-102
-92,-156,-63,124,-14,-109,107,24,-19,-63,-102,-102
-92,-151,-58,122,-17,-104,107,29,-14,-58,-97,-102
-92,-146,-53,119,-19,-100,107,29,-9,-53,-92,-97
-97,-146,-48,122,-24,-97,107,29,-9,-53,-92,-97
-97,-141,-43,119,-26,-92,107,34,0,-48,-87,-97
-92,-131,-39,112,-26,-85,107,39,0,-48,-87,-97
-87,-131,-43,109,-21,-87,107,43,0,-53,-87,-97
-87,-131,-43,109,-21,-87,107,48,0,-53,-92,-97
-78,-131,-53,104,-12,-92,112,58,4,-53,-92,-97
-63,-126,-63,95,0,-95,102,58,0,-58,-97,-102
-58,-122,-63,90,2,-92,107,68,9,-53,-92,-102
-53,-117,-63,85,4,-90,107,63,9,-53,-97,-102
-53,-112,-58,82,2,-85,107,63,14,-48,-92,-102
-53,-107,-53,80,0,-80,107,58,9,-53,-92,-102
-53,-107,-53,80,0,-80,112,58,14,-48,-92,-102
-63,-107,-43,85,-9,-75,117,58,19,-48,-87,-97
-73,-107,-34,90,-19,-70,126,58,24,-43,-87,-97
-78,-112,-34,95,-21,-73,126,53,24,-48,-92,-102
-82,-112,-29,97,-26,-70,131,53,29,-43,-87,-97
-87,-112,-24,100,-31,-68,131,53,34,-43,-92,-97
-97,-112,-14,104,-41,-63,136,48,39,-39,-87,-92
-102,-112,-9,107,-46,-61,136,43,39,-39,-82,-92
-107,-112,-4,109,-51,-58,141,43,43,-39,-82,-92
-112,-107,4,109,-58,-51,141,48,43,-34,-82,-92
-112,-102,9,107,-61,-46,146,58,48,-34,-78,-87
-107,-97,9,102,-58,-43,141,63,53,-29,-78,-87
-92,-87,4,90,-48,-41,136,78,53,-29,-78,-92
-78,-82,-4,80,-36,-43,126,82,48,-34,-82,-97
-73,-78,-4,75,-34,-41,126,92,58,-29,-78,-92
-68,-78,-9,73,-29,-43,126,92,53,-34,-87,-97
-68,-82,-14,75,-26,-48,136,97,53,-34,-87,-97
-78,-92,-14,85,-31,-53,146,97,53,-39,-92,-102
-87,-97,-9,92,-39,-53,156,92,53,-39,-92,-102
-97,-102,-4,100,-46,-53,170,87,53,-39,-92,-97
-102,-107,-4,104,-48,-56,185,87,58,-39,-87,-97
-107,-107,0,107,-53,-53,185,82,53,-39,-92,-102
-112,-112,0,112,-56,-56,195,82,58,-39,-87,-97
-112,-112,0,112,-56,-56,195,82,58,-39,-87,-97
-112,-112,0,112,-56,-56,195,78,63,-34,-87,-92
-117,-112,4,114,-61,-53,190,78,58,-39,-87,-97
-117,-112,4,114,-61,-53,190,78,58,-39,-87,-97
-107,-107,0,107,-53,-53,185,82,63,-39,-92,-97
-102,-97,4,100,-53,-46,180,87,68,-39,-87,-92
-92,-87,4,90,-48,-41,175,87,68,-39,-87,-92
-82,-87,-4,85,-39,-46,175,92,68,-39,-87,-92
-78,-82,-4,80,-36,-43,170,97,63,-39,-87,-87
-73,-78,-4,75,-34,-41,170,102,68,-39,-82,-82
-73,-73,0,73,-36,-36,170,97,63,-43,-87,-87
-73,-78,-4,75,-34,-41,175,97,63,-43,-87,-82
-78,-82,-4,80,-36,-43,180,92,58,-48,-92,-92
-82,-87,-4,85,-39,-46,185,92,58,-48,-92,-92
-87,-92,-4,90,-41,-48,185,92,58,-53,-97,-92
-92,-102,-9,97,-41,-56,190,87,58,-53,-97,-92
-97,-107,-9,102,-43,-58,190,87,53,-58,-97,-97
-87,-102,-14,95,-36,-58,185,92,48,-63,-102,-97
-78,-97,-19,87,-29,-58,180,102,48,-63,-97,-97
-63,-92,-29,78,-17,-61,175,107,48,-63,-97,-92
-53,-87,-34,70,-9,-61,175,112,48,-63,-92,-87
-48,-82,-34,65,-7,-58,165,107,48,-63,-97,-92
-43,-82,-39,63,-2,-61,165,107,43,-63,-97,-87
-48,-82,-34,65,-7,-58,161,97,43,-63,-97,-87
-58,-82,-24,70,-17,-53,156,87,39,-58,-92,-87
-68,-87,-19,78,-24,-53,151,78,39,-58,-87,-82
-73,-82,-9,78,-31,-46,146,73,34,-58,-87,-78
-63,-82,-19,73,-21,-51,136,73,29,-58,-82,-78
-53,-73,-19,63,-17,-46,126,78,24,-58,-82,-73
-43,-68,-24,56,-9,-46,117,82,24,-53,-78,-68
-34,-63,-29,48,-2,-46,107,87,19,-53,-73,-63
-24,-58,-34,41,4,-46,102,87,14,-53,-73,-63
-19,-58,-39,39,9,-48,97,92,14,-53,-68,-58
-14,-58,-43,36,14,-51,87,82,4,-53,-73,-58
-9,-63,-53,36,21,-58,82,78,-9,-58,-73,-58
0,-68,-68,34,34,-68,78,73,-14,-63,-73,-63
0,-73,-73,36,36,-73,78,73,-14,-63,-73,-58
0,-78,-78,39,39,-78,73,63,-19,-63,-73,-58
-9,-82,-73,46,31,-78,68,53,-24,-58,-68,-53
-14,-87,-73,51,29,-80,63,48,-29,-63,-73,-53
-19,-87,-68,53,24,-78,58,43,-24,-53,-63,-48
-29,-87,-58,58,14,-73,48,34,-29,-53,-63,-48
-34,-97,-63,65,14,-80,43,29,-34,-53,-63,-48
-39,-102,-63,70,12,-82,39,29,-34,-53,-58,-43
-39,-102,-63,70,12,-82,34,24,-39,-53,-58,-43
-39,-102,-63,70,12,-82,34,19,-43,-53,-53,-43
-39,-102,-63,70,12,-82,34,14,-43,-53,-53,-48
-39,-102,-63,70,12,-82,34,9,-48,-53,-53,-43
-34,-102,-68,68,17,-85,39,9,-43,-48,-48,-39
-24,-97,-73,61,24,-85,34,9,-48,-48,-48,-39
-19,-92,-73,56,26,-82,29,9,-48,-48,-48,-39
-14,-87,-73,51,29,-80,24,9,-53,-48,-48,-39
-9,-87,-78,48,34,-82,19,9,-48,-43,-43,-34
-9,-82,-73,46,31,-78,14,14,-48,-39,-43,-34
-9,-82,-73,46,31,-78,14,19,-48,-43,-43,-34
-14,-82,-68,48,26,-75,9,14,-48,-43,-43,-34
-14,-87,-73,51,29,-80,9,9,-48,-43,-48,-39
-14,-92,-78,53,31,-85,14,9,-48,-43,-43,-39
-9,-97,-87,53,39,-92,14,9,-53,-43,-48,-39
0,-97,-97,48,48,-97,9,4,-58,-48,-53,-48
4,-97,-102,46,53,-100,9,4,-58,-43,-53,-43
4,-92,-97,43,51,-95,9,9,-58,-43,-48,-43
4,-87,-92,41,48,-90,0,4,-58,-43,-53,-43
0,-87,-87,43,43,-87,-9,14,-58,-39,-48,-43
0,-82,-82,41,41,-82,-19,9,-63,-43,-53,-48
0,-82,-82,41,41,-82,-24,9,-58,-43,-48,-43
-9,-78,-68,43,29,-73,-24,9,-58,-39,-48,-43
-14,-78,-63,46,24,-70,-19,4,-53,-39,-43,-39
-19,-82,-63,51,21,-73,-14,-9,-58,-43,-43,-39
-24,-82,-58,53,17,-70,0,-14,-53,-39,-39,-34
-29,-87,-58,58,14,-73,4,-19,-58,-39,-43,-39
-39,-92,-53,65,7,-73,9,-24,-58,-39,-43,-39
-48,-102,-53,75,2,-78,19,-29,-53,-34,-39,-34
-48,-102,-53,75,2,-78,19,-34,-53,-39,-43,-39
-43,-102,-58,73,7,-80,9,-39,-58,-39,-48,-43
-34,-97,-63,65,14,-80,4,-39,-58,-43,-48,-43
-29,-92,-63,61,17,-78,9,-34,-58,-39,-48,-39
-19,-87,-68,53,24,-78,9,-24,-53,-39,-43,-39
-14,-82,-68,48,26,-75,4,-19,-53,-39,-43,-39
-14,-82,-68,48,26,-75,4,0,-53,-39,-43,-39
-9,-82,-73,46,31,-78,4,9,-53,-39,-43,-39
-9,-87,-78,48,34,-82,0,14,-53,-39,-43,-39
-9,-92,-82,51,36,-87,-9,14,-53,-39,-48,-43
-14,-97,-82,56,34,-90,-9,14,-53,-39,-48,-43
-14,-102,-87,58,36,-95,-9,9,-63,-43,-53,-48
-19,-102,-82,61,31,-92,0,14,-58,-39,-43,-39
-19,-97,-78,58,29,-87,0,4,-63,-39,-48,-43
-19,-92,-73,56,26,-82,0,4,-58,-39,-43,-39
-19,-87,-68,53,24,-78,4,4,-53,-34,-39,-34
-14,-78,-63,46,24,-70,4,4,-53,-34,-34,-34
-9,-73,-63,41,26,-68,0,4,-48,-34,-39,-34
-9,-73,-63,41,26,-68,4,9,-48,-34,-39,-39
-9,-78,-68,43,29,-73,4,9,-48,-34,-39,-39
-9,-82,-73,46,31,-78,9,9,-43,-34,-39,-39
-9,-87,-78,48,34,-82,4,9,-48,-39,-48,-43
-9,-92,-82,51,36,-87,0,4,-58,-43,-53,-43
-9,-97,-87,53,39,-92,0,9,-53,-43,-53,-43
-14,-97,-82,56,34,-90,0,4,-53,-43,-53,-43
-19,-97,-78,58,29,-87,0,4,-48,-39,-53,-43
-19,-92,-73,56,26,-82,4,0,-48,-39,-48,-43
-24,-92,-68,58,21,-80,9,0,-48,-34,-48,-39
-29,-92,-63,61,17,-78,19,0,-43,-29,-43,-34
-39,-97,-58,68,9,-78,29,-9,-43,-29,-39,-34
-43,-97,-53,70,4,-75,29,-9,-48,-34,-43,-39
-43,-102,-58,73,7,-80,29,-9,-48,-39,-48,-43
-43,-102,-58,73,7,-80,29,0,-48,-39,-48,-43
-43,-107,-63,75,9,-85,34,4,-43,-34,-48,-43
-39,-107,-68,73,14,-87,29,4,-48,-39,-48,-48
-34,-102,-68,68,17,-85,29,9,-43,-39,-48,-43
-34,-102,-68,68,17,-85,24,9,-43,-34,-43,-43
-39,-102,-63,70,12,-82,19,0,-43,-34,-43,-39
-48,-97,-48,73,0,-73,14,-9,-39,-34,-43,-39
-48,-92,-43,70,-2,-68,9,-14,-34,-29,-39,-39
-43,-82,-39,63,-2,-61,4,-19,-29,-24,-39,-34
-39,-73,-34,56,-2,-53,0,-19,-24,-19,-39,-34
-34,-68,-34,51,0,-51,-9,-19,-29,-19,-39,-39
-29,-63,-34,46,2,-48,4,-9,-24,-19,-34,-34
-24,-63,-39,43,7,-51,4,-9,-29,-19,-39,-39
-24,-68,-43,46,9,-56,19,4,-24,-19,-34,-34
-24,-78,-53,51,14,-65,24,4,-29,-29,-43,-39
-29,-82,-53,56,12,-68,39,4,-34,-34,-43,-43
-34,-87,-53,61,9,-70,43,4,-29,-34,-43,-43
-39,-87,-48,63,4,-68,43,-9,-34,-39,-48,-48
-43,-97,-53,70,4,-75,43,-14,-34,-39,-48,-43
-48,-97,-48,73,0,-73,39,-19,-34,-39,-48,-43
-48,-92,-43,70,-2,-68,34,-24,-34,-39,-48,-43
-58,-97,-39,78,-9,-68,29,-24,-34,-34,-43,-39
-63,-97,-34,80,-14,-65,29,-24,-34,-34,-43,-39
-63,-92,-29,78,-17,-61,29,-24,-34,-34,-43,-39
-58,-87,-29,73,-14,-58,24,-19,-34,-34,-43,-43
-58,-82,-24,70,-17,-53,29,-14,-29,-34,-39,-43
-53,-78,-24,65,-14,-51,29,-14,-34,-34,-43,-48
-48,-78,-29,63,-9,-53,34,-9,-34,-34,-43,-43
-39,-78,-39,58,0,-58,29,-9,-34,-39,-43,-48
-34,-73,-39,53,2,-56,24,0,-34,-34,-43,-48
-24,-73,-48,48,12,-61,19,0,-39,-39,-48,-53
-24,-78,-53,51,14,-65,14,4,-39,-43,-53,-53
-19,-82,-63,51,21,-73,14,9,-43,-48,-58,-58
-19,-87,-68,53,24,-78,14,14,-39,-43,-53,-53
-24,-87,-63,56,19,-75,14,14,-39,-43,-53,-53
-29,-92,-63,61,17,-78,19,14,-34,-39,-48,-43
-34,-92,-58,63,12,-75,19,9,-39,-39,-48,-43
-34,-92,-58,63,12,-75,19,9,-39,-39,-48,-43
-29,-92,-63,61,17,-78,24,9,-39,-39,-43,-43
-24,-87,-63,56,19,-75,24,9,-43,-39,-48,-43
-19,-87,-68,53,24,-78,24,9,-43,-43,-48,-43
-24,-87,-63,56,19,-75,19,9,-48,-43,-48,-48
-24,-87,-63,56,19,-75,19,9,-48,-43,-48,-48
-29,-87,-58,58,14,-73,19,4,-43,-43,-48,-48
-34,-87,-53,61,9,-70,19,4,-39,-39,-43,-43
-43,-92,-48,68,2,-70,24,4,-39,-39,-43,-43
-43,-97,-53,70,4,-75,29,0,-39,-39,-48,-43
-43,-97,-53,70,4,-75,29,-9,-39,-39,-48,-43
-48,-97,-48,73,0,-73,34,-9,-39,-39,-43,-43
-48,-97,-48,73,0,-73,34,-14,-43,-43,-48,-43
-48,-97,-48,73,0,-73,34,-19,-43,-43,-48,-43
-53,-97,-43,75,-4,-70,39,-19,-39,-39,-43,-39
-53,-102,-48,78,-2,-75,39,-24,-43,-43,-48,-43
-58,-102,-43,80,-7,-73,39,-29,-48,-48,-48,-43
-63,-107,-43,85,-9,-75,39,-29,-43,-48,-48,-43
-63,-107,-43,85,-9,-75,39,-29,-48,-48,-48,-48
-63,-112,-48,87,-7,-80,34,-29,-48,-48,-53,-48
-58,-112,-53,85,-2,-82,34,-24,-48,-48,-53,-48
-53,-107,-53,80,0,-80,29,-24,-48,-48,-53,-53
-43,-102,-58,73,7,-80,24,-24,-43,-48,-53,-53
-34,-97,-63,65,14,-80,24,-24,-48,-53,-58,-53
-34,-97,-63,65,14,-80,24,-19,-48,-48,-58,-53
-34,-97,-63,65,14,-80,24,-19,-48,-48,-58,-53
-39,-97,-58,68,9,-78,24,-19,-48,-43,-53,-48
-48,-102,-53,75,2,-78,24,-14,-48,-43,-48,-43
-53,-102,-48,78,-2,-75,19,-14,-48,-43,-48,-39
-53,-97,-43,75,-4,-70,19,-9,-43,-39,-43,-39
-48,-92,-43,70,-2,-68,9,-14,-43,-39,-43,-39
-43,-87,-43,65,0,-65,4,-14,-43,-39,-43,-39
-34,-82,-48,58,7,-65,4,-9,-43,-43,-43,-43
-24,-87,-63,56,19,-75,4,0,-48,-48,-48,-43
-19,-92,-73,56,26,-82,4,0,-53,-53,-53,-48
-14,-102,-87,58,36,-95,4,4,-63,-63,-63,-58
-14,-107,-92,61,39,-100,9,14,-63,-63,-63,-58
-9,-112,-102,61,46,-107,9,14,-68,-68,-68,-63
-9,-112,-102,61,46,-107,4,19,-68,-63,-63,-58
-9,-107,-97,58,43,-102,0,19,-68,-63,-63,-58
-14,-107,-92,61,39,-100,0,19,-58,-58,-58,-53
-19,-107,-87,63,34,-97,0,14,-63,-58,-58,-53
-24,-112,-87,68,31,-100,0,9,-63,-58,-58,-53
-34,-112,-78,73,21,-95,0,0,-63,-58,-63,-58
-34,-112,-78,73,21,-95,4,-14,-68,-63,-63,-58
-39,-112,-73,75,17,-92,14,-14,-68,-58,-63,-58
-39,-112,-73,75,17,-92,19,-14,-63,-58,-58,-53
-39,-107,-68,73,14,-87,24,-14,-68,-58,-58,-53
-39,-102,-63,70,12,-82,29,-9,-63,-58,-53,-48
-34,-102,-68,68,17,-85,29,0,-58,-53,-48,-43
-39,-102,-63,70,12,-82,29,-9,-63,-58,-53,-48
-48,-112,-63,80,7,-87,29,-9,-63,-58,-53,-48
-48,-117,-68,82,9,-92,29,-9,-58,-53,-53,-48
-48,-112,-63,80,7,-87,24,-14,-58,-58,-58,-53
-48,-107,-58,78,4,-82,19,-14,-53,-48,-53,-48
-43,-102,-58,73,7,-80,14,-19,-53,-48,-53,-48
-39,-92,-53,65,7,-73,14,-24,-48,-43,-48,-43
-29,-78,-48,53,9,-63,19,-24,-43,-39,-39,-39
-29,-68,-39,48,4,-53,19,-29,-39,-34,-39,-34
-34,-68,-34,51,0,-51,29,-34,-39,-39,-39,-34
-48,-73,-24,61,-12,-48,43,-34,-34,-34,-34,-29
-53,-82,-29,68,-12,-56,53,-34,-34,-34,-34,-24
-58,-82,-24,70,-17,-53,58,-34,-34,-34,-34,-29
-58,-87,-29,73,-14,-58,53,-29,-39,-39,-39,-29
-53,-82,-29,68,-12,-56,53,-14,-29,-29,-29,-24
-39,-73,-34,56,-2,-53,43,-9,-29,-29,-34,-24
-24,-63,-39,43,7,-51,29,4,-34,-29,-34,-29
-14,-53,-39,34,12,-46,24,14,-34,-29,-29,-24
-9,-48,-39,29,14,-43,19,14,-34,-29,-29,-29
-9,-48,-39,29,14,-43,24,14,-29,-29,-34,-29
-14,-53,-39,34,12,-46,34,14,-24,-29,-29,-29
-19,-53,-34,36,7,-43,39,9,-29,-29,-34,-29
-19,-53,-34,36,7,-43,39,0,-24,-29,-34,-34
-29,-53,-24,41,-2,-39,48,-9,-19,-19,-29,-24
-34,-53,-19,43,-7,-36,48,-19,-14,-19,-24,-19
-34,-48,-14,41,-9,-31,43,-24,-14,-9,-14,-14
-29,-34,-4,31,-12,-19,34,-29,-9,-9,-9,0
-29,-24,4,26,-17,-9,29,-29,-9,0,0,4
-24,-14,9,19,-17,-2,14,-24,0,4,4,9
-9,0,9,4,-9,4,0,-19,0,4,4,9
14,14,0,-14,7,7,-19,-9,-9,4,9,9
29,24,-4,-26,17,9,-34,0,-9,4,9,9
34,24,-9,-29,21,7,-39,4,-14,4,9,9
34,14,-19,-24,26,-2,-39,9,-19,0,4,4
29,0,-29,-14,29,-14,-39,4,-29,-14,0,0
24,-19,-43,-2,34,-31,-39,-9,-39,-24,-14,-9
9,-39,-48,14,29,-43,-29,-9,-39,-24,-14,0
4,-48,-53,21,29,-51,-24,-19,-48,-34,-19,0
9,-53,-63,21,36,-58,-29,-19,-48,-34,-19,4
19,-48,-68,14,43,-58,-29,-19,-48,-34,-14,4
24,-39,-63,7,43,-51,-34,-19,-43,-24,-9,9
29,-29,-58,0,43,-43,-34,-14,-39,-19,0,19
29,-19,-48,-4,39,-34,-34,-9,-34,-14,0,19
24,-19,-43,-2,34,-31,-34,-9,-29,-14,4,24
14,-14,-29,0,21,-21,-24,-9,-24,-9,9,24
9,-14,-24,2,17,-19,-19,-14,-24,-9,9,24
0,-19,-19,9,9,-19,-14,-14,-19,0,9,24
0,-19,-19,9,9,-19,-14,-19,-24,-9,4,19
0,-19,-19,9,9,-19,-14,-19,-24,-9,4,14
4,-24,-29,9,17,-26,-19,-19,-24,-9,0,9
9,-24,-34,7,21,-29,-19,-14,-29,-14,0,9
14,-29,-43,7,29,-36,-24,-9,-34,-14,-9,4
14,-39,-53,12,34,-46,-29,0,-43,-24,-19,0
14,-53,-68,19,41,-61,-29,0,-48,-34,-29,-14
4,-68,-73,31,39,-70,-19,4,-58,-43,-34,-19
-9,-87,-78,48,34,-82,-9,4,-63,-48,-43,-24
-19,-102,-82,61,31,-92,4,4,-68,-58,-48,-29
-19,-117,-97,68,39,-107,4,0,-78,-68,-58,-43
-24,-126,-102,75,39,-114,4,0,-82,-73,-63,-48
-29,-131,-102,80,36,-117,4,-9,-82,-73,-68,-53
-24,-126,-102,75,39,-114,4,0,-78,-68,-63,-53
-24,-122,-97,73,36,-109,-9,-9,-78,-68,-68,-58
-29,-122,-92,75,31,-107,-9,0,-73,-63,-58,-53
-34,-117,-82,75,24,-100,-14,-9,-73,-63,-58,-53
-39,-117,-78,78,19,-97,-14,-14,-73,-63,-58,-53
-43,-117,-73,80,14,-95,-14,-19,-73,-63,-58,-53
-48,-117,-68,82,9,-92,0,-19,-68,-58,-53,-48
-53,-122,-68,87,7,-95,4,-24,-78,-63,-58,-53
-48,-126,-78,87,14,-102,9,-29,-82,-68,-63,-53
-48,-131,-82,90,17,-107,19,-29,-82,-68,-63,-58
-48,-131,-82,90,17,-107,24,-29,-82,-73,-68,-58
-48,-136,-87,92,19,-112,24,-34,-92,-78,-73,-63
-48,-141,-92,95,21,-117,24,-43,-92,-82,-78,-68
-53,-146,-92,100,19,-119,24,-39,-92,-78,-78,-68
-58,-146,-87,102,14,-117,19,-39,-92,-82,-78,-68
-58,-146,-87,102,14,-117,14,-34,-92,-78,-78,-68
-58,-141,-82,100,12,-112,9,-29,-87,-78,-73,-63
-58,-146,-87,102,14,-117,4,-29,-87,-78,-73,-63
-58,-146,-87,102,14,-117,0,-24,-92,-82,-73,-68
-58,-146,-87,102,14,-117,4,-24,-92,-82,-73,-68
-53,-141,-87,97,17,-114,4,-24,-87,-78,-68,-63
-53,-141,-87,97,17,-114,4,-24,-87,-78,-68,-63
-53,-141,-87,97,17,-114,4,-24,-87,-73,-68,-63
-53,-136,-82,95,14,-109,4,-24,-87,-73,-68,-63
-48,-126,-78,87,14,-102,4,-19,-87,-68,-68,-58
-39,-126,-87,82,24,-107,9,-9,-82,-68,-63,-58
-34,-131,-97,82,31,-114,14,-9,-87,-73,-68,-63
-34,-136,-102,85,34,-119,14,-9,-92,-78,-73,-68
-34,-141,-107,87,36,-124,9,-14,-97,-82,-78,-73
-39,-151,-112,95,36,-131,14,-14,-97,-82,-82,-78
-48,-156,-107,102,29,-131,19,-19,-102,-87,-87,-82
-63,-165,-102,114,19,-134,29,-19,-92,-82,-82,-78
-73,-165,-92,119,9,-129,39,-14,-92,-82,-82,-78
-78,-175,-97,126,9,-136,43,-9,-87,-82,-82,-78
-82,-185,-102,134,9,-143,53,0,-87,-87,-92,-87
-92,-200,-107,146,7,-153,63,0,-92,-97,-112,-102
-102,-224,-122,163,9,-173,78,9,-92,-112,-126,-122
-107,-239,-131,173,12,-185,97,14,-87,-117,-141,-141
-117,-248,-131,183,7,-190,117,14,-82,-126,-156,-161
-126,-258,-131,192,2,-195,131,14,-73,-131,-170,-175
-141,-253,-112,197,-14,-183,151,9,-53,-122,-170,-185
-156,-239,-82,197,-36,-161,170,4,-29,-107,-161,-185
-165,-219,-53,192,-56,-136,180,-9,9,-82,-146,-175
-170,-180,-9,175,-80,-95,175,-14,39,-58,-126,-161
-165,-141,24,153,-95,-58,165,-19,73,-24,-102,-136
-146,-92,53,119,-100,-19,146,-14,102,14,-68,-107
-112,-34,78,73,-95,21,107,-9,117,43,-39,-78
-53,29,82,12,-68,56,58,9,126,73,0,-39
29,97,68,-63,-19,82,-9,29,126,102,43,9
122,180,58,-151,31,119,-92,43,122,131,92,63
234,278,43,-256,95,161,-190,68,107,165,141,126
351,390,39,-370,156,214,-307,92,107,219,219,209
488,531,43,-509,222,287,-448,102,102,273,297,297
624,688,63,-656,280,375,-590,117,112,346,400,409
751,868,117,-810,317,492,-746,122,131,439,517,536
878,1063,185,-971,346,624,-893,112,170,546,658,678
976,1268,292,-1122,341,780,-1029,82,224,668,800,834
1063,1464,400,-1263,331,932,-1156,43,273,780,941,980
1132,1644,512,-1388,309,1078,-1273,0,312,888,1073,1117
1171,1790,619,-1481,275,1205,-1351,-53,361,995,1195,1254
1180,1917,736,-1549,222,1327,-1400,-117,414,1093,1307,1356
1166,1995,829,-1581,168,1412,-1434,-180,453,1166,1381,1439
1127,2020,893,-1573,117,1456,-1429,-239,483,1220,1439,1488
1063,1986,922,-1525,70,1454,-1376,-278,492,1234,1444,1493
961,1883,922,-1422,19,1403,-1283,-297,488,1205,1405,1459
854,1708,854,-1281,0,1281,-1166,-297,444,1117,1317,1371
732,1464,732,-1098,0,1098,-1029,-268,356,971,1171,1239
610,1176,566,-893,21,871,-873,-219,253,790,985,1068
483,878,395,-680,43,636,-697,-156,141,595,790,883
366,595,229,-480,68,412,-541,-112,29,395,585,692
258,356,97,-307,80,226,-400,-73,-73,224,409,517
165,175,9,-170,78,92,-283,-48,-131,97,273,380
102,68,-34,-85,68,17,-190,-39,-151,24,170,278
53,9,-43,-31,48,-17,-131,-34,-146,-19,112,195
19,-19,-39,0,29,-29,-92,-29,-126,-34,73,146
-9,-19,-9,14,0,-14,-68,-24,-102,-29,53,107
-19,-19,0,19,-9,-9,-48,-14,-68,-9,43,82
-29,-19,9,24,-19,-4,-29,0,-43,0,29,58
-39,-34,4,36,-21,-14,-14,4,-39,0,14,29
-48,-48,0,48,-24,-24,9,9,-29,-9,0,9
-58,-68,-9,63,-24,-39,24,9,-29,-19,-14,-9
-63,-82,-19,73,-21,-51,34,4,-29,-24,-29,-24
-63,-92,-29,78,-17,-61,48,4,-29,-29,-34,-34
-63,-97,-34,80,-14,-65,48,0,-34,-34,-43,-39
-63,-102,-39,82,-12,-70,58,0,-29,-34,-43,-43
-58,-102,-43,80,-7,-73,53,0,-34,-43,-53,-53
-48,-97,-48,73,0,-73,48,9,-39,-43,-53,-58
-34,-92,-58,63,12,-75,43,14,-39,-48,-58,-58
-29,-87,-58,58,14,-73,34,19,-34,-48,-58,-63
-29,-82,-53,56,12,-68,34,24,-29,-43,-58,-58
-29,-78,-48,53,9,-63,29,29,-24,-43,-53,-58
-29,-82,-53,56,12,-68,29,24,-29,-43,-53,-58
-43,-87,-43,65,0,-65,34,19,-29,-48,-58,-63
-53,-102,-48,78,-2,-75,43,14,-34,-53,-63,-63
-63,-112,-48,87,-7,-80,48,4,-39,-58,-68,-68
-63,-122,-58,92,-2,-90,53,4,-39,-58,-73,-73
-63,-126,-63,95,0,-95,58,0,-43,-68,-78,-78
-68,-131,-63,100,-2,-97,58,0,-43,-63,-78,-78
-63,-131,-68,97,2,-100,58,4,-39,-63,-78,-73
-58,-126,-68,92,4,-97,48,9,-39,-63,-73,-73
-53,-117,-63,85,4,-90,48,14,-39,-58,-73,-73
-48,-117,-68,82,9,-92,43,24,-34,-53,-68,-73
-43,-112,-68,78,12,-90,39,29,-34,-53,-68,-73
-39,-112,-73,75,17,-92,39,34,-39,-58,-68,-73
-39,-122,-82,80,21,-102,39,34,-43,-63,-78,-82
-43,-131,-87,87,21,-109,43,29,-48,-68,-82,-87
-48,-136,-87,92,19,-112,48,24,-53,-73,-87,-92
-58,-146,-87,102,14,-117,58,14,-53,-78,-87,-92
-68,-151,-82,109,7,-117,68,9,-58,-78,-92,-92
-78,-156,-78,117,0,-117,73,0,-58,-82,-97,-97
-82,-161,-78,122,-2,-119,78,-14,-58,-78,-92,-92
-92,-161,-68,126,-12,-114,87,-14,-53,-78,-92,-92
-102,-161,-58,131,-21,-109,82,-24,-53,-78,-92,-92
-107,-161,-53,134,-26,-107,82,-19,-43,-73,-87,-87
-107,-156,-48,131,-29,-102,78,-19,-43,-73,-87,-87
-102,-151,-48,126,-26,-100,78,-9,-39,-68,-78,-82
-92,-141,-48,117,-21,-95,68,0,-39,-68,-82,-82
-82,-141,-58,112,-12,-100,68,14,-34,-63,-78,-78
-73,-136,-63,104,-4,-100,68,24,-39,-68,-78,-82
-63,-136,-73,100,4,-104,68,24,-43,-68,-82,-87
-63,-141,-78,102,7,-109,68,24,-43,-73,-87,-92
-63,-146,-82,104,9,-114,73,24,-43,-73,-87,-92
-63,-151,-87,107,12,-119,68,19,-43,-78,-92,-97
-68,-151,-82,109,7,-117,63,19,-43,-78,-92,-97
-63,-146,-82,104,9,-114,63,14,-39,-73,-87,-92
-63,-136,-73,100,4,-104,58,14,-34,-73,-87,-92
-63,-131,-68,97,2,-100,58,14,-34,-68,-82,-87
-63,-131,-68,97,2,-100,58,19,-29,-68,-78,-82
-63,-131,-68,97,2,-100,58,19,-29,-63,-78,-82
-68,-131,-63,100,-2,-97,63,14,-29,-63,-78,-82
-68,-131,-63,100,-2,-97,68,14,-34,-68,-82,-87
-68,-131,-63,100,-2,-97,68,19,-34,-68,-87,-87
-63,-136,-73,100,4,-104,68,19,-34,-68,-87,-92
-63,-136,-73,100,4,-104,73,24,-34,-68,-87,-87
-63,-131,-68,97,2,-100,78,34,-34,-68,-82,-87
-58,-131,-73,95,7,-102,78,34,-34,-73,-87,-87
-53,-126,-73,90,9,-100,82,39,-29,-68,-87,-87
-53,-126,-73,90,9,-100,82,39,-24,-63,-87,-87
-53,-122,-68,87,7,-95,78,34,-24,-63,-87,-87
-53,-117,-63,85,4,-90,78,34,-19,-58,-82,-82
-53,-117,-63,85,4,-90,73,34,-19,-58,-82,-82
-53,-117,-63,85,4,-90,68,29,-19,-58,-78,-82
-58,-117,-58,87,0,-87,63,24,-19,-63,-82,-82
-63,-126,-63,95,0,-95,68,24,-19,-63,-78,-82
-68,-131,-63,100,-2,-97,73,24,-19,-63,-78,-82
-78,-136,-58,107,-9,-97,78,24,-19,-63,-82,-82
-87,-136,-48,112,-19,-92,87,19,-14,-63,-82,-82
-92,-141,-48,117,-21,-95,92,14,-14,-63,-82,-87
-102,-141,-39,122,-31,-90,102,14,-9,-63,-82,-82
-107,-141,-34,124,-36,-87,107,9,-14,-63,-87,-87
-102,-146,-43,124,-29,-95,107,14,-14,-63,-87,-92
-102,-146,-43,124,-29,-95,107,14,-19,-68,-92,-92
-102,-146,-43,124,-29,-95,112,14,-19,-68,-92,-97
-102,-151,-48,126,-26,-100,117,19,-19,-68,-92,-97
-107,-156,-48,131,-29,-102,112,14,-19,-73,-97,-102
-112,-156,-43,134,-34,-100,117,19,-14,-68,-92,-97
-112,-151,-39,131,-36,-95,112,14,-14,-73,-97,-102
-107,-146,-39,126,-34,-92,112,19,-14,-68,-92,-102
-102,-141,-39,122,-31,-90,112,24,-9,-68,-97,-102
-92,-136,-43,114,-24,-90,112,29,-9,-68,-97,-102
-82,-136,-53,109,-14,-95,112,34,-9,-68,-97,-102
-78,-131,-53,104,-12,-92,112,39,0,-68,-92,-102
-73,-131,-58,102,-7,-95,112,39,0,-68,-97,-112
-82,-126,-43,104,-19,-85,117,39,9,-63,-92,-102
-92,-126,-34,109,-29,-80,112,29,9,-63,-92,-102
-107,-126,-19,117,-43,-73,112,19,14,-58,-87,-97
-117,-126,-9,122,-53,-68,117,19,24,-53,-82,-92
-112,-126,-14,119,-48,-70,117,24,24,-53,-82,-87
-107,-122,-14,114,-46,-68,112,24,24,-53,-82,-87
-92,-112,-19,102,-36,-65,107,29,19,-58,-87,-92
-73,-107,-34,90,-19,-70,112,43,24,-58,-87,-92
-58,-92,-34,75,-12,-63,112,53,29,-53,-82,-87
-48,-78,-29,63,-9,-53,112,68,39,-48,-78,-87
-43,-68,-24,56,-9,-46,112,78,43,-43,-68,-82
-53,-63,-9,58,-21,-36,117,78,53,-34,-68,-82
-58,-63,-4,61,-26,-34,122,82,58,-34,-63,-78
-68,-68,0,68,-34,-34,122,87,58,-34,-63,-82
-73,-78,-4,75,-34,-41,122,82,53,-39,-73,-87
-73,-92,-19,82,-26,-56,126,78,48,-48,-82,-97
-78,-97,-19,87,-29,-58,131,73,43,-58,-92,-102
-78,-97,-19,87,-29,-58,136,68,43,-58,-97,-102
-82,-97,-14,90,-34,-56,146,68,48,-53,-92,-97
-87,-92,-4,90,-41,-48,151,63,53,-48,-87,-97
-92,-82,9,87,-51,-36,151,53,58,-48,-87,-92
-102,-82,19,92,-61,-31,156,48,63,-39,-78,-87
-112,-78,34,95,-73,-21,156,39,63,-39,-78,-87
-112,-82,29,97,-70,-26,161,39,68,-39,-73,-87
-112,-78,34,95,-73,-21,161,34,63,-43,-78,-92
-112,-78,34,95,-73,-21,165,34,68,-43,-78,-92
-117,-78,39,97,-78,-19,175,43,73,-39,-78,-87
-112,-78,34,95,-73,-21,170,48,73,-43,-82,-87
-112,-78,34,95,-73,-21,175,53,73,-43,-78,-87
-112,-73,39,92,-75,-17,180,63,73,-39,-78,-82
-112,-78,34,95,-73,-21,185,63,73,-43,-78,-82
-112,-82,29,97,-70,-26,190,68,78,-39,-73,-82
-112,-82,29,97,-70,-26,190,68,73,-43,-73,-82
-107,-82,24,95,-65,-29,190,73,73,-48,-78,-87
-102,-78,24,90,-63,-26,185,73,73,-43,-78,-87
-97,-78,19,87,-58,-29,180,73,73,-48,-82,-92
-92,-78,14,85,-53,-31,180,82,78,-48,-78,-82
-87,-73,14,80,-51,-29,180,82,78,-48,-78,-82
-87,-68,19,78,-53,-24,180,82,78,-48,-78,-78
-92,-68,24,80,-58,-21,180,78,78,-48,-78,-78
-92,-68,24,80,-58,-21,185,78,73,-48,-78,-78
-92,-68,24,80,-58,-21,185,73,73,-53,-78,-78
-97,-73,24,85,-61,-24,185,68,68,-53,-82,-78
-97,-78,19,87,-58,-29,180,58,58,-63,-87,-82
-97,-87,9,92,-53,-39,180,58,58,-68,-92,-82
-102,-92,9,97,-56,-41,185,58,58,-68,-87,-82
-107,-92,14,100,-61,-39,185,53,53,-73,-87,-82
-107,-92,14,100,-61,-39,185,58,53,-73,-87,-82
-102,-87,14,95,-58,-36,180,58,53,-73,-87,-82
-97,-82,14,90,-56,-34,185,68,53,-68,-82,-78
-92,-82,9,87,-51,-36,175,68,53,-73,-82,-78
-82,-82,0,82,-41,-41,175,73,48,-68,-82,-73
-73,-82,-9,78,-31,-46,165,73,43,-73,-87,-73
-63,-82,-19,73,-21,-51,156,68,34,-82,-92,-78
-58,-82,-24,70,-17,-53,151,73,29,-78,-87,-73
-48,-78,-29,63,-9,-53,146,73,29,-78,-82,-68
-39,-73,-34,56,-2,-53,136,78,29,-73,-78,-63
-29,-63,-34,46,2,-48,131,82,29,-73,-73,-58
-24,-58,-34,41,4,-46,122,78,29,-68,-68,-53
-19,-48,-29,34,4,-39,112,78,29,-63,-63,-48
-19,-43,-24,31,2,-34,102,78,34,-58,-58,-43
-19,-43,-24,31,2,-34,97,68,29,-53,-53,-39
-24,-43,-19,34,-2,-31,87,58,24,-53,-53,-39
-29,-48,-19,39,-4,-34,87,58,19,-53,-48,-34
-29,-53,-24,41,-2,-39,78,48,9,-53,-48,-34
-34,-58,-24,46,-4,-41,73,53,9,-53,-43,-34
-29,-58,-29,43,0,-43,63,43,-9,-58,-53,-39
-19,-58,-39,39,9,-48,53,43,-14,-58,-53,-39
-9,-58,-48,34,19,-53,39,43,-19,-63,-53,-43
0,-53,-53,26,26,-53,29,43,-24,-63,-53,-43
0,-53,-53,26,26,-53,29,43,-24,-58,-48,-39
-9,-58,-48,34,19,-53,29,39,-24,-53,-43,-34
-14,-63,-48,39,17,-56,29,34,-29,-53,-43,-29
-24,-68,-43,46,9,-56,29,29,-29,-53,-39,-29
-29,-73,-43,51,7,-58,29,19,-34,-53,-43,-34
-34,-78,-43,56,4,-61,29,14,-34,-48,-43,-29
-29,-78,-48,53,9,-63,29,4,-34,-48,-39,-29
-24,-73,-48,48,12,-61,24,0,-34,-48,-39,-29
-19,-63,-43,41,12,-53,19,0,-39,-48,-39,-29
-19,-63,-43,41,12,-53,19,-9,-34,-43,-34,-29
-19,-58,-39,39,9,-48,19,-14,-34,-39,-34,-24
-24,-58,-34,41,4,-46,14,-19,-39,-39,-34,-24
-29,-63,-34,46,2,-48,19,-19,-34,-39,-29,-24
-34,-63,-29,48,-2,-46,14,-24,-39,-43,-34,-29
-43,-68,-24,56,-9,-46,14,-29,-39,-43,-34,-29
-48,-73,-24,61,-12,-48,9,-29,-39,-39,-34,-24
-53,-78,-24,65,-14,-51,0,-34,-39,-43,-34,-24
-58,-78,-19,68,-19,-48,0,-29,-39,-39,-29,-19
-58,-82,-24,70,-17,-53,-9,-24,-39,-39,-29,-19
-48,-82,-34,65,-7,-58,-14,-24,-43,-43,-34,-24
-39,-82,-43,61,2,-63,-9,-14,-43,-39,-34,-24
-34,-82,-48,58,7,-65,0,-14,-48,-43,-39,-29
-24,-87,-63,56,19,-75,4,-9,-48,-43,-39,-34
-19,-87,-68,53,24,-78,14,-9,-48,-43,-39,-34
-19,-87,-68,53,24,-78,19,-9,-48,-43,-39,-34
-24,-87,-63,56,19,-75,19,-14,-48,-43,-39,-34
-24,-82,-58,53,17,-70,19,-19,-48,-43,-39,-34
-24,-78,-53,51,14,-65,14,-24,-48,-43,-39,-34
-24,-73,-48,48,12,-61,9,-19,-43,-39,-39,-29
-24,-68,-43,46,9,-56,4,-14,-39,-39,-34,-24
-24,-63,-39,43,7,-51,-9,-19,-39,-39,-34,-24
-19,-63,-43,41,12,-53,-14,-19,-39,-39,-34,-24
-24,-68,-43,46,9,-56,-9,-24,-39,-39,-34,-24
-24,-73,-48,48,12,-61,-9,-29,-43,-43,-34,-24
-24,-73,-48,48,12,-61,-9,-29,-48,-43,-34,-24
-24,-68,-43,46,9,-56,-9,-24,-48,-39,-34,-24
-19,-63,-43,41,12,-53,-9,-19,-48,-43,-34,-24
-14,-63,-48,39,17,-56,-9,-14,-43,-39,-29,-24
-9,-58,-48,34,19,-53,-9,-9,-39,-34,-29,-24
-9,-53,-43,31,17,-48,-9,4,-34,-29,-24,-19
-9,-53,-43,31,17,-48,-9,9,-29,-29,-24,-19
-9,-58,-48,34,19,-53,-14,4,-34,-34,-29,-24
-19,-63,-43,41,12,-53,-9,4,-39,-34,-29,-24
-29,-68,-39,48,4,-53,-9,0,-39,-39,-29,-24
-34,-73,-39,53,2,-56,0,0,-39,-39,-29,-24
-34,-78,-43,56,4,-61,4,0,-43,-39,-34,-24
-39,-82,-43,61,2,-63,9,-9,-39,-39,-29,-24
-39,-82,-43,61,2,-63,9,-14,-39,-39,-29,-24
-34,-82,-48,58,7,-65,4,-19,-43,-43,-34,-34
-29,-78,-48,53,9,-63,9,-19,-43,-39,-34,-34
-29,-78,-48,53,9,-63,9,-19,-43,-39,-34,-29
-24,-73,-48,48,12,-61,4,-19,-43,-39,-34,-34
-19,-73,-53,46,17,-63,9,-14,-39,-39,-34,-29
-19,-73,-53,46,17,-63,14,-9,-39,-39,-29,-29
-24,-73,-48,48,12,-61,14,-9,-39,-39,-34,-29
-34,-73,-39,53,2,-56,19,0,-34,-34,-29,-24
-39,-78,-39,58,0,-58,19,-9,-39,-39,-34,-34
-39,-82,-43,61,2,-63,19,-9,-34,-34,-34,-29
-43,-82,-39,63,-2,-61,14,-9,-34,-34,-34,-29
-39,-78,-39,58,0,-58,9,-14,-39,-39,-39,-34
-34,-73,-39,53,2,-56,9,-9,-34,-34,-34,-29
-24,-68,-43,46,9,-56,4,0,-29,-29,-29,-24
-14,-63,-48,39,17,-56,0,4,-29,-29,-29,-24
-14,-58,-43,36,14,-51,0,0,-29,-29,-29,-24
-14,-53,-39,34,12,-46,0,4,-24,-29,-24,-19
-9,-48,-39,29,14,-43,0,0,-24,-29,-24,-24
-9,-43,-34,26,12,-39,0,0,-19,-24,-24,-19
-9,-39,-29,24,9,-34,0,0,-14,-14,-19,-14
-9,-34,-24,21,7,-29,-9,0,-14,-19,-19,-19
0,-34,-34,17,17,-34,-9,4,-14,-19,-19,-19
0,-39,-39,19,19,-39,-9,4,-14,-19,-24,-19
-9,-39,-29,24,9,-34,-9,4,-14,-19,-19,-19
-19,-48,-29,34,4,-39,0,4,-14,-19,-24,-19
-29,-58,-29,43,0,-43,4,-14,-24,-29,-29,-24
-39,-68,-29,53,-4,-48,14,-19,-24,-29,-29,-24
-53,-73,-19,63,-17,-46,24,-29,-24,-29,-29,-24
-63,-73,-9,68,-26,-41,29,-39,-19,-29,-29,-24
-73,-78,-4,75,-34,-41,39,-43,-19,-29,-29,-24
-78,-78,0,78,-39,-39,43,-48,-24,-34,-29,-29
-78,-78,0,78,-39,-39,43,-53,-19,-34,-29,-29
-82,-78,4,80,-43,-36,48,-53,-14,-29,-24,-29
-78,-78,0,78,-39,-39,48,-48,-14,-29,-29,-29
-78,-82,-4,80,-36,-43,43,-48,-19,-34,-34,-29
-73,-82,-9,78,-31,-46,43,-39,-19,-34,-34,-34
-68,-87,-19,78,-24,-53,43,-39,-24,-34,-39,-34
-68,-87,-19,78,-24,-53,39,-34,-24,-34,-39,-34
-63,-92,-29,78,-17,-61,39,-24,-24,-39,-43,-34
-63,-92,-29,78,-17,-61,39,-19,-24,-34,-39,-34
-63,-92,-29,78,-17,-61,39,-19,-24,-34,-34,-34
-58,-82,-24,70,-17,-53,39,-19,-19,-34,-34,-34
-48,-78,-29,63,-9,-53,34,-14,-19,-29,-34,-29
-39,-68,-29,53,-4,-48,29,-9,-14,-24,-29,-29
-39,-63,-24,51,-7,-43,24,-9,-14,-24,-29,-29
-39,-58,-19,48,-9,-39,24,-9,-14,-24,-29,-29
-34,-58,-24,46,-4,-41,19,-9,-14,-24,-29,-29
-39,-63,-24,51,-7,-43,19,-9,-19,-29,-29,-34
-43,-68,-24,56,-9,-46,24,0,-19,-24,-29,-29
-48,-68,-19,58,-14,-43,24,-9,-19,-24,-29,-29
-48,-68,-19,58,-14,-43,29,0,-19,-24,-29,-29
-48,-73,-24,61,-12,-48,34,4,-19,-24,-24,-29
-48,-73,-24,61,-12,-48,39,0,-19,-24,-29,-29
-48,-73,-24,61,-12,-48,39,4,-19,-24,-24,-29
-43,-73,-29,58,-7,-51,34,0,-24,-34,-34,-34
-39,-78,-39,58,0,-58,29,0,-29,-34,-39,-34
-39,-78,-39,58,0,-58,24,4,-34,-39,-39,-39
-29,-78,-48,53,9,-63,24,9,-29,-39,-39,-39
-24,-78,-53,51,14,-65,19,4,-34,-43,-43,-43
-29,-73,-43,51,7,-58,24,4,-29,-43,-43,-39
-29,-68,-39,48,4,-53,24,4,-29,-39,-39,-39
-29,-68,-39,48,4,-53,24,4,-24,-34,-34,-34
-29,-63,-34,46,2,-48,24,4,-24,-34,-34,-34
-34,-63,-29,48,-2,-46,19,0,-24,-34,-34,-34
-34,-63,-29,48,-2,-46,14,0,-29,-34,-34,-34
-34,-63,-29,48,-2,-46,14,0,-24,-34,-34,-34
-39,-63,-24,51,-7,-43,9,-9,-24,-34,-34,-34
-43,-63,-19,53,-12,-41,14,0,-19,-24,-29,-24
-43,-58,-14,51,-14,-36,9,-9,-19,-29,-29,-24
-39,-53,-14,46,-12,-34,9,-9,-14,-24,-24,-24
-39,-53,-14,46,-12,-34,9,0,-14,-19,-24,-19
-34,-53,-19,43,-7,-36,4,-9,-19,-24,-24,-24
-29,-48,-19,39,-4,-34,4,-9,-19,-19,-24,-24
-24,-48,-24,36,0,-36,0,-14,-19,-24,-29,-29
-24,-48,-24,36,0,-36,0,-19,-19,-24,-29,-29
-29,-53,-24,41,-2,-39,4,-24,-19,-24,-29,-29
-39,-63,-24,51,-7,-43,9,-34,-24,-29,-34,-34
-53,-73,-19,63,-17,-46,14,-43,-24,-29,-34,-29
-73,-82,-9,78,-31,-46,29,-48,-29,-34,-34,-29
-82,-92,-9,87,-36,-51,39,-58,-34,-39,-39,-34
-87,-102,-14,95,-36,-58,43,-58,-39,-43,-43,-34
-87,-107,-19,97,-34,-63,53,-53,-39,-43,-43,-34
-87,-107,-19,97,-34,-63,58,-53,-43,-48,-43,-34
-78,-107,-29,92,-24,-68,53,-48,-43,-53,-43,-39
-63,-102,-39,82,-12,-70,53,-39,-48,-53,-48,-39
-58,-97,-39,78,-9,-68,48,-39,-48,-53,-48,-39
-58,-92,-34,75,-12,-63,43,-29,-43,-48,-43,-39
-48,-92,-43,70,-2,-68,34,-24,-48,-53,-48,-43
-43,-92,-48,68,2,-70,29,-14,-43,-48,-43,-43
-34,-87,-53,61,9,-70,19,-9,-43,-48,-43,-43
-29,-82,-53,56,12,-68,4,4,-48,-48,-43,-43
-19,-78,-58,48,19,-68,0,9,-48,-48,-43,-43
-14,-68,-53,41,19,-61,-9,14,-43,-48,-43,-39
-14,-63,-48,39,17,-56,-14,19,-39,-39,-39,-34
-19,-63,-43,41,12,-53,-14,14,-39,-39,-34,-34
-34,-63,-29,48,-2,-46,-9,4,-39,-39,-39,-34
-48,-68,-19,58,-14,-43,0,0,-39,-39,-34,-34
-53,-73,-19,63,-17,-46,4,-9,-39,-39,-34,-34
-58,-82,-24,70,-17,-53,14,-14,-43,-43,-39,-34
-58,-87,-29,73,-14,-58,19,-19,-48,-48,-43,-39
-53,-87,-34,70,-9,-61,24,-24,-48,-48,-43,-39
-43,-87,-43,65,0,-65,24,-24,-53,-53,-43,-43
-34,-87,-53,61,9,-70,29,-14,-48,-48,-43,-43
-29,-87,-58,58,14,-73,24,-19,-53,-53,-48,-48
-34,-87,-53,61,9,-70,24,-14,-48,-48,-43,-43
-29,-87,-58,58,14,-73,14,-14,-53,-53,-43,-43
-24,-82,-58,53,17,-70,9,0,-48,-48,-43,-39
-24,-82,-58,53,17,-70,4,0,-43,-43,-39,-34
-24,-82,-58,53,17,-70,0,0,-43,-43,-39,-29
-24,-78,-53,51,14,-65,-9,-9,-48,-48,-43,-34
-24,-78,-53,51,14,-65,-9,-9,-48,-48,-39,-29
-29,-78,-48,53,9,-63,0,-9,-43,-43,-34,-29
-34,-78,-43,56,4,-61,0,-14,-43,-43,-39,-29
-39,-78,-39,58,0,-58,4,-19,-43,-43,-39,-34
-39,-78,-39,58,0,-58,4,-24,-43,-43,-39,-34
-43,-82,-39,63,-2,-61,14,-24,-39,-43,-39,-34
-48,-82,-34,65,-7,-58,14,-29,-43,-43,-43,-34
-53,-82,-29,68,-12,-56,19,-29,-39,-39,-39,-34
-53,-82,-29,68,-12,-56,19,-29,-39,-39,-39,-34
-53,-78,-24,65,-14,-51,19,-34,-39,-39,-39,-34
-58,-78,-19,68,-19,-48,29,-34,-34,-34,-29,-24
-53,-78,-24,65,-14,-51,29,-39,-39,-39,-34,-29
-53,-73,-19,63,-17,-46,39,-39,-34,-34,-29,-24
-53,-73,-19,63,-17,-46,48,-34,-34,-34,-29,-24
-48,-73,-24,61,-12,-48,58,-39,-34,-34,-29,-19
-48,-73,-24,61,-12,-48,68,-39,-29,-39,-34,-24
-58,-73,-14,65,-21,-43,73,-43,-29,-34,-29,-24
-58,-63,-4,61,-26,-34,78,-43,-19,-29,-24,-14
-63,-58,4,61,-34,-26,78,-39,-9,-19,-14,-9
-63,-53,9,58,-36,-21,73,-43,-9,-14,-14,-9
-63,-43,19,53,-41,-12,68,-43,0,-9,-9,0
-58,-39,19,48,-39,-9,58,-39,0,-9,-9,0
-48,-34,14,41,-31,-9,43,-34,0,-9,-9,0
-34,-29,4,31,-19,-12,39,-24,-9,-9,-14,-9
-29,-29,0,29,-14,-14,34,-19,-9,-14,-14,-9
-19,-19,0,19,-9,-9,29,-9,-9,-9,-9,-9
0,-14,-14,7,7,-14,24,4,0,-9,0,0
4,-9,-14,2,9,-12,24,9,0,0,0,4
4,4,0,-4,2,2,19,9,0,0,0,4
9,9,0,-9,4,4,14,14,4,4,4,9
9,14,4,-12,2,9,4,14,4,9,9,9
14,19,4,-17,4,12,-9,14,9,14,9,19
14,24,9,-19,2,17,-24,4,9,9,9,19
19,29,9,-24,4,19,-34,0,9,14,19,24
24,29,4,-26,9,17,-43,-9,4,14,19,24
34,29,-4,-31,19,12,-48,-9,4,14,19,29
34,29,-4,-31,19,12,-53,-9,0,9,19,29
34,24,-9,-29,21,7,-53,-14,-14,4,14,24
34,14,-19,-24,26,-2,-48,-14,-14,0,14,24
39,9,-29,-24,34,-9,-48,-14,-24,-9,4,19
39,9,-29,-24,34,-9,-43,-19,-24,-14,4,19
34,9,-24,-21,29,-7,-39,-19,-29,-14,4,19
24,4,-19,-14,21,-7,-34,-24,-29,-14,4,19
14,4,-9,-9,12,-2,-24,-24,-29,-9,9,24
9,4,-4,-7,7,0,-24,-24,-24,-9,9,29
4,4,0,-4,2,2,-24,-29,-24,-9,14,29
0,4,4,-2,-2,4,-24,-24,-19,0,19,29
0,4,4,-2,-2,4,-24,-29,-14,0,19,29
4,9,4,-7,0,7,-29,-29,-14,0,14,29
9,9,0,-9,4,4,-29,-24,-14,0,14,29
9,4,-4,-7,7,0,-29,-29,-19,-9,9,24
4,-9,-14,2,9,-12,-24,-29,-24,-14,4,19
0,-19,-19,9,9,-19,-19,-29,-24,-14,0,14
-14,-24,-9,19,-2,-17,-14,-29,-29,-19,0,14
-24,-34,-9,29,-7,-21,-9,-34,-34,-24,-9,9
-34,-48,-14,41,-9,-31,4,-39,-34,-24,-9,9
-48,-58,-9,53,-19,-34,9,-39,-34,-29,-14,4
-53,-68,-14,61,-19,-41,14,-43,-39,-34,-19,0
-58,-82,-24,70,-17,-53,14,-43,-43,-39,-24,-14
-58,-92,-34,75,-12,-63,14,-39,-53,-48,-34,-24
-53,-102,-48,78,-2,-75,9,-39,-63,-58,-43,-34
-43,-107,-63,75,9,-85,9,-34,-63,-63,-48,-39
-34,-107,-73,70,19,-90,4,-29,-68,-68,-53,-43
-34,-107,-73,70,19,-90,4,-29,-68,-73,-58,-48
-39,-107,-68,73,14,-87,0,-34,-73,-73,-58,-48
-43,-107,-63,75,9,-85,0,-39,-68,-68,-53,-43
-53,-107,-53,80,0,-80,0,-43,-68,-63,-53,-48
-58,-112,-53,85,-2,-82,0,-39,-63,-63,-53,-43
-58,-112,-53,85,-2,-82,0,-43,-68,-63,-53,-48
-58,-112,-53,85,-2,-82,4,-39,-68,-63,-53,-43
-58,-112,-53,85,-2,-82,9,-39,-68,-63,-53,-43
-58,-112,-53,85,-2,-82,19,-39,-73,-68,-53,-48
-58,-117,-58,87,0,-87,24,-39,-73,-73,-58,-53
-63,-122,-58,92,-2,-90,29,-39,-73,-68,-58,-48
-68,-122,-53,95,-7,-87,24,-39,-78,-73,-63,-53
-73,-126,-53,100,-9,-90,29,-29,-73,-68,-58,-48
-68,-122,-53,95,-7,-87,24,-24,-73,-68,-58,-53
-58,-117,-58,87,0,-87,14,-19,-73,-68,-58,-53
-53,-112,-58,82,2,-85,9,-9,-68,-63,-53,-48
-43,-112,-68,78,12,-90,4,-9,-68,-63,-53,-48
-39,-107,-68,73,14,-87,-9,-19,-73,-63,-58,-53
-39,-107,-68,73,14,-87,-9,-24,-73,-68,-58,-53
-43,-107,-63,75,9,-85,-9,-24,-73,-63,-53,-48
-43,-107,-63,75,9,-85,-9,-29,-73,-63,-58,-53
-43,-107,-63,75,9,-85,0,-29,-73,-63,-58,-48
-43,-102,-58,73,7,-80,-9,-34,-73,-63,-58,-48
-39,-97,-58,68,9,-78,0,-24,-68,-58,-48,-43
-29,-92,-63,61,17,-78,0,-19,-63,-58,-48,-39
-24,-87,-63,56,19,-75,-9,-14,-63,-58,-48,-39
-19,-82,-63,51,21,-73,-19,-14,-63,-58,-48,-39
-14,-78,-63,46,24,-70,-19,-9,-58,-58,-48,-39
-14,-82,-68,48,26,-75,-19,-14,-63,-63,-53,-43
-24,-92,-68,58,21,-80,-19,-14,-68,-68,-58,-43
-34,-102,-68,68,17,-85,0,-14,-68,-68,-58,-48
-48,-117,-68,82,9,-92,9,-19,-73,-73,-68,-53
-68,-141,-73,104,2,-107,24,-24,-82,-82,-73,-63
-82,-165,-82,124,0,-124,43,-29,-92,-97,-87,-82
-102,-190,-87,146,-7,-139,68,-34,-97,-112,-102,-97
-126,-219,-92,173,-17,-156,97,-34,-97,-117,-117,-112
-146,-244,-97,195,-24,-170,122,-34,-97,-131,-131,-131
-165,-263,-97,214,-34,-180,141,-34,-97,-141,-151,-151
-185,-273,-87,229,-48,-180,161,-29,-87,-146,-161,-165
-209,-273,-63,241,-73,-168,180,-29,-63,-131,-161,-170
-224,-258,-34,241,-95,-146,190,-29,-34,-117,-156,-165
-224,-229,-4,226,-109,-117,190,-34,0,-97,-141,-161
-219,-185,34,202,-126,-75,185,-34,34,-68,-122,-141
-190,-136,53,163,-122,-41,170,-39,63,-39,-97,-122
-156,-78,78,117,-117,0,141,-43,87,-9,-73,-102
-107,-19,87,63,-97,34,107,-29,107,24,-39,-68
-39,48,87,-4,-63,68,48,-9,117,53,0,-34
48,122,73,-85,-12,97,-24,19,117,87,43,14
146,209,63,-178,41,136,-117,43,112,117,92,68
258,302,43,-280,107,173,-234,68,97,151,146,126
380,414,34,-397,173,224,-366,87,87,195,214,204
512,541,29,-527,241,285,-507,107,82,258,297,297
649,692,43,-671,302,368,-658,122,87,331,395,409
780,863,82,-822,348,473,-805,126,107,424,512,531
902,1058,156,-980,373,607,-956,117,141,527,644,668
1010,1263,253,-1137,378,758,-1098,92,190,649,780,819
1102,1464,361,-1283,370,912,-1229,53,244,761,927,961
1166,1644,478,-1405,344,1061,-1332,9,297,878,1063,1107
1205,1795,590,-1500,307,1193,-1410,-48,346,985,1185,1234
1224,1922,697,-1573,263,1310,-1468,-107,400,1088,1298,1337
1205,2005,800,-1605,202,1403,-1493,-170,448,1166,1381,1424
1166,2044,878,-1605,143,1461,-1493,-229,478,1224,1439,1478
1107,2025,917,-1566,95,1471,-1454,-273,497,1249,1454,1493
