I, II, III, aVR, aVL, aVF, V1, V2, V3, V4, V5, V6
-58,-175,-117,117,29,-146,175,97,-107,-165,-175,-146
-58,-175,-117,117,29,-146,175,97,-107,-165,-175,-146
-58,-175,-117,117,29,-146,175,97,-107,-165,-175,-146
-58,-175,-117,117,29,-146,175,97,-107,-165,-175,-146
-58,-180,-122,119,31,-151,180,97,-112,-170,-185,-146
-58,-185,-126,122,34,-156,185,97,-117,-175,-185,-146
-58,-190,-131,124,36,-161,190,97,-122,-180,-185,-146
-58,-195,-136,126,39,-165,195,97,-126,-185,-185,-146
-58,-204,-146,131,43,-175,204,87,-131,-195,-195,-146
-58,-204,-146,131,43,-175,204,87,-136,-195,-195,-146
-58,-204,-146,131,43,-175,204,87,-141,-195,-195,-146
-58,-204,-146,131,43,-175,204,87,-146,-195,-195,-146
-58,-195,-136,126,39,-165,200,87,-156,-195,-185,-146
-58,-195,-136,126,39,-165,195,87,-156,-195,-185,-146
-58,-195,-136,126,39,-165,190,87,-156,-195,-185,-146
-58,-195,-136,126,39,-165,185,87,-156,-195,-185,-146
-58,-190,-131,124,36,-161,175,82,-156,-185,-175,-136
-58,-185,-126,122,34,-156,165,78,-156,-185,-175,-136
-58,-180,-122,119,31,-151,156,73,-156,-185,-175,-136
-58,-175,-117,117,29,-146,146,68,-156,-185,-175,-136
-58,-165,-107,112,24,-136,136,53,-151,-180,-170,-122
-58,-156,-97,107,19,-126,126,48,-146,-175,-165,-117
-58,-146,-87,102,14,-117,117,43,-141,-170,-161,-112
-58,-136,-78,97,9,-107,107,39,-136,-165,-156,-107
-48,-122,-73,85,12,-97,92,34,-122,-156,-146,-92
-48,-117,-68,82,9,-92,87,29,-117,-146,-136,-87
-48,-112,-63,80,7,-87,82,24,-112,-136,-126,-82
-48,-107,-58,78,4,-82,78,19,-107,-126,-117,-78
-43,-87,-43,65,0,-65,63,14,-97,-117,-107,-63
-39,-78,-39,58,0,-58,58,9,-87,-107,-97,-58
-34,-68,-34,51,0,-51,53,4,-78,-97,-87,-53
-29,-58,-29,43,0,-43,48,0,-68,-87,-78,-48
-19,-43,-24,31,2,-34,34,-4,-53,-78,-63,-43
-19,-39,-19,29,0,-29,29,-9,-48,-68,-58,-39
-19,-34,-14,26,-2,-24,24,-14,-43,-58,-53,-34
-19,-29,-9,24,-4,-19,19,-19,-39,-48,-48,-29
-14,-19,-4,17,-4,-12,14,-19,-34,-43,-34,-24
-9,-9,0,9,-4,-4,9,-19,-29,-39,-29,-19
-4,0,4,2,-4,2,4,-19,-24,-34,-24,-14
0,9,9,-4,-4,9,0,-19,-19,-29,-19,-9
0,9,9,-4,-4,9,-14,-29,-9,-19,-9,0
0,9,9,-4,-4,9,-19,-29,-9,-19,-9,0
0,9,9,-4,-4,9,-24,-29,-9,-19,-9,0
0,9,9,-4,-4,9,-29,-29,-9,-19,-9,0
9,19,9,-14,0,14,-39,-19,0,-14,0,-9
9,19,9,-14,0,14,-39,-19,0,-9,0,-9
9,19,9,-14,0,14,-39,-19,0,-4,0,-9
9,19,9,-14,0,14,-39,-19,0,0,0,-9
19,19,0,-19,9,9,-39,-19,0,0,-9,-9
19,19,0,-19,9,9,-39,-19,0,0,-9,-9
19,19,0,-19,9,9,-39,-19,0,0,-9,-9
19,19,0,-19,9,9,-39,-19,0,0,-9,-9
19,19,0,-19,9,9,-39,-19,0,0,0,-9
19,19,0,-19,9,9,-39,-19,0,0,0,-9
19,19,0,-19,9,9,-39,-19,0,0,0,-9
19,19,0,-19,9,9,-39,-19,0,0,0,-9
19,19,0,-19,9,9,-39,-19,0,0,0,-9
19,19,0,-19,9,9,-39,-19,0,0,0,-9
19,19,0,-19,9,9,-39,-19,0,0,0,-9
19,19,0,-19,9,9,-39,-19,0,0,0,-9
19,19,0,-19,9,9,-39,-19,0,0,0,0
19,19,0,-19,9,9,-39,-19,0,0,0,0
19,19,0,-19,9,9,-39,-19,0,0,0,0
19,19,0,-19,9,9,-39,-19,0,0,0,0
19,19,0,-19,9,9,-39,-19,0,0,0,0
19,19,0,-19,9,9,-39,-19,0,0,0,0
19,19,0,-19,9,9,-39,-19,0,0,0,0
19,19,0,-19,9,9,-39,-19,0,0,0,0
29,19,-9,-24,19,4,-39,-19,0,0,0,0
29,19,-9,-24,19,4,-39,-19,0,0,0,0
29,19,-9,-24,19,4,-39,-19,0,0,0,0
29,19,-9,-24,19,4,-39,-19,0,0,0,0
19,9,-9,-14,14,0,-39,-19,9,0,0,0
19,9,-9,-14,14,0,-39,-19,9,0,0,0
19,9,-9,-14,14,0,-39,-19,9,0,0,0
19,9,-9,-14,14,0,-39,-19,9,0,0,0
19,9,-9,-14,14,0,-39,-19,9,9,0,0
19,9,-9,-14,14,0,-39,-19,9,9,0,0
19,9,-9,-14,14,0,-39,-19,9,9,0,0
19,9,-9,-14,14,0,-39,-19,9,9,0,0
9,19,9,-14,0,14,-48,-19,9,9,0,0
9,19,9,-14,0,14,-48,-19,9,9,0,0
9,19,9,-14,0,14,-48,-19,9,9,0,0
9,19,9,-14,0,14,-48,-19,9,9,0,0
9,19,9,-14,0,14,-39,-19,19,9,0,9
9,19,9,-14,0,14,-39,-19,19,9,0,9
9,19,9,-14,0,14,-39,-19,19,9,0,9
9,19,9,-14,0,14,-39,-19,19,9,0,9
9,29,19,-19,-4,24,-39,-19,19,19,9,9
9,29,19,-19,-4,24,-39,-19,19,19,9,9
9,29,19,-19,-4,24,-39,-19,19,19,9,9
9,29,19,-19,-4,24,-39,-19,19,19,9,9
9,29,19,-19,-4,24,-39,-19,19,19,9,9
9,29,19,-19,-4,24,-39,-19,19,19,9,9
9,29,19,-19,-4,24,-39,-19,19,19,9,9
9,29,19,-19,-4,24,-39,-19,19,19,9,9
9,29,19,-19,-4,24,-39,-19,19,19,9,19
9,29,19,-19,-4,24,-39,-19,19,19,9,19
9,29,19,-19,-4,24,-39,-19,19,19,9,19
9,29,19,-19,-4,24,-39,-19,19,19,9,19
9,29,19,-19,-4,24,-39,-19,19,9,9,9
9,29,19,-19,-4,24,-39,-19,19,9,9,9
9,29,19,-19,-4,24,-39,-19,19,9,9,9
9,29,19,-19,-4,24,-39,-19,19,9,9,9
9,39,29,-24,-9,34,-29,-19,19,9,9,9
9,39,29,-24,-9,34,-29,-19,19,9,9,9
9,39,29,-24,-9,34,-29,-19,19,9,9,9
9,39,29,-24,-9,34,-29,-19,19,9,9,9
0,29,29,-14,-14,29,-29,-19,19,9,19,9
0,29,29,-14,-14,29,-29,-19,19,9,19,9
0,29,29,-14,-14,29,-29,-19,19,9,19,9
0,29,29,-14,-14,29,-29,-19,19,9,19,9
0,24,24,-12,-12,24,-19,-9,19,9,9,9
0,19,19,-9,-9,19,-19,-9,19,9,9,9
0,14,14,-7,-7,14,-19,-9,19,9,9,9
0,9,9,-4,-4,9,-19,-9,19,9,9,9
0,0,0,0,0,0,-19,0,19,9,19,9
0,0,0,0,0,0,-19,0,19,9,19,9
0,0,0,0,0,0,-19,0,19,9,19,9
0,0,0,0,0,0,-19,0,19,9,19,9
0,0,0,0,0,0,-29,0,19,9,9,0
0,0,0,0,0,0,-29,0,19,9,9,0
0,0,0,0,0,0,-29,0,19,9,9,0
0,0,0,0,0,0,-29,0,19,9,9,0
0,0,0,0,0,0,-39,-9,9,9,9,0
0,0,0,0,0,0,-39,-9,9,9,9,0
0,0,0,0,0,0,-39,-9,9,9,9,0
0,0,0,0,0,0,-39,-9,9,9,9,0
0,0,0,0,0,0,-29,-9,9,9,9,0
0,0,0,0,0,0,-29,-9,9,9,9,0
0,0,0,0,0,0,-29,-9,9,9,9,0
0,0,0,0,0,0,-29,-9,9,9,9,0
-4,-9,-4,7,0,-7,-29,0,9,9,9,0
-9,-9,0,9,-4,-4,-29,0,9,9,9,0
-14,-9,4,12,-9,-2,-29,0,9,9,9,0
-19,-9,9,14,-14,0,-29,0,9,9,9,0
-19,-14,4,17,-12,-4,-19,0,19,9,0,0
-19,-19,0,19,-9,-9,-19,0,19,9,0,0
-19,-24,-4,21,-7,-14,-19,0,19,9,0,0
-19,-29,-9,24,-4,-19,-19,0,19,9,0,0
-19,-39,-19,29,0,-29,-19,0,19,9,0,0
-19,-39,-19,29,0,-29,-19,0,19,9,0,0
-19,-39,-19,29,0,-29,-19,0,19,9,0,0
-19,-39,-19,29,0,-29,-19,0,19,9,0,0
-19,-48,-29,34,4,-39,-29,0,19,9,0,0
-19,-48,-29,34,4,-39,-29,0,19,9,0,0
-19,-48,-29,34,4,-39,-29,0,19,9,0,0
-19,-48,-29,34,4,-39,-29,0,19,9,0,0
-9,-48,-39,29,14,-43,-29,9,9,9,9,0
-9,-48,-39,29,14,-43,-29,9,9,9,9,0
-9,-48,-39,29,14,-43,-29,9,9,9,9,0
-9,-48,-39,29,14,-43,-29,9,9,9,9,0
-9,-39,-29,24,9,-34,-29,0,9,9,9,0
-9,-39,-29,24,9,-34,-29,0,9,9,9,0
-9,-39,-29,24,9,-34,-29,0,9,9,9,0
-9,-39,-29,24,9,-34,-29,0,9,9,9,0
-19,-39,-19,29,0,-29,-29,0,9,9,9,0
-19,-39,-19,29,0,-29,-29,0,9,9,9,0
-19,-39,-19,29,0,-29,-29,0,9,9,9,0
-19,-39,-19,29,0,-29,-29,0,9,9,9,0
-19,-29,-9,24,-4,-19,-19,0,9,9,0,0
-19,-29,-9,24,-4,-19,-19,0,9,9,0,0
-19,-29,-9,24,-4,-19,-19,0,9,9,0,0
-19,-29,-9,24,-4,-19,-19,0,9,9,0,0
-19,-29,-9,24,-4,-19,-19,0,0,9,0,0
-19,-29,-9,24,-4,-19,-19,0,0,9,0,0
-19,-29,-9,24,-4,-19,-19,0,0,9,0,0
-19,-29,-9,24,-4,-19,-19,0,0,9,0,0
-19,-29,-9,24,-4,-19,-29,0,0,9,0,0
-19,-29,-9,24,-4,-19,-29,0,0,9,0,0
-19,-29,-9,24,-4,-19,-29,0,0,9,0,0
-19,-29,-9,24,-4,-19,-29,0,0,9,0,0
-19,-39,-19,29,0,-29,-29,0,0,9,9,0
-19,-39,-19,29,0,-29,-29,0,0,9,9,0
-19,-39,-19,29,0,-29,-29,0,0,9,9,0
-19,-39,-19,29,0,-29,-29,0,0,9,9,0
-9,-29,-19,19,4,-24,-39,0,0,9,9,0
-9,-29,-19,19,4,-24,-39,0,0,9,9,0
-9,-29,-19,19,4,-24,-39,0,0,9,9,0
-9,-29,-19,19,4,-24,-39,0,0,9,9,0
0,-29,-29,14,14,-29,-39,0,-9,9,9,0
0,-29,-29,14,14,-29,-39,0,-9,9,9,0
0,-29,-29,14,14,-29,-39,0,-9,9,9,0
0,-29,-29,14,14,-29,-39,0,-9,9,9,0
0,-29,-29,14,14,-29,-39,0,-19,0,0,-9
0,-29,-29,14,14,-29,-39,0,-19,0,0,-9
0,-29,-29,14,14,-29,-39,0,-19,0,0,-9
0,-29,-29,14,14,-29,-39,0,-19,0,0,-9
0,-29,-29,14,14,-29,-39,0,-19,-9,0,-9
0,-29,-29,14,14,-29,-39,0,-19,-9,0,-9
0,-29,-29,14,14,-29,-39,0,-19,-9,0,-9
0,-29,-29,14,14,-29,-39,0,-19,-9,0,-9
0,-29,-29,14,14,-29,-39,0,-19,-19,-9,-9
0,-29,-29,14,14,-29,-39,0,-19,-19,-9,-9
0,-29,-29,14,14,-29,-39,0,-19,-19,-9,-9
0,-29,-29,14,14,-29,-39,0,-19,-19,-9,-9
0,-29,-29,14,14,-29,-39,0,-19,-19,-9,-9
0,-29,-29,14,14,-29,-39,0,-19,-19,-9,-9
0,-29,-29,14,14,-29,-39,0,-19,-19,-9,-9
0,-29,-29,14,14,-29,-39,0,-19,-19,-9,-9
0,-29,-29,14,14,-29,-39,0,-9,-19,-9,-9
0,-29,-29,14,14,-29,-39,0,-9,-19,-9,-9
0,-29,-29,14,14,-29,-39,0,-9,-19,-9,-9
0,-29,-29,14,14,-29,-39,0,-9,-19,-9,-9
0,-19,-19,9,9,-19,-48,0,0,-9,0,-19
0,-19,-19,9,9,-19,-48,0,0,-9,0,-19
0,-19,-19,9,9,-19,-48,0,0,-9,0,-19
0,-19,-19,9,9,-19,-48,0,0,-9,0,-19
0,-29,-29,14,14,-29,-48,0,0,-9,0,-19
0,-29,-29,14,14,-29,-48,0,0,-9,0,-19
0,-29,-29,14,14,-29,-48,0,0,-9,0,-19
0,-29,-29,14,14,-29,-48,0,0,-9,0,-19
0,-29,-29,14,14,-29,-39,0,0,0,0,-9
0,-29,-29,14,14,-29,-39,0,0,0,0,-9
0,-29,-29,14,14,-29,-39,0,0,0,0,-9
0,-29,-29,14,14,-29,-39,0,0,0,0,-9
0,-19,-19,9,9,-19,-39,0,0,0,0,0
0,-19,-19,9,9,-19,-39,0,0,0,0,0
0,-19,-19,9,9,-19,-39,0,0,0,0,0
0,-19,-19,9,9,-19,-39,0,0,0,0,0
0,-9,-9,4,4,-9,-48,-4,0,0,0,0
0,-9,-9,4,4,-9,-48,-9,0,0,0,0
0,-9,-9,4,4,-9,-48,-14,0,0,0,0
0,-9,-9,4,4,-9,-48,-19,0,0,0,0
0,0,0,0,0,0,-48,-19,0,0,0,0
0,0,0,0,0,0,-48,-19,0,0,0,0
0,0,0,0,0,0,-48,-19,0,0,0,0
0,0,0,0,0,0,-48,-19,0,0,0,0
0,-9,-9,4,4,-9,-39,-9,0,-9,0,0
0,-9,-9,4,4,-9,-39,-9,0,-9,0,0
0,-9,-9,4,4,-9,-39,-9,0,-9,0,0
0,-9,-9,4,4,-9,-39,-9,0,-9,0,0
0,-19,-19,9,9,-19,-39,0,0,-9,0,0
0,-19,-19,9,9,-19,-39,0,0,-9,0,0
0,-19,-19,9,9,-19,-39,0,0,-9,0,0
0,-19,-19,9,9,-19,-39,0,0,-9,0,0
0,-19,-19,9,9,-19,-39,0,0,0,0,0
0,-19,-19,9,9,-19,-39,0,0,0,0,0
0,-19,-19,9,9,-19,-39,0,0,0,0,0
0,-19,-19,9,9,-19,-39,0,0,0,0,0
-9,-19,-9,14,0,-14,-39,-9,0,0,0,0
-9,-19,-9,14,0,-14,-39,-9,0,0,0,0
-9,-19,-9,14,0,-14,-39,-9,0,0,0,0
-9,-19,-9,14,0,-14,-39,-9,0,0,0,0
-19,-19,0,19,-9,-9,-29,-19,0,0,0,-9
-19,-19,0,19,-9,-9,-29,-19,0,0,0,-9
-19,-19,0,19,-9,-9,-29,-19,0,0,0,-9
-19,-19,0,19,-9,-9,-29,-19,0,0,0,-9
-19,-19,0,19,-9,-9,-19,-14,0,0,0,-9
-19,-19,0,19,-9,-9,-19,-9,0,0,0,-9
-19,-19,0,19,-9,-9,-19,-4,0,0,0,-9
-19,-19,0,19,-9,-9,-19,0,0,0,0,-9
-19,-19,0,19,-9,-9,-29,0,0,-9,0,0
-19,-19,0,19,-9,-9,-29,0,0,-9,0,0
-19,-19,0,19,-9,-9,-29,0,0,-9,0,0
-19,-19,0,19,-9,-9,-29,0,0,-9,0,0
-9,-19,-9,14,0,-14,-39,0,0,-9,0,0
-9,-19,-9,14,0,-14,-39,0,0,-9,0,0
-9,-19,-9,14,0,-14,-39,0,0,-9,0,0
-9,-19,-9,14,0,-14,-39,0,0,-9,0,0
-19,-19,0,19,-9,-9,-48,0,-9,0,0,-9
-19,-19,0,19,-9,-9,-48,0,-9,0,0,-9
-19,-19,0,19,-9,-9,-48,0,-9,0,0,-9
-19,-19,0,19,-9,-9,-48,0,-9,0,0,-9
-19,-29,-9,24,-4,-19,-48,0,-9,0,-9,-9
-19,-29,-9,24,-4,-19,-48,0,-9,0,-9,-9
-19,-29,-9,24,-4,-19,-48,0,-9,0,-9,-9
-19,-29,-9,24,-4,-19,-48,0,-9,0,-9,-9
-9,-19,-9,14,0,-14,-48,0,-9,0,-9,-19
-9,-19,-9,14,0,-14,-48,0,-9,0,-9,-19
-9,-19,-9,14,0,-14,-48,0,-9,0,-9,-19
-9,-19,-9,14,0,-14,-48,0,-9,0,-9,-19
-9,-29,-19,19,4,-24,-39,0,-9,-9,-9,-19
-9,-29,-19,19,4,-24,-39,0,-9,-9,-9,-19
-9,-29,-19,19,4,-24,-39,0,-9,-9,-9,-19
-9,-29,-19,19,4,-24,-39,0,-9,-9,-9,-19
-9,-39,-29,24,9,-34,-39,0,-19,-9,0,-14
-9,-39,-29,24,9,-34,-39,0,-19,-9,0,-9
-9,-39,-29,24,9,-34,-39,0,-19,-9,0,-4
-9,-39,-29,24,9,-34,-39,0,-19,-9,0,0
-9,-39,-29,24,9,-34,-29,0,-19,-19,0,-9
-9,-39,-29,24,9,-34,-29,0,-19,-19,0,-9
-9,-39,-29,24,9,-34,-29,0,-19,-19,0,-9
-9,-39,-29,24,9,-34,-29,0,-19,-19,0,-9
0,-29,-29,14,14,-29,-29,0,-19,-19,-9,-19
0,-29,-29,14,14,-29,-29,0,-19,-19,-9,-19
0,-19,-19,9,9,-19,-29,0,-19,-14,-4,-14
0,-19,-19,9,9,-19,-24,0,-14,-14,0,-14
0,-24,-24,12,12,-24,-24,9,-19,-14,-9,-24
0,-24,-24,12,12,-24,-24,4,-14,-9,-4,-24
0,-19,-19,9,9,-19,-24,4,-14,0,-4,-19
0,-19,-19,9,9,-19,-14,4,-4,0,4,-19
0,-19,-19,9,9,-19,-14,14,-4,-9,-4,-19
4,-14,-19,4,12,-17,-14,19,0,-9,-4,-14
4,-9,-14,2,9,-12,-9,19,0,0,0,-14
4,-4,-9,0,7,-7,-9,19,0,0,4,-9
4,-9,-14,2,9,-12,0,24,0,4,-4,-9
4,-9,-14,2,9,-12,0,24,4,4,4,-4
9,-9,-19,0,14,-14,0,19,9,4,4,-4
9,-9,-19,0,14,-14,0,19,9,9,4,-4
4,-4,-9,0,7,-7,4,19,9,9,14,-4
9,0,-9,-4,9,-4,0,24,9,9,14,-4
14,0,-14,-7,14,-7,4,24,14,14,14,0
19,0,-19,-9,19,-9,4,24,14,14,19,0
9,0,-9,-4,9,-4,4,24,24,14,19,0
14,4,-9,-9,12,-2,4,24,24,14,19,4
19,4,-14,-12,17,-4,0,24,24,14,19,4
19,9,-9,-14,14,0,-4,24,19,14,19,4
29,9,-19,-19,24,-4,0,24,14,14,19,14
29,9,-19,-19,24,-4,-4,24,14,9,19,14
29,9,-19,-19,24,-4,-9,24,9,9,19,14
29,9,-19,-19,24,-4,-19,24,4,4,14,14
34,9,-24,-21,29,-7,-29,24,-9,-4,4,4
34,4,-29,-19,31,-12,-39,24,-19,-9,0,4
34,0,-34,-17,34,-17,-43,24,-24,-14,-4,4
34,-4,-39,-14,36,-21,-43,24,-29,-19,-9,0
48,0,-48,-24,48,-24,-48,14,-34,-14,-9,4
48,-4,-53,-21,51,-29,-53,19,-39,-19,-14,0
48,-9,-58,-19,53,-34,-58,19,-43,-24,-19,0
53,-19,-73,-17,63,-46,-63,29,-53,-29,-24,-4
53,-24,-78,-14,65,-51,-73,29,-43,-24,-14,-9
53,-24,-78,-14,65,-51,-73,29,-48,-29,-19,-9
53,-24,-78,-14,65,-51,-78,29,-53,-34,-24,-9
48,-24,-73,-12,61,-48,-82,29,-53,-34,-24,-9
58,-24,-82,-17,70,-53,-78,34,-43,-34,-24,-9
58,-24,-82,-17,70,-53,-78,34,-43,-34,-24,-9
53,-24,-78,-14,65,-51,-78,34,-43,-34,-24,-14
53,-24,-78,-14,65,-51,-68,34,-43,-29,-24,-14
43,-24,-68,-9,56,-46,-68,24,-39,-29,-24,-14
43,-24,-68,-9,56,-46,-68,24,-39,-24,-24,-14
43,-24,-68,-9,56,-46,-68,19,-34,-24,-14,-9
43,-14,-58,-14,51,-36,-68,19,-34,-24,-14,-9
43,-9,-53,-17,48,-31,-63,19,-39,-24,-24,-19
43,-9,-53,-17,48,-31,-63,19,-39,-19,-24,-14
43,-9,-53,-17,48,-31,-63,14,-34,-19,-19,-14
43,-9,-53,-17,48,-31,-63,14,-34,-19,-19,-9
53,0,-53,-26,53,-26,-78,14,-43,-24,-19,-9
53,0,-53,-26,53,-26,-78,14,-43,-24,-19,-9
48,0,-48,-24,48,-24,-78,14,-43,-24,-19,-9
39,0,-39,-19,39,-19,-73,9,-43,-29,-19,-9
43,9,-34,-26,39,-12,-82,9,-48,-29,-19,0
43,0,-43,-21,43,-21,-78,9,-48,-29,-24,-9
43,-4,-48,-19,46,-26,-73,4,-48,-29,-29,-9
39,-14,-53,-12,46,-34,-68,4,-53,-34,-29,-9
43,-14,-58,-14,51,-36,-73,4,-43,-24,-29,-4
39,-14,-53,-12,46,-34,-73,4,-43,-24,-29,-9
34,-19,-53,-7,43,-36,-68,4,-43,-34,-24,-14
29,-29,-58,0,43,-43,-63,4,-48,-39,-24,-19
24,-24,-48,0,36,-36,-58,4,-43,-39,-19,-19
19,-29,-48,4,34,-39,-53,4,-43,-34,-24,-19
9,-34,-43,12,26,-39,-53,4,-39,-34,-24,-19
9,-43,-53,17,31,-48,-53,4,-39,-29,-29,-19
9,-39,-48,14,29,-43,-43,-4,-39,-29,-29,-19
4,-39,-43,17,24,-41,-43,0,-39,-29,-29,-19
-4,-34,-29,19,12,-31,-43,0,-39,-29,-29,-19
-14,-34,-19,24,2,-26,-43,0,-39,-34,-29,-19
-24,-43,-19,34,-2,-31,-34,-9,-29,-24,-29,-19
-24,-43,-19,34,-2,-31,-34,-9,-29,-24,-29,-19
-24,-43,-19,34,-2,-31,-34,-9,-34,-24,-29,-19
-24,-43,-19,34,-2,-31,-34,-14,-34,-24,-29,-19
-24,-43,-19,34,-2,-31,-34,-4,-24,-24,-19,-19
-19,-43,-24,31,2,-34,-34,-4,-24,-24,-19,-19
-19,-39,-19,29,0,-29,-29,-4,-19,-24,-19,-19
-24,-39,-14,31,-4,-26,-29,-4,-19,-19,-19,-19
-14,-48,-34,31,9,-41,-19,4,-14,-19,-19,-9
-14,-39,-24,26,4,-31,-29,-4,-14,-19,-19,-19
-14,-39,-24,26,4,-31,-24,-4,-4,-4,-19,-14
-24,-39,-14,31,-4,-26,-14,-4,0,0,-9,-24
-24,-24,0,24,-12,-12,-9,-4,14,9,-14,-24
-29,-24,4,26,-17,-9,14,-4,19,14,-4,-19
-39,-34,4,36,-21,-14,43,9,39,14,-24,-43
-53,-58,-4,56,-24,-31,87,29,43,4,-34,-58
-82,-87,-4,85,-39,-46,131,39,43,-14,-53,-87
-92,-107,-14,100,-39,-61,175,53,53,-24,-78,-112
-102,-107,-4,104,-48,-56,200,58,68,-29,-78,-122
-102,-92,9,97,-56,-41,219,68,92,4,-68,-122
-97,-78,19,87,-58,-29,234,97,131,29,-58,-126
-82,-48,34,65,-58,-7,248,102,204,78,-24,-117
-78,34,112,21,-95,73,248,78,331,175,39,-82
-73,175,248,-51,-161,212,209,24,512,336,151,-4
-48,390,439,-170,-244,414,141,-53,722,531,322,112
-29,653,683,-312,-356,668,78,-131,980,771,512,248
29,971,941,-500,-456,956,9,-239,1298,1068,741,409
97,1302,1205,-700,-553,1254,-102,-317,1581,1346,980,580
214,1571,1356,-893,-570,1464,-224,-356,1708,1551,1176,741
302,1717,1415,-1010,-556,1566,-283,-346,1698,1605,1283,858
375,1600,1224,-988,-424,1412,-248,-253,1512,1473,1234,868
429,1322,893,-875,-231,1107,-195,-126,1093,1146,1044,785
429,1112,683,-771,-126,897,-248,-126,614,844,888,756
312,1039,727,-675,-207,883,-361,-297,248,678,849,795
151,990,839,-570,-344,915,-463,-497,19,551,814,839
39,878,839,-458,-400,858,-488,-585,-170,414,727,795
-24,707,732,-341,-378,719,-439,-546,-302,273,600,697
-63,561,624,-248,-344,592,-361,-483,-370,141,483,600
-107,429,536,-161,-322,483,-302,-444,-419,53,370,502
-126,258,385,-65,-256,322,-190,-370,-478,-68,239,390
-151,78,229,36,-190,153,-68,-253,-517,-175,97,258
-141,-43,97,92,-119,26,4,-156,-522,-234,4,165
-107,-117,-9,112,-48,-63,4,-68,-517,-263,-48,107
-68,-190,-122,129,26,-156,-9,19,-527,-307,-112,34
-34,-229,-195,131,80,-212,-34,68,-517,-326,-151,-14
-14,-229,-214,122,100,-222,-58,97,-512,-336,-161,-29
0,-224,-224,112,112,-224,-58,107,-468,-322,-165,-48
0,-219,-219,109,109,-219,-48,112,-419,-297,-175,-68
-4,-195,-190,100,92,-192,-24,112,-331,-248,-156,-68
-19,-156,-136,87,58,-146,0,97,-234,-170,-112,-58
-24,-126,-102,75,39,-114,34,87,-156,-122,-82,-58
-24,-122,-97,73,36,-109,48,97,-117,-102,-73,-58
-24,-107,-82,65,29,-95,68,87,-97,-92,-68,-58
-29,-102,-73,65,21,-87,58,73,-97,-92,-63,-53
-29,-82,-53,56,12,-68,53,58,-92,-87,-53,-39
-39,-73,-34,56,-2,-53,53,34,-78,-78,-48,-39
-34,-68,-34,51,0,-51,48,14,-68,-68,-39,-24
-43,-68,-24,56,-9,-46,48,9,-43,-58,-48,-24
-43,-73,-29,58,-7,-51,48,9,-34,-48,-43,-24
-43,-73,-29,58,-7,-51,48,14,-34,-48,-43,-29
-43,-73,-29,58,-7,-51,48,14,-34,-48,-43,-29
-39,-73,-34,56,-2,-53,43,14,-34,-48,-48,-39
-39,-73,-34,56,-2,-53,43,9,-34,-48,-48,-39
-43,-78,-34,61,-4,-56,43,4,-34,-48,-48,-39
-43,-82,-39,63,-2,-61,43,4,-34,-48,-53,-39
-43,-73,-29,58,-7,-51,34,4,-39,-48,-63,-53
-43,-73,-29,58,-7,-51,34,4,-34,-39,-68,-53
-39,-68,-29,53,-4,-48,29,9,-29,-39,-68,-53
-39,-68,-29,53,-4,-48,29,9,-24,-34,-63,-48
-48,-58,-9,53,-19,-34,39,9,-24,-34,-63,-48
-48,-58,-9,53,-19,-34,39,9,-29,-39,-63,-48
-48,-68,-19,58,-14,-43,39,0,-29,-39,-63,-48
-48,-68,-19,58,-14,-43,39,0,-29,-39,-63,-48
-39,-68,-29,53,-4,-48,48,0,-19,-48,-63,-48
-39,-68,-29,53,-4,-48,48,9,-14,-43,-63,-53
-39,-58,-19,48,-9,-39,53,14,-14,-39,-58,-53
-34,-53,-19,43,-7,-36,53,14,-14,-39,-58,-53
-43,-63,-19,53,-12,-41,63,14,-24,-39,-58,-48
-43,-58,-14,51,-14,-36,63,14,-24,-39,-58,-48
-48,-58,-9,53,-19,-34,63,4,-24,-39,-63,-48
-48,-63,-14,56,-17,-39,68,0,-24,-39,-63,-48
-48,-63,-14,56,-17,-39,58,0,-24,-39,-63,-48
-48,-63,-14,56,-17,-39,53,0,-14,-39,-63,-48
-48,-63,-14,56,-17,-39,53,9,-14,-34,-63,-53
-48,-63,-14,56,-17,-39,53,9,-14,-34,-63,-53
-39,-58,-19,48,-9,-39,53,9,-19,-43,-58,-53
-39,-53,-14,46,-12,-34,53,9,-24,-39,-53,-48
-43,-53,-9,48,-17,-31,53,9,-29,-39,-53,-48
-43,-58,-14,51,-14,-36,53,4,-34,-39,-53,-48
-53,-58,-4,56,-24,-31,43,4,-34,-39,-53,-48
-53,-63,-9,58,-21,-36,43,4,-34,-39,-58,-48
-53,-63,-9,58,-21,-36,43,4,-29,-39,-58,-48
-48,-63,-14,56,-17,-39,43,14,-29,-39,-58,-48
-39,-58,-19,48,-9,-39,53,14,-19,-43,-58,-48
-39,-48,-9,43,-14,-29,53,14,-19,-43,-53,-48
-39,-48,-9,43,-14,-29,53,9,-19,-43,-53,-48
-39,-58,-19,48,-9,-39,48,4,-19,-43,-53,-48
-39,-48,-9,43,-14,-29,48,0,-24,-43,-53,-48
-43,-48,-4,46,-19,-26,48,0,-24,-43,-58,-53
-43,-48,-4,46,-19,-26,48,0,-19,-43,-58,-53
-43,-43,0,43,-21,-21,48,9,-19,-43,-58,-53
-43,-53,-9,48,-17,-31,53,24,-19,-43,-58,-53
-39,-48,-9,43,-14,-29,63,24,-19,-43,-58,-48
-39,-48,-9,43,-14,-29,68,24,-24,-43,-58,-48
-39,-48,-9,43,-14,-29,73,19,-24,-43,-58,-48
-39,-53,-14,46,-12,-34,68,14,-24,-43,-68,-48
-43,-58,-14,51,-14,-36,68,14,-24,-43,-68,-48
-43,-58,-14,51,-14,-36,68,14,-24,-48,-68,-48
-39,-58,-19,48,-9,-39,68,24,-19,-48,-68,-53
-39,-68,-29,53,-4,-48,68,19,-19,-39,-58,-53
-39,-63,-24,51,-7,-43,68,19,-19,-39,-58,-53
-39,-63,-24,51,-7,-43,68,19,-19,-39,-58,-53
-39,-63,-24,51,-7,-43,68,19,-24,-39,-58,-53
-39,-68,-29,53,-4,-48,73,19,-14,-39,-58,-53
-39,-68,-29,53,-4,-48,73,19,-14,-39,-58,-53
-39,-68,-29,53,-4,-48,73,24,-14,-39,-58,-53
-39,-68,-29,53,-4,-48,73,24,-9,-39,-58,-53
-34,-68,-34,51,0,-51,73,19,-9,-39,-48,-53
-34,-68,-34,51,0,-51,73,24,-9,-39,-48,-53
-34,-68,-34,51,0,-51,73,24,-9,-39,-48,-53
-34,-68,-34,51,0,-51,73,24,-14,-39,-48,-53
-43,-68,-24,56,-9,-46,63,24,-14,-39,-58,-53
-43,-68,-24,56,-9,-46,63,19,-14,-43,-63,-53
-43,-73,-29,58,-7,-51,63,19,-14,-43,-68,-58
-43,-73,-29,58,-7,-51,63,19,-9,-43,-68,-58
-34,-63,-29,48,-2,-46,73,24,-9,-43,-58,-58
-34,-63,-29,48,-2,-46,73,29,-9,-43,-58,-58
-29,-63,-34,46,2,-48,73,29,-9,-43,-53,-58
-29,-63,-34,46,2,-48,73,29,-14,-43,-53,-58
-39,-63,-24,51,-7,-43,73,29,-14,-48,-58,-58
-43,-68,-24,56,-9,-46,78,29,-14,-48,-58,-58
-43,-68,-24,56,-9,-46,78,29,-19,-53,-63,-58
-43,-73,-29,58,-7,-51,78,29,-19,-53,-63,-63
-34,-63,-29,48,-2,-46,78,29,-14,-53,-63,-63
-34,-58,-24,46,-4,-41,78,39,-14,-53,-63,-63
-34,-58,-24,46,-4,-41,78,39,-14,-53,-63,-63
-29,-53,-24,41,-2,-39,82,39,-14,-53,-63,-63
-29,-63,-34,46,2,-48,73,39,-34,-58,-73,-63
-29,-73,-43,51,7,-58,73,34,-34,-58,-78,-68
-34,-73,-39,53,2,-56,73,34,-34,-58,-78,-68
-34,-78,-43,56,4,-61,78,34,-34,-58,-78,-68
-34,-78,-43,56,4,-61,78,34,-29,-58,-82,-68
-29,-73,-43,51,7,-58,87,43,-29,-58,-82,-68
-29,-73,-43,51,7,-58,87,43,-29,-63,-82,-68
-29,-73,-43,51,7,-58,87,43,-29,-63,-82,-73
-19,-78,-58,48,19,-68,92,53,-24,-63,-73,-73
-29,-78,-48,53,9,-63,92,53,-24,-63,-73,-73
-29,-87,-58,58,14,-73,92,53,-29,-73,-73,-73
-24,-87,-63,56,19,-75,92,53,-29,-73,-82,-78
-24,-97,-73,61,24,-85,97,43,-24,-73,-97,-73
-24,-97,-73,61,24,-85,97,53,-24,-73,-97,-73
-24,-97,-73,61,24,-85,107,58,-24,-73,-97,-73
-24,-97,-73,61,24,-85,112,58,-24,-73,-97,-73
-34,-97,-63,65,14,-80,126,58,-43,-78,-87,-73
-34,-102,-68,68,17,-85,131,58,-48,-87,-97,-73
-34,-102,-68,68,17,-85,131,58,-53,-92,-102,-82
-34,-107,-73,70,19,-90,126,58,-53,-92,-102,-87
-29,-102,-73,65,21,-87,126,58,-53,-92,-112,-97
-29,-102,-73,65,21,-87,126,68,-53,-92,-112,-97
-29,-102,-73,65,21,-87,136,68,-58,-92,-117,-97
-29,-102,-73,65,21,-87,136,68,-58,-102,-117,-102
-39,-102,-63,70,12,-82,136,73,-68,-102,-107,-102
-39,-107,-68,73,14,-87,146,73,-73,-107,-117,-102
-39,-112,-73,75,17,-92,146,73,-73,-112,-122,-112
-39,-117,-78,78,19,-97,146,73,-78,-117,-126,-117
-34,-122,-87,78,26,-104,146,73,-87,-122,-131,-107
-34,-126,-92,80,29,-109,146,82,-87,-126,-131,-112
-34,-126,-92,80,29,-109,146,82,-92,-126,-136,-117
-34,-131,-97,82,31,-114,151,82,-97,-131,-141,-117
-34,-131,-97,82,31,-114,165,82,-102,-146,-151,-126
-43,-136,-92,90,24,-114,165,82,-112,-151,-156,-126
-43,-141,-97,92,26,-119,170,82,-117,-156,-161,-126
-43,-151,-107,97,31,-129,170,82,-122,-161,-161,-136
-43,-165,-122,104,39,-143,170,82,-112,-165,-165,-136
-43,-170,-126,107,41,-148,175,82,-112,-170,-170,-136
-43,-170,-126,107,41,-148,175,87,-117,-170,-170,-136
-43,-180,-136,112,46,-158,180,92,-122,-175,-170,-136
-48,-180,-131,114,41,-156,190,92,-136,-180,-180,-146
-53,-175,-122,114,34,-148,190,87,-141,-180,-180,-146
-58,-175,-117,117,29,-146,190,82,-146,-185,-185,-146
-58,-185,-126,122,34,-156,195,78,-146,-190,-185,-146
-68,-195,-126,131,29,-161,195,78,-146,-190,-190,-141
-68,-190,-122,129,26,-156,195,78,-146,-190,-190,-141
-68,-190,-122,129,26,-156,195,78,-146,-190,-190,-141
-68,-185,-117,126,24,-151,195,78,-146,-190,-190,-141
-58,-195,-136,126,39,-165,185,87,-146,-200,-180,-141
-63,-185,-122,124,29,-153,185,87,-156,-200,-175,-131
-63,-185,-122,124,29,-153,180,78,-156,-200,-175,-131
-63,-185,-122,124,29,-153,175,68,-156,-200,-175,-131
-63,-185,-122,124,29,-153,170,63,-165,-204,-170,-122
-63,-180,-117,122,26,-148,156,58,-161,-200,-165,-117
-63,-170,-107,117,21,-139,146,53,-151,-195,-161,-117
-58,-161,-102,109,21,-131,136,48,-151,-185,-151,-112
-58,-136,-78,97,9,-107,117,43,-146,-180,-141,-102
-58,-126,-68,92,4,-97,107,39,-141,-165,-131,-97
-53,-117,-63,85,4,-90,97,29,-136,-165,-126,-82
-53,-107,-53,80,0,-80,92,19,-131,-151,-112,-73
-48,-87,-39,68,-4,-63,82,9,-126,-141,-107,-73
-43,-68,-24,56,-9,-46,73,9,-112,-131,-102,-63
-43,-63,-19,53,-12,-41,63,4,-102,-122,-87,-58
-34,-53,-19,43,-7,-36,58,0,-92,-112,-78,-53
-24,-34,-9,29,-7,-21,39,-4,-78,-87,-68,-48
-24,-24,0,24,-12,-12,34,-4,-68,-78,-58,-43
-24,-14,9,19,-17,-2,29,-9,-63,-68,-53,-34
-19,-4,14,12,-17,4,14,-14,-58,-68,-48,-24
-19,-14,4,17,-12,-4,14,-19,-43,-53,-43,-9
-14,-4,9,9,-12,2,9,-24,-39,-53,-39,-9
-9,0,9,4,-9,4,4,-24,-29,-39,-34,-4
-9,14,24,-2,-17,19,0,-24,-19,-39,-24,-4
0,14,14,-7,-7,14,-19,-24,-14,-29,-19,0
4,19,14,-12,-4,17,-24,-24,-14,-24,-14,4
4,24,19,-14,-7,21,-29,-24,-14,-24,-14,4
4,24,19,-14,-7,21,-29,-24,-14,-24,-14,4
4,24,19,-14,-7,21,-19,-34,-4,-14,0,14
9,24,14,-17,-2,19,-24,-34,0,-14,0,14
9,24,14,-17,-2,19,-29,-34,0,-9,0,14
9,24,14,-17,-2,19,-34,-34,4,-4,0,14
9,19,9,-14,0,14,-43,-34,4,-4,0,4
9,19,9,-14,0,14,-39,-34,4,-4,4,9
9,19,9,-14,0,14,-39,-34,4,0,4,9
9,19,9,-14,0,14,-39,-29,4,0,4,4
19,9,-9,-14,14,0,-29,-29,4,0,4,4
19,9,-9,-14,14,0,-29,-29,4,-4,4,9
19,9,-9,-14,14,0,-29,-29,4,-4,4,9
19,9,-9,-14,14,0,-34,-29,0,-4,4,9
19,9,-9,-14,14,0,-34,-29,0,-4,0,9
19,9,-9,-14,14,0,-34,-29,0,-4,0,9
19,4,-14,-12,17,-4,-34,-24,0,-4,0,9
19,4,-14,-12,17,-4,-34,-24,0,-4,-4,9
19,14,-4,-17,12,4,-29,-24,0,-4,4,9
19,14,-4,-17,12,4,-29,-19,0,-4,4,9
19,14,-4,-17,12,4,-29,-19,0,-4,4,9
19,9,-9,-14,14,0,-29,-19,0,-4,4,4
19,9,-9,-14,14,0,-29,-19,0,-4,4,4
19,9,-9,-14,14,0,-29,-19,0,-4,4,4
19,9,-9,-14,14,0,-29,-19,0,-4,4,4
19,9,-9,-14,14,0,-29,-19,0,0,4,4
19,0,-19,-9,19,-9,-29,-19,9,0,-4,4
19,0,-19,-9,19,-9,-29,-19,9,0,-4,4
19,0,-19,-9,19,-9,-29,-19,9,0,-4,9
19,0,-19,-9,19,-9,-29,-19,9,0,0,9
19,-9,-29,-4,24,-19,-29,-14,9,4,0,9
19,-9,-29,-4,24,-19,-29,-14,9,4,0,9
19,-9,-29,-4,24,-19,-29,-14,9,9,0,9
19,-9,-29,-4,24,-19,-29,-14,14,9,0,9
9,-9,-19,0,14,-14,-29,-4,14,9,9,9
9,-9,-19,0,14,-14,-29,-4,14,9,9,9
9,-4,-14,-2,12,-9,-24,-4,14,9,9,9
9,-4,-14,-2,12,-9,-24,-4,14,9,9,9
9,4,-4,-7,7,0,-19,-4,14,9,9,9
9,4,-4,-7,7,0,-19,-4,14,9,9,9
9,4,-4,-7,7,0,-19,-4,19,9,9,9
9,4,-4,-7,7,0,-19,-4,19,9,9,9
9,4,-4,-7,7,0,-29,-4,29,9,9,9
9,4,-4,-7,7,0,-29,-4,29,9,9,9
9,9,0,-9,4,4,-29,-4,29,9,9,9
9,9,0,-9,4,4,-29,-4,29,9,9,9
0,9,9,-4,-4,9,-39,-14,29,14,9,9
0,9,9,-4,-4,9,-39,-14,29,14,9,9
0,9,9,-4,-4,9,-39,-14,29,14,9,9
0,9,9,-4,-4,9,-43,-14,34,14,9,9
9,9,0,-9,4,4,-34,-14,24,4,9,9
9,14,4,-12,2,9,-34,-14,29,4,9,9
9,14,4,-12,2,9,-34,-14,29,4,9,9
9,14,4,-12,2,9,-34,-14,29,9,9,9
9,14,4,-12,2,9,-34,-24,19,19,9,9
9,14,4,-12,2,9,-34,-24,19,19,9,9
9,14,4,-12,2,9,-34,-24,19,19,9,9
9,14,4,-12,2,9,-29,-24,24,19,9,9
0,14,14,-7,-7,14,-19,-24,24,19,9,9
0,14,14,-7,-7,14,-19,-24,24,19,9,9
0,14,14,-7,-7,14,-19,-24,24,19,9,9
0,14,14,-7,-7,14,-19,-24,24,19,9,9
0,24,24,-12,-12,24,-19,-24,24,29,19,9
0,24,24,-12,-12,24,-24,-24,24,29,19,9
0,24,24,-12,-12,24,-24,-24,24,29,19,9
-4,24,29,-9,-17,26,-24,-24,24,29,19,9
4,24,19,-14,-7,21,-34,-24,24,29,19,9
4,29,24,-17,-9,26,-34,-24,19,29,19,9
9,29,19,-19,-4,24,-34,-24,19,29,19,9
9,29,19,-19,-4,24,-34,-24,19,29,19,9
0,29,29,-14,-14,29,-43,-34,19,29,19,9
0,29,29,-14,-14,29,-43,-34,19,29,19,9
0,29,29,-14,-14,29,-43,-34,19,24,19,9
0,29,29,-14,-14,29,-39,-34,19,24,19,9
0,29,29,-14,-14,29,-39,-34,19,24,9,9
0,29,29,-14,-14,29,-39,-34,19,24,9,9
0,29,29,-14,-14,29,-39,-34,19,24,9,9
0,29,29,-14,-14,29,-39,-34,19,24,9,9
0,24,24,-12,-12,24,-29,-24,19,14,9,9
0,19,19,-9,-9,19,-29,-24,19,14,9,9
0,14,14,-7,-7,14,-29,-24,19,14,9,9
0,4,4,-2,-2,4,-29,-24,19,14,9,9
0,-4,-4,2,2,-4,-29,-14,9,4,-4,9
0,-4,-4,2,2,-4,-29,-14,9,4,-4,9
0,-4,-4,2,2,-4,-29,-14,9,4,-4,9
0,-4,-4,2,2,-4,-29,-14,9,4,-4,9
0,-9,-9,4,4,-9,-29,-4,9,-4,-14,9
0,-14,-14,7,7,-14,-24,-4,4,-9,-14,9
0,-19,-19,9,9,-19,-24,-4,4,-9,-14,9
0,-24,-24,12,12,-24,-29,-4,4,-9,-14,9
0,-24,-24,12,12,-24,-19,4,4,-9,-4,9
0,-24,-24,12,12,-24,-19,4,4,-9,-4,9
0,-24,-24,12,12,-24,-19,4,4,-9,-4,9
0,-29,-29,14,14,-29,-19,4,4,-9,-4,9
-9,-29,-19,19,4,-24,-19,-4,14,4,0,19
-9,-29,-19,19,4,-24,-19,0,14,4,0,19
-9,-29,-19,19,4,-24,-19,0,14,4,0,19
-14,-29,-14,21,0,-21,-19,0,9,0,0,19
-14,-19,-4,17,-4,-12,-19,0,19,0,9,19
-14,-19,-4,17,-4,-12,-19,0,19,0,9,19
-14,-19,-4,17,-4,-12,-24,0,19,0,9,19
-9,-19,-9,14,0,-14,-24,0,19,4,9,19
0,-9,-9,4,4,-9,-34,0,19,4,19,29
0,-9,-9,4,4,-9,-34,0,19,4,19,29
0,-9,-9,4,4,-9,-34,0,19,4,19,29
0,-14,-14,7,7,-14,-34,0,19,4,19,29
0,-14,-14,7,7,-14,-34,-9,9,14,19,19
0,-14,-14,7,7,-14,-34,-9,9,14,19,19
0,-14,-14,7,7,-14,-34,-9,9,9,19,19
0,-14,-14,7,7,-14,-34,-9,9,9,19,19
-9,-4,4,7,-7,0,-34,-19,9,9,9,19
-9,-4,4,7,-7,0,-34,-19,9,9,9,14
-9,-4,4,7,-7,0,-34,-19,4,9,9,14
-9,-4,4,7,-7,0,-34,-19,4,9,9,14
-19,-4,14,12,-17,4,-34,-19,4,9,4,14
-19,-9,9,14,-14,0,-29,-19,4,9,4,14
-19,-9,9,14,-14,0,-29,-19,4,9,4,14
-19,-9,9,14,-14,0,-29,-19,4,9,4,14
-19,-4,14,12,-17,4,-24,-19,4,4,4,14
-19,-4,14,12,-17,4,-24,-19,4,4,4,14
-19,-4,14,12,-17,4,-24,-19,4,9,4,14
-19,-4,14,12,-17,4,-24,-19,4,9,4,14
-9,-9,0,9,-4,-4,-24,-14,4,4,14,24
-9,-9,0,9,-4,-4,-24,-14,4,4,14,24
-9,-9,0,9,-4,-4,-24,-14,4,4,14,24
-9,-9,0,9,-4,-4,-24,-9,0,4,14,24
0,-9,-9,4,4,-9,-34,0,9,4,4,24
0,-9,-9,4,4,-9,-34,0,9,4,0,24
0,-9,-9,4,4,-9,-34,-4,9,4,0,24
0,-14,-14,7,7,-14,-34,-4,9,0,0,24
-9,-4,4,7,-7,0,-43,-14,0,9,0,14
-9,-4,4,7,-7,0,-43,-14,0,9,0,14
-4,-4,0,4,-2,-2,-43,-14,0,9,0,14
-4,-4,0,4,-2,-2,-43,-19,0,9,0,14
-4,4,9,0,-7,7,-43,-19,0,9,9,4
-4,4,9,0,-7,7,-43,-19,0,9,9,4
-4,4,9,0,-7,7,-43,-19,0,9,9,4
-9,4,14,2,-12,9,-43,-19,0,14,9,4
0,14,14,-7,-7,14,-43,-19,0,14,9,4
0,14,14,-7,-7,14,-43,-19,0,14,9,4
0,14,14,-7,-7,14,-43,-19,0,9,9,4
0,14,14,-7,-7,14,-43,-19,0,9,9,4
-9,9,19,0,-14,14,-43,-19,0,9,9,4
-9,9,19,0,-14,14,-43,-19,0,9,9,4
-9,9,19,0,-14,14,-43,-19,0,14,9,4
-4,9,14,-2,-9,12,-43,-19,0,14,9,4
4,0,-4,-2,4,-2,-43,-19,0,4,9,4
4,0,-4,-2,4,-2,-43,-19,0,4,14,4
4,0,-4,-2,4,-2,-43,-19,0,4,14,4
4,0,-4,-2,4,-2,-43,-19,0,4,14,4
4,9,4,-7,0,7,-43,-9,0,-4,14,9
4,9,4,-7,0,7,-43,-9,0,-4,14,9
4,9,4,-7,0,7,-43,-9,0,-4,14,9
4,9,4,-7,0,7,-43,-9,0,0,14,9
-4,14,19,-4,-12,17,-43,-9,-9,0,14,9
-4,14,19,-4,-12,17,-43,-14,-9,0,14,4
0,14,14,-7,-7,14,-48,-14,-9,0,14,4
0,14,14,-7,-7,14,-48,-14,-9,0,14,4
0,4,4,-2,-2,4,-48,-19,-19,-4,4,4
0,4,4,-2,-2,4,-48,-19,-19,-4,4,4
0,4,4,-2,-2,4,-48,-19,-19,-4,4,4
0,4,4,-2,-2,4,-48,-19,-19,-4,4,4
0,-4,-4,2,2,-4,-39,-19,-19,-14,-9,-4
0,-4,-4,2,2,-4,-39,-19,-19,-14,-9,-4
0,-4,-4,2,2,-4,-39,-19,-19,-14,-9,-4
4,-4,-9,0,7,-7,-39,-19,-24,-14,-9,-4
4,-14,-19,4,12,-17,-29,-9,-14,-24,-19,-14
4,-19,-24,7,14,-21,-34,-9,-14,-29,-19,-14
4,-19,-24,7,14,-21,-34,-9,-14,-29,-19,-14
4,-19,-24,7,14,-21,-34,-9,-14,-29,-19,-14
4,-19,-24,7,14,-21,-34,-19,-14,-29,-9,-4
4,-19,-24,7,14,-21,-34,-19,-14,-29,-9,-4
4,-19,-24,7,14,-21,-34,-19,-14,-29,-9,-4
4,-19,-24,7,14,-21,-34,-19,-14,-29,-9,-4
4,-9,-14,2,9,-12,-43,-19,-14,-19,0,-4
4,-9,-14,2,9,-12,-39,-19,-14,-19,0,-4
4,-9,-14,2,9,-12,-39,-19,-14,-19,0,-4
9,-9,-19,0,14,-14,-43,-19,-14,-19,0,-4
9,0,-9,-4,9,-4,-43,-9,-14,-9,0,-4
0,0,0,0,0,0,-43,-9,-4,-9,0,-4
0,0,0,0,0,0,-39,-9,0,-9,0,0
0,0,0,0,0,0,-39,-9,0,-9,0,0
0,0,0,0,0,0,-39,-9,0,-9,0,0
0,0,0,0,0,0,-39,-9,0,-9,0,0
0,0,0,0,0,0,-39,-9,0,-9,0,0
0,0,0,0,0,0,-39,-9,0,0,0,-9
0,0,0,0,0,0,-39,-9,0,0,0,-9
0,0,0,0,0,0,-39,-9,0,0,0,-9
0,0,0,0,0,0,-39,-9,0,0,0,-9
0,0,0,0,0,0,-39,-19,0,0,0,-19
0,0,0,0,0,0,-39,-19,0,0,0,-19
0,0,0,0,0,0,-39,-19,0,0,0,-19
0,0,0,0,0,0,-39,-19,0,0,0,-19
0,-9,-9,4,4,-9,-39,-19,0,0,-9,-19
0,-9,-9,4,4,-9,-39,-19,0,0,-9,-19
0,-9,-9,4,4,-9,-39,-19,0,0,-9,-19
0,-9,-9,4,4,-9,-39,-19,0,0,-9,-19
0,-19,-19,9,9,-19,-39,-19,-9,-4,-9,-19
0,-19,-19,9,9,-19,-39,-19,-9,-9,-9,-19
0,-19,-19,9,9,-19,-39,-19,-9,-14,-9,-19
0,-19,-19,9,9,-19,-39,-19,-9,-19,-9,-19
0,-19,-19,9,9,-19,-48,-9,-9,-19,-9,-19
0,-19,-19,9,9,-19,-48,-9,-9,-19,-9,-19
0,-19,-19,9,9,-19,-48,-9,-9,-19,-9,-19
0,-19,-19,9,9,-19,-48,-9,-9,-19,-9,-19
9,-4,-14,-2,12,-9,-48,-19,-9,-19,-9,-19
9,0,-9,-4,9,-4,-48,-19,-9,-19,-9,-19
9,4,-4,-7,7,0,-48,-19,-9,-19,-9,-19
9,9,0,-9,4,4,-48,-19,-9,-19,-9,-19
0,19,19,-9,-9,19,-58,-19,-9,-9,0,-19
0,19,19,-9,-9,19,-58,-19,-9,-9,0,-19
0,19,19,-9,-9,19,-58,-19,-9,-9,0,-19
0,19,19,-9,-9,19,-58,-19,-9,-9,0,-19
9,9,0,-9,4,4,-48,-19,-19,-9,-9,-19
9,9,0,-9,4,4,-48,-19,-19,-9,-9,-19
9,9,0,-9,4,4,-48,-19,-19,-9,-9,-19
9,9,0,-9,4,4,-48,-19,-19,-9,-9,-19
9,0,-9,-4,9,-4,-39,-9,-19,-19,-19,-19
9,0,-9,-4,9,-4,-39,-9,-19,-19,-19,-19
9,0,-9,-4,9,-4,-39,-9,-19,-19,-19,-19
9,0,-9,-4,9,-4,-39,-9,-19,-19,-19,-19
9,-4,-14,-2,12,-9,-39,0,-19,-19,-19,-9
9,-9,-19,0,14,-14,-39,0,-19,-19,-19,-9
9,-14,-24,2,17,-19,-39,0,-19,-19,-19,-9
9,-19,-29,4,19,-24,-39,0,-19,-19,-19,-9
9,-9,-19,0,14,-14,-39,0,-9,-19,-19,-19
9,-9,-19,0,14,-14,-39,0,-9,-19,-19,-19
9,-9,-19,0,14,-14,-39,0,-9,-19,-19,-19
9,-9,-19,0,14,-14,-39,0,-9,-19,-19,-19
9,0,-9,-4,9,-4,-48,0,0,-19,-9,-19
9,0,-9,-4,9,-4,-48,0,0,-19,-9,-19
9,0,-9,-4,9,-4,-48,0,0,-19,-9,-19
9,0,-9,-4,9,-4,-48,0,0,-19,-9,-19
0,0,0,0,0,0,-48,0,0,-9,0,-19
0,0,0,0,0,0,-48,0,0,-9,0,-19
0,0,0,0,0,0,-48,0,0,-9,0,-19
0,0,0,0,0,0,-48,0,0,-9,0,-19
0,0,0,0,0,0,-48,0,0,0,0,-19
0,0,0,0,0,0,-48,0,0,0,0,-19
0,0,0,0,0,0,-48,0,0,0,0,-19
0,9,9,-4,-4,9,-48,0,0,4,4,-14
0,0,0,0,0,0,-43,0,-4,-4,0,-24
0,4,4,-2,-2,4,-43,0,0,-4,0,-24
0,4,4,-2,-2,4,-43,-4,4,0,4,-24
0,9,9,-4,-4,9,-43,-4,4,9,4,-19
9,0,-9,-4,9,-4,-24,4,9,4,9,-19
9,0,-9,-4,9,-4,-24,4,4,0,4,-19
14,4,-9,-9,12,-2,-24,9,4,-4,0,-14
14,9,-4,-12,9,2,-19,9,0,0,0,-14
14,9,-4,-12,9,2,-19,19,0,-9,-4,-19
14,4,-9,-9,12,-2,-19,14,0,-4,-4,-19
14,4,-9,-9,12,-2,-19,14,4,-4,4,-14
19,4,-14,-12,17,-4,-19,9,9,-4,4,-14
19,9,-9,-14,14,0,-14,19,9,0,4,-4
24,14,-9,-19,17,2,-9,19,9,0,4,-4
29,19,-9,-24,19,4,-14,24,9,0,4,-4
34,19,-14,-26,24,2,-9,24,14,4,4,0
29,19,-9,-24,19,4,-9,24,24,14,19,9
29,19,-9,-24,19,4,-9,24,24,14,19,9
34,24,-9,-29,21,7,-9,24,24,14,19,14
39,24,-14,-31,26,4,-14,24,24,14,19,14
29,19,-9,-24,19,4,-14,24,19,24,19,14
39,19,-19,-29,29,0,-19,24,14,24,19,14
39,19,-19,-29,29,0,-24,24,14,19,19,14
39,19,-19,-29,29,0,-29,24,9,19,19,14
39,19,-19,-29,29,0,-29,14,-4,14,14,4
43,19,-24,-31,34,-2,-39,14,-9,14,14,4
43,14,-29,-29,36,-7,-48,14,-19,9,9,4
43,9,-34,-26,39,-12,-53,14,-24,4,4,4
43,4,-39,-24,41,-17,-58,14,-29,-9,-9,0
48,0,-48,-24,48,-24,-63,14,-34,-14,-9,-4
48,-4,-53,-21,51,-29,-68,19,-39,-19,-14,-9
48,-9,-58,-19,53,-34,-73,19,-43,-24,-19,-9
63,-9,-73,-26,68,-41,-82,29,-48,-29,-24,-14
63,-19,-82,-21,73,-51,-78,29,-43,-34,-24,-19
63,-24,-87,-19,75,-56,-73,29,-43,-39,-29,-19
63,-29,-92,-17,78,-61,-73,29,-43,-43,-34,-19
58,-24,-82,-17,70,-53,-82,29,-43,-34,-24,-19
58,-24,-82,-17,70,-53,-78,34,-43,-34,-24,-19
58,-24,-82,-17,70,-53,-78,34,-43,-34,-24,-19
53,-24,-78,-14,65,-51,-78,34,-43,-34,-24,-24
53,-24,-78,-14,65,-51,-78,24,-43,-29,-24,-14
53,-24,-78,-14,65,-51,-78,24,-39,-29,-24,-14
53,-24,-78,-14,65,-51,-78,24,-39,-24,-24,-14
53,-24,-78,-14,65,-51,-78,19,-34,-24,-14,-9
43,-24,-68,-9,56,-46,-68,19,-34,-24,-14,-19
43,-19,-63,-12,53,-41,-63,19,-29,-24,-14,-19
43,-19,-63,-12,53,-41,-63,19,-29,-19,-14,-14
43,-19,-63,-12,53,-41,-63,14,-24,-19,-9,-14
53,-19,-73,-17,63,-46,-63,24,-34,-29,-19,-19
53,-19,-73,-17,63,-46,-68,24,-34,-24,-19,-19
53,-19,-73,-17,63,-46,-68,24,-34,-24,-19,-19
48,-19,-68,-14,58,-43,-68,24,-34,-24,-19,-19
48,-19,-68,-14,58,-43,-63,29,-43,-29,-19,-9
48,-19,-68,-14,58,-43,-63,29,-48,-29,-19,-9
43,-29,-73,-7,58,-51,-58,29,-48,-29,-24,-19
39,-34,-73,-2,56,-53,-53,24,-48,-29,-29,-19
34,-39,-73,2,53,-56,-58,24,-43,-34,-19,-9
34,-43,-78,4,56,-61,-53,24,-43,-34,-24,-14
34,-39,-73,2,53,-56,-53,24,-43,-34,-29,-19
34,-39,-73,2,53,-56,-48,24,-43,-43,-29,-24
29,-39,-68,4,48,-53,-53,24,-39,-43,-24,-19
24,-43,-68,9,46,-56,-48,24,-39,-43,-29,-24
19,-48,-68,14,43,-58,-43,24,-43,-39,-34,-29
9,-53,-63,21,36,-58,-43,24,-43,-39,-34,-34
4,-53,-58,24,31,-56,-34,14,-43,-29,-29,-29
4,-58,-63,26,34,-61,-34,14,-39,-29,-29,-29
0,-58,-58,29,29,-58,-34,19,-34,-29,-29,-29
-9,-53,-43,31,17,-48,-34,19,-29,-29,-29,-29
-24,-63,-39,43,7,-51,-24,9,-19,-34,-39,-39
-24,-63,-39,43,7,-51,-24,9,-19,-34,-39,-39
-24,-63,-39,43,7,-51,-24,9,-19,-34,-39,-39
-24,-63,-39,43,7,-51,-24,9,-24,-34,-39,-39
-34,-68,-34,51,0,-51,-24,4,-34,-34,-39,-39
-34,-73,-39,53,2,-56,-24,4,-34,-34,-39,-39
-29,-78,-48,53,9,-63,-24,4,-34,-34,-39,-39
-29,-78,-48,53,9,-63,-19,4,-29,-34,-39,-39
-24,-78,-53,51,14,-65,-19,4,-29,-29,-39,-39
-24,-78,-53,51,14,-65,-19,4,-24,-29,-39,-39
-24,-78,-53,51,14,-65,-19,4,-24,-29,-39,-39
-24,-78,-53,51,14,-65,-14,4,-14,-24,-39,-34
-24,-68,-43,46,9,-56,4,4,0,-19,-29,-34
-24,-73,-48,48,12,-61,9,4,14,-19,-24,-34
-29,-63,-34,46,2,-48,24,14,29,4,-14,-29
-39,-63,-24,51,-7,-43,63,29,48,4,-24,-43
-63,-87,-24,75,-19,-56,107,48,63,14,-34,-58
-82,-107,-24,95,-29,-65,151,58,82,4,-53,-78
-92,-117,-24,104,-34,-70,185,73,92,4,-58,-92
-102,-107,-4,104,-48,-56,209,78,126,19,-48,-102
-92,-82,9,87,-51,-36,229,87,161,53,-29,-92
-68,-48,19,58,-43,-14,234,107,219,97,0,-78
-53,9,63,21,-58,36,229,112,292,156,43,-68
-39,102,141,-31,-90,122,219,87,419,263,117,-14
-24,263,287,-119,-156,275,180,43,580,414,239,63
0,458,458,-229,-229,458,122,-34,771,590,380,170
39,702,663,-370,-312,683,58,-112,990,819,570,307
78,1010,932,-544,-427,971,-29,-209,1288,1088,790,468
136,1332,1195,-734,-529,1263,-131,-297,1551,1356,1029,639
234,1590,1356,-912,-561,1473,-253,-346,1678,1542,1215,790
322,1708,1385,-1015,-531,1546,-302,-336,1659,1586,1312,897
375,1581,1205,-978,-414,1393,-248,-234,1464,1444,1244,888
429,1263,834,-846,-202,1049,-185,-97,1034,1098,1034,795
419,1005,585,-712,-82,795,-219,-87,536,766,849,746
302,912,610,-607,-153,761,-322,-248,151,570,780,766
131,844,712,-488,-290,778,-405,-439,-78,453,736,790
9,712,702,-361,-346,707,-419,-517,-248,307,639,746
-63,541,605,-239,-334,573,-361,-488,-361,175,512,649
-102,395,497,-146,-300,446,-283,-434,-400,63,395,551
-126,273,400,-73,-263,336,-224,-385,-439,-24,292,453
-156,112,268,21,-212,190,-112,-302,-468,-136,151,322
-161,-78,82,119,-122,2,9,-185,-507,-244,19,180
-151,-190,-39,170,-56,-114,63,-97,-512,-292,-82,97
-117,-253,-136,185,9,-195,63,0,-507,-322,-126,39
-78,-307,-229,192,75,-268,48,78,-517,-346,-170,-14
-43,-336,-292,190,124,-314,34,126,-507,-366,-209,-53
-24,-326,-302,175,139,-314,0,146,-492,-366,-209,-68
-9,-302,-292,156,141,-297,-29,146,-448,-341,-204,-78
-19,-287,-268,153,124,-278,-19,141,-400,-317,-214,-97
-24,-263,-239,143,107,-251,4,141,-322,-268,-185,-97
-29,-214,-185,122,78,-200,29,117,-224,-190,-141,-87
-34,-175,-141,104,53,-158,43,117,-146,-122,-102,-78
-34,-161,-126,97,46,-143,78,117,-107,-102,-92,-68
-34,-146,-112,90,39,-129,87,117,-87,-82,-78,-68
-29,-122,-92,75,31,-107,78,102,-87,-73,-63,-53
-39,-112,-73,75,17,-92,63,87,-73,-78,-53,-39
-39,-92,-53,65,7,-73,53,63,-58,-68,-48,-29
-43,-87,-43,65,0,-65,48,43,-48,-58,-39,-24
-43,-87,-43,65,0,-65,48,39,-24,-39,-39,-19
-43,-92,-48,68,2,-70,48,39,-14,-29,-34,-14
-43,-92,-48,68,2,-70,48,43,-14,-29,-34,-14
-43,-92,-48,68,2,-70,48,43,-14,-29,-34,-9
-39,-82,-43,61,2,-63,63,43,-24,-29,-29,-19
-39,-82,-43,61,2,-63,63,39,-24,-29,-29,-19
-43,-87,-43,65,0,-65,63,34,-24,-29,-29,-19
-43,-92,-48,68,2,-70,63,34,-24,-29,-34,-19
-53,-102,-48,78,-2,-75,53,24,-9,-39,-43,-29
-53,-102,-48,78,-2,-75,53,24,-4,-29,-48,-34
-48,-97,-48,73,0,-73,48,29,0,-29,-48,-39
-48,-97,-48,73,0,-73,48,29,4,-24,-43,-39
-48,-92,-43,70,-2,-68,48,29,-4,-24,-43,-48
-48,-87,-39,68,-4,-63,48,29,-9,-29,-43,-48
-48,-92,-43,70,-2,-68,48,19,-9,-29,-43,-48
-48,-87,-39,68,-4,-63,48,19,-9,-29,-43,-48
-48,-97,-48,73,0,-73,58,9,-9,-29,-43,-48
-48,-97,-48,73,0,-73,58,19,-4,-24,-43,-53
-48,-87,-39,68,-4,-63,63,24,-4,-19,-39,-53
-43,-82,-39,63,-2,-61,63,24,-4,-19,-39,-53
-43,-82,-39,63,-2,-61,63,34,-4,-29,-39,-43
-43,-78,-34,61,-4,-56,63,34,-4,-29,-39,-39
-48,-78,-29,63,-9,-53,63,24,-4,-29,-43,-34
-48,-82,-34,65,-7,-58,68,19,-4,-29,-43,-29
-39,-82,-43,61,2,-63,58,19,-4,-29,-43,-29
-39,-82,-43,61,2,-63,53,19,4,-29,-43,-29
-39,-82,-43,61,2,-63,53,29,4,-24,-43,-34
-39,-82,-43,61,2,-63,53,29,4,-24,-43,-34
-39,-78,-39,58,0,-58,63,19,-4,-29,-48,-34
-39,-73,-34,56,-2,-53,63,19,-4,-29,-43,-29
-43,-73,-29,58,-7,-51,63,19,-4,-34,-43,-29
-43,-78,-34,61,-4,-56,63,14,-4,-39,-43,-29
-43,-78,-34,61,-4,-56,63,14,-14,-39,-43,-39
-43,-82,-39,63,-2,-61,63,14,-14,-39,-48,-39
-43,-82,-39,63,-2,-61,63,14,-9,-39,-48,-39
-39,-82,-43,61,2,-63,63,24,-9,-39,-48,-39
-39,-68,-29,53,-4,-48,63,24,-9,-34,-58,-48
-39,-58,-19,48,-9,-39,63,24,-9,-34,-53,-48
-39,-58,-19,48,-9,-39,63,19,-9,-34,-53,-48
-39,-68,-29,53,-4,-48,58,14,-9,-34,-53,-48
-39,-68,-29,53,-4,-48,48,0,-24,-34,-53,-48
-43,-68,-24,56,-9,-46,48,0,-24,-34,-58,-53
-43,-68,-24,56,-9,-46,48,0,-19,-34,-58,-53
-43,-63,-19,53,-12,-41,48,9,-19,-34,-58,-53
-43,-63,-19,53,-12,-41,48,24,-19,-34,-48,-43
-39,-58,-19,48,-9,-39,53,24,-19,-34,-48,-39
-39,-58,-19,48,-9,-39,53,24,-24,-34,-48,-39
-39,-58,-19,48,-9,-39,53,19,-24,-34,-48,-39
-39,-73,-34,56,-2,-53,48,14,-24,-34,-48,-39
-43,-78,-34,61,-4,-56,48,14,-24,-34,-48,-39
-43,-78,-34,61,-4,-56,48,14,-24,-39,-48,-39
-39,-78,-39,58,0,-58,48,24,-19,-39,-48,-43
-29,-78,-48,53,9,-63,48,19,-19,-29,-39,-34
-29,-73,-43,51,7,-58,48,19,-19,-29,-39,-34
-29,-73,-43,51,7,-58,48,19,-19,-29,-39,-34
-29,-73,-43,51,7,-58,48,19,-24,-29,-39,-34
-29,-78,-48,53,9,-63,53,9,-24,-39,-39,-34
-29,-78,-48,53,9,-63,53,9,-24,-39,-39,-34
-29,-78,-48,53,9,-63,53,14,-24,-39,-39,-34
-29,-78,-48,53,9,-63,53,14,-19,-39,-39,-34
-24,-78,-53,51,14,-65,63,19,-19,-39,-39,-34
-24,-78,-53,51,14,-65,63,24,-19,-39,-39,-34
-24,-78,-53,51,14,-65,63,24,-19,-39,-39,-34
-24,-78,-53,51,14,-65,63,24,-24,-39,-39,-34
-34,-87,-53,61,9,-70,63,24,-34,-39,-39,-34
-34,-87,-53,61,9,-70,63,19,-34,-43,-43,-34
-34,-92,-58,63,12,-75,63,19,-34,-43,-48,-39
-34,-92,-58,63,12,-75,63,19,-29,-43,-48,-39
-34,-92,-58,63,12,-75,63,34,-19,-43,-48,-39
-34,-92,-58,63,12,-75,63,39,-19,-43,-48,-39
-29,-92,-63,61,17,-78,63,39,-19,-43,-43,-39
-29,-92,-63,61,17,-78,63,39,-24,-43,-43,-39
-29,-92,-63,61,17,-78,53,39,-24,-39,-48,-29
-34,-97,-63,65,14,-80,58,39,-24,-39,-48,-29
-34,-97,-63,65,14,-80,58,39,-29,-43,-53,-29
-34,-102,-68,68,17,-85,58,39,-29,-43,-53,-34
-24,-92,-68,58,21,-80,68,39,-24,-43,-53,-43
-24,-87,-63,56,19,-75,68,48,-24,-43,-53,-43
-24,-87,-63,56,19,-75,68,48,-24,-43,-53,-43
-19,-82,-63,51,21,-73,73,48,-24,-43,-53,-43
-19,-92,-73,56,26,-82,82,48,-34,-58,-53,-34
-19,-102,-82,61,31,-92,82,43,-34,-58,-58,-39
-24,-102,-78,63,26,-90,82,43,-34,-58,-58,-39
-24,-107,-82,65,29,-95,87,43,-34,-58,-58,-39
-34,-107,-73,70,19,-90,87,43,-29,-58,-63,-48
-29,-102,-73,65,21,-87,97,53,-29,-58,-63,-48
-29,-102,-73,65,21,-87,97,53,-29,-63,-63,-48
-29,-102,-73,65,21,-87,97,53,-29,-63,-63,-53
-29,-107,-78,68,24,-92,102,53,-43,-63,-73,-53
-39,-107,-68,73,14,-87,102,53,-43,-63,-73,-53
-39,-117,-78,78,19,-97,102,53,-48,-73,-73,-53
-34,-117,-82,75,24,-100,102,53,-48,-73,-82,-58
-34,-117,-82,75,24,-100,107,53,-43,-73,-87,-63
-34,-117,-82,75,24,-100,107,63,-43,-73,-87,-63
-34,-117,-82,75,24,-100,117,68,-43,-73,-87,-63
-34,-117,-82,75,24,-100,122,68,-43,-73,-87,-63
-34,-126,-92,80,29,-109,126,68,-53,-87,-87,-63
-34,-131,-97,82,31,-114,131,68,-58,-97,-97,-63
-34,-131,-97,82,31,-114,131,68,-63,-102,-102,-73
-34,-136,-102,85,34,-119,126,68,-63,-102,-102,-78
-39,-131,-92,85,26,-112,126,78,-63,-102,-112,-87
-39,-131,-92,85,26,-112,126,87,-63,-102,-112,-87
-39,-131,-92,85,26,-112,136,87,-68,-102,-117,-87
-39,-131,-92,85,26,-112,136,87,-68,-112,-117,-92
-39,-141,-102,90,31,-122,136,92,-78,-122,-117,-92
-39,-146,-107,92,34,-126,146,92,-82,-126,-126,-92
-39,-151,-112,95,36,-131,146,92,-82,-131,-131,-102
-39,-156,-117,97,39,-136,146,92,-87,-136,-136,-107
-34,-151,-117,92,41,-134,146,92,-87,-141,-141,-107
-34,-156,-122,95,43,-139,146,102,-87,-146,-141,-112
-34,-156,-122,95,43,-139,146,102,-92,-146,-146,-117
-34,-161,-126,97,46,-143,151,102,-97,-151,-151,-117
-34,-170,-136,102,51,-153,165,102,-92,-156,-151,-117
-43,-175,-131,109,43,-153,165,102,-102,-161,-156,-117
-43,-180,-136,112,46,-158,170,102,-107,-165,-161,-117
-43,-190,-146,117,51,-168,170,102,-112,-170,-161,-126
-43,-185,-141,114,48,-163,170,102,-112,-165,-165,-126
-43,-190,-146,117,51,-168,175,102,-112,-170,-170,-126
-43,-190,-146,117,51,-168,175,107,-117,-170,-170,-126
-43,-200,-156,122,56,-178,180,112,-122,-175,-170,-126
-48,-200,-151,124,51,-175,170,112,-126,-180,-170,-126
-53,-195,-141,124,43,-168,170,107,-131,-180,-170,-126
-58,-195,-136,126,39,-165,170,102,-136,-185,-175,-126
-58,-204,-146,131,43,-175,175,97,-136,-190,-175,-126
-58,-195,-136,126,39,-165,175,87,-146,-190,-180,-131
-58,-190,-131,124,36,-161,175,87,-146,-190,-180,-131
-58,-190,-131,124,36,-161,175,87,-146,-190,-180,-131
-58,-185,-126,122,34,-156,175,87,-146,-190,-180,-131
-58,-185,-126,122,34,-156,156,87,-146,-190,-180,-141
-63,-175,-112,119,24,-143,156,87,-156,-190,-175,-131
-63,-175,-112,119,24,-143,151,78,-156,-190,-175,-131
-63,-175,-112,119,24,-143,146,68,-156,-190,-175,-131
-63,-165,-102,114,19,-134,141,63,-156,-185,-170,-122
-63,-161,-97,112,17,-129,126,58,-151,-180,-165,-117
-63,-151,-87,107,12,-119,117,53,-141,-175,-161,-117
-58,-141,-82,100,12,-112,107,48,-141,-165,-151,-112
-58,-126,-68,92,4,-97,107,43,-136,-161,-141,-102
-58,-117,-58,87,0,-87,97,39,-131,-146,-131,-97
-53,-107,-53,80,0,-80,87,29,-126,-146,-126,-82
-53,-97,-43,75,-4,-70,82,19,-122,-131,-112,-73
-58,-97,-39,78,-9,-68,73,9,-117,-122,-107,-73
-53,-78,-24,65,-14,-51,63,9,-102,-112,-102,-63
-53,-73,-19,63,-17,-46,53,4,-92,-102,-87,-58
-43,-63,-19,53,-12,-41,48,0,-82,-92,-78,-53
-43,-63,-19,53,-12,-41,39,-4,-78,-87,-68,-48
-43,-53,-9,48,-17,-31,34,-4,-68,-78,-58,-43
-43,-43,0,43,-21,-21,29,-9,-63,-68,-53,-34
-39,-34,4,36,-21,-14,14,-14,-58,-68,-48,-24
-39,-29,9,34,-24,-9,14,-19,-43,-53,-43,-29
-34,-14,19,24,-26,2,9,-24,-39,-53,-39,-29
-29,-4,24,17,-26,9,4,-24,-29,-39,-34,-24
-29,14,43,7,-36,29,0,-24,-19,-39,-24,-24
-19,24,43,-2,-31,34,0,-24,-24,-19,-19,-9
-14,29,43,-7,-29,36,-4,-24,-24,-14,-14,-4
-14,34,48,-9,-31,41,-9,-24,-24,-14,-14,-4
-14,34,48,-9,-31,41,-9,-24,-24,-14,-14,-4
-4,34,39,-14,-21,36,-9,-24,-24,-14,-9,-4
0,34,34,-17,-17,34,-14,-24,-19,-14,-9,-4
0,34,34,-17,-17,34,-19,-24,-19,-9,-9,-4
0,34,34,-17,-17,34,-24,-24,-14,-4,-9,-4
0,19,19,-9,-9,19,-34,-34,-14,-14,0,-4
0,19,19,-9,-9,19,-29,-34,-14,-14,4,0
0,19,19,-9,-9,19,-29,-34,-14,-9,4,0
0,19,19,-9,-9,19,-29,-29,-14,-9,4,-4
0,19,19,-9,-9,19,-29,-29,-4,-19,4,-4
0,19,19,-9,-9,19,-29,-29,-4,-24,4,0
0,19,19,-9,-9,19,-29,-29,-4,-24,4,0
0,19,19,-9,-9,19,-34,-29,-9,-24,4,0
-9,19,29,-4,-19,24,-34,-29,0,-14,9,0
-9,19,29,-4,-19,24,-34,-29,0,-14,9,0
-9,14,24,-2,-17,19,-34,-24,0,-14,9,0
-9,14,24,-2,-17,19,-34,-24,0,-14,4,0
0,24,24,-12,-12,24,-39,-34,0,-4,-4,-9
0,24,24,-12,-12,24,-39,-29,0,-4,-4,-9
0,24,24,-12,-12,24,-39,-29,0,-4,-4,-9
0,19,19,-9,-9,19,-39,-29,0,-4,-4,-14
0,29,29,-14,-14,29,-39,-39,-9,-14,-4,-14
0,29,29,-14,-14,29,-39,-39,-9,-14,-4,-14
0,29,29,-14,-14,29,-39,-39,-9,-14,-4,-14
0,29,29,-14,-14,29,-39,-39,-9,-9,-4,-14
-9,29,39,-9,-24,34,-39,-39,-19,-9,-4,-24
-9,29,39,-9,-24,34,-39,-39,-19,-9,-4,-24
-9,29,39,-9,-24,34,-39,-39,-19,-9,-4,-19
-9,29,39,-9,-24,34,-39,-39,-19,-9,0,-19
-9,29,39,-9,-24,34,-39,-34,-19,-14,0,-19
-9,29,39,-9,-24,34,-39,-34,-19,-14,0,-19
-9,29,39,-9,-24,34,-39,-34,-19,-9,0,-19
-9,29,39,-9,-24,34,-39,-34,-14,-9,0,-19
-9,19,29,-4,-19,24,-39,-24,-14,0,0,-14
-9,19,29,-4,-19,24,-39,-24,-14,0,0,-9
-9,24,34,-7,-21,29,-34,-24,-14,0,0,-4
-9,24,34,-7,-21,29,-34,-24,-14,0,0,0
-19,14,34,2,-26,24,-39,-24,-4,0,0,0
-19,14,34,2,-26,24,-39,-24,-4,0,0,0
-19,14,34,2,-26,24,-39,-24,0,0,0,0
-19,14,34,2,-26,24,-39,-24,0,0,0,0
-9,4,14,2,-12,9,-39,-24,0,0,0,0
-9,4,14,2,-12,9,-39,-24,0,0,0,0
-9,9,19,0,-14,14,-39,-24,0,0,0,0
-9,9,19,0,-14,14,-39,-24,0,0,0,0
-19,19,39,0,-29,29,-39,-24,-9,4,9,0
-19,19,39,0,-29,29,-39,-24,-9,4,9,0
-19,19,39,0,-29,29,-39,-24,-9,4,9,0
-19,19,39,0,-29,29,-43,-24,-4,4,9,0
-19,19,39,0,-29,29,-43,-24,-4,-4,0,0
-19,24,43,-2,-31,34,-43,-24,0,-4,0,0
-19,24,43,-2,-31,34,-43,-24,0,-4,0,0
-19,24,43,-2,-31,34,-43,-24,0,0,0,0
-19,14,34,2,-26,24,-34,-24,0,0,9,0
-19,14,34,2,-26,24,-34,-24,0,0,9,0
-19,14,34,2,-26,24,-34,-24,0,0,9,0
-19,14,34,2,-26,24,-29,-24,4,0,9,0
-19,4,24,7,-21,14,-19,-14,14,9,0,9
-19,4,24,7,-21,14,-19,-14,14,9,0,9
-19,4,24,7,-21,14,-19,-14,14,9,0,9
-19,4,24,7,-21,14,-19,-14,14,9,0,9
-19,4,24,7,-21,14,-29,-24,14,9,9,0
-19,4,24,7,-21,14,-34,-24,14,9,9,0
-19,4,24,7,-21,14,-34,-24,14,9,9,0
-24,4,29,9,-26,17,-34,-24,14,9,9,0
-14,9,24,2,-19,17,-39,-34,14,19,9,-9
-14,19,34,-2,-24,26,-43,-34,9,19,9,-9
-9,24,34,-7,-21,29,-48,-34,9,19,9,-9
-9,29,39,-9,-24,34,-53,-34,9,19,9,-9
-9,29,39,-9,-24,34,-43,-34,0,9,4,-19
-9,29,39,-9,-24,34,-43,-34,0,9,0,-19
-9,29,39,-9,-24,34,-43,-34,0,4,-4,-19
-9,29,39,-9,-24,34,-39,-34,0,4,-9,-19
-9,19,29,-4,-19,24,-39,-34,9,4,-9,-19
-9,19,29,-4,-19,24,-39,-34,9,4,-9,-19
-9,19,29,-4,-19,24,-39,-34,9,4,-9,-19
-9,19,29,-4,-19,24,-39,-34,9,4,-9,-19
0,19,19,-9,-9,19,-29,-24,9,4,-9,-9
0,19,19,-9,-9,19,-29,-24,9,4,-9,-9
0,19,19,-9,-9,19,-29,-24,9,4,-9,-9
0,14,14,-7,-7,14,-29,-24,9,4,-9,-9
0,24,24,-12,-12,24,-29,-24,9,4,-4,-9
0,24,24,-12,-12,24,-29,-24,9,4,-4,-9
0,24,24,-12,-12,24,-29,-24,9,4,-4,-9
0,24,24,-12,-12,24,-29,-24,9,4,-4,-9
0,24,24,-12,-12,24,-29,-24,9,4,4,-9
0,24,24,-12,-12,24,-24,-24,4,0,4,-9
0,24,24,-12,-12,24,-24,-24,4,0,4,-9
0,24,24,-12,-12,24,-29,-24,4,0,4,-9
0,34,34,-17,-17,34,-39,-24,4,9,4,-9
0,34,34,-17,-17,34,-39,-24,4,9,4,-9
0,34,34,-17,-17,34,-39,-24,4,9,4,-9
0,29,29,-14,-14,29,-39,-24,4,9,4,-9
9,29,19,-19,-4,24,-39,-24,4,4,0,-19
9,29,19,-19,-4,24,-39,-19,4,4,0,-19
9,29,19,-19,-4,24,-39,-19,4,4,0,-19
4,29,24,-17,-9,26,-39,-19,0,0,0,-19
4,29,24,-17,-9,26,-39,-19,0,0,0,-19
4,29,24,-17,-9,26,-39,-19,0,0,0,-19
4,29,24,-17,-9,26,-43,-19,0,0,0,-19
9,29,19,-19,-4,24,-43,-19,0,4,0,-19
9,29,19,-19,-4,24,-53,-29,0,4,9,-9
9,29,19,-19,-4,24,-53,-29,0,4,9,-9
9,29,19,-19,-4,24,-53,-29,0,4,9,-9
9,24,14,-17,-2,19,-53,-29,0,4,9,-9
0,34,34,-17,-17,34,-53,-29,0,4,0,-19
0,34,34,-17,-17,34,-53,-29,0,4,0,-19
0,34,34,-17,-17,34,-53,-29,0,0,0,-19
0,34,34,-17,-17,34,-53,-29,0,0,0,-19
0,43,43,-21,-21,43,-53,-29,0,0,-9,-19
0,43,43,-21,-21,43,-53,-29,0,0,-9,-24
0,43,43,-21,-21,43,-53,-29,-4,0,-9,-24
0,43,43,-21,-21,43,-53,-29,-4,0,-9,-24
0,43,43,-21,-21,43,-53,-29,4,0,-14,-34
0,39,39,-19,-19,39,-48,-29,4,0,-14,-34
0,39,39,-19,-19,39,-48,-29,4,0,-14,-34
0,39,39,-19,-19,39,-48,-29,4,0,-14,-34
0,34,34,-17,-17,34,-43,-29,-4,-14,-14,-34
0,34,34,-17,-17,34,-43,-29,-4,-14,-14,-34
0,34,34,-17,-17,34,-43,-29,-4,-9,-14,-34
0,34,34,-17,-17,34,-43,-29,-4,-9,-14,-34
9,29,19,-19,-4,24,-43,-34,-4,-4,-4,-34
9,29,19,-19,-4,24,-43,-34,-4,-4,-4,-34
9,29,19,-19,-4,24,-43,-34,-4,-4,-4,-34
9,29,19,-19,-4,24,-43,-29,-9,-4,-4,-34
9,29,19,-19,-4,24,-34,-29,0,4,4,-34
9,29,19,-19,-4,24,-34,-29,0,4,0,-34
9,29,19,-19,-4,24,-34,-34,0,4,0,-34
9,24,14,-17,-2,19,-34,-34,0,0,0,-34
9,34,24,-21,-7,29,-34,-24,0,0,0,-24
9,34,24,-21,-7,29,-34,-24,0,0,0,-24
14,34,19,-24,-2,26,-34,-24,0,0,0,-24
14,34,19,-24,-2,26,-34,-29,0,0,0,-24
4,24,19,-14,-7,21,-34,-29,0,0,0,-24
4,24,19,-14,-7,21,-34,-29,0,0,0,-24
4,24,19,-14,-7,21,-34,-29,0,0,0,-24
0,24,24,-12,-12,24,-34,-29,0,4,0,-24
9,24,14,-17,-2,19,-34,-19,0,-4,-9,-24
9,24,14,-17,-2,19,-34,-19,0,-4,-9,-24
9,24,14,-17,-2,19,-34,-19,0,-9,-9,-24
9,24,14,-17,-2,19,-34,-19,0,-9,-9,-24
9,19,9,-14,0,14,-34,-19,0,-19,-19,-24
9,19,9,-14,0,14,-34,-19,0,-19,-19,-24
9,19,9,-14,0,14,-34,-19,0,-14,-19,-24
14,19,4,-17,4,12,-34,-19,0,-14,-19,-24
4,9,4,-7,0,7,-34,-19,9,-14,-29,-24
4,9,4,-7,0,7,-34,-19,9,-14,-24,-24
4,9,4,-7,0,7,-34,-19,9,-14,-24,-24
4,9,4,-7,0,7,-34,-19,9,-14,-24,-24
4,0,-4,-2,4,-2,-43,-19,9,-14,-24,-19
4,0,-4,-2,4,-2,-43,-19,9,-14,-24,-19
4,0,-4,-2,4,-2,-43,-19,9,-14,-24,-19
4,0,-4,-2,4,-2,-43,-19,9,-9,-24,-19
4,4,0,-4,2,2,-43,-19,0,-9,-24,-19
4,4,0,-4,2,2,-43,-24,0,-9,-24,-24
9,4,-4,-7,7,0,-48,-24,0,-9,-24,-24
9,4,-4,-7,7,0,-48,-24,0,-9,-24,-24
9,4,-4,-7,7,0,-48,-19,0,-14,-24,-24
9,4,-4,-7,7,0,-48,-19,0,-14,-24,-24
9,4,-4,-7,7,0,-48,-19,0,-14,-24,-24
9,4,-4,-7,7,0,-48,-19,0,-14,-24,-24
9,14,4,-12,2,9,-48,-19,0,-9,-19,-24
9,14,4,-12,2,9,-48,-19,0,-4,-19,-24
9,14,4,-12,2,9,-48,-19,0,0,-19,-24
14,14,0,-14,7,7,-48,-19,-4,4,-19,-24
14,24,9,-19,2,17,-48,-19,4,4,-19,-24
14,19,4,-17,4,12,-53,-19,4,0,-19,-24
14,19,4,-17,4,12,-53,-19,4,0,-19,-24
14,19,4,-17,4,12,-53,-19,4,0,-19,-24
24,9,-14,-17,19,-2,-53,-19,-4,0,-19,-24
24,9,-14,-17,19,-2,-53,-19,-4,0,-19,-24
24,9,-14,-17,19,-2,-53,-19,-4,0,-19,-24
24,9,-14,-17,19,-2,-53,-19,-4,0,-19,-24
14,0,-14,-7,14,-7,-53,-19,-4,-4,-29,-14
14,0,-14,-7,14,-7,-48,-19,-4,-9,-29,-14
14,0,-14,-7,14,-7,-48,-19,-4,-14,-29,-14
19,0,-19,-9,19,-9,-53,-19,-4,-19,-29,-14
19,0,-19,-9,19,-9,-43,-19,-4,-29,-29,-14
19,-9,-29,-4,24,-19,-43,-19,4,-29,-29,-14
9,-9,-19,0,14,-14,-48,-19,0,-19,-29,-19
9,-9,-19,0,14,-14,-48,-19,0,-19,-19,-19
9,-9,-19,0,14,-14,-48,-19,0,-19,-19,-19
9,-9,-19,0,14,-14,-48,-19,0,-19,-19,-19
9,-9,-19,0,14,-14,-48,-19,0,-19,-19,-19
9,0,-9,-4,9,-4,-48,-9,0,-19,-19,-9
9,0,-9,-4,9,-4,-48,-9,0,-19,-19,-9
9,0,-9,-4,9,-4,-48,-9,0,-19,-19,-9
9,0,-9,-4,9,-4,-48,-9,0,-19,-19,-9
9,0,-9,-4,9,-4,-39,-19,-9,-9,-19,-9
9,0,-9,-4,9,-4,-39,-19,-9,-9,-19,-9
9,0,-9,-4,9,-4,-39,-19,-9,-9,-19,-9
9,0,-9,-4,9,-4,-39,-19,-9,-9,-19,-9
9,0,-9,-4,9,-4,-39,-19,-9,-9,-19,-9
9,0,-9,-4,9,-4,-39,-19,-9,-9,-19,-9
9,0,-9,-4,9,-4,-39,-19,-9,-9,-19,-9
9,0,-9,-4,9,-4,-39,-19,-9,-9,-19,-9
19,0,-19,-9,19,-9,-29,-19,0,-9,-19,0
19,0,-19,-9,19,-9,-29,-19,0,-9,-19,0
19,0,-19,-9,19,-9,-29,-19,0,-9,-19,0
19,0,-19,-9,19,-9,-29,-19,0,-9,-19,0
19,0,-19,-9,19,-9,-39,-19,0,-9,-19,0
19,0,-19,-9,19,-9,-39,-19,0,-9,-19,0
19,0,-19,-9,19,-9,-39,-19,0,-9,-19,0
19,0,-19,-9,19,-9,-39,-19,0,-9,-19,0
9,0,-9,-4,9,-4,-39,-19,0,0,-19,0
9,0,-9,-4,9,-4,-39,-19,0,0,-19,0
9,0,-9,-4,9,-4,-39,-19,0,0,-19,0
9,0,-9,-4,9,-4,-39,-19,0,0,-19,0
9,-9,-19,0,14,-14,-48,-19,0,0,-9,0
9,-9,-19,0,14,-14,-48,-19,0,0,-9,0
9,-9,-19,0,14,-14,-48,-19,0,0,-9,0
9,-9,-19,0,14,-14,-48,-19,0,0,-9,0
0,-19,-19,9,9,-19,-48,-19,0,-9,-19,-9
0,-19,-19,9,9,-19,-48,-19,0,-9,-19,-9
0,-19,-19,9,9,-19,-48,-19,0,-9,-19,-9
0,-19,-19,9,9,-19,-48,-19,0,-9,-19,-9
9,-29,-39,9,24,-34,-48,-19,0,-19,-19,0
9,-29,-39,9,24,-34,-48,-19,0,-19,-19,0
9,-29,-39,9,24,-34,-48,-19,0,-19,-19,0
9,-29,-39,9,24,-34,-48,-19,0,-19,-19,0
9,-29,-39,9,24,-34,-48,-19,9,-9,-19,0
9,-29,-39,9,24,-34,-48,-19,9,-9,-19,0
9,-29,-39,9,24,-34,-48,-19,9,-9,-19,0
9,-29,-39,9,24,-34,-48,-19,9,-9,-19,0
19,-19,-39,0,29,-29,-39,-19,0,-9,-19,0
19,-19,-39,0,29,-29,-39,-19,0,-9,-19,0
19,-19,-39,0,29,-29,-39,-19,0,-9,-19,0
19,-19,-39,0,29,-29,-39,-19,0,-9,-19,0
19,-14,-34,-2,26,-24,-39,-19,0,-9,-19,-9
19,-9,-29,-4,24,-19,-39,-19,0,-9,-19,-9
19,-4,-24,-7,21,-14,-39,-19,0,-9,-19,-9
19,0,-19,-9,19,-9,-39,-19,0,-9,-19,-9
19,-4,-24,-7,21,-14,-39,-19,-9,-19,-29,-19
19,0,-19,-9,19,-9,-39,-19,-9,-14,-24,-14
19,-4,-24,-7,21,-14,-34,-19,-4,-14,-19,-14
19,-4,-24,-7,21,-14,-34,-19,0,-14,-19,-14
19,-14,-34,-2,26,-24,-34,-19,-4,-19,-24,-4
19,-9,-29,-4,24,-19,-34,-14,-4,-9,-24,0
19,-9,-29,-4,24,-19,-24,-9,4,-9,-14,0
19,-9,-29,-4,24,-19,-24,-4,4,-9,-14,0
24,-9,-34,-7,29,-21,-24,9,9,-9,-24,-4
24,-9,-34,-7,29,-21,-19,9,9,0,-19,-4
24,-9,-34,-7,29,-21,-19,9,9,0,-14,0
24,-14,-39,-4,31,-26,-19,4,9,4,-14,0
24,0,-24,-12,24,-12,-19,14,14,4,-4,4
29,4,-24,-17,26,-9,-19,9,19,4,-4,4
29,9,-19,-19,24,-4,-19,9,19,9,-4,4
34,14,-19,-24,26,-2,-19,9,19,9,-4,4
29,19,-9,-24,19,4,-14,4,19,19,-4,4
34,19,-14,-26,24,2,-9,4,24,24,-4,9
39,19,-19,-29,29,0,-9,4,24,24,0,9
39,19,-19,-29,29,0,-9,4,24,24,0,9
34,34,0,-34,17,17,-4,4,34,34,4,14
39,34,-4,-36,21,14,-14,4,34,34,9,14
39,39,0,-39,19,19,-24,4,29,34,14,14
48,39,-9,-43,29,14,-29,4,24,34,19,14
39,39,0,-39,19,19,-34,4,24,39,19,14
39,39,0,-39,19,19,-39,4,19,39,19,14
39,39,0,-39,19,19,-48,4,14,34,14,14
43,39,-4,-41,24,17,-58,4,9,34,14,14
53,43,-9,-48,31,17,-58,4,9,29,19,24
53,39,-14,-46,34,12,-63,4,4,24,14,24
53,34,-19,-43,36,7,-63,4,0,19,9,19
58,29,-29,-43,43,0,-63,4,-4,14,9,14
68,24,-43,-46,56,-9,-73,9,-9,9,4,19
68,19,-48,-43,58,-14,-73,9,-14,4,0,19
73,9,-63,-41,68,-26,-73,19,-24,0,-4,14
73,0,-73,-36,73,-36,-68,19,-24,-4,-4,9
73,4,-68,-39,70,-31,-68,19,-19,-9,0,9
73,0,-73,-36,73,-36,-73,19,-24,-14,-4,9
68,-4,-73,-31,70,-39,-78,19,-24,-14,-4,9
68,-4,-73,-31,70,-39,-78,24,-24,-14,-4,9
68,-14,-82,-26,75,-48,-87,14,-24,-24,-14,9
63,-14,-78,-24,70,-46,-87,14,-24,-24,-14,4
63,-14,-78,-24,70,-46,-78,14,-24,-19,-14,4
63,-14,-78,-24,70,-46,-78,14,-19,-19,-14,4
63,-14,-78,-24,70,-46,-78,14,-29,-14,-14,4
63,-14,-78,-24,70,-46,-78,9,-24,-14,-4,9
63,-4,-68,-29,65,-36,-78,9,-24,-14,-4,9
63,0,-63,-31,63,-31,-73,9,-19,-14,-4,9
53,0,-53,-26,53,-26,-73,0,-29,-9,-4,4
53,0,-53,-26,53,-26,-73,-4,-24,-9,0,4
53,0,-53,-26,53,-26,-73,-4,-24,-9,0,9
53,0,-53,-26,53,-26,-78,-4,-24,-4,0,9
63,-4,-68,-29,65,-36,-78,4,-34,-14,-9,9
58,-9,-68,-24,63,-39,-78,4,-34,-14,-9,9
48,-14,-63,-17,56,-39,-73,0,-34,-19,-9,9
48,-19,-68,-14,58,-43,-73,0,-39,-19,-9,9
48,-19,-68,-14,58,-43,-73,9,-39,-29,-14,9
48,-24,-73,-12,61,-48,-73,4,-39,-29,-19,9
43,-34,-78,-4,61,-56,-73,4,-43,-34,-19,9
43,-43,-87,0,65,-65,-73,4,-43,-34,-24,4
48,-39,-87,-4,68,-63,-73,4,-43,-34,-19,4
43,-39,-82,-2,63,-61,-68,4,-43,-43,-19,4
39,-43,-82,2,61,-63,-63,4,-48,-48,-24,4
34,-43,-78,4,56,-61,-58,4,-48,-53,-29,4
19,-34,-53,7,36,-43,-53,-4,-48,-39,-29,9
9,-34,-43,12,26,-39,-53,-4,-43,-39,-24,4
9,-39,-48,14,29,-43,-53,-4,-43,-34,-24,0
14,-39,-53,12,34,-46,-53,-4,-39,-29,-19,0
9,-39,-48,14,29,-43,-43,-4,-29,-29,-19,0
0,-34,-34,17,17,-34,-43,-9,-29,-29,-19,0
-9,-34,-24,21,7,-29,-43,-14,-29,-34,-19,0
-14,-34,-19,24,2,-26,-43,-19,-29,-34,-19,0
-24,-34,-9,29,-7,-21,-43,-19,-19,-24,-9,0
-24,-34,-9,29,-7,-21,-43,-19,-24,-24,-9,0
-24,-34,-9,29,-7,-21,-43,-24,-24,-24,-9,0
-24,-34,-9,29,-7,-21,-43,-24,-24,-24,-9,0
-19,-34,-14,26,-2,-24,-53,-24,-24,-14,0,0
-19,-29,-9,24,-4,-19,-48,-24,-19,-14,0,0
-24,-29,-4,26,-9,-17,-48,-24,-19,-9,0,0
-24,-29,-4,26,-9,-17,-48,-24,-14,-9,0,0
-24,-19,4,21,-14,-7,-58,-24,-14,0,9,9
-14,-19,-4,17,-4,-12,-53,-24,-4,4,9,14
-24,-19,4,21,-14,-7,-43,-14,9,9,19,14
-24,-24,0,24,-12,-12,-29,-14,24,19,24,14
-39,-24,14,31,-26,-4,-14,-4,29,24,24,9
-48,-43,4,46,-26,-19,34,9,39,24,14,-4
-63,-68,-4,65,-29,-36,78,19,53,14,-4,-29
-82,-97,-14,90,-34,-56,122,39,53,-14,-24,-48
-102,-117,-14,109,-43,-65,175,53,63,-24,-48,-73
-102,-117,-14,109,-43,-65,200,68,68,-29,-58,-92
-102,-112,-9,107,-46,-61,219,78,92,-14,-48,-92
-97,-107,-9,102,-43,-58,234,97,122,19,-39,-97
-82,-78,4,80,-43,-36,258,112,175,58,-24,-97
-87,4,92,41,-90,48,248,87,292,146,39,-63
-73,146,219,-36,-146,183,219,34,463,297,141,14
-48,361,409,-156,-229,385,161,-34,663,492,302,122
-9,634,644,-312,-326,639,87,-122,922,732,502,258
39,951,912,-495,-436,932,19,-219,1239,1010,722,419
117,1273,1156,-695,-519,1215,-92,-297,1522,1298,951,580
234,1542,1307,-888,-536,1424,-204,-346,1678,1503,1156,741
322,1688,1366,-1005,-522,1527,-273,-326,1678,1576,1263,858
385,1590,1205,-988,-409,1398,-229,-244,1512,1444,1215,868
439,1302,863,-871,-212,1083,-175,-117,1112,1137,1034,795
439,1083,644,-761,-102,863,-229,-107,634,824,878,756
341,1019,678,-680,-168,849,-351,-278,278,658,839,805
180,971,790,-575,-305,880,-453,-478,39,541,814,849
58,858,800,-458,-370,829,-478,-575,-131,414,727,805
-4,678,683,-336,-344,680,-419,-536,-273,263,600,717
-43,522,566,-239,-305,544,-341,-473,-341,141,483,619
-87,390,478,-151,-283,434,-283,-434,-380,43,370,522
-126,229,356,-51,-241,292,-180,-361,-439,-78,239,409
-141,48,190,46,-165,119,-58,-253,-488,-185,97,268
-141,-82,58,112,-100,-12,4,-156,-502,-253,-4,165
-107,-156,-48,131,-29,-102,4,-68,-517,-292,-58,107
-78,-219,-141,148,31,-180,-9,19,-527,-336,-122,43
-43,-258,-214,151,85,-236,-24,78,-527,-366,-161,-4
-14,-258,-244,136,114,-251,-48,97,-512,-375,-170,-29
0,-244,-244,122,122,-244,-58,97,-478,-361,-185,-48
0,-239,-239,119,119,-239,-48,112,-429,-336,-185,-68
-14,-214,-200,114,92,-207,-34,112,-351,-287,-165,-78
-19,-165,-146,92,63,-156,-19,97,-244,-219,-131,-68
-24,-136,-112,80,43,-124,14,87,-175,-151,-92,-58
-24,-122,-97,73,36,-109,39,97,-136,-131,-82,-58
-24,-107,-82,65,29,-95,48,87,-117,-112,-78,-58
-19,-82,-63,51,21,-73,48,73,-117,-102,-63,-53
-19,-63,-43,41,12,-53,43,58,-102,-97,-53,-39
-29,-53,-24,41,-2,-39,43,34,-78,-87,-39,-29
-34,-48,-14,41,-9,-31,39,14,-68,-78,-29,-24
-43,-48,-4,46,-19,-26,39,9,-43,-58,-29,-24
-43,-53,-9,48,-17,-31,39,9,-34,-48,-24,-24
-43,-53,-9,48,-17,-31,39,14,-34,-48,-24,-29
-43,-53,-9,48,-17,-31,39,14,-34,-48,-24,-29
-39,-43,-4,41,-17,-24,43,4,-34,-39,-29,-29
-39,-43,-4,41,-17,-24,43,0,-34,-39,-29,-29
-43,-48,-4,46,-19,-26,43,-4,-34,-39,-29,-29
-43,-53,-9,48,-17,-31,43,-4,-34,-39,-34,-29
-34,-43,-9,39,-12,-26,43,4,-19,-48,-24,-34
-34,-43,-9,39,-12,-26,43,4,-14,-39,-29,-34
-29,-39,-9,34,-9,-24,39,9,-9,-39,-29,-34
-29,-39,-9,34,-9,-24,39,9,-4,-34,-24,-29
-39,-29,9,34,-24,-9,39,9,-4,-34,-24,-29
-39,-29,9,34,-24,-9,39,9,-9,-39,-24,-29
-39,-39,0,39,-19,-19,39,0,-9,-39,-24,-29
-39,-39,0,39,-19,-19,39,0,-9,-39,-24,-29
-39,-48,-9,43,-14,-29,39,0,0,-39,-34,-29
-39,-48,-9,43,-14,-29,39,9,4,-34,-34,-34
-39,-39,0,39,-19,-19,43,14,4,-29,-29,-34
-34,-34,0,34,-17,-17,43,14,4,-29,-29,-34
-34,-43,-9,39,-12,-26,43,14,-4,-29,-29,-39
-34,-39,-4,36,-14,-21,43,14,-4,-29,-29,-39
-39,-39,0,39,-19,-19,43,4,-4,-29,-34,-39
-39,-43,-4,41,-17,-24,48,0,-4,-29,-34,-39
-39,-34,4,36,-21,-14,48,0,-4,-29,-24,-29
-39,-34,4,36,-21,-14,43,0,4,-29,-24,-29
-39,-34,4,36,-21,-14,43,9,4,-24,-24,-34
-39,-34,4,36,-21,-14,43,9,4,-24,-24,-34
-29,-39,-9,34,-9,-24,43,9,0,-34,-29,-34
-29,-34,-4,31,-12,-19,43,9,-4,-29,-24,-29
-34,-34,0,34,-17,-17,43,9,-9,-29,-24,-29
-34,-39,-4,36,-14,-21,43,4,-14,-29,-24,-29
-34,-39,-4,36,-14,-21,43,4,-14,-39,-24,-39
-34,-43,-9,39,-12,-26,43,4,-14,-39,-29,-39
-34,-43,-9,39,-12,-26,43,4,-9,-39,-29,-39
-29,-43,-14,36,-7,-29,43,14,-9,-39,-29,-39
-39,-43,-4,41,-17,-24,43,24,0,-34,-29,-39
-39,-39,0,39,-19,-19,43,24,0,-34,-24,-39
-39,-43,-4,41,-17,-24,43,19,0,-34,-24,-39
-39,-58,-19,48,-9,-39,39,14,0,-34,-24,-39
-39,-58,-19,48,-9,-39,39,9,-4,-34,-24,-29
-43,-58,-14,51,-14,-36,39,9,-4,-34,-29,-34
-43,-58,-14,51,-14,-36,39,9,0,-34,-29,-34
-43,-53,-9,48,-17,-31,39,19,0,-34,-29,-34
-43,-43,0,43,-21,-21,39,24,0,-24,-29,-34
-39,-39,0,39,-19,-19,43,24,0,-24,-29,-29
-39,-39,0,39,-19,-19,43,24,-4,-24,-29,-29
-39,-39,0,39,-19,-19,43,19,-4,-24,-29,-29
-39,-34,4,36,-21,-14,48,14,4,-24,-29,-39
-43,-39,4,41,-24,-17,48,14,4,-24,-29,-39
-43,-39,4,41,-24,-17,48,14,4,-29,-29,-39
-39,-39,0,39,-19,-19,48,24,9,-29,-29,-43
-48,-39,9,43,-29,-14,48,19,0,-29,-29,-43
-48,-34,14,41,-31,-9,48,19,0,-29,-29,-43
-48,-34,14,41,-31,-9,48,19,0,-29,-29,-43
-48,-34,14,41,-31,-9,48,19,-4,-29,-29,-43
-48,-39,9,43,-29,-14,53,19,-4,-29,-39,-43
-48,-39,9,43,-29,-14,53,19,-4,-29,-39,-43
-48,-39,9,43,-29,-14,53,24,-4,-29,-39,-43
-48,-39,9,43,-29,-14,53,24,0,-29,-39,-43
-43,-39,4,41,-24,-17,63,29,0,-29,-29,-43
-43,-39,4,41,-24,-17,63,34,0,-29,-29,-43
-43,-39,4,41,-24,-17,63,34,0,-29,-29,-43
-43,-39,4,41,-24,-17,63,34,-4,-29,-29,-43
-34,-29,4,31,-19,-12,53,34,-4,-19,-29,-43
-34,-29,4,31,-19,-12,53,29,-4,-24,-34,-43
-34,-34,0,34,-17,-17,53,29,-4,-24,-39,-48
-34,-34,0,34,-17,-17,53,29,0,-24,-39,-48
-34,-34,0,34,-17,-17,63,34,0,-24,-39,-48
-34,-34,0,34,-17,-17,63,39,0,-24,-39,-48
-29,-34,-4,31,-12,-19,63,39,0,-24,-34,-48
-29,-34,-4,31,-12,-19,63,39,-4,-24,-34,-48
-29,-34,-4,31,-12,-19,63,29,-4,-39,-48,-48
-34,-39,-4,36,-14,-21,68,29,-4,-39,-48,-48
-34,-39,-4,36,-14,-21,68,29,-9,-43,-53,-48
-34,-43,-9,39,-12,-26,68,29,-9,-43,-53,-53
-34,-43,-9,39,-12,-26,68,29,-4,-34,-43,-53
-34,-39,-4,36,-14,-21,68,39,-4,-34,-43,-53
-34,-39,-4,36,-14,-21,68,39,-4,-34,-43,-53
-29,-34,-4,31,-12,-19,73,39,-4,-34,-43,-53
-29,-43,-14,36,-7,-29,73,39,-14,-48,-53,-63
-29,-53,-24,41,-2,-39,73,34,-14,-48,-58,-68
-34,-53,-19,43,-7,-36,73,34,-14,-48,-58,-68
-34,-58,-24,46,-4,-41,78,34,-14,-48,-58,-68
-34,-68,-34,51,0,-51,78,43,-19,-48,-63,-68
-29,-63,-34,46,2,-48,87,53,-19,-48,-63,-68
-29,-63,-34,46,2,-48,87,53,-19,-53,-63,-68
-29,-63,-34,46,2,-48,87,53,-19,-53,-63,-73
-29,-68,-39,48,4,-53,82,53,-24,-63,-73,-73
-39,-68,-29,53,-4,-48,82,53,-24,-63,-73,-73
-39,-78,-39,58,0,-58,82,53,-29,-73,-73,-73
-34,-78,-43,56,4,-61,82,53,-29,-73,-82,-78
-34,-78,-43,56,4,-61,78,53,-24,-73,-78,-82
-34,-78,-43,56,4,-61,78,63,-24,-73,-78,-82
-34,-78,-43,56,4,-61,87,68,-24,-73,-78,-82
-34,-78,-43,56,4,-61,92,68,-24,-73,-78,-82
-43,-87,-43,65,0,-65,97,78,-34,-78,-87,-82
-43,-92,-48,68,2,-70,102,78,-39,-87,-97,-82
-43,-92,-48,68,2,-70,102,78,-43,-92,-102,-92
-43,-97,-53,70,4,-75,97,78,-43,-92,-102,-97
-48,-102,-53,75,2,-78,107,78,-43,-92,-102,-97
-48,-102,-53,75,2,-78,107,87,-43,-92,-102,-97
-48,-102,-53,75,2,-78,117,87,-48,-92,-107,-97
-48,-102,-53,75,2,-78,117,87,-48,-102,-107,-102
-48,-102,-53,75,2,-78,117,82,-58,-92,-97,-102
-48,-107,-58,78,4,-82,126,82,-63,-97,-107,-102
-48,-112,-63,80,7,-87,126,82,-63,-102,-112,-112
-48,-117,-68,82,9,-92,126,82,-68,-107,-117,-117
-53,-122,-68,87,7,-95,136,82,-58,-102,-122,-117
-53,-126,-73,90,9,-100,136,92,-58,-107,-122,-122
-53,-126,-73,90,9,-100,136,92,-63,-107,-126,-126
-53,-131,-78,92,12,-104,141,92,-68,-112,-131,-126
-53,-131,-78,92,12,-104,146,92,-73,-117,-131,-126
-63,-136,-73,100,4,-104,146,92,-82,-122,-136,-126
-63,-141,-78,102,7,-109,151,92,-87,-126,-141,-126
-63,-151,-87,107,12,-119,151,92,-92,-131,-141,-136
-63,-156,-92,109,14,-124,161,92,-92,-146,-156,-136
-63,-161,-97,112,17,-129,165,92,-92,-151,-161,-136
-63,-161,-97,112,17,-129,165,97,-97,-151,-161,-136
-63,-170,-107,117,21,-139,170,102,-102,-156,-161,-136
-68,-180,-112,124,21,-146,180,102,-107,-161,-161,-136
-73,-175,-102,124,14,-139,180,97,-112,-161,-161,-136
-78,-175,-97,126,9,-136,180,92,-117,-165,-165,-136
-78,-185,-107,131,14,-146,185,87,-117,-170,-165,-136
-78,-185,-107,131,14,-146,175,87,-117,-170,-170,-151
-78,-180,-102,129,12,-141,175,87,-117,-170,-170,-151
-78,-180,-102,129,12,-141,175,87,-117,-170,-170,-151
-78,-175,-97,126,9,-136,175,87,-117,-170,-170,-151
-78,-185,-107,131,14,-146,175,87,-126,-170,-180,-151
-82,-175,-92,129,4,-134,175,87,-136,-170,-175,-141
-82,-175,-92,129,4,-134,170,78,-136,-170,-175,-141
-82,-175,-92,129,4,-134,165,68,-136,-170,-175,-141
-73,-165,-92,119,9,-129,151,73,-136,-175,-170,-131
-73,-161,-87,117,7,-124,136,68,-131,-170,-165,-126
-73,-151,-78,112,2,-114,126,63,-122,-165,-161,-126
-68,-141,-73,104,2,-107,117,58,-122,-156,-151,-122
-78,-136,-58,107,-9,-97,107,53,-126,-161,-151,-122
-78,-126,-48,102,-14,-87,97,48,-122,-146,-141,-117
-73,-117,-43,95,-14,-80,87,39,-117,-146,-136,-102
-73,-107,-34,90,-19,-70,82,29,-112,-131,-122,-92
-68,-97,-29,82,-19,-63,63,9,-107,-122,-117,-82
-63,-78,-14,70,-24,-46,53,9,-92,-112,-112,-73
-63,-73,-9,68,-26,-41,43,4,-82,-102,-97,-68
-53,-63,-9,58,-21,-36,39,0,-73,-92,-87,-63
-53,-53,0,53,-26,-26,39,-4,-68,-78,-87,-58
-53,-43,9,48,-31,-17,34,-4,-58,-68,-78,-53
-53,-34,19,43,-36,-7,29,-9,-53,-58,-73,-43
-48,-24,24,36,-36,0,14,-14,-48,-58,-68,-34
-39,-34,4,36,-21,-14,14,-19,-34,-43,-53,-29
-34,-24,9,29,-21,-7,9,-24,-29,-43,-48,-29
-29,-19,9,24,-19,-4,4,-24,-19,-29,-43,-24
-29,-4,24,17,-26,9,0,-24,-9,-29,-34,-24
-29,-4,24,17,-26,9,0,-14,-4,-29,-39,-19
-24,0,24,12,-24,12,-4,-14,-4,-24,-34,-14
-24,4,29,9,-26,17,-9,-14,-4,-24,-34,-14
-24,4,29,9,-26,17,-9,-14,-4,-24,-34,-14
-14,4,19,4,-17,12,-9,-14,-4,-14,-19,-14
-9,4,14,2,-12,9,-14,-14,0,-14,-19,-14
-9,4,14,2,-12,9,-19,-14,0,-9,-19,-14
-9,4,14,2,-12,9,-24,-14,4,-4,-19,-14
0,0,0,0,0,0,-24,-14,4,4,-19,-14
0,0,0,0,0,0,-19,-14,4,4,-14,-9
0,0,0,0,0,0,-19,-14,4,9,-14,-9
0,0,0,0,0,0,-19,-9,4,9,-14,-14
9,0,-9,-4,9,-4,-19,0,4,9,-4,-14
9,0,-9,-4,9,-4,-19,0,4,4,-4,-9
9,0,-9,-4,9,-4,-19,0,4,4,-4,-9
9,0,-9,-4,9,-4,-24,0,0,4,-4,-9
0,-9,-9,4,4,-9,-24,-9,0,4,-9,-19
0,-9,-9,4,4,-9,-24,-9,0,4,-9,-19
0,-14,-14,7,7,-14,-24,-4,0,4,-9,-19
0,-14,-14,7,7,-14,-24,-4,0,4,-14,-19
0,-14,-14,7,7,-14,-29,-4,0,-4,-14,-19
0,-14,-14,7,7,-14,-29,0,0,-4,-14,-19
0,-14,-14,7,7,-14,-29,0,0,-4,-14,-19
0,-19,-19,9,9,-19,-29,0,0,-4,-14,-24
0,-19,-19,9,9,-19,-29,0,0,-4,-14,-14
0,-19,-19,9,9,-19,-29,0,0,-4,-14,-14
0,-19,-19,9,9,-19,-29,0,0,-4,-14,-14
0,-19,-19,9,9,-19,-29,0,0,0,-14,-14
0,-19,-19,9,9,-19,-29,0,9,9,-14,-4
0,-19,-19,9,9,-19,-29,0,9,9,-14,-4
0,-19,-19,9,9,-19,-29,0,9,9,-14,0
0,-19,-19,9,9,-19,-29,0,9,9,-9,0
0,-19,-19,9,9,-19,-29,4,9,4,0,0
0,-19,-19,9,9,-19,-29,4,9,4,0,0
0,-19,-19,9,9,-19,-29,4,9,9,0,0
0,-19,-19,9,9,-19,-29,4,14,9,0,0
0,-29,-29,14,14,-29,-29,4,24,9,0,9
0,-29,-29,14,14,-29,-29,4,24,9,0,9
0,-24,-24,12,12,-24,-24,4,24,9,0,9
0,-24,-24,12,12,-24,-24,4,24,9,0,9
0,-24,-24,12,12,-24,-19,4,14,9,0,0
0,-24,-24,12,12,-24,-19,4,14,9,0,0
0,-24,-24,12,12,-24,-19,4,19,9,0,0
0,-24,-24,12,12,-24,-19,4,19,9,0,0
9,-19,-29,4,19,-24,-19,-4,19,9,0,0
9,-14,-24,2,17,-19,-19,-4,19,9,0,0
9,-4,-14,-2,12,-9,-19,-4,19,9,0,0
9,0,-9,-4,9,-4,-19,-4,19,9,0,0
0,0,0,0,0,0,-19,-14,19,14,9,0
0,0,0,0,0,0,-19,-14,19,14,9,0
0,0,0,0,0,0,-19,-14,19,14,9,0
0,0,0,0,0,0,-24,-14,24,14,9,0
0,0,0,0,0,0,-34,-4,14,14,9,0
0,4,4,-2,-2,4,-34,-4,19,14,9,0
0,4,4,-2,-2,4,-34,-4,19,14,9,0
0,4,4,-2,-2,4,-34,-4,19,19,9,0
-9,4,14,2,-12,9,-34,4,29,19,9,9
-9,4,14,2,-12,9,-34,4,29,19,9,9
-9,4,14,2,-12,9,-34,4,29,19,9,9
-9,4,14,2,-12,9,-29,4,34,19,9,9
-9,4,14,2,-12,9,-39,4,34,19,9,9
-9,4,14,2,-12,9,-39,4,34,19,9,9
-9,4,14,2,-12,9,-39,4,34,19,9,9
-9,4,14,2,-12,9,-39,4,34,19,9,9
-9,4,14,2,-12,9,-29,4,34,19,9,9
-9,4,14,2,-12,9,-34,4,34,19,9,9
-9,4,14,2,-12,9,-34,4,34,19,9,9
-14,4,19,4,-17,12,-34,4,34,19,9,9
-14,-4,9,9,-12,2,-24,4,43,19,9,9
-14,0,14,7,-14,7,-24,4,39,19,9,9
-9,0,9,4,-9,4,-24,4,39,19,9,9
-9,0,9,4,-9,4,-24,4,39,19,9,9
-9,0,9,4,-9,4,-24,4,39,19,9,9
-9,0,9,4,-9,4,-24,4,39,19,9,9
-9,0,9,4,-9,4,-24,4,39,14,9,9
-9,0,9,4,-9,4,-19,4,39,14,9,9
-9,-9,0,9,-4,-4,-9,4,39,14,9,9
-9,-9,0,9,-4,-4,-9,4,39,14,9,9
-9,-9,0,9,-4,-4,-9,4,39,14,9,9
-9,-9,0,9,-4,-4,-9,4,39,14,9,9
0,0,0,0,0,0,-19,4,39,24,9,9
0,0,0,0,0,0,-19,4,39,24,9,9
0,0,0,0,0,0,-19,4,39,24,9,9
0,-4,-4,2,2,-4,-19,4,39,24,9,9
0,0,0,0,0,0,-19,4,39,24,14,9
0,4,4,-2,-2,4,-19,4,39,24,14,9
0,9,9,-4,-4,9,-19,4,39,24,14,9
0,14,14,-7,-7,14,-19,4,39,24,14,9
0,14,14,-7,-7,14,-29,-4,39,24,4,0
0,14,14,-7,-7,14,-24,-4,34,19,4,0
0,14,14,-7,-7,14,-24,-4,34,19,4,0
0,14,14,-7,-7,14,-29,-4,34,19,4,0
0,14,14,-7,-7,14,-19,4,24,19,4,0
0,14,14,-7,-7,14,-19,4,24,19,4,0
0,14,14,-7,-7,14,-19,4,24,19,4,0
0,9,9,-4,-4,9,-19,4,24,19,4,0
-9,0,9,4,-9,4,-29,-4,24,24,9,9
-9,0,9,4,-9,4,-29,0,24,24,9,9
-9,0,9,4,-9,4,-29,0,24,24,9,9
-14,0,14,7,-14,7,-29,0,19,19,9,9
-14,9,24,2,-19,17,-29,0,29,19,9,9
-14,9,24,2,-19,17,-29,0,29,19,9,9
-14,9,24,2,-19,17,-34,0,29,19,9,9
-9,9,19,0,-14,14,-34,0,29,24,9,9
0,9,9,-4,-4,9,-24,0,29,24,9,9
0,9,9,-4,-4,9,-24,0,29,24,9,9
0,9,9,-4,-4,9,-24,0,29,24,9,9
0,4,4,-2,-2,4,-24,0,29,24,9,9
0,4,4,-2,-2,4,-24,0,29,14,9,9
0,4,4,-2,-2,4,-24,0,29,14,9,9
0,4,4,-2,-2,4,-24,0,29,9,9,9
0,4,4,-2,-2,4,-24,0,29,9,9,9
0,-4,-4,2,2,-4,-14,0,29,9,9,9
0,-4,-4,2,2,-4,-14,0,29,9,9,4
0,-4,-4,2,2,-4,-14,0,24,9,9,4
0,-4,-4,2,2,-4,-14,0,24,9,9,4
0,-14,-14,7,7,-14,-19,0,24,9,4,4
0,-19,-19,9,9,-19,-19,0,24,9,4,4
0,-19,-19,9,9,-19,-24,0,24,9,4,4
0,-19,-19,9,9,-19,-29,0,24,9,4,4
0,-4,-4,2,2,-4,-24,0,24,4,4,4
0,-4,-4,2,2,-4,-24,0,24,4,4,4
0,-4,-4,2,2,-4,-24,0,24,9,4,4
0,-4,-4,2,2,-4,-24,0,24,9,4,4
9,-19,-29,4,19,-24,-24,4,24,4,4,4
9,-19,-29,4,19,-24,-24,4,24,4,4,4
9,-19,-29,4,19,-24,-24,4,24,4,4,4
9,-19,-29,4,19,-24,-24,9,19,4,4,4
0,-19,-19,9,9,-19,-24,9,19,4,4,14
0,-19,-19,9,9,-19,-24,9,19,4,0,14
0,-19,-19,9,9,-19,-24,4,19,4,0,14
0,-24,-24,12,12,-24,-24,4,19,0,0,14
-9,-24,-14,17,2,-19,-24,4,19,9,0,14
-9,-24,-14,17,2,-19,-24,4,19,9,0,14
-4,-24,-19,14,7,-21,-24,4,19,9,0,14
-4,-24,-19,14,7,-21,-24,0,19,9,0,14
-14,-24,-9,19,-2,-17,-24,9,9,9,9,4
-14,-24,-9,19,-2,-17,-24,9,9,9,9,4
-14,-24,-9,19,-2,-17,-24,9,9,9,9,4
-19,-24,-4,21,-7,-14,-24,9,9,14,9,4
-9,-14,-4,12,-2,-9,-24,0,9,14,9,4
-9,-14,-4,12,-2,-9,-24,0,9,14,9,4
-9,-14,-4,12,-2,-9,-24,0,9,9,9,4
-9,-14,-4,12,-2,-9,-24,0,9,9,9,4
-19,-9,9,14,-14,0,-34,0,9,9,9,4
-19,-9,9,14,-14,0,-34,0,9,9,9,4
-19,-9,9,14,-14,0,-34,0,9,14,9,4
-14,-9,4,12,-9,-2,-34,0,9,14,9,4
-14,-9,4,12,-9,-2,-34,0,19,14,0,4
-14,-9,4,12,-9,-2,-34,0,19,14,4,4
-14,-9,4,12,-9,-2,-34,0,19,14,4,4
-14,-9,4,12,-9,-2,-34,0,19,14,4,4
-4,0,4,2,-4,2,-43,0,19,14,4,0
-4,0,4,2,-4,2,-43,0,19,14,4,0
-4,0,4,2,-4,2,-43,0,19,14,4,0
-4,0,4,2,-4,2,-43,0,19,19,4,0
-4,4,9,0,-7,7,-43,0,9,19,4,0
-4,4,9,0,-7,7,-43,-4,9,19,4,-4
0,4,4,-2,-2,4,-48,-4,9,19,4,-4
0,4,4,-2,-2,4,-48,-4,9,19,4,-4
0,4,4,-2,-2,4,-48,0,9,14,4,-4
0,4,4,-2,-2,4,-48,0,9,14,4,-4
0,4,4,-2,-2,4,-48,0,9,14,4,-4
0,4,4,-2,-2,4,-48,0,9,14,4,-4
0,4,4,-2,-2,4,-39,0,0,14,0,-4
0,4,4,-2,-2,4,-39,0,0,4,0,-4
0,4,4,-2,-2,4,-39,0,0,4,0,-4
-4,4,9,0,-7,7,-39,0,4,4,0,-4
0,0,0,0,0,0,-29,0,0,9,0,0
0,9,9,-4,-4,9,-29,0,9,9,9,0
0,9,9,-4,-4,9,-29,0,9,9,9,0
0,9,9,-4,-4,9,-29,0,9,9,9,0
0,9,9,-4,-4,9,-29,0,9,9,9,0
9,9,0,-9,4,4,-39,0,19,14,4,14
9,9,0,-9,4,4,-34,0,24,14,9,14
9,14,4,-12,2,9,-34,0,29,14,9,14
9,14,4,-12,2,9,-34,-4,34,19,14,14
0,29,29,-14,-14,29,-34,-4,34,39,24,19
0,29,29,-14,-14,29,-24,-4,43,39,34,19
0,29,29,-14,-14,29,-24,-4,43,39,34,19
4,34,29,-19,-12,31,-24,0,48,39,34,24
4,48,43,-26,-19,46,-9,-9,58,58,39,24
4,53,48,-29,-21,51,-9,-9,58,58,43,29
4,53,48,-29,-21,51,-9,-14,58,63,43,29
4,58,53,-31,-24,56,-9,-14,63,63,53,34
9,63,53,-36,-21,58,0,-9,68,63,53,34
9,68,58,-39,-24,63,0,-9,68,68,53,34
14,73,58,-43,-21,65,0,-9,68,68,53,34
19,78,58,-48,-19,68,-9,-4,68,68,53,34
24,68,43,-46,-9,56,-19,4,73,68,53,39
29,68,39,-48,-4,53,-24,4,73,63,58,39
29,68,39,-48,-4,53,-29,4,73,58,58,39
34,73,39,-53,-2,56,-34,4,73,53,58,43
29,63,34,-46,-2,48,-43,4,63,53,58,43
29,68,39,-48,-4,53,-53,4,58,53,58,43
39,68,29,-53,4,48,-58,4,53,53,58,43
39,68,29,-53,4,48,-63,4,53,48,58,43
48,58,9,-53,19,34,-68,4,58,48,58,43
48,58,9,-53,19,34,-78,4,53,43,53,43
53,58,4,-56,24,31,-87,4,48,43,53,43
53,53,0,-53,26,26,-97,4,39,39,48,43
43,58,14,-51,14,36,-92,-4,34,43,53,43
43,53,9,-48,17,31,-92,-4,29,39,48,39
48,48,0,-48,24,24,-92,-4,24,34,48,34
48,43,-4,-46,26,19,-92,0,19,29,43,29
48,39,-9,-43,29,14,-102,0,4,14,29,29
53,29,-24,-41,39,2,-102,9,-4,9,24,24
53,19,-34,-36,43,-7,-97,9,-4,4,24,19
53,14,-39,-34,46,-12,-92,9,-9,0,19,19
53,0,-53,-26,53,-26,-92,9,-24,-14,14,9
48,-4,-53,-21,51,-29,-92,9,-24,-14,14,9
48,-4,-53,-21,51,-29,-87,14,-24,-14,14,9
48,-4,-53,-21,51,-29,-87,14,-24,-14,14,9
53,-4,-58,-24,56,-31,-87,14,-14,-4,14,4
53,-4,-58,-24,56,-31,-78,14,-14,0,14,4
53,-4,-58,-24,56,-31,-78,14,-9,0,14,4
53,-4,-58,-24,56,-31,-78,14,-9,4,14,4
53,-4,-58,-24,56,-31,-68,9,-4,4,24,19
53,4,-48,-29,51,-21,-68,9,-4,4,24,19
53,9,-43,-31,48,-17,-63,9,0,4,24,19
53,9,-43,-31,48,-17,-63,9,0,9,24,24
43,9,-34,-26,39,-12,-63,4,4,9,29,24
43,9,-34,-26,39,-12,-63,4,4,9,29,29
43,9,-34,-26,39,-12,-68,4,4,14,29,29
43,9,-34,-26,39,-12,-68,4,4,14,29,29
39,0,-39,-19,39,-19,-58,4,-4,14,19,29
29,0,-29,-14,29,-14,-53,0,-4,9,19,29
29,0,-29,-14,29,-14,-53,0,-9,9,19,29
24,-9,-34,-7,29,-21,-48,0,-9,9,14,19
9,-24,-34,7,21,-29,-43,4,-9,9,19,19
0,-34,-34,17,17,-34,-39,4,-14,4,19,19
-4,-43,-39,24,17,-41,-34,4,-14,4,14,14
-9,-43,-34,26,12,-39,-34,4,-14,4,9,9
-24,-48,-24,36,0,-36,-29,4,-24,-4,0,4
-29,-58,-29,43,0,-43,-24,4,-29,-9,-4,0
-34,-63,-29,48,-2,-46,-19,4,-29,-14,-9,-4
-39,-68,-29,53,-4,-48,-14,4,-34,-14,-14,-9
-39,-73,-34,56,-2,-53,-4,4,-34,-24,-24,-24
-39,-82,-43,61,2,-63,-4,4,-39,-29,-29,-29
-34,-87,-53,61,9,-70,-4,4,-39,-34,-29,-29
-34,-87,-53,61,9,-70,-4,9,-39,-39,-29,-29
-29,-82,-53,56,12,-68,-9,9,-48,-39,-39,-29
-34,-82,-48,58,7,-65,-14,9,-48,-43,-39,-29
-34,-82,-48,58,7,-65,-19,9,-48,-43,-39,-29
-34,-82,-48,58,7,-65,-24,9,-48,-43,-39,-29
-34,-78,-43,56,4,-61,-24,9,-43,-43,-39,-39
-34,-73,-39,53,2,-56,-24,4,-43,-43,-39,-39
-34,-68,-34,51,0,-51,-24,4,-43,-43,-39,-39
-29,-63,-34,46,2,-48,-24,4,-43,-43,-39,-39
-29,-58,-29,43,0,-43,-19,4,-39,-34,-29,-29
-34,-58,-24,46,-4,-41,-19,4,-39,-29,-29,-29
-34,-58,-24,46,-4,-41,-19,4,-34,-29,-29,-29
-34,-58,-24,46,-4,-41,-19,4,-34,-29,-29,-29
-24,-58,-34,41,4,-46,-14,4,-24,-14,-19,-34
-24,-58,-34,41,4,-46,-14,4,-9,-9,-19,-24
-34,-53,-19,43,-7,-36,0,4,4,0,-14,-24
-39,-63,-24,51,-7,-43,24,14,19,4,-14,-29
-48,-73,-24,61,-12,-48,53,29,29,4,-14,-34
-63,-87,-24,75,-19,-56,87,48,43,-4,-34,-58
-82,-126,-43,104,-19,-85,141,58,53,-24,-53,-78
-92,-136,-43,114,-24,-90,175,73,63,-24,-68,-102
-92,-146,-53,119,-19,-100,209,78,78,-19,-68,-112
-92,-131,-39,112,-26,-85,219,97,112,4,-68,-112
-87,-107,-19,97,-34,-63,234,117,141,29,-48,-107
-63,-68,-4,65,-29,-36,229,131,214,78,-24,-107
-58,14,73,21,-65,43,229,107,331,175,48,-63
-53,165,219,-56,-136,192,190,53,502,336,161,14
-29,370,400,-170,-214,385,141,-14,712,531,322,122
9,644,634,-326,-312,639,78,-102,961,771,512,258
48,951,902,-500,-427,927,0,-200,1268,1049,741,419
126,1273,1146,-700,-509,1210,-102,-278,1551,1337,980,590
224,1542,1317,-883,-546,1429,-214,-326,1688,1542,1176,751
312,1688,1376,-1000,-531,1532,-283,-307,1688,1605,1293,868
375,1590,1215,-983,-419,1403,-229,-224,1512,1473,1244,878
429,1293,863,-861,-217,1078,-165,-97,1102,1156,1054,795
419,1063,644,-741,-112,854,-209,-78,624,834,888,756
312,980,668,-646,-178,824,-322,-239,239,658,829,785
151,922,771,-536,-309,846,-405,-439,0,522,795,819
29,790,761,-409,-366,775,-439,-527,-190,375,697,775
-43,619,663,-287,-353,641,-370,-488,-322,234,561,678
-82,463,546,-190,-314,505,-283,-434,-390,102,444,570
-126,322,448,-97,-287,385,-214,-385,-448,14,331,483
-156,151,307,2,-231,229,-112,-322,-497,-107,200,351
-180,-29,151,104,-165,61,9,-214,-536,-234,48,219
-170,-161,9,165,-90,-75,73,-117,-551,-292,-53,107
-136,-234,-97,185,-19,-165,73,-39,-566,-331,-117,48
-97,-307,-209,202,56,-258,58,48,-575,-375,-170,-14
-63,-336,-273,200,104,-305,43,107,-575,-395,-219,-63
-34,-336,-302,185,134,-319,9,126,-561,-405,-219,-78
-29,-322,-292,175,131,-307,0,126,-517,-380,-224,-87
-29,-317,-287,173,129,-302,9,131,-458,-356,-224,-107
-34,-302,-268,168,117,-285,14,131,-380,-317,-204,-117
-29,-253,-224,141,97,-239,39,117,-283,-239,-161,-107
-24,-214,-190,119,82,-202,53,117,-214,-170,-131,-97
-34,-190,-156,112,61,-173,78,126,-165,-141,-112,-87
-24,-175,-151,100,63,-163,87,126,-136,-122,-107,-87
-19,-161,-141,90,61,-151,78,112,-136,-112,-82,-73
-19,-131,-112,75,46,-122,63,87,-112,-107,-73,-58
-29,-122,-92,75,31,-107,53,63,-97,-97,-68,-58
-34,-117,-82,75,24,-100,48,53,-87,-87,-58,-43
-43,-107,-63,75,9,-85,48,39,-53,-68,-58,-43
-43,-112,-68,78,12,-90,48,39,-43,-58,-53,-43
-43,-112,-68,78,12,-90,48,43,-43,-58,-53,-48
-43,-112,-68,78,12,-90,48,43,-43,-58,-53,-48
-29,-92,-63,61,17,-78,43,34,-43,-48,-48,-48
-29,-92,-63,61,17,-78,43,29,-43,-48,-48,-48
-34,-97,-63,65,14,-80,43,24,-43,-48,-48,-48
-34,-102,-68,68,17,-85,43,24,-43,-48,-53,-48
-34,-102,-68,68,17,-85,43,24,-39,-58,-53,-53
-34,-102,-68,68,17,-85,43,24,-34,-48,-58,-53
-29,-97,-68,63,19,-82,39,29,-29,-48,-58,-53
-29,-97,-68,63,19,-82,39,29,-24,-43,-53,-48
-29,-107,-78,68,24,-92,39,39,-24,-43,-53,-48
-29,-107,-78,68,24,-92,39,39,-29,-48,-53,-48
-29,-117,-87,73,29,-102,39,29,-29,-48,-53,-48
-29,-117,-87,73,29,-102,39,29,-29,-48,-53,-48
-29,-117,-87,73,29,-102,48,19,-19,-48,-53,-48
-29,-117,-87,73,29,-102,48,29,-14,-43,-53,-53
-29,-107,-78,68,24,-92,53,34,-14,-39,-48,-53
-24,-102,-78,63,26,-90,53,34,-14,-39,-48,-53
-34,-102,-68,68,17,-85,63,34,-24,-39,-48,-48
-34,-97,-63,65,14,-80,63,34,-24,-39,-48,-48
-39,-97,-58,68,9,-78,63,24,-24,-39,-53,-48
-39,-102,-63,70,12,-82,68,19,-24,-39,-53,-48
-39,-102,-63,70,12,-82,58,19,-24,-48,-43,-48
-39,-102,-63,70,12,-82,53,19,-14,-48,-43,-48
-39,-102,-63,70,12,-82,53,29,-14,-43,-43,-53
-39,-102,-63,70,12,-82,53,29,-14,-43,-43,-53
-29,-97,-68,63,19,-82,53,29,-14,-34,-48,-53
-29,-92,-63,61,17,-78,53,29,-14,-29,-43,-48
-34,-92,-58,63,12,-75,53,29,-14,-29,-43,-48
-34,-97,-63,65,14,-80,53,24,-14,-29,-43,-48
-24,-107,-82,65,29,-95,53,24,-14,-19,-34,-39
-24,-112,-87,68,31,-100,53,24,-14,-19,-39,-39
-24,-112,-87,68,31,-100,53,24,-9,-19,-39,-39
-19,-112,-92,65,36,-102,53,34,-9,-19,-39,-39
-19,-107,-87,63,34,-97,53,34,-19,-14,-39,-39
-19,-97,-78,58,29,-87,53,34,-19,-14,-34,-39
-19,-97,-78,58,29,-87,53,29,-19,-14,-34,-39
-19,-107,-87,63,34,-97,48,24,-19,-14,-34,-39
-19,-107,-87,63,34,-97,48,19,-24,-24,-34,-39
-24,-107,-82,65,29,-95,48,19,-24,-24,-39,-43
-24,-107,-82,65,29,-95,48,19,-19,-24,-39,-43
-24,-102,-78,63,26,-90,48,29,-19,-24,-39,-43
-24,-112,-87,68,31,-100,58,34,-19,-24,-39,-43
-19,-107,-87,63,34,-97,63,34,-19,-24,-39,-39
-19,-107,-87,63,34,-97,63,34,-24,-24,-39,-39
-19,-107,-87,63,34,-97,63,29,-24,-24,-39,-39
-19,-112,-92,65,36,-102,58,14,-24,-34,-39,-39
-24,-117,-92,70,34,-104,58,14,-24,-34,-39,-39
-24,-117,-92,70,34,-104,58,14,-24,-39,-39,-39
-19,-117,-97,68,39,-107,58,24,-19,-39,-39,-43
-19,-107,-87,63,34,-97,48,29,-19,-39,-39,-43
-19,-102,-82,61,31,-92,48,29,-19,-39,-39,-43
-19,-102,-82,61,31,-92,48,29,-19,-39,-39,-43
-19,-102,-82,61,31,-92,48,29,-24,-39,-39,-43
-19,-107,-87,63,34,-97,53,29,-24,-39,-48,-43
-19,-107,-87,63,34,-97,53,29,-24,-39,-48,-43
-19,-107,-87,63,34,-97,53,34,-24,-39,-48,-43
-19,-107,-87,63,34,-97,53,34,-19,-39,-48,-43
-9,-97,-87,53,39,-92,53,39,-19,-39,-39,-34
-4,-97,-92,51,43,-95,53,43,-19,-39,-39,-34
0,-97,-97,48,48,-97,53,43,-19,-39,-39,-34
4,-97,-102,46,53,-100,53,43,-24,-39,-39,-34
-4,-97,-92,51,43,-95,53,43,-34,-39,-48,-43
-4,-97,-92,51,43,-95,53,39,-34,-43,-53,-43
-4,-102,-97,53,46,-100,53,39,-34,-43,-58,-48
-4,-102,-97,53,46,-100,53,39,-29,-43,-58,-48
-4,-112,-107,58,51,-109,63,34,-29,-53,-58,-48
-4,-112,-107,58,51,-109,63,39,-29,-53,-58,-48
0,-112,-112,56,56,-112,63,39,-29,-53,-53,-48
0,-112,-112,56,56,-112,63,39,-34,-53,-53,-48
-4,-122,-117,63,56,-119,53,39,-43,-63,-63,-58
-14,-126,-112,70,48,-119,58,39,-43,-68,-68,-58
-19,-126,-107,73,43,-117,58,39,-48,-78,-78,-58
-24,-131,-107,78,41,-119,58,39,-48,-82,-82,-63
-24,-131,-107,78,41,-119,58,39,-43,-82,-82,-73
-24,-126,-102,75,39,-114,58,48,-43,-82,-82,-73
-24,-126,-102,75,39,-114,58,48,-43,-82,-82,-73
-19,-122,-102,70,41,-112,63,48,-43,-82,-82,-73
-19,-112,-92,65,36,-102,63,48,-53,-97,-92,-82
-19,-122,-102,70,41,-112,63,43,-53,-97,-97,-87
-24,-122,-97,73,36,-109,63,43,-53,-97,-97,-87
-24,-126,-102,75,39,-114,68,43,-53,-97,-97,-87
-14,-117,-102,65,43,-109,58,43,-48,-87,-92,-87
-9,-112,-102,61,46,-107,68,53,-48,-87,-92,-87
-9,-112,-102,61,46,-107,68,53,-48,-92,-92,-87
-9,-112,-102,61,46,-107,68,53,-48,-92,-92,-92
-9,-107,-97,58,43,-102,73,53,-53,-92,-92,-92
-19,-107,-87,63,34,-97,73,53,-53,-92,-92,-92
-19,-117,-97,68,39,-107,73,53,-58,-102,-92,-92
-14,-117,-102,65,43,-109,73,53,-58,-102,-102,-97
-14,-117,-102,65,43,-109,87,53,-53,-102,-97,-102
-14,-117,-102,65,43,-109,87,63,-53,-102,-97,-102
-14,-117,-102,65,43,-109,97,68,-53,-102,-97,-102
-14,-117,-102,65,43,-109,102,68,-53,-102,-97,-102
-14,-126,-112,70,48,-119,97,68,-53,-97,-97,-102
-14,-131,-117,73,51,-124,102,68,-58,-107,-107,-102
-14,-131,-117,73,51,-124,102,68,-63,-112,-112,-112
-14,-136,-122,75,53,-129,97,68,-63,-112,-112,-117
-29,-151,-122,90,46,-136,107,68,-63,-112,-112,-117
-29,-151,-122,90,46,-136,107,78,-63,-112,-112,-117
-29,-151,-122,90,46,-136,117,78,-68,-112,-117,-117
-29,-151,-122,90,46,-136,117,78,-68,-122,-117,-122
-29,-151,-122,90,46,-136,107,82,-78,-122,-117,-122
-29,-156,-126,92,48,-141,117,82,-82,-126,-126,-122
-29,-161,-131,95,51,-146,117,82,-82,-131,-131,-131
-29,-165,-136,97,53,-151,117,82,-87,-136,-136,-136
-34,-170,-136,102,51,-153,126,82,-97,-141,-141,-126
-34,-175,-141,104,53,-158,126,92,-97,-146,-141,-131
-34,-175,-141,104,53,-158,126,92,-102,-146,-146,-136
-34,-180,-146,107,56,-163,131,92,-107,-151,-151,-136
-34,-180,-146,107,56,-163,136,92,-102,-165,-151,-136
-43,-185,-141,114,48,-163,136,92,-112,-170,-156,-136
-43,-190,-146,117,51,-168,141,92,-117,-175,-161,-136
-43,-200,-156,122,56,-178,141,92,-122,-180,-161,-146
-53,-204,-151,129,48,-178,151,92,-131,-175,-165,-146
-53,-209,-156,131,51,-183,156,92,-131,-180,-170,-146
-53,-209,-156,131,51,-183,156,97,-136,-180,-170,-146
-53,-219,-165,136,56,-192,161,102,-141,-185,-170,-146
-48,-219,-170,134,61,-195,161,102,-136,-190,-180,-146
-53,-214,-161,134,53,-187,161,97,-141,-190,-180,-146
-58,-214,-156,136,48,-185,161,92,-146,-195,-185,-146
-58,-224,-165,141,53,-195,165,87,-146,-200,-185,-146
-58,-219,-161,139,51,-190,175,87,-156,-190,-180,-151
-58,-209,-151,134,46,-180,175,87,-156,-190,-180,-151
-58,-204,-146,131,43,-175,175,87,-156,-190,-180,-151
-58,-195,-136,126,39,-165,175,87,-156,-190,-180,-151
-68,-195,-126,131,29,-161,165,87,-156,-200,-180,-141
-73,-185,-112,129,19,-148,165,87,-165,-200,-175,-131
-73,-185,-112,129,19,-148,161,78,-165,-200,-175,-131
-73,-185,-112,129,19,-148,156,68,-165,-200,-175,-131
-73,-165,-92,119,9,-129,151,63,-165,-185,-170,-122
-73,-161,-87,117,7,-124,136,58,-161,-180,-165,-117
-73,-151,-78,112,2,-114,126,53,-151,-175,-161,-117
-68,-141,-73,104,2,-107,117,48,-151,-165,-151,-112
-68,-126,-58,97,-4,-92,107,43,-136,-161,-141,-102
-68,-117,-48,92,-9,-82,97,39,-131,-146,-131,-97
-63,-107,-43,85,-9,-75,87,29,-126,-146,-126,-82
-63,-97,-34,80,-14,-65,82,19,-122,-131,-112,-73
-58,-87,-29,73,-14,-58,63,9,-117,-122,-107,-73
-53,-68,-14,61,-19,-41,53,9,-102,-112,-102,-63
-53,-63,-9,58,-21,-36,43,4,-92,-102,-87,-58
-43,-53,-9,48,-17,-31,39,0,-82,-92,-78,-53
-43,-43,0,43,-21,-21,29,-14,-68,-78,-68,-48
-43,-34,9,39,-26,-12,24,-14,-58,-68,-58,-43
-43,-24,19,34,-31,-2,19,-19,-53,-58,-53,-34
-39,-14,24,26,-31,4,4,-24,-48,-58,-48,-24
-29,-4,24,17,-26,9,4,-29,-43,-43,-43,-29
-24,4,29,9,-26,17,0,-34,-39,-43,-39,-29
-19,9,29,4,-24,19,-4,-34,-29,-29,-34,-24
-19,24,43,-2,-31,34,-9,-34,-19,-29,-24,-24
-19,24,43,-2,-31,34,-19,-34,-24,-29,-19,-19
-14,29,43,-7,-29,36,-24,-34,-24,-24,-14,-14
-14,34,48,-9,-31,41,-29,-34,-24,-24,-14,-14
-14,34,48,-9,-31,41,-29,-34,-24,-24,-14,-14
4,34,29,-19,-12,31,-19,-34,-34,-24,-19,-14
9,34,24,-21,-7,29,-24,-34,-29,-24,-19,-14
9,34,24,-21,-7,29,-29,-34,-29,-19,-19,-14
9,34,24,-21,-7,29,-34,-34,-24,-14,-19,-14
0,39,39,-19,-19,39,-34,-34,-24,-24,-19,-14
0,39,39,-19,-19,39,-29,-34,-24,-24,-14,-9
0,39,39,-19,-19,39,-29,-34,-24,-19,-14,-9
0,39,39,-19,-19,39,-29,-29,-24,-19,-14,-14
0,39,39,-19,-19,39,-29,-39,-14,-19,-14,-24
0,39,39,-19,-19,39,-29,-39,-14,-24,-14,-19
0,39,39,-19,-19,39,-29,-39,-14,-24,-14,-19
0,39,39,-19,-19,39,-34,-39,-19,-24,-14,-19
0,48,48,-24,-24,48,-43,-39,-19,-24,-9,-19
0,48,48,-24,-24,48,-43,-39,-19,-24,-9,-19
0,43,43,-21,-21,43,-43,-34,-19,-24,-9,-19
0,43,43,-21,-21,43,-43,-34,-19,-24,-14,-19
0,43,43,-21,-21,43,-48,-34,-19,-14,-14,-19
0,43,43,-21,-21,43,-48,-29,-19,-14,-14,-19
0,43,43,-21,-21,43,-48,-29,-19,-14,-14,-19
0,39,39,-19,-19,39,-48,-29,-19,-14,-14,-24
0,39,39,-19,-19,39,-48,-39,-19,-14,-14,-14
0,39,39,-19,-19,39,-48,-39,-19,-14,-14,-14
0,39,39,-19,-19,39,-48,-39,-19,-14,-14,-14
0,39,39,-19,-19,39,-48,-39,-19,-9,-14,-14
0,39,39,-19,-19,39,-58,-29,-19,-9,-4,-24
0,39,39,-19,-19,39,-58,-29,-19,-9,-4,-24
0,39,39,-19,-19,39,-58,-29,-19,-9,-4,-19
0,39,39,-19,-19,39,-58,-29,-19,-9,0,-19
0,29,29,-14,-14,29,-48,-34,-19,-14,-4,-19
0,29,29,-14,-14,29,-48,-34,-19,-14,-9,-19
0,29,29,-14,-14,29,-48,-34,-19,-9,-14,-19
0,29,29,-14,-14,29,-48,-34,-14,-9,-19,-19
0,29,29,-14,-14,29,-39,-24,-14,-19,-19,-19
0,29,29,-14,-14,29,-39,-24,-14,-19,-19,-19
0,34,34,-17,-17,34,-34,-24,-14,-19,-19,-19
0,34,34,-17,-17,34,-34,-24,-14,-19,-19,-19
0,34,34,-17,-17,34,-29,-34,-14,-19,-19,-19
0,34,34,-17,-17,34,-29,-34,-14,-19,-19,-19
0,34,34,-17,-17,34,-29,-34,-9,-19,-19,-19
0,34,34,-17,-17,34,-29,-34,-9,-19,-19,-19
0,39,39,-19,-19,39,-39,-34,-9,-14,-19,-19
0,43,43,-21,-21,43,-39,-34,-9,-9,-19,-19
0,53,53,-26,-26,53,-39,-34,-9,-4,-19,-19
0,58,58,-29,-29,58,-39,-34,-9,0,-19,-19
0,58,58,-29,-29,58,-48,-34,-19,4,-14,-19
0,58,58,-29,-29,58,-48,-34,-19,4,-9,-19
0,58,58,-29,-29,58,-48,-34,-19,4,-4,-19
0,58,58,-29,-29,58,-53,-34,-14,4,0,-19
0,68,68,-34,-34,68,-43,-34,-14,-4,0,-19
0,73,73,-36,-36,73,-43,-34,-9,-4,0,-19
0,73,73,-36,-36,73,-43,-34,-9,-4,0,-19
0,73,73,-36,-36,73,-43,-34,-9,0,0,-19
0,63,63,-31,-31,63,-43,-34,-9,-9,-9,-19
0,63,63,-31,-31,63,-43,-34,-9,-9,-9,-19
0,63,63,-31,-31,63,-43,-34,-9,-9,-9,-19
0,63,63,-31,-31,63,-39,-34,-4,-9,-9,-19
0,63,63,-31,-31,63,-48,-34,-4,-19,-9,-19
0,63,63,-31,-31,63,-48,-34,-4,-19,-9,-19
0,63,63,-31,-31,63,-48,-34,-4,-19,-9,-19
0,63,63,-31,-31,63,-48,-34,-4,-19,-9,-19
0,73,73,-36,-36,73,-39,-34,4,-9,-9,-19
0,73,73,-36,-36,73,-43,-34,4,-9,-9,-19
0,73,73,-36,-36,73,-43,-34,4,-9,-9,-19
-4,73,78,-34,-41,75,-43,-34,4,-9,-9,-19
-4,63,68,-29,-36,65,-43,-34,4,0,0,-19
-4,68,73,-31,-39,70,-43,-34,0,0,0,-19
0,68,68,-34,-34,68,-43,-34,0,0,0,-19
0,68,68,-34,-34,68,-43,-34,0,0,0,-19
0,68,68,-34,-34,68,-43,-34,9,9,0,-9
0,68,68,-34,-34,68,-43,-34,9,9,0,-9
0,68,68,-34,-34,68,-43,-34,9,4,0,-9
0,68,68,-34,-34,68,-39,-34,9,4,0,-9
-9,58,68,-24,-39,63,-39,-34,0,4,0,-9
-9,58,68,-24,-39,63,-39,-34,0,4,0,-9
-9,58,68,-24,-39,63,-39,-34,0,4,0,-9
-9,58,68,-24,-39,63,-39,-34,0,4,0,-9
-9,58,68,-24,-39,63,-39,-34,9,4,0,-9
-9,58,68,-24,-39,63,-39,-34,9,4,0,-9
-9,58,68,-24,-39,63,-39,-34,9,4,0,-9
-9,53,63,-21,-36,58,-39,-34,9,4,0,-9
-9,43,53,-17,-31,48,-39,-24,9,4,-4,0
-9,43,53,-17,-31,48,-39,-24,9,4,-4,0
-9,43,53,-17,-31,48,-39,-24,9,4,-4,0
-9,43,53,-17,-31,48,-39,-24,9,4,-4,0
-9,43,53,-17,-31,48,-39,-24,9,4,4,0
-9,43,53,-17,-31,48,-34,-24,4,0,4,0
-9,43,53,-17,-31,48,-34,-24,4,0,4,0
-9,43,53,-17,-31,48,-39,-24,4,0,4,0
-9,43,53,-17,-31,48,-39,-14,4,0,4,-9
-9,43,53,-17,-31,48,-39,-14,4,0,4,-9
-9,43,53,-17,-31,48,-39,-14,4,0,4,-9
-9,39,48,-14,-29,43,-39,-14,4,0,4,-9
-9,29,39,-9,-24,34,-39,-24,4,4,0,-9
-9,29,39,-9,-24,34,-39,-19,4,4,0,-9
-9,29,39,-9,-24,34,-39,-19,4,4,0,-9
-14,29,43,-7,-29,36,-39,-19,0,0,0,-9
-24,19,43,2,-34,31,-39,-9,0,0,0,-9
-24,19,43,2,-34,31,-39,-9,0,0,0,-9
-24,19,43,2,-34,31,-43,-9,0,0,0,-9
-19,19,39,0,-29,29,-43,-9,0,4,0,-9
-19,19,39,0,-29,29,-34,-9,0,14,0,-9
-19,19,39,0,-29,29,-34,-9,0,14,0,-9
-19,19,39,0,-29,29,-34,-9,0,14,0,-9
-19,14,34,2,-26,24,-34,-9,0,14,0,-9
-19,4,24,7,-21,14,-24,0,0,4,0,0
-19,4,24,7,-21,14,-24,0,0,4,0,0
-19,4,24,7,-21,14,-24,0,0,0,0,0
-19,4,24,7,-21,14,-24,0,0,0,0,0
-9,4,14,2,-12,9,-24,0,0,0,0,0
-9,4,14,2,-12,9,-24,0,0,0,0,-4
-9,4,14,2,-12,9,-24,0,-4,0,0,-4
-9,4,14,2,-12,9,-24,0,-4,0,0,-4
0,4,4,-2,-2,4,-24,0,-4,0,4,-4
0,0,0,0,0,0,-19,0,-4,0,4,-4
0,0,0,0,0,0,-19,0,-4,0,4,-4
0,0,0,0,0,0,-19,0,-4,0,4,-4
-9,-4,4,7,-7,0,-24,0,-4,-4,4,-14
-9,-4,4,7,-7,0,-24,0,-4,-4,4,-14
-9,-4,4,7,-7,0,-24,0,-4,0,4,-14
-9,-4,4,7,-7,0,-24,0,-4,0,4,-14
-9,-9,0,9,-4,-4,-24,14,4,4,4,-4
-9,-9,0,9,-4,-4,-24,14,4,4,4,-4
-9,-9,0,9,-4,-4,-24,14,4,4,4,-4
-9,-9,0,9,-4,-4,-24,19,0,4,4,-4
-9,-9,0,9,-4,-4,-24,9,0,4,4,-4
-9,-9,0,9,-4,-4,-24,9,0,4,0,-4
-9,-9,0,9,-4,-4,-24,4,0,4,0,-4
-9,-14,-4,12,-2,-9,-24,4,0,0,0,-4
-19,-4,14,12,-17,4,-24,4,0,9,9,-4
-19,-4,14,12,-17,4,-24,4,0,9,9,-4
-14,-4,9,9,-12,2,-24,4,0,9,9,-4
-14,-4,9,9,-12,2,-24,0,0,9,9,-4
-14,4,19,4,-17,12,-24,-4,0,9,9,-4
-14,4,19,4,-17,12,-24,-9,0,9,9,-4
-14,4,19,4,-17,12,-24,-14,0,9,9,-4
-19,4,24,7,-21,14,-24,-19,0,14,9,-4
-9,14,24,-2,-17,19,-24,-19,0,24,9,-4
-9,9,19,0,-14,14,-29,-9,9,19,9,0
-9,9,19,0,-14,14,-29,0,19,19,9,0
-9,9,19,0,-14,14,-29,0,19,19,9,0
-9,9,19,0,-14,14,-29,0,19,19,9,0
-9,9,19,0,-14,14,-29,0,19,19,9,0
0,19,19,-9,-9,19,-29,0,19,24,14,14
0,19,19,-9,-9,19,-24,0,24,24,19,14
0,24,24,-12,-12,24,-24,0,29,24,19,14
0,24,24,-12,-12,24,-24,-4,34,29,24,14
0,39,39,-19,-19,39,-14,-4,34,39,14,19
0,39,39,-19,-19,39,-4,-4,43,39,24,19
0,39,39,-19,-19,39,-4,-4,43,39,24,19
4,43,39,-24,-17,41,-4,0,48,39,24,24
4,48,43,-26,-19,46,0,-9,48,48,29,24
4,53,48,-29,-21,51,0,-9,48,48,34,29
4,53,48,-29,-21,51,0,-14,48,53,34,29
4,58,53,-31,-24,56,0,-14,53,53,43,34
19,73,53,-46,-17,63,-9,-19,68,63,53,34
19,78,58,-48,-19,68,-9,-19,68,68,53,34
24,82,58,-53,-17,70,-9,-19,68,68,53,34
29,87,58,-58,-14,73,-19,-14,68,68,53,34
34,97,63,-65,-14,80,-19,-14,63,63,53,39
39,97,58,-68,-9,78,-24,-14,63,63,58,39
39,97,58,-68,-9,78,-29,-14,63,63,58,39
43,102,58,-73,-7,80,-34,-14,63,63,58,43
48,92,43,-70,2,68,-43,-4,63,63,48,43
48,97,48,-73,0,73,-53,-4,58,63,48,43
58,97,39,-78,9,68,-58,-4,53,63,48,43
58,97,39,-78,9,68,-63,-4,53,58,48,43
58,92,34,-75,12,63,-68,-4,39,48,48,43
58,87,29,-73,14,58,-78,-4,34,43,43,43
63,82,19,-73,21,51,-87,-4,29,43,43,43
63,73,9,-68,26,41,-97,-4,19,39,39,43
63,68,4,-65,29,36,-92,4,24,34,34,34
63,63,0,-63,31,31,-92,4,19,29,29,29
68,58,-9,-63,39,24,-92,4,14,24,29,24
68,53,-14,-61,41,19,-92,9,9,19,24,19
68,39,-29,-53,48,4,-92,9,-4,14,19,19
73,29,-43,-51,58,-7,-92,19,-14,9,14,14
73,19,-53,-46,63,-17,-87,19,-14,4,14,9
73,14,-58,-43,65,-21,-82,19,-19,0,9,9
73,0,-73,-36,73,-36,-82,9,-34,-14,-4,0
68,-4,-73,-31,70,-39,-82,9,-34,-14,-4,0
68,-4,-73,-31,70,-39,-78,14,-34,-14,-4,0
68,-4,-73,-31,70,-39,-78,14,-34,-14,-4,0
63,4,-58,-34,61,-26,-78,14,-34,-24,-4,-4
63,4,-58,-34,61,-26,-68,14,-34,-19,-4,-4
63,4,-58,-34,61,-26,-68,14,-29,-19,-4,-4
63,4,-58,-34,61,-26,-68,14,-29,-14,-4,-4
63,14,-48,-39,56,-17,-78,0,-24,-9,14,0
63,24,-39,-43,51,-7,-78,0,-24,-4,14,0
63,29,-34,-46,48,-2,-73,0,-19,0,14,0
63,29,-34,-46,48,-2,-73,0,-19,9,14,4
63,39,-24,-51,43,7,-73,4,-4,9,19,4
63,39,-24,-51,43,7,-73,4,-4,9,19,9
63,39,-24,-51,43,7,-78,4,-4,14,19,9
63,39,-24,-51,43,7,-78,4,-4,14,19,9
58,29,-29,-43,43,0,-78,-4,-14,14,19,9
48,29,-19,-39,34,4,-73,-9,-14,9,19,9
48,29,-19,-39,34,4,-73,-9,-19,9,19,9
43,19,-24,-31,34,-2,-68,-9,-19,9,14,0
29,4,-24,-17,26,-9,-63,-14,-19,0,0,0
19,-4,-24,-7,21,-14,-58,-14,-24,-4,0,0
14,-14,-29,0,21,-21,-53,-14,-24,-4,-4,-4
9,-14,-24,2,17,-19,-53,-14,-24,-4,-9,-9
-4,-29,-24,17,9,-26,-39,-14,-24,-14,-19,-24
-9,-39,-29,24,9,-34,-34,-14,-29,-19,-24,-29
-14,-43,-29,29,7,-36,-29,-14,-29,-24,-29,-34
-19,-48,-29,34,4,-39,-24,-14,-34,-24,-34,-39
-19,-63,-43,41,12,-53,-24,-14,-43,-34,-43,-43
-19,-73,-53,46,17,-63,-24,-14,-48,-39,-48,-48
-14,-78,-63,46,24,-70,-24,-14,-48,-43,-48,-48
-14,-78,-63,46,24,-70,-24,-9,-48,-48,-48,-48
-14,-73,-58,43,21,-65,-24,0,-48,-48,-48,-48
-14,-73,-58,43,21,-65,-24,0,-48,-53,-48,-48
-9,-73,-63,41,26,-68,-24,0,-48,-53,-48,-48
-4,-73,-68,39,31,-70,-24,0,-48,-53,-48,-48
4,-73,-78,34,41,-75,-24,0,-53,-53,-48,-48
4,-73,-78,34,41,-75,-24,-4,-53,-53,-48,-48
4,-73,-78,34,41,-75,-24,-4,-53,-53,-48,-48
9,-73,-82,31,46,-78,-24,-4,-53,-53,-48,-48
9,-58,-68,24,39,-63,-19,-4,-48,-43,-39,-39
4,-58,-63,26,34,-61,-19,-4,-48,-39,-39,-39
4,-58,-63,26,34,-61,-19,-4,-43,-39,-39,-39
4,-58,-63,26,34,-61,-19,-4,-43,-39,-39,-39
4,-68,-73,31,39,-70,-14,-4,-34,-34,-29,-43
4,-68,-73,31,39,-70,-4,4,-29,-39,-29,-34
4,-63,-68,29,36,-65,0,-4,-24,-29,-34,-34
0,-63,-63,31,31,-63,14,-4,-9,-24,-34,-39
-19,-63,-43,41,12,-53,34,9,9,-24,-34,-43
-34,-78,-43,56,4,-61,68,19,24,-14,-34,-58
-43,-97,-53,70,4,-75,112,29,34,-24,-53,-78
-63,-117,-53,90,-4,-85,165,53,53,-34,-68,-92
-82,-126,-43,104,-19,-85,200,58,68,-29,-78,-112
-82,-122,-39,102,-21,-80,219,58,92,-14,-78,-112
-87,-97,-9,92,-39,-53,234,68,131,19,-58,-107
-73,-68,4,70,-39,-31,239,82,185,58,-34,-107
-58,-14,43,36,-51,14,239,87,273,126,9,-82
-43,78,122,-17,-82,100,219,73,395,239,82,-43
-39,234,273,-97,-156,253,180,14,566,385,204,43
-9,439,448,-214,-229,444,126,-63,766,575,356,151
19,697,678,-358,-329,688,58,-151,1024,814,546,283
58,1010,951,-534,-446,980,-34,-258,1307,1093,775,453
126,1337,1210,-732,-541,1273,-146,-346,1581,1376,1010,624
234,1600,1366,-917,-566,1483,-273,-385,1698,1566,1215,771
317,1727,1410,-1022,-546,1568,-326,-370,1668,1610,1312,888
390,1595,1205,-993,-407,1400,-283,-273,1464,1459,1249,883
439,1288,849,-863,-204,1068,-229,-136,1034,1117,1044,795
429,1049,619,-739,-95,834,-273,-131,531,785,868,756
317,961,644,-639,-163,802,-375,-283,156,590,795,780
146,897,751,-522,-302,824,-468,-478,-92,463,756,795
34,756,722,-395,-344,739,-488,-566,-283,312,658,746
-34,590,624,-278,-329,607,-429,-522,-419,170,531,649
-68,448,517,-190,-292,483,-351,-463,-468,63,409,551
-97,307,405,-104,-251,356,-278,-419,-507,-39,307,458
-131,136,268,-2,-200,202,-175,-331,-546,-146,165,336
-141,-43,97,92,-119,26,-43,-224,-570,-263,24,185
-136,-156,-19,146,-58,-87,24,-126,-566,-302,-68,97
-107,-219,-112,163,2,-165,19,-48,-566,-326,-112,43
-63,-278,-214,170,75,-246,4,39,-556,-356,-161,-24
-34,-307,-273,170,119,-290,-9,87,-551,-375,-200,-58
-19,-292,-273,156,126,-283,-39,107,-527,-370,-204,-78
-9,-278,-268,143,129,-273,-48,102,-488,-356,-204,-87
-4,-263,-258,134,126,-261,-34,102,-429,-326,-195,-107
-19,-234,-214,126,97,-224,-9,97,-351,-278,-180,-107
-24,-185,-161,104,68,-173,14,78,-244,-200,-131,-97
-34,-151,-117,92,41,-134,39,68,-156,-141,-102,-87
-34,-146,-112,90,39,-129,58,78,-126,-122,-97,-87
-29,-122,-92,75,31,-107,68,73,-107,-112,-92,-82
-29,-112,-82,70,26,-97,73,68,-112,-107,-82,-78
-29,-92,-63,61,17,-78,63,43,-107,-107,-78,-68
-34,-87,-53,61,9,-70,58,24,-97,-107,-78,-63
-34,-87,-53,61,9,-70,48,9,-73,-97,-78,-53
-34,-92,-58,63,12,-75,48,9,-63,-87,-73,-53
-34,-92,-58,63,12,-75,48,14,-63,-87,-73,-58
-34,-92,-58,63,12,-75,48,14,-63,-87,-73,-58
-29,-92,-63,61,17,-78,53,24,-53,-78,-68,-58
-29,-92,-63,61,17,-78,53,19,-53,-78,-68,-58
-34,-97,-63,65,14,-80,53,14,-53,-78,-68,-58
-34,-102,-68,68,17,-85,53,14,-53,-78,-73,-58
-43,-102,-58,73,7,-80,53,4,-58,-87,-73,-63
-43,-102,-58,73,7,-80,53,4,-53,-78,-78,-63
-39,-97,-58,68,9,-78,48,9,-48,-78,-78,-63
-39,-97,-58,68,9,-78,48,9,-43,-73,-73,-58
-39,-87,-48,63,4,-68,39,19,-43,-63,-73,-58
-39,-87,-48,63,4,-68,39,19,-48,-68,-73,-58
-39,-97,-58,68,9,-78,39,9,-48,-68,-73,-58
-39,-97,-58,68,9,-78,39,9,-48,-68,-73,-58
-39,-97,-58,68,9,-78,39,0,-39,-68,-73,-58
-39,-97,-58,68,9,-78,39,9,-34,-63,-73,-63
-39,-87,-48,63,4,-68,43,14,-34,-58,-68,-63
-34,-82,-48,58,7,-65,43,14,-34,-58,-68,-63
-34,-82,-48,58,7,-65,43,24,-34,-48,-68,-58
-34,-78,-43,56,4,-61,43,24,-34,-48,-68,-58
-39,-78,-39,58,0,-58,43,14,-34,-48,-73,-58
-39,-82,-43,61,2,-63,48,9,-34,-48,-73,-58
-39,-82,-43,61,2,-63,48,0,-43,-48,-63,-58
-39,-82,-43,61,2,-63,43,0,-34,-48,-63,-58
-39,-82,-43,61,2,-63,43,9,-34,-43,-63,-63
-39,-82,-43,61,2,-63,43,9,-34,-43,-63,-63
-39,-78,-39,58,0,-58,43,9,-34,-43,-68,-63
-39,-73,-34,56,-2,-53,43,9,-34,-39,-63,-58
-43,-73,-29,58,-7,-51,43,9,-34,-39,-63,-58
-43,-78,-34,61,-4,-56,43,4,-34,-39,-63,-58
-43,-78,-34,61,-4,-56,43,4,-34,-48,-63,-58
-43,-82,-39,63,-2,-61,43,4,-34,-48,-68,-58
-43,-82,-39,63,-2,-61,43,4,-29,-48,-68,-58
-39,-82,-43,61,2,-63,43,14,-29,-48,-68,-58
-39,-78,-39,58,0,-58,53,24,-29,-43,-58,-48
-39,-68,-29,53,-4,-48,53,24,-29,-43,-53,-48
-39,-68,-29,53,-4,-48,53,19,-29,-43,-53,-48
-39,-78,-39,58,0,-58,48,14,-29,-43,-53,-48
-39,-87,-48,63,4,-68,48,9,-34,-53,-63,-48
-43,-87,-43,65,0,-65,48,9,-34,-53,-68,-53
-43,-87,-43,65,0,-65,48,9,-29,-53,-68,-53
-43,-82,-39,63,-2,-61,48,19,-29,-53,-68,-53
-34,-73,-39,53,2,-56,48,24,-19,-43,-58,-53
-29,-68,-39,48,4,-53,53,24,-19,-43,-58,-48
-29,-68,-39,48,4,-53,53,24,-24,-43,-58,-48
-29,-68,-39,48,4,-53,53,19,-24,-43,-58,-48
-39,-73,-34,56,-2,-53,58,14,-24,-43,-58,-48
-43,-78,-34,61,-4,-56,58,14,-24,-43,-58,-48
-43,-78,-34,61,-4,-56,58,14,-24,-48,-58,-48
-39,-78,-39,58,0,-58,58,24,-19,-48,-58,-53
-39,-78,-39,58,0,-58,58,29,-19,-48,-58,-53
-39,-73,-34,56,-2,-53,58,29,-19,-48,-58,-53
-39,-73,-34,56,-2,-53,58,29,-19,-48,-58,-53
-39,-73,-34,56,-2,-53,58,29,-24,-48,-58,-53
-43,-87,-43,65,0,-65,63,19,-24,-58,-68,-53
-48,-87,-39,68,-4,-63,63,19,-24,-58,-68,-53
-53,-87,-34,70,-9,-61,63,24,-24,-58,-68,-53
-58,-87,-29,73,-14,-58,63,24,-19,-58,-68,-53
-53,-87,-34,70,-9,-61,73,29,-19,-48,-68,-63
-53,-87,-34,70,-9,-61,73,34,-19,-48,-68,-63
-53,-87,-34,70,-9,-61,73,34,-19,-48,-68,-63
-53,-87,-34,70,-9,-61,73,34,-24,-48,-68,-63
-53,-87,-34,70,-9,-61,73,34,-34,-58,-68,-63
-53,-87,-34,70,-9,-61,73,29,-34,-63,-73,-63
-53,-92,-39,73,-7,-65,73,29,-34,-63,-78,-68
-53,-92,-39,73,-7,-65,73,29,-29,-63,-78,-68
-53,-92,-39,73,-7,-65,73,34,-19,-63,-78,-68
-53,-92,-39,73,-7,-65,73,39,-19,-63,-78,-68
-48,-92,-43,70,-2,-68,73,39,-19,-63,-73,-68
-48,-92,-43,70,-2,-68,73,39,-24,-63,-73,-68
-48,-82,-34,65,-7,-58,73,39,-24,-58,-68,-58
-53,-87,-34,70,-9,-61,78,39,-24,-58,-68,-58
-53,-87,-34,70,-9,-61,78,39,-29,-63,-73,-58
-53,-92,-39,73,-7,-65,78,39,-29,-63,-73,-63
-43,-92,-48,68,2,-70,78,39,-24,-53,-73,-63
-43,-87,-43,65,0,-65,78,48,-24,-53,-73,-63
-43,-87,-43,65,0,-65,78,48,-24,-53,-73,-63
-39,-82,-43,61,2,-63,82,48,-24,-53,-73,-63
-39,-82,-43,61,2,-63,82,58,-24,-58,-63,-63
-39,-92,-53,65,7,-73,82,53,-24,-58,-68,-68
-43,-92,-48,68,2,-70,82,53,-24,-58,-68,-68
-43,-97,-53,70,4,-75,87,53,-24,-58,-68,-68
-43,-107,-63,75,9,-85,87,43,-19,-58,-73,-68
-39,-102,-63,70,12,-82,97,53,-19,-58,-73,-68
-39,-102,-63,70,12,-82,97,53,-19,-63,-73,-68
-39,-102,-63,70,12,-82,97,53,-19,-63,-73,-73
-39,-107,-68,73,14,-87,92,63,-24,-63,-73,-63
-48,-107,-58,78,4,-82,92,63,-24,-63,-73,-63
-48,-117,-68,82,9,-92,92,63,-29,-73,-73,-63
-43,-117,-73,80,14,-95,92,63,-29,-73,-82,-68
-43,-126,-82,85,19,-104,97,53,-24,-73,-87,-73
-43,-126,-82,85,19,-104,97,63,-24,-73,-87,-73
-43,-126,-82,85,19,-104,107,68,-24,-73,-87,-73
-43,-126,-82,85,19,-104,112,68,-24,-73,-87,-73
-43,-131,-87,87,21,-109,117,78,-34,-78,-87,-73
-43,-131,-87,87,21,-109,122,78,-39,-87,-97,-73
-43,-126,-82,85,19,-104,122,78,-43,-92,-102,-82
-43,-126,-82,85,19,-104,117,78,-43,-92,-102,-87
-58,-141,-82,100,12,-112,117,68,-43,-102,-112,-87
-58,-141,-82,100,12,-112,117,78,-43,-102,-112,-87
-58,-141,-82,100,12,-112,126,78,-48,-102,-117,-87
-58,-141,-82,100,12,-112,126,78,-48,-112,-117,-92
-58,-141,-82,100,12,-112,126,82,-58,-112,-117,-92
-58,-146,-87,102,14,-117,136,82,-63,-117,-126,-92
-58,-151,-92,104,17,-122,136,82,-63,-122,-131,-102
-58,-156,-97,107,19,-126,136,82,-68,-126,-136,-107
-63,-161,-97,112,17,-129,146,73,-78,-131,-131,-107
-63,-165,-102,114,19,-134,146,82,-78,-136,-131,-112
-63,-165,-102,114,19,-134,146,82,-82,-136,-136,-117
-63,-170,-107,117,21,-139,151,82,-87,-141,-141,-117
-53,-161,-107,107,26,-134,156,92,-82,-136,-141,-117
-63,-165,-102,114,19,-134,156,92,-92,-141,-146,-117
-63,-170,-107,117,21,-139,161,92,-97,-146,-151,-117
-63,-180,-117,122,26,-148,161,92,-102,-151,-151,-126
-63,-175,-112,119,24,-143,161,82,-112,-165,-165,-136
-63,-180,-117,122,26,-148,165,82,-112,-170,-170,-136
-63,-180,-117,122,26,-148,165,87,-117,-170,-170,-136
-63,-190,-126,126,31,-158,170,92,-122,-175,-170,-136
-68,-200,-131,134,31,-165,180,102,-126,-180,-170,-136
-73,-195,-122,134,24,-158,180,97,-131,-180,-170,-136
-78,-195,-117,136,19,-156,180,92,-136,-185,-175,-136
-78,-204,-126,141,24,-165,185,87,-136,-190,-175,-136
-78,-214,-136,146,29,-175,185,78,-136,-190,-180,-131
-78,-209,-131,143,26,-170,185,78,-136,-190,-180,-131
-78,-209,-131,143,26,-170,185,78,-136,-190,-180,-131
-78,-204,-126,141,24,-165,185,78,-136,-190,-180,-131
-78,-195,-117,136,19,-156,165,78,-126,-180,-170,-122
-82,-185,-102,134,9,-143,165,78,-136,-180,-165,-112
-82,-185,-102,134,9,-143,161,68,-136,-180,-165,-112
-82,-185,-102,134,9,-143,156,58,-136,-180,-165,-112
-82,-175,-92,129,4,-134,151,53,-136,-175,-161,-102
-82,-170,-87,126,2,-129,136,48,-131,-170,-156,-97
-82,-161,-78,122,-2,-119,126,43,-122,-165,-151,-97
-78,-151,-73,114,-2,-112,117,39,-122,-156,-141,-92
-68,-136,-68,102,0,-102,107,34,-107,-141,-131,-82
-68,-126,-58,97,-4,-92,97,29,-102,-126,-122,-78
-63,-117,-53,90,-4,-85,87,19,-97,-126,-117,-63
-63,-107,-43,85,-9,-75,82,9,-92,-112,-102,-53
-68,-107,-39,87,-14,-73,73,0,-97,-112,-97,-53
-63,-87,-24,75,-19,-56,63,0,-82,-102,-92,-43
-63,-82,-19,73,-21,-51,53,-4,-73,-92,-78,-39
-53,-73,-19,63,-17,-46,48,-9,-63,-82,-68,-34
-53,-63,-9,58,-21,-36,48,-14,-48,-58,-58,-29
-53,-53,0,53,-26,-26,43,-14,-39,-48,-48,-24
-53,-43,9,48,-31,-17,39,-19,-34,-39,-43,-14
-48,-34,14,41,-31,-9,24,-24,-29,-39,-39,-4
-48,-24,24,36,-36,0,14,-29,-34,-34,-24,0
-43,-14,29,29,-36,7,9,-34,-29,-34,-19,0
-39,-9,29,24,-34,9,4,-34,-19,-19,-14,4
-39,4,43,17,-41,24,0,-34,-9,-19,-4,4
-29,4,34,12,-31,19,0,-24,4,0,0,9
-24,9,34,7,-29,21,-4,-24,4,4,4,14
-24,14,39,4,-31,26,-9,-24,4,4,4,14
-24,14,39,4,-31,26,-9,-24,4,4,4,14
-14,14,29,0,-21,21,-19,-24,-4,4,9,24
-9,14,24,-2,-17,19,-24,-24,0,4,9,24
-9,14,24,-2,-17,19,-29,-24,0,9,9,24
-9,14,24,-2,-17,19,-34,-24,4,14,9,24
0,9,9,-4,-4,9,-34,-24,4,14,0,14
0,9,9,-4,-4,9,-29,-24,4,14,4,19
0,9,9,-4,-4,9,-29,-24,4,19,4,19
0,9,9,-4,-4,9,-29,-19,4,19,4,14
0,9,9,-4,-4,9,-39,-9,4,9,4,14
0,9,9,-4,-4,9,-39,-9,4,4,4,19
0,9,9,-4,-4,9,-39,-9,4,4,4,19
0,9,9,-4,-4,9,-43,-9,0,4,4,19
0,9,9,-4,-4,9,-34,-19,9,4,9,19
0,9,9,-4,-4,9,-34,-19,9,4,9,19
0,4,4,-2,-2,4,-34,-14,9,4,9,19
0,4,4,-2,-2,4,-34,-14,9,4,4,19
-9,4,14,2,-12,9,-29,-14,9,14,14,19
-9,4,14,2,-12,9,-29,-9,9,14,14,19
-9,4,14,2,-12,9,-29,-9,9,14,14,19
-9,0,9,4,-9,4,-29,-9,9,14,14,14
-19,9,29,4,-24,19,-19,0,0,14,14,24
-19,9,29,4,-24,19,-19,0,0,14,14,24
-19,9,29,4,-24,19,-19,0,0,14,14,24
-19,9,29,4,-24,19,-19,0,0,19,14,24
-19,0,19,9,-19,9,-19,0,0,9,14,14
-19,0,19,9,-19,9,-19,0,0,9,14,14
-19,0,19,9,-19,9,-19,0,0,9,14,19
-19,0,19,9,-19,9,-19,0,0,9,19,19
-19,0,19,9,-19,9,-29,-14,0,4,9,19
-19,0,19,9,-19,9,-29,-14,0,4,9,19
-19,0,19,9,-19,9,-29,-14,0,9,9,19
-19,0,19,9,-19,9,-29,-14,4,9,9,19
-19,0,19,9,-19,9,-29,-14,-4,0,9,19
-19,0,19,9,-19,9,-29,-14,-4,0,9,19
-19,4,24,7,-21,14,-24,-14,-4,0,9,19
-19,4,24,7,-21,14,-24,-14,-4,0,9,19
-19,4,24,7,-21,14,-19,-14,4,0,9,19
-19,4,24,7,-21,14,-19,-14,4,0,9,19
-19,4,24,7,-21,14,-19,-14,9,0,9,19
-19,4,24,7,-21,14,-19,-14,9,0,9,19
-9,-4,4,7,-7,0,-19,-4,9,0,9,29
-9,-4,4,7,-7,0,-19,-4,9,0,9,29
-9,0,9,4,-9,4,-19,-4,9,0,9,29
-9,0,9,4,-9,4,-19,-4,9,0,9,29
-19,0,19,9,-19,9,-19,-4,19,14,19,29
-19,0,19,9,-19,9,-19,-4,19,14,19,29
-19,0,19,9,-19,9,-19,-4,19,14,19,29
-19,0,19,9,-19,9,-24,-4,24,14,19,29
-19,0,19,9,-19,9,-24,-4,24,14,19,29
-19,4,24,7,-21,14,-24,-4,29,14,19,29
-19,4,24,7,-21,14,-24,-4,29,14,19,29
-19,4,24,7,-21,14,-24,-4,29,19,19,29
-19,4,24,7,-21,14,-24,-4,29,19,29,19
-19,4,24,7,-21,14,-24,-4,29,19,29,19
-19,4,24,7,-21,14,-24,-4,29,19,29,19
-19,4,24,7,-21,14,-19,-4,34,19,29,19
-9,4,14,2,-12,9,-19,-4,34,19,19,19
-9,4,14,2,-12,9,-19,-4,34,19,19,19
-9,4,14,2,-12,9,-19,-4,34,19,19,19
-9,4,14,2,-12,9,-19,-4,34,19,19,19
-9,4,14,2,-12,9,-19,-4,24,9,9,19
-9,4,14,2,-12,9,-24,-4,24,9,9,19
-9,4,14,2,-12,9,-24,-4,24,9,9,19
-14,4,19,4,-17,12,-24,-4,24,9,9,19
-14,4,19,4,-17,12,-24,-4,24,9,9,9
-14,9,24,2,-19,17,-24,-4,19,9,9,9
-9,9,19,0,-14,14,-24,-4,19,9,9,9
-9,9,19,0,-14,14,-24,-4,19,9,9,9
-9,19,29,-4,-19,24,-24,4,19,9,9,9
-9,19,29,-4,-19,24,-24,4,19,9,9,9
-9,19,29,-4,-19,24,-24,4,19,4,9,9
-9,19,29,-4,-19,24,-19,4,19,4,9,9
0,19,19,-9,-9,19,-29,-4,19,14,19,9
0,19,19,-9,-9,19,-29,-4,19,14,19,9
0,19,19,-9,-9,19,-29,-4,19,14,19,9
0,19,19,-9,-9,19,-29,-4,19,14,19,9
0,29,29,-14,-14,29,-19,-4,29,4,9,9
0,29,29,-14,-14,29,-19,-4,29,4,9,9
0,29,29,-14,-14,29,-19,-4,29,4,9,9
0,24,24,-12,-12,24,-19,-4,29,4,9,9
-9,24,34,-7,-21,29,-19,-14,19,4,4,0
-9,24,34,-7,-21,29,-19,-14,19,4,4,0
-9,24,34,-7,-21,29,-19,-14,19,4,4,0
-9,24,34,-7,-21,29,-19,-14,19,4,4,0
-9,24,34,-7,-21,29,-29,-14,19,4,4,0
-9,24,34,-7,-21,29,-24,-14,14,0,4,0
-9,24,34,-7,-21,29,-24,-14,14,0,4,0
-9,24,34,-7,-21,29,-29,-14,14,0,4,0
-9,24,34,-7,-21,29,-29,-14,14,0,4,0
-9,24,34,-7,-21,29,-29,-14,14,0,4,0
-9,24,34,-7,-21,29,-29,-14,14,0,4,0
-9,19,29,-4,-19,24,-29,-14,14,0,4,0
0,29,29,-14,-14,29,-29,-14,14,4,9,9
0,29,29,-14,-14,29,-29,-9,14,4,9,9
0,29,29,-14,-14,29,-29,-9,14,4,9,9
-4,29,34,-12,-19,31,-29,-9,9,0,9,9
-4,29,34,-12,-19,31,-29,-9,9,0,9,0
-4,29,34,-12,-19,31,-29,-9,9,0,9,0
-4,29,34,-12,-19,31,-34,-9,9,0,9,0
0,29,29,-14,-14,29,-34,-9,9,4,9,0
0,29,29,-14,-14,29,-34,0,9,-4,9,0
0,29,29,-14,-14,29,-34,0,9,-4,9,0
0,29,29,-14,-14,29,-34,0,9,-4,9,0
0,24,24,-12,-12,24,-34,0,9,-4,9,0
0,14,14,-7,-7,14,-24,0,9,-4,9,0
0,14,14,-7,-7,14,-24,0,9,-4,9,0
0,14,14,-7,-7,14,-24,0,9,-9,9,0
0,14,14,-7,-7,14,-24,0,9,-9,9,0
0,14,14,-7,-7,14,-24,0,9,-9,9,9
0,14,14,-7,-7,14,-24,0,9,-9,9,4
0,14,14,-7,-7,14,-24,0,4,-9,9,4
0,14,14,-7,-7,14,-24,0,4,-9,9,4
0,14,14,-7,-7,14,-24,0,4,0,4,4
0,9,9,-4,-4,9,-19,0,4,0,4,4
0,9,9,-4,-4,9,-19,0,4,0,4,4
0,9,9,-4,-4,9,-19,0,4,0,4,4
0,14,14,-7,-7,14,-24,0,4,-4,4,4
0,14,14,-7,-7,14,-24,0,4,-4,4,4
0,14,14,-7,-7,14,-24,0,4,0,4,4
0,14,14,-7,-7,14,-24,0,4,0,4,4
0,19,19,-9,-9,19,-34,0,4,4,-4,4
0,19,19,-9,-9,19,-34,-4,4,4,-4,4
0,19,19,-9,-9,19,-34,-9,4,4,-4,4
0,19,19,-9,-9,19,-34,-9,0,4,-4,4
0,9,9,-4,-4,9,-34,0,9,4,-4,4
0,9,9,-4,-4,9,-34,0,9,4,-9,4
0,9,9,-4,-4,9,-34,-4,9,4,-9,4
0,4,4,-2,-2,4,-34,-4,9,0,-9,4
0,-4,-4,2,2,-4,-34,4,9,-9,0,4
0,-4,-4,2,2,-4,-34,4,9,-9,0,4
4,-4,-9,0,7,-7,-34,4,9,-9,0,4
4,-4,-9,0,7,-7,-34,0,9,-9,0,4
4,-4,-9,0,7,-7,-34,9,9,-9,0,4
4,-4,-9,0,7,-7,-34,9,9,-9,0,4
4,-4,-9,0,7,-7,-34,9,9,-9,0,4
0,-4,-4,2,2,-4,-34,9,9,-4,0,4
0,-4,-4,2,2,-4,-24,9,9,-4,0,4
0,-4,-4,2,2,-4,-24,9,9,-4,0,4
0,-4,-4,2,2,-4,-24,9,9,-9,0,4
0,-4,-4,2,2,-4,-24,9,9,-9,0,4
0,0,0,0,0,0,-24,9,0,-9,0,4
0,0,0,0,0,0,-24,9,0,-9,0,4
0,0,0,0,0,0,-24,9,0,-4,0,4
4,0,-4,-2,4,-2,-24,9,0,-4,0,4
4,0,-4,-2,4,-2,-24,9,0,-4,0,14
4,0,-4,-2,4,-2,-24,9,0,-4,4,14
4,0,-4,-2,4,-2,-24,9,0,-4,4,14
4,0,-4,-2,4,-2,-24,9,0,-4,4,14
4,-9,-14,2,9,-12,-34,0,0,-4,4,9
4,-9,-14,2,9,-12,-34,0,0,-4,4,9
4,-9,-14,2,9,-12,-34,0,0,-4,4,9
4,-9,-14,2,9,-12,-34,0,0,0,4,9
-4,-14,-9,9,2,-12,-24,0,-9,-9,4,9
-4,-14,-9,9,2,-12,-24,-4,-9,-9,4,4
0,-14,-14,7,7,-14,-29,-4,-9,-9,4,4
0,-14,-14,7,7,-14,-29,-4,-9,-9,4,4
0,-14,-14,7,7,-14,-29,0,-9,-14,-4,-4
0,-14,-14,7,7,-14,-29,0,-9,-14,-4,-4
0,-14,-14,7,7,-14,-29,0,-9,-14,-4,-4
0,-14,-14,7,7,-14,-29,0,-9,-14,-4,-4
9,-14,-24,2,17,-19,-29,0,0,-14,0,-4
9,-14,-24,2,17,-19,-29,0,0,-14,0,-4
9,-14,-24,2,17,-19,-29,0,0,-14,0,-4
14,-14,-29,0,21,-21,-29,0,-4,-14,0,-4
4,-14,-19,4,12,-17,-29,0,-4,-14,0,-4
4,-19,-24,7,14,-21,-34,0,-4,-19,0,-4
4,-19,-24,7,14,-21,-34,0,-4,-19,0,-4
4,-19,-24,7,14,-21,-34,0,-4,-19,0,-4
4,-19,-24,7,14,-21,-34,0,-4,-19,0,-4
4,-19,-24,7,14,-21,-34,0,-4,-19,0,-4
4,-19,-24,7,14,-21,-34,0,-4,-19,0,-4
4,-19,-24,7,14,-21,-34,0,-4,-19,0,-4
4,-19,-24,7,14,-21,-24,0,-14,-19,0,-14
4,-19,-24,7,14,-21,-29,0,-14,-19,0,-14
4,-19,-24,7,14,-21,-19,0,-14,-19,0,-14
0,-19,-19,9,9,-19,-24,9,-14,-19,0,-14
0,-19,-19,9,9,-19,-19,0,-9,-19,0,-9
0,-19,-19,9,9,-19,-19,0,-9,-9,0,-9
0,-19,-19,9,9,-19,-19,0,-9,-9,0,-9
0,-19,-19,9,9,-19,-19,0,-9,-9,0,-9
0,-19,-19,9,9,-19,-19,0,-9,-9,0,-9
0,0,0,0,0,0,-29,0,0,4,4,-4
0,0,0,0,0,0,-24,0,4,4,9,-4
0,4,4,-2,-2,4,-24,0,9,4,9,-4
0,4,4,-2,-2,4,-24,-4,14,9,14,-4
0,14,14,-7,-7,14,-24,-4,4,9,14,9
0,19,19,-9,-9,19,-14,-4,14,9,24,9
0,24,24,-12,-12,24,-14,-4,14,9,24,9
4,34,29,-19,-12,31,-14,0,19,9,24,14
4,39,34,-21,-14,36,0,-9,29,19,29,14
4,43,39,-24,-17,41,0,-9,29,19,34,19
4,43,39,-24,-17,41,0,-14,29,24,34,19
4,48,43,-26,-19,46,0,-14,34,24,43,24
9,63,53,-36,-21,58,0,-19,48,34,43,24
9,68,58,-39,-24,63,0,-19,48,39,43,24
14,73,58,-43,-21,65,0,-19,48,39,43,24
19,78,58,-48,-19,68,-9,-14,48,39,43,24
24,78,53,-51,-14,65,-19,-14,53,43,43,29
29,78,48,-53,-9,63,-24,-14,53,43,48,29
29,78,48,-53,-9,63,-29,-14,53,43,48,29
34,82,48,-58,-7,65,-34,-14,53,43,48,34
39,82,43,-61,-2,63,-53,-14,53,43,48,43
39,87,48,-63,-4,68,-63,-14,48,43,48,43
48,87,39,-68,4,63,-68,-14,43,43,48,43
48,87,39,-68,4,63,-73,-14,43,39,48,43
58,87,29,-73,14,58,-87,-14,48,39,48,43
58,87,29,-73,14,58,-97,-14,43,34,43,43
63,87,24,-75,19,56,-107,-14,39,34,43,43
63,82,19,-73,21,51,-117,-14,29,29,39,43
73,78,4,-75,34,41,-112,-4,24,24,34,43
73,73,0,-73,36,36,-112,-4,19,19,29,39
78,68,-9,-73,43,29,-112,-4,14,14,29,34
78,63,-14,-70,46,24,-112,0,9,9,24,29
78,48,-29,-63,53,9,-112,0,-4,-4,9,19
82,39,-43,-61,63,-2,-112,9,-14,-9,4,14
82,29,-53,-56,68,-12,-107,9,-14,-14,4,9
82,24,-58,-53,70,-17,-102,9,-19,-19,0,9
73,19,-53,-46,63,-17,-92,9,-34,-24,-4,9
68,14,-53,-41,61,-19,-92,9,-34,-24,-4,9
68,14,-53,-41,61,-19,-87,14,-34,-24,-4,9
68,14,-53,-41,61,-19,-87,14,-34,-24,-4,9
63,4,-58,-34,61,-26,-87,14,-34,-24,-4,4
63,4,-58,-34,61,-26,-78,14,-34,-19,-4,4
63,4,-58,-34,61,-26,-78,14,-29,-19,-4,4
63,4,-58,-34,61,-26,-78,14,-29,-14,-4,4
53,14,-39,-34,46,-12,-78,0,-24,-4,14,19
53,24,-29,-39,41,-2,-78,0,-24,-4,14,19
53,29,-24,-41,39,2,-73,0,-19,-4,14,19
53,29,-24,-41,39,2,-73,0,-19,0,14,24
53,39,-14,-46,34,12,-82,4,-14,9,29,14
53,39,-14,-46,34,12,-82,4,-14,9,29,19
53,39,-14,-46,34,12,-87,4,-14,14,29,19
53,39,-14,-46,34,12,-87,4,-14,14,29,19
48,39,-9,-43,29,14,-87,-4,-14,14,19,19
39,39,0,-39,19,19,-82,-9,-14,9,19,19
39,39,0,-39,19,19,-82,-9,-19,9,19,19
34,29,-4,-31,19,12,-78,-9,-19,9,14,9
29,24,-4,-26,17,9,-73,-4,-19,0,9,0
19,14,-4,-17,12,4,-68,-4,-24,-4,9,0
14,4,-9,-9,12,-2,-63,-4,-24,-4,4,-4
9,4,-4,-7,7,0,-63,-4,-24,-4,0,-9
4,-9,-14,2,9,-12,-48,-4,-24,-14,0,-14
0,-19,-19,9,9,-19,-43,-4,-29,-19,-4,-19
-4,-24,-19,14,7,-21,-39,-4,-29,-24,-9,-24
-9,-29,-19,19,4,-24,-34,-4,-34,-24,-14,-29
-19,-34,-14,26,-2,-24,-24,-4,-43,-39,-24,-34
-19,-43,-24,31,2,-34,-24,-4,-48,-39,-29,-39
-14,-48,-34,31,9,-41,-24,-4,-48,-39,-29,-39
-14,-48,-34,31,9,-41,-24,0,-48,-39,-29,-39
-9,-53,-43,31,17,-48,-24,0,-48,-39,-29,-48
-14,-53,-39,34,12,-46,-24,0,-48,-43,-29,-48
-14,-53,-39,34,12,-46,-24,0,-48,-43,-29,-48
-14,-53,-39,34,12,-46,-24,0,-48,-43,-29,-48
-24,-43,-19,34,-2,-31,-34,-9,-43,-43,-29,-48
-24,-43,-19,34,-2,-31,-34,-14,-43,-43,-29,-48
-24,-43,-19,34,-2,-31,-34,-14,-43,-43,-29,-48
-19,-43,-24,31,2,-34,-34,-14,-43,-43,-29,-48
-19,-39,-19,29,0,-29,-29,-4,-39,-43,-19,-39
-24,-39,-14,31,-4,-26,-29,-4,-39,-39,-19,-39
-24,-39,-14,31,-4,-26,-29,-4,-34,-39,-19,-39
-24,-39,-14,31,-4,-26,-29,-4,-34,-39,-19,-39
-24,-39,-14,31,-4,-26,-24,-4,-24,-34,-29,-34
-24,-39,-14,31,-4,-26,-24,-14,-9,-29,-19,-34
-24,-43,-19,34,-2,-31,-9,-14,4,-29,-24,-43
-39,-43,-4,41,-17,-24,14,4,19,-24,-14,-39
-48,-43,4,46,-26,-19,43,19,29,-14,-24,-43
-63,-68,-4,65,-29,-36,87,29,43,-24,-34,-68
-82,-97,-14,90,-34,-56,131,48,53,-24,-53,-87
-102,-107,-4,104,-48,-56,175,63,73,-24,-68,-102
-102,-107,-4,104,-48,-56,209,68,97,-19,-68,-102
-102,-92,9,97,-56,-41,209,78,122,14,-48,-102
-87,-68,19,78,-53,-24,224,97,161,39,-39,-107
-82,-19,63,51,-73,21,229,102,244,97,4,-87
-68,73,141,-2,-104,107,219,78,361,204,68,-53
-53,224,278,-85,-165,251,180,24,531,356,180,24
-29,429,458,-200,-244,444,131,-43,732,551,341,141
9,692,683,-351,-336,688,68,-131,980,780,531,278
48,1000,951,-524,-451,976,-19,-229,1288,1068,761,439
126,1322,1195,-724,-534,1259,-131,-317,1551,1346,990,600
234,1590,1356,-912,-561,1473,-253,-366,1688,1532,1185,761
322,1727,1405,-1024,-541,1566,-312,-346,1668,1595,1293,878
395,1610,1215,-1002,-409,1412,-278,-263,1483,1454,1234,878
448,1312,863,-880,-207,1088,-214,-126,1063,1127,1034,785
439,1083,644,-761,-102,863,-258,-117,575,805,868,746
331,1000,668,-666,-168,834,-370,-287,209,629,819,775
161,941,780,-551,-309,861,-463,-478,-39,502,775,810
39,810,771,-424,-366,790,-488,-566,-219,356,688,766
-24,639,663,-307,-344,651,-439,-536,-351,214,551,668
-73,483,556,-204,-314,519,-351,-473,-419,82,444,561
-107,351,458,-122,-283,405,-283,-424,-458,-4,331,473
-136,170,307,-17,-222,239,-170,-341,-497,-117,190,351
-151,-9,141,80,-146,65,-39,-234,-536,-234,48,219
-161,-141,19,151,-90,-61,24,-136,-541,-283,-53,126
-126,-214,-87,170,-19,-151,24,-48,-546,-322,-107,58
-87,-268,-180,178,46,-224,19,39,-546,-346,-161,4
-53,-307,-253,180,100,-280,4,87,-546,-375,-190,-43
-34,-307,-273,170,119,-290,-19,107,-522,-375,-200,-58
-19,-283,-263,151,122,-273,-29,117,-478,-361,-204,-68
-19,-278,-258,148,119,-268,-19,122,-439,-336,-214,-87
-24,-253,-229,139,102,-241,4,112,-361,-287,-185,-97
-39,-214,-175,126,68,-195,19,97,-253,-209,-151,-87
-34,-175,-141,104,53,-158,43,87,-175,-151,-112,-78
-43,-151,-107,97,31,-129,78,97,-136,-122,-112,-78
-34,-136,-102,85,34,-119,87,87,-117,-112,-97,-68
-29,-122,-92,75,31,-107,87,73,-117,-102,-82,-63
-39,-92,-53,65,7,-73,73,48,-112,-97,-73,-48
-39,-92,-53,65,7,-73,63,34,-97,-97,-68,-48
-43,-78,-34,61,-4,-56,58,14,-87,-87,-58,-34
-43,-87,-43,65,0,-65,48,9,-63,-78,-58,-43
-43,-92,-48,68,2,-70,48,9,-53,-68,-53,-43
-43,-92,-48,68,2,-70,48,14,-53,-68,-53,-48
-43,-92,-48,68,2,-70,48,14,-53,-68,-53,-48
-39,-82,-43,61,2,-63,53,14,-53,-68,-48,-39
-39,-82,-43,61,2,-63,53,9,-53,-68,-48,-39
-43,-87,-43,65,0,-65,53,4,-53,-68,-48,-39
-43,-92,-48,68,2,-70,53,4,-53,-68,-53,-39
-43,-82,-39,63,-2,-61,53,4,-48,-68,-53,-43
-43,-82,-39,63,-2,-61,53,4,-43,-58,-58,-43
-39,-78,-39,58,0,-58,48,9,-39,-58,-58,-43
-39,-78,-39,58,0,-58,48,9,-34,-53,-53,-39
-39,-78,-39,58,0,-58,48,19,-34,-53,-63,-48
-39,-78,-39,58,0,-58,48,19,-39,-58,-63,-48
-39,-87,-48,63,4,-68,48,9,-39,-58,-63,-48
-39,-87,-48,63,4,-68,48,9,-39,-58,-63,-48
-39,-97,-58,68,9,-78,48,9,-39,-68,-63,-39
-39,-97,-58,68,9,-78,48,19,-34,-63,-63,-43
-39,-87,-48,63,4,-68,53,24,-34,-58,-58,-43
-34,-82,-48,58,7,-65,53,24,-34,-58,-58,-43
-34,-92,-58,63,12,-75,53,24,-34,-48,-58,-48
-34,-87,-53,61,9,-70,53,24,-34,-48,-58,-48
-39,-87,-48,63,4,-68,53,14,-34,-48,-63,-48
-39,-92,-53,65,7,-73,58,9,-34,-48,-63,-48
-39,-82,-43,61,2,-63,48,9,-34,-48,-63,-39
-39,-82,-43,61,2,-63,43,9,-24,-48,-63,-39
-39,-82,-43,61,2,-63,43,19,-24,-43,-63,-43
-39,-82,-43,61,2,-63,43,19,-24,-43,-63,-43
-29,-87,-58,58,14,-73,53,19,-24,-43,-58,-43
-29,-82,-53,56,12,-68,53,19,-24,-39,-53,-39
-34,-82,-48,58,7,-65,53,19,-24,-39,-53,-39
-34,-87,-53,61,9,-70,53,14,-24,-39,-53,-39
-43,-78,-34,61,-4,-56,53,14,-34,-39,-53,-39
-43,-82,-39,63,-2,-61,53,14,-34,-39,-58,-39
-43,-82,-39,63,-2,-61,53,14,-29,-39,-58,-39
-39,-82,-43,61,2,-63,53,24,-29,-39,-58,-39
-39,-78,-39,58,0,-58,53,24,-29,-39,-58,-39
-39,-68,-29,53,-4,-48,53,24,-29,-43,-53,-39
-39,-68,-29,53,-4,-48,53,19,-29,-48,-53,-39
-39,-78,-39,58,0,-58,48,14,-29,-53,-53,-39
-39,-87,-48,63,4,-68,58,9,-34,-53,-53,-48
-43,-87,-43,65,0,-65,58,9,-34,-53,-58,-53
-43,-87,-43,65,0,-65,58,9,-29,-53,-58,-53
-43,-82,-39,63,-2,-61,58,19,-29,-53,-58,-53
-43,-82,-39,63,-2,-61,68,34,-39,-53,-58,-53
-39,-78,-39,58,0,-58,73,34,-39,-53,-58,-48
-39,-78,-39,58,0,-58,73,34,-43,-53,-58,-48
-39,-78,-39,58,0,-58,73,29,-43,-53,-58,-48
-39,-92,-53,65,7,-73,68,14,-34,-53,-68,-48
-43,-97,-53,70,4,-75,68,14,-34,-53,-68,-48
-43,-97,-53,70,4,-75,68,14,-34,-58,-68,-48
-39,-97,-58,68,9,-78,68,24,-29,-58,-68,-53
-39,-97,-58,68,9,-78,68,39,-29,-58,-68,-53
-39,-92,-53,65,7,-73,68,39,-29,-58,-68,-53
-39,-92,-53,65,7,-73,68,39,-29,-58,-68,-53
-39,-92,-53,65,7,-73,68,39,-34,-58,-68,-53
-39,-87,-48,63,4,-68,63,29,-34,-68,-78,-63
-39,-87,-48,63,4,-68,63,29,-34,-68,-78,-63
-39,-87,-48,63,4,-68,63,34,-34,-68,-78,-63
-39,-87,-48,63,4,-68,63,34,-29,-68,-78,-63
-34,-87,-53,61,9,-70,63,39,-29,-68,-68,-63
-34,-87,-53,61,9,-70,63,43,-29,-68,-68,-63
-34,-87,-53,61,9,-70,63,43,-29,-68,-68,-63
-34,-87,-53,61,9,-70,63,43,-34,-68,-68,-63
-34,-87,-53,61,9,-70,63,43,-34,-58,-68,-63
-34,-87,-53,61,9,-70,63,39,-34,-63,-73,-63
-34,-92,-58,63,12,-75,63,39,-34,-63,-78,-68
-34,-92,-58,63,12,-75,63,39,-29,-63,-78,-68
-34,-92,-58,63,12,-75,63,34,-29,-63,-78,-68
-34,-92,-58,63,12,-75,63,39,-29,-63,-78,-68
-29,-92,-63,61,17,-78,63,39,-29,-63,-73,-68
-29,-92,-63,61,17,-78,63,39,-34,-63,-73,-68
-29,-92,-63,61,17,-78,73,39,-34,-68,-68,-68
-34,-97,-63,65,14,-80,78,39,-34,-68,-68,-68
-34,-97,-63,65,14,-80,78,39,-39,-73,-73,-68
-34,-102,-68,68,17,-85,78,39,-39,-73,-73,-73
-24,-102,-78,63,26,-90,78,39,-34,-63,-73,-63
-24,-97,-73,61,24,-85,78,48,-34,-63,-73,-63
-24,-97,-73,61,24,-85,78,48,-34,-63,-73,-63
-19,-92,-73,56,26,-82,82,48,-34,-63,-73,-63
-29,-92,-63,61,17,-78,82,48,-43,-78,-73,-63
-29,-102,-73,65,21,-87,82,43,-43,-78,-78,-68
-34,-102,-68,68,17,-85,82,43,-43,-78,-78,-68
-34,-107,-73,70,19,-90,87,43,-43,-78,-78,-68
-34,-107,-73,70,19,-90,87,53,-39,-78,-82,-68
-29,-102,-73,65,21,-87,97,63,-39,-78,-82,-68
-29,-102,-73,65,21,-87,97,63,-39,-82,-82,-68
-29,-102,-73,65,21,-87,97,63,-39,-82,-82,-73
-29,-107,-78,68,24,-92,102,53,-43,-73,-82,-73
-39,-107,-68,73,14,-87,102,53,-43,-73,-82,-73
-39,-117,-78,78,19,-97,102,53,-48,-82,-82,-73
-34,-117,-82,75,24,-100,102,53,-48,-82,-92,-78
-34,-126,-92,80,29,-109,107,53,-43,-92,-97,-82
-34,-126,-92,80,29,-109,107,63,-43,-92,-97,-82
-34,-126,-92,80,29,-109,117,68,-43,-92,-97,-82
-34,-126,-92,80,29,-109,122,68,-43,-92,-97,-82
-34,-126,-92,80,29,-109,117,78,-53,-97,-87,-73
-34,-131,-97,82,31,-114,122,78,-58,-107,-97,-73
-34,-131,-97,82,31,-114,122,78,-63,-112,-102,-82
-34,-136,-102,85,34,-119,117,78,-63,-112,-102,-87
-39,-141,-102,90,31,-122,126,78,-63,-112,-112,-97
-39,-141,-102,90,31,-122,126,87,-63,-112,-112,-97
-39,-141,-102,90,31,-122,136,87,-68,-112,-117,-97
-39,-141,-102,90,31,-122,136,87,-68,-122,-117,-102
-39,-151,-112,95,36,-131,136,92,-78,-122,-117,-102
-39,-156,-117,97,39,-136,146,92,-82,-126,-126,-102
-39,-161,-122,100,41,-141,146,92,-82,-131,-131,-112
-39,-165,-126,102,43,-146,146,92,-87,-136,-136,-117
-43,-170,-126,107,41,-148,156,82,-87,-141,-141,-117
-43,-175,-131,109,43,-153,156,92,-87,-146,-141,-122
-43,-175,-131,109,43,-153,156,92,-92,-146,-146,-126
-43,-180,-136,112,46,-158,161,92,-97,-151,-151,-126
-43,-190,-146,117,51,-168,165,92,-102,-156,-151,-126
-53,-195,-141,124,43,-168,165,92,-112,-161,-156,-126
-53,-200,-146,126,46,-173,170,92,-117,-165,-161,-126
-53,-209,-156,131,51,-183,170,92,-122,-170,-161,-136
-63,-214,-151,139,43,-183,170,92,-122,-175,-165,-136
-63,-219,-156,141,46,-187,175,92,-122,-180,-170,-136
-63,-219,-156,141,46,-187,175,97,-126,-180,-170,-136
-63,-229,-165,146,51,-197,180,102,-131,-185,-170,-136
-58,-219,-161,139,51,-190,180,102,-136,-180,-170,-136
-63,-214,-151,139,43,-183,180,97,-141,-180,-170,-136
-68,-214,-146,141,39,-180,180,92,-146,-185,-175,-136
-68,-224,-156,146,43,-190,185,87,-146,-190,-175,-136
-68,-214,-146,141,39,-180,175,87,-146,-190,-170,-141
-68,-209,-141,139,36,-175,175,87,-146,-190,-170,-141
-68,-209,-141,139,36,-175,175,87,-146,-190,-170,-141
-68,-204,-136,136,34,-170,175,87,-146,-190,-170,-141
-68,-204,-136,136,34,-170,165,87,-146,-190,-161,-131
-73,-195,-122,134,24,-158,165,87,-156,-190,-156,-122
-73,-195,-122,134,24,-158,161,78,-156,-190,-156,-122
-73,-195,-122,134,24,-158,156,68,-156,-190,-156,-122
-73,-195,-122,134,24,-158,151,63,-146,-185,-161,-112
-73,-190,-117,131,21,-153,136,58,-141,-180,-156,-107
-73,-180,-107,126,17,-143,126,53,-131,-175,-151,-107
-68,-170,-102,119,17,-136,117,48,-131,-165,-141,-102
-68,-156,-87,112,9,-122,117,43,-117,-151,-131,-92
-68,-146,-78,107,4,-112,107,39,-112,-136,-122,-87
-63,-136,-73,100,4,-104,97,29,-107,-136,-117,-73
-63,-126,-63,95,0,-95,92,19,-102,-122,-102,-63
-58,-107,-48,82,-4,-78,73,9,-97,-112,-87,-63
-53,-87,-34,70,-9,-61,63,9,-82,-102,-82,-53
-53,-82,-29,68,-12,-56,53,4,-73,-92,-68,-48
-43,-73,-29,58,-7,-51,48,0,-63,-82,-58,-43
-43,-53,-9,48,-17,-31,29,-4,-48,-68,-48,-39
-43,-43,0,43,-21,-21,24,-4,-39,-58,-39,-34
-43,-34,9,39,-26,-12,19,-9,-34,-48,-34,-24
-39,-24,14,31,-26,-4,4,-14,-29,-48,-29,-14
-39,-24,14,31,-26,-4,-4,-29,-24,-34,-24,-9
-34,-14,19,24,-26,2,-9,-34,-19,-34,-19,-9
-29,-9,19,19,-24,4,-14,-34,-9,-19,-14,-4
-29,4,34,12,-31,19,-19,-34,0,-19,-4,-4
-19,4,24,7,-21,14,-19,-24,4,0,0,0
-14,9,24,2,-19,17,-24,-24,4,4,4,4
-14,14,29,0,-21,21,-29,-24,4,4,4,4
-14,14,29,0,-21,21,-29,-24,4,4,4,4
-4,4,9,0,-7,7,-29,-34,-4,0,0,4
0,4,4,-2,-2,4,-34,-34,0,-4,0,4
0,4,4,-2,-2,4,-39,-34,0,-4,0,4
0,4,4,-2,-2,4,-43,-34,4,-4,0,4
0,0,0,0,0,0,-34,-24,4,-14,0,4
0,0,0,0,0,0,-29,-24,4,-14,4,9
0,0,0,0,0,0,-29,-24,4,-9,4,9
0,0,0,0,0,0,-29,-19,4,-9,4,4
0,0,0,0,0,0,-29,-19,4,-9,4,-4
0,0,0,0,0,0,-29,-19,4,-14,4,0
0,0,0,0,0,0,-29,-19,4,-14,4,0
