I, II, III, aVR, aVL, aVF, V1, V2, V3, V4, V5, V6
-68,-68,0,68,-34,-34,68,-97,-244,-244,-204,-136
-68,-68,0,68,-34,-34,68,-97,-244,-244,-204,-136
-68,-68,0,68,-34,-34,68,-97,-244,-244,-204,-136
-68,-68,0,68,-34,-34,68,-97,-244,-244,-204,-136
-68,-58,9,63,-39,-24,68,-97,-244,-234,-195,-136
-68,-58,9,63,-39,-24,68,-97,-244,-234,-195,-136
-68,-58,9,63,-39,-24,68,-97,-244,-234,-195,-136
-68,-58,9,63,-39,-24,68,-97,-244,-234,-195,-136
-68,-58,9,63,-39,-24,68,-97,-244,-244,-204,-136
-68,-58,9,63,-39,-24,68,-97,-244,-244,-204,-136
-68,-58,9,63,-39,-24,68,-97,-244,-244,-204,-136
-68,-58,9,63,-39,-24,68,-97,-244,-244,-204,-136
-68,-58,9,63,-39,-24,68,-97,-234,-234,-204,-136
-68,-58,9,63,-39,-24,68,-97,-234,-234,-204,-136
-68,-58,9,63,-39,-24,68,-97,-234,-234,-204,-136
-68,-58,9,63,-39,-24,68,-97,-234,-234,-204,-136
-58,-48,9,53,-34,-19,58,-87,-234,-224,-200,-126
-58,-48,9,53,-34,-19,58,-87,-234,-224,-195,-126
-58,-48,9,53,-34,-19,58,-87,-234,-224,-190,-126
-58,-48,9,53,-34,-19,58,-87,-234,-224,-185,-126
-48,-29,19,39,-34,-4,58,-78,-219,-209,-170,-112
-43,-19,24,31,-34,2,53,-78,-214,-204,-165,-107
-39,-4,34,21,-36,14,53,-82,-209,-200,-161,-102
-34,0,34,17,-34,17,53,-87,-204,-195,-161,-102
-43,4,48,19,-46,26,53,-97,-200,-195,-170,-102
-43,9,53,17,-48,31,53,-97,-195,-190,-165,-97
-39,14,53,12,-46,34,53,-97,-190,-190,-165,-97
-29,14,43,7,-36,29,53,-97,-190,-190,-165,-97
-19,29,48,-4,-34,39,53,-87,-190,-190,-146,-87
-14,29,43,-7,-29,36,53,-87,-185,-185,-146,-82
-9,29,39,-9,-24,34,53,-82,-180,-175,-141,-82
-9,39,48,-14,-29,43,48,-82,-175,-170,-141,-78
-14,34,48,-9,-31,41,39,-82,-170,-180,-146,-78
-9,43,53,-17,-31,48,29,-82,-170,-170,-136,-73
-4,48,53,-21,-29,51,29,-82,-165,-170,-131,-68
0,53,53,-26,-26,53,14,-82,-156,-165,-131,-63
9,78,68,-43,-29,73,14,-92,-151,-156,-122,-48
9,87,78,-48,-34,82,4,-92,-141,-141,-107,-48
14,97,82,-56,-34,90,-9,-97,-136,-126,-97,-43
14,97,82,-56,-34,90,-14,-97,-136,-122,-87,-39
14,87,73,-51,-29,80,-24,-102,-151,-126,-92,-48
9,92,82,-51,-36,87,-34,-112,-156,-141,-97,-48
4,92,87,-48,-41,90,-43,-131,-170,-146,-112,-48
0,92,92,-46,-46,92,-53,-136,-175,-156,-117,-48
9,117,107,-63,-48,112,-53,-146,-165,-151,-107,-39
4,122,117,-63,-56,119,-53,-151,-165,-151,-107,-39
4,131,126,-68,-61,129,-58,-165,-170,-151,-107,-39
4,136,131,-70,-63,134,-68,-170,-175,-151,-107,-39
4,136,131,-70,-63,134,-78,-180,-180,-165,-112,-39
4,141,136,-73,-65,139,-92,-190,-185,-170,-112,-43
4,141,136,-73,-65,139,-102,-200,-190,-170,-112,-48
14,151,136,-82,-61,143,-107,-200,-190,-170,-112,-53
24,156,131,-90,-53,143,-112,-195,-195,-161,-102,-39
24,151,126,-87,-51,139,-112,-195,-200,-165,-107,-39
24,141,117,-82,-46,129,-107,-190,-209,-180,-117,-53
19,126,107,-73,-43,117,-97,-180,-219,-185,-122,-58
4,102,97,-53,-46,100,-82,-165,-229,-195,-136,-63
0,73,73,-36,-36,73,-73,-165,-244,-200,-146,-68
0,43,43,-21,-21,43,-63,-151,-253,-209,-156,-78
-4,14,19,-4,-12,17,-43,-151,-263,-219,-165,-92
0,14,14,-7,-7,14,-29,-146,-258,-229,-165,-92
-14,4,19,4,-17,12,-14,-141,-258,-229,-175,-97
-34,-4,29,19,-31,12,0,-126,-253,-224,-165,-97
-48,-19,29,34,-39,4,24,-107,-244,-214,-161,-97
-53,-43,9,48,-31,-17,34,-117,-244,-214,-161,-107
-63,-53,9,58,-36,-21,43,-117,-244,-224,-170,-117
-68,-58,9,63,-39,-24,48,-117,-253,-229,-175,-126
-78,-68,9,73,-43,-29,53,-126,-258,-234,-185,-126
-78,-63,14,70,-46,-24,48,-117,-263,-248,-195,-131
-82,-68,14,75,-48,-26,48,-117,-268,-248,-195,-131
-82,-78,4,80,-43,-36,48,-117,-273,-248,-195,-131
-82,-82,0,82,-41,-41,58,-112,-273,-253,-195,-131
-73,-87,-14,80,-29,-51,58,-107,-273,-244,-195,-141
-73,-92,-19,82,-26,-56,58,-107,-273,-244,-204,-146
-73,-92,-19,82,-26,-56,63,-107,-278,-248,-204,-146
-78,-92,-14,85,-31,-53,63,-107,-278,-248,-204,-146
-78,-92,-14,85,-31,-53,63,-107,-278,-248,-204,-136
-78,-92,-14,85,-31,-53,63,-107,-278,-248,-204,-141
-78,-92,-14,85,-31,-53,68,-107,-278,-248,-204,-141
-78,-92,-14,85,-31,-53,68,-107,-278,-253,-204,-141
-87,-107,-19,97,-34,-63,68,-107,-278,-253,-204,-141
-87,-112,-24,100,-31,-68,68,-107,-278,-253,-204,-141
-92,-112,-19,102,-36,-65,78,-102,-278,-253,-204,-141
-97,-112,-14,104,-41,-63,78,-102,-278,-253,-204,-141
-87,-102,-14,95,-36,-58,68,-102,-278,-253,-204,-141
-87,-102,-14,95,-36,-58,68,-102,-278,-248,-204,-141
-87,-107,-19,97,-34,-63,68,-102,-278,-248,-204,-141
-87,-107,-19,97,-34,-63,68,-97,-278,-248,-204,-136
-92,-117,-24,104,-34,-70,78,-97,-278,-258,-204,-136
-92,-117,-24,104,-34,-70,78,-97,-278,-258,-204,-136
-92,-117,-24,104,-34,-70,78,-97,-278,-258,-204,-146
-92,-117,-24,104,-34,-70,78,-97,-278,-258,-204,-146
-92,-117,-24,104,-34,-70,82,-97,-268,-258,-204,-156
-87,-117,-29,102,-29,-73,82,-92,-263,-248,-204,-146
-87,-117,-29,102,-29,-73,97,-78,-258,-248,-204,-141
-97,-122,-24,109,-36,-73,102,-63,-244,-248,-204,-156
-97,-126,-29,112,-34,-78,126,-43,-229,-244,-204,-161
-112,-131,-19,122,-46,-75,136,-9,-195,-214,-195,-151
-112,-136,-24,124,-43,-80,151,9,-141,-175,-161,-141
-112,-146,-34,129,-39,-90,161,34,-78,-126,-122,-131
-112,-156,-43,134,-34,-100,180,63,-9,-68,-78,-102
-112,-141,-29,126,-41,-85,195,107,82,9,-19,-68
-92,-122,-29,107,-31,-75,204,131,190,107,58,-4
-63,-87,-24,75,-19,-56,195,151,307,229,170,82
-24,-58,-34,41,4,-46,175,170,429,375,297,185
19,-39,-58,9,39,-48,146,195,536,502,434,287
43,-29,-73,-7,58,-51,131,204,610,600,531,361
63,-14,-78,-24,70,-46,112,204,639,658,580,405
97,14,-82,-56,90,-34,78,190,629,707,649,468
156,68,-87,-112,122,-9,0,136,619,775,741,561
214,141,-73,-178,143,34,-92,43,527,790,800,639
278,190,-87,-234,183,51,-219,-82,346,756,824,702
366,214,-151,-290,258,31,-356,-195,141,717,844,761
453,248,-204,-351,329,21,-502,-307,-43,683,883,844
551,312,-239,-431,395,36,-653,-448,-229,668,951,941
653,395,-258,-524,456,68,-824,-585,-356,707,1039,1073
756,478,-278,-617,517,100,-985,-712,-424,780,1161,1210
844,566,-278,-705,561,143,-1141,-844,-463,863,1302,1356
922,653,-268,-788,595,192,-1298,-1005,-536,927,1410,1493
961,712,-248,-836,605,231,-1434,-1224,-717,878,1429,1571
912,736,-175,-824,544,280,-1498,-1503,-985,707,1351,1576
775,741,-34,-758,405,353,-1542,-1839,-1307,448,1166,1493
629,741,112,-685,258,427,-1581,-2132,-1673,87,893,1342
517,697,180,-607,168,439,-1581,-2298,-2034,-346,531,1141
405,551,146,-478,129,348,-1522,-2337,-2425,-873,63,849
326,361,34,-344,146,197,-1439,-2288,-2762,-1385,-439,492
317,204,-112,-261,214,46,-1361,-2156,-2864,-1668,-766,229
326,141,-185,-234,256,-21,-1293,-1991,-2757,-1708,-878,87
326,112,-214,-219,270,-51,-1224,-1834,-2586,-1668,-917,-14
312,131,-180,-222,246,-24,-1146,-1673,-2332,-1551,-888,-43
287,151,-136,-219,212,7,-1034,-1503,-2034,-1356,-780,-14
263,131,-131,-197,197,0,-917,-1337,-1795,-1215,-707,-24
239,102,-136,-170,187,-17,-819,-1185,-1634,-1127,-688,-53
204,131,-73,-168,139,29,-712,-1058,-1434,-1000,-619,-53
170,195,24,-183,73,109,-600,-917,-1190,-824,-488,-9
131,204,73,-168,29,139,-483,-780,-985,-702,-414,-9
78,151,73,-114,2,112,-380,-663,-854,-634,-400,-58
24,107,82,-65,-29,95,-273,-536,-712,-551,-385,-117
-29,68,97,-19,-63,82,-175,-439,-570,-468,-346,-136
-63,39,102,12,-82,70,-117,-375,-473,-395,-317,-146
-92,14,107,39,-100,61,-78,-307,-400,-351,-283,-161
-126,-19,107,73,-117,43,-4,-219,-297,-292,-253,-175
-146,-53,92,100,-119,19,58,-141,-209,-229,-214,-175
-141,-63,78,102,-109,7,78,-107,-156,-185,-180,-156
-126,-63,63,95,-95,0,92,-82,-131,-165,-156,-146
-122,-58,63,90,-92,2,117,-53,-112,-146,-146,-136
-117,-58,58,87,-87,0,136,-39,-78,-126,-136,-131
-122,-78,43,100,-82,-17,136,-19,-58,-122,-131,-126
-122,-87,34,104,-78,-26,141,-14,-58,-112,-112,-117
-122,-97,24,109,-73,-36,146,-14,-63,-117,-122,-126
-117,-97,19,107,-68,-39,151,-9,-53,-112,-117,-122
-117,-97,19,107,-68,-39,151,-9,-43,-107,-117,-122
-117,-97,19,107,-68,-39,156,0,-34,-107,-117,-122
-117,-87,29,102,-73,-29,156,14,-14,-92,-117,-107
-117,-87,29,102,-73,-29,156,19,-9,-87,-112,-107
-112,-87,24,100,-68,-31,161,24,-9,-87,-107,-107
-112,-87,24,100,-68,-31,161,29,-4,-78,-102,-102
-112,-97,14,104,-63,-41,165,24,0,-82,-102,-112
-112,-97,14,104,-63,-41,165,29,0,-78,-102,-107
-112,-97,14,104,-63,-41,170,29,0,-78,-102,-107
-112,-97,14,104,-63,-41,170,29,0,-78,-97,-107
-112,-97,14,104,-63,-41,170,48,14,-73,-92,-97
-107,-97,9,102,-58,-43,175,48,19,-68,-92,-92
-107,-97,9,102,-58,-43,175,48,24,-68,-87,-92
-107,-97,9,102,-58,-43,175,53,29,-68,-82,-92
-117,-102,14,109,-65,-43,175,48,19,-68,-82,-102
-122,-102,19,112,-70,-41,175,48,24,-58,-82,-102
-122,-102,19,112,-70,-41,175,48,29,-58,-82,-102
-117,-102,14,109,-65,-43,180,53,34,-58,-73,-102
-107,-92,14,100,-61,-39,170,53,48,-48,-68,-97
-107,-92,14,100,-61,-39,170,58,53,-43,-63,-97
-107,-92,14,100,-61,-39,170,58,58,-43,-63,-92
-107,-87,19,97,-63,-34,170,63,63,-34,-63,-92
-117,-97,19,107,-68,-39,170,63,68,-34,-63,-102
-117,-97,19,107,-68,-39,170,63,68,-34,-68,-102
-117,-97,19,107,-68,-39,175,68,68,-34,-68,-102
-117,-92,24,104,-70,-34,175,68,78,-29,-63,-102
-107,-82,24,95,-65,-29,180,73,82,-19,-63,-97
-102,-82,19,92,-61,-31,180,73,87,-19,-58,-87
-102,-82,19,92,-61,-31,185,78,97,-19,-58,-82
-102,-82,19,92,-61,-31,185,78,102,-19,-58,-78
-112,-87,24,100,-68,-31,185,78,107,-19,-48,-87
-117,-87,29,102,-73,-29,185,82,107,-9,-48,-82
-117,-87,29,102,-73,-29,185,82,112,-4,-48,-82
-112,-82,29,97,-70,-26,185,87,117,-4,-53,-82
-112,-78,34,95,-73,-21,175,87,126,-4,-53,-82
-112,-73,39,92,-75,-17,180,92,131,0,-43,-82
-112,-68,43,90,-78,-12,180,97,136,0,-43,-78
-112,-58,53,85,-82,-2,180,97,141,4,-43,-78
-122,-68,53,95,-87,-7,190,97,141,9,-34,-78
-126,-68,58,97,-92,-4,190,97,146,14,-34,-78
-126,-68,58,97,-92,-4,195,102,156,19,-34,-73
-126,-63,63,95,-95,0,195,102,161,24,-34,-73
-117,-48,68,82,-92,9,185,107,165,39,-29,-73
-117,-48,68,82,-92,9,185,112,175,43,-29,-68
-117,-48,68,82,-92,9,185,112,180,43,-19,-68
-117,-43,73,80,-95,14,185,117,190,48,-19,-63
-117,-48,68,82,-92,9,200,122,209,53,-9,-73
-117,-53,63,85,-90,4,200,126,214,58,-4,-73
-117,-53,63,85,-90,4,200,126,219,68,-4,-68
-117,-53,63,85,-90,4,200,126,229,73,0,-68
-117,-39,78,78,-97,19,204,136,224,78,0,-58
-117,-39,78,78,-97,19,204,141,234,82,0,-58
-117,-39,78,78,-97,19,204,146,244,87,0,-53
-117,-39,78,78,-97,19,204,151,253,92,9,-53
-117,-43,73,80,-95,14,204,151,253,97,14,-53
-122,-43,78,82,-100,17,209,156,268,102,14,-48
-122,-43,78,82,-100,17,209,161,278,107,14,-48
-122,-39,82,80,-102,21,209,161,278,112,19,-48
-122,-29,92,75,-107,31,214,165,287,107,19,-58
-122,-24,97,73,-109,36,214,170,302,112,29,-53
-122,-19,102,70,-112,41,214,175,312,117,34,-53
-126,-19,107,73,-117,43,219,180,322,126,39,-48
-136,-19,117,78,-126,48,219,175,331,131,29,-48
-136,-19,117,78,-126,48,224,180,331,136,29,-48
-136,-14,122,75,-129,53,224,185,346,141,39,-43
-136,-14,122,75,-129,53,229,190,361,146,39,-43
-136,-19,117,78,-126,48,229,200,370,151,43,-43
-141,-9,131,75,-136,61,234,204,380,161,48,-43
-141,-9,131,75,-136,61,234,209,390,165,53,-39
-141,-9,131,75,-136,61,239,214,400,170,58,-39
-131,4,136,63,-134,70,239,219,409,185,63,-34
-131,4,136,63,-134,70,244,224,414,190,68,-34
-141,4,146,68,-143,75,248,234,424,195,73,-34
-141,9,151,65,-146,80,248,239,434,200,73,-34
-141,0,141,70,-141,70,263,234,448,209,87,-29
-141,4,146,68,-143,75,263,244,463,214,92,-29
-141,14,156,63,-148,85,268,248,478,224,97,-29
-141,19,161,61,-151,90,278,253,492,234,102,-24
-156,24,180,65,-168,102,283,268,502,234,97,-24
-156,29,185,63,-170,107,283,268,517,244,107,-24
-156,29,185,63,-170,107,283,278,527,244,112,-19
-161,29,190,65,-175,109,292,287,546,258,117,-19
-165,34,200,65,-183,117,287,297,561,268,122,-29
-170,39,209,65,-190,124,292,297,570,273,122,-24
-175,43,219,65,-197,131,297,307,590,283,131,-24
-175,53,229,61,-202,141,297,312,605,292,136,-24
-170,58,229,56,-200,143,307,326,619,307,131,-19
-170,63,234,53,-202,148,317,326,639,317,136,-19
-175,68,244,53,-209,156,322,336,653,322,141,-19
-180,73,253,53,-217,163,331,341,668,331,146,-14
-195,68,263,63,-229,165,336,346,683,341,151,-14
-195,73,268,61,-231,170,341,346,697,351,156,-14
-200,78,278,61,-239,178,346,351,717,361,161,-14
-204,87,292,58,-248,190,351,361,732,366,165,-9
-209,97,307,56,-258,202,356,370,751,380,180,-9
-209,112,322,48,-265,217,366,375,766,390,185,-9
-214,122,336,46,-275,229,366,380,780,395,190,-9
-219,131,351,43,-285,241,370,385,795,409,195,-9
-234,126,361,53,-297,244,366,380,805,409,195,-19
-234,136,370,48,-302,253,375,385,819,419,195,-19
-239,146,385,46,-312,265,380,390,834,424,200,-19
-248,156,405,46,-326,280,385,395,849,434,204,-19
-244,165,409,39,-326,287,390,395,873,453,209,-9
-248,170,419,39,-334,295,395,395,888,458,214,-9
-253,175,429,39,-341,302,400,400,902,468,219,-9
-268,180,448,43,-358,314,405,400,917,468,224,-9
-273,175,448,48,-361,312,409,390,912,468,214,-14
-283,175,458,53,-370,317,409,390,927,478,214,-19
-287,190,478,48,-383,334,414,390,936,483,224,-24
-287,195,483,46,-385,339,414,390,946,492,229,-29
-292,214,507,39,-400,361,419,390,951,497,239,-19
-297,214,512,41,-405,363,424,390,961,502,244,-24
-302,219,522,41,-412,370,424,385,961,507,244,-24
-312,219,531,46,-422,375,424,380,966,517,244,-19
-317,209,527,53,-422,368,414,366,961,512,239,-29
-322,214,536,53,-429,375,409,356,961,512,239,-29
-322,214,536,53,-429,375,409,346,956,512,244,-34
-326,219,546,53,-436,383,409,336,951,512,244,-34
-322,229,551,46,-436,390,395,326,951,527,253,-29
-322,229,551,46,-436,390,390,317,946,527,253,-24
-322,229,551,46,-436,390,385,297,936,527,253,-19
-322,229,551,46,-436,390,380,287,927,522,253,-14
-322,219,541,51,-431,380,375,292,912,512,253,-24
-322,214,536,53,-429,375,361,278,893,502,253,-24
-317,204,522,56,-419,363,351,263,873,497,253,-24
-317,195,512,61,-414,353,346,248,844,483,253,-24
-297,200,497,48,-397,348,336,244,834,488,253,-14
-292,195,488,48,-390,341,326,239,810,473,244,-14
-287,180,468,53,-378,324,317,219,785,463,239,-14
-283,165,448,58,-366,307,307,200,761,453,234,-14
-278,156,434,61,-356,295,283,185,722,424,219,-14
-268,146,414,61,-341,280,268,175,692,400,209,-24
-258,131,390,63,-324,261,268,175,658,385,195,-29
-248,122,370,63,-309,246,253,165,624,366,185,-29
-229,112,341,58,-285,226,244,161,590,356,185,-34
-219,107,326,56,-273,217,229,151,556,331,175,-34
-200,102,302,48,-251,202,214,136,517,307,165,-34
-195,92,287,51,-241,190,200,126,478,287,151,-34
-195,68,263,63,-229,165,195,122,439,273,146,-29
-175,48,224,63,-200,136,175,102,400,248,131,-34
-170,34,204,68,-187,119,161,92,361,224,112,-34
-161,34,195,63,-178,114,156,78,326,200,92,-39
-141,29,170,56,-156,100,151,73,292,185,92,-29
-126,24,151,51,-139,87,136,63,263,161,82,-29
-117,19,136,48,-126,78,131,58,234,136,73,-29
-107,19,126,43,-117,73,117,48,204,122,68,-29
-107,4,112,51,-109,58,107,43,190,102,53,-29
-97,0,97,48,-97,48,97,34,151,82,43,-39
-87,-9,78,48,-82,34,87,24,126,63,29,-39
-82,-19,63,51,-73,21,82,14,97,43,24,-39
-63,-19,43,41,-53,12,73,4,82,34,29,-39
-58,-19,39,39,-48,9,63,-4,58,24,19,-39
-48,-24,24,36,-36,0,63,-9,39,9,9,-43
-39,-24,14,31,-26,-4,48,-14,19,-4,0,-43
-48,-29,19,39,-34,-4,48,-19,-9,-19,-14,-34
-43,-34,9,39,-26,-12,48,-24,-29,-24,-19,-34
-43,-43,0,43,-21,-21,43,-29,-48,-43,-24,-39
-34,-43,-9,39,-12,-26,34,-34,-58,-53,-29,-39
-34,-48,-14,41,-9,-31,34,-29,-58,-53,-24,-39
-29,-53,-24,41,-2,-39,29,-29,-73,-63,-34,-43
-24,-53,-29,39,2,-41,24,-34,-82,-73,-43,-43
-19,-48,-29,34,4,-39,24,-39,-102,-78,-53,-43
-19,-48,-29,34,4,-39,19,-43,-92,-78,-48,-43
-19,-58,-39,39,9,-48,19,-48,-102,-82,-48,-43
-19,-58,-39,39,9,-48,19,-48,-112,-92,-48,-43
-19,-68,-48,43,14,-58,19,-48,-112,-97,-48,-43
-19,-58,-39,39,9,-48,19,-48,-117,-92,-58,-43
-14,-58,-43,36,14,-51,19,-53,-122,-102,-58,-48
-14,-58,-43,36,14,-51,14,-53,-126,-102,-63,-48
-14,-53,-39,34,12,-46,14,-53,-131,-107,-63,-48
-24,-58,-34,41,4,-46,24,-43,-126,-112,-63,-39
-24,-58,-34,41,4,-46,24,-43,-126,-112,-63,-39
-24,-68,-43,46,9,-56,24,-48,-131,-112,-63,-39
-24,-73,-48,48,12,-61,19,-48,-131,-112,-63,-39
-24,-73,-48,48,12,-61,19,-58,-141,-112,-63,-39
-24,-73,-48,48,12,-61,19,-58,-146,-112,-63,-39
-19,-73,-53,46,17,-63,19,-58,-146,-117,-68,-39
-19,-68,-48,43,14,-58,19,-58,-141,-117,-68,-39
-9,-73,-63,41,26,-68,19,-48,-131,-112,-68,-34
-9,-73,-63,41,26,-68,19,-48,-136,-112,-68,-34
-14,-73,-58,43,21,-65,19,-48,-136,-112,-68,-34
-14,-82,-68,48,26,-75,24,-48,-136,-107,-68,-29
-24,-73,-48,48,12,-61,24,-48,-136,-117,-58,-39
-24,-73,-48,48,12,-61,24,-48,-136,-117,-58,-39
-24,-73,-48,48,12,-61,24,-48,-136,-117,-63,-43
-24,-73,-48,48,12,-61,24,-48,-136,-117,-63,-43
-24,-73,-48,48,12,-61,34,-48,-131,-107,-63,-43
-29,-73,-43,51,7,-58,34,-48,-126,-107,-63,-43
-29,-73,-43,51,7,-58,39,-48,-126,-107,-63,-43
-29,-78,-48,53,9,-63,39,-43,-131,-107,-58,-43
-34,-78,-43,56,4,-61,29,-53,-141,-117,-68,-43
-34,-78,-43,56,4,-61,29,-53,-141,-112,-68,-48
-34,-78,-43,56,4,-61,34,-53,-136,-112,-68,-48
-34,-73,-39,53,2,-56,34,-53,-136,-117,-68,-48
-29,-73,-43,51,7,-58,34,-43,-126,-117,-73,-48
-29,-73,-43,51,7,-58,34,-43,-126,-117,-73,-48
-29,-73,-43,51,7,-58,39,-43,-122,-112,-68,-48
-29,-73,-43,51,7,-58,39,-43,-117,-112,-68,-48
-34,-82,-48,58,7,-65,39,-53,-126,-112,-68,-58
-39,-82,-43,61,2,-63,39,-53,-126,-112,-68,-58
-39,-82,-43,61,2,-63,43,-53,-126,-112,-68,-58
-39,-82,-43,61,2,-63,43,-53,-126,-112,-73,-58
-39,-73,-34,56,-2,-53,43,-43,-126,-107,-63,-53
-39,-73,-34,56,-2,-53,43,-43,-126,-107,-63,-53
-39,-73,-34,56,-2,-53,43,-43,-122,-102,-63,-53
-43,-78,-34,61,-4,-56,43,-43,-122,-102,-63,-53
-53,-87,-34,70,-9,-61,39,-53,-122,-107,-73,-63
-58,-87,-29,73,-14,-58,43,-53,-122,-107,-73,-63
-58,-92,-34,75,-12,-63,43,-53,-122,-112,-73,-63
-58,-92,-34,75,-12,-63,43,-53,-122,-117,-78,-63
-58,-82,-24,70,-17,-53,48,-53,-117,-117,-78,-58
-58,-78,-19,68,-19,-48,48,-53,-117,-112,-73,-58
-58,-78,-19,68,-19,-48,53,-53,-117,-102,-63,-58
-63,-78,-14,70,-24,-46,53,-53,-117,-97,-53,-58
-68,-92,-24,80,-21,-58,53,-53,-126,-107,-63,-68
-68,-92,-24,80,-21,-58,58,-53,-131,-112,-63,-68
-68,-92,-24,80,-21,-58,58,-53,-131,-112,-63,-68
-68,-92,-24,80,-21,-58,58,-53,-131,-112,-63,-68
-58,-82,-24,70,-17,-53,58,-43,-117,-112,-63,-63
-58,-82,-24,70,-17,-53,58,-43,-117,-112,-63,-63
-58,-82,-24,70,-17,-53,58,-43,-117,-112,-63,-63
-58,-82,-24,70,-17,-53,58,-43,-117,-112,-63,-63
-63,-92,-29,78,-17,-61,48,-53,-131,-112,-73,-73
-63,-102,-39,82,-12,-70,53,-53,-131,-112,-73,-73
-63,-102,-39,82,-12,-70,53,-53,-136,-112,-78,-73
-63,-102,-39,82,-12,-70,53,-48,-136,-112,-78,-73
-63,-92,-29,78,-17,-61,58,-39,-126,-102,-68,-68
-68,-92,-24,80,-21,-58,63,-43,-126,-107,-68,-73
-68,-92,-24,80,-21,-58,63,-43,-126,-107,-68,-73
-68,-92,-24,80,-21,-58,68,-43,-126,-107,-68,-73
-68,-102,-34,85,-17,-68,63,-53,-126,-117,-78,-78
-68,-107,-39,87,-14,-73,63,-53,-131,-117,-78,-78
-68,-112,-43,90,-12,-78,63,-53,-136,-117,-78,-78
-68,-112,-43,90,-12,-78,63,-58,-136,-117,-78,-82
-58,-102,-43,80,-7,-73,68,-48,-136,-117,-73,-73
-58,-97,-39,78,-9,-68,63,-48,-136,-117,-78,-78
-58,-97,-39,78,-9,-68,63,-48,-136,-122,-78,-82
-58,-97,-39,78,-9,-68,63,-43,-136,-126,-78,-82
-68,-107,-39,87,-14,-73,63,-43,-146,-131,-87,-87
-68,-107,-39,87,-14,-73,63,-43,-151,-131,-87,-87
-68,-112,-43,90,-12,-78,63,-43,-156,-131,-87,-92
-68,-117,-48,92,-9,-82,63,-48,-161,-131,-92,-92
-58,-107,-48,82,-4,-78,68,-48,-156,-122,-92,-82
-58,-102,-43,80,-7,-73,68,-48,-151,-122,-92,-82
-58,-102,-43,80,-7,-73,68,-48,-151,-126,-87,-87
-58,-102,-43,80,-7,-73,68,-48,-146,-131,-82,-87
-58,-102,-43,80,-7,-73,53,-48,-161,-131,-82,-87
-58,-102,-43,80,-7,-73,53,-53,-161,-131,-87,-87
-58,-112,-53,85,-2,-82,53,-53,-165,-136,-87,-87
-58,-117,-58,87,0,-87,53,-53,-165,-136,-87,-82
-48,-107,-58,78,4,-82,53,-53,-161,-136,-78,-82
-48,-102,-53,75,2,-78,58,-53,-161,-141,-87,-87
-48,-97,-48,73,0,-73,58,-53,-165,-141,-87,-92
-48,-97,-48,73,0,-73,53,-53,-170,-141,-87,-92
-58,-102,-43,80,-7,-73,53,-53,-170,-141,-92,-92
-53,-107,-53,80,0,-80,53,-53,-170,-146,-87,-92
-53,-112,-58,82,2,-85,53,-58,-175,-146,-87,-92
-53,-126,-73,90,9,-100,48,-58,-180,-146,-92,-92
-48,-126,-78,87,14,-102,48,-58,-180,-156,-92,-82
-48,-122,-73,85,12,-97,48,-58,-180,-156,-97,-82
-48,-122,-73,85,12,-97,48,-58,-180,-156,-102,-82
-48,-122,-73,85,12,-97,48,-58,-180,-161,-102,-82
-48,-112,-63,80,7,-87,48,-58,-190,-151,-92,-92
-48,-112,-63,80,7,-87,48,-63,-190,-151,-92,-92
-43,-117,-73,80,14,-95,53,-63,-190,-151,-92,-92
-43,-122,-78,82,17,-100,53,-63,-195,-151,-92,-92
-43,-122,-78,82,17,-100,53,-63,-190,-161,-97,-92
-43,-122,-78,82,17,-100,53,-63,-190,-161,-97,-92
-43,-112,-68,78,12,-90,53,-63,-185,-161,-97,-92
-43,-112,-68,78,12,-90,48,-63,-185,-161,-97,-97
-43,-112,-68,78,12,-90,48,-63,-195,-151,-97,-87
-43,-112,-68,78,12,-90,48,-63,-195,-151,-97,-87
-43,-112,-68,78,12,-90,48,-63,-195,-151,-97,-87
-43,-122,-78,82,17,-100,48,-63,-200,-156,-97,-87
-34,-122,-87,78,26,-104,48,-68,-190,-156,-97,-87
-39,-117,-78,78,19,-97,48,-68,-195,-161,-97,-87
-43,-117,-73,80,14,-95,48,-68,-195,-161,-102,-87
-43,-117,-73,80,14,-95,43,-68,-190,-165,-107,-87
-43,-117,-73,80,14,-95,43,-58,-200,-165,-97,-87
-39,-117,-78,78,19,-97,43,-58,-204,-161,-92,-87
-39,-117,-78,78,19,-97,43,-58,-204,-161,-92,-87
-39,-122,-82,80,21,-102,43,-58,-209,-161,-97,-82
-34,-122,-87,78,26,-104,43,-58,-209,-161,-97,-82
-34,-122,-87,78,26,-104,43,-58,-200,-165,-97,-82
-34,-117,-82,75,24,-100,43,-58,-200,-165,-102,-87
-39,-117,-78,78,19,-97,43,-58,-200,-165,-102,-87
-39,-117,-78,78,19,-97,43,-58,-209,-165,-102,-92
-39,-117,-78,78,19,-97,39,-58,-209,-165,-102,-92
-39,-117,-78,78,19,-97,39,-58,-209,-165,-102,-92
-39,-117,-78,78,19,-97,43,-63,-214,-165,-102,-92
-39,-126,-87,82,24,-107,34,-63,-214,-170,-102,-82
-39,-126,-87,82,24,-107,34,-63,-214,-170,-102,-82
-39,-126,-87,82,24,-107,29,-63,-214,-170,-102,-82
-39,-122,-82,80,21,-102,29,-63,-214,-170,-102,-82
-29,-117,-87,73,29,-102,39,-63,-204,-170,-102,-82
-29,-117,-87,73,29,-102,39,-63,-204,-170,-102,-82
-29,-117,-87,73,29,-102,39,-63,-209,-170,-102,-82
-29,-122,-92,75,31,-107,39,-63,-209,-170,-107,-82
-34,-126,-92,80,29,-109,39,-53,-214,-170,-97,-82
-29,-126,-97,78,34,-112,39,-53,-214,-170,-97,-82
-29,-122,-92,75,31,-107,39,-53,-209,-170,-97,-82
-34,-122,-87,78,26,-104,39,-53,-209,-170,-97,-82
-24,-122,-97,73,36,-109,43,-63,-219,-175,-97,-82
-24,-122,-97,73,36,-109,43,-63,-219,-175,-97,-82
-29,-122,-92,75,31,-107,43,-63,-219,-175,-97,-82
-29,-122,-92,75,31,-107,43,-63,-224,-175,-97,-82
-29,-126,-97,78,34,-112,34,-63,-224,-175,-97,-92
-24,-126,-102,75,39,-114,34,-63,-224,-175,-97,-92
-19,-126,-107,73,43,-117,34,-63,-224,-175,-97,-92
-19,-126,-107,73,43,-117,34,-63,-224,-175,-97,-92
-14,-112,-97,63,41,-104,34,-63,-214,-165,-97,-82
-14,-112,-97,63,41,-104,34,-63,-214,-165,-97,-82
-14,-112,-97,63,41,-104,34,-63,-214,-165,-97,-82
-14,-112,-97,63,41,-104,39,-63,-214,-165,-97,-82
-24,-112,-87,68,31,-100,29,-63,-214,-170,-97,-82
-24,-122,-97,73,36,-109,29,-63,-219,-170,-97,-82
-24,-122,-97,73,36,-109,29,-63,-219,-170,-102,-82
-24,-117,-92,70,34,-104,29,-63,-219,-170,-102,-82
-19,-117,-97,68,39,-107,29,-63,-214,-170,-97,-73
-19,-117,-97,68,39,-107,34,-63,-214,-170,-97,-68
-19,-112,-92,65,36,-102,39,-63,-219,-165,-97,-68
-24,-112,-87,68,31,-100,43,-63,-219,-165,-97,-78
-24,-122,-97,73,36,-109,34,-63,-229,-170,-97,-87
-24,-126,-102,75,39,-114,34,-63,-229,-170,-97,-82
-24,-126,-102,75,39,-114,34,-63,-229,-170,-97,-82
-24,-126,-102,75,39,-114,34,-63,-229,-170,-97,-82
-19,-126,-107,73,43,-117,39,-63,-219,-170,-87,-73
-9,-117,-107,63,48,-112,39,-53,-209,-161,-87,-73
-14,-107,-92,61,39,-100,43,-48,-209,-151,-87,-63
-9,-102,-92,56,41,-97,48,-53,-200,-151,-78,-63
-19,-107,-87,63,34,-97,48,-39,-204,-156,-78,-58
-14,-107,-92,61,39,-100,43,-39,-195,-146,-68,-58
-9,-107,-97,58,43,-102,39,-39,-195,-146,-68,-58
-4,-107,-102,56,48,-104,34,-39,-195,-146,-68,-58
0,-107,-107,53,53,-107,29,-39,-195,-146,-68,-58
9,-82,-92,36,51,-87,29,-39,-180,-131,-63,-43
14,-68,-82,26,48,-75,24,-39,-175,-126,-58,-39
19,-48,-68,14,43,-58,24,-43,-170,-122,-53,-34
24,-39,-63,7,43,-51,24,-48,-165,-117,-53,-34
14,-43,-58,14,36,-51,24,-48,-170,-126,-53,-43
14,-39,-53,12,34,-46,24,-48,-165,-122,-48,-39
19,-34,-53,7,36,-43,24,-48,-161,-122,-48,-39
29,-34,-63,2,46,-48,24,-48,-161,-122,-48,-39
29,-29,-58,0,43,-43,24,-39,-156,-112,-39,-34
34,-29,-63,-2,48,-46,24,-39,-146,-107,-39,-24
39,-29,-68,-4,53,-48,24,-34,-136,-97,-34,-19
39,-19,-58,-9,48,-39,19,-34,-126,-92,-34,-9
43,-14,-58,-14,51,-36,9,-34,-131,-92,-29,-4
48,-4,-53,-21,51,-29,0,-34,-131,-82,-19,-4
53,0,-53,-26,53,-26,0,-34,-126,-82,-14,-4
58,4,-53,-31,56,-24,-14,-34,-117,-78,-14,-4
58,29,-29,-43,43,0,-14,-34,-102,-63,0,9
58,39,-19,-48,39,9,-24,-34,-92,-53,9,9
63,48,-14,-56,39,17,-39,-39,-87,-43,14,14
63,48,-14,-56,39,17,-43,-39,-87,-43,19,19
68,39,-29,-53,48,4,-53,-53,-97,-53,9,9
68,43,-24,-56,46,9,-63,-63,-107,-63,9,9
68,43,-24,-56,46,9,-73,-82,-126,-63,0,9
68,43,-24,-56,46,9,-82,-87,-136,-68,0,9
68,58,-9,-63,39,24,-82,-97,-126,-73,0,19
63,63,0,-63,31,31,-82,-102,-126,-73,0,19
63,73,9,-68,26,41,-87,-117,-131,-73,0,19
63,78,14,-70,24,46,-97,-122,-136,-73,0,19
63,73,9,-68,26,41,-107,-131,-141,-78,4,14
63,82,19,-73,21,51,-122,-141,-146,-82,4,14
63,87,24,-75,19,56,-131,-151,-151,-82,4,14
73,102,29,-87,21,65,-136,-151,-151,-82,4,14
92,112,19,-102,36,65,-141,-146,-156,-82,4,29
92,102,9,-97,41,56,-141,-146,-161,-87,0,29
92,87,-4,-90,48,41,-136,-141,-170,-102,-9,14
87,68,-19,-78,53,24,-126,-131,-180,-107,-14,9
82,39,-43,-61,63,-2,-112,-107,-180,-117,-29,4
78,14,-63,-46,70,-24,-102,-107,-195,-122,-39,0
78,-9,-87,-34,82,-48,-92,-92,-204,-131,-48,-9
73,-34,-107,-19,90,-70,-73,-92,-214,-141,-58,-24
58,-39,-97,-9,78,-68,-48,-97,-219,-141,-58,-34
43,-43,-87,0,65,-65,-34,-92,-219,-141,-68,-39
24,-48,-73,12,48,-61,-19,-78,-214,-136,-58,-39
9,-58,-68,24,39,-63,4,-58,-204,-126,-53,-39
4,-82,-87,39,46,-85,4,-58,-204,-136,-53,-39
-4,-92,-87,48,41,-90,14,-58,-204,-146,-63,-48
-9,-97,-87,53,39,-92,19,-58,-214,-151,-68,-58
-19,-107,-87,63,34,-97,24,-68,-219,-156,-78,-58
-9,-102,-92,56,41,-97,29,-68,-224,-161,-87,-73
-14,-107,-92,61,39,-100,29,-68,-229,-161,-87,-73
-14,-117,-102,65,43,-109,29,-68,-234,-161,-87,-73
-14,-122,-107,68,46,-114,39,-63,-234,-165,-87,-73
-14,-136,-122,75,53,-129,39,-58,-224,-175,-87,-73
-14,-141,-126,78,56,-134,39,-58,-224,-175,-97,-78
-14,-141,-126,78,56,-134,43,-58,-229,-180,-97,-78
-19,-141,-122,80,51,-131,43,-58,-229,-180,-97,-78
-9,-141,-131,75,61,-136,43,-68,-229,-170,-97,-78
-9,-141,-131,75,61,-136,43,-68,-229,-170,-97,-82
-9,-141,-131,75,61,-136,48,-68,-229,-170,-97,-82
-9,-141,-131,75,61,-136,48,-68,-229,-175,-97,-82
-9,-136,-126,73,58,-131,48,-58,-229,-175,-87,-73
-9,-141,-131,75,61,-136,48,-58,-229,-175,-87,-73
-14,-141,-126,78,56,-134,58,-53,-229,-175,-87,-73
-19,-141,-122,80,51,-131,58,-53,-229,-175,-87,-73
-9,-141,-131,75,61,-136,48,-63,-229,-175,-87,-73
-9,-141,-131,75,61,-136,48,-63,-229,-170,-87,-73
-9,-146,-136,78,63,-141,48,-63,-229,-170,-87,-73
-9,-146,-136,78,63,-141,48,-58,-229,-170,-87,-68
-4,-136,-131,70,63,-134,58,-48,-229,-170,-87,-68
-4,-136,-131,70,63,-134,58,-48,-229,-170,-87,-68
-4,-136,-131,70,63,-134,58,-48,-229,-170,-87,-78
-4,-136,-131,70,63,-134,58,-48,-229,-170,-87,-78
-14,-156,-141,85,63,-148,63,-39,-229,-170,-87,-78
-9,-146,-136,78,63,-141,63,-43,-234,-170,-87,-78
-9,-146,-136,78,63,-141,68,-29,-219,-161,-87,-82
-9,-151,-141,80,65,-146,82,-14,-204,-170,-87,-87
-19,-156,-136,87,58,-146,107,4,-190,-156,-87,-82
-24,-161,-136,92,56,-148,126,29,-156,-126,-78,-82
-34,-165,-131,100,48,-148,141,58,-92,-87,-43,-73
-43,-165,-122,104,39,-143,151,82,-39,-39,-14,-63
-43,-165,-122,104,39,-143,170,112,29,9,19,-43
-43,-161,-117,102,36,-139,175,156,112,68,68,-9
-24,-141,-117,82,46,-129,185,180,209,165,146,34
-4,-107,-102,56,48,-104,185,200,317,278,248,122
34,-87,-122,26,78,-104,165,229,439,414,385,224
78,-58,-136,-9,107,-97,146,253,556,541,512,326
112,-39,-151,-36,131,-95,131,273,639,658,610,400
131,-34,-165,-48,148,-100,112,273,668,697,658,444
156,-14,-170,-70,163,-92,78,248,649,727,707,478
214,29,-185,-122,200,-78,19,214,639,775,771,551
273,92,-180,-183,226,-43,-73,122,556,800,829,619
336,131,-204,-234,270,-36,-190,-4,375,756,834,673
424,156,-268,-290,346,-56,-317,-117,161,688,844,722
512,180,-331,-346,422,-75,-453,-229,-43,644,863,785
610,224,-385,-417,497,-80,-614,-370,-239,610,902,863
712,307,-405,-509,558,-48,-785,-527,-385,619,971,976
824,390,-434,-607,629,-21,-956,-673,-483,663,1073,1102
932,478,-453,-705,692,12,-1102,-805,-541,736,1195,1229
1010,556,-453,-783,732,51,-1268,-966,-624,790,1293,1356
1068,614,-453,-841,761,80,-1415,-1185,-785,751,1332,1444
1039,639,-400,-839,719,119,-1507,-1473,-1034,610,1263,1459
912,653,-258,-783,585,197,-1532,-1810,-1327,380,1107,1405
775,653,-122,-714,448,265,-1571,-2142,-1644,78,883,1283
663,619,-43,-641,353,287,-1600,-2347,-1976,-297,570,1112
541,502,-39,-522,290,231,-1551,-2425,-2337,-785,151,839
434,312,-122,-373,278,95,-1468,-2386,-2684,-1298,-361,492
414,146,-268,-280,341,-61,-1400,-2264,-2825,-1629,-707,209
434,53,-380,-244,407,-163,-1332,-2098,-2766,-1698,-839,58
424,34,-390,-229,407,-178,-1273,-1932,-2596,-1639,-868,-24
409,63,-346,-236,378,-141,-1195,-1761,-2342,-1512,-829,-53
414,92,-322,-253,368,-114,-1102,-1581,-2044,-1317,-722,-14
400,82,-317,-241,358,-117,-976,-1395,-1786,-1146,-619,4
366,43,-322,-204,344,-139,-858,-1224,-1595,-1049,-580,-24
312,63,-248,-187,280,-92,-761,-1088,-1415,-941,-522,-24
278,136,-141,-207,209,-2,-639,-936,-1180,-775,-400,19
239,165,-73,-202,156,46,-522,-790,-966,-634,-307,48
195,122,-73,-158,134,24,-419,-663,-834,-566,-283,9
131,78,-53,-104,92,12,-322,-546,-702,-492,-268,-48
78,48,-29,-63,53,9,-224,-439,-561,-409,-239,-78
34,29,-4,-31,19,12,-156,-356,-453,-336,-209,-87
4,-4,-9,0,7,-7,-97,-287,-370,-283,-175,-102
-39,-48,-9,43,-14,-29,-34,-190,-268,-214,-136,-107
-68,-82,-14,75,-26,-48,29,-102,-170,-151,-97,-107
-63,-92,-29,78,-17,-61,58,-58,-126,-117,-63,-87
-48,-82,-34,65,-7,-58,73,-34,-92,-78,-48,-68
-34,-78,-43,56,4,-61,87,-14,-63,-58,-29,-68
-19,-78,-58,48,19,-68,107,9,-39,-48,-9,-53
-14,-87,-73,51,29,-80,117,39,-19,-24,-4,-48
-24,-87,-63,56,19,-75,122,43,-9,-24,4,-48
-34,-92,-58,63,12,-75,117,43,-9,-29,-4,-48
-29,-97,-68,63,19,-82,122,48,-4,-24,0,-43
-29,-102,-73,65,21,-87,122,48,0,-19,0,-43
-29,-107,-78,68,24,-92,126,58,4,-19,0,-43
-19,-102,-82,61,31,-92,136,73,14,-14,0,-39
-19,-97,-78,58,29,-87,136,78,19,-9,4,-39
-14,-92,-78,53,31,-85,141,82,19,-9,9,-39
-14,-87,-73,51,29,-80,141,87,24,0,14,-34
-24,-97,-73,61,24,-85,136,92,34,4,14,-43
-24,-97,-73,61,24,-85,136,97,39,9,14,-39
-24,-97,-73,61,24,-85,141,97,43,9,14,-39
-24,-97,-73,61,24,-85,141,97,48,9,19,-39
-19,-87,-68,53,24,-78,141,107,63,14,24,-29
-9,-87,-78,48,34,-82,146,107,68,19,24,-24
-4,-87,-82,46,39,-85,146,107,73,19,29,-24
0,-87,-87,43,43,-87,146,112,78,19,34,-24
-9,-92,-82,51,36,-87,146,117,68,19,34,-24
-14,-92,-78,53,31,-85,146,117,73,29,34,-24
-14,-92,-78,53,31,-85,146,117,78,29,34,-24
-9,-92,-82,51,36,-87,151,122,82,29,43,-24
-9,-82,-73,46,31,-78,151,122,97,39,39,-29
-9,-82,-73,46,31,-78,151,126,102,43,43,-29
-9,-82,-73,46,31,-78,151,126,107,43,43,-24
-9,-78,-68,43,29,-73,151,131,112,53,43,-24
-9,-87,-78,48,34,-82,151,131,117,53,53,-14
-9,-87,-78,48,34,-82,151,131,117,53,48,-14
-9,-87,-78,48,34,-82,156,136,117,53,48,-14
-9,-82,-73,46,31,-78,156,136,126,58,53,-14
0,-73,-73,36,36,-73,161,141,131,68,63,-14
4,-73,-78,34,41,-75,161,141,136,68,68,-9
4,-73,-78,34,41,-75,165,146,146,68,68,-9
4,-73,-78,34,41,-75,165,146,151,68,68,-9
-4,-78,-73,41,34,-75,165,146,156,78,68,-9
-9,-78,-68,43,29,-73,165,151,156,87,68,-4
-9,-78,-68,43,29,-73,165,151,161,92,68,-4
-4,-73,-68,39,31,-70,165,156,165,92,63,-4
4,-63,-68,29,36,-65,165,156,175,92,73,4
4,-63,-68,29,36,-65,170,161,180,97,82,4
4,-63,-68,29,36,-65,170,165,185,97,82,9
4,-58,-63,26,34,-61,170,165,190,102,82,9
-4,-58,-53,31,24,-56,161,165,200,107,92,0
-9,-58,-48,34,19,-53,161,165,204,112,92,0
-9,-58,-48,34,19,-53,165,170,214,117,92,4
-9,-53,-43,31,17,-48,165,170,219,122,92,4
-9,-48,-39,29,14,-43,175,175,234,136,97,4
-9,-48,-39,29,14,-43,175,180,244,141,97,9
-9,-48,-39,29,14,-43,175,180,248,141,107,9
-9,-43,-34,26,12,-39,175,185,258,146,107,14
-9,-53,-43,31,17,-48,170,200,268,151,117,24
-9,-53,-43,31,17,-48,170,204,273,156,122,24
-9,-48,-39,29,14,-43,170,204,278,165,122,29
-9,-43,-34,26,12,-39,170,204,287,170,126,29
-9,-29,-19,19,4,-24,175,204,292,165,126,29
-9,-29,-19,19,4,-24,175,209,302,170,126,29
-9,-29,-19,19,4,-24,175,214,312,175,126,34
-9,-29,-19,19,4,-24,175,219,322,180,136,34
-9,-24,-14,17,2,-19,175,219,322,195,141,34
-14,-24,-9,19,-2,-17,180,224,336,200,141,39
-14,-24,-9,19,-2,-17,180,229,346,204,141,39
-14,-19,-4,17,-4,-12,180,229,346,209,146,39
-14,-29,-14,21,0,-21,195,234,346,204,136,29
-14,-24,-9,19,-2,-17,195,239,361,209,146,34
-14,-19,-4,17,-4,-12,195,244,370,214,151,34
-19,-19,0,19,-9,-9,200,248,380,224,156,39
-19,-19,0,19,-9,-9,200,263,400,239,165,48
-19,-19,0,19,-9,-9,204,268,400,244,165,48
-19,-14,4,17,-12,-4,204,273,414,248,175,53
-19,-14,4,17,-12,-4,209,278,429,253,175,53
-19,-19,0,19,-9,-9,200,287,429,248,170,53
-24,-9,14,17,-19,2,204,292,439,258,175,53
-24,-9,14,17,-19,2,204,297,448,263,180,58
-24,-9,14,17,-19,2,209,302,458,268,185,58
-14,0,14,7,-14,7,219,307,488,292,200,63
-14,4,19,4,-17,12,224,312,492,297,204,63
-24,9,34,7,-29,21,229,322,502,302,209,63
-24,19,43,2,-34,31,229,326,512,307,209,63
-29,9,39,9,-34,24,224,331,517,307,204,58
-34,14,48,9,-41,31,224,341,531,312,209,58
-39,24,63,7,-51,43,229,346,546,322,214,58
-43,29,73,7,-58,51,239,351,561,331,219,63
-39,34,73,2,-56,53,253,366,580,351,234,73
-39,39,78,0,-58,58,253,366,595,361,244,73
-39,39,78,0,-58,58,253,375,605,361,248,78
-43,39,82,2,-63,61,263,385,624,375,253,78
-48,43,92,2,-70,68,258,395,629,385,248,68
-53,48,102,2,-78,75,263,395,639,390,248,73
-58,53,112,2,-85,82,268,405,658,400,258,73
-58,63,122,-2,-90,92,268,409,673,409,263,73
-63,78,141,-7,-102,109,278,434,692,424,273,82
-63,82,146,-9,-104,114,287,434,717,434,283,87
-68,87,156,-9,-112,122,292,444,736,439,292,92
-73,92,165,-9,-119,129,302,448,756,448,302,102
-87,87,175,0,-131,131,297,453,761,448,302,92
-87,92,180,-2,-134,136,302,453,775,458,302,92
-92,97,190,-2,-141,143,307,458,795,468,302,92
-97,107,204,-4,-151,156,312,468,810,473,302,97
-102,122,224,-9,-163,173,317,478,839,497,312,97
-102,131,234,-14,-168,183,326,483,854,507,322,97
-107,136,244,-14,-175,190,326,488,868,512,331,97
-112,141,253,-14,-183,197,331,492,883,527,341,97
-126,141,268,-7,-197,204,336,497,902,536,341,97
-126,146,273,-9,-200,209,346,502,917,546,341,97
-131,151,283,-9,-207,217,351,507,932,551,346,97
-141,156,297,-7,-219,226,356,512,946,561,351,97
-136,161,297,-12,-217,229,361,522,971,575,366,107
-141,170,312,-14,-226,241,366,522,985,585,370,107
-146,180,326,-17,-236,253,370,527,1000,600,375,107
-161,190,351,-14,-256,270,375,527,1015,605,380,107
-175,185,361,-4,-268,273,380,517,1015,605,370,97
-185,185,370,0,-278,278,380,517,1024,614,370,97
-190,200,390,-4,-290,295,385,517,1029,619,380,97
-190,204,395,-7,-292,300,385,517,1034,629,385,97
-185,214,400,-14,-292,307,390,507,1044,634,395,97
-190,214,405,-12,-297,309,395,507,1058,639,400,92
-195,219,414,-12,-305,317,395,502,1063,644,400,92
-204,219,424,-7,-314,322,395,497,1073,653,400,97
-209,229,439,-9,-324,334,385,483,1063,658,405,107
-214,234,448,-9,-331,341,380,473,1068,658,405,107
-214,234,448,-9,-331,341,380,463,1068,658,409,102
-219,239,458,-9,-339,348,380,453,1068,658,409,102
-224,248,473,-12,-348,361,375,444,1058,663,409,102
-224,248,473,-12,-348,361,370,434,1054,663,409,102
-224,248,473,-12,-348,361,366,414,1044,663,409,102
-224,248,473,-12,-348,361,361,405,1034,658,409,102
-224,229,453,-2,-339,341,356,409,1015,649,400,92
-224,224,448,0,-336,336,341,395,1000,639,400,92
-219,214,434,2,-326,324,331,380,985,634,400,92
-219,204,424,7,-322,314,326,366,961,619,400,92
-200,204,405,-2,-302,305,307,351,932,614,390,92
-195,204,400,-4,-297,302,297,346,907,600,380,92
-190,195,385,-2,-287,290,287,326,883,590,375,92
-185,185,370,0,-278,278,278,307,858,580,370,92
-180,175,356,2,-268,265,263,297,810,551,356,82
-170,165,336,2,-253,251,248,283,780,527,346,73
-161,151,312,4,-236,231,248,278,746,512,331,68
-151,141,292,4,-222,217,234,263,712,492,322,68
-131,131,263,0,-197,197,214,248,678,473,312,73
-122,126,248,-2,-185,187,200,239,644,448,302,73
-102,122,224,-9,-163,173,185,224,605,424,292,73
-97,112,209,-7,-153,161,170,214,566,405,278,73
-97,87,185,4,-141,136,165,200,517,370,253,58
-78,68,146,4,-112,107,146,180,478,346,239,53
-73,53,126,9,-100,90,131,170,439,322,219,53
-63,53,117,4,-90,85,126,156,405,297,200,48
-53,53,107,0,-80,80,112,141,366,273,190,39
-39,43,82,-2,-61,63,97,131,331,248,180,39
-29,34,63,-2,-46,48,92,126,297,224,170,39
-19,29,48,-4,-34,39,78,117,263,209,165,39
-9,24,34,-7,-21,29,68,102,248,190,151,48
0,19,19,-9,-9,19,58,92,209,170,141,39
9,9,0,-9,4,4,48,82,185,151,126,39
14,0,-14,-7,14,-7,43,73,156,131,122,39
24,-9,-34,-7,29,-21,24,73,131,112,107,39
29,-9,-39,-9,34,-24,14,63,107,102,97,39
39,-14,-53,-12,46,-34,14,58,87,87,87,34
48,-14,-63,-17,56,-39,0,53,68,73,78,34
39,-19,-58,-9,48,-39,9,48,58,58,73,34
43,-24,-68,-9,56,-46,9,43,39,53,68,34
43,-34,-78,-4,61,-56,4,39,19,34,63,29
53,-34,-87,-9,70,-61,-4,34,9,24,58,29
53,-48,-102,-2,78,-75,-4,29,0,4,53,29
58,-53,-112,-2,85,-82,-9,29,-14,-4,43,24
63,-53,-117,-4,90,-85,-14,24,-24,-14,34,24
68,-48,-117,-9,92,-82,-14,19,-43,-19,24,24
78,-48,-126,-14,102,-87,-19,14,-43,-19,19,24
78,-58,-136,-9,107,-97,-19,9,-53,-24,19,24
78,-58,-136,-9,107,-97,-19,9,-63,-34,19,24
78,-68,-146,-4,112,-107,-19,9,-63,-39,19,24
68,-68,-136,0,102,-102,-19,9,-78,-34,9,14
73,-68,-141,-2,107,-104,-19,4,-82,-43,9,9
73,-68,-141,-2,107,-104,-24,4,-87,-43,4,9
73,-63,-136,-4,104,-100,-24,4,-92,-48,4,9
73,-48,-122,-12,97,-85,-24,4,-87,-43,4,19
73,-48,-122,-12,97,-85,-24,4,-87,-43,4,19
73,-58,-131,-7,102,-95,-24,0,-92,-43,4,19
73,-63,-136,-4,104,-100,-29,0,-92,-43,4,19
73,-63,-136,-4,104,-100,-29,0,-92,-53,-4,19
73,-63,-136,-4,104,-100,-29,0,-97,-53,-4,19
78,-63,-141,-7,109,-102,-29,0,-97,-58,-9,19
78,-58,-136,-9,107,-97,-29,0,-92,-58,-9,19
78,-53,-131,-12,104,-92,-29,9,-92,-53,0,14
78,-53,-131,-12,104,-92,-29,9,-97,-53,0,14
73,-53,-126,-9,100,-90,-29,9,-97,-53,0,14
73,-63,-136,-4,104,-100,-24,9,-97,-48,0,19
63,-63,-126,0,95,-95,-24,0,-87,-48,0,19
63,-63,-126,0,95,-95,-24,0,-87,-48,0,19
63,-63,-126,0,95,-95,-24,0,-87,-48,-4,14
63,-63,-126,0,95,-95,-24,0,-87,-48,-4,14
68,-53,-122,-7,95,-87,-14,9,-92,-48,-4,14
68,-53,-122,-7,95,-87,-14,9,-87,-48,-4,14
73,-53,-126,-9,100,-90,-9,9,-87,-48,-4,14
78,-58,-136,-9,107,-97,-9,14,-92,-48,0,14
63,-63,-126,0,95,-95,-9,4,-82,-48,0,4
63,-68,-131,2,97,-100,-9,4,-82,-43,0,0
63,-73,-136,4,100,-104,-4,4,-78,-43,0,0
63,-73,-136,4,100,-104,-4,4,-78,-48,0,0
58,-73,-131,7,95,-102,-4,4,-87,-48,-4,9
58,-73,-131,7,95,-102,-4,4,-87,-48,-4,9
58,-73,-131,7,95,-102,0,4,-82,-43,0,9
58,-73,-131,7,95,-102,0,4,-78,-43,0,9
43,-82,-126,19,85,-104,0,4,-78,-53,0,0
39,-82,-122,21,80,-102,0,4,-78,-53,0,0
39,-82,-122,21,80,-102,4,4,-78,-53,0,0
39,-82,-122,21,80,-102,4,4,-78,-53,-4,0
48,-73,-122,12,85,-97,4,4,-68,-48,-4,4
48,-73,-122,12,85,-97,4,4,-68,-48,-4,4
48,-73,-122,12,85,-97,4,4,-63,-43,-4,4
43,-78,-122,17,82,-100,4,4,-63,-43,-4,4
34,-78,-112,21,73,-95,0,4,-73,-53,-14,-4
29,-78,-107,24,68,-92,4,4,-73,-48,-14,-4
29,-82,-112,26,70,-97,4,4,-73,-48,-14,-4
29,-82,-112,26,70,-97,4,4,-73,-48,-19,-4
39,-73,-112,17,75,-92,9,4,-68,-53,-19,0
39,-68,-107,14,73,-87,9,4,-68,-53,-14,0
39,-68,-107,14,73,-87,14,4,-68,-48,-4,0
34,-68,-102,17,68,-85,14,4,-68,-48,4,0
29,-82,-112,26,70,-97,4,4,-68,-48,0,-9
29,-82,-112,26,70,-97,9,4,-73,-53,-4,-9
29,-82,-112,26,70,-97,9,4,-73,-53,-9,-9
29,-82,-112,26,70,-97,9,4,-73,-53,-14,-9
29,-73,-102,21,65,-87,19,4,-58,-43,-14,-14
29,-73,-102,21,65,-87,19,4,-58,-43,-14,-14
29,-73,-102,21,65,-87,19,4,-58,-43,-14,-14
29,-73,-102,21,65,-87,19,4,-58,-43,-14,-14
24,-82,-107,29,65,-95,9,4,-73,-53,-14,-24
24,-92,-117,34,70,-104,14,4,-73,-53,-14,-24
24,-92,-117,34,70,-104,14,4,-78,-53,-19,-24
24,-92,-117,34,70,-104,14,9,-78,-53,-19,-24
34,-82,-117,24,75,-100,14,9,-78,-53,-19,-19
29,-82,-112,26,70,-97,14,4,-78,-58,-19,-24
29,-82,-112,26,70,-97,9,4,-78,-58,-19,-24
29,-82,-112,26,70,-97,9,4,-78,-58,-19,-24
19,-92,-112,36,65,-102,14,4,-78,-58,-29,-29
19,-97,-117,39,68,-107,14,4,-82,-58,-29,-29
19,-102,-122,41,70,-112,14,4,-87,-58,-29,-29
19,-102,-122,41,70,-112,14,0,-87,-58,-29,-34
19,-92,-112,36,65,-102,19,0,-78,-58,-24,-24
19,-87,-107,34,63,-97,14,0,-78,-58,-29,-29
19,-87,-107,34,63,-97,14,0,-78,-63,-29,-34
19,-87,-107,34,63,-97,14,4,-78,-68,-29,-34
19,-97,-117,39,68,-107,14,-4,-87,-73,-29,-29
19,-97,-117,39,68,-107,14,-4,-92,-73,-29,-29
19,-102,-122,41,70,-112,14,-4,-97,-73,-29,-34
19,-107,-126,43,73,-117,14,-9,-102,-73,-34,-34
19,-97,-117,39,68,-107,19,0,-92,-63,-29,-24
19,-92,-112,36,65,-102,19,0,-92,-63,-34,-24
19,-92,-112,36,65,-102,19,0,-97,-68,-34,-29
19,-92,-112,36,65,-102,19,0,-97,-73,-34,-29
19,-102,-122,41,70,-112,24,0,-102,-82,-43,-39
19,-102,-122,41,70,-112,24,-4,-102,-82,-48,-39
19,-112,-131,46,75,-122,24,-4,-107,-87,-48,-39
19,-117,-136,48,78,-126,24,-4,-107,-87,-48,-34
19,-107,-126,43,73,-117,14,-14,-112,-97,-48,-43
19,-102,-122,41,70,-112,19,-14,-112,-102,-58,-48
19,-97,-117,39,68,-107,19,-14,-117,-102,-58,-53
19,-97,-117,39,68,-107,14,-14,-122,-102,-58,-53
19,-97,-117,39,68,-107,14,-14,-112,-92,-53,-43
24,-97,-122,36,73,-109,14,-14,-112,-97,-48,-43
24,-97,-122,36,73,-109,14,-19,-117,-97,-48,-43
24,-107,-131,41,78,-119,9,-19,-122,-97,-53,-43
29,-107,-136,39,82,-122,9,-9,-131,-107,-53,-43
29,-102,-131,36,80,-117,9,-9,-131,-107,-58,-43
29,-102,-131,36,80,-117,9,-9,-131,-107,-63,-43
29,-102,-131,36,80,-117,9,-9,-131,-112,-63,-43
29,-102,-131,36,80,-117,9,-9,-131,-102,-63,-43
29,-102,-131,36,80,-117,9,-14,-131,-102,-63,-43
34,-107,-141,36,87,-124,14,-14,-131,-102,-63,-43
34,-112,-146,39,90,-129,14,-14,-136,-102,-63,-43
34,-122,-156,43,95,-139,14,-14,-141,-112,-78,-43
34,-122,-156,43,95,-139,14,-14,-141,-112,-78,-43
34,-112,-146,39,90,-129,14,-14,-136,-112,-78,-43
34,-112,-146,39,90,-129,9,-14,-136,-112,-78,-48
34,-102,-136,34,85,-119,0,-14,-136,-112,-78,-48
34,-102,-136,34,85,-119,0,-14,-136,-112,-78,-48
34,-102,-136,34,85,-119,0,-14,-136,-112,-78,-48
34,-112,-146,39,90,-129,0,-14,-141,-117,-78,-48
34,-122,-156,43,95,-139,0,-19,-151,-126,-78,-58
29,-117,-146,43,87,-131,0,-19,-156,-131,-78,-58
24,-117,-141,46,82,-129,0,-19,-156,-131,-82,-58
24,-117,-141,46,82,-129,-4,-19,-151,-136,-87,-58
24,-117,-141,46,82,-129,4,-19,-141,-136,-78,-48
29,-117,-146,43,87,-131,4,-19,-146,-131,-73,-48
29,-117,-146,43,87,-131,4,-19,-146,-131,-73,-48
29,-122,-151,46,90,-136,4,-19,-151,-131,-78,-43
24,-131,-156,53,90,-143,-4,-19,-170,-141,-87,-53
24,-131,-156,53,90,-143,-4,-19,-161,-146,-87,-53
24,-126,-151,51,87,-139,-4,-19,-161,-146,-92,-58
19,-126,-146,53,82,-136,-4,-19,-161,-146,-92,-58
29,-117,-146,43,87,-131,4,-19,-151,-141,-82,-58
29,-117,-146,43,87,-131,0,-19,-151,-136,-82,-53
29,-117,-146,43,87,-131,0,-19,-151,-131,-82,-48
29,-117,-146,43,87,-131,4,-24,-156,-126,-82,-43
29,-126,-156,48,92,-141,0,-24,-165,-131,-82,-53
29,-126,-156,48,92,-141,-4,-24,-165,-131,-82,-53
29,-126,-156,48,92,-141,-14,-24,-165,-131,-82,-53
29,-122,-151,46,90,-136,-19,-24,-165,-131,-82,-53
29,-107,-136,39,82,-122,-9,-24,-165,-131,-92,-53
29,-107,-136,39,82,-122,-9,-24,-165,-131,-92,-53
29,-107,-136,39,82,-122,-9,-24,-170,-131,-92,-53
29,-112,-141,41,85,-126,-9,-24,-170,-131,-97,-53
34,-122,-156,43,95,-139,-9,-24,-175,-141,-97,-53
39,-126,-165,43,102,-146,-9,-24,-175,-141,-97,-53
39,-126,-165,43,102,-146,-9,-24,-170,-141,-97,-53
34,-131,-165,48,100,-148,-9,-24,-170,-141,-97,-53
34,-122,-156,43,95,-139,-4,-24,-161,-136,-87,-53
34,-122,-156,43,95,-139,-4,-24,-161,-136,-87,-53
29,-122,-151,46,90,-136,-4,-24,-161,-136,-87,-53
29,-122,-151,46,90,-136,-4,-24,-165,-136,-87,-53
29,-136,-165,53,97,-151,-14,-24,-175,-146,-97,-63
34,-136,-170,51,102,-153,-14,-24,-175,-146,-97,-63
39,-136,-175,48,107,-156,-14,-24,-175,-146,-97,-63
39,-136,-175,48,107,-156,-14,-24,-175,-146,-97,-63
34,-122,-156,43,95,-139,-14,-24,-165,-136,-97,-53
34,-122,-156,43,95,-139,-14,-24,-165,-136,-97,-53
34,-122,-156,43,95,-139,-14,-24,-165,-136,-97,-53
34,-122,-156,43,95,-139,-9,-24,-165,-136,-97,-53
24,-122,-146,48,85,-134,-9,-24,-175,-151,-107,-63
24,-131,-156,53,90,-143,-9,-24,-180,-151,-107,-63
24,-131,-156,53,90,-143,-9,-24,-180,-151,-112,-63
24,-126,-151,51,87,-139,-9,-24,-180,-151,-112,-63
39,-136,-175,48,107,-156,-14,-24,-165,-151,-97,-53
39,-136,-175,48,107,-156,-14,-24,-165,-151,-97,-48
39,-131,-170,46,104,-151,-14,-24,-170,-146,-97,-48
34,-131,-165,48,100,-148,-14,-24,-170,-146,-97,-58
24,-141,-165,58,95,-153,-14,-24,-180,-141,-107,-58
24,-146,-170,61,97,-158,-14,-24,-180,-141,-107,-53
24,-146,-170,61,97,-158,-14,-24,-180,-141,-107,-53
24,-146,-170,61,97,-158,-14,-24,-180,-141,-107,-53
29,-136,-165,53,97,-151,-9,-24,-170,-151,-107,-53
29,-126,-156,48,92,-141,-9,-24,-170,-141,-97,-43
43,-126,-170,41,107,-148,-14,-19,-170,-141,-87,-43
48,-122,-170,36,109,-146,-9,-24,-161,-141,-97,-53
39,-126,-165,43,102,-146,-9,-29,-165,-146,-97,-58
29,-136,-165,53,97,-151,-19,-19,-165,-146,-107,-58
29,-136,-165,53,97,-151,-19,-19,-165,-146,-107,-58
29,-136,-165,53,97,-151,-19,-19,-165,-146,-107,-58
29,-136,-165,53,97,-151,-19,-19,-165,-146,-107,-58
34,-122,-156,43,95,-139,-19,-14,-156,-136,-102,-53
39,-117,-156,39,97,-136,-19,-9,-156,-136,-97,-48
43,-112,-156,34,100,-134,-19,-4,-156,-136,-92,-43
48,-107,-156,29,102,-131,-19,0,-156,-136,-87,-39
53,-102,-156,24,104,-129,-19,0,-141,-122,-82,-34
53,-97,-151,21,102,-124,-24,0,-136,-117,-78,-29
53,-87,-141,17,97,-114,-24,-4,-131,-112,-73,-24
53,-87,-141,17,97,-114,-24,-9,-126,-107,-73,-24
63,-68,-131,2,97,-100,-24,-9,-122,-97,-63,-14
63,-58,-122,-2,92,-90,-24,-9,-117,-92,-58,-9
68,-48,-117,-9,92,-82,-24,-9,-112,-92,-58,-9
78,-43,-122,-17,100,-82,-24,-9,-112,-92,-58,-9
78,-43,-122,-17,100,-82,-24,9,-112,-102,-58,-19
82,-48,-131,-17,107,-90,-24,9,-107,-97,-58,-14
87,-53,-141,-17,114,-97,-24,14,-102,-87,-53,-14
87,-48,-136,-19,112,-92,-29,14,-97,-82,-53,-9
92,-34,-126,-29,109,-80,-29,4,-92,-82,-48,0
97,-24,-122,-36,109,-73,-39,4,-92,-73,-39,4
102,-19,-122,-41,112,-70,-39,4,-87,-73,-34,9
107,-14,-122,-46,114,-68,-53,4,-78,-68,-34,14
97,-9,-107,-43,102,-58,-63,-4,-73,-63,-39,9
97,0,-97,-48,97,-48,-73,-4,-63,-53,-29,9
102,9,-92,-56,97,-41,-87,-9,-58,-43,-24,14
102,9,-92,-56,97,-41,-92,-9,-58,-43,-19,19
107,19,-87,-63,97,-34,-102,-14,-63,-43,-9,29
107,24,-82,-65,95,-29,-112,-24,-68,-53,-9,29
107,24,-82,-65,95,-29,-122,-43,-82,-53,-19,29
107,24,-82,-65,95,-29,-131,-48,-87,-58,-19,29
107,29,-78,-68,92,-24,-131,-48,-87,-63,-19,29
102,34,-68,-68,85,-17,-131,-53,-87,-63,-19,29
102,43,-58,-73,80,-7,-136,-68,-92,-63,-19,29
102,48,-53,-75,78,-2,-146,-73,-97,-63,-19,29
112,63,-48,-87,80,7,-146,-92,-92,-58,-24,34
112,73,-39,-92,75,17,-161,-102,-97,-63,-24,34
112,78,-34,-95,73,21,-170,-112,-102,-63,-24,34
122,92,-29,-107,75,31,-175,-112,-102,-63,-24,34
131,102,-29,-117,80,36,-190,-117,-107,-63,-24,39
131,92,-39,-112,85,26,-190,-117,-112,-68,-29,39
131,78,-53,-104,92,12,-185,-112,-122,-82,-39,24
126,58,-68,-92,97,-4,-175,-102,-131,-87,-43,19
122,29,-92,-75,107,-31,-161,-87,-131,-97,-58,14
117,4,-112,-61,114,-53,-151,-87,-146,-102,-68,9
117,-19,-136,-48,126,-78,-141,-73,-156,-112,-78,0
112,-43,-156,-34,134,-100,-122,-73,-165,-122,-87,-14
107,-53,-161,-26,134,-107,-107,-58,-161,-131,-87,-14
92,-63,-156,-14,124,-109,-92,-53,-161,-131,-97,-19
73,-73,-146,0,109,-109,-78,-39,-156,-126,-87,-19
58,-87,-146,14,102,-117,-53,-19,-146,-117,-82,-19
53,-112,-165,29,109,-139,-43,-19,-156,-126,-92,-29
43,-122,-165,39,104,-143,-34,-19,-156,-136,-102,-39
39,-126,-165,43,102,-146,-29,-19,-165,-141,-107,-48
29,-136,-165,53,97,-151,-24,-29,-170,-146,-117,-48
29,-141,-170,56,100,-156,-19,-29,-175,-151,-126,-63
24,-146,-170,61,97,-158,-19,-29,-180,-151,-126,-63
24,-156,-180,65,102,-168,-19,-29,-185,-151,-126,-63
24,-161,-185,68,104,-173,-9,-24,-185,-156,-126,-63
14,-165,-180,75,97,-173,-9,-29,-185,-165,-126,-63
14,-170,-185,78,100,-178,-9,-29,-185,-165,-136,-68
14,-170,-185,78,100,-178,-4,-29,-190,-170,-136,-68
9,-170,-180,80,95,-175,-4,-29,-190,-170,-136,-68
19,-170,-190,75,104,-180,-4,-19,-190,-161,-136,-68
19,-170,-190,75,104,-180,-4,-19,-190,-161,-136,-73
19,-170,-190,75,104,-180,0,-19,-190,-161,-136,-73
19,-170,-190,75,104,-180,0,-19,-190,-165,-136,-73
19,-175,-195,78,107,-185,-9,-29,-190,-175,-146,-73
19,-180,-200,80,109,-190,-9,-29,-190,-175,-146,-73
14,-180,-195,82,104,-187,0,-24,-190,-175,-146,-73
9,-180,-190,85,100,-185,0,-24,-190,-175,-146,-73
9,-180,-190,85,100,-185,9,-14,-180,-175,-136,-73
9,-180,-190,85,100,-185,9,-14,-180,-170,-136,-73
9,-185,-195,87,102,-190,9,-14,-180,-170,-136,-73
9,-185,-195,87,102,-190,9,-9,-180,-170,-136,-68
4,-195,-200,95,102,-197,0,-19,-190,-170,-146,-68
4,-195,-200,95,102,-197,0,-19,-190,-170,-146,-68
4,-195,-200,95,102,-197,0,-19,-190,-170,-146,-78
4,-195,-200,95,102,-197,0,-19,-190,-170,-146,-78
14,-185,-200,85,107,-192,14,0,-170,-151,-136,-68
19,-185,-204,82,112,-195,14,-4,-175,-161,-136,-68
19,-195,-214,87,117,-204,29,9,-170,-161,-136,-73
9,-209,-219,100,114,-214,34,24,-165,-161,-136,-78
-9,-214,-204,112,97,-209,48,34,-151,-156,-146,-92
-14,-229,-214,122,100,-222,58,48,-126,-146,-146,-102
-14,-234,-219,124,102,-226,82,78,-73,-107,-112,-82
-14,-224,-209,119,97,-217,92,102,-9,-48,-63,-63
-4,-204,-200,104,97,-202,102,131,58,9,-29,-34
4,-200,-204,97,104,-202,126,165,151,78,19,0
4,-190,-195,92,100,-192,136,209,248,165,97,53
24,-175,-200,75,112,-187,136,229,346,268,190,112
43,-146,-190,51,117,-168,107,239,448,385,297,204
87,-126,-214,19,151,-170,87,263,566,522,434,317
122,-107,-229,-7,175,-168,63,283,658,639,551,409
151,-82,-234,-34,192,-158,43,283,717,707,619,463
185,-53,-239,-65,212,-146,29,278,736,766,678,517
234,0,-234,-117,234,-117,-19,253,746,844,761,610
283,73,-209,-178,246,-68,-102,180,702,888,839,688
336,131,-204,-234,270,-36,-219,63,561,863,863,741
405,156,-248,-280,326,-46,-346,-78,346,805,873,790
492,170,-322,-331,407,-75,-483,-200,141,751,893,854
580,224,-356,-402,468,-65,-634,-341,-63,717,922,932
683,317,-366,-500,524,-24,-805,-507,-229,717,1000,1054
805,409,-395,-607,600,7,-976,-653,-326,771,1102,1190
912,507,-405,-710,658,51,-1132,-775,-375,854,1244,1346
1000,605,-395,-802,697,104,-1288,-917,-439,917,1361,1483
1049,683,-366,-866,707,158,-1444,-1117,-590,907,1420,1581
1049,697,-351,-873,700,173,-1556,-1356,-819,785,1371,1605
941,692,-248,-817,595,222,-1600,-1664,-1112,556,1234,1561
785,692,-92,-739,439,300,-1620,-2005,-1468,253,990,1439
653,678,24,-666,314,351,-1639,-2259,-1820,-131,678,1259
541,590,48,-566,246,319,-1610,-2366,-2171,-590,287,1034
434,419,-14,-427,224,202,-1527,-2337,-2527,-1112,-195,707
385,234,-151,-309,268,41,-1449,-2225,-2747,-1512,-619,385
395,102,-292,-248,344,-95,-1381,-2059,-2747,-1668,-839,175
395,34,-361,-214,378,-163,-1312,-1903,-2615,-1659,-907,53
380,24,-356,-202,368,-165,-1244,-1761,-2400,-1571,-917,-24
356,63,-292,-209,324,-114,-1171,-1590,-2122,-1405,-829,-14
351,73,-278,-212,314,-102,-1063,-1405,-1854,-1224,-727,4
336,53,-283,-195,309,-114,-946,-1234,-1644,-1107,-668,-4
302,63,-239,-183,270,-87,-839,-1088,-1454,-1000,-619,-14
278,126,-151,-202,214,-12,-727,-927,-1200,-824,-507,29
239,156,-82,-197,161,36,-610,-780,-976,-663,-395,58
185,112,-73,-148,129,19,-488,-644,-824,-585,-370,19
122,19,-102,-70,112,-41,-380,-527,-702,-531,-366,-58
68,-19,-87,-24,78,-53,-283,-419,-570,-468,-356,-107
24,-48,-73,12,48,-61,-214,-326,-463,-395,-326,-126
-4,-73,-68,39,31,-70,-156,-268,-361,-322,-283,-122
-29,-87,-58,58,14,-73,-92,-190,-258,-253,-234,-117
-39,-122,-82,80,21,-102,-29,-102,-161,-180,-195,-126
-53,-131,-78,92,12,-104,9,-48,-97,-136,-161,-107
-48,-131,-82,90,17,-107,24,-24,-63,-117,-126,-87
-43,-146,-102,95,29,-124,29,4,-43,-97,-117,-78
-39,-165,-126,102,43,-146,48,29,-19,-78,-107,-82
-43,-175,-131,109,43,-153,58,39,-9,-63,-102,-68
-34,-165,-131,100,48,-148,63,43,0,-53,-92,-68
-34,-165,-131,100,48,-148,68,58,9,-39,-82,-58
-29,-165,-136,97,53,-151,73,68,24,-34,-78,-53
-29,-165,-136,97,53,-151,73,73,39,-29,-78,-53
-29,-165,-136,97,53,-151,78,87,53,-29,-78,-53
-39,-175,-136,107,48,-156,87,82,53,-34,-87,-53
-39,-175,-136,107,48,-156,87,87,58,-29,-82,-58
-34,-175,-141,104,53,-158,92,92,58,-29,-78,-63
-34,-175,-141,104,53,-158,92,97,63,-19,-73,-63
-24,-170,-146,97,61,-158,87,102,73,-14,-73,-63
-24,-165,-141,95,58,-153,87,107,78,-9,-73,-58
-24,-161,-136,92,56,-148,92,107,82,-9,-73,-58
-24,-156,-131,90,53,-143,92,107,87,-9,-68,-58
-34,-165,-131,100,48,-148,92,117,82,-4,-73,-58
-29,-165,-136,97,53,-151,97,117,87,0,-73,-53
-29,-165,-136,97,53,-151,97,117,92,0,-68,-53
-29,-165,-136,97,53,-151,97,122,97,0,-63,-53
-29,-161,-131,95,51,-146,107,117,97,9,-63,-53
-34,-161,-126,97,46,-143,107,117,102,19,-63,-53
-34,-161,-126,97,46,-143,107,117,107,19,-63,-53
-29,-161,-131,95,51,-146,112,122,112,19,-53,-53
-39,-161,-122,100,41,-141,102,122,117,19,-48,-48
-39,-161,-122,100,41,-141,102,126,122,24,-43,-48
-39,-161,-122,100,41,-141,102,126,126,24,-43,-43
-39,-156,-117,97,39,-136,102,131,131,34,-43,-43
-29,-156,-126,92,48,-141,102,141,136,24,-43,-43
-29,-156,-126,92,48,-141,102,141,136,24,-48,-43
-29,-156,-126,92,48,-141,107,146,136,24,-48,-43
-29,-151,-122,90,46,-136,107,146,146,29,-43,-43
-39,-151,-112,95,36,-131,112,151,151,39,-43,-43
-34,-151,-117,92,41,-134,112,151,156,39,-39,-39
-34,-151,-117,92,41,-134,117,156,165,39,-39,-39
-34,-151,-117,92,41,-134,117,156,170,39,-39,-39
-24,-146,-122,85,48,-134,107,146,175,48,-19,-39
-29,-146,-117,87,43,-131,107,151,175,58,-19,-34
-29,-146,-117,87,43,-131,107,151,180,63,-19,-34
-24,-141,-117,82,46,-129,107,156,185,63,-24,-34
-24,-141,-117,82,46,-129,117,156,204,63,-24,-34
-24,-141,-117,82,46,-129,122,161,209,68,-14,-34
-24,-141,-117,82,46,-129,122,165,214,68,-14,-29
-24,-136,-112,80,43,-124,122,165,219,73,-14,-29
-24,-136,-112,80,43,-124,112,165,219,78,-14,-39
-29,-136,-107,82,39,-122,112,165,224,82,-14,-39
-29,-136,-107,82,39,-122,117,170,234,87,-14,-34
-29,-131,-102,80,36,-117,117,170,239,92,-14,-34
-39,-117,-78,78,19,-97,117,175,244,97,0,-24
-39,-117,-78,78,19,-97,117,180,253,102,0,-19
-39,-117,-78,78,19,-97,117,180,258,102,9,-19
-39,-112,-73,75,17,-92,117,185,268,107,9,-14
-29,-117,-87,73,29,-102,122,180,268,112,9,-24
-29,-122,-92,75,31,-107,122,185,273,117,14,-24
-29,-122,-92,75,31,-107,122,185,278,126,14,-19
-29,-122,-92,75,31,-107,122,185,287,131,19,-19
-39,-107,-68,73,14,-87,136,195,302,126,19,-19
-39,-107,-68,73,14,-87,136,200,312,131,19,-19
-39,-107,-68,73,14,-87,136,204,322,136,19,-14
-39,-107,-68,73,14,-87,136,209,331,141,29,-14
-39,-102,-63,70,12,-82,136,209,322,146,34,-14
-43,-102,-58,73,7,-80,141,214,336,151,34,-9
-43,-102,-58,73,7,-80,141,219,346,156,34,-9
-43,-97,-53,70,4,-75,141,219,346,161,39,-9
-34,-87,-53,61,9,-70,146,214,356,175,39,-9
-34,-82,-48,58,7,-65,146,219,370,180,48,-4
-34,-78,-43,56,4,-61,146,224,380,185,53,-4
-39,-78,-39,58,0,-58,151,229,390,195,58,0
-48,-87,-39,68,-4,-63,151,234,400,190,48,-9
-48,-87,-39,68,-4,-63,156,239,400,195,48,-9
-48,-82,-34,65,-7,-58,156,244,414,200,58,-4
-48,-82,-34,65,-7,-58,161,248,429,204,58,-4
-48,-68,-19,58,-14,-43,161,258,439,209,63,4
-53,-58,-4,56,-24,-31,165,263,448,219,68,4
-53,-58,-4,56,-24,-31,165,268,458,224,73,9
-53,-58,-4,56,-24,-31,170,273,468,229,78,9
-63,-63,0,63,-31,-31,170,268,478,234,82,4
-63,-63,0,63,-31,-31,175,273,483,239,87,4
-73,-63,9,68,-41,-26,180,283,492,244,92,4
-73,-58,14,65,-43,-21,180,287,502,248,92,4
-73,-48,24,61,-48,-12,185,292,517,268,107,19
-73,-43,29,58,-51,-7,185,302,531,273,112,19
-73,-34,39,53,-56,2,190,307,546,283,117,19
-73,-29,43,51,-58,7,200,312,561,292,122,24
-87,-29,58,58,-73,14,195,317,561,292,117,14
-87,-29,58,58,-73,14,195,317,575,302,126,14
-87,-34,53,61,-70,9,195,326,585,302,131,19
-92,-39,53,65,-73,7,204,336,605,317,136,19
-87,-24,63,56,-75,19,219,346,629,326,141,29
-92,-19,73,56,-82,26,224,346,639,331,141,34
-97,-14,82,56,-90,34,229,356,658,341,151,34
-97,-4,92,51,-95,43,229,361,673,351,156,34
-102,-9,92,56,-97,41,229,375,678,356,151,34
-102,-4,97,53,-100,46,239,375,697,366,156,29
-107,0,107,53,-107,53,244,385,712,370,161,24
-112,4,117,53,-114,61,253,390,727,380,165,24
-107,14,122,46,-114,68,248,395,741,390,170,24
-107,24,131,41,-119,78,253,395,756,400,175,24
-112,34,146,39,-129,90,258,400,775,409,180,24
-117,48,165,34,-141,107,263,409,790,414,185,29
-131,43,175,43,-153,109,278,409,800,429,180,29
-131,53,185,39,-158,119,287,414,814,439,185,29
-136,58,195,39,-165,126,287,419,829,444,190,29
-141,63,204,39,-173,134,292,424,844,458,195,29
-146,78,224,34,-185,151,287,419,873,468,204,29
-146,87,234,29,-190,161,297,424,888,478,204,29
-151,97,248,26,-200,173,302,429,902,483,209,29
-161,107,268,26,-214,187,307,434,917,492,214,29
-165,97,263,34,-214,180,312,434,927,492,209,19
-170,102,273,34,-222,187,317,434,936,497,214,19
-175,107,283,34,-229,195,322,439,946,507,219,19
-190,112,302,39,-246,207,326,439,956,507,224,19
-185,126,312,29,-248,219,331,429,961,517,224,19
-195,126,322,34,-258,224,331,429,976,527,224,19
-200,141,341,29,-270,241,336,429,985,531,234,19
-200,146,346,26,-273,246,336,429,995,541,239,19
-209,146,356,31,-283,251,341,429,1000,546,229,9
-219,146,366,36,-292,256,346,429,1010,551,234,4
-229,151,380,39,-305,265,346,424,1010,556,234,4
-244,151,395,46,-319,273,346,419,1015,566,234,9
-239,161,400,39,-319,280,346,414,1005,561,239,9
-244,165,409,39,-326,287,341,405,1010,561,239,9
-244,165,409,39,-326,287,341,395,1010,561,244,4
-248,170,419,39,-334,295,341,385,1010,561,244,4
-263,161,424,51,-344,292,336,375,1010,566,253,4
-263,161,424,51,-344,292,331,366,1005,566,253,4
-263,161,424,51,-344,292,326,346,995,566,253,4
-263,161,424,51,-344,292,322,336,985,561,253,4
-253,165,419,43,-336,292,317,341,976,561,244,14
-253,165,419,43,-336,292,302,326,961,551,244,14
-248,161,409,43,-329,285,292,312,946,546,244,14
-248,156,405,46,-326,280,287,297,922,531,244,14
-239,141,380,48,-309,261,287,287,912,536,244,14
-234,136,370,48,-302,253,278,287,888,522,234,14
-229,122,351,53,-290,236,268,273,863,512,229,14
-224,107,331,58,-278,219,258,258,839,502,224,14
-209,102,312,53,-261,207,244,248,810,483,219,14
-200,97,297,51,-248,197,229,234,780,458,209,4
-190,87,278,51,-234,183,229,229,746,444,195,0
-180,82,263,48,-222,173,214,214,712,424,185,0
-180,73,253,53,-217,163,204,209,678,414,185,4
-170,68,239,51,-204,153,190,200,644,390,175,4
-151,63,214,43,-183,139,175,185,605,366,165,4
-146,53,200,46,-173,126,161,175,566,346,151,4
-126,39,165,43,-146,102,146,170,527,331,141,0
-107,19,126,43,-117,73,126,151,488,307,131,-4
-102,4,107,48,-104,56,112,141,448,283,117,-4
-92,4,97,43,-95,51,107,126,414,258,102,-9
-82,-4,78,43,-80,36,102,112,380,244,92,0
-68,-14,53,41,-61,19,87,102,351,219,82,0
-58,-24,34,41,-46,4,82,97,322,195,73,0
-48,-29,19,39,-34,-4,68,87,292,180,68,0
-48,-34,14,41,-31,-9,58,73,268,161,53,0
-39,-39,0,39,-19,-19,48,63,229,141,43,-9
-29,-48,-19,39,-4,-34,39,53,204,122,29,-9
-24,-58,-34,41,4,-46,34,43,175,102,24,-9
-14,-48,-34,31,9,-41,24,39,161,92,19,0
-9,-48,-39,29,14,-43,14,34,136,82,9,0
0,-53,-53,26,26,-53,14,34,117,68,0,-4
9,-53,-63,21,36,-58,0,34,97,53,-9,-4
9,-63,-73,26,41,-68,0,29,68,29,-14,-4
14,-73,-87,29,51,-80,0,24,48,24,-19,-4
14,-87,-102,36,58,-95,-4,19,29,4,-24,-9
24,-92,-117,34,70,-104,-14,14,19,-4,-29,-9
24,-87,-112,31,68,-100,-4,9,19,-4,-34,0
29,-92,-122,31,75,-107,-9,9,4,-14,-43,-4
34,-92,-126,29,80,-109,-14,4,-4,-24,-53,-4
39,-87,-126,24,82,-107,-14,0,-24,-29,-63,-4
29,-97,-126,34,78,-112,-29,-14,-24,-29,-58,-14
29,-107,-136,39,82,-122,-29,-19,-34,-34,-58,-14
29,-107,-136,39,82,-122,-29,-19,-43,-43,-58,-14
29,-117,-146,43,87,-131,-29,-19,-43,-48,-58,-14
39,-112,-151,36,95,-131,-29,-9,-48,-43,-58,-9
43,-107,-151,31,97,-129,-29,-14,-53,-53,-58,-9
43,-102,-146,29,95,-124,-34,-14,-58,-53,-63,-4
43,-92,-136,24,90,-114,-34,-14,-63,-58,-63,0
34,-92,-126,29,80,-109,-34,-24,-68,-73,-73,-9
34,-97,-131,31,82,-114,-34,-24,-68,-73,-73,-9
34,-112,-146,39,90,-129,-34,-29,-73,-73,-73,-9
34,-122,-156,43,95,-139,-39,-29,-73,-73,-73,-9
34,-112,-146,39,90,-129,-29,-29,-73,-63,-73,-9
34,-112,-146,39,90,-129,-29,-29,-78,-63,-73,-9
39,-112,-151,36,95,-131,-29,-29,-78,-68,-78,-9
39,-107,-146,34,92,-126,-29,-29,-73,-68,-78,-9
29,-117,-146,43,87,-131,-29,-29,-73,-82,-87,-14
29,-122,-151,46,90,-136,-29,-29,-78,-82,-87,-14
24,-126,-151,51,87,-139,-29,-29,-78,-82,-87,-14
24,-141,-165,58,95,-153,-24,-29,-78,-78,-87,-9
34,-136,-170,51,102,-153,-24,-29,-68,-78,-78,0
34,-131,-165,48,100,-148,-24,-29,-68,-78,-78,0
34,-126,-161,46,97,-143,-24,-29,-68,-78,-82,-4
34,-122,-156,43,95,-139,-24,-29,-68,-78,-82,-4
24,-131,-156,53,90,-143,-24,-29,-68,-78,-82,-14
19,-131,-151,56,85,-141,-24,-29,-68,-78,-82,-14
19,-131,-151,56,85,-141,-19,-29,-73,-78,-82,-14
19,-136,-156,58,87,-146,-19,-24,-82,-78,-78,-14
24,-131,-156,53,90,-143,-19,-24,-78,-68,-78,-4
24,-126,-151,51,87,-139,-19,-24,-73,-63,-78,-9
24,-122,-146,48,85,-134,-14,-24,-63,-63,-78,-9
24,-112,-136,43,80,-124,-14,-24,-58,-68,-78,-9
9,-122,-131,56,70,-126,-14,-34,-68,-68,-82,-19
9,-122,-131,56,70,-126,-14,-34,-68,-68,-82,-19
9,-122,-131,56,70,-126,-9,-34,-63,-63,-78,-19
9,-122,-131,56,70,-126,-9,-34,-58,-63,-78,-19
14,-122,-136,53,75,-129,-9,-34,-58,-63,-78,-19
9,-122,-131,56,70,-126,-9,-34,-58,-63,-78,-19
9,-122,-131,56,70,-126,-4,-34,-58,-63,-78,-19
9,-122,-131,56,70,-126,-4,-34,-58,-63,-82,-19
9,-126,-136,58,73,-131,-4,-24,-68,-68,-82,-24
9,-131,-141,61,75,-136,-4,-24,-68,-68,-82,-24
9,-136,-146,63,78,-141,-4,-24,-63,-63,-82,-24
4,-146,-151,70,78,-148,-4,-24,-63,-63,-82,-24
4,-131,-136,63,70,-134,0,-34,-63,-73,-82,-34
0,-126,-126,63,63,-126,4,-34,-63,-68,-82,-34
0,-126,-126,63,63,-126,4,-34,-63,-68,-82,-34
0,-122,-122,61,61,-122,4,-34,-63,-68,-87,-34
-9,-126,-117,68,53,-122,9,-34,-68,-73,-92,-39
-9,-126,-117,68,53,-122,9,-34,-68,-73,-92,-39
-9,-131,-122,70,56,-126,14,-34,-68,-68,-87,-39
-14,-136,-122,75,53,-129,14,-34,-68,-68,-82,-39
-9,-131,-122,70,56,-126,4,-34,-58,-58,-92,-39
-9,-131,-122,70,56,-126,9,-34,-63,-63,-92,-39
-9,-131,-122,70,56,-126,9,-34,-63,-63,-92,-39
-9,-131,-122,70,56,-126,9,-34,-63,-63,-92,-39
-9,-141,-131,75,61,-136,9,-34,-68,-73,-92,-34
-9,-141,-131,75,61,-136,9,-34,-68,-73,-92,-34
-9,-141,-131,75,61,-136,9,-34,-68,-73,-92,-34
-9,-141,-131,75,61,-136,9,-34,-68,-73,-92,-34
-24,-131,-107,78,41,-119,9,-34,-73,-73,-92,-43
-24,-141,-117,82,46,-129,14,-34,-73,-73,-92,-43
-24,-141,-117,82,46,-129,14,-34,-78,-73,-97,-43
-24,-141,-117,82,46,-129,14,-29,-78,-73,-97,-43
-14,-141,-126,78,56,-134,14,-39,-68,-73,-97,-48
-19,-141,-122,80,51,-131,14,-43,-68,-78,-97,-53
-19,-141,-122,80,51,-131,9,-43,-68,-78,-97,-53
-19,-141,-122,80,51,-131,9,-43,-68,-78,-97,-53
-19,-131,-112,75,46,-122,14,-43,-68,-87,-97,-48
-19,-136,-117,78,48,-126,14,-43,-73,-87,-97,-48
-19,-141,-122,80,51,-131,14,-43,-78,-87,-97,-48
-19,-141,-122,80,51,-131,14,-48,-78,-87,-97,-53
-19,-151,-131,85,56,-141,19,-39,-78,-78,-92,-43
-19,-146,-126,82,53,-136,14,-39,-78,-78,-97,-48
-19,-146,-126,82,53,-136,14,-39,-78,-82,-97,-53
-19,-146,-126,82,53,-136,14,-34,-78,-87,-97,-53
-19,-146,-126,82,53,-136,14,-43,-87,-92,-107,-58
-19,-146,-126,82,53,-136,14,-43,-92,-92,-107,-58
-19,-151,-131,85,56,-141,14,-43,-97,-92,-107,-63
-19,-156,-136,87,58,-146,14,-48,-102,-92,-112,-63
-19,-156,-136,87,58,-146,9,-48,-102,-92,-107,-63
-19,-151,-131,85,56,-141,9,-48,-102,-92,-112,-63
-19,-151,-131,85,56,-141,9,-48,-107,-97,-112,-68
-19,-151,-131,85,56,-141,9,-48,-107,-102,-112,-68
-19,-151,-131,85,56,-141,14,-39,-102,-102,-112,-68
-19,-151,-131,85,56,-141,14,-43,-102,-102,-117,-68
-19,-161,-141,90,61,-151,14,-43,-107,-107,-117,-68
-19,-165,-146,92,63,-156,14,-43,-107,-107,-117,-63
-19,-156,-136,87,58,-146,14,-53,-102,-97,-107,-53
-19,-151,-131,85,56,-141,19,-53,-102,-102,-117,-58
-19,-146,-126,82,53,-136,19,-53,-107,-102,-117,-63
-19,-146,-126,82,53,-136,14,-53,-112,-102,-117,-63
-19,-156,-136,87,58,-146,4,-53,-122,-112,-122,-73
-14,-156,-141,85,63,-148,4,-53,-122,-117,-117,-73
-14,-156,-141,85,63,-148,4,-58,-126,-117,-117,-73
-14,-165,-151,90,68,-158,0,-58,-131,-117,-122,-73
-9,-156,-146,82,68,-151,9,-58,-122,-117,-112,-63
-9,-151,-141,80,65,-146,9,-58,-122,-117,-117,-63
-9,-151,-141,80,65,-146,9,-58,-122,-117,-122,-63
-9,-151,-141,80,65,-146,9,-58,-122,-122,-122,-63
-19,-161,-141,90,61,-151,0,-58,-131,-122,-131,-73
-19,-161,-141,90,61,-151,0,-63,-131,-122,-131,-73
-14,-165,-151,90,68,-158,4,-63,-131,-122,-131,-73
-14,-170,-156,92,70,-163,4,-63,-136,-122,-131,-73
-4,-165,-161,85,78,-163,14,-53,-141,-122,-136,-63
-4,-161,-156,82,75,-158,14,-53,-141,-122,-136,-63
-4,-146,-141,75,68,-143,14,-53,-136,-122,-136,-63
-4,-141,-136,73,65,-139,9,-53,-136,-122,-136,-68
-14,-156,-141,85,63,-148,9,-63,-146,-131,-136,-68
-14,-161,-146,87,65,-153,9,-63,-146,-131,-136,-68
-14,-165,-151,90,68,-158,9,-63,-146,-131,-136,-68
-14,-180,-165,97,75,-173,9,-63,-151,-136,-136,-68
-9,-175,-165,92,78,-170,9,-58,-141,-126,-126,-68
-9,-165,-156,87,73,-161,9,-58,-146,-131,-126,-68
-9,-161,-151,85,70,-156,9,-58,-146,-131,-131,-68
-4,-156,-151,80,73,-153,4,-58,-141,-136,-136,-68
-9,-165,-156,87,73,-161,4,-68,-151,-146,-136,-78
-9,-165,-156,87,73,-161,4,-68,-156,-141,-131,-78
-14,-165,-151,90,68,-158,4,-68,-156,-141,-131,-78
-19,-170,-151,95,65,-161,4,-68,-161,-141,-136,-73
-4,-165,-161,85,78,-163,4,-68,-161,-131,-136,-73
-4,-161,-156,82,75,-158,4,-68,-151,-136,-136,-73
-4,-151,-146,78,70,-148,4,-68,-151,-136,-141,-78
-9,-146,-136,78,63,-141,4,-68,-151,-136,-141,-78
-19,-161,-141,90,61,-151,4,-68,-156,-146,-141,-82
-19,-165,-146,92,63,-156,0,-68,-161,-146,-141,-82
-19,-170,-151,95,65,-161,0,-68,-165,-146,-141,-82
-19,-175,-156,97,68,-165,4,-73,-175,-146,-141,-82
-9,-170,-161,90,75,-165,14,-63,-165,-141,-141,-73
-9,-165,-156,87,73,-161,14,-63,-165,-141,-141,-73
-9,-161,-151,85,70,-156,9,-63,-165,-141,-141,-73
-9,-151,-141,80,65,-146,9,-63,-165,-141,-141,-73
-9,-151,-141,80,65,-146,0,-63,-165,-151,-141,-82
-9,-156,-146,82,68,-151,0,-63,-165,-151,-141,-82
-9,-161,-151,85,70,-156,0,-63,-170,-151,-141,-82
-9,-170,-161,90,75,-165,0,-63,-170,-151,-146,-82
-4,-170,-165,87,80,-168,0,-73,-175,-141,-146,-73
0,-165,-165,82,82,-165,0,-73,-175,-141,-146,-73
0,-156,-156,78,78,-156,0,-73,-170,-141,-146,-73
-4,-151,-146,78,70,-148,0,-73,-170,-141,-146,-73
-4,-156,-151,80,73,-153,-4,-73,-170,-146,-146,-73
-4,-161,-156,82,75,-158,-4,-73,-170,-146,-146,-73
-9,-165,-156,87,73,-161,-4,-73,-170,-146,-146,-73
-9,-170,-161,90,75,-165,-4,-73,-175,-146,-146,-73
-9,-170,-161,90,75,-165,4,-73,-175,-146,-136,-73
-4,-165,-161,85,78,-163,4,-73,-175,-146,-136,-73
0,-161,-161,80,80,-161,4,-73,-175,-146,-136,-73
0,-156,-156,78,78,-156,4,-73,-175,-146,-136,-73
-14,-156,-141,85,63,-148,4,-73,-175,-156,-146,-82
-14,-161,-146,87,65,-153,4,-73,-175,-156,-146,-82
-14,-165,-151,90,68,-158,4,-73,-175,-156,-146,-82
-14,-170,-156,92,70,-163,9,-73,-175,-156,-146,-82
-4,-165,-161,85,78,-163,9,-82,-175,-151,-136,-73
-4,-170,-165,87,80,-168,9,-82,-180,-151,-136,-73
-4,-165,-161,85,78,-163,9,-82,-180,-151,-141,-73
-4,-156,-151,80,73,-153,9,-82,-180,-151,-141,-73
-9,-161,-151,85,70,-156,4,-73,-175,-151,-146,-82
-9,-165,-156,87,73,-161,4,-73,-175,-151,-146,-78
-9,-165,-156,87,73,-161,4,-73,-180,-146,-146,-78
-14,-170,-156,92,70,-163,4,-73,-180,-146,-146,-87
-14,-161,-146,87,65,-153,4,-73,-180,-151,-146,-78
-14,-165,-151,90,68,-158,4,-73,-180,-151,-146,-73
-14,-165,-151,90,68,-158,4,-73,-180,-151,-146,-73
-14,-165,-151,90,68,-158,4,-73,-180,-151,-146,-73
0,-146,-146,73,73,-146,9,-82,-180,-151,-146,-73
0,-156,-156,78,78,-156,0,-73,-180,-151,-136,-73
-4,-165,-161,85,78,-163,4,-68,-180,-151,-136,-73
-9,-170,-161,90,75,-165,9,-73,-180,-151,-136,-73
-9,-165,-156,87,73,-161,9,-68,-175,-156,-136,-78
0,-161,-161,80,80,-161,9,-68,-175,-146,-126,-68
0,-156,-156,78,78,-156,9,-68,-175,-146,-126,-68
0,-151,-151,75,75,-151,9,-68,-175,-146,-126,-68
0,-146,-146,73,73,-146,9,-68,-175,-146,-126,-68
4,-136,-141,65,73,-139,0,-68,-170,-136,-126,-58
9,-136,-146,63,78,-141,0,-68,-165,-136,-126,-58
19,-126,-146,53,82,-136,0,-68,-156,-131,-122,-53
24,-117,-141,46,82,-129,-4,-68,-146,-126,-117,-48
24,-92,-117,34,70,-104,-4,-73,-151,-122,-102,-34
24,-87,-112,31,68,-100,-4,-78,-146,-117,-102,-34
24,-82,-107,29,65,-95,-4,-78,-141,-117,-102,-34
24,-78,-102,26,63,-90,-4,-78,-136,-112,-97,-29
19,-73,-92,26,56,-82,-4,-78,-131,-102,-97,-29
29,-73,-102,21,65,-87,-4,-78,-131,-102,-97,-29
29,-68,-97,19,63,-82,-4,-68,-131,-102,-87,-29
34,-68,-102,17,68,-85,-4,-68,-126,-97,-87,-24
39,-68,-107,14,73,-87,4,-53,-122,-97,-92,-34
39,-58,-97,9,68,-78,0,-53,-117,-92,-92,-29
43,-53,-97,4,70,-75,-9,-53,-112,-92,-87,-19
48,-43,-92,-2,70,-68,-19,-53,-112,-82,-78,-14
63,-39,-102,-12,82,-70,-29,-43,-107,-82,-63,-9
68,-34,-102,-17,85,-68,-43,-43,-97,-78,-63,-4
68,-19,-87,-24,78,-53,-43,-53,-92,-73,-58,0
68,-9,-78,-29,73,-43,-53,-53,-82,-63,-48,0
73,0,-73,-36,73,-36,-58,-53,-68,-43,-43,14
73,0,-73,-36,73,-36,-63,-48,-68,-43,-39,19
78,0,-78,-39,78,-39,-73,-48,-73,-43,-39,19
78,4,-73,-41,75,-34,-82,-53,-78,-53,-39,19
78,4,-73,-41,75,-34,-102,-63,-82,-53,-39,19
78,4,-73,-41,75,-34,-112,-68,-87,-58,-39,19
78,19,-58,-48,68,-19,-112,-78,-87,-63,-39,19
73,24,-48,-48,61,-12,-112,-82,-87,-63,-39,19
73,24,-48,-48,61,-12,-107,-87,-102,-63,-48,19
73,29,-43,-51,58,-7,-117,-92,-107,-63,-48,19
73,34,-39,-53,56,-2,-126,-102,-112,-68,-53,24
73,43,-29,-58,51,7,-141,-112,-117,-73,-53,24
82,53,-29,-68,56,12,-151,-122,-122,-73,-43,24
92,73,-19,-82,56,26,-156,-122,-122,-73,-43,24
102,78,-24,-90,63,26,-161,-126,-126,-73,-43,29
102,73,-29,-87,65,21,-161,-126,-131,-78,-48,29
92,48,-43,-70,68,2,-156,-122,-141,-92,-58,24
87,29,-58,-58,73,-14,-146,-112,-151,-97,-63,19
82,9,-73,-46,78,-31,-131,-97,-151,-107,-68,14
78,-14,-92,-31,85,-53,-122,-97,-165,-112,-78,9
78,-29,-107,-24,92,-68,-122,-73,-175,-122,-87,-9
73,-53,-126,-9,100,-90,-102,-73,-185,-131,-97,-24
68,-63,-131,-2,100,-97,-87,-68,-190,-141,-107,-34
53,-73,-126,9,90,-100,-73,-63,-190,-141,-117,-39
34,-92,-126,29,80,-109,-58,-39,-185,-146,-107,-39
19,-107,-126,43,73,-117,-34,-19,-175,-136,-102,-39
14,-122,-136,53,75,-129,-24,-19,-175,-136,-102,-39
4,-131,-136,63,70,-134,-14,-19,-175,-146,-112,-48
9,-126,-136,58,73,-131,-9,-9,-185,-141,-117,-58
0,-136,-136,68,68,-136,-4,-19,-190,-146,-126,-58
0,-141,-141,70,70,-141,0,-19,-195,-161,-136,-73
-4,-146,-141,75,68,-143,0,-19,-200,-161,-136,-73
-9,-165,-156,87,73,-161,0,-19,-204,-161,-136,-73
-14,-170,-156,92,70,-163,9,-14,-204,-165,-136,-73
-19,-175,-156,97,68,-165,9,-9,-204,-165,-136,-73
-24,-180,-156,102,65,-168,9,-9,-204,-165,-146,-78
-14,-180,-165,97,75,-173,24,-9,-209,-170,-146,-78
-19,-180,-161,100,70,-170,24,-9,-209,-170,-146,-78
-19,-180,-161,100,70,-170,24,-9,-209,-170,-146,-78
-19,-180,-161,100,70,-170,24,-9,-209,-170,-146,-82
-19,-180,-161,100,70,-170,19,-9,-214,-180,-156,-82
-19,-180,-161,100,70,-170,19,-9,-219,-185,-156,-82
-19,-185,-165,102,73,-175,19,-9,-224,-185,-156,-82
-19,-190,-170,104,75,-180,19,-9,-229,-185,-156,-82
-14,-180,-165,97,75,-173,39,4,-224,-175,-146,-82
-19,-180,-161,100,70,-170,39,4,-219,-175,-146,-82
-19,-180,-161,100,70,-170,39,4,-214,-175,-146,-82
-19,-180,-161,100,70,-170,39,4,-209,-170,-146,-82
-29,-195,-165,112,68,-180,39,-4,-219,-180,-156,-92
-29,-195,-165,112,68,-180,39,0,-219,-180,-156,-87
-24,-195,-170,109,73,-183,39,0,-219,-180,-156,-87
-24,-195,-170,109,73,-183,39,0,-219,-180,-156,-87
-14,-185,-170,100,78,-178,39,9,-209,-180,-146,-87
-14,-185,-170,100,78,-178,39,9,-209,-180,-146,-87
-14,-185,-170,100,78,-178,43,9,-209,-180,-146,-87
-19,-185,-165,102,73,-175,53,14,-204,-180,-146,-87
-29,-195,-165,112,68,-180,58,29,-200,-170,-146,-92
-39,-209,-170,124,65,-190,63,43,-204,-170,-156,-97
-48,-224,-175,136,63,-200,78,53,-200,-165,-156,-102
-53,-229,-175,141,61,-202,87,68,-175,-156,-146,-112
-53,-214,-161,134,53,-187,112,97,-131,-136,-131,-102
-43,-214,-170,129,63,-192,131,131,-68,-87,-92,-73
-43,-214,-170,129,63,-192,141,161,0,-29,-48,-53
-53,-209,-156,131,51,-183,156,195,73,19,-9,-29
-53,-209,-156,131,51,-183,175,229,161,87,39,-4
-34,-195,-161,114,63,-178,175,258,258,190,122,53
-14,-175,-161,95,73,-168,165,278,370,307,229,136
29,-146,-175,58,102,-161,146,292,488,434,356,239
63,-117,-180,26,122,-148,122,322,600,561,483,331
102,-92,-195,-4,148,-143,112,331,658,658,570,405
126,-73,-200,-26,163,-136,87,326,668,697,610,448
165,-48,-214,-58,190,-131,48,322,658,736,663,502
214,4,-209,-109,212,-102,-24,268,624,790,741,580
258,53,-204,-156,231,-75,-122,151,492,775,766,634
326,68,-258,-197,292,-95,-239,19,278,697,766,673
414,92,-322,-253,368,-114,-375,-102,53,634,775,727
522,126,-395,-324,458,-134,-527,-224,-141,600,805,795
614,209,-405,-412,509,-97,-678,-370,-307,590,863,897
727,292,-434,-509,580,-70,-839,-517,-434,624,966,1034
844,380,-463,-612,653,-41,-1005,-658,-502,697,1088,1171
941,468,-473,-705,707,-2,-1161,-790,-556,771,1215,1307
1010,527,-483,-768,746,21,-1317,-971,-658,800,1302,1415
1029,561,-468,-795,749,46,-1449,-1220,-868,707,1293,1488
951,575,-375,-763,663,100,-1503,-1527,-1151,527,1176,1464
814,595,-219,-705,517,187,-1532,-1878,-1449,273,990,1371
683,610,-73,-646,378,268,-1571,-2161,-1781,-63,736,1249
570,561,-9,-566,290,275,-1571,-2318,-2122,-483,385,1044
463,419,-43,-441,253,187,-1507,-2347,-2498,-1005,-97,727
375,234,-141,-305,258,46,-1429,-2283,-2786,-1483,-561,385
375,82,-292,-229,334,-104,-1361,-2117,-2825,-1678,-819,156
385,4,-380,-195,383,-187,-1283,-1942,-2703,-1688,-897,43
370,-14,-385,-178,378,-200,-1224,-1781,-2508,-1629,-917,-43
356,14,-341,-185,348,-163,-1161,-1620,-2230,-1464,-858,-43
351,53,-297,-202,324,-122,-1054,-1424,-1942,-1263,-727,-4
346,43,-302,-195,324,-129,-927,-1244,-1712,-1127,-649,4
322,24,-297,-173,309,-136,-819,-1098,-1522,-1039,-619,-24
278,68,-209,-173,244,-70,-717,-946,-1317,-893,-536,0
239,126,-112,-183,175,7,-600,-800,-1073,-712,-414,48
185,102,-82,-143,134,9,-488,-673,-902,-614,-351,39
122,39,-82,-80,102,-21,-390,-556,-780,-561,-356,-29
58,0,-58,-29,58,-29,-292,-429,-639,-488,-326,-78
4,-9,-14,2,9,-12,-214,-336,-512,-395,-287,-87
-24,-34,-9,29,-7,-21,-146,-268,-419,-331,-244,-92
-48,-58,-9,53,-19,-34,-82,-200,-317,-263,-214,-107
-78,-92,-14,85,-31,-53,-19,-102,-219,-190,-175,-117
-92,-122,-29,107,-31,-75,39,-19,-146,-146,-141,-117
-87,-131,-43,109,-21,-87,63,14,-112,-117,-117,-97
-82,-136,-53,109,-14,-95,68,24,-82,-97,-107,-87
-78,-146,-68,112,-4,-107,78,48,-58,-78,-87,-92
-73,-165,-92,119,9,-129,97,78,-39,-63,-73,-78
-63,-156,-92,109,14,-124,112,92,-9,-53,-53,-58
-63,-146,-82,104,9,-114,107,102,-4,-48,-53,-68
-58,-146,-87,102,14,-117,112,107,4,-43,-48,-63
-58,-146,-87,102,14,-117,112,107,14,-39,-48,-63
-58,-146,-87,102,14,-117,117,117,24,-39,-48,-63
-68,-151,-82,109,7,-117,117,112,29,-34,-58,-58
-68,-156,-87,112,9,-122,117,117,29,-29,-53,-58
-63,-161,-97,112,17,-129,122,122,24,-29,-48,-58
-63,-165,-102,114,19,-134,122,126,24,-19,-43,-53
-63,-156,-92,109,14,-124,126,131,43,-4,-34,-53
-63,-156,-92,109,14,-124,126,136,48,0,-34,-48
-63,-156,-92,109,14,-124,131,136,53,0,-34,-48
-63,-156,-92,109,14,-124,131,136,58,0,-29,-48
-73,-156,-82,114,4,-119,131,146,53,-4,-34,-58
-68,-156,-87,112,9,-122,136,146,58,0,-34,-53
-68,-156,-87,112,9,-122,136,146,63,0,-29,-53
-68,-156,-87,112,9,-122,136,151,68,0,-24,-53
-58,-141,-82,100,12,-112,136,165,78,9,-14,-43
-63,-141,-78,102,7,-109,136,165,82,19,-14,-43
-63,-141,-78,102,7,-109,136,165,87,19,-14,-43
-58,-141,-82,100,12,-112,141,170,92,19,-4,-43
-68,-146,-78,107,4,-112,141,161,87,24,-9,-48
-68,-151,-82,109,7,-117,141,165,92,24,-4,-48
-68,-156,-87,112,9,-122,141,165,97,19,-4,-43
-68,-156,-87,112,9,-122,141,170,102,24,-4,-43
-58,-146,-87,102,14,-117,141,180,117,29,0,-34
-58,-146,-87,102,14,-117,141,180,117,34,0,-34
-58,-146,-87,102,14,-117,146,185,117,39,4,-34
-58,-141,-82,100,12,-112,146,185,126,48,14,-34
-68,-151,-82,109,7,-117,141,180,131,58,4,-34
-63,-151,-87,107,12,-119,141,180,136,58,9,-29
-63,-151,-87,107,12,-119,146,185,146,58,9,-29
-63,-151,-87,107,12,-119,146,185,151,58,9,-29
-53,-141,-87,97,17,-114,146,185,156,58,19,-29
-58,-136,-78,97,9,-107,146,190,156,68,19,-24
-58,-131,-73,95,7,-102,146,190,161,73,19,-24
-53,-122,-68,87,7,-95,146,195,165,73,14,-24
-63,-131,-68,97,2,-100,146,195,175,73,24,-24
-63,-131,-68,97,2,-100,151,200,180,78,34,-24
-63,-131,-68,97,2,-100,151,204,185,78,34,-19
-63,-126,-63,95,0,-95,151,204,190,82,34,-19
-53,-126,-73,90,9,-100,161,204,200,97,43,-19
-58,-126,-68,92,4,-97,161,204,204,102,43,-19
-58,-126,-68,92,4,-97,165,209,214,107,43,-14
-58,-122,-63,90,2,-92,165,209,219,112,43,-14
-68,-126,-58,97,-4,-92,156,214,224,117,48,-14
-68,-126,-58,97,-4,-92,156,219,234,122,48,-9
-68,-126,-58,97,-4,-92,156,219,239,122,58,-9
-68,-122,-53,95,-7,-87,156,224,248,126,58,-4
-68,-112,-43,90,-12,-78,161,229,258,131,68,-4
-68,-112,-43,90,-12,-78,161,234,263,136,73,-4
-68,-107,-39,87,-14,-73,161,234,268,146,73,0
-68,-102,-34,85,-17,-68,161,234,278,151,78,0
-68,-107,-39,87,-14,-73,165,244,283,156,78,0
-68,-107,-39,87,-14,-73,165,248,292,161,78,0
-68,-107,-39,87,-14,-73,165,253,302,165,78,4
-68,-107,-39,87,-14,-73,165,258,312,170,87,4
-68,-92,-24,80,-21,-58,165,258,312,175,102,14
-73,-92,-19,82,-26,-56,170,263,326,180,102,19
-73,-92,-19,82,-26,-56,170,268,336,185,102,19
-73,-87,-14,80,-29,-51,170,268,336,190,107,19
-73,-87,-14,80,-29,-51,175,273,336,195,97,19
-73,-82,-9,78,-31,-46,175,278,351,200,107,24
-73,-78,-4,75,-34,-41,175,283,361,204,112,24
-78,-78,0,78,-39,-39,180,287,370,214,117,29
-78,-78,0,78,-39,-39,190,292,385,219,126,29
-78,-78,0,78,-39,-39,195,297,390,224,126,29
-78,-73,4,75,-41,-34,195,302,409,229,136,34
-78,-73,4,75,-41,-34,200,307,429,234,136,34
-78,-68,9,73,-43,-29,200,317,429,239,131,34
-82,-58,24,70,-53,-17,204,322,439,248,136,34
-82,-58,24,70,-53,-17,204,326,448,253,141,39
-82,-58,24,70,-53,-17,209,331,458,258,146,39
-82,-43,39,63,-61,-2,200,336,478,273,151,34
-82,-43,39,63,-61,-2,204,341,483,278,156,34
-92,-43,48,68,-70,2,209,351,492,283,161,34
-92,-39,53,65,-73,7,209,356,502,287,161,34
-92,-39,53,65,-73,7,224,370,517,297,175,48
-92,-34,58,63,-75,12,224,380,531,302,180,48
-92,-24,68,58,-80,21,229,385,546,312,185,48
-92,-19,73,56,-82,26,239,390,561,322,190,53
-107,-24,82,65,-95,29,234,395,570,322,185,43
-107,-19,87,63,-97,34,234,395,585,331,195,43
-107,-19,87,63,-97,34,234,405,595,331,200,48
-112,-19,92,65,-102,36,244,414,614,346,204,48
-112,-9,102,61,-107,46,258,424,639,366,219,58
-112,0,112,56,-112,56,263,424,649,370,219,63
-112,9,122,51,-117,65,268,434,668,380,229,63
-107,24,131,41,-119,78,268,439,683,390,234,63
-122,24,146,48,-134,85,258,453,688,405,239,58
-122,24,146,48,-134,85,268,453,707,414,244,58
-126,24,151,51,-139,87,273,463,722,419,248,58
-131,24,156,53,-143,90,283,468,736,429,253,63
-126,34,161,46,-143,97,297,492,761,439,258,73
-126,43,170,41,-148,107,302,492,775,448,263,73
-131,53,185,39,-158,119,307,497,795,458,268,73
-136,68,204,34,-170,136,312,507,810,463,273,78
-151,63,214,43,-183,139,317,517,819,478,278,68
-151,73,224,39,-187,148,326,522,834,488,283,68
-156,78,234,39,-195,156,326,527,849,492,287,68
-161,82,244,39,-202,163,331,531,863,507,292,68
-175,87,263,43,-219,175,336,536,883,517,302,78
-175,97,273,39,-224,185,346,541,897,527,302,78
-180,107,287,36,-234,197,351,546,912,531,307,78
-190,117,307,36,-248,212,356,551,927,541,312,78
-195,117,312,39,-253,214,361,541,941,551,317,68
-200,122,322,39,-261,222,366,541,956,556,322,68
-204,126,331,39,-268,229,370,546,971,566,326,68
-219,131,351,43,-285,241,375,546,985,566,331,68
-214,136,351,39,-283,244,380,556,1000,575,341,78
-224,136,361,43,-292,248,380,556,1015,585,341,78
-229,151,380,39,-305,265,385,556,1024,590,351,78
-229,156,385,36,-307,270,385,556,1034,600,356,78
-239,156,395,41,-317,275,380,546,1029,605,356,68
-248,156,405,46,-326,280,385,546,1039,610,361,63
-258,161,419,48,-339,290,385,541,1039,614,361,63
-273,161,434,56,-353,297,385,536,1044,624,361,68
-273,175,448,48,-361,312,385,531,1054,639,366,68
-273,185,458,43,-366,322,380,522,1058,639,366,68
-268,190,458,39,-363,324,380,512,1058,639,370,63
-268,200,468,34,-368,334,380,502,1058,639,370,63
-283,195,478,43,-380,336,375,483,1039,634,370,63
-283,190,473,46,-378,331,370,473,1034,634,370,63
-283,185,468,48,-375,326,366,453,1024,634,370,63
-283,180,463,51,-373,322,361,444,1015,629,370,63
-283,180,463,51,-373,322,356,439,1015,639,370,73
-283,185,468,48,-375,326,341,424,1000,629,370,73
-278,185,463,46,-370,324,331,409,985,624,370,73
-278,185,463,46,-370,324,326,395,961,610,370,73
-268,170,439,48,-353,305,317,390,941,595,361,63
-263,165,429,48,-346,297,307,385,917,580,351,63
-258,151,409,53,-334,280,297,366,893,570,346,63
-253,136,390,58,-322,263,287,346,868,561,341,63
-239,131,370,53,-305,251,273,336,829,551,336,73
-229,126,356,51,-292,241,258,322,800,527,326,63
-219,117,336,51,-278,226,258,317,766,512,312,58
-209,112,322,48,-265,217,244,302,732,492,302,58
-200,97,297,51,-248,197,234,287,688,473,292,53
-190,87,278,51,-234,183,219,278,653,448,283,53
-170,78,248,46,-209,163,204,263,614,424,273,53
-165,63,229,51,-197,146,190,253,575,405,258,53
-146,53,200,46,-173,126,185,248,546,380,253,48
-126,39,165,43,-146,102,165,229,507,356,239,43
-122,29,151,46,-136,90,151,219,468,331,219,43
-112,34,146,39,-129,90,146,204,434,307,200,39
-112,24,136,43,-124,80,131,180,395,283,180,29
-97,14,112,41,-104,63,117,170,361,258,170,29
-87,4,92,41,-90,48,112,165,326,234,161,29
-78,0,78,39,-78,39,97,156,292,219,156,29
-68,4,73,31,-70,39,78,151,268,200,141,39
-58,0,58,29,-58,29,68,141,229,180,131,29
-48,-9,39,29,-43,14,58,131,204,161,117,29
-43,-19,24,31,-34,2,53,122,175,141,112,29
-34,-24,9,29,-21,-7,43,112,151,112,97,19
-29,-29,0,29,-14,-14,34,102,126,102,87,19
-19,-39,-19,29,0,-29,34,97,107,87,78,14
-9,-43,-34,26,12,-39,19,92,87,73,68,14
-9,-39,-29,24,9,-34,19,87,58,58,53,14
-4,-43,-39,24,17,-41,19,82,39,53,48,14
-4,-53,-48,29,21,-51,14,78,19,34,43,9
4,-53,-58,24,31,-56,4,73,9,24,39,9
4,-58,-63,26,34,-61,4,58,0,14,34,9
9,-63,-73,26,41,-68,0,58,-14,4,24,4
14,-63,-78,24,46,-70,-4,53,-24,-4,14,4
19,-58,-78,19,48,-68,-4,48,-43,-9,4,4
19,-58,-78,19,48,-68,-9,43,-53,-19,9,4
19,-68,-87,24,53,-78,-9,39,-63,-24,9,4
19,-68,-87,24,53,-78,-9,39,-73,-34,9,4
19,-78,-97,29,58,-87,-9,39,-73,-39,9,4
19,-68,-87,24,53,-78,-9,39,-78,-34,0,4
24,-68,-92,21,58,-80,-9,34,-82,-43,0,0
24,-68,-92,21,58,-80,-14,34,-87,-43,-4,0
24,-63,-87,19,56,-75,-14,34,-92,-48,-4,0
24,-68,-92,21,58,-80,-14,34,-97,-53,-4,0
24,-68,-92,21,58,-80,-14,34,-97,-53,-4,0
24,-78,-102,26,63,-90,-14,29,-102,-53,-4,0
24,-82,-107,29,65,-95,-19,29,-102,-53,-4,0
34,-78,-112,21,73,-95,-19,29,-92,-53,-4,0
34,-73,-107,19,70,-90,-19,29,-97,-53,-4,0
39,-68,-107,14,73,-87,-19,29,-97,-58,-9,0
39,-58,-97,9,68,-78,-19,29,-92,-58,-9,0
29,-63,-92,17,61,-78,-19,29,-102,-63,-9,-14
29,-63,-92,17,61,-78,-19,29,-107,-63,-9,-14
24,-63,-87,19,56,-75,-19,29,-107,-63,-9,-14
24,-73,-97,24,61,-85,-14,29,-107,-58,-9,-9
24,-73,-97,24,61,-85,-14,29,-107,-58,-9,0
24,-73,-97,24,61,-85,-14,29,-107,-58,-9,0
24,-73,-97,24,61,-85,-14,29,-107,-58,-14,-4
24,-73,-97,24,61,-85,-14,29,-107,-58,-14,-4
24,-82,-107,29,65,-95,-14,29,-112,-58,-24,-14
19,-82,-102,31,61,-92,-14,29,-107,-58,-24,-14
19,-82,-102,31,61,-92,-9,29,-107,-58,-24,-14
19,-87,-107,34,63,-97,-9,34,-112,-58,-19,-14
24,-78,-102,26,63,-90,-9,34,-102,-58,-9,-4
24,-78,-102,26,63,-90,-9,34,-102,-53,-9,-9
24,-78,-102,26,63,-90,-4,34,-97,-53,-9,-9
24,-73,-97,24,61,-85,-4,34,-97,-58,-9,-9
9,-82,-92,36,51,-87,-4,34,-97,-58,-14,-19
9,-82,-92,36,51,-87,-4,34,-97,-58,-14,-19
9,-82,-92,36,51,-87,0,34,-92,-53,-9,-19
9,-82,-92,36,51,-87,0,34,-87,-53,-9,-19
14,-78,-92,31,53,-85,0,34,-87,-53,-9,-9
9,-73,-82,31,46,-78,0,34,-87,-53,-9,-9
9,-68,-78,29,43,-73,4,34,-87,-53,-9,-9
9,-63,-73,26,41,-68,4,34,-87,-53,-14,-9
0,-68,-68,34,34,-68,4,34,-97,-58,-14,-24
0,-73,-73,36,36,-73,4,34,-97,-58,-14,-24
0,-78,-78,39,39,-78,4,34,-92,-53,-14,-24
-4,-87,-82,46,39,-85,4,34,-92,-53,-14,-24
4,-82,-87,39,46,-85,9,34,-82,-53,-4,-14
0,-78,-78,39,39,-78,14,34,-82,-48,-4,-14
0,-78,-78,39,39,-78,14,34,-82,-48,-4,-14
0,-73,-73,36,36,-73,14,34,-82,-48,-9,-14
-9,-78,-68,43,29,-73,9,34,-87,-63,-14,-29
-9,-78,-68,43,29,-73,9,34,-87,-63,-14,-29
-9,-82,-73,46,31,-78,14,34,-87,-58,-9,-29
-14,-87,-73,51,29,-80,14,34,-87,-58,-4,-29
-9,-87,-78,48,34,-82,14,34,-78,-53,-4,-19
-9,-82,-73,46,31,-78,19,34,-82,-53,-4,-19
-9,-78,-68,43,29,-73,19,34,-82,-48,-4,-19
-9,-73,-63,41,26,-68,19,34,-82,-43,-4,-19
-19,-78,-58,48,19,-68,19,34,-87,-53,-14,-24
-19,-82,-63,51,21,-73,19,34,-87,-53,-14,-24
-19,-87,-68,53,24,-78,19,34,-87,-53,-14,-24
-19,-92,-73,56,26,-82,19,34,-87,-53,-14,-24
-14,-87,-73,51,29,-80,19,34,-92,-53,-14,-24
-14,-92,-78,53,31,-85,24,34,-92,-53,-14,-24
-14,-87,-73,51,29,-80,24,34,-97,-53,-19,-24
-14,-82,-68,48,26,-75,24,39,-97,-53,-19,-24
-24,-92,-68,58,21,-80,24,29,-97,-53,-19,-39
-29,-92,-63,61,17,-78,24,24,-97,-58,-19,-43
-29,-92,-63,61,17,-78,19,24,-97,-58,-19,-43
-29,-92,-63,61,17,-78,19,24,-97,-58,-19,-43
-19,-87,-68,53,24,-78,24,24,-87,-58,-29,-29
-19,-87,-68,53,24,-78,24,24,-92,-58,-29,-29
-19,-87,-68,53,24,-78,24,24,-97,-58,-29,-29
-19,-82,-63,51,21,-73,24,19,-97,-58,-29,-34
-29,-87,-58,58,14,-73,19,19,-107,-68,-24,-43
-29,-87,-58,58,14,-73,14,19,-107,-68,-29,-48
-29,-92,-63,61,17,-78,14,19,-107,-73,-29,-53
-29,-97,-68,63,19,-82,14,24,-107,-78,-29,-53
-29,-92,-63,61,17,-78,14,24,-107,-73,-29,-48
-29,-87,-58,58,14,-73,14,24,-112,-73,-29,-48
-29,-87,-58,58,14,-73,14,24,-117,-73,-29,-53
-29,-87,-58,58,14,-73,14,19,-122,-73,-34,-53
-29,-92,-63,61,17,-78,19,29,-112,-73,-29,-43
-29,-92,-63,61,17,-78,19,29,-112,-73,-34,-43
-29,-97,-68,63,19,-82,19,29,-117,-78,-34,-48
-29,-102,-73,65,21,-87,19,29,-117,-82,-34,-48
-19,-92,-73,56,26,-82,14,19,-122,-92,-34,-48
-19,-92,-73,56,26,-82,14,14,-122,-92,-39,-48
-19,-102,-82,61,31,-92,14,14,-126,-97,-39,-48
-19,-107,-87,63,34,-97,14,14,-126,-97,-39,-43
-29,-107,-78,68,24,-92,14,14,-131,-97,-39,-43
-29,-102,-73,65,21,-87,19,14,-131,-102,-48,-48
-29,-97,-68,63,19,-82,19,14,-136,-102,-48,-53
-29,-97,-68,63,19,-82,14,14,-141,-102,-48,-53
-29,-87,-58,58,14,-73,14,14,-141,-92,-53,-53
-24,-87,-63,56,19,-75,14,14,-141,-97,-48,-53
-24,-87,-63,56,19,-75,14,9,-146,-97,-48,-53
-24,-97,-73,61,24,-85,9,9,-151,-97,-53,-53
-19,-107,-87,63,34,-97,9,9,-151,-97,-43,-53
-19,-102,-82,61,31,-92,9,9,-151,-97,-48,-53
-19,-102,-82,61,31,-92,9,9,-151,-97,-53,-53
-19,-102,-82,61,31,-92,9,9,-151,-102,-53,-53
-29,-102,-73,65,21,-87,9,9,-161,-102,-53,-53
-29,-102,-73,65,21,-87,9,4,-161,-102,-53,-53
-24,-107,-82,65,29,-95,14,4,-161,-102,-53,-53
-24,-112,-87,68,31,-100,14,4,-165,-102,-53,-53
-24,-102,-78,63,26,-90,14,4,-161,-112,-58,-53
-24,-102,-78,63,26,-90,14,4,-161,-112,-58,-53
-24,-92,-68,58,21,-80,14,4,-156,-112,-58,-53
-24,-92,-68,58,21,-80,9,4,-156,-112,-58,-58
-24,-97,-73,61,24,-85,9,4,-165,-112,-58,-58
-24,-102,-78,63,26,-90,9,4,-165,-112,-58,-58
-24,-107,-82,65,29,-95,9,4,-165,-112,-58,-58
-24,-122,-97,73,36,-109,9,4,-170,-117,-58,-58
-14,-112,-97,63,41,-104,9,9,-170,-117,-58,-58
-19,-107,-87,63,34,-97,9,9,-175,-122,-58,-58
-24,-107,-82,65,29,-95,9,9,-175,-122,-63,-58
-24,-107,-82,65,29,-95,4,9,-170,-126,-68,-58
-24,-107,-82,65,29,-95,4,0,-170,-126,-68,-58
-19,-107,-87,63,34,-97,4,0,-175,-122,-63,-58
-19,-107,-87,63,34,-97,4,0,-175,-122,-63,-58
-19,-112,-92,65,36,-102,4,0,-180,-122,-68,-53
-14,-102,-87,58,36,-95,4,0,-180,-122,-68,-53
-14,-102,-87,58,36,-95,4,0,-170,-126,-68,-53
-14,-97,-82,56,34,-90,4,0,-170,-126,-73,-58
-19,-97,-78,58,29,-87,4,0,-170,-126,-73,-58
-29,-107,-78,68,24,-92,4,0,-175,-126,-73,-73
-29,-107,-78,68,24,-92,0,0,-180,-126,-73,-73
-29,-107,-78,68,24,-92,0,0,-185,-126,-73,-73
-29,-107,-78,68,24,-92,4,-4,-195,-126,-73,-73
-19,-107,-87,63,34,-97,4,-4,-185,-141,-73,-63
-19,-107,-87,63,34,-97,4,-4,-185,-141,-73,-63
-19,-107,-87,63,34,-97,0,-4,-185,-141,-73,-63
-19,-102,-82,61,31,-92,0,-4,-185,-141,-73,-63
-19,-102,-82,61,31,-92,0,-4,-195,-141,-73,-73
-19,-107,-87,63,34,-97,0,-4,-195,-141,-73,-73
-19,-112,-92,65,36,-102,0,-4,-200,-141,-73,-73
-19,-122,-102,70,41,-112,0,-4,-200,-141,-78,-73
-14,-122,-107,68,46,-114,0,-4,-195,-141,-68,-73
-9,-117,-107,63,48,-112,0,-4,-195,-141,-68,-73
-9,-107,-97,58,43,-102,0,-4,-190,-141,-68,-73
-14,-102,-87,58,36,-95,0,-4,-190,-141,-68,-73
-24,-107,-82,65,29,-95,-14,-4,-200,-136,-78,-73
-24,-112,-87,68,31,-100,-14,-4,-200,-136,-78,-73
-29,-117,-87,73,29,-102,-14,-4,-200,-136,-78,-73
-29,-122,-92,75,31,-107,-14,-4,-204,-136,-78,-73
-24,-122,-97,73,36,-109,-4,-4,-195,-136,-78,-63
-14,-117,-102,65,43,-109,-4,-4,-195,-136,-78,-63
-4,-112,-107,58,51,-109,-4,-4,-195,-136,-78,-63
0,-107,-107,53,53,-107,-4,-4,-195,-136,-78,-63
-9,-107,-97,58,43,-102,-4,-4,-204,-146,-78,-63
-14,-112,-97,63,41,-104,-4,-4,-204,-146,-78,-63
-19,-117,-97,68,39,-107,-4,-4,-204,-146,-78,-63
-24,-122,-97,73,36,-109,0,-4,-204,-146,-78,-63
-14,-117,-102,65,43,-109,0,-4,-195,-141,-78,-63
-14,-122,-107,68,46,-114,0,-4,-200,-141,-78,-63
-14,-117,-102,65,43,-109,0,-4,-200,-141,-82,-63
-14,-107,-92,61,39,-100,0,-4,-200,-141,-82,-63
-19,-112,-92,65,36,-102,-14,-4,-204,-151,-78,-73
-19,-117,-97,68,39,-107,-14,-4,-204,-151,-78,-68
-19,-117,-97,68,39,-107,-14,-4,-209,-146,-78,-68
-24,-122,-97,73,36,-109,-14,-4,-209,-146,-78,-78
-14,-117,-102,65,43,-109,-4,-14,-200,-141,-87,-68
-14,-117,-102,65,43,-109,-4,-14,-200,-141,-87,-63
-14,-112,-97,63,41,-104,-4,-14,-200,-141,-87,-63
-14,-107,-92,61,39,-100,-4,-14,-200,-141,-87,-63
-9,-107,-97,58,43,-102,-9,-4,-209,-141,-78,-73
-9,-107,-97,58,43,-102,-9,-4,-209,-141,-87,-73
-14,-117,-102,65,43,-109,-14,-9,-209,-151,-87,-73
-19,-122,-102,70,41,-112,-19,-4,-209,-151,-87,-73
-19,-107,-87,63,34,-97,-19,-9,-214,-146,-87,-78
-9,-97,-87,53,39,-92,-9,-9,-204,-146,-78,-68
-9,-97,-87,53,39,-92,-9,-9,-204,-146,-78,-68
-9,-97,-87,53,39,-92,-9,-9,-204,-146,-78,-68
-9,-97,-87,53,39,-92,-9,-9,-204,-146,-78,-68
-19,-102,-82,61,31,-92,0,-9,-204,-146,-87,-68
-19,-107,-87,63,34,-97,0,-9,-204,-146,-87,-68
-19,-112,-92,65,36,-102,0,-9,-204,-146,-87,-68
-19,-117,-97,68,39,-107,0,-9,-204,-146,-87,-68
-9,-112,-102,61,46,-107,-9,-9,-204,-146,-87,-68
-9,-107,-97,58,43,-102,-9,-9,-204,-146,-87,-68
-9,-102,-92,56,41,-97,-9,-9,-204,-146,-87,-68
-9,-97,-87,53,39,-92,-9,-9,-204,-146,-87,-68
-9,-97,-87,53,39,-92,-9,-9,-204,-146,-87,-68
-9,-97,-87,53,39,-92,-9,-9,-204,-146,-87,-68
-9,-97,-87,53,39,-92,-9,-9,-204,-146,-87,-68
-9,-97,-87,53,39,-92,-9,-9,-204,-146,-87,-68
4,-82,-87,39,46,-85,-19,-4,-200,-141,-82,-63
9,-78,-87,34,48,-82,-19,0,-195,-136,-78,-58
14,-73,-87,29,51,-80,-19,4,-190,-131,-73,-53
24,-58,-82,17,53,-70,-19,9,-180,-122,-63,-43
24,-58,-82,17,53,-70,-24,9,-175,-117,-58,-39
24,-43,-68,9,46,-56,-24,4,-170,-112,-53,-34
24,-39,-63,7,43,-51,-24,0,-165,-107,-53,-34
24,-34,-58,4,41,-46,-24,0,-161,-107,-53,-34
24,-19,-43,-2,34,-31,-24,0,-156,-102,-48,-29
29,-14,-43,-7,36,-29,-24,0,-151,-102,-48,-29
39,-14,-53,-12,46,-34,-24,0,-151,-102,-48,-29
39,-9,-48,-14,43,-29,-24,9,-151,-102,-39,-29
43,-19,-63,-12,53,-41,-34,9,-146,-97,-39,-24
48,-19,-68,-14,58,-43,-34,14,-141,-87,-34,-24
48,-9,-58,-19,53,-34,-39,14,-136,-82,-34,-19
53,-4,-58,-24,56,-31,-48,14,-131,-82,-29,-9
58,14,-43,-36,51,-14,-58,24,-122,-63,-19,4
63,19,-43,-41,53,-12,-58,24,-117,-63,-14,9
68,24,-43,-46,56,-9,-73,24,-107,-58,-14,14
68,39,-29,-53,48,4,-73,14,-102,-53,-9,19
68,48,-19,-58,43,14,-82,14,-92,-53,0,9
73,58,-14,-65,43,21,-97,9,-87,-43,4,14
73,58,-14,-65,43,21,-102,9,-87,-43,9,19
78,58,-19,-68,48,19,-112,4,-92,-43,9,19
87,63,-24,-75,56,19,-122,-14,-107,-53,0,19
87,63,-24,-75,56,19,-131,-34,-122,-53,-9,19
87,63,-24,-75,56,19,-141,-39,-126,-58,-9,19
87,78,-9,-82,48,34,-141,-48,-126,-63,-9,19
82,92,9,-87,36,51,-141,-53,-117,-63,0,19
82,102,19,-92,31,61,-146,-68,-122,-63,0,19
82,107,24,-95,29,65,-156,-73,-126,-63,0,19
82,112,29,-97,26,70,-165,-82,-131,-68,-4,24
82,122,39,-102,21,80,-180,-92,-146,-73,-4,14
82,126,43,-104,19,85,-190,-102,-151,-73,-4,14
92,141,48,-117,21,95,-195,-102,-151,-73,-4,14
102,141,39,-122,31,90,-200,-107,-156,-73,-4,19
92,126,34,-109,29,80,-200,-107,-161,-78,-19,29
92,107,14,-100,39,61,-195,-102,-170,-92,-29,14
87,82,-4,-85,46,39,-185,-92,-180,-97,-34,9
82,58,-24,-70,53,17,-170,-78,-180,-107,-39,4
78,43,-34,-61,56,4,-161,-87,-195,-122,-48,-9
78,19,-58,-48,68,-19,-151,-73,-204,-131,-58,-19
73,-4,-78,-34,75,-41,-131,-73,-214,-141,-68,-34
68,-14,-82,-26,75,-48,-117,-68,-219,-151,-78,-43
53,-24,-78,-14,65,-51,-102,-73,-219,-151,-87,-48
34,-34,-68,0,51,-51,-87,-58,-214,-146,-78,-48
19,-48,-68,14,43,-58,-63,-39,-204,-136,-73,-48
14,-63,-78,24,46,-70,-53,-39,-204,-136,-73,-48
4,-73,-78,34,41,-75,-43,-39,-204,-146,-82,-58
0,-78,-78,39,39,-78,-39,-39,-214,-151,-87,-68
-9,-87,-78,48,34,-82,-34,-48,-219,-156,-97,-68
-9,-92,-82,51,36,-87,-29,-48,-224,-170,-107,-82
-14,-97,-82,56,34,-90,-29,-48,-229,-170,-117,-82
-14,-107,-92,61,39,-100,-29,-48,-234,-170,-117,-82
-14,-112,-97,63,41,-104,-19,-43,-234,-175,-117,-82
-14,-117,-102,65,43,-109,-19,-39,-234,-175,-117,-82
-24,-122,-97,73,36,-109,-19,-48,-234,-185,-126,-87
-24,-122,-97,73,36,-109,-14,-48,-239,-190,-126,-87
-29,-122,-92,75,31,-107,-14,-48,-239,-190,-126,-87
-29,-122,-92,75,31,-107,-14,-48,-239,-190,-126,-87
-29,-122,-92,75,31,-107,-4,-39,-239,-180,-126,-92
-29,-122,-92,75,31,-107,0,-39,-239,-180,-126,-92
-29,-122,-92,75,31,-107,0,-39,-239,-185,-126,-92
-29,-126,-97,78,34,-112,0,-39,-239,-185,-126,-92
-29,-141,-112,85,41,-126,-9,-48,-248,-185,-126,-92
-34,-141,-107,87,36,-124,0,-43,-248,-185,-126,-92
-39,-141,-102,90,31,-122,0,-43,-248,-185,-126,-92
-39,-141,-102,90,31,-122,0,-43,-248,-185,-126,-92
-29,-131,-102,80,36,-117,0,-43,-239,-180,-117,-92
-29,-136,-107,82,39,-122,0,-43,-239,-180,-117,-92
-29,-136,-107,82,39,-122,0,-39,-239,-180,-117,-87
-24,-136,-112,80,43,-124,0,-39,-239,-180,-117,-87
-34,-136,-102,85,34,-119,0,-39,-248,-180,-126,-87
-34,-136,-102,85,34,-119,0,-39,-248,-180,-126,-97
-34,-136,-102,85,34,-119,0,-39,-248,-180,-126,-97
-34,-136,-102,85,34,-119,4,-39,-248,-180,-126,-97
-29,-136,-107,82,39,-122,24,-24,-234,-170,-117,-87
-29,-136,-107,82,39,-122,29,-9,-229,-180,-117,-92
-29,-141,-112,85,41,-126,34,-4,-214,-180,-126,-97
-39,-156,-117,97,39,-136,48,14,-209,-175,-136,-102
-53,-170,-117,112,31,-143,58,39,-185,-165,-126,-112
-63,-175,-112,119,24,-143,73,68,-141,-126,-102,-92
-63,-175,-112,119,24,-143,82,92,-78,-68,-63,-73
-63,-156,-92,109,14,-124,102,122,-9,-19,-19,-43
-63,-151,-87,107,12,-119,126,165,73,39,29,-19
-53,-141,-87,97,17,-114,136,209,161,126,97,34
-43,-117,-73,80,14,-95,136,229,268,229,190,92
-14,-87,-73,51,29,-80,126,239,370,346,307,165
19,-68,-87,24,53,-78,107,253,478,463,414,258
63,-48,-112,-7,87,-80,73,273,570,580,522,351
82,-34,-117,-24,100,-75,53,273,619,649,590,414
117,-4,-122,-56,119,-63,39,258,619,688,629,448
165,39,-126,-102,146,-43,0,234,619,736,692,512
224,92,-131,-158,178,-19,-73,170,595,780,761,590
268,141,-126,-204,197,7,-170,53,453,746,785,644
336,165,-170,-251,253,-2,-297,-87,229,668,775,673
434,190,-244,-312,339,-26,-434,-229,4,595,766,717
522,224,-297,-373,409,-36,-585,-380,-200,551,785,775
614,297,-317,-456,466,-9,-746,-546,-385,531,834,878
727,390,-336,-558,531,26,-927,-712,-522,546,917,1005
854,488,-366,-671,610,61,-1093,-863,-590,610,1039,1132
951,566,-385,-758,668,90,-1239,-1015,-673,653,1146,1268
1029,644,-385,-836,707,129,-1405,-1205,-805,653,1195,1376
1049,688,-361,-868,705,163,-1537,-1454,-1005,561,1185,1420
961,683,-278,-822,619,202,-1581,-1761,-1268,380,1068,1385
814,673,-141,-744,478,265,-1590,-2103,-1566,117,873,1293
673,658,-14,-666,344,322,-1610,-2386,-1878,-219,600,1141
541,580,39,-561,251,309,-1600,-2522,-2220,-658,219,917
414,419,4,-417,204,212,-1507,-2513,-2566,-1171,-273,570
346,224,-122,-285,234,51,-1420,-2391,-2786,-1571,-697,229
366,82,-283,-224,324,-100,-1361,-2225,-2786,-1717,-907,29
385,24,-361,-204,373,-168,-1312,-2059,-2664,-1708,-966,-73
361,14,-346,-187,353,-165,-1254,-1898,-2469,-1620,-956,-122
346,53,-292,-200,319,-119,-1190,-1727,-2191,-1444,-868,-112
341,82,-258,-212,300,-87,-1093,-1522,-1912,-1263,-746,-82
326,53,-273,-190,300,-109,-976,-1351,-1722,-1156,-697,-92
292,63,-229,-178,261,-82,-868,-1195,-1542,-1049,-639,-92
258,146,-112,-202,185,17,-756,-1034,-1288,-863,-507,-39
229,195,-34,-212,131,80,-639,-858,-1044,-683,-385,19
185,161,-24,-173,104,68,-527,-722,-893,-585,-351,0
112,97,-14,-104,63,41,-419,-605,-761,-541,-336,-58
48,48,0,-48,24,24,-312,-468,-629,-468,-326,-107
-4,19,24,-7,-14,21,-234,-375,-522,-395,-297,-136
-34,-4,29,19,-31,12,-175,-307,-419,-331,-253,-131
-58,-29,29,43,-43,0,-112,-219,-326,-263,-214,-136
-87,-53,34,70,-61,-9,-48,-122,-219,-200,-175,-146
-92,-63,29,78,-61,-17,0,-68,-156,-146,-141,-136
-78,-63,14,70,-46,-24,14,-43,-122,-117,-107,-107
-73,-78,-4,75,-34,-41,29,-14,-92,-107,-87,-97
-68,-87,-19,78,-24,-53,48,29,-58,-87,-78,-82
-73,-107,-34,90,-19,-70,58,39,-48,-73,-82,-78
-73,-107,-34,90,-19,-70,53,53,-48,-63,-73,-78
-73,-97,-24,85,-24,-61,58,53,-34,-58,-63,-78
-68,-97,-29,82,-19,-63,63,58,-24,-53,-58,-73
-68,-97,-29,82,-19,-63,63,58,-14,-48,-58,-73
-68,-97,-29,82,-19,-63,68,68,-4,-48,-58,-73
-68,-107,-39,87,-14,-73,78,73,4,-43,-48,-68
-68,-107,-39,87,-14,-73,78,78,9,-39,-43,-68
-63,-107,-43,85,-9,-75,82,82,9,-39,-39,-68
-63,-107,-43,85,-9,-75,82,87,14,-29,-34,-63
-63,-107,-43,85,-9,-75,78,92,24,-24,-34,-63
-63,-107,-43,85,-9,-75,78,97,29,-19,-34,-58
-63,-107,-43,85,-9,-75,82,97,34,-19,-34,-58
-63,-107,-43,85,-9,-75,82,97,39,-19,-29,-58
-53,-107,-53,80,0,-80,92,117,34,-14,-34,-68
-48,-107,-58,78,4,-82,97,117,39,-9,-34,-63
-48,-107,-58,78,4,-82,97,117,43,-9,-29,-63
-48,-107,-58,78,4,-82,97,122,48,-9,-24,-63
-58,-102,-43,80,-7,-73,87,126,48,-9,-24,-53
-63,-102,-39,82,-12,-70,87,126,53,0,-24,-53
-63,-102,-39,82,-12,-70,87,126,58,0,-24,-53
-58,-102,-43,80,-7,-73,92,131,63,0,-14,-53
-48,-97,-48,73,0,-73,92,131,78,9,-9,-48
-48,-92,-43,70,-2,-68,92,136,82,14,-4,-48
-48,-87,-39,68,-4,-63,92,136,87,14,-4,-43
-48,-78,-29,63,-9,-53,92,141,92,24,-4,-43
-58,-82,-24,70,-17,-53,102,141,97,24,4,-53
-58,-87,-29,73,-14,-58,102,141,97,24,0,-53
-58,-92,-34,75,-12,-63,107,146,97,24,0,-53
-58,-92,-34,75,-12,-63,107,146,107,29,4,-53
-48,-82,-34,65,-7,-58,92,141,112,39,4,-43
-43,-82,-39,63,-2,-61,92,141,117,39,9,-39
-43,-82,-39,63,-2,-61,97,146,126,39,9,-39
-43,-82,-39,63,-2,-61,97,146,131,39,9,-39
-53,-87,-34,70,-9,-61,97,146,126,29,14,-43
-58,-87,-29,73,-14,-58,97,151,126,39,9,-43
-58,-87,-29,73,-14,-58,97,151,131,43,4,-48
-53,-82,-29,68,-12,-56,97,156,136,43,-4,-53
-43,-73,-29,58,-7,-51,97,165,156,53,4,-43
-43,-73,-29,58,-7,-51,102,170,161,58,14,-43
-43,-73,-29,58,-7,-51,102,175,165,58,14,-39
-43,-68,-24,56,-9,-46,102,175,170,63,14,-39
-53,-78,-24,65,-14,-51,102,175,170,68,14,-39
-58,-78,-19,68,-19,-48,102,175,175,73,14,-39
-58,-78,-19,68,-19,-48,107,180,185,78,14,-34
-58,-73,-14,65,-21,-43,107,180,190,82,14,-34
-58,-68,-9,63,-24,-39,117,185,195,97,29,-34
-58,-68,-9,63,-24,-39,117,190,204,102,29,-29
-58,-68,-9,63,-24,-39,117,190,209,102,39,-29
-58,-63,-4,61,-26,-34,117,195,219,107,39,-24
-58,-63,-4,61,-26,-34,112,200,219,102,39,-34
-58,-63,-4,61,-26,-34,112,204,224,107,43,-34
-58,-58,0,58,-29,-29,112,204,229,117,43,-29
-58,-53,4,56,-31,-24,112,204,239,122,48,-29
-48,-39,9,43,-29,-14,117,214,253,126,58,-19
-48,-39,9,43,-29,-14,117,219,263,131,58,-19
-48,-39,9,43,-29,-14,117,224,273,136,58,-14
-48,-39,9,43,-29,-14,117,229,283,141,68,-14
-58,-39,19,48,-39,-9,117,219,283,146,63,-24
-63,-43,19,53,-41,-12,122,224,297,151,63,-19
-63,-48,14,56,-39,-17,122,229,307,156,63,-19
-63,-48,14,56,-39,-17,122,229,307,161,68,-19
-53,-43,9,48,-31,-17,126,244,317,165,78,-9
-53,-34,19,43,-36,-7,126,248,331,170,87,-4
-53,-24,29,39,-41,2,126,253,341,175,92,-4
-58,-19,39,39,-48,9,131,258,351,185,97,0
-68,-29,39,48,-53,4,131,253,361,190,87,-9
-68,-29,39,48,-53,4,136,258,361,195,87,-9
-68,-24,43,46,-56,9,136,263,375,200,97,-4
-68,-24,43,46,-56,9,141,268,390,204,97,-4
-58,-9,48,34,-53,19,141,287,400,219,112,4
-63,0,63,31,-63,31,146,292,409,229,117,4
-63,0,63,31,-63,31,146,297,419,234,122,9
-63,0,63,31,-63,31,151,302,429,239,126,9
-63,-4,58,34,-61,26,141,297,448,244,122,4
-63,-4,58,34,-61,26,146,302,453,248,126,4
-73,-4,68,39,-70,31,151,312,463,253,131,4
-73,0,73,36,-73,36,151,317,473,258,131,4
-73,9,82,31,-78,46,156,331,488,268,146,19
-73,14,87,29,-80,51,156,341,502,273,151,19
-73,24,97,24,-85,61,161,346,517,283,156,19
-73,29,102,21,-87,65,170,351,531,292,161,24
-78,24,102,26,-90,63,185,366,541,302,156,24
-78,29,107,24,-92,68,185,366,556,312,165,24
-78,29,107,24,-92,68,185,375,566,312,170,29
-82,29,112,26,-97,70,195,385,585,326,175,29
-78,43,122,17,-100,82,190,395,600,336,180,29
-82,48,131,17,-107,90,195,395,610,341,180,34
-87,53,141,17,-114,97,200,405,629,351,190,34
-87,63,151,12,-119,107,200,409,644,361,195,34
-102,68,170,17,-136,119,200,414,658,375,200,29
-102,73,175,14,-139,124,209,414,678,385,204,29
-107,78,185,14,-146,131,214,424,692,390,209,29
-112,82,195,14,-153,139,224,429,707,400,214,34
-117,87,204,14,-161,146,229,453,722,409,219,43
-117,92,209,12,-163,151,234,453,736,419,224,43
-122,97,219,12,-170,158,239,458,756,429,229,43
-126,107,234,9,-180,170,244,468,771,434,234,48
-141,112,253,14,-197,183,248,468,790,448,239,48
-141,122,263,9,-202,192,258,473,805,458,244,48
-146,126,273,9,-209,200,258,478,819,463,248,48
-151,131,283,9,-217,207,263,483,834,478,253,48
-156,136,292,9,-224,214,268,488,863,488,263,48
-156,146,302,4,-229,224,278,492,878,497,263,48
-161,156,317,2,-239,236,283,497,893,502,268,48
-170,165,336,2,-253,251,287,502,907,512,273,48
-175,165,341,4,-258,253,292,512,912,522,268,39
-180,170,351,4,-265,261,297,512,927,527,273,39
-185,175,361,4,-273,268,302,517,941,536,278,39
-200,180,380,9,-290,280,307,517,956,536,283,39
-204,185,390,9,-297,287,312,507,961,546,292,39
-214,185,400,14,-307,292,312,507,976,556,292,39
-219,200,419,9,-319,309,317,507,985,561,302,39
-219,204,424,7,-322,314,317,507,995,570,307,39
-234,214,448,9,-341,331,322,497,1010,585,307,39
-239,214,453,12,-346,334,326,497,1019,590,312,34
-244,219,463,12,-353,341,326,492,1019,595,312,34
-253,219,473,17,-363,346,326,488,1024,605,312,39
-258,219,478,19,-368,348,326,483,1024,600,307,39
-263,224,488,19,-375,356,322,473,1029,600,307,39
-263,224,488,19,-375,356,322,463,1029,600,312,34
-268,229,497,19,-383,363,322,453,1029,600,312,34
-263,239,502,12,-383,370,317,453,1019,605,312,24
-263,239,502,12,-383,370,312,444,1015,605,312,24
-263,239,502,12,-383,370,307,424,1005,605,312,24
-263,239,502,12,-383,370,302,414,995,600,312,24
-273,224,497,24,-385,361,297,400,976,590,302,24
-273,224,497,24,-385,361,283,385,961,580,302,24
-268,219,488,24,-378,353,273,370,946,575,302,24
-268,214,483,26,-375,348,268,356,922,561,302,24
-248,214,463,17,-356,339,258,351,912,556,292,24
-244,214,458,14,-351,336,248,346,888,541,283,24
-239,204,444,17,-341,324,239,326,863,531,278,24
-234,195,429,19,-331,312,229,307,839,522,273,24
-239,185,424,26,-331,305,204,287,790,502,268,14
-229,175,405,26,-317,290,190,273,761,478,258,4
-219,161,380,29,-300,270,190,268,727,463,244,0
-209,151,361,29,-285,256,175,253,692,444,234,0
-190,141,331,24,-261,236,175,248,668,424,224,4
-180,136,317,21,-248,226,161,239,634,400,214,4
-161,131,292,14,-226,212,146,224,595,375,204,4
-156,122,278,17,-217,200,131,214,556,356,190,4
-156,107,263,24,-209,185,126,200,507,331,175,0
-136,87,224,24,-180,156,107,180,468,307,161,-4
-131,73,204,29,-168,139,92,170,429,283,141,-4
-122,73,195,24,-158,134,87,156,395,258,122,-9
-102,63,165,19,-134,114,63,151,356,234,112,-9
-87,53,141,17,-114,97,48,141,322,209,102,-9
-78,43,122,17,-100,82,43,136,287,185,92,-9
-68,39,107,14,-87,73,29,126,253,170,87,-9
-68,34,102,17,-85,68,19,102,229,141,68,-19
-58,29,87,14,-73,58,9,92,190,122,53,-29
-48,19,68,14,-58,43,0,82,165,102,34,-29
-43,9,53,17,-48,31,-4,73,136,82,24,-29
-24,19,43,2,-34,31,-4,63,112,53,9,-29
-19,19,39,0,-29,29,-14,53,87,43,0,-29
-9,14,24,-2,-17,19,-14,48,68,29,-9,-34
0,14,14,-7,-7,14,-29,43,48,14,-19,-34
-9,4,14,2,-12,9,-39,39,19,0,-24,-34
-4,-4,0,4,-2,-2,-39,34,0,-4,-29,-34
-4,-19,-14,12,4,-17,-43,29,-19,-24,-34,-39
4,-24,-29,9,17,-26,-53,24,-29,-34,-39,-39
14,-24,-39,4,26,-31,-43,19,-29,-34,-43,-29
19,-24,-43,2,31,-34,-48,19,-43,-43,-53,-34
24,-19,-43,-2,34,-31,-53,14,-53,-53,-63,-34
29,-9,-39,-9,34,-24,-53,9,-73,-58,-73,-34
19,-19,-39,0,29,-29,-68,4,-73,-68,-78,-43
19,-29,-48,4,34,-39,-68,0,-82,-73,-78,-43
19,-29,-48,4,34,-39,-68,0,-92,-82,-78,-43
19,-39,-58,9,39,-48,-68,0,-92,-87,-78,-43
29,-34,-63,2,46,-48,-58,0,-107,-82,-87,-34
34,-29,-63,-2,48,-46,-58,-4,-112,-92,-87,-39
34,-24,-58,-4,46,-41,-63,-4,-117,-92,-92,-39
34,-14,-48,-9,41,-31,-63,-4,-122,-97,-92,-39
24,-14,-39,-4,31,-26,-63,-14,-126,-112,-102,-48
24,-19,-43,-2,34,-31,-63,-14,-126,-112,-102,-48
24,-34,-58,4,41,-46,-63,-19,-131,-112,-102,-48
24,-43,-68,9,46,-56,-68,-19,-131,-112,-102,-48
34,-39,-73,2,53,-56,-68,-9,-122,-102,-107,-39
34,-34,-68,0,51,-51,-68,-9,-126,-102,-102,-39
39,-29,-68,-4,53,-48,-68,-9,-126,-107,-102,-39
39,-19,-58,-9,48,-39,-68,-9,-122,-107,-97,-39
29,-24,-53,-2,41,-39,-68,-19,-131,-122,-107,-53
29,-24,-53,-2,41,-39,-68,-19,-136,-122,-107,-53
24,-24,-48,0,36,-36,-68,-19,-136,-122,-107,-53
24,-34,-58,4,41,-46,-63,-19,-136,-117,-107,-48
24,-24,-48,0,36,-36,-63,-9,-126,-117,-97,-48
24,-24,-48,0,36,-36,-63,-9,-126,-117,-97,-48
24,-24,-48,0,36,-36,-63,-9,-126,-117,-102,-53
24,-24,-48,0,36,-36,-63,-9,-126,-117,-102,-53
24,-24,-48,0,36,-36,-63,-19,-122,-117,-92,-53
19,-24,-43,2,31,-34,-63,-19,-117,-117,-92,-53
19,-24,-43,2,31,-34,-58,-19,-117,-117,-92,-53
19,-29,-48,4,34,-39,-58,-14,-122,-117,-87,-53
14,-19,-34,2,24,-26,-58,-14,-122,-117,-92,-53
14,-19,-34,2,24,-26,-58,-14,-122,-112,-97,-58
14,-19,-34,2,24,-26,-53,-14,-117,-112,-102,-58
14,-14,-29,0,21,-21,-53,-14,-117,-117,-107,-58
19,-24,-43,2,31,-34,-53,-14,-117,-107,-112,-68
19,-24,-43,2,31,-34,-53,-14,-117,-107,-112,-68
19,-24,-43,2,31,-34,-48,-14,-112,-102,-107,-68
19,-24,-43,2,31,-34,-48,-14,-107,-102,-107,-68
14,-34,-48,9,31,-41,-48,-4,-107,-112,-107,-58
9,-34,-43,12,26,-39,-48,-4,-107,-112,-107,-58
9,-34,-43,12,26,-39,-43,-4,-107,-112,-107,-58
9,-34,-43,12,26,-39,-43,-4,-107,-112,-112,-58
0,-34,-34,17,17,-34,-43,-4,-107,-117,-102,-63
0,-34,-34,17,17,-34,-43,-4,-107,-117,-102,-63
0,-34,-34,17,17,-34,-43,-4,-102,-112,-102,-63
-4,-39,-34,21,14,-36,-43,-4,-102,-112,-102,-63
-4,-39,-34,21,14,-36,-39,-14,-102,-112,-102,-73
-9,-39,-29,24,9,-34,-34,-14,-102,-107,-102,-73
-9,-43,-34,26,12,-39,-34,-14,-102,-107,-102,-73
-9,-43,-34,26,12,-39,-34,-14,-102,-107,-107,-73
-9,-34,-24,21,7,-29,-29,-14,-97,-102,-102,-68
-9,-29,-19,19,4,-24,-29,-14,-97,-102,-102,-68
-9,-29,-19,19,4,-24,-24,-14,-97,-97,-97,-68
-14,-29,-14,21,0,-21,-24,-14,-97,-97,-92,-68
-19,-34,-14,26,-2,-24,-34,-24,-97,-107,-97,-68
-19,-34,-14,26,-2,-24,-29,-24,-102,-112,-102,-68
-19,-34,-14,26,-2,-24,-29,-24,-102,-112,-107,-68
-19,-34,-14,26,-2,-24,-29,-24,-102,-112,-112,-68
-9,-34,-24,21,7,-29,-29,-14,-97,-112,-112,-73
-9,-34,-24,21,7,-29,-29,-14,-97,-112,-112,-73
-9,-34,-24,21,7,-29,-29,-14,-97,-112,-112,-73
-9,-34,-24,21,7,-29,-29,-14,-97,-112,-112,-73
-24,-34,-9,29,-7,-21,-29,-14,-112,-112,-122,-82
-24,-43,-19,34,-2,-31,-24,-14,-112,-112,-122,-82
-24,-43,-19,34,-2,-31,-24,-14,-117,-112,-126,-82
-24,-43,-19,34,-2,-31,-24,-9,-117,-112,-126,-82
-14,-43,-29,29,7,-36,-24,-9,-107,-112,-117,-78
-19,-43,-24,31,2,-34,-24,-14,-107,-117,-117,-82
-19,-43,-24,31,2,-34,-29,-14,-107,-117,-117,-82
-19,-43,-24,31,2,-34,-29,-14,-107,-117,-117,-82
-29,-43,-14,36,-7,-29,-24,-24,-117,-126,-126,-87
-29,-48,-19,39,-4,-34,-24,-24,-122,-126,-126,-87
-29,-53,-24,41,-2,-39,-24,-24,-126,-126,-126,-87
-29,-53,-24,41,-2,-39,-24,-29,-126,-126,-126,-92
-29,-43,-14,36,-7,-29,-19,-19,-117,-117,-122,-92
-29,-39,-9,34,-9,-24,-24,-19,-117,-117,-126,-97
-29,-39,-9,34,-9,-24,-24,-19,-117,-122,-126,-102
-29,-39,-9,34,-9,-24,-24,-14,-117,-126,-126,-102
-29,-48,-19,39,-4,-34,-34,-24,-117,-131,-136,-97
-29,-48,-19,39,-4,-34,-34,-24,-122,-131,-136,-97
-29,-53,-24,41,-2,-39,-34,-24,-126,-131,-136,-102
-29,-58,-29,43,0,-43,-34,-29,-131,-131,-141,-102
-19,-58,-39,39,9,-48,-29,-19,-131,-131,-136,-92
-19,-53,-34,36,7,-43,-29,-19,-131,-131,-141,-92
-19,-53,-34,36,7,-43,-29,-19,-136,-136,-141,-97
-19,-53,-34,36,7,-43,-29,-19,-136,-141,-141,-97
-29,-63,-34,46,2,-48,-34,-19,-141,-141,-141,-107
-29,-63,-34,46,2,-48,-34,-24,-141,-141,-146,-107
-29,-73,-43,51,7,-58,-34,-24,-146,-146,-146,-107
-29,-78,-48,53,9,-63,-34,-24,-146,-146,-146,-102
-19,-73,-53,46,17,-63,-34,-24,-141,-146,-136,-92
-19,-63,-43,41,12,-53,-29,-24,-141,-151,-146,-97
-19,-53,-34,36,7,-43,-29,-24,-146,-151,-146,-102
-19,-48,-29,34,4,-39,-34,-24,-151,-151,-146,-102
-29,-53,-24,41,-2,-39,-34,-34,-151,-161,-146,-112
-24,-58,-34,41,4,-46,-34,-34,-151,-165,-146,-112
-24,-63,-39,43,7,-51,-34,-39,-156,-165,-151,-112
-24,-78,-53,51,14,-65,-39,-39,-161,-165,-161,-112
-29,-73,-43,51,7,-58,-29,-39,-161,-156,-151,-112
-29,-63,-34,46,2,-48,-29,-39,-161,-156,-156,-112
-29,-58,-29,43,0,-43,-29,-39,-161,-156,-161,-112
-29,-53,-24,41,-2,-39,-29,-39,-161,-161,-161,-112
-39,-58,-19,48,-9,-39,-39,-29,-170,-170,-170,-112
-39,-63,-24,51,-7,-43,-39,-34,-170,-170,-170,-112
-34,-73,-39,53,2,-56,-34,-34,-170,-170,-170,-112
-34,-82,-48,58,7,-65,-34,-34,-175,-170,-170,-112
-24,-78,-53,51,14,-65,-34,-34,-170,-180,-175,-112
-24,-73,-48,48,12,-61,-34,-34,-170,-180,-175,-112
-24,-58,-34,41,4,-46,-34,-34,-165,-180,-175,-112
-24,-53,-29,39,2,-41,-39,-34,-165,-180,-175,-117
-34,-58,-24,46,-4,-41,-29,-43,-175,-180,-175,-117
-34,-63,-29,48,-2,-46,-29,-43,-175,-180,-175,-117
-34,-68,-34,51,0,-51,-29,-43,-175,-180,-175,-117
-34,-82,-48,58,7,-65,-29,-43,-180,-185,-175,-117
-29,-73,-43,51,7,-58,-29,-39,-180,-175,-175,-107
-29,-68,-39,48,4,-53,-29,-39,-185,-180,-175,-107
-29,-68,-39,48,4,-53,-29,-39,-185,-180,-180,-107
-24,-68,-43,46,9,-56,-34,-39,-180,-185,-185,-107
-34,-78,-43,56,4,-61,-34,-39,-180,-195,-185,-117
-29,-78,-48,53,9,-63,-34,-39,-185,-190,-180,-117
-29,-78,-48,53,9,-63,-34,-39,-185,-190,-180,-117
-29,-82,-53,56,12,-68,-34,-39,-190,-190,-185,-112
-24,-73,-48,48,12,-61,-34,-39,-190,-180,-175,-112
-24,-73,-48,48,12,-61,-34,-39,-180,-185,-175,-112
-24,-68,-43,46,9,-56,-34,-39,-180,-185,-180,-117
-29,-68,-39,48,4,-53,-34,-39,-180,-185,-180,-117
-19,-78,-58,48,19,-68,-34,-39,-190,-185,-180,-112
-19,-78,-58,48,19,-68,-39,-39,-190,-185,-180,-112
-19,-78,-58,48,19,-68,-39,-39,-190,-185,-180,-112
-19,-78,-58,48,19,-68,-34,-43,-195,-185,-180,-112
-19,-78,-58,48,19,-68,-34,-43,-195,-190,-190,-122
-19,-78,-58,48,19,-68,-34,-43,-195,-190,-190,-122
-19,-78,-58,48,19,-68,-39,-43,-195,-190,-190,-122
-19,-73,-53,46,17,-63,-39,-43,-195,-190,-190,-122
-29,-78,-48,53,9,-63,-39,-53,-195,-190,-190,-112
-29,-78,-48,53,9,-63,-39,-53,-195,-190,-190,-112
-29,-78,-48,53,9,-63,-39,-53,-200,-190,-190,-112
-29,-82,-53,56,12,-68,-39,-53,-200,-190,-195,-112
-24,-87,-63,56,19,-75,-29,-43,-204,-190,-185,-112
-19,-87,-68,53,24,-78,-29,-43,-204,-190,-185,-112
-19,-82,-63,51,21,-73,-29,-43,-200,-190,-185,-112
-24,-82,-58,53,17,-70,-29,-43,-200,-190,-185,-112
-14,-82,-68,48,26,-75,-34,-43,-200,-195,-195,-122
-14,-82,-68,48,26,-75,-34,-43,-200,-195,-195,-122
-19,-82,-63,51,21,-73,-34,-43,-200,-195,-195,-122
-19,-82,-63,51,21,-73,-34,-43,-204,-195,-195,-122
-29,-87,-58,58,14,-73,-34,-43,-195,-195,-185,-112
-24,-87,-63,56,19,-75,-34,-43,-195,-195,-185,-112
-19,-87,-68,53,24,-78,-34,-43,-195,-195,-185,-112
-19,-87,-68,53,24,-78,-34,-43,-195,-195,-185,-112
-14,-82,-68,48,26,-75,-43,-43,-204,-195,-185,-112
-14,-82,-68,48,26,-75,-43,-43,-204,-195,-185,-112
-14,-82,-68,48,26,-75,-43,-43,-204,-195,-185,-112
-14,-82,-68,48,26,-75,-39,-43,-204,-195,-185,-112
-24,-73,-48,48,12,-61,-39,-43,-204,-200,-195,-112
-24,-82,-58,53,17,-70,-39,-43,-209,-200,-195,-112
-24,-82,-58,53,17,-70,-39,-43,-209,-200,-200,-112
-24,-78,-53,51,14,-65,-39,-43,-209,-200,-200,-112
-9,-78,-68,43,29,-73,-43,-34,-195,-200,-185,-112
-9,-78,-68,43,29,-73,-43,-34,-195,-200,-185,-107
-9,-73,-63,41,26,-68,-43,-34,-200,-195,-185,-107
-14,-73,-58,43,21,-65,-43,-34,-200,-195,-185,-117
-24,-73,-48,48,12,-61,-43,-39,-209,-200,-195,-126
-24,-78,-53,51,14,-65,-43,-43,-209,-200,-195,-122
-24,-78,-53,51,14,-65,-43,-48,-209,-200,-195,-122
-24,-78,-53,51,14,-65,-43,-53,-209,-200,-195,-122
-9,-68,-58,39,24,-63,-39,-43,-200,-190,-195,-112
-9,-68,-58,39,24,-63,-39,-43,-200,-190,-185,-112
-14,-78,-63,46,24,-70,-43,-39,-209,-190,-185,-112
-19,-82,-63,51,21,-73,-39,-34,-200,-200,-195,-112
-29,-97,-68,63,19,-82,-39,-39,-204,-195,-195,-117
-19,-87,-68,53,24,-78,-39,-48,-204,-195,-185,-117
-19,-87,-68,53,24,-78,-39,-48,-204,-195,-185,-117
-19,-87,-68,53,24,-78,-39,-48,-204,-195,-185,-117
-19,-87,-68,53,24,-78,-39,-48,-204,-195,-185,-117
-9,-78,-68,43,29,-73,-39,-39,-195,-185,-175,-107
-9,-78,-68,43,29,-73,-39,-39,-195,-185,-175,-107
-9,-78,-68,43,29,-73,-39,-39,-195,-185,-175,-107
-9,-78,-68,43,29,-73,-39,-39,-195,-185,-175,-107
0,-73,-73,36,36,-73,-48,-29,-185,-175,-165,-97
0,-68,-68,34,34,-68,-48,-29,-185,-175,-165,-97
0,-63,-63,31,31,-63,-48,-29,-185,-175,-165,-97
4,-48,-53,21,29,-51,-48,-29,-180,-170,-161,-92
9,-39,-48,14,29,-43,-53,-19,-165,-156,-156,-78
14,-24,-39,4,26,-31,-53,-24,-161,-151,-151,-73
19,-19,-39,0,29,-29,-53,-29,-156,-146,-151,-73
24,-14,-39,-4,31,-26,-53,-29,-151,-146,-151,-73
14,-9,-24,-2,19,-17,-53,-39,-156,-151,-146,-78
19,-4,-24,-7,21,-14,-53,-39,-151,-151,-146,-78
29,-4,-34,-12,31,-19,-53,-39,-151,-151,-146,-78
29,0,-29,-14,29,-14,-53,-29,-151,-151,-136,-78
43,0,-43,-21,43,-21,-43,-19,-136,-146,-136,-63
48,0,-48,-24,48,-24,-43,-14,-131,-136,-131,-63
48,9,-39,-29,43,-14,-48,-14,-126,-131,-131,-58
53,14,-39,-34,46,-12,-58,-14,-122,-131,-126,-48
48,14,-34,-31,41,-9,-68,-24,-131,-122,-117,-53
53,19,-34,-36,43,-7,-68,-24,-126,-122,-112,-48
58,24,-34,-41,46,-4,-82,-24,-117,-117,-112,-43
58,39,-19,-48,39,9,-82,-34,-112,-112,-107,-39
68,53,-14,-61,41,19,-82,-24,-92,-92,-87,-29
73,68,-4,-70,39,31,-97,-29,-87,-82,-82,-24
73,73,0,-73,36,36,-102,-29,-87,-82,-78,-19
78,78,0,-78,39,39,-112,-34,-92,-82,-78,-19
68,73,4,-70,31,39,-126,-53,-97,-102,-82,-29
68,73,4,-70,31,39,-141,-73,-112,-102,-97,-29
68,73,4,-70,31,39,-156,-78,-117,-107,-102,-29
68,87,19,-78,24,53,-161,-87,-117,-112,-107,-29
73,102,29,-87,21,65,-151,-82,-107,-102,-102,-19
73,112,39,-92,17,75,-156,-97,-112,-102,-97,-19
73,117,43,-95,14,80,-165,-102,-117,-102,-92,-19
73,122,48,-97,12,85,-175,-112,-122,-107,-92,-14
73,122,48,-97,12,85,-190,-131,-136,-122,-92,-14
73,126,53,-100,9,90,-200,-141,-141,-122,-92,-14
82,141,58,-112,12,100,-204,-141,-141,-122,-92,-14
92,141,48,-117,21,95,-209,-146,-146,-122,-92,-9
92,141,48,-117,21,95,-209,-146,-151,-126,-107,-9
92,126,34,-109,29,80,-204,-141,-161,-141,-117,-24
87,107,19,-97,34,63,-195,-131,-170,-146,-122,-29
82,87,4,-85,39,46,-180,-117,-170,-156,-126,-34
68,53,-14,-61,41,19,-170,-117,-185,-161,-136,-39
68,29,-39,-48,53,-4,-161,-102,-195,-170,-146,-48
63,4,-58,-34,61,-26,-141,-102,-204,-180,-156,-63
58,-4,-63,-26,61,-34,-126,-97,-209,-190,-165,-73
53,-4,-58,-24,56,-31,-102,-82,-200,-180,-165,-78
34,-14,-48,-9,41,-31,-87,-68,-195,-175,-156,-78
19,-29,-48,4,34,-39,-63,-48,-185,-165,-151,-78
14,-43,-58,14,36,-51,-53,-48,-185,-165,-151,-78
4,-63,-68,29,36,-65,-48,-58,-195,-175,-161,-87
0,-68,-68,34,34,-68,-48,-58,-204,-180,-165,-97
-9,-78,-68,43,29,-73,-48,-68,-209,-185,-175,-97
-9,-82,-73,46,31,-78,-48,-68,-214,-200,-185,-112
-14,-78,-63,46,24,-70,-39,-68,-209,-200,-185,-112
-14,-87,-73,51,29,-80,-39,-68,-214,-200,-185,-112
-14,-92,-78,53,31,-85,-29,-63,-214,-204,-185,-112
-14,-97,-82,56,34,-90,-29,-58,-214,-204,-185,-112
-24,-112,-87,68,31,-100,-29,-58,-224,-204,-204,-117
-24,-112,-87,68,31,-100,-24,-58,-229,-209,-204,-117
-29,-112,-82,70,26,-97,-24,-58,-229,-209,-204,-117
-29,-112,-82,70,26,-97,-24,-58,-229,-209,-204,-117
-19,-102,-82,61,31,-92,-24,-58,-229,-209,-204,-122
-19,-102,-82,61,31,-92,-19,-58,-229,-209,-204,-122
-19,-102,-82,61,31,-92,-19,-58,-229,-214,-204,-122
-19,-107,-87,63,34,-97,-19,-58,-229,-214,-204,-122
-29,-122,-92,75,31,-107,-19,-58,-239,-214,-204,-122
-34,-122,-87,78,26,-104,-9,-53,-239,-214,-204,-122
-39,-122,-82,80,21,-102,-9,-53,-239,-214,-204,-122
-39,-122,-82,80,21,-102,-9,-53,-239,-214,-204,-122
-29,-112,-82,70,26,-97,-9,-53,-229,-209,-195,-122
-29,-117,-87,73,29,-102,-9,-53,-229,-209,-195,-122
-29,-117,-87,73,29,-102,-9,-48,-229,-209,-195,-117
-24,-117,-92,70,34,-104,-9,-48,-229,-209,-195,-117
-24,-117,-92,70,34,-104,-19,-48,-229,-219,-204,-126
-24,-117,-92,70,34,-104,-19,-48,-229,-219,-204,-136
-24,-117,-92,70,34,-104,-19,-48,-229,-219,-204,-136
-24,-117,-92,70,34,-104,-14,-48,-229,-219,-204,-136
-29,-126,-97,78,34,-112,-4,-43,-224,-209,-195,-126
-29,-126,-97,78,34,-112,9,-39,-219,-209,-204,-122
-19,-122,-102,70,41,-112,14,-34,-204,-209,-204,-136
-29,-126,-97,78,34,-112,29,-14,-200,-204,-204,-141
-43,-141,-97,92,26,-119,48,19,-165,-175,-185,-141
-53,-146,-92,100,19,-119,63,48,-112,-146,-170,-131
-53,-156,-102,104,24,-129,73,73,-58,-107,-131,-112
-63,-165,-102,114,19,-134,92,102,9,-58,-87,-92
-63,-161,-97,112,17,-129,107,146,92,9,-39,-68
-53,-141,-87,97,17,-114,117,180,190,97,29,-24
-34,-107,-73,70,19,-90,117,200,287,209,122,53
4,-68,-73,31,39,-70,107,219,409,336,248,156
48,-39,-87,-4,68,-63,87,244,517,463,375,248
82,-29,-112,-26,97,-70,63,263,610,580,483,341
102,-24,-126,-39,114,-75,43,263,658,649,541,395
126,-4,-131,-61,129,-68,19,258,658,697,590,439
175,39,-136,-107,156,-48,-29,224,658,746,663,502
224,102,-122,-163,173,-9,-102,151,614,780,732,590
297,161,-136,-229,217,12,-200,24,453,746,746,644
366,185,-180,-275,273,2,-326,-97,239,688,756,683
453,209,-244,-331,348,-17,-463,-209,34,634,775,756
551,263,-287,-407,419,-12,-624,-351,-161,600,814,834
644,336,-307,-490,475,14,-785,-517,-326,600,883,946
756,419,-336,-588,546,41,-956,-673,-444,644,985,1073
863,517,-346,-690,605,85,-1122,-814,-502,717,1107,1220
941,614,-326,-778,634,143,-1268,-956,-575,771,1215,1346
1010,673,-336,-841,673,168,-1424,-1156,-717,761,1273,1444
1010,717,-292,-863,651,212,-1537,-1415,-946,639,1244,1488
912,722,-190,-817,551,265,-1581,-1722,-1229,429,1098,1434
746,732,-14,-739,380,358,-1590,-2054,-1566,126,863,1322
614,707,92,-661,261,400,-1610,-2318,-1927,-258,551,1151
492,610,117,-551,187,363,-1590,-2435,-2269,-727,151,907
375,409,34,-392,170,222,-1498,-2405,-2625,-1259,-351,570
336,224,-112,-280,224,56,-1420,-2283,-2835,-1639,-756,248
356,122,-234,-239,295,-56,-1361,-2127,-2806,-1747,-936,58
366,73,-292,-219,329,-109,-1302,-1971,-2664,-1727,-985,-43
351,82,-268,-217,309,-92,-1234,-1800,-2430,-1620,-976,-92
346,122,-224,-234,285,-51,-1161,-1620,-2142,-1434,-868,-63
341,131,-209,-236,275,-39,-1054,-1444,-1864,-1254,-756,-34
317,102,-214,-209,265,-56,-946,-1273,-1673,-1146,-707,-53
283,102,-180,-192,231,-39,-849,-1127,-1483,-1039,-649,-63
248,165,-82,-207,165,41,-727,-976,-1239,-863,-536,-19
200,204,4,-202,97,104,-610,-819,-1015,-702,-424,19
156,170,14,-163,70,92,-497,-683,-863,-614,-400,-19
112,107,-4,-109,58,51,-390,-556,-722,-551,-385,-87
48,68,19,-58,14,43,-292,-439,-580,-468,-366,-126
4,48,43,-26,-19,46,-214,-366,-483,-395,-326,-136
-34,14,48,9,-41,31,-156,-297,-390,-341,-292,-151
-68,-19,48,43,-58,14,-102,-209,-297,-273,-263,-165
-87,-53,34,70,-61,-9,-39,-131,-200,-209,-224,-165
-82,-63,19,73,-51,-21,0,-78,-146,-165,-180,-156
-78,-63,14,70,-46,-24,14,-53,-112,-136,-156,-136
-63,-58,4,61,-34,-26,29,-24,-82,-117,-146,-117
-58,-78,-19,68,-19,-48,48,9,-48,-97,-126,-112
-53,-78,-24,65,-14,-51,58,19,-29,-82,-112,-107
-43,-87,-43,65,0,-65,63,24,-19,-82,-122,-107
-48,-97,-48,73,0,-73,68,34,-19,-78,-122,-107
-48,-97,-48,73,0,-73,73,39,-14,-73,-117,-102
-53,-97,-43,75,-4,-70,73,39,-9,-68,-117,-102
-58,-97,-39,78,-9,-68,78,48,-4,-68,-117,-102
-48,-92,-43,70,-2,-68,78,63,14,-63,-107,-97
-48,-87,-39,68,-4,-63,78,68,19,-58,-102,-97
-43,-82,-39,63,-2,-61,82,73,19,-58,-97,-97
-43,-78,-34,61,-4,-56,82,78,24,-48,-92,-92
-48,-87,-39,68,-4,-63,78,73,24,-53,-92,-92
-53,-87,-34,70,-9,-61,78,78,29,-48,-92,-87
-58,-87,-29,73,-14,-58,82,78,34,-48,-92,-87
-63,-87,-24,75,-19,-56,82,78,39,-48,-87,-87
-53,-78,-24,65,-14,-51,92,87,53,-34,-82,-87
-48,-78,-29,63,-9,-53,97,87,58,-29,-82,-82
-48,-78,-29,63,-9,-53,97,87,63,-29,-78,-82
-48,-78,-29,63,-9,-53,97,92,68,-29,-73,-82
-58,-78,-19,68,-19,-48,97,97,68,-29,-73,-92
-63,-82,-19,73,-21,-51,97,97,73,-19,-73,-92
-63,-87,-24,75,-19,-56,97,97,78,-19,-73,-92
-58,-92,-34,75,-12,-63,102,102,82,-19,-63,-92
-48,-87,-39,68,-4,-63,102,102,87,-9,-58,-78
-48,-82,-34,65,-7,-58,102,107,92,-4,-53,-78
-48,-78,-29,63,-9,-53,102,107,97,-4,-53,-73
-48,-68,-19,58,-14,-43,102,112,102,4,-53,-73
-58,-78,-19,68,-19,-48,102,102,97,-4,-53,-82
-58,-78,-19,68,-19,-48,102,102,97,-4,-58,-82
-58,-78,-19,68,-19,-48,107,107,97,-4,-58,-82
-58,-73,-14,65,-21,-43,107,107,107,0,-53,-82
-58,-63,-4,61,-26,-34,102,122,122,19,-53,-73
-53,-63,-9,58,-21,-36,102,122,126,19,-48,-68
-53,-63,-9,58,-21,-36,107,126,136,19,-48,-68
-53,-63,-9,58,-21,-36,107,126,141,19,-48,-68
-53,-68,-14,61,-19,-41,107,126,136,19,-39,-68
-58,-68,-9,63,-24,-39,107,131,136,29,-39,-63
-58,-68,-9,63,-24,-39,107,131,141,34,-39,-63
-53,-63,-9,58,-21,-36,107,136,146,34,-43,-63
-53,-53,0,53,-26,-26,107,136,165,43,-39,-63
-53,-53,0,53,-26,-26,112,141,170,48,-24,-63
-53,-53,0,53,-26,-26,112,146,175,48,-19,-58
