I, II, III, aVR, aVL, aVF, V1, V2, V3, V4, V5, V6
97,195,97,-146,0,146,429,692,810,488,273,97
97,195,97,-146,0,146,429,692,810,488,273,97
97,195,97,-146,0,146,429,692,810,488,273,97
97,195,97,-146,0,146,429,692,810,488,273,97
102,209,107,-156,-2,158,429,702,829,512,283,112
107,214,107,-161,0,161,429,712,849,527,292,117
112,219,107,-165,2,163,429,722,868,541,302,122
117,224,107,-170,4,165,429,732,888,556,312,126
126,239,112,-183,7,175,424,736,907,575,322,141
126,244,117,-185,4,180,419,741,917,585,331,146
126,248,122,-187,2,185,414,746,927,595,341,151
126,253,126,-190,0,190,409,751,936,605,351,156
126,258,131,-192,-2,195,400,746,946,610,356,161
126,263,136,-195,-4,200,390,741,946,614,361,165
126,268,141,-197,-7,204,380,736,946,619,366,170
126,273,146,-200,-9,209,370,732,946,624,370,175
136,278,141,-207,-2,209,361,722,941,634,375,185
136,283,146,-209,-4,214,351,712,936,634,380,185
136,287,151,-212,-7,219,341,702,932,634,385,185
136,292,156,-214,-9,224,331,692,927,634,390,185
126,292,165,-209,-19,229,317,673,897,619,380,195
126,292,165,-209,-19,229,302,653,878,614,380,195
126,292,165,-209,-19,229,287,634,858,610,380,195
126,292,165,-209,-19,229,273,614,839,605,380,195
126,292,165,-209,-19,229,258,590,810,590,366,195
126,292,165,-209,-19,229,244,566,780,575,361,195
126,292,165,-209,-19,229,229,541,751,561,356,195
126,292,165,-209,-19,229,214,517,722,546,351,195
117,283,165,-200,-24,224,195,488,688,527,341,185
117,283,165,-200,-24,224,185,458,653,507,331,185
117,283,165,-200,-24,224,175,429,619,488,322,185
117,283,165,-200,-24,224,165,400,585,468,312,185
117,268,151,-192,-17,209,146,366,546,444,292,175
117,263,146,-190,-14,204,136,341,507,419,283,175
117,258,141,-187,-12,200,126,317,468,395,273,175
117,253,136,-185,-9,195,117,292,429,370,263,175
102,244,141,-173,-19,192,102,268,395,336,239,161
97,234,136,-165,-19,185,97,244,361,312,224,156
92,224,131,-158,-19,178,92,219,326,287,209,151
87,214,126,-151,-19,170,87,195,292,263,195,146
82,195,112,-139,-14,153,82,170,263,234,180,131
78,185,107,-131,-14,146,78,156,234,214,165,126
73,175,102,-124,-14,139,73,141,204,195,151,122
68,165,97,-117,-14,131,68,126,175,175,136,117
53,156,102,-104,-24,129,58,107,156,151,117,107
48,146,97,-97,-24,122,58,97,136,136,107,97
43,136,92,-90,-24,114,58,87,117,122,97,87
39,126,87,-82,-24,107,58,78,97,107,87,78
34,112,78,-73,-21,95,48,68,82,92,78,63
29,107,78,-68,-24,92,48,58,68,78,68,58
24,102,78,-63,-26,90,48,48,53,63,58,53
19,97,78,-58,-29,87,48,39,39,48,48,48
19,92,73,-56,-26,82,39,34,29,39,34,43
19,87,68,-53,-24,78,39,29,19,29,29,39
19,82,63,-51,-21,73,39,24,9,19,24,34
19,78,58,-48,-19,68,39,19,0,9,19,29
9,73,63,-41,-26,68,48,9,-4,-4,14,24
9,68,58,-39,-24,63,48,9,-9,-9,9,19
9,63,53,-36,-21,58,48,9,-14,-14,4,14
9,58,48,-34,-19,53,48,9,-19,-19,0,9
9,48,39,-29,-14,43,48,9,-24,-19,-9,9
9,48,39,-29,-14,43,48,9,-29,-19,-9,9
9,48,39,-29,-14,43,48,9,-34,-19,-9,9
9,48,39,-29,-14,43,48,9,-39,-19,-9,9
0,39,39,-19,-19,39,48,0,-39,-29,-9,9
0,39,39,-19,-19,39,48,0,-39,-29,-9,9
0,39,39,-19,-19,39,48,0,-39,-29,-9,9
0,39,39,-19,-19,39,48,0,-39,-29,-9,9
9,39,29,-24,-9,34,48,0,-48,-29,0,9
9,39,29,-24,-9,34,48,0,-48,-29,0,9
9,39,29,-24,-9,34,48,0,-48,-29,0,9
9,39,29,-24,-9,34,48,0,-48,-29,0,9
9,48,39,-29,-14,43,48,0,-48,-39,-9,9
9,48,39,-29,-14,43,48,0,-48,-39,-9,9
9,48,39,-29,-14,43,48,0,-48,-39,-9,9
9,48,39,-29,-14,43,48,0,-48,-39,-9,9
9,43,34,-26,-12,39,48,-9,-58,-48,-19,9
9,39,29,-24,-9,34,48,-9,-58,-48,-19,9
9,34,24,-21,-7,29,48,-9,-58,-48,-19,9
9,29,19,-19,-4,24,48,-9,-58,-48,-19,9
9,29,19,-19,-4,24,48,0,-58,-48,-29,19
9,29,19,-19,-4,24,48,0,-58,-48,-29,19
9,29,19,-19,-4,24,48,0,-58,-48,-29,19
9,29,19,-19,-4,24,48,0,-58,-48,-29,19
9,39,29,-24,-9,34,39,0,-48,-48,-19,19
9,39,29,-24,-9,34,39,0,-48,-48,-19,19
9,39,29,-24,-9,34,39,0,-48,-48,-19,19
9,39,29,-24,-9,34,39,0,-48,-48,-19,19
0,34,34,-17,-17,34,48,0,-48,-48,-19,19
0,29,29,-14,-14,29,48,0,-48,-48,-19,19
0,24,24,-12,-12,24,48,0,-48,-48,-19,19
0,19,19,-9,-9,19,48,0,-48,-48,-19,19
0,19,19,-9,-9,19,39,0,-58,-48,-29,19
0,19,19,-9,-9,19,39,0,-58,-48,-29,19
0,19,19,-9,-9,19,39,0,-58,-48,-29,19
0,19,19,-9,-9,19,39,0,-58,-48,-29,19
-9,9,19,0,-14,14,39,0,-58,-58,-29,19
-9,9,19,0,-14,14,39,0,-58,-58,-29,19
-9,9,19,0,-14,14,39,0,-58,-58,-29,19
-9,9,19,0,-14,14,39,0,-58,-58,-29,19
-19,0,19,9,-19,9,39,0,-58,-58,-29,9
-19,0,19,9,-19,9,39,0,-58,-58,-29,9
-19,0,19,9,-19,9,39,0,-58,-58,-29,9
-19,0,19,9,-19,9,39,0,-58,-58,-29,9
-19,-9,9,14,-14,0,48,9,-48,-48,-39,9
-19,-9,9,14,-14,0,48,9,-48,-48,-39,9
-19,-9,9,14,-14,0,48,9,-48,-48,-39,9
-19,-9,9,14,-14,0,48,9,-48,-48,-39,9
-29,0,29,14,-29,14,39,9,-48,-48,-39,9
-29,0,29,14,-29,14,39,9,-48,-48,-39,9
-29,0,29,14,-29,14,39,9,-48,-48,-39,9
-29,0,29,14,-29,14,39,9,-48,-48,-39,9
-39,-9,29,24,-34,9,48,19,-48,-58,-48,0
-39,-9,29,24,-34,9,48,19,-48,-58,-48,0
-39,-9,29,24,-34,9,48,19,-48,-58,-48,0
-39,-9,29,24,-34,9,48,19,-48,-58,-48,0
-48,-14,34,31,-41,9,58,29,-43,-48,-39,0
-48,-19,29,34,-39,4,58,29,-39,-48,-39,0
-48,-24,24,36,-36,0,58,29,-34,-48,-39,0
-48,-29,19,39,-34,-4,58,29,-29,-48,-39,0
-48,-39,9,43,-29,-14,68,39,-19,-39,-39,0
-48,-39,9,43,-29,-14,68,39,-19,-39,-39,0
-48,-39,9,43,-29,-14,68,39,-19,-39,-39,0
-48,-39,9,43,-29,-14,68,39,-19,-39,-39,0
-58,-48,9,53,-34,-19,68,48,-9,-39,-39,-9
-58,-48,9,53,-34,-19,68,48,-9,-39,-39,-9
-58,-48,9,53,-34,-19,68,48,-9,-39,-39,-9
-58,-48,9,53,-34,-19,68,48,-9,-39,-39,-9
-68,-53,14,61,-41,-19,68,58,0,-39,-39,-9
-68,-58,9,63,-39,-24,68,58,0,-39,-39,-9
-68,-63,4,65,-36,-29,68,58,0,-39,-39,-9
-68,-68,0,68,-34,-34,68,58,0,-39,-39,-9
-68,-68,0,68,-34,-34,68,58,0,-29,-39,-19
-68,-68,0,68,-34,-34,68,58,0,-29,-39,-19
-68,-68,0,68,-34,-34,68,58,0,-29,-39,-19
-68,-68,0,68,-34,-34,68,58,0,-29,-39,-19
-68,-68,0,68,-34,-34,68,58,9,-29,-39,-19
-68,-68,0,68,-34,-34,68,58,9,-29,-39,-19
-68,-68,0,68,-34,-34,68,58,9,-29,-39,-19
-68,-68,0,68,-34,-34,68,58,9,-29,-39,-19
-68,-68,0,68,-34,-34,68,58,9,-29,-29,-9
-68,-68,0,68,-34,-34,68,58,9,-29,-29,-9
-68,-68,0,68,-34,-34,68,58,9,-29,-29,-9
-68,-68,0,68,-34,-34,68,58,9,-29,-29,-9
-78,-78,0,78,-39,-39,58,58,0,-29,-29,0
-78,-78,0,78,-39,-39,58,58,0,-29,-29,0
-78,-78,0,78,-39,-39,58,58,0,-29,-29,0
-78,-78,0,78,-39,-39,58,58,0,-29,-29,0
-78,-87,-9,82,-34,-48,48,48,-9,-29,-39,-9
-78,-87,-9,82,-34,-48,48,48,-9,-29,-39,-9
-78,-87,-9,82,-34,-48,48,48,-9,-29,-39,-9
-78,-87,-9,82,-34,-48,48,48,-9,-29,-39,-9
-78,-78,0,78,-39,-39,48,39,-19,-34,-48,0
-78,-78,0,78,-39,-39,48,39,-19,-39,-48,0
-78,-78,0,78,-39,-39,48,39,-19,-43,-48,0
-78,-78,0,78,-39,-39,48,39,-19,-48,-48,0
-68,-78,-9,73,-29,-43,39,29,-19,-39,-39,0
-68,-78,-9,73,-29,-43,39,29,-19,-39,-39,0
-68,-78,-9,73,-29,-43,39,29,-19,-39,-39,0
-68,-78,-9,73,-29,-43,39,29,-19,-39,-39,0
-78,-87,-9,82,-34,-48,29,19,-29,-48,-48,9
-78,-87,-9,82,-34,-48,29,19,-29,-48,-48,9
-78,-87,-9,82,-34,-48,29,19,-29,-48,-48,9
-78,-87,-9,82,-34,-48,29,19,-29,-48,-48,9
-68,-97,-29,82,-19,-63,39,19,-39,-58,-48,0
-68,-97,-29,82,-19,-63,39,19,-39,-58,-48,0
-68,-97,-29,82,-19,-63,39,19,-39,-58,-48,0
-68,-97,-29,82,-19,-63,39,19,-39,-58,-48,0
-68,-87,-19,78,-24,-53,29,14,-39,-48,-48,0
-68,-87,-19,78,-24,-53,29,9,-39,-48,-48,0
-68,-87,-19,78,-24,-53,29,4,-39,-48,-48,0
-68,-87,-19,78,-24,-53,29,0,-39,-48,-48,0
-68,-82,-14,75,-26,-48,19,0,-48,-58,-58,-9
-68,-78,-9,73,-29,-43,19,0,-48,-58,-58,-9
-68,-73,-4,70,-31,-39,19,0,-48,-58,-58,-9
-68,-68,0,68,-34,-34,19,0,-48,-58,-58,-9
-68,-73,-4,70,-31,-39,19,-9,-58,-58,-58,-9
-68,-73,-4,70,-31,-39,14,-9,-58,-58,-58,-9
-68,-73,-4,70,-31,-39,9,-14,-63,-58,-58,-9
-68,-73,-4,70,-31,-39,9,-14,-63,-58,-58,-14
-68,-78,-9,73,-29,-43,9,-4,-53,-58,-48,-4
-68,-82,-14,75,-26,-48,9,-4,-53,-68,-48,-4
-68,-87,-19,78,-24,-53,9,-9,-53,-68,-48,-4
-63,-97,-34,80,-14,-65,9,-9,-58,-68,-48,-4
-63,-107,-43,85,-9,-75,0,-9,-58,-68,-58,-4
-63,-102,-39,82,-12,-70,0,-9,-58,-68,-58,-4
-63,-102,-39,82,-12,-70,4,-9,-58,-68,-58,-4
-63,-102,-39,82,-12,-70,9,-9,-58,-68,-58,-4
-63,-92,-29,78,-17,-61,24,0,-48,-68,-48,-14
-63,-87,-24,75,-19,-56,24,4,-43,-68,-48,-14
-63,-82,-19,73,-21,-51,24,4,-43,-63,-48,-14
-58,-82,-24,70,-17,-53,24,4,-39,-63,-48,-14
-58,-92,-34,75,-12,-63,24,4,-48,-63,-58,-14
-48,-87,-39,68,-4,-63,24,14,-48,-63,-58,-14
-39,-87,-48,63,4,-68,24,14,-48,-63,-53,-9
-39,-82,-43,61,2,-63,24,14,-43,-63,-53,-9
-48,-82,-34,65,-7,-58,39,34,-34,-58,-48,-4
-48,-78,-29,63,-9,-53,43,34,-29,-48,-43,-4
-43,-68,-24,56,-9,-46,48,39,-19,-43,-39,4
-39,-63,-24,51,-7,-43,58,39,-14,-39,-34,9
-48,-48,0,48,-24,-24,53,43,0,-24,-19,19
-48,-43,4,46,-26,-19,58,43,4,-19,-19,19
-43,-39,4,41,-24,-17,63,43,9,-14,-14,19
-34,-29,4,31,-19,-12,63,48,14,-9,-9,29
-34,-29,4,31,-19,-12,63,39,14,-19,-14,19
-39,-19,19,29,-29,0,58,39,14,-19,-9,24
-39,-19,19,29,-29,0,48,39,9,-24,-9,34
-29,-9,19,19,-24,4,34,34,0,-34,-9,34
-29,-19,9,24,-19,-4,4,29,0,-24,-9,34
-29,-19,9,24,-19,-4,-9,14,-4,-24,-9,34
-24,-29,-4,26,-9,-17,-19,9,-14,-34,-9,34
-24,-34,-9,29,-7,-21,-34,9,-24,-39,-14,34
-29,-53,-24,41,-2,-39,-39,-9,-43,-39,-19,19
-34,-63,-29,48,-2,-46,-43,-19,-53,-43,-19,9
-48,-73,-24,61,-12,-48,-58,-29,-63,-48,-29,4
-58,-82,-24,70,-17,-53,-68,-43,-73,-63,-34,-4
-63,-82,-19,73,-21,-51,-68,-58,-78,-68,-48,0
-63,-78,-14,70,-24,-46,-73,-68,-82,-73,-53,0
-68,-73,-4,70,-31,-39,-73,-68,-87,-73,-53,0
-68,-68,0,68,-34,-34,-68,-68,-87,-73,-53,0
-68,-78,-9,73,-29,-43,-68,-68,-87,-73,-43,9
-68,-78,-9,73,-29,-43,-68,-68,-87,-68,-39,14
-68,-73,-4,70,-31,-39,-68,-68,-87,-68,-39,14
-68,-73,-4,70,-31,-39,-68,-68,-82,-68,-39,14
-68,-82,-14,75,-26,-48,-68,-68,-73,-68,-34,14
-68,-87,-19,78,-24,-53,-63,-63,-68,-63,-34,14
-68,-87,-19,78,-24,-53,-58,-58,-68,-53,-34,19
-68,-87,-19,78,-24,-53,-53,-53,-58,-53,-24,19
-78,-97,-19,87,-29,-58,-48,-48,-63,-53,-24,19
-82,-97,-14,90,-34,-56,-48,-48,-63,-53,-24,19
-87,-102,-14,95,-36,-58,-48,-48,-68,-53,-24,19
-92,-107,-14,100,-39,-61,-48,-48,-78,-63,-34,14
-102,-112,-9,107,-46,-61,-48,-68,-87,-78,-48,0
-107,-117,-9,112,-48,-63,-48,-68,-92,-82,-53,-4
-112,-131,-19,122,-46,-75,-43,-68,-102,-87,-63,-9
-117,-141,-24,129,-46,-82,-34,-68,-102,-102,-68,-14
-131,-151,-19,141,-56,-85,-29,-68,-92,-92,-73,-29
-151,-161,-9,156,-70,-85,-24,-68,-97,-92,-78,-34
-151,-170,-19,161,-65,-95,-19,-68,-97,-102,-92,-48
-156,-180,-24,168,-65,-102,-14,-68,-97,-107,-92,-48
-165,-180,-14,173,-75,-97,-9,-58,-97,-122,-107,-63
-170,-180,-9,175,-80,-95,-9,-58,-107,-122,-112,-63
-170,-180,-9,175,-80,-95,-9,-63,-112,-126,-112,-68
-170,-185,-14,178,-78,-100,-9,-63,-112,-131,-112,-68
-170,-195,-24,183,-73,-109,-9,-73,-122,-131,-102,-58
-170,-195,-24,183,-73,-109,-9,-73,-122,-131,-102,-63
-175,-195,-19,185,-78,-107,-9,-73,-122,-131,-102,-63
-175,-195,-19,185,-78,-107,-9,-73,-122,-131,-102,-63
-156,-195,-39,175,-58,-117,-9,-73,-122,-122,-102,-53
-170,-195,-24,183,-73,-109,-9,-73,-126,-136,-112,-53
-170,-200,-29,185,-70,-114,0,-73,-117,-131,-117,-73
-170,-200,-29,185,-70,-114,4,-63,-107,-136,-122,-78
-195,-195,0,195,-97,-97,19,-58,-112,-161,-141,-92
-219,-209,9,214,-114,-100,48,-48,-102,-180,-161,-102
-244,-234,9,239,-126,-112,87,-34,-78,-200,-185,-122
-263,-234,29,248,-146,-102,126,-24,-63,-200,-204,-136
-278,-224,53,251,-165,-85,161,-4,-39,-200,-204,-146
-302,-209,92,256,-197,-58,190,4,-9,-180,-195,-141
-312,-190,122,251,-217,-34,195,4,24,-161,-190,-141
-312,-161,151,236,-231,-4,209,0,73,-136,-180,-126
-312,-126,185,219,-248,29,219,24,112,-117,-165,-117
-312,-92,219,202,-265,63,244,63,170,-102,-151,-112
-331,-39,292,185,-312,126,273,92,224,-87,-146,-117
-341,0,341,170,-341,170,283,92,234,-92,-146,-112
-351,43,395,153,-373,219,248,58,204,-87,-141,-117
-331,97,429,117,-380,263,165,-29,151,-78,-122,-102
-307,175,483,65,-395,329,63,-151,87,-48,-92,-82
-268,278,546,-4,-407,412,-87,-322,34,19,-43,-29
-214,419,634,-102,-424,527,-297,-531,-39,122,58,53
-131,570,702,-219,-417,636,-551,-775,-122,244,165,165
-48,673,722,-312,-385,697,-795,-1019,-224,341,273,244
34,736,702,-385,-334,719,-1034,-1254,-336,429,361,322
112,785,673,-448,-280,729,-1268,-1483,-463,478,429,405
209,858,649,-534,-219,753,-1483,-1712,-580,527,512,483
287,893,605,-590,-158,749,-1668,-1888,-653,570,566,551
341,849,507,-595,-82,678,-1761,-1956,-717,556,585,580
380,741,361,-561,9,551,-1810,-1961,-824,488,566,590
429,649,219,-539,104,434,-1883,-1986,-971,375,527,600
492,595,102,-544,195,348,-1995,-2049,-1200,244,502,610
536,541,4,-539,265,273,-2074,-2108,-1493,68,444,610
570,448,-122,-509,346,163,-2078,-2093,-1771,-165,341,585
590,287,-302,-439,446,-7,-1995,-1995,-1966,-395,214,527
600,107,-492,-353,546,-192,-1864,-1844,-1986,-551,102,458
610,-53,-663,-278,636,-358,-1717,-1639,-1927,-644,14,395
619,-244,-863,-187,741,-553,-1527,-1405,-1810,-702,-68,326
619,-453,-1073,-82,846,-763,-1307,-1137,-1664,-702,-126,263
619,-624,-1244,2,932,-934,-1102,-883,-1493,-673,-156,224
590,-697,-1288,53,939,-993,-932,-678,-1312,-619,-146,195
566,-683,-1249,58,907,-966,-795,-522,-1141,-541,-117,200
546,-614,-1161,34,854,-888,-678,-395,-946,-424,-53,224
512,-527,-1039,7,775,-783,-585,-312,-800,-331,-4,253
473,-473,-946,0,710,-710,-507,-283,-712,-297,4,253
429,-468,-897,19,663,-683,-458,-258,-653,-287,-24,224
370,-463,-834,46,602,-649,-400,-239,-595,-287,-58,185
312,-463,-775,75,544,-619,-356,-229,-546,-283,-82,136
263,-448,-712,92,488,-580,-322,-219,-522,-297,-102,102
219,-444,-663,112,441,-553,-287,-219,-502,-307,-122,78
156,-439,-595,141,375,-517,-253,-214,-458,-312,-146,48
82,-439,-522,178,302,-480,-209,-200,-419,-307,-156,19
39,-419,-458,190,248,-439,-175,-175,-385,-297,-175,-9
-4,-395,-390,200,192,-392,-146,-156,-341,-287,-185,-34
-39,-370,-331,204,146,-351,-112,-141,-302,-263,-185,-48
-78,-351,-273,214,97,-312,-73,-112,-258,-239,-185,-68
-112,-341,-229,226,58,-285,-48,-73,-214,-219,-175,-78
-151,-336,-185,244,17,-261,-14,-39,-170,-190,-161,-73
-165,-326,-161,246,-2,-244,14,-19,-131,-161,-146,-68
-180,-312,-131,246,-24,-222,29,0,-117,-146,-136,-73
-190,-307,-117,248,-36,-212,29,0,-102,-146,-136,-73
-180,-312,-131,246,-24,-222,29,4,-107,-151,-136,-78
-180,-312,-131,246,-24,-222,29,9,-97,-156,-136,-78
-180,-312,-131,246,-24,-222,34,14,-92,-156,-136,-78
-185,-312,-126,248,-29,-219,39,19,-87,-161,-131,-78
-195,-307,-112,251,-41,-209,43,19,-92,-151,-131,-87
-204,-307,-102,256,-51,-204,43,19,-87,-146,-131,-87
-214,-307,-92,261,-61,-200,48,19,-87,-146,-136,-87
-224,-307,-82,265,-70,-195,48,24,-87,-151,-136,-87
-219,-307,-87,263,-65,-197,39,24,-73,-151,-136,-102
-219,-307,-87,263,-65,-197,39,24,-73,-146,-136,-102
-219,-307,-87,263,-65,-197,43,24,-73,-146,-136,-97
-229,-312,-82,270,-73,-197,43,24,-68,-146,-141,-97
-239,-322,-82,280,-78,-202,48,24,-63,-136,-141,-87
-244,-322,-78,283,-82,-200,48,24,-63,-136,-141,-82
-244,-326,-82,285,-80,-204,48,24,-58,-136,-141,-82
-244,-326,-82,285,-80,-204,48,24,-58,-136,-141,-82
-234,-322,-87,278,-73,-204,48,24,-63,-146,-141,-82
-234,-322,-87,278,-73,-204,48,24,-63,-146,-141,-78
-239,-322,-82,280,-78,-202,43,24,-58,-146,-141,-73
-239,-322,-82,280,-78,-202,43,24,-53,-146,-141,-73
-239,-322,-82,280,-78,-202,43,19,-58,-151,-141,-82
-239,-322,-82,280,-78,-202,39,19,-58,-151,-141,-82
-239,-322,-82,280,-78,-202,34,24,-58,-151,-141,-82
-239,-322,-82,280,-78,-202,34,24,-53,-151,-141,-82
-248,-317,-68,283,-90,-192,39,24,-63,-146,-151,-82
-244,-317,-73,280,-85,-195,39,24,-58,-141,-146,-78
-244,-312,-68,278,-87,-190,39,29,-48,-141,-146,-78
-239,-312,-73,275,-82,-192,43,29,-43,-141,-141,-73
-239,-312,-73,275,-82,-192,53,34,-43,-136,-151,-82
-234,-312,-78,273,-78,-195,53,39,-43,-131,-151,-82
-234,-312,-78,273,-78,-195,53,39,-34,-126,-141,-82
-229,-312,-82,270,-73,-197,53,43,-29,-126,-141,-87
-229,-302,-73,265,-78,-187,53,43,-24,-117,-136,-92
-229,-302,-73,265,-78,-187,53,43,-19,-107,-126,-87
-229,-297,-68,263,-80,-183,53,43,-19,-107,-122,-92
-229,-297,-68,263,-80,-183,53,43,-14,-107,-117,-92
-229,-307,-78,268,-75,-192,63,58,-9,-117,-122,-97
-229,-307,-78,268,-75,-192,68,63,-4,-117,-122,-97
-229,-307,-78,268,-75,-192,68,63,0,-107,-117,-102
-229,-307,-78,268,-75,-192,68,63,4,-107,-117,-102
-239,-297,-58,268,-90,-178,63,63,4,-97,-126,-117
-248,-297,-48,273,-100,-173,63,63,9,-97,-122,-117
-248,-297,-48,273,-100,-173,68,73,14,-92,-117,-117
-239,-297,-58,268,-90,-178,68,78,24,-82,-117,-117
-239,-287,-48,263,-95,-168,73,68,29,-87,-107,-117
-244,-287,-43,265,-100,-165,82,73,34,-82,-107,-117
-244,-287,-43,265,-100,-165,82,78,34,-78,-102,-117
-239,-283,-43,261,-97,-163,82,82,39,-73,-102,-117
-248,-292,-43,270,-102,-168,92,87,48,-68,-107,-122
-248,-292,-43,270,-102,-168,92,92,63,-63,-107,-122
-244,-292,-48,268,-97,-170,92,97,68,-58,-97,-117
-244,-287,-43,265,-100,-165,97,102,78,-48,-92,-117
-244,-278,-34,261,-104,-156,92,112,92,-34,-87,-107
-239,-278,-39,258,-100,-158,92,117,107,-29,-82,-102
-234,-273,-39,253,-97,-156,97,131,117,-19,-78,-102
-229,-273,-43,251,-92,-158,97,141,131,-9,-73,-97
-234,-273,-39,253,-97,-156,102,141,141,-4,-63,-102
-224,-273,-48,248,-87,-161,107,156,156,4,-58,-97
-219,-268,-48,244,-85,-158,112,165,175,14,-48,-92
-214,-263,-48,239,-82,-156,117,175,190,29,-43,-87
-219,-258,-39,239,-90,-148,117,180,204,43,-29,-82
-214,-258,-43,236,-85,-151,122,190,224,53,-19,-78
-214,-253,-39,234,-87,-146,126,209,244,73,-14,-73
-209,-253,-43,231,-82,-148,136,224,268,87,-4,-68
-200,-248,-48,224,-75,-148,131,234,278,107,4,-58
-190,-239,-48,214,-70,-143,136,248,302,126,14,-58
-180,-229,-48,204,-65,-139,151,268,331,146,24,-53
-180,-219,-39,200,-70,-129,151,283,356,165,34,-48
-165,-200,-34,183,-65,-117,156,287,390,175,48,-48
-161,-190,-29,175,-65,-109,161,312,419,195,58,-34
-151,-185,-34,168,-58,-109,170,322,444,214,73,-29
-151,-175,-24,163,-63,-100,175,346,478,244,82,-19
-146,-180,-34,163,-56,-107,180,375,497,258,92,-9
-136,-175,-39,156,-48,-107,190,395,536,287,112,4
-136,-165,-29,151,-53,-97,195,409,566,307,126,19
-126,-151,-24,139,-51,-87,200,429,595,326,136,34
-126,-151,-24,139,-51,-87,204,448,624,356,151,39
-126,-141,-14,134,-56,-78,204,458,663,380,165,39
-122,-136,-14,129,-53,-75,209,478,688,405,180,48
-126,-136,-9,131,-58,-73,219,492,717,424,195,63
-126,-117,9,122,-68,-53,209,502,736,439,214,73
-122,-107,14,114,-68,-46,209,517,756,458,229,78
-107,-97,9,102,-58,-43,209,527,780,478,239,87
-97,-92,4,95,-51,-43,209,536,800,488,248,92
-92,-82,9,87,-51,-36,219,556,829,517,248,92
-92,-73,19,82,-56,-26,219,566,849,536,263,102
-92,-68,24,80,-58,-21,214,566,868,546,268,112
-87,-58,29,73,-58,-14,209,575,878,561,278,117
-78,-34,43,56,-61,4,209,566,883,575,287,117
-78,-34,43,56,-61,4,204,566,893,585,297,122
-78,-29,48,53,-63,9,200,566,893,590,307,126
-73,-24,48,48,-61,12,195,566,897,600,312,131
-73,-24,48,48,-61,12,190,561,897,600,317,122
-68,-19,48,43,-58,14,180,556,897,605,322,131
-68,-14,53,41,-61,19,170,546,888,610,326,136
-68,-9,58,39,-63,24,165,536,873,610,326,141
-58,0,58,29,-58,29,151,527,863,605,331,141
-58,0,58,29,-58,29,141,512,844,595,331,141
-58,0,58,29,-58,29,131,497,829,590,331,146
-53,9,63,21,-58,36,117,478,805,580,331,146
-53,4,58,24,-56,31,107,458,775,556,317,136
-58,9,68,24,-63,39,92,439,751,546,312,136
-58,14,73,21,-65,43,73,419,717,531,307,136
-58,19,78,19,-68,48,63,390,683,507,292,136
-58,9,68,24,-63,39,53,366,658,492,297,146
-58,4,63,26,-61,34,48,341,614,473,287,141
-68,0,68,34,-68,34,43,317,580,453,278,136
-73,-14,58,43,-65,21,39,292,536,434,258,131
-87,-24,63,56,-75,19,34,268,497,414,253,126
-87,-34,53,61,-70,9,19,244,453,380,239,122
-87,-43,43,65,-65,0,9,219,419,361,229,117
-92,-53,39,73,-65,-7,0,195,380,336,214,112
-102,-63,39,82,-70,-12,-9,161,331,302,195,97
-107,-63,43,85,-75,-9,-19,136,297,278,175,97
-112,-73,39,92,-75,-17,-24,112,258,244,156,92
-117,-82,34,100,-75,-24,-29,97,229,209,136,82
-122,-82,39,102,-80,-21,-39,78,195,180,102,68
-126,-87,39,107,-82,-24,-43,58,165,156,87,58
-131,-102,29,117,-80,-36,-48,39,136,141,78,53
-136,-112,24,124,-80,-43,-53,29,107,112,63,48
-141,-131,9,136,-75,-61,-58,4,78,87,48,48
-151,-141,9,146,-80,-65,-63,-9,53,68,34,39
-156,-151,4,153,-80,-73,-63,-24,34,48,24,29
-161,-161,0,161,-80,-80,-63,-39,9,34,9,19
-165,-156,9,161,-87,-73,-63,-34,-14,14,-4,4
-165,-165,0,165,-82,-82,-63,-43,-29,0,-19,0
-170,-170,0,170,-85,-85,-68,-53,-39,-19,-29,0
-170,-175,-4,173,-82,-90,-68,-63,-53,-39,-39,-9
-180,-180,0,180,-90,-90,-68,-63,-68,-53,-39,-14
-185,-185,0,185,-92,-92,-68,-68,-82,-58,-43,-19
-185,-195,-9,190,-87,-102,-63,-73,-87,-68,-48,-29
-185,-204,-19,195,-82,-112,-63,-78,-97,-78,-53,-34
-180,-204,-24,192,-78,-114,-63,-78,-97,-78,-48,-24
-180,-204,-24,192,-78,-114,-63,-78,-97,-82,-53,-24
-180,-214,-34,197,-73,-124,-63,-82,-102,-87,-63,-24
-180,-214,-34,197,-73,-124,-63,-82,-112,-92,-68,-19
-180,-214,-34,197,-73,-124,-63,-78,-107,-97,-68,-24
-180,-214,-34,197,-73,-124,-58,-78,-107,-102,-73,-29
-180,-224,-43,202,-68,-134,-58,-82,-112,-107,-73,-34
-180,-224,-43,202,-68,-134,-58,-82,-117,-107,-73,-39
-195,-224,-29,209,-82,-126,-58,-92,-126,-107,-78,-48
-195,-224,-29,209,-82,-126,-58,-92,-126,-107,-78,-53
-190,-224,-34,207,-78,-129,-58,-87,-126,-107,-78,-53
-190,-224,-34,207,-78,-129,-58,-87,-131,-112,-78,-53
-185,-219,-34,202,-75,-126,-63,-92,-131,-126,-92,-63
-185,-214,-29,200,-78,-122,-63,-92,-131,-126,-92,-63
-185,-214,-29,200,-78,-122,-63,-92,-131,-126,-92,-58
-185,-209,-24,197,-80,-117,-63,-92,-131,-126,-92,-58
-180,-219,-39,200,-70,-129,-53,-92,-141,-117,-92,-53
-180,-214,-34,197,-73,-124,-53,-92,-141,-122,-87,-48
-175,-214,-39,195,-68,-126,-53,-92,-141,-122,-87,-43
-175,-209,-34,192,-70,-122,-53,-92,-141,-122,-87,-39
-165,-219,-53,192,-56,-136,-53,-92,-141,-136,-87,-29
-165,-219,-53,192,-56,-136,-53,-92,-141,-136,-87,-29
-165,-224,-58,195,-53,-141,-53,-92,-146,-131,-87,-34
-170,-234,-63,202,-53,-148,-53,-92,-151,-131,-87,-34
-185,-244,-58,214,-63,-151,-53,-92,-141,-122,-87,-39
-185,-244,-58,214,-63,-151,-53,-92,-136,-122,-87,-39
-175,-239,-63,207,-56,-151,-53,-92,-136,-122,-87,-39
-170,-234,-63,202,-53,-148,-53,-92,-136,-122,-87,-39
-180,-234,-53,207,-63,-143,-63,-102,-141,-131,-92,-39
-180,-239,-58,209,-61,-148,-63,-97,-141,-136,-97,-39
-180,-239,-58,209,-61,-148,-63,-97,-146,-141,-102,-39
-180,-234,-53,207,-63,-143,-63,-97,-156,-141,-107,-39
-180,-244,-63,212,-58,-153,-53,-87,-165,-151,-117,-48
-180,-248,-68,214,-56,-158,-53,-87,-161,-156,-117,-48
-185,-248,-63,217,-61,-156,-53,-87,-161,-156,-117,-48
-185,-248,-63,217,-61,-156,-53,-87,-161,-156,-117,-48
-185,-239,-53,212,-65,-146,-58,-97,-161,-146,-107,-58
-190,-244,-53,217,-68,-148,-58,-97,-161,-146,-107,-58
-190,-244,-53,217,-68,-148,-58,-97,-161,-146,-107,-58
-190,-244,-53,217,-68,-148,-58,-97,-161,-146,-107,-58
-200,-253,-53,226,-73,-153,-68,-87,-161,-156,-117,-58
-209,-253,-43,231,-82,-148,-68,-87,-161,-156,-117,-58
-209,-253,-43,231,-82,-148,-68,-92,-161,-156,-117,-58
-209,-253,-43,231,-82,-148,-73,-92,-161,-156,-117,-58
-219,-268,-48,244,-85,-158,-73,-102,-161,-156,-126,-68
-219,-268,-48,244,-85,-158,-73,-97,-161,-161,-126,-73
-219,-268,-48,244,-85,-158,-73,-92,-165,-161,-126,-73
-229,-268,-39,248,-95,-153,-68,-92,-165,-161,-126,-73
-219,-273,-53,246,-82,-163,-58,-97,-156,-165,-122,-68
-219,-278,-58,248,-80,-168,-58,-97,-156,-165,-122,-68
-224,-278,-53,251,-85,-165,-58,-92,-156,-161,-122,-68
-224,-278,-53,251,-85,-165,-58,-87,-156,-161,-122,-68
-224,-283,-58,253,-82,-170,-53,-87,-156,-156,-112,-63
-224,-287,-63,256,-80,-175,-53,-87,-151,-156,-112,-63
-229,-292,-63,261,-82,-178,-53,-87,-151,-151,-112,-63
-229,-297,-68,263,-80,-183,-53,-87,-151,-146,-112,-63
-239,-302,-63,270,-87,-183,-63,-87,-151,-146,-112,-73
-244,-302,-58,273,-92,-180,-58,-82,-146,-146,-112,-78
-244,-307,-63,275,-90,-185,-58,-82,-146,-146,-112,-78
-244,-307,-63,275,-90,-185,-53,-82,-141,-146,-117,-73
-244,-297,-53,270,-95,-175,-63,-82,-146,-141,-117,-68
-244,-297,-53,270,-95,-175,-58,-73,-146,-141,-117,-68
-244,-297,-53,270,-95,-175,-58,-73,-146,-141,-117,-73
-244,-297,-53,270,-95,-175,-58,-73,-136,-136,-117,-73
-244,-297,-53,270,-95,-175,-58,-68,-131,-141,-107,-63
-248,-297,-48,273,-100,-173,-53,-68,-126,-141,-107,-63
-248,-297,-48,273,-100,-173,-48,-63,-126,-141,-107,-63
-248,-302,-53,275,-97,-178,-43,-58,-122,-141,-102,-63
-239,-312,-73,275,-82,-192,-48,-48,-112,-136,-112,-63
-239,-307,-68,273,-85,-187,-48,-43,-107,-131,-112,-63
-239,-307,-68,273,-85,-187,-48,-43,-107,-131,-107,-63
-239,-307,-68,273,-85,-187,-43,-43,-107,-131,-107,-63
-253,-307,-53,280,-100,-180,-34,-39,-102,-122,-107,-68
-253,-312,-58,283,-97,-185,-34,-39,-97,-117,-107,-68
-253,-322,-68,287,-92,-195,-34,-39,-97,-117,-107,-68
-253,-312,-58,283,-97,-185,-29,-39,-92,-112,-107,-68
-244,-302,-58,273,-92,-180,-34,-34,-82,-102,-97,-68
-244,-297,-53,270,-95,-175,-34,-29,-82,-102,-97,-68
-244,-292,-48,268,-97,-170,-39,-29,-78,-102,-97,-68
-244,-292,-48,268,-97,-170,-43,-29,-78,-102,-97,-68
-244,-283,-39,263,-102,-161,-34,-24,-78,-102,-87,-68
-239,-278,-39,258,-100,-158,-34,-24,-73,-102,-87,-68
-239,-278,-39,258,-100,-158,-34,-24,-68,-102,-87,-68
-239,-278,-39,258,-100,-158,-34,-24,-68,-97,-87,-68
-234,-287,-53,261,-90,-170,-34,-24,-78,-102,-92,-58
-234,-287,-53,261,-90,-170,-34,-19,-78,-102,-92,-58
-234,-287,-53,261,-90,-170,-34,-19,-73,-102,-92,-53
-229,-287,-58,258,-85,-173,-34,-14,-73,-102,-92,-53
-239,-297,-58,268,-90,-178,-29,-24,-63,-92,-87,-53
-239,-292,-53,265,-92,-173,-29,-24,-63,-92,-87,-53
-234,-292,-58,263,-87,-175,-29,-24,-68,-92,-87,-53
-234,-292,-58,263,-87,-175,-29,-24,-68,-92,-87,-53
-234,-287,-53,261,-90,-170,-39,-19,-68,-82,-87,-58
-234,-287,-53,261,-90,-170,-39,-19,-68,-82,-92,-58
-229,-287,-58,258,-85,-173,-34,-19,-68,-82,-92,-58
-229,-292,-63,261,-82,-178,-34,-24,-68,-82,-92,-53
-234,-283,-48,258,-92,-165,-39,-24,-82,-87,-97,-58
-234,-278,-43,256,-95,-161,-39,-24,-82,-92,-97,-63
-234,-273,-39,253,-97,-156,-39,-24,-82,-97,-97,-68
-234,-273,-39,253,-97,-156,-39,-24,-87,-102,-97,-73
-224,-263,-39,244,-92,-151,-48,-34,-87,-107,-87,-63
-224,-263,-39,244,-92,-151,-48,-34,-87,-107,-92,-58
-224,-263,-39,244,-92,-151,-48,-39,-87,-107,-92,-58
-224,-258,-34,241,-95,-146,-48,-39,-92,-107,-92,-58
-234,-268,-34,251,-100,-151,-39,-39,-97,-107,-92,-58
-234,-278,-43,256,-95,-161,-39,-48,-102,-117,-97,-58
-234,-287,-53,261,-90,-170,-39,-48,-102,-117,-97,-58
-234,-297,-63,265,-85,-180,-39,-48,-102,-117,-97,-58
-239,-297,-58,268,-90,-178,-48,-48,-112,-126,-102,-68
-244,-297,-53,270,-95,-175,-48,-48,-112,-126,-107,-68
-248,-297,-48,273,-100,-173,-48,-53,-117,-126,-112,-68
-248,-292,-43,270,-102,-168,-48,-53,-117,-126,-117,-68
-244,-292,-48,268,-97,-170,-39,-53,-122,-126,-117,-68
-239,-287,-48,263,-95,-168,-39,-53,-122,-126,-117,-68
-234,-287,-53,261,-90,-170,-43,-58,-126,-131,-112,-68
-229,-287,-58,258,-85,-173,-43,-58,-126,-131,-112,-68
-239,-297,-58,268,-90,-178,-39,-48,-126,-122,-107,-58
-229,-307,-78,268,-75,-192,-43,-43,-126,-122,-107,-58
-229,-307,-78,268,-75,-192,-43,-53,-126,-126,-102,-58
-239,-302,-63,270,-87,-183,-39,-63,-131,-126,-102,-58
-234,-292,-58,263,-87,-175,-48,-58,-126,-117,-97,-58
-234,-292,-58,263,-87,-175,-48,-68,-136,-131,-102,-63
-234,-292,-58,263,-87,-175,-48,-68,-136,-136,-107,-68
-234,-292,-58,263,-87,-175,-48,-68,-136,-141,-112,-73
-234,-292,-58,263,-87,-175,-48,-68,-136,-146,-117,-78
-234,-302,-68,268,-82,-185,-48,-58,-136,-136,-117,-68
-234,-297,-63,265,-85,-180,-48,-58,-136,-136,-117,-68
-234,-297,-63,265,-85,-180,-53,-58,-136,-136,-117,-68
-234,-297,-63,265,-85,-180,-58,-63,-141,-136,-117,-68
-234,-297,-63,265,-85,-180,-58,-73,-151,-146,-117,-73
-234,-297,-63,265,-85,-180,-58,-73,-151,-146,-117,-73
-234,-297,-63,265,-85,-180,-58,-73,-151,-156,-117,-73
-234,-297,-63,265,-85,-180,-58,-78,-151,-156,-117,-73
-239,-302,-63,270,-87,-183,-68,-78,-156,-156,-126,-73
-239,-302,-63,270,-87,-183,-68,-78,-156,-156,-126,-73
-239,-297,-58,268,-90,-178,-68,-78,-156,-156,-126,-73
-239,-297,-58,268,-90,-178,-63,-78,-156,-156,-126,-73
-248,-302,-53,275,-97,-178,-48,-78,-146,-156,-126,-82
-248,-307,-58,278,-95,-183,-43,-68,-146,-156,-126,-82
-248,-307,-58,278,-95,-183,-43,-63,-141,-156,-126,-82
-248,-307,-58,278,-95,-183,-43,-63,-141,-151,-126,-82
-244,-307,-63,275,-90,-185,-53,-63,-141,-161,-136,-82
-244,-307,-63,275,-90,-185,-53,-63,-146,-161,-136,-82
-234,-302,-68,268,-82,-185,-53,-53,-151,-161,-136,-82
-224,-302,-78,263,-73,-190,-53,-53,-156,-161,-131,-78
-229,-302,-73,265,-78,-187,-53,-63,-151,-151,-122,-78
-234,-307,-73,270,-80,-190,-48,-53,-141,-146,-117,-73
-239,-307,-68,273,-85,-187,-43,-53,-136,-136,-112,-73
-239,-302,-63,270,-87,-183,-39,-48,-126,-131,-107,-63
-244,-307,-63,275,-90,-185,-39,-48,-131,-131,-112,-68
-244,-302,-58,273,-92,-180,-34,-43,-126,-131,-107,-68
-244,-297,-53,270,-95,-175,-29,-43,-122,-131,-107,-68
-239,-292,-53,265,-92,-173,-24,-43,-117,-131,-102,-68
-219,-273,-53,246,-82,-163,-14,-39,-102,-122,-97,-58
-219,-263,-43,241,-87,-153,-14,-39,-97,-112,-92,-58
-224,-253,-29,239,-97,-141,-19,-39,-92,-102,-87,-53
-224,-253,-29,239,-97,-141,-29,-39,-92,-97,-87,-43
-219,-253,-34,236,-92,-143,-34,-43,-97,-112,-87,-43
-224,-253,-29,239,-97,-141,-53,-48,-107,-112,-87,-43
-229,-253,-24,241,-102,-139,-68,-63,-112,-112,-87,-43
-229,-263,-34,246,-97,-148,-78,-68,-122,-122,-87,-43
-219,-258,-39,239,-90,-148,-102,-68,-122,-126,-92,-34
-219,-268,-48,244,-85,-158,-107,-78,-131,-126,-97,-43
-219,-278,-58,248,-80,-168,-112,-87,-141,-131,-97,-48
-229,-287,-58,258,-85,-173,-126,-97,-151,-136,-107,-48
-244,-307,-63,275,-90,-185,-126,-112,-170,-161,-122,-63
-258,-312,-53,285,-102,-183,-126,-126,-175,-165,-126,-68
-258,-312,-53,285,-102,-183,-131,-136,-180,-170,-131,-68
-263,-312,-48,287,-107,-180,-131,-136,-185,-170,-131,-68
-263,-312,-48,287,-107,-180,-131,-136,-185,-161,-122,-68
-263,-312,-48,287,-107,-180,-136,-136,-185,-161,-122,-58
-263,-312,-48,287,-107,-180,-141,-136,-185,-156,-117,-53
-263,-307,-43,285,-109,-175,-146,-136,-185,-156,-117,-53
-253,-307,-53,280,-100,-180,-146,-136,-180,-156,-117,-53
-253,-307,-53,280,-100,-180,-146,-136,-180,-156,-112,-53
-253,-312,-58,283,-97,-185,-141,-131,-175,-151,-112,-53
-253,-312,-58,283,-97,-185,-136,-126,-175,-141,-112,-48
-263,-302,-39,283,-112,-170,-122,-122,-165,-141,-102,-48
-263,-302,-39,283,-112,-170,-117,-117,-161,-141,-102,-48
-268,-302,-34,285,-117,-168,-117,-117,-161,-141,-102,-48
-273,-307,-34,290,-119,-170,-117,-117,-165,-141,-102,-48
-268,-312,-43,290,-112,-178,-117,-117,-175,-141,-102,-53
-268,-317,-48,292,-109,-183,-117,-126,-175,-146,-107,-58
-273,-322,-48,297,-112,-185,-117,-126,-180,-151,-112,-63
-278,-336,-58,307,-109,-197,-112,-126,-190,-156,-122,-68
-273,-341,-68,307,-102,-204,-102,-136,-200,-180,-136,-73
-287,-346,-58,317,-114,-202,-97,-136,-200,-180,-141,-78
-307,-351,-43,329,-131,-197,-92,-136,-204,-180,-146,-82
-307,-356,-48,331,-129,-202,-87,-136,-204,-190,-161,-97
-312,-375,-63,344,-124,-219,-82,-126,-204,-195,-161,-107
-312,-375,-63,344,-124,-219,-78,-126,-204,-200,-165,-112
-317,-375,-58,346,-129,-217,-78,-126,-214,-200,-170,-112
-317,-375,-58,346,-129,-217,-78,-131,-219,-204,-170,-117
-307,-370,-63,339,-122,-217,-87,-122,-209,-209,-170,-117
-307,-370,-63,339,-122,-217,-87,-122,-209,-209,-170,-117
-307,-370,-63,339,-122,-217,-87,-122,-209,-209,-170,-122
-312,-370,-58,341,-126,-214,-87,-122,-209,-209,-170,-122
-302,-370,-68,336,-117,-219,-78,-122,-209,-209,-170,-112
-302,-370,-68,336,-117,-219,-78,-122,-209,-209,-170,-112
-307,-370,-63,339,-122,-217,-78,-122,-214,-214,-180,-112
-307,-375,-68,341,-119,-222,-68,-122,-214,-219,-185,-122
-307,-375,-68,341,-119,-222,-73,-122,-204,-204,-180,-126
-312,-370,-58,341,-126,-214,-48,-117,-200,-209,-180,-141
-326,-366,-39,346,-143,-202,-19,-107,-190,-229,-200,-151
-361,-380,-19,370,-170,-200,19,-92,-175,-258,-224,-170
-400,-390,9,395,-204,-190,48,-92,-161,-287,-263,-204
-424,-380,43,402,-234,-168,73,-82,-156,-297,-283,-214
-419,-366,53,392,-236,-156,102,-73,-126,-297,-283,-219
-439,-336,102,387,-270,-117,117,-73,-92,-287,-278,-219
-448,-307,141,378,-295,-82,122,-78,-63,-263,-268,-214
-429,-263,165,346,-297,-48,131,-53,-14,-234,-253,-204
-429,-229,200,329,-314,-14,156,-14,34,-209,-248,-200
-439,-175,263,307,-351,43,185,14,87,-195,-234,-204
-439,-107,331,273,-385,112,185,4,107,-190,-224,-200
-439,-53,385,246,-412,165,151,-29,78,-195,-219,-185
-429,0,429,214,-429,214,87,-97,24,-185,-209,-180
-405,68,473,168,-439,270,4,-190,-19,-146,-180,-141
-366,180,546,92,-456,363,-146,-331,-82,-68,-122,-97
-302,341,644,-19,-473,492,-375,-531,-156,43,-19,-14
-229,492,722,-131,-475,607,-610,-736,-239,165,87,78
-156,585,741,-214,-448,663,-844,-932,-331,273,195,165
-63,658,722,-297,-392,690,-1063,-1127,-444,370,292,244
14,697,683,-356,-334,690,-1278,-1346,-570,458,380,326
82,751,668,-417,-292,710,-1493,-1566,-697,546,463,414
161,785,624,-473,-231,705,-1659,-1712,-780,610,536,483
204,741,536,-473,-165,639,-1742,-1771,-834,624,556,512
253,653,400,-453,-73,527,-1800,-1805,-941,546,546,522
302,580,278,-441,12,429,-1883,-1849,-1127,414,507,531
346,517,170,-431,87,344,-1966,-1912,-1376,253,463,541
380,463,82,-422,148,273,-2034,-1961,-1668,48,395,551
424,351,-73,-387,248,139,-2030,-1937,-1947,-204,302,527
444,170,-273,-307,358,-51,-1937,-1830,-2122,-434,185,478
473,-9,-483,-231,478,-246,-1805,-1678,-2152,-590,92,419
483,-170,-653,-156,568,-412,-1649,-1473,-2054,-673,14,366
492,-361,-854,-65,673,-607,-1449,-1239,-1917,-722,-58,307
483,-590,-1073,53,778,-832,-1229,-971,-1742,-722,-117,244
492,-741,-1234,124,863,-988,-1015,-727,-1532,-683,-136,195
492,-795,-1288,151,890,-1041,-844,-531,-1342,-610,-136,175
478,-771,-1249,146,863,-1010,-707,-385,-1151,-531,-97,180
448,-702,-1151,126,800,-927,-600,-287,-956,-414,-43,204
414,-614,-1029,100,722,-822,-517,-234,-810,-322,4,234
375,-570,-946,97,661,-758,-448,-204,-722,-297,14,234
341,-556,-897,107,619,-727,-400,-190,-673,-307,-14,204
302,-541,-844,119,573,-692,-361,-180,-624,-317,-58,156
263,-531,-795,134,529,-663,-317,-180,-595,-322,-92,117
214,-536,-751,161,483,-644,-283,-180,-561,-336,-131,82
161,-522,-683,180,422,-602,-258,-190,-531,-336,-151,48
107,-497,-605,195,356,-551,-234,-195,-497,-331,-165,19
53,-468,-522,207,287,-495,-200,-180,-458,-326,-185,-9
19,-439,-458,209,239,-448,-165,-165,-424,-307,-185,-29
-4,-414,-409,209,202,-412,-126,-146,-370,-297,-195,-43
-48,-390,-341,219,146,-366,-102,-122,-322,-283,-195,-68
-87,-370,-283,229,97,-326,-63,-92,-278,-258,-195,-87
-131,-351,-219,241,43,-285,-29,-63,-234,-229,-185,-97
-161,-326,-165,244,2,-246,-4,-39,-190,-200,-170,-102
-175,-307,-131,241,-21,-219,24,-19,-151,-180,-165,-107
-180,-302,-122,241,-29,-212,39,0,-136,-175,-165,-112
-170,-297,-126,234,-21,-212,39,0,-131,-185,-156,-112
-161,-287,-126,224,-17,-207,48,-4,-136,-185,-165,-126
-161,-283,-122,222,-19,-202,48,0,-126,-185,-165,-126
-161,-278,-117,219,-21,-197,53,4,-122,-180,-165,-126
-165,-273,-107,219,-29,-190,58,9,-117,-180,-161,-126
-161,-263,-102,212,-29,-183,63,9,-102,-170,-161,-126
-165,-258,-92,212,-36,-175,63,9,-97,-165,-161,-126
-170,-253,-82,212,-43,-168,68,9,-97,-165,-165,-126
-175,-248,-73,212,-51,-161,68,14,-97,-170,-165,-126
-175,-239,-63,207,-56,-151,68,24,-82,-161,-156,-122
-170,-239,-68,204,-51,-153,68,24,-82,-156,-156,-122
-165,-239,-73,202,-46,-156,73,24,-82,-156,-156,-117
-170,-244,-73,207,-48,-158,73,24,-78,-156,-161,-117
-161,-239,-78,200,-41,-158,68,14,-82,-165,-161,-117
-165,-234,-68,200,-48,-151,68,14,-82,-165,-161,-112
-165,-234,-68,200,-48,-151,68,14,-78,-165,-161,-112
-165,-229,-63,197,-51,-146,68,14,-78,-165,-161,-112
-175,-224,-48,200,-63,-136,78,24,-73,-156,-161,-122
-175,-224,-48,200,-63,-136,78,24,-73,-156,-161,-117
-180,-224,-43,202,-68,-134,73,24,-68,-156,-161,-112
-180,-224,-43,202,-68,-134,73,24,-63,-156,-161,-112
-175,-214,-39,195,-68,-126,82,19,-68,-151,-161,-112
-170,-214,-43,192,-63,-129,78,19,-68,-151,-161,-112
-165,-214,-48,190,-58,-131,73,24,-68,-151,-161,-112
-161,-214,-53,187,-53,-134,73,24,-63,-151,-161,-112
-151,-200,-48,175,-51,-124,78,34,-53,-146,-161,-122
-146,-200,-53,173,-46,-126,78,34,-48,-141,-156,-117
-146,-195,-48,170,-48,-122,78,39,-39,-141,-156,-117
-141,-195,-53,168,-43,-124,82,39,-34,-141,-151,-112
-141,-180,-39,161,-51,-109,92,34,-34,-126,-141,-112
-136,-175,-39,156,-48,-107,92,39,-34,-122,-141,-112
-136,-170,-34,153,-51,-102,92,39,-24,-117,-131,-112
-131,-165,-34,148,-48,-100,92,43,-19,-117,-131,-117
-122,-156,-34,139,-43,-95,92,53,-14,-126,-122,-122
-122,-156,-34,139,-43,-95,92,53,-9,-117,-117,-117
-122,-151,-29,136,-46,-90,92,53,-9,-117,-117,-122
-122,-151,-29,136,-46,-90,92,53,-4,-117,-117,-122
-112,-141,-29,126,-41,-85,102,58,0,-117,-122,-126
-112,-141,-29,126,-41,-85,107,63,4,-117,-122,-126
-112,-141,-29,126,-41,-85,107,63,9,-107,-117,-131
-112,-141,-29,126,-41,-85,107,63,14,-107,-117,-131
-112,-141,-29,126,-41,-85,112,73,24,-102,-117,-136
-122,-141,-19,131,-51,-80,112,73,29,-97,-112,-136
-122,-141,-19,131,-51,-80,117,82,34,-87,-107,-136
-112,-141,-29,126,-41,-85,117,87,43,-73,-107,-136
-112,-131,-19,122,-46,-75,112,78,48,-78,-107,-136
-117,-131,-14,124,-51,-73,122,82,53,-73,-107,-136
-117,-131,-14,124,-51,-73,122,87,53,-68,-102,-136
-112,-126,-14,119,-48,-70,122,92,58,-63,-102,-136
-122,-136,-14,129,-53,-75,131,97,78,-68,-107,-131
-122,-136,-14,129,-53,-75,131,102,92,-63,-107,-131
-117,-136,-19,126,-48,-78,131,107,97,-58,-97,-126
-117,-131,-14,124,-51,-73,136,112,107,-48,-92,-126
-107,-122,-14,114,-46,-68,146,122,122,-24,-78,-126
-102,-122,-19,112,-41,-70,151,126,136,-19,-73,-122
-97,-117,-19,107,-39,-68,161,141,146,-9,-68,-122
-92,-117,-24,104,-34,-70,165,151,161,0,-63,-117
-87,-102,-14,95,-36,-58,161,161,180,14,-63,-112
-78,-97,-19,87,-29,-58,165,175,195,24,-58,-107
-73,-87,-14,80,-29,-51,170,185,214,34,-48,-102
-68,-78,-9,73,-29,-43,175,195,229,48,-43,-97
-53,-68,-14,61,-19,-41,185,200,244,63,-19,-92
-48,-63,-14,56,-17,-39,190,209,263,73,-9,-87
-48,-53,-4,51,-21,-29,195,229,283,92,-4,-82
-43,-48,-4,46,-19,-26,204,244,307,107,4,-78
-29,-39,-9,34,-9,-24,209,263,336,122,24,-58
-14,-24,-9,19,-2,-17,214,278,361,146,34,-58
0,-9,-9,4,4,-9,229,297,390,170,43,-53
4,4,0,-4,2,2,229,312,414,195,53,-48
19,24,4,-21,7,14,234,317,448,214,78,-48
24,34,9,-29,7,21,239,341,478,234,87,-34
34,39,4,-36,14,21,248,351,502,253,102,-29
34,48,14,-41,9,31,253,375,536,283,112,-19
48,63,14,-56,17,39,248,385,566,307,122,-4
58,68,9,-63,24,39,258,405,605,336,141,4
58,78,19,-68,19,48,263,419,634,356,156,14
68,92,24,-80,21,58,268,439,663,375,165,24
63,87,24,-75,19,56,283,458,692,395,170,29
68,102,34,-85,17,68,283,468,732,419,185,29
78,112,34,-95,21,73,287,488,756,444,200,39
78,117,39,-97,19,78,297,502,785,463,214,53
82,126,43,-104,19,85,287,522,824,483,234,53
82,136,53,-109,14,95,287,536,844,507,248,58
92,146,53,-119,19,100,287,546,868,531,258,68
97,151,53,-124,21,102,287,556,888,546,268,73
102,165,63,-134,19,114,297,566,917,575,278,73
102,180,78,-141,12,129,297,575,936,595,292,82
102,190,87,-146,7,139,292,575,956,605,297,92
107,204,97,-156,4,151,287,585,966,619,307,97
117,219,102,-168,7,161,278,585,961,624,317,97
117,219,102,-168,7,161,273,585,971,634,326,102
117,224,107,-170,4,165,268,585,971,639,336,107
122,229,107,-175,7,168,263,585,976,649,341,112
131,239,107,-185,12,173,258,575,985,649,346,112
136,244,107,-190,14,175,248,575,985,653,351,122
136,248,112,-192,12,180,239,570,976,658,356,126
136,253,117,-195,9,185,234,566,961,658,356,131
146,263,117,-204,14,190,239,556,961,658,356,131
146,263,117,-204,14,190,229,541,941,653,361,131
146,263,117,-204,14,190,219,527,927,653,366,136
151,273,122,-212,14,197,204,507,902,649,370,136
151,273,122,-212,14,197,204,497,873,634,366,126
146,273,126,-209,9,200,190,478,849,624,361,126
146,273,126,-209,9,200,170,458,814,610,356,126
146,273,126,-209,9,200,161,429,780,585,341,126
156,273,117,-214,19,195,156,414,746,566,336,126
156,278,122,-217,17,200,146,390,702,541,326,122
146,283,136,-214,4,209,136,366,668,517,317,117
141,278,136,-209,2,207,126,341,624,492,297,112
136,273,136,-204,0,204,122,317,585,468,273,97
136,268,131,-202,2,200,107,292,541,429,258,92
136,263,126,-200,4,195,97,268,507,405,248,87
131,258,126,-195,2,192,87,244,468,375,234,82
122,244,122,-183,0,183,87,219,419,346,219,78
117,239,122,-178,-2,180,78,195,385,326,204,78
112,224,112,-168,0,168,73,170,346,297,190,73
107,209,102,-158,2,156,68,156,317,268,175,63
92,200,107,-146,-7,153,68,136,273,229,141,58
87,195,107,-141,-9,151,63,117,244,204,126,48
82,180,97,-131,-7,139,58,97,214,190,117,43
78,170,92,-124,-7,131,53,87,185,161,102,39
82,161,78,-122,2,119,39,73,156,136,97,39
73,151,78,-112,-2,114,34,58,131,117,82,29
68,141,73,-104,-2,107,34,43,112,97,73,19
63,131,68,-97,-2,100,34,29,87,82,58,9
58,131,73,-95,-7,102,34,34,73,58,53,4
58,126,68,-92,-4,97,34,24,58,48,39,0
53,126,73,-90,-9,100,29,14,48,34,29,0
53,126,73,-90,-9,100,29,4,34,19,19,-9
53,122,68,-87,-7,95,29,4,9,-4,0,-14
48,117,68,-82,-9,92,29,0,-4,-9,-4,-19
48,107,58,-78,-4,82,34,-4,-9,-19,-9,-29
48,97,48,-73,0,73,34,-9,-19,-29,-14,-34
53,107,53,-80,0,80,34,-19,-29,-29,-9,-29
53,107,53,-80,0,80,34,-19,-29,-34,-14,-34
53,97,43,-75,4,70,34,-24,-34,-39,-24,-39
53,97,43,-75,4,70,34,-24,-43,-43,-29,-39
43,97,53,-70,-4,75,43,-19,-48,-58,-29,-48
43,97,53,-70,-4,75,48,-19,-48,-63,-34,-48
43,87,43,-65,0,65,48,-24,-53,-68,-34,-48
43,87,43,-65,0,65,48,-24,-58,-68,-34,-48
43,92,48,-68,-2,70,48,-24,-58,-68,-48,-58
48,97,48,-73,0,73,48,-24,-58,-68,-48,-63
58,102,43,-80,7,73,48,-19,-58,-68,-48,-63
63,107,43,-85,9,75,48,-19,-63,-73,-48,-63
68,117,48,-92,9,82,53,-14,-63,-68,-43,-73
68,117,48,-92,9,82,53,-14,-63,-68,-43,-73
68,112,43,-90,12,78,53,-14,-63,-68,-43,-68
68,112,43,-90,12,78,53,-14,-63,-68,-43,-68
63,102,39,-82,12,70,63,-14,-63,-68,-43,-68
63,107,43,-85,9,75,63,-14,-63,-73,-39,-68
68,107,39,-87,14,73,63,-14,-63,-73,-39,-68
68,112,43,-90,12,78,63,-14,-63,-73,-39,-68
68,112,43,-90,12,78,53,-14,-63,-78,-48,-58
68,112,43,-90,12,78,53,-14,-63,-78,-48,-58
68,107,39,-87,14,73,53,-14,-68,-73,-48,-63
63,97,34,-80,14,65,53,-14,-73,-73,-48,-63
68,97,29,-82,19,63,63,-24,-73,-82,-58,-58
68,97,29,-82,19,63,63,-24,-68,-82,-58,-58
78,102,24,-90,26,63,63,-24,-68,-82,-58,-58
82,107,24,-95,29,65,63,-24,-68,-82,-58,-58
73,107,34,-90,19,70,63,-24,-78,-87,-58,-58
73,102,29,-87,21,65,63,-19,-73,-87,-58,-58
73,102,29,-87,21,65,63,-19,-73,-87,-58,-58
73,107,34,-90,19,70,63,-19,-78,-82,-58,-58
63,97,34,-80,14,65,53,-19,-78,-92,-48,-58
63,92,29,-78,17,61,53,-19,-73,-97,-48,-58
58,92,34,-75,12,63,53,-19,-73,-97,-48,-58
58,92,34,-75,12,63,53,-19,-73,-97,-48,-58
68,92,24,-80,21,58,48,-19,-73,-87,-58,-68
63,87,24,-75,19,56,48,-19,-73,-87,-58,-68
63,87,24,-75,19,56,48,-19,-73,-87,-58,-68
63,87,24,-75,19,56,48,-19,-73,-87,-58,-68
53,87,34,-70,9,61,48,-19,-82,-92,-63,-78
43,87,43,-65,0,65,48,-19,-82,-97,-68,-78
43,87,43,-65,0,65,48,-24,-82,-102,-73,-78
43,87,43,-65,0,65,43,-24,-82,-107,-78,-78
48,92,43,-70,2,68,53,-24,-73,-107,-68,-68
53,92,39,-73,7,65,53,-19,-73,-112,-68,-73
58,92,34,-75,12,63,53,-14,-78,-112,-68,-73
53,92,39,-73,7,65,58,-14,-78,-112,-68,-73
63,87,24,-75,19,56,68,-19,-78,-112,-63,-78
63,82,19,-73,21,51,68,-19,-78,-107,-63,-78
58,82,24,-70,17,53,68,-14,-78,-97,-63,-78
58,82,24,-70,17,53,68,-9,-78,-92,-63,-78
48,82,34,-65,7,58,63,-9,-78,-97,-53,-63
48,82,34,-65,7,58,63,-9,-73,-97,-53,-63
43,82,39,-63,2,61,63,-9,-73,-92,-53,-63
43,82,39,-63,2,61,63,-9,-73,-87,-53,-63
53,87,34,-70,9,61,53,-9,-63,-87,-53,-63
48,87,39,-68,4,63,58,-4,-58,-87,-53,-68
48,82,34,-65,7,58,58,-4,-58,-87,-53,-68
48,82,34,-65,7,58,63,-4,-53,-87,-58,-63
39,82,43,-61,-2,63,63,4,-48,-82,-48,-68
39,82,43,-61,-2,63,68,14,-48,-82,-48,-68
39,82,43,-61,-2,63,68,14,-48,-82,-48,-73
39,82,43,-61,-2,63,68,14,-39,-78,-48,-73
48,82,34,-65,7,58,68,19,-34,-73,-48,-63
43,82,39,-63,2,61,73,19,-29,-73,-48,-63
43,82,39,-63,2,61,78,24,-29,-73,-48,-63
43,78,34,-61,4,56,82,29,-24,-73,-43,-63
34,68,34,-51,0,51,87,29,-14,-68,-53,-73
34,73,39,-53,-2,56,87,34,-9,-63,-53,-73
34,73,39,-53,-2,56,87,34,-9,-63,-48,-73
34,73,39,-53,-2,56,92,34,-9,-63,-48,-73
29,82,53,-56,-12,68,92,39,-4,-58,-48,-68
29,78,48,-53,-9,63,92,39,0,-58,-48,-68
29,68,39,-48,-4,53,92,39,0,-63,-48,-68
29,78,48,-53,-9,63,97,39,4,-63,-48,-68
29,82,53,-56,-12,68,97,43,14,-43,-39,-78
29,82,53,-56,-12,68,102,48,14,-43,-39,-78
29,82,53,-56,-12,68,102,48,19,-43,-39,-78
29,78,48,-53,-9,63,102,48,19,-43,-39,-78
39,87,48,-63,-4,68,102,53,19,-43,-39,-68
43,92,48,-68,-2,70,102,53,24,-43,-39,-68
43,92,48,-68,-2,70,102,53,29,-43,-39,-68
43,92,48,-68,-2,70,102,53,29,-39,-39,-68
48,102,53,-75,-2,78,102,53,29,-34,-24,-58
48,102,53,-75,-2,78,102,58,29,-34,-24,-58
48,102,53,-75,-2,78,102,58,34,-34,-24,-53
53,102,48,-78,2,75,102,63,34,-34,-24,-53
63,102,39,-82,12,70,97,63,34,-24,-19,-63
63,107,43,-85,9,75,97,63,34,-24,-19,-63
68,107,39,-87,14,73,97,63,29,-24,-19,-63
68,107,39,-87,14,73,97,63,29,-24,-19,-63
68,112,43,-90,12,78,97,68,29,-24,-9,-58
68,112,43,-90,12,78,97,68,29,-24,-14,-58
73,112,39,-92,17,75,102,68,29,-24,-14,-58
73,107,34,-90,19,70,102,63,29,-24,-14,-53
78,97,19,-87,29,58,97,63,24,-24,-9,-53
78,102,24,-90,26,63,97,63,24,-24,-9,-53
78,107,29,-92,24,68,97,63,24,-24,-9,-53
78,107,29,-92,24,68,97,63,19,-24,-9,-53
78,107,29,-92,24,68,97,53,19,-29,-19,-53
78,107,29,-92,24,68,97,53,19,-29,-24,-48
78,107,29,-92,24,68,97,48,19,-29,-24,-48
78,112,34,-95,21,73,97,48,14,-29,-24,-48
68,112,43,-90,12,78,97,48,19,-29,-14,-58
68,112,43,-90,12,78,97,39,14,-39,-19,-58
68,112,43,-90,12,78,97,39,14,-39,-19,-58
68,112,43,-90,12,78,97,39,14,-39,-19,-58
68,102,34,-85,17,68,87,39,4,-39,-29,-68
68,102,34,-85,17,68,87,39,4,-39,-29,-68
68,102,34,-85,17,68,87,34,0,-39,-29,-68
73,107,34,-90,19,70,87,34,0,-39,-29,-68
63,107,43,-85,9,75,87,34,-4,-43,-39,-68
63,112,48,-87,7,80,87,34,-4,-48,-39,-68
63,112,48,-87,7,80,82,29,-9,-58,-34,-68
63,112,48,-87,7,80,82,29,-9,-63,-34,-68
63,102,39,-82,12,70,87,29,-9,-63,-48,-68
63,102,39,-82,12,70,92,24,-9,-63,-48,-68
63,102,39,-82,12,70,92,24,-9,-68,-43,-68
63,107,43,-85,9,75,87,24,-14,-68,-43,-68
68,117,48,-92,9,82,87,29,-24,-73,-48,-68
78,117,39,-97,19,78,78,24,-29,-73,-53,-68
78,112,34,-95,21,73,87,24,-29,-73,-53,-68
78,112,34,-95,21,73,87,24,-24,-68,-48,-68
78,117,39,-97,19,78,87,29,-19,-68,-48,-68
68,107,39,-87,14,73,87,19,-29,-68,-39,-58
68,107,39,-87,14,73,87,19,-29,-68,-39,-58
68,107,39,-87,14,73,87,19,-29,-68,-39,-58
68,107,39,-87,14,73,87,19,-29,-68,-39,-58
78,97,19,-87,29,58,87,9,-39,-78,-48,-58
78,102,24,-90,26,63,87,9,-39,-78,-48,-58
78,102,24,-90,26,63,82,9,-39,-78,-48,-58
78,102,24,-90,26,63,78,4,-43,-78,-48,-58
68,102,34,-85,17,68,78,14,-43,-68,-48,-73
68,102,34,-85,17,68,78,14,-43,-68,-48,-73
68,102,34,-85,17,68,78,14,-43,-78,-48,-73
68,102,34,-85,17,68,78,9,-43,-78,-48,-73
73,107,34,-90,19,70,78,9,-39,-78,-48,-63
73,107,34,-90,19,70,78,9,-39,-78,-48,-63
73,112,39,-92,17,75,78,9,-39,-78,-48,-63
73,112,39,-92,17,75,82,9,-39,-78,-48,-63
73,102,29,-87,21,65,87,9,-39,-78,-48,-73
73,102,29,-87,21,65,92,19,-39,-78,-48,-73
73,107,34,-90,19,70,92,24,-34,-78,-48,-73
73,112,39,-92,17,75,92,24,-34,-73,-48,-73
87,122,34,-104,26,78,102,24,-19,-63,-48,-63
87,122,34,-104,26,78,102,24,-19,-63,-48,-63
97,126,29,-112,34,78,102,34,-19,-63,-48,-63
107,126,19,-117,43,73,102,34,-19,-63,-43,-58
97,131,34,-114,31,82,102,43,-24,-73,-43,-58
97,131,34,-114,31,82,107,53,-14,-68,-39,-53
97,136,39,-117,29,87,112,53,-9,-58,-34,-53
102,146,43,-124,29,95,117,58,0,-53,-29,-43
107,161,53,-134,26,107,126,58,4,-48,-24,-39
107,165,58,-136,24,112,131,63,9,-43,-19,-39
107,170,63,-139,21,117,136,63,14,-39,-19,-39
112,175,63,-143,24,119,141,63,19,-34,-14,-39
122,175,53,-148,34,114,141,68,24,-29,-19,-39
122,185,63,-153,29,124,141,68,29,-24,-14,-39
117,195,78,-156,19,136,136,68,34,-19,-9,-34
117,195,78,-156,19,136,126,68,34,-19,-9,-24
126,204,78,-165,24,141,117,63,39,-14,0,-24
126,204,78,-165,24,141,102,58,29,-14,0,-24
126,204,78,-165,24,141,92,43,24,-14,0,-24
131,195,63,-163,34,129,87,39,14,-24,0,-24
131,200,68,-165,31,134,63,39,4,-29,4,-14
131,190,58,-161,36,124,58,29,-4,-29,0,-24
131,180,48,-156,41,114,53,19,-14,-34,0,-29
122,170,48,-146,36,109,39,9,-24,-39,-9,-29
117,170,53,-143,31,112,29,-4,-34,-53,-14,-34
102,165,63,-134,19,114,29,-19,-39,-58,-19,-39
102,165,63,-134,19,114,24,-29,-43,-63,-24,-39
97,165,68,-131,14,117,24,-29,-48,-63,-24,-39
97,156,58,-126,19,107,29,-29,-48,-73,-34,-48
97,156,58,-126,19,107,29,-29,-48,-73,-34,-39
97,156,58,-126,19,107,29,-29,-48,-68,-29,-34
97,161,63,-129,17,112,29,-29,-48,-68,-29,-34
102,170,68,-136,17,119,29,-29,-43,-63,-19,-24
107,170,63,-139,21,117,29,-29,-43,-58,-14,-24
112,165,53,-139,29,109,34,-24,-39,-48,-14,-24
117,165,48,-141,34,107,39,-19,-39,-34,-14,-19
117,165,48,-141,34,107,43,-4,-29,-34,-4,-9
117,165,48,-141,34,107,48,0,-24,-34,-4,-9
112,165,53,-139,29,109,48,0,-24,-34,-4,-9
107,161,53,-134,26,107,48,0,-29,-34,-4,-9
102,156,53,-129,24,104,58,-9,-29,-43,-14,-14
102,151,48,-126,26,100,58,-19,-29,-48,-19,-19
97,146,48,-122,24,97,58,-19,-34,-53,-24,-24
92,131,39,-112,26,85,63,-19,-43,-58,-34,-29
97,131,34,-114,31,82,63,-19,-53,-82,-39,-34
82,122,39,-102,21,80,68,-19,-53,-82,-43,-39
63,112,48,-87,7,80,73,-19,-58,-82,-48,-43
63,102,39,-82,12,70,78,-19,-58,-92,-63,-58
58,92,34,-75,12,63,92,-9,-58,-97,-53,-68
58,92,34,-75,12,63,97,-9,-58,-102,-58,-73
53,92,39,-73,7,65,97,-9,-68,-102,-63,-73
53,92,39,-73,7,65,97,-14,-73,-107,-63,-78
53,87,34,-70,9,61,97,-14,-73,-102,-73,-78
53,87,34,-70,9,61,97,-14,-73,-102,-73,-78
53,87,34,-70,9,61,97,-14,-73,-102,-73,-82
48,87,39,-68,4,63,97,-14,-73,-102,-73,-82
48,87,39,-68,4,63,97,-14,-63,-102,-63,-73
48,87,39,-68,4,63,97,-14,-63,-102,-63,-73
43,87,43,-65,0,65,97,-14,-68,-107,-73,-73
43,82,39,-63,2,61,107,-14,-68,-112,-78,-82
43,82,39,-63,2,61,112,-4,-68,-117,-73,-87
39,78,39,-58,0,58,117,0,-73,-122,-92,-92
24,63,39,-43,-7,51,136,9,-63,-141,-102,-102
-9,58,68,-24,-39,63,175,14,-39,-161,-126,-122
-48,48,97,0,-73,73,204,24,-24,-180,-146,-146
-73,48,122,12,-97,85,239,34,-9,-190,-165,-175
-87,53,141,17,-114,97,278,43,19,-180,-185,-180
-97,73,170,12,-134,122,292,43,53,-180,-180,-180
-97,112,209,-7,-153,161,287,48,73,-156,-161,-175
-97,156,253,-29,-175,204,287,53,112,-136,-146,-165
-97,190,287,-46,-192,239,312,82,161,-112,-131,-161
-107,224,331,-58,-219,278,341,122,224,-97,-126,-156
-117,273,390,-78,-253,331,351,131,253,-92,-117,-151
-117,326,444,-104,-280,385,336,97,234,-87,-112,-146
-107,380,488,-136,-297,434,273,29,180,-78,-102,-131
-82,439,522,-178,-302,480,190,-63,126,-58,-73,-102
-53,512,566,-229,-309,539,58,-195,73,0,-34,-68
0,634,634,-317,-317,634,-141,-385,0,82,48,4
73,785,712,-429,-319,749,-385,-610,-73,195,156,97
156,917,761,-536,-302,839,-639,-824,-146,322,263,185
239,1000,761,-619,-261,880,-888,-1049,-248,429,351,273
326,1068,741,-697,-207,905,-1122,-1278,-356,507,448,356
395,1122,727,-758,-165,924,-1337,-1507,-483,585,531,434
473,1176,702,-824,-114,939,-1551,-1712,-595,649,614,512
556,1190,634,-873,-39,912,-1683,-1820,-668,683,663,561
614,1132,517,-873,48,824,-1761,-1864,-766,634,663,580
653,1049,395,-851,129,722,-1825,-1898,-883,551,634,590
697,976,278,-836,209,627,-1908,-1952,-1054,439,610,610
741,922,180,-832,280,551,-1976,-1991,-1317,263,551,619
775,839,63,-807,356,451,-1991,-1986,-1615,29,478,605
805,688,-117,-746,461,285,-1927,-1927,-1869,-219,361,556
814,507,-307,-661,561,100,-1805,-1795,-1995,-434,229,488
834,346,-488,-590,661,-70,-1659,-1610,-1966,-556,131,434
834,175,-658,-505,746,-241,-1488,-1395,-1859,-634,48,366
834,-34,-868,-400,851,-451,-1278,-1146,-1742,-683,-29,302
814,-234,-1049,-290,932,-641,-1054,-883,-1561,-673,-78,234
805,-346,-1151,-229,978,-749,-863,-658,-1361,-619,-87,195
800,-361,-1161,-219,980,-761,-717,-492,-1180,-541,-68,190
771,-322,-1093,-224,932,-707,-590,-366,-995,-444,-24,214
746,-244,-990,-251,868,-617,-488,-273,-829,-341,34,234
717,-170,-888,-273,802,-529,-419,-224,-712,-278,63,244
683,-136,-819,-273,751,-478,-361,-200,-634,-248,63,224
624,-131,-756,-246,690,-444,-312,-190,-575,-248,39,195
556,-131,-688,-212,622,-409,-258,-170,-517,-253,-4,146
497,-136,-634,-180,566,-385,-214,-161,-492,-268,-43,102
453,-141,-595,-156,524,-368,-180,-161,-473,-287,-73,78
409,-126,-536,-141,473,-331,-146,-156,-429,-283,-87,48
346,-107,-453,-119,400,-280,-112,-151,-390,-268,-107,19
292,-78,-370,-107,331,-224,-68,-126,-336,-248,-107,9
258,-63,-322,-97,290,-192,-39,-107,-302,-239,-117,-24
214,-48,-263,-82,239,-156,-4,-73,-253,-224,-126,-48
165,-19,-185,-73,175,-102,34,-43,-200,-200,-126,-58
131,0,-131,-65,131,-65,78,-14,-146,-180,-117,-78
92,4,-87,-48,90,-41,112,19,-102,-151,-112,-92
68,14,-53,-41,61,-19,131,58,-73,-131,-97,-87
53,19,-34,-36,43,-7,146,78,-39,-117,-87,-92
53,24,-29,-39,41,-2,156,78,-34,-107,-87,-92
43,29,-14,-36,29,7,165,73,-29,-107,-87,-97
43,29,-14,-36,29,7,165,78,-19,-107,-87,-97
43,29,-14,-36,29,7,170,82,-14,-102,-87,-97
39,29,-9,-34,24,9,175,87,-9,-102,-82,-97
34,24,-9,-29,21,7,180,97,-4,-102,-92,-97
29,24,-4,-26,17,9,180,97,0,-97,-92,-97
24,24,0,-24,12,12,185,97,0,-97,-97,-97
19,24,4,-21,7,14,185,102,0,-102,-97,-97
14,24,9,-19,2,17,185,102,4,-112,-87,-102
14,24,9,-19,2,17,185,102,4,-107,-87,-102
14,24,9,-19,2,17,190,102,4,-107,-87,-97
4,19,14,-12,-4,17,190,102,9,-107,-92,-97
4,19,14,-12,-4,17,185,102,14,-97,-92,-97
0,19,19,-9,-9,19,185,102,14,-97,-92,-92
0,14,14,-7,-7,14,185,102,19,-97,-92,-92
0,14,14,-7,-7,14,185,102,19,-97,-92,-92
0,9,9,-4,-4,9,185,102,14,-97,-92,-92
0,9,9,-4,-4,9,185,102,14,-97,-92,-87
-4,9,14,-2,-9,12,180,102,19,-97,-92,-82
-4,9,14,-2,-9,12,180,102,24,-97,-92,-82
-4,9,14,-2,-9,12,190,107,29,-102,-92,-82
-4,9,14,-2,-9,12,185,107,29,-102,-92,-82
-4,9,14,-2,-9,12,180,112,29,-102,-92,-82
-4,9,14,-2,-9,12,180,112,34,-102,-92,-82
-4,14,19,-4,-12,17,185,112,34,-87,-92,-73
0,14,14,-7,-7,14,185,112,39,-82,-87,-68
0,19,19,-9,-9,19,185,117,48,-82,-87,-68
4,19,14,-12,-4,17,190,117,53,-82,-82,-63
4,29,24,-17,-9,26,190,122,53,-78,-73,-73
9,29,19,-19,-4,24,190,126,53,-73,-73,-73
9,29,19,-19,-4,24,190,126,63,-68,-63,-73
14,29,14,-21,0,21,190,131,68,-68,-63,-78
14,39,24,-26,-4,31,190,141,63,-68,-63,-78
14,39,24,-26,-4,31,190,141,68,-58,-58,-78
14,43,29,-29,-7,36,190,141,68,-58,-58,-87
14,43,29,-29,-7,36,190,141,73,-58,-58,-92
24,53,29,-39,-2,41,190,146,87,-58,-63,-87
24,53,29,-39,-2,41,195,151,92,-58,-63,-87
24,53,29,-39,-2,41,195,151,97,-48,-58,-92
24,53,29,-39,-2,41,195,151,102,-48,-58,-92
34,63,29,-48,2,46,200,151,102,-39,-58,-97
24,63,39,-43,-7,51,200,151,107,-39,-53,-97
24,63,39,-43,-7,51,204,161,112,-34,-48,-97
34,63,29,-48,2,46,204,165,122,-24,-48,-97
24,63,39,-43,-7,51,219,165,126,-19,-48,-107
19,63,43,-41,-12,53,229,170,131,-14,-48,-107
19,63,43,-41,-12,53,229,175,131,-9,-43,-107
24,68,43,-46,-9,56,229,180,136,-4,-43,-107
14,58,43,-36,-14,51,239,195,156,0,-39,-102
14,58,43,-36,-14,51,239,200,170,4,-39,-102
19,58,39,-39,-9,48,239,204,175,9,-29,-97
19,63,43,-41,-12,53,244,209,185,19,-24,-97
24,63,39,-43,-7,51,253,209,190,24,-19,-97
24,63,39,-43,-7,51,258,214,204,29,-14,-92
24,68,43,-46,-9,56,268,229,214,39,-9,-92
24,68,43,-46,-9,56,273,239,229,48,-4,-87
19,73,53,-46,-17,63,268,244,239,53,4,-92
29,78,48,-53,-9,63,273,263,253,63,9,-87
34,87,53,-61,-9,70,278,278,273,73,19,-82
39,97,58,-68,-9,78,283,292,287,87,24,-78
43,97,53,-70,-4,75,302,302,312,112,29,-73
48,102,53,-75,-2,78,307,307,331,122,39,-68
48,112,63,-80,-7,87,312,322,351,141,43,-63
53,117,63,-85,-4,90,322,331,375,156,53,-58
63,122,58,-92,2,90,326,351,385,156,63,-48
73,131,58,-102,7,95,331,366,409,175,73,-48
82,141,58,-112,12,100,346,385,439,195,82,-43
82,151,68,-117,7,109,346,400,463,214,92,-39
97,161,63,-129,17,112,351,414,488,234,107,-39
102,170,68,-136,17,119,356,439,517,253,117,-24
112,175,63,-143,24,119,366,448,541,273,131,-19
112,185,73,-148,19,129,370,473,575,302,141,-9
117,190,73,-153,21,131,385,492,605,317,161,-4
126,195,68,-161,29,131,395,512,644,346,180,4
126,204,78,-165,24,141,400,527,673,366,195,14
136,219,82,-178,26,151,405,546,702,385,204,24
141,224,82,-183,29,153,409,575,732,414,209,19
146,239,92,-192,26,165,409,585,771,439,224,19
156,248,92,-202,31,170,414,605,795,463,239,29
156,253,97,-204,29,175,424,619,824,483,253,43
151,263,112,-207,19,187,434,649,863,497,273,48
151,273,122,-212,14,197,434,663,883,517,287,58
161,283,122,-222,19,202,434,673,907,536,297,73
165,287,122,-226,21,204,434,683,927,546,307,82
180,297,117,-239,31,207,434,683,936,575,307,82
180,307,126,-244,26,217,434,692,956,595,322,92
180,312,131,-246,24,222,429,692,976,605,326,102
185,322,136,-253,24,229,424,702,985,619,336,107
185,336,151,-261,17,244,414,702,1000,624,346,117
185,336,151,-261,17,244,409,702,1010,634,356,122
185,341,156,-263,14,248,405,702,1010,639,366,126
190,346,156,-268,17,251,400,702,1015,649,370,131
190,356,165,-273,12,261,385,688,1015,658,375,131
195,361,165,-278,14,263,375,683,1015,663,380,141
195,366,170,-280,12,268,366,673,1005,668,385,146
195,370,175,-283,9,273,361,663,990,668,385,151
195,370,175,-283,9,273,346,653,990,673,385,161
195,370,175,-283,9,273,336,639,971,663,390,161
195,370,175,-283,9,273,326,624,956,658,395,165
200,380,180,-290,9,280,312,605,932,649,400,165
200,370,170,-285,14,270,302,585,912,644,395,165
195,370,175,-283,9,273,287,566,888,634,390,165
195,370,175,-283,9,273,268,546,854,619,385,165
195,370,175,-283,9,273,258,517,819,595,370,165
195,366,170,-280,12,268,244,502,795,575,366,165
195,366,170,-280,12,268,234,478,751,551,356,161
185,366,180,-275,2,273,224,453,717,527,346,156
180,356,175,-268,2,265,214,429,673,502,326,151
185,351,165,-268,9,258,200,395,624,492,322,156
185,346,161,-265,12,253,185,370,580,458,307,151
185,341,156,-263,14,248,175,346,546,439,297,146
180,336,156,-258,12,246,165,322,507,414,283,141
180,326,146,-253,17,236,156,297,468,375,258,126
175,326,151,-251,12,239,146,273,434,356,244,126
170,317,146,-244,12,231,141,248,395,326,229,122
165,307,141,-236,12,224,136,234,366,297,214,112
161,297,136,-229,12,217,126,204,322,268,200,107
156,292,136,-224,9,214,122,185,292,244,185,97
151,278,126,-214,12,202,117,165,263,229,175,92
146,268,122,-207,12,195,112,156,234,200,161,87
141,258,117,-200,12,187,107,141,204,185,146,78
131,248,117,-190,7,183,102,126,180,165,131,68
126,239,112,-183,7,175,102,112,161,146,122,58
122,229,107,-175,7,168,102,97,136,131,107,48
117,224,107,-170,4,165,102,82,112,107,102,43
117,214,97,-165,9,156,102,73,97,97,87,39
112,209,97,-161,7,153,97,63,87,82,78,39
112,204,92,-158,9,148,97,53,73,68,68,29
102,190,87,-146,7,139,97,53,58,53,48,24
97,185,87,-141,4,136,97,48,43,48,43,19
97,175,78,-136,9,126,102,43,39,39,39,9
97,165,68,-131,14,117,102,39,29,29,34,4
92,175,82,-134,4,129,102,39,19,19,39,0
92,175,82,-134,4,129,102,39,19,14,34,-4
92,165,73,-129,9,119,102,34,14,9,24,-9
92,165,73,-129,9,119,102,34,4,4,19,-9
92,165,73,-129,9,119,102,29,0,-9,19,-9
92,165,73,-129,9,119,107,29,0,-14,14,-9
92,156,63,-124,14,109,107,24,-4,-19,14,-9
92,156,63,-124,14,109,107,24,-9,-19,14,-9
87,156,68,-122,9,112,107,14,-19,-19,9,-9
87,156,68,-122,9,112,107,14,-19,-19,9,-14
92,156,63,-124,14,109,107,19,-19,-19,9,-14
92,156,63,-124,14,109,107,19,-24,-24,9,-14
97,156,58,-126,19,107,102,14,-24,-29,4,-24
97,156,58,-126,19,107,102,14,-24,-29,4,-24
97,151,53,-124,21,102,102,14,-24,-29,4,-19
97,151,53,-124,21,102,102,14,-24,-29,4,-19
92,151,58,-122,17,104,102,14,-24,-29,-4,-9
92,156,63,-124,14,109,102,14,-24,-34,0,-9
97,156,58,-126,19,107,102,14,-24,-34,0,-9
97,161,63,-129,17,112,102,14,-24,-34,0,-9
107,165,58,-136,24,112,102,14,-24,-29,0,-9
107,170,63,-139,21,117,102,14,-24,-29,0,-9
107,170,63,-139,21,117,102,14,-29,-24,0,-14
102,165,63,-134,19,114,102,14,-34,-24,0,-14
97,165,68,-131,14,117,102,24,-24,-24,9,-9
97,165,68,-131,14,117,102,24,-19,-24,9,-9
107,170,63,-139,21,117,102,24,-19,-24,9,-9
112,175,63,-143,24,119,102,24,-19,-24,9,-9
112,175,63,-143,24,119,112,14,-29,-39,0,0
112,170,58,-141,26,114,112,19,-24,-39,0,0
112,170,58,-141,26,114,112,19,-24,-39,0,0
112,175,63,-143,24,119,112,19,-29,-34,0,0
122,175,53,-148,34,114,102,19,-29,-34,0,0
122,170,48,-146,36,109,102,19,-24,-39,0,0
117,170,53,-143,31,112,102,19,-24,-39,0,0
117,170,53,-143,31,112,102,19,-24,-39,0,0
107,170,63,-139,21,117,97,19,-34,-39,0,-9
102,165,63,-134,19,114,97,19,-34,-39,0,-9
102,165,63,-134,19,114,97,19,-34,-39,0,-9
102,165,63,-134,19,114,97,19,-34,-39,0,-9
112,165,53,-139,29,109,97,19,-34,-48,-9,-9
102,165,63,-134,19,114,97,19,-34,-48,-9,-9
102,165,63,-134,19,114,97,14,-34,-48,-9,-9
102,165,63,-134,19,114,92,14,-34,-48,-9,-9
102,161,58,-131,21,109,92,24,-34,-39,-9,-9
102,161,58,-131,21,109,92,29,-34,-43,-9,-14
102,161,58,-131,21,109,92,34,-39,-43,-9,-14
92,161,68,-126,12,114,97,34,-39,-43,-9,-14
82,156,73,-119,4,114,97,29,-29,-48,-4,-19
82,151,68,-117,7,109,97,29,-29,-48,-4,-19
78,151,73,-114,2,112,97,34,-29,-43,-4,-19
78,151,73,-114,2,112,97,39,-29,-43,-4,-19
87,151,63,-119,12,107,112,39,-29,-48,-14,-14
87,151,63,-119,12,107,112,39,-24,-48,-14,-14
82,151,68,-117,7,109,112,39,-24,-43,-14,-14
82,151,68,-117,7,109,112,39,-24,-39,-14,-14
73,146,73,-109,0,109,112,39,-34,-39,-4,-14
68,146,78,-107,-4,112,117,43,-29,-39,-4,-19
68,141,73,-104,-2,107,117,43,-29,-39,-4,-19
68,141,73,-104,-2,107,122,43,-24,-39,-9,-14
78,141,63,-109,7,102,122,53,-9,-34,-9,-19
78,141,63,-109,7,102,126,63,-9,-34,-9,-19
78,141,63,-109,7,102,126,63,-9,-34,-9,-24
78,141,63,-109,7,102,126,63,0,-29,-9,-24
78,141,63,-109,7,102,136,68,-4,-24,0,-24
73,141,68,-107,2,104,141,68,0,-24,0,-24
73,141,68,-107,2,104,146,73,0,-24,0,-24
73,136,63,-104,4,100,151,78,4,-24,4,-24
73,136,63,-104,4,100,146,78,4,-19,-4,-24
73,141,68,-107,2,104,146,82,9,-14,-4,-24
73,141,68,-107,2,104,146,82,9,-14,0,-24
73,141,68,-107,2,104,151,82,9,-14,0,-24
68,141,73,-104,-2,107,161,87,14,-9,0,-29
68,136,68,-102,0,102,161,87,19,-9,0,-29
68,126,58,-97,4,92,161,87,19,-14,0,-29
68,136,68,-102,0,102,165,87,24,-14,0,-29
78,141,63,-109,7,102,156,92,34,-4,9,-19
78,141,63,-109,7,102,161,97,34,-4,9,-19
78,141,63,-109,7,102,161,97,39,-4,9,-19
78,136,58,-107,9,97,161,97,39,-4,9,-19
68,136,68,-102,0,102,161,102,39,4,0,-29
73,141,68,-107,2,104,161,102,43,4,0,-29
73,141,68,-107,2,104,161,102,48,4,0,-29
73,141,68,-107,2,104,161,102,48,9,0,-29
68,141,73,-104,-2,107,170,102,48,4,4,-29
68,141,73,-104,-2,107,170,107,48,4,4,-29
68,141,73,-104,-2,107,170,107,53,4,4,-24
73,141,68,-107,2,104,170,112,53,4,4,-24
82,141,58,-112,12,100,165,102,53,14,9,-24
82,146,63,-114,9,104,165,102,53,14,9,-24
87,146,58,-117,14,102,165,102,48,14,9,-24
87,146,58,-117,14,102,165,102,48,14,9,-24
78,151,73,-114,2,112,165,107,39,4,19,-19
78,151,73,-114,2,112,165,107,39,4,14,-19
82,151,68,-117,7,109,170,107,39,4,14,-19
82,146,63,-114,9,104,170,102,39,4,14,-14
87,146,58,-117,14,102,165,102,34,4,19,-14
87,151,63,-119,12,107,165,102,34,4,19,-14
87,156,68,-122,9,112,165,102,34,4,19,-14
87,156,68,-122,9,112,165,102,29,4,19,-14
87,146,58,-117,14,102,165,92,29,0,19,-14
87,146,58,-117,14,102,165,92,29,0,14,-9
87,146,58,-117,14,102,165,87,29,0,14,-9
87,151,63,-119,12,107,165,87,24,0,14,-9
87,151,63,-119,12,107,156,97,29,9,24,-9
87,151,63,-119,12,107,156,87,24,0,19,-9
87,151,63,-119,12,107,156,87,24,0,19,-9
87,151,63,-119,12,107,156,87,24,0,19,-9
97,161,63,-129,17,112,156,87,24,-9,9,-9
97,161,63,-129,17,112,156,87,24,-9,9,-9
97,161,63,-129,17,112,156,82,19,-9,9,-9
102,165,63,-134,19,114,156,82,19,-9,9,-9
102,165,63,-134,19,114,156,82,14,-9,0,-9
102,170,68,-136,17,119,156,82,14,-9,0,-9
102,170,68,-136,17,119,151,78,9,-14,4,-9
102,170,68,-136,17,119,151,78,9,-14,4,-9
112,170,58,-141,26,114,146,78,9,-14,0,-19
112,170,58,-141,26,114,151,73,9,-14,0,-19
112,170,58,-141,26,114,151,73,9,-19,4,-19
112,175,63,-143,24,119,146,73,4,-19,4,-19
107,175,68,-141,19,122,146,78,4,-24,9,-9
107,175,68,-141,19,122,146,73,0,-14,4,-19
117,180,63,-148,26,122,146,73,9,-14,4,-9
107,180,73,-143,17,126,156,73,14,-9,9,-9
107,175,68,-141,19,122,156,68,9,-19,9,-9
117,175,58,-146,29,117,146,68,0,-19,9,-9
117,175,58,-146,29,117,146,68,0,-19,9,-9
117,175,58,-146,29,117,146,68,0,-19,9,-9
117,175,58,-146,29,117,146,68,0,-19,9,-9
117,175,58,-146,29,117,146,58,0,-9,0,-19
117,180,63,-148,26,122,146,58,0,-9,0,-19
117,180,63,-148,26,122,141,58,0,-9,0,-19
117,180,63,-148,26,122,136,53,-4,-9,0,-19
107,190,82,-148,12,136,146,53,-4,-19,0,-14
107,190,82,-148,12,136,146,53,-4,-19,0,-14
107,190,82,-148,12,136,146,53,-4,-29,0,-14
107,190,82,-148,12,136,146,48,-4,-29,0,-14
102,180,78,-141,12,129,136,48,0,-19,0,-14
102,175,73,-139,14,124,136,48,0,-19,0,-14
102,175,73,-139,14,124,136,48,0,-19,0,-14
102,170,68,-136,17,119,141,48,0,-19,0,-14
112,180,68,-146,21,124,146,48,0,-29,0,-14
112,180,68,-146,21,124,151,58,0,-29,0,-14
112,185,73,-148,19,129,151,63,4,-29,0,-14
112,190,78,-151,17,134,151,63,4,-24,0,-14
117,190,73,-153,21,131,161,73,9,-24,0,-14
117,190,73,-153,21,131,161,73,9,-24,0,-14
126,195,68,-161,29,131,161,82,9,-24,0,-14
136,195,58,-165,39,126,161,82,9,-24,4,-9
136,200,63,-168,36,131,161,82,14,-24,4,-9
136,200,63,-168,36,131,165,92,24,-19,9,-4
136,204,68,-170,34,136,170,92,29,-9,14,-4
141,214,73,-178,34,143,175,97,39,-4,19,4
156,219,63,-187,46,141,185,107,43,0,24,9
156,224,68,-190,43,146,190,112,48,4,29,9
156,229,73,-192,41,151,195,112,53,9,29,9
161,234,73,-197,43,153,200,112,58,14,34,9
170,234,63,-202,53,148,190,117,63,29,48,29
170,244,73,-207,48,158,190,117,68,34,53,29
165,253,87,-209,39,170,185,117,73,39,58,34
165,253,87,-209,39,170,175,117,73,39,58,43
175,273,97,-224,39,185,170,122,78,43,58,43
175,273,97,-224,39,185,151,117,68,43,58,43
175,273,97,-224,39,185,136,102,63,43,58,43
180,263,82,-222,48,173,126,97,53,34,58,43
170,258,87,-214,41,173,112,87,43,19,53,43
170,248,78,-209,46,163,107,78,34,19,48,34
170,239,68,-204,51,153,102,68,24,14,48,29
161,229,68,-195,46,148,87,58,14,9,39,29
156,214,58,-185,48,136,78,34,4,-4,34,24
141,204,63,-173,39,134,78,19,0,-9,29,19
141,200,58,-170,41,129,73,9,-4,-14,24,19
136,195,58,-165,39,126,73,9,-9,-14,24,19
126,185,58,-156,34,122,78,9,-19,-24,14,19
126,185,58,-156,34,122,78,9,-19,-24,14,29
126,185,58,-156,34,122,78,9,-19,-19,19,34
126,190,63,-158,31,126,78,9,-19,-19,19,34
126,190,63,-158,31,126,68,0,-24,-9,19,43
126,190,63,-158,31,126,68,0,-24,-9,24,43
126,185,58,-156,34,122,73,4,-19,-4,24,43
126,185,58,-156,34,122,78,9,-19,4,24,48
126,175,48,-151,39,112,82,14,-9,4,34,58
126,175,48,-151,39,112,87,19,-4,4,34,58
122,175,53,-148,34,114,87,19,-4,4,34,58
117,170,53,-143,31,112,87,19,-9,4,34,58
102,165,63,-134,19,114,87,19,-19,-4,34,53
102,161,58,-131,21,109,87,9,-19,-9,29,48
97,156,58,-126,19,107,87,9,-24,-14,24,43
92,141,48,-117,21,95,92,9,-34,-19,14,39
87,131,43,-109,21,87,92,9,-43,-43,0,34
73,122,48,-97,12,85,97,9,-43,-43,-4,29
53,112,58,-82,-2,85,102,9,-48,-43,-9,24
53,102,48,-78,2,75,107,9,-48,-53,-24,9
43,87,43,-65,0,65,112,19,-39,-58,-24,0
39,82,43,-61,-2,63,117,19,-39,-63,-29,-4
29,78,48,-53,-9,63,117,19,-48,-63,-34,-4
24,73,48,-48,-12,61,117,14,-53,-68,-34,-9
24,58,34,-41,-4,46,117,4,-53,-73,-39,-19
24,58,34,-41,-4,46,117,4,-53,-73,-43,-19
24,58,34,-41,-4,46,117,4,-53,-73,-48,-24
19,58,39,-39,-9,48,117,4,-53,-73,-53,-24
19,68,48,-43,-14,58,107,-4,-53,-73,-43,-24
19,68,48,-43,-14,58,107,-4,-53,-73,-43,-24
14,68,53,-41,-19,61,107,-4,-58,-78,-53,-24
14,63,48,-39,-17,56,117,-4,-58,-82,-58,-34
14,53,39,-34,-12,46,131,14,-58,-78,-53,-19
-9,39,48,-14,-29,43,136,9,-63,-92,-63,-34
-24,24,48,0,-36,36,156,19,-53,-102,-73,-43
-39,19,58,9,-48,39,185,34,-29,-112,-87,-63
-68,29,97,19,-82,63,224,53,-14,-122,-107,-78
-92,29,122,31,-107,75,248,53,0,-131,-126,-97
-107,43,151,31,-129,97,278,53,19,-141,-136,-112
-126,63,190,31,-158,126,292,63,53,-131,-131,-112
-136,82,219,26,-178,151,297,68,92,-117,-131,-107
-126,117,244,4,-185,180,297,73,131,-87,-117,-97
-136,151,287,-7,-212,219,322,112,180,-73,-102,-92
-156,175,331,-9,-244,253,351,151,234,-48,-87,-87
-165,224,390,-29,-278,307,380,170,273,-24,-78,-73
-156,287,444,-65,-300,366,356,126,263,-19,-63,-68
-146,331,478,-92,-312,405,283,39,200,-19,-53,-63
-131,380,512,-124,-322,446,190,-63,136,0,-34,-43
-102,463,566,-180,-334,514,48,-224,73,29,-4,0
-48,585,634,-268,-341,610,-161,-444,-9,92,68,53
14,727,712,-370,-348,719,-405,-688,-82,204,165,146
97,849,751,-473,-326,800,-668,-922,-156,312,263,234
190,941,751,-566,-280,846,-927,-1166,-248,419,361,312
278,1000,722,-639,-222,861,-1171,-1405,-356,488,448,395
356,1063,707,-710,-175,885,-1385,-1634,-463,556,531,483
453,1117,663,-785,-104,890,-1610,-1849,-566,619,614,570
536,1122,585,-829,-24,854,-1771,-1966,-639,653,663,619
585,1063,478,-824,53,771,-1859,-2010,-727,605,673,649
634,980,346,-807,143,663,-1922,-2044,-854,522,653,658
678,907,229,-793,224,568,-2005,-2078,-1024,419,619,668
722,863,141,-793,290,502,-2074,-2117,-1278,253,570,668
775,790,14,-783,380,402,-2088,-2132,-1566,39,488,663
795,649,-146,-722,470,251,-2015,-2064,-1820,-209,361,614
805,458,-346,-631,575,56,-1903,-1942,-1937,-424,229,546
814,287,-527,-551,671,-119,-1766,-1756,-1927,-556,131,473
824,117,-707,-470,766,-295,-1595,-1522,-1830,-624,39,405
814,-92,-907,-361,861,-500,-1376,-1273,-1712,-673,-39,331
805,-292,-1098,-256,951,-695,-1161,-1000,-1551,-673,-97,263
805,-405,-1210,-200,1007,-807,-980,-766,-1371,-629,-117,224
800,-429,-1229,-185,1015,-829,-814,-590,-1210,-570,-97,219
771,-400,-1171,-185,971,-785,-688,-453,-1034,-473,-53,234
736,-322,-1058,-207,897,-690,-575,-341,-858,-361,4,263
697,-248,-946,-224,822,-597,-497,-273,-732,-278,43,273
653,-204,-858,-224,756,-531,-439,-248,-653,-248,43,263
585,-190,-775,-197,680,-483,-390,-229,-595,-239,29,234
527,-180,-707,-173,617,-444,-336,-219,-536,-234,-4,195
468,-185,-653,-141,561,-419,-283,-200,-502,-248,-43,161
414,-190,-605,-112,509,-397,-248,-200,-473,-258,-63,126
351,-175,-527,-87,439,-351,-214,-204,-448,-263,-87,107
287,-156,-444,-65,366,-300,-180,-190,-400,-258,-97,78
244,-136,-380,-53,312,-258,-136,-165,-356,-239,-107,58
190,-131,-322,-29,256,-226,-97,-136,-322,-229,-107,43
146,-117,-263,-14,204,-190,-63,-102,-263,-204,-107,29
87,-117,-204,14,146,-161,-24,-63,-209,-180,-97,9
43,-107,-151,31,97,-129,19,-24,-165,-151,-97,-9
14,-92,-107,39,61,-100,63,19,-122,-141,-92,-14
0,-92,-92,46,46,-92,92,48,-82,-122,-78,-29
-14,-78,-63,46,24,-70,107,68,-68,-117,-68,-34
-14,-73,-58,43,21,-65,107,78,-53,-107,-78,-34
-24,-78,-53,51,14,-65,117,73,-48,-97,-78,-39
-24,-78,-53,51,14,-65,117,78,-39,-97,-78,-39
-24,-78,-53,51,14,-65,122,82,-34,-92,-78,-39
-29,-78,-48,53,9,-63,126,87,-29,-92,-73,-39
-43,-82,-39,63,-2,-61,131,87,-24,-92,-82,-48
-48,-82,-34,65,-7,-58,131,87,-19,-87,-82,-48
-53,-82,-29,68,-12,-56,136,87,-19,-87,-87,-48
-58,-82,-24,70,-17,-53,136,92,-19,-92,-87,-48
-63,-92,-29,78,-17,-61,136,102,-14,-92,-78,-53
-63,-92,-29,78,-17,-61,136,102,-14,-87,-78,-53
-63,-92,-29,78,-17,-61,141,102,-14,-87,-78,-48
-73,-97,-24,85,-24,-61,141,102,-9,-87,-82,-48
-82,-87,-4,85,-39,-46,136,102,-14,-97,-82,-58
-87,-87,0,87,-43,-43,136,102,-14,-97,-82,-53
-87,-92,-4,90,-41,-48,136,102,-9,-97,-82,-53
-87,-92,-4,90,-41,-48,136,102,-9,-97,-82,-53
-87,-107,-19,97,-34,-63,136,102,-14,-107,-87,-53
-87,-107,-19,97,-34,-63,136,102,-14,-107,-92,-48
-92,-107,-14,100,-39,-61,131,102,-9,-107,-97,-43
-92,-107,-14,100,-39,-61,131,102,-4,-107,-102,-43
-92,-117,-24,104,-34,-70,131,97,0,-92,-92,-34
-92,-117,-24,104,-34,-70,126,97,0,-92,-92,-34
-92,-117,-24,104,-34,-70,122,102,0,-92,-92,-34
-92,-117,-24,104,-34,-70,122,102,4,-92,-92,-34
-102,-117,-14,109,-43,-65,126,112,-4,-92,-92,-34
-97,-122,-24,109,-36,-73,126,112,0,-92,-87,-29
-97,-122,-24,109,-36,-73,126,117,9,-97,-87,-29
-92,-126,-34,109,-29,-80,131,117,14,-102,-82,-24
-102,-117,-14,109,-43,-65,131,112,14,-92,-82,-24
-97,-117,-19,107,-39,-68,131,117,14,-82,-82,-24
-97,-117,-19,107,-39,-68,131,117,24,-73,-73,-24
-92,-117,-24,104,-34,-70,131,122,29,-68,-73,-29
-82,-117,-34,100,-24,-75,131,131,34,-78,-73,-29
-82,-117,-34,100,-24,-75,131,131,39,-68,-68,-29
-82,-112,-29,97,-26,-70,131,131,39,-68,-68,-39
-82,-112,-29,97,-26,-70,131,131,43,-68,-68,-43
-92,-112,-19,102,-36,-65,141,136,39,-58,-73,-48
-92,-112,-19,102,-36,-65,146,141,43,-58,-73,-48
-92,-112,-19,102,-36,-65,146,141,48,-48,-68,-53
-92,-112,-19,102,-36,-65,146,141,53,-48,-68,-53
-92,-102,-9,97,-41,-56,151,141,53,-58,-78,-68
-102,-102,0,102,-51,-51,151,141,58,-58,-73,-68
-102,-102,0,102,-51,-51,156,151,63,-53,-68,-68
-92,-102,-9,97,-41,-56,156,156,73,-43,-68,-68
-102,-112,-9,107,-46,-61,151,156,87,-48,-68,-73
-107,-112,-4,109,-51,-58,161,161,92,-43,-68,-78
-107,-112,-4,109,-51,-58,161,165,92,-39,-63,-82
-102,-107,-4,104,-48,-56,161,170,97,-34,-63,-87
-92,-107,-14,100,-39,-61,170,185,107,-19,-58,-82
-92,-107,-14,100,-39,-61,170,190,122,-14,-58,-82
-87,-107,-19,97,-34,-63,170,195,126,-9,-48,-78
-87,-102,-14,95,-36,-58,175,200,136,0,-43,-78
-92,-102,-9,97,-41,-56,185,209,151,14,-39,-73
-92,-102,-9,97,-41,-56,190,214,165,19,-34,-63
-92,-97,-4,95,-43,-51,200,229,175,29,-29,-58
-92,-97,-4,95,-43,-51,204,239,190,39,-24,-48
-97,-107,-9,102,-43,-58,209,239,204,43,-14,-53
-87,-107,-19,97,-34,-63,214,253,214,53,-9,-48
-82,-102,-19,92,-31,-61,219,263,229,63,0,-43
-78,-97,-19,87,-29,-58,224,273,239,78,4,-39
-82,-92,-9,87,-36,-51,224,287,253,92,9,-43
-78,-92,-14,85,-31,-53,229,297,273,102,19,-39
-78,-87,-9,82,-34,-48,234,317,292,122,24,-34
-73,-87,-14,80,-29,-51,244,331,317,136,34,-29
-63,-78,-14,70,-24,-46,239,331,336,136,53,-19
-53,-63,-9,58,-21,-36,244,346,361,156,63,-19
-43,-48,-4,46,-19,-26,258,366,390,175,73,-14
-43,-34,9,39,-26,-12,258,380,414,195,82,-9
-34,-29,4,31,-19,-12,273,405,429,204,87,0
-34,-24,9,29,-21,-7,278,429,458,224,97,14
-29,-24,4,26,-17,-9,287,439,483,244,112,19
-34,-19,14,26,-24,-2,292,463,517,273,122,29
-19,-24,-4,21,-7,-14,297,492,546,297,131,43
-9,-19,-9,14,0,-14,307,512,585,326,151,53
-9,-9,0,9,-4,-4,312,527,614,346,165,63
0,4,4,-2,-2,4,317,546,644,366,175,73
-4,4,9,0,-7,7,322,566,673,390,185,68
0,14,14,-7,-7,14,322,575,712,409,195,68
9,19,9,-14,0,14,326,595,736,429,204,78
9,19,9,-14,0,14,336,610,766,444,214,92
4,39,34,-21,-14,36,336,619,785,458,234,92
4,48,43,-26,-19,46,336,634,805,478,248,97
14,58,43,-36,-14,51,336,644,829,497,258,107
19,63,43,-41,-12,53,336,653,849,507,268,112
14,68,53,-41,-19,61,336,673,868,527,278,131
14,73,58,-43,-21,65,336,683,888,546,292,141
14,73,58,-43,-21,65,331,683,907,556,297,151
19,78,58,-48,-19,68,326,692,917,570,307,156
29,87,58,-58,-14,73,317,692,922,585,317,156
29,82,53,-56,-12,68,312,692,932,595,326,161
29,82,53,-56,-12,68,307,692,932,600,336,165
34,82,48,-58,-7,65,302,692,936,610,341,170
24,102,78,-63,-26,90,278,678,936,619,346,161
29,107,78,-68,-24,92,268,673,936,624,351,170
29,112,82,-70,-26,97,258,663,927,629,356,175
29,117,87,-73,-29,102,253,653,912,629,356,180
39,126,87,-82,-24,107,244,634,912,634,361,190
39,126,87,-82,-24,107,229,619,893,624,361,190
39,126,87,-82,-24,107,214,605,878,619,361,195
43,136,92,-90,-24,114,195,585,854,610,361,195
43,126,82,-85,-19,104,195,566,824,605,366,195
39,126,87,-82,-24,107,180,546,800,595,361,195
39,126,87,-82,-24,107,161,527,766,580,356,195
39,126,87,-82,-24,107,151,497,732,556,341,195
29,122,92,-75,-31,107,136,463,707,527,331,185
29,122,92,-75,-31,107,126,439,663,502,317,180
19,122,102,-70,-41,112,117,414,629,478,302,175
14,112,97,-63,-41,104,107,390,585,453,278,170
14,97,82,-56,-34,90,92,356,556,444,268,170
19,92,73,-56,-26,82,78,331,512,409,258,170
24,87,63,-56,-19,75,68,307,478,390,253,170
24,82,58,-53,-17,70,58,283,439,366,244,170
14,63,48,-39,-17,56,39,248,409,346,239,175
9,63,53,-36,-21,58,29,224,375,326,224,175
4,53,48,-29,-21,51,24,200,336,297,209,170
0,43,43,-21,-21,43,19,185,307,268,195,161
-4,43,48,-19,-26,46,19,156,253,239,161,136
-9,39,48,-14,-29,43,14,136,224,214,146,126
-14,24,39,-4,-26,31,9,117,195,200,136,122
-19,14,34,2,-26,24,4,107,165,170,122,117
-29,14,43,7,-36,29,-9,87,136,136,97,102
-43,4,48,19,-46,26,-14,68,112,117,82,87
-53,-4,48,29,-51,21,-14,48,92,97,73,73
-63,-14,48,39,-56,17,-14,29,68,82,58,58
-68,-29,39,48,-53,4,-14,34,53,58,43,53
-68,-39,29,53,-48,-4,-14,24,39,48,29,48
-73,-43,29,58,-51,-7,-19,14,29,34,19,48
-73,-48,24,61,-48,-12,-19,4,14,19,9,39
-82,-58,24,70,-53,-17,-9,4,0,14,9,43
-87,-68,19,78,-53,-24,-9,0,-14,9,4,39
-87,-82,4,85,-46,-39,-4,-4,-19,0,0,29
-87,-97,-9,92,-39,-53,-4,-9,-29,-9,-4,24
-82,-92,-9,87,-36,-51,-9,-19,-48,-29,-9,19
-82,-87,-4,85,-39,-46,-14,-19,-48,-34,-14,14
-82,-92,-9,87,-36,-51,-19,-24,-53,-39,-24,9
-82,-87,-4,85,-39,-46,-24,-24,-63,-43,-29,9
-92,-97,-4,95,-43,-51,-24,-39,-68,-48,-29,0
-92,-97,-4,95,-43,-51,-19,-39,-68,-53,-34,0
-92,-107,-14,100,-39,-61,-19,-43,-73,-58,-34,0
-92,-107,-14,100,-39,-61,-19,-43,-78,-58,-34,0
-97,-117,-19,107,-39,-68,-19,-43,-78,-58,-39,0
-97,-117,-19,107,-39,-68,-19,-43,-78,-58,-39,-4
-92,-117,-24,104,-34,-70,-19,-39,-78,-58,-39,-4
-92,-117,-24,104,-34,-70,-19,-39,-82,-63,-39,-4
-92,-126,-34,109,-29,-80,-14,-43,-92,-78,-53,-4
-97,-126,-29,112,-34,-78,-14,-43,-92,-78,-53,-4
-102,-131,-29,117,-36,-80,-14,-43,-92,-78,-53,0
-107,-131,-24,119,-41,-78,-14,-43,-92,-78,-53,0
-107,-122,-14,114,-46,-68,-24,-43,-82,-68,-53,0
-102,-117,-14,109,-43,-65,-24,-43,-82,-73,-48,0
-92,-117,-24,104,-34,-70,-24,-43,-82,-73,-48,0
-87,-112,-24,100,-31,-68,-24,-43,-82,-73,-48,0
-82,-112,-29,97,-26,-70,-24,-43,-92,-87,-58,0
-87,-112,-24,100,-31,-68,-24,-43,-92,-87,-58,0
-92,-117,-24,104,-34,-70,-24,-43,-97,-82,-58,-4
-102,-126,-24,114,-39,-75,-24,-43,-102,-82,-58,-4
-97,-117,-19,107,-39,-68,-24,-43,-102,-73,-58,0
-97,-117,-19,107,-39,-68,-24,-43,-97,-73,-58,0
-87,-112,-24,100,-31,-68,-24,-43,-97,-73,-58,0
-82,-107,-24,95,-29,-65,-24,-43,-97,-73,-58,0
-92,-97,-4,95,-43,-51,-24,-53,-97,-87,-58,-9
-92,-102,-9,97,-41,-56,-24,-48,-92,-87,-58,-9
-92,-102,-9,97,-41,-56,-24,-48,-92,-87,-58,-9
-92,-97,-4,95,-43,-51,-24,-48,-97,-82,-58,-9
-92,-112,-19,102,-36,-65,-24,-48,-97,-82,-58,0
-92,-122,-29,107,-31,-75,-24,-48,-92,-87,-58,0
-97,-126,-29,112,-34,-78,-24,-48,-92,-87,-58,0
-97,-131,-34,114,-31,-82,-24,-48,-92,-87,-58,0
-107,-131,-24,119,-41,-78,-29,-58,-97,-97,-68,-9
-112,-136,-24,124,-43,-80,-29,-58,-102,-97,-68,-9
-112,-136,-24,124,-43,-80,-29,-58,-107,-97,-68,-9
-112,-136,-24,124,-43,-80,-29,-58,-112,-97,-68,-9
-112,-146,-34,129,-39,-90,-29,-48,-102,-107,-78,-19
-122,-146,-24,134,-48,-85,-29,-48,-102,-107,-78,-19
-122,-146,-24,134,-48,-85,-29,-53,-102,-107,-78,-19
-122,-146,-24,134,-48,-85,-34,-53,-102,-107,-78,-19
-122,-161,-39,141,-41,-100,-34,-63,-112,-97,-78,-19
-122,-161,-39,141,-41,-100,-34,-58,-112,-102,-78,-24
-122,-161,-39,141,-41,-100,-34,-53,-117,-102,-78,-24
-131,-161,-29,146,-51,-95,-29,-53,-117,-102,-78,-24
-131,-156,-24,143,-53,-90,-39,-58,-107,-97,-73,-29
-131,-161,-29,146,-51,-95,-39,-58,-107,-97,-73,-29
-136,-161,-24,148,-56,-92,-39,-53,-107,-92,-73,-29
-136,-161,-24,148,-56,-92,-39,-48,-107,-92,-73,-29
-146,-165,-19,156,-63,-92,-24,-48,-117,-112,-78,-34
-146,-170,-24,158,-61,-97,-24,-48,-112,-117,-82,-34
-151,-175,-24,163,-63,-100,-24,-48,-112,-117,-87,-34
-151,-180,-29,165,-61,-104,-24,-48,-112,-117,-92,-34
-151,-185,-34,168,-58,-109,-24,-48,-112,-117,-92,-34
-156,-185,-29,170,-63,-107,-19,-43,-107,-117,-92,-39
-156,-190,-34,173,-61,-112,-19,-43,-107,-117,-92,-39
-156,-190,-34,173,-61,-112,-14,-43,-102,-117,-97,-34
-156,-180,-24,168,-65,-102,-24,-43,-107,-102,-87,-39
-156,-180,-24,168,-65,-102,-19,-34,-107,-102,-87,-39
-156,-180,-24,168,-65,-102,-19,-34,-107,-102,-87,-43
-156,-180,-24,168,-65,-102,-19,-34,-97,-97,-87,-43
-161,-190,-29,175,-65,-109,-19,-39,-92,-102,-87,-43
-170,-190,-19,180,-75,-104,-14,-39,-87,-102,-87,-43
-175,-190,-14,183,-80,-102,-9,-34,-87,-102,-87,-43
-180,-195,-14,187,-82,-104,-4,-29,-82,-102,-82,-43
-170,-204,-34,187,-68,-119,-9,-19,-73,-97,-82,-34
-170,-200,-29,185,-70,-114,-9,-14,-68,-92,-82,-34
-170,-200,-29,185,-70,-114,-9,-14,-68,-92,-78,-34
-170,-200,-29,185,-70,-114,-4,-14,-68,-92,-78,-34
-175,-200,-24,187,-75,-112,-4,-9,-63,-97,-87,-34
-175,-204,-29,190,-73,-117,-4,-9,-58,-97,-87,-39
-175,-214,-39,195,-68,-126,-4,-9,-58,-102,-87,-43
-175,-204,-29,190,-73,-117,0,-9,-53,-102,-87,-48
-185,-209,-24,197,-80,-117,0,-14,-63,-82,-87,-58
-185,-209,-24,197,-80,-117,4,-9,-63,-82,-87,-58
-185,-209,-24,197,-80,-117,4,-9,-58,-82,-87,-58
-185,-214,-29,200,-78,-122,4,-9,-58,-82,-87,-58
-185,-214,-29,200,-78,-122,-4,-4,-58,-82,-78,-48
-180,-209,-29,195,-75,-119,-4,-4,-53,-82,-78,-48
-180,-209,-29,195,-75,-119,-4,-4,-48,-82,-78,-48
-180,-209,-29,195,-75,-119,-4,-4,-48,-78,-78,-48
-175,-209,-34,192,-70,-122,4,-4,-48,-78,-82,-39
-175,-209,-34,192,-70,-122,4,0,-48,-82,-82,-39
-175,-209,-34,192,-70,-122,4,0,-43,-87,-82,-34
-170,-209,-39,190,-65,-124,4,4,-43,-92,-82,-34
-180,-219,-39,200,-70,-129,0,4,-43,-87,-78,-34
-180,-214,-34,197,-73,-124,0,4,-43,-82,-78,-34
-175,-214,-39,195,-68,-126,0,4,-48,-78,-78,-34
-175,-214,-39,195,-68,-126,0,4,-48,-73,-78,-34
-185,-209,-24,197,-80,-117,0,-9,-48,-82,-78,-48
-185,-209,-24,197,-80,-117,0,-9,-48,-82,-82,-48
-180,-209,-29,195,-75,-119,4,-9,-48,-82,-82,-48
-180,-214,-34,197,-73,-124,4,-14,-48,-82,-82,-43
-185,-224,-39,204,-73,-131,0,-14,-63,-92,-87,-43
-185,-219,-34,202,-75,-126,0,-14,-63,-92,-87,-43
-185,-214,-29,200,-78,-122,0,-14,-63,-92,-87,-43
-185,-214,-29,200,-78,-122,0,-14,-68,-92,-87,-43
-185,-224,-39,204,-73,-131,0,-14,-68,-87,-78,-43
-185,-224,-39,204,-73,-131,0,-14,-68,-87,-82,-39
-185,-224,-39,204,-73,-131,0,-19,-68,-87,-82,-39
-185,-219,-34,202,-75,-126,0,-19,-73,-87,-82,-39
-185,-209,-24,197,-80,-117,0,-19,-78,-78,-82,-39
-185,-209,-24,197,-80,-117,0,-29,-82,-87,-87,-39
-185,-209,-24,197,-80,-117,0,-29,-82,-87,-87,-39
-185,-209,-24,197,-80,-117,0,-29,-82,-87,-87,-39
-175,-209,-34,192,-70,-122,-9,-29,-82,-97,-97,-39
-175,-209,-34,192,-70,-122,-9,-29,-82,-97,-97,-39
-175,-209,-34,192,-70,-122,-9,-34,-87,-97,-97,-39
-170,-204,-34,187,-68,-119,-9,-34,-87,-97,-97,-39
-170,-214,-43,192,-63,-129,-19,-34,-82,-97,-97,-39
-170,-209,-39,190,-65,-124,-19,-34,-82,-97,-97,-39
-170,-209,-39,190,-65,-124,-24,-39,-87,-102,-92,-39
-170,-209,-39,190,-65,-124,-24,-39,-87,-102,-92,-39
-161,-200,-39,180,-61,-119,-19,-39,-97,-112,-87,-39
-165,-214,-48,190,-58,-131,-19,-39,-97,-117,-97,-39
-175,-224,-48,200,-63,-136,-19,-39,-97,-107,-107,-48
-175,-224,-48,200,-63,-136,-19,-39,-97,-107,-107,-48
-175,-224,-48,200,-63,-136,-19,-39,-97,-107,-107,-48
-175,-224,-48,200,-63,-136,-19,-39,-97,-107,-107,-48
-185,-224,-39,204,-73,-131,-29,-48,-107,-112,-107,-48
-185,-219,-34,202,-75,-126,-29,-48,-107,-117,-107,-48
-185,-219,-34,202,-75,-126,-34,-48,-107,-122,-107,-48
-185,-219,-34,202,-75,-126,-39,-53,-112,-126,-107,-48
-175,-219,-43,197,-65,-131,-29,-53,-112,-112,-97,-53
-175,-219,-43,197,-65,-131,-29,-53,-112,-107,-97,-53
-175,-219,-43,197,-65,-131,-29,-53,-112,-112,-97,-53
-175,-219,-43,197,-65,-131,-29,-58,-112,-107,-97,-53
-180,-224,-43,202,-68,-134,-29,-58,-117,-117,-97,-53
-180,-224,-43,202,-68,-134,-29,-58,-117,-117,-97,-53
-180,-219,-39,200,-70,-129,-29,-58,-117,-117,-97,-53
-180,-219,-39,200,-70,-129,-24,-58,-117,-117,-97,-53
-170,-229,-58,200,-56,-143,-9,-48,-107,-126,-97,-53
-170,-229,-58,200,-56,-143,-4,-39,-107,-126,-97,-53
-170,-224,-53,197,-58,-139,-4,-34,-102,-126,-97,-53
-170,-219,-48,195,-61,-134,-4,-34,-102,-122,-97,-53
-175,-219,-43,197,-65,-131,-14,-34,-107,-122,-107,-53
-175,-219,-43,197,-65,-131,-14,-34,-107,-122,-107,-53
-165,-214,-48,190,-58,-131,-14,-24,-107,-122,-107,-53
-156,-214,-58,185,-48,-136,-14,-24,-107,-122,-102,-48
-156,-200,-43,178,-56,-122,-4,-34,-102,-122,-102,-48
-156,-200,-43,178,-56,-122,0,-24,-92,-117,-97,-43
-156,-195,-39,175,-58,-117,4,-24,-87,-107,-92,-43
-151,-185,-34,168,-58,-109,9,-19,-78,-102,-87,-34
-156,-185,-29,170,-63,-107,19,-19,-73,-87,-73,-29
-156,-185,-29,170,-63,-107,24,-14,-68,-82,-68,-29
-156,-185,-29,170,-63,-107,29,-14,-63,-78,-68,-29
-151,-185,-34,168,-58,-109,34,-14,-58,-73,-63,-29
-141,-165,-24,153,-58,-95,24,-9,-63,-73,-68,-29
-141,-156,-14,148,-63,-85,24,-9,-58,-73,-63,-29
-146,-146,0,146,-73,-73,19,-9,-53,-73,-58,-24
-146,-146,0,146,-73,-73,9,-9,-53,-78,-58,-14
-126,-136,-9,131,-58,-73,-14,-24,-58,-82,-68,-14
-126,-136,-9,131,-58,-73,-34,-29,-68,-82,-68,-14
-126,-136,-9,131,-58,-73,-48,-43,-73,-82,-68,-14
-122,-146,-24,134,-48,-85,-58,-48,-82,-92,-68,-14
-131,-156,-24,143,-53,-90,-63,-39,-92,-97,-63,-4
-131,-170,-39,151,-46,-104,-68,-48,-102,-97,-68,-14
-131,-185,-53,158,-39,-119,-73,-58,-112,-102,-68,-19
-141,-200,-58,170,-41,-129,-87,-68,-122,-107,-78,-19
-146,-200,-53,173,-46,-126,-97,-82,-122,-112,-82,-24
-161,-204,-43,183,-58,-124,-97,-97,-126,-117,-87,-29
-161,-204,-43,183,-58,-124,-102,-107,-131,-122,-92,-29
-165,-204,-39,185,-63,-122,-102,-107,-136,-122,-92,-29
-165,-200,-34,183,-65,-117,-107,-117,-136,-112,-92,-39
-165,-195,-29,180,-68,-112,-107,-117,-136,-112,-92,-29
-165,-190,-24,178,-70,-107,-107,-117,-136,-107,-87,-24
-165,-180,-14,173,-75,-97,-107,-117,-136,-107,-87,-24
-175,-195,-19,185,-78,-107,-97,-107,-131,-112,-87,-34
-175,-200,-24,187,-75,-112,-97,-107,-131,-117,-82,-34
-175,-209,-34,192,-70,-122,-92,-102,-126,-117,-82,-34
-175,-214,-39,195,-68,-126,-87,-97,-126,-112,-82,-29
-175,-209,-34,192,-70,-122,-82,-92,-117,-102,-78,-29
-175,-204,-29,190,-73,-117,-78,-87,-112,-102,-82,-29
-180,-200,-19,190,-80,-109,-78,-87,-112,-102,-87,-29
-185,-200,-14,192,-85,-107,-78,-87,-117,-102,-92,-29
-190,-209,-19,200,-85,-114,-78,-97,-131,-117,-102,-34
-190,-219,-29,204,-80,-124,-78,-107,-136,-126,-107,-39
-195,-229,-34,212,-80,-131,-78,-107,-146,-136,-112,-43
-200,-248,-48,224,-75,-148,-73,-107,-161,-146,-122,-48
-204,-258,-53,231,-75,-156,-73,-107,-161,-161,-117,-63
-219,-268,-48,244,-85,-158,-68,-107,-161,-161,-122,-68
-239,-278,-39,258,-100,-158,-63,-107,-165,-161,-126,-73
-239,-287,-48,263,-95,-168,-58,-107,-165,-170,-141,-87
-244,-287,-43,265,-100,-165,-53,-107,-156,-165,-131,-82
-244,-287,-43,265,-100,-165,-48,-107,-156,-170,-136,-82
-248,-287,-39,268,-104,-163,-48,-107,-165,-170,-141,-78
-248,-287,-39,268,-104,-163,-48,-112,-170,-175,-141,-78
-239,-283,-43,261,-97,-163,-58,-112,-170,-170,-141,-87
-239,-283,-43,261,-97,-163,-58,-112,-170,-170,-141,-87
-239,-283,-43,261,-97,-163,-58,-112,-170,-170,-141,-92
-244,-283,-39,263,-102,-161,-58,-112,-170,-170,-141,-92
-253,-292,-39,273,-107,-165,-48,-112,-170,-180,-151,-92
-253,-292,-39,273,-107,-165,-48,-112,-170,-180,-151,-92
-258,-292,-34,275,-112,-163,-48,-112,-175,-185,-161,-92
-258,-297,-39,278,-109,-168,-39,-112,-175,-190,-165,-102
-258,-297,-39,278,-109,-168,-14,-92,-156,-204,-170,-107
-273,-302,-29,287,-122,-165,0,-78,-151,-209,-180,-122
-287,-317,-29,302,-129,-173,29,-68,-131,-219,-200,-131
-322,-322,0,322,-161,-161,68,-63,-126,-239,-214,-151
-351,-322,29,336,-190,-146,97,-63,-112,-258,-234,-175
-375,-312,63,344,-219,-124,122,-53,-78,-248,-244,-175
-380,-287,92,334,-236,-97,141,-53,-48,-239,-253,-180
-390,-248,141,319,-265,-53,146,-63,-24,-229,-239,-180
-390,-209,180,300,-285,-14,151,-48,14,-204,-229,-175
-390,-175,214,283,-302,19,180,-24,63,-195,-234,-175
-400,-141,258,270,-329,58,204,4,112,-200,-229,-180
-409,-87,322,248,-366,117,214,24,136,-195,-224,-175
-390,-29,361,209,-375,165,204,4,126,-180,-204,-161
-380,24,405,178,-392,214,141,-48,87,-165,-190,-146
-380,97,478,141,-429,287,39,-146,34,-126,-161,-122
-356,175,531,90,-444,353,-82,-268,-29,-78,-112,-82
-297,297,595,0,-446,446,-273,-448,-92,9,-34,-9
-224,439,663,-107,-444,551,-502,-668,-156,131,68,82
-141,570,712,-214,-427,641,-746,-873,-239,253,175,185
-48,653,702,-302,-375,678,-980,-1078,-341,361,283,263
24,707,683,-366,-329,695,-1210,-1302,-463,448,370,341
102,766,663,-434,-280,714,-1424,-1532,-600,517,448,424
180,819,639,-500,-229,729,-1620,-1712,-688,595,531,502
239,814,575,-527,-168,695,-1756,-1810,-751,629,575,551
283,741,458,-512,-87,600,-1810,-1839,-834,575,566,551
322,653,331,-488,-4,492,-1869,-1883,-990,458,527,561
370,580,209,-475,80,395,-1961,-1947,-1224,297,488,570
414,527,112,-470,151,319,-2054,-2010,-1522,107,434,570
448,444,-4,-446,226,219,-2074,-2010,-1805,-97,356,561
483,292,-190,-387,336,51,-2020,-1947,-2015,-312,253,527
512,122,-390,-317,451,-134,-1898,-1800,-2103,-502,146,458
531,-58,-590,-236,561,-324,-1747,-1610,-2044,-619,53,400
512,-248,-761,-131,636,-505,-1561,-1385,-1927,-692,-24,346
522,-468,-990,-26,756,-729,-1351,-1132,-1781,-732,-97,278
512,-658,-1171,73,841,-915,-1132,-863,-1595,-702,-136,224
492,-771,-1263,139,878,-1017,-936,-639,-1395,-634,-146,195
492,-775,-1268,141,880,-1022,-785,-473,-1205,-541,-117,195
478,-712,-1190,117,834,-951,-668,-346,-1015,-434,-58,219
439,-624,-1063,92,751,-844,-580,-278,-849,-336,-4,244
405,-566,-971,80,688,-768,-507,-234,-741,-292,14,244
366,-551,-917,92,641,-734,-439,-214,-683,-287,-4,224
312,-536,-849,112,580,-692,-390,-209,-624,-287,-43,175
263,-541,-805,139,534,-673,-351,-200,-585,-307,-87,126
204,-541,-746,168,475,-644,-317,-200,-566,-331,-122,87
175,-527,-702,175,439,-614,-283,-200,-551,-356,-151,63
122,-522,-644,200,383,-583,-248,-200,-512,-346,-170,39
48,-517,-566,234,307,-541,-214,-195,-458,-331,-185,9
4,-507,-512,251,258,-509,-180,-180,-429,-317,-195,-19
-29,-478,-448,253,209,-463,-156,-165,-385,-307,-204,-39
-63,-453,-390,258,163,-422,-136,-146,-341,-297,-204,-53
-117,-439,-322,278,102,-380,-102,-112,-302,-273,-204,-68
-146,-419,-273,283,63,-346,-63,-92,-248,-229,-185,-78
-180,-400,-219,290,19,-309,-39,-63,-204,-209,-175,-87
-209,-375,-165,292,-21,-270,-14,-48,-180,-200,-180,-102
-214,-356,-141,285,-36,-248,4,-29,-151,-190,-165,-107
-219,-351,-131,285,-43,-241,19,-19,-136,-175,-165,-102
-229,-356,-126,292,-51,-241,29,-9,-141,-185,-165,-102
-239,-361,-122,300,-58,-241,29,-9,-136,-185,-165,-107
-239,-361,-122,300,-58,-241,29,-9,-126,-185,-165,-107
-239,-361,-122,300,-58,-241,34,-9,-122,-180,-165,-107
-244,-361,-117,302,-63,-239,39,-9,-117,-180,-161,-107
-244,-346,-102,295,-70,-224,39,-9,-112,-180,-161,-117
-244,-346,-102,295,-70,-224,34,-9,-107,-175,-161,-117
-244,-346,-102,295,-70,-224,34,-9,-107,-175,-165,-117
-244,-346,-102,295,-70,-224,29,-4,-107,-180,-165,-117
-253,-346,-92,300,-80,-219,39,-4,-102,-190,-175,-122
-258,-346,-87,302,-85,-217,39,-4,-102,-185,-175,-122
-263,-346,-82,305,-90,-214,43,-4,-102,-185,-175,-117
-278,-351,-73,314,-102,-212,43,-4,-97,-185,-180,-117
-273,-361,-87,317,-92,-224,39,4,-102,-175,-170,-112
-273,-361,-87,317,-92,-224,39,4,-102,-175,-170,-102
-268,-366,-97,317,-85,-231,39,4,-97,-175,-170,-97
-263,-366,-102,314,-80,-234,39,4,-97,-175,-170,-92
-273,-361,-87,317,-92,-224,29,4,-92,-165,-170,-102
-273,-361,-87,317,-92,-224,29,4,-92,-165,-170,-97
-278,-361,-82,319,-97,-222,24,4,-87,-165,-170,-92
-278,-361,-82,319,-97,-222,24,4,-82,-165,-170,-92
-278,-370,-92,324,-92,-231,34,4,-78,-161,-170,-92
-278,-370,-92,324,-92,-231,29,0,-78,-161,-170,-92
-278,-370,-92,324,-92,-231,24,0,-78,-161,-170,-92
-278,-370,-92,324,-92,-231,24,-4,-73,-161,-170,-92
-283,-375,-92,329,-95,-234,29,-4,-82,-161,-180,-102
-283,-375,-92,329,-95,-234,29,-4,-78,-161,-175,-97
-287,-370,-82,329,-102,-226,29,0,-68,-165,-175,-97
-287,-370,-82,329,-102,-226,34,0,-63,-170,-170,-92
-278,-361,-82,319,-97,-222,34,4,-73,-156,-170,-92
-273,-361,-87,317,-92,-224,34,9,-73,-151,-170,-92
-273,-361,-87,317,-92,-224,34,9,-63,-146,-161,-92
-268,-361,-92,314,-87,-226,34,14,-58,-146,-161,-97
-273,-361,-87,317,-92,-224,34,14,-63,-151,-161,-117
-278,-361,-82,319,-97,-222,34,14,-58,-146,-156,-117
-283,-356,-73,319,-104,-214,34,14,-58,-151,-156,-126
-287,-356,-68,322,-109,-212,34,14,-53,-156,-156,-131
-297,-366,-68,331,-114,-217,24,19,-39,-146,-161,-126
-297,-366,-68,331,-114,-217,29,24,-34,-146,-161,-126
-297,-366,-68,331,-114,-217,29,24,-29,-136,-156,-131
-297,-366,-68,331,-114,-217,29,24,-24,-136,-156,-131
-297,-370,-73,334,-112,-222,34,34,-24,-136,-156,-136
-307,-375,-68,341,-119,-222,34,34,-19,-136,-151,-136
-307,-380,-73,344,-117,-226,39,43,-14,-131,-146,-136
-297,-385,-87,341,-104,-236,39,48,-4,-122,-146,-136
-302,-395,-92,348,-104,-244,34,39,0,-117,-146,-146
-312,-395,-82,353,-114,-239,43,43,4,-112,-146,-146
-317,-395,-78,356,-119,-236,43,48,4,-107,-141,-146
-317,-390,-73,353,-122,-231,43,53,9,-102,-141,-146
-322,-400,-78,361,-122,-239,43,48,9,-107,-146,-161
-326,-400,-73,363,-126,-236,43,53,24,-102,-146,-161
-326,-400,-73,363,-126,-236,43,58,29,-97,-136,-156
-331,-395,-63,363,-134,-229,48,63,39,-87,-131,-156
-326,-395,-68,361,-129,-231,48,63,53,-82,-136,-146
-326,-395,-68,361,-129,-231,53,68,68,-78,-131,-141
-326,-390,-63,358,-131,-226,63,82,78,-68,-126,-141
-326,-390,-63,358,-131,-226,68,92,92,-58,-122,-136
-331,-395,-63,363,-134,-229,73,102,112,-43,-102,-131
-322,-390,-68,356,-126,-229,78,117,126,-34,-97,-126
-317,-380,-63,348,-126,-222,82,126,146,-24,-87,-122
-312,-370,-58,341,-126,-214,87,136,161,-9,-82,-117
-297,-370,-73,334,-112,-222,92,141,185,4,-78,-112
-292,-366,-73,329,-109,-219,92,151,204,14,-68,-107
-292,-356,-63,324,-114,-209,92,170,224,34,-63,-102
-287,-351,-63,319,-112,-207,97,185,248,48,-53,-97
-278,-341,-63,309,-107,-202,92,195,278,73,-39,-78
-268,-326,-58,297,-104,-192,97,209,302,97,-24,-78
-258,-312,-53,285,-102,-183,112,229,331,122,-9,-73
-258,-297,-39,278,-109,-168,112,244,356,146,4,-68
-234,-297,-63,265,-85,-180,126,258,380,161,9,-58
-229,-287,-58,258,-85,-173,131,283,409,175,19,-43
-219,-283,-63,251,-78,-173,141,292,434,190,34,-39
-219,-273,-53,246,-82,-163,146,317,468,214,43,-29
-204,-268,-63,236,-70,-165,141,336,502,253,73,-14
-195,-263,-68,229,-63,-165,151,356,546,287,92,-4
-195,-253,-58,224,-68,-156,156,370,580,312,107,4
-185,-239,-53,212,-65,-146,161,390,614,336,117,14
-190,-224,-34,207,-78,-129,165,405,634,366,131,19
-185,-209,-24,197,-80,-117,165,409,673,390,146,19
-175,-200,-24,187,-75,-112,170,424,697,414,161,29
-175,-195,-19,185,-78,-107,180,434,727,434,175,43
-190,-175,14,183,-102,-80,175,444,756,439,175,34
-190,-165,24,178,-107,-70,170,458,775,458,190,39
-180,-156,24,168,-102,-65,165,468,800,478,200,48
-175,-151,24,163,-100,-63,161,478,819,488,209,53
-165,-151,14,158,-90,-68,170,488,839,507,219,63
-161,-141,19,151,-90,-61,170,497,858,527,234,73
-156,-136,19,146,-87,-58,165,497,878,536,239,82
-146,-126,19,136,-82,-53,161,507,888,551,248,87
-146,-122,24,134,-85,-48,161,517,893,575,268,97
-146,-122,24,134,-85,-48,156,517,902,585,278,102
-146,-117,29,131,-87,-43,151,517,902,590,287,107
-141,-112,29,126,-85,-41,146,517,907,600,292,112
-151,-102,48,126,-100,-26,141,502,907,605,297,107
-146,-97,48,122,-97,-24,131,497,907,614,302,112
-146,-92,53,119,-100,-19,122,488,897,624,307,112
-146,-87,58,117,-102,-14,117,478,883,629,307,112
-156,-87,68,122,-112,-9,102,458,858,605,292,107
-156,-87,68,122,-112,-9,92,444,834,585,283,102
-156,-87,68,122,-112,-9,82,429,814,570,273,102
-151,-78,73,114,-112,-2,68,409,785,551,263,97
-151,-97,53,124,-102,-21,68,400,766,551,263,107
-156,-97,58,126,-107,-19,53,380,741,546,263,107
-156,-97,58,126,-107,-19,34,361,707,536,263,107
-156,-97,58,126,-107,-19,24,331,673,517,253,107
-156,-112,43,134,-100,-34,19,307,629,483,239,97
-156,-112,43,134,-100,-34,9,283,585,453,229,92
-165,-112,53,139,-109,-29,0,258,551,424,219,87
-170,-122,48,146,-109,-36,-9,234,507,395,200,82
-185,-131,53,158,-119,-39,-14,209,458,370,185,78
-185,-141,43,163,-114,-48,-29,185,414,331,170,73
-185,-151,34,168,-109,-58,-39,161,380,307,161,68
-190,-161,29,175,-109,-65,-48,136,341,278,146,63
-200,-180,19,190,-109,-80,-58,112,302,258,131,58
-204,-180,24,192,-114,-78,-68,87,268,239,117,58
-209,-190,19,200,-114,-85,-73,63,229,209,102,53
-214,-200,14,207,-114,-92,-78,48,200,180,87,43
-219,-200,19,209,-119,-90,-87,29,146,141,63,29
-224,-204,19,214,-122,-92,-92,9,117,117,48,19
-229,-219,9,224,-119,-104,-97,-9,87,102,39,14
-234,-229,4,231,-119,-112,-102,-19,58,73,24,9
-239,-239,0,239,-119,-119,-97,-34,29,39,0,9
-248,-248,0,248,-124,-124,-102,-48,4,19,-14,0
-253,-258,-4,256,-124,-131,-102,-63,-14,0,-24,-9
-258,-268,-9,263,-124,-139,-102,-78,-39,-14,-39,-19
-263,-273,-9,268,-126,-141,-102,-73,-63,-39,-53,-34
-263,-283,-19,273,-122,-151,-102,-82,-78,-48,-68,-39
-268,-287,-19,278,-124,-153,-107,-92,-87,-63,-78,-39
-268,-292,-24,280,-122,-158,-107,-102,-102,-78,-87,-48
-268,-297,-29,283,-119,-163,-107,-92,-107,-92,-97,-53
-273,-302,-29,287,-122,-165,-107,-97,-122,-97,-102,-58
-273,-312,-39,292,-117,-175,-102,-102,-126,-107,-107,-68
-273,-322,-48,297,-112,-185,-102,-107,-136,-117,-112,-73
-278,-312,-34,295,-122,-173,-112,-117,-156,-136,-107,-68
-278,-312,-34,295,-122,-173,-112,-117,-156,-141,-112,-73
-278,-322,-43,300,-117,-183,-112,-122,-161,-146,-122,-78
-278,-322,-43,300,-117,-183,-112,-122,-170,-151,-126,-78
-268,-317,-48,292,-109,-183,-102,-117,-165,-151,-117,-87
-268,-312,-43,290,-112,-178,-97,-117,-165,-151,-122,-87
-268,-317,-48,292,-109,-183,-97,-122,-170,-151,-122,-87
-268,-312,-43,290,-112,-178,-97,-122,-175,-146,-122,-87
-283,-322,-39,302,-122,-180,-87,-122,-185,-151,-136,-87
-283,-322,-39,302,-122,-180,-87,-122,-185,-156,-136,-92
-278,-322,-43,300,-117,-183,-87,-117,-185,-161,-136,-92
-278,-322,-43,300,-117,-183,-87,-117,-190,-170,-136,-92
-268,-312,-43,290,-112,-178,-82,-112,-180,-170,-131,-87
-263,-312,-48,287,-107,-180,-82,-112,-180,-165,-131,-82
-258,-317,-58,287,-100,-187,-82,-112,-180,-161,-131,-73
-253,-317,-63,285,-95,-190,-82,-112,-180,-156,-131,-68
-248,-312,-63,280,-92,-187,-82,-112,-180,-156,-131,-78
-248,-302,-53,275,-97,-178,-82,-112,-180,-161,-126,-78
-244,-297,-53,270,-95,-175,-82,-112,-180,-161,-126,-78
-244,-287,-43,265,-100,-165,-82,-112,-180,-161,-126,-78
-244,-292,-48,268,-97,-170,-82,-112,-180,-175,-136,-78
-244,-287,-43,265,-100,-165,-82,-112,-180,-175,-136,-78
-244,-287,-43,265,-100,-165,-82,-112,-185,-170,-136,-82
-248,-292,-43,270,-102,-168,-82,-112,-190,-170,-136,-82
-244,-292,-48,268,-97,-170,-82,-112,-190,-170,-136,-78
-244,-292,-48,268,-97,-170,-82,-112,-185,-170,-136,-78
-234,-287,-53,261,-90,-170,-82,-112,-185,-170,-136,-78
-229,-283,-53,256,-87,-168,-82,-112,-185,-170,-136,-78
-229,-283,-53,256,-87,-168,-82,-122,-195,-175,-146,-87
-229,-287,-58,258,-85,-173,-82,-117,-190,-175,-146,-87
-229,-287,-58,258,-85,-173,-82,-117,-190,-175,-146,-87
-229,-283,-53,256,-87,-168,-82,-117,-195,-170,-146,-87
-239,-292,-53,265,-92,-173,-82,-126,-204,-180,-156,-87
-239,-297,-58,268,-90,-178,-82,-126,-200,-185,-156,-87
-244,-297,-53,270,-95,-175,-82,-126,-200,-185,-156,-87
-244,-297,-53,270,-95,-175,-82,-126,-200,-185,-156,-87
-244,-302,-58,273,-92,-180,-97,-117,-200,-185,-146,-87
-248,-312,-63,280,-92,-187,-97,-117,-200,-185,-146,-87
-248,-317,-68,283,-90,-192,-97,-117,-200,-185,-146,-87
-248,-322,-73,285,-87,-197,-97,-117,-200,-185,-146,-87
-258,-331,-73,295,-92,-202,-97,-126,-209,-185,-156,-97
-268,-331,-63,300,-102,-197,-97,-126,-209,-185,-156,-97
-268,-331,-63,300,-102,-197,-97,-131,-209,-185,-156,-97
-268,-331,-63,300,-102,-197,-102,-131,-209,-185,-156,-97
-278,-336,-58,307,-109,-197,-102,-131,-209,-190,-165,-97
-278,-336,-58,307,-109,-197,-102,-126,-209,-200,-165,-102
-278,-336,-58,307,-109,-197,-102,-122,-214,-204,-165,-102
-287,-336,-48,312,-119,-192,-97,-122,-214,-209,-165,-102
-297,-346,-48,322,-124,-197,-97,-126,-214,-204,-170,-107
-297,-356,-58,326,-119,-207,-97,-126,-214,-204,-170,-107
-302,-361,-58,331,-122,-209,-97,-122,-214,-200,-170,-107
-302,-366,-63,334,-119,-214,-97,-117,-214,-200,-170,-107
-302,-366,-63,334,-119,-214,-92,-117,-214,-204,-170,-107
-302,-366,-63,334,-119,-214,-92,-117,-209,-204,-170,-112
-307,-366,-58,336,-124,-212,-92,-117,-209,-200,-170,-117
-307,-366,-58,336,-124,-212,-92,-117,-209,-195,-170,-122
-307,-366,-58,336,-124,-212,-102,-117,-209,-195,-180,-122
-312,-361,-48,336,-131,-204,-97,-112,-204,-195,-180,-126
-312,-361,-48,336,-131,-204,-97,-112,-204,-195,-180,-126
-312,-356,-43,334,-134,-200,-92,-112,-200,-195,-185,-122
-312,-356,-43,334,-134,-200,-92,-112,-185,-190,-180,-117
-312,-356,-43,334,-134,-200,-87,-102,-185,-190,-175,-117
-312,-356,-43,334,-134,-200,-87,-102,-185,-190,-170,-122
-312,-356,-43,334,-134,-200,-87,-102,-175,-185,-165,-122
-302,-346,-43,324,-129,-195,-87,-97,-170,-180,-165,-122
-307,-346,-39,326,-134,-192,-82,-97,-165,-180,-165,-122
-307,-346,-39,326,-134,-192,-78,-92,-165,-180,-165,-122
-307,-351,-43,329,-131,-197,-73,-87,-161,-180,-161,-122
-307,-341,-34,324,-136,-187,-78,-87,-151,-170,-151,-112
-307,-336,-29,322,-139,-183,-78,-82,-146,-161,-151,-112
-307,-336,-29,322,-139,-183,-78,-82,-146,-156,-146,-112
-307,-336,-29,322,-139,-183,-73,-82,-146,-151,-146,-112
-307,-336,-29,322,-139,-183,-63,-68,-141,-156,-156,-107
-302,-341,-39,322,-131,-190,-63,-68,-136,-156,-156,-107
-297,-351,-53,324,-122,-202,-63,-68,-136,-161,-156,-107
-292,-341,-48,317,-122,-195,-58,-68,-131,-161,-156,-107
-292,-326,-34,309,-129,-180,-68,-63,-122,-146,-151,-117
-292,-326,-34,309,-129,-180,-63,-58,-122,-141,-146,-117
-292,-326,-34,309,-129,-180,-63,-58,-117,-136,-141,-117
-292,-331,-39,312,-126,-185,-63,-58,-117,-131,-136,-117
-287,-317,-29,302,-129,-173,-53,-53,-117,-141,-136,-107
-278,-307,-29,292,-124,-168,-53,-53,-112,-141,-136,-107
-273,-302,-29,287,-122,-165,-53,-53,-107,-141,-136,-107
-268,-297,-29,283,-119,-163,-53,-53,-107,-136,-136,-107
-263,-287,-24,275,-119,-156,-43,-53,-102,-126,-122,-97
-263,-287,-24,275,-119,-156,-43,-48,-97,-122,-122,-97
-263,-287,-24,275,-119,-156,-43,-48,-87,-117,-122,-92
-258,-287,-29,273,-114,-158,-43,-43,-82,-112,-122,-92
-253,-283,-29,268,-112,-156,-39,-34,-82,-112,-107,-92
-248,-273,-24,261,-112,-148,-39,-34,-82,-112,-107,-92
-239,-268,-29,253,-104,-148,-39,-34,-87,-112,-107,-92
-234,-263,-29,248,-102,-146,-39,-34,-87,-112,-107,-92
-229,-253,-24,241,-102,-139,-39,-39,-87,-112,-107,-97
-224,-248,-24,236,-100,-136,-39,-39,-87,-112,-112,-97
-214,-244,-29,229,-92,-136,-34,-39,-87,-112,-112,-97
-209,-244,-34,226,-87,-139,-34,-43,-87,-112,-112,-92
-195,-229,-34,212,-80,-131,-29,-34,-82,-112,-117,-92
-195,-219,-24,207,-85,-122,-29,-34,-82,-112,-117,-92
-195,-209,-14,202,-90,-112,-29,-34,-82,-112,-117,-92
-195,-204,-9,200,-92,-107,-29,-34,-87,-112,-117,-92
-185,-214,-29,200,-78,-122,-19,-24,-87,-112,-107,-82
-185,-214,-29,200,-78,-122,-19,-24,-87,-107,-112,-78
-185,-214,-29,200,-78,-122,-19,-29,-87,-102,-112,-78
-185,-209,-24,197,-80,-117,-19,-29,-92,-97,-112,-78
-175,-200,-24,187,-75,-112,-9,-19,-97,-107,-102,-78
-175,-200,-24,187,-75,-112,-9,-29,-102,-117,-107,-78
-175,-200,-24,187,-75,-112,-9,-29,-102,-117,-107,-78
-175,-200,-24,187,-75,-112,-9,-29,-102,-117,-107,-78
-165,-190,-24,178,-70,-107,-9,-29,-102,-117,-107,-87
-165,-190,-24,178,-70,-107,-9,-29,-102,-117,-107,-87
-165,-190,-24,178,-70,-107,-9,-34,-107,-117,-107,-87
-161,-185,-24,173,-68,-104,-9,-34,-107,-117,-107,-87
-156,-175,-19,165,-68,-97,-9,-34,-102,-107,-97,-78
-151,-170,-19,161,-65,-95,-9,-34,-102,-107,-97,-78
-146,-170,-24,158,-61,-97,-14,-39,-107,-112,-92,-78
-141,-170,-29,156,-56,-100,-14,-39,-107,-112,-92,-78
-131,-161,-29,146,-51,-95,0,-29,-97,-112,-97,-78
-141,-161,-19,151,-61,-90,4,-43,-107,-122,-107,-78
-141,-151,-9,146,-65,-80,4,-43,-107,-126,-102,-87
-131,-146,-14,139,-58,-80,0,-43,-102,-126,-102,-87
-126,-136,-9,131,-58,-73,0,-48,-107,-126,-107,-87
-122,-131,-9,126,-56,-70,0,-39,-97,-117,-97,-87
-117,-126,-9,122,-53,-68,0,-39,-97,-117,-97,-87
-112,-122,-9,117,-51,-65,0,-39,-97,-117,-97,-87
-107,-117,-9,112,-48,-63,0,-39,-97,-117,-97,-87
-97,-126,-29,112,-34,-78,4,-39,-97,-117,-97,-82
-97,-122,-24,109,-36,-73,9,-39,-97,-117,-97,-78
-97,-122,-24,109,-36,-73,9,-39,-97,-117,-97,-73
-97,-122,-24,109,-36,-73,9,-43,-102,-117,-97,-68
-82,-112,-29,97,-26,-70,9,-34,-102,-107,-97,-63
-78,-102,-24,90,-26,-63,9,-34,-102,-107,-97,-63
-73,-92,-19,82,-26,-56,9,-34,-102,-117,-97,-63
-68,-82,-14,75,-26,-48,9,-39,-102,-117,-97,-63
-53,-82,-29,68,-12,-56,9,-29,-97,-117,-97,-73
-53,-78,-24,65,-14,-51,9,-29,-97,-117,-97,-73
-53,-68,-14,61,-19,-41,9,-29,-97,-117,-97,-73
-53,-63,-9,58,-21,-36,14,-29,-97,-117,-97,-73
-43,-63,-19,53,-12,-41,29,-29,-97,-117,-87,-73
-43,-63,-19,53,-12,-41,34,-19,-97,-117,-87,-73
-43,-58,-14,51,-14,-36,34,-14,-92,-117,-87,-73
-43,-53,-9,48,-17,-31,34,-14,-92,-112,-87,-73
-39,-53,-14,46,-12,-34,43,-14,-78,-107,-78,-73
-39,-53,-14,46,-12,-34,43,-14,-78,-102,-78,-73
-29,-48,-19,39,-4,-34,43,-4,-78,-97,-78,-73
-19,-48,-29,34,4,-39,43,-4,-78,-92,-73,-68
-9,-34,-24,21,7,-29,43,-4,-82,-97,-78,-68
-9,-34,-24,21,7,-29,48,4,-73,-97,-78,-63
-9,-29,-19,19,4,-24,53,4,-68,-92,-78,-63
-4,-19,-14,12,4,-17,58,9,-58,-92,-78,-53
9,-9,-19,0,14,-14,68,19,-43,-78,-63,-48
9,0,-9,-4,9,-4,73,24,-39,-73,-58,-48
9,9,0,-9,4,4,78,24,-34,-68,-58,-48
14,19,4,-17,4,12,82,24,-29,-63,-53,-48
24,39,14,-31,4,26,92,29,-24,-58,-39,-29
24,48,24,-36,0,36,92,29,-19,-53,-34,-29
19,58,39,-39,-9,48,87,29,-14,-48,-29,-24
19,58,39,-39,-9,48,78,29,-14,-48,-29,-14
39,68,29,-53,4,48,73,24,-9,-53,-29,-14
39,68,29,-53,4,48,53,19,-19,-53,-29,-14
39,68,29,-53,4,48,39,4,-24,-53,-29,-14
43,58,14,-51,14,36,29,0,-34,-63,-29,-14
43,58,14,-51,14,36,24,0,-43,-68,-34,-14
43,53,9,-48,17,31,19,-9,-53,-68,-39,-24
43,48,4,-46,19,26,14,-19,-63,-73,-39,-29
34,43,9,-39,12,26,0,-29,-73,-78,-48,-29
39,43,4,-41,17,24,-19,-34,-82,-82,-43,-34
24,39,14,-31,4,26,-19,-48,-87,-87,-48,-39
24,39,14,-31,4,26,-24,-58,-92,-92,-53,-39
19,39,19,-29,0,29,-24,-58,-97,-92,-53,-39
24,39,14,-31,4,26,-19,-58,-87,-92,-63,-39
29,39,9,-34,9,24,-19,-58,-87,-92,-63,-29
34,39,4,-36,14,21,-19,-58,-87,-87,-58,-24
39,43,4,-41,17,24,-19,-58,-87,-87,-58,-24
48,43,-4,-46,26,19,-9,-48,-82,-78,-48,-24
48,43,-4,-46,26,19,-9,-48,-82,-78,-43,-24
48,39,-9,-43,29,14,-4,-43,-78,-73,-43,-24
48,39,-9,-43,29,14,0,-39,-78,-63,-43,-19
48,53,4,-51,21,29,4,-34,-68,-63,-34,-19
48,58,9,-53,19,34,9,-29,-63,-63,-34,-19
43,63,19,-53,12,41,9,-29,-63,-63,-34,-19
39,63,24,-51,7,43,9,-29,-68,-63,-34,-19
34,58,24,-46,4,41,9,-29,-78,-78,-53,-34
34,53,19,-43,7,36,9,-39,-78,-87,-58,-39
29,48,19,-39,4,34,9,-39,-82,-97,-63,-43
24,34,9,-29,7,21,14,-39,-92,-107,-73,-48
29,34,4,-31,12,19,24,-39,-92,-117,-68,-43
14,24,9,-19,2,17,29,-39,-92,-112,-73,-48
-4,14,19,-4,-12,17,34,-39,-97,-107,-78,-53
-4,4,9,0,-7,7,39,-39,-97,-112,-92,-68
0,4,4,-2,-2,4,43,-39,-87,-117,-82,-68
0,4,4,-2,-2,4,48,-39,-87,-122,-87,-73
-4,4,9,0,-7,7,48,-39,-97,-122,-92,-73
-4,4,9,0,-7,7,48,-43,-102,-126,-92,-78
-4,0,4,2,-4,2,48,-34,-102,-122,-92,-78
-4,0,4,2,-4,2,48,-34,-102,-122,-92,-78
-4,0,4,2,-4,2,48,-34,-102,-122,-92,-82
-9,0,9,4,-9,4,48,-34,-102,-122,-92,-82
-9,0,9,4,-9,4,58,-34,-102,-131,-92,-82
-9,0,9,4,-9,4,58,-34,-102,-131,-92,-82
-14,0,14,7,-14,7,58,-34,-107,-136,-102,-82
-14,-4,9,9,-12,2,68,-34,-107,-141,-107,-92
-14,-4,9,9,-12,2,63,-34,-107,-136,-102,-87
-39,-19,19,29,-29,0,87,-19,-92,-141,-112,-92
-53,-34,19,43,-36,-7,117,-9,-82,-170,-141,-112
-78,-39,39,58,-58,0,156,-4,-78,-200,-165,-141
-97,-29,68,63,-82,19,185,4,-53,-219,-195,-156
-122,-19,102,70,-112,41,209,14,-29,-229,-204,-175
-136,-4,131,70,-134,63,229,14,0,-219,-214,-190
-156,24,180,65,-168,102,234,4,34,-200,-209,-190
-156,63,219,46,-187,141,239,9,63,-175,-190,-185
-146,107,253,19,-200,180,258,43,112,-156,-185,-175
-156,151,307,2,-231,229,283,73,161,-141,-180,-180
-165,204,370,-19,-268,287,292,82,204,-136,-175,-175
-165,263,429,-48,-297,346,283,73,195,-131,-165,-161
-156,317,473,-80,-314,395,229,19,146,-136,-151,-146
-136,370,507,-117,-322,439,165,-58,92,-107,-112,-122
-112,439,551,-163,-331,495,63,-170,39,-48,-63,-82
-73,561,634,-244,-353,597,-126,-341,-14,39,4,-19
0,712,712,-356,-356,712,-375,-541,-87,161,97,73
82,854,771,-468,-344,812,-610,-746,-170,292,214,165
165,936,771,-551,-302,854,-834,-951,-263,409,322,253
239,1000,761,-619,-261,880,-1073,-1166,-375,497,409,331
317,1049,732,-683,-207,890,-1288,-1385,-502,585,497,414
385,1102,717,-744,-165,910,-1493,-1576,-619,663,590,492
453,1117,663,-785,-104,890,-1639,-1703,-683,727,644,551
497,1063,566,-780,-34,814,-1712,-1751,-756,702,653,570
536,976,439,-756,48,707,-1771,-1786,-883,614,624,570
566,902,336,-734,114,619,-1854,-1849,-1068,473,585,580
610,839,229,-724,190,534,-1937,-1903,-1356,273,522,580
653,766,112,-710,270,439,-1966,-1922,-1678,29,434,580
678,614,-63,-646,370,275,-1912,-1859,-1937,-244,322,536
707,434,-273,-570,490,80,-1800,-1742,-2074,-463,214,468
727,263,-463,-495,595,-100,-1659,-1561,-2054,-580,122,419
727,82,-644,-405,685,-280,-1483,-1337,-1927,-644,53,366
736,-126,-863,-305,800,-495,-1263,-1083,-1781,-683,-19,307
736,-346,-1083,-195,910,-714,-1044,-824,-1595,-673,-68,244
717,-478,-1195,-119,956,-836,-839,-590,-1385,-624,-78,214
707,-502,-1210,-102,958,-856,-678,-414,-1195,-541,-58,204
692,-468,-1161,-112,927,-814,-570,-297,-1015,-453,-29,219
673,-390,-1063,-141,868,-727,-473,-219,-839,-356,24,244
639,-322,-961,-158,800,-641,-390,-165,-712,-273,53,253
610,-297,-907,-156,758,-602,-341,-136,-634,-258,53,244
556,-283,-839,-136,697,-561,-292,-122,-575,-258,24,214
507,-287,-795,-109,651,-541,-253,-112,-527,-258,-9,165
448,-287,-736,-80,592,-512,-209,-112,-497,-273,-53,126
409,-273,-683,-68,546,-478,-185,-122,-483,-297,-82,82
375,-258,-634,-58,505,-446,-151,-131,-463,-297,-112,48
312,-234,-546,-39,429,-390,-126,-126,-429,-292,-126,29
258,-204,-463,-26,361,-334,-92,-112,-370,-287,-136,0
214,-175,-390,-19,302,-283,-58,-97,-326,-258,-146,-29
170,-151,-322,-9,246,-236,-39,-78,-292,-248,-146,-43
126,-136,-263,4,195,-200,-4,-53,-244,-224,-146,-58
97,-107,-204,4,151,-156,34,-24,-190,-190,-136,-78
82,-78,-161,-2,122,-119,68,4,-136,-170,-126,-87
53,-73,-126,9,90,-100,82,29,-92,-141,-112,-92
39,-53,-92,7,65,-73,112,39,-63,-131,-107,-97
34,-48,-82,7,58,-65,126,58,-58,-117,-97,-92
24,-43,-68,9,46,-56,126,58,-53,-126,-97,-92
24,-39,-63,7,43,-51,136,53,-48,-126,-107,-107
24,-39,-63,7,43,-51,136,58,-39,-126,-107,-107
24,-39,-63,7,43,-51,141,63,-34,-122,-107,-107
19,-39,-58,9,39,-48,146,68,-29,-122,-102,-107
24,-34,-58,4,41,-46,151,78,-24,-122,-92,-107
19,-34,-53,7,36,-43,151,78,-19,-117,-92,-107
14,-34,-48,9,31,-41,156,78,-19,-117,-97,-107
9,-34,-43,12,26,-39,156,82,-19,-122,-97,-107
-4,-34,-29,19,12,-31,146,73,-14,-122,-97,-112
-4,-34,-29,19,12,-31,146,73,-14,-117,-97,-112
-4,-34,-29,19,12,-31,151,73,-14,-117,-97,-107
-14,-39,-24,26,4,-31,151,73,-9,-117,-102,-107
-9,-34,-24,21,7,-29,146,73,-14,-126,-112,-107
-9,-29,-19,19,4,-24,146,73,-14,-126,-112,-102
-4,-29,-24,17,9,-26,146,73,-9,-126,-112,-102
0,-24,-24,12,12,-24,146,73,-9,-126,-112,-102
0,-39,-39,19,19,-39,146,82,-14,-126,-112,-92
0,-39,-39,19,19,-39,146,82,-14,-126,-112,-87
-4,-39,-34,21,14,-36,141,82,-9,-126,-112,-82
-4,-39,-34,21,14,-36,141,82,-4,-126,-112,-82
-4,-29,-24,17,9,-26,151,87,0,-117,-102,-82
-4,-29,-24,17,9,-26,146,87,0,-112,-102,-82
-4,-29,-24,17,9,-26,141,92,0,-107,-102,-82
-4,-29,-24,17,9,-26,141,92,4,-102,-102,-82
-4,-14,-9,9,2,-12,156,92,14,-87,-102,-82
0,-14,-14,7,7,-14,156,92,19,-82,-97,-78
0,-9,-9,4,4,-9,156,97,29,-82,-97,-78
4,-9,-14,2,9,-12,161,97,34,-82,-92,-73
4,-9,-14,2,9,-12,151,92,24,-82,-102,-82
9,-9,-19,0,14,-14,151,97,24,-82,-102,-82
9,-9,-19,0,14,-14,151,97,34,-82,-92,-82
14,-9,-24,-2,19,-17,151,102,39,-87,-92,-87
14,0,-14,-7,14,-7,161,112,43,-78,-82,-87
14,0,-14,-7,14,-7,161,112,48,-68,-78,-87
14,4,-9,-9,12,-2,161,112,48,-68,-78,-97
14,4,-9,-9,12,-2,161,112,53,-68,-78,-102
14,14,0,-14,7,7,161,117,48,-78,-82,-107
14,14,0,-14,7,7,165,122,53,-78,-82,-107
14,14,0,-14,7,7,165,122,58,-68,-78,-112
14,14,0,-14,7,7,165,122,63,-68,-78,-112
4,9,4,-7,0,7,170,122,73,-58,-78,-117
-4,4,9,0,-7,7,170,122,78,-58,-73,-117
-4,0,4,2,-4,2,175,131,82,-53,-68,-117
4,-4,-9,0,7,-7,175,136,92,-43,-68,-117
-4,-14,-9,9,2,-12,170,126,97,-39,-68,-117
-9,-14,-4,12,-2,-9,180,131,102,-34,-68,-117
-9,-14,-4,12,-2,-9,180,136,102,-29,-63,-117
-4,-9,-4,7,0,-7,180,141,107,-24,-63,-117
-14,-19,-4,17,-4,-12,190,156,126,-19,-58,-122
-14,-19,-4,17,-4,-12,190,161,141,-14,-58,-122
-9,-19,-9,14,0,-14,190,165,146,-9,-48,-117
-9,-14,-4,12,-2,-9,195,170,156,0,-43,-117
-4,-9,-4,7,0,-7,200,170,170,14,-39,-126
-4,-4,0,4,-2,-2,200,175,185,19,-34,-122
-4,4,9,0,-7,7,204,190,195,29,-29,-122
-4,9,14,-2,-9,12,204,200,209,39,-24,-117
0,14,14,-7,-7,14,209,200,219,48,-24,-112
9,19,9,-14,0,14,214,214,234,53,-19,-107
14,29,14,-21,0,21,219,224,253,58,-9,-102
19,39,19,-29,0,29,224,234,268,68,-4,-97
34,39,4,-36,14,21,234,258,292,87,19,-82
39,43,4,-41,17,24,239,268,312,102,29,-78
39,53,14,-46,12,34,244,287,331,126,34,-73
43,58,14,-51,14,36,253,302,356,146,43,-68
53,68,14,-61,19,41,258,302,385,165,63,-58
63,82,19,-73,21,51,263,317,409,185,73,-58
73,97,24,-85,24,61,278,336,439,204,82,-53
73,112,39,-92,17,75,278,351,463,224,92,-48
97,122,24,-109,36,73,283,375,492,253,107,-29
102,131,29,-117,36,80,287,400,527,273,117,-14
112,136,24,-124,43,80,297,409,556,292,131,-9
112,146,34,-129,39,90,302,434,595,322,141,0
107,151,43,-129,31,97,307,448,624,336,161,-4
117,156,39,-136,39,97,317,463,663,366,180,4
117,165,48,-141,34,107,322,473,692,385,195,14
126,180,53,-153,36,117,326,488,722,405,204,24
122,185,63,-153,29,124,331,507,761,434,219,34
126,200,73,-163,26,136,331,517,800,458,234,39
136,209,73,-173,31,141,336,536,824,483,248,53
136,214,78,-175,29,146,346,551,854,502,263,73
141,214,73,-178,34,143,346,570,883,517,263,63
141,224,82,-183,29,153,346,585,902,536,278,68
151,234,82,-192,34,158,346,595,927,556,287,78
156,239,82,-197,36,161,346,605,946,566,297,82
151,248,97,-200,26,173,346,614,966,590,312,102
151,258,107,-204,21,183,346,624,985,614,331,112
151,263,112,-207,19,187,341,624,1005,629,341,122
156,273,117,-214,19,195,336,634,1015,649,356,126
175,297,122,-236,26,209,326,624,1019,653,356,126
175,297,122,-236,26,209,322,624,1029,663,366,131
175,302,126,-239,24,214,317,624,1029,668,375,136
180,307,126,-244,26,217,312,624,1034,678,380,141
180,317,136,-248,21,226,297,619,1034,688,385,141
185,322,136,-253,24,229,287,614,1034,692,390,151
185,326,141,-256,21,234,278,605,1024,697,395,156
185,331,146,-258,19,239,273,595,1010,697,395,161
195,341,146,-268,24,244,268,585,1000,683,400,151
195,341,146,-268,24,244,258,570,980,673,400,151
195,341,146,-268,24,244,248,556,966,668,400,156
200,351,151,-275,24,251,234,536,941,658,400,156
200,341,141,-270,29,241,234,527,902,644,385,156
195,341,146,-268,24,244,219,507,878,634,380,156
195,341,146,-268,24,244,200,488,844,619,375,156
195,341,146,-268,24,244,190,458,810,595,361,156
195,336,141,-265,26,239,185,434,775,575,356,156
195,336,141,-265,26,239,175,409,732,551,346,151
185,336,151,-261,17,244,165,385,697,527,336,146
180,326,146,-253,17,236,156,361,653,502,317,141
165,312,146,-239,9,229,141,336,605,473,302,126
165,307,141,-236,12,224,126,312,561,439,287,122
165,302,136,-234,14,219,117,287,527,419,278,117
161,297,136,-229,12,217,107,263,488,395,263,112
161,278,117,-219,21,197,107,239,439,356,248,107
156,278,122,-217,17,200,97,214,405,336,234,107
151,268,117,-209,17,192,92,190,366,307,219,102
146,258,112,-202,17,185,87,175,336,278,204,92
131,239,107,-185,12,173,78,156,283,239,170,87
126,234,107,-180,9,170,73,136,253,214,156,78
122,219,97,-170,12,158,68,117,224,200,146,73
117,209,92,-163,12,151,63,107,195,170,131,68
122,209,87,-165,17,148,58,92,175,156,126,58
112,200,87,-156,12,143,53,78,151,136,112,48
107,190,82,-148,12,136,53,63,131,117,102,39
102,180,78,-141,12,129,53,48,107,102,87,29
97,185,87,-141,4,136,53,43,82,82,73,24
97,175,78,-136,9,126,53,34,68,68,58,19
92,170,78,-131,7,124,48,24,58,48,48,19
92,165,73,-129,9,119,48,14,43,29,39,9
92,170,78,-131,7,124,48,14,29,24,39,4
87,165,78,-126,4,122,48,9,14,19,34,0
87,156,68,-122,9,112,53,4,9,9,29,-9
87,146,58,-117,14,102,53,0,0,0,24,-14
82,136,53,-109,14,95,53,9,-9,-19,19,-9
82,136,53,-109,14,95,53,9,-9,-24,14,-14
82,126,43,-104,19,85,53,4,-14,-29,4,-19
82,126,43,-104,19,85,53,4,-24,-34,0,-19
82,126,43,-104,19,85,63,0,-29,-39,-9,-19
82,126,43,-104,19,85,68,0,-29,-43,-14,-19
82,117,34,-100,24,75,68,-4,-34,-48,-14,-19
82,117,34,-100,24,75,68,-4,-39,-48,-14,-19
78,117,39,-97,19,78,58,-4,-39,-48,-19,-29
78,117,39,-97,19,78,58,-4,-39,-48,-19,-34
82,117,34,-100,24,75,58,0,-39,-48,-19,-34
82,117,34,-100,24,75,58,0,-43,-53,-19,-34
87,126,39,-107,24,82,73,-4,-43,-48,-14,-34
87,126,39,-107,24,82,73,-4,-43,-48,-14,-34
87,122,34,-104,26,78,73,-4,-43,-48,-14,-29
87,122,34,-104,26,78,73,-4,-43,-48,-14,-29
82,112,29,-97,26,70,63,-4,-53,-58,-19,-29
82,117,34,-100,24,75,63,-4,-53,-63,-19,-29
87,117,29,-102,29,73,63,-4,-53,-63,-24,-29
87,122,34,-104,26,78,63,-4,-53,-63,-29,-29
97,126,29,-112,34,78,63,-4,-53,-58,-29,-29
97,131,34,-114,31,82,63,-4,-53,-58,-29,-29
97,131,34,-114,31,82,63,-4,-58,-53,-29,-34
92,126,34,-109,29,80,63,-4,-63,-53,-29,-34
87,126,39,-107,24,82,63,-4,-63,-63,-19,-29
87,126,39,-107,24,82,63,-4,-58,-63,-19,-29
97,131,34,-114,31,82,63,-4,-58,-63,-19,-29
102,136,34,-119,34,85,63,-4,-58,-63,-19,-29
97,122,24,-109,36,73,63,-4,-58,-78,-29,-29
92,112,19,-102,36,65,63,0,-53,-78,-29,-29
87,107,19,-97,34,63,63,0,-53,-78,-29,-29
82,107,24,-95,29,65,63,0,-58,-73,-29,-29
92,117,24,-104,34,70,53,-9,-68,-63,-29,-39
92,112,19,-102,36,65,53,-9,-63,-68,-29,-39
87,112,24,-100,31,68,53,-9,-63,-68,-29,-39
87,112,24,-100,31,68,53,-9,-63,-68,-29,-39
78,102,24,-90,26,63,48,-9,-63,-68,-39,-39
73,97,24,-85,24,61,48,-9,-63,-68,-39,-39
73,97,24,-85,24,61,48,-9,-63,-68,-39,-39
73,97,24,-85,24,61,48,-9,-63,-68,-39,-39
73,97,24,-85,24,61,58,-9,-63,-78,-39,-39
63,97,34,-80,14,65,58,-9,-63,-78,-39,-39
63,97,34,-80,14,65,58,-14,-63,-78,-39,-39
63,97,34,-80,14,65,53,-14,-63,-78,-39,-39
63,92,29,-78,17,61,53,-14,-73,-78,-39,-39
63,92,29,-78,17,61,53,-9,-73,-82,-39,-43
63,92,29,-78,17,61,53,-4,-78,-82,-39,-43
53,92,39,-73,7,65,58,-4,-78,-82,-39,-43
63,97,34,-80,14,65,58,-9,-68,-87,-43,-48
63,92,29,-78,17,61,58,-9,-68,-87,-43,-48
58,92,34,-75,12,63,58,-4,-68,-82,-43,-48
58,92,34,-75,12,63,58,0,-68,-82,-43,-48
48,82,34,-65,7,58,63,0,-68,-87,-43,-53
48,82,34,-65,7,58,63,0,-63,-87,-43,-53
43,82,39,-63,2,61,63,0,-63,-82,-43,-53
43,82,39,-63,2,61,63,0,-63,-78,-43,-53
48,82,34,-65,7,58,63,0,-53,-68,-43,-43
48,87,39,-68,4,63,68,4,-48,-68,-43,-48
53,87,34,-70,9,61,68,4,-48,-68,-43,-48
58,92,34,-75,12,63,73,4,-43,-68,-48,-43
48,82,34,-65,7,58,63,14,-39,-73,-39,-39
48,82,34,-65,7,58,68,24,-39,-73,-39,-39
48,82,34,-65,7,58,68,24,-39,-73,-39,-43
48,82,34,-65,7,58,68,24,-29,-68,-39,-43
58,82,24,-70,17,53,78,29,-24,-63,-39,-43
53,82,29,-68,12,56,82,29,-19,-63,-39,-43
53,82,29,-68,12,56,87,34,-19,-63,-39,-43
53,78,24,-65,14,51,92,39,-14,-63,-34,-43
43,78,34,-61,4,56,87,39,-14,-48,-24,-43
43,82,39,-63,2,61,87,43,-9,-43,-24,-43
43,82,39,-63,2,61,87,43,-9,-43,-19,-43
43,82,39,-63,2,61,92,43,-9,-43,-19,-43
48,82,34,-65,7,58,92,48,-4,-48,-29,-48
48,78,29,-63,9,53,92,48,0,-48,-29,-48
48,68,19,-58,14,43,92,48,0,-53,-29,-48
48,78,29,-63,9,53,97,48,4,-53,-29,-48
39,73,34,-56,2,53,97,53,4,-34,-29,-48
39,73,34,-56,2,53,102,58,4,-34,-29,-48
39,73,34,-56,2,53,102,58,9,-34,-29,-48
39,68,29,-53,4,48,102,58,9,-34,-29,-48
48,78,29,-63,9,53,102,63,19,-24,-19,-39
53,82,29,-68,12,56,102,63,24,-24,-19,-39
53,82,29,-68,12,56,102,63,29,-24,-19,-39
53,82,29,-68,12,56,102,63,29,-19,-19,-39
48,82,34,-65,7,58,102,63,29,-24,-14,-39
48,82,34,-65,7,58,102,68,29,-24,-14,-39
48,82,34,-65,7,58,102,68,34,-24,-14,-34
53,82,29,-68,12,56,102,73,34,-24,-14,-34
53,92,39,-73,7,65,107,73,24,-14,-9,-34
53,97,43,-75,4,70,107,73,24,-14,-9,-34
58,97,39,-78,9,68,107,73,19,-14,-9,-34
58,97,39,-78,9,68,107,73,19,-14,-9,-34
58,102,43,-80,7,73,97,68,29,-14,-9,-39
58,102,43,-80,7,73,97,68,29,-14,-14,-39
63,102,39,-82,12,70,102,68,29,-14,-14,-39
63,97,34,-80,14,65,102,63,29,-14,-14,-34
58,87,29,-73,14,58,97,63,24,-14,-19,-34
58,92,34,-75,12,63,97,63,24,-14,-19,-34
58,97,39,-78,9,68,97,63,24,-14,-19,-34
58,97,39,-78,9,68,97,63,19,-14,-19,-34
68,97,29,-82,19,63,97,63,19,-29,-9,-43
68,97,29,-82,19,63,97,63,19,-29,-14,-39
68,97,29,-82,19,63,97,58,19,-29,-14,-39
68,102,34,-85,17,68,97,58,14,-29,-14,-39
58,102,43,-80,7,73,97,58,9,-19,-14,-39
58,102,43,-80,7,73,97,48,4,-29,-19,-39
58,102,43,-80,7,73,97,48,4,-29,-19,-39
58,102,43,-80,7,73,97,48,4,-29,-19,-39
58,92,34,-75,12,63,87,48,-4,-39,-19,-39
58,92,34,-75,12,63,87,48,-4,-39,-19,-39
58,92,34,-75,12,63,87,43,-9,-39,-19,-39
63,97,34,-80,14,65,87,43,-9,-39,-19,-39
53,87,34,-70,9,61,87,43,-14,-39,-19,-39
53,92,39,-73,7,65,87,43,-14,-39,-19,-39
53,92,39,-73,7,65,82,39,-19,-43,-14,-39
53,92,39,-73,7,65,82,39,-19,-43,-14,-39
58,102,43,-80,7,73,87,39,-19,-43,-29,-39
63,102,39,-82,12,70,92,34,-19,-43,-29,-39
68,102,34,-85,17,68,92,34,-19,-48,-24,-39
73,107,34,-90,19,70,87,34,-24,-48,-24,-39
68,97,29,-82,19,63,87,29,-24,-43,-19,-39
68,97,29,-82,19,63,87,34,-19,-43,-24,-29
68,102,34,-85,17,68,87,34,-19,-43,-14,-29
78,112,34,-95,21,73,87,24,-24,-48,-9,-29
68,117,48,-92,9,82,78,19,-29,-48,-19,-29
58,112,53,-85,2,82,87,29,-39,-58,-29,-39
58,107,48,-82,4,78,87,29,-39,-58,-29,-39
58,102,43,-80,7,73,87,29,-39,-58,-29,-39
58,97,39,-78,9,68,87,29,-39,-58,-29,-39
68,87,19,-78,24,53,87,19,-29,-58,-29,-39
68,92,24,-80,21,58,87,19,-29,-58,-29,-39
68,92,24,-80,21,58,82,19,-29,-58,-29,-39
68,92,24,-80,21,58,78,14,-34,-58,-29,-39
58,92,34,-75,12,63,78,14,-43,-58,-29,-43
58,92,34,-75,12,63,78,14,-43,-58,-29,-43
58,92,34,-75,12,63,78,14,-43,-68,-29,-43
58,92,34,-75,12,63,78,9,-43,-68,-29,-43
63,87,24,-75,19,56,78,19,-48,-68,-29,-43
63,87,24,-75,19,56,78,19,-48,-68,-29,-43
63,92,29,-78,17,61,78,19,-48,-68,-29,-43
63,92,29,-78,17,61,82,19,-48,-68,-29,-43
63,92,29,-78,17,61,87,19,-39,-68,-19,-34
63,92,29,-78,17,61,92,29,-39,-68,-19,-34
63,97,34,-80,14,65,92,34,-34,-68,-19,-34
63,102,39,-82,12,70,92,34,-34,-63,-19,-34
68,102,34,-85,17,68,92,43,-29,-53,-29,-34
68,102,34,-85,17,68,92,43,-29,-53,-29,-34
78,107,29,-92,24,68,92,53,-29,-53,-29,-34
87,107,19,-97,34,63,92,53,-29,-53,-24,-29
87,122,34,-104,26,78,92,43,-24,-53,-24,-29
87,122,34,-104,26,78,97,53,-14,-48,-19,-24
87,126,39,-107,24,82,102,53,-9,-39,-14,-24
92,136,43,-114,24,90,107,58,0,-34,-9,-14
97,141,43,-119,26,92,126,58,4,-39,-14,-9
97,146,48,-122,24,97,131,63,9,-34,-9,-9
