I, II, III, aVR, aVL, aVF, V1, V2, V3, V4, V5, V6
-87,-102,-14,95,-36,-58,-43,-58,39,-1102,-24,9
-92,-102,-9,97,-41,-56,-39,-58,39,-1107,-24,9
-92,-102,-9,97,-41,-56,-34,-58,39,-1107,-24,9
-92,-97,-4,95,-43,-51,-34,-53,34,-1107,-29,4
-87,-97,-9,92,-39,-53,-34,-48,29,-1102,-29,4
-82,-102,-19,92,-31,-61,-34,-48,24,-1102,-24,4
-82,-102,-19,92,-31,-61,-34,-48,19,-1102,-19,4
-82,-102,-19,92,-31,-61,-34,-48,19,-1102,-24,4
-82,-107,-24,95,-29,-65,-29,-48,19,-1102,-24,4
-78,-107,-29,92,-24,-68,-29,-43,14,-1102,-24,4
-78,-107,-29,92,-24,-68,-24,-39,9,-1098,-24,4
-78,-107,-29,92,-24,-68,-24,-39,9,-1098,-19,4
-78,-107,-29,92,-24,-68,-24,-34,14,-1093,-14,4
-78,-102,-24,90,-26,-63,-29,-34,9,-1093,-14,4
-78,-102,-24,90,-26,-63,-34,-34,4,-1093,-14,4
-78,-102,-24,90,-26,-63,-29,-34,0,-1093,-14,4
-78,-97,-19,87,-29,-58,-29,-29,0,-1088,-9,4
-78,-92,-14,85,-31,-53,-24,-24,0,-1088,-9,4
-73,-87,-14,80,-29,-51,-19,-19,0,-1083,-9,4
-73,-87,-14,80,-29,-51,-19,-14,0,-1088,-9,0
-68,-87,-19,78,-24,-53,-19,-14,-4,-1093,-9,-4
-68,-87,-19,78,-24,-53,-19,-14,-4,-1093,-9,-4
-68,-87,-19,78,-24,-53,-14,-14,-4,-1098,-4,-4
-63,-82,-19,73,-21,-51,-14,-14,-4,-1093,-4,-4
-58,-78,-19,68,-19,-48,-14,-14,0,-1088,0,0
-58,-78,-19,68,-19,-48,-14,-14,0,-1088,0,0
-58,-78,-19,68,-19,-48,-9,-14,4,-1088,0,0
-58,-78,-19,68,-19,-48,-9,-14,9,-1088,-4,-4
-53,-87,-34,70,-9,-61,-9,-19,9,-1088,-4,-4
-43,-112,-68,78,12,-90,-9,-29,-9,-1112,-24,-19
-29,-175,-146,102,58,-161,-9,-53,-43,-1161,-73,-78
-9,-239,-229,124,109,-234,-4,-73,-78,-1215,-141,-136
34,-239,-273,102,153,-256,4,-58,-63,-1210,-151,-156
82,-224,-307,70,195,-265,14,-39,-43,-1190,-151,-156
136,-175,-312,19,224,-244,29,39,48,-1146,-141,-156
195,-63,-258,-65,226,-161,48,141,165,-1068,-97,-146
307,19,-287,-163,297,-134,58,204,248,-1010,-73,-141
434,63,-370,-248,402,-153,58,234,302,-995,-73,-141
566,87,-478,-326,522,-195,58,287,356,-995,-87,-156
766,107,-658,-436,712,-275,48,331,375,-1000,-141,-209
883,126,-756,-505,819,-314,58,346,375,-1024,-165,-219
780,185,-595,-483,688,-204,107,385,400,-1000,-78,-112
161,341,180,-251,-9,261,190,453,463,-810,219,239
-434,468,902,-17,-668,685,200,375,419,-639,517,580
-697,624,1322,36,-1010,973,195,336,424,-492,736,829
-712,785,1498,-36,-1105,1141,151,292,429,-400,883,985
-707,1000,1708,-146,-1207,1354,68,283,473,-263,1063,1195
-673,1224,1898,-275,-1285,1561,4,283,556,-112,1259,1381
-649,1244,1893,-297,-1271,1568,4,239,551,-102,1273,1395
-590,1254,1844,-331,-1217,1549,34,239,536,-141,1229,1371
-585,1156,1742,-285,-1163,1449,68,234,439,-287,1073,1200
-634,956,1590,-161,-1112,1273,102,195,326,-439,897,1019
-692,805,1498,-56,-1095,1151,136,180,283,-522,766,873
-727,492,1220,117,-973,856,165,39,141,-736,541,634
-795,185,980,305,-888,583,204,-63,0,-917,341,439
-893,-4,888,448,-890,441,229,-53,-39,-985,229,312
-936,-278,658,607,-797,190,258,-97,-97,-1083,73,117
-976,-629,346,802,-661,-141,283,-200,-234,-1273,-151,-122
-1010,-756,253,883,-631,-251,322,-229,-283,-1356,-248,-214
-1005,-697,307,851,-656,-195,390,-156,-229,-1302,-224,-195
-936,-644,292,790,-614,-175,409,-92,-165,-1249,-200,-185
-736,-492,244,614,-490,-124,395,-58,-112,-1210,-146,-146
-561,-326,234,444,-397,-46,346,-34,-68,-1161,-78,-73
-448,-214,234,331,-341,9,292,-4,-14,-1102,-53,-34
-346,-126,219,236,-283,46,234,14,53,-1044,-9,-4
-253,-53,200,153,-226,73,165,14,58,-1024,19,24
-200,-39,161,119,-180,61,131,-9,58,-1019,34,39
-195,-48,146,122,-170,48,117,-24,53,-1015,34,39
-165,-63,102,114,-134,19,102,-34,53,-1015,34,39
-117,-63,53,90,-85,-4,82,-39,58,-1010,34,39
-87,-53,34,70,-61,-9,73,-48,63,-1005,39,43
-82,-48,34,65,-58,-7,68,-53,63,-1000,43,48
-82,-43,39,63,-61,-2,63,-53,73,-990,43,53
-68,-43,24,56,-46,-9,53,-53,78,-990,43,53
-58,-34,24,46,-41,-4,53,-53,82,-990,48,53
-58,-24,34,41,-46,4,48,-58,82,-985,48,58
-53,-24,29,39,-41,2,43,-58,82,-980,53,63
-48,-29,19,39,-34,-4,43,-63,82,-976,53,63
-43,-29,14,36,-29,-7,43,-63,87,-971,58,68
-43,-19,24,31,-34,2,43,-63,92,-966,58,68
-43,-14,29,29,-36,7,43,-63,102,-961,58,73
-43,-14,29,29,-36,7,39,-63,102,-956,58,73
-39,-9,29,24,-34,9,39,-63,102,-951,63,78
-34,-9,24,21,-29,7,39,-68,107,-946,63,78
-34,-4,29,19,-31,12,39,-73,107,-941,63,78
-34,-4,29,19,-31,12,39,-73,112,-941,63,78
-29,0,29,14,-29,14,39,-73,117,-936,68,78
-29,0,29,14,-29,14,39,-73,117,-936,68,82
-24,0,24,12,-24,12,39,-73,117,-936,68,82
-24,4,29,9,-26,17,39,-73,117,-932,73,87
-24,9,34,7,-29,21,39,-73,122,-927,73,87
-24,9,34,7,-29,21,43,-73,126,-922,78,87
-24,14,39,4,-31,26,48,-73,131,-917,82,87
-24,14,39,4,-31,26,48,-73,131,-917,82,87
-19,14,34,2,-26,24,48,-73,131,-912,82,87
-14,14,29,0,-21,21,43,-73,136,-907,82,92
-4,19,24,-7,-14,21,39,-73,136,-902,82,92
-4,19,24,-7,-14,21,39,-73,141,-902,82,92
-4,19,24,-7,-14,21,39,-73,141,-897,82,92
-4,19,24,-7,-14,21,39,-73,136,-897,82,92
-9,19,29,-4,-19,24,39,-73,131,-897,82,92
-4,19,24,-7,-14,21,43,-73,136,-897,82,92
-4,19,24,-7,-14,21,48,-73,136,-893,78,92
0,19,19,-9,-9,19,43,-73,136,-888,78,92
0,19,19,-9,-9,19,43,-73,136,-883,78,92
4,19,14,-12,-4,17,43,-73,136,-893,78,87
9,19,9,-14,0,14,43,-78,136,-893,73,87
9,14,4,-12,2,9,43,-78,136,-888,68,82
9,14,4,-12,2,9,48,-78,136,-883,68,82
19,14,-4,-17,12,4,48,-73,136,-883,63,82
19,14,-4,-17,12,4,48,-73,136,-873,63,82
19,14,-4,-17,12,4,53,-73,136,-873,63,78
19,4,-14,-12,17,-4,58,-73,136,-868,68,82
24,4,-19,-14,21,-7,58,-73,136,-863,58,78
24,4,-19,-14,21,-7,58,-73,136,-868,58,78
29,4,-24,-17,26,-9,58,-73,131,-868,58,73
29,4,-24,-17,26,-9,63,-73,131,-863,58,73
34,4,-29,-19,31,-12,63,-73,131,-868,48,68
34,0,-34,-17,34,-17,63,-73,126,-868,48,68
29,0,-29,-14,29,-14,63,-78,126,-863,48,63
24,-9,-34,-7,29,-21,63,-82,126,-863,48,63
29,0,-29,-14,29,-14,63,-82,131,-858,48,63
29,0,-29,-14,29,-14,63,-82,131,-858,43,63
29,0,-29,-14,29,-14,63,-82,131,-858,39,68
29,0,-29,-14,29,-14,63,-82,131,-854,39,73
29,0,-29,-14,29,-14,63,-82,126,-849,43,73
29,0,-29,-14,29,-14,63,-82,122,-844,43,73
29,9,-19,-19,24,-4,63,-87,122,-844,43,78
29,9,-19,-19,24,-4,58,-92,117,-844,43,78
29,9,-19,-19,24,-4,58,-92,117,-834,43,78
29,14,-14,-21,21,0,53,-92,117,-824,48,82
24,19,-4,-21,14,7,53,-92,126,-824,48,92
24,19,-4,-21,14,7,48,-92,131,-819,58,92
24,24,0,-24,12,12,43,-87,131,-805,58,92
24,29,4,-26,9,17,43,-87,141,-800,63,102
24,39,14,-31,4,26,43,-82,146,-790,63,107
24,39,14,-31,4,26,43,-78,146,-780,68,107
24,43,19,-34,2,31,39,-78,151,-771,68,107
14,48,34,-31,-9,41,39,-73,156,-766,73,117
9,48,39,-29,-14,43,24,-73,161,-761,73,117
0,43,43,-21,-21,43,19,-73,165,-756,78,117
-4,43,48,-19,-26,46,19,-73,165,-746,73,122
-9,48,58,-19,-34,53,14,-73,170,-741,73,122
-9,48,58,-19,-34,53,9,-68,170,-741,73,122
-19,48,68,-14,-43,58,4,-63,170,-736,73,122
-19,48,68,-14,-43,58,4,-68,170,-732,73,122
-24,48,73,-12,-48,61,0,-68,170,-727,73,117
-29,48,78,-9,-53,63,0,-73,170,-722,73,112
-34,43,78,-4,-56,61,-4,-73,170,-717,73,107
-39,43,82,-2,-61,63,-9,-73,170,-712,73,107
-43,39,82,2,-63,61,-9,-73,170,-712,73,107
-53,43,97,4,-75,70,-9,-73,170,-712,68,107
-58,43,102,7,-80,73,-9,-73,170,-712,63,107
-63,39,102,12,-82,70,-14,-73,165,-707,63,102
-68,34,102,17,-85,68,-14,-73,165,-702,58,102
-73,29,102,21,-87,65,-14,-68,161,-697,58,102
-73,24,97,24,-85,61,-14,-68,161,-697,58,102
-73,24,97,24,-85,61,-9,-68,161,-692,58,102
-78,24,102,26,-90,63,-4,-68,156,-688,58,102
-82,24,107,29,-95,65,-4,-68,156,-683,53,102
-87,24,112,31,-100,68,-4,-68,156,-683,53,102
-87,29,117,29,-102,73,-4,-68,156,-678,48,97
-87,24,112,31,-100,68,0,-73,151,-673,48,92
-92,14,107,39,-100,61,-4,-73,146,-678,48,87
-92,14,107,39,-100,61,-9,-73,146,-678,48,87
-92,9,102,41,-97,56,-9,-68,141,-673,43,78
-92,9,102,41,-97,56,-9,-68,141,-668,43,78
-92,4,97,43,-95,51,-4,-68,141,-658,39,78
-92,0,92,46,-92,46,-4,-68,141,-653,39,78
-92,-4,87,48,-90,41,-4,-68,141,-653,34,78
-92,-4,87,48,-90,41,0,-68,136,-653,34,68
-87,0,87,43,-87,43,0,-68,136,-649,34,68
-82,-4,78,43,-80,36,0,-68,131,-649,29,68
-82,-9,73,46,-78,31,0,-68,126,-644,29,63
-82,-14,68,48,-75,26,4,-68,126,-639,19,63
-78,-14,63,46,-70,24,0,-68,126,-639,14,58
-78,-14,63,46,-70,24,-4,-68,126,-634,14,58
-78,-14,63,46,-70,24,0,-68,126,-634,14,48
-73,-14,58,43,-65,21,0,-68,131,-629,14,48
-73,-14,58,43,-65,21,0,-68,126,-629,4,43
-73,-19,53,46,-63,17,0,-68,126,-629,0,43
-73,-24,48,48,-61,12,0,-68,122,-624,0,43
-68,-24,43,46,-56,9,4,-68,122,-624,0,39
-68,-24,43,46,-56,9,4,-73,117,-619,-4,39
-68,-24,43,46,-56,9,4,-78,117,-614,-4,34
-73,-24,48,48,-61,12,4,-78,117,-619,-4,34
-73,-24,48,48,-61,12,4,-78,117,-619,0,29
-73,-24,48,48,-61,12,4,-73,112,-610,0,29
-73,-29,43,51,-58,7,4,-68,117,-600,0,29
-73,-29,43,51,-58,7,4,-68,112,-595,0,29
-73,-29,43,51,-58,7,4,-68,112,-590,0,29
-73,-24,48,48,-61,12,4,-73,112,-590,0,24
-73,-24,48,48,-61,12,0,-73,107,-590,0,24
-73,-24,48,48,-61,12,0,-73,97,-585,0,24
-73,-24,48,48,-61,12,0,-73,92,-585,0,24
-73,-24,48,48,-61,12,0,-73,92,-580,0,24
-73,-24,48,48,-61,12,0,-73,92,-570,0,24
-73,-29,43,51,-58,7,0,-68,92,-566,4,19
-73,-29,43,51,-58,7,0,-63,87,-561,4,14
-73,-29,43,51,-58,7,0,-63,87,-561,4,9
-73,-29,43,51,-58,7,0,-63,87,-561,4,9
-73,-29,43,51,-58,7,0,-63,87,-551,4,9
-78,-34,43,56,-61,4,0,-63,87,-546,4,9
-78,-34,43,56,-61,4,0,-63,87,-541,4,9
-78,-29,48,53,-63,9,0,-63,82,-536,4,9
-78,-29,48,53,-63,9,-4,-58,78,-531,4,9
-78,-29,48,53,-63,9,-4,-58,78,-527,4,4
-78,-29,48,53,-63,9,-4,-58,78,-527,4,4
-78,-29,48,53,-63,9,-4,-58,78,-527,4,4
-78,-29,48,53,-63,9,-9,-63,73,-522,9,0
-78,-24,53,51,-65,14,-14,-68,68,-512,9,-4
-78,-24,53,51,-65,14,-14,-63,68,-507,9,-4
-78,-24,53,51,-65,14,-14,-63,68,-502,9,-4
-78,-19,58,48,-68,19,-9,-63,68,-497,4,0
-78,-19,58,48,-68,19,-9,-63,68,-492,4,0
-78,-19,58,48,-68,19,-9,-58,63,-492,4,0
-78,-14,63,46,-70,24,-14,-58,58,-488,4,4
-73,-14,58,43,-65,21,-14,-58,58,-483,9,4
-68,-14,53,41,-61,19,-14,-53,53,-478,9,4
-68,-14,53,41,-61,19,-9,-53,53,-473,4,4
-68,-9,58,39,-63,24,-9,-53,58,-463,4,4
-73,-14,58,43,-65,21,-9,-48,53,-458,9,4
-78,-14,63,46,-70,24,-14,-48,48,-453,9,4
-78,-19,58,48,-68,19,-14,-48,48,-448,9,4
-73,-19,53,46,-63,17,-9,-53,48,-444,4,0
-73,-14,58,43,-65,21,-4,-48,53,-444,9,4
-63,-9,53,36,-58,21,-4,-48,53,-439,9,14
-63,-9,53,36,-58,21,-4,-43,43,-429,9,9
-68,-9,58,39,-63,24,-9,-39,39,-419,9,9
-68,-9,58,39,-63,24,-4,-39,39,-419,9,9
-68,-9,58,39,-63,24,0,-39,39,-419,9,9
-68,0,68,34,-68,34,4,-29,43,-409,14,14
-68,9,78,29,-73,43,9,-19,48,-400,19,19
-68,14,82,26,-75,48,14,-9,48,-390,19,19
-68,19,87,24,-78,53,19,0,48,-380,19,19
-68,19,87,24,-78,53,29,0,48,-375,19,19
-68,19,87,24,-78,53,39,0,48,-370,19,19
-68,19,87,24,-78,53,39,0,48,-366,19,19
-68,19,87,24,-78,53,39,0,48,-361,19,19
-68,19,87,24,-78,53,39,0,48,-356,19,19
-68,19,87,24,-78,53,39,0,48,-351,19,19
-53,39,92,7,-73,65,39,0,53,-331,29,39
-39,58,97,-9,-68,78,39,0,58,-312,39,58
-24,68,92,-21,-58,80,29,0,58,-302,43,63
-9,78,87,-34,-48,82,19,0,58,-292,48,68
-4,78,82,-36,-43,80,0,-9,58,-287,53,73
0,78,78,-39,-39,78,-19,-19,58,-283,58,78
0,78,78,-39,-39,78,-19,-24,53,-278,58,78
0,78,78,-39,-39,78,-19,-29,48,-273,58,78
0,73,73,-36,-36,73,-19,-34,43,-273,58,78
0,68,68,-34,-34,68,-19,-39,39,-273,58,78
0,63,63,-31,-31,63,-19,-43,34,-268,53,78
0,58,58,-29,-29,58,-19,-48,29,-263,48,78
-9,48,58,-19,-34,53,-19,-53,19,-263,43,68
-19,39,58,-9,-39,48,-19,-58,9,-263,39,58
-29,24,53,2,-41,39,-24,-63,0,-268,24,48
-39,9,48,14,-43,29,-29,-68,-9,-273,9,39
-43,-4,39,24,-41,17,-29,-78,-19,-273,0,29
-48,-19,29,34,-39,4,-29,-87,-29,-273,-9,19
-53,-19,34,36,-43,7,-29,-92,-29,-273,-9,14
-58,-19,39,39,-48,9,-29,-97,-29,-273,-9,9
-58,-19,39,39,-48,9,-24,-97,-29,-268,-9,9
-58,-24,34,41,-46,4,-24,-97,-29,-263,-9,4
-58,-29,29,43,-43,0,-24,-97,-29,-258,-14,4
-58,-34,24,46,-41,-4,-24,-97,-29,-253,-14,0
-63,-39,24,51,-43,-7,-24,-102,-29,-253,-19,0
-63,-43,19,53,-41,-12,-24,-107,-29,-248,-24,0
-68,-43,24,56,-46,-9,-24,-107,-29,-248,-29,-4
-68,-48,19,58,-43,-14,-24,-107,-29,-244,-29,-4
-68,-48,19,58,-43,-14,-19,-107,-29,-239,-24,-4
-73,-43,29,58,-51,-7,-14,-107,-29,-234,-19,-4
-73,-43,29,58,-51,-7,-14,-107,-29,-224,-24,-4
-73,-48,24,61,-48,-12,-9,-107,-29,-214,-24,-4
-73,-48,24,61,-48,-12,-14,-112,-29,-214,-24,-4
-78,-48,29,63,-53,-9,-14,-117,-29,-209,-24,-4
-78,-53,24,65,-51,-14,-14,-117,-29,-209,-24,-4
-78,-58,19,68,-48,-19,-14,-112,-24,-204,-24,-4
-78,-53,24,65,-51,-14,-14,-112,-24,-195,-24,-4
-78,-53,24,65,-51,-14,-14,-112,-24,-185,-24,-4
-78,-53,24,65,-51,-14,-9,-117,-24,-185,-24,-4
-78,-48,29,63,-53,-9,-9,-117,-19,-180,-19,-4
-82,-43,39,63,-61,-2,-9,-117,-14,-175,-14,0
-82,-39,43,61,-63,2,-9,-117,-9,-165,-9,4
-87,-39,48,63,-68,4,-9,-117,-4,-156,-9,4
-87,-39,48,63,-68,4,-9,-122,-4,-146,-9,4
-87,-39,48,63,-68,4,-9,-122,-4,-141,-9,4
-87,-39,48,63,-68,4,-4,-122,-4,-141,-4,4
-87,-39,48,63,-68,4,-4,-122,-4,-131,-4,4
-87,-39,48,63,-68,4,-4,-122,0,-122,0,9
-87,-39,48,63,-68,4,-4,-122,0,-117,0,9
-87,-39,48,63,-68,4,0,-122,4,-112,0,9
-87,-39,48,63,-68,4,0,-122,4,-112,-9,0
-82,-48,34,65,-58,-7,0,-126,0,-112,-14,-4
-73,-73,0,73,-36,-36,0,-131,-19,-131,-34,-14
-58,-136,-78,97,9,-107,0,-151,-53,-175,-82,-68
-39,-200,-161,119,61,-180,14,-161,-78,-219,-146,-126
4,-200,-204,97,104,-202,34,-136,-53,-204,-151,-146
58,-170,-229,56,143,-200,43,-112,-24,-180,-151,-146
117,-107,-224,-4,170,-165,58,-29,78,-131,-141,-146
185,-9,-195,-87,190,-102,78,78,190,-58,-112,-146
307,58,-248,-183,278,-95,87,146,268,-4,-102,-151
448,102,-346,-275,397,-122,92,185,326,9,-102,-156
595,126,-468,-361,531,-170,97,248,385,9,-117,-175
756,146,-610,-451,683,-231,97,292,405,0,-161,-219
834,165,-668,-500,751,-251,117,307,405,-29,-175,-219
668,234,-434,-451,551,-100,165,336,424,14,-58,-73
-14,400,414,-192,-214,407,248,395,483,224,268,317
-585,488,1073,48,-829,780,244,273,405,361,541,629
-824,605,1429,109,-1127,1017,224,190,375,473,736,849
-824,766,1590,29,-1207,1178,175,126,366,556,883,1005
-805,980,1786,-87,-1295,1383,87,97,395,683,1063,1215
-766,1195,1961,-214,-1363,1578,19,107,478,824,1249,1390
-736,1205,1942,-234,-1339,1573,14,73,473,824,1254,1395
-683,1205,1888,-261,-1285,1546,43,73,458,771,1210,1376
-683,1098,1781,-207,-1232,1439,78,68,361,610,1054,1210
-741,888,1629,-73,-1185,1259,112,9,253,453,863,1015
-810,727,1537,41,-1173,1132,146,-24,214,366,717,854
-858,414,1273,222,-1066,844,170,-131,73,151,492,610
-941,107,1049,417,-995,578,204,-200,-68,-29,292,409
-1024,-73,951,549,-988,439,229,-200,-92,-97,180,283
-1054,-336,717,695,-885,190,258,-253,-136,-195,24,87
-1049,-614,434,832,-741,-90,278,-317,-244,-366,-161,-117
-1039,-668,370,854,-705,-148,312,-307,-263,-429,-219,-175
-961,-580,380,771,-671,-100,346,-244,-209,-375,-195,-156
-819,-497,322,658,-570,-87,331,-190,-146,-322,-170,-146
-649,-366,283,507,-466,-41,307,-165,-97,-287,-122,-112
-502,-219,283,361,-392,31,248,-151,-58,-244,-58,-43
-409,-141,268,275,-339,63,204,-122,-19,-200,-43,-19
-326,-87,239,207,-283,75,156,-102,34,-156,-9,-4
-248,-29,219,139,-234,95,107,-102,39,-146,14,24
-209,-29,180,119,-195,75,92,-126,39,-151,24,39
-204,-19,185,112,-195,82,82,-136,43,-146,24,43
-175,-14,161,95,-168,73,73,-141,53,-146,24,48
-136,-14,122,75,-129,53,53,-141,58,-141,29,48
-117,-4,112,61,-114,53,43,-146,63,-136,39,53
-112,0,112,56,-112,56,39,-151,63,-136,43,58
-112,4,117,53,-114,61,34,-151,73,-131,43,63
-102,-4,97,53,-100,46,24,-151,78,-136,43,63
-97,-4,92,51,-95,43,24,-151,82,-141,48,63
-97,4,102,46,-100,53,19,-156,82,-146,43,68
-92,4,97,43,-95,51,14,-156,82,-151,43,73
-87,4,92,41,-90,48,14,-161,78,-151,43,68
-82,9,92,36,-87,51,14,-161,78,-151,48,68
-82,14,97,34,-90,56,14,-161,78,-156,48,68
-82,14,97,34,-90,56,14,-161,82,-161,48,73
-82,14,97,34,-90,56,9,-161,87,-161,53,73
-78,19,97,29,-87,58,9,-161,92,-161,63,78
-73,19,92,26,-82,56,9,-161,97,-161,63,82
-73,24,97,24,-85,61,9,-161,97,-161,63,87
-73,24,97,24,-85,61,9,-156,102,-165,58,87
-68,29,97,19,-82,63,9,-151,107,-165,58,87
-68,29,97,19,-82,63,9,-151,107,-165,58,87
-63,29,92,17,-78,61,9,-151,107,-165,58,82
-63,29,92,17,-78,61,9,-151,107,-165,63,87
-63,29,92,17,-78,61,9,-151,112,-165,63,87
-63,24,87,19,-75,56,9,-151,112,-170,63,87
-63,24,87,19,-75,56,9,-151,112,-175,63,87
-63,24,87,19,-75,56,9,-151,112,-180,63,87
-58,24,82,17,-70,53,9,-151,112,-180,63,87
-58,29,87,14,-73,58,9,-151,117,-180,63,92
-53,39,92,7,-73,65,9,-151,117,-180,63,92
-53,39,92,7,-73,65,9,-151,122,-185,63,92
-53,39,92,7,-73,65,9,-151,122,-185,63,92
-43,34,78,4,-61,56,9,-151,122,-190,63,87
-39,29,68,4,-53,48,9,-151,122,-195,63,82
-34,29,63,2,-48,46,9,-151,131,-200,63,82
-34,29,63,2,-48,46,9,-151,136,-200,58,82
-29,29,58,0,-43,43,4,-151,136,-200,58,82
-29,29,58,0,-43,43,4,-151,136,-200,58,82
-24,29,53,-2,-39,41,4,-151,136,-209,58,78
-19,29,48,-4,-34,39,4,-156,136,-209,53,78
-19,24,43,-2,-31,34,0,-156,136,-209,48,73
-19,24,43,-2,-31,34,0,-156,136,-209,48,73
-9,24,34,-7,-21,29,0,-156,136,-219,43,73
-9,24,34,-7,-21,29,0,-161,136,-219,43,73
-4,24,29,-9,-17,26,0,-161,136,-224,39,63
0,14,14,-7,-7,14,0,-161,136,-224,39,63
4,14,9,-9,-2,12,0,-161,136,-224,29,58
4,14,9,-9,-2,12,0,-161,136,-234,29,58
9,14,4,-12,2,9,0,-161,131,-244,29,58
9,14,4,-12,2,9,4,-161,131,-248,29,63
9,14,4,-12,2,9,4,-161,131,-258,19,58
4,9,4,-7,0,7,4,-161,126,-263,19,58
4,9,4,-7,0,7,4,-161,126,-263,19,53
4,0,-4,-2,4,-2,4,-161,126,-268,19,53
9,4,-4,-7,7,0,4,-161,126,-268,19,53
9,0,-9,-4,9,-4,4,-161,122,-273,14,53
9,0,-9,-4,9,-4,4,-161,122,-278,9,53
9,0,-9,-4,9,-4,4,-161,122,-278,9,53
9,0,-9,-4,9,-4,0,-161,122,-278,14,48
9,0,-9,-4,9,-4,-4,-161,122,-278,14,43
14,4,-9,-9,12,-2,-4,-161,122,-283,14,48
19,0,-19,-9,19,-9,-9,-161,117,-287,14,48
19,0,-19,-9,19,-9,-4,-161,117,-287,14,58
19,4,-14,-12,17,-4,-4,-161,117,-287,19,73
14,9,-4,-12,9,2,-4,-161,122,-287,14,73
14,9,-4,-12,9,2,-9,-161,122,-283,19,63
14,14,0,-14,7,7,-9,-156,122,-273,19,63
14,19,4,-17,4,12,-4,-156,131,-273,24,73
14,29,14,-21,0,21,-4,-151,136,-278,24,78
14,29,14,-21,0,21,-4,-146,136,-283,29,78
14,34,19,-24,-2,26,-9,-146,141,-273,34,78
4,39,34,-21,-14,36,-9,-141,146,-268,43,87
4,43,39,-24,-17,41,-19,-136,151,-268,43,87
0,43,43,-21,-21,43,-19,-131,156,-268,48,87
-4,39,43,-17,-24,41,-19,-131,156,-263,43,92
-9,39,48,-14,-29,43,-24,-131,161,-263,43,92
-14,39,53,-12,-34,46,-24,-131,165,-263,43,92
-29,39,68,-4,-48,53,-24,-131,170,-258,43,92
-29,39,68,-4,-48,53,-24,-131,170,-258,43,92
-34,39,73,-2,-53,56,-29,-126,170,-258,43,87
-39,39,78,0,-58,58,-29,-131,170,-258,43,87
-43,34,78,4,-61,56,-34,-131,170,-258,43,87
-48,34,82,7,-65,58,-39,-131,170,-258,39,87
-53,29,82,12,-68,56,-39,-131,170,-263,34,87
-63,29,92,17,-78,61,-39,-131,170,-268,34,92
-68,24,92,21,-80,58,-39,-131,170,-273,34,97
-73,19,92,26,-82,56,-43,-131,165,-273,34,92
-78,14,92,31,-85,53,-43,-131,165,-273,29,92
-82,9,92,36,-87,51,-43,-131,161,-273,29,92
-82,4,87,39,-85,46,-43,-136,161,-278,29,92
-82,4,87,39,-85,46,-43,-136,161,-278,29,87
-87,4,92,41,-90,48,-43,-136,156,-278,29,82
-87,4,92,41,-90,48,-43,-136,156,-278,24,82
-87,4,92,41,-90,48,-43,-136,156,-283,24,82
-87,4,92,41,-90,48,-43,-136,156,-283,19,82
-87,-4,82,46,-85,39,-39,-141,151,-283,19,82
-97,-14,82,56,-90,34,-34,-141,146,-292,19,78
-102,-14,87,58,-95,36,-29,-141,146,-297,19,78
-102,-19,82,61,-92,31,-29,-136,141,-297,14,68
-102,-19,82,61,-92,31,-29,-136,141,-297,14,68
-97,-19,78,58,-87,29,-24,-136,141,-297,9,68
-92,-19,73,56,-82,26,-24,-136,141,-302,9,68
-92,-24,68,58,-80,21,-24,-136,141,-302,4,68
-92,-24,68,58,-80,21,-19,-136,136,-302,4,58
-92,-19,73,56,-82,26,-19,-131,141,-302,4,58
-92,-24,68,58,-80,21,-19,-126,141,-307,0,58
-92,-29,63,61,-78,17,-19,-126,136,-307,4,53
-92,-34,58,63,-75,12,-14,-126,136,-307,0,53
-87,-34,53,61,-70,9,-14,-126,136,-312,-4,48
-87,-34,53,61,-70,9,-14,-126,136,-312,-4,48
-87,-34,53,61,-70,9,-9,-131,131,-322,-4,39
-82,-34,48,58,-65,7,-9,-136,131,-326,-4,39
-82,-34,48,58,-65,7,-9,-136,126,-326,-9,34
-82,-39,43,61,-63,2,-9,-136,126,-326,-9,34
-82,-43,39,63,-61,-2,-9,-131,122,-326,-9,34
-78,-43,34,61,-56,-4,-4,-126,122,-331,-9,29
-78,-48,29,63,-53,-9,-4,-126,117,-331,-14,24
-78,-53,24,65,-51,-14,-4,-126,117,-331,-14,14
-78,-53,24,65,-51,-14,-4,-131,117,-336,-19,14
-73,-53,19,63,-46,-17,-4,-136,117,-336,-19,9
-78,-53,24,65,-51,-14,-4,-136,107,-336,-19,9
-82,-58,24,70,-53,-17,-4,-136,107,-336,-19,9
-82,-63,19,73,-51,-21,-4,-131,102,-341,-19,9
-82,-68,14,75,-48,-26,-4,-126,102,-346,-19,9
-82,-68,14,75,-48,-26,-4,-131,102,-346,-19,4
-82,-73,9,78,-46,-31,-9,-131,97,-346,-19,4
-82,-73,9,78,-46,-31,-14,-136,92,-346,-19,4
-82,-73,9,78,-46,-31,-19,-141,92,-351,-19,4
-82,-68,14,75,-48,-26,-19,-141,92,-356,-19,4
-82,-63,19,73,-51,-21,-19,-141,92,-356,-19,4
-87,-63,24,75,-56,-19,-19,-141,92,-356,-14,4
-92,-58,34,75,-63,-12,-19,-141,87,-356,-14,4
-92,-58,34,75,-63,-12,-19,-141,82,-356,-9,4
-92,-58,34,75,-63,-12,-19,-141,78,-356,-4,9
-87,-58,29,73,-58,-14,-19,-141,78,-356,-4,9
-87,-63,24,75,-56,-19,-19,-141,78,-361,-4,9
-87,-68,19,78,-53,-24,-19,-141,78,-361,-4,9
-87,-68,19,78,-53,-24,-19,-141,73,-361,-4,9
-87,-68,19,78,-53,-24,-24,-136,63,-361,-4,14
-87,-68,19,78,-53,-24,-24,-136,58,-361,-4,14
-87,-68,19,78,-53,-24,-24,-136,58,-361,-4,14
-87,-68,19,78,-53,-24,-24,-136,58,-361,-4,14
-87,-68,19,78,-53,-24,-24,-136,58,-361,0,14
-87,-63,24,75,-56,-19,-24,-136,58,-356,0,14
-87,-63,24,75,-56,-19,-24,-131,53,-356,0,14
-87,-63,24,75,-56,-19,-24,-131,48,-356,0,14
-87,-58,29,73,-58,-14,-24,-131,48,-356,0,19
-87,-58,29,73,-58,-14,-29,-131,48,-356,4,19
-87,-58,29,73,-58,-14,-24,-126,48,-356,4,24
-87,-53,34,70,-61,-9,-24,-126,48,-351,4,34
-87,-53,34,70,-61,-9,-24,-126,48,-356,9,34
-87,-53,34,70,-61,-9,-24,-122,43,-361,9,34
-87,-58,29,73,-58,-14,-19,-122,39,-361,4,34
-87,-58,29,73,-58,-14,-19,-122,39,-356,4,34
-87,-58,29,73,-58,-14,-14,-117,39,-356,9,34
-87,-53,34,70,-61,-9,-14,-117,39,-356,9,34
-92,-48,43,70,-68,-2,-9,-107,39,-351,14,39
-92,-39,53,65,-73,7,0,-102,39,-346,14,39
-97,-34,63,65,-80,14,4,-92,43,-346,19,43
-92,-29,63,61,-78,17,4,-87,43,-341,19,53
-92,-29,63,61,-78,17,9,-82,43,-336,24,48
-97,-29,68,63,-82,19,19,-78,48,-331,29,48
-102,-29,73,65,-87,21,24,-73,48,-331,29,48
-107,-29,78,68,-92,24,29,-68,48,-331,29,48
-107,-29,78,68,-92,24,34,-63,48,-331,29,48
-107,-29,78,68,-92,24,39,-58,48,-331,29,48
-97,-9,87,53,-92,39,39,-53,53,-326,34,53
-87,9,97,39,-92,53,39,-48,58,-322,39,58
-73,24,97,24,-85,61,34,-48,58,-312,48,73
-58,39,97,9,-78,68,29,-48,58,-302,58,87
-48,48,97,0,-73,73,9,-48,58,-297,68,92
-39,58,97,-9,-68,78,-9,-48,58,-292,78,97
-34,58,92,-12,-63,75,-14,-48,58,-292,78,102
-29,58,87,-14,-58,73,-19,-48,58,-292,78,107
-29,53,82,-12,-56,68,-19,-48,53,-292,78,107
-29,48,78,-9,-53,63,-19,-48,48,-292,78,107
-29,43,73,-7,-51,58,-24,-48,43,-292,78,107
-29,39,68,-4,-48,53,-29,-48,39,-292,78,107
-34,29,63,2,-48,46,-29,-53,34,-297,73,102
-39,19,58,9,-48,39,-29,-58,29,-302,68,97
-48,0,48,24,-48,24,-29,-63,14,-312,53,87
-58,-19,39,39,-48,9,-29,-68,0,-322,39,78
-58,-24,34,41,-46,4,-34,-73,-4,-322,34,68
-58,-29,29,43,-43,0,-39,-78,-9,-322,29,58
-58,-39,19,48,-39,-9,-39,-78,-9,-326,24,53
-58,-48,9,53,-34,-19,-39,-78,-9,-331,19,48
-58,-58,0,58,-29,-29,-34,-78,-14,-341,14,43
-58,-63,-4,61,-26,-34,-34,-78,-14,-346,9,39
-58,-73,-14,65,-21,-43,-34,-78,-19,-351,4,39
-58,-78,-19,68,-19,-48,-34,-73,-19,-351,4,34
-58,-78,-19,68,-19,-48,-34,-68,-14,-346,4,34
-63,-73,-9,68,-26,-41,-34,-68,-9,-346,4,39
-58,-68,-9,63,-24,-39,-34,-68,-9,-341,4,39
-58,-63,-4,61,-26,-34,-34,-68,-9,-336,0,34
-58,-68,-9,63,-24,-39,-34,-63,-9,-331,0,29
-58,-73,-14,65,-21,-43,-34,-58,-9,-331,0,24
-58,-78,-19,68,-19,-48,-29,-58,-9,-336,0,24
-53,-82,-29,68,-12,-56,-24,-58,-9,-341,-4,24
-53,-87,-34,70,-9,-61,-19,-53,-9,-341,-4,19
-53,-87,-34,70,-9,-61,-19,-48,-9,-341,-4,14
-58,-82,-24,70,-17,-53,-14,-48,-9,-336,-4,14
-58,-78,-19,68,-19,-48,-14,-48,-9,-336,-4,14
-53,-78,-24,65,-14,-51,-14,-43,-4,-331,-4,14
-48,-73,-24,61,-12,-48,-14,-43,-4,-331,-4,14
-48,-73,-24,61,-12,-48,-19,-39,0,-331,0,14
-48,-73,-24,61,-12,-48,-19,-34,4,-331,4,14
-48,-68,-19,58,-14,-43,-19,-29,9,-326,9,14
-53,-68,-14,61,-19,-41,-19,-29,9,-326,9,14
-48,-68,-19,58,-14,-43,-14,-29,9,-322,9,14
-43,-68,-24,56,-9,-46,-9,-24,14,-322,9,14
-39,-68,-29,53,-4,-48,-9,-19,14,-322,4,14
-39,-68,-29,53,-4,-48,-9,-14,14,-317,0,14
-34,-68,-34,51,0,-51,-4,-9,14,-317,4,14
-29,-63,-34,46,2,-48,-4,-4,14,-312,4,14
-29,-58,-29,43,0,-43,-4,-4,19,-307,9,19
-29,-58,-29,43,0,-43,-4,-4,19,-307,9,19
-29,-58,-29,43,0,-43,-4,-4,24,-307,14,19
-29,-58,-29,43,0,-43,-9,-4,24,-307,9,9
-24,-53,-29,39,2,-41,-9,-9,19,-307,4,4
-14,-63,-48,39,17,-56,-9,-19,0,-331,-14,-9
0,-141,-141,70,70,-141,-9,-53,-39,-385,-68,-73
19,-219,-239,100,129,-229,0,-73,-73,-439,-136,-136
63,-219,-283,78,173,-251,14,-48,-53,-429,-141,-156
117,-190,-307,36,212,-248,24,-24,-24,-409,-141,-156
175,-126,-302,-24,239,-214,39,53,78,-366,-122,-151
244,-29,-273,-107,258,-151,53,151,185,-292,-78,-141
361,53,-307,-207,334,-126,58,214,268,-229,-63,-136
492,112,-380,-302,436,-134,58,244,331,-204,-63,-131
634,126,-507,-380,570,-190,53,292,375,-204,-68,-131
795,136,-658,-466,727,-261,48,331,385,-209,-102,-161
912,136,-775,-524,844,-319,68,346,385,-253,-156,-200
785,185,-600,-485,692,-207,117,375,405,-229,-78,-97
92,375,283,-234,-95,329,200,453,478,-9,268,302
-468,517,985,-24,-727,751,200,390,444,161,566,629
-697,668,1366,14,-1032,1017,190,351,448,307,766,849
-707,834,1542,-63,-1124,1188,146,307,458,400,912,1005
-702,1054,1756,-175,-1229,1405,58,292,512,527,1112,1229
-683,1263,1947,-290,-1315,1605,-4,292,595,668,1312,1415
-649,1263,1912,-307,-1281,1588,-4,248,580,668,1298,1400
-585,1254,1839,-334,-1212,1546,24,248,561,605,1220,1346
-585,1146,1732,-280,-1159,1439,58,248,458,434,1054,1171
-644,946,1590,-151,-1117,1268,92,195,346,278,888,1000
-702,785,1488,-41,-1095,1137,126,161,297,190,756,854
-732,473,1205,129,-968,839,156,48,151,-24,531,614
-805,161,966,322,-885,563,200,-34,9,-209,331,419
-902,-34,868,468,-885,417,229,-48,-24,-283,219,292
-951,-326,624,639,-788,148,258,-112,-92,-385,48,92
-961,-634,326,797,-644,-153,283,-190,-219,-561,-161,-126
-995,-722,273,858,-634,-224,331,-190,-244,-639,-229,-200
-985,-673,312,829,-649,-180,390,-126,-190,-600,-204,-185
-893,-605,287,749,-590,-158,400,-73,-126,-546,-190,-175
-717,-463,253,590,-485,-104,395,-43,-78,-512,-151,-141
-536,-307,229,422,-383,-39,346,-24,-39,-468,-78,-73
-424,-214,209,319,-317,-2,292,4,4,-424,-43,-39
-331,-117,214,224,-273,48,214,19,63,-370,4,-9
-239,-29,209,134,-224,90,131,14,68,-346,34,24
-185,-39,146,112,-165,53,102,-9,68,-356,43,39
-175,-48,126,112,-151,39,92,-24,68,-361,43,39
-146,-63,82,104,-114,9,82,-39,73,-361,39,39
-102,-73,29,87,-65,-21,63,-43,78,-361,34,39
-78,-63,14,70,-46,-24,53,-48,82,-361,39,43
-73,-58,14,65,-43,-21,48,-53,82,-361,43,48
-73,-53,19,63,-46,-17,43,-58,92,-356,43,53
-58,-53,4,56,-31,-24,34,-63,92,-356,43,53
-48,-43,4,46,-26,-19,34,-63,92,-356,48,53
-48,-34,14,41,-31,-9,29,-68,92,-356,48,58
-43,-34,9,39,-26,-12,24,-68,92,-361,53,63
-39,-39,0,39,-19,-19,24,-73,92,-366,53,63
-34,-39,-4,36,-14,-21,24,-73,97,-366,58,68
-34,-34,0,34,-17,-17,24,-73,97,-366,58,68
-34,-34,0,34,-17,-17,24,-73,102,-366,58,73
-34,-34,0,34,-17,-17,19,-73,102,-366,58,73
-29,-29,0,29,-14,-14,19,-73,102,-366,63,78
-24,-29,-4,26,-9,-17,19,-73,107,-366,63,78
-24,-24,0,24,-12,-12,19,-73,107,-366,63,78
-24,-24,0,24,-12,-12,19,-73,112,-370,63,78
-19,-19,0,19,-9,-9,19,-73,117,-370,68,78
-19,-19,0,19,-9,-9,19,-73,117,-370,68,82
-14,-19,-4,17,-4,-12,19,-78,122,-370,68,82
-14,-19,-4,17,-4,-12,19,-82,126,-370,73,87
-14,-19,-4,17,-4,-12,19,-82,131,-375,73,87
-14,-19,-4,17,-4,-12,19,-82,131,-380,73,87
-14,-14,0,14,-7,-7,19,-82,131,-380,73,87
-14,-14,0,14,-7,-7,19,-82,131,-385,73,87
-4,-9,-4,7,0,-7,19,-82,131,-385,73,87
0,-4,-4,2,2,-4,19,-82,136,-385,73,87
4,0,-4,-2,4,-2,19,-82,136,-385,73,87
4,0,-4,-2,4,-2,19,-82,141,-390,73,92
0,0,0,0,0,0,19,-82,141,-390,73,92
0,0,0,0,0,0,19,-82,141,-390,73,92
0,0,0,0,0,0,19,-82,141,-390,73,87
4,0,-4,-2,4,-2,19,-82,146,-395,73,82
4,0,-4,-2,4,-2,24,-82,146,-395,68,82
9,0,-9,-4,9,-4,24,-82,146,-395,68,82
9,0,-9,-4,9,-4,24,-82,146,-395,68,82
14,0,-14,-7,14,-7,24,-78,146,-405,68,78
19,0,-19,-9,19,-9,24,-78,146,-409,63,78
19,-4,-24,-7,21,-14,24,-78,146,-414,58,73
14,-4,-19,-4,17,-12,29,-78,146,-414,58,73
19,-4,-24,-7,21,-14,29,-73,146,-424,53,73
19,-4,-24,-7,21,-14,29,-78,146,-424,53,73
19,-4,-24,-7,21,-14,29,-82,146,-429,48,63
19,-9,-29,-4,24,-19,29,-82,146,-429,48,63
24,-4,-29,-9,26,-17,29,-82,146,-429,39,58
24,-4,-29,-9,26,-17,29,-82,146,-439,39,63
29,-4,-34,-12,31,-19,29,-82,141,-444,39,63
29,-4,-34,-12,31,-19,34,-82,141,-444,39,63
34,-4,-39,-14,36,-21,34,-82,141,-448,29,58
34,-9,-43,-12,39,-26,34,-87,136,-453,29,58
34,-9,-43,-12,39,-26,34,-92,136,-458,29,53
34,-19,-53,-7,43,-36,34,-92,136,-463,29,53
39,-9,-48,-14,43,-29,34,-92,136,-463,29,53
39,-9,-48,-14,43,-29,34,-92,131,-468,24,53
39,-9,-48,-14,43,-29,34,-92,131,-473,19,53
39,-9,-48,-14,43,-29,34,-92,131,-473,19,53
39,-9,-48,-14,43,-29,34,-92,131,-473,24,53
39,-9,-48,-14,43,-29,34,-92,131,-473,24,53
39,0,-39,-19,39,-19,34,-92,131,-473,24,58
39,0,-39,-19,39,-19,29,-97,126,-473,24,58
39,0,-39,-19,39,-19,29,-102,126,-473,24,58
39,4,-34,-21,36,-14,24,-102,126,-473,29,58
34,9,-24,-21,29,-7,24,-102,131,-473,29,63
34,9,-24,-21,29,-7,19,-102,131,-473,39,63
34,14,-19,-24,26,-2,14,-97,131,-468,39,63
34,19,-14,-26,24,2,9,-97,141,-468,43,73
34,29,-4,-31,19,12,4,-92,146,-468,43,78
34,34,0,-34,17,17,4,-92,146,-468,48,82
34,43,9,-39,12,26,0,-97,151,-458,48,87
24,48,24,-36,0,36,0,-92,156,-453,53,97
24,53,29,-39,-2,41,-9,-87,161,-453,53,97
19,53,34,-36,-7,43,-9,-82,165,-453,58,92
14,53,39,-34,-12,46,-9,-82,165,-448,58,92
9,58,48,-34,-19,53,-14,-78,170,-448,63,92
4,58,53,-31,-24,56,-14,-73,170,-448,63,92
-9,58,68,-24,-39,63,-14,-68,175,-444,63,92
-9,58,68,-24,-39,63,-14,-68,180,-444,63,92
-14,58,73,-21,-43,65,-19,-68,180,-444,58,87
-19,58,78,-19,-48,68,-19,-73,180,-444,53,87
-24,53,78,-14,-51,65,-24,-73,175,-444,53,87
-29,53,82,-12,-56,68,-29,-73,170,-444,53,87
-34,53,87,-9,-61,70,-29,-73,170,-448,53,87
-43,58,102,-7,-73,80,-29,-73,170,-448,53,87
-48,58,107,-4,-78,82,-29,-73,170,-448,53,87
-53,58,112,-2,-82,85,-34,-73,165,-448,53,82
-58,53,112,2,-85,82,-34,-68,170,-448,43,78
-63,53,117,4,-90,85,-34,-63,170,-448,39,73
-63,48,112,7,-87,80,-29,-68,170,-458,39,73
-63,43,107,9,-85,75,-24,-68,170,-463,39,73
-73,43,117,14,-95,80,-24,-68,165,-463,43,73
-78,43,122,17,-100,82,-24,-68,165,-463,43,73
-78,43,122,17,-100,82,-29,-63,165,-468,43,68
-78,43,122,17,-100,82,-34,-58,165,-468,39,63
-78,39,117,19,-97,78,-29,-63,161,-463,39,63
-82,34,117,24,-100,75,-29,-63,156,-463,39,58
-78,34,112,21,-95,73,-29,-63,156,-463,39,63
-73,29,102,21,-87,65,-29,-58,151,-463,34,58
-73,29,102,21,-87,65,-29,-63,146,-468,34,58
-73,29,102,21,-87,65,-24,-68,141,-473,29,58
-73,29,102,21,-87,65,-24,-68,141,-478,24,53
-73,24,97,24,-85,61,-24,-68,141,-478,14,48
-73,24,97,24,-85,61,-19,-68,141,-478,14,39
-73,24,97,24,-85,61,-19,-68,146,-478,14,39
-73,19,92,26,-82,56,-19,-68,141,-483,9,39
-73,19,92,26,-82,56,-19,-68,136,-483,9,34
-73,14,87,29,-80,51,-14,-63,136,-478,0,34
-68,14,82,26,-75,48,-14,-58,136,-478,-4,29
-68,9,78,29,-73,43,-14,-58,136,-478,-4,29
-68,4,73,31,-70,39,-9,-58,131,-483,-4,19
-63,4,68,29,-65,36,-9,-58,131,-483,-4,19
-63,4,68,29,-65,36,-9,-58,126,-483,-9,14
-63,0,63,31,-63,31,-9,-58,126,-483,-9,14
-63,-4,58,34,-61,26,-9,-58,122,-483,-9,14
-58,-4,53,31,-56,24,-4,-58,122,-488,-9,9
-58,-4,53,31,-56,24,-4,-58,117,-488,-14,9
-63,-4,58,34,-61,26,-4,-58,117,-488,-9,4
-68,-4,63,36,-65,29,-4,-58,117,-492,-9,4
-63,-4,58,34,-61,26,-4,-58,122,-492,-4,0
-63,-4,58,34,-61,26,-4,-58,117,-492,0,0
-63,-9,53,36,-58,21,-4,-58,117,-492,0,0
-63,-9,53,36,-58,21,-4,-58,112,-492,0,0
-63,-9,53,36,-58,21,-4,-58,112,-492,0,0
-63,-9,53,36,-58,21,-4,-63,112,-492,0,-4
-63,-14,48,39,-56,17,-9,-58,107,-492,0,-4
-63,-14,48,39,-56,17,-9,-53,102,-492,0,-4
-63,-14,48,39,-56,17,-9,-53,102,-497,0,0
-63,-14,48,39,-56,17,-9,-53,102,-497,0,4
-63,-14,48,39,-56,17,-9,-53,102,-492,-4,4
-63,-14,48,39,-56,17,-9,-53,102,-492,-4,4
-63,-9,53,36,-58,21,-9,-53,97,-492,-4,4
-63,-9,53,36,-58,21,-9,-53,92,-492,-4,4
-63,-9,53,36,-58,21,-9,-53,87,-492,0,9
-63,-9,53,36,-58,21,-9,-53,87,-492,4,9
-68,-14,53,41,-61,19,-9,-53,87,-497,4,9
-68,-14,53,41,-61,19,-9,-53,87,-497,4,9
-68,-9,58,39,-63,24,-4,-53,82,-497,4,9
-68,-9,58,39,-63,24,-4,-48,78,-497,4,14
-68,-9,58,39,-63,24,-4,-48,78,-497,4,14
-68,-9,58,39,-63,24,-4,-48,78,-497,4,14
-68,-9,58,39,-63,24,-4,-48,73,-502,4,14
-68,-9,58,39,-63,24,-4,-48,68,-502,9,14
-73,-9,63,41,-68,26,-4,-48,68,-492,9,14
-78,-14,63,46,-70,24,-4,-43,68,-492,9,14
-78,-14,63,46,-70,24,-4,-39,68,-488,9,14
-78,-9,68,43,-73,29,0,-34,68,-483,9,19
-78,-4,73,41,-75,34,0,-34,73,-483,14,19
-78,0,78,39,-78,39,4,-29,78,-483,14,19
-78,9,87,34,-82,48,9,-19,82,-473,19,29
-78,14,92,31,-85,53,14,-9,87,-468,29,34
-78,14,92,31,-85,53,19,-4,82,-468,29,34
-78,14,92,31,-85,53,29,-4,82,-468,24,34
-78,14,92,31,-85,53,29,-4,82,-463,24,29
-78,9,87,34,-82,48,34,0,78,-463,29,24
-78,14,92,31,-85,53,39,-4,78,-463,29,24
-78,19,97,29,-87,58,43,-4,78,-458,34,29
-63,34,97,14,-80,65,48,-4,82,-448,39,39
-48,43,92,2,-70,68,48,0,92,-444,48,53
-39,63,102,-12,-70,82,39,0,92,-434,58,63
-29,87,117,-29,-73,102,29,4,97,-424,68,73
-19,87,107,-34,-63,97,9,-4,92,-414,73,78
-9,87,97,-39,-53,92,-9,-19,87,-409,78,87
-9,87,97,-39,-53,92,-14,-19,87,-409,78,92
-9,87,97,-39,-53,92,-19,-19,87,-409,78,97
-9,82,92,-36,-51,87,-19,-29,82,-409,78,97
-9,78,87,-34,-48,82,-19,-39,78,-409,78,97
-9,73,82,-31,-46,78,-19,-39,73,-414,78,97
-9,68,78,-29,-43,73,-19,-39,68,-419,78,97
-14,58,73,-21,-43,65,-19,-43,63,-419,73,92
-19,48,68,-14,-43,58,-19,-48,58,-419,68,87
-34,29,63,2,-48,46,-24,-58,43,-434,58,73
-48,9,58,19,-53,34,-29,-68,29,-448,48,58
-53,0,53,26,-53,26,-29,-78,19,-458,34,48
-58,-9,48,34,-53,19,-29,-87,9,-468,19,39
-58,-19,39,39,-48,9,-29,-92,4,-468,14,34
-58,-29,29,43,-43,0,-29,-97,0,-468,9,29
-58,-29,29,43,-43,0,-29,-97,-4,-473,9,29
-58,-29,29,43,-43,0,-29,-97,-4,-473,4,29
-58,-34,24,46,-41,-4,-29,-102,-9,-478,4,29
-58,-39,19,48,-39,-9,-24,-102,-9,-478,4,24
-58,-43,14,51,-36,-14,-24,-102,-9,-473,4,14
-63,-43,19,53,-41,-12,-24,-107,-9,-473,4,9
-63,-43,19,53,-41,-12,-24,-107,-9,-473,4,9
-68,-43,24,56,-46,-9,-24,-107,-9,-473,0,4
-68,-48,19,58,-43,-14,-24,-112,-9,-473,0,4
-68,-53,14,61,-41,-19,-24,-117,-9,-478,0,4
-73,-53,19,63,-46,-17,-24,-117,-9,-478,0,4
-73,-53,19,63,-46,-17,-24,-117,-9,-478,-4,4
-73,-58,14,65,-43,-21,-19,-117,-4,-478,-4,4
-73,-58,14,65,-43,-21,-19,-117,0,-478,-4,4
-78,-58,19,68,-48,-19,-14,-122,0,-473,-4,4
-78,-58,19,68,-48,-19,-14,-126,0,-473,-4,4
-78,-63,14,70,-46,-24,-14,-122,4,-468,-4,4
-78,-63,14,70,-46,-24,-14,-122,4,-468,-4,4
-78,-63,14,70,-46,-24,-14,-122,4,-468,-4,4
-78,-63,14,70,-46,-24,-9,-122,4,-468,-4,4
-78,-53,24,65,-51,-14,-9,-117,9,-463,0,4
-82,-48,34,65,-58,-7,-9,-117,9,-463,0,4
-82,-48,34,65,-58,-7,-9,-122,9,-458,0,4
-82,-48,34,65,-58,-7,-9,-122,14,-458,0,4
-78,-48,29,63,-53,-9,-9,-122,14,-458,0,4
-78,-48,29,63,-53,-9,-9,-122,14,-453,0,4
-78,-48,29,63,-53,-9,-4,-122,14,-453,4,4
-78,-43,34,61,-56,-4,-4,-122,14,-448,4,4
-78,-39,39,58,-58,0,-4,-122,14,-444,9,9
-78,-39,39,58,-58,0,-4,-122,9,-444,9,9
-78,-43,34,61,-56,-4,0,-122,14,-448,9,9
-78,-48,29,63,-53,-9,0,-122,14,-453,0,0
-73,-58,14,65,-43,-21,0,-126,9,-453,-4,-9
-63,-82,-19,73,-21,-51,0,-136,-9,-478,-24,-29
-43,-141,-97,92,26,-119,0,-161,-39,-527,-73,-87
-19,-200,-180,109,80,-190,9,-170,-63,-575,-136,-146
24,-200,-224,87,124,-212,29,-136,-34,-561,-141,-165
78,-170,-248,46,163,-209,43,-102,4,-536,-141,-165
141,-107,-248,-17,195,-178,58,-19,107,-492,-131,-165
214,-9,-224,-102,219,-117,73,82,214,-419,-97,-161
336,58,-278,-197,307,-109,82,156,287,-366,-92,-165
473,102,-370,-287,422,-134,87,195,341,-351,-102,-170
614,126,-488,-370,551,-180,92,248,400,-351,-107,-185
775,146,-629,-461,702,-241,97,292,424,-356,-141,-229
810,175,-634,-492,722,-229,117,307,424,-366,-141,-209
600,253,-346,-427,473,-46,165,336,444,-307,-9,-48
-58,405,463,-173,-261,434,244,361,468,-117,307,336
-585,507,1093,39,-839,800,239,244,385,24,575,649
-805,649,1454,78,-1129,1051,214,185,380,151,775,868
-805,805,1610,0,-1207,1207,156,122,380,224,922,1024
-775,1010,1786,-117,-1281,1398,68,107,424,346,1098,1229
-732,1205,1937,-236,-1334,1571,4,107,497,483,1273,1395
-707,1200,1908,-246,-1307,1554,4,63,483,483,1268,1385
-653,1185,1839,-265,-1246,1512,34,63,463,419,1200,1337
-653,1068,1722,-207,-1188,1395,68,63,361,248,1019,1146
-712,858,1571,-73,-1141,1215,102,9,248,92,839,961
-785,697,1483,43,-1134,1090,136,-24,204,4,707,814
-829,385,1215,222,-1022,800,165,-136,63,-209,483,575
-902,97,1000,402,-951,549,200,-209,-68,-385,287,380
-1000,-73,927,536,-963,427,219,-214,-92,-448,180,253
-1034,-341,692,688,-863,175,248,-258,-141,-541,29,68
-1029,-624,405,827,-717,-109,273,-317,-248,-707,-161,-136
-1000,-668,331,834,-666,-168,302,-312,-263,-766,-219,-195
-927,-575,351,751,-639,-112,341,-244,-200,-707,-185,-165
-819,-507,312,663,-566,-97,326,-190,-136,-653,-161,-146
-629,-366,263,497,-446,-51,297,-161,-87,-619,-112,-102
-473,-219,253,346,-363,17,258,-146,-48,-575,-48,-43
-385,-136,248,261,-317,56,214,-122,-4,-531,-24,-19
-307,-82,224,195,-265,70,165,-102,48,-497,9,0
-229,-39,190,134,-209,75,112,-102,48,-492,24,24
-180,-39,141,109,-161,51,87,-122,48,-492,34,34
-175,-39,136,107,-156,48,82,-131,48,-488,34,29
-156,-39,117,97,-136,39,73,-141,53,-488,34,29
-122,-34,87,78,-104,26,53,-141,58,-488,34,29
-97,-24,73,61,-85,24,43,-146,63,-488,39,34
-92,-19,73,56,-82,26,39,-151,63,-488,43,39
-92,-14,78,53,-85,31,39,-146,78,-483,48,48
-78,-14,63,46,-70,24,34,-141,82,-483,53,53
-68,-4,63,36,-65,29,34,-141,82,-483,58,53
-68,4,73,31,-70,39,29,-146,82,-483,58,58
-63,9,73,26,-68,41,24,-146,82,-483,63,63
-58,9,68,24,-63,39,24,-151,82,-483,63,63
-53,9,63,21,-58,36,24,-151,87,-483,68,68
-53,14,68,19,-61,41,24,-151,87,-483,68,68
-53,14,68,19,-61,41,24,-151,92,-483,68,73
-53,14,68,19,-61,41,19,-151,92,-483,68,73
-48,14,63,17,-56,39,19,-151,92,-483,73,78
-43,9,53,17,-48,31,19,-151,97,-483,73,78
-43,14,58,14,-51,36,19,-151,97,-483,73,78
-43,14,58,14,-51,36,19,-151,102,-488,73,78
-39,19,58,9,-48,39,19,-151,107,-488,78,78
-39,19,58,9,-48,39,19,-151,107,-488,78,82
-34,19,53,7,-43,36,19,-151,107,-492,73,82
-34,19,53,7,-43,36,19,-151,107,-497,73,87
-34,19,53,7,-43,36,19,-146,112,-497,73,87
-34,19,53,7,-43,36,19,-141,112,-497,73,87
-34,24,58,4,-46,41,19,-141,112,-497,73,87
-34,24,58,4,-46,41,19,-141,112,-502,73,87
-29,24,53,2,-41,39,19,-141,112,-502,73,87
-29,24,53,2,-41,39,19,-141,117,-502,73,87
-19,29,48,-4,-34,39,19,-141,117,-502,73,87
-14,29,43,-7,-29,36,19,-141,122,-507,73,92
-14,29,43,-7,-29,36,19,-141,122,-507,78,92
-9,29,39,-9,-24,34,19,-141,122,-507,82,92
-9,29,39,-9,-24,34,19,-141,122,-507,82,92
-4,29,34,-12,-19,31,19,-141,126,-512,82,92
-4,29,34,-12,-19,31,24,-141,126,-512,78,92
0,29,29,-14,-14,29,24,-141,126,-512,78,92
-4,29,34,-12,-19,31,24,-141,126,-512,78,92
-4,29,34,-12,-19,31,24,-136,126,-522,78,87
0,29,29,-14,-14,29,19,-136,126,-522,73,87
0,24,24,-12,-12,24,14,-136,126,-522,68,82
0,24,24,-12,-12,24,19,-136,126,-522,73,82
9,24,14,-17,-2,19,19,-131,126,-531,73,82
9,24,14,-17,-2,19,19,-131,126,-531,73,82
9,24,14,-17,-2,19,19,-131,126,-536,68,73
9,14,4,-12,2,9,19,-131,126,-536,68,73
14,14,0,-14,7,7,19,-131,126,-536,58,68
14,9,-4,-12,9,2,19,-131,126,-546,58,68
19,4,-14,-12,17,-4,19,-131,122,-551,58,63
19,4,-14,-12,17,-4,24,-131,122,-551,58,63
24,4,-19,-14,21,-7,24,-131,122,-556,48,58
24,0,-24,-12,24,-12,24,-131,122,-556,48,63
24,0,-24,-12,24,-12,24,-131,126,-556,48,63
24,-9,-34,-7,29,-21,24,-131,126,-561,48,63
29,0,-29,-14,29,-14,24,-131,126,-561,48,63
29,0,-29,-14,29,-14,24,-131,122,-566,48,63
29,0,-29,-14,29,-14,24,-131,122,-570,48,63
29,0,-29,-14,29,-14,24,-131,122,-570,48,68
29,0,-29,-14,29,-14,24,-131,122,-570,53,73
24,0,-24,-12,24,-12,24,-131,126,-570,53,73
19,9,-9,-14,14,0,24,-131,131,-570,53,78
19,9,-9,-14,14,0,19,-131,126,-570,53,78
19,9,-9,-14,14,0,19,-131,126,-570,53,78
24,14,-9,-19,17,2,14,-131,126,-570,58,82
24,19,-4,-21,14,7,14,-131,131,-570,58,92
24,19,-4,-21,14,7,9,-126,131,-566,68,92
24,24,0,-24,12,12,4,-117,131,-556,68,92
24,29,4,-26,9,17,0,-117,141,-556,73,102
24,39,14,-31,4,26,-4,-112,146,-556,73,107
24,39,14,-31,4,26,-4,-107,146,-556,78,107
24,43,19,-34,2,31,-9,-107,151,-546,78,107
14,43,29,-29,-7,36,-9,-107,151,-541,82,117
14,43,29,-29,-7,36,-19,-107,151,-541,82,117
9,43,34,-26,-12,39,-19,-102,156,-546,82,112
4,43,39,-24,-17,41,-19,-102,156,-546,78,112
0,43,43,-21,-21,43,-24,-102,161,-551,82,112
-4,39,43,-17,-24,41,-24,-102,161,-556,82,112
-19,34,53,-7,-36,43,-24,-102,161,-551,78,112
-19,29,48,-4,-34,39,-24,-107,161,-551,73,112
-24,29,53,-2,-39,41,-29,-107,156,-551,73,107
-29,29,58,0,-43,43,-29,-112,151,-551,73,107
-34,19,53,7,-43,36,-34,-112,151,-556,73,107
-39,14,53,12,-46,34,-39,-112,151,-561,73,107
-39,9,48,14,-43,29,-39,-112,146,-566,68,107
-43,9,53,17,-48,31,-39,-112,141,-566,63,107
-48,4,53,21,-51,29,-39,-117,141,-566,63,107
-53,0,53,26,-53,26,-43,-122,136,-566,63,102
-58,-4,53,31,-56,24,-43,-122,136,-566,58,97
-63,-4,58,34,-61,26,-43,-122,131,-566,58,92
-63,-4,58,34,-61,26,-43,-126,131,-570,58,92
-63,-4,58,34,-61,26,-43,-126,131,-570,58,92
-68,-4,63,36,-65,29,-43,-122,126,-570,58,92
-68,-4,63,36,-65,29,-43,-117,126,-570,53,92
-68,-4,63,36,-65,29,-43,-117,126,-575,53,92
-68,-4,63,36,-65,29,-43,-117,126,-575,48,92
-68,-9,58,39,-63,24,-39,-122,122,-575,48,92
-73,-14,58,43,-65,21,-39,-122,117,-580,48,87
-78,-9,68,43,-73,29,-39,-122,117,-580,48,87
-82,-9,73,46,-78,31,-39,-117,112,-580,43,78
-82,-9,73,46,-78,31,-39,-117,112,-580,43,78
-82,-9,73,46,-78,31,-34,-117,112,-580,39,78
-82,-9,73,46,-78,31,-34,-117,112,-585,39,78
-82,-14,68,48,-75,26,-34,-117,112,-585,34,78
-82,-14,68,48,-75,26,-29,-117,107,-585,34,68
-82,-14,68,48,-75,26,-29,-117,107,-585,34,68
-82,-24,58,53,-70,17,-29,-117,102,-590,29,68
-82,-29,53,56,-68,12,-29,-117,97,-590,29,63
-82,-34,48,58,-65,7,-24,-117,92,-595,19,58
-78,-34,43,56,-61,4,-24,-117,87,-605,14,48
-78,-43,34,61,-56,-4,-24,-117,87,-610,4,48
-78,-53,24,65,-51,-14,-19,-117,82,-619,-4,39
-73,-53,19,63,-46,-17,-19,-117,82,-619,-4,39
-73,-53,19,63,-46,-17,-19,-117,78,-619,-9,34
-73,-53,19,63,-46,-17,-19,-117,82,-614,-4,34
-73,-53,19,63,-46,-17,-19,-117,82,-610,0,34
-68,-53,14,61,-41,-19,-14,-117,82,-614,0,29
-68,-53,14,61,-41,-19,-14,-117,78,-614,-4,29
-68,-53,14,61,-41,-19,-14,-117,78,-614,-4,24
-68,-53,14,61,-41,-19,-14,-117,78,-619,-9,24
-63,-53,9,58,-36,-21,-14,-117,82,-619,-9,14
-63,-53,9,58,-36,-21,-14,-117,78,-619,-9,9
-63,-58,4,61,-34,-26,-14,-117,78,-619,-9,9
-63,-58,4,61,-34,-26,-14,-117,73,-619,-9,9
-63,-58,4,61,-34,-26,-14,-112,68,-619,-9,9
-63,-58,4,61,-34,-26,-14,-112,63,-619,-9,4
-63,-63,0,63,-31,-31,-19,-112,58,-619,-9,4
-63,-63,0,63,-31,-31,-19,-112,53,-619,-9,4
-63,-63,0,63,-31,-31,-19,-112,53,-624,-9,0
-63,-63,0,63,-31,-31,-19,-112,53,-624,-9,-4
-63,-63,0,63,-31,-31,-19,-112,53,-619,-9,-4
-63,-63,0,63,-31,-31,-19,-112,53,-619,-4,-4
-63,-58,4,61,-34,-26,-19,-112,48,-619,-4,-4
-63,-58,4,61,-34,-26,-19,-112,43,-619,-4,-4
-63,-58,4,61,-34,-26,-19,-112,39,-619,-4,0
-63,-58,4,61,-34,-26,-19,-112,39,-619,-4,0
-63,-63,0,63,-31,-31,-19,-112,39,-624,-4,0
-58,-63,-4,61,-26,-34,-19,-112,39,-624,-4,0
-58,-58,0,58,-29,-29,-14,-112,34,-624,-4,0
-58,-58,0,58,-29,-29,-14,-107,29,-624,-4,4
-58,-58,0,58,-29,-29,-14,-107,29,-624,-4,4
-58,-58,0,58,-29,-29,-14,-107,29,-624,-4,4
-58,-58,0,58,-29,-29,-14,-107,29,-629,-4,4
-58,-58,0,58,-29,-29,-14,-107,29,-629,0,4
-58,-53,4,56,-31,-24,-14,-107,24,-619,0,4
-58,-53,4,56,-31,-24,-14,-102,19,-619,0,4
-58,-58,0,58,-29,-29,-14,-102,19,-619,0,4
-58,-58,0,58,-29,-29,-9,-102,19,-619,0,9
-58,-58,0,58,-29,-29,-9,-102,14,-619,4,9
-58,-58,0,58,-29,-29,-4,-97,9,-619,4,9
-58,-53,4,56,-31,-24,-4,-97,9,-619,4,14
-58,-53,4,56,-31,-24,-4,-97,9,-624,9,14
-63,-53,9,58,-36,-21,-9,-92,4,-624,9,14
-68,-53,14,61,-41,-19,-9,-92,4,-624,4,14
-68,-48,19,58,-43,-14,-14,-92,4,-619,4,14
-68,-48,19,58,-43,-14,-14,-87,0,-619,9,14
-68,-48,19,58,-43,-14,-14,-87,0,-619,4,14
-68,-48,19,58,-43,-14,-14,-82,0,-614,4,19
-63,-39,24,51,-43,-7,-9,-82,0,-610,4,19
-58,-34,24,46,-41,-4,-9,-78,4,-610,9,24
-58,-34,24,46,-41,-4,-9,-73,0,-614,4,24
-58,-39,19,48,-39,-9,-9,-73,0,-619,0,24
-58,-39,19,48,-39,-9,-9,-68,0,-614,0,14
-58,-39,19,48,-39,-9,-9,-68,0,-614,0,9
-58,-39,19,48,-39,-9,-4,-68,0,-614,0,9
-58,-39,19,48,-39,-9,0,-68,0,-614,0,9
-58,-34,24,46,-41,-4,0,-58,9,-610,4,19
-58,-29,29,43,-43,0,0,-48,19,-605,9,29
-58,-14,43,36,-51,14,9,-43,19,-600,14,29
-58,0,58,29,-58,29,19,-39,19,-595,19,29
-58,0,58,29,-58,29,24,-29,24,-595,19,29
-58,0,58,29,-58,29,29,-19,29,-595,19,29
-63,-4,58,34,-61,26,34,-19,34,-590,14,29
-68,-9,58,39,-63,24,39,-19,39,-585,9,29
-68,-9,58,39,-63,24,43,-14,39,-585,9,29
-68,-9,58,39,-63,24,48,-9,39,-585,9,29
-63,-4,58,34,-61,26,48,-4,43,-580,14,34
-58,0,58,29,-58,29,48,0,48,-575,19,39
-39,24,63,7,-51,43,43,0,58,-561,34,53
-19,48,68,-14,-43,58,39,0,68,-546,48,68
-9,53,63,-21,-36,58,24,-4,68,-546,53,68
0,58,58,-29,-29,58,9,-9,68,-546,58,68
4,58,53,-31,-24,56,0,-14,68,-541,63,78
9,58,48,-34,-19,53,-9,-19,68,-536,68,87
9,58,48,-34,-19,53,-9,-24,68,-536,68,87
9,58,48,-34,-19,53,-9,-29,68,-536,68,87
9,53,43,-31,-17,48,-14,-34,68,-536,68,82
9,48,39,-29,-14,43,-19,-39,68,-536,68,78
0,48,48,-24,-24,48,-19,-39,68,-536,68,78
-9,48,58,-19,-34,53,-19,-39,68,-536,68,78
-19,29,48,-4,-34,39,-19,-43,58,-546,53,68
-29,9,39,9,-34,24,-19,-48,48,-556,39,58
-39,-14,24,26,-31,4,-24,-58,43,-570,29,48
-48,-39,9,43,-29,-14,-29,-68,39,-585,19,39
-48,-39,9,43,-29,-14,-29,-73,34,-585,9,29
-48,-39,9,43,-29,-14,-29,-78,29,-585,0,19
-48,-39,9,43,-29,-14,-29,-82,29,-585,0,19
-48,-43,4,46,-26,-19,-29,-82,24,-585,0,14
-48,-48,0,48,-24,-24,-34,-87,24,-585,-4,14
-48,-53,-4,51,-21,-29,-34,-87,19,-585,-4,9
-53,-58,-4,56,-24,-31,-29,-92,19,-590,-4,9
-53,-63,-9,58,-21,-36,-24,-97,19,-590,-4,9
-58,-63,-4,61,-26,-34,-24,-97,19,-595,-9,4
-58,-68,-9,63,-24,-39,-24,-97,19,-595,-9,4
-58,-73,-14,65,-21,-43,-24,-97,19,-595,-9,4
-63,-73,-9,68,-26,-41,-24,-97,19,-595,-9,4
-63,-68,-4,65,-29,-36,-24,-102,19,-590,-14,4
-63,-68,-4,65,-29,-36,-19,-107,19,-585,-14,4
-63,-68,-4,65,-29,-36,-24,-107,19,-585,-14,4
-68,-68,0,68,-34,-34,-24,-107,19,-580,-14,4
-68,-68,0,68,-34,-34,-24,-112,14,-585,-14,0
-68,-68,0,68,-34,-34,-24,-112,14,-585,-14,-4
-68,-68,0,68,-34,-34,-24,-112,14,-585,-14,-4
-68,-73,-4,70,-31,-39,-24,-112,14,-585,-14,-4
-68,-73,-4,70,-31,-39,-19,-117,14,-585,-14,-4
-68,-68,0,68,-34,-34,-19,-117,19,-580,-9,-4
-73,-68,4,70,-39,-31,-19,-117,14,-580,-9,0
-73,-68,4,70,-39,-31,-19,-117,9,-575,-9,4
-73,-68,4,70,-39,-31,-19,-112,14,-575,-9,4
-68,-68,0,68,-34,-34,-19,-112,14,-575,-9,4
-68,-68,0,68,-34,-34,-19,-112,14,-570,-9,9
-68,-68,0,68,-34,-34,-14,-112,14,-570,-4,14
-68,-63,4,65,-36,-29,-14,-112,14,-566,-4,14
-68,-58,9,63,-39,-24,-14,-112,19,-561,0,19
-68,-58,9,63,-39,-24,-14,-112,19,-561,0,19
-68,-58,9,63,-39,-24,-9,-112,24,-561,0,19
-68,-58,9,63,-39,-24,-9,-112,24,-561,-9,9
-63,-68,-4,65,-29,-36,-9,-117,19,-561,-14,4
-58,-78,-19,68,-19,-48,-14,-126,0,-575,-24,4
-48,-126,-78,87,14,-102,-19,-151,-34,-614,-63,-39
-29,-209,-180,119,75,-195,-9,-175,-78,-678,-141,-112
14,-229,-244,107,129,-236,4,-165,-73,-683,-161,-146
63,-229,-292,82,178,-261,14,-156,-63,-683,-170,-146
117,-195,-312,39,214,-253,29,-87,19,-658,-170,-146
175,-78,-253,-48,214,-165,48,14,136,-570,-126,-141
287,9,-278,-148,283,-134,58,78,219,-502,-102,-141
414,53,-361,-234,387,-153,58,112,273,-488,-92,-141
546,78,-468,-312,507,-195,58,170,326,-488,-97,-156
780,82,-697,-431,739,-307,48,214,346,-497,-175,-229
932,87,-844,-509,888,-378,58,229,346,-527,-224,-258
854,156,-697,-505,775,-270,117,287,390,-502,-146,-165
258,322,63,-290,97,192,209,375,473,-312,141,170
-409,439,849,-14,-629,644,224,302,429,-126,453,527
-746,585,1332,80,-1039,958,224,268,434,34,688,790
-771,746,1517,12,-1144,1132,175,219,439,117,844,946
-775,961,1737,-92,-1256,1349,87,204,483,244,1034,1156
-741,1210,1952,-234,-1346,1581,9,204,575,419,1254,1376
-717,1254,1971,-268,-1344,1612,-4,161,580,453,1293,1424
-653,1278,1932,-312,-1293,1605,19,161,585,424,1263,1415
-644,1195,1839,-275,-1241,1517,48,156,507,287,1122,1259
-702,985,1688,-141,-1195,1337,82,107,375,117,936,1078
-771,824,1595,-26,-1183,1210,117,82,312,14,795,932
-810,512,1322,148,-1066,917,146,-53,170,-204,570,692
-883,204,1088,339,-985,646,185,-151,29,-390,370,497
-985,14,1000,485,-993,507,209,-141,-19,-468,253,370
-1034,-258,775,646,-905,258,239,-185,-87,-575,92,175
-1058,-634,424,846,-741,-104,263,-283,-224,-780,-141,-87
-1078,-785,292,932,-685,-246,302,-307,-273,-878,-248,-204
-1058,-717,341,888,-700,-187,370,-244,-229,-834,-234,-190
-976,-653,322,814,-649,-165,390,-190,-175,-790,-219,-185
-771,-512,258,641,-514,-126,390,-151,-117,-756,-170,-151
-590,-356,234,473,-412,-61,356,-122,-68,-712,-107,-82
-483,-239,244,361,-363,2,292,-92,-24,-663,-82,-43
-385,-146,239,265,-312,46,224,-73,34,-614,-39,-14
-283,-78,204,180,-244,63,146,-78,43,-595,-9,14
-219,-68,151,143,-185,41,102,-107,48,-590,4,29
-214,-68,146,141,-180,39,92,-126,48,-585,4,29
-185,-73,112,129,-148,19,82,-141,53,-585,4,29
-136,-73,63,104,-100,-4,63,-141,58,-585,4,29
-107,-63,43,85,-75,-9,53,-146,63,-585,9,34
-97,-58,39,78,-68,-9,48,-151,63,-585,19,39
-92,-53,39,73,-65,-7,43,-151,73,-580,24,43
-78,-53,24,65,-51,-14,29,-151,73,-580,24,43
-68,-43,24,56,-46,-9,24,-151,73,-580,29,43
-68,-34,34,51,-51,0,19,-156,73,-585,29,48
-63,-34,29,48,-46,-2,14,-156,73,-590,34,53
-58,-34,24,46,-41,-4,14,-165,73,-590,29,53
-53,-29,24,41,-39,-2,14,-170,78,-590,29,58
-53,-24,29,39,-41,2,14,-170,73,-590,29,58
-53,-24,29,39,-41,2,14,-170,73,-590,29,63
-53,-24,29,39,-41,2,9,-170,73,-590,29,63
-48,-19,29,34,-39,4,9,-170,73,-590,34,68
-39,-19,19,29,-29,0,9,-170,78,-585,34,68
-34,-14,19,24,-26,2,9,-170,78,-580,34,68
-34,-14,19,24,-26,2,4,-170,82,-585,34,68
-29,-9,19,19,-24,4,0,-170,87,-585,39,68
-29,-9,19,19,-24,4,0,-170,87,-590,39,68
-24,-9,14,17,-19,2,0,-170,87,-595,39,63
-24,-4,19,14,-21,7,0,-170,92,-595,43,68
-24,0,24,12,-24,12,0,-170,102,-595,43,68
-24,0,24,12,-24,12,0,-170,102,-595,43,68
-24,4,29,9,-26,17,0,-170,102,-595,43,68
-24,4,29,9,-26,17,0,-170,102,-600,43,68
-19,4,24,7,-21,14,0,-170,102,-600,43,68
-19,0,19,9,-19,9,0,-165,107,-600,43,68
-14,0,14,7,-14,7,0,-161,107,-600,43,63
-9,0,9,4,-9,4,0,-161,112,-605,43,63
-4,0,4,2,-4,2,0,-161,112,-605,43,63
0,0,0,0,0,0,0,-165,112,-605,43,63
0,0,0,0,0,0,0,-170,112,-605,43,63
4,0,-4,-2,4,-2,0,-170,112,-614,43,58
4,0,-4,-2,4,-2,0,-170,107,-619,39,53
9,4,-4,-7,7,0,-4,-170,107,-619,39,53
9,9,0,-9,4,4,-4,-170,107,-619,39,53
9,9,0,-9,4,4,-4,-165,107,-629,39,48
9,9,0,-9,4,4,-4,-165,107,-629,34,48
9,4,-4,-7,7,0,-4,-165,107,-629,29,43
9,4,-4,-7,7,0,0,-165,107,-629,29,43
19,4,-14,-12,17,-4,0,-161,107,-639,24,43
19,4,-14,-12,17,-4,0,-161,107,-639,24,43
24,4,-19,-14,21,-7,0,-165,107,-644,19,34
29,-4,-34,-12,31,-19,0,-170,107,-644,19,34
34,-4,-39,-14,36,-21,0,-170,107,-644,9,29
34,-4,-39,-14,36,-21,0,-170,107,-653,9,29
39,-4,-43,-17,41,-24,0,-170,102,-663,9,24
39,-4,-43,-17,41,-24,4,-170,102,-668,9,24
43,-4,-48,-19,46,-26,4,-170,102,-673,0,19
43,-9,-53,-17,48,-31,4,-170,97,-673,0,19
43,-9,-53,-17,48,-31,4,-170,97,-673,0,14
43,-19,-63,-12,53,-41,4,-170,97,-678,0,14
48,-19,-68,-14,58,-43,4,-170,97,-678,0,9
48,-29,-78,-9,63,-53,4,-170,92,-683,-4,4
48,-29,-78,-9,63,-53,4,-175,87,-688,-9,4
48,-29,-78,-9,63,-53,4,-180,82,-688,-9,4
48,-19,-68,-14,58,-43,4,-180,82,-688,-4,9
48,-9,-58,-19,53,-34,4,-180,82,-688,-4,14
48,0,-48,-24,48,-24,4,-180,87,-688,-4,19
48,0,-48,-24,48,-24,0,-180,87,-688,-4,19
43,-9,-53,-17,48,-31,4,-180,87,-692,-4,14
39,-14,-53,-12,46,-34,4,-180,87,-697,0,14
34,-9,-43,-12,39,-26,4,-180,92,-697,0,24
34,-9,-43,-12,39,-26,0,-180,92,-692,9,24
34,0,-34,-17,34,-17,-4,-175,87,-683,9,24
34,9,-24,-21,29,-7,-4,-175,92,-683,14,34
34,19,-14,-26,24,2,-4,-170,97,-683,14,39
34,19,-14,-26,24,2,-4,-165,97,-683,19,39
39,24,-14,-31,26,4,-9,-165,107,-673,24,39
34,29,-4,-31,19,12,-9,-161,117,-668,34,48
34,43,9,-39,12,26,-19,-156,122,-663,39,48
29,53,24,-41,2,39,-19,-151,126,-658,48,48
24,53,29,-39,-2,41,-19,-151,126,-653,48,53
19,58,39,-39,-9,48,-24,-151,131,-653,53,53
14,53,39,-34,-12,46,-24,-146,131,-653,53,53
0,48,48,-24,-24,48,-24,-141,131,-649,53,53
-4,48,53,-21,-29,51,-24,-141,131,-649,53,53
-14,48,63,-17,-39,56,-29,-136,131,-649,53,48
-19,53,73,-17,-46,63,-29,-136,136,-649,53,48
-24,53,78,-14,-51,65,-34,-131,141,-649,53,48
-29,53,82,-12,-56,68,-39,-131,141,-644,53,48
-34,48,82,-7,-58,65,-39,-131,141,-644,53,48
-43,48,92,-2,-68,70,-39,-131,141,-644,53,48
-48,43,92,2,-70,68,-39,-131,141,-644,53,48
-53,39,92,7,-73,65,-43,-131,136,-644,58,43
-58,34,92,12,-75,63,-43,-131,136,-644,58,43
-63,34,97,14,-80,65,-43,-131,131,-644,58,43
-63,34,97,14,-80,65,-43,-136,131,-649,58,43
-63,34,97,14,-80,65,-43,-136,131,-653,58,43
-68,34,102,17,-85,68,-43,-136,126,-658,58,43
-73,34,107,19,-90,70,-43,-136,126,-658,53,39
-78,34,112,21,-95,73,-43,-136,126,-663,53,34
-78,39,117,19,-97,78,-43,-136,126,-658,48,34
-78,34,112,21,-95,73,-39,-141,122,-653,48,34
-82,24,107,29,-95,65,-39,-141,117,-658,53,34
-82,24,107,29,-95,65,-39,-141,117,-658,58,39
-82,19,102,31,-92,61,-39,-136,112,-658,53,29
-82,19,102,31,-92,61,-39,-136,112,-658,53,29
-82,19,102,31,-92,61,-34,-136,112,-658,48,24
-82,19,102,31,-92,61,-34,-136,112,-663,48,19
-82,14,97,34,-90,56,-34,-136,112,-663,43,19
-82,14,97,34,-90,56,-29,-136,107,-663,43,9
-82,9,92,36,-87,51,-29,-136,107,-668,43,4
-82,-4,78,43,-80,36,-29,-136,102,-678,39,0
-78,-9,68,43,-73,29,-29,-136,97,-678,39,-4
-73,-14,58,43,-65,21,-24,-136,97,-678,29,-4
-68,-14,53,41,-61,19,-24,-136,97,-683,24,-4
-68,-14,53,41,-61,19,-24,-136,97,-683,24,0
-68,-14,53,41,-61,19,-19,-131,92,-688,24,-4
-63,-14,48,39,-56,17,-19,-126,92,-688,24,0
-63,-9,53,36,-58,21,-19,-126,92,-688,19,-4
-63,-9,53,36,-58,21,-19,-126,97,-688,19,-4
-63,-14,48,39,-56,17,-19,-126,92,-688,19,0
-58,-14,43,36,-51,14,-14,-126,92,-692,19,0
-63,-19,43,41,-53,12,-14,-126,82,-692,14,0
-68,-24,43,46,-56,9,-14,-126,78,-692,14,-4
-68,-24,43,46,-56,9,-14,-126,78,-697,9,0
-63,-24,39,43,-51,7,-14,-126,78,-697,9,0
-63,-19,43,41,-53,12,-14,-126,68,-697,9,0
-63,-19,43,41,-53,12,-14,-126,68,-697,9,0
-63,-19,43,41,-53,12,-14,-126,68,-697,9,0
-63,-19,43,41,-53,12,-14,-126,73,-697,9,0
-63,-19,43,41,-53,12,-9,-131,73,-697,9,0
-63,-24,39,43,-51,7,-9,-131,68,-697,9,4
-63,-24,39,43,-51,7,-9,-131,58,-697,9,4
-63,-24,39,43,-51,7,-9,-131,53,-702,9,4
-63,-24,39,43,-51,7,-9,-131,53,-702,9,4
-63,-24,39,43,-51,7,-9,-131,53,-697,9,4
-63,-29,34,46,-48,2,-9,-131,53,-697,9,4
-63,-29,34,46,-48,2,-9,-131,48,-697,4,4
-63,-29,34,46,-48,2,-9,-131,43,-697,4,0
-63,-29,34,46,-48,2,-9,-131,39,-697,4,0
-58,-24,34,41,-46,4,-9,-131,39,-692,4,0
-58,-24,34,41,-46,4,-9,-131,39,-692,4,0
-58,-24,34,41,-46,4,-9,-131,39,-692,4,0
-58,-19,39,39,-48,9,-9,-131,34,-692,4,0
-58,-19,39,39,-48,9,-14,-126,29,-692,4,4
-58,-19,39,39,-48,9,-14,-126,29,-692,4,4
-58,-19,39,39,-48,9,-14,-126,29,-692,0,4
-58,-19,39,39,-48,9,-14,-126,29,-692,-4,4
-58,-19,39,39,-48,9,-9,-122,29,-692,0,4
-58,-14,43,36,-51,14,-4,-117,29,-688,0,4
-63,-14,48,39,-56,17,-4,-107,29,-688,4,9
-68,-14,53,41,-61,19,-4,-102,29,-688,9,14
-68,-4,63,36,-65,29,4,-97,34,-683,9,19
-68,0,68,34,-68,34,9,-92,39,-678,14,19
-68,4,73,31,-70,39,19,-82,39,-673,14,19
-68,14,82,26,-75,48,24,-78,39,-663,14,24
-68,14,82,26,-75,48,24,-78,39,-663,19,24
-68,14,82,26,-75,48,24,-73,34,-663,19,24
-68,14,82,26,-75,48,29,-73,34,-663,14,24
-68,19,87,24,-78,53,29,-73,39,-658,14,24
-63,19,82,21,-73,51,34,-63,39,-658,24,24
-58,24,82,17,-70,53,34,-58,39,-658,29,24
-53,43,97,4,-75,70,34,-48,43,-644,43,39
-43,68,112,-12,-78,90,39,-43,48,-629,53,48
-34,78,112,-21,-73,95,24,-39,53,-629,58,53
-14,87,102,-36,-58,95,4,-39,53,-624,58,63
-4,92,97,-43,-51,95,-4,-48,43,-614,68,68
0,97,97,-48,-48,97,-19,-58,39,-605,78,78
0,97,97,-48,-48,97,-19,-58,39,-605,78,78
0,97,97,-48,-48,97,-19,-58,39,-605,78,78
0,92,92,-46,-46,92,-24,-53,34,-605,78,78
0,87,87,-43,-43,87,-29,-48,29,-605,78,78
-4,82,87,-39,-46,85,-29,-48,24,-610,78,78
-9,78,87,-34,-48,82,-29,-48,19,-614,78,78
-24,58,82,-17,-53,70,-29,-53,9,-624,68,63
-39,39,78,0,-58,58,-29,-58,0,-634,58,48
-43,24,68,9,-56,46,-34,-63,-9,-644,43,39
-48,9,58,19,-53,34,-39,-68,-19,-653,29,29
-53,0,53,26,-53,26,-39,-68,-19,-658,19,19
-58,-9,48,34,-53,19,-39,-68,-19,-663,9,9
-58,-9,48,34,-53,19,-34,-68,-24,-663,9,4
-58,-9,48,34,-53,19,-29,-68,-29,-663,9,0
-58,-9,48,34,-53,19,-29,-68,-29,-663,9,0
-58,-14,43,36,-51,14,-29,-63,-29,-658,4,0
-58,-19,39,39,-48,9,-34,-63,-29,-658,4,-4
-58,-24,34,41,-46,4,-34,-58,-29,-653,4,-9
-63,-24,39,43,-51,7,-34,-58,-29,-658,4,-9
-63,-24,39,43,-51,7,-34,-58,-29,-658,4,-9
-68,-24,43,46,-56,9,-29,-58,-29,-658,0,-14
-68,-29,39,48,-53,4,-24,-58,-29,-653,0,-14
-68,-34,34,51,-51,0,-24,-53,-29,-653,0,-14
-73,-34,39,53,-56,2,-24,-48,-29,-653,0,-14
-73,-29,43,51,-58,7,-24,-48,-24,-653,-4,-14
-73,-29,43,51,-58,7,-19,-48,-19,-653,-4,-14
-73,-29,43,51,-58,7,-19,-43,-19,-653,-4,-14
-78,-29,48,53,-63,9,-14,-39,-19,-649,-4,-14
-78,-29,48,53,-63,9,-14,-34,-19,-649,-4,-14
-78,-29,48,53,-63,9,-14,-24,-14,-644,-4,-14
-78,-24,53,51,-65,14,-14,-24,-14,-644,-4,-14
-78,-24,53,51,-65,14,-14,-24,-14,-644,-4,-14
-78,-24,53,51,-65,14,-9,-24,-14,-644,-4,-9
-78,-19,58,48,-68,19,-9,-19,-9,-639,0,-4
-82,-19,63,51,-73,21,-9,-14,-9,-639,0,-4
-82,-19,63,51,-73,21,-9,-9,-9,-634,0,-4
-82,-14,68,48,-75,26,-9,-4,-4,-634,0,-4
-78,-9,68,43,-73,29,-9,-4,-4,-634,0,-4
-73,-9,63,41,-68,26,-9,-4,-4,-629,0,-4
-68,-9,58,39,-63,24,-4,-4,-4,-629,4,-4
-68,-9,58,39,-63,24,-4,-9,-4,-624,4,-4
-68,-9,58,39,-63,24,-4,-14,0,-619,9,0
-68,-9,58,39,-63,24,-9,-14,0,-619,9,0
-68,-9,58,39,-63,24,-9,-14,4,-619,9,0
-73,-4,68,39,-70,31,-9,-14,4,-619,0,-9
-73,-9,63,41,-68,26,-9,-19,0,-619,-4,-14
-63,-34,29,48,-46,-2,-9,-29,-19,-644,-24,-29
-48,-97,-48,73,0,-73,-9,-53,-53,-692,-73,-87
-29,-161,-131,95,51,-146,0,-68,-82,-741,-136,-146
14,-161,-175,73,95,-168,14,-48,-63,-732,-141,-165
68,-131,-200,31,134,-165,29,-24,-39,-712,-141,-165
126,-68,-195,-29,161,-131,48,58,58,-668,-131,-165
195,29,-165,-112,180,-68,63,161,165,-595,-97,-161
317,97,-219,-207,268,-61,68,224,239,-541,-82,-161
448,136,-312,-292,380,-87,68,253,292,-522,-82,-165
585,156,-429,-370,507,-136,68,307,346,-517,-97,-185
746,175,-570,-461,658,-197,68,346,361,-522,-141,-229
824,195,-629,-509,727,-217,87,356,356,-546,-156,-229
658,268,-390,-463,524,-61,136,385,375,-497,-39,-78
-24,439,463,-207,-244,451,219,444,434,-283,287,317
-551,556,1107,-2,-829,832,214,361,390,-122,570,629
-746,702,1449,21,-1098,1076,195,317,395,14,775,849
-756,863,1620,-53,-1188,1241,146,268,405,97,922,1000
-746,1078,1825,-165,-1285,1451,58,253,453,224,1102,1205
-712,1278,1991,-283,-1351,1634,-4,263,527,356,1278,1371
-688,1273,1961,-292,-1324,1617,-4,229,512,346,1273,1366
-634,1263,1898,-314,-1266,1581,24,229,492,292,1210,1327
-634,1146,1781,-256,-1207,1464,58,224,390,131,1034,1141
-702,941,1644,-119,-1173,1293,87,165,278,-24,863,961
-780,785,1566,-2,-1173,1176,117,131,234,-112,736,814
-819,488,1307,165,-1063,897,146,19,102,-317,527,585
-893,195,1088,348,-990,641,185,-53,-29,-488,341,400
-995,4,1000,495,-997,502,204,-68,-73,-556,219,273
-1044,-268,775,656,-910,253,229,-136,-136,-653,53,78
-1054,-575,478,814,-766,-48,253,-209,-253,-834,-146,-146
-1058,-658,400,858,-729,-129,292,-209,-283,-907,-219,-224
-1015,-585,429,800,-722,-78,341,-141,-229,-863,-195,-204
-907,-517,390,712,-649,-63,341,-82,-165,-819,-170,-195
-712,-370,341,541,-527,-14,336,-53,-117,-775,-122,-161
-541,-209,331,375,-436,61,297,-34,-78,-722,-58,-92
-444,-117,326,280,-385,104,248,0,-34,-678,-34,-58
-356,-48,307,202,-331,129,195,24,24,-634,9,-34
-268,9,278,129,-273,143,131,24,29,-619,34,-4
-219,9,229,104,-224,119,102,0,29,-619,43,9
-214,9,224,102,-219,117,92,-14,29,-614,39,4
-185,4,190,90,-187,97,82,-24,34,-614,34,0
-141,4,146,68,-143,75,63,-24,39,-614,34,0
-117,14,131,51,-124,73,53,-29,43,-614,39,4
-112,19,131,46,-122,75,48,-34,43,-619,48,14
-112,24,136,43,-124,80,43,-34,53,-619,53,24
-97,24,122,36,-109,73,34,-34,53,-619,53,24
-87,34,122,26,-104,78,34,-34,53,-619,58,24
-87,43,131,21,-109,87,29,-39,53,-619,58,29
-82,43,126,19,-104,85,24,-39,53,-619,63,34
-78,39,117,19,-97,78,19,-43,53,-619,63,34
-73,39,112,17,-92,75,14,-43,58,-619,68,39
-73,43,117,14,-95,80,14,-43,58,-619,68,39
-73,43,117,14,-95,80,14,-43,63,-619,68,43
-73,43,117,14,-95,80,9,-43,63,-619,68,39
-68,48,117,9,-92,82,9,-43,63,-619,73,39
-63,48,112,7,-87,80,14,-43,68,-619,73,39
-63,53,117,4,-90,85,19,-43,68,-619,73,39
-63,53,117,4,-90,85,19,-43,73,-624,73,39
-58,58,117,0,-87,87,19,-43,78,-624,78,39
-58,58,117,0,-87,87,14,-43,78,-624,73,43
-53,58,112,-2,-82,85,9,-43,78,-624,68,43
-48,58,107,-4,-78,82,9,-43,78,-624,73,48
-43,58,102,-7,-73,80,9,-43,82,-624,73,48
-43,58,102,-7,-73,80,9,-43,82,-624,73,48
-43,63,107,-9,-75,85,9,-43,82,-624,73,48
-43,63,107,-9,-75,85,9,-43,82,-629,73,48
-39,63,102,-12,-70,82,9,-43,82,-629,73,48
-39,58,97,-9,-68,78,9,-43,87,-624,73,48
-34,58,92,-12,-63,75,9,-43,87,-619,73,43
-29,58,87,-14,-58,73,9,-43,92,-624,73,43
-24,58,82,-17,-53,70,9,-43,92,-624,73,43
-19,63,82,-21,-51,73,9,-43,92,-624,73,39
-19,68,87,-24,-53,78,9,-43,92,-624,73,34
-14,68,82,-26,-48,75,9,-43,97,-629,73,34
-14,68,82,-26,-48,75,9,-43,97,-629,68,34
-9,68,78,-29,-43,73,4,-43,97,-629,68,34
-9,68,78,-29,-43,73,4,-43,97,-629,68,34
-9,68,78,-29,-43,73,4,-39,97,-639,68,29
-9,68,78,-29,-43,73,4,-39,97,-639,63,29
-9,63,73,-26,-41,68,4,-39,92,-639,58,24
-9,63,73,-26,-41,68,9,-39,87,-639,58,24
0,63,63,-31,-31,63,9,-34,87,-649,53,24
0,63,63,-31,-31,63,9,-34,87,-649,53,24
0,68,68,-34,-34,68,14,-34,87,-653,53,14
0,63,63,-31,-31,63,19,-34,87,-653,58,14
4,63,58,-34,-26,61,19,-34,87,-653,48,9
4,63,58,-34,-26,61,19,-34,87,-663,48,9
14,58,43,-36,-14,51,14,-34,82,-668,48,4
19,53,34,-36,-7,43,14,-34,82,-668,48,4
24,53,29,-39,-2,41,14,-34,82,-673,39,0
24,48,24,-36,0,36,14,-34,78,-673,39,0
24,48,24,-36,0,36,14,-34,78,-673,39,-4
24,39,14,-31,4,26,14,-34,78,-678,39,-4
24,48,24,-36,0,36,14,-34,78,-678,39,-4
19,48,29,-34,-4,39,14,-34,73,-683,34,-4
19,48,29,-34,-4,39,14,-34,73,-683,29,0
19,48,29,-34,-4,39,14,-34,73,-678,29,4
19,48,29,-34,-4,39,14,-34,73,-678,34,4
19,48,29,-34,-4,39,14,-34,73,-678,34,4
19,58,39,-39,-9,48,14,-34,78,-678,39,9
19,58,39,-39,-9,48,9,-34,78,-678,43,9
19,53,34,-36,-7,43,9,-34,78,-678,43,9
19,53,34,-36,-7,43,4,-34,78,-678,48,14
14,58,43,-36,-14,51,4,-34,82,-678,48,29
14,58,43,-36,-14,51,0,-34,82,-673,58,34
14,63,48,-39,-17,56,-4,-29,82,-663,58,34
14,68,53,-41,-19,61,-4,-29,92,-663,63,43
14,73,58,-43,-21,65,-4,-24,97,-663,63,48
14,68,53,-41,-19,61,-4,-19,97,-663,68,48
14,73,58,-43,-21,65,-9,-19,97,-653,63,48
4,78,73,-41,-34,75,-9,-14,97,-649,63,58
4,82,78,-43,-36,80,-19,-9,102,-649,63,58
0,82,82,-41,-41,82,-19,-4,107,-649,68,58
-4,78,82,-36,-43,80,-19,-4,107,-644,68,63
-9,78,87,-34,-48,82,-24,-4,112,-644,73,63
-14,78,92,-31,-53,85,-29,-4,112,-649,68,63
-29,78,107,-24,-68,92,-34,-4,112,-649,63,63
-29,73,102,-21,-65,87,-34,-9,107,-649,63,63
-34,68,102,-17,-68,85,-39,-9,102,-649,63,58
-34,68,102,-17,-68,85,-39,-14,102,-649,63,58
-34,63,97,-14,-65,80,-43,-14,102,-649,63,58
-39,58,97,-9,-68,78,-48,-19,97,-649,58,58
-43,48,92,-2,-68,70,-48,-24,92,-653,53,58
-53,48,102,2,-78,75,-48,-24,92,-653,53,58
-58,43,102,7,-80,73,-48,-24,92,-653,53,58
-63,39,102,12,-82,70,-53,-29,87,-653,53,53
-68,34,102,17,-85,68,-53,-34,87,-653,48,53
-73,29,102,21,-87,65,-53,-34,82,-653,48,58
-73,24,97,24,-85,61,-53,-39,82,-658,48,63
-78,19,97,29,-87,58,-48,-39,82,-658,48,63
-87,14,102,36,-95,58,-43,-39,78,-658,48,63
-87,14,102,36,-95,58,-43,-39,78,-658,43,63
-87,14,102,36,-95,58,-43,-39,78,-663,43,63
-87,19,107,34,-97,63,-43,-39,78,-663,39,63
-87,14,102,36,-95,58,-39,-43,73,-663,39,63
-92,4,97,43,-95,51,-39,-48,68,-668,34,58
-92,4,97,43,-95,51,-39,-53,68,-668,29,58
-92,-4,87,48,-90,41,-39,-48,63,-668,24,48
-92,-9,82,51,-87,36,-39,-48,63,-668,24,48
-87,-9,78,48,-82,34,-34,-48,63,-668,19,48
-82,-9,73,46,-78,31,-34,-48,63,-673,19,48
-82,-14,68,48,-75,26,-34,-53,63,-678,14,48
-82,-14,68,48,-75,26,-29,-58,58,-683,14,39
-82,-14,68,48,-75,26,-29,-58,58,-683,14,39
-82,-24,58,53,-70,17,-29,-58,53,-688,9,39
-82,-24,58,53,-70,17,-29,-58,48,-683,9,34
-82,-24,58,53,-70,17,-24,-58,48,-678,0,34
-78,-24,53,51,-65,14,-29,-63,48,-683,-4,34
-78,-24,53,51,-65,14,-34,-68,48,-683,-4,39
-78,-24,53,51,-65,14,-29,-68,39,-688,-4,29
-73,-24,48,48,-61,12,-29,-68,34,-688,-4,29
-73,-24,48,48,-61,12,-29,-68,29,-688,-9,24
-73,-29,43,51,-58,7,-29,-68,29,-688,-9,24
-73,-34,39,53,-56,2,-29,-68,24,-688,-9,24
-68,-34,34,51,-51,0,-24,-68,24,-692,-9,19
-63,-34,29,48,-46,-2,-24,-73,24,-692,-14,19
-58,-34,24,46,-41,-4,-24,-78,29,-692,-14,14
-58,-34,24,46,-41,-4,-24,-78,29,-697,-14,14
-53,-34,19,43,-36,-7,-24,-78,29,-697,-9,9
-53,-34,19,43,-36,-7,-19,-78,19,-697,-9,9
-53,-39,14,46,-34,-12,-14,-78,19,-697,-9,9
-53,-39,14,46,-34,-12,-14,-78,14,-697,-9,9
-53,-39,14,46,-34,-12,-14,-78,14,-697,-9,9
-53,-34,19,43,-36,-7,-14,-82,14,-697,-9,4
-53,-34,19,43,-36,-7,-19,-82,9,-697,-9,4
-53,-34,19,43,-36,-7,-19,-82,4,-697,-9,4
-53,-34,19,43,-36,-7,-19,-82,4,-702,-9,4
-53,-34,19,43,-36,-7,-14,-82,4,-702,-9,4
-53,-34,19,43,-36,-7,-9,-82,4,-697,-9,4
-53,-34,19,43,-36,-7,-9,-82,4,-697,-4,4
-53,-29,24,41,-39,-2,-9,-82,0,-697,-4,4
-48,-29,19,39,-34,-4,-9,-82,-4,-697,-4,0
-43,-29,14,36,-29,-7,-9,-82,-9,-697,-4,0
-43,-29,14,36,-29,-7,-9,-82,-9,-692,-4,0
-48,-34,14,41,-31,-9,-9,-82,-9,-692,-4,0
-48,-34,14,41,-31,-9,-9,-87,-4,-692,-4,0
-48,-29,19,39,-34,-4,-9,-92,-4,-692,-4,0
-48,-29,19,39,-34,-4,-9,-87,-4,-692,-4,4
-48,-29,19,39,-34,-4,-4,-87,0,-692,-4,4
-48,-29,19,39,-34,-4,-4,-87,0,-692,-4,4
-48,-29,19,39,-34,-4,-4,-87,0,-692,-4,4
-48,-29,19,39,-34,-4,-4,-87,0,-688,0,4
-48,-24,24,36,-36,0,-4,-87,0,-678,0,4
-43,-24,19,34,-31,-2,-4,-82,4,-678,0,4
-39,-24,14,31,-26,-4,-4,-82,9,-678,0,4
-39,-19,19,29,-29,0,-4,-82,9,-678,0,9
-39,-19,19,29,-29,0,-9,-82,9,-678,4,9
-39,-19,19,29,-29,0,-4,-82,9,-683,0,4
-39,-14,24,26,-31,4,-4,-87,9,-683,-4,4
-39,-19,19,29,-29,0,-9,-92,9,-683,0,4
-39,-24,14,31,-26,-4,-14,-92,4,-683,0,4
-39,-24,14,31,-26,-4,-9,-92,4,-683,0,4
-39,-19,19,29,-29,0,-9,-92,9,-678,4,4
-39,-19,19,29,-29,0,-4,-87,9,-678,9,4
-39,-14,24,26,-31,4,-4,-87,9,-678,9,4
-39,-14,24,26,-31,4,-9,-87,4,-673,9,9
-34,-9,24,21,-29,7,-9,-92,0,-668,4,9
-39,-4,34,21,-36,14,-9,-87,4,-668,9,4
-34,0,34,17,-34,17,-14,-87,4,-663,9,4
-29,-4,24,17,-26,9,-9,-87,4,-663,9,4
-29,-9,19,19,-24,4,-9,-87,9,-663,9,9
-29,-9,19,19,-24,4,-9,-87,9,-663,9,9
-29,-9,19,19,-24,4,-9,-87,9,-663,9,9
-29,-9,19,19,-24,4,-9,-82,9,-658,9,9
-29,-9,19,19,-24,4,-9,-78,9,-653,9,9
-29,-4,24,17,-26,9,-4,-78,9,-653,9,9
-29,0,29,14,-29,14,0,-78,9,-653,9,9
-29,9,39,9,-34,24,4,-68,19,-649,14,14
-29,19,48,4,-39,34,9,-58,29,-644,19,19
-29,24,53,2,-41,39,14,-53,34,-634,24,24
-29,29,58,0,-43,43,19,-48,39,-624,29,29
-29,29,58,0,-43,43,29,-43,39,-624,29,29
-29,29,58,0,-43,43,39,-39,39,-624,29,29
-29,29,58,0,-43,43,39,-34,43,-624,29,24
-29,29,58,0,-43,43,39,-29,48,-624,29,19
-29,29,58,0,-43,43,43,-29,48,-619,29,19
-29,29,58,0,-43,43,48,-29,48,-614,29,19
-14,48,63,-17,-39,56,48,-24,53,-605,39,29
0,68,68,-34,-34,68,48,-19,58,-595,48,39
9,87,78,-48,-34,82,34,-19,63,-585,53,48
19,107,87,-63,-34,97,19,-19,68,-575,58,58
24,107,82,-65,-29,95,0,-24,68,-570,63,73
29,107,78,-68,-24,92,-19,-29,68,-566,68,87
29,107,78,-68,-24,92,-19,-29,63,-566,68,87
29,107,78,-68,-24,92,-19,-29,58,-566,68,87
29,97,68,-63,-19,82,-19,-34,58,-566,68,87
29,87,58,-58,-14,73,-19,-39,58,-566,68,87
29,82,53,-56,-12,68,-19,-39,53,-566,68,82
29,78,48,-53,-9,63,-19,-39,48,-566,68,78
14,58,43,-36,-14,51,-19,-43,43,-575,58,73
0,39,39,-19,-19,39,-19,-48,39,-585,48,68
-4,14,19,-4,-12,17,-19,-53,29,-595,34,53
-9,-9,0,9,-4,-4,-19,-58,19,-605,19,39
-14,-14,0,14,-7,-7,-19,-63,9,-610,14,34
-19,-19,0,19,-9,-9,-19,-68,0,-614,9,29
-19,-19,0,19,-9,-9,-19,-68,0,-619,4,24
-19,-19,0,19,-9,-9,-19,-68,0,-619,0,19
-19,-24,-4,21,-7,-14,-24,-73,-4,-624,-4,14
-19,-29,-9,24,-4,-19,-24,-73,-9,-624,-4,4
-19,-34,-14,26,-2,-24,-24,-68,-9,-619,-9,0
-24,-34,-9,29,-7,-21,-24,-68,-9,-619,-14,0
-24,-34,-9,29,-7,-21,-24,-68,-9,-619,-14,0
-29,-34,-4,31,-12,-19,-24,-68,-9,-619,-19,-4
-29,-43,-14,36,-7,-29,-24,-68,-9,-614,-19,-4
-29,-53,-24,41,-2,-39,-24,-68,-9,-614,-19,-4
-39,-53,-14,46,-12,-34,-24,-68,-9,-614,-19,-9
-43,-53,-9,48,-17,-31,-24,-68,-9,-614,-24,-14
-43,-58,-14,51,-14,-36,-19,-63,-9,-614,-24,-14
-43,-58,-14,51,-14,-36,-19,-58,-9,-614,-24,-14
-48,-58,-9,53,-19,-34,-14,-58,-9,-610,-24,-14
-48,-58,-9,53,-19,-34,-14,-58,-9,-610,-24,-14
-48,-58,-9,53,-19,-34,-14,-53,-4,-605,-24,-14
-48,-53,-4,51,-21,-29,-14,-53,-4,-605,-24,-14
-48,-53,-4,51,-21,-29,-14,-53,-4,-605,-24,-9
-48,-53,-4,51,-21,-29,-9,-53,-4,-605,-24,-4
-43,-48,-4,46,-19,-26,-9,-48,0,-600,-19,-4
-43,-48,-4,46,-19,-26,-9,-48,0,-600,-19,-4
-43,-48,-4,46,-19,-26,-9,-48,0,-595,-19,-4
-43,-48,-4,46,-19,-26,-9,-43,4,-595,-19,-4
-39,-48,-9,43,-14,-29,-9,-43,4,-595,-19,-9
-39,-48,-9,43,-14,-29,-9,-43,4,-590,-19,-14
-39,-43,-4,41,-17,-24,-4,-39,9,-590,-14,-14
-39,-34,4,36,-21,-14,-4,-34,14,-585,-14,-14
-39,-29,9,34,-24,-9,-4,-29,19,-575,-9,-9
-39,-29,9,34,-24,-9,-4,-24,19,-570,-9,-9
-39,-29,9,34,-24,-9,0,-24,24,-570,-9,-9
-39,-29,9,34,-24,-9,0,-24,24,-570,-19,-19
-34,-39,-4,36,-14,-21,0,-29,19,-575,-24,-24
-24,-63,-39,43,7,-51,0,-39,0,-605,-43,-39
-9,-131,-122,70,56,-126,-4,-63,-39,-653,-97,-102
9,-200,-209,95,109,-204,0,-73,-73,-702,-165,-165
53,-200,-253,73,153,-226,14,-43,-53,-692,-170,-185
107,-170,-278,31,192,-224,24,-14,-24,-673,-170,-185
165,-107,-273,-29,219,-190,43,68,78,-629,-161,-185
234,-9,-244,-112,239,-126,63,170,185,-556,-126,-180
361,58,-302,-209,331,-122,73,234,258,-502,-112,-190
502,102,-400,-302,451,-148,78,263,312,-488,-112,-200
653,126,-527,-390,590,-200,82,317,366,-497,-131,-214
824,146,-678,-485,751,-265,87,361,385,-512,-180,-258
888,165,-722,-527,805,-278,112,390,390,-527,-195,-258
707,234,-473,-470,590,-119,165,434,414,-473,-78,-117
9,395,385,-202,-187,390,248,492,473,-258,253,273
-556,507,1063,24,-810,785,248,409,424,-92,536,590
-780,653,1434,63,-1107,1044,234,351,424,43,736,810
-785,814,1600,-14,-1193,1207,185,287,429,126,883,966
-766,1029,1795,-131,-1281,1412,82,263,468,253,1078,1190
-732,1234,1966,-251,-1349,1600,4,253,536,395,1273,1376
-707,1229,1937,-261,-1322,1583,0,204,517,395,1273,1376
-653,1215,1869,-280,-1261,1542,24,200,492,331,1210,1337
-668,1088,1756,-209,-1212,1422,58,195,375,151,1024,1146
-741,868,1610,-63,-1176,1239,92,136,248,-14,839,961
-810,697,1507,56,-1159,1102,126,102,214,-102,702,810
-849,375,1224,236,-1037,800,156,-9,82,-317,473,566
-922,78,1000,422,-961,539,195,-73,-53,-488,273,370
-1019,-102,917,561,-968,407,219,-68,-82,-546,161,244
-1058,-375,683,717,-871,153,263,-117,-126,-644,4,43
-1058,-663,395,861,-727,-134,302,-180,-229,-814,-190,-175
-1029,-707,322,868,-675,-192,326,-180,-253,-878,-248,-244
-956,-614,341,785,-649,-136,361,-117,-200,-824,-214,-224
-839,-546,292,692,-566,-126,356,-63,-126,-766,-190,-204
-639,-405,234,522,-436,-85,336,-34,-68,-727,-141,-161
-483,-248,234,366,-358,-7,287,-19,-39,-683,-78,-92
-395,-156,239,275,-317,41,234,4,-4,-639,-53,-58
-312,-107,204,209,-258,48,180,24,53,-600,-19,-39
-229,-68,161,148,-195,46,122,24,58,-590,-4,-14
-180,-58,122,119,-151,31,92,0,58,-590,4,0
-175,-48,126,112,-151,39,82,-14,58,-585,4,0
-146,-43,102,95,-124,29,73,-19,63,-580,14,4
-102,-34,68,68,-85,17,53,-14,68,-575,24,9
-78,-24,53,51,-65,14,43,-19,73,-575,29,14
-73,-19,53,46,-63,17,39,-24,73,-575,34,19
-73,-14,58,43,-65,21,34,-24,82,-570,34,24
-58,-14,43,36,-51,14,24,-24,82,-570,34,24
-48,0,48,24,-48,24,24,-24,87,-570,39,24
-48,14,63,17,-56,39,19,-29,92,-570,39,29
-43,14,58,14,-51,36,14,-29,92,-570,43,34
-39,9,48,14,-43,29,14,-34,92,-570,43,34
-34,4,39,14,-36,21,9,-34,97,-575,48,39
-34,4,39,14,-36,21,4,-34,97,-580,48,39
-29,4,34,12,-31,19,4,-34,102,-580,48,43
-24,4,29,9,-26,17,0,-34,102,-580,48,43
-19,9,29,4,-24,19,0,-34,102,-575,53,48
-14,9,24,2,-19,17,0,-34,107,-570,53,48
-19,14,34,2,-26,24,4,-34,107,-570,48,48
-24,14,39,4,-31,26,9,-34,112,-575,43,48
-19,19,39,0,-29,29,9,-34,117,-575,48,48
-19,19,39,0,-29,29,9,-34,117,-575,48,53
-14,19,34,-2,-24,26,9,-34,117,-580,48,53
-14,19,34,-2,-24,26,9,-34,117,-585,53,58
-14,19,34,-2,-24,26,4,-34,122,-585,53,58
-14,19,34,-2,-24,26,0,-34,122,-585,53,58
-14,24,39,-4,-26,31,0,-34,122,-585,53,58
-14,24,39,-4,-26,31,0,-34,122,-590,53,58
-9,24,34,-7,-21,29,0,-34,122,-590,53,58
-9,24,34,-7,-21,29,0,-34,126,-590,53,58
-4,24,29,-9,-17,26,0,-34,126,-595,48,53
-4,19,24,-7,-14,21,0,-34,131,-605,43,53
-4,19,24,-7,-14,21,0,-34,131,-605,43,53
0,19,19,-9,-9,19,0,-34,131,-605,43,53
0,24,24,-12,-12,24,0,-34,131,-600,43,53
4,29,24,-17,-9,26,0,-34,136,-600,43,53
4,29,24,-17,-9,26,0,-34,136,-600,39,53
9,29,19,-19,-4,24,-4,-34,136,-600,39,53
9,29,19,-19,-4,24,-4,-34,136,-600,39,48
14,29,14,-21,0,21,-4,-29,136,-610,39,39
19,29,9,-24,4,19,-4,-34,136,-610,39,39
19,24,4,-21,7,14,-4,-39,136,-610,39,34
19,19,0,-19,9,9,0,-39,136,-610,39,34
29,14,-14,-21,21,0,0,-34,136,-619,34,34
29,14,-14,-21,21,0,4,-34,131,-619,34,34
29,14,-14,-21,21,0,9,-34,126,-624,29,24
29,4,-24,-17,26,-9,9,-34,126,-624,29,24
34,4,-29,-19,31,-12,9,-34,126,-624,19,19
34,4,-29,-19,31,-12,9,-34,126,-634,19,19
39,4,-34,-21,36,-14,9,-34,122,-639,19,14
39,9,-29,-24,34,-9,9,-34,126,-639,19,14
43,14,-29,-29,36,-7,4,-34,131,-644,9,9
43,9,-34,-26,39,-12,4,-39,126,-644,9,9
43,9,-34,-26,39,-12,4,-43,126,-644,9,4
43,-9,-53,-17,48,-31,9,-43,122,-649,4,4
48,-9,-58,-19,53,-34,14,-43,117,-649,0,4
48,-9,-58,-19,53,-34,14,-43,112,-653,-4,4
48,-9,-58,-19,53,-34,14,-43,112,-658,-9,4
48,-4,-53,-21,51,-29,14,-43,112,-658,-9,4
48,0,-48,-24,48,-24,14,-43,112,-658,-4,4
48,0,-48,-24,48,-24,14,-43,112,-658,0,4
48,9,-39,-29,43,-14,14,-43,112,-658,4,9
43,9,-34,-26,39,-12,9,-43,107,-658,4,9
39,9,-29,-24,34,-9,9,-43,107,-658,4,9
39,14,-24,-26,31,-4,4,-43,107,-658,9,14
34,19,-14,-26,24,2,4,-43,112,-658,9,24
34,19,-14,-26,24,2,0,-43,117,-653,19,24
34,24,-9,-29,21,7,-4,-39,122,-644,19,24
34,29,-4,-31,19,12,-4,-39,131,-644,29,39
34,39,4,-36,14,21,-4,-34,136,-644,34,48
34,39,4,-36,14,21,0,-29,136,-644,39,48
34,43,9,-39,12,26,0,-29,141,-634,39,48
24,48,24,-36,0,36,0,-24,146,-629,43,58
24,53,29,-39,-2,41,-9,-19,151,-629,43,58
19,58,39,-39,-9,48,-9,-14,156,-624,48,58
14,63,48,-39,-17,56,-9,-14,156,-614,48,63
9,68,58,-39,-24,63,-14,-9,165,-614,58,58
4,68,63,-36,-29,65,-14,-4,170,-614,63,53
-9,63,73,-26,-41,68,-14,-4,170,-610,63,48
-9,58,68,-24,-39,63,-14,-9,170,-610,63,43
-14,58,73,-21,-43,65,-19,-9,170,-610,63,39
-19,58,78,-19,-48,68,-19,-14,170,-610,63,39
-24,58,82,-17,-53,70,-24,-14,170,-605,63,34
-29,63,92,-17,-61,78,-29,-14,170,-600,63,29
-34,58,92,-12,-63,75,-29,-14,165,-605,63,29
-43,58,102,-7,-73,80,-29,-14,161,-605,63,29
-48,53,102,-2,-75,78,-29,-19,161,-605,63,24
-53,48,102,2,-78,75,-34,-24,156,-605,63,14
-53,39,92,7,-73,65,-34,-24,156,-610,53,9
-53,34,87,9,-70,61,-34,-24,151,-614,48,4
-53,34,87,9,-70,61,-34,-29,151,-619,48,4
-53,34,87,9,-70,61,-34,-29,151,-619,48,4
-58,39,97,9,-78,68,-34,-29,146,-619,53,4
-58,43,102,7,-80,73,-34,-29,146,-619,53,4
-63,43,107,9,-85,75,-34,-29,146,-624,53,0
-68,43,112,12,-90,78,-34,-29,146,-624,48,-4
-68,34,102,17,-85,68,-29,-39,141,-619,48,-4
-73,24,97,24,-85,61,-29,-43,136,-619,48,-9
-68,24,92,21,-80,58,-29,-43,136,-619,48,-9
-63,19,82,21,-73,51,-29,-39,131,-619,43,-19
-63,19,82,21,-73,51,-29,-39,131,-619,48,-19
-63,19,82,21,-73,51,-24,-39,131,-619,48,-19
-68,19,87,24,-78,53,-24,-39,131,-624,48,-19
-73,14,87,29,-80,51,-24,-39,131,-624,43,-19
-73,14,87,29,-80,51,-19,-43,126,-624,43,-29
-73,14,87,29,-80,51,-19,-48,126,-624,43,-29
-73,0,73,36,-73,36,-19,-48,122,-634,34,-29
-73,-9,63,41,-68,26,-19,-48,117,-639,29,-34
-73,-14,58,43,-65,21,-14,-53,112,-639,19,-34
-68,-14,53,41,-61,19,-14,-58,107,-644,14,-39
-68,-9,58,39,-63,24,-19,-58,107,-639,19,-34
-68,-4,63,36,-65,29,-19,-58,102,-639,24,-39
-63,-4,58,34,-61,26,-19,-58,107,-639,24,-34
-63,-4,58,34,-61,26,-19,-58,107,-639,19,-34
-63,-19,43,41,-53,12,-19,-63,107,-639,19,-34
-63,-34,29,48,-46,-2,-19,-68,102,-639,19,-34
-58,-34,24,46,-41,-4,-14,-68,97,-644,19,-39
-58,-34,24,46,-41,-4,-14,-68,87,-644,14,-39
-58,-29,29,43,-43,0,-14,-73,87,-644,14,-34
-58,-24,34,41,-46,4,-14,-78,87,-649,9,-24
-53,-24,29,39,-41,2,-14,-78,87,-649,9,-29
-53,-24,29,39,-41,2,-14,-78,78,-649,9,-29
-58,-43,14,51,-36,-14,-14,-78,78,-653,4,-34
-63,-58,4,61,-34,-26,-14,-78,73,-658,0,-39
-63,-58,4,61,-34,-26,-14,-78,73,-658,0,-39
-63,-58,4,61,-34,-26,-14,-82,73,-658,0,-43
-63,-53,9,58,-36,-21,-19,-87,68,-658,0,-39
-63,-43,19,53,-41,-12,-19,-92,63,-658,0,-34
-63,-43,19,53,-41,-12,-19,-92,63,-658,0,-34
-63,-43,19,53,-41,-12,-19,-92,63,-653,0,-34
-63,-48,14,56,-39,-17,-19,-92,63,-649,0,-34
-63,-53,9,58,-36,-21,-19,-92,63,-649,4,-34
-63,-48,14,56,-39,-17,-19,-97,58,-649,4,-34
-63,-48,14,56,-39,-17,-19,-102,53,-649,4,-34
-63,-48,14,56,-39,-17,-19,-102,48,-649,0,-34
-63,-48,14,56,-39,-17,-19,-102,48,-649,-4,-39
-68,-53,14,61,-41,-19,-19,-102,48,-653,-4,-39
-68,-53,14,61,-41,-19,-19,-102,48,-653,-4,-39
-68,-48,19,58,-43,-14,-19,-107,43,-653,0,-39
-68,-48,19,58,-43,-14,-24,-107,39,-653,4,-34
-68,-48,19,58,-43,-14,-24,-107,39,-653,4,-34
-68,-48,19,58,-43,-14,-24,-107,39,-653,4,-34
-68,-48,19,58,-43,-14,-24,-107,39,-653,4,-29
-68,-48,19,58,-43,-14,-24,-107,39,-649,9,-24
-68,-29,39,48,-53,4,-24,-102,39,-634,14,-24
-68,-14,53,41,-61,19,-24,-92,39,-629,19,-24
-68,-14,53,41,-61,19,-19,-87,39,-629,19,-24
-68,-9,58,39,-63,24,-9,-82,39,-629,19,-19
-73,-9,63,41,-68,26,-4,-82,39,-629,24,-19
-78,-9,68,43,-73,29,4,-78,39,-629,24,-19
-78,-4,73,41,-75,34,4,-78,43,-619,24,-14
-78,-4,73,41,-75,34,4,-78,48,-614,29,-14
-78,-4,73,41,-75,34,9,-73,43,-614,29,-14
-78,-4,73,41,-75,34,19,-73,43,-614,24,-14
-73,0,73,36,-73,36,19,-73,48,-610,24,-9
-68,0,68,34,-68,34,24,-68,48,-610,29,-4
-63,14,78,24,-70,46,19,-68,53,-605,34,0
-58,29,87,14,-73,58,14,-63,58,-595,43,9
-39,48,87,-4,-63,68,4,-63,58,-575,53,19
-19,63,82,-21,-51,73,-9,-58,63,-561,68,34
-14,63,78,-24,-46,70,-24,-63,53,-561,73,43
-9,68,78,-29,-43,73,-39,-73,48,-561,78,53
-9,68,78,-29,-43,73,-43,-73,48,-551,82,53
-9,68,78,-29,-43,73,-48,-78,48,-546,87,58
-9,68,78,-29,-43,73,-48,-78,48,-546,87,58
-9,68,78,-29,-43,73,-48,-78,48,-546,87,58
-14,58,73,-21,-43,65,-48,-82,39,-556,82,53
-19,48,68,-14,-43,58,-48,-87,29,-566,78,48
-34,19,53,7,-43,36,-48,-92,14,-575,63,39
-48,-9,39,29,-43,14,-48,-97,0,-585,48,29
-58,-19,39,39,-48,9,-53,-107,-9,-590,39,14
-68,-29,39,48,-53,4,-58,-117,-19,-595,29,0
-68,-34,34,51,-51,0,-58,-117,-19,-595,24,-4
-68,-39,29,53,-48,-4,-58,-117,-19,-595,19,-9
-68,-48,19,58,-43,-14,-58,-117,-24,-600,19,-14
-68,-58,9,63,-39,-24,-58,-117,-29,-605,19,-19
-68,-58,9,63,-39,-24,-53,-122,-29,-605,14,-19
-68,-63,4,65,-36,-29,-53,-122,-29,-605,9,-19
-68,-68,0,68,-34,-34,-53,-126,-29,-605,4,-19
-68,-73,-4,70,-31,-39,-53,-126,-29,-605,4,-19
-73,-68,4,70,-39,-31,-53,-126,-29,-610,4,-19
-73,-63,9,68,-41,-26,-53,-126,-29,-610,4,-19
-78,-63,14,70,-46,-24,-53,-126,-29,-610,0,-24
-78,-68,9,73,-43,-29,-53,-126,-29,-605,0,-24
-78,-78,0,78,-39,-39,-53,-122,-29,-605,0,-24
-82,-82,0,82,-41,-41,-53,-117,-29,-605,0,-24
-82,-82,0,82,-41,-41,-53,-117,-29,-605,-4,-24
-82,-87,-4,85,-39,-46,-48,-117,-29,-605,-4,-24
-82,-87,-4,85,-39,-46,-48,-117,-29,-605,-4,-24
-87,-87,0,87,-43,-43,-43,-117,-29,-600,-4,-24
-87,-87,0,87,-43,-43,-43,-117,-29,-600,-4,-19
-87,-87,0,87,-43,-43,-43,-112,-24,-595,-4,-14
-87,-82,4,85,-46,-39,-43,-112,-24,-595,-4,-14
-87,-82,4,85,-46,-39,-43,-112,-24,-595,-4,-14
-82,-82,0,82,-41,-41,-39,-112,-24,-595,-4,-14
-78,-78,0,78,-39,-39,-39,-107,-19,-590,0,-14
-82,-78,4,80,-43,-36,-39,-107,-19,-590,0,-14
-82,-78,4,80,-43,-36,-39,-107,-19,-585,0,-14
-82,-78,4,80,-43,-36,-39,-102,-14,-585,0,-14
-78,-78,0,78,-39,-39,-39,-102,-14,-585,0,-14
-78,-73,4,75,-41,-34,-39,-102,-9,-580,0,-14
-78,-68,9,73,-43,-29,-34,-102,-4,-580,4,-14
-82,-63,19,73,-51,-21,-34,-97,-4,-575,4,-14
-87,-58,29,73,-58,-14,-34,-92,0,-570,9,-9
-87,-58,29,73,-58,-14,-34,-92,0,-570,9,-9
-87,-58,29,73,-58,-14,-29,-92,4,-570,9,-9
-87,-63,24,75,-56,-19,-29,-92,4,-575,-4,-19
-82,-78,4,80,-43,-36,-29,-97,0,-580,-14,-24
-68,-102,-34,85,-17,-68,-29,-107,-19,-605,-34,-39
-48,-165,-117,107,34,-141,-29,-131,-53,-653,-82,-97
-24,-219,-195,122,85,-207,-19,-136,-78,-697,-141,-151
24,-209,-234,92,129,-222,-4,-107,-53,-683,-141,-165
78,-165,-244,43,161,-204,4,-82,-19,-649,-136,-165
136,-87,-224,-24,180,-156,19,0,87,-590,-122,-165
204,-4,-209,-100,207,-107,34,102,195,-517,-87,-161
326,48,-278,-187,302,-114,39,165,268,-463,-73,-161
458,102,-356,-280,407,-126,39,195,322,-448,-68,-161
595,136,-458,-366,527,-161,39,248,375,-448,-78,-175
722,156,-566,-439,644,-204,34,292,390,-444,-107,-200
766,175,-590,-470,678,-207,48,307,385,-458,-107,-180
600,263,-336,-431,468,-36,87,322,390,-414,9,-24
-82,448,531,-183,-307,490,161,366,434,-204,336,375
-580,575,1156,2,-868,866,161,297,400,-43,614,673
-746,732,1478,7,-1112,1105,146,268,414,92,814,878
-746,902,1649,-78,-1198,1276,97,219,419,175,961,1034
-727,1127,1854,-200,-1290,1490,9,204,463,302,1141,1244
-692,1298,1991,-302,-1342,1644,-39,209,531,419,1293,1376
-668,1263,1932,-297,-1300,1598,-24,170,512,395,1263,1337
-614,1239,1854,-312,-1234,1546,4,170,488,322,1185,1288
-614,1107,1722,-246,-1168,1415,39,165,380,141,995,1093
-673,897,1571,-112,-1122,1234,73,107,268,-4,819,912
-741,736,1478,2,-1110,1107,107,73,224,-82,688,766
-771,419,1190,175,-980,805,141,-39,82,-297,463,527
-834,107,941,363,-888,524,185,-112,-58,-478,263,331
-932,-82,849,507,-890,383,209,-126,-92,-546,151,204
-976,-356,619,666,-797,131,239,-195,-146,-644,-4,9
-995,-639,356,817,-675,-141,273,-258,-258,-810,-185,-190
-1010,-697,312,854,-661,-192,322,-248,-283,-868,-239,-244
-980,-624,356,802,-668,-134,370,-180,-229,-814,-209,-219
-888,-556,331,722,-610,-112,370,-122,-165,-761,-180,-204
-683,-414,268,549,-475,-73,351,-92,-107,-727,-131,-165
-502,-258,244,380,-373,-7,297,-73,-58,-683,-68,-92
-414,-156,258,285,-336,51,239,-43,-14,-624,-43,-58
-336,-78,258,207,-297,90,175,-24,43,-566,0,-34
-248,-19,229,134,-239,104,112,-34,43,-561,24,-4
-200,-19,180,109,-190,80,82,-68,39,-570,34,9
-195,-29,165,112,-180,68,73,-82,34,-566,34,4
-165,-43,122,104,-143,39,63,-92,34,-566,34,0
-122,-43,78,82,-100,17,43,-92,39,-566,34,0
-97,-34,63,65,-80,14,34,-97,43,-566,39,4
-92,-29,63,61,-78,17,29,-102,43,-566,43,9
-92,-24,68,58,-80,21,24,-102,53,-561,43,14
-78,-24,53,51,-65,14,14,-102,53,-561,43,14
-68,-14,53,41,-61,19,14,-102,53,-561,48,14
-68,-4,63,36,-65,29,14,-107,53,-561,48,19
-63,-4,58,34,-61,26,14,-107,53,-561,53,24
-58,-4,53,31,-56,24,14,-112,53,-561,53,24
-53,0,53,26,-53,26,14,-112,58,-561,58,29
-53,4,58,24,-56,31,14,-112,58,-561,58,29
-53,4,58,24,-56,31,14,-112,63,-561,58,34
-53,4,58,24,-56,31,9,-112,63,-561,58,34
-48,9,58,19,-53,34,9,-112,63,-561,63,39
-43,4,48,19,-46,26,9,-112,68,-561,63,39
-43,4,48,19,-46,26,9,-112,68,-561,63,39
-43,4,48,19,-46,26,9,-112,73,-566,63,39
-39,9,48,14,-43,29,9,-112,78,-566,68,39
-39,9,48,14,-43,29,9,-112,78,-566,68,43
-34,9,43,12,-39,26,9,-112,78,-566,68,43
-34,9,43,12,-39,26,14,-112,78,-566,73,48
-34,9,43,12,-39,26,19,-112,82,-566,73,48
-29,9,39,9,-34,24,19,-107,82,-566,73,53
-24,14,39,4,-31,26,19,-102,82,-566,73,58
-24,14,39,4,-31,26,19,-102,82,-570,73,58
-19,14,34,2,-26,24,19,-102,82,-570,73,58
-19,9,29,4,-24,19,19,-102,82,-570,73,58
-14,9,24,2,-19,17,19,-102,78,-570,73,53
-9,9,19,0,-14,14,19,-102,82,-575,73,53
-4,9,14,-2,-9,12,19,-102,82,-575,73,53
0,9,9,-4,-4,9,19,-102,82,-575,73,53
0,9,9,-4,-4,9,19,-102,82,-575,73,53
4,4,0,-4,2,2,19,-102,87,-580,73,53
4,0,-4,-2,4,-2,19,-102,87,-580,68,53
9,0,-9,-4,9,-4,14,-102,87,-580,68,53
9,0,-9,-4,9,-4,14,-102,87,-580,68,53
14,0,-14,-7,14,-7,19,-97,87,-595,68,48
19,0,-19,-9,19,-9,24,-97,87,-600,63,48
19,-4,-24,-7,21,-14,24,-97,87,-600,58,43
19,-4,-24,-7,21,-14,29,-97,87,-600,58,43
29,-4,-34,-12,31,-19,29,-92,87,-610,53,43
29,-4,-34,-12,31,-19,29,-92,87,-610,53,43
29,-4,-34,-12,31,-19,29,-92,87,-614,48,34
29,-14,-43,-7,36,-29,29,-92,87,-614,48,34
34,-14,-48,-9,41,-31,29,-92,87,-614,39,29
34,-14,-48,-9,41,-31,29,-92,87,-624,39,29
39,-14,-53,-12,46,-34,29,-92,82,-629,39,24
39,-14,-53,-12,46,-34,34,-92,82,-629,39,24
43,-14,-58,-14,51,-36,34,-92,82,-634,29,19
43,-19,-63,-12,53,-41,34,-92,78,-634,29,19
43,-19,-63,-12,53,-41,39,-92,73,-634,29,14
43,-29,-73,-7,58,-51,43,-92,68,-639,29,14
43,-19,-63,-12,53,-41,43,-92,68,-639,29,14
39,-19,-58,-9,48,-39,43,-92,63,-644,24,14
39,-19,-58,-9,48,-39,43,-97,63,-649,19,14
39,-19,-58,-9,48,-39,43,-102,63,-649,19,14
39,-19,-58,-9,48,-39,43,-102,63,-649,24,14
39,-19,-58,-9,48,-39,43,-102,63,-649,24,14
43,-9,-53,-17,48,-31,43,-102,68,-649,24,19
48,-9,-58,-19,53,-34,39,-102,68,-649,24,19
48,-9,-58,-19,53,-34,39,-102,68,-644,24,14
48,-4,-53,-21,51,-29,34,-102,68,-639,29,14
43,0,-43,-21,43,-21,34,-102,73,-639,29,24
43,0,-43,-21,43,-21,29,-102,73,-634,39,24
43,4,-39,-24,41,-17,19,-97,68,-624,39,24
43,9,-34,-26,39,-12,14,-97,73,-624,43,34
43,24,-19,-34,31,2,14,-92,78,-624,43,39
43,29,-14,-36,29,7,14,-87,78,-624,48,39
43,34,-9,-39,26,12,9,-87,82,-614,48,39
34,39,4,-36,14,21,9,-82,87,-610,53,48
34,43,9,-39,12,26,0,-78,92,-610,53,48
29,43,14,-36,7,29,0,-73,97,-610,58,48
24,43,19,-34,2,31,0,-68,97,-600,58,53
19,48,29,-34,-4,39,-4,-63,102,-595,63,53
14,48,34,-31,-9,41,-9,-58,107,-595,63,53
0,48,48,-24,-24,48,-14,-53,112,-590,63,53
-4,48,53,-21,-29,51,-14,-53,112,-590,63,53
-14,48,63,-17,-39,56,-19,-48,112,-590,63,48
-19,53,73,-17,-46,63,-14,-53,112,-590,63,48
-24,53,78,-14,-51,65,-14,-53,112,-590,63,48
-29,53,82,-12,-56,68,-19,-53,112,-590,58,43
-34,48,82,-7,-58,65,-19,-53,112,-595,53,39
-39,48,87,-4,-63,68,-19,-53,112,-595,53,39
-39,43,82,-2,-61,63,-19,-53,112,-595,53,39
-43,39,82,2,-63,61,-24,-53,107,-595,53,34
-48,34,82,7,-65,58,-24,-53,107,-595,48,34
-53,34,87,9,-70,61,-24,-48,102,-595,48,34
-53,34,87,9,-70,61,-24,-48,102,-600,48,34
-53,29,82,12,-68,56,-24,-48,102,-600,48,34
-58,24,82,17,-70,53,-24,-48,97,-600,48,34
-58,24,82,17,-70,53,-19,-48,97,-600,43,29
-58,24,82,17,-70,53,-14,-48,97,-605,43,24
-58,29,87,14,-73,58,-14,-43,97,-605,39,24
-58,24,82,17,-70,53,-9,-43,92,-605,39,24
-63,14,78,24,-70,46,-9,-43,87,-610,39,24
-63,14,78,24,-70,46,-9,-43,87,-610,39,29
-63,4,68,29,-65,36,-9,-39,78,-610,34,19
-63,0,63,31,-63,31,-9,-39,73,-610,34,19
-63,0,63,31,-63,31,-4,-39,73,-610,29,19
-63,0,63,31,-63,31,-4,-39,73,-614,29,19
-63,-4,58,34,-61,26,-4,-39,73,-614,19,19
-63,-4,58,34,-61,26,0,-39,68,-614,14,9
-63,-4,58,34,-61,26,0,-39,68,-610,14,9
-63,-14,48,39,-56,17,0,-39,63,-610,9,9
-63,-19,43,41,-53,12,0,-34,58,-610,9,4
-63,-24,39,43,-51,7,4,-29,58,-610,0,4
-58,-24,34,41,-46,4,0,-29,58,-614,-4,0
-58,-24,34,41,-46,4,-4,-29,58,-614,-4,0
-58,-24,34,41,-46,4,0,-29,53,-619,-4,-4
-53,-24,29,39,-41,2,0,-29,53,-619,-4,0
-48,-24,24,36,-36,0,0,-29,48,-619,-9,-4
-43,-29,14,36,-29,-7,0,-29,48,-619,-9,-4
-43,-34,9,39,-26,-12,0,-29,43,-619,-9,-4
-39,-34,4,36,-21,-14,4,-29,43,-624,-9,-9
-39,-34,4,36,-21,-14,4,-29,39,-624,-14,-4
-39,-34,4,36,-21,-14,4,-29,39,-624,-14,-4
-39,-34,4,36,-21,-14,4,-29,39,-624,-14,-4
-34,-34,0,34,-17,-17,4,-29,39,-619,-9,-9
-34,-29,4,31,-19,-12,4,-29,29,-619,-9,-9
-34,-29,4,31,-19,-12,4,-29,29,-619,-9,-9
-34,-29,4,31,-19,-12,4,-24,24,-619,-9,-4
-34,-29,4,31,-19,-12,4,-19,24,-619,-9,0
-34,-29,4,31,-19,-12,4,-24,29,-619,-9,-4
-34,-34,0,34,-17,-17,0,-24,29,-619,-9,-4
-34,-34,0,34,-17,-17,0,-24,24,-614,-9,-4
-34,-34,0,34,-17,-17,0,-24,24,-614,-9,-4
-34,-34,0,34,-17,-17,0,-19,24,-614,-9,-4
-34,-34,0,34,-17,-17,0,-14,24,-610,-9,-4
-34,-34,0,34,-17,-17,0,-14,24,-610,-4,-4
-34,-29,4,31,-19,-12,0,-14,19,-610,-4,-4
-34,-29,4,31,-19,-12,0,-14,9,-610,-4,-4
-34,-29,4,31,-19,-12,0,-14,0,-610,-4,0
-29,-24,4,26,-17,-9,0,-14,0,-605,-4,0
-29,-24,4,26,-17,-9,0,-14,0,-605,-4,0
-29,-24,4,26,-17,-9,0,-14,0,-605,-4,0
-29,-19,9,24,-19,-4,0,-14,-4,-605,-4,0
-29,-19,9,24,-19,-4,-4,-9,-9,-605,-4,0
-29,-19,9,24,-19,-4,-4,-9,-9,-605,-4,-4
-29,-19,9,24,-19,-4,-4,-9,-9,-605,-4,-4
-29,-19,9,24,-19,-4,-4,-9,-9,-605,-4,-4
-29,-19,9,24,-19,-4,-9,-9,-9,-605,0,-4
-29,-14,14,21,-21,0,-14,-9,-9,-600,0,-4
-29,-14,14,21,-21,0,-14,-9,-9,-600,0,-4
-29,-14,14,21,-21,0,-14,-14,-9,-600,0,-4
-24,-14,9,19,-17,-2,-9,-19,-9,-600,0,0
-19,-19,0,19,-9,-9,-9,-24,-9,-600,4,0
-19,-19,0,19,-9,-9,-9,-19,-4,-600,4,-4
-19,-14,4,17,-12,-4,-14,-19,0,-595,4,-4
-19,-14,4,17,-12,-4,-14,-24,0,-595,9,-4
-19,-14,4,17,-12,-4,-14,-24,-4,-595,9,-4
-19,-14,4,17,-12,-4,-9,-24,-4,-595,4,-4
-19,-9,9,14,-14,0,-9,-24,0,-590,4,-4
-24,-9,14,17,-19,2,0,-19,0,-585,9,-4
-29,-4,24,17,-26,9,4,-19,0,-580,9,-4
-29,0,29,14,-29,14,4,-14,4,-575,14,0
-24,9,34,7,-29,21,9,-14,9,-570,14,0
-29,14,43,7,-36,29,19,-4,19,-570,19,4
-24,19,43,2,-34,31,24,0,24,-566,19,14
-24,14,39,4,-31,26,29,4,24,-561,19,9
-29,9,39,9,-34,24,39,9,29,-556,19,9
-29,9,39,9,-34,24,39,9,29,-556,19,9
-29,9,39,9,-34,24,39,9,29,-556,19,9
-24,14,39,4,-31,26,39,9,34,-551,19,14
-19,19,39,0,-29,29,39,9,39,-546,19,19
-9,39,48,-14,-29,43,39,9,43,-536,34,29
0,58,58,-29,-29,58,39,9,48,-527,48,39
14,68,53,-41,-19,61,29,9,53,-517,53,48
29,78,48,-53,-9,63,19,9,58,-507,58,58
29,78,48,-53,-9,63,0,4,58,-507,63,63
29,78,48,-53,-9,63,-19,0,58,-507,68,68
29,78,48,-53,-9,63,-19,-9,53,-507,68,68
29,78,48,-53,-9,63,-19,-19,48,-507,68,68
29,73,43,-51,-7,58,-19,-24,48,-507,68,68
29,68,39,-48,-4,53,-19,-29,48,-507,68,68
29,58,29,-43,0,43,-19,-29,48,-507,63,68
29,48,19,-39,4,34,-19,-29,48,-507,58,68
14,34,19,-24,-2,26,-19,-34,39,-512,53,58
0,19,19,-9,-9,19,-19,-39,29,-517,48,48
-4,0,4,2,-4,2,-19,-48,19,-527,34,39
-9,-19,-9,14,0,-14,-19,-58,9,-536,19,29
-14,-29,-14,21,0,-21,-19,-63,4,-546,9,19
-19,-39,-19,29,0,-29,-19,-68,0,-556,0,9
-19,-43,-24,31,2,-34,-19,-73,-4,-556,0,9
-19,-48,-29,34,4,-39,-19,-78,-4,-556,0,9
-19,-53,-34,36,7,-43,-24,-82,-9,-556,-4,9
-19,-58,-39,39,9,-48,-24,-82,-9,-556,-4,4
-19,-63,-43,41,12,-53,-24,-82,-9,-556,-4,0
-24,-63,-39,43,7,-51,-24,-87,-9,-561,-4,0
-24,-68,-43,46,9,-56,-19,-87,-9,-561,-4,0
-29,-73,-43,51,7,-58,-14,-87,-9,-561,-9,-4
-29,-78,-48,53,9,-63,-14,-87,-9,-556,-9,-4
-29,-82,-53,56,12,-68,-14,-87,-9,-556,-9,-4
-34,-82,-48,58,7,-65,-14,-87,-9,-556,-9,-4
-34,-82,-48,58,7,-65,-14,-87,-9,-556,-14,-4
-34,-87,-53,61,9,-70,-9,-87,-9,-551,-14,-4
-34,-87,-53,61,9,-70,-9,-87,-9,-546,-14,-4
-39,-87,-48,63,4,-68,-4,-87,-9,-541,-14,-4
-39,-87,-48,63,4,-68,-4,-87,-9,-541,-14,-4
-39,-92,-53,65,7,-73,-4,-87,-4,-541,-14,0
-39,-92,-53,65,7,-73,-4,-92,-4,-546,-14,4
-39,-92,-53,65,7,-73,-4,-92,-9,-546,-14,4
-39,-92,-53,65,7,-73,0,-92,-14,-546,-14,4
-39,-92,-53,65,7,-73,0,-87,-9,-541,-9,9
-43,-97,-53,70,4,-75,0,-87,-9,-541,-9,14
-43,-97,-53,70,4,-75,0,-92,-9,-536,-4,14
-43,-97,-53,70,4,-75,0,-92,-4,-536,0,14
-39,-97,-58,68,9,-78,0,-92,-4,-536,0,14
-39,-97,-58,68,9,-78,0,-92,-4,-531,0,14
-39,-97,-58,68,9,-78,4,-92,-4,-531,0,14
-39,-92,-53,65,7,-73,4,-92,-4,-527,-4,14
-39,-87,-48,63,4,-68,4,-92,0,-522,0,19
-39,-87,-48,63,4,-68,4,-92,0,-522,0,19
-39,-87,-48,63,4,-68,9,-92,4,-522,0,19
-39,-87,-48,63,4,-68,9,-92,4,-522,-9,9
-34,-102,-68,68,17,-85,9,-97,0,-522,-14,4
-24,-131,-107,78,41,-119,9,-107,-19,-546,-34,-9
-9,-195,-185,102,87,-190,9,-126,-53,-595,-82,-68
9,-258,-268,124,139,-263,19,-131,-82,-644,-146,-126
53,-258,-312,102,183,-285,34,-102,-53,-634,-151,-146
107,-229,-336,61,222,-283,43,-73,-14,-614,-151,-146
175,-161,-336,-7,256,-248,68,14,87,-570,-141,-146
253,-58,-312,-97,283,-185,92,122,195,-497,-107,-141
380,9,-370,-195,375,-180,102,190,268,-444,-97,-151
522,53,-468,-287,495,-207,107,224,322,-429,-102,-161
663,78,-585,-370,624,-253,107,283,375,-429,-117,-175
824,97,-727,-461,775,-314,107,331,395,-434,-161,-219
854,117,-736,-485,795,-309,126,346,395,-439,-156,-190
639,185,-453,-412,546,-134,175,375,414,-375,-19,-19
-29,331,361,-151,-195,346,253,405,448,-185,297,356
-566,429,995,68,-780,712,248,292,375,-43,566,658
-785,570,1356,107,-1071,963,224,229,370,92,766,878
-785,727,1512,29,-1149,1119,165,161,370,175,912,1034
-756,927,1683,-85,-1220,1305,78,141,405,292,1078,1234
-712,1117,1830,-202,-1271,1473,14,136,468,424,1244,1395
-688,1112,1800,-212,-1244,1456,14,92,453,424,1244,1395
-634,1098,1732,-231,-1183,1415,43,92,434,361,1180,1356
-639,980,1620,-170,-1129,1300,78,92,331,190,1005,1166
-702,771,1473,-34,-1088,1122,112,39,219,34,829,980
-780,610,1390,85,-1085,1000,146,4,175,-48,697,834
-829,297,1127,265,-978,712,175,-107,34,-258,473,595
-893,9,902,441,-897,456,209,-175,-92,-439,273,390
-980,-161,819,570,-900,329,229,-175,-112,-507,161,253
-1015,-424,590,719,-802,82,258,-214,-156,-590,14,78
-1010,-702,307,856,-658,-197,283,-268,-258,-746,-170,-117
-976,-746,229,861,-602,-258,307,-268,-278,-810,-234,-185
-897,-653,244,775,-570,-204,341,-204,-219,-756,-204,-165
-790,-585,204,688,-497,-190,331,-151,-156,-702,-180,-141
-600,-444,156,522,-378,-143,307,-122,-107,-668,-131,-92
-444,-297,146,370,-295,-75,258,-107,-68,-629,-73,-39
-356,-214,141,285,-248,-36,204,-82,-24,-590,-53,-19
-283,-165,117,224,-200,-24,165,-63,24,-546,-14,4
-209,-126,82,168,-146,-21,122,-63,19,-531,4,34
-161,-126,34,143,-97,-46,92,-82,19,-531,14,43
-156,-126,29,141,-92,-48,82,-92,19,-527,14,39
-131,-122,9,126,-70,-56,78,-97,29,-527,14,39
-92,-112,-19,102,-36,-65,63,-92,39,-527,14,39
-68,-102,-34,85,-17,-68,53,-97,43,-527,19,48
-63,-97,-34,80,-14,-65,48,-102,43,-527,24,58
-63,-92,-29,78,-17,-61,43,-102,53,-522,29,63
-48,-92,-43,70,-2,-68,34,-102,53,-522,34,63
-39,-82,-43,61,2,-63,39,-97,53,-522,39,63
-39,-73,-34,56,-2,-53,39,-97,53,-522,39,68
-34,-73,-39,53,2,-56,34,-97,53,-522,43,73
-29,-78,-48,53,9,-63,34,-102,53,-522,43,73
-24,-78,-53,51,14,-65,29,-102,58,-522,48,78
-24,-73,-48,48,12,-61,24,-102,58,-522,48,78
-24,-78,-53,51,14,-65,24,-102,63,-522,43,82
-24,-82,-58,53,17,-70,19,-102,63,-522,39,82
-19,-78,-58,48,19,-68,19,-102,63,-522,43,87
-14,-78,-63,46,24,-70,19,-102,68,-522,43,87
-14,-73,-58,43,21,-65,19,-102,68,-522,43,87
-14,-73,-58,43,21,-65,19,-102,73,-527,43,87
-9,-63,-53,36,21,-58,24,-97,78,-522,48,87
-9,-58,-48,34,19,-53,29,-92,78,-517,48,92
-4,-58,-53,31,24,-56,29,-92,78,-517,48,92
-4,-58,-53,31,24,-56,29,-92,78,-517,53,97
-4,-58,-53,31,24,-56,29,-92,82,-522,53,97
-4,-58,-53,31,24,-56,29,-92,82,-527,53,97
-4,-53,-48,29,21,-51,24,-92,87,-527,53,97
-4,-53,-48,29,21,-51,19,-92,92,-531,53,97
0,-48,-48,24,24,-48,19,-92,92,-531,53,97
0,-43,-43,21,21,-43,19,-92,97,-531,53,97
4,-39,-43,17,24,-41,19,-92,97,-531,53,97
4,-39,-43,17,24,-41,19,-92,102,-536,53,102
0,-39,-39,19,19,-39,19,-92,102,-531,53,102
0,-39,-39,19,19,-39,19,-92,102,-527,53,102
0,-39,-39,19,19,-39,19,-92,102,-527,53,97
4,-39,-43,17,24,-41,19,-92,107,-531,53,92
4,-39,-43,17,24,-41,19,-92,102,-536,48,87
9,-39,-48,14,29,-43,14,-92,97,-541,48,82
9,-43,-53,17,31,-48,14,-92,97,-541,48,82
14,-48,-63,17,39,-56,14,-87,97,-551,48,78
19,-48,-68,14,43,-58,14,-87,97,-551,43,82
19,-53,-73,17,46,-63,14,-87,97,-551,39,82
14,-53,-68,19,41,-61,19,-87,97,-546,39,82
19,-53,-73,17,46,-63,19,-82,97,-551,34,82
19,-48,-68,14,43,-58,19,-82,97,-551,34,82
19,-43,-63,12,41,-53,19,-82,97,-556,29,73
19,-53,-73,17,46,-63,19,-82,97,-556,29,73
24,-53,-78,14,51,-65,19,-82,97,-556,19,68
24,-48,-73,12,48,-61,14,-78,97,-566,19,68
29,-43,-73,7,51,-58,9,-73,92,-570,19,63
29,-43,-73,7,51,-58,14,-73,92,-570,19,63
34,-43,-78,4,56,-61,14,-73,92,-575,9,58
34,-48,-82,7,58,-65,14,-73,87,-580,9,58
34,-48,-82,7,58,-65,14,-73,87,-585,9,53
34,-58,-92,12,63,-75,14,-73,82,-590,9,53
39,-48,-87,4,63,-68,14,-73,78,-590,9,53
39,-48,-87,4,63,-68,14,-73,73,-595,4,53
39,-48,-87,4,63,-68,14,-73,73,-600,0,53
39,-43,-82,2,61,-63,14,-73,78,-595,0,53
39,-39,-78,0,58,-58,14,-73,82,-590,4,53
39,-39,-78,0,58,-58,14,-73,82,-590,9,53
39,-29,-68,-4,53,-48,14,-73,82,-590,14,58
39,-29,-68,-4,53,-48,9,-73,78,-590,14,58
39,-29,-68,-4,53,-48,9,-73,78,-590,14,58
43,-24,-68,-9,56,-46,4,-73,78,-590,19,63
43,-19,-63,-12,53,-41,4,-73,82,-590,19,73
43,-19,-63,-12,53,-41,0,-73,82,-590,29,73
43,-14,-58,-14,51,-36,-4,-68,82,-585,29,73
43,-9,-53,-17,48,-31,-4,-68,92,-585,34,82
43,0,-43,-21,43,-21,-4,-63,97,-585,34,87
43,0,-43,-21,43,-21,-4,-58,97,-585,39,87
43,4,-39,-24,41,-17,-9,-58,102,-575,39,87
34,9,-24,-21,29,-7,-9,-53,107,-570,43,97
34,14,-19,-24,26,-2,-19,-48,112,-570,43,97
29,14,-14,-21,21,0,-19,-43,117,-570,48,97
24,14,-9,-19,17,2,-19,-43,117,-566,48,102
19,19,0,-19,9,9,-24,-43,122,-566,53,102
14,19,4,-17,4,12,-24,-43,122,-566,53,102
-4,14,19,-4,-12,17,-24,-39,122,-561,53,102
-9,9,19,0,-14,14,-24,-39,122,-561,53,102
-14,9,24,2,-19,17,-29,-39,117,-561,53,97
-19,9,29,4,-24,19,-29,-43,112,-561,53,97
-24,4,29,9,-26,17,-34,-43,112,-561,53,97
-29,4,34,12,-31,19,-39,-43,112,-561,53,97
-29,0,29,14,-29,14,-39,-43,112,-566,53,97
-34,0,34,17,-34,17,-39,-43,112,-566,53,97
-39,-4,34,21,-36,14,-39,-43,112,-566,53,97
-43,-9,34,26,-39,12,-43,-43,107,-566,53,92
-48,-19,29,34,-39,4,-43,-43,107,-566,48,92
-53,-24,29,39,-41,2,-43,-43,102,-566,48,92
-53,-24,29,39,-41,2,-43,-43,102,-570,48,87
-53,-24,29,39,-41,2,-43,-39,102,-570,48,82
-58,-24,34,41,-46,4,-43,-39,92,-570,48,82
-58,-24,34,41,-46,4,-43,-39,87,-570,43,82
-58,-24,34,41,-46,4,-43,-39,87,-575,43,82
-58,-24,34,41,-46,4,-43,-39,87,-575,39,82
-58,-24,34,41,-46,4,-39,-43,82,-575,39,82
-63,-24,39,43,-51,7,-39,-43,78,-580,39,78
-63,-34,29,48,-46,-2,-34,-43,78,-585,39,78
-63,-48,14,56,-39,-17,-29,-39,73,-590,34,68
-63,-48,14,56,-39,-17,-29,-39,73,-590,34,68
-63,-48,14,56,-39,-17,-24,-39,73,-590,29,68
-63,-48,14,56,-39,-17,-24,-34,73,-595,29,68
-63,-53,9,58,-36,-21,-24,-29,73,-595,24,68
-63,-53,9,58,-36,-21,-19,-29,68,-595,24,58
-63,-53,9,58,-36,-21,-19,-29,68,-595,24,58
-63,-63,0,63,-31,-31,-19,-29,63,-600,19,58
-63,-68,-4,65,-29,-36,-19,-29,58,-600,19,53
-63,-73,-9,68,-26,-41,-14,-29,58,-600,9,53
-58,-73,-14,65,-21,-43,-14,-29,58,-605,4,48
-58,-73,-14,65,-21,-43,-14,-29,58,-605,4,48
-58,-73,-14,65,-21,-43,-9,-29,53,-610,4,39
-53,-82,-29,68,-12,-56,-9,-29,53,-610,4,39
-53,-92,-39,73,-7,-65,-9,-29,48,-610,0,34
-53,-87,-34,70,-9,-61,-9,-24,48,-610,0,34
-53,-82,-29,68,-12,-56,-9,-19,43,-610,0,34
-48,-82,-34,65,-7,-58,-4,-19,43,-614,0,29
-48,-82,-34,65,-7,-58,-4,-19,39,-614,-4,29
-48,-82,-34,65,-7,-58,-4,-19,39,-614,-4,19
-48,-82,-34,65,-7,-58,-4,-19,39,-619,-9,14
-43,-87,-43,65,0,-65,-4,-19,39,-619,-14,9
-43,-92,-48,68,2,-70,-4,-19,29,-619,-19,9
-43,-97,-53,70,4,-75,-4,-19,29,-619,-19,9
-43,-97,-53,70,4,-75,-4,-19,24,-619,-19,9
-43,-92,-48,68,2,-70,-4,-19,24,-619,-14,9
-43,-87,-43,65,0,-65,-4,-24,24,-619,-9,4
-43,-92,-48,68,2,-70,-9,-24,19,-619,-9,4
-43,-92,-48,68,2,-70,-9,-24,14,-619,-9,4
-43,-92,-48,68,2,-70,-9,-24,14,-624,-9,0
-43,-92,-48,68,2,-70,-9,-24,14,-624,-9,-4
-43,-92,-48,68,2,-70,-9,-19,14,-614,-9,-4
-43,-92,-48,68,2,-70,-9,-14,14,-610,-4,-4
-43,-87,-43,65,0,-65,-14,-14,9,-610,-4,-4
-43,-87,-43,65,0,-65,-19,-14,4,-610,-4,-4
-43,-87,-43,65,0,-65,-19,-14,-4,-610,-9,0
-43,-87,-43,65,0,-65,-19,-14,-9,-610,-14,0
-48,-92,-43,70,-2,-68,-19,-14,-9,-614,-14,0
-48,-92,-43,70,-2,-68,-19,-14,-9,-614,-14,0
-48,-87,-39,68,-4,-63,-19,-14,-4,-610,-9,0
-48,-87,-39,68,-4,-63,-24,-9,0,-605,-4,4
-48,-87,-39,68,-4,-63,-24,-9,0,-605,-4,4
-48,-87,-39,68,-4,-63,-24,-9,0,-605,-4,4
-48,-87,-39,68,-4,-63,-24,-9,0,-610,-4,4
-48,-87,-39,68,-4,-63,-24,-9,0,-610,0,4
-48,-82,-34,65,-7,-58,-24,-9,0,-600,0,4
-48,-82,-34,65,-7,-58,-24,-4,0,-600,0,4
-48,-82,-34,65,-7,-58,-24,-9,0,-600,0,4
-48,-78,-29,63,-9,-53,-19,-14,0,-600,0,9
-48,-78,-29,63,-9,-53,-19,-19,0,-600,4,9
-48,-78,-29,63,-9,-53,-14,-19,0,-600,4,9
-48,-78,-29,63,-9,-53,-14,-19,0,-595,4,14
-48,-82,-34,65,-7,-58,-14,-19,0,-595,9,14
-48,-82,-34,65,-7,-58,-14,-14,0,-595,9,14
-48,-82,-34,65,-7,-58,-9,-14,4,-595,4,14
-48,-68,-19,58,-14,-43,-4,-9,14,-585,9,19
-48,-58,-9,53,-19,-34,4,0,19,-580,19,24
-53,-53,0,53,-26,-26,9,0,24,-580,19,24
-58,-48,9,53,-34,-19,14,4,29,-575,24,29
-58,-53,4,56,-31,-24,24,4,29,-570,19,24
-58,-63,-4,61,-26,-34,29,9,34,-570,19,24
-53,-63,-9,58,-21,-36,29,4,29,-570,14,24
-48,-68,-19,58,-14,-43,29,4,29,-570,9,24
-48,-53,-4,51,-21,-29,34,9,34,-561,19,29
-48,-39,9,43,-29,-14,39,19,39,-556,29,39
-34,-9,24,21,-29,7,39,24,48,-546,39,48
-19,19,39,0,-29,29,39,29,58,-536,48,58
0,29,29,-14,-14,29,29,29,63,-527,58,73
19,39,19,-29,0,29,19,29,68,-517,68,87
19,39,19,-29,0,29,4,19,68,-512,73,87
19,39,19,-29,0,29,-9,9,68,-507,78,87
19,24,4,-21,7,14,-14,0,68,-507,78,92
19,9,-9,-14,14,0,-19,-9,68,-507,78,97
19,9,-9,-14,14,0,-19,-14,63,-512,73,97
19,9,-9,-14,14,0,-19,-19,58,-517,68,97
14,0,-14,-7,14,-7,-19,-19,53,-517,63,97
9,-9,-19,0,14,-14,-19,-19,48,-517,58,97
-4,-29,-24,17,9,-26,-19,-29,39,-527,48,82
-19,-48,-29,34,4,-39,-19,-39,29,-536,39,68
-24,-73,-48,48,12,-61,-24,-48,19,-546,24,53
-29,-97,-68,63,19,-82,-29,-58,9,-556,9,39
-29,-97,-68,63,19,-82,-29,-63,4,-561,4,34
-29,-97,-68,63,19,-82,-29,-68,0,-566,0,29
-29,-107,-78,68,24,-92,-29,-68,0,-566,-4,29
-29,-117,-87,73,29,-102,-29,-68,0,-566,-9,29
-34,-117,-82,75,24,-100,-29,-73,0,-566,-9,24
-34,-122,-87,78,26,-104,-29,-73,0,-566,-9,19
-39,-126,-87,82,24,-107,-34,-78,-4,-566,-14,14
-39,-131,-92,85,26,-112,-34,-78,-9,-566,-14,9
-43,-131,-87,87,21,-109,-29,-82,-9,-570,-14,9
-43,-131,-87,87,21,-109,-24,-87,-9,-570,-14,9
-48,-131,-82,90,17,-107,-24,-87,-9,-570,-19,4
-48,-136,-87,92,19,-112,-24,-87,-9,-566,-19,4
-43,-141,-97,92,26,-119,-24,-87,-4,-561,-19,4
-43,-141,-97,92,26,-119,-24,-87,0,-556,-19,4
-43,-141,-97,92,26,-119,-24,-87,0,-556,-24,4
-43,-146,-102,95,29,-124,-19,-87,0,-556,-24,4
-43,-146,-102,95,29,-124,-19,-87,-4,-561,-24,4
-48,-146,-97,97,24,-122,-14,-87,-9,-561,-24,4
-48,-146,-97,97,24,-122,-14,-87,-9,-561,-19,4
-48,-146,-97,97,24,-122,-14,-82,-4,-556,-14,4
-48,-141,-92,95,21,-117,-14,-87,-4,-551,-14,0
-48,-141,-92,95,21,-117,-14,-92,-4,-546,-14,-4
-48,-141,-92,95,21,-117,-9,-92,-4,-546,-14,-4
-48,-136,-87,92,19,-112,-9,-87,0,-541,-9,-4
-53,-141,-87,97,17,-114,-9,-87,0,-541,-14,-4
-53,-146,-92,100,19,-119,-9,-87,0,-536,-19,-4
-53,-146,-92,100,19,-119,-9,-87,4,-536,-19,-4
-48,-146,-97,97,24,-122,-9,-92,4,-536,-19,-4
-48,-141,-92,95,21,-117,-9,-92,4,-531,-19,-4
-48,-136,-87,92,19,-112,-4,-92,4,-531,-14,-4
-48,-131,-82,90,17,-107,-4,-87,4,-527,-14,-4
-48,-126,-78,87,14,-102,-4,-82,9,-522,-9,0
-48,-131,-82,90,17,-107,-4,-82,9,-527,-9,0
-48,-136,-87,92,19,-112,0,-82,14,-531,-9,0
-48,-136,-87,92,19,-112,0,-82,14,-531,-24,-14
-43,-146,-102,95,29,-124,0,-87,9,-531,-34,-24
-29,-170,-141,100,56,-156,-4,-97,-9,-556,-53,-39
-9,-234,-224,122,107,-229,-9,-122,-43,-605,-102,-97
14,-287,-302,136,158,-295,0,-131,-68,-653,-161,-151
63,-278,-341,107,202,-309,14,-107,-43,-644,-161,-165
122,-248,-370,63,246,-309,24,-82,-14,-624,-161,-165
185,-185,-370,0,278,-278,39,0,87,-580,-151,-165
253,-87,-341,-82,297,-214,53,97,190,-517,-117,-161
375,-19,-395,-178,385,-207,58,156,258,-473,-102,-161
512,24,-488,-268,500,-231,58,180,302,-458,-102,-161
653,48,-605,-351,629,-278,58,229,346,-458,-117,-175
766,68,-697,-417,732,-314,63,273,366,-463,-146,-200
795,87,-707,-441,751,-309,87,287,366,-488,-146,-180
610,170,-439,-390,524,-134,136,317,390,-434,-14,-19
-92,351,444,-129,-268,397,219,375,453,-214,326,385
-575,488,1063,43,-819,775,209,312,434,-43,605,683
-727,653,1381,36,-1054,1017,185,287,463,102,805,888
-727,814,1542,-43,-1134,1178,136,239,468,185,951,1044
-707,1029,1737,-161,-1222,1383,48,224,512,312,1132,1254
-673,1210,1883,-268,-1278,1546,-4,229,580,429,1278,1381
-649,1185,1834,-268,-1241,1510,4,190,561,405,1244,1337
-610,1151,1761,-270,-1185,1456,39,190,527,331,1166,1298
-624,1010,1634,-192,-1129,1322,78,185,409,151,976,1112
-683,790,1473,-53,-1078,1132,112,122,292,-4,800,932
-751,619,1371,65,-1061,995,146,82,244,-92,668,785
-785,297,1083,244,-934,690,175,-29,102,-307,444,546
-854,-19,834,436,-844,407,214,-102,-39,-488,244,351
-951,-195,756,573,-854,280,239,-107,-73,-556,131,224
-995,-453,541,724,-768,43,268,-165,-126,-653,-24,29
-1000,-736,263,868,-631,-236,302,-234,-234,-814,-200,-170
-1000,-795,204,897,-602,-295,351,-229,-253,-868,-248,-224
-956,-707,248,832,-602,-229,400,-165,-200,-814,-224,-204
-849,-624,224,736,-536,-200,400,-112,-136,-761,-200,-195
-663,-502,161,583,-412,-170,385,-82,-87,-736,-151,-156
-502,-366,136,434,-319,-114,336,-63,-48,-702,-87,-82
-405,-258,146,331,-275,-56,263,-34,-4,-649,-63,-48
-317,-175,141,246,-229,-17,185,-14,53,-595,-19,-24
-229,-117,112,173,-170,-2,122,-19,58,-580,4,4
-180,-117,63,148,-122,-26,92,-48,58,-580,14,19
-175,-117,58,146,-117,-29,87,-63,53,-575,14,19
-146,-122,24,134,-85,-48,82,-73,53,-575,14,19
-102,-122,-19,112,-41,-70,63,-73,58,-575,14,19
-78,-112,-34,95,-21,-73,53,-78,63,-575,19,24
-68,-112,-43,90,-12,-78,43,-82,63,-580,24,24
-63,-112,-48,87,-7,-80,34,-82,73,-580,24,24
-48,-117,-68,82,9,-92,24,-82,73,-585,19,24
-39,-112,-73,75,17,-92,24,-82,73,-590,19,24
-39,-102,-63,70,12,-82,19,-87,73,-590,19,29
-34,-102,-68,68,17,-85,14,-87,73,-590,24,34
-29,-102,-73,65,21,-87,14,-92,73,-590,24,34
-24,-97,-73,61,24,-85,14,-92,78,-590,29,39
-24,-92,-68,58,21,-80,14,-92,78,-590,34,39
-24,-92,-68,58,21,-80,14,-92,82,-590,39,43
-24,-92,-68,58,21,-80,9,-92,82,-590,39,43
-19,-87,-68,53,24,-78,9,-92,82,-590,43,48
-14,-92,-78,53,31,-85,9,-92,87,-590,39,48
-14,-92,-78,53,31,-85,9,-92,87,-590,34,48
-14,-92,-78,53,31,-85,9,-92,92,-600,34,48
-9,-87,-78,48,34,-82,9,-92,97,-605,39,48
-9,-82,-73,46,31,-78,9,-92,97,-605,39,53
-4,-78,-73,41,34,-75,9,-92,97,-605,39,53
-4,-78,-73,41,34,-75,9,-92,97,-605,43,53
-4,-78,-73,41,34,-75,9,-92,102,-605,43,48
-4,-78,-73,41,34,-75,4,-92,102,-605,43,48
-4,-73,-68,39,31,-70,0,-92,102,-605,43,48
-4,-73,-68,39,31,-70,0,-92,97,-614,43,48
0,-73,-73,36,36,-73,0,-92,92,-619,43,48
0,-73,-73,36,36,-73,0,-92,97,-624,43,48
4,-68,-73,31,39,-70,0,-92,97,-629,43,43
4,-68,-73,31,39,-70,0,-92,102,-634,43,43
4,-68,-73,31,39,-70,0,-92,102,-634,43,43
4,-68,-73,31,39,-70,0,-87,97,-634,39,43
0,-68,-68,34,34,-68,0,-82,92,-634,34,43
4,-68,-73,31,39,-70,4,-82,97,-644,34,43
4,-68,-73,31,39,-70,9,-82,97,-649,29,43
9,-63,-73,26,41,-68,4,-82,97,-649,29,43
9,-58,-68,24,39,-63,4,-82,97,-649,29,43
14,-58,-73,21,43,-65,4,-78,97,-663,29,39
19,-58,-78,19,48,-68,4,-78,97,-668,24,39
19,-63,-82,21,51,-73,0,-78,97,-668,19,34
19,-63,-82,21,51,-73,0,-78,97,-668,19,34
29,-63,-92,17,61,-78,0,-73,97,-678,14,34
29,-63,-92,17,61,-78,0,-73,97,-678,14,34
34,-58,-92,12,63,-75,0,-73,97,-688,9,24
39,-63,-102,12,70,-82,0,-73,97,-692,9,24
43,-63,-107,9,75,-85,0,-78,97,-692,0,19
43,-63,-107,9,75,-85,0,-82,97,-702,0,19
48,-63,-112,7,80,-87,0,-82,92,-712,0,14
48,-63,-112,7,80,-87,4,-82,92,-717,0,14
53,-58,-112,2,82,-85,4,-82,92,-722,-9,9
53,-58,-112,2,82,-85,4,-82,87,-722,-9,9
48,-58,-107,4,78,-82,4,-82,82,-727,-9,4
43,-68,-112,12,78,-90,4,-82,78,-736,-9,4
48,-58,-107,4,78,-82,4,-82,78,-736,-9,0
48,-58,-107,4,78,-82,4,-82,73,-741,-14,-4
53,-58,-112,2,82,-85,0,-87,73,-751,-19,-4
58,-58,-117,0,87,-87,-4,-92,73,-756,-19,-4
58,-58,-117,0,87,-87,-4,-92,73,-761,-9,0
58,-58,-117,0,87,-87,-4,-92,73,-766,-4,4
58,-48,-107,-4,82,-78,-4,-92,73,-766,-4,9
58,-48,-107,-4,82,-78,-9,-92,68,-766,-4,9
58,-48,-107,-4,82,-78,-4,-87,68,-771,-4,9
58,-43,-102,-7,80,-73,-4,-82,68,-775,0,14
53,-34,-87,-9,70,-61,-4,-82,73,-780,0,24
53,-29,-82,-12,68,-56,-9,-82,73,-780,9,24
53,-24,-78,-14,65,-51,-14,-78,73,-771,9,24
53,-19,-73,-17,63,-46,-14,-78,82,-771,14,34
53,-9,-63,-21,58,-36,-14,-73,87,-775,14,39
53,-9,-63,-21,58,-36,-14,-68,87,-780,19,39
53,0,-53,-26,53,-26,-19,-68,92,-771,24,39
43,9,-34,-26,39,-12,-19,-63,97,-766,34,48
43,14,-29,-29,36,-7,-29,-58,102,-766,34,53
39,14,-24,-26,31,-4,-29,-53,107,-766,39,58
34,14,-19,-24,26,-2,-29,-48,107,-766,39,63
29,19,-9,-24,19,4,-34,-43,112,-771,43,63
24,24,0,-24,12,12,-34,-43,112,-775,48,63
9,29,19,-19,-4,24,-34,-43,112,-775,53,63
4,29,24,-17,-9,26,-34,-39,112,-775,53,68
-4,29,34,-12,-19,31,-39,-29,112,-775,53,68
-9,29,39,-9,-24,34,-34,-34,112,-775,53,68
-14,24,39,-4,-26,31,-34,-34,112,-775,53,68
-19,29,48,-4,-34,39,-39,-34,112,-780,53,68
-24,29,53,-2,-39,41,-39,-34,112,-790,53,68
-34,29,63,2,-48,46,-39,-29,117,-790,53,68
-39,24,63,7,-51,43,-39,-24,122,-790,53,68
-43,19,63,12,-53,41,-43,-24,117,-795,53,63
-48,14,63,17,-56,39,-43,-24,117,-800,48,63
-53,14,68,19,-61,41,-39,-24,112,-805,48,63
-53,14,68,19,-61,41,-34,-29,112,-814,48,63
-53,9,63,21,-58,36,-34,-29,112,-819,48,63
-58,4,63,26,-61,34,-34,-29,107,-824,48,63
-58,4,63,26,-61,34,-34,-29,107,-824,48,63
-58,4,63,26,-61,34,-34,-29,107,-829,53,63
-58,9,68,24,-63,39,-34,-24,107,-829,48,63
-58,4,63,26,-61,34,-29,-24,102,-829,48,63
-63,0,63,31,-63,31,-29,-24,97,-839,48,58
-63,4,68,29,-65,36,-29,-24,97,-844,48,58
-63,0,63,31,-63,31,-29,-19,92,-849,43,48
-63,0,63,31,-63,31,-29,-19,92,-854,43,48
-63,0,63,31,-63,31,-24,-19,92,-854,39,48
-63,0,63,31,-63,31,-24,-19,92,-858,39,48
-63,-4,58,34,-61,26,-24,-14,92,-863,34,53
-63,-4,58,34,-61,26,-19,-9,87,-868,34,48
-63,0,63,31,-63,31,-19,-9,87,-868,34,48
-63,-4,58,34,-61,26,-19,-9,82,-873,29,48
-63,-9,53,36,-58,21,-19,-9,78,-878,29,43
-63,-14,48,39,-56,17,-14,-9,78,-883,19,43
-58,-19,39,39,-48,9,-14,-9,78,-893,14,39
-58,-24,34,41,-46,4,-14,-9,78,-897,14,39
-58,-24,34,41,-46,4,-9,-9,73,-907,19,29
-53,-24,29,39,-41,2,-9,-9,73,-912,24,29
-48,-19,29,34,-39,4,-9,-14,68,-917,19,24
-43,-19,24,31,-34,2,-9,-19,68,-922,19,24
-43,-24,19,34,-31,-2,-9,-19,63,-922,19,24
-39,-24,14,31,-26,-4,-4,-19,63,-927,19,19
-39,-24,14,31,-26,-4,-4,-24,58,-932,14,24
-39,-24,14,31,-26,-4,-4,-29,58,-936,14,24
-39,-24,14,31,-26,-4,-4,-29,58,-946,9,24
-34,-24,9,29,-21,-7,-4,-29,58,-951,9,19
-34,-24,9,29,-21,-7,-4,-29,48,-956,9,14
-34,-29,4,31,-19,-12,-4,-29,48,-961,9,9
-39,-29,9,34,-24,-9,-4,-29,43,-966,4,9
-43,-29,14,36,-29,-7,-4,-29,43,-971,0,9
-43,-24,19,34,-31,-2,-4,-34,43,-976,0,4
-43,-24,19,34,-31,-2,-9,-34,39,-980,0,4
-43,-24,19,34,-31,-2,-9,-39,34,-980,0,4
-43,-24,19,34,-31,-2,-9,-43,34,-985,0,4
-43,-29,14,36,-29,-7,-9,-43,34,-995,0,4
-43,-34,9,39,-26,-12,-9,-43,34,-1000,0,4
-43,-34,9,39,-26,-12,-9,-43,34,-1000,0,4
-43,-29,14,36,-29,-7,-9,-43,24,-1000,-4,4
-43,-29,14,36,-29,-7,-9,-43,24,-1000,-4,4
