I, II, III, aVR, aVL, aVF, V1, V2, V3, V4, V5, V6
-107,-87,19,97,-63,-34,68,58,19,0,-9,-39
-107,-82,24,95,-65,-29,73,58,19,0,-9,-39
-107,-78,29,92,-68,-24,78,58,19,0,-9,-39
-107,-78,29,92,-68,-24,78,58,24,4,-9,-39
-107,-78,29,92,-68,-24,78,58,29,9,-9,-39
-107,-78,29,92,-68,-24,78,63,29,9,-9,-39
-107,-78,29,92,-68,-24,78,68,29,9,-9,-39
-107,-73,34,90,-70,-19,78,68,29,9,-9,-39
-107,-68,39,87,-73,-14,78,68,29,9,-9,-39
-107,-68,39,87,-73,-14,82,68,29,9,-9,-39
-107,-68,39,87,-73,-14,87,68,29,9,-9,-39
-112,-68,43,90,-78,-12,87,68,29,9,-9,-39
-117,-68,48,92,-82,-9,87,68,29,9,-9,-39
-117,-68,48,92,-82,-9,87,68,29,9,-9,-39
-117,-68,48,92,-82,-9,87,68,29,9,-9,-39
-117,-68,48,92,-82,-9,87,68,29,9,-9,-39
-117,-68,48,92,-82,-9,87,68,29,9,-9,-39
-117,-68,48,92,-82,-9,87,68,29,9,-9,-34
-117,-68,48,92,-82,-9,87,68,29,9,-9,-29
-122,-68,53,95,-87,-7,92,68,29,9,-9,-29
-126,-68,58,97,-92,-4,97,68,29,9,-9,-29
-126,-68,58,97,-92,-4,97,63,24,4,-14,-39
-126,-68,58,97,-92,-4,97,58,19,0,-19,-48
-131,-68,63,100,-97,-2,97,58,19,-4,-24,-48
-136,-68,68,102,-102,0,97,58,19,-9,-29,-48
-136,-73,63,104,-100,-4,102,53,4,-19,-29,-53
-136,-78,58,107,-97,-9,107,48,-9,-29,-29,-58
-146,-78,68,112,-107,-4,107,43,-9,-29,-34,-58
-156,-78,78,117,-117,0,107,39,-9,-29,-39,-58
-161,-78,82,119,-122,2,107,34,-14,-39,-43,-63
-165,-78,87,122,-126,4,107,29,-19,-48,-48,-68
-170,-82,87,126,-129,2,107,19,-34,-63,-58,-73
-175,-87,87,131,-131,0,107,9,-48,-78,-68,-78
-190,-97,92,143,-141,-2,112,9,-53,-87,-78,-87
-204,-107,97,156,-151,-4,117,9,-58,-97,-87,-97
-214,-107,107,161,-161,0,122,-4,-73,-112,-102,-112
-224,-107,117,165,-170,4,126,-19,-87,-126,-117,-126
-239,-122,117,180,-178,-2,131,-29,-102,-146,-131,-131
-253,-136,117,195,-185,-9,136,-39,-117,-165,-146,-136
-268,-146,122,207,-195,-12,141,-53,-141,-190,-161,-151
-283,-156,126,219,-204,-14,146,-68,-165,-214,-175,-165
-302,-170,131,236,-217,-19,151,-92,-195,-244,-200,-185
-322,-185,136,253,-229,-24,156,-117,-224,-273,-224,-204
-341,-204,136,273,-239,-34,161,-131,-253,-307,-248,-219
-361,-224,136,292,-248,-43,165,-146,-283,-341,-273,-234
-385,-248,136,317,-261,-56,175,-175,-322,-380,-307,-258
-409,-273,136,341,-273,-68,185,-204,-361,-419,-341,-283
-434,-297,136,366,-285,-80,190,-234,-400,-463,-370,-307
-458,-322,136,390,-297,-92,195,-263,-439,-507,-400,-331
-488,-351,136,419,-312,-107,200,-292,-488,-556,-439,-361
-517,-380,136,448,-326,-122,204,-322,-536,-605,-478,-390
-541,-419,122,480,-331,-148,214,-361,-585,-663,-527,-429
-566,-458,107,512,-336,-175,224,-400,-634,-722,-575,-468
-595,-488,107,541,-351,-190,229,-424,-688,-775,-619,-497
-624,-517,107,570,-366,-204,234,-448,-741,-829,-663,-527
-649,-551,97,600,-373,-226,239,-478,-785,-878,-697,-551
-673,-585,87,629,-380,-248,244,-507,-829,-927,-732,-575
-683,-614,68,649,-375,-273,248,-522,-868,-966,-766,-600
-692,-644,48,668,-370,-297,253,-536,-907,-1005,-800,-624
-692,-668,24,680,-358,-322,253,-536,-932,-1034,-819,-644
-692,-692,0,692,-346,-346,253,-536,-956,-1063,-839,-663
-683,-697,-14,690,-334,-356,253,-527,-956,-1073,-849,-663
-673,-702,-29,688,-322,-366,253,-517,-956,-1083,-858,-663
-649,-702,-53,675,-297,-378,248,-492,-941,-1068,-844,-663
-624,-702,-78,663,-273,-390,244,-468,-927,-1054,-829,-663
-590,-683,-92,636,-248,-387,239,-424,-893,-1015,-805,-639
-556,-663,-107,610,-224,-385,234,-380,-858,-976,-780,-614
-497,-629,-131,563,-183,-380,219,-326,-805,-927,-736,-585
-439,-595,-156,517,-141,-375,204,-273,-751,-878,-692,-556
-390,-551,-161,470,-114,-356,195,-209,-688,-805,-639,-512
-341,-507,-165,424,-87,-336,185,-146,-624,-732,-585,-468
-292,-468,-175,380,-58,-322,170,-102,-561,-663,-527,-419
-244,-429,-185,336,-29,-307,156,-58,-497,-595,-468,-370
-200,-385,-185,292,-7,-285,141,-24,-434,-522,-409,-326
-156,-341,-185,248,14,-263,126,9,-370,-448,-351,-283
-117,-297,-180,207,31,-239,107,29,-317,-390,-302,-248
-78,-253,-175,165,48,-214,87,48,-263,-331,-253,-214
-58,-219,-161,139,51,-190,78,68,-209,-273,-214,-180
-39,-185,-146,112,53,-165,68,87,-156,-214,-175,-146
-19,-151,-131,85,56,-141,53,92,-131,-180,-146,-122
0,-117,-117,58,58,-117,39,97,-107,-146,-117,-97
9,-102,-112,46,61,-107,34,97,-78,-117,-92,-82
19,-87,-107,34,63,-97,29,97,-48,-87,-68,-68
24,-73,-97,24,61,-85,19,97,-34,-68,-48,-53
29,-58,-87,14,58,-73,9,97,-19,-48,-29,-39
29,-48,-78,9,53,-63,4,97,0,-29,-14,-24
29,-39,-68,4,48,-53,0,97,19,-9,0,-9
34,-34,-68,0,51,-51,0,92,24,0,9,-9
39,-29,-68,-4,53,-48,0,87,29,9,19,-9
39,-24,-63,-7,51,-43,0,87,34,14,24,0
39,-19,-58,-9,48,-39,0,87,39,19,29,9
34,-19,-53,-7,43,-36,0,87,39,19,29,9
29,-19,-48,-4,39,-34,0,87,39,19,29,9
29,-19,-48,-4,39,-34,0,82,39,19,24,4
29,-19,-48,-4,39,-34,0,78,39,19,19,0
29,-19,-48,-4,39,-34,0,73,39,19,19,0
29,-19,-48,-4,39,-34,0,68,39,19,19,0
29,-19,-48,-4,39,-34,0,68,34,19,14,-4
29,-19,-48,-4,39,-34,0,68,29,19,9,-9
24,-29,-53,2,39,-41,0,68,29,14,4,-9
19,-39,-58,9,39,-48,0,68,29,9,0,-9
9,-39,-48,14,29,-43,0,63,29,9,0,-9
0,-39,-39,19,19,-39,0,58,29,9,0,-9
0,-39,-39,19,19,-39,0,58,29,9,0,-9
0,-39,-39,19,19,-39,0,58,29,9,0,-9
0,-39,-39,19,19,-39,4,58,24,4,0,-14
0,-39,-39,19,19,-39,9,58,19,0,0,-19
0,-39,-39,19,19,-39,9,58,19,-4,-9,-24
0,-39,-39,19,19,-39,9,58,19,-9,-19,-29
0,-39,-39,19,19,-39,4,53,14,-9,-19,-29
0,-39,-39,19,19,-39,0,48,9,-9,-19,-29
-4,-39,-34,21,14,-36,0,48,9,-9,-19,-29
-9,-39,-29,24,9,-34,0,48,9,-9,-19,-29
-9,-43,-34,26,12,-39,4,48,14,-9,-19,-29
-9,-48,-39,29,14,-43,9,48,19,-9,-19,-29
-9,-48,-39,29,14,-43,9,48,19,-4,-19,-29
-9,-48,-39,29,14,-43,9,48,19,0,-19,-29
-9,-48,-39,29,14,-43,4,53,19,0,-14,-29
-9,-48,-39,29,14,-43,0,58,19,0,-9,-29
-4,-48,-43,26,19,-46,0,58,19,0,-9,-29
0,-48,-48,24,24,-48,0,58,19,0,-9,-29
0,-48,-48,24,24,-48,0,53,19,0,-9,-24
0,-48,-48,24,24,-48,0,48,19,0,-9,-19
0,-48,-48,24,24,-48,0,48,19,0,-9,-19
0,-48,-48,24,24,-48,0,48,19,0,-9,-19
4,-48,-53,21,29,-51,-4,48,19,0,-9,-19
9,-48,-58,19,34,-53,-9,48,19,0,-9,-19
9,-48,-58,19,34,-53,-9,48,19,0,-9,-19
9,-48,-58,19,34,-53,-9,48,19,0,-9,-19
9,-48,-58,19,34,-53,-9,48,19,0,-9,-24
9,-48,-58,19,34,-53,-9,48,19,0,-9,-29
9,-48,-58,19,34,-53,-9,48,24,4,-9,-29
9,-48,-58,19,34,-53,-9,48,29,9,-9,-29
9,-48,-58,19,34,-53,-9,48,29,9,-4,-19
9,-48,-58,19,34,-53,-9,48,29,9,0,-9
9,-48,-58,19,34,-53,-9,48,29,9,0,-9
9,-48,-58,19,34,-53,-9,48,29,9,0,-9
14,-48,-63,17,39,-56,-9,48,24,9,0,-9
19,-48,-68,14,43,-58,-9,48,19,9,0,-9
19,-48,-68,14,43,-58,-9,48,19,9,0,-9
19,-48,-68,14,43,-58,-9,48,19,9,0,-9
19,-48,-68,14,43,-58,-9,53,24,14,0,-9
19,-48,-68,14,43,-58,-9,58,29,19,0,-9
19,-48,-68,14,43,-58,-9,58,29,19,0,-9
19,-48,-68,14,43,-58,-9,58,29,19,0,-9
19,-48,-68,14,43,-58,-9,58,29,14,-4,-14
19,-48,-68,14,43,-58,-9,58,29,9,-9,-19
19,-48,-68,14,43,-58,-9,58,29,9,-9,-19
19,-48,-68,14,43,-58,-9,58,29,9,-9,-19
19,-48,-68,14,43,-58,-9,58,29,9,-4,-14
19,-48,-68,14,43,-58,-9,58,29,9,0,-9
19,-48,-68,14,43,-58,-9,53,29,9,0,-9
19,-48,-68,14,43,-58,-9,48,29,9,0,-9
19,-48,-68,14,43,-58,-9,48,29,9,-4,-9
19,-48,-68,14,43,-58,-9,48,29,9,-9,-9
19,-48,-68,14,43,-58,-9,48,29,9,-9,-9
19,-48,-68,14,43,-58,-9,48,29,9,-9,-9
19,-48,-68,14,43,-58,-9,48,29,9,-4,-9
19,-48,-68,14,43,-58,-9,48,29,9,0,-9
19,-48,-68,14,43,-58,-9,48,29,9,0,-14
19,-48,-68,14,43,-58,-9,48,29,9,0,-19
19,-48,-68,14,43,-58,-14,48,24,9,-4,-19
19,-48,-68,14,43,-58,-19,48,19,9,-9,-19
19,-48,-68,14,43,-58,-19,48,19,9,-9,-19
19,-48,-68,14,43,-58,-19,48,19,9,-9,-19
19,-48,-68,14,43,-58,-19,48,19,9,-9,-19
19,-48,-68,14,43,-58,-19,48,19,9,-9,-14
24,-48,-73,12,48,-61,-19,48,19,9,-14,-14
29,-39,-68,4,48,-53,-19,48,19,19,-14,-14
29,-29,-58,0,43,-43,-19,53,24,19,-9,-9
34,-14,-48,-9,41,-31,-9,58,34,24,-4,-4
34,-4,-39,-14,36,-21,0,63,43,29,-4,-4
39,4,-34,-21,36,-14,9,73,53,29,4,4
39,9,-29,-24,34,-9,24,82,53,34,9,14
39,9,-29,-24,34,-9,29,87,53,34,9,14
43,19,-24,-31,34,-2,29,97,63,48,14,14
48,29,-19,-39,34,4,19,102,73,53,19,19
53,34,-19,-43,36,7,4,92,73,58,19,19
53,43,-9,-48,31,17,-19,68,73,63,24,24
58,53,-4,-56,31,24,-34,63,78,63,29,34
68,82,14,-75,26,48,-53,58,92,78,43,43
82,97,14,-90,34,56,-53,58,92,78,43,48
97,112,14,-104,41,63,-63,58,92,78,53,53
102,97,-4,-100,53,46,-68,53,82,73,43,58
102,78,-24,-90,63,26,-68,48,73,68,43,48
97,63,-34,-80,65,14,-58,48,78,63,39,43
82,48,-34,-65,58,7,-48,63,82,58,34,34
63,24,-39,-43,51,-7,-34,63,68,43,24,24
39,-4,-43,-17,41,-24,-24,58,53,29,4,9
29,-19,-48,-4,39,-34,-24,48,24,14,-9,-9
19,-39,-58,9,39,-48,-24,39,4,0,-29,-24
19,-43,-63,12,41,-53,-24,39,4,-4,-29,-29
19,-53,-73,17,46,-63,-24,39,0,-9,-39,-43
19,-68,-87,24,53,-78,-24,39,-4,-9,-39,-43
14,-73,-87,29,51,-80,-24,39,-4,-9,-39,-43
14,-73,-87,29,51,-80,-19,39,-4,-9,-39,-39
14,-73,-87,29,51,-80,-14,39,-4,-9,-39,-34
14,-73,-87,29,51,-80,-14,34,-4,-14,-39,-39
14,-73,-87,29,51,-80,-14,34,-4,-19,-39,-39
14,-73,-87,29,51,-80,-14,39,-4,-19,-39,-39
14,-73,-87,29,51,-80,-9,43,-4,-19,-43,-39
9,-78,-87,34,48,-82,-19,39,-4,-19,-43,-39
9,-87,-97,39,53,-92,-19,48,-4,-24,-53,-43
19,-117,-136,48,78,-126,0,73,-14,-29,-58,-53
43,-122,-165,39,104,-143,34,151,9,-19,-53,-53
82,-92,-175,4,129,-134,102,302,112,53,-14,-39
126,-39,-165,-43,146,-102,190,463,234,122,29,-9
151,63,-87,-107,119,-12,273,639,366,224,102,48
204,146,-58,-175,131,43,346,800,453,292,156,97
268,248,-19,-258,143,114,453,1000,575,409,263,190
434,453,19,-444,207,236,346,1049,707,585,429,346
683,751,68,-717,307,409,82,1019,819,795,653,570
893,1205,312,-1049,290,758,-253,790,1034,1107,980,888
1151,1654,502,-1403,324,1078,-790,234,1220,1468,1366,1249
1288,1873,585,-1581,351,1229,-1161,-204,1390,1795,1668,1517
1249,1961,712,-1605,268,1337,-1312,-517,1551,2049,1883,1698
1229,1932,702,-1581,263,1317,-1410,-702,1571,2142,1956,1747
1171,1825,653,-1498,258,1239,-1581,-829,1420,2083,1922,1712
1024,1698,673,-1361,175,1185,-1586,-936,1273,2000,1859,1654
883,1634,751,-1259,65,1193,-1507,-1102,1176,1942,1820,1610
829,1468,639,-1149,95,1054,-1342,-1034,1078,1873,1751,1527
795,1151,356,-973,219,753,-1054,-746,951,1742,1610,1400
639,824,185,-732,226,505,-761,-512,805,1493,1351,1146
429,527,97,-478,165,312,-507,-341,561,1073,946,785
195,331,136,-263,29,234,-297,-224,385,722,610,483
-19,131,151,-56,-85,141,-87,-73,214,336,244,180
-68,4,73,31,-70,39,0,4,82,92,34,14
-68,-43,24,56,-46,-9,24,53,43,39,-14,-34
-58,-58,0,58,-29,-29,39,68,29,9,-34,-48
-58,-63,-4,61,-26,-34,43,68,24,4,-43,-48
-68,-68,0,68,-34,-34,48,68,19,4,-48,-48
-73,-68,4,70,-39,-31,63,78,19,4,-48,-53
-73,-73,0,73,-36,-36,68,78,14,0,-58,-58
-73,-73,0,73,-36,-36,68,78,14,0,-58,-58
-73,-68,4,70,-39,-31,73,78,14,-4,-58,-58
-78,-68,9,73,-43,-29,68,78,19,-4,-58,-58
-78,-68,9,73,-43,-29,68,82,19,-4,-58,-58
-78,-73,4,75,-41,-34,73,82,19,-4,-58,-58
-78,-73,4,75,-41,-34,73,82,19,-4,-58,-63
-78,-68,9,73,-43,-29,73,82,19,-4,-58,-63
-78,-68,9,73,-43,-29,73,82,19,0,-53,-58
-78,-68,9,73,-43,-29,73,82,19,0,-53,-58
-78,-63,14,70,-46,-24,73,82,19,0,-53,-58
-82,-63,19,73,-51,-21,73,82,19,4,-53,-53
-82,-63,19,73,-51,-21,73,82,19,4,-53,-53
-78,-63,14,70,-46,-24,78,78,19,0,-53,-53
-78,-58,19,68,-48,-19,78,73,24,0,-53,-53
-78,-58,19,68,-48,-19,78,73,24,4,-48,-48
-78,-58,19,68,-48,-19,78,73,24,4,-43,-48
-82,-58,24,70,-53,-17,78,73,24,4,-43,-53
-87,-53,34,70,-61,-9,78,68,24,4,-43,-53
-87,-53,34,70,-61,-9,78,68,24,4,-48,-53
-92,-53,39,73,-65,-7,82,73,19,0,-53,-53
-92,-53,39,73,-65,-7,82,73,19,0,-53,-53
-97,-53,43,75,-70,-4,82,73,19,0,-53,-53
-92,-53,39,73,-65,-7,82,68,14,-4,-53,-53
-92,-53,39,73,-65,-7,82,68,14,-4,-53,-53
-92,-53,39,73,-65,-7,82,68,9,-4,-53,-58
-97,-53,43,75,-70,-4,87,68,9,-9,-58,-58
-102,-53,48,78,-75,-2,87,63,4,-9,-58,-58
-102,-58,43,80,-73,-7,87,63,-9,-14,-58,-63
-107,-58,48,82,-78,-4,87,58,-9,-24,-58,-63
-112,-58,53,85,-82,-2,87,53,-19,-29,-63,-68
-117,-63,53,90,-85,-4,87,48,-24,-39,-73,-63
-122,-73,48,97,-85,-12,87,43,-24,-43,-73,-63
-131,-78,53,104,-92,-12,92,43,-34,-48,-82,-78
-136,-78,58,107,-97,-9,92,34,-39,-63,-92,-82
-136,-78,58,107,-97,-9,87,29,-48,-73,-107,-92
-151,-78,73,114,-112,-2,87,19,-58,-82,-117,-97
-165,-87,78,126,-122,-4,87,14,-73,-102,-126,-102
-170,-97,73,134,-122,-12,92,4,-87,-112,-136,-117
-180,-102,78,141,-129,-12,97,-4,-97,-131,-146,-126
-190,-112,78,151,-134,-17,102,-14,-117,-146,-165,-136
-209,-122,87,165,-148,-17,102,-24,-136,-165,-175,-146
-219,-126,92,173,-156,-17,102,-43,-156,-195,-195,-165
-239,-136,102,187,-170,-17,107,-63,-180,-209,-214,-170
-253,-151,102,202,-178,-24,117,-78,-204,-244,-229,-185
-263,-165,97,214,-180,-34,122,-97,-224,-273,-253,-200
-273,-175,97,224,-185,-39,122,-117,-263,-302,-278,-214
-297,-195,102,246,-200,-46,126,-136,-292,-341,-307,-234
-317,-214,102,265,-209,-56,131,-156,-331,-380,-336,-258
-346,-244,102,295,-224,-70,141,-185,-366,-419,-361,-278
-375,-278,97,326,-236,-90,146,-214,-409,-458,-395,-307
-400,-302,97,351,-248,-102,151,-248,-453,-512,-434,-336
-424,-326,97,375,-261,-114,161,-278,-502,-556,-473,-361
-448,-366,82,407,-265,-141,161,-312,-551,-614,-512,-395
-463,-395,68,429,-265,-163,161,-351,-600,-663,-556,-434
-492,-429,63,461,-278,-183,170,-385,-658,-717,-600,-468
-522,-458,63,490,-292,-197,175,-419,-712,-775,-649,-497
-546,-492,53,519,-300,-219,175,-458,-771,-834,-683,-527
-566,-531,34,549,-300,-248,180,-492,-824,-888,-732,-561
-600,-570,29,585,-314,-270,190,-517,-883,-946,-771,-590
-619,-600,19,610,-319,-290,195,-536,-927,-1000,-814,-619
-629,-624,4,627,-317,-309,200,-561,-961,-1044,-854,-649
-639,-658,-19,649,-309,-339,204,-580,-990,-1083,-883,-658
-639,-683,-43,661,-297,-363,204,-590,-1024,-1107,-907,-678
-639,-707,-68,673,-285,-387,204,-595,-1044,-1137,-917,-692
-639,-717,-78,678,-280,-397,204,-585,-1049,-1146,-927,-702
-624,-722,-97,673,-263,-409,204,-566,-1054,-1151,-927,-707
-610,-722,-112,666,-248,-417,200,-541,-1039,-1127,-912,-697
-575,-707,-131,641,-222,-419,200,-502,-1010,-1102,-888,-678
-546,-692,-146,619,-200,-419,195,-463,-966,-1063,-863,-653
-497,-663,-165,580,-165,-414,190,-409,-917,-1019,-824,-624
-448,-629,-180,539,-134,-405,180,-351,-854,-961,-775,-590
-395,-590,-195,492,-100,-392,170,-287,-790,-893,-727,-551
-346,-561,-214,453,-65,-387,165,-234,-727,-819,-668,-512
-297,-512,-214,405,-41,-363,161,-180,-653,-746,-610,-468
-244,-468,-224,356,-9,-346,141,-126,-585,-668,-556,-424
-195,-414,-219,305,12,-317,122,-73,-512,-590,-488,-375
-151,-366,-214,258,31,-290,107,-39,-444,-522,-434,-331
-112,-317,-204,214,46,-261,92,-4,-380,-453,-380,-287
-82,-278,-195,180,56,-236,73,19,-317,-390,-326,-244
-58,-239,-180,148,61,-209,63,39,-263,-331,-273,-209
-39,-209,-170,124,65,-190,58,63,-204,-273,-224,-170
-19,-175,-156,97,68,-165,48,73,-161,-219,-195,-146
-4,-146,-141,75,68,-143,39,82,-126,-180,-161,-122
9,-117,-126,53,68,-122,29,87,-87,-136,-131,-102
19,-92,-112,36,65,-102,24,87,-68,-107,-102,-82
19,-73,-92,26,56,-82,19,92,-43,-78,-82,-63
29,-58,-87,14,58,-73,9,92,-29,-58,-63,-53
34,-48,-82,7,58,-65,9,92,-9,-39,-48,-39
39,-39,-78,0,58,-58,4,92,0,-24,-43,-34
43,-29,-73,-7,58,-51,0,92,9,-9,-34,-24
43,-24,-68,-9,56,-46,0,87,19,0,-19,-19
43,-19,-63,-12,53,-41,0,87,24,9,-9,-9
43,-14,-58,-14,51,-36,-4,87,39,24,0,-9
39,-14,-53,-12,46,-34,-4,82,43,24,4,-4
39,-9,-48,-14,43,-29,-4,82,48,24,9,0
34,-9,-43,-12,39,-26,-9,78,48,29,9,4
34,-9,-43,-12,39,-26,-9,68,48,29,9,4
34,-9,-43,-12,39,-26,-9,68,43,29,9,4
29,-9,-39,-9,34,-24,-4,68,39,29,4,0
24,-9,-34,-7,29,-21,-4,63,34,29,4,0
24,-9,-34,-7,29,-21,-4,63,34,29,4,0
19,-14,-34,-2,26,-24,-4,58,29,19,4,-4
19,-14,-34,-2,26,-24,-4,58,34,19,0,-4
14,-19,-34,2,24,-26,0,53,34,19,-4,-4
4,-19,-24,7,14,-21,0,48,34,19,-4,-9
4,-24,-29,9,17,-26,0,48,34,19,-9,-9
4,-24,-29,9,17,-26,-4,48,29,4,-14,-14
4,-24,-29,9,17,-26,-9,48,29,0,-14,-24
0,-29,-29,14,14,-29,-9,43,29,0,-14,-29
0,-34,-34,17,17,-34,-4,43,24,-4,-14,-29
-4,-39,-34,21,14,-36,-4,43,24,-4,-14,-29
-4,-43,-39,24,17,-41,-4,39,24,-4,-14,-29
-4,-39,-34,21,14,-36,0,39,24,0,-14,-29
-4,-39,-34,21,14,-36,4,39,24,4,-19,-34
-4,-43,-39,24,17,-41,4,39,24,0,-24,-34
-4,-43,-39,24,17,-41,4,39,19,0,-24,-34
-4,-43,-39,24,17,-41,0,39,19,0,-24,-34
-4,-48,-43,26,19,-46,0,39,19,0,-24,-34
-4,-43,-39,24,17,-41,0,39,19,0,-19,-29
-4,-39,-34,21,14,-36,0,39,19,4,-14,-24
-4,-39,-34,21,14,-36,0,39,24,4,-14,-24
-4,-34,-29,19,12,-31,0,39,24,4,-9,-19
-4,-34,-29,19,12,-31,0,39,24,9,-9,-19
0,-34,-34,17,17,-34,0,39,19,9,-9,-19
0,-29,-29,14,14,-29,0,39,19,14,-9,-19
0,-24,-24,12,12,-24,-4,39,24,19,-9,-19
0,-29,-29,14,14,-29,-4,39,24,19,-9,-19
4,-29,-34,12,19,-31,-4,39,24,14,-9,-19
4,-34,-39,14,21,-36,-4,39,24,14,-9,-19
4,-34,-39,14,21,-36,-4,39,29,19,-9,-19
4,-34,-39,14,21,-36,-4,39,34,14,-4,-19
4,-34,-39,14,21,-36,-4,39,39,14,0,-19
9,-34,-43,12,26,-39,-4,39,39,14,0,-14
9,-34,-43,12,26,-39,-9,34,39,14,0,-14
9,-29,-39,9,24,-34,-14,34,39,19,0,-14
9,-29,-39,9,24,-34,-19,34,34,24,0,-14
9,-29,-39,9,24,-34,-19,34,34,24,0,-9
9,-34,-43,12,26,-39,-19,34,29,24,0,-9
14,-34,-48,9,31,-41,-19,39,34,24,0,-14
14,-29,-43,7,29,-36,-19,39,39,24,0,-14
19,-29,-48,4,34,-39,-19,39,39,19,0,-14
24,-29,-53,2,39,-41,-19,39,39,19,0,-14
24,-29,-53,2,39,-41,-19,39,39,19,4,-9
24,-29,-53,2,39,-41,-24,34,39,24,4,-9
24,-29,-53,2,39,-41,-24,34,39,24,4,-9
24,-29,-53,2,39,-41,-24,34,39,24,0,-9
24,-29,-53,2,39,-41,-24,34,39,19,0,-9
24,-29,-53,2,39,-41,-24,34,39,19,4,-9
24,-29,-53,2,39,-41,-24,34,39,19,4,-4
24,-29,-53,2,39,-41,-24,34,39,19,4,0
29,-29,-58,0,43,-43,-24,39,39,19,4,0
29,-29,-58,0,43,-43,-24,39,43,24,4,0
29,-29,-58,0,43,-43,-24,39,43,24,4,0
29,-29,-58,0,43,-43,-24,34,39,19,0,0
29,-29,-58,0,43,-43,-24,34,39,24,0,0
29,-29,-58,0,43,-43,-24,34,39,29,0,0
29,-29,-58,0,43,-43,-24,34,34,29,0,-4
29,-29,-58,0,43,-43,-24,39,34,29,4,-9
29,-34,-63,2,46,-48,-24,39,34,29,4,-9
29,-34,-63,2,46,-48,-24,39,34,24,4,-9
29,-29,-58,0,43,-43,-24,39,34,19,9,-9
29,-24,-53,-2,41,-39,-24,39,34,19,14,-9
29,-24,-53,-2,41,-39,-19,34,34,19,9,-9
29,-29,-58,0,43,-43,-19,34,39,19,9,-9
29,-29,-58,0,43,-43,-19,29,39,19,9,-9
29,-29,-58,0,43,-43,-19,29,39,19,9,-9
29,-29,-58,0,43,-43,-19,29,39,19,9,-9
29,-29,-58,0,43,-43,-19,29,39,19,9,-9
24,-29,-53,2,39,-41,-19,34,39,19,9,-9
19,-29,-48,4,34,-39,-19,39,39,19,9,-9
19,-29,-48,4,34,-39,-19,39,39,19,4,-9
19,-29,-48,4,34,-39,-19,39,39,19,0,-4
24,-29,-53,2,39,-41,-19,39,39,19,0,-4
29,-19,-48,-4,39,-34,-19,39,39,29,4,-4
29,-9,-39,-9,34,-24,-19,43,43,29,9,0
34,4,-29,-19,31,-12,-9,48,53,34,14,4
34,14,-19,-24,26,-2,4,53,63,43,14,4
39,24,-14,-31,26,4,19,63,73,48,24,14
39,34,-4,-36,21,14,29,73,73,53,34,24
39,39,0,-39,19,19,29,78,73,53,39,24
48,43,-4,-46,26,19,19,78,78,63,43,24
58,48,-9,-53,34,19,0,73,82,63,48,29
63,53,-9,-58,36,21,-14,63,82,68,48,29
63,63,0,-63,31,31,-39,39,82,73,53,34
68,68,0,-68,34,34,-48,34,82,73,58,43
78,92,14,-85,31,53,-63,29,92,87,73,53
87,102,14,-95,36,58,-63,34,92,82,68,53
97,112,14,-104,41,63,-73,39,92,78,73,53
102,97,-4,-100,53,46,-73,39,82,73,58,53
102,78,-24,-90,63,26,-68,39,73,68,53,39
92,63,-29,-78,61,17,-53,39,68,63,48,34
73,48,-24,-61,48,12,-39,53,63,58,43,24
53,24,-29,-39,41,-2,-24,53,48,43,34,14
29,-4,-34,-12,31,-19,-14,48,34,29,14,0
24,-19,-43,-2,34,-31,-19,39,19,19,9,-14
19,-39,-58,9,39,-48,-24,29,14,9,0,-24
19,-43,-63,12,41,-53,-24,29,14,4,0,-24
19,-53,-73,17,46,-63,-24,29,9,0,-9,-34
19,-63,-82,21,51,-73,-24,29,4,-4,-14,-34
14,-63,-78,24,46,-70,-24,29,4,-9,-19,-34
14,-63,-78,24,46,-70,-24,29,4,-9,-19,-34
14,-63,-78,24,46,-70,-24,29,4,-9,-19,-34
14,-63,-78,24,46,-70,-24,24,4,-9,-19,-39
14,-63,-78,24,46,-70,-24,24,4,-9,-19,-39
14,-63,-78,24,46,-70,-19,29,4,-9,-14,-34
14,-63,-78,24,46,-70,-9,34,4,-9,-14,-29
14,-68,-82,26,48,-75,-9,39,4,-9,-14,-29
19,-78,-97,29,58,-87,0,58,4,-14,-24,-34
34,-97,-131,31,82,-114,34,122,14,-4,-24,-43
63,-92,-156,14,109,-124,82,239,58,19,-14,-43
107,-43,-151,-31,129,-97,151,400,161,102,34,-14
156,29,-126,-92,141,-48,239,570,283,180,87,29
200,136,-63,-168,131,36,317,736,409,283,170,102
273,224,-48,-248,161,87,385,888,492,351,234,165
400,375,-24,-387,212,175,361,980,605,483,370,283
629,629,0,-629,314,314,122,922,727,673,566,463
868,941,73,-905,397,507,-219,736,829,897,805,702
1068,1410,341,-1239,363,875,-634,351,1034,1224,1146,1034
1273,1742,468,-1507,402,1105,-1078,-97,1195,1532,1464,1327
1356,1844,488,-1600,434,1166,-1356,-429,1342,1805,1698,1527
1298,1898,600,-1598,348,1249,-1498,-673,1429,1981,1854,1664
1259,1834,575,-1546,341,1205,-1586,-790,1376,1995,1869,1668
1176,1722,546,-1449,314,1134,-1664,-912,1249,1937,1830,1625
1005,1590,585,-1298,209,1088,-1576,-1015,1127,1854,1761,1556
873,1473,600,-1173,136,1037,-1424,-1063,1034,1776,1693,1488
829,1254,424,-1041,202,839,-1185,-878,941,1688,1595,1381
751,956,204,-854,273,580,-907,-614,814,1503,1410,1210
551,649,97,-600,226,373,-624,-405,668,1200,1107,912
341,390,48,-366,146,219,-390,-258,448,824,741,600
107,234,126,-170,-9,180,-200,-165,297,517,444,346
-63,73,136,-4,-100,104,-34,-34,161,219,156,102
-68,-14,53,41,-61,19,9,24,63,63,24,-4
-68,-48,19,58,-43,-14,34,63,34,24,-9,-39
-58,-48,9,53,-34,-19,48,68,29,9,-14,-39
-58,-53,4,56,-31,-24,53,68,29,4,-19,-39
-68,-58,9,63,-39,-24,58,68,29,4,-19,-39
-73,-58,14,65,-43,-21,68,73,29,9,-14,-39
-73,-63,9,68,-41,-26,68,68,24,9,-19,-39
-73,-63,9,68,-41,-26,68,68,24,9,-19,-39
-73,-58,14,65,-43,-21,73,68,24,4,-19,-39
-78,-58,19,68,-48,-19,68,68,29,0,-19,-39
-78,-58,19,68,-48,-19,68,73,29,-4,-19,-39
-78,-63,14,70,-46,-24,73,73,29,-4,-19,-39
-78,-63,14,70,-46,-24,73,73,29,-4,-19,-43
-82,-58,24,70,-53,-17,78,73,29,-4,-19,-43
-87,-58,29,73,-58,-14,82,73,29,0,-14,-39
-87,-58,29,73,-58,-14,82,73,29,0,-14,-39
-87,-53,34,70,-61,-9,82,73,29,0,-14,-39
-92,-53,39,73,-65,-7,82,73,29,4,-14,-34
-92,-53,39,73,-65,-7,82,73,29,4,-14,-34
-87,-53,34,70,-61,-9,87,73,34,4,-14,-34
-87,-48,39,68,-63,-4,87,73,43,9,-14,-34
-87,-48,39,68,-63,-4,87,73,43,14,-9,-29
-87,-48,39,68,-63,-4,87,73,43,14,-4,-29
-87,-48,39,68,-63,-4,87,78,39,14,-4,-34
-87,-43,43,65,-65,0,87,78,34,14,-4,-34
-87,-43,43,65,-65,0,87,78,34,14,-4,-34
-92,-43,48,68,-70,2,92,82,29,9,-4,-34
-92,-43,48,68,-70,2,92,78,34,4,-9,-34
-97,-43,53,70,-75,4,92,73,39,0,-14,-34
-97,-43,53,70,-75,4,92,68,34,-4,-14,-34
-102,-43,58,73,-80,7,92,68,34,-4,-14,-34
-107,-43,63,75,-85,9,92,68,24,-4,-14,-39
-117,-43,73,80,-95,14,97,68,19,-9,-19,-39
-122,-43,78,82,-100,17,97,63,19,-9,-19,-39
-122,-48,73,85,-97,12,97,63,9,-14,-19,-43
-126,-48,78,87,-102,14,97,58,9,-24,-24,-43
-131,-48,82,90,-107,17,97,53,0,-29,-34,-48
-136,-48,87,92,-112,19,97,48,-4,-39,-43,-48
-141,-53,87,97,-114,17,97,43,-4,-43,-43,-53
-151,-58,92,104,-122,17,102,39,-19,-48,-53,-68
-156,-58,97,107,-126,19,102,24,-29,-63,-63,-73
-156,-63,92,109,-124,14,102,19,-39,-68,-73,-78
-170,-68,102,119,-136,17,107,9,-48,-73,-78,-78
-185,-78,107,131,-146,14,107,4,-63,-92,-87,-82
-190,-87,102,139,-146,7,112,-4,-78,-102,-97,-97
-200,-92,107,146,-153,7,122,-14,-82,-122,-107,-107
-209,-102,107,156,-158,2,131,-24,-97,-136,-126,-117
-229,-112,117,170,-173,2,131,-34,-117,-156,-136,-126
-239,-117,122,178,-180,2,131,-53,-136,-185,-156,-146
-258,-126,131,192,-195,2,136,-73,-161,-200,-175,-156
-273,-141,131,207,-202,-4,146,-87,-185,-234,-190,-175
-287,-161,126,224,-207,-17,151,-107,-204,-263,-214,-190
-302,-175,126,239,-214,-24,151,-126,-244,-292,-239,-204
-326,-195,131,261,-229,-31,156,-151,-273,-331,-268,-224
-346,-214,131,280,-239,-41,161,-175,-312,-370,-297,-248
-375,-239,136,307,-256,-51,165,-204,-346,-409,-322,-268
-405,-268,136,336,-270,-65,165,-234,-390,-448,-356,-297
-429,-292,136,361,-283,-78,170,-268,-434,-502,-395,-326
-453,-317,136,385,-295,-90,180,-297,-483,-546,-434,-351
-488,-356,131,422,-309,-112,185,-331,-531,-605,-468,-380
-512,-385,126,448,-319,-129,190,-370,-580,-653,-507,-414
-541,-419,122,480,-331,-148,200,-405,-634,-702,-551,-439
-570,-448,122,509,-346,-163,204,-439,-683,-756,-600,-458
-595,-483,112,539,-353,-185,209,-468,-732,-810,-629,-488
-614,-522,92,568,-353,-214,219,-492,-775,-858,-673,-522
-639,-561,78,600,-358,-241,224,-517,-824,-907,-702,-551
-649,-590,58,619,-353,-265,224,-536,-858,-951,-736,-580
-658,-610,48,634,-353,-280,224,-556,-893,-990,-771,-610
-668,-639,29,653,-348,-305,224,-570,-922,-1024,-795,-619
-668,-658,9,663,-339,-324,224,-570,-946,-1039,-819,-634
-668,-678,-9,673,-329,-344,224,-566,-956,-1058,-829,-644
-658,-688,-29,673,-314,-358,224,-556,-951,-1058,-839,-649
-634,-692,-58,663,-287,-375,224,-536,-946,-1054,-839,-649
-610,-688,-78,649,-265,-383,219,-507,-932,-1029,-814,-639
-566,-668,-102,617,-231,-385,219,-463,-902,-1005,-780,-619
-536,-653,-117,595,-209,-385,214,-414,-858,-966,-756,-595
-488,-624,-136,556,-175,-380,209,-351,-810,-922,-717,-566
-434,-585,-151,509,-141,-368,200,-292,-746,-863,-668,-531
-375,-541,-165,458,-104,-353,190,-229,-683,-795,-619,-492
-326,-507,-180,417,-73,-344,180,-175,-624,-722,-566,-453
-278,-453,-175,366,-51,-314,170,-122,-556,-649,-512,-409
-229,-414,-185,322,-21,-300,151,-78,-492,-580,-458,-366
-185,-366,-180,275,-2,-273,131,-34,-424,-512,-390,-317
-141,-317,-175,229,17,-246,117,-4,-361,-448,-341,-278
-102,-268,-165,185,31,-217,102,24,-302,-385,-292,-239
-68,-229,-161,148,46,-195,82,48,-244,-322,-244,-200
-39,-190,-151,114,56,-170,73,68,-195,-263,-195,-170
-19,-161,-141,90,61,-151,68,87,-151,-219,-151,-131
0,-126,-126,63,63,-126,58,92,-122,-180,-126,-107
14,-102,-117,43,65,-109,48,102,-87,-141,-92,-82
29,-78,-107,24,68,-92,39,107,-48,-97,-63,-63
39,-58,-97,9,68,-78,29,102,-34,-73,-43,-48
39,-43,-82,2,61,-63,19,102,-14,-48,-34,-34
43,-29,-73,-7,58,-51,9,97,-4,-29,-14,-24
43,-19,-63,-12,53,-41,9,92,9,-9,0,-9
48,-9,-58,-19,53,-34,4,92,19,-4,4,-4
53,0,-53,-26,53,-26,0,92,29,0,14,4
53,4,-48,-29,51,-21,0,87,39,9,19,4
53,9,-43,-31,48,-17,0,87,43,19,19,9
53,14,-39,-34,46,-12,-4,87,53,34,29,9
48,14,-34,-31,41,-9,-4,82,53,34,34,14
43,14,-29,-29,36,-7,-4,87,58,34,39,14
34,9,-24,-21,29,-7,-9,87,58,39,39,14
34,4,-29,-19,31,-12,-9,78,53,39,39,14
34,0,-34,-17,34,-17,-9,78,43,39,39,14
29,0,-29,-14,29,-14,-4,73,43,34,34,9
24,0,-24,-12,24,-12,-4,63,43,29,34,9
24,4,-19,-14,21,-7,-4,63,43,29,34,9
19,4,-14,-12,17,-4,-4,58,39,19,34,4
24,4,-19,-14,21,-7,-4,58,39,19,29,4
24,0,-24,-12,24,-12,0,53,34,19,24,4
14,0,-14,-7,14,-7,0,48,34,24,24,0
14,-4,-19,-4,17,-12,0,48,34,29,19,0
14,-4,-19,-4,17,-12,0,48,34,19,14,4
14,-4,-19,-4,17,-12,0,48,39,19,14,4
9,-14,-24,2,17,-19,0,43,39,19,14,0
9,-24,-34,7,21,-29,4,43,34,14,14,0
4,-24,-29,9,17,-26,9,43,29,14,14,-4
4,-24,-29,9,17,-26,14,39,24,14,14,-9
4,-19,-24,7,14,-21,14,39,24,14,14,-9
4,-19,-24,7,14,-21,14,39,24,14,9,-14
4,-24,-29,9,17,-26,9,39,29,9,9,-14
4,-24,-29,9,17,-26,4,39,29,9,14,-14
4,-24,-29,9,17,-26,0,39,29,9,14,-14
4,-29,-34,12,19,-31,0,39,29,9,14,-14
4,-29,-34,12,19,-31,0,39,29,9,14,-14
4,-29,-34,12,19,-31,0,39,29,14,14,-14
4,-24,-29,9,17,-26,0,39,34,14,14,-14
4,-14,-19,4,12,-17,0,39,34,14,19,-9
9,-14,-24,2,17,-19,0,39,34,19,19,-9
19,-14,-34,-2,26,-24,0,39,29,19,19,-9
19,-14,-34,-2,26,-24,4,39,29,19,14,-9
19,-14,-34,-2,26,-24,4,39,34,19,9,-9
14,-19,-34,2,24,-26,4,39,34,19,9,-9
14,-19,-34,2,24,-26,4,39,34,14,9,-9
14,-19,-34,2,24,-26,0,39,34,14,9,-4
14,-14,-29,0,21,-21,-4,39,39,19,9,0
14,-14,-29,0,21,-21,-4,39,39,19,14,0
14,-14,-29,0,21,-21,-4,39,39,24,19,0
24,-14,-39,-4,31,-26,-4,39,39,24,19,4
29,-14,-43,-7,36,-29,-9,34,39,24,19,4
29,-9,-39,-9,34,-24,-9,34,43,24,19,4
29,-9,-39,-9,34,-24,-9,34,43,24,19,4
29,-9,-39,-9,34,-24,-9,34,43,24,19,4
29,-14,-43,-7,36,-29,-9,34,39,24,19,0
29,-14,-43,-7,36,-29,-9,43,39,24,19,-4
24,-9,-34,-7,29,-21,-9,48,39,24,19,-4
24,-14,-39,-4,31,-26,-4,48,39,24,19,-4
24,-19,-43,-2,34,-31,0,48,39,29,19,-4
29,-19,-48,-4,39,-34,0,48,39,29,24,0
34,-19,-53,-7,43,-36,-4,43,39,34,24,0
34,-14,-48,-9,41,-31,-4,43,39,34,29,4
34,-9,-43,-12,39,-26,-4,43,39,34,29,9
29,-9,-39,-9,34,-24,-4,43,39,29,29,9
24,-9,-34,-7,29,-21,-4,43,39,29,34,9
24,-9,-34,-7,29,-21,-4,43,39,29,34,9
24,-9,-34,-7,29,-21,-4,43,39,29,34,9
29,-14,-43,-7,36,-29,-4,48,39,29,34,9
29,-19,-48,-4,39,-34,-4,48,43,34,34,9
34,-19,-53,-7,43,-36,-4,48,43,34,34,4
39,-19,-58,-9,48,-39,-4,43,39,29,29,0
39,-19,-58,-9,48,-39,-4,43,39,29,24,0
39,-19,-58,-9,48,-39,-4,43,39,29,19,0
39,-19,-58,-9,48,-39,-4,43,39,29,19,0
39,-19,-58,-9,48,-39,-4,48,43,29,24,0
39,-24,-63,-7,51,-43,-4,48,43,34,24,0
39,-24,-63,-7,51,-43,-4,48,43,34,24,0
39,-24,-63,-7,51,-43,-4,48,43,29,24,0
39,-24,-63,-7,51,-43,-4,48,43,29,24,0
34,-19,-53,-7,43,-36,-4,43,39,29,29,4
29,-19,-48,-4,39,-34,-9,43,39,29,39,9
29,-19,-48,-4,39,-34,-9,43,39,34,39,9
29,-19,-48,-4,39,-34,-9,48,39,39,39,9
29,-19,-48,-4,39,-34,-9,48,43,39,39,9
29,-19,-48,-4,39,-34,-9,48,48,39,39,9
29,-19,-48,-4,39,-34,-9,48,48,39,34,4
29,-19,-48,-4,39,-34,-9,48,48,39,29,0
29,-19,-48,-4,39,-34,-9,48,43,34,24,-4
29,-19,-48,-4,39,-34,-9,48,39,29,19,-9
29,-19,-48,-4,39,-34,-9,48,39,29,19,-9
29,-19,-48,-4,39,-34,-9,48,39,29,19,-9
29,-19,-48,-4,39,-34,-9,48,39,29,19,-9
29,-19,-48,-4,39,-34,-9,48,39,29,19,-9
29,-19,-48,-4,39,-34,-9,48,39,29,19,-9
29,-14,-43,-7,36,-29,-9,48,39,34,19,-4
34,-9,-43,-12,39,-26,-9,48,39,39,24,0
39,-4,-43,-17,41,-24,-9,53,43,39,29,9
43,0,-43,-21,43,-21,0,58,53,43,34,14
43,4,-39,-24,41,-17,9,63,63,53,34,14
48,14,-34,-31,41,-9,24,73,73,58,43,24
48,24,-24,-36,36,0,39,82,73,63,48,34
48,29,-19,-39,34,4,39,87,73,58,48,34
58,39,-19,-48,39,9,39,92,82,63,53,34
68,48,-19,-58,43,14,34,97,92,63,53,34
73,53,-19,-63,46,17,24,92,92,68,48,29
73,63,-9,-68,41,26,0,68,92,73,53,34
78,68,-9,-73,43,29,-14,63,92,73,58,43
87,97,9,-92,39,53,-39,53,102,87,78,53
97,112,14,-104,41,63,-43,48,102,87,82,58
107,126,19,-117,43,73,-58,48,102,92,97,63
112,117,4,-114,53,61,-63,48,92,92,87,63
117,97,-19,-107,68,39,-58,48,82,87,82,58
117,82,-34,-100,75,24,-48,48,82,82,78,63
102,78,-24,-90,63,26,-39,63,87,82,73,53
82,63,-19,-73,51,21,-24,63,78,73,63,43
53,19,-34,-36,43,-7,-14,58,63,58,39,29
39,-9,-48,-14,43,-29,-14,48,43,43,24,14
29,-29,-58,0,43,-43,-14,34,29,24,9,-4
29,-34,-63,2,46,-48,-14,29,24,14,9,-14
29,-43,-73,7,51,-58,-14,29,14,9,0,-24
29,-53,-82,12,56,-68,-14,29,4,9,0,-24
24,-53,-78,14,51,-65,-14,29,4,9,0,-24
24,-53,-78,14,51,-65,-14,29,4,9,0,-24
24,-53,-78,14,51,-65,-14,34,4,9,0,-19
24,-53,-78,14,51,-65,-14,34,4,9,0,-19
24,-53,-78,14,51,-65,-14,34,4,9,0,-19
24,-53,-78,14,51,-65,-14,39,4,9,0,-19
19,-48,-68,14,43,-58,-9,39,4,4,-4,-19
14,-48,-63,17,39,-56,-9,34,4,0,-4,-19
19,-58,-78,19,48,-68,-9,29,0,-9,-14,-29
34,-82,-117,24,75,-100,9,58,-4,-14,-14,-43
58,-107,-165,24,112,-136,43,131,4,-14,-19,-53
92,-92,-185,0,139,-139,102,263,82,48,9,-39
131,-39,-170,-46,151,-104,190,444,204,117,48,-4
165,53,-112,-109,139,-29,273,629,331,214,117,53
195,107,-87,-151,141,9,414,829,405,253,146,73
258,209,-48,-234,153,80,502,1000,507,351,239,146
463,380,-82,-422,273,148,375,1073,605,497,375,278
712,629,-82,-671,397,273,131,1034,692,683,570,478
941,1156,214,-1049,363,685,-253,746,927,1010,922,819
1195,1590,395,-1393,400,993,-736,292,1112,1332,1273,1146
1376,1805,429,-1590,473,1117,-1132,-156,1312,1688,1590,1434
1385,1942,556,-1664,414,1249,-1351,-492,1483,1956,1825,1649
1366,1932,566,-1649,400,1249,-1473,-673,1507,2049,1908,1698
1302,1859,556,-1581,373,1207,-1629,-834,1415,2044,1917,1693
1107,1742,634,-1424,236,1188,-1644,-985,1273,1961,1849,1644
956,1659,702,-1307,126,1180,-1576,-1137,1166,1893,1795,1595
941,1503,561,-1222,190,1032,-1405,-1073,1068,1859,1766,1546
897,1239,341,-1068,278,790,-1161,-854,941,1737,1649,1434
717,883,165,-800,275,524,-834,-570,810,1488,1385,1166
517,575,58,-546,229,317,-556,-370,595,1127,1024,854
248,385,136,-317,56,261,-322,-258,419,761,673,536
24,185,161,-104,-68,173,-107,-107,253,395,326,229
-29,43,73,-7,-51,58,-19,-14,112,146,107,58
-58,-34,24,46,-41,-4,34,58,53,43,9,-19
-48,-39,9,43,-29,-14,48,68,39,24,4,-19
-48,-43,4,46,-26,-19,53,68,29,14,0,-19
-58,-48,9,53,-34,-19,58,68,29,14,0,-19
-63,-48,14,56,-39,-17,68,78,29,14,0,-24
-63,-53,9,58,-36,-21,68,78,24,9,-9,-34
-63,-53,9,58,-36,-21,68,78,24,9,-9,-39
-63,-48,14,56,-39,-17,78,78,24,4,-14,-39
-68,-48,19,58,-43,-14,82,78,29,4,-19,-39
-68,-48,19,58,-43,-14,87,82,29,4,-19,-39
-68,-53,14,61,-41,-19,92,82,29,4,-19,-39
-68,-53,14,61,-41,-19,92,82,29,4,-19,-43
-68,-48,19,58,-43,-14,92,82,29,4,-19,-43
-68,-48,19,58,-43,-14,92,82,29,9,-14,-39
-68,-48,19,58,-43,-14,92,82,29,9,-14,-39
-68,-43,24,56,-46,-9,92,82,29,9,-14,-39
-73,-43,29,58,-51,-7,92,82,29,14,-14,-34
-73,-48,24,61,-48,-12,92,82,29,14,-14,-34
-73,-53,19,63,-46,-17,97,82,29,9,-14,-34
-78,-48,29,63,-53,-9,97,82,34,9,-14,-34
-78,-48,29,63,-53,-9,97,82,34,14,-14,-29
-78,-48,29,63,-53,-9,97,82,34,14,-14,-29
-78,-48,29,63,-53,-9,97,82,34,14,-14,-34
-78,-43,34,61,-56,-4,97,78,34,14,-14,-34
-78,-43,34,61,-56,-4,97,78,34,14,-14,-34
-82,-43,39,63,-61,-2,102,82,29,9,-14,-34
-82,-43,39,63,-61,-2,102,82,29,9,-14,-34
-87,-43,43,65,-65,0,102,82,29,9,-14,-34
-87,-43,43,65,-65,0,102,78,24,4,-14,-34
-92,-43,48,68,-70,2,102,78,24,4,-14,-34
-92,-43,48,68,-70,2,102,78,19,4,-14,-39
-97,-43,53,70,-75,4,107,82,19,0,-19,-43
-102,-43,58,73,-80,7,107,82,19,0,-19,-48
-102,-48,53,75,-78,2,107,82,9,-4,-24,-53
-107,-48,58,78,-82,4,107,78,9,-14,-34,-53
-107,-48,58,78,-82,4,102,73,0,-19,-43,-58
-107,-48,58,78,-82,4,97,68,-4,-29,-53,-58
-112,-53,58,82,-85,2,97,63,-4,-34,-48,-53
-122,-58,63,90,-92,2,102,58,-19,-39,-53,-58
-126,-58,68,92,-97,4,107,48,-24,-48,-58,-63
-126,-63,63,95,-95,0,112,48,-29,-53,-63,-68
-141,-68,73,104,-107,2,117,39,-39,-58,-68,-68
-156,-78,78,117,-117,0,117,34,-53,-73,-78,-73
-161,-82,78,122,-119,-2,122,24,-63,-82,-87,-87
-170,-82,87,126,-129,2,126,14,-68,-102,-97,-97
-180,-92,87,136,-134,-2,131,9,-87,-117,-117,-107
-200,-102,97,151,-148,-2,131,4,-107,-136,-126,-117
-209,-107,102,158,-156,-2,131,-14,-126,-165,-151,-136
-229,-117,112,173,-170,-2,136,-34,-151,-180,-175,-146
-244,-126,117,185,-180,-4,146,-48,-175,-214,-190,-165
-258,-141,117,200,-187,-12,151,-68,-195,-244,-214,-180
-268,-156,112,212,-190,-21,146,-87,-229,-268,-239,-195
-287,-175,112,231,-200,-31,146,-112,-253,-302,-268,-214
-302,-190,112,246,-207,-39,151,-131,-292,-341,-297,-234
-326,-209,117,268,-222,-46,161,-156,-326,-380,-322,-248
-356,-239,117,297,-236,-61,170,-180,-370,-419,-351,-278
-380,-263,117,322,-248,-73,180,-209,-414,-473,-385,-307
-405,-287,117,346,-261,-85,190,-234,-453,-517,-424,-331
-439,-326,112,383,-275,-107,195,-263,-492,-575,-463,-361
-463,-356,107,409,-285,-124,204,-302,-541,-624,-507,-395
-492,-390,102,441,-297,-143,219,-336,-595,-678,-551,-429
-522,-419,102,470,-312,-158,224,-370,-649,-736,-600,-458
-546,-453,92,500,-319,-180,224,-405,-707,-795,-634,-488
-566,-492,73,529,-319,-209,229,-434,-756,-849,-683,-522
-595,-531,63,563,-329,-234,234,-458,-810,-902,-717,-551
-614,-561,53,588,-334,-253,234,-478,-858,-956,-761,-585
-629,-585,43,607,-336,-270,239,-497,-902,-1000,-800,-619
-639,-624,14,631,-326,-305,244,-517,-932,-1049,-829,-634
-639,-649,-9,644,-314,-329,244,-527,-966,-1083,-858,-658
-649,-673,-24,661,-312,-348,244,-531,-990,-1107,-878,-678
-653,-688,-34,671,-309,-361,244,-527,-995,-1112,-897,-688
-634,-692,-58,663,-287,-375,244,-517,-1005,-1127,-902,-692
-610,-692,-82,651,-263,-387,239,-497,-1000,-1117,-893,-688
-570,-683,-112,627,-229,-397,239,-463,-980,-1093,-873,-673
-546,-673,-126,610,-209,-400,234,-429,-946,-1054,-854,-653
-502,-649,-146,575,-178,-397,229,-370,-902,-1015,-819,-629
-458,-619,-161,539,-148,-390,219,-312,-844,-961,-775,-600
-405,-585,-180,495,-112,-383,209,-248,-780,-897,-732,-561
-356,-556,-200,456,-78,-378,200,-195,-717,-829,-678,-522
-307,-507,-200,407,-53,-353,190,-141,-644,-756,-619,-478
-253,-468,-214,361,-19,-341,170,-92,-580,-688,-566,-429
-204,-414,-209,309,2,-312,151,-43,-512,-614,-497,-375
-161,-366,-204,263,21,-285,136,-9,-448,-541,-444,-331
-122,-317,-195,219,36,-256,122,24,-385,-473,-385,-287
-87,-278,-190,183,51,-234,102,48,-322,-409,-331,-248
-53,-239,-185,146,65,-212,92,68,-273,-341,-278,-214
-29,-209,-180,119,75,-195,82,87,-219,-278,-224,-170
-9,-170,-161,90,75,-165,68,92,-175,-229,-190,-146
4,-136,-141,65,73,-139,58,102,-136,-190,-151,-122
24,-102,-126,39,75,-114,48,107,-97,-141,-122,-97
39,-78,-117,19,78,-97,43,107,-78,-112,-97,-73
39,-63,-102,12,70,-82,39,117,-43,-82,-82,-53
48,-48,-97,0,73,-73,29,122,-19,-58,-63,-43
58,-39,-97,-9,78,-68,24,122,0,-34,-43,-29
68,-29,-97,-19,82,-63,14,122,9,-19,-34,-24
73,-19,-92,-26,82,-56,9,122,19,-9,-24,-14
73,-14,-87,-29,80,-51,9,117,29,0,-14,-9
73,-9,-82,-31,78,-46,9,117,29,9,-9,0
73,-4,-78,-34,75,-41,4,117,34,24,0,0
68,-4,-73,-31,70,-39,4,112,34,24,4,9
68,0,-68,-34,68,-34,4,112,39,24,9,14
63,0,-63,-31,63,-31,0,107,43,29,9,14
63,0,-63,-31,63,-31,0,97,48,29,9,14
63,0,-63,-31,63,-31,0,97,43,34,9,14
58,0,-58,-29,58,-29,4,97,43,39,4,9
53,0,-53,-26,53,-26,4,92,43,39,4,4
53,0,-53,-26,53,-26,4,92,43,39,4,0
48,-4,-53,-21,51,-29,4,87,39,24,4,-4
48,-4,-53,-21,51,-29,4,87,39,19,0,-4
43,-9,-53,-17,48,-31,9,82,34,19,-4,-4
34,-9,-43,-12,39,-26,9,78,34,19,-4,-9
34,-14,-48,-9,41,-31,9,78,34,19,-9,-9
34,-14,-48,-9,41,-31,9,78,29,9,-14,-9
34,-14,-48,-9,41,-31,9,78,29,9,-19,-14
29,-19,-48,-4,39,-34,9,73,29,9,-24,-19
29,-24,-53,-2,41,-39,14,73,24,4,-24,-19
24,-24,-48,0,36,-36,14,73,24,4,-24,-19
24,-24,-48,0,36,-36,14,68,24,4,-24,-19
24,-19,-43,-2,34,-31,14,68,24,4,-24,-19
24,-19,-43,-2,34,-31,14,68,24,4,-24,-24
24,-24,-48,0,36,-36,14,68,24,0,-24,-24
24,-24,-48,0,36,-36,14,68,19,0,-24,-24
24,-24,-48,0,36,-36,9,68,19,0,-24,-24
19,-24,-43,2,31,-34,9,68,19,0,-24,-24
14,-19,-34,2,24,-26,9,68,19,0,-24,-24
14,-19,-34,2,24,-26,9,68,19,0,-29,-24
14,-19,-34,2,24,-26,9,68,24,-4,-34,-24
14,-19,-34,2,24,-26,9,68,24,-4,-29,-19
14,-24,-39,4,26,-31,9,68,24,0,-29,-19
19,-24,-43,2,31,-34,9,68,19,4,-24,-14
19,-24,-43,2,31,-34,9,68,19,9,-19,-9
19,-19,-39,0,29,-29,4,68,24,9,-19,-9
19,-19,-39,0,29,-29,4,68,24,9,-19,-9
24,-19,-43,-2,34,-31,4,68,24,4,-24,-14
24,-19,-43,-2,34,-31,4,68,24,4,-29,-19
24,-19,-43,-2,34,-31,4,68,24,4,-34,-19
24,-24,-48,0,36,-36,4,68,19,0,-34,-19
24,-24,-48,0,36,-36,4,73,19,4,-29,-19
29,-24,-53,-2,41,-39,4,78,19,4,-29,-14
34,-24,-58,-4,46,-41,0,73,19,9,-24,-14
39,-19,-58,-9,48,-39,0,73,24,14,-19,-14
39,-19,-58,-9,48,-39,0,73,24,14,-19,-9
39,-19,-58,-9,48,-39,0,73,24,14,-19,0
39,-29,-68,-4,53,-48,0,68,19,14,-19,0
43,-34,-78,-4,61,-56,0,68,19,14,-19,-4
39,-29,-68,-4,53,-48,0,68,24,14,-19,-4
34,-29,-63,-2,48,-46,0,68,29,14,-19,-4
34,-29,-63,-2,48,-46,0,73,29,19,-19,-9
34,-29,-63,-2,48,-46,0,78,29,19,-14,-9
34,-29,-63,-2,48,-46,-4,73,29,24,-14,-9
34,-29,-63,-2,48,-46,-4,73,29,24,-14,-9
34,-29,-63,-2,48,-46,-4,73,24,24,-19,-9
34,-29,-63,-2,48,-46,-4,73,19,19,-19,-9
34,-29,-63,-2,48,-46,-4,73,19,19,-14,-9
34,-29,-63,-2,48,-46,-4,73,19,19,-14,-9
34,-29,-63,-2,48,-46,-4,73,24,19,-14,-9
39,-29,-68,-4,53,-48,-4,78,29,19,-14,-9
39,-24,-63,-7,51,-43,-4,73,34,24,-14,-9
39,-19,-58,-9,48,-39,-4,68,34,24,-14,-9
39,-19,-58,-9,48,-39,-4,63,29,19,-19,-9
39,-19,-58,-9,48,-39,-4,63,29,19,-19,-9
39,-19,-58,-9,48,-39,-4,63,29,19,-19,-9
39,-19,-58,-9,48,-39,-4,63,29,19,-19,-9
39,-19,-58,-9,48,-39,-4,68,34,19,-14,-9
39,-24,-63,-7,51,-43,-4,68,34,24,-14,-9
39,-24,-63,-7,51,-43,-4,68,29,24,-14,-9
39,-24,-63,-7,51,-43,-4,68,24,19,-14,-9
39,-24,-63,-7,51,-43,-4,68,24,19,-14,-9
39,-24,-63,-7,51,-43,-4,68,19,24,-14,-9
39,-24,-63,-7,51,-43,-4,68,19,19,-14,-9
39,-29,-68,-4,53,-48,-9,68,19,19,-19,-9
39,-29,-68,-4,53,-48,-9,68,19,19,-19,-9
39,-29,-68,-4,53,-48,-9,68,19,19,-19,-9
39,-29,-68,-4,53,-48,-9,68,24,19,-19,-9
39,-29,-68,-4,53,-48,-9,68,29,19,-19,-9
39,-29,-68,-4,53,-48,-9,63,29,19,-19,-9
39,-29,-68,-4,53,-48,-9,58,29,19,-19,-9
39,-29,-68,-4,53,-48,-9,58,29,19,-14,-9
39,-29,-68,-4,53,-48,-4,58,29,19,-9,-4
39,-29,-68,-4,53,-48,-4,58,29,19,-9,-4
39,-19,-58,-9,48,-39,0,58,29,29,-4,-4
39,-14,-53,-12,46,-34,0,63,34,29,0,0
43,-4,-48,-19,46,-26,9,68,43,34,4,4
43,4,-39,-24,41,-17,14,73,53,43,4,4
48,14,-34,-31,41,-9,19,82,63,48,14,14
48,24,-24,-36,36,0,29,92,63,53,19,24
48,29,-19,-39,34,4,29,97,63,53,19,24
58,39,-19,-48,39,9,29,102,73,63,24,24
68,48,-19,-58,43,14,19,102,82,63,29,29
73,53,-19,-63,46,17,4,92,82,63,29,29
73,63,-9,-68,41,26,-19,68,82,63,34,34
78,68,-9,-73,43,29,-34,63,82,63,39,43
87,92,4,-90,41,48,-53,58,92,78,53,53
97,102,4,-100,46,53,-53,58,92,78,53,58
107,112,4,-109,51,58,-63,58,92,78,63,63
112,97,-14,-104,63,41,-63,58,82,73,48,63
112,78,-34,-95,73,21,-58,58,73,68,43,48
107,63,-43,-85,75,9,-43,58,73,63,39,43
92,48,-43,-70,68,2,-29,73,73,58,34,34
73,24,-48,-48,61,-12,-14,73,58,43,19,19
48,-4,-53,-21,51,-29,-4,68,43,29,-4,0
39,-19,-58,-9,48,-39,-9,58,24,19,-14,-14
29,-39,-68,4,48,-53,-14,48,14,9,-29,-24
29,-43,-73,7,51,-58,-14,48,14,4,-29,-24
29,-53,-82,12,56,-68,-14,48,9,0,-39,-34
29,-63,-92,17,61,-78,-14,48,4,-4,-39,-34
24,-63,-87,19,56,-75,-14,48,4,-9,-39,-34
24,-63,-87,19,56,-75,-14,48,4,-9,-39,-34
24,-63,-87,19,56,-75,-14,48,4,-9,-39,-34
24,-68,-92,21,58,-80,-14,43,4,-9,-34,-34
24,-73,-97,24,61,-85,-14,43,4,-9,-29,-29
24,-73,-97,24,61,-85,-14,48,4,-9,-29,-29
24,-73,-97,24,61,-85,-9,53,4,-9,-34,-29
24,-78,-102,26,63,-90,-9,58,4,-9,-34,-29
29,-87,-117,29,73,-102,0,78,4,-14,-43,-34
48,-102,-151,26,100,-126,29,131,14,-4,-39,-43
82,-92,-175,4,129,-134,73,239,58,19,-24,-43
122,-53,-175,-34,148,-114,141,400,161,97,19,-19
165,9,-156,-87,161,-73,229,570,283,170,68,19
204,122,-82,-163,143,19,312,741,424,287,156,97
273,214,-58,-244,165,78,385,897,522,370,224,165
375,361,-14,-368,195,173,400,1029,639,502,361,283
580,610,29,-595,275,319,200,1010,766,692,556,463
819,932,112,-875,353,522,-112,868,888,932,795,712
1019,1410,390,-1215,314,900,-497,527,1112,1273,1137,1054
1234,1761,527,-1498,353,1144,-966,29,1268,1586,1478,1356
1327,1883,556,-1605,385,1220,-1268,-351,1410,1864,1737,1566
1259,1937,678,-1598,290,1307,-1410,-619,1507,2054,1898,1703
1210,1873,663,-1542,273,1268,-1498,-761,1464,2083,1917,1708
1137,1761,624,-1449,256,1193,-1610,-883,1327,2015,1873,1668
976,1629,653,-1302,161,1141,-1556,-985,1195,1922,1800,1605
854,1522,668,-1188,92,1095,-1429,-1073,1098,1854,1747,1546
819,1312,492,-1066,163,902,-1215,-927,1000,1776,1664,1449
751,1005,253,-878,248,629,-927,-639,863,1590,1473,1273
561,688,126,-624,217,407,-634,-405,707,1288,1166,971
356,419,63,-387,146,241,-400,-258,478,893,780,639
126,253,126,-190,0,190,-209,-165,317,566,463,366
-48,82,131,-17,-90,107,-39,-34,170,244,161,112
-58,-14,43,36,-51,14,9,24,63,63,14,-4
-58,-53,4,56,-31,-24,34,68,34,29,-19,-39
-48,-58,-9,53,-19,-34,48,78,29,19,-24,-39
-48,-63,-14,56,-17,-39,53,78,29,14,-29,-39
-58,-68,-9,63,-24,-39,58,78,29,14,-29,-39
-63,-68,-4,65,-29,-36,68,87,29,14,-29,-43
-63,-73,-9,68,-26,-41,68,87,24,9,-39,-48
-63,-68,-4,65,-29,-36,68,82,24,9,-39,-48
-63,-58,4,61,-34,-26,73,78,24,4,-39,-48
-68,-58,9,63,-39,-24,68,78,29,4,-39,-48
-68,-58,9,63,-39,-24,68,82,29,4,-39,-48
-68,-63,4,65,-36,-29,73,82,29,4,-39,-48
-68,-63,4,65,-36,-29,73,82,29,4,-39,-53
-68,-58,9,63,-39,-24,78,82,29,4,-39,-53
-68,-58,9,63,-39,-24,82,82,29,9,-34,-48
-68,-63,4,65,-36,-29,82,82,29,9,-34,-48
-68,-63,4,65,-36,-29,82,82,29,9,-34,-48
-73,-63,9,68,-41,-26,82,82,29,14,-34,-43
-73,-63,9,68,-41,-26,82,82,29,14,-34,-43
-73,-58,14,65,-43,-21,87,82,29,9,-34,-43
-78,-48,29,63,-53,-9,87,82,34,9,-34,-43
-78,-48,29,63,-53,-9,87,82,34,9,-34,-39
-78,-48,29,63,-53,-9,87,82,34,4,-34,-39
-78,-53,24,65,-51,-14,87,82,34,4,-34,-43
-78,-53,24,65,-51,-14,87,78,34,4,-34,-43
-78,-53,24,65,-51,-14,87,78,34,9,-34,-43
-82,-53,29,68,-56,-12,92,82,29,9,-34,-43
-82,-48,34,65,-58,-7,92,82,29,9,-34,-43
-87,-43,43,65,-65,0,92,82,29,9,-34,-43
-87,-43,43,65,-65,0,87,73,24,0,-34,-43
-92,-43,48,68,-70,2,82,68,24,-4,-34,-43
-92,-43,48,68,-70,2,82,68,19,-4,-34,-48
-97,-43,53,70,-75,4,87,68,19,-9,-39,-48
-102,-43,58,73,-80,7,92,63,19,-9,-39,-48
-102,-48,53,75,-78,2,97,63,9,-14,-39,-53
-107,-48,58,78,-82,4,97,58,9,-19,-39,-48
-112,-48,63,80,-87,7,97,53,0,-19,-43,-48
-117,-48,68,82,-92,9,97,48,-4,-29,-53,-48
-122,-53,68,87,-95,7,97,43,-4,-34,-53,-53
-131,-58,73,95,-102,7,102,39,-19,-39,-63,-68
-136,-58,78,97,-107,9,102,24,-29,-53,-73,-73
-136,-63,73,100,-104,4,97,19,-43,-63,-82,-78
-151,-68,82,109,-117,7,97,9,-58,-73,-87,-78
-165,-73,92,119,-129,9,97,4,-73,-92,-97,-82
-170,-78,92,124,-131,7,102,-4,-87,-102,-107,-97
-180,-82,97,131,-139,7,107,-14,-97,-126,-122,-107
-190,-92,97,141,-143,2,112,-24,-117,-146,-146,-117
-209,-107,102,158,-156,-2,112,-34,-136,-165,-156,-126
-219,-117,102,168,-161,-7,112,-53,-156,-195,-175,-146
-239,-126,112,183,-175,-7,117,-73,-180,-209,-195,-156
-253,-141,112,197,-183,-14,126,-87,-204,-244,-209,-175
-268,-161,107,214,-187,-26,131,-107,-224,-273,-234,-190
-283,-175,107,229,-195,-34,131,-126,-263,-302,-258,-204
-307,-195,112,251,-209,-41,136,-156,-292,-341,-287,-224
-326,-214,112,270,-219,-51,141,-185,-331,-380,-317,-248
-356,-239,117,297,-236,-61,151,-214,-366,-419,-341,-268
-385,-268,117,326,-251,-75,156,-244,-409,-458,-375,-297
-409,-292,117,351,-263,-87,156,-278,-458,-512,-414,-326
-434,-317,117,375,-275,-100,161,-307,-512,-556,-453,-351
-468,-356,112,412,-290,-122,165,-341,-561,-614,-492,-380
-492,-385,107,439,-300,-139,170,-380,-610,-663,-536,-414
-517,-419,97,468,-307,-161,180,-414,-668,-717,-580,-448
-541,-448,92,495,-317,-178,185,-448,-722,-775,-629,-478
-566,-483,82,524,-324,-200,185,-488,-775,-834,-663,-507
-585,-522,63,553,-324,-229,190,-522,-824,-888,-712,-541
-614,-561,53,588,-334,-253,195,-546,-878,-941,-746,-566
-629,-590,39,610,-334,-275,195,-566,-917,-990,-785,-590
-639,-614,24,627,-331,-295,200,-585,-946,-1029,-814,-619
-649,-649,0,649,-324,-324,204,-600,-971,-1063,-834,-629
-649,-668,-19,658,-314,-344,204,-600,-1000,-1083,-858,-649
-649,-688,-39,668,-305,-363,204,-595,-1015,-1107,-868,-663
-644,-697,-53,671,-295,-375,204,-585,-1015,-1112,-878,-668
-624,-702,-78,663,-273,-390,204,-566,-1015,-1112,-878,-668
-600,-697,-97,649,-251,-397,200,-536,-995,-1083,-858,-658
-556,-678,-122,617,-217,-400,200,-492,-961,-1054,-829,-639
-527,-663,-136,595,-195,-400,195,-444,-917,-1015,-805,-614
-478,-634,-156,556,-161,-395,190,-380,-868,-971,-766,-585
-429,-600,-170,514,-129,-385,185,-322,-805,-912,-717,-551
-375,-561,-185,468,-95,-373,180,-258,-741,-844,-668,-512
-326,-527,-200,427,-63,-363,170,-200,-673,-771,-610,-478
-278,-473,-195,375,-41,-334,161,-141,-595,-697,-551,-439
-224,-429,-204,326,-9,-317,146,-92,-531,-624,-497,-390
-175,-375,-200,275,12,-287,131,-43,-463,-551,-429,-336
-131,-331,-200,231,34,-265,117,-9,-400,-483,-375,-292
-92,-287,-195,190,51,-241,102,24,-341,-414,-322,-248
-58,-248,-190,153,65,-219,82,48,-283,-351,-278,-209
-29,-209,-180,119,75,-195,73,68,-234,-292,-234,-180
-9,-180,-170,95,80,-175,68,87,-180,-239,-185,-141
9,-146,-156,68,82,-151,58,92,-141,-190,-156,-117
19,-122,-141,51,80,-131,48,102,-107,-151,-122,-92
29,-97,-126,34,78,-112,39,107,-68,-107,-92,-73
39,-78,-117,19,78,-97,34,107,-48,-82,-63,-53
39,-63,-102,12,70,-82,29,112,-24,-58,-43,-34
48,-48,-97,0,73,-73,19,112,-4,-39,-24,-29
53,-39,-92,-7,73,-65,19,112,19,-19,-9,-19
58,-29,-87,-14,73,-58,14,112,29,-9,-9,-14
63,-19,-82,-21,73,-51,9,112,39,0,-4,-4
63,-14,-78,-24,70,-46,9,107,43,9,4,0
63,-9,-73,-26,68,-41,9,107,43,19,9,9
63,-4,-68,-29,65,-36,4,107,53,34,19,9
58,-4,-63,-26,61,-34,4,102,53,34,24,14
58,0,-58,-29,58,-29,4,102,58,34,29,14
53,0,-53,-26,53,-26,0,97,58,39,29,14
53,0,-53,-26,53,-26,0,87,58,39,29,14
53,0,-53,-26,53,-26,0,87,53,39,29,14
48,0,-48,-24,48,-24,4,87,53,39,24,9
43,0,-43,-21,43,-21,4,82,53,39,24,9
43,0,-43,-21,43,-21,4,82,53,39,24,9
39,-4,-43,-17,41,-24,4,78,48,29,24,4
39,-4,-43,-17,41,-24,4,78,53,29,19,4
34,-9,-43,-12,39,-26,9,73,53,29,14,4
24,-9,-34,-7,29,-21,9,68,53,29,14,0
24,-14,-39,-4,31,-26,9,68,53,29,9,0
24,-14,-39,-4,31,-26,9,68,43,19,4,4
24,-14,-39,-4,31,-26,9,68,39,19,4,4
19,-19,-39,0,29,-29,9,63,39,19,4,0
19,-24,-43,2,31,-34,14,63,34,14,4,0
14,-24,-39,4,26,-31,14,63,34,14,4,-4
14,-24,-39,4,26,-31,14,58,34,14,4,-9
9,-19,-29,4,19,-24,14,58,34,14,4,-9
4,-19,-24,7,14,-21,14,58,34,14,0,-14
4,-19,-24,7,14,-21,14,58,34,9,-4,-14
4,-14,-19,4,12,-17,14,58,29,9,-4,-14
4,-14,-19,4,12,-17,9,58,29,9,-4,-14
4,-19,-24,7,14,-21,9,58,29,9,-4,-14
9,-24,-34,7,21,-29,9,58,29,9,-4,-14
14,-29,-43,7,29,-36,9,58,29,14,-4,-14
14,-29,-43,7,29,-36,9,58,34,14,-4,-14
14,-24,-39,4,26,-31,9,58,34,14,0,-9
14,-24,-39,4,26,-31,9,58,34,19,0,-9
19,-24,-43,2,31,-34,9,58,29,19,0,-9
19,-19,-39,0,29,-29,9,58,29,19,0,-9
19,-14,-34,-2,26,-24,4,58,34,19,0,-9
19,-19,-39,0,29,-29,4,53,34,19,0,-9
24,-19,-43,-2,34,-31,4,48,34,14,0,-9
24,-19,-43,-2,34,-31,4,48,34,14,0,-9
24,-14,-39,-4,31,-26,4,48,39,19,0,-9
24,-14,-39,-4,31,-26,4,48,39,19,4,-9
24,-14,-39,-4,31,-26,4,48,39,24,9,-9
29,-14,-43,-7,36,-29,4,53,39,24,9,-4
29,-14,-43,-7,36,-29,0,53,39,24,9,-4
29,-9,-39,-9,34,-24,0,53,43,24,9,-4
29,-9,-39,-9,34,-24,0,53,43,24,9,-4
29,-9,-39,-9,34,-24,0,53,43,24,9,0
29,-14,-43,-7,36,-29,0,53,39,24,9,0
29,-14,-43,-7,36,-29,0,58,39,24,9,0
24,-9,-34,-7,29,-21,0,58,39,24,9,4
24,-9,-34,-7,29,-21,0,58,39,24,9,4
24,-9,-34,-7,29,-21,0,58,39,29,9,4
29,-9,-39,-9,34,-24,0,58,39,29,14,9
34,-9,-43,-12,39,-26,-4,53,39,34,14,9
34,-14,-48,-9,41,-31,-4,53,39,34,14,9
34,-19,-53,-7,43,-36,-4,53,39,34,9,9
34,-19,-53,-7,43,-36,-4,53,43,29,9,4
34,-19,-53,-7,43,-36,-4,53,48,29,14,0
34,-14,-48,-9,41,-31,-4,53,48,29,14,0
34,-9,-43,-12,39,-26,-4,53,48,29,14,0
39,-9,-48,-14,43,-29,-4,58,43,29,14,4
39,-9,-48,-14,43,-29,-4,58,43,34,14,9
39,-9,-48,-14,43,-29,-9,58,43,34,19,9
39,-9,-48,-14,43,-29,-14,53,39,29,19,9
39,-9,-48,-14,43,-29,-14,53,39,34,19,9
39,-9,-48,-14,43,-29,-14,53,39,39,19,9
39,-9,-48,-14,43,-29,-9,48,39,39,19,9
39,-9,-48,-14,43,-29,-4,48,43,39,24,9
39,-14,-53,-12,46,-34,-4,48,43,39,24,9
39,-14,-53,-12,46,-34,-4,48,43,34,24,9
39,-14,-53,-12,46,-34,-4,48,43,29,24,9
39,-14,-53,-12,46,-34,-4,48,43,29,24,9
39,-14,-53,-12,46,-34,-4,43,39,29,19,9
39,-19,-58,-9,48,-39,-9,43,39,29,19,9
39,-19,-58,-9,48,-39,-9,43,39,29,19,9
39,-19,-58,-9,48,-39,-9,48,39,29,19,9
39,-19,-58,-9,48,-39,-9,48,39,29,19,9
39,-19,-58,-9,48,-39,-9,48,39,29,19,9
39,-19,-58,-9,48,-39,-9,53,39,29,19,4
39,-19,-58,-9,48,-39,-9,58,39,29,19,0
39,-19,-58,-9,48,-39,-9,58,39,29,19,0
39,-19,-58,-9,48,-39,-9,58,39,29,19,0
39,-19,-58,-9,48,-39,-9,53,39,29,19,0
39,-19,-58,-9,48,-39,-9,48,39,29,19,0
39,-19,-58,-9,48,-39,-9,48,39,29,19,0
39,-19,-58,-9,48,-39,-9,48,39,29,19,0
39,-24,-63,-7,51,-43,-9,48,39,29,19,0
39,-19,-58,-9,48,-39,-9,48,39,29,19,0
39,-19,-58,-9,48,-39,-9,48,39,34,19,4
39,-14,-53,-12,46,-34,-9,53,43,29,19,9
43,-4,-48,-19,46,-26,0,58,43,34,24,9
43,4,-39,-24,41,-17,9,63,43,43,24,4
48,14,-34,-31,41,-9,19,73,63,48,34,14
48,24,-24,-36,36,0,29,82,73,53,39,24
48,34,-14,-41,31,9,34,87,73,58,39,29
58,48,-9,-53,34,19,39,92,82,73,43,34
68,58,-9,-63,39,24,29,97,92,73,48,39
73,63,-9,-68,41,26,14,92,92,78,48,39
73,68,-4,-70,39,31,-9,68,92,78,53,43
78,68,-9,-73,43,29,-24,63,92,73,58,53
87,92,4,-90,41,48,-43,53,102,87,78,63
97,102,4,-100,46,53,-43,48,102,87,82,68
107,117,9,-112,48,63,-53,48,102,87,92,73
112,107,-4,-109,58,51,-53,48,92,82,78,73
117,92,-24,-104,70,34,-53,48,82,78,73,58
117,82,-34,-100,75,24,-48,48,82,73,68,53
102,68,-34,-85,68,17,-39,63,87,73,63,43
82,43,-39,-63,61,2,-24,63,78,63,53,34
58,14,-43,-36,51,-14,-14,58,63,48,34,19
48,0,-48,-24,48,-24,-14,48,43,34,24,4
39,-24,-63,-7,51,-43,-14,39,29,19,9,-9
39,-34,-73,-2,56,-53,-14,39,24,14,9,-14
34,-43,-78,4,56,-61,-14,34,19,4,0,-24
29,-53,-82,12,56,-68,-14,29,14,0,0,-24
24,-53,-78,14,51,-65,-14,29,14,0,0,-24
24,-53,-78,14,51,-65,-14,29,14,0,0,-24
24,-53,-78,14,51,-65,-14,34,14,0,-4,-24
24,-53,-78,14,51,-65,-14,34,14,0,-9,-29
24,-53,-78,14,51,-65,-14,34,14,0,-9,-29
24,-53,-78,14,51,-65,-14,39,14,0,-9,-29
19,-53,-73,17,46,-63,-9,39,9,0,-14,-24
14,-58,-73,21,43,-65,-9,34,4,0,-14,-19
14,-68,-82,26,48,-75,-9,34,0,-9,-24,-24
24,-92,-117,34,70,-104,9,68,-4,-14,-24,-34
53,-112,-165,29,109,-139,53,156,14,-14,-24,-43
92,-92,-185,0,139,-139,122,302,102,48,9,-29
131,-34,-165,-48,148,-100,209,473,224,117,53,0
165,63,-102,-114,134,-19,292,649,351,214,126,53
219,122,-97,-170,158,12,409,839,414,258,156,82
307,229,-78,-268,192,75,473,1000,507,361,248,165
502,405,-97,-453,300,153,312,1029,605,507,390,297
741,658,-82,-700,412,287,34,946,692,692,590,497
980,1171,190,-1076,395,680,-361,644,907,1005,922,829
1244,1590,346,-1417,448,968,-854,175,1073,1312,1254,1146
1400,1776,375,-1588,512,1076,-1229,-234,1249,1644,1556,1410
1385,1883,497,-1634,444,1190,-1429,-531,1395,1888,1776,1600
1376,1873,497,-1625,439,1185,-1551,-683,1405,1966,1844,1649
1322,1800,478,-1561,422,1139,-1708,-814,1298,1947,1839,1644
1122,1678,556,-1400,283,1117,-1678,-966,1180,1873,1786,1595
966,1590,624,-1278,170,1107,-1566,-1117,1098,1815,1747,1546
946,1424,478,-1185,234,951,-1366,-1019,1019,1776,1698,1483
897,1151,253,-1024,322,702,-1093,-766,912,1649,1561,1356
707,819,112,-763,297,466,-780,-507,785,1405,1312,1098
497,536,39,-517,229,287,-517,-331,575,1049,966,795
229,356,126,-292,51,241,-292,-229,405,707,629,502
4,165,161,-85,-78,163,-87,-87,244,366,297,219
-39,39,78,0,-58,58,-9,-9,107,131,97,58
-58,-24,34,41,-46,4,34,48,53,43,19,-9
-48,-34,14,41,-31,-9,48,58,43,29,14,-14
-48,-43,4,46,-26,-19,53,58,39,24,9,-19
-63,-48,14,56,-39,-17,63,58,39,24,9,-19
-73,-48,24,61,-48,-12,78,68,39,24,9,-24
-73,-53,19,63,-46,-17,78,68,34,19,-4,-29
-73,-53,19,63,-46,-17,78,68,34,19,-9,-29
-68,-48,19,58,-43,-14,82,68,34,9,-9,-29
-68,-48,19,58,-43,-14,82,68,39,4,-9,-29
-68,-48,19,58,-43,-14,87,78,39,4,-9,-29
-68,-53,14,61,-41,-19,92,82,39,4,-9,-29
-73,-53,19,63,-46,-17,92,82,39,4,-9,-34
-78,-48,29,63,-53,-9,92,82,39,4,-9,-34
-78,-48,29,63,-53,-9,92,78,39,14,-4,-29
-78,-48,29,63,-53,-9,92,73,39,19,-4,-29
-78,-39,39,58,-58,0,92,73,43,19,-4,-29
-82,-34,48,58,-65,7,92,73,48,24,-4,-24
-82,-34,48,58,-65,7,92,78,48,24,-4,-24
-82,-34,48,58,-65,7,97,82,48,19,-4,-24
-82,-29,53,56,-68,12,97,82,48,19,-4,-24
-78,-29,48,53,-63,9,97,82,43,24,-4,-19
-78,-29,48,53,-63,9,97,82,43,24,-4,-19
-78,-29,48,53,-63,9,97,82,43,24,-4,-24
-78,-24,53,51,-65,14,97,78,48,24,-4,-24
-78,-24,53,51,-65,14,97,78,53,24,-4,-24
-82,-29,53,56,-68,12,102,82,48,19,0,-24
-82,-34,48,58,-65,7,102,82,48,19,4,-24
-87,-34,53,61,-70,9,102,82,48,19,4,-19
-87,-34,53,61,-70,9,102,78,43,14,4,-14
-92,-34,58,63,-75,12,102,78,43,14,4,-14
-92,-34,58,63,-75,12,102,78,39,14,4,-19
-97,-34,63,65,-80,14,107,78,34,9,0,-24
-102,-34,68,68,-85,17,107,73,29,9,0,-29
-102,-39,63,70,-82,12,107,73,19,4,0,-34
-107,-39,68,73,-87,14,107,68,19,-4,-4,-34
-112,-39,73,75,-92,17,112,63,9,-9,-14,-34
-117,-39,78,78,-97,19,117,58,4,-19,-24,-29
-122,-43,78,82,-100,17,117,53,9,-24,-24,-34
-131,-48,82,90,-107,17,122,48,0,-29,-34,-48
-136,-48,87,92,-112,19,122,34,-9,-39,-43,-58
-136,-53,82,95,-109,14,122,29,-19,-43,-53,-68
-151,-53,97,102,-124,21,126,19,-29,-53,-58,-68
-165,-58,107,112,-136,24,126,14,-43,-73,-68,-73
-175,-68,107,122,-141,19,131,4,-58,-82,-78,-82
-190,-73,117,131,-153,21,136,-4,-68,-102,-87,-87
-200,-82,117,141,-158,17,141,-9,-78,-117,-107,-97
-219,-92,126,156,-173,17,141,-14,-87,-136,-117,-107
-224,-97,126,161,-175,14,136,-34,-107,-161,-136,-126
-239,-107,131,173,-185,12,136,-53,-131,-170,-156,-136
-253,-122,131,187,-192,4,146,-68,-156,-200,-165,-156
-268,-141,126,204,-197,-7,151,-87,-175,-224,-185,-170
-283,-156,126,219,-204,-14,151,-107,-209,-253,-209,-185
-307,-175,131,241,-219,-21,156,-131,-234,-292,-239,-204
-326,-190,136,258,-231,-26,161,-156,-273,-326,-268,-224
-356,-209,146,283,-251,-31,170,-185,-307,-361,-292,-239
-385,-239,146,312,-265,-46,175,-214,-346,-400,-322,-263
-409,-263,146,336,-278,-58,180,-248,-385,-453,-356,-287
-434,-283,151,358,-292,-65,190,-278,-434,-488,-390,-307
-468,-317,151,392,-309,-82,195,-312,-483,-536,-424,-331
-492,-346,146,419,-319,-100,200,-351,-527,-585,-463,-366
-522,-380,141,451,-331,-119,209,-385,-575,-639,-502,-400
-551,-405,146,478,-348,-129,214,-419,-619,-692,-551,-429
-575,-434,141,505,-358,-146,214,-453,-668,-746,-585,-458
-600,-473,126,536,-363,-173,219,-488,-717,-800,-629,-488
-634,-512,122,573,-378,-195,224,-517,-771,-854,-658,-512
-649,-536,112,592,-380,-212,224,-536,-810,-902,-697,-541
-658,-556,102,607,-380,-226,229,-556,-844,-941,-732,-570
-673,-590,82,631,-378,-253,234,-570,-873,-976,-761,-585
-678,-610,68,644,-373,-270,234,-575,-907,-995,-790,-610
-678,-634,43,656,-361,-295,229,-585,-932,-1029,-805,-629
-673,-649,24,661,-348,-312,224,-585,-936,-1044,-819,-639
-658,-658,0,658,-329,-329,224,-566,-941,-1049,-824,-644
-639,-663,-24,651,-307,-344,219,-536,-932,-1029,-814,-639
-595,-653,-58,624,-268,-356,224,-497,-912,-1015,-795,-624
-566,-644,-78,605,-244,-361,224,-458,-878,-985,-775,-605
-517,-619,-102,568,-207,-361,219,-400,-834,-946,-741,-580
-468,-590,-122,529,-173,-356,209,-341,-775,-893,-697,-551
-414,-556,-141,485,-136,-348,200,-278,-717,-829,-653,-512
-366,-527,-161,446,-102,-344,190,-224,-658,-761,-600,-473
-317,-473,-156,395,-80,-314,180,-170,-590,-688,-546,-434
-263,-429,-165,346,-48,-297,161,-122,-531,-619,-497,-390
-214,-380,-165,297,-24,-273,146,-68,-463,-551,-429,-336
-170,-336,-165,253,-2,-251,136,-29,-400,-483,-375,-292
-126,-287,-161,207,17,-224,122,4,-341,-414,-322,-253
-87,-248,-161,168,36,-204,102,29,-283,-351,-273,-219
-58,-209,-151,134,46,-180,92,48,-234,-297,-229,-190
-39,-180,-141,109,51,-161,82,68,-180,-248,-185,-151
-14,-151,-136,82,61,-143,63,73,-146,-200,-156,-126
4,-126,-131,61,68,-129,48,82,-117,-161,-122,-102
24,-97,-122,36,73,-109,39,92,-78,-117,-92,-82
39,-78,-117,19,78,-97,34,97,-58,-92,-68,-63
39,-63,-102,12,70,-82,29,102,-34,-68,-53,-43
48,-48,-97,0,73,-73,19,102,-19,-48,-34,-34
53,-39,-92,-7,73,-65,14,102,0,-24,-14,-19
58,-29,-87,-14,73,-58,4,102,9,-9,-4,-14
68,-14,-82,-26,75,-48,0,97,19,0,4,-4
73,-4,-78,-34,75,-41,0,87,29,9,14,0
73,0,-73,-36,73,-36,0,87,39,19,19,9
73,4,-68,-39,70,-31,-4,87,53,34,29,9
63,4,-58,-34,61,-26,0,82,53,39,34,14
58,9,-48,-34,53,-19,4,82,58,43,39,14
53,9,-43,-31,48,-17,0,82,58,48,39,19
53,9,-43,-31,48,-17,0,78,58,48,39,24
58,9,-48,-34,53,-19,0,78,53,48,39,24
58,9,-48,-34,53,-19,4,78,53,48,34,19
53,9,-43,-31,48,-17,9,73,53,48,34,19
53,9,-43,-31,48,-17,14,73,53,48,34,19
48,4,-43,-26,46,-19,14,68,48,39,34,14
48,4,-43,-26,46,-19,14,68,48,39,29,14
43,0,-43,-21,43,-21,19,63,43,39,24,9
34,0,-34,-17,34,-17,19,58,43,39,24,0
29,-4,-34,-12,31,-19,19,58,43,39,19,0
24,-4,-29,-9,26,-17,19,58,39,29,14,0
24,-4,-29,-9,26,-17,19,58,39,29,14,0
19,-9,-29,-4,24,-19,19,53,39,29,14,0
19,-14,-34,-2,26,-24,24,53,34,24,14,0
14,-14,-29,0,21,-21,24,53,34,24,14,0
14,-14,-29,0,21,-21,19,48,34,24,14,0
14,-9,-24,-2,19,-17,14,48,34,24,14,0
14,-9,-24,-2,19,-17,14,48,29,19,9,-9
14,-14,-29,0,21,-21,14,48,24,9,4,-14
14,-14,-29,0,21,-21,19,48,19,9,4,-14
14,-14,-29,0,21,-21,19,48,19,9,4,-14
14,-19,-34,2,24,-26,19,48,24,14,4,-9
14,-19,-34,2,24,-26,19,48,29,19,4,-4
14,-19,-34,2,24,-26,19,48,29,24,9,-4
14,-19,-34,2,24,-26,19,48,34,24,14,-4
14,-14,-29,0,21,-21,19,48,34,24,19,-4
14,-14,-29,0,21,-21,19,48,34,29,19,-9
19,-14,-34,-2,26,-24,19,48,29,29,19,-9
19,-14,-34,-2,26,-24,19,48,29,29,19,-9
19,-14,-34,-2,26,-24,14,48,34,29,19,-9
19,-19,-39,0,29,-29,14,48,34,29,19,-9
24,-19,-43,-2,34,-31,9,48,34,24,14,-9
24,-19,-43,-2,34,-31,4,48,34,24,9,-9
24,-9,-34,-7,29,-21,4,48,39,29,9,-9
24,-4,-29,-9,26,-17,4,48,39,29,14,-9
19,-4,-24,-7,21,-14,4,48,39,29,19,-9
19,-4,-24,-7,21,-14,4,48,39,24,19,-4
19,-4,-24,-7,21,-14,0,43,39,24,19,-4
19,0,-19,-9,19,-9,0,43,43,24,19,-4
24,0,-24,-12,24,-12,0,43,43,24,19,-4
29,0,-29,-14,29,-14,0,43,43,24,19,0
29,-9,-39,-9,34,-24,0,43,39,29,19,4
34,-14,-48,-9,41,-31,0,48,39,34,19,4
34,-9,-43,-12,39,-26,0,48,39,34,19,4
34,-9,-43,-12,39,-26,0,48,39,34,19,4
34,-9,-43,-12,39,-26,0,48,39,39,19,4
34,-9,-43,-12,39,-26,0,48,39,39,24,9
34,-9,-43,-12,39,-26,-4,43,39,39,24,4
34,-9,-43,-12,39,-26,-4,43,39,34,24,0
34,-9,-43,-12,39,-26,-4,43,39,34,19,0
34,-9,-43,-12,39,-26,-4,43,39,29,19,0
34,-9,-43,-12,39,-26,-4,43,39,29,24,0
34,-9,-43,-12,39,-26,-4,43,39,29,24,0
34,-9,-43,-12,39,-26,-4,43,39,34,29,4
39,-9,-48,-14,43,-29,-4,48,39,39,34,9
39,-4,-43,-17,41,-24,-4,48,43,43,34,9
39,0,-39,-19,39,-19,-4,48,43,43,34,9
39,0,-39,-19,39,-19,-4,43,39,34,24,9
39,0,-39,-19,39,-19,-4,43,39,29,19,9
39,-4,-43,-17,41,-24,-4,43,39,29,19,9
39,-9,-48,-14,43,-29,-4,43,39,29,19,9
39,-9,-48,-14,43,-29,-4,48,43,29,24,9
39,-14,-53,-12,46,-34,-4,48,43,34,24,9
39,-14,-53,-12,46,-34,-4,48,43,34,24,9
39,-14,-53,-12,46,-34,-4,48,43,29,24,9
39,-14,-53,-12,46,-34,-4,48,43,29,24,9
39,-14,-53,-12,46,-34,-4,48,39,34,24,9
39,-9,-48,-14,43,-29,0,48,39,29,24,4
39,-9,-48,-14,43,-29,0,48,39,29,29,0
43,-9,-53,-17,48,-31,0,48,39,29,29,0
48,-9,-58,-19,53,-34,0,48,39,29,29,0
48,-9,-58,-19,53,-34,-4,48,39,29,24,0
48,-9,-58,-19,53,-34,-9,48,39,29,19,0
48,-9,-58,-19,53,-34,-9,48,34,29,19,-4
48,-9,-58,-19,53,-34,-9,48,29,29,19,-9
43,-9,-53,-17,48,-31,-9,48,29,29,19,-9
39,-9,-48,-14,43,-29,-9,48,29,29,19,-9
39,-9,-48,-14,43,-29,-9,48,29,29,19,-4
39,-9,-48,-14,43,-29,-9,48,29,29,19,0
39,-9,-48,-14,43,-29,-9,48,29,29,19,0
39,-9,-48,-14,43,-29,-9,48,29,29,19,0
39,-9,-48,-14,43,-29,-9,48,29,29,19,0
39,-9,-48,-14,43,-29,-9,48,29,24,19,0
39,-9,-48,-14,43,-29,-9,48,29,24,19,4
39,0,-39,-19,39,-19,-9,48,29,29,24,4
39,0,-39,-19,39,-19,-9,53,34,29,29,4
43,4,-39,-24,41,-17,0,58,43,34,34,4
43,14,-29,-29,36,-7,9,63,58,43,34,4
48,24,-24,-36,36,0,19,73,73,48,43,14
48,34,-14,-41,31,9,34,82,73,58,48,24
48,39,-9,-43,29,14,39,87,73,63,48,24
58,53,-4,-56,31,24,43,92,82,73,53,24
68,68,0,-68,34,34,39,92,92,73,58,29
73,73,0,-73,36,36,24,82,92,73,58,29
73,82,9,-78,31,46,0,58,92,73,63,34
78,87,9,-82,34,48,-14,53,92,73,68,43
87,112,24,-100,31,68,-34,48,102,87,82,53
97,122,24,-109,36,73,-34,48,102,92,87,63
107,131,24,-119,41,78,-43,48,102,97,102,73
117,117,0,-117,58,58,-53,48,92,92,87,73
122,97,-24,-109,73,36,-58,48,82,87,82,58
117,87,-29,-102,73,29,-48,48,82,82,78,53
102,78,-24,-90,63,26,-39,63,82,78,73,43
82,53,-29,-68,56,12,-24,63,68,63,63,34
58,24,-34,-41,46,-4,-14,58,53,48,43,19
48,9,-39,-29,43,-14,-14,48,34,34,29,0
39,-9,-48,-14,43,-29,-14,39,24,19,9,-14
39,-19,-58,-9,48,-39,-14,39,24,9,9,-14
39,-34,-73,-2,56,-53,-14,39,19,0,0,-24
39,-43,-82,2,61,-63,-14,39,14,0,0,-24
34,-43,-78,4,56,-61,-14,39,14,0,0,-24
34,-43,-78,4,56,-61,-14,39,14,0,0,-24
34,-43,-78,4,56,-61,-14,39,14,0,0,-24
29,-43,-73,7,51,-58,-14,34,9,0,0,-29
24,-43,-68,9,46,-56,-14,34,4,0,0,-29
24,-43,-68,9,46,-56,-14,39,4,0,0,-29
24,-43,-68,9,46,-56,-9,43,4,0,-4,-29
24,-48,-73,12,48,-61,-14,34,4,0,-4,-29
29,-58,-87,14,58,-73,-9,39,4,-4,-14,-34
39,-92,-131,26,85,-112,0,58,-14,-19,-24,-48
63,-102,-165,19,114,-134,24,131,0,-19,-24,-53
97,-78,-175,-9,136,-126,92,283,92,48,14,-34
136,-29,-165,-53,151,-97,180,444,204,112,58,0
165,63,-102,-114,134,-19,283,634,326,209,122,48
224,136,-87,-180,156,24,375,810,405,273,165,87
273,209,-63,-241,168,73,497,1010,507,356,239,151
424,385,-39,-405,231,173,405,1058,619,497,370,278
688,663,-24,-675,356,319,146,1049,712,683,575,483
912,1098,185,-1005,363,641,-185,839,907,971,883,780
1215,1576,361,-1395,427,968,-746,287,1107,1332,1268,1151
1395,1825,429,-1610,483,1127,-1141,-146,1293,1659,1571,1429
1371,1952,580,-1661,395,1266,-1327,-483,1478,1942,1820,1644
1366,1961,595,-1664,385,1278,-1459,-692,1522,2064,1927,1727
1293,1859,566,-1576,363,1212,-1644,-824,1385,2015,1898,1698
1132,1737,605,-1434,263,1171,-1664,-936,1254,1942,1839,1644
980,1683,702,-1332,139,1193,-1590,-1146,1156,1888,1805,1605
917,1527,610,-1222,153,1068,-1429,-1122,1058,1825,1742,1527
883,1220,336,-1051,273,778,-1141,-814,956,1717,1625,1420
727,902,175,-814,275,539,-849,-561,834,1493,1390,1185
517,600,82,-558,217,341,-570,-385,585,1098,1005,839
283,400,117,-341,82,258,-336,-263,405,771,688,551
29,185,156,-107,-63,170,-107,-102,234,375,307,229
-58,43,102,7,-80,73,0,-14,102,122,82,43
-58,-4,53,31,-56,24,29,43,53,58,24,-4
-48,-19,29,34,-39,4,48,68,29,19,-4,-19
-48,-29,19,39,-34,-4,53,68,29,9,-9,-19
-58,-39,19,48,-39,-9,58,68,29,4,-9,-19
-63,-39,24,51,-43,-7,68,78,29,4,-9,-34
-63,-43,19,53,-41,-12,68,78,24,0,-19,-48
-63,-43,19,53,-41,-12,68,78,24,0,-24,-48
-63,-39,24,51,-43,-7,73,78,24,-4,-29,-48
-68,-39,29,53,-48,-4,73,78,29,-4,-29,-43
-68,-39,29,53,-48,-4,78,82,29,-4,-29,-39
-68,-43,24,56,-46,-9,87,82,29,0,-24,-39
-68,-43,24,56,-46,-9,92,82,29,4,-19,-43
-68,-39,29,53,-48,-4,92,82,29,4,-19,-43
-68,-39,29,53,-48,-4,92,82,29,9,-14,-39
-68,-39,29,53,-48,-4,92,82,29,9,-14,-34
-68,-34,34,51,-51,0,92,82,29,9,-14,-29
-73,-39,34,56,-53,-2,92,87,29,14,-14,-24
-73,-43,29,58,-51,-7,92,92,29,14,-14,-24
-68,-43,24,56,-46,-9,97,92,29,9,-14,-29
-68,-39,29,53,-48,-4,97,92,34,9,-14,-34
-68,-39,29,53,-48,-4,92,92,34,14,-14,-29
-68,-39,29,53,-48,-4,87,92,34,14,-14,-29
-78,-39,39,58,-58,0,87,92,34,14,-19,-34
-87,-34,53,61,-70,9,87,87,34,14,-24,-34
-78,-29,48,53,-63,9,87,82,34,14,-24,-39
-73,-24,48,48,-61,12,92,82,29,9,-24,-43
-73,-24,48,48,-61,12,92,82,29,9,-24,-43
-78,-24,53,51,-65,14,92,82,29,9,-24,-43
-78,-29,48,53,-63,9,92,78,24,4,-24,-39
-82,-34,48,58,-65,7,92,78,24,4,-24,-34
-82,-34,48,58,-65,7,92,82,19,4,-24,-39
-87,-34,53,61,-70,9,97,87,19,0,-29,-39
-92,-29,63,61,-78,17,97,82,19,0,-29,-39
-92,-29,63,61,-78,17,97,82,9,-4,-29,-43
-97,-29,68,63,-82,19,97,78,9,-14,-29,-43
-102,-29,73,65,-87,21,97,73,0,-19,-34,-48
-107,-34,73,70,-90,19,102,68,-4,-29,-43,-48
-112,-43,68,78,-90,12,107,63,-4,-34,-43,-53
-122,-48,73,85,-97,12,112,63,-19,-39,-53,-68
-126,-48,78,87,-102,14,112,53,-29,-53,-63,-73
-122,-48,73,85,-97,12,107,48,-34,-58,-73,-78
-131,-48,82,90,-107,17,107,39,-39,-63,-78,-78
-146,-58,87,102,-117,14,107,34,-53,-82,-87,-78
-151,-68,82,109,-117,7,112,24,-68,-92,-97,-87
-161,-73,87,117,-124,7,117,14,-78,-112,-107,-97
-170,-82,87,126,-129,2,122,4,-97,-126,-126,-107
-190,-92,97,141,-143,2,122,-4,-117,-141,-136,-117
-200,-97,102,148,-151,2,122,-24,-136,-165,-156,-136
-219,-102,117,161,-168,7,126,-43,-161,-180,-175,-146
-234,-112,122,173,-178,4,136,-58,-185,-214,-190,-165
-248,-131,117,190,-183,-7,146,-73,-200,-244,-214,-180
-263,-146,117,204,-190,-14,151,-87,-234,-273,-239,-195
-283,-165,117,224,-200,-24,156,-112,-263,-312,-268,-214
-297,-185,112,241,-204,-36,161,-136,-302,-351,-297,-239
-326,-209,117,268,-222,-46,165,-165,-336,-385,-322,-258
-356,-239,117,297,-236,-61,165,-195,-380,-419,-356,-287
-375,-263,112,319,-244,-75,170,-224,-419,-473,-395,-317
-395,-287,107,341,-251,-90,180,-248,-463,-517,-434,-341
-429,-326,102,378,-265,-112,190,-283,-512,-575,-473,-370
-453,-356,97,405,-275,-129,200,-322,-561,-624,-517,-405
-488,-390,97,439,-292,-146,209,-356,-614,-678,-561,-439
-522,-419,102,470,-312,-158,214,-390,-663,-736,-610,-468
-546,-453,92,500,-319,-180,214,-424,-717,-795,-644,-497
-566,-492,73,529,-319,-209,219,-453,-766,-849,-692,-531
-600,-531,68,566,-334,-231,229,-478,-824,-907,-732,-561
-619,-561,58,590,-339,-251,234,-497,-868,-961,-775,-590
-634,-585,48,610,-341,-268,239,-522,-907,-1010,-810,-624
-649,-619,29,634,-339,-295,244,-541,-941,-1054,-834,-639
-653,-649,4,651,-329,-322,244,-546,-976,-1078,-868,-658
-658,-678,-19,668,-319,-348,244,-546,-995,-1107,-888,-673
-653,-688,-34,671,-309,-361,244,-546,-1005,-1122,-902,-683
-634,-692,-58,663,-287,-375,244,-536,-1015,-1132,-907,-688
-614,-702,-87,658,-263,-395,239,-512,-1010,-1117,-893,-683
-575,-697,-122,636,-226,-409,239,-473,-990,-1102,-868,-668
-556,-683,-126,619,-214,-405,234,-439,-951,-1063,-854,-649
-517,-653,-136,585,-190,-395,229,-390,-907,-1019,-824,-624
-468,-624,-156,546,-156,-390,224,-331,-849,-966,-780,-590
-414,-590,-175,502,-119,-383,219,-268,-790,-902,-736,-551
-366,-561,-195,463,-85,-378,209,-209,-727,-829,-678,-512
-317,-512,-195,414,-61,-353,200,-151,-653,-756,-619,-468
-258,-468,-209,363,-24,-339,180,-102,-590,-688,-566,-429
-204,-414,-209,309,2,-312,161,-53,-522,-619,-497,-385
-156,-366,-209,261,26,-287,141,-19,-453,-546,-444,-341
-112,-317,-204,214,46,-261,122,14,-390,-473,-390,-297
-78,-278,-200,178,61,-239,102,43,-326,-400,-336,-248
-48,-239,-190,143,70,-214,92,68,-273,-331,-283,-209
-24,-204,-180,114,78,-192,82,92,-214,-278,-234,-170
0,-165,-165,82,82,-165,68,102,-170,-229,-204,-146
14,-136,-151,61,82,-143,58,112,-136,-190,-165,-117
29,-107,-136,39,82,-122,48,117,-97,-146,-131,-92
39,-82,-122,21,80,-102,43,117,-73,-117,-102,-73
39,-63,-102,12,70,-82,39,122,-43,-87,-82,-53
48,-48,-97,0,73,-73,29,122,-29,-58,-53,-39
53,-39,-92,-7,73,-65,29,122,-9,-29,-29,-19
63,-24,-87,-19,75,-56,24,122,4,-14,-24,-14
73,-9,-82,-31,78,-46,19,122,19,0,-14,-4
73,-4,-78,-34,75,-41,14,117,29,9,-4,0
73,0,-73,-36,73,-36,9,117,34,19,0,9
73,4,-68,-39,70,-31,4,117,43,34,4,9
68,4,-63,-36,65,-29,4,112,43,34,4,14
68,9,-58,-39,63,-24,4,112,48,34,9,14
63,9,-53,-36,58,-21,0,107,48,39,9,14
63,9,-53,-36,58,-21,0,97,48,39,9,14
63,9,-53,-36,58,-21,0,97,43,39,9,14
58,9,-48,-34,53,-19,4,97,43,39,9,9
53,9,-43,-31,48,-17,4,92,43,39,14,9
53,9,-43,-31,48,-17,4,92,48,39,14,9
48,4,-43,-26,46,-19,4,87,48,29,14,4
48,4,-43,-26,46,-19,4,87,48,29,14,9
43,0,-43,-21,43,-21,9,82,43,29,14,14
34,0,-34,-17,34,-17,9,78,39,29,14,9
34,-4,-39,-14,36,-21,9,78,34,29,9,9
34,-4,-39,-14,36,-21,9,78,29,19,0,4
34,-4,-39,-14,36,-21,9,78,29,19,-4,-4
29,-9,-39,-9,34,-24,9,73,34,19,-9,-9
29,-14,-43,-7,36,-29,14,73,34,14,-14,-9
24,-19,-43,-2,34,-31,14,73,34,14,-14,-9
24,-24,-48,0,36,-36,14,68,34,14,-14,-9
24,-19,-43,-2,34,-31,14,68,29,14,-9,-9
24,-19,-43,-2,34,-31,14,68,24,14,-9,-14
24,-19,-43,-2,34,-31,14,68,24,9,-14,-14
24,-14,-39,-4,31,-26,14,68,19,9,-14,-14
24,-14,-39,-4,31,-26,9,63,19,4,-19,-14
24,-19,-43,-2,34,-31,9,58,19,0,-24,-14
24,-19,-43,-2,34,-31,9,58,19,0,-29,-14
24,-19,-43,-2,34,-31,9,58,19,4,-34,-14
24,-19,-43,-2,34,-31,9,58,24,4,-34,-19
24,-14,-39,-4,31,-26,9,58,24,4,-29,-19
24,-19,-43,-2,34,-31,9,63,24,9,-29,-19
29,-24,-53,-2,41,-39,9,68,19,9,-29,-19
29,-24,-53,-2,41,-39,9,68,19,9,-24,-19
29,-24,-53,-2,41,-39,4,68,24,9,-19,-19
24,-24,-48,0,36,-36,4,68,24,14,-14,-9
24,-19,-43,-2,34,-31,4,68,24,14,-9,0
24,-19,-43,-2,34,-31,4,68,24,14,-9,0
24,-14,-39,-4,31,-26,4,68,29,19,-9,0
24,-14,-39,-4,31,-26,4,68,29,14,-9,-4
24,-14,-39,-4,31,-26,4,68,29,14,-9,-9
29,-14,-43,-7,36,-29,4,68,29,14,-9,-9
29,-14,-43,-7,36,-29,0,63,29,14,-9,-14
29,-14,-43,-7,36,-29,0,63,34,14,-9,-14
29,-19,-48,-4,39,-34,0,63,34,14,-9,-14
29,-19,-48,-4,39,-34,0,63,34,14,-9,-4
29,-24,-53,-2,41,-39,0,63,29,14,-9,0
34,-24,-58,-4,46,-41,0,68,29,14,-9,-4
34,-19,-53,-7,43,-36,0,68,29,14,-9,-4
34,-19,-53,-7,43,-36,0,68,29,14,-9,-4
34,-19,-53,-7,43,-36,0,68,29,19,-9,-4
34,-14,-48,-9,41,-31,0,68,29,19,-4,-4
34,-9,-43,-12,39,-26,-4,63,29,24,-4,-9
34,-9,-43,-12,39,-26,-4,63,29,24,-4,-9
34,-9,-43,-12,39,-26,-4,63,29,24,-9,-9
34,-14,-48,-9,41,-31,-4,63,34,24,-9,-4
34,-19,-53,-7,43,-36,-4,63,39,29,-4,0
34,-19,-53,-7,43,-36,-4,63,39,29,-4,0
34,-19,-53,-7,43,-36,-4,63,39,29,-4,0
39,-19,-58,-9,48,-39,-4,68,39,29,-4,-4
39,-19,-58,-9,48,-39,-4,68,43,34,-4,-9
39,-19,-58,-9,48,-39,-4,68,43,34,0,-9
39,-19,-58,-9,48,-39,-4,63,39,29,0,-9
39,-19,-58,-9,48,-39,-4,63,39,29,0,-4
39,-19,-58,-9,48,-39,-4,63,39,29,0,0
39,-19,-58,-9,48,-39,-4,63,39,29,0,0
39,-19,-58,-9,48,-39,-4,68,43,29,4,0
39,-24,-63,-7,51,-43,-4,68,43,34,4,0
39,-24,-63,-7,51,-43,-4,68,43,34,4,0
39,-19,-58,-9,48,-39,-4,68,43,29,4,0
39,-14,-53,-12,46,-34,-4,68,43,29,4,0
43,-14,-58,-14,51,-36,-4,63,39,29,0,0
48,-19,-68,-14,58,-43,-9,63,39,29,0,0
48,-24,-73,-12,61,-48,-9,58,34,29,-4,-4
48,-29,-78,-9,63,-53,-9,58,29,29,-9,-9
48,-24,-73,-12,61,-48,-9,58,29,29,-9,-9
48,-19,-68,-14,58,-43,-9,58,29,29,-9,-9
43,-19,-63,-12,53,-41,-9,58,29,29,-9,-9
39,-19,-58,-9,48,-39,-9,58,29,29,-9,-9
39,-19,-58,-9,48,-39,-9,58,29,29,-9,-9
39,-19,-58,-9,48,-39,-9,58,29,29,-9,-9
43,-19,-63,-12,53,-41,-9,58,29,29,-9,-9
43,-19,-63,-12,53,-41,-9,58,29,29,-9,-4
48,-19,-68,-14,58,-43,-9,63,34,29,-9,-4
48,-9,-58,-19,53,-34,-9,68,39,39,-4,-4
48,-4,-53,-21,51,-29,-9,73,43,39,0,0
53,4,-48,-29,51,-21,0,78,53,43,4,4
48,14,-34,-31,41,-9,9,78,63,53,4,4
48,24,-24,-36,36,0,19,82,73,58,14,14
48,34,-14,-41,31,9,29,92,73,63,19,29
48,39,-9,-43,29,14,29,97,73,63,19,34
58,48,-9,-53,34,19,29,102,82,73,24,34
68,58,-9,-63,39,24,19,102,92,73,29,39
73,63,-9,-68,41,26,9,92,92,78,34,39
73,73,0,-73,36,36,-9,68,92,82,43,43
78,73,-4,-75,41,34,-24,63,92,82,48,53
87,92,4,-90,41,48,-43,58,102,97,63,63
97,102,4,-100,46,53,-43,58,102,97,63,63
107,112,4,-109,51,58,-53,58,102,97,73,63
112,102,-9,-107,61,46,-53,58,92,92,58,63
112,87,-24,-100,68,31,-48,58,82,87,53,48
107,73,-34,-90,70,19,-39,58,82,82,48,43
92,58,-34,-75,63,12,-29,73,82,78,43,34
73,34,-39,-53,56,-2,-19,73,68,63,29,24
48,4,-43,-26,46,-19,-14,68,53,48,4,9
39,-9,-48,-14,43,-29,-14,58,34,29,-4,-4
29,-29,-58,0,43,-43,-14,48,24,9,-19,-14
29,-34,-63,2,46,-48,-14,48,24,4,-19,-14
29,-43,-73,7,51,-58,-14,48,19,0,-29,-24
34,-53,-87,9,61,-70,-14,48,14,0,-29,-24
34,-53,-87,9,61,-70,-14,48,14,0,-29,-24
34,-53,-87,9,61,-70,-14,48,14,0,-29,-24
34,-53,-87,9,61,-70,-14,48,14,0,-29,-24
34,-53,-87,9,61,-70,-14,43,14,0,-29,-29
34,-53,-87,9,61,-70,-14,43,14,0,-29,-29
29,-53,-82,12,56,-68,-14,43,14,0,-24,-29
24,-53,-78,14,51,-65,-9,43,14,0,-24,-29
24,-58,-82,17,53,-70,-9,43,14,0,-24,-29
29,-68,-97,19,63,-82,0,58,14,-4,-34,-34
43,-92,-136,24,90,-114,24,107,14,-4,-39,-43
73,-92,-165,9,119,-129,63,209,48,9,-34,-43
112,-53,-165,-29,139,-109,131,370,151,87,9,-19
156,9,-146,-82,151,-68,219,541,273,161,58,19
190,112,-78,-151,134,17,307,722,400,263,136,82
253,195,-58,-224,156,68,385,888,483,331,195,136
351,326,-24,-339,187,151,424,1029,600,458,322,244
551,561,9,-556,270,285,248,1019,727,644,507,414
795,873,78,-834,358,475,-53,917,839,873,746,653
1000,1342,341,-1171,329,841,-429,614,1054,1205,1088,985
1234,1717,483,-1476,375,1100,-927,92,1229,1532,1439,1312
1346,1864,517,-1605,414,1190,-1259,-312,1390,1825,1708,1546
1293,1937,644,-1615,324,1290,-1405,-585,1512,2030,1883,1698
1259,1893,634,-1576,312,1263,-1498,-732,1493,2074,1917,1717
1176,1781,605,-1478,285,1193,-1625,-858,1351,2015,1878,1683
1005,1649,644,-1327,180,1146,-1586,-966,1215,1932,1810,1625
878,1556,678,-1217,100,1117,-1468,-1078,1117,1869,1766,1571
839,1361,522,-1100,158,941,-1263,-956,1019,1795,1693,1478
785,1054,268,-919,258,661,-976,-668,893,1629,1522,1317
610,736,126,-673,241,431,-683,-434,746,1346,1234,1029
400,458,58,-429,170,258,-439,-283,517,951,849,692
165,283,117,-224,24,200,-239,-185,356,624,531,414
-24,107,131,-41,-78,119,-53,-48,195,283,200,141
-48,4,53,21,-51,29,9,14,73,82,24,4
-53,-34,19,43,-36,-7,34,58,43,39,-14,-29
-48,-39,9,43,-29,-14,48,68,39,19,-24,-29
-48,-43,4,46,-26,-19,53,68,39,14,-29,-29
-58,-48,9,53,-34,-19,58,68,39,14,-29,-29
-63,-48,14,56,-39,-17,68,82,34,14,-29,-34
-63,-53,9,58,-36,-21,68,87,24,9,-39,-39
-63,-53,9,58,-36,-21,68,87,24,14,-39,-39
-63,-48,14,56,-39,-17,73,87,24,14,-39,-39
-68,-48,19,58,-43,-14,73,82,34,14,-34,-39
-68,-48,19,58,-43,-14,78,82,39,14,-29,-39
-68,-53,14,61,-41,-19,82,82,39,9,-29,-39
-68,-53,14,61,-41,-19,82,82,39,4,-29,-43
-68,-48,19,58,-43,-14,82,82,39,4,-29,-43
-68,-48,19,58,-43,-14,82,82,39,9,-24,-39
-68,-48,19,58,-43,-14,82,82,39,9,-24,-39
-68,-43,24,56,-46,-9,82,82,39,9,-24,-39
-73,-43,29,58,-51,-7,82,82,34,14,-24,-34
-73,-43,29,58,-51,-7,82,82,29,14,-24,-34
-73,-43,29,58,-51,-7,87,78,29,9,-24,-34
-78,-39,39,58,-58,0,87,73,34,9,-24,-34
-78,-39,39,58,-58,0,87,73,34,14,-24,-29
-78,-39,39,58,-58,0,87,73,34,14,-24,-29
-78,-39,39,58,-58,0,87,78,34,14,-24,-34
-78,-34,43,56,-61,4,87,78,34,14,-24,-34
-78,-34,43,56,-61,4,87,78,34,14,-24,-34
-82,-34,48,58,-65,7,92,82,29,9,-24,-34
-82,-34,48,58,-65,7,92,82,29,9,-24,-34
-87,-34,53,61,-70,9,92,82,29,9,-24,-34
-87,-34,53,61,-70,9,92,78,24,4,-24,-34
-92,-34,58,63,-75,12,92,78,24,4,-24,-34
-92,-34,58,63,-75,12,92,73,19,4,-29,-39
-97,-34,63,65,-80,14,97,68,19,0,-39,-39
-102,-34,68,68,-85,17,97,63,19,0,-39,-39
-102,-39,63,70,-82,12,97,63,9,-4,-39,-43
-107,-39,68,73,-87,14,97,58,9,-14,-39,-43
-112,-39,73,75,-92,17,97,53,0,-19,-43,-48
-117,-39,78,78,-97,19,97,53,-4,-29,-53,-48
-122,-43,78,82,-100,17,97,53,-4,-34,-53,-53
-131,-48,82,90,-107,17,102,48,-19,-39,-63,-68
-136,-48,87,92,-112,19,102,34,-29,-53,-73,-73
-136,-53,82,95,-109,14,102,29,-39,-63,-82,-78
-151,-58,92,104,-122,17,107,19,-48,-73,-87,-78
-165,-68,97,117,-131,14,107,9,-63,-92,-97,-82
-170,-78,92,124,-131,7,112,-4,-78,-102,-107,-97
-180,-82,97,131,-139,7,117,-14,-87,-122,-117,-107
-190,-92,97,141,-143,2,122,-24,-107,-136,-136,-117
-209,-102,107,156,-158,2,122,-34,-126,-156,-146,-126
-219,-107,112,163,-165,2,122,-53,-146,-185,-165,-146
-239,-117,122,178,-180,2,122,-73,-170,-200,-185,-156
-253,-131,122,192,-187,-4,126,-87,-195,-234,-200,-175
-268,-151,117,209,-192,-17,131,-112,-214,-263,-224,-190
-283,-165,117,224,-200,-24,131,-136,-253,-292,-248,-204
-307,-185,122,246,-214,-31,136,-161,-283,-331,-278,-224
-326,-204,122,265,-224,-41,141,-185,-322,-370,-307,-248
-356,-229,126,292,-241,-51,151,-214,-361,-409,-331,-268
-385,-258,126,322,-256,-65,156,-244,-409,-448,-366,-297
-409,-283,126,346,-268,-78,156,-278,-453,-507,-405,-326
-434,-307,126,370,-280,-90,161,-307,-502,-556,-444,-351
-468,-346,122,407,-295,-112,165,-341,-551,-614,-483,-380
-492,-375,117,434,-305,-129,170,-380,-600,-663,-527,-414
-522,-409,112,466,-317,-148,180,-414,-653,-712,-570,-448
-551,-439,112,495,-331,-163,185,-448,-702,-766,-619,-478
-575,-478,97,527,-336,-190,185,-492,-761,-824,-653,-507
-595,-522,73,558,-334,-224,190,-531,-814,-878,-702,-541
-624,-561,63,592,-344,-248,200,-556,-868,-936,-736,-570
-639,-590,48,614,-344,-270,204,-575,-907,-990,-775,-600
-649,-614,34,631,-341,-290,209,-595,-941,-1029,-810,-629
-658,-649,9,653,-334,-319,214,-610,-971,-1063,-834,-639
-658,-668,-9,663,-324,-339,214,-614,-1000,-1083,-858,-658
-658,-688,-29,673,-314,-358,214,-614,-1015,-1107,-868,-673
-653,-697,-43,675,-305,-370,214,-605,-1015,-1112,-878,-678
-634,-702,-68,668,-283,-385,214,-585,-1015,-1112,-878,-678
-610,-702,-92,656,-258,-397,209,-556,-1000,-1083,-863,-668
-566,-688,-122,627,-222,-405,209,-512,-971,-1054,-839,-649
-536,-673,-136,605,-200,-405,204,-468,-927,-1015,-814,-624
-488,-644,-156,566,-165,-400,200,-409,-878,-971,-775,-595
-439,-605,-165,522,-136,-385,190,-351,-810,-917,-732,-561
-385,-561,-175,473,-104,-368,180,-287,-741,-854,-688,-522
-336,-527,-190,431,-73,-358,170,-229,-678,-780,-629,-483
-287,-473,-185,380,-51,-329,161,-170,-605,-707,-570,-439
-234,-429,-195,331,-19,-312,146,-122,-541,-629,-517,-395
-185,-375,-190,280,2,-283,131,-73,-473,-551,-448,-346
-141,-326,-185,234,21,-256,122,-34,-405,-483,-395,-302
-102,-278,-175,190,36,-226,112,4,-341,-414,-341,-258
-68,-244,-175,156,53,-209,92,29,-283,-351,-292,-219
-39,-209,-170,124,65,-190,82,48,-234,-292,-244,-190
-19,-180,-161,100,70,-170,73,78,-180,-239,-190,-146
0,-146,-146,73,73,-146,58,92,-141,-190,-156,-117
14,-117,-131,51,73,-124,48,102,-102,-151,-122,-92
29,-87,-117,29,73,-102,39,107,-58,-107,-92,-73
39,-68,-107,14,73,-87,34,107,-39,-78,-68,-53
39,-53,-92,7,65,-73,29,112,-14,-48,-53,-34
48,-39,-87,-4,68,-63,19,112,0,-29,-34,-24
53,-29,-82,-12,68,-56,19,112,19,-9,-19,-9
58,-19,-78,-19,68,-48,14,112,29,4,-9,-4
63,-9,-73,-26,68,-41,9,112,39,19,4,4
63,-4,-68,-29,65,-36,9,107,48,29,14,9
63,0,-63,-31,63,-31,9,107,53,39,19,19
63,4,-58,-34,61,-26,4,107,63,53,29,19
58,4,-53,-31,56,-24,4,102,63,53,34,24
58,9,-48,-34,53,-19,4,102,68,48,34,24
53,9,-43,-31,48,-17,0,97,68,48,29,24
53,9,-43,-31,48,-17,-4,87,68,48,29,24
53,9,-43,-31,48,-17,-9,87,63,48,29,24
48,9,-39,-29,43,-14,-4,87,63,48,24,14
43,9,-34,-26,39,-12,-4,82,63,48,24,9
43,9,-34,-26,39,-12,-4,82,63,48,24,9
39,4,-34,-21,36,-14,-4,78,58,39,24,4
39,4,-34,-21,36,-14,-4,78,58,39,24,4
34,0,-34,-17,34,-17,0,73,53,39,24,4
24,0,-24,-12,24,-12,0,68,53,39,24,4
24,-4,-29,-9,26,-17,0,68,53,39,19,9
24,-4,-29,-9,26,-17,0,68,48,29,14,9
24,-4,-29,-9,26,-17,0,68,48,29,14,4
19,-9,-29,-4,24,-19,4,63,48,29,14,0
19,-14,-34,-2,26,-24,14,63,43,24,14,0
14,-14,-29,0,21,-21,14,63,43,24,14,0
14,-14,-29,0,21,-21,14,58,43,24,14,0
14,-9,-24,-2,19,-17,14,58,43,24,14,0
14,-9,-24,-2,19,-17,14,58,43,24,9,-4
14,-14,-29,0,21,-21,14,53,43,19,4,-9
14,-14,-29,0,21,-21,14,48,39,19,4,-14
14,-9,-24,-2,19,-17,9,48,39,19,4,-14
14,-9,-24,-2,19,-17,9,48,39,19,4,-14
14,-9,-24,-2,19,-17,9,53,39,19,4,-9
14,-9,-24,-2,19,-17,9,58,39,24,4,-4
14,-14,-29,0,21,-21,9,58,43,24,4,-4
14,-14,-29,0,21,-21,9,58,43,24,9,0
14,-14,-29,0,21,-21,4,53,43,29,4,-4
19,-14,-34,-2,26,-24,0,48,39,29,0,-9
19,-14,-34,-2,26,-24,0,48,39,29,0,-9
19,-14,-34,-2,26,-24,-4,48,43,29,0,-9
24,-19,-43,-2,34,-31,-4,48,43,29,4,-9
34,-19,-53,-7,43,-36,-4,48,43,24,9,-9
34,-19,-53,-7,43,-36,-4,48,39,24,9,-9
34,-14,-48,-9,41,-31,-4,48,39,29,9,-9
29,-14,-43,-7,36,-29,-4,48,39,29,14,-9
24,-14,-39,-4,31,-26,-4,48,39,34,19,-9
29,-14,-43,-7,36,-29,-4,48,43,34,19,-4
29,-14,-43,-7,36,-29,-9,43,48,34,19,-4
29,-9,-39,-9,34,-24,-9,43,53,34,19,0
29,-9,-39,-9,34,-24,-9,43,53,34,19,4
29,-9,-39,-9,34,-24,-9,43,53,29,19,9
29,-14,-43,-7,36,-29,-9,43,48,24,19,9
34,-14,-48,-9,41,-31,-9,43,48,24,19,0
34,-9,-43,-12,39,-26,-9,39,48,24,19,-4
34,-9,-43,-12,39,-26,-9,39,48,24,19,-4
34,-9,-43,-12,39,-26,-9,39,48,29,19,-4
34,-9,-43,-12,39,-26,-9,43,48,29,24,0
34,-9,-43,-12,39,-26,-14,43,48,34,24,0
34,-9,-43,-12,39,-26,-14,43,48,39,24,0
34,-9,-43,-12,39,-26,-14,43,48,43,19,0
34,-9,-43,-12,39,-26,-14,43,48,39,19,0
34,-9,-43,-12,39,-26,-14,43,48,39,24,0
34,-9,-43,-12,39,-26,-14,39,48,39,24,0
34,-9,-43,-12,39,-26,-14,34,48,39,24,0
39,-9,-48,-14,43,-29,-14,39,48,39,24,0
39,-9,-48,-14,43,-29,-14,39,53,43,24,0
39,-4,-43,-17,41,-24,-14,43,48,43,29,0
39,0,-39,-19,39,-19,-14,43,39,39,29,0
39,0,-39,-19,39,-19,-14,43,39,39,29,0
39,0,-39,-19,39,-19,-14,43,39,39,29,0
39,0,-39,-19,39,-19,-14,43,39,39,29,0
39,0,-39,-19,39,-19,-14,48,43,39,34,0
39,-4,-43,-17,41,-24,-14,48,43,43,34,0
39,-4,-43,-17,41,-24,-14,48,43,43,34,0
39,-4,-43,-17,41,-24,-14,48,43,34,29,0
39,-4,-43,-17,41,-24,-14,48,43,29,24,0
39,0,-39,-19,39,-19,-9,43,43,29,19,0
39,0,-39,-19,39,-19,-9,43,48,29,19,0
39,-4,-43,-17,41,-24,-9,39,48,34,24,0
39,-9,-48,-14,43,-29,-9,39,48,39,29,0
39,-9,-48,-14,43,-29,-9,39,48,39,29,4
39,-9,-48,-14,43,-29,-9,39,48,39,29,9
39,-9,-48,-14,43,-29,-9,43,48,39,29,9
39,-9,-48,-14,43,-29,-9,48,48,39,29,9
39,-9,-48,-14,43,-29,-9,48,48,39,29,9
39,-9,-48,-14,43,-29,-9,48,48,39,29,9
39,-9,-48,-14,43,-29,-9,48,48,39,29,9
39,-9,-48,-14,43,-29,-9,48,48,39,29,9
39,-9,-48,-14,43,-29,-9,43,48,39,29,9
39,-9,-48,-14,43,-29,-9,39,48,39,29,9
39,-9,-48,-14,43,-29,-9,39,43,39,29,4
39,-9,-48,-14,43,-29,-9,39,39,39,29,0
39,-9,-48,-14,43,-29,-9,39,39,39,24,0
39,-9,-48,-14,43,-29,-9,39,39,39,19,0
39,-9,-48,-14,43,-29,-9,39,39,34,19,-4
39,-9,-48,-14,43,-29,-9,39,39,29,19,-9
39,-9,-48,-14,43,-29,-9,43,43,29,19,-9
39,-4,-43,-17,41,-24,-9,43,43,34,19,-4
39,0,-39,-19,39,-19,-9,48,48,39,24,0
39,4,-34,-21,36,-14,-9,53,53,39,29,9
43,14,-29,-29,36,-7,0,58,58,43,34,14
43,24,-19,-34,31,2,9,63,63,53,34,14
48,34,-14,-41,31,9,19,73,73,58,43,24
48,43,-4,-46,26,19,29,82,73,63,48,34
48,48,0,-48,24,24,29,87,78,63,53,34
58,58,0,-58,29,29,29,92,92,73,63,34
73,68,-4,-70,39,31,19,92,102,73,68,39
82,73,-9,-78,46,31,4,82,102,78,68,39
82,82,0,-82,41,41,-19,58,97,82,68,39
87,87,0,-87,43,43,-34,53,92,82,68,43
97,112,14,-104,41,63,-53,48,102,97,82,53
107,122,14,-114,46,68,-53,48,102,97,82,58
117,131,14,-124,51,73,-63,48,102,97,92,63
122,117,-4,-119,63,56,-63,48,92,92,78,63
117,97,-19,-107,68,39,-58,48,82,87,73,48
107,82,-24,-95,65,29,-48,48,82,82,68,43
92,68,-24,-80,58,21,-39,58,82,78,63,34
73,43,-29,-58,51,7,-24,53,68,63,53,24
48,14,-34,-31,41,-9,-14,48,53,48,34,9
39,0,-39,-19,39,-19,-14,39,34,34,24,-4
29,-19,-48,-4,39,-34,-14,29,24,19,9,-9
29,-24,-53,-2,41,-39,-14,29,24,14,9,-4
29,-34,-63,2,46,-48,-14,29,19,9,0,-14
29,-43,-73,7,51,-58,-14,29,14,9,0,-14
24,-43,-68,9,46,-56,-14,29,14,9,0,-14
24,-43,-68,9,46,-56,-14,29,14,9,0,-14
24,-48,-73,12,48,-61,-14,29,14,9,0,-14
24,-53,-78,14,51,-65,-14,24,14,9,0,-19
24,-53,-78,14,51,-65,-14,24,14,9,0,-19
24,-53,-78,14,51,-65,-14,29,14,9,0,-19
24,-53,-78,14,51,-65,-9,34,14,9,-4,-19
24,-58,-82,17,53,-70,-9,34,14,9,-4,-19
29,-68,-97,19,63,-82,0,43,14,0,-14,-24
43,-92,-136,24,90,-114,29,87,14,-4,-14,-34
73,-92,-165,9,119,-129,73,190,39,4,-9,-39
112,-53,-165,-29,139,-109,141,351,131,78,29,-19
156,4,-151,-80,153,-73,234,527,253,151,78,19
195,102,-92,-148,143,4,322,707,380,253,156,82
263,175,-87,-219,175,43,395,868,453,312,204,126
366,297,-68,-331,217,114,414,1000,556,429,317,224
580,522,-58,-551,319,231,214,980,663,600,488,390
839,824,-14,-832,427,405,-102,849,761,810,717,624
1063,1307,244,-1185,409,775,-492,522,990,1137,1049,956
1312,1698,385,-1505,463,1041,-980,29,1171,1459,1381,1273
1439,1854,414,-1647,512,1134,-1322,-351,1322,1761,1659,1503
1395,1932,536,-1664,429,1234,-1488,-619,1444,1976,1854,1659
1356,1883,527,-1620,414,1205,-1576,-751,1429,2015,1888,1678
1273,1771,497,-1522,387,1134,-1698,-863,1298,1956,1849,1644
1093,1644,551,-1368,270,1098,-1644,-985,1176,1878,1786,1590
956,1551,595,-1254,180,1073,-1507,-1107,1088,1815,1737,1537
917,1356,439,-1137,239,897,-1288,-976,990,1737,1659,1444
849,1054,204,-951,322,629,-995,-688,863,1571,1493,1288
649,736,87,-692,280,412,-697,-453,727,1312,1224,1010
429,468,39,-448,195,253,-448,-302,507,941,858,688
180,297,117,-239,31,207,-239,-200,346,614,541,414
-24,117,141,-46,-82,129,-48,-58,195,287,229,151
-48,14,63,17,-56,39,14,9,78,97,63,24
-48,-24,24,36,-36,0,43,58,43,53,19,-9
-43,-34,9,39,-26,-12,58,68,39,34,9,-19
-48,-43,4,46,-26,-19,63,68,39,24,0,-29
-63,-48,14,56,-39,-17,73,68,39,24,0,-29
-73,-48,24,61,-48,-12,87,78,39,24,0,-34
-73,-53,19,63,-46,-17,87,78,34,19,-9,-34
-73,-53,19,63,-46,-17,87,78,34,19,-9,-29
-73,-48,24,61,-48,-12,87,78,34,14,-9,-29
-78,-48,29,63,-53,-9,82,78,39,14,-9,-29
-73,-43,29,58,-51,-7,87,82,43,14,-9,-29
-68,-43,24,56,-46,-9,92,82,48,14,-9,-29
-68,-43,24,56,-46,-9,92,82,48,14,-9,-34
-68,-39,29,53,-48,-4,92,82,48,14,-9,-34
-68,-39,29,53,-48,-4,92,82,43,19,-4,-29
-68,-39,29,53,-48,-4,92,82,39,19,-4,-29
-68,-39,29,53,-48,-4,92,82,39,19,-4,-29
-73,-43,29,58,-51,-7,92,82,39,24,-4,-24
-73,-43,29,58,-51,-7,92,87,39,24,-4,-24
-73,-43,29,58,-51,-7,97,92,39,19,-4,-24
-78,-34,43,56,-61,4,102,92,43,19,-4,-29
-78,-29,48,53,-63,9,107,92,43,24,-4,-29
-78,-29,48,53,-63,9,107,87,43,24,-4,-29
-78,-29,48,53,-63,9,107,82,43,24,-4,-34
-78,-29,48,53,-63,9,107,78,43,19,-4,-34
-78,-34,43,56,-61,4,107,78,43,14,-4,-34
-82,-34,48,58,-65,7,112,87,39,9,-4,-39
-82,-34,48,58,-65,7,112,92,39,9,-4,-43
-87,-34,53,61,-70,9,112,92,39,9,-4,-43
-87,-34,53,61,-70,9,112,87,34,4,-4,-43
-92,-34,58,63,-75,12,112,87,39,4,-4,-34
-92,-34,58,63,-75,12,112,87,39,4,-4,-29
-97,-34,63,65,-80,14,117,82,39,4,-9,-29
-102,-34,68,68,-85,17,117,73,39,9,-9,-29
-107,-39,68,73,-87,14,117,73,29,4,-9,-39
-117,-39,78,78,-97,19,117,68,29,-4,-14,-43
-122,-39,82,80,-102,21,117,68,14,-9,-24,-48
-126,-39,87,82,-107,24,117,68,4,-19,-34,-48
-131,-43,87,87,-109,21,117,63,4,-24,-34,-53
-141,-48,92,95,-117,21,122,58,-9,-29,-43,-68
-141,-48,92,95,-117,21,122,48,-14,-43,-53,-68
-136,-53,82,95,-109,14,122,48,-19,-53,-63,-68
-151,-58,92,104,-122,17,126,39,-29,-63,-68,-68
-165,-68,97,117,-131,14,126,34,-43,-82,-78,-73
-170,-78,92,124,-131,7,131,19,-58,-92,-87,-87
-180,-82,97,131,-139,7,136,4,-68,-112,-97,-97
-190,-87,102,139,-146,7,141,-4,-87,-126,-117,-107
-209,-92,117,151,-163,12,141,-14,-107,-146,-126,-117
-219,-97,122,158,-170,12,141,-34,-126,-170,-146,-136
-239,-107,131,173,-185,12,146,-53,-151,-180,-165,-146
-253,-126,126,190,-190,0,156,-68,-175,-214,-180,-165
-268,-151,117,209,-192,-17,161,-87,-195,-244,-204,-180
-283,-165,117,224,-200,-24,161,-102,-229,-268,-224,-195
-307,-185,122,246,-214,-31,165,-122,-253,-302,-248,-214
-326,-195,131,261,-229,-31,175,-146,-292,-341,-278,-239
-356,-209,146,283,-251,-31,190,-175,-326,-380,-302,-258
-390,-248,141,319,-265,-53,195,-204,-370,-419,-341,-292
-419,-283,136,351,-278,-73,200,-239,-414,-473,-385,-326
-444,-307,136,375,-290,-85,209,-268,-463,-517,-424,-351
-478,-346,131,412,-305,-107,214,-302,-512,-575,-463,-380
-502,-375,126,439,-314,-124,219,-336,-561,-634,-507,-414
-531,-409,122,470,-326,-143,229,-366,-614,-697,-551,-448
-566,-434,131,500,-348,-151,239,-400,-658,-746,-600,-478
-595,-463,131,529,-363,-165,244,-434,-707,-795,-634,-507
-614,-502,112,558,-363,-195,253,-463,-756,-849,-683,-541
-644,-541,102,592,-373,-219,263,-488,-810,-902,-717,-570
-658,-575,82,617,-370,-246,263,-507,-849,-951,-756,-595
-668,-605,63,636,-366,-270,268,-527,-883,-990,-790,-619
-678,-639,39,658,-358,-300,268,-541,-912,-1029,-814,-629
-678,-658,19,668,-348,-319,263,-546,-946,-1054,-839,-649
-678,-678,0,678,-339,-339,263,-546,-966,-1078,-849,-663
-673,-688,-14,680,-329,-351,263,-536,-966,-1083,-858,-668
-653,-697,-43,675,-305,-370,263,-517,-966,-1088,-863,-673
-629,-702,-73,666,-278,-387,258,-488,-951,-1068,-854,-668
-585,-688,-102,636,-241,-395,253,-444,-932,-1049,-834,-653
-556,-673,-117,614,-219,-395,244,-400,-897,-1015,-814,-634
-507,-644,-136,575,-185,-390,239,-346,-849,-971,-775,-605
-458,-610,-151,534,-153,-380,229,-292,-785,-912,-727,-570
-400,-570,-170,485,-114,-370,219,-229,-727,-849,-678,-531
-346,-536,-190,441,-78,-363,209,-175,-668,-780,-619,-492
-292,-483,-190,387,-51,-336,200,-122,-595,-707,-561,-448
-234,-439,-204,336,-14,-322,180,-73,-531,-639,-507,-400
-185,-385,-200,285,7,-292,161,-24,-463,-561,-439,-346
-141,-336,-195,239,26,-265,146,9,-400,-483,-385,-302
-102,-287,-185,195,41,-236,131,39,-341,-414,-331,-258
-68,-248,-180,158,56,-214,112,58,-283,-351,-283,-219
-39,-209,-170,124,65,-190,102,78,-234,-292,-234,-190
-19,-180,-161,100,70,-170,92,97,-180,-239,-185,-151
4,-146,-151,70,78,-148,73,102,-141,-190,-156,-126
24,-117,-141,46,82,-129,58,112,-107,-151,-122,-102
39,-92,-131,26,85,-112,48,117,-68,-107,-92,-82
48,-78,-126,14,87,-102,43,117,-48,-82,-68,-63
48,-63,-112,7,80,-87,39,122,-24,-58,-53,-43
58,-48,-107,-4,82,-78,29,122,-9,-39,-34,-34
63,-34,-97,-14,80,-65,29,117,9,-14,-14,-19
68,-19,-87,-24,78,-53,24,112,19,0,-4,-14
73,-9,-82,-31,78,-46,14,112,29,9,4,-4
73,-4,-78,-34,75,-41,9,107,39,19,14,0
73,0,-73,-36,73,-36,9,107,43,29,19,14
73,4,-68,-39,70,-31,4,107,53,43,29,19
68,9,-58,-39,63,-24,4,107,53,43,34,24
68,19,-48,-43,58,-14,4,112,58,43,39,24
68,19,-48,-43,58,-14,0,107,58,48,39,19
73,19,-53,-46,63,-17,0,97,58,48,39,14
73,19,-53,-46,63,-17,0,97,58,48,39,14
68,19,-48,-43,58,-14,4,97,63,48,34,9
63,14,-48,-39,56,-17,4,92,63,43,29,9
63,9,-53,-36,58,-21,4,92,63,39,24,9
53,4,-48,-29,51,-21,4,87,53,29,24,9
48,4,-43,-26,46,-19,4,87,48,29,19,14
43,4,-39,-24,41,-17,9,82,43,29,14,14
34,9,-24,-21,29,-7,9,78,43,29,14,9
39,4,-34,-21,36,-14,9,78,43,29,9,4
43,4,-39,-24,41,-17,9,78,39,19,4,0
43,4,-39,-24,41,-17,9,78,39,19,4,-4
39,0,-39,-19,39,-19,9,73,39,19,4,-9
34,-4,-39,-14,36,-21,14,73,34,14,4,-9
24,-4,-29,-9,26,-17,14,73,34,14,4,-9
24,-9,-34,-7,29,-21,14,68,34,14,4,-4
24,-9,-34,-7,29,-21,14,68,34,14,4,0
24,-9,-34,-7,29,-21,19,68,34,14,0,-4
24,-14,-39,-4,31,-26,24,68,34,9,-4,-4
24,-14,-39,-4,31,-26,24,68,24,9,-4,-9
24,-14,-39,-4,31,-26,19,68,19,9,-4,-14
24,-19,-43,-2,34,-31,14,68,19,9,-4,-14
24,-19,-43,-2,34,-31,9,68,19,9,-4,-14
19,-19,-39,0,29,-29,9,68,19,9,-9,-14
14,-19,-34,2,24,-26,9,68,24,4,-14,-14
14,-19,-34,2,24,-26,9,68,24,4,-9,-14
14,-24,-39,4,26,-31,9,68,24,9,-9,-19
19,-24,-43,2,31,-34,9,68,19,9,-9,-19
19,-24,-43,2,31,-34,9,68,19,9,-9,-19
24,-19,-43,-2,34,-31,4,68,24,14,-9,-14
29,-19,-48,-4,39,-34,4,68,24,19,-9,-9
34,-19,-53,-7,43,-36,4,68,24,14,-9,-9
34,-19,-53,-7,43,-36,4,68,24,14,-9,-9
34,-14,-48,-9,41,-31,4,68,29,14,-9,-9
34,-14,-48,-9,41,-31,4,68,29,9,-4,-9
34,-14,-48,-9,41,-31,4,68,29,9,0,-14
39,-14,-53,-12,46,-34,4,68,29,4,0,-14
39,-14,-53,-12,46,-34,-4,63,24,4,0,-14
39,-9,-48,-14,43,-29,-9,63,24,4,0,-14
39,-9,-48,-14,43,-29,-9,63,24,4,0,-14
39,-9,-48,-14,43,-29,-9,63,24,4,0,-9
39,-19,-58,-9,48,-39,-9,63,24,9,0,-9
43,-24,-68,-9,56,-46,-9,68,29,14,0,-14
43,-19,-63,-12,53,-41,-9,68,29,14,0,-14
43,-19,-63,-12,53,-41,-9,68,29,14,0,-14
43,-19,-63,-12,53,-41,-4,68,29,19,0,-14
43,-19,-63,-12,53,-41,0,68,29,19,4,-9
43,-19,-63,-12,53,-41,-4,63,29,24,4,-4
43,-19,-63,-12,53,-41,-4,63,29,24,4,0
43,-19,-63,-12,53,-41,-4,63,29,24,0,0
43,-19,-63,-12,53,-41,-4,63,29,19,0,0
43,-19,-63,-12,53,-41,-4,63,29,19,4,0
43,-19,-63,-12,53,-41,-4,63,29,19,4,0
39,-19,-58,-9,48,-39,-4,63,29,19,0,0
39,-19,-58,-9,48,-39,-4,68,29,19,-4,0
39,-19,-58,-9,48,-39,-4,68,34,24,-4,-4
39,-19,-58,-9,48,-39,-4,68,34,24,-4,-9
39,-19,-58,-9,48,-39,-4,63,29,19,-4,-9
39,-19,-58,-9,48,-39,-4,63,29,19,0,-9
39,-19,-58,-9,48,-39,-4,63,29,19,0,-4
39,-19,-58,-9,48,-39,-4,63,29,19,0,0
43,-19,-63,-12,53,-41,-4,68,34,19,4,0
48,-24,-73,-12,61,-48,-4,68,34,24,4,0
48,-24,-73,-12,61,-48,-4,68,34,24,4,0
48,-24,-73,-12,61,-48,-4,68,34,19,4,0
48,-24,-73,-12,61,-48,-4,68,34,19,4,4
48,-24,-73,-12,61,-48,-4,68,29,24,4,9
48,-19,-68,-14,58,-43,0,68,29,19,0,4
48,-19,-68,-14,58,-43,0,68,29,19,0,0
43,-19,-63,-12,53,-41,0,68,29,19,0,0
39,-19,-58,-9,48,-39,0,68,29,19,0,0
39,-19,-58,-9,48,-39,0,68,29,19,0,0
39,-19,-58,-9,48,-39,0,68,29,19,0,0
43,-19,-63,-12,53,-41,0,68,29,24,0,0
48,-19,-68,-14,58,-43,0,68,29,29,0,0
48,-19,-68,-14,58,-43,0,68,29,29,0,-4
48,-19,-68,-14,58,-43,0,68,29,29,0,-9
48,-19,-68,-14,58,-43,0,68,29,24,0,-9
48,-19,-68,-14,58,-43,0,68,29,19,0,-9
48,-19,-68,-14,58,-43,0,68,29,19,0,-9
48,-19,-68,-14,58,-43,0,68,29,19,0,-9
48,-19,-68,-14,58,-43,0,68,29,19,0,-9
48,-19,-68,-14,58,-43,0,68,29,14,0,-4
53,-19,-73,-17,63,-46,-4,68,29,14,0,-4
58,-9,-68,-24,63,-39,-9,68,29,19,4,-4
58,-4,-63,-26,61,-34,-9,73,34,19,9,0
63,4,-58,-34,61,-26,0,78,43,24,14,4
58,14,-43,-36,51,-14,9,82,53,34,9,4
58,24,-34,-41,46,-4,19,92,63,39,14,14
58,34,-24,-46,41,4,29,97,63,43,19,24
58,39,-19,-48,39,9,29,97,63,43,19,24
63,48,-14,-56,39,17,29,102,73,53,24,24
68,58,-9,-63,39,24,19,102,82,53,29,29
73,68,-4,-70,39,31,4,92,82,63,39,34
73,82,9,-78,31,46,-19,68,82,73,53,43
82,87,4,-85,39,46,-34,63,82,73,58,53
97,112,14,-104,41,63,-53,58,92,87,73,63
107,117,9,-112,48,63,-53,63,92,87,68,63
117,122,4,-119,56,63,-63,68,92,87,73,63
122,107,-14,-114,68,46,-63,68,82,82,58,63
122,87,-34,-104,78,26,-58,68,73,78,53,48
117,68,-48,-92,82,9,-43,68,68,68,43,43
102,48,-53,-75,78,-2,-29,82,63,58,34,34
82,24,-58,-53,70,-17,-14,82,48,43,24,24
58,-4,-63,-26,61,-34,-4,78,34,29,4,9
48,-19,-68,-14,58,-43,-4,68,14,19,-4,-4
39,-39,-78,0,58,-58,-4,58,4,9,-19,-14
39,-43,-82,2,61,-63,-4,58,9,4,-19,-14
39,-53,-92,7,65,-73,-4,58,9,0,-29,-24
39,-63,-102,12,70,-82,-4,58,4,-4,-24,-24
34,-63,-97,14,65,-80,-4,58,4,-9,-19,-24
29,-63,-92,17,61,-78,-4,63,4,-9,-19,-24
24,-63,-87,19,56,-75,-4,68,4,-9,-19,-24
24,-58,-82,17,53,-70,-4,63,4,-9,-24,-29
24,-53,-78,14,51,-65,-4,63,4,-9,-29,-29
29,-53,-82,12,56,-68,-4,58,4,-9,-29,-29
34,-53,-87,9,61,-70,0,53,4,-9,-34,-29
34,-58,-92,12,63,-75,0,68,4,-9,-34,-29
39,-68,-107,14,73,-87,9,97,4,-14,-43,-34
58,-87,-146,14,102,-117,39,156,19,-4,-39,-43
92,-82,-175,-4,134,-129,82,268,68,19,-24,-43
131,-34,-165,-48,148,-100,151,429,180,107,29,-14
175,39,-136,-107,156,-48,239,600,312,190,87,29
224,156,-68,-190,146,43,312,771,444,302,175,112
302,253,-48,-278,175,102,375,927,531,380,244,185
405,414,9,-409,197,212,375,1039,663,531,400,322
610,678,68,-644,270,373,161,1000,805,741,614,522
854,990,136,-922,358,563,-161,834,927,976,863,771
1058,1459,400,-1259,329,929,-556,468,1151,1312,1215,1112
1254,1795,541,-1525,356,1168,-1005,-14,1302,1634,1542,1405
1327,1903,575,-1615,375,1239,-1288,-380,1439,1922,1786,1605
1268,1942,673,-1605,297,1307,-1415,-634,1522,2088,1932,1732
1229,1864,634,-1546,297,1249,-1488,-761,1464,2093,1937,1727
1146,1751,605,-1449,270,1178,-1590,-878,1322,2025,1888,1678
976,1620,644,-1298,165,1132,-1527,-976,1185,1932,1810,1605
849,1507,658,-1178,95,1083,-1400,-1044,1088,1854,1747,1542
810,1293,483,-1051,163,888,-1185,-878,990,1766,1654,1439
732,976,244,-854,244,610,-897,-600,839,1561,1454,1254
531,649,117,-590,207,383,-605,-375,668,1239,1137,941
341,395,53,-368,143,224,-370,-224,453,854,751,610
126,244,117,-185,4,180,-180,-126,307,536,434,336
-34,82,117,-24,-75,100,-19,-4,161,224,141,97
-29,-4,24,17,-26,9,19,43,53,53,4,-4
-39,-39,0,39,-19,-19,43,82,29,24,-24,-39
-39,-39,0,39,-19,-19,58,87,29,19,-24,-39
-39,-43,-4,41,-17,-24,63,87,29,14,-29,-39
-48,-48,0,48,-24,-24,68,87,29,14,-29,-39
-53,-48,4,51,-29,-21,73,97,29,14,-29,-43
-53,-53,0,53,-26,-26,68,97,24,9,-39,-48
-53,-53,0,53,-26,-26,68,97,24,9,-39,-48
-53,-48,4,51,-29,-21,73,97,24,4,-39,-48
-58,-48,9,53,-34,-19,73,97,29,4,-39,-48
-58,-48,9,53,-34,-19,78,102,29,4,-39,-48
-58,-53,4,56,-31,-24,82,102,29,4,-39,-43
-58,-53,4,56,-31,-24,82,102,29,4,-39,-43
-58,-48,9,53,-34,-19,82,102,29,4,-39,-43
-58,-48,9,53,-34,-19,82,102,29,9,-34,-39
-58,-48,9,53,-34,-19,82,102,29,9,-34,-39
-58,-43,14,51,-36,-14,82,102,29,9,-34,-39
-63,-43,19,53,-41,-12,82,97,29,14,-34,-34
-63,-43,19,53,-41,-12,82,92,29,14,-34,-34
-58,-48,9,53,-34,-19,87,92,29,9,-34,-34
-58,-48,9,53,-34,-19,87,92,34,9,-34,-34
-58,-48,9,53,-34,-19,87,97,34,14,-34,-29
-58,-48,9,53,-34,-19,87,102,34,14,-34,-29
-58,-48,9,53,-34,-19,87,102,34,14,-34,-34
-58,-43,14,51,-36,-14,87,97,34,14,-34,-34
-58,-43,14,51,-36,-14,87,97,34,14,-34,-34
-63,-43,19,53,-41,-12,92,102,29,9,-34,-34
-63,-43,19,53,-41,-12,92,97,29,9,-34,-34
-68,-43,24,56,-46,-9,92,92,29,9,-34,-34
-68,-43,24,56,-46,-9,92,87,24,4,-34,-34
-73,-43,29,58,-51,-7,92,87,24,4,-34,-34
-73,-43,29,58,-51,-7,92,87,19,4,-34,-39
-78,-43,34,61,-56,-4,97,87,19,0,-39,-39
-87,-43,43,65,-65,0,97,82,19,0,-39,-39
-92,-48,43,70,-68,-2,97,82,9,-4,-39,-43
-97,-48,48,73,-73,0,97,78,9,-14,-43,-43
-102,-48,53,75,-78,2,97,73,0,-19,-53,-48
-107,-48,58,78,-82,4,97,68,-4,-29,-63,-48
-112,-53,58,82,-85,2,97,63,-4,-34,-63,-53
-122,-58,63,90,-92,2,102,63,-19,-39,-73,-68
-126,-58,68,92,-97,4,102,53,-29,-53,-82,-73
-122,-63,58,92,-90,-2,102,48,-39,-63,-92,-78
-131,-68,63,100,-97,-2,107,39,-48,-73,-97,-78
-146,-73,73,109,-109,0,107,34,-63,-92,-107,-82
-151,-78,73,114,-112,-2,112,24,-78,-102,-117,-97
-161,-82,78,122,-119,-2,117,14,-87,-122,-126,-107
-170,-92,78,131,-124,-7,122,4,-107,-136,-146,-117
-195,-107,87,151,-141,-9,122,-4,-126,-156,-156,-126
-209,-117,92,163,-151,-12,122,-24,-146,-185,-175,-146
-229,-126,102,178,-165,-12,122,-48,-170,-200,-195,-156
-244,-141,102,192,-173,-19,126,-68,-195,-234,-209,-175
-258,-161,97,209,-178,-31,131,-87,-224,-268,-239,-190
-273,-175,97,224,-185,-39,131,-107,-273,-302,-268,-204
-297,-195,102,246,-200,-46,136,-136,-302,-346,-302,-229
-317,-214,102,265,-209,-56,141,-165,-341,-390,-336,-258
-346,-239,107,292,-226,-65,151,-195,-380,-429,-361,-278
-375,-268,107,322,-241,-80,156,-224,-429,-468,-395,-307
-395,-292,102,344,-248,-95,161,-258,-473,-527,-434,-341
-414,-317,97,366,-256,-109,170,-287,-522,-575,-473,-370
-448,-361,87,405,-268,-136,175,-322,-575,-634,-512,-400
-473,-395,78,434,-275,-158,180,-361,-629,-683,-556,-434
-507,-429,78,468,-292,-175,190,-395,-683,-736,-600,-468
-541,-458,82,500,-312,-187,195,-429,-732,-795,-649,-497
-566,-492,73,529,-319,-209,195,-468,-785,-854,-688,-527
-585,-531,53,558,-319,-239,200,-502,-834,-907,-741,-561
-614,-575,39,595,-326,-268,204,-527,-888,-961,-775,-590
-629,-610,19,619,-324,-295,204,-546,-927,-1010,-814,-619
-639,-634,4,636,-322,-314,209,-566,-961,-1054,-849,-653
-649,-668,-19,658,-314,-344,214,-580,-990,-1093,-873,-668
-644,-683,-39,663,-302,-361,219,-580,-1019,-1112,-897,-688
-639,-697,-58,668,-290,-378,224,-575,-1034,-1137,-907,-702
-634,-707,-73,671,-280,-390,224,-566,-1034,-1141,-917,-702
-614,-712,-97,663,-258,-405,224,-546,-1034,-1141,-917,-697
-590,-707,-117,649,-236,-412,214,-517,-1010,-1107,-893,-688
-546,-688,-141,617,-202,-414,209,-473,-971,-1073,-858,-668
-517,-673,-156,595,-180,-414,204,-429,-927,-1029,-829,-639
-468,-644,-175,556,-146,-409,200,-370,-878,-980,-785,-605
-419,-610,-190,514,-114,-400,190,-312,-810,-922,-736,-566
-366,-570,-204,468,-80,-387,180,-248,-741,-854,-688,-522
-317,-536,-219,427,-48,-378,170,-190,-678,-780,-629,-483
-268,-483,-214,375,-26,-348,161,-131,-605,-707,-570,-439
-214,-439,-224,326,4,-331,151,-82,-536,-629,-512,-395
-165,-385,-219,275,26,-302,141,-34,-463,-551,-439,-346
-122,-336,-214,229,46,-275,126,0,-395,-483,-385,-302
-82,-287,-204,185,61,-246,112,34,-331,-414,-331,-258
-48,-248,-200,148,75,-224,92,58,-273,-351,-283,-219
-19,-209,-190,114,85,-200,82,78,-224,-292,-234,-190
0,-180,-180,90,90,-180,73,97,-170,-239,-185,-151
19,-146,-165,63,92,-156,58,102,-131,-190,-156,-126
34,-117,-151,41,92,-134,48,117,-97,-151,-122,-102
48,-87,-136,19,92,-112,39,126,-58,-107,-92,-82
58,-63,-122,2,90,-92,34,126,-39,-82,-68,-63
58,-43,-102,-7,80,-73,29,131,-14,-58,-53,-43
68,-29,-97,-19,82,-63,19,126,0,-34,-34,-34
73,-19,-92,-26,82,-56,19,122,19,-9,-19,-19
78,-9,-87,-34,82,-48,14,122,29,0,-14,-14
82,0,-82,-41,82,-41,9,122,39,9,-4,-4
78,4,-73,-41,75,-34,9,122,48,19,4,0
73,9,-63,-41,68,-26,9,126,53,29,9,9
73,14,-58,-43,65,-21,4,126,63,43,19,9
68,14,-53,-41,61,-19,4,122,63,43,24,14
68,14,-53,-41,61,-19,4,122,68,43,29,14
63,9,-53,-36,58,-21,0,117,68,48,29,14
63,9,-53,-36,58,-21,0,107,73,48,29,14
63,9,-53,-36,58,-21,0,107,73,48,29,14
58,9,-48,-34,53,-19,4,107,73,48,24,9
53,9,-43,-31,48,-17,4,102,73,48,24,9
53,9,-43,-31,48,-17,4,102,73,48,24,9
48,4,-43,-26,46,-19,4,97,68,39,24,4
48,4,-43,-26,46,-19,4,97,68,39,19,4
43,0,-43,-21,43,-21,9,92,63,39,14,4
39,0,-39,-19,39,-19,9,87,63,39,14,0
43,-4,-48,-19,46,-26,9,87,63,39,9,0
43,-4,-48,-19,46,-26,4,87,58,29,4,0
43,-4,-48,-19,46,-26,0,87,58,29,4,-4
39,-9,-48,-14,43,-29,0,82,58,29,4,-4
39,-14,-53,-12,46,-34,4,82,53,24,4,0
34,-14,-48,-9,41,-31,4,82,53,24,4,0
34,-14,-48,-9,41,-31,4,78,53,24,4,0
34,-9,-43,-12,39,-26,4,73,53,24,4,0
34,-9,-43,-12,39,-26,4,68,53,24,0,-4
34,-14,-48,-9,41,-31,4,68,53,19,-4,-4
34,-14,-48,-9,41,-31,4,68,48,19,-4,-4
34,-9,-43,-12,39,-26,0,73,48,19,0,-4
34,-9,-43,-12,39,-26,0,78,48,19,4,-4
34,-9,-43,-12,39,-26,0,78,48,19,4,-4
34,-9,-43,-12,39,-26,0,78,48,24,4,-4
34,-14,-48,-9,41,-31,0,78,53,24,4,-9
34,-14,-48,-9,41,-31,0,78,53,24,9,-9
34,-14,-48,-9,41,-31,0,78,53,29,9,-9
39,-14,-53,-12,46,-34,0,78,48,29,9,-9
39,-9,-48,-14,43,-29,0,78,48,34,9,-4
39,-4,-43,-17,41,-24,-4,78,53,39,9,0
39,-9,-48,-14,43,-29,0,78,53,39,9,0
43,-9,-53,-17,48,-31,4,78,53,34,9,0
39,-9,-48,-14,43,-29,4,78,53,34,9,0
34,-4,-39,-14,36,-21,4,78,58,39,9,0
34,-4,-39,-14,36,-21,4,78,58,39,14,0
34,-4,-39,-14,36,-21,4,78,58,43,19,0
43,-4,-48,-19,46,-26,4,78,58,43,19,4
48,-4,-53,-21,51,-29,0,73,58,43,19,4
48,0,-48,-24,48,-24,0,73,63,43,19,4
48,0,-48,-24,48,-24,0,73,63,43,19,4
48,0,-48,-24,48,-24,0,73,63,43,19,9
48,-4,-53,-21,51,-29,0,73,58,43,19,9
53,-9,-63,-21,58,-36,0,78,58,43,24,4
53,-9,-63,-21,58,-36,0,78,58,43,29,4
53,-9,-63,-21,58,-36,0,82,58,43,29,4
53,-9,-63,-21,58,-36,0,87,58,48,29,4
53,-9,-63,-21,58,-36,0,87,58,48,34,9
53,-9,-63,-21,58,-36,-4,82,58,53,34,9
53,-9,-63,-21,58,-36,-4,82,63,53,34,9
53,-9,-63,-21,58,-36,-4,82,68,53,29,9
53,-9,-63,-21,58,-36,-4,82,68,48,24,9
53,-9,-63,-21,58,-36,-4,82,68,48,24,9
53,-9,-63,-21,58,-36,-4,82,68,48,24,9
53,-9,-63,-21,58,-36,-4,82,68,48,24,9
58,-4,-63,-26,61,-34,-4,87,68,48,29,9
58,0,-58,-29,58,-29,-4,87,73,53,34,9
58,0,-58,-29,58,-29,-4,87,73,53,34,9
58,0,-58,-29,58,-29,-4,82,68,48,29,9
58,0,-58,-29,58,-29,-4,82,68,48,29,9
58,0,-58,-29,58,-29,-4,82,68,48,29,9
58,0,-58,-29,58,-29,-4,82,63,48,24,9
58,0,-58,-29,58,-29,-4,87,63,48,24,9
58,-4,-63,-26,61,-34,-4,82,63,53,24,9
58,-4,-63,-26,61,-34,-4,78,63,53,24,9
58,-4,-63,-26,61,-34,-4,78,68,48,29,9
58,-4,-63,-26,61,-34,-4,78,73,48,34,9
58,-4,-63,-26,61,-34,-4,78,68,48,29,9
58,-9,-68,-24,63,-39,-9,82,68,48,29,9
58,-14,-73,-21,65,-43,-9,78,68,48,29,9
58,-19,-78,-19,68,-48,-9,78,68,48,29,9
58,-14,-73,-21,65,-43,-9,78,63,48,29,9
58,-9,-68,-24,63,-39,-9,78,58,48,29,9
58,-9,-68,-24,63,-39,-9,78,58,48,29,9
58,-9,-68,-24,63,-39,-9,78,58,48,29,9
58,-9,-68,-24,63,-39,-9,78,58,48,29,9
58,-9,-68,-24,63,-39,-9,78,58,48,29,9
58,-9,-68,-24,63,-39,-9,78,58,48,29,9
58,-9,-68,-24,63,-39,-9,78,58,48,29,9
58,-9,-68,-24,63,-39,-9,78,58,48,29,4
58,-9,-68,-24,63,-39,-9,78,58,48,29,0
58,-9,-68,-24,63,-39,-14,82,58,48,29,0
58,-9,-68,-24,63,-39,-19,87,58,48,29,0
58,-9,-68,-24,63,-39,-19,87,58,48,29,0
58,-9,-68,-24,63,-39,-19,87,58,48,29,0
58,-9,-68,-24,63,-39,-14,82,58,48,24,0
58,-9,-68,-24,63,-39,-9,78,58,48,19,0
58,-9,-68,-24,63,-39,-9,78,58,48,19,0
58,-9,-68,-24,63,-39,-9,78,58,43,19,0
58,-9,-68,-24,63,-39,-14,82,58,43,24,4
58,0,-58,-29,58,-29,-19,87,58,48,34,4
58,4,-53,-31,56,-24,-19,92,63,48,39,9
63,14,-48,-39,56,-17,-9,97,73,53,43,14
63,24,-39,-43,51,-7,0,102,82,63,43,14
68,34,-34,-51,51,0,9,112,92,68,53,24
68,43,-24,-56,46,9,24,122,92,73,58,34
68,48,-19,-58,43,14,29,126,92,73,58,34
78,58,-19,-68,48,19,29,131,102,87,63,34
87,68,-19,-78,53,24,19,131,112,92,68,39
92,73,-19,-82,56,26,4,126,112,97,68,43
92,82,-9,-87,51,36,-19,107,112,102,73,53
97,78,-19,-87,58,29,-34,102,112,102,78,63
107,92,-14,-100,61,39,-53,97,122,117,92,73
117,102,-14,-109,65,43,-53,92,126,117,92,78
126,112,-14,-119,70,48,-63,87,131,117,102,82
131,107,-24,-119,78,41,-63,87,122,112,87,82
131,97,-34,-114,82,31,-58,87,112,107,82,68
126,82,-43,-104,85,19,-48,87,112,102,78,63
112,68,-43,-90,78,12,-39,102,112,97,73,53
92,43,-48,-68,70,-2,-24,102,97,82,63,43
68,14,-53,-41,61,-19,-14,97,82,68,43,29
58,0,-58,-29,58,-29,-14,87,63,53,34,9
48,-19,-68,-14,58,-43,-14,78,53,39,19,-4
48,-24,-73,-12,61,-48,-14,78,53,34,24,-4
48,-34,-82,-7,65,-58,-14,78,48,29,19,-14
48,-43,-92,-2,70,-68,-14,78,43,29,19,-14
43,-43,-87,0,65,-65,-14,78,43,29,19,-14
43,-43,-87,0,65,-65,-14,82,43,29,19,-9
43,-43,-87,0,65,-65,-14,87,43,29,19,-4
43,-48,-92,2,68,-70,-14,82,43,29,19,-9
43,-53,-97,4,70,-75,-14,82,43,29,19,-9
43,-53,-97,4,70,-75,-14,82,43,29,19,-9
43,-53,-97,4,70,-75,-9,82,43,29,14,-9
43,-58,-102,7,73,-80,-14,73,43,29,14,-9
48,-68,-117,9,82,-92,-9,78,43,24,4,-14
63,-92,-156,14,109,-124,14,126,34,19,0,-29
92,-92,-185,0,139,-139,53,229,58,29,4,-34
131,-53,-185,-39,158,-119,122,390,156,107,43,-9
175,9,-165,-92,170,-78,209,561,273,180,87,29
209,107,-102,-158,156,2,302,741,400,273,165,82
273,185,-87,-229,180,48,385,907,483,331,224,126
370,297,-73,-334,222,112,424,1049,585,444,326,219
570,512,-58,-541,314,226,248,1039,697,614,488,375
819,814,-4,-817,412,405,-63,927,795,819,712,605
1029,1273,244,-1151,392,758,-448,614,995,1127,1039,927
1293,1668,375,-1481,458,1022,-956,117,1161,1449,1381,1244
1434,1834,400,-1634,517,1117,-1298,-263,1312,1737,1639,1468
1385,1917,531,-1651,427,1224,-1464,-541,1454,1966,1844,1644
1356,1883,527,-1620,414,1205,-1576,-692,1454,2034,1908,1688
1273,1781,507,-1527,383,1144,-1698,-814,1327,1986,1873,1654
1102,1659,556,-1381,273,1107,-1654,-917,1205,1912,1810,1595
976,1571,595,-1273,190,1083,-1527,-1039,1122,1859,1766,1551
936,1381,444,-1159,246,912,-1312,-927,1039,1795,1693,1468
868,1078,209,-973,329,644,-1015,-639,922,1644,1542,1327
678,766,87,-722,295,427,-712,-405,785,1376,1273,1058
468,497,29,-483,219,263,-463,-253,556,1000,907,727
234,331,97,-283,68,214,-258,-156,395,692,610,453
19,141,122,-80,-51,131,-68,-9,239,336,268,175
-29,24,53,2,-41,39,0,63,122,122,82,34
-29,-14,14,21,-21,0,24,107,87,82,43,-4
-19,-19,0,19,-9,-9,39,117,78,68,34,-9
-19,-24,-4,21,-7,-14,48,117,78,63,29,-9
-29,-29,0,29,-14,-14,58,117,78,63,29,-9
-34,-29,4,31,-19,-12,68,131,78,63,29,-14
-34,-34,0,34,-17,-17,68,136,73,58,19,-19
-34,-39,-4,36,-14,-21,68,136,73,58,19,-19
-34,-39,-4,36,-14,-21,73,136,73,53,19,-19
-43,-39,4,41,-24,-17,73,136,78,53,19,-19
-48,-39,9,43,-29,-14,78,141,78,53,19,-19
-48,-39,9,43,-29,-14,82,141,78,53,19,-14
-48,-34,14,41,-31,-9,82,141,78,53,19,-14
-48,-29,19,39,-34,-4,82,141,78,53,19,-14
-48,-29,19,39,-34,-4,82,141,78,58,24,-9
-48,-29,19,39,-34,-4,82,141,78,53,24,-9
-48,-24,24,36,-36,0,82,141,78,48,24,-9
-48,-24,24,36,-36,0,82,141,82,53,24,-9
-43,-24,19,34,-31,-2,82,141,87,53,24,-14
-43,-24,19,34,-31,-2,87,141,87,48,24,-14
-48,-19,29,34,-39,4,87,141,92,48,24,-14
-48,-19,29,34,-39,4,87,146,92,53,24,-4
-48,-19,29,34,-39,4,87,151,92,53,24,0
-53,-24,29,39,-41,2,92,151,92,53,24,-4
-58,-24,34,41,-46,4,97,146,92,53,24,-4
-58,-24,34,41,-46,4,97,146,92,58,24,-4
-63,-24,39,43,-51,7,102,151,87,58,24,-4
-63,-24,39,43,-51,7,102,151,87,58,24,-4
-68,-24,43,46,-56,9,102,151,87,58,24,-4
-63,-19,43,41,-53,12,102,146,82,53,24,-4
-63,-14,48,39,-56,17,102,146,82,53,24,-4
-63,-14,48,39,-56,17,102,146,78,53,29,-9
-68,-14,53,41,-61,19,107,146,78,48,29,-9
-73,-14,58,43,-65,21,107,141,78,53,29,-9
-73,-19,53,46,-63,17,107,141,68,53,29,-14
-78,-19,58,48,-68,19,107,136,68,43,24,-14
-82,-19,63,51,-73,21,107,131,58,39,14,-19
-87,-19,68,53,-78,24,107,126,53,29,9,-19
-92,-24,68,58,-80,21,107,122,53,24,14,-24
-102,-29,73,65,-87,21,112,122,43,19,4,-39
-107,-29,78,68,-92,24,112,112,39,4,-4,-43
-107,-34,73,70,-90,19,112,107,29,-4,-14,-48
-122,-39,82,80,-102,21,117,97,19,-14,-19,-48
-136,-43,92,90,-114,24,117,87,4,-34,-29,-53
-141,-48,92,95,-117,21,122,73,-9,-43,-39,-68
-151,-53,97,102,-124,21,126,63,-14,-63,-48,-73
-161,-63,97,112,-129,17,131,53,-29,-78,-68,-78
-180,-78,102,129,-141,12,131,48,-48,-97,-78,-87
-190,-87,102,139,-146,7,131,34,-68,-126,-97,-107
-209,-97,112,153,-161,7,136,14,-92,-141,-117,-117
-224,-112,112,168,-168,0,146,0,-117,-175,-131,-136
-239,-131,107,185,-173,-12,151,-19,-136,-200,-151,-151
-253,-146,107,200,-180,-19,151,-39,-175,-224,-170,-165
-278,-165,112,222,-195,-26,156,-63,-200,-258,-200,-185
-297,-185,112,241,-204,-36,161,-87,-234,-292,-229,-209
-326,-209,117,268,-222,-46,170,-117,-268,-331,-253,-224
-356,-239,117,297,-236,-61,175,-146,-312,-370,-287,-248
-380,-263,117,322,-248,-73,175,-180,-356,-424,-326,-278
-405,-287,117,346,-261,-85,180,-209,-405,-468,-366,-302
-439,-326,112,383,-275,-107,185,-244,-453,-527,-400,-331
-463,-356,107,409,-285,-124,190,-283,-502,-575,-439,-366
-497,-390,107,444,-302,-141,200,-317,-551,-624,-483,-400
-531,-419,112,475,-322,-153,204,-351,-595,-678,-531,-429
-556,-453,102,505,-329,-175,204,-390,-649,-732,-566,-458
-575,-492,82,534,-329,-204,209,-424,-697,-780,-614,-492
-605,-531,73,568,-339,-229,214,-448,-751,-834,-644,-522
-619,-561,58,590,-339,-251,214,-468,-790,-883,-678,-551
-629,-585,43,607,-336,-270,219,-488,-824,-922,-712,-580
-639,-619,19,629,-329,-300,224,-502,-854,-956,-736,-590
-639,-644,-4,641,-317,-324,224,-507,-888,-980,-761,-610
-639,-668,-29,653,-305,-348,224,-507,-907,-1010,-771,-624
-634,-678,-43,656,-295,-361,224,-497,-907,-1019,-785,-634
-614,-683,-68,649,-273,-375,224,-478,-907,-1024,-790,-639
-595,-683,-87,639,-253,-385,219,-448,-893,-1000,-780,-629
-556,-668,-112,612,-222,-390,219,-405,-863,-976,-761,-610
-527,-653,-126,590,-200,-390,214,-366,-824,-941,-741,-590
-478,-624,-146,551,-165,-385,209,-312,-780,-902,-707,-566
-429,-600,-170,514,-129,-385,204,-253,-722,-849,-658,-531
-375,-570,-195,473,-90,-383,200,-190,-663,-785,-610,-492
-322,-536,-214,429,-53,-375,190,-131,-600,-717,-551,-453
-239,-458,-219,348,-9,-339,170,-48,-492,-614,-463,-385
-239,-458,-219,348,-9,-339,170,-48,-492,-614,-463,-385
