I, II, III, aVR, aVL, aVF, V1, V2, V3, V4, V5, V6
-63,-92,-29,78,-17,-61,29,9,-102,-73,-68,-126
-63,-97,-34,80,-14,-65,34,9,-102,-68,-63,-122
-63,-102,-39,82,-12,-70,34,9,-102,-68,-68,-122
-68,-102,-34,85,-17,-68,34,9,-102,-68,-68,-122
-68,-107,-39,87,-14,-73,39,14,-102,-68,-68,-117
-68,-107,-39,87,-14,-73,39,14,-102,-68,-63,-117
-68,-107,-39,87,-14,-73,39,14,-102,-63,-63,-117
-63,-107,-43,85,-9,-75,29,9,-102,-68,-68,-126
-63,-102,-39,82,-12,-70,29,9,-102,-68,-73,-126
-68,-97,-29,82,-19,-63,29,9,-102,-63,-73,-126
-68,-92,-24,80,-21,-58,29,9,-102,-68,-73,-126
-68,-87,-19,78,-24,-53,24,4,-107,-73,-78,-131
-68,-87,-19,78,-24,-53,24,0,-112,-78,-73,-131
-68,-82,-14,75,-26,-48,24,0,-112,-82,-63,-126
-68,-87,-19,78,-24,-53,24,0,-112,-82,-53,-122
-68,-87,-19,78,-24,-53,19,0,-112,-82,-48,-117
-68,-87,-19,78,-24,-53,19,0,-107,-82,-43,-117
-68,-87,-19,78,-24,-53,19,0,-107,-82,-48,-122
-68,-87,-19,78,-24,-53,19,0,-112,-78,-53,-122
-68,-87,-19,78,-24,-53,19,0,-107,-78,-58,-126
-68,-87,-19,78,-24,-53,19,0,-107,-82,-68,-136
-63,-87,-24,75,-19,-56,19,0,-102,-82,-78,-136
-63,-92,-29,78,-17,-61,19,0,-107,-82,-82,-141
-63,-92,-29,78,-17,-61,19,0,-112,-87,-82,-141
-63,-97,-34,80,-14,-65,19,0,-107,-82,-73,-131
-63,-97,-34,80,-14,-65,19,0,-112,-82,-73,-126
-63,-102,-39,82,-12,-70,19,0,-117,-82,-63,-117
-68,-102,-34,85,-17,-68,19,0,-122,-82,-58,-112
-68,-97,-29,82,-19,-63,19,0,-117,-78,-53,-107
-68,-97,-29,82,-19,-63,19,0,-112,-73,-48,-102
-68,-92,-24,80,-21,-58,19,0,-112,-73,-48,-102
-68,-87,-19,78,-24,-53,14,-9,-117,-78,-53,-112
-68,-87,-19,78,-24,-53,14,-9,-117,-78,-58,-117
-63,-87,-24,75,-19,-56,9,-9,-122,-82,-58,-122
-63,-82,-19,73,-21,-51,9,-9,-122,-82,-53,-126
-63,-82,-19,73,-21,-51,9,-9,-122,-82,-53,-126
-63,-82,-19,73,-21,-51,14,-9,-122,-82,-53,-126
-63,-82,-19,73,-21,-51,14,-9,-126,-82,-53,-122
-63,-82,-19,73,-21,-51,14,-9,-122,-82,-53,-117
-63,-78,-14,70,-24,-46,9,-9,-126,-87,-58,-117
-58,-78,-19,68,-19,-48,9,-9,-122,-87,-63,-112
-58,-78,-19,68,-19,-48,9,-9,-117,-92,-63,-107
-63,-78,-14,70,-24,-46,9,-14,-117,-92,-63,-107
-63,-78,-14,70,-24,-46,14,-14,-112,-87,-58,-107
-63,-78,-14,70,-24,-46,14,-9,-112,-87,-58,-107
-58,-78,-19,68,-19,-48,14,-9,-117,-82,-63,-112
-58,-73,-14,65,-21,-43,14,0,-117,-78,-58,-112
-53,-73,-19,63,-17,-46,14,-9,-117,-73,-63,-112
-53,-68,-14,61,-19,-41,19,0,-117,-68,-58,-112
-48,-63,-14,56,-17,-39,19,-9,-112,-68,-63,-112
-48,-58,-9,53,-19,-34,24,-9,-107,-58,-58,-102
-48,-53,-4,51,-21,-29,29,-9,-97,-53,-48,-92
-48,-48,0,48,-24,-24,29,-14,-97,-53,-43,-87
-48,-43,4,46,-26,-19,34,-9,-92,-53,-39,-78
-48,-34,14,41,-31,-9,34,-9,-92,-53,-39,-78
-43,-34,9,39,-26,-12,34,0,-87,-53,-34,-73
-43,-34,9,39,-26,-12,39,4,-87,-53,-29,-68
-39,-34,4,36,-21,-14,39,4,-82,-53,-24,-68
-39,-34,4,36,-21,-14,39,9,-78,-48,-24,-73
-34,-34,0,34,-17,-17,34,4,-82,-53,-34,-78
-34,-34,0,34,-17,-17,34,4,-82,-48,-29,-78
-34,-34,0,34,-17,-17,34,4,-78,-48,-34,-82
-34,-29,4,31,-19,-12,34,4,-78,-43,-34,-87
-29,-24,4,26,-17,-9,29,4,-78,-48,-48,-92
-24,-24,0,24,-12,-12,24,4,-78,-53,-48,-92
-19,-19,0,19,-9,-9,19,0,-87,-58,-53,-97
-19,-19,0,19,-9,-9,14,0,-87,-58,-53,-97
-14,-19,-4,17,-4,-12,4,0,-87,-63,-48,-92
-9,-19,-9,14,0,-14,-9,0,-87,-63,-43,-82
0,-19,-19,9,9,-19,-19,-9,-97,-68,-43,-82
0,-14,-14,7,7,-14,-29,-9,-97,-63,-43,-78
4,-14,-19,4,12,-17,-39,-14,-97,-58,-48,-73
9,0,-9,-4,9,-4,-53,-24,-102,-63,-53,-78
9,0,-9,-4,9,-4,-58,-29,-107,-58,-53,-73
14,4,-9,-9,12,-2,-68,-34,-107,-63,-48,-73
24,14,-9,-19,17,2,-78,-39,-107,-58,-34,-73
29,19,-9,-24,19,4,-78,-43,-112,-58,-19,-68
39,19,-19,-29,29,0,-82,-43,-117,-58,0,-68
43,24,-19,-34,31,2,-82,-34,-112,-58,9,-68
53,24,-29,-39,41,-2,-87,-34,-117,-58,14,-73
63,29,-34,-46,48,-2,-87,-34,-126,-63,4,-73
68,29,-39,-48,53,-4,-92,-34,-131,-68,-14,-73
68,34,-34,-51,51,0,-102,-39,-136,-78,-34,-82
73,29,-43,-51,58,-7,-102,-39,-141,-87,-43,-87
68,24,-43,-46,56,-9,-102,-43,-141,-92,-48,-87
68,14,-53,-41,61,-19,-97,-43,-141,-97,-53,-87
63,9,-53,-36,58,-21,-102,-43,-146,-102,-63,-97
58,0,-58,-29,58,-29,-102,-43,-151,-102,-63,-97
58,-9,-68,-24,63,-39,-97,-43,-156,-102,-58,-102
53,-9,-63,-21,58,-36,-92,-43,-161,-102,-58,-102
53,0,-53,-26,53,-26,-92,-39,-161,-97,-53,-102
58,4,-53,-31,56,-24,-92,-43,-165,-102,-58,-107
53,4,-48,-29,51,-21,-92,-43,-170,-97,-53,-102
53,9,-43,-31,48,-17,-87,-48,-165,-97,-58,-97
48,9,-39,-29,43,-14,-87,-48,-161,-97,-58,-92
48,4,-43,-26,46,-19,-82,-43,-156,-97,-58,-87
43,4,-39,-24,41,-17,-82,-48,-161,-97,-58,-87
39,-9,-48,-14,43,-29,-78,-43,-156,-97,-58,-87
29,-14,-43,-7,36,-29,-73,-43,-146,-92,-58,-87
19,-19,-39,0,29,-29,-68,-43,-146,-92,-63,-92
9,-29,-39,9,24,-34,-63,-43,-146,-92,-68,-97
-9,-39,-29,24,9,-34,-48,-39,-141,-92,-68,-97
-24,-48,-24,36,0,-36,-39,-39,-141,-87,-68,-102
-39,-58,-19,48,-9,-39,-29,-34,-146,-92,-68,-102
-48,-68,-19,58,-14,-43,-19,-29,-141,-87,-63,-102
-58,-78,-19,68,-19,-48,-14,-29,-141,-92,-63,-102
-68,-87,-19,78,-24,-53,-9,-29,-141,-92,-68,-112
-73,-97,-24,85,-24,-61,-9,-29,-141,-97,-73,-117
-78,-102,-24,90,-26,-63,0,-29,-141,-97,-82,-122
-82,-107,-24,95,-29,-65,0,-24,-141,-102,-92,-126
-87,-112,-24,100,-31,-68,0,-29,-141,-107,-102,-131
-87,-117,-29,102,-29,-73,0,-29,-141,-112,-107,-131
-92,-122,-29,107,-31,-75,0,-29,-141,-112,-112,-136
-92,-126,-34,109,-29,-80,0,-24,-141,-112,-107,-136
-92,-131,-39,112,-26,-85,0,-24,-141,-117,-107,-136
-92,-131,-39,112,-26,-85,-9,-29,-146,-117,-102,-141
-92,-136,-43,114,-24,-90,-9,-29,-146,-117,-102,-146
-92,-136,-43,114,-24,-90,-9,-24,-151,-117,-97,-151
-92,-131,-39,112,-26,-85,-9,-24,-146,-117,-92,-146
-92,-131,-39,112,-26,-85,0,-24,-146,-112,-92,-146
-92,-131,-39,112,-26,-85,0,-24,-146,-112,-92,-141
-92,-126,-34,109,-29,-80,0,-24,-141,-112,-87,-131
-92,-126,-34,109,-29,-80,4,-24,-141,-107,-82,-126
-92,-122,-29,107,-31,-75,0,-29,-141,-112,-78,-126
-92,-122,-29,107,-31,-75,0,-29,-141,-107,-73,-122
-87,-122,-34,104,-26,-78,0,-29,-136,-102,-63,-117
-87,-117,-29,102,-29,-73,0,-24,-136,-97,-58,-117
-82,-117,-34,100,-24,-75,-9,-29,-136,-102,-63,-126
-82,-117,-34,100,-24,-75,0,-29,-136,-102,-63,-126
-78,-117,-39,97,-19,-78,0,-29,-131,-102,-68,-126
-78,-117,-39,97,-19,-78,0,-24,-131,-102,-78,-131
-78,-117,-39,97,-19,-78,0,-24,-131,-107,-82,-131
-78,-117,-39,97,-19,-78,0,-24,-131,-107,-82,-126
-78,-117,-39,97,-19,-78,-9,-24,-131,-102,-82,-126
-78,-117,-39,97,-19,-78,-9,-29,-136,-107,-82,-126
-78,-117,-39,97,-19,-78,-9,-29,-136,-107,-82,-126
-78,-112,-34,95,-21,-73,-9,-29,-136,-102,-82,-126
-78,-112,-34,95,-21,-73,-9,-24,-131,-102,-82,-126
-78,-107,-29,92,-24,-68,-14,-29,-136,-107,-92,-131
-78,-107,-29,92,-24,-68,-9,-29,-136,-107,-92,-131
-73,-102,-29,87,-21,-65,-9,-24,-136,-107,-87,-131
-73,-102,-29,87,-21,-65,-9,-24,-136,-102,-82,-126
-73,-102,-29,87,-21,-65,-9,-24,-131,-102,-82,-126
-73,-102,-29,87,-21,-65,-9,-24,-136,-102,-78,-122
-73,-107,-34,90,-19,-70,-9,-29,-136,-102,-78,-122
-73,-107,-34,90,-19,-70,-9,-29,-131,-102,-73,-117
-73,-102,-29,87,-21,-65,-9,-24,-126,-102,-73,-117
-73,-107,-34,90,-19,-70,-9,-24,-131,-102,-73,-112
-73,-107,-34,90,-19,-70,-14,-24,-131,-97,-68,-112
-73,-107,-34,90,-19,-70,-14,-24,-126,-92,-68,-112
-68,-102,-34,85,-17,-68,-14,-24,-131,-97,-73,-117
-68,-107,-39,87,-14,-73,-9,-19,-126,-92,-73,-122
-68,-107,-39,87,-14,-73,0,-14,-126,-92,-78,-126
-68,-112,-43,90,-12,-78,0,-9,-131,-102,-87,-136
-63,-117,-53,90,-4,-85,4,0,-136,-107,-97,-146
-58,-122,-63,90,2,-92,9,9,-136,-117,-102,-156
-58,-131,-73,95,7,-102,19,24,-136,-122,-107,-156
-53,-141,-87,97,17,-114,24,39,-146,-126,-112,-161
-53,-146,-92,100,19,-119,34,48,-141,-122,-117,-161
-43,-141,-97,92,26,-119,43,58,-131,-117,-117,-156
-34,-131,-97,82,31,-114,58,78,-117,-102,-107,-141
-9,-107,-97,58,43,-102,63,92,-97,-78,-97,-126
24,-68,-92,21,58,-80,68,107,-73,-48,-73,-107
73,-19,-92,-26,82,-56,73,122,-34,-9,-39,-78
131,53,-78,-92,104,-12,68,146,24,48,24,-39
214,136,-78,-175,146,29,48,161,73,112,87,9
302,244,-58,-273,180,92,9,165,126,185,161,68
395,361,-34,-378,214,163,-48,156,185,268,253,141
507,507,0,-507,253,253,-131,126,244,351,336,224
619,668,48,-644,285,358,-239,78,297,439,429,312
732,839,107,-785,312,473,-356,14,346,527,522,409
854,1019,165,-936,344,592,-492,-58,380,610,614,507
966,1195,229,-1080,368,712,-639,-141,414,678,702,610
1073,1361,287,-1217,392,824,-790,-234,419,727,775,697
1151,1503,351,-1327,400,927,-946,-326,395,751,839,771
1195,1610,414,-1403,390,1012,-1102,-444,331,732,858,829
1195,1703,507,-1449,344,1105,-1259,-585,248,683,858,868
1146,1761,614,-1454,265,1188,-1395,-761,151,619,849,902
1044,1795,751,-1420,146,1273,-1527,-971,39,531,824,927
897,1820,922,-1359,-12,1371,-1649,-1195,-73,439,790,946
727,1830,1102,-1278,-187,1466,-1742,-1429,-175,346,761,961
551,1815,1263,-1183,-356,1539,-1800,-1615,-263,268,732,976
390,1781,1390,-1085,-500,1586,-1825,-1751,-336,190,692,971
258,1717,1459,-988,-600,1588,-1810,-1820,-400,112,634,936
156,1629,1473,-893,-658,1551,-1756,-1815,-448,39,556,883
97,1512,1415,-805,-658,1464,-1664,-1742,-483,-29,473,800
68,1381,1312,-724,-622,1346,-1537,-1605,-492,-82,380,707
58,1249,1190,-653,-566,1220,-1390,-1449,-483,-117,307,614
53,1117,1063,-585,-505,1090,-1244,-1283,-458,-136,248,527
53,995,941,-524,-444,968,-1098,-1117,-429,-136,204,453
48,888,839,-468,-395,863,-956,-971,-390,-141,156,375
34,780,746,-407,-356,763,-819,-834,-351,-131,126,312
19,692,673,-356,-326,683,-692,-712,-312,-117,102,263
0,610,610,-305,-305,610,-580,-614,-273,-107,82,224
-24,522,546,-248,-285,534,-488,-522,-244,-97,63,175
-43,439,483,-197,-263,461,-400,-444,-219,-92,48,136
-58,361,419,-151,-239,390,-326,-370,-190,-92,29,97
-68,287,356,-109,-212,322,-268,-317,-175,-92,14,63
-78,219,297,-70,-187,258,-200,-258,-156,-92,4,34
-87,151,239,-31,-163,195,-146,-200,-146,-92,-14,0
-97,92,190,2,-143,141,-97,-156,-141,-97,-34,-39
-102,39,141,31,-122,90,-58,-112,-131,-97,-53,-63
-102,-9,92,56,-97,41,-29,-78,-131,-102,-68,-82
-107,-43,63,75,-85,9,4,-48,-126,-97,-73,-92
-107,-68,39,87,-73,-14,29,-24,-122,-97,-68,-102
-107,-97,9,102,-58,-43,48,0,-117,-97,-68,-107
-112,-112,0,112,-56,-56,58,14,-112,-102,-68,-117
-117,-126,-9,122,-53,-68,73,24,-112,-102,-73,-122
-122,-136,-14,129,-53,-75,82,34,-112,-107,-78,-126
-126,-146,-19,136,-53,-82,92,43,-107,-107,-87,-136
-126,-151,-24,139,-51,-87,97,53,-102,-107,-92,-141
-126,-156,-29,141,-48,-92,97,53,-97,-107,-102,-146
-126,-156,-29,141,-48,-92,102,58,-97,-107,-112,-151
-126,-156,-29,141,-48,-92,102,58,-102,-107,-117,-151
-126,-156,-29,141,-48,-92,107,58,-107,-107,-117,-156
-126,-161,-34,143,-46,-97,107,58,-107,-107,-117,-156
-126,-161,-34,143,-46,-97,112,63,-112,-107,-117,-156
-131,-165,-34,148,-48,-100,122,73,-107,-102,-112,-156
-131,-165,-34,148,-48,-100,122,73,-107,-102,-112,-156
-126,-170,-43,148,-41,-107,122,73,-102,-102,-112,-161
-126,-175,-48,151,-39,-112,122,78,-102,-102,-112,-165
-126,-180,-53,153,-36,-117,126,82,-97,-102,-112,-161
-131,-185,-53,158,-39,-119,126,82,-97,-102,-112,-165
-126,-185,-58,156,-34,-122,126,82,-102,-107,-112,-161
-126,-185,-58,156,-34,-122,131,87,-97,-107,-112,-161
-126,-185,-58,156,-34,-122,136,92,-97,-107,-112,-156
-126,-185,-58,156,-34,-122,136,92,-92,-107,-107,-161
-126,-185,-58,156,-34,-122,141,92,-92,-102,-107,-161
-126,-185,-58,156,-34,-122,141,97,-92,-97,-112,-165
-126,-185,-58,156,-34,-122,141,97,-92,-97,-112,-165
-131,-185,-53,158,-39,-119,141,92,-97,-97,-117,-175
-136,-190,-53,163,-41,-122,146,97,-97,-97,-117,-175
-136,-195,-58,165,-39,-126,146,97,-97,-97,-122,-175
-136,-195,-58,165,-39,-126,151,97,-92,-102,-122,-175
-136,-200,-63,168,-36,-131,156,107,-87,-97,-117,-170
-136,-200,-63,168,-36,-131,156,107,-87,-97,-112,-170
-131,-200,-68,165,-31,-134,156,107,-92,-102,-117,-170
-131,-200,-68,165,-31,-134,156,107,-87,-97,-112,-165
-131,-195,-63,163,-34,-129,161,107,-82,-97,-107,-165
-131,-195,-63,163,-34,-129,161,107,-82,-102,-102,-161
-136,-195,-58,165,-39,-126,161,112,-87,-102,-102,-161
-136,-190,-53,163,-41,-122,161,112,-87,-102,-97,-161
-136,-190,-53,163,-41,-122,165,112,-87,-102,-92,-161
-136,-190,-53,163,-41,-122,165,117,-87,-102,-97,-161
-136,-195,-58,165,-39,-126,165,117,-87,-97,-97,-165
-136,-195,-58,165,-39,-126,170,122,-82,-92,-97,-165
-136,-195,-58,165,-39,-126,170,122,-78,-87,-97,-165
-136,-195,-58,165,-39,-126,175,122,-78,-82,-102,-165
-141,-195,-53,168,-43,-124,180,126,-73,-78,-97,-156
-141,-190,-48,165,-46,-119,180,126,-73,-87,-102,-161
-141,-190,-48,165,-46,-119,185,126,-73,-87,-102,-165
-146,-195,-48,170,-48,-122,190,136,-68,-82,-97,-161
-146,-195,-48,170,-48,-122,190,136,-68,-87,-97,-170
-146,-200,-53,173,-46,-126,195,136,-63,-82,-102,-170
-141,-200,-58,170,-41,-129,195,141,-58,-82,-102,-175
-141,-200,-58,170,-41,-129,195,141,-58,-82,-102,-175
-141,-200,-58,170,-41,-129,204,141,-58,-78,-102,-170
-141,-195,-53,168,-43,-124,209,146,-53,-73,-102,-165
-136,-190,-53,163,-41,-122,209,146,-53,-73,-107,-165
-136,-190,-53,163,-41,-122,214,151,-53,-73,-112,-161
-136,-190,-53,163,-41,-122,214,156,-53,-73,-107,-161
-136,-190,-53,163,-41,-122,214,156,-48,-73,-102,-156
-131,-195,-63,163,-34,-129,219,161,-43,-68,-92,-161
-131,-200,-68,165,-31,-134,224,165,-39,-68,-87,-161
-136,-209,-73,173,-31,-141,229,175,-39,-63,-78,-156
-136,-214,-78,175,-29,-146,234,175,-34,-63,-78,-161
-136,-214,-78,175,-29,-146,239,180,-29,-58,-82,-161
-136,-214,-78,175,-29,-146,244,190,-24,-53,-87,-161
-136,-209,-73,173,-31,-141,248,195,-24,-53,-97,-161
-136,-209,-73,173,-31,-141,248,195,-24,-53,-97,-161
-131,-200,-68,165,-31,-134,248,204,-24,-58,-97,-165
-131,-200,-68,165,-31,-134,253,209,-19,-53,-92,-165
-126,-200,-73,163,-26,-136,258,214,-19,-48,-87,-161
-126,-200,-73,163,-26,-136,263,219,-14,-48,-82,-161
-126,-200,-73,163,-26,-136,268,224,0,-43,-78,-161
-122,-195,-73,158,-24,-134,268,224,0,-43,-82,-165
-122,-195,-73,158,-24,-134,273,234,4,-39,-78,-161
-122,-190,-68,156,-26,-129,278,239,9,-39,-78,-156
-117,-190,-73,153,-21,-131,278,244,14,-34,-78,-156
-117,-190,-73,153,-21,-131,283,248,9,-29,-73,-151
-117,-190,-73,153,-21,-131,287,253,14,-24,-73,-151
-117,-185,-68,151,-24,-126,287,258,14,-19,-78,-156
-117,-185,-68,151,-24,-126,297,268,19,-14,-78,-151
-112,-180,-68,146,-21,-124,302,278,29,-9,-73,-151
-107,-175,-68,141,-19,-122,307,283,29,-9,-73,-151
-107,-175,-68,141,-19,-122,317,292,43,0,-58,-146
-102,-170,-68,136,-17,-119,317,297,43,0,-53,-141
-97,-175,-78,136,-9,-126,322,302,48,4,-48,-141
-97,-175,-78,136,-9,-126,326,307,53,9,-48,-141
-92,-175,-82,134,-4,-129,331,317,58,9,-43,-141
-92,-170,-78,131,-7,-124,341,326,63,19,-43,-141
-87,-170,-82,129,-2,-126,341,331,63,19,-53,-146
-78,-165,-87,122,4,-126,346,336,63,19,-53,-156
-73,-161,-87,117,7,-124,351,346,68,24,-48,-151
-68,-156,-87,112,9,-122,356,356,68,24,-48,-156
-63,-156,-92,109,14,-124,361,366,73,34,-39,-146
-58,-151,-92,104,17,-122,366,370,78,39,-34,-141
-53,-141,-87,97,17,-114,370,380,82,39,-34,-141
-48,-136,-87,92,19,-112,370,385,92,43,-34,-136
-48,-136,-87,92,19,-112,380,400,97,48,-34,-131
-43,-131,-87,87,21,-109,385,414,107,53,-29,-126
-34,-131,-97,82,31,-114,390,424,107,53,-29,-126
-29,-126,-97,78,34,-112,390,429,112,53,-24,-126
-24,-126,-102,75,39,-114,395,439,117,63,-19,-122
-14,-126,-112,70,48,-119,395,444,122,68,-9,-122
0,-122,-122,61,61,-122,395,448,126,68,0,-117
4,-112,-117,53,61,-114,400,458,126,73,4,-117
9,-107,-117,48,63,-112,409,468,136,82,19,-107
19,-102,-122,41,70,-112,414,473,141,87,19,-107
24,-92,-117,34,70,-104,414,478,146,92,19,-107
29,-87,-117,29,73,-102,414,483,151,97,14,-102
39,-78,-117,19,78,-97,409,488,156,102,9,-102
43,-73,-117,14,80,-95,409,488,161,102,4,-97
48,-68,-117,9,82,-92,409,492,156,107,9,-97
58,-68,-126,4,92,-97,414,497,161,112,19,-87
63,-68,-131,2,97,-100,414,502,161,112,29,-87
68,-63,-131,-2,100,-97,419,512,161,122,48,-82
78,-58,-136,-9,107,-97,419,512,165,126,58,-78
82,-48,-131,-17,107,-90,414,517,170,131,68,-73
92,-39,-131,-26,112,-85,400,512,175,131,68,-73
102,-24,-126,-39,114,-75,395,512,180,136,63,-68
112,-14,-126,-48,119,-70,385,507,175,131,58,-58
117,4,-112,-61,114,-53,380,507,180,131,58,-48
122,14,-107,-68,114,-46,370,502,180,136,58,-43
126,19,-107,-73,117,-43,366,497,180,131,63,-39
131,29,-102,-80,117,-36,356,488,175,131,63,-34
136,34,-102,-85,119,-34,356,488,175,141,73,-24
141,43,-97,-92,119,-26,341,478,175,141,78,-24
146,53,-92,-100,119,-19,326,463,170,146,82,-24
151,58,-92,-104,122,-17,312,448,161,146,82,-24
151,68,-82,-109,117,-7,297,434,156,146,92,-19
156,73,-82,-114,119,-4,287,424,156,156,97,-14
156,78,-78,-117,117,0,268,400,151,151,97,-14
161,82,-78,-122,119,2,258,385,146,151,97,-9
161,87,-73,-124,117,7,239,366,136,141,92,-9
165,92,-73,-129,119,9,224,351,136,141,87,0
165,97,-68,-131,117,14,204,331,126,131,78,-9
170,102,-68,-136,119,17,185,312,117,126,68,0
165,112,-53,-139,109,29,165,287,102,112,63,0
165,122,-43,-143,104,39,151,268,97,107,63,0
161,126,-34,-143,97,46,136,248,87,102,68,4
156,126,-29,-141,92,48,122,234,78,97,73,9
151,126,-24,-139,87,51,107,214,68,92,82,14
146,126,-19,-136,82,53,97,195,63,92,92,14
136,122,-14,-129,75,53,87,185,58,92,97,14
131,117,-14,-124,73,51,73,165,53,87,92,9
126,112,-14,-119,70,48,63,151,48,87,92,4
117,107,-9,-112,63,48,58,136,43,82,82,0
112,107,-4,-109,58,51,48,117,29,73,68,-9
102,102,0,-102,51,51,43,102,24,68,63,-9
97,102,4,-100,46,53,34,92,24,63,53,-9
92,97,4,-95,43,51,24,82,14,48,39,-19
87,97,9,-92,39,53,24,73,9,43,34,-19
78,97,19,-87,29,58,9,58,0,34,29,-19
73,92,19,-82,26,56,4,48,-9,29,29,-19
68,82,14,-75,26,48,4,43,-9,24,34,-19
63,78,14,-70,24,46,0,39,-14,24,34,-19
58,68,9,-63,24,39,0,29,-24,24,39,-19
48,58,9,-53,19,34,0,24,-24,19,39,-19
43,48,4,-46,19,26,0,24,-24,14,39,-24
39,43,4,-41,17,24,0,19,-29,14,29,-24
34,39,4,-36,14,21,-14,9,-39,4,14,-29
24,34,9,-29,7,21,-14,4,-43,0,4,-34
19,29,9,-24,4,19,-14,4,-48,-9,0,-34
14,29,14,-21,0,21,-19,0,-53,-14,-9,-39
9,29,19,-19,-4,24,-14,0,-58,-14,-9,-43
4,24,19,-14,-7,21,-19,-9,-63,-19,-9,-48
0,19,19,-9,-9,19,-14,-9,-58,-19,4,-48
0,19,19,-9,-9,19,-14,-9,-58,-19,4,-53
0,14,14,-7,-7,14,-14,-14,-58,-24,4,-58
-9,9,19,0,-14,14,-14,-14,-53,-19,4,-58
-9,9,19,0,-14,14,-14,-14,-58,-19,0,-63
-9,4,14,2,-12,9,-14,-19,-63,-24,-9,-63
-9,4,14,2,-12,9,-19,-24,-63,-29,-9,-68
-14,0,14,7,-14,7,-14,-19,-63,-29,-9,-63
-14,-9,4,12,-9,-2,-14,-24,-63,-34,-14,-63
-19,-9,9,14,-14,0,-9,-19,-58,-29,-14,-58
-19,-9,9,14,-14,0,-14,-19,-58,-34,-14,-53
-24,-9,14,17,-19,2,-14,-24,-58,-29,-14,-58
-24,0,24,12,-24,12,-14,-24,-63,-29,-14,-58
-24,0,24,12,-24,12,-14,-29,-63,-29,-14,-58
-29,0,29,14,-29,14,-19,-29,-68,-29,-14,-63
-29,0,29,14,-29,14,-19,-29,-73,-29,-14,-63
-29,-9,19,19,-24,4,-19,-29,-73,-34,-19,-68
-34,-9,24,21,-29,7,-9,-29,-68,-34,-19,-63
-34,-14,19,24,-26,2,-14,-29,-63,-34,-29,-68
-34,-14,19,24,-26,2,-14,-29,-58,-39,-34,-68
-34,-19,14,26,-24,-2,-14,-29,-58,-43,-39,-68
-34,-19,14,26,-24,-2,-14,-29,-63,-43,-43,-68
-34,-19,14,26,-24,-2,-14,-29,-63,-43,-43,-68
-34,-19,14,26,-24,-2,-14,-34,-63,-43,-39,-63
-34,-19,14,26,-24,-2,-14,-29,-68,-43,-39,-63
-39,-19,19,29,-29,0,-9,-24,-63,-34,-34,-58
-39,-14,24,26,-31,4,-14,-34,-73,-34,-34,-63
-39,-14,24,26,-31,4,-14,-34,-68,-29,-34,-73
-39,-19,19,29,-29,0,-9,-29,-63,-24,-34,-73
-39,-19,19,29,-29,0,-14,-34,-58,-29,-34,-78
-39,-24,14,31,-26,-4,-14,-34,-63,-29,-29,-82
-39,-29,9,34,-24,-9,-9,-34,-63,-34,-24,-82
-39,-34,4,36,-21,-14,0,-29,-63,-29,-19,-73
-39,-39,0,39,-19,-19,0,-29,-63,-34,-19,-73
-43,-39,4,41,-24,-17,0,-29,-63,-39,-14,-68
-43,-34,9,39,-26,-12,-9,-34,-68,-39,-14,-63
-43,-34,9,39,-26,-12,-9,-34,-68,-34,-19,-63
-43,-29,14,36,-29,-7,-9,-34,-68,-34,-24,-68
-43,-29,14,36,-29,-7,-9,-34,-63,-34,-29,-73
-43,-24,19,34,-31,-2,-14,-43,-68,-39,-34,-78
-43,-19,24,31,-34,2,-14,-43,-68,-39,-34,-78
-43,-19,24,31,-34,2,-14,-39,-73,-39,-34,-78
-43,-24,19,34,-31,-2,-14,-39,-68,-39,-29,-78
-48,-24,24,36,-36,0,-9,-34,-63,-34,-19,-73
-48,-24,24,36,-36,0,-9,-34,-58,-34,-14,-68
-48,-24,24,36,-36,0,-9,-34,-58,-29,-14,-68
-48,-29,19,39,-34,-4,-9,-34,-58,-29,-14,-68
-48,-29,19,39,-34,-4,-9,-39,-58,-29,-14,-68
-48,-29,19,39,-34,-4,-9,-39,-58,-29,-19,-68
-48,-29,19,39,-34,-4,-9,-39,-63,-29,-24,-68
-53,-34,19,43,-36,-7,0,-34,-58,-29,-24,-63
-53,-34,19,43,-36,-7,0,-34,-58,-34,-29,-68
-53,-34,19,43,-36,-7,0,-34,-58,-39,-29,-68
-53,-29,24,41,-39,-2,-9,-39,-63,-39,-34,-68
-53,-24,29,39,-41,2,-9,-39,-63,-39,-34,-68
-53,-24,29,39,-41,2,-9,-39,-58,-34,-29,-68
-58,-24,34,41,-46,4,-9,-39,-63,-34,-29,-63
-58,-24,34,41,-46,4,-9,-39,-63,-34,-29,-63
-58,-24,34,41,-46,4,-9,-39,-63,-29,-29,-68
-58,-24,34,41,-46,4,-9,-39,-63,-34,-24,-68
-58,-29,29,43,-43,0,4,-34,-63,-29,-19,-68
-58,-29,29,43,-43,0,4,-29,-63,-34,-19,-68
-58,-29,29,43,-43,0,4,-34,-63,-34,-19,-68
-58,-29,29,43,-43,0,4,-34,-58,-39,-24,-73
-58,-29,29,43,-43,0,4,-34,-58,-39,-24,-68
-58,-29,29,43,-43,0,4,-29,-58,-39,-24,-68
-58,-29,29,43,-43,0,4,-29,-63,-39,-29,-68
-58,-34,24,46,-41,-4,4,-29,-63,-39,-34,-68
-53,-34,19,43,-36,-7,4,-29,-63,-39,-39,-73
-53,-34,19,43,-36,-7,4,-29,-68,-39,-39,-73
-53,-39,14,46,-34,-12,0,-29,-73,-39,-34,-78
-58,-43,14,51,-36,-14,4,-24,-73,-34,-29,-78
-58,-43,14,51,-36,-14,4,-24,-68,-34,-29,-82
-58,-48,9,53,-34,-19,4,-24,-68,-34,-24,-82
-63,-48,14,56,-39,-17,4,-24,-63,-29,-24,-87
-63,-48,14,56,-39,-17,9,-24,-63,-24,-29,-87
-63,-48,14,56,-39,-17,4,-24,-63,-29,-34,-87
-58,-48,9,53,-34,-19,4,-24,-58,-34,-39,-87
-58,-48,9,53,-34,-19,4,-24,-58,-34,-39,-82
-58,-48,9,53,-34,-19,4,-24,-58,-34,-39,-82
-58,-48,9,53,-34,-19,4,-24,-63,-39,-34,-78
-58,-53,4,56,-31,-24,4,-24,-68,-39,-34,-73
-63,-53,9,58,-36,-21,9,-19,-68,-34,-29,-63
-63,-53,9,58,-36,-21,9,-19,-68,-34,-34,-63
-63,-53,9,58,-36,-21,9,-19,-68,-34,-34,-63
-63,-53,9,58,-36,-21,9,-19,-68,-39,-34,-68
-63,-53,9,58,-36,-21,9,-19,-63,-39,-34,-73
-63,-53,9,58,-36,-21,4,-19,-68,-39,-34,-78
-63,-53,9,58,-36,-21,4,-19,-68,-43,-34,-78
-58,-53,4,56,-31,-24,0,-24,-73,-48,-34,-82
-58,-53,4,56,-31,-24,0,-29,-73,-48,-39,-87
-63,-53,9,58,-36,-21,4,-24,-73,-43,-34,-82
-63,-53,9,58,-36,-21,4,-24,-78,-43,-39,-82
-63,-58,4,61,-34,-26,4,-24,-73,-43,-39,-87
-63,-58,4,61,-34,-26,4,-24,-68,-43,-39,-87
-63,-58,4,61,-34,-26,4,-24,-73,-48,-43,-87
-63,-58,4,61,-34,-26,0,-24,-78,-48,-43,-87
-63,-58,4,61,-34,-26,0,-24,-82,-48,-48,-87
-63,-58,4,61,-34,-26,0,-24,-82,-48,-53,-92
-63,-58,4,61,-34,-26,0,-24,-82,-48,-53,-92
-63,-63,0,63,-31,-31,0,-24,-82,-48,-53,-97
-63,-68,-4,65,-29,-36,4,-19,-78,-43,-48,-97
-63,-68,-4,65,-29,-36,0,-19,-78,-48,-53,-102
-58,-68,-9,63,-24,-39,-9,-29,-82,-53,-63,-107
-58,-63,-4,61,-26,-34,-9,-29,-82,-53,-63,-107
-58,-58,0,58,-29,-29,-9,-29,-78,-53,-68,-102
-58,-53,4,56,-31,-24,-14,-34,-87,-63,-73,-107
-58,-48,9,53,-34,-19,-14,-34,-92,-68,-68,-102
-58,-48,9,53,-34,-19,-14,-34,-92,-63,-58,-97
-63,-53,9,58,-36,-21,0,-29,-87,-58,-39,-92
-63,-58,4,61,-34,-26,0,-29,-87,-58,-34,-92
-63,-63,0,63,-31,-31,0,-29,-92,-58,-29,-92
-63,-63,0,63,-31,-31,-9,-29,-87,-53,-29,-92
-63,-63,0,63,-31,-31,-9,-34,-87,-53,-29,-87
-63,-63,0,63,-31,-31,-9,-34,-82,-53,-34,-87
-63,-63,0,63,-31,-31,-9,-34,-82,-58,-43,-87
-63,-58,4,61,-34,-26,-9,-34,-82,-58,-48,-82
-58,-58,0,58,-29,-29,-9,-29,-82,-58,-53,-82
-58,-58,0,58,-29,-29,-9,-29,-87,-63,-53,-82
-58,-58,0,58,-29,-29,-9,-29,-87,-63,-53,-82
-58,-63,-4,61,-26,-34,-14,-29,-82,-63,-58,-87
-63,-63,0,63,-31,-31,-14,-34,-82,-68,-58,-92
-63,-68,-4,65,-29,-36,-14,-29,-82,-63,-48,-92
-68,-68,0,68,-34,-34,-14,-34,-92,-63,-43,-92
-68,-68,0,68,-34,-34,-14,-34,-92,-58,-43,-97
-68,-68,0,68,-34,-34,-14,-34,-92,-58,-43,-102
-68,-63,4,65,-36,-29,-14,-34,-97,-58,-39,-97
-63,-58,4,61,-34,-26,-14,-34,-102,-58,-39,-97
-58,-58,0,58,-29,-29,-14,-34,-97,-53,-43,-97
-58,-58,0,58,-29,-29,-14,-39,-92,-53,-43,-92
-58,-58,0,58,-29,-29,-19,-39,-92,-58,-43,-92
-58,-58,0,58,-29,-29,-19,-39,-97,-58,-48,-92
-58,-58,0,58,-29,-29,-19,-39,-97,-58,-53,-97
-63,-68,-4,65,-29,-36,-14,-34,-92,-58,-53,-97
-68,-73,-4,70,-31,-39,-14,-34,-92,-58,-58,-102
-68,-78,-9,73,-29,-43,-9,-29,-87,-58,-63,-102
-68,-78,-9,73,-29,-43,-14,-34,-82,-58,-68,-107
-63,-78,-14,70,-24,-46,-19,-39,-87,-63,-73,-107
-63,-73,-9,68,-26,-41,-19,-39,-87,-63,-68,-102
-63,-68,-4,65,-29,-36,-19,-39,-87,-58,-63,-92
-58,-58,0,58,-29,-29,-19,-39,-87,-58,-68,-92
-53,-53,0,53,-26,-26,-19,-39,-92,-58,-68,-87
-53,-48,4,51,-29,-21,-19,-39,-92,-53,-63,-82
-53,-43,9,48,-31,-17,-19,-39,-97,-53,-63,-82
-48,-43,4,46,-26,-19,-19,-39,-92,-53,-58,-82
-48,-43,4,46,-26,-19,-14,-34,-82,-48,-53,-82
-48,-39,9,43,-29,-14,-14,-34,-78,-43,-43,-78
-43,-34,9,39,-26,-12,-14,-39,-78,-43,-39,-78
-43,-29,14,36,-29,-7,-9,-39,-73,-39,-29,-73
-39,-24,14,31,-26,-4,-9,-39,-68,-39,-24,-73
-39,-19,19,29,-29,0,0,-34,-58,-29,-14,-63
-39,-14,24,26,-31,4,4,-34,-58,-29,-14,-58
-34,-9,24,21,-29,7,9,-34,-58,-24,0,-53
-34,-9,24,21,-29,7,14,-29,-58,-19,4,-53
-34,-9,24,21,-29,7,14,-24,-48,-14,9,-53
-29,-9,19,19,-24,4,14,-29,-48,-14,9,-58
-29,-9,19,19,-24,4,14,-29,-48,-14,9,-58
-29,-14,14,21,-21,0,14,-19,-39,0,9,-53
-24,-14,9,19,-17,-2,9,-24,-43,-14,-9,-58
-24,-14,9,19,-17,-2,9,-24,-43,-14,-14,-58
-24,-14,9,19,-17,-2,4,-24,-48,-19,-19,-63
-19,-14,4,17,-12,-4,0,-24,-48,-24,-24,-63
-19,-14,4,17,-12,-4,-9,-24,-53,-24,-29,-63
-14,-14,0,14,-7,-7,-9,-24,-53,-29,-29,-58
-14,-9,4,12,-9,-2,-19,-29,-63,-34,-34,-58
-9,-9,0,9,-4,-4,-24,-29,-58,-34,-34,-53
-9,0,9,4,-9,4,-34,-29,-63,-34,-34,-53
0,0,0,0,0,0,-48,-34,-73,-39,-34,-53
4,4,0,-4,2,2,-58,-34,-78,-39,-29,-53
9,9,0,-9,4,4,-73,-43,-87,-43,-29,-58
9,9,0,-9,4,4,-82,-48,-92,-43,-24,-58
14,14,0,-14,7,7,-97,-58,-97,-43,-24,-63
19,19,0,-19,9,9,-97,-63,-92,-43,-24,-58
24,29,4,-26,9,17,-102,-63,-92,-43,-24,-58
34,34,0,-34,17,17,-107,-63,-92,-43,-29,-58
43,43,0,-43,21,21,-117,-68,-102,-53,-34,-63
58,43,-14,-51,36,14,-122,-63,-102,-58,-39,-63
68,43,-24,-56,46,9,-122,-58,-102,-58,-34,-63
73,39,-34,-56,53,2,-122,-53,-112,-63,-39,-68
78,34,-43,-56,61,-4,-126,-53,-122,-68,-43,-73
82,29,-53,-56,68,-12,-126,-53,-131,-73,-43,-78
78,24,-53,-51,65,-14,-126,-58,-131,-78,-48,-82
78,19,-58,-48,68,-19,-122,-53,-136,-78,-53,-82
73,19,-53,-46,63,-17,-122,-58,-146,-82,-63,-82
73,14,-58,-43,65,-21,-122,-63,-146,-87,-63,-87
68,14,-53,-41,61,-19,-117,-58,-141,-82,-63,-82
68,14,-53,-41,61,-19,-112,-58,-146,-87,-63,-82
68,14,-53,-41,61,-19,-112,-58,-151,-87,-63,-82
68,14,-53,-41,61,-19,-112,-58,-146,-87,-63,-87
68,14,-53,-41,61,-19,-107,-58,-141,-82,-63,-87
68,19,-48,-43,58,-14,-112,-63,-146,-87,-63,-92
68,19,-48,-43,58,-14,-112,-63,-146,-82,-63,-92
63,19,-43,-41,53,-12,-102,-58,-131,-73,-58,-87
63,19,-43,-41,53,-12,-102,-58,-126,-73,-58,-92
63,19,-43,-41,53,-12,-102,-63,-122,-73,-63,-92
53,14,-39,-34,46,-12,-97,-58,-122,-73,-63,-92
48,9,-39,-29,43,-14,-97,-63,-131,-78,-63,-92
39,4,-34,-21,36,-14,-92,-63,-126,-82,-63,-92
24,-14,-39,-4,31,-26,-82,-58,-122,-82,-53,-87
4,-24,-29,9,17,-26,-73,-58,-126,-82,-48,-87
-19,-39,-19,29,0,-29,-58,-48,-126,-78,-43,-78
-34,-53,-19,43,-7,-36,-48,-43,-122,-73,-43,-78
-48,-68,-19,58,-14,-43,-39,-43,-112,-68,-48,-82
-58,-78,-19,68,-19,-48,-34,-43,-122,-73,-53,-92
-68,-92,-24,80,-21,-58,-29,-39,-117,-68,-58,-92
-78,-102,-24,90,-26,-63,-24,-39,-117,-73,-68,-97
-82,-107,-24,95,-29,-65,-19,-39,-112,-73,-68,-102
-87,-112,-24,100,-31,-68,-24,-43,-117,-78,-78,-112
-92,-117,-24,104,-34,-70,-19,-39,-117,-82,-82,-117
-92,-117,-24,104,-34,-70,-19,-43,-122,-82,-92,-122
-92,-117,-24,104,-34,-70,-19,-48,-126,-87,-102,-126
-92,-117,-24,104,-34,-70,-24,-48,-126,-87,-107,-126
-92,-117,-24,104,-34,-70,-24,-48,-126,-92,-107,-126
-92,-122,-29,107,-31,-75,-24,-48,-131,-97,-102,-122
-92,-122,-29,107,-31,-75,-24,-48,-131,-97,-92,-117
-92,-122,-29,107,-31,-75,-24,-48,-131,-102,-82,-112
-97,-122,-24,109,-36,-73,-19,-43,-126,-97,-68,-107
-97,-126,-29,112,-34,-78,-19,-43,-126,-97,-58,-107
-92,-122,-29,107,-31,-75,-24,-48,-126,-97,-63,-112
-92,-122,-29,107,-31,-75,-24,-48,-126,-97,-63,-112
-92,-122,-29,107,-31,-75,-24,-43,-126,-92,-63,-112
-92,-122,-29,107,-31,-75,-24,-43,-122,-87,-63,-112
-92,-117,-24,104,-34,-70,-24,-43,-122,-87,-73,-112
-87,-112,-24,100,-31,-68,-29,-48,-122,-87,-82,-117
-87,-107,-19,97,-34,-63,-29,-43,-112,-87,-82,-117
-87,-107,-19,97,-34,-63,-24,-43,-107,-87,-82,-117
-82,-102,-19,92,-31,-61,-29,-48,-117,-92,-82,-117
-82,-102,-19,92,-31,-61,-29,-48,-117,-92,-82,-117
-82,-102,-19,92,-31,-61,-24,-48,-117,-87,-78,-117
-78,-102,-24,90,-26,-63,-24,-48,-122,-87,-73,-117
-78,-102,-24,90,-26,-63,-24,-48,-126,-82,-68,-117
-78,-102,-24,90,-26,-63,-24,-48,-131,-82,-73,-117
-78,-102,-24,90,-26,-63,-24,-43,-126,-82,-73,-117
-78,-102,-24,90,-26,-63,-24,-43,-122,-82,-78,-117
-78,-97,-19,87,-29,-58,-24,-39,-122,-82,-78,-117
-78,-92,-14,85,-31,-53,-29,-43,-122,-87,-82,-117
-78,-87,-9,82,-34,-48,-29,-43,-117,-87,-82,-112
-78,-87,-9,82,-34,-48,-29,-43,-117,-92,-82,-107
-78,-87,-9,82,-34,-48,-29,-43,-112,-87,-82,-107
-78,-87,-9,82,-34,-48,-29,-48,-112,-87,-78,-107
-78,-87,-9,82,-34,-48,-24,-43,-112,-87,-73,-102
-73,-87,-14,80,-29,-51,-24,-43,-112,-78,-68,-97
-73,-92,-19,82,-26,-56,-24,-43,-107,-73,-63,-97
-68,-92,-24,80,-21,-58,-24,-43,-107,-68,-63,-97
-68,-87,-19,78,-24,-53,-29,-43,-107,-73,-73,-97
-68,-87,-19,78,-24,-53,-29,-39,-107,-68,-73,-97
-68,-87,-19,78,-24,-53,-29,-39,-107,-73,-78,-102
-68,-92,-24,80,-21,-58,-24,-34,-102,-73,-78,-97
-68,-97,-29,82,-19,-63,-24,-34,-102,-78,-78,-102
-68,-102,-34,85,-17,-68,-19,-29,-102,-78,-78,-102
-68,-102,-34,85,-17,-68,-14,-24,-102,-82,-78,-107
-68,-107,-39,87,-14,-73,-9,-14,-107,-82,-73,-107
-63,-117,-53,90,-4,-85,0,-9,-112,-87,-78,-117
-58,-126,-68,92,4,-97,4,4,-122,-92,-82,-126
-58,-131,-73,95,7,-102,19,24,-122,-92,-82,-136
-53,-141,-87,97,17,-114,29,39,-131,-97,-87,-146
-43,-141,-97,92,26,-119,34,48,-126,-97,-92,-151
-34,-131,-97,82,31,-114,43,68,-112,-87,-82,-151
-14,-112,-97,63,41,-104,53,78,-92,-68,-73,-141
19,-78,-97,29,58,-87,58,97,-68,-39,-53,-126
63,-34,-97,-14,80,-65,63,112,-29,0,-24,-102
117,29,-87,-73,102,-29,58,131,24,48,19,-68
190,112,-78,-151,134,17,43,156,78,112,73,-19
283,214,-68,-248,175,73,14,165,131,180,136,48
380,331,-48,-356,214,141,-48,161,185,258,214,117
488,473,-14,-480,251,229,-122,136,244,341,302,204
595,629,34,-612,280,331,-224,92,292,424,390,292
712,790,78,-751,317,434,-336,34,331,502,492,385
834,961,126,-897,353,544,-468,-29,375,590,595,492
951,1132,180,-1041,385,656,-605,-97,414,668,692,585
1068,1293,224,-1180,422,758,-761,-175,424,717,766,673
1161,1429,268,-1295,446,849,-917,-263,400,746,834,746
1234,1542,307,-1388,463,924,-1073,-366,351,741,868,800
1259,1629,370,-1444,444,1000,-1234,-497,273,697,868,839
1234,1688,453,-1461,390,1071,-1381,-658,170,634,854,858
1151,1722,570,-1437,290,1146,-1522,-858,63,541,819,878
1029,1742,712,-1385,158,1227,-1654,-1088,-58,444,775,897
868,1751,883,-1310,-7,1317,-1761,-1327,-170,346,732,912
692,1747,1054,-1220,-180,1400,-1844,-1542,-268,258,688,927
527,1732,1205,-1129,-339,1468,-1883,-1717,-346,175,644,927
375,1693,1317,-1034,-470,1505,-1878,-1815,-414,107,590,912
258,1629,1371,-944,-556,1500,-1825,-1844,-458,43,531,873
180,1542,1361,-861,-590,1451,-1742,-1790,-483,-14,463,814
136,1429,1293,-783,-578,1361,-1615,-1673,-488,-58,380,727
117,1298,1180,-707,-531,1239,-1473,-1517,-478,-92,302,634
112,1166,1054,-639,-470,1110,-1317,-1346,-458,-117,239,541
107,1044,936,-575,-414,990,-1161,-1176,-424,-122,185,463
97,922,824,-509,-363,873,-1005,-1015,-385,-122,146,385
82,800,717,-441,-317,758,-863,-873,-341,-117,117,322
58,697,639,-378,-290,668,-732,-746,-302,-107,97,268
34,614,580,-324,-273,597,-614,-639,-263,-92,97,234
9,522,512,-265,-251,517,-512,-541,-234,-82,82,190
-19,444,463,-212,-241,453,-424,-463,-200,-78,68,151
-43,361,405,-158,-224,383,-341,-390,-170,-73,58,117
-58,297,356,-119,-207,326,-278,-336,-161,-68,43,82
-73,239,312,-82,-192,275,-219,-283,-151,-68,24,53
-87,175,263,-43,-175,219,-161,-234,-141,-63,4,24
-97,122,219,-12,-158,170,-117,-185,-131,-68,-19,0
-107,73,180,17,-143,126,-73,-146,-122,-68,-29,-24
-112,34,146,39,-129,90,-43,-112,-112,-68,-43,-48
-117,-9,107,63,-112,48,-14,-78,-102,-68,-53,-63
-117,-34,82,75,-100,24,9,-53,-97,-68,-58,-78
-122,-58,63,90,-92,2,29,-34,-87,-68,-63,-87
-126,-82,43,104,-85,-19,48,-14,-78,-68,-73,-102
-126,-102,24,114,-75,-39,58,4,-78,-68,-87,-117
-126,-117,9,122,-68,-53,73,14,-82,-73,-102,-126
-131,-126,4,129,-68,-61,82,29,-82,-73,-112,-131
-131,-136,-4,134,-63,-70,92,39,-82,-78,-117,-131
-131,-141,-9,136,-61,-75,92,39,-87,-82,-112,-136
-131,-146,-14,139,-58,-80,102,48,-92,-82,-102,-131
-136,-151,-14,143,-61,-82,102,48,-92,-82,-92,-131
-136,-151,-14,143,-61,-82,107,48,-92,-87,-78,-131
-136,-156,-19,146,-58,-87,112,58,-87,-82,-63,-126
-136,-161,-24,148,-56,-92,117,58,-87,-78,-63,-131
-136,-165,-29,151,-53,-97,122,63,-82,-78,-68,-136
-136,-170,-34,153,-51,-102,126,73,-73,-73,-68,-131
-131,-170,-39,151,-46,-104,122,68,-73,-78,-78,-141
-131,-175,-43,153,-43,-109,126,78,-68,-73,-78,-136
-131,-180,-48,156,-41,-114,126,78,-73,-73,-78,-136
-131,-180,-48,156,-41,-114,131,78,-78,-73,-78,-136
-136,-185,-48,161,-43,-117,136,82,-73,-68,-73,-136
-136,-180,-43,158,-46,-112,131,82,-78,-73,-78,-141
-136,-185,-48,161,-43,-117,141,87,-73,-68,-78,-136
-136,-185,-48,161,-43,-117,141,92,-73,-68,-82,-146
-136,-185,-48,161,-43,-117,141,92,-68,-68,-92,-151
-136,-185,-48,161,-43,-117,146,92,-68,-68,-97,-151
-136,-185,-48,161,-43,-117,146,92,-68,-73,-102,-151
-136,-190,-53,163,-41,-122,146,92,-68,-73,-102,-151
-136,-195,-58,165,-39,-126,146,92,-68,-73,-102,-146
-136,-195,-58,165,-39,-126,151,97,-68,-73,-97,-141
-136,-195,-58,165,-39,-126,151,97,-73,-78,-92,-136
-136,-195,-58,165,-39,-126,151,102,-73,-78,-92,-141
-136,-195,-58,165,-39,-126,156,102,-68,-78,-92,-141
-136,-195,-58,165,-39,-126,156,107,-68,-78,-92,-146
-136,-195,-58,165,-39,-126,156,107,-68,-78,-92,-151
-141,-200,-58,170,-41,-129,165,112,-63,-73,-87,-151
-141,-200,-58,170,-41,-129,165,112,-63,-73,-92,-156
-141,-200,-58,170,-41,-129,165,112,-63,-73,-92,-156
-141,-200,-58,170,-41,-129,170,112,-63,-73,-87,-156
-141,-209,-68,175,-36,-139,170,117,-63,-73,-92,-161
-146,-209,-63,178,-41,-136,180,122,-58,-68,-92,-161
-146,-209,-63,178,-41,-136,180,126,-53,-68,-97,-165
-146,-209,-63,178,-41,-136,180,126,-43,-68,-107,-165
-146,-209,-63,178,-41,-136,185,126,-39,-68,-107,-165
-146,-209,-63,178,-41,-136,185,126,-34,-68,-112,-165
-146,-200,-53,173,-46,-126,185,126,-43,-73,-117,-165
-146,-200,-53,173,-46,-126,190,126,-43,-68,-112,-165
-146,-195,-48,170,-48,-122,190,131,-48,-68,-107,-161
-141,-195,-53,168,-43,-124,195,131,-48,-63,-97,-156
-146,-195,-48,170,-48,-122,195,136,-53,-63,-97,-156
-146,-200,-53,173,-46,-126,195,136,-53,-63,-92,-156
-146,-200,-53,173,-46,-126,204,141,-48,-63,-92,-156
-146,-209,-63,178,-41,-136,209,146,-39,-58,-87,-146
-146,-209,-63,178,-41,-136,214,151,-39,-58,-87,-141
-146,-209,-63,178,-41,-136,214,151,-34,-58,-87,-141
-146,-209,-63,178,-41,-136,219,156,-34,-53,-87,-146
-146,-214,-68,180,-39,-141,229,161,-29,-48,-87,-146
-146,-214,-68,180,-39,-141,229,161,-24,-43,-87,-146
-146,-214,-68,180,-39,-141,234,165,-14,-39,-92,-151
-141,-214,-73,178,-34,-143,234,170,-9,-34,-92,-156
-141,-214,-73,178,-34,-143,239,175,-9,-34,-87,-151
-141,-214,-73,178,-34,-143,239,175,-9,-34,-78,-151
-146,-214,-68,180,-39,-141,244,180,-9,-34,-73,-146
-146,-214,-68,180,-39,-141,248,185,-9,-34,-63,-146
-146,-214,-68,180,-39,-141,253,190,-9,-34,-58,-141
-151,-209,-58,180,-46,-134,253,195,0,-29,-58,-141
-146,-209,-63,178,-41,-136,258,204,4,-24,-58,-136
-146,-209,-63,178,-41,-136,263,209,9,-19,-58,-136
-146,-209,-63,178,-41,-136,263,214,14,-14,-58,-136
-141,-209,-68,175,-36,-139,263,214,9,-19,-63,-141
-141,-200,-58,170,-41,-129,268,224,14,-14,-63,-141
-136,-200,-63,168,-36,-131,278,229,19,-14,-63,-136
-136,-195,-58,165,-39,-126,278,234,14,-14,-68,-141
-131,-195,-63,163,-34,-129,283,239,19,-14,-63,-141
-131,-190,-58,161,-36,-124,287,248,24,-9,-63,-141
-126,-190,-63,158,-31,-126,287,248,29,-9,-68,-146
-122,-190,-68,156,-26,-129,292,253,34,0,-63,-151
-122,-190,-68,156,-26,-129,297,263,39,4,-58,-151
-117,-190,-73,153,-21,-131,302,268,43,9,-58,-146
-117,-195,-78,156,-19,-136,312,278,48,9,-53,-141
-117,-195,-78,156,-19,-136,317,287,58,14,-53,-136
-117,-195,-78,156,-19,-136,326,297,58,19,-48,-131
-112,-195,-82,153,-14,-139,331,307,63,29,-43,-131
-112,-190,-78,151,-17,-134,331,307,68,24,-48,-136
-112,-190,-78,151,-17,-134,341,317,68,29,-43,-136
-107,-190,-82,148,-12,-136,346,326,73,39,-43,-136
-102,-185,-82,143,-9,-134,346,331,73,39,-48,-141
-97,-180,-82,139,-7,-131,356,336,78,43,-48,-141
-97,-175,-78,136,-9,-126,356,341,82,43,-48,-141
-92,-175,-82,134,-4,-129,366,351,87,43,-43,-136
-87,-175,-87,131,0,-131,370,366,92,48,-34,-131
-82,-170,-87,126,2,-129,375,370,97,53,-34,-136
-78,-170,-92,124,7,-131,380,380,107,58,-24,-131
-73,-170,-97,122,12,-134,385,385,112,58,-19,-131
-68,-170,-102,119,17,-136,390,395,122,68,-9,-126
-63,-170,-107,117,21,-139,400,414,131,78,-9,-122
-58,-165,-107,112,24,-136,400,419,131,78,-14,-122
-53,-161,-107,107,26,-134,409,429,131,78,-19,-122
-53,-156,-102,104,24,-129,419,439,141,82,-19,-117
-48,-151,-102,100,26,-126,419,448,141,82,-19,-112
-39,-141,-102,90,31,-122,424,453,141,87,-19,-107
-29,-136,-107,82,39,-122,424,458,141,87,-9,-107
-24,-126,-102,75,39,-114,429,463,146,92,9,-107
-19,-122,-102,70,41,-112,429,473,146,97,24,-107
-9,-122,-112,65,51,-117,439,488,151,107,34,-102
4,-117,-122,56,63,-119,439,492,156,112,29,-102
9,-112,-122,51,65,-117,444,497,161,117,24,-97
14,-102,-117,43,65,-109,444,502,165,117,24,-97
24,-97,-122,36,73,-109,444,512,175,122,24,-92
29,-92,-122,31,75,-107,439,512,180,122,24,-87
39,-87,-126,24,82,-107,439,517,185,126,29,-87
43,-82,-126,19,85,-104,444,522,190,136,39,-78
48,-78,-126,14,87,-102,439,527,190,136,43,-73
58,-73,-131,7,95,-102,439,527,195,141,43,-73
63,-63,-126,0,95,-95,439,531,204,146,48,-68
73,-48,-122,-12,97,-85,434,531,195,151,43,-68
82,-34,-117,-24,100,-75,429,531,204,156,48,-58
92,-19,-112,-36,102,-65,424,527,195,156,53,-58
97,-9,-107,-43,102,-58,414,527,195,161,63,-53
107,4,-102,-56,104,-48,409,522,195,165,73,-48
112,9,-102,-61,107,-46,400,522,195,165,78,-39
122,14,-107,-68,114,-46,390,517,195,165,78,-34
122,19,-102,-70,112,-41,385,512,204,165,82,-29
126,19,-107,-73,117,-43,375,502,204,165,82,-29
131,24,-107,-78,119,-41,366,502,204,170,92,-24
141,29,-112,-85,126,-41,356,488,195,170,97,-19
146,39,-107,-92,126,-34,336,478,190,165,102,-19
151,48,-102,-100,126,-26,326,463,185,165,107,-14
156,63,-92,-109,124,-14,307,444,170,161,102,-14
156,73,-82,-114,119,-4,292,429,175,165,107,0
161,82,-78,-122,119,2,278,409,170,161,102,0
161,87,-73,-124,117,7,258,385,156,156,97,0
161,87,-73,-124,117,7,244,370,151,151,97,4
161,92,-68,-126,114,12,229,351,141,151,97,4
161,92,-68,-126,114,12,209,331,136,146,97,9
161,97,-63,-129,112,17,190,312,122,141,97,9
156,97,-58,-126,107,19,175,292,112,136,92,9
151,102,-48,-126,100,26,161,273,102,131,92,14
151,107,-43,-129,97,31,146,253,97,122,92,14
146,107,-39,-126,92,34,131,234,87,117,87,14
141,112,-29,-126,85,41,112,219,82,107,82,14
141,117,-24,-129,82,46,102,195,73,97,73,14
136,117,-19,-126,78,48,82,175,63,92,63,19
131,117,-14,-124,73,51,68,156,53,82,53,14
122,112,-9,-117,65,51,58,141,48,78,48,14
112,107,-4,-109,58,51,53,126,43,73,43,19
102,97,-4,-100,53,46,53,117,43,73,53,19
97,92,-4,-95,51,43,43,102,29,68,48,9
87,87,0,-87,43,43,39,92,24,58,48,4
82,82,0,-82,41,41,34,82,24,58,48,-9
82,78,-4,-80,43,36,24,73,14,53,43,-19
78,68,-9,-73,43,29,19,63,4,48,43,-24
73,58,-14,-65,43,21,14,53,0,43,29,-34
63,48,-14,-56,39,17,14,48,4,43,24,-34
58,43,-14,-51,36,14,9,39,-9,34,9,-43
48,34,-14,-41,31,9,14,39,-9,34,14,-39
43,29,-14,-36,29,7,9,29,-14,24,4,-43
39,24,-14,-31,26,4,9,24,-14,19,4,-39
34,24,-9,-29,21,7,4,19,-24,14,9,-34
29,29,0,-29,14,14,0,14,-34,9,14,-34
24,29,4,-26,9,17,0,9,-34,9,24,-29
19,24,4,-21,7,14,-9,4,-39,4,19,-34
14,24,9,-19,2,17,-9,0,-39,0,19,-29
9,24,14,-17,-2,19,-9,-9,-43,-9,14,-34
4,19,14,-12,-4,17,-9,-9,-39,-9,9,-34
4,14,9,-9,-2,12,-9,-14,-43,-14,4,-43
0,14,14,-7,-7,14,-14,-14,-48,-19,-14,-43
0,9,9,-4,-4,9,-14,-14,-48,-19,-19,-43
-9,4,14,2,-12,9,-14,-19,-48,-24,-24,-53
-9,0,9,4,-9,4,-14,-19,-43,-19,-19,-53
-14,-9,4,12,-9,-2,-14,-24,-53,-19,-24,-53
-19,-9,9,14,-14,0,-9,-19,-53,-14,-24,-48
-19,-14,4,17,-12,-4,-9,-24,-53,-14,-24,-48
-19,-14,4,17,-12,-4,-9,-24,-53,-14,-24,-48
-19,-14,4,17,-12,-4,-9,-24,-58,-14,-24,-48
-19,-14,4,17,-12,-4,-14,-24,-63,-19,-24,-53
-19,-19,0,19,-9,-9,-14,-29,-63,-19,-19,-58
-24,-24,0,24,-12,-12,-9,-24,-58,-19,-14,-58
-24,-24,0,24,-12,-12,-14,-29,-63,-19,-9,-63
-24,-29,-4,26,-9,-17,-14,-29,-68,-24,0,-63
-29,-29,0,29,-14,-14,-9,-24,-63,-24,4,-63
-34,-34,0,34,-17,-17,-9,-24,-63,-24,4,-68
-34,-34,0,34,-17,-17,-9,-24,-63,-24,-9,-73
-34,-34,0,34,-17,-17,-9,-24,-68,-29,-14,-78
-34,-34,0,34,-17,-17,-9,-24,-63,-24,-19,-82
-34,-34,0,34,-17,-17,-9,-29,-63,-24,-19,-82
-34,-39,-4,36,-14,-21,-9,-24,-58,-24,-19,-78
-29,-34,-4,31,-12,-19,-9,-29,-63,-29,-24,-82
-34,-34,0,34,-17,-17,-9,-34,-58,-24,-24,-78
-34,-34,0,34,-17,-17,-9,-34,-58,-24,-19,-73
-34,-34,0,34,-17,-17,-9,-34,-58,-24,-19,-68
-39,-34,4,36,-21,-14,0,-29,-53,-19,-19,-58
-39,-34,4,36,-21,-14,0,-29,-53,-19,-19,-53
-39,-34,4,36,-21,-14,0,-34,-58,-19,-19,-53
-34,-29,4,31,-19,-12,-9,-34,-63,-24,-29,-53
-39,-29,9,34,-24,-9,-9,-34,-63,-29,-29,-53
-39,-29,9,34,-24,-9,-9,-39,-63,-29,-34,-58
-39,-29,9,34,-24,-9,-9,-34,-63,-34,-34,-58
-39,-29,9,34,-24,-9,-9,-34,-68,-34,-29,-63
-39,-29,9,34,-24,-9,-9,-39,-68,-34,-34,-63
-43,-34,9,39,-26,-12,0,-34,-63,-29,-29,-63
-43,-34,9,39,-26,-12,0,-34,-63,-24,-29,-68
-43,-34,9,39,-26,-12,0,-34,-63,-24,-24,-68
-43,-39,4,41,-24,-17,0,-34,-58,-24,-24,-68
-43,-39,4,41,-24,-17,0,-34,-53,-24,-24,-68
-43,-34,9,39,-26,-12,0,-34,-53,-29,-19,-68
-43,-34,9,39,-26,-12,-9,-34,-58,-29,-14,-73
-43,-39,4,41,-24,-17,-9,-34,-63,-29,-14,-73
-43,-43,0,43,-21,-21,0,-34,-58,-24,-14,-68
-48,-43,4,46,-26,-19,0,-34,-58,-24,-14,-68
-48,-48,0,48,-24,-24,0,-34,-58,-19,-14,-68
-48,-53,-4,51,-21,-29,4,-29,-53,-14,-14,-63
-53,-53,0,53,-26,-26,4,-29,-53,-14,-19,-63
-53,-53,0,53,-26,-26,4,-34,-48,-19,-24,-63
-58,-48,9,53,-34,-19,4,-34,-48,-24,-29,-63
-58,-43,14,51,-36,-14,4,-34,-48,-24,-29,-63
-58,-43,14,51,-36,-14,4,-34,-48,-24,-29,-63
-53,-39,14,46,-34,-12,0,-39,-58,-29,-39,-73
-53,-39,14,46,-34,-12,0,-39,-63,-29,-43,-78
-53,-39,14,46,-34,-12,0,-39,-58,-29,-48,-78
-53,-39,14,46,-34,-12,0,-39,-58,-29,-48,-78
-53,-39,14,46,-34,-12,0,-39,-63,-29,-48,-78
-53,-39,14,46,-34,-12,0,-39,-63,-29,-48,-78
-58,-43,14,51,-36,-14,4,-34,-58,-29,-48,-73
-58,-43,14,51,-36,-14,4,-34,-58,-29,-43,-73
-58,-43,14,51,-36,-14,4,-34,-58,-24,-43,-73
-58,-43,14,51,-36,-14,4,-34,-53,-24,-43,-68
-58,-43,14,51,-36,-14,4,-34,-48,-24,-43,-68
-58,-43,14,51,-36,-14,4,-34,-48,-24,-39,-63
-58,-48,9,53,-34,-19,9,-34,-48,-19,-24,-63
-58,-53,4,56,-31,-24,9,-34,-48,-19,-19,-63
-58,-58,0,58,-29,-29,14,-29,-48,-14,-9,-58
-58,-63,-4,61,-26,-34,14,-29,-58,-14,0,-63
-58,-68,-9,63,-24,-39,9,-29,-58,-14,0,-63
-58,-73,-14,65,-21,-43,14,-24,-53,-14,-9,-68
-58,-68,-9,63,-24,-39,9,-29,-58,-24,-24,-73
-58,-68,-9,63,-24,-39,9,-29,-58,-29,-29,-78
-58,-68,-9,63,-24,-39,9,-29,-58,-34,-29,-78
-58,-63,-4,61,-26,-34,9,-29,-58,-29,-29,-82
-58,-58,0,58,-29,-29,14,-29,-58,-29,-29,-82
-58,-53,4,56,-31,-24,9,-29,-63,-34,-34,-82
-58,-53,4,56,-31,-24,9,-29,-68,-29,-29,-82
-58,-48,9,53,-34,-19,9,-29,-63,-29,-34,-78
-58,-43,14,51,-36,-14,9,-29,-63,-34,-34,-78
-58,-43,14,51,-36,-14,9,-29,-68,-34,-34,-78
-58,-48,9,53,-34,-19,4,-34,-68,-34,-34,-87
-58,-53,4,56,-31,-24,4,-34,-63,-34,-34,-87
-63,-58,4,61,-34,-26,9,-29,-58,-29,-34,-87
-63,-63,0,63,-31,-31,9,-29,-58,-29,-34,-87
-63,-68,-4,65,-29,-36,14,-24,-58,-29,-29,-82
-63,-68,-4,65,-29,-36,9,-24,-58,-29,-29,-78
-63,-63,0,63,-31,-31,4,-29,-63,-39,-39,-82
-58,-58,0,58,-29,-29,4,-29,-68,-39,-39,-82
-58,-58,0,58,-29,-29,4,-29,-73,-39,-39,-82
-63,-58,4,61,-34,-26,4,-29,-73,-39,-39,-82
-63,-58,4,61,-34,-26,4,-29,-68,-43,-43,-87
-63,-58,4,61,-34,-26,4,-29,-68,-43,-48,-87
-63,-58,4,61,-34,-26,4,-29,-68,-43,-48,-87
-63,-63,0,63,-31,-31,4,-29,-68,-43,-43,-87
-63,-68,-4,65,-29,-36,4,-24,-68,-34,-39,-82
-58,-68,-9,63,-24,-39,0,-29,-73,-39,-43,-87
-58,-73,-14,65,-21,-43,4,-24,-73,-34,-39,-82
-58,-73,-14,65,-21,-43,4,-24,-82,-39,-39,-82
-58,-73,-14,65,-21,-43,4,-24,-87,-39,-39,-82
-63,-73,-9,68,-26,-41,4,-24,-87,-43,-43,-87
-63,-73,-9,68,-26,-41,4,-24,-82,-43,-43,-87
-63,-73,-9,68,-26,-41,4,-24,-82,-43,-48,-87
-63,-73,-9,68,-26,-41,4,-24,-82,-43,-48,-92
-63,-78,-14,70,-24,-46,4,-24,-78,-48,-53,-92
-63,-78,-14,70,-24,-46,0,-29,-73,-48,-53,-92
-63,-82,-19,73,-21,-51,4,-24,-73,-43,-53,-92
-63,-82,-19,73,-21,-51,4,-24,-73,-43,-53,-92
-63,-82,-19,73,-21,-51,4,-24,-73,-43,-58,-87
-63,-82,-19,73,-21,-51,4,-24,-73,-43,-53,-87
-63,-78,-14,70,-24,-46,0,-34,-82,-43,-58,-87
-63,-78,-14,70,-24,-46,0,-34,-78,-43,-53,-82
-63,-78,-14,70,-24,-46,0,-29,-78,-43,-48,-82
-63,-78,-14,70,-24,-46,-9,-34,-78,-48,-48,-82
-63,-82,-19,73,-21,-51,0,-29,-73,-48,-43,-78
-63,-82,-19,73,-21,-51,0,-29,-78,-48,-43,-78
-63,-82,-19,73,-21,-51,0,-29,-78,-53,-43,-82
-63,-78,-14,70,-24,-46,-9,-34,-82,-58,-48,-87
-63,-78,-14,70,-24,-46,-9,-34,-78,-58,-58,-87
-63,-78,-14,70,-24,-46,-9,-34,-78,-58,-63,-87
-63,-73,-9,68,-26,-41,-9,-34,-78,-58,-68,-87
-63,-73,-9,68,-26,-41,-14,-34,-78,-53,-68,-87
-63,-73,-9,68,-26,-41,-14,-34,-82,-53,-73,-82
-63,-73,-9,68,-26,-41,-14,-34,-87,-53,-73,-82
-63,-73,-9,68,-26,-41,-14,-34,-87,-58,-63,-82
-63,-73,-9,68,-26,-41,-14,-34,-87,-53,-58,-78
-58,-73,-14,65,-21,-43,-9,-34,-87,-48,-48,-78
-58,-73,-14,65,-21,-43,-9,-34,-82,-43,-43,-78
-58,-78,-19,68,-19,-48,-9,-34,-82,-43,-39,-78
-58,-73,-14,65,-21,-43,-14,-34,-82,-39,-34,-78
-58,-73,-14,65,-21,-43,-14,-34,-87,-39,-34,-78
-58,-73,-14,65,-21,-43,-14,-39,-87,-39,-34,-82
-58,-73,-14,65,-21,-43,-14,-39,-82,-43,-34,-82
-58,-73,-14,65,-21,-43,-14,-39,-82,-43,-39,-87
-53,-73,-19,63,-17,-46,-19,-39,-92,-53,-48,-102
-53,-73,-19,63,-17,-46,-19,-39,-92,-53,-53,-107
-53,-73,-19,63,-17,-46,-24,-43,-92,-58,-63,-107
-58,-78,-19,68,-19,-48,-19,-39,-87,-58,-58,-97
-58,-82,-24,70,-17,-53,-24,-39,-97,-58,-58,-97
-58,-82,-24,70,-17,-53,-24,-39,-102,-58,-53,-92
-58,-82,-24,70,-17,-53,-19,-43,-102,-58,-48,-87
-58,-82,-24,70,-17,-53,-19,-43,-97,-58,-43,-87
-58,-82,-24,70,-17,-53,-19,-39,-97,-53,-43,-87
-58,-78,-19,68,-19,-48,-19,-39,-92,-48,-43,-87
-58,-73,-14,65,-21,-43,-19,-39,-87,-48,-43,-92
-58,-73,-14,65,-21,-43,-19,-39,-82,-43,-43,-92
-58,-68,-9,63,-24,-39,-19,-43,-87,-43,-43,-92
-53,-68,-14,61,-19,-41,-19,-39,-82,-43,-43,-87
-53,-63,-9,58,-21,-36,-14,-39,-78,-39,-43,-82
-48,-58,-9,53,-19,-34,-14,-39,-78,-39,-43,-78
-48,-53,-4,51,-21,-29,-14,-34,-73,-34,-39,-73
-43,-48,-4,46,-19,-26,-14,-34,-68,-34,-34,-68
-39,-43,-4,41,-17,-24,-14,-34,-68,-34,-34,-68
-39,-39,0,39,-19,-19,-9,-34,-63,-29,-29,-63
-34,-29,4,31,-19,-12,-9,-39,-58,-29,-29,-63
-34,-24,9,29,-21,-7,0,-34,-53,-24,-19,-58
-29,-14,14,21,-21,0,4,-39,-53,-19,-19,-58
-29,-14,14,21,-21,0,9,-34,-48,-14,-14,-58
-29,-14,14,21,-21,0,14,-34,-43,-9,-9,-58
-29,-9,19,19,-24,4,14,-34,-43,-9,-9,-63
-29,-9,19,19,-24,4,14,-29,-39,0,-14,-63
-29,-14,14,21,-21,0,14,-24,-39,0,-14,-63
-29,-14,14,21,-21,0,14,-24,-39,0,-19,-63
-24,-19,4,21,-14,-7,14,-24,-39,0,-19,-58
-24,-24,0,24,-12,-12,14,-24,-39,-9,-14,-58
-19,-29,-9,24,-4,-19,9,-24,-48,-9,-19,-63
-19,-34,-14,26,-2,-24,9,-24,-48,-9,-19,-63
-14,-34,-19,24,2,-26,4,-24,-48,-9,-19,-68
-14,-34,-19,24,2,-26,4,-19,-48,-9,-19,-73
-9,-29,-19,19,4,-24,-9,-24,-53,-14,-34,-78
0,-24,-24,12,12,-24,-19,-19,-53,-19,-43,-78
4,-24,-29,9,17,-26,-34,-24,-58,-29,-48,-78
9,-14,-24,2,17,-19,-43,-34,-63,-34,-48,-73
14,-9,-24,-2,19,-17,-53,-34,-68,-34,-39,-58
19,0,-19,-9,19,-9,-68,-43,-82,-39,-39,-53
19,4,-14,-12,17,-4,-78,-48,-82,-39,-29,-43
24,9,-14,-17,19,-2,-87,-58,-87,-39,-19,-43
29,19,-9,-24,19,4,-97,-58,-92,-39,-14,-39
39,24,-14,-31,26,4,-102,-63,-87,-34,-14,-39
48,29,-19,-39,34,4,-107,-68,-87,-34,-19,-39
58,34,-24,-46,41,4,-117,-68,-92,-34,-24,-43
68,39,-29,-53,48,4,-122,-68,-97,-34,-29,-48
73,39,-34,-56,53,2,-117,-58,-97,-39,-29,-48
78,39,-39,-58,58,0,-126,-63,-107,-48,-34,-58
82,29,-53,-56,68,-12,-126,-53,-112,-53,-34,-58
82,24,-58,-53,70,-17,-126,-53,-122,-63,-39,-68
82,14,-68,-48,75,-26,-126,-53,-126,-63,-39,-68
82,9,-73,-46,78,-31,-126,-58,-131,-68,-43,-73
78,4,-73,-41,75,-34,-126,-58,-136,-68,-48,-68
78,0,-78,-39,78,-39,-126,-58,-141,-73,-53,-73
73,-9,-82,-31,78,-46,-122,-58,-136,-68,-53,-73
73,-14,-87,-29,80,-51,-117,-58,-136,-73,-53,-78
73,-14,-87,-29,80,-51,-117,-58,-131,-73,-53,-78
78,-14,-92,-31,85,-53,-112,-58,-131,-78,-48,-78
78,-14,-92,-31,85,-53,-107,-58,-131,-73,-48,-78
78,-9,-87,-34,82,-48,-112,-58,-131,-73,-48,-78
78,0,-78,-39,78,-39,-112,-58,-126,-68,-43,-73
73,9,-63,-41,68,-26,-107,-63,-126,-68,-43,-68
68,9,-58,-39,63,-24,-107,-63,-126,-63,-43,-68
63,14,-48,-39,56,-17,-107,-68,-126,-63,-48,-68
58,14,-43,-36,51,-14,-102,-68,-126,-63,-53,-73
53,9,-43,-31,48,-17,-97,-68,-126,-63,-53,-73
43,4,-39,-24,41,-17,-92,-68,-122,-63,-58,-73
34,-9,-43,-12,39,-26,-87,-68,-122,-63,-58,-78
19,-19,-39,0,29,-29,-78,-63,-122,-63,-53,-78
0,-34,-34,17,17,-34,-68,-63,-117,-63,-53,-78
-19,-43,-24,31,2,-34,-58,-63,-117,-63,-53,-78
-39,-58,-19,48,-9,-39,-48,-58,-112,-63,-48,-82
-53,-73,-19,63,-17,-46,-39,-58,-112,-63,-53,-87
-63,-82,-19,73,-21,-51,-29,-53,-112,-63,-53,-87
-68,-97,-29,82,-19,-63,-29,-48,-112,-68,-58,-97
-73,-107,-34,90,-19,-70,-24,-48,-117,-68,-63,-102
-78,-112,-34,95,-21,-73,-19,-43,-117,-68,-63,-102
-82,-122,-39,102,-21,-80,-19,-43,-112,-73,-63,-107
-87,-126,-39,107,-24,-82,-19,-48,-117,-78,-68,-112
-87,-131,-43,109,-21,-87,-14,-43,-112,-73,-68,-112
-87,-131,-43,109,-21,-87,-14,-43,-112,-78,-73,-117
-92,-131,-39,112,-26,-85,-19,-43,-112,-78,-82,-117
-92,-131,-39,112,-26,-85,-19,-48,-112,-78,-87,-122
-92,-131,-39,112,-26,-85,-24,-48,-112,-78,-87,-122
-92,-126,-34,109,-29,-80,-24,-48,-112,-78,-87,-117
-92,-122,-29,107,-31,-75,-29,-53,-117,-82,-87,-112
-87,-122,-34,104,-26,-78,-29,-53,-117,-82,-82,-107
-87,-122,-34,104,-26,-78,-29,-53,-112,-82,-73,-97
-87,-122,-34,104,-26,-78,-24,-48,-112,-82,-68,-97
-82,-117,-34,100,-24,-75,-29,-53,-117,-82,-68,-97
-82,-122,-39,102,-21,-80,-24,-43,-112,-78,-63,-97
-82,-122,-39,102,-21,-80,-24,-43,-107,-73,-63,-97
-82,-122,-39,102,-21,-80,-24,-48,-112,-73,-58,-102
-82,-122,-39,102,-21,-80,-24,-48,-117,-68,-53,-102
-82,-117,-34,100,-24,-75,-29,-48,-117,-68,-53,-102
-82,-117,-34,100,-24,-75,-29,-48,-112,-63,-53,-102
-82,-112,-29,97,-26,-70,-29,-48,-107,-58,-48,-97
-78,-107,-29,92,-24,-68,-29,-53,-107,-63,-53,-97
-78,-102,-24,90,-26,-63,-29,-48,-107,-58,-53,-92
-73,-102,-29,87,-21,-65,-29,-48,-107,-63,-53,-92
-73,-102,-29,87,-21,-65,-29,-48,-107,-63,-53,-92
-73,-102,-29,87,-21,-65,-29,-48,-107,-63,-53,-97
-73,-107,-34,90,-19,-70,-29,-48,-112,-63,-58,-102
-73,-112,-39,92,-17,-75,-29,-48,-117,-63,-63,-102
-73,-112,-39,92,-17,-75,-29,-48,-112,-68,-63,-107
-73,-112,-39,92,-17,-75,-29,-48,-107,-68,-73,-107
-73,-107,-34,90,-19,-70,-29,-48,-107,-63,-78,-102
-73,-102,-29,87,-21,-65,-29,-48,-107,-63,-78,-97
-73,-97,-24,85,-24,-61,-34,-48,-107,-63,-82,-97
-68,-92,-24,80,-21,-58,-29,-48,-107,-58,-78,-87
-68,-92,-24,80,-21,-58,-29,-48,-107,-58,-68,-82
-68,-92,-24,80,-21,-58,-24,-48,-102,-58,-58,-78
-68,-97,-29,82,-19,-63,-24,-48,-102,-58,-48,-78
-63,-97,-34,80,-14,-65,-24,-43,-102,-58,-43,-73
-63,-97,-34,80,-14,-65,-19,-43,-102,-58,-39,-73
-63,-97,-34,80,-14,-65,-19,-43,-97,-58,-34,-73
-63,-97,-34,80,-14,-65,-19,-43,-97,-53,-39,-78
-63,-97,-34,80,-14,-65,-19,-39,-92,-58,-43,-78
-63,-92,-29,78,-17,-61,-29,-43,-97,-63,-53,-87
-63,-87,-24,75,-19,-56,-29,-39,-97,-63,-58,-97
-68,-92,-24,80,-21,-58,-19,-34,-97,-58,-63,-102
-63,-97,-34,80,-14,-65,-19,-24,-102,-63,-78,-112
-63,-102,-39,82,-12,-70,-14,-14,-112,-73,-82,-122
-58,-112,-53,85,-2,-82,-9,4,-117,-78,-92,-131
-53,-126,-73,90,9,-100,9,24,-117,-78,-102,-141
-48,-131,-82,90,17,-107,19,39,-112,-82,-107,-141
-39,-131,-92,85,26,-112,29,48,-107,-78,-102,-136
-19,-122,-102,70,41,-112,39,63,-87,-68,-92,-126
4,-97,-102,46,53,-100,48,82,-63,-43,-73,-112
39,-58,-97,9,68,-78,58,97,-39,-14,-43,-87
87,0,-87,-43,87,-43,58,117,4,34,0,-58
156,68,-87,-112,122,-9,48,136,48,87,53,-14
239,151,-87,-195,163,31,29,156,102,151,117,39
331,263,-68,-297,200,97,-14,161,151,224,190,97
439,385,-53,-412,246,165,-78,151,209,302,273,165
546,527,-19,-536,283,253,-161,117,263,380,361,248
663,683,19,-673,322,351,-268,68,307,463,453,336
780,849,68,-814,356,458,-385,9,346,536,546,434
907,1024,117,-966,395,570,-527,-58,385,619,639,527
1034,1190,156,-1112,439,673,-678,-136,409,688,722,619
1137,1346,209,-1241,463,778,-834,-219,414,732,790,702
1229,1483,253,-1356,488,868,-995,-312,375,741,829,766
1278,1590,312,-1434,483,951,-1156,-434,312,722,844,814
1283,1673,390,-1478,446,1032,-1317,-570,229,668,844,849
1234,1722,488,-1478,373,1105,-1468,-756,117,590,819,868
1132,1747,614,-1439,258,1180,-1600,-971,4,502,780,883
985,1761,775,-1373,104,1268,-1727,-1215,-122,395,741,893
819,1761,941,-1290,-61,1351,-1820,-1449,-229,307,702,907
644,1742,1098,-1193,-226,1420,-1883,-1649,-307,229,673,917
478,1708,1229,-1093,-375,1468,-1903,-1786,-370,151,629,907
336,1649,1312,-993,-488,1481,-1878,-1864,-424,87,570,883
234,1566,1332,-900,-549,1449,-1800,-1849,-448,34,517,839
170,1464,1293,-817,-561,1378,-1693,-1756,-458,-19,448,766
136,1342,1205,-739,-534,1273,-1556,-1615,-463,-58,370,683
122,1210,1088,-666,-483,1149,-1405,-1454,-453,-82,307,595
117,1088,971,-602,-427,1029,-1254,-1288,-439,-97,248,517
107,966,858,-536,-375,912,-1098,-1117,-400,-97,209,448
97,854,756,-475,-329,805,-946,-961,-366,-102,165,375
73,741,668,-407,-297,705,-805,-824,-331,-92,131,317
43,649,605,-346,-280,627,-678,-702,-283,-73,117,278
19,566,546,-292,-263,556,-566,-600,-234,-58,102,239
0,488,488,-244,-244,488,-478,-522,-200,-53,78,195
-29,414,444,-192,-236,429,-390,-448,-180,-53,63,156
-48,341,390,-146,-219,366,-322,-375,-161,-43,53,122
-63,278,341,-107,-202,309,-253,-317,-141,-39,48,97
-73,219,292,-73,-183,256,-200,-268,-131,-48,29,68
-87,156,244,-34,-165,200,-146,-219,-122,-48,19,39
-97,107,204,-4,-151,156,-107,-170,-112,-48,0,14
-102,63,165,19,-134,114,-63,-126,-102,-48,-19,-14
-107,24,131,41,-119,78,-34,-97,-92,-48,-39,-34
-107,-14,92,61,-100,39,-9,-73,-87,-53,-48,-53
-112,-39,73,75,-92,17,14,-48,-82,-53,-53,-63
-112,-63,48,87,-80,-7,34,-29,-82,-53,-63,-73
-117,-82,34,100,-75,-24,48,-19,-87,-58,-73,-87
-122,-102,19,112,-70,-41,63,4,-82,-58,-73,-97
-122,-117,4,119,-63,-56,78,19,-82,-58,-78,-107
-122,-126,-4,124,-58,-65,87,29,-82,-58,-78,-117
-122,-136,-14,129,-53,-75,87,34,-78,-58,-82,-126
-122,-141,-19,131,-51,-80,97,43,-68,-53,-82,-131
-117,-141,-24,129,-46,-82,92,39,-73,-58,-87,-136
-117,-151,-34,134,-41,-92,102,48,-73,-58,-82,-126
-122,-151,-29,136,-46,-90,102,48,-73,-63,-87,-126
-122,-156,-34,139,-43,-95,112,58,-68,-58,-82,-117
-126,-156,-29,141,-48,-92,117,58,-68,-63,-82,-112
-126,-156,-29,141,-48,-92,117,63,-73,-63,-82,-112
-131,-161,-29,146,-51,-95,126,68,-68,-63,-73,-107
-131,-161,-29,146,-51,-95,126,73,-73,-63,-73,-112
-131,-165,-34,148,-48,-100,126,73,-73,-63,-68,-117
-126,-170,-43,148,-41,-107,126,73,-78,-63,-68,-122
-126,-175,-48,151,-39,-112,126,73,-78,-68,-63,-122
-126,-180,-53,153,-36,-117,136,78,-73,-63,-58,-117
-126,-180,-53,153,-36,-117,136,78,-73,-63,-53,-117
-126,-180,-53,153,-36,-117,136,82,-68,-58,-53,-122
-126,-180,-53,153,-36,-117,141,87,-63,-58,-58,-126
-126,-185,-58,156,-34,-122,141,87,-63,-53,-63,-131
-126,-190,-63,158,-31,-126,141,92,-63,-58,-73,-136
-126,-195,-68,161,-29,-131,146,92,-58,-53,-73,-141
-126,-195,-68,161,-29,-131,146,92,-58,-58,-78,-141
-131,-200,-68,165,-31,-134,146,92,-58,-58,-82,-136
-131,-195,-63,163,-34,-129,151,92,-58,-58,-82,-136
-131,-195,-63,163,-34,-129,151,97,-58,-58,-78,-131
-131,-190,-58,161,-36,-124,156,97,-53,-58,-78,-126
-131,-190,-58,161,-36,-124,156,102,-48,-53,-78,-126
-131,-185,-53,158,-39,-119,156,97,-48,-58,-82,-126
-131,-185,-53,158,-39,-119,156,97,-48,-53,-82,-126
-131,-185,-53,158,-39,-119,156,102,-43,-58,-82,-126
-131,-185,-53,158,-39,-119,161,102,-39,-53,-78,-126
-136,-185,-48,161,-43,-117,165,107,-39,-48,-68,-122
-136,-185,-48,161,-43,-117,170,112,-43,-48,-63,-126
-136,-190,-53,163,-41,-122,170,112,-43,-43,-63,-126
-136,-190,-53,163,-41,-122,170,117,-43,-43,-63,-126
-136,-195,-58,165,-39,-126,170,117,-48,-43,-63,-131
-136,-200,-63,168,-36,-131,180,122,-48,-39,-63,-126
-136,-200,-63,168,-36,-131,180,122,-48,-39,-68,-131
-136,-200,-63,168,-36,-131,180,126,-43,-39,-73,-131
-141,-200,-58,170,-41,-129,185,126,-39,-43,-73,-136
-141,-200,-58,170,-41,-129,190,126,-34,-48,-78,-136
-141,-195,-53,168,-43,-124,195,131,-29,-48,-78,-136
-141,-190,-48,165,-46,-119,190,131,-29,-48,-87,-141
-136,-185,-48,161,-43,-117,195,136,-24,-43,-92,-141
-136,-185,-48,161,-43,-117,195,141,-24,-43,-97,-136
-136,-185,-48,161,-43,-117,195,141,-24,-39,-102,-136
-136,-180,-43,158,-46,-112,195,141,-29,-43,-102,-136
-136,-185,-48,161,-43,-117,204,146,-24,-39,-92,-131
-136,-190,-53,163,-41,-122,204,146,-19,-34,-82,-131
-141,-190,-48,165,-46,-119,209,151,-14,-34,-73,-131
-141,-190,-48,165,-46,-119,214,151,-9,-29,-58,-131
-141,-195,-53,168,-43,-124,224,161,0,-24,-43,-126
-141,-200,-58,170,-41,-129,224,165,0,-19,-43,-126
-136,-200,-63,168,-36,-131,229,170,4,-14,-43,-122
-136,-200,-63,168,-36,-131,234,175,4,-14,-43,-122
-136,-195,-58,165,-39,-126,234,175,0,-14,-48,-126
-136,-195,-58,165,-39,-126,234,175,0,-14,-53,-126
-131,-195,-63,163,-34,-129,239,185,4,-14,-63,-126
-131,-190,-58,161,-36,-124,244,190,9,-14,-63,-126
-131,-190,-58,161,-36,-124,248,195,14,-9,-63,-131
-131,-190,-58,161,-36,-124,253,204,19,-9,-58,-131
-131,-190,-58,161,-36,-124,253,209,24,0,-53,-131
-126,-190,-63,158,-31,-126,253,209,24,4,-53,-136
-126,-190,-63,158,-31,-126,258,214,29,9,-48,-136
-126,-190,-63,158,-31,-126,263,219,34,14,-53,-136
-122,-190,-68,156,-26,-129,268,229,39,14,-53,-136
-122,-185,-63,153,-29,-124,273,234,43,19,-53,-126
-117,-185,-68,151,-24,-126,273,239,39,14,-58,-126
-117,-185,-68,151,-24,-126,278,248,39,14,-53,-126
-117,-185,-68,151,-24,-126,283,253,43,19,-43,-126
-112,-185,-73,148,-19,-129,287,258,48,19,-39,-122
-112,-185,-73,148,-19,-129,297,263,53,24,-34,-122
-112,-190,-78,151,-17,-134,302,268,58,24,-34,-122
-112,-185,-73,148,-19,-129,307,278,63,34,-34,-117
-112,-185,-73,148,-19,-129,317,287,73,39,-34,-112
-107,-180,-73,143,-17,-126,317,292,73,43,-39,-112
-102,-175,-73,139,-14,-124,326,302,82,48,-29,-107
-102,-175,-73,139,-14,-124,331,312,87,53,-24,-107
-97,-175,-78,136,-9,-126,336,312,92,58,-19,-112
-92,-175,-82,134,-4,-129,341,322,97,63,-9,-117
-92,-180,-87,136,-2,-134,346,331,97,63,0,-117
-92,-180,-87,136,-2,-134,356,341,102,63,4,-117
-87,-180,-92,134,2,-136,361,351,102,68,4,-117
-87,-180,-92,134,2,-136,366,361,107,73,9,-117
-82,-180,-97,131,7,-139,375,375,112,78,9,-112
-78,-175,-97,126,9,-136,375,380,112,78,4,-112
-73,-170,-97,122,12,-134,380,385,122,78,0,-107
-68,-161,-92,114,12,-126,380,390,131,82,0,-107
-63,-156,-92,109,14,-124,390,400,141,87,4,-97
-53,-146,-92,100,19,-119,390,409,131,82,0,-97
-48,-141,-92,95,21,-117,400,419,136,87,4,-97
-43,-136,-92,90,24,-114,400,429,136,92,4,-97
-39,-136,-97,87,29,-117,414,444,146,97,14,-97
-34,-136,-102,85,34,-119,414,453,146,107,19,-102
-24,-136,-112,80,43,-124,419,463,156,117,24,-97
-19,-131,-112,75,46,-122,424,468,170,126,29,-97
-9,-126,-117,68,53,-122,424,478,175,131,29,-92
4,-122,-126,58,65,-124,429,483,180,131,29,-82
9,-112,-122,51,65,-117,429,488,185,131,34,-78
19,-107,-126,43,73,-117,434,497,185,136,39,-73
29,-97,-126,34,78,-112,434,502,185,136,39,-73
34,-92,-126,29,80,-109,434,507,185,141,43,-68
43,-82,-126,19,85,-104,434,512,185,151,43,-68
48,-78,-126,14,87,-102,434,517,190,156,48,-63
53,-73,-126,9,90,-100,434,517,190,165,48,-63
58,-63,-122,2,90,-92,434,522,195,165,48,-58
68,-58,-126,-4,97,-92,434,522,204,165,53,-53
73,-53,-126,-9,100,-90,434,527,214,175,63,-48
78,-43,-122,-17,100,-82,434,531,219,175,73,-48
87,-39,-126,-24,107,-82,429,531,219,175,82,-43
97,-34,-131,-31,114,-82,424,531,224,180,87,-43
107,-29,-136,-39,122,-82,419,531,229,190,92,-43
112,-19,-131,-46,122,-75,414,531,224,190,92,-39
117,-14,-131,-51,124,-73,409,527,224,190,92,-29
122,0,-122,-61,122,-61,395,522,224,190,87,-24
126,9,-117,-68,122,-53,390,517,224,190,87,-19
131,24,-107,-78,119,-41,375,512,219,190,82,-14
141,34,-107,-87,124,-36,361,502,209,180,82,-19
146,48,-97,-97,122,-24,346,492,209,180,82,-19
151,58,-92,-104,122,-17,336,478,214,185,87,-14
161,63,-97,-112,129,-17,317,463,204,180,87,-9
165,68,-97,-117,131,-14,302,448,190,175,92,-9
165,73,-92,-119,129,-9,292,434,185,175,107,9
170,78,-92,-124,131,-7,273,414,180,170,112,19
170,82,-87,-126,129,-2,263,400,170,170,122,29
175,87,-87,-131,131,0,244,380,161,161,126,29
175,92,-82,-134,129,4,229,361,161,165,131,34
175,97,-78,-136,126,9,214,341,151,165,131,34
170,102,-68,-136,119,17,195,322,146,161,131,34
170,107,-63,-139,117,21,175,302,136,156,117,24
165,112,-53,-139,109,29,156,278,122,146,112,24
161,112,-48,-136,104,31,146,263,112,141,107,29
156,117,-39,-136,97,39,131,244,102,131,107,34
151,117,-34,-134,92,41,117,224,92,126,102,34
146,112,-34,-129,90,39,107,209,87,122,102,39
141,107,-34,-124,87,36,92,185,73,112,102,34
136,107,-29,-122,82,39,82,170,68,112,102,34
131,102,-29,-117,80,36,68,151,63,107,92,24
122,97,-24,-109,73,36,58,136,58,97,87,19
117,92,-24,-104,70,34,53,122,53,92,82,14
112,92,-19,-102,65,36,43,107,48,82,73,4
107,92,-14,-100,61,39,39,97,43,78,63,4
102,87,-14,-95,58,36,24,82,34,68,53,0
97,87,-9,-92,53,39,19,73,24,63,43,0
87,82,-4,-85,46,39,14,63,19,63,43,4
82,82,0,-82,41,41,4,48,9,53,39,4
78,78,0,-78,39,39,4,43,0,48,39,4
68,68,0,-68,34,34,0,34,-9,43,34,4
58,63,4,-61,26,34,0,24,-9,39,34,4
53,53,0,-53,26,26,0,24,-9,34,34,0
43,43,0,-43,21,21,4,19,-9,29,39,-9
39,39,0,-39,19,19,0,14,-9,29,34,-14
34,29,-4,-31,19,12,0,14,-9,29,29,-14
34,24,-9,-29,21,7,-9,4,-14,24,24,-19
29,19,-9,-24,19,4,0,4,-14,29,24,-19
24,14,-9,-19,17,2,0,4,-19,29,24,-14
24,14,-9,-19,17,2,0,0,-24,24,19,-24
19,14,-4,-17,12,4,-9,-9,-29,24,14,-29
14,9,-4,-12,9,2,0,-9,-24,24,19,-29
14,9,-4,-12,9,2,-9,-14,-29,19,14,-29
9,4,-4,-7,7,0,-14,-19,-34,14,14,-39
4,4,0,-4,2,2,-14,-19,-29,14,14,-39
0,0,0,0,0,0,-14,-24,-29,9,4,-43
-9,-9,0,9,-4,-4,-14,-24,-29,9,4,-39
-9,-14,-4,12,-2,-9,-14,-24,-29,4,-9,-43
-14,-14,0,14,-7,-7,-9,-24,-29,4,-14,-43
-14,-14,0,14,-7,-7,-9,-24,-34,0,-24,-43
-14,-19,-4,17,-4,-12,-9,-24,-39,-9,-29,-43
-14,-14,0,14,-7,-7,-9,-24,-48,-9,-29,-48
-14,-19,-4,17,-4,-12,-14,-24,-53,-9,-24,-48
-9,-19,-9,14,0,-14,-14,-29,-53,-9,-14,-43
-9,-19,-9,14,0,-14,-14,-29,-53,-9,0,-43
-14,-24,-9,19,-2,-17,-14,-29,-53,0,9,-48
-19,-24,-4,21,-7,-14,-9,-29,-48,4,9,-48
-19,-29,-9,24,-4,-19,-9,-29,-48,4,4,-48
-24,-29,-4,26,-9,-17,-9,-29,-48,0,0,-53
-24,-34,-9,29,-7,-21,-9,-29,-43,0,-9,-53
-29,-34,-4,31,-12,-19,-9,-29,-43,-9,-14,-53
-24,-34,-9,29,-7,-21,-14,-29,-48,-14,-14,-53
-29,-34,-4,31,-12,-19,-14,-29,-48,-14,-9,-53
-29,-29,0,29,-14,-14,-9,-29,-48,-14,0,-48
-29,-29,0,29,-14,-14,-9,-29,-48,-9,0,-43
-29,-24,4,26,-17,-9,-14,-34,-53,-14,0,-43
-29,-24,4,26,-17,-9,-9,-34,-48,-14,4,-39
-29,-24,4,26,-17,-9,-9,-34,-48,-9,4,-39
-29,-19,9,24,-19,-4,-14,-39,-43,-9,0,-39
-29,-24,4,26,-17,-9,-14,-39,-43,-9,0,-43
-34,-24,9,29,-21,-7,-9,-39,-34,0,4,-43
-34,-29,4,31,-19,-12,-9,-39,-29,0,0,-43
-34,-29,4,31,-19,-12,-14,-39,-34,0,-9,-43
-39,-34,4,36,-21,-14,-9,-34,-34,0,0,-39
-34,-34,0,34,-17,-17,-9,-39,-39,-9,0,-43
-34,-34,0,34,-17,-17,-9,-39,-39,0,0,-43
-34,-34,0,34,-17,-17,-9,-39,-43,0,-9,-48
-34,-34,0,34,-17,-17,-9,-39,-48,0,-9,-53
-34,-39,-4,36,-14,-21,0,-39,-43,0,4,-53
-39,-39,0,39,-19,-19,0,-39,-43,0,4,-53
-39,-39,0,39,-19,-19,0,-39,-39,0,4,-58
-39,-39,0,39,-19,-19,-9,-39,-43,-9,4,-58
-39,-39,0,39,-19,-19,0,-39,-43,0,4,-58
-39,-39,0,39,-19,-19,0,-39,-39,0,9,-58
-39,-34,4,36,-21,-14,0,-34,-39,4,4,-58
-39,-34,4,36,-21,-14,0,-39,-39,9,4,-53
-43,-34,9,39,-26,-12,0,-39,-39,9,0,-53
-43,-34,9,39,-26,-12,0,-43,-39,9,-9,-48
-48,-34,14,41,-31,-9,0,-43,-34,4,-14,-48
-53,-34,19,43,-36,-7,4,-39,-34,9,-9,-39
-53,-34,19,43,-36,-7,4,-39,-34,9,-9,-39
-53,-34,19,43,-36,-7,4,-39,-29,9,-9,-34
-48,-34,14,41,-31,-9,0,-43,-34,4,-14,-43
-48,-39,9,43,-29,-14,0,-39,-34,9,0,-39
-48,-43,4,46,-26,-19,0,-39,-34,9,0,-43
-48,-48,0,48,-24,-24,0,-43,-39,4,-9,-48
-43,-53,-9,48,-17,-31,0,-43,-39,4,-9,-53
-48,-58,-9,53,-19,-34,4,-39,-39,4,-9,-58
-48,-58,-9,53,-19,-34,4,-39,-39,4,-9,-63
-48,-58,-9,53,-19,-34,4,-34,-39,4,-9,-63
-48,-58,-9,53,-19,-34,4,-34,-39,0,-9,-63
-48,-53,-4,51,-21,-29,4,-34,-34,0,0,-63
-53,-48,4,51,-29,-21,4,-34,-34,4,0,-53
-53,-43,9,48,-31,-17,0,-39,-34,0,-9,-53
-53,-39,14,46,-34,-12,0,-39,-39,0,-14,-48
-58,-39,19,48,-39,-9,0,-43,-39,0,-19,-48
-58,-34,24,46,-41,-4,0,-43,-39,0,-24,-48
-58,-34,24,46,-41,-4,0,-43,-43,0,-24,-53
-58,-39,19,48,-39,-9,0,-43,-43,-9,-29,-53
-53,-43,9,48,-31,-17,0,-43,-48,-9,-29,-58
-53,-48,4,51,-29,-21,4,-34,-39,0,-24,-58
-53,-48,4,51,-29,-21,4,-34,-34,0,-24,-58
-53,-48,4,51,-29,-21,4,-34,-34,0,-29,-63
-53,-48,4,51,-29,-21,4,-34,-34,0,-29,-63
-53,-48,4,51,-29,-21,9,-34,-39,4,-29,-63
-53,-48,4,51,-29,-21,9,-34,-39,4,-29,-63
-58,-48,9,53,-34,-19,9,-34,-39,4,-29,-63
-58,-48,9,53,-34,-19,9,-34,-43,0,-19,-63
-53,-53,0,53,-26,-26,9,-34,-43,4,-14,-63
-53,-53,0,53,-26,-26,9,-34,-39,4,-9,-63
-53,-58,-4,56,-24,-31,9,-34,-39,0,-9,-63
-53,-58,-4,56,-24,-31,9,-34,-43,-9,-9,-68
-53,-63,-9,58,-21,-36,14,-29,-39,4,4,-63
-53,-68,-14,61,-19,-41,14,-24,-34,4,0,-63
-53,-68,-14,61,-19,-41,14,-24,-34,0,-9,-63
-53,-63,-9,58,-21,-36,9,-24,-39,0,-9,-58
-48,-63,-14,56,-17,-39,4,-29,-43,-9,-9,-63
-53,-63,-9,58,-21,-36,9,-24,-43,0,-9,-58
-53,-63,-9,58,-21,-36,9,-24,-48,-9,-9,-58
-53,-63,-9,58,-21,-36,4,-24,-48,-9,0,-63
-53,-63,-9,58,-21,-36,4,-29,-48,0,0,-63
-58,-63,-4,61,-26,-34,4,-29,-48,-9,-9,-68
-63,-63,0,63,-31,-31,4,-29,-43,-14,-14,-68
-58,-63,-4,61,-26,-34,4,-29,-43,-19,-24,-68
-58,-63,-4,61,-26,-34,4,-29,-43,-19,-29,-68
-58,-68,-9,63,-24,-39,0,-29,-48,-24,-34,-68
-58,-68,-9,63,-24,-39,0,-29,-53,-24,-34,-68
-58,-73,-14,65,-21,-43,4,-24,-53,-19,-24,-63
-58,-73,-14,65,-21,-43,4,-29,-53,-14,-24,-63
-58,-73,-14,65,-21,-43,4,-29,-53,-14,-19,-68
-58,-73,-14,65,-21,-43,4,-24,-53,-14,-14,-68
-58,-73,-14,65,-21,-43,4,-24,-53,-9,-19,-73
-58,-73,-14,65,-21,-43,4,-24,-53,-9,-24,-78
-58,-73,-14,65,-21,-43,9,-24,-53,-9,-29,-78
-58,-73,-14,65,-21,-43,4,-24,-58,-9,-34,-78
-53,-68,-14,61,-19,-41,0,-29,-63,-19,-43,-82
-53,-68,-14,61,-19,-41,0,-29,-68,-24,-43,-82
-53,-68,-14,61,-19,-41,0,-29,-63,-24,-39,-78
-53,-68,-14,61,-19,-41,0,-29,-68,-24,-34,-78
-53,-68,-14,61,-19,-41,0,-29,-68,-24,-34,-78
-53,-73,-19,63,-17,-46,0,-29,-63,-29,-34,-78
-53,-78,-24,65,-14,-51,4,-24,-58,-19,-29,-73
-53,-78,-24,65,-14,-51,0,-29,-58,-19,-34,-68
-53,-78,-24,65,-14,-51,0,-29,-58,-19,-34,-68
-53,-78,-24,65,-14,-51,-9,-34,-58,-24,-34,-63
-58,-78,-19,68,-19,-48,0,-34,-58,-24,-34,-63
-58,-73,-14,65,-21,-43,0,-34,-58,-24,-29,-63
-58,-73,-14,65,-21,-43,0,-34,-63,-29,-29,-63
-58,-73,-14,65,-21,-43,-9,-34,-63,-29,-24,-68
-58,-78,-19,68,-19,-48,-9,-34,-68,-34,-24,-68
-58,-78,-19,68,-19,-48,-9,-39,-68,-34,-29,-73
-58,-78,-19,68,-19,-48,-9,-34,-68,-34,-34,-78
-53,-78,-24,65,-14,-51,-14,-39,-68,-34,-39,-73
-53,-73,-19,63,-17,-46,-14,-43,-73,-34,-43,-78
-53,-68,-14,61,-19,-41,-14,-43,-73,-34,-48,-78
-53,-68,-14,61,-19,-41,-14,-39,-68,-29,-43,-78
-53,-68,-14,61,-19,-41,-14,-39,-73,-29,-43,-78
-53,-73,-19,63,-17,-46,-14,-43,-73,-24,-43,-82
-58,-78,-19,68,-19,-48,-14,-39,-73,-24,-43,-82
-58,-82,-24,70,-17,-53,-14,-39,-73,-29,-43,-87
-58,-82,-24,70,-17,-53,-14,-39,-73,-29,-39,-87
-58,-82,-24,70,-17,-53,-14,-39,-73,-29,-34,-87
-58,-78,-19,68,-19,-48,-14,-39,-73,-29,-34,-87
-58,-78,-19,68,-19,-48,-14,-39,-68,-34,-29,-82
-53,-73,-19,63,-17,-46,-19,-43,-73,-34,-29,-82
-53,-73,-19,63,-17,-46,-19,-39,-73,-34,-24,-73
-53,-73,-19,63,-17,-46,-19,-39,-78,-34,-24,-68
-53,-73,-19,63,-17,-46,-19,-43,-73,-34,-29,-68
-53,-73,-19,63,-17,-46,-19,-43,-78,-34,-29,-63
-53,-73,-19,63,-17,-46,-24,-43,-78,-34,-29,-63
-53,-73,-19,63,-17,-46,-24,-43,-78,-34,-34,-63
-53,-73,-19,63,-17,-46,-24,-43,-73,-34,-39,-63
-58,-73,-14,65,-21,-43,-19,-43,-68,-29,-39,-58
-58,-73,-14,65,-21,-43,-24,-43,-68,-29,-43,-63
-58,-73,-14,65,-21,-43,-19,-43,-63,-24,-43,-63
-53,-68,-14,61,-19,-41,-24,-48,-63,-29,-43,-68
-53,-68,-14,61,-19,-41,-24,-48,-68,-29,-43,-68
-53,-73,-19,63,-17,-46,-24,-48,-73,-29,-39,-73
-53,-73,-19,63,-17,-46,-24,-48,-78,-29,-34,-73
-58,-78,-19,68,-19,-48,-19,-43,-73,-29,-29,-68
-58,-78,-19,68,-19,-48,-14,-43,-78,-29,-29,-78
-58,-82,-24,70,-17,-53,-14,-43,-78,-29,-29,-82
-53,-82,-29,68,-12,-56,-14,-39,-73,-29,-24,-82
-53,-82,-29,68,-12,-56,-14,-39,-68,-24,-24,-82
-53,-78,-24,65,-14,-51,-14,-34,-63,-24,-29,-82
-48,-73,-24,61,-12,-48,-19,-39,-58,-24,-34,-82
-43,-68,-24,56,-9,-46,-24,-43,-58,-24,-34,-82
-43,-58,-14,51,-14,-36,-19,-39,-53,-19,-34,-73
-39,-53,-14,46,-12,-34,-19,-39,-53,-19,-34,-68
-34,-43,-9,39,-12,-26,-19,-43,-53,-14,-29,-58
-34,-29,4,31,-19,-12,-14,-43,-48,-9,-19,-53
-29,-24,4,26,-17,-9,-14,-43,-48,-9,-9,-48
-24,-19,4,21,-14,-7,-9,-43,-39,4,4,-39
-24,-19,4,21,-14,-7,4,-39,-34,14,9,-34
-24,-19,4,21,-14,-7,4,-34,-24,19,9,-29
-24,-19,4,21,-14,-7,9,-34,-19,19,9,-29
-24,-19,4,21,-14,-7,14,-29,-14,19,9,-29
-24,-24,0,24,-12,-12,14,-29,-14,19,4,-34
-24,-24,0,24,-12,-12,14,-29,-19,19,0,-39
-24,-24,0,24,-12,-12,9,-29,-19,19,-9,-43
-24,-24,0,24,-12,-12,9,-29,-19,19,0,-48
-19,-24,-4,21,-7,-14,9,-24,-24,19,4,-48
-14,-19,-4,17,-4,-12,4,-29,-29,14,4,-58
-14,-19,-4,17,-4,-12,4,-29,-29,19,9,-58
-9,-14,-4,12,-2,-9,4,-29,-29,14,9,-58
0,-14,-14,7,7,-14,4,-24,-24,19,19,-48
4,-9,-14,2,9,-12,0,-29,-29,14,14,-48
9,-9,-19,0,14,-14,-9,-24,-34,14,14,-43
14,-9,-24,-2,19,-17,-19,-24,-34,14,9,-39
24,-9,-34,-7,29,-21,-34,-29,-43,4,0,-43
29,-14,-43,-7,36,-29,-48,-29,-48,0,-9,-43
29,-19,-48,-4,39,-34,-58,-34,-53,-9,-14,-48
29,-19,-48,-4,39,-34,-68,-39,-58,-14,-19,-48
34,-24,-58,-4,46,-41,-73,-39,-53,-14,-19,-48
34,-24,-58,-4,46,-41,-82,-43,-53,-14,-19,-48
39,-19,-58,-9,48,-39,-82,-43,-53,-14,-19,-48
43,0,-43,-21,43,-21,-97,-48,-58,-14,-24,-48
58,9,-48,-34,53,-19,-102,-53,-53,-14,-19,-43
68,19,-48,-43,58,-14,-112,-58,-63,-19,-24,-43
73,29,-43,-51,58,-7,-117,-63,-73,-19,-24,-43
82,34,-48,-58,65,-7,-117,-63,-82,-24,-24,-48
87,29,-58,-58,73,-14,-117,-58,-87,-24,-24,-48
87,24,-63,-56,75,-19,-112,-53,-92,-29,-19,-53
87,14,-73,-51,80,-29,-117,-53,-107,-34,-29,-68
82,4,-78,-43,80,-36,-117,-53,-107,-39,-29,-73
82,-9,-92,-36,87,-51,-112,-53,-102,-39,-34,-82
78,-19,-97,-29,87,-58,-112,-53,-102,-43,-43,-82
73,-24,-97,-24,85,-61,-112,-53,-107,-48,-53,-82
73,-29,-102,-21,87,-65,-112,-58,-112,-53,-58,-82
73,-24,-97,-24,85,-61,-112,-58,-112,-53,-63,-82
78,-24,-102,-26,90,-63,-117,-63,-117,-63,-68,-78
78,-19,-97,-29,87,-58,-112,-58,-117,-63,-63,-73
78,-19,-97,-29,87,-58,-107,-58,-117,-53,-53,-68
78,-14,-92,-31,85,-53,-107,-63,-112,-48,-48,-68
78,-9,-87,-34,82,-48,-112,-68,-112,-48,-48,-68
78,-9,-87,-34,82,-48,-112,-68,-107,-48,-43,-63
73,-9,-82,-31,78,-46,-107,-68,-102,-43,-39,-58
68,-9,-78,-29,73,-43,-107,-68,-107,-48,-43,-63
63,-9,-73,-26,68,-41,-107,-68,-107,-48,-43,-68
58,-14,-73,-21,65,-43,-97,-68,-107,-48,-39,-68
48,-24,-73,-12,61,-48,-92,-63,-102,-48,-34,-73
34,-34,-68,0,51,-51,-78,-58,-92,-43,-34,-73
19,-39,-58,9,39,-48,-73,-58,-92,-43,-39,-73
4,-48,-53,21,29,-51,-58,-58,-87,-39,-39,-68
-19,-53,-34,36,7,-43,-48,-58,-82,-39,-39,-68
-34,-63,-29,48,-2,-46,-43,-63,-87,-43,-43,-63
-48,-68,-19,58,-14,-43,-34,-58,-82,-39,-39,-58
-58,-78,-19,68,-19,-48,-34,-58,-87,-43,-43,-68
-68,-87,-19,78,-24,-53,-29,-58,-87,-48,-48,-73
-73,-97,-24,85,-24,-61,-29,-58,-87,-48,-53,-82
-78,-107,-29,92,-24,-68,-24,-53,-92,-53,-58,-87
-78,-117,-39,97,-19,-78,-24,-53,-92,-53,-58,-97
-82,-122,-39,102,-21,-80,-19,-48,-92,-48,-53,-102
-87,-126,-39,107,-24,-82,-19,-53,-97,-48,-53,-107
-87,-126,-39,107,-24,-82,-24,-53,-102,-48,-53,-112
-92,-126,-34,109,-29,-80,-19,-53,-97,-43,-48,-107
-92,-122,-29,107,-31,-75,-24,-53,-102,-48,-48,-107
-92,-122,-29,107,-31,-75,-24,-53,-102,-48,-48,-102
-87,-122,-34,104,-26,-78,-24,-53,-97,-48,-48,-97
-87,-122,-34,104,-26,-78,-24,-53,-97,-48,-43,-87
-82,-122,-39,102,-21,-80,-24,-53,-92,-48,-43,-82
-82,-122,-39,102,-21,-80,-19,-53,-92,-48,-48,-82
-82,-122,-39,102,-21,-80,-19,-53,-92,-43,-48,-82
-82,-122,-39,102,-21,-80,-19,-53,-87,-43,-48,-82
-82,-117,-34,100,-24,-75,-24,-58,-87,-48,-58,-87
-82,-112,-29,97,-26,-70,-24,-58,-87,-48,-58,-87
-82,-107,-24,95,-29,-65,-24,-53,-82,-48,-58,-82
-78,-107,-29,92,-24,-68,-29,-58,-87,-53,-68,-87
-78,-102,-24,90,-26,-63,-29,-58,-92,-58,-63,-82
-73,-102,-29,87,-21,-65,-34,-58,-92,-58,-63,-82
-73,-102,-29,87,-21,-65,-29,-58,-92,-58,-63,-87
-78,-102,-24,90,-26,-63,-29,-58,-92,-58,-58,-87
-78,-102,-24,90,-26,-63,-29,-58,-97,-58,-58,-87
-73,-102,-29,87,-21,-65,-29,-53,-97,-53,-53,-92
-73,-102,-29,87,-21,-65,-29,-53,-87,-48,-53,-92
-73,-102,-29,87,-21,-65,-29,-53,-87,-48,-48,-97
-73,-107,-34,90,-19,-70,-29,-53,-92,-48,-48,-97
-68,-107,-39,87,-14,-73,-29,-53,-87,-43,-48,-92
-68,-102,-34,85,-17,-68,-29,-53,-87,-43,-58,-97
-68,-102,-34,85,-17,-68,-29,-53,-87,-43,-53,-92
-68,-102,-34,85,-17,-68,-29,-53,-87,-48,-53,-87
-68,-102,-34,85,-17,-68,-29,-53,-82,-43,-53,-82
-68,-97,-29,82,-19,-63,-29,-53,-78,-43,-53,-78
-68,-97,-29,82,-19,-63,-29,-53,-78,-39,-48,-78
-68,-102,-34,85,-17,-68,-29,-53,-73,-39,-48,-82
-63,-102,-39,82,-12,-70,-29,-53,-73,-34,-43,-82
-63,-102,-39,82,-12,-70,-29,-48,-73,-34,-43,-82
-58,-102,-43,80,-7,-73,-24,-48,-73,-34,-43,-82
-58,-107,-48,82,-4,-78,-24,-48,-73,-39,-43,-82
-58,-107,-48,82,-4,-78,-24,-48,-73,-43,-48,-87
-58,-102,-43,80,-7,-73,-24,-43,-73,-43,-53,-82
-58,-102,-43,80,-7,-73,-24,-43,-73,-43,-53,-87
-58,-107,-48,82,-4,-78,-24,-43,-73,-43,-63,-92
-63,-107,-43,85,-9,-75,-19,-43,-73,-43,-63,-97
-63,-107,-43,85,-9,-75,-19,-39,-73,-43,-68,-97
-63,-112,-48,87,-7,-80,-9,-29,-73,-39,-63,-97
-58,-117,-58,87,0,-87,-9,-19,-78,-43,-73,-102
-53,-126,-73,90,9,-100,0,0,-82,-53,-78,-107
-48,-131,-82,90,17,-107,9,14,-87,-58,-82,-107
-43,-136,-92,90,24,-114,19,29,-87,-63,-82,-112
-39,-136,-97,87,29,-117,34,48,-78,-53,-73,-112
-19,-122,-102,70,41,-112,34,58,-73,-48,-78,-112
4,-102,-107,48,56,-104,48,78,-48,-29,-58,-102
34,-73,-107,19,70,-90,58,92,-24,4,-39,-87
78,-29,-107,-24,92,-68,58,107,14,43,-14,-68
131,34,-97,-82,114,-31,58,126,58,87,29,-39
214,112,-102,-163,158,4,34,146,102,146,78,9
302,214,-87,-258,195,63,4,161,151,219,146,63
400,326,-73,-363,236,126,-48,156,214,292,229,131
512,463,-48,-488,280,207,-126,131,263,366,317,214
629,614,-14,-622,322,300,-229,87,312,448,409,297
746,771,24,-758,361,397,-341,34,356,527,502,385
873,941,68,-907,402,505,-478,-34,395,600,595,483
995,1117,122,-1056,436,619,-624,-107,424,668,683,570
1112,1278,165,-1195,473,722,-780,-195,424,712,751,653
1205,1415,209,-1310,497,812,-941,-283,400,736,800,727
1278,1537,258,-1407,509,897,-1107,-390,346,722,829,780
1298,1634,336,-1466,480,985,-1273,-531,263,678,829,824
1268,1688,419,-1478,424,1054,-1415,-697,161,614,814,863
1180,1722,541,-1451,319,1132,-1561,-902,48,527,780,883
1049,1742,692,-1395,178,1217,-1683,-1132,-63,439,751,907
883,1742,858,-1312,12,1300,-1786,-1371,-170,346,717,922
702,1732,1029,-1217,-163,1381,-1864,-1590,-263,263,678,922
527,1703,1176,-1115,-324,1439,-1893,-1756,-331,190,644,922
375,1654,1278,-1015,-451,1466,-1888,-1859,-385,122,590,897
263,1576,1312,-919,-524,1444,-1825,-1873,-419,68,531,858
180,1488,1307,-834,-563,1398,-1737,-1810,-439,14,468,790
146,1371,1224,-758,-539,1298,-1610,-1688,-448,-34,385,707
126,1244,1117,-685,-495,1180,-1464,-1527,-444,-68,312,619
122,1117,995,-619,-436,1056,-1302,-1351,-424,-82,253,531
117,990,873,-553,-378,932,-1146,-1180,-385,-87,209,453
102,873,771,-488,-334,822,-990,-1024,-351,-87,161,380
82,756,673,-419,-295,714,-849,-873,-307,-82,131,317
58,658,600,-358,-270,629,-712,-746,-263,-68,112,273
29,575,546,-302,-258,561,-595,-644,-219,-53,102,239
4,497,492,-251,-244,495,-497,-546,-180,-39,92,209
-24,419,444,-197,-234,431,-405,-468,-151,-29,82,170
-43,346,390,-151,-217,368,-331,-395,-122,-19,68,136
-58,283,341,-112,-200,312,-268,-336,-107,-14,53,102
-73,219,292,-73,-183,256,-214,-283,-97,-14,43,73
-87,151,239,-31,-163,195,-146,-229,-78,-9,34,43
-92,97,190,-2,-141,143,-102,-180,-68,-9,19,14
-102,48,151,26,-126,100,-63,-136,-58,-9,9,-9
-102,4,107,48,-104,56,-29,-102,-58,-14,0,-34
-107,-34,73,70,-90,19,0,-73,-53,-14,-14,-48
-107,-58,48,82,-78,-4,19,-48,-48,-14,-24,-58
-107,-78,29,92,-68,-24,34,-34,-48,-19,-39,-73
-112,-102,9,107,-61,-46,53,-14,-43,-19,-48,-82
-117,-117,0,117,-58,-58,73,9,-43,-24,-58,-87
-122,-126,-4,124,-58,-65,82,19,-43,-24,-68,-92
-126,-136,-9,131,-58,-73,92,29,-39,-24,-68,-97
-126,-141,-14,134,-56,-78,97,34,-34,-29,-73,-107
-126,-146,-19,136,-53,-82,97,39,-39,-34,-73,-107
-126,-146,-19,136,-53,-82,97,43,-39,-34,-68,-107
-122,-151,-29,136,-46,-90,102,43,-39,-34,-63,-112
-122,-151,-29,136,-46,-90,107,48,-43,-34,-58,-112
-122,-156,-34,139,-43,-95,112,53,-39,-34,-58,-112
-122,-161,-39,141,-41,-100,117,53,-39,-34,-63,-117
-126,-161,-34,143,-46,-97,122,58,-39,-29,-68,-122
-126,-165,-39,146,-43,-102,126,63,-34,-24,-68,-122
-126,-175,-48,151,-39,-112,126,63,-34,-24,-68,-126
-126,-180,-53,153,-36,-117,131,73,-29,-19,-63,-126
-126,-185,-58,156,-34,-122,131,73,-29,-19,-58,-126
-126,-185,-58,156,-34,-122,131,73,-29,-24,-58,-131
-126,-190,-63,158,-31,-126,136,73,-34,-29,-68,-131
-131,-190,-58,161,-36,-124,141,78,-29,-29,-68,-122
-131,-190,-58,161,-36,-124,146,82,-29,-34,-73,-122
-136,-185,-48,161,-43,-117,146,82,-29,-39,-78,-122
-136,-185,-48,161,-43,-117,146,82,-24,-39,-82,-117
-131,-185,-53,158,-39,-119,141,78,-24,-39,-82,-117
-131,-185,-53,158,-39,-119,141,82,-24,-34,-73,-117
-131,-190,-58,161,-36,-124,146,87,-19,-24,-63,-107
-131,-190,-58,161,-36,-124,146,87,-19,-24,-58,-107
-131,-190,-58,161,-36,-124,151,92,-19,-24,-53,-107
-131,-185,-53,158,-39,-119,146,87,-29,-29,-48,-117
-136,-185,-48,161,-43,-117,156,97,-24,-19,-43,-112
-136,-185,-48,161,-43,-117,156,97,-24,-24,-48,-117
-136,-185,-48,161,-43,-117,156,97,-24,-24,-48,-122
-131,-190,-58,161,-36,-124,161,102,-19,-24,-53,-126
-131,-190,-58,161,-36,-124,161,102,-19,-24,-58,-126
-136,-195,-58,165,-39,-126,161,97,-19,-24,-63,-131
-136,-195,-58,165,-39,-126,161,97,-24,-24,-73,-131
-141,-200,-58,170,-41,-129,170,107,-19,-19,-73,-126
-141,-195,-53,168,-43,-124,170,112,-19,-19,-78,-126
-136,-195,-58,165,-39,-126,165,107,-24,-24,-78,-131
-136,-195,-58,165,-39,-126,170,112,-24,-19,-73,-126
-136,-195,-58,165,-39,-126,170,112,-19,-14,-73,-126
-136,-200,-63,168,-36,-131,180,117,-9,-9,-68,-117
-136,-195,-58,165,-39,-126,175,112,-9,-9,-68,-122
-136,-195,-58,165,-39,-126,180,117,0,-9,-68,-117
-141,-195,-53,168,-43,-124,190,122,9,-9,-63,-107
-141,-190,-48,165,-46,-119,185,122,4,-19,-73,-112
-141,-190,-48,165,-46,-119,185,122,4,-19,-73,-112
-141,-190,-48,165,-46,-119,190,126,4,-24,-73,-112
-141,-190,-48,165,-46,-119,190,131,4,-24,-68,-117
-141,-190,-48,165,-46,-119,195,131,0,-19,-68,-126
-136,-195,-58,165,-39,-126,195,136,-9,-19,-63,-126
-136,-195,-58,165,-39,-126,204,136,-9,-14,-63,-131
-136,-195,-58,165,-39,-126,209,141,0,-9,-68,-131
-136,-195,-58,165,-39,-126,209,146,9,-9,-73,-131
-136,-195,-58,165,-39,-126,214,151,9,0,-78,-131
-136,-195,-58,165,-39,-126,219,151,14,0,-78,-126
-136,-195,-58,165,-39,-126,224,156,19,0,-73,-126
-131,-200,-68,165,-31,-134,224,161,24,4,-68,-131
-131,-200,-68,165,-31,-134,224,165,24,4,-63,-131
-131,-209,-78,170,-26,-143,234,170,29,14,-48,-131
-131,-209,-78,170,-26,-143,234,175,34,19,-48,-136
-131,-214,-82,173,-24,-148,239,180,43,24,-53,-136
-131,-214,-82,173,-24,-148,244,185,48,29,-58,-136
-131,-214,-82,173,-24,-148,244,190,48,29,-58,-136
-131,-219,-87,175,-21,-153,248,195,53,29,-53,-136
-131,-219,-87,175,-21,-153,253,209,53,29,-53,-131
-131,-219,-87,175,-21,-153,258,209,53,29,-43,-131
-131,-219,-87,175,-21,-153,263,214,48,34,-39,-126
-131,-214,-82,173,-24,-148,268,219,48,34,-29,-126
-126,-214,-87,170,-19,-151,273,229,53,39,-19,-122
-122,-214,-92,168,-14,-153,278,234,58,39,-19,-122
-122,-209,-87,165,-17,-148,283,244,63,43,-14,-122
-117,-209,-92,163,-12,-151,287,248,73,48,-14,-122
-112,-209,-97,161,-7,-153,287,253,73,48,-19,-131
-112,-209,-97,161,-7,-153,287,258,73,53,-24,-131
-112,-209,-97,161,-7,-153,292,263,78,53,-29,-131
-112,-209,-97,161,-7,-153,297,268,78,53,-34,-131
-112,-209,-97,161,-7,-153,302,278,82,53,-39,-126
-112,-200,-87,156,-12,-143,312,287,87,58,-34,-122
-112,-195,-82,153,-14,-139,317,292,92,58,-29,-122
-107,-195,-87,151,-9,-141,322,297,97,58,-29,-122
-107,-190,-82,148,-12,-136,326,307,102,68,-24,-122
-102,-190,-87,146,-7,-139,331,317,112,73,-19,-117
-97,-185,-87,141,-4,-136,336,322,112,78,-24,-122
-92,-185,-92,139,0,-139,341,331,122,87,-24,-117
-87,-180,-92,134,2,-136,346,331,122,87,-29,-122
-87,-180,-92,134,2,-136,351,346,131,87,-29,-117
-82,-180,-97,131,7,-139,361,356,136,92,-24,-107
-82,-180,-97,131,7,-139,370,366,141,97,-14,-97
-78,-185,-107,131,14,-146,375,375,146,97,0,-87
-73,-185,-112,129,19,-148,380,380,146,97,9,-82
-68,-180,-112,124,21,-146,385,395,151,107,24,-78
-63,-180,-117,122,26,-148,385,400,156,112,34,-73
-58,-170,-112,114,26,-141,390,414,165,112,39,-73
-53,-161,-107,107,26,-134,395,419,170,117,39,-73
-48,-151,-102,100,26,-126,400,434,175,126,43,-73
-39,-141,-102,90,31,-122,409,439,180,131,43,-73
-29,-136,-107,82,39,-122,409,448,185,136,39,-78
-24,-131,-107,78,41,-119,414,453,190,141,39,-82
-14,-126,-112,70,48,-119,414,458,185,146,34,-82
0,-122,-122,61,61,-122,419,463,190,151,29,-82
4,-122,-126,58,65,-124,424,473,204,156,24,-73
9,-112,-122,51,65,-117,424,478,209,151,19,-73
14,-107,-122,46,68,-114,424,483,209,151,19,-68
19,-97,-117,39,68,-107,424,488,209,156,24,-68
24,-87,-112,31,68,-100,424,492,214,161,29,-63
34,-78,-112,21,73,-95,424,497,214,165,34,-63
39,-73,-112,17,75,-92,424,502,214,170,43,-58
48,-68,-117,9,82,-92,424,507,219,175,53,-53
63,-68,-131,2,97,-100,424,512,234,185,68,-53
68,-68,-136,0,102,-102,429,522,253,204,82,-43
78,-73,-151,-2,114,-112,434,531,253,214,97,-39
87,-78,-165,-4,126,-122,434,536,258,219,107,-43
97,-78,-175,-9,136,-126,439,546,268,229,117,-43
102,-73,-175,-14,139,-124,434,546,268,229,112,-43
112,-63,-175,-24,143,-119,429,546,258,224,107,-43
117,-53,-170,-31,143,-112,424,541,253,224,107,-39
122,-43,-165,-39,143,-104,419,536,258,224,112,-29
126,-29,-156,-48,141,-92,409,531,253,219,112,-19
131,-14,-146,-58,139,-80,395,527,253,224,122,4
136,0,-136,-68,136,-68,390,517,248,224,136,24
141,4,-136,-73,139,-65,380,512,253,229,146,34
151,9,-141,-80,146,-65,366,502,253,234,151,34
161,19,-141,-90,151,-61,351,492,253,234,151,34
165,29,-136,-97,151,-53,336,478,248,234,151,34
170,43,-126,-107,148,-41,322,463,244,234,136,24
170,58,-112,-114,141,-26,302,444,229,224,122,14
175,68,-107,-122,141,-19,287,424,219,214,102,9
175,87,-87,-131,131,0,263,395,204,195,78,4
175,97,-78,-136,126,9,248,380,195,190,73,9
175,107,-68,-141,122,19,229,361,180,175,63,9
180,107,-73,-143,126,17,214,341,175,170,73,19
175,112,-63,-143,119,24,195,322,170,170,87,29
175,112,-63,-143,119,24,180,302,165,165,107,39
175,112,-63,-143,119,24,161,283,161,165,126,43
170,107,-63,-139,117,21,146,263,146,165,136,43
165,107,-58,-136,112,24,136,248,141,165,141,39
161,112,-48,-136,104,31,122,229,126,156,131,34
156,107,-48,-131,102,29,107,209,112,146,117,24
156,102,-53,-129,104,24,97,190,102,141,102,19
151,97,-53,-124,102,21,82,170,92,131,82,14
146,102,-43,-124,95,29,68,151,87,122,68,9
136,97,-39,-117,87,29,63,136,87,117,58,14
131,97,-34,-114,82,31,58,122,82,112,58,19
122,97,-24,-109,73,36,48,107,73,107,58,14
117,97,-19,-107,68,39,43,97,63,102,73,19
107,92,-14,-100,61,39,34,82,58,97,78,24
97,82,-14,-90,56,34,29,73,53,92,82,24
92,73,-19,-82,56,26,24,63,48,87,87,24
82,68,-14,-75,48,26,19,58,39,87,82,24
78,63,-14,-70,46,24,14,48,34,87,82,24
73,63,-9,-68,41,26,9,34,29,82,78,19
68,58,-9,-63,39,24,4,29,29,82,73,19
63,53,-9,-58,36,21,4,24,19,82,68,14
58,48,-9,-53,34,19,4,19,19,82,63,9
53,43,-9,-48,31,17,0,14,24,78,58,4
48,34,-14,-41,31,9,0,14,24,73,43,0
43,29,-14,-36,29,7,-9,4,19,63,29,-19
39,19,-19,-29,29,0,-9,4,19,58,14,-24
34,9,-24,-21,29,-7,-9,0,14,48,4,-24
29,4,-24,-17,26,-9,-9,0,14,43,0,-24
24,0,-24,-12,24,-12,0,0,9,43,0,-19
19,0,-19,-9,19,-9,-9,-9,4,39,4,-19
14,-9,-24,-2,19,-17,0,-9,4,43,19,-9
9,-9,-19,0,14,-14,-9,-14,0,39,29,-9
9,-9,-19,0,14,-14,-9,-19,0,39,39,-14
9,-9,-19,0,14,-14,-14,-19,-9,43,43,-9
4,-14,-19,4,12,-17,-9,-19,0,43,53,-9
4,-19,-24,7,14,-21,-9,-24,0,43,43,-19
0,-24,-24,12,12,-24,-9,-24,-9,39,39,-19
-9,-29,-19,19,4,-24,-9,-24,-14,34,24,-24
-14,-29,-14,21,0,-21,0,-24,-14,34,14,-24
-14,-34,-19,24,2,-26,-9,-24,-14,34,9,-34
-14,-34,-19,24,2,-26,-9,-24,-19,29,4,-43
-14,-34,-19,24,2,-26,-9,-24,-24,29,0,-48
-14,-29,-14,21,0,-21,-9,-29,-24,29,0,-53
-14,-29,-14,21,0,-21,-9,-29,-19,29,0,-53
-14,-29,-14,21,0,-21,-9,-29,-19,24,0,-53
-19,-29,-9,24,-4,-19,-9,-29,-19,19,0,-48
-19,-29,-9,24,-4,-19,-9,-29,-24,19,0,-43
-19,-34,-14,26,-2,-24,-9,-29,-24,19,0,-43
-19,-34,-14,26,-2,-24,-9,-34,-24,19,4,-39
-19,-39,-19,29,0,-29,0,-29,-19,24,9,-34
-19,-39,-19,29,0,-29,-9,-34,-24,24,14,-34
-19,-39,-19,29,0,-29,-9,-34,-29,24,14,-39
-24,-43,-19,34,-2,-31,-9,-34,-29,24,9,-39
-24,-39,-14,31,-4,-26,-9,-34,-24,24,9,-39
-24,-34,-9,29,-7,-21,-9,-34,-24,29,4,-34
-24,-29,-4,26,-9,-17,-14,-39,-29,24,0,-43
-24,-29,-4,26,-9,-17,-14,-39,-29,19,0,-43
-24,-29,-4,26,-9,-17,-14,-43,-29,19,0,-48
-29,-29,0,29,-14,-14,-14,-39,-24,24,4,-43
-34,-34,0,34,-17,-17,-14,-39,-29,24,0,-48
-34,-39,-4,36,-14,-21,-9,-39,-29,24,0,-53
-34,-48,-14,41,-9,-31,0,-39,-34,19,-9,-53
-34,-48,-14,41,-9,-31,0,-34,-29,19,-14,-53
-34,-48,-14,41,-9,-31,0,-34,-24,24,-19,-53
-34,-48,-14,41,-9,-31,0,-34,-19,24,-24,-58
-34,-48,-14,41,-9,-31,0,-34,-14,19,-34,-58
-34,-48,-14,41,-9,-31,0,-39,-14,14,-34,-53
-34,-43,-9,39,-12,-26,0,-39,-14,14,-29,-48
-34,-48,-14,41,-9,-31,0,-43,-19,14,-14,-43
-39,-48,-9,43,-14,-29,0,-39,-14,19,0,-39
-39,-53,-14,46,-12,-34,0,-39,-19,19,9,-39
-39,-53,-14,46,-12,-34,0,-39,-24,24,19,-39
-39,-58,-19,48,-9,-39,0,-39,-24,29,24,-39
-39,-63,-24,51,-7,-43,4,-34,-14,39,29,-39
-39,-63,-24,51,-7,-43,4,-34,-9,39,24,-43
-34,-58,-24,46,-4,-41,0,-39,-14,34,14,-48
-34,-58,-24,46,-4,-41,0,-39,-14,39,19,-43
-34,-53,-19,43,-7,-36,4,-39,-14,39,14,-39
-39,-48,-9,43,-14,-29,4,-39,-19,39,14,-39
-39,-43,-4,41,-17,-24,0,-43,-24,29,9,-39
-39,-39,0,39,-19,-19,4,-43,-24,29,14,-34
-43,-39,4,41,-24,-17,0,-43,-24,29,9,-34
-43,-34,9,39,-26,-12,0,-43,-24,24,0,-34
-43,-34,9,39,-26,-12,0,-43,-24,19,-9,-39
-48,-39,9,43,-29,-14,4,-39,-19,19,0,-34
-48,-43,4,46,-26,-19,4,-43,-19,19,-9,-39
-48,-48,0,48,-24,-24,4,-43,-19,19,-9,-39
-48,-48,0,48,-24,-24,4,-39,-19,19,0,-39
-43,-48,-4,46,-19,-26,4,-39,-19,24,0,-43
-43,-53,-9,48,-17,-31,4,-39,-14,29,-9,-48
-43,-53,-9,48,-17,-31,4,-39,-14,34,-19,-48
-43,-53,-9,48,-17,-31,4,-39,-9,39,-29,-53
-43,-58,-14,51,-14,-36,9,-34,0,39,-29,-48
-48,-63,-14,56,-17,-39,9,-34,-9,34,-29,-53
-48,-68,-19,58,-14,-43,14,-34,-9,34,-14,-53
-53,-68,-14,61,-19,-41,19,-29,-9,29,4,-53
-53,-68,-14,61,-19,-41,19,-29,-14,24,14,-53
-53,-73,-19,63,-17,-46,14,-29,-19,24,24,-53
-53,-73,-19,63,-17,-46,14,-29,-14,24,29,-48
-53,-68,-14,61,-19,-41,14,-29,-14,29,24,-43
-53,-63,-9,58,-21,-36,14,-29,-14,29,14,-43
-53,-63,-9,58,-21,-36,9,-29,-14,29,4,-39
-53,-63,-9,58,-21,-36,9,-29,-19,24,-9,-43
-53,-58,-4,56,-24,-31,4,-34,-24,14,-24,-53
-53,-58,-4,56,-24,-31,9,-34,-24,14,-29,-53
-53,-58,-4,56,-24,-31,9,-34,-19,14,-29,-58
-58,-58,0,58,-29,-29,14,-29,-14,14,-29,-58
-53,-58,-4,56,-24,-31,4,-39,-24,4,-34,-63
-53,-63,-9,58,-21,-36,14,-29,-24,9,-24,-53
-53,-68,-14,61,-19,-41,14,-29,-29,9,-9,-53
-53,-73,-19,63,-17,-46,14,-34,-29,14,0,-53
-53,-73,-19,63,-17,-46,14,-34,-34,14,4,-53
-53,-73,-19,63,-17,-46,14,-29,-34,19,9,-48
-48,-73,-24,61,-12,-48,19,-24,-34,24,9,-53
-48,-68,-19,58,-14,-43,14,-24,-29,29,4,-53
-48,-68,-19,58,-14,-43,14,-24,-24,29,0,-58
-48,-68,-19,58,-14,-43,14,-24,-19,29,-9,-58
-43,-63,-19,53,-12,-41,9,-29,-29,24,-19,-58
-43,-63,-19,53,-12,-41,9,-34,-29,19,-19,-63
-48,-68,-19,58,-14,-43,14,-29,-24,24,-19,-58
-48,-68,-19,58,-14,-43,9,-29,-24,19,-24,-58
-53,-68,-14,61,-19,-41,9,-29,-24,9,-24,-58
-53,-73,-19,63,-17,-46,9,-29,-24,4,-29,-58
-53,-78,-24,65,-14,-51,14,-24,-24,4,-19,-53
-53,-82,-29,68,-12,-56,9,-24,-29,9,-19,-53
-53,-82,-29,68,-12,-56,9,-24,-29,9,-9,-48
-53,-82,-29,68,-12,-56,9,-24,-29,14,0,-48
-53,-82,-29,68,-12,-56,14,-24,-29,19,4,-53
-48,-82,-34,65,-7,-58,14,-24,-29,14,4,-53
-48,-82,-34,65,-7,-58,14,-24,-34,14,-9,-58
-48,-82,-34,65,-7,-58,14,-24,-29,9,-14,-63
-48,-82,-34,65,-7,-58,14,-24,-34,4,-24,-68
-48,-78,-29,63,-9,-53,4,-29,-39,0,-34,-73
-48,-78,-29,63,-9,-53,4,-34,-43,0,-39,-73
-53,-73,-19,63,-17,-46,4,-34,-43,0,-43,-68
-53,-73,-19,63,-17,-46,0,-34,-39,0,-48,-68
-53,-68,-14,61,-19,-41,0,-34,-39,0,-48,-63
-53,-73,-19,63,-17,-46,0,-34,-43,0,-53,-63
-53,-73,-19,63,-17,-46,0,-34,-48,-9,-58,-68
-53,-78,-24,65,-14,-51,4,-29,-43,0,-48,-63
-48,-82,-34,65,-7,-58,4,-29,-48,0,-34,-68
-48,-87,-39,68,-4,-63,4,-29,-48,0,-29,-73
-48,-87,-39,68,-4,-63,4,-29,-48,0,-24,-78
-48,-92,-43,70,-2,-68,4,-29,-43,0,-14,-73
-48,-87,-39,68,-4,-63,4,-29,-43,0,-9,-68
-53,-82,-29,68,-12,-56,4,-29,-39,4,-9,-63
-53,-82,-29,68,-12,-56,0,-29,-39,4,-14,-58
-53,-78,-24,65,-14,-51,0,-29,-39,9,-19,-48
-53,-73,-19,63,-17,-46,-9,-34,-43,4,-24,-48
-58,-73,-14,65,-21,-43,0,-34,-39,4,-19,-43
-53,-73,-19,63,-17,-46,-9,-39,-48,-9,-29,-48
-53,-73,-19,63,-17,-46,-9,-39,-48,-9,-29,-53
-53,-78,-24,65,-14,-51,0,-34,-48,-9,-24,-53
-53,-82,-29,68,-12,-56,-9,-34,-48,-9,-24,-63
-53,-82,-29,68,-12,-56,-9,-34,-48,-14,-29,-63
-48,-87,-39,68,-4,-63,-9,-34,-48,-9,-34,-68
-53,-87,-34,70,-9,-61,-9,-34,-48,-9,-39,-73
-48,-87,-39,68,-4,-63,-9,-34,-48,-9,-43,-73
-48,-82,-34,65,-7,-58,-9,-34,-43,-9,-48,-73
-48,-82,-34,65,-7,-58,-9,-34,-43,-9,-48,-68
-53,-78,-24,65,-14,-51,-9,-34,-48,-9,-48,-68
-53,-78,-24,65,-14,-51,0,-34,-48,-9,-43,-68
-53,-78,-24,65,-14,-51,-9,-39,-53,-14,-39,-63
-53,-78,-24,65,-14,-51,-9,-39,-53,-14,-29,-58
-53,-78,-24,65,-14,-51,-9,-39,-53,-14,-24,-53
-48,-78,-29,63,-9,-53,-14,-43,-53,-19,-29,-58
-53,-82,-29,68,-12,-56,-14,-39,-48,-14,-24,-48
-53,-82,-29,68,-12,-56,-14,-39,-43,-14,-29,-48
-53,-82,-29,68,-12,-56,-14,-39,-48,-14,-34,-48
-53,-87,-34,70,-9,-61,-9,-39,-43,-14,-39,-53
-53,-87,-34,70,-9,-61,-9,-39,-43,-19,-43,-63
-53,-87,-34,70,-9,-61,-9,-39,-48,-19,-39,-68
-48,-82,-34,65,-7,-58,-9,-39,-53,-19,-39,-73
-48,-82,-34,65,-7,-58,-14,-43,-58,-19,-39,-82
-48,-78,-29,63,-9,-53,-19,-48,-63,-19,-48,-87
-48,-78,-29,63,-9,-53,-19,-53,-63,-19,-48,-87
-48,-73,-24,61,-12,-48,-24,-53,-68,-19,-53,-87
-53,-73,-19,63,-17,-46,-24,-53,-73,-19,-58,-87
-53,-73,-19,63,-17,-46,-24,-48,-68,-24,-58,-82
-53,-73,-19,63,-17,-46,-19,-48,-68,-24,-53,-73
-48,-73,-24,61,-12,-48,-19,-43,-63,-24,-43,-68
-48,-73,-24,61,-12,-48,-19,-43,-63,-24,-39,-63
-48,-73,-24,61,-12,-48,-14,-43,-58,-19,-29,-53
-48,-73,-24,61,-12,-48,-14,-43,-58,-19,-24,-48
-48,-78,-29,63,-9,-53,-9,-43,-58,-14,-19,-48
-48,-73,-24,61,-12,-48,-9,-43,-48,-14,-24,-48
-48,-73,-24,61,-12,-48,-9,-43,-48,-14,-24,-48
-43,-68,-24,56,-9,-46,-9,-43,-48,-14,-29,-48
-43,-63,-19,53,-12,-41,-9,-39,-43,0,-24,-48
-39,-53,-14,46,-12,-34,-14,-43,-34,4,-24,-48
-34,-43,-9,39,-12,-26,-14,-43,-29,9,-19,-48
-29,-34,-4,31,-12,-19,-14,-43,-29,14,-14,-43
-29,-29,0,29,-14,-14,-9,-39,-24,29,-9,-39
-24,-24,0,24,-12,-12,-9,-43,-19,29,-19,-39
-24,-24,0,24,-12,-12,0,-39,-9,29,-19,-39
-24,-19,4,21,-14,-7,4,-39,-9,29,-19,-39
-24,-19,4,21,-14,-7,14,-34,-14,29,-19,-39
-19,-24,-4,21,-7,-14,14,-29,-14,24,-14,-39
-19,-29,-9,24,-4,-19,19,-29,-14,24,-9,-43
-14,-29,-14,21,0,-21,19,-24,-14,24,0,-43
-14,-29,-14,21,0,-21,19,-24,-19,24,4,-43
-14,-34,-19,24,2,-26,19,-24,-19,24,4,-43
-14,-34,-19,24,2,-26,19,-24,-14,24,-9,-43
-19,-34,-14,26,-2,-24,19,-24,-14,24,-14,-39
-14,-29,-14,21,0,-21,19,-19,-14,24,-9,-34
-14,-24,-9,19,-2,-17,19,-24,-14,24,-14,-34
-9,-19,-9,14,0,-14,19,-19,-14,24,-9,-34
0,-19,-19,9,9,-19,9,-24,-19,24,-9,-39
9,-24,-34,7,21,-29,9,-24,-19,29,0,-39
14,-24,-39,4,26,-31,4,-19,-19,34,4,-34
19,-29,-48,4,34,-39,-9,-19,-19,29,4,-39
19,-34,-53,7,36,-43,-19,-19,-29,19,4,-43
24,-39,-63,7,43,-51,-29,-19,-34,14,0,-48
29,-34,-63,2,46,-48,-43,-24,-43,9,-9,-48
34,-29,-63,-2,48,-46,-53,-24,-43,9,-9,-48
39,-24,-63,-7,51,-43,-63,-29,-53,4,-14,-48
48,-14,-63,-17,56,-39,-78,-39,-58,0,-19,-48
53,4,-48,-29,51,-21,-92,-48,-58,-9,-19,-43
63,19,-43,-41,53,-12,-97,-53,-58,0,-14,-34
73,29,-43,-51,58,-7,-107,-63,-63,-14,-14,-34
78,34,-43,-56,61,-4,-102,-58,-63,-9,0,-24
82,39,-43,-61,63,-2,-107,-58,-68,-9,-9,-29
87,34,-53,-61,70,-9,-107,-53,-63,-9,-9,-29
87,24,-63,-56,75,-19,-102,-48,-63,-9,-9,-29
87,14,-73,-51,80,-29,-102,-48,-73,-14,-24,-39
87,4,-82,-46,85,-39,-97,-43,-73,-19,-34,-48
82,-14,-97,-34,90,-56,-97,-43,-78,-24,-48,-58
78,-24,-102,-26,90,-63,-97,-43,-82,-34,-53,-63
78,-29,-107,-24,92,-68,-97,-39,-87,-34,-58,-68
78,-29,-107,-24,92,-68,-97,-43,-92,-39,-68,-73
82,-29,-112,-26,97,-70,-107,-48,-102,-48,-73,-78
82,-29,-112,-26,97,-70,-107,-53,-107,-48,-73,-78
82,-24,-107,-29,95,-65,-112,-53,-107,-48,-68,-78
82,-24,-107,-29,95,-65,-112,-53,-107,-43,-58,-78
82,-24,-107,-29,95,-65,-107,-58,-107,-39,-48,-78
82,-24,-107,-29,95,-65,-107,-58,-107,-39,-39,-78
82,-29,-112,-26,97,-70,-107,-58,-102,-39,-34,-78
82,-29,-112,-26,97,-70,-102,-58,-92,-39,-34,-78
82,-29,-112,-26,97,-70,-102,-58,-82,-39,-34,-78
78,-29,-107,-24,92,-68,-92,-53,-82,-39,-34,-68
73,-24,-97,-24,85,-61,-92,-53,-87,-39,-43,-68
63,-24,-87,-19,75,-56,-87,-58,-87,-39,-48,-68
53,-29,-82,-12,68,-56,-78,-58,-87,-39,-48,-63
39,-34,-73,-2,56,-53,-68,-58,-87,-29,-43,-58
19,-43,-63,12,41,-53,-58,-58,-87,-24,-43,-58
0,-53,-53,26,26,-53,-48,-53,-78,-19,-43,-58
-19,-63,-43,41,12,-53,-43,-58,-73,-19,-43,-63
-34,-78,-43,56,4,-61,-34,-58,-68,-19,-43,-63
-43,-87,-43,65,0,-65,-29,-53,-63,-14,-43,-63
-53,-97,-43,75,-4,-70,-29,-58,-68,-19,-48,-68
-63,-107,-43,85,-9,-75,-24,-58,-73,-24,-58,-73
-68,-117,-48,92,-9,-82,-24,-58,-73,-29,-68,-78
-78,-122,-43,100,-17,-82,-19,-58,-78,-34,-78,-87
-87,-126,-39,107,-24,-82,-19,-58,-82,-34,-82,-92
-92,-126,-34,109,-29,-80,-14,-53,-78,-39,-82,-92
-97,-126,-29,112,-34,-78,-14,-53,-78,-39,-82,-97
-92,-126,-34,109,-29,-80,-14,-53,-78,-39,-78,-102
-92,-126,-34,109,-29,-80,-14,-53,-78,-39,-68,-102
-87,-122,-34,104,-26,-78,-19,-58,-82,-43,-68,-102
-87,-122,-34,104,-26,-78,-19,-58,-78,-39,-58,-102
-82,-122,-39,102,-21,-80,-19,-53,-78,-39,-53,-97
-82,-122,-39,102,-21,-80,-19,-53,-78,-34,-53,-97
-82,-126,-43,104,-19,-85,-19,-53,-78,-34,-53,-102
-82,-126,-43,104,-19,-85,-19,-53,-78,-29,-53,-97
-82,-126,-43,104,-19,-85,-14,-53,-73,-29,-53,-97
-82,-126,-43,104,-19,-85,-14,-53,-73,-29,-53,-92
-82,-122,-39,102,-21,-80,-14,-53,-73,-29,-53,-87
-78,-122,-43,100,-17,-82,-19,-58,-78,-34,-53,-92
-78,-117,-39,97,-19,-78,-19,-58,-78,-34,-53,-87
-78,-112,-34,95,-21,-73,-19,-53,-73,-34,-53,-82
-78,-112,-34,95,-21,-73,-19,-53,-73,-34,-53,-82
-78,-112,-34,95,-21,-73,-19,-53,-73,-34,-53,-82
-78,-117,-39,97,-19,-78,-19,-53,-68,-34,-58,-87
-78,-117,-39,97,-19,-78,-19,-53,-68,-34,-58,-87
-78,-117,-39,97,-19,-78,-19,-53,-63,-34,-58,-87
-78,-117,-39,97,-19,-78,-24,-53,-63,-34,-58,-92
-78,-112,-34,95,-21,-73,-24,-53,-63,-29,-63,-87
-73,-112,-39,92,-17,-75,-24,-58,-68,-34,-63,-87
-73,-112,-39,92,-17,-75,-24,-53,-63,-29,-63,-78
-73,-112,-39,92,-17,-75,-24,-53,-63,-29,-63,-73
-73,-112,-39,92,-17,-75,-24,-53,-63,-24,-53,-68
-73,-112,-39,92,-17,-75,-24,-48,-63,-24,-48,-68
-68,-112,-43,90,-12,-78,-19,-48,-63,-24,-39,-73
-68,-117,-48,92,-9,-82,-19,-48,-68,-19,-34,-78
-73,-112,-39,92,-17,-75,-19,-48,-68,-19,-29,-78
-73,-112,-39,92,-17,-75,-19,-48,-63,-24,-29,-78
-68,-107,-39,87,-14,-73,-19,-48,-63,-24,-29,-82
-68,-107,-39,87,-14,-73,-19,-48,-63,-24,-34,-78
-68,-107,-39,87,-14,-73,-19,-48,-63,-24,-34,-78
-68,-107,-39,87,-14,-73,-19,-43,-63,-24,-39,-73
-68,-107,-39,87,-14,-73,-19,-43,-58,-24,-43,-73
-68,-107,-39,87,-14,-73,-19,-43,-63,-24,-48,-73
-68,-107,-39,87,-14,-73,-19,-43,-63,-24,-48,-73
-68,-107,-39,87,-14,-73,-14,-43,-58,-19,-53,-73
-68,-107,-39,87,-14,-73,-14,-43,-53,-19,-53,-78
-68,-107,-39,87,-14,-73,-9,-39,-53,-19,-53,-82
-63,-112,-48,87,-7,-80,-9,-34,-58,-19,-53,-87
-63,-122,-58,92,-2,-90,0,-29,-58,-19,-58,-92
-53,-131,-78,92,12,-104,0,-19,-63,-24,-58,-102
-53,-141,-87,97,17,-114,9,0,-68,-29,-58,-102
-48,-151,-102,100,26,-126,14,9,-78,-39,-68,-107
-43,-156,-112,100,34,-134,24,29,-78,-43,-78,-107
-34,-151,-117,92,41,-134,34,39,-73,-43,-82,-112
-24,-141,-117,82,46,-129,43,58,-63,-39,-82,-102
0,-117,-117,58,58,-117,48,68,-43,-24,-78,-92
29,-82,-112,26,70,-97,58,87,-14,4,-68,-78
63,-43,-107,-9,85,-75,63,107,19,39,-43,-58
117,14,-102,-65,109,-43,58,122,48,78,-9,-39
180,82,-97,-131,139,-7,48,141,87,131,43,0
268,165,-102,-217,185,31,29,161,141,195,107,48
361,273,-87,-317,224,92,-24,161,180,258,175,102
468,395,-73,-431,270,161,-92,141,229,326,258,165
580,536,-43,-558,312,246,-180,102,273,400,346,244
707,692,-14,-700,361,339,-292,43,312,468,424,322
834,858,24,-846,405,441,-419,-24,351,541,507,414
961,1029,68,-995,446,549,-561,-97,375,600,590,507
1088,1185,97,-1137,495,641,-717,-180,380,653,663,590
1190,1327,136,-1259,527,732,-873,-268,361,678,717,673
1273,1454,180,-1363,546,817,-1039,-375,317,668,746,727
1312,1542,229,-1427,541,885,-1200,-507,248,639,766,771
1298,1605,307,-1451,495,956,-1351,-668,161,585,766,805
1224,1654,429,-1439,397,1041,-1493,-863,63,517,746,829
1102,1678,575,-1390,263,1127,-1620,-1098,-43,439,722,849
936,1688,751,-1312,92,1220,-1727,-1337,-131,361,697,873
756,1688,932,-1222,-87,1310,-1810,-1566,-219,283,663,888
575,1668,1093,-1122,-258,1381,-1864,-1761,-297,209,619,893
414,1629,1215,-1022,-400,1422,-1869,-1883,-351,141,575,888
278,1561,1283,-919,-502,1422,-1834,-1927,-395,82,522,854
180,1473,1293,-827,-556,1383,-1751,-1888,-424,29,453,790
131,1361,1229,-746,-549,1295,-1639,-1776,-434,-14,385,717
107,1239,1132,-673,-512,1185,-1493,-1615,-429,-48,312,629
97,1112,1015,-605,-458,1063,-1337,-1444,-400,-63,253,541
97,995,897,-546,-400,946,-1185,-1263,-370,-73,204,468
97,888,790,-492,-346,839,-1039,-1098,-341,-78,156,395
82,775,692,-429,-305,734,-893,-941,-307,-73,131,336
58,678,619,-368,-280,649,-746,-795,-258,-53,117,297
34,590,556,-312,-261,573,-629,-683,-214,-39,107,263
9,517,507,-263,-248,512,-522,-580,-170,-19,97,229
-24,439,463,-207,-244,451,-429,-497,-131,-9,87,190
-43,361,405,-158,-224,383,-346,-424,-112,0,68,156
-63,297,361,-117,-212,329,-283,-356,-97,0,48,122
-73,239,312,-82,-192,275,-219,-302,-82,0,34,92
-87,175,263,-43,-175,219,-161,-248,-73,-9,19,68
-97,122,219,-12,-158,170,-117,-195,-73,-14,9,39
-102,73,175,14,-139,124,-73,-151,-68,-14,0,14
-107,34,141,36,-124,87,-39,-112,-63,-19,-14,-14
-107,0,107,53,-107,53,-14,-82,-53,-19,-24,-34
-107,-34,73,70,-90,19,14,-63,-48,-19,-29,-53
-112,-63,48,87,-80,-7,39,-34,-39,-9,-29,-68
-117,-87,29,102,-73,-29,58,-19,-34,0,-39,-82
-117,-107,9,112,-63,-48,68,0,-29,-14,-53,-92
-122,-126,-4,124,-58,-65,82,19,-29,-14,-63,-102
-122,-136,-14,129,-53,-75,92,24,-34,-19,-73,-112
-126,-146,-19,136,-53,-82,97,34,-29,-14,-73,-112
-126,-151,-24,139,-51,-87,107,43,-29,-14,-73,-107
-126,-156,-29,141,-48,-92,107,48,-29,-14,-73,-107
-122,-161,-39,141,-41,-100,112,48,-34,-19,-68,-102
-122,-165,-43,143,-39,-104,112,48,-34,-24,-63,-102
-126,-175,-48,151,-39,-112,122,58,-34,-24,-58,-97
-126,-180,-53,153,-36,-117,126,63,-29,-24,-53,-92
-131,-180,-48,156,-41,-114,126,68,-34,-29,-58,-97
-131,-180,-48,156,-41,-114,126,68,-39,-29,-63,-97
-131,-180,-48,156,-41,-114,131,73,-39,-29,-68,-102
-131,-180,-48,156,-41,-114,131,73,-29,-24,-68,-107
-126,-180,-53,153,-36,-117,131,73,-24,-24,-68,-112
-126,-180,-53,153,-36,-117,131,73,-24,-24,-68,-117
-131,-185,-53,158,-39,-119,136,73,-29,-24,-73,-122
-131,-190,-58,161,-36,-124,141,78,-24,-24,-68,-122
-136,-195,-58,165,-39,-126,141,78,-24,-24,-68,-126
-136,-195,-58,165,-39,-126,141,82,-29,-24,-73,-126
-136,-200,-63,168,-36,-131,146,92,-24,-19,-68,-122
-136,-195,-58,165,-39,-126,141,87,-24,-24,-73,-126
-131,-195,-63,163,-34,-129,146,92,-19,-19,-73,-126
-126,-195,-68,161,-29,-131,146,97,-19,-19,-73,-122
-126,-195,-68,161,-29,-131,151,97,-14,-19,-78,-122
-131,-195,-63,163,-34,-129,151,97,-14,-19,-82,-122
-136,-195,-58,165,-39,-126,151,97,-19,-24,-87,-122
-136,-195,-58,165,-39,-126,151,97,-24,-24,-92,-122
-141,-195,-53,168,-43,-124,161,102,-19,-19,-92,-117
-136,-195,-58,165,-39,-126,156,102,-24,-29,-102,-122
-136,-195,-58,165,-39,-126,161,107,-19,-29,-102,-122
-136,-190,-53,163,-41,-122,161,107,-19,-24,-92,-122
-131,-190,-58,161,-36,-124,165,107,-14,-24,-87,-117
-136,-195,-58,165,-39,-126,165,112,-14,-19,-78,-117
-136,-195,-58,165,-39,-126,170,112,-14,-19,-73,-117
-141,-195,-53,168,-43,-124,175,117,-9,-14,-58,-112
-141,-200,-58,170,-41,-129,180,122,-9,-9,-58,-117
-141,-209,-68,175,-36,-139,180,126,0,-9,-63,-122
-136,-209,-73,173,-31,-141,180,126,4,-9,-68,-122
-136,-209,-73,173,-31,-141,180,131,4,-9,-68,-122
-141,-209,-68,175,-36,-139,185,131,0,-14,-73,-122
-141,-209,-68,175,-36,-139,185,131,0,-14,-78,-122
-141,-195,-53,168,-43,-124,190,136,4,-14,-78,-117
-141,-190,-48,165,-46,-119,190,131,-9,-19,-78,-122
-141,-190,-48,165,-46,-119,190,136,-9,-14,-78,-122
-141,-190,-48,165,-46,-119,195,136,0,-14,-78,-122
-141,-195,-53,168,-43,-124,209,146,14,0,-73,-117
-136,-195,-58,165,-39,-126,204,146,14,0,-78,-126
-136,-200,-63,168,-36,-131,209,151,19,4,-73,-122
-136,-200,-63,168,-36,-131,214,151,19,9,-73,-122
-136,-200,-63,168,-36,-131,214,156,19,9,-73,-126
-136,-200,-63,168,-36,-131,219,161,19,9,-73,-126
-136,-200,-63,168,-36,-131,224,165,19,9,-73,-126
-136,-200,-63,168,-36,-131,224,165,24,9,-73,-131
-136,-200,-63,168,-36,-131,229,170,29,9,-73,-131
-136,-200,-63,168,-36,-131,229,175,29,9,-68,-131
-136,-209,-73,173,-31,-141,229,175,34,9,-63,-131
-136,-209,-73,173,-31,-141,234,180,39,14,-63,-131
-136,-209,-73,173,-31,-141,239,185,39,14,-63,-131
-136,-209,-73,173,-31,-141,244,190,39,19,-63,-131
-141,-209,-68,175,-36,-139,248,195,39,19,-58,-131
-136,-209,-73,173,-31,-141,253,204,43,24,-58,-131
-136,-200,-63,168,-36,-131,258,214,48,29,-58,-126
-136,-200,-63,168,-36,-131,258,219,53,34,-48,-122
-136,-200,-63,168,-36,-131,263,224,58,39,-43,-122
-131,-195,-63,163,-34,-129,258,224,58,34,-43,-122
-131,-195,-63,163,-34,-129,263,229,58,39,-43,-117
-126,-195,-68,161,-29,-131,273,239,63,43,-43,-112
-126,-195,-68,161,-29,-131,278,244,68,48,-39,-107
-122,-200,-78,161,-21,-139,283,253,68,48,-39,-102
-122,-200,-78,161,-21,-139,287,258,73,48,-39,-102
-122,-209,-87,165,-17,-148,292,263,78,53,-39,-102
-122,-209,-87,165,-17,-148,297,268,87,53,-34,-102
-122,-209,-87,165,-17,-148,302,278,87,58,-29,-102
-122,-209,-87,165,-17,-148,307,283,92,58,-29,-97
-117,-200,-82,158,-17,-141,307,287,92,58,-29,-102
-112,-195,-82,153,-14,-139,312,297,97,63,-24,-102
-107,-190,-82,148,-12,-136,317,302,97,63,-29,-107
-102,-190,-87,146,-7,-139,326,312,107,68,-24,-107
-102,-185,-82,143,-9,-134,326,317,112,68,-29,-117
-97,-180,-82,139,-7,-131,331,326,122,73,-29,-117
-92,-175,-82,134,-4,-129,331,331,122,78,-34,-122
-87,-170,-82,129,-2,-126,331,336,117,78,-34,-122
-87,-165,-78,126,-4,-122,336,346,122,78,-34,-122
-82,-165,-82,124,0,-124,346,356,122,82,-29,-117
-82,-165,-82,124,0,-124,351,366,126,87,-29,-107
-78,-161,-82,119,2,-122,356,370,122,87,-29,-107
-73,-161,-87,117,7,-124,366,385,131,92,-24,-102
-68,-161,-92,114,12,-126,366,390,136,97,-24,-97
-63,-161,-97,112,17,-129,370,400,146,107,-19,-92
-63,-156,-92,109,14,-124,380,419,151,117,-9,-87
-53,-156,-102,104,24,-129,380,424,156,117,0,-92
-48,-151,-102,100,26,-126,385,434,156,117,4,-92
-43,-151,-107,97,31,-129,390,444,165,122,9,-87
-39,-146,-107,92,34,-126,395,448,170,122,14,-87
-34,-141,-107,87,36,-124,409,463,180,131,24,-78
-24,-136,-112,80,43,-124,409,473,185,141,24,-73
-19,-131,-112,75,46,-122,414,478,190,146,24,-68
-9,-126,-117,68,53,-122,414,483,195,151,29,-63
0,-122,-122,61,61,-122,419,492,195,156,39,-63
4,-117,-122,56,63,-119,429,502,204,165,48,-53
14,-112,-126,48,70,-119,429,512,204,165,48,-53
19,-107,-126,43,73,-117,429,517,209,170,53,-53
29,-97,-126,34,78,-112,434,522,214,170,58,-53
39,-87,-126,24,82,-107,424,527,209,170,53,-63
48,-78,-126,14,87,-102,424,527,214,175,48,-63
58,-68,-126,4,92,-97,424,531,224,180,43,-63
68,-58,-126,-4,97,-92,414,531,219,175,34,-63
73,-48,-122,-12,97,-85,414,536,219,175,34,-58
78,-43,-122,-17,100,-82,419,541,229,185,43,-53
82,-39,-122,-21,102,-80,414,546,229,185,48,-48
87,-29,-117,-29,102,-73,414,546,229,185,63,-43
92,-24,-117,-34,104,-70,414,551,234,190,73,-34
102,-19,-122,-41,112,-70,409,551,234,190,78,-29
107,-14,-122,-46,114,-68,409,556,244,204,87,-24
117,-9,-126,-53,122,-68,400,551,244,209,92,-19
122,0,-122,-61,122,-61,395,546,244,209,92,-14
126,4,-122,-65,124,-58,390,541,244,209,92,-9
136,14,-122,-75,129,-53,380,536,239,209,92,-9
146,24,-122,-85,134,-48,370,531,239,209,92,0
151,34,-117,-92,134,-41,361,522,234,214,97,4
161,43,-117,-102,139,-36,341,507,224,204,92,4
165,48,-117,-107,141,-34,331,497,224,209,92,9
175,58,-117,-117,146,-29,312,478,214,195,87,9
175,63,-112,-119,143,-24,302,463,214,195,92,14
175,68,-107,-122,141,-19,287,448,209,190,97,24
180,73,-107,-126,143,-17,273,429,195,185,97,24
180,78,-102,-129,141,-12,258,414,190,190,102,29
180,87,-92,-134,136,-2,239,390,185,185,102,29
180,92,-87,-136,134,2,224,370,180,185,107,34
185,102,-82,-143,134,9,204,346,170,180,102,34
185,107,-78,-146,131,14,180,322,161,175,97,29
180,112,-68,-146,124,21,165,302,151,170,97,34
175,117,-58,-146,117,29,151,283,136,165,97,34
170,122,-48,-146,109,36,136,263,126,156,97,34
165,122,-43,-143,104,39,126,248,126,156,102,39
161,117,-43,-139,102,36,112,224,112,151,97,39
156,117,-39,-136,97,39,102,209,107,146,92,39
151,117,-34,-134,92,41,87,185,97,136,82,34
141,112,-29,-126,85,41,78,170,97,131,78,34
136,107,-29,-122,82,39,68,156,92,126,73,29
126,102,-24,-114,75,39,58,141,82,122,68,29
122,97,-24,-109,73,36,48,122,73,112,63,24
117,92,-24,-104,70,34,43,112,73,107,58,24
107,87,-19,-97,63,34,39,102,68,102,58,29
102,87,-14,-95,58,36,29,87,53,92,53,29
97,78,-19,-87,58,29,24,78,53,87,58,29
92,68,-24,-80,58,21,19,68,48,82,58,24
82,63,-19,-73,51,21,14,58,43,82,58,24
73,58,-14,-65,43,21,14,48,43,78,53,24
68,58,-9,-63,39,24,14,43,39,78,53,24
63,53,-9,-58,36,21,4,34,34,78,43,14
53,53,0,-53,26,26,4,29,24,73,34,14
48,53,4,-51,21,29,0,19,19,63,24,4
48,48,0,-48,24,24,0,19,19,63,24,4
43,39,-4,-41,24,17,0,14,19,63,29,0
39,29,-9,-34,24,9,0,9,14,63,29,-9
34,24,-9,-29,21,7,-9,4,14,53,19,-24
24,14,-9,-19,17,2,0,4,14,58,29,-24
19,9,-9,-14,14,0,0,-9,4,53,24,-29
14,9,-4,-12,9,2,0,-9,4,48,19,-34
9,4,-4,-7,7,0,-9,-14,-9,39,9,-34
4,4,0,-4,2,2,0,-9,-9,39,9,-29
4,0,-4,-2,4,-2,-9,-14,-9,34,4,-29
4,0,-4,-2,4,-2,-9,-14,-9,34,0,-24
4,0,-4,-2,4,-2,-9,-19,-9,29,4,-19
0,-9,-9,4,4,-9,-9,-19,0,34,9,-14
0,-9,-9,4,4,-9,-9,-19,-9,34,14,-19
-9,-14,-4,12,-2,-9,-9,-19,-9,34,14,-19
-14,-14,0,14,-7,-7,0,-19,0,39,24,-19
-14,-19,-4,17,-4,-12,0,-19,0,39,24,-24
-14,-19,-4,17,-4,-12,-9,-24,0,39,19,-29
-19,-19,0,19,-9,-9,-9,-24,-9,34,9,-34
-19,-19,0,19,-9,-9,-9,-29,-9,34,4,-34
-19,-19,0,19,-9,-9,-9,-29,-14,29,0,-34
-19,-19,0,19,-9,-9,-9,-29,-14,24,0,-29
-24,-19,4,21,-14,-7,0,-29,-19,24,4,-24
-24,-24,0,24,-12,-12,0,-29,-19,24,0,-29
-24,-24,0,24,-12,-12,0,-24,-14,24,0,-29
-24,-29,-4,26,-9,-17,-9,-29,-9,24,0,-34
-29,-29,0,29,-14,-14,0,-24,0,24,-9,-34
-29,-29,0,29,-14,-14,0,-29,0,24,-14,-39
-29,-29,0,29,-14,-14,0,-29,-9,24,-19,-43
-29,-29,0,29,-14,-14,0,-29,-9,24,-19,-43
-34,-34,0,34,-17,-17,0,-34,-14,24,-19,-39
-34,-34,0,34,-17,-17,4,-29,-19,19,-19,-39
-34,-34,0,34,-17,-17,4,-29,-19,19,-19,-39
-34,-34,0,34,-17,-17,0,-34,-19,24,-19,-39
-34,-29,4,31,-19,-12,0,-34,-14,24,-19,-39
-34,-29,4,31,-19,-12,0,-34,-14,24,-14,-39
-34,-24,9,29,-21,-7,0,-34,-14,29,-9,-34
-34,-24,9,29,-21,-7,0,-39,-14,29,4,-34
-34,-24,9,29,-21,-7,0,-39,-9,29,9,-29
-39,-24,14,31,-26,-4,0,-39,-9,29,14,-29
-39,-29,9,34,-24,-9,4,-39,-9,29,14,-29
-39,-34,4,36,-21,-14,4,-34,0,34,19,-24
-39,-39,0,39,-19,-19,4,-34,0,34,9,-24
-39,-39,0,39,-19,-19,4,-34,0,34,4,-24
-39,-39,0,39,-19,-19,4,-34,-9,34,4,-29
-39,-39,0,39,-19,-19,0,-39,-9,29,0,-29
-39,-39,0,39,-19,-19,0,-39,-14,29,-9,-34
-39,-39,0,39,-19,-19,4,-39,-9,29,0,-39
-39,-39,0,39,-19,-19,4,-39,-9,24,-9,-43
-43,-39,4,41,-24,-17,4,-39,-9,14,-14,-43
-43,-39,4,41,-24,-17,0,-39,-9,14,-14,-48
-43,-39,4,41,-24,-17,0,-39,-9,19,-14,-43
-43,-34,9,39,-26,-12,4,-39,-14,19,-14,-39
-43,-34,9,39,-26,-12,4,-43,-14,19,-14,-39
-48,-29,19,39,-34,-4,4,-43,-19,24,-14,-34
-48,-24,24,36,-36,0,4,-43,-19,29,-14,-34
-43,-24,19,34,-31,-2,0,-43,-24,29,-19,-34
-43,-24,19,34,-31,-2,4,-43,-24,29,-14,-34
-43,-29,14,36,-29,-7,4,-39,-19,34,4,-29
-43,-29,14,36,-29,-7,4,-39,-14,34,4,-29
-43,-34,9,39,-26,-12,4,-39,-14,29,9,-34
-43,-39,4,41,-24,-17,4,-39,-14,24,9,-34
-48,-39,9,43,-29,-14,9,-39,-9,24,4,-34
-53,-39,14,46,-34,-12,9,-39,0,19,-9,-34
-53,-34,19,43,-36,-7,9,-39,-9,19,-19,-34
-53,-34,19,43,-36,-7,9,-39,-14,19,-19,-34
-53,-34,19,43,-36,-7,4,-39,-14,19,-19,-34
-53,-34,19,43,-36,-7,4,-34,-14,24,-14,-34
-53,-34,19,43,-36,-7,4,-34,-14,29,-9,-39
-48,-39,9,43,-29,-14,4,-34,-14,29,0,-43
-48,-39,9,43,-29,-14,4,-34,-9,29,4,-43
-48,-39,9,43,-29,-14,9,-39,0,29,9,-43
-53,-39,14,46,-34,-12,9,-39,0,29,9,-48
-53,-43,9,48,-31,-17,9,-34,-9,24,0,-48
-53,-39,14,46,-34,-12,9,-34,-9,24,-9,-43
-53,-39,14,46,-34,-12,9,-34,-9,24,-9,-43
-53,-43,9,48,-31,-17,9,-34,-9,24,-14,-43
-53,-43,9,48,-31,-17,9,-34,-9,24,-19,-43
-53,-43,9,48,-31,-17,9,-34,-9,19,-24,-43
-53,-43,9,48,-31,-17,9,-34,-9,19,-24,-43
-53,-48,4,51,-29,-21,14,-29,0,19,-19,-43
-53,-48,4,51,-29,-21,14,-29,-9,19,-14,-43
-58,-53,4,56,-31,-24,14,-29,0,19,-14,-43
-58,-53,4,56,-31,-24,14,-29,-9,19,-14,-48
-58,-53,4,56,-31,-24,14,-34,-9,19,-14,-48
-58,-58,0,58,-29,-29,19,-29,-9,24,-9,-43
-58,-53,4,56,-31,-24,14,-34,-19,19,-19,-53
-63,-53,9,58,-36,-21,19,-29,-14,19,-19,-53
-63,-58,4,61,-34,-26,19,-29,-19,19,-24,-53
-58,-58,0,58,-29,-29,19,-29,-19,19,-19,-58
-53,-63,-9,58,-21,-36,19,-24,-19,19,-19,-58
-53,-63,-9,58,-21,-36,24,-24,-14,19,-19,-58
-53,-68,-14,61,-19,-41,19,-24,-14,19,-14,-58
-53,-63,-9,58,-21,-36,19,-29,-14,19,-14,-53
-53,-63,-9,58,-21,-36,19,-29,-14,19,-14,-53
-53,-58,-4,56,-24,-31,9,-34,-24,9,-24,-53
-58,-58,0,58,-29,-29,14,-29,-19,14,-24,-43
-58,-53,4,56,-31,-24,9,-34,-29,4,-29,-43
-63,-53,9,58,-36,-21,14,-29,-24,9,-29,-39
-58,-53,4,56,-31,-24,9,-34,-29,0,-34,-39
-58,-58,0,58,-29,-29,14,-29,-24,0,-24,-34
-58,-58,0,58,-29,-29,9,-29,-19,0,-24,-39
-58,-63,-4,61,-26,-34,9,-29,-19,0,-24,-43
-58,-63,-4,61,-26,-34,9,-34,-24,0,-24,-43
-58,-68,-9,63,-24,-39,9,-34,-29,0,-24,-48
-58,-73,-14,65,-21,-43,14,-29,-29,4,-24,-48
-58,-68,-9,63,-24,-39,9,-34,-39,0,-29,-58
-58,-68,-9,63,-24,-39,9,-34,-43,4,-29,-58
-58,-68,-9,63,-24,-39,9,-29,-43,9,-34,-58
-58,-68,-9,63,-24,-39,4,-29,-39,9,-39,-58
-58,-68,-9,63,-24,-39,4,-29,-39,9,-39,-63
-53,-73,-19,63,-17,-46,4,-29,-34,9,-39,-63
-53,-78,-24,65,-14,-51,9,-29,-24,14,-29,-58
-58,-82,-24,70,-17,-53,9,-29,-24,14,-29,-58
-63,-82,-19,73,-21,-51,14,-24,-19,9,-29,-53
-63,-82,-19,73,-21,-51,14,-29,-24,4,-34,-53
-63,-82,-19,73,-21,-51,14,-29,-24,0,-39,-53
-63,-73,-9,68,-26,-41,4,-34,-29,-9,-48,-53
-63,-68,-4,65,-29,-36,4,-34,-34,-14,-53,-53
-63,-68,-4,65,-29,-36,4,-34,-39,-14,-48,-53
-63,-68,-4,65,-29,-36,4,-34,-34,-9,-43,-53
-63,-68,-4,65,-29,-36,4,-34,-34,-9,-39,-58
-63,-68,-4,65,-29,-36,4,-34,-39,0,-34,-58
-63,-73,-9,68,-26,-41,4,-34,-43,0,-29,-63
-63,-78,-14,70,-24,-46,4,-34,-43,0,-29,-68
-63,-78,-14,70,-24,-46,0,-34,-43,4,-24,-68
-63,-78,-14,70,-24,-46,0,-34,-43,4,-24,-68
-63,-78,-14,70,-24,-46,0,-34,-43,0,-24,-68
-58,-78,-19,68,-19,-48,0,-39,-43,0,-24,-68
-58,-78,-19,68,-19,-48,0,-39,-39,-9,-29,-68
-58,-73,-14,65,-21,-43,0,-39,-39,-9,-39,-68
-58,-73,-14,65,-21,-43,0,-39,-39,-14,-43,-63
-53,-68,-14,61,-19,-41,-9,-39,-43,-19,-43,-63
-53,-68,-14,61,-19,-41,-9,-39,-48,-14,-39,-58
-53,-73,-19,63,-17,-46,-9,-39,-48,-9,-34,-58
-48,-78,-29,63,-9,-53,-9,-39,-48,-9,-34,-63
-53,-78,-24,65,-14,-51,-9,-39,-48,0,-24,-58
-53,-78,-24,65,-14,-51,-9,-39,-48,0,-29,-63
-58,-78,-19,68,-19,-48,-9,-39,-48,-9,-29,-63
-63,-78,-14,70,-24,-46,-9,-43,-48,-9,-34,-63
-63,-78,-14,70,-24,-46,-9,-43,-43,-9,-39,-63
-63,-73,-9,68,-26,-41,-9,-43,-39,-9,-39,-63
-63,-73,-9,68,-26,-41,-9,-43,-39,-9,-43,-63
-63,-73,-9,68,-26,-41,-9,-43,-43,-9,-48,-63
-58,-73,-14,65,-21,-43,-9,-43,-43,-9,-48,-63
-58,-78,-19,68,-19,-48,-9,-43,-43,-9,-53,-68
-58,-78,-19,68,-19,-48,-9,-48,-43,-9,-53,-68
-58,-78,-19,68,-19,-48,-9,-43,-48,-9,-53,-68
-58,-78,-19,68,-19,-48,-9,-43,-43,0,-48,-63
-58,-78,-19,68,-19,-48,-9,-43,-43,-9,-48,-63
-58,-78,-19,68,-19,-48,-9,-43,-48,-9,-48,-63
-58,-73,-14,65,-21,-43,-14,-43,-48,-14,-43,-63
-58,-73,-14,65,-21,-43,-14,-43,-53,-14,-39,-58
-63,-68,-4,65,-29,-36,-9,-43,-53,-14,-34,-53
-63,-68,-4,65,-29,-36,-9,-48,-53,-14,-34,-53
-63,-68,-4,65,-29,-36,-9,-43,-53,-14,-29,-53
-63,-68,-4,65,-29,-36,-9,-43,-53,-14,-29,-53
-63,-73,-9,68,-26,-41,-9,-43,-43,-14,-34,-53
-58,-73,-14,65,-21,-43,-9,-43,-39,-14,-34,-58
-58,-73,-14,65,-21,-43,-9,-39,-39,-14,-29,-58
-53,-68,-14,61,-19,-41,-14,-43,-43,-14,-34,-58
-53,-63,-9,58,-21,-36,-14,-43,-39,0,-29,-58
-48,-58,-9,53,-19,-34,-14,-48,-34,0,-29,-58
-43,-48,-4,46,-19,-26,-19,-48,-34,4,-29,-58
-43,-43,0,43,-21,-21,-14,-43,-29,14,-24,-48
-39,-34,4,36,-21,-14,-9,-43,-24,14,-24,-48
-39,-29,9,34,-24,-9,-9,-43,-19,19,-29,-48
-34,-24,9,29,-21,-7,0,-39,-14,24,-19,-39
-34,-24,9,29,-21,-7,4,-39,-9,29,-9,-34
-34,-24,9,29,-21,-7,9,-34,0,34,0,-24
-29,-24,4,26,-17,-9,9,-39,0,29,0,-24
-29,-24,4,26,-17,-9,14,-34,4,29,4,-19
-24,-19,4,21,-14,-7,14,-34,4,29,9,-14
-24,-19,4,21,-14,-7,19,-29,0,29,9,-19
-24,-19,4,21,-14,-7,19,-29,0,29,4,-24
-24,-19,4,21,-14,-7,19,-29,0,34,0,-29
-24,-19,4,21,-14,-7,19,-24,0,34,-9,-34
-24,-19,4,21,-14,-7,19,-24,-9,34,-14,-39
-24,-19,4,21,-14,-7,19,-24,-9,34,-19,-39
-24,-14,9,19,-17,-2,14,-29,-14,29,-24,-39
-24,-9,14,17,-19,2,14,-24,-9,29,-19,-29
-19,0,19,9,-19,9,9,-29,-14,29,-19,-24
-14,4,19,4,-17,12,9,-24,-19,29,-19,-19
-9,9,19,0,-14,14,0,-29,-24,24,-19,-24
4,4,0,-4,2,2,-9,-24,-19,19,-14,-24
9,0,-9,-4,9,-4,-14,-24,-19,19,-14,-24
19,-9,-29,-4,24,-19,-29,-29,-34,9,-24,-39
24,-19,-43,-2,34,-31,-34,-24,-34,9,-19,-39
29,-19,-48,-4,39,-34,-53,-29,-39,4,-19,-43
34,-19,-53,-7,43,-36,-58,-34,-39,4,-14,-39
39,-19,-58,-9,48,-39,-63,-34,-39,9,-9,-39
43,-9,-53,-17,48,-31,-78,-39,-39,9,-14,-34
48,4,-43,-26,46,-19,-87,-43,-39,9,-14,-34
53,19,-34,-36,43,-7,-97,-53,-43,4,-19,-29
63,34,-29,-48,46,2,-102,-58,-48,4,-19,-24
73,43,-29,-58,51,7,-112,-63,-58,-9,-24,-24
73,43,-29,-58,51,7,-107,-63,-63,0,-24,-24
78,43,-34,-61,56,4,-107,-58,-73,-9,-19,-24
82,39,-43,-61,63,-2,-102,-58,-82,-9,-19,-29
82,29,-53,-56,68,-12,-97,-53,-82,-14,-19,-34
78,14,-63,-46,70,-24,-97,-48,-87,-19,-24,-43
73,4,-68,-39,70,-31,-97,-48,-87,-24,-29,-48
73,-9,-82,-31,78,-46,-102,-48,-92,-29,-34,-53
73,-14,-87,-29,80,-51,-107,-53,-97,-34,-43,-58
73,-19,-92,-26,82,-56,-107,-53,-97,-39,-53,-63
73,-19,-92,-26,82,-56,-107,-58,-102,-43,-53,-68
73,-19,-92,-26,82,-56,-107,-58,-107,-43,-53,-68
78,-14,-92,-31,85,-53,-107,-58,-107,-43,-58,-68
78,-9,-87,-34,82,-48,-112,-68,-112,-48,-63,-68
78,0,-78,-39,78,-39,-112,-68,-112,-48,-58,-63
78,0,-78,-39,78,-39,-112,-68,-107,-48,-63,-63
73,4,-68,-39,70,-31,-112,-68,-107,-48,-58,-58
73,4,-68,-39,70,-31,-112,-73,-102,-43,-58,-53
68,4,-63,-36,65,-29,-107,-73,-102,-43,-63,-53
68,4,-63,-36,65,-29,-107,-73,-97,-43,-73,-53
63,4,-58,-34,61,-26,-102,-73,-92,-39,-73,-53
53,0,-53,-26,53,-26,-92,-68,-87,-34,-68,-48
43,-14,-58,-14,51,-36,-82,-68,-87,-34,-68,-53
29,-24,-53,-2,41,-39,-73,-63,-82,-34,-63,-53
9,-39,-48,14,29,-43,-63,-63,-73,-24,-53,-58
-14,-48,-34,31,9,-41,-48,-63,-73,-24,-43,-58
-34,-63,-29,48,-2,-46,-39,-63,-73,-29,-39,-63
-53,-78,-24,65,-14,-51,-29,-58,-63,-24,-29,-63
-68,-87,-19,78,-24,-53,-24,-63,-63,-24,-39,-73
-73,-92,-19,82,-26,-56,-24,-63,-68,-29,-43,-73
-82,-97,-14,90,-34,-56,-24,-63,-73,-29,-48,-73
-87,-102,-14,95,-36,-58,-19,-58,-78,-34,-58,-78
-92,-107,-14,100,-39,-61,-24,-63,-78,-39,-68,-82
-92,-107,-14,100,-39,-61,-24,-63,-82,-43,-73,-82
-92,-112,-19,102,-36,-65,-19,-63,-78,-43,-73,-82
-97,-117,-19,107,-39,-68,-19,-63,-78,-43,-68,-87
-97,-117,-19,107,-39,-68,-19,-63,-78,-48,-68,-87
-97,-122,-24,109,-36,-73,-14,-58,-78,-43,-58,-82
-102,-122,-19,112,-41,-70,-14,-58,-78,-43,-53,-82
-102,-126,-24,114,-39,-75,-14,-58,-78,-39,-48,-82
-102,-126,-24,114,-39,-75,-14,-58,-78,-34,-48,-82
-97,-126,-29,112,-34,-78,-14,-58,-73,-34,-48,-78
-97,-131,-34,114,-31,-82,-14,-58,-68,-34,-48,-73
-97,-126,-29,112,-34,-78,-14,-58,-68,-34,-48,-73
-92,-126,-34,109,-29,-80,-14,-58,-68,-29,-43,-73
-92,-122,-29,107,-31,-75,-19,-58,-73,-34,-53,-78
-87,-117,-29,102,-29,-73,-19,-58,-68,-34,-53,-78
-87,-112,-24,100,-31,-68,-29,-63,-73,-39,-58,-78
-87,-107,-19,97,-34,-63,-29,-63,-78,-39,-58,-78
-87,-107,-19,97,-34,-63,-29,-63,-78,-39,-58,-73
-87,-102,-14,95,-36,-58,-24,-63,-78,-39,-63,-73
-87,-102,-14,95,-36,-58,-24,-63,-78,-39,-63,-68
-87,-97,-9,92,-39,-53,-24,-63,-78,-43,-68,-73
-87,-102,-14,95,-36,-58,-19,-58,-73,-34,-63,-68
-87,-102,-14,95,-36,-58,-14,-58,-73,-34,-58,-68
-87,-102,-14,95,-36,-58,-14,-58,-68,-34,-58,-68
-82,-102,-19,92,-31,-61,-19,-63,-68,-34,-58,-73
-82,-102,-19,92,-31,-61,-24,-63,-68,-34,-58,-73
-82,-102,-19,92,-31,-61,-24,-58,-63,-34,-58,-68
-78,-97,-19,87,-29,-58,-24,-58,-63,-34,-53,-68
-78,-92,-14,85,-31,-53,-24,-63,-68,-39,-58,-68
-78,-87,-9,82,-34,-48,-24,-63,-73,-39,-53,-68
-78,-87,-9,82,-34,-48,-24,-63,-73,-39,-53,-68
-78,-87,-9,82,-34,-48,-24,-63,-73,-43,-53,-68
-78,-87,-9,82,-34,-48,-24,-63,-73,-39,-58,-68
-78,-87,-9,82,-34,-48,-29,-63,-73,-39,-63,-73
-78,-87,-9,82,-34,-48,-29,-63,-68,-34,-68,-78
-78,-87,-9,82,-34,-48,-29,-63,-63,-34,-68,-78
-78,-87,-9,82,-34,-48,-29,-63,-68,-34,-68,-78
-73,-87,-14,80,-29,-51,-24,-58,-63,-34,-68,-78
-73,-87,-14,80,-29,-51,-24,-53,-63,-34,-63,-73
-73,-92,-19,82,-26,-56,-24,-53,-63,-34,-58,-73
-73,-92,-19,82,-26,-56,-19,-53,-68,-34,-53,-68
-73,-92,-19,82,-26,-56,-19,-53,-68,-34,-48,-63
-73,-92,-19,82,-26,-56,-19,-48,-63,-34,-48,-63
-73,-92,-19,82,-26,-56,-19,-48,-63,-34,-48,-63
-73,-97,-24,85,-24,-61,-14,-48,-63,-34,-48,-68
-73,-102,-29,87,-21,-65,-9,-39,-63,-29,-48,-68
-68,-112,-43,90,-12,-78,0,-29,-68,-34,-58,-78
-63,-122,-58,92,-2,-90,4,-19,-73,-43,-63,-87
-58,-131,-73,95,7,-102,14,4,-73,-43,-73,-97
-53,-141,-87,97,17,-114,24,24,-78,-48,-78,-102
-43,-141,-97,92,26,-119,34,34,-78,-48,-87,-112
-34,-136,-102,85,34,-119,43,53,-63,-39,-82,-102
-14,-117,-102,65,43,-109,53,73,-39,-24,-73,-87
19,-82,-102,31,61,-92,53,82,-19,0,-63,-78
58,-39,-97,-9,78,-68,63,102,19,34,-34,-53
112,29,-82,-70,97,-26,53,122,58,78,4,-19
185,107,-78,-146,131,14,39,136,97,122,48,19
278,204,-73,-241,175,65,14,156,141,185,112,73
375,317,-58,-346,217,129,-43,151,180,248,175,126
492,444,-48,-468,270,197,-117,126,234,317,258,204
610,585,-24,-597,317,280,-209,87,278,390,341,283
727,741,14,-734,356,378,-317,34,312,463,434,366
858,897,39,-878,409,468,-448,-34,341,531,522,458
980,1063,82,-1022,448,573,-595,-112,361,590,600,541
1107,1220,112,-1163,497,666,-746,-190,366,644,678,624
1205,1356,151,-1281,527,753,-907,-283,341,663,732,692
1283,1473,190,-1378,546,832,-1073,-390,292,658,756,741
1312,1561,248,-1437,531,905,-1234,-527,229,619,761,785
1288,1629,341,-1459,473,985,-1385,-697,136,556,741,814
1205,1673,468,-1439,368,1071,-1527,-902,43,488,722,839
1078,1693,614,-1385,231,1154,-1659,-1141,-58,409,692,854
907,1703,795,-1305,56,1249,-1761,-1385,-151,326,663,873
727,1698,971,-1212,-122,1334,-1844,-1615,-244,248,634,883
546,1678,1132,-1112,-292,1405,-1888,-1795,-317,175,595,883
385,1634,1249,-1010,-431,1442,-1883,-1908,-366,122,556,873
263,1561,1298,-912,-517,1429,-1839,-1937,-405,63,502,839
170,1468,1298,-819,-563,1383,-1751,-1888,-434,19,444,780
126,1356,1229,-741,-551,1293,-1625,-1766,-434,-24,375,707
102,1229,1127,-666,-512,1178,-1483,-1595,-429,-53,307,624
97,1102,1005,-600,-453,1054,-1322,-1420,-400,-73,248,541
92,985,893,-539,-400,939,-1166,-1244,-370,-78,204,468
87,868,780,-478,-346,824,-1015,-1078,-336,-73,165,400
73,756,683,-414,-305,719,-868,-922,-297,-73,131,341
48,663,614,-356,-283,639,-732,-785,-258,-58,112,297
24,580,556,-302,-265,568,-614,-673,-214,-39,107,263
0,507,507,-253,-253,507,-507,-575,-170,-19,97,229
-29,434,463,-202,-246,448,-424,-492,-141,-14,82,185
-48,361,409,-156,-229,385,-341,-419,-117,-9,63,151
-63,297,361,-117,-212,329,-273,-356,-102,-9,48,122
-73,239,312,-82,-192,275,-214,-297,-87,-9,34,92
-87,175,263,-43,-175,219,-156,-244,-78,-9,19,68
-97,122,219,-12,-158,170,-112,-195,-73,-14,4,39
-102,68,170,17,-136,119,-68,-151,-63,-19,-9,19
-107,24,131,41,-119,78,-29,-112,-53,-14,-14,0
-112,-19,92,65,-102,36,4,-78,-43,-14,-14,-19
-117,-48,68,82,-92,9,24,-58,-43,-14,-19,-34
-126,-78,48,102,-87,-14,48,-34,-34,-9,-24,-43
-131,-97,34,114,-82,-31,58,-19,-39,-14,-39,-58
-136,-107,29,122,-82,-39,73,-9,-39,-24,-53,-68
-141,-117,24,129,-82,-46,82,9,-39,-29,-63,-78
-141,-122,19,131,-80,-51,92,19,-39,-29,-68,-78
-141,-126,14,134,-78,-56,92,24,-39,-34,-73,-82
-141,-131,9,136,-75,-61,92,29,-34,-34,-78,-87
-141,-136,4,139,-73,-65,102,39,-34,-29,-73,-87
-141,-141,0,141,-70,-70,102,39,-34,-29,-73,-92
-141,-141,0,141,-70,-70,107,39,-34,-29,-78,-92
-141,-151,-9,146,-65,-80,117,48,-34,-29,-82,-97
-146,-151,-4,148,-70,-78,117,48,-39,-34,-87,-102
-146,-156,-9,151,-68,-82,122,53,-43,-39,-87,-107
-146,-161,-14,153,-65,-87,126,58,-34,-34,-87,-102
-141,-161,-19,151,-61,-90,126,58,-34,-43,-92,-107
-146,-165,-19,156,-63,-92,131,63,-29,-39,-87,-102
-141,-170,-29,156,-56,-100,131,63,-29,-39,-82,-102
-141,-175,-34,158,-53,-104,131,68,-29,-39,-78,-102
-146,-175,-29,161,-58,-102,141,73,-24,-29,-78,-97
