I, II, III, aVR, aVL, aVF, V1, V2, V3, V4, V5, V6
68,68,0,-68,34,34,53,82,48,24,14,4
58,78,19,-68,19,48,53,73,53,34,24,14
58,92,34,-75,12,63,29,58,53,39,29,24
73,107,34,-90,19,70,-9,34,58,39,34,34
82,117,34,-100,24,75,-34,24,53,34,34,34
107,117,9,-112,48,63,-53,14,43,34,39,34
117,117,0,-117,58,58,-63,14,43,39,43,34
122,102,-19,-112,70,41,-68,14,39,34,39,34
122,82,-39,-102,80,21,-68,14,29,29,39,29
112,73,-39,-92,75,17,-58,14,24,24,34,24
107,63,-43,-85,75,9,-48,14,19,14,34,24
107,48,-58,-78,82,-4,-43,19,19,9,19,19
82,39,-43,-61,63,-2,-29,24,19,9,19,19
63,39,-24,-51,43,7,-24,24,9,9,9,9
43,19,-24,-31,34,-2,-24,14,-4,0,-4,-9
29,0,-29,-14,29,-14,-24,9,-19,-19,-19,-19
19,-14,-34,-2,26,-24,-24,0,-29,-29,-29,-29
9,-39,-48,14,29,-43,-24,-9,-39,-43,-43,-43
4,-53,-58,24,31,-56,-24,-9,-53,-53,-53,-58
-4,-58,-53,31,24,-56,-19,-14,-53,-58,-58,-63
-9,-58,-48,34,19,-53,-19,-19,-53,-63,-63,-63
-9,-58,-48,34,19,-53,-14,-19,-53,-63,-68,-63
-14,-63,-48,39,17,-56,-14,-19,-58,-68,-68,-68
-14,-68,-53,41,19,-61,-14,-19,-63,-68,-68,-68
-14,-68,-53,41,19,-61,-9,-19,-68,-68,-68,-68
-14,-73,-58,43,21,-65,-4,-19,-68,-73,-73,-68
-9,-73,-63,41,26,-68,-4,-19,-68,-73,-73,-73
-14,-73,-58,43,21,-65,-4,-14,-73,-73,-68,-78
-14,-73,-58,43,21,-65,-4,-14,-78,-78,-68,-82
-14,-73,-58,43,21,-65,-9,-19,-73,-82,-73,-82
-14,-73,-58,43,21,-65,-9,-24,-73,-87,-78,-82
-14,-78,-63,46,24,-70,-14,-39,-92,-97,-87,-87
-24,-78,-53,51,14,-65,0,-24,-87,-97,-92,-92
-34,-82,-48,58,7,-65,24,39,-29,-73,-82,-102
-48,-58,-9,53,-19,-34,68,131,68,4,-43,-82
-97,-9,87,53,-92,39,117,214,239,131,34,-29
-112,39,151,36,-131,95,161,297,424,287,146,39
-14,97,112,-41,-63,104,175,453,707,575,380,175
107,156,48,-131,29,102,136,444,819,746,551,292
336,390,53,-363,141,222,-19,405,956,1000,849,551
400,497,97,-448,151,297,-161,48,736,863,824,610
117,151,34,-134,41,92,-234,-736,-283,-102,73,126
-185,-58,126,122,-156,34,-419,-1688,-1244,-912,-507,-190
-390,-204,185,297,-287,-9,-492,-2069,-1712,-1288,-819,-370
-429,-351,78,390,-253,-136,-570,-2122,-1810,-1381,-936,-458
-395,-512,-117,453,-139,-314,-639,-1927,-1722,-1371,-966,-546
-370,-497,-126,434,-122,-312,-644,-1659,-1488,-1205,-868,-517
-351,-473,-122,412,-114,-297,-527,-1332,-1220,-1015,-766,-502
-263,-395,-131,329,-65,-263,-400,-1000,-917,-771,-610,-409
-126,-214,-87,170,-19,-151,-253,-610,-522,-429,-322,-209
-48,-107,-58,78,4,-82,-126,-317,-263,-219,-161,-107
-39,-82,-43,61,2,-63,-53,-141,-146,-156,-122,-87
-29,-73,-43,51,7,-58,-9,-68,-92,-117,-87,-73
-29,-53,-24,41,-2,-39,0,-63,-73,-82,-68,-53
-24,-48,-24,36,0,-36,0,-48,-63,-73,-58,-53
-24,-53,-29,39,2,-41,0,-24,-53,-73,-58,-63
-24,-58,-34,41,4,-46,9,-4,-34,-63,-58,-63
-19,-58,-39,39,9,-48,14,0,-24,-53,-53,-53
-14,-53,-39,34,12,-46,19,4,-14,-43,-43,-48
-14,-53,-39,34,12,-46,19,19,-9,-39,-43,-48
-19,-53,-34,36,7,-43,19,34,-9,-34,-39,-53
-24,-48,-24,36,0,-36,19,34,-9,-34,-34,-53
-24,-48,-24,36,0,-36,19,39,-4,-29,-24,-43
-19,-43,-24,31,2,-34,24,39,0,-24,-24,-39
-14,-43,-29,29,7,-36,24,43,0,-24,-24,-34
-19,-43,-24,31,2,-34,24,48,4,-19,-24,-34
-24,-43,-19,34,-2,-31,29,53,9,-19,-19,-29
-24,-39,-14,31,-4,-26,34,53,9,-14,-19,-29
-29,-34,-4,31,-12,-19,39,58,9,-14,-14,-29
-29,-34,-4,31,-12,-19,39,63,14,-14,-14,-29
-29,-34,-4,31,-12,-19,39,68,14,-9,-14,-29
-29,-29,0,29,-14,-14,39,68,19,-9,-14,-24
-29,-29,0,29,-14,-14,39,78,29,-9,-9,-24
-29,-24,4,26,-17,-9,39,78,34,-4,-9,-19
-29,-24,4,26,-17,-9,39,82,34,0,-4,-19
-29,-19,9,24,-19,-4,39,82,34,0,-4,-19
-29,-19,9,24,-19,-4,39,92,34,4,-4,-19
-24,-19,4,21,-14,-7,39,97,39,4,-4,-14
-24,-19,4,21,-14,-7,39,102,48,9,0,-14
-29,-9,19,19,-24,4,39,107,53,14,4,-9
-34,-9,24,21,-29,7,39,117,58,19,9,-4
-29,-9,19,19,-24,4,39,117,58,19,14,-4
-29,-4,24,17,-26,9,39,122,63,24,14,-4
-24,-4,19,14,-21,7,43,131,78,34,19,-4
-24,0,24,12,-24,12,48,136,87,34,24,0
-19,4,24,7,-21,14,48,146,97,43,29,4
-19,9,29,4,-24,19,53,156,102,48,34,9
-14,19,34,-2,-24,26,58,165,107,58,43,9
-14,24,39,-4,-26,31,63,175,117,63,48,19
-19,34,53,-7,-36,43,63,190,126,73,58,29
-19,34,53,-7,-36,43,68,204,136,82,63,34
-14,43,58,-14,-36,51,68,214,146,87,68,34
-14,53,68,-19,-41,61,68,229,156,97,78,39
-4,58,63,-26,-34,61,78,253,170,107,87,48
-9,68,78,-29,-43,73,82,268,180,122,97,58
-9,73,82,-31,-46,78,97,283,200,141,102,68
-4,82,87,-39,-46,85,102,302,219,165,117,78
-4,92,97,-43,-51,95,102,322,234,175,126,87
-4,107,112,-51,-58,109,102,336,244,190,136,97
9,122,112,-65,-51,117,107,346,263,200,151,107
14,136,122,-75,-53,129,112,356,278,214,170,122
19,151,131,-85,-56,141,117,370,287,229,185,141
19,165,146,-92,-63,156,117,375,297,244,200,156
24,180,156,-102,-65,168,117,380,317,253,214,165
24,195,170,-109,-73,183,112,375,326,263,234,175
24,204,180,-114,-78,192,112,375,326,273,244,190
29,219,190,-124,-80,204,112,366,326,283,248,204
39,229,190,-134,-75,209,102,356,336,287,268,219
48,239,190,-143,-70,214,92,341,341,297,278,224
39,239,200,-139,-80,219,82,326,336,302,283,234
43,248,204,-146,-80,226,73,302,331,302,287,244
43,253,209,-148,-82,231,68,278,312,287,287,248
43,253,209,-148,-82,231,53,244,292,278,283,248
39,253,214,-146,-87,234,43,204,287,278,283,253
34,253,219,-143,-92,236,34,175,273,273,278,253
24,239,214,-131,-95,226,19,141,244,258,268,244
14,229,214,-122,-100,222,9,107,229,239,263,244
0,219,219,-109,-109,219,4,73,204,224,244,239
-14,200,214,-92,-114,207,4,53,185,209,239,229
-29,185,214,-78,-122,200,-4,39,165,190,219,219
-39,165,204,-63,-122,185,-9,14,146,170,209,209
-48,146,195,-48,-122,170,-9,4,136,156,195,195
-68,131,200,-31,-134,165,-4,4,131,146,180,170
-82,112,195,-14,-139,153,4,0,117,131,165,161
-102,92,195,4,-148,143,9,-9,102,117,156,146
-117,78,195,19,-156,136,19,-9,102,107,141,136
-126,63,190,31,-158,126,29,-9,92,102,131,126
-136,48,185,43,-161,117,34,0,87,87,122,112
-156,29,185,63,-170,107,43,9,78,78,112,102
-165,19,185,73,-175,102,48,19,78,73,102,92
-180,4,185,87,-183,95,53,24,78,73,92,82
-185,-4,180,95,-183,87,63,34,73,58,82,78
-200,-14,185,107,-192,85,73,48,68,58,68,73
-204,-19,185,112,-195,82,78,58,68,58,63,63
-209,-24,185,117,-197,80,82,58,73,58,63,63
-209,-24,185,117,-197,80,82,58,73,53,63,53
-219,-24,195,122,-207,85,87,73,73,48,58,48
-224,-34,190,129,-207,78,87,82,73,43,53,43
-224,-43,180,134,-202,68,92,87,68,43,43,43
-219,-43,175,131,-197,65,97,92,58,43,43,43
-219,-43,175,131,-197,65,97,102,53,43,48,43
-219,-48,170,134,-195,61,97,102,53,39,43,39
-214,-48,165,131,-190,58,102,102,53,34,43,34
-214,-43,170,129,-192,63,102,107,53,34,43,34
-214,-39,175,126,-195,68,102,107,63,34,43,34
-209,-39,170,124,-190,65,102,107,63,34,39,34
-204,-39,165,122,-185,63,97,107,63,34,34,34
-200,-39,161,119,-180,61,97,112,53,34,34,34
-195,-34,161,114,-178,63,97,112,53,34,34,34
-195,-34,161,114,-178,63,92,112,53,34,34,34
-190,-34,156,112,-173,61,87,112,48,39,34,34
-185,-29,156,107,-170,63,87,107,48,39,34,34
-185,-24,161,104,-173,68,82,107,48,39,34,29
-185,-24,161,104,-173,68,82,107,48,39,34,29
-185,-19,165,102,-175,73,82,107,48,39,43,29
-185,-14,170,100,-178,78,78,107,48,34,39,29
-185,-9,175,97,-180,82,73,107,48,29,34,29
-175,-9,165,92,-170,78,73,97,48,34,34,29
-175,-9,165,92,-170,78,73,92,48,34,34,29
-175,-9,165,92,-170,78,73,87,48,39,34,24
-170,-9,161,90,-165,75,68,87,48,39,34,19
-170,-9,161,90,-165,75,68,87,48,39,34,19
-170,-9,161,90,-165,75,68,82,48,39,34,19
-170,-9,161,90,-165,75,68,82,43,39,34,24
-170,-9,161,90,-165,75,63,78,43,39,34,24
-170,-9,161,90,-165,75,58,78,39,39,29,19
-175,-9,165,92,-170,78,53,78,34,39,29,19
-180,-14,165,97,-173,75,53,73,34,34,29,19
-185,-14,170,100,-178,78,53,73,34,34,29,19
-185,-9,175,97,-180,82,53,73,34,34,29,19
-180,-4,175,92,-178,85,53,68,34,34,29,19
-175,-4,170,90,-173,82,53,68,34,29,24,19
-170,-4,165,87,-168,80,48,68,29,19,14,14
-170,-4,165,87,-168,80,48,68,24,19,14,14
-175,-4,170,90,-173,82,48,68,19,19,14,14
-175,-9,165,92,-170,78,48,63,19,19,9,9
-175,-9,165,92,-170,78,48,63,19,24,9,9
-175,-9,165,92,-170,78,43,58,14,14,9,4
-170,-9,161,90,-165,75,43,53,14,4,9,-4
-165,-4,161,85,-163,78,43,53,9,4,4,-4
-161,-4,156,82,-158,75,43,53,4,0,0,-4
-161,-4,156,82,-158,75,39,48,0,0,-9,-4
-156,-4,151,80,-153,73,34,48,-4,-4,-14,-4
-146,-4,141,75,-143,68,34,43,-4,-9,-14,-9
-141,-4,136,73,-139,65,34,39,-4,-14,-14,-9
-131,-4,126,68,-129,61,29,34,-9,-14,-19,-19
-122,-9,112,65,-117,51,24,29,-14,-14,-19,-29
-126,-9,117,68,-122,53,24,29,-19,-19,-24,-29
-122,-9,112,65,-117,51,24,29,-24,-19,-29,-29
-122,-9,112,65,-117,51,24,24,-24,-19,-29,-29
-122,-9,112,65,-117,51,24,19,-24,-19,-29,-24
-117,-9,107,63,-112,48,24,19,-24,-19,-29,-24
-117,-9,107,63,-112,48,24,19,-24,-19,-29,-29
-112,-9,102,61,-107,46,24,19,-24,-24,-29,-29
-112,-9,102,61,-107,46,24,19,-24,-24,-29,-29
-112,-9,102,61,-107,46,19,19,-24,-24,-29,-34
-112,-9,102,61,-107,46,14,19,-24,-24,-29,-43
-112,-9,102,61,-107,46,14,19,-24,-24,-29,-43
-112,-9,102,61,-107,46,14,19,-24,-24,-34,-43
-117,-9,107,63,-112,48,14,19,-24,-24,-29,-39
-117,-9,107,63,-112,48,14,19,-24,-24,-24,-34
-122,-14,107,68,-114,46,14,19,-19,-19,-24,-34
-122,-19,102,70,-112,41,14,19,-19,-14,-24,-29
-126,-19,107,73,-117,43,24,24,-14,-4,-9,-24
-136,-19,117,78,-126,48,29,29,-9,4,0,-19
-146,-19,126,82,-136,53,34,29,-4,0,0,-9
-156,-19,136,87,-146,58,39,29,0,0,4,-4
-165,-19,146,92,-156,63,39,29,0,0,4,-4
-175,-19,156,97,-165,68,43,29,0,4,0,-4
-190,-24,165,107,-178,70,48,29,0,9,0,0
-204,-29,175,117,-190,73,53,29,0,14,4,4
-209,-29,180,119,-195,75,53,34,9,24,9,4
-214,-29,185,122,-200,78,53,39,14,29,14,4
-219,-34,185,126,-202,75,58,43,19,29,19,14
-229,-39,190,134,-209,75,63,48,29,34,24,24
-229,-39,190,134,-209,75,68,48,29,34,29,19
-229,-39,190,134,-209,75,73,48,29,34,34,19
-229,-39,190,134,-209,75,73,48,29,43,29,19
-224,-39,185,131,-204,73,73,48,34,48,29,19
-224,-39,185,131,-204,73,73,48,34,43,34,19
-224,-39,185,131,-204,73,73,48,34,43,34,24
-224,-39,185,131,-204,73,73,48,34,39,34,24
-224,-43,180,134,-202,68,73,48,39,43,34,24
-209,-39,170,124,-190,65,68,48,29,39,29,24
-200,-39,161,119,-180,61,68,48,24,39,29,29
-185,-39,146,112,-165,53,68,43,19,34,24,24
-175,-39,136,107,-156,48,68,39,19,29,19,19
-170,-43,126,107,-148,41,63,39,19,29,19,14
-165,-48,117,107,-141,34,58,39,19,29,19,9
-151,-48,102,100,-126,26,53,34,14,24,14,4
-136,-48,87,92,-112,19,48,29,9,19,9,0
-122,-48,73,85,-97,12,43,24,4,9,4,-4
-107,-48,58,78,-82,4,39,19,0,0,0,-9
-97,-48,48,73,-73,0,39,14,0,0,0,-9
-87,-48,39,68,-63,-4,39,9,0,0,0,-9
-78,-48,29,63,-53,-9,34,9,0,0,-4,-9
-68,-48,19,58,-43,-14,29,9,0,0,-9,-9
-53,-48,4,51,-29,-21,24,4,-9,-4,-14,-19
-39,-48,-9,43,-14,-29,19,0,-19,-9,-19,-29
-24,-48,-24,36,0,-36,14,-4,-24,-14,-24,-34
-9,-48,-39,29,14,-43,9,-9,-29,-19,-29,-39
4,-53,-58,24,31,-56,4,-14,-34,-24,-39,-43
19,-58,-78,19,48,-68,0,-19,-39,-29,-48,-48
29,-58,-87,14,58,-73,-4,-19,-43,-34,-48,-53
39,-58,-97,9,68,-78,-9,-19,-48,-39,-48,-58
53,-53,-107,0,80,-80,-9,-29,-48,-43,-53,-58
68,-48,-117,-9,92,-82,-9,-39,-48,-48,-58,-58
78,-48,-126,-14,102,-87,-19,-39,-53,-48,-58,-63
87,-48,-136,-19,112,-92,-29,-39,-58,-48,-58,-68
102,-48,-151,-26,126,-100,-29,-43,-63,-53,-63,-68
117,-48,-165,-34,141,-107,-29,-48,-68,-58,-68,-68
126,-48,-175,-39,151,-112,-34,-48,-73,-58,-68,-73
136,-48,-185,-43,161,-117,-39,-48,-78,-58,-68,-78
151,-53,-204,-48,178,-129,-43,-53,-78,-63,-73,-82
165,-58,-224,-53,195,-141,-48,-58,-78,-68,-78,-87
180,-58,-239,-61,209,-148,-48,-63,-82,-73,-82,-92
195,-58,-253,-68,224,-156,-48,-68,-87,-78,-87,-97
200,-58,-258,-70,229,-158,-53,-68,-87,-78,-87,-97
204,-58,-263,-73,234,-161,-58,-68,-87,-78,-87,-97
214,-58,-273,-78,244,-165,-63,-73,-92,-82,-92,-102
224,-58,-283,-82,253,-170,-68,-78,-97,-87,-97,-107
234,-58,-292,-87,263,-175,-68,-78,-97,-87,-97,-107
244,-58,-302,-92,273,-180,-68,-78,-97,-87,-97,-107
248,-39,-287,-104,268,-163,-63,-78,-92,-82,-97,-102
253,-19,-273,-117,263,-146,-58,-78,-87,-78,-97,-97
268,-4,-273,-131,270,-139,-53,-68,-78,-73,-92,-92
283,9,-273,-146,278,-131,-48,-58,-68,-68,-87,-87
292,14,-278,-153,285,-131,-43,-48,-63,-63,-82,-87
297,19,-278,-158,287,-129,-34,-39,-58,-53,-73,-82
307,29,-278,-168,292,-124,-29,-34,-53,-48,-68,-78
307,39,-268,-173,287,-114,-24,-24,-48,-39,-63,-73
307,48,-258,-178,283,-104,-19,-9,-43,-39,-63,-73
322,58,-263,-190,292,-102,-19,4,-29,-24,-53,-58
331,78,-253,-204,292,-87,-24,4,-14,-14,-43,-53
331,87,-244,-209,287,-78,-29,-4,-4,-4,-34,-43
336,102,-234,-219,285,-65,-53,-19,-4,0,-29,-34
346,112,-234,-229,290,-61,-87,-43,-4,0,-24,-24
351,117,-234,-234,292,-58,-112,-53,-9,0,-19,-24
370,117,-253,-244,312,-68,-131,-63,-14,0,-14,-24
380,122,-258,-251,319,-68,-141,-63,-14,0,-14,-24
380,112,-268,-246,324,-78,-141,-63,-19,-4,-19,-24
370,92,-278,-231,324,-92,-136,-63,-34,-9,-19,-29
351,82,-268,-217,309,-92,-126,-63,-39,-9,-24,-39
336,73,-263,-204,300,-95,-117,-58,-39,-14,-24,-39
331,58,-273,-195,302,-107,-112,-48,-39,-19,-39,-39
292,48,-244,-170,268,-97,-97,-43,-34,-19,-34,-39
258,43,-214,-151,236,-85,-92,-43,-39,-24,-39,-48
239,19,-219,-129,229,-100,-87,-53,-53,-39,-53,-63
224,0,-224,-112,224,-112,-82,-58,-68,-58,-68,-68
204,-14,-219,-95,212,-117,-82,-68,-73,-63,-78,-78
185,-34,-219,-75,202,-126,-82,-78,-78,-73,-92,-87
180,-43,-224,-68,202,-134,-82,-78,-92,-82,-102,-97
170,-48,-219,-61,195,-134,-78,-78,-92,-82,-102,-102
161,-53,-214,-53,187,-134,-73,-78,-92,-82,-102,-102
156,-58,-214,-48,185,-136,-63,-78,-92,-82,-107,-102
146,-63,-209,-41,178,-136,-63,-78,-97,-87,-102,-107
141,-68,-209,-36,175,-139,-63,-78,-97,-87,-97,-107
136,-63,-200,-36,168,-131,-58,-73,-92,-82,-97,-107
126,-63,-190,-31,158,-126,-53,-68,-87,-82,-102,-107
126,-63,-190,-31,158,-126,-48,-68,-87,-82,-102,-107
122,-63,-185,-29,153,-124,-43,-63,-87,-78,-97,-102
117,-63,-180,-26,148,-122,-43,-63,-87,-78,-97,-102
112,-63,-175,-24,143,-119,-43,-63,-82,-78,-97,-102
107,-63,-170,-21,139,-117,-39,-68,-82,-82,-97,-102
102,-68,-170,-17,136,-119,-39,-68,-82,-82,-97,-102
92,-78,-170,-7,131,-124,-19,-43,-73,-73,-97,-107
82,-82,-165,0,124,-124,4,19,-4,-29,-73,-107
58,-48,-107,-4,82,-78,48,131,97,53,-24,-82
29,0,-29,-14,29,-14,92,224,248,180,68,-24
19,43,24,-31,-2,34,151,336,463,370,195,58
107,97,-9,-102,58,43,151,448,688,595,375,180
273,156,-117,-214,195,19,78,419,771,741,551,297
414,297,-117,-356,265,90,-39,278,761,824,697,434
409,336,-73,-373,241,131,-141,-190,395,531,527,395
146,53,-92,-100,119,-19,-204,-873,-424,-224,-82,4
-248,-117,131,183,-190,7,-395,-1932,-1366,-1000,-644,-287
-434,-244,190,339,-312,-26,-458,-2278,-1761,-1327,-907,-448
-395,-385,9,390,-202,-187,-527,-2147,-1678,-1273,-922,-492
-366,-527,-161,446,-102,-344,-585,-1937,-1605,-1263,-951,-570
-351,-478,-126,414,-112,-302,-580,-1639,-1381,-1107,-844,-536
-312,-444,-131,378,-90,-287,-492,-1312,-1127,-936,-727,-507
-195,-356,-161,275,-17,-258,-366,-956,-814,-678,-551,-390
-58,-200,-141,129,41,-170,-234,-585,-468,-375,-312,-219
24,-117,-141,46,82,-129,-122,-307,-248,-204,-185,-136
39,-92,-131,26,85,-112,-53,-136,-131,-136,-136,-107
48,-82,-131,17,90,-107,-29,-87,-102,-97,-107,-92
48,-63,-112,7,80,-87,-19,-73,-82,-58,-87,-73
48,-58,-107,4,78,-82,-19,-58,-73,-53,-73,-68
43,-58,-102,7,73,-80,-19,-34,-68,-53,-68,-73
43,-58,-102,7,73,-80,-4,-9,-53,-43,-68,-73
43,-58,-102,7,73,-80,4,0,-43,-34,-63,-63
43,-53,-97,4,70,-75,9,4,-29,-19,-48,-58
43,-53,-97,4,70,-75,9,14,-19,-14,-43,-58
39,-53,-92,7,65,-73,9,24,-19,-14,-39,-63
39,-48,-87,4,63,-68,9,24,-19,-14,-39,-63
39,-48,-87,4,63,-68,9,34,-14,-14,-34,-53
39,-43,-82,2,61,-63,14,39,-9,-14,-34,-53
43,-43,-87,0,65,-65,14,43,-9,-14,-34,-53
43,-43,-87,0,65,-65,14,48,-4,-9,-34,-53
39,-43,-82,2,61,-63,19,53,0,-9,-29,-48
39,-43,-82,2,61,-63,19,53,0,-4,-29,-48
39,-43,-82,2,61,-63,19,58,0,-4,-24,-48
39,-43,-82,2,61,-63,19,63,4,-4,-24,-48
34,-43,-78,4,56,-61,19,68,9,4,-24,-48
34,-39,-73,2,53,-56,19,68,14,9,-24,-43
39,-39,-78,0,58,-58,24,78,19,9,-19,-43
39,-34,-73,-2,56,-53,29,78,24,14,-19,-39
34,-34,-68,0,51,-51,29,82,24,19,-14,-39
34,-29,-63,-2,48,-46,29,82,29,19,-14,-39
34,-29,-63,-2,48,-46,29,92,34,24,-14,-39
34,-29,-63,-2,48,-46,29,97,39,24,-14,-34
34,-29,-63,-2,48,-46,29,102,48,29,-9,-34
34,-19,-53,-7,43,-36,29,107,53,34,-4,-29
34,-19,-53,-7,43,-36,34,117,58,39,4,-19
39,-19,-58,-9,48,-39,39,122,58,39,14,-14
39,-14,-53,-12,46,-34,39,136,63,43,14,-14
43,-14,-58,-14,51,-36,39,151,73,53,19,-14
39,-9,-48,-14,43,-29,39,156,78,53,24,-9
39,-4,-43,-17,41,-24,39,165,87,63,29,-4
34,0,-34,-17,34,-17,43,175,92,68,34,0
39,9,-29,-24,34,-9,43,185,97,78,43,0
43,14,-29,-29,36,-7,43,195,107,82,48,9
43,24,-19,-34,31,2,43,209,117,92,58,19
43,24,-19,-34,31,2,48,224,126,102,58,24
43,34,-9,-39,26,12,48,234,136,107,58,24
43,43,0,-43,21,21,48,248,146,117,68,29
58,48,-9,-53,34,19,53,273,161,126,78,39
58,58,0,-58,29,29,53,287,170,141,87,48
63,68,4,-65,29,36,63,302,185,151,92,58
73,82,9,-78,31,46,63,326,204,165,112,68
78,92,14,-85,31,53,63,346,224,175,126,78
73,107,34,-90,19,70,63,356,234,190,136,87
78,122,43,-100,17,82,63,366,248,200,151,97
82,131,48,-107,17,90,73,380,258,214,170,112
92,141,48,-117,21,95,82,395,268,224,180,126
97,156,58,-126,19,107,78,395,278,239,190,136
112,170,58,-141,26,114,73,395,287,253,200,146
122,185,63,-153,29,124,63,385,287,263,214,156
126,195,68,-161,29,131,58,380,287,268,224,165
131,209,78,-170,26,143,53,375,292,273,229,175
136,219,82,-178,26,151,43,370,297,273,239,185
146,229,82,-187,31,156,34,351,292,278,239,190
146,229,82,-187,31,156,24,326,283,278,239,200
161,239,78,-200,41,158,14,292,278,278,244,204
161,244,82,-202,39,163,4,263,263,268,248,209
161,248,87,-204,36,168,-14,224,244,258,244,209
161,248,87,-204,36,168,-24,185,234,248,239,209
161,244,82,-202,39,163,-34,156,214,234,229,209
156,229,73,-192,41,151,-43,122,185,219,214,200
151,219,68,-185,41,143,-48,87,175,200,204,195
141,209,68,-175,36,139,-53,53,151,185,180,180
131,195,63,-163,34,129,-53,29,131,170,170,165
117,185,68,-151,24,126,-58,9,117,151,151,161
107,165,58,-136,24,112,-58,-19,97,136,146,151
97,146,48,-122,24,97,-58,-34,87,126,136,136
73,131,58,-102,7,95,-58,-34,82,117,126,112
58,112,53,-85,2,82,-53,-39,68,102,112,102
43,92,48,-68,-2,70,-48,-48,53,87,97,87
29,78,48,-53,-9,63,-39,-48,53,78,82,78
29,63,34,-46,-2,48,-29,-53,43,73,73,68
29,53,24,-41,2,39,-24,-48,39,58,63,53
0,39,39,-19,-19,39,-14,-39,29,48,53,43
-14,29,43,-7,-29,36,-9,-29,29,43,43,34
-24,9,34,7,-29,21,-4,-24,24,43,34,24
-29,-4,24,17,-26,9,4,-19,14,29,24,19
-43,-14,29,29,-36,7,14,-4,9,29,9,14
-43,-19,24,31,-34,2,19,9,9,29,9,4
-48,-24,24,36,-36,0,24,9,14,29,14,4
-53,-24,29,39,-41,2,24,9,14,29,14,0
-63,-24,39,43,-51,7,29,24,19,29,9,0
-68,-29,39,48,-53,4,29,29,24,24,4,-4
-63,-34,29,48,-46,-2,34,29,19,24,-4,-4
-58,-34,24,46,-41,-4,39,29,19,24,-4,-4
-63,-34,29,48,-46,-2,39,34,24,24,0,-4
-68,-39,29,53,-48,-4,39,34,24,24,0,-4
-68,-39,29,53,-48,-4,43,34,24,24,4,-4
-68,-39,29,53,-48,-4,43,39,24,24,4,-4
-68,-39,29,53,-48,-4,43,39,34,24,4,-4
-68,-39,29,53,-48,-4,43,39,34,24,4,-4
-68,-39,29,53,-48,-4,39,39,34,29,4,-4
-68,-39,29,53,-48,-4,39,39,24,34,4,-4
-68,-39,29,53,-48,-4,39,34,19,34,4,-4
-68,-43,24,56,-46,-9,39,34,19,34,4,-4
-58,-43,14,51,-36,-14,39,34,19,34,4,-4
-53,-43,9,48,-31,-17,39,29,19,29,4,0
-58,-43,14,51,-36,-14,34,29,24,29,4,0
-58,-43,14,51,-36,-14,34,29,29,29,4,0
-58,-39,19,48,-39,-9,39,24,29,34,19,4
-58,-39,19,48,-39,-9,39,19,29,39,24,9
-63,-34,29,48,-46,-2,34,19,29,39,24,9
-58,-29,29,43,-43,0,34,14,29,43,24,9
-58,-29,29,43,-43,0,29,14,29,43,19,9
-58,-29,29,43,-43,0,24,9,29,43,14,9
-48,-34,14,41,-31,-9,19,9,29,34,9,4
-43,-39,4,41,-24,-17,19,9,29,29,4,0
-43,-39,4,41,-24,-17,19,4,29,29,4,0
-43,-39,4,41,-24,-17,19,4,24,29,4,4
-43,-34,9,39,-26,-12,14,0,24,29,9,4
-43,-29,14,36,-29,-7,14,0,24,29,9,0
-53,-29,24,41,-39,-2,14,0,19,29,9,0
-58,-34,24,46,-41,-4,14,-4,14,24,9,0
-58,-34,24,46,-41,-4,14,0,14,24,9,4
-58,-34,24,46,-41,-4,14,4,14,24,9,9
-53,-34,19,43,-36,-7,14,0,14,24,9,9
-53,-34,19,43,-36,-7,14,0,14,24,9,9
-53,-34,19,43,-36,-7,9,0,9,19,4,4
-53,-34,19,43,-36,-7,9,0,9,19,4,4
-58,-34,24,46,-41,-4,9,0,9,24,4,4
-58,-39,19,48,-39,-9,9,-4,9,19,0,0
-58,-39,19,48,-39,-9,9,-4,9,14,0,0
-63,-39,24,51,-43,-7,9,-4,4,14,0,0
-63,-39,24,51,-43,-7,14,-4,4,14,4,0
-63,-39,24,51,-43,-7,14,-4,4,19,9,4
-63,-43,19,53,-41,-12,14,-4,4,19,9,4
-68,-43,24,56,-46,-9,14,-4,0,19,4,4
-78,-43,34,61,-56,-4,14,-4,-4,14,4,4
-82,-43,39,63,-61,-2,14,-9,-4,14,4,0
-82,-43,39,63,-61,-2,14,-9,-4,14,4,0
-82,-43,39,63,-61,-2,14,-9,-4,14,0,0
-78,-48,29,63,-53,-9,14,-4,-4,14,0,0
-82,-48,34,65,-58,-7,14,0,-4,9,0,0
-82,-48,34,65,-58,-7,14,0,-4,9,0,0
-82,-48,34,65,-58,-7,14,0,-4,9,0,0
-87,-48,39,68,-63,-4,14,0,-4,9,0,4
-87,-48,39,68,-63,-4,14,0,-4,9,0,4
-87,-48,39,68,-63,-4,14,0,-4,9,0,0
-87,-48,39,68,-63,-4,14,0,-4,4,0,0
-92,-48,43,70,-68,-2,14,0,-4,4,0,0
-92,-48,43,70,-68,-2,14,0,-4,4,0,0
-92,-48,43,70,-68,-2,14,0,-4,9,0,-4
-92,-48,43,70,-68,-2,14,0,-4,14,0,-4
-87,-48,39,68,-63,-4,14,0,-4,14,-4,0
-87,-48,39,68,-63,-4,14,0,-4,14,-4,4
-82,-53,29,68,-56,-12,14,-4,-4,9,-4,4
-78,-58,19,68,-48,-19,14,-9,-4,4,-4,0
-63,-58,4,61,-34,-26,14,-9,-9,0,-9,-4
-53,-58,-4,56,-24,-31,19,-9,-9,-4,-9,-9
-58,-58,0,58,-29,-29,14,-9,-9,-4,-9,-14
-58,-58,0,58,-29,-29,9,-9,-9,-9,-14,-14
-53,-53,0,53,-26,-26,9,-14,-9,-9,-14,-14
-48,-48,0,48,-24,-24,4,-19,-9,-9,-14,-14
-39,-48,-9,43,-14,-29,4,-19,-14,-4,-19,-14
-29,-48,-19,39,-4,-34,4,-19,-19,-4,-19,-14
-24,-48,-24,36,0,-36,0,-19,-24,-9,-19,-19
-19,-48,-29,34,4,-39,-4,-19,-24,-14,-24,-24
-9,-48,-39,29,14,-43,-4,-19,-24,-19,-24,-24
0,-48,-48,24,24,-48,-4,-19,-29,-19,-24,-24
0,-48,-48,24,24,-48,-4,-19,-29,-19,-24,-24
4,-48,-53,21,29,-51,-4,-19,-29,-24,-24,-29
4,-48,-53,21,29,-51,-9,-24,-29,-29,-29,-29
4,-48,-53,21,29,-51,-14,-29,-29,-29,-39,-29
14,-48,-63,17,39,-56,-14,-29,-29,-29,-39,-34
19,-48,-68,14,43,-58,-14,-29,-34,-34,-34,-39
24,-48,-73,12,48,-61,-14,-29,-34,-34,-34,-39
29,-43,-73,7,51,-58,-14,-29,-34,-39,-34,-43
29,-43,-73,7,51,-58,-19,-29,-39,-43,-39,-43
29,-43,-73,7,51,-58,-24,-29,-39,-43,-43,-43
39,-39,-78,0,58,-58,-19,-29,-39,-43,-43,-39
48,-39,-87,-4,68,-63,-19,-29,-39,-48,-48,-39
48,-39,-87,-4,68,-63,-24,-34,-39,-48,-48,-43
48,-39,-87,-4,68,-63,-29,-39,-39,-48,-48,-48
53,-39,-92,-7,73,-65,-29,-39,-43,-48,-48,-48
58,-39,-97,-9,78,-68,-29,-39,-48,-48,-48,-48
58,-39,-97,-9,78,-68,-34,-39,-48,-48,-48,-48
58,-39,-97,-9,78,-68,-39,-39,-48,-48,-48,-48
58,-39,-97,-9,78,-68,-39,-39,-48,-48,-53,-48
58,-39,-97,-9,78,-68,-39,-39,-48,-48,-58,-48
63,-34,-97,-14,80,-65,-39,-39,-48,-53,-58,-48
68,-29,-97,-19,82,-63,-39,-39,-48,-58,-58,-48
68,-29,-97,-19,82,-63,-39,-39,-48,-58,-58,-48
68,-29,-97,-19,82,-63,-39,-39,-48,-58,-58,-48
68,-29,-97,-19,82,-63,-39,-39,-48,-58,-58,-48
68,-29,-97,-19,82,-63,-39,-39,-48,-58,-58,-48
63,-29,-92,-17,78,-61,-39,-39,-48,-58,-58,-48
58,-29,-87,-14,73,-58,-39,-39,-48,-58,-58,-48
58,-29,-87,-14,73,-58,-39,-43,-48,-58,-58,-48
58,-29,-87,-14,73,-58,-39,-48,-48,-58,-58,-48
58,-24,-82,-17,70,-53,-39,-48,-48,-58,-58,-48
58,-19,-78,-19,68,-48,-39,-48,-48,-58,-58,-48
58,-19,-78,-19,68,-48,-39,-48,-48,-58,-58,-48
58,-19,-78,-19,68,-48,-39,-48,-48,-58,-58,-48
53,-19,-73,-17,63,-46,-39,-43,-43,-58,-58,-48
48,-19,-68,-14,58,-43,-39,-39,-39,-58,-58,-48
48,-19,-68,-14,58,-43,-39,-39,-39,-58,-58,-48
48,-19,-68,-14,58,-43,-39,-39,-39,-58,-58,-48
48,-19,-68,-14,58,-43,-39,-39,-39,-58,-58,-48
48,-19,-68,-14,58,-43,-39,-39,-39,-58,-58,-48
48,-14,-63,-17,56,-39,-39,-34,-39,-53,-53,-48
48,-9,-58,-19,53,-34,-39,-29,-39,-48,-48,-48
48,-4,-53,-21,51,-29,-29,-24,-34,-48,-43,-43
48,0,-48,-24,48,-24,-19,-19,-29,-48,-39,-39
58,19,-39,-39,48,-9,-14,-9,-19,-34,-29,-34
68,39,-29,-53,48,4,-9,0,-9,-19,-19,-29
73,48,-24,-61,48,12,0,9,4,-9,-14,-19
78,53,-24,-65,51,14,9,14,14,0,-4,-9
82,63,-19,-73,51,21,19,24,29,9,4,0
82,68,-14,-75,48,26,24,34,39,19,14,4
78,68,-9,-73,43,29,34,43,43,19,14,4
87,68,-19,-78,53,24,39,53,58,34,24,19
97,97,0,-97,48,48,34,58,68,43,34,24
97,117,19,-107,39,68,29,53,73,53,43,34
102,131,29,-117,36,80,0,39,73,58,48,43
112,141,29,-126,41,85,-39,14,73,58,53,53
122,146,24,-134,48,85,-63,4,63,53,53,53
146,146,0,-146,73,73,-82,-4,53,48,53,53
156,146,-9,-151,82,68,-92,-4,53,48,53,53
156,131,-24,-143,90,53,-92,-4,48,43,48,53
151,107,-43,-129,97,31,-87,-4,39,34,48,48
136,92,-43,-114,90,24,-78,-4,39,29,43,39
122,82,-39,-102,80,21,-68,-4,39,24,43,34
117,68,-48,-92,82,9,-63,0,39,19,29,29
92,58,-34,-75,63,12,-48,4,39,24,29,34
73,53,-19,-63,46,17,-43,4,29,24,19,29
53,29,-24,-41,39,2,-43,-4,14,9,4,9
39,9,-29,-24,34,-9,-43,-9,0,-9,-9,0
29,-4,-34,-12,31,-19,-39,-19,-9,-19,-19,-9
19,-24,-43,2,31,-34,-34,-29,-19,-34,-34,-19
14,-34,-48,9,31,-41,-34,-29,-34,-43,-39,-29
4,-39,-43,17,24,-41,-29,-29,-34,-43,-34,-34
0,-39,-39,19,19,-39,-29,-29,-34,-43,-34,-34
0,-39,-39,19,19,-39,-24,-29,-34,-43,-39,-34
-9,-43,-34,26,12,-39,-24,-29,-39,-48,-39,-39
-14,-48,-34,31,9,-41,-24,-29,-39,-48,-39,-39
-14,-48,-34,31,9,-41,-19,-24,-39,-48,-39,-39
-19,-53,-34,36,7,-43,-14,-19,-39,-53,-43,-39
-19,-53,-34,36,7,-43,-14,-19,-39,-53,-43,-43
-24,-53,-29,39,2,-41,-14,-14,-39,-48,-39,-43
-29,-53,-24,41,-2,-39,-14,-14,-39,-48,-39,-43
-34,-53,-19,43,-7,-36,-14,-14,-34,-48,-39,-43
-34,-53,-19,43,-7,-36,-9,-14,-34,-48,-39,-43
-34,-58,-24,46,-4,-41,-9,-9,-34,-43,-39,-43
-39,-68,-29,53,-4,-48,4,24,-14,-34,-34,-43
-43,-73,-29,58,-7,-51,24,97,63,9,-4,-39
-58,-43,14,51,-36,-14,68,204,185,107,48,-14
-78,0,78,39,-78,39,112,292,356,248,146,43
-73,39,112,17,-92,75,170,405,551,424,283,126
29,87,58,-58,-14,73,170,517,756,634,473,248
185,146,-39,-165,112,53,112,497,824,766,619,361
317,287,-29,-302,173,129,9,366,800,834,736,492
263,336,73,-300,95,204,-58,-107,424,522,546,439
-48,63,112,-7,-80,87,-87,-795,-405,-253,-82,34
-409,-92,317,251,-363,112,-283,-1800,-1283,-966,-605,-229
-561,-204,356,383,-458,75,-351,-2093,-1615,-1229,-829,-361
-522,-356,165,439,-344,-95,-414,-1991,-1556,-1200,-858,-424
-492,-507,-14,500,-239,-261,-468,-1810,-1507,-1215,-902,-522
-468,-483,-14,475,-226,-248,-488,-1532,-1302,-1073,-810,-497
-419,-473,-53,446,-183,-263,-424,-1224,-1068,-917,-707,-478
-297,-385,-87,341,-104,-236,-322,-893,-771,-673,-531,-361
-156,-229,-73,192,-41,-151,-214,-546,-439,-385,-292,-190
-63,-131,-68,97,2,-100,-102,-263,-219,-200,-156,-97
-39,-92,-53,65,7,-73,-34,-87,-102,-117,-97,-58
-29,-82,-53,56,12,-68,-4,-43,-63,-82,-68,-39
-29,-63,-34,46,2,-48,9,-34,-34,-48,-48,-14
-24,-53,-29,39,2,-41,9,-19,-24,-43,-39,-14
-24,-48,-24,36,0,-36,9,4,-19,-43,-39,-24
-19,-48,-29,34,4,-39,14,24,-4,-34,-34,-24
-14,-48,-34,31,9,-41,14,29,4,-24,-24,-14
-14,-43,-29,29,7,-36,19,34,14,-14,-14,-14
-14,-43,-29,29,7,-36,19,43,19,-14,-14,-19
-19,-43,-24,31,2,-34,19,53,19,-14,-9,-24
-19,-39,-19,29,0,-29,19,53,19,-14,-9,-24
-14,-39,-24,26,4,-31,19,58,24,-14,-4,-14
-9,-34,-24,21,7,-29,24,58,29,-14,-4,-14
-4,-34,-29,19,12,-31,19,63,29,-14,-4,-14
-4,-34,-29,19,12,-31,14,68,34,-9,-4,-14
-4,-34,-29,19,12,-31,19,73,39,-9,0,-9
0,-34,-34,17,17,-34,19,73,39,-4,0,-9
0,-34,-34,17,17,-34,19,73,39,0,9,-9
0,-34,-34,17,17,-34,19,73,43,4,14,-9
0,-34,-34,17,17,-34,19,78,43,9,14,-9
4,-29,-34,12,19,-31,19,78,43,9,14,-4
9,-29,-39,9,24,-34,19,87,43,4,14,-4
9,-24,-34,7,21,-29,19,87,43,4,9,0
4,-24,-29,9,17,-26,19,97,43,9,14,0
4,-19,-24,7,14,-21,19,102,48,9,14,0
9,-19,-29,4,19,-24,19,112,53,14,14,0
14,-19,-34,2,24,-26,19,117,58,14,14,4
14,-19,-34,2,24,-26,19,117,68,19,19,0
14,-9,-24,-2,19,-17,19,117,73,24,24,0
14,-9,-24,-2,19,-17,19,126,78,29,29,4
19,-9,-29,-4,24,-19,19,131,78,29,34,4
19,-4,-24,-7,21,-14,19,141,78,34,29,9
24,-4,-29,-9,26,-17,19,151,82,43,29,14
24,0,-24,-12,24,-12,19,156,87,43,34,19
29,4,-24,-17,26,-9,19,165,97,53,39,24
29,9,-19,-19,24,-4,24,175,102,53,43,29
39,19,-19,-29,29,0,24,185,107,58,53,29
43,19,-24,-31,34,-2,24,190,117,63,58,34
43,24,-19,-34,31,2,24,200,126,73,68,39
48,24,-24,-36,36,0,29,214,136,82,73,43
53,34,-19,-43,36,7,29,224,146,87,78,43
53,48,-4,-51,29,21,29,239,156,97,87,48
68,58,-9,-63,39,24,34,263,170,107,97,58
68,68,0,-68,34,34,34,278,180,122,107,68
73,78,4,-75,34,41,43,292,195,131,112,78
82,92,9,-87,36,51,43,317,209,146,126,87
87,102,14,-95,36,58,43,336,224,156,136,97
92,112,19,-102,36,65,43,346,234,170,146,107
107,122,14,-114,46,68,43,356,248,180,161,117
112,136,24,-124,43,80,43,366,258,195,180,131
122,151,29,-136,46,90,43,375,268,204,190,146
126,165,39,-146,43,102,39,380,278,214,200,156
141,180,39,-161,51,109,34,385,287,224,209,165
151,195,43,-173,53,119,24,375,287,234,224,175
156,204,48,-180,53,126,19,370,287,239,234,185
165,224,58,-195,53,141,14,356,287,244,239,195
175,239,63,-207,56,151,4,341,287,244,248,204
185,248,63,-217,61,156,-4,322,283,248,248,204
185,248,63,-217,61,156,-14,297,273,248,248,209
200,253,53,-226,73,153,-19,268,263,248,253,214
200,253,53,-226,73,153,-24,244,244,239,258,219
200,253,53,-226,73,153,-43,204,224,229,253,219
200,248,48,-224,75,148,-53,165,214,219,248,219
200,248,48,-224,75,148,-63,136,200,204,239,219
195,239,43,-217,75,141,-73,102,175,190,224,209
190,229,39,-209,75,134,-78,68,165,170,214,204
180,219,39,-200,70,129,-82,34,141,156,190,190
170,200,29,-185,70,114,-87,14,117,141,180,170
156,185,29,-170,63,107,-97,0,97,122,161,161
151,165,14,-158,68,90,-97,-29,78,107,151,151
146,146,0,-146,73,73,-97,-43,68,97,136,136
126,136,9,-131,58,73,-92,-43,63,87,122,112
117,122,4,-119,56,63,-82,-48,48,73,102,102
97,102,4,-100,46,53,-78,-58,34,53,87,87
78,87,9,-82,34,48,-68,-58,34,39,73,78
68,73,4,-70,31,39,-58,-58,24,34,63,68
58,63,4,-61,26,34,-53,-48,19,19,53,53
39,48,9,-43,14,29,-43,-39,9,9,43,43
34,39,4,-36,14,21,-39,-29,9,4,34,34
19,24,4,-21,7,14,-29,-24,9,4,29,24
9,14,4,-12,2,9,-14,-19,4,-9,24,19
-4,4,9,0,-7,7,-4,-9,4,-9,9,14
-4,0,4,2,-4,2,0,0,9,-9,9,4
-4,-9,-4,7,0,-7,4,0,14,-9,14,4
-4,-14,-9,9,2,-12,4,0,14,-9,14,0
-14,-14,0,14,-7,-7,9,14,14,-9,9,0
-19,-19,0,19,-9,-9,9,19,14,-14,4,-4
-19,-24,-4,21,-7,-14,14,24,9,-14,-4,-4
-19,-24,-4,21,-7,-14,19,29,9,-14,-4,-4
-19,-24,-4,21,-7,-14,19,34,9,-14,-4,-4
-19,-29,-9,24,-4,-19,19,34,4,-14,-9,-4
-19,-29,-9,24,-4,-19,24,34,4,-14,-4,-4
-19,-29,-9,24,-4,-19,24,39,4,-14,-4,-4
-19,-29,-9,24,-4,-19,24,39,14,-14,-4,-4
-19,-29,-9,24,-4,-19,24,39,14,-14,-4,-4
-19,-29,-9,24,-4,-19,19,34,14,-14,-4,-4
-19,-29,-9,24,-4,-19,19,29,4,-14,-4,-4
-19,-24,-4,21,-7,-14,19,24,4,-14,0,-4
-19,-24,-4,21,-7,-14,19,24,9,-14,4,-4
-14,-24,-9,19,-2,-17,19,24,9,-9,4,-4
-14,-24,-9,19,-2,-17,19,19,9,-9,4,0
-19,-29,-9,24,-4,-19,14,19,4,-9,0,0
-19,-34,-14,26,-2,-24,14,19,0,-9,-4,0
-19,-29,-9,24,-4,-19,14,19,0,-9,0,0
-19,-29,-9,24,-4,-19,9,19,0,-9,-4,0
-24,-29,-4,26,-9,-17,4,19,0,-14,-4,0
-19,-29,-9,24,-4,-19,4,14,0,-14,-4,0
-19,-29,-9,24,-4,-19,4,9,0,-14,-4,0
-19,-29,-9,24,-4,-19,4,0,0,-14,-4,0
-14,-29,-14,21,0,-21,0,0,0,-19,-4,-4
-14,-29,-14,21,0,-21,0,0,0,-19,-4,-9
-14,-34,-19,24,2,-26,0,0,0,-19,-4,-9
-14,-39,-24,26,4,-31,0,4,-4,-19,-4,-4
-14,-39,-24,26,4,-31,-4,4,-4,-19,-4,-4
-14,-39,-24,26,4,-31,-4,9,-4,-19,-9,-9
-19,-39,-19,29,0,-29,-4,9,-9,-19,-9,-9
-19,-43,-24,31,2,-34,-4,4,-14,-24,-9,-9
-19,-43,-24,31,2,-34,-4,4,-14,-24,-9,-9
-19,-43,-24,31,2,-34,-4,4,-14,-24,-9,-9
-14,-43,-29,29,7,-36,0,0,-14,-24,-9,-9
-14,-43,-29,29,7,-36,4,0,-14,-24,-9,-9
-14,-43,-29,29,7,-36,0,0,-14,-29,-14,-14
-14,-43,-29,29,7,-36,0,0,-9,-29,-14,-14
-19,-39,-19,29,0,-29,0,4,-9,-24,-14,-14
-19,-39,-19,29,0,-29,0,4,-9,-29,-19,-19
-19,-39,-19,29,0,-29,0,4,-9,-34,-19,-19
-24,-39,-14,31,-4,-26,0,4,-14,-34,-19,-19
-24,-43,-19,34,-2,-31,4,4,-14,-34,-19,-19
-24,-48,-24,36,0,-36,4,4,-14,-29,-19,-14
-24,-53,-29,39,2,-41,4,4,-14,-29,-19,-14
-29,-53,-24,41,-2,-39,4,4,-19,-29,-24,-14
-29,-53,-24,41,-2,-39,0,4,-24,-39,-24,-19
-24,-53,-29,39,2,-41,-4,0,-24,-43,-24,-29
-24,-53,-29,39,2,-41,-4,0,-24,-43,-24,-29
-24,-53,-29,39,2,-41,-4,0,-24,-43,-29,-29
-24,-53,-29,39,2,-41,0,0,-24,-43,-29,-29
-34,-48,-14,41,-9,-31,4,0,-24,-48,-29,-29
-34,-48,-14,41,-9,-31,4,0,-24,-48,-29,-34
-34,-48,-14,41,-9,-31,4,0,-24,-48,-29,-39
-34,-48,-14,41,-9,-31,4,0,-24,-43,-29,-34
-29,-48,-19,39,-4,-34,4,0,-24,-39,-29,-34
-29,-48,-19,39,-4,-34,4,0,-24,-39,-34,-39
-29,-48,-19,39,-4,-34,4,0,-24,-43,-39,-39
-34,-48,-14,41,-9,-31,4,0,-29,-43,-39,-39
-34,-48,-14,41,-9,-31,4,0,-34,-43,-39,-39
-34,-48,-14,41,-9,-31,0,0,-34,-43,-39,-43
-34,-48,-14,41,-9,-31,-4,0,-34,-43,-39,-43
-29,-48,-19,39,-4,-34,-4,0,-34,-43,-43,-39
-29,-48,-19,39,-4,-34,-4,0,-34,-43,-43,-34
-29,-48,-19,39,-4,-34,-4,-4,-34,-43,-43,-34
-29,-48,-19,39,-4,-34,-4,-9,-34,-43,-43,-39
-24,-43,-19,34,-2,-31,-4,-9,-39,-43,-43,-39
-24,-39,-14,31,-4,-26,0,-9,-39,-43,-39,-39
-29,-39,-9,34,-9,-24,0,-9,-39,-43,-39,-39
-29,-39,-9,34,-9,-24,0,-9,-39,-48,-43,-34
-29,-43,-14,36,-7,-29,0,-9,-39,-48,-43,-34
-29,-48,-19,39,-4,-34,-4,-9,-39,-48,-43,-34
-29,-48,-19,39,-4,-34,-4,-9,-39,-43,-48,-39
-29,-48,-19,39,-4,-34,-4,-9,-39,-43,-48,-43
-29,-43,-14,36,-7,-29,-4,-9,-39,-43,-43,-43
-29,-39,-9,34,-9,-24,-4,-9,-34,-43,-43,-43
-29,-39,-9,34,-9,-24,-4,-9,-34,-48,-43,-43
-29,-39,-9,34,-9,-24,-4,-9,-39,-48,-43,-43
-29,-39,-9,34,-9,-24,-4,-9,-39,-48,-43,-43
-24,-39,-14,31,-4,-26,-4,-9,-39,-53,-43,-48
-24,-39,-14,31,-4,-26,-4,-9,-39,-53,-43,-48
-24,-39,-14,31,-4,-26,-4,-9,-39,-48,-48,-48
-19,-39,-19,29,0,-29,-4,-9,-34,-43,-48,-48
-19,-39,-19,29,0,-29,-4,-9,-34,-43,-43,-48
-19,-39,-19,29,0,-29,-4,-9,-39,-43,-43,-43
-19,-34,-14,26,-2,-24,-4,-9,-43,-48,-43,-43
-19,-34,-14,26,-2,-24,-4,-9,-43,-48,-43,-43
-19,-34,-14,26,-2,-24,-4,-9,-39,-43,-43,-43
-19,-34,-14,26,-2,-24,0,-9,-39,-43,-43,-43
-19,-39,-19,29,0,-29,0,-9,-39,-48,-48,-48
-19,-39,-19,29,0,-29,0,-9,-39,-48,-48,-48
-19,-39,-19,29,0,-29,0,-9,-39,-48,-48,-48
-19,-39,-19,29,0,-29,0,-14,-39,-48,-48,-48
-19,-39,-19,29,0,-29,0,-19,-39,-48,-48,-48
-19,-39,-19,29,0,-29,0,-19,-39,-48,-48,-48
-19,-39,-19,29,0,-29,0,-19,-39,-48,-48,-48
-19,-39,-19,29,0,-29,0,-19,-39,-48,-48,-48
-19,-39,-19,29,0,-29,0,-19,-39,-48,-48,-48
-19,-34,-14,26,-2,-24,0,-19,-39,-48,-48,-48
-19,-29,-9,24,-4,-19,0,-19,-39,-48,-48,-48
-14,-29,-14,21,0,-21,0,-19,-43,-48,-48,-48
-9,-29,-19,19,4,-24,0,-19,-48,-48,-48,-48
-9,-29,-19,19,4,-24,0,-19,-48,-48,-48,-48
-9,-29,-19,19,4,-24,0,-19,-48,-48,-48,-48
-9,-29,-19,19,4,-24,0,-19,-48,-48,-53,-48
-9,-29,-19,19,4,-24,0,-19,-48,-48,-58,-48
-9,-34,-24,21,7,-29,0,-19,-48,-48,-58,-48
-9,-39,-29,24,9,-34,0,-19,-48,-48,-58,-48
-9,-39,-29,24,9,-34,0,-19,-48,-48,-58,-48
-9,-39,-29,24,9,-34,0,-19,-48,-48,-58,-48
-9,-39,-29,24,9,-34,-4,-19,-48,-48,-58,-48
-9,-39,-29,24,9,-34,-9,-19,-48,-48,-58,-48
-4,-39,-34,21,14,-36,-9,-19,-48,-48,-58,-48
0,-39,-39,19,19,-39,-9,-19,-48,-48,-58,-48
0,-34,-34,17,17,-34,-4,-19,-39,-43,-53,-48
0,-29,-29,14,14,-29,0,-19,-29,-39,-48,-48
4,-14,-19,4,12,-17,4,-9,-24,-39,-43,-39
9,0,-9,-4,9,-4,9,0,-19,-39,-39,-29
14,14,0,-14,7,7,24,14,-4,-24,-29,-24
24,24,0,-24,12,12,34,24,4,-9,-19,-19
34,39,4,-36,14,21,48,39,19,4,-9,-14
43,43,0,-43,21,21,58,43,29,9,0,-9
43,48,4,-46,19,26,63,53,34,19,4,0
43,58,14,-51,14,36,68,63,34,19,4,4
58,68,9,-63,24,39,63,73,48,34,14,19
68,87,19,-78,24,53,53,73,58,43,24,24
68,97,29,-82,19,63,48,63,63,53,34,29
78,112,34,-95,21,73,19,48,63,58,39,34
92,122,29,-107,31,75,-19,24,63,58,43,43
102,126,24,-114,39,75,-43,14,53,53,43,43
131,126,-4,-129,68,61,-63,4,43,48,43,43
146,126,-19,-136,82,53,-73,4,43,48,43,43
146,112,-34,-129,90,39,-73,4,39,43,39,43
141,92,-48,-117,95,21,-68,4,29,39,39,39
126,82,-43,-104,85,19,-58,4,29,39,34,29
117,73,-43,-95,80,14,-48,4,29,34,34,24
122,58,-63,-90,92,-2,-43,9,29,29,19,19
102,48,-53,-75,78,-2,-29,14,29,29,19,19
82,43,-39,-63,61,2,-24,14,19,24,9,9
63,19,-43,-41,53,-12,-24,4,4,9,-4,-9
48,0,-48,-24,48,-24,-24,0,-9,-9,-19,-19
39,-14,-53,-12,46,-34,-24,-9,-19,-19,-29,-29
29,-34,-63,2,46,-48,-24,-19,-29,-39,-43,-43
24,-43,-68,9,46,-56,-24,-19,-43,-53,-53,-58
14,-48,-63,17,39,-56,-24,-19,-43,-53,-53,-63
9,-48,-58,19,34,-53,-29,-19,-43,-53,-53,-63
9,-53,-63,21,36,-58,-24,-19,-43,-48,-58,-63
4,-63,-68,29,36,-65,-24,-19,-48,-48,-58,-68
4,-68,-73,31,39,-70,-24,-24,-48,-48,-58,-63
4,-68,-73,31,39,-70,-19,-29,-48,-48,-58,-58
0,-73,-73,36,36,-73,-14,-29,-48,-53,-63,-58
0,-73,-73,36,36,-73,-14,-29,-48,-53,-63,-63
-4,-73,-68,39,31,-70,-14,-24,-48,-48,-58,-63
-4,-73,-68,39,31,-70,-14,-24,-48,-48,-58,-63
-4,-73,-68,39,31,-70,-14,-24,-48,-53,-58,-63
-4,-73,-68,39,31,-70,-9,-24,-53,-58,-58,-63
-4,-78,-73,41,34,-75,-9,-19,-53,-53,-63,-63
-14,-78,-63,46,24,-70,9,14,-29,-39,-63,-63
-29,-73,-43,51,7,-58,39,87,53,4,-34,-63
-48,-39,9,43,-29,-14,87,190,175,102,24,-34
-68,9,78,29,-73,43,131,273,346,248,126,34
-53,58,112,-2,-82,85,170,356,531,424,263,117
58,117,58,-87,0,87,151,448,741,644,458,239
195,175,-19,-185,107,78,78,375,780,746,590,341
326,322,-4,-324,165,158,-58,170,712,805,722,488
292,341,48,-317,122,195,-180,-351,287,473,531,434
-19,34,53,-7,-36,43,-248,-1102,-610,-380,-156,-4
-351,-136,214,244,-283,39,-429,-2020,-1449,-1078,-673,-278
-488,-263,224,375,-356,-19,-478,-2200,-1722,-1298,-873,-409
-458,-390,68,424,-263,-161,-531,-2054,-1625,-1234,-878,-448
-424,-512,-87,468,-168,-300,-575,-1820,-1522,-1215,-893,-522
-400,-458,-58,429,-170,-258,-556,-1512,-1273,-1039,-780,-478
-361,-424,-63,392,-148,-244,-439,-1176,-1010,-849,-658,-439
-253,-336,-82,295,-85,-209,-312,-834,-712,-605,-483,-322
-122,-180,-58,151,-31,-119,-185,-478,-380,-317,-244,-151
-48,-97,-48,73,0,-73,-78,-219,-185,-161,-131,-78
-43,-78,-34,61,-4,-56,-19,-73,-92,-107,-97,-63
-39,-73,-34,56,-2,-53,9,-29,-63,-78,-68,-53
-43,-53,-9,48,-17,-31,19,-24,-39,-43,-48,-34
-43,-48,-4,46,-19,-26,19,-9,-24,-34,-39,-34
-43,-48,-4,46,-19,-26,19,14,-19,-34,-39,-43
-43,-48,-4,46,-19,-26,29,34,-4,-24,-39,-43
-43,-48,-4,46,-19,-26,34,43,4,-14,-29,-34
-43,-43,0,43,-21,-21,39,53,14,-4,-14,-29
-43,-48,-4,46,-19,-26,39,63,19,0,-14,-29
-48,-53,-4,51,-21,-29,39,73,19,4,-9,-34
-53,-48,4,51,-29,-21,39,73,19,4,-9,-34
-53,-48,4,51,-29,-21,39,78,24,9,-4,-24
-48,-43,4,46,-26,-19,43,78,29,9,-4,-19
-43,-43,0,43,-21,-21,43,82,29,4,-4,-14
-48,-43,4,46,-26,-19,43,87,34,9,-4,-14
-53,-43,9,48,-31,-17,48,92,39,9,0,-9
-48,-43,4,46,-26,-19,53,92,39,14,0,-9
-48,-43,4,46,-26,-19,58,97,39,14,4,-9
-48,-43,4,46,-26,-19,58,102,43,19,4,-9
-48,-43,4,46,-26,-19,58,107,43,29,4,-9
-48,-39,9,43,-29,-14,58,107,43,29,4,-4
-48,-39,9,43,-29,-14,58,117,48,29,9,-4
-48,-34,14,41,-31,-9,58,117,53,34,9,0
-48,-34,14,41,-31,-9,58,122,53,39,14,0
-43,-29,14,36,-29,-7,58,122,58,39,14,0
-39,-29,9,34,-24,-9,58,131,63,43,14,0
-34,-29,4,31,-19,-12,58,136,68,43,14,4
-34,-29,4,31,-19,-12,58,141,78,48,19,4
-34,-19,14,26,-24,-2,58,146,82,53,24,9
-34,-19,14,26,-24,-2,58,156,87,58,29,14
-29,-14,14,21,-21,0,58,161,87,58,34,14
-29,-4,24,17,-26,9,58,170,92,63,34,14
-24,-4,19,14,-21,7,58,180,102,73,39,14
-24,0,24,12,-24,12,58,185,107,73,43,19
-19,4,24,7,-21,14,58,195,117,82,48,24
-19,9,29,4,-24,19,63,204,122,87,53,29
-9,14,24,-2,-17,19,63,214,126,92,63,24
-4,14,19,-4,-12,17,63,224,136,92,68,29
-4,24,29,-9,-17,26,63,239,146,102,78,39
0,24,24,-12,-12,24,68,253,156,112,82,43
4,34,29,-19,-12,31,68,263,165,117,87,43
4,43,39,-24,-17,41,68,278,175,126,97,48
19,48,29,-34,-4,39,73,302,185,136,102,58
19,58,39,-39,-9,48,73,317,190,151,107,68
24,68,43,-46,-9,56,82,331,204,161,112,78
34,82,48,-58,-7,65,82,351,219,175,126,87
43,92,48,-68,-2,70,82,366,234,185,136,92
53,107,53,-80,0,80,82,375,244,200,146,97
68,122,53,-95,7,87,87,385,258,209,161,107
73,136,63,-104,4,100,92,395,268,224,180,122
78,151,73,-114,2,112,97,405,278,234,190,136
78,165,87,-122,-4,126,97,405,287,244,200,146
92,180,87,-136,2,134,92,409,297,248,204,156
102,195,92,-148,4,143,82,405,297,253,214,165
107,204,97,-156,4,151,78,400,297,258,224,175
117,219,102,-168,7,161,73,385,297,263,229,185
126,229,102,-178,12,165,63,370,297,263,239,195
136,239,102,-187,17,170,53,351,292,268,239,195
136,239,102,-187,17,170,39,326,283,268,239,195
151,248,97,-200,26,173,24,292,273,263,239,195
151,253,102,-202,24,178,14,263,253,248,239,200
151,253,102,-202,24,178,-4,224,234,239,234,200
156,248,92,-202,31,170,-14,180,224,229,229,204
161,244,82,-202,39,163,-24,146,204,214,219,204
156,234,78,-195,39,156,-39,112,175,200,204,190
151,229,78,-190,36,153,-48,78,161,180,195,185
146,219,73,-183,36,146,-53,39,136,165,170,170
141,200,58,-170,41,129,-53,14,117,151,161,151
126,185,58,-156,34,122,-63,0,97,131,141,141
117,165,48,-141,34,107,-68,-24,78,112,131,131
112,146,34,-129,39,90,-68,-34,68,97,117,117
97,131,34,-114,31,82,-63,-34,63,87,102,92
87,112,24,-100,31,68,-58,-39,48,73,82,82
73,92,19,-82,26,56,-58,-48,34,58,68,68
58,73,14,-65,21,43,-48,-48,34,48,53,58
48,53,4,-51,21,29,-39,-48,24,43,43,48
39,43,4,-41,17,24,-34,-48,14,29,34,34
19,29,9,-24,4,19,-24,-48,0,19,24,24
14,24,9,-19,2,17,-19,-39,0,14,19,14
4,14,9,-9,-2,12,-14,-34,0,14,14,4
0,4,4,-2,-2,4,-4,-24,-4,0,4,4
-14,-4,9,9,-12,2,4,-9,-9,0,-9,4
-14,-9,4,12,-9,-2,9,0,-9,0,-9,-4
-14,-14,0,14,-7,-7,14,0,-4,0,-4,-4
-14,-14,0,14,-7,-7,14,0,-4,0,-4,-14
-24,-14,9,19,-17,-2,19,14,-4,0,-9,-19
-29,-19,9,24,-19,-4,19,19,-4,-4,-14,-24
-29,-24,4,26,-17,-9,24,19,-9,-4,-24,-24
-29,-24,4,26,-17,-9,29,19,-9,-4,-24,-24
-34,-24,9,29,-21,-7,29,24,-4,-4,-19,-24
-39,-29,9,34,-24,-9,29,24,-4,-4,-19,-24
-39,-29,9,34,-24,-9,34,24,-4,-4,-14,-24
-39,-29,9,34,-24,-9,29,29,-9,-4,-14,-24
-39,-29,9,34,-24,-9,24,29,-4,-4,-14,-24
-39,-29,9,34,-24,-9,24,29,-4,-4,-14,-24
-39,-29,9,34,-24,-9,19,29,-4,-4,-14,-24
-39,-34,4,36,-21,-14,19,24,-9,-4,-14,-24
-39,-34,4,36,-21,-14,19,14,-4,-4,-14,-24
-39,-34,4,36,-21,-14,19,14,0,-4,-14,-24
-34,-34,0,34,-17,-17,19,14,0,0,-14,-24
-34,-34,0,34,-17,-17,19,9,0,0,-14,-19
-39,-34,4,36,-21,-14,14,9,0,0,-14,-19
-39,-34,4,36,-21,-14,19,9,0,0,-14,-19
-39,-29,9,34,-24,-9,24,9,0,0,-4,-19
-39,-29,9,34,-24,-9,19,9,0,0,-4,-14
-39,-29,9,34,-24,-9,14,9,0,0,-4,-9
-29,-29,0,29,-14,-14,14,4,0,4,-4,-9
-29,-29,0,29,-14,-14,14,4,0,4,-4,-9
-29,-29,0,29,-14,-14,14,0,0,4,-4,-9
-24,-29,-4,26,-9,-17,9,0,0,0,-4,-9
-24,-29,-4,26,-9,-17,9,0,0,0,-4,-14
-24,-29,-4,26,-9,-17,9,-4,0,0,-4,-19
-19,-29,-9,24,-4,-19,9,-4,-4,0,-4,-14
-14,-29,-14,21,0,-21,4,-9,-4,0,-4,-14
-14,-29,-14,21,0,-21,0,-9,-4,0,-9,-19
-19,-29,-9,24,-4,-19,-4,-9,-4,0,-9,-19
-19,-34,-14,26,-2,-24,-4,-14,-4,-4,-9,-19
-19,-34,-14,26,-2,-24,-4,-14,-4,-4,-9,-19
-24,-34,-9,29,-7,-21,-4,-14,-4,-4,-9,-19
-24,-34,-9,29,-7,-21,-4,-19,-4,-4,-9,-19
-24,-34,-9,29,-7,-21,0,-19,-4,-4,-9,-19
-24,-34,-9,29,-7,-21,0,-19,-9,-9,-14,-24
-19,-34,-14,26,-2,-24,0,-19,-14,-9,-14,-19
-19,-34,-14,26,-2,-24,0,-19,-19,-9,-14,-14
-19,-39,-19,29,0,-29,0,-24,-19,-14,-19,-19
-19,-39,-19,29,0,-29,0,-24,-19,-14,-19,-19
-24,-39,-14,31,-4,-26,0,-24,-24,-14,-19,-19
-24,-39,-14,31,-4,-26,4,-24,-24,-14,-19,-24
-24,-39,-14,31,-4,-26,4,-24,-24,-9,-19,-24
-24,-43,-19,34,-2,-31,4,-24,-24,-9,-19,-24
-29,-43,-14,36,-7,-29,4,-24,-24,-9,-24,-24
-29,-43,-14,36,-7,-29,4,-19,-24,-14,-24,-24
-24,-43,-19,34,-2,-31,4,-19,-24,-14,-24,-29
-24,-43,-19,34,-2,-31,4,-19,-24,-14,-24,-29
-24,-43,-19,34,-2,-31,4,-19,-29,-14,-29,-29
-24,-48,-24,36,0,-36,4,-19,-34,-14,-29,-29
-34,-48,-14,41,-9,-31,4,-19,-34,-19,-29,-34
-34,-48,-14,41,-9,-31,4,-19,-34,-19,-29,-39
-39,-48,-9,43,-14,-29,4,-19,-34,-19,-29,-39
-43,-48,-4,46,-19,-26,4,-19,-34,-19,-29,-34
-39,-48,-9,43,-14,-29,4,-19,-34,-19,-29,-29
-39,-48,-9,43,-14,-29,4,-19,-34,-19,-29,-29
-34,-48,-14,41,-9,-31,4,-19,-34,-24,-29,-29
-34,-48,-14,41,-9,-31,4,-19,-34,-24,-29,-29
-34,-48,-14,41,-9,-31,4,-19,-29,-24,-29,-29
-34,-48,-14,41,-9,-31,4,-19,-24,-24,-29,-34
-34,-48,-14,41,-9,-31,4,-14,-24,-24,-29,-34
-34,-48,-14,41,-9,-31,4,-9,-24,-24,-34,-34
-39,-48,-9,43,-14,-29,4,-9,-24,-24,-34,-29
-39,-48,-9,43,-14,-29,4,-9,-24,-24,-34,-24
-39,-48,-9,43,-14,-29,0,-9,-24,-24,-34,-29
-34,-48,-14,41,-9,-31,-4,-9,-29,-24,-34,-29
-34,-48,-14,41,-9,-31,0,-9,-29,-24,-29,-34
-39,-48,-9,43,-14,-29,0,-9,-29,-24,-29,-39
-39,-48,-9,43,-14,-29,0,-9,-29,-29,-34,-34
-39,-48,-9,43,-14,-29,0,-9,-29,-29,-34,-34
-39,-48,-9,43,-14,-29,-4,-9,-24,-29,-34,-34
-39,-48,-9,43,-14,-29,-4,-9,-19,-24,-39,-34
-39,-48,-9,43,-14,-29,-4,-9,-19,-24,-39,-34
-39,-48,-9,43,-14,-29,-4,-9,-19,-24,-34,-34
-39,-48,-9,43,-14,-29,-4,-9,-19,-24,-34,-34
-39,-48,-9,43,-14,-29,-4,-9,-24,-29,-34,-34
-39,-48,-9,43,-14,-29,-4,-9,-29,-34,-34,-34
-43,-48,-4,46,-19,-26,-4,-9,-29,-34,-34,-34
-43,-48,-4,46,-19,-26,0,-9,-29,-34,-34,-39
-43,-48,-4,46,-19,-26,4,-9,-29,-34,-34,-39
-43,-48,-4,46,-19,-26,4,-9,-29,-24,-39,-39
-39,-48,-9,43,-14,-29,4,-9,-24,-19,-39,-39
-39,-48,-9,43,-14,-29,4,-9,-24,-24,-34,-39
-39,-48,-9,43,-14,-29,4,-9,-24,-24,-34,-34
-39,-43,-4,41,-17,-24,4,-9,-29,-29,-34,-34
-39,-43,-4,41,-17,-24,4,-9,-29,-24,-34,-34
-39,-39,0,39,-19,-19,4,-14,-24,-19,-29,-34
-43,-39,4,41,-24,-17,9,-19,-24,-19,-29,-39
-39,-43,-4,41,-17,-24,9,-19,-19,-19,-29,-39
-39,-48,-9,43,-14,-29,9,-19,-19,-19,-29,-39
-39,-48,-9,43,-14,-29,9,-19,-19,-19,-29,-39
-39,-48,-9,43,-14,-29,9,-19,-19,-19,-29,-39
-39,-48,-9,43,-14,-29,4,-19,-24,-19,-29,-39
-39,-48,-9,43,-14,-29,0,-19,-29,-19,-29,-39
-39,-48,-9,43,-14,-29,0,-19,-29,-24,-29,-39
-39,-48,-9,43,-14,-29,0,-19,-29,-29,-29,-39
-39,-48,-9,43,-14,-29,0,-19,-29,-29,-34,-39
-39,-48,-9,43,-14,-29,0,-19,-29,-29,-39,-39
-39,-48,-9,43,-14,-29,0,-19,-29,-29,-39,-39
-39,-48,-9,43,-14,-29,0,-19,-29,-29,-39,-39
-39,-43,-4,41,-17,-24,0,-19,-24,-29,-39,-39
-39,-39,0,39,-19,-19,0,-19,-19,-29,-39,-39
-39,-39,0,39,-19,-19,0,-19,-19,-29,-39,-39
-39,-39,0,39,-19,-19,0,-19,-19,-29,-39,-39
-39,-43,-4,41,-17,-24,0,-19,-24,-29,-39,-39
-39,-48,-9,43,-14,-29,0,-19,-29,-29,-39,-39
-39,-48,-9,43,-14,-29,0,-19,-29,-29,-34,-39
-39,-48,-9,43,-14,-29,0,-19,-29,-29,-29,-39
-39,-48,-9,43,-14,-29,0,-14,-29,-29,-29,-39
-39,-48,-9,43,-14,-29,0,-9,-29,-29,-29,-39
-34,-48,-14,41,-9,-31,0,-9,-29,-29,-29,-39
-29,-48,-19,39,-4,-34,0,-9,-29,-29,-29,-39
-29,-43,-14,36,-7,-29,4,-9,-24,-24,-29,-39
-29,-39,-9,34,-9,-24,9,-9,-19,-19,-29,-39
-24,-19,4,21,-14,-7,14,-4,-14,-9,-24,-29
-19,0,19,9,-19,9,19,0,-9,0,-19,-19
-9,9,19,0,-14,14,29,19,4,4,-14,-14
0,19,19,-9,-9,19,39,34,14,14,-4,-9
9,29,19,-19,-4,24,53,48,29,24,0,-4
14,34,19,-24,-2,26,68,53,39,29,9,0
14,39,24,-26,-4,31,73,63,48,39,19,4
14,48,34,-31,-9,41,78,73,53,39,24,4
29,58,29,-43,0,43,78,87,68,53,34,19
39,78,39,-58,0,58,73,92,78,63,43,24
39,82,43,-61,-2,63,68,82,82,73,53,34
48,92,43,-70,2,68,39,68,82,78,58,43
63,102,39,-82,12,70,0,39,82,78,63,53
73,107,34,-90,19,70,-24,24,73,73,63,53
102,112,9,-107,46,61,-48,14,63,68,63,58
117,117,0,-117,58,58,-63,14,63,68,63,63
117,102,-14,-109,65,43,-63,14,58,58,58,63
112,82,-29,-97,70,26,-58,14,48,48,58,58
97,73,-24,-85,61,24,-53,14,43,48,53,43
87,63,-24,-75,56,19,-48,14,39,43,53,34
87,48,-39,-68,63,4,-43,19,39,39,29,29
63,39,-24,-51,43,7,-29,24,39,39,19,29
43,34,-9,-39,26,12,-19,24,34,39,19,19
24,9,-14,-17,19,-2,-14,14,24,29,14,0
9,-9,-19,0,14,-14,-14,9,9,9,0,-9
0,-24,-24,12,12,-24,-14,0,0,0,-9,-19
-9,-43,-34,26,12,-39,-14,-9,-14,-19,-29,-29
-14,-53,-39,34,12,-46,-14,-9,-34,-34,-43,-39
-24,-58,-34,41,4,-46,-9,-14,-34,-34,-43,-43
-29,-58,-29,43,0,-43,-9,-19,-34,-34,-43,-43
-29,-58,-29,43,0,-43,-9,-19,-34,-34,-43,-43
-34,-63,-29,48,-2,-46,-14,-19,-39,-39,-39,-48
-34,-68,-34,51,0,-51,-14,-19,-39,-39,-39,-48
-34,-68,-34,51,0,-51,-9,-19,-39,-39,-39,-48
-43,-73,-29,58,-7,-51,-4,-19,-39,-43,-48,-48
-48,-73,-24,61,-12,-48,-4,-19,-39,-43,-53,-53
-53,-73,-19,63,-17,-46,-4,-14,-39,-39,-48,-53
-53,-73,-19,63,-17,-46,-4,-14,-39,-39,-48,-53
-48,-73,-24,61,-12,-48,-4,-14,-39,-39,-48,-53
-43,-73,-29,58,-7,-51,0,-14,-43,-39,-48,-53
-43,-82,-39,63,-2,-61,0,-19,-53,-43,-53,-58
-53,-87,-34,70,-9,-61,19,4,-39,-39,-53,-63
-63,-87,-24,75,-19,-56,43,78,29,-4,-34,-63
-78,-58,19,68,-48,-19,87,180,136,82,14,-34
-107,-9,97,58,-102,43,136,268,297,214,102,24
-102,39,141,31,-122,90,180,356,473,375,224,97
9,82,73,-46,-31,78,170,483,702,600,414,209
146,126,-19,-136,82,53,107,444,761,707,541,302
312,317,4,-314,153,161,-19,287,785,844,736,488
312,380,68,-346,122,224,-131,-185,453,590,610,473
-24,53,78,-14,-51,65,-195,-1010,-468,-278,-92,19
-380,-136,244,258,-312,53,-370,-2000,-1332,-990,-624,-268
-522,-244,278,383,-400,17,-424,-2235,-1649,-1239,-844,-400
-497,-351,146,424,-322,-102,-483,-2142,-1595,-1205,-868,-439
-463,-502,-39,483,-212,-270,-546,-1917,-1532,-1215,-902,-522
-439,-478,-39,458,-200,-258,-546,-1620,-1322,-1068,-810,-488
-400,-448,-48,424,-175,-248,-444,-1283,-1073,-893,-707,-468
-292,-366,-73,329,-109,-219,-331,-941,-790,-663,-551,-370
-146,-209,-63,178,-41,-136,-204,-556,-434,-356,-287,-190
-58,-126,-68,92,4,-97,-97,-268,-214,-180,-151,-107
-48,-97,-48,73,0,-73,-34,-107,-112,-122,-117,-87
-39,-82,-43,61,2,-63,0,-48,-73,-87,-87,-73
-39,-63,-24,51,-7,-43,9,-43,-53,-58,-63,-53
-34,-58,-24,46,-4,-41,9,-29,-43,-53,-48,-53
-29,-58,-29,43,0,-43,9,-4,-39,-53,-48,-63
-24,-58,-34,41,4,-46,19,14,-24,-43,-48,-63
-24,-58,-34,41,4,-46,24,19,-14,-34,-43,-48
-24,-53,-29,39,2,-41,29,24,-4,-24,-34,-39
-24,-53,-29,39,2,-41,29,39,0,-19,-34,-39
-29,-53,-24,41,-2,-39,29,53,0,-14,-29,-43
-29,-48,-19,39,-4,-34,29,53,0,-14,-29,-48
-24,-48,-24,36,0,-36,29,58,4,-9,-24,-43
-19,-43,-24,31,2,-34,34,58,9,-4,-24,-43
-14,-43,-29,29,7,-36,34,63,9,-4,-24,-43
-14,-43,-29,29,7,-36,34,68,14,0,-24,-43
-14,-43,-29,29,7,-36,39,73,19,0,-19,-39
-9,-43,-34,26,12,-39,39,73,19,4,-19,-39
-9,-43,-34,26,12,-39,39,78,19,4,-14,-39
-9,-43,-34,26,12,-39,43,82,24,4,-14,-39
-9,-43,-34,26,12,-39,48,87,24,9,-14,-39
-9,-39,-29,24,9,-34,48,87,24,9,-14,-34
-9,-39,-29,24,9,-34,48,97,29,9,-9,-34
-9,-34,-24,21,7,-29,43,97,34,14,-9,-29
-9,-34,-24,21,7,-29,39,102,34,19,-4,-29
-4,-24,-19,14,7,-21,39,102,39,19,-4,-29
0,-19,-19,9,9,-19,39,112,43,24,-4,-29
9,-19,-29,4,19,-24,39,117,43,19,-4,-24
14,-19,-34,2,24,-26,39,122,48,19,0,-24
14,-14,-29,0,21,-21,39,126,53,24,0,-19
14,-19,-34,2,24,-26,39,136,58,29,0,-14
19,-19,-39,0,29,-29,39,141,58,29,4,-14
19,-14,-34,-2,26,-24,39,151,63,34,4,-14
24,-14,-39,-4,31,-26,39,161,73,43,9,-14
24,-9,-34,-7,29,-21,39,165,78,43,14,-9
24,-4,-29,-9,26,-17,39,175,87,53,19,-4
19,0,-19,-9,19,-9,43,185,92,58,24,0
29,9,-19,-19,24,-4,43,195,97,68,29,0
34,14,-19,-24,26,-2,43,204,107,73,29,9
34,24,-9,-29,21,7,43,219,117,82,39,19
39,24,-14,-31,26,4,48,234,126,92,43,24
43,34,-9,-39,26,12,48,244,131,97,48,19
43,43,0,-43,21,21,48,258,136,107,58,19
58,48,-9,-53,34,19,53,283,151,112,68,29
58,58,0,-58,29,29,53,297,161,122,78,39
63,68,4,-65,29,36,63,312,175,131,82,48
73,82,9,-78,31,46,63,331,190,146,97,58
78,92,14,-85,31,53,63,346,204,156,107,68
82,107,24,-95,29,65,63,356,214,170,117,78
97,122,24,-109,36,73,63,366,229,180,131,87
102,136,34,-119,34,85,63,375,239,195,151,102
112,146,34,-129,39,90,68,385,248,204,161,117
117,156,39,-136,39,97,68,385,258,214,170,126
131,170,39,-151,46,104,63,390,268,224,175,136
141,185,43,-163,48,114,53,385,268,234,185,146
146,195,48,-170,48,122,48,380,268,239,195,151
156,209,53,-183,51,131,43,366,268,244,200,156
165,224,58,-195,53,141,34,351,268,239,209,165
175,239,63,-207,56,151,24,331,263,239,209,165
175,239,63,-207,56,151,14,312,253,239,209,170
190,248,58,-219,65,153,4,283,244,234,209,175
190,253,63,-222,63,158,-4,253,224,219,209,180
190,253,63,-222,63,158,-24,214,204,209,204,180
190,248,58,-219,65,153,-34,175,195,200,200,180
190,244,53,-217,68,148,-43,146,175,185,190,175
190,229,39,-209,75,134,-58,107,151,170,180,161
190,219,29,-204,80,124,-68,68,141,151,175,156
180,214,34,-197,73,124,-73,29,117,141,151,146
170,200,29,-185,70,114,-73,4,97,131,141,131
156,185,29,-170,63,107,-78,-9,78,112,122,122
146,165,19,-156,63,92,-78,-34,58,92,112,112
136,146,9,-141,63,78,-82,-48,48,78,97,102
117,131,14,-124,51,73,-82,-53,43,68,82,82
107,112,4,-109,51,58,-73,-58,29,58,68,73
92,92,0,-92,46,46,-68,-68,14,48,58,58
78,78,0,-78,39,39,-58,-68,14,39,43,43
68,63,-4,-65,36,29,-48,-68,4,34,34,29
58,53,-4,-56,31,24,-43,-63,0,19,24,14
39,39,0,-39,19,19,-34,-58,-9,9,14,4
34,29,-4,-31,19,12,-29,-48,-9,4,4,0
24,14,-9,-19,17,2,-24,-43,-9,4,-4,-4
14,4,-9,-9,12,-2,-9,-39,-14,-9,-14,-9
-4,-4,0,4,-2,-2,4,-29,-19,-9,-29,-14
-4,-9,-4,7,0,-7,9,-19,-19,-9,-29,-24
-4,-14,-9,9,2,-12,14,-19,-14,-9,-24,-24
-4,-14,-9,9,2,-12,9,-19,-14,-9,-24,-29
-14,-14,0,14,-7,-7,9,-4,-14,-9,-29,-29
-19,-24,-4,21,-7,-14,9,0,-14,-14,-34,-34
-19,-34,-14,26,-2,-24,14,0,-19,-14,-43,-34
-19,-34,-14,26,-2,-24,19,4,-19,-14,-43,-34
-24,-34,-9,29,-7,-21,19,14,-14,-14,-39,-34
-29,-39,-9,34,-9,-24,24,14,-14,-14,-39,-34
-29,-39,-9,34,-9,-24,34,14,-14,-14,-34,-34
-29,-34,-4,31,-12,-19,34,19,-14,-14,-34,-34
-29,-29,0,29,-14,-14,34,19,-4,-14,-34,-34
-29,-29,0,29,-14,-14,34,14,-4,-14,-29,-34
-29,-29,0,29,-14,-14,29,9,-4,-14,-24,-34
-29,-34,-4,31,-12,-19,29,9,-14,-14,-24,-34
-29,-34,-4,31,-12,-19,29,4,-14,-14,-24,-34
-29,-34,-4,31,-12,-19,29,4,-9,-14,-24,-34
-24,-34,-9,29,-7,-21,29,4,-9,-9,-24,-34
-24,-34,-9,29,-7,-21,29,0,-9,-9,-24,-29
-29,-34,-4,31,-12,-19,24,0,-9,-9,-24,-29
-29,-34,-4,31,-12,-19,24,0,-9,-9,-29,-29
-29,-29,0,29,-14,-14,24,0,-9,-9,-24,-29
-29,-29,0,29,-14,-14,19,0,-9,-9,-24,-29
-29,-29,0,29,-14,-14,14,0,-9,-9,-24,-29
-19,-29,-9,24,-4,-19,14,-4,-9,-4,-19,-29
-19,-29,-9,24,-4,-19,14,-4,-9,-4,-14,-29
-19,-29,-9,24,-4,-19,9,-9,-9,-4,-14,-29
-14,-29,-14,21,0,-21,0,-9,-9,-9,-14,-29
-14,-29,-14,21,0,-21,0,-9,-9,-9,-14,-29
-14,-29,-14,21,0,-21,0,-14,-9,-9,-14,-29
-14,-29,-14,21,0,-21,4,-14,-14,-9,-19,-24
-14,-29,-14,21,0,-21,4,-19,-14,-9,-24,-24
-14,-29,-14,21,0,-21,4,-19,-14,-9,-29,-29
-19,-29,-9,24,-4,-19,4,-19,-14,-9,-29,-29
-19,-34,-14,26,-2,-24,0,-24,-19,-14,-29,-29
-19,-34,-14,26,-2,-24,-4,-24,-24,-14,-29,-29
-19,-34,-14,26,-2,-24,-4,-24,-24,-14,-29,-29
-14,-34,-19,24,2,-26,-4,-29,-24,-14,-29,-29
-14,-34,-19,24,2,-26,0,-29,-19,-14,-29,-29
-14,-34,-19,24,2,-26,0,-29,-19,-19,-34,-34
-14,-34,-19,24,2,-26,0,-29,-19,-19,-34,-34
-19,-34,-14,26,-2,-24,0,-29,-19,-19,-34,-34
-19,-39,-19,29,0,-29,0,-34,-19,-24,-34,-39
-19,-39,-19,29,0,-29,0,-34,-19,-24,-29,-39
-24,-39,-14,31,-4,-26,0,-34,-24,-24,-29,-39
-24,-39,-14,31,-4,-26,4,-34,-24,-24,-29,-43
-24,-39,-14,31,-4,-26,4,-29,-24,-19,-29,-43
-24,-43,-19,34,-2,-31,4,-24,-24,-19,-29,-43
-29,-43,-14,36,-7,-29,4,-24,-29,-19,-34,-39
-29,-43,-14,36,-7,-29,4,-19,-34,-24,-34,-34
-24,-43,-19,34,-2,-31,4,-24,-34,-24,-34,-39
-24,-43,-19,34,-2,-31,4,-29,-34,-24,-34,-39
-24,-43,-19,34,-2,-31,4,-29,-34,-24,-39,-39
-24,-48,-24,36,0,-36,4,-29,-34,-24,-39,-39
-34,-53,-19,43,-7,-36,4,-29,-34,-29,-39,-39
-34,-58,-24,46,-4,-41,4,-29,-34,-29,-39,-39
-34,-58,-24,46,-4,-41,4,-29,-34,-29,-39,-43
-34,-58,-24,46,-4,-41,4,-29,-34,-29,-39,-43
-29,-58,-29,43,0,-43,4,-29,-34,-29,-39,-43
-29,-58,-29,43,0,-43,4,-29,-34,-29,-39,-48
-29,-58,-29,43,0,-43,4,-29,-34,-29,-39,-48
-34,-58,-24,46,-4,-41,4,-29,-34,-24,-39,-48
-34,-58,-24,46,-4,-41,4,-29,-34,-24,-39,-48
-34,-58,-24,46,-4,-41,4,-29,-34,-24,-39,-53
-34,-58,-24,46,-4,-41,4,-29,-34,-24,-39,-53
-34,-58,-24,46,-4,-41,4,-29,-34,-24,-43,-53
-39,-58,-19,48,-9,-39,4,-29,-29,-24,-43,-48
-39,-58,-19,48,-9,-39,4,-29,-24,-24,-43,-43
-39,-58,-19,48,-9,-39,4,-29,-24,-24,-43,-48
-34,-58,-24,46,-4,-41,4,-29,-29,-24,-43,-48
-34,-58,-24,46,-4,-41,9,-29,-29,-24,-39,-53
-39,-58,-19,48,-9,-39,9,-29,-29,-24,-39,-58
-39,-58,-19,48,-9,-39,9,-29,-29,-29,-43,-53
-39,-58,-19,48,-9,-39,9,-29,-29,-29,-43,-53
-39,-58,-19,48,-9,-39,4,-29,-34,-29,-43,-53
-39,-58,-19,48,-9,-39,4,-29,-39,-24,-48,-53
-39,-58,-19,48,-9,-39,4,-29,-39,-24,-48,-53
-39,-58,-19,48,-9,-39,4,-29,-39,-24,-43,-53
-39,-58,-19,48,-9,-39,4,-29,-34,-24,-43,-53
-39,-58,-19,48,-9,-39,4,-29,-34,-29,-43,-53
-39,-58,-19,48,-9,-39,4,-29,-34,-29,-43,-48
-43,-58,-14,51,-14,-36,4,-29,-29,-24,-43,-43
-43,-58,-14,51,-14,-36,4,-29,-29,-24,-43,-48
-43,-58,-14,51,-14,-36,4,-29,-29,-24,-43,-48
-43,-58,-14,51,-14,-36,4,-29,-34,-19,-48,-48
-39,-58,-19,48,-9,-39,4,-29,-34,-19,-48,-48
-39,-58,-19,48,-9,-39,4,-29,-34,-24,-43,-48
-39,-58,-19,48,-9,-39,4,-29,-34,-24,-43,-43
-39,-53,-14,46,-12,-34,4,-29,-34,-29,-48,-48
-39,-53,-14,46,-12,-34,4,-29,-29,-24,-53,-53
-39,-48,-9,43,-14,-29,4,-24,-29,-19,-43,-48
-43,-48,-4,46,-19,-26,9,-19,-34,-19,-39,-48
-34,-53,-19,43,-7,-36,4,-19,-29,-24,-39,-48
-29,-58,-29,43,0,-43,0,-19,-29,-29,-39,-48
-29,-58,-29,43,0,-43,0,-19,-29,-29,-43,-48
-29,-58,-29,43,0,-43,0,-19,-29,-29,-48,-48
-34,-58,-24,46,-4,-41,4,-19,-29,-29,-48,-48
-39,-58,-19,48,-9,-39,9,-19,-29,-29,-48,-48
-39,-58,-19,48,-9,-39,9,-19,-29,-29,-48,-48
-39,-58,-19,48,-9,-39,9,-19,-29,-29,-48,-48
-39,-58,-19,48,-9,-39,9,-19,-29,-29,-48,-48
-39,-58,-19,48,-9,-39,9,-19,-29,-29,-48,-48
-39,-58,-19,48,-9,-39,9,-19,-29,-29,-48,-48
-39,-58,-19,48,-9,-39,9,-19,-29,-29,-48,-48
-39,-58,-19,48,-9,-39,9,-24,-29,-24,-48,-48
-39,-58,-19,48,-9,-39,9,-29,-29,-19,-48,-48
-39,-58,-19,48,-9,-39,9,-29,-29,-19,-43,-48
-39,-58,-19,48,-9,-39,9,-29,-29,-19,-39,-48
-39,-53,-14,46,-12,-34,9,-24,-29,-19,-39,-48
-39,-48,-9,43,-14,-29,9,-19,-29,-19,-39,-48
-39,-39,0,39,-19,-19,14,-14,-24,-14,-34,-43
-39,-29,9,34,-24,-9,19,-9,-19,-9,-29,-39
-29,-9,19,19,-24,4,29,4,-4,0,-19,-34
-19,9,29,4,-24,19,39,19,9,9,-9,-29
-9,14,24,-2,-17,19,48,29,19,14,-4,-24
0,19,19,-9,-9,19,58,34,29,19,0,-14
4,24,19,-14,-7,21,68,43,39,29,9,-9
4,29,24,-17,-9,26,73,53,48,39,14,-4
4,39,34,-21,-14,36,82,68,53,39,14,0
19,48,29,-34,-4,39,87,82,68,53,24,19
29,68,39,-48,-4,53,82,82,78,63,34,24
29,78,48,-53,-9,63,78,73,82,73,43,34
39,92,53,-65,-7,73,48,58,82,78,48,39
53,102,48,-78,2,75,9,34,82,78,53,43
63,112,48,-87,7,80,-19,19,73,78,53,43
87,117,29,-102,29,73,-43,4,63,78,53,43
102,126,24,-114,39,75,-53,4,63,78,53,43
107,122,14,-114,46,68,-53,4,58,73,48,43
107,92,-14,-100,61,39,-48,4,43,63,48,39
97,73,-24,-85,61,24,-39,4,39,58,43,29
87,63,-24,-75,56,19,-29,4,39,53,43,24
87,48,-39,-68,63,4,-24,9,39,48,29,19
58,39,-19,-48,39,9,-9,14,39,48,29,19
34,34,0,-34,17,17,-4,14,29,43,19,9
14,9,-4,-12,9,2,-4,4,14,29,4,-9
0,-9,-9,4,4,-9,-4,0,0,9,-9,-19
-9,-24,-14,17,2,-19,-4,-9,-9,0,-19,-29
-19,-43,-24,31,2,-34,-4,-19,-19,-14,-34,-39
-29,-58,-29,43,0,-43,-9,-24,-39,-24,-43,-48
-43,-68,-24,56,-9,-46,-9,-29,-43,-24,-43,-53
-48,-68,-19,58,-14,-43,-9,-29,-43,-24,-43,-53
-48,-68,-19,58,-14,-43,-4,-29,-43,-24,-48,-53
-53,-73,-19,63,-17,-46,-4,-29,-48,-29,-53,-58
-53,-78,-24,65,-14,-51,-4,-29,-48,-29,-58,-58
-53,-78,-24,65,-14,-51,0,-29,-43,-29,-58,-58
-58,-82,-24,70,-17,-53,4,-29,-39,-34,-63,-58
-58,-78,-19,68,-19,-48,9,-29,-39,-34,-63,-63
-63,-73,-9,68,-26,-41,14,-24,-39,-29,-58,-63
-63,-73,-9,68,-26,-41,14,-24,-39,-29,-58,-63
-63,-73,-9,68,-26,-41,14,-24,-34,-29,-58,-63
-63,-78,-14,70,-24,-46,19,-24,-39,-34,-58,-63
-63,-87,-24,75,-19,-56,19,-19,-43,-34,-58,-63
-73,-92,-19,82,-26,-56,34,14,-29,-24,-53,-68
-82,-92,-9,87,-36,-51,53,87,43,19,-24,-68
-97,-63,34,80,-65,-14,97,195,146,107,24,-43
-117,-19,97,68,-107,39,141,283,297,239,117,14
-102,14,117,43,-109,65,195,405,492,405,239,87
9,58,48,-34,-19,53,190,527,697,605,414,200
170,117,-53,-143,112,31,122,492,771,732,561,302
307,258,-48,-283,178,104,9,346,751,795,678,424
239,312,73,-275,82,192,-58,-165,390,497,502,385
-87,43,131,21,-109,87,-87,-893,-424,-263,-112,-4
-448,-102,346,275,-397,122,-283,-1917,-1288,-956,-624,-258
-600,-204,395,402,-497,95,-351,-2230,-1605,-1200,-839,-380
-556,-356,200,456,-378,-78,-409,-2108,-1551,-1171,-863,-444
-522,-507,14,514,-268,-246,-458,-1908,-1507,-1185,-902,-541
-507,-488,19,497,-263,-234,-478,-1625,-1317,-1058,-824,-522
-468,-483,-14,475,-226,-248,-414,-1312,-1098,-917,-736,-507
-341,-405,-63,373,-139,-234,-312,-956,-800,-673,-561,-390
-195,-258,-63,226,-65,-161,-204,-585,-468,-385,-322,-219
-97,-151,-53,124,-21,-102,-97,-297,-244,-200,-185,-126
-68,-102,-34,85,-17,-68,-34,-117,-122,-117,-126,-87
-58,-92,-34,75,-12,-63,0,-68,-82,-78,-87,-73
-58,-73,-14,65,-21,-43,19,-53,-53,-39,-58,-53
-53,-63,-9,58,-21,-36,19,-39,-43,-34,-48,-53
-53,-58,-4,56,-24,-31,19,-14,-39,-34,-48,-63
-53,-58,-4,56,-24,-31,29,9,-24,-24,-48,-63
-53,-58,-4,56,-24,-31,34,19,-14,-14,-43,-53
-48,-53,-4,51,-21,-29,39,24,-4,-4,-34,-48
-43,-53,-9,48,-17,-31,39,34,0,-4,-34,-48
-48,-53,-4,51,-21,-29,34,43,0,-4,-29,-53
-48,-48,0,48,-24,-24,29,43,0,-4,-29,-53
-43,-48,-4,46,-19,-26,29,48,4,0,-24,-43
-39,-43,-4,41,-17,-24,34,48,9,4,-24,-43
-34,-43,-9,39,-12,-26,34,53,9,4,-24,-43
-34,-43,-9,39,-12,-26,34,58,14,9,-24,-43
-34,-43,-9,39,-12,-26,39,63,19,9,-24,-39
-29,-43,-14,36,-7,-29,39,63,19,14,-29,-39
-34,-48,-14,41,-9,-31,39,68,19,9,-24,-39
-39,-53,-14,46,-12,-34,39,73,24,4,-24,-39
-39,-53,-14,46,-12,-34,39,78,24,9,-24,-39
-34,-48,-14,41,-9,-31,39,78,24,9,-24,-34
-24,-48,-24,36,0,-36,39,87,24,9,-19,-34
-19,-43,-24,31,2,-34,39,87,24,14,-19,-29
-19,-43,-24,31,2,-34,39,92,24,19,-14,-29
-14,-39,-24,26,4,-31,39,92,29,19,-14,-29
-9,-39,-29,24,9,-34,39,102,34,24,-9,-29
-4,-39,-34,21,14,-36,39,107,39,24,-4,-24
-4,-39,-34,21,14,-36,39,112,48,29,0,-24
-4,-29,-24,17,9,-26,39,117,53,34,4,-19
-4,-24,-19,14,7,-21,39,126,58,39,9,-14
0,-19,-19,9,9,-19,39,131,58,39,14,-14
0,-14,-14,7,7,-14,39,141,63,43,14,-14
4,-14,-19,4,12,-17,39,151,73,53,19,-14
4,-14,-19,4,12,-17,39,156,78,53,19,-9
9,-14,-24,2,17,-19,39,165,87,63,19,-4
9,-9,-19,0,14,-14,43,175,92,68,24,0
19,0,-19,-9,19,-9,43,185,97,78,34,0
24,4,-19,-14,21,-7,43,195,107,82,39,9
24,14,-9,-19,17,2,43,209,117,92,48,19
34,14,-19,-24,26,-2,43,224,122,97,53,24
43,24,-19,-34,31,2,39,234,126,97,58,24
43,34,-9,-39,26,12,39,248,136,107,68,29
58,39,-19,-48,39,9,43,273,151,117,78,39
58,53,-4,-56,31,24,43,287,161,131,87,48
63,68,4,-65,29,36,53,302,175,141,92,58
78,82,4,-80,36,43,48,322,190,156,107,68
87,92,4,-90,41,48,43,336,204,165,117,78
92,107,14,-100,39,61,43,351,214,180,126,87
107,122,14,-114,46,68,43,366,229,190,141,97
112,136,24,-124,43,80,43,375,239,204,161,112
122,151,29,-136,46,90,43,385,248,214,170,126
126,165,39,-146,43,102,39,385,258,224,180,136
141,180,39,-161,51,109,34,385,268,234,190,146
151,195,43,-173,53,119,24,375,268,239,200,156
156,204,48,-180,53,126,19,370,268,239,204,165
165,219,53,-192,56,136,14,356,268,244,209,175
175,229,53,-202,61,141,4,341,268,244,219,185
190,239,48,-214,70,143,-4,322,263,248,219,185
195,239,43,-217,75,141,-14,297,253,248,219,190
209,248,39,-229,85,143,-24,268,244,244,219,190
209,253,43,-231,82,148,-34,244,224,229,219,190
209,253,43,-231,82,148,-53,204,204,219,214,190
209,248,39,-229,85,143,-63,165,195,209,209,190
209,244,34,-226,87,139,-73,131,175,195,200,185
204,229,24,-217,90,126,-82,92,146,180,185,170
195,219,24,-207,85,122,-87,53,136,165,175,165
180,209,29,-195,75,119,-92,14,112,156,151,151
170,195,24,-183,73,109,-87,-9,87,141,141,131
156,185,29,-170,63,107,-87,-29,68,122,122,122
146,165,19,-156,63,92,-87,-53,48,102,112,117
136,146,9,-141,63,78,-87,-63,39,87,97,107
117,136,19,-126,48,78,-82,-63,39,78,87,82
107,122,14,-114,46,68,-73,-68,29,63,73,73
92,102,9,-97,41,56,-68,-78,14,48,58,58
78,87,9,-82,34,48,-58,-78,14,39,43,48
63,73,9,-68,26,41,-48,-78,4,34,34,39
48,63,14,-56,17,39,-43,-68,0,19,24,24
29,48,19,-39,4,34,-34,-58,-9,9,14,9
24,39,14,-31,4,26,-29,-48,-9,4,4,-4
14,19,4,-17,4,12,-24,-39,-9,4,-4,-14
9,4,-4,-7,7,0,-14,-29,-14,-9,-14,-19
-4,-4,0,4,-2,-2,-4,-19,-19,-9,-29,-19
-4,-9,-4,7,0,-7,0,-9,-19,-9,-29,-24
-4,-14,-9,9,2,-12,4,-14,-14,-9,-24,-24
-4,-14,-9,9,2,-12,4,-19,-14,-9,-24,-29
-14,-14,0,14,-7,-7,9,-4,-14,-9,-24,-29
-19,-19,0,19,-9,-9,9,0,-14,-14,-24,-34
-19,-24,-4,21,-7,-14,14,4,-19,-14,-34,-34
-19,-24,-4,21,-7,-14,19,9,-19,-14,-34,-34
-24,-19,4,21,-14,-7,19,14,-14,-14,-29,-34
-29,-19,9,24,-19,-4,19,14,-14,-14,-29,-34
-29,-14,14,21,-21,0,19,9,-14,-14,-24,-34
-29,-9,19,19,-24,4,14,9,-14,-14,-24,-34
-29,-9,19,19,-24,4,14,9,-4,-14,-24,-34
-29,-9,19,19,-24,4,14,9,-4,-14,-24,-34
-29,-14,14,21,-21,0,9,14,-4,-14,-24,-34
-29,-19,9,24,-19,-4,9,19,-14,-14,-24,-34
-29,-14,14,21,-21,0,9,14,-14,-14,-24,-34
-29,-14,14,21,-21,0,9,14,-9,-14,-24,-34
-24,-14,9,19,-17,-2,9,14,-9,-9,-24,-34
-24,-14,9,19,-17,-2,9,9,-9,-9,-24,-29
-29,-14,14,21,-21,0,4,4,-9,-9,-29,-29
-29,-14,14,21,-21,0,4,0,-9,-9,-34,-29
-29,-9,19,19,-24,4,9,0,-9,-9,-24,-29
-29,-9,19,19,-24,4,9,0,-9,-9,-24,-29
-29,-9,19,19,-24,4,4,4,-9,-9,-24,-29
-19,-9,9,14,-14,0,4,4,-9,-4,-24,-29
-19,-9,9,14,-14,0,0,4,-4,-4,-19,-24
-19,-9,9,14,-14,0,-4,0,0,-4,-14,-19
-14,-9,4,12,-9,-2,-9,0,0,-4,-14,-19
-14,-9,4,12,-9,-2,-9,0,0,0,-14,-19
-14,-9,4,12,-9,-2,-9,-4,0,0,-14,-19
-14,-9,4,12,-9,-2,-9,-4,-4,0,-14,-14
-14,-14,0,14,-7,-7,-14,-9,-4,-4,-14,-14
-14,-19,-4,17,-4,-12,-14,-9,-4,-9,-19,-19
-19,-19,0,19,-9,-9,-14,-9,-4,-9,-19,-19
-19,-24,-4,21,-7,-14,-14,-14,-4,-14,-19,-19
-19,-19,0,19,-9,-9,-14,-14,-4,-14,-19,-19
-19,-14,4,17,-12,-4,-14,-14,-4,-14,-19,-19
-24,-14,9,19,-17,-2,-9,-19,-9,-14,-19,-19
-34,-14,19,24,-26,2,-4,-19,-14,-14,-19,-19
-34,-14,19,24,-26,2,-9,-19,-19,-19,-24,-24
-34,-14,19,24,-26,2,-9,-19,-19,-19,-24,-24
-29,-14,14,21,-21,0,-9,-19,-14,-14,-24,-24
-19,-19,0,19,-9,-9,-9,-24,-9,-19,-29,-29
-19,-24,-4,21,-7,-14,-9,-24,-9,-24,-29,-29
-24,-29,-4,26,-9,-17,-9,-24,-14,-24,-29,-29
-24,-29,-4,26,-9,-17,-9,-24,-14,-29,-29,-34
-24,-29,-4,26,-9,-17,-14,-24,-14,-29,-29,-34
-24,-34,-9,29,-7,-21,-14,-24,-14,-29,-29,-34
-29,-34,-4,31,-12,-19,-14,-24,-19,-29,-34,-34
-34,-34,0,34,-17,-17,-9,-19,-29,-34,-34,-34
-34,-34,0,34,-17,-17,-4,-19,-34,-34,-34,-39
-34,-34,0,34,-17,-17,-4,-19,-34,-34,-34,-39
-34,-34,0,34,-17,-17,-4,-19,-34,-34,-39,-39
-29,-29,0,29,-14,-14,-9,-19,-34,-34,-39,-39
-34,-19,14,26,-24,-2,-14,-19,-34,-39,-39,-39
-34,-19,14,26,-24,-2,-14,-19,-34,-39,-39,-39
-34,-19,14,26,-24,-2,-14,-19,-34,-39,-39,-39
-34,-19,14,26,-24,-2,-14,-19,-29,-34,-39,-34
-29,-19,9,24,-19,-4,-14,-19,-24,-29,-39,-34
-29,-24,4,26,-17,-9,-14,-19,-24,-29,-43,-39
-29,-29,0,29,-14,-14,-14,-19,-24,-34,-48,-39
-34,-29,4,31,-19,-12,-14,-19,-24,-39,-48,-39
-34,-29,4,31,-19,-12,-14,-19,-24,-43,-48,-39
-34,-29,4,31,-19,-12,-14,-19,-29,-43,-43,-43
-34,-29,4,31,-19,-12,-14,-19,-34,-43,-39,-43
-34,-29,4,31,-19,-12,-14,-19,-34,-43,-43,-43
-39,-29,9,34,-24,-9,-14,-19,-34,-43,-43,-43
-39,-29,9,34,-24,-9,-14,-19,-34,-43,-43,-43
-39,-29,9,34,-24,-9,-14,-19,-34,-43,-43,-48
-34,-29,4,31,-19,-12,-14,-19,-39,-43,-43,-43
-34,-29,4,31,-19,-12,-9,-19,-39,-43,-39,-39
-39,-29,9,34,-24,-9,-9,-19,-39,-43,-39,-39
-39,-29,9,34,-24,-9,-9,-19,-39,-48,-43,-34
-39,-29,9,34,-24,-9,-9,-19,-39,-48,-43,-39
-39,-29,9,34,-24,-9,-14,-19,-39,-48,-43,-43
-39,-29,9,34,-24,-9,-14,-19,-39,-43,-48,-43
-39,-29,9,34,-24,-9,-14,-19,-39,-43,-48,-43
-39,-29,9,34,-24,-9,-14,-19,-39,-43,-43,-43
-39,-29,9,34,-24,-9,-14,-19,-34,-43,-43,-43
-39,-29,9,34,-24,-9,-14,-19,-34,-48,-43,-43
-39,-29,9,34,-24,-9,-14,-19,-39,-48,-43,-43
-43,-29,14,36,-29,-7,-14,-19,-39,-48,-43,-43
-43,-29,14,36,-29,-7,-14,-19,-39,-53,-43,-48
-43,-29,14,36,-29,-7,-14,-19,-39,-53,-43,-48
-43,-29,14,36,-29,-7,-14,-19,-39,-48,-48,-48
-34,-29,4,31,-19,-12,-14,-14,-29,-43,-48,-48
-29,-29,0,29,-14,-14,-14,-9,-24,-43,-43,-48
-29,-29,0,29,-14,-14,-14,-9,-24,-43,-43,-43
-29,-24,4,26,-17,-9,-14,-9,-24,-48,-43,-43
-34,-24,9,29,-21,-7,-14,-9,-24,-53,-43,-43
-39,-24,14,31,-26,-4,-14,-9,-19,-53,-43,-43
-39,-24,14,31,-26,-4,-9,-9,-24,-48,-39,-39
-39,-29,9,34,-24,-9,-9,-9,-29,-48,-39,-39
-39,-29,9,34,-24,-9,-9,-9,-29,-48,-39,-39
-39,-29,9,34,-24,-9,-9,-9,-29,-48,-39,-39
-39,-29,9,34,-24,-9,-9,-9,-29,-48,-39,-39
-39,-29,9,34,-24,-9,-9,-9,-29,-48,-39,-39
-39,-24,14,31,-26,-4,-9,-9,-29,-48,-39,-39
-39,-19,19,29,-29,0,-9,-9,-29,-48,-39,-39
-29,-9,19,19,-24,4,-4,0,-24,-43,-34,-34
-19,0,19,9,-19,9,0,9,-19,-39,-29,-29
-14,14,29,0,-21,21,9,14,-9,-34,-24,-19
-4,24,29,-9,-17,26,19,19,0,-24,-14,-9
0,39,39,-19,-19,39,29,29,9,-14,-9,-4
4,43,39,-24,-17,41,39,34,19,-9,0,0
0,48,48,-24,-24,48,43,43,29,0,4,4
-4,58,63,-26,-34,61,48,53,34,0,4,4
9,68,58,-39,-24,63,53,73,48,14,14,19
19,87,68,-53,-24,78,53,82,58,24,24,24
19,97,78,-58,-29,87,63,78,68,43,39,34
29,112,82,-70,-26,97,48,68,73,58,48,43
43,126,82,-85,-19,104,9,43,73,58,53,53
53,136,82,-95,-14,109,-14,34,63,53,53,53
82,136,53,-109,14,95,-48,19,53,43,53,53
97,136,39,-117,29,87,-73,14,53,39,53,53
97,122,24,-109,36,73,-78,14,48,34,48,58
92,102,9,-97,41,56,-78,14,39,29,48,58
82,92,9,-87,36,51,-68,14,39,29,48,53
78,82,4,-80,36,43,-58,14,39,24,53,53
82,73,-9,-78,46,31,-53,19,43,24,43,48
63,68,4,-65,29,36,-39,24,48,29,48,48
43,63,19,-53,12,41,-29,29,39,24,39,39
24,39,14,-31,4,26,-24,24,24,9,24,19
9,19,9,-14,0,14,-24,19,4,-14,4,9
0,4,4,-2,-2,4,-24,9,-9,-29,-9,0
-9,-19,-9,14,0,-14,-24,0,-19,-48,-24,-14
-14,-34,-19,24,2,-26,-24,0,-34,-63,-34,-29
-29,-43,-14,36,-7,-29,-19,0,-34,-63,-39,-34
-39,-48,-9,43,-14,-29,-19,0,-34,-63,-43,-34
-39,-48,-9,43,-14,-29,-14,0,-34,-63,-48,-34
-43,-53,-9,48,-17,-31,-14,0,-39,-68,-48,-39
-43,-58,-14,51,-14,-36,-14,0,-39,-68,-48,-39
-43,-58,-14,51,-14,-36,-9,0,-39,-68,-48,-39
-48,-63,-14,56,-17,-39,-4,0,-39,-68,-53,-39
-48,-63,-14,56,-17,-39,-4,0,-39,-63,-53,-43
-48,-63,-14,56,-17,-39,-4,4,-39,-58,-48,-43
-43,-63,-19,53,-12,-41,-4,4,-39,-58,-48,-43
-43,-63,-19,53,-12,-41,-4,4,-39,-63,-48,-43
-43,-63,-19,53,-12,-41,0,4,-43,-68,-48,-43
-43,-73,-29,58,-7,-51,-4,-9,-63,-82,-58,-43
-53,-78,-24,65,-14,-51,9,4,-58,-87,-63,-43
-48,-82,-34,65,-7,-58,14,58,-4,-58,-48,-58
-48,-58,-9,53,-19,-34,39,141,87,24,-4,-43
-102,-19,82,61,-92,31,102,224,239,146,68,4
-122,19,141,51,-131,80,161,307,405,297,175,68
-29,58,87,-14,-58,73,175,478,683,561,390,190
87,97,9,-92,39,53,136,483,790,707,541,292
307,356,48,-331,129,202,39,546,1005,1019,878,580
361,488,126,-424,117,307,-43,292,863,941,893,668
48,180,131,-114,-41,156,-68,-458,-102,0,136,185
-283,9,292,136,-287,151,-204,-1376,-1010,-785,-448,-131
-497,-141,356,319,-427,107,-273,-1834,-1527,-1185,-780,-331
-546,-292,253,419,-400,-19,-346,-1966,-1673,-1302,-917,-439
-517,-522,-4,519,-256,-263,-444,-1839,-1673,-1381,-1015,-585
-497,-575,-78,536,-209,-326,-478,-1639,-1527,-1302,-985,-614
-483,-580,-97,531,-192,-339,-424,-1351,-1302,-1146,-897,-614
-400,-531,-131,466,-134,-331,-361,-1058,-1044,-936,-756,-536
-219,-322,-102,270,-58,-212,-244,-658,-624,-561,-434,-287
-97,-185,-87,141,-4,-136,-146,-356,-341,-317,-239,-136
-68,-126,-58,97,-4,-92,-68,-146,-185,-209,-161,-92
-39,-82,-43,61,2,-63,-19,-39,-92,-126,-87,-53
-34,-53,-19,43,-7,-36,-4,-34,-68,-92,-63,-29
-24,-39,-14,31,-4,-26,0,-19,-53,-82,-48,-24
-24,-39,-14,31,-4,-26,0,9,-48,-82,-48,-34
-24,-39,-14,31,-4,-26,9,34,-34,-73,-48,-34
-43,-43,0,43,-21,-21,19,39,-14,-53,-34,-14
-63,-43,19,53,-41,-12,29,43,4,-34,-14,0
-48,-48,0,48,-24,-24,29,53,9,-34,-14,0
-39,-53,-14,46,-12,-34,29,63,9,-34,-9,-4
-39,-48,-9,43,-14,-29,29,63,9,-39,-14,-4
-34,-48,-14,41,-9,-31,29,68,14,-39,-14,4
-34,-48,-14,41,-9,-31,34,68,19,-34,-14,4
-34,-53,-19,43,-7,-36,34,73,19,-34,-14,4
-34,-53,-19,43,-7,-36,29,78,24,-29,-14,4
-34,-53,-19,43,-7,-36,29,82,29,-29,-9,9
-24,-43,-19,34,-2,-31,29,82,29,-24,-4,9
-19,-34,-14,26,-2,-24,29,87,29,-24,4,9
-19,-34,-14,26,-2,-24,29,92,34,-24,4,9
-19,-34,-14,26,-2,-24,29,97,34,-19,4,9
-14,-29,-14,21,0,-21,29,97,34,-14,4,14
-9,-29,-19,19,4,-24,29,107,39,-9,9,14
-9,-24,-14,17,2,-19,29,107,43,-4,9,19
-9,-24,-14,17,2,-19,29,112,43,0,14,19
-4,-19,-14,12,4,-17,29,107,48,0,14,19
0,-19,-19,9,9,-19,29,112,53,4,14,19
4,-19,-24,7,14,-21,24,117,58,4,14,24
4,-19,-24,7,14,-21,19,122,68,9,19,24
4,-9,-14,2,9,-12,19,126,73,14,24,29
4,-9,-14,2,9,-12,19,136,78,19,29,34
9,-14,-24,2,17,-19,19,141,73,19,29,39
9,-14,-24,2,17,-19,19,151,73,24,24,43
14,-14,-29,0,21,-21,19,156,82,34,29,43
14,-9,-24,-2,19,-17,19,156,87,34,34,48
19,-4,-24,-7,21,-14,19,165,97,39,39,53
19,0,-19,-9,19,-9,24,175,102,39,43,58
29,9,-19,-19,24,-4,24,185,107,48,53,53
34,14,-19,-24,26,-2,24,195,117,53,58,58
29,24,-4,-26,17,9,24,204,126,63,68,68
29,24,-4,-26,17,9,29,214,136,73,73,73
34,34,0,-34,17,17,29,224,146,78,78,73
34,43,9,-39,12,26,29,239,156,87,87,78
53,48,-4,-51,29,21,34,263,170,97,97,87
58,58,0,-58,29,29,34,278,180,112,107,97
63,68,4,-65,29,36,39,292,190,122,112,107
73,82,9,-78,31,46,34,312,200,136,126,117
78,92,14,-85,31,53,34,326,214,146,141,126
82,107,24,-95,29,65,34,336,224,161,156,136
97,122,24,-109,36,73,34,346,244,175,170,146
102,136,34,-119,34,85,34,356,258,195,190,161
112,151,39,-131,36,95,39,366,268,204,200,180
117,165,48,-141,34,107,39,366,278,214,209,195
131,180,48,-156,41,114,39,370,292,224,219,204
141,195,53,-168,43,124,34,366,297,234,234,214
146,209,63,-178,41,136,29,366,297,239,248,224
156,229,73,-192,41,151,24,356,297,244,258,234
165,239,73,-202,46,156,9,341,302,248,273,248
175,248,73,-212,51,161,-4,322,302,258,278,253
175,248,73,-212,51,161,-14,302,292,258,278,258
190,258,68,-224,61,163,-24,273,283,253,278,263
190,263,73,-226,58,168,-34,248,263,239,278,268
190,263,73,-226,58,168,-53,214,244,229,273,268
190,258,68,-224,61,163,-63,175,234,219,268,268
190,253,63,-222,63,158,-73,146,214,204,258,263
185,244,58,-214,63,151,-82,112,185,190,244,248
180,239,58,-209,61,148,-87,78,170,170,234,244
175,229,53,-202,61,141,-92,39,141,156,204,229
170,209,39,-190,65,124,-92,14,117,141,190,209
156,195,39,-175,58,117,-97,0,97,122,170,200
146,175,29,-161,58,102,-97,-24,78,102,161,190
131,156,24,-143,53,90,-97,-39,63,82,146,175
107,141,34,-124,36,87,-92,-43,53,68,131,151
97,122,24,-109,36,73,-82,-48,39,48,112,136
82,102,19,-92,31,61,-78,-58,24,29,97,117
68,87,19,-78,24,53,-68,-58,24,19,78,107
58,73,14,-65,21,43,-58,-58,14,14,63,97
48,58,9,-53,19,34,-53,-48,9,0,53,82
29,39,9,-34,9,24,-43,-39,0,-9,43,73
24,29,4,-26,9,17,-39,-29,0,-14,29,63
14,14,0,-14,7,7,-34,-24,0,-14,14,53
9,4,-4,-7,7,0,-24,-19,-9,-34,4,39
-4,-4,0,4,-2,-2,-14,-9,-19,-39,-9,24
-4,-9,-4,7,0,-7,-4,0,-19,-39,-9,14
-4,-14,-9,9,2,-12,4,0,-14,-39,-4,14
-4,-19,-14,12,4,-17,4,0,-9,-39,-4,4
-14,-24,-9,19,-2,-17,9,14,-4,-39,-9,0
-19,-29,-9,24,-4,-19,9,24,-4,-43,-14,-4
-19,-34,-14,26,-2,-24,14,29,-9,-43,-24,-4
-19,-34,-14,26,-2,-24,19,29,-14,-43,-24,-4
-24,-34,-9,29,-7,-21,19,34,-14,-43,-19,-4
-24,-39,-14,31,-4,-26,14,34,-14,-43,-19,-4
-19,-39,-19,29,0,-29,14,34,-14,-43,-14,-4
-19,-39,-19,29,0,-29,14,39,-14,-43,-14,-4
-19,-39,-19,29,0,-29,14,39,-4,-43,-14,-4
-24,-39,-14,31,-4,-26,19,39,-4,-43,-14,-4
-29,-39,-9,34,-9,-24,19,39,-4,-43,-14,-4
-29,-39,-9,34,-9,-24,19,39,-14,-43,-14,-4
-29,-34,-4,31,-12,-19,19,34,-14,-43,-14,-4
-29,-34,-4,31,-12,-19,19,34,-9,-48,-14,-4
-24,-34,-9,29,-7,-21,19,34,-9,-48,-14,-4
-19,-34,-14,26,-2,-24,19,29,-4,-48,-14,0
-19,-34,-14,26,-2,-24,14,29,0,-48,-14,0
-19,-34,-14,26,-2,-24,14,29,0,-43,-14,0
-19,-29,-9,24,-4,-19,14,29,0,-39,-4,0
-19,-29,-9,24,-4,-19,9,29,0,-39,-4,0
-19,-29,-9,24,-4,-19,4,29,0,-39,-4,0
-9,-29,-19,19,4,-24,4,24,0,-34,-4,0
-9,-29,-19,19,4,-24,4,24,0,-34,-4,0
-14,-29,-14,21,0,-21,4,19,0,-34,-4,0
-14,-29,-14,21,0,-21,0,19,0,-39,-4,0
-14,-29,-14,21,0,-21,0,19,0,-39,-4,0
-14,-29,-14,21,0,-21,0,14,0,-39,-4,0
-14,-34,-19,24,2,-26,0,14,-4,-39,-4,4
-14,-39,-24,26,4,-31,-4,9,-4,-39,-4,4
-14,-39,-24,26,4,-31,-4,9,-4,-34,-9,0
-19,-39,-19,29,0,-29,-4,9,-4,-29,-9,0
-14,-43,-29,29,7,-36,-4,4,-4,-34,-9,0
-9,-43,-34,26,12,-39,-4,4,-4,-34,-9,0
-9,-43,-34,26,12,-39,-4,9,-4,-34,-9,0
-4,-43,-39,24,17,-41,-4,9,-4,-34,-9,0
-9,-43,-34,26,12,-39,-4,9,-4,-34,-9,0
-14,-43,-29,29,7,-36,-9,9,-9,-39,-14,-4
-14,-43,-29,29,7,-36,-9,4,-9,-34,-14,-4
-19,-43,-24,31,2,-34,-9,0,-9,-29,-14,-4
-19,-48,-29,34,4,-39,-9,-4,-14,-39,-24,-9
-19,-48,-29,34,4,-39,-9,-4,-19,-43,-29,-9
-24,-48,-24,36,0,-36,-9,-4,-24,-48,-29,-9
-24,-48,-24,36,0,-36,-4,-4,-24,-53,-29,-14
-24,-43,-19,34,-2,-31,-4,-4,-19,-48,-29,-19
-24,-43,-19,34,-2,-31,-4,-4,-14,-48,-29,-24
-29,-43,-14,36,-7,-29,-4,-9,-19,-48,-34,-24
-29,-43,-14,36,-7,-29,-4,-9,-24,-53,-34,-24
-24,-43,-19,34,-2,-31,-4,-9,-29,-53,-34,-29
-24,-43,-19,34,-2,-31,-4,-9,-34,-53,-34,-29
-24,-43,-19,34,-2,-31,0,-9,-34,-53,-39,-29
-24,-48,-24,36,0,-36,4,-9,-34,-53,-39,-29
-29,-48,-19,39,-4,-34,4,-9,-34,-58,-39,-29
-24,-48,-24,36,0,-36,4,-9,-34,-58,-39,-29
-24,-48,-24,36,0,-36,4,-9,-34,-58,-39,-29
-24,-48,-24,36,0,-36,4,-9,-34,-58,-39,-24
-24,-48,-24,36,0,-36,4,-9,-34,-58,-39,-24
-29,-48,-19,39,-4,-34,4,-9,-34,-58,-39,-29
-29,-48,-19,39,-4,-34,0,-9,-34,-63,-39,-29
-34,-48,-14,41,-9,-31,-4,-9,-34,-63,-39,-29
-34,-48,-14,41,-9,-31,-4,-9,-34,-63,-39,-29
-34,-48,-14,41,-9,-31,-4,-9,-34,-63,-39,-34
-34,-53,-19,43,-7,-36,-4,-9,-34,-63,-39,-34
-34,-58,-24,46,-4,-41,-4,-9,-34,-63,-43,-34
-39,-58,-19,48,-9,-39,-4,-9,-34,-63,-43,-34
-39,-58,-19,48,-9,-39,-4,-9,-34,-63,-43,-34
-39,-58,-19,48,-9,-39,-4,-9,-34,-63,-43,-39
-34,-58,-24,46,-4,-41,-4,-9,-39,-63,-43,-39
-34,-58,-24,46,-4,-41,0,-9,-39,-63,-39,-39
-39,-58,-19,48,-9,-39,0,-9,-39,-63,-39,-39
-39,-58,-19,48,-9,-39,4,-14,-39,-68,-43,-34
-39,-58,-19,48,-9,-39,9,-19,-39,-68,-43,-34
-39,-58,-19,48,-9,-39,4,-19,-39,-68,-43,-34
-39,-58,-19,48,-9,-39,4,-19,-39,-63,-48,-34
-34,-53,-19,43,-7,-36,4,-19,-39,-63,-48,-34
-29,-48,-19,39,-4,-34,4,-19,-39,-63,-43,-34
-29,-48,-19,39,-4,-34,4,-19,-34,-63,-43,-34
-29,-48,-19,39,-4,-34,4,-19,-34,-68,-43,-34
-29,-48,-19,39,-4,-34,4,-19,-39,-68,-43,-34
-34,-48,-14,41,-9,-31,4,-19,-39,-63,-43,-34
-34,-48,-14,41,-9,-31,4,-19,-39,-63,-48,-43
-34,-48,-14,41,-9,-31,4,-19,-39,-63,-53,-48
-39,-48,-9,43,-14,-29,4,-19,-43,-58,-58,-48
-39,-48,-9,43,-14,-29,4,-19,-43,-58,-58,-48
-39,-53,-14,46,-12,-34,4,-19,-43,-63,-53,-48
-39,-58,-19,48,-9,-39,4,-19,-43,-63,-53,-43
-43,-58,-14,51,-14,-36,4,-19,-43,-68,-53,-43
-48,-63,-14,56,-17,-39,4,-19,-39,-63,-53,-43
-39,-53,-14,46,-12,-34,9,-14,-34,-53,-43,-34
-34,-48,-14,41,-9,-31,19,-9,-34,-48,-39,-29
-24,-43,-19,34,-2,-31,24,-4,-24,-43,-34,-24
-19,-39,-19,29,0,-29,29,0,-19,-39,-29,-19
-19,-24,-4,21,-7,-14,29,0,-19,-34,-29,-19
-19,-9,9,14,-14,0,29,0,-19,-29,-29,-19
-14,0,14,7,-14,7,39,14,-9,-24,-24,-14
-9,4,14,2,-12,9,48,24,0,-14,-14,-4
-4,14,19,-4,-12,17,58,34,9,-9,-4,0
-4,19,24,-7,-14,21,63,43,19,0,4,4
-4,29,34,-12,-19,31,73,58,24,0,4,0
9,39,29,-24,-9,34,78,73,39,14,14,9
19,58,39,-39,-9,48,78,73,53,24,24,14
19,68,48,-43,-14,58,78,63,63,34,34,24
29,87,58,-58,-14,73,58,48,63,39,39,34
43,102,58,-73,-7,80,29,24,63,39,43,43
53,107,53,-80,0,80,-9,9,53,34,43,43
78,107,29,-92,24,68,-43,-4,43,29,43,43
92,112,19,-102,36,65,-58,-4,43,34,43,43
97,102,4,-100,46,53,-63,-4,39,34,39,43
97,82,-14,-90,56,34,-58,-4,29,29,43,43
87,73,-14,-80,51,29,-48,-4,29,29,43,39
78,63,-14,-70,46,24,-39,-4,29,24,43,34
78,48,-29,-63,53,9,-34,0,29,19,29,29
53,39,-14,-46,34,12,-19,9,34,24,34,29
34,34,0,-34,17,17,-14,14,29,24,29,19
14,9,-4,-12,9,2,-9,9,14,9,14,0
0,-9,-9,4,4,-9,-4,9,0,-9,0,-9
-9,-24,-14,17,2,-19,-4,0,-9,-19,-14,-19
-19,-43,-24,31,2,-34,-4,-9,-19,-34,-34,-29
-24,-53,-29,39,2,-41,-4,-14,-39,-48,-43,-39
-34,-58,-24,46,-4,-41,0,-19,-43,-53,-43,-43
-39,-58,-19,48,-9,-39,0,-19,-43,-53,-43,-43
-39,-58,-19,48,-9,-39,4,-19,-43,-53,-48,-43
-43,-68,-24,56,-9,-46,4,-19,-48,-58,-48,-53
-43,-78,-34,61,-4,-56,4,-19,-48,-58,-48,-58
-43,-78,-34,61,-4,-56,9,-19,-48,-58,-48,-58
-48,-82,-34,65,-7,-58,14,-19,-48,-63,-53,-58
-48,-82,-34,65,-7,-58,14,-24,-48,-63,-58,-63
-53,-82,-29,68,-12,-56,14,-24,-48,-58,-58,-63
-48,-82,-34,65,-7,-58,14,-24,-48,-58,-58,-63
-43,-82,-39,63,-2,-61,14,-24,-43,-58,-58,-63
-43,-82,-39,63,-2,-61,19,-29,-53,-63,-63,-63
-43,-87,-43,65,0,-65,19,-29,-63,-63,-68,-63
-53,-97,-43,75,-4,-70,24,-24,-73,-73,-78,-78
-63,-102,-39,82,-12,-70,34,19,-24,-48,-63,-87
-78,-73,4,75,-41,-34,78,122,73,24,-34,-73
-97,-29,68,63,-82,19,122,204,219,141,39,-24
-136,19,156,58,-146,87,190,322,444,336,175,48
-78,78,156,0,-117,117,200,439,678,566,366,161
97,136,39,-117,29,87,146,507,863,810,595,317
248,278,29,-263,109,153,48,463,956,990,795,492
346,424,78,-385,134,251,-53,141,746,839,771,556
185,248,63,-217,61,156,-117,-395,82,224,307,268
-253,29,283,112,-268,156,-326,-1615,-1102,-756,-409,-102
-483,-146,336,314,-409,95,-409,-2122,-1742,-1288,-829,-341
-458,-312,146,385,-302,-82,-483,-2078,-1717,-1278,-883,-419
-444,-478,-34,461,-204,-256,-546,-1956,-1703,-1312,-951,-531
-439,-478,-39,458,-200,-258,-566,-1683,-1503,-1180,-878,-527
-409,-492,-82,451,-163,-287,-502,-1381,-1273,-1034,-795,-527
-312,-424,-112,368,-100,-268,-375,-1039,-951,-780,-619,-424
-195,-287,-92,241,-51,-190,-244,-683,-595,-483,-380,-268
-87,-165,-78,126,-4,-122,-117,-361,-322,-253,-214,-156
-48,-102,-53,75,2,-78,-34,-146,-151,-126,-126,-97
-39,-92,-53,65,7,-73,4,-82,-102,-87,-87,-82
-39,-73,-34,56,-2,-53,29,-53,-63,-48,-58,-63
-34,-63,-29,48,-2,-46,29,-39,-53,-39,-48,-58
-34,-58,-24,46,-4,-41,29,-14,-48,-34,-48,-63
-34,-58,-24,46,-4,-41,39,9,-29,-24,-48,-63
-34,-58,-24,46,-4,-41,43,19,-14,-14,-43,-53
-29,-53,-24,41,-2,-39,43,24,-4,-4,-34,-48
-24,-53,-29,39,2,-41,39,34,0,-4,-34,-48
-29,-58,-29,43,0,-43,39,43,0,-4,-29,-53
-29,-58,-29,43,0,-43,39,43,0,-4,-29,-53
-24,-58,-34,41,4,-46,39,48,4,0,-24,-43
-19,-53,-34,36,7,-43,43,48,9,4,-24,-43
-14,-53,-39,34,12,-46,48,53,9,4,-24,-43
-14,-53,-39,34,12,-46,53,58,14,9,-24,-43
-14,-48,-34,31,9,-41,58,63,19,9,-19,-39
-9,-43,-34,26,12,-39,58,63,19,14,-19,-39
-9,-43,-34,26,12,-39,58,68,19,14,-14,-39
-9,-43,-34,26,12,-39,58,73,24,14,-14,-39
-9,-43,-34,26,12,-39,58,78,24,19,-19,-43
-4,-39,-34,21,14,-36,58,78,24,19,-24,-43
0,-39,-39,19,19,-39,58,87,29,19,-19,-43
0,-34,-34,17,17,-34,58,87,34,24,-19,-39
-4,-39,-34,21,14,-36,58,87,34,29,-9,-39
-4,-39,-34,21,14,-36,58,82,39,29,-4,-39
0,-39,-39,19,19,-39,58,92,39,34,-4,-39
4,-39,-43,17,24,-41,58,97,39,34,-4,-34
4,-34,-39,14,21,-36,58,102,48,43,0,-34
4,-19,-24,7,14,-21,58,107,53,53,4,-29
4,-19,-24,7,14,-21,58,117,63,58,9,-19
9,-19,-29,4,19,-24,58,122,68,58,14,-14
9,-19,-29,4,19,-24,58,131,73,63,14,-14
14,-24,-39,4,26,-31,58,141,82,73,19,-14
14,-19,-34,2,24,-26,58,146,87,73,24,-14
19,-14,-34,-2,26,-24,58,156,97,82,29,-14
19,-9,-29,-4,24,-19,63,165,102,87,34,-9
29,0,-29,-14,29,-14,63,175,107,97,43,-9
34,4,-29,-19,31,-12,63,190,117,102,48,0
34,14,-19,-24,26,-2,63,209,126,112,58,9
39,14,-24,-26,31,-4,68,224,136,122,63,14
43,24,-19,-34,31,2,68,234,146,126,68,14
43,34,-9,-39,26,12,68,244,156,136,78,19
58,39,-19,-48,39,9,73,263,170,146,87,29
58,48,-9,-53,34,19,73,278,180,161,97,39
63,58,-4,-61,34,26,82,292,195,170,102,48
68,73,4,-70,31,39,82,312,209,185,117,58
68,82,14,-75,26,48,82,326,224,195,126,68
73,97,24,-85,24,61,82,336,234,209,136,78
87,112,24,-100,31,68,82,346,248,219,151,87
97,126,29,-112,34,78,82,361,258,234,170,102
112,141,29,-126,41,85,82,375,268,244,180,117
117,156,39,-136,39,97,82,375,283,253,190,126
131,170,39,-151,46,104,82,375,297,263,200,136
141,185,43,-163,48,114,73,370,297,278,214,146
146,195,48,-170,48,122,68,370,297,287,224,156
151,209,58,-180,46,134,63,356,297,292,229,165
156,219,63,-187,46,141,53,341,297,292,239,175
165,229,63,-197,51,146,43,322,292,297,239,175
165,229,63,-197,51,146,34,297,283,297,239,180
185,239,53,-212,65,146,24,268,273,292,239,185
190,244,53,-217,68,148,14,244,253,278,239,190
190,248,58,-219,65,153,-9,204,234,268,234,190
190,248,58,-219,65,153,-24,165,224,258,229,190
190,244,53,-217,68,148,-34,131,204,244,219,190
185,229,43,-207,70,136,-43,92,175,229,204,180
180,219,39,-200,70,129,-53,58,161,209,195,175
170,209,39,-190,65,124,-63,24,131,195,170,161
165,190,24,-178,70,107,-63,4,107,180,161,136
156,175,19,-165,68,97,-68,-9,87,161,141,122
146,156,9,-151,68,82,-68,-39,63,136,126,112
136,136,0,-136,68,68,-68,-53,48,117,107,97
117,122,4,-119,56,63,-68,-53,43,107,92,73
107,102,-4,-104,56,48,-63,-58,29,92,73,63
97,82,-14,-90,56,34,-63,-68,14,78,58,48
87,68,-19,-78,53,24,-58,-68,14,68,43,39
78,48,-29,-63,53,9,-48,-73,4,63,34,29
68,34,-34,-51,51,0,-43,-68,0,48,24,14
43,19,-24,-31,34,-2,-34,-58,-14,34,14,4
34,9,-24,-21,29,-7,-29,-48,-19,24,4,-4
24,-4,-29,-9,26,-17,-24,-43,-19,24,-4,-14
19,-14,-34,-2,26,-24,-14,-39,-24,9,-14,-19
4,-24,-29,9,17,-26,-4,-29,-34,4,-29,-29
4,-29,-34,12,19,-31,0,-19,-39,0,-29,-43
0,-34,-34,17,17,-34,4,-19,-34,0,-24,-43
-4,-34,-29,19,12,-31,4,-19,-34,0,-24,-48
-14,-34,-19,24,2,-26,9,-4,-34,0,-29,-48
-19,-39,-19,29,0,-29,9,0,-34,-4,-34,-53
-19,-43,-24,31,2,-34,14,0,-39,-4,-43,-53
-19,-43,-24,31,2,-34,19,0,-39,-4,-43,-53
-19,-43,-24,31,2,-34,19,4,-34,-4,-43,-53
-19,-48,-29,34,4,-39,19,4,-34,-4,-48,-53
-19,-48,-29,34,4,-39,24,4,-34,-4,-43,-53
-19,-48,-29,34,4,-39,24,9,-34,-4,-43,-53
-19,-48,-29,34,4,-39,29,14,-24,-4,-39,-53
-19,-48,-29,34,4,-39,34,19,-24,-4,-34,-53
-19,-48,-29,34,4,-39,29,19,-24,-4,-34,-48
-19,-48,-29,34,4,-39,29,19,-34,-4,-34,-43
-19,-43,-24,31,2,-34,29,14,-34,-4,-34,-43
-19,-43,-24,31,2,-34,29,14,-29,-4,-34,-43
-14,-43,-29,29,7,-36,29,19,-24,0,-34,-43
-14,-43,-29,29,7,-36,29,19,-19,0,-34,-39
-19,-43,-24,31,2,-34,24,19,-19,0,-34,-39
-19,-43,-24,31,2,-34,24,19,-19,0,-34,-39
-19,-39,-19,29,0,-29,24,19,-19,0,-24,-39
-19,-39,-19,29,0,-29,19,19,-19,0,-24,-39
-24,-39,-14,31,-4,-26,14,19,-19,0,-24,-34
-19,-39,-19,29,0,-29,14,14,-19,4,-24,-29
-19,-39,-19,29,0,-29,14,14,-19,4,-24,-29
-19,-39,-19,29,0,-29,14,9,-19,4,-24,-29
-14,-39,-24,26,4,-31,9,9,-19,0,-19,-29
-14,-39,-24,26,4,-31,9,9,-19,0,-14,-29
-14,-39,-24,26,4,-31,4,4,-14,0,-14,-29
-14,-39,-24,26,4,-31,0,4,-14,0,-14,-24
-14,-39,-24,26,4,-31,-4,0,-14,0,-14,-24
-14,-39,-24,26,4,-31,-4,0,-14,0,-19,-29
-19,-39,-19,29,0,-29,-4,0,-14,0,-19,-29
-19,-43,-24,31,2,-34,-4,-4,-14,-4,-19,-29
-19,-43,-24,31,2,-34,-4,-4,-14,-9,-19,-29
-19,-43,-24,31,2,-34,-4,-4,-14,-14,-19,-29
-14,-39,-24,26,4,-31,-4,-4,-14,-14,-19,-24
-14,-34,-19,24,2,-26,-4,0,-14,-14,-19,-19
-14,-34,-19,24,2,-26,-9,0,-19,-19,-24,-24
-14,-34,-19,24,2,-26,-9,0,-19,-19,-24,-24
-19,-39,-19,29,0,-29,-9,0,-19,-19,-24,-24
-19,-48,-29,34,4,-39,-9,-4,-19,-29,-29,-29
-14,-48,-34,31,9,-41,-9,-9,-19,-34,-29,-29
-14,-48,-34,31,9,-41,-9,-14,-24,-34,-29,-29
-14,-48,-34,31,9,-41,-9,-14,-24,-34,-29,-29
-14,-48,-34,31,9,-41,-14,-14,-24,-29,-29,-24
-14,-53,-39,34,12,-46,-14,-14,-19,-29,-24,-24
-19,-53,-34,36,7,-43,-14,-14,-19,-29,-24,-24
-24,-53,-29,39,2,-41,-14,-9,-24,-34,-24,-24
-24,-53,-29,39,2,-41,-14,-9,-24,-34,-24,-29
-24,-53,-29,39,2,-41,-9,-9,-29,-34,-24,-29
-24,-53,-29,39,2,-41,-4,-9,-34,-34,-29,-29
-24,-58,-34,41,4,-46,-4,-9,-34,-34,-34,-29
-34,-58,-24,46,-4,-41,-4,-9,-34,-39,-39,-29
-34,-58,-24,46,-4,-41,-4,-9,-34,-39,-39,-34
-34,-58,-24,46,-4,-41,-4,-9,-34,-39,-39,-39
-34,-58,-24,46,-4,-41,-4,-9,-34,-39,-39,-34
-29,-58,-29,43,0,-43,-4,-9,-34,-39,-39,-34
-24,-58,-34,41,4,-46,-4,-9,-34,-39,-39,-34
-19,-58,-39,39,9,-48,-4,-9,-34,-43,-39,-29
-24,-58,-34,41,4,-46,-4,-9,-34,-43,-39,-29
-24,-58,-34,41,4,-46,-4,-9,-34,-43,-39,-29
-24,-58,-34,41,4,-46,-4,-9,-34,-43,-39,-34
-24,-58,-34,41,4,-46,-4,-9,-34,-43,-39,-34
-24,-58,-34,41,4,-46,-4,-9,-34,-43,-43,-34
-29,-58,-29,43,0,-43,-4,-9,-34,-43,-43,-34
-29,-53,-24,41,-2,-39,-4,-9,-34,-43,-43,-34
-29,-48,-19,39,-4,-34,-4,-9,-34,-43,-43,-39
-24,-48,-24,36,0,-36,-9,-9,-39,-43,-43,-39
-24,-48,-24,36,0,-36,-9,-9,-39,-43,-39,-39
-29,-53,-24,41,-2,-39,-9,-9,-39,-43,-39,-39
-29,-58,-29,43,0,-43,-9,-9,-39,-48,-43,-34
-29,-58,-29,43,0,-43,-4,-9,-39,-48,-39,-34
-29,-58,-29,43,0,-43,-4,-9,-39,-48,-34,-34
-29,-58,-29,43,0,-43,-4,-9,-39,-43,-39,-34
-29,-58,-29,43,0,-43,-4,-9,-39,-43,-39,-34
-29,-58,-29,43,0,-43,-4,-9,-39,-43,-34,-34
-29,-58,-29,43,0,-43,-4,-9,-34,-43,-34,-34
-29,-58,-29,43,0,-43,-4,-9,-34,-53,-34,-34
-29,-58,-29,43,0,-43,-4,-9,-39,-58,-34,-34
-29,-53,-24,41,-2,-39,-4,-9,-39,-53,-34,-29
-24,-48,-24,36,0,-36,-4,-9,-39,-53,-34,-29
-24,-48,-24,36,0,-36,-4,-9,-39,-53,-34,-29
-24,-48,-24,36,0,-36,-4,-9,-39,-48,-39,-29
-24,-53,-29,39,2,-41,-4,-9,-34,-48,-39,-29
-29,-58,-29,43,0,-43,-4,-9,-34,-53,-34,-29
-29,-58,-29,43,0,-43,-4,-9,-34,-53,-39,-29
-29,-53,-24,41,-2,-39,-4,-9,-34,-58,-43,-34
-29,-58,-29,43,0,-43,-4,-9,-39,-58,-43,-34
-29,-63,-34,46,2,-48,-4,-9,-39,-53,-43,-34
-24,-58,-34,41,4,-46,0,-14,-34,-48,-39,-29
-19,-58,-39,39,9,-48,0,-19,-29,-48,-39,-29
-19,-58,-39,39,9,-48,0,-19,-29,-48,-39,-29
-19,-58,-39,39,9,-48,0,-19,-29,-48,-39,-29
-19,-53,-34,36,7,-43,0,-14,-24,-48,-39,-29
-19,-48,-29,34,4,-39,0,-9,-19,-48,-39,-29
-19,-39,-19,29,0,-29,4,-9,-19,-43,-34,-29
-19,-29,-9,24,-4,-19,9,-9,-19,-39,-29,-29
-9,-9,0,9,-4,-4,19,4,-4,-29,-24,-19
0,9,9,-4,-4,9,29,19,9,-19,-19,-9
9,14,4,-12,2,9,39,29,14,-9,-9,-4
14,19,4,-17,4,12,48,34,19,0,0,0
24,29,4,-26,9,17,58,43,29,9,9,9
24,39,14,-31,4,26,63,53,39,19,14,14
24,48,24,-36,0,36,68,63,43,14,14,9
39,58,19,-48,9,39,68,73,58,24,24,19
48,78,29,-63,9,53,58,73,68,34,34,24
48,87,39,-68,4,63,48,63,73,43,43,34
58,97,39,-78,9,68,19,48,73,48,48,43
73,102,29,-87,21,65,-19,24,73,48,53,53
82,107,24,-95,29,65,-39,14,63,43,53,53
107,107,0,-107,53,53,-53,4,53,39,53,53
117,107,-9,-112,63,48,-63,4,53,39,53,53
117,92,-24,-104,70,34,-63,4,48,34,48,53
117,73,-43,-95,80,14,-58,4,39,29,48,48
107,63,-43,-85,75,9,-48,4,39,29,43,39
97,53,-43,-75,70,4,-39,4,39,24,43,34
97,39,-58,-68,78,-9,-34,9,39,19,29,29
73,34,-39,-53,56,-2,-19,14,39,19,29,29
53,34,-19,-43,36,7,-14,14,29,14,19,19
29,9,-19,-19,24,-4,-14,4,14,0,4,0
9,-9,-19,0,14,-14,-14,0,0,-19,-9,-9
0,-29,-29,14,14,-29,-14,-9,-9,-29,-19,-19
-9,-53,-43,31,17,-48,-14,-19,-19,-43,-34,-29
-14,-63,-48,39,17,-56,-14,-24,-34,-53,-43,-39
-24,-68,-43,46,9,-56,-9,-29,-34,-53,-43,-43
-29,-68,-39,48,4,-53,-9,-29,-34,-53,-43,-43
-29,-68,-39,48,4,-53,-4,-29,-34,-53,-48,-43
-34,-73,-39,53,2,-56,-4,-29,-39,-58,-48,-48
-34,-78,-43,56,4,-61,-4,-29,-39,-58,-48,-48
-34,-78,-43,56,4,-61,0,-29,-39,-53,-48,-48
-39,-82,-43,61,2,-63,4,-29,-39,-53,-53,-48
-39,-82,-43,61,2,-63,4,-29,-39,-53,-53,-53
-43,-82,-39,63,-2,-61,4,-24,-39,-48,-48,-53
-43,-82,-39,63,-2,-61,4,-24,-39,-48,-48,-53
-43,-82,-39,63,-2,-61,4,-24,-34,-48,-48,-53
-43,-82,-39,63,-2,-61,9,-24,-34,-48,-48,-53
-43,-87,-43,65,0,-65,9,-19,-34,-43,-48,-53
-53,-87,-34,70,-9,-61,29,14,-9,-29,-43,-53
-63,-82,-19,73,-21,-51,53,87,73,19,-14,-48
-82,-43,39,63,-61,-2,97,190,195,122,43,-14
-107,9,117,48,-112,63,141,273,366,268,146,53
-92,68,161,12,-126,114,180,356,566,453,287,141
19,136,117,-78,-48,126,161,439,775,673,483,268
175,195,19,-185,78,107,73,356,810,785,624,375
307,336,29,-322,139,183,-58,161,751,834,736,502
278,336,58,-307,109,197,-165,-351,302,458,512,424
-9,14,24,-2,-17,19,-234,-1078,-600,-380,-151,-4
-361,-165,195,263,-278,14,-409,-1986,-1444,-1068,-663,-278
-502,-302,200,402,-351,-51,-458,-2181,-1742,-1307,-878,-419
-458,-429,29,444,-244,-200,-507,-2025,-1629,-1244,-878,-458
-424,-556,-131,490,-146,-344,-546,-1790,-1527,-1224,-893,-531
-405,-502,-97,453,-153,-300,-522,-1483,-1283,-1044,-780,-488
-361,-463,-102,412,-129,-283,-414,-1146,-1010,-849,-658,-448
-253,-370,-117,312,-68,-244,-287,-814,-712,-605,-483,-331
-126,-209,-82,168,-21,-146,-156,-468,-380,-317,-244,-161
-48,-126,-78,87,14,-102,-58,-219,-180,-161,-131,-87
-39,-102,-63,70,12,-82,-4,-78,-82,-107,-97,-68
-29,-92,-63,61,17,-78,19,-39,-53,-78,-68,-53
-29,-73,-43,51,7,-58,29,-34,-34,-48,-48,-34
-24,-68,-43,46,9,-56,29,-14,-24,-39,-39,-34
-24,-68,-43,46,9,-56,29,14,-19,-34,-39,-43
-24,-68,-43,46,9,-56,34,34,-4,-24,-39,-48
-24,-68,-43,46,9,-56,34,39,4,-14,-34,-43
-24,-63,-39,43,7,-51,39,39,9,-4,-24,-39
-24,-63,-39,43,7,-51,39,43,9,-4,-24,-39
-29,-63,-34,46,2,-48,39,53,9,-4,-19,-43
-29,-58,-29,43,0,-43,39,53,9,-4,-19,-43
-24,-58,-34,41,4,-46,39,58,14,0,-14,-34
-19,-53,-34,36,7,-43,43,58,19,4,-14,-34
-14,-53,-39,34,12,-46,43,63,19,4,-14,-34
-14,-53,-39,34,12,-46,43,68,24,9,-14,-34
-19,-53,-34,36,7,-43,48,73,29,9,-9,-29
-19,-53,-34,36,7,-43,48,73,29,14,-9,-29
-19,-53,-34,36,7,-43,48,78,29,14,-4,-29
-19,-53,-34,36,7,-43,48,82,34,14,-4,-29
-19,-53,-34,36,7,-43,48,87,34,19,-4,-29
-14,-48,-34,31,9,-41,48,87,34,19,-4,-24
-9,-48,-39,29,14,-43,48,102,39,19,-4,-24
-9,-43,-34,26,12,-39,48,107,43,24,-9,-19
-9,-43,-34,26,12,-39,53,112,43,29,-4,-19
-4,-39,-34,21,14,-36,58,112,48,29,-4,-19
0,-39,-39,19,19,-39,58,122,53,34,-4,-19
4,-39,-43,17,24,-41,58,126,58,34,-4,-14
4,-39,-43,17,24,-41,58,131,68,39,0,-14
4,-29,-34,12,19,-31,58,136,73,43,4,-9
4,-29,-34,12,19,-31,58,146,82,48,9,-4
9,-29,-39,9,24,-34,58,151,87,48,14,-4
9,-24,-34,7,21,-29,58,161,92,53,14,-4
14,-24,-39,4,26,-31,58,170,102,63,19,-4
14,-19,-34,2,24,-26,58,175,107,63,24,0
19,-14,-34,-2,26,-24,58,185,117,73,29,4
19,-14,-34,-2,26,-24,63,195,122,78,34,9
29,-9,-39,-9,34,-24,63,204,126,87,43,9
34,-4,-39,-14,36,-21,63,214,136,92,48,19
34,4,-29,-19,31,-12,63,229,146,102,58,29
39,4,-34,-21,36,-14,68,244,156,112,63,34
43,14,-29,-29,36,-7,68,253,165,117,68,34
43,24,-19,-34,31,2,68,268,175,126,78,39
58,29,-29,-43,43,0,73,292,190,136,87,48
58,39,-19,-48,39,9,73,307,200,151,97,58
63,48,-14,-56,39,17,82,322,214,161,102,68
73,68,-4,-70,39,31,82,341,229,175,122,78
78,82,4,-80,36,43,82,356,244,185,136,87
82,97,14,-90,34,56,82,366,253,200,146,97
97,112,14,-104,41,63,82,375,268,209,161,107
102,126,24,-114,39,75,82,385,278,224,175,122
112,141,29,-126,41,85,82,395,287,234,180,136
117,156,39,-136,39,97,78,395,292,244,190,146
131,170,39,-151,46,104,73,395,297,253,200,156
141,185,43,-163,48,114,63,385,297,263,214,161
146,195,48,-170,48,122,58,380,297,268,224,165
156,209,53,-183,51,131,53,361,297,273,229,175
165,219,53,-192,56,136,43,341,297,273,239,185
175,229,53,-202,61,141,34,322,292,273,239,185
175,229,53,-202,61,141,24,297,283,268,239,190
190,239,48,-214,70,143,14,258,273,263,234,195
190,244,53,-217,68,148,4,224,253,248,229,200
190,244,53,-217,68,148,-14,185,229,239,224,200
190,239,48,-214,70,143,-24,146,214,229,219,200
190,234,43,-212,73,139,-34,122,195,214,209,195
185,219,34,-202,75,126,-43,92,165,200,195,180
180,204,24,-192,78,114,-48,58,156,180,185,175
170,190,19,-180,75,104,-53,24,131,165,161,161
161,170,9,-165,75,90,-53,0,107,151,151,141
146,156,9,-151,68,82,-58,-19,87,131,131,131
136,136,0,-136,68,68,-58,-43,68,112,122,122
126,117,-9,-122,68,53,-58,-53,58,97,107,107
107,102,-4,-104,56,48,-58,-53,48,87,92,82
97,82,-14,-90,56,34,-53,-58,29,73,73,73
82,63,-19,-73,51,21,-53,-68,14,58,58,58
68,48,-19,-58,43,14,-48,-68,14,48,43,48
58,34,-24,-46,41,4,-39,-73,4,43,34,39
48,24,-24,-36,36,0,-34,-68,0,29,24,24
29,9,-19,-19,24,-4,-24,-58,-9,19,14,9
24,0,-24,-12,24,-12,-19,-48,-9,14,4,-4
14,-14,-29,0,21,-21,-9,-39,-4,14,0,-14
9,-24,-34,7,21,-29,4,-29,-4,0,-4,-19
-4,-29,-24,17,9,-26,14,-19,-9,0,-19,-19
-4,-29,-24,17,9,-26,19,-9,-9,0,-19,-24
-4,-34,-29,19,12,-31,24,-9,-4,0,-14,-24
-4,-34,-29,19,12,-31,24,-9,-4,0,-14,-29
-14,-34,-19,24,2,-26,29,4,-4,0,-19,-29
-19,-39,-19,29,0,-29,29,9,-4,-4,-24,-34
-19,-43,-24,31,2,-34,34,9,-14,-4,-34,-34
-19,-43,-24,31,2,-34,39,9,-19,-4,-34,-34
-24,-43,-19,34,-2,-31,39,14,-19,-4,-34,-34
-29,-48,-19,39,-4,-34,39,14,-24,-4,-39,-34
-29,-48,-19,39,-4,-34,43,14,-24,-4,-34,-34
-29,-48,-19,39,-4,-34,43,19,-24,-4,-34,-34
-29,-48,-19,39,-4,-34,43,19,-14,-4,-29,-34
-29,-48,-19,39,-4,-34,43,19,-14,-4,-24,-34
-29,-48,-19,39,-4,-34,39,19,-9,-4,-24,-34
-29,-48,-19,39,-4,-34,39,19,-14,-4,-24,-34
-29,-43,-14,36,-7,-29,39,14,-14,-4,-24,-34
-29,-43,-14,36,-7,-29,39,14,-9,-4,-24,-34
-24,-43,-19,34,-2,-31,39,14,-9,0,-24,-34
-24,-43,-19,34,-2,-31,39,9,-9,0,-24,-29
-29,-43,-14,36,-7,-29,34,9,-4,0,-24,-29
-29,-43,-14,36,-7,-29,34,9,0,0,-24,-29
-29,-39,-9,34,-9,-24,34,9,0,0,-14,-29
-29,-39,-9,34,-9,-24,29,9,0,0,-14,-29
-29,-39,-9,34,-9,-24,19,9,0,0,-14,-29
-19,-39,-19,29,0,-29,14,4,0,4,-14,-29
-19,-29,-9,24,-4,-19,14,4,0,4,-14,-29
-19,-19,0,19,-9,-9,14,0,0,4,-14,-29
-14,-29,-14,21,0,-21,14,0,0,4,-14,-29
-14,-39,-24,26,4,-31,19,0,0,9,-14,-29
-14,-39,-24,26,4,-31,19,-9,0,9,-9,-29
-14,-39,-24,26,4,-31,19,-14,-4,9,-4,-24
-14,-34,-19,24,2,-26,14,-19,-4,9,-4,-19
-14,-29,-14,21,0,-21,14,-19,-4,9,-9,-19
-19,-29,-9,24,-4,-19,9,-19,-9,9,-9,-19
-19,-34,-14,26,-2,-24,4,-24,-14,4,-9,-19
-19,-34,-14,26,-2,-24,4,-24,-14,4,-9,-19
-19,-34,-14,26,-2,-24,4,-24,-14,4,-9,-19
-14,-34,-19,24,2,-26,4,-29,-14,0,-9,-24
-14,-34,-19,24,2,-26,4,-29,-14,-4,-9,-29
-14,-34,-19,24,2,-26,0,-29,-19,-9,-19,-34
-14,-34,-19,24,2,-26,0,-29,-19,-9,-24,-34
-19,-34,-14,26,-2,-24,0,-24,-19,-4,-24,-29
-19,-39,-19,29,0,-29,0,-24,-19,-9,-29,-29
-19,-43,-24,31,2,-34,0,-24,-19,-14,-29,-29
-24,-48,-24,36,0,-36,0,-24,-24,-14,-29,-29
-24,-48,-24,36,0,-36,4,-24,-24,-14,-29,-34
-24,-48,-24,36,0,-36,4,-24,-24,-9,-29,-34
-24,-48,-24,36,0,-36,4,-24,-24,-9,-29,-34
-29,-43,-14,36,-7,-29,4,-24,-29,-9,-34,-34
-29,-43,-14,36,-7,-29,4,-24,-34,-14,-34,-34
-24,-43,-19,34,-2,-31,4,-29,-34,-14,-34,-39
-24,-43,-19,34,-2,-31,4,-29,-34,-14,-34,-39
-24,-43,-19,34,-2,-31,4,-29,-34,-14,-39,-39
-24,-43,-19,34,-2,-31,4,-29,-34,-14,-39,-39
-34,-39,-4,36,-14,-21,4,-29,-34,-19,-39,-39
-34,-39,-4,36,-14,-21,4,-29,-39,-19,-39,-39
-34,-39,-4,36,-14,-21,4,-29,-43,-19,-39,-39
-34,-39,-4,36,-14,-21,0,-29,-43,-19,-34,-34
-29,-39,-9,34,-9,-24,-4,-29,-43,-19,-29,-34
-29,-39,-9,34,-9,-24,-4,-29,-39,-14,-29,-34
-29,-39,-9,34,-9,-24,-4,-29,-34,-14,-29,-29
-34,-43,-9,39,-12,-26,0,-29,-34,-14,-29,-29
-34,-48,-14,41,-9,-31,4,-29,-34,-14,-29,-29
-34,-48,-14,41,-9,-31,4,-29,-34,-19,-34,-39
-34,-48,-14,41,-9,-31,4,-29,-34,-24,-39,-43
-29,-48,-19,39,-4,-34,4,-29,-34,-24,-43,-43
-29,-48,-19,39,-4,-34,4,-29,-34,-24,-43,-43
-29,-48,-19,39,-4,-34,4,-29,-34,-19,-39,-39
-29,-48,-19,39,-4,-34,4,-29,-34,-14,-34,-39
-29,-48,-19,39,-4,-34,4,-29,-39,-14,-34,-39
-34,-48,-14,41,-9,-31,9,-29,-39,-14,-29,-39
-39,-48,-9,43,-14,-29,9,-29,-39,-14,-29,-43
-39,-48,-9,43,-14,-29,9,-29,-39,-19,-34,-43
-34,-48,-14,41,-9,-31,9,-29,-39,-24,-34,-43
-29,-48,-19,39,-4,-34,4,-29,-39,-29,-34,-43
-29,-48,-19,39,-4,-34,4,-29,-39,-24,-39,-43
-29,-48,-19,39,-4,-34,4,-29,-39,-24,-39,-43
-34,-48,-14,41,-9,-31,4,-29,-39,-19,-34,-43
-39,-48,-9,43,-14,-29,4,-29,-34,-14,-34,-43
-39,-48,-9,43,-14,-29,4,-29,-34,-19,-34,-43
-39,-48,-9,43,-14,-29,4,-29,-39,-19,-34,-43
-43,-48,-4,46,-19,-26,4,-29,-39,-19,-34,-43
-43,-48,-4,46,-19,-26,4,-29,-39,-24,-34,-48
-43,-48,-4,46,-19,-26,4,-29,-39,-24,-34,-48
-43,-48,-4,46,-19,-26,4,-29,-39,-19,-39,-48
-34,-48,-14,41,-9,-31,4,-29,-34,-14,-39,-48
-29,-48,-19,39,-4,-34,4,-29,-34,-14,-34,-48
-29,-53,-24,41,-2,-39,4,-29,-34,-14,-34,-43
-29,-53,-24,41,-2,-39,4,-29,-34,-19,-34,-43
-34,-53,-19,43,-7,-36,4,-29,-34,-24,-34,-43
-39,-53,-14,46,-12,-34,4,-29,-29,-24,-34,-43
-34,-48,-14,41,-9,-31,4,-29,-29,-19,-34,-39
-29,-48,-19,39,-4,-34,9,-29,-29,-19,-39,-39
-29,-48,-19,39,-4,-34,4,-29,-29,-19,-39,-43
-29,-48,-19,39,-4,-34,0,-29,-29,-19,-39,-48
-29,-48,-19,39,-4,-34,0,-24,-29,-19,-39,-48
-29,-48,-19,39,-4,-34,0,-19,-29,-19,-39,-48
-29,-43,-14,36,-7,-29,0,-19,-29,-19,-39,-48
-29,-39,-9,34,-9,-24,0,-19,-29,-19,-39,-48
-29,-39,-9,34,-9,-24,4,-19,-29,-19,-39,-48
-29,-39,-9,34,-9,-24,9,-19,-29,-19,-39,-48
-29,-34,-4,31,-12,-19,9,-14,-24,-14,-34,-43
-29,-29,0,29,-14,-14,9,-9,-19,-9,-29,-39
-24,-9,14,17,-19,2,19,0,-9,0,-24,-29
-19,9,29,4,-24,19,29,9,0,9,-19,-19
-9,24,34,-7,-21,29,39,24,14,19,-4,-9
0,34,34,-17,-17,34,48,34,24,29,4,0
4,43,39,-24,-17,41,58,43,39,39,19,9
4,48,43,-26,-19,46,63,53,48,48,24,14
4,53,48,-29,-21,51,73,63,48,43,19,4
19,58,39,-39,-9,48,78,73,58,53,24,9
34,78,43,-56,-4,61,78,78,68,63,34,14
39,87,48,-63,-4,68,78,73,73,73,43,24
48,107,58,-78,-4,82,48,58,78,82,53,39
63,122,58,-92,2,90,9,34,82,87,63,53
68,126,58,-97,4,92,-19,19,73,82,63,53
87,126,39,-107,24,82,-43,4,63,78,63,53
97,126,29,-112,34,78,-53,4,63,78,63,53
97,112,14,-104,41,63,-53,4,58,73,58,53
97,87,-9,-92,53,39,-53,4,43,68,58,48
87,73,-14,-80,51,29,-48,4,39,68,53,39
78,63,-14,-70,46,24,-39,4,39,63,53,34
78,48,-29,-63,53,9,-34,9,39,58,39,29
53,43,-9,-48,31,17,-19,14,39,58,39,29
34,43,9,-39,12,26,-14,14,29,53,29,19
14,19,4,-17,4,12,-14,4,14,39,14,0
0,0,0,0,0,0,-14,0,0,19,0,-9
-9,-19,-9,14,0,-14,-14,-9,-9,0,-14,-19
-19,-43,-24,31,2,-34,-14,-19,-19,-24,-34,-29
-24,-53,-29,39,2,-41,-14,-19,-34,-34,-43,-39
-34,-58,-24,46,-4,-41,-9,-19,-34,-34,-43,-43
-39,-58,-19,48,-9,-39,-9,-19,-34,-29,-43,-43
-39,-58,-19,48,-9,-39,-4,-19,-34,-24,-48,-43
-43,-63,-19,53,-12,-41,-4,-19,-39,-29,-48,-48
-43,-68,-24,56,-9,-46,-4,-19,-39,-29,-48,-48
-43,-68,-24,56,-9,-46,0,-19,-39,-29,-48,-48
-48,-73,-24,61,-12,-48,4,-19,-39,-34,-53,-48
-48,-73,-24,61,-12,-48,4,-19,-39,-34,-53,-53
-53,-73,-19,63,-17,-46,4,-14,-39,-29,-48,-53
-53,-73,-19,63,-17,-46,4,-14,-39,-34,-48,-53
-53,-73,-19,63,-17,-46,4,-14,-34,-39,-48,-53
-48,-73,-24,61,-12,-48,0,-19,-39,-39,-48,-53
-43,-78,-34,61,-4,-56,-9,-19,-43,-34,-48,-53
-53,-78,-24,65,-14,-51,4,-4,-39,-39,-53,-58
-63,-73,-9,68,-26,-41,24,48,24,-9,-34,-58
-87,-53,34,70,-61,-9,68,151,122,68,4,-43
-117,-19,97,68,-107,39,112,234,268,190,87,4
-126,29,156,48,-141,92,170,346,478,375,224,87
-39,87,126,-24,-82,107,170,458,697,595,414,209
141,156,14,-148,63,85,117,478,829,785,614,351
297,307,9,-302,143,158,19,385,868,912,785,512
307,390,82,-348,112,236,-53,14,570,673,658,502
58,151,92,-104,-17,122,-87,-570,-180,-29,92,141
-361,-39,322,200,-341,141,-278,-1693,-1195,-873,-531,-190
-570,-185,385,378,-478,100,-341,-2103,-1664,-1268,-858,-390
-527,-361,165,444,-346,-97,-409,-2015,-1625,-1259,-907,-468
-492,-536,-43,514,-224,-290,-468,-1849,-1595,-1293,-971,-580
-488,-531,-43,509,-222,-287,-488,-1586,-1400,-1151,-897,-561
-458,-541,-82,500,-187,-312,-424,-1293,-1176,-995,-814,-546
-331,-453,-122,392,-104,-287,-331,-961,-878,-751,-629,-429
-185,-297,-112,241,-36,-204,-234,-614,-546,-463,-380,-258
-87,-175,-87,131,0,-131,-117,-307,-287,-248,-214,-146
-58,-112,-53,85,-2,-82,-43,-107,-131,-136,-126,-87
-48,-97,-48,73,0,-73,-14,-53,-97,-107,-97,-68
-48,-73,-24,61,-12,-48,0,-34,-73,-78,-78,-43
-43,-63,-19,53,-12,-41,0,-19,-63,-68,-63,-43
-43,-58,-14,51,-14,-36,0,4,-58,-63,-58,-53
-39,-58,-19,48,-9,-39,9,24,-43,-53,-58,-53
-34,-58,-24,46,-4,-41,14,29,-34,-43,-53,-43
-34,-53,-19,43,-7,-36,19,34,-19,-34,-43,-39
-34,-53,-19,43,-7,-36,19,43,-9,-34,-43,-39
-39,-53,-14,46,-12,-34,19,53,-9,-34,-39,-43
-39,-48,-9,43,-14,-29,19,53,-9,-34,-39,-43
-34,-48,-14,41,-9,-31,19,58,-4,-29,-34,-34
-29,-43,-14,36,-7,-29,24,58,0,-24,-34,-34
-24,-39,-14,31,-4,-26,24,63,0,-19,-34,-34
-24,-34,-9,29,-7,-21,24,68,4,-9,-34,-34
-24,-34,-9,29,-7,-21,29,73,9,-9,-29,-29
-19,-34,-14,26,-2,-24,29,73,9,-4,-29,-29
-19,-34,-14,26,-2,-24,24,78,9,-4,-24,-29
-19,-34,-14,26,-2,-24,19,82,14,-4,-24,-29
-24,-34,-9,29,-7,-21,19,87,19,0,-19,-29
-24,-29,-4,26,-9,-17,19,87,24,0,-14,-24
-19,-29,-9,24,-4,-19,19,97,29,0,-9,-24
-19,-24,-4,21,-7,-14,19,97,34,4,-9,-19
-19,-24,-4,21,-7,-14,19,97,34,9,-4,-19
-14,-19,-4,17,-4,-12,19,92,39,9,-4,-19
-9,-19,-9,14,0,-14,19,102,43,14,-4,-19
-4,-19,-14,12,4,-17,19,107,48,14,-4,-14
0,-19,-19,9,9,-19,19,112,53,14,0,-14
4,-9,-14,2,9,-12,19,117,53,14,4,-9
4,-4,-9,0,7,-7,19,126,58,19,4,-4
9,0,-9,-4,9,-4,19,131,58,19,4,-4
9,4,-4,-7,7,0,19,141,63,19,4,-4
14,4,-9,-9,12,-2,19,151,73,24,9,-4
9,4,-4,-7,7,0,19,156,78,24,19,0
9,4,-4,-7,7,0,19,165,87,34,29,4
9,9,0,-9,4,4,24,170,92,43,34,9
19,19,0,-19,9,9,24,175,97,58,43,9
24,24,0,-24,12,12,24,185,107,63,48,24
24,34,9,-29,7,21,24,200,117,73,58,39
34,34,0,-34,17,17,29,214,126,82,63,43
43,43,0,-43,21,21,29,224,136,87,68,43
43,53,9,-48,17,31,29,234,146,97,78,43
58,58,0,-58,29,29,34,253,161,107,87,48
58,68,9,-63,24,39,29,268,170,122,97,58
63,78,14,-70,24,46,34,283,185,131,102,68
73,92,19,-82,26,56,34,302,200,146,117,78
78,102,24,-90,26,63,34,317,214,156,126,87
82,117,34,-100,24,75,34,326,224,170,136,102
97,131,34,-114,31,82,34,336,239,180,151,117
102,151,48,-126,26,100,34,346,244,195,170,131
112,170,58,-141,26,114,34,356,248,204,180,146
117,185,68,-151,24,126,29,356,258,214,190,156
131,200,68,-165,31,134,24,356,268,224,200,165
141,209,68,-175,36,139,14,351,268,234,214,175
146,214,68,-180,39,141,9,351,268,239,224,185
151,229,78,-190,36,153,4,336,268,244,229,195
156,239,82,-197,36,161,-4,322,268,244,239,204
165,253,87,-209,39,170,-14,307,268,248,244,204
165,258,92,-212,36,175,-24,287,263,248,248,209
180,268,87,-224,46,178,-29,253,253,244,248,214
180,273,92,-226,43,183,-34,224,234,229,248,219
180,278,97,-229,41,187,-53,185,214,219,244,219
180,278,97,-229,41,187,-63,146,204,209,239,219
180,273,92,-226,43,183,-73,117,185,195,229,219
175,258,82,-217,46,170,-82,82,156,180,214,209
175,248,73,-212,51,161,-87,48,141,161,204,204
170,239,68,-204,51,153,-92,14,112,146,180,190
161,219,58,-190,51,139,-92,-4,87,131,170,170
146,204,58,-175,43,131,-97,-19,68,112,151,161
136,185,48,-161,43,117,-97,-43,48,92,141,151
126,165,39,-146,43,102,-97,-53,39,78,126,136
102,151,48,-126,26,100,-97,-53,34,68,112,112
87,131,43,-109,21,87,-92,-58,19,53,92,102
73,112,39,-92,17,75,-87,-68,4,34,73,82
58,97,39,-78,9,68,-78,-68,4,19,53,68
53,82,29,-68,12,56,-68,-68,0,14,39,58
48,73,24,-61,12,48,-63,-58,0,0,24,43
29,58,29,-43,0,43,-48,-48,-9,-9,14,34
24,48,24,-36,0,36,-39,-39,-9,-14,4,24
14,34,19,-24,-2,26,-34,-29,-9,-14,0,14
9,24,14,-17,-2,19,-24,-19,-14,-29,-4,9
-4,14,19,-4,-12,17,-14,-9,-19,-29,-19,4
-4,9,14,-2,-9,12,-9,0,-19,-29,-19,-4
-4,4,9,0,-7,7,-4,0,-14,-29,-14,-9
-4,4,9,0,-7,7,-4,0,-14,-29,-14,-19
-14,4,19,4,-17,12,0,14,-14,-29,-19,-19
-19,0,19,9,-19,9,0,19,-14,-34,-24,-24
-19,-9,9,14,-14,0,4,19,-24,-39,-39,-24
-19,-14,4,17,-12,-4,9,19,-29,-43,-43,-24
-24,-14,9,19,-17,-2,9,24,-24,-43,-39,-24
-29,-19,9,24,-19,-4,9,24,-24,-43,-39,-24
-29,-19,9,24,-19,-4,14,24,-24,-43,-34,-24
-29,-19,9,24,-19,-4,14,29,-24,-43,-34,-24
-29,-19,9,24,-19,-4,14,29,-14,-39,-29,-24
-29,-19,9,24,-19,-4,14,29,-14,-34,-24,-24
-29,-19,9,24,-19,-4,9,29,-9,-34,-24,-24
-29,-19,9,24,-19,-4,9,29,-14,-34,-24,-24
-29,-9,19,19,-24,4,9,24,-14,-34,-24,-24
-29,-4,24,17,-26,9,9,24,-9,-34,-24,-24
-24,-4,19,14,-21,7,4,24,-9,-29,-24,-24
-24,-4,19,14,-21,7,0,19,-9,-29,-24,-19
-29,-4,24,17,-26,9,-4,19,-9,-29,-24,-19
-29,-4,24,17,-26,9,-4,19,-9,-29,-24,-19
-29,0,29,14,-29,14,-4,19,-9,-29,-14,-19
-29,0,29,14,-29,14,-9,19,-9,-29,-14,-19
-29,0,29,14,-29,14,-14,19,-9,-29,-14,-14
-19,0,19,9,-19,9,-14,14,-9,-24,-14,-9
-19,0,19,9,-19,9,-14,14,-9,-24,-14,-9
-19,0,19,9,-19,9,-14,9,-9,-24,-14,-9
-14,0,14,7,-14,7,-19,9,-9,-29,-14,-9
-14,0,14,7,-14,7,-19,9,-9,-29,-14,-9
-14,0,14,7,-14,7,-14,4,-9,-29,-14,-9
-14,0,14,7,-14,7,-9,4,-14,-29,-14,-4
-14,0,14,7,-14,7,-14,0,-14,-29,-14,-4
-14,0,14,7,-14,7,-14,0,-14,-29,-19,-9
-19,0,19,9,-19,9,-14,0,-14,-29,-19,-9
-19,-4,14,12,-17,4,-14,-4,-14,-34,-19,-9
-24,-4,19,14,-21,7,-14,-4,-14,-34,-19,-14
-29,-4,24,17,-26,9,-14,-4,-14,-34,-19,-19
-24,-4,19,14,-21,7,-14,-9,-14,-34,-19,-19
-24,-4,19,14,-21,7,-14,-9,-14,-34,-19,-19
-24,-4,19,14,-21,7,-19,-9,-24,-39,-24,-24
-24,-4,19,14,-21,7,-19,-9,-29,-39,-24,-24
-29,-4,24,17,-26,9,-19,-9,-29,-39,-24,-19
-29,-9,19,19,-24,4,-19,-14,-29,-48,-29,-19
-29,-9,19,19,-24,4,-19,-14,-29,-53,-29,-19
-34,-9,24,21,-29,7,-19,-14,-34,-53,-29,-19
-34,-9,24,21,-29,7,-14,-19,-29,-53,-29,-24
-34,-9,24,21,-29,7,-14,-24,-24,-48,-29,-24
-34,-14,19,24,-26,2,-14,-24,-24,-53,-34,-24
-39,-14,24,26,-31,4,-14,-24,-29,-58,-43,-24
-39,-14,24,26,-31,4,-14,-19,-34,-63,-43,-24
-34,-14,19,24,-26,2,-14,-19,-34,-63,-43,-29
-34,-14,19,24,-26,2,-14,-19,-34,-63,-39,-34
-34,-14,19,24,-26,2,-14,-19,-34,-63,-39,-39
-29,-19,9,24,-19,-4,-14,-19,-34,-63,-39,-39
-34,-19,14,26,-24,-2,-14,-19,-34,-68,-39,-39
-34,-19,14,26,-24,-2,-14,-19,-34,-68,-43,-39
-34,-19,14,26,-24,-2,-14,-19,-34,-68,-48,-39
-34,-19,14,26,-24,-2,-19,-19,-39,-68,-48,-34
-29,-19,9,24,-19,-4,-24,-19,-43,-68,-48,-34
-29,-19,9,24,-19,-4,-24,-24,-43,-63,-48,-39
-29,-19,9,24,-19,-4,-24,-29,-43,-63,-48,-39
-39,-19,19,29,-29,0,-24,-29,-43,-63,-48,-39
-43,-19,24,31,-34,2,-24,-29,-43,-63,-48,-39
-43,-19,24,31,-34,2,-24,-29,-43,-63,-48,-43
-43,-19,24,31,-34,2,-24,-29,-43,-63,-48,-43
-43,-19,24,31,-34,2,-19,-29,-43,-68,-53,-43
-48,-19,29,34,-39,4,-14,-29,-43,-73,-53,-43
-48,-19,29,34,-39,4,-14,-29,-43,-73,-53,-43
-48,-19,29,34,-39,4,-14,-29,-43,-73,-53,-48
-43,-19,24,31,-34,2,-19,-29,-48,-73,-53,-48
-43,-19,24,31,-34,2,-19,-29,-48,-73,-48,-48
-48,-19,29,34,-39,4,-19,-29,-48,-73,-48,-48
-48,-19,29,34,-39,4,-19,-29,-48,-78,-53,-43
-48,-19,29,34,-39,4,-19,-29,-48,-78,-53,-43
-48,-19,29,34,-39,4,-24,-29,-48,-78,-53,-43
-48,-19,29,34,-39,4,-19,-29,-48,-73,-58,-43
-48,-19,29,34,-39,4,-14,-29,-48,-73,-58,-43
-48,-14,34,31,-41,9,-14,-29,-53,-73,-53,-43
-48,-9,39,29,-43,14,-14,-29,-53,-73,-53,-43
-48,-9,39,29,-43,14,-19,-34,-53,-78,-53,-48
-48,-9,39,29,-43,14,-24,-39,-58,-78,-53,-53
-53,-9,43,31,-48,17,-24,-39,-58,-78,-53,-53
-53,-9,43,31,-48,17,-24,-39,-58,-82,-53,-58
-53,-9,43,31,-48,17,-24,-39,-58,-82,-53,-53
-53,-9,43,31,-48,17,-24,-39,-58,-78,-58,-48
-43,-9,34,26,-39,12,-24,-39,-53,-73,-58,-48
-39,-9,29,24,-34,9,-24,-39,-53,-73,-53,-48
-39,-14,24,26,-31,4,-24,-39,-53,-73,-53,-48
-39,-14,24,26,-31,4,-24,-39,-53,-78,-53,-53
-39,-14,24,26,-31,4,-24,-39,-53,-78,-53,-53
-39,-14,24,26,-31,4,-24,-39,-48,-73,-53,-53
-43,-14,29,29,-36,7,-19,-39,-53,-73,-53,-53
-48,-19,29,34,-39,4,-19,-39,-58,-78,-58,-58
-48,-19,29,34,-39,4,-19,-39,-58,-78,-58,-58
