I, II, III, aVR, aVL, aVF, V1, V2, V3, V4, V5, V6
-39,-68,-29,53,-4,-48,126,214,224,-78,-175,-165
-48,-78,-29,63,-9,-53,131,219,229,-92,-195,-185
-58,-87,-29,73,-14,-58,136,224,234,-107,-214,-204
-68,-102,-34,85,-17,-68,141,224,239,-122,-234,-224
-78,-117,-39,97,-19,-78,146,224,244,-136,-253,-244
-87,-126,-39,107,-24,-82,156,224,244,-161,-278,-258
-97,-136,-39,117,-29,-87,165,224,244,-185,-302,-273
-107,-141,-34,124,-36,-87,175,224,244,-200,-322,-292
-117,-146,-29,131,-43,-87,185,224,244,-214,-341,-312
-122,-151,-29,136,-46,-90,190,224,244,-224,-351,-322
-126,-156,-29,141,-48,-92,195,224,244,-234,-361,-331
-131,-161,-29,146,-51,-95,209,219,239,-244,-370,-336
-136,-165,-29,151,-53,-97,224,214,234,-253,-380,-341
-146,-170,-24,158,-61,-97,234,209,229,-253,-385,-346
-156,-175,-19,165,-68,-97,244,204,224,-253,-390,-351
-161,-175,-14,168,-73,-95,258,200,214,-253,-390,-351
-165,-175,-9,170,-78,-92,273,195,204,-253,-390,-351
-165,-170,-4,168,-80,-87,244,151,175,-248,-375,-336
-165,-165,0,165,-82,-82,214,107,146,-244,-361,-322
-151,-136,14,143,-82,-61,146,53,112,-224,-322,-283
-136,-107,29,122,-82,-39,78,0,78,-204,-283,-244
-117,-87,29,102,-73,-29,53,-29,48,-180,-248,-214
-97,-68,29,82,-63,-19,29,-58,19,-156,-214,-185
-82,-48,34,65,-58,-7,14,-58,-4,-131,-175,-156
-68,-29,39,48,-53,4,0,-58,-29,-107,-136,-126
-39,-29,9,34,-24,-9,-14,-48,-53,-97,-122,-112
-9,-29,-19,19,4,-24,-29,-39,-78,-87,-107,-97
-9,-24,-14,17,2,-19,-29,-34,-68,-63,-78,-78
-9,-19,-9,14,0,-14,-29,-29,-58,-39,-48,-58
-9,-9,0,9,-4,-4,-24,-29,-43,-14,-19,-34
-9,0,9,4,-9,4,-19,-29,-29,9,9,-9
-9,14,24,-2,-17,19,-19,-34,-14,24,24,9
-9,29,39,-9,-24,34,-19,-39,0,39,39,29
-4,34,39,-14,-21,36,-24,-39,4,48,48,34
0,39,39,-19,-19,39,-29,-39,9,58,58,39
4,39,34,-21,-14,36,-29,-39,9,63,58,43
9,39,29,-24,-9,34,-29,-39,9,68,58,48
9,39,29,-24,-9,34,-34,-39,14,68,63,48
9,39,29,-24,-9,34,-39,-39,19,68,68,48
9,39,29,-24,-9,34,-39,-39,19,73,68,48
9,39,29,-24,-9,34,-39,-39,19,78,68,48
9,39,29,-24,-9,34,-34,-39,19,78,68,48
9,39,29,-24,-9,34,-29,-39,19,78,68,48
9,34,24,-21,-7,29,-24,-34,19,78,73,48
9,29,19,-19,-4,24,-19,-29,19,78,78,48
4,29,24,-17,-9,26,-19,-29,24,78,78,48
0,29,29,-14,-14,29,-19,-29,29,78,78,48
0,29,29,-14,-14,29,-14,-29,34,78,73,48
0,29,29,-14,-14,29,-9,-29,39,78,68,48
0,24,24,-12,-12,24,-9,-29,39,78,68,43
0,19,19,-9,-9,19,-9,-29,39,78,68,39
0,14,14,-7,-7,14,-4,-24,39,78,63,39
0,9,9,-4,-4,9,0,-19,39,78,58,39
-4,4,9,0,-7,7,4,-19,39,68,53,34
-9,0,9,4,-9,4,9,-19,39,58,48,29
-14,-9,4,12,-9,-2,9,-19,34,58,43,24
-19,-19,0,19,-9,-9,9,-19,29,58,39,19
-19,-29,-9,24,-4,-19,14,-19,24,48,34,14
-19,-39,-19,29,0,-29,19,-19,19,39,29,9
-19,-48,-29,34,4,-39,24,-19,14,34,19,0
-19,-58,-39,39,9,-48,29,-19,9,29,9,-9
-19,-58,-39,39,9,-48,34,-14,9,24,9,-14
-19,-58,-39,39,9,-48,39,-9,9,19,9,-19
-19,-58,-39,39,9,-48,53,0,14,19,9,-19
-19,-58,-39,39,9,-48,68,9,19,19,9,-19
-19,-68,-48,43,14,-58,87,19,29,19,4,-24
-19,-78,-58,48,19,-68,107,29,39,19,0,-29
-29,-78,-48,53,9,-63,131,43,39,14,-4,-29
-39,-78,-39,58,0,-58,156,58,39,9,-9,-29
-39,-73,-34,56,-2,-53,141,29,39,9,-9,-29
-39,-68,-29,53,-4,-48,126,0,39,9,-9,-29
-34,-34,0,34,-17,-17,48,-43,24,9,0,-14
-29,0,29,14,-29,14,-29,-87,9,9,9,0
-14,9,24,2,-19,17,-48,-97,-4,14,9,4
0,19,19,-9,-9,19,-68,-107,-19,19,9,9
0,19,19,-9,-9,19,-68,-92,-24,19,9,9
0,19,19,-9,-9,19,-68,-78,-29,19,9,9
14,19,4,-17,4,12,-78,-68,-39,14,4,4
29,19,-9,-24,19,4,-87,-58,-48,9,0,0
29,9,-19,-19,24,-4,-73,-39,-48,9,0,0
29,0,-29,-14,29,-14,-58,-19,-48,9,0,0
14,9,-4,-12,9,2,-43,-19,-24,19,14,9
0,19,19,-9,-9,19,-29,-19,0,29,29,19
0,24,24,-12,-12,24,-29,-24,4,39,34,24
0,29,29,-14,-14,29,-29,-29,9,48,39,29
4,34,29,-19,-12,31,-24,-29,14,53,43,29
9,39,29,-24,-9,34,-19,-29,19,58,48,29
9,39,29,-24,-9,34,-19,-29,19,58,48,29
9,39,29,-24,-9,34,-19,-29,19,58,48,29
9,34,24,-21,-7,29,-19,-29,19,58,48,29
9,29,19,-19,-4,24,-19,-29,19,58,48,29
9,29,19,-19,-4,24,-19,-29,14,53,43,29
9,29,19,-19,-4,24,-19,-29,9,48,39,29
9,24,14,-17,-2,19,-19,-29,9,48,39,24
9,14,4,-12,2,9,-14,-29,9,43,39,14
9,9,0,-9,4,4,-9,-29,9,43,39,9
4,9,4,-7,0,7,-4,-29,9,43,39,9
0,9,9,-4,-4,9,0,-24,9,39,39,9
0,9,9,-4,-4,9,4,-24,9,39,39,4
0,9,9,-4,-4,9,9,-24,9,39,34,4
-4,14,19,-4,-12,17,9,-24,9,39,34,4
-4,9,14,-2,-9,12,9,-19,9,39,34,4
-4,4,9,0,-7,7,14,-9,9,34,29,0
-9,0,9,4,-9,4,19,-9,14,29,24,-4
-9,-14,-4,12,-2,-9,24,-9,9,19,14,-4
-19,-19,0,19,-9,-9,29,-9,9,9,14,-9
-19,-34,-14,26,-2,-24,34,-9,4,9,9,-9
-24,-39,-14,31,-4,-26,39,-9,-4,14,4,-14
-24,-43,-19,34,-2,-31,39,-14,-4,9,0,-19
-29,-53,-24,41,-2,-39,43,-19,-4,9,0,-24
-29,-63,-34,46,2,-48,43,-24,-9,0,-14,-34
-39,-78,-39,58,0,-58,48,-24,-14,-9,-14,-39
-39,-87,-48,63,4,-68,53,-24,-19,-9,-14,-43
-39,-87,-48,63,4,-68,53,-24,-24,-9,-14,-43
-34,-87,-53,61,9,-70,58,-24,-24,-9,-14,-43
-34,-92,-58,63,12,-75,63,-14,-14,-9,-14,-43
-29,-92,-63,61,17,-78,78,-4,-9,-4,-14,-43
-29,-92,-63,61,17,-78,97,9,0,-4,-14,-43
-29,-92,-63,61,17,-78,122,19,4,-4,-19,-43
-34,-102,-68,68,17,-85,141,39,9,-4,-19,-48
-43,-102,-58,73,7,-80,161,58,14,-4,-24,-48
-58,-102,-43,80,-7,-73,161,39,14,-4,-19,-48
-63,-78,-14,70,-24,-46,136,9,14,0,-14,-43
-58,-43,14,51,-36,-14,58,-43,14,4,0,-34
-43,-9,34,26,-39,12,-9,-92,9,14,14,-14
-29,0,29,14,-29,14,-58,-107,0,19,14,-4
-19,9,29,4,-24,19,-63,-107,-9,19,9,-4
-9,19,29,-4,-19,24,-68,-97,-19,19,9,-4
-4,24,29,-9,-17,26,-68,-92,-29,14,9,-4
9,29,19,-19,-4,24,-78,-82,-43,9,4,-9
29,14,-14,-21,21,0,-82,-63,-63,4,0,-14
29,14,-14,-21,21,0,-82,-43,-68,0,-4,-19
19,14,-4,-17,12,4,-73,-29,-63,0,-4,-19
4,4,0,-4,2,2,-53,-24,-53,0,-4,-19
0,9,9,-4,-4,9,-39,-24,-9,24,19,-4
-4,29,34,-12,-19,31,-39,-24,24,82,68,29
0,73,73,-36,-36,73,-53,-29,97,185,151,87
0,175,175,-87,-87,175,-63,-34,234,366,297,175
4,331,326,-168,-161,329,-97,-48,448,658,556,336
24,463,439,-244,-207,451,-117,-14,683,976,849,536
78,551,473,-314,-197,512,-136,63,849,1254,1102,702
156,629,473,-392,-158,551,-185,92,902,1498,1385,893
214,775,561,-495,-173,668,-278,14,844,1634,1590,1078
214,976,761,-595,-273,868,-405,-239,405,1546,1659,1215
322,1122,800,-722,-239,961,-580,-458,-102,1273,1566,1298
585,1176,590,-880,-2,883,-775,-590,-697,785,1224,1244
863,980,117,-922,373,549,-927,-697,-1468,43,712,1029
1171,614,-556,-893,863,29,-1058,-824,-2327,-844,161,810
1195,287,-907,-741,1051,-309,-990,-834,-2552,-1137,-43,707
756,268,-488,-512,622,-109,-780,-897,-2127,-980,-39,653
244,53,-190,-148,217,-68,-414,-712,-1464,-863,-268,234
0,-141,-141,70,70,-141,-107,-287,-766,-624,-405,-151
-78,-170,-92,124,7,-131,-4,-131,-385,-405,-356,-229
-63,-180,-117,122,26,-148,4,-82,-234,-283,-253,-200
-48,-141,-92,95,21,-117,4,-68,-146,-214,-204,-156
-48,-82,-34,65,-7,-58,19,-53,-63,-141,-141,-117
-53,-63,-9,58,-21,-36,34,-29,-29,-92,-102,-107
-39,-68,-29,53,-4,-48,34,-19,-29,-87,-97,-102
-39,-68,-29,53,-4,-48,34,-9,-29,-87,-92,-97
-39,-73,-34,56,-2,-53,39,-4,-24,-87,-102,-97
-39,-82,-43,61,2,-63,48,4,-19,-92,-102,-107
-39,-97,-58,68,9,-78,48,4,-19,-92,-102,-107
-39,-107,-68,73,14,-87,53,9,-19,-97,-107,-112
-43,-112,-68,78,12,-90,58,9,-29,-107,-112,-117
-53,-126,-73,90,9,-100,63,14,-34,-107,-122,-131
-53,-131,-78,92,12,-104,68,14,-34,-107,-122,-131
-43,-136,-92,90,24,-114,68,19,-34,-107,-117,-126
-39,-136,-97,87,29,-117,73,34,-24,-102,-117,-126
-34,-136,-102,85,34,-119,82,43,-14,-102,-117,-126
-34,-136,-102,85,34,-119,97,63,-4,-97,-112,-126
-39,-141,-102,90,31,-122,122,68,14,-97,-112,-126
-39,-141,-102,90,31,-122,146,87,19,-97,-117,-131
-43,-141,-97,92,26,-119,170,102,24,-97,-126,-136
-48,-141,-92,95,21,-117,170,102,29,-97,-126,-136
-53,-126,-73,90,9,-100,146,73,34,-97,-126,-126
-53,-97,-43,75,-4,-70,92,34,34,-87,-107,-122
-43,-68,-24,56,-9,-46,19,-14,19,-87,-97,-107
-34,-53,-19,43,-7,-36,-24,-39,14,-87,-97,-102
-24,-39,-14,31,-4,-26,-24,-29,9,-87,-97,-102
-14,-34,-19,24,2,-26,-24,-24,0,-87,-97,-102
-9,-29,-19,19,4,-24,-24,-14,-14,-92,-97,-102
4,-29,-34,12,19,-31,-29,-4,-34,-97,-107,-107
19,-39,-58,9,39,-48,-34,14,-39,-107,-117,-122
29,-43,-73,7,51,-58,-34,39,-39,-112,-117,-122
19,-48,-68,14,43,-58,-24,58,-34,-112,-117,-117
4,-43,-48,19,26,-46,-14,68,-19,-97,-107,-112
-4,-34,-29,19,12,-31,-4,68,14,-68,-82,-97
-4,-24,-19,14,7,-21,4,68,34,-48,-73,-82
-4,-9,-4,7,0,-7,4,63,48,-39,-63,-73
4,0,-4,-2,4,-2,4,63,53,-39,-53,-68
4,0,-4,-2,4,-2,9,73,68,-29,-53,-68
9,0,-9,-4,9,-4,9,73,82,-29,-53,-68
9,0,-9,-4,9,-4,9,78,92,-24,-48,-68
9,0,-9,-4,9,-4,9,87,97,-19,-48,-68
14,0,-14,-7,14,-7,14,92,102,-14,-48,-68
14,0,-14,-7,14,-7,19,97,107,-14,-53,-68
14,-4,-19,-4,17,-12,24,107,112,-14,-53,-73
14,-9,-24,-2,19,-17,29,112,117,-14,-68,-73
9,-14,-24,2,17,-19,39,122,122,-14,-68,-73
9,-19,-29,4,19,-24,43,126,126,-24,-68,-78
4,-24,-29,9,17,-26,53,136,136,-29,-73,-82
4,-24,-29,9,17,-26,63,146,146,-34,-78,-87
0,-24,-24,12,12,-24,73,151,156,-34,-78,-92
-4,-24,-19,14,7,-21,73,161,165,-29,-82,-97
-4,-24,-19,14,7,-21,82,170,175,-34,-87,-107
-9,-29,-19,19,4,-24,87,180,185,-39,-97,-107
-9,-34,-24,21,7,-29,97,190,195,-48,-107,-112
-9,-43,-34,26,12,-39,107,200,204,-53,-126,-126
-24,-48,-24,36,0,-36,112,209,214,-63,-141,-141
-34,-58,-24,46,-4,-41,122,224,219,-73,-156,-156
-43,-68,-24,56,-9,-46,131,234,224,-92,-175,-170
-53,-78,-24,65,-14,-51,136,239,224,-112,-190,-185
-63,-87,-24,75,-19,-56,146,239,224,-126,-209,-204
-73,-97,-24,85,-24,-61,156,239,229,-146,-234,-219
-82,-112,-29,97,-26,-70,165,239,229,-161,-248,-239
-102,-122,-19,112,-41,-70,170,239,224,-175,-273,-258
-112,-131,-19,122,-46,-75,180,229,224,-190,-297,-278
-122,-141,-19,131,-51,-80,185,229,219,-204,-317,-292
-126,-141,-14,134,-56,-78,185,224,214,-219,-331,-297
-126,-151,-24,139,-51,-87,195,219,219,-229,-336,-307
-131,-156,-24,143,-53,-90,209,214,224,-229,-346,-317
-136,-165,-29,151,-53,-97,219,214,219,-234,-351,-317
-141,-165,-24,153,-58,-95,229,209,219,-244,-356,-322
-146,-170,-24,158,-61,-97,244,209,219,-244,-356,-322
-151,-175,-24,163,-63,-100,263,204,209,-239,-351,-322
-161,-175,-14,168,-73,-95,263,200,200,-244,-351,-322
-165,-175,-9,170,-78,-92,263,170,175,-244,-341,-317
-165,-165,0,165,-82,-82,224,131,151,-224,-312,-287
-156,-136,19,146,-87,-58,170,73,122,-200,-268,-253
-136,-97,39,117,-87,-29,92,14,82,-175,-239,-219
-107,-73,34,90,-70,-19,48,-34,48,-151,-200,-190
-87,-53,34,70,-61,-9,29,-58,24,-131,-175,-161
-68,-34,34,51,-51,0,19,-63,4,-107,-136,-126
-43,-14,29,29,-36,7,4,-63,-9,-82,-102,-102
-14,-14,0,14,-7,-7,-19,-63,-39,-73,-87,-92
4,-19,-24,7,14,-21,-39,-48,-63,-68,-78,-82
24,-19,-43,-2,34,-31,-43,-34,-63,-58,-63,-68
14,-19,-34,2,24,-26,-43,-24,-63,-34,-34,-43
4,-9,-14,2,9,-12,-34,-24,-43,-14,-9,-19
0,9,9,-4,-4,9,-29,-29,-29,9,14,0
0,24,24,-12,-12,24,-29,-34,-14,29,39,19
0,39,39,-19,-19,39,-29,-43,4,53,58,34
4,48,43,-26,-19,46,-29,-48,9,63,63,39
19,48,29,-34,-4,39,-29,-48,9,68,68,43
19,48,29,-34,-4,39,-34,-48,14,68,73,43
19,48,29,-34,-4,39,-34,-43,19,73,78,48
24,48,24,-36,0,36,-34,-43,19,78,82,48
24,48,24,-36,0,36,-34,-43,24,82,82,53
24,48,24,-36,0,36,-34,-39,24,82,78,53
24,43,19,-34,2,31,-29,-34,24,82,78,58
24,43,19,-34,2,31,-29,-29,29,82,78,58
24,39,14,-31,4,26,-29,-29,29,82,82,58
24,39,14,-31,4,26,-24,-24,29,82,87,53
24,39,14,-31,4,26,-19,-24,34,82,87,53
24,39,14,-31,4,26,-19,-19,34,82,87,53
24,34,9,-29,7,21,-19,-19,39,82,87,53
19,34,14,-26,2,24,-14,-19,43,82,87,58
19,34,14,-26,2,24,-9,-14,48,87,87,58
19,34,14,-26,2,24,-9,-14,53,87,87,58
19,34,14,-26,2,24,-9,-14,53,87,87,53
14,34,19,-24,-2,26,-4,-9,53,87,82,48
9,24,14,-17,-2,19,0,-9,53,82,78,43
4,14,9,-9,-2,12,4,-9,48,78,68,34
0,4,4,-2,-2,4,9,-4,43,68,63,29
-9,4,14,2,-12,9,14,-4,34,58,58,19
-9,-4,4,7,-7,0,14,-9,34,48,48,14
-14,-14,0,14,-7,-7,14,-9,34,48,48,9
-14,-29,-14,21,0,-21,24,-14,29,43,34,4
-24,-39,-14,31,-4,-26,29,-19,19,34,24,4
-24,-53,-29,39,2,-41,29,-19,14,34,24,0
-24,-63,-39,43,7,-51,34,-19,14,29,19,-4
-24,-68,-43,46,9,-56,43,-9,14,24,19,-4
-19,-68,-48,43,14,-58,48,-4,14,24,14,-9
-19,-68,-48,43,14,-58,58,0,19,24,14,-9
-14,-68,-53,41,19,-61,78,14,24,24,14,-14
-14,-73,-58,43,21,-65,102,39,34,24,9,-24
-29,-78,-48,53,9,-63,126,58,39,24,9,-34
-34,-87,-53,61,9,-70,165,58,43,19,4,-34
-43,-92,-48,68,2,-70,180,48,43,14,0,-34
-48,-87,-39,68,-4,-63,146,29,43,14,0,-29
-48,-68,-19,58,-14,-43,107,-14,39,14,4,-19
-34,-19,14,26,-24,-2,34,-63,24,14,9,-9
-19,0,19,9,-19,9,-29,-102,9,24,19,0
-9,9,19,0,-14,14,-58,-97,0,24,19,4
4,19,14,-12,-4,17,-68,-87,-9,24,24,9
14,29,14,-21,0,21,-78,-82,-24,24,24,9
24,29,4,-26,9,17,-78,-78,-39,9,24,9
34,19,-14,-26,24,2,-82,-63,-43,4,9,4
39,9,-29,-24,34,-9,-82,-43,-53,0,9,-4
34,4,-29,-19,31,-12,-68,-29,-48,0,9,-9
14,4,-9,-9,12,-2,-53,-14,-29,9,14,-9
0,14,14,-7,-7,14,-39,-9,-14,19,24,4
-4,19,24,-7,-14,21,-24,-9,4,43,39,19
-4,34,39,-14,-21,36,-24,-19,9,48,48,29
0,39,39,-19,-19,39,-24,-24,14,53,48,34
4,39,34,-21,-14,36,-24,-24,19,58,58,34
9,39,29,-24,-9,34,-24,-19,29,58,58,39
9,39,29,-24,-9,34,-19,-19,29,58,58,39
9,39,29,-24,-9,34,-19,-19,29,58,58,39
9,34,24,-21,-7,29,-19,-19,24,58,58,39
9,29,19,-19,-4,24,-19,-19,19,58,58,39
4,24,19,-14,-7,21,-19,-19,19,53,53,39
0,19,19,-9,-9,19,-19,-19,19,48,48,39
0,19,19,-9,-9,19,-19,-19,19,48,48,34
0,14,14,-7,-7,14,-14,-19,19,48,43,24
0,9,9,-4,-4,9,-9,-19,19,48,43,19
-4,9,14,-2,-9,12,-4,-19,19,53,39,19
-9,9,19,0,-14,14,0,-14,19,48,39,19
-9,9,19,0,-14,14,4,-14,19,48,39,14
-9,4,14,2,-12,9,9,-14,19,48,34,14
-14,4,19,4,-17,12,9,-14,19,48,34,14
-14,0,14,7,-14,7,14,-14,19,48,34,14
-14,-4,9,9,-12,2,24,-9,19,43,29,9
-19,-9,9,14,-14,0,29,-9,19,39,24,0
-19,-24,-4,21,-7,-14,34,-9,9,29,14,-4
-29,-29,0,29,-14,-14,34,-9,9,19,14,-9
-29,-43,-14,36,-7,-29,34,-9,4,19,9,-9
-34,-48,-14,41,-9,-31,39,-9,-4,19,4,-14
-34,-53,-19,43,-7,-36,39,-14,-4,9,0,-19
-39,-63,-24,51,-7,-43,48,-14,-4,9,4,-24
-39,-73,-34,56,-2,-53,53,-14,-9,0,-4,-34
-43,-82,-39,63,-2,-61,58,-14,-14,-9,-9,-34
-39,-87,-48,63,4,-68,63,-14,-19,-9,-14,-34
-39,-87,-48,63,4,-68,63,-9,-19,-4,-14,-34
-34,-87,-53,61,9,-70,68,-4,-14,0,-14,-34
-39,-92,-53,65,7,-73,73,4,-4,0,-14,-39
-39,-92,-53,65,7,-73,87,14,0,4,-14,-43
-39,-92,-53,65,7,-73,117,29,9,0,-9,-43
-39,-92,-53,65,7,-73,151,39,14,-4,-9,-43
-43,-97,-53,70,4,-75,151,39,14,-4,-9,-48
-53,-92,-39,73,-7,-65,151,39,14,-4,-14,-48
-63,-87,-24,75,-19,-56,141,9,14,-4,-14,-43
-63,-58,4,61,-34,-26,107,-29,14,0,-14,-34
-53,-24,29,39,-41,2,34,-63,14,4,0,-24
-34,9,43,12,-39,26,-29,-92,9,14,14,-4
-19,14,34,2,-26,24,-68,-97,0,19,19,4
-9,19,29,-4,-19,24,-63,-87,-9,19,19,4
4,29,24,-17,-9,26,-68,-78,-19,19,19,4
14,34,19,-24,-2,26,-68,-73,-29,14,19,4
24,34,9,-29,7,21,-73,-63,-39,9,14,0
39,14,-24,-26,31,-4,-73,-43,-53,4,9,-4
34,14,-19,-24,26,-2,-68,-24,-43,4,9,-4
19,14,-4,-17,12,4,-53,-9,-24,9,14,0
4,19,14,-12,-4,17,-39,-14,-9,29,29,9
0,39,39,-19,-19,39,-29,-24,39,73,68,34
0,78,78,-39,-39,78,-29,-14,102,165,151,87
9,141,131,-75,-61,136,-43,-9,204,302,268,165
14,258,244,-136,-114,251,-63,-14,356,522,453,287
24,429,405,-226,-190,417,-107,-29,585,854,751,483
58,546,488,-302,-214,517,-141,4,766,1132,1019,668
126,619,492,-373,-183,556,-175,82,878,1371,1249,819
209,717,507,-463,-148,612,-248,48,814,1522,1459,990
273,883,610,-578,-168,746,-366,-92,639,1566,1590,1156
322,1029,707,-675,-192,868,-502,-331,141,1356,1551,1229
478,1122,644,-800,-82,883,-688,-536,-424,961,1351,1249
727,1058,331,-893,197,695,-844,-658,-1034,400,941,1122
990,746,-244,-868,617,251,-956,-756,-1820,-414,361,834
1127,448,-678,-788,902,-114,-995,-844,-2357,-1034,-43,653
980,190,-790,-585,885,-300,-834,-814,-2259,-1058,-102,590
551,161,-390,-356,470,-114,-600,-790,-1781,-873,-122,478
48,-63,-112,7,80,-87,-209,-517,-1063,-727,-375,0
-102,-195,-92,148,-4,-143,9,-170,-512,-512,-424,-253
-87,-161,-73,124,-7,-117,24,-92,-278,-317,-287,-200
-68,-161,-92,114,12,-126,34,-53,-156,-214,-200,-170
-48,-112,-63,80,7,-87,34,-48,-97,-165,-165,-126
-48,-73,-24,61,-12,-48,39,-34,-39,-112,-117,-92
-53,-73,-19,63,-17,-46,43,-9,-29,-82,-92,-87
-39,-78,-39,58,0,-58,43,-4,-29,-82,-92,-87
-39,-78,-39,58,0,-58,43,0,-29,-87,-92,-87
-43,-82,-39,63,-2,-61,48,0,-24,-87,-102,-87
-48,-92,-43,70,-2,-68,58,4,-19,-92,-102,-97
-48,-107,-58,78,4,-82,58,4,-19,-92,-102,-97
-48,-117,-68,82,9,-92,63,9,-19,-97,-107,-102
-53,-117,-63,85,4,-90,68,9,-24,-107,-107,-107
-63,-126,-63,95,0,-95,73,14,-24,-107,-112,-122
-58,-126,-68,92,4,-97,82,19,-19,-107,-112,-122
-43,-126,-82,85,19,-104,87,29,-14,-107,-107,-117
-39,-126,-87,82,24,-107,92,43,-9,-102,-112,-117
-34,-126,-92,80,29,-109,102,53,-4,-102,-117,-117
-34,-131,-97,82,31,-114,117,73,0,-97,-112,-117
-39,-141,-102,90,31,-122,141,78,14,-97,-112,-117
-43,-141,-97,92,26,-119,156,92,19,-97,-112,-122
-53,-141,-87,97,17,-114,170,102,24,-97,-117,-126
-53,-131,-78,92,12,-104,156,92,29,-97,-117,-126
-53,-107,-53,80,0,-80,117,53,34,-97,-117,-117
-48,-78,-29,63,-9,-53,68,24,34,-87,-102,-112
-34,-48,-14,41,-9,-31,0,-14,19,-87,-97,-97
-24,-39,-14,31,-4,-26,-34,-34,9,-92,-97,-92
-14,-29,-14,21,0,-21,-24,-19,0,-97,-97,-92
-4,-29,-24,17,9,-26,-24,-9,-9,-97,-97,-92
0,-29,-29,14,14,-29,-24,4,-24,-102,-97,-92
9,-29,-39,9,24,-34,-24,14,-43,-102,-107,-97
19,-39,-58,9,39,-48,-24,34,-48,-107,-117,-112
24,-34,-58,4,41,-46,-19,53,-34,-102,-112,-107
9,-29,-39,9,24,-34,-4,68,-14,-92,-107,-97
-4,-29,-24,17,9,-26,4,73,0,-78,-97,-92
-14,-24,-9,19,-2,-17,14,68,34,-48,-73,-78
-9,-19,-9,14,0,-14,19,68,48,-34,-68,-68
-4,-9,-4,7,0,-7,14,63,58,-29,-63,-63
4,0,-4,-2,4,-2,9,63,63,-29,-53,-58
4,0,-4,-2,4,-2,9,73,78,-19,-53,-58
9,0,-9,-4,9,-4,9,73,87,-24,-53,-58
9,0,-9,-4,9,-4,9,78,92,-24,-48,-58
4,0,-4,-2,4,-2,14,87,97,-24,-48,-63
4,0,-4,-2,4,-2,24,92,102,-24,-48,-68
4,0,-4,-2,4,-2,29,97,107,-24,-53,-68
4,-4,-9,0,7,-7,34,107,112,-24,-53,-73
9,-4,-14,-2,12,-9,34,112,117,-24,-68,-78
9,-4,-14,-2,12,-9,39,122,122,-24,-68,-82
9,-9,-19,0,14,-14,43,126,126,-29,-68,-87
4,-14,-19,4,12,-17,53,136,136,-29,-73,-92
0,-19,-19,9,9,-19,58,151,146,-34,-82,-97
-9,-24,-14,17,2,-19,63,161,156,-34,-87,-102
-14,-24,-9,19,-2,-17,68,170,165,-34,-92,-102
-14,-24,-9,19,-2,-17,82,180,175,-43,-97,-107
-19,-29,-9,24,-4,-19,87,190,185,-48,-107,-112
-19,-34,-14,26,-2,-24,97,200,195,-58,-117,-122
-19,-43,-24,31,2,-34,107,209,195,-68,-136,-136
-34,-48,-14,41,-9,-31,112,219,195,-82,-151,-151
-39,-58,-19,48,-9,-39,122,229,200,-92,-165,-165
-43,-68,-24,56,-9,-46,131,234,204,-112,-185,-180
-53,-78,-24,65,-14,-51,136,239,204,-131,-204,-195
-63,-87,-24,75,-19,-56,146,239,204,-146,-229,-214
-73,-97,-24,85,-24,-61,156,239,209,-165,-253,-229
-82,-112,-29,97,-26,-70,165,239,209,-180,-268,-248
-107,-122,-14,114,-46,-68,170,239,204,-195,-287,-263
-122,-131,-9,126,-56,-70,180,229,204,-209,-307,-278
-131,-141,-9,136,-61,-75,185,229,200,-224,-322,-292
-136,-141,-4,139,-65,-73,185,224,195,-239,-331,-297
-131,-146,-14,139,-58,-80,190,214,195,-248,-336,-307
-131,-146,-14,139,-58,-80,200,204,195,-248,-346,-317
-136,-156,-19,146,-58,-87,209,204,190,-244,-346,-317
-141,-156,-14,148,-63,-85,219,200,190,-244,-346,-322
-146,-161,-14,153,-65,-87,234,195,190,-244,-346,-317
-151,-165,-14,158,-68,-90,253,185,180,-239,-341,-312
-156,-165,-9,161,-73,-87,244,170,165,-234,-331,-302
-156,-165,-9,161,-73,-87,234,131,136,-224,-312,-287
-156,-151,4,153,-80,-73,175,92,112,-204,-283,-258
-146,-117,29,131,-87,-43,102,34,82,-180,-239,-224
-126,-78,48,102,-87,-14,43,-14,48,-156,-209,-190
-97,-53,43,75,-70,-4,19,-53,19,-131,-170,-161
-78,-39,39,58,-58,0,4,-68,0,-112,-146,-131
-58,-24,34,41,-46,4,0,-63,-14,-87,-107,-97
-34,-9,24,21,-29,7,-9,-58,-29,-68,-78,-73
-4,-14,-9,9,2,-12,-29,-53,-58,-63,-68,-63
0,-19,-19,9,9,-19,-39,-39,-68,-53,-58,-53
4,-19,-24,7,14,-21,-34,-24,-53,-39,-43,-39
-4,-14,-9,9,2,-12,-34,-19,-53,-14,-14,-19
-14,0,14,7,-14,7,-24,-24,-34,4,9,0
-9,14,24,-2,-17,19,-24,-29,-19,29,29,19
0,24,24,-12,-12,24,-29,-34,-4,48,48,39
0,39,39,-19,-19,39,-29,-39,9,68,68,48
4,48,43,-26,-19,46,-29,-39,9,73,73,48
19,48,29,-34,-4,39,-29,-39,9,78,78,53
19,48,29,-34,-4,39,-34,-39,14,78,82,53
19,48,29,-34,-4,39,-34,-34,19,82,82,58
24,48,24,-36,0,36,-34,-34,19,87,82,58
24,48,24,-36,0,36,-34,-34,24,92,87,63
24,48,24,-36,0,36,-34,-29,24,92,87,63
24,43,19,-34,2,31,-29,-29,24,92,87,68
24,43,19,-34,2,31,-29,-29,29,92,87,68
19,39,19,-29,0,29,-29,-29,34,92,87,68
14,39,24,-26,-4,31,-24,-24,39,92,87,63
14,39,24,-26,-4,31,-19,-24,43,92,87,63
14,39,24,-26,-4,31,-19,-19,43,92,87,63
19,34,14,-26,2,24,-19,-19,43,92,87,58
19,34,14,-26,2,24,-14,-19,43,92,87,58
19,34,14,-26,2,24,-9,-14,48,92,87,58
19,34,14,-26,2,24,-9,-14,53,87,87,58
14,29,14,-21,0,21,-9,-14,53,82,82,53
4,24,19,-14,-7,21,-4,-9,53,78,73,48
4,19,14,-12,-4,17,0,-14,48,73,68,43
4,14,9,-9,-2,12,4,-19,39,68,58,34
0,4,4,-2,-2,4,4,-14,34,58,53,29
-9,4,14,2,-12,9,4,-14,24,48,48,19
-9,-4,4,7,-7,0,4,-19,19,39,39,14
-14,-14,0,14,-7,-7,4,-19,14,39,39,9
-9,-24,-14,17,2,-19,14,-19,9,29,24,0
-14,-29,-14,21,0,-21,19,-19,0,14,14,-4
-14,-39,-24,26,4,-31,19,-19,-4,14,14,-14
-14,-43,-29,29,7,-36,24,-19,-4,9,9,-24
-14,-48,-34,31,9,-41,34,-9,0,4,9,-24
-9,-48,-39,29,14,-43,39,-4,4,4,4,-29
-9,-43,-34,26,12,-39,48,0,9,4,0,-29
-4,-39,-34,21,14,-36,68,14,14,4,-4,-34
-4,-43,-39,24,17,-41,92,29,19,4,-9,-43
-19,-48,-29,34,4,-39,117,39,19,4,-9,-53
-24,-48,-24,36,0,-36,141,24,19,0,-14,-53
-34,-43,-9,39,-12,-26,141,0,14,-4,-19,-53
-34,-34,0,34,-17,-17,87,-24,9,-4,-19,-53
-29,-9,19,19,-24,4,29,-73,0,-4,-14,-48
-19,34,53,-7,-36,43,-29,-102,-9,-9,-9,-39
-9,48,58,-19,-34,53,-78,-122,-19,-4,0,-29
0,58,58,-29,-29,58,-97,-117,-29,-4,-4,-24
14,68,53,-41,-19,61,-97,-107,-39,-4,-4,-19
24,68,43,-46,-9,56,-107,-97,-53,-4,-4,-24
34,58,24,-46,4,41,-107,-87,-68,-19,-4,-29
39,48,9,-43,14,29,-107,-73,-68,-19,-19,-29
39,39,0,-39,19,19,-102,-53,-73,-19,-19,-34
39,39,0,-39,19,19,-87,-39,-63,-19,-14,-34
24,43,19,-34,2,31,-73,-24,-39,-9,-4,-29
14,48,34,-31,-9,41,-63,-29,-24,0,4,-19
14,48,34,-31,-9,41,-53,-39,-4,24,19,-9
14,63,48,-39,-17,56,-53,-48,-4,24,29,0
24,68,43,-46,-9,56,-53,-53,0,29,34,4
24,68,43,-46,-9,56,-48,-48,4,29,29,4
29,68,39,-48,-4,53,-48,-48,9,29,29,9
29,68,39,-48,-4,53,-48,-48,9,29,29,9
29,68,39,-48,-4,53,-48,-48,9,29,29,9
24,63,39,-43,-7,51,-48,-48,4,29,29,9
19,58,39,-39,-9,48,-48,-48,0,29,29,9
19,53,34,-36,-7,43,-43,-43,0,29,34,9
19,43,24,-31,-2,34,-34,-39,0,29,34,4
19,39,19,-29,0,29,-29,-39,0,29,34,0
14,39,24,-26,-4,31,-24,-39,0,34,29,0
9,39,29,-24,-9,34,-19,-34,0,29,29,0
9,39,29,-24,-9,34,-14,-34,0,29,29,-4
9,34,24,-21,-7,29,-9,-34,0,29,24,-4
4,34,29,-19,-12,31,-9,-34,0,29,24,-4
4,34,29,-19,-12,31,-9,-34,0,29,24,0
4,34,29,-19,-12,31,-4,-29,0,24,19,0
0,29,29,-14,-14,29,0,-29,4,24,14,-9
0,14,14,-7,-7,14,4,-29,0,19,4,-14
-9,9,19,0,-14,14,9,-29,0,9,4,-19
-9,-4,4,7,-7,0,14,-29,-4,9,0,-19
-14,-9,4,12,-9,-2,19,-29,-19,4,-4,-24
-14,-14,0,14,-7,-7,19,-34,-24,-9,-9,-29
-19,-24,-4,21,-7,-14,24,-34,-24,-9,-9,-34
-19,-34,-14,26,-2,-24,24,-34,-29,-19,-24,-43
-29,-48,-19,39,-4,-34,29,-34,-34,-29,-29,-48
-29,-58,-29,43,0,-43,34,-34,-39,-29,-34,-53
-29,-58,-29,43,0,-43,34,-34,-43,-29,-34,-58
-24,-58,-34,41,4,-46,39,-34,-43,-29,-34,-63
-24,-63,-39,43,7,-51,39,-24,-34,-29,-34,-63
-19,-63,-43,41,12,-53,48,-14,-29,-24,-34,-63
-19,-63,-43,41,12,-53,68,0,-19,-24,-34,-63
-19,-63,-43,41,12,-53,92,9,-14,-24,-39,-63
-24,-78,-53,51,14,-65,112,24,-9,-24,-39,-68
-34,-82,-48,58,7,-65,131,39,-4,-24,-43,-68
-43,-87,-43,65,0,-65,156,29,-4,-24,-39,-68
-43,-68,-24,56,-9,-46,156,9,-4,-19,-34,-63
-39,-34,4,36,-21,-14,82,-43,0,-9,-19,-53
-24,0,24,12,-24,12,19,-92,0,4,-4,-34
-9,9,19,0,-14,14,-48,-112,-4,9,4,-14
0,19,19,-9,-9,19,-73,-117,-9,9,9,-4
9,29,19,-19,-4,24,-78,-107,-19,14,9,-4
14,34,19,-24,-2,26,-78,-102,-29,14,9,-4
24,34,9,-29,7,21,-82,-92,-39,9,4,-9
39,14,-24,-26,31,-4,-82,-73,-53,4,0,-14
39,9,-29,-24,34,-9,-82,-48,-58,0,0,-19
29,4,-24,-17,26,-9,-73,-29,-53,0,4,-19
9,-4,-14,-2,12,-9,-53,-14,-53,0,0,-14
0,0,0,0,0,0,-39,-4,-19,24,19,4
0,14,14,-7,-7,14,-34,-4,19,78,68,39
9,53,43,-31,-17,48,-43,-9,97,175,151,97
9,156,146,-82,-68,151,-58,-14,229,356,297,190
14,312,297,-163,-141,305,-97,-29,439,649,556,356
34,444,409,-239,-187,427,-112,4,688,961,834,541
87,531,444,-309,-178,488,-126,82,868,1234,1073,692
165,600,434,-383,-134,517,-170,126,951,1493,1361,883
224,736,512,-480,-143,624,-258,63,922,1644,1571,1068
219,941,722,-580,-251,832,-380,-195,517,1586,1659,1205
322,1093,771,-707,-224,932,-551,-419,43,1342,1586,1288
590,1161,570,-875,9,866,-761,-561,-551,849,1234,1220
873,980,107,-927,383,544,-927,-678,-1322,102,712,990
1195,610,-585,-902,890,12,-1068,-829,-2235,-829,117,741
1234,278,-956,-756,1095,-339,-1010,-863,-2513,-1166,-131,610
790,268,-522,-529,656,-126,-800,-932,-2132,-1000,-87,600
273,63,-209,-168,241,-73,-434,-751,-1512,-873,-278,224
9,-131,-141,61,75,-136,-117,-307,-795,-629,-405,-156
-87,-161,-73,124,-7,-117,-4,-131,-395,-405,-346,-229
-68,-161,-92,114,12,-126,4,-82,-239,-287,-244,-200
-48,-112,-63,80,7,-87,4,-68,-146,-224,-195,-156
-43,-63,-19,53,-12,-41,14,-53,-68,-146,-136,-112
-43,-53,-9,48,-17,-31,24,-29,-39,-92,-102,-97
-24,-58,-34,41,4,-46,24,-19,-39,-87,-97,-97
-19,-58,-39,39,9,-48,24,-9,-39,-87,-92,-97
-24,-58,-34,41,4,-46,29,-9,-34,-87,-102,-97
-29,-63,-34,46,2,-48,39,-4,-29,-92,-102,-107
-34,-78,-43,56,4,-61,39,-4,-29,-92,-102,-107
-39,-87,-48,63,4,-68,43,0,-29,-97,-107,-112
-43,-97,-53,70,4,-75,43,0,-39,-112,-117,-117
-53,-117,-63,85,4,-90,43,4,-43,-117,-131,-131
-53,-117,-63,85,4,-90,48,0,-43,-122,-131,-131
-43,-117,-73,80,14,-95,48,0,-43,-126,-126,-126
-39,-112,-73,75,17,-92,53,14,-39,-122,-131,-126
-34,-107,-73,70,19,-90,63,24,-34,-122,-136,-126
-29,-107,-78,68,24,-92,78,43,-29,-117,-131,-131
-29,-112,-82,70,26,-97,102,48,-14,-117,-131,-136
-29,-112,-82,70,26,-97,126,73,-9,-117,-131,-146
-34,-112,-78,73,21,-95,151,92,-4,-117,-136,-156
-39,-112,-73,75,17,-92,165,102,0,-117,-136,-156
-43,-97,-53,70,4,-75,156,82,4,-117,-136,-146
-43,-68,-24,56,-9,-46,107,53,9,-107,-122,-141
-34,-39,-4,36,-14,-21,39,14,0,-107,-117,-126
-24,-24,0,24,-12,-12,-24,-34,-4,-107,-117,-117
-14,-9,4,12,-9,-2,-43,-48,-9,-107,-117,-112
-4,-4,0,4,-2,-2,-43,-43,-19,-107,-117,-112
0,0,0,0,0,0,-43,-34,-34,-112,-117,-112
14,0,-14,-7,14,-7,-48,-24,-58,-117,-126,-117
29,-9,-39,-9,34,-24,-53,-4,-68,-126,-136,-131
39,-14,-53,-12,46,-34,-53,19,-73,-136,-141,-136
29,-19,-48,-4,39,-34,-43,39,-73,-141,-146,-136
14,-19,-34,2,24,-26,-34,48,-58,-126,-136,-131
4,-14,-19,4,12,-17,-24,48,-24,-97,-112,-117
4,-4,-9,0,7,-7,-14,48,4,-73,-102,-97
4,9,4,-7,0,7,-14,43,29,-58,-92,-82
14,19,4,-17,4,12,-14,43,34,-58,-82,-78
14,19,4,-17,4,12,-9,53,48,-48,-82,-78
19,19,0,-19,9,9,-9,53,58,-48,-82,-78
19,19,0,-19,9,9,-9,58,63,-43,-78,-78
19,19,0,-19,9,9,-9,68,68,-43,-73,-78
24,19,-4,-21,14,7,-4,73,73,-43,-68,-78
24,19,-4,-21,14,7,0,78,78,-43,-73,-78
24,14,-9,-19,17,2,4,87,82,-43,-73,-82
24,14,-9,-19,17,2,9,92,87,-43,-87,-87
19,14,-4,-17,12,4,19,102,92,-43,-87,-92
19,4,-14,-12,17,-4,24,112,97,-48,-82,-92
14,-4,-19,-4,17,-12,34,126,107,-48,-82,-92
14,-9,-24,-2,19,-17,43,136,117,-53,-92,-97
9,-14,-24,2,17,-19,53,141,126,-53,-97,-102
4,-14,-19,4,12,-17,53,151,136,-48,-102,-107
4,-14,-19,4,12,-17,63,161,146,-53,-107,-117
0,-14,-14,7,7,-14,63,170,156,-58,-112,-122
0,-14,-14,7,7,-14,68,180,165,-68,-117,-131
0,-24,-24,12,12,-24,78,195,175,-68,-131,-141
-14,-29,-14,21,0,-21,82,209,185,-73,-141,-151
-24,-43,-19,34,-2,-31,97,224,190,-82,-156,-161
-34,-58,-24,46,-4,-41,112,234,195,-102,-175,-170
-43,-68,-24,56,-9,-46,117,239,195,-122,-195,-185
-53,-78,-24,65,-14,-51,126,239,195,-136,-219,-204
-63,-87,-24,75,-19,-56,136,239,200,-156,-244,-219
-73,-102,-29,87,-21,-65,146,239,200,-170,-258,-239
-92,-112,-19,102,-36,-65,151,239,195,-185,-278,-253
-102,-122,-19,112,-41,-70,161,229,195,-200,-297,-268
-117,-136,-19,126,-48,-78,170,229,190,-214,-312,-283
-126,-141,-14,134,-56,-78,175,224,185,-229,-322,-287
-126,-146,-19,136,-53,-82,180,219,185,-239,-326,-292
-131,-146,-14,139,-58,-80,190,214,185,-239,-336,-297
-136,-156,-19,146,-58,-87,200,214,180,-239,-341,-297
-141,-156,-14,148,-63,-85,209,209,180,-244,-346,-302
-146,-161,-14,153,-65,-87,224,209,190,-244,-346,-302
-151,-165,-14,158,-68,-90,244,204,190,-239,-341,-302
-156,-175,-19,165,-68,-97,263,214,185,-234,-336,-302
-156,-185,-29,170,-63,-107,283,200,165,-224,-322,-297
-165,-175,-9,170,-78,-92,253,161,151,-204,-297,-268
-165,-146,19,156,-92,-63,209,102,131,-180,-258,-234
-146,-107,39,126,-92,-34,112,43,97,-156,-229,-200
-117,-82,34,100,-75,-24,48,-4,68,-131,-190,-170
-97,-68,29,82,-63,-19,29,-39,43,-112,-161,-141
-78,-53,24,65,-51,-14,19,-53,24,-87,-117,-107
-63,-29,34,46,-48,2,9,-53,9,-68,-87,-82
-43,-24,19,34,-31,-2,-9,-53,-19,-63,-78,-73
-14,-29,-14,21,0,-21,-29,-39,-53,-58,-68,-63
14,-29,-43,7,29,-36,-34,-24,-63,-48,-53,-48
4,-29,-34,12,19,-31,-34,-4,-63,-24,-24,-29
-4,-19,-14,12,4,-17,-24,4,-43,-4,0,-9
-14,-4,9,9,-12,2,-19,0,-19,24,29,9
-19,4,24,7,-21,14,-19,-4,4,48,58,29
-19,14,34,2,-26,24,-19,-14,24,73,78,53
-14,19,34,-2,-24,26,-19,-19,29,82,82,68
0,19,19,-9,-9,19,-14,-19,29,92,92,73
0,19,19,-9,-9,19,-14,-19,34,97,102,73
0,19,19,-9,-9,19,-14,-14,43,102,107,78
4,19,14,-12,-4,17,-14,-14,48,107,112,78
4,19,14,-12,-4,17,-14,-14,53,112,117,82
4,19,14,-12,-4,17,-14,-9,53,112,117,82
9,14,4,-12,2,9,-9,-4,53,112,117,87
14,14,0,-14,7,7,-9,0,58,112,117,87
14,14,0,-14,7,7,-9,0,58,112,112,87
14,19,4,-17,4,12,-4,4,58,112,107,82
9,19,9,-14,0,14,0,4,63,112,107,82
4,19,14,-12,-4,17,0,9,63,112,107,82
4,14,9,-9,-2,12,0,9,63,112,107,78
0,14,14,-7,-7,14,4,9,63,112,107,78
0,14,14,-7,-7,14,9,14,68,112,107,78
0,14,14,-7,-7,14,9,14,73,107,107,78
0,9,9,-4,-4,9,9,14,73,107,107,78
-4,4,9,0,-7,7,14,19,73,107,102,78
-4,0,4,2,-4,2,19,19,73,107,102,73
-4,-4,0,4,-2,-2,24,19,68,107,97,63
-9,-14,-4,12,-2,-9,24,19,63,97,92,58
-19,-14,4,17,-12,-4,24,14,53,87,87,48
-19,-24,-4,21,-7,-14,24,9,53,78,73,43
-24,-34,-9,29,-7,-21,24,9,53,78,68,39
-24,-48,-24,36,0,-36,34,4,48,68,53,24
-34,-58,-24,46,-4,-41,39,0,39,53,43,14
-39,-73,-34,56,-2,-53,39,0,29,48,39,9
-43,-82,-39,63,-2,-61,43,0,24,39,29,4
-43,-87,-43,65,0,-65,48,9,19,34,29,4
-39,-87,-48,63,4,-68,48,14,14,34,24,0
-39,-87,-48,63,4,-68,58,19,14,34,24,0
-34,-87,-53,61,9,-70,78,34,14,34,24,-4
-29,-92,-63,61,17,-78,97,48,24,34,19,-14
-39,-97,-58,68,9,-78,117,58,29,34,19,-24
-43,-102,-58,73,7,-80,165,73,39,29,14,-24
-53,-102,-48,78,-2,-75,190,78,43,24,9,-24
-63,-97,-34,80,-14,-65,185,63,53,19,9,-24
-68,-78,-9,73,-29,-43,175,24,58,14,14,-19
-58,-34,24,46,-41,-4,87,-29,48,14,19,-9
-48,-19,29,34,-39,4,9,-73,39,24,29,0
-39,-4,34,21,-36,14,-29,-82,29,29,29,4
-24,9,34,7,-29,21,-48,-87,19,34,34,9
-14,24,39,-4,-26,31,-63,-82,4,34,34,9
-4,29,34,-12,-19,31,-68,-78,-9,19,34,9
9,19,9,-14,0,14,-78,-63,-24,14,19,9
19,9,-9,-14,14,0,-82,-43,-43,9,19,4
19,-4,-24,-7,21,-14,-68,-24,-53,4,14,0
4,-14,-19,4,12,-17,-53,-4,-48,9,14,0
-14,0,14,7,-14,7,-34,0,-24,19,24,4
-24,9,34,7,-29,21,-14,0,4,43,39,9
-24,24,48,0,-36,36,-14,-9,9,48,48,19
-19,29,48,-4,-34,39,-14,-14,14,53,48,24
-14,29,43,-7,-29,36,-19,-19,19,58,53,24
-9,29,39,-9,-24,34,-24,-19,29,58,48,29
-4,34,39,-14,-21,36,-19,-19,29,58,48,29
0,39,39,-19,-19,39,-19,-19,29,58,48,29
0,39,39,-19,-19,39,-19,-19,24,58,48,29
0,39,39,-19,-19,39,-19,-19,19,58,48,29
0,34,34,-17,-17,34,-19,-19,19,53,48,29
0,29,29,-14,-14,29,-19,-19,19,48,48,29
-4,29,34,-12,-19,31,-19,-19,19,48,48,24
-4,24,29,-9,-17,26,-14,-19,19,43,43,14
-9,19,29,-4,-19,24,-9,-19,19,43,43,9
-14,19,34,-2,-24,26,-4,-19,19,43,39,9
-19,19,39,0,-29,29,0,-14,19,39,39,9
-19,19,39,0,-29,29,4,-14,19,39,39,4
-19,14,34,2,-26,24,9,-14,19,39,34,4
-24,14,39,4,-31,26,9,-14,19,39,34,4
-24,9,34,7,-29,21,9,-14,14,39,34,4
-24,4,29,9,-26,17,14,-9,9,34,29,0
-29,0,29,14,-29,14,19,-9,9,29,24,-9
-29,-14,14,21,-21,0,24,-9,0,19,14,-14
-39,-19,19,29,-29,0,29,-9,0,9,14,-19
-39,-34,4,36,-21,-14,34,-9,-4,9,9,-19
-43,-39,4,41,-24,-17,39,-9,-14,9,4,-24
-43,-43,0,43,-21,-21,39,-14,-14,0,0,-29
-48,-53,-4,51,-21,-29,43,-14,-14,0,0,-34
-48,-63,-14,56,-17,-39,43,-14,-19,-9,-14,-43
-53,-73,-19,63,-17,-46,48,-19,-24,-19,-19,-48
-48,-78,-29,63,-9,-53,53,-24,-29,-19,-24,-53
-48,-78,-29,63,-9,-53,53,-24,-34,-19,-24,-53
-43,-78,-34,61,-4,-56,58,-24,-34,-19,-24,-53
-43,-82,-39,63,-2,-61,63,-14,-24,-19,-29,-53
-39,-82,-43,61,2,-63,78,-4,-19,-14,-34,-53
-39,-82,-43,61,2,-63,97,14,-9,-14,-29,-53
-39,-82,-43,61,2,-63,122,29,-4,-14,-29,-53
-43,-92,-48,68,2,-70,136,39,0,-14,-29,-58
-53,-92,-39,73,-7,-65,151,48,4,-14,-34,-58
-63,-92,-29,78,-17,-61,156,29,4,-14,-34,-58
-63,-68,-4,65,-29,-36,136,0,4,-9,-34,-53
-58,-34,24,46,-41,-4,63,-48,4,-4,-14,-43
-43,0,43,21,-43,21,0,-92,0,4,4,-24
-29,9,39,9,-34,24,-53,-107,-4,9,9,-14
-19,19,39,0,-29,29,-63,-107,-9,9,9,-14
-9,29,39,-9,-24,34,-68,-97,-19,9,9,-14
-4,34,39,-14,-21,36,-68,-92,-29,4,9,-14
9,34,24,-21,-7,29,-78,-82,-39,0,4,-19
29,14,-14,-21,21,0,-82,-63,-53,-4,0,-24
29,9,-19,-19,24,-4,-82,-39,-58,-9,-4,-24
19,4,-14,-12,17,-4,-73,-19,-53,-9,-4,-19
0,4,4,-2,-2,4,-53,-14,-43,0,-4,-19
-9,19,29,-4,-19,24,-39,-14,0,34,19,-4
-9,39,48,-14,-29,43,-34,-14,43,97,82,34
0,82,82,-41,-41,82,-43,-19,126,204,180,97
4,195,190,-100,-92,192,-63,-24,273,400,336,204
14,361,346,-187,-165,353,-107,-39,497,707,605,385
39,478,439,-258,-200,458,-122,4,717,1010,888,570
97,551,453,-324,-178,502,-136,92,868,1273,1132,722
175,634,458,-405,-141,546,-190,107,917,1503,1390,907
234,785,551,-509,-158,668,-287,14,854,1625,1571,1088
248,976,727,-612,-239,851,-424,-248,424,1522,1620,1200
370,1112,741,-741,-185,927,-610,-478,-73,1234,1507,1259
634,1132,497,-883,68,814,-795,-614,-683,692,1112,1156
912,902,-9,-907,461,446,-936,-727,-1468,-102,546,893
1180,546,-634,-863,907,-43,-1049,-858,-2269,-932,19,668
1166,229,-936,-697,1051,-353,-961,-873,-2435,-1166,-161,561
707,219,-488,-463,597,-134,-736,-902,-2010,-976,-126,531
175,14,-161,-95,168,-73,-356,-683,-1346,-824,-326,136
-43,-156,-112,100,34,-134,-78,-263,-683,-585,-405,-190
-97,-161,-63,129,-17,-112,-4,-112,-336,-366,-297,-209
-78,-161,-82,119,2,-122,4,-68,-204,-253,-209,-180
-58,-112,-53,85,-2,-82,4,-58,-136,-195,-175,-136
-53,-73,-19,63,-17,-46,14,-43,-58,-122,-122,-97
-53,-73,-19,63,-17,-46,24,-19,-29,-73,-92,-87
-39,-78,-39,58,0,-58,29,-4,-29,-73,-87,-87
-39,-78,-39,58,0,-58,34,9,-29,-78,-82,-87
-43,-78,-34,61,-4,-56,39,9,-24,-78,-92,-87
-48,-82,-34,65,-7,-58,48,14,-19,-82,-92,-97
-53,-97,-43,75,-4,-70,48,9,-19,-82,-92,-97
-58,-107,-48,82,-4,-78,53,9,-19,-87,-97,-102
-63,-112,-48,87,-7,-80,58,9,-24,-102,-102,-107
-73,-126,-53,100,-9,-90,63,14,-24,-107,-112,-122
-73,-126,-53,100,-9,-90,68,14,-24,-107,-112,-126
-63,-126,-63,95,0,-95,68,19,-24,-107,-107,-126
-58,-126,-68,92,4,-97,73,34,-19,-102,-112,-126
-53,-126,-73,90,9,-100,82,43,-14,-102,-117,-126
-48,-126,-78,87,14,-102,97,63,-9,-97,-112,-122
-48,-131,-82,90,17,-107,122,68,4,-97,-112,-117
-48,-136,-87,92,19,-112,146,87,9,-97,-112,-122
-53,-141,-87,97,17,-114,170,102,14,-97,-117,-126
-53,-141,-87,97,17,-114,170,102,19,-97,-117,-126
-53,-126,-73,90,9,-100,146,73,24,-97,-117,-117
-53,-92,-39,73,-7,-65,97,43,24,-87,-102,-112
-43,-58,-14,51,-14,-36,29,4,9,-87,-97,-97
-34,-43,-9,39,-12,-26,-19,-29,4,-87,-97,-97
-24,-29,-4,26,-9,-17,-24,-29,0,-87,-97,-102
-14,-24,-9,19,-2,-17,-24,-24,-9,-87,-97,-102
-9,-19,-9,14,0,-14,-24,-14,-24,-92,-97,-102
0,-19,-19,9,9,-19,-34,-4,-48,-97,-107,-107
9,-29,-39,9,24,-34,-43,14,-58,-107,-117,-122
19,-34,-53,7,36,-43,-43,39,-58,-112,-117,-122
9,-39,-48,14,29,-43,-34,58,-53,-112,-117,-117
-4,-34,-29,19,12,-31,-24,68,-34,-102,-107,-107
-14,-24,-9,19,-2,-17,-14,68,4,-78,-82,-87
-14,-14,0,14,-7,-7,-4,68,29,-58,-73,-73
-14,0,14,7,-14,7,-4,63,48,-48,-63,-63
-4,9,14,-2,-9,12,-4,63,48,-48,-53,-58
-4,9,14,-2,-9,12,0,73,58,-39,-53,-58
0,9,9,-4,-4,9,4,73,68,-34,-48,-58
0,9,9,-4,-4,9,9,78,73,-24,-39,-58
0,9,9,-4,-4,9,9,87,82,-24,-39,-58
4,9,4,-7,0,7,14,92,92,-24,-39,-58
4,4,0,-4,2,2,19,97,97,-24,-43,-58
4,-4,-9,0,7,-7,24,107,102,-24,-43,-63
4,-4,-9,0,7,-7,24,112,102,-24,-58,-68
0,-4,-4,2,2,-4,29,122,102,-24,-58,-73
0,-4,-4,2,2,-4,34,126,107,-29,-58,-78
-4,-4,0,4,-2,-2,43,136,117,-29,-63,-82
-4,-9,-4,7,0,-7,53,146,126,-34,-73,-87
-9,-14,-4,12,-2,-9,63,151,136,-34,-78,-92
-14,-14,0,14,-7,-7,63,161,146,-34,-82,-97
-14,-14,0,14,-7,-7,73,170,156,-43,-87,-107
-19,-19,0,19,-9,-9,78,180,165,-48,-97,-112
-19,-24,-4,21,-7,-14,87,190,175,-58,-107,-122
-19,-34,-14,26,-2,-24,97,204,180,-63,-122,-131
-34,-39,-4,36,-14,-21,102,219,185,-73,-131,-141
-43,-48,-4,46,-19,-26,112,229,190,-78,-141,-156
-53,-58,-4,56,-24,-31,122,234,195,-92,-156,-170
-63,-68,-4,65,-29,-36,126,239,195,-112,-175,-180
-73,-78,-4,75,-34,-41,136,239,195,-126,-200,-195
-82,-87,-4,85,-39,-46,146,239,200,-146,-224,-209
-92,-102,-9,97,-41,-56,156,239,200,-161,-239,-229
-112,-112,0,112,-56,-56,161,239,195,-175,-258,-248
-122,-122,0,122,-61,-61,170,229,195,-190,-278,-268
-131,-131,0,131,-65,-65,175,229,190,-204,-297,-283
-136,-131,4,134,-70,-63,175,224,185,-219,-312,-287
-136,-136,0,136,-68,-68,180,219,185,-229,-317,-297
-141,-136,4,139,-73,-65,190,214,185,-229,-326,-307
-146,-146,0,146,-73,-73,200,214,180,-229,-326,-302
-151,-146,4,148,-78,-70,209,209,180,-234,-326,-302
-156,-156,0,156,-78,-78,224,209,185,-234,-326,-302
-161,-165,-4,163,-78,-85,244,204,180,-229,-322,-302
-170,-165,4,168,-87,-80,263,204,180,-224,-317,-297
-175,-165,9,170,-92,-78,283,180,165,-214,-302,-287
-175,-156,19,165,-97,-68,244,141,146,-195,-273,-258
-165,-126,39,146,-102,-43,190,82,122,-170,-229,-224
-146,-87,58,117,-102,-14,97,24,87,-151,-204,-190
-117,-63,53,90,-85,-4,39,-24,58,-131,-170,-161
-97,-48,48,73,-73,0,19,-53,29,-112,-146,-131
-78,-34,43,56,-61,4,9,-63,4,-87,-107,-97
-63,-4,58,34,-61,26,-4,-63,-9,-68,-78,-73
-43,4,48,19,-46,26,-29,-63,-39,-63,-68,-63
-19,-9,9,14,-14,0,-43,-43,-63,-58,-58,-58
4,-19,-24,7,14,-21,-43,-24,-63,-48,-43,-48
-4,-19,-14,12,4,-17,-43,-14,-63,-24,-14,-29
-14,-9,4,12,-9,-2,-34,-14,-43,-4,9,-9
-19,9,29,4,-24,19,-29,-19,-29,19,34,9
-19,24,43,-2,-31,34,-29,-24,-14,39,58,29
-19,39,58,-9,-39,48,-29,-34,4,58,78,43
-14,48,63,-17,-39,56,-29,-39,9,63,82,48
0,48,48,-24,-24,48,-29,-39,9,73,87,53
0,48,48,-24,-24,48,-34,-39,14,78,92,53
0,48,48,-24,-24,48,-34,-34,19,82,97,63
4,48,43,-26,-19,46,-34,-34,19,87,102,68
9,48,39,-29,-14,43,-34,-34,24,92,107,73
14,48,34,-31,-9,41,-34,-29,24,92,107,73
14,43,29,-29,-7,36,-29,-29,24,92,107,78
14,43,29,-29,-7,36,-29,-29,29,92,107,78
9,39,29,-24,-9,34,-29,-24,29,92,107,78
4,39,34,-21,-14,36,-24,-14,29,92,107,73
4,39,34,-21,-14,36,-19,-14,39,92,107,73
4,39,34,-21,-14,36,-19,-9,43,92,107,73
4,34,29,-19,-12,31,-19,-14,48,92,107,68
0,34,34,-17,-17,34,-14,-19,53,92,107,68
0,34,34,-17,-17,34,-9,-14,53,97,107,68
0,34,34,-17,-17,34,-9,-14,53,97,107,68
0,34,34,-17,-17,34,-9,-14,53,97,107,68
-4,34,39,-14,-21,36,-4,-9,53,97,102,68
-4,24,29,-9,-17,26,0,-9,53,92,97,63
-4,14,19,-4,-12,17,4,-9,48,87,87,53
-9,4,14,2,-12,9,9,-4,43,78,82,48
-19,4,24,7,-21,14,14,-4,34,68,78,39
-19,-4,14,12,-17,4,14,-9,34,58,68,34
-24,-14,9,19,-17,-2,14,-9,34,58,68,29
-24,-29,-4,26,-9,-17,24,-14,29,53,53,19
-34,-39,-4,36,-14,-21,29,-19,19,43,43,14
-34,-48,-14,41,-9,-31,29,-19,14,39,43,9
-34,-53,-19,43,-7,-36,34,-19,14,29,39,4
-34,-63,-29,48,-2,-46,43,-4,14,24,39,0
-29,-68,-39,48,4,-53,48,4,14,24,34,-9
-29,-68,-39,48,4,-53,58,9,19,29,34,-9
-24,-68,-43,46,9,-56,78,24,24,34,34,-14
-24,-73,-48,48,12,-61,102,43,39,34,29,-19
-39,-78,-39,58,0,-58,126,58,48,34,29,-24
-43,-82,-39,63,-2,-61,165,63,53,29,24,-24
-53,-82,-29,68,-12,-56,180,58,53,24,19,-24
-63,-78,-14,70,-24,-46,170,43,53,24,24,-24
-68,-58,9,63,-39,-24,156,4,48,24,34,-19
-58,-14,43,36,-51,14,63,-43,39,24,39,-4
-48,0,48,24,-48,24,-19,-82,29,34,48,9
-34,9,43,12,-39,26,-48,-92,19,34,48,14
-14,19,34,-2,-24,26,-58,-97,9,34,53,19
-4,34,39,-14,-21,36,-73,-92,-4,39,53,19
4,39,34,-21,-14,36,-78,-87,-19,29,53,19
19,29,9,-24,4,19,-82,-73,-29,24,34,19
29,19,-9,-24,19,4,-82,-53,-43,19,29,14
29,14,-14,-21,21,0,-68,-34,-43,14,29,9
14,14,0,-14,7,7,-53,-14,-29,19,34,9
-4,19,24,-7,-14,21,-39,-9,-9,29,43,19
-14,19,34,-2,-24,26,-24,-9,14,53,58,29
-14,34,48,-9,-31,41,-24,-19,19,58,73,43
-9,39,48,-14,-29,43,-24,-24,24,63,78,53
-4,39,43,-17,-24,41,-24,-24,29,73,87,53
0,39,39,-19,-19,39,-24,-19,39,78,87,58
0,39,39,-19,-19,39,-19,-19,39,78,87,58
0,39,39,-19,-19,39,-19,-19,39,78,87,58
0,34,34,-17,-17,34,-19,-19,39,73,87,58
0,29,29,-14,-14,29,-19,-19,39,68,87,58
0,29,29,-14,-14,29,-19,-14,39,68,87,53
0,29,29,-14,-14,29,-14,-9,39,68,82,48
-4,29,34,-12,-19,31,-14,-9,39,68,82,48
-9,19,29,-4,-19,24,-9,-9,39,63,82,39
-14,19,34,-2,-24,26,-4,-9,39,63,78,39
-19,19,39,0,-29,29,0,-4,39,58,78,39
-19,19,39,0,-29,29,9,-4,39,58,78,34
-19,14,34,2,-26,24,19,-4,39,58,73,34
-24,14,39,4,-31,26,19,-4,39,63,73,34
-24,9,34,7,-29,21,19,-4,39,68,73,34
-24,4,29,9,-26,17,24,0,39,63,68,34
-29,0,29,14,-29,14,29,0,39,58,63,29
-29,-14,14,21,-21,0,34,0,29,48,53,24
-39,-19,19,29,-29,0,39,0,29,39,53,19
-39,-29,9,34,-24,-9,43,0,24,34,48,14
-43,-29,14,36,-29,-7,48,0,14,29,43,4
-43,-29,14,36,-29,-7,43,-9,9,19,39,0
-48,-34,14,41,-31,-9,43,-14,4,19,39,-4
-48,-43,4,46,-26,-19,43,-14,0,9,19,-19
-58,-53,4,56,-31,-24,48,-14,-4,0,9,-29
-58,-63,-4,61,-26,-34,53,-14,-9,0,4,-34
-58,-68,-9,63,-24,-39,53,-14,-14,0,4,-34
-53,-68,-14,61,-19,-41,58,-14,-19,0,4,-34
-53,-73,-19,63,-17,-46,63,-4,-14,0,4,-34
-43,-68,-24,56,-9,-46,68,0,-9,0,4,-34
-39,-63,-24,51,-7,-43,78,9,0,-4,9,-34
-34,-63,-29,48,-2,-46,102,19,9,-4,9,-34
-34,-73,-39,53,2,-56,117,29,19,-4,9,-39
-43,-82,-39,63,-2,-61,151,53,24,-4,4,-43
-53,-92,-39,73,-7,-65,170,48,24,-4,4,-48
-58,-68,-9,63,-24,-39,170,29,24,0,4,-43
-58,-34,24,46,-41,-4,122,-4,24,4,19,-34
-43,4,48,19,-46,26,29,-68,19,14,34,-14
-29,19,48,4,-39,34,-48,-107,9,19,39,-4
-19,34,53,-7,-36,43,-58,-107,0,19,39,0
-9,48,58,-19,-34,53,-68,-97,-9,19,39,4
-4,53,58,-24,-31,56,-73,-97,-19,14,39,4
4,53,48,-29,-21,51,-82,-92,-29,9,34,0
24,34,9,-29,7,21,-82,-73,-53,0,24,-9
29,34,4,-31,12,19,-82,-53,-63,-4,19,-14
19,29,9,-24,4,19,-73,-34,-68,-9,9,-19
4,24,19,-14,-7,21,-58,-24,-68,0,9,-19
-4,24,29,-9,-17,26,-48,-24,-39,4,14,-14
-9,48,58,-19,-34,53,-48,-24,4,58,63,19
0,78,78,-39,-39,78,-53,-29,63,131,122,53
4,156,151,-80,-73,153,-63,-34,165,287,248,131
4,346,341,-175,-168,344,-107,-68,414,619,546,326
24,488,463,-256,-219,475,-131,-53,619,897,814,512
78,531,453,-305,-187,492,-126,92,834,1205,1073,663
146,600,453,-373,-153,527,-165,131,893,1434,1322,839
195,775,580,-485,-192,678,-253,43,941,1673,1590,1068
229,946,717,-588,-244,832,-366,-146,668,1668,1703,1210
326,1176,849,-751,-261,1012,-561,-414,195,1449,1673,1317
522,1263,741,-893,-109,1002,-732,-590,-326,1063,1424,1302
893,1015,122,-954,385,568,-941,-717,-1302,87,712,976
1156,741,-414,-949,785,163,-1088,-858,-2093,-766,122,702
1210,424,-785,-817,997,-180,-1044,-936,-2391,-1034,0,707
961,336,-624,-649,793,-143,-912,-1005,-2274,-1049,-48,673
278,73,-204,-175,241,-65,-429,-732,-1507,-922,-356,131
-58,-97,-39,78,-9,-68,-117,-380,-873,-707,-458,-195
-73,-97,-24,85,-24,-61,-58,-209,-492,-444,-326,-204
-78,-122,-43,100,-17,-82,-4,-82,-244,-283,-239,-219
-58,-73,-14,65,-21,-43,-4,-78,-170,-224,-190,-161
-53,-34,19,43,-36,-7,4,-63,-92,-156,-126,-112
-53,-29,24,41,-39,-2,14,-39,-63,-107,-87,-102
-39,-29,9,34,-24,-9,14,-34,-48,-92,-73,-97
-34,-29,4,31,-19,-12,14,-24,-48,-97,-73,-97
-34,-34,0,34,-17,-17,19,-19,-43,-97,-82,-97
-39,-43,-4,41,-17,-24,29,-14,-34,-97,-82,-107
-39,-58,-19,48,-9,-39,29,-14,-29,-92,-82,-107
-39,-68,-29,53,-4,-48,34,-9,-29,-97,-87,-112
-43,-73,-29,58,-7,-51,39,-9,-34,-107,-92,-117
-58,-92,-34,75,-12,-63,48,-4,-39,-107,-102,-131
-63,-97,-34,80,-14,-65,58,-4,-43,-107,-102,-131
-53,-102,-48,78,-2,-75,58,0,-43,-107,-97,-126
-48,-107,-58,78,4,-82,63,14,-39,-102,-97,-126
-39,-107,-68,73,14,-87,68,24,-34,-102,-102,-126
-34,-107,-73,70,19,-90,78,43,-29,-97,-102,-126
-39,-112,-73,75,17,-92,102,48,-14,-97,-102,-126
-39,-112,-73,75,17,-92,122,68,-9,-97,-102,-131
-43,-117,-73,80,14,-95,156,97,0,-97,-107,-136
-43,-122,-78,82,17,-100,170,112,9,-97,-107,-136
-48,-122,-73,85,12,-97,175,97,24,-97,-107,-126
-53,-107,-53,80,0,-80,156,82,34,-87,-92,-122
-43,-63,-19,53,-12,-41,63,34,19,-87,-82,-102
-34,-34,0,34,-17,-17,-4,-9,14,-87,-78,-92
-24,-14,9,19,-17,-2,-19,-29,9,-82,-78,-92
-14,-4,9,9,-12,2,-34,-43,0,-78,-78,-92
-9,0,9,4,-9,4,-34,-34,-14,-82,-78,-92
0,0,0,0,0,0,-39,-24,-34,-87,-87,-97
14,-9,-24,-2,19,-17,-43,-4,-48,-102,-97,-112
29,-14,-43,-7,36,-29,-43,19,-58,-112,-97,-112
19,-24,-43,2,31,-34,-34,43,-68,-126,-112,-112
4,-29,-34,12,19,-31,-24,58,-68,-126,-117,-112
-9,-24,-14,17,2,-19,-14,58,-34,-97,-82,-97
-14,-14,0,14,-7,-7,-4,58,-9,-78,-63,-82
-14,4,19,4,-17,12,-9,48,14,-58,-53,-73
-4,19,24,-7,-14,21,-14,43,24,-48,-43,-68
-4,24,29,-9,-17,26,-9,53,39,-39,-43,-63
0,29,29,-14,-14,29,-9,53,48,-39,-43,-58
4,29,24,-17,-9,26,-9,58,53,-34,-39,-58
9,29,19,-19,-4,24,-9,68,58,-34,-39,-58
14,29,14,-21,0,21,-4,73,63,-34,-39,-63
14,29,14,-21,0,21,0,78,68,-34,-43,-68
14,19,4,-17,4,12,0,87,68,-39,-43,-73
14,14,0,-14,7,7,0,92,68,-43,-58,-78
9,14,4,-12,2,9,9,102,73,-43,-58,-82
9,9,0,-9,4,4,14,107,78,-48,-58,-87
4,4,0,-4,2,2,29,117,87,-43,-63,-92
4,0,-4,-2,4,-2,39,126,97,-43,-73,-97
0,0,0,0,0,0,43,131,107,-43,-78,-102
-4,4,9,0,-7,7,43,141,117,-43,-82,-107
-4,4,9,0,-7,7,53,151,126,-53,-87,-117
-9,0,9,4,-9,4,58,161,136,-58,-97,-122
-9,0,9,4,-9,4,63,170,146,-68,-107,-131
-9,-4,4,7,-7,0,68,180,151,-73,-126,-146
-19,-4,14,12,-17,4,73,190,156,-82,-136,-151
-24,-9,14,17,-19,2,82,200,161,-92,-146,-156
-34,-14,19,24,-26,2,92,204,165,-112,-161,-170
-43,-19,24,31,-34,2,97,209,165,-131,-175,-185
-53,-29,24,41,-39,-2,102,214,165,-146,-200,-204
-63,-39,24,51,-43,-7,107,219,170,-165,-224,-219
-73,-53,19,63,-46,-17,117,219,170,-175,-239,-239
-92,-63,29,78,-61,-17,122,219,165,-185,-258,-253
-102,-73,29,87,-65,-21,131,209,165,-200,-278,-273
-112,-82,29,97,-70,-26,136,209,161,-214,-297,-292
-122,-87,34,104,-78,-26,136,204,161,-229,-312,-297
-126,-97,29,112,-78,-34,141,200,165,-239,-317,-307
-131,-97,34,114,-82,-31,151,190,165,-239,-331,-317
-136,-107,29,122,-82,-39,161,185,161,-239,-336,-317
-141,-107,34,124,-87,-36,170,180,161,-244,-336,-322
-146,-112,34,129,-90,-39,185,175,161,-244,-336,-322
-151,-117,34,134,-92,-41,204,175,161,-239,-336,-326
-156,-117,39,136,-97,-39,204,180,161,-234,-331,-322
-156,-136,19,146,-87,-58,244,175,146,-224,-317,-317
-156,-141,14,148,-85,-63,244,161,136,-204,-292,-297
-156,-107,48,131,-102,-29,200,102,122,-180,-248,-263
-146,-68,78,107,-112,4,131,53,97,-156,-219,-229
-117,-39,78,78,-97,19,53,-9,68,-131,-180,-200
-97,-19,78,58,-87,29,0,-58,43,-112,-156,-170
-78,0,78,39,-78,39,-9,-73,19,-87,-117,-131
-63,24,87,19,-75,56,-19,-82,0,-68,-87,-102
-43,39,82,2,-63,61,-39,-97,-29,-63,-78,-92
-24,48,73,-12,-48,61,-53,-97,-53,-58,-68,-82
9,39,29,-24,-9,34,-68,-73,-82,-63,-63,-78
14,29,14,-21,0,21,-82,-53,-112,-53,-43,-68
4,24,19,-14,-7,21,-63,-43,-92,-34,-19,-48
0,24,24,-12,-12,24,-48,-39,-78,-9,0,-29
-9,34,43,-12,-26,39,-48,-43,-58,9,24,-4
-19,48,68,-14,-43,58,-48,-48,-34,29,48,14
-14,63,78,-24,-46,70,-48,-53,-29,39,53,19
0,68,68,-34,-34,68,-48,-58,-29,48,58,24
4,73,68,-39,-31,70,-58,-58,-19,48,63,24
9,78,68,-43,-29,73,-63,-53,-9,53,68,29
14,78,63,-46,-24,70,-63,-53,-9,58,73,29
14,78,63,-46,-24,70,-63,-53,-4,63,78,34
14,78,63,-46,-24,70,-58,-48,-4,63,82,34
14,73,58,-43,-21,65,-48,-48,-4,63,87,39
14,73,58,-43,-21,65,-48,-43,0,63,87,43
14,68,53,-41,-19,61,-48,-39,0,63,87,48
14,63,48,-39,-17,56,-43,-34,0,63,87,48
14,58,43,-36,-14,51,-39,-34,4,63,87,53
14,58,43,-36,-14,51,-39,-29,0,63,87,53
14,53,39,-34,-12,46,-39,-29,0,63,87,48
9,53,43,-31,-17,48,-34,-29,4,68,87,48
9,53,43,-31,-17,48,-29,-24,9,78,87,48
9,53,43,-31,-17,48,-29,-24,19,78,87,48
9,48,39,-29,-14,43,-29,-24,24,78,87,48
4,53,48,-29,-21,51,-24,-19,24,78,82,48
4,53,48,-29,-21,51,-19,-19,24,73,78,43
4,43,39,-24,-17,41,-14,-19,24,73,68,34
0,34,34,-17,-17,34,-9,-14,24,68,63,29
-9,34,43,-12,-26,39,-4,-14,14,58,58,19
-9,24,34,-7,-21,29,-4,-19,14,48,48,14
-14,14,29,0,-21,21,-4,-19,14,43,48,9
-14,0,14,7,-14,7,4,-19,9,34,34,0
-24,-9,14,17,-19,2,9,-24,0,24,24,-4
-24,-19,4,21,-14,-7,9,-29,-4,24,24,-9
-29,-29,0,29,-14,-14,9,-29,-4,19,19,-14
-34,-39,-4,36,-14,-21,14,-19,-4,14,19,-14
-29,-43,-14,36,-7,-29,14,-19,-9,9,14,-19
-29,-48,-19,39,-4,-34,19,-19,-9,4,14,-19
-19,-48,-29,34,4,-39,29,-4,-4,4,14,-24
-14,-53,-39,34,12,-46,39,9,4,4,9,-29
-24,-58,-34,41,4,-46,58,24,9,4,9,-34
-24,-63,-39,43,7,-51,82,29,14,0,4,-34
-34,-78,-43,56,4,-61,122,53,24,-4,-4,-43
-39,-87,-48,63,4,-68,141,73,34,-4,-9,-53
-53,-82,-29,68,-12,-56,161,43,34,-4,-4,-48
-58,-53,4,56,-31,-24,136,14,29,-4,0,-39
-48,-24,24,36,-36,0,34,-48,19,14,14,-24
-39,0,39,19,-39,19,-39,-87,9,24,19,-14
-24,19,43,2,-34,31,-63,-102,0,24,24,-4
-14,39,53,-12,-34,46,-87,-112,-14,24,24,0
-4,53,58,-24,-31,56,-87,-112,-29,9,24,0
4,58,53,-31,-24,56,-92,-102,-34,4,9,0
24,48,24,-36,0,36,-107,-82,-58,-4,4,-9
39,43,4,-41,17,24,-107,-68,-73,-9,0,-19
24,29,4,-26,9,17,-92,-39,-73,-9,0,-24
9,19,9,-14,0,14,-78,-19,-73,-9,4,-19
-4,19,24,-7,-14,21,-53,-9,-43,14,19,-19
-14,34,48,-9,-31,41,-43,-9,-29,19,29,-19
-9,39,48,-14,-29,43,-43,-24,-24,24,29,-4
-4,39,43,-17,-24,41,-43,-34,-19,29,39,4
4,43,39,-24,-17,41,-48,-34,-14,34,39,4
9,53,43,-31,-17,48,-53,-39,-9,39,39,14
9,53,43,-31,-17,48,-53,-39,-9,39,48,14
9,53,43,-31,-17,48,-53,-39,-9,39,53,14
9,48,39,-29,-14,43,-48,-39,-9,39,48,9
9,48,39,-29,-14,43,-48,-39,-9,39,48,9
9,48,39,-29,-14,43,-43,-39,-9,39,39,9
9,48,39,-29,-14,43,-39,-39,-9,39,29,9
4,48,43,-26,-19,46,-39,-39,-9,34,29,4
0,48,48,-24,-24,48,-34,-39,-9,29,24,0
0,48,48,-24,-24,48,-34,-39,-9,29,24,0
0,39,39,-19,-19,39,-29,-39,-9,24,24,-9
0,39,39,-19,-19,39,-24,-39,-14,24,24,-9
0,39,39,-19,-19,39,-19,-34,-19,19,29,-9
0,39,39,-19,-19,39,-19,-39,-19,19,29,-14
0,34,34,-17,-17,34,-19,-43,-19,19,24,-14
-4,34,39,-14,-21,36,-19,-43,-19,19,19,-19
-4,29,34,-12,-19,31,-19,-43,-19,19,14,-24
-4,24,29,-9,-17,26,-14,-39,-19,14,9,-29
-9,19,29,-4,-19,24,-9,-39,-19,9,4,-39
-9,4,14,2,-12,9,0,-34,-29,0,-4,-43
-19,0,19,9,-19,9,9,-29,-29,-9,-4,-48
-19,-14,4,17,-12,-4,14,-29,-29,-9,-9,-43
-24,-19,4,21,-14,-7,19,-29,-34,-9,-14,-43
-24,-29,-4,26,-9,-17,19,-34,-34,-9,-9,-39
-29,-43,-14,36,-7,-29,24,-34,-34,0,0,-34
-29,-53,-24,41,-2,-39,24,-34,-34,-9,-14,-43
-39,-63,-24,51,-7,-43,29,-34,-34,-19,-19,-48
-43,-68,-24,56,-9,-46,34,-29,-34,-19,-24,-53
-48,-68,-19,58,-14,-43,34,-24,-34,-19,-24,-53
-43,-68,-24,56,-9,-46,39,-24,-34,-19,-24,-53
-43,-73,-29,58,-7,-51,43,-14,-24,-19,-24,-53
-39,-73,-34,56,-2,-53,58,-4,-19,-14,-29,-58
-39,-73,-34,56,-2,-53,78,9,-9,-14,-29,-63
-39,-73,-34,56,-2,-53,102,24,-4,-14,-29,-63
-43,-82,-39,63,-2,-61,117,39,0,-14,-29,-68
-53,-82,-29,68,-12,-56,146,53,4,-14,-29,-63
-63,-82,-19,73,-21,-51,161,39,4,-14,-24,-58
-58,-58,0,58,-29,-29,126,9,9,-9,-24,-53
-48,-24,24,36,-36,0,43,-34,14,-4,-9,-43
-34,14,48,9,-41,31,-19,-78,9,9,4,-24
-19,29,48,-4,-34,39,-68,-97,0,19,9,-14
-9,39,48,-14,-29,43,-73,-102,-9,19,9,-14
0,48,48,-24,-24,48,-78,-97,-19,19,9,-14
0,48,48,-24,-24,48,-73,-92,-39,4,4,-14
4,43,39,-24,-17,41,-73,-82,-58,-9,-4,-19
19,19,0,-19,9,9,-73,-63,-73,-14,-9,-24
19,14,-4,-17,12,4,-73,-43,-73,-14,-9,-24
9,14,4,-12,2,9,-63,-29,-63,-9,-4,-19
-4,14,19,-4,-12,17,-48,-24,-48,9,9,-9
-9,29,39,-9,-24,34,-43,-24,-9,48,43,14
-9,68,78,-29,-43,73,-48,-24,43,136,122,68
0,122,122,-61,-61,122,-63,-29,126,253,239,136
4,224,219,-114,-107,222,-82,-34,253,453,424,248
9,390,380,-200,-185,385,-126,-58,478,800,741,468
34,507,473,-270,-219,490,-151,-34,658,1093,1029,678
97,580,483,-339,-192,531,-170,53,785,1351,1293,849
175,678,502,-427,-163,590,-234,34,756,1532,1546,1044
219,868,649,-544,-214,758,-336,-97,668,1639,1722,1259
248,1054,805,-651,-278,929,-463,-331,258,1503,1742,1385
380,1200,819,-790,-219,1010,-639,-522,-170,1195,1600,1420
610,1205,595,-907,7,900,-790,-619,-649,722,1239,1332
873,966,92,-919,390,529,-922,-707,-1473,-131,629,1078
1029,702,-326,-866,678,187,-990,-810,-2113,-863,141,878
917,385,-531,-651,724,-73,-863,-834,-2205,-1039,-19,756
502,297,-204,-400,353,46,-649,-849,-1883,-961,-107,595
0,29,29,-14,-14,29,-239,-551,-1180,-824,-400,48
-156,-146,9,151,-82,-68,0,-175,-610,-600,-488,-283
-126,-122,4,124,-65,-58,4,-92,-336,-380,-346,-248
-87,-122,-34,104,-26,-78,4,-53,-195,-263,-248,-219
-63,-78,-14,70,-24,-46,0,-48,-126,-204,-200,-165
-53,-43,9,48,-31,-17,4,-34,-53,-136,-136,-122
-48,-43,4,46,-26,-19,14,-9,-39,-102,-112,-117
-29,-48,-19,39,-4,-34,14,-4,-39,-102,-112,-117
-29,-48,-19,39,-4,-34,14,0,-43,-107,-117,-117
-34,-53,-19,43,-7,-36,19,0,-43,-107,-131,-117
-39,-63,-24,51,-7,-43,29,0,-39,-117,-136,-136
-39,-78,-39,58,0,-58,29,-4,-39,-122,-141,-146
-39,-87,-48,63,4,-68,34,0,-43,-126,-151,-151
-43,-92,-48,68,2,-70,39,0,-53,-136,-161,-156
-53,-107,-53,80,0,-80,39,4,-63,-141,-175,-170
-53,-107,-53,80,0,-80,39,4,-73,-146,-180,-170
-43,-107,-63,75,9,-85,34,4,-73,-151,-175,-165
-39,-107,-68,73,14,-87,34,14,-68,-151,-175,-165
-34,-107,-73,70,19,-90,39,19,-63,-151,-180,-175
-34,-107,-73,70,19,-90,48,34,-58,-146,-180,-185
-34,-112,-78,73,21,-95,73,39,-43,-146,-180,-185
-29,-112,-82,70,26,-97,92,58,-39,-146,-180,-190
-34,-126,-92,80,29,-109,131,87,-29,-146,-185,-195
-34,-141,-107,87,36,-124,151,102,-19,-146,-185,-195
-39,-126,-87,82,24,-107,126,87,-9,-146,-185,-185
-43,-97,-53,70,4,-75,78,73,-4,-136,-170,-180
-34,-63,-29,48,-2,-46,4,19,-19,-136,-165,-161
-24,-43,-19,34,-2,-31,-43,-29,-24,-136,-165,-151
-14,-24,-9,19,-2,-17,-48,-43,-34,-136,-165,-151
-4,-14,-9,9,2,-12,-53,-53,-48,-136,-165,-151
0,-9,-9,4,4,-9,-53,-43,-63,-141,-161,-146
9,-9,-19,0,14,-14,-58,-34,-82,-146,-165,-146
19,-19,-39,0,29,-29,-63,-14,-92,-156,-175,-161
29,-24,-53,-2,41,-39,-63,9,-97,-161,-175,-161
19,-48,-68,14,43,-58,-48,39,-97,-165,-180,-156
4,-68,-73,31,39,-70,-34,58,-87,-156,-175,-151
-4,-63,-58,34,26,-61,-24,58,-53,-126,-151,-136
-4,-53,-48,29,21,-51,-14,58,-29,-107,-141,-122
-4,-34,-29,19,12,-31,-14,53,-9,-97,-131,-117
4,-19,-24,7,14,-21,-14,53,-4,-97,-122,-117
4,-19,-24,7,14,-21,-9,63,9,-87,-122,-117
9,-19,-29,4,19,-24,-9,63,19,-87,-122,-117
9,-19,-29,4,19,-24,-9,63,24,-82,-117,-117
9,-19,-29,4,19,-24,-9,68,29,-82,-117,-117
14,-19,-34,2,24,-26,-4,73,39,-73,-112,-112
14,-19,-34,2,24,-26,0,78,48,-63,-112,-107
14,-29,-43,7,29,-36,4,87,53,-63,-112,-107
14,-34,-48,9,31,-41,9,92,58,-63,-126,-107
9,-34,-43,12,26,-39,19,102,63,-68,-131,-112
9,-39,-48,14,29,-43,24,107,68,-78,-136,-117
4,-43,-48,19,26,-46,34,112,73,-82,-146,-136
4,-48,-53,21,29,-51,39,117,78,-92,-161,-156
0,-53,-53,26,26,-53,43,122,87,-92,-170,-161
-4,-53,-48,29,21,-51,43,131,97,-92,-180,-165
-4,-53,-48,29,21,-51,48,136,107,-97,-185,-175
-9,-58,-48,34,19,-53,48,141,117,-97,-195,-180
-9,-58,-48,34,19,-53,53,151,136,-107,-200,-180
-9,-63,-53,36,21,-58,58,161,151,-112,-214,-185
-19,-63,-43,41,12,-53,63,170,156,-117,-229,-200
-24,-68,-43,46,9,-56,73,180,161,-122,-244,-214
-34,-73,-39,53,2,-56,82,185,165,-141,-263,-234
-43,-78,-34,61,-4,-56,87,190,165,-161,-283,-253
-53,-87,-34,70,-9,-61,97,190,165,-170,-307,-273
-63,-97,-34,80,-14,-65,107,190,170,-185,-331,-287
-73,-112,-39,92,-17,-75,112,190,175,-200,-351,-307
-92,-122,-29,107,-31,-75,112,190,175,-214,-375,-322
-102,-131,-29,117,-36,-80,122,180,175,-229,-395,-336
-112,-141,-29,126,-41,-85,126,180,170,-244,-414,-351
-122,-146,-24,134,-48,-85,126,180,165,-258,-429,-356
-126,-156,-29,141,-48,-92,131,180,165,-268,-434,-366
-131,-156,-24,143,-53,-90,141,175,165,-268,-439,-370
-136,-165,-29,151,-53,-97,151,175,161,-268,-434,-366
-141,-170,-29,156,-56,-100,161,175,165,-263,-429,-366
-146,-180,-34,163,-56,-107,175,175,170,-253,-424,-361
-151,-190,-39,170,-56,-114,200,175,175,-244,-414,-361
-156,-195,-39,175,-58,-117,204,180,180,-234,-400,-351
-156,-195,-39,175,-58,-117,229,170,165,-224,-380,-336
-156,-180,-24,168,-65,-102,214,151,156,-204,-351,-307
-151,-146,4,148,-78,-70,161,92,131,-180,-297,-263
-136,-107,29,122,-82,-39,82,43,97,-156,-258,-219
-107,-73,34,90,-70,-19,29,-14,68,-131,-219,-190
-87,-48,39,68,-63,-4,0,-58,43,-112,-195,-161
-68,-34,34,51,-51,0,-9,-63,24,-87,-151,-122
-53,-14,39,34,-46,12,-19,-63,9,-68,-117,-92
-34,-14,19,24,-26,2,-39,-73,-24,-63,-107,-82
-14,-19,-4,17,-4,-12,-53,-68,-53,-58,-97,-73
19,-19,-39,0,29,-29,-58,-43,-73,-68,-97,-73
24,-19,-43,-2,34,-31,-63,-24,-92,-63,-82,-68
4,-14,-19,4,12,-17,-53,-19,-82,-43,-58,-48
-9,-4,4,7,-7,0,-48,-19,-78,-19,-39,-29
-14,4,19,4,-17,12,-48,-24,-63,0,-19,-4
-19,19,39,0,-29,29,-48,-29,-43,19,0,14
-14,29,43,-7,-29,36,-48,-29,-29,29,9,24
0,29,29,-14,-14,29,-48,-29,-19,39,19,34
4,29,24,-17,-9,26,-48,-29,-14,39,24,34
9,29,19,-19,-4,24,-43,-24,-9,43,29,39
14,29,14,-21,0,21,-43,-24,-4,53,39,39
14,29,14,-21,0,21,-43,-24,4,63,48,43
14,29,14,-21,0,21,-43,-19,4,63,48,43
14,24,9,-19,2,17,-39,-19,4,63,48,48
14,19,4,-17,4,12,-34,-14,9,63,48,53
14,9,-4,-12,9,2,-29,-9,9,63,48,58
14,4,-9,-9,12,-2,-24,-4,9,63,48,53
14,0,-14,-7,14,-7,-19,-4,14,63,48,53
9,0,-9,-4,9,-4,-14,0,19,63,48,53
4,-4,-9,0,7,-7,-9,0,29,63,48,48
0,-14,-14,7,7,-14,-4,0,34,68,48,48
0,-24,-24,12,12,-24,0,4,39,78,48,48
0,-24,-24,12,12,-24,0,4,48,78,53,48
0,-29,-29,14,14,-29,0,4,53,78,58,48
-4,-24,-19,14,7,-21,4,14,53,78,58,58
-4,-24,-19,14,7,-21,9,19,53,73,58,63
-4,-43,-39,24,17,-41,19,24,53,82,58,58
-9,-63,-53,36,21,-58,29,34,53,87,63,58
-19,-63,-43,41,12,-53,34,39,48,78,58,53
-19,-73,-53,46,17,-63,34,39,53,68,48,53
-24,-82,-58,53,17,-70,34,39,53,63,48,48
-24,-97,-73,61,24,-85,43,39,48,53,34,39
-34,-102,-68,68,17,-85,43,34,34,39,14,24
-34,-107,-73,70,19,-90,39,29,24,34,4,9
-34,-112,-78,73,21,-95,39,19,19,29,-4,4
-34,-117,-82,75,24,-100,43,19,14,24,-9,4
-29,-117,-87,73,29,-102,39,19,9,19,-14,0
-29,-117,-87,73,29,-102,39,19,9,14,-14,0
-24,-117,-92,70,34,-104,53,34,14,14,-14,-4
-24,-122,-97,73,36,-109,68,48,24,14,-19,-9
-34,-126,-92,80,29,-109,87,63,29,14,-19,-19
-34,-131,-97,82,31,-114,112,68,34,9,-24,-24
-43,-136,-92,90,24,-114,141,87,39,0,-39,-34
-48,-136,-87,92,19,-112,151,102,43,-4,-48,-43
-53,-117,-63,85,4,-90,146,63,43,-4,-53,-39
-48,-73,-24,61,-12,-48,97,24,39,-4,-58,-29
-39,-48,-9,43,-14,-29,4,-34,29,9,-39,-9
-29,-29,0,29,-14,-14,-58,-68,19,14,-29,4
-19,-19,0,19,-9,-9,-68,-78,9,14,-24,9
-14,-9,4,12,-9,-2,-78,-82,-4,14,-24,9
-4,4,9,0,-7,7,-78,-82,-24,0,-24,9
4,9,4,-7,0,7,-82,-73,-34,-4,-39,9
24,0,-24,-12,24,-12,-97,-53,-53,-14,-39,0
39,-4,-43,-17,41,-24,-97,-39,-63,-19,-39,-9
24,-9,-34,-7,29,-21,-82,-14,-58,-19,-48,-14
9,-9,-19,0,14,-14,-68,0,-53,-19,-53,-9
-4,-14,-9,9,2,-12,-43,0,-24,4,-29,0
-14,-4,9,9,-12,2,-34,-9,-9,9,-9,9
-9,0,9,4,-9,4,-34,-14,-4,19,-9,19
-4,0,4,2,-4,2,-34,-14,0,29,0,24
0,0,0,0,0,0,-39,-9,4,29,0,24
0,4,4,-2,-2,4,-43,-9,9,29,0,34
4,9,4,-7,0,7,-43,-9,9,34,4,34
9,14,4,-12,2,9,-43,-9,9,39,4,34
9,9,0,-9,4,4,-39,-9,9,39,0,29
9,9,0,-9,4,4,-39,-9,9,39,0,29
4,4,0,-4,2,2,-34,-9,9,39,0,29
0,0,0,0,0,0,-29,-9,9,39,0,29
0,-4,-4,2,2,-4,-29,-4,9,39,0,29
0,-9,-9,4,4,-9,-29,0,9,39,0,29
0,-9,-9,4,4,-9,-29,0,14,34,0,24
0,-14,-14,7,7,-14,-19,0,14,29,0,14
0,-24,-24,12,12,-24,-14,0,19,24,-4,9
-4,-29,-24,17,9,-26,-4,0,19,24,-9,9
-9,-29,-19,19,4,-24,0,4,19,19,-4,14
-9,-29,-19,19,4,-24,4,4,19,19,0,14
-9,-39,-29,24,9,-34,9,4,19,19,-4,14
-14,-43,-29,29,7,-36,9,4,19,19,-4,14
-14,-48,-34,31,9,-41,9,4,19,19,-4,14
-14,-53,-39,34,12,-46,14,9,19,14,-9,9
-19,-53,-34,36,7,-43,19,9,19,9,-14,0
-19,-63,-43,41,12,-53,24,9,9,0,-24,-4
-29,-68,-39,48,4,-53,29,9,9,-9,-29,-9
-29,-82,-53,56,12,-68,34,9,4,-9,-39,-9
-34,-92,-58,63,12,-75,39,9,-4,-4,-43,-9
-34,-102,-68,68,17,-85,39,4,-4,-9,-48,-9
-39,-112,-73,75,17,-92,43,9,0,-9,-43,-9
-39,-122,-82,80,21,-102,43,14,0,-19,-53,-14
-48,-131,-82,90,17,-107,48,19,-4,-24,-58,-19
-48,-136,-87,92,19,-112,53,24,-9,-19,-63,-24
-48,-136,-87,92,19,-112,58,34,-4,-19,-58,-29
-43,-136,-92,90,24,-114,68,43,4,-19,-53,-34
-43,-141,-97,92,26,-119,78,53,14,-19,-53,-34
-39,-141,-102,90,31,-122,97,63,19,-14,-53,-34
-39,-141,-102,90,31,-122,117,78,29,-14,-48,-34
-39,-141,-102,90,31,-122,141,87,34,-14,-48,-34
-43,-141,-97,92,26,-119,141,78,39,-9,-48,-34
-53,-131,-78,92,12,-104,141,68,43,-4,-53,-29
-58,-112,-53,85,-2,-82,97,34,34,-4,-48,-19
-53,-68,-14,61,-19,-41,29,-9,24,0,-43,-4
-48,-43,4,46,-26,-19,-9,-39,19,4,-29,-4
-34,-19,14,26,-24,-2,-39,-63,9,14,-14,4
-19,-19,0,19,-9,-9,-73,-68,0,14,-9,14
-9,-19,-9,14,0,-14,-63,-58,-9,9,-9,14
0,-19,-19,9,9,-19,-68,-43,-19,9,-14,14
4,-24,-29,9,17,-26,-68,-34,-29,4,-19,14
4,-24,-29,9,17,-26,-58,-24,-29,0,-24,9
9,-43,-53,17,31,-48,-43,-4,-34,-4,-29,4
9,-39,-48,14,29,-43,-43,9,-24,9,-14,14
0,-34,-34,17,17,-34,-34,19,-4,29,4,29
-9,-34,-24,21,7,-29,-24,19,-9,29,4,29
-9,-19,-9,14,0,-14,-19,14,19,53,29,43
-9,4,14,2,-12,9,-19,14,58,122,87,78
0,53,53,-26,-26,53,-34,9,136,234,180,136
0,161,161,-80,-80,161,-53,-9,263,439,366,258
4,322,317,-163,-156,319,-97,-39,468,756,663,453
19,439,419,-229,-200,429,-117,-4,673,1063,966,658
68,512,444,-290,-187,478,-136,73,810,1332,1229,829
146,610,463,-378,-158,536,-190,73,814,1566,1527,1049
204,775,570,-490,-183,673,-287,-34,707,1693,1747,1263
200,1000,800,-600,-300,900,-424,-273,292,1581,1795,1405
302,1171,868,-736,-283,1019,-610,-478,-190,1283,1683,1493
551,1215,663,-883,-56,939,-771,-566,-702,805,1332,1454
814,1010,195,-912,309,602,-888,-629,-1390,73,810,1254
1039,683,-356,-861,697,163,-995,-751,-2181,-775,283,1054
980,395,-585,-688,783,-95,-902,-756,-2337,-1029,102,971
561,312,-248,-436,405,31,-668,-795,-1947,-922,-9,766
68,34,-34,-51,51,0,-278,-585,-1317,-854,-356,195
-112,-161,-48,136,-31,-104,-24,-180,-668,-614,-458,-165
-126,-190,-63,158,-31,-126,24,-43,-336,-395,-375,-219
-97,-200,-102,148,2,-151,34,-4,-185,-273,-273,-190
-68,-161,-92,114,12,-126,34,0,-97,-204,-224,-146
-63,-122,-58,92,-2,-90,43,14,-24,-136,-165,-102
-63,-122,-58,92,-2,-90,53,39,0,-92,-131,-87
-43,-126,-82,85,19,-104,53,43,0,-92,-131,-87
-39,-126,-87,82,24,-107,53,48,0,-97,-131,-87
-43,-131,-87,87,21,-109,58,48,4,-92,-136,-87
-48,-141,-92,95,21,-117,68,53,9,-92,-131,-97
-48,-156,-107,102,29,-131,73,53,9,-92,-131,-97
-48,-165,-117,107,34,-141,82,58,9,-97,-136,-102
-53,-170,-117,112,31,-143,87,58,4,-107,-141,-102
-63,-185,-122,124,29,-153,92,63,4,-107,-151,-112
-63,-185,-122,124,29,-153,97,68,9,-107,-151,-112
-53,-185,-131,119,39,-158,97,78,14,-107,-146,-107
-48,-190,-141,119,46,-165,112,97,24,-102,-146,-112
-43,-195,-151,119,53,-173,131,112,34,-102,-146,-117
-48,-195,-146,122,48,-170,146,131,39,-97,-146,-117
-58,-200,-141,129,41,-170,170,136,53,-97,-151,-117
-58,-200,-141,129,41,-170,185,141,58,-97,-151,-117
-63,-200,-136,131,36,-168,200,141,63,-97,-156,-117
-58,-190,-131,124,36,-161,156,136,63,-97,-151,-117
-53,-165,-112,109,29,-139,87,102,63,-97,-146,-107
-53,-136,-82,95,14,-109,63,73,58,-87,-131,-102
-43,-107,-63,75,9,-85,19,34,39,-87,-126,-87
-34,-97,-63,65,14,-80,-14,9,29,-87,-126,-82
-24,-87,-63,56,19,-75,-4,19,19,-87,-126,-82
-14,-87,-73,51,29,-80,-4,29,9,-87,-126,-87
-9,-87,-78,48,34,-82,-4,43,-4,-92,-126,-92
0,-87,-87,43,43,-87,0,53,-19,-97,-136,-97
9,-97,-107,43,58,-102,4,73,-19,-107,-146,-112
19,-97,-117,39,68,-107,4,92,-14,-107,-146,-112
9,-97,-107,43,58,-102,14,107,-4,-102,-146,-107
-4,-97,-92,51,43,-95,19,112,9,-87,-136,-102
-14,-92,-78,53,31,-85,24,107,43,-58,-112,-87
-14,-87,-73,51,29,-80,34,107,63,-43,-102,-73
-14,-78,-63,46,24,-70,34,102,78,-39,-92,-63
-4,-68,-63,36,29,-65,34,102,82,-39,-82,-58
-4,-68,-63,36,29,-65,39,112,97,-29,-82,-58
0,-68,-68,34,34,-68,39,112,102,-29,-82,-58
0,-68,-68,34,34,-68,39,117,102,-24,-78,-58
0,-68,-68,34,34,-68,39,126,107,-24,-78,-58
4,-68,-73,31,39,-70,43,131,112,-24,-78,-58
4,-68,-73,31,39,-70,43,131,117,-24,-82,-58
4,-73,-78,34,41,-75,43,136,122,-24,-82,-63
4,-73,-78,34,41,-75,48,141,126,-24,-102,-73
0,-73,-73,36,36,-73,58,151,131,-24,-107,-82
0,-78,-78,39,39,-78,63,151,136,-29,-107,-87
-4,-82,-78,43,36,-80,73,156,146,-29,-112,-92
-4,-87,-82,46,39,-85,78,165,156,-34,-117,-97
-9,-92,-82,51,36,-87,82,170,165,-34,-117,-102
-14,-92,-78,53,31,-85,82,175,175,-34,-122,-107
-14,-92,-78,53,31,-85,92,180,185,-43,-126,-117
-19,-92,-73,56,26,-82,92,190,195,-48,-136,-122
-19,-92,-73,56,26,-82,97,200,204,-58,-146,-131
-14,-102,-87,58,36,-95,107,209,209,-63,-165,-146
-24,-107,-82,65,29,-95,112,219,214,-73,-180,-161
-34,-112,-78,73,21,-95,122,229,219,-82,-200,-180
-43,-117,-73,80,14,-95,131,234,224,-102,-224,-200
-53,-126,-73,90,9,-100,131,239,224,-122,-244,-214
-63,-136,-73,100,4,-104,136,239,224,-136,-268,-234
-73,-141,-68,107,-2,-104,146,239,234,-156,-292,-253
-82,-151,-68,117,-7,-109,156,239,239,-170,-307,-278
-102,-161,-58,131,-21,-109,161,244,234,-185,-326,-292
-112,-170,-58,141,-26,-114,170,239,234,-200,-346,-307
-122,-180,-58,151,-31,-119,180,239,234,-214,-370,-326
-126,-180,-53,153,-36,-117,185,234,234,-229,-390,-336
-126,-185,-58,156,-34,-122,190,234,239,-239,-395,-346
-131,-185,-53,158,-39,-119,200,234,244,-239,-405,-356
-136,-195,-58,165,-39,-126,214,234,244,-239,-405,-356
-141,-195,-53,168,-43,-124,229,229,248,-244,-405,-361
-146,-200,-53,173,-46,-126,244,224,248,-248,-409,-361
-151,-204,-53,178,-48,-129,263,214,239,-248,-409,-361
-156,-190,-34,173,-61,-112,234,190,224,-244,-400,-351
-156,-175,-19,165,-68,-97,204,141,195,-234,-380,-336
-156,-170,-14,163,-70,-92,165,102,165,-214,-346,-302
-146,-146,0,146,-73,-73,112,43,131,-190,-297,-263
-126,-107,19,117,-73,-43,58,4,97,-165,-263,-229
-97,-82,14,90,-56,-34,39,-24,68,-141,-219,-200
-78,-73,4,75,-41,-34,19,-39,39,-122,-195,-170
-58,-63,-4,61,-26,-34,9,-34,14,-97,-156,-136
-43,-48,-4,46,-19,-26,0,-29,0,-78,-126,-112
-24,-53,-29,39,2,-41,-19,-24,-29,-73,-117,-102
-14,-58,-43,36,14,-51,-24,-9,-48,-63,-97,-87
-4,-58,-53,31,24,-56,-14,4,-43,-48,-73,-68
-14,-48,-34,31,9,-41,-14,4,-43,-24,-43,-43
-24,-29,-4,26,-9,-17,-4,-4,-24,-4,-19,-19
-24,-14,9,19,-17,-2,-4,-9,-9,19,0,0
-19,-4,14,12,-17,4,-9,-14,4,39,19,19
-19,9,29,4,-24,19,-9,-19,24,58,39,34
-14,19,34,-2,-24,26,-9,-19,29,63,43,39
0,19,19,-9,-9,19,-9,-19,29,68,48,43
0,19,19,-9,-9,19,-14,-19,34,68,53,43
0,14,14,-7,-7,14,-14,-14,34,68,58,48
4,9,4,-7,0,7,-14,-14,29,68,63,48
4,9,4,-7,0,7,-14,-14,29,73,63,48
4,9,4,-7,0,7,-14,-9,24,73,58,43
4,4,0,-4,2,2,-9,-9,24,73,58,48
4,4,0,-4,2,2,-9,-9,29,73,58,48
0,0,0,0,0,0,-9,-9,29,73,58,48
-4,0,4,2,-4,2,-4,-4,29,73,58,43
-4,0,4,2,-4,2,0,-9,34,73,58,43
-4,0,4,2,-4,2,0,-9,34,73,58,43
0,-4,-4,2,2,-4,0,-9,39,73,58,39
0,-4,-4,2,2,-4,4,-9,43,73,58,39
0,-9,-9,4,4,-9,9,0,48,78,58,39
0,-14,-14,7,7,-14,9,4,53,78,58,39
0,-19,-19,9,9,-19,9,4,53,73,58,39
-4,-24,-19,14,7,-21,14,9,53,68,53,39
-4,-34,-29,19,12,-31,19,4,48,63,48,34
-4,-43,-39,24,17,-41,24,0,39,58,39,24
-9,-53,-43,31,17,-48,24,4,34,53,34,19
-19,-53,-34,36,7,-43,24,4,24,48,29,9
-19,-58,-39,39,9,-48,24,0,24,39,19,4
-24,-63,-39,43,7,-51,24,0,24,39,19,0
-24,-78,-53,51,14,-65,34,0,19,34,4,-9
-34,-87,-53,61,9,-70,39,0,9,24,-4,-14
-29,-92,-63,61,17,-78,39,0,9,24,0,-14
-24,-92,-68,58,21,-80,43,0,14,19,0,-14
-24,-97,-73,61,24,-85,53,14,19,19,0,-14
-19,-97,-78,58,29,-87,58,24,24,24,-4,-19
-19,-97,-78,58,29,-87,73,34,34,29,0,-19
-14,-97,-82,56,34,-90,97,53,43,34,4,-24
-14,-102,-87,58,36,-95,117,68,63,34,0,-29
-29,-107,-78,68,24,-92,136,78,78,34,0,-34
-29,-92,-63,61,17,-78,126,48,73,29,0,-29
-34,-73,-39,53,2,-56,92,9,63,24,0,-24
-34,-68,-34,51,0,-51,39,-4,53,24,0,-14
-29,-48,-19,39,-4,-34,-19,-43,39,24,4,0
-19,-9,9,14,-14,0,-43,-73,24,19,9,0
-9,0,9,4,-9,4,-58,-92,9,24,19,0
-4,4,9,0,-7,7,-73,-87,-4,19,9,0
4,9,4,-7,0,7,-68,-78,-19,14,4,0
14,9,-4,-12,9,2,-78,-68,-34,14,4,-4
24,0,-24,-12,24,-12,-78,-58,-48,0,4,-9
24,-9,-34,-7,29,-21,-68,-34,-39,0,-4,-9
19,-19,-39,0,29,-29,-53,-4,-34,0,0,-14
19,-14,-34,-2,26,-24,-39,-4,-24,9,9,-14
4,-4,-9,0,7,-7,-24,-4,0,29,24,-9
-4,4,9,0,-7,7,-24,-4,4,29,24,0
-4,9,14,-2,-9,12,-24,-9,14,43,29,9
-4,24,29,-9,-17,26,-24,-19,19,48,34,14
0,29,29,-14,-14,29,-24,-24,24,53,29,14
4,24,19,-14,-7,21,-24,-24,29,58,39,14
9,19,9,-14,0,14,-24,-19,39,58,39,19
4,19,14,-12,-4,17,-14,-19,29,53,39,19
0,19,19,-9,-9,19,-9,-19,19,48,39,19
0,14,14,-7,-7,14,-9,-19,19,48,34,19
0,9,9,-4,-4,9,-9,-19,19,48,29,19
0,9,9,-4,-4,9,-9,-19,19,48,29,14
0,9,9,-4,-4,9,-9,-19,19,48,24,9
0,9,9,-4,-4,9,-9,-19,19,48,24,9
0,0,0,0,0,0,-9,-19,19,43,24,0
-4,0,4,2,-4,2,-4,-19,19,43,19,0
-9,0,9,4,-9,4,0,-14,19,39,19,0
-4,0,4,2,-4,2,4,-14,19,39,19,-4
0,-4,-4,2,2,-4,9,-14,19,39,14,-4
-4,-4,0,4,-2,-2,9,-14,19,34,14,-4
-4,-9,-4,7,0,-7,9,-14,19,29,14,-4
-9,-14,-4,12,-2,-9,14,-9,19,24,4,-14
-19,-19,0,19,-9,-9,19,-9,19,19,-4,-29
-19,-29,-9,24,-4,-19,24,-9,9,9,-14,-34
-29,-29,0,29,-14,-14,29,-9,9,0,-14,-39
-24,-43,-19,34,-2,-31,29,-9,4,0,-19,-39
-24,-48,-24,36,0,-36,29,-9,-4,0,-24,-43
-24,-53,-29,39,2,-41,29,-14,-9,-9,-29,-48
-29,-63,-34,46,2,-48,34,-14,-14,-9,-29,-53
-29,-73,-43,51,7,-58,34,-14,-19,-19,-39,-63
-39,-82,-43,61,2,-63,39,-14,-24,-29,-39,-68
-34,-87,-53,61,9,-70,43,-14,-24,-29,-43,-73
-29,-87,-58,58,14,-73,43,-14,-24,-29,-43,-73
-24,-87,-63,56,19,-75,58,-14,-19,-29,-43,-73
-24,-92,-68,58,21,-80,73,-4,-4,-29,-43,-73
-24,-92,-68,58,21,-80,87,4,0,-24,-43,-73
-29,-92,-63,61,17,-78,107,19,9,-24,-39,-73
-29,-92,-63,61,17,-78,131,24,14,-24,-39,-68
-34,-102,-68,68,17,-85,146,29,19,-24,-39,-68
-43,-87,-43,65,0,-65,117,19,19,-24,-39,-63
-53,-73,-19,63,-17,-46,73,-19,14,-24,-34,-58
-48,-48,0,48,-24,-24,48,-48,4,-19,-34,-53
-39,-14,24,26,-31,4,-24,-92,-4,-14,-19,-43
-24,14,39,4,-31,26,-53,-112,-9,-9,-9,-29
-9,19,29,-4,-19,24,-68,-107,-19,-9,-9,-24
0,19,19,-9,-9,19,-73,-102,-29,-9,-9,-29
9,19,9,-14,0,14,-78,-87,-39,-9,-9,-34
14,24,9,-19,2,17,-78,-78,-48,-14,-9,-34
24,24,0,-24,12,12,-82,-63,-58,-19,-14,-39
29,4,-24,-17,26,-9,-68,-43,-58,-19,-14,-43
19,4,-14,-12,17,-4,-53,-24,-43,-14,-9,-43
9,4,-4,-7,7,0,-43,-14,-34,-9,-4,-39
-4,4,9,0,-7,7,-29,-14,-19,9,9,-29
-9,14,24,-2,-17,19,-24,-19,9,39,29,-9
-9,48,58,-19,-34,53,-29,-24,53,117,92,39
0,82,82,-41,-41,82,-43,-29,136,214,180,97
4,165,161,-85,-78,163,-63,-34,263,395,336,200
-4,346,351,-170,-178,348,-102,-68,502,741,644,395
4,478,473,-241,-234,475,-122,-53,697,1034,922,580
68,541,473,-305,-202,507,-131,63,849,1317,1185,736
146,629,483,-387,-168,556,-185,73,844,1522,1439,917
190,795,605,-492,-207,700,-283,-34,736,1654,1649,1137
219,956,736,-588,-258,846,-405,-244,307,1542,1703,1268
346,1146,800,-746,-226,973,-600,-458,-180,1254,1610,1371
570,1195,624,-883,-26,910,-771,-580,-717,800,1298,1351
902,922,19,-912,441,470,-936,-673,-1639,-92,692,1107
1127,624,-502,-875,814,61,-1039,-780,-2376,-863,209,917
1088,336,-751,-712,919,-207,-946,-819,-2454,-1019,112,883
746,278,-468,-512,607,-95,-766,-849,-2117,-922,87,810
156,-4,-161,-75,158,-82,-317,-575,-1337,-824,-297,175
-87,-195,-107,141,9,-151,-39,-224,-688,-639,-478,-244
-87,-180,-92,134,2,-136,-9,-122,-380,-405,-346,-229
-78,-190,-112,134,17,-151,14,-63,-204,-273,-258,-219
-58,-141,-82,100,12,-112,14,-58,-136,-224,-224,-175
-53,-102,-48,78,-2,-75,24,-43,-63,-165,-175,-141
-53,-92,-39,73,-7,-65,34,-19,-39,-122,-136,-131
-39,-87,-48,63,4,-68,34,-14,-29,-112,-122,-126
-39,-87,-48,63,4,-68,34,-9,-29,-117,-122,-126
-43,-92,-48,68,2,-70,39,-9,-24,-117,-131,-126
-48,-102,-53,75,2,-78,53,-4,-19,-117,-131,-136
-48,-117,-68,82,9,-92,58,-4,-19,-112,-131,-136
-48,-126,-78,87,14,-102,63,4,-14,-117,-136,-141
-53,-131,-78,92,12,-104,68,9,-14,-126,-141,-146
-58,-141,-82,100,12,-112,73,19,-14,-126,-146,-156
-53,-136,-82,95,14,-109,78,24,-14,-126,-141,-151
-43,-136,-92,90,24,-114,82,34,-9,-126,-136,-146
-39,-136,-97,87,29,-117,92,53,0,-122,-136,-146
-34,-136,-102,85,34,-119,102,63,4,-122,-141,-146
-34,-136,-102,85,34,-119,117,82,9,-117,-141,-146
-39,-141,-102,90,31,-122,141,78,24,-117,-141,-146
-39,-141,-102,90,31,-122,161,87,29,-117,-141,-151
-43,-126,-82,85,19,-104,136,73,29,-117,-146,-156
-43,-112,-68,78,12,-90,92,43,29,-117,-146,-156
-39,-97,-58,68,9,-78,58,0,24,-117,-146,-146
-34,-68,-34,51,0,-51,0,-43,14,-107,-131,-141
-24,-53,-29,39,2,-41,-29,-43,0,-107,-126,-131
-14,-53,-39,34,12,-46,-34,-39,-4,-107,-126,-131
-4,-43,-39,24,17,-41,-34,-34,-9,-107,-126,-131
4,-43,-48,19,26,-46,-34,-24,-19,-107,-126,-131
9,-43,-53,17,31,-48,-34,-4,-29,-112,-126,-126
19,-48,-68,14,43,-58,-39,14,-43,-117,-136,-126
19,-58,-78,19,48,-68,-24,34,-29,-112,-136,-136
19,-63,-82,21,51,-73,-4,58,-9,-102,-126,-131
9,-63,-73,26,41,-68,4,63,4,-92,-117,-122
-4,-58,-53,31,24,-56,14,58,29,-68,-97,-112
-9,-53,-43,31,17,-48,19,58,48,-53,-82,-97
-4,-43,-39,24,17,-41,24,58,58,-48,-82,-82
-4,-34,-29,19,12,-31,24,58,78,-39,-78,-73
4,-29,-34,12,19,-31,24,63,82,-39,-73,-68
4,-29,-34,12,19,-31,29,78,97,-29,-73,-68
9,-29,-39,9,24,-34,29,82,107,-29,-73,-68
9,-29,-39,9,24,-34,29,87,112,-24,-68,-73
9,-29,-39,9,24,-34,29,97,117,-24,-68,-78
9,-34,-43,12,26,-39,34,97,122,-24,-68,-78
4,-39,-43,17,24,-41,39,97,126,-24,-73,-78
4,-43,-48,19,26,-46,43,107,131,-24,-73,-82
4,-43,-48,19,26,-46,48,112,136,-24,-87,-87
0,-43,-43,21,21,-43,53,122,141,-24,-87,-92
0,-48,-48,24,24,-48,53,126,146,-29,-87,-97
-4,-48,-43,26,19,-46,63,136,156,-29,-92,-102
-4,-48,-43,26,19,-46,68,146,165,-34,-102,-107
-9,-53,-43,31,17,-48,73,151,175,-34,-107,-112
-14,-53,-39,34,12,-46,73,161,185,-34,-112,-117
-14,-53,-39,34,12,-46,82,170,195,-43,-117,-126
-19,-58,-39,39,9,-48,87,180,204,-48,-126,-131
-19,-63,-43,41,12,-53,97,185,214,-58,-136,-141
-19,-73,-53,46,17,-63,107,190,219,-63,-156,-156
-34,-78,-43,56,4,-61,112,200,224,-78,-170,-175
-43,-87,-43,65,0,-65,122,209,229,-92,-185,-195
-53,-92,-39,73,-7,-65,126,214,234,-112,-209,-209
-63,-97,-34,80,-14,-65,126,219,234,-131,-234,-224
-73,-107,-34,90,-19,-70,136,219,234,-146,-258,-248
-82,-117,-34,100,-24,-75,146,219,239,-165,-283,-268
-87,-131,-43,109,-21,-87,156,219,244,-180,-297,-287
-102,-141,-39,122,-31,-90,161,219,244,-195,-317,-302
-112,-151,-39,131,-36,-95,175,214,244,-204,-336,-317
-122,-161,-39,141,-41,-100,185,219,239,-214,-356,-331
-126,-161,-34,143,-46,-97,190,219,239,-229,-375,-336
-126,-165,-39,146,-43,-102,200,219,244,-239,-385,-346
-131,-165,-34,148,-48,-100,214,214,244,-244,-400,-361
-136,-175,-39,156,-48,-107,229,214,239,-248,-405,-366
-146,-175,-29,161,-58,-102,239,209,234,-258,-405,-370
-156,-180,-24,168,-65,-102,253,204,229,-263,-405,-370
-161,-185,-24,173,-68,-104,253,170,214,-263,-405,-370
-165,-185,-19,175,-73,-102,234,141,200,-263,-400,-361
-161,-170,-9,165,-75,-90,190,92,156,-258,-380,-346
-156,-141,14,148,-85,-63,107,34,117,-244,-351,-317
-146,-122,24,134,-85,-48,92,-4,92,-219,-307,-283
-126,-97,29,112,-78,-34,53,-34,58,-195,-278,-248
-97,-73,24,85,-61,-24,19,-53,29,-170,-234,-219
-78,-58,19,68,-48,-19,9,-58,4,-151,-204,-190
-58,-53,4,56,-31,-24,0,-53,-24,-126,-165,-156
-43,-43,0,43,-21,-21,-9,-43,-48,-107,-136,-131
-34,-43,-9,39,-12,-26,-19,-43,-58,-87,-112,-112
-24,-48,-24,36,0,-36,-24,-29,-63,-68,-87,-92
-4,-34,-29,19,12,-31,-24,-24,-53,-53,-68,-73
-14,-19,-4,17,-4,-12,-24,-24,-43,-24,-34,-48
-19,-9,9,14,-14,0,-19,-29,-24,-4,-9,-29
-19,4,24,7,-21,14,-19,-39,-9,19,9,-9
-9,9,19,0,-14,14,-24,-43,-4,39,24,9
0,19,19,-9,-9,19,-29,-48,4,58,39,24
-4,29,34,-12,-19,31,-29,-48,9,63,43,29
0,29,29,-14,-14,29,-29,-48,9,68,48,34
0,29,29,-14,-14,29,-34,-48,14,68,53,34
0,29,29,-14,-14,29,-34,-43,19,73,58,39
4,24,19,-14,-7,21,-34,-39,19,78,63,39
4,19,14,-12,-4,17,-34,-34,24,82,68,43
4,19,14,-12,-4,17,-29,-29,24,82,73,43
4,14,9,-9,-2,12,-19,-29,24,82,78,48
4,14,9,-9,-2,12,-19,-29,29,82,78,48
4,9,4,-7,0,7,-19,-29,29,82,78,48
4,9,4,-7,0,7,-14,-24,29,82,73,43
4,9,4,-7,0,7,-9,-24,34,82,68,43
4,14,9,-9,-2,12,-9,-19,34,82,68,43
4,14,9,-9,-2,12,-9,-19,39,82,68,39
0,14,14,-7,-7,14,-9,-19,43,78,68,39
0,14,14,-7,-7,14,-9,-14,48,78,68,39
0,14,14,-7,-7,14,-9,-19,43,73,63,34
0,9,9,-4,-4,9,-9,-24,34,68,58,29
-4,4,9,0,-7,7,-4,-19,34,68,53,29
-4,-4,0,4,-2,-2,0,-19,34,63,48,24
-4,-14,-9,9,2,-12,4,-24,29,58,39,14
-9,-24,-14,17,2,-19,9,-24,24,48,34,9
-19,-24,-4,21,-7,-14,14,-24,14,43,29,0
-19,-34,-14,26,-2,-24,14,-29,14,39,19,-4
-24,-43,-19,34,-2,-31,19,-24,19,39,24,-9
-24,-58,-34,41,4,-46,34,-19,19,34,14,-19
-34,-63,-29,48,-2,-46,39,-14,14,24,4,-19
-34,-68,-34,51,0,-51,39,-9,14,24,4,-19
-29,-73,-43,51,7,-58,48,-4,19,24,0,-24
-24,-78,-53,51,14,-65,63,9,24,24,0,-24
-19,-82,-63,51,21,-73,78,14,29,24,0,-29
-19,-87,-68,53,24,-78,97,19,39,24,4,-29
-19,-87,-68,53,24,-78,117,34,43,24,4,-29
-24,-92,-68,58,21,-80,136,48,53,24,0,-29
-39,-87,-48,63,4,-68,131,34,53,24,0,-34
-43,-82,-39,63,-2,-61,131,9,53,19,-4,-34
-43,-63,-19,53,-12,-41,73,-19,43,19,4,-29
-39,-39,0,39,-19,-19,-4,-53,34,24,19,-24
-39,-34,4,36,-21,-14,0,-73,24,24,14,-19
-29,-4,24,17,-26,9,-39,-92,9,24,9,-9
-19,4,24,7,-21,14,-63,-102,0,24,19,-4
-9,9,19,0,-14,14,-58,-87,-9,14,19,-4
4,4,0,-4,2,2,-68,-73,-19,14,14,-4
14,0,-14,-7,14,-7,-78,-53,-34,14,4,-9
14,0,-14,-7,14,-7,-63,-48,-43,4,14,-9
14,-9,-24,-2,19,-17,-53,-34,-43,4,9,-9
9,-9,-19,0,14,-14,-53,-24,-34,19,14,0
0,-4,-4,2,2,-4,-39,-19,-14,39,19,9
0,-4,-4,2,2,-4,-29,-19,0,39,24,9
0,0,0,0,0,0,-19,-29,14,39,34,19
-4,0,4,2,-4,2,-9,-19,29,63,43,24
0,19,19,-9,-9,19,-14,-19,34,73,48,34
4,19,14,-12,-4,17,-9,-19,39,68,53,34
9,19,9,-14,0,14,-9,-19,43,68,58,39
4,14,9,-9,-2,12,-9,-19,39,68,58,39
0,9,9,-4,-4,9,-9,-19,39,68,58,39
0,4,4,-2,-2,4,-9,-19,34,68,53,39
0,0,0,0,0,0,-9,-19,29,68,48,39
0,0,0,0,0,0,-9,-19,29,58,48,29
0,-4,-4,2,2,-4,-4,-19,29,48,43,19
0,-9,-9,4,4,-9,0,-19,29,43,43,9
-4,-9,-4,7,0,-7,4,-19,29,43,39,9
-9,-9,0,9,-4,-4,9,-14,29,43,39,14
-9,-9,0,9,-4,-4,14,-14,29,48,39,14
-9,-14,-4,12,-2,-9,19,-14,29,48,34,14
-14,-14,0,14,-7,-7,19,-14,29,48,34,14
-14,-19,-4,17,-4,-12,19,-14,29,48,39,14
-14,-24,-9,19,-2,-17,24,-9,29,43,39,9
-19,-29,-9,24,-4,-19,29,-9,29,39,34,0
-19,-43,-24,31,2,-34,34,-9,19,29,24,-4
-29,-48,-19,39,-4,-34,39,-9,19,19,24,-9
-29,-63,-34,46,2,-48,43,-9,14,19,19,-9
-34,-68,-34,51,0,-51,48,-9,4,19,14,-14
-34,-73,-39,53,2,-56,48,-14,4,9,9,-19
-43,-82,-39,63,-2,-61,53,-14,4,9,9,-24
-48,-92,-43,70,-2,-68,53,-14,0,0,-4,-34
-58,-102,-43,80,-7,-73,58,-14,-4,-9,-9,-39
-58,-107,-48,82,-4,-78,63,-14,-9,-9,-14,-43
-53,-107,-53,80,0,-80,63,-14,-14,-9,-19,-43
-43,-107,-63,75,9,-85,68,-14,-14,-9,-24,-43
-43,-112,-68,78,12,-90,68,-4,-4,-9,-24,-43
-39,-112,-73,75,17,-92,78,4,0,-4,-24,-43
-39,-112,-73,75,17,-92,97,19,9,-4,-19,-43
-39,-112,-73,75,17,-92,122,29,14,-4,-19,-43
-43,-122,-78,82,17,-100,141,43,19,-4,-19,-53
-53,-122,-68,87,7,-95,161,58,24,-4,-24,-58
-63,-122,-58,92,-2,-90,175,39,24,-4,-24,-58
-63,-97,-34,80,-14,-65,165,9,24,0,-24,-53
-63,-63,0,63,-31,-31,78,-43,24,4,-9,-43
-53,-29,24,41,-39,-2,0,-92,19,14,4,-24
-39,-19,19,29,-29,0,-48,-107,9,19,9,-9
-29,-9,19,19,-24,4,-53,-107,0,19,9,-4
-19,4,24,7,-21,14,-58,-97,-9,19,14,-4
-14,14,29,0,-21,21,-58,-92,-19,14,19,-4
0,14,14,-7,-7,14,-63,-82,-29,9,14,-9
19,-4,-24,-7,21,-14,-63,-63,-43,4,9,-14
19,-4,-24,-7,21,-14,-63,-39,-43,4,9,-14
9,-4,-14,-2,12,-9,-53,-19,-34,9,14,-9
-9,-4,4,7,-7,0,-39,-14,-19,29,29,0
-19,9,29,4,-24,19,-29,-14,29,73,68,24
-19,48,68,-14,-43,58,-29,-14,97,165,146,73
-9,112,122,-51,-65,117,-43,-19,204,302,258,146
-4,224,229,-109,-117,226,-63,-29,351,522,444,268
4,390,385,-197,-190,387,-107,-48,575,854,741,463
34,507,473,-270,-219,490,-131,-14,756,1132,1010,649
97,580,483,-339,-192,531,-156,63,868,1371,1239,800
175,678,502,-427,-163,590,-229,34,800,1522,1459,980
234,844,610,-539,-187,727,-346,-102,619,1566,1600,1156
283,1005,722,-644,-219,863,-483,-341,126,1366,1581,1239
439,1112,673,-775,-117,893,-668,-546,-434,980,1400,1268
692,1068,375,-880,158,722,-834,-658,-1049,439,1005,1180
961,775,-185,-868,573,295,-956,-746,-1839,-356,439,932
1117,468,-649,-793,883,-90,-1010,-834,-2396,-1005,19,741
990,200,-790,-595,890,-295,-863,-805,-2318,-1058,-53,668
570,165,-405,-368,488,-119,-629,-790,-1830,-883,-92,536
78,-63,-141,-7,109,-102,-239,-527,-1102,-746,-366,39
-87,-204,-117,146,14,-161,-14,-180,-531,-527,-424,-239
-87,-180,-92,134,2,-136,4,-102,-278,-326,-297,-209
-68,-175,-107,122,19,-141,14,-63,-156,-224,-209,-180
-48,-122,-73,85,12,-97,14,-58,-97,-175,-175,-136
-48,-82,-34,65,-7,-58,24,-43,-34,-117,-122,-102
-53,-82,-29,68,-12,-56,34,-19,-19,-82,-92,-97
-39,-82,-43,61,2,-63,34,-14,-19,-82,-92,-97
-39,-78,-39,58,0,-58,34,-9,-19,-87,-92,-97
-43,-82,-39,63,-2,-61,39,-9,-19,-87,-107,-102
-48,-92,-43,70,-2,-68,48,-4,-19,-92,-112,-117
-48,-107,-58,78,4,-82,48,-4,-19,-92,-112,-117
-48,-117,-68,82,9,-92,53,0,-19,-97,-117,-122
-53,-126,-73,90,9,-100,58,0,-24,-112,-122,-126
-63,-146,-82,104,9,-114,63,4,-24,-117,-131,-141
-63,-146,-82,104,9,-114,68,4,-24,-117,-131,-136
-53,-146,-92,100,19,-119,68,9,-24,-117,-126,-126
-48,-146,-97,97,24,-122,78,29,-14,-112,-126,-126
-43,-146,-102,95,29,-124,92,43,-4,-112,-126,-126
-43,-146,-102,95,29,-124,107,63,0,-102,-122,-126
-48,-151,-102,100,26,-126,131,68,14,-97,-122,-126
-48,-156,-107,102,29,-131,156,87,19,-97,-122,-131
-53,-161,-107,107,26,-134,180,102,24,-97,-126,-136
-53,-161,-107,107,26,-134,180,102,29,-97,-126,-136
-53,-146,-92,100,19,-119,156,73,34,-97,-126,-126
-53,-117,-63,85,4,-90,97,29,34,-87,-112,-122
-43,-87,-43,65,0,-65,19,-24,19,-87,-107,-107
-34,-73,-39,53,2,-56,-24,-48,14,-87,-107,-102
-24,-58,-34,41,4,-46,-24,-39,9,-87,-107,-102
-14,-53,-39,34,12,-46,-19,-29,0,-87,-107,-102
-9,-48,-39,29,14,-43,-14,-14,-14,-92,-107,-102
0,-48,-48,24,24,-48,-19,-4,-34,-97,-117,-107
9,-58,-68,24,39,-63,-24,14,-39,-107,-126,-122
19,-63,-82,21,51,-73,-24,39,-39,-112,-126,-122
9,-68,-78,29,43,-73,-14,58,-34,-112,-126,-117
-4,-63,-58,34,26,-61,-4,63,-14,-97,-117,-112
-14,-53,-39,34,12,-46,4,58,24,-68,-92,-97
-14,-43,-29,29,7,-36,14,58,48,-48,-82,-82
-14,-29,-14,21,0,-21,14,53,68,-39,-73,-73
-4,-19,-14,12,4,-17,14,53,68,-39,-63,-68
-4,-19,-14,12,4,-17,19,63,78,-29,-63,-68
0,-19,-19,9,9,-19,19,68,87,-29,-63,-68
0,-19,-19,9,9,-19,19,78,92,-24,-58,-68
0,-24,-24,12,12,-24,19,87,102,-24,-58,-73
4,-29,-34,12,19,-31,24,92,112,-24,-58,-78
4,-29,-34,12,19,-31,24,92,117,-24,-63,-78
4,-34,-39,14,21,-36,24,97,122,-24,-63,-82
4,-34,-39,14,21,-36,29,102,126,-24,-78,-87
0,-34,-34,17,17,-34,39,112,131,-24,-78,-92
0,-34,-34,17,17,-34,43,117,136,-29,-78,-92
-4,-34,-29,19,12,-31,53,126,146,-29,-82,-92
-4,-39,-34,21,14,-36,58,136,156,-34,-92,-97
-9,-43,-34,26,12,-39,63,141,165,-34,-97,-102
-19,-43,-24,31,2,-34,63,151,175,-34,-102,-107
-24,-43,-19,34,-2,-31,73,161,185,-43,-107,-117
-29,-48,-19,39,-4,-34,78,170,195,-48,-117,-122
-29,-53,-24,41,-2,-39,87,180,204,-58,-126,-131
-24,-63,-39,43,7,-51,97,190,209,-63,-146,-146
-34,-68,-34,51,0,-51,102,200,214,-73,-161,-161
-43,-73,-29,58,-7,-51,112,209,219,-82,-175,-175
-53,-78,-24,65,-14,-51,122,214,224,-102,-195,-190
-63,-87,-24,75,-19,-56,131,219,224,-122,-214,-204
-73,-97,-24,85,-24,-61,146,219,224,-136,-239,-224
-82,-107,-24,95,-29,-65,156,219,229,-156,-263,-239
-92,-122,-29,107,-31,-75,165,219,229,-170,-278,-258
-112,-131,-19,122,-46,-75,170,219,224,-185,-297,-273
-122,-141,-19,131,-51,-80,180,209,224,-200,-317,-287
-131,-151,-19,141,-56,-85,185,209,219,-214,-336,-307
-136,-151,-14,143,-61,-82,185,204,214,-229,-351,-317
-136,-156,-19,146,-58,-87,190,200,214,-244,-356,-326
-141,-156,-14,148,-63,-85,200,195,214,-248,-366,-336
-146,-165,-19,156,-63,-92,209,195,204,-248,-370,-336
-151,-165,-14,158,-68,-90,219,190,200,-253,-375,-341
-156,-175,-19,165,-68,-97,234,190,200,-253,-375,-341
-161,-185,-24,173,-68,-104,253,185,190,-248,-370,-341
-170,-190,-19,180,-75,-104,263,180,180,-244,-361,-331
-175,-195,-19,185,-78,-107,273,151,156,-234,-341,-317
-175,-180,-4,178,-85,-92,219,112,131,-214,-312,-287
-165,-146,19,156,-92,-63,151,53,102,-190,-268,-253
-146,-102,43,124,-95,-29,73,0,68,-165,-234,-219
-117,-73,43,95,-80,-14,29,-43,39,-141,-190,-190
-97,-58,39,78,-68,-9,9,-68,14,-122,-165,-161
-78,-43,34,61,-56,-4,0,-73,-4,-97,-126,-126
-58,-24,34,41,-46,4,-9,-68,-19,-78,-97,-102
-34,-24,9,29,-21,-7,-29,-63,-48,-73,-87,-92
-14,-34,-19,24,2,-26,-43,-48,-73,-68,-78,-82
4,-39,-43,17,24,-41,-43,-34,-73,-58,-63,-68
-4,-39,-34,21,14,-36,-43,-24,-73,-34,-34,-48
-14,-29,-14,21,0,-21,-34,-24,-53,-14,-9,-29
-19,-9,9,14,-14,0,-29,-29,-34,9,9,-4
-19,4,24,7,-21,14,-29,-34,-14,29,29,19
-19,19,39,0,-29,29,-29,-39,4,53,48,34
-14,29,43,-7,-29,36,-29,-39,9,63,53,39
0,34,34,-17,-17,34,-29,-43,9,68,58,43
0,39,39,-19,-19,39,-34,-48,14,68,63,43
0,39,39,-19,-19,39,-34,-43,19,73,68,48
4,39,34,-21,-14,36,-34,-43,19,78,73,48
4,39,34,-21,-14,36,-34,-43,24,82,78,53
4,39,34,-21,-14,36,-34,-39,24,82,78,53
4,34,29,-19,-12,31,-29,-39,24,82,78,53
4,34,29,-19,-12,31,-29,-39,29,82,78,48
0,29,29,-14,-14,29,-29,-39,29,82,78,48
-4,29,34,-12,-19,31,-24,-34,29,82,78,43
-4,24,29,-9,-17,26,-19,-34,34,82,78,43
-4,19,24,-7,-14,21,-19,-29,34,82,78,43
0,14,14,-7,-7,14,-24,-29,34,82,78,39
0,14,14,-7,-7,14,-24,-29,34,82,78,39
0,14,14,-7,-7,14,-19,-24,39,87,78,39
0,14,14,-7,-7,14,-19,-24,43,87,78,39
0,9,9,-4,-4,9,-19,-24,43,87,78,43
-4,4,9,0,-7,7,-14,-19,43,87,73,48
-4,-4,0,4,-2,-2,-9,-19,43,82,68,43
-4,-14,-9,9,2,-12,-4,-19,39,78,58,34
-9,-24,-14,17,2,-19,4,-14,34,68,53,29
-19,-24,-4,21,-7,-14,14,-14,24,58,48,19
-19,-34,-14,26,-2,-24,14,-19,24,48,39,14
-24,-43,-19,34,-2,-31,14,-19,24,48,39,9
-24,-53,-29,39,2,-41,24,-19,19,43,24,0
-34,-58,-24,46,-4,-41,29,-19,9,34,14,-4
-34,-68,-34,51,0,-51,29,-19,4,34,14,-14
-34,-73,-39,53,2,-56,34,-19,4,29,9,-24
-34,-82,-48,58,7,-65,43,-9,9,24,9,-24
-29,-87,-58,58,14,-73,48,-4,14,24,4,-29
-29,-87,-58,58,14,-73,58,4,19,24,4,-29
-24,-87,-63,56,19,-75,78,24,24,24,4,-34
-24,-92,-68,58,21,-80,107,39,34,24,0,-39
-39,-97,-58,68,9,-78,136,48,39,24,0,-43
-48,-102,-53,75,2,-78,161,48,43,19,-4,-43
-63,-102,-39,82,-12,-70,161,39,43,14,-9,-43
-68,-97,-29,82,-19,-63,126,14,43,14,-4,-39
-68,-78,-9,73,-29,-43,87,-34,39,14,4,-29
-53,-34,19,43,-36,-7,19,-73,29,14,9,-19
-39,-19,19,29,-29,0,-39,-102,19,24,19,-9
-29,-9,19,19,-24,4,-63,-102,9,24,14,-4
-14,0,14,7,-14,7,-68,-97,0,24,14,0
-4,9,14,-2,-9,12,-78,-82,-14,24,14,0
4,9,4,-7,0,7,-78,-68,-29,9,14,0
14,0,-14,-7,14,-7,-82,-53,-34,4,0,0
19,-9,-29,-4,24,-19,-82,-34,-43,0,0,-4
19,-14,-34,-2,26,-24,-63,-19,-43,4,4,-9
4,-14,-19,4,12,-17,-43,-4,-29,19,14,-9
-9,-9,0,9,-4,-4,-29,-4,-9,29,24,4
-14,-9,4,12,-9,-2,-14,-9,14,53,39,19
-14,4,19,4,-17,12,-14,-19,19,58,48,29
-4,9,14,-2,-9,12,-14,-24,29,68,53,34
0,9,9,-4,-4,9,-9,-19,34,68,53,34
0,9,9,-4,-4,9,-9,-19,39,68,58,39
0,9,9,-4,-4,9,-14,-19,34,63,58,39
0,9,9,-4,-4,9,-19,-19,29,58,58,39
0,9,9,-4,-4,9,-19,-19,29,58,58,34
0,9,9,-4,-4,9,-19,-19,29,58,58,29
0,9,9,-4,-4,9,-19,-19,29,58,58,29
0,0,0,0,0,0,-14,-19,29,53,53,24
0,-4,-4,2,2,-4,-9,-19,29,53,53,19
-4,-9,-4,7,0,-7,-4,-19,29,53,48,19
-9,-9,0,9,-4,-4,0,-14,29,48,48,19
-9,-9,0,9,-4,-4,4,-14,29,48,48,14
-14,-14,0,14,-7,-7,9,-14,29,48,43,14
-24,-14,9,19,-17,-2,9,-14,29,48,43,14
-24,-19,4,21,-14,-7,9,-14,29,48,43,19
-24,-24,0,24,-12,-12,14,-9,29,43,39,19
-24,-24,0,24,-12,-12,24,-9,29,39,34,9
-19,-34,-14,26,-2,-24,34,-9,19,29,24,4
-29,-39,-9,34,-9,-24,39,-9,19,19,24,-4
-29,-53,-24,41,-2,-39,43,-9,14,19,19,-9
-34,-58,-24,46,-4,-41,48,-9,4,19,14,-14
-34,-63,-29,48,-2,-46,48,-14,4,9,9,-19
-39,-73,-34,56,-2,-53,53,-14,4,14,14,-24
-39,-82,-43,61,2,-63,53,-14,0,9,4,-34
-53,-92,-39,73,-7,-65,58,-14,-4,0,0,-39
-58,-97,-39,78,-9,-68,63,-14,-9,0,-4,-43
-58,-97,-39,78,-9,-68,63,-14,-14,-4,-9,-43
-53,-97,-43,75,-4,-70,68,-14,-14,-9,-14,-43
-48,-102,-53,75,2,-78,63,-9,-4,-9,-14,-43
-39,-102,-63,70,12,-82,68,-4,0,-4,-14,-43
-39,-107,-68,73,14,-87,87,9,9,-4,-9,-43
-39,-112,-73,75,17,-92,112,19,14,-4,-9,-43
-43,-122,-78,82,17,-100,131,39,19,-9,-9,-48
-53,-122,-68,87,7,-95,151,58,24,-14,-14,-48
-68,-131,-63,100,-2,-97,185,48,24,-14,-19,-53
-73,-117,-43,95,-14,-80,195,29,24,-9,-24,-53
-68,-82,-14,75,-26,-48,122,-14,24,-4,-9,-43
-53,-48,4,51,-29,-21,58,-53,19,4,4,-24
-39,-29,9,34,-24,-9,-19,-87,14,9,9,-9
-29,-9,19,19,-24,4,-53,-107,9,9,9,-4
-19,4,24,7,-21,14,-58,-97,0,14,14,-4
-14,14,29,0,-21,21,-58,-92,-9,14,19,-4
-4,19,24,-7,-14,21,-68,-87,-19,9,14,-9
9,4,-4,-7,7,0,-73,-73,-34,4,9,-14
24,4,-19,-14,21,-7,-73,-53,-48,-4,4,-19
29,4,-24,-17,26,-9,-63,-39,-53,-9,4,-19
4,-9,-14,2,9,-12,-48,-19,-53,-9,0,-19
-9,-9,0,9,-4,-4,-39,-4,-19,14,19,-4
-19,4,24,7,-21,14,-29,-4,24,68,68,24
-19,43,63,-12,-41,53,-34,-9,107,165,151,78
-14,146,161,-65,-87,153,-48,-19,234,346,292,175
-4,302,307,-148,-156,305,-87,-39,439,639,546,346
4,434,429,-219,-212,431,-102,-4,688,956,834,531
48,522,473,-285,-212,497,-117,73,868,1234,1083,683
141,595,453,-368,-156,524,-161,117,941,1493,1366,873
214,736,522,-475,-153,629,-248,53,902,1644,1571,1058
204,936,732,-570,-263,834,-370,-209,492,1576,1659,1195
302,1083,780,-692,-239,932,-541,-439,14,1322,1586,1278
566,1156,590,-861,-12,873,-751,-570,-580,839,1239,1229
844,980,136,-912,353,558,-917,-678,-1351,102,722,1019
1171,605,-566,-888,868,19,-1058,-824,-2264,-834,131,775
1215,268,-946,-741,1080,-339,-1000,-854,-2542,-1176,-112,649
771,258,-512,-514,641,-126,-795,-927,-2152,-1000,-73,634
253,53,-200,-153,226,-73,-434,-751,-1522,-863,-268,253
-4,-151,-146,78,70,-148,-117,-307,-795,-624,-400,-141
-97,-190,-92,143,-2,-141,-4,-131,-385,-405,-346,-229
-78,-190,-112,134,17,-151,9,-78,-229,-278,-239,-200
-58,-141,-82,100,12,-112,14,-58,-136,-204,-185,-156
-53,-92,-39,73,-7,-65,24,-43,-58,-131,-122,-107
-53,-82,-29,68,-12,-56,34,-19,-29,-82,-82,-87
-39,-87,-48,63,4,-68,34,-9,-29,-78,-82,-87
-39,-87,-48,63,4,-68,34,0,-29,-78,-82,-87
-43,-87,-43,65,0,-65,39,0,-19,-78,-92,-87
-48,-92,-43,70,-2,-68,48,4,-9,-82,-92,-97
-48,-107,-58,78,4,-82,48,4,-9,-82,-92,-97
-48,-117,-68,82,9,-92,53,9,-9,-87,-97,-102
-53,-126,-73,90,9,-100,58,9,-14,-97,-102,-107
-63,-146,-82,104,9,-114,63,14,-14,-97,-112,-122
-63,-146,-82,104,9,-114,68,9,-19,-102,-117,-122
-53,-146,-92,100,19,-119,68,9,-24,-107,-117,-117
-48,-146,-97,97,24,-122,73,24,-19,-102,-117,-117
-43,-146,-102,95,29,-124,82,34,-14,-102,-117,-117
-39,-146,-107,92,34,-126,87,58,-9,-97,-107,-117
-39,-151,-112,95,36,-131,102,68,4,-97,-102,-117
-39,-156,-117,97,39,-136,131,92,14,-97,-102,-122
-43,-161,-117,102,36,-139,161,112,24,-97,-107,-126
-53,-165,-112,109,29,-139,190,126,29,-97,-112,-131
-63,-156,-92,109,14,-124,195,112,34,-97,-117,-126
-63,-126,-63,95,0,-95,146,82,39,-82,-102,-122
-53,-97,-43,75,-4,-70,78,43,29,-78,-97,-107
-43,-73,-29,58,-7,-51,4,-14,24,-78,-92,-97
-34,-48,-14,41,-9,-31,-24,-39,19,-78,-87,-92
-24,-43,-19,34,-2,-31,-24,-34,9,-78,-87,-92
-19,-39,-19,29,0,-29,-24,-24,-4,-82,-87,-92
-9,-34,-24,21,7,-29,-29,-14,-24,-87,-97,-97
0,-39,-39,19,19,-39,-34,4,-29,-97,-107,-112
19,-43,-63,12,41,-53,-34,34,-39,-107,-112,-112
19,-48,-68,14,43,-58,-24,58,-43,-112,-117,-107
4,-48,-53,21,29,-51,-9,68,-29,-107,-107,-107
-4,-43,-39,24,17,-41,4,68,4,-87,-82,-97
-9,-34,-24,21,7,-29,14,68,29,-58,-73,-82
-14,-19,-4,17,-4,-12,14,63,48,-39,-63,-73
-4,-9,-4,7,0,-7,14,63,53,-39,-53,-63
-4,-9,-4,7,0,-7,19,73,68,-29,-53,-58
0,-9,-9,4,4,-9,19,73,82,-29,-48,-58
0,-9,-9,4,4,-9,19,78,92,-24,-39,-58
0,-9,-9,4,4,-9,14,87,97,-24,-39,-58
4,-9,-14,2,9,-12,14,92,102,-24,-39,-58
4,-9,-14,2,9,-12,19,97,107,-24,-43,-58
4,-14,-19,4,12,-17,24,107,112,-24,-43,-63
4,-14,-19,4,12,-17,24,112,117,-24,-58,-68
0,-14,-14,7,7,-14,29,122,122,-24,-58,-73
0,-19,-19,9,9,-19,34,126,126,-24,-58,-78
-4,-24,-19,14,7,-21,43,136,136,-19,-63,-82
-4,-29,-24,17,9,-26,53,146,146,-24,-73,-87
-9,-34,-24,21,7,-29,63,151,156,-24,-78,-92
-14,-34,-19,24,2,-26,63,161,165,-24,-82,-97
-14,-34,-19,24,2,-26,73,170,175,-34,-87,-107
-19,-29,-9,24,-4,-19,73,180,180,-39,-97,-112
-19,-24,-4,21,-7,-14,78,190,185,-48,-107,-122
-14,-29,-14,21,0,-21,87,200,190,-53,-126,-131
-24,-29,-4,26,-9,-17,92,209,195,-63,-141,-141
-34,-39,-4,36,-14,-21,107,219,200,-73,-151,-156
-43,-48,-4,46,-19,-26,122,224,204,-92,-165,-170
-53,-58,-4,56,-24,-31,126,229,209,-112,-185,-185
-63,-68,-4,65,-29,-36,136,229,214,-126,-209,-204
-73,-78,-4,75,-34,-41,141,234,219,-146,-234,-219
-82,-92,-9,87,-36,-51,146,239,219,-161,-248,-239
-107,-107,0,107,-53,-53,151,239,214,-175,-268,-253
-122,-122,0,122,-61,-61,161,229,214,-190,-287,-268
-131,-131,0,131,-65,-65,165,224,204,-209,-307,-287
-136,-131,4,134,-70,-63,165,214,195,-229,-322,-297
-136,-136,0,136,-68,-68,170,209,195,-239,-336,-307
-141,-136,4,139,-73,-65,180,204,195,-239,-356,-317
-146,-146,0,146,-73,-73,190,204,190,-244,-356,-317
-151,-146,4,148,-78,-70,200,200,190,-253,-356,-322
-151,-151,0,151,-75,-75,214,195,190,-253,-356,-322
-151,-156,-4,153,-73,-80,234,185,180,-248,-351,-322
-156,-165,-9,161,-73,-87,253,195,180,-244,-346,-322
-156,-175,-19,165,-68,-97,273,180,165,-234,-331,-317
-165,-175,-9,170,-78,-92,258,156,146,-219,-307,-287
-165,-156,9,161,-87,-73,229,112,122,-200,-268,-253
-146,-107,39,126,-92,-34,126,43,87,-175,-239,-219
-117,-73,43,95,-80,-14,58,-14,58,-151,-200,-190
-97,-58,39,78,-68,-9,29,-53,34,-131,-175,-161
-78,-43,34,61,-56,-4,9,-73,14,-107,-136,-126
-63,-14,48,39,-56,17,0,-73,0,-78,-97,-92
-43,-4,39,24,-41,17,-19,-73,-29,-63,-78,-73
-14,-9,4,12,-9,-2,-39,-58,-63,-68,-78,-78
14,-9,-24,-2,19,-17,-43,-43,-73,-68,-73,-78
4,-9,-14,2,9,-12,-48,-29,-78,-43,-43,-58
-4,0,4,2,-4,2,-43,-24,-63,-24,-19,-39
-9,14,24,-2,-17,19,-39,-29,-48,4,0,-14
-9,24,34,-7,-21,29,-39,-34,-34,29,19,9
-14,39,53,-12,-34,46,-39,-39,-9,53,43,29
-14,48,63,-17,-39,56,-39,-39,0,63,53,39
0,48,48,-24,-24,48,-39,-39,4,68,63,43
0,48,48,-24,-24,48,-43,-39,14,68,73,43
0,48,48,-24,-24,48,-43,-34,19,73,78,48
4,48,43,-26,-19,46,-43,-34,19,78,82,48
4,48,43,-26,-19,46,-43,-39,24,82,87,53
4,48,43,-26,-19,46,-43,-39,24,82,87,53
4,43,39,-24,-17,41,-39,-39,19,82,82,53
4,43,39,-24,-17,41,-39,-39,19,82,78,48
4,39,34,-21,-14,36,-39,-39,19,82,78,48
4,39,34,-21,-14,36,-34,-34,19,82,78,43
4,39,34,-21,-14,36,-29,-34,24,82,78,48
4,39,34,-21,-14,36,-29,-29,24,82,78,53
4,34,29,-19,-12,31,-29,-29,29,82,78,48
0,34,34,-17,-17,34,-24,-29,34,82,78,48
0,34,34,-17,-17,34,-19,-24,39,87,82,48
0,34,34,-17,-17,34,-19,-24,43,87,87,48
4,34,29,-19,-12,31,-19,-24,48,87,87,53
4,34,29,-19,-12,31,-14,-19,53,87,82,58
4,24,19,-14,-7,21,-9,-14,53,87,78,53
4,14,9,-9,-2,12,-4,-9,48,87,68,43
0,4,4,-2,-2,4,0,-4,43,78,63,39
-9,4,14,2,-12,9,4,-4,34,68,58,29
-9,-4,4,7,-7,0,4,-9,34,58,53,24
-14,-14,0,14,-7,-7,4,-9,34,58,58,19
-14,-29,-14,21,0,-21,14,-9,29,53,43,9
-24,-39,-14,31,-4,-26,19,-9,19,43,34,4
-29,-48,-19,39,-4,-34,19,-14,9,39,29,-4
-34,-53,-19,43,-7,-36,24,-19,4,29,19,-14
-34,-63,-29,48,-2,-46,29,-14,4,19,19,-14
-29,-68,-39,48,4,-53,29,-14,4,14,14,-19
-29,-68,-39,48,4,-53,39,-9,9,14,14,-19
-24,-68,-43,46,9,-56,58,4,14,14,14,-24
-24,-73,-48,48,12,-61,78,24,24,19,9,-29
-39,-78,-39,58,0,-58,97,39,29,24,9,-34
-43,-87,-43,65,0,-65,146,53,34,19,4,-39
-53,-92,-39,73,-7,-65,170,58,34,14,0,-43
-63,-102,-39,82,-12,-70,175,53,43,14,0,-43
-68,-97,-29,82,-19,-63,175,24,48,14,4,-39
-58,-39,19,48,-39,-9,87,-34,39,14,9,-24
-48,-9,39,29,-43,14,9,-82,29,24,19,-9
-39,0,39,19,-39,19,-39,-92,19,24,19,-4
-24,9,34,7,-29,21,-68,-97,9,24,24,0
-14,29,43,-7,-29,36,-78,-92,-4,24,24,0
-4,39,43,-17,-24,41,-78,-87,-19,9,24,0
14,29,14,-21,0,21,-87,-73,-34,4,9,0
29,19,-9,-24,19,4,-92,-53,-53,0,9,-4
29,9,-19,-19,24,-4,-78,-34,-63,-4,4,-9
14,4,-9,-9,12,-2,-63,-14,-58,0,4,-9
-4,9,14,-2,-9,12,-48,-9,-34,9,14,0
-14,9,24,2,-19,17,-34,-9,-4,34,29,9
-14,24,39,-4,-26,31,-34,-24,4,39,43,19
-9,29,39,-9,-24,34,-34,-34,14,43,48,24
-4,29,34,-12,-19,31,-29,-34,19,53,58,24
0,29,29,-14,-14,29,-24,-29,29,58,58,29
0,29,29,-14,-14,29,-19,-29,29,58,58,34
0,29,29,-14,-14,29,-19,-29,29,58,58,39
0,29,29,-14,-14,29,-19,-29,29,58,58,39
0,29,29,-14,-14,29,-19,-29,29,58,58,39
-4,29,34,-12,-19,31,-19,-24,24,58,58,39
-4,29,34,-12,-19,31,-14,-19,19,58,53,39
-9,29,39,-9,-24,34,-14,-19,19,58,53,39
-9,19,29,-4,-19,24,-9,-19,19,53,53,29
-9,14,24,-2,-17,19,-4,-19,19,53,48,24
-9,9,19,0,-14,14,0,-14,19,48,48,19
-9,9,19,0,-14,14,4,-14,24,48,48,14
-9,4,14,2,-12,9,9,-14,29,48,43,14
-14,9,24,2,-19,17,9,-14,29,48,43,14
-14,9,24,2,-19,17,9,-14,29,48,43,14
-14,4,19,4,-17,12,14,-9,29,48,43,14
-19,0,19,9,-19,9,19,-9,29,48,43,9
-19,-9,9,14,-14,0,24,-9,19,39,34,4
-29,-9,19,19,-24,4,29,-9,19,29,34,0
-29,-24,4,26,-17,-9,34,-9,14,24,24,0
-34,-29,4,31,-19,-12,39,-9,4,19,14,-4
-39,-34,4,36,-21,-14,39,-14,4,9,9,-9
-48,-43,4,46,-26,-19,43,-14,4,9,9,-14
-48,-53,-4,51,-21,-29,43,-14,0,0,-4,-24
-58,-63,-4,61,-26,-34,48,-14,-4,-9,-9,-29
-58,-73,-14,65,-21,-43,53,-14,-9,-9,-14,-39
-58,-78,-19,68,-19,-48,53,-14,-14,-9,-14,-43
-53,-78,-24,65,-14,-51,48,-24,-19,-14,-14,-43
-53,-82,-29,68,-12,-56,43,-24,-14,-19,-14,-43
-48,-82,-34,65,-7,-58,53,-14,-14,-14,-14,-43
-48,-82,-34,65,-7,-58,68,0,-9,-14,-9,-43
-43,-82,-39,63,-2,-61,92,14,-4,-14,-9,-43
-43,-92,-48,68,2,-70,107,29,0,-14,-9,-48
-53,-97,-43,75,-4,-70,151,58,14,-14,-14,-53
-63,-102,-39,82,-12,-70,180,58,24,-14,-14,-58
-73,-97,-24,85,-24,-61,190,39,29,-9,-24,-53
-78,-82,-4,80,-36,-43,151,4,34,-4,-19,-43
-63,-29,34,46,-48,2,63,-53,29,9,4,-24
-48,0,48,24,-48,24,-9,-87,19,19,19,-14
-39,9,48,14,-43,29,-39,-102,9,19,19,-9
-29,19,48,4,-39,34,-68,-107,0,19,19,-4
-24,34,58,-4,-41,46,-73,-102,-9,14,19,-4
-14,43,58,-14,-36,51,-82,-92,-19,9,14,-9
9,24,14,-17,-2,19,-87,-73,-43,0,9,-14
19,24,4,-21,7,14,-92,-53,-53,-4,9,-14
19,19,0,-19,9,9,-82,-34,-58,0,4,-19
14,14,0,-14,7,7,-68,-24,-58,19,9,-19
-9,29,39,-9,-24,34,-48,-14,4,63,48,4
-29,68,97,-19,-63,82,-39,-4,82,156,131,58
-19,131,151,-56,-85,141,-53,-9,190,292,248,146
-14,244,258,-114,-136,251,-73,-14,341,512,434,278
4,409,405,-207,-200,407,-117,-29,570,844,732,463
43,527,483,-285,-219,505,-141,4,756,1122,1000,639
107,600,492,-353,-192,546,-165,82,873,1361,1229,790
185,697,512,-441,-163,605,-234,53,834,1522,1449,966
253,863,610,-558,-178,736,-351,-87,697,1586,1586,1137
307,1024,717,-666,-204,871,-492,-331,239,1405,1566,1220
458,1122,663,-790,-102,893,-683,-541,-322,1010,1376,1229
707,1078,370,-893,168,724,-849,-658,-932,448,966,1117
971,795,-175,-883,573,309,-971,-761,-1732,-366,375,834
1127,488,-639,-807,883,-75,-1029,-878,-2347,-1058,-92,605
995,219,-775,-607,885,-278,-883,-863,-2288,-1107,-146,556
561,180,-380,-370,470,-100,-649,-839,-1815,-902,-126,468
48,-43,-92,-2,70,-68,-253,-551,-1112,-761,-370,4
-117,-175,-58,146,-29,-117,-29,-185,-541,-531,-409,-244
-107,-151,-43,129,-31,-97,-9,-102,-283,-326,-278,-209
-87,-151,-63,119,-12,-107,4,-63,-156,-224,-190,-180
-63,-97,-34,80,-14,-65,4,-53,-97,-175,-151,-131
-53,-53,0,53,-26,-26,14,-34,-34,-117,-97,-92
-53,-53,0,53,-26,-26,24,-9,-19,-78,-73,-87
-39,-58,-19,48,-9,-39,24,-4,-19,-73,-73,-87
-43,-58,-14,51,-14,-36,24,0,-19,-78,-73,-87
-53,-63,-9,58,-21,-36,29,0,-14,-78,-82,-87
-58,-73,-14,65,-21,-43,39,4,-9,-82,-82,-97
-58,-87,-29,73,-14,-58,39,4,-9,-82,-82,-97
-58,-97,-39,78,-9,-68,43,9,-9,-87,-87,-102
-63,-102,-39,82,-12,-70,48,9,-14,-97,-92,-107
-78,-126,-48,102,-14,-87,53,9,-19,-102,-107,-126
-82,-136,-53,109,-14,-95,58,4,-24,-107,-112,-131
-73,-136,-63,104,-4,-100,58,9,-29,-107,-107,-126
-68,-136,-68,102,0,-102,63,24,-29,-102,-107,-126
-63,-136,-73,100,4,-104,68,34,-24,-102,-112,-126
-63,-136,-73,100,4,-104,78,53,-19,-97,-112,-126
-63,-141,-78,102,7,-109,102,58,-4,-97,-112,-126
-58,-141,-82,100,12,-112,122,78,0,-97,-112,-131
-63,-151,-87,107,12,-119,161,107,9,-102,-117,-136
-63,-161,-97,112,17,-129,180,122,19,-107,-117,-136
-68,-156,-87,112,9,-122,190,107,34,-107,-126,-126
-73,-136,-63,104,-4,-100,175,92,43,-97,-122,-122
-63,-97,-34,80,-14,-65,82,43,29,-92,-107,-107
-53,-73,-19,63,-17,-46,14,0,24,-87,-97,-102
-43,-53,-9,48,-17,-31,-4,-19,19,-87,-97,-97
-34,-43,-9,39,-12,-26,-24,-34,9,-87,-97,-92
-29,-29,0,29,-14,-14,-24,-29,4,-92,-92,-92
-19,-19,0,19,-9,-9,-29,-24,-4,-97,-97,-97
-9,-29,-19,19,4,-24,-39,-4,-29,-107,-107,-117
0,-34,-34,17,17,-34,-43,19,-48,-112,-107,-122
-4,-43,-39,24,17,-41,-34,48,-53,-122,-117,-122
-14,-48,-34,31,9,-41,-24,68,-48,-117,-117,-122
-24,-43,-19,34,-2,-31,-14,68,-14,-87,-92,-107
-24,-34,-9,29,-7,-21,-4,68,9,-68,-82,-92
-29,-19,9,24,-19,-4,-4,63,39,-53,-68,-82
-24,-9,14,17,-19,2,-4,63,53,-48,-53,-78
-24,-9,14,17,-19,2,0,73,68,-34,-53,-78
-19,-9,9,14,-14,0,0,73,78,-29,-53,-78
-19,-9,9,14,-14,0,0,78,82,-24,-48,-73
-19,-9,9,14,-14,0,0,87,87,-24,-48,-68
-14,-9,4,12,-9,-2,4,92,92,-24,-43,-68
-14,-9,4,12,-9,-2,9,97,97,-24,-43,-68
-14,-14,0,14,-7,-7,14,107,102,-24,-43,-73
-14,-14,0,14,-7,-7,19,112,107,-24,-58,-78
-19,-9,9,14,-14,0,29,122,112,-24,-58,-82
-19,-9,9,14,-14,0,34,126,117,-29,-58,-87
-24,-14,9,19,-17,-2,43,136,126,-29,-63,-87
-24,-19,4,21,-14,-7,48,146,136,-34,-73,-87
-29,-24,4,26,-17,-9,53,151,146,-34,-82,-92
-34,-24,9,29,-21,-7,53,161,156,-34,-92,-97
-34,-24,9,29,-21,-7,63,170,165,-43,-97,-112
-39,-29,9,34,-24,-9,68,180,175,-48,-107,-122
-34,-34,0,34,-17,-17,78,190,190,-58,-117,-131
-29,-43,-14,36,-7,-29,87,200,200,-63,-136,-146
-43,-43,0,43,-21,-21,87,209,204,-73,-146,-156
-53,-48,4,51,-29,-21,92,219,209,-82,-156,-165
-63,-53,9,58,-36,-21,102,224,214,-102,-175,-180
-73,-58,14,65,-43,-21,107,229,214,-122,-195,-195
-82,-68,14,75,-48,-26,117,229,209,-136,-219,-214
-92,-78,14,85,-53,-31,126,229,209,-156,-244,-229
-102,-92,9,97,-56,-41,136,224,209,-175,-263,-253
-122,-102,19,112,-70,-41,141,219,204,-195,-287,-273
-141,-112,29,126,-85,-41,151,209,204,-209,-307,-287
-161,-122,39,141,-100,-41,156,209,200,-224,-326,-302
-165,-126,39,146,-102,-43,156,200,185,-239,-346,-307
-165,-136,29,151,-97,-53,161,190,175,-248,-356,-317
-170,-136,34,153,-102,-51,165,180,170,-253,-366,-331
-175,-146,29,161,-102,-58,170,175,161,-258,-366,-336
-175,-146,29,161,-102,-58,170,170,161,-263,-366,-341
-175,-151,24,163,-100,-63,175,165,161,-263,-366,-341
-175,-156,19,165,-97,-68,204,165,156,-258,-361,-341
-175,-156,19,165,-97,-68,214,170,151,-253,-351,-331
-175,-165,9,170,-92,-78,248,170,136,-244,-336,-326
-175,-161,14,168,-95,-73,244,161,126,-224,-312,-307
-175,-136,39,156,-107,-48,200,102,117,-200,-268,-273
-165,-107,58,136,-112,-24,131,53,97,-175,-239,-239
-136,-68,68,102,-102,0,48,-9,58,-151,-204,-209
-117,-39,78,78,-97,19,-9,-58,24,-131,-185,-180
-97,-19,78,58,-87,29,-19,-78,4,-107,-146,-146
-82,4,87,39,-85,46,-29,-92,-9,-87,-117,-122
-63,9,73,26,-68,41,-48,-107,-43,-82,-107,-112
-43,9,53,17,-48,31,-63,-107,-73,-78,-97,-102
-9,9,19,0,-14,14,-73,-82,-102,-87,-97,-97
-4,9,14,-2,-9,12,-82,-63,-131,-82,-82,-87
-14,9,24,2,-19,17,-73,-48,-112,-63,-58,-68
-19,14,34,2,-26,24,-68,-39,-97,-39,-39,-48
-29,24,53,2,-41,39,-68,-43,-73,-19,-19,-29
-39,39,78,0,-58,58,-68,-48,-43,0,0,-14
-34,53,87,-9,-61,70,-68,-53,-34,14,9,-4
-19,58,78,-19,-48,68,-68,-58,-29,29,19,4
-14,58,73,-21,-43,65,-73,-63,-19,29,24,4
-9,58,68,-24,-39,63,-73,-63,-9,34,29,9
-4,63,68,-29,-36,65,-73,-63,-9,39,34,9
-4,68,73,-31,-39,70,-73,-63,-4,43,39,14
-4,68,73,-31,-39,70,-73,-58,-4,48,39,14
-4,63,68,-29,-36,65,-68,-58,-4,53,39,19
0,63,63,-31,-31,63,-68,-58,0,53,39,19
4,58,53,-31,-24,56,-68,-58,0,53,39,19
4,58,53,-31,-24,56,-63,-48,0,53,39,14
4,58,53,-31,-24,56,-58,-43,4,53,39,14
0,53,53,-26,-26,53,-58,-39,4,53,43,19
-4,43,48,-19,-26,46,-58,-39,9,53,48,19
-9,43,53,-17,-31,48,-48,-39,14,53,48,19
-9,43,53,-17,-31,48,-39,-34,19,58,48,19
-9,43,53,-17,-31,48,-39,-34,24,58,48,19
-9,39,48,-14,-29,43,-39,-34,24,58,48,19
-9,39,48,-14,-29,43,-34,-29,29,63,48,19
-4,34,39,-14,-21,36,-29,-29,34,63,48,14
-4,24,29,-9,-17,26,-24,-29,29,58,39,9
-9,14,24,-2,-17,19,-19,-24,24,48,34,9
-19,14,34,2,-26,24,-14,-24,14,39,29,0
-19,4,24,7,-21,14,-14,-29,14,29,19,-4
-24,-4,19,14,-21,7,-14,-29,19,34,19,-9
-24,-19,4,21,-14,-7,-4,-29,19,34,4,-19
-39,-34,4,36,-21,-14,0,-29,9,24,-4,-24
-43,-48,-4,46,-19,-26,0,-29,4,24,-4,-29
-48,-63,-14,56,-17,-39,0,-34,0,9,-14,-39
-53,-78,-24,65,-14,-51,4,-29,-4,-4,-19,-43
-48,-78,-29,63,-9,-53,0,-29,-9,-9,-24,-48
-48,-78,-29,63,-9,-53,0,-29,-9,-14,-24,-48
-34,-78,-43,56,4,-61,14,-14,-4,-14,-24,-53
-24,-82,-58,53,17,-70,29,0,4,-14,-29,-58
-39,-87,-48,63,4,-68,48,19,9,-9,-29,-63
-43,-92,-48,68,2,-70,73,29,14,-9,-34,-63
-53,-107,-53,80,0,-80,122,53,24,-14,-39,-68
-58,-117,-58,87,0,-87,151,73,34,-14,-39,-73
-78,-117,-39,97,-19,-78,170,43,39,-14,-34,-68
-87,-92,-4,90,-41,-48,146,14,39,-14,-29,-58
-78,-53,24,65,-51,-14,43,-48,29,0,-19,-43
-68,-19,48,43,-58,14,-29,-87,19,4,-19,-34
-48,-4,43,26,-46,19,-58,-102,9,9,-14,-29
-34,9,43,12,-39,26,-87,-112,-4,14,-14,-29
-24,14,39,4,-31,26,-87,-107,-19,0,-9,-29
-14,9,24,2,-19,17,-92,-92,-24,-4,-19,-29
0,0,0,0,0,0,-107,-73,-48,-19,-19,-34
9,-4,-14,-2,12,-9,-107,-58,-63,-29,-19,-39
4,-14,-19,4,12,-17,-92,-29,-68,-24,-29,-43
0,-19,-19,9,9,-19,-78,-9,-73,-19,-34,-39
-19,-24,-4,21,-7,-14,-53,-4,-39,4,-9,-29
-34,-14,19,24,-26,2,-43,-9,-19,9,9,-19
-29,-9,19,19,-24,4,-43,-14,-9,19,9,-9
-24,-9,14,17,-19,2,-43,-14,0,29,19,-4
-19,-4,14,12,-17,4,-43,-14,4,34,24,-4
-19,4,24,7,-21,14,-43,-19,9,39,29,4
-19,0,19,9,-19,9,-39,-19,9,39,29,0
-19,0,19,9,-19,9,-39,-19,9,39,29,0
-19,0,19,9,-19,9,-39,-19,9,39,29,0
-19,0,19,9,-19,9,-39,-19,9,39,29,0
-24,0,24,12,-24,12,-39,-19,9,34,24,0
-29,0,29,14,-29,14,-39,-19,9,29,19,0
-29,0,29,14,-29,14,-39,-19,4,29,19,-4
-29,0,29,14,-29,14,-34,-19,0,24,14,-9
-29,-4,24,17,-26,9,-29,-19,0,24,14,-19
-34,0,34,17,-34,17,-24,-19,0,24,9,-19
-39,0,39,19,-39,19,-19,-14,4,19,9,-19
-39,0,39,19,-39,19,-14,-14,9,19,9,-24
-39,-9,29,24,-34,9,-9,-19,9,19,4,-24
-43,-14,29,29,-36,7,-9,-24,9,19,4,-24
-43,-19,24,31,-34,2,-14,-24,9,19,0,-24
-43,-24,19,34,-31,-2,-14,-19,9,14,-9,-29
-43,-19,24,31,-34,2,-9,-19,9,9,-19,-39
-39,-24,14,31,-26,-4,-4,-19,0,0,-34,-43
-48,-29,19,39,-34,-4,0,-19,-4,-14,-34,-48
-48,-43,4,46,-26,-19,4,-19,-14,-19,-39,-48
-58,-48,9,53,-34,-19,9,-19,-24,-19,-43,-53
-63,-53,9,58,-36,-21,9,-24,-24,-29,-48,-58
-68,-68,0,68,-34,-34,14,-24,-24,-29,-43,-63
-68,-82,-14,75,-26,-48,14,-24,-29,-39,-53,-73
-78,-92,-14,85,-31,-53,19,-24,-34,-48,-58,-82
-78,-97,-19,87,-29,-58,24,-24,-39,-48,-63,-92
-78,-97,-19,87,-29,-58,24,-29,-43,-48,-68,-92
-73,-97,-24,85,-24,-61,29,-34,-43,-48,-73,-92
-73,-107,-34,90,-19,-70,24,-24,-34,-48,-73,-92
-68,-112,-43,90,-12,-78,29,-14,-29,-43,-73,-92
-68,-117,-48,92,-9,-82,48,4,-19,-39,-68,-92
-68,-122,-53,95,-7,-87,73,19,-14,-34,-68,-92
-73,-131,-58,102,-7,-95,97,43,-9,-34,-63,-97
-82,-131,-48,107,-17,-90,122,68,-4,-34,-63,-97
-97,-146,-48,122,-24,-97,156,58,4,-34,-63,-97
-102,-136,-34,119,-34,-85,165,39,14,-29,-63,-92
-97,-92,4,95,-51,-43,92,-4,19,-24,-48,-78
-82,-48,34,65,-58,-7,29,-43,19,-14,-34,-53
-68,-29,39,48,-53,4,-48,-82,9,-9,-29,-43
-58,-9,48,34,-53,19,-82,-107,0,-9,-29,-43
-48,0,48,24,-48,24,-87,-97,-9,-9,-29,-43
-43,4,48,19,-46,26,-87,-92,-19,-14,-29,-43
-34,4,39,14,-36,21,-92,-87,-34,-24,-39,-53
-19,-14,4,17,-12,-4,-92,-73,-53,-34,-48,-63
-14,-14,0,14,-7,-7,-97,-53,-63,-34,-48,-63
-19,-14,4,17,-12,-4,-92,-39,-63,-29,-43,-58
-34,-14,19,24,-26,2,-78,-24,-48,-9,-29,-48
-39,0,39,19,-39,19,-68,-14,0,34,9,-24
-39,39,78,0,-58,58,-63,-14,63,136,112,48
-29,102,131,-36,-80,117,-73,-19,165,283,248,146
-19,214,234,-97,-126,224,-92,-29,302,502,448,278
-4,380,385,-187,-195,383,-136,-48,517,834,761,483
24,497,473,-261,-224,485,-165,-24,683,1107,1039,683
87,570,483,-329,-197,527,-195,43,780,1342,1278,849
161,678,517,-419,-178,597,-263,4,746,1498,1498,1039
214,854,639,-534,-212,746,-375,-141,600,1546,1639,1224
258,1015,756,-636,-248,885,-507,-370,175,1356,1586,1283
409,1122,712,-766,-151,917,-688,-566,-317,980,1371,1288
634,1107,473,-871,80,790,-834,-653,-849,448,971,1185
873,844,-29,-858,451,407,-936,-717,-1556,-336,400,922
966,546,-419,-756,692,63,-980,-839,-2156,-1019,-58,702
775,287,-488,-531,631,-100,-824,-844,-2122,-1107,-170,600
385,204,-180,-295,283,12,-590,-800,-1717,-932,-214,434
-78,-73,4,75,-41,-34,-200,-507,-1073,-795,-492,-97
-195,-200,-4,197,-95,-102,-4,-156,-517,-570,-517,-336
-146,-161,-14,153,-65,-87,-14,-73,-278,-366,-356,-268
-122,-161,-39,141,-41,-100,-9,-43,-156,-253,-263,-234
-97,-112,-14,104,-41,-63,-14,-48,-97,-195,-224,-185
-87,-78,9,82,-48,-34,-4,-34,-34,-146,-175,-151
-82,-82,0,82,-41,-41,4,-9,-19,-122,-151,-146
-68,-87,-19,78,-24,-53,4,-4,-24,-122,-156,-151
-68,-87,-19,78,-24,-53,4,0,-29,-126,-161,-156
-73,-87,-14,80,-29,-51,4,-4,-29,-126,-170,-156
-78,-92,-14,85,-31,-53,9,-4,-29,-131,-170,-165
-78,-107,-29,92,-24,-68,9,-4,-29,-131,-170,-165
-78,-117,-39,97,-19,-78,14,0,-29,-136,-175,-170
-87,-131,-43,109,-21,-87,19,0,-34,-151,-190,-175
-102,-156,-53,129,-24,-104,24,4,-34,-156,-209,-190
-102,-161,-58,131,-21,-109,29,4,-43,-161,-214,-200
-92,-165,-73,129,-9,-119,29,9,-53,-165,-214,-204
-87,-165,-78,126,-4,-122,29,14,-53,-165,-214,-204
-82,-165,-82,124,0,-124,34,14,-53,-170,-214,-204
-82,-165,-82,124,0,-124,39,34,-48,-165,-214,-204
-87,-170,-82,129,-2,-126,53,39,-34,-165,-219,-204
-87,-175,-87,131,0,-131,82,63,-24,-165,-219,-209
-92,-180,-87,136,-2,-134,112,82,-14,-165,-224,-214
-92,-195,-102,143,4,-148,151,117,-9,-170,-234,-224
-92,-195,-102,143,4,-148,165,122,-4,-175,-244,-224
-97,-165,-68,131,-14,-117,131,102,4,-165,-229,-219
-92,-136,-43,114,-24,-90,78,73,0,-165,-224,-204
-82,-112,-29,97,-26,-70,-9,4,-4,-161,-214,-195
-73,-87,-14,80,-29,-51,-53,-29,-9,-156,-204,-190
-63,-82,-19,73,-21,-51,-53,-34,-19,-156,-204,-185
-58,-78,-19,68,-19,-48,-53,-34,-34,-161,-204,-180
-48,-68,-19,58,-14,-43,-58,-34,-53,-165,-214,-185
-39,-68,-29,53,-4,-48,-63,-24,-58,-175,-224,-200
-19,-87,-68,53,24,-78,-63,0,-82,-185,-234,-200
-19,-107,-87,63,34,-97,-53,19,-102,-190,-244,-195
-34,-117,-82,75,24,-100,-43,43,-102,-195,-248,-204
-43,-122,-78,82,17,-100,-34,58,-82,-185,-239,-204
-53,-112,-58,82,2,-85,-14,58,-43,-151,-214,-180
-63,-97,-34,80,-14,-65,-4,53,-9,-126,-190,-161
-53,-87,-34,70,-9,-61,-14,53,0,-126,-180,-156
-53,-87,-34,70,-9,-61,-19,63,19,-117,-180,-156
-48,-87,-39,68,-4,-63,-19,63,29,-117,-185,-165
-48,-87,-39,68,-4,-63,-19,73,34,-112,-185,-175
-48,-87,-39,68,-4,-63,-19,73,34,-112,-185,-175
