I, II, III, aVR, aVL, aVF, V1, V2, V3, V4, V5, V6
0,19,19,-9,-9,19,-48,-9,-39,-19,-48,-68
14,29,14,-21,0,21,-48,-9,-34,-14,-48,-68
29,39,9,-34,9,24,-48,-9,-29,-9,-48,-68
29,43,14,-36,7,29,-48,-9,-24,-4,-43,-68
29,48,19,-39,4,34,-48,-9,-19,0,-39,-68
29,58,29,-43,0,43,-48,-9,-19,0,-39,-68
29,68,39,-48,-4,53,-48,-9,-19,0,-39,-68
24,73,48,-48,-12,61,-53,-19,-19,0,-43,-68
19,78,58,-48,-19,68,-58,-29,-19,0,-48,-68
19,78,58,-48,-19,68,-63,-29,-14,0,-48,-68
19,78,58,-48,-19,68,-68,-29,-9,0,-48,-68
24,92,68,-58,-21,80,-68,-24,0,0,-48,-63
29,107,78,-68,-24,92,-68,-19,9,0,-48,-58
29,107,78,-68,-24,92,-63,-19,14,4,-48,-58
29,107,78,-68,-24,92,-58,-19,19,9,-48,-58
29,122,92,-75,-31,107,-58,-19,29,9,-53,-63
29,136,107,-82,-39,122,-58,-19,39,9,-58,-68
14,136,122,-75,-53,129,-58,-24,43,9,-58,-68
0,136,136,-68,-68,136,-58,-29,48,9,-58,-68
-4,136,141,-65,-73,139,-58,-29,53,9,-68,-73
-9,136,146,-63,-78,141,-58,-29,58,9,-78,-78
-9,136,146,-63,-78,141,-53,-24,68,14,-78,-82
-9,136,146,-63,-78,141,-48,-19,78,19,-78,-87
-9,156,165,-73,-87,161,-48,-19,87,19,-82,-87
-9,175,185,-82,-97,180,-48,-19,97,19,-87,-87
-9,175,185,-82,-97,180,-43,-19,102,19,-92,-92
-9,175,185,-82,-97,180,-39,-19,107,19,-97,-97
-34,156,190,-61,-112,173,-39,-19,107,9,-112,-112
-58,136,195,-39,-126,165,-39,-19,107,0,-126,-126
-58,136,195,-39,-126,165,-39,-19,112,0,-126,-126
-58,136,195,-39,-126,165,-39,-19,117,0,-126,-126
-53,136,190,-41,-122,163,-29,-14,126,4,-122,-126
-48,136,185,-43,-117,161,-19,-9,136,9,-117,-126
-39,136,175,-48,-107,156,-14,0,141,19,-117,-126
-29,136,165,-53,-97,151,-9,9,146,29,-117,-126
-29,131,161,-51,-95,146,-9,14,146,29,-107,-117
-29,126,156,-48,-92,141,-9,19,146,29,-97,-107
-14,126,141,-56,-78,134,-9,19,136,29,-92,-107
0,126,126,-63,-63,126,-9,19,126,29,-87,-107
4,126,122,-65,-58,124,-9,14,122,34,-73,-92
9,126,117,-68,-53,122,-9,9,117,39,-58,-78
14,126,112,-70,-48,119,-14,4,107,43,-48,-63
19,126,107,-73,-43,117,-19,0,97,48,-39,-48
19,112,92,-65,-36,102,-24,0,87,48,-29,-43
19,97,78,-58,-29,87,-29,0,78,48,-19,-39
19,97,78,-58,-29,87,-34,-4,63,48,-4,-24
19,97,78,-58,-29,87,-39,-9,48,48,9,-9
29,97,68,-63,-19,82,-39,-9,43,53,24,4
39,97,58,-68,-9,78,-39,-9,39,58,39,19
39,92,53,-65,-7,73,-39,-9,34,58,39,19
39,87,48,-63,-4,68,-39,-9,29,58,39,19
43,87,43,-65,0,65,-39,-9,29,58,48,24
48,87,39,-68,4,63,-39,-9,29,58,58,29
48,82,34,-65,7,58,-43,-14,19,53,58,29
48,78,29,-63,9,53,-48,-19,9,48,58,29
34,68,34,-51,0,51,-53,-24,4,48,58,29
19,58,39,-39,-9,48,-58,-29,0,48,58,29
29,58,29,-43,0,43,-58,-29,0,48,58,29
39,58,19,-48,9,39,-58,-29,0,48,58,29
39,63,24,-51,7,43,-53,-24,0,48,63,39
39,68,29,-53,4,48,-48,-19,0,48,68,48
48,73,24,-61,12,48,-48,-19,0,53,68,48
58,78,19,-68,19,48,-48,-19,0,58,68,48
68,78,9,-73,29,43,-39,-19,0,58,68,48
78,78,0,-78,39,39,-29,-19,0,58,68,48
48,58,9,-53,19,34,-39,-19,0,53,63,43
19,39,19,-29,0,29,-48,-19,0,48,58,39
14,34,19,-24,-2,26,-48,-19,0,48,53,39
9,29,19,-19,-4,24,-48,-19,0,48,48,39
9,29,19,-19,-4,24,-48,-19,0,48,48,39
9,29,19,-19,-4,24,-48,-19,0,48,48,39
14,29,14,-21,0,21,-43,-19,0,48,53,39
19,29,9,-24,4,19,-39,-19,0,48,58,39
19,29,9,-24,4,19,-39,-19,0,48,58,39
19,29,9,-24,4,19,-39,-19,0,48,58,39
19,34,14,-26,2,24,-39,-19,0,43,53,39
19,39,19,-29,0,29,-39,-19,0,39,48,39
19,48,29,-34,-4,39,-39,-19,0,39,48,39
19,58,39,-39,-9,48,-39,-19,0,39,48,39
19,48,29,-34,-4,39,-39,-19,0,39,48,39
19,39,19,-29,0,29,-39,-19,0,39,48,39
19,39,19,-29,0,29,-39,-19,0,39,48,39
19,39,19,-29,0,29,-39,-19,0,39,48,39
19,39,19,-29,0,29,-39,-19,-4,39,58,39
19,39,19,-29,0,29,-39,-19,-9,39,68,39
14,34,19,-24,-2,26,-34,-19,-9,29,53,34
9,29,19,-19,-4,24,-29,-19,-9,19,39,29
9,19,9,-14,0,14,-24,-19,-9,14,29,24
9,9,0,-9,4,4,-19,-19,-9,9,19,19
14,0,-14,-7,14,-7,-14,-14,-9,9,19,14
19,-9,-29,-4,24,-19,-9,-9,-9,9,19,9
19,-9,-29,-4,24,-19,-9,-9,-14,9,19,9
19,-9,-29,-4,24,-19,-9,-9,-19,9,19,9
19,0,-19,-9,19,-9,-9,-9,-19,9,19,14
19,9,-9,-14,14,0,-9,-9,-19,9,19,19
19,9,-9,-14,14,0,-9,-9,-19,9,19,19
19,9,-9,-14,14,0,-9,-9,-19,9,19,19
9,-4,-14,-2,12,-9,-9,-9,-24,0,14,14
0,-19,-19,9,9,-19,-9,-9,-29,-9,9,9
-14,-29,-14,21,0,-21,-14,-14,-39,-9,4,4
-29,-39,-9,34,-9,-24,-19,-19,-48,-9,0,0
-14,-39,-24,26,4,-31,-19,-19,-39,-9,0,0
0,-39,-39,19,19,-39,-19,-19,-29,-9,0,0
0,-34,-34,17,17,-34,-19,-14,-29,-4,0,4
0,-29,-29,14,14,-29,-19,-9,-29,0,0,9
9,-19,-29,4,19,-24,-19,-9,-29,0,4,9
19,-9,-29,-4,24,-19,-19,-9,-29,0,9,9
9,-19,-29,4,19,-24,-19,-9,-29,0,9,9
0,-29,-29,14,14,-29,-19,-9,-29,0,9,9
-9,-34,-24,21,7,-29,-24,-19,-34,-9,4,4
-19,-39,-19,29,0,-29,-29,-29,-39,-19,0,0
-19,-39,-19,29,0,-29,-29,-29,-39,-19,0,0
-19,-39,-19,29,0,-29,-29,-29,-39,-19,0,0
-14,-34,-19,24,2,-26,-29,-29,-39,-14,4,4
-9,-29,-19,19,4,-24,-29,-29,-39,-9,9,9
-4,-19,-14,12,4,-17,-29,-24,-39,-4,14,9
0,-9,-9,4,4,-9,-29,-19,-39,0,19,9
0,-9,-9,4,4,-9,-29,-19,-39,0,19,9
0,-9,-9,4,4,-9,-29,-19,-39,0,19,9
0,-14,-14,7,7,-14,-24,-19,-39,-4,14,9
0,-19,-19,9,9,-19,-19,-19,-39,-9,9,9
4,-19,-24,7,14,-21,-19,-19,-39,-9,9,9
9,-19,-29,4,19,-24,-19,-19,-39,-9,9,9
9,-19,-29,4,19,-24,-19,-14,-34,-9,9,9
9,-19,-29,4,19,-24,-19,-9,-29,-9,9,9
9,-19,-29,4,19,-24,-14,-9,-29,-9,9,9
9,-19,-29,4,19,-24,-9,-9,-29,-9,9,9
9,-19,-29,4,19,-24,-9,-14,-29,-9,9,9
9,-19,-29,4,19,-24,-9,-19,-29,-9,9,9
4,-24,-29,9,17,-26,-14,-19,-29,-14,9,9
0,-29,-29,14,14,-29,-19,-19,-29,-19,9,9
-4,-39,-34,21,14,-36,-19,-19,-29,-19,9,9
-9,-48,-39,29,14,-43,-19,-19,-29,-19,9,9
-9,-48,-39,29,14,-43,-19,-19,-29,-19,9,9
-9,-48,-39,29,14,-43,-19,-19,-29,-19,9,9
-4,-43,-39,24,17,-41,-14,-19,-29,-19,9,9
0,-39,-39,19,19,-39,-9,-19,-29,-19,9,9
0,-39,-39,19,19,-39,-9,-19,-29,-19,9,9
0,-39,-39,19,19,-39,-9,-19,-29,-19,9,9
0,-39,-39,19,19,-39,-14,-19,-29,-19,9,9
0,-39,-39,19,19,-39,-19,-19,-29,-19,9,9
-4,-43,-39,24,17,-41,-19,-19,-29,-19,9,9
-9,-48,-39,29,14,-43,-19,-19,-29,-19,9,9
-9,-48,-39,29,14,-43,-19,-19,-29,-19,9,9
-9,-48,-39,29,14,-43,-19,-19,-29,-19,9,9
-4,-48,-43,26,19,-46,-19,-19,-29,-14,9,14
0,-48,-48,24,24,-48,-19,-19,-29,-9,9,19
0,-48,-48,24,24,-48,-14,-14,-29,-9,14,19
0,-48,-48,24,24,-48,-9,-9,-29,-9,19,19
4,-43,-48,19,26,-46,-9,-9,-29,-9,24,19
9,-39,-48,14,29,-43,-9,-9,-29,-9,29,19
9,-39,-48,14,29,-43,-9,-9,-29,-9,29,19
9,-39,-48,14,29,-43,-9,-9,-29,-9,29,19
9,-39,-48,14,29,-43,-14,-9,-29,-9,24,19
9,-39,-48,14,29,-43,-19,-9,-29,-9,19,19
4,-43,-48,19,26,-46,-19,-9,-29,-9,19,19
0,-48,-48,24,24,-48,-19,-9,-29,-9,19,19
0,-48,-48,24,24,-48,-19,-9,-29,-9,19,19
0,-48,-48,24,24,-48,-19,-9,-29,-9,19,19
0,-48,-48,24,24,-48,-19,-9,-29,-9,19,19
0,-48,-48,24,24,-48,-19,-9,-29,-9,19,19
4,-48,-53,21,29,-51,-14,-9,-29,-9,19,19
9,-48,-58,19,34,-53,-9,-9,-29,-9,19,19
9,-53,-63,21,36,-58,-9,-9,-29,-9,19,19
9,-58,-68,24,39,-63,-9,-9,-29,-9,19,19
4,-58,-63,26,34,-61,-14,-9,-29,-9,19,14
0,-58,-58,29,29,-58,-19,-9,-29,-9,19,9
0,-58,-58,29,29,-58,-19,-9,-29,-9,19,9
0,-58,-58,29,29,-58,-19,-9,-29,-9,19,9
14,-53,-68,19,41,-61,-14,-4,-24,-9,19,14
29,-48,-78,9,53,-63,-9,0,-19,-9,19,19
14,-48,-63,17,39,-56,-9,0,-19,-9,19,19
0,-48,-48,24,24,-48,-9,0,-19,-9,19,19
0,-48,-48,24,24,-48,-9,-4,-24,-9,19,19
0,-48,-48,24,24,-48,-9,-9,-29,-9,19,19
0,-58,-58,29,29,-58,-9,-9,-29,-9,19,19
0,-68,-68,34,34,-68,-9,-9,-29,-9,19,19
-9,-68,-58,39,24,-63,-9,-9,-29,-9,19,19
-19,-68,-48,43,14,-58,-9,-9,-29,-9,19,19
-4,-58,-53,31,24,-56,-9,-4,-24,-9,19,19
9,-48,-58,19,34,-53,-9,0,-19,-9,19,19
9,-48,-58,19,34,-53,-9,0,-19,-9,19,19
9,-48,-58,19,34,-53,-9,0,-19,-9,19,19
4,-53,-58,24,31,-56,-9,-4,-24,-9,19,19
0,-58,-58,29,29,-58,-9,-9,-29,-9,19,19
0,-58,-58,29,29,-58,-9,-9,-29,-9,19,19
0,-58,-58,29,29,-58,-9,-9,-29,-9,19,19
0,-58,-58,29,29,-58,-9,-9,-29,-9,19,19
0,-58,-58,29,29,-58,-9,-9,-29,-9,19,19
0,-58,-58,29,29,-58,-9,-9,-29,-9,19,19
0,-58,-58,29,29,-58,-9,-9,-29,-9,19,19
0,-58,-58,29,29,-58,-9,-9,-29,-9,14,19
0,-58,-58,29,29,-58,-9,-9,-29,-9,9,19
-4,-58,-53,31,24,-56,-14,-14,-34,-9,9,19
-9,-58,-48,34,19,-53,-19,-19,-39,-9,9,19
-9,-58,-48,34,19,-53,-19,-19,-39,-9,9,19
-9,-58,-48,34,19,-53,-19,-19,-39,-9,9,19
0,-48,-48,24,24,-48,-14,-14,-34,-9,14,24
9,-39,-48,14,29,-43,-9,-9,-29,-9,19,29
14,-39,-53,12,34,-46,-9,-9,-29,-9,19,29
19,-39,-58,9,39,-48,-9,-9,-29,-9,19,29
19,-39,-58,9,39,-48,-9,-9,-29,-9,19,29
19,-39,-58,9,39,-48,-9,-9,-29,-9,19,29
19,-39,-58,9,39,-48,-9,-9,-29,-9,19,24
19,-39,-58,9,39,-48,-9,-9,-29,-9,19,19
19,-43,-63,12,41,-53,-9,-9,-29,-9,19,19
19,-48,-68,14,43,-58,-9,-9,-29,-9,19,19
19,-43,-63,12,41,-53,-9,-9,-29,-9,19,24
19,-39,-58,9,39,-48,-9,-9,-29,-4,19,24
19,-39,-58,9,39,-48,-14,-14,-29,0,24,24
19,-29,-48,4,34,-39,-19,-14,-24,9,29,24
19,-19,-39,0,29,-29,-19,-14,-14,14,34,39
34,-4,-39,-14,36,-21,-14,-14,-4,9,43,39
34,24,-9,-29,21,7,-9,-14,14,24,53,53
34,34,0,-34,17,17,-4,-14,29,34,63,68
29,34,4,-31,12,19,-4,-9,39,43,68,68
29,29,0,-29,14,14,-9,-9,39,43,68,68
34,19,-14,-26,24,2,-14,-9,34,39,63,68
43,19,-24,-31,34,-2,-24,-14,34,39,63,68
68,39,-29,-53,48,4,-43,-19,34,48,73,73
87,58,-29,-73,58,14,-63,-29,24,48,73,78
102,68,-34,-85,68,17,-82,-39,14,43,78,82
117,68,-48,-92,82,9,-87,-48,4,34,78,82
107,34,-73,-70,90,-19,-87,-48,-14,14,53,73
97,-4,-102,-46,100,-53,-87,-48,-39,4,43,63
87,9,-78,-48,82,-34,-87,-48,-43,0,43,58
87,24,-63,-56,75,-19,-87,-48,-43,-4,39,53
102,14,-87,-58,95,-36,-87,-43,-58,-9,34,53
112,-4,-117,-53,114,-61,-87,-43,-78,-19,29,53
102,-9,-112,-46,107,-61,-82,-43,-78,-24,29,53
87,-9,-97,-39,92,-53,-73,-43,-78,-24,29,53
107,4,-102,-56,104,-48,-68,-39,-68,-14,34,58
126,24,-102,-75,114,-39,-63,-34,-58,-9,39,63
92,14,-78,-53,85,-31,-48,-24,-48,4,43,68
68,-4,-73,-31,70,-39,-39,-19,-39,4,43,68
19,-29,-48,4,34,-39,-24,-4,-34,4,43,53
-4,-63,-58,34,26,-61,-4,0,-34,-9,24,29
4,-73,-78,34,41,-75,0,0,-43,-19,9,14
4,-73,-78,34,41,-75,0,-4,-48,-29,-4,9
9,-82,-92,36,51,-87,0,-4,-48,-29,-4,4
14,-82,-97,34,56,-90,0,-4,-48,-34,-4,4
9,-82,-92,36,51,-87,0,0,-48,-29,0,9
9,-78,-87,34,48,-82,0,0,-48,-24,4,14
14,-78,-92,31,53,-85,0,0,-48,-29,4,14
9,-78,-87,34,48,-82,0,0,-48,-29,4,14
9,-73,-82,31,46,-78,0,-4,-48,-24,9,14
14,-68,-82,26,48,-75,0,-9,-48,-24,9,19
9,-63,-73,26,41,-68,-4,-9,-48,-24,9,14
9,-63,-73,26,41,-68,-4,-9,-48,-14,9,9
14,-68,-82,26,48,-75,-4,-4,-48,-14,9,9
14,-68,-82,26,48,-75,-9,0,-53,-14,9,9
19,-63,-82,21,51,-73,-19,-14,-48,0,29,29
24,-48,-73,12,48,-61,-29,-24,-29,29,58,58
24,-4,-29,-9,26,-17,-39,-43,19,112,146,122
58,82,24,-70,17,53,-63,-68,107,268,317,253
82,224,141,-153,-29,183,-102,-102,224,502,570,468
146,414,268,-280,-61,341,-156,-122,405,824,927,766
214,605,390,-409,-87,497,-195,-141,585,1141,1278,1049
263,756,492,-509,-114,624,-224,-141,712,1351,1517,1263
292,858,566,-575,-136,712,-229,-141,756,1361,1556,1332
258,780,522,-519,-131,651,-195,-136,653,1063,1254,1146
170,488,317,-329,-73,402,-102,-131,283,317,463,590
39,48,9,-43,14,29,43,-87,-63,-370,-307,-53
-58,-258,-200,158,70,-229,146,-9,-200,-653,-688,-414
-180,-439,-258,309,39,-348,229,53,-224,-732,-824,-585
-331,-551,-219,441,-56,-385,331,112,-185,-722,-834,-663
-463,-590,-126,527,-168,-358,385,126,-117,-658,-795,-678
-566,-600,-34,583,-265,-317,414,126,-29,-527,-702,-634
-575,-570,4,573,-290,-283,414,146,43,-424,-600,-561
-502,-517,-14,509,-244,-265,414,165,78,-370,-536,-507
-458,-463,-4,461,-226,-234,414,195,122,-307,-468,-448
-448,-444,4,446,-226,-219,463,244,170,-268,-419,-409
-448,-429,19,439,-234,-204,512,278,239,-219,-370,-375
-444,-400,43,422,-244,-178,517,263,253,-170,-326,-331
-429,-366,63,397,-246,-151,507,239,248,-156,-278,-287
-400,-351,48,375,-224,-151,488,195,209,-156,-263,-263
-370,-341,29,356,-200,-156,468,161,170,-156,-239,-239
-331,-331,0,331,-165,-165,444,146,126,-156,-209,-209
-312,-331,-19,322,-146,-175,414,131,68,-156,-190,-190
-273,-322,-48,297,-112,-185,375,102,4,-170,-185,-185
-239,-317,-78,278,-80,-197,341,92,-24,-165,-180,-165
-195,-278,-82,236,-56,-180,297,87,-24,-151,-156,-146
-151,-229,-78,190,-36,-153,268,97,-29,-117,-126,-117
-102,-185,-82,143,-9,-134,234,92,-29,-102,-102,-97
-43,-136,-92,90,24,-114,190,82,-24,-78,-82,-73
-39,-136,-97,87,29,-117,146,58,-24,-68,-63,-58
-43,-136,-92,90,24,-114,97,39,-29,-48,-48,-43
-48,-126,-78,87,14,-102,68,19,-29,-39,-39,-39
-43,-126,-82,85,19,-104,43,4,-29,-34,-29,-29
-34,-117,-82,75,24,-100,29,4,-34,-34,-34,-34
-29,-117,-87,73,29,-102,14,4,-39,-34,-39,-34
-24,-117,-92,70,34,-104,14,4,-39,-29,-34,-34
-34,-126,-92,80,29,-109,9,4,-39,-29,-34,-29
-19,-117,-97,68,39,-107,9,9,-34,-29,-24,-29
-4,-107,-102,56,48,-104,14,19,-34,-29,-24,-29
-4,-102,-97,53,46,-100,19,19,-34,-29,-24,-29
-4,-102,-97,53,46,-100,24,19,-29,-29,-19,-29
-4,-97,-92,51,43,-95,24,19,-29,-29,-19,-24
0,-87,-87,43,43,-87,19,19,-29,-29,-19,-19
0,-87,-87,43,43,-87,19,24,-29,-29,-19,-19
0,-87,-87,43,43,-87,24,24,-29,-24,-14,-14
0,-92,-92,46,46,-92,24,24,-29,-24,-14,-14
0,-102,-102,51,51,-102,24,24,-24,-24,-9,-14
-9,-102,-92,56,41,-97,29,24,-24,-24,-9,-19
-14,-102,-87,58,36,-95,34,29,-24,-19,-9,-19
-4,-97,-92,51,43,-95,34,29,-24,-19,-14,-19
4,-87,-92,41,48,-90,29,24,-29,-24,-19,-19
4,-87,-92,41,48,-90,24,19,-29,-24,-19,-19
-4,-87,-82,46,39,-85,24,19,-29,-24,-19,-19
-4,-87,-82,46,39,-85,29,24,-29,-24,-19,-14
-4,-102,-97,53,46,-100,29,24,-24,-24,-24,-14
0,-102,-102,51,51,-102,24,29,-24,-24,-29,-19
4,-92,-97,43,51,-95,14,29,-24,-24,-29,-19
4,-87,-92,41,48,-90,14,29,-24,-24,-29,-24
9,-82,-92,36,51,-87,19,29,-24,-24,-24,-24
14,-87,-102,36,58,-95,24,29,-24,-19,-24,-24
14,-87,-102,36,58,-95,24,29,-19,-19,-24,-29
4,-87,-92,41,48,-90,19,29,-19,-19,-24,-29
4,-92,-97,43,51,-95,19,29,-19,-14,-29,-29
9,-87,-97,39,53,-92,24,29,-19,-14,-34,-24
14,-78,-92,31,53,-85,24,29,-19,-14,-34,-24
19,-78,-97,29,58,-87,24,34,-14,-14,-29,-24
19,-73,-92,26,56,-82,24,39,-14,-14,-29,-24
19,-73,-92,26,56,-82,9,39,-14,-14,-34,-24
24,-68,-92,21,58,-80,9,39,-14,-14,-34,-19
19,-68,-87,24,53,-78,14,34,-9,-14,-34,-19
19,-63,-82,21,51,-73,14,29,-9,-9,-29,-19
24,-48,-73,12,48,-61,14,29,-4,-4,-24,-14
29,-39,-68,4,48,-53,14,34,-4,-4,-24,-14
29,-39,-68,4,48,-53,14,34,4,0,-24,-14
24,-43,-68,9,46,-56,14,29,9,0,-24,-9
19,-48,-68,14,43,-58,4,24,4,-4,-24,-14
14,-53,-68,19,41,-61,0,24,0,-9,-24,-19
14,-43,-58,14,36,-51,-4,24,4,-4,-24,-14
24,-34,-58,4,41,-46,-4,24,14,-4,-24,-14
29,-24,-53,-2,41,-39,-4,24,14,-4,-9,-9
39,-19,-58,-9,48,-39,-4,24,24,0,0,-9
29,-19,-48,-4,39,-34,-9,19,24,0,-14,-9
9,-24,-34,7,21,-29,-14,14,24,0,-24,-9
0,-24,-24,12,12,-24,-14,9,29,0,-24,-9
0,-14,-14,7,7,-14,-14,9,39,0,-24,-9
24,4,-19,-14,21,-7,-14,14,48,4,-24,-4
34,24,-9,-29,21,7,-9,19,53,9,-29,0
19,29,9,-24,4,19,-9,19,63,9,-34,-4
14,43,29,-29,-7,36,-9,14,68,4,-39,-14
14,39,24,-26,-4,31,-9,9,68,4,-39,-14
14,39,24,-26,-4,31,-4,9,73,4,-39,-14
19,48,29,-34,-4,39,-9,9,82,4,-43,-14
19,58,39,-39,-9,48,-9,9,87,4,-43,-14
9,58,48,-34,-19,53,-9,9,97,9,-53,-19
4,58,53,-31,-24,56,-14,9,102,9,-58,-24
0,58,58,-29,-29,58,-14,9,112,9,-63,-34
0,63,63,-31,-31,63,-4,14,126,9,-73,-34
0,63,63,-31,-31,63,4,14,131,9,-73,-39
0,63,63,-31,-31,63,9,19,136,9,-82,-43
-4,68,73,-31,-39,70,14,24,146,9,-82,-43
-9,68,78,-29,-43,73,19,24,151,9,-87,-53
-9,68,78,-29,-43,73,19,24,151,9,-87,-53
-9,58,68,-24,-39,63,19,24,151,9,-87,-53
-14,58,73,-21,-43,65,19,24,156,9,-87,-58
-14,53,68,-19,-41,61,24,34,161,14,-87,-58
-9,48,58,-19,-34,53,24,34,161,14,-87,-58
-14,43,58,-14,-36,51,29,39,161,19,-82,-58
-9,43,53,-17,-31,48,24,39,161,19,-82,-58
-4,43,48,-19,-26,46,19,39,161,19,-78,-58
0,34,34,-17,-17,34,19,43,156,24,-68,-48
4,29,24,-17,-9,26,19,48,151,29,-58,-43
9,29,19,-19,-4,24,24,48,141,39,-43,-34
14,29,14,-21,0,21,29,48,136,48,-34,-19
19,19,0,-19,9,9,19,43,126,48,-19,-9
19,19,0,-19,9,9,14,39,117,53,-4,4
34,24,-9,-29,21,7,9,39,112,58,9,14
43,29,-14,-36,29,7,4,39,107,63,19,29
48,24,-24,-36,36,0,0,29,97,68,34,39
48,24,-24,-36,36,0,-4,19,92,73,48,48
48,19,-29,-34,39,-4,-4,19,82,73,58,53
53,19,-34,-36,43,-7,-9,24,73,78,58,58
58,19,-39,-39,48,-9,-9,24,68,82,68,68
58,14,-43,-36,51,-14,-9,19,63,82,73,73
58,14,-43,-36,51,-14,-9,19,63,82,78,73
58,9,-48,-34,53,-19,-14,9,53,78,82,78
53,14,-39,-34,46,-12,-19,9,48,78,82,78
53,14,-39,-34,46,-12,-24,9,39,78,82,78
58,9,-48,-34,53,-19,-24,9,39,78,82,78
63,9,-53,-36,58,-21,-24,9,39,78,82,78
63,14,-48,-39,56,-17,-19,9,39,73,82,78
63,19,-43,-41,53,-12,-14,9,39,73,82,78
63,19,-43,-41,53,-12,-14,14,39,68,82,78
58,14,-43,-36,51,-14,-14,14,39,68,78,78
58,9,-48,-34,53,-19,-19,14,34,63,78,73
58,4,-53,-31,56,-24,-24,14,34,53,78,73
39,-4,-43,-17,41,-24,-24,9,34,53,78,68
34,-4,-39,-14,36,-21,-24,9,29,53,68,68
39,-4,-43,-17,41,-24,-19,9,29,58,68,68
43,0,-43,-21,43,-21,-19,14,34,63,73,68
53,9,-43,-31,48,-17,-14,14,34,63,73,68
63,14,-48,-39,56,-17,-9,19,34,63,73,68
63,14,-48,-39,56,-17,-9,19,34,58,68,68
63,19,-43,-41,53,-12,-9,14,29,53,63,68
53,9,-43,-31,48,-17,-14,14,24,53,63,68
34,0,-34,-17,34,-17,-19,14,24,53,63,63
34,0,-34,-17,34,-17,-14,9,24,53,68,63
39,0,-39,-19,39,-19,-14,0,19,48,73,63
48,14,-34,-31,41,-9,-24,0,19,53,68,68
58,29,-29,-43,43,0,-29,0,19,53,68,73
58,34,-24,-46,41,4,-29,0,19,53,73,73
53,34,-19,-43,36,7,-24,-4,19,53,78,73
29,34,4,-31,12,19,-29,-9,9,53,78,73
4,24,19,-14,-7,21,-34,-14,0,53,78,73
14,34,19,-24,-2,26,-39,-19,0,48,78,73
34,48,14,-41,9,31,-39,-19,4,48,78,78
34,48,14,-41,9,31,-39,-14,4,43,68,78
34,48,14,-41,9,31,-39,-9,4,39,63,78
34,39,4,-36,14,21,-34,-9,0,29,53,58
34,19,-14,-26,24,2,-29,-9,-4,14,39,43
34,4,-29,-19,31,-12,-14,-4,-4,9,19,39
34,-9,-43,-12,39,-26,-4,0,-4,0,9,34
34,-9,-43,-12,39,-26,-4,0,-9,0,9,24
39,-9,-48,-14,43,-29,-4,0,-14,0,9,19
39,-9,-48,-14,43,-29,-4,0,-14,0,9,19
43,-4,-48,-19,46,-26,0,0,-14,0,9,19
43,4,-39,-24,41,-17,0,0,-14,0,9,24
43,9,-34,-26,39,-12,0,0,-14,0,9,19
34,-9,-43,-12,39,-26,-9,0,-19,-4,4,19
29,-19,-48,-4,39,-34,-14,0,-24,-4,9,19
29,-19,-48,-4,39,-34,-14,0,-29,-9,14,19
29,-14,-43,-7,36,-29,-14,0,-29,-9,19,19
39,-14,-53,-12,46,-34,-19,0,-29,-4,19,24
39,-9,-48,-14,43,-29,-29,0,-29,-4,19,24
39,-4,-43,-17,41,-24,-19,4,-29,0,14,24
39,-4,-43,-17,41,-24,-9,4,-29,0,9,29
34,-4,-39,-14,36,-21,-14,4,-29,-9,9,29
29,-9,-39,-9,34,-24,-14,0,-29,-9,4,19
29,-14,-43,-7,36,-29,-14,0,-24,-9,4,14
29,-14,-43,-7,36,-29,-14,0,-24,-9,4,14
29,-19,-48,-4,39,-34,-14,4,-19,-9,4,19
34,-19,-53,-7,43,-36,-19,0,-24,-14,4,19
34,-9,-43,-12,39,-26,-19,0,-24,-9,4,19
39,0,-39,-19,39,-19,-19,0,-29,-9,9,19
34,-4,-39,-14,36,-21,-19,0,-29,-9,9,19
29,-9,-39,-9,34,-24,-19,0,-29,-9,9,19
9,-24,-34,7,21,-29,-24,-4,-34,-9,9,9
-9,-39,-29,24,9,-34,-29,-9,-39,-9,9,0
9,-19,-29,4,19,-24,-29,-9,-39,-9,19,9
29,0,-29,-14,29,-14,-29,-9,-39,-9,29,19
29,4,-24,-17,26,-9,-29,-9,-39,-9,29,19
29,9,-19,-19,24,-4,-29,-9,-39,-9,29,19
34,9,-24,-21,29,-7,-24,-9,-39,-9,24,14
39,9,-29,-24,34,-9,-19,-9,-39,-9,19,9
39,9,-29,-24,34,-9,-14,-9,-39,-9,19,9
39,9,-29,-24,34,-9,-9,-9,-39,-9,19,9
39,9,-29,-24,34,-9,-9,-9,-39,-9,19,9
39,9,-29,-24,34,-9,-9,-9,-39,-9,19,9
34,9,-24,-21,29,-7,-14,-9,-39,-9,14,9
29,9,-19,-19,24,-4,-19,-9,-39,-9,9,9
29,9,-19,-19,24,-4,-19,-9,-39,-9,9,14
29,9,-19,-19,24,-4,-19,-9,-39,-9,9,19
29,9,-19,-19,24,-4,-19,-9,-39,-9,9,19
29,9,-19,-19,24,-4,-19,-9,-39,-9,9,19
29,9,-19,-19,24,-4,-19,-9,-39,-9,9,19
29,9,-19,-19,24,-4,-19,-9,-39,-9,9,19
29,9,-19,-19,24,-4,-19,-9,-43,-9,9,19
29,9,-19,-19,24,-4,-19,-9,-48,-9,9,19
29,9,-19,-19,24,-4,-19,-9,-48,-9,9,19
29,9,-19,-19,24,-4,-19,-9,-48,-9,9,19
39,9,-29,-24,34,-9,-19,-9,-48,-14,0,9
48,9,-39,-29,43,-14,-19,-9,-48,-19,-9,0
39,-4,-43,-17,41,-24,-19,-9,-48,-19,-9,0
29,-19,-48,-4,39,-34,-19,-9,-48,-19,-9,0
29,-4,-34,-12,31,-19,-24,-9,-48,-19,-4,4
29,9,-19,-19,24,-4,-29,-9,-48,-19,0,9
29,9,-19,-19,24,-4,-29,-9,-43,-19,0,9
29,9,-19,-19,24,-4,-29,-9,-39,-19,0,9
34,9,-24,-21,29,-7,-29,-9,-39,-19,0,9
39,9,-29,-24,34,-9,-29,-9,-39,-19,0,9
39,24,-14,-31,26,4,-34,-14,-39,-9,9,19
39,39,0,-39,19,19,-39,-19,-39,0,19,29
34,24,-9,-29,21,7,-39,-19,-43,-9,9,19
29,9,-19,-19,24,-4,-39,-19,-48,-19,0,9
29,4,-24,-17,26,-9,-29,-14,-48,-19,0,9
29,0,-29,-14,29,-14,-19,-9,-48,-19,0,9
29,0,-29,-14,29,-14,-19,-9,-48,-9,14,9
29,0,-29,-14,29,-14,-19,-9,-48,0,29,9
29,0,-29,-14,29,-14,-24,-9,-48,-9,14,4
29,0,-29,-14,29,-14,-29,-9,-48,-19,0,0
29,0,-29,-14,29,-14,-29,-9,-48,-19,0,0
29,0,-29,-14,29,-14,-29,-9,-48,-19,0,0
29,9,-19,-19,24,-4,-29,-9,-48,-14,4,0
29,19,-9,-24,19,4,-29,-9,-48,-9,9,0
39,19,-19,-29,29,0,-24,-9,-43,-9,9,4
48,19,-29,-34,39,-4,-19,-9,-39,-9,9,9
48,9,-39,-29,43,-14,-19,-9,-39,-9,9,9
48,0,-48,-24,48,-24,-19,-9,-39,-9,9,9
48,9,-39,-29,43,-14,-19,-9,-39,0,19,9
48,19,-29,-34,39,-4,-19,-9,-39,9,29,9
48,19,-29,-34,39,-4,-24,-14,-43,-4,9,9
48,19,-29,-34,39,-4,-29,-19,-48,-19,-9,9
24,-4,-29,-9,26,-17,-34,-19,-48,0,19,19
0,-29,-29,14,14,-29,-39,-19,-48,19,48,29
14,-4,-19,-4,17,-12,-39,-19,-43,4,19,14
29,19,-9,-24,19,4,-39,-19,-39,-9,-9,0
29,-9,-39,-9,34,-24,-24,-9,-39,-9,-9,-9
29,-39,-68,4,48,-53,-9,0,-39,-9,-9,-19
34,-29,-63,-2,48,-46,-24,-9,-48,-4,9,-4
39,-19,-58,-9,48,-39,-39,-19,-58,0,29,9
39,0,-39,-19,39,-19,-39,-19,-48,9,29,19
39,19,-19,-29,29,0,-39,-19,-39,19,29,29
39,9,-29,-24,34,-9,-39,-19,-39,9,19,14
39,0,-39,-19,39,-19,-39,-19,-39,0,9,0
39,0,-39,-19,39,-19,-39,-19,-39,0,9,0
39,0,-39,-19,39,-19,-39,-19,-39,0,9,0
43,9,-34,-26,39,-12,-43,-19,-39,4,19,9
48,19,-29,-34,39,-4,-48,-19,-39,9,29,19
53,29,-24,-41,39,2,-48,-19,-39,9,39,24
58,39,-19,-48,39,9,-48,-19,-39,9,48,29
58,39,-19,-48,39,9,-48,-19,-39,9,39,29
58,39,-19,-48,39,9,-48,-19,-39,9,29,29
53,34,-19,-43,36,7,-43,-19,-39,4,19,19
48,29,-19,-39,34,4,-39,-19,-39,0,9,9
43,14,-29,-29,36,-7,-39,-19,-39,0,9,9
39,0,-39,-19,39,-19,-39,-19,-39,0,9,9
39,9,-29,-24,34,-9,-43,-24,-39,0,19,9
39,19,-19,-29,29,0,-48,-29,-39,0,29,9
43,34,-9,-39,26,12,-48,-29,-39,4,29,19
48,48,0,-48,24,24,-48,-29,-39,9,29,29
48,48,0,-48,24,24,-43,-24,-39,9,29,29
48,48,0,-48,24,24,-39,-19,-39,9,29,29
48,24,-24,-36,36,0,-39,-19,-43,0,19,19
48,0,-48,-24,48,-24,-39,-19,-48,-9,9,9
39,4,-34,-21,36,-14,-43,-19,-48,-9,9,9
34,4,-29,-19,31,-12,-48,-19,-48,-9,9,4
29,9,-19,-19,24,-4,-53,-24,-48,-9,9,4
29,19,-9,-24,19,4,-58,-24,-43,-9,9,4
29,19,-9,-24,19,4,-53,-24,-34,9,14,19
43,24,-19,-34,31,2,-43,-24,-24,19,24,19
53,73,19,-63,17,46,-39,-24,-4,34,48,39
63,102,39,-82,12,70,-34,-24,9,43,73,58
58,107,48,-82,4,78,-34,-29,19,48,68,58
58,107,48,-82,4,78,-39,-39,19,43,58,58
63,82,19,-73,21,51,-39,-29,14,39,53,43
73,68,-4,-70,39,31,-43,-24,14,39,53,29
107,102,-4,-104,56,48,-58,-19,29,68,78,53
136,136,0,-136,68,68,-73,-19,34,87,92,78
136,146,9,-141,63,78,-102,-43,14,73,87,82
136,146,9,-141,63,78,-117,-68,-4,53,78,82
126,126,0,-126,63,63,-117,-68,-24,34,53,68
117,102,-14,-109,65,43,-117,-68,-48,24,43,53
107,92,-14,-100,61,39,-117,-68,-53,14,39,43
107,82,-24,-95,65,29,-117,-68,-53,4,29,34
112,73,-39,-92,75,17,-117,-63,-63,0,24,34
112,53,-58,-82,85,-2,-117,-63,-78,-9,19,34
126,58,-68,-92,97,-4,-112,-63,-78,-4,34,43
136,68,-68,-102,102,0,-102,-63,-78,4,48,53
126,68,-58,-97,92,4,-97,-63,-73,0,34,43
117,73,-43,-95,80,14,-92,-63,-68,-9,19,34
82,63,-19,-73,51,21,-78,-48,-58,4,24,39
58,43,-14,-51,36,14,-68,-39,-48,4,24,39
19,19,0,-19,9,9,-58,-24,-43,4,24,29
4,-14,-19,4,12,-17,-43,-19,-43,-9,4,9
9,-19,-29,4,19,-24,-39,-19,-53,-9,4,0
4,-14,-19,4,12,-17,-39,-24,-58,-9,4,0
9,-14,-24,2,17,-19,-39,-29,-58,-4,4,-4
14,-4,-19,-4,17,-12,-39,-34,-58,-4,4,-4
14,-4,-19,-4,17,-12,-34,-29,-53,-4,4,0
19,0,-19,-9,19,-9,-29,-29,-48,-4,4,4
29,0,-29,-14,29,-14,-29,-29,-48,-9,4,4
29,0,-29,-14,29,-14,-29,-29,-48,-9,4,4
29,4,-24,-17,26,-9,-34,-29,-48,-4,9,4
34,9,-24,-21,29,-7,-39,-29,-48,-4,9,9
24,0,-24,-12,24,-12,-43,-29,-53,-14,-4,4
19,-14,-34,-2,26,-24,-43,-29,-58,-14,-19,0
24,-19,-43,-2,34,-31,-43,-24,-58,-14,-9,0
24,-19,-43,-2,34,-31,-48,-19,-63,-14,0,0
29,-14,-43,-7,36,-29,-53,-34,-63,4,19,14
34,0,-34,-17,34,-17,-58,-43,-48,39,48,39
34,39,4,-36,14,21,-68,-58,-9,107,126,97
68,122,53,-95,7,87,-92,-78,68,248,287,224
102,248,146,-175,-21,197,-141,-112,156,439,512,434
175,424,248,-300,-36,336,-204,-131,307,717,839,727
258,614,356,-436,-48,485,-248,-151,453,995,1151,995
322,766,444,-544,-61,605,-283,-151,546,1166,1351,1195
326,878,551,-602,-112,714,-302,-185,585,1200,1415,1278
268,810,541,-539,-136,675,-283,-214,478,927,1137,1107
161,551,390,-356,-114,470,-190,-200,195,312,463,605
9,146,136,-78,-63,141,-43,-146,-63,-244,-190,14
-78,-146,-68,112,-4,-107,63,-58,-161,-483,-546,-341
-190,-312,-122,251,-34,-217,151,14,-146,-517,-658,-507
-317,-414,-97,366,-109,-256,258,82,-107,-517,-683,-585
-424,-444,-19,434,-202,-231,317,107,-39,-463,-658,-600
-507,-434,73,470,-290,-180,346,117,63,-331,-556,-556
-497,-385,112,441,-305,-136,346,146,151,-229,-444,-483
-453,-370,82,412,-268,-143,346,165,161,-209,-424,-458
-439,-356,82,397,-261,-136,346,195,180,-180,-400,-429
-429,-366,63,397,-246,-151,385,244,229,-156,-361,-400
-429,-380,48,405,-239,-165,424,278,297,-122,-322,-375
-409,-326,82,368,-246,-122,444,263,317,-73,-278,-331
-380,-268,112,324,-246,-78,448,239,317,-58,-229,-287
-366,-268,97,317,-231,-85,434,209,278,-63,-219,-263
-351,-273,78,312,-214,-97,419,190,239,-68,-200,-239
-297,-248,48,273,-173,-100,395,161,190,-68,-175,-200
-263,-234,29,248,-146,-102,366,131,126,-68,-161,-170
-248,-239,9,244,-129,-114,331,102,39,-102,-170,-185
-239,-248,-9,244,-114,-129,302,92,-14,-117,-180,-185
-209,-234,-24,222,-92,-129,263,73,-19,-126,-170,-170
-180,-209,-29,195,-75,-119,239,68,-29,-117,-156,-146
-151,-190,-39,170,-56,-114,209,63,-34,-102,-131,-136
-112,-165,-53,139,-29,-109,170,53,-34,-78,-112,-122
-82,-131,-48,107,-17,-90,126,34,-29,-63,-87,-92
-63,-97,-34,80,-14,-65,78,19,-29,-39,-68,-63
-48,-73,-24,61,-12,-48,43,4,-34,-29,-53,-58
-24,-58,-34,41,4,-46,14,-4,-39,-24,-39,-48
-14,-48,-34,31,9,-41,4,-4,-43,-29,-39,-48
-9,-48,-39,29,14,-43,-4,-4,-48,-34,-39,-43
4,-39,-43,17,24,-41,-4,-4,-48,-29,-39,-48
4,-39,-43,17,24,-41,-9,-4,-48,-29,-43,-48
4,-43,-48,19,26,-46,-14,-9,-43,-24,-34,-48
4,-48,-53,21,29,-51,-14,-9,-43,-19,-34,-48
0,-48,-48,24,24,-48,-14,-4,-48,-19,-39,-48
-4,-53,-48,29,21,-51,-14,0,-48,-19,-39,-48
14,-39,-53,12,34,-46,-4,0,-48,-19,-34,-43
39,-19,-58,-9,48,-39,0,0,-48,-19,-29,-39
24,-29,-53,2,39,-41,-9,4,-53,-24,-34,-43
9,-39,-48,14,29,-43,-14,4,-58,-24,-34,-43
-4,-48,-43,26,19,-46,-14,0,-58,-24,-34,-48
-19,-63,-43,41,12,-53,-14,-4,-53,-24,-29,-53
-9,-53,-43,31,17,-48,-9,-4,-53,-24,-29,-53
4,-43,-48,19,26,-46,-4,0,-53,-19,-29,-48
4,-43,-48,19,26,-46,-4,0,-53,-19,-29,-48
4,-39,-43,17,24,-41,-9,-4,-58,-24,-29,-48
4,-39,-43,17,24,-41,-19,-9,-58,-24,-29,-43
-4,-39,-34,21,14,-36,-24,-9,-58,-24,-29,-39
-4,-34,-29,19,12,-31,-19,-4,-58,-24,-29,-39
-4,-43,-39,24,17,-41,-19,-4,-53,-24,-34,-43
4,-43,-48,19,26,-46,-19,0,-53,-24,-39,-48
14,-34,-48,9,31,-41,-24,0,-53,-24,-39,-48
14,-29,-43,7,29,-36,-24,0,-53,-24,-39,-48
19,-24,-43,2,31,-34,-19,0,-53,-24,-34,-43
9,-34,-43,12,26,-39,-19,0,-58,-19,-34,-43
-4,-39,-34,21,14,-36,-24,0,-58,-19,-34,-48
-4,-29,-24,17,9,-26,-24,0,-58,-24,-34,-48
4,-24,-29,9,17,-26,-19,0,-58,-24,-39,-48
4,-29,-34,12,19,-31,-14,0,-58,-24,-43,-43
4,-29,-34,12,19,-31,-14,0,-58,-24,-43,-43
9,-34,-43,12,26,-39,-14,0,-53,-29,-43,-43
9,-34,-43,12,26,-39,-14,0,-53,-34,-48,-43
4,-39,-43,17,24,-41,-29,0,-58,-34,-53,-53
4,-39,-43,17,24,-41,-29,0,-63,-34,-53,-58
4,-43,-48,19,26,-46,-24,0,-58,-34,-53,-58
9,-43,-53,17,31,-48,-24,0,-58,-29,-48,-58
14,-29,-43,7,29,-36,-24,0,-53,-24,-43,-53
19,-19,-39,0,29,-29,-24,4,-53,-24,-43,-53
9,-34,-43,12,26,-39,-24,4,-48,-29,-48,-58
-4,-53,-48,29,21,-51,-24,0,-48,-39,-53,-58
0,-43,-43,21,21,-43,-29,-4,-48,-29,-53,-58
4,-34,-39,14,21,-36,-29,-4,-48,-19,-53,-58
9,-24,-34,7,21,-29,-29,0,-43,-14,-48,-48
24,-14,-39,-4,31,-26,-24,4,-34,-14,-43,-43
29,0,-29,-14,29,-14,-24,4,-34,-14,-39,-39
39,9,-29,-24,34,-9,-24,4,-24,-9,-39,-39
48,19,-29,-34,39,-4,-24,14,-19,-4,-43,-39
48,24,-24,-36,36,0,-24,24,-14,0,-43,-39
39,24,-14,-31,26,4,-24,19,-14,0,-43,-39
39,34,-4,-36,21,14,-24,19,-9,0,-43,-39
48,43,-4,-46,26,19,-29,19,0,4,-39,-39
43,53,9,-48,17,31,-29,19,4,9,-39,-39
24,24,0,-24,12,12,-29,19,14,9,-43,-43
14,4,-9,-9,12,-2,-29,14,19,4,-48,-53
14,19,4,-17,4,12,-29,14,29,4,-48,-53
14,39,24,-26,-4,31,-24,19,43,4,-48,-53
24,48,24,-36,0,36,-19,24,53,9,-48,-53
29,58,29,-43,0,43,-9,29,58,14,-43,-53
24,63,39,-43,-7,51,-9,29,68,19,-53,-53
24,68,43,-46,-9,56,-14,29,73,19,-58,-53
19,78,58,-48,-19,68,-19,29,82,24,-53,-58
19,92,73,-56,-26,82,-14,34,97,29,-53,-53
19,92,73,-56,-26,82,-9,34,102,29,-53,-58
19,92,73,-56,-26,82,-9,39,107,29,-63,-63
9,87,78,-48,-34,82,-14,39,117,24,-68,-68
0,78,78,-39,-39,78,-19,34,122,19,-78,-82
0,78,78,-39,-39,78,-4,39,126,19,-82,-82
0,68,68,-34,-34,68,9,43,131,19,-87,-82
0,73,73,-36,-36,73,14,43,136,19,-87,-87
4,73,68,-39,-31,70,24,53,141,24,-87,-87
14,68,53,-41,-19,61,24,53,141,24,-78,-87
14,63,48,-39,-17,56,29,58,141,29,-63,-87
4,53,48,-29,-21,51,19,48,136,24,-68,-82
-4,43,48,-19,-26,46,9,39,131,19,-68,-78
-4,34,39,-14,-21,36,9,39,126,24,-58,-63
-4,29,34,-12,-19,31,9,39,122,29,-48,-53
0,29,29,-14,-14,29,14,43,112,39,-34,-43
4,29,24,-17,-9,26,19,48,107,48,-24,-29
14,19,4,-17,4,12,9,43,97,48,-9,-24
19,19,0,-19,9,9,4,39,87,53,4,-14
29,24,-4,-26,17,9,4,39,82,58,19,-4
34,29,-4,-31,19,12,4,39,78,63,29,9
34,24,-9,-29,21,7,0,29,68,68,39,19
29,24,-4,-26,17,9,-4,19,63,73,48,29
29,24,-4,-26,17,9,-4,14,53,63,58,34
34,29,-4,-31,19,12,-9,14,43,58,58,39
29,24,-4,-26,17,9,-14,9,34,58,63,48
19,14,-4,-17,12,4,-19,0,24,53,63,53
19,14,-4,-17,12,4,-19,0,24,53,68,53
19,9,-9,-14,14,0,-24,-9,14,48,73,58
19,19,0,-19,9,9,-24,-4,9,48,73,58
24,24,0,-24,12,12,-24,0,0,48,73,58
34,19,-14,-26,24,2,-24,0,0,48,73,58
43,19,-24,-31,34,-2,-24,0,0,48,73,58
43,19,-24,-31,34,-2,-24,0,-4,43,73,58
43,19,-24,-31,34,-2,-24,0,-9,43,73,58
34,9,-24,-21,29,-7,-24,0,-14,29,68,53
19,-4,-24,-7,21,-14,-24,-4,-19,19,58,48
14,-14,-29,0,21,-21,-24,-4,-24,19,58,43
9,-24,-34,7,21,-29,-24,-4,-24,14,58,43
-4,-34,-29,19,12,-31,-24,-9,-24,19,58,39
-4,-34,-29,19,12,-31,-24,-9,-29,24,48,39
4,-29,-34,12,19,-31,-19,-9,-29,24,48,43
14,-19,-34,2,24,-26,-19,-4,-24,24,53,48
19,-4,-24,-7,21,-14,-19,-4,-24,24,53,48
24,4,-19,-14,21,-7,-19,0,-24,24,53,48
24,-4,-29,-9,26,-17,-19,0,-19,24,53,48
24,-9,-34,-7,29,-21,-19,-4,-19,24,53,48
14,-24,-39,4,26,-31,-19,-4,-24,24,53,48
-4,-39,-34,21,14,-36,-19,-4,-24,24,53,43
9,-29,-39,9,24,-34,-14,0,-19,24,53,43
29,-19,-48,-4,39,-34,-14,0,-19,19,53,43
29,-19,-48,-4,39,-34,-19,0,-19,19,48,43
29,-19,-48,-4,39,-34,-19,0,-19,14,48,43
29,-14,-43,-7,36,-29,-19,9,-19,14,48,43
24,-14,-39,-4,31,-26,-14,14,-19,14,48,43
34,0,-34,-17,34,-17,-9,14,-19,14,48,43
43,4,-39,-24,41,-17,-4,14,-19,14,48,43
29,-4,-34,-12,31,-19,-9,9,-19,9,48,39
24,-9,-34,-7,29,-21,-9,9,-14,9,48,39
14,-19,-34,2,24,-26,-9,4,-19,9,43,39
4,-29,-34,12,19,-31,-9,0,-24,9,43,39
0,-29,-29,14,14,-29,-9,0,-29,9,43,34
-4,-39,-34,21,14,-36,-9,0,-34,4,39,34
-4,-39,-34,21,14,-36,-4,0,-34,4,29,34
-4,-39,-34,21,14,-36,-4,0,-34,0,29,34
-4,-39,-34,21,14,-36,-9,0,-34,-4,29,29
0,-39,-39,19,19,-39,-14,0,-34,-9,29,29
0,-39,-39,19,19,-39,-14,0,-29,-9,29,29
4,-34,-39,14,21,-36,-9,0,-24,-9,29,29
4,-19,-24,7,14,-21,-4,0,-29,-4,34,39
4,-9,-14,2,9,-12,0,0,-34,0,39,39
4,-24,-29,9,17,-26,-4,0,-34,-4,29,34
9,-29,-39,9,24,-34,-4,0,-34,-4,29,29
9,-24,-34,7,21,-29,-4,0,-34,-9,29,29
9,-14,-24,2,17,-19,-4,0,-29,-9,29,29
19,-14,-34,-2,26,-24,0,0,-29,-9,29,34
19,-9,-29,-4,24,-19,0,0,-29,-14,29,34
9,-34,-43,12,26,-39,0,0,-34,-14,24,29
0,-63,-63,31,31,-63,0,-4,-39,-19,19,29
-9,-53,-43,31,17,-48,-4,-4,-39,-29,19,29
-19,-48,-29,34,4,-39,-4,-9,-39,-29,14,19
-19,-53,-34,36,7,-43,-4,-9,-39,-29,14,14
-19,-53,-34,36,7,-43,-4,-9,-43,-29,14,14
-19,-58,-39,39,9,-48,-4,-9,-43,-29,14,14
-14,-58,-43,36,14,-51,-9,-19,-53,-34,14,9
-9,-48,-39,29,14,-43,-4,-14,-48,-29,9,9
-9,-39,-29,24,9,-34,0,-9,-48,-29,9,9
-9,-39,-29,24,9,-34,0,-9,-43,-29,9,14
-9,-39,-29,24,9,-34,0,-9,-39,-29,9,19
-9,-39,-29,24,9,-34,0,-9,-39,-29,9,19
-9,-39,-29,24,9,-34,0,-9,-39,-29,9,19
-4,-39,-34,21,14,-36,0,-9,-39,-24,9,19
0,-39,-39,19,19,-39,0,-9,-39,-19,9,19
0,-39,-39,19,19,-39,0,-9,-39,-19,9,19
0,-39,-39,19,19,-39,0,-9,-39,-19,9,19
-14,-48,-34,31,9,-41,-4,-9,-39,-24,4,19
-29,-58,-29,43,0,-43,-9,-9,-39,-29,0,19
-19,-58,-39,39,9,-48,-9,-9,-39,-29,0,19
-9,-58,-48,34,19,-53,-9,-9,-39,-29,0,19
-9,-58,-48,34,19,-53,-9,-9,-39,-29,0,19
-9,-58,-48,34,19,-53,-9,-9,-39,-29,0,19
-9,-58,-48,34,19,-53,-9,-9,-39,-29,0,19
-9,-58,-48,34,19,-53,-9,-9,-39,-29,0,19
-9,-58,-48,34,19,-53,-9,-9,-39,-29,0,19
-9,-58,-48,34,19,-53,-9,-9,-39,-29,0,19
-9,-63,-53,36,21,-58,-9,-9,-39,-29,0,19
-9,-68,-58,39,24,-63,-9,-9,-39,-29,0,19
-9,-68,-58,39,24,-63,-9,-9,-43,-29,0,19
-9,-68,-58,39,24,-63,-9,-9,-48,-29,0,19
-14,-68,-53,41,19,-61,-9,-9,-48,-29,0,19
-19,-68,-48,43,14,-58,-9,-9,-48,-29,0,19
-19,-68,-48,43,14,-58,-4,-9,-43,-29,0,24
-19,-68,-48,43,14,-58,0,-9,-39,-29,0,29
-14,-68,-53,41,19,-61,0,-9,-39,-24,0,29
-9,-68,-58,39,24,-63,0,-9,-39,-19,0,29
-9,-68,-58,39,24,-63,0,-9,-39,-19,0,29
-9,-68,-58,39,24,-63,0,-9,-39,-19,0,29
0,-53,-53,26,26,-53,0,-4,-39,-19,0,29
9,-39,-48,14,29,-43,0,0,-39,-19,0,29
0,-48,-48,24,24,-48,0,0,-39,-19,0,24
-9,-58,-48,34,19,-53,0,0,-39,-19,0,19
-9,-58,-48,34,19,-53,-4,0,-39,-19,0,19
-9,-58,-48,34,19,-53,-9,0,-39,-19,0,19
-4,-53,-48,29,21,-51,-9,0,-39,-19,4,19
0,-48,-48,24,24,-48,-9,0,-39,-19,9,19
9,-48,-58,19,34,-53,-9,-4,-39,-19,9,19
19,-48,-68,14,43,-58,-9,-9,-39,-19,9,19
0,-58,-58,29,29,-58,-9,-9,-39,-19,9,19
-19,-68,-48,43,14,-58,-9,-9,-39,-19,9,19
-9,-58,-48,34,19,-53,-9,-9,-39,-19,9,19
0,-48,-48,24,24,-48,-9,-9,-39,-19,9,19
0,-48,-48,24,24,-48,-9,-9,-39,-24,4,19
0,-48,-48,24,24,-48,-9,-9,-39,-29,0,19
0,-48,-48,24,24,-48,-9,-9,-39,-29,0,19
0,-48,-48,24,24,-48,-9,-9,-39,-29,0,19
9,-43,-53,17,31,-48,-9,-9,-39,-29,0,19
19,-39,-58,9,39,-48,-9,-9,-39,-29,0,19
9,-39,-48,14,29,-43,-9,-14,-39,-29,0,19
0,-39,-39,19,19,-39,-9,-19,-39,-29,0,19
0,-39,-39,19,19,-39,-9,-19,-39,-29,0,19
0,-39,-39,19,19,-39,-9,-19,-39,-29,0,19
4,-29,-34,12,19,-31,-9,-14,-39,-29,0,19
9,-19,-29,4,19,-24,-9,-9,-39,-29,0,19
9,-19,-29,4,19,-24,-9,-9,-43,-29,0,19
9,-19,-29,4,19,-24,-9,-9,-48,-29,0,19
4,-19,-24,7,14,-21,-14,-14,-48,-29,0,19
0,-19,-19,9,9,-19,-19,-19,-48,-29,0,19
0,-19,-19,9,9,-19,-19,-19,-48,-29,0,19
0,-19,-19,9,9,-19,-19,-19,-48,-29,0,19
4,-9,-14,2,9,-12,-19,-19,-48,-29,-4,19
9,0,-9,-4,9,-4,-19,-19,-48,-29,-9,19
9,0,-9,-4,9,-4,-24,-24,-48,-29,-9,14
9,0,-9,-4,9,-4,-29,-29,-48,-29,-9,9
9,0,-9,-4,9,-4,-29,-29,-53,-34,-9,4
9,0,-9,-4,9,-4,-29,-29,-58,-39,-9,0
4,-9,-14,2,9,-12,-29,-29,-58,-39,-9,0
0,-19,-19,9,9,-19,-29,-29,-58,-39,-9,0
0,-4,-4,2,2,-4,-29,-29,-58,-39,-9,4
0,9,9,-4,-4,9,-29,-29,-58,-39,-9,9
0,14,14,-7,-7,14,-29,-29,-58,-39,-9,9
0,19,19,-9,-9,19,-29,-29,-58,-39,-9,9
0,19,19,-9,-9,19,-29,-29,-58,-39,-14,9
0,19,19,-9,-9,19,-29,-29,-58,-39,-19,9
0,14,14,-7,-7,14,-29,-29,-58,-39,-19,9
0,9,9,-4,-4,9,-29,-29,-58,-39,-19,9
0,9,9,-4,-4,9,-34,-29,-58,-39,-19,9
0,9,9,-4,-4,9,-39,-29,-58,-39,-19,9
0,14,14,-7,-7,14,-39,-34,-63,-39,-19,0
0,19,19,-9,-9,19,-39,-39,-68,-39,-19,-9
9,19,9,-14,0,14,-39,-39,-68,-39,-19,-9
19,19,0,-19,9,9,-39,-39,-68,-39,-19,-9
9,19,9,-14,0,14,-39,-39,-63,-39,-14,-4
0,19,19,-9,-9,19,-39,-39,-58,-39,-9,0
0,19,19,-9,-9,19,-39,-39,-58,-39,-9,0
0,19,19,-9,-9,19,-39,-39,-58,-39,-9,0
4,29,24,-17,-9,26,-39,-39,-58,-39,-9,0
9,39,29,-24,-9,34,-39,-39,-58,-39,-9,0
9,29,19,-19,-4,24,-39,-39,-58,-39,-9,0
9,19,9,-14,0,14,-39,-39,-58,-39,-9,0
9,19,9,-14,0,14,-39,-39,-58,-39,-9,0
9,19,9,-14,0,14,-39,-39,-58,-39,-9,0
9,19,9,-14,0,14,-39,-39,-58,-39,-9,4
9,24,14,-17,-2,19,-39,-34,-58,-34,-9,4
9,29,19,-19,-4,24,-39,-34,-58,-34,-9,4
9,29,19,-19,-4,24,-43,-34,-58,-29,-9,4
9,39,29,-24,-9,34,-48,-34,-53,-29,-9,4
9,48,39,-29,-14,43,-48,-34,-43,-14,-4,19
24,63,39,-43,-7,51,-43,-34,-34,-9,9,24
24,92,68,-58,-21,80,-39,-34,-14,4,29,43
24,102,78,-63,-26,90,-34,-34,0,14,43,58
19,107,87,-63,-34,97,-34,-29,9,24,48,58
19,102,82,-61,-31,92,-39,-29,9,24,48,58
24,87,63,-56,-19,75,-43,-29,4,19,43,58
34,87,53,-61,-9,70,-58,-34,4,19,39,58
58,102,43,-80,7,73,-78,-39,4,29,43,63
78,117,39,-97,19,78,-92,-58,-14,29,43,58
92,126,34,-109,29,80,-112,-78,-34,24,48,53
117,131,14,-124,51,73,-112,-78,-34,14,53,63
117,117,0,-117,58,58,-107,-68,-43,-4,34,63
112,97,-14,-104,63,41,-102,-68,-68,-9,24,53
107,102,-4,-104,56,48,-97,-68,-73,-9,24,48
107,122,14,-114,46,68,-97,-68,-63,-14,19,53
122,141,19,-131,51,80,-97,-63,-63,-19,14,63
117,102,-14,-109,65,43,-102,-68,-87,-34,4,53
102,68,-34,-85,68,17,-107,-73,-97,-43,0,43
97,78,-19,-87,58,29,-102,-73,-97,-43,0,43
97,87,-9,-92,53,39,-97,-73,-92,-39,0,43
112,92,-19,-102,65,36,-92,-73,-87,-39,4,43
107,92,-14,-100,61,39,-78,-63,-78,-24,14,48
87,78,-9,-82,48,34,-68,-58,-68,-24,14,43
29,48,19,-39,4,34,-53,-43,-63,-24,14,29
4,14,9,-9,-2,12,-34,-39,-63,-39,-4,9
4,4,0,-4,2,2,-29,-39,-73,-43,-14,-4
-4,9,14,-2,-9,12,-29,-43,-82,-48,-24,-9
-4,4,9,0,-7,7,-29,-43,-87,-48,-24,-14
-4,4,9,0,-7,7,-29,-43,-87,-53,-24,-14
-9,4,14,2,-12,9,-29,-39,-87,-53,-24,-14
-9,9,19,0,-14,14,-29,-39,-87,-58,-29,-14
0,9,9,-4,-4,9,-29,-39,-87,-68,-34,-14
-4,9,14,-2,-9,12,-29,-39,-87,-68,-34,-14
-9,14,24,-2,-17,19,-29,-39,-87,-63,-29,-14
-4,19,24,-7,-14,21,-29,-39,-87,-63,-24,-4
-4,24,29,-9,-17,26,-34,-39,-87,-63,-19,0
4,24,19,-14,-7,21,-34,-39,-87,-53,-19,0
14,19,4,-17,4,12,-34,-39,-87,-53,-19,0
14,19,4,-17,4,12,-34,-34,-92,-53,-19,-4
19,19,0,-19,9,9,-39,-43,-92,-43,0,4
19,29,9,-24,4,19,-48,-53,-87,-29,14,24
14,68,53,-41,-19,61,-58,-68,-53,39,78,78
48,151,102,-100,-26,126,-82,-92,39,190,229,185
73,278,204,-175,-65,241,-122,-131,161,409,463,375
141,463,322,-302,-90,392,-175,-151,356,751,839,688
219,673,453,-446,-117,563,-219,-170,556,1102,1220,990
278,854,575,-566,-148,714,-263,-165,717,1371,1527,1254
312,995,683,-653,-185,839,-283,-165,800,1464,1659,1385
302,951,649,-627,-173,800,-253,-165,702,1210,1405,1244
219,673,453,-446,-117,563,-161,-161,346,502,658,727
48,195,146,-122,-48,170,-4,-117,-43,-292,-214,9
-58,-151,-92,104,17,-122,112,-39,-239,-702,-717,-434
-170,-361,-190,265,9,-275,204,24,-273,-780,-863,-614
-317,-502,-185,409,-65,-344,317,87,-244,-780,-897,-707
-468,-551,-82,509,-192,-317,380,107,-175,-722,-863,-727
-585,-561,24,573,-305,-268,414,107,-87,-585,-751,-683
-585,-497,87,541,-336,-204,414,117,-9,-473,-634,-600
-527,-429,97,478,-312,-165,414,126,29,-409,-566,-536
-492,-380,112,436,-302,-134,414,165,73,-346,-488,-478
-478,-366,112,422,-295,-126,453,219,122,-307,-439,-444
-478,-361,117,419,-297,-122,492,248,190,-268,-414,-419
-473,-331,141,402,-307,-95,507,234,209,-229,-385,-380
-458,-312,146,385,-302,-82,507,209,209,-204,-326,-336
-424,-307,117,366,-270,-95,488,170,170,-195,-302,-312
-380,-278,102,329,-241,-87,468,141,136,-180,-258,-273
-331,-253,78,292,-204,-87,444,126,92,-165,-214,-229
-322,-263,58,292,-190,-102,414,112,29,-175,-214,-219
-297,-268,29,283,-163,-119,375,82,-39,-204,-229,-229
-268,-268,0,268,-134,-134,331,73,-73,-204,-229,-214
-234,-244,-9,239,-112,-126,278,58,-78,-200,-209,-200
-190,-209,-19,200,-85,-114,244,58,-87,-170,-175,-170
-146,-175,-29,161,-58,-102,204,53,-87,-151,-141,-146
-102,-126,-24,114,-39,-75,151,34,-82,-126,-117,-122
-73,-92,-19,82,-26,-56,97,4,-78,-112,-87,-102
-48,-58,-9,53,-19,-34,58,0,-68,-78,-53,-73
-34,-29,4,31,-19,-12,39,0,-58,-58,-29,-58
0,-19,-19,9,9,-19,14,0,-58,-53,-39,-48
24,-9,-34,-7,29,-21,4,4,-63,-53,-58,-48
19,-9,-29,-4,24,-19,-4,4,-68,-53,-58,-43
24,0,-24,-12,24,-12,-4,4,-68,-48,-53,-43
9,-9,-19,0,14,-14,-19,-4,-68,-48,-48,-39
-4,-19,-14,12,4,-17,-34,-19,-63,-48,-34,-39
9,-9,-19,0,14,-14,-34,-19,-63,-48,-34,-39
19,0,-19,-9,19,-9,-34,-19,-68,-48,-39,-39
34,9,-24,-21,29,-7,-29,-14,-68,-39,-24,-39
53,24,-29,-39,41,-2,-24,-9,-68,-29,-9,-39
34,0,-34,-17,34,-17,-29,-9,-68,-39,-29,-43
9,-29,-39,9,24,-34,-29,-4,-68,-48,-53,-53
9,-19,-29,4,19,-24,-24,-4,-68,-43,-53,-53
9,-9,-19,0,14,-14,-24,-4,-68,-43,-53,-53
14,-14,-29,0,21,-21,-24,0,-63,-43,-48,-53
19,-14,-34,-2,26,-24,-19,4,-63,-43,-48,-53
24,-29,-53,2,39,-41,-14,9,-63,-34,-39,-48
24,-43,-68,9,46,-56,-14,9,-63,-29,-29,-48
39,0,-39,-19,39,-19,-29,-4,-63,-19,-14,-34
53,39,-14,-46,34,12,-43,-19,-58,-4,0,-19
19,9,-9,-14,14,0,-34,-9,-58,-19,-14,-29
-4,-19,-14,12,4,-17,-19,4,-58,-34,-29,-39
-4,-48,-43,26,19,-46,-19,4,-53,-39,-43,-53
0,-63,-63,31,31,-63,-19,9,-53,-43,-58,-68
4,-53,-58,24,31,-56,-24,4,-58,-43,-58,-68
4,-48,-53,21,29,-51,-24,0,-63,-43,-58,-68
19,-34,-53,7,36,-43,-24,-4,-63,-34,-39,-53
34,-24,-58,-4,46,-41,-29,-9,-63,-19,-24,-43
34,4,-29,-19,31,-12,-34,-9,-53,-4,-14,-39
24,29,4,-26,9,17,-39,-9,-48,4,-4,-29
19,9,-9,-14,14,0,-34,-4,-48,-4,-24,-39
14,-9,-24,-2,19,-17,-24,0,-48,-14,-43,-48
14,-29,-43,7,29,-36,-24,0,-48,-29,-53,-68
19,-48,-68,14,43,-58,-24,0,-43,-43,-58,-82
19,-29,-48,4,34,-39,-24,0,-43,-34,-43,-73
19,-14,-34,-2,26,-24,-39,0,-43,-24,-34,-63
24,-9,-34,-7,29,-21,-39,0,-43,-19,-34,-53
24,-9,-34,-7,29,-21,-34,0,-39,-14,-34,-48
34,-4,-39,-14,36,-21,-34,0,-34,-9,-29,-48
43,9,-34,-26,39,-12,-34,0,-24,-4,-24,-43
48,29,-19,-39,34,4,-43,4,-24,-4,-24,-43
48,39,-9,-43,29,14,-53,4,-14,0,-24,-43
39,24,-14,-31,26,4,-53,-4,-14,0,-29,-43
29,14,-14,-21,21,0,-58,-14,-19,0,-34,-48
24,14,-9,-19,17,2,-53,-14,-19,0,-39,-48
24,24,0,-24,12,12,-53,-14,-14,4,-43,-43
29,34,4,-31,12,19,-53,-14,-4,4,-43,-43
29,43,14,-36,7,29,-53,-14,-4,4,-39,-39
39,39,0,-39,19,19,-53,-14,4,9,-39,-48
39,34,-4,-36,21,14,-58,-14,4,9,-43,-58
34,48,14,-41,9,31,-63,-14,4,19,-29,-43
29,63,34,-46,-2,48,-63,-19,4,29,-14,-29
29,73,43,-51,-7,58,-63,-19,9,19,-29,-39
43,87,43,-65,0,65,-68,-19,19,14,-43,-48
39,102,63,-70,-12,82,-68,-24,24,19,-48,-48
19,92,73,-56,-26,82,-68,-29,34,19,-53,-53
14,78,63,-46,-24,70,-68,-34,39,14,-58,-68
14,68,53,-41,-19,61,-68,-34,43,14,-58,-73
14,78,63,-46,-24,70,-63,-24,53,19,-58,-73
19,87,68,-53,-24,78,-63,-19,63,24,-63,-73
19,102,82,-61,-31,92,-53,-19,73,24,-63,-73
9,107,97,-58,-43,102,-48,-19,87,29,-73,-78
4,107,102,-56,-48,104,-53,-14,92,24,-78,-82
0,107,107,-53,-53,107,-53,-9,97,19,-82,-92
-4,97,102,-46,-53,100,-43,-4,107,19,-92,-97
-9,82,92,-36,-51,87,-39,-4,112,19,-92,-107
-14,82,97,-34,-56,90,-39,0,122,19,-112,-122
-24,82,107,-29,-65,95,-34,4,136,19,-122,-131
-29,87,117,-29,-73,102,-29,4,141,29,-112,-131
-29,97,126,-34,-78,112,-24,9,146,39,-97,-122
-24,87,112,-31,-68,100,-19,14,151,39,-97,-117
-24,87,112,-31,-68,100,-19,14,156,39,-97,-117
-24,87,112,-31,-68,100,-14,24,165,48,-92,-117
-14,87,102,-36,-58,95,-14,24,170,53,-87,-117
-9,92,102,-41,-56,97,-9,29,170,63,-82,-112
0,102,102,-51,-51,102,-9,29,170,68,-78,-102
4,102,97,-53,-46,100,-9,29,170,68,-68,-97
4,92,87,-48,-41,90,-9,29,165,73,-58,-87
0,73,73,-36,-36,73,-19,24,156,73,-48,-82
0,58,58,-29,-29,58,-29,19,141,78,-34,-73
4,68,63,-36,-29,65,-19,19,136,87,-24,-58
9,68,58,-39,-24,63,-19,14,126,87,-9,-48
14,68,53,-41,-19,61,-24,9,117,92,4,-29
29,68,39,-48,-4,53,-24,9,112,97,19,-14
34,68,34,-51,0,51,-29,9,102,97,24,0
39,63,24,-51,7,43,-39,0,87,97,34,9
39,63,24,-51,7,43,-43,-9,82,102,48,19
39,63,24,-51,7,43,-43,-9,73,102,58,29
39,68,29,-53,4,48,-48,-4,58,97,58,39
39,68,29,-53,4,48,-48,-4,48,92,68,48
39,63,24,-51,7,43,-48,-9,43,92,73,53
39,63,24,-51,7,43,-48,-9,43,92,78,53
48,63,14,-56,17,39,-53,-19,39,87,82,63
53,68,14,-61,19,41,-53,-19,39,87,82,68
53,63,9,-58,21,36,-53,-19,29,87,82,68
53,58,4,-56,24,31,-53,-19,29,87,82,68
53,58,4,-56,24,31,-53,-19,29,87,82,68
53,58,4,-56,24,31,-53,-19,29,82,82,68
53,58,4,-56,24,31,-53,-19,29,82,82,68
53,58,4,-56,24,31,-53,-14,29,78,82,68
48,53,4,-51,21,29,-53,-14,29,82,78,68
48,53,4,-51,21,29,-53,-14,24,87,78,63
48,53,4,-51,21,29,-53,-9,24,82,78,63
34,43,9,-39,12,26,-53,-9,24,82,78,58
34,43,9,-39,12,26,-53,-9,19,78,68,58
39,43,4,-41,17,24,-48,-9,19,73,68,58
43,48,4,-46,19,26,-48,-9,24,73,68,58
43,48,4,-46,19,26,-48,-14,24,73,63,58
34,43,9,-39,12,26,-43,-9,24,68,63,58
24,43,19,-34,2,31,-39,-9,29,63,63,58
34,48,14,-41,9,31,-39,-14,29,63,68,58
43,48,4,-46,19,26,-39,-14,24,63,73,58
34,48,14,-41,9,31,-43,-14,24,63,73,53
34,48,14,-41,9,31,-43,-14,24,63,73,53
39,43,4,-41,17,24,-43,-19,19,58,73,48
39,39,0,-39,19,19,-48,-19,19,58,68,43
39,39,0,-39,19,19,-43,-14,19,53,63,43
39,43,4,-41,17,24,-39,-4,19,53,58,43
29,34,4,-31,12,19,-34,-4,19,48,53,39
19,24,4,-21,7,14,-34,-4,14,43,48,34
4,4,0,-4,2,2,-34,-4,9,43,48,34
-4,-4,0,4,-2,-2,-39,-9,9,39,48,29
14,9,-4,-12,9,2,-34,-9,14,39,48,29
24,19,-4,-21,14,7,-29,-9,14,39,43,29
34,34,0,-34,17,17,-29,-9,14,43,48,29
39,48,9,-43,14,29,-29,-9,9,43,53,24
24,19,-4,-21,14,7,-34,-9,4,34,48,24
14,0,-14,-7,14,-7,-34,-9,4,34,39,24
14,0,-14,-7,14,-7,-34,-9,4,29,39,24
14,0,-14,-7,14,-7,-34,-9,4,29,39,19
19,9,-9,-14,14,0,-34,-9,4,34,48,29
19,14,-4,-17,12,4,-34,-9,4,39,58,39
24,24,0,-24,12,12,-29,-9,9,39,58,39
24,39,14,-31,4,26,-29,-9,9,34,53,39
29,39,9,-34,9,24,-24,-9,4,24,34,24
24,19,-4,-21,14,7,-24,-9,0,14,9,14
19,0,-19,-9,19,-9,-24,-9,-14,9,4,4
19,-9,-29,-4,24,-19,-24,-9,-24,0,0,0
14,-9,-24,-2,19,-17,-24,-9,-19,0,0,0
19,-14,-34,-2,26,-24,-19,-9,-19,4,0,4
19,-9,-29,-4,24,-19,-19,-9,-19,4,4,4
19,-4,-24,-7,21,-14,-19,-4,-19,9,9,4
19,-4,-24,-7,21,-14,-19,-4,-19,9,9,14
14,-4,-19,-4,17,-12,-24,-4,-19,0,9,19
9,-9,-19,0,14,-14,-24,-9,-19,0,4,14
9,-14,-24,2,17,-19,-24,-9,-19,0,4,14
9,0,-9,-4,9,-4,-24,-9,-19,4,14,14
9,9,0,-9,4,4,-24,-14,-19,9,24,19
14,4,-9,-9,12,-2,-29,-14,-19,4,19,19
19,0,-19,-9,19,-9,-34,-14,-24,0,19,19
19,4,-14,-12,17,-4,-34,-14,-19,0,19,19
19,9,-9,-14,14,0,-39,-19,-19,0,19,19
19,14,-4,-17,12,4,-34,-14,-19,0,14,19
19,19,0,-19,9,9,-29,-9,-19,0,9,19
14,19,4,-17,4,12,-29,-9,-19,0,9,19
9,19,9,-14,0,14,-29,-9,-19,0,9,19
9,24,14,-17,-2,19,-29,-14,-19,0,14,19
9,29,19,-19,-4,24,-29,-19,-19,0,19,19
14,34,19,-24,-2,26,-29,-19,-24,0,19,19
19,39,19,-29,0,29,-29,-19,-29,0,19,19
19,39,19,-29,0,29,-29,-19,-29,-4,14,19
19,39,19,-29,0,29,-29,-19,-29,-9,9,19
14,24,9,-19,2,17,-29,-19,-29,-9,4,14
9,9,0,-9,4,4,-29,-19,-29,-9,0,9
9,9,0,-9,4,4,-29,-14,-29,-9,0,9
9,9,0,-9,4,4,-29,-9,-29,-9,0,9
9,9,0,-9,4,4,-29,-9,-29,-9,0,9
9,9,0,-9,4,4,-29,-9,-29,-9,0,9
4,0,-4,-2,4,-2,-39,-19,-34,-14,-4,4
0,-9,-9,4,4,-9,-48,-29,-39,-19,-9,0
0,0,0,0,0,0,-48,-29,-39,-19,-9,0
0,9,9,-4,-4,9,-48,-29,-39,-19,-9,0
4,9,4,-7,0,7,-43,-29,-39,-19,-4,0
9,9,0,-9,4,4,-39,-29,-39,-19,0,0
9,9,0,-9,4,4,-39,-29,-39,-19,0,0
9,9,0,-9,4,4,-39,-29,-39,-19,0,0
9,9,0,-9,4,4,-39,-29,-39,-19,0,0
9,9,0,-9,4,4,-39,-29,-39,-19,0,0
4,9,4,-7,0,7,-39,-29,-39,-19,-4,0
0,9,9,-4,-4,9,-39,-29,-39,-19,-9,0
0,9,9,-4,-4,9,-39,-29,-39,-19,-9,0
0,9,9,-4,-4,9,-39,-29,-39,-19,-9,0
0,9,9,-4,-4,9,-34,-29,-39,-19,-9,0
0,9,9,-4,-4,9,-29,-29,-39,-19,-9,0
0,9,9,-4,-4,9,-29,-29,-39,-19,-9,0
0,9,9,-4,-4,9,-29,-29,-39,-19,-9,0
0,9,9,-4,-4,9,-34,-29,-43,-24,-9,0
0,9,9,-4,-4,9,-39,-29,-48,-29,-9,0
0,9,9,-4,-4,9,-39,-29,-48,-29,-9,0
0,9,9,-4,-4,9,-39,-29,-48,-29,-9,0
0,9,9,-4,-4,9,-39,-29,-48,-29,-9,0
0,9,9,-4,-4,9,-39,-29,-48,-29,-9,0
0,9,9,-4,-4,9,-43,-29,-48,-29,-9,0
0,9,9,-4,-4,9,-48,-29,-48,-29,-9,0
0,9,9,-4,-4,9,-48,-29,-48,-29,-9,0
0,9,9,-4,-4,9,-48,-29,-48,-29,-9,0
0,9,9,-4,-4,9,-43,-29,-48,-29,-9,0
0,9,9,-4,-4,9,-39,-29,-48,-29,-9,0
0,9,9,-4,-4,9,-39,-34,-48,-29,-9,0
0,9,9,-4,-4,9,-39,-39,-48,-29,-9,0
0,9,9,-4,-4,9,-39,-39,-48,-29,-4,0
0,9,9,-4,-4,9,-39,-39,-48,-29,0,0
0,9,9,-4,-4,9,-39,-29,-48,-24,0,4
0,9,9,-4,-4,9,-39,-19,-48,-19,0,9
0,9,9,-4,-4,9,-39,-29,-48,-19,0,9
0,9,9,-4,-4,9,-39,-39,-48,-19,0,9
0,4,4,-2,-2,4,-39,-39,-48,-24,-4,4
0,0,0,0,0,0,-39,-39,-48,-29,-9,0
0,0,0,0,0,0,-39,-39,-48,-29,-9,0
0,0,0,0,0,0,-39,-39,-48,-29,-9,0
4,0,-4,-2,4,-2,-39,-39,-48,-29,-9,0
9,0,-9,-4,9,-4,-39,-39,-48,-29,-9,0
9,0,-9,-4,9,-4,-43,-39,-48,-29,-9,0
9,0,-9,-4,9,-4,-48,-39,-48,-29,-9,0
9,0,-9,-4,9,-4,-48,-34,-48,-29,-4,0
9,0,-9,-4,9,-4,-48,-29,-48,-29,0,0
14,4,-9,-9,12,-2,-48,-29,-48,-24,0,4
19,9,-9,-14,14,0,-48,-29,-48,-19,0,9
19,9,-9,-14,14,0,-48,-29,-48,-19,0,9
19,9,-9,-14,14,0,-48,-29,-48,-19,0,9
9,4,-4,-7,7,0,-48,-34,-48,-19,0,4
0,0,0,0,0,0,-48,-39,-48,-19,0,0
0,0,0,0,0,0,-43,-39,-48,-19,0,0
0,0,0,0,0,0,-39,-39,-48,-19,0,0
4,4,0,-4,2,2,-39,-34,-48,-19,0,4
9,9,0,-9,4,4,-39,-29,-48,-19,0,9
9,9,0,-9,4,4,-39,-29,-48,-19,0,9
9,9,0,-9,4,4,-39,-29,-48,-19,0,9
9,9,0,-9,4,4,-39,-29,-48,-19,0,9
9,9,0,-9,4,4,-39,-29,-48,-19,0,9
9,9,0,-9,4,4,-39,-29,-48,-19,0,9
9,9,0,-9,4,4,-39,-29,-48,-19,0,9
9,9,0,-9,4,4,-39,-29,-48,-19,0,9
9,9,0,-9,4,4,-39,-29,-48,-19,0,9
14,14,0,-14,7,7,-39,-29,-53,-19,0,9
19,19,0,-19,9,9,-39,-29,-58,-19,0,9
19,19,0,-19,9,9,-39,-29,-58,-19,0,9
19,19,0,-19,9,9,-39,-29,-58,-19,0,9
19,19,0,-19,9,9,-39,-24,-53,-19,4,9
19,19,0,-19,9,9,-39,-19,-48,-19,9,9
19,19,0,-19,9,9,-39,-19,-48,-19,9,9
14,14,0,-14,7,7,-39,-19,-48,-19,4,4
9,14,4,-12,2,9,-39,-19,-53,-19,4,4
0,0,0,0,0,0,-43,-24,-58,-19,0,4
0,9,9,-4,-4,9,-48,-24,-53,-19,0,4
0,19,19,-9,-9,19,-48,-24,-43,-4,4,19
14,34,19,-24,-2,26,-43,-24,-34,0,14,19
14,63,48,-39,-17,56,-39,-24,-14,14,29,34
14,73,58,-43,-21,65,-34,-24,0,24,43,48
9,78,68,-43,-29,73,-34,-19,9,34,48,48
9,78,68,-43,-29,73,-34,-19,14,34,58,48
14,68,53,-41,-19,61,-34,-19,14,29,63,48
19,58,39,-39,-9,48,-43,-24,14,29,53,48
39,63,24,-51,7,43,-58,-29,14,39,53,53
48,78,29,-63,9,53,-73,-39,4,39,53,58
53,87,34,-70,9,61,-92,-48,-4,34,58,63
82,92,9,-87,36,51,-97,-58,-14,24,63,63
87,78,-9,-82,48,34,-97,-58,-34,4,43,53
87,53,-34,-70,61,9,-97,-58,-58,-4,34,43
87,53,-34,-70,61,9,-97,-58,-63,-9,34,39
68,53,-14,-61,41,19,-97,-58,-63,-14,29,34
63,53,-9,-58,36,21,-97,-53,-73,-19,24,34
87,53,-34,-70,61,9,-97,-53,-87,-29,19,34
102,58,-43,-80,73,7,-97,-53,-87,-34,19,34
97,48,-48,-73,73,0,-92,-53,-87,-34,19,34
97,39,-58,-68,78,-9,-87,-53,-82,-29,19,34
97,43,-53,-70,75,-4,-87,-58,-78,-29,19,34
78,43,-34,-61,56,4,-78,-53,-68,-14,24,39
73,53,-19,-63,46,17,-68,-48,-58,-9,29,43
29,48,19,-39,4,34,-53,-34,-53,-4,34,39
4,4,0,-4,2,2,-34,-24,-53,-19,14,19
4,-14,-19,4,12,-17,-29,-19,-63,-24,4,4
-4,-14,-9,9,2,-12,-24,-14,-68,-34,-9,-4
-4,-24,-19,14,7,-21,-19,-4,-68,-39,-14,-14
-14,-29,-14,21,0,-21,-19,-14,-68,-43,-14,-14
-29,-34,-4,31,-12,-19,-19,-19,-68,-43,-14,-14
-29,-39,-9,34,-9,-24,-19,-19,-68,-43,-14,-14
-19,-48,-29,34,4,-39,-19,-19,-68,-48,-14,-14
-19,-48,-29,34,4,-39,-19,-19,-68,-48,-14,-14
-19,-43,-24,31,2,-34,-19,-19,-68,-43,-9,-14
-9,-29,-19,19,4,-24,-19,-19,-68,-43,-9,-9
-4,-14,-9,9,2,-12,-24,-19,-68,-43,-9,-9
0,-14,-14,7,7,-14,-24,-19,-68,-34,-9,-9
4,-19,-24,7,14,-21,-24,-19,-68,-34,-9,-9
4,-29,-34,12,19,-31,-24,-14,-73,-39,-14,-9
9,-39,-48,14,29,-43,-29,-24,-73,-34,0,4
4,-48,-53,21,29,-51,-39,-34,-82,-39,-4,4
-4,-29,-24,17,9,-26,-48,-48,-63,9,39,39
9,34,24,-21,-7,29,-68,-68,4,122,156,122
14,141,126,-78,-56,134,-102,-102,102,302,356,287
78,317,239,-197,-80,278,-156,-126,278,629,727,600
151,517,366,-334,-107,441,-200,-151,458,966,1102,902
214,722,507,-468,-146,614,-248,-151,639,1288,1464,1210
253,888,634,-570,-190,761,-273,-156,741,1434,1649,1385
287,951,663,-619,-187,807,-263,-156,732,1302,1527,1356
248,780,531,-514,-141,656,-190,-151,463,717,912,951
68,263,195,-165,-63,229,-43,-117,39,-131,-24,190
-48,-122,-73,85,12,-97,63,-48,-190,-595,-590,-297
-141,-336,-195,239,26,-265,151,14,-239,-712,-780,-517
-268,-483,-214,375,-26,-348,258,78,-224,-751,-858,-649
-434,-561,-126,497,-153,-344,336,102,-165,-712,-858,-692
-566,-600,-34,583,-265,-317,385,107,-87,-595,-780,-673
-566,-561,4,563,-285,-278,385,126,-4,-473,-653,-600
-507,-517,-9,512,-248,-263,385,146,39,-400,-575,-546
-478,-458,19,468,-248,-219,385,175,82,-331,-492,-483
-468,-434,34,451,-251,-200,424,219,131,-287,-439,-444
-468,-424,43,446,-256,-190,468,263,219,-229,-390,-409
-463,-390,73,427,-268,-158,488,263,258,-170,-336,-361
-453,-356,97,405,-275,-129,492,239,268,-156,-287,-317
-424,-336,87,380,-256,-124,478,200,239,-156,-273,-292
-390,-322,68,356,-229,-126,458,170,200,-156,-244,-263
-351,-312,39,331,-195,-136,434,156,151,-156,-214,-229
-336,-317,19,326,-178,-148,405,136,82,-156,-195,-209
-307,-317,-9,312,-148,-163,366,102,9,-175,-190,-209
-278,-317,-39,297,-119,-178,336,92,-34,-175,-190,-195
-244,-292,-48,268,-97,-170,297,78,-48,-170,-170,-180
-209,-258,-48,234,-80,-153,268,78,-58,-146,-146,-156
-175,-224,-48,200,-63,-136,234,73,-58,-131,-122,-136
-126,-185,-58,156,-34,-122,190,63,-53,-107,-102,-107
-92,-161,-68,126,-12,-114,146,43,-48,-92,-78,-82
-73,-136,-63,104,-4,-100,97,29,-43,-68,-53,-63
-63,-117,-53,90,-4,-85,68,19,-39,-58,-39,-58
-48,-107,-58,78,4,-82,39,14,-39,-53,-29,-48
-43,-97,-53,70,4,-75,24,14,-43,-53,-29,-48
-39,-97,-58,68,9,-78,14,14,-53,-48,-29,-39
-24,-87,-63,56,19,-75,14,14,-58,-39,-24,-34
-24,-87,-63,56,19,-75,9,14,-58,-39,-24,-29
-24,-87,-63,56,19,-75,4,9,-53,-39,-14,-29
-14,-87,-73,51,29,-80,4,9,-48,-34,-14,-29
-9,-87,-78,48,34,-82,4,9,-48,-29,-19,-29
-24,-97,-73,61,24,-85,4,9,-48,-29,-19,-29
-34,-102,-68,68,17,-85,4,9,-48,-29,-19,-29
-29,-97,-68,63,19,-82,-9,9,-48,-34,-19,-29
-29,-97,-68,63,19,-82,-19,14,-48,-39,-24,-34
-24,-92,-68,58,21,-80,-4,14,-48,-34,-24,-34
-19,-87,-68,53,24,-78,4,14,-48,-34,-24,-34
-14,-87,-73,51,29,-80,4,14,-43,-34,-19,-34
-9,-82,-73,46,31,-78,9,14,-43,-34,-19,-34
-4,-82,-78,43,36,-80,14,19,-43,-29,-19,-29
-4,-82,-78,43,36,-80,14,19,-43,-29,-19,-29
-4,-82,-78,43,36,-80,14,14,-48,-34,-19,-29
-4,-87,-82,46,39,-85,14,9,-48,-34,-19,-29
-14,-87,-73,51,29,-80,14,9,-48,-34,-19,-29
-14,-87,-73,51,29,-80,19,14,-48,-34,-19,-29
-19,-102,-82,61,31,-92,14,14,-43,-34,-24,-34
-19,-102,-82,61,31,-92,9,19,-43,-34,-29,-39
-14,-92,-78,53,31,-85,4,19,-43,-34,-29,-34
-14,-87,-73,51,29,-80,4,19,-43,-34,-29,-29
-4,-82,-78,43,36,-80,9,19,-43,-34,-24,-24
4,-82,-87,39,46,-85,9,19,-43,-29,-24,-24
4,-78,-82,36,43,-80,4,19,-39,-29,-24,-29
-4,-78,-73,41,34,-75,0,19,-39,-34,-24,-29
-9,-87,-78,48,34,-82,0,19,-43,-34,-29,-34
-14,-97,-82,56,34,-90,4,19,-48,-34,-34,-39
-14,-97,-82,56,34,-90,4,19,-48,-34,-34,-43
-9,-97,-87,53,39,-92,4,19,-43,-34,-29,-43
-9,-92,-82,51,36,-87,4,19,-43,-34,-29,-43
-9,-92,-82,51,36,-87,-9,19,-43,-34,-34,-43
-4,-87,-82,46,39,-85,-9,19,-43,-39,-34,-39
-4,-87,-82,46,39,-85,-4,19,-39,-43,-34,-39
0,-82,-82,41,41,-82,-4,19,-39,-39,-29,-39
4,-68,-73,31,39,-70,-4,19,-34,-34,-24,-34
14,-58,-73,21,43,-65,-4,24,-34,-29,-24,-34
19,-58,-78,19,48,-68,-4,24,-24,-19,-24,-34
14,-58,-73,21,43,-65,-4,19,-19,-19,-24,-29
9,-53,-63,21,36,-58,-9,14,-19,-19,-24,-29
9,-53,-63,21,36,-58,-4,14,-19,-19,-24,-29
14,-43,-58,14,36,-51,-4,14,-14,-14,-24,-24
24,-34,-58,4,41,-46,-4,14,-4,-19,-24,-24
29,-24,-53,-2,41,-39,-4,14,-4,-24,-19,-19
34,-24,-58,-4,46,-41,-9,14,4,-19,-19,-19
29,-24,-53,-2,41,-39,-19,14,4,-19,-24,-19
0,-34,-34,17,17,-34,-24,14,4,-19,-29,-19
-29,-43,-14,36,-7,-29,-24,9,4,-19,-34,-19
-14,-34,-19,24,2,-26,-19,9,9,-19,-34,-19
14,-19,-34,2,24,-26,-19,9,19,-14,-34,-19
24,9,-14,-17,19,-2,-19,9,24,-4,-34,-14
19,14,-4,-17,12,4,-19,9,34,0,-34,-14
4,14,9,-9,-2,12,-19,4,39,-4,-39,-24
-4,19,24,-7,-14,21,-19,4,43,-4,-39,-24
-4,29,34,-12,-19,31,-14,9,48,-9,-39,-29
0,39,39,-19,-19,39,-14,9,53,-14,-43,-34
0,39,39,-19,-19,39,-9,9,58,-14,-43,-34
-9,29,39,-9,-24,34,-9,9,68,-9,-53,-39
-14,29,43,-7,-29,36,-14,9,73,-9,-58,-43
-19,29,48,-4,-34,39,-14,9,78,-9,-63,-53
-9,43,53,-17,-31,48,-4,14,87,-9,-73,-48
0,53,53,-26,-26,53,0,14,92,-9,-73,-48
-19,43,63,-12,-41,53,0,19,97,-14,-87,-53
-43,34,78,4,-61,56,4,24,107,-19,-92,-53
-34,29,63,2,-48,46,9,24,117,-19,-97,-63
-19,29,48,-4,-34,39,14,29,126,-19,-97,-63
-19,34,53,-7,-36,43,24,34,131,-14,-92,-63
-24,48,73,-12,-48,61,29,34,136,-9,-87,-68
-29,29,58,0,-43,43,34,43,141,-4,-87,-73
-24,9,34,7,-29,21,34,43,141,-4,-87,-78
-24,4,29,9,-26,17,39,48,141,0,-82,-78
-19,4,24,7,-21,14,39,48,141,0,-78,-73
-14,4,19,4,-17,12,39,53,146,0,-68,-68
-14,-4,9,9,-12,2,39,58,146,4,-58,-58
-14,-9,4,12,-9,-2,39,58,141,9,-48,-53
-9,-9,0,9,-4,-4,39,58,131,19,-34,-43
4,-9,-14,2,9,-12,43,58,126,29,-24,-29
19,-19,-39,0,29,-29,39,53,117,29,-9,-19
19,-19,-39,0,29,-29,34,48,107,39,4,-4
29,-19,-48,-4,39,-34,34,48,102,48,19,4
34,-19,-53,-7,43,-36,29,53,97,53,29,19
39,-24,-63,-7,51,-43,19,48,87,58,43,29
39,-24,-63,-7,51,-43,14,39,82,63,58,43
39,-24,-63,-7,51,-43,14,39,73,63,68,58
43,-19,-63,-12,53,-41,14,43,63,68,73,68
48,-19,-68,-14,58,-43,19,43,58,73,87,78
53,-24,-78,-14,65,-51,19,39,58,78,92,87
58,-24,-82,-17,70,-53,19,39,63,82,97,92
58,-29,-87,-14,73,-58,9,29,53,78,102,97
53,-29,-82,-12,68,-56,4,29,48,78,102,97
39,-48,-87,4,63,-68,0,24,29,78,102,92
24,-68,-92,21,58,-80,-4,19,19,78,102,87
24,-68,-92,21,58,-80,-4,19,19,78,102,82
24,-68,-92,21,58,-80,-4,19,19,73,102,78
34,-63,-97,14,65,-80,0,19,19,73,102,78
43,-58,-102,7,73,-80,4,24,19,68,102,78
43,-53,-97,4,70,-75,4,29,24,73,102,82
48,-43,-92,-2,70,-68,4,34,24,78,107,82
48,-43,-92,-2,70,-68,4,34,24,73,107,82
34,-53,-87,9,61,-70,4,29,24,73,107,78
29,-63,-92,17,61,-78,4,29,19,68,97,78
29,-73,-102,21,65,-87,9,29,19,63,97,78
34,-68,-102,17,68,-85,4,29,24,63,97,78
34,-68,-102,17,68,-85,0,24,24,63,92,78
24,-73,-97,24,61,-85,0,29,24,63,92,78
14,-73,-87,29,51,-80,0,29,29,63,92,78
29,-63,-92,17,61,-78,4,29,34,68,97,82
43,-58,-102,7,73,-80,9,34,34,73,102,87
34,-48,-82,7,58,-65,9,34,34,73,102,82
34,-39,-73,2,53,-56,14,34,34,73,102,82
29,-58,-87,14,58,-73,14,29,24,63,97,78
19,-78,-97,29,58,-87,9,29,19,58,87,73
9,-82,-92,36,51,-87,9,29,19,53,87,68
0,-82,-82,41,41,-82,9,34,19,53,87,63
4,-82,-87,39,46,-85,19,39,19,53,87,63
9,-82,-92,36,51,-87,24,43,14,53,87,63
4,-82,-87,39,46,-85,24,43,9,53,87,63
4,-73,-78,34,41,-75,19,39,9,48,87,58
9,-82,-92,36,51,-87,14,34,14,48,82,58
4,-97,-102,46,53,-100,9,29,14,48,73,58
4,-97,-102,46,53,-100,9,29,14,48,73,58
0,-97,-97,48,48,-97,9,29,9,43,73,53
0,-92,-92,46,46,-92,14,29,9,43,73,58
4,-78,-82,36,43,-80,24,29,14,53,68,63
4,-78,-82,36,43,-80,24,29,14,48,68,63
4,-78,-82,36,43,-80,24,29,14,48,68,58
4,-87,-92,41,48,-90,19,29,9,48,68,58
0,-102,-102,51,51,-102,14,29,4,48,68,58
4,-102,-107,48,56,-104,19,29,4,48,68,63
4,-97,-102,46,53,-100,19,29,0,43,63,68
9,-87,-97,39,53,-92,19,29,0,43,63,63
4,-97,-102,46,53,-100,14,29,0,43,58,63
0,-107,-107,53,53,-107,14,29,-4,43,58,58
0,-107,-107,53,53,-107,14,29,-4,39,58,58
-4,-102,-97,53,46,-100,14,29,0,29,53,53
0,-102,-102,51,51,-102,19,29,0,24,48,53
0,-97,-97,48,48,-97,19,29,0,24,48,53
0,-92,-92,46,46,-92,19,34,0,29,48,53
9,-87,-97,39,53,-92,24,34,0,34,53,63
14,-82,-97,34,56,-90,24,34,0,29,58,68
9,-87,-97,39,53,-92,24,29,0,29,53,58
9,-92,-102,41,56,-97,24,29,0,29,53,53
4,-97,-102,46,53,-100,24,29,-4,29,48,48
0,-107,-107,53,53,-107,24,24,-9,29,43,48
4,-112,-117,53,61,-114,19,19,-14,24,39,48
9,-117,-126,53,68,-122,14,14,-24,19,39,48
14,-102,-117,43,65,-109,14,14,-14,24,43,48
19,-87,-107,34,63,-97,19,19,-9,29,48,48
19,-87,-107,34,63,-97,19,19,-9,29,48,48
19,-87,-107,34,63,-97,19,19,-9,29,48,48
14,-97,-112,41,63,-104,14,14,-14,24,48,48
9,-107,-117,48,63,-112,9,9,-19,19,48,48
9,-107,-117,48,63,-112,9,9,-19,19,48,48
9,-107,-117,48,63,-112,9,9,-19,19,48,48
4,-107,-112,51,58,-109,9,9,-19,19,48,48
0,-107,-107,53,53,-107,9,9,-19,19,48,48
0,-107,-107,53,53,-107,9,9,-19,19,48,43
0,-107,-107,53,53,-107,9,9,-19,19,48,39
4,-102,-107,48,56,-104,9,9,-19,19,43,39
9,-97,-107,43,58,-102,9,9,-19,19,39,39
9,-97,-107,43,58,-102,9,9,-19,19,39,39
9,-97,-107,43,58,-102,9,9,-19,19,39,39
9,-97,-107,43,58,-102,4,9,-19,19,39,39
9,-97,-107,43,58,-102,0,9,-19,19,39,39
9,-97,-107,43,58,-102,0,9,-19,19,39,39
9,-97,-107,43,58,-102,0,9,-19,19,39,39
14,-92,-107,39,61,-100,0,9,-19,19,39,39
19,-87,-107,34,63,-97,0,9,-19,19,39,39
19,-87,-107,34,63,-97,0,9,-19,19,39,39
19,-87,-107,34,63,-97,0,9,-19,19,39,39
9,-92,-102,41,56,-97,0,4,-24,14,34,34
0,-97,-97,48,48,-97,0,0,-29,9,29,29
0,-97,-97,48,48,-97,0,0,-29,9,29,29
0,-97,-97,48,48,-97,0,0,-29,9,29,29
0,-92,-92,46,46,-92,0,0,-29,9,29,29
0,-87,-87,43,43,-87,0,0,-29,9,29,29
-4,-87,-82,46,39,-85,-4,0,-34,4,24,29
-9,-87,-78,48,34,-82,-9,0,-39,0,19,29
-9,-87,-78,48,34,-82,-9,0,-39,0,19,29
-9,-87,-78,48,34,-82,-9,0,-39,0,19,29
0,-78,-78,39,39,-78,-9,0,-39,0,24,29
9,-68,-78,29,43,-73,-9,0,-39,0,29,29
9,-63,-73,26,41,-68,-9,0,-39,0,29,29
9,-58,-68,24,39,-63,-9,0,-39,0,29,29
9,-58,-68,24,39,-63,-9,0,-39,-4,24,29
9,-58,-68,24,39,-63,-9,0,-39,-9,19,29
9,-58,-68,24,39,-63,-9,0,-39,-9,19,29
9,-58,-68,24,39,-63,-9,0,-39,-9,19,29
4,-63,-68,29,36,-65,-9,0,-39,-9,14,24
0,-68,-68,34,34,-68,-9,0,-39,-9,9,19
0,-68,-68,34,34,-68,-9,0,-39,-9,9,19
0,-68,-68,34,34,-68,-9,0,-39,-9,9,19
0,-63,-63,31,31,-63,-9,0,-39,-9,9,19
0,-58,-58,29,29,-58,-9,0,-39,-9,9,19
0,-58,-58,29,29,-58,-9,0,-43,-9,9,19
0,-58,-58,29,29,-58,-9,0,-48,-9,9,19
4,-53,-58,24,31,-56,-9,0,-48,-9,9,14
9,-48,-58,19,34,-53,-9,0,-48,-9,9,9
9,-48,-58,19,34,-53,-9,0,-43,-9,14,9
9,-48,-58,19,34,-53,-9,0,-39,-9,19,9
9,-48,-58,19,34,-53,-9,-4,-39,-9,19,9
9,-48,-58,19,34,-53,-9,-9,-39,-9,19,9
14,-43,-58,14,36,-51,-9,-9,-43,-9,19,9
19,-39,-58,9,39,-48,-9,-9,-48,-9,19,9
19,-34,-53,7,36,-43,-14,-9,-48,-9,19,9
19,-29,-48,4,34,-39,-19,-9,-48,-9,19,9
14,-29,-43,7,29,-36,-19,-9,-48,-9,19,9
9,-29,-39,9,24,-34,-19,-9,-48,-9,19,9
9,-29,-39,9,24,-34,-19,-9,-48,-9,19,9
9,-29,-39,9,24,-34,-19,-9,-48,-9,19,9
9,-29,-39,9,24,-34,-19,-9,-48,-9,19,14
9,-29,-39,9,24,-34,-19,-9,-48,-9,19,19
9,-29,-39,9,24,-34,-19,-9,-48,-9,14,19
9,-29,-39,9,24,-34,-19,-9,-48,-9,9,19
9,-29,-39,9,24,-34,-19,-9,-48,-9,9,19
9,-29,-39,9,24,-34,-19,-9,-48,-9,9,19
9,-24,-34,7,21,-29,-19,-9,-48,-9,9,19
9,-19,-29,4,19,-24,-19,-9,-48,-9,9,19
29,-4,-34,-12,31,-19,-14,-4,-43,-9,14,19
48,9,-39,-29,43,-14,-9,0,-39,-9,19,19
48,9,-39,-29,43,-14,-9,0,-39,-9,19,19
48,9,-39,-29,43,-14,-9,0,-39,-9,19,19
9,-19,-29,4,19,-24,-19,-14,-48,-19,9,4
-29,-48,-19,39,-4,-34,-29,-29,-58,-29,0,-9
-19,-48,-29,34,4,-39,-29,-19,-58,-29,0,0
-9,-48,-39,29,14,-43,-29,-9,-58,-29,0,9
4,-34,-39,14,21,-36,-29,-9,-58,-24,0,9
19,-19,-39,0,29,-29,-29,-9,-58,-19,0,9
19,-19,-39,0,29,-29,-29,-9,-53,-19,0,9
19,-19,-39,0,29,-29,-29,-9,-48,-19,0,9
19,-19,-39,0,29,-29,-19,-9,-48,-19,0,9
19,-19,-39,0,29,-29,-9,-9,-48,-19,0,9
19,-19,-39,0,29,-29,-19,-9,-48,-19,0,9
19,-19,-39,0,29,-29,-29,-9,-48,-19,0,9
19,-19,-39,0,29,-29,-29,-9,-48,-19,0,9
19,-19,-39,0,29,-29,-29,-9,-48,-19,0,9
19,-19,-39,0,29,-29,-29,-9,-48,-19,0,9
19,-19,-39,0,29,-29,-29,-9,-48,-19,0,9
24,-14,-39,-4,31,-26,-29,-9,-48,-19,0,9
29,-9,-39,-9,34,-24,-29,-9,-48,-19,0,9
29,-9,-39,-9,34,-24,-29,-9,-43,-14,4,19
29,-4,-34,-12,31,-19,-29,-9,-39,-9,4,19
29,0,-29,-14,29,-14,-29,-9,-39,-9,9,24
29,0,-29,-14,29,-14,-34,-14,-39,-9,9,24
4,-14,-19,4,12,-17,-39,-14,-43,-9,4,14
-19,-29,-9,24,-4,-19,-39,-14,-43,4,4,19
14,4,-9,-9,12,-2,-34,-14,-34,9,14,19
34,53,19,-43,7,36,-29,-14,-14,24,29,34
34,63,29,-48,2,46,-24,-19,4,34,48,53
29,68,39,-48,-4,53,-24,-19,19,43,58,58
24,68,43,-46,-9,56,-24,-19,19,43,58,58
24,58,34,-41,-4,46,-24,-19,14,39,53,58
34,58,24,-46,4,41,-34,-19,14,39,48,58
58,73,14,-65,21,43,-48,-19,14,48,53,63
78,87,9,-82,34,48,-68,-29,4,53,53,68
92,97,4,-95,43,51,-92,-39,-4,53,58,73
122,112,-9,-117,65,51,-97,-48,-14,43,58,73
126,107,-19,-117,73,43,-97,-48,-34,24,34,63
117,73,-43,-95,80,14,-97,-48,-58,9,24,53
107,63,-43,-85,75,9,-97,-48,-63,0,24,48
97,63,-34,-80,65,14,-97,-53,-63,-4,19,43
102,63,-39,-82,70,12,-97,-53,-73,-9,14,43
126,53,-73,-90,100,-9,-97,-53,-87,-19,9,43
141,48,-92,-95,117,-21,-97,-53,-87,-24,9,43
126,43,-82,-85,104,-19,-92,-53,-87,-24,4,43
117,39,-78,-78,97,-19,-87,-53,-82,-19,0,43
117,43,-73,-80,95,-14,-87,-58,-82,-19,0,43
97,43,-53,-70,75,-4,-78,-53,-78,-4,4,48
92,48,-43,-70,68,2,-68,-48,-68,-4,14,48
48,39,-9,-43,29,14,-53,-34,-63,-4,24,39
24,4,-19,-14,21,-7,-34,-24,-63,-19,4,19
24,-4,-29,-9,26,-17,-29,-19,-73,-24,-4,4
0,-19,-19,9,9,-19,-29,-24,-78,-34,-19,-4
-14,-43,-29,29,7,-36,-29,-24,-78,-39,-24,-14
-14,-43,-29,29,7,-36,-24,-24,-78,-43,-24,-14
-19,-43,-24,31,2,-34,-19,-19,-78,-43,-24,-14
-19,-34,-14,26,-2,-24,-19,-19,-78,-43,-29,-14
-9,-29,-19,19,4,-24,-19,-19,-78,-48,-34,-14
-4,-29,-24,17,9,-26,-19,-19,-78,-48,-34,-14
0,-24,-24,12,12,-24,-19,-19,-78,-43,-29,-14
4,-19,-24,7,14,-21,-19,-19,-78,-43,-29,-9
4,-14,-19,4,12,-17,-24,-19,-78,-43,-29,-9
19,4,-14,-12,17,-4,-24,-19,-78,-34,-19,-9
34,19,-14,-26,24,2,-24,-19,-78,-34,-9,-9
24,0,-24,-12,24,-12,-29,-14,-87,-43,-29,-14
19,-19,-39,0,29,-29,-39,-24,-92,-43,-29,-4
24,-29,-53,2,39,-41,-39,-34,-97,-53,-39,-14
24,-9,-34,-7,29,-21,-39,-48,-73,-9,0,9
43,48,4,-46,19,26,-53,-68,-9,82,97,78
53,151,97,-102,-21,124,-82,-102,82,244,278,229
97,317,219,-207,-61,268,-146,-126,258,570,639,531
151,507,356,-329,-102,431,-200,-151,439,907,1005,824
244,736,492,-490,-124,614,-248,-156,644,1273,1410,1161
312,927,614,-619,-151,771,-273,-165,771,1464,1639,1366
317,1000,683,-658,-183,841,-283,-170,785,1390,1590,1385
248,839,590,-544,-170,714,-229,-170,541,863,1049,1029
97,346,248,-222,-75,297,-68,-141,87,-29,78,248
9,-14,-24,2,17,-19,53,-78,-170,-536,-522,-258
-102,-263,-161,183,29,-212,146,-4,-244,-678,-741,-497
-248,-444,-195,346,-26,-319,258,68,-253,-741,-849,-649
-414,-517,-102,466,-156,-309,341,87,-195,-717,-863,-707
-546,-551,-4,549,-270,-278,395,87,-117,-614,-800,-702
-566,-512,53,539,-309,-229,395,107,-24,-492,-678,-629
-527,-468,58,497,-292,-204,395,126,29,-419,-605,-575
-497,-419,78,458,-287,-170,380,146,58,-356,-522,-502
-488,-405,82,446,-285,-161,405,180,92,-317,-468,-453
-488,-400,87,444,-287,-156,458,234,185,-253,-419,-424
-483,-370,112,427,-297,-129,488,244,229,-190,-366,-380
-468,-326,141,397,-305,-92,497,219,244,-170,-312,-326
-434,-297,136,366,-285,-80,488,180,219,-165,-292,-292
-405,-283,122,344,-263,-80,473,151,180,-161,-268,-268
-370,-273,97,322,-234,-87,453,136,131,-156,-244,-239
-351,-273,78,312,-214,-97,424,122,68,-156,-229,-219
-317,-268,48,292,-183,-109,385,92,0,-175,-229,-219
-278,-268,9,273,-143,-129,351,82,-39,-180,-229,-204
-234,-244,-9,239,-112,-126,307,68,-48,-180,-209,-190
-195,-209,-14,202,-90,-112,273,68,-63,-161,-190,-170
-156,-175,-19,165,-68,-97,234,63,-68,-151,-170,-156
-107,-136,-29,122,-39,-82,190,58,-63,-126,-151,-131
-73,-112,-39,92,-17,-75,146,43,-58,-112,-126,-112
-53,-82,-29,68,-12,-56,92,29,-58,-82,-102,-87
-43,-58,-14,51,-14,-36,58,19,-58,-68,-87,-78
-19,-43,-24,31,2,-34,29,4,-58,-63,-78,-68
-4,-29,-24,17,9,-26,14,-4,-63,-63,-78,-68
0,-29,-29,14,14,-29,4,-4,-68,-63,-78,-63
14,-19,-34,2,24,-26,4,-4,-68,-58,-73,-63
24,-9,-34,-7,29,-21,0,-4,-63,-58,-73,-58
34,0,-34,-17,34,-17,-4,-9,-53,-58,-63,-58
19,-9,-29,-4,24,-19,-9,-9,-53,-58,-68,-63
0,-19,-19,9,9,-19,-14,-9,-58,-58,-78,-68
-4,-24,-19,14,7,-21,-14,-9,-58,-58,-78,-68
-4,-24,-19,14,7,-21,-14,-9,-58,-58,-78,-68
4,-19,-24,7,14,-21,-19,-9,-58,-58,-78,-63
9,-19,-29,4,19,-24,-19,-4,-58,-58,-82,-63
9,-19,-29,4,19,-24,-14,-4,-58,-53,-82,-63
9,-19,-29,4,19,-24,-14,-4,-58,-53,-82,-63
4,-24,-29,9,17,-26,-14,-4,-53,-58,-78,-68
0,-24,-24,12,12,-24,-9,-4,-53,-63,-78,-73
4,-24,-29,9,17,-26,-4,0,-53,-58,-82,-68
4,-24,-29,9,17,-26,-4,0,-53,-58,-87,-68
4,-19,-24,7,14,-21,-9,-4,-58,-63,-87,-68
4,-19,-24,7,14,-21,-14,-9,-58,-63,-87,-68
-4,-14,-9,9,2,-12,-14,-9,-58,-63,-87,-68
-4,-9,-4,7,0,-7,-9,-4,-58,-63,-87,-68
0,-24,-24,12,12,-24,-9,-4,-53,-63,-87,-73
9,-24,-34,7,21,-29,-9,0,-53,-63,-87,-78
14,-14,-29,0,21,-21,-14,0,-53,-63,-87,-78
14,-9,-24,-2,19,-17,-14,0,-53,-63,-87,-78
19,-4,-24,-7,21,-14,-4,0,-53,-63,-87,-73
24,-4,-29,-9,26,-17,0,0,-53,-58,-92,-73
24,0,-24,-12,24,-12,-4,0,-48,-58,-92,-87
14,0,-14,-7,14,-7,-9,0,-48,-63,-92,-97
14,-4,-19,-4,17,-12,-14,0,-48,-63,-97,-87
14,-9,-24,-2,19,-17,-14,0,-48,-63,-102,-78
9,-9,-19,0,14,-14,-14,0,-48,-63,-97,-82
9,-9,-19,0,14,-14,-14,0,-43,-63,-87,-82
9,-9,-19,0,14,-14,-14,0,-43,-63,-87,-82
9,-14,-24,2,17,-19,-29,0,-43,-63,-92,-82
14,-9,-24,-2,19,-17,-29,0,-43,-63,-87,-73
14,-9,-24,-2,19,-17,-24,0,-39,-63,-82,-68
19,-4,-24,-7,21,-14,-24,0,-39,-58,-78,-68
24,9,-14,-17,19,-2,-24,0,-34,-53,-73,-63
34,19,-14,-26,24,2,-24,9,-34,-53,-73,-63
39,19,-19,-29,29,0,-24,14,-24,-48,-73,-63
34,19,-14,-26,24,2,-24,9,-19,-48,-73,-58
29,24,-4,-26,17,9,-29,4,-19,-48,-73,-58
19,24,4,-21,7,14,-29,0,-19,-48,-73,-58
14,34,19,-24,-2,26,-34,-4,-14,-43,-73,-53
24,43,19,-34,2,31,-34,-4,-4,-43,-73,-48
29,53,24,-41,2,39,-34,-4,-4,-43,-68,-39
39,63,24,-51,7,43,-34,-4,4,-39,-68,-39
39,73,34,-56,2,53,-39,-4,4,-39,-73,-39
29,73,43,-51,-7,58,-43,-4,4,-39,-73,-43
19,73,53,-46,-17,63,-43,-9,4,-39,-73,-48
19,82,63,-51,-21,73,-48,-9,4,-39,-73,-48
34,97,63,-65,-14,80,-58,-9,9,-34,-73,-48
39,117,78,-78,-19,97,-58,-9,14,-29,-78,-43
29,112,82,-70,-26,97,-58,-9,24,-29,-82,-43
24,112,87,-68,-31,100,-58,-14,29,-34,-87,-53
24,117,92,-70,-34,104,-58,-14,34,-34,-87,-53
24,126,102,-75,-39,114,-53,-9,43,-34,-87,-53
29,136,107,-82,-39,122,-53,-9,53,-34,-92,-53
29,146,117,-87,-43,131,-48,-9,58,-34,-92,-53
19,146,126,-82,-53,136,-48,-9,68,-29,-102,-58
14,146,131,-80,-58,139,-58,-19,68,-34,-107,-63
9,146,136,-78,-63,141,-63,-29,68,-39,-112,-73
9,151,141,-80,-65,146,-53,-24,78,-39,-122,-73
9,151,141,-80,-65,146,-48,-24,82,-39,-122,-78
9,151,141,-80,-65,146,-48,-19,92,-39,-131,-82
4,151,146,-78,-70,148,-43,-14,107,-39,-131,-82
-4,146,151,-70,-78,148,-39,-14,112,-39,-136,-92
-9,146,156,-68,-82,151,-34,-9,117,-39,-136,-92
-9,136,146,-63,-78,141,-29,0,122,-34,-136,-92
-14,136,151,-61,-82,143,-29,4,126,-29,-136,-97
-14,131,146,-58,-80,139,-19,14,131,-24,-136,-97
-4,126,131,-61,-68,129,-14,14,131,-24,-136,-97
-4,122,126,-58,-65,124,-9,19,131,-19,-136,-97
0,122,122,-61,-61,122,-9,19,131,-19,-136,-92
4,122,117,-63,-56,119,-9,24,136,-19,-126,-87
4,112,107,-58,-51,109,-9,29,136,-14,-117,-78
4,102,97,-53,-46,100,-9,29,131,-9,-107,-78
9,97,87,-53,-39,92,-9,29,122,0,-92,-73
14,97,82,-56,-34,90,-9,29,117,14,-82,-58
19,87,68,-53,-24,78,-19,24,107,19,-68,-48
19,87,68,-53,-24,78,-24,19,97,24,-53,-39
29,87,58,-58,-14,73,-24,19,92,29,-39,-34
34,82,48,-58,-7,65,-24,19,87,34,-29,-19
39,73,34,-56,2,53,-29,9,78,39,-14,-9
39,73,34,-56,2,53,-34,0,78,48,0,4
39,73,34,-56,2,53,-34,0,73,53,9,19
48,82,34,-65,7,58,-34,9,63,58,14,29
58,87,29,-73,14,58,-29,14,58,63,29,39
58,82,24,-70,17,53,-29,9,53,63,34,43
58,82,24,-70,17,53,-29,9,53,63,39,43
58,78,19,-68,19,48,-34,0,43,53,43,48
53,78,24,-65,14,51,-34,0,39,48,43,48
53,73,19,-63,17,46,-34,0,29,48,43,48
53,68,14,-61,19,41,-34,0,29,48,43,48
53,68,14,-61,19,41,-29,0,29,48,43,48
53,68,14,-61,19,41,-24,0,29,43,43,48
53,68,14,-61,19,41,-24,0,29,43,43,48
53,68,14,-61,19,41,-24,4,29,39,43,48
43,48,4,-46,19,26,-29,4,24,39,39,48
39,34,-4,-36,21,14,-34,4,14,39,39,43
39,34,-4,-36,21,14,-34,4,14,34,39,43
24,24,0,-24,12,12,-34,0,14,34,39,39
29,39,9,-34,9,24,-34,0,9,39,34,39
39,53,14,-46,12,34,-29,0,9,43,39,39
43,58,14,-51,14,36,-29,4,14,43,43,39
43,58,14,-51,14,36,-29,4,14,43,43,39
39,53,14,-46,12,34,-29,9,14,39,43,39
34,53,19,-43,7,36,-29,9,19,34,43,39
24,48,24,-36,0,36,-29,4,19,34,43,39
14,39,24,-26,-4,31,-29,4,14,34,43,39
14,53,39,-34,-12,46,-29,4,19,39,48,39
24,68,43,-46,-9,56,-24,4,24,43,53,43
29,68,39,-48,-4,53,-24,0,19,39,53,43
29,68,39,-48,-4,53,-29,0,19,39,48,43
29,78,48,-53,-9,63,-29,0,19,39,58,48
29,92,63,-61,-17,78,-29,4,19,43,68,53
29,92,63,-61,-17,78,-29,0,19,43,68,53
29,92,63,-61,-17,78,-34,-4,14,43,68,53
24,82,58,-53,-17,70,-34,-4,4,34,68,53
24,82,58,-53,-17,70,-39,-9,0,19,68,48
34,87,53,-61,-9,70,-39,-9,4,29,68,48
34,87,53,-61,-9,70,-39,-9,4,39,63,48
34,92,58,-63,-12,75,-39,-9,4,39,58,48
29,97,68,-63,-19,82,-39,-9,0,34,53,43
24,87,63,-56,-19,75,-39,-9,-4,19,48,43
24,87,63,-56,-19,75,-34,-9,-4,14,39,43
29,87,58,-58,-14,73,-34,-9,-4,9,39,43
34,87,53,-61,-9,70,-34,-9,-4,9,39,39
39,87,48,-63,-4,68,-29,-9,-4,9,39,34
39,82,43,-61,-2,63,-24,-9,-4,9,39,29
39,68,29,-53,4,48,-19,-4,-4,4,34,24
34,58,24,-46,4,41,-19,0,-9,-4,24,19
24,39,14,-31,4,26,-24,0,-19,-14,14,4
4,0,-4,-2,4,-2,-34,0,-29,-24,0,-4
0,-9,-9,4,4,-9,-34,0,-34,-24,0,-9
0,-9,-9,4,4,-9,-34,0,-34,-29,0,-9
4,4,0,-4,2,2,-29,0,-29,-29,0,-9
19,14,-4,-17,12,4,-19,0,-29,-24,0,-4
19,19,0,-19,9,9,-19,0,-29,-24,0,-4
19,24,4,-21,7,14,-19,4,-29,-19,0,-4
29,24,-4,-26,17,9,-19,0,-29,-14,4,4
34,24,-9,-29,21,7,-24,-4,-29,-19,9,9
14,14,0,-14,7,7,-24,-9,-29,-19,4,0
0,4,4,-2,-2,4,-24,-9,-29,-19,4,-4
0,4,4,-2,-2,4,-24,-9,-34,-9,4,-4
0,0,0,0,0,0,-24,-14,-39,0,4,0
14,4,-9,-9,12,-2,-24,-9,-34,-4,9,0
29,9,-19,-19,24,-4,-24,-4,-34,-9,19,0
19,0,-19,-9,19,-9,-24,-4,-34,-9,19,0
9,-9,-19,0,14,-14,-29,-9,-39,-9,19,0
9,9,0,-9,4,4,-29,-9,-39,-9,19,9
9,29,19,-19,-4,24,-29,-9,-39,-9,19,19
14,19,4,-17,4,12,-29,-9,-39,-9,19,4
19,9,-9,-14,14,0,-29,-9,-39,-9,19,-9
24,9,-14,-17,19,-2,-34,-14,-39,-4,29,0
29,9,-19,-19,24,-4,-39,-19,-39,0,39,9
29,29,0,-29,14,14,-39,-19,-39,0,39,9
29,48,19,-39,4,34,-39,-19,-39,0,39,9
29,39,9,-34,9,24,-34,-14,-39,-4,34,9
29,29,0,-29,14,14,-29,-9,-39,-9,29,9
24,14,-9,-19,17,2,-29,-9,-39,-9,29,0
19,0,-19,-9,19,-9,-29,-9,-39,-9,29,-9
19,14,-4,-17,12,4,-34,-14,-39,-4,34,4
19,29,9,-24,4,19,-39,-19,-39,0,39,19
34,29,-4,-31,19,12,-39,-19,-39,0,39,19
48,29,-19,-39,34,4,-39,-19,-39,0,39,19
39,24,-14,-31,26,4,-34,-19,-39,-4,34,14
29,19,-9,-24,19,4,-29,-19,-39,-9,29,9
29,19,-9,-24,19,4,-29,-19,-39,-9,29,9
29,19,-9,-24,19,4,-29,-19,-39,-9,29,9
24,24,0,-24,12,12,-29,-19,-39,-4,29,9
19,29,9,-24,4,19,-29,-19,-39,0,29,9
19,29,9,-24,4,19,-34,-29,-39,0,39,9
19,29,9,-24,4,19,-39,-39,-39,0,48,9
24,34,9,-29,7,21,-39,-29,-39,4,48,9
29,39,9,-34,9,24,-39,-19,-39,9,48,9
43,39,-4,-41,24,17,-39,-19,-34,9,43,9
58,39,-19,-48,39,9,-39,-19,-29,9,39,9
43,39,-4,-41,24,17,-39,-24,-29,4,39,9
29,39,9,-34,9,24,-39,-29,-29,0,39,9
24,34,9,-29,7,21,-34,-29,-34,0,34,9
19,29,9,-24,4,19,-29,-29,-39,0,29,9
19,9,-9,-14,14,0,-29,-24,-39,0,29,4
19,-9,-29,-4,24,-19,-29,-19,-39,0,29,0
24,0,-24,-12,24,-12,-29,-19,-39,0,29,0
29,9,-19,-19,24,-4,-29,-19,-39,0,29,0
29,24,-4,-26,17,9,-39,-29,-39,0,39,9
29,39,9,-34,9,24,-48,-39,-39,0,48,19
29,39,9,-34,9,24,-48,-39,-39,0,39,9
29,39,9,-34,9,24,-48,-39,-39,0,29,0
29,29,0,-29,14,14,-48,-34,-39,0,29,0
29,19,-9,-24,19,4,-48,-29,-39,0,29,0
29,14,-14,-21,21,0,-48,-29,-39,4,34,0
29,9,-19,-19,24,-4,-48,-29,-39,9,39,0
29,9,-19,-19,24,-4,-48,-29,-39,9,39,0
29,9,-19,-19,24,-4,-48,-29,-39,9,39,0
24,14,-9,-19,17,2,-48,-34,-43,4,29,0
19,19,0,-19,9,9,-48,-39,-48,0,19,0
19,19,0,-19,9,9,-48,-39,-48,0,19,0
19,19,0,-19,9,9,-48,-39,-48,0,19,0
24,9,-14,-17,19,-2,-43,-29,-43,4,19,0
29,0,-29,-14,29,-14,-39,-19,-39,9,19,0
34,0,-34,-17,34,-17,-39,-19,-34,9,24,0
39,0,-39,-19,39,-19,-39,-19,-29,9,29,0
43,19,-24,-31,34,-2,-39,-24,-29,19,39,4
48,39,-9,-43,29,14,-39,-29,-29,29,48,9
63,63,0,-63,31,31,-39,-29,-29,29,48,24
78,87,9,-82,34,48,-39,-29,-29,29,48,39
39,53,14,-46,12,34,-48,-34,-34,19,43,24
0,19,19,-9,-9,19,-58,-39,-39,9,39,9
0,4,4,-2,-2,4,-58,-39,-39,4,24,0
0,-9,-9,4,4,-9,-58,-39,-39,0,9,-9
4,-9,-14,2,9,-12,-58,-39,-39,0,9,-9
9,-9,-19,0,14,-14,-58,-39,-39,0,9,-9
9,-9,-19,0,14,-14,-53,-34,-39,4,14,-9
9,-9,-19,0,14,-14,-48,-29,-39,9,19,-9
9,-9,-19,0,14,-14,-48,-29,-39,9,19,-9
9,-9,-19,0,14,-14,-48,-29,-39,9,19,-9
9,-9,-19,0,14,-14,-48,-29,-34,14,19,-9
9,-9,-19,0,14,-14,-48,-29,-29,19,19,-9
14,0,-14,-7,14,-7,-48,-29,-29,19,24,-4
19,9,-9,-14,14,0,-48,-29,-29,19,29,0
19,9,-9,-14,14,0,-48,-29,-29,19,29,4
19,9,-9,-14,14,0,-48,-29,-29,19,29,9
19,9,-9,-14,14,0,-48,-29,-29,19,29,9
19,9,-9,-14,14,0,-48,-29,-29,19,29,9
19,14,-4,-17,12,4,-53,-29,-29,19,29,9
19,19,0,-19,9,9,-58,-29,-29,19,29,9
19,19,0,-19,9,9,-58,-29,-29,19,29,9
19,19,0,-19,9,9,-58,-29,-29,19,29,9
19,19,0,-19,9,9,-53,-29,-29,19,29,9
19,19,0,-19,9,9,-48,-29,-29,19,29,9
29,29,0,-29,14,14,-48,-29,-29,19,29,9
39,39,0,-39,19,19,-48,-29,-29,19,29,9
24,24,0,-24,12,12,-53,-34,-34,14,24,9
9,9,0,-9,4,4,-58,-39,-39,9,19,9
-4,4,9,0,-7,7,-58,-39,-39,9,19,9
-19,0,19,9,-19,9,-58,-39,-39,9,19,9
-9,4,14,2,-12,9,-53,-39,-34,14,19,9
0,9,9,-4,-4,9,-53,-39,-29,14,19,4
4,19,14,-12,-4,17,-53,-43,-29,19,24,4
9,39,29,-24,-9,34,-58,-43,-24,19,29,4
9,48,39,-29,-14,43,-58,-43,-14,34,34,19
24,63,39,-43,-7,51,-53,-43,-4,39,43,19
24,87,63,-56,-19,75,-48,-43,9,48,53,34
24,92,68,-58,-21,80,-43,-43,19,53,63,48
19,97,78,-58,-29,87,-43,-39,29,63,68,48
19,97,78,-58,-29,87,-48,-39,29,63,68,48
29,97,68,-63,-19,82,-48,-34,24,63,68,53
43,107,63,-75,-9,85,-53,-34,24,68,73,58
68,122,53,-95,7,87,-68,-39,29,82,82,63
87,136,48,-112,19,92,-82,-48,24,87,82,68
102,146,43,-124,29,95,-107,-58,14,82,87,73
117,146,29,-131,43,87,-117,-68,4,73,87,73
87,117,29,-102,29,73,-117,-68,-14,48,63,63
58,82,24,-70,17,53,-117,-68,-39,34,53,53
48,82,34,-65,7,58,-117,-68,-48,24,43,48
48,82,34,-65,7,58,-117,-68,-53,14,29,43
73,82,9,-78,31,46,-112,-63,-63,9,24,39
92,73,-19,-82,56,26,-107,-63,-78,0,19,34
92,68,-24,-80,58,21,-107,-63,-78,-4,19,34
87,68,-19,-78,53,24,-102,-63,-78,-4,19,34
87,68,-19,-78,53,24,-97,-63,-73,0,19,34
87,73,-14,-80,51,29,-92,-63,-68,0,19,34
87,82,-4,-85,46,39,-78,-53,-58,14,24,39
97,82,-14,-90,56,34,-68,-48,-48,14,24,39
34,43,9,-39,12,26,-53,-34,-43,4,19,24
-4,-4,0,4,-2,-2,-34,-29,-43,-19,-4,0
-14,-19,-4,17,-4,-12,-29,-29,-53,-24,-14,-14
-34,-24,9,29,-21,-7,-29,-34,-58,-29,-24,-19
-24,-34,-9,29,-7,-21,-29,-34,-58,-29,-29,-24
-14,-34,-19,24,2,-26,-29,-34,-58,-34,-34,-24
-19,-34,-14,26,-2,-24,-29,-29,-58,-34,-34,-24
-19,-29,-9,24,-4,-19,-29,-29,-58,-34,-34,-24
-14,-29,-14,21,0,-21,-29,-29,-58,-39,-29,-24
-19,-29,-9,24,-4,-19,-29,-29,-58,-39,-24,-24
-19,-24,-4,21,-7,-14,-29,-29,-58,-34,-19,-24
-14,-19,-4,17,-4,-12,-29,-29,-58,-34,-19,-19
-14,-14,0,14,-7,-7,-34,-29,-58,-29,-14,-19
-9,-14,-4,12,-2,-9,-34,-29,-58,-14,-9,-19
-4,-19,-14,12,4,-17,-34,-29,-53,-14,-9,-14
-4,-19,-14,12,4,-17,-39,-29,-53,-14,-9,-9
0,-19,-19,9,9,-19,-48,-43,-53,0,9,4
4,-9,-14,2,9,-12,-58,-53,-39,29,39,29
19,24,4,-21,7,14,-68,-63,4,107,117,87
68,102,34,-85,17,68,-92,-78,87,258,278,214
97,229,131,-163,-17,180,-131,-107,180,453,507,419
165,405,239,-285,-36,322,-185,-122,336,736,839,707
239,585,346,-412,-53,466,-229,-141,488,1015,1151,971
292,727,434,-509,-70,580,-263,-141,585,1185,1351,1166
307,849,541,-578,-117,695,-273,-165,614,1195,1390,1229
258,790,531,-524,-136,661,-244,-185,497,897,1088,1039
151,527,375,-339,-112,451,-151,-170,204,278,414,546
0,117,117,-58,-58,117,-4,-117,-63,-283,-239,-34
-82,-161,-78,122,-2,-119,97,-39,-161,-512,-575,-370
-190,-312,-122,251,-34,-217,180,24,-146,-536,-668,-517
-326,-424,-97,375,-114,-261,283,87,-107,-536,-692,-585
-444,-463,-19,453,-212,-241,336,107,-39,-483,-668,-590
-522,-468,53,495,-287,-207,366,117,43,-366,-585,-561
-507,-434,73,470,-290,-180,366,146,112,-278,-492,-502
-448,-395,53,422,-251,-170,366,165,141,-239,-439,-458
-419,-356,63,387,-241,-146,366,195,180,-190,-380,-409
-414,-356,58,385,-236,-148,400,239,214,-170,-351,-385
-419,-361,58,390,-239,-151,434,268,268,-141,-322,-366
-419,-341,78,380,-248,-131,448,248,283,-102,-292,-326
-409,-317,92,363,-251,-112,448,219,278,-97,-258,-287
-375,-297,78,336,-226,-109,434,180,239,-107,-248,-268
-341,-283,58,312,-200,-112,419,151,200,-117,-229,-248
-302,-273,29,287,-165,-122,400,131,151,-122,-204,-219
-283,-273,9,278,-146,-131,375,112,87,-126,-190,-200
-253,-268,-14,261,-119,-141,336,82,9,-151,-190,-200
-229,-268,-39,248,-95,-153,302,73,-34,-156,-190,-185
-209,-248,-39,229,-85,-143,263,58,-39,-151,-180,-180
-190,-219,-29,204,-80,-124,239,58,-48,-126,-165,-165
-161,-195,-34,178,-63,-114,204,53,-48,-122,-146,-146
-122,-165,-43,143,-39,-104,161,43,-43,-107,-131,-122
-92,-141,-48,117,-21,-95,122,24,-39,-92,-107,-102
-73,-117,-43,95,-14,-80,78,9,-39,-68,-87,-82
-58,-92,-34,75,-12,-63,48,0,-39,-53,-73,-73
-34,-78,-43,56,4,-61,24,-4,-39,-43,-58,-58
-19,-58,-39,39,9,-48,14,-4,-43,-39,-53,-58
-9,-48,-39,29,14,-43,4,-4,-48,-34,-48,-53
9,-39,-48,14,29,-43,4,-4,-48,-24,-39,-48
14,-39,-53,12,34,-46,0,-4,-48,-19,-34,-39
14,-29,-43,7,29,-36,-4,-9,-43,-19,-24,-39
14,-19,-34,2,24,-26,-4,-9,-43,-19,-24,-39
4,-29,-34,12,19,-31,-4,-9,-53,-34,-39,-43
-4,-43,-39,24,17,-41,-4,-9,-58,-48,-48,-48
-19,-58,-39,39,9,-48,-4,-14,-58,-53,-53,-48
-29,-68,-39,48,4,-53,-9,-19,-58,-58,-58,-48
-29,-68,-39,48,4,-53,-9,-14,-58,-58,-63,-53
-29,-68,-39,48,4,-53,-4,-14,-58,-53,-63,-53
-9,-53,-43,31,17,-48,-4,-4,-58,-53,-63,-53
9,-43,-53,17,31,-48,-4,4,-53,-53,-58,-53
9,-43,-53,17,31,-48,0,4,-53,-53,-58,-58
14,-43,-58,14,36,-51,4,9,-53,-48,-58,-58
-14,-73,-58,43,21,-65,4,9,-53,-48,-58,-63
-43,-97,-53,70,4,-75,0,4,-58,-53,-58,-68
-14,-73,-58,43,21,-65,-4,0,-58,-48,-58,-68
4,-48,-53,21,29,-51,-4,0,-58,-43,-58,-68
4,-43,-48,19,26,-46,0,4,-58,-43,-53,-58
4,-53,-58,24,31,-56,0,4,-53,-43,-53,-53
4,-53,-58,24,31,-56,0,9,-53,-43,-58,-58
4,-43,-48,19,26,-46,-4,9,-53,-43,-58,-58
4,-43,-48,19,26,-46,-4,9,-53,-43,-58,-63
9,-43,-53,17,31,-48,0,9,-53,-43,-53,-63
9,-53,-63,21,36,-58,-4,9,-53,-43,-53,-63
4,-58,-63,26,34,-61,-14,9,-48,-48,-53,-68
-4,-58,-53,31,24,-56,-19,9,-48,-53,-48,-68
-4,-63,-58,34,26,-61,-19,9,-48,-53,-48,-68
0,-58,-58,29,29,-58,-14,9,-48,-48,-53,-63
4,-48,-53,21,29,-51,-14,9,-48,-43,-53,-63
9,-48,-58,19,34,-53,-9,9,-43,-43,-48,-63
9,-43,-53,17,31,-48,-4,9,-43,-43,-48,-63
4,-43,-48,19,26,-46,-19,9,-43,-43,-53,-63
4,-39,-43,17,24,-41,-19,9,-43,-43,-53,-58
4,-39,-43,17,24,-41,-14,9,-39,-43,-53,-53
9,-34,-43,12,26,-39,-14,9,-39,-39,-48,-48
14,-19,-34,2,24,-26,-14,9,-34,-34,-43,-43
19,-9,-29,-4,24,-19,-14,14,-34,-34,-43,-43
24,-9,-34,-7,29,-21,-14,14,-24,-29,-43,-43
24,-14,-39,-4,31,-26,-14,9,-19,-29,-43,-39
19,-14,-34,-2,26,-24,-19,4,-19,-24,-39,-39
14,-14,-29,0,21,-21,-19,4,-19,-19,-34,-39
14,-4,-19,-4,17,-12,-24,4,-14,-14,-34,-34
24,4,-19,-14,21,-7,-24,4,-4,-14,-34,-34
29,14,-14,-21,21,0,-34,4,-4,-14,-29,-29
39,19,-19,-29,29,0,-43,4,4,-9,-29,-29
39,24,-14,-31,26,4,-39,4,9,-4,-34,-29
29,24,-4,-26,17,9,-34,4,14,0,-34,-29
34,34,0,-34,17,17,-34,4,14,0,-29,-29
48,53,4,-51,21,29,-34,9,19,0,-24,-29
53,53,0,-53,26,26,-39,9,24,4,-24,-29
43,53,9,-48,17,31,-39,9,24,9,-29,-29
29,39,9,-34,9,24,-43,9,29,9,-39,-39
24,34,9,-29,7,21,-48,4,29,4,-48,-53
24,39,14,-31,4,26,-48,4,34,4,-48,-53
24,48,24,-36,0,36,-43,9,43,4,-48,-53
34,68,34,-51,0,51,-39,9,58,4,-53,-48
39,87,48,-63,-4,68,-29,9,68,4,-53,-43
29,78,48,-53,-9,63,-29,9,78,9,-63,-48
24,68,43,-46,-9,56,-34,9,82,9,-68,-53
9,68,58,-39,-24,63,-34,9,87,9,-73,-63
0,73,73,-36,-36,73,-24,14,97,9,-82,-63
9,73,63,-41,-26,68,-19,14,102,9,-82,-68
19,73,53,-46,-17,63,-19,19,107,9,-92,-73
14,78,63,-46,-24,70,-14,24,117,9,-92,-73
9,78,68,-43,-29,73,-9,24,122,9,-97,-82
9,78,68,-43,-29,73,-4,29,126,4,-97,-82
9,68,58,-39,-24,63,0,34,131,0,-97,-82
0,63,63,-31,-31,63,0,29,131,0,-97,-87
-4,53,58,-24,-31,56,4,34,131,4,-97,-87
0,43,43,-21,-21,43,4,34,131,4,-97,-87
-4,34,39,-14,-21,36,9,39,131,9,-92,-87
0,34,34,-17,-17,34,9,39,131,9,-87,-82
4,34,29,-19,-12,31,9,39,131,9,-78,-78
9,39,29,-24,-9,34,9,39,131,14,-63,-63
14,48,34,-31,-9,41,9,39,131,19,-48,-53
19,48,29,-34,-4,39,9,39,122,29,-34,-43
24,48,24,-36,0,36,9,39,117,39,-24,-29
29,39,9,-34,9,24,0,34,107,39,-9,-19
29,39,9,-34,9,24,-4,29,97,43,4,-4
39,39,0,-39,19,19,-4,29,87,48,19,4
43,39,-4,-41,24,17,-4,29,78,53,29,19
34,24,-9,-29,21,7,-14,14,68,58,39,24
19,14,-4,-17,12,4,-24,0,63,63,48,29
19,14,-4,-17,12,4,-24,0,58,58,58,34
24,19,-4,-21,14,7,-29,4,53,58,58,39
29,24,-4,-26,17,9,-29,4,48,63,68,48
29,24,-4,-26,17,9,-29,0,43,63,73,53
24,24,0,-24,12,12,-29,0,43,63,78,53
19,19,0,-19,9,9,-34,-9,34,58,82,58
14,19,4,-17,4,12,-34,-9,29,58,82,58
14,14,0,-14,7,7,-34,-9,19,58,82,58
14,9,-4,-12,9,2,-34,-9,19,58,82,58
14,9,-4,-12,9,2,-34,-9,19,58,82,58
14,9,-4,-12,9,2,-34,-9,14,53,78,58
14,9,-4,-12,9,2,-34,-9,9,53,73,58
19,14,-4,-17,12,4,-29,-4,9,48,73,58
19,14,-4,-17,12,4,-24,-4,9,48,68,58
24,14,-9,-19,17,2,-24,-4,4,48,73,53
29,14,-14,-21,21,0,-24,-4,4,43,78,53
14,4,-9,-9,12,-2,-24,-9,4,43,78,48
14,4,-9,-9,12,-2,-24,-9,0,43,68,48
14,4,-9,-9,12,-2,-24,-9,0,43,68,48
14,9,-4,-12,9,2,-29,-4,4,43,73,48
4,9,4,-7,0,7,-29,-4,0,43,68,48
-4,4,9,0,-7,7,-29,0,-4,43,63,48
4,4,0,-4,2,2,-29,0,0,43,63,48
14,9,-4,-12,9,2,-29,-4,0,43,63,48
14,9,-4,-12,9,2,-24,-4,-4,43,63,48
4,9,4,-7,0,7,-19,-4,-4,43,63,43
4,9,4,-7,0,7,-14,-4,-4,43,63,43
9,9,0,-9,4,4,-14,-9,-9,39,63,43
9,4,-4,-7,7,0,-19,-9,-9,39,58,43
9,0,-9,-4,9,-4,-19,-9,-9,34,58,43
9,4,-4,-7,7,0,-19,-4,-9,34,58,43
4,4,0,-4,2,2,-14,-4,-9,34,58,43
4,9,4,-7,0,7,-14,-4,-9,34,58,43
4,4,0,-4,2,2,-14,-4,-9,34,58,43
4,4,0,-4,2,2,-19,-4,-9,29,58,39
14,9,-4,-12,9,2,-19,0,-4,29,58,39
14,4,-9,-9,12,-2,-19,0,-4,29,53,39
14,0,-14,-7,14,-7,-19,0,-4,29,53,39
9,0,-9,-4,9,-4,-19,0,-9,29,53,34
4,-9,-14,2,9,-12,-19,0,-14,24,48,34
4,-9,-14,2,9,-12,-14,0,-14,24,39,34
4,-9,-14,2,9,-12,-14,0,-14,19,39,34
4,-9,-14,2,9,-12,-14,0,-14,19,43,29
9,-9,-19,0,14,-14,-14,0,-14,19,48,29
9,-4,-14,-2,12,-9,-14,0,-14,19,48,29
14,4,-9,-9,12,-2,-9,0,-14,19,48,29
4,0,-4,-2,4,-2,-19,-4,-19,14,43,29
-4,-9,-4,7,0,-7,-29,-9,-24,9,39,19
-14,-29,-14,21,0,-21,-34,-9,-24,4,29,14
-19,-39,-19,29,0,-29,-34,-9,-24,4,29,9
-14,-39,-24,26,4,-31,-29,-9,-24,0,29,9
-9,-34,-24,21,7,-29,-24,-9,-19,0,29,9
0,-24,-24,12,12,-24,-14,-9,-19,4,34,14
0,-9,-9,4,4,-9,-9,-9,-19,4,39,14
0,-4,-4,2,2,-4,-9,-4,-19,9,39,14
0,-4,-4,2,2,-4,-9,-4,-19,9,39,19
-14,-24,-9,19,-2,-17,-19,-14,-29,0,34,24
-29,-48,-19,39,-4,-34,-24,-29,-39,0,24,19
-19,-39,-19,29,0,-29,-24,-19,-29,0,24,14
-9,-24,-14,17,2,-19,-24,-9,-24,0,24,14
-9,-29,-19,19,4,-24,-19,-9,-19,0,24,19
-4,-29,-24,17,9,-26,-19,-19,-24,-4,24,19
-14,-34,-19,24,2,-26,-24,-19,-29,-4,19,14
-29,-39,-9,34,-9,-24,-29,-19,-39,-9,19,9
-19,-39,-19,29,0,-29,-24,-19,-39,-9,19,9
-9,-39,-29,24,9,-34,-19,-19,-39,-9,19,9
-4,-34,-29,19,12,-31,-14,-14,-34,-9,19,9
0,-29,-29,14,14,-29,-9,-9,-29,-9,19,9
0,-29,-29,14,14,-29,-9,-9,-29,-9,19,9
0,-29,-29,14,14,-29,-9,-9,-29,-9,19,9
0,-29,-29,14,14,-29,-14,-9,-34,-9,19,4
0,-29,-29,14,14,-29,-19,-9,-39,-9,19,0
0,-29,-29,14,14,-29,-19,-9,-39,-9,19,0
0,-29,-29,14,14,-29,-19,-9,-39,-9,19,0
-4,-34,-29,19,12,-31,-19,-9,-39,-9,14,0
-9,-39,-29,24,9,-34,-19,-9,-39,-9,9,0
-9,-39,-29,24,9,-34,-19,-9,-39,-9,9,0
-9,-39,-29,24,9,-34,-19,-9,-39,-9,9,0
-4,-39,-34,21,14,-36,-19,-9,-39,-9,9,0
0,-39,-39,19,19,-39,-19,-9,-39,-9,9,0
0,-39,-39,19,19,-39,-19,-9,-39,-14,4,0
0,-39,-39,19,19,-39,-19,-9,-39,-19,0,0
0,-39,-39,19,19,-39,-19,-9,-39,-19,0,0
0,-39,-39,19,19,-39,-19,-9,-39,-19,0,0
-4,-39,-34,21,14,-36,-19,-9,-39,-19,0,9
-9,-39,-29,24,9,-34,-19,-9,-39,-19,0,19
-9,-43,-34,26,12,-39,-19,-9,-39,-19,0,9
-9,-48,-39,29,14,-43,-19,-9,-39,-19,0,0
-9,-48,-39,29,14,-43,-19,-9,-39,-19,4,0
-9,-48,-39,29,14,-43,-19,-9,-39,-19,9,0
-4,-43,-39,24,17,-41,-14,-9,-39,-19,9,4
0,-39,-39,19,19,-39,-9,-9,-39,-19,9,9
0,-39,-39,19,19,-39,-9,-9,-39,-19,9,9
0,-39,-39,19,19,-39,-9,-9,-39,-19,9,9
-4,-39,-34,21,14,-36,-9,-9,-39,-19,9,9
-9,-39,-29,24,9,-34,-9,-9,-39,-19,9,9
-9,-39,-29,24,9,-34,-9,-9,-39,-19,9,9
-9,-39,-29,24,9,-34,-9,-9,-39,-19,9,9
-4,-39,-34,21,14,-36,-9,-9,-39,-19,9,9
0,-39,-39,19,19,-39,-9,-9,-39,-19,9,9
4,-34,-39,14,21,-36,-9,-9,-39,-19,9,9
9,-29,-39,9,24,-34,-9,-9,-39,-19,9,9
9,-29,-39,9,24,-34,-9,-4,-39,-19,9,9
9,-29,-39,9,24,-34,-9,0,-39,-19,9,9
19,-29,-48,4,34,-39,-9,0,-39,-19,9,9
29,-29,-58,0,43,-43,-9,0,-39,-19,9,9
14,-34,-48,9,31,-41,-9,-4,-39,-19,9,4
0,-39,-39,19,19,-39,-9,-9,-39,-19,9,0
-9,-43,-34,26,12,-39,-14,-9,-43,-19,4,0
-19,-48,-29,34,4,-39,-19,-9,-48,-19,0,0
-19,-48,-29,34,4,-39,-19,-9,-48,-24,0,0
-19,-48,-29,34,4,-39,-19,-9,-48,-29,0,0
-19,-48,-29,34,4,-39,-19,-9,-48,-29,0,0
-19,-48,-29,34,4,-39,-19,-9,-48,-29,0,0
-14,-48,-34,31,9,-41,-19,-9,-48,-29,0,0
-9,-48,-39,29,14,-43,-19,-9,-48,-29,0,0
-9,-48,-39,29,14,-43,-19,-9,-48,-29,4,0
-9,-48,-39,29,14,-43,-19,-9,-48,-29,9,0
-9,-48,-39,29,14,-43,-19,-9,-48,-29,9,0
-9,-48,-39,29,14,-43,-19,-9,-48,-29,9,0
-9,-43,-34,26,12,-39,-19,-9,-48,-29,9,0
-9,-39,-29,24,9,-34,-19,-9,-48,-29,9,0
0,-34,-34,17,17,-34,-14,-9,-48,-24,9,4
9,-29,-39,9,24,-34,-9,-9,-48,-19,9,9
9,-29,-39,9,24,-34,-9,-9,-48,-19,9,9
9,-29,-39,9,24,-34,-9,-9,-48,-19,9,9
4,-29,-34,12,19,-31,-9,-9,-48,-19,9,9
0,-29,-29,14,14,-29,-9,-9,-48,-19,9,9
-4,-34,-29,19,12,-31,-9,-9,-48,-19,9,9
-9,-39,-29,24,9,-34,-9,-9,-48,-19,9,9
-9,-39,-29,24,9,-34,-9,-9,-48,-19,9,9
-9,-39,-29,24,9,-34,-9,-9,-48,-19,9,9
-4,-39,-34,21,14,-36,-9,-9,-48,-19,9,9
0,-39,-39,19,19,-39,-9,-9,-48,-19,9,9
4,-34,-39,14,21,-36,-9,-9,-48,-19,9,9
9,-29,-39,9,24,-34,-9,-9,-48,-19,9,9
14,-29,-43,7,29,-36,-9,-9,-48,-19,9,9
19,-29,-48,4,34,-39,-9,-9,-48,-19,9,9
19,-29,-48,4,34,-39,-9,-9,-48,-19,9,9
19,-29,-48,4,34,-39,-9,-9,-48,-19,9,9
19,-24,-43,2,31,-34,-9,-9,-48,-19,9,9
19,-19,-39,0,29,-29,-9,-9,-48,-19,9,9
34,-9,-43,-12,39,-26,-9,-4,-48,-14,14,14
48,0,-48,-24,48,-24,-9,0,-48,-9,19,19
39,0,-39,-19,39,-19,-9,0,-48,-9,19,19
29,0,-29,-14,29,-14,-9,0,-48,-9,19,19
-4,-29,-24,17,9,-26,-19,-9,-58,-19,9,9
-39,-58,-19,48,-9,-39,-29,-19,-68,-29,0,0
-24,-48,-24,36,0,-36,-29,-19,-68,-29,0,0
-9,-39,-29,24,9,-34,-29,-19,-68,-29,0,0
-4,-29,-24,17,9,-26,-29,-19,-63,-24,4,4
0,-19,-19,9,9,-19,-29,-19,-58,-19,9,9
0,-19,-19,9,9,-19,-29,-19,-58,-19,9,9
0,-19,-19,9,9,-19,-29,-19,-58,-19,9,9
4,-19,-24,7,14,-21,-29,-19,-58,-24,4,9
9,-19,-29,4,19,-24,-29,-19,-58,-29,0,9
9,-14,-24,2,17,-19,-29,-19,-58,-29,0,9
9,-4,-14,-2,12,-9,-29,-19,-58,-29,0,4
9,0,-9,-4,9,-4,-29,-19,-63,-29,0,4
9,0,-9,-4,9,-4,-34,-24,-68,-29,0,4
-4,4,9,0,-7,7,-34,-24,-63,-29,-4,0
-19,9,29,4,-24,19,-29,-24,-53,-14,-4,9
9,24,14,-17,-2,19,-24,-24,-43,-9,4,9
24,53,29,-39,-2,41,-19,-24,-24,4,19,24
29,68,39,-48,-4,53,-14,-19,-9,14,34,39
29,78,48,-53,-9,63,-14,-9,0,24,39,39
29,78,48,-53,-9,63,-19,-9,0,24,39,39
34,68,34,-51,0,51,-24,-9,-4,19,34,39
39,68,29,-53,4,48,-34,-14,-4,19,34,39
58,82,24,-70,17,53,-48,-19,-4,29,43,43
78,97,19,-87,29,58,-63,-29,-14,29,48,48
92,107,14,-100,39,61,-82,-39,-24,24,58,53
112,107,-4,-109,58,51,-92,-48,-34,14,58,53
107,87,-19,-97,63,34,-97,-48,-53,-4,34,43
97,63,-34,-80,65,14,-97,-53,-78,-14,24,34
87,63,-24,-75,56,19,-97,-58,-82,-19,24,29
92,73,-19,-82,56,26,-97,-58,-82,-24,19,24
112,82,-29,-97,70,26,-97,-53,-92,-29,14,24
122,73,-48,-97,85,12,-92,-48,-107,-39,9,24
122,68,-53,-95,87,7,-87,-43,-107,-43,9,24
107,68,-39,-87,73,14,-82,-43,-107,-43,9,24
97,68,-29,-82,63,19,-78,-43,-102,-39,9,24
107,78,-29,-92,68,24,-78,-43,-97,-39,9,24
97,82,-14,-90,56,34,-68,-34,-87,-24,14,29
87,73,-14,-80,51,29,-58,-29,-73,-19,19,34
39,48,9,-43,14,29,-43,-14,-63,-14,24,29
14,14,0,-14,7,7,-19,-9,-63,-29,4,9
14,4,-9,-9,12,-2,-9,-9,-73,-34,-4,-4
0,0,0,0,0,0,-9,-19,-78,-43,-19,-14
-4,-14,-9,9,2,-12,-9,-24,-78,-48,-24,-24
-4,-14,-9,9,2,-12,-14,-24,-82,-53,-24,-24
-9,-14,-4,12,-2,-9,-19,-19,-87,-53,-24,-24
-9,-9,0,9,-4,-4,-19,-19,-87,-53,-24,-24
0,-9,-9,4,4,-9,-19,-19,-87,-58,-24,-24
0,-9,-9,4,4,-9,-19,-19,-87,-58,-24,-24
0,-4,-4,2,2,-4,-19,-19,-87,-53,-19,-24
0,-4,-4,2,2,-4,-19,-19,-87,-53,-19,-19
-4,-4,0,4,-2,-2,-24,-19,-87,-53,-19,-19
-9,-4,4,7,-7,0,-24,-19,-87,-43,-19,-14
-14,-9,4,12,-9,-2,-24,-19,-87,-43,-19,-9
-4,-9,-4,7,0,-7,-29,-19,-92,-43,-19,-9
9,-9,-19,0,14,-14,-39,-34,-92,-34,0,4
14,0,-14,-7,14,-7,-43,-43,-78,-19,19,14
14,39,24,-26,-4,31,-48,-58,-34,48,87,58
48,122,73,-85,-12,97,-73,-78,48,200,239,180
73,248,175,-161,-51,212,-112,-112,161,419,473,385
126,424,297,-275,-85,361,-170,-131,341,741,829,678
190,624,434,-407,-122,529,-219,-151,527,1073,1190,961
253,805,551,-529,-148,678,-253,-151,683,1337,1483,1220
292,946,653,-619,-180,800,-263,-156,761,1424,1600,1346
268,897,629,-583,-180,763,-234,-156,663,1161,1346,1195
170,614,444,-392,-136,529,-141,-151,307,444,600,668
19,151,131,-85,-56,141,4,-107,-63,-302,-219,-4
-68,-180,-112,124,21,-146,112,-29,-239,-663,-668,-405
-180,-370,-190,275,4,-280,204,39,-268,-741,-819,-585
-326,-492,-165,409,-80,-329,317,107,-234,-741,-858,-678
-463,-536,-73,500,-195,-305,385,126,-165,-688,-834,-697
-566,-541,24,553,-295,-258,424,126,-78,-556,-732,-653
-580,-502,78,541,-329,-212,414,131,-9,-453,-619,-585
-536,-458,78,497,-307,-190,405,136,19,-400,-556,-536
-507,-409,97,458,-302,-156,405,165,63,-336,-488,-478
-497,-395,102,446,-300,-146,444,209,112,-297,-448,-444
-507,-390,117,448,-312,-136,483,239,180,-248,-409,-414
-512,-361,151,436,-331,-104,497,224,200,-200,-366,-370
-488,-326,161,407,-324,-82,497,204,204,-185,-312,-322
-444,-307,136,375,-290,-85,478,170,170,-185,-292,-292
-405,-283,122,344,-263,-80,463,141,136,-180,-268,-268
-361,-263,97,312,-229,-82,444,126,92,-175,-244,-239
-341,-263,78,302,-209,-92,414,112,29,-175,-224,-219
-307,-258,48,283,-178,-104,375,82,-39,-195,-219,-219
-278,-258,19,268,-148,-119,336,73,-73,-190,-214,-200
-244,-234,9,239,-126,-112,287,58,-78,-180,-190,-180
-204,-200,4,202,-104,-97,253,58,-87,-156,-165,-156
-165,-165,0,165,-82,-82,214,53,-87,-141,-141,-136
-122,-122,0,122,-61,-61,170,48,-78,-117,-122,-117
-92,-92,0,92,-46,-46,126,34,-68,-102,-97,-102
-58,-68,-9,63,-24,-39,78,19,-68,-78,-78,-82
-34,-48,-14,41,-9,-31,48,9,-68,-68,-68,-78
-14,-34,-19,24,2,-26,24,4,-68,-63,-58,-68
-4,-19,-14,12,4,-17,14,4,-73,-63,-58,-68
0,-19,-19,9,9,-19,0,0,-78,-63,-58,-63
14,-9,-24,-2,19,-17,-4,-4,-78,-58,-53,-63
4,-14,-19,4,12,-17,-9,-4,-78,-58,-58,-58
-4,-19,-14,12,4,-17,-14,-9,-73,-58,-53,-58
-4,-24,-19,14,7,-21,-14,-9,-73,-58,-53,-58
-9,-29,-19,19,4,-24,-14,-9,-78,-58,-58,-58
-14,-34,-19,24,2,-26,-14,-9,-78,-58,-58,-58
-14,-34,-19,24,2,-26,-14,-9,-78,-58,-58,-58
-4,-24,-19,14,7,-21,-19,-9,-78,-58,-53,-53
0,-19,-19,9,9,-19,-19,-4,-78,-58,-53,-53
0,-19,-19,9,9,-19,-14,-4,-78,-53,-53,-53
0,-19,-19,9,9,-19,-14,-4,-78,-53,-53,-53
-9,-24,-14,17,2,-19,-14,-4,-73,-53,-48,-53
-19,-24,-4,21,-7,-14,-9,-4,-73,-53,-48,-53
-4,-24,-19,14,7,-21,-4,4,-73,-48,-48,-48
4,-24,-29,9,17,-26,-4,9,-73,-48,-48,-48
4,-19,-24,7,14,-21,-9,4,-78,-53,-53,-48
4,-19,-24,7,14,-21,-14,0,-78,-53,-58,-48
-4,-19,-14,12,4,-17,-14,-4,-78,-53,-58,-48
-4,-19,-14,12,4,-17,-9,-4,-78,-53,-58,-48
-4,-29,-24,17,9,-26,-9,-4,-73,-53,-68,-53
0,-24,-24,12,12,-24,-9,0,-73,-53,-78,-58
4,-14,-19,4,12,-17,-14,0,-73,-53,-78,-63
4,-9,-14,2,9,-12,-14,0,-73,-53,-78,-68
9,-4,-14,-2,12,-9,-9,4,-73,-53,-73,-63
14,-4,-19,-4,17,-12,-9,9,-73,-48,-73,-63
14,0,-14,-7,14,-7,-14,9,-68,-48,-73,-68
4,0,-4,-2,4,-2,-19,9,-68,-53,-73,-68
0,-4,-4,2,2,-4,-19,4,-68,-53,-78,-68
-4,-9,-4,7,0,-7,-14,0,-68,-53,-82,-68
-4,-9,-4,7,0,-7,-14,0,-68,-53,-87,-73
0,-9,-9,4,4,-9,-14,0,-63,-53,-87,-73
0,-4,-4,2,2,-4,-14,0,-63,-53,-87,-78
0,-4,-4,2,2,-4,-29,0,-63,-53,-92,-82
9,4,-4,-7,7,0,-29,0,-63,-53,-97,-78
14,9,-4,-12,9,2,-24,0,-58,-53,-102,-78
19,14,-4,-17,12,4,-24,0,-58,-48,-97,-78
24,29,4,-26,9,17,-24,0,-53,-43,-92,-73
29,39,9,-34,9,24,-24,4,-53,-43,-92,-73
29,39,9,-34,9,24,-24,4,-43,-39,-92,-73
24,34,9,-29,7,21,-24,0,-39,-39,-92,-63
19,34,14,-26,2,24,-29,-4,-39,-39,-92,-58
14,34,19,-24,-2,26,-29,-4,-39,-39,-87,-58
14,43,29,-29,-7,36,-34,-4,-34,-34,-82,-53
14,53,39,-34,-12,46,-34,-9,-19,-34,-82,-53
9,63,53,-36,-21,58,-34,-14,-14,-34,-78,-48
19,73,53,-46,-17,63,-34,-14,-4,-29,-78,-48
19,82,63,-51,-21,73,-39,-14,-4,-29,-82,-48
9,82,73,-46,-31,78,-43,-14,-4,-29,-82,-48
0,82,82,-41,-41,82,-43,-19,-4,-29,-82,-48
0,87,87,-43,-43,87,-43,-19,0,-34,-82,-48
14,97,82,-56,-34,90,-48,-19,9,-34,-82,-48
14,112,97,-63,-41,104,-48,-19,9,-29,-92,-48
0,102,102,-51,-51,102,-48,-19,14,-29,-102,-53
-4,112,117,-53,-61,114,-48,-24,19,-34,-107,-63
-4,126,131,-61,-68,129,-48,-24,24,-34,-107,-63
-4,136,141,-65,-73,139,-43,-19,34,-34,-107,-63
0,146,146,-73,-73,146,-43,-19,43,-34,-112,-63
4,156,151,-80,-73,153,-43,-24,48,-39,-112,-63
0,156,156,-78,-78,156,-48,-29,58,-39,-122,-68
-4,156,161,-75,-82,158,-53,-29,63,-39,-126,-73
-9,156,165,-73,-87,161,-53,-29,68,-39,-131,-82
-9,165,175,-78,-92,170,-43,-19,78,-39,-141,-82
-9,170,180,-80,-95,175,-39,-14,82,-39,-141,-87
0,170,170,-85,-85,170,-39,-9,87,-39,-151,-92
4,170,165,-87,-80,168,-34,-4,97,-39,-151,-92
-14,161,175,-73,-95,168,-29,-4,102,-43,-161,-107
-29,156,185,-63,-107,170,-24,0,107,-48,-165,-112
-39,141,180,-51,-109,161,-19,4,112,-48,-165,-112
-53,136,190,-41,-122,163,-19,4,117,-48,-165,-117
-39,131,170,-46,-104,151,-14,14,122,-43,-165,-117
-14,126,141,-56,-78,134,-14,14,122,-43,-165,-117
-14,122,136,-53,-75,129,-4,19,126,-34,-161,-117
-9,122,131,-56,-70,126,0,19,131,-29,-156,-112
0,122,122,-61,-61,122,0,24,131,-29,-146,-112
4,112,107,-58,-51,109,0,29,126,-24,-136,-107
4,107,102,-56,-48,104,0,29,122,-19,-126,-102
9,107,97,-58,-43,102,0,29,112,-9,-112,-92
9,97,87,-53,-39,92,0,29,102,0,-102,-78
9,78,68,-43,-29,73,-9,24,87,0,-87,-68
9,78,68,-43,-29,73,-14,19,78,4,-73,-53
19,78,58,-48,-19,68,-14,19,73,9,-58,-43
29,87,58,-58,-14,73,-14,19,73,19,-43,-29
39,92,53,-65,-7,73,-19,9,68,29,-24,-19
39,92,53,-65,-7,73,-24,0,63,39,-9,-4
39,92,53,-65,-7,73,-24,0,53,43,0,9
43,97,53,-70,-4,75,-29,4,48,48,4,19
48,97,48,-73,0,73,-29,4,48,53,19,29
48,92,43,-70,2,68,-29,0,43,53,24,34
48,92,43,-70,2,68,-29,0,43,53,29,34
48,87,39,-68,4,63,-34,-9,34,48,34,39
43,87,43,-65,0,65,-34,-9,29,48,34,39
53,82,29,-68,12,56,-34,-4,24,53,39,39
63,78,14,-70,24,46,-34,0,29,58,43,39
53,73,19,-63,17,46,-34,0,29,58,43,39
43,68,24,-56,9,46,-34,0,29,53,43,39
43,68,24,-56,9,46,-34,-4,29,53,43,39
43,68,24,-56,9,46,-34,-4,29,48,43,39
43,68,24,-56,9,46,-34,-4,29,48,39,39
48,73,24,-61,12,48,-34,-4,24,48,39,34
48,73,24,-61,12,48,-39,-4,24,43,39,34
34,63,29,-48,2,46,-43,-9,24,43,39,29
34,63,29,-48,2,46,-43,-9,19,43,29,29
39,63,24,-51,7,43,-39,-9,19,43,29,29
43,68,24,-56,9,46,-34,-4,24,43,34,29
43,68,24,-56,9,46,-29,-4,24,43,34,29
43,63,19,-53,12,41,-29,0,24,43,29,29
43,63,19,-53,12,41,-29,0,29,43,24,29
43,68,24,-56,9,46,-29,-4,29,43,24,29
43,68,24,-56,9,46,-29,-4,24,43,24,29
29,58,29,-43,0,43,-29,-4,24,43,24,24
24,48,24,-36,0,36,-24,-4,24,43,24,24
29,48,19,-39,4,34,-24,-9,19,39,24,24
29,48,19,-39,4,34,-29,-9,19,39,19,24
39,48,9,-43,14,29,-29,-9,24,34,19,24
48,53,4,-51,21,29,-29,-4,29,34,19,24
34,53,19,-43,7,36,-24,-4,29,34,19,24
19,53,34,-36,-7,43,-24,-4,24,34,19,24
14,43,29,-29,-7,36,-24,-4,14,34,19,29
14,43,29,-29,-7,36,-29,-9,9,29,19,29
24,48,24,-36,0,36,-29,-9,14,29,19,29
24,48,24,-36,0,36,-29,-9,14,29,14,29
24,53,29,-39,-2,41,-29,-9,14,34,19,29
19,58,39,-39,-9,48,-29,-9,9,34,24,24
14,53,39,-34,-12,46,-34,-14,4,24,24,24
14,58,43,-36,-14,51,-34,-19,4,24,19,24
14,58,43,-36,-14,51,-34,-19,4,19,19,24
14,58,43,-36,-14,51,-34,-19,4,19,19,19
24,63,39,-43,-7,51,-34,-19,9,19,19,19
29,63,34,-46,-2,48,-34,-19,14,19,19,19
34,63,29,-48,2,46,-29,-19,14,19,19,24
34,68,34,-51,0,51,-29,-19,9,14,14,29
34,68,34,-51,0,51,-29,-19,4,9,9,19
24,48,24,-36,0,36,-34,-19,0,4,0,14
19,29,9,-24,4,19,-29,-14,-4,4,0,9
19,19,0,-19,9,9,-24,-9,-4,0,0,9
14,24,9,-19,2,17,-24,-9,-4,0,-4,4
19,24,4,-21,7,14,-19,-9,-9,4,-9,4
19,29,9,-24,4,19,-24,-14,-9,4,-9,4
19,34,14,-26,2,24,-29,-14,-9,9,-9,4
19,34,14,-26,2,24,-29,-14,-4,9,-9,9
14,34,19,-24,-2,26,-34,-14,0,0,-9,9
14,29,14,-21,0,21,-29,-14,0,-4,-14,0
19,24,4,-21,7,14,-24,-9,0,-9,-14,-4
19,24,4,-21,7,14,-24,-9,-4,-9,-14,-4
19,19,0,-19,9,9,-24,-14,-9,-9,-14,0
9,19,9,-14,0,14,-29,-14,-9,-14,-9,0
0,19,19,-9,-9,19,-34,-14,-14,-19,-9,0
0,14,14,-7,-7,14,-34,-14,-14,-19,-9,0
0,9,9,-4,-4,9,-39,-19,-19,-19,-9,0
9,19,9,-14,0,14,-34,-19,-19,-19,-9,0
19,29,9,-24,4,19,-29,-19,-19,-19,-9,0
19,29,9,-24,4,19,-29,-19,-14,-9,0,0
19,29,9,-24,4,19,-29,-19,-9,0,9,0
19,29,9,-24,4,19,-29,-19,-9,-9,0,0
19,29,9,-24,4,19,-29,-19,-9,-19,-9,0
19,24,4,-21,7,14,-29,-19,-14,-19,-9,0
19,19,0,-19,9,9,-29,-19,-19,-19,-9,0
14,19,4,-17,4,12,-29,-19,-19,-19,-4,0
9,19,9,-14,0,14,-29,-19,-19,-19,0,0
9,24,14,-17,-2,19,-29,-19,-19,-19,0,0
9,29,19,-19,-4,24,-29,-19,-19,-19,0,0
9,29,19,-19,-4,24,-29,-19,-19,-19,0,0
9,29,19,-19,-4,24,-29,-19,-19,-19,0,0
9,24,14,-17,-2,19,-29,-19,-19,-14,0,0
9,19,9,-14,0,14,-29,-19,-19,-9,0,0
19,19,0,-19,9,9,-24,-14,-19,-9,-4,0
29,19,-9,-24,19,4,-19,-9,-19,-9,-9,0
39,24,-14,-31,26,4,-19,-9,-19,-9,-9,0
48,29,-19,-39,34,4,-19,-9,-19,-9,-9,0
34,29,-4,-31,19,12,-24,-14,-19,-9,0,4
19,29,9,-24,4,19,-29,-19,-19,-9,9,9
0,14,14,-7,-7,14,-34,-19,-24,-9,9,9
-19,0,19,9,-19,9,-39,-19,-29,-9,9,9
0,24,24,-12,-12,24,-39,-19,-29,-9,19,9
19,48,29,-34,-4,39,-39,-19,-29,-9,29,9
19,48,29,-34,-4,39,-34,-19,-24,-9,14,9
19,48,29,-34,-4,39,-29,-19,-19,-9,0,9
19,29,9,-24,4,19,-24,-14,-19,-9,0,4
19,9,-9,-14,14,0,-19,-9,-19,-9,0,0
19,0,-19,-9,19,-9,-19,-9,-19,-9,-9,0
19,-9,-29,-4,24,-19,-19,-9,-19,-9,-19,0
19,0,-19,-9,19,-9,-19,-9,-19,-9,0,4
19,9,-9,-14,14,0,-19,-9,-19,-9,19,9
19,19,0,-19,9,9,-19,-9,-19,0,19,9
19,29,9,-24,4,19,-19,-9,-19,9,19,9
19,14,-4,-17,12,4,-19,-9,-24,-4,9,4
19,0,-19,-9,19,-9,-19,-9,-29,-19,0,0
19,9,-9,-14,14,0,-19,-9,-29,-19,0,0
19,19,0,-19,9,9,-19,-9,-29,-19,0,0
24,19,-4,-21,14,7,-14,-4,-24,-14,4,0
29,19,-9,-24,19,4,-9,0,-19,-9,9,0
29,19,-9,-24,19,4,-9,0,-19,-4,14,4
29,19,-9,-24,19,4,-9,0,-19,0,19,9
29,24,-4,-26,17,9,-9,0,-19,0,19,9
29,29,0,-29,14,14,-9,0,-19,0,19,9
29,29,0,-29,14,14,-9,0,-19,0,19,9
29,29,0,-29,14,14,-9,0,-19,0,19,9
24,29,4,-26,9,17,-9,0,-19,0,19,9
19,29,9,-24,4,19,-9,0,-19,0,19,9
14,9,-4,-12,9,2,-9,-4,-24,-4,14,0
9,-9,-19,0,14,-14,-9,-9,-29,-9,9,-9
9,-9,-19,0,14,-14,-9,-9,-29,-9,-4,-9
9,-9,-19,0,14,-14,-9,-9,-29,-9,-19,-9
9,9,0,-9,4,4,-9,-9,-29,9,14,4
9,29,19,-19,-4,24,-9,-9,-29,29,48,19
9,9,0,-9,4,4,-9,-4,-29,19,34,19
9,-9,-19,0,14,-14,-9,0,-29,9,19,19
14,0,-14,-7,14,-7,-14,0,-29,9,19,14
19,9,-9,-14,14,0,-19,0,-29,9,19,9
39,19,-19,-29,29,0,-19,0,-29,9,19,9
58,29,-29,-43,43,0,-19,0,-29,9,19,9
29,14,-14,-21,21,0,-24,-9,-29,9,19,9
0,0,0,0,0,0,-29,-19,-29,9,19,9
9,14,4,-12,2,9,-29,-19,-24,9,19,9
19,29,9,-24,4,19,-29,-19,-19,9,19,9
19,29,9,-24,4,19,-19,-9,-19,4,14,9
19,29,9,-24,4,19,-9,0,-19,0,9,9
19,9,-9,-14,14,0,-9,0,-24,0,4,0
19,-9,-29,-4,24,-19,-9,0,-29,0,0,-9
19,-9,-29,-4,24,-19,-9,0,-29,0,0,-9
19,-9,-29,-4,24,-19,-9,0,-29,0,0,-9
19,4,-14,-12,17,-4,-14,-4,-24,4,4,0
19,19,0,-19,9,9,-19,-9,-19,9,9,9
19,19,0,-19,9,9,-19,-9,-19,19,29,24
19,19,0,-19,9,9,-19,-9,-19,29,48,39
19,19,0,-19,9,9,-19,-9,-19,19,29,24
19,19,0,-19,9,9,-19,-9,-19,9,9,9
14,9,-4,-12,9,2,-19,-9,-24,4,4,4
9,0,-9,-4,9,-4,-19,-9,-29,0,0,0
9,0,-9,-4,9,-4,-19,-9,-29,0,0,0
9,0,-9,-4,9,-4,-19,-9,-29,0,0,0
14,0,-14,-7,14,-7,-14,-4,-24,4,0,0
19,0,-19,-9,19,-9,-9,0,-19,9,0,0
19,0,-19,-9,19,-9,-9,0,-19,9,0,0
19,0,-19,-9,19,-9,-9,0,-19,9,0,0
19,0,-19,-9,19,-9,-14,0,-19,9,0,4
19,0,-19,-9,19,-9,-19,0,-19,9,0,9
19,9,-9,-14,14,0,-19,0,-14,19,9,9
19,19,0,-19,9,9,-19,0,-9,29,19,9
14,19,4,-17,4,12,-14,0,-4,29,19,9
9,19,9,-14,0,14,-9,0,0,29,19,9
9,24,14,-17,-2,19,-9,0,9,34,24,19
9,29,19,-19,-4,24,-9,0,19,39,29,29
9,34,24,-21,-7,29,-9,4,34,53,39,34
9,39,29,-24,-9,34,-9,9,48,68,48,39
19,43,24,-31,-2,34,-9,9,48,68,48,39
29,48,19,-39,4,34,-9,9,48,68,48,39
43,58,14,-51,14,36,-14,9,48,73,53,43
58,68,9,-63,24,39,-19,9,48,78,58,48
73,78,4,-75,34,41,-39,-4,48,78,58,53
87,87,0,-87,43,43,-58,-19,48,78,58,58
87,87,0,-87,43,43,-63,-24,34,68,53,58
87,87,0,-87,43,43,-68,-29,19,58,48,58
87,73,-14,-80,51,29,-68,-29,4,48,43,58
87,58,-29,-73,58,14,-68,-29,-9,39,39,58
92,68,-24,-80,58,21,-68,-29,-19,34,39,58
97,78,-19,-87,58,29,-68,-29,-29,29,39,58
117,78,-39,-97,78,19,-68,-24,-29,29,34,58
136,78,-58,-107,97,9,-68,-19,-29,29,29,58
122,73,-48,-97,85,12,-58,-19,-29,29,29,58
107,68,-39,-87,73,14,-48,-19,-29,29,29,58
97,63,-34,-80,65,14,-43,-19,-19,29,29,58
87,58,-29,-73,58,14,-39,-19,-9,29,29,58
48,43,-4,-46,26,19,-24,-9,0,39,34,58
9,29,19,-19,-4,24,-9,0,9,48,39,58
9,29,19,-19,-4,24,-9,0,9,48,39,58
