I, II, III, aVR, aVL, aVF, V1, V2, V3, V4, V5, V6
-39,-97,-58,68,9,-78,-19,-102,-165,-161,-117,-87
-43,-92,-48,68,2,-70,-19,-102,-156,-151,-112,-82
-43,-82,-39,63,-2,-61,-19,-102,-141,-141,-107,-78
-43,-78,-34,61,-4,-56,-19,-102,-141,-131,-102,-73
-39,-73,-34,56,-2,-53,-19,-102,-141,-126,-102,-73
-34,-73,-39,53,2,-56,-24,-107,-146,-131,-102,-73
-29,-82,-53,56,12,-68,-43,-117,-156,-136,-107,-73
-29,-97,-68,63,19,-82,-48,-126,-165,-156,-126,-97
-29,-126,-97,78,34,-112,-39,-107,-170,-180,-165,-136
-34,-141,-107,87,36,-124,-14,-63,-141,-195,-214,-190
-24,-156,-131,90,53,-143,19,14,-112,-204,-239,-224
-29,-185,-156,107,63,-170,58,151,-48,-175,-244,-248
39,-151,-190,56,114,-170,39,234,48,-73,-141,-165
175,-68,-244,-53,209,-156,-58,244,102,97,63,34
283,73,-209,-178,246,-68,-209,97,102,244,297,278
356,317,-39,-336,197,139,-405,-180,102,405,551,531
400,590,190,-495,104,390,-580,-468,92,570,795,785
512,868,356,-690,78,612,-766,-727,63,795,1137,1156
561,1107,546,-834,7,827,-985,-1151,-136,844,1376,1478
292,1039,746,-666,-226,893,-1049,-1688,-590,444,1180,1464
9,639,629,-324,-309,634,-1019,-2010,-1083,-190,644,1107
-48,-34,14,41,-31,-9,-863,-1888,-1493,-810,14,580
-126,-322,-195,224,34,-258,-673,-1620,-1522,-1073,-380,185
-92,-287,-195,190,51,-241,-546,-1137,-1273,-995,-448,43
-58,-180,-122,119,31,-151,-395,-756,-927,-741,-366,9
-48,-141,-92,95,21,-117,-268,-531,-619,-512,-278,-34
-34,-146,-112,90,39,-129,-156,-307,-385,-331,-200,-63
-34,-156,-122,95,43,-139,-29,-58,-195,-180,-131,-82
-39,-146,-107,92,34,-126,39,68,-68,-87,-87,-82
-39,-136,-97,87,29,-117,68,78,-14,-34,-68,-73
-39,-112,-73,75,17,-92,73,87,14,-19,-43,-58
-39,-87,-48,63,4,-68,73,87,14,-9,-34,-53
-39,-78,-39,58,0,-58,73,97,24,0,-29,-53
-39,-78,-39,58,0,-58,78,97,29,0,-29,-58
-43,-78,-34,61,-4,-56,82,97,34,9,-29,-63
-43,-87,-43,65,0,-65,82,102,34,-4,-29,-63
-43,-92,-48,68,2,-70,82,112,29,-9,-34,-68
-29,-92,-63,61,17,-78,82,112,29,-9,-34,-68
-24,-92,-68,58,21,-80,87,112,34,-4,-34,-68
-24,-87,-63,56,19,-75,87,112,43,4,-34,-68
-24,-82,-58,53,17,-70,87,117,43,4,-39,-68
-29,-82,-53,56,12,-68,87,122,43,4,-39,-68
-29,-82,-53,56,12,-68,87,122,48,4,-39,-68
-29,-82,-53,56,12,-68,87,122,58,4,-39,-68
-29,-73,-43,51,7,-58,87,122,63,4,-34,-68
-34,-78,-43,56,4,-61,87,126,63,9,-29,-63
-34,-78,-43,56,4,-61,92,126,63,14,-24,-58
-34,-82,-48,58,7,-65,92,131,68,19,-24,-58
-29,-78,-48,53,9,-63,92,136,68,19,-24,-58
-24,-73,-48,48,12,-61,92,141,73,24,-19,-63
-24,-73,-48,48,12,-61,87,146,73,29,-19,-68
-24,-73,-48,48,12,-61,87,141,78,24,-19,-68
-24,-78,-53,51,14,-65,92,141,82,24,-24,-68
-29,-87,-58,58,14,-73,97,151,82,19,-24,-68
-29,-87,-58,58,14,-73,97,151,78,19,-24,-68
-39,-97,-58,68,9,-78,97,156,82,19,-19,-63
-53,-107,-53,80,0,-80,97,161,87,24,-19,-63
-29,-87,-58,58,14,-73,102,165,97,39,-14,-58
-9,-78,-68,43,29,-73,102,170,112,53,-9,-53
-4,-82,-78,43,36,-80,102,175,117,58,-4,-48
-4,-82,-78,43,36,-80,107,185,126,58,4,-48
-9,-78,-68,43,29,-73,107,185,131,63,4,-53
-14,-78,-63,46,24,-70,107,190,141,68,9,-53
-14,-82,-68,48,26,-75,107,195,141,68,9,-58
-14,-87,-73,51,29,-80,107,200,146,68,9,-63
-14,-92,-78,53,31,-85,107,209,151,73,9,-58
-14,-92,-78,53,31,-85,112,214,156,78,9,-58
-14,-82,-68,48,26,-75,112,219,161,87,19,-58
-14,-68,-53,41,19,-61,112,219,175,97,24,-58
-9,-58,-48,34,19,-53,112,224,180,107,29,-43
-4,-53,-48,29,21,-51,112,229,190,107,34,-34
0,-48,-48,24,24,-48,117,239,200,122,34,-43
0,-48,-48,24,24,-48,117,244,204,126,34,-53
0,-53,-53,26,26,-53,117,248,200,126,34,-53
0,-58,-58,29,29,-58,117,253,209,131,34,-53
0,-58,-58,29,29,-58,122,253,209,136,43,-53
0,-53,-53,26,26,-53,122,263,224,146,53,-48
0,-43,-43,21,21,-43,122,268,239,156,58,-43
-4,-39,-34,21,14,-36,122,283,253,161,63,-39
4,-29,-34,12,19,-31,122,283,258,175,68,-34
4,-19,-24,7,14,-21,122,292,273,190,78,-29
0,-14,-14,7,7,-14,122,297,283,195,78,-29
0,-9,-9,4,4,-9,126,302,292,200,78,-29
0,-9,-9,4,4,-9,131,307,302,204,82,-24
0,-4,-4,2,2,-4,131,317,312,214,92,-24
0,-4,-4,2,2,-4,131,326,322,224,92,-29
4,-4,-9,0,7,-7,136,331,331,234,92,-34
19,0,-19,-9,19,-9,141,346,346,244,97,-34
34,0,-34,-17,34,-17,141,361,356,248,97,-34
19,4,-14,-12,17,-4,151,370,370,258,107,-29
9,9,0,-9,4,4,161,380,380,263,117,-29
4,14,9,-9,-2,12,161,390,395,278,117,-24
0,24,24,-12,-12,24,170,405,409,287,122,-14
0,29,29,-14,-14,29,170,409,419,297,131,-14
0,29,29,-14,-14,29,165,409,429,297,136,-24
0,9,9,-4,-4,9,170,424,439,302,131,-29
0,-4,-4,2,2,-4,180,434,448,312,131,-34
4,9,4,-7,0,7,185,444,458,322,131,-34
9,24,14,-17,-2,19,185,448,468,336,131,-34
9,24,14,-17,-2,19,195,458,473,326,126,-39
9,24,14,-17,-2,19,195,463,478,322,126,-39
9,19,9,-14,0,14,195,463,483,326,126,-34
14,19,4,-17,4,12,195,468,483,326,126,-29
14,19,4,-17,4,12,200,483,492,346,136,-29
9,19,9,-14,0,14,200,488,492,361,141,-29
9,19,9,-14,0,14,195,488,492,346,141,-34
14,24,9,-19,2,17,195,478,488,331,141,-34
14,29,14,-21,0,21,185,468,483,331,141,-29
24,34,9,-29,7,21,175,453,473,331,141,-29
24,39,14,-31,4,26,170,439,458,317,141,-24
19,43,24,-31,-2,34,165,419,439,307,141,-19
14,48,34,-31,-9,41,156,400,424,312,141,-4
9,48,39,-29,-14,43,146,380,405,307,141,9
9,48,39,-29,-14,43,136,351,375,292,141,14
9,48,39,-29,-14,43,117,326,346,278,136,19
9,39,29,-24,-9,34,102,287,307,239,122,24
9,24,14,-17,-2,19,82,253,268,200,112,24
9,24,14,-17,-2,19,63,214,244,185,112,19
9,34,24,-21,-7,29,48,190,214,170,107,24
14,43,29,-29,-7,36,34,151,185,151,102,34
14,53,39,-34,-12,46,19,112,161,136,92,39
14,53,39,-34,-12,46,24,97,136,117,87,39
4,43,39,-24,-17,41,19,78,117,97,78,34
4,29,24,-17,-9,26,9,53,87,73,63,34
4,24,19,-14,-7,21,4,39,68,58,58,34
9,14,4,-12,2,9,0,24,43,39,48,34
14,14,0,-14,7,7,-9,9,34,34,39,29
4,24,19,-14,-7,21,-14,-4,29,24,39,24
4,34,29,-19,-12,31,-19,-9,4,14,29,24
9,34,24,-21,-7,29,-24,-24,0,9,24,24
9,34,24,-21,-7,29,-24,-29,0,4,24,24
4,14,9,-9,-2,12,-24,-29,-14,-9,14,19
0,0,0,0,0,0,-24,-34,-39,-14,9,19
0,-14,-14,7,7,-14,-24,-34,-29,-14,9,24
-4,-14,-9,9,2,-12,-34,-34,-19,-14,9,24
-9,-9,0,9,-4,-4,-34,-43,-24,-14,4,24
-14,0,14,7,-14,7,-29,-48,-24,-14,4,24
-14,0,14,7,-14,7,-29,-48,-24,-14,4,19
-9,0,9,4,-9,4,-29,-48,-24,-14,0,14
-9,0,9,4,-9,4,-29,-48,-24,-14,0,14
-9,0,9,4,-9,4,-29,-43,-24,-9,0,19
-9,-9,0,9,-4,-4,-29,-39,-24,-14,0,19
-4,-24,-19,14,7,-21,-24,-39,-24,-24,-4,14
-4,-24,-19,14,7,-21,-24,-39,-24,-24,-4,14
-9,-24,-14,17,2,-19,-24,-39,-14,-19,4,24
-9,-24,-14,17,2,-19,-24,-39,-14,-14,4,24
-14,-24,-9,19,-2,-17,-24,-34,-9,-14,4,24
-14,-19,-4,17,-4,-12,-14,-24,-9,-14,0,19
-9,-14,-4,12,-2,-9,-14,-19,-14,-14,0,19
-4,-14,-9,9,2,-12,-19,-24,-14,-19,0,14
-4,-14,-9,9,2,-12,-19,-24,-14,-19,0,9
-4,-14,-9,9,2,-12,-14,-29,-9,-14,0,9
-4,-9,-4,7,0,-7,-14,-29,-9,-9,0,9
-4,-9,-4,7,0,-7,-14,-29,-4,-4,4,14
-4,-9,-4,7,0,-7,-14,-34,0,-4,4,14
-14,-9,4,12,-9,-2,-14,-34,0,-4,4,14
-19,-14,4,17,-12,-4,-14,-34,-4,-4,-4,9
-19,-24,-4,21,-7,-14,-14,-34,-14,-19,-9,4
-19,-24,-4,21,-7,-14,-14,-34,-14,-24,-9,0
-19,-19,0,19,-9,-9,-9,-29,-19,-24,-9,0
-24,-19,4,21,-14,-7,-9,-24,-29,-24,-9,-4
-24,-19,4,21,-14,-7,-9,-29,-29,-24,-9,-4
-19,-19,0,19,-9,-9,-9,-29,-29,-24,-14,-4
-19,-24,-4,21,-7,-14,-9,-29,-29,-43,-29,-19
-19,-29,-9,24,-4,-19,-14,-29,-43,-53,-39,-24
-19,-34,-14,26,-2,-24,-9,-34,-39,-53,-39,-29
-24,-34,-9,29,-7,-21,0,-39,-39,-58,-39,-29
-24,-34,-9,29,-7,-21,0,-43,-43,-53,-34,-24
-29,-39,-9,34,-9,-24,-4,-43,-43,-48,-34,-24
-29,-29,0,29,-14,-14,-9,-43,-43,-53,-34,-19
-29,-19,9,24,-19,-4,-14,-48,-43,-53,-34,-24
-24,-19,4,21,-14,-7,-14,-53,-48,-53,-39,-24
-24,-29,-4,26,-9,-17,-14,-53,-48,-63,-43,-29
-24,-39,-14,31,-4,-26,-14,-58,-48,-63,-43,-29
-24,-39,-14,31,-4,-26,-14,-58,-53,-58,-43,-29
-34,-48,-14,41,-9,-31,-14,-58,-58,-73,-53,-29
-43,-58,-14,51,-14,-36,-14,-63,-68,-92,-68,-29
-24,-34,-9,29,-7,-21,-9,-63,-68,-82,-58,-29
-9,-4,4,7,-7,0,-9,-63,-68,-68,-48,-29
-9,-14,-4,12,-2,-9,-9,-63,-68,-63,-48,-29
-14,-24,-9,19,-2,-17,-14,-63,-68,-63,-48,-29
-14,-24,-9,19,-2,-17,-14,-68,-68,-68,-48,-29
-14,-29,-14,21,0,-21,-14,-68,-68,-68,-53,-39
-14,-34,-19,24,2,-26,-14,-68,-78,-82,-53,-39
-14,-34,-19,24,2,-26,-14,-68,-78,-82,-53,-43
-24,-34,-9,29,-7,-21,-9,-68,-78,-82,-53,-43
-29,-39,-9,34,-9,-24,-9,-68,-78,-82,-53,-39
-29,-39,-9,34,-9,-24,-14,-68,-78,-82,-53,-39
-29,-39,-9,34,-9,-24,-14,-68,-82,-82,-58,-39
-29,-39,-9,34,-9,-24,-9,-68,-82,-82,-58,-39
-29,-39,-9,34,-9,-24,-9,-73,-82,-82,-58,-39
-29,-43,-14,36,-7,-29,-9,-78,-82,-82,-63,-39
-29,-48,-19,39,-4,-34,-9,-78,-78,-82,-63,-39
-29,-48,-19,39,-4,-34,-9,-73,-78,-82,-63,-39
-29,-53,-24,41,-2,-39,-14,-68,-82,-87,-63,-39
-39,-58,-19,48,-9,-39,-14,-68,-82,-87,-68,-43
-48,-63,-14,56,-17,-39,-14,-73,-82,-82,-68,-48
-34,-48,-14,41,-9,-31,-14,-68,-78,-82,-68,-43
-19,-39,-19,29,0,-29,-19,-68,-78,-87,-68,-39
-19,-39,-19,29,0,-29,-19,-68,-82,-87,-68,-39
-19,-39,-19,29,0,-29,-19,-68,-87,-87,-68,-39
-24,-43,-19,34,-2,-31,-19,-73,-87,-87,-68,-39
-29,-48,-19,39,-4,-34,-19,-78,-87,-87,-68,-39
-29,-48,-19,39,-4,-34,-19,-78,-87,-87,-68,-39
-29,-48,-19,39,-4,-34,-19,-78,-87,-87,-68,-39
-29,-48,-19,39,-4,-34,-14,-78,-87,-92,-68,-39
-29,-48,-19,39,-4,-34,-9,-78,-87,-97,-68,-39
-29,-48,-19,39,-4,-34,-9,-78,-87,-97,-68,-43
-29,-48,-19,39,-4,-34,-9,-78,-87,-97,-68,-48
-29,-48,-19,39,-4,-34,-14,-78,-87,-97,-68,-48
-29,-48,-19,39,-4,-34,-19,-78,-87,-97,-68,-48
-34,-48,-14,41,-9,-31,-19,-78,-87,-97,-68,-43
-39,-48,-9,43,-14,-29,-19,-78,-87,-97,-68,-39
-39,-48,-9,43,-14,-29,-14,-78,-87,-97,-68,-39
-39,-48,-9,43,-14,-29,-9,-78,-87,-97,-68,-39
-39,-48,-9,43,-14,-29,-9,-78,-87,-97,-68,-39
-39,-48,-9,43,-14,-29,-9,-78,-87,-97,-68,-39
-39,-48,-9,43,-14,-29,-14,-82,-87,-97,-73,-48
-39,-48,-9,43,-14,-29,-19,-87,-87,-97,-78,-58
-34,-48,-14,41,-9,-31,-19,-87,-87,-97,-78,-58
-29,-48,-19,39,-4,-34,-19,-87,-87,-97,-78,-58
-29,-48,-19,39,-4,-34,-14,-82,-87,-97,-78,-48
-29,-48,-19,39,-4,-34,-9,-78,-87,-97,-78,-39
-24,-48,-24,36,0,-36,-9,-78,-87,-97,-78,-39
-19,-48,-29,34,4,-39,-9,-78,-87,-97,-78,-39
-19,-53,-34,36,7,-43,-14,-78,-92,-97,-78,-43
-19,-58,-39,39,9,-48,-19,-78,-97,-97,-78,-48
-24,-58,-34,41,4,-46,-19,-78,-97,-97,-78,-48
-29,-58,-29,43,0,-43,-19,-78,-97,-97,-78,-48
-29,-48,-19,39,-4,-34,-14,-78,-97,-97,-78,-48
-29,-39,-9,34,-9,-24,-9,-78,-97,-97,-78,-48
-29,-48,-19,39,-4,-34,-9,-78,-97,-107,-78,-48
-29,-58,-29,43,0,-43,-9,-78,-97,-117,-78,-48
-34,-58,-24,46,-4,-41,-9,-78,-97,-107,-73,-48
-39,-58,-19,48,-9,-39,-9,-78,-97,-97,-68,-48
-39,-53,-14,46,-12,-34,-9,-78,-87,-97,-68,-48
-39,-48,-9,43,-14,-29,-9,-78,-78,-97,-68,-48
-39,-48,-9,43,-14,-29,-9,-78,-92,-102,-73,-48
-39,-48,-9,43,-14,-29,-9,-78,-107,-107,-78,-48
-39,-58,-19,48,-9,-39,-9,-78,-107,-107,-78,-48
-39,-68,-29,53,-4,-48,-9,-78,-107,-107,-78,-48
-39,-58,-19,48,-9,-39,-19,-78,-102,-107,-78,-48
-39,-48,-9,43,-14,-29,-29,-78,-97,-107,-78,-48
-39,-48,-9,43,-14,-29,-19,-78,-97,-107,-78,-48
-39,-48,-9,43,-14,-29,-9,-78,-97,-107,-78,-48
-39,-48,-9,43,-14,-29,-9,-78,-97,-107,-78,-48
-39,-48,-9,43,-14,-29,-9,-78,-97,-107,-78,-48
-29,-39,-9,34,-9,-24,-9,-73,-92,-102,-73,-48
-19,-29,-9,24,-4,-19,-9,-68,-87,-97,-68,-48
-19,-19,0,19,-9,-9,-9,-63,-78,-87,-58,-39
-19,-9,9,14,-14,0,-9,-58,-68,-78,-48,-29
-9,0,9,4,-9,4,4,-43,-58,-73,-48,-29
0,9,9,-4,-4,9,19,-29,-48,-68,-48,-29
4,9,4,-7,0,7,29,-24,-43,-63,-43,-24
9,9,0,-9,4,4,39,-19,-39,-58,-39,-19
9,24,14,-17,-2,19,29,-19,-34,-48,-34,-19
9,39,29,-24,-9,34,19,-19,-29,-39,-29,-19
4,39,34,-21,-14,36,14,-19,-29,-39,-24,-14
0,39,39,-19,-19,39,9,-19,-29,-39,-19,-9
0,39,39,-19,-19,39,4,-24,-24,-34,-14,-4
4,48,43,-26,-19,46,-4,-29,-14,-24,-4,4
9,58,48,-34,-19,53,-19,-34,-9,-14,0,14
14,78,63,-46,-24,70,-39,-48,-4,-9,9,24
14,92,78,-53,-31,85,-48,-68,-9,-14,4,34
4,82,78,-43,-36,80,-53,-87,-34,-43,-14,14
4,63,58,-34,-26,61,-58,-102,-53,-63,-34,4
9,68,58,-39,-24,63,-58,-97,-58,-63,-43,4
-4,68,73,-31,-39,70,-58,-107,-68,-68,-43,4
4,73,68,-39,-31,70,-73,-107,-68,-68,-39,4
9,68,58,-39,-24,63,-82,-122,-82,-78,-39,0
4,48,43,-26,-19,46,-97,-141,-107,-92,-53,-14
4,48,43,-26,-19,46,-97,-146,-107,-92,-48,-14
4,48,43,-26,-19,46,-97,-146,-102,-87,-43,-9
4,58,53,-31,-24,56,-92,-146,-102,-82,-39,-9
4,63,58,-34,-26,61,-87,-131,-87,-78,-29,-9
9,58,48,-34,-19,53,-78,-122,-87,-78,-48,-9
9,43,34,-26,-12,39,-58,-112,-87,-78,-53,-19
-14,19,34,-2,-24,26,-39,-102,-92,-82,-63,-24
-39,-14,24,26,-31,4,-29,-102,-97,-97,-73,-39
-39,-43,-4,41,-17,-24,-24,-102,-102,-102,-78,-43
-43,-58,-14,51,-14,-36,-24,-97,-107,-102,-73,-53
-43,-73,-29,58,-7,-51,-24,-97,-117,-117,-92,-68
-48,-87,-39,68,-4,-63,-19,-97,-131,-131,-112,-78
-48,-92,-43,70,-2,-68,-19,-97,-136,-141,-112,-78
-48,-97,-48,73,0,-73,-19,-102,-141,-146,-112,-82
-48,-97,-48,73,0,-73,-24,-102,-146,-151,-112,-82
-53,-102,-48,78,-2,-75,-24,-107,-151,-151,-112,-82
-48,-87,-39,68,-4,-63,-24,-107,-141,-146,-112,-82
-43,-73,-29,58,-7,-51,-24,-102,-131,-136,-107,-87
-43,-82,-39,63,-2,-61,-24,-102,-136,-136,-107,-87
-34,-92,-58,63,12,-75,-19,-102,-136,-136,-107,-87
-34,-78,-43,56,4,-61,-19,-102,-136,-141,-112,-87
-39,-78,-39,58,0,-58,-19,-102,-136,-141,-117,-87
-43,-78,-34,61,-4,-56,-19,-102,-136,-141,-117,-82
-43,-73,-29,58,-7,-51,-19,-102,-131,-141,-117,-78
-43,-73,-29,58,-7,-51,-24,-102,-136,-136,-112,-73
-39,-73,-34,56,-2,-53,-29,-102,-141,-136,-112,-73
-29,-73,-43,51,7,-58,-34,-107,-146,-141,-112,-78
-19,-82,-63,51,21,-73,-53,-117,-156,-146,-117,-82
-19,-92,-73,56,26,-82,-48,-102,-151,-156,-136,-107
-19,-117,-97,68,39,-107,-29,-58,-141,-170,-175,-146
-9,-122,-112,65,51,-117,-4,4,-92,-161,-200,-180
14,-126,-141,56,78,-134,29,102,-43,-146,-200,-195
39,-126,-165,43,102,-146,24,190,0,-82,-151,-161
136,-63,-200,-36,168,-131,-39,224,78,53,4,-19
253,53,-200,-153,226,-73,-161,146,112,209,219,195
341,229,-112,-285,226,58,-336,-87,92,341,463,453
405,483,78,-444,163,280,-531,-390,63,488,717,727
439,766,326,-602,56,546,-707,-702,24,639,961,1000
453,912,458,-683,-2,685,-858,-1010,-117,692,1141,1234
405,1019,614,-712,-104,817,-1044,-1483,-429,570,1220,1420
185,844,658,-514,-236,751,-1039,-1825,-824,156,932,1288
-48,336,385,-143,-217,361,-941,-1952,-1259,-492,302,814
-73,-151,-78,112,2,-114,-785,-1727,-1483,-912,-161,395
-117,-253,-136,185,9,-195,-595,-1356,-1327,-976,-390,107
-82,-219,-136,151,26,-178,-473,-932,-1068,-854,-414,0
-48,-112,-63,80,7,-87,-326,-610,-712,-556,-287,0
-43,-97,-53,70,4,-75,-200,-390,-453,-375,-219,-43
-34,-126,-92,80,29,-109,-87,-170,-268,-244,-161,-73
-34,-136,-102,85,34,-119,14,19,-122,-117,-102,-87
-39,-126,-87,82,24,-107,58,87,-39,-48,-68,-82
-39,-117,-78,78,19,-97,78,92,4,-4,-53,-73
-39,-92,-53,65,7,-73,73,97,24,0,-34,-58
-34,-73,-39,53,2,-56,73,102,24,4,-29,-53
-29,-68,-39,48,4,-53,73,117,34,9,-29,-53
-29,-68,-39,48,4,-53,78,117,39,4,-34,-53
-34,-68,-34,51,0,-51,82,117,43,9,-39,-53
-34,-68,-34,51,0,-51,82,117,43,0,-39,-53
-34,-63,-29,48,-2,-46,82,122,39,0,-43,-58
-24,-63,-39,43,7,-51,82,122,39,-4,-43,-58
-24,-63,-39,43,7,-51,87,122,43,-4,-43,-58
-24,-63,-39,43,7,-51,87,122,53,4,-34,-58
-24,-63,-39,43,7,-51,87,126,53,4,-29,-58
-29,-63,-34,46,2,-48,87,131,53,4,-29,-58
-29,-63,-34,46,2,-48,87,131,58,4,-29,-58
-24,-68,-43,46,9,-56,87,131,63,9,-29,-58
-19,-63,-43,41,12,-53,87,131,63,14,-24,-58
-24,-58,-34,41,4,-46,87,136,63,14,-29,-58
-24,-48,-24,36,0,-36,92,136,63,14,-34,-58
-34,-58,-24,46,-4,-41,87,136,68,19,-34,-58
-39,-58,-19,48,-9,-39,82,136,68,19,-34,-58
-34,-58,-24,46,-4,-41,82,141,73,24,-24,-58
-34,-63,-29,48,-2,-46,78,146,73,29,-19,-58
-34,-63,-29,48,-2,-46,78,146,73,24,-14,-58
-34,-68,-34,51,0,-51,82,151,73,24,-14,-58
-39,-78,-39,58,0,-58,87,161,78,24,-14,-58
-39,-78,-39,58,0,-58,87,161,78,29,-14,-58
-24,-68,-43,46,9,-56,87,165,87,39,-9,-53
-14,-58,-43,36,14,-51,87,170,97,53,-9,-53
-9,-48,-39,29,14,-43,92,175,102,58,-4,-53
-9,-48,-39,29,14,-43,92,180,112,63,0,-53
-9,-58,-48,34,19,-53,92,180,112,68,0,-53
-14,-63,-48,39,17,-56,97,185,117,68,4,-58
-14,-58,-43,36,14,-51,97,185,122,68,0,-63
-14,-58,-43,36,14,-51,97,190,131,68,0,-63
-19,-68,-48,43,14,-58,97,195,131,73,4,-58
-24,-78,-53,51,14,-65,97,200,136,78,9,-53
-24,-82,-58,53,17,-70,97,209,141,82,9,-48
-24,-82,-58,53,17,-70,102,214,146,87,9,-48
-19,-68,-48,43,14,-58,107,224,151,97,19,-48
-14,-48,-34,31,9,-41,112,229,165,107,24,-48
-9,-48,-39,29,14,-43,112,234,175,117,29,-39
-4,-53,-48,29,21,-51,112,239,190,117,34,-34
0,-43,-43,21,21,-43,117,248,200,131,39,-34
0,-39,-39,19,19,-39,117,253,204,136,43,-34
9,-34,-43,12,26,-39,112,258,200,136,43,-34
19,-29,-48,4,34,-39,107,263,209,141,43,-34
9,-29,-39,9,24,-34,112,263,209,146,48,-34
0,-24,-24,12,12,-24,112,273,224,156,53,-29
4,-14,-19,4,12,-17,112,268,239,165,58,-29
4,-9,-14,2,9,-12,112,273,253,170,63,-29
14,0,-14,-7,14,-7,117,273,258,180,68,-24
14,9,-4,-12,9,2,122,283,273,190,78,-19
9,4,-4,-7,7,0,122,297,283,195,78,-24
9,0,-9,-4,9,-4,126,312,292,200,78,-29
9,0,-9,-4,9,-4,131,317,302,204,82,-24
9,4,-4,-7,7,0,131,326,312,214,92,-24
9,9,0,-9,4,4,126,331,322,224,92,-24
14,14,0,-14,7,7,126,331,331,234,92,-24
14,19,4,-17,4,12,131,341,346,244,97,-24
14,19,4,-17,4,12,131,351,356,248,97,-24
9,19,9,-14,0,14,141,366,370,258,107,-24
9,19,9,-14,0,14,151,380,380,263,117,-29
9,9,0,-9,4,4,151,390,390,273,117,-29
9,4,-4,-7,7,0,161,405,400,278,122,-24
9,19,9,-14,0,14,165,409,409,287,126,-24
9,29,19,-19,-4,24,165,409,419,287,126,-34
9,24,14,-17,-2,19,170,424,429,292,122,-39
9,24,14,-17,-2,19,180,434,439,302,122,-43
9,24,14,-17,-2,19,180,444,444,302,122,-43
9,24,14,-17,-2,19,175,448,448,307,122,-43
9,24,14,-17,-2,19,185,458,453,307,122,-43
9,24,14,-17,-2,19,185,463,458,312,126,-39
9,24,14,-17,-2,19,185,458,463,317,126,-34
14,29,14,-21,0,21,185,458,463,317,126,-29
19,29,9,-24,4,19,190,468,473,322,131,-29
19,29,9,-24,4,19,190,468,473,322,131,-29
19,34,14,-26,2,24,185,468,468,322,131,-34
24,43,19,-34,2,31,185,458,458,322,131,-34
24,48,24,-36,0,36,175,453,453,322,136,-24
34,53,19,-43,7,36,165,444,444,322,141,-19
34,53,19,-43,7,36,161,429,429,307,141,-14
29,53,24,-41,2,39,156,409,409,297,141,-9
19,58,39,-39,-9,48,146,385,395,292,141,0
9,58,48,-34,-19,53,136,361,375,278,141,9
9,58,48,-34,-19,53,126,326,346,258,141,19
9,58,48,-34,-19,53,107,297,317,239,136,29
14,68,53,-41,-19,61,92,258,283,219,122,34
19,73,53,-46,-17,63,73,224,248,200,112,34
19,82,63,-51,-21,73,58,185,224,185,107,34
19,102,82,-61,-31,92,48,161,195,170,97,43
19,87,68,-53,-24,78,34,136,165,146,92,48
14,73,58,-43,-21,65,19,112,141,126,82,48
14,73,58,-43,-21,65,14,87,117,107,78,48
4,63,58,-34,-26,61,0,58,97,87,68,43
4,53,48,-29,-21,51,-9,34,68,63,53,43
4,53,48,-29,-21,51,-14,19,48,48,48,43
4,34,29,-19,-12,31,-19,4,24,29,39,43
4,24,19,-14,-7,21,-29,-9,14,24,29,39
14,39,24,-26,-4,31,-34,-24,9,14,34,34
34,53,19,-43,7,36,-39,-29,-14,4,29,34
29,53,24,-41,2,39,-39,-39,-19,0,24,34
19,53,34,-36,-7,43,-34,-39,-19,-4,24,34
19,53,34,-36,-7,43,-34,-39,-19,-14,14,29
19,58,39,-39,-9,48,-34,-43,-29,-14,9,29
19,43,24,-31,-2,34,-29,-53,-24,-14,9,34
14,43,29,-29,-7,36,-34,-63,-19,-14,9,34
9,39,29,-24,-9,34,-34,-58,-24,-14,4,34
4,39,34,-21,-14,36,-29,-48,-24,-14,4,34
4,39,34,-21,-14,36,-29,-48,-29,-14,4,29
9,39,29,-24,-9,34,-29,-48,-34,-14,0,24
9,34,24,-21,-7,29,-29,-53,-34,-19,0,19
9,29,19,-19,-4,24,-29,-53,-34,-19,0,19
4,19,14,-12,-4,17,-29,-48,-34,-19,0,19
4,4,0,-4,2,2,-24,-48,-34,-24,-4,14
4,14,9,-9,-2,12,-24,-43,-34,-24,-4,14
0,24,24,-12,-12,24,-24,-39,-24,-19,4,24
0,19,19,-9,-9,19,-29,-39,-29,-14,4,24
-4,14,19,-4,-12,17,-34,-34,-29,-14,4,24
-4,4,9,0,-7,7,-24,-34,-29,-14,0,14
0,-4,-4,2,2,-4,-24,-39,-34,-14,0,9
0,4,4,-2,-2,4,-29,-43,-29,-19,0,4
-4,14,19,-4,-12,17,-29,-43,-24,-19,0,0
-4,14,19,-4,-12,17,-24,-43,-19,-14,0,0
-4,19,24,-7,-14,21,-24,-39,-19,-9,0,0
-4,24,29,-9,-17,26,-19,-39,-19,-9,0,4
-4,29,34,-12,-19,31,-14,-43,-19,-14,-4,4
-4,39,43,-17,-24,41,-14,-39,-19,-14,0,9
0,43,43,-21,-21,43,-14,-34,-24,-14,-4,9
0,19,19,-9,-9,19,-14,-34,-34,-29,-9,4
0,4,4,-2,-2,4,-14,-34,-34,-34,-9,0
-9,4,14,2,-12,9,-9,-43,-34,-34,-14,0
-24,0,24,12,-24,12,-9,-53,-39,-34,-19,-4
-24,0,24,12,-24,12,-9,-48,-39,-34,-19,-4
-19,0,19,9,-19,9,-9,-39,-39,-34,-24,-4
-14,4,19,4,-17,12,-9,-39,-39,-48,-34,-14
-9,9,19,0,-14,14,-14,-39,-53,-53,-39,-14
-9,4,14,2,-12,9,-14,-48,-53,-53,-39,-19
-14,4,19,4,-17,12,-9,-58,-58,-58,-39,-19
-14,0,14,7,-14,7,-9,-63,-63,-58,-39,-14
-19,-9,9,14,-14,0,-14,-63,-63,-58,-43,-14
-24,-9,14,17,-19,2,-14,-58,-63,-63,-43,-14
-29,-9,19,19,-24,4,-14,-58,-63,-63,-43,-24
-29,-9,19,19,-24,4,-19,-63,-73,-63,-53,-29
-34,-19,14,26,-24,-2,-24,-63,-78,-73,-63,-39
-19,-19,0,19,-9,-9,-24,-68,-78,-87,-63,-39
-4,-9,-4,7,0,-7,-24,-68,-82,-97,-63,-39
-4,-4,0,4,-2,-2,-24,-68,-78,-87,-58,-39
-4,0,4,2,-4,2,-24,-73,-78,-82,-58,-39
-4,-4,0,4,-2,-2,-19,-73,-78,-87,-58,-39
-9,-4,4,7,-7,0,-19,-73,-78,-87,-58,-39
-14,-9,4,12,-9,-2,-14,-73,-82,-78,-58,-34
-24,-14,9,19,-17,-2,-14,-73,-87,-73,-58,-29
-24,-14,9,19,-17,-2,-14,-78,-87,-78,-58,-24
-24,-19,4,21,-14,-7,-14,-78,-87,-78,-63,-29
-19,-14,4,17,-12,-4,-14,-78,-92,-87,-63,-29
-14,-4,9,9,-12,2,-14,-78,-87,-82,-63,-34
-19,-4,14,12,-17,4,-9,-78,-87,-82,-68,-39
-19,-9,9,14,-14,0,-9,-78,-87,-82,-73,-39
-24,-19,4,21,-14,-7,-14,-78,-92,-87,-73,-39
-29,-29,0,29,-14,-14,-14,-78,-102,-92,-78,-39
-29,-34,-4,31,-12,-19,-9,-78,-102,-92,-78,-39
-29,-39,-9,34,-9,-24,-9,-82,-102,-92,-78,-39
-29,-39,-9,34,-9,-24,-9,-87,-97,-92,-73,-39
-29,-39,-9,34,-9,-24,-9,-87,-87,-92,-63,-39
-29,-29,0,29,-14,-14,-9,-87,-87,-92,-63,-39
-29,-24,4,26,-17,-9,-14,-87,-92,-97,-63,-39
-29,-24,4,26,-17,-9,-19,-87,-92,-102,-73,-39
-29,-24,4,26,-17,-9,-24,-92,-92,-102,-78,-39
-29,-19,9,24,-19,-4,-14,-82,-92,-92,-73,-39
-29,-19,9,24,-19,-4,-9,-78,-97,-87,-68,-39
-29,-24,4,26,-17,-9,-14,-82,-97,-92,-73,-39
-29,-29,0,29,-14,-14,-19,-87,-97,-97,-78,-39
-24,-29,-4,26,-9,-17,-19,-87,-102,-97,-78,-39
-19,-29,-9,24,-4,-19,-19,-87,-107,-97,-78,-39
-19,-29,-9,24,-4,-19,-19,-87,-107,-97,-73,-39
-19,-29,-9,24,-4,-19,-19,-87,-107,-97,-68,-39
-24,-29,-4,26,-9,-17,-19,-87,-102,-97,-68,-39
-29,-29,0,29,-14,-14,-19,-87,-97,-97,-68,-39
-29,-29,0,29,-14,-14,-19,-82,-97,-97,-73,-39
-29,-29,0,29,-14,-14,-19,-78,-97,-97,-78,-39
-19,-29,-9,24,-4,-19,-14,-78,-102,-102,-78,-39
-9,-29,-19,19,4,-24,-9,-78,-107,-107,-78,-39
-19,-34,-14,26,-2,-24,-9,-78,-107,-107,-78,-39
-29,-39,-9,34,-9,-24,-9,-78,-107,-107,-78,-39
-29,-39,-9,34,-9,-24,-9,-82,-107,-107,-78,-39
-29,-39,-9,34,-9,-24,-9,-87,-107,-107,-78,-39
-29,-34,-4,31,-12,-19,-9,-87,-107,-107,-78,-39
-29,-29,0,29,-14,-14,-9,-87,-107,-107,-78,-39
-29,-29,0,29,-14,-14,-14,-87,-107,-107,-78,-43
-29,-29,0,29,-14,-14,-19,-87,-107,-107,-78,-48
-29,-29,0,29,-14,-14,-19,-87,-107,-107,-78,-48
-29,-29,0,29,-14,-14,-19,-87,-107,-107,-78,-48
-29,-29,0,29,-14,-14,-19,-87,-102,-107,-78,-48
-29,-29,0,29,-14,-14,-19,-87,-97,-107,-78,-48
-29,-29,0,29,-14,-14,-19,-87,-97,-102,-78,-48
-29,-29,0,29,-14,-14,-19,-87,-97,-97,-78,-48
-29,-29,0,29,-14,-14,-19,-87,-97,-97,-73,-43
-29,-29,0,29,-14,-14,-19,-87,-97,-97,-68,-39
-19,-29,-9,24,-4,-19,-19,-87,-97,-97,-68,-39
-9,-29,-19,19,4,-24,-19,-87,-97,-97,-68,-39
-19,-29,-9,24,-4,-19,-19,-87,-102,-97,-73,-39
-29,-29,0,29,-14,-14,-19,-87,-107,-97,-78,-39
-29,-29,0,29,-14,-14,-14,-87,-107,-97,-78,-39
-29,-29,0,29,-14,-14,-9,-87,-107,-97,-78,-39
-29,-39,-9,34,-9,-24,-9,-87,-112,-107,-82,-43
-29,-48,-19,39,-4,-34,-9,-87,-117,-117,-87,-48
-29,-48,-19,39,-4,-34,-9,-87,-117,-117,-87,-48
-29,-48,-19,39,-4,-34,-9,-87,-117,-117,-87,-48
-29,-39,-9,34,-9,-24,-9,-87,-102,-97,-82,-48
-29,-29,0,29,-14,-14,-9,-87,-87,-78,-78,-48
-29,-29,0,29,-14,-14,-9,-87,-97,-92,-78,-48
-29,-29,0,29,-14,-14,-9,-87,-107,-107,-78,-48
-24,-39,-14,31,-4,-26,-9,-87,-107,-112,-78,-43
-19,-48,-29,34,4,-39,-9,-87,-107,-117,-78,-39
-19,-48,-29,34,4,-39,-9,-87,-107,-117,-78,-39
-19,-48,-29,34,4,-39,-9,-87,-107,-117,-78,-39
-19,-43,-24,31,2,-34,-14,-87,-107,-112,-78,-43
-19,-39,-19,29,0,-29,-19,-87,-107,-107,-78,-48
-19,-29,-9,24,-4,-19,-29,-87,-102,-97,-78,-48
-19,-19,0,19,-9,-9,-39,-87,-97,-87,-78,-48
-19,-4,14,12,-17,4,-29,-78,-92,-87,-73,-39
-19,9,29,4,-24,19,-19,-68,-87,-87,-68,-29
-9,19,29,-4,-19,24,-9,-58,-78,-82,-63,-24
0,29,29,-14,-14,29,0,-48,-68,-78,-58,-19
0,29,29,-14,-14,29,9,-43,-63,-68,-53,-19
0,29,29,-14,-14,29,19,-39,-58,-58,-48,-19
0,34,34,-17,-17,34,19,-24,-48,-53,-39,-14
0,39,39,-19,-19,39,19,-9,-39,-48,-29,-9
0,39,39,-19,-19,39,9,-9,-39,-48,-29,-9
0,39,39,-19,-19,39,0,-9,-39,-48,-29,-9
0,39,39,-19,-19,39,0,-9,-34,-43,-29,-4
4,43,39,-24,-17,41,-4,-14,-29,-39,-24,0
9,48,39,-29,-14,43,-14,-24,-29,-39,-19,0
19,68,48,-43,-14,58,-24,-34,-19,-24,-9,14
24,87,63,-56,-19,75,-34,-48,-14,-19,0,29
24,102,78,-63,-26,90,-39,-68,-14,-19,0,43
9,92,82,-51,-36,87,-43,-87,-34,-43,-14,24
0,68,68,-34,-34,68,-53,-107,-53,-63,-34,14
0,68,68,-34,-34,68,-58,-107,-58,-63,-43,14
-14,68,82,-26,-48,75,-58,-117,-68,-68,-43,14
4,82,78,-43,-36,80,-78,-117,-68,-68,-39,14
24,92,68,-58,-21,80,-87,-131,-82,-78,-39,14
24,78,53,-51,-14,65,-97,-151,-107,-92,-53,4
24,78,53,-51,-14,65,-97,-156,-112,-97,-53,4
19,73,53,-46,-17,63,-97,-156,-117,-102,-53,9
14,73,58,-43,-21,65,-97,-156,-122,-102,-48,9
14,73,58,-43,-21,65,-92,-141,-107,-97,-39,9
4,68,63,-36,-29,65,-78,-131,-107,-97,-53,9
-9,48,58,-19,-34,53,-58,-122,-107,-97,-53,-4
-19,19,39,0,-29,29,-39,-112,-112,-102,-63,-19
-29,-14,14,21,-21,0,-29,-112,-112,-107,-73,-39
-29,-39,-9,34,-9,-24,-24,-112,-112,-102,-87,-43
-24,-34,-9,29,-7,-21,-24,-107,-117,-102,-92,-48
-14,-29,-14,21,0,-21,-24,-107,-122,-112,-102,-53
-29,-48,-19,39,-4,-34,-19,-107,-131,-126,-112,-58
-39,-58,-19,48,-9,-39,-19,-107,-131,-136,-112,-58
-39,-63,-24,51,-7,-43,-19,-112,-131,-136,-112,-63
-39,-68,-29,53,-4,-48,-24,-112,-136,-141,-112,-63
-43,-78,-34,61,-4,-56,-24,-117,-141,-141,-112,-63
-43,-87,-43,65,0,-65,-24,-117,-141,-146,-117,-63
-43,-92,-48,68,2,-70,-29,-117,-141,-146,-117,-68
-43,-92,-48,68,2,-70,-34,-122,-146,-146,-117,-68
-29,-73,-43,51,7,-58,-29,-122,-146,-146,-117,-68
-24,-39,-14,31,-4,-26,-29,-122,-146,-146,-117,-68
-29,-39,-9,34,-9,-24,-29,-122,-146,-131,-117,-68
-34,-43,-9,39,-12,-26,-29,-122,-146,-122,-117,-68
-39,-53,-14,46,-12,-34,-29,-117,-141,-131,-122,-73
-43,-63,-19,53,-12,-41,-29,-112,-141,-136,-122,-73
-39,-68,-29,53,-4,-48,-29,-112,-141,-141,-122,-73
-29,-73,-43,51,7,-58,-34,-117,-146,-151,-122,-73
-19,-82,-63,51,21,-73,-53,-126,-161,-156,-126,-73
-19,-97,-78,58,29,-87,-53,-126,-170,-175,-146,-97
-29,-136,-107,82,39,-122,-39,-107,-170,-200,-185,-136
-39,-156,-117,97,39,-136,-14,-53,-136,-200,-224,-185
-9,-146,-136,78,63,-141,29,58,-92,-180,-234,-209
29,-126,-156,48,92,-141,48,185,-19,-112,-200,-190
126,-63,-190,-31,158,-126,0,248,78,4,-63,-68
248,39,-209,-143,229,-85,-117,190,112,151,141,131
326,180,-146,-253,236,17,-287,-29,87,283,375,370
385,405,19,-395,183,212,-483,-331,78,439,629,639
439,688,248,-563,95,468,-658,-644,63,600,873,912
502,912,409,-707,46,661,-824,-951,-29,732,1132,1210
492,1107,614,-800,-61,861,-1024,-1434,-292,697,1302,1483
244,971,727,-607,-241,849,-1049,-1864,-717,292,1063,1420
-19,468,488,-224,-253,478,-985,-2078,-1195,-380,444,971
-58,-92,-34,75,-12,-63,-834,-1883,-1503,-893,-102,492
-117,-253,-136,185,9,-195,-644,-1532,-1415,-1024,-390,165
-82,-229,-146,156,31,-187,-517,-1068,-1166,-927,-434,43
-48,-122,-73,85,12,-97,-366,-707,-810,-644,-322,29
-39,-82,-43,61,2,-63,-239,-483,-527,-434,-248,-14
-24,-112,-87,68,31,-100,-126,-244,-326,-283,-190,-43
-24,-136,-112,80,43,-124,-9,-14,-165,-156,-126,-63
-19,-126,-107,73,43,-117,48,78,-68,-82,-82,-63
-9,-117,-107,63,48,-112,73,87,-19,-29,-63,-58
-19,-87,-68,53,24,-78,68,92,9,-14,-43,-48
-29,-63,-34,46,2,-48,63,92,14,-4,-39,-43
-34,-58,-24,46,-4,-41,63,107,24,0,-39,-43
-39,-58,-19,48,-9,-39,68,107,29,0,-39,-43
-43,-58,-14,51,-14,-36,73,107,34,9,-39,-43
-43,-63,-19,53,-12,-41,73,107,34,0,-39,-43
-39,-63,-24,51,-7,-43,73,117,34,0,-39,-43
-24,-63,-39,43,7,-51,73,122,39,0,-34,-39
-19,-63,-43,41,12,-53,78,122,43,4,-34,-39
-14,-58,-43,36,14,-51,78,122,53,14,-29,-39
-14,-53,-39,34,12,-46,78,122,48,14,-34,-43
-19,-53,-34,36,7,-43,78,122,43,14,-39,-48
-19,-53,-34,36,7,-43,78,122,43,9,-39,-48
-19,-63,-43,41,12,-53,78,122,43,4,-39,-48
-34,-73,-39,53,2,-56,78,122,43,4,-34,-48
-53,-87,-34,70,-9,-61,78,126,43,4,-34,-48
-43,-73,-29,58,-7,-51,82,126,48,4,-29,-43
-34,-58,-24,46,-4,-41,82,126,58,9,-24,-39
-24,-48,-24,36,0,-36,87,126,58,9,-24,-39
-14,-43,-29,29,7,-36,92,131,63,14,-19,-39
-14,-43,-29,29,7,-36,87,136,68,24,-19,-39
-14,-43,-29,29,7,-36,87,136,78,29,-14,-39
-14,-48,-34,31,9,-41,92,141,82,34,-14,-39
-19,-58,-39,39,9,-48,97,151,87,34,-14,-39
-19,-58,-39,39,9,-48,97,151,87,39,-14,-39
-14,-58,-43,36,14,-51,97,156,92,39,-9,-34
-19,-63,-43,41,12,-53,97,161,92,43,-9,-34
-19,-58,-39,39,9,-48,102,165,92,48,-4,-34
-19,-58,-39,39,9,-48,102,170,102,53,0,-34
-14,-63,-48,39,17,-56,102,175,102,58,0,-29
-14,-73,-58,43,21,-65,107,185,107,58,0,-29
-14,-78,-63,46,24,-70,107,185,112,63,-4,-34
-19,-78,-58,48,19,-68,102,190,122,68,0,-34
-24,-78,-53,51,14,-65,97,195,122,73,4,-34
-24,-68,-43,46,9,-56,97,200,131,82,9,-34
-24,-63,-39,43,7,-51,97,209,141,92,9,-29
-14,-58,-43,36,14,-51,102,214,146,97,9,-29
-4,-53,-48,29,21,-51,102,219,151,102,14,-29
-4,-48,-43,26,19,-46,102,219,165,107,19,-29
0,-39,-39,19,19,-39,102,224,170,117,29,-24
0,-43,-43,21,21,-43,102,229,175,112,34,-24
0,-43,-43,21,21,-43,107,239,180,122,39,-24
0,-39,-39,19,19,-39,107,244,185,126,43,-24
0,-39,-39,19,19,-39,107,248,185,126,43,-24
0,-39,-39,19,19,-39,107,253,200,131,43,-24
0,-39,-39,19,19,-39,112,253,200,136,48,-24
4,-29,-34,12,19,-31,112,263,214,146,53,-19
14,-14,-29,0,21,-21,112,263,224,156,58,-19
14,-9,-24,-2,19,-17,112,273,234,161,63,-19
24,0,-24,-12,24,-12,112,273,239,170,68,-14
14,4,-9,-9,12,-2,112,283,258,185,78,-4
0,0,0,0,0,0,112,292,273,195,78,0
0,0,0,0,0,0,117,302,283,200,78,0
0,0,0,0,0,0,122,307,292,204,82,4
4,4,0,-4,2,2,126,317,302,214,97,4
9,9,0,-9,4,4,131,326,312,224,102,4
14,19,4,-17,4,12,136,331,322,234,102,4
14,29,14,-21,0,21,141,341,336,244,107,4
14,29,14,-21,0,21,136,351,346,248,107,4
9,29,19,-19,-4,24,136,361,361,258,112,4
9,29,19,-19,-4,24,141,370,370,258,112,0
9,29,19,-19,-4,24,141,380,380,263,107,0
9,34,24,-21,-7,29,151,395,385,268,112,-4
9,39,29,-24,-9,34,156,405,390,278,117,-14
19,39,19,-29,0,29,161,409,400,278,117,-14
29,34,4,-31,12,19,170,424,409,283,112,-9
19,29,9,-24,4,19,180,439,419,292,112,-14
9,24,14,-17,-2,19,185,453,424,292,112,-14
4,19,14,-12,-4,17,185,458,429,297,112,-14
0,14,14,-7,-7,14,195,468,434,297,112,-19
0,14,14,-7,-7,14,195,473,439,302,112,-19
0,9,9,-4,-4,9,195,473,444,307,107,-19
4,14,9,-9,-2,12,190,468,444,307,107,-19
4,19,14,-12,-4,17,190,468,453,312,112,-19
4,29,24,-17,-9,26,190,468,458,317,117,-19
9,43,34,-26,-12,39,185,468,463,322,122,-19
14,53,39,-34,-12,46,190,463,458,322,122,-14
14,58,43,-36,-14,51,185,463,453,322,126,-4
24,58,34,-41,-4,46,175,458,439,322,131,0
24,53,29,-39,-2,41,170,448,419,307,131,4
24,48,24,-36,0,36,165,429,400,297,131,9
29,48,19,-39,4,34,156,409,385,292,131,19
29,48,19,-39,4,34,146,385,370,278,131,29
29,48,19,-39,4,34,136,346,346,263,131,34
29,53,24,-41,2,39,117,317,317,244,126,39
29,63,34,-46,-2,48,102,278,287,219,117,43
24,63,39,-43,-7,51,82,244,253,195,112,43
19,63,43,-41,-12,53,68,204,224,175,112,48
14,63,48,-39,-17,56,58,180,195,161,102,58
14,53,39,-34,-12,46,43,151,165,141,92,63
14,63,48,-39,-17,56,24,122,141,126,82,68
14,73,58,-43,-21,65,14,97,117,107,78,68
14,68,53,-41,-19,61,0,73,97,92,68,63
24,63,39,-43,-7,51,-9,53,68,73,53,63
24,63,39,-43,-7,51,-9,39,48,58,48,63
24,53,29,-39,-2,41,-9,19,24,39,39,63
19,53,34,-36,-7,43,-19,0,19,34,29,63
4,53,48,-29,-21,51,-24,-14,19,24,29,63
0,48,48,-24,-24,48,-24,-19,-4,14,19,63
0,43,43,-21,-21,43,-19,-29,-9,9,14,63
0,29,29,-14,-14,29,-14,-29,-19,0,14,63
0,9,9,-4,-4,9,-14,-29,-29,-14,9,58
0,19,19,-9,-9,19,-19,-34,-39,-14,9,58
0,14,14,-7,-7,14,-24,-43,-39,-14,9,63
9,19,9,-14,0,14,-34,-53,-39,-14,4,63
19,19,0,-19,9,9,-34,-53,-43,-19,-4,63
4,19,14,-12,-4,17,-29,-53,-39,-24,-4,63
-4,19,24,-7,-14,21,-29,-58,-34,-24,-4,58
-4,19,24,-7,-14,21,-34,-58,-34,-24,-9,48
-9,19,29,-4,-19,24,-39,-63,-34,-24,-9,39
-9,19,29,-4,-19,24,-39,-63,-34,-19,-4,39
-9,19,29,-4,-19,24,-39,-58,-34,-19,0,39
-4,14,19,-4,-12,17,-34,-53,-34,-24,-4,39
-4,14,19,-4,-12,17,-34,-43,-34,-24,-4,43
0,14,14,-7,-7,14,-29,-39,-29,-19,4,53
9,9,0,-9,4,4,-24,-39,-34,-14,4,53
4,4,0,-4,2,2,-24,-34,-29,-14,4,53
4,4,0,-4,2,2,-14,-29,-29,-14,0,48
9,9,0,-9,4,4,-19,-34,-34,-14,0,48
9,14,4,-12,2,9,-29,-43,-34,-19,0,43
0,14,14,-7,-7,14,-29,-43,-34,-19,0,39
-4,14,19,-4,-12,17,-24,-43,-29,-14,0,39
-9,14,24,-2,-17,19,-24,-39,-29,-9,0,39
-14,9,24,2,-19,17,-24,-39,-29,-9,0,43
-14,9,24,2,-19,17,-24,-43,-29,-14,0,43
-19,9,29,4,-24,19,-24,-43,-29,-14,4,43
-19,14,34,2,-26,24,-24,-43,-29,-9,-4,39
-19,14,34,2,-26,24,-24,-43,-34,-19,-9,34
-14,14,29,0,-21,21,-19,-39,-34,-24,-14,29
-9,19,29,-4,-19,24,-9,-34,-34,-24,-19,29
-14,9,24,2,-19,17,-9,-34,-39,-29,-19,24
-14,0,14,7,-14,7,-9,-39,-39,-34,-19,24
-9,0,9,4,-9,4,-9,-43,-39,-34,-24,24
-9,0,9,4,-9,4,-9,-48,-39,-48,-34,14
-14,9,24,2,-19,17,-14,-48,-53,-53,-39,14
-19,14,34,2,-26,24,-14,-53,-53,-53,-39,9
-24,4,29,9,-26,17,-9,-58,-58,-68,-39,0
-24,-4,19,14,-21,7,-9,-63,-63,-78,-39,-4
-24,-9,14,17,-19,2,-14,-58,-63,-68,-43,4
-19,-9,9,14,-14,0,-14,-53,-63,-63,-43,14
-9,-4,4,7,-7,0,-14,-58,-63,-63,-43,4
0,0,0,0,0,0,-14,-63,-68,-63,-48,4
-19,-9,9,14,-14,0,-14,-63,-68,-68,-53,0
-34,-9,24,21,-29,7,-14,-68,-68,-63,-53,0
-34,-4,29,19,-31,12,-14,-68,-73,-58,-53,4
-34,-9,24,21,-29,7,-14,-68,-73,-58,-53,9
-34,-9,24,21,-29,7,-19,-73,-78,-68,-58,9
-29,-14,14,21,-21,0,-19,-73,-78,-78,-58,9
-29,-14,14,21,-21,0,-24,-73,-78,-78,-58,0
-29,-14,14,21,-21,0,-29,-73,-78,-73,-58,-9
-29,-4,24,17,-26,9,-34,-73,-78,-63,-58,0
-24,4,29,9,-26,17,-34,-78,-78,-58,-58,9
-19,0,19,9,-19,9,-29,-78,-82,-68,-63,0
-14,-4,9,9,-12,2,-24,-78,-97,-92,-63,0
-14,-14,0,14,-7,-7,-24,-78,-97,-92,-63,0
-19,-24,-4,21,-7,-14,-19,-78,-97,-92,-63,4
-19,-29,-9,24,-4,-19,-19,-78,-97,-92,-63,9
-19,-29,-9,24,-4,-19,-24,-78,-97,-92,-63,9
-24,-29,-4,26,-9,-17,-29,-78,-102,-92,-68,4
-29,-29,0,29,-14,-14,-29,-78,-102,-92,-68,0
-39,-29,9,34,-24,-9,-29,-82,-102,-92,-68,0
-48,-29,19,39,-34,-4,-29,-87,-102,-92,-68,0
-34,-19,14,26,-24,-2,-19,-87,-97,-92,-63,4
-19,-9,9,14,-14,0,-9,-82,-97,-92,-63,9
-19,-14,4,17,-12,-4,-14,-78,-102,-97,-63,9
-19,-14,4,17,-12,-4,-14,-78,-102,-92,-68,9
-24,-14,9,19,-17,-2,-14,-87,-97,-87,-73,0
-29,-14,14,21,-21,0,-19,-97,-97,-82,-78,-9
-24,-14,9,19,-17,-2,-14,-92,-97,-87,-78,-4
-19,-19,0,19,-9,-9,-9,-87,-97,-97,-78,0
-24,-19,4,21,-14,-7,-9,-87,-97,-97,-78,0
-29,-19,9,24,-19,-4,-9,-87,-97,-97,-78,0
-39,-19,19,29,-29,0,-14,-87,-97,-97,-78,0
-48,-19,29,34,-39,4,-19,-87,-97,-97,-78,0
-39,-19,19,29,-29,0,-19,-87,-102,-97,-78,-4
-29,-19,9,24,-19,-4,-19,-87,-107,-97,-78,-9
-24,-19,4,21,-14,-7,-19,-87,-107,-97,-78,-9
-19,-19,0,19,-9,-9,-19,-87,-107,-97,-78,-9
-19,-19,0,19,-9,-9,-24,-92,-107,-97,-78,-4
-19,-19,0,19,-9,-9,-29,-97,-107,-97,-78,0
-19,-24,-4,21,-7,-14,-29,-97,-107,-97,-78,0
-19,-29,-9,24,-4,-19,-29,-97,-107,-97,-78,0
-24,-39,-14,31,-4,-26,-29,-97,-107,-102,-78,4
-29,-48,-19,39,-4,-34,-29,-97,-107,-107,-78,9
-29,-39,-9,34,-9,-24,-24,-97,-107,-107,-78,9
-29,-29,0,29,-14,-14,-19,-97,-107,-107,-78,9
-29,-29,0,29,-14,-14,-19,-92,-107,-107,-78,9
-29,-29,0,29,-14,-14,-19,-87,-107,-107,-78,9
-29,-34,-4,31,-12,-19,-19,-87,-112,-107,-82,4
-29,-39,-9,34,-9,-24,-19,-87,-117,-107,-87,0
-29,-39,-9,34,-9,-24,-19,-92,-117,-107,-87,0
-29,-39,-9,34,-9,-24,-19,-97,-117,-107,-87,0
-29,-39,-9,34,-9,-24,-19,-97,-117,-107,-87,0
-29,-39,-9,34,-9,-24,-19,-97,-117,-107,-87,0
-29,-24,4,26,-17,-9,-19,-92,-112,-102,-82,4
-29,-9,19,19,-24,4,-19,-87,-107,-97,-78,9
-29,-19,9,24,-19,-4,-19,-87,-107,-97,-78,9
-29,-29,0,29,-14,-14,-19,-87,-107,-97,-78,9
-24,-29,-4,26,-9,-17,-19,-92,-112,-102,-78,9
-19,-29,-9,24,-4,-19,-19,-97,-117,-107,-78,9
-19,-29,-9,24,-4,-19,-19,-97,-117,-107,-78,9
-19,-29,-9,24,-4,-19,-19,-97,-117,-107,-78,9
-34,-34,0,34,-17,-17,-24,-97,-117,-107,-78,9
-48,-39,9,43,-29,-14,-29,-97,-117,-107,-78,9
-48,-39,9,43,-29,-14,-29,-97,-117,-107,-78,9
-48,-39,9,43,-29,-14,-29,-97,-117,-107,-78,9
-34,-34,0,34,-17,-17,-29,-97,-117,-107,-78,14
-19,-29,-9,24,-4,-19,-29,-97,-117,-107,-78,19
-19,-29,-9,24,-4,-19,-24,-92,-117,-107,-78,19
-19,-29,-9,24,-4,-19,-19,-87,-117,-107,-78,19
-19,-29,-9,24,-4,-19,-19,-87,-112,-107,-78,14
-19,-29,-9,24,-4,-19,-19,-87,-107,-107,-78,9
-24,-29,-4,26,-9,-17,-19,-92,-107,-107,-78,9
-29,-29,0,29,-14,-14,-19,-97,-107,-107,-78,9
-29,-29,0,29,-14,-14,-19,-97,-107,-107,-78,9
-29,-29,0,29,-14,-14,-19,-97,-107,-107,-78,9
-29,-24,4,26,-17,-9,-24,-97,-107,-102,-78,9
-29,-19,9,24,-19,-4,-29,-97,-107,-97,-78,9
-24,-9,14,17,-19,2,-29,-92,-102,-97,-78,9
-19,0,19,9,-19,9,-29,-87,-97,-97,-78,9
-19,9,29,4,-24,19,-19,-82,-97,-92,-73,19
-19,19,39,0,-29,29,-9,-78,-97,-87,-68,29
-19,29,48,-4,-34,39,0,-68,-78,-78,-58,43
-19,39,58,-9,-39,48,9,-58,-58,-68,-48,58
-14,39,53,-12,-34,46,14,-43,-58,-63,-43,58
-9,39,48,-14,-29,43,19,-29,-58,-58,-39,58
-4,39,43,-17,-24,41,19,-29,-53,-58,-39,58
0,39,39,-19,-19,39,19,-29,-48,-58,-39,58
9,43,34,-26,-12,39,9,-29,-48,-58,-34,63
19,48,29,-34,-4,39,0,-29,-48,-58,-29,68
9,53,43,-31,-17,48,-4,-24,-34,-43,-19,78
9,63,53,-36,-21,58,-14,-24,-19,-29,-9,87
9,78,68,-43,-29,73,-24,-24,-9,-14,0,102
14,97,82,-56,-34,90,-39,-39,-4,-9,9,112
14,112,97,-63,-41,104,-48,-63,-9,-9,4,117
4,102,97,-53,-46,100,-53,-87,-34,-34,-14,92
0,78,78,-39,-39,78,-63,-107,-58,-58,-34,82
0,78,78,-39,-39,78,-68,-107,-68,-63,-43,82
0,78,78,-39,-39,78,-68,-117,-78,-68,-43,82
24,82,58,-53,-17,70,-82,-117,-78,-68,-39,82
14,82,68,-48,-26,75,-87,-131,-92,-78,-39,87
-4,68,73,-31,-39,70,-97,-151,-117,-92,-53,82
4,73,68,-39,-31,70,-97,-156,-117,-92,-53,82
14,78,63,-46,-24,70,-97,-156,-112,-87,-53,87
14,82,68,-48,-26,75,-92,-161,-112,-82,-48,87
14,82,68,-48,-26,75,-87,-151,-97,-78,-39,87
4,73,68,-39,-31,70,-78,-141,-97,-82,-53,87
-9,53,63,-21,-36,58,-58,-131,-97,-87,-53,78
-19,29,48,-4,-34,39,-43,-122,-107,-92,-63,68
-29,-4,24,17,-26,9,-39,-122,-117,-107,-73,48
-29,-29,0,29,-14,-14,-34,-122,-122,-112,-87,43
-34,-39,-4,36,-14,-21,-34,-117,-126,-112,-92,34
-39,-39,0,39,-19,-19,-34,-117,-126,-117,-102,24
-48,-39,9,43,-29,-14,-29,-117,-131,-122,-112,19
-48,-39,9,43,-29,-14,-29,-117,-131,-126,-112,19
-48,-39,9,43,-29,-14,-29,-122,-131,-126,-112,14
-48,-43,4,46,-26,-19,-34,-122,-141,-136,-117,14
-53,-53,0,53,-26,-26,-34,-126,-151,-141,-122,14
-53,-68,-14,61,-19,-41,-34,-126,-151,-146,-126,14
-53,-82,-29,68,-12,-56,-34,-122,-151,-146,-126,9
-53,-82,-29,68,-12,-56,-43,-122,-156,-146,-126,9
-43,-82,-39,63,-2,-61,-48,-122,-156,-146,-126,9
-43,-63,-19,53,-12,-41,-39,-122,-156,-146,-122,14
-48,-58,-9,53,-19,-34,-29,-122,-156,-141,-117,19
-53,-63,-9,58,-21,-36,-29,-122,-156,-136,-117,19
-53,-63,-9,58,-21,-36,-29,-122,-151,-131,-117,19
-53,-63,-9,58,-21,-36,-29,-122,-151,-126,-112,24
-48,-63,-14,56,-17,-39,-29,-122,-151,-126,-112,24
-39,-58,-19,48,-9,-39,-34,-126,-156,-131,-107,29
-29,-63,-34,46,2,-48,-53,-136,-165,-136,-107,34
-29,-78,-48,53,9,-63,-58,-141,-170,-156,-126,9
-29,-107,-78,68,24,-92,-48,-117,-170,-180,-165,-29
-29,-122,-92,75,31,-107,-24,-53,-136,-185,-209,-82
-14,-136,-122,75,53,-129,9,43,-102,-185,-229,-117
0,-146,-146,73,73,-146,43,180,-39,-146,-224,-126
87,-92,-180,2,134,-136,19,263,58,-34,-112,-29
219,-9,-229,-104,224,-119,-97,204,92,117,82,161
322,131,-190,-226,256,-29,-268,-9,73,244,307,395
409,375,-34,-392,222,170,-463,-312,78,400,551,658
468,649,180,-558,143,414,-639,-624,73,561,785,922
556,902,346,-729,104,624,-834,-936,34,766,1122,1273
580,1117,536,-849,21,827,-1063,-1415,-175,795,1356,1576
307,1015,707,-661,-200,861,-1117,-1917,-600,409,1156,1551
19,580,561,-300,-270,570,-1078,-2205,-1063,-209,614,1185
-39,-29,9,34,-24,-9,-922,-2020,-1439,-771,43,697
-117,-253,-136,185,9,-195,-732,-1688,-1434,-976,-292,341
-82,-229,-146,156,31,-187,-590,-1185,-1185,-897,-370,200
-48,-131,-82,90,17,-107,-424,-785,-839,-644,-297,165
-39,-97,-58,68,9,-78,-292,-546,-561,-444,-234,112
-24,-107,-82,65,29,-95,-175,-307,-356,-292,-180,73
-24,-117,-92,70,34,-104,-39,-63,-185,-161,-117,48
-29,-107,-78,68,24,-92,39,58,-78,-87,-78,43
-34,-107,-73,70,19,-90,68,78,-29,-39,-63,48
-39,-92,-53,65,7,-73,73,97,-4,-29,-43,58
-39,-78,-39,58,0,-58,78,102,0,-24,-39,63
-39,-78,-39,58,0,-58,82,117,14,-19,-39,63
-39,-78,-39,58,0,-58,87,112,19,-19,-39,53
-43,-78,-34,61,-4,-56,92,107,24,-9,-39,43
-43,-82,-39,63,-2,-61,87,107,29,-14,-39,43
-43,-82,-39,63,-2,-61,82,112,29,-9,-43,39
-29,-73,-43,51,7,-58,82,112,29,-9,-43,29
-24,-63,-39,43,7,-51,87,112,34,-4,-43,19
-24,-58,-34,41,4,-46,87,112,43,4,-39,14
-24,-53,-29,39,2,-41,87,117,43,4,-39,9
-34,-53,-19,43,-7,-36,92,122,43,4,-39,4
-39,-53,-14,46,-12,-34,97,122,48,4,-39,0
-39,-73,-34,56,-2,-53,97,126,48,4,-39,-4
-39,-82,-43,61,2,-63,97,131,43,4,-34,-9
-43,-87,-43,65,0,-65,97,136,43,4,-34,-24
-43,-87,-43,65,0,-65,102,136,43,4,-34,-39
-43,-82,-39,63,-2,-61,102,136,48,9,-34,-39
-39,-68,-29,53,-4,-48,102,136,48,9,-34,-39
-34,-63,-29,48,-2,-46,102,141,53,9,-29,-43
-34,-63,-29,48,-2,-46,97,146,53,9,-29,-48
-34,-63,-29,48,-2,-46,92,146,58,9,-24,-48
-34,-68,-34,51,0,-51,92,151,63,14,-24,-48
-39,-78,-39,58,0,-58,97,161,68,19,-24,-53
-39,-78,-39,58,0,-58,97,161,68,29,-24,-58
-34,-78,-43,56,4,-61,97,165,73,29,-24,-58
-34,-78,-43,56,4,-61,97,170,78,34,-29,-63
-29,-68,-39,48,4,-53,102,175,82,39,-24,-63
-29,-68,-39,48,4,-53,102,180,92,43,-19,-63
-24,-63,-39,43,7,-51,102,185,97,53,-14,-58
-24,-53,-29,39,2,-41,107,195,107,58,-4,-58
-24,-48,-24,36,0,-36,112,195,112,63,-4,-63
-24,-48,-24,36,0,-36,117,200,122,68,0,-63
-24,-53,-29,39,2,-41,117,204,117,68,0,-68
-24,-58,-34,41,4,-46,117,209,117,68,0,-73
-24,-68,-43,46,9,-56,112,219,117,73,0,-68
-24,-73,-48,48,12,-61,112,224,117,78,0,-68
-24,-73,-48,48,12,-61,112,229,122,82,4,-68
-24,-68,-43,46,9,-56,112,229,136,87,4,-68
-29,-48,-19,39,-4,-34,112,234,141,97,9,-68
-34,-34,0,34,-17,-17,112,239,151,97,14,-73
-9,-24,-14,17,2,-19,122,253,161,112,19,-73
9,-19,-29,4,19,-24,126,263,165,117,24,-73
0,-24,-24,12,12,-24,126,268,170,117,29,-73
-9,-29,-19,19,4,-24,126,273,190,122,34,-73
-9,-29,-19,19,4,-24,126,268,190,122,39,-73
-9,-24,-14,17,2,-19,122,273,204,126,43,-68
-4,-14,-9,9,2,-12,122,273,209,136,43,-73
-4,-9,-4,7,0,-7,122,283,214,141,43,-78
0,4,4,-2,-2,4,117,283,219,151,48,-78
-4,19,24,-7,-14,21,112,292,234,161,58,-78
-9,19,29,-4,-19,24,112,302,244,165,58,-78
-9,19,29,-4,-19,24,117,312,253,170,58,-78
-9,14,24,-2,-17,19,126,317,263,175,63,-68
-9,14,24,-2,-17,19,131,326,273,185,73,-63
-9,19,29,-4,-19,24,131,336,283,195,78,-63
-4,24,29,-9,-17,26,136,341,292,204,82,-63
-4,39,43,-17,-24,41,141,351,307,214,87,-63
-4,48,53,-21,-29,51,141,361,317,219,87,-63
-4,48,53,-21,-29,51,146,370,331,229,87,-68
0,48,48,-24,-24,48,151,380,341,234,87,-78
0,48,48,-24,-24,48,151,390,351,244,87,-78
0,53,53,-26,-26,53,161,405,361,248,92,-73
-4,48,53,-21,-29,51,165,414,370,258,97,-68
-9,39,48,-14,-29,43,165,419,380,258,97,-73
-9,34,43,-12,-26,39,170,439,390,263,97,-78
-9,34,43,-12,-26,39,180,453,400,273,102,-82
-9,43,53,-17,-31,48,185,463,405,283,102,-82
-9,53,63,-21,-36,58,185,468,409,297,102,-82
-4,53,58,-24,-31,56,195,483,414,287,97,-87
0,53,53,-26,-26,53,195,492,419,283,97,-87
0,39,39,-19,-19,39,195,492,424,287,97,-87
4,29,24,-17,-9,26,195,497,424,287,97,-87
0,29,29,-14,-14,29,200,507,434,292,102,-87
-9,29,39,-9,-24,34,200,507,434,292,102,-87
-9,39,48,-14,-29,43,195,507,439,292,102,-87
-4,53,58,-24,-31,56,195,497,439,292,102,-82
-4,58,63,-26,-34,61,185,492,434,292,107,-78
4,63,58,-34,-26,61,175,483,424,292,112,-78
4,58,53,-31,-24,56,170,468,409,278,112,-73
0,53,53,-26,-26,53,165,448,390,268,112,-68
0,58,58,-29,-29,58,156,429,375,268,112,-58
0,58,58,-29,-29,58,146,409,356,258,112,-48
9,58,48,-34,-19,53,136,375,326,244,117,-43
19,58,39,-39,-9,48,117,346,297,229,117,-39
29,68,39,-48,-4,53,107,307,273,209,107,-34
39,73,34,-56,2,53,92,273,248,190,102,-34
24,73,48,-48,-12,61,78,234,224,175,102,-29
9,82,73,-46,-31,78,68,209,195,161,97,-14
14,82,68,-48,-26,75,53,180,165,141,92,-9
14,82,68,-48,-26,75,39,151,141,126,82,-9
24,82,58,-53,-17,70,29,117,117,107,78,-9
24,73,48,-48,-12,61,9,78,97,87,68,-14
9,53,43,-31,-17,48,0,53,68,68,53,-14
-4,43,48,-19,-26,46,-4,39,48,58,48,-14
4,43,39,-24,-17,41,-9,19,24,39,39,-14
14,53,39,-34,-12,46,-19,0,14,34,29,-19
4,53,48,-29,-21,51,-24,-14,9,24,29,-24
4,53,48,-29,-21,51,-29,-19,-14,14,19,-24
9,58,48,-34,-19,53,-34,-34,-19,9,14,-24
9,63,53,-36,-21,58,-34,-39,-19,4,14,-24
4,58,53,-31,-24,56,-34,-39,-19,-4,9,-29
0,58,58,-29,-29,58,-34,-43,-29,-4,9,-29
0,39,39,-19,-19,39,-34,-53,-29,-9,9,-29
-4,34,39,-14,-21,36,-43,-63,-29,-14,9,-34
-9,24,34,-7,-21,29,-43,-63,-34,-19,4,-34
-14,19,34,-2,-24,26,-39,-58,-34,-24,4,-34
-14,19,34,-2,-24,26,-29,-53,-34,-24,4,-39
-9,19,29,-4,-19,24,-19,-48,-34,-24,0,-43
-4,19,24,-7,-14,21,-29,-53,-34,-24,0,-48
0,19,19,-9,-9,19,-39,-53,-34,-19,0,-48
0,24,24,-12,-12,24,-39,-53,-34,-9,4,-43
4,24,19,-14,-7,21,-34,-58,-34,-4,4,-43
0,24,24,-12,-12,24,-34,-53,-34,-4,4,-43
-9,24,34,-7,-21,29,-34,-48,-24,0,14,-34
-14,19,34,-2,-24,26,-29,-48,-24,4,14,-39
-24,14,39,4,-31,26,-24,-43,-19,4,14,-43
-24,14,39,4,-31,26,-14,-39,-19,4,9,-48
-19,14,34,2,-26,24,-14,-39,-24,4,9,-48
-19,9,29,4,-24,19,-24,-43,-29,-4,4,-53
-24,4,29,9,-26,17,-29,-43,-34,-9,0,-58
-24,4,29,9,-26,17,-24,-43,-29,-4,0,-63
-24,9,34,7,-29,21,-24,-39,-29,0,0,-68
-9,19,29,-4,-19,24,-24,-39,-24,0,4,-63
4,29,24,-17,-9,26,-24,-43,-19,-4,4,-63
-9,19,29,-4,-19,24,-24,-43,-19,-4,4,-53
-19,4,24,7,-21,14,-24,-43,-24,-4,-4,-48
-19,-4,14,12,-17,4,-24,-43,-34,-19,-9,-53
-19,-4,14,12,-17,4,-24,-43,-34,-24,-9,-58
-19,0,19,9,-19,9,-19,-43,-34,-24,-9,-63
-24,0,24,12,-24,12,-19,-43,-39,-24,-9,-73
-24,4,29,9,-26,17,-19,-48,-39,-24,-9,-73
-19,9,29,4,-24,19,-19,-48,-39,-24,-14,-73
-19,9,29,4,-24,19,-19,-48,-39,-39,-24,-82
-19,9,29,4,-24,19,-24,-48,-53,-43,-29,-82
-19,4,24,7,-21,14,-24,-53,-53,-43,-34,-87
-24,4,29,9,-26,17,-19,-58,-58,-48,-39,-87
-29,4,34,12,-31,19,-14,-63,-68,-48,-39,-82
-39,0,39,19,-39,19,-14,-63,-73,-48,-43,-82
-39,0,39,19,-39,19,-14,-63,-73,-53,-43,-82
-39,0,39,19,-39,19,-14,-68,-73,-53,-43,-92
-29,0,29,14,-29,14,-14,-68,-78,-53,-48,-92
-24,-9,14,17,-19,2,-14,-63,-78,-63,-53,-97
-24,-9,14,17,-19,2,-19,-68,-78,-63,-53,-97
-24,0,24,12,-24,12,-24,-68,-82,-58,-53,-97
-29,-4,24,17,-26,9,-24,-73,-82,-58,-53,-97
-34,-9,24,21,-29,7,-24,-82,-87,-63,-58,-97
-29,-14,14,21,-21,0,-19,-82,-87,-68,-58,-97
-29,-14,14,21,-21,0,-19,-82,-87,-68,-58,-97
-24,-14,9,19,-17,-2,-14,-82,-87,-63,-63,-97
-24,-14,9,19,-17,-2,-14,-82,-87,-63,-68,-97
-24,-14,9,19,-17,-2,-14,-87,-87,-68,-68,-97
-24,-19,4,21,-14,-7,-14,-87,-87,-68,-73,-107
-24,-24,0,24,-12,-12,-19,-87,-97,-82,-73,-97
-24,-24,0,24,-12,-12,-24,-87,-97,-82,-73,-92
-29,-19,9,24,-19,-4,-19,-82,-92,-82,-63,-92
-29,-19,9,24,-19,-4,-19,-78,-87,-82,-53,-87
-34,-19,14,26,-24,-2,-24,-78,-87,-82,-53,-87
-39,-19,19,29,-29,0,-24,-78,-92,-82,-58,-87
-39,-19,19,29,-29,0,-24,-78,-97,-82,-63,-87
-39,-19,19,29,-29,0,-29,-82,-102,-82,-68,-87
-29,-19,9,24,-19,-4,-29,-87,-102,-82,-68,-87
-19,-19,0,19,-9,-9,-29,-87,-97,-82,-63,-87
-19,-19,0,19,-9,-9,-24,-82,-97,-82,-63,-87
-19,-24,-4,21,-7,-14,-24,-78,-102,-87,-63,-87
-29,-24,4,26,-17,-9,-24,-78,-102,-87,-68,-87
-39,-24,14,31,-26,-4,-24,-82,-102,-82,-68,-87
-43,-29,14,36,-29,-7,-19,-82,-92,-73,-58,-87
-48,-39,9,43,-29,-14,-19,-87,-87,-68,-48,-87
-48,-39,9,43,-29,-14,-19,-87,-97,-78,-58,-87
-48,-39,9,43,-29,-14,-19,-87,-107,-87,-68,-87
-39,-39,0,39,-19,-19,-19,-87,-107,-87,-68,-87
-29,-39,-9,34,-9,-24,-19,-87,-107,-87,-68,-87
-29,-34,-4,31,-12,-19,-19,-87,-107,-87,-68,-87
-29,-29,0,29,-14,-14,-19,-87,-107,-87,-68,-87
-29,-29,0,29,-14,-14,-19,-87,-107,-92,-68,-87
-29,-29,0,29,-14,-14,-19,-87,-107,-97,-68,-87
-29,-29,0,29,-14,-14,-19,-87,-107,-97,-68,-87
-29,-29,0,29,-14,-14,-19,-87,-107,-97,-68,-87
-29,-29,0,29,-14,-14,-19,-87,-107,-97,-68,-87
-29,-29,0,29,-14,-14,-19,-87,-107,-97,-68,-87
-29,-29,0,29,-14,-14,-19,-92,-107,-97,-73,-92
-29,-29,0,29,-14,-14,-19,-97,-107,-97,-78,-97
-29,-34,-4,31,-12,-19,-19,-97,-107,-97,-78,-97
-29,-39,-9,34,-9,-24,-19,-97,-107,-97,-78,-97
-34,-39,-4,36,-14,-21,-19,-97,-107,-97,-78,-92
-39,-39,0,39,-19,-19,-19,-97,-107,-97,-78,-87
-39,-34,4,36,-21,-14,-19,-97,-107,-87,-78,-87
-39,-29,9,34,-24,-9,-19,-97,-107,-78,-78,-87
-34,-29,4,31,-19,-12,-19,-97,-107,-87,-78,-87
-29,-29,0,29,-14,-14,-19,-97,-107,-97,-78,-87
-29,-29,0,29,-14,-14,-19,-97,-107,-97,-78,-87
-29,-29,0,29,-14,-14,-19,-97,-107,-97,-78,-87
-34,-29,4,31,-19,-12,-19,-97,-107,-97,-78,-87
-39,-29,9,34,-24,-9,-19,-97,-107,-97,-78,-87
-39,-29,9,34,-24,-9,-19,-97,-107,-97,-78,-87
-39,-29,9,34,-24,-9,-19,-97,-107,-97,-78,-87
-39,-34,4,36,-21,-14,-19,-97,-107,-102,-78,-87
-39,-39,0,39,-19,-19,-19,-97,-107,-107,-78,-87
-34,-39,-4,36,-14,-21,-19,-97,-107,-107,-78,-87
-29,-39,-9,34,-9,-24,-19,-97,-107,-107,-78,-87
-29,-34,-4,31,-12,-19,-19,-97,-107,-102,-78,-87
-29,-29,0,29,-14,-14,-19,-97,-107,-97,-78,-87
-29,-29,0,29,-14,-14,-19,-97,-107,-97,-78,-87
-29,-29,0,29,-14,-14,-19,-97,-107,-97,-78,-87
-34,-34,0,34,-17,-17,-19,-97,-107,-97,-78,-87
-39,-39,0,39,-19,-19,-19,-97,-107,-97,-78,-87
-39,-39,0,39,-19,-19,-19,-97,-107,-97,-78,-87
-39,-39,0,39,-19,-19,-19,-97,-107,-97,-78,-87
-34,-29,4,31,-19,-12,-19,-97,-107,-97,-78,-87
-29,-19,9,24,-19,-4,-19,-97,-107,-97,-78,-87
-29,-19,9,24,-19,-4,-19,-97,-107,-97,-78,-87
-29,-19,9,24,-19,-4,-19,-97,-107,-97,-78,-87
-29,-19,9,24,-19,-4,-19,-97,-107,-97,-78,-87
-29,-19,9,24,-19,-4,-19,-97,-107,-97,-78,-87
-24,-19,4,21,-14,-7,-14,-92,-107,-97,-78,-82
-19,-19,0,19,-9,-9,-9,-87,-107,-97,-78,-78
-19,-14,4,17,-12,-4,-9,-78,-97,-92,-73,-73
-19,-9,9,14,-14,0,-9,-68,-87,-87,-68,-68
-14,4,19,4,-17,12,-4,-63,-82,-78,-63,-68
-9,19,29,-4,-19,24,0,-58,-78,-68,-58,-68
-4,29,34,-12,-19,31,14,-43,-63,-58,-48,-53
0,39,39,-19,-19,39,29,-29,-48,-48,-39,-39
0,43,43,-21,-21,43,29,-24,-43,-43,-34,-34
0,48,48,-24,-24,48,29,-19,-39,-39,-29,-29
0,48,48,-24,-24,48,24,-19,-39,-34,-29,-29
0,48,48,-24,-24,48,19,-19,-39,-29,-29,-29
0,53,53,-26,-26,53,14,-24,-39,-29,-24,-29
4,63,58,-34,-26,61,4,-24,-29,-19,-14,-19
9,78,68,-43,-29,73,-4,-29,-24,-14,-9,-14
14,97,82,-56,-34,90,-19,-39,-14,-9,0,-4
14,112,97,-63,-41,104,-34,-58,-14,0,0,4
4,102,97,-53,-46,100,-43,-78,-34,-14,-14,-14
0,78,78,-39,-39,78,-53,-97,-53,-43,-34,-24
0,78,78,-39,-39,78,-58,-97,-58,-53,-43,-24
-14,87,102,-36,-58,95,-53,-107,-68,-58,-43,-24
-4,102,107,-48,-56,104,-63,-107,-68,-58,-39,-24
4,92,87,-48,-41,90,-68,-122,-73,-63,-39,-24
4,68,63,-36,-29,65,-78,-141,-87,-73,-53,-34
9,68,58,-39,-24,63,-87,-151,-102,-78,-53,-34
14,68,53,-41,-19,61,-97,-156,-112,-78,-53,-29
14,73,58,-43,-21,65,-97,-161,-112,-73,-43,-29
14,73,58,-43,-21,65,-97,-151,-97,-68,-29,-29
4,78,73,-41,-34,75,-87,-141,-92,-68,-39,-24
-9,73,82,-31,-46,78,-68,-131,-87,-68,-34,-29
-19,48,68,-14,-43,58,-43,-122,-92,-73,-43,-39
-29,14,43,7,-36,29,-29,-122,-97,-87,-53,-58
-29,-14,14,21,-21,0,-24,-122,-107,-97,-78,-73
-34,-29,4,31,-19,-12,-24,-117,-117,-102,-92,-92
-39,-43,-4,41,-17,-24,-24,-117,-122,-112,-102,-102
-48,-58,-9,53,-19,-34,-19,-117,-131,-122,-112,-107
-48,-58,-9,53,-19,-34,-19,-117,-131,-126,-112,-107
-48,-58,-9,53,-19,-34,-19,-122,-131,-126,-112,-112
-43,-53,-9,48,-17,-31,-24,-122,-131,-126,-107,-112
-43,-53,-9,48,-17,-31,-24,-126,-131,-122,-102,-112
-43,-58,-14,51,-14,-36,-24,-126,-131,-126,-107,-112
-43,-63,-19,53,-12,-41,-24,-122,-131,-126,-107,-117
-48,-63,-14,56,-17,-39,-24,-117,-136,-126,-107,-117
-43,-63,-19,53,-12,-41,-19,-112,-136,-126,-107,-117
-43,-53,-9,48,-17,-31,-24,-112,-136,-126,-107,-117
-48,-58,-9,53,-19,-34,-29,-112,-136,-122,-107,-117
-53,-63,-9,58,-21,-36,-29,-112,-136,-122,-107,-117
-53,-63,-9,58,-21,-36,-29,-112,-131,-122,-107,-117
-53,-58,-4,56,-24,-31,-24,-112,-131,-117,-102,-112
-48,-53,-4,51,-21,-29,-19,-112,-131,-117,-102,-112
-39,-53,-14,46,-12,-34,-24,-117,-136,-122,-102,-107
-29,-63,-34,46,2,-48,-43,-126,-146,-126,-107,-102
-29,-78,-48,53,9,-63,-53,-146,-156,-136,-117,-107
-29,-107,-78,68,24,-92,-48,-136,-161,-151,-146,-126
-39,-122,-82,80,21,-102,-24,-92,-146,-175,-209,-200
-34,-136,-102,85,34,-119,9,-14,-131,-195,-248,-253
-39,-170,-131,104,46,-151,63,151,-68,-185,-278,-302
29,-141,-170,56,100,-156,58,263,29,-102,-200,-244
165,-92,-258,-36,212,-175,-24,283,82,48,-24,-82
273,14,-258,-143,265,-122,-161,146,82,175,180,122
366,258,-107,-312,236,75,-375,-175,107,331,434,380
429,531,102,-480,163,317,-570,-507,122,492,678,639
561,854,292,-707,134,573,-756,-766,156,785,1068,1039
629,1137,507,-883,61,822,-976,-1190,19,902,1356,1390
366,1161,795,-763,-214,978,-1093,-1800,-405,610,1288,1493
87,854,766,-470,-339,810,-1117,-2196,-868,82,878,1254
0,126,126,-63,-63,126,-966,-2108,-1361,-605,209,707
-107,-214,-107,161,0,-161,-780,-1873,-1473,-936,-224,292
-82,-219,-136,151,26,-178,-653,-1351,-1278,-936,-361,107
-58,-151,-92,104,17,-122,-502,-932,-985,-761,-346,29
-48,-97,-48,73,0,-73,-346,-663,-668,-522,-268,-14
-34,-87,-53,61,9,-70,-204,-395,-424,-331,-200,-43
-19,-112,-92,65,36,-102,-68,-112,-234,-190,-136,-87
-9,-117,-107,63,48,-112,9,48,-107,-107,-97,-112
-19,-117,-97,68,39,-107,53,68,-39,-43,-78,-107
-29,-102,-73,65,21,-87,73,87,4,-19,-53,-97
-34,-73,-39,53,2,-56,73,92,4,-9,-43,-87
-39,-58,-19,48,-9,-39,73,107,14,0,-39,-82
-39,-53,-14,46,-12,-34,78,107,24,0,-39,-82
-43,-48,-4,46,-19,-26,82,107,34,9,-39,-82
-43,-53,-9,48,-17,-31,82,107,34,0,-39,-82
-43,-53,-9,48,-17,-31,82,112,29,0,-43,-87
-34,-53,-19,43,-7,-36,82,117,29,0,-39,-82
-34,-53,-19,43,-7,-36,87,122,34,4,-34,-78
-29,-58,-29,43,0,-43,87,122,43,24,-29,-78
-24,-63,-39,43,7,-51,87,126,43,34,-29,-78
-29,-63,-34,46,2,-48,87,131,39,24,-34,-78
-29,-63,-34,46,2,-48,87,131,39,14,-39,-78
-34,-73,-39,53,2,-56,87,131,43,14,-39,-82
-39,-73,-34,56,-2,-53,87,131,43,14,-34,-87
-43,-78,-34,61,-4,-56,82,136,48,14,-34,-87
-43,-78,-34,61,-4,-56,82,136,53,14,-34,-87
-43,-78,-34,61,-4,-56,82,141,58,24,-34,-82
-39,-68,-29,53,-4,-48,82,146,58,29,-34,-78
-34,-63,-29,48,-2,-46,87,151,63,34,-29,-78
-34,-63,-29,48,-2,-46,87,156,63,39,-29,-78
-29,-53,-24,41,-2,-39,87,151,68,39,-24,-78
-24,-48,-24,36,0,-36,92,151,73,43,-24,-78
-29,-58,-29,43,0,-43,97,161,78,43,-24,-78
-29,-58,-29,43,0,-43,97,161,78,48,-24,-78
-24,-68,-43,46,9,-56,97,165,82,43,-19,-78
-24,-78,-53,51,14,-65,97,170,87,43,-19,-82
-24,-68,-43,46,9,-56,102,175,87,39,-14,-82
-29,-68,-39,48,4,-53,102,180,92,34,-9,-82
-24,-73,-48,48,12,-61,102,185,92,48,-9,-78
-24,-73,-48,48,12,-61,107,195,97,58,-4,-78
-19,-68,-48,43,14,-58,107,195,102,63,-4,-78
-14,-68,-53,41,19,-61,107,200,112,68,0,-73
-14,-63,-48,39,17,-56,107,204,117,73,4,-73
-14,-58,-43,36,14,-51,107,209,126,78,9,-73
-14,-63,-48,39,17,-56,107,219,131,82,9,-68
-14,-63,-48,39,17,-56,112,224,136,87,9,-68
-19,-73,-53,46,17,-63,112,229,136,87,9,-73
-24,-78,-53,51,14,-65,112,229,146,87,4,-78
-19,-68,-48,43,14,-58,112,234,151,97,9,-73
-14,-63,-48,39,17,-56,112,239,161,97,14,-73
-9,-53,-43,31,17,-48,117,248,170,112,24,-73
-9,-48,-39,29,14,-43,117,253,175,117,34,-73
-9,-48,-39,29,14,-43,117,258,175,117,39,-68
-9,-48,-39,29,14,-43,117,263,190,122,43,-63
-4,-34,-29,19,12,-31,122,263,195,141,48,-58
0,-14,-14,7,7,-14,122,273,214,165,53,-48
4,-14,-19,4,12,-17,122,273,224,165,58,-48
4,-19,-24,7,14,-21,122,283,234,161,63,-48
14,-9,-24,-2,19,-17,122,283,229,170,63,-43
14,0,-14,-7,14,-7,122,292,234,180,68,-39
9,0,-9,-4,9,-4,122,302,244,180,68,-43
9,0,-9,-4,9,-4,126,312,253,180,68,-48
9,-4,-14,-2,12,-9,131,317,268,185,73,-48
9,-4,-14,-2,12,-9,131,326,283,195,82,-53
4,0,-4,-2,4,-2,131,341,292,204,82,-53
4,4,0,-4,2,2,136,351,302,214,82,-53
4,9,4,-7,0,7,141,361,317,224,87,-48
4,9,4,-7,0,7,141,370,326,229,87,-43
0,9,9,-4,-4,9,146,375,341,244,97,-43
0,9,9,-4,-4,9,151,380,351,253,107,-48
0,9,9,-4,-4,9,151,390,361,263,107,-43
0,14,14,-7,-7,14,161,405,370,268,112,-34
0,9,9,-4,-4,9,165,414,375,278,117,-34
0,0,0,0,0,0,165,419,380,278,117,-43
4,4,0,-4,2,2,170,439,390,283,112,-48
9,14,4,-12,2,9,180,453,400,292,112,-53
9,14,4,-12,2,9,185,463,405,292,112,-58
9,14,4,-12,2,9,185,468,409,297,112,-63
9,14,4,-12,2,9,195,478,424,297,112,-68
9,14,4,-12,2,9,195,483,439,302,117,-68
9,9,0,-9,4,4,195,483,444,307,117,-68
14,9,-4,-12,9,2,195,488,444,307,117,-68
14,9,-4,-12,9,2,200,497,448,312,122,-68
9,9,0,-9,4,4,200,497,444,312,122,-68
9,14,4,-12,2,9,195,502,444,317,122,-63
14,24,9,-19,2,17,195,497,439,322,122,-53
14,29,14,-21,0,21,190,497,444,322,126,-43
24,34,9,-29,7,21,185,492,444,322,131,-39
24,29,4,-26,9,17,180,478,429,307,131,-43
19,24,4,-21,7,14,175,458,409,297,131,-48
19,29,9,-24,4,19,165,439,400,292,131,-39
19,29,9,-24,4,19,156,419,385,278,131,-29
14,29,14,-21,0,21,146,385,356,263,131,-19
9,29,19,-19,-4,24,126,356,326,248,126,-9
9,24,14,-17,-2,19,117,326,297,234,117,-4
9,14,4,-12,2,9,102,302,268,219,112,-4
9,24,14,-17,-2,19,87,253,248,209,112,0
9,43,34,-26,-12,39,78,219,224,200,107,14
24,53,29,-39,-2,41,63,190,195,180,107,24
34,63,29,-48,2,46,48,161,170,165,102,29
34,63,29,-48,2,46,34,136,146,146,97,29
24,53,29,-39,-2,41,9,107,126,126,87,24
24,39,14,-31,4,26,9,82,92,92,73,24
24,34,9,-29,7,21,14,68,68,68,68,24
24,24,0,-24,12,12,9,43,43,58,58,24
24,24,0,-24,12,12,0,19,34,63,48,19
4,24,19,-14,-7,21,-9,0,29,53,43,14
-4,24,29,-9,-17,26,-19,-9,4,43,29,14
0,19,19,-9,-9,19,-24,-24,-4,34,24,14
0,14,14,-7,-7,14,-24,-29,-9,24,24,14
0,9,9,-4,-4,9,-24,-29,-9,14,19,9
0,9,9,-4,-4,9,-24,-34,-19,14,19,9
0,-4,-4,2,2,-4,-24,-34,-19,14,19,14
-4,-4,0,4,-2,-2,-34,-34,-19,14,19,14
-4,-9,-4,7,0,-7,-34,-43,-24,9,19,14
-4,-9,-4,7,0,-7,-29,-48,-24,4,24,14
-4,-9,-4,7,0,-7,-24,-48,-24,4,24,9
0,-9,-9,4,4,-9,-19,-48,-24,4,19,4
-4,-9,-4,7,0,-7,-19,-53,-24,4,19,0
-9,-9,0,9,-4,-4,-19,-53,-24,9,19,0
-9,-4,4,7,-7,0,-19,-48,-24,9,19,0
-4,-4,0,4,-2,-2,-14,-48,-24,4,14,-4
0,-4,-4,2,2,-4,-14,-43,-24,4,9,-4
0,-4,-4,2,2,-4,-14,-39,-14,9,14,4
0,-9,-9,4,4,-9,-14,-39,-14,14,14,4
-4,-14,-9,9,2,-12,-14,-34,-9,14,14,4
-4,-14,-9,9,2,-12,-9,-29,-9,9,9,0
0,-14,-14,7,7,-14,-14,-29,-14,4,9,0
0,-14,-14,7,7,-14,-19,-34,-14,0,9,0
-4,-14,-9,9,2,-12,-19,-34,-14,0,9,0
-4,-14,-9,9,2,-12,-14,-34,-9,0,9,0
-4,-9,-4,7,0,-7,-14,-29,-9,0,9,0
-4,-19,-14,12,4,-17,-14,-29,-9,0,9,0
-4,-29,-24,17,9,-26,-14,-34,-9,-4,4,-4
-9,-14,-4,12,-2,-9,-9,-34,-9,0,4,-4
-9,-4,4,7,-7,0,-4,-34,-14,4,-4,-9
-9,-14,-4,12,-2,-9,-4,-34,-24,-9,-9,-14
-9,-14,-4,12,-2,-9,-4,-34,-24,-14,-9,-19
-9,-14,-4,12,-2,-9,0,-39,-29,-14,-9,-19
-14,-19,-4,17,-4,-12,0,-43,-39,-14,-9,-24
-14,-19,-4,17,-4,-12,0,-48,-39,-14,-9,-24
-9,-19,-9,14,0,-14,0,-48,-39,-14,-14,-24
-9,-19,-9,14,0,-14,0,-48,-34,-29,-24,-34
-9,-19,-9,14,0,-14,-4,-48,-43,-34,-29,-34
-9,-24,-14,17,2,-19,-9,-48,-43,-34,-29,-39
-14,-24,-9,19,-2,-17,-9,-48,-48,-39,-29,-39
-14,-19,-4,17,-4,-12,-9,-53,-53,-39,-29,-34
-19,-19,0,19,-9,-9,-14,-53,-53,-39,-34,-34
-19,-19,0,19,-9,-9,-14,-53,-53,-43,-34,-29
-19,-19,0,19,-9,-9,-14,-58,-53,-43,-34,-34
-19,-24,-4,21,-7,-14,-14,-63,-63,-43,-39,-34
-24,-39,-14,31,-4,-26,-14,-63,-68,-53,-43,-39
-24,-39,-14,31,-4,-26,-14,-68,-68,-58,-43,-43
-24,-29,-4,26,-9,-17,-14,-68,-73,-58,-43,-48
-24,-29,-4,26,-9,-17,-14,-68,-73,-58,-43,-48
-24,-29,-4,26,-9,-17,-14,-73,-78,-63,-48,-48
-19,-34,-14,26,-2,-24,-9,-73,-78,-78,-53,-48
-19,-34,-14,26,-2,-24,-9,-73,-78,-87,-58,-48
-19,-34,-14,26,-2,-24,-9,-68,-78,-73,-58,-48
-24,-34,-9,29,-7,-21,-14,-63,-78,-63,-58,-48
-24,-34,-9,29,-7,-21,-14,-68,-78,-68,-53,-39
-24,-39,-14,31,-4,-26,-14,-68,-78,-68,-53,-39
-24,-43,-19,34,-2,-31,-14,-73,-87,-82,-53,-39
-24,-43,-19,34,-2,-31,-14,-78,-87,-82,-53,-43
-29,-39,-9,34,-9,-24,-9,-78,-87,-82,-58,-53
-29,-39,-9,34,-9,-24,-9,-78,-87,-82,-63,-58
-29,-39,-9,34,-9,-24,-14,-78,-82,-82,-63,-58
-29,-39,-9,34,-9,-24,-14,-78,-82,-82,-68,-58
-29,-43,-14,36,-7,-29,-9,-78,-82,-82,-68,-53
-29,-48,-19,39,-4,-34,-9,-82,-82,-82,-68,-48
-29,-48,-19,39,-4,-34,-9,-87,-82,-82,-68,-48
-29,-48,-19,39,-4,-34,-9,-87,-78,-82,-63,-48
-29,-48,-19,39,-4,-34,-9,-82,-78,-82,-63,-48
-29,-53,-24,41,-2,-39,-14,-78,-82,-87,-63,-48
-29,-53,-24,41,-2,-39,-19,-78,-82,-87,-68,-48
-29,-53,-24,41,-2,-39,-24,-82,-82,-82,-68,-48
-24,-53,-29,39,2,-41,-14,-82,-87,-92,-68,-48
-19,-58,-39,39,9,-48,-9,-87,-97,-107,-68,-48
-19,-48,-29,34,4,-39,-9,-87,-97,-97,-68,-48
-19,-39,-19,29,0,-29,-9,-87,-97,-87,-68,-48
-24,-39,-14,31,-4,-26,-9,-82,-92,-87,-68,-53
-29,-39,-9,34,-9,-24,-9,-78,-87,-87,-68,-58
-29,-43,-14,36,-7,-29,-9,-78,-87,-87,-68,-58
-29,-48,-19,39,-4,-34,-9,-78,-87,-87,-68,-58
-29,-58,-29,43,0,-43,-9,-82,-92,-92,-68,-58
-29,-68,-39,48,4,-53,-9,-87,-97,-97,-68,-58
-29,-58,-29,43,0,-43,-9,-87,-97,-97,-68,-58
-29,-48,-19,39,-4,-34,-9,-87,-97,-97,-68,-58
-29,-48,-19,39,-4,-34,-14,-87,-92,-92,-68,-53
-29,-48,-19,39,-4,-34,-19,-87,-87,-87,-68,-48
-29,-48,-19,39,-4,-34,-19,-87,-87,-87,-68,-48
-29,-48,-19,39,-4,-34,-19,-87,-87,-87,-68,-48
-29,-53,-24,41,-2,-39,-14,-87,-97,-97,-68,-53
-29,-58,-29,43,0,-43,-9,-87,-107,-107,-68,-58
-29,-58,-29,43,0,-43,-9,-87,-107,-107,-68,-58
-29,-58,-29,43,0,-43,-9,-87,-107,-107,-68,-58
-29,-53,-24,41,-2,-39,-9,-87,-102,-102,-68,-53
-29,-48,-19,39,-4,-34,-9,-87,-97,-97,-68,-48
-29,-48,-19,39,-4,-34,-9,-87,-97,-87,-68,-48
-29,-48,-19,39,-4,-34,-9,-87,-97,-78,-68,-48
-24,-48,-24,36,0,-36,-9,-82,-97,-87,-73,-53
-19,-48,-29,34,4,-39,-9,-78,-97,-97,-78,-58
-19,-48,-29,34,4,-39,-9,-78,-97,-97,-78,-58
-19,-48,-29,34,4,-39,-9,-78,-97,-97,-78,-58
-19,-48,-29,34,4,-39,-9,-82,-97,-97,-78,-58
-19,-48,-29,34,4,-39,-9,-87,-97,-97,-78,-58
-19,-48,-29,34,4,-39,-9,-87,-97,-97,-78,-58
-19,-48,-29,34,4,-39,-9,-87,-97,-97,-78,-58
-24,-53,-29,39,2,-41,-9,-87,-102,-102,-78,-58
-29,-58,-29,43,0,-43,-9,-87,-107,-107,-78,-58
-29,-58,-29,43,0,-43,-14,-87,-107,-107,-78,-58
-29,-58,-29,43,0,-43,-19,-87,-107,-107,-78,-58
-29,-58,-29,43,0,-43,-19,-87,-102,-92,-78,-58
-29,-58,-29,43,0,-43,-19,-87,-97,-78,-78,-58
-29,-58,-29,43,0,-43,-14,-87,-97,-87,-78,-58
-29,-58,-29,43,0,-43,-9,-87,-97,-97,-78,-58
-29,-58,-29,43,0,-43,-9,-87,-97,-97,-78,-58
-29,-58,-29,43,0,-43,-9,-87,-97,-97,-78,-58
-29,-58,-29,43,0,-43,-9,-87,-97,-102,-78,-58
-29,-58,-29,43,0,-43,-9,-87,-97,-107,-78,-58
-29,-48,-19,39,-4,-34,-14,-87,-97,-107,-78,-58
-29,-39,-9,34,-9,-24,-19,-87,-97,-107,-78,-58
-24,-39,-14,31,-4,-26,-19,-87,-97,-97,-73,-53
-19,-39,-19,29,0,-29,-19,-87,-97,-87,-68,-48
-19,-34,-14,26,-2,-24,-14,-82,-97,-87,-68,-43
-19,-29,-9,24,-4,-19,-9,-78,-97,-87,-68,-39
-19,-19,0,19,-9,-9,-4,-68,-87,-82,-63,-39
-19,-9,9,14,-14,0,0,-58,-78,-78,-58,-39
-14,-4,9,9,-12,2,4,-53,-63,-68,-53,-34
-9,0,9,4,-9,4,9,-48,-48,-58,-48,-29
-9,0,9,4,-9,4,19,-34,-43,-58,-48,-29
-9,0,9,4,-9,4,29,-19,-39,-58,-48,-29
-4,4,9,0,-7,7,29,-19,-34,-48,-39,-24
0,9,9,-4,-4,9,29,-19,-29,-39,-29,-19
0,24,24,-12,-12,24,24,-19,-19,-29,-24,-14
0,39,39,-19,-19,39,19,-19,-9,-19,-19,-9
4,43,39,-24,-17,41,14,-29,-19,-29,-14,-9
9,53,43,-31,-17,48,0,-34,-19,-24,-9,-4
19,63,43,-41,-12,53,-9,-43,-19,-24,-9,0
24,78,53,-51,-14,65,-29,-58,-14,-19,-9,4
24,92,68,-58,-21,80,-39,-73,-14,-19,-9,14
14,82,68,-48,-26,75,-43,-87,-34,-43,-24,-4
9,63,53,-36,-21,58,-53,-107,-48,-58,-34,-4
9,68,58,-39,-24,63,-58,-107,-48,-53,-34,4
-4,68,73,-31,-39,70,-58,-117,-58,-58,-34,4
4,73,68,-39,-31,70,-73,-117,-58,-58,-29,4
9,68,58,-39,-24,63,-78,-131,-73,-68,-29,4
4,48,43,-26,-19,46,-87,-151,-97,-82,-43,-4
4,39,34,-21,-14,36,-87,-156,-102,-92,-48,-9
4,29,24,-17,-9,26,-87,-156,-102,-97,-53,-9
9,43,34,-26,-12,39,-87,-156,-102,-92,-48,-9
14,53,39,-34,-12,46,-87,-141,-87,-87,-39,-9
4,48,43,-26,-19,46,-78,-131,-87,-87,-53,-14
-9,34,43,-12,-26,39,-58,-122,-87,-87,-53,-29
-29,-4,24,17,-26,9,-39,-112,-97,-92,-63,-39
-48,-53,-4,51,-21,-29,-29,-112,-107,-107,-73,-58
-39,-68,-29,53,-4,-48,-24,-112,-112,-112,-82,-58
-34,-68,-34,51,0,-51,-24,-107,-117,-112,-82,-63
-34,-73,-39,53,2,-56,-24,-107,-122,-122,-92,-73
-39,-78,-39,58,0,-58,-19,-107,-131,-131,-102,-78
-39,-78,-39,58,0,-58,-19,-107,-131,-131,-102,-73
-39,-78,-39,58,0,-58,-19,-112,-131,-126,-102,-73
-39,-78,-39,58,0,-58,-24,-112,-136,-131,-102,-73
-43,-82,-39,63,-2,-61,-24,-117,-141,-131,-102,-73
-43,-97,-53,70,4,-75,-24,-117,-141,-146,-117,-78
-43,-112,-68,78,12,-90,-24,-112,-141,-156,-126,-87
-48,-102,-53,75,2,-78,-24,-112,-141,-146,-117,-87
-43,-92,-48,68,2,-70,-19,-112,-136,-136,-107,-87
-43,-78,-34,61,-4,-56,-19,-112,-136,-136,-107,-87
-48,-78,-29,63,-9,-53,-19,-112,-136,-131,-107,-87
-53,-92,-39,73,-7,-65,-14,-112,-141,-141,-112,-87
-53,-102,-48,78,-2,-75,-9,-112,-141,-151,-117,-87
-53,-102,-48,78,-2,-75,-9,-112,-141,-146,-112,-82
-48,-102,-53,75,2,-78,-9,-112,-141,-146,-112,-82
-39,-97,-58,68,9,-78,-19,-117,-141,-141,-107,-82
-29,-102,-73,65,21,-87,-43,-126,-146,-136,-107,-82
-24,-112,-87,68,31,-100,-43,-122,-151,-156,-126,-107
-19,-136,-117,78,48,-126,-29,-87,-151,-180,-165,-146
-19,-146,-126,82,53,-136,-4,-24,-117,-180,-204,-195
-4,-156,-151,80,73,-153,29,73,-82,-175,-219,-224
19,-156,-175,68,97,-165,34,180,-14,-112,-185,-200
117,-92,-209,-12,163,-151,-19,234,87,24,-43,-68
239,19,-219,-129,229,-100,-136,170,122,180,161,131
331,190,-141,-261,236,24,-307,-48,102,312,395,375
400,434,34,-417,183,234,-492,-351,97,463,649,649
439,707,268,-573,85,488,-658,-663,82,619,893,922
478,917,439,-697,19,678,-824,-971,-29,732,1132,1205
453,1088,634,-771,-90,861,-1024,-1444,-312,668,1268,1439
219,907,688,-563,-234,797,-1029,-1830,-727,244,990,1327
-29,395,424,-183,-226,409,-941,-2000,-1180,-414,370,873
-63,-136,-73,100,4,-104,-785,-1786,-1454,-868,-117,434
-117,-283,-165,200,24,-224,-595,-1424,-1346,-966,-370,126
-82,-258,-175,170,46,-217,-478,-985,-1098,-868,-414,9
-48,-161,-112,104,31,-136,-336,-649,-751,-595,-307,0
-39,-131,-92,85,26,-112,-219,-429,-488,-395,-234,-43
-24,-146,-122,85,48,-134,-117,-209,-297,-244,-170,-73
-24,-146,-122,85,48,-134,-4,-4,-136,-122,-107,-87
-29,-126,-97,78,34,-112,48,78,-39,-58,-68,-82
-29,-117,-87,73,29,-102,73,87,0,-14,-53,-78
-29,-92,-63,61,17,-78,73,97,14,-9,-34,-68
-29,-82,-53,56,12,-68,73,102,14,-4,-29,-63
-29,-87,-58,58,14,-73,73,117,24,0,-29,-63
-29,-87,-58,58,14,-73,78,117,29,0,-34,-63
-34,-87,-53,61,9,-70,82,117,34,9,-39,-63
-34,-87,-53,61,9,-70,82,117,34,0,-39,-63
-34,-82,-48,58,7,-65,82,122,29,0,-43,-68
-24,-82,-58,53,17,-70,82,122,29,-4,-43,-68
-24,-82,-58,53,17,-70,87,122,34,-4,-43,-68
-24,-78,-53,51,14,-65,87,122,43,4,-39,-63
-24,-73,-48,48,12,-61,87,126,43,4,-39,-58
-29,-68,-39,48,4,-53,87,126,48,9,-34,-58
-29,-63,-34,46,2,-48,87,122,58,14,-29,-58
-24,-73,-48,48,12,-61,87,122,63,24,-29,-58
-19,-73,-53,46,17,-63,87,122,63,34,-24,-58
-24,-82,-58,53,17,-70,87,131,58,24,-29,-63
-24,-87,-63,56,19,-75,92,136,53,14,-34,-68
-29,-92,-63,61,17,-78,92,136,58,19,-34,-68
-29,-87,-58,58,14,-73,92,136,58,19,-34,-68
-24,-82,-58,53,17,-70,92,136,63,24,-29,-68
-24,-82,-58,53,17,-70,87,136,63,29,-29,-68
-34,-82,-48,58,7,-65,87,136,68,29,-19,-68
-43,-87,-43,65,0,-65,92,141,73,34,-14,-68
-39,-97,-58,68,9,-78,97,151,78,34,-14,-68
-29,-97,-68,63,19,-82,97,151,78,39,-14,-68
-24,-87,-63,56,19,-75,97,156,87,48,-9,-63
-24,-78,-53,51,14,-65,97,161,97,63,-9,-63
-19,-68,-48,43,14,-58,102,170,102,58,-9,-63
-19,-68,-48,43,14,-58,102,180,112,53,-9,-63
-14,-82,-68,48,26,-75,102,185,107,58,-9,-58
-14,-92,-78,53,31,-85,107,195,107,58,-4,-58
-14,-87,-73,51,29,-80,107,190,112,63,-4,-63
-14,-87,-73,51,29,-80,107,190,122,68,0,-63
-14,-87,-73,51,29,-80,107,195,131,78,9,-58
-14,-87,-73,51,29,-80,107,200,146,87,19,-53
-14,-82,-68,48,26,-75,107,214,151,92,19,-48
-14,-73,-58,43,21,-65,112,224,156,97,19,-48
-14,-73,-58,43,21,-65,112,229,151,97,19,-58
-14,-68,-53,41,19,-61,112,229,156,97,14,-68
-9,-58,-48,34,19,-53,112,229,161,107,19,-63
-4,-53,-48,29,21,-51,112,229,170,107,24,-63
-9,-43,-34,26,12,-39,117,239,185,122,29,-63
-19,-39,-19,29,0,-29,117,244,195,126,34,-63
-9,-43,-34,26,12,-39,117,248,195,141,43,-58
0,-48,-48,24,24,-48,117,253,209,161,53,-53
0,-53,-53,26,26,-53,112,258,209,151,48,-53
0,-53,-53,26,26,-53,102,273,224,146,43,-48
4,-43,-48,19,26,-46,117,273,234,156,48,-43
4,-39,-43,17,24,-41,131,283,244,161,53,-39
14,-29,-43,7,29,-36,131,283,248,170,63,-34
14,-19,-34,2,24,-26,131,292,263,180,78,-29
14,-19,-34,2,24,-26,126,302,268,185,78,-34
19,-19,-39,0,29,-29,126,312,273,190,78,-39
19,-14,-34,-2,26,-24,131,317,283,195,78,-34
19,-4,-24,-7,21,-14,131,326,292,204,82,-34
14,0,-14,-7,14,-7,131,336,307,214,82,-34
14,4,-9,-9,12,-2,136,341,322,224,82,-34
4,0,-4,-2,4,-2,141,351,336,234,87,-34
-4,-9,-4,7,0,-7,141,361,346,239,87,-34
0,-9,-9,4,4,-9,146,370,361,248,92,-34
9,-9,-19,0,14,-14,151,380,370,253,97,-39
14,-4,-19,-4,17,-12,151,390,380,263,102,-39
19,4,-14,-12,17,-4,161,405,390,268,112,-34
19,9,-9,-14,14,0,175,414,400,278,117,-34
19,9,-9,-14,14,0,185,419,409,278,117,-43
14,4,-9,-9,12,-2,175,429,414,278,107,-48
9,4,-4,-7,7,0,170,434,419,283,102,-53
9,9,0,-9,4,4,175,444,424,283,102,-53
9,14,4,-12,2,9,175,448,429,287,102,-53
9,24,14,-17,-2,19,190,458,439,292,102,-58
9,34,24,-21,-7,29,195,463,448,302,107,-58
9,19,9,-14,0,14,195,463,453,307,107,-58
14,9,-4,-12,9,2,195,468,453,307,107,-58
14,4,-9,-9,12,-2,200,478,463,312,112,-58
9,0,-9,-4,9,-4,200,478,463,312,112,-58
9,4,-4,-7,7,0,195,478,463,307,112,-58
14,14,0,-14,7,7,195,468,458,302,112,-53
14,29,14,-21,0,21,185,463,453,302,117,-43
24,43,19,-34,2,31,175,453,444,302,122,-39
24,43,19,-34,2,31,170,439,429,302,122,-34
19,43,24,-31,-2,34,165,419,409,307,122,-29
19,43,24,-31,-2,34,156,400,395,287,122,-19
19,39,19,-29,0,29,146,380,375,258,122,-9
24,39,14,-31,4,26,136,346,346,244,122,-4
29,39,9,-34,9,24,117,317,317,229,117,0
29,43,14,-36,7,29,102,278,287,209,107,4
29,43,14,-36,7,29,82,244,258,190,102,4
24,43,19,-34,2,31,68,204,234,180,107,9
19,53,34,-36,-7,43,58,180,204,170,107,24
24,48,24,-36,0,36,43,151,185,151,102,34
24,43,19,-34,2,31,29,122,170,136,92,39
24,43,19,-34,2,31,29,97,136,112,82,39
14,34,19,-24,-2,26,19,68,107,87,68,34
14,29,14,-21,0,21,9,43,78,63,53,34
14,34,19,-24,-2,26,4,29,58,48,48,34
14,24,9,-19,2,17,-4,14,34,29,39,34
14,24,9,-19,2,17,-19,0,24,24,29,29
0,24,24,-12,-12,24,-24,-14,19,14,29,24
-4,24,29,-9,-17,26,-29,-19,-4,4,19,24
0,24,24,-12,-12,24,-29,-29,-9,9,14,24
0,24,24,-12,-12,24,-24,-29,-9,14,14,24
0,19,19,-9,-9,19,-24,-29,-14,-4,9,19
0,19,19,-9,-9,19,-24,-34,-29,-14,9,19
4,4,0,-4,2,2,-24,-43,-29,-14,9,24
4,4,0,-4,2,2,-34,-53,-29,-14,9,24
0,9,9,-4,-4,9,-34,-53,-29,-14,4,24
-4,19,24,-7,-14,21,-29,-48,-24,-14,4,24
-4,19,24,-7,-14,21,-29,-48,-24,-14,4,19
0,19,19,-9,-9,19,-29,-48,-24,-14,0,14
0,9,9,-4,-4,9,-29,-53,-24,-14,4,9
0,0,0,0,0,0,-29,-53,-24,-9,9,9
-4,0,4,2,-4,2,-29,-48,-29,-14,9,9
-4,-4,0,4,-2,-2,-24,-48,-34,-24,4,4
-4,-4,0,4,-2,-2,-24,-43,-34,-24,0,4
-9,-4,4,7,-7,0,-24,-39,-24,-19,4,14
-9,-4,4,7,-7,0,-24,-43,-24,-14,4,14
-14,-4,9,9,-12,2,-24,-43,-19,-14,4,14
-14,-4,9,9,-12,2,-14,-39,-14,-9,4,9
-9,-4,4,7,-7,0,-14,-39,-14,-4,9,9
-9,-4,4,7,-7,0,-19,-43,-14,-9,9,4
-14,-4,9,9,-12,2,-19,-43,-14,-9,9,0
-14,-9,4,12,-9,-2,-14,-43,-9,-4,9,4
-14,-9,4,12,-9,-2,-14,-39,-9,0,9,9
-14,-9,4,12,-9,-2,-14,-39,-9,0,9,14
-14,-9,4,12,-9,-2,-14,-43,-9,-4,4,14
-19,-4,14,12,-17,4,-14,-43,-9,-4,0,4
-19,-4,14,12,-17,4,-14,-43,-14,-4,-14,-9
-19,-14,4,17,-12,-4,-14,-43,-24,-19,-19,-14
-19,-14,4,17,-12,-4,-14,-43,-24,-24,-19,-19
-19,-9,9,14,-14,0,-9,-39,-24,-24,-19,-14
-24,-9,14,17,-19,2,-9,-34,-29,-24,-19,-14
-24,-19,4,21,-14,-7,-9,-39,-29,-24,-14,-14
-19,-29,-9,24,-4,-19,-9,-39,-29,-24,-14,-14
-19,-29,-9,24,-4,-19,-9,-39,-29,-39,-24,-24
-19,-29,-9,24,-4,-19,-14,-39,-43,-43,-29,-24
-19,-34,-14,26,-2,-24,-14,-43,-43,-43,-29,-29
-24,-34,-9,29,-7,-21,-9,-48,-48,-48,-29,-29
-24,-34,-9,29,-7,-21,-9,-53,-53,-53,-29,-24
-29,-39,-9,34,-9,-24,-14,-53,-53,-58,-34,-24
-24,-34,-9,29,-7,-21,-14,-53,-53,-63,-34,-19
-19,-29,-9,24,-4,-19,-14,-58,-53,-63,-34,-24
-14,-24,-9,19,-2,-17,-19,-63,-58,-63,-43,-24
-14,-29,-14,21,0,-21,-24,-63,-58,-73,-53,-29
-14,-29,-14,21,0,-21,-24,-68,-53,-68,-53,-29
-14,-19,-4,17,-4,-12,-24,-68,-53,-58,-53,-29
-14,-19,-4,17,-4,-12,-24,-68,-53,-58,-53,-29
-14,-19,-4,17,-4,-12,-24,-73,-58,-63,-58,-29
-14,-29,-14,21,0,-21,-19,-73,-68,-73,-58,-29
-19,-34,-14,26,-2,-24,-19,-73,-78,-78,-58,-29
-19,-34,-14,26,-2,-24,-19,-73,-78,-73,-53,-29
-24,-34,-9,29,-7,-21,-24,-73,-78,-73,-48,-29
-24,-34,-9,29,-7,-21,-19,-78,-73,-78,-48,-29
-24,-39,-14,31,-4,-26,-14,-78,-68,-78,-53,-39
-24,-43,-19,34,-2,-31,-14,-78,-78,-92,-58,-39
-24,-43,-19,34,-2,-31,-14,-78,-78,-92,-63,-43
-29,-43,-14,36,-7,-29,-9,-82,-82,-97,-68,-48
-29,-48,-19,39,-4,-34,-9,-87,-87,-102,-73,-48
-29,-48,-19,39,-4,-34,-14,-87,-87,-102,-73,-48
-29,-48,-19,39,-4,-34,-14,-87,-92,-102,-78,-48
-29,-48,-19,39,-4,-34,-9,-82,-92,-92,-68,-43
-29,-48,-19,39,-4,-34,-9,-82,-92,-82,-58,-39
-29,-43,-14,36,-7,-29,-14,-87,-92,-82,-58,-39
-29,-39,-9,34,-9,-24,-19,-87,-87,-82,-53,-39
-29,-39,-9,34,-9,-24,-19,-82,-87,-87,-58,-39
-29,-43,-14,36,-7,-29,-24,-78,-92,-97,-63,-39
-29,-43,-14,36,-7,-29,-24,-78,-92,-97,-68,-39
-29,-43,-14,36,-7,-29,-24,-82,-92,-92,-68,-39
-24,-39,-14,31,-4,-26,-24,-82,-87,-87,-63,-39
-19,-39,-19,29,0,-29,-29,-87,-87,-87,-58,-39
-24,-39,-14,31,-4,-26,-29,-87,-87,-87,-58,-39
-29,-39,-9,34,-9,-24,-29,-87,-87,-87,-58,-39
-29,-39,-9,34,-9,-24,-24,-87,-92,-97,-63,-43
-29,-39,-9,34,-9,-24,-19,-87,-97,-107,-68,-48
-34,-48,-14,41,-9,-31,-19,-87,-107,-117,-82,-53
-39,-58,-19,48,-9,-39,-19,-87,-117,-126,-97,-58
-39,-58,-19,48,-9,-39,-19,-87,-107,-117,-87,-58
-39,-58,-19,48,-9,-39,-19,-87,-97,-107,-78,-58
-34,-53,-19,43,-7,-36,-19,-87,-97,-102,-78,-53
-29,-48,-19,39,-4,-34,-19,-87,-97,-97,-78,-48
-29,-48,-19,39,-4,-34,-24,-87,-97,-92,-73,-43
-29,-48,-19,39,-4,-34,-29,-87,-97,-87,-68,-39
-29,-43,-14,36,-7,-29,-29,-87,-97,-87,-68,-39
-29,-39,-9,34,-9,-24,-29,-87,-97,-87,-68,-39
-24,-39,-14,31,-4,-26,-24,-87,-97,-92,-68,-39
-19,-39,-19,29,0,-29,-19,-87,-97,-97,-68,-39
-19,-43,-24,31,2,-34,-19,-87,-102,-97,-73,-43
-19,-48,-29,34,4,-39,-19,-87,-107,-97,-78,-48
-19,-48,-29,34,4,-39,-29,-92,-107,-97,-78,-48
-19,-48,-29,34,4,-39,-39,-97,-107,-97,-78,-48
-39,-48,-9,43,-14,-29,-39,-97,-107,-102,-78,-48
-58,-48,9,53,-34,-19,-39,-97,-107,-107,-78,-48
-43,-48,-4,46,-19,-26,-29,-92,-107,-107,-78,-48
-29,-48,-19,39,-4,-34,-19,-87,-107,-107,-78,-48
-29,-58,-29,43,0,-43,-19,-87,-107,-107,-78,-48
-29,-68,-39,48,4,-53,-19,-87,-107,-107,-78,-48
-29,-68,-39,48,4,-53,-19,-87,-107,-102,-78,-43
-29,-68,-39,48,4,-53,-19,-87,-107,-97,-78,-39
-29,-53,-24,41,-2,-39,-19,-87,-97,-87,-68,-39
-29,-39,-9,34,-9,-24,-19,-87,-87,-78,-58,-39
-29,-39,-9,34,-9,-24,-19,-87,-87,-78,-58,-39
-29,-39,-9,34,-9,-24,-19,-87,-87,-78,-58,-39
-29,-48,-19,39,-4,-34,-19,-87,-92,-87,-68,-43
-29,-58,-29,43,0,-43,-19,-87,-97,-97,-78,-48
-24,-48,-24,36,0,-36,-19,-87,-97,-97,-78,-48
-19,-39,-19,29,0,-29,-19,-87,-97,-97,-78,-48
-19,-39,-19,29,0,-29,-19,-87,-102,-102,-82,-53
-19,-39,-19,29,0,-29,-19,-87,-107,-107,-87,-58
-24,-48,-24,36,0,-36,-19,-87,-107,-117,-87,-58
-29,-58,-29,43,0,-43,-19,-87,-107,-126,-87,-58
-29,-48,-19,39,-4,-34,-19,-87,-102,-112,-78,-48
-29,-39,-9,34,-9,-24,-19,-87,-97,-97,-68,-39
-24,-29,-4,26,-9,-17,-19,-87,-97,-97,-68,-39
-19,-19,0,19,-9,-9,-19,-87,-97,-97,-68,-39
-19,-34,-14,26,-2,-24,-14,-87,-97,-97,-68,-39
-19,-48,-29,34,4,-39,-9,-87,-97,-97,-68,-39
-19,-29,-9,24,-4,-19,-9,-82,-92,-92,-68,-39
-19,-9,9,14,-14,0,-9,-78,-87,-87,-68,-39
-19,-4,14,12,-17,4,0,-68,-78,-82,-63,-34
-19,0,19,9,-19,9,9,-58,-68,-78,-58,-29
-9,19,29,-4,-19,24,9,-48,-63,-68,-53,-24
0,39,39,-19,-19,39,9,-39,-58,-58,-48,-19
0,39,39,-19,-19,39,19,-34,-48,-53,-43,-14
0,39,39,-19,-19,39,29,-29,-39,-48,-39,-9
4,34,29,-19,-12,31,29,-19,-39,-48,-39,-4
9,29,19,-19,-4,24,29,-9,-39,-48,-39,0
9,29,19,-19,-4,24,14,-19,-39,-48,-39,0
9,39,29,-24,-9,34,0,-29,-34,-43,-34,0
14,53,39,-34,-12,46,-14,-39,-34,-43,-29,0
19,87,68,-53,-24,78,-24,-43,-19,-24,-19,14
24,107,82,-65,-29,95,-39,-53,-14,-19,-9,24
24,122,97,-73,-36,109,-48,-68,-14,-19,-9,34
14,97,82,-56,-34,90,-43,-87,-34,-43,-14,14
9,58,48,-34,-19,53,-43,-107,-53,-63,-24,4
9,58,48,-34,-19,53,-58,-107,-58,-63,-34,4
-4,58,63,-26,-34,61,-68,-117,-68,-68,-34,4
4,73,68,-39,-31,70,-82,-117,-68,-68,-29,4
14,82,68,-48,-26,75,-87,-131,-82,-78,-29,4
14,68,53,-41,-19,61,-97,-151,-107,-82,-48,-4
14,68,53,-41,-19,61,-97,-156,-112,-78,-53,-4
14,68,53,-41,-19,61,-92,-156,-112,-87,-58,0
14,73,58,-43,-21,65,-87,-156,-112,-92,-58,0
14,68,53,-41,-19,61,-87,-136,-97,-87,-48,0
4,58,53,-31,-24,56,-78,-122,-97,-87,-63,0
-4,43,48,-19,-26,46,-63,-112,-92,-87,-53,-9
-9,19,29,-4,-19,24,-48,-102,-92,-92,-53,-19
-19,-9,9,14,-14,0,-39,-107,-97,-107,-63,-39
-19,-29,-9,24,-4,-19,-34,-112,-102,-112,-78,-43
-29,-39,-9,34,-9,-24,-29,-107,-112,-112,-82,-53
-34,-48,-14,41,-9,-31,-24,-107,-122,-122,-92,-63
-39,-63,-24,51,-7,-43,-19,-107,-136,-131,-107,-68
-39,-68,-29,53,-4,-48,-19,-107,-141,-136,-112,-68
-43,-78,-34,61,-4,-56,-24,-112,-141,-136,-112,-73
-48,-87,-39,68,-4,-63,-34,-112,-146,-141,-112,-73
-53,-78,-24,65,-14,-51,-34,-117,-146,-141,-112,-73
-53,-68,-14,61,-19,-41,-34,-117,-141,-146,-117,-73
-48,-82,-34,65,-7,-58,-34,-112,-141,-146,-117,-78
-43,-92,-48,68,2,-70,-34,-112,-146,-146,-117,-78
-34,-92,-58,63,12,-75,-29,-112,-146,-146,-117,-78
-34,-78,-43,56,4,-61,-29,-112,-146,-146,-117,-78
-39,-68,-29,53,-4,-48,-29,-117,-146,-141,-117,-78
-43,-63,-19,53,-12,-41,-29,-122,-146,-141,-117,-78
-43,-58,-14,51,-14,-36,-29,-122,-136,-136,-112,-73
-43,-53,-9,48,-17,-31,-29,-122,-131,-126,-102,-63
-39,-53,-14,46,-12,-34,-29,-117,-122,-117,-92,-63
-29,-53,-24,41,-2,-39,-34,-117,-117,-112,-82,-63
-19,-78,-58,48,19,-68,-48,-117,-146,-141,-112,-78
-19,-107,-87,63,34,-97,-43,-107,-170,-185,-156,-117
-19,-136,-117,78,48,-126,-29,-78,-170,-209,-195,-156
-19,-146,-126,82,53,-136,-4,-14,-136,-209,-234,-204
0,-146,-146,73,73,-146,24,78,-82,-175,-219,-209
29,-136,-165,53,97,-151,29,185,0,-92,-161,-170
126,-53,-180,-36,153,-117,-29,219,87,34,-9,-34
248,68,-180,-158,214,-56,-156,131,112,190,209,180
326,239,-87,-283,207,75,-326,-87,92,331,444,424
385,492,107,-439,139,300,-522,-390,87,497,697,697
424,746,322,-585,51,534,-697,-712,34,619,917,961
473,941,468,-707,2,705,-863,-1029,-97,712,1151,1249
453,1044,590,-749,-68,817,-1024,-1449,-380,605,1229,1434
195,814,619,-505,-212,717,-1010,-1815,-824,126,897,1283
-53,356,409,-151,-231,383,-936,-1976,-1234,-473,331,854
-78,-161,-82,119,2,-122,-775,-1727,-1473,-912,-161,395
-126,-287,-161,207,17,-224,-585,-1376,-1342,-990,-400,97
-82,-229,-146,156,31,-187,-458,-912,-1049,-839,-395,4
-48,-146,-97,97,24,-122,-322,-585,-732,-585,-302,-9
-39,-131,-92,85,26,-112,-209,-395,-488,-405,-248,-53
-29,-131,-102,80,36,-117,-107,-190,-287,-253,-180,-73
-34,-126,-92,80,29,-109,0,4,-126,-126,-107,-82
-39,-117,-78,78,19,-97,53,87,-39,-63,-68,-82
-39,-107,-68,73,14,-87,73,87,0,-19,-53,-78
-39,-82,-43,61,2,-63,73,97,24,-9,-34,-68
-39,-63,-24,51,-7,-43,73,102,24,-4,-29,-63
-39,-58,-19,48,-9,-39,73,112,34,9,-29,-58
-39,-58,-19,48,-9,-39,78,107,39,19,-29,-53
-34,-68,-34,51,0,-51,82,107,39,14,-34,-53
-24,-82,-58,53,17,-70,82,107,34,-9,-39,-53
-34,-82,-48,58,7,-65,82,112,29,-9,-43,-58
-34,-82,-48,58,7,-65,82,112,29,-9,-43,-58
-34,-82,-48,58,7,-65,87,112,34,-4,-43,-58
-34,-78,-43,56,4,-61,87,112,43,4,-39,-58
-34,-73,-39,53,2,-56,87,117,43,4,-39,-58
-39,-73,-34,56,-2,-53,87,122,43,4,-39,-58
-39,-63,-24,51,-7,-43,87,122,48,4,-39,-58
-39,-63,-24,51,-7,-43,87,122,53,4,-39,-58
-24,-63,-39,43,7,-51,82,122,53,4,-34,-58
-14,-68,-53,41,19,-61,78,126,53,4,-34,-58
-34,-68,-34,51,0,-51,82,126,58,9,-34,-58
-53,-68,-14,61,-19,-41,82,126,68,19,-34,-58
-48,-63,-14,56,-17,-39,82,126,68,19,-29,-58
-43,-63,-19,53,-12,-41,82,131,73,24,-19,-58
-39,-63,-24,51,-7,-43,82,136,73,29,-19,-58
-34,-63,-29,48,-2,-46,87,136,78,29,-14,-58
-29,-73,-43,51,7,-58,92,146,82,34,-14,-58
-29,-87,-58,58,14,-73,97,161,87,34,-14,-58
-29,-87,-58,58,14,-73,97,161,87,39,-14,-58
-24,-87,-63,56,19,-75,97,165,92,39,-9,-53
-29,-87,-58,58,14,-73,97,165,97,43,-9,-53
-29,-78,-48,53,9,-63,102,165,102,48,-4,-53
-29,-78,-48,53,9,-63,102,170,112,48,0,-53
-24,-82,-58,53,17,-70,102,175,112,48,0,-48
-24,-82,-58,53,17,-70,107,185,117,48,0,-48
-24,-78,-53,51,14,-65,107,185,122,53,-4,-53
-24,-68,-43,46,9,-56,107,190,136,58,0,-53
-24,-58,-34,41,4,-46,107,195,141,63,4,-53
-19,-58,-39,39,9,-48,107,200,146,68,9,-53
-14,-63,-48,39,17,-56,107,209,151,73,9,-48
-14,-78,-63,46,24,-70,112,214,156,78,9,-48
-14,-92,-78,53,31,-85,112,219,161,82,14,-48
-24,-78,-53,51,14,-65,112,219,175,92,19,-48
-29,-58,-29,43,0,-43,112,224,180,107,29,-43
-9,-48,-39,29,14,-43,112,229,190,107,34,-43
9,-34,-43,12,26,-39,117,239,200,122,39,-43
9,-29,-39,9,24,-34,107,244,204,126,43,-43
9,-29,-39,9,24,-34,97,248,204,126,43,-43
4,-34,-39,14,21,-36,107,258,214,126,39,-48
0,-39,-39,19,19,-39,122,263,209,126,39,-53
0,-34,-34,17,17,-34,122,273,224,136,43,-48
4,-24,-29,9,17,-26,122,273,234,146,48,-48
4,-9,-14,2,9,-12,122,283,244,156,58,-48
14,9,-4,-12,9,2,122,283,248,170,68,-43
14,9,-4,-12,9,2,122,292,263,180,78,-39
9,0,-9,-4,9,-4,122,302,273,185,78,-39
14,0,-14,-7,14,-7,126,312,283,185,73,-39
19,0,-19,-9,19,-9,131,317,292,185,73,-34
19,4,-14,-12,17,-4,131,326,302,195,82,-34
19,9,-9,-14,14,0,131,336,312,204,82,-34
19,14,-4,-17,12,4,136,341,326,214,82,-34
14,19,4,-17,4,12,141,351,346,224,87,-34
9,19,9,-14,0,14,141,356,356,229,87,-34
0,19,19,-9,-9,19,146,361,370,239,92,-34
0,19,19,-9,-9,19,151,370,380,248,97,-39
0,19,19,-9,-9,19,151,380,390,263,97,-39
4,24,19,-14,-7,21,161,395,400,268,102,-34
9,29,19,-19,-4,24,165,405,409,278,107,-34
9,29,19,-19,-4,24,165,409,414,273,107,-48
9,24,14,-17,-2,19,170,424,419,273,102,-58
9,19,9,-14,0,14,180,434,429,283,102,-63
9,14,4,-12,2,9,185,444,434,283,102,-63
14,14,0,-14,7,7,180,448,444,287,102,-58
19,14,-4,-17,12,4,185,458,453,287,102,-58
19,24,4,-21,7,14,185,463,458,292,107,-58
19,29,9,-24,4,19,185,463,463,297,107,-58
24,43,19,-34,2,31,185,468,463,297,107,-58
24,58,34,-41,-4,46,190,478,473,302,112,-58
19,39,19,-29,0,29,190,478,468,302,112,-58
19,24,4,-21,7,14,185,478,463,302,112,-58
19,34,14,-26,2,24,185,463,458,302,112,-53
14,39,24,-26,-4,31,175,453,453,302,117,-43
24,43,19,-34,2,31,165,444,444,302,122,-39
24,43,19,-34,2,31,161,429,429,287,122,-34
19,39,19,-29,0,29,161,409,405,273,117,-29
19,39,19,-29,0,29,156,390,385,263,112,-19
19,39,19,-29,0,29,146,370,366,248,112,-14
19,39,19,-29,0,29,136,336,336,234,112,-14
19,48,29,-34,-4,39,117,312,312,224,112,-9
19,63,43,-41,-12,53,102,278,287,209,107,-4
14,63,48,-39,-17,56,82,244,258,190,102,0
9,63,53,-36,-21,58,68,204,234,175,102,9
9,68,58,-39,-24,63,53,180,200,161,97,24
14,63,48,-39,-17,56,34,151,165,141,92,34
14,63,48,-39,-17,56,19,122,141,126,82,39
14,63,48,-39,-17,56,14,97,117,107,78,39
4,53,48,-29,-21,51,0,68,97,87,68,34
4,43,39,-24,-17,41,-9,43,68,63,53,34
9,43,34,-26,-12,39,-9,29,48,48,48,34
14,34,19,-24,-2,26,-9,9,24,29,39,34
14,34,19,-24,-2,26,-19,0,19,24,29,34
4,34,29,-19,-12,31,-24,-4,19,14,29,34
4,34,29,-19,-12,31,-29,-19,-4,4,19,34
9,34,24,-21,-7,29,-29,-39,-9,0,14,34
9,34,24,-21,-7,29,-29,-39,-9,-4,14,29
9,29,19,-19,-4,24,-34,-39,-9,-14,9,19
9,34,24,-21,-7,29,-34,-43,-19,-14,9,14
9,24,14,-17,-2,19,-34,-53,-19,-14,9,14
4,24,19,-14,-7,21,-39,-58,-19,-14,9,14
0,19,19,-9,-9,19,-34,-53,-24,-19,4,14
-4,4,9,0,-7,7,-29,-48,-24,-24,4,19
-4,-9,-4,7,0,-7,-29,-48,-24,-24,4,19
9,0,-9,-4,9,-4,-29,-48,-24,-19,4,14
19,9,-9,-14,14,0,-29,-53,-24,-14,9,9
9,19,9,-14,0,14,-29,-58,-24,-9,9,9
0,29,29,-14,-14,29,-29,-58,-24,-9,9,9
4,24,19,-14,-7,21,-24,-58,-24,-14,4,9
4,24,19,-14,-7,21,-24,-53,-24,-14,4,14
0,19,19,-9,-9,19,-24,-48,-14,-9,14,24
0,9,9,-4,-4,9,-24,-48,-14,-4,14,24
-4,0,4,2,-4,2,-24,-43,-9,-4,14,24
-4,-4,0,4,-2,-2,-14,-39,-9,-4,9,19
0,-4,-4,2,2,-4,-14,-39,-19,-4,4,19
0,-4,-4,2,2,-4,-19,-43,-24,-9,0,14
-4,0,4,2,-4,2,-24,-43,-24,-14,0,4
-4,4,9,0,-7,7,-24,-43,-19,-14,0,0
0,9,9,-4,-4,9,-24,-34,-14,-9,0,0
4,9,4,-7,0,7,-24,-29,-9,-9,0,4
4,4,0,-4,2,2,-24,-34,-9,-14,-4,0
0,0,0,0,0,0,-24,-34,-9,-14,-4,-4
-4,-4,0,4,-2,-2,-24,-39,-14,-14,-14,-9
-9,-14,-4,12,-2,-9,-24,-43,-24,-29,-19,-14
-9,-9,0,9,-4,-4,-24,-43,-24,-24,-19,-14
-9,0,9,4,-9,4,-19,-43,-24,-14,-19,-9
-14,0,14,7,-14,7,-19,-43,-29,-24,-19,-14
-14,0,14,7,-14,7,-19,-48,-29,-34,-19,-14
-4,0,4,2,-4,2,-19,-48,-29,-34,-24,-14
0,0,0,0,0,0,-19,-48,-29,-48,-34,-24
0,-4,-4,2,2,-4,-24,-48,-43,-53,-39,-24
0,-14,-14,7,7,-14,-24,-53,-43,-53,-39,-29
-9,-14,-4,12,-2,-9,-19,-58,-48,-53,-34,-24
-14,-14,0,14,-7,-7,-19,-63,-53,-48,-29,-14
-19,-19,0,19,-9,-9,-24,-63,-53,-48,-34,-14
-19,-19,0,19,-9,-9,-24,-63,-53,-53,-34,-14
-14,-19,-4,17,-4,-12,-24,-63,-63,-58,-39,-24
-9,-19,-9,14,0,-14,-24,-63,-78,-63,-48,-24
-14,-24,-9,19,-2,-17,-24,-63,-68,-73,-53,-29
-14,-19,-4,17,-4,-12,-24,-68,-58,-73,-53,-29
-19,-9,9,14,-14,0,-24,-68,-53,-58,-53,-29
-24,-9,14,17,-19,2,-24,-68,-43,-48,-53,-29
-24,-14,9,19,-17,-2,-24,-73,-63,-68,-58,-34
-19,-24,-4,21,-7,-14,-19,-73,-78,-87,-58,-39
-19,-24,-4,21,-7,-14,-19,-73,-78,-87,-58,-39
-19,-24,-4,21,-7,-14,-19,-73,-78,-82,-58,-39
-24,-24,0,24,-12,-12,-24,-73,-73,-78,-58,-34
-24,-24,0,24,-12,-12,-24,-78,-68,-78,-58,-29
-24,-29,-4,26,-9,-17,-24,-78,-68,-78,-63,-39
-24,-34,-9,29,-7,-21,-24,-78,-78,-92,-63,-39
-24,-34,-9,29,-7,-21,-24,-78,-78,-92,-63,-43
-29,-34,-4,31,-12,-19,-19,-78,-78,-92,-63,-43
-29,-39,-9,34,-9,-24,-19,-78,-78,-92,-63,-39
-29,-39,-9,34,-9,-24,-24,-78,-78,-92,-63,-39
-29,-39,-9,34,-9,-24,-24,-78,-82,-87,-68,-39
-29,-39,-9,34,-9,-24,-19,-78,-82,-82,-68,-39
-29,-39,-9,34,-9,-24,-19,-82,-82,-82,-68,-43
-29,-39,-9,34,-9,-24,-19,-87,-82,-82,-68,-48
-29,-39,-9,34,-9,-24,-19,-87,-82,-87,-63,-48
-29,-39,-9,34,-9,-24,-19,-82,-87,-92,-63,-48
-29,-53,-24,41,-2,-39,-24,-78,-92,-97,-63,-48
-29,-63,-34,46,2,-48,-24,-78,-92,-92,-68,-48
-24,-53,-29,39,2,-41,-19,-82,-87,-92,-68,-48
-19,-43,-24,31,2,-34,-19,-87,-87,-92,-68,-48
-19,-34,-14,26,-2,-24,-19,-82,-87,-87,-68,-48
-19,-29,-9,24,-4,-19,-19,-78,-87,-87,-68,-48
-24,-29,-4,26,-9,-17,-19,-78,-92,-92,-68,-48
-29,-29,0,29,-14,-14,-19,-78,-97,-97,-68,-48
-29,-39,-9,34,-9,-24,-19,-78,-97,-97,-73,-48
-29,-48,-19,39,-4,-34,-19,-78,-97,-97,-78,-48
-29,-48,-19,39,-4,-34,-24,-82,-97,-97,-78,-48
-29,-48,-19,39,-4,-34,-29,-87,-97,-97,-78,-48
-29,-43,-14,36,-7,-29,-29,-87,-97,-97,-73,-48
-29,-39,-9,34,-9,-24,-29,-87,-97,-97,-68,-48
-29,-34,-4,31,-12,-19,-24,-87,-97,-97,-68,-48
-29,-29,0,29,-14,-14,-19,-87,-97,-97,-68,-48
-29,-29,0,29,-14,-14,-19,-87,-97,-97,-73,-48
-29,-29,0,29,-14,-14,-19,-87,-97,-97,-78,-48
-29,-39,-9,34,-9,-24,-19,-92,-107,-102,-82,-48
-29,-48,-19,39,-4,-34,-19,-97,-117,-107,-87,-48
-29,-48,-19,39,-4,-34,-19,-97,-107,-107,-87,-48
-29,-48,-19,39,-4,-34,-19,-97,-97,-107,-87,-48
-24,-43,-19,34,-2,-31,-19,-87,-97,-107,-78,-48
-19,-39,-19,29,0,-29,-19,-78,-97,-107,-68,-48
-19,-39,-19,29,0,-29,-19,-78,-97,-107,-68,-48
-19,-39,-19,29,0,-29,-19,-78,-97,-107,-68,-48
-24,-39,-14,31,-4,-26,-19,-82,-97,-107,-73,-53
-29,-39,-9,34,-9,-24,-19,-87,-97,-107,-78,-58
-29,-39,-9,34,-9,-24,-19,-87,-97,-107,-78,-58
-29,-39,-9,34,-9,-24,-19,-87,-97,-107,-78,-58
-29,-48,-19,39,-4,-34,-19,-87,-102,-107,-78,-58
-29,-58,-29,43,0,-43,-19,-87,-107,-107,-78,-58
-19,-48,-29,34,4,-39,-19,-87,-107,-107,-78,-58
-9,-39,-29,24,9,-34,-19,-87,-107,-107,-78,-58
-19,-29,-9,24,-4,-19,-19,-87,-102,-107,-73,-48
-29,-19,9,24,-19,-4,-19,-87,-97,-107,-68,-39
-29,-29,0,29,-14,-14,-19,-87,-97,-107,-68,-39
-29,-39,-9,34,-9,-24,-19,-87,-97,-107,-68,-39
-29,-39,-9,34,-9,-24,-19,-87,-97,-107,-68,-43
-29,-39,-9,34,-9,-24,-19,-87,-97,-107,-68,-48
-34,-43,-9,39,-12,-26,-19,-87,-97,-107,-73,-53
-39,-48,-9,43,-14,-29,-19,-87,-97,-107,-78,-58
-39,-48,-9,43,-14,-29,-19,-87,-102,-107,-78,-58
-39,-48,-9,43,-14,-29,-19,-87,-107,-107,-78,-58
-29,-43,-14,36,-7,-29,-19,-87,-107,-107,-78,-53
-19,-39,-19,29,0,-29,-19,-87,-107,-107,-78,-48
-19,-34,-14,26,-2,-24,-19,-87,-102,-107,-78,-48
-19,-29,-9,24,-4,-19,-19,-87,-97,-107,-78,-48
-19,-29,-9,24,-4,-19,-19,-92,-97,-107,-78,-48
-19,-29,-9,24,-4,-19,-19,-97,-97,-107,-78,-48
-24,-29,-4,26,-9,-17,-19,-97,-97,-107,-78,-48
-29,-29,0,29,-14,-14,-19,-97,-97,-107,-78,-48
-29,-29,0,29,-14,-14,-14,-82,-92,-102,-78,-43
-29,-29,0,29,-14,-14,-9,-68,-87,-97,-78,-39
-24,-19,4,21,-14,-7,-4,-63,-78,-87,-63,-29
-19,-9,9,14,-14,0,0,-58,-68,-78,-48,-19
-4,9,14,-2,-9,12,4,-48,-53,-68,-43,-19
9,29,19,-19,-4,24,9,-39,-39,-58,-39,-19
9,29,19,-19,-4,24,14,-34,-39,-53,-39,-19
9,29,19,-19,-4,24,19,-29,-39,-48,-39,-19
4,29,24,-17,-9,26,19,-24,-34,-48,-34,-14
0,29,29,-14,-14,29,19,-19,-29,-48,-29,-9
-4,34,39,-14,-21,36,19,-14,-29,-43,-29,-9
-4,39,43,-17,-24,41,9,-14,-29,-39,-24,-9
-4,48,53,-21,-29,51,0,-19,-29,-39,-19,-9
0,68,68,-34,-34,68,-14,-24,-19,-24,-9,4
9,87,78,-48,-34,82,-29,-39,-14,-19,0,19
14,102,87,-58,-36,95,-39,-58,-14,-19,0,34
14,112,97,-63,-41,104,-48,-82,-34,-34,-4,14
19,107,87,-63,-34,97,-63,-107,-53,-43,-14,4
9,87,78,-48,-34,82,-68,-107,-58,-53,-34,4
-14,68,82,-26,-48,75,-68,-117,-68,-68,-43,4
-4,68,73,-31,-39,70,-82,-117,-68,-68,-39,4
4,63,58,-34,-26,61,-87,-131,-82,-78,-39,4
4,48,43,-26,-19,46,-97,-151,-107,-92,-53,-4
4,48,43,-26,-19,46,-97,-156,-112,-97,-53,-4
4,48,43,-26,-19,46,-92,-156,-112,-97,-53,0
4,53,48,-29,-21,51,-87,-156,-112,-92,-48,0
4,53,48,-29,-21,51,-87,-141,-97,-87,-34,0
-4,48,53,-21,-29,51,-78,-131,-97,-87,-43,0
-14,48,63,-17,-39,56,-58,-122,-92,-82,-39,-4
-19,39,58,-9,-39,48,-39,-112,-92,-82,-43,-9
-29,4,34,12,-31,19,-29,-112,-97,-97,-53,-29
-29,-19,9,24,-19,-4,-24,-112,-102,-102,-68,-34
-34,-34,0,34,-17,-17,-24,-107,-107,-107,-73,-48
-34,-48,-14,41,-9,-31,-24,-107,-112,-122,-82,-63
-39,-63,-24,51,-7,-43,-24,-107,-131,-131,-102,-73
-39,-68,-29,53,-4,-48,-29,-107,-141,-136,-112,-78
-39,-78,-39,58,0,-58,-29,-112,-141,-136,-112,-82
-39,-87,-48,63,4,-68,-34,-112,-146,-141,-112,-82
-43,-82,-39,63,-2,-61,-34,-117,-146,-136,-112,-82
-43,-78,-34,61,-4,-56,-34,-117,-141,-136,-117,-82
-43,-68,-24,56,-9,-46,-29,-102,-131,-136,-112,-78
-43,-53,-9,48,-17,-31,-24,-92,-126,-136,-107,-68
-39,-68,-29,53,-4,-48,-19,-102,-136,-141,-107,-78
-43,-68,-24,56,-9,-46,-19,-112,-146,-146,-107,-87
-48,-68,-19,58,-14,-43,-19,-112,-146,-141,-112,-87
-53,-73,-19,63,-17,-46,-19,-112,-146,-141,-117,-87
-48,-73,-24,61,-12,-48,-19,-112,-141,-141,-117,-87
-43,-73,-29,58,-7,-51,-19,-112,-141,-136,-112,-82
-39,-73,-34,56,-2,-53,-19,-112,-141,-136,-112,-82
-29,-73,-43,51,7,-58,-24,-117,-146,-141,-112,-82
-24,-78,-53,51,14,-65,-43,-126,-156,-141,-112,-73
-29,-87,-58,58,14,-73,-43,-126,-161,-156,-126,-87
-29,-117,-87,73,29,-102,-29,-107,-161,-180,-165,-126
-29,-126,-97,78,34,-112,-4,-53,-126,-180,-204,-175
-14,-146,-131,80,58,-139,34,43,-102,-190,-234,-224
9,-156,-165,73,87,-161,48,156,-48,-151,-219,-229
107,-97,-204,-4,156,-151,4,244,63,-24,-87,-122
229,0,-229,-114,229,-114,-107,209,112,131,112,63
326,156,-170,-241,248,-7,-278,0,92,263,346,307
405,395,-9,-400,207,192,-473,-292,87,419,600,580
453,668,214,-561,119,441,-649,-585,102,605,854,863
512,883,370,-697,70,627,-814,-873,39,761,1122,1171
522,1122,600,-822,-39,861,-1039,-1376,-214,771,1351,1483
292,1029,736,-661,-222,883,-1088,-1825,-629,409,1171,1459
9,512,502,-261,-246,507,-1019,-2083,-1146,-297,536,1015
-48,-63,-14,56,-17,-39,-863,-1932,-1493,-844,-24,541
-117,-244,-126,180,4,-185,-673,-1581,-1434,-1005,-351,185
-92,-239,-146,165,26,-192,-546,-1117,-1215,-936,-434,34
-58,-141,-82,100,12,-112,-395,-741,-854,-663,-326,19
-48,-112,-63,80,7,-87,-268,-502,-566,-463,-258,-24
-34,-126,-92,80,29,-109,-156,-268,-351,-297,-190,-58
-34,-136,-102,85,34,-119,-39,-43,-175,-156,-117,-82
-39,-122,-82,80,21,-102,34,58,-68,-82,-78,-82
-39,-107,-68,73,14,-87,73,78,-9,-29,-63,-78
-34,-82,-48,58,7,-65,73,92,14,-19,-43,-68
-29,-63,-34,46,2,-48,73,102,14,-14,-39,-63
-29,-63,-34,46,2,-48,73,117,24,-9,-39,-63
-29,-68,-39,48,4,-53,78,117,29,-9,-39,-63
-34,-68,-34,51,0,-51,82,112,34,0,-39,-63
-34,-73,-39,53,2,-56,82,107,34,-9,-39,-63
-34,-73,-39,53,2,-56,78,112,29,-9,-43,-68
-24,-73,-48,48,12,-61,73,112,29,-9,-43,-68
-24,-73,-48,48,12,-61,78,112,34,-4,-43,-68
-24,-68,-43,46,9,-56,78,112,43,4,-39,-68
-29,-63,-34,46,2,-48,78,117,43,4,-39,-68
-39,-63,-24,51,-7,-43,78,122,43,4,-39,-68
-39,-63,-24,51,-7,-43,82,122,48,4,-39,-68
-39,-73,-34,56,-2,-53,87,122,53,4,-39,-68
-34,-73,-39,53,2,-56,87,122,53,4,-34,-68
-34,-78,-43,56,4,-61,87,126,53,4,-34,-68
-34,-78,-43,56,4,-61,92,126,48,0,-34,-68
-34,-78,-43,56,4,-61,92,126,48,0,-34,-68
-29,-68,-39,48,4,-53,92,126,48,0,-34,-68
-24,-63,-39,43,7,-51,92,131,53,4,-29,-68
-24,-58,-34,41,4,-46,87,136,58,9,-29,-68
-24,-53,-29,39,2,-41,87,136,68,9,-24,-68
-24,-53,-29,39,2,-41,87,136,73,19,-24,-68
-29,-58,-29,43,0,-43,87,141,78,24,-24,-68
-29,-58,-29,43,0,-43,87,141,78,29,-24,-68
-24,-58,-34,41,4,-46,87,146,82,29,-19,-63
-24,-63,-39,43,7,-51,87,156,87,34,-19,-63
-19,-58,-39,39,9,-48,92,165,92,39,-14,-63
-19,-58,-39,39,9,-48,92,170,102,43,-9,-63
-14,-63,-48,39,17,-56,92,175,102,48,-9,-58
-14,-63,-48,39,17,-56,97,185,107,48,-4,-58
-14,-58,-43,36,14,-51,97,185,112,53,-4,-63
-14,-53,-39,34,12,-46,97,190,122,58,4,-58
-14,-48,-34,31,9,-41,97,195,122,63,14,-53
-9,-48,-39,29,14,-43,97,200,126,68,19,-53
-4,-53,-48,29,21,-51,97,209,131,73,19,-48
-4,-53,-48,29,21,-51,97,214,136,78,14,-53
-4,-53,-48,29,21,-51,92,219,141,82,14,-58
-4,-48,-43,26,19,-46,92,219,151,87,14,-58
0,-39,-39,19,19,-39,92,224,151,97,19,-53
0,-43,-43,21,21,-43,102,229,161,92,24,-48
0,-43,-43,21,21,-43,117,239,170,102,29,-43
0,-39,-39,19,19,-39,117,244,175,107,34,-43
0,-39,-39,19,19,-39,117,248,175,107,34,-43
0,-39,-39,19,19,-39,117,253,190,112,34,-43
0,-39,-39,19,19,-39,122,253,190,117,39,-43
0,-34,-34,17,17,-34,122,263,204,126,43,-39
4,-24,-29,9,17,-26,122,263,214,136,48,-39
4,-19,-24,7,14,-21,117,273,224,141,53,-43
14,-9,-24,-2,19,-17,112,273,229,151,58,-43
14,0,-14,-7,14,-7,112,283,244,165,68,-39
9,0,-9,-4,9,-4,112,292,253,175,68,-39
9,0,-9,-4,9,-4,122,302,263,180,68,-39
9,0,-9,-4,9,-4,131,307,273,185,73,-34
9,4,-4,-7,7,0,131,317,287,195,82,-34
9,9,0,-9,4,4,131,326,302,204,82,-34
14,14,0,-14,7,7,131,326,312,209,82,-34
14,19,4,-17,4,12,131,331,326,214,87,-34
14,24,9,-19,2,17,131,341,336,219,87,-34
9,29,19,-19,-4,24,136,351,351,229,92,-34
9,39,29,-24,-9,34,141,361,361,239,97,-34
9,48,39,-29,-14,43,141,370,370,253,97,-29
9,43,34,-26,-12,39,151,385,380,258,102,-24
9,39,29,-24,-9,34,156,395,390,268,107,-24
9,39,29,-24,-9,34,156,400,395,263,107,-39
9,34,24,-21,-7,29,161,414,400,263,102,-48
9,34,24,-21,-7,29,170,424,409,273,97,-53
9,34,24,-21,-7,29,175,434,414,273,92,-53
9,34,24,-21,-7,29,175,439,419,273,92,-53
9,34,24,-21,-7,29,185,448,424,268,92,-58
9,34,24,-21,-7,29,185,458,429,273,92,-58
9,29,19,-19,-4,24,185,463,434,278,87,-58
14,29,14,-21,0,21,185,468,434,278,87,-58
14,29,14,-21,0,21,190,478,444,283,92,-58
9,29,19,-19,-4,24,190,478,444,283,97,-58
9,34,24,-21,-7,29,185,478,444,283,102,-58
14,34,19,-24,-2,26,190,468,439,287,102,-53
14,29,14,-21,0,21,185,463,434,292,107,-43
24,34,9,-29,7,21,175,453,424,292,112,-39
24,34,9,-29,7,21,170,439,409,278,112,-34
24,48,24,-36,0,36,161,419,395,273,117,-24
29,68,39,-48,-4,53,146,400,385,273,122,-9
29,68,39,-48,-4,53,136,380,370,258,122,0
29,68,39,-48,-4,53,126,346,346,244,122,4
19,58,39,-39,-9,48,107,322,317,229,117,9
9,53,43,-31,-17,48,92,287,287,209,107,14
19,53,34,-36,-7,43,73,253,253,190,102,14
29,53,24,-41,2,39,58,214,224,175,102,19
29,63,34,-46,-2,48,48,190,195,161,97,34
34,63,29,-48,2,46,34,161,165,141,92,43
29,73,43,-51,-7,58,19,131,146,131,87,48
24,82,58,-53,-17,70,14,107,126,117,87,48
14,73,58,-43,-21,65,0,73,107,97,78,43
14,63,48,-39,-17,56,-9,43,78,73,63,43
14,63,48,-39,-17,56,-14,29,58,58,58,43
14,53,39,-34,-12,46,-19,9,34,39,48,43
9,43,34,-26,-12,39,-29,-9,19,34,34,39
-4,34,39,-14,-21,36,-34,-24,9,24,29,34
-4,34,39,-14,-21,36,-39,-29,-14,9,19,34
0,34,34,-17,-17,34,-39,-39,-19,0,14,34
19,39,19,-29,0,29,-34,-39,-19,-4,14,34
39,39,0,-39,19,19,-34,-39,-19,-14,9,29
29,39,9,-34,9,24,-34,-43,-34,-14,9,29
19,24,4,-21,7,14,-34,-53,-39,-14,9,34
9,19,9,-14,0,14,-39,-63,-39,-14,9,34
0,9,9,-4,-4,9,-34,-63,-43,-19,4,34
-4,9,14,-2,-9,12,-29,-58,-43,-24,4,34
-4,9,14,-2,-9,12,-29,-58,-43,-24,4,29
0,9,9,-4,-4,9,-29,-58,-39,-14,0,24
0,9,9,-4,-4,9,-29,-63,-34,-4,0,19
0,9,9,-4,-4,9,-34,-63,-34,-9,0,19
0,9,9,-4,-4,9,-39,-58,-34,-19,0,19
4,4,0,-4,2,2,-34,-58,-34,-24,-4,14
4,4,0,-4,2,2,-34,-53,-34,-24,-4,14
0,4,4,-2,-2,4,-34,-48,-24,-14,9,29
0,0,0,0,0,0,-34,-48,-24,-4,14,34
-4,0,4,2,-4,2,-34,-43,-19,-4,14,34
-4,4,9,0,-7,7,-24,-39,-19,-4,9,29
0,4,4,-2,-2,4,-19,-39,-24,-4,9,29
0,4,4,-2,-2,4,-19,-43,-24,-9,9,24
-9,-4,4,7,-7,0,-19,-43,-29,-14,4,19
-14,-14,0,14,-7,-7,-14,-43,-29,-14,0,19
-14,-9,4,12,-9,-2,-19,-39,-29,-19,0,14
-14,-9,4,12,-9,-2,-24,-39,-29,-29,0,14
-9,-9,0,9,-4,-4,-24,-43,-29,-24,-4,14
-9,-9,0,9,-4,-4,-24,-43,-29,-14,-4,14
-9,-9,0,9,-4,-4,-24,-43,-29,-14,-14,9
-9,-14,-4,12,-2,-9,-24,-43,-34,-29,-19,4
-9,-14,-4,12,-2,-9,-24,-43,-34,-34,-19,0
-9,-9,0,9,-4,-4,-19,-43,-34,-34,-19,0
-14,-9,4,12,-9,-2,-19,-43,-39,-34,-19,-9
-14,-9,4,12,-9,-2,-19,-48,-39,-34,-19,-14
-14,-4,9,9,-12,2,-19,-53,-39,-34,-24,-14
-19,0,19,9,-19,9,-19,-58,-39,-48,-34,-24
-19,0,19,9,-19,9,-24,-58,-53,-53,-39,-24
-19,-4,14,12,-17,4,-24,-63,-53,-53,-39,-29
-19,-4,14,12,-17,4,-19,-68,-58,-58,-39,-29
-14,-4,9,9,-12,2,-19,-73,-63,-58,-39,-24
-19,-9,9,14,-14,0,-24,-68,-68,-63,-43,-24
-19,-9,9,14,-14,0,-24,-63,-73,-73,-43,-24
-19,-9,9,14,-14,0,-19,-63,-73,-73,-43,-34
-19,-9,9,14,-14,0,-14,-63,-78,-73,-48,-34
-24,-19,4,21,-14,-7,-14,-63,-78,-78,-53,-34
-24,-19,4,21,-14,-7,-14,-68,-78,-73,-53,-29
-24,-9,14,17,-19,2,-14,-73,-82,-68,-53,-29
-24,-9,14,17,-19,2,-14,-78,-82,-68,-53,-29
-24,-9,14,17,-19,2,-19,-82,-82,-73,-53,-29
-19,-14,4,17,-12,-4,-19,-82,-78,-78,-48,-29
-19,-14,4,17,-12,-4,-19,-82,-78,-78,-48,-29
-19,-14,4,17,-12,-4,-19,-82,-78,-73,-48,-29
-24,-19,4,21,-14,-7,-24,-82,-82,-73,-53,-29
-24,-24,0,24,-12,-12,-24,-87,-87,-78,-58,-29
-24,-34,-9,29,-7,-21,-24,-87,-92,-82,-68,-39
-24,-43,-19,34,-2,-31,-24,-87,-107,-102,-73,-39
-24,-43,-19,34,-2,-31,-24,-87,-107,-102,-73,-43
-29,-43,-14,36,-7,-29,-19,-87,-107,-102,-73,-43
-29,-39,-9,34,-9,-24,-19,-82,-102,-97,-68,-39
-29,-29,0,29,-14,-14,-24,-78,-97,-92,-63,-39
-29,-29,0,29,-14,-14,-24,-78,-102,-92,-68,-39
-29,-29,0,29,-14,-14,-19,-78,-102,-92,-68,-39
-29,-29,0,29,-14,-14,-19,-87,-102,-92,-68,-43
-29,-29,0,29,-14,-14,-19,-97,-102,-92,-68,-48
-29,-29,0,29,-14,-14,-19,-97,-97,-97,-68,-48
-29,-29,0,29,-14,-14,-19,-92,-97,-102,-73,-48
-34,-43,-9,39,-12,-26,-24,-87,-107,-107,-73,-48
-39,-53,-14,46,-12,-34,-24,-87,-112,-102,-78,-48
-29,-39,-9,34,-9,-24,-19,-87,-102,-97,-73,-43
-19,-24,-4,21,-7,-14,-19,-87,-97,-92,-68,-39
-19,-24,-4,21,-7,-14,-19,-87,-102,-92,-68,-39
-19,-29,-9,24,-4,-19,-19,-87,-107,-97,-68,-39
-19,-29,-9,24,-4,-19,-19,-92,-107,-102,-73,-39
-19,-29,-9,24,-4,-19,-19,-97,-107,-107,-78,-39
-19,-29,-9,24,-4,-19,-19,-97,-107,-107,-78,-39
-19,-29,-9,24,-4,-19,-19,-97,-107,-107,-78,-39
-29,-34,-4,31,-12,-19,-19,-102,-107,-107,-82,-43
-39,-39,0,39,-19,-19,-19,-107,-107,-107,-87,-48
-39,-39,0,39,-19,-19,-19,-107,-107,-107,-87,-53
-39,-39,0,39,-19,-19,-19,-107,-107,-107,-87,-58
-39,-39,0,39,-19,-19,-19,-102,-112,-107,-87,-58
-39,-39,0,39,-19,-19,-19,-97,-117,-107,-87,-58
-39,-39,0,39,-19,-19,-19,-97,-117,-107,-82,-53
-39,-39,0,39,-19,-19,-19,-97,-117,-107,-78,-48
-34,-29,4,31,-19,-12,-19,-97,-112,-107,-78,-39
-29,-19,9,24,-19,-4,-19,-97,-107,-107,-78,-29
-29,-19,9,24,-19,-4,-19,-97,-107,-107,-78,-29
-29,-19,9,24,-19,-4,-19,-97,-107,-107,-78,-29
-29,-34,-4,31,-12,-19,-19,-97,-112,-112,-82,-39
-29,-48,-19,39,-4,-34,-19,-97,-117,-117,-87,-48
-29,-48,-19,39,-4,-34,-19,-97,-117,-117,-87,-48
-29,-48,-19,39,-4,-34,-19,-97,-117,-117,-87,-48
-19,-43,-24,31,2,-34,-19,-97,-117,-117,-87,-48
-9,-39,-29,24,9,-34,-19,-97,-117,-117,-87,-48
-24,-39,-14,31,-4,-26,-19,-97,-117,-117,-87,-48
-39,-39,0,39,-19,-19,-19,-97,-117,-117,-87,-48
-39,-39,0,39,-19,-19,-19,-97,-117,-117,-87,-48
-39,-39,0,39,-19,-19,-19,-97,-117,-117,-87,-48
-34,-39,-4,36,-14,-21,-19,-97,-117,-112,-82,-48
-29,-39,-9,34,-9,-24,-19,-97,-117,-107,-78,-48
-24,-34,-9,29,-7,-21,-19,-97,-117,-107,-78,-48
-19,-29,-9,24,-4,-19,-19,-97,-117,-107,-78,-48
-19,-29,-9,24,-4,-19,-19,-97,-117,-112,-82,-48
-19,-29,-9,24,-4,-19,-19,-97,-117,-117,-87,-48
-24,-34,-9,29,-7,-21,-19,-97,-117,-117,-87,-48
-29,-39,-9,34,-9,-24,-19,-97,-117,-117,-87,-48
-34,-39,-4,36,-14,-21,-19,-97,-112,-112,-82,-48
-39,-39,0,39,-19,-19,-19,-97,-107,-107,-78,-48
-39,-39,0,39,-19,-19,-19,-102,-107,-107,-78,-48
-39,-39,0,39,-19,-19,-19,-107,-107,-107,-78,-48
-39,-43,-4,41,-17,-24,-19,-107,-112,-112,-82,-48
-39,-48,-9,43,-14,-29,-19,-107,-117,-117,-87,-48
-39,-48,-9,43,-14,-29,-19,-102,-117,-117,-87,-48
-39,-48,-9,43,-14,-29,-19,-97,-117,-117,-87,-48
-34,-43,-9,39,-12,-26,-19,-97,-117,-117,-87,-48
-29,-39,-9,34,-9,-24,-19,-97,-117,-117,-87,-48
-29,-34,-4,31,-12,-19,-19,-102,-117,-112,-87,-48
-29,-29,0,29,-14,-14,-19,-107,-117,-107,-87,-48
-29,-24,4,26,-17,-9,-19,-107,-112,-102,-82,-48
-29,-19,9,24,-19,-4,-19,-107,-107,-97,-78,-48
-29,-19,9,24,-19,-4,-19,-97,-102,-97,-73,-43
-29,-19,9,24,-19,-4,-19,-87,-97,-97,-68,-39
-19,-4,14,12,-17,4,-9,-78,-97,-97,-63,-39
-9,9,19,0,-14,14,0,-68,-97,-97,-58,-39
0,14,14,-7,-7,14,0,-58,-82,-87,-53,-29
9,19,9,-14,0,14,0,-48,-68,-78,-48,-19
0,29,29,-14,-14,29,4,-43,-53,-63,-43,-19
-9,39,48,-14,-29,43,9,-39,-39,-48,-39,-19
-9,39,48,-14,-29,43,9,-34,-39,-48,-39,-14
-9,39,48,-14,-29,43,9,-29,-39,-48,-39,-9
0,39,39,-19,-19,39,9,-24,-39,-48,-39,-9
4,43,39,-24,-17,41,0,-24,-43,-48,-34,-9
14,48,34,-31,-9,41,-4,-29,-48,-48,-29,-9
19,68,48,-43,-14,58,-14,-34,-48,-34,-19,4
24,87,63,-56,-19,75,-34,-48,-34,-24,-4,19
24,102,78,-63,-26,90,-48,-68,-24,-19,0,34
14,102,87,-58,-36,95,-53,-92,-43,-43,-14,14
9,87,78,-48,-34,82,-63,-117,-63,-63,-34,4
0,73,73,-36,-36,73,-68,-117,-68,-68,-43,4
-24,58,82,-17,-53,70,-68,-126,-78,-78,-43,4
-14,73,87,-29,-51,80,-82,-126,-78,-78,-39,4
-4,82,87,-39,-46,85,-87,-141,-92,-87,-39,4
4,68,63,-36,-29,65,-97,-165,-122,-102,-58,-4
14,68,53,-41,-19,61,-97,-175,-131,-107,-63,-4
19,68,48,-43,-14,58,-97,-175,-131,-107,-63,0
24,73,48,-48,-12,61,-97,-175,-131,-102,-58,0
24,73,48,-48,-12,61,-102,-161,-117,-92,-39,4
14,68,53,-41,-19,61,-97,-151,-117,-87,-43,9
-4,53,58,-24,-31,56,-78,-141,-112,-87,-43,0
-19,29,48,-4,-34,39,-58,-131,-112,-92,-53,-9
-34,-4,29,19,-31,12,-48,-131,-117,-112,-68,-34
-39,-29,9,34,-24,-9,-43,-131,-122,-122,-87,-43
-43,-43,0,43,-21,-21,-43,-126,-136,-126,-97,-58
-43,-58,-14,51,-14,-36,-43,-126,-151,-141,-112,-73
-43,-68,-24,56,-9,-46,-34,-126,-161,-151,-122,-78
-39,-68,-29,53,-4,-48,-29,-126,-161,-156,-122,-78
-39,-63,-24,51,-7,-43,-29,-131,-156,-151,-122,-82
-39,-58,-19,48,-9,-39,-34,-131,-156,-151,-122,-82
-48,-63,-14,56,-17,-39,-34,-136,-161,-151,-122,-82
-53,-68,-14,61,-19,-41,-34,-136,-161,-156,-126,-82
-53,-78,-24,65,-14,-51,-39,-131,-161,-156,-126,-87
-53,-82,-29,68,-12,-56,-43,-131,-165,-156,-126,-87
-43,-82,-39,63,-2,-61,-39,-131,-165,-156,-122,-87
-43,-68,-24,56,-9,-46,-39,-131,-165,-156,-117,-87
-43,-68,-24,56,-9,-46,-34,-131,-165,-156,-117,-87
-43,-73,-29,58,-7,-51,-29,-131,-165,-161,-117,-87
-43,-73,-29,58,-7,-51,-29,-131,-161,-161,-117,-87
-43,-73,-29,58,-7,-51,-29,-131,-161,-156,-112,-82
-43,-73,-29,58,-7,-51,-29,-131,-156,-156,-112,-82
-39,-73,-34,56,-2,-53,-34,-136,-156,-161,-112,-82
-29,-78,-48,53,9,-63,-58,-156,-165,-151,-112,-73
-29,-87,-58,58,14,-73,-63,-165,-170,-156,-126,-87
-29,-117,-87,73,29,-102,-48,-141,-185,-190,-165,-126
-29,-126,-97,78,34,-112,-24,-82,-165,-200,-204,-175
-24,-156,-131,90,53,-143,24,14,-146,-224,-258,-239
-9,-175,-165,92,78,-170,48,126,-97,-200,-268,-258
78,-131,-209,26,143,-170,19,239,19,-82,-151,-170
190,-48,-239,-70,214,-143,-78,229,73,63,34,-4
302,92,-209,-197,256,-58,-248,24,53,195,268,239
395,317,-78,-356,236,119,-444,-263,48,351,522,512
453,610,156,-531,148,383,-619,-566,82,551,785,795
522,844,322,-683,100,583,-785,-863,39,722,1063,1102
561,1137,575,-849,-7,856,-1039,-1381,-165,814,1376,1483
361,1098,736,-729,-187,917,-1117,-1844,-531,536,1278,1527
48,585,536,-317,-244,561,-1078,-2166,-1093,-195,644,1098
-39,14,53,12,-46,34,-951,-2078,-1483,-766,82,639
-112,-204,-92,158,-9,-148,-746,-1727,-1464,-995,-292,253
-92,-239,-146,165,26,-192,-605,-1263,-1283,-995,-424,73
-58,-141,-82,100,12,-112,-439,-858,-922,-712,-322,48
-48,-112,-63,80,7,-87,-297,-590,-634,-502,-258,-4
-29,-126,-97,78,34,-112,-175,-336,-409,-336,-200,-48
-24,-136,-112,80,43,-124,-48,-92,-224,-195,-136,-82
-29,-126,-97,78,34,-112,19,24,-112,-117,-92,-82
-29,-117,-87,73,29,-102,53,58,-48,-58,-73,-78
-34,-92,-58,63,12,-75,58,68,-19,-43,-53,-68
-39,-73,-34,56,-2,-53,63,73,-14,-34,-48,-63
-39,-68,-29,53,-4,-48,63,87,-4,-29,-48,-63
-39,-68,-29,53,-4,-48,68,87,0,-29,-48,-63
-43,-68,-24,56,-9,-46,73,87,4,-19,-48,-63
-43,-73,-29,58,-7,-51,73,87,4,-29,-48,-63
-43,-73,-29,58,-7,-51,73,92,0,-29,-53,-68
-34,-73,-39,53,2,-56,73,92,0,-29,-53,-68
-34,-73,-39,53,2,-56,73,92,4,-24,-53,-68
-34,-68,-34,51,0,-51,68,92,14,-14,-48,-68
-34,-63,-29,48,-2,-46,68,97,14,-14,-43,-68
-39,-63,-24,51,-7,-43,68,102,14,-14,-39,-68
-39,-68,-29,53,-4,-48,73,107,19,-14,-39,-68
-39,-82,-43,61,2,-63,78,112,24,-14,-39,-68
-39,-82,-43,61,2,-63,78,112,24,-14,-34,-68
-43,-87,-43,65,0,-65,78,117,24,-14,-34,-68
-43,-87,-43,65,0,-65,82,112,24,-14,-34,-68
-43,-87,-43,65,0,-65,82,107,29,-9,-34,-68
-39,-73,-34,56,-2,-53,82,107,29,-9,-34,-68
-34,-63,-29,48,-2,-46,82,112,34,-4,-29,-68
-34,-63,-29,48,-2,-46,78,112,34,4,-29,-68
-34,-63,-29,48,-2,-46,78,107,39,9,-24,-68
-34,-68,-34,51,0,-51,82,112,43,14,-24,-68
-39,-78,-39,58,0,-58,87,122,48,14,-24,-68
-39,-82,-43,61,2,-63,87,122,43,19,-24,-68
-34,-87,-53,61,9,-70,87,126,43,19,-19,-63
-34,-87,-53,61,9,-70,87,131,48,24,-19,-58
-29,-78,-48,53,9,-63,92,136,53,29,-14,-53
-19,-58,-39,39,9,-48,92,141,68,34,-9,-53
-4,-43,-39,24,17,-41,92,146,73,39,-9,-48
-14,-53,-39,34,12,-46,97,156,78,39,-9,-48
-24,-58,-34,41,4,-46,97,156,82,43,-14,-53
-24,-63,-39,43,7,-51,97,161,92,48,-9,-53
-24,-68,-43,46,9,-56,97,165,92,53,-4,-53
-24,-68,-43,46,9,-56,97,170,97,58,0,-58
-24,-73,-48,48,12,-61,97,180,102,63,0,-58
-24,-73,-48,48,12,-61,102,185,102,63,0,-58
-24,-73,-48,48,12,-61,102,190,102,63,4,-58
-24,-73,-48,48,12,-61,102,190,117,68,4,-58
-19,-68,-48,43,14,-58,102,195,122,78,9,-53
-14,-63,-48,39,17,-56,102,200,131,78,14,-53
-9,-53,-43,31,17,-48,107,209,141,92,19,-53
-14,-48,-34,31,9,-41,107,214,146,97,24,-53
-19,-48,-29,34,4,-39,107,219,146,97,24,-53
-19,-43,-24,31,2,-34,107,224,161,102,24,-53
-19,-39,-19,29,0,-29,112,224,161,107,29,-53
-19,-34,-14,26,-2,-24,112,234,175,117,34,-48
-14,-24,-9,19,-2,-17,112,234,185,126,39,-48
-19,-19,0,19,-9,-9,107,239,195,131,43,-48
-14,-9,4,12,-9,-2,102,234,200,141,48,-43
-14,-4,9,9,-12,2,102,244,214,146,58,-39
-19,-9,9,14,-14,0,102,253,224,146,58,-39
-4,-9,-4,7,0,-7,107,268,234,151,58,-39
9,-9,-19,0,14,-14,112,278,244,156,63,-34
9,0,-9,-4,9,-4,117,287,253,170,73,-34
9,9,0,-9,4,4,122,297,263,185,73,-34
4,14,9,-9,-2,12,126,302,273,195,73,-34
-4,19,24,-7,-14,21,131,312,287,204,78,-34
-4,19,24,-7,-14,21,131,322,297,204,78,-34
-9,19,29,-4,-19,24,136,331,312,209,82,-34
-9,19,29,-4,-19,24,141,336,317,214,82,-39
-9,19,29,-4,-19,24,141,341,322,224,78,-39
-9,14,24,-2,-17,19,151,351,331,229,82,-34
-9,9,19,0,-14,14,156,356,341,239,87,-34
-9,24,34,-7,-21,29,151,361,351,239,87,-43
-9,34,43,-12,-26,39,151,375,361,244,82,-48
-9,43,53,-17,-31,48,161,390,370,253,82,-53
-9,53,63,-21,-36,58,165,405,375,253,82,-53
-14,39,53,-12,-34,46,170,414,380,258,82,-53
-19,24,43,-2,-31,34,185,429,385,258,82,-58
-19,24,43,-2,-31,34,185,434,390,263,87,-58
-19,19,39,0,-29,29,185,434,395,268,87,-58
-14,19,34,-2,-24,26,185,439,395,268,87,-58
-14,19,34,-2,-24,26,190,448,405,273,92,-58
-19,9,29,4,-24,19,190,448,405,268,92,-58
-19,4,24,7,-21,14,185,448,405,263,92,-58
-4,24,29,-9,-17,26,190,444,405,263,92,-53
4,39,34,-21,-14,36,185,444,405,263,97,-43
14,43,29,-29,-7,36,175,434,395,268,102,-39
14,43,29,-29,-7,36,170,419,380,258,102,-34
4,39,34,-21,-14,36,165,400,361,248,102,-34
0,39,39,-19,-19,39,156,380,346,244,102,-29
0,39,39,-19,-19,39,146,366,331,234,102,-19
0,39,39,-19,-19,39,136,336,307,224,102,-14
0,39,39,-19,-19,39,112,307,278,209,97,-9
0,43,43,-21,-21,43,92,268,248,190,87,-4
0,43,43,-21,-21,43,73,234,219,170,82,-4
0,43,43,-21,-21,43,58,195,195,156,82,0
4,58,53,-31,-24,56,48,170,165,141,82,19
14,63,48,-39,-17,56,34,141,136,122,82,34
14,63,48,-39,-17,56,19,107,112,112,73,43
14,63,48,-39,-17,56,14,78,87,97,68,48
4,53,48,-29,-21,51,0,43,73,78,58,43
4,43,39,-24,-17,41,-9,14,48,53,43,43
4,43,39,-24,-17,41,-19,0,29,39,39,43
4,34,29,-19,-12,31,-29,-19,4,19,29,43
4,24,19,-14,-7,21,-39,-43,-14,4,14,39
-4,14,19,-4,-12,17,-43,-63,-29,-14,9,34
-4,14,19,-4,-12,17,-48,-73,-53,-24,0,29
0,14,14,-7,-7,14,-48,-87,-58,-29,-4,24
0,29,29,-14,-14,29,-43,-87,-58,-29,0,24
0,39,39,-19,-19,39,-43,-87,-58,-34,0,19
0,48,48,-24,-24,48,-43,-92,-68,-34,0,19
0,43,43,-21,-21,43,-43,-102,-68,-34,0,24
-4,34,39,-14,-21,36,-53,-112,-68,-34,0,24
-9,19,29,-4,-19,24,-53,-112,-73,-39,-4,24
-14,9,24,2,-19,17,-48,-107,-78,-48,-9,24
-14,0,14,7,-14,7,-48,-107,-82,-53,-14,19
-14,-9,4,12,-9,-2,-53,-107,-82,-53,-19,14
-19,-19,0,19,-9,-9,-58,-112,-82,-53,-19,9
-19,-9,9,14,-14,0,-58,-112,-78,-48,-14,9
-19,0,19,9,-19,9,-58,-107,-73,-48,-9,9
-9,0,9,4,-9,4,-48,-107,-73,-53,-14,4
-4,4,9,0,-7,7,-43,-102,-73,-53,-14,4
-9,4,14,2,-12,9,-43,-97,-68,-48,-9,9
-9,0,9,4,-9,4,-43,-97,-73,-43,-14,4
-14,-14,0,14,-7,-7,-43,-97,-68,-43,-14,4
-14,-24,-9,19,-2,-17,-34,-97,-68,-43,-19,0
-14,-24,-9,19,-2,-17,-39,-102,-73,-43,-19,4
-19,-24,-4,21,-7,-14,-48,-112,-73,-48,-19,4
-24,-24,0,24,-12,-12,-48,-112,-73,-48,-19,0
-24,-24,0,24,-12,-12,-43,-112,-68,-43,-19,0
-19,-9,9,14,-14,0,-34,-97,-63,-39,-14,0
-14,0,14,7,-14,7,-24,-87,-58,-39,-9,4
-14,-9,4,12,-9,-2,-24,-92,-58,-43,-14,4
-19,-19,0,19,-9,-9,-24,-92,-58,-43,-14,4
-19,-24,-4,21,-7,-14,-24,-92,-68,-43,-24,0
-19,-34,-14,26,-2,-24,-24,-92,-82,-58,-29,-4
-19,-34,-14,26,-2,-24,-34,-97,-82,-63,-39,-9
-19,-29,-9,24,-4,-19,-39,-102,-82,-63,-48,-9
-24,-29,-4,26,-9,-17,-39,-102,-87,-68,-48,-24
-24,-29,-4,26,-9,-17,-39,-107,-87,-73,-48,-34
-19,-29,-9,24,-4,-19,-34,-107,-87,-73,-48,-24
-19,-29,-9,24,-4,-19,-29,-107,-87,-87,-53,-24
-19,-24,-4,21,-7,-14,-34,-107,-97,-87,-58,-24
-19,-24,-4,21,-7,-14,-34,-112,-92,-82,-58,-29
-24,-24,0,24,-12,-12,-29,-117,-97,-87,-58,-29
-24,-24,0,24,-12,-12,-29,-122,-102,-87,-58,-24
-29,-29,0,29,-14,-14,-34,-126,-107,-87,-63,-24
-29,-29,0,29,-14,-14,-34,-131,-112,-92,-63,-29
-29,-29,0,29,-14,-14,-34,-131,-112,-92,-63,-29
