I, II, III, aVR, aVL, aVF, V1, V2, V3, V4, V5, V6
165,419,253,-292,-43,336,-585,-263,-1337,-19,458,458
165,419,253,-292,-43,336,-585,-263,-1337,-19,458,458
165,419,253,-292,-43,336,-585,-263,-1337,-19,458,458
165,419,253,-292,-43,336,-585,-263,-1337,-19,458,458
219,463,244,-341,-12,353,-697,-292,-1639,-68,527,551
263,507,244,-385,9,375,-800,-322,-1932,-107,595,634
307,551,244,-429,31,397,-902,-351,-2225,-146,663,717
351,595,244,-473,53,419,-1005,-380,-2518,-185,732,800
439,605,165,-522,136,385,-1127,-375,-2771,-224,785,868
517,614,97,-566,209,356,-1249,-370,-3015,-263,829,927
595,624,29,-610,283,326,-1371,-366,-3259,-302,873,985
673,634,-39,-653,356,297,-1493,-361,-3503,-341,917,1044
761,590,-170,-675,466,209,-1561,-322,-3581,-356,902,1024
839,546,-292,-692,566,126,-1620,-292,-3650,-370,888,1005
917,502,-414,-710,666,43,-1678,-263,-3718,-385,873,985
995,458,-536,-727,766,-39,-1737,-234,-3786,-400,858,966
1024,43,-980,-534,1002,-468,-1590,-63,-3684,-688,483,673
1044,-370,-1415,-336,1229,-893,-1454,97,-3581,-976,117,390
1063,-785,-1849,-139,1456,-1317,-1317,258,-3479,-1263,-248,107
1083,-1200,-2283,58,1683,-1742,-1180,419,-3376,-1551,-614,-175
1010,-1449,-2459,219,1734,-1954,-1000,488,-3186,-1732,-854,-351
936,-1698,-2635,380,1786,-2166,-829,556,-2996,-1912,-1083,-517
863,-1947,-2810,541,1837,-2379,-658,624,-2806,-2093,-1312,-683
790,-2196,-2986,702,1888,-2591,-488,692,-2615,-2274,-1542,-849
727,-2044,-2771,658,1749,-2408,-453,614,-2400,-2117,-1439,-785
663,-1893,-2557,614,1610,-2225,-419,546,-2186,-1961,-1337,-732
600,-1742,-2342,570,1471,-2042,-385,478,-1971,-1805,-1234,-678
536,-1590,-2127,527,1332,-1859,-351,409,-1756,-1649,-1132,-624
488,-1434,-1922,473,1205,-1678,-326,356,-1571,-1493,-1015,-556
439,-1278,-1717,419,1078,-1498,-302,302,-1395,-1337,-907,-488
390,-1122,-1512,366,951,-1317,-278,248,-1220,-1180,-800,-419
341,-966,-1307,312,824,-1137,-253,195,-1044,-1024,-692,-351
283,-829,-1112,273,697,-971,-204,156,-893,-883,-595,-297
234,-702,-936,234,585,-819,-165,126,-751,-751,-507,-244
185,-575,-761,195,473,-668,-126,97,-610,-619,-419,-190
136,-448,-585,156,361,-517,-87,68,-468,-488,-331,-136
92,-390,-483,148,287,-436,-43,53,-370,-419,-287,-126
58,-341,-400,141,229,-370,-9,48,-273,-351,-253,-117
24,-292,-317,134,170,-305,24,43,-175,-283,-219,-107
-9,-244,-234,126,112,-239,58,39,-78,-214,-185,-97
-24,-204,-180,114,78,-192,73,39,-39,-175,-156,-87
-29,-175,-146,102,58,-161,87,39,0,-136,-136,-87
-34,-146,-112,90,39,-129,102,39,39,-97,-117,-87
-39,-117,-78,78,19,-97,117,39,78,-58,-97,-87
-48,-107,-58,78,4,-82,122,48,102,-43,-82,-82
-48,-97,-48,73,0,-73,126,48,126,-29,-78,-78
-48,-87,-39,68,-4,-63,131,48,151,-14,-73,-73
-48,-78,-29,63,-9,-53,136,48,175,0,-68,-68
-58,-73,-14,65,-21,-43,146,39,185,14,-58,-68
-58,-68,-9,63,-24,-39,146,39,185,19,-58,-68
-58,-63,-4,61,-26,-34,146,39,185,24,-58,-68
-58,-58,0,58,-29,-29,146,39,185,29,-58,-68
-58,-48,9,53,-34,-19,156,48,204,39,-53,-58
-58,-48,9,53,-34,-19,156,48,214,39,-48,-58
-58,-48,9,53,-34,-19,156,48,224,39,-43,-58
-58,-48,9,53,-34,-19,156,48,234,39,-39,-58
-68,-39,29,53,-48,-4,156,39,224,43,-39,-68
-68,-39,29,53,-48,-4,156,39,224,48,-39,-68
-68,-39,29,53,-48,-4,156,39,224,53,-39,-68
-68,-39,29,53,-48,-4,156,39,224,58,-39,-68
-68,-29,39,48,-53,4,146,39,234,58,-29,-58
-68,-29,39,48,-53,4,146,39,244,58,-29,-58
-68,-29,39,48,-53,4,146,39,253,58,-29,-58
-68,-29,39,48,-53,4,146,39,263,58,-29,-58
-68,-19,48,43,-58,14,146,29,253,63,-29,-68
-68,-19,48,43,-58,14,146,29,253,68,-29,-68
-68,-19,48,43,-58,14,146,29,253,73,-29,-68
-68,-19,48,43,-58,14,146,29,253,78,-29,-68
-68,-9,58,39,-63,24,146,39,263,87,-19,-58
-68,-9,58,39,-63,24,146,39,273,87,-19,-58
-68,-9,58,39,-63,24,146,39,283,87,-19,-58
-68,-9,58,39,-63,24,146,39,292,87,-19,-58
-68,-4,63,36,-65,29,156,29,292,97,-19,-58
-68,0,68,34,-68,34,156,29,292,97,-19,-58
-68,4,73,31,-70,39,156,29,292,97,-19,-58
-68,9,78,29,-73,43,156,29,292,97,-19,-58
-68,9,78,29,-73,43,156,29,302,107,-19,-48
-68,9,78,29,-73,43,156,29,312,107,-19,-48
-68,9,78,29,-73,43,156,29,322,107,-19,-48
-68,9,78,29,-73,43,156,29,331,107,-19,-48
-58,14,73,21,-65,43,156,29,331,117,-9,-48
-58,19,78,19,-68,48,156,29,331,117,-9,-48
-58,24,82,17,-70,53,156,29,331,117,-9,-48
-58,29,87,14,-73,58,156,29,331,117,-9,-48
-68,39,107,14,-87,73,156,29,341,126,0,-48
-68,39,107,14,-87,73,156,29,351,126,0,-48
-68,39,107,14,-87,73,156,29,361,126,0,-48
-68,39,107,14,-87,73,156,29,370,126,0,-48
-58,43,102,7,-80,73,156,29,370,131,0,-48
-58,48,107,4,-82,78,156,29,370,136,0,-48
-58,53,112,2,-85,82,156,29,370,141,0,-48
-58,58,117,0,-87,87,156,29,370,146,0,-48
-58,68,126,-4,-92,97,156,29,380,156,9,-48
-58,68,126,-4,-92,97,156,29,390,156,9,-48
-58,68,126,-4,-92,97,156,29,400,156,9,-48
-58,68,126,-4,-92,97,156,29,409,156,9,-48
-58,78,136,-9,-97,107,156,19,419,165,9,-48
-58,78,136,-9,-97,107,156,19,419,165,9,-48
-58,78,136,-9,-97,107,156,19,419,165,9,-48
-58,78,136,-9,-97,107,156,19,419,165,9,-48
-68,78,146,-4,-107,112,156,29,429,170,9,-58
-68,78,146,-4,-107,112,156,29,439,175,9,-58
-68,78,146,-4,-107,112,156,29,448,180,9,-58
-68,78,146,-4,-107,112,156,29,458,185,9,-58
-68,87,156,-9,-112,122,165,29,463,195,9,-48
-68,87,156,-9,-112,122,165,29,468,195,9,-48
-68,87,156,-9,-112,122,165,29,473,195,9,-48
-68,87,156,-9,-112,122,165,29,478,195,9,-48
-68,92,161,-12,-114,126,165,29,492,209,19,-58
-68,97,165,-14,-117,131,165,29,497,214,19,-58
-68,102,170,-17,-119,136,165,29,502,219,19,-58
-68,107,175,-19,-122,141,165,29,507,224,19,-58
-58,112,170,-26,-114,141,165,29,522,229,29,-48
-58,117,175,-29,-117,146,165,29,527,234,29,-48
-58,122,180,-31,-119,151,165,29,531,239,29,-48
-58,126,185,-34,-122,156,165,29,536,244,29,-48
-58,136,195,-39,-126,165,175,29,546,248,39,-58
-58,136,195,-39,-126,165,175,29,556,253,39,-58
-58,136,195,-39,-126,165,175,29,566,258,39,-58
-58,136,195,-39,-126,165,175,29,575,263,39,-58
-58,141,200,-41,-129,170,185,29,590,268,48,-58
-58,146,204,-43,-131,175,185,29,605,273,48,-58
-58,151,209,-46,-134,180,185,29,619,278,48,-58
-58,156,214,-48,-136,185,185,29,634,283,48,-58
-68,161,229,-46,-148,195,195,19,649,297,48,-58
-68,165,234,-48,-151,200,195,19,653,302,48,-58
-68,170,239,-51,-153,204,195,19,658,307,48,-58
-68,175,244,-53,-156,209,195,19,663,312,48,-58
-73,190,263,-58,-168,226,204,19,678,326,58,-58
-78,195,273,-58,-175,234,204,19,692,331,58,-58
-82,200,283,-58,-183,241,204,19,707,336,58,-58
-87,204,292,-58,-190,248,204,19,722,341,58,-58
-87,209,297,-61,-192,253,204,9,736,356,58,-58
-87,214,302,-63,-195,258,204,9,741,361,58,-58
-87,219,307,-65,-197,263,204,9,746,366,58,-58
-87,224,312,-68,-200,268,204,9,751,370,58,-58
-97,229,326,-65,-212,278,209,9,775,375,63,-48
-97,234,331,-68,-214,283,214,9,790,380,68,-48
-97,239,336,-70,-217,287,219,9,805,385,73,-48
-97,244,341,-73,-219,292,224,9,819,390,78,-48
-107,253,361,-73,-234,307,234,0,834,405,78,-58
-107,253,361,-73,-234,307,234,0,839,409,78,-58
-107,253,361,-73,-234,307,234,0,844,414,78,-58
-107,253,361,-73,-234,307,234,0,849,419,78,-58
-117,258,375,-70,-246,317,244,0,868,424,87,-58
-117,263,380,-73,-248,322,244,0,888,429,87,-58
-117,268,385,-75,-251,326,244,0,907,434,87,-58
-117,273,390,-78,-253,331,244,0,927,439,87,-58
-126,283,409,-78,-268,346,248,0,936,444,78,-58
-126,283,409,-78,-268,346,253,0,946,448,78,-58
-126,283,409,-78,-268,346,258,0,956,453,78,-58
-126,283,409,-78,-268,346,263,0,966,458,78,-58
-136,292,429,-78,-283,361,268,-9,980,468,78,-58
-136,292,429,-78,-283,361,273,-9,995,468,78,-58
-136,292,429,-78,-283,361,278,-9,1010,468,78,-58
-136,292,429,-78,-283,361,283,-9,1024,468,78,-58
-141,283,424,-70,-283,353,292,-19,1034,468,68,-68
-146,283,429,-68,-287,356,292,-19,1034,468,68,-68
-151,283,434,-65,-292,358,292,-19,1034,468,68,-68
-156,283,439,-63,-297,361,292,-19,1034,468,68,-68
-156,278,434,-61,-295,356,302,-19,1044,458,58,-68
-156,273,429,-58,-292,351,302,-19,1044,458,58,-68
-156,268,424,-56,-290,346,302,-19,1044,458,58,-68
-156,263,419,-53,-287,341,302,-19,1044,458,58,-68
-165,258,424,-46,-295,341,302,-19,1034,453,53,-78
-165,253,419,-43,-292,336,302,-19,1024,448,48,-78
-165,248,414,-41,-290,331,302,-19,1015,444,43,-78
-165,244,409,-39,-287,326,302,-19,1005,439,39,-78
-165,229,395,-31,-280,312,292,-9,995,424,34,-78
-165,224,390,-29,-278,307,292,-9,985,419,29,-78
-165,219,385,-26,-275,302,292,-9,976,414,24,-78
-165,214,380,-24,-273,297,292,-9,966,409,19,-78
-165,209,375,-21,-270,292,283,0,941,400,9,-87
-165,204,370,-19,-268,287,283,0,927,390,9,-87
-165,200,366,-17,-265,283,283,0,912,380,9,-87
-165,195,361,-14,-263,278,283,0,897,370,9,-87
-156,180,336,-12,-246,258,268,0,878,361,9,-82
-156,175,331,-9,-244,253,263,0,858,351,9,-78
-156,170,326,-7,-241,248,258,0,839,341,9,-73
-156,165,322,-4,-239,244,253,0,819,331,9,-68
-151,156,307,-2,-229,231,244,-9,790,322,0,-58
-146,156,302,-4,-224,229,234,-9,761,312,0,-58
-141,156,297,-7,-219,226,224,-9,732,302,0,-58
-136,156,292,-9,-214,224,214,-9,702,292,0,-58
-122,146,268,-12,-195,207,195,-19,678,283,9,-43
-117,146,263,-14,-190,204,185,-19,653,273,9,-39
-112,146,258,-17,-185,202,175,-19,629,263,9,-34
-107,146,253,-19,-180,200,165,-19,605,253,9,-29
-92,136,229,-21,-161,183,146,-29,570,244,14,-24
-87,136,224,-24,-156,180,136,-29,536,234,19,-19
-82,136,219,-26,-151,178,126,-29,502,224,24,-14
-78,136,214,-29,-146,175,117,-29,468,214,29,-9
-73,126,200,-26,-136,163,107,-29,434,204,39,-4
-68,126,195,-29,-131,161,97,-29,409,195,39,0
-63,126,190,-31,-126,158,87,-29,385,185,39,4
-58,126,185,-34,-122,156,78,-29,361,175,39,9
-43,126,170,-41,-107,148,68,-29,336,156,39,19
-39,126,165,-43,-102,146,58,-29,312,146,39,19
-34,126,161,-46,-97,143,48,-29,287,136,39,19
-29,126,156,-48,-92,141,39,-29,263,126,39,19
-19,122,141,-51,-80,131,24,-39,234,112,39,19
-19,117,136,-48,-78,126,19,-39,214,107,39,19
-19,112,131,-46,-75,122,14,-39,195,102,39,19
-19,107,126,-43,-73,117,9,-39,175,97,39,19
-9,92,102,-41,-56,97,4,-39,151,82,39,29
-9,87,97,-39,-53,92,0,-39,136,78,39,29
-9,82,92,-36,-51,87,-4,-39,122,73,39,29
-9,78,87,-34,-48,82,-9,-39,107,68,39,29
-9,68,78,-29,-43,73,-19,-39,97,63,29,29
-9,68,78,-29,-43,73,-19,-39,87,58,29,29
-9,68,78,-29,-43,73,-19,-39,78,53,29,29
-9,68,78,-29,-43,73,-19,-39,68,48,29,29
-19,53,73,-17,-46,63,-29,-39,58,34,19,29
-19,48,68,-14,-43,58,-29,-39,48,29,19,29
-19,43,63,-12,-41,53,-29,-39,39,24,19,29
-19,39,58,-9,-39,48,-29,-39,29,19,19,29
-29,34,63,-2,-46,48,-39,-39,19,9,19,19
-29,29,58,0,-43,43,-39,-39,9,9,19,19
-29,24,53,2,-41,39,-39,-39,0,9,19,19
-29,19,48,4,-39,34,-39,-39,-9,9,19,19
-19,9,29,4,-24,19,-39,-29,-9,4,9,19
-19,9,29,4,-24,19,-39,-29,-9,0,9,19
-19,9,29,4,-24,19,-39,-29,-9,-4,9,19
-19,9,29,4,-24,19,-39,-29,-9,-9,9,19
-19,4,24,7,-21,14,-39,-29,-24,-9,0,9
-19,0,19,9,-19,9,-39,-29,-29,-9,0,9
-19,-4,14,12,-17,4,-39,-29,-34,-9,0,9
-19,-9,9,14,-14,0,-39,-29,-39,-9,0,9
-19,-9,9,14,-14,0,-39,-29,-29,-19,0,9
-19,-9,9,14,-14,0,-39,-29,-29,-19,0,9
-19,-9,9,14,-14,0,-39,-29,-29,-19,0,9
-19,-9,9,14,-14,0,-39,-29,-29,-19,0,9
-14,0,14,7,-14,7,-29,-19,-29,-19,0,9
-9,0,9,4,-9,4,-29,-19,-29,-19,0,9
-4,0,4,2,-4,2,-29,-19,-29,-19,0,9
0,0,0,0,0,0,-29,-19,-29,-19,0,9
0,0,0,0,0,0,-29,-19,-39,-19,0,9
0,0,0,0,0,0,-29,-19,-39,-19,0,9
0,0,0,0,0,0,-29,-19,-39,-19,0,9
0,0,0,0,0,0,-29,-19,-39,-19,0,9
0,-9,-9,4,4,-9,-29,-29,-29,-19,0,9
0,-9,-9,4,4,-9,-29,-29,-29,-19,0,9
0,-9,-9,4,4,-9,-29,-29,-29,-19,0,9
0,-9,-9,4,4,-9,-29,-29,-29,-19,0,9
-4,-19,-14,12,4,-17,-39,-29,-39,-19,0,9
-9,-19,-9,14,0,-14,-39,-29,-39,-19,0,9
-14,-19,-4,17,-4,-12,-39,-29,-39,-19,0,9
-19,-19,0,19,-9,-9,-39,-29,-39,-19,0,9
-19,-19,0,19,-9,-9,-29,-29,-29,-19,0,9
-19,-19,0,19,-9,-9,-29,-29,-29,-19,0,9
-19,-19,0,19,-9,-9,-29,-29,-29,-19,0,9
-19,-19,0,19,-9,-9,-29,-29,-29,-19,0,9
-14,-14,0,14,-7,-7,-29,-29,-19,-9,0,9
-9,-9,0,9,-4,-4,-29,-29,-19,-9,0,9
-4,-4,0,4,-2,-2,-29,-29,-19,-9,0,9
0,0,0,0,0,0,-29,-29,-19,-9,0,9
-9,0,9,4,-9,4,-29,-29,-14,0,9,9
-9,0,9,4,-9,4,-29,-29,-9,0,9,9
-9,0,9,4,-9,4,-29,-29,-4,0,9,9
-9,0,9,4,-9,4,-29,-29,0,0,9,9
-19,9,29,4,-24,19,-29,-29,0,0,9,9
-19,9,29,4,-24,19,-29,-29,0,0,9,9
-19,9,29,4,-24,19,-29,-29,0,0,9,9
-19,9,29,4,-24,19,-29,-29,0,0,9,9
-19,9,29,4,-24,19,-29,-29,9,9,9,9
-19,9,29,4,-24,19,-29,-29,9,9,9,9
-19,9,29,4,-24,19,-29,-29,9,9,9,9
-19,9,29,4,-24,19,-29,-29,9,9,9,9
-19,9,29,4,-24,19,-29,-29,9,9,9,9
-19,9,29,4,-24,19,-29,-29,9,9,9,9
-19,9,29,4,-24,19,-29,-29,9,9,9,9
-19,9,29,4,-24,19,-29,-29,9,9,9,9
-19,19,39,0,-29,29,-19,-29,14,19,9,9
-19,19,39,0,-29,29,-19,-29,19,19,9,9
-19,19,39,0,-29,29,-19,-29,24,19,9,9
-19,19,39,0,-29,29,-19,-29,29,19,9,9
-19,19,39,0,-29,29,-19,-29,29,19,9,9
-19,19,39,0,-29,29,-19,-29,29,19,9,9
-19,19,39,0,-29,29,-19,-29,29,19,9,9
-19,19,39,0,-29,29,-19,-29,29,19,9,9
-29,9,39,9,-34,24,-9,-29,39,19,9,9
-29,9,39,9,-34,24,-9,-29,39,19,9,9
-29,9,39,9,-34,24,-9,-29,39,19,9,9
-29,9,39,9,-34,24,-9,-29,39,19,9,9
-29,9,39,9,-34,24,-9,-29,29,19,0,0
-29,9,39,9,-34,24,-9,-29,29,19,0,0
-29,9,39,9,-34,24,-9,-29,29,19,0,0
-29,9,39,9,-34,24,-9,-29,29,19,0,0
-39,9,48,14,-43,29,-9,-29,39,19,0,0
-39,9,48,14,-43,29,-9,-29,39,19,0,0
-39,9,48,14,-43,29,-9,-29,39,19,0,0
-39,9,48,14,-43,29,-9,-29,39,19,0,0
-39,0,39,19,-39,19,-9,-29,39,9,0,0
-39,0,39,19,-39,19,-9,-29,39,9,0,0
-39,0,39,19,-39,19,-9,-29,39,9,0,0
-39,0,39,19,-39,19,-9,-29,39,9,0,0
-39,0,39,19,-39,19,0,-29,39,9,0,0
-39,0,39,19,-39,19,0,-29,39,9,0,0
-39,0,39,19,-39,19,0,-29,39,9,0,0
-39,0,39,19,-39,19,0,-29,39,9,0,0
-39,-9,29,24,-34,9,0,-29,39,9,0,0
-39,-9,29,24,-34,9,0,-29,39,9,0,0
-39,-9,29,24,-34,9,0,-29,39,9,0,0
-39,-9,29,24,-34,9,0,-29,39,9,0,0
-48,-9,39,29,-43,14,0,-29,29,0,0,0
-48,-9,39,29,-43,14,0,-29,29,0,0,0
-48,-9,39,29,-43,14,0,-29,29,0,0,0
-48,-9,39,29,-43,14,0,-29,29,0,0,0
-39,-9,29,24,-34,9,0,-19,29,0,0,-9
-39,-9,29,24,-34,9,0,-19,29,0,0,-9
-39,-9,29,24,-34,9,0,-19,29,0,0,-9
-39,-9,29,24,-34,9,0,-19,29,0,0,-9
-48,-19,29,34,-39,4,9,-19,19,0,0,-9
-48,-19,29,34,-39,4,9,-19,19,0,0,-9
-48,-19,29,34,-39,4,9,-19,19,0,0,-9
-48,-19,29,34,-39,4,9,-19,19,0,0,-9
-48,-29,19,39,-34,-4,9,-19,19,-9,-9,-9
-48,-29,19,39,-34,-4,9,-19,19,-9,-9,-9
-48,-29,19,39,-34,-4,9,-19,19,-9,-9,-9
-48,-29,19,39,-34,-4,9,-19,19,-9,-9,-9
-48,-29,19,39,-34,-4,9,-19,9,-19,-9,-9
-48,-29,19,39,-34,-4,9,-19,9,-19,-9,-9
-48,-29,19,39,-34,-4,9,-19,9,-19,-9,-9
-48,-29,19,39,-34,-4,9,-19,9,-19,-9,-9
-48,-29,19,39,-34,-4,9,-19,9,-19,-9,-9
-48,-29,19,39,-34,-4,9,-19,9,-19,-9,-9
-48,-29,19,39,-34,-4,9,-19,9,-19,-9,-9
-48,-29,19,39,-34,-4,9,-19,9,-19,-9,-9
-48,-29,19,39,-34,-4,9,-19,0,-29,-19,0
-48,-29,19,39,-34,-4,9,-19,0,-29,-19,0
-48,-29,19,39,-34,-4,9,-19,0,-29,-19,0
-48,-29,19,39,-34,-4,9,-19,0,-29,-19,0
-48,-39,9,43,-29,-14,9,-19,-9,-39,-19,-9
-48,-39,9,43,-29,-14,9,-19,-9,-39,-19,-9
-48,-39,9,43,-29,-14,9,-19,-9,-39,-19,-9
-48,-39,9,43,-29,-14,9,-19,-9,-39,-19,-9
-58,-48,9,53,-34,-19,9,-19,-19,-39,-19,-19
-58,-48,9,53,-34,-19,9,-19,-19,-39,-19,-19
-58,-48,9,53,-34,-19,9,-19,-19,-39,-19,-19
-58,-48,9,53,-34,-19,9,-19,-19,-39,-19,-19
-58,-58,0,58,-29,-29,9,-29,-29,-48,-29,-19
-58,-58,0,58,-29,-29,9,-29,-29,-48,-29,-19
-58,-58,0,58,-29,-29,9,-29,-29,-48,-29,-19
-58,-58,0,58,-29,-29,9,-29,-29,-48,-29,-19
-58,-58,0,58,-29,-29,9,-29,-29,-48,-29,-19
-58,-58,0,58,-29,-29,9,-29,-29,-48,-29,-19
-58,-58,0,58,-29,-29,9,-29,-29,-48,-29,-19
-58,-58,0,58,-29,-29,9,-29,-29,-48,-29,-19
-48,-58,-9,53,-19,-34,0,-19,-39,-58,-29,-19
-48,-58,-9,53,-19,-34,0,-19,-39,-58,-29,-19
-48,-58,-9,53,-19,-34,0,-19,-39,-58,-29,-19
-48,-58,-9,53,-19,-34,0,-19,-39,-58,-29,-19
-48,-48,0,48,-24,-24,0,-19,-39,-58,-29,-19
-48,-48,0,48,-24,-24,0,-19,-39,-58,-29,-19
-48,-48,0,48,-24,-24,0,-19,-39,-58,-29,-19
-48,-48,0,48,-24,-24,0,-19,-39,-58,-29,-19
-48,-58,-9,53,-19,-34,0,-19,-39,-58,-29,-9
-48,-58,-9,53,-19,-34,0,-19,-39,-58,-29,-9
-48,-58,-9,53,-19,-34,0,-19,-39,-58,-29,-9
-48,-58,-9,53,-19,-34,0,-19,-39,-58,-29,-9
-58,-58,0,58,-29,-29,0,-29,-48,-58,-29,-9
-58,-58,0,58,-29,-29,0,-29,-48,-58,-29,-9
-58,-58,0,58,-29,-29,0,-29,-48,-58,-29,-9
-58,-58,0,58,-29,-29,0,-29,-48,-58,-29,-9
-48,-58,-9,53,-19,-34,0,-29,-48,-58,-19,-9
-48,-58,-9,53,-19,-34,0,-29,-48,-58,-19,-9
-48,-58,-9,53,-19,-34,0,-29,-48,-58,-19,-9
-48,-58,-9,53,-19,-34,0,-29,-48,-58,-19,-9
-48,-58,-9,53,-19,-34,0,-19,-48,-58,-19,0
-48,-58,-9,53,-19,-34,0,-19,-48,-58,-19,0
-48,-58,-9,53,-19,-34,0,-19,-48,-58,-19,0
-48,-58,-9,53,-19,-34,0,-19,-48,-58,-19,0
-48,-58,-9,53,-19,-34,9,-19,-48,-58,-19,0
-48,-58,-9,53,-19,-34,9,-19,-48,-58,-19,0
-48,-58,-9,53,-19,-34,9,-19,-48,-58,-19,0
-48,-58,-9,53,-19,-34,9,-19,-48,-58,-19,0
-48,-68,-19,58,-14,-43,9,-19,-58,-68,-29,-9
-48,-68,-19,58,-14,-43,9,-19,-58,-68,-29,-9
-48,-68,-19,58,-14,-43,9,-19,-58,-68,-29,-9
-48,-68,-19,58,-14,-43,9,-19,-58,-68,-29,-9
-58,-78,-19,68,-19,-48,0,-19,-58,-68,-29,-9
-58,-78,-19,68,-19,-48,0,-19,-58,-68,-29,-9
-58,-78,-19,68,-19,-48,0,-19,-58,-68,-29,-9
-58,-78,-19,68,-19,-48,0,-19,-58,-68,-29,-9
-58,-78,-19,68,-19,-48,0,-19,-58,-68,-29,-9
-58,-78,-19,68,-19,-48,0,-19,-58,-68,-29,-9
-58,-78,-19,68,-19,-48,0,-19,-58,-68,-29,-9
-58,-78,-19,68,-19,-48,0,-19,-58,-68,-29,-9
-48,-68,-19,58,-14,-43,0,-19,-58,-68,-19,-9
-48,-68,-19,58,-14,-43,0,-19,-58,-68,-19,-9
-48,-68,-19,58,-14,-43,0,-19,-58,-68,-19,-9
-48,-68,-19,58,-14,-43,0,-19,-58,-68,-19,-9
-48,-68,-19,58,-14,-43,0,-19,-58,-68,-19,0
-48,-68,-19,58,-14,-43,0,-19,-58,-68,-19,0
-48,-68,-19,58,-14,-43,0,-19,-58,-68,-19,0
-48,-68,-19,58,-14,-43,0,-19,-58,-68,-19,0
-39,-58,-19,48,-9,-39,0,-19,-58,-68,-19,0
-39,-58,-19,48,-9,-39,0,-19,-58,-68,-19,0
-39,-58,-19,48,-9,-39,0,-19,-58,-68,-19,0
-39,-58,-19,48,-9,-39,0,-19,-58,-68,-19,0
-39,-58,-19,48,-9,-39,0,-19,-68,-68,-19,0
-39,-58,-19,48,-9,-39,0,-19,-68,-68,-19,0
-39,-58,-19,48,-9,-39,0,-19,-68,-68,-19,0
-39,-58,-19,48,-9,-39,0,-19,-68,-68,-19,0
-48,-58,-9,53,-19,-34,0,-19,-68,-68,-19,-9
-48,-58,-9,53,-19,-34,0,-19,-68,-68,-19,-9
-48,-58,-9,53,-19,-34,0,-19,-68,-68,-19,-9
-48,-58,-9,53,-19,-34,0,-19,-68,-68,-19,-9
-48,-58,-9,53,-19,-34,0,-19,-68,-68,-19,-9
-48,-58,-9,53,-19,-34,0,-19,-68,-68,-19,-9
-48,-58,-9,53,-19,-34,0,-19,-68,-68,-19,-9
-48,-58,-9,53,-19,-34,0,-19,-68,-68,-19,-9
-39,-48,-9,43,-14,-29,-9,-9,-58,-58,-9,-9
-39,-48,-9,43,-14,-29,-9,-9,-58,-58,-9,-9
-39,-48,-9,43,-14,-29,-9,-9,-58,-58,-9,-9
-39,-48,-9,43,-14,-29,-9,-9,-58,-58,-9,-9
-29,-43,-14,36,-7,-29,-14,-19,-53,-48,0,-4
-29,-39,-9,34,-9,-24,-19,-19,-48,-48,0,0
-29,-34,-4,31,-12,-19,-24,-19,-43,-48,0,4
-29,-29,0,29,-14,-14,-29,-19,-39,-48,0,9
-24,-19,4,21,-14,-7,-39,-19,-29,-43,9,19
-19,-9,9,14,-14,0,-39,-19,-29,-39,9,19
-14,0,14,7,-14,7,-39,-19,-29,-34,9,19
-9,9,19,0,-14,14,-39,-19,-29,-29,9,19
-4,24,29,-9,-17,26,-43,-29,-24,-24,14,29
-4,29,34,-12,-19,31,-48,-29,-14,-24,19,29
0,34,34,-17,-17,34,-53,-29,-4,-24,29,29
0,39,39,-19,-19,39,-58,-29,4,-14,34,34
4,48,43,-26,-19,46,-63,-29,9,0,34,39
4,53,48,-29,-21,51,-68,-29,14,4,34,39
14,58,43,-36,-14,51,-73,-34,19,4,34,48
14,73,58,-43,-21,65,-78,-34,24,9,43,53
14,73,58,-43,-21,65,-82,-43,19,14,39,48
14,82,68,-48,-26,75,-87,-43,24,19,43,48
14,92,78,-53,-31,85,-92,-48,29,24,43,53
19,102,82,-61,-31,92,-97,-53,29,29,53,58
19,97,78,-58,-29,87,-107,-58,29,24,58,63
19,107,87,-63,-34,97,-117,-63,29,29,63,68
19,112,92,-65,-36,102,-117,-68,29,29,68,73
24,117,92,-70,-34,104,-126,-73,19,29,68,78
24,122,97,-73,-36,109,-136,-78,14,39,73,78
29,126,97,-78,-34,112,-136,-82,9,39,73,78
29,126,97,-78,-34,112,-146,-82,4,39,73,82
29,131,102,-80,-36,117,-151,-82,0,39,73,82
43,146,102,-95,-29,124,-156,-73,-9,39,73,87
48,146,97,-97,-24,122,-161,-78,-19,39,73,87
53,146,92,-100,-19,119,-165,-78,-24,39,78,92
58,146,87,-102,-14,117,-165,-78,-24,39,78,92
68,146,78,-107,-4,112,-165,-78,-29,39,78,92
68,146,78,-107,-4,112,-165,-78,-39,29,78,92
68,136,68,-102,0,102,-165,-73,-43,29,78,92
68,136,68,-102,0,102,-156,-73,-48,24,73,87
68,122,53,-95,7,87,-151,-68,-53,14,68,87
63,117,53,-90,4,85,-146,-68,-58,14,63,78
58,112,53,-85,2,82,-141,-63,-63,9,63,78
53,107,53,-80,0,80,-136,-63,-63,9,63,78
34,97,63,-65,-14,80,-122,-58,-73,14,58,73
29,87,58,-58,-14,73,-112,-58,-73,9,53,68
24,78,53,-51,-14,65,-102,-53,-73,4,48,68
19,68,48,-43,-14,58,-92,-53,-78,0,43,63
14,58,43,-36,-14,51,-82,-53,-78,-14,39,58
4,48,43,-26,-19,46,-73,-48,-78,-19,34,53
-4,39,43,-17,-24,41,-63,-43,-78,-24,29,48
-9,29,39,-9,-24,34,-53,-43,-78,-29,24,43
-19,19,39,0,-29,29,-43,-43,-68,-24,29,39
-29,4,34,12,-31,19,-34,-39,-68,-29,24,34
-29,-4,24,17,-26,9,-24,-39,-68,-34,19,29
-34,-14,19,24,-26,2,-24,-29,-68,-39,14,24
-29,-24,4,26,-17,-9,0,-29,-73,-43,9,19
-34,-34,0,34,-17,-17,4,-24,-73,-48,4,14
-39,-43,-4,41,-17,-24,9,-19,-73,-53,-4,0
-39,-53,-14,46,-12,-34,14,-19,-73,-58,-9,0
-43,-63,-19,53,-12,-41,19,-19,-78,-63,-14,-4
-43,-63,-19,53,-12,-41,19,-14,-78,-63,-19,-9
-43,-68,-24,56,-9,-46,19,-14,-78,-68,-19,-14
-43,-73,-29,58,-7,-51,29,-9,-82,-73,-24,-19
-53,-78,-24,65,-14,-51,29,-4,-82,-73,-24,-19
-53,-82,-29,68,-12,-56,29,-4,-82,-73,-24,-19
-53,-87,-34,70,-9,-61,34,-4,-82,-73,-24,-19
-58,-87,-29,73,-14,-58,34,-4,-82,-73,-24,-19
-58,-78,-19,68,-19,-48,34,0,-82,-73,-24,-19
-58,-78,-19,68,-19,-48,34,0,-82,-73,-24,-24
-58,-78,-19,68,-19,-48,34,0,-87,-73,-29,-24
-58,-78,-19,68,-19,-48,34,0,-87,-73,-29,-24
-58,-78,-19,68,-19,-48,39,0,-87,-78,-29,-24
-58,-78,-19,68,-19,-48,39,4,-87,-78,-29,-24
-58,-82,-24,70,-17,-53,39,4,-87,-78,-29,-24
-58,-82,-24,70,-17,-53,39,4,-87,-78,-29,-24
-58,-82,-24,70,-17,-53,39,14,-87,-78,-29,-24
-58,-82,-24,70,-17,-53,39,14,-87,-78,-29,-29
-58,-82,-24,70,-17,-53,39,14,-87,-78,-29,-29
-58,-82,-24,70,-17,-53,39,14,-87,-78,-29,-29
-48,-82,-34,65,-7,-58,39,9,-87,-78,-34,-29
-48,-82,-34,65,-7,-58,39,9,-87,-82,-34,-29
-48,-82,-34,65,-7,-58,43,9,-87,-82,-34,-29
-48,-82,-34,65,-7,-58,43,9,-87,-82,-34,-29
-48,-82,-34,65,-7,-58,43,9,-87,-82,-34,-39
-48,-82,-34,65,-7,-58,43,9,-87,-82,-34,-39
-48,-82,-34,65,-7,-58,43,9,-87,-82,-34,-39
-48,-82,-34,65,-7,-58,43,9,-87,-82,-34,-39
-58,-82,-24,70,-17,-53,34,9,-87,-92,-34,-43
-58,-87,-29,73,-14,-58,34,9,-87,-92,-34,-43
-58,-87,-29,73,-14,-58,34,9,-92,-92,-34,-43
-58,-87,-29,73,-14,-58,34,9,-92,-92,-34,-43
-43,-78,-34,61,-4,-56,34,19,-92,-73,-34,-34
-43,-73,-29,58,-7,-51,34,19,-82,-68,-29,-34
-39,-63,-24,51,-7,-43,24,24,-63,-63,-29,-34
-29,-58,-29,43,0,-43,24,34,-34,-48,-29,-34
-29,-53,-24,41,-2,-39,24,34,4,-39,-24,-43
-29,-43,-14,36,-7,-29,34,24,29,-24,-14,-43
-39,-34,4,36,-21,-14,39,19,29,-24,-9,-34
-53,-24,29,39,-41,2,39,0,-19,-34,0,-19
-48,-19,29,34,-39,4,19,-14,-117,-53,19,4
-24,0,24,12,-24,12,-24,-29,-253,-63,43,29
9,39,29,-24,-9,34,-82,-43,-375,-63,73,58
48,87,39,-68,4,63,-156,-58,-512,-58,122,102
82,146,63,-114,9,104,-258,-92,-692,-48,180,156
122,253,131,-187,-4,192,-385,-151,-907,-34,273,258
146,366,219,-256,-36,292,-527,-224,-1156,-4,395,366
190,488,297,-339,-53,392,-658,-292,-1424,4,502,488
229,561,331,-395,-51,446,-766,-346,-1708,-19,595,600
268,595,326,-431,-29,461,-873,-380,-2000,-63,673,692
322,585,263,-453,29,424,-956,-390,-2308,-141,697,751
390,575,185,-483,102,380,-1063,-375,-2620,-190,732,790
473,600,126,-536,173,363,-1185,-366,-2903,-244,790,868
556,624,68,-590,244,346,-1337,-366,-3162,-287,844,946
658,639,-19,-649,339,309,-1473,-356,-3401,-322,883,995
746,649,-97,-697,422,275,-1586,-341,-3572,-336,922,1044
834,634,-200,-734,517,217,-1664,-312,-3689,-346,936,1054
922,600,-322,-761,622,139,-1717,-283,-3747,-356,936,1044
995,551,-444,-773,719,53,-1771,-248,-3772,-346,917,1010
1068,448,-619,-758,844,-85,-1790,-190,-3752,-390,844,932
1117,214,-902,-666,1010,-344,-1756,-97,-3723,-541,658,771
1146,-214,-1361,-466,1254,-788,-1629,68,-3640,-829,273,473
1156,-868,-2025,-143,1590,-1446,-1381,336,-3494,-1302,-336,4
1102,-1615,-2718,256,1910,-2166,-1054,605,-3284,-1869,-1010,-473
1000,-2127,-3128,563,2064,-2627,-780,746,-3089,-2264,-1439,-775
917,-2298,-3215,690,2066,-2757,-610,771,-2918,-2400,-1590,-888
844,-2274,-3118,714,1981,-2696,-527,741,-2737,-2386,-1590,-893
771,-2171,-2942,700,1856,-2557,-463,683,-2532,-2283,-1532,-873
702,-2030,-2732,663,1717,-2381,-419,610,-2318,-2132,-1444,-824
644,-1859,-2503,607,1573,-2181,-395,527,-2103,-1942,-1317,-756
575,-1664,-2239,544,1407,-1952,-385,453,-1864,-1737,-1176,-668
522,-1468,-1991,473,1256,-1729,-370,366,-1673,-1551,-1049,-585
468,-1293,-1761,412,1115,-1527,-341,292,-1473,-1376,-922,-502
414,-1137,-1551,361,983,-1344,-312,248,-1263,-1220,-800,-434
380,-1015,-1395,317,888,-1205,-287,209,-1137,-1088,-722,-380
346,-883,-1229,268,788,-1056,-263,175,-1000,-961,-634,-326
307,-717,-1024,204,666,-871,-229,131,-854,-810,-527,-253
244,-551,-795,153,519,-673,-180,87,-688,-639,-405,-175
170,-453,-624,141,397,-539,-131,63,-522,-512,-322,-136
112,-385,-497,136,305,-441,-78,58,-400,-434,-278,-122
63,-336,-400,136,231,-368,-34,48,-292,-361,-234,-102
24,-297,-322,136,173,-309,9,43,-185,-297,-190,-102
-9,-263,-253,136,122,-258,43,43,-117,-234,-170,-92
-29,-219,-190,124,80,-204,73,34,-58,-185,-146,-102
-39,-185,-146,112,53,-165,92,34,0,-141,-131,-102
-39,-146,-107,92,34,-126,107,43,14,-107,-112,-102
-43,-122,-78,82,17,-100,117,48,53,-68,-97,-92
-48,-102,-53,75,2,-78,131,43,102,-48,-82,-82
-48,-102,-53,75,2,-78,131,53,131,-19,-63,-78
-48,-92,-43,70,-2,-68,141,53,161,-14,-53,-63
-58,-82,-24,70,-17,-53,136,53,180,-9,-48,-58
-58,-82,-24,70,-17,-53,141,48,161,0,-48,-58
-63,-78,-14,70,-24,-46,141,48,161,9,-48,-63
-63,-68,-4,65,-29,-36,141,39,156,19,-48,-63
-63,-63,0,63,-31,-31,141,39,156,19,-48,-63
-53,-53,0,53,-26,-26,151,48,190,24,-39,-63
-63,-53,9,58,-36,-21,151,48,200,29,-29,-63
-68,-53,14,61,-41,-19,151,48,219,29,-24,-53
-68,-48,19,58,-43,-14,151,53,239,29,-19,-53
-63,-53,9,58,-36,-21,161,43,224,39,-19,-43
-63,-48,14,56,-39,-17,161,39,224,43,-19,-43
-63,-39,24,51,-43,-7,165,39,224,48,-19,-53
-63,-34,29,48,-46,-2,165,39,209,53,-19,-53
-63,-34,29,48,-46,-2,165,39,229,53,-19,-63
-63,-34,29,48,-46,-2,165,39,239,53,-19,-63
-68,-34,34,51,-51,0,165,39,248,53,-9,-58
-68,-34,34,51,-51,0,165,39,268,53,-9,-58
-68,-34,34,51,-51,0,165,39,268,53,-19,-58
-63,-24,39,43,-51,7,165,39,263,53,-19,-58
-63,-19,43,41,-53,12,165,39,253,63,-19,-63
-63,-19,43,41,-53,12,165,34,244,68,-19,-63
-63,-19,43,41,-53,12,165,43,244,73,-19,-63
-63,-19,43,41,-53,12,165,48,268,73,-19,-63
-63,-19,43,41,-53,12,165,48,278,73,-19,-63
-63,-14,48,39,-56,17,165,53,297,73,-9,-53
-63,-14,48,39,-56,17,165,43,307,73,4,-53
-63,-4,58,34,-61,26,165,43,292,73,4,-53
-63,0,63,31,-63,31,165,34,292,82,0,-53
-63,9,73,26,-68,41,165,34,283,87,-9,-53
-68,9,78,29,-73,43,165,43,263,97,-9,-53
-68,9,78,29,-73,43,165,43,292,97,-4,-53
-73,9,82,31,-78,46,165,43,297,97,-4,-53
-73,9,82,31,-78,46,165,43,312,102,4,-43
-63,9,73,26,-68,41,156,43,346,92,4,-43
-63,9,73,26,-68,41,156,43,331,92,4,-43
-63,19,82,21,-73,51,156,43,331,102,4,-43
-58,24,82,17,-70,53,156,43,326,107,0,-48
-58,39,97,9,-78,68,156,34,312,122,9,-48
-63,39,102,12,-82,70,156,34,331,126,9,-53
-63,39,102,12,-82,70,156,34,346,126,9,-53
-63,39,102,12,-82,70,156,34,356,126,9,-43
-58,39,97,9,-78,68,156,34,370,117,9,-34
-58,43,102,7,-80,73,156,34,370,117,9,-34
-58,43,102,7,-80,73,156,34,370,126,9,-34
-58,53,112,2,-85,82,156,34,366,126,4,-43
-68,48,117,9,-92,82,156,34,346,141,4,-43
-63,48,112,7,-87,80,156,34,356,146,4,-43
-63,48,112,7,-87,80,156,34,370,151,4,-43
-68,48,117,9,-92,82,161,34,385,151,9,-43
-58,48,107,4,-82,78,161,34,414,141,19,-39
-58,48,107,4,-82,78,161,34,429,141,19,-39
-58,48,107,4,-82,78,161,39,419,151,19,-39
-58,58,117,0,-87,87,161,39,419,156,19,-39
-53,73,126,-9,-90,100,170,39,414,161,14,-48
-53,73,126,-9,-90,100,170,39,414,165,14,-53
-53,73,126,-9,-90,100,170,39,429,165,14,-53
-53,73,126,-9,-90,100,170,39,444,170,14,-48
-53,78,131,-12,-92,104,161,48,458,180,19,-43
-53,78,131,-12,-92,104,165,48,468,180,19,-43
-53,87,141,-17,-97,114,165,48,468,180,24,-39
-53,92,146,-19,-100,119,165,48,468,190,24,-39
-53,97,151,-21,-102,124,165,39,468,185,24,-48
-53,97,151,-21,-102,124,165,29,468,195,24,-48
-53,97,151,-21,-102,124,165,39,478,200,19,-48
-58,97,156,-19,-107,126,165,39,492,204,19,-48
-58,87,146,-14,-102,117,165,39,507,209,29,-43
-58,92,151,-17,-104,122,170,39,536,214,34,-39
-58,102,161,-21,-109,131,170,39,536,219,34,-39
-58,107,165,-24,-112,136,170,39,536,224,34,-43
-58,112,170,-26,-114,141,185,39,536,229,34,-58
-58,117,175,-29,-117,146,185,34,536,234,34,-58
-58,122,180,-31,-119,151,185,34,546,239,34,-58
-58,126,185,-34,-122,156,185,34,570,244,34,-58
-68,136,204,-34,-136,170,185,34,585,258,43,-48
-68,141,209,-36,-139,175,185,34,614,263,43,-43
-68,146,214,-39,-141,180,185,34,634,268,48,-43
-68,151,219,-41,-143,185,190,34,634,273,48,-43
-68,156,224,-43,-146,190,180,34,634,283,48,-58
-68,161,229,-46,-148,195,185,29,639,287,48,-58
-68,175,244,-53,-156,209,185,29,639,297,48,-58
-73,175,248,-51,-161,212,185,29,668,302,48,-63
-78,170,248,-46,-163,209,185,29,683,307,48,-53
-78,170,248,-46,-163,209,190,29,707,312,58,-43
-78,175,253,-48,-165,214,190,29,727,317,63,-43
-78,180,258,-51,-168,219,200,29,727,326,63,-43
-78,200,278,-61,-178,239,204,19,736,331,63,-43
-78,209,287,-65,-183,248,204,14,741,341,63,-48
-78,214,292,-68,-185,253,204,14,741,351,63,-48
-78,219,297,-70,-187,258,204,14,761,356,63,-48
-78,234,312,-78,-195,273,219,24,790,370,78,-48
-82,239,322,-78,-202,280,219,24,810,375,82,-43
-82,244,326,-80,-204,285,224,24,839,380,87,-43
-82,248,331,-82,-207,290,224,19,849,385,87,-43
-82,263,346,-90,-214,305,229,19,854,390,87,-34
-82,268,351,-92,-217,309,229,19,858,400,87,-34
-82,273,356,-95,-219,314,234,14,858,409,87,-34
-92,278,370,-92,-231,324,244,14,868,414,87,-39
-97,268,366,-85,-231,317,244,14,902,409,87,-39
-102,268,370,-82,-236,319,248,14,912,419,87,-39
-102,273,375,-85,-239,324,248,14,941,424,92,-34
-102,273,375,-85,-239,324,253,14,951,424,92,-34
-112,273,385,-80,-248,329,258,4,951,429,82,-34
-122,273,395,-75,-258,334,263,4,961,439,82,-39
-122,273,395,-75,-258,334,268,4,966,444,73,-43
-126,273,400,-73,-263,336,268,0,966,444,73,-48
-136,283,419,-73,-278,351,258,0,990,444,73,-48
-141,287,429,-73,-285,358,268,0,1005,448,73,-48
-146,287,434,-70,-290,361,268,0,1024,453,78,-43
-151,287,439,-68,-295,363,273,0,1039,453,78,-43
-141,287,429,-73,-285,358,283,0,1049,453,82,-43
-146,292,439,-73,-292,366,287,0,1049,458,82,-43
-146,292,439,-73,-292,366,292,-4,1049,458,78,-53
-151,287,439,-68,-295,363,292,-4,1039,458,73,-53
-156,287,444,-65,-300,366,287,-14,1054,458,68,-48
-161,278,439,-58,-300,358,292,-14,1058,458,68,-48
-161,278,439,-58,-300,358,292,-14,1068,458,68,-43
-161,273,434,-56,-297,353,297,-14,1083,448,68,-43
-170,263,434,-46,-302,348,297,-14,1063,444,58,-53
-170,263,434,-46,-302,348,297,-14,1054,439,58,-53
-170,263,434,-46,-302,348,297,-14,1039,434,48,-58
-170,258,429,-43,-300,344,302,-14,1019,429,43,-63
-170,244,414,-36,-292,329,312,-4,1019,429,39,-63
-175,229,405,-26,-290,317,307,-4,1015,424,39,-63
-175,229,405,-26,-290,317,307,-4,1010,419,39,-63
-175,214,390,-19,-283,302,307,-4,1010,405,39,-58
-175,214,390,-19,-283,302,307,0,995,395,29,-68
-175,214,390,-19,-283,302,297,0,971,385,29,-68
-175,209,385,-17,-280,297,292,-4,951,375,24,-68
-170,204,375,-17,-273,290,287,-4,927,370,19,-68
-161,190,351,-14,-256,270,287,-4,893,351,9,-68
-156,190,346,-17,-251,268,283,-4,883,346,9,-68
-156,185,341,-14,-248,263,278,0,868,336,9,-68
-156,180,336,-12,-246,258,263,0,854,326,9,-63
-151,175,326,-12,-239,251,263,0,839,317,9,-58
-141,175,317,-17,-229,246,248,0,795,307,9,-53
-136,175,312,-19,-224,244,239,-4,766,297,9,-53
-131,170,302,-19,-217,236,229,-4,736,287,9,-53
-126,170,297,-21,-212,234,224,-4,688,278,9,-53
-122,165,287,-21,-204,226,209,-4,663,273,9,-48
-117,156,273,-19,-195,214,195,-4,649,263,9,-43
-107,151,258,-21,-183,204,180,-4,624,253,19,-29
-102,141,244,-19,-173,192,170,0,605,244,24,-19
-97,141,239,-21,-168,190,156,-4,566,234,29,-19
-92,141,234,-24,-163,187,146,-9,527,224,29,-14
-82,141,224,-29,-153,183,131,-9,497,214,29,-9
-82,141,224,-29,-153,183,117,-14,453,204,24,-4
-82,141,224,-29,-153,183,107,-19,424,195,24,0
-78,131,209,-26,-143,170,102,-19,405,185,34,4
-73,126,200,-26,-136,163,87,-14,375,175,39,9
-58,112,170,-26,-114,141,78,-14,351,156,39,19
-53,112,165,-29,-109,139,68,-19,336,146,39,24
-48,112,161,-31,-104,136,63,-19,297,131,43,29
-43,112,156,-34,-100,134,53,-29,278,122,43,29
-39,112,151,-36,-95,131,53,-29,239,112,43,29
-34,102,136,-34,-85,119,43,-24,209,107,39,29
-34,97,131,-31,-82,114,39,-24,195,97,39,29
-34,92,126,-29,-80,109,29,-24,180,87,43,29
-34,73,107,-19,-70,90,19,-24,161,87,43,39
-34,63,97,-14,-65,80,14,-24,146,82,43,39
-29,63,92,-17,-61,78,4,-24,122,73,43,39
-29,58,87,-14,-58,73,0,-29,107,73,43,39
-34,58,92,-12,-63,75,-4,-39,97,58,34,29
-34,58,92,-12,-63,75,-9,-39,68,53,34,29
-34,58,92,-12,-63,75,-14,-39,63,48,34,29
-29,53,82,-12,-56,68,-19,-39,58,43,34,29
-19,58,78,-19,-48,68,-19,-29,53,48,43,39
-19,53,73,-17,-46,63,-19,-29,53,34,43,39
-19,48,68,-14,-43,58,-24,-29,39,34,43,39
-14,43,58,-14,-36,51,-29,-29,29,24,39,39
-4,48,53,-21,-29,51,-29,-19,19,24,34,29
-4,43,48,-19,-26,46,-24,-19,0,19,34,29
-9,39,48,-14,-29,43,-24,-24,-4,14,24,29
-9,34,43,-12,-26,39,-24,-24,-4,9,24,29
-19,24,43,-2,-31,34,-29,-24,-14,4,29,29
-19,19,39,0,-29,29,-29,-19,-14,4,29,29
-19,9,29,4,-24,19,-29,-19,-14,0,29,29
-19,9,29,4,-24,19,-29,-14,-29,-4,24,29
-14,0,14,7,-14,7,-29,-24,-34,-4,29,29
-14,0,14,7,-14,7,-29,-24,-43,-4,24,24
-24,-4,19,14,-21,7,-29,-24,-48,-4,24,19
-24,-9,14,17,-19,2,-29,-24,-48,-9,19,14
-34,-24,9,29,-21,-7,-29,-24,-48,-24,9,14
-34,-24,9,29,-21,-7,-29,-24,-48,-29,9,14
-34,-24,9,29,-21,-7,-29,-24,-48,-29,9,14
-34,-24,9,29,-21,-7,-29,-24,-48,-24,9,14
-29,-14,14,21,-21,0,-29,-24,-48,-24,9,14
-29,-14,14,21,-21,0,-29,-24,-48,-24,9,14
-29,-14,14,21,-21,0,-29,-24,-48,-24,9,14
-29,-19,9,24,-19,-4,-29,-24,-48,-24,9,14
-19,-9,9,14,-14,0,-39,-14,-53,-19,9,14
-19,-9,9,14,-14,0,-34,-14,-53,-19,9,14
-19,-9,9,14,-14,0,-34,-14,-53,-19,9,14
-19,-9,9,14,-14,0,-34,-14,-53,-19,9,14
-19,0,19,9,-19,9,-34,-24,-43,-19,9,14
-19,0,19,9,-19,9,-34,-19,-43,-19,14,14
-19,0,19,9,-19,9,-34,-19,-43,-19,14,14
-19,0,19,9,-19,9,-34,-19,-39,-19,14,14
-14,0,14,7,-14,7,-34,-19,-39,-19,9,14
-14,0,14,7,-14,7,-34,-19,-39,-19,9,14
-14,0,14,7,-14,7,-34,-19,-39,-19,9,9
-14,0,14,7,-14,7,-34,-19,-39,-19,9,9
-14,-9,4,12,-9,-2,-34,-19,-39,-19,9,9
-19,-9,9,14,-14,0,-34,-19,-34,-19,9,9
-19,-9,9,14,-14,0,-34,-19,-34,-19,9,9
-19,-9,9,14,-14,0,-34,-19,-34,-14,9,9
-19,-9,9,14,-14,0,-34,-19,-34,-14,9,9
-19,-9,9,14,-14,0,-34,-19,-34,-14,9,9
-19,-9,9,14,-14,0,-34,-19,-34,-14,9,9
-19,-9,9,14,-14,0,-34,-19,-34,-9,9,9
-19,-4,14,12,-17,4,-34,-19,-29,-9,9,9
-19,-4,14,12,-17,4,-34,-19,-24,-9,9,9
-19,-4,14,12,-17,4,-34,-19,-24,-9,9,9
-19,-4,14,12,-17,4,-34,-19,-19,-9,9,9
-19,-4,14,12,-17,4,-24,-19,-9,4,14,9
-19,-4,14,12,-17,4,-24,-19,-9,4,14,9
-19,-4,14,12,-17,4,-24,-19,-9,4,14,9
-19,-4,14,12,-17,4,-19,-19,-9,4,14,9
-19,-4,14,12,-17,4,-19,-19,-4,4,4,9
-19,-4,14,12,-17,4,-19,-19,0,4,4,9
-19,-4,14,12,-17,4,-19,-19,4,4,4,9
-19,-4,14,12,-17,4,-19,-19,4,9,4,9
-24,-4,19,14,-21,7,-19,-19,-4,0,4,9
-24,-4,19,14,-21,7,-14,-19,0,4,4,9
-24,0,24,12,-24,12,-14,-19,0,4,4,9
-24,0,24,12,-24,12,-14,-19,0,4,4,9
-29,0,29,14,-29,14,-14,-19,9,4,4,9
-29,0,29,14,-29,14,-14,-19,14,4,4,9
-29,0,29,14,-29,14,-14,-19,19,4,4,9
-29,0,29,14,-29,14,-14,-19,19,4,4,9
-19,0,19,9,-19,9,-14,-19,19,4,4,9
-19,0,19,9,-19,9,-14,-19,24,4,4,9
-19,4,24,7,-21,14,-9,-19,24,4,4,9
-19,4,24,7,-21,14,-9,-19,24,9,4,9
-19,4,24,7,-21,14,-9,-19,14,9,4,9
-19,4,24,7,-21,14,-9,-19,19,9,4,9
-19,4,24,7,-21,14,-4,-19,24,9,4,9
-19,4,24,7,-21,14,-4,-19,24,9,4,9
-19,-4,14,12,-17,4,-4,-9,24,9,4,0
-24,-4,19,14,-21,7,0,-9,29,9,4,0
-24,-4,19,14,-21,7,4,-9,29,9,4,-4
-24,-4,19,14,-21,7,4,-9,29,9,4,-4
-24,0,24,12,-24,12,4,-19,29,9,4,-4
-24,0,24,12,-24,12,4,-14,29,9,4,-4
-24,0,24,12,-24,12,4,-9,29,9,4,-4
-24,0,24,12,-24,12,4,-9,34,9,4,-9
-24,0,24,12,-24,12,4,-9,34,9,4,-9
-24,-4,19,14,-21,7,4,-9,34,9,0,-9
-24,-4,19,14,-21,7,4,-9,34,9,0,-9
-24,-4,19,14,-21,7,4,-9,29,9,0,-9
-24,-4,19,14,-21,7,0,-19,29,0,0,-14
-24,-4,19,14,-21,7,0,-19,29,0,-4,-14
-24,-4,19,14,-21,7,0,-19,29,0,-4,-14
-24,-4,19,14,-21,7,0,-19,29,0,-4,-14
-24,-9,14,17,-19,2,0,-19,19,0,-4,-24
-24,-9,14,17,-19,2,4,-19,19,0,-4,-24
-24,-9,14,17,-19,2,4,-19,19,0,-4,-29
-24,-9,14,17,-19,2,4,-19,19,-4,-4,-29
-24,-9,14,17,-19,2,4,-19,19,4,0,-19
-24,-14,9,19,-17,-2,4,-14,19,4,0,-19
-29,-14,14,21,-21,0,4,-14,19,4,0,-24
-29,-19,9,24,-19,-4,4,-14,19,0,0,-24
-39,-19,19,29,-29,0,4,-14,19,-9,-9,-24
-39,-19,19,29,-29,0,4,-14,19,-9,-9,-24
-39,-19,19,29,-29,0,4,-14,19,-9,-9,-24
-39,-19,19,29,-29,0,9,-14,19,-9,-9,-24
-39,-19,19,29,-29,0,9,-14,14,-9,-14,-34
-39,-24,14,31,-26,-4,9,-14,14,-9,-14,-34
-39,-24,14,31,-26,-4,9,-14,14,-14,-14,-34
-39,-24,14,31,-26,-4,9,-14,14,-19,-14,-34
-39,-34,4,36,-21,-14,9,-14,14,-19,-14,-34
-39,-39,0,39,-19,-19,9,-14,14,-19,-14,-34
-39,-39,0,39,-19,-19,9,-9,9,-19,-14,-34
-39,-39,0,39,-19,-19,9,-9,9,-19,-14,-34
-39,-29,9,34,-24,-9,9,-14,0,-29,-19,-34
-43,-29,14,36,-29,-7,9,-14,0,-29,-19,-34
-43,-29,14,36,-29,-7,9,-9,0,-34,-19,-34
-43,-34,9,39,-26,-12,9,-9,0,-34,-19,-39
-43,-34,9,39,-26,-12,9,-9,-9,-34,-19,-29
-43,-39,4,41,-24,-17,9,-9,-9,-39,-19,-29
-43,-39,4,41,-24,-17,9,-9,-9,-39,-19,-29
-43,-39,4,41,-24,-17,9,-9,-19,-39,-24,-29
-43,-48,-4,46,-19,-26,0,-9,-29,-39,-24,-39
-43,-48,-4,46,-19,-26,0,-9,-29,-39,-24,-39
-43,-53,-9,48,-17,-31,0,-9,-29,-43,-24,-39
-43,-53,-9,48,-17,-31,0,-9,-29,-43,-24,-39
-43,-43,0,43,-21,-21,0,-19,-29,-48,-24,-39
-43,-48,-4,46,-19,-26,0,-19,-29,-48,-29,-39
-43,-48,-4,46,-19,-26,0,-19,-29,-48,-29,-43
-43,-48,-4,46,-19,-26,0,-19,-34,-48,-29,-43
-43,-58,-14,51,-14,-36,0,-19,-43,-43,-29,-43
-48,-58,-9,53,-19,-34,0,-19,-43,-43,-29,-43
-48,-58,-9,53,-19,-34,0,-19,-43,-43,-29,-43
-48,-63,-14,56,-17,-39,0,-19,-48,-48,-29,-43
-48,-53,-4,51,-21,-29,0,-19,-39,-48,-29,-43
-48,-53,-4,51,-21,-29,0,-19,-39,-48,-29,-43
-48,-53,-4,51,-21,-29,0,-19,-39,-53,-29,-43
-48,-53,-4,51,-21,-29,0,-19,-39,-53,-29,-43
-53,-58,-4,56,-24,-31,0,-9,-48,-53,-24,-34
-53,-58,-4,56,-24,-31,0,-9,-48,-53,-24,-34
-53,-58,-4,56,-24,-31,0,-9,-48,-53,-24,-34
-53,-58,-4,56,-24,-31,0,-9,-48,-53,-24,-34
-43,-58,-14,51,-14,-36,0,-19,-48,-58,-24,-34
-43,-63,-19,53,-12,-41,0,-19,-48,-58,-24,-34
-43,-63,-19,53,-12,-41,0,-19,-48,-58,-24,-34
-43,-63,-19,53,-12,-41,0,-19,-48,-58,-24,-34
-43,-63,-19,53,-12,-41,0,-24,-48,-58,-24,-34
-39,-63,-24,51,-7,-43,-4,-24,-53,-58,-29,-34
-39,-63,-24,51,-7,-43,-4,-24,-58,-58,-29,-39
-39,-63,-24,51,-7,-43,-4,-24,-58,-58,-29,-39
-48,-63,-14,56,-17,-39,4,-24,-58,-68,-29,-39
-48,-63,-14,56,-17,-39,4,-24,-58,-68,-29,-39
-48,-68,-19,58,-14,-43,4,-24,-58,-68,-29,-39
-53,-68,-14,61,-19,-41,4,-24,-58,-68,-29,-39
-53,-68,-14,61,-19,-41,4,-24,-68,-63,-29,-34
-53,-68,-14,61,-19,-41,4,-24,-68,-63,-29,-34
-53,-68,-14,61,-19,-41,4,-24,-68,-63,-29,-34
-53,-68,-14,61,-19,-41,4,-24,-68,-63,-29,-34
-53,-68,-14,61,-19,-41,0,-19,-63,-63,-29,-43
-53,-68,-14,61,-19,-41,0,-19,-63,-63,-29,-43
-53,-68,-14,61,-19,-41,0,-19,-63,-63,-29,-43
-53,-68,-14,61,-19,-41,0,-19,-63,-63,-29,-43
-53,-68,-14,61,-19,-41,0,-19,-73,-63,-29,-34
-53,-68,-14,61,-19,-41,0,-19,-73,-63,-29,-34
-48,-68,-19,58,-14,-43,0,-19,-78,-68,-29,-39
-58,-68,-9,63,-24,-39,0,-19,-78,-68,-39,-39
-58,-68,-9,63,-24,-39,0,-19,-78,-68,-39,-39
-58,-68,-9,63,-24,-39,0,-19,-78,-68,-39,-39
-58,-68,-9,63,-24,-39,0,-19,-78,-68,-39,-39
-58,-68,-9,63,-24,-39,0,-19,-78,-68,-39,-29
-58,-68,-9,63,-24,-39,0,-19,-78,-68,-39,-29
-58,-68,-9,63,-24,-39,0,-19,-78,-68,-39,-29
-58,-68,-9,63,-24,-39,0,-19,-78,-68,-39,-29
-58,-78,-19,68,-19,-48,0,-19,-78,-78,-39,-39
-58,-78,-19,68,-19,-48,0,-19,-78,-78,-39,-39
-58,-78,-19,68,-19,-48,0,-19,-78,-78,-39,-39
-58,-78,-19,68,-19,-48,0,-19,-78,-78,-39,-39
-48,-68,-19,58,-14,-43,0,-9,-78,-78,-39,-39
-48,-68,-19,58,-14,-43,0,-9,-78,-78,-39,-39
-48,-68,-19,58,-14,-43,0,-9,-78,-78,-39,-39
-48,-68,-19,58,-14,-43,0,-9,-78,-78,-39,-39
-48,-68,-19,58,-14,-43,0,-9,-78,-68,-39,-39
-48,-68,-19,58,-14,-43,0,-9,-78,-68,-39,-39
-48,-68,-19,58,-14,-43,0,-9,-78,-68,-39,-39
-48,-68,-19,58,-14,-43,0,-9,-78,-68,-39,-39
-48,-68,-19,58,-14,-43,0,-9,-78,-68,-29,-39
-48,-68,-19,58,-14,-43,0,-9,-78,-68,-29,-39
-48,-68,-19,58,-14,-43,0,-9,-78,-68,-29,-39
-48,-68,-19,58,-14,-43,0,-9,-78,-68,-29,-39
-48,-68,-19,58,-14,-43,0,-19,-87,-78,-29,-39
-48,-68,-19,58,-14,-43,0,-19,-87,-78,-29,-39
-48,-68,-19,58,-14,-43,0,-19,-87,-78,-29,-39
-48,-68,-19,58,-14,-43,0,-19,-87,-78,-29,-39
-48,-68,-19,58,-14,-43,0,-19,-78,-78,-29,-39
-48,-68,-19,58,-14,-43,0,-19,-78,-78,-29,-39
-48,-68,-19,58,-14,-43,0,-19,-78,-78,-29,-39
-48,-68,-19,58,-14,-43,0,-19,-78,-78,-29,-39
-48,-63,-14,56,-17,-39,-9,-19,-78,-68,-29,-29
-48,-58,-9,53,-19,-34,-9,-19,-78,-68,-29,-29
-48,-53,-4,51,-21,-29,-9,-19,-78,-68,-29,-29
-48,-48,0,48,-24,-24,-9,-19,-78,-68,-29,-29
-39,-43,-4,41,-17,-24,-14,-29,-73,-58,-24,-19
-39,-39,0,39,-19,-19,-19,-29,-68,-58,-19,-19
-39,-34,4,36,-21,-14,-24,-29,-63,-58,-14,-19
-39,-29,9,34,-24,-9,-29,-29,-58,-58,-9,-19
-29,-14,14,21,-21,0,-39,-39,-48,-53,-4,-14
-29,-9,19,19,-24,4,-39,-39,-48,-48,0,-9
-24,0,24,12,-24,12,-43,-39,-48,-39,4,-4
-24,9,34,7,-29,21,-48,-39,-43,-34,9,0
-19,14,34,2,-26,24,-53,-39,-39,-34,14,9
-19,19,39,0,-29,29,-58,-39,-34,-24,14,14
-14,29,43,-7,-29,36,-63,-39,-29,-19,24,19
-14,34,48,-9,-31,41,-68,-39,-24,-14,24,19
4,39,34,-21,-14,36,-73,-43,-19,-14,14,19
4,53,48,-29,-21,51,-78,-43,-14,-9,24,24
4,53,48,-29,-21,51,-82,-53,-9,-4,29,29
4,63,58,-34,-26,61,-87,-53,-4,0,34,29
4,82,78,-43,-36,80,-92,-48,9,4,34,43
9,92,82,-51,-36,87,-97,-53,9,9,43,48
9,97,87,-53,-39,92,-107,-58,9,14,48,53
9,107,97,-58,-43,102,-117,-63,9,19,53,58
19,122,102,-70,-41,112,-117,-68,9,29,68,73
24,126,102,-75,-39,114,-126,-73,0,29,68,78
24,131,107,-78,-41,119,-136,-78,-4,29,73,78
29,136,107,-82,-39,122,-136,-82,-9,29,73,78
29,136,107,-82,-39,122,-146,-82,-14,29,82,82
29,141,112,-85,-41,126,-151,-82,-19,29,82,82
34,146,112,-90,-39,129,-156,-82,-29,29,82,87
39,146,107,-92,-34,126,-161,-87,-39,29,82,87
34,146,112,-90,-39,129,-165,-78,-43,39,87,92
39,146,107,-92,-34,126,-165,-78,-43,39,87,92
39,146,107,-92,-34,126,-165,-78,-48,39,87,92
39,146,107,-92,-34,126,-165,-78,-58,29,87,92
39,136,97,-87,-29,117,-165,-73,-53,29,87,92
39,136,97,-87,-29,117,-156,-73,-58,24,82,87
43,131,87,-87,-21,109,-151,-68,-63,24,78,87
43,126,82,-85,-19,104,-146,-68,-68,24,73,78
34,122,87,-78,-26,104,-141,-63,-73,19,73,78
34,117,82,-75,-24,100,-136,-63,-73,19,73,78
24,107,82,-65,-29,95,-122,-58,-73,14,68,73
19,97,78,-58,-29,87,-112,-58,-73,9,63,68
24,87,63,-56,-19,75,-102,-53,-73,-4,58,58
19,78,58,-48,-19,68,-92,-53,-78,-9,53,53
14,68,53,-41,-19,61,-82,-53,-78,-14,48,48
4,58,53,-31,-24,56,-73,-48,-78,-19,43,43
-14,39,53,-12,-34,46,-63,-43,-78,-24,39,39
-19,29,48,-4,-34,39,-53,-43,-78,-29,34,34
-29,19,48,4,-39,34,-43,-43,-78,-34,29,29
-39,4,43,17,-41,24,-34,-39,-78,-39,24,24
-39,-14,24,26,-31,4,-24,-39,-87,-43,9,9
-43,-24,19,34,-31,-2,-24,-29,-87,-48,4,4
-48,-34,14,41,-31,-9,-9,-29,-92,-53,0,0
-53,-43,9,48,-31,-17,-4,-24,-92,-58,-4,-4
-48,-43,4,46,-26,-19,0,-19,-92,-73,-14,-19
-48,-53,-4,51,-21,-29,4,-19,-92,-78,-19,-19
-53,-63,-9,58,-21,-36,9,-19,-97,-82,-24,-24
-53,-63,-9,58,-21,-36,9,-14,-97,-82,-29,-29
-53,-68,-14,61,-19,-41,9,-14,-97,-87,-29,-24
-53,-73,-19,63,-17,-46,19,-9,-102,-92,-34,-29
-53,-78,-24,65,-14,-51,19,-4,-102,-92,-34,-29
-53,-82,-29,68,-12,-56,19,-4,-102,-92,-34,-29
-53,-87,-34,70,-9,-61,24,-4,-102,-92,-34,-29
-58,-87,-29,73,-14,-58,24,-4,-102,-92,-34,-29
-58,-87,-29,73,-14,-58,24,0,-102,-92,-34,-29
-58,-87,-29,73,-14,-58,24,0,-102,-92,-34,-34
-58,-87,-29,73,-14,-58,24,-9,-107,-92,-39,-34
-58,-87,-29,73,-14,-58,24,-9,-107,-92,-39,-34
-58,-87,-29,73,-14,-58,29,-9,-107,-97,-39,-34
-58,-87,-29,73,-14,-58,29,-4,-107,-97,-39,-34
-58,-92,-34,75,-12,-63,29,-4,-107,-97,-48,-34
-58,-92,-34,75,-12,-63,29,-4,-107,-97,-48,-34
-58,-92,-34,75,-12,-63,29,-4,-107,-97,-48,-34
-58,-92,-34,75,-12,-63,29,-4,-107,-97,-48,-39
-58,-92,-34,75,-12,-63,29,4,-107,-97,-48,-39
-58,-92,-34,75,-12,-63,29,4,-107,-97,-48,-39
-58,-92,-34,75,-12,-63,29,9,-107,-97,-53,-39
-58,-92,-34,75,-12,-63,29,9,-107,-102,-53,-39
-58,-92,-34,75,-12,-63,34,0,-107,-102,-43,-39
-58,-92,-34,75,-12,-63,34,0,-107,-102,-43,-39
-58,-92,-34,75,-12,-63,34,0,-107,-102,-43,-39
-58,-92,-34,75,-12,-63,34,0,-107,-102,-43,-39
-58,-92,-34,75,-12,-63,34,0,-107,-102,-43,-39
-58,-92,-34,75,-12,-63,34,0,-107,-102,-43,-39
-58,-92,-34,75,-12,-63,34,0,-107,-102,-43,-43
-58,-97,-39,78,-9,-68,34,0,-107,-102,-43,-43
-58,-97,-39,78,-9,-68,34,0,-102,-92,-43,-34
-58,-87,-29,73,-14,-58,24,0,-102,-82,-43,-34
-53,-78,-24,65,-14,-51,24,0,-102,-82,-43,-34
-43,-73,-29,58,-7,-51,24,0,-102,-78,-39,-34
-39,-73,-34,56,-2,-53,24,4,-82,-73,-39,-34
-39,-68,-29,53,-4,-48,14,14,-63,-48,-39,-34
-29,-53,-24,41,-2,-39,14,14,-34,-39,-34,-34
-39,-43,-4,41,-17,-24,24,4,-19,-34,-24,-34
-48,-34,14,41,-31,-9,29,-9,-29,-24,-9,-24
-53,-24,29,39,-41,2,19,-29,-78,-34,9,-9
-48,0,48,24,-48,24,0,-43,-195,-43,29,24
-34,29,63,2,-48,46,-53,-48,-341,-53,63,58
0,68,68,-34,-34,68,-102,-63,-492,-53,102,87
39,126,87,-82,-24,107,-185,-87,-649,-39,151,131
82,204,122,-143,-19,163,-287,-122,-829,-29,229,204
122,312,190,-217,-34,251,-424,-190,-1063,-4,331,297
146,453,307,-300,-80,380,-556,-263,-1322,34,463,434
180,575,395,-378,-107,485,-697,-322,-1600,53,580,556
229,668,439,-448,-104,553,-805,-375,-1903,48,692,678
258,712,453,-485,-97,583,-902,-419,-2186,4,771,780
312,722,409,-517,-48,566,-985,-419,-2513,-53,814,849
380,722,341,-551,19,531,-1093,-405,-2815,-112,858,897
453,736,283,-595,85,509,-1215,-414,-3098,-146,917,976
527,761,234,-644,146,497,-1356,-414,-3357,-180,980,1054
619,766,146,-692,236,456,-1493,-405,-3577,-214,1029,1112
707,756,48,-732,329,402,-1595,-380,-3738,-229,1058,1151
785,722,-63,-753,424,329,-1664,-351,-3845,-239,1063,1151
854,678,-175,-766,514,251,-1708,-322,-3904,-239,1054,1141
917,629,-287,-773,602,170,-1751,-287,-3889,-239,1024,1107
980,527,-453,-753,717,36,-1771,-248,-3869,-273,951,1039
1019,292,-727,-656,873,-217,-1727,-165,-3811,-405,756,878
1049,-117,-1166,-466,1107,-641,-1590,9,-3708,-702,390,580
1049,-771,-1820,-139,1434,-1295,-1332,268,-3533,-1176,-219,122
985,-1517,-2503,265,1744,-2010,-1005,536,-3303,-1732,-883,-346
902,-2039,-2942,568,1922,-2491,-732,688,-3089,-2137,-1322,-658
800,-2210,-3010,705,1905,-2610,-561,722,-2898,-2283,-1493,-761
736,-2186,-2923,724,1830,-2554,-468,683,-2698,-2269,-1493,-766
663,-2074,-2737,705,1700,-2405,-405,624,-2483,-2166,-1424,-727
614,-1903,-2518,644,1566,-2210,-370,541,-2269,-2015,-1317,-668
546,-1712,-2259,583,1403,-1986,-366,468,-2044,-1825,-1190,-600
488,-1517,-2005,514,1246,-1761,-356,385,-1805,-1620,-1049,-512
444,-1322,-1766,439,1105,-1544,-341,307,-1605,-1424,-912,-439
390,-1156,-1546,383,968,-1351,-322,244,-1395,-1268,-785,-356
346,-1019,-1366,336,856,-1193,-292,200,-1195,-1112,-692,-307
322,-897,-1220,287,771,-1058,-268,170,-1078,-990,-614,-263
297,-775,-1073,239,685,-924,-244,146,-951,-883,-546,-229
258,-629,-888,185,573,-758,-219,102,-805,-741,-448,-165
204,-473,-678,134,441,-575,-170,58,-658,-580,-336,-97
141,-375,-517,117,329,-446,-122,43,-492,-473,-273,-68
82,-326,-409,122,246,-368,-68,39,-370,-385,-239,-63
34,-287,-322,126,178,-305,-24,29,-263,-322,-195,-53
-4,-258,-253,131,124,-256,19,24,-156,-268,-170,-63
-29,-234,-204,131,87,-219,53,24,-78,-214,-141,-73
-39,-200,-161,119,61,-180,73,34,-39,-175,-136,-82
-39,-165,-126,102,43,-146,92,34,9,-141,-122,-92
-39,-136,-97,87,29,-117,107,34,24,-97,-102,-92
-43,-112,-68,78,12,-90,117,39,63,-68,-97,-92
-48,-92,-43,70,-2,-68,122,43,102,-48,-82,-82
-48,-82,-34,65,-7,-58,131,43,131,-29,-63,-68
-48,-82,-34,65,-7,-58,131,53,161,-24,-43,-63
-48,-73,-24,61,-12,-48,136,53,190,-19,-39,-58
-48,-73,-24,61,-12,-48,141,48,170,-9,-48,-58
-53,-68,-14,61,-19,-41,141,48,170,0,-48,-63
-53,-58,-4,56,-24,-31,141,39,165,9,-48,-63
-53,-53,0,53,-26,-26,141,39,165,9,-48,-63
-53,-63,-9,58,-21,-36,151,48,190,14,-48,-63
-63,-63,0,63,-31,-31,151,48,200,19,-39,-63
-68,-63,4,65,-36,-29,151,48,219,19,-34,-53
-68,-58,9,63,-39,-24,151,53,239,19,-29,-53
-53,-53,0,53,-26,-26,151,43,224,29,-29,-53
-53,-48,4,51,-29,-21,151,39,224,34,-29,-53
-53,-39,14,46,-34,-12,156,39,224,39,-29,-63
-53,-34,19,43,-36,-7,156,39,209,43,-29,-63
-53,-24,29,39,-41,2,146,39,219,53,-29,-53
-53,-24,29,39,-41,2,146,39,229,53,-29,-53
-58,-24,34,41,-46,4,146,39,239,53,-19,-48
-58,-24,34,41,-46,4,146,39,258,53,-19,-48
-58,-14,43,36,-51,14,146,29,268,63,-19,-48
-53,-4,48,29,-51,21,146,29,263,63,-19,-48
-53,0,53,26,-53,26,146,29,253,73,-19,-53
-53,0,53,26,-53,26,146,24,244,78,-19,-53
-53,9,63,21,-58,36,146,34,234,82,-29,-53
-53,9,63,21,-58,36,146,39,258,82,-29,-53
-53,9,63,21,-58,36,146,39,268,82,-29,-53
-53,14,68,19,-61,41,146,43,287,82,-19,-43
-63,9,73,26,-68,41,146,43,302,82,-4,-53
-63,14,78,24,-70,46,146,43,292,82,-4,-53
-63,14,78,24,-70,46,146,34,297,92,-9,-53
-63,19,82,21,-73,51,146,34,292,97,-19,-53
-58,9,68,24,-63,39,156,34,273,87,-19,-53
-58,9,68,24,-63,39,156,34,302,87,-14,-53
-63,9,73,26,-68,41,156,34,307,87,-14,-53
-63,9,73,26,-68,41,156,34,322,92,-4,-43
-63,9,73,26,-68,41,156,34,346,92,-4,-43
-63,9,73,26,-68,41,156,34,331,92,-4,-43
-63,19,82,21,-73,51,156,34,331,102,-4,-43
-58,24,82,17,-70,53,156,34,326,107,-9,-48
-58,34,92,12,-75,63,156,24,302,112,-19,-48
-63,39,102,12,-82,70,156,24,322,117,-19,-53
-63,43,107,9,-85,75,156,24,336,117,-19,-53
-63,48,112,7,-87,80,156,24,346,117,-19,-43
-48,48,97,0,-73,73,156,24,370,117,-9,-43
-48,53,102,-2,-75,78,156,24,370,117,-9,-43
-48,53,102,-2,-75,78,156,24,370,126,-9,-43
-48,63,112,-7,-80,87,156,24,366,126,-14,-53
-48,68,117,-9,-82,92,156,24,356,131,-14,-53
-43,68,112,-12,-78,90,156,24,366,136,-14,-53
-43,68,112,-12,-78,90,156,24,380,141,-14,-53
-48,68,117,-9,-82,92,161,24,395,141,-9,-53
-48,58,107,-4,-78,82,161,24,424,141,9,-39
-48,58,107,-4,-78,82,161,24,439,141,9,-39
-48,58,107,-4,-78,82,161,29,429,151,9,-39
-48,68,117,-9,-82,92,161,29,429,156,9,-39
-43,73,117,-14,-80,95,161,29,414,151,4,-48
-43,73,117,-14,-80,95,161,29,414,156,4,-53
-43,73,117,-14,-80,95,161,29,429,156,4,-53
-43,73,117,-14,-80,95,161,29,444,161,4,-48
-53,78,131,-12,-92,104,161,39,463,170,19,-43
-53,78,131,-12,-92,104,165,39,478,170,19,-43
-53,87,141,-17,-97,114,165,39,483,170,24,-39
-53,92,146,-19,-100,119,165,39,488,180,24,-39
-53,97,151,-21,-102,124,165,39,478,175,14,-48
-53,97,151,-21,-102,124,165,29,478,185,14,-48
-53,97,151,-21,-102,124,165,39,488,190,9,-48
-58,97,156,-19,-107,126,165,39,502,195,9,-48
-48,87,136,-19,-92,112,165,39,527,209,29,-53
-48,92,141,-21,-95,117,170,39,556,214,34,-48
-48,102,151,-26,-100,126,170,39,556,219,34,-48
-48,107,156,-29,-102,131,170,39,556,224,34,-53
-48,112,161,-31,-104,136,175,29,556,229,24,-58
-48,117,165,-34,-107,141,175,24,556,234,24,-58
-48,122,170,-36,-109,146,175,24,566,239,24,-58
-48,126,175,-39,-112,151,175,24,590,244,24,-58
-58,126,185,-34,-122,156,175,34,605,248,43,-58
-58,131,190,-36,-124,161,175,34,634,253,43,-53
-58,136,195,-39,-126,165,175,34,653,258,48,-53
-58,141,200,-41,-129,170,180,34,653,263,48,-53
-58,146,204,-43,-131,175,180,24,653,273,39,-58
-58,151,209,-46,-134,180,185,19,658,278,39,-58
-58,165,224,-53,-141,195,185,19,658,287,39,-58
-63,165,229,-51,-146,197,185,19,688,292,39,-63
-68,170,239,-51,-153,204,185,19,702,297,48,-63
-68,170,239,-51,-153,204,190,19,727,302,58,-53
-68,175,244,-53,-156,209,190,19,746,307,63,-53
-68,180,248,-56,-158,214,200,19,746,317,63,-53
-68,190,258,-61,-163,224,204,19,756,312,53,-53
-68,200,268,-65,-168,234,204,14,761,322,53,-58
-68,204,273,-68,-170,239,204,14,761,331,53,-58
-68,209,278,-70,-173,244,204,14,780,336,53,-58
-78,214,292,-68,-185,253,209,24,800,351,58,-58
-82,219,302,-68,-192,261,209,24,819,356,63,-53
-82,224,307,-70,-195,265,214,24,849,361,68,-53
-82,229,312,-73,-197,270,214,19,858,366,68,-53
-82,234,317,-75,-200,275,229,19,863,361,68,-53
-82,239,322,-78,-202,280,229,19,868,370,68,-53
-82,244,326,-80,-204,285,234,14,868,380,68,-53
-92,248,341,-78,-217,295,244,14,878,385,68,-58
-97,248,346,-75,-222,297,244,24,922,390,68,-58
-102,248,351,-73,-226,300,248,24,932,400,68,-58
-102,253,356,-75,-229,305,248,24,961,405,73,-53
-102,253,356,-75,-229,305,253,24,971,405,73,-53
-92,263,356,-85,-224,309,258,14,971,409,73,-53
-102,263,366,-80,-234,314,263,14,980,419,73,-58
-102,263,366,-80,-234,314,268,14,985,424,63,-63
-107,263,370,-78,-239,317,268,9,985,424,63,-68
-107,253,361,-73,-234,307,258,9,1000,414,63,-78
-112,258,370,-73,-241,314,268,9,1015,419,63,-78
-117,258,375,-70,-246,317,268,9,1034,424,68,-73
-122,258,380,-68,-251,319,273,9,1049,424,68,-73
-131,248,380,-58,-256,314,273,9,1049,424,53,-73
-136,253,390,-58,-263,322,278,9,1049,429,53,-73
-136,253,390,-58,-263,322,283,4,1049,429,48,-82
-141,248,390,-53,-265,319,283,4,1039,429,43,-82
-146,248,395,-51,-270,322,287,4,1044,419,39,-87
-151,239,390,-43,-270,314,292,4,1049,419,39,-87
-151,239,390,-43,-270,314,292,4,1058,419,39,-82
-151,234,385,-41,-268,309,297,4,1073,409,39,-82
-141,234,375,-46,-258,305,307,4,1063,405,39,-82
-141,234,375,-46,-258,305,307,4,1054,400,39,-82
-141,234,375,-46,-258,305,307,4,1039,395,29,-87
-141,229,370,-43,-256,300,312,4,1019,390,24,-92
-151,214,366,-31,-258,290,302,4,1010,390,9,-92
-156,200,356,-21,-256,278,297,4,1005,385,9,-92
-156,200,356,-21,-256,278,297,4,1000,380,9,-92
-156,185,341,-14,-248,263,297,4,1000,366,9,-87
-146,175,322,-14,-234,248,297,9,976,356,0,-87
-146,175,322,-14,-234,248,287,9,951,346,0,-87
-146,170,317,-12,-231,244,283,4,932,336,-4,-87
-141,165,307,-12,-224,236,278,4,907,331,-9,-87
-141,151,292,-4,-217,222,278,4,873,322,-19,-97
-136,151,287,-7,-212,219,273,4,863,317,-19,-97
-136,146,283,-4,-209,214,268,9,849,307,-19,-97
-136,141,278,-2,-207,209,253,9,834,297,-19,-92
-131,136,268,-2,-200,202,253,9,819,278,-9,-78
-122,136,258,-7,-190,197,239,9,775,268,-9,-73
-117,136,253,-9,-185,195,229,4,746,258,-9,-73
-112,131,244,-9,-178,187,219,4,717,248,-9,-73
-97,141,239,-21,-168,190,214,4,668,248,-9,-63
-92,136,229,-21,-161,183,200,4,644,244,-9,-58
-87,126,214,-19,-151,170,185,4,629,234,-9,-53
-78,122,200,-21,-139,161,170,4,605,224,0,-39
-73,122,195,-24,-134,158,161,9,595,214,14,-29
-68,122,190,-26,-129,156,146,4,556,204,19,-29
-63,122,185,-29,-124,153,136,0,517,195,19,-24
-53,122,175,-34,-114,148,122,0,488,185,19,-19
-53,122,175,-34,-114,148,107,-4,434,175,24,-4
-53,122,175,-34,-114,148,97,-9,405,165,24,0
-48,112,161,-31,-104,136,92,-9,385,156,34,4
-43,107,151,-31,-97,129,78,-4,356,146,39,9
-48,102,151,-26,-100,126,68,-14,341,146,39,19
-43,102,146,-29,-95,124,58,-19,326,136,39,24
-39,102,141,-31,-90,122,53,-19,287,122,43,29
-34,102,136,-34,-85,119,43,-29,268,112,43,29
-29,112,141,-41,-85,126,34,-39,229,112,43,29
-24,102,126,-39,-75,114,24,-34,200,107,39,29
-24,97,122,-36,-73,109,19,-34,185,97,39,29
-24,92,117,-34,-70,104,9,-34,170,87,43,29
-24,82,107,-29,-65,95,9,-34,170,78,43,39
-24,73,97,-24,-61,85,4,-34,156,73,43,39
-19,73,92,-26,-56,82,-4,-34,131,63,43,39
-19,68,87,-24,-53,78,-9,-39,117,63,43,39
-14,68,82,-26,-48,75,-14,-39,97,58,43,39
-14,68,82,-26,-48,75,-19,-39,68,53,43,39
-14,68,82,-26,-48,75,-24,-39,63,48,43,39
-9,63,73,-26,-41,68,-29,-39,58,43,43,39
-9,68,78,-29,-43,73,-29,-29,53,48,53,39
-9,63,73,-26,-41,68,-29,-29,53,34,53,39
-9,58,68,-24,-39,63,-34,-29,39,34,53,39
-4,53,58,-24,-31,56,-39,-29,29,24,48,39
-4,48,53,-21,-29,51,-39,-29,19,24,43,29
-4,43,48,-19,-26,46,-34,-29,0,19,43,29
-9,39,48,-14,-29,43,-34,-34,-4,14,34,29
-9,34,43,-12,-26,39,-34,-34,-4,9,34,29
0,43,43,-21,-21,43,-39,-34,4,4,39,29
0,39,39,-19,-19,39,-39,-29,4,4,39,29
0,29,29,-14,-14,29,-39,-29,4,0,39,29
0,29,29,-14,-14,29,-39,-24,-9,-4,34,29
4,39,34,-21,-14,36,-39,-34,-24,-4,39,39
4,39,34,-21,-14,36,-39,-34,-34,-4,34,34
-4,34,39,-14,-21,36,-39,-34,-39,-4,34,29
-4,29,34,-12,-19,31,-39,-34,-39,-9,29,24
-4,24,29,-9,-17,26,-39,-34,-39,-14,29,24
-4,24,29,-9,-17,26,-39,-34,-39,-19,29,24
-4,24,29,-9,-17,26,-39,-34,-39,-19,29,24
-4,24,29,-9,-17,26,-39,-34,-39,-14,29,24
0,24,24,-12,-12,24,-39,-34,-39,-14,29,24
0,24,24,-12,-12,24,-39,-34,-39,-14,29,24
0,24,24,-12,-12,24,-39,-34,-39,-14,29,24
0,19,19,-9,-9,19,-39,-34,-39,-14,29,24
0,19,19,-9,-9,19,-39,-34,-43,-9,29,24
0,19,19,-9,-9,19,-34,-34,-43,-9,29,24
0,19,19,-9,-9,19,-34,-34,-43,-9,29,24
0,19,19,-9,-9,19,-34,-34,-43,-9,29,24
0,19,19,-9,-9,19,-34,-34,-34,0,29,24
0,19,19,-9,-9,19,-34,-29,-34,0,34,24
0,19,19,-9,-9,19,-34,-29,-34,0,34,24
0,19,19,-9,-9,19,-34,-29,-29,0,34,24
-4,19,24,-7,-14,21,-34,-29,-29,0,39,24
-4,19,24,-7,-14,21,-34,-29,-29,0,39,24
-4,19,24,-7,-14,21,-34,-29,-29,0,39,19
-4,19,24,-7,-14,21,-34,-29,-29,0,39,19
-14,9,24,2,-19,17,-34,-29,-29,-4,39,19
-19,9,29,4,-24,19,-34,-29,-24,-9,39,19
-19,9,29,4,-24,19,-34,-29,-24,-14,39,19
-19,9,29,4,-24,19,-34,-29,-24,-14,39,19
-19,9,29,4,-24,19,-34,-29,-24,-14,29,9
-19,9,29,4,-24,19,-34,-29,-24,-14,29,9
-19,9,29,4,-24,19,-34,-29,-24,-14,29,9
-19,9,29,4,-24,19,-34,-29,-24,-9,29,9
-19,14,34,2,-26,24,-34,-29,-29,-9,29,9
-19,14,34,2,-26,24,-34,-29,-24,-9,29,9
-19,14,34,2,-26,24,-34,-29,-24,-9,29,9
-19,14,34,2,-26,24,-34,-29,-19,-9,29,9
-19,24,43,-2,-31,34,-34,-29,-19,-4,34,19
-19,24,43,-2,-31,34,-34,-29,-19,-4,34,19
-19,24,43,-2,-31,34,-34,-29,-19,-4,34,19
-19,24,43,-2,-31,34,-29,-29,-19,-4,34,19
-19,14,34,2,-26,24,-29,-39,-14,-4,34,19
-19,14,34,2,-26,24,-29,-39,-9,-4,34,19
-19,14,34,2,-26,24,-29,-39,-4,-4,34,19
-19,14,34,2,-26,24,-29,-39,-4,0,34,19
-24,14,39,4,-31,26,-29,-39,-4,0,34,19
-24,14,39,4,-31,26,-24,-39,0,4,34,19
-24,19,43,2,-34,31,-24,-39,0,4,34,19
-24,19,43,2,-34,31,-24,-39,0,4,34,19
-29,9,39,9,-34,24,-24,-29,0,4,34,19
-29,9,39,9,-34,24,-24,-29,4,4,34,19
-29,9,39,9,-34,24,-24,-29,9,4,34,19
-29,9,39,9,-34,24,-24,-29,9,4,34,19
-29,19,48,4,-39,34,-24,-29,9,14,34,19
-29,19,48,4,-39,34,-24,-29,14,14,34,19
-29,24,53,2,-41,39,-19,-29,14,14,34,19
-29,24,53,2,-41,39,-19,-29,14,19,34,19
-19,24,43,-2,-31,34,-19,-19,4,19,34,19
-19,24,43,-2,-31,34,-19,-19,9,19,34,19
-19,24,43,-2,-31,34,-14,-19,14,19,34,19
-19,24,43,-2,-31,34,-14,-19,14,19,34,19
-19,24,43,-2,-31,34,-24,-19,14,19,34,19
-24,24,48,0,-36,36,-19,-19,19,19,34,19
-24,24,48,0,-36,36,-14,-19,19,19,34,14
-24,24,48,0,-36,36,-14,-19,19,19,34,14
-24,19,43,2,-34,31,-14,-29,19,29,34,14
-24,19,43,2,-34,31,-14,-24,19,29,34,14
-24,19,43,2,-34,31,-14,-19,19,29,34,14
-24,19,43,2,-34,31,-14,-19,24,29,34,9
-24,19,43,2,-34,31,-4,-29,24,29,34,9
-24,14,39,4,-31,26,-4,-29,24,29,29,9
-24,14,39,4,-31,26,-4,-29,24,29,29,9
-24,14,39,4,-31,26,-4,-29,19,29,29,9
-24,14,39,4,-31,26,0,-29,19,19,29,4
-24,14,39,4,-31,26,0,-29,19,19,24,4
-24,14,39,4,-31,26,0,-29,19,19,24,4
-24,14,39,4,-31,26,0,-29,19,19,24,4
-24,9,34,7,-29,21,0,-19,29,19,24,14
-24,9,34,7,-29,21,4,-19,29,19,24,14
-24,9,34,7,-29,21,4,-19,29,19,24,9
-24,9,34,7,-29,21,4,-19,29,14,24,9
-34,9,43,12,-39,26,4,-19,19,14,19,9
-34,4,39,14,-36,21,4,-14,19,14,19,9
-39,4,43,17,-41,24,4,-14,19,14,19,4
-39,0,39,19,-39,19,4,-14,19,9,19,4
-39,0,39,19,-39,19,4,-24,19,9,19,4
-39,0,39,19,-39,19,4,-24,19,9,19,4
-39,0,39,19,-39,19,4,-24,19,9,19,4
-39,0,39,19,-39,19,9,-24,19,9,19,4
-39,0,39,19,-39,19,9,-14,14,9,14,4
-39,-4,34,21,-36,14,9,-14,14,9,14,4
-39,-4,34,21,-36,14,9,-14,14,4,14,4
-39,-4,34,21,-36,14,9,-14,14,0,14,4
-29,-4,24,17,-26,9,9,-14,14,0,14,4
-29,-9,19,19,-24,4,9,-14,14,0,14,4
-29,-9,19,19,-24,4,9,-9,9,0,14,4
-29,-9,19,19,-24,4,9,-9,9,0,14,4
-29,-19,9,24,-19,-4,9,-4,0,0,9,4
-34,-19,14,26,-24,-2,9,-4,0,0,9,4
-34,-19,14,26,-24,-2,9,0,0,-4,9,4
-34,-24,9,29,-21,-7,9,0,0,-4,9,0
-34,-24,9,29,-21,-7,9,-9,0,-4,9,0
-34,-29,4,31,-19,-12,9,-9,0,-9,9,0
-34,-29,4,31,-19,-12,9,-9,0,-9,9,0
-34,-29,4,31,-19,-12,9,-9,-9,-9,4,0
-43,-19,24,31,-34,2,9,-9,-19,-19,4,0
-43,-19,24,31,-34,2,9,-9,-19,-19,4,0
-43,-24,19,34,-31,-2,9,-9,-19,-24,4,0
-43,-24,19,34,-31,-2,9,-9,-19,-24,4,0
-43,-24,19,34,-31,-2,9,-9,-19,-29,4,0
-43,-29,14,36,-29,-7,9,-9,-19,-29,0,0
-43,-29,14,36,-29,-7,9,-9,-19,-29,0,-4
-43,-29,14,36,-29,-7,9,-9,-24,-29,0,-4
-34,-29,4,31,-19,-12,9,-9,-34,-34,0,-4
-39,-29,9,34,-24,-9,9,-9,-34,-34,0,-4
-39,-29,9,34,-24,-9,9,-9,-34,-34,0,-4
-39,-34,4,36,-21,-14,9,-9,-39,-39,0,-4
-39,-43,-4,41,-17,-24,0,-9,-29,-29,0,-4
-39,-43,-4,41,-17,-24,0,-9,-29,-29,0,-4
-39,-43,-4,41,-17,-24,0,-9,-29,-34,0,-4
-39,-43,-4,41,-17,-24,0,-9,-29,-34,0,-4
-43,-39,4,41,-24,-17,0,-9,-39,-34,-4,-4
-43,-39,4,41,-24,-17,0,-9,-39,-34,-4,-4
-43,-39,4,41,-24,-17,0,-9,-39,-34,-4,-4
-43,-39,4,41,-24,-17,0,-9,-39,-34,-4,-4
-43,-48,-4,46,-19,-26,9,0,-39,-39,-14,-4
-43,-53,-9,48,-17,-31,9,0,-39,-39,-14,-4
-43,-53,-9,48,-17,-31,9,0,-39,-39,-14,-4
-43,-53,-9,48,-17,-31,9,0,-39,-39,-14,-4
-43,-53,-9,48,-17,-31,9,-4,-39,-48,-14,-4
-39,-53,-14,46,-12,-34,4,-4,-43,-48,-19,-4
-39,-53,-14,46,-12,-34,4,-4,-48,-48,-19,-9
-39,-53,-14,46,-12,-34,4,-4,-48,-48,-19,-9
-48,-53,-4,51,-21,-29,4,-14,-48,-58,-19,-9
-48,-53,-4,51,-21,-29,4,-14,-48,-58,-19,-9
-48,-58,-9,53,-19,-34,4,-14,-48,-58,-19,-9
-53,-58,-4,56,-24,-31,4,-14,-48,-58,-19,-9
-53,-58,-4,56,-24,-31,4,-4,-48,-63,-19,-14
-53,-58,-4,56,-24,-31,4,-4,-48,-63,-19,-14
-53,-58,-4,56,-24,-31,4,-4,-48,-63,-19,-14
-53,-58,-4,56,-24,-31,4,-4,-48,-63,-19,-14
-53,-58,-4,56,-24,-31,9,0,-53,-63,-19,-14
-53,-58,-4,56,-24,-31,9,0,-53,-63,-19,-14
-53,-58,-4,56,-24,-31,9,0,-53,-63,-19,-14
-53,-58,-4,56,-24,-31,9,0,-53,-63,-19,-14
-53,-58,-4,56,-24,-31,9,0,-53,-53,-9,-14
-53,-58,-4,56,-24,-31,9,0,-53,-53,-9,-14
-48,-58,-9,53,-19,-34,9,0,-48,-58,-9,-9
-48,-58,-9,53,-19,-34,9,0,-58,-58,-19,-9
-48,-58,-9,53,-19,-34,9,0,-58,-58,-19,-9
-48,-58,-9,53,-19,-34,9,0,-58,-58,-19,-9
-48,-58,-9,53,-19,-34,9,0,-58,-58,-19,-9
-48,-58,-9,53,-19,-34,9,-9,-58,-58,-9,-9
-48,-58,-9,53,-19,-34,9,-9,-58,-58,-9,-9
-48,-58,-9,53,-19,-34,9,-9,-58,-58,-9,-9
-48,-58,-9,53,-19,-34,9,-9,-58,-58,-9,-9
-39,-58,-19,48,-9,-39,9,0,-58,-58,-9,-9
-39,-58,-19,48,-9,-39,9,0,-58,-58,-9,-9
-39,-58,-19,48,-9,-39,9,0,-58,-58,-9,-9
-39,-58,-19,48,-9,-39,9,0,-58,-58,-9,-9
-39,-58,-19,48,-9,-39,9,-9,-58,-58,-19,-9
-39,-58,-19,48,-9,-39,9,-9,-58,-58,-19,-9
-39,-58,-19,48,-9,-39,9,-9,-58,-58,-19,-9
-39,-58,-19,48,-9,-39,9,-9,-58,-58,-19,-9
-39,-58,-19,48,-9,-39,0,0,-58,-58,-19,-9
-39,-58,-19,48,-9,-39,0,0,-58,-58,-19,-9
-39,-58,-19,48,-9,-39,0,0,-58,-58,-19,-9
-39,-58,-19,48,-9,-39,0,0,-58,-58,-19,-9
-48,-68,-19,58,-14,-43,0,0,-58,-58,-19,-19
-48,-68,-19,58,-14,-43,0,0,-58,-58,-19,-19
-48,-68,-19,58,-14,-43,0,0,-58,-58,-19,-19
-48,-68,-19,58,-14,-43,0,0,-58,-58,-19,-19
-48,-68,-19,58,-14,-43,0,0,-58,-58,-19,-19
-48,-68,-19,58,-14,-43,0,0,-58,-58,-19,-19
-48,-68,-19,58,-14,-43,0,0,-58,-58,-19,-19
-48,-68,-19,58,-14,-43,0,0,-58,-58,-19,-19
-39,-58,-19,48,-9,-39,0,0,-58,-58,-19,-19
-39,-58,-19,48,-9,-39,0,0,-58,-58,-19,-19
-39,-58,-19,48,-9,-39,0,0,-58,-58,-19,-19
-39,-58,-19,48,-9,-39,0,0,-58,-58,-19,-19
-39,-58,-19,48,-9,-39,0,0,-58,-58,-19,-19
-39,-58,-19,48,-9,-39,0,0,-58,-58,-19,-19
-39,-58,-19,48,-9,-39,0,0,-58,-58,-19,-19
-39,-58,-19,48,-9,-39,0,0,-58,-58,-19,-19
-39,-68,-29,53,-4,-48,0,0,-68,-68,-19,-19
-39,-68,-29,53,-4,-48,0,0,-68,-68,-19,-19
-39,-68,-29,53,-4,-48,0,0,-68,-68,-19,-19
-39,-68,-29,53,-4,-48,0,0,-68,-68,-19,-19
-48,-68,-19,58,-14,-43,0,0,-68,-78,-29,-19
-48,-68,-19,58,-14,-43,0,0,-68,-78,-29,-19
-48,-68,-19,58,-14,-43,0,0,-68,-78,-29,-19
-48,-68,-19,58,-14,-43,0,0,-68,-78,-29,-19
-48,-78,-29,63,-9,-53,0,0,-68,-78,-29,-19
-48,-78,-29,63,-9,-53,0,0,-68,-78,-29,-19
-48,-78,-29,63,-9,-53,0,0,-68,-78,-29,-19
-48,-78,-29,63,-9,-53,0,0,-68,-78,-29,-19
-39,-68,-29,53,-4,-48,-9,0,-68,-68,-29,-19
-39,-68,-29,53,-4,-48,-9,0,-68,-68,-29,-19
-39,-68,-29,53,-4,-48,-9,0,-68,-68,-29,-19
-39,-68,-29,53,-4,-48,-9,0,-68,-68,-29,-19
-39,-63,-24,51,-7,-43,-19,-9,-58,-58,-24,-9
-39,-58,-19,48,-9,-39,-19,-9,-58,-58,-19,-9
-39,-53,-14,46,-12,-34,-19,-9,-58,-58,-14,-9
-39,-48,-9,43,-14,-29,-19,-9,-58,-58,-9,-9
-34,-34,0,34,-17,-17,-29,-19,-53,-53,0,-4
-29,-29,0,29,-14,-14,-29,-19,-48,-48,0,0
-24,-24,0,24,-12,-12,-29,-19,-43,-43,0,4
-19,-19,0,19,-9,-9,-29,-19,-39,-39,0,9
-9,-9,0,9,-4,-4,-39,-19,-24,-34,4,14
-9,0,9,4,-9,4,-39,-19,-19,-29,9,19
-4,14,19,-4,-12,17,-43,-19,-14,-19,14,24
-4,29,34,-12,-19,31,-48,-19,-4,-14,19,29
0,34,34,-17,-17,34,-53,-29,0,-14,24,29
0,39,39,-19,-19,39,-58,-29,4,-4,24,34
4,48,43,-26,-19,46,-63,-29,9,0,34,39
4,53,48,-29,-21,51,-68,-29,14,4,34,39
4,48,43,-26,-19,46,-73,-24,19,4,34,39
4,63,58,-34,-26,61,-78,-24,24,9,43,43
4,63,58,-34,-26,61,-82,-34,29,14,48,48
4,73,68,-39,-31,70,-87,-34,34,19,53,48
14,82,68,-48,-26,75,-102,-39,39,14,43,63
19,92,73,-56,-26,82,-107,-43,39,19,53,68
19,97,78,-58,-29,87,-117,-48,39,24,58,73
19,107,87,-63,-34,97,-126,-53,39,29,63,78
19,112,92,-65,-36,102,-126,-58,39,29,68,82
24,117,92,-70,-34,104,-136,-63,29,29,68,87
24,122,97,-73,-36,109,-146,-68,24,29,73,87
29,126,97,-78,-34,112,-146,-73,19,29,73,87
29,126,97,-78,-34,112,-146,-73,4,29,82,92
29,131,102,-80,-36,117,-151,-73,0,29,82,92
34,136,102,-85,-34,119,-156,-73,-9,29,82,97
39,136,97,-87,-29,117,-161,-78,-19,29,82,97
34,136,102,-85,-34,119,-165,-68,-34,19,78,92
39,136,97,-87,-29,117,-165,-68,-34,19,78,92
39,136,97,-87,-29,117,-165,-68,-39,19,78,92
39,136,97,-87,-29,117,-165,-68,-48,9,78,92
39,117,78,-78,-19,97,-156,-63,-53,9,78,92
39,117,78,-78,-19,97,-146,-63,-58,4,73,87
43,112,68,-78,-12,90,-141,-58,-63,4,68,87
43,107,63,-75,-9,85,-136,-58,-68,4,63,78
43,92,48,-68,-2,70,-131,-53,-73,0,63,78
43,87,43,-65,0,65,-126,-53,-73,0,63,78
34,78,43,-56,-4,61,-112,-48,-73,-4,58,73
29,68,39,-48,-4,53,-102,-48,-73,-9,53,68
24,58,34,-41,-4,46,-92,-43,-73,-14,48,58
19,48,29,-34,-4,39,-82,-43,-78,-19,43,53
14,39,24,-26,-4,31,-73,-43,-78,-24,39,48
4,29,24,-17,-9,26,-63,-39,-78,-29,34,43
-4,19,24,-7,-14,21,-53,-43,-68,-34,29,39
-9,9,19,0,-14,14,-43,-43,-68,-39,24,34
-19,0,19,9,-19,9,-34,-43,-68,-43,19,29
-29,-14,14,21,-21,0,-24,-39,-68,-48,14,24
-29,-24,4,26,-17,-9,-24,-39,-68,-53,0,19
-34,-34,0,34,-17,-17,-24,-29,-68,-58,-4,14
-39,-43,-4,41,-17,-24,-9,-29,-73,-63,-9,9
-43,-53,-9,48,-17,-31,-4,-24,-73,-68,-14,4
-39,-63,-24,51,-7,-43,0,-19,-73,-73,-14,0
-39,-73,-34,56,-2,-53,4,-19,-73,-78,-19,0
-43,-82,-39,63,-2,-61,9,-19,-78,-82,-24,-4
-43,-82,-39,63,-2,-61,9,-14,-78,-82,-29,-9
-53,-78,-24,65,-14,-51,9,-4,-78,-78,-29,-14
-53,-82,-29,68,-12,-56,19,0,-82,-82,-34,-19
-53,-87,-34,70,-9,-61,19,4,-82,-82,-34,-19
-53,-92,-39,73,-7,-65,19,4,-82,-82,-34,-19
-53,-107,-53,80,0,-80,24,-4,-82,-92,-43,-19
-58,-107,-48,82,-4,-78,24,-4,-82,-92,-43,-19
-58,-107,-48,82,-4,-78,24,0,-82,-92,-43,-19
-58,-107,-48,82,-4,-78,24,0,-82,-92,-43,-24
-58,-107,-48,82,-4,-78,24,9,-78,-92,-48,-24
-58,-107,-48,82,-4,-78,24,9,-78,-92,-48,-24
-58,-107,-48,82,-4,-78,29,9,-78,-97,-48,-24
-58,-107,-48,82,-4,-78,29,14,-78,-97,-48,-24
-58,-112,-53,85,-2,-82,29,14,-78,-97,-48,-34
-58,-112,-53,85,-2,-82,29,14,-78,-97,-48,-34
-58,-112,-53,85,-2,-82,29,14,-78,-97,-48,-34
-58,-112,-53,85,-2,-82,29,14,-78,-97,-48,-39
-58,-112,-53,85,-2,-82,29,4,-78,-97,-48,-29
-58,-112,-53,85,-2,-82,29,4,-78,-97,-48,-29
-58,-112,-53,85,-2,-82,29,9,-78,-97,-53,-29
-58,-112,-53,85,-2,-82,29,9,-78,-102,-53,-29
-58,-112,-53,85,-2,-82,34,9,-87,-92,-53,-29
-58,-112,-53,85,-2,-82,34,9,-87,-92,-53,-29
-58,-112,-53,85,-2,-82,34,9,-87,-92,-53,-29
-58,-112,-53,85,-2,-82,34,9,-87,-92,-53,-29
-58,-112,-53,85,-2,-82,34,9,-87,-102,-53,-29
-58,-112,-53,85,-2,-82,34,9,-87,-102,-53,-29
-58,-112,-53,85,-2,-82,34,9,-87,-102,-53,-34
-58,-117,-58,87,0,-87,34,9,-87,-102,-53,-34
-58,-107,-48,82,-4,-78,34,9,-92,-92,-53,-34
-48,-97,-48,73,0,-73,34,9,-92,-92,-53,-34
-43,-97,-53,70,4,-75,34,9,-82,-92,-53,-34
-43,-92,-48,68,2,-70,24,19,-63,-78,-48,-34
-39,-82,-43,61,2,-63,24,24,-34,-63,-48,-34
-39,-78,-39,58,0,-58,34,24,4,-48,-39,-34
-39,-63,-24,51,-7,-43,34,14,34,-39,-34,-34
-48,-53,-4,51,-21,-29,43,4,39,-34,-24,-34
-58,-43,14,51,-36,-14,39,-19,0,-43,-19,-24
-53,-43,9,48,-31,-17,29,-19,-97,-63,9,0
-39,-19,19,29,-29,0,-9,-34,-234,-73,29,34
-14,19,34,-2,-24,26,-73,-48,-361,-73,63,58
29,68,39,-48,-4,53,-141,-73,-492,-63,102,97
68,136,68,-102,0,102,-244,-107,-668,-58,170,170
102,244,141,-173,-19,192,-356,-161,-888,-39,278,263
122,361,239,-241,-58,300,-502,-239,-1141,-14,390,375
156,483,326,-319,-85,405,-624,-302,-1410,-4,512,502
190,566,375,-378,-92,470,-736,-361,-1708,-24,610,624
229,600,370,-414,-70,485,-834,-395,-2000,-68,683,717
278,605,326,-441,-24,466,-922,-400,-2322,-141,722,780
351,605,253,-478,48,429,-1015,-390,-2640,-200,766,829
429,624,195,-527,117,409,-1141,-395,-2923,-248,829,907
512,658,146,-585,183,402,-1283,-395,-3186,-283,897,985
595,683,87,-639,253,385,-1424,-395,-3425,-317,951,1054
688,697,9,-692,339,353,-1542,-375,-3606,-322,1000,1112
775,697,-78,-736,427,309,-1634,-351,-3738,-307,1029,1132
863,683,-180,-773,522,251,-1693,-331,-3806,-297,1044,1132
941,649,-292,-795,617,178,-1747,-292,-3825,-287,1034,1102
1005,551,-453,-778,729,48,-1771,-248,-3811,-317,966,1029
1068,322,-746,-695,907,-212,-1732,-161,-3772,-458,775,873
1107,-107,-1215,-500,1161,-661,-1610,19,-3684,-746,395,566
1117,-771,-1888,-173,1503,-1329,-1366,292,-3542,-1220,-224,102
1068,-1532,-2601,231,1834,-2066,-1039,561,-3337,-1790,-902,-385
976,-2064,-3040,544,2008,-2552,-771,712,-3137,-2200,-1351,-697
893,-2264,-3157,685,2025,-2710,-605,756,-2952,-2352,-1527,-814
819,-2259,-3079,719,1949,-2669,-512,722,-2771,-2352,-1542,-839
756,-2176,-2932,710,1844,-2554,-448,673,-2571,-2269,-1503,-814
692,-2064,-2757,685,1725,-2410,-395,614,-2347,-2137,-1434,-785
634,-1903,-2537,634,1586,-2220,-370,541,-2132,-1966,-1327,-736
566,-1722,-2288,578,1427,-2005,-356,468,-1898,-1786,-1210,-668
507,-1546,-2054,519,1281,-1800,-346,385,-1698,-1600,-1078,-580
453,-1371,-1825,458,1139,-1598,-322,317,-1498,-1424,-951,-507
409,-1215,-1625,402,1017,-1420,-292,273,-1288,-1278,-844,-434
366,-1088,-1454,361,910,-1271,-263,229,-1166,-1141,-751,-385
341,-946,-1288,302,814,-1117,-248,190,-1039,-1010,-673,-331
297,-775,-1073,239,685,-924,-214,146,-873,-854,-556,-258
239,-610,-849,185,544,-729,-170,102,-717,-683,-439,-175
165,-502,-668,168,417,-585,-122,78,-541,-551,-346,-136
112,-444,-556,165,334,-500,-73,63,-414,-463,-302,-117
63,-385,-448,161,256,-417,-29,58,-312,-385,-258,-102
24,-336,-361,156,192,-348,24,48,-195,-322,-224,-102
-4,-297,-292,151,143,-295,48,43,-117,-258,-190,-92
-19,-253,-234,136,107,-244,73,34,-68,-195,-170,-102
-29,-219,-190,124,80,-204,92,34,0,-156,-146,-102
-29,-175,-146,102,58,-161,102,34,9,-112,-131,-92
-39,-146,-107,92,34,-126,117,43,53,-78,-112,-92
-43,-122,-78,82,17,-100,126,39,102,-48,-97,-73
-39,-102,-63,70,12,-82,131,43,131,-39,-82,-63
-39,-92,-53,65,7,-73,131,43,151,-19,-73,-58
-48,-92,-43,70,-2,-68,141,43,180,-14,-63,-53
-39,-82,-43,61,2,-63,136,43,170,-9,-58,-48
-48,-73,-24,61,-12,-48,141,39,165,0,-58,-58
-53,-68,-14,61,-19,-41,141,39,170,9,-58,-63
-53,-58,-4,56,-24,-31,141,29,170,19,-58,-63
-53,-53,0,53,-26,-26,141,29,175,19,-58,-63
-53,-63,-9,58,-21,-36,151,39,200,24,-58,-53
-63,-63,0,63,-31,-31,151,39,209,29,-48,-53
-68,-63,4,65,-36,-29,151,39,229,29,-43,-43
-68,-58,9,63,-39,-24,151,43,248,29,-39,-43
-63,-43,19,53,-41,-12,151,43,224,48,-48,-53
-63,-39,24,51,-43,-7,151,39,224,53,-48,-53
-63,-29,34,46,-48,2,156,39,224,58,-48,-63
-63,-24,39,43,-51,7,156,39,209,63,-48,-63
-63,-34,29,48,-46,-2,156,39,239,63,-39,-53
-63,-34,29,48,-46,-2,156,39,248,63,-39,-53
-68,-34,34,51,-51,0,156,39,258,63,-29,-48
-68,-34,34,51,-51,0,156,39,278,63,-29,-48
-58,-34,24,46,-41,-4,156,39,268,63,-29,-58
-53,-24,29,39,-41,2,156,39,263,63,-29,-58
-53,-19,34,36,-43,7,156,39,253,73,-29,-63
-53,-19,34,36,-43,7,156,34,244,78,-29,-63
-63,-29,34,46,-48,2,156,34,248,82,-29,-63
-63,-29,34,46,-48,2,156,39,278,82,-29,-63
-63,-29,34,46,-48,2,156,39,292,82,-29,-63
-63,-24,39,43,-51,7,156,43,317,82,-19,-53
-63,-14,48,39,-56,17,156,34,322,82,-14,-53
-63,-4,58,34,-61,26,156,34,302,82,-14,-53
-63,0,63,31,-63,31,156,24,297,92,-19,-53
-63,9,73,26,-68,41,156,24,283,97,-29,-53
-58,9,68,24,-63,39,156,34,278,97,-19,-53
-58,9,68,24,-63,39,156,34,312,97,-14,-53
-63,9,73,26,-68,41,156,34,322,97,-14,-53
-63,9,73,26,-68,41,156,34,341,102,-4,-43
-63,19,82,21,-73,51,156,34,361,102,-4,-43
-63,19,82,21,-73,51,156,34,341,102,-4,-43
-63,29,92,17,-78,61,156,34,336,112,-4,-43
-58,34,92,12,-75,63,156,34,326,117,-9,-48
-58,29,87,14,-73,58,156,34,317,131,0,-39
-63,29,92,17,-78,61,156,34,341,136,0,-43
-63,29,92,17,-78,61,156,34,361,136,0,-43
-63,29,92,17,-78,61,156,34,375,136,0,-34
-58,29,87,14,-73,58,156,34,385,136,9,-43
-58,34,92,12,-75,63,156,34,380,136,9,-43
-58,34,92,12,-75,63,156,34,375,146,9,-43
-58,43,102,7,-80,73,156,34,366,146,4,-53
-58,48,107,4,-82,78,156,24,361,151,4,-43
-53,48,102,2,-78,75,156,24,375,156,4,-43
-53,48,102,2,-78,75,156,24,395,161,4,-43
-58,48,107,4,-82,78,161,24,414,161,9,-43
-58,58,117,0,-87,87,161,24,429,161,9,-48
-58,58,117,0,-87,87,161,24,439,161,9,-48
-58,58,117,0,-87,87,161,29,424,170,9,-48
-58,68,126,-4,-92,97,161,29,419,175,9,-48
-53,73,126,-9,-90,100,161,29,424,180,14,-58
-53,73,126,-9,-90,100,161,29,424,185,14,-63
-53,73,126,-9,-90,100,161,29,439,185,14,-63
-53,73,126,-9,-90,100,161,29,453,190,14,-58
-53,78,131,-12,-92,104,161,29,468,200,19,-53
-53,78,131,-12,-92,104,165,29,478,200,19,-53
-53,87,141,-17,-97,114,165,29,478,200,24,-48
-53,92,146,-19,-100,119,165,29,478,209,24,-48
-53,97,151,-21,-102,124,165,29,478,204,14,-58
-53,97,151,-21,-102,124,165,19,478,214,14,-58
-53,97,151,-21,-102,124,165,29,488,219,9,-58
-58,97,156,-19,-107,126,165,29,502,224,9,-58
-58,97,156,-19,-107,126,165,29,517,229,29,-53
-58,102,161,-21,-109,131,170,29,546,234,34,-48
-58,112,170,-26,-114,141,170,29,546,239,34,-48
-58,117,175,-29,-117,146,170,29,546,244,34,-53
-58,122,180,-31,-119,151,175,29,546,248,34,-58
-58,126,185,-34,-122,156,175,24,546,253,34,-58
-58,131,190,-36,-124,161,175,24,556,258,34,-58
-58,136,195,-39,-126,165,175,24,580,263,34,-58
-58,136,195,-39,-126,165,175,24,585,268,43,-58
-58,141,200,-41,-129,170,175,24,614,273,43,-53
-58,146,204,-43,-131,175,175,24,634,278,48,-53
-58,151,209,-46,-134,180,180,24,634,283,48,-53
-58,156,214,-48,-136,185,180,24,634,302,48,-58
-58,161,219,-51,-139,190,185,19,639,307,48,-58
-58,175,234,-58,-146,204,185,19,639,317,48,-58
-63,175,239,-56,-151,207,185,19,668,322,48,-63
-68,190,258,-61,-163,224,185,19,683,326,58,-53
-68,190,258,-61,-163,224,190,19,707,331,68,-43
-68,195,263,-63,-165,229,190,19,727,336,73,-43
-68,200,268,-65,-168,234,200,19,727,346,73,-43
-68,219,287,-75,-178,253,204,19,736,351,63,-48
-68,229,297,-80,-183,263,204,14,741,361,63,-58
-68,234,302,-82,-185,268,204,14,741,370,63,-63
-68,239,307,-85,-187,273,204,14,761,375,63,-68
-68,234,302,-82,-185,268,209,14,790,380,68,-58
-73,239,312,-82,-192,275,209,14,810,385,73,-53
-73,244,317,-85,-195,280,214,14,839,390,78,-53
-73,248,322,-87,-197,285,214,9,849,395,78,-53
-73,263,336,-95,-204,300,219,9,844,400,78,-53
-73,268,341,-97,-207,305,219,9,849,409,78,-53
-73,273,346,-100,-209,309,224,4,849,419,78,-53
-82,278,361,-97,-222,319,234,4,858,424,78,-58
-87,268,356,-90,-222,312,234,4,893,429,78,-58
-92,268,361,-87,-226,314,239,4,902,439,78,-58
-92,273,366,-90,-229,319,239,4,932,444,82,-53
-92,273,366,-90,-229,319,244,4,941,444,82,-53
-102,273,375,-85,-239,324,248,4,941,448,82,-63
-112,273,385,-80,-248,329,253,4,951,458,82,-68
-112,273,385,-80,-248,329,258,4,956,463,73,-73
-117,273,390,-78,-253,331,258,0,956,463,73,-78
-126,273,400,-73,-263,336,248,-9,971,453,73,-78
-131,278,409,-73,-270,344,258,-9,985,458,73,-78
-136,278,414,-70,-275,346,258,-9,1005,463,78,-73
-141,278,419,-68,-280,348,263,-9,1019,463,78,-73
-141,278,419,-68,-280,348,273,-9,1019,463,73,-73
-146,283,429,-68,-287,356,278,-9,1019,468,73,-73
-146,283,429,-68,-287,356,283,-14,1019,468,68,-82
-151,278,429,-63,-290,353,283,-14,1010,468,63,-82
-146,278,424,-65,-285,351,287,-4,1024,458,58,-78
-151,268,419,-58,-285,344,292,-4,1029,458,58,-78
-151,268,419,-58,-285,344,292,-4,1039,458,58,-73
-151,263,414,-56,-283,339,297,-4,1054,448,58,-73
-161,263,424,-51,-292,344,297,4,1034,453,48,-82
-161,263,424,-51,-292,344,297,4,1024,448,48,-82
-161,263,424,-51,-292,344,297,4,1010,444,39,-87
-161,258,419,-48,-290,339,302,4,990,439,34,-92
-161,244,405,-41,-283,324,292,-4,980,429,29,-82
-165,229,395,-31,-280,312,287,-4,976,424,29,-82
-165,229,395,-31,-280,312,287,-4,971,419,29,-82
-165,214,380,-24,-273,297,287,-4,971,405,29,-78
-165,204,370,-19,-268,287,287,0,946,405,29,-78
-165,204,370,-19,-268,287,278,0,922,395,29,-78
-165,200,366,-17,-265,283,273,-4,902,385,24,-78
-161,195,356,-17,-258,275,268,-4,878,380,19,-78
-151,190,341,-19,-246,265,268,4,863,370,19,-78
-146,190,336,-21,-241,263,263,4,854,366,19,-78
-146,185,331,-19,-239,258,258,9,839,356,19,-78
-146,180,326,-17,-236,253,244,9,824,346,19,-73
-141,175,317,-17,-229,246,244,0,805,336,19,-68
-131,175,307,-21,-219,241,229,0,756,326,19,-63
-126,175,302,-24,-214,239,219,-4,722,317,19,-63
-122,170,292,-24,-207,231,209,-4,688,307,19,-63
-117,180,297,-31,-207,239,204,-4,658,287,19,-43
-112,175,287,-31,-200,231,190,-4,634,283,19,-39
-107,165,273,-29,-190,219,175,-4,619,273,19,-34
-97,161,258,-31,-178,209,161,-4,595,263,29,-19
-92,151,244,-29,-168,197,151,-19,580,253,34,-19
-87,151,239,-31,-163,195,136,-24,536,244,39,-19
-82,151,234,-34,-158,192,126,-29,492,234,39,-14
-73,151,224,-39,-148,187,112,-29,458,224,39,-9
-63,141,204,-39,-134,173,97,-24,419,214,34,-4
-63,141,204,-39,-134,173,87,-29,395,204,34,0
-58,131,190,-36,-124,161,82,-29,380,195,43,4
-53,126,180,-36,-117,153,68,-24,356,185,48,9
-48,131,180,-41,-114,156,58,-24,331,165,48,19
-43,131,175,-43,-109,153,48,-29,317,156,48,24
-39,131,170,-46,-104,151,43,-29,278,141,53,29
-34,131,165,-48,-100,148,34,-39,258,131,53,29
-29,122,151,-46,-90,136,34,-39,229,131,53,29
-24,112,136,-43,-80,124,24,-34,200,126,48,29
-24,107,131,-41,-78,119,19,-34,185,117,48,29
-24,102,126,-39,-75,114,9,-34,170,107,53,29
-24,92,117,-34,-70,104,9,-24,161,97,53,48
-24,82,107,-29,-65,95,4,-24,146,92,53,48
-19,82,102,-31,-61,92,-4,-24,122,82,53,48
-19,78,97,-29,-58,87,-9,-29,107,82,53,48
-14,78,92,-31,-53,85,-14,-39,97,68,53,39
-14,78,92,-31,-53,85,-19,-39,68,63,53,39
-14,78,92,-31,-53,85,-24,-39,63,58,53,39
-9,73,82,-31,-46,78,-29,-39,58,53,53,39
0,68,68,-34,-34,68,-29,-29,53,48,53,39
0,63,63,-31,-31,63,-29,-29,53,34,53,39
0,58,58,-29,-29,58,-34,-29,39,34,53,39
4,53,48,-29,-21,51,-39,-29,29,24,48,39
4,48,43,-26,-19,46,-39,-29,19,34,43,29
4,43,39,-24,-17,41,-34,-29,0,29,43,29
0,39,39,-19,-19,39,-34,-34,-4,24,34,29
0,34,34,-17,-17,34,-34,-34,-4,19,34,29
0,34,34,-17,-17,34,-39,-34,-4,4,39,29
0,29,29,-14,-14,29,-39,-29,-4,4,39,29
0,19,19,-9,-9,19,-39,-29,-4,0,39,29
0,19,19,-9,-9,19,-39,-24,-19,-4,34,29
-4,19,24,-7,-14,21,-39,-34,-24,-14,29,19
-4,19,24,-7,-14,21,-39,-34,-34,-14,24,14
-14,14,29,0,-21,21,-39,-34,-39,-14,24,9
-14,9,24,2,-19,17,-39,-34,-39,-19,19,4
-14,-4,9,9,-12,2,-39,-34,-39,-24,19,14
-14,-4,9,9,-12,2,-39,-34,-39,-29,19,14
-14,-4,9,9,-12,2,-39,-34,-39,-29,19,14
-14,-4,9,9,-12,2,-39,-34,-39,-24,19,14
-19,4,24,7,-21,14,-39,-24,-39,-24,19,14
-19,4,24,7,-21,14,-39,-24,-39,-24,19,14
-19,4,24,7,-21,14,-39,-24,-39,-24,19,14
-19,0,19,9,-19,9,-39,-24,-39,-24,19,14
-19,0,19,9,-19,9,-39,-24,-53,-19,19,4
-19,0,19,9,-19,9,-34,-24,-53,-19,19,4
-19,0,19,9,-19,9,-34,-24,-53,-19,19,4
-19,0,19,9,-19,9,-34,-24,-53,-19,19,4
-19,0,19,9,-19,9,-34,-34,-43,-19,9,4
-19,0,19,9,-19,9,-34,-29,-43,-19,14,4
-19,0,19,9,-19,9,-34,-29,-43,-19,14,4
-19,0,19,9,-19,9,-34,-29,-39,-19,14,4
-14,0,14,7,-14,7,-34,-29,-39,-9,9,4
-14,0,14,7,-14,7,-34,-29,-39,-9,9,4
-14,0,14,7,-14,7,-34,-29,-39,-9,9,0
-14,0,14,7,-14,7,-34,-29,-39,-9,9,0
-14,0,14,7,-14,7,-34,-19,-29,-9,19,9
-19,0,19,9,-19,9,-34,-19,-24,-9,19,9
-19,0,19,9,-19,9,-34,-19,-24,-9,19,9
-19,0,19,9,-19,9,-34,-19,-24,-4,19,9
-9,0,9,4,-9,4,-34,-19,-24,-4,19,0
-9,0,9,4,-9,4,-34,-19,-24,-4,19,0
-9,0,9,4,-9,4,-34,-19,-24,-4,19,0
-9,0,9,4,-9,4,-34,-19,-24,0,19,0
-9,-4,4,7,-7,0,-34,-19,-19,0,19,9
-9,-4,4,7,-7,0,-34,-19,-14,0,19,9
-9,-4,4,7,-7,0,-34,-19,-14,0,19,9
-9,-4,4,7,-7,0,-34,-19,-9,0,19,9
0,4,4,-2,-2,4,-34,-19,-9,4,24,9
0,4,4,-2,-2,4,-34,-19,-9,4,24,9
0,4,4,-2,-2,4,-34,-19,-9,4,24,9
0,4,4,-2,-2,4,-29,-19,-9,4,24,9
0,14,14,-7,-7,14,-29,-19,4,4,24,9
0,14,14,-7,-7,14,-29,-19,9,4,24,9
0,14,14,-7,-7,14,-29,-19,14,4,24,9
0,14,14,-7,-7,14,-29,-19,14,9,24,9
-14,14,29,0,-21,21,-29,-19,4,0,24,0
-14,14,29,0,-21,21,-24,-19,9,4,24,0
-14,19,34,-2,-24,26,-24,-19,9,4,24,0
-14,19,34,-2,-24,26,-24,-19,9,4,24,0
-19,9,29,4,-24,19,-24,-19,9,4,24,0
-19,9,29,4,-24,19,-24,-19,14,4,24,0
-19,9,29,4,-24,19,-24,-19,19,4,24,0
-19,9,29,4,-24,19,-24,-19,19,4,24,0
-29,9,39,9,-34,24,-24,-19,19,4,24,0
-29,9,39,9,-34,24,-24,-19,24,4,24,0
-29,14,43,7,-36,29,-19,-19,24,4,24,0
-29,14,43,7,-36,29,-19,-19,24,9,24,0
-29,14,43,7,-36,29,-19,-19,24,9,24,0
-29,14,43,7,-36,29,-19,-19,29,9,24,0
-29,14,43,7,-36,29,-14,-19,34,9,24,0
-29,14,43,7,-36,29,-14,-19,34,9,24,0
-29,14,43,7,-36,29,-14,-19,34,9,24,0
-34,14,48,9,-41,31,-9,-19,39,9,24,0
-34,14,48,9,-41,31,-4,-19,39,9,24,-4
-34,14,48,9,-41,31,-4,-19,39,9,24,-4
-34,9,43,12,-39,26,-4,-19,39,9,24,4
-34,9,43,12,-39,26,-4,-14,39,9,24,4
-34,9,43,12,-39,26,-4,-9,39,9,24,4
-34,9,43,12,-39,26,-4,-9,43,9,24,0
-34,9,43,12,-39,26,4,-9,43,9,24,0
-34,4,39,14,-36,21,4,-9,43,9,19,0
-34,4,39,14,-36,21,4,-9,43,9,19,0
-34,4,39,14,-36,21,4,-9,39,9,19,0
-34,4,39,14,-36,21,9,0,39,9,19,-4
-34,4,39,14,-36,21,9,0,39,9,14,-4
-34,4,39,14,-36,21,9,0,39,9,14,-4
-34,4,39,14,-36,21,9,0,39,9,14,-4
-34,0,34,17,-34,17,0,0,39,9,14,-4
-34,0,34,17,-34,17,4,0,39,9,14,-4
-34,0,34,17,-34,17,4,0,39,9,14,-9
-34,0,34,17,-34,17,4,0,39,4,14,-9
-34,0,34,17,-34,17,14,-9,39,4,9,-9
-34,-4,29,19,-31,12,14,-4,39,4,9,-9
-39,-4,34,21,-36,14,14,-4,39,4,9,-14
-39,-9,29,24,-34,9,14,-4,39,0,9,-14
-39,-19,19,29,-29,0,14,-4,29,0,0,-14
-39,-19,19,29,-29,0,14,-4,29,0,0,-14
-39,-19,19,29,-29,0,14,-4,29,0,0,-14
-39,-19,19,29,-29,0,19,-4,29,0,0,-14
-39,-19,19,29,-29,0,19,-4,24,-9,-14,-14
-39,-24,14,31,-26,-4,19,-4,24,-9,-14,-14
-39,-24,14,31,-26,-4,19,-4,24,-14,-14,-14
-39,-24,14,31,-26,-4,19,-4,24,-19,-14,-14
-39,-24,14,31,-26,-4,19,-4,24,-19,-14,-14
-39,-29,9,34,-24,-9,19,-4,24,-19,-14,-14
-39,-29,9,34,-24,-9,19,0,19,-19,-14,-14
-39,-29,9,34,-24,-9,19,0,19,-19,-14,-14
-39,-29,9,34,-24,-9,19,-4,9,-19,-9,-14
-43,-29,14,36,-29,-7,19,-4,9,-19,-9,-14
-43,-29,14,36,-29,-7,19,0,9,-24,-9,-14
-43,-34,9,39,-26,-12,19,0,9,-24,-9,-19
-34,-24,9,29,-21,-7,9,-9,9,-24,-9,-19
-34,-29,4,31,-19,-12,9,-9,9,-29,-9,-19
-34,-29,4,31,-19,-12,9,-9,9,-29,-9,-19
-34,-29,4,31,-19,-12,9,-9,0,-29,-14,-19
-43,-29,14,36,-29,-7,9,-9,0,-29,-14,-19
-43,-29,14,36,-29,-7,9,-9,0,-29,-14,-19
-43,-34,9,39,-26,-12,9,-9,0,-34,-14,-19
-43,-34,9,39,-26,-12,9,-9,0,-34,-14,-19
-43,-34,9,39,-26,-12,9,-9,0,-29,-14,-19
-43,-39,4,41,-24,-17,9,-9,0,-29,-19,-19
-43,-39,4,41,-24,-17,9,-9,0,-29,-19,-24
-43,-39,4,41,-24,-17,9,-9,-4,-29,-19,-24
-34,-29,4,31,-19,-12,9,-9,-14,-34,-19,-14
-39,-29,9,34,-24,-9,9,-9,-14,-34,-19,-14
-39,-29,9,34,-24,-9,9,-9,-14,-34,-19,-14
-39,-34,4,36,-21,-14,9,-9,-19,-39,-19,-14
-39,-34,4,36,-21,-14,9,0,-19,-29,-19,-14
-39,-34,4,36,-21,-14,9,0,-19,-29,-19,-14
-39,-34,4,36,-21,-14,9,0,-19,-34,-19,-14
-39,-34,4,36,-21,-14,9,0,-19,-34,-19,-14
-34,-39,-4,36,-14,-21,9,0,-19,-43,-24,-14
-34,-39,-4,36,-14,-21,9,0,-19,-43,-24,-14
-34,-39,-4,36,-14,-21,9,0,-19,-43,-24,-14
-34,-39,-4,36,-14,-21,9,0,-19,-43,-24,-14
-34,-39,-4,36,-14,-21,9,0,-19,-39,-24,-14
-34,-43,-9,39,-12,-26,9,0,-19,-39,-24,-14
-34,-43,-9,39,-12,-26,9,0,-19,-39,-24,-14
-34,-43,-9,39,-12,-26,9,0,-19,-39,-24,-14
-43,-43,0,43,-21,-21,9,-14,-19,-39,-24,-14
-39,-43,-4,41,-17,-24,4,-14,-24,-39,-29,-14
-39,-43,-4,41,-17,-24,4,-14,-29,-39,-29,-19
-39,-43,-4,41,-17,-24,4,-14,-29,-39,-29,-19
-39,-43,-4,41,-17,-24,4,-4,-29,-48,-29,-19
-39,-43,-4,41,-17,-24,4,-4,-29,-48,-29,-19
-39,-48,-9,43,-14,-29,4,-4,-29,-48,-29,-19
-43,-48,-4,46,-19,-26,4,-4,-29,-48,-29,-19
-43,-58,-14,51,-14,-36,4,-4,-39,-53,-29,-14
-43,-58,-14,51,-14,-36,4,-4,-39,-53,-29,-14
-43,-58,-14,51,-14,-36,4,-4,-39,-53,-29,-14
-43,-58,-14,51,-14,-36,4,-4,-39,-53,-29,-14
-43,-58,-14,51,-14,-36,9,0,-34,-53,-29,-14
-43,-58,-14,51,-14,-36,9,0,-34,-53,-29,-14
-43,-58,-14,51,-14,-36,9,0,-34,-53,-29,-14
-43,-58,-14,51,-14,-36,9,0,-34,-53,-29,-14
-43,-58,-14,51,-14,-36,9,0,-34,-53,-29,-14
-43,-48,-4,46,-19,-26,9,0,-43,-53,-29,-14
-39,-48,-9,43,-14,-29,9,0,-39,-58,-39,-19
-48,-58,-9,53,-19,-34,9,-9,-39,-58,-39,-19
-48,-58,-9,53,-19,-34,9,-9,-39,-58,-39,-19
-48,-58,-9,53,-19,-34,9,-9,-39,-58,-39,-19
-48,-58,-9,53,-19,-34,9,-9,-39,-58,-39,-19
-48,-58,-9,53,-19,-34,9,-9,-48,-58,-39,-19
-48,-58,-9,53,-19,-34,9,-9,-48,-58,-39,-19
-48,-58,-9,53,-19,-34,9,-9,-48,-58,-39,-19
-48,-58,-9,53,-19,-34,9,-9,-48,-58,-39,-19
-39,-58,-19,48,-9,-39,9,-9,-58,-58,-39,-19
-39,-58,-19,48,-9,-39,9,-9,-58,-58,-39,-19
-39,-58,-19,48,-9,-39,9,-9,-58,-58,-39,-19
-39,-58,-19,48,-9,-39,9,-9,-58,-58,-39,-19
-39,-58,-19,48,-9,-39,9,-9,-58,-58,-29,-19
-39,-58,-19,48,-9,-39,9,-9,-58,-58,-29,-19
-39,-58,-19,48,-9,-39,9,-9,-58,-58,-29,-19
-39,-58,-19,48,-9,-39,9,-9,-58,-58,-29,-19
-39,-48,-9,43,-14,-29,9,-9,-58,-58,-29,-19
-39,-48,-9,43,-14,-29,9,-9,-58,-58,-29,-19
-39,-48,-9,43,-14,-29,9,-9,-58,-58,-29,-19
-39,-48,-9,43,-14,-29,9,-9,-58,-58,-29,-19
-48,-58,-9,53,-19,-34,9,-9,-58,-58,-29,-19
-48,-58,-9,53,-19,-34,9,-9,-58,-58,-29,-19
-48,-58,-9,53,-19,-34,9,-9,-58,-58,-29,-19
-48,-58,-9,53,-19,-34,9,-9,-58,-58,-29,-19
-48,-68,-19,58,-14,-43,9,-19,-58,-58,-39,-19
-48,-68,-19,58,-14,-43,9,-19,-58,-58,-39,-19
-48,-68,-19,58,-14,-43,9,-19,-58,-58,-39,-19
-48,-68,-19,58,-14,-43,9,-19,-58,-58,-39,-19
-48,-68,-19,58,-14,-43,9,-19,-68,-68,-29,-19
-48,-68,-19,58,-14,-43,9,-19,-68,-68,-29,-19
-48,-68,-19,58,-14,-43,9,-19,-68,-68,-29,-19
-48,-68,-19,58,-14,-43,9,-19,-68,-68,-29,-19
-48,-68,-19,58,-14,-43,9,-19,-68,-58,-29,-19
-48,-68,-19,58,-14,-43,9,-19,-68,-58,-29,-19
-48,-68,-19,58,-14,-43,9,-19,-68,-58,-29,-19
-48,-68,-19,58,-14,-43,9,-19,-68,-58,-29,-19
-48,-68,-19,58,-14,-43,9,-19,-68,-68,-29,-19
-48,-68,-19,58,-14,-43,9,-19,-68,-68,-29,-19
-48,-68,-19,58,-14,-43,9,-19,-68,-68,-29,-19
-48,-68,-19,58,-14,-43,9,-19,-68,-68,-29,-19
-48,-58,-9,53,-19,-34,9,-19,-68,-68,-29,-19
-48,-58,-9,53,-19,-34,9,-19,-68,-68,-29,-19
-48,-58,-9,53,-19,-34,9,-19,-68,-68,-29,-19
-48,-58,-9,53,-19,-34,9,-19,-68,-68,-29,-19
-48,-58,-9,53,-19,-34,0,-19,-68,-68,-29,-19
-48,-58,-9,53,-19,-34,0,-19,-68,-68,-29,-19
-48,-58,-9,53,-19,-34,0,-19,-68,-68,-29,-19
-48,-58,-9,53,-19,-34,0,-19,-68,-68,-29,-19
-48,-58,-9,53,-19,-34,0,-19,-68,-68,-19,-19
-48,-58,-9,53,-19,-34,0,-19,-68,-68,-19,-19
-48,-58,-9,53,-19,-34,0,-19,-68,-68,-19,-19
-48,-58,-9,53,-19,-34,0,-19,-68,-68,-19,-19
-48,-58,-9,53,-19,-34,0,-9,-68,-68,-19,-9
-48,-58,-9,53,-19,-34,0,-9,-68,-68,-19,-9
-48,-58,-9,53,-19,-34,0,-9,-68,-68,-19,-9
-48,-58,-9,53,-19,-34,0,-9,-68,-68,-19,-9
-48,-48,0,48,-24,-24,-9,-9,-68,-58,-19,-9
-48,-48,0,48,-24,-24,-9,-9,-68,-58,-19,-9
-48,-48,0,48,-24,-24,-9,-9,-68,-58,-19,-9
-48,-48,0,48,-24,-24,-9,-9,-68,-58,-19,-9
-39,-43,-4,41,-17,-24,-19,-19,-63,-48,-9,0
-39,-39,0,39,-19,-19,-19,-19,-58,-48,-9,0
-39,-34,4,36,-21,-14,-19,-19,-53,-48,-9,0
-39,-29,9,34,-24,-9,-19,-19,-48,-48,-9,0
-29,-14,14,21,-21,0,-29,-19,-43,-43,-4,4
-29,-9,19,19,-24,4,-29,-19,-39,-39,0,9
-29,-4,24,17,-26,9,-29,-19,-34,-34,4,14
-29,0,29,14,-29,14,-29,-19,-29,-29,9,19
-14,14,29,0,-21,21,-43,-29,-24,-14,19,19
-14,19,34,-2,-24,26,-48,-29,-14,-14,19,19
-9,24,34,-7,-21,29,-53,-29,-4,-14,24,19
-9,29,39,-9,-24,34,-58,-29,4,-4,24,24
-4,48,53,-21,-29,51,-63,-29,0,0,34,29
-4,53,58,-24,-31,56,-68,-29,4,4,34,29
4,58,53,-31,-24,56,-73,-34,9,4,34,39
4,73,68,-39,-31,70,-78,-34,14,9,43,43
4,73,68,-39,-31,70,-82,-34,19,14,48,39
4,82,78,-43,-36,80,-87,-34,24,19,53,39
4,92,87,-48,-41,90,-92,-39,29,24,53,43
9,102,92,-56,-41,97,-97,-43,29,29,63,48
9,107,97,-58,-43,102,-107,-48,39,34,68,63
9,117,107,-63,-48,112,-117,-53,39,39,73,68
9,122,112,-65,-51,117,-117,-58,39,39,78,73
14,126,112,-70,-48,119,-126,-63,29,39,78,78
14,131,117,-73,-51,124,-136,-78,24,39,82,78
19,136,117,-78,-48,126,-136,-82,19,39,82,78
19,136,117,-78,-48,126,-146,-82,14,39,82,82
19,141,122,-80,-51,131,-151,-82,9,39,82,82
24,136,112,-80,-43,124,-156,-82,0,39,82,87
29,136,107,-82,-39,122,-161,-87,-9,39,82,87
34,136,102,-85,-34,119,-165,-87,-14,39,87,92
39,136,97,-87,-29,117,-165,-87,-14,39,87,92
39,136,97,-87,-29,117,-165,-87,-29,29,87,92
39,136,97,-87,-29,117,-165,-87,-39,19,87,92
39,126,87,-82,-24,107,-165,-82,-43,19,87,92
39,126,87,-82,-24,107,-156,-82,-48,14,82,87
34,131,97,-82,-31,114,-161,-68,-53,24,78,87
34,126,92,-80,-29,109,-156,-68,-58,24,73,78
34,122,87,-78,-26,104,-151,-63,-63,19,73,78
34,117,82,-75,-24,100,-146,-63,-63,19,73,78
34,107,73,-70,-19,90,-131,-58,-63,14,68,82
29,97,68,-63,-19,82,-122,-58,-63,9,63,78
24,87,63,-56,-19,75,-112,-53,-63,4,58,78
19,78,58,-48,-19,68,-102,-53,-68,0,53,73
14,68,53,-41,-19,61,-92,-63,-68,-4,58,68
4,58,53,-31,-24,56,-82,-58,-68,-9,53,63
-4,48,53,-21,-29,51,-73,-53,-68,-14,48,58
-9,39,48,-14,-29,43,-63,-53,-68,-19,43,53
-19,29,48,-4,-34,39,-53,-53,-68,-14,39,39
-29,14,43,7,-36,29,-43,-48,-68,-19,34,34
-29,4,34,12,-31,19,-34,-48,-68,-24,29,29
-34,-4,29,19,-31,12,-34,-39,-68,-29,24,24
-39,-14,24,26,-31,4,-19,-39,-73,-43,19,19
-43,-24,19,34,-31,-2,-14,-34,-73,-48,14,14
-48,-34,14,41,-31,-9,-9,-29,-73,-53,4,0
-48,-43,4,46,-26,-19,-4,-29,-73,-58,0,0
-63,-63,0,63,-31,-31,9,-29,-78,-63,-14,-4
-63,-63,0,63,-31,-31,9,-24,-78,-63,-19,-9
-63,-68,-4,65,-29,-36,9,-24,-78,-68,-19,-14
-63,-73,-9,68,-26,-41,19,-19,-82,-73,-24,-19
-63,-78,-14,70,-24,-46,19,-14,-82,-73,-24,-19
-63,-82,-19,73,-21,-51,19,-14,-82,-73,-24,-19
-63,-87,-24,75,-19,-56,24,-14,-82,-73,-24,-19
-68,-87,-19,78,-24,-53,24,-14,-82,-73,-24,-19
-68,-87,-19,78,-24,-53,24,0,-82,-73,-34,-19
-68,-87,-19,78,-24,-53,24,0,-82,-73,-34,-24
-68,-87,-19,78,-24,-53,24,0,-87,-73,-39,-24
-68,-87,-19,78,-24,-53,24,0,-87,-73,-39,-24
-68,-87,-19,78,-24,-53,29,0,-78,-78,-39,-24
-68,-87,-19,78,-24,-53,29,4,-78,-78,-39,-24
-68,-92,-24,80,-21,-58,29,4,-78,-78,-39,-24
-68,-92,-24,80,-21,-58,29,4,-78,-78,-39,-24
-68,-82,-14,75,-26,-48,29,4,-87,-78,-39,-24
-68,-82,-14,75,-26,-48,29,4,-87,-78,-39,-29
-68,-82,-14,75,-26,-48,29,4,-87,-78,-39,-29
-68,-82,-14,75,-26,-48,29,4,-87,-78,-39,-29
-68,-92,-24,80,-21,-58,29,9,-78,-78,-34,-29
-68,-92,-24,80,-21,-58,29,9,-78,-82,-34,-29
-68,-92,-24,80,-21,-58,34,9,-78,-82,-34,-29
-68,-92,-24,80,-21,-58,34,9,-78,-82,-34,-29
-68,-92,-24,80,-21,-58,34,9,-78,-82,-43,-29
-68,-92,-24,80,-21,-58,34,9,-78,-82,-43,-29
-68,-92,-24,80,-21,-58,34,9,-78,-82,-43,-29
-68,-92,-24,80,-21,-58,34,9,-78,-82,-43,-29
-68,-92,-24,80,-21,-58,34,9,-78,-82,-34,-34
-68,-97,-29,82,-19,-63,34,9,-78,-82,-34,-34
-68,-97,-29,82,-19,-63,34,9,-82,-82,-34,-34
-68,-97,-29,82,-19,-63,34,9,-82,-82,-34,-34
-63,-97,-34,80,-14,-65,34,9,-73,-73,-34,-34
-53,-92,-39,73,-7,-65,34,9,-82,-78,-29,-24
-48,-82,-34,65,-7,-58,24,4,-82,-73,-29,-24
-48,-87,-39,68,-4,-63,24,14,-63,-58,-19,-24
-39,-73,-34,56,-2,-53,14,14,-43,-39,-24,-24
-29,-63,-34,46,2,-48,14,14,-19,-24,-14,-24
-29,-43,-14,36,-7,-29,19,9,0,-14,0,-14
-43,-34,9,39,-26,-12,19,-19,-9,-4,9,0
-48,-9,39,29,-43,14,0,-34,-68,-14,29,14
-43,9,53,17,-48,31,-24,-48,-185,-34,53,39
-19,29,48,-4,-34,39,-73,-73,-336,-53,82,78
19,68,48,-43,-14,58,-136,-87,-483,-48,112,112
63,117,53,-90,4,85,-219,-102,-644,-48,161,156
102,175,73,-139,14,124,-317,-131,-829,-34,234,219
146,278,131,-212,7,204,-448,-195,-1058,-24,326,317
170,409,239,-290,-34,324,-600,-263,-1317,4,444,439
219,522,302,-370,-41,412,-736,-336,-1600,9,556,551
258,605,346,-431,-43,475,-854,-380,-1893,-14,653,673
302,644,341,-473,-19,492,-946,-419,-2181,-53,717,761
351,634,283,-492,34,458,-1034,-424,-2493,-122,751,810
434,619,185,-527,124,402,-1137,-395,-2776,-195,780,858
517,624,107,-570,204,366,-1259,-385,-3045,-239,824,917
600,639,39,-619,280,339,-1395,-385,-3294,-283,873,976
688,629,-58,-658,373,285,-1527,-361,-3503,-326,893,1024
775,605,-170,-690,473,217,-1625,-341,-3650,-366,907,1034
863,551,-312,-707,588,119,-1678,-302,-3747,-395,888,1015
946,492,-453,-719,700,19,-1722,-258,-3791,-424,849,980
1010,439,-570,-724,790,-65,-1761,-219,-3782,-429,824,941
1078,331,-746,-705,912,-207,-1766,-175,-3752,-463,746,858
1107,107,-1000,-607,1054,-446,-1717,-87,-3689,-585,566,697
1137,-302,-1439,-417,1288,-871,-1586,92,-3591,-873,190,405
1141,-951,-2093,-95,1617,-1522,-1327,351,-3420,-1342,-405,-53
1088,-1698,-2786,305,1937,-2242,-995,619,-3196,-1903,-1078,-531
985,-2191,-3176,602,2081,-2684,-727,751,-2996,-2303,-1512,-829
883,-2361,-3245,739,2064,-2803,-556,780,-2806,-2435,-1668,-932
800,-2318,-3118,758,1959,-2718,-463,741,-2630,-2400,-1639,-922
732,-2186,-2918,727,1825,-2552,-419,668,-2415,-2278,-1551,-873
673,-1995,-2669,661,1671,-2332,-385,575,-2210,-2098,-1424,-795
614,-1781,-2396,583,1505,-2088,-385,483,-1991,-1873,-1273,-717
551,-1566,-2117,507,1334,-1842,-370,395,-1751,-1659,-1117,-624
488,-1381,-1869,446,1178,-1625,-361,312,-1551,-1454,-971,-531
434,-1205,-1639,385,1037,-1422,-331,248,-1351,-1278,-849,-444
370,-1054,-1424,341,897,-1239,-297,209,-1146,-1117,-741,-380
336,-932,-1268,297,802,-1100,-263,165,-1029,-990,-653,-336
317,-814,-1132,248,724,-973,-239,141,-912,-888,-585,-292
273,-668,-941,197,607,-805,-209,107,-766,-736,-483,-224
209,-502,-712,146,461,-607,-161,63,-610,-570,-370,-146
151,-395,-546,122,348,-470,-107,48,-458,-463,-297,-112
92,-346,-439,126,265,-392,-53,39,-331,-380,-253,-92
43,-297,-341,126,192,-319,-9,34,-234,-307,-209,-82
9,-263,-273,126,141,-268,34,24,-117,-244,-170,-82
-19,-229,-209,124,95,-219,63,34,-58,-195,-156,-82
-29,-195,-165,112,68,-180,92,34,0,-151,-131,-92
-39,-165,-126,102,43,-146,97,34,34,-117,-122,-92
-43,-141,-97,92,26,-119,117,39,53,-78,-107,-92
-39,-112,-73,75,17,-92,122,34,73,-48,-92,-92
-48,-92,-43,70,-2,-68,131,43,122,-29,-82,-78
-39,-82,-43,61,2,-63,131,43,141,-14,-63,-63
-48,-73,-24,61,-12,-48,136,43,170,0,-58,-58
-48,-82,-34,65,-7,-58,141,48,165,0,-48,-58
-53,-78,-24,65,-14,-51,141,48,170,9,-48,-63
-53,-68,-14,61,-19,-41,141,39,170,19,-48,-63
-53,-63,-9,58,-21,-36,141,39,175,19,-48,-63
-63,-63,0,63,-31,-31,151,29,185,24,-58,-73
-73,-63,9,68,-41,-26,151,29,190,29,-48,-73
-78,-63,14,70,-46,-24,151,29,204,29,-43,-63
-78,-58,19,68,-48,-19,151,34,219,29,-39,-63
-73,-63,9,68,-41,-26,151,34,214,39,-29,-63
-73,-58,14,65,-43,-21,151,29,224,43,-29,-63
-73,-48,24,61,-48,-12,156,29,234,48,-29,-73
-73,-43,29,58,-51,-7,156,29,229,53,-29,-73
-73,-34,39,53,-56,2,156,29,234,63,-39,-73
-73,-34,39,53,-56,2,156,29,239,63,-39,-73
-78,-34,43,56,-61,4,156,29,244,63,-29,-68
-78,-34,43,56,-61,4,156,29,258,63,-29,-68
-87,-39,48,63,-68,4,156,29,273,53,-29,-68
-82,-34,48,58,-65,7,156,29,273,53,-29,-68
-82,-34,48,58,-65,7,156,29,268,63,-29,-73
-82,-39,43,61,-63,2,156,24,263,68,-29,-73
-73,-39,34,56,-53,-2,156,24,248,73,-29,-73
-73,-39,34,56,-53,-2,156,29,268,73,-29,-73
-73,-39,34,56,-53,-2,156,29,273,73,-29,-73
-73,-34,39,53,-56,2,156,34,287,73,-19,-63
-73,-43,29,58,-51,-7,156,43,302,63,-14,-63
-73,-34,39,53,-56,2,156,43,292,63,-14,-63
-73,-29,43,51,-58,7,156,34,297,73,-19,-63
-73,-19,53,46,-63,17,156,34,292,78,-29,-63
-68,-9,58,39,-63,24,156,24,278,82,-29,-63
-68,-9,58,39,-63,24,156,24,302,87,-24,-63
-73,-9,63,41,-68,26,156,24,302,92,-24,-63
-73,-9,63,41,-68,26,156,24,312,102,-14,-53
-73,0,73,36,-73,36,156,34,341,92,4,-43
-73,0,73,36,-73,36,156,34,331,92,4,-43
-73,9,82,31,-78,46,156,34,336,102,4,-43
-68,14,82,26,-75,48,156,34,336,107,0,-48
-58,29,87,14,-73,58,156,34,312,112,-9,-58
-63,29,92,17,-78,61,156,34,331,117,-9,-63
-63,29,92,17,-78,61,156,34,346,117,-9,-63
-63,29,92,17,-78,61,156,34,356,117,-9,-53
-58,29,87,14,-73,58,156,34,380,117,0,-43
-58,34,92,12,-75,63,156,34,380,117,0,-43
-58,34,92,12,-75,63,156,34,380,126,0,-43
-58,43,102,7,-80,73,156,34,375,126,-4,-53
-68,39,107,14,-87,73,165,34,356,131,-4,-63
-63,39,102,12,-82,70,165,34,366,136,-4,-63
-63,39,102,12,-82,70,165,34,380,141,-4,-63
-68,39,107,14,-87,73,170,34,395,141,0,-63
-68,29,97,19,-82,63,170,34,414,141,9,-58
-68,29,97,19,-82,63,170,34,429,141,9,-58
-68,29,97,19,-82,63,170,39,419,151,9,-58
-68,39,107,14,-87,73,170,39,419,156,9,-58
-73,43,117,14,-95,80,170,39,414,161,4,-58
-73,43,117,14,-95,80,170,39,414,165,4,-63
-73,43,117,14,-95,80,170,39,429,165,4,-63
-73,43,117,14,-95,80,170,39,444,170,4,-58
-63,58,122,2,-92,90,170,39,468,180,9,-63
-63,58,122,2,-92,90,175,39,478,180,9,-63
-63,68,131,-2,-97,100,175,39,478,180,14,-58
-63,73,136,-4,-100,104,175,39,478,190,14,-58
-63,87,151,-12,-107,119,175,39,478,185,24,-58
-63,87,151,-12,-107,119,175,29,478,195,24,-58
-63,87,151,-12,-107,119,175,39,488,200,19,-58
-68,87,156,-9,-112,122,175,39,502,204,19,-58
-58,87,146,-14,-102,117,175,39,507,209,19,-63
-58,92,151,-17,-104,122,180,39,536,214,24,-58
-58,102,161,-21,-109,131,180,39,536,219,24,-58
-58,107,165,-24,-112,136,180,39,536,224,24,-63
-58,112,170,-26,-114,141,185,39,536,229,34,-68
-58,117,175,-29,-117,146,185,34,536,234,34,-68
-58,122,180,-31,-119,151,185,34,546,239,34,-68
-58,126,185,-34,-122,156,185,34,570,244,34,-68
-58,136,195,-39,-126,165,185,34,575,258,34,-68
-58,141,200,-41,-129,170,185,34,605,263,34,-63
-58,146,204,-43,-131,175,185,34,624,268,39,-63
-58,151,209,-46,-134,180,190,34,624,273,39,-63
-58,146,204,-43,-131,175,200,34,634,283,48,-58
-58,151,209,-46,-134,180,204,29,639,287,48,-58
-58,165,224,-53,-141,195,204,29,639,297,48,-58
-63,165,229,-51,-146,197,204,29,668,302,48,-63
-68,170,239,-51,-153,204,204,19,683,307,39,-63
-68,170,239,-51,-153,204,209,19,707,312,48,-53
-68,175,244,-53,-156,209,209,19,727,317,53,-53
-68,180,248,-56,-158,214,219,19,727,326,53,-53
-78,180,258,-51,-168,219,224,29,746,322,63,-53
-78,190,268,-56,-173,229,224,24,751,331,63,-58
-78,195,273,-58,-175,234,224,24,751,341,63,-58
-78,200,278,-61,-178,239,224,24,771,346,63,-58
-78,204,283,-63,-180,244,219,14,780,361,58,-68
-82,209,292,-63,-187,251,219,14,800,366,63,-63
-82,214,297,-65,-190,256,224,14,829,370,68,-63
-82,219,302,-68,-192,261,224,9,839,375,68,-63
-82,234,317,-75,-200,275,229,19,849,380,78,-53
-82,239,322,-78,-202,280,229,19,858,390,78,-53
-82,244,326,-80,-204,285,234,14,863,400,78,-53
-92,248,341,-78,-217,295,244,14,878,405,78,-58
-87,258,346,-85,-217,302,244,14,907,419,78,-58
-92,258,351,-82,-222,305,248,14,912,429,78,-58
-92,263,356,-85,-224,309,248,14,936,434,82,-53
-92,263,356,-85,-224,309,253,14,941,434,82,-53
-102,273,375,-85,-239,324,248,14,956,439,92,-53
-112,273,385,-80,-248,329,253,14,971,448,92,-58
-112,273,385,-80,-248,329,258,14,980,453,82,-63
-117,273,390,-78,-253,331,258,9,985,453,82,-68
-117,283,400,-82,-258,341,268,0,1005,453,73,-68
-122,287,409,-82,-265,348,278,0,1015,458,73,-68
-126,287,414,-80,-270,351,278,0,1029,463,78,-63
-131,287,419,-78,-275,353,283,0,1039,463,78,-63
-131,278,409,-73,-270,344,273,0,1054,453,73,-63
-136,283,419,-73,-278,351,278,0,1058,458,73,-63
-136,283,419,-73,-278,351,283,-4,1063,458,68,-73
-141,278,419,-68,-280,348,283,-4,1058,458,63,-73
-146,287,434,-70,-290,361,297,-4,1058,458,58,-78
-151,278,429,-63,-290,353,302,-4,1058,458,58,-78
-151,278,429,-63,-290,353,302,-4,1063,458,58,-73
-151,273,424,-61,-287,348,307,-4,1073,448,58,-73
-151,263,414,-56,-283,339,307,-4,1078,453,58,-63
-151,263,414,-56,-283,339,307,-4,1073,448,58,-63
-151,263,414,-56,-283,339,307,-4,1063,444,48,-68
-151,258,409,-53,-280,334,312,-4,1049,439,43,-73
-141,258,400,-58,-270,329,312,-4,1034,448,39,-82
-146,248,395,-51,-270,322,307,-4,1024,444,39,-82
-146,253,400,-53,-273,326,307,-4,1015,439,39,-82
-146,244,390,-48,-268,317,307,-4,1010,424,39,-78
-146,244,390,-48,-268,317,307,0,1005,414,39,-78
-146,244,390,-48,-268,317,297,0,980,405,39,-78
-146,239,385,-46,-265,312,292,-4,961,395,34,-78
-141,234,375,-46,-258,305,287,-4,936,390,29,-78
-151,209,361,-29,-256,285,287,-4,912,370,9,-78
-146,209,356,-31,-251,283,283,-4,902,366,9,-78
-146,204,351,-29,-248,278,278,0,888,356,9,-78
-146,200,346,-26,-246,273,263,0,873,346,9,-73
-141,190,331,-24,-236,261,273,0,868,336,9,-68
-131,185,317,-26,-224,251,258,0,824,326,9,-63
-126,180,307,-26,-217,244,248,-4,795,317,9,-63
-122,170,292,-24,-207,231,239,-4,766,307,9,-63
-117,161,278,-21,-197,219,244,-4,717,287,0,-58
-112,156,268,-21,-190,212,229,-4,692,283,0,-58
-107,146,253,-19,-180,200,214,-4,678,273,0,-58
-97,141,239,-21,-168,190,200,-4,653,263,9,-48
-92,141,234,-24,-163,187,190,0,634,263,14,-29
-87,141,229,-26,-158,185,175,-4,595,253,19,-29
-82,141,224,-29,-153,183,165,-9,556,244,19,-24
-73,141,214,-34,-143,178,151,-9,527,234,19,-19
-63,141,204,-39,-134,173,126,-14,473,224,24,-24
-63,141,204,-39,-134,173,117,-19,444,214,24,-19
-58,131,190,-36,-124,161,112,-19,424,204,34,-14
-53,126,180,-36,-117,153,97,-14,395,195,39,-9
-58,122,180,-31,-119,151,87,-14,370,175,39,0
-53,122,175,-34,-114,148,78,-19,356,165,39,4
-48,122,170,-36,-109,146,73,-19,317,151,43,9
-43,122,165,-39,-104,143,63,-29,297,141,43,9
-29,122,151,-46,-90,136,53,-29,258,131,43,9
-24,112,136,-43,-80,124,43,-24,229,126,39,9
-24,107,131,-41,-78,119,39,-24,214,117,39,9
-24,102,126,-39,-75,114,29,-24,200,107,43,9
-24,82,107,-29,-65,95,29,-24,180,97,43,29
-24,73,97,-24,-61,85,24,-24,165,92,43,29
-19,73,92,-26,-56,82,14,-24,141,82,43,29
-19,68,87,-24,-53,78,9,-29,126,82,43,29
-14,68,82,-26,-48,75,4,-29,107,68,43,29
-14,68,82,-26,-48,75,0,-29,78,63,43,29
-14,68,82,-26,-48,75,-4,-29,73,58,43,29
-9,63,73,-26,-41,68,-9,-29,68,53,43,29
-19,68,87,-24,-53,78,-19,-29,53,58,43,29
-19,63,82,-21,-51,73,-19,-29,53,43,43,29
-19,58,78,-19,-48,68,-24,-29,39,43,43,29
-14,53,68,-19,-41,61,-29,-29,29,34,39,29
-14,48,63,-17,-39,56,-39,-29,19,24,34,29
-14,43,58,-14,-36,51,-34,-29,0,19,34,29
-19,39,58,-9,-39,48,-34,-34,-4,14,24,29
-19,34,53,-7,-36,43,-34,-34,-4,9,24,29
-19,24,43,-2,-31,34,-29,-34,-14,4,19,19
-19,19,39,0,-29,29,-29,-29,-14,4,19,19
-19,9,29,4,-24,19,-29,-29,-14,0,19,19
-19,9,29,4,-24,19,-29,-24,-29,-4,14,19
-9,9,19,0,-14,14,-29,-14,-34,-14,19,29
-4,9,14,-2,-9,12,-29,-14,-43,-14,14,24
-9,4,14,2,-12,9,-29,-14,-48,-14,14,19
-4,0,4,2,-4,2,-29,-14,-48,-19,9,14
-4,-4,0,4,-2,-2,-29,-24,-48,-14,0,4
-4,-4,0,4,-2,-2,-29,-24,-48,-19,0,4
-4,-4,0,4,-2,-2,-29,-24,-48,-19,0,4
-4,-4,0,4,-2,-2,-29,-24,-48,-14,0,4
0,-4,-4,2,2,-4,-29,-14,-48,-24,9,4
0,-4,-4,2,2,-4,-29,-14,-48,-24,9,4
0,-4,-4,2,2,-4,-29,-14,-48,-24,9,4
0,-9,-9,4,4,-9,-29,-14,-48,-24,9,4
0,-9,-9,4,4,-9,-29,-14,-53,-19,0,4
0,-9,-9,4,4,-9,-24,-14,-53,-19,0,4
0,-9,-9,4,4,-9,-24,-14,-53,-19,0,4
0,-9,-9,4,4,-9,-24,-14,-53,-19,0,4
0,-9,-9,4,4,-9,-24,-14,-53,-19,0,4
0,-9,-9,4,4,-9,-24,-9,-53,-19,4,4
0,-9,-9,4,4,-9,-24,-9,-53,-19,4,4
0,-9,-9,4,4,-9,-24,-9,-48,-19,4,4
4,-9,-14,2,9,-12,-24,0,-48,-19,9,4
4,-9,-14,2,9,-12,-24,0,-48,-19,9,4
4,-9,-14,2,9,-12,-24,0,-48,-19,9,0
4,-9,-14,2,9,-12,-24,0,-48,-19,9,0
-4,-9,-4,7,0,-7,-24,0,-48,-9,9,9
-9,-9,0,9,-4,-4,-24,0,-43,-9,9,9
-9,-9,0,9,-4,-4,-24,0,-43,-9,9,9
-9,-9,0,9,-4,-4,-24,0,-43,-4,9,9
0,0,0,0,0,0,-24,-9,-43,-4,9,0
0,0,0,0,0,0,-24,-9,-43,-4,9,0
0,0,0,0,0,0,-24,-9,-43,-4,9,0
0,0,0,0,0,0,-24,-9,-43,0,9,0
0,4,4,-2,-2,4,-24,-9,-39,0,9,9
0,4,4,-2,-2,4,-24,-9,-34,0,9,9
0,4,4,-2,-2,4,-24,-9,-34,0,9,9
0,4,4,-2,-2,4,-24,-9,-29,0,9,9
0,-4,-4,2,2,-4,-24,0,-29,-4,14,9
0,-4,-4,2,2,-4,-24,0,-29,-4,14,9
0,-4,-4,2,2,-4,-24,0,-29,-4,14,9
0,-4,-4,2,2,-4,-19,0,-29,-4,14,9
-9,-14,-4,12,-2,-9,-19,0,-24,-4,14,9
-9,-14,-4,12,-2,-9,-19,0,-19,-4,14,9
-9,-14,-4,12,-2,-9,-19,0,-14,-4,14,9
-9,-14,-4,12,-2,-9,-19,0,-14,0,14,9
-14,-24,-9,19,-2,-17,-19,-9,-14,-9,14,9
-14,-24,-9,19,-2,-17,-14,-9,-9,-4,14,9
-14,-19,-4,17,-4,-12,-14,-9,-9,-4,14,9
-14,-19,-4,17,-4,-12,-14,-9,-9,-4,14,9
-19,-9,9,14,-14,0,-14,-9,-9,-4,4,9
-19,-9,9,14,-14,0,-14,-9,-4,-4,4,9
-19,-9,9,14,-14,0,-14,-9,0,-4,4,9
-19,-9,9,14,-14,0,-14,-9,0,-4,4,9
-19,0,19,9,-19,9,-4,-9,0,-4,14,9
-19,0,19,9,-19,9,-4,-9,4,-4,14,9
-19,4,24,7,-21,14,0,-9,4,-4,14,9
-19,4,24,7,-21,14,0,-9,4,0,14,9
-19,4,24,7,-21,14,-9,-9,4,0,14,0
-19,4,24,7,-21,14,-9,-9,9,0,14,0
-19,4,24,7,-21,14,-4,-9,14,0,14,0
-19,4,24,7,-21,14,-4,-9,14,0,14,0
-19,-4,14,12,-17,4,-4,-9,14,0,4,0
-24,-4,19,14,-21,7,0,-9,19,0,4,0
-24,-4,19,14,-21,7,4,-9,19,0,4,-4
-24,-4,19,14,-21,7,4,-9,19,0,4,-4
-34,-9,24,21,-29,7,4,-9,19,0,4,-4
-34,-9,24,21,-29,7,4,-4,19,0,4,-4
-34,-9,24,21,-29,7,4,0,19,0,4,-4
-34,-9,24,21,-29,7,4,0,24,0,4,-9
-34,-9,24,21,-29,7,4,0,24,0,4,-9
-34,-14,19,24,-26,2,4,0,24,0,0,-9
-34,-14,19,24,-26,2,4,0,24,0,0,-9
-34,-14,19,24,-26,2,4,0,19,0,0,-9
-24,-4,19,14,-21,7,9,0,19,0,0,-14
-24,-4,19,14,-21,7,9,0,19,0,-4,-14
-24,-4,19,14,-21,7,9,0,19,0,-4,-14
-24,-4,19,14,-21,7,9,0,19,0,-4,-14
-24,-9,14,17,-19,2,9,0,19,-9,-4,-14
-24,-9,14,17,-19,2,14,0,19,-9,-4,-14
-24,-9,14,17,-19,2,14,0,19,-9,-4,-19
-24,-9,14,17,-19,2,14,0,19,-14,-4,-19
-24,-9,14,17,-19,2,14,-9,19,-14,-9,-19
-24,-14,9,19,-17,-2,14,-4,19,-14,-9,-19
-29,-14,14,21,-21,0,14,-4,19,-14,-9,-24
-29,-19,9,24,-19,-4,14,-4,19,-19,-9,-24
-29,-29,0,29,-14,-14,14,-4,19,-19,-9,-24
-29,-29,0,29,-14,-14,14,-4,19,-19,-9,-24
-29,-29,0,29,-14,-14,14,-4,19,-19,-9,-24
-29,-29,0,29,-14,-14,19,-4,19,-19,-9,-24
-29,-29,0,29,-14,-14,19,4,14,-19,-14,-24
-29,-34,-4,31,-12,-19,19,4,14,-19,-14,-24
-29,-34,-4,31,-12,-19,19,4,14,-24,-14,-24
-29,-34,-4,31,-12,-19,19,4,14,-29,-14,-24
-29,-24,4,26,-17,-9,19,-4,14,-19,-14,-24
-29,-29,0,29,-14,-14,19,-4,14,-19,-14,-24
-29,-29,0,29,-14,-14,19,0,9,-19,-14,-24
-29,-29,0,29,-14,-14,19,0,9,-19,-14,-24
-29,-29,0,29,-14,-14,19,-4,-9,-19,-9,-24
-34,-29,4,31,-19,-12,19,-4,-9,-19,-9,-24
-34,-29,4,31,-19,-12,19,0,-9,-24,-9,-24
-34,-34,0,34,-17,-17,19,0,-9,-24,-9,-29
-34,-34,0,34,-17,-17,19,0,-9,-24,-9,-29
-34,-39,-4,36,-14,-21,19,0,-9,-29,-9,-29
-34,-39,-4,36,-14,-21,19,0,-9,-29,-9,-29
-34,-39,-4,36,-14,-21,19,0,-19,-29,-14,-29
-43,-39,4,41,-24,-17,19,0,-19,-39,-14,-29
-43,-39,4,41,-24,-17,19,0,-19,-39,-14,-29
-43,-43,0,43,-21,-21,19,0,-19,-43,-14,-29
-43,-43,0,43,-21,-21,19,0,-19,-43,-14,-29
-43,-53,-9,48,-17,-31,19,9,-19,-48,-24,-29
-43,-58,-14,51,-14,-36,19,9,-19,-48,-29,-29
-43,-58,-14,51,-14,-36,19,9,-19,-48,-29,-34
-43,-58,-14,51,-14,-36,19,9,-24,-48,-29,-34
-34,-48,-14,41,-9,-31,9,9,-34,-43,-29,-34
-39,-48,-9,43,-14,-29,9,9,-34,-43,-29,-34
-39,-48,-9,43,-14,-29,9,9,-34,-43,-29,-34
-39,-53,-14,46,-12,-34,9,9,-39,-48,-29,-34
-39,-53,-14,46,-12,-34,9,9,-39,-48,-29,-34
-39,-53,-14,46,-12,-34,9,9,-39,-48,-29,-34
-39,-53,-14,46,-12,-34,9,9,-39,-53,-29,-34
-39,-53,-14,46,-12,-34,9,9,-39,-53,-29,-34
-34,-48,-14,41,-9,-31,9,0,-39,-53,-34,-34
-34,-48,-14,41,-9,-31,9,0,-39,-53,-34,-34
-34,-48,-14,41,-9,-31,9,0,-39,-53,-34,-34
-34,-48,-14,41,-9,-31,9,0,-39,-53,-34,-34
-43,-58,-14,51,-14,-36,9,0,-48,-58,-34,-34
-43,-63,-19,53,-12,-41,9,0,-48,-58,-34,-34
-43,-63,-19,53,-12,-41,9,0,-48,-58,-34,-34
-43,-63,-19,53,-12,-41,9,0,-48,-58,-34,-34
-53,-63,-9,58,-21,-36,9,-4,-48,-68,-34,-34
-48,-63,-14,56,-17,-39,4,-4,-53,-68,-39,-34
-48,-63,-14,56,-17,-39,4,-4,-58,-68,-39,-39
-48,-63,-14,56,-17,-39,4,-4,-58,-68,-39,-39
-39,-63,-24,51,-7,-43,4,-4,-58,-68,-39,-39
-39,-63,-24,51,-7,-43,4,-4,-58,-68,-39,-39
-39,-68,-29,53,-4,-48,4,-4,-58,-68,-39,-39
-43,-68,-24,56,-9,-46,4,-4,-58,-68,-39,-39
-43,-68,-24,56,-9,-46,4,-4,-58,-63,-39,-43
-43,-68,-24,56,-9,-46,4,-4,-58,-63,-39,-43
-43,-68,-24,56,-9,-46,4,-4,-58,-63,-39,-43
-43,-68,-24,56,-9,-46,4,-4,-58,-63,-39,-43
-43,-58,-14,51,-14,-36,9,0,-63,-63,-39,-43
-43,-58,-14,51,-14,-36,9,0,-63,-63,-39,-43
-43,-58,-14,51,-14,-36,9,0,-63,-63,-39,-43
-43,-58,-14,51,-14,-36,9,0,-63,-63,-39,-43
-43,-58,-14,51,-14,-36,9,0,-63,-73,-39,-34
-43,-58,-14,51,-14,-36,9,0,-63,-73,-39,-34
-39,-58,-19,48,-9,-39,9,0,-68,-68,-39,-39
-39,-58,-19,48,-9,-39,9,0,-68,-78,-39,-39
-39,-58,-19,48,-9,-39,9,0,-68,-78,-39,-39
-39,-58,-19,48,-9,-39,9,0,-68,-78,-39,-39
-39,-58,-19,48,-9,-39,9,0,-68,-78,-39,-39
-39,-68,-29,53,-4,-48,9,0,-68,-78,-39,-39
-39,-68,-29,53,-4,-48,9,0,-68,-78,-39,-39
-39,-68,-29,53,-4,-48,9,0,-68,-78,-39,-39
-39,-68,-29,53,-4,-48,9,0,-68,-78,-39,-39
-39,-68,-29,53,-4,-48,0,0,-68,-78,-39,-39
-39,-68,-29,53,-4,-48,0,0,-68,-78,-39,-39
-39,-68,-29,53,-4,-48,0,0,-68,-78,-39,-39
-39,-68,-29,53,-4,-48,0,0,-68,-78,-39,-39
-39,-68,-29,53,-4,-48,9,9,-68,-78,-39,-39
-39,-68,-29,53,-4,-48,9,9,-68,-78,-39,-39
-39,-68,-29,53,-4,-48,9,9,-68,-78,-39,-39
-39,-68,-29,53,-4,-48,9,9,-68,-78,-39,-39
-48,-78,-29,63,-9,-53,9,0,-68,-78,-39,-39
-48,-78,-29,63,-9,-53,9,0,-68,-78,-39,-39
-48,-78,-29,63,-9,-53,9,0,-68,-78,-39,-39
-48,-78,-29,63,-9,-53,9,0,-68,-78,-39,-39
-48,-78,-29,63,-9,-53,9,0,-68,-78,-39,-39
-48,-78,-29,63,-9,-53,9,0,-68,-78,-39,-39
-48,-78,-29,63,-9,-53,9,0,-68,-78,-39,-39
-48,-78,-29,63,-9,-53,9,0,-68,-78,-39,-39
-48,-78,-29,63,-9,-53,9,0,-78,-78,-39,-39
-48,-78,-29,63,-9,-53,9,0,-78,-78,-39,-39
-48,-78,-29,63,-9,-53,9,0,-78,-78,-39,-39
-48,-78,-29,63,-9,-53,9,0,-78,-78,-39,-39
-48,-68,-19,58,-14,-43,9,0,-78,-87,-29,-39
-48,-68,-19,58,-14,-43,9,0,-78,-87,-29,-39
-48,-68,-19,58,-14,-43,9,0,-78,-87,-29,-39
-48,-68,-19,58,-14,-43,9,0,-78,-87,-29,-39
-39,-78,-39,58,0,-58,9,0,-68,-87,-39,-39
-39,-78,-39,58,0,-58,9,0,-68,-87,-39,-39
-39,-78,-39,58,0,-58,9,0,-68,-87,-39,-39
-39,-78,-39,58,0,-58,9,0,-68,-87,-39,-39
-48,-78,-29,63,-9,-53,0,0,-68,-87,-39,-39
-48,-78,-29,63,-9,-53,0,0,-68,-87,-39,-39
-48,-78,-29,63,-9,-53,0,0,-68,-87,-39,-39
-48,-78,-29,63,-9,-53,0,0,-68,-87,-39,-39
-48,-68,-19,58,-14,-43,-9,0,-68,-82,-29,-29
-48,-68,-19,58,-14,-43,-9,0,-68,-78,-29,-29
-48,-68,-19,58,-14,-43,-9,0,-68,-73,-29,-29
-48,-68,-19,58,-14,-43,-9,0,-68,-68,-29,-29
-39,-53,-14,46,-12,-34,-19,-9,-58,-58,-24,-19
-39,-48,-9,43,-14,-29,-19,-9,-58,-58,-19,-19
-39,-43,-4,41,-17,-24,-19,-9,-58,-58,-14,-19
-39,-39,0,39,-19,-19,-19,-9,-58,-58,-9,-19
-29,-34,-4,31,-12,-19,-19,-19,-53,-53,-4,-14
-29,-29,0,29,-14,-14,-19,-19,-48,-48,0,-9
-24,-19,4,21,-14,-7,-24,-19,-43,-39,4,-4
-24,-9,14,17,-19,2,-29,-19,-34,-34,9,0
-19,-4,14,12,-17,4,-34,-19,-29,-34,14,9
-19,0,19,9,-19,9,-39,-19,-24,-24,14,14
-14,9,24,2,-19,17,-43,-19,-19,-19,24,19
-14,14,29,0,-21,21,-48,-19,-14,-14,24,19
-4,29,34,-12,-19,31,-63,-24,0,-14,24,19
-4,43,48,-19,-26,46,-68,-24,4,-9,34,24
-4,43,48,-19,-26,46,-73,-34,9,-4,39,29
-4,53,58,-24,-31,56,-78,-34,14,0,43,29
4,63,58,-34,-26,61,-82,-39,19,4,43,43
9,73,63,-41,-26,68,-87,-43,19,9,53,48
9,78,68,-43,-29,73,-97,-48,19,14,58,53
9,87,78,-48,-34,82,-107,-53,19,19,63,58
9,92,82,-51,-36,87,-107,-58,29,19,68,63
14,97,82,-56,-34,90,-117,-63,19,19,68,68
14,102,87,-58,-36,95,-126,-68,14,19,73,68
19,107,87,-63,-34,97,-126,-73,9,19,73,68
9,117,107,-63,-48,112,-136,-73,-4,19,82,82
9,122,112,-65,-51,117,-141,-73,-9,19,82,82
14,126,112,-70,-48,119,-146,-73,-19,19,82,87
19,126,107,-73,-43,117,-151,-78,-29,19,82,87
24,136,112,-80,-43,124,-156,-87,-24,29,87,92
29,136,107,-82,-39,122,-156,-87,-24,29,87,92
29,136,107,-82,-39,122,-156,-87,-29,29,87,92
29,136,107,-82,-39,122,-156,-87,-39,19,87,92
29,126,97,-78,-34,112,-165,-73,-43,19,87,92
29,126,97,-78,-34,112,-156,-73,-48,14,82,87
34,122,87,-78,-26,104,-151,-68,-53,14,78,87
34,117,82,-75,-24,100,-146,-68,-58,14,73,78
34,102,68,-68,-17,85,-141,-63,-63,9,73,78
34,97,63,-65,-14,80,-136,-63,-63,9,73,78
24,87,63,-56,-19,75,-122,-58,-63,4,68,73
19,78,58,-48,-19,68,-112,-58,-63,0,63,68
14,68,53,-41,-19,61,-102,-53,-63,-4,58,58
9,58,48,-34,-19,53,-92,-53,-68,-9,53,53
4,48,43,-26,-19,46,-82,-53,-68,-14,48,48
-4,39,43,-17,-24,41,-73,-48,-68,-19,43,43
-14,29,43,-7,-29,36,-63,-43,-68,-24,39,39
-19,19,39,0,-29,29,-53,-43,-68,-29,34,34
-29,9,39,9,-34,24,-43,-43,-68,-34,29,29
-39,-4,34,21,-36,14,-34,-39,-68,-39,24,24
-39,-14,24,26,-31,4,-24,-39,-78,-43,9,19
-43,-24,19,34,-31,-2,-24,-29,-78,-48,4,14
-48,-34,14,41,-31,-9,-9,-29,-82,-53,0,9
-53,-43,9,48,-31,-17,-4,-24,-82,-58,-4,4
-48,-53,-4,51,-21,-29,0,-9,-82,-73,-14,-9
-48,-63,-14,56,-17,-39,4,-9,-82,-78,-19,-9
-53,-73,-19,63,-17,-46,9,-9,-87,-82,-24,-14
-53,-73,-19,63,-17,-46,9,-4,-87,-82,-29,-19
-53,-78,-24,65,-14,-51,9,-14,-87,-78,-29,-24
-53,-82,-29,68,-12,-56,19,-9,-92,-82,-34,-29
-53,-87,-34,70,-9,-61,19,-4,-92,-82,-34,-29
-53,-92,-39,73,-7,-65,19,-4,-92,-82,-34,-29
-63,-97,-34,80,-14,-65,24,-4,-92,-92,-34,-39
-68,-97,-29,82,-19,-63,24,-4,-92,-92,-34,-39
-68,-97,-29,82,-19,-63,24,0,-92,-92,-34,-39
-68,-97,-29,82,-19,-63,24,0,-92,-92,-34,-43
-68,-107,-39,87,-14,-73,24,0,-97,-92,-39,-34
-68,-107,-39,87,-14,-73,24,0,-97,-92,-39,-34
-68,-107,-39,87,-14,-73,29,0,-97,-97,-39,-34
-68,-107,-39,87,-14,-73,29,4,-97,-97,-39,-34
-68,-112,-43,90,-12,-78,29,4,-97,-97,-39,-34
-68,-112,-43,90,-12,-78,29,4,-97,-97,-39,-34
-68,-112,-43,90,-12,-78,29,4,-97,-97,-39,-34
-68,-112,-43,90,-12,-78,29,4,-97,-97,-39,-39
-58,-102,-43,80,-7,-73,29,4,-97,-97,-39,-39
-58,-102,-43,80,-7,-73,29,4,-97,-97,-39,-39
-58,-102,-43,80,-7,-73,29,9,-97,-97,-43,-39
-58,-102,-43,80,-7,-73,29,9,-97,-102,-43,-39
-58,-102,-43,80,-7,-73,34,9,-87,-92,-34,-29
-58,-102,-43,80,-7,-73,34,9,-87,-92,-34,-29
-58,-102,-43,80,-7,-73,34,9,-87,-92,-34,-29
-58,-102,-43,80,-7,-73,34,9,-87,-92,-34,-29
-58,-102,-43,80,-7,-73,34,9,-87,-102,-34,-39
-58,-102,-43,80,-7,-73,34,9,-87,-102,-34,-39
-58,-102,-43,80,-7,-73,34,9,-87,-102,-34,-43
-58,-107,-48,82,-4,-78,34,9,-87,-102,-34,-43
-58,-117,-58,87,0,-87,43,9,-92,-102,-43,-43
-58,-107,-48,82,-4,-78,34,9,-92,-92,-43,-43
-53,-97,-43,75,-4,-70,34,9,-92,-92,-34,-34
-53,-102,-48,78,-2,-75,24,9,-82,-87,-29,-34
-48,-92,-43,70,-2,-68,24,14,-63,-73,-29,-43
-39,-87,-48,63,4,-68,24,24,-43,-58,-29,-43
-39,-73,-34,56,-2,-53,34,24,-4,-39,-34,-43
-39,-73,-34,56,-2,-53,34,14,9,-34,-24,-43
-48,-63,-14,56,-17,-39,39,9,19,-24,-9,-34
-63,-43,19,53,-41,-12,39,-9,-39,-34,0,-29
-58,-39,19,48,-39,-9,29,-24,-146,-53,19,-4
-43,-19,24,31,-34,2,-24,-39,-283,-63,43,19
-9,29,39,-9,-24,34,-73,-53,-424,-53,82,48
29,87,58,-58,-14,73,-156,-68,-570,-29,131,92
63,165,102,-114,-19,134,-248,-112,-751,-19,200,156
92,273,180,-183,-43,226,-375,-161,-976,4,302,258
126,395,268,-261,-70,331,-517,-244,-1244,43,434,375
151,517,366,-334,-107,441,-649,-312,-1512,63,541,507
190,619,429,-405,-119,524,-756,-356,-1805,48,653,629
229,663,434,-446,-102,549,-863,-400,-2108,14,732,732
273,663,390,-468,-58,527,-946,-409,-2435,-53,775,790
331,663,331,-497,0,497,-1054,-395,-2747,-102,819,849
414,697,283,-556,65,490,-1185,-405,-3030,-136,888,936
497,732,234,-614,131,483,-1327,-405,-3308,-170,961,1024
570,756,185,-663,192,470,-1473,-405,-3538,-185,1019,1102
668,775,107,-722,280,441,-1586,-400,-3718,-180,1078,1161
746,780,34,-763,356,407,-1673,-380,-3835,-161,1112,1180
834,766,-68,-800,451,348,-1727,-361,-3904,-151,1132,1190
907,736,-170,-822,539,283,-1781,-326,-3908,-141,1132,1176
971,644,-326,-807,649,158,-1800,-287,-3889,-165,1058,1107
1010,409,-600,-710,805,-95,-1766,-195,-3840,-307,873,956
1049,-19,-1068,-514,1058,-544,-1639,-19,-3747,-595,488,658
1049,-683,-1732,-183,1390,-1207,-1381,248,-3591,-1078,-122,200
1005,-1439,-2444,217,1725,-1942,-1063,517,-3372,-1654,-795,-278
912,-1961,-2874,524,1893,-2418,-780,668,-3157,-2069,-1244,-580
819,-2142,-2962,661,1891,-2552,-619,702,-2976,-2225,-1405,-692
746,-2137,-2884,695,1815,-2510,-517,673,-2776,-2220,-1415,-707
683,-2044,-2727,680,1705,-2386,-453,614,-2571,-2147,-1376,-688
614,-1922,-2537,653,1576,-2230,-409,551,-2347,-2025,-1307,-658
566,-1761,-2327,597,1446,-2044,-385,478,-2122,-1864,-1200,-600
507,-1586,-2093,539,1300,-1839,-375,405,-1883,-1678,-1078,-522
453,-1410,-1864,478,1159,-1637,-361,326,-1673,-1493,-941,-448
400,-1244,-1644,422,1022,-1444,-331,263,-1473,-1327,-824,-375
356,-1098,-1454,370,905,-1276,-302,219,-1263,-1171,-722,-326
322,-966,-1288,322,805,-1127,-278,180,-1137,-1049,-644,-283
307,-854,-1161,273,734,-1007,-253,156,-1000,-932,-566,-239
268,-697,-966,214,617,-832,-229,112,-854,-780,-478,-175
214,-531,-746,158,480,-639,-180,78,-697,-619,-366,-107
141,-434,-575,146,358,-505,-131,53,-522,-502,-292,-78
92,-375,-468,141,280,-422,-78,48,-400,-424,-258,-73
43,-336,-380,146,212,-358,-34,39,-292,-351,-214,-63
14,-297,-312,141,163,-305,19,34,-175,-287,-180,-63
-19,-263,-244,141,112,-253,43,43,-107,-234,-151,-73
-19,-229,-209,124,95,-219,73,43,-48,-185,-136,-82
-29,-195,-165,112,68,-180,92,43,0,-141,-131,-92
-39,-156,-117,97,39,-136,107,43,24,-107,-112,-92
-34,-131,-97,82,31,-114,117,39,63,-68,-97,-92
-39,-112,-73,75,17,-92,131,43,112,-48,-82,-82
-39,-102,-63,70,12,-82,131,53,141,-29,-63,-68
-48,-102,-53,75,2,-78,141,53,170,-24,-53,-63
-48,-92,-43,70,-2,-68,146,53,190,-19,-58,-58
-58,-92,-34,75,-12,-63,151,48,180,-9,-48,-58
-63,-87,-24,75,-19,-56,151,48,180,0,-48,-63
-63,-78,-14,70,-24,-46,151,39,175,9,-48,-63
-63,-73,-9,68,-26,-41,151,39,175,9,-48,-63
-63,-82,-19,73,-21,-51,151,29,200,4,-58,-73
-73,-82,-9,78,-31,-46,151,29,209,9,-48,-73
-78,-82,-4,80,-36,-43,151,29,229,9,-43,-63
-78,-78,0,78,-39,-39,151,34,248,9,-39,-63
-63,-73,-9,68,-26,-41,151,43,234,19,-39,-63
-63,-68,-4,65,-29,-36,151,39,234,24,-39,-63
-63,-58,4,61,-34,-26,156,39,234,29,-39,-73
-63,-53,9,58,-36,-21,156,39,219,34,-39,-73
-63,-43,19,53,-41,-12,156,29,239,43,-39,-73
-63,-43,19,53,-41,-12,156,29,248,43,-39,-73
-68,-43,24,56,-46,-9,156,29,258,43,-29,-68
-68,-43,24,56,-46,-9,156,29,278,43,-29,-68
-58,-43,14,51,-36,-14,156,39,278,43,-29,-68
-53,-34,19,43,-36,-7,156,39,273,43,-29,-68
-53,-29,24,41,-39,-2,156,39,263,53,-29,-73
-53,-29,24,41,-39,-2,156,34,253,58,-29,-73
-53,-19,34,36,-43,7,156,34,253,63,-29,-63
-53,-19,34,36,-43,7,156,39,278,63,-29,-63
-53,-19,34,36,-43,7,156,39,287,63,-29,-63
-53,-14,39,34,-46,12,156,43,307,63,-19,-53
-53,-14,39,34,-46,12,156,43,326,63,-14,-53
-53,-4,48,29,-51,21,156,43,312,63,-14,-53
-53,0,53,26,-53,26,156,34,312,73,-19,-53
-53,9,63,21,-58,36,156,34,302,78,-29,-53
-48,0,48,24,-48,24,156,34,283,78,-29,-63
-48,0,48,24,-48,24,156,34,312,78,-24,-63
-53,0,53,26,-53,26,156,34,317,78,-24,-63
-53,0,53,26,-53,26,156,34,331,82,-14,-53
-53,0,53,26,-53,26,156,34,366,82,-4,-53
-53,0,53,26,-53,26,156,34,351,82,-4,-53
-53,9,63,21,-58,36,156,34,351,92,-4,-53
-48,14,63,17,-56,39,156,34,346,97,-9,-58
-48,19,68,14,-58,43,156,34,322,102,-9,-58
-53,19,73,17,-63,46,156,34,341,107,-9,-63
-53,19,73,17,-63,46,156,34,356,107,-9,-63
-53,19,73,17,-63,46,156,34,366,107,-9,-53
-48,19,68,14,-58,43,156,34,390,97,0,-43
-48,24,73,12,-61,48,156,34,390,97,0,-43
-48,24,73,12,-61,48,156,34,390,107,0,-43
-48,34,82,7,-65,58,156,34,385,107,-4,-53
-48,39,87,4,-68,63,156,34,366,122,-4,-63
-43,39,82,2,-63,61,156,34,375,126,-4,-63
-43,39,82,2,-63,61,156,34,390,131,-4,-63
-48,39,87,4,-68,63,161,34,405,131,0,-63
-48,39,87,4,-68,63,161,34,434,131,9,-48
-48,39,87,4,-68,63,161,34,448,131,9,-48
-48,39,87,4,-68,63,161,39,439,141,9,-48
-48,48,97,0,-73,73,161,39,439,146,9,-48
-43,63,107,-9,-75,85,161,39,434,151,4,-58
-43,63,107,-9,-75,85,161,39,434,156,4,-63
-43,63,107,-9,-75,85,161,39,448,156,4,-63
-43,63,107,-9,-75,85,161,39,463,161,4,-58
-43,68,112,-12,-78,90,161,39,478,161,19,-53
-43,68,112,-12,-78,90,165,39,488,161,19,-53
-43,78,122,-17,-82,100,165,39,488,161,24,-48
-43,82,126,-19,-85,104,165,39,488,170,24,-48
-53,87,141,-17,-97,114,165,39,488,175,14,-68
-53,87,141,-17,-97,114,165,29,488,185,14,-68
-53,87,141,-17,-97,114,165,39,497,190,9,-68
-58,87,146,-14,-102,117,165,39,512,195,9,-68
-58,87,146,-14,-102,117,165,39,527,200,19,-63
-58,92,151,-17,-104,122,170,39,556,204,24,-58
-58,102,161,-21,-109,131,170,39,556,209,24,-58
-58,107,165,-24,-112,136,170,39,556,214,24,-63
-58,112,170,-26,-114,141,175,29,556,219,14,-68
-58,117,175,-29,-117,146,175,24,556,224,14,-68
-58,122,180,-31,-119,151,175,24,566,229,14,-68
-58,126,185,-34,-122,156,175,24,590,234,14,-68
-58,117,175,-29,-117,146,175,24,605,239,24,-68
-58,122,180,-31,-119,151,175,24,634,244,24,-63
-58,126,185,-34,-122,156,175,24,653,248,29,-63
-58,131,190,-36,-124,161,180,24,653,253,29,-63
-58,136,195,-39,-126,165,180,34,644,253,29,-78
-58,141,200,-41,-129,170,185,29,649,258,29,-78
-58,156,214,-48,-136,185,185,29,649,268,29,-78
-63,156,219,-46,-141,187,185,29,678,273,29,-82
-58,151,209,-46,-134,180,185,29,692,278,29,-82
-58,151,209,-46,-134,180,190,29,717,283,39,-73
-58,156,214,-48,-136,185,190,29,736,287,43,-73
-58,161,219,-51,-139,190,200,29,736,297,43,-73
-58,170,229,-56,-143,200,204,29,746,302,43,-73
-58,180,239,-61,-148,209,204,24,751,312,43,-78
-58,185,244,-63,-151,214,204,24,751,322,43,-78
-58,190,248,-65,-153,219,204,24,771,326,43,-78
-68,195,263,-63,-165,229,209,24,790,331,48,-78
-73,200,273,-63,-173,236,209,24,810,336,53,-73
-73,204,278,-65,-175,241,214,24,839,341,58,-73
-73,209,283,-68,-178,246,214,19,849,346,58,-73
-73,224,297,-75,-185,261,219,19,854,351,58,-73
-73,229,302,-78,-187,265,219,19,858,361,58,-73
-73,234,307,-80,-190,270,224,14,858,370,58,-73
-82,239,322,-78,-202,280,234,14,868,375,58,-78
-87,229,317,-70,-202,273,234,14,902,370,58,-78
-92,229,322,-68,-207,275,239,14,912,380,58,-78
-92,234,326,-70,-209,280,239,14,941,385,63,-73
-92,234,326,-70,-209,280,244,14,951,385,63,-73
-82,253,336,-85,-209,295,248,14,961,400,63,-73
-92,253,346,-80,-219,300,253,14,971,409,63,-78
-92,253,346,-80,-219,300,258,14,976,414,53,-82
-97,253,351,-78,-224,302,258,9,976,414,53,-87
-97,253,351,-78,-224,302,258,9,990,414,53,-87
-102,258,361,-78,-231,309,268,9,1005,419,53,-87
-107,258,366,-75,-236,312,268,9,1024,424,58,-82
-112,258,370,-73,-241,314,273,9,1039,424,58,-82
-112,248,361,-68,-236,305,273,9,1049,414,43,-82
-117,253,370,-68,-244,312,278,9,1049,419,43,-82
-117,253,370,-68,-244,312,283,4,1049,419,39,-92
-122,248,370,-63,-246,309,283,4,1039,419,34,-92
-136,239,375,-51,-256,307,287,4,1044,419,29,-97
-141,229,370,-43,-256,300,292,4,1049,419,29,-97
-141,229,370,-43,-256,300,292,4,1058,419,29,-92
-141,224,366,-41,-253,295,297,4,1073,409,29,-92
-151,214,366,-31,-258,290,307,14,1063,395,19,-102
-151,214,366,-31,-258,290,307,14,1054,390,19,-102
-151,214,366,-31,-258,290,307,14,1039,385,9,-107
-151,209,361,-29,-256,285,312,14,1019,380,4,-112
