I, II, III, aVR, aVL, aVF, V1, V2, V3, V4, V5, V6
-97,-165,-68,131,-14,-117,68,19,-39,-107,-126,-97
-53,-151,-97,102,21,-124,68,9,-43,-112,-131,-102
-9,-136,-126,73,58,-131,68,0,-48,-117,-136,-107
-24,-165,-141,95,58,-153,53,-4,-53,-122,-146,-117
-39,-195,-156,117,58,-175,39,-9,-58,-126,-156,-126
-48,-195,-146,122,48,-170,39,-9,-58,-126,-156,-126
-58,-195,-136,126,39,-165,39,-9,-58,-126,-156,-126
-58,-175,-117,117,29,-146,53,9,-43,-107,-136,-107
-58,-156,-97,107,19,-126,68,29,-29,-87,-117,-87
-58,-156,-97,107,19,-126,68,29,-29,-87,-112,-82
-58,-156,-97,107,19,-126,68,29,-29,-87,-107,-78
-14,-126,-112,70,48,-119,68,34,-19,-82,-107,-78
29,-97,-126,34,78,-112,68,39,-9,-78,-107,-78
14,-107,-122,46,68,-114,68,39,-9,-78,-107,-82
0,-117,-117,58,58,-117,68,39,-9,-78,-107,-87
-34,-141,-107,87,36,-124,68,43,0,-68,-107,-87
-68,-165,-97,117,14,-131,68,48,9,-58,-107,-87
-68,-151,-82,109,7,-117,73,53,24,-53,-97,-78
-68,-136,-68,102,0,-102,78,58,39,-48,-87,-68
-39,-126,-87,82,24,-107,78,68,43,-39,-82,-68
-9,-117,-107,63,48,-112,78,78,48,-29,-78,-68
-9,-117,-107,63,48,-112,73,82,63,-24,-78,-68
-9,-117,-107,63,48,-112,68,87,78,-19,-78,-68
-14,-117,-102,65,43,-109,68,87,78,-19,-68,-58
-19,-117,-97,68,39,-107,68,87,78,-19,-58,-48
-48,-107,-58,78,4,-82,73,102,102,4,-43,-39
-78,-97,-19,87,-29,-58,78,117,126,29,-29,-29
-63,-78,-14,70,-24,-46,87,151,161,63,0,-4
-48,-58,-9,53,-19,-34,97,185,195,97,29,19
-4,-58,-53,31,24,-56,78,165,195,97,29,19
39,-58,-97,9,68,-78,58,146,195,97,29,19
73,-34,-107,-19,90,-70,53,161,214,117,43,24
107,-9,-117,-48,112,-63,48,175,234,136,58,29
107,4,-102,-56,104,-48,48,200,268,170,78,53
107,19,-87,-63,97,-34,48,224,302,204,97,78
102,24,-78,-63,90,-26,48,229,331,224,117,87
97,29,-68,-63,82,-19,48,234,361,244,136,97
97,29,-68,-63,82,-19,43,239,370,258,156,122
97,29,-68,-63,82,-19,39,244,380,273,175,146
97,29,-68,-63,82,-19,34,263,409,312,209,170
97,29,-68,-63,82,-19,29,283,439,351,244,195
112,73,-39,-92,75,17,29,292,473,380,258,209
126,117,-9,-122,68,53,29,302,507,409,273,224
92,102,9,-97,41,56,29,302,512,414,283,239
58,87,29,-73,14,58,29,302,517,419,292,253
82,122,39,-102,21,80,43,302,531,434,302,253
107,156,48,-131,29,102,58,302,546,448,312,253
126,141,14,-134,56,78,24,268,502,409,283,229
146,126,-19,-136,82,53,-9,234,458,370,253,204
146,117,-29,-131,87,43,-19,204,419,341,229,185
146,107,-39,-126,92,34,-29,175,380,312,204,165
117,97,-19,-107,68,39,-19,151,351,287,180,151
87,87,0,-87,43,43,-9,126,322,263,156,136
87,87,0,-87,43,43,-9,107,278,224,131,112
87,87,0,-87,43,43,-9,87,234,185,107,87
82,78,-4,-80,43,36,4,68,200,151,92,82
78,68,-9,-73,43,29,19,48,165,117,78,78
29,53,24,-41,2,39,19,43,136,102,58,63
-19,39,58,-9,-39,48,19,39,107,87,39,48
-24,39,63,-7,-43,51,19,14,82,63,14,19
-29,39,68,-4,-48,53,19,-9,58,39,-9,-9
-78,29,107,24,-92,68,43,14,48,34,4,19
-126,19,146,53,-136,82,68,39,39,29,19,48
-107,0,107,53,-107,53,58,19,19,14,0,19
-87,-19,68,53,-78,24,48,0,0,0,-19,-9
-87,-48,39,68,-63,-4,24,-19,-19,-34,-58,-39
-87,-78,9,82,-48,-34,0,-39,-39,-68,-97,-68
-87,-78,9,82,-48,-34,0,-48,-48,-73,-97,-68
-87,-78,9,82,-48,-34,0,-58,-58,-78,-97,-68
-92,-78,14,85,-53,-31,9,-43,-58,-78,-92,-68
-97,-78,19,87,-58,-29,19,-29,-58,-78,-87,-68
-97,-78,19,87,-58,-29,29,-29,-58,-78,-87,-68
-97,-78,19,87,-58,-29,39,-29,-58,-78,-87,-68
-29,-68,-39,48,4,-53,19,-43,-68,-78,-97,-78
39,-58,-97,9,68,-78,0,-58,-78,-78,-107,-87
24,-39,-63,7,43,-51,14,-39,-58,-68,-92,-68
9,-19,-29,4,19,-24,29,-19,-39,-58,-78,-48
-58,-34,24,46,-41,-4,48,0,-24,-43,-63,-39
-126,-48,78,87,-102,14,68,19,-9,-29,-48,-29
-102,-29,73,65,-87,21,68,19,-9,-29,-48,-29
-78,-9,68,43,-73,29,68,19,-9,-29,-48,-29
-53,-29,24,41,-39,-2,58,4,-24,-39,-53,-39
-29,-48,-19,39,-4,-34,48,-9,-39,-48,-58,-48
-63,-97,-34,80,-14,-65,24,-19,-48,-63,-82,-68
-97,-146,-48,122,-24,-97,0,-29,-58,-78,-107,-87
-73,-117,-43,95,-14,-80,0,-39,-58,-78,-107,-87
-48,-87,-39,68,-4,-63,0,-48,-58,-78,-107,-87
-48,-34,14,41,-31,-9,39,-9,-24,-43,-68,-48
-48,19,68,14,-58,43,78,29,9,-9,-29,-9
-68,-24,43,46,-56,9,58,4,-9,-24,-48,-34
-87,-68,19,78,-53,-24,39,-19,-29,-39,-68,-58
-68,-78,-9,73,-29,-43,29,-29,-39,-48,-73,-58
-48,-87,-39,68,-4,-63,19,-39,-48,-58,-78,-58
-48,-78,-29,63,-9,-53,19,-39,-48,-58,-78,-63
-48,-68,-19,58,-14,-43,19,-39,-48,-58,-78,-68
-19,-58,-39,39,9,-48,24,-34,-48,-58,-73,-68
9,-48,-58,19,34,-53,29,-29,-48,-58,-68,-68
9,-9,-19,0,14,-14,48,-9,-24,-24,-48,-43
9,29,19,-19,-4,24,68,9,0,9,-29,-19
-48,14,63,17,-56,39,68,9,0,9,-29,-19
-107,0,107,53,-107,53,68,9,0,9,-29,-19
-107,-9,97,58,-102,43,58,9,0,0,-29,-29
-107,-19,87,63,-97,34,48,9,0,-9,-29,-39
-97,29,126,34,-112,78,68,14,9,4,-24,-19
-87,48,136,19,-112,92,68,14,14,14,-14,-4
-82,68,151,7,-117,109,68,19,24,29,-4,4
-82,68,151,7,-117,109,48,14,24,43,9,9
-63,58,122,2,-92,90,34,-9,9,29,4,9
-39,53,92,-7,-65,73,19,-29,-4,9,-4,4
24,87,63,-56,-19,75,0,-39,-19,4,-9,0
78,117,39,-97,19,78,-19,-43,-34,-4,-14,-4
48,102,53,-75,-2,78,-24,-53,-43,-9,-14,-4
24,97,73,-61,-24,85,-24,-68,-48,-9,-19,0
14,92,78,-53,-31,85,-39,-73,-53,-24,-39,-24
9,97,87,-53,-39,92,-58,-73,-58,-34,-48,-43
-14,87,102,-36,-58,95,-43,-68,-53,-29,-34,-19
-34,78,112,-21,-73,95,-29,-63,-48,-29,-34,-9
-63,48,112,7,-87,80,-29,-58,-63,-39,-34,-9
-97,34,131,31,-114,82,-24,-53,-78,-48,-39,-14
-102,-9,92,56,-97,41,-19,-53,-78,-58,-53,-34
-97,-63,34,80,-65,-14,-4,-58,-92,-78,-68,-58
-117,-82,34,100,-75,-24,4,-39,-92,-78,-82,-68
-126,-102,24,114,-75,-39,24,-14,-78,-58,-97,-78
-68,-58,9,63,-39,-24,29,-9,-68,-63,-82,-58
-4,-4,0,4,-2,-2,29,0,-53,-63,-68,-34
-48,-34,14,41,-31,-9,34,4,-63,-73,-87,-58
-97,-73,24,85,-61,-24,39,9,-73,-78,-102,-78
-63,-68,-4,65,-29,-36,39,9,-73,-82,-92,-68
-29,-58,-29,43,0,-43,43,4,-73,-82,-82,-58
-34,-58,-24,46,-4,-41,43,4,-73,-78,-82,-63
-34,-68,-34,51,0,-51,43,4,-78,-73,-82,-63
-39,-73,-34,56,-2,-53,43,9,-78,-73,-82,-68
-39,-73,-34,56,-2,-53,43,9,-78,-78,-82,-68
-53,-97,-43,75,-4,-70,43,4,-87,-87,-87,-68
-68,-117,-48,92,-9,-82,39,-4,-97,-97,-92,-73
-87,-131,-43,109,-21,-87,39,-9,-97,-97,-107,-82
-112,-151,-39,131,-36,-95,39,-9,-97,-97,-117,-92
-122,-151,-29,136,-46,-90,43,0,-92,-97,-107,-87
-131,-156,-24,143,-53,-90,43,4,-92,-97,-97,-78
-102,-126,-24,114,-39,-75,43,9,-92,-97,-97,-68
-73,-97,-24,85,-24,-61,48,9,-92,-97,-97,-58
-43,-126,-82,85,19,-104,39,0,-112,-126,-136,-112
-29,-175,-146,102,58,-161,39,-4,-136,-175,-180,-175
-53,-175,-122,114,34,-148,97,19,-146,-204,-224,-200
-82,-185,-102,134,9,-143,156,53,-165,-253,-287,-244
-151,-200,-48,175,-51,-124,214,78,-165,-307,-341,-287
-229,-180,48,204,-139,-65,268,112,-156,-331,-361,-302
-219,-117,102,168,-161,-7,312,161,-87,-278,-302,-268
-131,-14,117,73,-124,51,322,292,102,-78,-131,-151
19,102,82,-61,-31,92,258,405,322,214,107,43
161,336,175,-248,-7,256,126,346,512,556,448,326
273,561,287,-417,-7,424,-107,151,605,912,863,649
366,800,434,-583,-34,617,-395,-126,600,1254,1273,976
458,800,341,-629,58,570,-541,-302,688,1654,1600,1239
488,453,-34,-470,261,209,-512,-244,936,2005,1703,1278
370,395,24,-383,173,209,-473,-370,741,1693,1424,1034
112,326,214,-219,-51,270,-370,-566,107,839,697,546
-97,107,204,-4,-151,156,-326,-771,-551,-48,-4,53
-234,-63,170,148,-202,53,-253,-824,-1073,-805,-546,-273
-244,-112,131,178,-187,9,-200,-683,-1019,-814,-517,-287
-224,-185,39,204,-131,-73,-165,-531,-771,-624,-439,-283
-185,-195,-9,190,-87,-102,-136,-439,-658,-556,-414,-278
-126,-161,-34,143,-46,-97,-126,-361,-536,-458,-356,-234
-107,-126,-19,117,-43,-73,-97,-268,-405,-346,-283,-185
-78,-102,-24,90,-26,-63,-63,-136,-253,-244,-219,-151
-82,-112,-29,97,-26,-70,-14,-34,-165,-165,-170,-126
-102,-131,-29,117,-36,-80,19,-14,-126,-136,-141,-107
-117,-151,-34,134,-41,-92,39,9,-97,-112,-122,-82
-122,-180,-58,151,-31,-119,43,19,-87,-107,-122,-73
-73,-161,-87,117,7,-124,53,39,-73,-107,-136,-87
-19,-136,-117,78,48,-126,53,39,-73,-112,-146,-102
-14,-136,-122,75,53,-129,43,39,-73,-112,-131,-102
-9,-141,-131,75,61,-136,39,48,-63,-107,-117,-97
-34,-141,-107,87,36,-124,63,58,-53,-92,-112,-82
-63,-141,-78,102,7,-109,82,68,-48,-78,-112,-68
-68,-151,-82,109,7,-117,73,63,-53,-87,-112,-82
-68,-161,-92,114,12,-126,58,58,-53,-97,-117,-97
-112,-190,-78,151,-17,-134,58,63,-53,-97,-126,-97
-156,-214,-58,185,-48,-136,58,68,-53,-97,-131,-97
-131,-190,-58,161,-36,-124,63,78,-48,-97,-131,-97
-112,-165,-53,139,-29,-109,63,82,-39,-97,-131,-97
-97,-161,-63,129,-17,-112,68,82,-24,-82,-112,-87
-78,-156,-78,117,0,-117,68,82,-14,-73,-97,-78
-48,-156,-107,102,29,-131,73,87,-19,-78,-117,-87
-19,-151,-131,85,56,-141,73,82,-34,-87,-131,-92
0,-136,-136,68,68,-136,68,82,-29,-82,-122,-92
19,-122,-141,51,80,-131,63,82,-24,-78,-112,-92
9,-131,-141,61,75,-136,53,87,-19,-78,-112,-92
0,-136,-136,68,68,-136,43,92,-14,-78,-112,-92
0,-136,-136,68,68,-136,53,92,-4,-73,-102,-87
4,-126,-131,61,68,-129,63,102,4,-63,-97,-78
-24,-131,-107,78,41,-119,68,117,19,-53,-82,-63
-58,-131,-73,95,7,-102,73,126,34,-39,-68,-53
-78,-131,-53,104,-12,-92,87,131,48,-24,-68,-48
-97,-131,-34,114,-31,-82,107,136,63,-19,-63,-39
-53,-97,-43,75,-4,-70,97,146,73,-4,-53,-34
-4,-63,-58,34,26,-61,82,151,78,0,-48,-34
-78,-112,-34,95,-21,-73,63,136,78,-9,-58,-48
-146,-175,-29,161,-58,-102,43,122,73,-9,-68,-63
-58,-117,-58,87,0,-87,53,146,92,14,-48,-48
19,-68,-87,24,53,-78,58,161,117,39,-29,-34
34,-39,-73,2,53,-56,78,185,156,82,9,4
34,-14,-48,-9,41,-31,97,214,195,131,53,43
48,-4,-53,-21,51,-29,78,214,209,141,53,39
58,-9,-68,-24,63,-39,58,204,219,146,53,34
29,-9,-39,-9,34,-24,53,224,239,165,63,48
-4,-14,-9,9,2,-12,53,229,258,180,82,58
29,-9,-39,-9,34,-24,43,244,278,209,102,78
63,0,-63,-31,63,-31,34,248,297,224,117,97
68,14,-53,-41,61,-19,29,263,317,248,136,117
87,24,-63,-56,75,-19,19,273,336,263,151,131
92,39,-53,-65,73,-7,24,287,375,297,185,156
107,58,-48,-82,78,4,29,292,409,336,224,185
112,82,-29,-97,70,26,39,307,429,346,219,190
126,112,-14,-119,70,48,48,331,444,370,229,200
136,117,-19,-126,78,48,34,326,453,375,248,209
141,117,-24,-129,82,46,4,312,463,385,253,219
156,117,-39,-136,97,39,9,312,478,395,258,229
170,131,-39,-151,104,46,14,312,492,405,273,234
165,156,-9,-161,87,73,24,322,497,424,278,244
156,170,14,-163,70,92,34,322,502,429,283,239
156,185,29,-170,63,107,34,312,478,405,278,239
156,200,43,-178,56,122,34,292,444,375,263,239
126,175,48,-151,39,112,19,268,409,351,253,224
87,141,53,-114,17,97,9,239,385,326,224,200
73,126,53,-100,9,90,4,204,336,292,200,180
53,112,58,-82,-2,85,0,170,287,244,161,165
34,92,58,-63,-12,75,-4,141,244,200,131,117
14,73,58,-43,-21,65,-4,107,204,156,107,78
-29,53,82,-12,-56,68,-4,92,165,126,82,82
-63,34,97,14,-80,65,0,78,136,107,63,78
-19,43,63,-12,-41,53,4,58,97,82,39,48
29,58,29,-43,0,43,4,39,68,48,14,29
29,73,43,-51,-7,58,19,34,43,29,-4,9
39,78,39,-58,0,58,43,39,34,19,-19,-4
24,48,24,-36,0,36,29,9,-9,-14,-48,-34
24,19,-4,-21,14,7,14,-19,-43,-43,-73,-58
14,14,0,-14,7,7,14,-24,-43,-48,-68,-48
4,0,-4,-2,4,-2,14,-29,-63,-58,-73,-48
-53,-19,34,36,-43,7,29,-19,-53,-53,-68,-48
-102,-24,78,63,-90,26,34,-14,-48,-58,-73,-53
-92,-19,73,56,-82,26,34,-9,-48,-53,-78,-43
-87,-14,73,51,-80,29,34,-4,-58,-43,-78,-39
-58,-4,53,31,-56,24,24,-9,-58,-63,-82,-53
-34,4,39,14,-36,21,19,-9,-58,-82,-87,-68
-43,-39,4,41,-24,-17,-4,-34,-78,-87,-102,-68
-53,-82,-29,68,-12,-56,-29,-58,-102,-97,-112,-68
-73,-63,9,68,-41,-26,9,-29,-78,-78,-92,-53
-92,-43,48,68,-70,2,53,4,-48,-53,-73,-39
-78,-29,48,53,-63,9,34,-4,-58,-68,-87,-53
-63,-19,43,41,-53,12,19,-14,-68,-82,-97,-63
-29,-19,9,24,-19,-4,19,-14,-68,-82,-97,-68
4,-14,-19,4,12,-17,14,-9,-68,-87,-97,-73
-48,-19,29,34,-39,4,14,-9,-63,-82,-92,-68
-102,-34,68,68,-85,17,19,-9,-58,-78,-87,-63
-122,-34,87,78,-104,26,43,9,-39,-53,-73,-39
-141,-34,107,87,-124,36,78,34,-19,-29,-53,-19
-87,-19,68,53,-78,24,58,19,-29,-48,-68,-34
-34,-4,29,19,-31,12,34,0,-43,-68,-82,-53
-9,9,19,0,-14,14,24,-9,-58,-82,-87,-68
9,4,-4,-7,7,0,19,-19,-73,-97,-92,-78
9,4,-4,-7,7,0,19,-19,-73,-82,-92,-78
9,4,-4,-7,7,0,19,-14,-73,-63,-92,-78
-29,-24,4,26,-17,-9,9,-29,-73,-82,-102,-87
-68,-53,14,61,-41,-19,0,-39,-78,-107,-112,-97
-68,-53,14,61,-41,-19,0,-39,-78,-97,-112,-87
-63,-48,14,56,-39,-17,4,-34,-73,-78,-107,-78
-34,0,34,17,-34,17,19,-19,-48,-58,-82,-58
-9,48,58,-19,-34,53,39,-4,-29,-43,-63,-43
-43,43,87,0,-65,65,43,0,-19,-29,-48,-29
-78,39,117,19,-97,78,48,9,-9,-19,-39,-19
-97,29,126,34,-112,78,48,9,-19,-29,-48,-29
-117,19,136,48,-126,78,48,9,-29,-39,-58,-39
-117,34,151,41,-134,92,43,0,-34,-43,-58,-39
-92,43,136,24,-114,90,34,-4,-34,-43,-48,-34
-68,53,122,7,-95,87,29,-14,-34,-48,-43,-34
-24,68,92,-21,-58,80,19,-24,-34,-43,-29,-29
0,92,92,-46,-46,92,4,-34,-34,-43,-43,-34
29,122,92,-75,-31,107,-9,-39,-34,-48,-63,-43
39,126,87,-82,-24,107,-19,-48,-43,-53,-63,-43
39,126,87,-82,-24,107,-29,-53,-53,-63,-63,-43
19,131,112,-75,-46,122,-34,-48,-63,-63,-53,-34
4,146,141,-75,-68,143,-34,-48,-68,-58,-48,-19
19,156,136,-87,-58,146,-34,-63,-68,-58,-48,-19
39,175,136,-107,-48,156,-39,-73,-68,-53,-39,-14
9,161,151,-85,-70,156,-39,-73,-73,-58,-39,-14
-14,146,161,-65,-87,153,-39,-73,-78,-68,-53,-29
-14,126,141,-56,-78,134,-39,-68,-78,-73,-53,-29
-19,122,141,-51,-80,131,-34,-63,-78,-78,-58,-34
-53,87,141,-17,-97,114,-19,-58,-78,-87,-73,-39
-78,43,122,17,-100,82,4,-58,-92,-107,-87,-48
-131,-19,112,75,-122,46,-9,-63,-112,-136,-107,-68
-175,-82,92,129,-134,4,-14,-63,-117,-146,-126,-87
-102,-58,43,80,-73,-7,0,-58,-117,-131,-112,-82
-24,-24,0,24,-12,-12,9,-48,-112,-112,-97,-73
34,9,-24,-21,29,-7,14,-43,-112,-117,-102,-78
87,34,-53,-61,70,-9,19,-39,-112,-117,-102,-78
4,0,-4,-2,4,-2,19,-34,-107,-122,-102,-78
-78,-29,48,53,-63,9,24,-34,-102,-122,-102,-78
-122,-48,73,85,-97,12,24,-34,-102,-122,-112,-92
-161,-78,82,119,-122,2,24,-34,-107,-122,-122,-102
-92,-63,29,78,-61,-17,24,-29,-112,-122,-122,-102
-19,-43,-24,31,2,-34,24,-29,-117,-126,-122,-97
-9,-48,-39,29,14,-43,19,-34,-126,-146,-136,-112
0,-48,-48,24,24,-48,9,-43,-136,-165,-151,-131
-43,-82,-39,63,-2,-61,9,-48,-136,-165,-156,-131
-92,-122,-29,107,-31,-75,9,-48,-136,-165,-156,-131
-78,-97,-19,87,-29,-58,19,-39,-126,-156,-146,-122
-63,-78,-14,70,-24,-46,24,-34,-122,-146,-136,-107
-63,-63,0,63,-31,-31,34,-29,-117,-141,-131,-102
-63,-48,14,56,-39,-17,48,-29,-112,-136,-126,-97
-63,-53,9,58,-36,-21,39,-39,-112,-141,-136,-107
-78,-78,0,78,-39,-39,39,-43,-117,-165,-151,-126
-102,-117,-14,109,-43,-65,68,-24,-131,-195,-185,-156
-131,-165,-34,148,-48,-100,97,4,-156,-244,-239,-204
-156,-209,-53,183,-51,-131,156,9,-190,-341,-351,-302
-190,-219,-29,204,-80,-124,209,24,-214,-409,-429,-370
-204,-156,48,180,-126,-53,268,34,-234,-453,-463,-400
-141,-53,87,97,-114,17,292,126,-131,-351,-385,-346
-29,0,29,14,-29,14,307,366,165,-63,-156,-170
73,170,97,-122,-12,134,253,434,434,273,175,92
234,517,283,-375,-24,400,14,204,502,595,575,424
375,878,502,-627,-63,690,-278,-107,473,902,971,761
497,936,439,-717,29,688,-507,-312,624,1468,1478,1151
556,649,92,-602,231,370,-561,-283,936,1986,1761,1317
473,527,53,-500,209,290,-541,-375,961,1981,1673,1176
248,395,146,-322,51,270,-458,-536,546,1434,1137,790
-29,200,229,-85,-129,214,-385,-814,-331,278,248,190
-234,53,287,90,-261,170,-283,-941,-1073,-746,-478,-244
-224,19,244,102,-234,131,-209,-785,-1063,-829,-497,-273
-185,-39,146,112,-165,53,-156,-619,-858,-712,-468,-283
-195,-112,82,153,-139,-14,-141,-536,-756,-653,-463,-312
-185,-141,43,163,-114,-48,-146,-468,-644,-566,-424,-302
-185,-131,53,158,-119,-39,-131,-385,-512,-453,-351,-244
-175,-131,43,153,-109,-43,-112,-263,-361,-351,-287,-200
-126,-97,29,112,-78,-34,-48,-131,-239,-253,-224,-161
-92,-73,19,82,-56,-26,0,-82,-165,-204,-180,-126
-92,-82,9,87,-51,-36,19,-58,-136,-180,-161,-122
-82,-102,-19,92,-31,-61,24,-48,-126,-175,-161,-131
-29,-92,-63,61,17,-78,29,-29,-117,-180,-175,-136
29,-78,-107,24,68,-92,24,-29,-122,-190,-185,-141
19,-78,-97,29,58,-87,24,-29,-122,-180,-175,-141
9,-82,-92,36,51,-87,29,-19,-112,-165,-165,-136
4,-82,-87,39,46,-85,48,0,-87,-146,-151,-122
-4,-82,-78,43,36,-80,63,19,-68,-126,-141,-107
-29,-102,-73,65,21,-87,53,9,-78,-141,-146,-122
-48,-122,-73,85,12,-97,39,0,-82,-156,-156,-136
-48,-126,-78,87,14,-102,39,4,-82,-156,-161,-136
-48,-126,-78,87,14,-102,39,9,-82,-156,-161,-136
-48,-131,-82,90,17,-107,29,9,-82,-156,-165,-136
-53,-136,-82,95,14,-109,14,4,-78,-156,-170,-136
-58,-146,-87,102,14,-117,19,0,-82,-156,-165,-141
-58,-156,-97,107,19,-126,19,-4,-92,-161,-165,-146
-53,-156,-102,104,24,-129,24,4,-82,-156,-165,-146
-48,-151,-102,100,26,-126,24,4,-82,-156,-161,-141
-53,-136,-82,95,14,-109,43,24,-63,-136,-146,-131
-58,-122,-63,90,2,-92,63,43,-43,-117,-131,-122
-58,-122,-63,90,2,-92,63,48,-39,-117,-131,-122
-58,-117,-58,87,0,-87,63,53,-34,-117,-131,-122
-29,-107,-78,68,24,-92,53,43,-34,-117,-131,-122
4,-87,-92,41,48,-90,43,43,-34,-112,-136,-117
9,-87,-97,39,53,-92,43,53,-24,-112,-131,-112
9,-82,-92,36,51,-87,43,58,-14,-107,-126,-112
9,-82,-92,36,51,-87,39,58,-4,-97,-126,-112
9,-82,-92,36,51,-87,39,58,4,-97,-122,-107
0,-92,-92,46,46,-92,29,58,14,-82,-112,-102
-4,-102,-97,53,46,-100,14,53,19,-78,-107,-102
-9,-87,-78,48,34,-82,24,73,39,-68,-87,-87
-9,-87,-78,48,34,-82,34,92,53,-48,-68,-73
0,-73,-73,36,36,-73,34,107,68,-29,-63,-68
0,-68,-68,34,34,-68,29,112,87,-9,-58,-63
19,-58,-78,19,48,-68,29,112,102,0,-48,-53
24,-53,-78,14,51,-65,29,117,117,14,-34,-43
39,-29,-68,-4,53,-48,34,146,151,53,0,-19
48,-19,-68,-14,58,-43,39,165,180,87,34,4
43,-4,-48,-19,46,-26,34,185,200,107,43,19
34,4,-29,-19,31,-12,34,190,219,122,63,29
29,9,-19,-19,24,-4,29,200,239,151,78,39
24,19,-4,-21,14,7,24,200,258,165,87,48
58,34,-24,-46,41,4,14,209,278,185,107,58
107,43,-63,-75,85,-9,0,214,297,195,122,63
117,58,-58,-87,87,0,-4,229,326,224,141,82
136,78,-58,-107,97,9,-9,234,351,258,165,107
141,92,-48,-117,95,21,-9,239,380,273,175,122
156,112,-43,-134,100,34,-9,253,405,302,200,141
165,126,-39,-146,102,43,4,268,419,317,229,156
170,136,-34,-153,102,51,4,273,434,336,244,170
161,131,-29,-146,95,51,0,273,453,351,253,185
151,141,-9,-146,80,65,-4,273,473,366,273,195
156,151,-4,-153,80,73,-4,273,468,375,268,204
156,151,-4,-153,80,73,-4,263,463,370,263,200
161,156,-4,-158,82,75,-4,258,463,370,268,200
165,161,-4,-163,85,78,-4,244,453,366,263,200
156,161,4,-158,75,82,-9,219,405,331,253,190
136,151,14,-143,61,82,-9,190,366,297,224,170
122,146,24,-134,48,85,-9,165,326,273,209,151
102,141,39,-122,31,90,-9,141,287,234,180,136
87,122,34,-104,26,78,-19,112,239,200,151,107
73,102,29,-87,21,65,-24,78,195,165,126,87
48,87,39,-68,4,63,-24,58,156,126,102,73
34,73,39,-53,-2,56,-19,39,126,97,82,48
24,58,34,-41,-4,46,-14,19,82,73,63,29
19,48,29,-34,-4,39,-14,0,48,39,43,19
9,39,29,-24,-9,34,-19,-19,19,9,24,0
9,19,9,-14,0,14,-14,-29,4,-9,9,-14
-4,9,14,-2,-9,12,-14,-34,-29,-29,-9,-29
-4,0,4,2,-4,2,-14,-39,-53,-43,-24,-39
-14,0,14,7,-14,7,-19,-43,-53,-48,-29,-43
-24,-9,14,17,-19,2,-24,-48,-73,-58,-43,-58
-29,-19,9,24,-19,-4,-14,-48,-73,-58,-43,-58
-24,-14,9,19,-17,-2,-14,-53,-78,-68,-53,-63
-24,-14,9,19,-17,-2,-14,-53,-82,-78,-58,-63
-29,-14,14,21,-21,0,-14,-53,-97,-82,-58,-68
-24,-19,4,21,-14,-7,-14,-58,-97,-82,-58,-68
-24,-24,0,24,-12,-12,-9,-58,-97,-82,-58,-68
-24,-24,0,24,-12,-12,-9,-58,-97,-78,-63,-68
-24,-24,0,24,-12,-12,-9,-58,-102,-78,-63,-68
-24,-24,0,24,-12,-12,-9,-58,-102,-78,-58,-63
-24,-24,0,24,-12,-12,-4,-53,-97,-73,-53,-58
-14,-24,-9,19,-2,-17,-9,-53,-97,-73,-58,-63
-4,-29,-24,17,9,-26,-9,-53,-97,-73,-58,-63
-14,-29,-14,21,0,-21,-9,-58,-97,-73,-58,-68
-24,-24,0,24,-12,-12,-14,-58,-97,-78,-58,-73
-34,-34,0,34,-17,-17,-19,-58,-97,-78,-58,-73
-43,-53,-9,48,-17,-31,-19,-58,-97,-78,-58,-73
-43,-53,-9,48,-17,-31,-19,-58,-97,-78,-63,-68
-43,-53,-9,48,-17,-31,-9,-53,-97,-78,-63,-68
-43,-53,-9,48,-17,-31,-9,-48,-92,-78,-63,-63
-43,-53,-9,48,-17,-31,-14,-48,-92,-78,-63,-63
-34,-39,-4,36,-14,-21,-14,-48,-87,-73,-58,-63
-29,-43,-14,36,-7,-29,-9,-48,-82,-68,-53,-58
-29,-39,-9,34,-9,-24,-4,-48,-82,-68,-53,-53
-29,-34,-4,31,-12,-19,0,-43,-82,-63,-53,-48
-29,-29,0,29,-14,-14,0,-43,-78,-58,-48,-48
-29,-24,4,26,-17,-9,0,-39,-78,-58,-43,-48
-24,-9,14,17,-19,2,0,-39,-68,-58,-43,-48
-14,9,24,2,-19,17,4,-34,-53,-48,-39,-48
-14,19,34,-2,-24,26,4,-39,-48,-43,-34,-48
-19,29,48,-4,-34,39,9,-48,-48,-39,-29,-48
-19,29,48,-4,-34,39,9,-48,-48,-39,-29,-48
-19,29,48,-4,-34,39,9,-48,-48,-39,-29,-48
-19,39,58,-9,-39,48,9,-48,-48,-29,-24,-39
-19,48,68,-14,-43,58,4,-48,-43,-24,-19,-34
-19,58,78,-19,-48,68,4,-53,-43,-19,-19,-29
-14,63,78,-24,-46,70,-4,-58,-43,-19,-14,-24
-14,78,92,-31,-53,85,-9,-63,-43,-19,-9,-19
-9,82,92,-36,-51,87,-24,-73,-43,-19,-4,-14
0,92,92,-46,-46,92,-39,-78,-43,-19,-4,-14
9,97,87,-53,-39,92,-53,-87,-53,-24,-4,-14
4,102,97,-53,-46,100,-68,-92,-68,-43,-9,-29
-4,112,117,-53,-61,114,-73,-102,-82,-58,-14,-43
-4,126,131,-61,-68,129,-73,-117,-87,-58,-19,-24
-4,136,141,-65,-73,139,-73,-122,-87,-58,-19,-9
0,141,141,-70,-70,141,-73,-112,-87,-43,-9,-4
9,126,117,-68,-53,122,-68,-92,-82,-29,4,9
14,126,112,-70,-48,119,-63,-92,-82,-43,-4,0
9,107,97,-58,-43,102,-58,-97,-87,-58,-14,-9
9,102,92,-56,-41,97,-53,-92,-97,-58,-19,-19
-19,78,97,-29,-58,87,-48,-92,-107,-68,-34,-34
-29,43,73,-7,-51,58,-34,-97,-112,-87,-48,-48
-39,14,53,12,-46,34,-34,-102,-122,-107,-68,-68
-48,-19,29,34,-39,4,-24,-87,-126,-107,-87,-82
-48,-34,14,41,-31,-9,-19,-78,-131,-112,-87,-82
-39,-34,4,36,-21,-14,-19,-87,-131,-112,-87,-82
-29,-39,-9,34,-9,-24,-14,-92,-131,-117,-92,-87
-29,-53,-24,41,-2,-39,-9,-87,-131,-117,-92,-87
-29,-58,-29,43,0,-43,-9,-82,-131,-122,-92,-87
-34,-58,-24,46,-4,-41,-4,-82,-131,-122,-92,-92
-43,-58,-14,51,-14,-36,-4,-82,-131,-122,-97,-102
-43,-68,-24,56,-9,-46,-4,-82,-136,-122,-102,-102
-48,-73,-24,61,-12,-48,-4,-78,-136,-122,-102,-102
-48,-73,-24,61,-12,-48,-4,-78,-136,-126,-102,-92
-48,-78,-29,63,-9,-53,0,-73,-136,-126,-102,-87
-48,-78,-29,63,-9,-53,0,-73,-131,-126,-97,-92
-48,-78,-29,63,-9,-53,0,-78,-126,-126,-97,-92
-48,-82,-34,65,-7,-58,0,-73,-126,-126,-97,-92
-43,-82,-39,63,-2,-61,4,-63,-122,-126,-97,-97
-43,-87,-43,65,0,-65,4,-63,-126,-126,-97,-97
-43,-87,-43,65,0,-65,4,-58,-131,-126,-97,-97
-43,-87,-43,65,0,-65,9,-63,-131,-126,-97,-97
-43,-92,-48,68,2,-70,14,-63,-131,-131,-107,-107
-48,-117,-68,82,9,-92,29,-58,-136,-156,-122,-126
-63,-156,-92,109,14,-124,68,-39,-146,-185,-165,-165
-92,-204,-112,148,9,-158,97,-9,-180,-248,-244,-229
-126,-239,-112,183,-7,-175,146,9,-214,-331,-331,-297
-170,-229,-58,200,-56,-143,200,34,-224,-370,-370,-331
-185,-190,-4,187,-90,-97,248,73,-200,-370,-361,-331
-141,-107,34,124,-87,-36,263,180,-53,-214,-229,-248
4,14,9,-9,-2,12,219,336,219,82,9,-53
136,244,107,-190,14,175,107,356,453,429,346,229
283,570,287,-427,-2,429,-117,117,541,775,746,561
434,907,473,-671,-19,690,-385,-156,585,1141,1176,897
527,1010,483,-768,21,746,-566,-331,756,1615,1561,1171
561,702,141,-631,209,422,-561,-297,1073,2034,1683,1220
419,517,97,-468,161,307,-502,-390,1024,1942,1542,1044
161,385,224,-273,-31,305,-424,-575,468,1190,897,619
-48,190,239,-70,-143,214,-390,-814,-380,141,126,122
-214,48,263,82,-239,156,-302,-936,-1054,-707,-429,-204
-229,-19,209,124,-219,95,-248,-800,-1034,-785,-448,-244
-200,-97,102,148,-151,2,-209,-629,-814,-634,-405,-248
-185,-131,53,158,-119,-39,-180,-527,-702,-556,-385,-263
-165,-131,34,148,-100,-48,-175,-453,-575,-468,-331,-253
-131,-97,34,114,-82,-31,-146,-356,-434,-356,-244,-195
-97,-82,14,90,-56,-34,-112,-229,-297,-258,-190,-151
-68,-73,-4,70,-31,-39,-63,-131,-214,-185,-151,-126
-43,-73,-29,58,-7,-51,-29,-97,-165,-156,-122,-107
-43,-82,-39,63,-2,-61,-9,-78,-136,-131,-102,-92
-39,-97,-58,68,9,-78,-4,-73,-126,-126,-102,-92
-43,-97,-53,70,4,-75,4,-53,-112,-122,-107,-97
-39,-97,-58,68,9,-78,4,-48,-112,-122,-107,-102
-34,-97,-63,65,14,-80,4,-48,-112,-122,-107,-102
-34,-107,-73,70,19,-90,9,-39,-102,-117,-107,-97
-34,-112,-78,73,21,-95,19,-29,-92,-112,-102,-97
-34,-112,-78,73,21,-95,24,-24,-87,-107,-102,-97
-39,-112,-73,75,17,-92,24,-29,-87,-107,-97,-97
-34,-112,-78,73,21,-95,19,-29,-82,-107,-102,-102
-29,-117,-87,73,29,-102,19,-24,-82,-107,-112,-107
-29,-117,-87,73,29,-102,19,-19,-82,-107,-112,-107
-29,-117,-87,73,29,-102,24,-14,-82,-107,-112,-107
-34,-117,-82,75,24,-100,24,-14,-73,-107,-107,-97
-34,-117,-82,75,24,-100,29,-14,-63,-102,-97,-87
-24,-112,-87,68,31,-100,34,-9,-63,-97,-92,-87
-14,-107,-92,61,39,-100,43,4,-53,-87,-87,-87
-9,-102,-92,56,41,-97,43,4,-53,-87,-82,-82
-9,-102,-92,56,41,-97,43,9,-48,-82,-82,-82
-14,-107,-92,61,39,-100,39,9,-43,-78,-87,-87
-19,-112,-92,65,36,-102,34,9,-39,-78,-92,-92
-19,-107,-87,63,34,-97,34,14,-34,-78,-92,-92
-19,-107,-87,63,34,-97,34,14,-29,-73,-87,-92
-14,-92,-78,53,31,-85,34,24,-24,-63,-87,-87
-9,-87,-78,48,34,-82,34,34,-14,-63,-82,-82
-9,-82,-73,46,31,-78,34,39,-4,-58,-78,-82
-9,-82,-73,46,31,-78,34,43,4,-48,-78,-82
-14,-87,-73,51,29,-80,34,48,14,-48,-73,-78
-14,-87,-73,51,29,-80,29,58,24,-34,-63,-73
-4,-82,-78,43,36,-80,24,68,29,-24,-58,-73
-4,-68,-63,36,29,-65,24,82,43,-14,-48,-63
0,-63,-63,31,31,-63,34,92,63,0,-39,-53
9,-43,-53,17,31,-48,43,107,82,9,-34,-48
9,-39,-48,14,29,-43,39,112,102,24,-19,-39
24,-29,-53,2,39,-41,39,122,122,39,0,-24
24,-24,-48,0,36,-36,39,136,141,53,19,-14
39,-4,-43,-17,41,-24,39,156,161,73,39,0
48,0,-48,-24,48,-24,39,161,175,92,53,14
58,14,-43,-36,51,-14,34,175,200,117,63,29
63,24,-39,-43,51,-7,34,180,219,131,82,39
73,39,-34,-56,53,2,29,195,239,156,97,53
78,58,-19,-68,48,19,24,200,258,170,107,68
78,73,-4,-75,41,34,19,214,278,195,126,87
97,87,-9,-92,53,39,9,224,302,209,141,102
102,107,4,-104,48,56,4,239,326,224,156,112
117,126,9,-122,53,68,0,244,346,248,175,126
122,141,19,-131,51,80,0,248,370,268,185,141
131,151,19,-141,56,85,0,258,385,292,209,161
136,156,19,-146,58,87,0,263,400,307,234,175
141,165,24,-153,58,95,-4,263,409,317,244,185
146,165,19,-156,63,92,0,263,424,322,253,195
146,180,34,-163,56,107,-4,263,434,326,268,204
146,195,48,-170,48,122,-4,263,429,336,268,219
146,200,53,-173,46,126,-4,248,419,331,258,214
146,204,58,-175,43,131,-4,234,405,322,253,209
151,214,63,-183,43,139,-4,214,380,302,248,204
146,219,73,-183,36,146,-9,190,346,283,239,190
126,209,82,-168,21,146,-9,165,331,268,209,165
117,204,87,-161,14,146,-9,146,287,239,195,146
92,195,102,-143,-4,148,-9,122,248,204,170,136
73,170,97,-122,-12,134,-14,92,204,170,146,112
78,151,73,-114,2,112,-14,63,165,136,122,97
68,131,63,-100,2,97,-14,48,126,107,92,82
53,112,58,-82,-2,85,-9,34,97,82,73,58
43,97,53,-70,-4,75,-4,19,63,58,53,39
29,82,53,-56,-12,68,-14,0,34,24,34,29
4,68,63,-36,-29,65,-19,-19,4,0,14,9
0,48,48,-24,-24,48,-4,-24,-4,-9,0,-4
-14,34,48,-9,-31,41,-4,-29,-29,-29,-14,-19
-9,19,29,-4,-19,24,-9,-39,-48,-48,-29,-34
-14,19,34,-2,-24,26,-14,-43,-53,-58,-39,-43
-19,19,39,0,-29,29,-14,-48,-73,-68,-53,-58
-24,9,34,7,-29,21,-4,-48,-73,-68,-53,-58
-24,4,29,9,-26,17,0,-53,-73,-68,-58,-58
-24,4,29,9,-26,17,4,-53,-73,-68,-58,-58
-29,-4,24,17,-26,9,4,-53,-87,-73,-58,-68
-29,-19,9,24,-19,-4,4,-58,-87,-73,-63,-68
-34,-24,9,29,-21,-7,9,-58,-87,-73,-68,-68
-34,-29,4,31,-19,-12,9,-58,-87,-78,-73,-68
-29,-29,0,29,-14,-14,4,-53,-87,-87,-73,-68
-24,-24,0,24,-12,-12,0,-53,-87,-87,-73,-68
-24,-24,0,24,-12,-12,4,-53,-87,-82,-68,-63
-24,-24,0,24,-12,-12,4,-53,-87,-82,-68,-63
-24,-29,-4,26,-9,-17,9,-53,-87,-78,-68,-63
-24,-29,-4,26,-9,-17,9,-53,-87,-73,-68,-68
-24,-24,0,24,-12,-12,4,-48,-87,-78,-63,-73
-29,-24,4,26,-17,-9,0,-48,-87,-78,-58,-73
-34,-34,0,34,-17,-17,0,-48,-82,-78,-58,-73
-34,-34,0,34,-17,-17,0,-48,-78,-78,-63,-68
-34,-34,0,34,-17,-17,9,-43,-78,-78,-63,-63
-34,-34,0,34,-17,-17,9,-39,-73,-78,-63,-58
-34,-34,0,34,-17,-17,9,-39,-73,-73,-63,-63
-29,-24,4,26,-17,-9,14,-39,-73,-68,-63,-63
-29,-34,-4,31,-12,-19,19,-39,-68,-68,-63,-58
-29,-34,-4,31,-12,-19,19,-39,-63,-68,-63,-58
-29,-34,-4,31,-12,-19,19,-34,-63,-63,-63,-58
-29,-34,-4,31,-12,-19,19,-34,-58,-63,-63,-58
-29,-19,9,24,-19,-4,19,-29,-53,-53,-53,-53
-29,-4,24,17,-26,9,24,-24,-53,-48,-43,-53
-24,9,34,7,-29,21,24,-24,-48,-43,-39,-48
-19,29,48,-4,-34,39,29,-29,-48,-39,-39,-48
-19,29,48,-4,-34,39,29,-29,-48,-43,-39,-48
-19,29,48,-4,-34,39,29,-29,-48,-48,-39,-48
-19,34,53,-7,-36,43,29,-34,-48,-48,-39,-43
-14,39,53,-12,-34,46,24,-34,-43,-48,-34,-39
-14,43,58,-14,-36,51,19,-39,-43,-48,-34,-34
-14,58,73,-21,-43,65,9,-43,-43,-43,-29,-29
-14,63,78,-24,-46,70,-4,-53,-43,-39,-24,-19
-9,73,82,-31,-46,78,-19,-58,-43,-39,-24,-14
0,73,73,-36,-36,73,-29,-68,-58,-43,-24,-14
0,68,68,-34,-34,68,-39,-73,-73,-53,-24,-14
-9,73,82,-31,-46,78,-43,-82,-82,-58,-24,-19
-14,87,102,-36,-58,95,-43,-97,-87,-58,-29,-19
-14,102,117,-43,-65,109,-43,-102,-82,-58,-29,-19
-9,126,136,-58,-73,131,-48,-102,-78,-53,-19,-14
4,141,136,-73,-65,139,-48,-92,-73,-48,-4,0
24,156,131,-90,-53,143,-48,-82,-68,-48,-4,0
29,136,107,-82,-39,122,-48,-82,-78,-48,-9,0
29,131,102,-80,-36,117,-43,-82,-87,-48,-19,-4
0,82,82,-41,-41,82,-39,-82,-87,-58,-34,-14
-19,24,43,-2,-31,34,-24,-87,-102,-78,-48,-29
-39,-4,34,21,-36,14,-29,-87,-122,-102,-68,-48
-48,-34,14,41,-31,-9,-24,-82,-126,-107,-87,-68
-48,-43,4,46,-26,-19,-19,-87,-131,-112,-87,-73
-43,-43,0,43,-21,-21,-19,-87,-131,-112,-87,-73
-39,-48,-9,43,-14,-29,-14,-87,-131,-117,-92,-78
-39,-63,-24,51,-7,-43,-9,-87,-131,-117,-92,-78
-39,-63,-24,51,-7,-43,-9,-82,-131,-122,-92,-78
-39,-58,-19,48,-9,-39,-4,-82,-131,-122,-92,-78
-43,-58,-14,51,-14,-36,-4,-82,-126,-122,-92,-82
-43,-68,-24,56,-9,-46,-4,-82,-126,-122,-92,-82
-48,-73,-24,61,-12,-48,-4,-78,-126,-122,-92,-82
-48,-73,-24,61,-12,-48,-4,-78,-126,-126,-92,-78
-48,-78,-29,63,-9,-53,0,-78,-136,-126,-97,-82
-48,-78,-29,63,-9,-53,0,-82,-146,-126,-102,-92
-48,-78,-29,63,-9,-53,-4,-87,-146,-126,-107,-92
-53,-82,-29,68,-12,-56,-9,-87,-146,-126,-107,-92
-58,-92,-34,75,-12,-63,-4,-78,-136,-126,-107,-97
-63,-107,-43,85,-9,-75,-4,-73,-131,-126,-107,-97
-63,-107,-43,85,-9,-75,-4,-68,-131,-122,-107,-92
-63,-107,-43,85,-9,-75,0,-68,-131,-117,-107,-87
-53,-102,-48,78,-2,-75,0,-68,-126,-112,-102,-82
-58,-117,-58,87,0,-87,9,-63,-126,-126,-102,-87
-68,-156,-87,112,9,-122,43,-48,-136,-156,-146,-126
-82,-204,-122,143,19,-163,78,-24,-156,-204,-209,-185
-117,-263,-146,190,14,-204,136,-4,-190,-292,-307,-268
-161,-287,-126,224,-17,-207,190,24,-214,-351,-370,-322
-234,-278,-43,256,-95,-161,258,29,-263,-439,-424,-370
-229,-229,0,229,-114,-114,292,117,-190,-380,-366,-336
-78,-170,-92,124,7,-131,312,395,117,-102,-175,-180
63,4,-58,-34,61,-26,263,502,395,224,117,63
234,375,141,-305,46,258,39,283,517,541,512,405
385,761,375,-573,4,568,-239,-19,541,844,902,751
527,985,458,-756,34,722,-492,-253,722,1424,1415,1141
605,863,258,-734,173,561,-570,-253,1063,1956,1703,1307
517,732,214,-624,151,473,-546,-341,1210,2093,1712,1229
287,590,302,-439,-7,446,-458,-497,917,1688,1273,907
19,361,341,-190,-161,351,-414,-834,-73,512,409,322
-175,180,356,-2,-265,268,-341,-1019,-927,-531,-292,-97
-214,78,292,68,-253,185,-268,-873,-1005,-707,-380,-170
-224,-48,175,136,-200,63,-214,-717,-888,-683,-419,-224
-224,-122,102,173,-163,-9,-190,-614,-780,-624,-424,-278
-204,-151,53,178,-129,-48,-185,-527,-663,-536,-395,-292
-170,-126,43,148,-107,-41,-156,-439,-527,-424,-307,-219
-126,-112,14,119,-70,-48,-122,-312,-370,-322,-229,-161
-87,-102,-14,95,-36,-58,-68,-165,-253,-229,-175,-136
-63,-102,-39,82,-12,-70,-29,-102,-185,-185,-141,-117
-63,-112,-48,87,-7,-80,-9,-78,-146,-156,-117,-92
-53,-131,-78,92,12,-104,-4,-68,-126,-146,-112,-82
-53,-136,-82,95,14,-109,4,-43,-112,-141,-117,-87
-48,-136,-87,92,19,-112,4,-39,-112,-141,-117,-92
-43,-141,-97,92,26,-119,4,-39,-112,-141,-117,-97
-39,-151,-112,95,36,-131,9,-29,-102,-136,-117,-97
-34,-151,-117,92,41,-134,19,-19,-92,-131,-112,-97
-34,-151,-117,92,41,-134,24,-9,-87,-126,-112,-97
-39,-151,-112,95,36,-131,29,-9,-87,-126,-112,-97
-39,-151,-112,95,36,-131,29,-9,-82,-126,-117,-97
-39,-146,-107,92,34,-126,29,-4,-82,-126,-122,-97
-39,-136,-97,87,29,-117,29,0,-82,-126,-122,-97
-34,-146,-112,90,39,-129,39,9,-82,-126,-117,-92
-34,-156,-122,95,43,-139,43,14,-78,-126,-112,-87
-34,-156,-122,95,43,-139,48,14,-73,-122,-107,-87
-29,-156,-126,92,48,-141,48,14,-73,-122,-107,-87
-29,-156,-126,92,48,-141,48,24,-63,-117,-107,-92
-29,-151,-122,90,46,-136,43,24,-63,-117,-102,-92
-29,-151,-122,90,46,-136,43,29,-58,-112,-107,-92
-29,-151,-122,90,46,-136,43,34,-53,-107,-112,-92
-34,-141,-107,87,36,-124,43,39,-48,-107,-112,-92
-39,-126,-87,82,24,-107,43,43,-43,-107,-112,-92
-39,-146,-107,92,34,-126,43,43,-34,-102,-102,-87
-34,-156,-122,95,43,-139,43,53,-24,-92,-97,-78
-29,-156,-126,92,48,-141,43,63,-14,-92,-92,-73
-29,-151,-122,90,46,-136,43,68,-4,-87,-87,-73
-29,-146,-117,87,43,-131,43,73,4,-73,-87,-73
-29,-141,-112,85,41,-126,48,78,14,-68,-82,-68
-24,-136,-112,80,43,-124,58,87,24,-53,-73,-63
-14,-131,-117,73,51,-124,63,92,29,-48,-68,-63
-14,-117,-102,65,43,-109,63,97,43,-43,-58,-53
-9,-117,-107,63,48,-112,63,102,53,-29,-48,-43
0,-107,-107,53,53,-107,53,117,63,-19,-43,-39
0,-107,-107,53,53,-107,39,122,78,-9,-39,-34
14,-97,-112,41,63,-104,39,126,92,0,-29,-24
14,-92,-107,39,61,-100,39,136,107,14,-14,-14
24,-73,-97,24,61,-85,39,151,131,34,4,0
29,-68,-97,19,63,-82,39,156,151,48,24,14
39,-53,-92,7,65,-73,34,175,170,68,34,29
43,-43,-87,0,65,-65,34,180,190,82,53,39
53,-19,-73,-17,63,-46,39,195,209,112,68,53
63,9,-53,-36,58,-21,43,200,229,126,78,68
68,24,-43,-46,56,-9,39,214,248,151,97,87
87,34,-53,-61,70,-9,29,224,268,165,112,102
82,39,-43,-61,63,-2,24,239,292,180,126,112
87,48,-39,-68,63,4,19,244,312,200,146,126
92,63,-29,-78,61,17,19,248,331,209,156,136
107,82,-24,-95,65,29,19,263,346,234,180,151
117,97,-19,-107,68,39,24,273,361,244,204,165
122,107,-14,-114,68,46,14,273,375,258,214,180
126,112,-14,-119,70,48,9,273,390,268,219,190
131,131,0,-131,65,65,4,273,405,278,234,195
136,146,9,-141,63,78,0,273,400,287,234,209
136,151,14,-143,61,82,-4,263,395,283,234,209
136,156,19,-146,58,87,-4,253,385,273,234,200
136,161,24,-148,56,92,-4,234,366,258,224,190
126,161,34,-143,46,97,-9,214,341,244,219,190
107,151,43,-129,31,97,-9,190,326,229,195,180
102,146,43,-124,29,95,-9,165,287,209,185,165
92,141,48,-117,21,95,-9,141,248,175,161,156
87,126,39,-107,24,82,-14,112,204,146,136,131
82,112,29,-97,26,70,-14,78,165,117,117,117
58,92,34,-75,12,63,-14,58,131,87,92,102
43,73,29,-58,7,51,-9,39,107,68,73,78
34,63,29,-48,2,46,-4,24,73,48,53,58
29,58,29,-43,0,43,-4,9,48,19,34,48
14,48,34,-31,-9,41,-9,-9,24,0,14,29
9,29,19,-19,-4,24,-4,-19,14,-9,0,14
-4,14,19,-4,-12,17,-4,-29,-14,-29,-14,0
-4,0,4,2,-4,2,-4,-39,-34,-43,-24,-9
-14,0,14,7,-14,7,-4,-43,-34,-53,-29,-14
-24,-9,14,17,-19,2,-4,-48,-53,-68,-43,-29
-34,-24,9,29,-21,-7,0,-48,-58,-68,-43,-34
-34,-24,9,29,-21,-7,-4,-53,-68,-78,-53,-43
-29,-24,4,26,-17,-9,-4,-53,-73,-87,-58,-48
-29,-24,4,26,-17,-9,-4,-53,-87,-92,-58,-58
-29,-43,-14,36,-7,-29,0,-53,-82,-82,-58,-53
-34,-63,-29,48,-2,-46,9,-48,-78,-73,-58,-48
-34,-53,-19,43,-7,-36,9,-48,-78,-78,-63,-48
-34,-43,-9,39,-12,-26,9,-48,-82,-87,-63,-48
-34,-43,-9,39,-12,-26,4,-53,-87,-87,-63,-48
-34,-43,-9,39,-12,-26,4,-53,-87,-82,-63,-48
-34,-43,-9,39,-12,-26,4,-53,-87,-82,-68,-53
-34,-48,-14,41,-9,-31,9,-53,-87,-82,-68,-53
-34,-48,-14,41,-9,-31,9,-53,-87,-82,-68,-53
-34,-43,-9,39,-12,-26,4,-48,-87,-87,-68,-53
-34,-43,-9,39,-12,-26,4,-48,-82,-82,-63,-53
-34,-53,-19,43,-7,-36,9,-48,-78,-78,-58,-53
-34,-53,-19,43,-7,-36,9,-48,-78,-73,-63,-48
-34,-53,-19,43,-7,-36,19,-43,-78,-68,-63,-48
-34,-53,-19,43,-7,-36,19,-39,-73,-68,-63,-48
-34,-53,-19,43,-7,-36,14,-39,-73,-68,-63,-53
-29,-43,-14,36,-7,-29,9,-39,-73,-68,-63,-53
-29,-53,-24,41,-2,-39,9,-39,-73,-68,-63,-48
-29,-48,-19,39,-4,-34,9,-39,-73,-68,-63,-48
-29,-43,-14,36,-7,-29,9,-34,-73,-63,-63,-48
-29,-43,-14,36,-7,-29,9,-34,-63,-58,-53,-48
-29,-43,-14,36,-7,-29,9,-29,-58,-58,-43,-48
-29,-39,-9,34,-9,-24,9,-29,-58,-58,-43,-43
-24,-29,-4,26,-9,-17,14,-24,-53,-48,-39,-39
-24,-4,19,14,-21,7,14,-24,-43,-43,-34,-34
-29,19,48,4,-39,34,19,-29,-39,-39,-29,-29
-29,19,48,4,-39,34,24,-24,-34,-39,-29,-24
-29,19,48,4,-39,34,29,-19,-29,-39,-29,-19
-29,19,48,4,-39,34,29,-19,-29,-39,-29,-19
-29,24,53,2,-41,39,24,-19,-24,-39,-29,-19
-29,29,58,0,-43,43,24,-24,-24,-39,-29,-19
-24,34,58,-4,-41,46,14,-29,-24,-39,-24,-14
-24,48,73,-12,-48,61,4,-39,-29,-34,-19,-9
-19,53,73,-17,-46,63,-14,-53,-34,-29,-14,-4
-19,63,82,-21,-51,73,-29,-63,-39,-34,-19,-4
-19,68,87,-24,-53,78,-43,-78,-53,-43,-24,-4
-19,68,87,-24,-53,78,-53,-82,-63,-53,-24,-14
-24,73,97,-24,-61,85,-53,-92,-73,-58,-24,-24
-19,87,107,-34,-63,97,-48,-97,-73,-53,-24,-9
-14,97,112,-41,-63,104,-43,-92,-68,-48,-19,0
-9,117,126,-53,-68,122,-48,-92,-68,-43,-9,4
0,117,117,-58,-58,117,-48,-82,-63,-39,4,19
9,112,102,-61,-46,107,-48,-78,-63,-43,0,14
9,87,78,-48,-34,82,-48,-78,-68,-48,-4,9
9,73,63,-41,-26,68,-39,-73,-68,-48,-19,-4
-19,39,58,-9,-39,48,-29,-73,-68,-58,-43,-24
-34,4,39,14,-36,21,-14,-73,-82,-78,-48,-29
-48,-24,24,36,-36,0,-14,-73,-102,-97,-58,-39
-58,-53,4,56,-31,-24,-14,-68,-107,-102,-78,-58
-58,-63,-4,61,-26,-34,-19,-68,-112,-112,-78,-63
-53,-63,-9,58,-21,-36,-19,-68,-112,-112,-78,-63
-48,-68,-19,58,-14,-43,-14,-63,-112,-117,-82,-68
-48,-82,-34,65,-7,-58,-9,-58,-112,-117,-82,-68
-48,-87,-39,68,-4,-63,-9,-53,-112,-122,-82,-68
-48,-87,-39,68,-4,-63,-4,-58,-112,-122,-87,-73
-53,-87,-34,70,-9,-61,-4,-63,-112,-122,-97,-82
-53,-102,-48,78,-2,-75,0,-63,-117,-117,-102,-82
-58,-112,-53,85,-2,-82,4,-58,-117,-112,-102,-82
-58,-112,-53,85,-2,-82,4,-58,-112,-117,-92,-73
-58,-117,-58,87,0,-87,9,-53,-107,-117,-82,-68
-53,-112,-58,82,2,-85,9,-53,-107,-117,-82,-73
-48,-107,-58,78,4,-82,9,-58,-107,-117,-87,-73
-53,-112,-58,82,2,-85,9,-58,-112,-117,-92,-78
-53,-112,-58,82,2,-85,14,-53,-112,-117,-97,-87
-58,-117,-58,87,0,-87,9,-53,-117,-122,-102,-87
-63,-117,-53,90,-4,-85,4,-48,-122,-126,-107,-87
-63,-117,-53,90,-4,-85,9,-48,-122,-131,-107,-87
-63,-122,-58,92,-2,-90,14,-43,-122,-141,-117,-97
-73,-151,-78,112,2,-114,34,-34,-126,-165,-136,-122
-92,-195,-102,143,4,-148,78,-9,-136,-195,-185,-165
-117,-244,-126,180,4,-185,117,19,-165,-244,-248,-224
-146,-278,-131,212,-7,-204,175,39,-195,-312,-322,-287
-190,-278,-87,234,-51,-183,224,73,-185,-341,-356,-312
-204,-248,-43,226,-80,-146,268,122,-141,-331,-341,-302
-141,-156,-14,148,-63,-85,278,234,4,-170,-190,-200
24,-24,-48,0,36,-36,229,395,278,131,68,14
161,229,68,-195,46,148,102,380,497,453,380,287
312,580,268,-446,21,424,-136,107,570,775,756,610
429,883,453,-656,-12,668,-390,-161,619,1098,1127,907
488,951,463,-719,12,707,-556,-331,795,1527,1454,1141
502,692,190,-597,156,441,-556,-326,1029,1830,1493,1137
341,556,214,-448,63,385,-502,-448,897,1620,1268,907
92,419,326,-256,-117,373,-409,-624,370,946,712,517
-107,219,326,-56,-217,273,-361,-854,-448,-24,29,53
-248,73,322,87,-285,197,-283,-951,-1058,-771,-473,-239
-239,0,239,119,-239,119,-239,-790,-976,-746,-439,-244
-224,-87,136,156,-180,24,-204,-624,-761,-610,-395,-248
-224,-131,92,178,-158,-19,-180,-527,-653,-546,-375,-263
-195,-131,63,163,-129,-34,-170,-439,-536,-458,-326,-239
-151,-97,53,124,-102,-21,-136,-326,-405,-346,-244,-165
-117,-82,34,100,-75,-24,-102,-204,-273,-258,-195,-136
-87,-73,14,80,-51,-29,-53,-112,-195,-195,-161,-126
-63,-82,-19,73,-21,-51,-24,-78,-151,-170,-136,-107
-63,-102,-39,82,-12,-70,-9,-58,-126,-151,-122,-92
-58,-122,-63,90,2,-92,-4,-48,-122,-146,-122,-92
-63,-126,-63,95,0,-95,4,-24,-112,-141,-126,-97
-58,-126,-68,92,4,-97,4,-19,-112,-141,-126,-102
-53,-126,-73,90,9,-100,4,-19,-112,-141,-126,-102
-48,-136,-87,92,19,-112,9,-9,-102,-136,-126,-97
-43,-141,-97,92,26,-119,19,0,-92,-131,-122,-97
-43,-141,-97,92,26,-119,24,9,-87,-126,-122,-102
-48,-141,-92,95,21,-117,24,9,-87,-126,-117,-107
-48,-141,-92,95,21,-117,19,9,-82,-126,-117,-107
-48,-146,-97,97,24,-122,19,14,-82,-126,-122,-107
-48,-146,-97,97,24,-122,19,19,-78,-126,-122,-107
-48,-146,-97,97,24,-122,24,24,-73,-126,-122,-107
-53,-146,-92,100,19,-119,29,24,-68,-126,-122,-102
-53,-146,-92,100,19,-119,39,24,-63,-122,-117,-97
-48,-146,-97,97,24,-122,39,24,-63,-122,-117,-97
-43,-146,-102,95,29,-124,43,34,-53,-117,-117,-97
-39,-141,-102,90,31,-122,39,29,-58,-117,-112,-92
-39,-141,-102,90,31,-122,34,29,-58,-112,-112,-92
-39,-141,-102,90,31,-122,34,34,-53,-107,-112,-92
-39,-141,-102,90,31,-122,34,39,-48,-107,-112,-92
-39,-131,-92,85,26,-112,34,43,-43,-107,-112,-92
-39,-126,-87,82,24,-107,34,43,-39,-102,-107,-92
-34,-117,-82,75,24,-100,34,53,-34,-92,-102,-87
-29,-117,-87,73,29,-102,34,63,-24,-92,-92,-82
-29,-112,-82,70,26,-97,39,73,-14,-87,-87,-82
-29,-112,-82,70,26,-97,43,82,-4,-78,-87,-82
-29,-112,-82,70,26,-97,48,87,4,-78,-87,-78
-24,-107,-82,65,29,-95,48,97,14,-63,-82,-73
-14,-102,-87,58,36,-95,43,97,19,-58,-78,-73
-14,-87,-73,51,29,-80,43,102,34,-53,-68,-63
-9,-82,-73,46,31,-78,39,112,43,-39,-58,-53
0,-63,-63,31,31,-63,34,126,53,-29,-53,-48
0,-58,-58,29,29,-58,29,131,68,-19,-43,-43
14,-48,-63,17,39,-56,29,141,82,-9,-29,-34
14,-48,-63,17,39,-56,29,151,97,4,-14,-24
29,-34,-63,2,46,-48,29,165,112,24,0,-9
39,-29,-68,-4,53,-48,29,175,126,39,14,4
48,-14,-63,-17,56,-39,24,195,151,58,24,19
53,-4,-58,-24,56,-31,29,200,170,73,43,29
63,9,-53,-36,58,-21,29,214,190,97,58,43
73,29,-43,-51,58,-7,24,214,209,107,68,53
78,43,-34,-61,56,4,19,224,229,126,87,68
92,58,-34,-75,63,12,19,234,248,136,102,82
92,78,-14,-85,53,31,24,248,268,146,117,92
107,97,-9,-102,58,43,19,253,273,161,126,102
112,112,0,-112,56,56,19,258,283,170,126,112
117,122,4,-119,56,63,19,268,297,195,141,126
117,126,9,-122,53,68,19,273,312,209,156,136
122,136,14,-129,53,75,4,273,322,219,165,151
126,136,9,-131,58,73,0,273,336,224,175,165
131,156,24,-143,53,90,-4,273,346,224,190,170
136,175,39,-156,48,107,-4,273,341,229,190,180
136,180,43,-158,46,112,-4,263,331,229,185,180
136,185,48,-161,43,117,-4,253,317,224,185,180
136,180,43,-158,46,112,-4,234,302,209,185,180
126,170,43,-148,41,107,-9,209,278,195,180,170
107,161,53,-134,26,107,-9,180,268,190,156,146
97,156,58,-126,19,107,-9,156,229,170,146,126
87,151,63,-119,12,107,-9,136,200,141,122,117
82,131,48,-107,17,90,-14,112,165,112,97,92
73,112,39,-92,17,75,-14,78,131,82,78,82
48,92,43,-70,2,68,-14,58,97,58,53,73
34,82,48,-58,-7,65,-14,43,73,43,43,48
24,78,53,-51,-14,65,-14,29,43,29,34,29
24,68,43,-46,-9,56,-14,14,19,4,14,24
14,58,43,-36,-14,51,-9,0,-4,-9,-4,9
9,34,24,-21,-7,29,0,-9,-9,-19,-14,-4
-4,14,19,-4,-12,17,-4,-19,-29,-39,-24,-19
0,0,0,0,0,0,-4,-29,-43,-53,-34,-24
-4,0,4,2,-4,2,-4,-34,-43,-58,-39,-24
-14,-9,4,12,-9,-2,-4,-34,-58,-68,-53,-39
-24,-29,-4,26,-9,-17,4,-29,-53,-68,-53,-39
-24,-34,-9,29,-7,-21,4,-34,-58,-73,-63,-43
-24,-34,-9,29,-7,-21,4,-34,-63,-78,-68,-48
-29,-24,4,26,-17,-9,4,-34,-78,-82,-63,-58
-29,-19,9,24,-19,-4,4,-39,-78,-82,-63,-58
-34,-24,9,29,-21,-7,9,-39,-78,-78,-68,-63
-34,-29,4,31,-19,-12,9,-39,-78,-78,-73,-68
-34,-34,0,34,-17,-17,9,-39,-78,-87,-73,-68
-34,-34,0,34,-17,-17,9,-43,-78,-87,-73,-68
-34,-39,-4,36,-14,-21,14,-43,-78,-82,-73,-63
-34,-43,-9,39,-12,-26,14,-43,-78,-82,-78,-63
-34,-48,-14,41,-9,-31,19,-43,-73,-82,-73,-58
-34,-48,-14,41,-9,-31,19,-43,-68,-82,-68,-58
-29,-29,0,29,-14,-14,14,-39,-68,-87,-68,-63
-29,-14,14,21,-21,0,9,-39,-68,-87,-68,-63
-34,-34,0,34,-17,-17,9,-39,-68,-82,-68,-63
-34,-43,-9,39,-12,-26,9,-39,-68,-78,-73,-58
-34,-43,-9,39,-12,-26,14,-34,-68,-78,-73,-58
-34,-43,-9,39,-12,-26,9,-29,-63,-78,-73,-58
-34,-43,-9,39,-12,-26,4,-29,-63,-78,-73,-63
-29,-34,-4,31,-12,-19,4,-29,-63,-78,-73,-63
-29,-43,-14,36,-7,-29,9,-29,-58,-73,-68,-58
-29,-43,-14,36,-7,-29,9,-29,-53,-68,-63,-58
-34,-43,-9,39,-12,-26,9,-24,-53,-63,-63,-58
-39,-43,-4,41,-17,-24,9,-24,-48,-63,-63,-58
-39,-24,14,31,-26,-4,14,-14,-43,-63,-58,-53
-39,-4,34,21,-36,14,24,-9,-39,-53,-48,-48
-39,4,43,17,-41,24,24,-14,-34,-43,-43,-43
-39,19,58,9,-48,39,29,-19,-29,-39,-39,-39
-39,19,58,9,-48,39,29,-19,-29,-43,-39,-39
-39,19,58,9,-48,39,29,-19,-29,-48,-39,-39
-39,19,58,9,-48,39,29,-19,-29,-48,-39,-39
-39,24,63,7,-51,43,24,-19,-24,-43,-39,-39
-39,34,73,2,-56,53,24,-24,-24,-43,-39,-39
-34,43,78,-4,-56,61,14,-29,-24,-39,-34,-34
-34,58,92,-12,-63,75,9,-39,-29,-34,-34,-29
-29,63,92,-17,-61,78,-4,-53,-34,-29,-34,-24
-19,73,92,-26,-56,82,-19,-63,-34,-29,-34,-24
-9,78,87,-34,-48,82,-34,-78,-43,-34,-34,-24
-14,78,92,-31,-53,85,-48,-82,-53,-48,-34,-29
-24,82,107,-29,-65,95,-53,-92,-63,-58,-34,-34
-24,97,122,-36,-73,109,-53,-102,-68,-58,-39,-29
-24,107,131,-41,-78,119,-53,-102,-68,-58,-39,-29
-9,141,151,-65,-80,146,-58,-102,-68,-53,-34,-24
9,156,146,-82,-68,151,-58,-92,-63,-48,-24,-9
4,146,141,-75,-68,143,-53,-92,-63,-48,-24,-14
-9,117,126,-53,-68,122,-48,-97,-68,-48,-24,-19
0,102,102,-51,-51,102,-43,-92,-68,-53,-29,-24
-19,68,87,-24,-53,78,-39,-92,-68,-68,-43,-34
-29,34,63,-2,-46,48,-24,-92,-82,-87,-58,-43
-39,4,43,17,-41,24,-24,-92,-102,-107,-78,-58
-48,-24,24,36,-36,0,-14,-87,-107,-107,-97,-78
-48,-34,14,41,-31,-9,-9,-87,-112,-112,-97,-82
-48,-34,14,41,-31,-9,-14,-87,-112,-112,-97,-82
-48,-39,9,43,-29,-14,-14,-82,-112,-117,-102,-87
-58,-53,4,56,-31,-24,-9,-82,-112,-117,-102,-87
-68,-58,9,63,-39,-24,-9,-82,-112,-122,-102,-87
-58,-58,0,58,-29,-29,-4,-82,-112,-122,-102,-87
-53,-58,-4,56,-24,-31,-4,-82,-112,-122,-107,-92
-53,-68,-14,61,-19,-41,-4,-87,-117,-122,-112,-92
-58,-73,-14,65,-21,-43,-4,-87,-117,-122,-112,-92
-58,-68,-9,63,-24,-39,-4,-87,-117,-126,-112,-87
-58,-68,-9,63,-24,-39,0,-82,-117,-126,-112,-87
-58,-68,-9,63,-24,-39,-4,-78,-117,-126,-107,-92
-58,-68,-9,63,-24,-39,-9,-78,-117,-126,-107,-92
-63,-73,-9,68,-26,-41,-9,-78,-117,-126,-107,-92
-63,-73,-9,68,-26,-41,-4,-73,-112,-126,-107,-97
-63,-78,-14,70,-24,-46,-4,-73,-112,-126,-112,-97
-63,-78,-14,70,-24,-46,-4,-68,-112,-126,-117,-97
-63,-82,-19,73,-21,-51,4,-68,-117,-126,-117,-97
-63,-92,-29,78,-17,-61,14,-63,-122,-131,-126,-107
-78,-122,-43,100,-17,-82,34,-53,-126,-156,-141,-136
-102,-165,-63,134,-19,-114,78,-29,-136,-185,-185,-185
-126,-219,-92,173,-17,-156,117,4,-156,-234,-248,-234
-156,-258,-102,207,-26,-180,175,29,-175,-302,-322,-287
-195,-258,-63,226,-65,-161,219,63,-180,-341,-361,-317
-204,-229,-24,217,-90,-126,258,112,-151,-341,-351,-312
-141,-146,-4,143,-68,-75,273,244,0,-190,-219,-224
24,-24,-48,0,36,-36,229,424,278,102,19,-24
170,214,43,-192,63,129,117,434,527,439,341,258
331,551,219,-441,56,385,-107,185,629,775,727,590
468,888,419,-678,24,653,-375,-112,668,1098,1098,888
546,990,444,-768,51,717,-556,-312,834,1527,1424,1122
551,741,190,-646,180,466,-570,-331,1078,1849,1488,1141
380,614,234,-497,73,424,-531,-478,956,1659,1288,936
117,483,366,-300,-124,424,-429,-658,424,995,751,561
-97,287,385,-95,-241,336,-370,-893,-400,34,87,112
-244,136,380,53,-312,258,-287,-985,-1039,-736,-434,-200
-239,58,297,90,-268,178,-239,-819,-985,-736,-419,-224
-219,-39,180,129,-200,70,-204,-649,-771,-605,-385,-239
-214,-92,122,153,-168,14,-180,-546,-663,-546,-375,-263
-195,-107,87,151,-141,-9,-175,-468,-556,-458,-336,-253
-161,-87,73,124,-117,-7,-146,-366,-434,-346,-263,-195
-122,-78,43,100,-82,-17,-112,-224,-287,-258,-200,-151
-87,-73,14,80,-51,-29,-63,-112,-195,-195,-151,-126
-68,-73,-4,70,-31,-39,-29,-78,-156,-165,-131,-107
-73,-82,-9,78,-31,-46,-9,-58,-136,-141,-122,-92
-63,-92,-29,78,-17,-61,-4,-48,-126,-141,-122,-97
-63,-87,-24,75,-19,-56,4,-24,-112,-141,-126,-107
-58,-87,-29,73,-14,-58,4,-19,-112,-141,-126,-112
-53,-87,-34,70,-9,-61,4,-19,-112,-141,-126,-112
-48,-97,-48,73,0,-73,9,-9,-102,-136,-126,-107
-43,-102,-58,73,7,-80,19,0,-92,-131,-122,-107
-39,-102,-63,70,12,-82,24,9,-87,-126,-122,-107
-39,-102,-63,70,12,-82,24,9,-87,-126,-117,-107
-39,-102,-63,70,12,-82,24,9,-82,-122,-117,-107
-39,-107,-68,73,14,-87,29,14,-82,-117,-122,-107
-39,-107,-68,73,14,-87,29,19,-82,-117,-122,-107
-39,-107,-68,73,14,-87,34,24,-82,-117,-122,-107
-43,-107,-63,75,9,-85,34,24,-78,-117,-122,-107
-43,-107,-63,75,9,-85,39,24,-73,-112,-117,-107
-43,-107,-63,75,9,-85,39,24,-73,-117,-117,-107
-43,-107,-63,75,9,-85,43,34,-63,-117,-117,-107
-39,-102,-63,70,12,-82,39,39,-63,-117,-112,-102
-39,-102,-63,70,12,-82,34,48,-58,-112,-112,-102
-34,-97,-63,65,14,-80,34,53,-53,-107,-112,-102
-29,-92,-63,61,17,-78,34,58,-48,-107,-112,-102
-29,-87,-58,58,14,-73,34,63,-43,-107,-112,-102
-29,-87,-58,58,14,-73,34,63,-39,-102,-107,-102
-24,-82,-58,53,17,-70,34,73,-34,-92,-107,-92
-19,-87,-68,53,24,-78,34,82,-24,-92,-102,-82
-19,-82,-63,51,21,-73,34,87,-14,-87,-92,-82
-19,-82,-63,51,21,-73,34,92,-4,-78,-87,-82
-19,-82,-63,51,21,-73,39,97,4,-78,-82,-78
-14,-78,-63,46,24,-70,39,107,14,-63,-73,-73
-4,-73,-68,39,31,-70,34,112,19,-58,-68,-73
-4,-58,-53,31,24,-56,34,122,34,-53,-58,-63
0,-58,-58,29,29,-58,34,131,43,-39,-48,-53
9,-43,-53,17,31,-48,34,146,53,-29,-43,-48
9,-34,-43,12,26,-39,29,151,68,-19,-39,-43
24,-19,-43,-2,34,-31,29,161,82,-9,-29,-34
19,-14,-34,-2,26,-24,29,170,97,4,-14,-24
29,4,-24,-17,26,-9,29,185,112,24,0,-9
39,9,-29,-24,34,-9,34,195,122,39,14,4
48,24,-24,-36,36,0,34,214,141,58,24,19
53,34,-19,-43,36,7,39,219,161,73,43,29
63,48,-14,-56,39,17,39,234,180,97,58,43
82,68,-14,-75,48,26,34,239,195,102,68,58
97,82,-14,-90,56,34,29,253,209,117,87,78
107,87,-19,-97,63,34,19,263,219,126,92,87
102,97,-4,-100,53,46,14,278,229,136,97,92
117,117,0,-117,58,58,9,283,244,151,117,107
122,131,9,-126,56,70,9,287,263,161,126,122
131,151,19,-141,56,85,9,297,273,175,141,131
136,165,29,-151,53,97,9,302,283,180,156,136
141,175,34,-158,53,104,-4,302,287,190,161,146
146,175,29,-161,58,102,-9,302,297,195,165,156
151,190,39,-170,56,114,-14,302,312,200,180,161
156,204,48,-180,53,126,-14,302,312,209,180,170
156,209,53,-183,51,131,-14,287,302,204,180,170
156,214,58,-185,48,136,-14,273,287,195,185,170
156,219,63,-187,46,141,-14,253,278,190,185,175
146,219,73,-183,36,146,-19,229,258,185,180,170
126,209,82,-168,21,146,-19,200,253,180,161,151
117,204,87,-161,14,146,-19,175,219,161,156,136
102,190,87,-146,7,139,-14,156,200,146,136,131
92,161,68,-126,12,114,-14,131,175,131,117,112
92,156,63,-124,14,109,-14,102,141,97,102,97
78,151,73,-114,2,112,-14,87,107,68,82,82
53,122,68,-87,-7,95,-14,68,87,58,63,58
34,97,63,-65,-14,80,-14,48,63,48,43,39
29,87,58,-58,-14,73,-14,34,43,24,34,34
14,78,63,-46,-24,70,-9,19,24,9,24,19
9,63,53,-36,-21,58,4,9,19,4,9,4
-4,53,58,-24,-31,56,4,0,0,-9,-4,-9
0,39,39,-19,-19,39,4,-9,-14,-19,-14,-14
-4,39,43,-17,-24,41,4,-14,-14,-19,-19,-14
-14,24,39,-4,-26,31,4,-19,-34,-29,-34,-29
-24,0,24,12,-24,12,14,-19,-34,-29,-34,-29
-24,-4,19,14,-21,7,14,-24,-39,-39,-43,-34
-24,-4,19,14,-21,7,14,-24,-43,-48,-48,-39
-24,0,24,12,-24,12,14,-24,-53,-53,-43,-48
-19,0,19,9,-19,9,14,-29,-48,-53,-43,-48
-24,-4,19,14,-21,7,19,-29,-48,-48,-48,-48
-24,-9,14,17,-19,2,19,-29,-48,-48,-53,-48
-24,-14,9,19,-17,-2,19,-24,-48,-58,-53,-43
-24,-14,9,19,-17,-2,19,-24,-48,-58,-53,-39
-24,-14,9,19,-17,-2,19,-24,-48,-53,-48,-39
-24,-14,9,19,-17,-2,14,-24,-48,-53,-48,-43
-24,-19,4,21,-14,-7,19,-24,-48,-53,-48,-43
-24,-19,4,21,-14,-7,19,-24,-48,-53,-48,-48
-24,-14,9,19,-17,-2,14,-19,-48,-58,-48,-53
-29,-14,14,21,-21,0,9,-19,-48,-58,-48,-53
-34,-24,9,29,-21,-7,9,-24,-48,-53,-43,-53
-34,-24,9,29,-21,-7,9,-29,-48,-48,-43,-48
-34,-24,9,29,-21,-7,19,-24,-48,-48,-43,-48
-34,-24,9,29,-21,-7,19,-19,-43,-48,-43,-48
-34,-24,9,29,-21,-7,14,-14,-43,-48,-43,-53
-29,-14,14,21,-21,0,14,-9,-43,-48,-43,-53
-29,-19,9,24,-19,-4,19,-9,-39,-48,-43,-48
-29,-14,14,21,-21,0,19,-9,-34,-48,-43,-48
-29,-14,14,21,-21,0,19,-9,-34,-39,-43,-48
-29,-14,14,21,-21,0,19,-14,-29,-34,-43,-48
-29,-24,4,26,-17,-9,19,-9,-29,-39,-43,-43
-29,-34,-4,31,-12,-19,19,-9,-29,-39,-43,-39
-24,-39,-14,31,-4,-26,24,-4,-29,-39,-39,-39
-24,-39,-14,31,-4,-26,24,-4,-19,-39,-39,-39
-24,-29,-4,26,-9,-17,19,-4,-29,-43,-43,-43
-24,-29,-4,26,-9,-17,14,-4,-39,-48,-48,-48
-29,-34,-4,31,-12,-19,14,-4,-39,-48,-48,-48
-29,-39,-9,34,-9,-24,19,-4,-34,-43,-43,-48
-29,-39,-9,34,-9,-24,24,-9,-34,-43,-43,-43
-29,-39,-9,34,-9,-24,24,-14,-34,-43,-43,-43
-24,-39,-14,31,-4,-26,19,-19,-34,-48,-48,-48
-24,-39,-14,31,-4,-26,9,-19,-34,-53,-53,-48
-24,-34,-9,29,-7,-21,9,-24,-39,-53,-48,-48
-19,-34,-14,26,-2,-24,9,-24,-39,-53,-48,-39
-19,-34,-14,26,-2,-24,9,-24,-43,-53,-48,-43
-19,-29,-9,24,-4,-19,9,-29,-58,-53,-53,-53
-24,-29,-4,26,-9,-17,9,-29,-58,-58,-53,-53
-24,-29,-4,26,-9,-17,9,-29,-58,-63,-53,-53
-24,-29,-4,26,-9,-17,9,-34,-53,-58,-53,-53
-19,-29,-9,24,-4,-19,9,-34,-48,-48,-43,-48
-24,-9,14,17,-19,2,14,-29,-43,-43,-34,-39
-29,9,39,9,-34,24,19,-29,-39,-39,-29,-29
-29,9,39,9,-34,24,19,-29,-39,-39,-29,-29
-29,9,39,9,-34,24,19,-29,-39,-39,-29,-29
-29,9,39,9,-34,24,24,-29,-39,-39,-34,-34
-29,14,43,7,-36,29,24,-29,-34,-39,-34,-34
-29,24,53,2,-41,39,29,-29,-34,-39,-39,-39
-24,34,58,-4,-41,46,24,-29,-34,-39,-34,-34
-24,48,73,-12,-48,61,19,-34,-34,-34,-29,-29
-19,53,73,-17,-46,63,4,-43,-34,-29,-24,-24
-9,63,73,-26,-41,68,-9,-48,-34,-29,-24,-24
0,68,68,-34,-34,68,-24,-58,-43,-34,-24,-24
0,68,68,-34,-34,68,-43,-63,-53,-43,-24,-24
-4,73,78,-34,-41,75,-53,-73,-63,-48,-24,-24
-4,92,97,-43,-51,95,-53,-87,-68,-48,-24,-19
-4,107,112,-51,-58,109,-53,-92,-68,-48,-19,-19
4,126,122,-65,-58,124,-58,-92,-63,-43,-9,-9
19,126,107,-73,-43,117,-58,-82,-53,-39,4,9
34,126,92,-80,-29,109,-53,-73,-48,-34,4,9
39,107,68,-73,-14,87,-48,-68,-48,-29,4,9
39,102,63,-70,-12,82,-43,-63,-53,-29,0,4
9,78,68,-43,-29,73,-39,-63,-58,-39,-14,-4
-9,43,53,-17,-31,48,-24,-68,-73,-58,-29,-19
-29,14,43,7,-36,29,-24,-73,-92,-78,-48,-39
-48,-19,29,34,-39,4,-14,-73,-97,-78,-68,-58
-58,-34,24,46,-41,-4,-9,-78,-102,-82,-68,-63
-53,-34,19,43,-36,-7,-9,-78,-102,-82,-73,-68
-48,-39,9,43,-29,-14,-4,-73,-102,-87,-82,-78
-48,-53,-4,51,-21,-29,0,-68,-102,-87,-82,-78
-48,-58,-9,53,-19,-34,0,-63,-102,-92,-82,-78
-43,-58,-14,51,-14,-36,4,-63,-102,-92,-82,-78
-43,-58,-14,51,-14,-36,4,-63,-102,-92,-87,-82
-43,-68,-24,56,-9,-46,4,-63,-107,-92,-92,-82
-48,-73,-24,61,-12,-48,4,-58,-107,-92,-92,-82
-48,-73,-24,61,-12,-48,4,-58,-107,-97,-92,-78
-48,-78,-29,63,-9,-53,9,-53,-107,-97,-92,-78
-48,-78,-29,63,-9,-53,9,-48,-102,-97,-87,-82
-48,-78,-29,63,-9,-53,9,-48,-97,-97,-87,-82
-53,-82,-29,68,-12,-56,9,-48,-97,-97,-87,-78
-53,-82,-29,68,-12,-56,14,-43,-92,-97,-87,-78
-58,-92,-34,75,-12,-63,14,-43,-92,-97,-87,-78
-63,-97,-34,80,-14,-65,14,-39,-92,-97,-87,-78
-63,-97,-34,80,-14,-65,24,-39,-92,-102,-92,-78
-63,-102,-39,82,-12,-70,34,-34,-92,-112,-107,-87
-78,-126,-48,102,-14,-87,48,-24,-97,-136,-122,-112
-102,-165,-63,134,-19,-114,87,0,-107,-165,-165,-156
-131,-214,-82,173,-24,-148,126,29,-126,-209,-229,-214
-165,-248,-82,207,-41,-165,185,48,-146,-273,-302,-278
-204,-244,-39,224,-82,-141,234,82,-156,-307,-331,-307
-214,-209,4,212,-109,-102,278,131,-131,-302,-312,-302
-136,-131,4,134,-70,-63,287,268,24,-146,-185,-204
43,-14,-58,-14,51,-36,239,453,307,151,48,4
200,200,0,-200,100,100,126,463,566,488,380,287
370,512,141,-441,114,326,-97,214,678,824,775,619
522,810,287,-666,117,549,-366,-87,702,1141,1137,922
614,873,258,-744,178,566,-546,-292,854,1566,1454,1161
629,649,19,-639,305,334,-561,-331,1083,1878,1512,1180
468,546,78,-507,195,312,-522,-497,946,1678,1307,976
180,429,248,-305,-34,339,-414,-692,400,1005,766,590
-58,248,307,-95,-183,278,-351,-941,-439,34,97,131
-224,102,326,61,-275,214,-263,-1034,-1058,-732,-424,-185
-239,29,268,104,-253,148,-209,-868,-985,-727,-409,-214
-229,-68,161,148,-195,46,-180,-697,-790,-605,-380,-234
-234,-122,112,178,-173,-4,-161,-595,-702,-556,-375,-263
-214,-131,82,173,-148,-24,-156,-507,-585,-468,-336,-253
-180,-107,73,143,-126,-17,-126,-395,-453,-356,-263,-195
-131,-92,39,112,-85,-26,-92,-244,-297,-253,-200,-151
-87,-82,4,85,-46,-39,-43,-122,-195,-175,-151,-126
-63,-82,-19,73,-21,-51,-9,-82,-146,-151,-122,-107
-63,-92,-29,78,-17,-61,9,-58,-117,-131,-102,-92
-53,-112,-58,82,2,-85,14,-48,-107,-126,-102,-92
-53,-117,-63,85,4,-90,24,-24,-92,-122,-107,-97
-58,-122,-63,90,2,-92,24,-24,-97,-122,-107,-102
-63,-126,-63,95,0,-95,24,-29,-102,-122,-107,-102
-58,-131,-73,95,7,-102,29,-19,-92,-122,-112,-102
-53,-131,-78,92,12,-104,39,-9,-82,-122,-112,-107
-48,-126,-78,87,14,-102,43,0,-78,-117,-112,-107
-48,-122,-73,85,12,-97,43,0,-78,-117,-107,-107
-48,-122,-73,85,12,-97,39,0,-73,-117,-102,-107
-48,-126,-78,87,14,-102,39,4,-73,-117,-102,-107
-43,-126,-82,85,19,-104,39,9,-73,-112,-102,-102
-39,-126,-87,82,24,-107,43,14,-73,-107,-102,-97
-43,-126,-82,85,19,-104,43,19,-68,-107,-102,-97
-43,-126,-82,85,19,-104,48,24,-63,-102,-97,-97
-39,-126,-87,82,24,-107,48,24,-63,-102,-97,-97
-34,-126,-92,80,29,-109,53,34,-53,-97,-97,-97
-34,-122,-87,78,26,-104,53,34,-53,-97,-97,-92
-39,-122,-82,80,21,-102,53,39,-48,-92,-102,-92
-39,-122,-82,80,21,-102,53,43,-43,-87,-102,-92
-39,-122,-82,80,21,-102,53,48,-39,-87,-102,-92
-39,-117,-78,78,19,-97,53,53,-34,-87,-102,-97
-39,-117,-78,78,19,-97,53,53,-29,-82,-97,-102
-34,-107,-73,70,19,-90,53,58,-29,-78,-97,-97
-29,-107,-78,68,24,-92,53,63,-24,-82,-92,-92
-29,-102,-73,65,21,-87,53,68,-14,-78,-87,-92
-29,-102,-73,65,21,-87,53,73,-4,-68,-87,-92
-29,-102,-73,65,21,-87,58,78,4,-68,-82,-87
-24,-97,-73,61,24,-85,58,87,14,-53,-73,-82
-9,-92,-82,51,36,-87,53,97,19,-48,-68,-82
-4,-78,-73,41,34,-75,53,112,34,-43,-58,-73
0,-78,-78,39,39,-78,53,122,43,-29,-48,-58
9,-63,-73,26,41,-68,53,136,53,-19,-43,-48
9,-58,-68,24,39,-63,48,141,68,-9,-34,-43
24,-48,-73,12,48,-61,48,151,82,0,-19,-34
24,-48,-73,12,48,-61,48,165,97,9,-4,-24
39,-34,-73,-2,56,-53,48,185,112,24,9,-9
48,-29,-78,-9,63,-53,48,195,122,39,19,0
58,-14,-73,-21,65,-43,43,214,141,58,24,9
63,0,-63,-31,63,-31,43,219,156,63,43,19
73,19,-53,-46,63,-17,39,234,170,78,58,34
78,39,-39,-58,58,0,34,239,185,87,68,48
78,53,-24,-65,51,14,29,253,200,107,87,68
97,58,-39,-78,68,9,19,263,219,122,102,82
102,68,-34,-85,68,17,14,278,239,136,117,92
117,87,-29,-102,73,29,9,283,248,151,131,107
122,102,-19,-112,70,41,9,287,263,161,136,122
136,122,-14,-129,75,53,9,297,278,180,156,141
146,136,-9,-141,78,63,9,302,292,190,175,156
151,146,-4,-148,78,70,-4,302,297,204,180,165
156,146,-9,-151,82,68,-9,302,307,214,185,175
161,161,0,-161,80,80,-14,302,322,219,204,185
165,175,9,-170,78,92,-14,302,322,229,209,200
170,185,14,-178,78,100,-19,287,326,234,209,204
175,195,19,-185,78,107,-24,273,326,234,214,209
175,200,24,-187,75,112,-24,253,317,219,214,209
165,200,34,-183,65,117,-29,229,297,204,209,200
146,180,34,-163,56,107,-29,200,292,209,190,190
136,165,29,-151,53,97,-29,175,258,200,185,185
122,170,48,-146,36,109,-19,156,234,180,175,175
112,161,48,-136,31,104,-14,131,204,161,165,151
102,146,43,-124,29,95,-14,97,175,136,146,136
78,131,53,-104,12,92,-14,78,146,117,122,122
63,112,48,-87,7,80,-19,58,122,97,102,97
53,97,43,-75,4,70,-24,39,92,78,82,78
48,87,39,-68,4,63,-24,19,68,58,68,68
34,78,43,-56,-4,61,-19,0,43,48,53,48
29,58,29,-43,0,43,-4,-9,39,39,39,34
14,43,29,-29,-7,36,-4,-19,19,19,24,19
14,19,4,-17,4,12,-4,-24,4,4,19,9
4,9,4,-7,0,7,-4,-24,4,0,19,4
-4,0,4,2,-4,2,-4,-29,-14,-9,4,-9
-14,-19,-4,17,-4,-12,4,-29,-14,-9,4,-9
-14,-19,-4,17,-4,-12,4,-39,-19,-19,-9,-19
-14,-14,0,14,-7,-7,4,-43,-24,-29,-19,-29
-19,-14,4,17,-12,-4,4,-43,-39,-34,-19,-39
-19,-19,0,19,-9,-9,4,-48,-39,-34,-24,-39
-24,-24,0,24,-12,-12,9,-48,-39,-34,-29,-39
-24,-29,-4,26,-9,-17,9,-48,-39,-39,-34,-39
-24,-34,-9,29,-7,-21,9,-43,-43,-48,-34,-39
-24,-34,-9,29,-7,-21,9,-43,-48,-48,-34,-39
-24,-34,-9,29,-7,-21,14,-43,-48,-43,-34,-39
-24,-34,-9,29,-7,-21,14,-43,-48,-43,-39,-43
-24,-39,-14,31,-4,-26,19,-43,-48,-43,-39,-43
-24,-39,-14,31,-4,-26,19,-43,-48,-43,-39,-48
-24,-34,-9,29,-7,-21,14,-39,-48,-48,-39,-53
-29,-34,-4,31,-12,-19,9,-39,-48,-48,-39,-53
-34,-43,-9,39,-12,-26,9,-39,-48,-48,-39,-53
-34,-43,-9,39,-12,-26,9,-39,-48,-48,-43,-48
-29,-39,-9,34,-9,-24,19,-34,-48,-48,-43,-48
-24,-34,-9,29,-7,-21,19,-29,-43,-48,-43,-48
-24,-34,-9,29,-7,-21,14,-24,-39,-43,-43,-48
-19,-24,-4,21,-7,-14,14,-19,-34,-39,-43,-43
-24,-48,-24,36,0,-36,19,-19,-34,-39,-43,-39
-29,-63,-34,46,2,-48,19,-19,-34,-39,-43,-39
-29,-53,-24,41,-2,-39,19,-19,-34,-34,-43,-39
-29,-43,-14,36,-7,-29,19,-24,-29,-34,-43,-39
-29,-43,-14,36,-7,-29,19,-19,-24,-39,-43,-39
-29,-43,-14,36,-7,-29,19,-19,-19,-39,-43,-39
-24,-53,-29,39,2,-41,24,-14,-19,-34,-39,-39
-24,-58,-34,41,4,-46,24,-14,-9,-29,-39,-39
-24,-48,-24,36,0,-36,19,-14,-14,-29,-39,-43
-24,-48,-24,36,0,-36,14,-14,-19,-29,-39,-48
-29,-48,-19,39,-4,-34,14,-14,-24,-34,-39,-48
-29,-48,-19,39,-4,-34,19,-14,-24,-34,-34,-48
-29,-48,-19,39,-4,-34,24,-14,-24,-34,-34,-43
-29,-48,-19,39,-4,-34,24,-14,-24,-34,-34,-43
-29,-53,-24,41,-2,-39,24,-19,-24,-34,-39,-48
-34,-58,-24,46,-4,-41,19,-19,-24,-34,-43,-48
-34,-53,-19,43,-7,-36,19,-24,-29,-34,-39,-48
-29,-53,-24,41,-2,-39,19,-24,-29,-34,-39,-39
-29,-58,-29,43,0,-43,19,-24,-29,-34,-39,-39
-29,-58,-29,43,0,-43,19,-29,-39,-34,-43,-43
-34,-58,-24,46,-4,-41,14,-29,-39,-39,-43,-43
-34,-58,-24,46,-4,-41,9,-29,-39,-43,-43,-43
-39,-58,-19,48,-9,-39,9,-34,-43,-48,-48,-48
-39,-58,-19,48,-9,-39,9,-34,-48,-53,-48,-48
-34,-63,-29,48,-2,-46,9,-34,-48,-48,-53,-43
-34,-53,-19,43,-7,-36,4,-34,-48,-48,-58,-43
-34,-48,-14,41,-9,-31,4,-34,-53,-53,-48,-43
-29,-39,-9,34,-9,-24,4,-29,-48,-48,-48,-48
-34,-43,-9,39,-12,-26,4,-29,-58,-58,-53,-53
-34,-53,-19,43,-7,-36,4,-29,-58,-63,-53,-58
-39,-58,-19,48,-9,-39,4,-39,-53,-63,-48,-58
-39,-58,-19,48,-9,-39,4,-39,-53,-58,-48,-53
-39,-58,-19,48,-9,-39,4,-34,-58,-58,-53,-53
-39,-58,-19,48,-9,-39,4,-29,-63,-63,-53,-53
-34,-63,-29,48,-2,-46,4,-24,-68,-63,-53,-53
-34,-63,-29,48,-2,-46,4,-19,-68,-63,-53,-58
-34,-53,-19,43,-7,-36,9,-29,-68,-63,-53,-63
-34,-48,-14,41,-9,-31,9,-34,-68,-63,-53,-63
-39,-68,-29,53,-4,-48,9,-39,-68,-68,-58,-63
-43,-78,-34,61,-4,-56,9,-39,-68,-73,-58,-63
-39,-58,-19,48,-9,-39,9,-29,-63,-63,-48,-53
-34,-43,-9,39,-12,-26,14,-24,-58,-58,-43,-48
-29,-24,4,26,-17,-9,14,-19,-53,-48,-34,-43
-29,-9,19,19,-24,4,19,-19,-48,-39,-29,-39
-29,0,29,14,-29,14,19,-24,-48,-39,-29,-39
-29,9,39,9,-34,24,19,-29,-48,-39,-29,-39
-29,14,43,7,-36,29,19,-29,-48,-39,-34,-39
-29,14,43,7,-36,29,19,-24,-43,-39,-34,-34
-29,14,43,7,-36,29,19,-24,-43,-39,-34,-34
-34,19,53,7,-43,36,19,-24,-43,-34,-29,-29
-29,24,53,2,-41,39,4,-34,-39,-29,-24,-24
-19,34,53,-7,-36,43,-9,-39,-34,-29,-24,-24
-9,39,48,-14,-29,43,-24,-48,-39,-29,-24,-24
-9,39,48,-14,-29,43,-39,-53,-43,-34,-24,-24
-9,39,48,-14,-29,43,-43,-53,-53,-39,-24,-24
-4,48,53,-21,-29,51,-43,-58,-58,-39,-29,-19
-4,58,63,-26,-34,61,-48,-73,-58,-39,-29,-19
0,78,78,-39,-39,78,-58,-82,-58,-34,-19,-14
9,87,78,-48,-34,82,-58,-73,-53,-24,0,4
24,97,73,-61,-24,85,-58,-63,-48,-19,4,9
43,87,43,-65,0,65,-58,-53,-43,-19,9,14
58,92,34,-75,12,63,-53,-43,-39,-19,9,14
29,78,48,-53,-9,63,-48,-43,-39,-19,4,4
9,53,43,-31,-17,48,-34,-48,-53,-29,0,-9
-14,14,29,0,-21,21,-34,-53,-78,-63,-34,-29
-29,-24,4,26,-17,-9,-24,-53,-87,-78,-68,-48
-43,-43,0,43,-21,-21,-19,-58,-92,-82,-68,-63
-53,-53,0,53,-26,-26,-19,-58,-92,-82,-68,-73
-48,-58,-9,53,-19,-34,-14,-53,-92,-87,-73,-78
-48,-73,-24,61,-12,-48,-9,-48,-92,-87,-73,-78
-43,-78,-34,61,-4,-56,-14,-48,-92,-97,-73,-73
-39,-78,-39,58,0,-58,-14,-53,-92,-102,-73,-68
-43,-63,-19,53,-12,-41,-14,-53,-92,-102,-78,-73
-43,-58,-14,51,-14,-36,-14,-53,-97,-102,-82,-73
-48,-73,-24,61,-12,-48,-9,-43,-97,-97,-82,-78
-48,-82,-34,65,-7,-58,-4,-39,-97,-97,-82,-78
-53,-87,-34,70,-9,-61,4,-34,-97,-97,-82,-78
-58,-87,-29,73,-14,-58,9,-34,-97,-97,-82,-82
-58,-87,-29,73,-14,-58,9,-39,-97,-97,-87,-82
-63,-92,-29,78,-17,-61,9,-39,-97,-97,-87,-82
-58,-92,-34,75,-12,-63,14,-34,-92,-97,-87,-82
-53,-97,-43,75,-4,-70,14,-34,-92,-97,-87,-78
-48,-92,-43,70,-2,-68,14,-29,-92,-92,-82,-78
-43,-87,-43,65,0,-65,19,-29,-92,-87,-78,-78
-43,-92,-48,68,2,-70,19,-29,-92,-92,-87,-82
-58,-117,-58,87,0,-87,29,-24,-97,-117,-102,-97
-87,-156,-68,122,-9,-112,63,0,-102,-136,-141,-136
-122,-204,-82,163,-19,-143,97,34,-117,-175,-200,-195
-156,-244,-87,200,-34,-165,156,58,-136,-244,-273,-263
-200,-248,-48,224,-75,-148,209,92,-146,-283,-312,-302
-253,-248,4,251,-129,-122,273,122,-175,-341,-351,-336
-229,-209,19,219,-124,-95,302,234,-82,-253,-278,-287
-43,-146,-102,95,29,-124,297,502,219,4,-92,-126
131,34,-97,-82,114,-31,224,600,492,312,195,122
322,375,53,-348,134,214,9,351,600,629,590,473
492,732,239,-612,126,485,-258,19,610,932,980,829
639,893,253,-766,192,573,-517,-287,736,1415,1390,1161
722,707,-14,-714,368,346,-600,-361,1024,1849,1576,1268
605,605,0,-605,302,302,-575,-473,1093,1922,1571,1185
346,492,146,-419,100,319,-488,-653,722,1454,1117,858
34,297,263,-165,-114,280,-409,-971,-204,370,326,297
-204,151,356,26,-280,253,-302,-1137,-995,-580,-302,-97
-239,68,307,85,-273,187,-239,-976,-1049,-722,-366,-165
-244,-39,204,141,-224,82,-195,-805,-907,-663,-380,-214
-248,-107,141,178,-195,17,-180,-692,-790,-610,-390,-263
-234,-131,102,183,-168,-14,-185,-595,-663,-527,-366,-273
-200,-107,92,153,-146,-7,-156,-483,-531,-414,-292,-214
-156,-92,63,124,-109,-14,-122,-331,-380,-312,-229,-170
-107,-78,29,92,-68,-24,-73,-170,-248,-214,-165,-136
-73,-73,0,73,-36,-36,-39,-92,-165,-165,-122,-107
-73,-82,-9,78,-31,-46,-14,-58,-131,-136,-102,-92
-63,-102,-39,82,-12,-70,-4,-39,-117,-126,-102,-92
-63,-112,-48,87,-7,-80,4,-14,-102,-122,-107,-97
-58,-117,-58,87,0,-87,4,-9,-102,-122,-107,-102
-53,-122,-68,87,7,-95,4,-9,-102,-126,-107,-102
-48,-131,-82,90,17,-107,9,0,-92,-126,-107,-97
-43,-131,-87,87,21,-109,19,9,-82,-122,-102,-97
-43,-131,-87,87,21,-109,24,19,-78,-117,-102,-97
-43,-126,-82,85,19,-104,24,19,-78,-112,-92,-97
-39,-122,-82,80,21,-102,19,19,-73,-107,-87,-97
-34,-126,-92,80,29,-109,19,24,-73,-107,-92,-97
-29,-126,-97,78,34,-112,19,29,-73,-107,-92,-97
-29,-126,-97,78,34,-112,24,34,-73,-107,-97,-97
-34,-126,-92,80,29,-109,24,34,-68,-107,-102,-97
-43,-122,-78,82,17,-100,29,34,-63,-102,-97,-97
-48,-117,-68,82,9,-92,29,34,-63,-102,-97,-97
-43,-117,-73,80,14,-95,34,48,-53,-97,-97,-97
-39,-112,-73,75,17,-92,34,53,-53,-97,-92,-92
-39,-112,-73,75,17,-92,34,58,-48,-97,-92,-92
-39,-112,-73,75,17,-92,34,63,-43,-97,-92,-92
-39,-112,-73,75,17,-92,34,68,-43,-97,-92,-87
-39,-107,-68,73,14,-87,34,73,-43,-97,-92,-82
-39,-107,-68,73,14,-87,34,73,-39,-92,-87,-82
-34,-97,-63,65,14,-80,34,82,-34,-82,-87,-78
-29,-97,-68,63,19,-82,34,87,-24,-82,-82,-78
-29,-92,-63,61,17,-78,34,87,-14,-78,-78,-82
-29,-92,-63,61,17,-78,34,87,-9,-73,-82,-82
-29,-92,-63,61,17,-78,39,87,-4,-78,-82,-78
-19,-87,-68,53,24,-78,39,97,4,-63,-73,-73
-4,-82,-78,43,36,-80,34,102,9,-58,-68,-73
-4,-73,-68,39,31,-70,34,117,24,-53,-58,-63
0,-78,-78,39,39,-78,34,131,34,-39,-48,-53
4,-63,-68,29,36,-65,29,146,39,-34,-43,-48
0,-58,-58,29,29,-58,19,151,48,-29,-39,-43
14,-39,-53,12,34,-46,19,161,63,-19,-29,-34
14,-24,-39,4,26,-31,19,175,78,-4,-14,-24
29,-4,-34,-12,31,-19,19,195,92,14,0,-9
39,0,-39,-19,39,-19,19,204,102,29,14,4
48,9,-39,-29,43,-14,14,224,122,39,19,19
53,14,-39,-34,46,-12,14,229,141,43,34,29
63,24,-39,-43,51,-7,9,244,156,68,48,43
73,39,-34,-56,53,2,4,248,170,78,58,58
78,53,-24,-65,51,14,4,268,190,102,78,78
97,63,-34,-80,65,14,0,283,209,117,92,92
102,78,-24,-90,63,26,-4,297,224,126,107,102
117,97,-19,-107,68,39,-9,302,234,141,126,117
126,117,-9,-122,68,53,-14,297,253,151,131,126
146,141,-4,-143,75,68,-19,302,268,175,151,141
161,161,0,-161,80,80,-19,322,283,185,175,156
170,175,4,-173,82,90,-34,331,297,200,185,170
175,175,0,-175,87,87,-39,331,317,214,200,190
180,190,9,-185,85,100,-43,331,336,229,224,204
190,209,19,-200,85,114,-48,336,341,248,229,224
195,219,24,-207,85,122,-53,331,346,253,234,229
195,224,29,-209,82,126,-53,322,356,258,244,229
195,229,34,-212,80,131,-53,302,356,258,244,229
190,234,43,-212,73,139,-58,283,336,253,248,234
175,229,53,-202,61,141,-58,258,326,248,234,229
165,224,58,-195,53,141,-58,234,302,244,234,214
151,219,68,-185,41,143,-58,209,278,224,219,204
141,204,63,-173,39,134,-63,180,244,200,195,180
131,190,58,-161,36,124,-63,146,214,175,175,165
102,170,68,-136,17,119,-63,126,180,146,151,146
82,151,68,-117,7,109,-58,107,156,126,131,117
68,136,68,-102,0,102,-48,82,122,112,112,97
58,126,68,-92,-4,97,-43,58,97,87,92,87
43,112,68,-78,-12,90,-39,39,73,68,78,68
39,87,48,-63,-4,68,-24,29,63,58,68,53
24,68,43,-46,-9,56,-19,19,39,39,53,39
24,48,24,-36,0,36,-14,9,24,24,43,29
9,43,34,-26,-12,39,-14,0,19,14,34,19
-4,29,34,-12,-19,31,-14,-9,-4,0,14,0
-14,4,19,4,-17,12,0,-9,-4,0,14,0
-14,-4,9,9,-12,2,4,-14,-9,-9,4,-4
-14,-4,9,9,-12,2,4,-19,-14,-19,-4,-9
-19,-4,14,12,-17,4,4,-24,-29,-24,-9,-19
-24,-9,14,17,-19,2,4,-29,-29,-24,-14,-19
-34,-14,19,24,-26,2,9,-29,-29,-24,-19,-19
-39,-24,14,31,-26,-4,4,-29,-29,-29,-24,-24
-43,-34,9,39,-26,-12,0,-29,-34,-39,-24,-29
-43,-34,9,39,-26,-12,0,-29,-39,-39,-24,-29
-43,-34,9,39,-26,-12,4,-24,-39,-34,-24,-29
-39,-34,4,36,-21,-14,4,-24,-39,-39,-29,-34
-34,-39,-4,36,-14,-21,9,-24,-39,-43,-29,-34
-34,-39,-4,36,-14,-21,14,-29,-43,-43,-34,-39
-34,-34,0,34,-17,-17,14,-29,-48,-48,-39,-43
-34,-29,4,31,-19,-12,9,-29,-48,-48,-39,-43
-34,-34,0,34,-17,-17,9,-29,-48,-48,-39,-43
-34,-34,0,34,-17,-17,9,-29,-48,-48,-43,-39
-34,-34,0,34,-17,-17,19,-24,-48,-48,-43,-39
-43,-43,0,43,-21,-21,19,-19,-43,-48,-43,-39
-53,-53,0,53,-26,-26,14,-19,-43,-48,-43,-43
-48,-43,4,46,-26,-19,14,-19,-39,-48,-43,-43
-48,-53,-4,51,-21,-29,19,-19,-34,-48,-43,-39
-43,-53,-9,48,-17,-31,19,-19,-34,-48,-43,-43
-39,-53,-14,46,-12,-34,19,-14,-34,-43,-43,-48
-39,-39,0,39,-19,-19,19,-14,-34,-43,-43,-48
-39,-24,14,31,-26,-4,19,-9,-39,-48,-43,-48
-48,-43,4,46,-26,-19,19,-9,-39,-48,-43,-48
-53,-63,-9,58,-21,-36,24,-4,-39,-43,-39,-48
-53,-68,-14,61,-19,-41,24,0,-29,-39,-39,-53
-53,-68,-14,61,-19,-41,24,4,-29,-39,-39,-58
-48,-58,-9,53,-19,-34,24,4,-29,-43,-48,-58
-48,-53,-4,51,-21,-29,24,4,-29,-48,-58,-58
-48,-58,-9,53,-19,-34,34,4,-24,-43,-53,-58
-48,-58,-9,53,-19,-34,39,4,-24,-43,-53,-53
-48,-58,-9,53,-19,-34,34,4,-29,-48,-53,-53
-43,-58,-14,51,-14,-36,29,0,-34,-53,-53,-58
-48,-58,-9,53,-19,-34,19,0,-34,-53,-53,-58
-53,-53,0,53,-26,-26,19,-4,-39,-53,-48,-58
-48,-53,-4,51,-21,-29,19,-4,-34,-48,-48,-53
-48,-58,-9,53,-19,-34,19,-4,-29,-43,-48,-58
-43,-58,-14,51,-14,-36,19,-9,-39,-43,-53,-63
-43,-58,-14,51,-14,-36,19,-9,-39,-48,-53,-63
-43,-58,-14,51,-14,-36,19,-9,-39,-53,-53,-63
-43,-58,-14,51,-14,-36,19,-14,-39,-53,-58,-63
-43,-68,-24,56,-9,-46,19,-14,-39,-53,-58,-58
-43,-78,-34,61,-4,-56,19,-14,-39,-48,-53,-53
-43,-63,-19,53,-12,-41,9,-19,-43,-48,-48,-53
-48,-58,-9,53,-19,-34,4,-29,-58,-58,-48,-58
-43,-39,4,41,-24,-17,4,-29,-58,-53,-53,-63
-48,-43,4,46,-26,-19,4,-29,-68,-58,-58,-63
-53,-48,4,51,-29,-21,4,-29,-68,-63,-63,-68
-58,-39,19,48,-39,-9,4,-39,-63,-68,-63,-73
-53,-53,0,53,-26,-26,9,-34,-53,-63,-58,-63
-48,-73,-24,61,-12,-48,14,-24,-48,-58,-53,-53
-48,-68,-19,58,-14,-43,14,-19,-53,-63,-53,-53
-43,-63,-19,53,-12,-41,14,-19,-58,-63,-53,-53
-48,-63,-14,56,-17,-39,14,-19,-68,-68,-58,-58
-53,-63,-9,58,-21,-36,14,-29,-68,-73,-63,-68
-53,-68,-14,61,-19,-41,9,-34,-68,-73,-68,-73
-58,-68,-9,63,-24,-39,9,-39,-78,-73,-73,-73
-58,-58,0,58,-29,-29,9,-39,-78,-73,-73,-73
-53,-58,-4,56,-24,-31,4,-39,-78,-73,-68,-73
-53,-58,-4,56,-24,-31,4,-39,-73,-73,-63,-68
-53,-58,-4,56,-24,-31,9,-39,-68,-73,-58,-68
-53,-63,-9,58,-21,-36,9,-39,-68,-73,-58,-63
-53,-58,-4,56,-24,-31,9,-34,-68,-68,-58,-58
-53,-58,-4,56,-24,-31,4,-34,-73,-68,-58,-63
-53,-58,-4,56,-24,-31,4,-39,-73,-68,-63,-63
-53,-63,-9,58,-21,-36,9,-39,-73,-68,-63,-68
-48,-58,-9,53,-19,-34,9,-39,-73,-68,-63,-68
-53,-58,-4,56,-24,-31,9,-39,-68,-68,-68,-68
-53,-58,-4,56,-24,-31,4,-43,-68,-73,-68,-68
-58,-58,0,58,-29,-29,4,-43,-68,-73,-68,-68
-58,-58,0,58,-29,-29,4,-43,-68,-73,-68,-68
-58,-58,0,58,-29,-29,0,-39,-68,-68,-68,-63
-58,-58,0,58,-29,-29,0,-39,-68,-68,-68,-58
-58,-58,0,58,-29,-29,0,-39,-73,-68,-68,-58
-58,-58,0,58,-29,-29,0,-39,-78,-68,-68,-58
-58,-58,0,58,-29,-29,0,-39,-78,-73,-68,-63
-58,-58,0,58,-29,-29,0,-39,-78,-78,-68,-68
-58,-58,0,58,-29,-29,4,-39,-78,-78,-68,-68
-58,-58,0,58,-29,-29,9,-39,-78,-78,-68,-68
-58,-68,-9,63,-24,-39,9,-43,-78,-78,-68,-68
-58,-78,-19,68,-19,-48,9,-48,-78,-78,-68,-68
-58,-63,-4,61,-26,-34,4,-48,-78,-78,-68,-68
-58,-48,9,53,-34,-19,0,-48,-78,-78,-68,-68
-58,-48,9,53,-34,-19,0,-48,-78,-78,-68,-68
-58,-48,9,53,-34,-19,0,-48,-78,-78,-68,-68
-48,-43,4,46,-26,-19,4,-39,-73,-73,-63,-63
-39,-39,0,39,-19,-19,9,-29,-68,-68,-58,-58
-39,-9,29,24,-34,9,9,-29,-63,-63,-58,-58
-39,19,58,9,-48,39,9,-29,-58,-58,-58,-58
-39,4,43,17,-41,24,14,-29,-48,-58,-53,-58
-39,-9,29,24,-34,9,19,-29,-39,-58,-48,-58
-43,-4,39,24,-41,17,19,-29,-48,-58,-48,-58
-43,-4,39,24,-41,17,19,-24,-48,-53,-43,-53
-48,-4,43,26,-46,19,19,-19,-53,-53,-43,-53
-53,0,53,26,-53,26,19,-14,-53,-43,-39,-48
-48,14,63,17,-56,39,9,-24,-48,-39,-34,-39
-39,34,73,2,-56,53,0,-29,-43,-39,-34,-34
-19,39,58,-9,-39,48,-14,-39,-48,-39,-34,-34
-9,39,48,-14,-29,43,-29,-43,-53,-43,-34,-34
-14,39,53,-12,-34,46,-43,-53,-63,-48,-34,-34
-14,48,63,-17,-39,56,-53,-68,-68,-48,-39,-29
-24,58,82,-17,-53,70,-58,-82,-73,-53,-48,-29
-29,78,107,-24,-68,92,-68,-92,-78,-53,-48,-24
-19,92,112,-36,-65,102,-68,-82,-73,-48,-24,-9
-4,107,112,-51,-58,109,-68,-73,-68,-48,-14,-9
24,97,73,-61,-24,85,-68,-58,-58,-39,-4,0
48,102,53,-75,-2,78,-63,-43,-48,-29,0,4
34,87,53,-61,-9,70,-53,-43,-43,-19,0,9
29,63,34,-46,-2,48,-34,-48,-53,-19,0,9
-9,34,43,-12,-26,39,-34,-58,-73,-53,-29,-19
-39,4,43,17,-41,24,-24,-63,-78,-68,-58,-48
-53,-19,34,36,-43,7,-19,-73,-92,-82,-68,-63
-63,-34,29,48,-46,-2,-19,-78,-102,-92,-78,-73
-58,-39,19,48,-39,-9,-14,-73,-102,-97,-82,-78
-58,-53,4,56,-31,-24,-9,-68,-102,-97,-82,-78
-53,-58,-4,56,-24,-31,-9,-63,-102,-97,-82,-78
-48,-58,-9,53,-19,-34,-4,-63,-102,-92,-82,-78
-53,-58,-4,56,-24,-31,-4,-58,-102,-92,-82,-82
-53,-68,-14,61,-19,-41,-4,-53,-107,-92,-82,-82
-63,-73,-9,68,-26,-41,-4,-48,-102,-92,-82,-82
-68,-73,-4,70,-31,-39,-4,-48,-97,-97,-82,-78
-68,-78,-9,73,-29,-43,0,-43,-97,-97,-82,-78
-68,-78,-9,73,-29,-43,0,-43,-97,-97,-82,-82
-63,-78,-14,70,-24,-46,4,-53,-97,-97,-87,-82
-63,-82,-19,73,-21,-51,9,-58,-97,-97,-87,-82
-63,-82,-19,73,-21,-51,14,-53,-92,-92,-87,-82
-63,-87,-24,75,-19,-56,14,-53,-92,-87,-87,-78
-63,-87,-24,75,-19,-56,9,-48,-92,-87,-87,-78
-63,-87,-24,75,-19,-56,9,-48,-92,-87,-87,-78
-63,-82,-19,73,-21,-51,14,-43,-92,-87,-87,-82
-78,-97,-19,87,-29,-58,29,-34,-97,-107,-92,-97
-102,-126,-24,114,-39,-75,63,-9,-92,-117,-126,-131
-131,-165,-34,148,-48,-100,97,24,-97,-146,-180,-185
-165,-224,-58,195,-53,-141,156,58,-117,-214,-253,-248
-209,-248,-39,229,-85,-143,209,102,-126,-253,-292,-283
-258,-234,24,246,-141,-104,273,122,-165,-331,-346,-331
-229,-180,48,204,-139,-65,302,224,-82,-263,-287,-297
-63,-136,-73,100,4,-104,297,507,214,-14,-117,-146
92,24,-68,-58,80,-21,224,619,483,283,156,92
302,370,68,-336,117,219,9,351,590,580,541,434
492,732,239,-612,126,485,-258,0,600,863,922,780
649,927,278,-788,185,602,-531,-336,692,1371,1376,1156
741,775,34,-758,353,405,-629,-439,946,1830,1605,1307
649,673,24,-661,312,348,-600,-541,1098,1981,1644,1254
414,561,146,-488,134,353,-507,-712,810,1590,1234,956
63,346,283,-204,-109,314,-419,-1029,-131,483,414,370
-214,180,395,17,-305,287,-302,-1195,-936,-492,-244,-48
-248,107,356,70,-302,231,-239,-1044,-1029,-688,-336,-136
-253,9,263,122,-258,136,-195,-883,-927,-683,-380,-204
-268,-73,195,170,-231,61,-170,-761,-819,-629,-395,-258
-263,-112,151,187,-207,19,-165,-653,-702,-546,-375,-273
-219,-87,131,153,-175,21,-151,-536,-566,-434,-302,-214
-165,-73,92,119,-129,9,-131,-380,-409,-331,-239,-170
-117,-58,58,87,-87,0,-73,-209,-273,-229,-180,-146
-82,-53,29,68,-56,-12,-29,-122,-185,-175,-141,-126
-82,-63,19,73,-51,-21,-9,-82,-151,-146,-117,-102
-73,-82,-9,78,-31,-46,-4,-58,-136,-136,-112,-92
-73,-92,-19,82,-26,-56,4,-29,-117,-131,-117,-97
-68,-97,-29,82,-19,-63,4,-19,-112,-131,-117,-102
-63,-97,-34,80,-14,-65,4,-19,-112,-131,-112,-102
-58,-102,-43,80,-7,-73,9,-9,-102,-126,-107,-97
-53,-102,-48,78,-2,-75,19,0,-92,-122,-102,-97
-53,-102,-48,78,-2,-75,24,9,-87,-117,-102,-97
-58,-107,-48,82,-4,-78,29,14,-82,-117,-97,-97
-58,-112,-53,85,-2,-82,29,19,-73,-117,-97,-97
-58,-117,-58,87,0,-87,29,24,-73,-117,-102,-97
-58,-117,-58,87,0,-87,29,29,-73,-117,-102,-97
-53,-112,-58,82,2,-85,34,34,-73,-112,-102,-97
-53,-107,-53,80,0,-80,34,34,-68,-107,-102,-97
-53,-102,-48,78,-2,-75,39,34,-63,-102,-102,-97
-48,-97,-48,73,0,-73,39,34,-63,-102,-107,-97
-43,-97,-53,70,4,-75,43,43,-53,-102,-107,-97
-39,-92,-53,65,7,-73,43,43,-53,-107,-102,-92
-39,-97,-58,68,9,-78,43,48,-48,-102,-102,-92
-39,-102,-63,70,12,-82,43,53,-43,-97,-102,-92
-39,-107,-68,73,14,-87,39,53,-39,-97,-102,-97
-39,-107,-68,73,14,-87,34,53,-34,-97,-102,-102
-39,-107,-68,73,14,-87,34,53,-29,-97,-97,-102
-34,-97,-63,65,14,-80,34,63,-24,-92,-97,-97
-29,-87,-58,58,14,-73,34,73,-19,-92,-92,-92
-29,-73,-43,51,7,-58,34,78,-14,-87,-87,-92
-29,-82,-53,56,12,-68,34,87,-4,-78,-87,-92
-29,-92,-63,61,17,-78,39,97,4,-78,-82,-87
-24,-87,-63,56,19,-75,43,107,14,-63,-73,-82
-14,-82,-68,48,26,-75,43,112,19,-58,-68,-82
-14,-68,-53,41,19,-61,43,122,29,-53,-58,-73
-9,-68,-58,39,24,-63,43,131,34,-39,-48,-63
0,-53,-53,26,26,-53,43,146,43,-29,-43,-58
0,-48,-48,24,24,-48,39,151,58,-19,-39,-53
14,-39,-53,12,34,-46,39,156,68,-19,-34,-43
14,-34,-48,9,31,-41,39,165,78,-14,-24,-34
29,-14,-43,-7,36,-29,39,185,92,4,-9,-19
39,-9,-48,-14,43,-29,39,195,102,19,4,-4
53,14,-39,-34,46,-12,29,219,122,39,14,9
63,34,-29,-48,46,2,24,229,141,53,34,19
73,34,-39,-53,56,-2,19,248,161,78,48,34
82,39,-43,-61,63,-2,14,258,180,87,58,48
87,63,-24,-75,56,19,9,273,200,117,82,73
107,82,-24,-95,65,29,0,283,219,136,102,92
112,97,-14,-104,63,41,-4,297,244,151,117,102
126,117,-9,-122,68,53,-9,302,263,170,136,117
136,131,-4,-134,70,63,-14,307,283,180,146,141
156,151,-4,-153,80,73,-19,322,297,204,170,170
175,180,4,-178,85,92,-19,336,317,219,200,185
190,204,14,-197,87,109,-34,341,336,239,214,200
195,204,9,-200,92,107,-43,341,356,253,229,219
200,219,19,-209,90,119,-53,341,375,268,253,234
209,244,34,-226,87,139,-63,346,385,297,263,253
214,258,43,-236,85,151,-73,341,395,312,273,258
219,263,43,-241,87,153,-73,336,400,312,283,263
224,268,43,-246,90,156,-73,322,395,307,283,268
219,283,63,-251,78,173,-78,302,385,307,287,268
204,287,82,-246,61,185,-78,278,385,307,273,258
195,273,78,-234,58,175,-68,253,361,302,268,244
180,258,78,-219,51,168,-58,229,336,283,248,234
161,239,78,-200,41,158,-63,195,297,253,224,204
141,219,78,-180,31,148,-63,156,263,224,204,185
112,200,87,-156,12,143,-63,131,224,195,180,170
92,180,87,-136,2,134,-58,107,195,175,161,146
82,156,73,-119,4,114,-53,87,161,156,141,122
78,136,58,-107,9,97,-53,68,136,126,122,107
53,126,73,-90,-9,100,-48,48,102,102,97,87
39,107,68,-73,-14,87,-34,39,82,87,78,73
24,82,58,-53,-17,70,-29,19,53,63,53,48
24,58,34,-41,-4,46,-24,0,34,43,34,29
14,58,43,-36,-14,51,-19,-9,29,29,29,24
4,48,43,-26,-19,46,-14,-19,4,9,14,9
-4,29,34,-12,-19,31,-4,-24,-4,4,9,4
-4,24,29,-9,-17,26,-4,-34,-19,-9,-4,-4
-9,24,34,-7,-21,29,-4,-34,-24,-19,-14,-9
-19,24,43,-2,-31,34,-4,-34,-39,-24,-19,-19
-19,9,29,4,-24,19,0,-39,-39,-24,-24,-24
-24,-4,19,14,-21,7,9,-39,-39,-24,-29,-29
-29,-9,19,19,-24,4,9,-39,-39,-29,-34,-29
-34,-14,19,24,-26,2,9,-39,-43,-39,-34,-29
-34,-14,19,24,-26,2,4,-43,-53,-43,-34,-34
-34,-14,19,24,-26,2,4,-43,-58,-43,-34,-39
-34,-19,14,26,-24,-2,4,-43,-58,-43,-39,-43
-34,-29,4,31,-19,-12,9,-43,-58,-43,-39,-43
-34,-29,4,31,-19,-12,9,-43,-58,-43,-39,-48
-34,-24,9,29,-21,-7,4,-39,-58,-48,-39,-53
-39,-24,14,31,-26,-4,0,-43,-58,-53,-43,-53
-43,-34,9,39,-26,-12,0,-48,-58,-58,-48,-53
-43,-34,9,39,-26,-12,0,-48,-58,-58,-53,-48
-43,-34,9,39,-26,-12,9,-43,-58,-58,-53,-48
-43,-34,9,39,-26,-12,9,-39,-63,-58,-53,-48
-43,-34,9,39,-26,-12,4,-39,-73,-58,-53,-53
-39,-14,24,26,-31,4,4,-39,-73,-58,-58,-58
-39,-14,24,26,-31,4,9,-39,-73,-58,-63,-58
-39,-24,14,31,-26,-4,9,-39,-68,-58,-63,-58
-39,-34,4,36,-21,-14,9,-34,-63,-53,-63,-58
-39,-34,4,36,-21,-14,14,-29,-53,-53,-63,-58
-39,-34,4,36,-21,-14,19,-19,-48,-58,-63,-58
-39,-34,4,36,-21,-14,19,-19,-48,-63,-63,-58
-34,-34,0,34,-17,-17,24,-14,-48,-63,-58,-58
-39,-39,0,39,-19,-19,24,-14,-43,-58,-58,-63
-43,-39,4,41,-24,-17,24,-14,-48,-58,-58,-68
-43,-39,4,41,-24,-17,24,-14,-48,-58,-63,-68
-48,-43,4,46,-26,-19,24,-14,-48,-58,-68,-68
-48,-43,4,46,-26,-19,29,-14,-43,-53,-63,-68
-48,-39,9,43,-29,-14,29,-14,-43,-53,-63,-63
-48,-39,9,43,-29,-14,29,-14,-43,-53,-68,-63
-43,-39,4,41,-24,-17,29,-19,-43,-53,-73,-68
-43,-39,4,41,-24,-17,19,-19,-39,-53,-73,-73
-43,-34,9,39,-26,-12,19,-24,-39,-53,-68,-78
-39,-34,4,36,-21,-14,19,-24,-39,-53,-63,-68
-39,-39,0,39,-19,-19,19,-24,-39,-53,-58,-68
-39,-39,0,39,-19,-19,14,-29,-48,-48,-63,-73
-43,-39,4,41,-24,-17,9,-29,-48,-48,-63,-73
-43,-43,0,43,-21,-21,9,-29,-48,-53,-63,-73
-43,-48,-4,46,-19,-26,9,-34,-48,-53,-68,-73
-39,-48,-9,43,-14,-29,14,-34,-48,-58,-73,-68
-34,-48,-14,41,-9,-31,19,-34,-48,-58,-73,-63
-29,-34,-4,31,-12,-19,14,-29,-48,-58,-68,-63
-29,-29,0,29,-14,-14,14,-29,-58,-68,-68,-68
-29,-19,9,24,-19,-4,14,-29,-58,-63,-68,-68
-39,-34,4,36,-21,-14,14,-29,-68,-68,-68,-63
-43,-53,-9,48,-17,-31,14,-29,-68,-68,-68,-68
-48,-58,-9,53,-19,-34,14,-39,-63,-68,-63,-73
-48,-43,4,46,-26,-19,9,-39,-63,-68,-68,-73
-48,-34,14,41,-31,-9,4,-34,-68,-68,-73,-73
-48,-39,9,43,-29,-14,4,-29,-73,-73,-73,-73
-43,-43,0,43,-21,-21,4,-29,-78,-73,-73,-73
-43,-43,0,43,-21,-21,9,-29,-82,-73,-73,-68
-43,-43,0,43,-21,-21,14,-39,-78,-73,-73,-68
-39,-48,-9,43,-14,-29,9,-43,-73,-73,-73,-73
-39,-48,-9,43,-14,-29,9,-48,-78,-73,-73,-73
-43,-39,4,41,-24,-17,9,-48,-78,-73,-78,-78
-43,-39,4,41,-24,-17,4,-48,-78,-73,-78,-82
-43,-39,4,41,-24,-17,4,-48,-78,-73,-78,-78
-43,-39,4,41,-24,-17,9,-48,-78,-73,-78,-78
-43,-48,-4,46,-19,-26,9,-48,-78,-78,-78,-78
-43,-48,-4,46,-19,-26,9,-43,-78,-78,-78,-78
-39,-39,0,39,-19,-19,4,-43,-82,-78,-73,-78
-34,-29,4,31,-19,-12,4,-48,-82,-78,-73,-73
-39,-43,-4,41,-17,-24,9,-48,-82,-78,-73,-78
-39,-48,-9,43,-14,-29,9,-48,-82,-78,-73,-78
-48,-53,-4,51,-21,-29,9,-48,-82,-78,-78,-78
-53,-58,-4,56,-24,-31,4,-53,-87,-82,-78,-78
-53,-58,-4,56,-24,-31,4,-58,-87,-82,-78,-78
-48,-58,-9,53,-19,-34,4,-63,-87,-82,-78,-78
-48,-53,-4,51,-21,-29,4,-58,-87,-78,-78,-73
-48,-48,0,48,-24,-24,9,-58,-87,-78,-78,-68
-48,-48,0,48,-24,-24,9,-58,-87,-78,-78,-68
-48,-48,0,48,-24,-24,9,-58,-87,-78,-78,-68
-48,-34,14,41,-31,-9,9,-53,-78,-73,-73,-68
-48,-19,29,34,-39,4,9,-48,-68,-68,-68,-68
-43,0,43,21,-43,21,14,-48,-63,-63,-63,-58
-39,19,58,9,-48,39,19,-48,-58,-58,-58,-48
-39,19,58,9,-48,39,19,-48,-58,-58,-58,-48
-39,19,58,9,-48,39,19,-48,-58,-58,-58,-48
-39,19,58,9,-48,39,19,-48,-58,-58,-58,-53
-34,19,53,7,-43,36,24,-43,-53,-58,-53,-53
-34,19,53,7,-43,36,29,-43,-53,-58,-53,-53
-34,29,63,2,-48,46,39,-43,-53,-53,-48,-48
-39,29,68,4,-53,48,24,-43,-48,-43,-43,-39
-39,34,73,2,-56,53,9,-39,-43,-39,-43,-34
-19,39,58,-9,-39,48,-14,-58,-53,-43,-43,-34
-9,39,48,-14,-29,43,-39,-73,-63,-53,-43,-34
-14,43,58,-14,-36,51,-43,-82,-78,-63,-43,-34
-14,58,73,-21,-43,65,-43,-97,-87,-68,-48,-29
-14,68,82,-26,-48,75,-43,-102,-87,-68,-48,-29
-9,87,97,-39,-53,92,-48,-102,-87,-63,-39,-24
4,97,92,-51,-43,95,-48,-92,-78,-48,-19,-4
24,107,82,-65,-29,95,-48,-82,-68,-39,-14,0
43,92,48,-68,-2,70,-48,-73,-58,-34,-4,9
58,92,34,-75,12,63,-43,-63,-48,-29,0,14
29,68,39,-48,-4,53,-39,-63,-48,-39,-14,4
9,34,24,-21,-7,29,-24,-68,-63,-58,-29,-9
-29,4,34,12,-31,19,-24,-78,-92,-82,-58,-39
-58,-24,34,41,-46,4,-14,-82,-107,-87,-87,-68
-58,-24,34,41,-46,4,-14,-87,-112,-102,-87,-82
-53,-14,39,34,-46,12,-19,-87,-112,-112,-87,-92
-48,-29,19,39,-34,-4,-14,-82,-112,-107,-92,-87
-48,-53,-4,51,-21,-29,-9,-78,-112,-97,-92,-78
-48,-58,-9,53,-19,-34,-9,-73,-112,-102,-92,-78
-48,-58,-9,53,-19,-34,-4,-73,-112,-102,-92,-78
-53,-58,-4,56,-24,-31,-4,-68,-112,-102,-97,-87
-53,-68,-14,61,-19,-41,-4,-63,-117,-102,-102,-92
-63,-78,-14,70,-24,-46,-4,-58,-117,-102,-102,-92
-68,-82,-14,75,-26,-48,-4,-58,-117,-107,-102,-87
-68,-87,-19,78,-24,-53,4,-53,-112,-107,-102,-87
-68,-87,-19,78,-24,-53,9,-53,-107,-107,-102,-92
-63,-82,-19,73,-21,-51,9,-58,-107,-107,-107,-92
-63,-82,-19,73,-21,-51,9,-58,-107,-107,-107,-92
-63,-82,-19,73,-21,-51,14,-58,-107,-107,-107,-97
-63,-87,-24,75,-19,-56,14,-63,-112,-107,-107,-97
-63,-82,-19,73,-21,-51,9,-58,-112,-107,-107,-97
-63,-78,-14,70,-24,-46,9,-58,-112,-107,-107,-97
-63,-78,-14,70,-24,-46,14,-53,-107,-107,-112,-107
-78,-97,-19,87,-29,-58,29,-43,-107,-126,-122,-126
-102,-136,-34,119,-34,-85,73,-9,-107,-146,-156,-156
-131,-185,-53,158,-39,-119,117,34,-117,-185,-209,-204
-170,-224,-53,197,-58,-139,175,58,-136,-253,-283,-268
-219,-229,-9,224,-104,-119,229,92,-146,-292,-322,-302
-244,-204,39,224,-141,-82,278,141,-146,-326,-336,-317
-190,-141,48,165,-119,-46,292,273,-24,-214,-239,-248
-4,-68,-63,36,29,-65,258,497,273,73,-29,-63
170,122,-48,-146,109,36,156,551,541,409,283,209
375,453,78,-414,148,265,-68,244,624,722,678,561
561,800,239,-680,161,519,-346,-146,610,1019,1068,917
697,936,239,-817,229,588,-580,-429,736,1503,1459,1220
771,727,-43,-749,407,341,-639,-478,1024,1937,1625,1298
624,624,0,-624,312,312,-600,-605,1044,1922,1561,1180
336,512,175,-424,80,344,-497,-800,624,1366,1049,819
14,307,292,-161,-139,300,-414,-1073,-273,302,283,268
-234,151,385,41,-309,268,-302,-1195,-1034,-629,-322,-117
-258,78,336,90,-297,207,-239,-1034,-1068,-746,-380,-175
-253,-19,234,136,-244,107,-195,-863,-907,-663,-390,-214
-253,-82,170,168,-212,43,-180,-736,-790,-605,-385,-253
-234,-102,131,168,-183,14,-185,-624,-663,-517,-346,-253
-195,-87,107,141,-151,9,-156,-492,-522,-405,-273,-195
-146,-82,63,114,-104,-9,-122,-322,-361,-302,-209,-151
-107,-58,48,82,-78,-4,-73,-175,-244,-209,-161,-126
-82,-43,39,63,-61,-2,-39,-112,-175,-165,-131,-107
-78,-63,14,70,-46,-24,-14,-78,-141,-141,-112,-92
-63,-92,-29,78,-17,-61,-4,-58,-126,-136,-112,-92
-63,-97,-34,80,-14,-65,4,-29,-112,-131,-122,-97
-58,-97,-39,78,-9,-68,4,-19,-112,-131,-126,-102
-53,-97,-43,75,-4,-70,4,-19,-112,-131,-126,-102
-48,-102,-53,75,2,-78,9,-9,-102,-126,-126,-97
-43,-102,-58,73,7,-80,19,0,-92,-122,-117,-97
-43,-102,-58,73,7,-80,24,9,-87,-117,-112,-97
-48,-102,-53,75,2,-78,24,9,-87,-117,-107,-97
-48,-102,-53,75,2,-78,19,9,-82,-117,-107,-97
-48,-102,-53,75,2,-78,19,9,-82,-117,-112,-97
-48,-97,-48,73,0,-73,19,9,-82,-117,-112,-97
-48,-97,-48,73,0,-73,24,14,-78,-117,-112,-97
-53,-97,-43,75,-4,-70,24,14,-68,-117,-112,-97
-53,-102,-48,78,-2,-75,29,14,-63,-112,-107,-97
-48,-107,-58,78,4,-82,29,14,-63,-112,-107,-97
-43,-107,-63,75,9,-85,34,24,-53,-107,-107,-97
-39,-102,-63,70,12,-82,34,24,-53,-107,-102,-92
-34,-97,-63,65,14,-80,34,34,-48,-102,-102,-92
-29,-92,-63,61,17,-78,34,43,-43,-97,-102,-92
-29,-92,-63,61,17,-78,34,48,-39,-97,-102,-92
-29,-87,-58,58,14,-73,34,53,-34,-97,-102,-92
-29,-97,-68,63,19,-82,39,53,-29,-92,-97,-92
-24,-97,-73,61,24,-85,43,63,-24,-82,-97,-87
-24,-97,-73,61,24,-85,43,73,-14,-82,-92,-82
-29,-92,-63,61,17,-78,43,78,-4,-78,-87,-82
-29,-92,-63,61,17,-78,39,82,0,-68,-87,-82
-29,-92,-63,61,17,-78,39,87,4,-68,-82,-78
-19,-87,-68,53,24,-78,39,102,14,-53,-78,-73
-4,-82,-78,43,36,-80,34,112,19,-48,-78,-73
-4,-68,-63,36,29,-65,39,122,34,-43,-68,-63
0,-68,-68,34,34,-68,43,131,43,-29,-58,-53
9,-53,-63,21,36,-58,43,146,53,-24,-53,-53
9,-48,-58,19,34,-53,39,151,68,-19,-48,-53
24,-48,-73,12,48,-61,34,161,82,-14,-39,-43
24,-53,-78,14,51,-65,29,175,97,-4,-24,-34
39,-19,-58,-9,48,-39,29,200,112,14,-9,-19
48,0,-48,-24,48,-24,29,214,122,29,4,-4
63,14,-48,-39,56,-17,24,239,141,43,14,9
73,24,-48,-48,61,-12,24,248,161,53,34,19
82,39,-43,-61,63,-2,19,263,180,78,48,34
92,58,-34,-75,63,12,14,268,200,87,58,48
97,73,-24,-85,61,24,9,283,214,107,78,68
117,82,-34,-100,75,24,0,292,229,117,92,82
122,97,-24,-109,73,36,-9,312,248,136,102,92
136,117,-19,-126,78,48,-19,322,263,161,117,107
146,131,-14,-139,80,58,-19,326,287,170,126,122
165,151,-14,-158,90,68,-19,341,307,195,151,141
175,170,-4,-173,90,82,-19,351,322,209,180,156
180,185,4,-183,87,95,-34,351,336,229,195,170
190,190,0,-190,95,95,-43,351,356,244,204,190
200,209,9,-204,95,109,-53,351,375,258,224,204
204,224,19,-214,92,122,-53,356,385,278,234,224
204,229,24,-217,90,126,-53,351,395,283,244,229
209,239,29,-224,90,134,-53,346,400,287,258,239
214,248,34,-231,90,141,-53,331,395,287,263,248
209,248,39,-229,85,143,-58,307,380,287,268,248
195,239,43,-217,75,141,-58,278,375,287,253,239
185,234,48,-209,68,141,-53,248,351,278,248,224
170,229,58,-200,56,143,-48,219,326,253,229,214
161,219,58,-190,51,139,-53,190,287,229,204,190
151,209,58,-180,46,134,-53,156,253,204,185,175
122,180,58,-151,31,119,-53,131,214,175,161,161
102,151,48,-126,26,100,-48,107,185,156,141,136
82,131,48,-107,17,90,-39,78,151,131,122,112
68,117,48,-92,9,82,-34,48,126,97,102,97
53,102,48,-78,2,75,-29,29,97,78,82,78
48,78,29,-63,9,53,-14,19,82,68,68,63
29,63,34,-46,-2,48,-14,0,48,48,48,39
24,48,24,-36,0,36,-14,-19,24,34,34,19
14,43,29,-29,-7,36,-14,-24,24,19,24,14
4,29,24,-17,-9,26,-14,-29,4,0,4,0
-4,9,14,-2,-9,12,-4,-29,-4,0,4,-4
-4,4,9,0,-7,7,-4,-34,-19,-9,-4,-14
-9,4,14,2,-12,9,-4,-39,-24,-19,-14,-19
-19,4,24,7,-21,14,-4,-43,-39,-24,-19,-29
-19,0,19,9,-19,9,-4,-48,-43,-29,-24,-29
-24,-4,19,14,-21,7,0,-48,-48,-34,-29,-29
-24,-9,14,17,-19,2,4,-43,-48,-39,-34,-34
-24,-14,9,19,-17,-2,9,-39,-53,-48,-34,-39
-24,-14,9,19,-17,-2,9,-43,-58,-53,-34,-39
-24,-14,9,19,-17,-2,14,-43,-58,-53,-34,-39
-29,-14,14,21,-21,0,14,-43,-63,-53,-43,-43
-34,-19,14,26,-24,-2,19,-43,-68,-53,-48,-43
-34,-24,9,29,-21,-7,19,-43,-68,-53,-48,-48
-34,-24,9,29,-21,-7,14,-39,-68,-58,-48,-53
-39,-24,14,31,-26,-4,9,-39,-68,-58,-48,-53
-43,-34,9,39,-26,-12,9,-39,-68,-58,-48,-53
-39,-34,4,36,-21,-14,9,-39,-68,-58,-53,-48
-34,-34,0,34,-17,-17,19,-34,-68,-58,-53,-48
-34,-39,-4,36,-14,-21,19,-29,-63,-58,-53,-48
-34,-43,-9,39,-12,-26,14,-29,-63,-58,-53,-53
-34,-34,0,34,-17,-17,14,-29,-63,-63,-58,-58
-39,-43,-4,41,-17,-24,19,-29,-63,-68,-63,-58
-39,-39,0,39,-19,-19,19,-29,-63,-68,-63,-58
-39,-34,4,36,-21,-14,19,-24,-63,-63,-63,-58
-39,-34,4,36,-21,-14,19,-24,-58,-63,-63,-58
-39,-34,4,36,-21,-14,19,-19,-58,-68,-63,-58
-39,-34,4,36,-21,-14,14,-19,-63,-68,-63,-58
-34,-34,0,34,-17,-17,14,-14,-68,-63,-58,-58
-34,-29,4,31,-19,-12,14,-14,-58,-58,-58,-58
-34,-19,14,26,-24,-2,14,-14,-58,-58,-58,-58
-34,-24,9,29,-21,-7,14,-14,-58,-58,-58,-58
-39,-34,4,36,-21,-14,14,-14,-58,-58,-58,-58
-39,-39,0,39,-19,-19,19,-14,-53,-53,-53,-58
-39,-39,0,39,-19,-19,19,-14,-53,-53,-53,-53
-43,-39,4,41,-24,-17,24,-9,-48,-53,-58,-53
-43,-39,4,41,-24,-17,29,-9,-43,-53,-63,-58
-43,-39,4,41,-24,-17,19,-4,-39,-53,-63,-58
-43,-34,9,39,-26,-12,19,-4,-39,-53,-58,-58
-39,-34,4,36,-21,-14,19,-4,-39,-48,-58,-48
-39,-39,0,39,-19,-19,19,-4,-39,-43,-58,-48
-39,-39,0,39,-19,-19,19,-9,-48,-43,-58,-53
-43,-39,4,41,-24,-17,19,-9,-48,-48,-53,-53
-39,-39,0,39,-19,-19,19,-9,-48,-58,-53,-58
-34,-39,-4,36,-14,-21,19,-14,-48,-63,-58,-63
-29,-43,-14,36,-7,-29,19,-14,-48,-63,-63,-58
-24,-48,-24,36,0,-36,19,-14,-48,-58,-63,-53
-24,-39,-14,31,-4,-26,14,-14,-48,-53,-58,-53
-29,-39,-9,34,-9,-24,14,-19,-58,-58,-58,-58
-24,-29,-4,26,-9,-17,14,-19,-58,-53,-53,-58
-29,-43,-14,36,-7,-29,14,-19,-68,-58,-48,-53
-34,-58,-24,46,-4,-41,14,-19,-68,-63,-53,-58
-39,-58,-19,48,-9,-39,14,-29,-63,-68,-53,-63
-39,-48,-9,43,-14,-29,14,-34,-63,-68,-58,-63
-39,-43,-4,41,-17,-24,14,-34,-68,-68,-63,-63
-39,-48,-9,43,-14,-29,14,-29,-73,-68,-63,-58
-34,-53,-19,43,-7,-36,14,-29,-78,-63,-63,-53
-34,-53,-19,43,-7,-36,19,-24,-82,-63,-63,-53
-34,-53,-19,43,-7,-36,24,-29,-78,-63,-63,-58
-34,-58,-24,46,-4,-41,19,-34,-68,-63,-63,-63
-39,-58,-19,48,-9,-39,19,-39,-68,-63,-63,-63
-39,-48,-9,43,-14,-29,19,-39,-73,-63,-68,-63
-34,-48,-14,41,-9,-31,14,-39,-78,-63,-68,-63
-34,-53,-19,43,-7,-36,14,-39,-78,-68,-68,-58
-34,-58,-24,46,-4,-41,19,-39,-78,-73,-68,-58
-34,-58,-24,46,-4,-41,19,-39,-78,-78,-68,-58
-34,-48,-14,41,-9,-31,19,-34,-78,-78,-68,-58
-34,-43,-9,39,-12,-26,14,-34,-82,-78,-68,-63
-34,-39,-4,36,-14,-21,14,-39,-82,-78,-73,-63
-39,-53,-14,46,-12,-34,19,-39,-82,-78,-68,-68
-39,-58,-19,48,-9,-39,19,-39,-82,-78,-63,-68
-43,-53,-9,48,-17,-31,19,-39,-82,-78,-68,-68
-43,-48,-4,46,-19,-26,14,-43,-87,-82,-68,-68
-43,-48,-4,46,-19,-26,9,-43,-87,-82,-68,-68
-39,-48,-9,43,-14,-29,4,-43,-87,-82,-68,-68
-39,-43,-4,41,-17,-24,9,-39,-82,-73,-68,-63
-39,-39,0,39,-19,-19,19,-39,-78,-68,-68,-58
-39,-39,0,39,-19,-19,19,-39,-78,-68,-68,-58
-39,-39,0,39,-19,-19,19,-39,-78,-68,-68,-58
-34,-29,4,31,-19,-12,19,-34,-73,-63,-63,-53
-29,-19,9,24,-19,-4,19,-29,-68,-58,-58,-48
-29,-9,19,19,-24,4,19,-29,-63,-53,-48,-48
-29,0,29,14,-29,14,19,-29,-58,-48,-39,-48
-34,0,34,17,-34,17,24,-29,-58,-48,-39,-48
-34,4,39,14,-36,21,34,-24,-53,-48,-39,-48
-39,9,48,14,-43,29,43,-24,-53,-48,-43,-48
-34,14,48,9,-41,31,53,-19,-53,-48,-43,-43
-34,29,63,2,-48,46,48,-19,-48,-43,-39,-39
-29,34,63,-2,-46,48,34,-24,-43,-39,-34,-34
-19,34,53,-7,-36,43,19,-29,-39,-39,-24,-34
-9,29,39,-9,-24,34,4,-39,-43,-43,-14,-34
-9,29,39,-9,-24,34,-14,-48,-53,-53,-24,-34
-14,34,48,-9,-31,41,-24,-63,-63,-58,-34,-34
-14,48,63,-17,-39,56,-29,-78,-73,-58,-39,-34
-14,58,73,-21,-43,65,-34,-82,-78,-58,-39,-39
-9,82,92,-36,-51,87,-43,-82,-78,-53,-29,-34
0,87,87,-43,-43,87,-48,-73,-73,-48,-14,-19
24,107,82,-65,-29,95,-48,-63,-63,-43,-9,-14
39,107,68,-73,-14,87,-48,-58,-58,-39,-4,-9
53,107,53,-80,0,80,-53,-53,-53,-24,0,0
39,87,48,-63,-4,68,-58,-53,-48,-19,-4,4
19,53,34,-36,-7,43,-34,-58,-63,-39,-9,-9
0,24,24,-12,-12,24,-24,-63,-82,-58,-19,-29
-34,-14,19,24,-26,2,-14,-63,-92,-73,-53,-53
-58,-34,24,46,-41,-4,-9,-68,-102,-92,-68,-63
-53,-34,19,43,-36,-7,-9,-68,-102,-92,-73,-68
-48,-39,9,43,-29,-14,-4,-63,-102,-97,-82,-78
-48,-53,-4,51,-21,-29,0,-58,-102,-97,-82,-78
-48,-58,-9,53,-19,-34,0,-53,-102,-102,-82,-78
-48,-58,-9,53,-19,-34,4,-53,-102,-97,-78,-78
-53,-58,-4,56,-24,-31,4,-53,-102,-92,-78,-82
-53,-68,-14,61,-19,-41,4,-58,-107,-92,-82,-82
-58,-73,-14,65,-21,-43,4,-58,-107,-92,-82,-82
-58,-73,-14,65,-21,-43,9,-58,-107,-97,-82,-78
-58,-78,-19,68,-19,-48,19,-53,-107,-97,-82,-78
-58,-78,-19,68,-19,-48,19,-53,-107,-97,-82,-82
-58,-78,-19,68,-19,-48,19,-58,-107,-97,-87,-82
-63,-82,-19,73,-21,-51,19,-58,-107,-97,-87,-82
-63,-82,-19,73,-21,-51,24,-53,-102,-97,-87,-87
-63,-87,-24,75,-19,-56,24,-53,-102,-97,-87,-87
-63,-87,-24,75,-19,-56,24,-48,-102,-97,-87,-87
-58,-82,-24,70,-17,-53,24,-48,-102,-92,-87,-82
-53,-82,-29,68,-12,-56,24,-43,-102,-92,-97,-87
-53,-92,-39,73,-7,-65,29,-34,-92,-102,-92,-92
-63,-117,-53,90,-4,-85,58,-9,-87,-117,-117,-117
-102,-175,-73,139,-14,-124,97,24,-97,-156,-180,-175
-146,-219,-73,183,-36,-146,156,48,-107,-214,-253,-239
-219,-248,-29,234,-95,-139,219,73,-156,-292,-326,-297
-263,-248,14,256,-139,-117,278,112,-170,-331,-351,-322
-234,-224,9,229,-122,-107,326,258,-87,-283,-312,-317
-102,-161,-58,131,-21,-109,317,453,122,-92,-165,-200
82,0,-82,-41,82,-41,268,585,448,234,117,63
283,258,-24,-270,153,117,107,458,629,561,463,375
502,751,248,-627,126,500,-248,-14,541,844,927,790
663,1010,346,-836,158,678,-517,-390,580,1234,1346,1141
800,766,-34,-783,417,366,-614,-390,1078,1952,1688,1366
761,644,-117,-702,439,263,-658,-517,1210,2156,1766,1366
429,551,122,-490,153,336,-531,-712,858,1673,1288,985
146,395,248,-270,-51,322,-448,-961,214,893,683,531
-131,214,346,-41,-239,280,-331,-1180,-819,-341,-126,39
-258,107,366,75,-312,236,-248,-1141,-1161,-805,-400,-165
-244,4,248,119,-246,126,-214,-927,-946,-683,-380,-195
-244,-53,190,148,-217,68,-190,-780,-839,-634,-385,-234
-234,-92,141,163,-187,24,-190,-688,-722,-556,-366,-253
-209,-97,112,153,-161,7,-165,-570,-590,-453,-312,-224
-165,-82,82,124,-124,0,-131,-375,-405,-331,-239,-170
-126,-73,53,100,-90,-9,-82,-209,-273,-234,-180,-136
-87,-73,14,80,-51,-29,-39,-136,-200,-185,-141,-117
-73,-82,-9,78,-31,-46,-9,-78,-146,-141,-112,-102
-63,-102,-39,82,-12,-70,-4,-58,-131,-136,-107,-97
-63,-107,-43,85,-9,-75,4,-24,-112,-131,-107,-97
-58,-102,-43,80,-7,-73,9,-14,-107,-131,-107,-102
-53,-97,-43,75,-4,-70,14,-9,-102,-131,-107,-102
-48,-102,-53,75,2,-78,19,0,-92,-126,-107,-92
-43,-102,-58,73,7,-80,29,9,-82,-122,-102,-87
-43,-102,-58,73,7,-80,34,19,-78,-112,-102,-87
-48,-102,-53,75,2,-78,34,19,-78,-107,-97,-87
-43,-102,-58,73,7,-80,29,19,-73,-107,-97,-87
-39,-107,-68,73,14,-87,29,24,-73,-107,-102,-87
-39,-112,-73,75,17,-92,29,34,-68,-107,-102,-87
-39,-117,-78,78,19,-97,34,43,-63,-107,-102,-87
-43,-117,-73,80,14,-95,29,43,-58,-107,-102,-87
-43,-117,-73,80,14,-95,29,43,-53,-102,-97,-87
-39,-112,-73,75,17,-92,29,43,-53,-107,-97,-92
-34,-107,-73,70,19,-90,34,53,-43,-107,-97,-97
-29,-102,-73,65,21,-87,39,53,-43,-107,-92,-92
-29,-102,-73,65,21,-87,43,58,-39,-102,-92,-92
-29,-107,-78,68,24,-92,43,63,-39,-97,-92,-92
-29,-112,-82,70,26,-97,43,68,-39,-97,-92,-92
-29,-107,-78,68,24,-92,43,73,-34,-97,-92,-92
-29,-107,-78,68,24,-92,43,73,-29,-92,-87,-92
-24,-97,-73,61,24,-85,43,82,-24,-82,-87,-87
-19,-97,-78,58,29,-87,43,92,-14,-82,-82,-82
-19,-92,-73,56,26,-82,43,97,-4,-78,-78,-78
-19,-92,-73,56,26,-82,43,102,4,-68,-78,-73
-19,-92,-73,56,26,-82,48,112,14,-68,-73,-68
-14,-87,-73,51,29,-80,48,126,24,-53,-63,-63
-4,-82,-78,43,36,-80,39,131,24,-53,-63,-68
-4,-68,-63,36,29,-65,34,141,34,-53,-58,-63
0,-68,-68,34,34,-68,34,151,43,-39,-48,-53
9,-53,-63,21,36,-58,34,165,53,-29,-43,-48
9,-48,-58,19,34,-53,29,170,68,-19,-39,-43
24,-39,-63,7,43,-51,29,180,82,-9,-29,-34
24,-34,-58,4,41,-46,29,195,97,-4,-14,-24
39,-14,-53,-12,46,-34,29,214,112,4,0,-9
48,-14,-63,-17,56,-39,29,229,122,19,14,4
58,-4,-63,-26,61,-34,24,253,141,39,24,19
63,4,-58,-34,61,-26,24,263,161,53,43,29
73,19,-53,-46,63,-17,19,283,180,78,58,43
87,39,-48,-63,68,-4,14,292,200,87,68,58
97,53,-43,-75,70,4,9,312,219,107,87,78
117,63,-53,-90,85,4,0,326,239,126,102,92
122,78,-43,-100,82,17,-4,346,258,146,117,102
141,102,-39,-122,90,31,-14,351,273,161,136,117
151,122,-29,-136,90,46,-19,356,292,170,146,131
165,146,-19,-156,92,63,-19,375,312,200,170,156
175,165,-9,-170,92,78,-19,390,331,219,195,175
190,180,-9,-185,100,85,-34,390,346,239,204,195
204,185,-19,-195,112,82,-39,390,366,253,214,214
209,200,-9,-204,109,95,-48,395,390,268,244,224
214,214,0,-214,107,107,-53,400,400,287,258,239
219,224,4,-222,107,114,-53,400,414,302,268,253
224,234,9,-229,107,122,-53,400,424,312,283,268
229,253,24,-241,102,139,-53,380,419,312,287,278
224,268,43,-246,90,156,-58,356,405,312,287,278
204,244,39,-224,82,141,-58,326,409,312,273,268
195,224,29,-209,82,126,-58,302,385,297,273,263
185,234,48,-209,68,141,-53,278,361,283,258,253
180,229,48,-204,65,139,-53,248,331,268,244,229
170,209,39,-190,65,124,-53,204,292,234,224,209
146,190,43,-168,51,117,-53,175,253,204,200,190
117,161,43,-139,36,102,-48,151,219,185,175,161
92,136,43,-114,24,90,-43,126,180,165,151,136
87,126,39,-107,24,82,-43,97,151,131,126,122
73,117,43,-95,14,80,-39,68,122,107,102,97
63,92,29,-78,17,61,-24,53,102,87,82,78
43,73,29,-58,7,51,-24,39,68,58,63,58
43,53,9,-48,17,31,-24,29,48,43,53,48
34,48,14,-41,9,31,-24,24,43,39,48,43
19,39,19,-29,0,29,-24,4,14,19,24,19
4,19,14,-12,-4,17,-14,-9,4,9,14,9
0,14,14,-7,-7,14,-9,-14,-4,0,4,4
-4,14,19,-4,-12,17,-4,-14,-14,-9,0,0
-9,14,24,-2,-17,19,-4,-19,-34,-19,-4,-14
-9,9,19,0,-14,14,-4,-29,-39,-24,-14,-19
-14,4,19,4,-17,12,0,-29,-39,-24,-19,-24
-14,0,14,7,-14,7,0,-29,-39,-29,-24,-29
-14,-14,0,14,-7,-7,0,-29,-43,-39,-24,-29
-14,-24,-9,19,-2,-17,0,-34,-48,-39,-24,-29
-19,-24,-4,21,-7,-14,4,-34,-48,-39,-29,-29
-24,-24,0,24,-12,-12,4,-34,-48,-43,-39,-34
-24,-29,-4,26,-9,-17,9,-39,-53,-43,-39,-34
-24,-29,-4,26,-9,-17,9,-43,-58,-43,-39,-39
-24,-24,0,24,-12,-12,4,-39,-58,-53,-39,-43
-29,-24,4,26,-17,-9,0,-39,-58,-58,-39,-43
-34,-34,0,34,-17,-17,0,-39,-58,-58,-43,-43
-34,-34,0,34,-17,-17,0,-39,-58,-58,-53,-39
-34,-34,0,34,-17,-17,9,-34,-58,-58,-53,-39
-34,-34,0,34,-17,-17,9,-29,-53,-58,-53,-39
-34,-34,0,34,-17,-17,4,-29,-53,-58,-53,-48
-29,-24,4,26,-17,-9,4,-29,-53,-58,-53,-53
-29,-34,-4,31,-12,-19,9,-29,-53,-58,-53,-48
-29,-34,-4,31,-12,-19,9,-29,-53,-58,-53,-48
-29,-34,-4,31,-12,-19,9,-29,-58,-53,-53,-48
-29,-34,-4,31,-12,-19,9,-34,-58,-53,-53,-48
-34,-34,0,34,-17,-17,9,-29,-58,-58,-53,-48
-39,-34,4,36,-21,-14,9,-29,-58,-58,-53,-48
-34,-39,-4,36,-14,-21,14,-24,-58,-58,-53,-48
-34,-39,-4,36,-14,-21,14,-24,-48,-58,-58,-48
-34,-29,4,31,-19,-12,14,-19,-43,-58,-58,-48
-34,-29,4,31,-19,-12,14,-14,-39,-58,-58,-48
-39,-34,4,36,-21,-14,14,-9,-39,-58,-53,-48
-39,-39,0,39,-19,-19,19,-4,-34,-53,-43,-48
-39,-39,0,39,-19,-19,24,-4,-34,-53,-43,-43
-39,-39,0,39,-19,-19,24,-4,-34,-53,-43,-43
-34,-39,-4,36,-14,-21,24,-9,-34,-48,-48,-53
-34,-39,-4,36,-14,-21,19,-9,-34,-43,-53,-58
-34,-34,0,34,-17,-17,19,-14,-39,-43,-48,-58
-29,-34,-4,31,-12,-19,19,-14,-39,-43,-48,-48
-29,-39,-9,34,-9,-24,14,-9,-34,-43,-48,-48
-29,-39,-9,34,-9,-24,9,-9,-39,-43,-53,-53
-34,-43,-9,39,-12,-26,9,-9,-39,-48,-48,-53
-34,-48,-14,41,-9,-31,9,-9,-39,-53,-43,-53
-34,-48,-14,41,-9,-31,9,-14,-39,-53,-48,-53
-29,-48,-19,39,-4,-34,9,-14,-39,-53,-48,-48
-24,-58,-34,41,4,-46,14,-14,-39,-48,-43,-43
-24,-53,-29,39,2,-41,14,-14,-39,-48,-39,-43
-24,-48,-24,36,0,-36,14,-14,-43,-53,-34,-43
-19,-39,-19,29,0,-29,14,-9,-39,-48,-39,-48
-29,-39,-9,34,-9,-24,9,-9,-48,-53,-43,-48
-34,-43,-9,39,-12,-26,4,-9,-48,-53,-43,-48
-34,-43,-9,39,-12,-26,4,-24,-43,-58,-43,-53
-29,-39,-9,34,-9,-24,4,-29,-43,-58,-48,-53
-29,-43,-14,36,-7,-29,4,-29,-48,-58,-53,-53
-29,-48,-19,39,-4,-34,4,-29,-53,-63,-53,-53
-29,-48,-19,39,-4,-34,4,-29,-63,-63,-53,-53
-34,-43,-9,39,-12,-26,4,-29,-68,-63,-53,-58
-34,-43,-9,39,-12,-26,9,-29,-63,-63,-53,-58
-34,-48,-14,41,-9,-31,9,-24,-58,-63,-53,-53
-29,-53,-24,41,-2,-39,9,-29,-58,-63,-53,-53
-24,-48,-24,36,0,-36,9,-29,-58,-63,-53,-53
-34,-48,-14,41,-9,-31,0,-29,-63,-63,-53,-58
-43,-48,-4,46,-19,-26,-4,-29,-68,-63,-58,-58
-43,-48,-4,46,-19,-26,0,-34,-68,-63,-58,-58
-43,-48,-4,46,-19,-26,0,-39,-68,-68,-58,-58
-39,-39,0,39,-19,-19,4,-34,-68,-68,-58,-58
-34,-39,-4,36,-14,-21,4,-34,-73,-68,-58,-63
-29,-39,-9,34,-9,-24,4,-34,-73,-68,-58,-58
-29,-53,-24,41,-2,-39,9,-29,-73,-68,-53,-58
-29,-53,-24,41,-2,-39,9,-29,-68,-68,-53,-58
-34,-48,-14,41,-9,-31,9,-29,-63,-68,-58,-58
-39,-48,-9,43,-14,-29,4,-34,-68,-73,-58,-58
-39,-48,-9,43,-14,-29,4,-34,-68,-73,-58,-58
-39,-53,-14,46,-12,-34,0,-39,-68,-73,-58,-58
-39,-58,-19,48,-9,-39,-4,-43,-73,-73,-58,-63
-34,-53,-19,43,-7,-36,0,-34,-68,-68,-58,-63
-29,-48,-19,39,-4,-34,9,-29,-68,-68,-58,-68
-29,-48,-19,39,-4,-34,9,-29,-68,-68,-58,-68
-29,-48,-19,39,-4,-34,9,-29,-68,-68,-58,-68
-29,-39,-9,34,-9,-24,9,-29,-63,-68,-53,-58
-29,-29,0,29,-14,-14,9,-29,-58,-68,-48,-48
-29,-14,14,21,-21,0,14,-24,-53,-58,-39,-43
-29,0,29,14,-29,14,19,-19,-48,-48,-29,-39
-29,0,29,14,-29,14,19,-19,-48,-48,-29,-39
-29,0,29,14,-29,14,24,-14,-43,-48,-29,-39
-34,4,39,14,-36,21,29,-14,-43,-48,-29,-43
-34,4,39,14,-36,21,34,-9,-43,-48,-24,-43
-34,19,53,7,-43,36,39,-9,-39,-43,-24,-39
-29,24,53,2,-41,39,34,-14,-34,-39,-24,-34
-19,34,53,-7,-36,43,19,-19,-29,-34,-24,-29
-9,39,48,-14,-29,43,4,-29,-34,-34,-24,-24
-9,29,39,-9,-24,34,-19,-34,-43,-43,-24,-24
-14,24,39,-4,-26,31,-34,-43,-53,-48,-24,-24
-14,39,53,-12,-34,46,-39,-63,-63,-53,-29,-19
-14,48,63,-17,-39,56,-43,-73,-68,-58,-29,-19
-9,73,82,-31,-46,78,-53,-78,-68,-53,-19,-24
0,78,78,-39,-39,78,-58,-73,-63,-48,-4,-19
19,97,78,-58,-29,87,-58,-63,-58,-39,0,-9
29,97,68,-63,-19,82,-58,-58,-58,-29,4,0
48,102,53,-75,-2,78,-53,-48,-48,-14,14,9
39,87,48,-63,-4,68,-48,-43,-39,-9,14,14
19,53,34,-36,-7,43,-39,-48,-53,-29,0,0
0,24,24,-12,-12,24,-43,-53,-73,-48,-19,-19
-29,-9,19,19,-24,4,-34,-58,-87,-68,-53,-48
-48,-24,24,36,-36,0,-29,-68,-102,-92,-68,-63
-43,-29,14,36,-29,-7,-24,-68,-102,-92,-68,-63
-39,-39,0,39,-19,-19,-14,-63,-102,-97,-73,-68
-43,-53,-9,48,-17,-31,-9,-58,-102,-97,-73,-73
-48,-58,-9,53,-19,-34,-9,-53,-102,-102,-73,-78
-48,-63,-14,56,-17,-39,-4,-53,-102,-102,-73,-78
-53,-68,-14,61,-19,-41,-4,-53,-102,-102,-78,-82
-48,-78,-29,63,-9,-53,-4,-53,-107,-102,-82,-82
-48,-82,-34,65,-7,-58,-4,-48,-107,-102,-82,-82
-48,-78,-29,63,-9,-53,-4,-48,-102,-102,-82,-78
-48,-78,-29,63,-9,-53,0,-43,-97,-97,-82,-78
-48,-78,-29,63,-9,-53,0,-43,-97,-97,-82,-82
-48,-78,-29,63,-9,-53,0,-48,-97,-97,-87,-82
-53,-82,-29,68,-12,-56,0,-48,-97,-102,-87,-82
-53,-82,-29,68,-12,-56,4,-43,-92,-107,-87,-87
-53,-87,-34,70,-9,-61,4,-43,-92,-107,-87,-82
-53,-87,-34,70,-9,-61,4,-39,-92,-107,-87,-78
-53,-82,-29,68,-12,-56,9,-43,-92,-102,-82,-78
-53,-82,-29,68,-12,-56,14,-43,-92,-102,-87,-87
-63,-97,-34,80,-14,-65,14,-34,-87,-112,-87,-87
-82,-126,-43,104,-19,-85,39,-9,-87,-126,-117,-107
-112,-175,-63,143,-24,-119,78,24,-97,-156,-170,-165
-146,-209,-63,178,-41,-136,136,48,-107,-204,-234,-229
-219,-244,-24,231,-97,-134,200,73,-161,-292,-317,-292
-263,-248,14,256,-139,-117,258,112,-180,-341,-351,-322
-244,-229,14,236,-129,-107,312,253,-97,-302,-322,-326
-122,-170,-48,146,-36,-109,307,444,112,-122,-185,-219
63,-19,-82,-21,73,-51,268,600,444,209,102,43
263,229,-34,-246,148,97,117,497,629,541,453,356
478,736,258,-607,109,497,-248,9,531,814,907,771
634,1010,375,-822,129,692,-527,-380,561,1195,1317,1122
795,771,-24,-783,409,373,-624,-380,1068,1932,1683,1361
780,653,-126,-717,453,263,-668,-507,1210,2156,1786,1376
448,556,107,-502,170,331,-551,-702,883,1703,1317,1005
165,395,229,-280,-31,312,-478,-951,263,951,722,561
-122,214,336,-46,-229,275,-351,-1180,-805,-312,-102,58
-258,107,366,75,-312,236,-258,-1151,-1180,-805,-390,-156
-253,0,253,126,-253,126,-224,-936,-966,-692,-380,-195
-263,-63,200,163,-231,68,-200,-790,-858,-653,-395,-244
-253,-97,156,175,-204,29,-200,-688,-736,-566,-366,-253
-229,-97,131,163,-180,17,-175,-561,-600,-453,-302,-214
-175,-82,92,129,-134,4,-141,-370,-409,-336,-239,-170
-126,-73,53,100,-90,-9,-92,-209,-273,-244,-190,-146
-92,-73,19,82,-56,-26,-48,-131,-204,-195,-151,-122
-82,-82,0,82,-41,-41,-19,-68,-156,-151,-122,-102
-73,-102,-29,87,-21,-65,-9,-53,-136,-146,-117,-97
-73,-107,-34,90,-19,-70,4,-24,-112,-141,-117,-97
-68,-107,-39,87,-14,-73,4,-14,-112,-136,-112,-102
-63,-107,-43,85,-9,-75,4,-9,-112,-131,-107,-102
-58,-112,-53,85,-2,-82,9,0,-102,-126,-107,-97
-53,-112,-58,82,2,-85,19,9,-92,-122,-102,-97
-53,-112,-58,82,2,-85,24,19,-82,-117,-102,-97
-58,-112,-53,85,-2,-82,24,19,-78,-117,-97,-97
-53,-112,-58,82,2,-85,24,19,-73,-117,-97,-97
-48,-117,-68,82,9,-92,29,24,-73,-117,-102,-97
-48,-117,-68,82,9,-92,29,29,-73,-117,-107,-97
-48,-117,-68,82,9,-92,34,34,-73,-117,-112,-97
-53,-117,-63,85,4,-90,34,43,-68,-117,-112,-97
-53,-117,-63,85,4,-90,39,53,-63,-112,-107,-97
-48,-117,-68,82,9,-92,39,53,-63,-112,-107,-97
-43,-117,-73,80,14,-95,43,63,-53,-107,-107,-97
-39,-112,-73,75,17,-92,43,63,-53,-107,-102,-92
-39,-112,-73,75,17,-92,43,68,-48,-102,-102,-92
-39,-112,-73,75,17,-92,43,73,-43,-97,-102,-92
-39,-112,-73,75,17,-92,43,78,-39,-97,-102,-92
-43,-107,-63,75,9,-85,39,82,-34,-102,-102,-92
-48,-107,-58,78,4,-82,34,82,-29,-102,-97,-92
-43,-97,-53,70,4,-75,34,92,-24,-92,-97,-87
-39,-97,-58,68,9,-78,34,102,-14,-92,-92,-82
-39,-102,-63,70,12,-82,39,107,-4,-82,-87,-82
-39,-112,-73,75,17,-92,43,112,4,-68,-87,-82
-39,-112,-73,75,17,-92,48,117,9,-68,-82,-78
-34,-107,-73,70,19,-90,48,126,14,-53,-73,-73
-24,-102,-78,63,26,-90,43,131,19,-53,-68,-73
-24,-87,-63,56,19,-75,43,141,34,-53,-58,-63
-19,-92,-73,56,26,-82,48,156,43,-43,-48,-53
-9,-82,-73,46,31,-78,53,175,53,-39,-43,-48
-9,-78,-68,43,29,-73,48,180,68,-29,-43,-48
4,-68,-73,31,39,-70,48,190,82,-19,-39,-43
4,-63,-68,29,36,-65,48,204,97,-9,-24,-39
19,-43,-63,12,41,-53,48,224,112,4,-9,-29
29,-34,-63,2,46,-48,48,234,122,14,0,-14
39,-14,-53,-12,46,-34,43,253,141,29,4,0
43,-4,-48,-19,46,-26,43,258,161,43,24,9
53,9,-43,-31,48,-17,39,273,180,68,39,24
68,29,-39,-48,53,-4,34,283,200,82,48,39
78,43,-34,-61,56,4,29,302,219,107,68,58
97,43,-53,-70,75,-4,19,317,239,122,87,78
102,48,-53,-75,78,-2,14,336,258,136,107,92
122,68,-53,-95,87,7,9,346,273,151,126,107
131,82,-48,-107,90,17,9,356,292,161,136,122
146,112,-34,-129,90,39,0,370,307,185,161,141
156,136,-19,-146,87,58,-9,380,322,200,185,156
170,156,-14,-163,92,70,-24,385,341,219,195,170
185,165,-19,-175,102,73,-29,390,366,234,204,185
190,180,-9,-185,100,85,-34,395,390,248,229,200
195,195,0,-195,97,97,-34,400,400,268,239,219
200,200,0,-200,100,100,-34,400,419,292,253,234
204,204,0,-204,102,102,-34,400,434,312,273,248
214,214,0,-214,107,107,-34,380,429,312,283,258
214,219,4,-217,104,112,-39,356,414,312,287,258
200,214,14,-207,92,114,-39,326,414,307,268,244
195,214,19,-204,87,117,-39,302,385,287,263,234
180,209,29,-195,75,119,-39,278,356,268,244,224
170,190,19,-180,75,104,-43,248,322,248,224,200
156,170,14,-163,70,92,-43,204,283,214,204,185
126,151,24,-139,51,87,-43,175,244,185,180,170
102,131,29,-117,36,80,-39,146,214,165,161,141
82,117,34,-100,24,75,-34,117,180,146,141,117
73,97,24,-85,24,61,-34,97,156,117,122,107
53,78,24,-65,14,51,-29,78,131,97,102,87
48,58,9,-53,19,34,-9,63,112,82,82,68
34,43,9,-39,12,26,-4,48,78,58,63,48
29,24,-4,-26,17,9,0,34,53,39,48,34
14,19,4,-17,4,12,4,24,43,29,39,24
0,9,9,-4,-4,9,4,14,9,9,14,0
-14,-9,4,12,-9,-2,14,9,-4,0,4,-9
-24,-24,0,24,-12,-12,9,-4,-9,-9,-9,-14
-34,-34,0,34,-17,-17,4,-14,-14,-19,-19,-19
-39,-34,4,36,-21,-14,4,-14,-34,-29,-19,-29
-39,-39,0,39,-19,-19,4,-19,-39,-34,-24,-29
-43,-43,0,43,-21,-21,9,-19,-39,-34,-29,-34
-43,-48,-4,46,-19,-26,9,-19,-39,-39,-34,-39
-43,-53,-9,48,-17,-31,9,-19,-43,-58,-34,-39
-43,-53,-9,48,-17,-31,9,-24,-48,-68,-34,-39
-43,-58,-14,51,-14,-36,14,-19,-48,-63,-34,-39
-43,-63,-19,53,-12,-41,14,-14,-48,-63,-39,-43
-43,-68,-24,56,-9,-46,19,-14,-48,-58,-43,-43
-43,-68,-24,56,-9,-46,19,-14,-48,-53,-48,-48
-43,-63,-19,53,-12,-41,14,-14,-48,-58,-53,-58
-48,-63,-14,56,-17,-39,9,-19,-48,-58,-58,-63
-53,-73,-19,63,-17,-46,9,-19,-53,-63,-58,-63
-53,-73,-19,63,-17,-46,9,-19,-58,-68,-63,-58
-53,-73,-19,63,-17,-46,24,-19,-58,-68,-63,-58
-53,-73,-19,63,-17,-46,29,-19,-53,-68,-63,-58
-53,-73,-19,63,-17,-46,24,-19,-58,-68,-63,-63
-48,-63,-14,56,-17,-39,24,-19,-63,-68,-63,-63
-53,-73,-19,63,-17,-46,29,-19,-63,-68,-63,-63
-58,-73,-14,65,-21,-43,29,-19,-63,-68,-63,-68
-63,-78,-14,70,-24,-46,29,-14,-63,-63,-63,-68
-68,-82,-14,75,-26,-48,29,-14,-58,-63,-63,-68
-68,-82,-14,75,-26,-48,24,-9,-58,-68,-68,-68
-68,-82,-14,75,-26,-48,19,-9,-58,-68,-73,-68
-63,-82,-19,73,-21,-51,24,-4,-58,-68,-68,-68
-63,-78,-14,70,-24,-46,24,-4,-48,-68,-68,-68
-53,-68,-14,61,-19,-41,24,-4,-48,-68,-68,-68
-43,-68,-24,56,-9,-46,24,-4,-48,-68,-68,-68
-58,-73,-14,65,-21,-43,24,-4,-48,-68,-68,-73
-68,-78,-9,73,-29,-43,29,-4,-43,-63,-63,-78
-68,-82,-14,75,-26,-48,39,0,-43,-63,-68,-73
-68,-87,-19,78,-24,-53,43,4,-43,-63,-73,-73
-63,-87,-24,75,-19,-56,39,0,-39,-63,-73,-78
-63,-87,-24,75,-19,-56,29,0,-34,-63,-73,-78
-58,-82,-24,70,-17,-53,29,0,-39,-63,-68,-78
-48,-82,-34,65,-7,-58,29,4,-39,-63,-68,-68
-48,-87,-39,68,-4,-63,29,9,-39,-63,-63,-68
-48,-87,-39,68,-4,-63,29,9,-48,-63,-63,-73
-58,-87,-29,73,-14,-58,29,9,-48,-68,-63,-73
-63,-87,-24,75,-19,-56,29,9,-48,-73,-63,-73
-63,-92,-29,78,-17,-61,29,4,-48,-73,-73,-73
-58,-97,-39,78,-9,-68,29,4,-48,-73,-78,-68
-53,-102,-48,78,-2,-75,29,4,-43,-63,-73,-63
-53,-92,-39,73,-7,-65,24,4,-39,-58,-68,-63
-53,-87,-34,70,-9,-61,24,0,-48,-68,-58,-63
-48,-78,-29,63,-9,-53,24,0,-48,-68,-58,-68
-53,-82,-29,68,-12,-56,24,0,-58,-78,-68,-68
-53,-92,-39,73,-7,-65,24,0,-58,-82,-73,-68
-58,-92,-34,75,-12,-63,24,-9,-53,-82,-68,-73
-58,-87,-29,73,-14,-58,24,-9,-53,-78,-68,-73
-58,-87,-29,73,-14,-58,24,-4,-58,-78,-73,-73
-58,-87,-29,73,-14,-58,24,0,-63,-82,-73,-73
-58,-92,-34,75,-12,-63,24,0,-68,-82,-73,-73
-63,-92,-29,78,-17,-61,24,0,-68,-82,-73,-78
-63,-92,-29,78,-17,-61,29,-4,-68,-82,-73,-82
-63,-97,-34,80,-14,-65,29,-4,-68,-82,-73,-82
-63,-102,-39,82,-12,-70,34,-9,-68,-82,-73,-82
-63,-97,-34,80,-14,-65,39,-9,-68,-82,-73,-82
-63,-97,-34,80,-14,-65,34,-9,-68,-82,-73,-82
-63,-97,-34,80,-14,-65,34,-9,-68,-82,-78,-78
-63,-102,-39,82,-12,-70,34,-9,-68,-82,-78,-78
-63,-107,-43,85,-9,-75,29,-9,-68,-87,-78,-78
-58,-97,-39,78,-9,-68,29,-9,-68,-87,-78,-78
-53,-97,-43,75,-4,-70,24,-14,-73,-87,-78,-82
-53,-92,-39,73,-7,-65,24,-19,-73,-87,-82,-82
-58,-102,-43,80,-7,-73,29,-19,-73,-87,-82,-87
-63,-107,-43,85,-9,-75,29,-19,-78,-87,-82,-87
-73,-107,-34,90,-19,-70,29,-19,-82,-87,-87,-87
-73,-107,-34,90,-19,-70,19,-24,-87,-97,-87,-87
-68,-107,-39,87,-14,-73,14,-24,-87,-102,-87,-87
-68,-112,-43,90,-12,-78,19,-24,-82,-97,-82,-82
-68,-117,-48,92,-9,-82,24,-24,-82,-92,-78,-82
-68,-107,-39,87,-14,-73,19,-19,-82,-87,-78,-78
-68,-97,-29,82,-19,-63,19,-19,-87,-87,-78,-78
-68,-97,-29,82,-19,-63,19,-19,-87,-87,-78,-78
-68,-97,-29,82,-19,-63,19,-19,-87,-87,-78,-78
-68,-92,-24,80,-21,-58,19,-19,-78,-87,-78,-78
-68,-87,-19,78,-24,-53,19,-19,-68,-87,-78,-78
-63,-73,-9,68,-26,-41,29,-14,-58,-78,-73,-68
-58,-58,0,58,-29,-29,39,-9,-48,-68,-68,-58
-58,-53,4,56,-31,-24,39,-9,-48,-68,-63,-58
-58,-48,9,53,-34,-19,39,-9,-48,-68,-58,-58
-58,-48,9,53,-34,-19,43,-9,-43,-68,-58,-58
-58,-48,9,53,-34,-19,48,-9,-39,-68,-58,-58
-58,-48,9,53,-34,-19,48,-9,-39,-63,-53,-58
-58,-48,9,53,-34,-19,48,-9,-39,-58,-48,-58
-48,-34,14,41,-31,-9,43,-19,-39,-58,-48,-53
-39,-19,19,29,-29,0,39,-29,-39,-58,-48,-48
-39,-19,19,29,-29,0,19,-34,-43,-63,-48,-48
-39,-19,19,29,-29,0,0,-39,-48,-68,-48,-48
-39,-19,19,29,-29,0,-14,-53,-58,-73,-48,-48
-39,-19,19,29,-29,0,-29,-68,-68,-78,-48,-48
-39,-4,34,21,-36,14,-34,-68,-68,-78,-48,-43
-39,9,48,14,-43,29,-39,-68,-68,-78,-48,-39
-29,19,48,4,-39,34,-39,-63,-63,-63,-39,-29
-19,29,48,-4,-34,39,-39,-58,-58,-48,-29,-19
-4,19,24,-7,-14,21,-39,-53,-58,-48,-29,-19
9,9,0,-9,4,4,-39,-48,-58,-48,-29,-19
-9,-19,-9,14,0,-14,-24,-48,-58,-53,-34,-24
-29,-48,-19,39,-4,-34,-9,-48,-58,-58,-39,-29
-48,-68,-19,58,-14,-43,-4,-53,-78,-82,-58,-53
-68,-87,-19,78,-24,-53,0,-58,-97,-107,-78,-78
-73,-102,-29,87,-21,-65,4,-58,-97,-112,-87,-82
-78,-117,-39,97,-19,-78,9,-58,-97,-117,-97,-87
-78,-122,-43,100,-17,-82,14,-53,-97,-117,-97,-92
-78,-126,-48,102,-14,-87,19,-48,-97,-117,-97,-97
-78,-136,-58,107,-9,-97,19,-43,-97,-117,-97,-97
-78,-146,-68,112,-4,-107,19,-39,-97,-117,-97,-97
-82,-151,-68,117,-7,-109,24,-39,-97,-117,-97,-97
-87,-156,-68,122,-9,-112,29,-39,-97,-117,-97,-97
-87,-156,-68,122,-9,-112,29,-39,-97,-117,-102,-97
-87,-156,-68,122,-9,-112,29,-39,-97,-117,-107,-97
-87,-161,-73,124,-7,-117,29,-39,-97,-117,-107,-102
-87,-165,-78,126,-4,-122,29,-39,-97,-117,-107,-107
-87,-165,-78,126,-4,-122,34,-34,-97,-117,-107,-107
-87,-165,-78,126,-4,-122,39,-29,-97,-117,-107,-107
-87,-165,-78,126,-4,-122,39,-29,-97,-117,-107,-107
-87,-165,-78,126,-4,-122,39,-29,-97,-117,-107,-107
-92,-175,-82,134,-4,-129,39,-29,-97,-117,-107,-107
-97,-185,-87,141,-4,-136,39,-29,-97,-117,-107,-107
-107,-195,-87,151,-9,-141,58,-19,-97,-136,-126,-131
-117,-204,-87,161,-14,-146,78,-9,-97,-156,-146,-156
-151,-244,-92,197,-29,-168,117,24,-102,-200,-200,-209
-185,-283,-97,234,-43,-190,156,58,-107,-244,-253,-263
-219,-297,-78,258,-70,-187,219,102,-107,-273,-287,-292
-253,-312,-58,283,-97,-185,283,146,-107,-302,-322,-322
-200,-253,-53,226,-73,-153,292,268,14,-190,-229,-248
-146,-195,-48,170,-48,-122,302,390,136,-78,-136,-175
43,0,-43,-21,43,-21,190,409,366,239,170,92
234,195,-39,-214,136,78,78,429,595,556,478,361
405,483,78,-444,163,280,-170,78,629,883,854,688
575,771,195,-673,190,483,-419,-273,663,1210,1229,1015
614,668,53,-641,280,361,-512,-414,829,1527,1385,1102
653,566,-87,-610,370,239,-605,-556,995,1844,1542,1190
414,439,24,-427,195,231,-522,-741,610,1351,1102,868
175,312,136,-244,19,224,-439,-927,224,858,663,546
175,312,136,-244,19,224,-439,-927,224,858,663,546
