I, II, III, aVR, aVL, aVF, V1, V2, V3, V4, V5, V6
468,614,146,-541,161,380,-771,351,878,1190,976,644
531,736,204,-634,163,470,-897,278,746,1220,1093,775
595,858,263,-727,165,561,-1024,204,614,1249,1210,907
522,702,180,-612,170,441,-951,14,180,824,971,814
448,546,97,-497,175,322,-878,-175,-253,400,732,722
263,307,43,-285,109,175,-771,-366,-492,48,439,546
78,68,-9,-73,43,29,-663,-556,-732,-302,146,370
39,4,-34,-21,36,-14,-546,-497,-644,-312,68,278
0,-58,-58,29,29,-58,-429,-439,-556,-322,-9,185
-24,-117,-92,70,34,-104,-297,-336,-434,-273,-34,126
-48,-175,-126,112,39,-151,-165,-234,-312,-224,-58,68
-53,-175,-122,114,34,-148,-92,-165,-234,-170,-48,53
-58,-175,-117,117,29,-146,-19,-97,-156,-117,-39,39
-58,-180,-122,119,31,-151,14,-82,-122,-102,-39,24
-58,-185,-126,122,34,-156,48,-68,-87,-87,-39,9
-63,-185,-122,124,29,-153,53,-63,-87,-87,-39,4
-68,-185,-117,126,24,-151,58,-58,-87,-87,-39,0
-73,-200,-126,136,26,-163,63,-58,-82,-87,-43,-4
-78,-214,-136,146,29,-175,68,-58,-78,-87,-48,-9
-78,-214,-136,146,29,-175,68,-53,-73,-87,-48,-9
-78,-214,-136,146,29,-175,68,-48,-68,-87,-48,-9
-78,-214,-136,146,29,-175,68,-43,-68,-87,-48,-9
-78,-214,-136,146,29,-175,68,-39,-68,-87,-48,-9
-78,-214,-136,146,29,-175,68,-39,-63,-82,-48,-9
-78,-214,-136,146,29,-175,68,-39,-58,-78,-48,-9
-78,-214,-136,146,29,-175,73,-34,-53,-78,-48,-9
-78,-214,-136,146,29,-175,78,-29,-48,-78,-48,-9
-73,-209,-136,141,31,-173,78,-29,-48,-78,-48,-9
-68,-204,-136,136,34,-170,78,-29,-48,-78,-48,-9
-68,-204,-136,136,34,-170,78,-24,-43,-78,-43,-9
-68,-204,-136,136,34,-170,78,-19,-39,-78,-39,-9
-68,-204,-136,136,34,-170,78,-19,-39,-78,-39,-4
-68,-204,-136,136,34,-170,78,-19,-39,-78,-39,0
-68,-200,-131,134,31,-165,82,-14,-34,-68,-39,0
-68,-195,-126,131,29,-161,87,-9,-29,-58,-39,0
-68,-195,-126,131,29,-161,87,-4,-19,-58,-34,0
-68,-195,-126,131,29,-161,87,0,-9,-58,-29,0
-63,-190,-126,126,31,-158,87,4,-9,-53,-29,4
-58,-185,-126,122,34,-156,87,9,-9,-48,-29,9
-58,-185,-126,122,34,-156,87,14,0,-43,-24,9
-58,-185,-126,122,34,-156,87,19,9,-39,-19,9
-58,-185,-126,122,34,-156,87,29,14,-34,-19,9
-58,-185,-126,122,34,-156,87,39,19,-29,-19,9
-53,-175,-122,114,34,-148,87,43,29,-19,-14,9
-48,-165,-117,107,34,-141,87,48,39,-9,-9,9
-48,-161,-112,104,31,-136,97,58,53,0,-4,19
-48,-156,-107,102,29,-131,107,68,68,9,0,29
-43,-156,-112,100,34,-134,107,82,78,19,4,34
-39,-156,-117,97,39,-136,107,97,87,29,9,39
-34,-146,-112,90,39,-129,117,122,107,43,24,43
-29,-136,-107,82,39,-122,126,146,126,58,39,48
-19,-126,-107,73,43,-117,131,161,146,78,48,48
-9,-117,-107,63,48,-112,136,175,165,97,58,48
0,-107,-107,53,53,-107,146,200,190,112,68,53
9,-97,-107,43,58,-102,156,224,214,126,78,58
19,-87,-107,34,63,-97,161,253,239,146,97,68
29,-78,-107,24,68,-92,165,283,263,165,117,78
39,-53,-92,7,65,-73,170,317,292,195,131,87
48,-29,-78,-9,63,-53,175,351,322,224,146,97
63,-9,-73,-26,68,-41,185,385,351,253,165,112
78,9,-68,-43,73,-29,195,419,380,283,185,126
92,24,-68,-58,80,-21,200,448,405,307,204,131
107,39,-68,-73,87,-14,204,478,429,331,224,136
117,53,-63,-85,90,-4,209,507,453,351,244,151
126,68,-58,-97,92,4,214,536,478,370,263,165
136,87,-48,-112,92,19,214,566,497,390,278,175
146,107,-39,-126,92,34,214,595,517,409,292,185
156,117,-39,-136,97,39,214,595,522,424,307,200
165,126,-39,-146,102,43,214,595,527,439,322,214
165,136,-29,-151,97,53,204,590,527,439,326,219
165,146,-19,-156,92,63,195,585,527,439,331,224
165,146,-19,-156,92,63,180,546,497,424,331,224
165,146,-19,-156,92,63,165,507,468,409,331,224
151,131,-19,-141,85,56,146,453,419,370,307,214
136,117,-19,-126,78,48,126,400,370,331,283,204
117,97,-19,-107,68,39,112,336,326,292,253,185
97,78,-19,-87,58,29,97,273,283,253,224,165
78,53,-24,-65,51,14,82,219,234,209,190,141
58,29,-29,-43,43,0,68,165,185,165,156,117
39,4,-34,-21,36,-14,58,122,151,131,126,102
19,-19,-39,0,29,-29,48,78,117,97,97,87
4,-34,-39,14,21,-36,43,53,87,68,73,73
-9,-48,-39,29,14,-43,39,29,58,39,48,58
-14,-63,-48,39,17,-56,34,0,39,24,34,43
-19,-78,-58,48,19,-68,29,-29,19,9,19,29
-29,-87,-58,58,14,-73,29,-39,4,-4,9,24
-39,-97,-58,68,9,-78,29,-48,-9,-19,0,19
-43,-107,-63,75,9,-85,29,-53,-14,-29,-4,14
-48,-117,-68,82,9,-92,29,-58,-19,-39,-9,9
-48,-117,-68,82,9,-92,24,-63,-29,-39,-14,4
-48,-117,-68,82,9,-92,19,-68,-39,-39,-19,0
-48,-117,-68,82,9,-92,19,-73,-39,-43,-19,0
-48,-117,-68,82,9,-92,19,-78,-39,-48,-19,0
-53,-117,-63,85,4,-90,19,-78,-39,-48,-19,0
-58,-117,-58,87,0,-87,19,-78,-39,-48,-19,0
-58,-117,-58,87,0,-87,14,-78,-43,-48,-24,0
-58,-117,-58,87,0,-87,9,-78,-48,-48,-29,0
-53,-117,-63,85,4,-90,9,-78,-48,-53,-29,0
-48,-117,-68,82,9,-92,9,-78,-48,-58,-29,0
-48,-117,-68,82,9,-92,9,-78,-48,-58,-29,-4
-48,-117,-68,82,9,-92,9,-78,-48,-58,-29,-9
-48,-117,-68,82,9,-92,14,-78,-48,-58,-29,-9
-48,-117,-68,82,9,-92,19,-78,-48,-58,-29,-9
-48,-117,-68,82,9,-92,19,-78,-48,-58,-34,-9
-48,-117,-68,82,9,-92,19,-78,-48,-58,-39,-9
-53,-117,-63,85,4,-90,19,-78,-48,-58,-39,-14
-58,-117,-58,87,0,-87,19,-78,-48,-58,-39,-19
-58,-112,-53,85,-2,-82,19,-73,-48,-58,-39,-19
-58,-107,-48,82,-4,-78,19,-68,-48,-58,-39,-19
-58,-107,-48,82,-4,-78,19,-68,-48,-58,-39,-19
-58,-107,-48,82,-4,-78,19,-68,-48,-58,-39,-19
-53,-107,-53,80,0,-80,19,-68,-48,-58,-39,-19
-48,-107,-58,78,4,-82,19,-68,-48,-58,-39,-19
-48,-102,-53,75,2,-78,19,-68,-48,-58,-39,-19
-48,-97,-48,73,0,-73,19,-68,-48,-58,-39,-19
-48,-97,-48,73,0,-73,19,-73,-48,-58,-39,-19
-48,-97,-48,73,0,-73,19,-78,-48,-58,-39,-19
-48,-97,-48,73,0,-73,19,-78,-48,-58,-39,-19
-48,-97,-48,73,0,-73,19,-78,-48,-58,-39,-19
-48,-97,-48,73,0,-73,19,-78,-48,-58,-43,-19
-48,-97,-48,73,0,-73,19,-78,-48,-58,-48,-19
-53,-97,-43,75,-4,-70,19,-82,-53,-63,-48,-19
-58,-97,-39,78,-9,-68,19,-87,-58,-68,-48,-19
-58,-97,-39,78,-9,-68,19,-87,-58,-68,-48,-24
-58,-97,-39,78,-9,-68,19,-87,-58,-68,-48,-29
-58,-97,-39,78,-9,-68,19,-87,-63,-68,-53,-29
-58,-97,-39,78,-9,-68,19,-87,-68,-68,-58,-29
-58,-92,-34,75,-12,-63,19,-92,-68,-68,-58,-29
-58,-87,-29,73,-14,-58,19,-97,-68,-68,-58,-29
-58,-87,-29,73,-14,-58,24,-102,-68,-68,-53,-29
-58,-87,-29,73,-14,-58,29,-107,-68,-68,-48,-29
-58,-87,-29,73,-14,-58,29,-107,-68,-73,-48,-29
-58,-87,-29,73,-14,-58,29,-107,-68,-78,-48,-29
-58,-82,-24,70,-17,-53,29,-107,-68,-78,-53,-29
-58,-78,-19,68,-19,-48,29,-107,-68,-78,-58,-29
-58,-68,-9,63,-24,-39,29,-107,-68,-78,-58,-29
-58,-58,0,58,-29,-29,29,-107,-68,-78,-58,-29
-58,-48,9,53,-34,-19,29,-107,-63,-68,-53,-24
-58,-39,19,48,-39,-9,29,-107,-58,-58,-48,-19
-53,-29,24,41,-39,-2,34,-107,-48,-58,-43,-19
-48,-19,29,34,-39,4,39,-107,-39,-58,-39,-19
-43,-19,24,31,-34,2,43,-107,-39,-58,-39,-19
-39,-19,19,29,-29,0,48,-107,-39,-58,-39,-19
-39,-19,19,29,-29,0,48,-102,-39,-53,-39,-19
-39,-19,19,29,-29,0,48,-97,-39,-48,-39,-19
-39,-14,24,26,-31,4,43,-97,-39,-48,-39,-14
-39,-9,29,24,-34,9,39,-97,-39,-48,-39,-9
-34,9,43,12,-39,26,34,-102,-34,-43,-29,-4
-19,34,53,-7,-36,43,19,-107,-24,-29,-14,9
-9,63,73,-26,-41,68,9,-112,-19,-19,0,29
0,87,87,-43,-43,87,-4,-112,-19,-14,4,34
0,82,82,-41,-41,82,-14,-107,-19,-14,4,34
0,82,82,-41,-41,82,-19,-107,-19,-14,4,34
9,73,63,-41,-26,68,-34,-107,-34,-19,4,29
24,73,48,-48,-12,61,-39,-107,-43,-29,4,24
24,58,34,-41,-4,46,-39,-107,-53,-39,-14,14
19,29,9,-24,4,19,-43,-112,-68,-53,-24,0
4,14,9,-9,-2,12,-43,-117,-73,-58,-34,-9
-9,4,14,2,-12,9,-39,-117,-73,-58,-34,-14
-24,-4,19,14,-21,7,-29,-117,-78,-63,-39,-24
-34,-24,9,29,-21,-7,-19,-126,-78,-73,-48,-34
-48,-39,9,43,-29,-14,-9,-131,-87,-82,-58,-39
-58,-43,14,51,-36,-14,-4,-131,-97,-92,-68,-48
-58,-53,4,56,-31,-24,-4,-131,-102,-97,-78,-58
-58,-63,-4,61,-26,-34,-4,-131,-107,-107,-87,-68
-68,-82,-14,75,-26,-48,0,-131,-117,-117,-97,-78
-73,-82,-9,78,-31,-46,0,-131,-117,-117,-97,-78
-73,-87,-14,80,-29,-51,0,-136,-117,-117,-92,-78
-73,-92,-19,82,-26,-56,4,-136,-117,-117,-92,-78
-73,-97,-24,85,-24,-61,9,-136,-122,-122,-102,-82
-78,-102,-24,90,-26,-63,14,-136,-122,-126,-102,-82
-78,-102,-24,90,-26,-63,14,-136,-122,-131,-102,-82
-78,-102,-24,90,-26,-63,14,-136,-126,-131,-107,-82
-78,-102,-24,90,-26,-63,19,-141,-126,-131,-107,-87
-82,-107,-24,95,-29,-65,19,-141,-126,-136,-107,-92
-87,-107,-19,97,-34,-63,19,-146,-126,-141,-107,-92
-87,-107,-19,97,-34,-63,19,-146,-126,-141,-107,-92
-87,-102,-14,95,-36,-58,19,-146,-126,-141,-107,-92
-82,-102,-19,92,-31,-61,24,-146,-126,-141,-107,-87
-82,-102,-19,92,-31,-61,24,-146,-126,-141,-112,-87
-82,-102,-19,92,-31,-61,24,-146,-131,-141,-112,-87
-87,-107,-19,97,-34,-63,24,-151,-136,-141,-117,-87
-87,-107,-19,97,-34,-63,24,-151,-141,-141,-117,-87
-78,-102,-24,90,-26,-63,19,-146,-141,-141,-117,-87
-73,-102,-29,87,-21,-65,14,-146,-141,-141,-117,-87
-78,-102,-24,90,-26,-63,14,-146,-131,-141,-117,-87
-78,-102,-24,90,-26,-63,14,-146,-126,-136,-117,-87
-82,-97,-14,90,-34,-56,14,-146,-126,-141,-122,-92
-82,-92,-9,87,-36,-51,14,-146,-126,-146,-126,-92
-82,-92,-9,87,-36,-51,14,-146,-131,-146,-126,-92
-87,-102,-14,95,-36,-58,14,-146,-136,-151,-131,-102
-97,-97,0,97,-48,-48,14,-146,-131,-151,-141,-102
-87,-82,4,85,-46,-39,-19,-131,-92,-126,-131,-97
-48,-4,43,26,-46,19,-73,-43,73,34,-29,-43
63,131,68,-97,-2,100,-151,170,336,263,122,48
204,297,92,-251,56,195,-361,326,570,536,341,180
395,551,156,-473,119,353,-663,400,771,888,658,380
595,839,244,-717,175,541,-980,453,907,1293,1029,629
683,946,263,-814,209,605,-1098,483,858,1390,1180,746
692,854,161,-773,265,507,-1078,385,400,1029,1029,712
649,644,-4,-646,326,319,-1000,195,-136,507,746,600
541,356,-185,-448,363,85,-927,-14,-536,63,424,439
317,117,-200,-217,258,-41,-839,-307,-795,-297,122,253
151,78,-73,-114,112,2,-746,-561,-824,-405,4,200
73,63,-9,-68,41,26,-570,-541,-668,-375,-34,141
43,14,-29,-29,36,-7,-390,-409,-541,-346,-97,58
14,-4,-19,-4,17,-12,-248,-322,-409,-273,-97,14
-9,-4,4,7,-7,0,-146,-200,-258,-185,-82,4
-14,-4,9,9,-12,2,-78,-136,-190,-151,-78,-19
-24,-9,14,17,-19,2,-24,-126,-165,-141,-78,-43
-43,-29,14,36,-29,-7,9,-117,-136,-126,-92,-63
-53,-34,19,43,-36,-7,24,-107,-102,-117,-102,-73
-58,-34,24,46,-41,-4,29,-102,-102,-117,-102,-82
-63,-34,29,48,-46,-2,39,-102,-122,-117,-102,-82
-73,-39,34,56,-53,-2,53,-102,-112,-122,-107,-87
-73,-43,29,58,-51,-7,58,-97,-102,-122,-107,-87
-73,-48,24,61,-48,-12,58,-97,-102,-122,-107,-82
-73,-48,24,61,-48,-12,53,-92,-102,-126,-107,-82
-73,-53,19,63,-46,-17,53,-92,-102,-126,-107,-92
-73,-53,19,63,-46,-17,58,-92,-92,-126,-107,-97
-73,-53,19,63,-46,-17,58,-87,-87,-126,-107,-97
-73,-58,14,65,-43,-21,63,-82,-87,-126,-107,-92
-73,-58,14,65,-43,-21,63,-82,-92,-126,-107,-92
-68,-58,9,63,-39,-24,63,-82,-87,-122,-107,-87
-63,-43,19,53,-41,-12,63,-78,-82,-122,-107,-82
-63,-14,48,39,-56,17,58,-78,-82,-117,-102,-78
-58,-24,34,41,-46,4,58,-78,-78,-117,-102,-78
-63,-39,24,51,-43,-7,63,-78,-73,-112,-102,-78
-68,-39,29,53,-48,-4,58,-73,-73,-107,-102,-78
-68,-34,34,51,-51,0,63,-63,-68,-107,-97,-82
-63,-29,34,46,-48,2,63,-63,-68,-102,-97,-78
-63,-14,48,39,-56,17,63,-58,-68,-102,-102,-78
-63,-14,48,39,-56,17,63,-58,-63,-97,-102,-78
-63,-19,43,41,-53,12,73,-58,-58,-92,-102,-78
-63,-24,39,43,-51,7,73,-48,-48,-97,-97,-73
-63,-14,48,39,-56,17,73,-43,-43,-92,-92,-78
-58,-14,43,36,-51,14,73,-39,-39,-87,-92,-78
-58,-14,43,36,-51,14,78,-24,-34,-82,-87,-82
-58,-4,53,31,-56,24,78,-14,-24,-78,-82,-82
-53,-4,48,29,-51,21,82,-4,-19,-78,-87,-82
-53,-14,39,34,-46,12,87,4,-9,-68,-92,-78
-43,0,43,21,-43,21,87,9,4,-53,-78,-68
-43,9,53,17,-48,31,87,14,14,-48,-68,-63
-39,19,58,9,-48,39,97,43,24,-39,-58,-58
-34,24,58,4,-46,41,102,63,39,-24,-53,-53
-29,29,58,0,-43,43,107,78,58,-14,-48,-53
-24,34,58,-4,-41,46,112,92,68,0,-48,-53
-24,48,73,-12,-48,61,117,112,82,14,-39,-53
-14,53,68,-19,-41,61,126,141,112,29,-29,-39
-4,53,58,-24,-31,56,141,170,131,48,-19,-29
4,58,53,-31,-24,56,156,200,156,63,-4,-29
14,63,48,-39,-17,56,161,244,185,87,4,-29
29,92,63,-61,-17,78,170,283,209,107,24,-24
39,102,63,-70,-12,82,180,322,244,131,34,-14
48,102,53,-75,-2,78,190,366,263,156,53,-4
58,141,82,-100,-12,112,200,400,287,170,73,4
68,151,82,-109,-7,117,204,439,326,200,92,14
78,165,87,-122,-4,126,229,488,356,224,102,24
92,180,87,-136,2,134,239,531,385,244,122,29
102,185,82,-143,9,134,244,566,405,263,131,34
117,204,87,-161,14,146,248,605,434,287,156,39
131,219,87,-175,21,153,263,634,458,312,170,48
141,229,87,-185,26,158,273,668,478,336,180,68
151,244,92,-197,29,168,273,697,492,351,190,78
165,263,97,-214,34,180,263,707,497,356,204,82
170,268,97,-219,36,183,258,702,497,370,214,92
175,278,102,-226,36,190,248,688,497,375,224,97
175,278,102,-226,36,190,229,663,483,356,224,102
175,273,97,-224,39,185,204,614,448,341,219,92
170,278,107,-224,31,192,180,556,414,322,209,92
161,278,117,-219,21,197,156,492,366,287,190,87
146,268,122,-207,12,195,136,424,317,253,170,82
131,244,112,-187,9,178,107,351,263,204,136,68
102,214,112,-158,-4,163,87,283,209,165,107,48
78,195,117,-136,-19,156,73,214,161,126,78,29
68,165,97,-117,-14,131,48,146,112,78,48,9
43,151,107,-97,-31,129,34,87,73,48,29,0
29,126,97,-78,-34,112,24,43,39,19,9,-24
9,107,97,-58,-43,102,14,4,9,-14,-19,-34
-9,87,97,-39,-53,92,4,-24,-19,-29,-34,-43
-14,78,92,-31,-53,85,0,-53,-34,-34,-43,-53
-29,63,92,-17,-61,78,0,-78,-48,-63,-58,-58
-34,63,97,-14,-65,80,-4,-102,-58,-68,-68,-63
-39,63,102,-12,-70,82,-4,-107,-63,-82,-78,-73
-39,63,102,-12,-70,82,-14,-112,-78,-87,-82,-97
-43,53,97,-4,-70,75,-14,-126,-87,-92,-82,-82
-43,43,87,0,-65,65,-14,-131,-87,-92,-87,-87
-48,39,87,4,-68,63,-14,-136,-92,-92,-92,-87
-48,34,82,7,-65,58,-14,-136,-92,-102,-92,-87
-48,34,82,7,-65,58,-14,-141,-92,-107,-92,-92
-53,34,87,9,-70,61,-14,-146,-97,-112,-92,-92
-48,29,78,9,-63,53,-14,-146,-97,-112,-102,-92
-43,29,73,7,-58,51,-19,-146,-97,-112,-107,-97
-43,34,78,4,-61,56,-19,-146,-102,-117,-107,-102
-43,34,78,4,-61,56,-14,-141,-102,-117,-107,-102
-48,29,78,9,-63,53,-14,-141,-107,-117,-107,-102
-53,29,82,12,-68,56,-14,-136,-112,-117,-107,-102
-53,34,87,9,-70,61,-19,-136,-112,-117,-112,-102
-48,39,87,4,-68,63,-19,-136,-112,-117,-117,-107
-48,39,87,4,-68,63,-19,-141,-112,-117,-112,-107
-48,34,82,7,-65,58,-19,-141,-117,-117,-112,-107
-48,39,87,4,-68,63,-24,-146,-117,-117,-112,-102
-48,43,92,2,-70,68,-24,-146,-112,-117,-112,-97
-48,43,92,2,-70,68,-24,-146,-112,-117,-112,-97
-48,43,92,2,-70,68,-24,-146,-112,-117,-112,-97
-43,43,87,0,-65,65,-24,-141,-112,-112,-112,-102
-39,43,82,-2,-61,63,-24,-141,-112,-112,-112,-102
-39,43,82,-2,-61,63,-24,-141,-112,-117,-112,-102
-43,43,87,0,-65,65,-19,-141,-112,-122,-112,-102
-48,39,87,4,-68,63,-19,-141,-117,-122,-117,-102
-53,39,92,7,-73,65,-19,-141,-117,-122,-122,-102
-53,43,97,4,-75,70,-14,-141,-117,-122,-122,-102
-53,48,102,2,-78,75,-14,-141,-107,-122,-122,-102
-48,48,97,0,-73,73,-14,-141,-107,-122,-117,-102
-43,48,92,-2,-68,70,-14,-141,-107,-122,-112,-102
-43,48,92,-2,-68,70,-19,-146,-112,-126,-117,-102
-48,48,97,0,-73,73,-19,-146,-112,-126,-117,-102
-48,48,97,0,-73,73,-19,-146,-117,-126,-117,-102
-48,48,97,0,-73,73,-19,-146,-122,-126,-117,-107
-43,53,97,-4,-70,75,-19,-146,-122,-126,-117,-112
-43,53,97,-4,-70,75,-19,-151,-122,-131,-122,-112
-48,48,97,0,-73,73,-24,-146,-122,-131,-122,-112
-48,48,97,0,-73,73,-24,-146,-122,-136,-126,-112
-48,53,102,-2,-75,78,-24,-146,-122,-136,-126,-107
-43,58,102,-7,-73,80,-24,-146,-122,-136,-122,-107
-39,58,97,-9,-68,78,-29,-151,-126,-136,-126,-107
-39,58,97,-9,-68,78,-34,-151,-131,-141,-131,-112
-48,53,102,-2,-75,78,-34,-156,-136,-141,-136,-117
-53,53,107,0,-80,80,-34,-161,-136,-146,-136,-117
-53,48,102,2,-78,75,-34,-161,-136,-146,-136,-117
-53,48,102,2,-78,75,-34,-161,-141,-146,-141,-117
-53,48,102,2,-78,75,-34,-161,-141,-146,-141,-117
-53,48,102,2,-78,75,-34,-156,-141,-146,-136,-117
-53,48,102,2,-78,75,-34,-156,-141,-141,-136,-117
-53,53,107,0,-80,80,-34,-156,-136,-141,-136,-117
-53,53,107,0,-80,80,-29,-161,-136,-141,-131,-117
-53,63,117,-4,-85,90,-29,-161,-131,-136,-131,-117
-53,68,122,-7,-87,95,-29,-161,-131,-136,-126,-112
-48,82,131,-17,-90,107,-24,-161,-126,-126,-126,-102
-48,82,131,-17,-90,107,-14,-161,-117,-126,-122,-97
-43,102,146,-29,-95,124,-14,-165,-112,-122,-117,-97
-34,107,141,-36,-87,124,-9,-151,-102,-112,-112,-97
-29,117,146,-43,-87,131,-9,-136,-97,-107,-107,-97
-29,117,146,-43,-87,131,-4,-136,-97,-107,-107,-97
-29,117,146,-43,-87,131,0,-136,-97,-107,-107,-97
-29,117,146,-43,-87,131,0,-141,-97,-107,-107,-97
-24,131,156,-53,-90,143,-4,-141,-87,-97,-97,-87
-19,146,165,-63,-92,156,-14,-146,-82,-92,-87,-82
0,180,180,-90,-90,180,-29,-151,-68,-78,-68,-58
9,209,200,-109,-95,204,-48,-151,-68,-73,-63,-48
9,204,195,-107,-92,200,-63,-146,-68,-73,-63,-43
9,200,190,-104,-90,195,-68,-141,-68,-73,-63,-43
19,190,170,-104,-75,180,-82,-136,-82,-78,-63,-48
34,185,151,-109,-58,168,-87,-136,-92,-87,-63,-53
34,170,136,-102,-51,153,-87,-136,-107,-102,-82,-63
29,141,112,-85,-41,126,-92,-141,-126,-122,-92,-73
14,122,107,-68,-46,114,-92,-146,-131,-126,-107,-78
0,112,112,-56,-56,112,-87,-146,-131,-126,-107,-82
-14,102,117,-43,-65,109,-78,-146,-136,-131,-107,-92
-24,87,112,-31,-68,100,-68,-156,-136,-141,-117,-102
-39,73,112,-17,-75,92,-58,-161,-146,-151,-126,-107
-48,63,112,-7,-80,87,-53,-165,-156,-161,-136,-117
-48,53,102,-2,-75,78,-53,-170,-161,-165,-146,-126
-53,39,92,7,-73,65,-53,-170,-165,-175,-161,-136
-68,14,82,26,-75,48,-48,-170,-175,-185,-175,-146
-73,14,87,29,-80,51,-48,-170,-175,-185,-175,-146
-73,14,87,29,-80,51,-48,-175,-175,-185,-170,-146
-68,14,82,26,-75,48,-43,-175,-175,-185,-170,-151
-63,9,73,26,-68,41,-43,-175,-180,-190,-180,-161
-68,4,73,31,-70,39,-43,-175,-180,-195,-180,-161
-68,4,73,31,-70,39,-43,-175,-180,-195,-180,-161
-68,4,73,31,-70,39,-43,-175,-185,-190,-185,-156
-68,4,73,31,-70,39,-39,-180,-185,-190,-185,-156
-73,0,73,36,-73,36,-39,-180,-185,-195,-185,-161
-78,0,78,39,-78,39,-39,-185,-185,-200,-185,-161
-78,0,78,39,-78,39,-39,-185,-185,-200,-185,-161
-78,4,82,36,-80,43,-39,-185,-185,-200,-185,-161
-73,4,78,34,-75,41,-34,-180,-185,-200,-185,-156
-73,4,78,34,-75,41,-34,-175,-185,-200,-190,-156
-73,0,73,36,-73,36,-34,-175,-190,-200,-190,-156
-78,-9,68,43,-73,29,-34,-180,-190,-200,-190,-156
-78,-9,68,43,-73,29,-34,-185,-190,-200,-185,-156
-73,-4,68,39,-70,31,-34,-185,-190,-200,-185,-156
-73,0,73,36,-73,36,-34,-185,-190,-195,-185,-156
-78,4,82,36,-80,43,-34,-185,-185,-190,-185,-156
-78,4,82,36,-80,43,-34,-185,-180,-185,-180,-156
-78,4,82,36,-80,43,-34,-185,-175,-185,-175,-156
-73,4,78,34,-75,41,-34,-185,-175,-185,-175,-151
-73,4,78,34,-75,41,-34,-185,-175,-185,-175,-151
-82,-9,73,46,-78,31,-24,-190,-190,-200,-185,-165
-97,-14,82,56,-90,34,-19,-195,-200,-209,-200,-170
-102,-24,78,63,-90,26,-53,-195,-195,-219,-209,-175
-78,24,102,26,-90,63,-102,-107,-73,-97,-131,-136
34,136,102,-85,-34,119,-156,146,180,102,-14,-68
185,283,97,-234,43,190,-336,336,390,341,170,43
400,546,146,-473,126,346,-653,444,605,717,502,253
614,849,234,-732,190,541,-990,522,771,1127,878,512
741,980,239,-861,251,610,-1137,605,756,1263,1063,649
780,932,151,-856,314,541,-1146,536,380,1010,976,644
746,741,-4,-744,375,368,-1068,331,-156,502,707,541
653,453,-200,-553,427,126,-985,117,-580,39,390,380
390,204,-185,-297,287,9,-907,-263,-849,-341,82,195
190,156,-34,-173,112,61,-844,-575,-902,-473,-39,141
97,141,43,-119,26,92,-663,-561,-746,-444,-73,87
53,87,34,-70,9,61,-468,-448,-629,-414,-136,9
19,68,48,-43,-14,58,-317,-361,-488,-331,-141,-34
-9,63,73,-26,-41,68,-200,-239,-317,-234,-131,-48
-14,58,73,-21,-43,65,-122,-165,-244,-195,-126,-68
-24,53,78,-14,-51,65,-63,-146,-214,-180,-126,-82
-48,29,78,9,-63,53,-29,-136,-180,-165,-136,-112
-58,24,82,17,-70,53,-14,-126,-141,-156,-141,-122
-58,24,82,17,-70,53,-9,-122,-136,-156,-141,-122
-63,24,87,19,-75,56,0,-122,-151,-156,-141,-122
-73,19,92,26,-82,56,19,-122,-136,-156,-146,-126
-73,14,87,29,-80,51,29,-117,-122,-151,-146,-131
-73,9,82,31,-78,46,29,-117,-122,-151,-146,-126
-73,9,82,31,-78,46,24,-112,-122,-151,-146,-122
-73,4,78,34,-75,41,24,-112,-122,-146,-146,-131
-73,4,78,34,-75,41,29,-112,-112,-141,-146,-131
-73,0,73,36,-73,36,34,-102,-112,-136,-146,-126
-73,-4,68,39,-70,31,39,-92,-112,-136,-141,-122
-73,-9,63,41,-68,26,34,-92,-112,-136,-136,-117
-73,-19,53,46,-63,17,34,-92,-107,-131,-136,-112
-73,-4,68,39,-70,31,34,-87,-102,-131,-136,-112
-73,9,82,31,-78,46,34,-87,-102,-126,-131,-107
-68,0,68,34,-68,34,34,-92,-97,-126,-131,-112
-68,0,68,34,-68,34,39,-92,-92,-122,-131,-117
-68,0,68,34,-68,34,39,-82,-92,-117,-131,-117
-68,4,73,31,-70,39,43,-73,-82,-112,-122,-117
-63,4,68,29,-65,36,43,-73,-78,-107,-117,-102
-63,14,78,24,-70,46,43,-68,-78,-112,-117,-97
-63,14,78,24,-70,46,43,-68,-73,-107,-112,-97
-63,4,68,29,-65,36,53,-63,-68,-97,-112,-97
-63,-9,53,36,-58,21,53,-48,-58,-97,-107,-92
-63,-4,58,34,-61,26,53,-43,-53,-92,-102,-92
-58,-9,48,34,-53,19,53,-39,-48,-87,-102,-87
-58,-9,48,34,-53,19,58,-29,-39,-82,-97,-87
-63,4,68,29,-65,36,58,-24,-29,-78,-92,-82
-63,4,68,29,-65,36,63,-14,-29,-73,-92,-82
-63,-4,58,34,-61,26,68,-4,-19,-58,-97,-82
-53,9,63,21,-58,36,68,0,-4,-43,-87,-78
-53,24,78,14,-65,51,68,0,4,-39,-78,-73
-48,34,82,7,-65,58,78,24,14,-34,-68,-68
-43,34,78,4,-61,56,82,43,29,-24,-63,-58
-39,34,73,2,-56,53,92,63,48,-14,-53,-53
-34,39,73,-2,-53,56,102,87,63,4,-39,-53
-34,43,78,-4,-56,61,107,112,82,24,-19,-53
-24,34,58,-4,-41,46,117,141,112,39,-9,-34
-14,43,58,-14,-36,51,126,175,131,58,0,-19
-4,53,58,-24,-31,56,136,204,156,73,14,-19
4,63,58,-34,-26,61,141,244,185,97,24,-19
19,97,78,-58,-29,87,156,283,209,117,43,-14
29,102,73,-65,-21,87,170,317,239,141,48,-4
39,92,53,-65,-7,73,180,361,253,170,63,9
48,131,82,-90,-17,107,185,400,278,190,82,24
58,151,92,-104,-17,122,185,439,322,219,107,34
68,151,82,-109,-7,117,204,483,356,244,122,43
82,156,73,-119,4,114,209,522,385,263,141,48
92,175,82,-134,4,129,214,556,400,283,151,53
107,204,97,-156,4,151,219,600,429,312,175,58
122,219,97,-170,12,158,229,634,458,336,190,68
131,214,82,-173,24,148,244,668,488,356,200,92
141,219,78,-180,31,148,253,697,512,370,209,107
161,239,78,-200,41,158,244,712,517,385,229,117
170,244,73,-207,48,158,239,717,517,405,239,126
175,253,78,-214,48,165,229,712,522,414,258,146
175,258,82,-217,46,170,214,692,517,405,273,165
175,248,73,-212,51,161,195,644,492,395,268,151
165,239,73,-202,46,156,170,585,463,380,258,151
151,239,87,-195,31,163,146,522,414,346,244,141
136,224,87,-180,24,156,126,453,366,312,229,136
122,195,73,-158,24,134,107,385,317,263,195,126
92,156,63,-124,14,109,102,322,268,224,165,107
68,126,58,-97,4,92,92,253,219,185,136,87
58,97,39,-78,9,68,73,190,170,141,107,68
34,82,48,-58,-7,65,63,131,126,107,87,63
19,58,39,-39,-9,48,53,87,92,78,68,43
0,39,39,-19,-19,39,39,48,68,53,39,34
-14,14,29,0,-21,21,29,14,39,29,24,24
-14,0,14,7,-14,7,29,-14,24,19,14,14
-29,-19,9,24,-19,-4,29,-34,9,-4,0,9
-39,-29,9,34,-24,-9,29,-53,0,-9,-9,19
-48,-39,9,43,-29,-14,34,-58,-4,-24,-19,24
-48,-48,0,48,-24,-24,24,-63,-19,-29,-24,-14
-53,-63,-9,58,-21,-36,24,-78,-29,-34,-24,-9
-53,-78,-24,65,-14,-51,24,-82,-29,-34,-29,-9
-58,-82,-24,70,-17,-53,24,-87,-34,-34,-34,-9
-58,-87,-29,73,-14,-58,24,-87,-34,-43,-34,-4
-58,-92,-34,75,-12,-63,24,-92,-34,-43,-34,-4
-63,-92,-29,78,-17,-61,29,-97,-39,-43,-34,-4
-63,-97,-34,80,-14,-65,34,-97,-39,-43,-39,-4
-58,-92,-34,75,-12,-63,29,-97,-34,-43,-39,0
-53,-87,-34,70,-9,-61,29,-97,-34,-48,-39,4
-53,-87,-34,70,-9,-61,29,-92,-34,-48,-39,4
-53,-87,-34,70,-9,-61,24,-92,-34,-48,-39,4
-58,-87,-29,73,-14,-58,24,-87,-34,-48,-39,4
-63,-87,-24,75,-19,-56,24,-87,-34,-48,-39,4
-58,-92,-34,75,-12,-63,29,-82,-34,-48,-39,4
-58,-97,-39,78,-9,-68,29,-87,-34,-48,-34,9
-58,-102,-43,80,-7,-73,29,-87,-39,-43,-29,9
-58,-102,-43,80,-7,-73,29,-87,-39,-39,-24,9
-58,-102,-43,80,-7,-73,34,-87,-34,-39,-24,9
-58,-102,-43,80,-7,-73,34,-87,-34,-39,-24,9
-53,-97,-43,75,-4,-70,34,-92,-34,-39,-24,9
-48,-92,-43,70,-2,-68,34,-92,-34,-34,-24,9
-48,-92,-43,70,-2,-68,34,-92,-34,-39,-24,14
-48,-92,-43,70,-2,-68,34,-92,-34,-43,-24,14
-53,-92,-39,73,-7,-65,39,-92,-34,-43,-24,19
-53,-97,-43,75,-4,-70,39,-92,-39,-43,-24,24
-53,-97,-43,75,-4,-70,34,-92,-39,-43,-24,24
-53,-97,-43,75,-4,-70,34,-97,-39,-43,-24,24
-53,-97,-43,75,-4,-70,34,-97,-29,-43,-29,19
-53,-97,-43,75,-4,-70,34,-92,-29,-43,-34,14
-53,-102,-48,78,-2,-75,39,-92,-29,-43,-34,14
-53,-107,-53,80,0,-80,39,-97,-34,-48,-39,14
-58,-107,-48,82,-4,-78,39,-97,-34,-43,-34,14
-58,-107,-48,82,-4,-78,39,-97,-34,-39,-29,19
-58,-107,-48,82,-4,-78,39,-97,-34,-39,-29,19
-53,-102,-48,78,-2,-75,39,-97,-34,-39,-29,14
-53,-102,-48,78,-2,-75,34,-97,-34,-43,-34,14
-58,-107,-48,82,-4,-78,24,-92,-39,-43,-34,14
-58,-107,-48,82,-4,-78,24,-97,-43,-53,-39,14
-63,-107,-43,85,-9,-75,24,-97,-43,-58,-39,19
-63,-107,-43,85,-9,-75,24,-97,-43,-58,-34,19
-58,-107,-48,82,-4,-78,24,-102,-43,-58,-34,24
-58,-107,-48,82,-4,-78,29,-97,-43,-63,-34,24
-63,-112,-48,87,-7,-80,34,-97,-48,-63,-39,19
-63,-112,-48,87,-7,-80,34,-102,-48,-68,-39,19
-63,-117,-53,90,-4,-85,34,-102,-48,-68,-39,19
-68,-122,-53,95,-7,-87,29,-97,-48,-68,-43,19
-73,-126,-53,100,-9,-90,24,-97,-43,-68,-43,19
-73,-126,-53,100,-9,-90,24,-97,-43,-68,-39,19
-73,-126,-53,100,-9,-90,24,-97,-43,-63,-39,19
-68,-122,-53,95,-7,-87,24,-97,-39,-63,-39,19
-63,-122,-58,92,-2,-90,29,-102,-39,-63,-34,19
-63,-117,-53,90,-4,-85,29,-102,-29,-53,-29,24
-63,-117,-53,90,-4,-85,29,-102,-24,-48,-19,24
-63,-112,-48,87,-7,-80,39,-102,-19,-34,-19,24
-63,-112,-48,87,-7,-80,53,-97,-9,-24,-9,43
-58,-102,-43,80,-7,-73,58,-92,0,-19,-4,43
-53,-97,-43,75,-4,-70,63,-87,9,-14,-4,43
-48,-107,-58,78,4,-82,63,-78,9,-9,0,39
-48,-117,-68,82,9,-92,68,-68,9,-9,0,39
-48,-122,-73,85,12,-97,68,-68,9,-9,0,39
-48,-126,-78,87,14,-102,68,-68,9,-9,0,39
-39,-112,-73,75,17,-92,63,-68,14,-4,9,48
-24,-82,-58,53,17,-70,48,-68,24,4,24,68
-9,-58,-48,34,19,-53,39,-73,39,19,39,87
0,-29,-29,14,14,-29,24,-73,48,24,43,92
0,-39,-39,19,19,-39,14,-68,48,24,43,92
0,-43,-43,21,21,-43,9,-68,48,24,43,92
9,-53,-63,21,36,-58,-9,-68,29,19,48,87
24,-53,-78,14,51,-65,-19,-68,14,9,53,82
24,-34,-58,4,41,-46,-19,-73,0,-4,34,73
19,-29,-48,4,34,-39,-24,-82,-19,-24,24,58
4,-73,-78,34,41,-75,-24,-87,-24,-29,9,48
-9,-112,-102,61,46,-107,-19,-87,-24,-29,4,43
-24,-112,-87,68,31,-100,-9,-87,-29,-34,-4,34
-34,-122,-87,78,26,-104,0,-97,-29,-43,-19,24
-48,-131,-82,90,17,-107,9,-102,-43,-58,-34,9
-58,-131,-73,95,7,-102,14,-102,-58,-73,-48,-9
-58,-141,-82,100,12,-112,14,-102,-63,-78,-58,-19
-58,-151,-92,104,17,-122,14,-102,-68,-87,-68,-29
-68,-151,-82,109,7,-117,9,-117,-82,-102,-78,-34
-73,-131,-58,102,-7,-95,0,-131,-87,-107,-78,-29
-73,-131,-58,102,-7,-95,0,-136,-87,-107,-73,-29
-73,-131,-58,102,-7,-95,4,-136,-87,-107,-73,-29
-78,-136,-58,107,-9,-97,4,-136,-97,-112,-82,-34
-87,-141,-53,114,-17,-97,4,-136,-102,-117,-82,-34
-87,-136,-48,112,-19,-92,0,-146,-102,-117,-82,-34
-87,-131,-43,109,-21,-87,-4,-156,-107,-112,-87,-34
-87,-131,-43,109,-21,-87,0,-161,-107,-107,-87,-34
-92,-136,-43,114,-24,-90,0,-161,-107,-107,-87,-34
-92,-126,-34,109,-29,-80,0,-165,-107,-112,-87,-34
-87,-117,-29,102,-29,-73,0,-165,-107,-112,-87,-34
-87,-107,-19,97,-34,-63,0,-165,-107,-117,-82,-34
-82,-102,-19,92,-31,-61,4,-165,-107,-122,-78,-29
-82,-102,-19,92,-31,-61,4,-170,-107,-122,-82,-29
-82,-102,-19,92,-31,-61,4,-175,-112,-122,-82,-29
-87,-107,-19,97,-34,-63,4,-180,-112,-122,-82,-29
-87,-107,-19,97,-34,-63,4,-180,-112,-122,-78,-29
-82,-107,-24,95,-29,-65,4,-175,-107,-117,-78,-29
-82,-112,-29,97,-26,-70,4,-175,-102,-112,-78,-29
-87,-117,-29,102,-29,-73,4,-175,-97,-112,-78,-29
-87,-122,-34,104,-26,-78,4,-175,-97,-107,-78,-29
-87,-126,-39,107,-24,-82,9,-170,-92,-107,-78,-29
-82,-131,-48,107,-17,-90,14,-165,-87,-107,-78,-24
-82,-131,-48,107,-17,-90,14,-161,-87,-107,-82,-29
-87,-141,-53,114,-17,-97,14,-156,-87,-112,-92,-43
-97,-146,-48,122,-24,-97,14,-141,-82,-112,-102,-48
-87,-141,-53,114,-17,-97,-19,-112,-43,-87,-92,-48
-48,-82,-34,65,-7,-58,-68,-19,97,63,4,0
63,34,-29,-48,46,2,-141,200,336,283,151,87
209,195,-14,-202,112,90,-346,351,531,541,366,224
405,444,39,-424,183,241,-644,419,692,878,678,429
595,736,141,-666,226,439,-961,439,805,1249,1034,683
673,849,175,-761,248,512,-1078,434,732,1312,1171,805
658,824,165,-741,246,495,-1049,312,341,990,1034,780
590,683,92,-636,248,387,-961,97,-126,507,766,678
463,385,-78,-424,270,153,-868,-112,-492,78,439,502
219,136,-82,-178,151,26,-761,-405,-717,-268,131,302
78,92,14,-85,31,53,-712,-614,-756,-375,14,244
24,73,48,-48,-12,61,-580,-551,-610,-346,-24,180
-4,-4,0,4,-2,-2,-400,-419,-507,-322,-97,87
-34,-53,-19,43,-7,-36,-258,-331,-400,-253,-107,34
-48,-63,-14,56,-17,-39,-141,-195,-239,-165,-78,19
-43,-73,-29,58,-7,-51,-58,-117,-161,-131,-58,-9
-43,-53,-9,48,-17,-31,-19,-107,-126,-107,-53,-29
-53,-48,4,51,-29,-21,0,-97,-87,-78,-63,-43
-58,-39,19,48,-39,-9,9,-92,-68,-78,-73,-43
-58,-24,34,41,-46,4,9,-92,-82,-87,-73,-43
-63,-19,43,41,-53,12,14,-97,-102,-87,-73,-48
-73,-19,53,46,-63,17,24,-102,-92,-92,-78,-58
-68,-24,43,46,-56,9,29,-102,-78,-92,-78,-63
-63,-29,34,46,-48,2,29,-107,-73,-92,-78,-63
-63,-34,29,48,-46,-2,29,-102,-73,-92,-78,-58
-63,-43,19,53,-41,-12,34,-102,-73,-87,-78,-63
-63,-43,19,53,-41,-12,39,-102,-68,-82,-78,-63
-63,-43,19,53,-41,-12,39,-97,-68,-78,-78,-58
-63,-48,14,56,-39,-17,43,-92,-63,-78,-73,-53
-63,-48,14,56,-39,-17,43,-92,-63,-78,-68,-53
-68,-63,4,65,-36,-29,43,-92,-58,-73,-68,-58
-73,-63,9,68,-41,-26,43,-87,-53,-73,-68,-63
-73,-39,34,56,-53,-2,43,-87,-53,-68,-63,-58
-68,-53,14,61,-41,-19,48,-87,-48,-68,-63,-58
-68,-68,0,68,-34,-34,58,-82,-39,-63,-63,-58
-68,-68,0,68,-34,-34,58,-73,-34,-58,-63,-58
-68,-78,-9,73,-29,-43,63,-63,-24,-53,-53,-58
-63,-87,-24,75,-19,-56,63,-63,-19,-43,-48,-48
-58,-73,-14,65,-21,-43,68,-48,-19,-43,-53,-48
-53,-73,-19,63,-17,-46,73,-39,-14,-39,-53,-48
-53,-78,-24,65,-14,-51,82,-29,-9,-29,-53,-53
-53,-82,-29,68,-12,-56,82,-9,0,-29,-48,-53
-53,-68,-14,61,-19,-41,73,-4,-4,-34,-48,-58
-48,-63,-14,56,-17,-39,63,0,-9,-39,-53,-58
-48,-53,-4,51,-21,-29,68,9,9,-24,-48,-58
-48,-34,14,41,-31,-9,68,14,34,-9,-43,-53
-43,-29,14,36,-29,-7,73,29,39,-4,-43,-58
-43,-34,9,39,-26,-12,78,43,48,9,-43,-58
-34,-14,19,24,-26,2,73,48,48,14,-39,-48
-34,0,34,17,-34,17,68,53,43,9,-39,-43
-34,9,43,12,-39,26,73,78,53,14,-29,-39
-34,14,48,9,-41,31,73,92,68,24,-24,-34
-29,14,43,7,-36,29,82,112,97,34,-14,-34
-24,14,39,4,-31,26,92,131,117,48,-9,-34
-19,24,43,-2,-31,34,97,151,122,63,0,-34
-4,24,29,-9,-17,26,107,180,141,78,9,-19
9,48,39,-29,-14,43,117,209,161,97,19,-9
24,78,53,-51,-14,65,126,239,185,112,34,-9
34,48,14,-41,9,31,141,283,214,136,43,-9
48,43,-4,-46,26,19,161,322,239,156,63,-4
58,53,-4,-56,31,24,170,356,253,170,68,0
68,53,-14,-61,41,19,180,395,253,185,82,4
78,92,14,-85,31,53,185,429,278,209,107,14
87,102,14,-95,36,58,185,468,317,248,131,24
97,112,14,-104,41,63,204,512,361,273,141,48
112,122,9,-117,51,65,209,551,405,292,161,68
126,136,9,-131,58,73,204,580,419,312,170,73
146,165,19,-156,63,92,200,614,444,336,195,78
161,185,24,-173,68,104,209,634,453,351,209,78
170,200,29,-185,70,114,214,658,458,366,219,87
180,239,58,-209,61,148,204,688,473,380,229,97
195,283,87,-239,53,185,185,697,478,385,244,102
200,273,73,-236,63,173,190,697,478,400,248,117
204,268,63,-236,70,165,190,688,478,405,253,126
204,263,58,-234,73,161,175,663,473,395,258,131
204,253,48,-229,78,151,156,614,448,390,258,122
195,258,63,-226,65,161,136,556,414,370,248,122
180,258,78,-219,51,168,117,492,366,336,229,117
165,244,78,-204,43,161,107,424,331,307,219,112
151,214,63,-183,43,139,87,351,292,263,195,97
122,175,53,-148,34,114,73,287,248,224,165,78
97,146,48,-122,24,97,63,224,209,185,136,58
82,126,43,-104,19,85,43,161,161,141,107,39
53,122,68,-87,-7,95,34,107,122,117,87,29
39,97,58,-68,-9,78,29,68,97,97,68,4
19,78,58,-48,-19,68,24,34,78,73,39,-4
0,53,53,-26,-26,53,19,4,48,53,24,-14
-4,39,43,-17,-24,41,19,-24,34,43,14,-24
-19,0,19,9,-19,9,19,-34,19,24,0,-29
-24,-24,0,24,-12,-12,14,-43,9,29,-9,-34
-29,9,39,9,-34,24,9,-58,0,-4,-29,-43
-29,43,73,-7,-51,58,-4,-73,-19,-29,-43,-68
-34,34,68,0,-51,51,-4,-87,-29,-34,-43,-53
-34,24,58,4,-46,41,-4,-92,-29,-34,-48,-58
-48,9,58,19,-53,34,-4,-92,-34,-34,-58,-68
-58,-4,53,31,-56,24,-4,-87,-34,-43,-63,-78
-48,9,58,19,-53,34,-4,-92,-34,-43,-63,-73
-43,24,68,9,-56,46,-4,-97,-39,-43,-63,-63
-43,19,63,12,-53,41,-4,-97,-39,-43,-68,-63
-43,19,63,12,-53,41,-9,-97,-39,-43,-68,-68
-43,19,63,12,-53,41,-9,-97,-43,-48,-68,-78
-43,14,58,14,-51,36,-4,-92,-43,-48,-68,-82
-43,0,43,21,-43,21,-4,-92,-43,-48,-68,-82
-43,-9,34,26,-39,12,-4,-87,-43,-48,-68,-82
-43,4,48,19,-46,26,-9,-87,-48,-53,-68,-78
-39,19,58,9,-48,39,-9,-87,-53,-58,-68,-78
-39,29,68,4,-53,48,-9,-92,-53,-58,-63,-78
-39,34,73,2,-56,53,-9,-92,-58,-58,-63,-78
-39,34,73,2,-56,53,-9,-97,-58,-53,-63,-78
-39,34,73,2,-56,53,-4,-97,-53,-48,-63,-78
-39,29,68,4,-53,48,-4,-97,-53,-48,-68,-78
-39,24,63,7,-51,43,-4,-97,-53,-48,-73,-78
-39,24,63,7,-51,43,-4,-97,-53,-48,-73,-82
-39,24,63,7,-51,43,-4,-102,-53,-53,-73,-82
-39,29,68,4,-53,48,-4,-102,-48,-53,-73,-82
-43,34,78,4,-61,56,0,-102,-43,-53,-73,-82
-43,29,73,7,-58,51,0,-102,-48,-53,-73,-82
-43,29,73,7,-58,51,0,-102,-48,-53,-73,-82
-43,24,68,9,-56,46,4,-107,-53,-53,-73,-82
-43,19,63,12,-53,41,4,-112,-48,-53,-73,-82
-43,19,63,12,-53,41,0,-112,-48,-53,-73,-87
-43,19,63,12,-53,41,-4,-112,-48,-53,-73,-92
-48,19,68,14,-58,43,-9,-117,-53,-58,-82,-92
-58,19,78,19,-68,48,-9,-117,-53,-58,-87,-92
-58,24,82,17,-70,53,-9,-117,-53,-58,-87,-87
-58,29,87,14,-73,58,-9,-117,-53,-58,-87,-87
-53,34,87,9,-70,61,-9,-117,-58,-63,-87,-92
-53,34,87,9,-70,61,-9,-122,-63,-73,-92,-92
-58,34,92,12,-75,63,-14,-122,-68,-73,-92,-97
-58,39,97,9,-78,68,-14,-126,-73,-78,-97,-102
-63,39,102,12,-82,70,-14,-126,-78,-78,-102,-102
-63,39,102,12,-82,70,-14,-126,-82,-78,-102,-107
-63,34,97,14,-80,65,-14,-131,-82,-82,-102,-102
-68,29,97,19,-82,63,-14,-131,-82,-92,-102,-102
-73,24,97,24,-85,61,-14,-136,-87,-92,-107,-112
-73,24,97,24,-85,61,-14,-141,-87,-97,-107,-117
-68,19,87,24,-78,53,-14,-136,-87,-97,-107,-117
-63,19,82,21,-73,51,-14,-131,-92,-97,-112,-117
-63,19,82,21,-73,51,-14,-136,-92,-97,-112,-117
-63,19,82,21,-73,51,-14,-136,-92,-97,-107,-117
-63,24,87,19,-75,56,-14,-136,-92,-97,-107,-117
-63,34,97,14,-80,65,-14,-136,-87,-102,-107,-117
-68,34,102,17,-85,68,-4,-141,-87,-102,-102,-112
-73,43,117,14,-95,80,0,-141,-82,-97,-102,-107
-73,48,122,12,-97,85,4,-146,-87,-97,-97,-112
-68,63,131,2,-100,97,19,-146,-82,-87,-92,-102
-58,73,131,-7,-95,102,19,-146,-78,-78,-87,-92
-53,82,136,-14,-95,109,19,-146,-73,-73,-82,-87
-43,78,122,-17,-82,100,24,-136,-63,-73,-82,-87
-39,78,117,-19,-78,97,29,-126,-58,-78,-87,-87
-39,78,117,-19,-78,97,29,-122,-58,-78,-87,-87
-39,78,117,-19,-78,97,29,-117,-58,-78,-87,-87
-34,92,126,-29,-80,109,24,-117,-48,-73,-78,-82
-19,122,141,-51,-80,131,9,-117,-34,-58,-63,-63
-9,151,161,-70,-85,156,0,-117,-24,-43,-48,-48
0,185,185,-92,-92,185,-14,-112,-19,-34,-43,-43
0,165,165,-82,-82,165,-24,-107,-19,-34,-43,-43
0,151,151,-75,-75,151,-29,-107,-19,-34,-43,-43
9,136,126,-73,-58,131,-48,-107,-34,-39,-39,-43
24,131,107,-78,-41,119,-58,-107,-43,-48,-34,-43
29,122,92,-75,-31,107,-58,-107,-58,-63,-53,-53
29,97,68,-63,-19,82,-63,-112,-78,-82,-63,-68
14,87,73,-51,-29,80,-68,-117,-87,-87,-78,-78
0,82,82,-41,-41,82,-68,-117,-92,-87,-82,-82
-14,73,87,-29,-51,80,-58,-117,-97,-92,-87,-92
-24,53,78,-14,-51,65,-48,-126,-97,-102,-97,-102
-39,24,63,7,-51,43,-34,-136,-102,-112,-107,-107
-48,4,53,21,-51,29,-24,-141,-107,-122,-117,-117
-48,-4,43,26,-46,19,-24,-146,-112,-126,-126,-126
-48,-14,34,31,-41,9,-24,-151,-117,-136,-136,-136
-58,-39,19,48,-39,-9,-19,-151,-126,-146,-151,-151
-63,-43,19,53,-41,-12,-19,-151,-126,-146,-156,-156
-63,-43,19,53,-41,-12,-19,-156,-126,-146,-151,-156
-63,-43,19,53,-41,-12,-14,-156,-126,-146,-151,-156
-63,-48,14,56,-39,-17,-14,-156,-136,-151,-161,-161
-68,-53,14,61,-41,-19,-14,-156,-141,-156,-161,-161
-73,-53,19,63,-46,-17,-14,-156,-141,-156,-165,-161
-78,-53,24,65,-51,-14,-14,-156,-146,-151,-175,-161
-78,-53,24,65,-51,-14,-9,-161,-151,-151,-175,-165
-82,-58,24,70,-53,-17,-9,-161,-156,-156,-175,-170
-87,-58,29,73,-58,-14,-9,-165,-156,-165,-175,-170
-87,-58,29,73,-58,-14,-9,-165,-156,-170,-175,-170
-87,-48,39,68,-63,-4,-9,-165,-156,-170,-175,-170
-82,-43,39,63,-61,-2,-4,-165,-156,-170,-175,-165
-82,-43,39,63,-61,-2,-9,-165,-156,-170,-180,-165
-82,-43,39,63,-61,-2,-14,-165,-161,-170,-180,-165
-87,-43,43,65,-65,0,-14,-170,-161,-170,-185,-170
-87,-39,48,63,-68,4,-14,-170,-161,-170,-185,-175
-82,-34,48,58,-65,7,-14,-165,-161,-170,-185,-175
-82,-34,48,58,-65,7,-14,-165,-161,-170,-185,-175
-87,-34,53,61,-70,9,-14,-165,-156,-170,-185,-175
-87,-34,53,61,-70,9,-14,-165,-156,-165,-185,-175
-82,-29,53,56,-68,12,-14,-165,-156,-165,-185,-175
-73,-24,48,48,-61,12,-14,-165,-156,-165,-185,-170
-73,-24,48,48,-61,12,-14,-165,-156,-170,-185,-170
-78,-34,43,56,-61,4,-14,-165,-156,-180,-190,-180
-102,-43,58,73,-80,7,-14,-195,-204,-224,-219,-190
-107,-43,63,75,-85,9,-48,-209,-219,-244,-229,-195
-97,0,97,48,-97,48,-87,-131,-117,-146,-175,-170
-14,102,117,-43,-65,109,-151,73,82,19,-73,-107
136,224,87,-180,24,156,-326,317,317,229,82,-19
336,434,97,-385,119,265,-595,478,517,517,336,136
610,790,180,-700,214,485,-1015,619,761,1044,790,434
771,966,195,-868,287,580,-1234,736,819,1263,1024,600
810,932,122,-871,344,527,-1215,663,414,1000,941,600
795,780,-14,-788,405,383,-1137,497,-68,575,727,522
707,468,-239,-588,473,114,-1054,244,-522,87,395,361
502,204,-297,-353,400,-46,-956,-92,-834,-317,82,175
268,165,-102,-217,185,31,-893,-492,-902,-444,-29,146
122,151,29,-136,46,90,-746,-619,-785,-434,-63,112
78,92,14,-85,31,53,-531,-488,-658,-414,-141,19
34,63,29,-48,2,46,-356,-400,-527,-351,-156,-34
0,53,53,-26,-26,53,-229,-258,-341,-248,-141,-48
-14,43,58,-14,-36,51,-136,-175,-239,-200,-136,-78
-24,39,63,-7,-43,51,-63,-156,-214,-185,-131,-102
-43,19,63,12,-53,41,-9,-136,-185,-165,-141,-122
-48,14,63,17,-56,39,4,-126,-141,-156,-151,-122
-48,14,63,17,-56,39,9,-122,-131,-156,-151,-122
-53,14,68,19,-61,41,19,-126,-151,-151,-151,-122
-63,9,73,26,-68,41,34,-131,-141,-151,-156,-126
-68,4,73,31,-70,39,39,-126,-131,-151,-156,-131
-73,0,73,36,-73,36,39,-126,-131,-151,-156,-131
-73,0,73,36,-73,36,34,-122,-131,-151,-156,-131
-73,-4,68,39,-70,31,34,-122,-131,-146,-156,-141
-78,-4,73,41,-75,34,39,-122,-122,-151,-161,-141
-82,-4,78,43,-80,36,39,-117,-117,-156,-165,-136
-82,-4,78,43,-80,36,39,-107,-112,-156,-161,-131
-82,0,82,41,-82,41,34,-102,-112,-156,-156,-131
-82,-9,73,46,-78,31,34,-102,-107,-151,-161,-131
-82,-4,78,43,-80,36,34,-97,-102,-151,-165,-131
-82,24,107,29,-95,65,34,-97,-107,-146,-161,-126
-78,14,92,31,-85,53,39,-97,-107,-146,-161,-126
-73,4,78,34,-75,41,43,-92,-102,-141,-161,-126
-68,9,78,29,-73,43,39,-82,-102,-136,-161,-126
-68,14,82,26,-75,48,43,-73,-92,-131,-151,-126
-63,19,82,21,-73,51,43,-73,-87,-122,-146,-117
-63,34,97,14,-80,65,43,-68,-87,-126,-146,-117
-63,34,97,14,-80,65,43,-68,-82,-126,-141,-117
-63,29,92,17,-78,61,53,-63,-78,-117,-141,-117
-63,24,87,19,-75,56,53,-48,-68,-117,-136,-112
-63,34,97,14,-80,65,53,-43,-63,-112,-131,-112
-58,34,92,12,-75,63,53,-39,-58,-107,-131,-107
-58,24,82,17,-70,53,58,-29,-48,-102,-126,-107
-58,24,82,17,-70,53,58,-24,-34,-97,-122,-102
-53,43,97,4,-75,70,63,-14,-29,-92,-122,-102
-53,53,107,0,-80,80,68,-4,-19,-78,-122,-97
-43,58,102,-7,-73,80,68,0,-9,-68,-112,-92
-43,58,102,-7,-73,80,68,4,-4,-68,-107,-92
-43,63,107,-9,-75,85,73,29,0,-63,-97,-87
-43,63,107,-9,-75,85,73,43,9,-53,-92,-82
-39,63,102,-12,-70,82,82,63,29,-43,-82,-82
-34,63,97,-14,-65,80,92,82,39,-29,-78,-82
-34,68,102,-17,-68,85,97,97,43,-14,-68,-82
-24,63,87,-19,-56,75,107,122,63,0,-58,-68
-9,78,87,-34,-48,82,117,156,92,19,-43,-48
4,97,92,-51,-43,95,126,190,126,34,-24,-39
34,112,78,-73,-21,95,136,234,156,63,-9,-34
68,151,82,-109,-7,117,151,273,180,87,14,-24
63,151,87,-107,-12,119,161,307,209,112,19,-14
58,141,82,-100,-12,112,170,346,224,136,34,-4
53,161,107,-107,-26,134,185,380,248,146,48,0
48,151,102,-100,-26,126,195,419,287,170,63,4
58,170,112,-114,-26,141,214,463,317,195,73,14
73,190,117,-131,-21,153,219,502,346,214,92,19
82,185,102,-134,-9,143,229,536,366,234,102,24
97,195,97,-146,0,146,239,575,395,258,126,29
112,204,92,-158,9,148,248,610,419,278,141,39
122,209,87,-165,17,148,253,649,439,297,151,58
136,229,92,-183,21,161,253,683,458,322,170,73
156,253,97,-204,29,175,244,697,468,336,195,82
165,263,97,-214,34,180,239,707,478,361,204,97
175,278,102,-226,36,190,229,707,488,375,214,107
185,287,102,-236,41,195,229,697,492,366,224,122
195,292,97,-244,48,195,224,663,478,361,229,122
224,326,102,-275,61,214,219,624,453,351,224,122
248,356,107,-302,70,231,214,580,414,326,209,117
204,312,107,-258,48,209,185,502,366,292,190,112
161,253,92,-207,34,173,146,419,312,244,156,97
92,190,97,-141,-2,143,117,346,258,204,126,78
29,136,107,-82,-39,122,92,273,209,165,97,58
9,117,107,-63,-48,112,87,209,165,122,78,53
-24,112,136,-43,-80,124,92,156,131,97,68,58
-39,87,126,-24,-82,107,73,107,102,73,48,34
-58,68,126,-4,-92,97,53,63,78,43,19,24
-87,19,107,34,-97,63,34,24,29,14,0,4
-102,-19,82,61,-92,31,19,-14,-4,-4,-14,-14
-82,-39,43,61,-63,2,19,-39,-19,-34,-34,-24
-53,-43,9,48,-31,-17,14,-63,-29,-39,-48,-34
-43,-43,0,43,-21,-21,19,-68,-34,-53,-58,-43
-29,-43,-14,36,-7,-29,14,-73,-48,-58,-63,-68
-58,-53,4,56,-31,-24,14,-82,-58,-63,-63,-43
-82,-63,19,73,-51,-21,14,-82,-58,-63,-68,-39
-39,-58,-19,48,-9,-39,14,-87,-63,-63,-68,-39
9,-53,-63,21,36,-58,14,-87,-63,-73,-63,-39
-4,-53,-48,29,21,-51,14,-87,-63,-73,-63,-39
-24,-53,-29,39,2,-41,14,-87,-68,-73,-63,-34
-34,-63,-29,48,-2,-46,14,-87,-63,-73,-63,-24
-43,-68,-24,56,-9,-46,9,-87,-58,-73,-58,-19
-43,-78,-34,61,-4,-56,9,-87,-63,-73,-58,-24
-43,-92,-48,68,2,-70,14,-82,-63,-68,-58,-24
-63,-117,-53,90,-4,-85,19,-92,-63,-68,-58,-24
-82,-136,-53,109,-14,-95,24,-97,-63,-68,-58,-24
-63,-122,-58,92,-2,-90,34,-87,-58,-63,-53,-14
-39,-107,-68,73,14,-87,48,-78,-53,-58,-48,-9
-29,-92,-63,61,17,-78,48,-73,-39,-43,-29,0
-19,-82,-63,51,21,-73,48,-63,-29,-29,-14,9
-19,-107,-87,63,34,-97,48,-68,-29,-29,-14,9
-19,-131,-112,75,46,-122,53,-68,-24,-29,-14,9
-19,-141,-122,80,51,-131,53,-73,-24,-24,-9,19
-19,-151,-131,85,56,-141,53,-78,-24,-19,-4,29
-19,-175,-156,97,68,-165,63,-82,-24,-9,0,29
-19,-200,-180,109,80,-190,73,-92,-24,-4,4,34
-53,-219,-165,136,56,-192,73,-102,-24,-4,4,34
-92,-239,-146,165,26,-192,78,-112,-24,-4,4,34
-78,-244,-165,161,43,-204,73,-112,-24,-4,9,34
-63,-244,-180,153,58,-212,68,-112,-19,-4,14,34
-58,-239,-180,148,61,-209,73,-112,-19,0,14,34
-53,-234,-180,143,63,-207,73,-112,-9,4,14,34
-43,-229,-185,136,70,-207,73,-107,-4,4,14,34
-34,-224,-190,129,78,-207,73,-102,0,4,14,34
-34,-219,-185,126,75,-202,68,-107,-4,0,9,34
-39,-214,-175,126,68,-195,68,-107,-4,0,9,34
-39,-214,-175,126,68,-195,58,-102,-4,-9,9,39
-39,-214,-175,126,68,-195,48,-97,-4,-19,9,39
-19,-200,-180,109,80,-190,63,-92,0,-4,9,34
-4,-190,-185,97,90,-187,78,-92,4,4,4,34
-24,-214,-190,119,82,-202,73,-92,0,4,4,34
-39,-234,-195,136,78,-214,73,-97,-4,0,0,34
-58,-253,-195,156,68,-224,73,-97,-4,0,4,39
-73,-273,-200,173,63,-236,73,-97,-4,0,14,39
-68,-283,-214,175,73,-248,78,-107,-9,0,19,43
-68,-292,-224,180,78,-258,82,-112,-14,-4,24,43
-63,-302,-239,183,87,-270,82,-126,-19,4,19,43
-53,-307,-253,180,100,-280,82,-141,-19,9,19,48
-53,-322,-268,187,107,-295,87,-151,-9,14,29,53
-53,-331,-278,192,112,-305,92,-161,-4,19,34,58
-53,-346,-292,200,119,-319,102,-175,-4,24,39,68
-53,-361,-307,207,126,-334,112,-185,-4,29,48,78
-48,-375,-326,212,139,-351,122,-200,9,48,58,92
-43,-385,-341,214,148,-363,131,-214,29,63,68,107
-43,-390,-346,217,151,-368,141,-229,29,63,78,107
-43,-380,-336,212,146,-358,146,-239,34,68,87,107
-34,-370,-336,202,151,-353,151,-234,43,78,92,117
-29,-361,-331,195,151,-346,156,-234,58,87,97,126
-19,-351,-331,185,156,-341,151,-234,58,87,97,126
-9,-341,-331,175,161,-336,146,-234,58,87,97,126
-9,-336,-326,173,158,-331,146,-234,58,87,97,126
-9,-331,-322,170,156,-326,146,-234,58,87,97,126
-9,-297,-287,153,139,-292,141,-229,73,92,102,126
0,-258,-258,129,129,-258,126,-224,82,102,112,141
9,-219,-229,104,119,-224,117,-219,97,117,126,156
19,-185,-204,82,112,-195,102,-209,97,122,131,161
19,-180,-200,80,109,-190,82,-200,97,117,126,161
19,-170,-190,75,104,-180,68,-195,97,112,122,161
29,-161,-190,65,109,-175,48,-180,82,107,122,151
43,-141,-185,48,114,-163,39,-165,73,97,122,141
39,-146,-185,53,112,-165,29,-156,58,73,97,131
29,-165,-195,68,112,-180,14,-151,39,43,82,117
14,-175,-190,80,102,-183,4,-151,24,34,63,107
0,-180,-180,90,90,-180,0,-146,14,29,53,102
-14,-185,-170,100,78,-178,19,-131,9,24,48,87
-24,-200,-175,112,75,-187,39,-126,9,14,39,73
-14,-190,-175,102,80,-183,48,-112,0,4,29,68
0,-170,-170,85,85,-170,53,-92,-9,-4,19,58
-9,-190,-180,100,85,-185,48,-92,-14,-9,9,43
-19,-209,-190,114,85,-200,43,-92,-19,-19,0,29
-53,-239,-185,146,65,-212,39,-92,-34,-43,-24,9
-82,-248,-165,165,41,-207,29,-92,-39,-58,-39,0
-82,-229,-146,156,31,-187,29,-87,-39,-58,-34,0
-82,-209,-126,146,21,-168,34,-78,-39,-58,-34,0
-48,-175,-126,112,39,-151,34,-48,-39,-63,-39,-4
-19,-141,-122,80,51,-131,34,-19,-34,-68,-34,-4
-19,-131,-112,75,46,-122,34,-9,-34,-68,-34,-4
-19,-122,-102,70,41,-112,34,0,-39,-63,-39,-4
-63,-170,-107,117,21,-139,34,-14,-53,-82,-58,-24
-112,-224,-112,168,0,-168,29,-24,-68,-107,-78,-43
-146,-224,-78,185,-34,-151,29,-39,-68,-102,-68,-34
-175,-224,-48,200,-63,-136,29,-48,-68,-92,-58,-24
-161,-209,-48,185,-56,-129,34,-39,-63,-87,-53,-19
-141,-200,-58,170,-41,-129,43,-29,-58,-82,-48,-9
-117,-200,-82,158,-17,-141,43,-29,-58,-82,-53,-9
-92,-200,-107,146,7,-153,43,-29,-63,-82,-53,-9
-48,-185,-136,117,43,-161,43,-34,-63,-82,-53,-9
0,-165,-165,82,82,-165,43,-34,-63,-82,-48,-9
-19,-190,-170,104,75,-180,29,-34,-73,-87,-58,-19
-43,-219,-175,131,65,-197,14,-39,-82,-92,-68,-29
-53,-234,-180,143,63,-207,14,-43,-78,-102,-68,-29
-58,-248,-190,153,65,-219,14,-48,-78,-107,-68,-29
-58,-229,-170,143,56,-200,34,-48,-78,-97,-63,-24
-53,-209,-156,131,51,-183,53,-48,-78,-87,-58,-14
-53,-209,-156,131,51,-183,53,-48,-78,-87,-58,-14
-58,-219,-161,139,51,-190,53,-48,-78,-92,-63,-24
-68,-219,-151,143,41,-185,58,-48,-87,-112,-87,-29
-58,-209,-151,134,46,-180,29,-34,-63,-107,-92,-29
-58,-180,-122,119,31,-151,-4,29,58,14,-19,0
14,-92,-107,39,61,-100,-63,219,278,204,102,68
131,43,-87,-87,109,-21,-234,356,488,444,302,190
297,268,-29,-283,163,119,-497,409,663,761,600,380
531,644,112,-588,209,378,-863,463,863,1254,1049,688
653,839,185,-746,234,512,-1029,492,878,1439,1278,863
673,834,161,-753,256,497,-1029,380,483,1156,1185,878
639,712,73,-675,283,392,-971,175,9,712,961,814
517,361,-156,-439,336,102,-863,-9,-419,214,605,629
278,58,-219,-168,248,-80,-741,-278,-707,-200,268,419
112,4,-107,-58,109,-51,-697,-536,-771,-331,126,356
34,-24,-58,-4,46,-41,-570,-522,-649,-326,63,287
19,-102,-122,41,70,-112,-390,-390,-531,-312,-9,185
4,-151,-156,73,80,-153,-248,-302,-409,-253,-19,122
-19,-161,-141,90,61,-151,-141,-161,-248,-151,-4,107
-24,-170,-146,97,61,-158,-68,-78,-170,-102,0,78
-34,-175,-141,104,53,-158,-4,-68,-131,-92,0,48
-53,-195,-141,124,43,-168,39,-58,-87,-78,-14,24
-58,-195,-136,126,39,-165,53,-39,-53,-68,-24,19
-58,-190,-131,124,36,-161,58,-24,-53,-68,-24,14
-43,-175,-131,109,43,-153,68,-14,-68,-58,-24,14
-34,-165,-131,100,48,-148,82,-4,-53,-53,-29,9
-58,-185,-126,122,34,-156,87,-9,-43,-63,-34,0
-82,-204,-122,143,19,-163,87,-19,-43,-73,-39,-4
-82,-204,-122,143,19,-163,82,-14,-48,-78,-39,-4
-82,-209,-126,146,21,-168,82,-14,-53,-78,-39,-14
-82,-195,-112,139,14,-153,87,-14,-43,-73,-39,-19
-82,-180,-97,131,7,-139,87,-9,-39,-68,-39,-19
-82,-180,-97,131,7,-139,87,-4,-39,-68,-39,-19
-82,-175,-92,129,4,-134,82,-4,-43,-68,-39,-24
-73,-170,-97,122,12,-134,82,0,-39,-63,-39,-24
-63,-151,-87,107,12,-119,82,9,-34,-63,-39,-24
-63,-131,-68,97,2,-100,78,9,-34,-58,-39,-19
-58,-151,-92,104,17,-122,78,9,-29,-58,-43,-19
-53,-151,-97,102,21,-124,87,14,-24,-58,-43,-19
-48,-136,-87,92,19,-112,87,24,-24,-58,-43,-19
-48,-141,-92,95,21,-117,82,29,-19,-58,-34,-24
-43,-146,-102,95,29,-124,73,24,-19,-53,-29,-19
-73,-146,-73,109,0,-109,68,19,-29,-63,-39,-24
-102,-161,-58,131,-21,-109,63,9,-34,-68,-43,-29
-87,-156,-68,122,-9,-112,73,14,-29,-58,-43,-29
-73,-151,-78,112,2,-114,73,29,-19,-58,-39,-24
-73,-136,-63,104,-4,-100,73,29,-14,-53,-34,-29
-68,-131,-63,100,-2,-97,73,29,-9,-48,-34,-29
-68,-126,-58,97,-4,-92,78,39,-4,-48,-34,-34
-68,-112,-43,90,-12,-78,78,43,4,-48,-34,-34
-63,-107,-43,85,-9,-75,82,53,9,-43,-34,-34
-63,-112,-48,87,-7,-80,87,63,19,-29,-34,-29
-53,-97,-43,75,-4,-70,87,68,29,-14,-19,-24
-53,-87,-34,70,-9,-61,87,73,34,-9,-9,-24
-48,-78,-29,63,-9,-53,92,97,43,-4,0,-19
-43,-73,-29,58,-7,-51,92,112,58,4,4,-14
-39,-73,-34,56,-2,-53,102,122,78,14,9,-14
-34,-73,-39,53,2,-56,112,131,87,29,9,-14
-34,-63,-29,48,-2,-46,112,151,97,43,19,-14
-24,-63,-39,43,7,-51,117,180,122,58,29,0
-14,-53,-39,34,12,-46,126,204,141,78,39,9
-4,-39,-34,21,14,-36,136,229,165,92,53,9
4,-39,-43,17,24,-41,141,268,195,117,63,9
19,-14,-34,-2,26,-24,151,302,219,136,82,14
29,-4,-34,-12,31,-19,161,336,248,161,87,24
39,-4,-43,-17,41,-24,170,375,263,185,102,34
53,34,-19,-43,36,7,175,409,283,200,122,43
68,43,-24,-56,46,9,175,448,317,229,141,53
78,53,-24,-65,51,14,195,492,346,253,151,63
92,63,-29,-78,61,17,200,531,375,273,170,68
102,78,-24,-90,63,26,204,566,390,292,180,73
117,107,-9,-112,63,48,209,605,414,317,204,78
131,122,-9,-126,70,56,219,629,444,336,224,87
141,131,-9,-136,75,61,224,658,468,356,239,107
151,136,-14,-143,82,61,224,688,483,370,248,122
165,146,-19,-156,92,63,214,697,488,375,263,131
170,151,-19,-161,95,65,214,702,488,395,273,141
175,161,-14,-168,95,73,209,697,488,405,283,146
180,170,-9,-175,95,80,195,673,478,385,283,161
185,175,-9,-180,97,82,175,624,448,370,278,161
175,180,4,-178,85,92,151,570,414,351,268,151
161,180,19,-170,70,100,126,512,366,317,248,136
141,170,29,-156,56,100,117,444,322,283,234,131
122,146,24,-134,48,85,97,370,273,234,204,117
92,117,24,-104,34,70,82,317,224,195,175,97
68,97,29,-82,19,63,73,263,180,156,146,78
58,73,14,-65,21,43,53,200,131,102,112,53
34,63,29,-48,2,46,43,146,92,68,87,39
19,48,29,-34,-4,39,34,112,63,48,68,14
0,39,39,-19,-19,39,24,82,39,24,39,4
-14,19,34,-2,-24,26,14,53,9,0,14,-9
-14,9,24,2,-19,17,9,24,-4,-14,-4,-24
-34,-9,24,21,-29,7,9,4,-24,-43,-19,-29
-43,-14,29,29,-36,7,4,-14,-39,-48,-29,-34
-48,-19,29,34,-39,4,4,-24,-43,-63,-39,-43
-48,-24,24,36,-36,0,-4,-34,-58,-68,-43,-68
-53,-34,19,43,-36,-7,-4,-48,-68,-73,-43,-53
-53,-43,9,48,-31,-17,-4,-53,-68,-73,-48,-58
-58,-48,9,53,-34,-19,0,-63,-78,-73,-58,-58
-58,-53,4,56,-31,-24,4,-68,-82,-82,-63,-58
-58,-58,0,58,-29,-29,4,-78,-82,-82,-63,-63
-63,-63,0,63,-31,-31,4,-87,-87,-82,-63,-63
-63,-73,-9,68,-26,-41,4,-92,-87,-82,-68,-63
-63,-78,-14,70,-24,-46,0,-97,-87,-82,-68,-68
-63,-78,-14,70,-24,-46,0,-107,-97,-87,-73,-73
-63,-82,-19,73,-21,-51,4,-112,-102,-87,-78,-73
-63,-82,-19,73,-21,-51,4,-117,-102,-87,-78,-73
-63,-78,-14,70,-24,-46,4,-117,-102,-87,-78,-73
-63,-73,-9,68,-26,-41,4,-117,-102,-87,-78,-73
-58,-68,-9,63,-24,-39,9,-117,-102,-87,-78,-78
-58,-68,-9,63,-24,-39,9,-126,-102,-92,-78,-78
-58,-73,-14,65,-21,-43,9,-131,-107,-97,-82,-78
-53,-58,-4,56,-24,-31,4,-136,-107,-97,-82,-78
-48,-43,4,46,-26,-19,4,-136,-102,-97,-82,-78
-48,-43,4,46,-26,-19,4,-141,-107,-102,-87,-82
-48,-43,4,46,-26,-19,4,-146,-112,-107,-92,-87
-43,-34,9,39,-26,-12,0,-141,-112,-102,-92,-92
-39,-24,14,31,-26,-4,-4,-141,-112,-102,-92,-92
-39,-14,24,26,-31,4,-4,-141,-107,-102,-97,-92
-43,-4,39,24,-41,17,0,-141,-102,-102,-102,-92
-43,-4,39,24,-41,17,0,-141,-107,-107,-102,-92
-43,0,43,21,-43,21,0,-141,-107,-112,-102,-92
-43,9,53,17,-48,31,0,-146,-117,-112,-102,-97
-43,19,63,12,-53,41,-4,-151,-117,-112,-102,-102
-48,19,68,14,-58,43,-9,-151,-122,-122,-107,-112
-53,19,73,17,-63,46,-14,-151,-126,-131,-112,-122
-53,19,73,17,-63,46,-19,-156,-131,-136,-117,-122
-58,19,78,19,-68,48,-19,-156,-131,-136,-117,-122
-48,34,82,7,-65,58,-19,-161,-131,-136,-117,-117
-39,48,87,-4,-63,68,-19,-165,-131,-136,-117,-117
-43,43,87,0,-65,65,-24,-165,-136,-141,-126,-131
-53,34,87,9,-70,61,-29,-170,-141,-151,-141,-141
-58,29,87,14,-73,58,-34,-170,-146,-151,-141,-141
-58,29,87,14,-73,58,-34,-175,-151,-156,-146,-141
-53,53,107,0,-80,80,-34,-170,-146,-146,-146,-136
-43,78,122,-17,-82,100,-34,-165,-141,-136,-141,-136
-39,78,117,-19,-78,97,-34,-170,-141,-136,-146,-136
-39,78,117,-19,-78,97,-34,-170,-141,-141,-151,-141
-43,73,117,-14,-80,95,-39,-175,-146,-146,-156,-146
-43,73,117,-14,-80,95,-43,-180,-146,-156,-156,-146
-43,73,117,-14,-80,95,-43,-180,-146,-156,-156,-146
-43,78,122,-17,-82,100,-43,-180,-151,-156,-161,-146
-39,82,122,-21,-80,102,-39,-180,-146,-156,-161,-146
-34,87,122,-26,-78,104,-34,-175,-141,-156,-156,-146
-34,97,131,-31,-82,114,-34,-170,-141,-146,-146,-136
-34,112,146,-39,-90,129,-34,-165,-136,-141,-136,-126
-34,112,146,-39,-90,129,-29,-170,-136,-141,-131,-126
-34,126,161,-46,-97,143,-29,-170,-131,-136,-126,-126
-9,156,165,-73,-87,161,-19,-161,-117,-126,-122,-117
9,185,175,-97,-82,180,-9,-156,-107,-117,-117,-107
0,170,170,-85,-85,170,-9,-151,-107,-117,-117,-112
-9,156,165,-73,-87,161,-9,-146,-107,-117,-117,-117
-19,146,165,-63,-92,156,-9,-146,-107,-117,-122,-122
-29,136,165,-53,-97,151,-9,-146,-107,-117,-126,-126
-4,165,170,-80,-87,168,-9,-146,-102,-112,-117,-122
14,204,190,-109,-87,197,-19,-146,-87,-92,-102,-102
39,244,204,-141,-82,224,-29,-151,-78,-78,-87,-82
48,283,234,-165,-92,258,-43,-151,-68,-63,-82,-73
34,258,224,-146,-95,241,-58,-151,-68,-78,-82,-73
19,239,219,-129,-100,229,-68,-156,-68,-92,-82,-73
19,224,204,-122,-92,214,-82,-156,-82,-87,-82,-78
24,219,195,-122,-85,207,-87,-156,-92,-87,-82,-82
34,204,170,-119,-68,187,-92,-156,-112,-102,-102,-92
39,175,136,-107,-48,156,-102,-161,-136,-122,-112,-107
24,161,136,-92,-56,148,-102,-161,-141,-122,-117,-107
9,151,141,-80,-65,146,-97,-156,-141,-117,-112,-102
14,151,136,-82,-61,143,-87,-151,-141,-122,-117,-112
24,141,117,-82,-46,129,-78,-156,-136,-131,-126,-122
19,136,117,-78,-48,126,-63,-156,-136,-136,-131,-122
19,141,122,-80,-51,131,-53,-151,-136,-141,-136,-126
19,131,112,-75,-46,122,-53,-151,-141,-146,-146,-136
19,122,102,-70,-41,112,-53,-151,-146,-156,-156,-146
-14,73,87,-29,-51,80,-39,-151,-161,-165,-165,-161
-43,43,87,0,-65,65,-29,-151,-165,-165,-165,-165
-43,43,87,0,-65,65,-43,-156,-165,-165,-161,-165
-43,43,87,0,-65,65,-53,-156,-165,-165,-161,-165
-63,9,73,26,-68,41,-39,-161,-170,-170,-170,-170
-87,-24,63,56,-75,19,-24,-165,-170,-175,-170,-170
-92,-34,58,63,-75,12,-19,-170,-170,-175,-170,-170
-97,-43,53,70,-75,4,-14,-175,-175,-170,-175,-170
-97,-43,53,70,-75,4,-9,-185,-175,-170,-180,-175
-102,-48,53,75,-78,2,-9,-190,-175,-175,-185,-180
-102,-53,48,78,-75,-2,0,-195,-175,-180,-185,-175
-97,-58,39,78,-68,-9,9,-195,-175,-180,-185,-170
-92,-58,34,75,-63,-12,0,-180,-175,-175,-175,-170
-82,-63,19,73,-51,-21,-4,-165,-175,-170,-165,-165
-82,-68,14,75,-48,-26,-14,-165,-175,-170,-170,-165
-82,-73,9,78,-46,-31,-24,-165,-180,-170,-170,-165
-82,-78,4,80,-43,-36,-24,-165,-175,-170,-170,-165
-78,-78,0,78,-39,-39,-24,-161,-170,-170,-165,-165
-63,-63,0,63,-31,-31,-14,-156,-165,-165,-156,-156
-53,-53,0,53,-26,-26,-4,-156,-161,-161,-146,-146
-87,-82,4,85,-46,-39,-4,-156,-156,-161,-146,-146
-117,-112,4,114,-61,-53,-4,-156,-156,-156,-146,-146
-102,-112,-9,107,-46,-61,4,-156,-156,-151,-146,-146
-82,-112,-29,97,-26,-70,14,-156,-156,-146,-146,-141
-68,-92,-24,80,-21,-58,19,-156,-156,-146,-131,-131
-58,-82,-24,70,-17,-53,24,-156,-156,-151,-122,-131
-97,-126,-29,112,-34,-78,29,-180,-185,-185,-161,-146
-117,-161,-43,139,-36,-102,0,-190,-180,-195,-180,-156
-112,-122,-9,117,-51,-65,-24,-112,-48,-73,-112,-122
-34,-24,9,29,-21,-7,-73,92,180,117,4,-48
102,107,4,-104,48,56,-229,326,434,346,175,48
287,326,39,-307,124,183,-478,478,653,653,444,214
570,717,146,-644,212,431,-902,605,941,1234,936,536
741,927,185,-834,278,556,-1127,707,1044,1507,1210,727
775,912,136,-844,319,524,-1127,644,634,1249,1151,741
756,780,24,-768,366,402,-1068,488,146,829,961,678
683,439,-244,-561,463,97,-985,263,-361,297,605,517
492,146,-346,-319,419,-100,-888,-43,-727,-151,268,331
258,78,-180,-168,219,-51,-829,-444,-824,-317,122,278
112,34,-78,-73,95,-21,-688,-570,-736,-346,53,219
68,-34,-102,-17,85,-68,-478,-453,-619,-341,-39,117
24,-73,-97,24,61,-85,-307,-380,-497,-292,-68,53
-9,-87,-78,48,34,-82,-180,-229,-302,-185,-53,29
-24,-102,-78,63,26,-90,-87,-136,-190,-131,-48,-9
-39,-112,-73,75,17,-92,-14,-122,-165,-117,-48,-34
-63,-136,-73,100,4,-104,39,-107,-136,-97,-63,-53
-73,-141,-68,107,-2,-104,53,-92,-87,-87,-73,-58
-78,-141,-63,109,-7,-102,58,-82,-73,-87,-73,-63
-82,-141,-58,112,-12,-100,63,-78,-92,-82,-68,-63
-92,-146,-53,119,-19,-100,73,-73,-82,-82,-68,-68
-92,-151,-58,122,-17,-104,78,-68,-68,-82,-68,-68
-92,-156,-63,124,-14,-109,78,-68,-63,-82,-68,-63
-92,-151,-58,122,-17,-104,78,-63,-63,-87,-73,-63
-92,-151,-58,122,-17,-104,82,-63,-63,-87,-78,-73
-92,-151,-58,122,-17,-104,87,-58,-58,-82,-78,-73
-92,-151,-58,122,-17,-104,87,-48,-58,-78,-78,-68
-92,-156,-63,124,-14,-109,87,-43,-53,-82,-78,-63
-92,-156,-63,124,-14,-109,82,-43,-53,-87,-78,-63
-92,-170,-78,131,-7,-124,87,-43,-48,-82,-78,-63
-92,-170,-78,131,-7,-124,92,-39,-43,-82,-78,-63
-92,-146,-53,119,-19,-100,92,-39,-43,-68,-73,-58
-87,-161,-73,124,-7,-117,97,-39,-39,-58,-73,-58
-87,-175,-87,131,0,-131,102,-34,-34,-63,-73,-58
-87,-175,-87,131,0,-131,97,-24,-34,-68,-73,-58
-87,-175,-87,131,0,-131,102,-9,-24,-63,-63,-58
-82,-175,-92,129,4,-134,102,-4,-19,-53,-58,-48
-82,-161,-78,122,-2,-119,97,0,-19,-58,-58,-48
-82,-161,-78,122,-2,-119,92,0,-14,-58,-53,-48
-82,-165,-82,124,0,-124,102,0,-14,-48,-53,-43
-82,-170,-87,126,2,-129,102,9,-9,-48,-48,-34
-82,-161,-78,122,-2,-119,102,14,-4,-39,-43,-34
-78,-161,-82,119,2,-122,102,19,0,-29,-43,-29
-78,-161,-82,119,2,-122,107,29,9,-24,-34,-29
-78,-151,-73,114,-2,-112,107,34,24,-19,-24,-24
-73,-151,-78,112,2,-114,117,48,29,-14,-24,-24
-73,-161,-87,117,7,-124,126,63,39,0,-24,-19
-63,-156,-92,109,14,-124,126,68,53,14,-14,-9
-63,-156,-92,109,14,-124,126,73,63,19,-9,-4
-53,-141,-87,97,17,-114,131,97,73,24,0,0
-43,-131,-87,87,21,-109,131,112,87,34,4,4
-39,-122,-82,80,21,-102,141,131,107,43,14,4
-34,-112,-78,73,21,-95,151,151,117,58,19,4
-39,-112,-73,75,17,-92,156,161,131,73,29,4
-34,-122,-87,78,26,-104,165,180,161,87,39,19
-24,-112,-87,68,31,-100,175,209,180,107,48,34
-14,-97,-82,56,34,-90,185,239,204,122,63,39
-4,-102,-97,53,46,-100,190,283,234,151,78,39
9,-82,-92,36,51,-87,200,322,258,175,102,43
19,-73,-92,26,56,-82,214,356,292,200,107,53
29,-73,-102,21,65,-87,229,395,312,224,122,63
39,-24,-63,-7,51,-43,234,424,336,239,141,73
48,-4,-53,-21,51,-29,234,458,375,268,161,82
63,9,-53,-36,58,-21,253,502,414,292,170,92
82,24,-58,-53,70,-17,258,541,453,312,190,97
92,29,-63,-61,78,-17,263,575,468,331,200,102
107,48,-58,-78,82,-4,268,614,492,356,224,107
117,63,-53,-90,85,4,278,644,527,385,248,122
122,73,-48,-97,85,12,283,678,556,414,268,146
131,82,-48,-107,90,17,287,707,570,434,278,156
146,97,-48,-122,97,24,283,717,575,444,292,161
151,107,-43,-129,97,31,278,717,580,463,297,175
156,122,-34,-139,95,43,268,707,585,473,302,185
161,131,-29,-146,95,51,253,692,580,458,312,200
165,136,-29,-151,97,53,234,653,556,448,317,200
156,141,-14,-148,85,63,214,595,522,429,307,200
141,141,0,-141,70,70,195,531,473,395,287,195
131,126,-4,-129,68,61,175,468,419,356,268,190
122,97,-24,-109,73,36,146,400,361,302,234,175
92,58,-34,-75,63,12,126,331,302,263,204,156
68,29,-39,-48,53,-4,112,263,248,224,175,136
53,0,-53,-26,53,-26,92,200,200,170,141,112
24,-14,-39,-4,31,-26,82,146,161,136,117,97
9,-39,-48,14,29,-43,73,107,117,107,92,73
-9,-58,-48,34,19,-53,63,73,78,73,58,63
-24,-82,-58,53,17,-70,58,43,48,48,43,53
-24,-97,-73,61,24,-85,58,14,34,34,34,43
-39,-117,-78,78,19,-97,58,-14,14,4,14,39
-43,-122,-78,82,17,-100,53,-43,0,0,0,34
-48,-122,-73,85,12,-97,53,-48,-4,-19,-14,24
-48,-122,-73,85,12,-97,43,-53,-19,-29,-24,0
-53,-131,-78,92,12,-104,39,-68,-29,-34,-24,14
-53,-141,-87,97,17,-114,34,-73,-29,-34,-29,9
-58,-141,-82,100,12,-112,34,-78,-34,-34,-34,9
-58,-141,-82,100,12,-112,34,-78,-34,-43,-34,9
-58,-141,-82,100,12,-112,34,-82,-39,-43,-34,4
-63,-141,-78,102,7,-109,34,-87,-48,-43,-34,4
-63,-146,-82,104,9,-114,34,-87,-48,-43,-39,9
-63,-146,-82,104,9,-114,29,-87,-48,-43,-39,9
-63,-141,-78,102,7,-109,29,-87,-48,-53,-39,4
-63,-141,-78,102,7,-109,34,-82,-43,-58,-39,4
-63,-146,-82,104,9,-114,34,-82,-43,-58,-39,4
-63,-146,-82,104,9,-114,34,-78,-43,-58,-39,4
-63,-146,-82,104,9,-114,29,-78,-43,-58,-39,4
-58,-146,-87,102,14,-117,29,-78,-43,-58,-39,0
-63,-141,-78,102,7,-109,29,-78,-43,-58,-39,4
-68,-141,-73,104,2,-107,29,-73,-48,-58,-43,9
-68,-141,-73,104,2,-107,29,-78,-48,-58,-43,9
-68,-141,-73,104,2,-107,34,-78,-43,-58,-43,9
-68,-141,-73,104,2,-107,29,-82,-48,-58,-43,9
-68,-141,-73,104,2,-107,24,-87,-53,-58,-43,9
-63,-136,-73,100,4,-104,24,-82,-53,-53,-43,9
-58,-131,-73,95,7,-102,24,-82,-53,-53,-43,14
-58,-131,-73,95,7,-102,24,-78,-48,-58,-43,14
-63,-131,-68,97,2,-100,29,-73,-43,-63,-43,14
-63,-136,-73,100,4,-104,29,-73,-48,-63,-43,14
-63,-136,-73,100,4,-104,29,-73,-48,-63,-43,14
-68,-136,-68,102,0,-102,34,-78,-53,-63,-39,14
-73,-136,-63,104,-4,-100,34,-82,-48,-63,-34,14
-73,-136,-63,104,-4,-100,34,-78,-48,-58,-34,14
-73,-136,-63,104,-4,-100,34,-73,-48,-53,-34,14
-68,-141,-73,104,2,-107,29,-78,-53,-58,-39,14
-68,-146,-78,107,4,-112,29,-78,-53,-58,-39,14
-68,-146,-78,107,4,-112,29,-78,-53,-58,-39,19
-68,-146,-78,107,4,-112,29,-78,-53,-58,-39,19
-63,-141,-78,102,7,-109,29,-78,-53,-58,-39,9
-63,-141,-78,102,7,-109,29,-82,-53,-63,-43,4
-68,-146,-78,107,4,-112,24,-82,-58,-63,-43,4
-68,-146,-78,107,4,-112,24,-87,-63,-68,-48,4
-73,-146,-73,109,0,-109,24,-87,-63,-68,-48,9
-73,-146,-73,109,0,-109,24,-87,-63,-68,-43,9
-68,-146,-78,107,4,-112,24,-92,-58,-63,-43,14
-68,-146,-78,107,4,-112,24,-92,-53,-63,-43,14
-73,-151,-78,112,2,-114,24,-92,-58,-63,-48,9
-73,-151,-78,112,2,-114,24,-92,-58,-68,-48,9
-73,-156,-82,114,4,-119,24,-92,-58,-68,-48,9
-73,-156,-82,114,4,-119,24,-92,-63,-68,-53,9
-73,-151,-78,112,2,-114,24,-97,-63,-68,-53,9
-73,-146,-73,109,0,-109,24,-97,-63,-68,-48,9
-73,-136,-63,104,-4,-100,29,-97,-58,-63,-43,14
-73,-122,-48,97,-12,-85,34,-97,-48,-63,-39,19
-73,-122,-48,97,-12,-85,39,-102,-48,-53,-34,29
-73,-107,-34,90,-19,-70,39,-102,-43,-39,-29,39
-63,-102,-39,82,-12,-70,43,-92,-34,-43,-24,39
-58,-97,-39,78,-9,-68,48,-87,-29,-48,-19,39
-58,-102,-43,80,-7,-73,48,-87,-29,-48,-24,34
-58,-107,-48,82,-4,-78,48,-87,-29,-48,-29,29
-58,-107,-48,82,-4,-78,53,-87,-29,-48,-29,29
-53,-92,-39,73,-7,-65,48,-87,-24,-39,-19,29
-53,-78,-24,65,-14,-51,43,-87,-19,-34,-9,34
-39,-43,-4,41,-17,-24,29,-92,-9,-19,9,48
-29,-4,24,17,-26,9,14,-97,0,-4,19,73
-29,0,29,14,-29,14,4,-97,9,4,24,92
-29,0,29,14,-29,14,0,-97,14,4,24,92
-19,-4,14,12,-17,4,-14,-97,4,0,24,87
-4,4,9,0,-7,7,-29,-92,-4,-4,39,87
-4,4,9,0,-7,7,-39,-87,-19,-14,34,82
0,-19,-19,9,9,-19,-43,-92,-39,-34,24,68
-4,-34,-29,19,12,-31,-43,-97,-43,-39,9,58
-14,-43,-29,29,7,-36,-39,-97,-58,-39,0,53
-24,-53,-29,39,2,-41,-29,-97,-78,-43,-9,43
-34,-73,-39,53,2,-56,-19,-107,-63,-53,-19,34
-48,-92,-43,70,-2,-68,-9,-112,-58,-63,-29,29
-63,-107,-43,85,-9,-75,-4,-112,-78,-78,-43,14
-68,-122,-53,95,-7,-87,-4,-112,-92,-87,-58,0
-68,-136,-68,102,0,-102,-4,-112,-97,-97,-68,-9
-78,-161,-82,119,2,-122,0,-112,-107,-107,-78,-19
-82,-165,-82,124,0,-124,0,-112,-107,-112,-78,-24
-82,-170,-87,126,2,-129,0,-117,-107,-117,-73,-29
-82,-170,-87,126,2,-129,4,-117,-107,-117,-73,-29
-82,-175,-92,129,4,-134,4,-117,-112,-122,-82,-34
-87,-180,-92,134,2,-136,4,-117,-112,-126,-87,-34
-87,-180,-92,134,2,-136,4,-117,-112,-126,-92,-34
-87,-180,-92,134,2,-136,4,-117,-117,-122,-97,-34
-87,-180,-92,134,2,-136,9,-122,-117,-122,-97,-39
-92,-185,-92,139,0,-139,9,-122,-122,-131,-97,-43
-97,-185,-87,141,-4,-136,9,-126,-126,-141,-97,-43
-97,-185,-87,141,-4,-136,9,-126,-126,-141,-97,-48
-97,-180,-82,139,-7,-131,9,-126,-126,-141,-97,-53
-92,-180,-87,136,-2,-134,14,-126,-126,-141,-97,-48
-92,-180,-87,136,-2,-134,14,-126,-126,-141,-102,-48
-92,-170,-78,131,-7,-124,14,-126,-131,-141,-107,-48
-97,-165,-68,131,-14,-117,14,-131,-131,-141,-112,-48
-97,-165,-68,131,-14,-117,14,-131,-131,-141,-107,-48
-92,-161,-68,126,-12,-114,14,-126,-131,-141,-107,-48
-92,-165,-73,129,-9,-119,14,-126,-131,-141,-107,-48
-97,-170,-73,134,-12,-122,14,-126,-126,-141,-107,-48
-97,-170,-73,134,-12,-122,14,-126,-126,-136,-107,-53
-97,-170,-73,134,-12,-122,14,-126,-126,-136,-107,-58
-92,-165,-73,129,-9,-119,14,-126,-126,-136,-107,-53
-92,-161,-68,126,-12,-114,14,-126,-126,-136,-107,-53
-97,-170,-73,134,-12,-122,29,-126,-136,-151,-117,-63
-107,-170,-63,139,-21,-117,39,-126,-141,-161,-131,-63
-136,-214,-78,175,-29,-146,34,-195,-200,-239,-190,-102
-136,-200,-63,168,-36,-131,14,-175,-141,-185,-161,-97
-87,-126,-39,107,-24,-82,43,39,112,-24,-87,-53
0,-19,-19,9,9,-19,-53,190,322,175,53,34
200,244,43,-222,78,143,-351,292,600,580,385,234
400,546,146,-473,126,346,-668,366,829,1019,761,483
575,878,302,-727,136,590,-956,478,1063,1478,1190,766
663,1029,366,-846,148,697,-1107,439,936,1546,1346,907
688,946,258,-817,214,602,-1049,283,375,1078,1161,888
653,766,112,-710,270,439,-985,117,-73,653,927,810
400,361,-39,-380,219,161,-888,-214,-561,48,463,536
209,156,-53,-183,131,51,-805,-478,-834,-307,185,395
97,122,24,-109,36,73,-692,-551,-736,-346,97,317
34,48,14,-41,9,31,-566,-527,-678,-385,-19,214
0,-24,-24,12,12,-24,-395,-439,-556,-346,-68,126
-29,-82,-53,56,12,-68,-258,-317,-405,-292,-102,68
-34,-82,-48,58,7,-65,-156,-200,-283,-219,-82,39
-43,-82,-39,63,-2,-61,-73,-136,-204,-170,-68,14
-58,-97,-39,78,-9,-68,-24,-122,-170,-146,-78,-14
-58,-92,-34,75,-12,-63,4,-107,-131,-126,-82,-24
-58,-92,-34,75,-12,-63,9,-97,-107,-126,-82,-24
-63,-92,-29,78,-17,-61,19,-92,-102,-126,-82,-24
-73,-97,-24,85,-24,-61,34,-92,-102,-131,-92,-29
-73,-102,-29,87,-21,-65,39,-87,-102,-131,-97,-34
-78,-112,-34,95,-21,-73,43,-87,-102,-131,-97,-34
-82,-117,-34,100,-24,-75,43,-82,-102,-131,-97,-34
-82,-122,-39,102,-21,-80,43,-82,-102,-126,-97,-43
-82,-122,-39,102,-21,-80,48,-82,-92,-122,-97,-43
-82,-122,-39,102,-21,-80,53,-78,-87,-117,-97,-39
-82,-122,-39,102,-21,-80,58,-73,-82,-117,-92,-34
-78,-117,-39,97,-19,-78,53,-73,-87,-122,-92,-39
-73,-117,-43,95,-14,-80,53,-73,-87,-122,-97,-43
-73,-102,-29,87,-21,-65,53,-68,-82,-122,-97,-43
-73,-87,-14,80,-29,-51,53,-68,-82,-117,-92,-39
-68,-102,-34,85,-17,-68,48,-68,-82,-122,-92,-39
-68,-107,-39,87,-14,-73,48,-63,-82,-122,-92,-39
-68,-107,-39,87,-14,-73,48,-58,-82,-117,-92,-39
-68,-102,-34,85,-17,-68,53,-53,-73,-112,-82,-39
-63,-97,-34,80,-14,-65,53,-53,-68,-107,-82,-29
-63,-82,-19,73,-21,-51,53,-48,-68,-112,-87,-29
-63,-82,-19,73,-21,-51,53,-53,-68,-107,-82,-34
-63,-92,-29,78,-17,-61,63,-53,-68,-97,-82,-39
-63,-102,-39,82,-12,-70,63,-43,-58,-102,-82,-34
-63,-92,-29,78,-17,-61,63,-43,-53,-102,-82,-34
-58,-92,-34,75,-12,-63,58,-39,-53,-97,-82,-29
-58,-87,-29,73,-14,-58,58,-29,-48,-92,-78,-29
-58,-73,-14,65,-21,-43,58,-24,-34,-87,-73,-24
-53,-73,-19,63,-17,-46,63,-14,-29,-82,-73,-24
-53,-82,-29,68,-12,-56,68,-4,-19,-68,-78,-24
-43,-68,-24,56,-9,-46,68,0,-4,-53,-68,-19
-43,-53,-9,48,-17,-31,68,0,0,-48,-58,-14
-39,-43,-4,41,-17,-24,78,24,4,-43,-48,-9
-39,-39,0,39,-19,-19,78,34,19,-34,-43,-4
-39,-34,4,36,-21,-14,82,43,39,-24,-34,-4
-34,-19,14,26,-24,-2,87,58,43,-9,-29,-4
-34,-4,29,19,-31,12,87,73,53,4,-19,-4
-24,-14,9,19,-17,-2,97,92,82,19,-9,9
-14,-4,9,9,-12,2,107,117,102,39,0,19
-4,0,4,2,-4,2,112,146,126,53,14,19
4,4,0,-4,2,2,112,185,156,78,24,19
19,43,24,-31,-2,34,122,219,180,92,43,24
29,53,24,-41,2,39,131,248,209,112,48,34
39,39,0,-39,19,19,146,287,224,136,63,34
48,73,24,-61,12,48,156,322,248,151,82,34
58,107,48,-82,4,78,156,356,292,185,107,53
68,122,53,-95,7,87,175,395,326,214,122,73
82,122,39,-102,21,80,180,434,356,239,141,82
92,136,43,-114,24,90,185,468,370,263,151,92
107,165,58,-136,24,112,190,507,400,287,175,97
122,180,58,-151,31,119,200,536,429,307,190,107
131,185,53,-158,39,119,204,570,453,336,209,126
141,200,58,-170,41,129,204,600,473,361,229,136
156,219,63,-187,46,141,200,619,488,370,248,141
161,224,63,-192,48,143,200,629,497,385,258,146
165,234,68,-200,48,151,195,629,502,395,263,156
165,239,73,-202,46,156,185,614,497,385,263,165
170,244,73,-207,48,158,170,580,478,380,268,161
165,248,82,-207,41,165,151,536,453,370,268,170
161,258,97,-209,31,178,126,483,405,336,253,165
156,253,97,-204,29,175,107,424,356,302,239,165
141,229,87,-185,26,158,78,356,302,253,204,151
112,195,82,-153,14,139,63,292,248,214,175,126
82,165,82,-124,0,124,58,224,200,170,141,107
68,136,68,-102,0,102,43,161,151,122,107,87
43,126,82,-85,-19,104,34,107,107,87,82,78
29,107,78,-68,-24,92,24,68,73,58,58,53
9,87,78,-48,-34,82,9,29,39,29,24,39
-4,63,68,-29,-36,65,0,-4,0,0,4,24
-9,48,58,-19,-34,53,0,-34,-19,-14,-4,14
-29,29,58,0,-43,43,0,-53,-39,-43,-19,9
-34,24,58,4,-46,41,-4,-78,-53,-53,-34,4
-39,19,58,9,-48,39,-4,-87,-63,-73,-48,-4
-39,14,53,12,-46,34,-14,-92,-78,-82,-53,-39
-43,4,48,19,-46,26,-14,-107,-87,-92,-53,-29
-53,-19,34,36,-43,7,-14,-112,-87,-97,-58,-29
-68,-34,34,51,-51,0,-14,-117,-92,-102,-63,-29
-68,-24,43,46,-56,9,-14,-117,-92,-112,-68,-29
-68,-14,53,41,-61,19,-14,-122,-92,-112,-73,-34
-68,-14,53,41,-61,19,-14,-126,-97,-112,-73,-34
-63,-19,43,41,-53,12,-14,-126,-97,-112,-78,-34
-63,-19,43,41,-53,12,-19,-131,-97,-112,-78,-39
-63,-19,43,41,-53,12,-19,-136,-102,-117,-78,-43
-58,-24,34,41,-46,4,-14,-131,-102,-117,-78,-39
-53,-29,24,41,-39,-2,-14,-131,-102,-117,-78,-34
-53,-29,24,41,-39,-2,-19,-126,-102,-117,-78,-34
-53,-29,24,41,-39,-2,-24,-126,-102,-117,-78,-34
-53,-24,29,39,-41,2,-19,-117,-102,-117,-82,-39
-58,-19,39,39,-48,9,-19,-117,-102,-117,-82,-39
-58,-19,39,39,-48,9,-19,-117,-107,-117,-82,-39
-58,-14,43,36,-51,14,-19,-117,-107,-117,-82,-39
-58,-14,43,36,-51,14,-14,-117,-107,-117,-82,-39
-58,-14,43,36,-51,14,-14,-117,-112,-117,-82,-39
-58,-14,43,36,-51,14,-14,-117,-112,-117,-82,-39
-58,-14,43,36,-51,14,-14,-112,-112,-112,-82,-39
-58,-14,43,36,-51,14,-14,-112,-112,-117,-82,-34
-58,-14,43,36,-51,14,-14,-112,-112,-122,-82,-34
-63,-14,48,39,-56,17,-14,-112,-107,-122,-82,-34
-63,-19,43,41,-53,12,-19,-112,-107,-122,-82,-34
-63,-14,48,39,-56,17,-19,-107,-107,-122,-82,-34
-63,-9,53,36,-58,21,-14,-107,-107,-122,-82,-34
-63,-9,53,36,-58,21,-14,-112,-102,-122,-82,-34
-63,-9,53,36,-58,21,-14,-112,-107,-122,-82,-34
-63,-9,53,36,-58,21,-14,-112,-107,-117,-82,-34
-63,-9,53,36,-58,21,-19,-117,-112,-117,-87,-34
-68,-9,58,39,-63,24,-19,-117,-112,-117,-87,-34
-68,-9,58,39,-63,24,-19,-117,-112,-117,-87,-29
-68,-9,58,39,-63,24,-19,-117,-112,-117,-82,-29
-63,-4,58,34,-61,26,-19,-117,-112,-117,-78,-34
-58,-4,53,31,-56,24,-19,-122,-112,-122,-82,-34
-58,-9,48,34,-53,19,-24,-122,-117,-122,-82,-34
-58,-14,43,36,-51,14,-24,-126,-122,-126,-87,-34
-63,-19,43,41,-53,12,-24,-126,-122,-126,-87,-29
-63,-19,43,41,-53,12,-24,-126,-122,-126,-82,-34
-58,-19,39,39,-48,9,-24,-131,-122,-126,-82,-34
-58,-19,39,39,-48,9,-24,-126,-122,-131,-82,-34
-63,-24,39,43,-51,7,-24,-126,-126,-131,-87,-39
-63,-24,39,43,-51,7,-24,-131,-126,-136,-92,-39
-63,-29,34,46,-48,2,-24,-131,-126,-136,-97,-39
-63,-29,34,46,-48,2,-24,-131,-131,-136,-102,-39
-63,-29,34,46,-48,2,-24,-136,-131,-136,-102,-39
-68,-29,39,48,-53,4,-24,-136,-136,-141,-97,-39
-73,-29,43,51,-58,7,-24,-136,-141,-141,-97,-39
-73,-29,43,51,-58,7,-29,-136,-136,-141,-102,-39
-73,-34,39,53,-56,2,-29,-141,-136,-141,-102,-39
-73,-24,48,48,-61,12,-29,-141,-136,-141,-102,-39
-73,-19,53,46,-63,17,-29,-141,-141,-146,-97,-43
-68,-4,63,36,-65,29,-24,-141,-136,-136,-97,-43
-68,-4,63,36,-65,29,-14,-136,-126,-136,-92,-29
-68,14,82,26,-75,48,-9,-136,-122,-126,-82,-24
-73,24,97,24,-85,61,0,-136,-112,-122,-78,-14
-68,24,92,21,-80,58,9,-136,-107,-117,-73,-14
-58,34,92,12,-75,63,14,-136,-97,-112,-73,-14
-58,29,87,14,-73,58,14,-126,-92,-107,-68,-9
-58,29,87,14,-73,58,19,-117,-87,-107,-68,-9
-58,29,87,14,-73,58,19,-117,-87,-102,-68,-9
-58,29,87,14,-73,58,19,-117,-87,-97,-68,-9
-53,39,92,7,-73,65,9,-122,-87,-97,-63,-4
-43,58,102,-7,-73,80,0,-122,-82,-87,-48,4
-39,78,117,-19,-78,97,-14,-126,-78,-82,-39,14
-19,112,131,-46,-75,122,-29,-131,-68,-68,-19,39
-9,136,146,-63,-78,141,-43,-131,-68,-63,-19,43
-9,126,136,-58,-73,131,-53,-126,-68,-63,-24,43
-9,122,131,-56,-70,126,-58,-126,-63,-63,-24,43
0,112,112,-56,-56,112,-73,-126,-73,-68,-24,39
14,107,92,-61,-39,100,-73,-126,-82,-78,-24,34
14,92,78,-53,-31,85,-68,-126,-97,-92,-43,24
9,68,58,-39,-24,63,-68,-131,-117,-112,-48,14
-4,53,58,-24,-31,56,-63,-136,-122,-117,-58,9
-19,34,53,-7,-36,43,-58,-136,-122,-112,-63,4
-34,14,48,9,-41,31,-48,-136,-126,-112,-68,-4
-43,-9,34,26,-39,12,-39,-146,-126,-122,-78,-24
-58,-34,24,46,-41,-4,-29,-151,-136,-131,-87,-39
-68,-48,19,58,-43,-14,-24,-146,-146,-141,-97,-48
-68,-63,4,65,-36,-29,-24,-141,-151,-146,-107,-58
-68,-82,-14,75,-26,-48,-24,-141,-156,-156,-117,-68
-78,-112,-34,95,-21,-73,-19,-141,-165,-165,-126,-78
-78,-112,-34,95,-21,-73,-14,-131,-156,-165,-131,-82
-73,-112,-39,92,-17,-75,-9,-126,-146,-165,-131,-87
-68,-107,-39,87,-14,-73,-4,-126,-161,-175,-141,-87
-63,-107,-43,85,-9,-75,-4,-126,-180,-190,-161,-92
-68,-107,-39,87,-14,-73,-4,-126,-165,-175,-151,-92
-68,-102,-34,85,-17,-68,-4,-126,-151,-156,-141,-92
-68,-92,-24,80,-21,-58,-9,-131,-156,-161,-146,-92
-68,-82,-14,75,-26,-48,-9,-141,-156,-170,-146,-97
-73,-87,-14,80,-29,-51,-14,-141,-161,-175,-146,-102
-78,-87,-9,82,-34,-48,-19,-146,-165,-180,-146,-102
-78,-97,-19,87,-29,-58,-19,-146,-165,-180,-146,-102
-78,-102,-24,90,-26,-63,-19,-146,-165,-180,-146,-102
-73,-78,-4,75,-34,-41,-14,-146,-165,-180,-146,-97
-73,-53,19,63,-46,-17,-14,-146,-165,-180,-151,-97
-73,-48,24,61,-48,-12,-19,-146,-170,-175,-146,-97
-78,-48,29,63,-53,-9,-24,-151,-170,-170,-141,-97
-78,-48,29,63,-53,-9,-29,-156,-170,-170,-136,-97
-73,-43,29,58,-51,-7,-34,-156,-170,-170,-136,-97
-73,-34,39,53,-56,2,-39,-156,-170,-170,-131,-92
-78,-24,53,51,-65,14,-43,-156,-165,-170,-126,-87
-78,-24,53,51,-65,14,-43,-161,-165,-165,-126,-87
-78,-24,53,51,-65,14,-43,-165,-165,-165,-126,-87
-73,-24,48,48,-61,12,-43,-165,-165,-165,-126,-82
-73,-24,48,48,-61,12,-43,-165,-165,-165,-126,-82
-73,-34,39,53,-56,2,-39,-165,-151,-156,-122,-92
-78,-34,43,56,-61,4,-39,-165,-131,-141,-122,-92
-68,-9,58,39,-63,24,-78,-151,-58,-97,-97,-73
-29,73,102,-21,-65,87,-131,-48,131,78,14,-9
82,219,136,-151,-26,178,-229,170,434,356,200,97
234,400,165,-317,34,283,-453,326,692,673,453,248
429,668,239,-549,95,453,-732,419,932,1054,766,448
624,976,351,-800,136,663,-1029,483,1122,1468,1122,697
712,1044,331,-878,190,688,-1137,512,1015,1503,1249,800
712,932,219,-822,246,575,-1107,390,546,1146,1102,761
658,732,73,-695,292,402,-1044,180,0,624,819,649
546,434,-112,-490,329,161,-976,-39,-434,146,488,478
317,180,-136,-248,226,21,-863,-336,-697,-214,185,287
151,126,-24,-139,87,51,-766,-566,-746,-326,68,229
73,97,24,-85,24,61,-595,-531,-590,-307,24,170
43,29,-14,-36,29,7,-409,-400,-473,-287,-48,87
14,4,-9,-9,12,-2,-268,-312,-351,-214,-48,43
-9,-4,4,7,-7,0,-161,-190,-200,-126,-34,29
-14,-29,-14,21,0,-21,-82,-126,-131,-92,-29,0
-24,-53,-29,39,2,-41,-24,-117,-107,-82,-29,-24
-43,-78,-34,61,-4,-56,9,-97,-87,-73,-43,-43
-48,-82,-34,65,-7,-58,24,-78,-63,-68,-53,-43
-48,-78,-29,63,-9,-53,29,-73,-63,-68,-53,-43
-53,-73,-19,63,-17,-46,39,-73,-82,-68,-53,-43
-58,-78,-19,68,-19,-48,53,-73,-73,-73,-63,-53
-53,-82,-29,68,-12,-56,58,-68,-63,-73,-68,-63
-53,-92,-39,73,-7,-65,58,-63,-78,-82,-68,-63
-53,-97,-43,75,-4,-70,53,-53,-92,-92,-68,-63
-58,-102,-43,80,-7,-73,53,-53,-73,-87,-68,-73
-63,-102,-39,82,-12,-70,58,-53,-43,-82,-68,-73
-63,-87,-24,75,-19,-56,53,-48,-58,-78,-73,-73
-63,-73,-9,68,-26,-41,48,-43,-73,-78,-73,-73
-63,-68,-4,65,-29,-36,43,-43,-63,-78,-68,-73
-63,-68,-4,65,-29,-36,43,-43,-48,-73,-68,-73
-63,-68,-4,65,-29,-36,48,-39,-43,-73,-68,-73
-63,-68,-4,65,-29,-36,53,-39,-43,-68,-63,-68
-53,-92,-39,73,-7,-65,58,-39,-39,-68,-63,-68
-48,-107,-58,78,4,-82,68,-34,-34,-63,-63,-68
-48,-97,-48,73,0,-73,68,-29,-34,-63,-63,-73
-48,-82,-34,65,-7,-58,73,-24,-24,-63,-53,-78
-43,-78,-34,61,-4,-56,68,-24,-34,-53,-48,-68
-43,-63,-19,53,-12,-41,63,-19,-48,-53,-48,-68
-43,-68,-24,56,-9,-46,63,-19,-24,-43,-43,-68
-43,-82,-39,63,-2,-61,73,-14,0,-29,-43,-68
-43,-92,-48,68,2,-70,73,-9,0,-29,-39,-58
-43,-82,-39,63,-2,-61,73,-14,-4,-24,-34,-53
-39,-82,-43,61,2,-63,78,-9,0,-19,-34,-48
-39,-78,-39,58,0,-58,87,0,9,-14,-29,-48
-39,-63,-24,51,-7,-43,87,4,24,-9,-24,-43
-34,-63,-29,48,-2,-46,92,14,29,-4,-24,-43
-39,-68,-29,53,-4,-48,97,24,39,4,-24,-43
-34,-48,-14,41,-9,-31,97,29,53,14,-9,-39
-34,-39,-4,36,-14,-21,97,34,63,19,-9,-34
-29,-34,-4,31,-12,-19,107,63,73,24,-9,-29
-14,-34,-19,24,2,-26,117,87,92,43,4,-29
0,-34,-34,17,17,-34,131,112,117,63,24,-34
4,-48,-53,21,29,-51,151,141,126,78,29,-34
4,-63,-68,29,36,-65,165,170,141,92,39,-34
9,-82,-92,36,51,-87,175,209,185,117,58,-14
14,-82,-97,34,56,-90,185,253,219,146,78,0
19,-39,-58,9,39,-48,190,273,234,151,63,0
24,4,-19,-14,21,-7,190,302,253,165,43,0
39,34,-4,-36,21,14,200,341,278,185,78,4
48,34,-14,-41,31,9,209,375,307,209,97,14
58,34,-24,-46,41,4,224,414,331,239,112,24
68,82,14,-75,26,48,234,448,366,258,131,34
78,102,24,-90,26,63,239,497,405,287,151,39
87,102,14,-95,36,58,263,551,434,312,161,43
102,107,4,-104,48,56,268,590,468,346,185,48
112,126,14,-119,48,70,273,624,488,380,200,53
126,161,34,-143,46,97,278,663,512,395,224,58
141,180,39,-161,51,109,287,692,536,405,239,68
151,190,39,-170,56,114,292,727,556,424,248,87
161,209,48,-185,56,129,292,756,570,439,258,97
170,219,48,-195,61,134,287,761,575,444,273,107
170,214,43,-192,63,129,287,756,575,453,278,117
175,219,43,-197,65,131,278,736,556,448,283,122
175,219,43,-197,65,131,263,702,527,424,283,126
175,219,43,-197,65,131,239,649,497,409,278,112
165,219,53,-192,56,136,209,585,463,390,268,112
151,200,48,-175,51,124,185,522,429,370,263,112
136,165,29,-151,53,97,165,453,395,351,258,117
126,161,34,-143,46,97,126,375,331,292,214,107
102,146,43,-124,29,95,102,302,268,244,175,87
78,117,39,-97,19,78,92,234,219,204,146,63
68,87,19,-78,24,53,73,170,170,161,117,39
43,63,19,-53,12,41,63,112,131,131,97,29
29,29,0,-29,14,14,53,68,102,107,78,4
9,19,9,-14,0,14,43,34,87,82,53,0
-4,4,9,0,-7,7,39,4,68,58,43,-4
0,-9,-9,4,4,-9,34,-24,39,48,34,-14
-9,-29,-19,19,4,-24,29,-43,9,24,19,-19
-14,-39,-24,26,4,-31,24,-63,9,24,9,-24
-19,-48,-29,34,4,-39,24,-68,14,14,0,-34
-19,-63,-43,41,12,-53,14,-68,0,9,-4,-58
-24,-82,-58,53,17,-70,14,-78,-9,4,-4,-39
-24,-78,-53,51,14,-65,14,-82,-14,-4,-9,-39
-29,-63,-34,46,2,-48,14,-87,-24,-14,-14,-39
-29,-48,-19,39,-4,-34,9,-87,-24,-24,-19,-43
-29,-34,-4,31,-12,-19,4,-92,-24,-24,-24,-53
-34,-34,0,34,-17,-17,4,-92,-29,-24,-24,-53
-34,-39,-4,36,-14,-21,4,-87,-29,-24,-29,-53
-39,-39,0,39,-19,-19,0,-87,-29,-24,-29,-58
-43,-39,4,41,-24,-17,0,-87,-34,-29,-29,-63
-43,-43,0,43,-21,-21,4,-82,-34,-29,-29,-63
-43,-48,-4,46,-19,-26,4,-82,-34,-29,-29,-63
-43,-48,-4,46,-19,-26,4,-78,-34,-29,-34,-63
-43,-48,-4,46,-19,-26,4,-78,-34,-29,-39,-63
-39,-48,-9,43,-14,-29,9,-68,-34,-29,-39,-63
-39,-48,-9,43,-14,-29,9,-68,-34,-29,-34,-58
-43,-53,-9,48,-17,-31,9,-68,-39,-34,-39,-58
-48,-53,-4,51,-21,-29,9,-68,-39,-39,-43,-58
-48,-53,-4,51,-21,-29,14,-63,-34,-39,-43,-58
-48,-53,-4,51,-21,-29,14,-58,-34,-39,-43,-58
-43,-53,-9,48,-17,-31,14,-58,-29,-34,-39,-58
-39,-53,-14,46,-12,-34,14,-53,-24,-24,-34,-58
-39,-53,-14,46,-12,-34,14,-53,-24,-24,-34,-58
-39,-53,-14,46,-12,-34,14,-53,-24,-24,-34,-63
-43,-53,-9,48,-17,-31,19,-48,-24,-29,-34,-63
-43,-58,-14,51,-14,-36,19,-43,-29,-34,-34,-63
-43,-58,-14,51,-14,-36,14,-43,-34,-34,-39,-63
-43,-58,-14,51,-14,-36,14,-48,-39,-34,-43,-63
-43,-58,-14,51,-14,-36,14,-53,-29,-34,-43,-63
-43,-58,-14,51,-14,-36,14,-53,-29,-34,-43,-63
-43,-58,-14,51,-14,-36,14,-53,-29,-34,-43,-68
-43,-58,-14,51,-14,-36,9,-58,-34,-39,-48,-73
-48,-58,-9,53,-19,-34,9,-63,-39,-39,-48,-73
-48,-58,-9,53,-19,-34,9,-68,-43,-39,-48,-68
-48,-58,-9,53,-19,-34,14,-68,-43,-39,-48,-68
-43,-53,-9,48,-17,-31,19,-68,-43,-39,-48,-73
-43,-53,-9,48,-17,-31,19,-73,-48,-48,-58,-78
-48,-58,-9,53,-19,-34,14,-73,-58,-53,-63,-82
-48,-58,-9,53,-19,-34,14,-82,-63,-58,-68,-82
-53,-58,-4,56,-24,-31,14,-87,-63,-58,-68,-78
-58,-58,0,58,-29,-29,14,-87,-63,-58,-63,-82
-58,-58,0,58,-29,-29,14,-92,-63,-58,-63,-82
-58,-53,4,56,-31,-24,9,-97,-68,-68,-68,-82
-63,-53,9,58,-36,-21,4,-107,-78,-73,-78,-87
-63,-48,14,56,-39,-17,0,-117,-82,-82,-78,-92
-63,-48,14,56,-39,-17,-4,-122,-87,-87,-78,-97
-58,-43,14,51,-36,-14,-4,-122,-97,-92,-82,-97
-53,-39,14,46,-34,-12,-4,-126,-102,-97,-82,-97
-53,-39,14,46,-34,-12,-4,-126,-102,-102,-82,-97
-53,-39,14,46,-34,-12,-4,-126,-102,-102,-87,-97
-53,-39,14,46,-34,-12,-9,-131,-102,-102,-92,-97
-53,-43,9,48,-31,-17,-9,-141,-107,-102,-92,-97
-53,-34,19,43,-36,-7,-9,-141,-107,-102,-92,-97
-53,-29,24,41,-39,-2,-9,-141,-112,-107,-87,-102
-48,-4,43,26,-46,19,-4,-146,-107,-97,-87,-102
-48,4,53,21,-51,29,4,-146,-97,-97,-82,-87
-48,19,68,14,-58,43,4,-146,-97,-92,-78,-82
-48,24,73,12,-61,48,9,-141,-87,-87,-73,-73
-43,24,68,9,-56,46,14,-136,-82,-82,-73,-73
-39,29,68,4,-53,48,24,-131,-82,-82,-78,-73
-39,34,73,2,-56,53,19,-126,-78,-78,-78,-73
-39,39,78,0,-58,58,19,-126,-78,-78,-78,-78
-39,39,78,0,-58,58,19,-126,-73,-78,-73,-78
-39,39,78,0,-58,58,19,-126,-68,-78,-68,-78
-29,53,82,-12,-56,68,14,-122,-63,-73,-58,-73
-14,73,87,-29,-51,80,0,-122,-53,-63,-43,-53
0,92,92,-46,-46,92,-9,-122,-48,-53,-34,-39
9,107,97,-58,-43,102,-24,-122,-48,-53,-34,-34
14,107,92,-61,-39,100,-43,-117,-58,-58,-48,-39
19,112,92,-65,-36,102,-58,-117,-68,-63,-63,-43
29,102,73,-65,-21,87,-73,-117,-82,-68,-63,-48
43,102,58,-73,-7,80,-78,-117,-92,-78,-63,-53
39,102,63,-70,-12,82,-73,-117,-102,-87,-78,-63
29,87,58,-58,-14,73,-73,-122,-117,-102,-82,-78
9,73,63,-41,-26,68,-73,-122,-112,-107,-97,-87
-9,63,73,-26,-41,68,-68,-117,-102,-107,-102,-92
-24,58,82,-17,-53,70,-63,-117,-126,-117,-107,-107
-34,43,78,-4,-56,61,-58,-126,-146,-131,-117,-122
-48,24,73,12,-61,48,-48,-131,-146,-141,-126,-126
-58,14,73,21,-65,43,-43,-131,-146,-151,-136,-136
-53,4,58,24,-56,31,-43,-126,-151,-156,-146,-141
-48,-4,43,26,-46,19,-43,-122,-156,-165,-156,-146
-58,-14,43,36,-51,14,-39,-122,-161,-170,-165,-156
-63,-4,58,34,-61,26,-39,-122,-156,-165,-165,-156
-53,-4,48,29,-51,21,-39,-122,-156,-161,-156,-156
-43,-4,39,24,-41,17,-34,-117,-156,-156,-151,-156
-53,-14,39,34,-46,12,-34,-117,-161,-161,-161,-161
-68,-24,43,46,-56,9,-34,-117,-161,-165,-161,-161
-68,-39,29,53,-48,-4,-34,-122,-161,-165,-156,-161
-68,-53,14,61,-41,-19,-34,-126,-165,-161,-156,-161
-63,-53,9,58,-36,-21,-29,-131,-165,-161,-156,-156
-63,-58,4,61,-34,-26,-29,-131,-165,-165,-156,-151
-68,-58,9,63,-39,-24,-24,-136,-161,-165,-146,-151
-68,-58,9,63,-39,-24,-19,-136,-156,-161,-136,-151
-68,-58,9,63,-39,-24,-19,-141,-156,-161,-136,-151
-63,-63,0,63,-31,-31,-14,-146,-156,-161,-136,-146
-63,-63,0,63,-31,-31,-14,-151,-156,-161,-141,-141
-63,-63,0,63,-31,-31,-14,-156,-161,-161,-141,-136
-78,-73,4,75,-41,-34,-4,-161,-156,-161,-141,-136
-87,-78,9,82,-48,-34,4,-161,-151,-161,-136,-136
-82,-73,9,78,-46,-31,4,-165,-151,-161,-141,-136
-82,-73,9,78,-46,-31,4,-175,-151,-161,-146,-136
-87,-73,14,80,-51,-29,4,-165,-146,-161,-146,-136
-87,-73,14,80,-51,-29,4,-156,-146,-156,-146,-136
-87,-68,19,78,-53,-24,0,-146,-146,-156,-146,-136
-82,-63,19,73,-51,-21,-4,-136,-146,-156,-146,-131
-78,-63,14,70,-46,-24,-14,-136,-156,-156,-146,-131
-78,-73,4,75,-41,-34,-24,-136,-165,-161,-151,-141
-87,-68,19,78,-53,-24,-39,-131,-151,-161,-151,-136
-78,-53,24,65,-51,-14,-87,-112,-102,-136,-131,-126
-34,34,68,0,-51,51,-151,4,78,43,-19,-68
82,180,97,-131,-7,139,-239,248,356,292,141,29
253,341,87,-297,82,214,-463,424,585,556,356,161
473,590,117,-531,178,353,-780,517,780,897,668,361
634,814,180,-724,226,497,-1049,551,858,1215,961,566
683,858,175,-771,253,517,-1117,561,751,1224,1034,639
663,736,73,-700,295,405,-1098,463,287,863,873,585
590,497,-92,-544,341,202,-1019,273,-253,341,580,453
531,263,-268,-397,400,-2,-961,9,-605,-58,287,302
356,78,-278,-217,317,-100,-888,-336,-814,-375,14,126
190,68,-122,-129,156,-26,-766,-541,-824,-439,-58,107
112,82,-29,-97,70,26,-561,-473,-649,-366,-53,82
82,48,-34,-65,58,7,-395,-341,-522,-336,-107,9
53,43,-9,-48,31,17,-268,-253,-390,-263,-97,-24
14,24,9,-19,2,17,-161,-156,-258,-180,-97,-39
-4,4,9,0,-7,7,-87,-117,-209,-151,-107,-68
-14,-4,9,9,-12,2,-34,-131,-190,-151,-117,-97
-34,-29,4,31,-19,-12,0,-146,-165,-146,-141,-122
-43,-34,9,39,-26,-12,19,-141,-131,-136,-136,-122
-48,-34,14,41,-31,-9,29,-141,-131,-136,-122,-122
-53,-48,4,51,-29,-21,39,-151,-151,-136,-131,-117
-63,-68,-4,65,-29,-36,53,-161,-141,-141,-146,-117
-63,-78,-14,70,-24,-46,58,-161,-131,-141,-156,-122
-63,-87,-24,75,-19,-56,58,-165,-131,-141,-165,-122
-63,-92,-29,78,-17,-61,63,-170,-131,-136,-151,-112
-63,-102,-39,82,-12,-70,73,-180,-131,-126,-136,-112
-63,-112,-48,87,-7,-80,78,-185,-117,-117,-126,-107
-63,-122,-58,92,-2,-90,78,-185,-107,-107,-117,-97
-63,-136,-73,100,4,-104,87,-185,-102,-102,-112,-92
-63,-146,-82,104,9,-114,92,-190,-102,-97,-107,-92
-58,-175,-117,117,29,-146,97,-200,-92,-82,-97,-78
-53,-190,-136,122,41,-163,102,-204,-82,-73,-87,-63
-48,-195,-146,122,48,-170,112,-224,-78,-58,-73,-48
-39,-239,-200,139,80,-219,126,-244,-68,-48,-63,-39
-34,-326,-292,180,129,-309,161,-283,-63,-24,-43,-9
-29,-400,-370,214,170,-385,185,-317,-63,0,-24,19
-19,-478,-458,248,219,-468,224,-361,-39,39,14,48
-4,-556,-551,280,273,-553,258,-414,-19,82,48,87
4,-595,-600,295,302,-597,278,-453,-4,97,63,112
14,-649,-663,317,339,-656,297,-497,14,117,82,136
14,-668,-683,326,348,-675,307,-522,29,136,92,136
14,-688,-702,336,358,-695,307,-536,48,146,107,141
9,-663,-673,326,341,-668,307,-531,68,151,112,141
9,-649,-658,319,334,-653,307,-527,87,156,112,146
4,-629,-634,312,319,-631,307,-497,97,161,112,141
0,-600,-600,300,300,-600,302,-473,112,165,112,141
0,-575,-575,287,287,-575,297,-439,122,156,107,136
-4,-561,-556,283,275,-558,292,-405,136,156,102,136
4,-536,-541,265,273,-539,287,-375,156,170,107,136
4,-517,-522,256,263,-519,283,-346,170,175,107,131
9,-497,-507,244,258,-502,287,-297,180,175,112,131
14,-483,-497,234,256,-490,287,-258,195,180,112,131
9,-458,-468,224,239,-463,292,-209,219,185,122,126
4,-434,-439,214,222,-436,297,-161,234,195,126,122
4,-405,-409,200,207,-407,297,-117,248,209,131,112
14,-385,-400,185,207,-392,302,-63,278,224,136,117
24,-366,-390,170,207,-378,307,-9,297,239,146,126
34,-341,-375,153,204,-358,312,43,322,248,161,126
39,-312,-351,136,195,-331,317,117,356,263,156,117
48,-258,-307,104,178,-283,326,185,385,273,161,112
58,-219,-278,80,168,-248,326,258,414,292,165,112
68,-190,-258,61,163,-224,326,336,429,312,180,112
78,-122,-200,21,139,-161,326,405,453,317,185,107
87,-82,-170,-2,129,-126,322,478,492,336,190,102
92,-43,-136,-24,114,-90,331,556,517,346,190,97
102,-4,-107,-48,104,-56,326,629,541,351,200,87
102,24,-78,-63,90,-26,322,692,551,361,195,87
107,68,-39,-87,73,14,317,761,570,375,204,87
122,117,-4,-119,63,56,322,814,595,385,214,82
131,161,29,-146,51,95,322,873,614,395,219,87
136,204,68,-170,34,136,312,927,619,400,219,87
146,253,107,-200,19,180,292,961,614,395,224,82
146,312,165,-229,-9,239,263,985,605,385,204,63
146,375,229,-261,-41,302,229,1000,595,366,185,39
131,419,287,-275,-78,353,200,1005,566,326,170,34
117,458,341,-287,-112,400,165,985,517,292,151,14
102,507,405,-305,-151,456,107,956,468,239,112,-19
82,551,468,-317,-192,509,48,922,405,170,63,-58
68,580,512,-324,-222,546,14,883,346,126,34,-73
53,595,541,-324,-244,568,-29,839,283,68,-9,-97
29,570,541,-300,-256,556,-43,771,219,29,-39,-117
9,556,546,-283,-268,551,-53,702,161,-9,-68,-136
9,478,468,-244,-229,473,-63,614,102,-48,-82,-136
-4,414,419,-204,-212,417,-63,536,53,-68,-87,-126
-19,385,405,-183,-212,395,-73,478,24,-87,-107,-151
-39,361,400,-161,-219,380,-82,424,0,-112,-136,-161
-53,336,390,-141,-222,363,-87,380,-34,-126,-151,-170
-53,322,375,-134,-214,348,-87,336,-53,-131,-161,-180
-63,302,366,-119,-214,334,-87,297,-68,-156,-170,-180
-63,297,361,-117,-212,329,-92,258,-78,-156,-175,-180
-63,273,336,-104,-200,305,-82,224,-82,-161,-180,-180
-58,248,307,-95,-183,278,-82,190,-97,-156,-180,-195
-63,229,292,-82,-178,261,-78,156,-112,-161,-180,-175
-63,209,273,-73,-168,241,-73,131,-117,-161,-185,-175
-68,195,263,-63,-165,229,-68,107,-122,-156,-185,-175
-68,180,248,-56,-158,214,-63,87,-122,-161,-180,-175
-63,165,229,-51,-146,197,-63,63,-122,-156,-175,-175
-63,151,214,-43,-139,183,-63,39,-126,-151,-170,-170
-63,146,209,-41,-136,178,-58,19,-126,-151,-175,-170
-63,146,209,-41,-136,178,-58,0,-126,-151,-175,-175
-63,141,204,-39,-134,173,-53,-14,-131,-151,-170,-175
-63,131,195,-34,-129,163,-43,-24,-131,-146,-165,-170
-58,117,175,-29,-117,146,-43,-43,-131,-146,-165,-161
-53,107,161,-26,-107,134,-43,-58,-131,-146,-165,-151
-53,92,146,-19,-100,119,-43,-68,-131,-141,-161,-151
-48,78,126,-14,-87,102,-39,-78,-131,-136,-156,-156
-48,68,117,-9,-82,92,-29,-87,-126,-126,-146,-151
-48,53,102,-2,-75,78,-19,-92,-126,-117,-141,-146
-48,39,87,4,-68,63,-19,-107,-126,-112,-136,-141
-48,24,73,12,-61,48,-14,-117,-122,-107,-131,-136
-48,19,68,14,-58,43,-9,-122,-117,-107,-126,-131
-48,14,63,17,-56,39,-4,-126,-112,-107,-122,-126
-48,14,63,17,-56,39,-4,-126,-107,-102,-122,-126
-48,14,63,17,-56,39,-4,-131,-102,-102,-122,-122
-48,14,63,17,-56,39,-4,-131,-102,-102,-122,-122
-53,14,68,19,-61,41,0,-131,-102,-102,-122,-122
-53,4,58,24,-56,31,0,-126,-107,-102,-122,-122
-53,0,53,26,-53,26,0,-122,-107,-102,-122,-122
-53,-4,48,29,-51,21,0,-126,-107,-97,-117,-122
-53,-9,43,31,-48,17,-4,-131,-97,-92,-112,-122
-48,-9,39,29,-43,14,-4,-126,-97,-92,-112,-122
-43,-9,34,26,-39,12,-4,-122,-97,-92,-112,-122
-43,-9,34,26,-39,12,-4,-126,-97,-97,-117,-122
-48,-9,39,29,-43,14,0,-126,-92,-97,-117,-122
-48,-14,34,31,-41,9,4,-126,-92,-97,-112,-117
-48,-19,29,34,-39,4,9,-126,-92,-97,-107,-117
-43,-19,24,31,-34,2,9,-126,-92,-92,-102,-117
-43,-24,19,34,-31,-2,9,-131,-92,-92,-102,-112
-48,-29,19,39,-34,-4,4,-131,-92,-87,-102,-112
-48,-29,19,39,-34,-4,4,-136,-92,-87,-107,-112
-48,-29,19,39,-34,-4,4,-136,-92,-87,-107,-112
-43,-29,14,36,-29,-7,4,-136,-92,-87,-102,-117
-39,-29,9,34,-24,-9,4,-146,-92,-92,-102,-112
-39,-29,9,34,-24,-9,4,-151,-92,-102,-102,-112
-53,-39,14,46,-34,-12,4,-156,-97,-102,-107,-117
-63,-43,19,53,-41,-12,4,-161,-97,-107,-107,-117
-63,-48,14,56,-39,-17,4,-156,-92,-107,-102,-117
-63,-48,14,56,-39,-17,4,-151,-92,-107,-102,-117
-63,-48,14,56,-39,-17,4,-151,-92,-107,-102,-117
-63,-48,14,56,-39,-17,4,-146,-92,-107,-97,-117
-63,-43,19,53,-41,-12,0,-146,-97,-102,-102,-117
-63,-34,29,48,-46,-2,-4,-146,-97,-102,-107,-117
-63,-29,34,46,-48,2,0,-151,-97,-102,-102,-117
-63,-14,48,39,-56,17,0,-151,-92,-97,-102,-117
-63,-9,53,36,-58,21,0,-146,-87,-97,-97,-117
-58,4,63,26,-61,34,4,-141,-78,-87,-97,-112
-58,4,63,26,-61,34,19,-136,-68,-87,-92,-97
-53,24,78,14,-65,51,24,-136,-63,-82,-87,-87
-48,29,78,9,-63,53,29,-122,-58,-78,-82,-87
-43,39,82,2,-63,61,34,-112,-58,-73,-78,-92
-39,43,82,-2,-61,63,29,-107,-53,-68,-78,-87
-39,48,87,-4,-63,68,29,-107,-48,-68,-78,-87
-34,58,92,-12,-63,75,24,-107,-48,-68,-78,-82
-29,68,97,-19,-63,82,19,-107,-48,-68,-78,-78
-24,82,107,-29,-65,95,14,-107,-39,-58,-68,-73
-9,107,117,-48,-63,112,0,-107,-29,-43,-53,-53
0,131,131,-65,-65,131,-9,-107,-19,-29,-39,-39
9,156,146,-82,-68,151,-24,-102,-19,-24,-34,-34
9,146,136,-78,-63,141,-34,-97,-19,-24,-34,-34
9,141,131,-75,-61,136,-39,-97,-19,-24,-34,-34
14,122,107,-68,-46,114,-53,-97,-34,-29,-34,-34
24,112,87,-68,-31,100,-58,-97,-43,-39,-34,-34
24,102,78,-63,-26,90,-58,-102,-58,-53,-53,-43
19,78,58,-48,-19,68,-63,-112,-78,-73,-63,-58
4,58,53,-31,-24,56,-63,-117,-87,-78,-78,-68
-9,43,53,-17,-31,48,-58,-117,-92,-78,-82,-73
-24,34,58,-4,-41,46,-48,-117,-97,-82,-87,-78
-34,14,48,9,-41,31,-39,-126,-97,-92,-97,-82
-48,-4,43,26,-46,19,-29,-136,-107,-102,-107,-87
-58,-14,43,36,-51,14,-24,-141,-117,-112,-117,-97
-58,-24,34,41,-46,4,-19,-141,-117,-117,-126,-107
-58,-34,24,46,-41,-4,-14,-141,-117,-126,-136,-117
-68,-53,14,61,-41,-19,-9,-136,-126,-136,-146,-126
-73,-53,19,63,-46,-17,-9,-131,-126,-136,-146,-126
-78,-58,19,68,-48,-19,-9,-136,-126,-136,-136,-126
-82,-63,19,73,-51,-21,-4,-136,-126,-136,-131,-126
-82,-73,9,78,-46,-31,-4,-136,-131,-141,-141,-131
-87,-82,4,85,-46,-39,-4,-136,-131,-146,-141,-131
-82,-82,0,82,-41,-41,-4,-136,-131,-146,-141,-126
-78,-82,-4,80,-36,-43,-4,-136,-136,-141,-146,-122
-78,-82,-4,80,-36,-43,0,-136,-136,-136,-146,-122
-82,-87,-4,85,-39,-46,0,-131,-136,-136,-146,-122
-87,-97,-9,92,-39,-53,0,-136,-136,-141,-146,-122
-87,-107,-19,97,-34,-63,0,-136,-136,-141,-146,-122
-87,-102,-14,95,-36,-58,0,-131,-136,-141,-146,-122
-82,-102,-19,92,-31,-61,4,-126,-136,-141,-146,-117
-82,-102,-19,92,-31,-61,4,-126,-131,-141,-146,-117
-82,-102,-19,92,-31,-61,4,-126,-131,-141,-141,-117
-92,-112,-19,102,-36,-65,4,-131,-131,-141,-141,-112
-97,-117,-19,107,-39,-68,4,-131,-131,-141,-136,-107
-92,-117,-24,104,-34,-70,9,-122,-131,-136,-136,-107
-92,-122,-29,107,-31,-75,14,-117,-131,-131,-136,-107
-97,-122,-24,109,-36,-73,14,-117,-122,-131,-131,-102
-97,-122,-24,109,-36,-73,14,-117,-117,-126,-126,-97
-97,-126,-29,112,-34,-78,19,-117,-117,-126,-126,-97
-92,-131,-39,112,-26,-85,24,-117,-117,-126,-126,-92
-87,-136,-48,112,-19,-92,24,-112,-117,-126,-126,-92
-87,-151,-63,119,-12,-107,24,-107,-117,-131,-131,-102
-92,-151,-58,122,-17,-104,14,-87,-92,-117,-126,-92
-78,-141,-63,109,-7,-102,-29,-53,-34,-78,-102,-78
-14,-68,-53,41,19,-61,-97,58,102,78,0,-24
122,63,-58,-92,90,2,-190,297,336,302,151,68
283,224,-58,-253,170,82,-395,478,536,561,375,200
492,473,-19,-483,256,226,-692,575,702,897,697,400
673,732,58,-702,307,395,-980,600,732,1180,990,634
741,810,68,-775,336,439,-1068,600,575,1156,1063,736
712,722,9,-717,351,366,-1029,444,180,834,917,692
629,517,-112,-573,370,202,-932,195,-292,351,639,570
497,258,-239,-378,368,9,-849,-29,-600,-24,361,429
248,48,-200,-148,224,-75,-751,-336,-766,-317,102,263
102,9,-92,-56,97,-41,-673,-546,-775,-395,0,209
43,-4,-48,-19,46,-26,-512,-483,-600,-336,-24,151
14,-58,-73,21,43,-65,-336,-351,-483,-307,-87,73
-14,-82,-68,48,26,-75,-200,-263,-361,-234,-87,34
-34,-92,-58,63,12,-75,-107,-151,-214,-146,-73,19
-34,-102,-68,68,17,-85,-48,-97,-151,-112,-68,-9
-39,-102,-63,70,12,-82,4,-87,-126,-102,-58,-29
-53,-117,-63,85,4,-90,39,-78,-97,-87,-63,-43
-58,-122,-63,90,2,-92,48,-68,-63,-78,-73,-43
-58,-122,-63,90,2,-92,48,-63,-63,-78,-73,-43
-63,-126,-63,95,0,-95,58,-63,-82,-78,-73,-43
-73,-136,-63,104,-4,-100,73,-63,-73,-82,-78,-48
-73,-141,-68,107,-2,-104,78,-58,-63,-82,-78,-48
-73,-146,-73,109,0,-109,78,-58,-63,-82,-78,-43
-73,-146,-73,109,0,-109,73,-53,-63,-82,-78,-39
-73,-151,-78,112,2,-114,73,-53,-63,-78,-78,-43
-73,-151,-78,112,2,-114,78,-53,-53,-73,-73,-43
-73,-151,-78,112,2,-114,78,-48,-48,-68,-68,-39
-73,-156,-82,114,4,-119,82,-43,-43,-68,-63,-29
-73,-156,-82,114,4,-119,82,-43,-43,-68,-58,-24
-78,-165,-87,122,4,-126,82,-43,-39,-63,-63,-24
-82,-161,-78,122,-2,-119,82,-39,-34,-63,-68,-24
-82,-146,-63,114,-9,-104,82,-43,-34,-58,-63,-19
-78,-170,-92,124,7,-131,87,-48,-29,-58,-63,-19
-78,-185,-107,131,14,-146,97,-43,-19,-53,-63,-19
-78,-185,-107,131,14,-146,97,-34,-14,-48,-63,-19
-73,-180,-107,126,17,-143,97,-24,-4,-48,-53,-19
-63,-175,-112,119,24,-143,92,-24,0,-43,-48,-9
-63,-161,-97,112,17,-129,92,-24,0,-43,-48,-9
-63,-161,-97,112,17,-129,92,-29,4,-39,-43,-9
-63,-170,-107,117,21,-139,102,-24,9,-29,-34,-4
-63,-180,-117,122,26,-148,102,-9,19,-29,-19,4
-63,-170,-107,117,21,-139,102,-4,24,-19,-14,4
-58,-170,-112,114,26,-141,102,0,29,-9,-14,9
-58,-170,-112,114,26,-141,107,9,34,-4,-9,9
-58,-161,-102,109,21,-131,107,14,43,0,-4,14
-53,-161,-107,107,26,-134,112,24,48,4,-4,14
-53,-170,-117,112,31,-143,117,34,58,19,-4,19
-43,-161,-117,102,36,-139,122,39,73,34,4,29
-43,-156,-112,100,34,-134,126,43,82,39,9,34
-39,-151,-112,95,36,-131,136,68,92,43,19,39
-34,-151,-117,92,41,-134,141,82,107,53,24,43
-34,-151,-117,92,41,-134,146,102,126,63,39,48
-34,-151,-117,92,41,-134,151,122,136,78,48,53
-34,-136,-102,85,34,-119,156,141,146,92,58,53
-24,-131,-107,78,41,-119,165,170,170,107,68,68
-9,-112,-102,61,46,-107,170,200,190,126,78,78
4,-87,-92,41,48,-90,175,229,214,141,92,78
14,-82,-97,34,56,-90,175,273,244,165,107,82
29,-53,-82,12,56,-68,180,312,268,185,131,92
39,-43,-82,2,61,-63,190,346,302,209,136,102
48,-43,-92,-2,70,-68,200,385,322,234,151,112
58,4,-53,-31,56,-24,200,419,346,248,170,122
68,24,-43,-46,56,-9,195,458,385,278,190,131
82,34,-48,-58,65,-7,214,502,414,307,204,146
102,43,-58,-73,80,-7,219,541,444,331,229,156
112,43,-68,-78,90,-12,224,570,458,351,239,165
126,58,-68,-92,97,-4,229,605,483,375,263,175
141,73,-68,-107,104,2,239,629,507,400,283,185
151,82,-68,-117,109,7,244,658,527,424,297,204
161,97,-63,-129,112,17,244,683,541,439,312,219
175,117,-58,-146,117,29,234,688,546,444,331,229
180,122,-58,-151,119,31,224,683,541,453,336,239
185,131,-53,-158,119,39,209,668,536,453,341,244
180,136,-43,-158,112,46,195,639,522,429,341,244
175,136,-39,-156,107,48,175,585,488,409,336,229
161,122,-39,-141,100,41,161,527,453,385,317,224
141,102,-39,-122,90,31,146,463,405,346,287,214
122,87,-34,-104,78,26,136,400,356,312,268,204
102,58,-43,-80,73,7,117,331,302,263,234,185
73,24,-48,-48,61,-12,102,283,258,224,200,165
48,0,-48,-24,48,-24,92,234,219,185,165,146
39,-29,-68,-4,53,-48,78,175,175,136,136,131
14,-43,-58,14,36,-51,73,126,141,107,117,126
4,-68,-73,31,39,-70,63,92,112,87,97,102
-9,-87,-78,48,34,-82,53,63,87,63,68,92
-24,-112,-87,68,31,-100,53,34,58,43,53,78
-24,-126,-102,75,39,-114,58,4,43,34,43,63
-39,-146,-107,92,34,-126,58,-14,29,9,29,58
-43,-151,-107,97,31,-129,53,-34,19,9,19,53
-48,-156,-107,102,29,-131,58,-39,14,-4,9,53
-48,-161,-112,104,31,-136,53,-43,0,-9,4,39
-53,-170,-117,112,31,-143,53,-58,-9,-14,4,48
-53,-180,-126,117,36,-153,53,-63,-9,-14,0,39
-58,-180,-122,119,31,-151,53,-63,-14,-14,-4,39
-58,-180,-122,119,31,-151,53,-58,-14,-24,-4,39
-58,-185,-126,122,34,-156,53,-63,-14,-24,-4,39
-63,-190,-126,126,31,-158,53,-68,-19,-24,-4,43
-63,-195,-131,129,34,-163,53,-73,-19,-24,-4,48
-63,-195,-131,129,34,-163,48,-78,-19,-24,0,48
-63,-190,-126,126,31,-158,48,-82,-24,-29,0,43
-63,-190,-126,126,31,-158,53,-82,-24,-29,0,43
-63,-190,-126,126,31,-158,53,-82,-24,-29,-4,43
-63,-185,-122,124,29,-153,53,-78,-24,-29,-9,43
-63,-185,-122,124,29,-153,53,-73,-24,-29,-9,43
-58,-185,-126,122,34,-156,58,-68,-24,-29,-9,39
-58,-185,-126,122,34,-156,53,-73,-24,-29,-4,39
-58,-190,-131,124,36,-161,48,-73,-29,-29,-4,39
-58,-190,-131,124,36,-161,48,-78,-29,-29,-4,39
-58,-190,-131,124,36,-161,53,-78,-24,-29,-4,39
-58,-185,-126,122,34,-156,53,-78,-24,-34,-4,39
-58,-180,-122,119,31,-151,53,-78,-24,-39,-4,39
-58,-180,-122,119,31,-151,53,-73,-24,-34,-4,39
-58,-180,-122,119,31,-151,53,-73,-24,-34,-4,43
-58,-180,-122,119,31,-151,48,-68,-19,-34,-4,43
-63,-180,-117,122,26,-148,48,-63,-14,-34,-4,43
-63,-180,-117,122,26,-148,48,-63,-19,-34,-4,43
-63,-175,-112,119,24,-143,48,-63,-19,-34,-4,43
-63,-175,-112,119,24,-143,53,-68,-24,-34,-4,39
-63,-175,-112,119,24,-143,53,-73,-19,-34,-4,34
-63,-175,-112,119,24,-143,53,-73,-19,-34,-4,34
-63,-175,-112,119,24,-143,53,-73,-19,-34,-4,34
-63,-175,-112,119,24,-143,48,-73,-24,-39,-9,34
-68,-175,-107,122,19,-141,48,-68,-24,-39,-9,34
-68,-175,-107,122,19,-141,48,-68,-24,-39,-9,39
-68,-175,-107,122,19,-141,48,-68,-24,-39,-9,39
-63,-170,-107,117,21,-139,43,-68,-24,-39,-9,29
-63,-170,-107,117,21,-139,39,-73,-24,-43,-14,24
-68,-175,-107,122,19,-141,34,-73,-29,-43,-14,24
-68,-175,-107,122,19,-141,34,-78,-34,-48,-19,24
-73,-175,-102,124,14,-139,34,-78,-34,-48,-19,24
-73,-175,-102,124,14,-139,34,-78,-34,-48,-14,19
-68,-175,-107,122,19,-141,34,-82,-34,-48,-14,24
-68,-175,-107,122,19,-141,34,-82,-34,-53,-14,24
-68,-175,-107,122,19,-141,34,-82,-39,-53,-24,14
-63,-170,-107,117,21,-139,34,-82,-39,-58,-29,9
-63,-175,-112,119,24,-143,34,-82,-39,-58,-29,9
-63,-175,-112,119,24,-143,34,-82,-43,-58,-34,9
-63,-175,-112,119,24,-143,34,-87,-48,-58,-34,9
-63,-175,-112,119,24,-143,34,-87,-53,-58,-29,9
-63,-170,-107,117,21,-139,29,-87,-53,-58,-34,9
-63,-161,-97,112,17,-129,24,-87,-48,-63,-39,9
-63,-156,-92,109,14,-124,29,-92,-48,-63,-34,9
-63,-141,-78,102,7,-109,29,-92,-43,-58,-34,9
-63,-136,-73,100,4,-104,34,-92,-43,-58,-29,4
-58,-122,-63,90,2,-92,43,-92,-39,-48,-29,4
-63,-126,-63,95,0,-95,53,-87,-29,-48,-24,19
-63,-112,-48,87,-7,-80,53,-87,-24,-43,-19,29
-53,-102,-48,78,-2,-75,53,-78,-19,-34,-14,29
-48,-97,-48,73,0,-73,58,-68,-19,-29,-9,29
-48,-97,-48,73,0,-73,58,-68,-19,-29,-9,29
-48,-97,-48,73,0,-73,58,-68,-19,-29,-9,29
-48,-102,-53,75,2,-78,58,-68,-19,-29,-9,29
-48,-92,-43,70,-2,-68,48,-68,-9,-19,0,34
-48,-87,-39,68,-4,-63,43,-73,-4,-14,9,43
-39,-63,-24,51,-7,-43,29,-82,9,0,29,68
-19,-14,4,17,-12,-4,14,-82,14,9,34,78
-9,0,9,4,-9,4,4,-78,19,14,34,82
-9,-4,4,7,-7,0,0,-78,24,14,34,87
0,-14,-14,7,7,-14,-14,-78,14,9,34,87
14,-14,-29,0,21,-21,-19,-78,4,9,39,82
14,-24,-39,4,26,-31,-19,-78,-9,4,24,73
14,-48,-63,17,39,-56,-24,-82,-34,-24,14,58
4,-63,-68,29,36,-65,-24,-87,-43,-39,0,48
-9,-73,-63,41,26,-68,-24,-87,-43,-39,-4,43
-24,-82,-58,53,17,-70,-19,-87,-48,-43,-9,34
-34,-107,-73,70,19,-90,-9,-97,-48,-53,-14,24
-48,-131,-82,90,17,-107,0,-102,-58,-63,-19,19
-58,-141,-82,100,12,-112,4,-102,-68,-73,-29,4
-58,-151,-92,104,17,-122,4,-102,-73,-78,-39,-9
-58,-156,-97,107,19,-126,4,-102,-82,-87,-53,-19
-68,-170,-102,119,17,-136,9,-102,-97,-97,-68,-29
-73,-170,-97,122,12,-134,9,-102,-97,-97,-68,-29
-73,-170,-97,122,12,-134,9,-107,-97,-97,-63,-29
-73,-175,-102,124,14,-139,14,-107,-97,-97,-63,-29
-73,-185,-112,129,19,-148,14,-107,-102,-102,-73,-34
-78,-190,-112,134,17,-151,14,-107,-102,-107,-73,-34
-78,-190,-112,134,17,-151,14,-107,-102,-107,-73,-34
-73,-185,-112,129,19,-148,14,-107,-107,-102,-82,-34
-68,-180,-112,124,21,-146,19,-112,-107,-102,-87,-39
-73,-185,-112,129,19,-148,19,-112,-107,-107,-87,-43
-78,-185,-107,131,14,-146,19,-117,-107,-112,-87,-43
-82,-185,-102,134,9,-143,19,-117,-107,-117,-87,-48
-87,-180,-92,134,2,-136,19,-117,-107,-122,-87,-53
-82,-180,-97,131,7,-139,24,-122,-107,-122,-87,-48
-82,-180,-97,131,7,-139,24,-126,-107,-122,-92,-48
-82,-180,-97,131,7,-139,24,-126,-112,-122,-92,-48
-87,-185,-97,136,4,-141,24,-131,-112,-122,-92,-48
-87,-185,-97,136,4,-141,24,-131,-117,-122,-87,-53
-82,-180,-97,131,7,-139,24,-126,-122,-122,-87,-58
-82,-180,-97,131,7,-139,24,-126,-122,-126,-87,-58
-87,-180,-92,134,2,-136,24,-126,-117,-131,-87,-58
-87,-175,-87,131,0,-131,24,-126,-117,-126,-92,-58
-87,-170,-82,129,-2,-126,24,-126,-117,-126,-97,-58
-82,-170,-87,126,2,-129,24,-126,-117,-126,-97,-53
-82,-170,-87,126,2,-129,24,-126,-117,-126,-97,-53
-87,-180,-92,134,2,-136,34,-126,-126,-141,-107,-73
-97,-180,-82,139,-7,-131,39,-126,-131,-151,-122,-82
-122,-200,-78,161,-21,-139,19,-175,-161,-200,-165,-102
-117,-161,-43,139,-36,-102,-14,-136,-73,-117,-122,-78
-34,-68,-34,51,0,-51,-19,102,180,63,-19,-24
87,58,-29,-73,58,14,-151,278,390,283,151,73
287,331,43,-309,122,187,-463,370,639,683,483,283
488,644,156,-566,165,400,-795,434,839,1117,858,541
634,873,239,-753,197,556,-1019,517,936,1395,1166,751
692,922,229,-807,231,575,-1107,448,673,1283,1200,819
683,785,102,-734,290,444,-1029,268,126,800,961,756
614,551,-63,-583,339,244,-946,78,-307,361,673,634
361,209,-151,-285,256,29,-858,-273,-688,-141,287,395
170,68,-102,-119,136,-17,-785,-556,-854,-395,87,287
73,43,-29,-58,51,7,-653,-580,-727,-390,24,219
24,-19,-43,-2,34,-31,-507,-507,-639,-385,-68,126
-4,-63,-58,34,26,-61,-336,-405,-497,-312,-82,73
-29,-92,-63,61,17,-78,-200,-268,-326,-224,-82,48
-24,-87,-63,56,19,-75,-117,-175,-234,-170,-63,19
-24,-82,-58,53,17,-70,-53,-136,-185,-141,-48,-4
-43,-102,-58,73,7,-80,-9,-126,-146,-122,-63,-29
-48,-102,-53,75,2,-78,14,-117,-102,-107,-73,-34
-53,-102,-48,78,-2,-75,19,-112,-97,-107,-73,-34
-63,-102,-39,82,-12,-70,29,-112,-112,-107,-73,-34
-73,-102,-29,87,-21,-65,43,-112,-102,-112,-82,-39
-73,-102,-29,87,-21,-65,48,-107,-92,-112,-87,-43
-73,-107,-34,90,-19,-70,53,-102,-92,-112,-87,-43
-73,-107,-34,90,-19,-70,53,-92,-92,-112,-87,-43
-73,-112,-39,92,-17,-75,53,-87,-92,-112,-87,-58
-73,-112,-39,92,-17,-75,58,-82,-82,-112,-87,-63
-73,-102,-29,87,-21,-65,63,-78,-78,-107,-87,-58
-73,-92,-19,82,-26,-56,68,-73,-73,-107,-82,-53
-73,-97,-24,85,-24,-61,63,-73,-78,-107,-78,-53
-73,-107,-34,90,-19,-70,63,-73,-78,-102,-78,-53
-73,-92,-19,82,-26,-56,58,-68,-73,-107,-82,-53
-73,-78,-4,75,-34,-41,53,-68,-73,-107,-82,-48
-68,-97,-29,82,-19,-63,53,-68,-68,-107,-82,-48
-68,-107,-39,87,-14,-73,58,-63,-63,-102,-82,-48
-68,-107,-39,87,-14,-73,58,-58,-63,-97,-82,-48
-68,-102,-34,85,-17,-68,63,-53,-53,-92,-73,-48
-63,-97,-34,80,-14,-65,63,-53,-48,-82,-68,-39
-63,-82,-19,73,-21,-51,63,-48,-48,-82,-68,-39
-63,-78,-14,70,-24,-46,63,-53,-43,-82,-68,-43
-63,-82,-19,73,-21,-51,73,-53,-39,-78,-73,-48
-63,-92,-29,78,-17,-61,73,-39,-34,-78,-68,-48
-63,-82,-19,73,-21,-51,73,-34,-34,-73,-63,-53
-58,-82,-24,70,-17,-53,73,-29,-29,-68,-63,-48
-58,-78,-19,68,-19,-48,78,-19,-19,-63,-58,-48
-58,-63,-4,61,-26,-34,73,-14,-9,-58,-53,-43
-53,-63,-9,58,-21,-36,73,-4,-9,-53,-53,-43
-53,-78,-24,65,-14,-51,78,4,0,-43,-58,-39
-43,-68,-24,56,-9,-46,78,9,14,-34,-48,-29
-43,-58,-14,51,-14,-36,78,9,24,-29,-43,-29
-39,-53,-14,46,-12,-34,87,34,34,-24,-39,-29
-34,-43,-9,39,-12,-26,87,53,48,-14,-34,-24
-29,-34,-4,31,-12,-19,92,73,68,-4,-24,-24
-29,-29,0,29,-14,-14,102,92,73,9,-19,-24
-34,-24,9,29,-21,-7,107,112,82,24,-9,-24
-24,-34,-9,29,-7,-21,117,131,107,39,0,-9
-14,-24,-9,19,-2,-17,126,156,122,58,9,0
-4,-9,-4,7,0,-7,136,185,146,68,24,0
4,4,0,-4,2,2,141,224,175,87,34,0
19,43,24,-31,-2,34,151,263,200,107,53,4
29,53,24,-41,2,39,161,297,229,131,58,14
43,34,-9,-39,26,12,170,336,244,156,73,24
58,63,4,-61,26,34,175,370,268,170,92,34
68,97,29,-82,19,63,175,409,307,200,112,43
78,112,34,-95,21,73,195,453,336,224,122,53
92,112,19,-102,36,65,200,492,366,244,141,63
102,126,24,-114,39,75,204,527,380,263,151,73
117,156,39,-136,39,97,209,566,405,287,175,78
131,170,39,-151,46,104,219,595,429,307,190,87
146,175,29,-161,58,102,224,629,448,331,200,107
161,190,29,-175,65,109,224,658,463,351,209,117
175,214,39,-195,68,126,219,678,473,356,229,122
180,224,43,-202,68,134,219,688,478,366,239,126
185,239,53,-212,65,146,209,683,483,380,248,136
185,248,63,-217,61,156,195,663,478,375,253,146
185,248,63,-217,61,156,180,624,453,361,253,131
175,248,73,-212,51,161,161,575,424,341,248,131
161,248,87,-204,36,168,136,512,380,307,229,126
146,234,87,-190,29,161,117,444,336,273,209,126
131,219,87,-175,21,153,87,370,287,224,175,117
102,195,92,-148,4,143,73,302,239,185,146,97
78,170,92,-124,-7,131,63,234,190,146,117,73
68,146,78,-107,-4,112,43,170,141,102,87,48
43,131,87,-87,-21,109,34,112,102,73,68,39
29,107,78,-68,-24,92,24,68,73,48,48,14
9,87,78,-48,-34,82,14,29,43,24,14,4
-4,63,68,-29,-36,65,9,-4,9,0,-4,-4
-4,48,53,-21,-29,51,4,-34,-4,-14,-14,-14
-19,29,48,-4,-34,39,0,-53,-19,-43,-29,-19
-29,24,53,2,-41,39,-4,-78,-34,-48,-39,-24
-39,19,58,9,-48,39,-4,-87,-43,-63,-48,-34
-39,19,58,9,-48,39,-14,-92,-58,-73,-53,-68
-43,14,58,14,-51,36,-14,-107,-68,-82,-53,-58
-43,4,48,19,-46,26,-14,-112,-73,-82,-58,-58
-48,4,53,21,-51,29,-14,-117,-82,-82,-63,-58
-48,4,53,21,-51,29,-14,-117,-82,-92,-68,-58
-48,4,53,21,-51,29,-14,-122,-82,-92,-73,-63
-53,4,58,24,-56,31,-14,-126,-87,-92,-73,-63
-53,0,53,26,-53,26,-14,-126,-87,-92,-78,-63
-53,0,53,26,-53,26,-19,-126,-87,-87,-78,-63
-53,0,53,26,-53,26,-19,-126,-92,-87,-78,-63
-53,-4,48,29,-51,21,-14,-126,-92,-87,-78,-63
-53,-9,43,31,-48,17,-14,-131,-92,-87,-78,-63
-53,-4,48,29,-51,21,-14,-126,-87,-92,-82,-63
-53,0,53,26,-53,26,-14,-126,-82,-97,-87,-63
-48,4,53,21,-51,29,-9,-117,-82,-97,-87,-63
-48,9,58,19,-53,34,-9,-117,-82,-97,-82,-58
-48,4,53,21,-51,29,-9,-122,-87,-97,-82,-58
-48,4,53,21,-51,29,-9,-126,-87,-97,-82,-58
-48,4,53,21,-51,29,-4,-126,-87,-97,-82,-63
-48,4,53,21,-51,29,-4,-126,-92,-97,-82,-68
-48,4,53,21,-51,29,-9,-126,-92,-97,-82,-68
-48,4,53,21,-51,29,-14,-122,-92,-92,-82,-68
-48,4,53,21,-51,29,-14,-122,-92,-92,-82,-63
-48,4,53,21,-51,29,-14,-122,-92,-92,-82,-63
-53,4,58,24,-56,31,-9,-122,-92,-97,-82,-63
-53,0,53,26,-53,26,-9,-122,-97,-102,-82,-63
-53,0,53,26,-53,26,-9,-117,-97,-102,-82,-68
-53,0,53,26,-53,26,-4,-117,-97,-102,-82,-73
-53,4,58,24,-56,31,-4,-122,-87,-97,-82,-73
-53,9,63,21,-58,36,-4,-122,-87,-92,-82,-73
-53,9,63,21,-58,36,-4,-122,-87,-92,-82,-73
-53,9,63,21,-58,36,-9,-126,-92,-97,-87,-73
-58,9,68,24,-63,39,-9,-126,-92,-97,-87,-73
-58,9,68,24,-63,39,-9,-126,-92,-97,-87,-68
-58,9,68,24,-63,39,-9,-126,-92,-97,-87,-68
-53,14,68,19,-61,41,-9,-126,-92,-97,-87,-73
-53,14,68,19,-61,41,-9,-131,-92,-102,-92,-73
-58,9,68,24,-63,39,-14,-131,-97,-102,-92,-73
-58,9,68,24,-63,39,-14,-136,-102,-107,-97,-78
-63,9,73,26,-68,41,-14,-136,-102,-107,-97,-78
-63,9,73,26,-68,41,-14,-136,-102,-107,-92,-78
-58,9,68,24,-63,39,-14,-141,-102,-107,-92,-73
-53,14,68,19,-61,41,-14,-141,-102,-112,-92,-73
-53,14,68,19,-61,41,-14,-146,-107,-112,-97,-78
-53,14,68,19,-61,41,-19,-151,-107,-117,-97,-78
-53,9,63,21,-58,36,-24,-151,-107,-117,-97,-78
-58,9,68,24,-63,39,-24,-151,-112,-117,-107,-78
-63,9,73,26,-68,41,-24,-156,-112,-117,-112,-78
-63,4,68,29,-65,36,-24,-156,-117,-122,-107,-78
-63,0,63,31,-63,31,-24,-156,-122,-122,-107,-78
-63,0,63,31,-63,31,-24,-151,-117,-122,-112,-78
-63,-4,58,34,-61,26,-19,-151,-117,-122,-112,-78
-63,-4,58,34,-61,26,-19,-151,-117,-122,-112,-78
-63,-9,53,36,-58,21,-19,-151,-122,-126,-107,-82
-63,4,68,29,-65,36,-19,-151,-117,-117,-107,-87
-68,4,73,31,-70,39,-14,-146,-107,-117,-102,-78
-63,34,97,14,-80,65,-14,-146,-102,-107,-92,-73
-63,53,117,4,-90,85,-9,-146,-92,-102,-87,-63
-58,53,112,2,-85,82,-4,-146,-87,-97,-82,-58
-48,63,112,-7,-80,87,-4,-146,-78,-92,-82,-53
-48,68,117,-9,-82,92,0,-141,-73,-87,-78,-48
-48,78,126,-14,-87,102,4,-136,-68,-87,-78,-48
-39,78,117,-19,-78,97,0,-131,-68,-87,-78,-43
-29,78,107,-24,-68,92,0,-126,-68,-87,-78,-39
-29,87,117,-29,-73,102,0,-131,-68,-82,-78,-39
-29,97,126,-34,-78,112,0,-136,-68,-78,-78,-39
-24,112,136,-43,-80,124,-9,-141,-63,-73,-68,-34
-9,131,141,-61,-75,136,-24,-146,-53,-58,-53,-19
0,156,156,-78,-78,156,-39,-151,-48,-48,-39,-4
9,175,165,-92,-78,170,-53,-151,-48,-43,-34,-4
9,165,156,-87,-73,161,-63,-141,-48,-43,-39,-4
9,161,151,-85,-70,156,-68,-136,-48,-43,-43,-4
14,146,131,-80,-58,139,-82,-136,-63,-53,-43,-14
24,141,117,-82,-46,129,-87,-136,-73,-68,-43,-24
24,131,107,-78,-41,119,-87,-141,-87,-82,-63,-34
19,107,87,-63,-34,97,-92,-151,-107,-102,-73,-48
4,92,87,-48,-41,90,-82,-156,-112,-107,-82,-53
-9,82,92,-36,-51,87,-68,-156,-112,-107,-82,-53
-24,73,97,-24,-61,85,-58,-156,-122,-112,-87,-63
-34,53,87,-9,-61,70,-48,-165,-126,-122,-97,-73
-48,34,82,7,-65,58,-43,-170,-136,-131,-107,-78
-58,24,82,17,-70,53,-43,-170,-146,-141,-117,-87
-58,14,73,21,-65,43,-43,-170,-146,-146,-126,-97
-58,4,63,26,-61,34,-43,-170,-146,-156,-136,-107
-68,-9,58,39,-63,24,-39,-170,-156,-165,-146,-117
-73,-4,68,39,-70,31,-39,-170,-156,-165,-146,-117
-73,-4,68,39,-70,31,-39,-175,-156,-165,-141,-117
-73,-4,68,39,-70,31,-34,-175,-156,-165,-141,-117
-73,-9,63,41,-68,26,-34,-180,-161,-170,-151,-122
-78,-14,63,46,-70,24,-34,-185,-161,-175,-151,-122
-78,-14,63,46,-70,24,-34,-185,-161,-175,-151,-122
-78,-14,63,46,-70,24,-34,-185,-165,-170,-156,-122
-78,-14,63,46,-70,24,-34,-190,-165,-170,-156,-126
-82,-19,63,51,-73,21,-39,-190,-165,-175,-156,-131
-87,-19,68,53,-78,24,-39,-195,-165,-180,-156,-131
-87,-19,68,53,-78,24,-39,-195,-165,-180,-156,-131
-87,-14,73,51,-80,29,-39,-190,-165,-180,-156,-131
-82,-14,68,48,-75,26,-34,-185,-165,-180,-156,-126
-82,-14,68,48,-75,26,-34,-185,-165,-180,-161,-126
-82,-14,68,48,-75,26,-34,-185,-170,-180,-161,-126
-87,-19,68,53,-78,24,-29,-190,-170,-180,-161,-126
-87,-19,68,53,-78,24,-24,-190,-170,-180,-156,-126
-82,-14,68,48,-75,26,-24,-190,-170,-180,-156,-126
-82,-14,68,48,-75,26,-24,-195,-170,-180,-156,-126
-87,-9,78,48,-82,34,-29,-195,-165,-180,-156,-126
-87,-4,82,46,-85,39,-34,-195,-165,-175,-156,-126
-87,-4,82,46,-85,39,-34,-195,-165,-175,-161,-126
-82,-4,78,43,-80,36,-34,-195,-165,-175,-165,-122
-82,-4,78,43,-80,36,-34,-195,-165,-175,-165,-122
-87,-14,73,51,-80,29,-34,-195,-165,-180,-170,-131
-92,-4,87,48,-90,41,-53,-175,-146,-170,-170,-126
-78,14,92,31,-85,53,-107,-141,-92,-136,-151,-117
-19,102,122,-41,-70,112,-180,-29,63,39,-34,-53
112,248,136,-180,-12,192,-278,209,317,283,131,48
263,409,146,-336,58,278,-497,366,507,531,346,180
463,658,195,-561,134,427,-810,439,663,858,658,380
653,893,239,-773,207,566,-1078,478,712,1146,946,585
732,946,214,-839,258,580,-1146,492,575,1127,1015,658
727,829,102,-778,312,466,-1122,366,156,780,849,600
668,595,-73,-631,370,261,-1039,146,-341,273,551,463
531,356,-175,-444,353,90,-956,-97,-653,-92,283,336
278,165,-112,-222,195,26,-858,-424,-824,-375,34,185
126,131,4,-129,61,68,-756,-629,-834,-453,-63,141
63,122,58,-92,2,90,-570,-561,-658,-395,-82,92
34,78,43,-56,-4,61,-400,-429,-527,-356,-136,19
4,63,58,-34,-26,61,-268,-341,-390,-273,-126,-14
-19,53,73,-17,-46,63,-165,-224,-258,-195,-112,-29
-24,43,68,-9,-46,56,-97,-165,-209,-170,-107,-58
-34,39,73,-2,-53,56,-43,-161,-190,-165,-107,-78
-53,19,73,17,-63,46,-9,-156,-165,-156,-122,-92
-58,14,73,21,-65,43,0,-146,-131,-146,-131,-92
-58,14,73,21,-65,43,0,-141,-131,-146,-131,-92
-63,9,73,26,-68,41,9,-141,-146,-141,-131,-92
-73,0,73,36,-73,36,24,-141,-131,-141,-136,-97
-73,-4,68,39,-70,31,29,-131,-122,-141,-131,-102
-73,-9,63,41,-68,26,29,-126,-122,-141,-126,-102
-73,-9,63,41,-68,26,24,-122,-122,-141,-126,-102
-73,-14,58,43,-65,21,24,-122,-122,-136,-126,-112
-73,-14,58,43,-65,21,29,-122,-112,-131,-126,-112
-73,-14,58,43,-65,21,29,-117,-107,-126,-126,-107
-73,-14,58,43,-65,21,34,-112,-107,-126,-126,-102
-73,-9,63,41,-68,26,34,-112,-112,-126,-126,-102
-73,-24,48,48,-61,12,34,-112,-107,-122,-126,-102
-73,-24,48,48,-61,12,34,-107,-102,-122,-126,-102
-73,0,73,36,-73,36,29,-107,-102,-117,-122,-97
-68,-14,53,41,-61,19,29,-107,-97,-117,-122,-97
-68,-29,39,48,-53,4,39,-107,-92,-117,-122,-97
-68,-29,39,48,-53,4,39,-102,-92,-117,-122,-97
-68,-34,34,51,-51,0,43,-92,-82,-112,-112,-97
-63,-39,24,51,-43,-7,43,-92,-78,-102,-107,-87
-63,-24,39,43,-51,7,43,-87,-78,-102,-102,-87
-63,-24,39,43,-51,7,43,-87,-73,-97,-92,-87
-63,-34,29,48,-46,-2,53,-82,-68,-87,-92,-82
-63,-43,19,53,-41,-12,53,-68,-58,-87,-87,-73
-63,-34,29,48,-46,-2,53,-63,-53,-82,-82,-73
-58,-34,24,46,-41,-4,53,-58,-48,-78,-82,-68
-58,-34,24,46,-41,-4,58,-48,-39,-73,-78,-68
-58,-24,34,41,-46,4,58,-43,-24,-68,-73,-63
-53,-24,29,39,-41,2,63,-34,-19,-63,-73,-63
-53,-34,19,43,-36,-7,68,-24,-9,-48,-73,-58
-39,-19,19,29,-29,0,73,-14,4,-29,-58,-53
-34,-9,24,21,-29,7,78,-4,14,-19,-48,-53
-29,-4,24,17,-26,9,87,24,24,-14,-39,-48
-24,-4,19,14,-21,7,92,43,39,-4,-34,-43
-24,-4,19,14,-21,7,102,68,58,4,-24,-43
-24,-4,19,14,-21,7,112,92,68,19,-19,-43
-24,4,29,9,-26,17,117,112,82,34,-9,-43
-14,4,19,4,-17,12,126,141,112,48,0,-29
-4,14,19,-4,-12,17,136,175,131,68,9,-19
4,29,24,-17,-9,26,146,209,156,82,24,-19
14,24,9,-19,2,17,156,253,185,107,34,-19
29,43,14,-36,7,29,170,292,209,126,53,-14
39,48,9,-43,14,29,185,331,239,151,58,-4
48,43,-4,-46,26,19,200,375,253,175,73,4
63,92,29,-78,17,61,209,419,278,190,92,14
78,112,34,-95,21,73,214,468,317,219,112,24
87,112,24,-100,31,68,234,512,346,244,122,34
102,112,9,-107,46,61,239,551,375,263,141,39
112,122,9,-117,51,65,244,590,390,283,151,43
126,146,19,-136,53,82,248,634,414,307,175,48
141,161,19,-151,61,90,258,663,439,326,190,58
151,170,19,-161,65,95,263,697,458,346,200,78
161,185,24,-173,68,104,268,722,473,361,209,87
175,204,29,-190,73,117,263,727,478,366,224,92
180,204,24,-192,78,114,258,717,473,375,229,102
185,209,24,-197,80,117,248,697,468,375,234,107
185,214,29,-200,78,122,229,663,453,351,229,112
185,214,29,-200,78,122,204,605,419,331,219,102
175,214,39,-195,68,126,180,536,385,312,209,102
161,209,48,-185,56,129,156,463,336,278,190,97
141,195,53,-168,43,124,131,395,287,244,175,92
122,165,43,-143,39,104,97,322,234,195,146,78
92,131,39,-112,26,85,82,253,185,156,117,58
68,107,39,-87,14,73,73,185,141,117,87,39
58,78,19,-68,19,48,48,122,92,73,58,19
34,63,29,-48,2,46,34,68,53,48,39,9
24,43,19,-34,2,31,24,29,29,34,24,-9
9,29,19,-19,-4,24,14,-4,9,14,0,-14
-4,14,19,-4,-12,17,4,-39,-19,-9,-14,-24
-4,9,14,-2,-9,12,0,-73,-34,-24,-24,-34
-19,-9,9,14,-14,0,0,-92,-48,-48,-34,-39
-24,-14,9,19,-17,-2,-4,-112,-58,-48,-39,-43
-34,-19,14,26,-24,-2,0,-117,-63,-63,-48,-43
-39,-24,14,31,-26,-4,-4,-122,-78,-68,-53,-58
-43,-34,9,39,-26,-12,-4,-136,-87,-73,-58,-48
-43,-43,0,43,-21,-21,-4,-141,-87,-73,-68,-58
-43,-43,0,43,-21,-21,-4,-146,-92,-73,-73,-58
-39,-43,-4,41,-17,-24,-4,-146,-92,-82,-73,-58
-39,-43,-4,41,-17,-24,-4,-151,-92,-82,-73,-63
-43,-43,0,43,-21,-21,-4,-156,-97,-82,-73,-63
-43,-48,-4,46,-19,-26,-4,-156,-97,-82,-78,-63
-43,-48,-4,46,-19,-26,-9,-156,-97,-82,-78,-68
-43,-43,0,43,-21,-21,-9,-161,-102,-87,-78,-73
-43,-43,0,43,-21,-21,-4,-161,-102,-87,-78,-73
-43,-48,-4,46,-19,-26,-4,-161,-102,-87,-78,-68
-43,-48,-4,46,-19,-26,-4,-156,-102,-87,-78,-63
-48,-48,0,48,-24,-24,-4,-151,-102,-87,-82,-63
-48,-48,0,48,-24,-24,0,-146,-102,-87,-87,-68
-48,-48,0,48,-24,-24,-4,-151,-102,-92,-82,-68
-48,-53,-4,51,-21,-29,-9,-151,-107,-97,-82,-68
-48,-48,0,48,-24,-24,-9,-156,-107,-97,-82,-68
-48,-43,4,46,-26,-19,-4,-156,-102,-97,-82,-68
-48,-43,4,46,-26,-19,-4,-156,-102,-97,-82,-68
-48,-43,4,46,-26,-19,-4,-156,-102,-97,-82,-68
-48,-39,9,43,-29,-14,-4,-151,-102,-92,-82,-73
-48,-34,14,41,-31,-9,-4,-151,-102,-92,-82,-73
-43,-29,14,36,-29,-7,-9,-151,-102,-92,-82,-73
-43,-24,19,34,-31,-2,-9,-151,-102,-92,-82,-73
-43,-29,14,36,-29,-7,-9,-151,-107,-97,-87,-73
-43,-29,14,36,-29,-7,-4,-156,-107,-102,-92,-73
-43,-29,14,36,-29,-7,-4,-156,-107,-102,-92,-73
