I, II, III, aVR, aVL, aVF, V1, V2, V3, V4, V5, V6
48,107,58,-78,-4,82,-68,9,195,146,126,78
48,107,58,-78,-4,82,-68,9,195,146,126,78
48,107,58,-78,-4,82,-68,9,195,146,126,78
48,107,58,-78,-4,82,-68,9,195,146,126,78
43,92,48,-68,-2,70,-63,0,180,126,117,73
39,87,48,-63,-4,68,-58,0,165,117,107,68
34,82,48,-58,-7,65,-53,0,151,107,97,63
29,78,48,-53,-9,63,-48,0,136,97,87,58
24,68,43,-46,-9,56,-39,-4,122,87,78,43
19,58,39,-39,-9,48,-39,-9,107,78,68,39
14,48,34,-31,-9,41,-39,-14,92,68,58,34
9,39,29,-24,-9,34,-39,-19,78,58,48,29
0,24,24,-12,-12,24,-39,-29,58,48,34,24
0,19,19,-9,-9,19,-39,-29,48,39,29,19
0,14,14,-7,-7,14,-39,-29,39,29,24,14
0,9,9,-4,-4,9,-39,-29,29,19,19,9
-4,4,9,0,-7,7,-29,-29,14,4,14,0
-9,0,9,4,-9,4,-29,-29,9,0,9,0
-14,-4,9,9,-12,2,-29,-29,4,-4,4,0
-19,-9,9,14,-14,0,-29,-29,0,-9,0,0
-24,-24,0,24,-12,-12,-24,-29,-14,-14,-4,-4
-29,-29,0,29,-14,-14,-19,-29,-19,-19,-9,-9
-34,-34,0,34,-17,-17,-14,-29,-24,-24,-14,-14
-39,-39,0,39,-19,-19,-9,-29,-29,-29,-19,-19
-29,-48,-19,39,-4,-34,0,-39,-34,-34,-24,-19
-29,-48,-19,39,-4,-34,0,-39,-39,-39,-29,-19
-29,-48,-19,39,-4,-34,0,-39,-43,-43,-34,-19
-29,-48,-19,39,-4,-34,0,-39,-48,-48,-39,-19
-29,-48,-19,39,-4,-34,0,-29,-58,-58,-48,-29
-29,-48,-19,39,-4,-34,0,-29,-58,-58,-48,-29
-29,-48,-19,39,-4,-34,0,-29,-58,-58,-48,-29
-29,-48,-19,39,-4,-34,0,-29,-58,-58,-48,-29
-29,-58,-29,43,0,-43,-9,-29,-68,-58,-48,-39
-29,-58,-29,43,0,-43,-9,-29,-68,-58,-48,-39
-29,-58,-29,43,0,-43,-9,-29,-68,-58,-48,-39
-29,-58,-29,43,0,-43,-9,-29,-68,-58,-48,-39
-39,-58,-19,48,-9,-39,0,-29,-68,-58,-48,-39
-39,-58,-19,48,-9,-39,0,-29,-68,-58,-48,-39
-39,-58,-19,48,-9,-39,0,-29,-68,-58,-48,-39
-39,-58,-19,48,-9,-39,0,-29,-68,-58,-48,-39
-29,-58,-29,43,0,-43,0,-39,-78,-68,-58,-39
-29,-58,-29,43,0,-43,0,-39,-78,-68,-58,-39
-29,-58,-29,43,0,-43,0,-39,-78,-68,-58,-39
-29,-58,-29,43,0,-43,0,-39,-78,-68,-58,-39
-39,-63,-24,51,-7,-43,0,-39,-78,-68,-58,-39
-39,-68,-29,53,-4,-48,0,-39,-78,-68,-58,-39
-39,-73,-34,56,-2,-53,0,-39,-78,-68,-58,-39
-39,-78,-39,58,0,-58,0,-39,-78,-68,-58,-39
-39,-68,-29,53,-4,-48,9,-39,-68,-68,-58,-39
-39,-68,-29,53,-4,-48,9,-39,-68,-68,-58,-39
-39,-68,-29,53,-4,-48,9,-39,-68,-68,-58,-39
-39,-68,-29,53,-4,-48,9,-39,-68,-68,-58,-39
-48,-68,-19,58,-14,-43,9,-29,-78,-68,-48,-39
-48,-68,-19,58,-14,-43,9,-29,-78,-68,-48,-39
-48,-68,-19,58,-14,-43,9,-29,-78,-68,-48,-39
-48,-68,-19,58,-14,-43,9,-29,-78,-68,-48,-39
-39,-68,-29,53,-4,-48,9,-39,-78,-68,-58,-39
-39,-68,-29,53,-4,-48,9,-39,-78,-68,-58,-39
-39,-68,-29,53,-4,-48,9,-39,-78,-68,-58,-39
-39,-68,-29,53,-4,-48,9,-39,-78,-68,-58,-39
-39,-68,-29,53,-4,-48,9,-39,-78,-58,-48,-39
-39,-68,-29,53,-4,-48,9,-39,-78,-58,-48,-39
-39,-68,-29,53,-4,-48,9,-39,-78,-58,-48,-39
-39,-68,-29,53,-4,-48,9,-39,-78,-58,-48,-39
-39,-68,-29,53,-4,-48,9,-29,-78,-58,-48,-39
-39,-68,-29,53,-4,-48,9,-29,-78,-58,-48,-39
-39,-68,-29,53,-4,-48,9,-29,-78,-58,-48,-39
-39,-68,-29,53,-4,-48,9,-29,-78,-58,-48,-39
-48,-78,-29,63,-9,-53,19,-29,-68,-58,-48,-39
-48,-78,-29,63,-9,-53,19,-29,-68,-58,-48,-39
-48,-78,-29,63,-9,-53,19,-29,-68,-58,-48,-39
-48,-78,-29,63,-9,-53,19,-29,-68,-58,-48,-39
-43,-68,-24,56,-9,-46,9,-39,-68,-58,-48,-39
-39,-68,-29,53,-4,-48,9,-39,-68,-58,-48,-39
-34,-68,-34,51,0,-51,9,-39,-68,-58,-48,-39
-29,-68,-39,48,4,-53,9,-39,-68,-58,-48,-39
-39,-58,-19,48,-9,-39,19,-29,-58,-48,-39,-39
-39,-58,-19,48,-9,-39,19,-29,-58,-48,-39,-39
-39,-58,-19,48,-9,-39,19,-29,-58,-48,-39,-39
-39,-58,-19,48,-9,-39,19,-29,-58,-48,-39,-39
-39,-68,-29,53,-4,-48,9,-39,-68,-58,-48,-39
-39,-68,-29,53,-4,-48,9,-39,-68,-58,-48,-39
-39,-68,-29,53,-4,-48,9,-39,-68,-58,-48,-39
-39,-68,-29,53,-4,-48,9,-39,-68,-58,-48,-39
-29,-58,-29,43,0,-43,19,-29,-68,-58,-48,-29
-29,-58,-29,43,0,-43,19,-29,-68,-58,-48,-29
-29,-58,-29,43,0,-43,19,-29,-68,-58,-48,-29
-29,-58,-29,43,0,-43,19,-29,-68,-58,-48,-29
-39,-68,-29,53,-4,-48,9,-39,-68,-58,-48,-39
-39,-68,-29,53,-4,-48,9,-39,-68,-58,-48,-39
-39,-68,-29,53,-4,-48,9,-39,-68,-58,-48,-39
-39,-68,-29,53,-4,-48,9,-39,-68,-58,-48,-39
-39,-68,-29,53,-4,-48,19,-29,-68,-58,-39,-39
-39,-68,-29,53,-4,-48,19,-29,-68,-58,-39,-39
-39,-68,-29,53,-4,-48,19,-29,-68,-58,-39,-39
-39,-68,-29,53,-4,-48,19,-29,-68,-58,-39,-39
-39,-58,-19,48,-9,-39,29,-29,-58,-48,-39,-29
-39,-58,-19,48,-9,-39,29,-29,-58,-48,-39,-29
-39,-58,-19,48,-9,-39,29,-29,-58,-48,-39,-29
-39,-58,-19,48,-9,-39,29,-29,-58,-48,-39,-29
-39,-58,-19,48,-9,-39,29,-19,-58,-48,-39,-29
-39,-58,-19,48,-9,-39,29,-19,-58,-48,-39,-29
-39,-58,-19,48,-9,-39,29,-19,-58,-48,-39,-29
-39,-58,-19,48,-9,-39,29,-19,-58,-48,-39,-29
-29,-58,-29,43,0,-43,19,-29,-68,-58,-48,-29
-29,-58,-29,43,0,-43,19,-29,-68,-58,-48,-29
-29,-58,-29,43,0,-43,19,-29,-68,-58,-48,-29
-29,-58,-29,43,0,-43,19,-29,-68,-58,-48,-29
-19,-58,-39,39,9,-48,19,-29,-78,-58,-48,-39
-19,-58,-39,39,9,-48,19,-29,-78,-58,-48,-39
-19,-58,-39,39,9,-48,19,-29,-78,-58,-48,-39
-19,-58,-39,39,9,-48,19,-29,-78,-58,-48,-39
-29,-68,-39,48,4,-53,19,-29,-78,-58,-48,-39
-29,-68,-39,48,4,-53,19,-29,-78,-58,-48,-39
-29,-68,-39,48,4,-53,19,-29,-78,-58,-48,-39
-29,-68,-39,48,4,-53,19,-29,-78,-58,-48,-39
-39,-78,-39,58,0,-58,19,-29,-78,-68,-58,-48
-39,-78,-39,58,0,-58,19,-29,-78,-68,-58,-48
-39,-78,-39,58,0,-58,19,-29,-78,-68,-58,-48
-39,-78,-39,58,0,-58,19,-29,-78,-68,-58,-48
-39,-68,-29,53,-4,-48,29,-29,-78,-68,-48,-39
-39,-68,-29,53,-4,-48,29,-29,-78,-68,-48,-39
-39,-68,-29,53,-4,-48,29,-29,-78,-68,-48,-39
-39,-68,-29,53,-4,-48,29,-29,-78,-68,-48,-39
-48,-78,-29,63,-9,-53,29,-29,-87,-68,-58,-39
-48,-78,-29,63,-9,-53,29,-29,-87,-68,-58,-39
-48,-78,-29,63,-9,-53,29,-29,-87,-68,-58,-39
-48,-78,-29,63,-9,-53,29,-29,-87,-68,-58,-39
-43,-68,-24,56,-9,-46,29,-29,-87,-78,-58,-39
-39,-68,-29,53,-4,-48,29,-29,-87,-78,-58,-39
-34,-68,-34,51,0,-51,29,-29,-87,-78,-58,-39
-29,-68,-39,48,4,-53,29,-29,-87,-78,-58,-39
-19,-68,-48,43,14,-58,19,-29,-97,-78,-58,-48
-19,-68,-48,43,14,-58,19,-29,-97,-78,-58,-48
-19,-68,-48,43,14,-58,19,-29,-97,-78,-58,-48
-19,-68,-48,43,14,-58,19,-29,-97,-78,-58,-48
-29,-78,-48,53,9,-63,19,-39,-97,-78,-68,-48
-29,-78,-48,53,9,-63,19,-39,-97,-78,-68,-48
-29,-78,-48,53,9,-63,19,-39,-97,-78,-68,-48
-29,-78,-48,53,9,-63,19,-39,-97,-78,-68,-48
-29,-78,-48,53,9,-63,29,-39,-97,-78,-58,-39
-29,-78,-48,53,9,-63,29,-39,-97,-78,-58,-39
-29,-78,-48,53,9,-63,29,-39,-97,-78,-58,-39
-29,-78,-48,53,9,-63,29,-39,-97,-78,-58,-39
-39,-68,-29,53,-4,-48,29,-29,-97,-87,-58,-39
-39,-68,-29,53,-4,-48,29,-29,-97,-87,-58,-39
-39,-68,-29,53,-4,-48,29,-29,-97,-87,-58,-39
-39,-68,-29,53,-4,-48,29,-29,-97,-87,-58,-39
-29,-78,-48,53,9,-63,29,-39,-107,-87,-68,-43
-29,-78,-48,53,9,-63,29,-39,-107,-87,-68,-48
-29,-78,-48,53,9,-63,29,-39,-107,-87,-68,-53
-29,-78,-48,53,9,-63,29,-39,-107,-87,-68,-58
-29,-68,-39,48,4,-53,29,-39,-107,-87,-68,-48
-29,-68,-39,48,4,-53,29,-39,-107,-87,-68,-48
-29,-68,-39,48,4,-53,29,-39,-107,-87,-68,-48
-29,-68,-39,48,4,-53,29,-39,-107,-87,-68,-48
-34,-78,-43,56,4,-61,29,-39,-107,-87,-58,-48
-39,-78,-39,58,0,-58,29,-39,-107,-87,-58,-48
-43,-78,-34,61,-4,-56,29,-39,-107,-87,-58,-48
-48,-78,-29,63,-9,-53,29,-39,-107,-87,-58,-48
-39,-78,-39,58,0,-58,29,-39,-107,-87,-68,-48
-39,-78,-39,58,0,-58,29,-39,-107,-87,-68,-48
-39,-78,-39,58,0,-58,29,-39,-107,-87,-68,-48
-39,-78,-39,58,0,-58,29,-39,-107,-87,-68,-48
-39,-68,-29,53,-4,-48,29,-39,-117,-87,-68,-48
-39,-68,-29,53,-4,-48,29,-39,-117,-87,-68,-48
-39,-68,-29,53,-4,-48,29,-39,-117,-87,-68,-48
-39,-68,-29,53,-4,-48,29,-39,-117,-87,-68,-48
-39,-78,-39,58,0,-58,39,-39,-107,-97,-68,-48
-39,-78,-39,58,0,-58,39,-39,-107,-97,-68,-48
-39,-78,-39,58,0,-58,39,-39,-107,-97,-68,-48
-39,-78,-39,58,0,-58,39,-39,-107,-97,-68,-48
-39,-87,-48,63,4,-68,39,-39,-117,-97,-68,-48
-39,-87,-48,63,4,-68,39,-39,-117,-97,-68,-48
-39,-87,-48,63,4,-68,39,-39,-117,-97,-68,-48
-39,-87,-48,63,4,-68,39,-39,-117,-97,-68,-48
-29,-78,-48,53,9,-63,39,-29,-107,-97,-68,-48
-29,-78,-48,53,9,-63,39,-29,-107,-97,-68,-48
-29,-78,-48,53,9,-63,39,-29,-107,-97,-68,-48
-29,-78,-48,53,9,-63,39,-29,-107,-97,-68,-48
-29,-78,-48,53,9,-63,39,-39,-117,-97,-78,-48
-29,-78,-48,53,9,-63,39,-39,-117,-97,-78,-48
-29,-78,-48,53,9,-63,39,-39,-117,-97,-78,-48
-29,-78,-48,53,9,-63,39,-39,-117,-97,-78,-48
-29,-87,-58,58,14,-73,29,-39,-117,-97,-78,-58
-29,-87,-58,58,14,-73,29,-39,-117,-97,-78,-58
-29,-87,-58,58,14,-73,29,-39,-117,-97,-78,-58
-29,-87,-58,58,14,-73,29,-39,-117,-97,-78,-58
-19,-78,-58,48,19,-68,39,-39,-102,-92,-63,-48
-19,-68,-48,43,14,-58,43,-29,-97,-82,-58,-48
-19,-48,-29,34,4,-39,43,-29,-92,-78,-53,-43
-14,-43,-29,29,7,-36,43,-29,-87,-73,-48,-43
-19,-39,-19,29,0,-29,48,-24,-78,-68,-43,-43
-14,-29,-14,21,0,-21,48,-24,-68,-63,-39,-34
-14,-24,-9,19,-2,-17,48,-24,-63,-58,-39,-29
-14,-19,-4,17,-4,-12,48,-24,-58,-48,-39,-29
-14,-29,-14,21,0,-21,53,-24,-53,-48,-43,-29
-14,-29,-14,21,0,-21,53,-19,-48,-48,-43,-29
-14,-29,-14,21,0,-21,58,-19,-48,-48,-43,-29
-14,-29,-14,21,0,-21,58,-14,-43,-43,-39,-29
-4,-19,-14,12,4,-17,58,-14,-39,-48,-39,-29
4,-14,-19,4,12,-17,58,-9,-34,-48,-34,-29
14,-4,-19,-4,17,-12,58,-9,-29,-43,-29,-24
29,0,-29,-14,29,-14,48,-4,-29,-39,-29,-14
29,0,-29,-14,29,-14,48,0,-29,-34,-19,-9
34,14,-19,-24,26,-2,43,0,-19,-29,-4,-4
43,24,-19,-34,31,2,39,0,-14,-24,0,0
48,34,-14,-41,31,9,34,0,-9,-14,4,4
58,58,0,-58,29,29,19,0,-9,-4,9,9
58,58,0,-58,29,29,14,-9,-9,-4,9,14
58,63,4,-61,26,34,9,-9,-9,-4,9,14
58,63,4,-61,26,34,4,-14,-14,-9,9,14
58,58,0,-58,29,29,0,-24,-29,-14,9,14
58,58,0,-58,29,29,-14,-29,-34,-14,9,14
58,73,14,-65,21,43,-24,-34,-34,-14,9,24
63,82,19,-73,21,51,-34,-39,-34,-4,19,29
63,87,24,-75,19,56,-43,-43,-39,0,19,29
63,97,34,-80,14,65,-43,-43,-39,0,24,39
63,97,34,-80,14,65,-48,-53,-43,0,24,39
63,92,29,-78,17,61,-48,-58,-58,-9,19,39
48,73,24,-61,12,48,-43,-58,-58,-19,9,39
48,53,4,-51,21,29,-43,-58,-68,-29,4,29
34,39,4,-36,14,21,-34,-58,-82,-43,-9,19
34,24,-9,-29,21,7,-29,-58,-97,-58,-19,9
29,9,-19,-19,24,-4,-24,-58,-102,-73,-29,14
9,-4,-14,-2,12,-9,-19,-58,-112,-78,-39,4
4,-14,-19,4,12,-17,-14,-58,-122,-87,-43,-4
-4,-29,-24,17,9,-26,-9,-58,-122,-87,-53,-9
-9,-48,-39,29,14,-43,14,-43,-122,-82,-58,-24
-19,-58,-39,39,9,-48,19,-43,-122,-87,-63,-34
-19,-63,-43,41,12,-53,19,-43,-126,-92,-68,-43
-24,-73,-48,48,12,-61,19,-43,-131,-97,-78,-43
-29,-82,-53,56,12,-68,24,-43,-136,-102,-78,-48
-29,-92,-63,61,17,-78,24,-43,-141,-112,-82,-58
-29,-102,-73,65,21,-87,29,-34,-141,-117,-82,-63
-29,-102,-73,65,21,-87,29,-34,-141,-122,-87,-63
-29,-97,-68,63,19,-82,19,-48,-141,-122,-87,-58
-29,-102,-73,65,21,-87,19,-48,-146,-122,-87,-58
-29,-107,-78,68,24,-92,19,-43,-146,-122,-87,-58
-34,-107,-73,70,19,-90,19,-43,-146,-122,-92,-58
-34,-117,-82,75,24,-100,9,-43,-151,-122,-102,-68
-34,-117,-82,75,24,-100,9,-43,-151,-122,-102,-68
-34,-117,-82,75,24,-100,14,-43,-151,-126,-102,-68
-34,-117,-82,75,24,-100,14,-43,-151,-126,-102,-68
-34,-117,-82,75,24,-100,24,-43,-151,-126,-92,-68
-39,-117,-78,78,19,-97,24,-43,-151,-122,-92,-68
-39,-117,-78,78,19,-97,24,-43,-151,-122,-92,-73
-39,-122,-82,80,21,-102,29,-43,-151,-126,-92,-73
-48,-122,-73,85,12,-97,29,-34,-151,-126,-92,-73
-48,-122,-73,85,12,-97,29,-34,-151,-126,-92,-73
-48,-122,-73,85,12,-97,29,-34,-151,-126,-92,-73
-48,-122,-73,85,12,-97,29,-34,-151,-126,-92,-73
-48,-131,-82,90,17,-107,29,-43,-151,-117,-92,-68
-48,-131,-82,90,17,-107,29,-43,-151,-117,-97,-68
-48,-136,-87,92,19,-112,29,-43,-151,-117,-97,-68
-48,-136,-87,92,19,-112,29,-43,-151,-117,-97,-68
-39,-126,-87,82,24,-107,19,-43,-151,-117,-97,-68
-39,-126,-87,82,24,-107,19,-43,-151,-117,-97,-68
-39,-126,-87,82,24,-107,24,-43,-151,-117,-97,-68
-39,-126,-87,82,24,-107,24,-43,-151,-117,-97,-68
-39,-126,-87,82,24,-107,19,-43,-151,-126,-107,-78
-43,-126,-82,85,19,-104,19,-39,-151,-126,-107,-78
-43,-126,-82,85,19,-104,24,-39,-146,-126,-102,-73
-43,-126,-82,85,19,-104,24,-39,-146,-122,-102,-73
-43,-126,-82,85,19,-104,14,-39,-146,-122,-107,-82
-43,-117,-73,80,14,-95,24,-39,-146,-112,-107,-82
-39,-117,-78,78,19,-97,34,-34,-136,-112,-107,-82
-48,-126,-78,87,14,-102,39,-29,-112,-107,-107,-87
-58,-131,-73,95,7,-102,53,-24,-107,-102,-97,-78
-73,-146,-73,109,0,-109,68,-24,-87,-102,-107,-82
-92,-156,-63,124,-14,-109,102,0,-63,-87,-102,-87
-87,-156,-68,122,-9,-112,102,-4,-58,-82,-102,-92
-92,-165,-73,129,-9,-119,112,0,-53,-73,-102,-92
-97,-180,-82,139,-7,-131,117,9,-39,-68,-107,-102
-102,-180,-78,141,-12,-129,122,9,-29,-58,-97,-102
-126,-185,-58,156,-34,-122,126,-9,-48,-68,-107,-97
-126,-175,-48,151,-39,-112,131,-9,-48,-68,-97,-97
-122,-165,-43,143,-39,-104,136,14,-19,-43,-82,-97
-97,-141,-43,119,-26,-92,141,43,9,-19,-53,-82
-73,-112,-39,92,-17,-75,141,82,19,9,-34,-68
-29,-78,-48,53,9,-63,122,136,43,53,14,-53
19,-39,-58,9,39,-48,92,180,73,92,53,-34
102,39,-63,-70,82,-12,34,234,122,156,107,4
170,117,-53,-143,112,31,-29,278,165,219,165,53
239,180,-58,-209,148,61,-97,302,204,283,234,97
336,273,-63,-305,200,104,-219,366,214,351,331,161
434,351,-82,-392,258,134,-292,429,209,395,385,204
517,419,-97,-468,307,161,-356,497,234,473,473,253
580,473,-107,-527,344,183,-390,556,317,570,561,302
629,546,-82,-588,356,231,-380,590,468,722,683,351
663,683,19,-673,322,351,-390,570,707,966,883,473
663,741,78,-702,292,409,-414,448,790,1073,976,527
653,780,126,-717,263,453,-424,302,829,1122,1029,561
614,771,156,-692,229,463,-414,170,814,1117,1029,580
531,697,165,-614,183,431,-366,58,732,1005,932,541
380,556,175,-468,102,366,-278,-136,561,771,746,468
283,458,175,-370,53,317,-190,-219,375,561,580,400
146,307,161,-226,-7,234,-58,-263,180,292,385,302
34,165,131,-100,-48,148,58,-292,14,68,209,224
-48,63,112,-7,-80,87,151,-302,-92,-92,82,151
-131,-48,82,90,-107,17,268,-312,-151,-214,-43,78
-165,-87,78,126,-122,-4,322,-292,-131,-214,-73,48
-195,-136,58,165,-126,-39,380,-263,-97,-214,-97,14
-234,-180,53,207,-143,-63,424,-239,-48,-195,-117,-29
-258,-214,43,236,-151,-85,448,-224,-14,-175,-126,-43
-278,-229,48,253,-163,-90,463,-219,29,-151,-126,-68
-283,-244,39,263,-161,-102,463,-214,29,-151,-141,-87
-287,-248,39,268,-163,-104,463,-190,39,-136,-141,-102
-278,-253,24,265,-151,-114,448,-175,39,-126,-141,-102
-273,-263,9,268,-141,-126,429,-156,29,-126,-156,-112
-248,-253,-4,251,-122,-129,390,-151,0,-126,-136,-102
-239,-244,-4,241,-117,-124,351,-151,-29,-136,-141,-102
-214,-214,0,214,-107,-107,307,-151,-53,-136,-131,-97
-190,-190,0,190,-95,-95,263,-141,-68,-126,-122,-87
-170,-175,-4,173,-82,-90,224,-122,-78,-131,-122,-82
-131,-146,-14,139,-58,-80,170,-107,-82,-122,-107,-78
-107,-131,-24,119,-41,-78,141,-87,-78,-117,-107,-73
-92,-126,-34,109,-29,-80,126,-73,-78,-97,-87,-68
-87,-126,-39,107,-24,-82,107,-63,-78,-87,-73,-53
-82,-122,-39,102,-21,-80,92,-63,-68,-82,-73,-48
-68,-102,-34,85,-17,-68,53,-53,-73,-78,-68,-48
-63,-87,-24,75,-19,-56,43,-53,-73,-73,-63,-43
-58,-92,-34,75,-12,-63,43,-63,-73,-73,-73,-53
-58,-92,-34,75,-12,-63,39,-58,-73,-73,-73,-53
-48,-92,-43,70,-2,-68,34,-58,-73,-73,-68,-53
-48,-87,-39,68,-4,-63,34,-53,-73,-73,-68,-53
-48,-78,-29,63,-9,-53,34,-43,-73,-73,-68,-53
-48,-78,-29,63,-9,-53,34,-43,-73,-73,-68,-48
-48,-73,-24,61,-12,-48,24,-39,-73,-68,-68,-48
-48,-73,-24,61,-12,-48,24,-34,-78,-68,-68,-48
-48,-82,-34,65,-7,-58,14,-43,-78,-78,-68,-39
-48,-87,-39,68,-4,-63,14,-43,-78,-78,-63,-34
-48,-87,-39,68,-4,-63,9,-43,-78,-78,-63,-34
-43,-92,-48,68,2,-70,9,-43,-78,-78,-63,-34
-43,-82,-39,63,-2,-61,9,-34,-78,-68,-53,-39
-43,-82,-39,63,-2,-61,4,-29,-78,-68,-53,-39
-43,-82,-39,63,-2,-61,4,-29,-78,-68,-58,-34
-43,-82,-39,63,-2,-61,4,-29,-78,-68,-58,-34
-34,-68,-34,51,0,-51,4,-39,-73,-68,-53,-39
-34,-68,-34,51,0,-51,4,-39,-73,-68,-53,-39
-29,-68,-39,48,4,-53,4,-39,-73,-68,-58,-39
-24,-68,-43,46,9,-56,0,-39,-68,-63,-58,-39
-29,-78,-48,53,9,-63,0,-39,-68,-63,-53,-43
-34,-73,-39,53,2,-56,0,-39,-68,-63,-53,-43
-39,-73,-34,56,-2,-53,0,-39,-63,-63,-53,-39
-43,-73,-29,58,-7,-51,0,-39,-63,-58,-53,-39
-34,-68,-34,51,0,-51,-14,-39,-53,-58,-53,-29
-34,-63,-29,48,-2,-46,-14,-39,-53,-58,-53,-34
-34,-53,-19,43,-7,-36,-14,-39,-53,-58,-53,-34
-34,-48,-14,41,-9,-31,-14,-39,-53,-58,-53,-34
-29,-39,-9,34,-9,-24,-14,-39,-48,-48,-53,-34
-29,-39,-9,34,-9,-24,-9,-39,-48,-48,-48,-34
-29,-39,-9,34,-9,-24,-4,-39,-43,-43,-48,-29
-29,-39,-9,34,-9,-24,0,-39,-43,-39,-48,-29
-29,-43,-14,36,-7,-29,-4,-39,-53,-43,-48,-43
-29,-43,-14,36,-7,-29,-9,-39,-48,-48,-48,-43
-29,-48,-19,39,-4,-34,-14,-39,-48,-53,-43,-43
-24,-48,-24,36,0,-36,-19,-39,-43,-53,-43,-43
-14,-39,-24,26,4,-31,-19,-39,-39,-43,-43,-29
-19,-39,-19,29,0,-29,-19,-39,-39,-43,-39,-29
-19,-39,-19,29,0,-29,-19,-39,-39,-39,-39,-29
-14,-39,-24,26,4,-31,-19,-34,-39,-34,-39,-29
-4,-48,-43,26,19,-46,-19,-43,-39,-43,-43,-34
-4,-43,-39,24,17,-41,-19,-43,-29,-39,-39,-34
-4,-43,-39,24,17,-41,-19,-43,-29,-39,-39,-34
0,-43,-43,21,21,-43,-19,-43,-29,-39,-39,-34
-9,-43,-34,26,12,-39,-14,-39,-19,-29,-29,-24
-19,-43,-24,31,2,-34,-14,-39,-9,-24,-29,-24
-29,-34,-4,31,-12,-19,-14,-34,0,-19,-29,-24
-39,-34,4,36,-21,-14,-14,-34,0,-19,-29,-19
-29,-19,9,24,-19,-4,-14,-34,0,-9,-24,-29
-29,-9,19,19,-24,4,-14,-34,0,-4,-24,-29
-29,-4,24,17,-26,9,-24,-34,0,-4,-24,-29
-29,4,34,12,-31,19,-24,-34,9,0,-14,-29
-14,4,19,4,-17,12,-34,-34,19,0,-14,-19
-9,9,19,0,-14,14,-34,-34,24,4,-14,-14
-9,24,34,-7,-21,29,-34,-34,34,9,-9,-14
-9,24,34,-7,-21,29,-39,-34,34,14,-4,-9
-9,19,29,-4,-19,24,-39,-29,39,19,9,0
0,14,14,-7,-7,14,-39,-29,43,19,9,4
0,14,14,-7,-7,14,-39,-29,43,24,9,4
0,14,14,-7,-7,14,-39,-29,48,29,19,14
9,19,9,-14,0,14,-43,-24,68,43,24,14
9,24,14,-17,-2,19,-43,-24,73,48,34,14
24,29,4,-26,9,17,-43,-24,82,58,34,19
14,34,19,-24,-2,26,-43,-24,87,63,39,19
14,48,34,-31,-9,41,-48,-19,82,58,34,9
24,53,29,-39,-2,41,-48,-19,87,63,39,14
29,53,24,-41,2,39,-48,-19,97,68,43,19
29,58,29,-43,0,43,-53,-19,107,78,43,19
34,53,19,-43,7,36,-63,-19,112,92,48,24
39,58,19,-48,9,39,-63,-14,117,97,58,29
39,68,29,-53,4,48,-73,-14,131,102,63,34
39,73,34,-56,2,53,-78,-9,141,107,68,34
39,82,43,-61,-2,63,-68,-9,146,117,73,34
43,92,48,-68,-2,70,-73,0,156,117,78,43
53,107,53,-80,0,80,-73,0,161,131,82,48
58,117,58,-87,0,87,-78,0,175,141,92,53
63,112,48,-87,7,80,-78,9,185,156,97,53
63,117,53,-90,4,85,-82,14,190,156,102,53
68,126,58,-97,4,92,-87,14,200,165,117,63
73,131,58,-102,7,95,-87,24,214,180,117,73
78,126,48,-102,14,87,-92,19,239,200,141,73
82,136,53,-109,14,95,-92,24,253,209,141,78
87,141,53,-114,17,97,-97,29,273,219,151,87
92,146,53,-119,19,100,-97,34,278,234,156,92
107,161,53,-134,26,107,-107,39,278,244,161,97
112,170,58,-141,26,114,-112,39,287,253,175,97
117,180,63,-148,26,122,-117,48,302,263,180,97
117,185,68,-151,24,126,-117,53,312,263,185,107
112,200,87,-156,12,143,-117,53,331,278,185,97
117,204,87,-161,14,146,-117,58,346,287,190,102
126,209,82,-168,21,146,-126,58,351,297,204,107
131,224,92,-178,19,158,-126,63,361,307,204,112
136,219,82,-178,26,151,-126,58,375,317,219,126
141,224,82,-183,29,153,-126,63,385,326,224,131
146,234,87,-190,29,161,-136,68,395,326,229,136
156,239,82,-197,36,161,-136,68,395,331,234,136
170,253,82,-212,43,168,-141,68,409,341,248,146
170,253,82,-212,43,168,-146,78,409,346,258,151
180,253,73,-217,53,163,-146,82,424,351,258,156
185,263,78,-224,53,170,-151,82,429,351,263,156
175,268,92,-222,41,180,-161,82,424,346,263,161
175,268,92,-222,41,180,-156,92,429,351,268,165
175,268,92,-222,41,180,-151,102,434,351,273,170
190,268,78,-229,56,173,-146,102,434,351,273,175
190,258,68,-224,61,163,-156,92,434,351,273,165
185,258,73,-222,56,165,-156,97,429,346,273,165
185,258,73,-222,56,165,-156,97,414,336,263,161
180,258,78,-219,51,168,-151,97,405,331,258,161
185,258,73,-222,56,165,-151,97,385,326,248,141
185,248,63,-217,61,156,-146,92,370,312,244,141
180,248,68,-214,56,158,-141,82,361,302,229,136
175,234,58,-204,58,146,-141,78,341,283,224,131
161,229,68,-195,46,148,-141,73,326,268,204,117
156,219,63,-187,46,141,-141,68,312,258,195,117
146,209,63,-178,41,136,-136,63,297,244,185,112
141,200,58,-170,41,129,-131,63,283,229,175,102
136,190,53,-163,41,122,-126,58,258,209,161,97
136,175,39,-156,48,107,-122,48,244,200,156,92
126,170,43,-148,41,107,-117,39,229,185,141,78
117,161,43,-139,36,102,-112,39,214,170,131,78
107,161,53,-134,26,107,-107,24,204,156,122,82
102,146,43,-124,29,95,-102,9,185,151,112,73
102,136,34,-119,34,85,-102,9,165,131,102,68
87,126,39,-107,24,82,-97,4,151,122,92,63
73,112,39,-92,17,75,-82,4,151,102,87,58
53,97,43,-75,4,70,-78,0,136,97,78,48
34,82,48,-58,-7,65,-73,-4,122,82,68,43
29,73,43,-51,-7,58,-73,-9,107,73,58,39
29,73,43,-51,-7,58,-68,-14,97,73,53,34
29,68,39,-48,-4,53,-68,-19,87,63,43,34
24,53,29,-39,-2,41,-58,-24,73,53,34,24
14,48,34,-31,-9,41,-58,-29,58,43,24,24
24,48,24,-36,0,36,-53,-34,43,43,24,14
19,48,29,-34,-4,39,-48,-34,39,39,19,14
19,34,14,-26,2,24,-48,-34,29,29,14,4
14,24,9,-19,2,17,-48,-39,19,19,0,4
-4,9,14,-2,-9,12,-43,-29,19,9,4,9
-4,4,9,0,-7,7,-43,-29,9,9,0,4
-4,4,9,0,-7,7,-43,-34,4,0,-4,-4
-9,0,9,4,-9,4,-43,-34,-4,-9,-9,-4
-9,-4,4,7,-7,0,-39,-43,-14,-9,-19,-19
-9,-9,0,9,-4,-4,-39,-43,-19,-14,-29,-24
-14,-14,0,14,-7,-7,-39,-43,-29,-19,-34,-24
-14,-14,0,14,-7,-7,-34,-43,-34,-29,-34,-24
-24,-24,0,24,-12,-12,-34,-48,-39,-34,-39,-19
-29,-29,0,29,-14,-14,-34,-48,-43,-39,-43,-24
-29,-34,-4,31,-12,-19,-34,-48,-48,-39,-43,-24
-29,-34,-4,31,-12,-19,-34,-48,-53,-43,-43,-24
-34,-29,4,31,-19,-12,-39,-58,-58,-53,-53,-34
-34,-34,0,34,-17,-17,-39,-58,-63,-58,-58,-39
-34,-34,0,34,-17,-17,-39,-58,-63,-58,-58,-39
-29,-39,-9,34,-9,-24,-39,-63,-68,-63,-63,-39
-29,-29,0,29,-14,-14,-39,-53,-63,-53,-53,-53
-34,-29,4,31,-19,-12,-39,-53,-63,-58,-53,-53
-34,-29,4,31,-19,-12,-39,-53,-63,-58,-48,-53
-34,-29,4,31,-19,-12,-39,-53,-58,-58,-48,-53
-24,-29,-4,26,-9,-17,-29,-53,-58,-58,-53,-39
-24,-29,-4,26,-9,-17,-29,-53,-58,-58,-53,-39
-24,-34,-9,29,-7,-21,-29,-53,-63,-63,-53,-43
-29,-34,-4,31,-12,-19,-34,-53,-68,-63,-58,-43
-29,-43,-14,36,-7,-29,-43,-53,-78,-63,-58,-43
-29,-48,-19,39,-4,-34,-43,-58,-73,-63,-63,-43
-29,-48,-19,39,-4,-34,-39,-58,-73,-63,-63,-43
-29,-48,-19,39,-4,-34,-39,-58,-73,-63,-63,-43
-14,-43,-29,29,7,-36,-39,-58,-63,-53,-53,-34
-14,-43,-29,29,7,-36,-34,-58,-63,-53,-53,-34
-14,-43,-29,29,7,-36,-34,-58,-63,-53,-53,-34
-19,-43,-24,31,2,-34,-34,-53,-63,-48,-53,-34
-29,-43,-14,36,-7,-29,-24,-53,-73,-58,-58,-24
-34,-48,-14,41,-9,-31,-24,-53,-73,-58,-58,-24
-48,-53,-4,51,-21,-29,-24,-53,-73,-58,-58,-24
-43,-68,-24,56,-9,-46,-24,-53,-73,-58,-63,-24
-53,-63,-9,58,-21,-36,-34,-58,-78,-63,-53,-39
-48,-53,-4,51,-21,-29,-34,-58,-78,-63,-53,-39
-43,-48,-4,46,-19,-26,-34,-58,-78,-63,-53,-39
-39,-43,-4,41,-17,-24,-34,-58,-73,-63,-53,-39
-48,-29,19,39,-34,-4,-34,-58,-63,-53,-48,-39
-48,-29,19,39,-34,-4,-34,-58,-68,-53,-48,-39
-53,-34,19,43,-36,-7,-34,-58,-68,-53,-48,-39
-53,-34,19,43,-36,-7,-39,-58,-68,-53,-48,-39
-43,-43,0,43,-21,-21,-39,-63,-63,-53,-48,-29
-43,-48,-4,46,-19,-26,-39,-63,-63,-53,-48,-29
-43,-48,-4,46,-19,-26,-39,-63,-63,-53,-48,-29
-43,-48,-4,46,-19,-26,-39,-58,-63,-53,-48,-29
-39,-48,-9,43,-14,-29,-39,-58,-53,-48,-48,-24
-39,-43,-4,41,-17,-24,-39,-58,-58,-48,-48,-24
-34,-43,-9,39,-12,-26,-39,-58,-58,-48,-48,-24
-34,-43,-9,39,-12,-26,-39,-58,-58,-48,-48,-24
-39,-34,4,36,-21,-14,-39,-63,-68,-48,-48,-34
-39,-34,4,36,-21,-14,-39,-63,-63,-48,-48,-34
-39,-34,4,36,-21,-14,-39,-63,-63,-48,-48,-34
-39,-34,4,36,-21,-14,-39,-63,-63,-48,-48,-34
-39,-24,14,31,-26,-4,-48,-73,-63,-48,-48,-24
-39,-29,9,34,-24,-9,-48,-73,-63,-48,-48,-24
-39,-29,9,34,-24,-9,-48,-73,-63,-48,-48,-24
-34,-29,4,31,-19,-12,-48,-73,-63,-43,-43,-24
-34,-29,4,31,-19,-12,-48,-73,-73,-53,-43,-24
-34,-24,9,29,-21,-7,-48,-73,-73,-53,-43,-24
-43,-19,24,31,-34,2,-48,-73,-68,-53,-43,-24
-43,-14,29,29,-36,7,-48,-73,-68,-48,-39,-24
-34,-24,9,29,-21,-7,-39,-63,-58,-48,-39,-24
-29,-24,4,26,-17,-9,-39,-63,-58,-48,-39,-24
-29,-24,4,26,-17,-9,-39,-63,-58,-48,-39,-24
-29,-29,0,29,-14,-14,-39,-63,-58,-48,-39,-19
-34,-29,4,31,-19,-12,-39,-63,-53,-43,-34,-9
-39,-24,14,31,-26,-4,-39,-68,-53,-39,-29,-14
-39,-14,24,26,-31,4,-43,-68,-53,-34,-24,-14
-39,-4,34,21,-36,14,-43,-68,-53,-29,-19,-14
-39,-4,34,21,-36,14,-43,-63,-43,-39,-24,-24
-39,-9,29,24,-34,9,-43,-63,-43,-39,-29,-24
-39,-14,24,26,-31,4,-43,-63,-43,-39,-34,-24
-39,-19,19,29,-29,0,-43,-63,-43,-39,-39,-24
-29,-29,0,29,-14,-14,-43,-63,-53,-39,-39,-24
-29,-29,0,29,-14,-14,-43,-63,-48,-39,-39,-24
-29,-34,-4,31,-12,-19,-43,-63,-48,-39,-39,-24
-34,-34,0,34,-17,-17,-43,-63,-48,-39,-39,-24
-39,-34,4,36,-21,-14,-43,-63,-48,-39,-29,-24
-39,-34,4,36,-21,-14,-43,-63,-48,-39,-29,-24
-34,-29,4,31,-19,-12,-43,-58,-48,-34,-29,-24
-34,-29,4,31,-19,-12,-43,-58,-53,-34,-29,-24
-43,-29,14,36,-29,-7,-43,-58,-43,-39,-24,-24
-39,-29,9,34,-24,-9,-39,-58,-43,-39,-24,-19
-39,-29,9,34,-24,-9,-39,-58,-43,-39,-24,-14
-43,-29,14,36,-29,-7,-39,-58,-48,-34,-24,-14
-43,-29,14,36,-29,-7,-29,-58,-58,-43,-34,-9
-43,-29,14,36,-29,-7,-34,-58,-53,-43,-34,-14
-43,-29,14,36,-29,-7,-34,-58,-53,-43,-34,-14
-43,-29,14,36,-29,-7,-34,-58,-53,-48,-34,-14
-43,-19,24,31,-34,2,-34,-58,-53,-39,-29,-9
-43,-24,19,34,-31,-2,-39,-58,-58,-39,-29,-4
-39,-24,14,31,-26,-4,-39,-58,-58,-39,-29,0
-39,-19,19,29,-29,0,-39,-58,-58,-39,-29,4
-34,-29,4,31,-19,-12,-48,-58,-58,-39,-29,-4
-34,-29,4,31,-19,-12,-48,-58,-53,-39,-29,-4
-34,-29,4,31,-19,-12,-43,-58,-53,-39,-29,-4
-34,-29,4,31,-19,-12,-43,-58,-53,-39,-29,-4
-34,-29,4,31,-19,-12,-43,-58,-43,-39,-29,-14
-34,-29,4,31,-19,-12,-43,-58,-43,-43,-29,-14
-34,-29,4,31,-19,-12,-43,-58,-53,-43,-34,-19
-39,-29,9,34,-24,-9,-43,-58,-43,-48,-34,-19
-34,-29,4,31,-19,-12,-43,-68,-48,-58,-43,-19
-34,-29,4,31,-19,-12,-43,-68,-58,-58,-43,-19
-34,-34,0,34,-17,-17,-43,-68,-68,-58,-43,-19
-39,-34,4,36,-21,-14,-43,-68,-73,-58,-43,-19
-43,-24,19,34,-31,-2,-43,-68,-58,-48,-43,-24
-43,-24,19,34,-31,-2,-43,-63,-58,-48,-43,-24
-48,-24,24,36,-36,0,-43,-63,-58,-48,-43,-24
-53,-29,24,41,-39,-2,-43,-63,-63,-48,-43,-29
-63,-39,24,51,-43,-7,-34,-53,-58,-39,-34,-14
-63,-39,24,51,-43,-7,-34,-53,-63,-43,-34,-9
-63,-39,24,51,-43,-7,-34,-58,-63,-43,-39,-4
-58,-39,19,48,-39,-9,-34,-63,-63,-43,-39,4
-48,-39,9,43,-29,-14,-34,-63,-68,-48,-48,-4
-53,-39,14,46,-34,-12,-39,-63,-68,-53,-48,-9
-53,-39,14,46,-34,-12,-39,-63,-63,-58,-48,-9
-48,-39,9,43,-29,-14,-39,-63,-63,-68,-48,-9
-39,-29,9,34,-24,-9,-48,-63,-73,-63,-39,-19
-39,-29,9,34,-24,-9,-43,-63,-73,-58,-39,-19
-39,-29,9,34,-24,-9,-43,-58,-68,-53,-39,-19
-39,-29,9,34,-24,-9,-43,-58,-68,-48,-39,-19
-39,-29,9,34,-24,-9,-34,-68,-68,-58,-39,-19
-43,-34,9,39,-26,-12,-39,-68,-73,-58,-39,-19
-53,-34,19,43,-36,-7,-43,-73,-73,-58,-43,-19
-43,-34,9,39,-26,-12,-43,-73,-73,-58,-43,-19
-34,-34,0,34,-17,-17,-43,-73,-68,-58,-53,-19
-39,-34,4,36,-21,-14,-43,-73,-68,-58,-53,-19
-39,-34,4,36,-21,-14,-39,-73,-68,-58,-53,-19
-39,-34,4,36,-21,-14,-34,-73,-68,-58,-53,-19
-48,-34,14,41,-31,-9,-34,-68,-68,-63,-43,-14
-53,-34,19,43,-36,-7,-34,-68,-63,-63,-43,-9
-53,-34,19,43,-36,-7,-34,-68,-63,-63,-43,-4
-48,-34,14,41,-31,-9,-34,-68,-68,-63,-43,0
-53,-34,19,43,-36,-7,-34,-68,-58,-53,-34,9
-53,-34,19,43,-36,-7,-34,-63,-58,-53,-34,9
-53,-34,19,43,-36,-7,-34,-63,-58,-53,-39,4
-58,-39,19,48,-39,-9,-34,-63,-58,-53,-39,4
-58,-39,19,48,-39,-9,-34,-73,-68,-53,-48,0
-58,-39,19,48,-39,-9,-34,-73,-73,-53,-48,-4
-63,-39,24,51,-43,-7,-34,-73,-73,-53,-48,-9
-73,-34,39,53,-56,2,-39,-68,-63,-53,-43,-14
-68,-24,43,46,-56,9,-39,-68,-63,-53,-43,-14
-63,-24,39,43,-51,7,-39,-68,-68,-53,-43,-14
-53,-24,29,39,-41,2,-39,-68,-68,-53,-43,-14
-43,-24,19,34,-31,-2,-34,-68,-68,-53,-43,-14
-43,-24,19,34,-31,-2,-43,-68,-58,-53,-53,-14
-43,-29,14,36,-29,-7,-43,-68,-58,-53,-53,-14
-53,-29,24,41,-39,-2,-43,-73,-63,-53,-53,-14
-43,-29,14,36,-29,-7,-43,-73,-63,-53,-53,-14
-48,-29,19,39,-34,-4,-39,-73,-68,-53,-48,-14
-53,-29,24,41,-39,-2,-39,-73,-68,-53,-48,-14
-58,-29,29,43,-43,0,-39,-73,-68,-53,-43,-14
-63,-29,34,46,-48,2,-39,-68,-68,-53,-39,-14
-48,-29,19,39,-34,-4,-29,-68,-68,-53,-48,-24
-48,-29,19,39,-34,-4,-29,-68,-63,-53,-48,-24
-53,-29,24,41,-39,-2,-29,-68,-63,-53,-48,-24
-53,-29,24,41,-39,-2,-29,-68,-63,-58,-48,-24
-53,-24,29,39,-41,2,-29,-78,-63,-58,-48,-14
-53,-14,39,34,-46,12,-39,-78,-68,-58,-48,-24
-63,-19,43,41,-53,12,-48,-73,-68,-58,-48,-24
-68,-19,48,43,-58,14,-39,-78,-68,-58,-48,-19
-58,-19,39,39,-48,9,-39,-68,-63,-48,-48,-19
-58,-19,39,39,-48,9,-39,-68,-58,-48,-48,-19
-58,-19,39,39,-48,9,-39,-68,-53,-48,-48,-19
-58,-19,39,39,-48,9,-39,-68,-48,-48,-48,-19
-53,-4,48,29,-51,21,-39,-68,-43,-43,-34,-9
-48,0,48,24,-48,24,-34,-58,-39,-34,-29,-9
-43,14,58,14,-51,36,-34,-58,-34,-29,-24,-4
-34,14,48,9,-41,31,-34,-58,-29,-24,-19,-4
-34,19,53,7,-43,36,-29,-53,-9,-19,-4,-4
-34,29,63,2,-48,46,-29,-53,0,-14,0,4
-39,34,73,2,-56,53,-29,-53,4,-9,0,9
-43,39,82,2,-63,61,-29,-53,9,0,0,9
-34,48,82,-7,-58,65,-34,-63,4,9,4,9
-34,48,82,-7,-58,65,-34,-58,9,9,4,9
-34,48,82,-7,-58,65,-29,-58,9,9,4,9
-34,48,82,-7,-58,65,-29,-53,14,14,9,9
-43,48,92,-2,-68,70,-19,-53,19,9,0,9
-34,53,87,-9,-61,70,-19,-48,24,9,4,9
-24,63,87,-19,-56,75,-19,-48,29,14,9,14
-9,68,78,-29,-43,73,-29,-43,29,19,9,24
-9,68,78,-29,-43,73,-29,-48,29,24,9,29
-4,82,87,-39,-46,85,-34,-48,39,29,24,34
4,92,87,-48,-41,90,-39,-48,43,34,29,39
9,102,92,-56,-41,97,-43,-48,48,43,34,43
19,107,87,-63,-34,97,-39,-39,58,53,48,48
19,107,87,-63,-34,97,-43,-48,58,53,48,53
19,112,92,-65,-36,102,-48,-48,58,53,48,53
19,112,92,-65,-36,102,-53,-53,53,48,48,53
29,122,92,-75,-31,107,-58,-53,48,53,58,63
29,126,97,-78,-34,112,-73,-58,43,53,58,63
29,146,117,-87,-43,131,-82,-63,43,53,58,73
34,161,126,-97,-46,143,-92,-68,43,63,68,78
24,161,136,-92,-56,148,-102,-73,48,58,78,78
24,165,141,-95,-58,153,-102,-73,48,58,82,87
24,161,136,-92,-56,148,-107,-82,43,58,82,87
24,151,126,-87,-51,139,-107,-87,29,48,78,87
29,151,122,-90,-46,136,-112,-97,19,39,58,78
29,131,102,-80,-36,117,-112,-97,9,29,53,68
14,117,102,-65,-43,109,-102,-97,-4,14,39,58
14,102,87,-58,-36,95,-97,-97,-19,0,29,48
0,78,78,-39,-39,78,-82,-97,-29,-14,19,43
-19,63,82,-21,-51,73,-78,-97,-43,-19,9,34
-24,53,78,-14,-51,65,-73,-97,-58,-29,4,24
-34,39,73,-2,-53,56,-68,-97,-63,-29,-4,19
-39,29,68,4,-53,48,-63,-102,-63,-34,-9,14
-48,19,68,14,-58,43,-58,-102,-63,-39,-14,4
-48,14,63,17,-56,39,-58,-102,-68,-43,-19,-4
-53,4,58,24,-56,31,-58,-102,-73,-48,-29,-4
-68,-14,53,41,-61,19,-43,-97,-78,-53,-39,0
-68,-24,43,46,-56,9,-43,-92,-82,-63,-43,-9
-68,-34,34,51,-51,0,-39,-78,-82,-68,-43,-14
-68,-34,34,51,-51,0,-39,-73,-82,-73,-48,-14
-68,-43,24,56,-46,-9,-29,-78,-82,-73,-58,-29
-68,-53,14,61,-41,-19,-29,-78,-87,-73,-58,-29
-68,-63,4,65,-36,-29,-29,-73,-87,-73,-58,-29
-73,-68,4,70,-39,-31,-29,-73,-87,-73,-63,-29
-82,-58,24,70,-53,-17,-29,-73,-92,-63,-63,-29
-82,-58,24,70,-53,-17,-29,-73,-92,-63,-63,-29
-82,-58,24,70,-53,-17,-24,-73,-92,-68,-63,-29
-82,-58,24,70,-53,-17,-24,-73,-92,-68,-63,-29
-78,-58,19,68,-48,-19,-24,-63,-92,-78,-53,-29
-78,-58,19,68,-48,-19,-24,-63,-92,-73,-53,-29
-73,-58,14,65,-43,-21,-24,-63,-92,-73,-53,-34
-68,-63,4,65,-36,-29,-19,-63,-92,-78,-53,-34
-68,-63,4,65,-36,-29,-19,-73,-92,-78,-63,-43
-68,-63,4,65,-36,-29,-19,-73,-92,-78,-63,-43
-68,-63,4,65,-36,-29,-19,-73,-92,-78,-63,-43
-68,-63,4,65,-36,-29,-19,-73,-92,-78,-63,-43
-68,-63,4,65,-36,-29,-19,-73,-92,-87,-73,-48
-68,-63,4,65,-36,-29,-19,-73,-92,-87,-78,-48
-68,-68,0,68,-34,-34,-19,-73,-92,-87,-78,-48
-68,-68,0,68,-34,-34,-19,-73,-92,-87,-78,-48
-68,-68,0,68,-34,-34,-9,-63,-92,-78,-68,-39
-68,-68,0,68,-34,-34,-9,-63,-92,-78,-68,-39
-68,-68,0,68,-34,-34,-4,-63,-92,-78,-68,-39
-68,-68,0,68,-34,-34,-4,-63,-92,-78,-68,-39
-68,-78,-9,73,-29,-43,-9,-63,-92,-78,-68,-39
-73,-78,-4,75,-34,-41,-9,-58,-92,-78,-68,-39
-73,-78,-4,75,-34,-41,-4,-58,-87,-78,-63,-34
-73,-78,-4,75,-34,-41,-4,-58,-87,-73,-63,-34
-82,-68,14,75,-48,-26,-14,-58,-87,-73,-58,-34
-82,-78,4,80,-43,-36,-4,-58,-87,-73,-58,-34
-78,-78,0,78,-39,-39,-4,-53,-87,-73,-68,-43
-78,-68,9,73,-43,-29,9,-48,-73,-68,-68,-48
-78,-73,4,75,-41,-34,24,-43,-58,-63,-68,-48
-82,-87,-4,85,-39,-46,39,-34,-39,-53,-58,-53
-92,-97,-4,95,-43,-51,53,-29,-14,-39,-63,-58
-107,-107,0,107,-53,-53,63,-14,9,-34,-63,-63
-122,-126,-4,124,-58,-65,82,-9,14,-24,-73,-63
-117,-122,-4,119,-56,-63,87,-9,29,-9,-58,-63
-131,-122,9,126,-70,-56,92,-9,39,0,-48,-63
-136,-136,0,136,-68,-68,97,-19,39,0,-48,-68
-136,-136,0,136,-68,-68,102,-19,39,0,-58,-68
-141,-136,4,139,-73,-65,117,4,58,4,-53,-68
-126,-112,14,119,-70,-48,122,24,87,39,-34,-53
-112,-92,19,102,-65,-36,122,63,117,68,4,-48
-78,-68,9,73,-43,-29,122,107,131,92,24,-34
-39,-29,9,34,-24,-9,102,151,151,122,63,-14
43,29,-14,-36,29,7,53,224,180,185,117,24
82,97,14,-90,34,56,9,248,214,239,175,63
151,180,29,-165,61,104,-68,273,263,312,253,107
239,253,14,-246,112,134,-151,307,273,361,322,161
336,322,-14,-329,175,153,-253,331,239,395,375,204
458,429,-29,-444,244,200,-375,380,204,463,473,273
512,492,-19,-502,265,236,-419,419,219,512,531,312
561,575,14,-568,273,295,-429,453,361,673,673,390
595,673,78,-634,258,375,-439,453,531,858,834,473
614,761,146,-688,234,453,-463,380,663,1015,966,546
585,829,244,-707,170,536,-483,224,761,1151,1088,629
566,829,263,-697,151,546,-473,151,766,1156,1088,629
502,756,253,-629,124,505,-424,39,712,1073,1010,600
419,673,253,-546,82,463,-366,-78,649,946,893,556
302,556,253,-429,24,405,-278,-170,531,766,736,488
156,375,219,-265,-31,297,-126,-253,336,468,483,370
73,253,180,-163,-53,217,-29,-263,219,273,326,292
-48,112,161,-31,-104,136,102,-273,92,63,151,200
-141,19,161,61,-151,90,209,-283,34,-78,24,126
-195,-48,146,122,-170,48,292,-263,34,-126,-34,78
-244,-97,146,170,-195,24,380,-234,78,-136,-78,43
-263,-122,141,192,-202,9,424,-229,97,-136,-97,19
-287,-165,122,226,-204,-21,468,-224,102,-126,-117,-14
-307,-190,117,248,-212,-36,492,-219,117,-122,-126,-39
-322,-224,97,273,-209,-63,502,-204,126,-122,-122,-58
-336,-248,87,292,-212,-80,512,-180,136,-97,-122,-73
-336,-244,92,290,-214,-75,517,-175,126,-97,-122,-82
-331,-263,68,297,-200,-97,507,-156,107,-107,-126,-92
-307,-263,43,285,-175,-109,488,-141,87,-107,-126,-92
-287,-253,34,270,-161,-109,458,-131,68,-97,-122,-82
-283,-234,48,258,-165,-92,395,-141,34,-107,-112,-68
-258,-209,48,234,-153,-80,361,-141,29,-107,-112,-68
-229,-185,43,207,-136,-70,312,-131,9,-92,-102,-63
-190,-156,34,173,-112,-61,258,-117,4,-82,-87,-48
-165,-131,34,148,-100,-48,219,-107,0,-78,-78,-43
-131,-117,14,124,-73,-51,156,-92,-19,-68,-58,-29
-136,-97,39,117,-87,-29,126,-82,-29,-58,-53,-24
-131,-92,39,112,-85,-26,102,-82,-29,-53,-43,-19
-117,-82,34,100,-75,-24,82,-73,-34,-39,-29,-9
-102,-78,24,90,-63,-26,63,-73,-24,-34,-34,-14
-87,-73,14,80,-51,-29,43,-63,-24,-43,-43,-14
-87,-73,14,80,-51,-29,39,-58,-24,-43,-43,-14
-78,-73,4,75,-41,-34,34,-58,-24,-43,-39,-14
-78,-68,9,73,-43,-29,34,-53,-24,-43,-39,-14
-78,-68,9,73,-43,-29,24,-63,-34,-53,-48,-24
-78,-68,9,73,-43,-29,24,-63,-34,-53,-48,-19
-78,-63,14,70,-46,-24,14,-58,-34,-48,-48,-19
-78,-63,14,70,-46,-24,14,-53,-39,-48,-48,-19
-78,-58,19,68,-48,-19,4,-63,-48,-48,-48,-19
-78,-58,19,68,-48,-19,4,-63,-48,-48,-43,-14
-78,-53,24,65,-51,-14,0,-63,-48,-48,-43,-14
-73,-53,19,63,-46,-17,0,-63,-48,-48,-43,-14
-82,-53,29,68,-56,-12,9,-53,-39,-39,-39,-9
-82,-53,29,68,-56,-12,4,-48,-39,-39,-34,-9
-82,-53,29,68,-56,-12,4,-48,-39,-39,-34,-4
-82,-53,29,68,-56,-12,4,-48,-39,-39,-29,-4
-73,-58,14,65,-43,-21,4,-48,-34,-39,-24,-9
-73,-58,14,65,-43,-21,4,-48,-34,-39,-24,-9
-68,-58,9,63,-39,-24,4,-48,-34,-39,-29,-9
-63,-58,4,61,-34,-26,0,-48,-29,-34,-29,-9
-63,-68,-4,65,-29,-36,0,-48,-39,-34,-34,-4
-63,-63,0,63,-31,-31,0,-48,-39,-34,-34,-4
-63,-63,0,63,-31,-31,0,-48,-34,-34,-34,0
-63,-63,0,63,-31,-31,0,-48,-34,-29,-34,0
-53,-63,-9,58,-21,-36,-4,-48,-34,-39,-24,-9
-53,-63,-9,58,-21,-36,-4,-48,-34,-39,-24,-14
-53,-58,-4,56,-24,-31,-4,-48,-34,-39,-24,-14
-53,-58,-4,56,-24,-31,-4,-48,-34,-39,-24,-14
-48,-48,0,48,-24,-24,-19,-48,-39,-39,-34,-14
-48,-48,0,48,-24,-24,-19,-48,-39,-39,-29,-14
-48,-48,0,48,-24,-24,-19,-48,-34,-34,-29,-9
-48,-48,0,48,-24,-24,-19,-48,-34,-29,-29,-9
-58,-58,0,58,-29,-29,-9,-39,-24,-29,-29,-14
-58,-53,4,56,-31,-24,-9,-39,-19,-29,-29,-14
-58,-53,4,56,-31,-24,-9,-39,-19,-29,-24,-14
-53,-48,4,51,-29,-21,-9,-39,-14,-24,-24,-14
-53,-48,4,51,-29,-21,-9,-39,-9,-34,-24,-9
-58,-48,9,53,-34,-19,-9,-39,-9,-34,-19,-9
-58,-48,9,53,-34,-19,-9,-39,-9,-29,-19,-9
-53,-48,4,51,-29,-21,-9,-34,-9,-24,-19,-9
-53,-58,-4,56,-24,-31,-9,-34,0,-14,-14,4
-53,-53,0,53,-26,-26,-9,-34,9,-9,-9,4
-53,-53,0,53,-26,-26,-9,-34,9,-9,-9,4
-48,-53,-4,51,-21,-29,-9,-34,9,-9,-9,4
-48,-43,4,46,-26,-19,-14,-39,4,-9,0,4
-48,-43,4,46,-26,-19,-14,-39,9,-4,0,4
-48,-34,14,41,-31,-9,-14,-34,14,0,0,4
-48,-34,14,41,-31,-9,-14,-34,9,0,0,9
-39,-34,4,36,-21,-14,-14,-34,14,9,4,9
-39,-29,9,34,-24,-9,-14,-34,19,14,4,9
-39,-29,9,34,-24,-9,-24,-34,24,14,4,9
-39,-24,14,31,-26,-4,-24,-34,39,19,14,9
-34,-29,4,31,-19,-12,-24,-34,43,24,4,0
-29,-29,0,29,-14,-14,-24,-34,43,24,4,4
-29,-19,9,24,-19,-4,-24,-34,48,24,9,4
-29,-24,4,26,-17,-9,-29,-34,43,24,14,9
-34,-14,19,24,-26,2,-29,-29,48,29,19,19
-29,-14,14,21,-21,0,-29,-29,53,29,19,24
-34,-9,24,21,-29,7,-29,-29,53,34,19,24
-39,-4,34,21,-36,14,-29,-29,58,39,29,34
-29,0,29,14,-29,14,-34,-14,68,43,34,24
-29,4,34,12,-31,19,-34,-14,73,48,43,24
-14,9,24,2,-19,17,-34,-14,82,58,43,29
-24,14,39,4,-31,26,-34,-14,87,63,48,29
-24,19,43,2,-34,31,-39,-19,92,68,43,19
-14,24,39,-4,-26,31,-39,-19,97,73,48,24
-9,24,34,-7,-21,29,-39,-19,107,78,53,29
-9,29,39,-9,-24,34,-43,-19,117,87,53,29
0,24,24,-12,-12,24,-43,-19,112,92,58,34
9,29,19,-19,-4,24,-43,-14,117,97,68,39
14,39,24,-26,-4,31,-53,-14,131,102,73,43
19,43,24,-31,-2,34,-58,-9,141,107,78,43
24,48,24,-36,0,36,-48,0,156,126,87,53
24,53,29,-39,-2,41,-53,9,165,126,97,63
29,63,34,-46,-2,48,-53,9,170,141,107,68
29,68,39,-48,-4,53,-58,9,185,151,122,73
34,73,39,-53,-2,56,-58,0,185,156,122,63
34,78,43,-56,-4,61,-63,4,190,156,122,63
39,87,48,-63,-4,68,-68,4,200,165,131,73
43,92,48,-68,-2,70,-68,14,214,180,126,82
39,87,48,-63,-4,68,-82,19,219,190,141,73
43,97,53,-70,-4,75,-82,24,234,200,141,78
48,102,53,-75,-2,78,-87,29,253,209,151,87
53,107,53,-80,0,80,-87,34,258,224,156,92
68,112,43,-90,12,78,-87,29,278,234,161,97
73,122,48,-97,12,85,-92,29,287,244,175,97
78,131,53,-104,12,92,-97,39,302,253,180,97
78,136,58,-107,9,97,-97,43,312,253,185,107
73,131,58,-102,7,95,-97,43,312,258,195,107
78,136,58,-107,9,97,-97,48,326,268,200,112
87,141,53,-114,17,97,-107,48,331,278,214,117
92,156,63,-124,14,109,-107,53,341,287,214,122
107,161,53,-134,26,107,-107,58,356,307,229,126
112,165,53,-139,29,109,-107,63,366,317,234,131
117,175,58,-146,29,117,-117,68,375,317,239,136
126,180,53,-153,36,117,-117,68,375,322,244,136
141,195,53,-168,43,124,-122,68,390,331,239,146
141,195,53,-168,43,124,-126,78,390,336,248,151
151,195,43,-173,53,119,-126,82,405,341,248,156
156,204,48,-180,53,126,-131,82,409,341,253,156
146,209,63,-178,41,136,-141,73,405,336,253,156
146,209,63,-178,41,136,-136,82,409,341,258,156
146,209,63,-178,41,136,-131,92,414,341,263,156
161,209,48,-185,56,129,-126,92,414,341,263,156
151,209,58,-180,46,134,-126,102,424,341,273,165
146,209,63,-178,41,136,-126,107,419,336,273,165
146,209,63,-178,41,136,-126,107,405,326,263,161
141,209,68,-175,36,139,-122,107,395,322,258,161
146,190,43,-168,51,117,-122,107,395,317,248,141
146,180,34,-163,56,107,-117,102,380,302,244,141
141,180,39,-161,51,109,-112,92,370,292,229,136
136,165,29,-151,53,97,-112,87,351,273,224,131
122,161,39,-141,41,100,-102,92,336,268,214,126
117,151,34,-134,41,92,-102,87,322,258,204,126
107,141,34,-124,36,87,-97,82,307,244,195,122
102,131,29,-117,36,80,-92,82,292,229,185,112
92,131,39,-112,26,85,-87,68,287,219,170,107
97,117,19,-107,39,68,-82,58,273,209,165,102
92,112,19,-102,36,65,-78,48,258,195,151,87
87,102,14,-95,36,58,-73,48,244,180,141,87
68,92,24,-80,21,58,-68,53,224,165,131,82
63,78,14,-70,24,46,-63,39,204,161,122,73
63,68,4,-65,29,36,-63,39,185,141,112,68
48,58,9,-53,19,34,-58,34,170,131,102,63
48,48,0,-48,24,24,-53,14,151,112,97,58
34,39,4,-36,14,21,-48,9,136,107,87,48
19,29,9,-24,4,19,-43,4,122,92,78,43
19,24,4,-21,7,14,-43,0,107,82,68,39
4,14,9,-9,-2,12,-29,0,107,82,63,34
0,9,9,-4,-4,9,-29,0,97,73,53,34
-9,-4,4,7,-7,0,-19,0,82,63,43,24
-24,-9,14,17,-19,2,-19,0,68,53,34,24
-24,-19,4,21,-14,-7,-4,-4,63,43,34,14
-29,-19,9,24,-19,-4,0,-4,58,39,29,14
-29,-34,-4,31,-12,-19,0,-4,48,29,24,4
-34,-43,-9,39,-12,-26,0,-9,39,19,9,4
-43,-48,-4,46,-19,-26,4,-9,29,9,14,0
-43,-53,-9,48,-17,-31,4,-9,19,9,9,-4
-43,-53,-9,48,-17,-31,4,-14,14,0,4,-14
-48,-58,-9,53,-19,-34,4,-14,4,-9,0,-14
-39,-53,-14,46,-12,-34,9,-24,-4,-9,-9,-19
-39,-58,-19,48,-9,-39,9,-24,-9,-14,-19,-24
-43,-63,-19,53,-12,-41,9,-24,-19,-19,-24,-24
-43,-63,-19,53,-12,-41,14,-24,-24,-29,-24,-24
-34,-73,-39,53,2,-56,4,-29,-39,-34,-29,-29
-39,-78,-39,58,0,-58,4,-29,-43,-39,-34,-34
-39,-82,-43,61,2,-63,4,-29,-48,-39,-34,-34
-39,-82,-43,61,2,-63,4,-29,-53,-43,-34,-34
-43,-78,-34,61,-4,-56,0,-29,-48,-53,-43,-34
-43,-82,-39,63,-2,-61,0,-29,-53,-58,-48,-39
-43,-82,-39,63,-2,-61,0,-29,-53,-58,-48,-39
-39,-87,-48,63,4,-68,0,-34,-58,-63,-53,-39
-39,-87,-48,63,4,-68,9,-24,-63,-53,-53,-34
-43,-87,-43,65,0,-65,9,-24,-63,-58,-53,-34
-43,-87,-43,65,0,-65,9,-24,-63,-58,-48,-34
-43,-87,-43,65,0,-65,9,-24,-58,-58,-48,-34
-58,-92,-34,75,-12,-63,19,-24,-68,-58,-53,-39
-63,-97,-34,80,-14,-65,19,-24,-68,-58,-53,-39
-68,-107,-39,87,-14,-73,19,-24,-73,-63,-53,-43
-78,-112,-34,95,-21,-73,14,-24,-78,-63,-58,-43
-68,-102,-34,85,-17,-68,14,-24,-78,-73,-48,-43
-68,-107,-39,87,-14,-73,14,-29,-73,-73,-53,-43
-68,-107,-39,87,-14,-73,19,-29,-73,-73,-53,-43
-68,-107,-39,87,-14,-73,19,-29,-73,-73,-53,-43
-53,-102,-48,78,-2,-75,9,-29,-82,-73,-63,-43
-53,-102,-48,78,-2,-75,14,-29,-82,-73,-63,-43
-53,-102,-48,78,-2,-75,14,-29,-82,-73,-63,-43
-58,-102,-43,80,-7,-73,14,-24,-82,-68,-63,-43
-63,-107,-43,85,-9,-75,14,-24,-73,-78,-58,-53
-63,-107,-43,85,-9,-75,14,-24,-73,-78,-58,-53
-73,-107,-34,90,-19,-70,14,-24,-73,-78,-58,-53
-63,-117,-53,90,-4,-85,14,-24,-73,-78,-63,-53
-63,-107,-43,85,-9,-75,14,-29,-78,-73,-53,-48
-58,-102,-43,80,-7,-73,14,-29,-78,-73,-53,-48
-53,-102,-48,78,-2,-75,14,-29,-78,-73,-53,-48
-48,-102,-53,75,2,-78,14,-29,-73,-73,-53,-48
-48,-97,-48,73,0,-73,14,-19,-73,-73,-58,-48
-48,-97,-48,73,0,-73,14,-19,-78,-73,-58,-48
-53,-102,-48,78,-2,-75,14,-19,-78,-73,-58,-48
-53,-102,-48,78,-2,-75,9,-19,-78,-73,-58,-48
-63,-107,-43,85,-9,-75,9,-34,-82,-73,-68,-48
-63,-107,-43,85,-9,-75,9,-34,-82,-73,-68,-48
-63,-102,-39,82,-12,-70,9,-34,-82,-73,-68,-48
-63,-97,-34,80,-14,-65,9,-29,-82,-73,-68,-48
-68,-107,-39,87,-14,-73,9,-39,-73,-68,-58,-53
-68,-102,-34,85,-17,-68,9,-39,-78,-68,-58,-53
-63,-102,-39,82,-12,-70,9,-39,-78,-68,-58,-53
-63,-102,-39,82,-12,-70,9,-39,-78,-68,-58,-53
-58,-92,-34,75,-12,-63,19,-34,-87,-68,-58,-43
-58,-92,-34,75,-12,-63,19,-34,-82,-68,-58,-43
-58,-92,-34,75,-12,-63,19,-34,-82,-68,-58,-43
-58,-92,-34,75,-12,-63,19,-34,-82,-68,-58,-43
-58,-92,-34,75,-12,-63,19,-34,-82,-68,-58,-43
-58,-97,-39,78,-9,-68,19,-34,-82,-68,-58,-43
-58,-97,-39,78,-9,-68,19,-34,-82,-68,-58,-43
-53,-97,-43,75,-4,-70,19,-34,-82,-63,-53,-43
-43,-107,-63,75,9,-85,9,-24,-82,-63,-53,-43
-43,-102,-58,73,7,-80,9,-24,-82,-63,-53,-43
-53,-97,-43,75,-4,-70,9,-24,-78,-63,-53,-43
-53,-92,-39,73,-7,-65,9,-24,-78,-58,-48,-43
-53,-82,-29,68,-12,-56,9,-24,-78,-68,-58,-43
-48,-82,-34,65,-7,-58,9,-24,-78,-68,-58,-43
-48,-82,-34,65,-7,-58,9,-24,-78,-68,-58,-43
-48,-87,-39,68,-4,-63,9,-24,-78,-68,-58,-39
-58,-92,-34,75,-12,-63,9,-24,-82,-68,-58,-39
-58,-92,-34,75,-12,-63,9,-29,-82,-68,-58,-43
-53,-87,-34,70,-9,-61,4,-29,-82,-68,-58,-43
-48,-82,-34,65,-7,-58,4,-29,-82,-68,-58,-43
-58,-87,-29,73,-14,-58,14,-14,-82,-58,-48,-43
-58,-87,-29,73,-14,-58,14,-14,-82,-58,-48,-43
-58,-87,-29,73,-14,-58,14,-14,-82,-58,-48,-43
-58,-87,-29,73,-14,-58,14,-14,-82,-58,-48,-43
-48,-87,-39,68,-4,-63,14,-14,-82,-68,-48,-43
-48,-87,-39,68,-4,-63,14,-14,-78,-68,-48,-43
-48,-92,-43,70,-2,-68,14,-14,-78,-68,-48,-43
-53,-92,-39,73,-7,-65,14,-14,-78,-68,-48,-43
-58,-92,-34,75,-12,-63,14,-14,-78,-68,-48,-43
-58,-92,-34,75,-12,-63,14,-14,-78,-68,-48,-43
-53,-87,-34,70,-9,-61,14,-9,-78,-63,-48,-43
-53,-87,-34,70,-9,-61,14,-9,-82,-63,-48,-43
-53,-97,-43,75,-4,-70,14,-9,-82,-68,-53,-53
-48,-97,-48,73,0,-73,19,-9,-82,-68,-53,-48
-48,-97,-48,73,0,-73,19,-9,-82,-68,-53,-43
-53,-97,-43,75,-4,-70,19,-9,-87,-63,-53,-43
-53,-97,-43,75,-4,-70,19,-9,-87,-73,-63,-48
-53,-97,-43,75,-4,-70,14,-9,-82,-73,-63,-53
-53,-97,-43,75,-4,-70,14,-9,-82,-73,-63,-53
-53,-97,-43,75,-4,-70,14,-9,-82,-78,-63,-53
-53,-97,-43,75,-4,-70,14,-9,-92,-78,-68,-53
-53,-102,-48,78,-2,-75,9,-9,-97,-78,-68,-53
-48,-102,-53,75,2,-78,9,-9,-97,-78,-68,-53
-48,-97,-48,73,0,-73,9,-9,-97,-78,-68,-53
-53,-97,-43,75,-4,-70,19,0,-97,-78,-58,-53
-53,-97,-43,75,-4,-70,19,0,-92,-78,-58,-53
-53,-97,-43,75,-4,-70,24,0,-92,-78,-58,-53
-53,-97,-43,75,-4,-70,24,0,-92,-78,-58,-53
-53,-97,-43,75,-4,-70,14,0,-92,-78,-58,-53
-53,-97,-43,75,-4,-70,14,0,-92,-82,-58,-53
-53,-97,-43,75,-4,-70,14,0,-102,-82,-63,-58
-58,-97,-39,78,-9,-68,14,0,-92,-87,-63,-58
-53,-97,-43,75,-4,-70,14,-9,-92,-87,-63,-58
-53,-97,-43,75,-4,-70,14,-9,-97,-87,-63,-58
-53,-102,-48,78,-2,-75,14,-9,-102,-87,-63,-58
-58,-102,-43,80,-7,-73,14,-9,-102,-87,-63,-58
-48,-92,-43,70,-2,-68,24,0,-97,-87,-63,-53
-43,-92,-48,68,2,-70,24,4,-97,-87,-63,-53
-43,-92,-48,68,2,-70,24,4,-97,-87,-63,-53
-43,-97,-53,70,4,-75,24,4,-102,-87,-63,-58
-43,-107,-63,75,9,-85,14,-4,-107,-87,-73,-68
-43,-107,-63,75,9,-85,14,-4,-112,-92,-73,-68
-43,-107,-63,75,9,-85,14,-9,-112,-92,-78,-68
-39,-107,-68,73,14,-87,14,-14,-112,-92,-78,-63
-43,-117,-73,80,14,-95,24,-9,-117,-92,-78,-63
-53,-117,-63,85,4,-90,19,-4,-117,-92,-78,-68
-58,-117,-58,87,0,-87,19,0,-112,-92,-78,-68
-58,-117,-58,87,0,-87,19,4,-112,-97,-78,-68
-58,-117,-58,87,0,-87,19,-4,-112,-97,-78,-68
-58,-117,-58,87,0,-87,24,-4,-112,-97,-78,-68
-58,-117,-58,87,0,-87,24,0,-107,-97,-78,-68
-58,-117,-58,87,0,-87,24,0,-107,-97,-78,-68
-48,-117,-68,82,9,-92,24,0,-117,-107,-78,-68
-53,-122,-68,87,7,-95,19,0,-122,-107,-78,-68
-63,-122,-58,92,-2,-90,14,-4,-122,-107,-82,-68
-53,-122,-68,87,7,-95,14,-4,-122,-107,-82,-68
-63,-122,-58,92,-2,-90,24,-4,-117,-97,-82,-68
-68,-122,-53,95,-7,-87,24,-4,-117,-97,-82,-68
-68,-122,-53,95,-7,-87,29,-4,-117,-97,-82,-68
-68,-122,-53,95,-7,-87,34,-4,-117,-97,-82,-68
-63,-122,-58,92,-2,-90,24,-4,-117,-102,-82,-68
-63,-122,-58,92,-2,-90,24,0,-112,-102,-82,-68
-58,-122,-63,90,2,-92,24,4,-112,-102,-82,-68
-48,-122,-73,85,12,-97,24,9,-117,-102,-82,-68
-58,-131,-73,95,7,-102,24,0,-126,-112,-82,-68
-53,-131,-78,92,12,-104,24,4,-126,-112,-82,-68
-48,-131,-82,90,17,-107,24,4,-126,-112,-87,-73
-48,-136,-87,92,19,-112,24,4,-126,-112,-87,-73
-48,-126,-78,87,14,-102,24,4,-126,-112,-87,-73
-48,-126,-78,87,14,-102,24,4,-131,-112,-87,-73
-53,-126,-73,90,9,-100,24,4,-131,-112,-87,-73
-63,-122,-58,92,-2,-90,19,9,-122,-112,-82,-73
-53,-126,-73,90,9,-100,29,0,-122,-122,-92,-73
-53,-131,-78,92,12,-104,29,0,-126,-122,-92,-73
-48,-136,-87,92,19,-112,29,0,-126,-122,-92,-73
-43,-141,-97,92,26,-119,34,0,-126,-122,-92,-73
-53,-141,-87,97,17,-114,24,0,-126,-112,-92,-73
-53,-146,-92,100,19,-119,24,0,-126,-112,-92,-73
-63,-146,-82,104,9,-114,24,-4,-131,-112,-92,-73
-53,-146,-92,100,19,-119,24,-4,-131,-112,-92,-73
-53,-146,-92,100,19,-119,29,4,-136,-122,-92,-73
-53,-146,-92,100,19,-119,29,4,-136,-122,-97,-73
-53,-146,-92,100,19,-119,29,4,-136,-122,-97,-73
-53,-146,-92,100,19,-119,29,9,-136,-122,-97,-73
-58,-146,-87,102,14,-117,29,9,-146,-122,-97,-73
-58,-146,-87,102,14,-117,29,9,-141,-122,-97,-73
-63,-146,-82,104,9,-114,29,9,-141,-122,-97,-73
-63,-146,-82,104,9,-114,29,9,-141,-126,-97,-73
-53,-151,-97,102,21,-124,29,9,-131,-126,-97,-82
-53,-151,-97,102,21,-124,29,9,-136,-126,-97,-82
-53,-146,-92,100,19,-119,29,4,-146,-126,-97,-82
-53,-146,-92,100,19,-119,29,4,-146,-126,-97,-82
-63,-146,-82,104,9,-114,19,4,-141,-126,-97,-73
-58,-146,-87,102,14,-117,19,4,-141,-126,-92,-73
-58,-146,-87,102,14,-117,19,9,-141,-126,-87,-73
-58,-146,-87,102,14,-117,19,9,-141,-126,-87,-73
-48,-146,-97,97,24,-122,29,9,-131,-126,-107,-82
-48,-146,-97,97,24,-122,29,9,-131,-126,-107,-82
-48,-146,-97,97,24,-122,29,14,-131,-126,-107,-82
-48,-146,-97,97,24,-122,29,14,-131,-122,-107,-82
-53,-151,-97,102,21,-124,29,19,-141,-122,-107,-82
-63,-151,-87,107,12,-119,29,19,-141,-122,-102,-82
-63,-146,-82,104,9,-114,29,19,-141,-122,-102,-82
-58,-146,-87,102,14,-117,29,19,-146,-122,-102,-82
-53,-146,-92,100,19,-119,29,9,-146,-122,-102,-82
-58,-146,-87,102,14,-117,29,9,-136,-117,-107,-87
-48,-146,-97,97,24,-122,29,19,-136,-117,-97,-87
-48,-146,-97,97,24,-122,29,19,-136,-117,-97,-87
-48,-146,-97,97,24,-122,29,19,-136,-117,-97,-87
-48,-146,-97,97,24,-122,29,19,-136,-117,-97,-87
-48,-131,-82,90,17,-107,39,19,-126,-112,-92,-78
-48,-126,-78,87,14,-102,43,29,-117,-102,-87,-78
-48,-112,-63,80,7,-87,43,29,-107,-97,-82,-73
-43,-112,-68,78,12,-90,43,29,-97,-92,-78,-73
-39,-107,-68,73,14,-87,48,34,-97,-87,-73,-73
-34,-97,-63,65,14,-80,48,34,-87,-82,-68,-63
-34,-92,-58,63,12,-75,48,34,-82,-78,-68,-58
-34,-87,-53,61,9,-70,48,34,-78,-68,-68,-58
-34,-97,-63,65,14,-80,53,34,-73,-68,-63,-58
-34,-97,-63,65,14,-80,53,39,-68,-68,-63,-58
-34,-97,-63,65,14,-80,58,39,-68,-68,-63,-58
-34,-97,-63,65,14,-80,58,43,-63,-63,-58,-58
-34,-107,-73,70,19,-90,48,43,-68,-68,-58,-68
-24,-102,-78,63,26,-90,48,48,-63,-68,-53,-68
-14,-92,-78,53,31,-85,48,48,-58,-63,-48,-63
0,-87,-87,43,43,-87,39,53,-58,-58,-48,-53
9,-68,-78,29,43,-73,29,48,-48,-53,-48,-48
14,-53,-68,19,41,-61,24,48,-39,-48,-34,-43
24,-43,-68,9,46,-56,19,48,-34,-43,-29,-39
29,-34,-63,2,46,-48,14,48,-29,-34,-24,-34
29,-19,-48,-4,39,-34,19,48,-29,-24,-19,-29
29,-19,-48,-4,39,-34,14,39,-29,-24,-19,-24
29,-14,-43,-7,36,-29,9,39,-29,-24,-19,-24
29,-14,-43,-7,36,-29,4,34,-34,-29,-19,-24
29,-19,-48,-4,39,-34,-9,34,-48,-34,-9,-14
29,-19,-48,-4,39,-34,-24,29,-53,-34,-9,-14
29,-4,-34,-12,31,-19,-34,24,-53,-34,-9,-4
34,4,-29,-19,31,-12,-43,19,-53,-24,0,0
43,19,-24,-31,34,-2,-53,4,-58,-29,0,0
43,29,-14,-36,29,7,-53,4,-58,-29,4,9
43,29,-14,-36,29,7,-58,-4,-63,-29,4,9
43,24,-19,-34,31,2,-58,-9,-78,-39,0,9
34,4,-29,-19,31,-12,-53,0,-87,-58,-19,0
29,-14,-43,-7,36,-29,-53,0,-97,-68,-24,-9
9,-29,-39,9,24,-34,-43,0,-112,-82,-39,-19
4,-43,-48,19,26,-46,-39,0,-126,-97,-48,-29
0,-58,-58,29,29,-58,-24,0,-131,-92,-48,-34
-19,-73,-53,46,17,-63,-19,0,-141,-97,-58,-43
-24,-82,-58,53,17,-70,-14,0,-151,-107,-63,-53
-34,-97,-63,65,14,-80,-9,0,-151,-107,-73,-58
-39,-107,-68,73,14,-87,-4,-4,-151,-112,-78,-63
-48,-117,-68,82,9,-92,0,-4,-151,-117,-82,-73
-48,-122,-73,85,12,-97,0,-4,-156,-122,-87,-82
-53,-131,-78,92,12,-104,0,-4,-161,-126,-97,-82
-68,-141,-73,104,2,-107,14,-4,-165,-131,-107,-78
-68,-151,-82,109,7,-117,14,-4,-170,-141,-112,-87
-68,-161,-92,114,12,-126,19,4,-170,-146,-112,-92
-68,-161,-92,114,12,-126,19,4,-170,-151,-117,-92
-58,-165,-107,112,24,-136,19,0,-170,-151,-117,-97
-58,-170,-112,114,26,-141,19,0,-175,-151,-117,-97
-58,-175,-117,117,29,-146,19,4,-175,-151,-117,-97
-63,-175,-112,119,24,-143,19,4,-175,-151,-122,-97
-63,-175,-112,119,24,-143,19,4,-180,-151,-122,-107
-63,-175,-112,119,24,-143,19,4,-180,-151,-122,-107
-63,-175,-112,119,24,-143,24,4,-180,-156,-122,-107
-63,-175,-112,119,24,-143,24,4,-180,-156,-122,-107
-63,-175,-112,119,24,-143,14,4,-180,-156,-122,-107
-68,-175,-107,122,19,-141,14,4,-180,-151,-122,-107
-68,-175,-107,122,19,-141,14,4,-180,-151,-122,-112
-68,-180,-112,124,21,-146,19,4,-180,-156,-122,-112
-68,-180,-112,124,21,-146,19,4,-180,-156,-122,-112
-68,-180,-112,124,21,-146,19,4,-180,-156,-122,-112
-68,-180,-112,124,21,-146,19,4,-180,-156,-122,-112
-68,-180,-112,124,21,-146,19,4,-180,-156,-122,-112
-68,-180,-112,124,21,-146,19,4,-170,-156,-122,-107
-68,-180,-112,124,21,-146,19,4,-170,-156,-126,-107
-68,-185,-117,126,24,-151,19,4,-170,-156,-126,-107
-68,-185,-117,126,24,-151,19,4,-170,-156,-126,-107
-78,-195,-117,136,19,-156,19,4,-170,-146,-126,-97
-78,-195,-117,136,19,-156,19,4,-170,-146,-126,-97
-78,-195,-117,136,19,-156,24,4,-170,-146,-126,-97
-78,-195,-117,136,19,-156,24,4,-170,-146,-126,-97
-68,-195,-126,131,29,-161,9,-4,-180,-146,-126,-107
-73,-195,-122,134,24,-158,9,0,-180,-146,-126,-107
-73,-195,-122,134,24,-158,14,0,-175,-146,-122,-102
-73,-195,-122,134,24,-158,14,0,-175,-141,-122,-102
-43,-195,-151,119,53,-173,24,9,-175,-151,-136,-112
-73,-175,-102,124,14,-139,24,0,-165,-141,-126,-92
-87,-175,-87,131,0,-131,24,4,-156,-141,-126,-92
-97,-195,-97,146,0,-146,39,9,-141,-136,-117,-107
-97,-200,-102,148,2,-151,43,14,-126,-131,-126,-117
-102,-214,-112,158,4,-163,58,24,-117,-131,-136,-122
-122,-234,-112,178,-4,-173,92,39,-92,-117,-131,-126
-136,-234,-97,185,-19,-165,102,34,-87,-122,-131,-131
-141,-234,-92,187,-24,-163,102,29,-73,-102,-131,-131
-136,-229,-92,183,-21,-161,107,39,-58,-87,-126,-122
-141,-229,-87,185,-26,-158,112,29,-48,-87,-126,-131
-146,-244,-97,195,-24,-170,117,29,-68,-107,-136,-136
-156,-244,-87,200,-34,-165,122,29,-58,-107,-126,-136
-141,-224,-82,183,-29,-153,126,43,-29,-73,-112,-126
-126,-200,-73,163,-26,-136,131,82,0,-48,-92,-112
-112,-190,-78,151,-17,-134,141,112,9,-19,-63,-107
-68,-146,-78,107,4,-112,122,175,43,24,-24,-82
-29,-117,-87,73,29,-102,102,229,73,63,14,-63
43,-48,-92,2,68,-70,43,273,112,126,78,-24
102,29,-73,-65,87,-21,-19,317,165,190,146,24
170,102,-68,-136,119,17,-87,341,204,263,214,58
307,214,-92,-261,200,61,-200,405,214,322,292,122
395,283,-112,-339,253,85,-292,458,200,366,356,165
497,361,-136,-429,317,112,-356,517,224,444,453,224
570,444,-126,-507,348,158,-380,575,307,551,551,273
610,517,-92,-563,351,212,-390,610,458,702,683,331
653,653,0,-653,326,326,-429,580,688,966,893,453
653,712,58,-683,297,385,-453,458,780,1083,985,507
614,741,126,-678,244,434,-463,312,819,1141,1049,551
566,741,175,-653,195,458,-444,190,805,1127,1049,561
502,678,175,-590,163,427,-395,78,732,1034,971,531
361,527,165,-444,97,346,-307,-126,551,800,766,448
263,419,156,-341,53,287,-219,-200,385,580,600,390
136,268,131,-202,2,200,-87,-253,170,302,385,292
34,136,102,-85,-34,119,29,-283,4,58,209,195
-58,34,92,12,-75,63,131,-292,-112,-112,73,122
-161,-87,73,124,-117,-7,248,-283,-190,-253,-63,58
-195,-136,58,165,-126,-39,312,-263,-170,-273,-102,29
-244,-195,48,219,-146,-73,380,-234,-126,-273,-126,-24
-273,-239,34,256,-153,-102,434,-219,-87,-253,-156,-58
-287,-263,24,275,-156,-119,458,-204,-43,-244,-165,-82
-307,-307,0,307,-153,-153,463,-190,0,-209,-175,-107
-312,-312,0,312,-156,-156,473,-185,19,-190,-180,-117
-317,-317,0,317,-158,-158,473,-161,29,-175,-170,-122
-317,-331,-14,324,-151,-173,468,-146,29,-165,-170,-131
-302,-331,-29,317,-136,-180,448,-136,9,-165,-175,-141
-268,-312,-43,290,-112,-178,390,-122,-19,-175,-165,-131
-258,-302,-43,280,-107,-173,351,-122,-48,-175,-161,-131
-234,-283,-48,258,-92,-165,307,-131,-73,-175,-161,-126
-209,-258,-48,234,-80,-153,263,-122,-78,-185,-161,-126
-200,-244,-43,222,-78,-143,234,-112,-87,-170,-151,-112
-170,-204,-34,187,-68,-119,170,-87,-102,-151,-126,-97
-156,-200,-43,178,-56,-122,141,-68,-97,-156,-117,-92
-141,-175,-34,158,-53,-104,117,-53,-107,-136,-107,-87
-126,-165,-39,146,-43,-102,97,-43,-97,-126,-92,-73
-122,-161,-39,141,-41,-100,82,-43,-97,-131,-102,-78
-107,-141,-34,124,-36,-87,73,-34,-92,-107,-87,-68
-102,-136,-34,119,-34,-85,53,-34,-92,-112,-82,-73
-87,-131,-43,109,-21,-87,34,-34,-102,-112,-92,-73
-87,-131,-43,109,-21,-87,29,-29,-102,-112,-92,-73
-78,-131,-53,104,-12,-92,24,-29,-102,-112,-87,-73
-78,-126,-48,102,-14,-87,24,-24,-102,-112,-87,-73
-78,-136,-58,107,-9,-97,24,-34,-102,-122,-87,-73
-78,-136,-58,107,-9,-97,24,-34,-102,-122,-87,-68
-78,-131,-53,104,-12,-92,14,-29,-102,-117,-87,-68
-78,-131,-53,104,-12,-92,14,-24,-107,-117,-87,-68
-78,-136,-58,107,-9,-97,14,-34,-107,-117,-87,-78
-78,-136,-58,107,-9,-97,14,-34,-107,-117,-82,-73
-78,-131,-53,104,-12,-92,9,-34,-107,-117,-82,-73
-73,-131,-58,102,-7,-95,9,-34,-107,-117,-82,-73
-73,-131,-58,102,-7,-95,9,-34,-97,-117,-82,-78
-73,-131,-58,102,-7,-95,4,-29,-97,-117,-82,-78
-73,-131,-58,102,-7,-95,4,-29,-97,-117,-87,-73
-73,-131,-58,102,-7,-95,4,-29,-97,-117,-87,-73
-82,-136,-53,109,-14,-95,4,-29,-102,-117,-82,-78
-82,-136,-53,109,-14,-95,4,-29,-102,-117,-82,-78
-78,-136,-58,107,-9,-97,4,-29,-102,-117,-87,-78
-73,-136,-63,104,-4,-100,0,-29,-97,-112,-87,-78
-63,-126,-63,95,0,-95,0,-29,-97,-112,-82,-82
-63,-122,-58,92,-2,-90,0,-29,-97,-112,-82,-82
-63,-122,-58,92,-2,-90,0,-29,-92,-112,-82,-78
-63,-122,-58,92,-2,-90,0,-29,-92,-107,-82,-78
-53,-122,-68,87,7,-95,-4,-19,-82,-97,-82,-68
-53,-122,-68,87,7,-95,-4,-19,-82,-97,-82,-73
-53,-117,-63,85,4,-90,-4,-19,-82,-97,-82,-73
-53,-117,-63,85,4,-90,-4,-19,-82,-97,-82,-73
-53,-126,-73,90,9,-100,-19,-19,-78,-97,-82,-63
-58,-126,-68,92,4,-97,-19,-19,-78,-97,-78,-63
-63,-126,-63,95,0,-95,-19,-19,-73,-92,-78,-58
-68,-126,-58,97,-4,-92,-19,-19,-73,-87,-78,-58
-68,-117,-48,92,-9,-82,-19,-19,-73,-87,-68,-63
-68,-112,-43,90,-12,-78,-19,-19,-68,-87,-68,-63
-68,-112,-43,90,-12,-78,-19,-19,-68,-87,-63,-63
-63,-107,-43,85,-9,-75,-19,-19,-63,-82,-63,-63
-53,-97,-43,75,-4,-70,-19,-29,-68,-82,-73,-58
-58,-97,-39,78,-9,-68,-19,-29,-68,-82,-68,-58
-58,-97,-39,78,-9,-68,-19,-29,-68,-78,-68,-58
-53,-97,-43,75,-4,-70,-19,-24,-68,-73,-68,-58
-63,-107,-43,85,-9,-75,-19,-24,-58,-73,-63,-53
-63,-102,-39,82,-12,-70,-19,-24,-48,-68,-58,-53
-63,-102,-39,82,-12,-70,-19,-24,-48,-68,-58,-53
-58,-102,-43,80,-7,-73,-19,-24,-48,-68,-58,-53
-48,-102,-53,75,2,-78,-24,-29,-48,-68,-48,-53
-48,-102,-53,75,2,-78,-24,-29,-39,-63,-48,-53
-48,-92,-43,70,-2,-68,-24,-24,-29,-58,-48,-53
-48,-92,-43,70,-2,-68,-24,-24,-29,-58,-48,-48
-48,-92,-43,70,-2,-68,-24,-24,-19,-58,-43,-48
-48,-87,-39,68,-4,-63,-24,-24,-19,-53,-43,-48
-48,-87,-39,68,-4,-63,-34,-24,-19,-53,-43,-48
-48,-82,-34,65,-7,-58,-34,-24,-9,-48,-34,-48
-53,-82,-29,68,-12,-56,-43,-34,-9,-39,-34,-48
-48,-78,-29,63,-9,-53,-43,-34,-4,-34,-34,-43
-48,-63,-14,56,-17,-39,-43,-34,4,-29,-29,-43
-48,-63,-14,56,-17,-39,-48,-34,4,-24,-24,-39
-39,-53,-14,46,-12,-34,-48,-29,9,-19,-19,-48
-29,-53,-24,41,-2,-39,-48,-29,14,-19,-19,-43
-29,-48,-19,39,-4,-34,-48,-29,14,-14,-19,-43
-29,-43,-14,36,-7,-29,-48,-29,19,-9,-9,-34
-39,-39,0,39,-19,-19,-53,-24,29,4,-4,-24
-39,-34,4,36,-21,-14,-53,-24,34,9,4,-24
-24,-29,-4,26,-9,-17,-53,-24,43,19,4,-19
-34,-24,9,29,-21,-7,-53,-24,48,24,9,-19
-34,-19,14,26,-24,-2,-48,-19,63,29,14,-19
-24,-14,9,19,-17,-2,-48,-19,68,34,19,-14
-19,-14,4,17,-12,-4,-48,-19,78,39,24,-9
-19,-9,9,14,-14,0,-53,-19,87,48,24,-9
-4,-4,0,4,-2,-2,-53,-9,92,63,39,4
0,0,0,0,0,0,-53,-4,97,68,48,9
0,9,9,-4,-4,9,-63,-4,112,73,53,14
0,14,14,-7,-7,14,-68,0,122,78,58,14
0,19,19,-9,-9,19,-58,0,126,97,73,14
4,24,19,-14,-7,21,-63,9,136,97,78,24
14,34,19,-24,-2,26,-63,9,141,112,82,29
19,39,19,-29,0,29,-68,9,156,122,92,34
24,43,19,-34,2,31,-73,0,165,126,87,24
24,48,24,-36,0,36,-82,4,170,126,92,24
29,58,29,-43,0,43,-92,4,180,136,107,34
34,63,29,-48,2,46,-97,14,195,151,107,43
39,78,39,-58,0,58,-92,9,209,161,131,43
43,87,43,-65,0,65,-92,14,224,170,131,48
48,92,43,-70,2,68,-97,19,244,180,141,58
53,97,43,-75,4,70,-97,24,248,195,146,63
58,92,34,-75,12,63,-107,29,258,204,141,68
63,102,39,-82,12,70,-112,29,268,214,156,68
68,112,43,-90,12,78,-117,39,283,224,161,68
68,117,48,-92,9,82,-117,43,292,224,165,78
82,122,39,-102,21,80,-117,43,302,239,175,78
87,126,39,-107,24,82,-117,48,317,248,180,82
97,131,34,-114,31,82,-126,48,322,258,195,87
102,146,43,-124,29,95,-126,53,331,268,195,92
97,161,63,-129,17,112,-117,58,356,287,219,107
102,165,63,-134,19,114,-117,63,366,297,224,112
107,175,68,-141,19,122,-126,68,375,297,229,117
117,180,63,-148,26,122,-126,68,375,302,234,117
112,185,73,-148,19,129,-131,58,390,312,239,117
112,185,73,-148,19,129,-136,68,390,317,248,122
122,185,63,-153,29,124,-136,73,405,322,248,126
126,195,68,-161,29,131,-141,73,409,322,253,126
126,209,82,-168,21,146,-151,63,405,317,253,126
126,209,82,-168,21,146,-146,73,409,322,258,126
126,209,82,-168,21,146,-141,82,414,322,263,126
141,209,68,-175,36,139,-136,82,414,322,263,126
151,209,58,-180,46,134,-146,73,414,322,253,126
146,209,63,-178,41,136,-146,78,409,317,253,126
146,209,63,-178,41,136,-146,78,395,307,244,122
141,209,68,-175,36,139,-141,78,385,302,239,122
136,195,58,-165,39,126,-141,87,375,287,229,122
136,180,43,-158,46,112,-136,82,361,273,224,122
131,175,43,-153,43,109,-131,73,351,263,209,117
126,156,29,-141,48,92,-131,68,331,244,204,112
122,151,29,-136,46,90,-122,63,317,239,195,97
117,141,24,-129,46,82,-122,58,302,229,185,97
107,131,24,-119,41,78,-117,53,287,214,175,92
102,122,19,-112,41,70,-112,53,273,200,165,82
87,122,34,-104,26,78,-107,58,258,180,151,78
87,107,19,-97,34,63,-102,48,244,170,146,73
78,102,24,-90,26,63,-97,39,229,156,131,58
68,92,24,-80,21,58,-92,39,214,141,122,58
53,82,29,-68,12,56,-87,34,195,126,112,53
43,68,24,-56,9,46,-82,19,175,122,102,43
39,58,19,-48,9,39,-82,19,156,102,92,39
19,48,29,-34,-4,39,-78,14,141,92,82,34
29,48,19,-39,4,34,-73,4,131,82,78,29
14,39,24,-26,-4,31,-68,0,117,78,68,19
0,29,29,-14,-14,29,-63,-4,102,63,58,14
0,24,24,-12,-12,24,-63,-9,87,53,48,9
9,14,4,-12,2,9,-58,-14,78,43,43,4
9,9,0,-9,4,4,-58,-19,68,34,34,4
4,-4,-9,0,7,-7,-48,-24,53,24,24,-4
-4,-9,-4,7,0,-7,-48,-29,39,14,14,-4
-9,-19,-9,14,0,-14,-53,-34,24,9,14,-9
-19,-19,0,19,-9,-9,-48,-34,19,0,9,-14
-24,-34,-9,29,-7,-21,-48,-34,9,-14,4,-29
-34,-43,-9,39,-12,-26,-48,-39,0,-29,-9,-34
-39,-48,-9,43,-14,-29,-43,-39,-9,-29,-14,-29
-34,-53,-19,43,-7,-36,-43,-39,-19,-29,-19,-34
-29,-53,-24,41,-2,-39,-43,-43,-24,-39,-24,-43
-29,-58,-29,43,0,-43,-43,-43,-34,-48,-29,-43
-34,-63,-29,48,-2,-46,-29,-43,-34,-39,-29,-39
-39,-68,-29,53,-4,-48,-29,-43,-39,-43,-39,-43
-48,-73,-24,61,-12,-48,-29,-43,-48,-48,-43,-43
-53,-73,-19,63,-17,-46,-24,-43,-53,-58,-43,-43
-43,-73,-29,58,-7,-51,-24,-48,-58,-63,-48,-58
-48,-78,-29,63,-9,-53,-24,-48,-63,-68,-53,-63
-48,-82,-34,65,-7,-58,-24,-48,-68,-68,-53,-63
-48,-82,-34,65,-7,-58,-24,-48,-73,-73,-53,-63
-63,-78,-14,70,-24,-46,-29,-48,-68,-73,-53,-53
-63,-82,-19,73,-21,-51,-29,-48,-73,-78,-58,-58
-63,-82,-19,73,-21,-51,-29,-48,-73,-78,-58,-58
-58,-87,-29,73,-14,-58,-29,-53,-78,-82,-63,-58
-58,-97,-39,78,-9,-68,-29,-53,-92,-82,-73,-63
-63,-97,-34,80,-14,-65,-29,-53,-92,-87,-73,-63
-63,-97,-34,80,-14,-65,-29,-53,-92,-87,-68,-63
-63,-97,-34,80,-14,-65,-29,-53,-87,-87,-68,-63
-53,-97,-43,75,-4,-70,-39,-53,-87,-87,-73,-68
-53,-97,-43,75,-4,-70,-39,-53,-87,-87,-73,-68
-53,-102,-48,78,-2,-75,-39,-53,-92,-92,-73,-73
-58,-102,-43,80,-7,-73,-43,-53,-97,-92,-78,-73
-48,-92,-43,70,-2,-68,-43,-53,-97,-92,-68,-73
-48,-97,-48,73,0,-73,-43,-58,-92,-92,-73,-73
-48,-97,-48,73,0,-73,-39,-58,-92,-92,-73,-73
-48,-97,-48,73,0,-73,-39,-58,-92,-92,-73,-73
-48,-102,-53,75,2,-78,-39,-48,-92,-92,-63,-73
-53,-102,-48,78,-2,-75,-34,-48,-92,-92,-63,-73
-58,-102,-43,80,-7,-73,-34,-48,-92,-92,-63,-73
-68,-102,-34,85,-17,-68,-34,-43,-92,-87,-63,-73
-73,-87,-14,80,-29,-51,-24,-43,-82,-87,-48,-63
-73,-87,-14,80,-29,-51,-24,-43,-82,-87,-48,-63
-82,-87,-4,85,-39,-46,-24,-43,-82,-87,-48,-63
-73,-97,-24,85,-24,-61,-24,-43,-82,-87,-53,-63
-63,-87,-24,75,-19,-56,-24,-48,-87,-92,-63,-58
-58,-82,-24,70,-17,-53,-24,-48,-87,-92,-63,-58
-53,-82,-29,68,-12,-56,-24,-48,-87,-92,-63,-58
-48,-82,-34,65,-7,-58,-24,-48,-82,-92,-63,-58
-58,-82,-24,70,-17,-53,-34,-48,-82,-92,-68,-68
-58,-87,-29,73,-14,-58,-34,-48,-87,-92,-68,-68
-63,-97,-34,80,-14,-65,-34,-48,-87,-92,-68,-68
-63,-102,-39,82,-12,-70,-39,-48,-87,-92,-68,-68
-53,-97,-43,75,-4,-70,-39,-63,-92,-82,-68,-68
-53,-97,-43,75,-4,-70,-39,-63,-92,-82,-68,-68
-53,-92,-39,73,-7,-65,-39,-63,-92,-82,-68,-68
-53,-87,-34,70,-9,-61,-39,-58,-92,-82,-68,-68
-58,-97,-39,78,-9,-68,-29,-58,-82,-78,-58,-63
-58,-92,-34,75,-12,-63,-29,-58,-87,-78,-58,-63
-53,-92,-39,73,-7,-65,-29,-58,-87,-78,-58,-63
-53,-92,-39,73,-7,-65,-29,-58,-87,-78,-58,-63
-68,-92,-24,80,-21,-58,-39,-63,-87,-78,-58,-63
-68,-92,-24,80,-21,-58,-39,-63,-82,-78,-58,-63
-68,-92,-24,80,-21,-58,-39,-63,-82,-78,-58,-63
-68,-92,-24,80,-21,-58,-39,-63,-82,-78,-58,-63
-63,-82,-19,73,-21,-51,-29,-63,-82,-78,-68,-63
-58,-87,-29,73,-14,-58,-29,-63,-82,-78,-68,-63
-53,-87,-34,70,-9,-61,-29,-63,-82,-78,-68,-63
-43,-87,-43,65,0,-65,-29,-63,-82,-73,-63,-63
-48,-87,-39,68,-4,-63,-29,-53,-73,-73,-53,-53
-53,-82,-29,68,-12,-56,-29,-53,-73,-73,-53,-53
-68,-78,-9,73,-29,-43,-29,-53,-68,-73,-53,-53
-73,-73,0,73,-36,-36,-29,-53,-68,-68,-48,-53
-73,-82,-9,78,-31,-46,-29,-53,-78,-68,-48,-63
-68,-82,-14,75,-26,-48,-29,-53,-78,-68,-48,-63
-68,-82,-14,75,-26,-48,-29,-53,-78,-68,-48,-63
-68,-87,-19,78,-24,-53,-29,-53,-78,-68,-48,-58
-58,-82,-24,70,-17,-53,-39,-53,-73,-68,-48,-58
-58,-82,-24,70,-17,-53,-39,-58,-73,-68,-48,-63
-53,-78,-24,65,-14,-51,-43,-58,-73,-68,-48,-63
-48,-73,-24,61,-12,-48,-43,-58,-73,-68,-48,-63
-48,-68,-19,58,-14,-43,-34,-53,-73,-58,-48,-63
-48,-68,-19,58,-14,-43,-34,-53,-73,-58,-48,-63
-48,-68,-19,58,-14,-43,-34,-53,-73,-58,-48,-63
-48,-68,-19,58,-14,-43,-34,-53,-73,-58,-48,-63
-58,-78,-19,68,-19,-48,-34,-53,-73,-68,-39,-63
-58,-78,-19,68,-19,-48,-34,-53,-68,-68,-39,-63
-58,-82,-24,70,-17,-53,-34,-53,-68,-68,-39,-63
-63,-82,-19,73,-21,-51,-34,-53,-68,-68,-39,-63
-68,-73,-4,70,-31,-39,-34,-53,-68,-58,-39,-53
-68,-73,-4,70,-31,-39,-34,-53,-68,-58,-39,-53
-63,-68,-4,65,-29,-36,-34,-48,-68,-53,-39,-53
-63,-68,-4,65,-29,-36,-34,-48,-73,-53,-39,-53
-53,-78,-24,65,-14,-51,-34,-48,-63,-58,-43,-63
-48,-78,-29,63,-9,-53,-29,-48,-63,-58,-43,-58
-48,-78,-29,63,-9,-53,-29,-48,-63,-58,-43,-53
-53,-78,-24,65,-14,-51,-29,-48,-68,-53,-43,-53
-63,-78,-14,70,-24,-46,-29,-48,-68,-63,-43,-48
-63,-78,-14,70,-24,-46,-34,-48,-63,-63,-43,-53
-63,-78,-14,70,-24,-46,-34,-48,-63,-63,-43,-53
-63,-78,-14,70,-24,-46,-34,-48,-63,-68,-43,-53
-53,-78,-24,65,-14,-51,-34,-48,-63,-68,-48,-53
-53,-82,-29,68,-12,-56,-39,-48,-68,-68,-48,-53
-48,-82,-34,65,-7,-58,-39,-48,-68,-68,-48,-53
-48,-78,-29,63,-9,-53,-39,-48,-68,-68,-48,-53
-43,-68,-24,56,-9,-46,-48,-58,-78,-68,-48,-63
-43,-68,-24,56,-9,-46,-48,-58,-73,-68,-48,-63
-43,-68,-24,56,-9,-46,-43,-58,-73,-68,-48,-63
-43,-68,-24,56,-9,-46,-43,-58,-73,-68,-48,-63
-43,-78,-34,61,-4,-56,-43,-58,-82,-68,-48,-63
-43,-78,-34,61,-4,-56,-43,-58,-82,-73,-48,-63
-43,-78,-34,61,-4,-56,-43,-58,-92,-73,-53,-68
-48,-78,-29,63,-9,-53,-43,-58,-82,-78,-53,-68
-63,-68,-4,65,-29,-36,-34,-48,-78,-73,-43,-63
-63,-68,-4,65,-29,-36,-34,-48,-78,-68,-43,-58
-63,-73,-9,68,-26,-41,-34,-48,-78,-63,-43,-53
-68,-73,-4,70,-31,-39,-34,-48,-73,-58,-43,-48
-68,-73,-4,70,-31,-39,-34,-48,-78,-68,-43,-53
-63,-73,-9,68,-26,-41,-34,-43,-78,-68,-43,-53
-63,-73,-9,68,-26,-41,-34,-43,-78,-68,-43,-53
-63,-78,-14,70,-24,-46,-34,-43,-82,-68,-43,-58
-63,-78,-14,70,-24,-46,-43,-53,-78,-68,-43,-68
-63,-78,-14,70,-24,-46,-43,-53,-82,-73,-43,-68
-63,-78,-14,70,-24,-46,-43,-58,-82,-73,-48,-68
-58,-78,-19,68,-19,-48,-43,-63,-82,-73,-48,-63
-48,-87,-39,68,-4,-63,-43,-53,-87,-73,-48,-53
-53,-87,-34,70,-9,-61,-48,-53,-87,-73,-48,-58
-53,-87,-34,70,-9,-61,-48,-53,-82,-73,-48,-58
-48,-87,-39,68,-4,-63,-48,-53,-82,-78,-48,-58
-48,-78,-29,63,-9,-53,-48,-63,-92,-78,-58,-68
-48,-78,-29,63,-9,-53,-43,-63,-92,-78,-58,-68
-48,-78,-29,63,-9,-53,-43,-58,-87,-78,-58,-68
-48,-78,-29,63,-9,-53,-43,-58,-87,-78,-58,-68
-58,-78,-19,68,-19,-48,-34,-58,-87,-78,-48,-58
-63,-82,-19,73,-21,-51,-39,-58,-92,-78,-48,-58
-73,-82,-9,78,-31,-46,-43,-63,-92,-78,-53,-58
-63,-82,-19,73,-21,-51,-43,-63,-92,-78,-53,-58
-58,-82,-24,70,-17,-53,-43,-63,-97,-78,-53,-58
-58,-82,-24,70,-17,-53,-43,-63,-97,-78,-53,-58
-53,-82,-29,68,-12,-56,-39,-63,-97,-78,-53,-58
-48,-82,-34,65,-7,-58,-34,-63,-97,-78,-53,-58
-53,-82,-29,68,-12,-56,-43,-58,-97,-82,-53,-68
-63,-82,-19,73,-21,-51,-43,-58,-92,-82,-53,-68
-68,-82,-14,75,-26,-48,-43,-58,-92,-82,-53,-68
-68,-82,-14,75,-26,-48,-43,-58,-97,-82,-53,-68
-58,-73,-14,65,-21,-43,-43,-68,-97,-82,-53,-68
-53,-73,-19,63,-17,-46,-43,-63,-97,-82,-53,-68
-48,-73,-24,61,-12,-48,-43,-63,-97,-82,-58,-73
-48,-78,-29,63,-9,-53,-43,-63,-97,-82,-58,-73
-48,-78,-29,63,-9,-53,-53,-63,-97,-82,-58,-63
-48,-78,-29,63,-9,-53,-53,-63,-102,-82,-58,-63
-53,-78,-24,65,-14,-51,-53,-63,-102,-82,-58,-63
-63,-73,-9,68,-26,-41,-58,-58,-92,-82,-53,-63
-73,-73,0,73,-36,-36,-48,-58,-92,-82,-53,-63
-73,-73,0,73,-36,-36,-48,-58,-97,-82,-53,-63
-68,-73,-4,70,-31,-39,-48,-58,-97,-82,-53,-63
-63,-73,-9,68,-26,-41,-43,-58,-97,-82,-53,-63
-63,-73,-9,68,-26,-41,-53,-58,-97,-82,-53,-63
-63,-78,-14,70,-24,-46,-53,-58,-97,-82,-53,-63
-73,-78,-4,75,-34,-41,-53,-63,-102,-82,-53,-63
-63,-78,-14,70,-24,-46,-53,-63,-102,-82,-53,-63
-53,-78,-24,65,-14,-51,-39,-63,-97,-82,-53,-63
-53,-78,-24,65,-14,-51,-39,-63,-97,-82,-58,-63
-53,-78,-24,65,-14,-51,-39,-63,-97,-82,-58,-63
-53,-78,-24,65,-14,-51,-39,-58,-97,-82,-58,-63
-58,-87,-29,73,-14,-58,-39,-68,-107,-82,-58,-53
-58,-87,-29,73,-14,-58,-39,-68,-102,-82,-58,-53
-63,-87,-24,75,-19,-56,-39,-68,-102,-82,-58,-53
-63,-87,-24,75,-19,-56,-39,-68,-102,-87,-58,-53
-58,-82,-24,70,-17,-53,-39,-58,-92,-78,-58,-53
-53,-82,-29,68,-12,-56,-39,-58,-97,-78,-58,-53
-48,-78,-29,63,-9,-53,-39,-63,-107,-78,-58,-53
-43,-78,-34,61,-4,-56,-39,-63,-107,-78,-58,-53
-53,-78,-24,65,-14,-51,-39,-63,-92,-78,-58,-53
-48,-78,-29,63,-9,-53,-39,-63,-92,-78,-53,-53
-48,-78,-29,63,-9,-53,-39,-58,-92,-78,-48,-53
-48,-78,-29,63,-9,-53,-39,-58,-92,-78,-48,-53
-58,-78,-19,68,-19,-48,-48,-68,-102,-78,-58,-53
-58,-78,-19,68,-19,-48,-48,-68,-102,-78,-58,-53
-58,-78,-19,68,-19,-48,-48,-63,-102,-78,-58,-53
-58,-78,-19,68,-19,-48,-48,-63,-102,-73,-58,-53
-58,-82,-24,70,-17,-53,-48,-68,-102,-82,-58,-53
-63,-82,-19,73,-21,-51,-48,-68,-102,-82,-53,-53
-58,-78,-19,68,-19,-48,-48,-68,-102,-82,-53,-53
-48,-78,-29,63,-9,-53,-48,-68,-107,-82,-53,-53
-53,-78,-24,65,-14,-51,-48,-58,-97,-82,-53,-53
-53,-78,-24,65,-14,-51,-48,-58,-97,-82,-58,-53
-53,-78,-24,65,-14,-51,-48,-58,-92,-78,-58,-53
-53,-78,-24,65,-14,-51,-48,-58,-92,-78,-53,-53
-68,-87,-19,78,-24,-53,-39,-58,-102,-78,-53,-53
-68,-92,-24,80,-21,-58,-39,-58,-102,-78,-53,-53
-63,-92,-29,78,-17,-61,-39,-58,-102,-78,-53,-53
-53,-92,-39,73,-7,-65,-39,-58,-97,-78,-53,-53
-58,-87,-29,73,-14,-58,-43,-68,-97,-78,-53,-48
-68,-82,-14,75,-26,-48,-34,-58,-87,-73,-53,-48
-58,-68,-9,63,-24,-39,-34,-63,-87,-73,-48,-48
-48,-78,-29,63,-9,-53,-48,-58,-87,-78,-48,-48
-48,-78,-29,63,-9,-53,-48,-68,-87,-78,-48,-48
-48,-78,-29,63,-9,-53,-48,-68,-87,-78,-48,-48
-48,-78,-29,63,-9,-53,-48,-68,-87,-78,-48,-48
-48,-78,-29,63,-9,-53,-48,-68,-87,-78,-48,-48
-39,-73,-34,56,-2,-53,-48,-68,-73,-63,-43,-39
-39,-68,-29,53,-4,-48,-43,-58,-68,-53,-39,-39
-39,-53,-14,46,-12,-34,-43,-58,-63,-48,-34,-34
-34,-53,-19,43,-7,-36,-43,-58,-58,-43,-29,-34
-29,-39,-9,34,-9,-24,-39,-43,-39,-29,-19,-34
-24,-29,-4,26,-9,-17,-39,-43,-29,-24,-9,-24
-24,-24,0,24,-12,-12,-39,-43,-24,-19,-4,-19
-24,-19,4,21,-14,-7,-39,-43,-19,-9,0,-19
-34,-19,14,26,-24,-2,-24,-43,-14,-9,4,-9
-34,-19,14,26,-24,-2,-24,-39,-9,-9,4,-9
-34,-19,14,26,-24,-2,-19,-39,-9,-9,4,-9
-34,-19,14,26,-24,-2,-19,-34,-4,-4,9,-9
-34,-19,14,26,-24,-2,-19,-34,0,0,19,0
-24,-14,9,19,-17,-2,-19,-29,4,0,24,0
-14,-4,9,9,-12,2,-19,-29,9,4,29,4
0,0,0,0,0,0,-29,-24,9,9,29,14
4,19,14,-12,-4,17,-19,-19,9,14,19,9
14,34,19,-24,-2,26,-24,-19,19,19,34,14
29,43,14,-36,7,29,-29,-19,24,24,39,19
39,53,14,-46,12,34,-34,-19,29,34,43,24
39,58,19,-48,9,39,-48,-19,29,34,48,29
39,58,19,-48,9,39,-53,-29,29,34,48,34
39,63,24,-51,7,43,-58,-29,29,34,48,34
39,63,24,-51,7,43,-63,-34,24,29,48,34
39,48,9,-43,14,29,-78,-43,9,14,39,24
39,48,9,-43,14,29,-92,-48,4,14,39,24
39,63,24,-51,7,43,-102,-53,4,14,39,34
43,73,29,-58,7,51,-112,-58,4,24,48,39
53,82,29,-68,12,56,-122,-63,0,29,58,48
53,97,43,-75,4,70,-122,-63,0,29,63,58
53,102,48,-78,2,75,-126,-73,-4,29,63,58
53,102,48,-78,2,75,-126,-78,-19,19,58,58
34,87,53,-61,-9,70,-122,-78,-39,9,48,48
29,63,34,-46,-2,48,-122,-78,-48,0,43,39
9,43,34,-26,-12,39,-112,-78,-63,-14,29,29
4,24,19,-14,-7,21,-107,-78,-78,-29,19,19
-9,9,19,0,-14,14,-92,-78,-73,-24,19,24
-29,-4,24,17,-26,9,-87,-78,-82,-29,9,14
-34,-14,19,24,-26,2,-82,-78,-92,-39,4,4
-43,-29,14,36,-29,-7,-78,-78,-92,-39,-4,0
-39,-48,-9,43,-14,-29,-63,-73,-92,-53,-9,-14
-48,-58,-9,53,-19,-34,-58,-73,-92,-58,-14,-24
-48,-63,-14,56,-17,-39,-58,-73,-97,-63,-19,-34
-53,-73,-19,63,-17,-46,-58,-73,-102,-68,-29,-34
-58,-82,-24,70,-17,-53,-63,-73,-107,-73,-39,-39
-58,-92,-34,75,-12,-63,-63,-73,-112,-82,-43,-48
-58,-102,-43,80,-7,-73,-58,-63,-112,-87,-43,-53
-58,-102,-43,80,-7,-73,-58,-63,-112,-92,-48,-53
-68,-97,-29,82,-19,-63,-48,-68,-112,-82,-48,-48
-68,-102,-34,85,-17,-68,-48,-68,-117,-82,-48,-48
-68,-107,-39,87,-14,-73,-48,-63,-117,-82,-48,-48
-73,-107,-34,90,-19,-70,-48,-63,-117,-82,-53,-48
-63,-107,-43,85,-9,-75,-58,-63,-122,-92,-53,-58
-63,-107,-43,85,-9,-75,-58,-63,-122,-92,-53,-58
-63,-107,-43,85,-9,-75,-53,-63,-122,-97,-53,-58
-63,-107,-43,85,-9,-75,-53,-63,-122,-97,-53,-58
-63,-117,-53,90,-4,-85,-53,-63,-122,-97,-53,-58
-68,-117,-48,92,-9,-82,-53,-63,-122,-92,-53,-58
-68,-117,-48,92,-9,-82,-53,-63,-122,-92,-53,-63
-68,-122,-53,95,-7,-87,-48,-63,-122,-97,-53,-63
-68,-122,-53,95,-7,-87,-39,-63,-122,-97,-63,-63
-68,-122,-53,95,-7,-87,-39,-63,-122,-97,-63,-63
-68,-122,-53,95,-7,-87,-39,-63,-122,-97,-63,-63
-68,-122,-53,95,-7,-87,-39,-63,-122,-97,-63,-63
-78,-122,-43,100,-17,-82,-39,-53,-122,-87,-53,-58
-78,-122,-43,100,-17,-82,-39,-53,-122,-87,-58,-58
-78,-126,-48,102,-14,-87,-39,-53,-122,-87,-58,-58
-78,-126,-48,102,-14,-87,-39,-53,-122,-87,-58,-58
-73,-126,-53,100,-9,-90,-48,-63,-122,-97,-68,-58
-68,-126,-58,97,-4,-92,-48,-63,-122,-97,-68,-58
-63,-126,-63,95,0,-95,-43,-63,-122,-97,-68,-58
-58,-126,-68,92,4,-97,-43,-63,-122,-97,-68,-58
-63,-126,-63,95,0,-95,-48,-63,-122,-97,-68,-58
-73,-126,-53,100,-9,-90,-48,-58,-122,-97,-68,-58
-78,-126,-48,102,-14,-87,-43,-58,-117,-97,-63,-53
-82,-126,-43,104,-19,-85,-43,-58,-117,-92,-63,-53
-92,-117,-24,104,-34,-70,-34,-48,-107,-82,-58,-43
-82,-117,-34,100,-24,-75,-34,-48,-107,-82,-58,-53
-78,-126,-48,102,-14,-87,-34,-53,-107,-92,-58,-63
-78,-136,-58,107,-9,-97,-29,-48,-102,-87,-68,-68
-97,-141,-43,119,-26,-92,-14,-43,-87,-82,-68,-68
-112,-146,-34,129,-39,-90,9,-43,-68,-73,-68,-63
-122,-156,-34,139,-43,-95,24,-39,-53,-68,-73,-78
-126,-165,-39,146,-43,-102,43,-34,-39,-63,-73,-92
-122,-165,-43,143,-39,-104,53,-29,-24,-53,-73,-92
-136,-170,-34,153,-51,-102,68,-19,0,-39,-68,-82
-141,-170,-29,156,-56,-100,73,-19,0,-39,-68,-82
-146,-175,-29,161,-58,-102,78,-29,-9,-48,-78,-97
-146,-185,-39,165,-53,-112,82,-29,-19,-58,-78,-97
-151,-175,-24,163,-63,-100,78,-24,0,-43,-73,-97
-146,-141,4,143,-75,-68,92,14,48,19,-34,-73
-122,-131,-9,126,-56,-70,92,53,48,19,-14,-68
-78,-97,-19,87,-29,-58,73,107,82,63,24,-53
-39,-68,-29,53,-4,-48,53,151,112,102,63,-34
24,-9,-34,-7,29,-21,4,214,141,156,117,4
102,87,-14,-95,58,36,-58,268,214,248,204,63
161,151,-9,-156,85,70,-107,283,253,302,253,97
278,244,-34,-261,156,104,-219,336,263,351,331,141
385,322,-63,-353,224,129,-322,409,248,405,405,195
478,390,-87,-434,283,151,-395,468,253,463,473,244
561,483,-78,-522,319,202,-439,546,317,561,580,302
590,527,-63,-558,326,231,-439,580,458,692,683,341
634,644,9,-639,312,326,-458,561,649,907,863,444
653,732,78,-692,287,405,-492,458,790,1073,995,517
644,771,126,-707,258,448,-512,312,839,1141,1058,561
624,771,146,-697,239,458,-502,161,824,1146,1068,580
561,727,165,-644,197,446,-463,58,771,1063,1000,551
429,614,185,-522,122,400,-375,-117,619,868,844,497
292,488,195,-390,48,341,-287,-248,444,639,658,419
175,346,170,-261,2,258,-175,-312,268,409,473,341
34,185,151,-109,-58,168,-19,-341,53,126,268,244
-78,112,190,-17,-134,151,73,-341,-43,-24,161,190
-161,9,170,75,-165,90,180,-331,-102,-136,43,126
-214,-68,146,141,-180,39,273,-322,-122,-204,-24,78
-234,-107,126,170,-180,9,322,-302,-107,-214,-58,34
-273,-170,102,222,-187,-34,385,-268,-58,-195,-97,-19
-297,-214,82,256,-190,-65,419,-253,-14,-175,-107,-34
-307,-239,68,273,-187,-85,424,-248,29,-161,-107,-58
-312,-253,58,283,-185,-97,434,-234,48,-151,-112,-78
-317,-258,58,287,-187,-100,444,-219,58,-136,-122,-92
-317,-273,43,295,-180,-114,429,-195,68,-117,-112,-102
-292,-263,29,278,-161,-117,409,-175,58,-117,-117,-102
-287,-263,24,275,-156,-119,370,-170,39,-117,-117,-102
-268,-244,24,256,-146,-109,331,-170,9,-126,-112,-92
-253,-224,29,239,-141,-97,287,-180,-24,-126,-102,-87
-239,-219,19,229,-129,-100,234,-170,-39,-117,-92,-78
-219,-195,24,207,-122,-85,185,-161,-48,-112,-92,-82
-180,-175,4,178,-92,-85,141,-136,-53,-112,-87,-68
-156,-161,-4,158,-75,-82,102,-126,-58,-97,-78,-63
-141,-136,4,139,-73,-65,78,-112,-58,-87,-68,-48
-126,-117,9,122,-68,-53,48,-102,-68,-78,-53,-43
-112,-122,-9,117,-51,-65,43,-92,-58,-73,-53,-48
-107,-112,-4,109,-51,-58,24,-82,-53,-68,-48,-39
-92,-97,-4,95,-43,-51,14,-82,-53,-63,-43,-34
-97,-102,-4,100,-46,-53,4,-82,-63,-63,-43,-34
-97,-102,-4,100,-46,-53,0,-78,-63,-63,-43,-34
-87,-102,-14,95,-36,-58,-4,-78,-63,-63,-39,-34
-87,-97,-9,92,-39,-53,-4,-73,-63,-63,-39,-34
-87,-97,-9,92,-39,-53,-4,-73,-63,-63,-39,-34
-87,-97,-9,92,-39,-53,-4,-73,-63,-63,-39,-29
-87,-92,-4,90,-41,-48,-14,-68,-63,-58,-39,-29
-87,-92,-4,90,-41,-48,-14,-63,-68,-58,-39,-29
-78,-97,-19,87,-29,-58,-24,-53,-58,-58,-48,-39
-78,-97,-19,87,-29,-58,-24,-53,-58,-58,-43,-34
-78,-92,-14,85,-31,-53,-29,-53,-58,-58,-43,-34
-73,-92,-19,82,-26,-56,-29,-53,-58,-58,-43,-34
-73,-92,-19,82,-26,-56,-19,-63,-58,-58,-34,-39
-73,-92,-19,82,-26,-56,-24,-58,-58,-58,-34,-39
-73,-92,-19,82,-26,-56,-24,-58,-58,-58,-39,-34
-73,-92,-19,82,-26,-56,-24,-58,-58,-58,-39,-34
-73,-87,-14,80,-29,-51,-34,-58,-63,-58,-34,-39
-73,-87,-14,80,-29,-51,-34,-58,-63,-58,-34,-39
-68,-87,-19,78,-24,-53,-34,-58,-63,-58,-39,-39
-63,-87,-24,75,-19,-56,-39,-58,-58,-53,-39,-39
-63,-78,-14,70,-24,-46,-39,-58,-58,-53,-34,-43
-63,-73,-9,68,-26,-41,-39,-58,-58,-53,-34,-43
-63,-73,-9,68,-26,-41,-39,-58,-53,-53,-34,-39
-63,-73,-9,68,-26,-41,-39,-58,-53,-48,-34,-39
-73,-73,0,73,-36,-36,-34,-58,-53,-48,-34,-29
-73,-73,0,73,-36,-36,-34,-58,-53,-48,-34,-34
-73,-68,4,70,-39,-31,-34,-58,-53,-48,-34,-34
-73,-68,4,70,-39,-31,-34,-58,-53,-48,-34,-34
-68,-68,0,68,-34,-34,-39,-58,-48,-48,-34,-34
-68,-68,0,68,-34,-34,-39,-58,-48,-48,-29,-34
-68,-68,0,68,-34,-34,-39,-58,-43,-43,-29,-29
-68,-68,0,68,-34,-34,-39,-58,-43,-39,-29,-29
-58,-68,-9,63,-24,-39,-39,-58,-43,-39,-29,-34
-58,-63,-4,61,-26,-34,-39,-58,-39,-39,-29,-34
-58,-63,-4,61,-26,-34,-39,-58,-39,-39,-24,-34
-53,-58,-4,56,-24,-31,-39,-58,-34,-34,-24,-34
-53,-68,-14,61,-19,-41,-48,-58,-29,-24,-24,-39
-58,-68,-9,63,-24,-39,-48,-58,-29,-24,-19,-39
-58,-68,-9,63,-24,-39,-48,-58,-29,-19,-19,-39
-53,-68,-14,61,-19,-41,-48,-53,-29,-14,-19,-39
-63,-68,-4,65,-29,-36,-39,-63,-29,-14,-24,-34
-63,-63,0,63,-31,-31,-39,-63,-19,-9,-19,-34
-63,-63,0,63,-31,-31,-39,-63,-19,-9,-19,-34
-58,-63,-4,61,-26,-34,-39,-63,-19,-9,-19,-34
-58,-63,-4,61,-26,-34,-34,-58,-19,-9,-19,-34
-58,-63,-4,61,-26,-34,-34,-58,-9,-4,-19,-34
-58,-53,4,56,-31,-24,-34,-53,0,0,-19,-34
-58,-53,4,56,-31,-24,-34,-53,0,0,-19,-29
-58,-53,4,56,-31,-24,-43,-53,9,0,-4,-29
-58,-48,9,53,-34,-19,-43,-53,9,4,-4,-29
-58,-48,9,53,-34,-19,-53,-53,9,4,-4,-29
-58,-43,14,51,-36,-14,-53,-53,19,9,4,-29
-53,-34,19,43,-36,-7,-43,-53,19,19,4,-19
-48,-29,19,39,-34,-4,-43,-53,24,24,4,-14
-48,-14,34,31,-41,9,-43,-53,34,29,9,-14
-48,-14,34,31,-41,9,-48,-53,34,34,14,-9
-39,-14,24,26,-31,4,-48,-39,48,39,19,-9
-29,-14,14,21,-21,0,-48,-39,53,39,19,-4
-29,-9,19,19,-24,4,-48,-39,53,43,19,-4
-29,-4,24,17,-26,9,-48,-39,58,48,29,4
-29,-9,19,19,-24,4,-63,-43,58,43,24,4
-29,-4,24,17,-26,9,-63,-43,63,48,34,4
-14,0,14,7,-14,7,-63,-43,73,58,34,9
-24,4,29,9,-26,17,-63,-43,78,63,39,9
-24,0,24,12,-24,12,-68,-48,82,68,53,9
-14,4,19,4,-17,12,-68,-48,87,73,58,14
-9,4,14,2,-12,9,-68,-48,97,78,63,19
-9,9,19,0,-14,14,-73,-48,107,87,63,19
-14,14,29,0,-21,21,-63,-48,112,102,68,24
-9,19,29,-4,-19,24,-63,-43,117,107,78,29
-9,29,39,-9,-24,34,-73,-43,131,112,82,34
-9,34,43,-12,-26,39,-78,-39,141,117,87,34
0,39,39,-19,-19,39,-78,-39,146,126,92,34
4,43,39,-24,-17,41,-82,-29,156,126,97,43
14,53,39,-34,-12,46,-82,-29,161,141,102,48
19,58,39,-39,-9,48,-87,-29,175,151,112,53
14,73,58,-43,-21,65,-78,-19,195,161,117,53
14,78,63,-46,-24,70,-82,-14,200,165,122,53
19,87,68,-53,-24,78,-87,-14,209,180,136,63
24,92,68,-58,-21,80,-87,-4,224,200,136,73
39,97,58,-68,-9,78,-92,0,229,200,151,73
43,107,63,-75,-9,85,-92,4,244,209,151,78
48,112,63,-80,-7,87,-97,9,263,219,161,87
53,117,63,-85,-4,90,-97,14,268,234,165,92
53,122,68,-87,-7,95,-97,19,278,253,180,107
53,131,78,-92,-12,104,-102,19,287,263,195,107
53,141,87,-97,-17,114,-107,29,302,273,200,107
48,146,97,-97,-24,122,-107,34,312,273,204,117
68,151,82,-109,-7,117,-107,34,322,283,204,107
78,156,78,-117,0,117,-107,39,336,287,209,112
92,161,68,-126,12,114,-117,39,341,292,224,117
102,175,73,-139,14,124,-117,43,351,297,224,122
97,180,82,-139,7,131,-117,39,366,317,239,117
102,185,82,-143,9,134,-117,43,375,326,244,122
107,195,87,-151,9,141,-126,48,385,326,248,126
117,200,82,-158,17,141,-126,48,385,331,253,126
122,204,82,-163,19,143,-131,48,409,341,248,136
122,204,82,-163,19,143,-136,58,409,346,258,141
131,204,73,-168,29,139,-136,63,424,351,258,146
136,214,78,-175,29,146,-141,63,429,351,263,146
136,229,92,-183,21,161,-141,73,434,356,273,151
136,229,92,-183,21,161,-136,82,439,361,278,156
136,229,92,-183,21,161,-131,92,444,361,283,161
151,229,78,-190,36,153,-126,92,444,361,283,165
151,219,68,-185,41,143,-126,82,434,351,273,156
146,219,73,-183,36,146,-126,87,429,346,273,156
146,219,73,-183,36,146,-126,87,414,336,263,151
141,219,78,-180,31,148,-122,87,405,331,258,151
136,200,63,-168,36,131,-122,87,395,326,258,141
136,190,53,-163,41,122,-117,82,380,312,253,141
131,190,58,-161,36,124,-112,73,370,302,239,136
126,175,48,-151,39,112,-112,68,351,283,234,131
122,180,58,-151,31,119,-112,73,346,278,224,126
117,170,53,-143,31,112,-112,68,331,268,214,126
107,161,53,-134,26,107,-107,63,317,253,204,122
102,151,48,-126,26,100,-102,63,302,239,195,112
87,141,53,-114,17,97,-97,58,287,219,180,107
87,126,39,-107,24,82,-92,48,273,209,175,102
78,122,43,-100,17,82,-87,39,258,195,161,87
68,112,43,-90,12,78,-82,39,244,180,151,87
58,102,43,-80,7,73,-78,24,214,156,131,73
53,87,34,-70,9,61,-73,9,195,151,122,63
53,78,24,-65,14,51,-73,9,175,131,112,58
39,68,29,-53,4,48,-68,4,161,122,102,53
48,68,19,-58,14,43,-63,4,151,112,97,58
34,58,24,-46,4,41,-58,0,136,107,87,48
19,48,29,-34,-4,39,-53,-4,122,92,78,43
19,43,24,-31,-2,34,-53,-9,107,82,68,39
14,24,9,-19,2,17,-58,-14,97,73,63,24
9,19,9,-14,0,14,-58,-19,87,63,53,24
0,4,4,-2,-2,4,-48,-24,73,53,43,14
-14,0,14,7,-14,7,-48,-29,58,43,34,14
-19,-9,9,14,-14,0,-34,-24,53,43,34,14
-29,-9,19,19,-24,4,-29,-24,48,39,29,14
-34,-24,9,29,-21,-7,-29,-24,39,29,24,4
-43,-34,9,39,-26,-12,-29,-29,29,19,9,4
-48,-39,9,43,-29,-14,-14,-29,19,9,14,9
-43,-43,0,43,-21,-21,-14,-29,9,9,9,4
-39,-43,-4,41,-17,-24,-14,-34,4,0,4,-4
-39,-48,-9,43,-14,-29,-14,-34,-4,-9,0,-4
-48,-63,-14,56,-17,-39,-19,-43,-14,-19,-9,-19
-48,-68,-19,58,-14,-43,-19,-43,-19,-24,-19,-24
-53,-73,-19,63,-17,-46,-19,-43,-29,-29,-24,-24
-53,-73,-19,63,-17,-46,-14,-43,-34,-39,-24,-24
-53,-73,-19,63,-17,-46,-14,-48,-48,-43,-29,-29
-58,-78,-19,68,-19,-48,-14,-48,-53,-48,-34,-34
-58,-82,-24,70,-17,-53,-14,-48,-58,-48,-34,-34
-58,-82,-24,70,-17,-53,-14,-48,-63,-53,-34,-34
-53,-78,-24,65,-14,-51,-9,-48,-58,-43,-43,-34
-53,-82,-29,68,-12,-56,-9,-48,-63,-48,-48,-39
-53,-82,-29,68,-12,-56,-9,-48,-63,-48,-48,-39
-48,-87,-39,68,-4,-63,-9,-53,-68,-53,-53,-39
-58,-97,-39,78,-9,-68,0,-43,-73,-53,-53,-43
-63,-97,-34,80,-14,-65,0,-43,-73,-58,-53,-43
-63,-97,-34,80,-14,-65,0,-43,-73,-58,-48,-43
-63,-97,-34,80,-14,-65,0,-43,-68,-58,-48,-43
-63,-97,-34,80,-14,-65,0,-43,-68,-58,-53,-39
-63,-97,-34,80,-14,-65,0,-43,-68,-58,-53,-39
-63,-102,-39,82,-12,-70,0,-43,-73,-63,-53,-43
-68,-102,-34,85,-17,-68,-4,-43,-78,-63,-58,-43
-58,-92,-34,75,-12,-63,4,-43,-78,-63,-48,-43
-58,-97,-39,78,-9,-68,4,-48,-73,-63,-53,-43
-58,-97,-39,78,-9,-68,9,-48,-73,-63,-53,-43
-58,-97,-39,78,-9,-68,9,-48,-73,-63,-53,-43
-63,-112,-48,87,-7,-80,0,-58,-73,-63,-63,-43
-63,-112,-48,87,-7,-80,4,-58,-73,-63,-63,-43
-63,-112,-48,87,-7,-80,4,-58,-73,-63,-63,-43
-68,-112,-43,90,-12,-78,4,-53,-73,-58,-63,-43
-73,-117,-43,95,-14,-80,14,-43,-73,-68,-58,-43
-73,-117,-43,95,-14,-80,14,-43,-73,-68,-58,-43
-82,-117,-34,100,-24,-75,14,-43,-73,-68,-58,-43
-73,-126,-53,100,-9,-90,14,-43,-73,-68,-63,-43
-82,-117,-34,100,-24,-75,14,-39,-78,-73,-53,-48
-78,-112,-34,95,-21,-73,14,-39,-78,-73,-53,-48
-73,-112,-39,92,-17,-75,14,-39,-78,-73,-53,-48
-68,-112,-43,90,-12,-78,14,-39,-73,-73,-53,-48
-78,-107,-29,92,-24,-68,14,-48,-73,-73,-58,-48
-78,-107,-29,92,-24,-68,14,-48,-78,-73,-58,-48
-82,-112,-29,97,-26,-70,14,-48,-78,-73,-58,-48
-82,-112,-29,97,-26,-70,9,-48,-78,-73,-58,-48
-78,-107,-29,92,-24,-68,9,-43,-73,-73,-58,-39
-73,-107,-34,90,-19,-70,9,-43,-73,-73,-58,-39
-68,-102,-34,85,-17,-68,9,-43,-73,-73,-58,-39
-63,-97,-34,80,-14,-65,9,-39,-73,-73,-58,-39
-58,-107,-48,82,-4,-78,9,-48,-73,-68,-58,-43
-58,-102,-43,80,-7,-73,9,-48,-78,-68,-58,-43
-53,-102,-48,78,-2,-75,9,-48,-78,-68,-58,-43
-53,-102,-48,78,-2,-75,9,-48,-78,-68,-58,-43
-68,-102,-34,85,-17,-68,9,-53,-68,-68,-58,-43
-68,-102,-34,85,-17,-68,9,-53,-63,-68,-58,-43
-68,-102,-34,85,-17,-68,9,-53,-63,-68,-58,-43
-68,-102,-34,85,-17,-68,9,-53,-63,-68,-58,-43
-78,-92,-14,85,-31,-53,9,-53,-63,-68,-58,-43
-78,-97,-19,87,-29,-58,9,-53,-63,-68,-58,-43
-78,-97,-19,87,-29,-58,9,-53,-63,-68,-58,-43
-73,-97,-24,85,-24,-61,9,-53,-63,-63,-53,-43
-73,-97,-24,85,-24,-61,19,-43,-63,-63,-53,-43
-73,-92,-19,82,-26,-56,19,-43,-63,-63,-53,-43
-82,-87,-4,85,-39,-46,19,-43,-58,-63,-53,-43
-82,-82,0,82,-41,-41,19,-43,-58,-58,-48,-43
-82,-87,-4,85,-39,-46,9,-43,-68,-58,-58,-43
-78,-92,-14,85,-31,-53,9,-43,-68,-58,-58,-43
-78,-97,-19,87,-29,-58,9,-43,-68,-58,-58,-43
-78,-107,-29,92,-24,-68,9,-43,-68,-58,-58,-39
-78,-102,-24,90,-26,-63,9,-34,-73,-58,-58,-39
-78,-102,-24,90,-26,-63,9,-39,-73,-58,-58,-43
-73,-97,-24,85,-24,-61,4,-39,-73,-58,-58,-43
-68,-92,-24,80,-21,-58,4,-39,-73,-58,-58,-43
-68,-97,-29,82,-19,-63,14,-43,-73,-58,-58,-43
-68,-97,-29,82,-19,-63,14,-43,-73,-58,-58,-43
-68,-97,-29,82,-19,-63,14,-43,-73,-58,-58,-43
-68,-97,-29,82,-19,-63,14,-43,-73,-58,-58,-43
-68,-97,-29,82,-19,-63,14,-43,-73,-58,-58,-43
-68,-97,-29,82,-19,-63,14,-43,-68,-58,-58,-43
-68,-102,-34,85,-17,-68,14,-43,-68,-58,-58,-43
-73,-102,-29,87,-21,-65,14,-43,-68,-58,-58,-43
-68,-102,-34,85,-17,-68,14,-43,-68,-58,-48,-53
-68,-102,-34,85,-17,-68,14,-43,-68,-58,-48,-53
-63,-97,-34,80,-14,-65,14,-39,-68,-53,-48,-53
-63,-97,-34,80,-14,-65,14,-39,-73,-53,-48,-53
-63,-107,-43,85,-9,-75,14,-39,-73,-68,-48,-63
-58,-107,-48,82,-4,-78,19,-39,-73,-68,-53,-58
-58,-107,-48,82,-4,-78,19,-39,-73,-68,-58,-53
-63,-107,-43,85,-9,-75,19,-39,-78,-63,-63,-53
-68,-97,-29,82,-19,-63,29,-29,-68,-53,-58,-53
-73,-97,-24,85,-24,-61,24,-29,-63,-53,-53,-53
-78,-97,-19,87,-29,-58,24,-29,-63,-53,-48,-48
-82,-97,-14,90,-34,-56,24,-29,-63,-58,-43,-43
-73,-97,-24,85,-24,-61,24,-29,-53,-58,-48,-43
-73,-102,-29,87,-21,-65,19,-29,-58,-58,-48,-43
-68,-102,-34,85,-17,-68,19,-29,-58,-58,-48,-43
-68,-97,-29,82,-19,-63,19,-29,-58,-58,-48,-43
-73,-97,-24,85,-24,-61,19,-29,-68,-58,-48,-43
-73,-97,-24,85,-24,-61,19,-29,-63,-58,-48,-43
-73,-97,-24,85,-24,-61,24,-29,-63,-58,-48,-43
-73,-97,-24,85,-24,-61,24,-29,-63,-58,-48,-43
-63,-107,-43,85,-9,-75,24,-29,-73,-58,-58,-43
-63,-107,-43,85,-9,-75,24,-29,-73,-63,-58,-43
-63,-107,-43,85,-9,-75,24,-29,-82,-63,-63,-48
-68,-107,-39,87,-14,-73,24,-29,-73,-68,-63,-48
-63,-107,-43,85,-9,-75,24,-29,-73,-78,-63,-48
-63,-107,-43,85,-9,-75,24,-29,-78,-78,-63,-48
-63,-112,-48,87,-7,-80,24,-29,-82,-78,-63,-48
-68,-112,-43,90,-12,-78,24,-29,-82,-78,-63,-48
-78,-122,-43,100,-17,-82,24,-39,-78,-78,-63,-43
-73,-122,-48,97,-12,-85,24,-34,-78,-78,-63,-43
-73,-122,-48,97,-12,-85,24,-34,-78,-78,-63,-43
-73,-126,-53,100,-9,-90,24,-34,-82,-78,-63,-48
-73,-117,-43,95,-14,-80,24,-24,-78,-78,-63,-48
-73,-117,-43,95,-14,-80,24,-24,-82,-82,-63,-48
-73,-117,-43,95,-14,-80,24,-29,-82,-82,-68,-48
-68,-117,-48,92,-9,-82,24,-34,-82,-82,-68,-43
-78,-107,-29,92,-24,-68,34,-24,-87,-82,-68,-43
-82,-107,-24,95,-29,-65,29,-24,-87,-82,-68,-48
-82,-107,-24,95,-29,-65,29,-24,-82,-82,-68,-48
-78,-107,-29,92,-24,-68,29,-24,-82,-87,-68,-48
-68,-117,-48,92,-9,-82,19,-34,-87,-78,-68,-48
-68,-117,-48,92,-9,-82,24,-34,-92,-78,-68,-48
-68,-117,-48,92,-9,-82,24,-29,-92,-78,-68,-48
-68,-117,-48,92,-9,-82,24,-29,-97,-78,-68,-48
-58,-107,-48,82,-4,-78,34,-29,-97,-87,-68,-48
-63,-112,-48,87,-7,-80,29,-29,-102,-87,-68,-48
-73,-112,-39,92,-17,-75,24,-34,-102,-87,-73,-48
-63,-112,-48,87,-7,-80,24,-34,-102,-87,-73,-48
-73,-122,-48,97,-12,-85,24,-24,-97,-87,-82,-58
-78,-122,-43,100,-17,-82,24,-24,-97,-87,-82,-58
-78,-122,-43,100,-17,-82,29,-24,-97,-87,-82,-58
-78,-122,-43,100,-17,-82,34,-24,-97,-87,-82,-58
-68,-131,-63,100,-2,-97,34,-29,-97,-92,-82,-58
-73,-131,-58,102,-7,-95,34,-29,-92,-92,-82,-58
-73,-131,-58,102,-7,-95,34,-29,-92,-92,-82,-58
-68,-131,-63,100,-2,-97,34,-29,-97,-92,-82,-58
-78,-131,-53,104,-12,-92,34,-39,-97,-92,-73,-48
-73,-131,-58,102,-7,-95,34,-34,-97,-92,-73,-48
-68,-131,-63,100,-2,-97,34,-34,-97,-92,-78,-53
-68,-136,-68,102,0,-102,34,-34,-97,-92,-78,-53
-78,-136,-58,107,-9,-97,34,-24,-97,-82,-78,-53
-78,-136,-58,107,-9,-97,34,-24,-102,-82,-78,-53
-82,-136,-53,109,-14,-95,34,-24,-102,-82,-78,-53
-92,-131,-39,112,-26,-85,29,-19,-92,-82,-73,-53
-87,-131,-43,109,-21,-87,29,-29,-102,-92,-73,-53
-82,-131,-48,107,-17,-90,29,-29,-107,-92,-73,-53
-73,-131,-58,102,-7,-95,29,-29,-107,-92,-73,-53
-63,-131,-68,97,2,-100,34,-29,-107,-92,-73,-53
-73,-131,-58,102,-7,-95,34,-19,-97,-82,-73,-53
-73,-136,-63,104,-4,-100,34,-19,-97,-82,-73,-53
-82,-136,-53,109,-14,-95,34,-24,-102,-82,-73,-53
-73,-136,-63,104,-4,-100,34,-24,-102,-82,-73,-53
-73,-136,-63,104,-4,-100,39,-24,-97,-82,-73,-53
-73,-136,-63,104,-4,-100,39,-24,-97,-82,-78,-53
-73,-136,-63,104,-4,-100,39,-24,-97,-82,-78,-53
-73,-136,-63,104,-4,-100,39,-19,-97,-82,-78,-53
-68,-136,-68,102,0,-102,39,-29,-107,-92,-87,-63
-68,-136,-68,102,0,-102,39,-29,-102,-92,-87,-63
-73,-136,-63,104,-4,-100,39,-29,-102,-92,-87,-63
-73,-136,-63,104,-4,-100,39,-29,-102,-97,-87,-63
-73,-141,-68,107,-2,-104,48,-19,-97,-87,-78,-53
-73,-141,-68,107,-2,-104,48,-19,-97,-87,-78,-53
-73,-136,-63,104,-4,-100,48,-24,-102,-87,-78,-53
-73,-136,-63,104,-4,-100,48,-24,-97,-87,-78,-53
-73,-146,-73,109,0,-109,48,-24,-102,-87,-87,-53
-68,-146,-78,107,4,-112,48,-24,-102,-87,-82,-53
-68,-146,-78,107,4,-112,48,-19,-102,-87,-78,-53
-68,-146,-78,107,4,-112,48,-19,-102,-87,-78,-53
-78,-136,-58,107,-9,-97,48,-19,-112,-87,-78,-53
-78,-136,-58,107,-9,-97,48,-19,-112,-87,-78,-53
-78,-136,-58,107,-9,-97,48,-14,-112,-87,-78,-53
-78,-136,-58,107,-9,-97,48,-14,-112,-82,-78,-53
-78,-136,-58,107,-9,-97,48,-19,-102,-92,-87,-53
-82,-141,-58,112,-12,-100,48,-19,-102,-92,-82,-53
-78,-141,-63,109,-7,-102,48,-19,-102,-92,-82,-53
-68,-146,-78,107,4,-112,48,-19,-107,-92,-82,-53
-73,-146,-73,109,0,-109,48,-19,-107,-92,-82,-63
-73,-146,-73,109,0,-109,48,-19,-107,-92,-87,-63
-73,-146,-73,109,0,-109,48,-19,-102,-87,-87,-63
-73,-146,-73,109,0,-109,48,-19,-102,-87,-82,-63
-78,-146,-68,112,-4,-107,48,-29,-112,-97,-92,-63
-78,-151,-73,114,-2,-112,48,-29,-112,-97,-92,-63
-73,-151,-78,112,2,-114,48,-29,-112,-97,-92,-63
-63,-151,-87,107,12,-119,48,-29,-107,-97,-92,-63
-68,-146,-78,107,4,-112,53,-19,-107,-97,-92,-68
-68,-141,-73,104,2,-107,53,-19,-107,-92,-92,-68
-68,-136,-68,102,0,-102,53,-14,-107,-92,-87,-68
-73,-136,-63,104,-4,-100,53,-14,-107,-87,-87,-63
-63,-141,-78,102,7,-109,53,-24,-107,-97,-82,-53
-68,-146,-78,107,4,-112,58,-19,-107,-87,-87,-58
-78,-136,-58,107,-9,-97,58,-19,-97,-87,-78,-48
-78,-136,-58,107,-9,-97,58,-19,-97,-87,-78,-48
-78,-136,-58,107,-9,-97,58,-19,-97,-87,-78,-48
-78,-136,-58,107,-9,-97,58,-19,-97,-87,-78,-48
-63,-126,-63,95,0,-95,58,-14,-87,-73,-63,-39
-58,-117,-58,87,0,-87,63,0,-78,-63,-58,-39
-53,-97,-43,75,-4,-70,63,4,-68,-58,-53,-34
-43,-92,-48,68,2,-70,63,9,-58,-53,-48,-34
-48,-87,-39,68,-4,-63,68,4,-58,-48,-43,-34
-43,-78,-34,61,-4,-56,68,4,-48,-43,-39,-24
-43,-73,-29,58,-7,-51,68,4,-43,-39,-39,-19
-43,-68,-24,56,-9,-46,68,4,-39,-29,-39,-19
-43,-78,-34,61,-4,-56,73,4,-34,-39,-43,-29
-43,-78,-34,61,-4,-56,73,9,-29,-39,-43,-29
-43,-78,-34,61,-4,-56,78,9,-29,-39,-43,-29
-43,-78,-34,61,-4,-56,78,14,-24,-34,-39,-29
-29,-68,-39,48,4,-53,68,14,-29,-39,-39,-29
-14,-63,-48,39,17,-56,68,19,-24,-39,-34,-29
0,-53,-53,26,26,-53,68,19,-19,-34,-29,-24
19,-48,-68,14,43,-58,58,24,-19,-29,-29,-14
4,-29,-34,12,19,-31,58,29,-14,-19,-24,-4
4,-14,-19,4,12,-17,53,29,0,-9,-4,4
9,-4,-14,-2,12,-9,48,29,9,0,4,14
9,4,-4,-7,7,0,43,29,19,14,14,24
9,14,4,-12,2,9,39,19,9,14,9,19
9,9,0,-9,4,4,34,9,9,14,9,24
9,9,0,-9,4,4,29,9,9,14,9,24
9,4,-4,-7,7,0,24,4,4,9,9,24
14,4,-9,-9,12,-2,9,-4,-9,-4,9,24
19,9,-9,-14,14,0,-4,-9,-14,-4,9,24
24,29,4,-26,9,17,-14,-14,-14,-4,9,34
34,43,9,-39,12,26,-24,-19,-14,4,19,39
24,43,19,-34,2,31,-24,-24,-19,0,19,39
24,48,24,-36,0,36,-24,-24,-19,0,24,48
24,43,19,-34,2,31,-29,-34,-24,0,24,48
24,34,9,-29,7,21,-29,-39,-39,-9,19,48
9,14,4,-12,2,9,-24,-39,-58,-29,4,43
9,-4,-14,-2,12,-9,-24,-39,-68,-39,-4,29
-4,-19,-14,12,4,-17,-14,-39,-82,-53,-24,14
-4,-34,-29,19,12,-31,-9,-39,-97,-68,-39,0
-9,-48,-39,29,14,-43,4,-39,-92,-63,-39,-4
-29,-63,-34,46,2,-48,9,-39,-102,-68,-48,-14
-34,-73,-39,53,2,-56,14,-39,-112,-78,-53,-24
-43,-87,-43,65,0,-65,19,-39,-112,-78,-63,-29
-39,-97,-58,68,9,-78,24,-43,-112,-92,-78,-34
-48,-107,-58,78,4,-82,29,-43,-112,-97,-82,-43
-48,-112,-63,80,7,-87,29,-43,-117,-102,-87,-53
-53,-122,-68,87,7,-95,29,-43,-122,-107,-97,-53
-68,-131,-63,100,-2,-97,34,-34,-117,-107,-92,-53
-78,-141,-63,109,-7,-102,34,-34,-122,-112,-92,-58
-87,-151,-63,119,-12,-107,39,-24,-122,-112,-87,-58
-97,-151,-53,124,-21,-102,39,-24,-122,-112,-87,-53
-87,-146,-58,117,-14,-102,39,-29,-122,-112,-97,-58
-87,-151,-63,119,-12,-107,39,-29,-126,-112,-97,-58
-87,-156,-68,122,-9,-112,39,-24,-126,-112,-97,-58
-92,-156,-63,124,-14,-109,39,-24,-126,-112,-102,-58
-82,-165,-82,124,0,-124,29,-34,-141,-112,-102,-68
-82,-165,-82,124,0,-124,29,-34,-141,-112,-102,-68
-82,-165,-82,124,0,-124,34,-34,-141,-117,-102,-68
-82,-165,-82,124,0,-124,34,-34,-141,-117,-102,-68
-73,-156,-82,114,4,-119,34,-34,-131,-117,-102,-68
-78,-156,-78,117,0,-117,34,-34,-131,-112,-102,-68
-78,-156,-78,117,0,-117,34,-34,-131,-112,-102,-73
-78,-161,-82,119,2,-122,39,-34,-131,-117,-102,-73
-78,-161,-82,119,2,-122,29,-34,-141,-126,-102,-73
-78,-161,-82,119,2,-122,29,-34,-141,-126,-102,-73
-78,-161,-82,119,2,-122,29,-34,-141,-126,-102,-73
-78,-161,-82,119,2,-122,29,-34,-141,-126,-102,-73
-68,-151,-82,109,7,-117,29,-34,-131,-117,-112,-78
-68,-151,-82,109,7,-117,29,-34,-131,-117,-117,-78
-68,-156,-87,112,9,-122,29,-34,-131,-117,-117,-78
-68,-156,-87,112,9,-122,29,-34,-131,-117,-117,-78
-68,-165,-97,117,14,-131,29,-34,-131,-126,-117,-78
-68,-165,-97,117,14,-131,29,-34,-131,-126,-117,-78
-68,-165,-97,117,14,-131,34,-34,-131,-126,-117,-78
-68,-165,-97,117,14,-131,34,-34,-131,-126,-117,-78
-82,-156,-73,119,-4,-114,39,-24,-122,-122,-112,-68
-92,-156,-63,124,-14,-109,39,-19,-122,-117,-107,-68
-97,-156,-58,126,-19,-107,43,-19,-117,-112,-97,-63
-102,-156,-53,129,-24,-104,43,-19,-117,-102,-92,-63
-92,-165,-73,129,-9,-119,34,-19,-117,-112,-97,-63
-92,-165,-73,129,-9,-119,34,-19,-117,-112,-97,-63
-97,-165,-68,131,-14,-117,43,-14,-97,-102,-97,-73
-97,-175,-78,136,-9,-126,58,0,-92,-97,-97,-78
-107,-180,-73,143,-17,-126,73,4,-78,-102,-107,-87
-131,-195,-63,163,-34,-129,107,4,-48,-82,-107,-92
-131,-195,-63,163,-34,-129,112,0,-43,-78,-102,-87
-136,-195,-58,165,-39,-126,112,4,-29,-82,-112,-92
-141,-204,-63,173,-39,-134,122,9,-24,-73,-102,-102
-146,-200,-53,173,-46,-126,126,9,-9,-58,-107,-102
-161,-229,-68,195,-46,-148,131,-9,-29,-78,-107,-112
-156,-224,-68,190,-43,-146,136,-9,-29,-78,-107,-107
-156,-204,-48,180,-53,-126,141,9,0,-48,-87,-97
-161,-185,-24,173,-68,-104,146,43,19,-24,-73,-87
-136,-161,-24,148,-56,-92,141,82,39,0,-53,-73
-102,-141,-39,122,-31,-90,131,141,68,39,-14,-48
-39,-87,-48,63,4,-68,112,185,82,82,34,-34
39,-19,-58,-9,48,-39,53,248,122,131,82,14
102,58,-43,-80,73,7,4,302,170,195,146,43
170,126,-43,-148,107,41,-68,336,204,258,214,82
287,219,-68,-253,178,75,-185,400,224,312,283,136
375,273,-102,-324,239,85,-278,453,204,341,331,170
483,351,-131,-417,307,109,-351,527,209,395,414,224
556,419,-136,-488,346,141,-385,595,273,483,492,273
600,483,-117,-541,358,183,-380,644,414,619,600,322
658,614,-43,-636,351,285,-400,668,644,858,800,429
653,692,39,-673,307,366,-419,551,746,985,912,492
644,722,78,-683,283,400,-434,380,790,1054,966,536
605,722,117,-663,244,419,-434,244,800,1054,971,541
546,673,126,-610,209,400,-395,131,746,971,902,522
424,561,136,-492,143,348,-297,-78,614,771,736,463
312,439,126,-375,92,283,-219,-175,444,575,570,390
165,283,117,-224,24,200,-82,-248,229,307,366,292
39,141,102,-90,-31,122,48,-283,53,78,190,224
-63,39,102,12,-82,70,156,-292,-53,-68,73,156
-156,-82,73,119,-114,-4,278,-312,-131,-209,-53,73
-200,-126,73,163,-136,-26,336,-302,-122,-234,-92,39
-244,-185,58,214,-151,-63,409,-273,-82,-234,-122,0
-292,-234,58,263,-175,-87,458,-244,-39,-214,-136,-34
-322,-258,63,290,-192,-97,492,-229,9,-185,-146,-48
-346,-283,63,314,-204,-109,517,-224,43,-165,-146,-73
-356,-307,48,331,-202,-129,512,-209,68,-151,-146,-87
-341,-312,29,326,-185,-141,512,-185,78,-141,-161,-97
-336,-307,29,322,-183,-139,502,-170,78,-136,-170,-102
-326,-312,14,319,-170,-148,478,-156,58,-136,-170,-112
-312,-312,0,312,-156,-156,439,-146,29,-136,-156,-112
-297,-292,4,295,-151,-143,400,-141,9,-136,-146,-102
-287,-273,14,280,-151,-129,351,-141,-19,-136,-141,-92
-263,-253,9,258,-136,-122,307,-131,-34,-136,-131,-87
-239,-229,9,234,-124,-109,263,-122,-48,-126,-122,-78
-190,-204,-14,197,-87,-109,204,-102,-68,-131,-112,-73
-170,-175,-4,173,-82,-90,170,-78,-63,-112,-97,-58
-156,-161,-4,158,-75,-82,131,-68,-58,-107,-87,-53
-141,-156,-14,148,-63,-85,107,-63,-58,-97,-87,-58
-126,-136,-9,131,-58,-73,87,-53,-58,-87,-82,-53
-112,-131,-19,122,-46,-75,63,-63,-58,-92,-73,-48
-97,-112,-14,104,-41,-63,43,-63,-63,-87,-78,-48
-92,-107,-14,100,-39,-61,34,-53,-63,-82,-73,-43
-97,-107,-9,102,-43,-58,34,-53,-63,-82,-73,-43
-97,-112,-14,104,-41,-63,29,-48,-63,-82,-73,-43
-87,-117,-29,102,-29,-73,24,-48,-63,-82,-68,-43
-87,-117,-29,102,-29,-73,24,-43,-63,-82,-68,-43
-78,-117,-39,97,-19,-78,24,-53,-63,-82,-78,-53
-78,-117,-39,97,-19,-78,24,-53,-63,-82,-78,-48
-78,-112,-34,95,-21,-73,14,-48,-63,-78,-78,-48
-78,-112,-34,95,-21,-73,14,-43,-68,-78,-78,-48
-87,-117,-29,102,-29,-73,14,-43,-68,-78,-78,-48
-87,-117,-29,102,-29,-73,14,-43,-68,-78,-73,-43
-87,-112,-24,100,-31,-68,9,-43,-68,-78,-73,-43
-82,-112,-29,97,-26,-70,9,-43,-68,-78,-73,-43
-73,-102,-29,87,-21,-65,9,-43,-68,-78,-73,-39
-73,-102,-29,87,-21,-65,4,-39,-68,-78,-73,-39
-73,-102,-29,87,-21,-65,4,-39,-68,-78,-78,-34
-73,-102,-29,87,-21,-65,4,-39,-68,-78,-78,-34
-78,-97,-19,87,-29,-58,4,-29,-63,-68,-63,-29
-82,-97,-14,90,-34,-56,4,-29,-63,-68,-63,-29
-82,-97,-14,90,-34,-56,4,-29,-63,-68,-68,-29
-82,-97,-14,90,-34,-56,0,-29,-58,-63,-68,-29
-82,-97,-14,90,-34,-56,0,-39,-48,-63,-63,-29
-82,-92,-9,87,-36,-51,0,-39,-48,-63,-63,-34
-82,-92,-9,87,-36,-51,0,-39,-43,-63,-63,-34
-82,-92,-9,87,-36,-51,0,-39,-43,-58,-63,-39
-73,-102,-29,87,-21,-65,-14,-39,-53,-68,-63,-39
-73,-102,-29,87,-21,-65,-14,-39,-53,-68,-63,-43
-73,-97,-24,85,-24,-61,-14,-39,-53,-68,-63,-43
-73,-97,-24,85,-24,-61,-14,-39,-53,-68,-63,-43
-58,-87,-29,73,-14,-58,-19,-39,-48,-68,-63,-34
-58,-87,-29,73,-14,-58,-19,-39,-48,-68,-58,-34
-58,-87,-29,73,-14,-58,-19,-39,-43,-63,-58,-29
-58,-87,-29,73,-14,-58,-19,-39,-43,-58,-58,-29
-58,-97,-39,78,-9,-68,-19,-39,-43,-58,-58,-34
-58,-92,-34,75,-12,-63,-19,-39,-39,-58,-58,-34
-58,-92,-34,75,-12,-63,-19,-39,-39,-58,-53,-34
-53,-87,-34,70,-9,-61,-19,-39,-34,-53,-53,-34
-53,-78,-24,65,-14,-51,-19,-39,-19,-43,-43,-29
-58,-78,-19,68,-19,-48,-19,-39,-19,-43,-39,-29
-58,-78,-19,68,-19,-48,-19,-39,-19,-39,-39,-29
-53,-78,-24,65,-14,-51,-19,-34,-19,-34,-39,-29
-63,-68,-4,65,-29,-36,-19,-34,-29,-43,-34,-24
-63,-63,0,63,-31,-31,-19,-34,-19,-39,-29,-24
-63,-63,0,63,-31,-31,-19,-34,-19,-39,-29,-24
-58,-63,-4,61,-26,-34,-19,-34,-19,-39,-29,-24
-58,-53,4,56,-31,-24,-24,-39,-9,-29,-39,-24
-58,-53,4,56,-31,-24,-24,-39,0,-24,-39,-24
-58,-43,14,51,-36,-14,-24,-34,9,-19,-39,-24
-58,-43,14,51,-36,-14,-24,-34,9,-19,-39,-19
-58,-53,4,56,-31,-24,-24,-34,9,-29,-34,-19
-58,-48,9,53,-34,-19,-24,-34,9,-24,-34,-19
-58,-48,9,53,-34,-19,-34,-34,9,-24,-34,-19
-58,-43,14,51,-36,-14,-34,-34,19,-19,-24,-19
-43,-48,-4,46,-19,-26,-43,-34,19,-9,-24,-9
-39,-48,-9,43,-14,-29,-43,-34,24,-4,-24,-4
-39,-39,0,39,-19,-19,-43,-34,34,0,-19,-4
-39,-43,-4,41,-17,-24,-48,-34,34,4,-14,0
-39,-43,-4,41,-17,-24,-48,-39,39,9,-9,-9
-29,-43,-14,36,-7,-29,-48,-39,43,9,-9,-4
-29,-39,-9,34,-9,-24,-48,-39,43,14,-9,-4
-29,-34,-4,31,-12,-19,-48,-39,48,19,0,4
-29,-24,4,26,-17,-9,-53,-24,58,24,-4,4
-29,-14,14,21,-21,0,-53,-24,63,29,4,4
-14,-4,9,9,-12,2,-53,-24,73,39,4,9
-24,4,29,9,-26,17,-53,-24,78,43,9,9
-14,9,24,2,-19,17,-58,-9,82,58,24,19
-4,14,19,-4,-12,17,-58,-9,87,63,29,24
0,14,14,-7,-7,14,-58,-9,97,68,34,29
0,19,19,-9,-9,19,-63,-9,107,78,34,29
-4,24,29,-9,-17,26,-63,0,122,82,48,34
0,29,29,-14,-14,29,-63,4,126,87,58,39
0,39,39,-19,-19,39,-73,4,141,92,63,43
0,43,43,-21,-21,43,-78,9,151,97,68,43
9,58,48,-34,-19,53,-78,0,146,107,63,43
14,63,48,-39,-17,56,-82,9,156,107,68,53
24,73,48,-48,-12,61,-82,9,161,122,73,58
29,78,48,-53,-9,63,-87,9,175,131,82,63
43,82,39,-63,2,61,-87,9,190,146,87,53
43,87,43,-65,0,65,-92,14,200,146,92,53
48,97,48,-73,0,73,-97,14,214,156,107,63
53,102,48,-78,2,75,-97,24,234,170,107,73
58,97,39,-78,9,68,-112,29,244,180,131,63
63,107,43,-85,9,75,-112,34,253,190,131,68
68,112,43,-90,12,78,-117,39,268,200,141,78
73,117,43,-95,14,80,-117,43,268,214,146,82
78,122,43,-100,17,82,-117,48,287,224,141,97
82,131,48,-107,17,90,-122,48,297,234,156,97
87,141,53,-114,17,97,-126,58,312,244,161,97
87,146,58,-117,14,102,-126,63,322,244,165,107
102,161,58,-131,21,109,-126,73,322,248,175,107
107,165,58,-136,24,112,-126,78,336,258,180,112
117,170,53,-143,31,112,-136,78,341,268,195,117
122,185,63,-153,29,124,-136,82,351,278,195,122
117,180,63,-148,26,122,-136,87,375,297,209,136
122,185,63,-153,29,124,-136,92,385,307,214,141
126,195,68,-161,29,131,-146,97,395,307,219,146
136,200,63,-168,36,131,-146,97,395,312,224,146
141,214,73,-178,34,143,-151,97,400,322,239,146
141,214,73,-178,34,143,-156,107,400,326,248,151
151,214,63,-183,43,139,-156,112,414,331,248,156
156,224,68,-190,43,146,-161,112,419,331,253,156
165,229,63,-197,51,146,-170,102,424,326,244,151
165,229,63,-197,51,146,-165,112,429,331,248,156
165,229,63,-197,51,146,-161,122,434,331,253,161
180,229,48,-204,65,139,-156,122,434,331,253,165
180,219,39,-200,70,129,-165,117,429,326,244,161
175,219,43,-197,65,131,-165,117,419,317,244,156
175,219,43,-197,65,131,-165,112,400,302,234,146
170,219,48,-195,61,134,-161,107,385,292,229,141
165,209,43,-187,61,126,-161,117,375,278,219,131
165,200,34,-183,65,117,-156,112,361,263,214,131
161,200,39,-180,61,119,-151,102,351,253,200,126
156,185,29,-170,63,107,-151,97,331,234,195,122
141,180,39,-161,51,109,-141,92,317,239,185,117
136,170,34,-153,51,102,-141,87,302,229,175,117
126,161,34,-143,46,97,-136,82,287,214,165,112
122,151,29,-136,46,90,-131,82,273,200,156,102
97,141,43,-119,26,92,-126,78,258,180,141,97
97,126,29,-112,34,78,-122,68,244,170,136,92
87,122,34,-104,26,78,-117,58,229,156,122,78
78,112,34,-95,21,73,-112,58,214,141,112,78
58,112,53,-85,2,82,-107,53,204,131,112,82
53,97,43,-75,4,70,-102,39,185,131,102,73
53,87,34,-70,9,61,-102,39,165,117,92,68
39,78,39,-58,0,58,-97,34,151,112,82,63
48,58,9,-53,19,34,-92,19,136,92,68,48
34,48,14,-41,9,31,-87,9,117,87,58,39
19,39,19,-29,0,29,-82,0,97,73,48,34
19,34,14,-26,2,24,-82,-9,78,63,39,29
14,24,9,-19,2,17,-87,-14,78,53,34,14
9,19,9,-14,0,14,-87,-19,68,43,24,14
0,4,4,-2,-2,4,-78,-24,53,34,14,4
-14,0,14,7,-14,7,-78,-29,39,24,4,4
-4,0,4,2,-4,2,-63,-43,43,24,14,4
-9,0,9,4,-9,4,-58,-43,39,19,9,4
-9,-14,-4,12,-2,-9,-58,-43,29,9,4,-4
-14,-24,-9,19,-2,-17,-58,-48,19,0,-9,-4
-34,-39,-4,36,-14,-21,-53,-39,19,-9,-14,-9
-34,-43,-9,39,-12,-26,-53,-39,9,-9,-19,-14
-34,-43,-9,39,-12,-26,-53,-43,4,-19,-24,-24
-39,-48,-9,43,-14,-29,-53,-43,-4,-29,-29,-24
-48,-53,-4,51,-21,-29,-39,-43,-4,-19,-29,-19
-48,-58,-9,53,-19,-34,-39,-43,-9,-24,-39,-24
-53,-63,-9,58,-21,-36,-39,-43,-19,-29,-43,-24
-53,-63,-9,58,-21,-36,-34,-43,-24,-39,-43,-24
-43,-63,-19,53,-12,-41,-34,-48,-29,-43,-39,-19
-48,-68,-19,58,-14,-43,-34,-48,-34,-48,-43,-24
-48,-73,-24,61,-12,-48,-34,-48,-39,-48,-43,-24
-48,-73,-24,61,-12,-48,-34,-48,-43,-53,-43,-24
-63,-78,-14,70,-24,-46,-39,-48,-48,-43,-53,-34
-63,-82,-19,73,-21,-51,-39,-48,-53,-48,-58,-39
-63,-82,-19,73,-21,-51,-39,-48,-53,-48,-58,-39
-58,-87,-29,73,-14,-58,-39,-53,-58,-53,-63,-39
-48,-87,-39,68,-4,-63,-48,-63,-63,-53,-63,-43
-53,-87,-34,70,-9,-61,-48,-63,-63,-58,-63,-43
-53,-87,-34,70,-9,-61,-48,-63,-63,-58,-58,-43
-53,-87,-34,70,-9,-61,-48,-63,-58,-58,-58,-43
-53,-87,-34,70,-9,-61,-48,-63,-68,-68,-73,-39
-53,-87,-34,70,-9,-61,-48,-63,-68,-68,-73,-39
-53,-92,-39,73,-7,-65,-48,-63,-73,-73,-73,-43
-58,-92,-34,75,-12,-63,-53,-63,-78,-73,-78,-43
-63,-92,-29,78,-17,-61,-53,-53,-78,-63,-68,-43
-68,-97,-29,82,-19,-63,-53,-58,-73,-63,-73,-43
-73,-97,-24,85,-24,-61,-48,-58,-73,-63,-73,-43
-78,-97,-19,87,-29,-58,-48,-58,-73,-63,-73,-43
-73,-92,-19,82,-26,-56,-39,-58,-63,-63,-63,-34
-73,-92,-19,82,-26,-56,-34,-58,-63,-63,-63,-34
-73,-92,-19,82,-26,-56,-34,-58,-63,-63,-63,-34
-78,-92,-14,85,-31,-53,-34,-53,-63,-58,-63,-34
-78,-87,-9,82,-34,-48,-43,-63,-73,-58,-58,-34
-73,-87,-14,80,-29,-51,-43,-63,-73,-58,-58,-34
-78,-87,-9,82,-34,-48,-43,-63,-73,-58,-58,-34
-63,-97,-34,80,-14,-65,-43,-63,-73,-58,-63,-34
-73,-97,-24,85,-24,-61,-53,-68,-78,-73,-73,-39
-68,-92,-24,80,-21,-58,-53,-68,-78,-73,-73,-39
-63,-92,-29,78,-17,-61,-53,-68,-78,-73,-73,-39
-58,-92,-34,75,-12,-63,-53,-68,-73,-73,-73,-39
-58,-87,-29,73,-14,-58,-43,-68,-73,-73,-68,-39
-58,-87,-29,73,-14,-58,-43,-68,-78,-73,-68,-39
-63,-92,-29,78,-17,-61,-43,-68,-78,-73,-68,-39
-63,-92,-29,78,-17,-61,-48,-68,-78,-73,-68,-39
-63,-87,-24,75,-19,-56,-48,-73,-73,-73,-78,-39
-63,-87,-24,75,-19,-56,-48,-73,-73,-73,-78,-39
-63,-82,-19,73,-21,-51,-48,-73,-73,-73,-78,-39
-63,-78,-14,70,-24,-46,-48,-68,-73,-73,-78,-39
-78,-78,0,78,-39,-39,-48,-68,-63,-58,-68,-43
-78,-73,4,75,-41,-34,-48,-68,-68,-58,-68,-43
-73,-73,0,73,-36,-36,-48,-68,-68,-58,-68,-43
-73,-73,0,73,-36,-36,-48,-68,-68,-58,-68,-43
-78,-82,-4,80,-36,-43,-48,-63,-68,-48,-58,-43
-78,-82,-4,80,-36,-43,-48,-63,-63,-48,-58,-43
-78,-82,-4,80,-36,-43,-48,-63,-63,-48,-58,-43
-78,-82,-4,80,-36,-43,-48,-63,-63,-48,-58,-43
-68,-73,-4,70,-31,-39,-48,-63,-73,-58,-58,-34
-68,-78,-9,73,-29,-43,-48,-63,-73,-58,-58,-34
-68,-78,-9,73,-29,-43,-48,-63,-73,-58,-58,-34
-63,-78,-14,70,-24,-46,-48,-63,-73,-53,-53,-34
-53,-87,-34,70,-9,-61,-58,-73,-82,-63,-63,-24
-53,-82,-29,68,-12,-56,-58,-73,-82,-63,-63,-24
-63,-78,-14,70,-24,-46,-58,-73,-78,-63,-63,-24
-63,-73,-9,68,-26,-41,-58,-73,-78,-58,-58,-24
-73,-73,0,73,-36,-36,-48,-63,-73,-48,-48,-24
-68,-73,-4,70,-31,-39,-48,-63,-68,-48,-48,-24
-68,-73,-4,70,-31,-39,-48,-63,-63,-48,-48,-24
-68,-78,-9,73,-29,-43,-48,-63,-58,-48,-48,-19
-68,-73,-4,70,-31,-39,-58,-63,-63,-48,-48,-29
-68,-73,-4,70,-31,-39,-58,-68,-63,-48,-48,-34
-63,-68,-4,65,-29,-36,-63,-68,-63,-48,-48,-34
-58,-63,-4,61,-26,-34,-63,-68,-63,-48,-48,-34
-58,-58,0,58,-29,-29,-63,-63,-63,-39,-48,-34
-58,-58,0,58,-29,-29,-63,-63,-63,-39,-48,-34
-58,-58,0,58,-29,-29,-63,-63,-63,-39,-48,-34
-58,-58,0,58,-29,-29,-63,-63,-63,-39,-48,-34
-58,-68,-9,63,-24,-39,-53,-63,-63,-39,-39,-24
-58,-68,-9,63,-24,-39,-53,-63,-58,-39,-39,-24
-58,-73,-14,65,-21,-43,-53,-63,-58,-39,-39,-24
-63,-73,-9,68,-26,-41,-53,-63,-58,-39,-39,-24
-58,-73,-14,65,-21,-43,-53,-63,-48,-48,-48,-24
-58,-73,-14,65,-21,-43,-53,-63,-48,-48,-48,-24
-53,-68,-14,61,-19,-41,-53,-58,-48,-43,-48,-24
-53,-68,-14,61,-19,-41,-53,-58,-53,-43,-48,-24
-63,-78,-14,70,-24,-46,-53,-58,-63,-48,-53,-24
-58,-78,-19,68,-19,-48,-48,-58,-63,-48,-53,-19
-58,-78,-19,68,-19,-48,-48,-58,-63,-48,-53,-14
-63,-78,-14,70,-24,-46,-48,-58,-68,-43,-53,-14
-53,-68,-14,61,-19,-41,-58,-58,-68,-43,-48,-19
-53,-68,-14,61,-19,-41,-63,-58,-63,-43,-43,-24
-53,-68,-14,61,-19,-41,-63,-58,-63,-43,-39,-24
-53,-68,-14,61,-19,-41,-63,-58,-63,-48,-34,-24
-63,-68,-4,65,-29,-36,-63,-58,-53,-48,-48,-34
-63,-73,-9,68,-26,-41,-68,-58,-58,-48,-48,-34
-58,-73,-14,65,-21,-43,-68,-58,-58,-48,-48,-34
-58,-68,-9,63,-24,-39,-68,-58,-58,-48,-48,-34
-63,-68,-4,65,-29,-36,-68,-58,-58,-48,-48,-34
-63,-68,-4,65,-29,-36,-68,-58,-53,-48,-48,-34
-63,-68,-4,65,-29,-36,-63,-58,-53,-48,-48,-34
-63,-68,-4,65,-29,-36,-63,-58,-53,-48,-48,-34
-53,-68,-14,61,-19,-41,-63,-58,-63,-48,-48,-34
-53,-68,-14,61,-19,-41,-63,-58,-63,-53,-48,-34
-53,-68,-14,61,-19,-41,-63,-58,-73,-53,-53,-39
-58,-68,-9,63,-24,-39,-63,-58,-63,-58,-53,-39
-63,-68,-4,65,-29,-36,-63,-58,-63,-48,-43,-34
-63,-68,-4,65,-29,-36,-63,-58,-68,-48,-43,-29
-63,-73,-9,68,-26,-41,-63,-58,-73,-48,-43,-24
-68,-73,-4,70,-31,-39,-63,-58,-73,-48,-43,-19
-58,-63,-4,61,-26,-34,-63,-58,-68,-58,-53,-14
-53,-63,-9,58,-21,-36,-63,-53,-68,-58,-53,-14
-53,-63,-9,58,-21,-36,-63,-53,-68,-58,-53,-14
-53,-68,-14,61,-19,-41,-63,-53,-73,-58,-53,-19
-53,-58,-4,56,-24,-31,-63,-63,-78,-48,-43,-29
-53,-58,-4,56,-24,-31,-63,-63,-82,-53,-43,-29
-53,-58,-4,56,-24,-31,-63,-68,-82,-53,-48,-29
-48,-58,-9,53,-19,-34,-63,-73,-82,-53,-48,-24
-58,-68,-9,63,-24,-39,-63,-73,-87,-53,-39,-14
-63,-68,-4,65,-29,-36,-68,-73,-87,-53,-39,-19
-63,-68,-4,65,-29,-36,-68,-73,-82,-53,-39,-19
-58,-68,-9,63,-24,-39,-68,-73,-82,-58,-39,-19
-68,-68,0,68,-34,-34,-78,-63,-82,-58,-48,-29
-68,-68,0,68,-34,-34,-73,-63,-82,-58,-48,-29
-68,-68,0,68,-34,-34,-73,-58,-78,-58,-48,-29
-68,-68,0,68,-34,-34,-73,-58,-78,-58,-48,-29
-68,-78,-9,73,-29,-43,-63,-58,-78,-58,-48,-29
-73,-82,-9,78,-31,-46,-68,-58,-82,-58,-48,-29
-82,-82,0,82,-41,-41,-73,-63,-82,-58,-53,-29
-73,-82,-9,78,-31,-46,-73,-63,-82,-58,-53,-29
-73,-82,-9,78,-31,-46,-73,-63,-78,-58,-53,-19
-78,-82,-4,80,-36,-43,-73,-63,-78,-58,-53,-19
-78,-82,-4,80,-36,-43,-68,-63,-78,-58,-53,-19
-78,-82,-4,80,-36,-43,-63,-63,-78,-58,-53,-19
-68,-73,-4,70,-31,-39,-63,-68,-78,-53,-43,-19
-73,-73,0,73,-36,-36,-63,-68,-73,-53,-43,-19
-73,-73,0,73,-36,-36,-63,-68,-73,-53,-43,-19
-68,-73,-4,70,-31,-39,-63,-68,-78,-53,-43,-19
-58,-73,-14,65,-21,-43,-73,-78,-78,-63,-53,-29
-53,-73,-19,63,-17,-46,-73,-73,-78,-63,-53,-29
-48,-73,-24,61,-12,-48,-73,-73,-78,-63,-58,-34
-48,-78,-29,63,-9,-53,-73,-73,-78,-63,-58,-34
-53,-78,-24,65,-14,-51,-63,-63,-87,-63,-58,-34
-58,-78,-19,68,-19,-48,-63,-63,-92,-63,-58,-34
-68,-78,-9,73,-29,-43,-63,-63,-92,-63,-58,-34
-82,-73,9,78,-46,-31,-68,-58,-82,-63,-53,-34
-73,-68,4,70,-39,-31,-78,-68,-82,-58,-43,-29
-73,-63,9,68,-41,-26,-78,-68,-87,-53,-43,-24
-68,-58,9,63,-39,-24,-78,-68,-87,-48,-43,-19
-63,-53,9,58,-36,-21,-73,-68,-87,-43,-43,-14
-73,-58,14,65,-43,-21,-73,-58,-78,-53,-43,-24
-73,-68,4,70,-39,-31,-73,-58,-78,-53,-43,-24
-82,-73,9,78,-46,-31,-73,-63,-82,-53,-43,-24
-73,-78,-4,75,-34,-41,-73,-63,-82,-53,-43,-24
-73,-78,-4,75,-34,-41,-68,-73,-78,-53,-43,-34
-73,-78,-4,75,-34,-41,-68,-73,-78,-53,-48,-34
-73,-78,-4,75,-34,-41,-68,-73,-78,-53,-48,-34
-73,-78,-4,75,-34,-41,-68,-68,-78,-53,-48,-34
-68,-68,0,68,-34,-34,-68,-58,-78,-53,-39,-29
-68,-68,0,68,-34,-34,-68,-58,-73,-53,-39,-24
-73,-68,4,70,-39,-31,-68,-58,-73,-53,-39,-19
-73,-68,4,70,-39,-31,-68,-58,-73,-58,-39,-14
-73,-82,-9,78,-31,-46,-68,-68,-82,-48,-48,-14
-73,-82,-9,78,-31,-46,-68,-68,-87,-48,-48,-14
-73,-78,-4,75,-34,-41,-68,-73,-97,-48,-48,-14
-73,-78,-4,75,-34,-41,-68,-73,-97,-48,-48,-14
-63,-68,-4,65,-29,-36,-73,-82,-92,-58,-58,-19
-58,-68,-9,63,-24,-39,-78,-82,-92,-58,-53,-24
-58,-68,-9,63,-24,-39,-82,-78,-92,-58,-48,-29
-58,-68,-9,63,-24,-39,-87,-78,-92,-58,-48,-34
-58,-68,-9,63,-24,-39,-78,-78,-92,-58,-48,-24
-58,-68,-9,63,-24,-39,-78,-78,-92,-58,-48,-24
-58,-68,-9,63,-24,-39,-78,-73,-92,-58,-48,-24
-58,-68,-9,63,-24,-39,-78,-73,-92,-53,-48,-24
-68,-73,-4,70,-31,-39,-78,-68,-87,-43,-48,-14
-82,-73,9,78,-46,-31,-78,-68,-82,-43,-43,-14
-87,-68,19,78,-53,-24,-78,-68,-78,-43,-43,-14
-87,-68,19,78,-53,-24,-78,-68,-78,-43,-43,-14
-63,-68,-4,65,-29,-36,-78,-68,-68,-43,-53,-24
-63,-68,-4,65,-29,-36,-78,-68,-68,-43,-48,-24
-63,-68,-4,65,-29,-36,-78,-58,-73,-39,-48,-14
-73,-68,4,70,-39,-31,-78,-68,-82,-48,-43,-14
-68,-68,0,68,-34,-34,-78,-68,-87,-48,-48,-9
-58,-63,-4,61,-26,-34,-78,-68,-78,-48,-39,-9
-58,-58,0,58,-29,-29,-78,-68,-78,-48,-39,-9
-58,-53,4,56,-31,-24,-78,-68,-78,-48,-39,-9
-58,-48,9,53,-34,-19,-78,-68,-78,-48,-39,-9
-58,-43,14,51,-36,-14,-78,-68,-73,-34,-34,0
-58,-39,19,48,-39,-9,-73,-58,-68,-24,-29,0
-58,-24,34,41,-46,4,-73,-58,-63,-19,-24,4
-53,-24,29,39,-41,2,-73,-58,-58,-14,-19,4
-39,-19,19,29,-29,0,-78,-63,-48,-19,-14,4
-34,-9,24,21,-29,7,-78,-63,-39,-14,-9,14
-34,-4,29,19,-31,12,-78,-63,-34,-9,-9,19
-34,0,34,17,-34,17,-78,-63,-29,0,-9,19
-43,9,53,17,-48,31,-73,-63,-14,4,0,29
-43,9,53,17,-48,31,-73,-58,-9,9,4,29
-43,9,53,17,-48,31,-68,-58,-9,14,9,29
-43,9,53,17,-48,31,-68,-53,-4,24,19,29
-43,0,43,21,-43,21,-68,-43,-9,19,9,19
-34,4,39,14,-36,21,-68,-39,-4,19,14,19
-24,14,39,4,-31,26,-68,-39,0,24,19,24
-9,19,29,-4,-19,24,-78,-34,0,29,19,34
0,29,29,-14,-14,29,-68,-29,0,24,9,29
4,43,39,-24,-17,41,-73,-29,9,29,24,34
14,53,39,-34,-12,46,-78,-29,14,34,29,39
19,63,43,-41,-12,53,-82,-29,19,43,34,43
19,87,68,-53,-24,78,-87,-29,29,48,48,48
19,87,68,-53,-24,78,-92,-39,29,53,48,53
19,92,73,-56,-26,82,-97,-39,29,58,48,53
19,92,73,-56,-26,82,-102,-43,24,58,48,53
19,87,68,-53,-24,78,-107,-53,19,43,39,43
19,87,68,-53,-24,78,-122,-58,14,43,39,43
19,102,82,-61,-31,92,-131,-63,14,43,39,53
24,112,87,-68,-31,100,-141,-68,14,53,48,58
24,126,102,-75,-39,114,-151,-73,19,68,68,63
24,136,112,-80,-43,124,-151,-73,19,68,73,78
24,136,112,-80,-43,124,-156,-82,14,68,73,82
24,131,107,-78,-41,119,-156,-87,0,58,68,87
29,122,92,-75,-31,107,-161,-87,-9,48,58,87
29,102,73,-65,-21,87,-161,-87,-19,39,53,78
14,87,73,-51,-29,80,-151,-87,-34,24,39,68
14,73,58,-43,-21,65,-146,-87,-48,9,29,58
0,48,48,-24,-24,48,-141,-87,-63,-4,19,53
-19,34,53,-7,-36,43,-136,-87,-73,-9,9,43
-24,24,48,0,-36,36,-131,-87,-82,-19,4,34
-34,9,43,12,-39,26,-126,-87,-82,-19,-4,29
-39,0,39,19,-39,19,-102,-82,-82,-24,0,34
-48,-9,39,29,-43,14,-97,-82,-82,-29,-4,24
-48,-14,34,31,-41,9,-97,-82,-87,-34,-9,14
-53,-24,29,39,-41,2,-97,-82,-92,-39,-19,14
-58,-43,14,51,-36,-14,-92,-82,-107,-43,-39,0
-58,-53,4,56,-31,-24,-92,-82,-112,-53,-43,-9
-58,-63,-4,61,-26,-34,-87,-73,-112,-58,-43,-14
-58,-63,-4,61,-26,-34,-87,-73,-112,-63,-48,-14
-48,-58,-9,53,-19,-34,-87,-78,-112,-63,-58,-29
-48,-63,-14,56,-17,-39,-87,-78,-117,-63,-58,-29
-48,-68,-19,58,-14,-43,-87,-73,-117,-63,-58,-29
-53,-68,-14,61,-19,-41,-87,-73,-117,-63,-63,-29
-53,-78,-24,65,-14,-51,-87,-73,-112,-73,-63,-34
-53,-78,-24,65,-14,-51,-87,-73,-112,-73,-63,-39
-53,-78,-24,65,-14,-51,-82,-73,-112,-78,-63,-43
-53,-78,-24,65,-14,-51,-82,-73,-112,-78,-63,-48
-68,-78,-9,73,-29,-43,-73,-63,-102,-68,-63,-43
-78,-78,0,78,-39,-39,-73,-63,-102,-63,-63,-39
-82,-78,4,80,-43,-36,-73,-63,-102,-63,-63,-39
-87,-82,4,85,-46,-39,-68,-63,-102,-68,-63,-34
-82,-82,0,82,-41,-41,-68,-63,-112,-78,-63,-34
-78,-82,-4,80,-36,-43,-68,-63,-112,-78,-63,-34
-73,-82,-9,78,-31,-46,-68,-63,-112,-78,-63,-34
-68,-82,-14,75,-26,-48,-68,-63,-112,-78,-63,-34
-68,-82,-14,75,-26,-48,-68,-63,-112,-78,-53,-29
-68,-82,-14,75,-26,-48,-68,-63,-112,-78,-58,-29
-68,-87,-19,78,-24,-53,-68,-63,-112,-78,-58,-29
-68,-87,-19,78,-24,-53,-68,-63,-112,-78,-58,-29
-58,-87,-29,73,-14,-58,-68,-63,-122,-78,-58,-39
-58,-87,-29,73,-14,-58,-68,-63,-122,-78,-58,-39
-58,-87,-29,73,-14,-58,-63,-63,-122,-78,-58,-39
-58,-87,-29,73,-14,-58,-63,-63,-122,-78,-58,-39
-58,-87,-29,73,-14,-58,-68,-73,-122,-78,-68,-39
-63,-87,-24,75,-19,-56,-68,-68,-122,-78,-68,-39
-63,-87,-24,75,-19,-56,-63,-68,-117,-78,-63,-34
-63,-87,-24,75,-19,-56,-63,-68,-117,-73,-63,-34
-53,-87,-34,70,-9,-61,-53,-58,-107,-73,-68,-34
-53,-97,-43,75,-4,-70,-53,-58,-107,-73,-68,-34
-58,-97,-39,78,-9,-68,-43,-53,-97,-73,-68,-34
-58,-107,-48,82,-4,-78,-39,-48,-92,-68,-58,-39
-58,-112,-53,85,-2,-82,-34,-43,-78,-63,-68,-48
-53,-126,-73,90,9,-100,-19,-43,-58,-53,-78,-63
-73,-136,-63,104,-4,-100,4,-39,-53,-58,-73,-68
-97,-136,-39,117,-29,-87,24,-14,-29,-34,-73,-73
-112,-136,-24,124,-43,-80,34,0,-4,-24,-63,-63
-107,-141,-34,124,-36,-87,29,0,9,-19,-68,-73
-112,-131,-19,122,-46,-75,43,0,29,9,-58,-73
-126,-146,-19,136,-53,-82,58,0,29,0,-58,-68
-126,-146,-19,136,-53,-82,63,0,29,0,-58,-68
-112,-136,-24,124,-43,-80,68,4,29,4,-53,-68
-107,-122,-14,114,-46,-68,63,24,48,29,-34,-53
-102,-92,9,97,-56,-41,82,82,97,78,24,-19
-87,-87,0,87,-43,-43,82,117,102,82,24,-14
-39,-48,-9,43,-14,-29,53,161,122,122,73,4
24,9,-14,-17,19,-2,24,214,141,175,126,34
73,68,-4,-70,39,31,-29,258,185,219,165,73
151,161,9,-156,70,85,-107,292,244,292,244,117
209,224,14,-217,97,119,-170,307,244,331,292,151
336,312,-24,-324,180,143,-292,351,209,375,366,214
439,390,-48,-414,244,170,-395,390,175,414,434,263
512,463,-48,-488,280,207,-448,429,190,473,512,312
600,556,-43,-578,322,256,-478,492,312,624,644,370
624,644,19,-634,302,331,-478,492,453,780,766,444
634,741,107,-688,263,424,-512,400,614,966,917,527
634,800,165,-717,234,483,-531,283,702,1083,1010,580
605,800,195,-702,204,497,-512,190,727,1107,1039,600
541,756,214,-649,163,485,-483,78,712,1073,1010,600
468,683,214,-575,126,448,-424,-19,678,985,922,566
331,546,214,-439,58,380,-307,-141,551,766,727,488
204,405,200,-305,2,302,-185,-224,414,546,531,390
102,283,180,-192,-39,231,-78,-244,278,331,366,312
-48,131,180,-41,-114,156,63,-273,112,73,151,200
-102,68,170,17,-136,119,141,-273,82,0,73,146
-175,-19,156,97,-165,68,253,-253,82,-68,-4,87
-234,-78,156,156,-195,39,331,-234,97,-97,-58,53
-263,-112,151,187,-207,19,385,-219,126,-97,-78,19
-307,-156,151,231,-229,-2,448,-195,141,-87,-97,-4
-317,-180,136,248,-226,-21,463,-200,126,-102,-117,-29
-322,-214,107,268,-214,-53,473,-185,117,-112,-122,-48
-317,-239,78,278,-197,-80,483,-170,117,-117,-122,-53
-317,-244,73,280,-195,-85,488,-146,97,-107,-122,-63
-302,-263,39,283,-170,-112,488,-126,78,-107,-126,-73
-297,-273,24,285,-161,-124,488,-122,68,-107,-126,-92
-268,-253,14,261,-141,-119,448,-112,39,-117,-131,-92
-244,-234,9,239,-126,-112,395,-112,14,-117,-131,-97
-239,-219,19,229,-129,-100,351,-122,0,-117,-122,-78
-219,-175,43,197,-131,-65,292,-112,0,-102,-102,-63
-209,-165,43,187,-126,-61,258,-107,-14,-92,-97,-48
-175,-141,34,158,-104,-53,190,-97,-29,-87,-87,-43
-151,-126,24,139,-87,-51,146,-82,-29,-78,-78,-29
-126,-117,9,122,-68,-53,107,-73,-29,-78,-73,-24
-92,-112,-19,102,-36,-65,82,-53,-39,-63,-63,-19
-68,-102,-34,85,-17,-68,63,-53,-43,-68,-58,-19
-63,-78,-14,70,-24,-46,34,-63,-43,-53,-43,-14
-68,-63,4,65,-36,-29,9,-63,-43,-43,-34,-4
-68,-63,4,65,-36,-29,0,-58,-43,-43,-34,-4
-58,-63,-4,61,-26,-34,-9,-58,-43,-43,-29,-4
-58,-58,0,58,-29,-29,-14,-53,-43,-43,-29,-4
-63,-63,0,63,-31,-31,-4,-53,-53,-43,-39,-14
-68,-68,0,68,-34,-34,-4,-53,-53,-43,-39,-9
-73,-68,4,70,-39,-31,-14,-48,-53,-39,-39,-9
-78,-73,4,75,-41,-34,-14,-43,-58,-39,-39,-9
-78,-78,0,78,-39,-39,-14,-34,-48,-48,-39,0
-78,-78,0,78,-39,-39,-14,-34,-48,-48,-34,4
-78,-73,4,75,-41,-34,-19,-34,-48,-48,-34,4
-73,-73,0,73,-36,-36,-19,-34,-48,-48,-34,4
-73,-73,0,73,-36,-36,-29,-43,-58,-48,-34,-4
-73,-73,0,73,-36,-36,-34,-39,-58,-48,-34,-9
-73,-73,0,73,-36,-36,-34,-39,-58,-48,-39,-9
-73,-73,0,73,-36,-36,-34,-39,-58,-48,-39,-14
-63,-68,-4,65,-29,-36,-34,-29,-53,-48,-43,-19
-63,-68,-4,65,-29,-36,-34,-29,-53,-48,-43,-19
-58,-68,-9,63,-24,-39,-34,-29,-53,-48,-48,-19
-53,-68,-14,61,-19,-41,-39,-29,-48,-43,-48,-19
-43,-68,-24,56,-9,-46,-39,-29,-58,-43,-43,-4
-43,-63,-19,53,-12,-41,-39,-29,-58,-43,-43,-4
-43,-63,-19,53,-12,-41,-39,-29,-53,-43,-43,0
-43,-63,-19,53,-12,-41,-39,-29,-53,-39,-43,0
-43,-73,-29,58,-7,-51,-34,-29,-43,-39,-34,9
-43,-73,-29,58,-7,-51,-34,-29,-43,-39,-34,4
-43,-68,-24,56,-9,-46,-34,-29,-43,-39,-34,4
-43,-68,-24,56,-9,-46,-34,-29,-43,-39,-34,4
-39,-68,-29,53,-4,-48,-39,-29,-48,-39,-34,4
-39,-68,-29,53,-4,-48,-39,-29,-48,-39,-29,4
-39,-68,-29,53,-4,-48,-39,-29,-43,-34,-29,9
-39,-68,-29,53,-4,-48,-39,-29,-43,-29,-29,9
-29,-58,-29,43,0,-43,-39,-19,-53,-29,-29,-4
-29,-53,-24,41,-2,-39,-39,-19,-48,-29,-29,-4
-29,-53,-24,41,-2,-39,-39,-19,-48,-29,-24,-4
-24,-48,-24,36,0,-36,-39,-19,-43,-24,-24,-4
-29,-58,-29,43,0,-43,-29,-29,-29,-24,-24,9
-39,-58,-19,48,-9,-39,-29,-29,-29,-24,-19,9
-43,-58,-14,51,-14,-36,-29,-29,-29,-19,-19,9
-43,-58,-14,51,-14,-36,-29,-24,-29,-14,-19,9
-53,-48,4,51,-29,-21,-29,-24,-29,-14,-4,14
-53,-43,9,48,-31,-17,-29,-24,-19,-9,0,14
-53,-43,9,48,-31,-17,-29,-24,-19,-9,0,14
-48,-43,4,46,-26,-19,-29,-24,-19,-9,0,14
-43,-53,-9,48,-17,-31,-34,-19,-19,-19,-4,4
-39,-53,-14,46,-12,-34,-34,-19,-9,-14,-9,4
-34,-43,-9,39,-12,-26,-34,-14,0,-9,-14,4
-29,-43,-14,36,-7,-29,-34,-14,0,-9,-19,9
-29,-53,-24,41,-2,-39,-34,-24,0,-9,-24,9
-29,-48,-19,39,-4,-34,-34,-24,0,-4,-24,9
-29,-48,-19,39,-4,-34,-43,-24,0,-4,-24,9
-29,-43,-14,36,-7,-29,-43,-24,9,0,-14,9
-34,-43,-9,39,-12,-26,-43,-24,9,9,-4,0
-29,-39,-9,34,-9,-24,-43,-24,14,14,-4,4
-29,-24,4,26,-17,-9,-43,-24,24,19,0,4
-29,-24,4,26,-17,-9,-48,-24,24,24,4,9
-29,-19,9,24,-19,-4,-48,-19,29,29,19,19
-19,-14,4,17,-12,-4,-48,-19,34,29,19,24
-19,-4,14,12,-17,4,-48,-19,34,34,19,24
-19,4,24,7,-21,14,-48,-19,39,39,29,34
-19,0,19,9,-19,9,-63,-4,48,43,24,34
-19,4,24,7,-21,14,-63,-4,53,48,34,34
-4,9,14,-2,-9,12,-63,-4,63,58,34,39
-14,14,29,0,-21,21,-63,-4,68,63,39,39
-4,9,14,-2,-9,12,-68,0,63,63,34,29
