I, II, III, aVR, aVL, aVF, V1, V2, V3, V4, V5, V6
-19,-58,-39,39,9,-48,19,0,-48,-39,-29,-39
-19,-58,-39,39,9,-48,19,0,-48,-39,-29,-39
-19,-58,-39,39,9,-48,19,0,-48,-39,-29,-39
-19,-58,-39,39,9,-48,19,0,-48,-39,-29,-39
-19,-48,-29,34,4,-39,19,0,-48,-29,-29,-39
-19,-48,-29,34,4,-39,19,0,-48,-29,-29,-39
-19,-48,-29,34,4,-39,19,0,-48,-29,-29,-39
-19,-48,-29,34,4,-39,19,0,-48,-29,-29,-39
-19,-48,-29,34,4,-39,19,0,-39,-29,-29,-39
-19,-48,-29,34,4,-39,19,0,-39,-29,-29,-39
-19,-48,-29,34,4,-39,19,0,-39,-29,-29,-39
-19,-48,-29,34,4,-39,19,0,-39,-29,-29,-39
-19,-48,-29,34,4,-39,19,0,-39,-19,-29,-39
-19,-48,-29,34,4,-39,19,0,-39,-19,-29,-39
-19,-48,-29,34,4,-39,19,0,-39,-19,-29,-39
-19,-48,-29,34,4,-39,19,0,-39,-19,-29,-39
-19,-48,-29,34,4,-39,19,0,-39,-29,-29,-39
-19,-48,-29,34,4,-39,19,0,-39,-29,-29,-39
-19,-48,-29,34,4,-39,19,0,-39,-29,-29,-39
-19,-48,-29,34,4,-39,19,0,-39,-29,-29,-39
-9,-48,-39,29,14,-43,19,-9,-39,-29,-29,-39
-9,-48,-39,29,14,-43,19,-9,-39,-29,-29,-39
-9,-48,-39,29,14,-43,19,-9,-39,-29,-29,-39
-9,-48,-39,29,14,-43,19,-9,-39,-29,-29,-39
-9,-48,-39,29,14,-43,9,0,-39,-29,-29,-39
-9,-48,-39,29,14,-43,9,0,-39,-29,-29,-39
-9,-48,-39,29,14,-43,9,0,-39,-29,-29,-39
-9,-48,-39,29,14,-43,9,0,-39,-29,-29,-39
-9,-39,-29,24,9,-34,9,0,-39,-19,-29,-39
-9,-39,-29,24,9,-34,9,0,-39,-19,-29,-39
-9,-39,-29,24,9,-34,9,0,-39,-19,-29,-39
-9,-39,-29,24,9,-34,9,0,-39,-19,-29,-39
-19,-39,-19,29,0,-29,9,0,-39,-29,-29,-39
-19,-39,-19,29,0,-29,9,0,-39,-29,-29,-39
-19,-39,-19,29,0,-29,9,0,-39,-29,-29,-39
-19,-39,-19,29,0,-29,9,0,-39,-29,-29,-39
-9,-39,-29,24,9,-34,9,-9,-39,-29,-29,-39
-9,-39,-29,24,9,-34,9,-9,-39,-29,-29,-39
-9,-39,-29,24,9,-34,9,-9,-39,-29,-29,-39
-9,-39,-29,24,9,-34,9,-9,-39,-29,-29,-39
-9,-39,-29,24,9,-34,9,-19,-39,-29,-29,-39
-9,-39,-29,24,9,-34,9,-19,-39,-29,-29,-39
-9,-39,-29,24,9,-34,9,-19,-39,-29,-29,-39
-9,-39,-29,24,9,-34,9,-19,-39,-29,-29,-39
-19,-29,-9,24,-4,-19,9,-29,-29,-19,-19,-39
-19,-29,-9,24,-4,-19,9,-29,-29,-19,-19,-39
-19,-29,-9,24,-4,-19,9,-29,-29,-19,-19,-39
-19,-29,-9,24,-4,-19,9,-29,-29,-19,-19,-39
-29,-39,-9,34,-9,-24,9,-29,-39,-19,-19,-39
-29,-39,-9,34,-9,-24,9,-29,-39,-19,-19,-39
-29,-39,-9,34,-9,-24,9,-29,-39,-19,-19,-39
-29,-39,-9,34,-9,-24,9,-29,-39,-19,-19,-39
-29,-39,-9,34,-9,-24,9,-29,-39,-19,-29,-29
-29,-39,-9,34,-9,-24,9,-29,-39,-19,-29,-29
-29,-39,-9,34,-9,-24,9,-29,-34,-19,-29,-29
-29,-43,-14,36,-7,-29,9,-29,-34,-19,-29,-29
-19,-43,-24,31,2,-34,9,-19,-34,-29,-19,-39
-19,-43,-24,31,2,-34,9,-19,-39,-29,-24,-39
-14,-48,-34,31,9,-41,9,-19,-39,-29,-24,-39
-14,-53,-39,34,12,-46,9,-19,-39,-29,-24,-39
-9,-43,-34,26,12,-39,0,-9,-39,-29,-24,-39
-9,-43,-34,26,12,-39,0,-14,-39,-29,-24,-39
-9,-43,-34,26,12,-39,0,-14,-39,-29,-24,-43
-9,-43,-34,26,12,-39,0,-14,-39,-29,-24,-43
-19,-53,-34,36,7,-43,0,-4,-39,-29,-29,-43
-14,-53,-39,34,12,-46,-4,-4,-39,-29,-29,-43
-14,-53,-39,34,12,-46,-4,-4,-39,-29,-29,-43
-14,-53,-39,34,12,-46,-4,-4,-39,-29,-29,-43
-4,-43,-39,24,17,-41,-14,-9,-39,-29,-19,-34
-4,-43,-39,24,17,-41,-14,-9,-39,-29,-24,-34
-4,-43,-39,24,17,-41,-14,-9,-39,-29,-24,-34
-4,-34,-29,19,12,-31,-19,-4,-34,-29,-24,-34
0,-29,-29,14,14,-29,-19,0,-43,-29,-29,-39
0,-29,-29,14,14,-29,-19,0,-43,-24,-24,-34
0,-29,-29,14,14,-29,-19,0,-43,-24,-19,-34
4,-34,-39,14,21,-36,-19,0,-34,-24,-14,-34
-4,-39,-34,21,14,-36,-19,0,-39,-24,-14,-34
0,-34,-34,17,17,-34,-24,0,-34,-24,-14,-34
0,-29,-29,14,14,-29,-24,0,-29,-14,-4,-29
9,-14,-24,2,17,-19,-24,0,-19,-14,0,-14
4,-9,-14,2,9,-12,-14,-9,-14,-4,-4,-14
0,0,0,0,0,0,-14,-9,-4,4,4,-9
-4,14,19,-4,-12,17,-24,-19,4,9,9,-4
-9,24,34,-7,-21,29,-24,-29,4,14,14,4
-19,29,48,-4,-34,39,-14,-34,19,29,24,0
-19,29,48,-4,-34,39,-14,-39,24,34,29,0
-19,43,63,-12,-41,53,-19,-43,29,39,34,4
-19,48,68,-14,-43,58,-19,-48,34,43,39,9
-29,58,87,-14,-58,73,-19,-63,43,53,43,14
-29,63,92,-17,-61,78,-19,-63,43,58,48,19
-24,73,97,-24,-61,85,-24,-68,43,58,48,24
-24,78,102,-26,-63,90,-24,-68,43,58,48,24
-14,78,92,-31,-53,85,-39,-63,53,48,48,24
-19,73,92,-26,-56,82,-39,-68,53,53,53,24
-19,73,92,-26,-56,82,-39,-68,53,53,53,29
-19,73,92,-26,-56,82,-39,-68,53,53,58,29
-24,82,107,-29,-65,95,-48,-68,43,53,58,39
-24,82,107,-29,-65,95,-53,-68,43,53,58,39
-24,82,107,-29,-65,95,-53,-73,43,53,58,43
-24,82,107,-29,-65,95,-53,-78,43,53,58,43
-14,78,92,-31,-53,85,-63,-68,43,53,63,43
-14,78,92,-31,-53,85,-63,-68,43,53,63,48
-14,78,92,-31,-53,85,-63,-68,43,53,63,48
-14,78,92,-31,-53,85,-68,-68,39,53,63,48
-14,78,92,-31,-53,85,-68,-68,48,63,63,48
-9,82,92,-36,-51,87,-68,-68,48,63,63,48
-4,82,87,-39,-46,85,-68,-68,48,63,63,48
-4,73,78,-34,-41,75,-68,-63,39,63,63,39
-4,78,82,-36,-43,80,-58,-63,39,53,63,43
-4,73,78,-34,-41,75,-53,-63,34,48,58,39
-4,63,68,-29,-36,65,-53,-58,29,43,53,34
-9,53,63,-21,-36,58,-43,-53,24,39,48,29
-14,53,68,-19,-41,61,-53,-48,19,34,43,24
-19,39,58,-9,-39,48,-48,-48,14,29,29,14
-24,19,43,2,-34,31,-43,-43,4,19,19,0
-24,4,29,9,-26,17,-39,-39,-4,9,19,-4
-19,-9,9,14,-14,0,-34,-34,-14,0,4,-14
-19,-19,0,19,-9,-9,-29,-34,-24,-9,0,-29
-29,-34,-4,31,-12,-19,-24,-34,-24,-9,-9,-29
-39,-43,-4,41,-17,-24,-14,-24,-29,-14,-9,-39
-29,-53,-24,41,-2,-39,-9,-24,-34,-29,-24,-43
-29,-63,-34,46,2,-48,-4,-24,-39,-34,-29,-43
-34,-63,-29,48,-2,-46,-4,-24,-43,-39,-34,-48
-34,-68,-34,51,0,-51,-4,-24,-43,-39,-39,-48
-34,-73,-39,53,2,-56,4,-24,-43,-39,-39,-48
-34,-73,-39,53,2,-56,4,-19,-43,-39,-39,-48
-34,-73,-39,53,2,-56,4,-19,-43,-43,-39,-48
-34,-78,-43,56,4,-61,4,-19,-43,-43,-39,-48
-29,-78,-48,53,9,-63,0,-9,-48,-53,-39,-53
-29,-78,-48,53,9,-63,0,-9,-48,-53,-39,-53
-29,-82,-53,56,12,-68,4,-9,-53,-58,-39,-53
-29,-82,-53,56,12,-68,4,-9,-53,-58,-39,-53
-29,-82,-53,56,12,-68,4,-14,-53,-48,-43,-58
-34,-82,-48,58,7,-65,4,-14,-53,-43,-43,-58
-34,-82,-48,58,7,-65,4,-14,-53,-43,-43,-58
-34,-82,-48,58,7,-65,4,-14,-53,-43,-43,-58
-39,-73,-34,56,-2,-53,4,-19,-48,-43,-34,-48
-39,-53,-14,46,-12,-34,-4,-24,-29,-34,-24,-48
-39,-24,14,31,-26,-4,-14,-24,0,-9,-9,-34
-24,29,53,-2,-39,41,-34,-34,29,29,14,-19
0,117,117,-58,-58,117,-63,-58,87,87,68,24
19,248,229,-134,-104,239,-92,-97,180,170,136,68
48,424,375,-236,-163,400,-151,-141,307,297,234,146
82,649,566,-366,-241,607,-224,-200,453,468,366,239
131,902,771,-517,-319,836,-312,-273,639,644,517,336
180,1141,961,-661,-390,1051,-395,-326,800,829,663,434
239,1361,1122,-800,-441,1241,-483,-375,951,976,790,517
292,1532,1239,-912,-473,1385,-541,-405,1068,1107,893,595
326,1688,1361,-1007,-517,1525,-600,-453,1156,1205,990,663
385,1859,1473,-1122,-544,1666,-678,-502,1263,1332,1107,761
453,2059,1605,-1256,-575,1832,-761,-561,1366,1478,1268,893
527,2259,1732,-1393,-602,1995,-863,-624,1459,1625,1424,1029
614,2440,1825,-1527,-605,2132,-956,-668,1532,1751,1590,1176
697,2605,1908,-1651,-605,2257,-1068,-722,1590,1888,1766,1346
736,2747,2010,-1742,-636,2379,-1146,-800,1625,2015,1942,1532
702,2801,2098,-1751,-697,2449,-1176,-878,1620,2108,2093,1668
649,2732,2083,-1690,-717,2408,-1161,-907,1561,2122,2142,1722
570,2601,2030,-1586,-729,2315,-1122,-907,1478,2093,2142,1712
488,2518,2030,-1503,-771,2274,-1088,-917,1434,2074,2132,1698
424,2474,2049,-1449,-812,2261,-1063,-927,1420,2074,2142,1683
370,2391,2020,-1381,-824,2205,-1010,-893,1376,2034,2108,1649
322,2196,1873,-1259,-775,2034,-936,-839,1259,1898,1966,1542
258,1898,1639,-1078,-690,1769,-834,-746,1063,1664,1742,1361
175,1517,1342,-846,-583,1429,-678,-614,800,1332,1415,1127
78,1019,941,-549,-431,980,-488,-444,488,854,932,790
0,463,463,-231,-231,463,-263,-248,151,366,434,448
-53,39,92,7,-73,65,-97,-87,-102,9,92,185
-63,-224,-161,143,48,-192,9,19,-229,-170,-87,9
-53,-366,-312,209,129,-339,63,92,-312,-273,-146,-68
-48,-434,-385,241,168,-409,97,136,-322,-307,-170,-131
-39,-419,-380,229,170,-400,97,151,-307,-297,-185,-151
-29,-385,-356,207,163,-370,87,151,-283,-287,-190,-141
-24,-326,-302,175,139,-314,82,141,-244,-253,-209,-141
-14,-278,-263,146,124,-270,68,141,-204,-234,-195,-117
0,-263,-263,131,131,-263,68,131,-195,-204,-180,-107
0,-273,-273,136,136,-273,78,136,-180,-195,-165,-122
0,-273,-273,136,136,-273,78,136,-175,-190,-136,-131
-14,-273,-258,143,122,-265,87,126,-165,-180,-117,-151
-19,-248,-229,134,104,-239,87,112,-136,-175,-117,-151
-24,-214,-190,119,82,-202,78,87,-117,-156,-126,-136
-34,-175,-141,104,53,-158,73,73,-107,-151,-146,-117
-39,-165,-126,102,43,-146,58,63,-107,-156,-161,-102
-34,-170,-136,102,51,-153,68,63,-117,-156,-161,-102
-34,-200,-165,117,65,-183,78,68,-131,-156,-146,-107
-34,-219,-185,126,75,-202,82,82,-136,-156,-136,-126
-39,-244,-204,141,82,-224,92,82,-136,-156,-117,-136
-43,-234,-190,139,73,-212,92,82,-126,-156,-107,-151
-43,-195,-151,119,53,-173,73,73,-107,-146,-131,-151
-43,-175,-131,109,43,-153,68,63,-97,-136,-141,-126
-48,-146,-97,97,24,-122,63,53,-82,-136,-156,-126
-48,-146,-97,97,24,-122,63,43,-82,-136,-165,-107
-34,-170,-136,102,51,-153,73,48,-117,-136,-146,-107
-39,-185,-146,112,53,-165,78,68,-107,-146,-136,-131
-43,-219,-175,131,65,-197,92,68,-126,-146,-112,-126
-43,-229,-185,136,70,-207,92,78,-117,-141,-112,-156
-43,-195,-151,119,53,-173,87,68,-97,-136,-122,-156
-43,-175,-131,109,43,-153,73,53,-87,-136,-131,-131
-43,-151,-107,97,31,-129,68,43,-68,-126,-146,-126
-43,-141,-97,92,26,-119,68,43,-68,-126,-161,-112
-34,-161,-126,97,46,-143,68,43,-82,-126,-151,-102
-39,-180,-141,109,51,-161,78,53,-92,-141,-136,-117
-39,-214,-175,126,68,-195,87,63,-102,-146,-126,-131
-53,-224,-170,139,58,-197,87,63,-102,-136,-112,-151
-53,-200,-146,126,46,-173,82,58,-87,-141,-112,-151
-58,-165,-107,112,24,-136,63,48,-73,-136,-126,-141
-48,-141,-92,95,21,-117,63,39,-63,-131,-141,-131
-43,-126,-82,85,19,-104,53,39,-63,-131,-146,-117
-53,-136,-82,95,14,-109,63,39,-82,-131,-156,-107
-53,-165,-112,109,29,-139,68,48,-92,-131,-136,-112
-48,-180,-131,114,41,-156,73,53,-102,-136,-122,-131
-58,-200,-141,129,41,-170,82,63,-102,-136,-107,-146
-58,-190,-131,124,36,-161,82,53,-97,-131,-107,-161
-58,-165,-107,112,24,-136,73,43,-73,-122,-117,-161
-48,-151,-102,100,26,-126,68,39,-68,-122,-126,-131
-53,-126,-73,90,9,-100,48,29,-68,-122,-141,-131
-53,-126,-73,90,9,-100,53,29,-58,-122,-141,-112
-53,-146,-92,100,19,-119,58,39,-92,-117,-126,-102
-53,-161,-107,107,26,-134,68,43,-82,-122,-117,-126
-53,-175,-122,114,34,-148,78,58,-82,-112,-97,-126
-63,-185,-122,124,29,-153,78,58,-78,-112,-87,-151
-63,-165,-102,114,19,-134,73,53,-68,-112,-97,-151
-58,-146,-87,102,14,-117,63,39,-63,-107,-112,-141
-58,-122,-63,90,2,-92,58,29,-39,-102,-126,-131
-58,-107,-48,82,-4,-78,48,29,-29,-97,-136,-117
-43,-122,-78,82,17,-100,58,39,-53,-97,-126,-97
-43,-131,-87,87,21,-109,58,58,-53,-97,-117,-112
-34,-146,-112,90,39,-129,63,58,-63,-97,-97,-122
-48,-156,-107,102,29,-131,63,58,-73,-102,-87,-136
-39,-156,-117,97,39,-136,63,53,-53,-102,-92,-146
-48,-126,-78,87,14,-102,53,43,-39,-97,-112,-141
-34,-102,-68,68,17,-85,39,34,-29,-92,-122,-126
-29,-82,-53,56,12,-68,39,43,-29,-97,-131,-117
-29,-82,-53,56,12,-68,39,43,-34,-87,-131,-107
-34,-107,-73,70,19,-90,53,48,-43,-87,-112,-107
-29,-117,-87,73,29,-102,53,48,-43,-92,-102,-126
-39,-131,-92,85,26,-112,63,48,-53,-82,-87,-131
-39,-131,-92,85,26,-112,58,48,-39,-92,-87,-151
-39,-107,-68,73,14,-87,48,43,-24,-97,-102,-141
-34,-92,-58,63,12,-75,39,43,-24,-92,-107,-126
-34,-58,-24,46,-4,-41,34,39,9,-78,-126,-122
-29,-58,-29,43,0,-43,34,39,9,-78,-112,-102
-29,-58,-29,43,0,-43,39,39,-14,-63,-97,-92
-29,-78,-48,53,9,-63,39,43,-9,-78,-97,-117
-29,-102,-73,65,21,-87,48,53,-29,-78,-73,-117
-29,-102,-73,65,21,-87,39,53,-19,-68,-82,-136
-29,-87,-58,58,14,-73,34,53,0,-68,-87,-136
-24,-63,-39,43,7,-51,29,43,4,-63,-97,-122
-24,-43,-19,34,-2,-31,19,39,14,-58,-107,-122
-29,-34,-4,31,-12,-19,19,39,14,-58,-107,-97
-29,-43,-14,36,-7,-29,19,39,4,-58,-97,-97
-24,-63,-39,43,7,-51,24,48,0,-58,-92,-107
-24,-73,-48,48,12,-61,24,53,0,-58,-78,-117
-24,-82,-58,53,17,-70,34,53,0,-58,-78,-131
-24,-58,-34,41,4,-46,34,53,9,-58,-78,-131
-24,-34,-9,29,-7,-21,29,48,24,-48,-87,-126
-24,-24,0,24,-12,-12,24,39,29,-43,-92,-112
-24,-19,4,21,-14,-7,24,39,19,-53,-97,-107
-24,-29,-4,26,-9,-17,24,39,14,-58,-102,-92
-24,-39,-14,31,-4,-26,34,48,14,-58,-107,-107
-29,-43,-14,36,-7,-29,34,53,9,-63,-102,-117
-34,-63,-29,48,-2,-46,43,53,0,-53,-97,-131
-39,-53,-14,46,-12,-34,48,53,14,-53,-92,-141
-39,-39,0,39,-19,-19,53,48,29,-53,-87,-131
-39,-19,19,29,-29,0,48,43,34,-43,-92,-122
-43,-9,34,26,-39,12,48,34,43,-53,-112,-117
-43,-19,24,31,-34,2,48,39,43,-53,-112,-102
-43,-29,14,36,-29,-7,48,43,24,-58,-102,-112
-43,-43,0,43,-21,-21,53,43,24,-58,-102,-126
-53,-63,-9,58,-21,-36,53,58,24,-48,-82,-126
-43,-63,-19,53,-12,-41,53,58,29,-43,-82,-131
-43,-48,-4,46,-19,-26,53,53,48,-43,-87,-131
-43,-29,14,36,-29,-7,43,53,48,-43,-97,-117
-34,-14,19,24,-26,2,29,48,58,-43,-117,-112
-34,-9,24,21,-29,7,29,48,53,-43,-117,-112
-34,-19,14,26,-24,-2,39,58,48,-43,-117,-112
-43,-39,4,41,-24,-17,48,63,39,-58,-117,-122
-29,-43,-14,36,-7,-29,48,68,19,-53,-102,-126
-29,-48,-19,39,-4,-34,43,68,19,-58,-97,-141
-29,-48,-19,39,-4,-34,39,63,29,-63,-102,-141
-24,-29,-4,26,-9,-17,24,63,34,-63,-102,-136
-9,-14,-4,12,-2,-9,19,73,34,-73,-122,-126
4,-9,-14,2,9,-12,14,73,34,-73,-141,-122
14,-19,-34,2,24,-26,9,78,24,-73,-146,-122
24,-39,-63,7,43,-51,14,92,9,-78,-141,-122
19,-58,-78,19,48,-68,19,92,9,-92,-136,-141
14,-73,-87,29,51,-80,24,97,0,-97,-131,-151
4,-73,-78,34,41,-75,24,97,0,-102,-136,-165
-4,-73,-68,39,31,-70,24,92,0,-102,-146,-165
-9,-73,-63,41,26,-68,29,82,-4,-107,-165,-151
-24,-73,-48,48,12,-61,34,82,-4,-112,-175,-151
-34,-82,-48,58,7,-65,43,82,-14,-117,-185,-141
-39,-107,-68,73,14,-87,53,87,-39,-131,-185,-151
-53,-141,-87,97,17,-114,82,92,-48,-141,-185,-175
-68,-170,-102,119,17,-136,92,92,-63,-151,-185,-180
-68,-185,-117,126,24,-151,102,92,-73,-161,-190,-195
-63,-185,-122,124,29,-153,107,87,-73,-161,-195,-195
-68,-185,-117,126,24,-151,107,82,-63,-175,-209,-190
-73,-185,-112,129,19,-148,107,82,-63,-185,-234,-190
-78,-185,-107,131,14,-146,107,82,-78,-185,-239,-180
-82,-214,-131,148,24,-173,112,87,-102,-190,-239,-180
-78,-248,-170,163,46,-209,126,97,-117,-200,-239,-180
-87,-273,-185,180,48,-229,136,102,-126,-214,-239,-195
-92,-297,-204,195,56,-251,141,102,-141,-229,-239,-209
-97,-297,-200,197,51,-248,141,102,-146,-239,-253,-229
-102,-292,-190,197,43,-241,141,87,-146,-244,-263,-219
-107,-292,-185,200,39,-239,146,87,-151,-248,-273,-209
-112,-307,-195,209,41,-251,146,87,-161,-258,-283,-200
-112,-322,-209,217,48,-265,146,92,-180,-268,-287,-200
-112,-341,-229,226,58,-285,161,97,-204,-278,-278,-200
-122,-366,-244,244,61,-305,165,97,-224,-287,-278,-219
-126,-400,-273,263,73,-336,170,97,-239,-297,-278,-229
-126,-400,-273,263,73,-336,170,97,-239,-307,-278,-229
-117,-395,-278,256,80,-336,161,97,-229,-307,-292,-239
-117,-390,-273,253,78,-331,156,97,-239,-307,-302,-234
-117,-390,-273,253,78,-331,156,97,-244,-307,-307,-229
-117,-395,-278,256,80,-336,156,97,-253,-312,-307,-219
-102,-400,-297,251,97,-348,161,97,-268,-307,-302,-200
-102,-414,-312,258,104,-363,161,107,-278,-317,-292,-214
-102,-424,-322,263,109,-373,161,107,-278,-322,-283,-214
-102,-424,-322,263,109,-373,156,107,-278,-322,-283,-234
-92,-400,-307,246,107,-353,151,107,-273,-317,-283,-224
-87,-380,-292,234,102,-336,141,102,-263,-312,-287,-214
-87,-370,-283,229,97,-326,141,97,-253,-307,-287,-200
-87,-375,-287,231,100,-331,136,92,-253,-297,-278,-190
-78,-370,-292,224,107,-331,136,92,-253,-297,-278,-185
-73,-370,-297,222,112,-334,136,92,-253,-287,-263,-185
-73,-370,-297,222,112,-334,131,92,-253,-278,-248,-185
-68,-356,-287,212,109,-322,126,92,-244,-263,-234,-185
-68,-336,-268,202,100,-302,126,87,-229,-258,-229,-185
-68,-302,-234,185,82,-268,122,73,-214,-244,-224,-165
-63,-283,-219,173,78,-251,107,73,-190,-234,-219,-146
-53,-268,-214,161,80,-241,97,68,-180,-219,-209,-131
-53,-253,-200,153,73,-226,97,63,-170,-200,-200,-131
-53,-253,-200,153,73,-226,92,58,-170,-195,-180,-131
-43,-253,-209,148,82,-231,92,58,-165,-185,-161,-131
-43,-244,-200,143,78,-222,92,53,-161,-175,-141,-131
-34,-239,-204,136,85,-222,73,53,-156,-170,-136,-136
-34,-209,-175,122,70,-192,68,48,-136,-161,-131,-126
-39,-180,-141,109,51,-161,53,39,-117,-141,-126,-107
-39,-151,-112,95,36,-131,53,34,-102,-122,-126,-97
-29,-146,-117,87,43,-131,43,34,-102,-117,-112,-73
-19,-141,-122,80,51,-131,43,34,-97,-107,-102,-73
-19,-136,-117,78,48,-126,39,34,-97,-107,-92,-78
-9,-131,-122,70,56,-126,39,29,-97,-107,-78,-78
-9,-122,-112,65,51,-117,39,24,-82,-92,-78,-78
-14,-112,-97,63,41,-104,29,19,-73,-87,-78,-78
-19,-97,-78,58,29,-87,24,9,-63,-87,-78,-73
-24,-92,-68,58,21,-80,14,4,-48,-82,-78,-73
-24,-82,-58,53,17,-70,19,4,-53,-78,-78,-48
-24,-82,-58,53,17,-70,19,4,-53,-73,-68,-48
-24,-87,-63,56,19,-75,14,14,-53,-68,-63,-48
-19,-87,-68,53,24,-78,14,14,-48,-63,-48,-48
-24,-82,-58,53,17,-70,24,4,-58,-48,-39,-58
-19,-68,-48,43,14,-58,19,4,-39,-48,-39,-58
-19,-53,-34,36,7,-43,14,0,-39,-43,-43,-48
-19,-48,-29,34,4,-39,14,0,-34,-43,-43,-43
-4,-39,-34,21,14,-36,14,0,-24,-48,-39,-39
-4,-39,-34,21,14,-36,14,0,-24,-43,-39,-39
-4,-39,-34,21,14,-36,14,0,-24,-39,-39,-39
0,-39,-39,19,19,-39,9,-4,-29,-39,-39,-34
9,-34,-43,12,26,-39,9,-4,-19,-29,-34,-34
4,-29,-34,12,19,-31,9,-4,-19,-29,-34,-29
0,-29,-29,14,14,-29,9,-4,-24,-34,-34,-29
0,-29,-29,14,14,-29,9,-4,-24,-34,-34,-29
4,-39,-43,17,24,-41,0,-14,-24,-29,-34,-29
4,-29,-34,12,19,-31,0,-14,-24,-29,-29,-29
4,-24,-29,9,17,-26,0,-14,-14,-24,-29,-29
4,-14,-19,4,12,-17,-4,-14,-14,-24,-29,-29
4,-14,-19,4,12,-17,4,-9,-14,-24,-19,-29
4,-14,-19,4,12,-17,4,-9,-14,-24,-19,-29
4,-14,-19,4,12,-17,4,-4,-9,-24,-24,-29
-4,-14,-9,9,2,-12,4,-4,-4,-19,-24,-29
4,-4,-9,0,7,-7,4,-4,-4,-14,-24,-29
-4,-9,-4,7,0,-7,4,-4,4,-14,-24,-29
-4,-9,-4,7,0,-7,0,-4,4,-14,-19,-29
-4,-4,0,4,-2,-2,-4,-14,4,-14,-19,-24
-4,0,4,2,-4,2,-4,-4,4,-14,-4,-24
-4,0,4,2,-4,2,-4,-4,4,-14,-4,-24
-4,0,4,2,-4,2,0,-4,4,-14,-4,-24
0,0,0,0,0,0,0,-4,4,-14,-4,-24
0,-14,-14,7,7,-14,-9,-14,4,-14,-14,-24
0,-9,-9,4,4,-9,-9,-19,4,-14,-14,-24
9,-4,-14,-2,12,-9,-9,-19,4,-14,-14,-24
9,9,0,-9,4,4,-9,-19,9,-14,-14,-24
0,9,9,-4,-4,9,-9,-19,0,0,-4,-24
0,14,14,-7,-7,14,-14,-19,0,0,-4,-24
-4,14,19,-4,-12,17,-14,-19,0,0,-4,-19
-4,14,19,-4,-12,17,-14,-19,0,0,0,-19
-4,4,9,0,-7,7,-4,-24,0,0,-9,-19
-4,4,9,0,-7,7,0,-19,0,0,-9,-24
0,9,9,-4,-4,9,0,-19,4,4,-9,-29
0,14,14,-7,-7,14,0,-19,4,4,-9,-34
0,14,14,-7,-7,14,-9,-19,4,0,0,-24
0,14,14,-7,-7,14,-4,-14,4,0,0,-24
0,4,4,-2,-2,4,-4,-14,0,4,0,-24
0,4,4,-2,-2,4,-4,-14,0,4,0,-19
0,9,9,-4,-4,9,-4,-14,4,4,-9,-29
0,4,4,-2,-2,4,-4,-14,4,4,-4,-34
0,4,4,-2,-2,4,4,-14,4,4,-4,-34
0,9,9,-4,-4,9,4,-14,4,4,-4,-34
0,4,4,-2,-2,4,-4,-14,0,4,0,-24
-4,4,9,0,-7,7,-4,-14,0,4,0,-24
-4,4,9,0,-7,7,0,-9,0,4,0,-24
-4,0,4,2,-4,2,0,-9,4,4,0,-24
-4,-4,0,4,-2,-2,0,-9,0,-4,-14,-24
-4,-9,-4,7,0,-7,0,-9,0,-9,-14,-29
-4,-9,-4,7,0,-7,0,-9,0,-9,-14,-29
-4,-4,0,4,-2,-2,0,-9,0,-9,-14,-24
-4,4,9,0,-7,7,0,-9,0,-4,-14,-34
0,4,4,-2,-2,4,0,-9,0,-4,-14,-34
4,4,0,-4,2,2,-4,-14,0,-4,-19,-34
4,0,-4,-2,4,-2,-4,-14,0,-4,-19,-34
0,-14,-14,7,7,-14,4,-4,-9,-14,-19,-29
0,-14,-14,7,7,-14,4,-4,-9,-19,-19,-29
0,-4,-4,2,2,-4,4,-4,-9,-19,-19,-34
4,4,0,-4,2,2,4,-4,-9,-19,-14,-34
-4,-9,-4,7,0,-7,4,-9,-9,-19,-24,-34
-4,-14,-9,9,2,-12,4,-4,-9,-19,-24,-34
-9,-19,-9,14,0,-14,9,-4,-14,-19,-24,-34
-9,-29,-19,19,4,-24,9,0,-24,-19,-24,-34
-14,-39,-24,26,4,-31,4,4,-24,-29,-24,-43
-14,-39,-24,26,4,-31,9,4,-24,-29,-24,-43
-14,-39,-24,26,4,-31,9,4,-19,-29,-29,-43
-14,-34,-19,24,2,-26,9,4,-19,-34,-29,-43
-14,-43,-29,29,7,-36,9,4,-19,-34,-39,-43
-14,-43,-29,29,7,-36,9,0,-19,-34,-39,-43
-14,-43,-29,29,7,-36,4,-4,-24,-34,-39,-43
-14,-43,-29,29,7,-36,4,-4,-24,-34,-39,-43
-14,-39,-24,26,4,-31,14,4,-29,-39,-34,-53
-14,-43,-29,29,7,-36,9,4,-34,-43,-43,-53
-14,-48,-34,31,9,-41,9,4,-34,-48,-43,-53
-14,-53,-39,34,12,-46,14,4,-29,-48,-43,-53
-19,-53,-34,36,7,-43,14,9,-29,-48,-43,-53
-9,-53,-43,31,17,-48,14,9,-34,-48,-48,-53
-9,-53,-43,31,17,-48,9,9,-34,-48,-48,-58
-19,-53,-34,36,7,-43,9,9,-34,-48,-48,-58
-9,-53,-43,31,17,-48,19,4,-34,-53,-48,-53
-14,-53,-39,34,12,-46,19,4,-43,-53,-48,-53
-14,-58,-43,36,14,-51,19,9,-48,-53,-53,-53
-14,-58,-43,36,14,-51,19,9,-48,-53,-53,-53
-14,-68,-53,41,19,-61,19,4,-48,-63,-53,-53
-14,-68,-53,41,19,-61,19,4,-48,-63,-53,-53
-14,-68,-53,41,19,-61,24,0,-43,-63,-48,-53
-14,-68,-53,41,19,-61,24,-4,-43,-58,-48,-53
-24,-73,-48,48,12,-61,24,4,-43,-58,-48,-53
-24,-73,-48,48,12,-61,24,4,-48,-68,-48,-53
-24,-82,-58,53,17,-70,24,9,-48,-68,-53,-53
-19,-82,-63,51,21,-73,24,9,-48,-68,-53,-53
-19,-78,-58,48,19,-68,24,9,-48,-63,-53,-58
-19,-78,-58,48,19,-68,24,9,-48,-63,-53,-58
-19,-82,-63,51,21,-73,24,9,-48,-63,-53,-58
-19,-82,-63,51,21,-73,24,9,-48,-63,-53,-58
-14,-87,-73,51,29,-80,24,14,-53,-63,-53,-58
-14,-87,-73,51,29,-80,24,19,-58,-68,-53,-58
-14,-97,-82,56,34,-90,24,19,-63,-68,-53,-58
-19,-97,-78,58,29,-87,24,19,-63,-73,-53,-58
-9,-87,-78,48,34,-82,24,19,-63,-73,-63,-58
-19,-92,-73,56,26,-82,24,14,-63,-73,-68,-58
-19,-92,-73,56,26,-82,29,14,-63,-73,-68,-63
-19,-102,-82,61,31,-92,29,14,-63,-73,-68,-68
-19,-102,-82,61,31,-92,19,9,-63,-73,-58,-58
-19,-97,-78,58,29,-87,19,9,-68,-73,-58,-58
-19,-97,-78,58,29,-87,19,9,-68,-73,-58,-58
-19,-92,-73,56,26,-82,24,9,-68,-73,-63,-58
-19,-92,-73,56,26,-82,24,9,-58,-73,-73,-58
-29,-92,-63,61,17,-78,24,9,-58,-73,-73,-58
-29,-92,-63,61,17,-78,19,9,-58,-73,-68,-58
-24,-87,-63,56,19,-75,19,9,-58,-73,-68,-58
-24,-87,-63,56,19,-75,29,0,-68,-73,-58,-63
-24,-87,-63,56,19,-75,29,4,-73,-73,-58,-63
-24,-92,-68,58,21,-80,29,4,-73,-73,-58,-63
-29,-92,-63,61,17,-78,29,4,-73,-73,-58,-63
-24,-92,-68,58,21,-80,19,14,-63,-73,-58,-63
-24,-92,-68,58,21,-80,19,14,-63,-68,-58,-63
-24,-92,-68,58,21,-80,19,14,-63,-68,-58,-63
-24,-97,-73,61,24,-85,19,14,-63,-68,-58,-58
-24,-97,-73,61,24,-85,19,4,-63,-68,-53,-68
-24,-97,-73,61,24,-85,24,4,-63,-68,-53,-63
-24,-97,-73,61,24,-85,24,4,-63,-68,-53,-58
-24,-102,-78,63,26,-90,24,0,-63,-68,-53,-53
-29,-102,-73,65,21,-87,29,9,-63,-68,-53,-58
-29,-102,-73,65,21,-87,29,9,-63,-68,-53,-58
-24,-102,-78,63,26,-90,29,9,-63,-68,-53,-58
-19,-102,-82,61,31,-92,29,9,-63,-68,-53,-53
-29,-92,-63,61,17,-78,29,9,-63,-68,-53,-53
-24,-92,-68,58,21,-80,29,9,-63,-68,-53,-53
-24,-92,-68,58,21,-80,29,9,-63,-68,-53,-53
-24,-97,-73,61,24,-85,29,9,-63,-68,-53,-53
-24,-97,-73,61,24,-85,19,9,-63,-68,-63,-53
-24,-97,-73,61,24,-85,24,9,-63,-68,-63,-53
-29,-97,-68,63,19,-82,24,9,-63,-68,-58,-53
-29,-92,-63,61,17,-78,24,9,-63,-68,-58,-53
-19,-92,-73,56,26,-82,19,4,-53,-63,-48,-43
-19,-92,-73,56,26,-82,19,4,-53,-63,-48,-48
-19,-92,-73,56,26,-82,19,4,-53,-68,-48,-53
-19,-92,-73,56,26,-82,19,4,-53,-68,-53,-58
-19,-102,-82,61,31,-92,19,4,-58,-58,-53,-53
-24,-102,-78,63,26,-90,19,4,-58,-58,-53,-58
-24,-102,-78,63,26,-90,14,4,-58,-58,-53,-58
-24,-97,-73,61,24,-85,14,4,-58,-53,-53,-58
-24,-87,-63,56,19,-75,14,4,-58,-53,-48,-58
-19,-87,-68,53,24,-78,9,4,-63,-53,-48,-53
-19,-87,-68,53,24,-78,9,4,-63,-53,-43,-53
-19,-87,-68,53,24,-78,9,4,-63,-53,-43,-53
-14,-87,-73,51,29,-80,9,4,-63,-53,-53,-53
-14,-87,-73,51,29,-80,9,4,-63,-53,-53,-53
-14,-87,-73,51,29,-80,9,4,-63,-48,-53,-53
-14,-87,-73,51,29,-80,9,4,-63,-48,-53,-53
-14,-97,-82,56,34,-90,9,4,-63,-48,-53,-53
-14,-92,-78,53,31,-85,4,4,-63,-43,-48,-53
-14,-87,-73,51,29,-80,4,4,-63,-43,-48,-53
-14,-87,-73,51,29,-80,4,4,-63,-48,-53,-53
-14,-87,-73,51,29,-80,9,4,-63,-48,-43,-58
-14,-87,-73,51,29,-80,9,4,-63,-48,-43,-58
-19,-87,-68,53,24,-78,9,4,-63,-48,-43,-53
-19,-87,-68,53,24,-78,19,0,-58,-48,-48,-58
-19,-87,-68,53,24,-78,19,0,-58,-48,-48,-58
-19,-87,-68,53,24,-78,19,0,-58,-48,-48,-58
-19,-87,-68,53,24,-78,19,0,-58,-48,-48,-58
-19,-87,-68,53,24,-78,19,0,-58,-48,-48,-58
-29,-87,-58,58,14,-73,19,0,-48,-48,-39,-48
-29,-87,-58,58,14,-73,19,0,-48,-48,-39,-48
-29,-87,-58,58,14,-73,19,0,-48,-48,-39,-48
-29,-87,-58,58,14,-73,19,0,-48,-48,-39,-48
-39,-87,-48,63,4,-68,19,0,-48,-39,-39,-48
-39,-87,-48,63,4,-68,19,0,-48,-39,-39,-48
-39,-87,-48,63,4,-68,19,0,-48,-39,-39,-48
-39,-87,-48,63,4,-68,19,0,-48,-39,-39,-48
-29,-87,-58,58,14,-73,19,0,-48,-48,-39,-48
-29,-87,-58,58,14,-73,19,0,-48,-48,-39,-48
-29,-87,-58,58,14,-73,19,0,-48,-48,-39,-48
-29,-87,-58,58,14,-73,19,0,-48,-48,-39,-48
-29,-87,-58,58,14,-73,9,-9,-48,-48,-39,-48
-29,-87,-58,58,14,-73,9,-9,-48,-48,-39,-48
-29,-87,-58,58,14,-73,9,-9,-48,-48,-39,-48
-29,-87,-58,58,14,-73,9,-9,-48,-48,-39,-48
-29,-87,-58,58,14,-73,9,0,-58,-48,-39,-48
-29,-87,-58,58,14,-73,9,0,-58,-48,-39,-48
-29,-87,-58,58,14,-73,9,0,-58,-48,-39,-48
-29,-87,-58,58,14,-73,9,0,-58,-48,-39,-48
-29,-78,-48,53,9,-63,9,0,-58,-48,-39,-39
-29,-78,-48,53,9,-63,9,0,-58,-48,-39,-39
-29,-78,-48,53,9,-63,9,0,-58,-48,-39,-39
-29,-78,-48,53,9,-63,9,0,-58,-48,-39,-39
-19,-78,-58,48,19,-68,9,0,-58,-48,-39,-39
-19,-78,-58,48,19,-68,9,0,-58,-48,-39,-39
-19,-78,-58,48,19,-68,9,0,-58,-48,-39,-39
-19,-78,-58,48,19,-68,9,0,-58,-48,-39,-39
-19,-78,-58,48,19,-68,9,0,-48,-48,-39,-39
-19,-78,-58,48,19,-68,9,0,-48,-48,-39,-39
-19,-78,-58,48,19,-68,9,0,-48,-48,-39,-39
-19,-78,-58,48,19,-68,9,0,-48,-48,-39,-39
-19,-78,-58,48,19,-68,9,0,-48,-48,-39,-39
-19,-78,-58,48,19,-68,9,0,-48,-48,-39,-39
-19,-78,-58,48,19,-68,9,0,-48,-48,-39,-39
-19,-78,-58,48,19,-68,9,0,-48,-48,-39,-39
-29,-78,-48,53,9,-63,9,-9,-48,-48,-39,-39
-29,-78,-48,53,9,-63,9,-9,-48,-48,-39,-39
-29,-78,-48,53,9,-63,9,-9,-48,-48,-39,-39
-29,-78,-48,53,9,-63,9,-9,-48,-48,-39,-39
-29,-78,-48,53,9,-63,9,-9,-48,-39,-29,-39
-29,-78,-48,53,9,-63,9,-9,-48,-39,-29,-39
-29,-78,-48,53,9,-63,9,-9,-48,-39,-29,-39
-29,-78,-48,53,9,-63,9,-9,-48,-39,-29,-39
-39,-78,-39,58,0,-58,19,-9,-48,-39,-29,-39
-39,-78,-39,58,0,-58,19,-9,-48,-39,-29,-39
-39,-78,-39,58,0,-58,19,-9,-48,-39,-29,-39
-39,-78,-39,58,0,-58,19,-9,-48,-39,-29,-39
-29,-68,-39,48,4,-53,9,-9,-48,-39,-29,-39
-29,-68,-39,48,4,-53,9,-9,-48,-39,-29,-39
-29,-68,-39,48,4,-53,9,-9,-48,-39,-29,-39
-29,-68,-39,48,4,-53,9,-9,-48,-39,-29,-39
-19,-68,-48,43,14,-58,0,-9,-48,-39,-29,-48
-19,-68,-48,43,14,-58,0,-9,-48,-39,-29,-48
-19,-68,-48,43,14,-58,0,-9,-48,-39,-29,-48
-19,-68,-48,43,14,-58,0,-9,-48,-39,-29,-48
-19,-68,-48,43,14,-58,0,-19,-48,-39,-29,-39
-19,-68,-48,43,14,-58,0,-19,-48,-39,-29,-39
-19,-68,-48,43,14,-58,0,-19,-48,-39,-29,-39
-19,-68,-48,43,14,-58,0,-19,-48,-39,-29,-39
-29,-68,-39,48,4,-53,0,-19,-48,-39,-29,-39
-29,-68,-39,48,4,-53,0,-19,-48,-39,-29,-39
-29,-68,-39,48,4,-53,0,-19,-48,-39,-29,-39
-29,-68,-39,48,4,-53,0,-19,-48,-39,-29,-39
-29,-68,-39,48,4,-53,9,-19,-48,-29,-29,-39
-29,-68,-39,48,4,-53,9,-19,-48,-29,-29,-39
-29,-68,-39,48,4,-53,9,-19,-48,-29,-29,-39
-29,-68,-39,48,4,-53,9,-19,-48,-29,-29,-39
-29,-68,-39,48,4,-53,0,-19,-48,-39,-29,-39
-29,-68,-39,48,4,-53,0,-19,-48,-39,-29,-39
-29,-68,-39,48,4,-53,0,-19,-48,-39,-29,-39
-29,-68,-39,48,4,-53,0,-19,-48,-39,-29,-39
-29,-68,-39,48,4,-53,0,-9,-48,-29,-29,-39
-29,-68,-39,48,4,-53,0,-9,-48,-29,-29,-39
-29,-68,-39,48,4,-53,0,-9,-48,-29,-29,-39
-29,-68,-39,48,4,-53,0,-9,-48,-29,-29,-39
-39,-68,-29,53,-4,-48,9,-9,-48,-29,-29,-39
-39,-68,-29,53,-4,-48,9,-9,-48,-29,-29,-39
-39,-68,-29,53,-4,-48,9,-9,-43,-29,-29,-39
-39,-73,-34,56,-2,-53,9,-9,-43,-29,-29,-39
-48,-63,-14,56,-17,-39,9,-9,-43,-29,-19,-39
-48,-63,-14,56,-17,-39,9,-9,-48,-29,-24,-39
-43,-68,-24,56,-9,-46,9,-9,-48,-29,-24,-39
-43,-73,-29,58,-7,-51,9,-9,-48,-29,-24,-39
-39,-73,-34,56,-2,-53,9,-19,-39,-29,-24,-39
-39,-73,-34,56,-2,-53,9,-24,-39,-29,-24,-39
-39,-73,-34,56,-2,-53,9,-24,-39,-29,-24,-43
-39,-73,-34,56,-2,-53,9,-24,-39,-29,-24,-43
-29,-63,-34,46,2,-48,9,-24,-39,-39,-29,-43
-24,-63,-39,43,7,-51,4,-24,-39,-39,-29,-43
-24,-63,-39,43,7,-51,4,-24,-39,-39,-29,-43
-24,-63,-39,43,7,-51,4,-24,-39,-39,-29,-43
-14,-73,-58,43,21,-65,4,-19,-48,-39,-29,-34
-14,-73,-58,43,21,-65,4,-19,-48,-39,-34,-34
-14,-73,-58,43,21,-65,4,-19,-48,-39,-34,-34
-14,-63,-48,39,17,-56,0,-14,-43,-39,-34,-34
0,-58,-58,29,29,-58,-9,-19,-53,-48,-39,-39
0,-58,-58,29,29,-58,-9,-19,-53,-43,-34,-34
0,-58,-58,29,29,-58,-9,-19,-53,-43,-29,-34
4,-63,-68,29,36,-65,-9,-19,-43,-43,-24,-34
-4,-58,-53,31,24,-56,-9,-19,-48,-43,-24,-43
0,-53,-53,26,26,-53,-14,-19,-43,-43,-24,-43
0,-48,-48,24,24,-48,-14,-19,-39,-34,-14,-39
9,-34,-43,12,26,-39,-14,-19,-29,-34,-9,-24
0,-19,-19,9,9,-19,-14,-19,-24,-24,-4,-24
0,-9,-9,4,4,-9,-14,-19,-14,-14,4,-19
0,4,4,-2,-2,4,-24,-29,-4,-9,9,-14
0,14,14,-7,-7,14,-24,-39,-4,-4,14,-4
0,24,24,-12,-12,24,-24,-34,9,0,14,0
0,29,29,-14,-14,29,-24,-39,14,4,19,0
0,48,48,-24,-24,48,-29,-43,19,9,24,4
0,58,58,-29,-29,58,-29,-48,24,14,29,9
0,58,58,-29,-29,58,-29,-43,34,14,34,14
0,63,63,-31,-31,63,-29,-43,34,19,39,19
4,73,68,-39,-31,70,-34,-48,34,19,39,24
4,78,73,-41,-34,75,-34,-48,34,19,39,24
4,78,73,-41,-34,75,-39,-53,43,19,48,34
0,73,73,-36,-36,73,-39,-58,43,24,53,34
0,73,73,-36,-36,73,-39,-58,43,24,53,39
0,73,73,-36,-36,73,-39,-58,43,24,58,39
-4,82,87,-39,-46,85,-39,-68,43,34,58,39
-4,82,87,-39,-46,85,-43,-68,43,34,58,39
-4,82,87,-39,-46,85,-43,-73,43,34,58,43
-4,82,87,-39,-46,85,-43,-78,43,34,58,43
4,97,92,-51,-43,95,-53,-78,43,39,63,43
4,97,92,-51,-43,95,-53,-78,43,43,63,48
4,97,92,-51,-43,95,-53,-78,43,48,63,48
4,97,92,-51,-43,95,-58,-78,39,53,63,48
14,97,82,-56,-34,90,-58,-78,48,53,63,39
19,102,82,-61,-31,92,-58,-78,48,53,63,39
24,102,78,-63,-26,90,-58,-78,48,53,63,39
24,92,68,-58,-21,80,-58,-73,39,53,63,29
24,78,53,-51,-14,65,-58,-63,29,43,53,34
24,73,48,-48,-12,61,-53,-63,24,39,48,29
24,63,39,-43,-7,51,-53,-58,19,34,43,24
19,53,34,-36,-7,43,-43,-53,14,29,39,19
24,43,19,-34,2,31,-43,-39,9,24,34,4
19,29,9,-24,4,19,-39,-39,4,19,19,-4
14,9,-4,-12,9,2,-34,-34,-4,9,9,-19
14,-4,-19,-4,17,-12,-29,-29,-14,0,9,-24
0,-19,-19,9,9,-19,-24,-34,-24,-9,-4,-24
0,-29,-29,14,14,-29,-19,-34,-34,-19,-9,-39
-9,-43,-34,26,12,-39,-14,-34,-34,-19,-19,-39
-19,-53,-34,36,7,-43,-4,-24,-39,-24,-19,-48
-29,-63,-34,46,2,-48,0,-24,-43,-29,-24,-53
-29,-73,-43,51,7,-58,4,-24,-48,-34,-29,-53
-34,-73,-39,53,2,-56,4,-24,-53,-39,-34,-58
-34,-78,-43,56,4,-61,4,-24,-53,-39,-39,-58
-34,-82,-48,58,7,-65,14,-34,-53,-39,-39,-58
-34,-82,-48,58,7,-65,14,-29,-53,-39,-39,-58
-34,-82,-48,58,7,-65,14,-29,-53,-43,-39,-58
-34,-87,-53,61,9,-70,14,-29,-53,-43,-39,-58
-34,-97,-63,65,14,-80,19,-9,-58,-43,-39,-63
-39,-97,-58,68,9,-78,19,-9,-58,-43,-39,-63
-43,-102,-58,73,7,-80,24,-9,-63,-48,-39,-63
-48,-102,-53,75,2,-78,24,-9,-63,-48,-39,-63
-63,-97,-34,80,-14,-65,34,4,-53,-48,-34,-58
-73,-102,-29,87,-21,-65,34,4,-53,-43,-34,-58
-78,-107,-29,92,-24,-68,34,4,-53,-43,-34,-58
-82,-112,-29,97,-26,-70,34,4,-53,-43,-34,-58
-97,-112,-14,104,-41,-63,43,0,-48,-43,-34,-58
-107,-102,4,104,-56,-48,43,-14,-29,-34,-24,-48
-97,-53,43,75,-70,-4,24,-24,0,0,0,-43
-82,29,112,26,-97,70,4,-43,48,58,43,0
-58,156,214,-48,-136,185,-43,-78,126,146,107,43
-19,326,346,-153,-183,336,-102,-126,248,258,204,107
39,551,512,-295,-236,531,-170,-180,385,414,322,185
92,795,702,-444,-305,749,-263,-248,561,575,463,278
161,1039,878,-600,-358,958,-351,-302,717,741,595,366
239,1249,1010,-744,-385,1129,-444,-356,858,897,712,444
297,1410,1112,-854,-407,1261,-502,-385,971,1005,800,507
361,1571,1210,-966,-424,1390,-570,-424,1068,1107,893,566
424,1747,1322,-1085,-448,1534,-649,-463,1166,1234,1000,653
492,1956,1464,-1224,-485,1710,-736,-512,1283,1381,1156,780
580,2176,1595,-1378,-507,1886,-839,-570,1385,1527,1317,922
683,2357,1673,-1520,-495,2015,-941,-605,1459,1664,1483,1078
761,2527,1766,-1644,-502,2147,-1054,-668,1522,1790,1649,1244
805,2684,1878,-1744,-536,2281,-1137,-751,1561,1927,1834,1424
775,2737,1961,-1756,-592,2349,-1176,-829,1566,2025,1991,1571
702,2684,1981,-1693,-639,2332,-1176,-868,1512,2059,2064,1649
629,2576,1947,-1603,-658,2261,-1141,-878,1464,2054,2083,1654
551,2522,1971,-1537,-710,2247,-1122,-897,1439,2064,2103,1664
488,2508,2020,-1498,-766,2264,-1098,-917,1444,2093,2142,1678
434,2435,2000,-1434,-783,2217,-1063,-907,1400,2074,2132,1664
370,2244,1873,-1307,-751,2059,-990,-863,1288,1937,2010,1571
292,1961,1668,-1127,-688,1815,-878,-780,1083,1712,1800,1405
200,1566,1366,-883,-583,1466,-736,-658,829,1381,1468,1166
97,1068,971,-583,-436,1019,-531,-488,517,912,985,834
9,522,512,-265,-251,517,-312,-297,185,434,502,497
-48,92,141,-21,-95,117,-136,-141,-73,82,161,244
-63,-156,-92,109,14,-124,-39,-29,-190,-117,-24,58
-63,-312,-248,187,92,-280,29,39,-278,-219,-87,-19
-53,-385,-331,219,139,-358,63,92,-312,-273,-126,-87
-48,-395,-346,222,148,-370,68,107,-302,-287,-161,-122
-39,-390,-351,214,156,-370,78,112,-297,-297,-185,-122
-39,-356,-317,197,139,-336,78,112,-263,-278,-219,-141
-34,-307,-273,170,119,-290,73,112,-224,-253,-219,-122
-14,-297,-283,156,134,-290,78,122,-214,-224,-195,-107
-9,-302,-292,156,141,-297,78,122,-204,-214,-180,-126
-19,-302,-283,161,131,-292,78,117,-200,-214,-156,-131
-19,-302,-283,161,131,-292,87,107,-175,-190,-136,-151
-34,-273,-239,153,102,-256,78,87,-146,-180,-136,-151
-39,-229,-190,134,75,-209,78,63,-136,-165,-146,-131
-53,-214,-161,134,53,-187,68,48,-117,-156,-156,-117
-43,-195,-151,119,53,-173,63,43,-107,-161,-175,-107
-48,-195,-146,122,48,-170,58,43,-126,-156,-180,-92
-43,-229,-185,136,70,-207,68,53,-136,-156,-161,-102
-34,-239,-204,136,85,-222,78,58,-141,-165,-146,-126
-43,-258,-214,151,85,-236,82,63,-146,-156,-126,-136
-39,-253,-214,146,87,-234,82,63,-126,-156,-126,-156
-43,-224,-180,134,68,-202,63,53,-117,-146,-136,-141
-43,-195,-151,119,53,-173,63,53,-107,-136,-151,-122
-43,-165,-122,104,39,-143,58,43,-87,-136,-170,-117
-39,-165,-126,102,43,-146,53,43,-92,-136,-175,-97
-39,-195,-156,117,58,-175,63,43,-122,-146,-156,-97
-34,-209,-175,122,70,-192,73,48,-117,-146,-146,-126
-48,-234,-185,141,68,-209,87,58,-126,-146,-126,-122
-53,-239,-185,146,65,-212,92,58,-126,-146,-122,-146
-53,-209,-156,131,51,-183,82,48,-107,-141,-131,-146
-53,-185,-131,119,39,-158,78,39,-97,-136,-141,-126
-63,-165,-102,114,19,-134,63,34,-87,-136,-161,-122
-53,-161,-107,107,26,-134,68,34,-78,-136,-165,-107
-53,-180,-126,117,36,-153,78,34,-97,-126,-161,-102
-53,-219,-165,136,56,-192,78,43,-112,-146,-151,-112
-48,-229,-180,139,65,-204,87,43,-122,-141,-136,-126
-48,-234,-185,141,68,-209,87,43,-122,-136,-126,-141
-43,-214,-170,129,63,-192,78,53,-102,-136,-122,-151
-43,-170,-126,107,41,-148,63,39,-97,-122,-141,-141
-29,-156,-126,92,48,-141,53,29,-82,-117,-156,-122
-19,-141,-122,80,51,-131,43,39,-73,-122,-170,-122
-14,-136,-122,75,53,-129,53,39,-92,-122,-165,-107
-14,-165,-151,90,68,-158,63,58,-102,-112,-146,-117
-14,-175,-161,95,73,-168,68,68,-102,-122,-126,-131
-19,-180,-161,100,70,-170,73,73,-102,-107,-102,-131
-29,-170,-141,100,56,-156,82,73,-82,-107,-97,-136
-39,-131,-92,85,26,-112,73,73,-58,-92,-107,-131
-48,-126,-78,87,14,-102,73,73,-53,-82,-117,-102
-68,-112,-43,90,-12,-78,68,58,-39,-82,-136,-102
-73,-117,-43,95,-14,-80,68,48,-39,-92,-131,-82
-73,-126,-53,100,-9,-90,73,48,-68,-92,-122,-73
-63,-146,-82,104,9,-114,78,48,-63,-97,-117,-102
-73,-170,-97,122,12,-134,97,53,-82,-92,-97,-107
-73,-175,-102,124,14,-139,87,48,-73,-92,-97,-126
-63,-156,-92,109,14,-124,78,39,-68,-102,-107,-131
-63,-146,-82,104,9,-114,63,24,-68,-102,-126,-122
-58,-136,-78,97,9,-107,53,9,-53,-107,-151,-122
-39,-131,-92,85,26,-112,48,0,-58,-102,-165,-112
-19,-146,-126,82,53,-136,39,9,-78,-107,-165,-107
-4,-161,-156,82,75,-158,39,19,-82,-117,-156,-136
4,-161,-165,78,85,-163,48,29,-92,-107,-136,-141
4,-175,-180,85,92,-178,43,29,-92,-107,-126,-161
0,-165,-165,82,82,-165,43,29,-73,-102,-126,-165
-9,-136,-126,73,58,-131,34,24,-63,-92,-141,-165
-19,-117,-97,68,39,-107,34,24,-48,-87,-141,-151
-24,-92,-68,58,21,-80,29,24,-39,-82,-161,-136
-19,-102,-82,61,31,-92,39,24,-48,-78,-151,-117
-29,-122,-92,75,31,-107,48,24,-53,-78,-131,-126
-24,-136,-112,80,43,-124,53,29,-53,-78,-122,-136
-39,-146,-107,92,34,-126,53,39,-63,-73,-92,-136
-39,-141,-102,90,31,-122,63,29,-43,-73,-97,-151
-39,-112,-73,75,17,-92,48,29,-29,-73,-107,-151
-39,-97,-58,68,9,-78,48,24,-24,-68,-112,-122
-34,-73,-39,53,2,-56,39,14,-4,-63,-126,-117
-34,-68,-34,51,0,-51,34,19,0,-58,-126,-92
-29,-78,-48,53,9,-63,43,19,-29,-58,-112,-92
-29,-87,-58,58,14,-73,48,29,-24,-63,-97,-112
-29,-117,-87,73,29,-102,48,34,-39,-58,-78,-107
-29,-122,-92,75,31,-107,58,43,-29,-58,-82,-126
-29,-107,-78,68,24,-92,48,34,-19,-58,-92,-131
-29,-87,-58,58,14,-73,43,34,0,-58,-97,-126
-24,-58,-34,41,4,-46,39,24,4,-53,-107,-107
-24,-34,-9,29,-7,-21,29,19,14,-48,-117,-102
-29,-39,-9,34,-9,-24,39,29,4,-48,-107,-97
-29,-53,-24,41,-2,-39,39,29,-4,-48,-97,-97
-24,-78,-53,51,14,-65,43,39,-9,-48,-92,-107
-24,-92,-68,58,21,-80,43,43,-9,-48,-78,-117
-34,-87,-53,61,9,-70,53,34,-4,-48,-82,-112
-34,-58,-24,46,-4,-41,53,34,9,-48,-87,-112
-34,-29,4,31,-19,-12,48,29,29,-39,-102,-107
-34,-14,19,24,-26,2,43,19,39,-34,-112,-92
-34,-24,9,29,-21,-7,43,19,34,-34,-107,-92
-34,-39,-4,36,-14,-21,43,19,24,-39,-102,-82
-34,-53,-19,43,-7,-36,53,29,19,-39,-97,-102
-39,-63,-24,51,-7,-43,53,34,9,-43,-82,-117
-39,-58,-19,48,-9,-39,48,43,19,-39,-92,-122
-39,-43,-4,41,-17,-24,48,43,34,-34,-92,-131
-34,-24,9,29,-21,-7,48,39,48,-29,-92,-122
-29,0,29,14,-29,14,39,34,53,-14,-102,-112
-9,4,14,2,-12,9,39,39,43,-19,-102,-117
-4,-9,-4,7,0,-7,39,48,43,-24,-102,-102
0,-24,-24,12,12,-24,39,58,24,-34,-92,-112
4,-43,-48,19,26,-46,43,63,24,-39,-92,-126
4,-39,-43,17,24,-41,43,78,34,-39,-82,-126
14,-34,-48,9,31,-41,43,78,39,-34,-82,-131
14,-14,-29,0,21,-21,43,73,58,-34,-87,-131
14,9,-4,-12,9,2,34,73,58,-34,-97,-117
0,14,14,-7,-7,14,39,58,58,-34,-97,-102
-4,9,14,-2,-9,12,39,58,53,-34,-97,-102
-9,-9,0,9,-4,-4,48,68,48,-34,-97,-102
-24,-39,-14,31,-4,-26,58,73,39,-48,-97,-112
-4,-34,-29,19,12,-31,53,78,34,-53,-78,-107
0,-29,-29,14,14,-29,53,78,39,-58,-78,-122
4,-19,-24,7,14,-21,53,73,53,-63,-87,-122
14,9,-4,-12,9,2,43,73,63,-63,-92,-117
24,29,4,-26,9,17,34,82,58,-68,-117,-117
43,29,-14,-36,29,7,34,82,53,-73,-131,-112
58,14,-43,-36,51,-14,34,87,39,-78,-131,-112
73,-9,-82,-31,78,-46,43,102,19,-87,-122,-112
63,-34,-97,-14,80,-65,58,112,0,-107,-122,-141
63,-53,-117,-4,90,-85,63,117,-9,-117,-122,-151
58,-58,-117,0,87,-87,63,117,-9,-126,-131,-165
53,-63,-117,4,85,-90,63,112,-9,-131,-146,-165
39,-82,-122,21,80,-102,73,107,-24,-151,-161,-170
14,-92,-107,39,61,-100,73,102,-24,-161,-175,-170
-4,-112,-107,58,51,-109,78,97,-34,-170,-190,-161
-19,-146,-126,82,53,-136,82,97,-58,-190,-195,-170
-48,-180,-131,114,41,-156,107,97,-68,-200,-195,-185
-68,-209,-141,139,36,-175,112,92,-82,-209,-195,-190
-73,-224,-151,148,39,-187,117,87,-92,-219,-200,-204
-73,-224,-151,148,39,-187,117,78,-92,-219,-204,-204
-82,-219,-136,151,26,-178,117,82,-87,-224,-219,-190
-82,-214,-131,148,24,-173,117,82,-82,-234,-244,-190
-82,-209,-126,146,21,-168,117,82,-92,-234,-248,-180
-82,-234,-151,158,34,-192,122,87,-112,-239,-248,-180
-87,-248,-161,168,36,-204,136,107,-122,-253,-244,-180
-97,-273,-175,185,39,-224,146,112,-126,-263,-239,-195
-102,-297,-195,200,46,-246,151,112,-136,-273,-234,-209
-107,-297,-190,202,41,-244,151,112,-136,-278,-244,-229
-112,-302,-190,207,39,-246,151,107,-146,-273,-263,-209
-117,-302,-185,209,34,-244,156,107,-151,-278,-273,-200
-122,-317,-195,219,36,-256,156,107,-161,-287,-283,-190
-122,-331,-209,226,43,-270,156,112,-180,-297,-287,-190
-112,-361,-248,236,68,-305,170,107,-204,-307,-278,-209
-122,-385,-263,253,70,-324,175,107,-224,-317,-278,-229
-126,-419,-292,273,82,-356,180,107,-239,-326,-278,-239
-126,-419,-292,273,82,-356,180,107,-239,-336,-278,-239
-107,-409,-302,258,97,-356,175,117,-248,-336,-302,-239
-97,-400,-302,248,102,-351,165,117,-258,-336,-312,-234
-87,-395,-307,241,109,-351,161,117,-263,-336,-317,-229
-78,-395,-317,236,119,-356,156,117,-273,-341,-317,-219
-68,-419,-351,244,141,-385,151,126,-278,-336,-302,-219
-63,-434,-370,248,153,-402,151,136,-287,-346,-292,-234
-58,-444,-385,251,163,-414,151,136,-287,-351,-283,-234
-53,-444,-390,248,168,-417,146,136,-287,-351,-283,-253
-53,-405,-351,229,148,-378,141,126,-283,-341,-292,-234
-48,-380,-331,214,141,-356,131,122,-273,-331,-297,-224
-48,-366,-317,207,134,-341,131,117,-263,-322,-297,-209
-48,-366,-317,207,134,-341,126,112,-263,-307,-287,-200
-48,-370,-322,209,136,-346,126,112,-263,-297,-268,-195
-43,-370,-326,207,141,-348,126,112,-263,-287,-253,-195
-43,-370,-326,207,141,-348,122,112,-263,-278,-239,-195
-39,-356,-317,197,139,-336,117,112,-253,-263,-224,-195
-29,-322,-292,175,131,-307,107,102,-219,-253,-229,-185
-29,-283,-253,156,112,-268,102,82,-204,-234,-224,-165
-24,-258,-234,141,104,-246,87,78,-180,-219,-219,-146
-14,-239,-224,126,104,-231,78,68,-170,-200,-209,-131
-14,-239,-224,126,104,-231,78,73,-180,-190,-190,-126
-14,-244,-229,129,107,-236,73,68,-180,-185,-170,-131
-4,-248,-244,126,119,-246,73,68,-175,-175,-151,-136
-4,-244,-239,124,117,-241,73,63,-170,-165,-131,-141
-4,-219,-214,112,104,-217,63,63,-141,-141,-126,-131
-4,-180,-175,92,85,-178,58,58,-117,-131,-122,-117
-9,-141,-131,75,61,-136,43,48,-92,-112,-117,-92
-9,-102,-92,56,41,-97,43,43,-73,-92,-117,-78
-24,-107,-82,65,29,-95,53,48,-73,-97,-97,-63
-29,-112,-82,70,26,-97,63,53,-68,-87,-82,-63
-43,-117,-73,80,14,-95,68,58,-68,-87,-68,-68
-48,-122,-73,85,12,-97,78,58,-68,-87,-48,-68
-63,-117,-53,90,-4,-85,87,43,-58,-68,-48,-63
-82,-102,-19,92,-31,-61,78,39,-43,-58,-48,-58
-102,-82,19,92,-61,-31,73,29,-29,-53,-48,-48
-122,-73,48,97,-85,-12,63,24,-9,-43,-48,-43
-122,-87,34,104,-78,-26,58,14,-14,-43,-58,-34
-122,-92,29,107,-75,-31,58,14,-24,-43,-48,-39
-122,-102,19,112,-70,-41,53,24,-34,-43,-43,-43
-117,-107,9,112,-63,-48,53,24,-39,-43,-29,-48
-117,-112,4,114,-61,-53,53,24,-29,-29,-19,-48
-117,-97,19,107,-68,-39,48,24,-9,-29,-19,-48
-122,-82,39,102,-80,-21,43,19,-9,-24,-24,-39
-126,-78,48,102,-87,-14,43,19,-4,-24,-24,-34
-102,-73,29,87,-65,-21,39,19,-4,-24,-19,-29
-92,-68,24,80,-58,-21,34,19,-4,-24,-19,-29
-82,-63,19,73,-51,-21,29,19,-4,-24,-19,-29
-68,-58,9,63,-39,-24,19,14,-9,-29,-19,-24
-48,-53,-4,51,-21,-29,14,4,-19,-29,-24,-34
-43,-48,-4,46,-19,-26,9,4,-19,-29,-24,-29
-39,-48,-9,43,-14,-29,4,4,-24,-34,-24,-29
-29,-48,-19,39,-4,-34,0,4,-24,-34,-24,-29
9,-43,-53,17,31,-48,-19,-4,-29,-34,-34,-34
34,-29,-63,-2,48,-46,-29,-14,-34,-39,-39,-39
58,-19,-78,-19,68,-48,-39,-24,-29,-39,-48,-43
82,-4,-87,-39,85,-46,-53,-34,-34,-43,-58,-48
87,-4,-92,-41,90,-48,-58,-29,-39,-43,-48,-53
92,-4,-97,-43,95,-51,-63,-29,-43,-43,-48,-58
97,-4,-102,-46,100,-53,-68,-24,-43,-43,-53,-63
92,-4,-97,-43,95,-51,-73,-24,-43,-39,-53,-68
73,-14,-87,-29,80,-51,-68,-14,-43,-24,-43,-68
53,-19,-73,-17,63,-46,-63,-14,-34,-24,-43,-68
43,-19,-63,-12,53,-41,-63,-14,-34,-24,-39,-68
34,-14,-48,-9,41,-31,-63,-24,-34,-24,-39,-63
14,-24,-39,4,26,-31,-58,-34,-34,-24,-34,-63
4,-29,-34,12,19,-31,-53,-34,-34,-24,-34,-63
-4,-34,-29,19,12,-31,-43,-34,-34,-24,-34,-63
-9,-39,-29,24,9,-34,-39,-34,-34,-24,-34,-63
-19,-68,-48,43,14,-58,-34,-34,-34,-24,-34,-73
-29,-68,-39,48,4,-53,-29,-39,-34,-24,-34,-73
-29,-68,-39,48,4,-53,-24,-39,-34,-24,-34,-73
-39,-58,-19,48,-9,-39,-19,-39,-29,-24,-34,-73
-39,-58,-19,48,-9,-39,-9,-29,-29,-19,-34,-63
-39,-53,-14,46,-12,-34,-14,-29,-29,-19,-34,-63
-43,-53,-9,48,-17,-31,-14,-29,-29,-19,-34,-58
-43,-53,-9,48,-17,-31,-14,-29,-29,-19,-29,-58
-34,-43,-9,39,-12,-26,-24,-24,-19,-19,-29,-63
-34,-43,-9,39,-12,-26,-19,-19,-19,-19,-29,-63
-29,-39,-9,34,-9,-24,-19,-19,-14,-14,-29,-63
-29,-34,-4,31,-12,-19,-19,-19,-14,-14,-29,-63
-29,-34,-4,31,-12,-19,-29,-29,-14,-14,-39,-53
-29,-34,-4,31,-12,-19,-24,-24,-14,-19,-39,-53
-29,-43,-14,36,-7,-29,-24,-24,-19,-19,-39,-53
-29,-43,-14,36,-7,-29,-24,-24,-19,-24,-39,-48
-29,-43,-14,36,-7,-29,-24,-24,-14,-24,-39,-58
-29,-43,-14,36,-7,-29,-24,-24,-14,-24,-34,-63
-29,-39,-9,34,-9,-24,-14,-24,-14,-24,-34,-63
-29,-29,0,29,-14,-14,-14,-24,-14,-24,-34,-63
-29,-24,4,26,-17,-9,-14,-24,-19,-24,-29,-53
-34,-24,9,29,-21,-7,-14,-24,-19,-24,-29,-53
-34,-24,9,29,-21,-7,-9,-19,-19,-24,-29,-53
-34,-29,4,31,-19,-12,-9,-19,-14,-24,-29,-53
-34,-24,9,29,-21,-7,0,-19,0,-24,-24,-53
-34,-29,4,31,-19,-12,0,-19,0,-29,-24,-58
-34,-29,4,31,-19,-12,0,-19,0,-29,-24,-58
-34,-24,9,29,-21,-7,0,-19,0,-29,-24,-53
-39,-24,14,31,-26,-4,9,-19,-9,-24,-14,-53
-39,-24,14,31,-26,-4,9,-19,-9,-24,-14,-53
-39,-24,14,31,-26,-4,4,-24,-9,-24,-19,-53
-43,-29,14,36,-29,-7,4,-24,-9,-24,-19,-53
-48,-43,4,46,-26,-19,4,-24,-19,-34,-39,-58
-48,-43,4,46,-26,-19,4,-24,-19,-39,-39,-58
-48,-34,14,41,-31,-9,4,-24,-19,-39,-39,-63
-43,-24,19,34,-31,-2,4,-24,-19,-39,-34,-63
-43,-24,19,34,-31,-2,4,-14,-9,-29,-24,-53
-43,-24,19,34,-31,-2,4,-4,-9,-29,-24,-53
-48,-24,24,36,-36,0,9,0,-14,-29,-24,-53
-48,-29,19,39,-34,-4,9,9,-24,-29,-24,-53
-68,-29,39,48,-53,4,24,24,-9,-19,-14,-48
-73,-29,43,51,-58,7,29,24,-4,-19,-14,-43
-78,-29,48,53,-63,9,29,24,4,-19,-19,-39
-82,-24,58,53,-70,17,29,24,9,-24,-19,-34
-73,-9,63,41,-68,26,34,24,14,-9,-9,-24
-73,-4,68,39,-70,31,39,19,19,-4,-9,-24
-73,0,73,36,-73,36,39,14,19,0,-9,-24
-73,4,78,34,-75,41,43,14,24,4,-9,-24
-53,0,53,26,-53,26,39,9,9,-4,-24,-34
-43,-4,39,24,-41,17,29,4,4,-14,-34,-34
-34,-9,24,21,-29,7,24,0,4,-24,-34,-34
-24,-14,9,19,-17,-2,24,-4,9,-29,-34,-34
-14,-29,-14,21,0,-21,19,-9,-4,-34,-39,-39
0,-34,-34,17,17,-34,14,-9,-14,-39,-48,-43
4,-39,-43,17,24,-41,4,-9,-19,-43,-53,-53
0,-43,-43,21,21,-43,0,-9,-24,-48,-58,-58
-19,-73,-53,46,17,-63,4,9,-24,-53,-58,-63
-43,-82,-39,63,-2,-61,9,14,-34,-53,-58,-63
-63,-97,-34,80,-14,-65,14,24,-39,-53,-63,-63
-82,-107,-24,95,-29,-65,19,29,-39,-53,-63,-63
-97,-107,-9,102,-43,-58,29,24,-39,-53,-58,-53
-102,-107,-4,104,-48,-56,29,24,-39,-53,-53,-53
-107,-107,0,107,-53,-53,34,19,-34,-53,-43,-53
-112,-107,4,109,-58,-51,34,14,-34,-48,-39,-53
-92,-102,-9,97,-41,-56,24,24,-24,-43,-29,-43
-82,-92,-9,87,-36,-51,24,24,-29,-48,-29,-43
-73,-92,-19,82,-26,-56,24,29,-29,-43,-34,-43
-58,-82,-24,70,-17,-53,24,29,-29,-39,-34,-43
-29,-68,-39,48,4,-53,19,24,-29,-43,-34,-48
-9,-58,-48,34,19,-53,14,19,-29,-43,-34,-48
9,-53,-63,21,36,-58,9,14,-29,-43,-34,-48
29,-43,-73,7,51,-58,4,9,-29,-43,-34,-48
43,-58,-102,7,73,-80,-4,4,-43,-53,-43,-58
43,-58,-102,7,73,-80,-4,9,-48,-58,-43,-58
43,-68,-112,12,78,-90,-4,9,-53,-58,-43,-58
39,-68,-107,14,73,-87,-4,9,-53,-63,-43,-58
29,-73,-102,21,65,-87,4,9,-63,-63,-53,-68
19,-82,-102,31,61,-92,4,4,-63,-63,-58,-68
19,-87,-107,34,63,-97,9,4,-63,-63,-58,-73
19,-102,-122,41,70,-112,9,4,-63,-63,-58,-78
14,-112,-126,48,70,-119,9,0,-68,-68,-63,-87
9,-117,-126,53,68,-122,9,0,-78,-73,-68,-87
4,-126,-131,61,68,-129,9,0,-82,-78,-73,-87
0,-131,-131,65,65,-131,14,0,-87,-82,-82,-87
-4,-141,-136,73,65,-139,24,9,-87,-82,-82,-92
-19,-141,-122,80,51,-131,24,9,-87,-82,-82,-97
-24,-141,-117,82,46,-129,19,9,-87,-82,-78,-102
-24,-136,-112,80,43,-124,19,9,-87,-82,-78,-107
-29,-141,-112,85,41,-126,29,0,-78,-78,-68,-102
-34,-136,-102,85,34,-119,29,4,-82,-73,-68,-102
-39,-136,-97,87,29,-117,29,4,-82,-68,-68,-102
-48,-131,-82,90,17,-107,29,4,-82,-63,-68,-102
-48,-117,-68,82,9,-92,19,4,-78,-53,-63,-97
-43,-112,-68,78,12,-90,19,4,-73,-48,-58,-92
-39,-107,-68,73,14,-87,19,4,-68,-48,-53,-87
-34,-107,-73,70,19,-90,19,4,-63,-48,-48,-78
-43,-102,-58,73,7,-80,19,4,-63,-39,-34,-73
-43,-97,-53,70,4,-75,24,4,-63,-39,-34,-63
-43,-92,-48,68,2,-70,24,4,-63,-39,-34,-53
-43,-92,-48,68,2,-70,24,0,-63,-39,-34,-43
-48,-92,-43,70,-2,-68,19,0,-63,-48,-34,-39
-48,-92,-43,70,-2,-68,19,0,-63,-48,-34,-39
-43,-92,-48,68,2,-70,19,0,-63,-48,-34,-39
-39,-92,-53,65,7,-73,19,0,-63,-48,-34,-34
-48,-92,-43,70,-2,-68,29,0,-63,-58,-34,-34
-43,-92,-48,68,2,-70,29,0,-63,-58,-34,-34
-43,-92,-48,68,2,-70,29,0,-63,-58,-34,-34
-43,-97,-53,70,4,-75,29,0,-63,-58,-34,-34
-53,-97,-43,75,-4,-70,39,0,-63,-58,-34,-43
-53,-97,-43,75,-4,-70,43,0,-63,-58,-34,-43
-58,-97,-39,78,-9,-68,43,0,-63,-58,-29,-43
-58,-92,-34,75,-12,-63,43,0,-63,-58,-29,-43
-48,-92,-43,70,-2,-68,39,-4,-53,-53,-29,-34
-48,-92,-43,70,-2,-68,39,-4,-53,-53,-29,-39
-48,-92,-43,70,-2,-68,39,-4,-53,-58,-29,-43
-48,-92,-43,70,-2,-68,39,-4,-53,-58,-34,-48
-43,-92,-48,68,2,-70,29,4,-63,-48,-34,-48
-43,-92,-48,68,2,-70,29,4,-58,-48,-34,-48
-39,-92,-53,65,7,-73,24,4,-53,-48,-34,-43
-34,-87,-53,61,9,-70,24,4,-48,-43,-34,-39
-29,-87,-58,58,14,-73,14,14,-58,-43,-29,-39
-19,-87,-68,53,24,-78,9,14,-63,-43,-29,-34
-14,-87,-73,51,29,-80,9,14,-63,-43,-24,-34
-9,-87,-78,48,34,-82,9,14,-63,-43,-24,-34
-4,-97,-92,51,43,-95,9,24,-63,-53,-34,-34
-4,-97,-92,51,43,-95,9,24,-63,-53,-34,-34
-4,-97,-92,51,43,-95,9,24,-63,-48,-34,-34
-4,-97,-92,51,43,-95,9,24,-63,-48,-34,-34
-14,-107,-92,61,39,-100,9,24,-63,-48,-34,-24
-14,-102,-87,58,36,-95,4,24,-63,-43,-29,-24
-14,-97,-82,56,34,-90,4,24,-63,-43,-29,-24
-14,-97,-82,56,34,-90,4,24,-63,-48,-34,-24
-14,-107,-92,61,39,-100,19,24,-73,-58,-34,-29
-24,-107,-82,65,29,-95,19,24,-73,-58,-34,-29
-19,-107,-87,63,34,-97,19,24,-63,-48,-34,-34
-19,-97,-78,58,29,-87,19,19,-68,-48,-39,-29
-19,-97,-78,58,29,-87,19,9,-68,-58,-39,-29
-19,-97,-78,58,29,-87,19,9,-68,-58,-39,-29
-19,-97,-78,58,29,-87,19,9,-68,-58,-39,-29
-19,-97,-78,58,29,-87,19,9,-68,-58,-39,-29
-29,-107,-78,68,24,-92,19,9,-68,-58,-39,-19
-29,-107,-78,68,24,-92,19,9,-68,-58,-39,-19
-29,-107,-78,68,24,-92,19,9,-68,-58,-39,-19
-29,-107,-78,68,24,-92,19,9,-68,-58,-39,-19
-29,-97,-68,63,19,-82,9,0,-68,-58,-39,-19
-29,-97,-68,63,19,-82,9,0,-68,-58,-39,-19
-29,-97,-68,63,19,-82,9,0,-68,-58,-39,-19
-29,-97,-68,63,19,-82,9,0,-68,-58,-39,-19
-19,-82,-63,51,21,-73,9,4,-58,-48,-29,-9
-9,-78,-68,43,29,-73,9,9,-58,-48,-29,-9
0,-73,-73,36,36,-73,9,14,-58,-48,-29,-9
9,-68,-78,29,43,-73,9,19,-58,-48,-29,-9
19,-58,-78,19,48,-68,9,19,-48,-48,-19,-9
19,-58,-78,19,48,-68,9,19,-48,-48,-19,-9
19,-58,-78,19,48,-68,9,19,-48,-48,-19,-9
19,-58,-78,19,48,-68,9,19,-48,-48,-19,-9
14,-63,-78,24,46,-70,19,9,-58,-48,-24,-19
9,-68,-78,29,43,-73,19,9,-58,-48,-29,-19
4,-73,-78,34,41,-75,19,9,-58,-48,-34,-19
0,-78,-78,39,39,-78,19,9,-58,-48,-39,-19
-19,-87,-68,53,24,-78,19,4,-63,-58,-48,-24
-29,-97,-68,63,19,-82,19,0,-68,-58,-48,-29
-39,-107,-68,73,14,-87,19,-4,-73,-58,-48,-34
-48,-117,-68,82,9,-92,19,-9,-78,-58,-48,-39
-53,-126,-73,90,9,-100,19,-19,-78,-48,-48,-39
-58,-126,-68,92,4,-97,19,-19,-78,-48,-48,-39
-63,-126,-63,95,0,-95,19,-19,-78,-48,-48,-39
-68,-126,-58,97,-4,-92,19,-19,-78,-48,-48,-39
-68,-122,-53,95,-7,-87,19,-19,-68,-43,-39,-29
-68,-117,-48,92,-9,-82,19,-19,-68,-39,-39,-29
-68,-112,-43,90,-12,-78,19,-19,-68,-34,-39,-29
-68,-107,-39,87,-14,-73,19,-19,-68,-29,-39,-29
-63,-102,-39,82,-12,-70,9,-9,-68,-19,-34,-19
-58,-97,-39,78,-9,-68,9,-9,-68,-19,-29,-19
-53,-92,-39,73,-7,-65,9,-9,-68,-19,-24,-19
-48,-87,-39,68,-4,-63,9,-9,-68,-19,-19,-19
-39,-78,-39,58,0,-58,9,0,-58,-9,-19,-9
-39,-78,-39,58,0,-58,9,0,-58,-9,-19,-9
-39,-78,-39,58,0,-58,9,0,-58,-9,-19,-9
-39,-78,-39,58,0,-58,9,0,-58,-9,-19,-9
-29,-68,-39,48,4,-53,9,0,-58,0,-9,-9
-29,-68,-39,48,4,-53,9,0,-58,0,-9,-9
-29,-68,-39,48,4,-53,9,0,-58,0,-9,-9
-29,-68,-39,48,4,-53,9,0,-58,0,-9,-9
-34,-68,-34,51,0,-51,9,-9,-48,0,-9,-19
-39,-68,-29,53,-4,-48,9,-9,-48,0,-9,-19
-43,-68,-24,56,-9,-46,9,-9,-48,0,-9,-19
-48,-68,-19,58,-14,-43,9,-9,-48,0,-9,-19
-48,-58,-9,53,-19,-34,9,-9,-39,0,-19,-19
-48,-58,-9,53,-19,-34,9,-9,-39,0,-19,-19
-48,-58,-9,53,-19,-34,9,-9,-39,0,-19,-19
-48,-58,-9,53,-19,-34,9,-9,-39,0,-19,-19
-39,-58,-19,48,-9,-39,9,-9,-39,-9,-19,-29
-39,-58,-19,48,-9,-39,9,-9,-39,-9,-19,-29
-39,-58,-19,48,-9,-39,9,-9,-39,-9,-19,-29
-39,-58,-19,48,-9,-39,9,-9,-39,-9,-19,-29
-39,-58,-19,48,-9,-39,19,-9,-39,-19,-19,-29
-39,-58,-19,48,-9,-39,19,-9,-39,-19,-19,-29
-39,-58,-19,48,-9,-39,19,-9,-39,-19,-19,-29
-39,-58,-19,48,-9,-39,19,-9,-39,-19,-19,-29
-48,-63,-14,56,-17,-39,9,-9,-48,-29,-29,-39
-48,-68,-19,58,-14,-43,9,-9,-48,-29,-29,-39
-48,-73,-24,61,-12,-48,9,-9,-43,-29,-29,-39
-48,-82,-34,65,-7,-58,9,-9,-43,-29,-29,-39
-58,-82,-24,70,-17,-53,9,-19,-53,-39,-29,-39
-58,-82,-24,70,-17,-53,9,-19,-58,-39,-34,-39
-53,-87,-34,70,-9,-61,9,-19,-58,-39,-34,-39
-53,-92,-39,73,-7,-65,9,-19,-58,-39,-34,-39
-58,-102,-43,80,-7,-73,9,-19,-68,-48,-34,-39
-58,-102,-43,80,-7,-73,9,-24,-68,-48,-34,-39
-58,-102,-43,80,-7,-73,9,-24,-68,-48,-34,-43
-58,-102,-43,80,-7,-73,9,-24,-68,-48,-34,-43
-48,-102,-53,75,2,-78,0,-14,-68,-58,-39,-34
-43,-102,-58,73,7,-80,-4,-14,-68,-58,-39,-34
-43,-102,-58,73,7,-80,-4,-14,-68,-58,-39,-34
-43,-102,-58,73,7,-80,-4,-14,-68,-58,-39,-34
-39,-92,-53,65,7,-73,-4,0,-68,-68,-29,-34
-34,-92,-58,63,12,-75,-4,0,-68,-68,-34,-34
-29,-92,-63,61,17,-78,-4,0,-68,-68,-34,-34
-24,-82,-58,53,17,-70,-9,4,-63,-68,-34,-34
-9,-48,-39,29,14,-43,0,14,-58,-63,-24,-24
0,-39,-39,19,19,-39,0,19,-53,-53,-14,-14
9,-29,-39,9,24,-34,0,24,-48,-48,-4,-9
24,-24,-48,0,36,-36,0,29,-34,-43,4,-4
19,-29,-48,4,34,-39,0,19,-29,-43,-4,-4
19,-24,-43,2,31,-34,-4,19,-24,-43,-4,-4
14,-19,-34,2,24,-26,-4,19,-19,-34,4,0
19,-4,-24,-7,21,-14,-4,19,-9,-34,9,14
29,24,-4,-26,17,9,-14,29,4,-24,14,14
39,39,0,-39,19,19,-14,29,14,-14,24,19
48,58,9,-53,19,34,-24,19,24,-9,29,24
58,73,14,-65,21,43,-24,9,24,-4,34,34
43,63,19,-53,12,41,-34,4,19,-9,24,29
39,58,19,-48,9,39,-34,0,24,-4,29,29
34,68,34,-51,0,51,-39,-4,29,0,34,34
29,68,39,-48,-4,53,-39,-9,34,4,39,39
24,68,43,-46,-9,56,-43,-19,34,14,43,34
19,73,53,-46,-17,63,-39,-24,34,19,48,39
19,82,63,-51,-21,73,-39,-34,34,19,48,43
14,87,73,-51,-29,80,-34,-39,34,19,48,43
-4,78,82,-36,-43,80,-29,-48,43,19,39,43
-19,63,82,-21,-51,73,-29,-58,43,24,43,43
-29,53,82,-12,-56,68,-29,-63,43,24,43,48
-39,43,82,-2,-61,63,-29,-68,43,24,48,48
-34,53,87,-9,-61,70,-39,-68,43,34,58,48
-34,53,87,-9,-61,70,-43,-68,43,34,58,48
-34,53,87,-9,-61,70,-43,-73,43,34,58,53
-34,53,87,-9,-61,70,-43,-78,43,34,58,53
-29,63,92,-17,-61,78,-43,-68,43,39,73,63
-24,68,92,-21,-58,80,-43,-68,43,43,73,68
-19,73,92,-26,-56,82,-43,-68,43,48,73,68
-14,78,92,-31,-53,85,-48,-68,39,53,73,68
-19,68,87,-24,-53,78,-39,-58,48,53,73,78
-19,73,92,-26,-56,82,-39,-58,48,53,73,78
-19,73,92,-26,-56,82,-39,-58,48,53,73,78
-24,63,87,-19,-56,75,-39,-53,39,53,73,68
-24,58,82,-17,-53,70,-39,-53,39,53,63,63
-24,53,78,-14,-51,65,-34,-53,34,48,58,58
-24,43,68,-9,-46,56,-34,-48,29,43,53,53
-29,34,63,-2,-46,48,-24,-43,24,39,48,48
-29,34,63,-2,-46,48,-34,-39,19,24,43,34
-29,19,48,4,-39,34,-29,-39,14,19,29,24
-29,0,29,14,-29,14,-24,-34,4,9,19,9
-24,-14,9,19,-17,-2,-19,-29,-4,0,19,4
-24,-29,-4,26,-9,-17,-14,-24,-24,-19,-4,-4
-19,-39,-19,29,0,-29,-9,-24,-34,-29,-9,-19
-24,-53,-29,39,2,-41,-4,-24,-34,-29,-19,-19
-29,-63,-34,46,2,-48,4,-14,-39,-34,-19,-29
-19,-63,-43,41,12,-53,9,-4,-43,-29,-24,-24
-19,-73,-53,46,17,-63,14,-4,-48,-34,-29,-24
-24,-73,-48,48,12,-61,14,-4,-53,-39,-34,-29
-24,-78,-53,51,14,-65,14,-4,-53,-39,-39,-29
-14,-78,-63,46,24,-70,14,4,-43,-39,-29,-39
-14,-73,-58,43,21,-65,14,9,-43,-39,-29,-39
-14,-68,-53,41,19,-61,14,9,-43,-43,-29,-39
-14,-68,-53,41,19,-61,14,9,-43,-43,-29,-39
-9,-87,-78,48,34,-82,19,9,-48,-34,-29,-34
-9,-87,-78,48,34,-82,19,9,-48,-34,-29,-34
-9,-92,-82,51,36,-87,24,9,-53,-39,-29,-34
-9,-92,-82,51,36,-87,24,9,-53,-39,-29,-34
0,-92,-92,46,46,-92,14,14,-63,-39,-43,-48
-4,-92,-87,48,41,-90,14,14,-63,-34,-43,-48
-4,-92,-87,48,41,-90,14,14,-63,-34,-43,-48
-4,-92,-87,48,41,-90,14,14,-63,-34,-43,-48
-9,-102,-92,56,41,-97,24,0,-58,-43,-43,-58
-19,-92,-73,56,26,-82,14,-4,-48,-34,-34,-48
-29,-73,-43,51,7,-58,14,-14,-29,-19,-19,-43
-24,-39,-14,31,-4,-26,-4,-24,0,19,4,-29
0,48,48,-24,-24,48,-24,-39,58,78,48,4
19,170,151,-95,-65,161,-63,-68,141,161,117,58
48,346,297,-197,-124,322,-112,-112,258,278,224,117
82,551,468,-317,-192,509,-185,-161,395,429,346,209
122,785,663,-453,-270,724,-273,-224,570,595,497,297
180,1015,834,-597,-326,924,-346,-278,732,761,634,395
229,1215,985,-722,-378,1100,-424,-317,873,917,751,468
283,1376,1093,-829,-405,1234,-483,-346,980,1029,844,546
326,1522,1195,-924,-434,1359,-541,-375,1068,1127,932,614
375,1693,1317,-1034,-470,1505,-610,-434,1156,1244,1058,702
444,1903,1459,-1173,-507,1681,-702,-492,1268,1381,1200,834
527,2122,1595,-1324,-534,1859,-795,-546,1381,1537,1366,971
614,2313,1698,-1464,-541,2005,-897,-590,1464,1664,1542,1127
697,2488,1790,-1593,-546,2139,-1000,-663,1522,1800,1708,1307
727,2649,1922,-1688,-597,2286,-1088,-751,1576,1947,1903,1493
692,2713,2020,-1703,-663,2366,-1137,-829,1581,2049,2064,1639
619,2664,2044,-1642,-712,2354,-1132,-878,1532,2083,2122,1712
541,2562,2020,-1551,-739,2291,-1093,-897,1468,2064,2132,1712
478,2508,2030,-1493,-775,2269,-1058,-907,1444,2064,2142,1708
414,2493,2078,-1454,-832,2286,-1044,-927,1449,2093,2161,1712
370,2440,2069,-1405,-849,2254,-1000,-902,1415,2064,2137,1678
322,2274,1952,-1298,-814,2113,-927,-849,1307,1927,2015,1571
258,1976,1717,-1117,-729,1847,-824,-756,1112,1703,1800,1410
175,1595,1420,-885,-622,1507,-678,-644,868,1371,1473,1166
78,1107,1029,-592,-475,1068,-478,-463,546,912,980,839
9,561,551,-285,-270,556,-263,-268,209,424,492,488
-34,136,170,-51,-102,153,-97,-107,-53,58,131,224
-43,-117,-73,80,14,-95,0,9,-180,-141,-58,39
-24,-268,-244,146,109,-256,63,92,-263,-253,-126,-48
-9,-336,-326,173,158,-331,87,136,-292,-287,-151,-112
0,-351,-351,175,175,-351,87,151,-278,-287,-175,-141
9,-326,-336,158,173,-331,87,161,-273,-278,-190,-141
14,-287,-302,136,158,-295,82,161,-234,-253,-190,-141
24,-248,-273,112,148,-261,78,151,-195,-234,-195,-126
39,-234,-273,97,156,-253,78,151,-185,-214,-180,-126
39,-253,-292,107,165,-273,78,156,-180,-214,-175,-141
19,-263,-283,122,151,-273,87,156,-175,-219,-156,-151
14,-263,-278,124,146,-270,87,136,-165,-209,-146,-170
0,-248,-248,124,124,-248,87,122,-136,-195,-136,-170
-14,-195,-180,104,82,-187,78,97,-117,-165,-146,-156
-24,-175,-151,100,63,-163,73,82,-107,-151,-146,-136
-29,-165,-136,97,53,-151,78,73,-97,-146,-161,-122
-34,-180,-146,107,56,-163,78,63,-107,-146,-161,-112
-34,-219,-185,126,75,-202,87,78,-122,-156,-156,-117
-34,-229,-195,131,80,-212,82,73,-126,-175,-146,-136
-39,-253,-214,146,87,-234,92,73,-126,-175,-136,-146
-43,-244,-200,143,78,-222,92,73,-117,-175,-126,-161
-43,-214,-170,129,63,-192,82,63,-97,-156,-141,-161
-43,-195,-151,119,53,-173,78,63,-97,-136,-141,-136
-48,-165,-117,107,34,-141,73,53,-82,-136,-156,-146
-48,-175,-126,112,39,-151,63,43,-82,-136,-156,-117
-43,-190,-146,117,51,-168,73,48,-107,-146,-146,-117
-39,-204,-165,122,63,-185,78,48,-107,-156,-146,-141
-43,-209,-165,126,61,-187,82,58,-117,-165,-131,-136
-43,-209,-165,126,61,-187,92,58,-107,-151,-122,-156
-43,-185,-141,114,48,-163,78,48,-87,-136,-122,-156
-43,-156,-112,100,34,-134,73,43,-78,-126,-122,-141
-34,-131,-97,82,31,-114,68,43,-58,-117,-136,-126
-34,-122,-87,78,26,-104,68,43,-58,-117,-141,-112
-34,-141,-107,87,36,-124,68,43,-73,-117,-141,-112
-39,-161,-122,100,41,-141,78,53,-92,-131,-136,-117
-39,-185,-146,112,53,-165,87,63,-92,-146,-126,-131
-43,-185,-141,114,48,-163,97,63,-92,-136,-122,-141
-34,-170,-136,102,51,-153,82,58,-78,-131,-112,-151
-39,-146,-107,92,34,-126,73,48,-73,-117,-126,-141
-39,-131,-92,85,26,-112,63,48,-63,-102,-131,-131
-43,-126,-82,85,19,-104,63,39,-53,-102,-146,-117
-53,-136,-82,95,14,-109,63,48,-73,-112,-146,-117
-53,-175,-122,114,34,-148,78,48,-92,-122,-136,-112
-58,-190,-131,124,36,-161,82,53,-92,-136,-131,-131
-58,-209,-151,134,46,-180,82,63,-102,-136,-117,-136
-58,-200,-141,129,41,-170,82,53,-87,-131,-117,-151
-58,-165,-107,112,24,-136,73,43,-63,-112,-126,-151
-58,-151,-92,104,17,-122,68,48,-58,-92,-117,-131
-53,-126,-73,90,9,-100,58,39,-48,-92,-131,-131
-43,-117,-73,80,14,-95,63,39,-48,-92,-141,-102
-43,-126,-82,85,19,-104,68,48,-73,-97,-126,-102
-43,-141,-97,92,26,-119,78,53,-63,-112,-117,-126
-43,-156,-112,100,34,-134,87,58,-73,-122,-107,-117
-43,-156,-112,100,34,-134,87,58,-68,-102,-97,-141
-34,-136,-102,85,34,-119,82,53,-48,-102,-107,-151
-39,-117,-78,78,19,-97,73,48,-43,-87,-112,-131
-39,-102,-63,70,12,-82,58,39,-29,-73,-117,-131
-29,-87,-58,58,14,-73,58,29,-29,-78,-126,-117
-14,-82,-68,48,26,-75,58,48,-43,-78,-126,-107
4,-92,-97,43,51,-95,58,58,-43,-87,-117,-112
-4,-107,-102,56,48,-104,73,58,-53,-97,-107,-122
0,-117,-117,58,58,-117,73,58,-53,-102,-97,-136
0,-117,-117,58,58,-117,63,53,-34,-92,-102,-146
-9,-87,-78,48,34,-82,53,43,-29,-87,-102,-141
-14,-73,-58,43,21,-65,48,43,-19,-73,-112,-126
9,-53,-63,21,36,-58,39,43,0,-68,-122,-117
9,-53,-63,21,36,-58,39,43,-14,-58,-112,-97
14,-68,-82,26,48,-75,43,58,-24,-68,-102,-97
9,-78,-87,34,48,-82,53,58,-24,-82,-102,-117
0,-102,-102,51,51,-102,63,58,-34,-82,-87,-122
-19,-102,-82,61,31,-92,58,58,-19,-82,-87,-141
-29,-87,-58,58,14,-73,58,43,-4,-78,-102,-141
-34,-82,-48,58,7,-65,58,43,4,-63,-97,-117
-43,-68,-24,56,-9,-46,53,39,19,-48,-107,-112
-48,-68,-19,58,-14,-43,53,39,19,-48,-102,-92
-48,-68,-19,58,-14,-43,58,39,-4,-53,-97,-92
-48,-78,-29,63,-9,-53,68,43,0,-68,-87,-117
-48,-102,-53,75,2,-78,68,53,-19,-78,-82,-117
-48,-102,-53,75,2,-78,68,43,-9,-68,-73,-136
-48,-87,-39,68,-4,-63,63,43,9,-68,-78,-136
-43,-63,-19,53,-12,-41,58,34,14,-63,-87,-122
-43,-43,0,43,-21,-21,48,29,24,-58,-97,-122
-29,-34,-4,31,-12,-19,39,29,24,-58,-107,-97
-29,-43,-14,36,-7,-29,39,29,14,-58,-97,-97
-24,-63,-39,43,7,-51,43,39,9,-58,-92,-107
-24,-73,-48,48,12,-61,43,43,9,-58,-78,-117
-9,-73,-63,41,26,-68,43,43,0,-58,-78,-131
-4,-48,-43,26,19,-46,43,43,9,-58,-78,-131
0,-24,-24,12,12,-24,39,39,24,-48,-87,-126
4,-14,-19,4,12,-17,34,29,29,-43,-92,-112
-4,-14,-9,9,2,-12,24,29,29,-53,-102,-107
-4,-29,-24,17,9,-26,24,29,24,-58,-102,-92
-4,-43,-39,24,17,-41,34,39,24,-58,-102,-107
-9,-53,-43,31,17,-48,34,43,19,-63,-92,-117
-9,-58,-48,34,19,-53,48,53,19,-53,-82,-122
-9,-43,-34,26,12,-39,48,53,34,-53,-82,-131
-4,-24,-19,14,7,-21,48,48,48,-53,-82,-122
0,0,0,0,0,0,39,43,53,-43,-92,-112
4,14,9,-9,-2,12,29,34,63,-43,-102,-107
4,9,4,-7,0,7,29,39,63,-43,-102,-92
4,4,0,-4,2,2,29,43,43,-48,-92,-102
4,-4,-9,0,7,-7,34,43,43,-48,-92,-117
4,-4,-9,0,7,-7,43,48,43,-48,-73,-117
14,-4,-19,-4,17,-12,43,48,48,-43,-73,-122
14,9,-4,-12,9,2,43,43,68,-43,-78,-122
14,29,14,-21,0,21,34,43,68,-43,-87,-107
14,39,24,-26,-4,31,19,39,78,-34,-97,-102
14,39,24,-26,-4,31,19,39,73,-34,-97,-102
14,24,9,-19,2,17,29,48,68,-34,-97,-102
4,0,-4,-2,4,-2,39,53,58,-48,-97,-112
-4,-19,-14,12,4,-17,43,58,39,-63,-97,-126
-9,-29,-19,19,4,-24,43,58,39,-68,-97,-141
-14,-34,-19,24,2,-26,43,53,48,-73,-107,-141
-14,-19,-4,17,-4,-12,34,53,53,-73,-112,-136
-14,0,14,7,-14,7,34,43,53,-63,-117,-126
-4,0,4,2,-4,2,34,43,53,-63,-131,-122
0,-14,-14,7,7,-14,34,48,43,-63,-131,-122
4,-39,-43,17,24,-41,43,63,29,-68,-122,-122
-4,-68,-63,36,29,-65,58,73,19,-82,-112,-131
-4,-82,-78,43,36,-80,63,78,9,-87,-112,-141
-9,-82,-73,46,31,-78,63,78,9,-92,-122,-156
-14,-82,-68,48,26,-75,63,73,9,-92,-136,-156
-4,-73,-68,39,31,-70,63,82,14,-87,-136,-146
-14,-73,-58,43,21,-65,63,82,14,-92,-146,-141
-19,-82,-63,51,21,-73,68,82,4,-97,-156,-126
-19,-107,-87,63,34,-97,73,87,-19,-112,-156,-131
-34,-141,-107,87,36,-124,97,102,-39,-131,-165,-156
-48,-170,-122,109,36,-146,102,102,-53,-141,-165,-161
-48,-185,-136,117,43,-161,107,102,-63,-151,-170,-175
-43,-185,-141,114,48,-163,107,97,-63,-151,-175,-175
-58,-175,-117,117,29,-146,97,87,-73,-156,-200,-180
-63,-175,-112,119,24,-143,97,82,-73,-165,-224,-180
-68,-175,-107,122,19,-141,97,78,-87,-165,-229,-170
-73,-204,-131,139,29,-168,102,78,-112,-170,-229,-170
-68,-214,-146,141,39,-180,107,97,-126,-180,-239,-180
-68,-234,-165,151,48,-200,117,102,-136,-195,-239,-195
-63,-253,-190,158,63,-222,122,102,-151,-209,-239,-209
-58,-248,-190,153,65,-219,122,102,-156,-219,-253,-229
-53,-229,-175,141,61,-202,117,97,-146,-214,-263,-229
-48,-224,-175,136,63,-200,117,97,-151,-219,-273,-219
-43,-234,-190,139,73,-212,112,97,-161,-229,-283,-209
-34,-244,-209,139,87,-226,107,102,-180,-239,-287,-209
-34,-258,-224,146,95,-241,122,107,-204,-258,-287,-209
-43,-278,-234,161,95,-256,126,107,-224,-268,-287,-229
-48,-307,-258,178,104,-283,131,107,-239,-278,-287,-239
-48,-302,-253,175,102,-278,131,107,-239,-287,-287,-239
-68,-307,-239,187,85,-273,131,102,-239,-287,-312,-244
-78,-312,-234,195,78,-273,126,97,-248,-287,-322,-244
-87,-322,-234,204,73,-278,126,92,-253,-287,-326,-244
-97,-336,-239,217,70,-287,126,87,-263,-292,-326,-239
-107,-356,-248,231,70,-302,131,82,-287,-302,-326,-239
-112,-375,-263,244,75,-319,131,87,-297,-317,-322,-253
-117,-390,-273,253,78,-331,131,82,-297,-326,-317,-253
-122,-395,-273,258,75,-334,126,78,-297,-331,-322,-273
-112,-370,-258,241,73,-314,122,68,-292,-326,-312,-273
-107,-351,-244,229,68,-297,112,63,-283,-322,-317,-263
-107,-341,-234,224,63,-287,112,58,-273,-317,-317,-248
-107,-346,-239,226,65,-292,107,53,-273,-307,-307,-239
-102,-346,-244,224,70,-295,107,58,-273,-317,-307,-224
-92,-341,-248,217,78,-295,107,63,-273,-307,-292,-224
-87,-336,-248,212,80,-292,102,68,-273,-297,-278,-224
-78,-317,-239,197,80,-278,97,73,-263,-283,-263,-224
-82,-292,-209,187,63,-251,92,68,-229,-283,-248,-224
-87,-253,-165,170,39,-209,92,53,-214,-263,-244,-204
-87,-229,-141,158,26,-185,82,53,-190,-248,-239,-185
-82,-209,-126,146,21,-168,78,48,-180,-229,-229,-170
-92,-214,-122,153,14,-168,78,43,-180,-229,-229,-151
-92,-214,-122,153,14,-168,73,39,-180,-224,-209,-151
-82,-214,-131,148,24,-173,73,39,-175,-214,-190,-151
-82,-204,-122,143,19,-163,73,34,-170,-204,-170,-151
-68,-200,-131,134,31,-165,53,24,-156,-200,-175,-151
-63,-170,-107,117,21,-139,48,19,-136,-190,-170,-146
-63,-141,-78,102,7,-109,34,9,-117,-170,-165,-131
-58,-112,-53,85,-2,-82,34,4,-102,-151,-165,-126
-34,-102,-68,68,17,-85,29,4,-112,-156,-161,-112
-19,-102,-82,61,31,-92,24,4,-107,-146,-151,-112
-14,-102,-87,58,36,-95,14,4,-107,-146,-141,-117
0,-102,-102,51,51,-102,9,0,-107,-146,-126,-117
0,-97,-97,48,48,-97,9,4,-97,-136,-122,-117
-4,-82,-78,43,36,-80,0,0,-82,-126,-117,-117
-9,-63,-53,36,21,-58,-4,-9,-68,-122,-112,-112
-14,-53,-39,34,12,-46,-14,-14,-48,-112,-107,-112
-24,-53,-29,39,2,-41,-9,-19,-34,-102,-97,-92
-24,-53,-29,39,2,-41,-9,-24,-34,-92,-87,-87
-24,-58,-34,41,4,-46,-14,-19,-34,-82,-82,-82
-19,-58,-39,39,9,-48,-14,-24,-29,-73,-68,-78
-24,-63,-39,43,7,-51,-9,-24,-29,-63,-48,-78
-19,-48,-29,34,4,-39,-9,-24,-9,-58,-48,-78
-19,-34,-14,26,-2,-24,-9,-29,-9,-48,-53,-68
-19,-29,-9,24,-4,-19,-4,-29,-4,-43,-53,-63
-24,-39,-14,31,-4,-26,-14,-29,-14,-48,-48,-58
-24,-39,-14,31,-4,-26,-14,-29,-14,-43,-48,-58
-24,-39,-14,31,-4,-26,-14,-29,-14,-39,-48,-58
-19,-39,-19,29,0,-29,-19,-34,-19,-39,-48,-53
-19,-34,-14,26,-2,-24,-19,-39,-19,-39,-43,-63
-24,-29,-4,26,-9,-17,-19,-34,-19,-39,-43,-58
-29,-29,0,29,-14,-14,-19,-29,-24,-43,-43,-58
-29,-29,0,29,-14,-14,-19,-24,-24,-43,-43,-58
-14,-14,0,14,-7,-7,-19,-24,-24,-29,-43,-58
-14,0,14,7,-14,7,-19,-24,-24,-29,-39,-58
-14,9,24,2,-19,17,-19,-24,-14,-24,-39,-58
-14,24,39,-4,-26,31,-24,-24,-14,-24,-39,-58
-9,34,43,-12,-26,39,-34,-39,-14,-24,-39,-48
-4,43,48,-19,-26,46,-34,-39,-14,-24,-39,-48
0,53,53,-26,-26,53,-34,-34,-9,-24,-43,-48
-4,63,68,-29,-36,65,-34,-34,-4,-19,-43,-48
9,73,63,-41,-26,68,-24,-34,4,-14,-43,-58
4,78,73,-41,-34,75,-24,-34,14,-14,-43,-58
9,87,78,-48,-34,82,-29,-34,14,-14,-39,-58
14,102,87,-58,-36,95,-34,-43,14,-14,-39,-53
0,92,92,-46,-46,92,-34,-43,19,-24,-43,-53
-14,87,102,-36,-58,95,-34,-43,24,-24,-43,-53
-29,82,112,-26,-70,97,-29,-43,29,-24,-43,-53
-39,78,117,-19,-78,97,-29,-43,34,-24,-43,-53
-39,68,107,-14,-73,87,-19,-34,39,-24,-39,-43
-39,68,107,-14,-73,87,-19,-39,43,-24,-34,-43
-29,68,97,-19,-63,82,-19,-39,48,-24,-29,-43
-29,78,107,-24,-68,92,-19,-39,58,-24,-24,-43
-39,73,112,-17,-75,92,-19,-29,48,-24,-34,-43
-39,73,112,-17,-75,92,-24,-29,48,-29,-34,-43
-43,68,112,-12,-78,90,-24,-29,48,-34,-34,-39
-43,63,107,-9,-75,85,-24,-29,48,-39,-29,-39
-29,53,82,-12,-56,68,-24,-34,34,-39,-19,-43
-24,43,68,-9,-46,56,-19,-29,29,-39,-19,-43
-14,39,53,-12,-34,46,-19,-29,29,-34,-19,-43
-9,34,43,-12,-26,39,-19,-29,24,-34,-19,-43
-9,14,24,-2,-17,19,-19,-29,14,-34,-19,-43
-9,-4,4,7,-7,0,-14,-24,14,-39,-19,-43
-9,-34,-24,21,7,-29,-14,-24,9,-39,-19,-43
-9,-53,-43,31,17,-48,-14,-24,9,-43,-19,-39
-19,-78,-58,48,19,-68,0,-19,-4,-39,-14,-34
-19,-102,-82,61,31,-92,4,-14,-4,-34,-4,-34
-19,-122,-102,70,41,-112,19,-9,-4,-29,0,-29
-19,-136,-117,78,48,-126,24,-4,-4,-24,4,-24
-19,-136,-117,78,48,-126,24,0,9,-14,9,-14
-24,-141,-117,82,46,-129,24,4,9,-14,9,-14
-24,-146,-122,85,48,-134,29,14,9,-14,9,-14
-24,-156,-131,90,53,-143,29,19,14,-14,9,-14
-24,-156,-131,90,53,-143,29,19,29,-9,4,-14
-24,-156,-131,90,53,-143,29,19,29,-9,4,-19
-24,-151,-126,87,51,-139,29,19,29,-4,4,-19
-24,-141,-117,82,46,-129,29,19,29,0,4,-14
-24,-126,-102,75,39,-114,24,14,39,0,0,-19
-19,-112,-92,65,36,-102,19,9,39,-4,-4,-24
-14,-97,-82,56,34,-90,9,0,39,-9,-14,-29
-14,-87,-73,51,29,-80,4,-4,39,-14,-19,-34
0,-78,-78,39,39,-78,4,0,39,-9,-19,-29
9,-63,-73,26,41,-68,4,4,39,-9,-19,-29
19,-39,-58,9,39,-48,4,9,39,-4,-19,-34
34,-14,-48,-9,41,-31,4,14,39,0,-14,-34
48,0,-48,-24,48,-24,-4,19,29,4,-9,-24
53,4,-48,-29,51,-21,-4,24,19,9,-4,-24
53,9,-43,-31,48,-17,0,24,4,14,0,-24
58,9,-48,-34,53,-19,0,29,-14,19,4,-24
43,0,-43,-21,43,-21,4,29,-19,29,4,-14
43,0,-43,-21,43,-21,9,24,-24,29,4,-14
43,0,-43,-21,43,-21,9,19,-24,29,0,-14
43,4,-39,-24,41,-17,9,14,-29,24,0,-14
29,-9,-39,-9,34,-24,19,4,-39,14,-4,-19
14,-24,-39,4,26,-31,19,0,-39,14,-9,-24
0,-39,-39,19,19,-39,14,-4,-43,14,-14,-29
-14,-53,-39,34,12,-46,14,-4,-43,14,-19,-34
-24,-73,-48,48,12,-61,24,-14,-58,0,-34,-43
-34,-82,-48,58,7,-65,19,-14,-63,-4,-43,-43
-43,-92,-48,68,2,-70,19,-14,-63,-9,-43,-43
-53,-102,-48,78,-2,-75,24,-14,-58,-9,-43,-43
-53,-102,-48,78,-2,-75,34,-14,-63,-9,-34,-43
-48,-102,-53,75,2,-78,34,-9,-73,-9,-39,-43
-53,-102,-48,78,-2,-75,29,-4,-78,-9,-39,-48
-68,-102,-34,85,-17,-68,29,0,-82,-9,-39,-48
-78,-112,-34,95,-21,-73,34,-4,-97,-4,-29,-48
-82,-112,-29,97,-26,-70,39,-4,-112,-4,-29,-43
-82,-117,-34,100,-24,-75,43,0,-122,-4,-34,-39
-82,-117,-34,100,-24,-75,48,0,-126,-4,-34,-34
-73,-126,-53,100,-9,-90,39,4,-131,-14,-34,-34
-73,-126,-53,100,-9,-90,39,4,-136,-14,-34,-34
-73,-126,-53,100,-9,-90,43,0,-136,-14,-29,-34
-73,-126,-53,100,-9,-90,43,-4,-141,-9,-29,-34
-63,-122,-58,92,-2,-90,39,4,-151,-14,-39,-39
-53,-122,-68,87,7,-95,34,4,-156,-29,-39,-43
-43,-131,-87,87,21,-109,29,9,-156,-34,-43,-48
-29,-131,-102,80,36,-117,24,9,-156,-39,-43,-53
-14,-117,-102,65,43,-109,14,0,-146,-53,-53,-58
-9,-117,-107,63,48,-112,14,0,-146,-53,-53,-58
-4,-122,-117,63,56,-119,14,0,-146,-53,-53,-58
0,-122,-122,61,61,-122,14,0,-146,-53,-53,-58
4,-122,-126,58,65,-124,14,14,-136,-63,-43,-58
4,-117,-122,56,63,-119,14,19,-136,-68,-43,-58
4,-122,-126,58,65,-124,14,19,-136,-68,-43,-58
0,-117,-117,58,58,-117,14,19,-131,-73,-43,-58
0,-117,-117,58,58,-117,24,19,-126,-82,-43,-48
-9,-122,-112,65,51,-117,24,14,-122,-82,-48,-48
-9,-122,-112,65,51,-117,29,14,-117,-82,-48,-53
-9,-131,-122,70,56,-126,29,14,-112,-82,-48,-58
-9,-126,-117,68,53,-122,29,19,-107,-82,-48,-48
-9,-126,-117,68,53,-122,29,19,-107,-82,-48,-48
-9,-131,-122,70,56,-126,29,19,-102,-82,-48,-48
-9,-131,-122,70,56,-126,34,19,-97,-82,-53,-48
-19,-131,-112,75,46,-122,34,19,-97,-73,-53,-48
-29,-131,-102,80,36,-117,34,19,-97,-73,-53,-48
-29,-131,-102,80,36,-117,29,19,-97,-73,-48,-48
-24,-126,-102,75,39,-114,29,19,-97,-73,-48,-48
-24,-131,-107,78,41,-119,29,9,-97,-82,-48,-43
-24,-126,-102,75,39,-114,29,14,-102,-82,-48,-43
-24,-126,-102,75,39,-114,29,14,-102,-82,-48,-43
-29,-122,-92,75,31,-107,29,14,-102,-82,-48,-43
-24,-126,-102,75,39,-114,39,14,-102,-87,-48,-53
-24,-122,-97,73,36,-109,39,14,-102,-87,-48,-53
-24,-117,-92,70,34,-104,39,14,-102,-92,-48,-53
-24,-117,-92,70,34,-104,39,14,-102,-97,-48,-48
-14,-117,-102,65,43,-109,29,14,-92,-107,-53,-58
-14,-117,-102,65,43,-109,34,14,-92,-107,-53,-53
-14,-117,-102,65,43,-109,34,14,-92,-107,-53,-48
-14,-122,-107,68,46,-114,34,9,-92,-107,-53,-43
-14,-122,-107,68,46,-114,29,0,-82,-107,-53,-48
-19,-122,-102,70,41,-112,29,0,-82,-107,-53,-48
-19,-122,-102,70,41,-112,29,0,-82,-107,-53,-48
-19,-122,-102,70,41,-112,29,0,-82,-107,-53,-43
-29,-122,-92,75,31,-107,29,0,-68,-107,-53,-53
-24,-122,-97,73,36,-109,29,0,-63,-107,-53,-53
-24,-122,-97,73,36,-109,29,0,-58,-107,-53,-53
-24,-126,-102,75,39,-114,29,0,-53,-107,-53,-53
-24,-126,-102,75,39,-114,29,0,-43,-97,-53,-53
-24,-126,-102,75,39,-114,34,0,-43,-97,-53,-53
-29,-126,-97,78,34,-112,34,0,-43,-97,-48,-53
-29,-122,-92,75,31,-107,34,0,-43,-97,-48,-53
-19,-122,-102,70,41,-112,39,14,-53,-87,-48,-43
-19,-122,-102,70,41,-112,39,14,-53,-82,-48,-48
-19,-122,-102,70,41,-112,39,14,-53,-82,-48,-53
-19,-122,-102,70,41,-112,39,14,-53,-78,-53,-58
-19,-122,-102,70,41,-112,39,14,-73,-68,-43,-53
-24,-122,-97,73,36,-109,39,14,-78,-68,-43,-58
-24,-122,-97,73,36,-109,34,14,-82,-68,-43,-58
-24,-117,-92,70,34,-104,34,14,-87,-63,-43,-58
-14,-107,-92,61,39,-100,34,14,-92,-58,-39,-48
-9,-107,-97,58,43,-102,29,14,-102,-53,-39,-43
-9,-107,-97,58,43,-102,29,14,-107,-48,-34,-43
-9,-107,-97,58,43,-102,29,14,-112,-43,-34,-43
-9,-107,-97,58,43,-102,29,14,-112,-34,-34,-43
-14,-107,-92,61,39,-100,29,14,-112,-34,-34,-43
-19,-107,-87,63,34,-97,29,14,-112,-29,-34,-43
-24,-107,-82,65,29,-95,29,14,-112,-29,-34,-43
-9,-102,-92,56,41,-97,39,14,-112,-29,-24,-34
-4,-92,-87,48,41,-90,34,14,-112,-24,-19,-34
0,-82,-82,41,41,-82,34,14,-112,-24,-19,-34
4,-78,-82,36,43,-80,34,14,-112,-29,-24,-34
24,-68,-92,21,58,-80,29,24,-102,-19,-14,-19
24,-78,-102,26,63,-90,29,24,-112,-19,-14,-29
19,-87,-107,34,63,-97,29,24,-112,-19,-14,-34
9,-97,-107,43,58,-102,29,29,-107,-19,-19,-29
0,-97,-97,48,48,-97,29,19,-107,-29,-19,-29
0,-97,-97,48,48,-97,29,19,-107,-29,-19,-29
0,-97,-97,48,48,-97,29,19,-107,-29,-19,-29
0,-97,-97,48,48,-97,29,19,-107,-29,-19,-29
-4,-87,-82,46,39,-85,29,19,-97,-24,-14,-19
-9,-87,-78,48,34,-82,29,19,-97,-19,-9,-19
-14,-87,-73,51,29,-80,29,19,-97,-14,-4,-19
-19,-87,-68,53,24,-78,29,19,-97,-9,0,-19
-29,-97,-68,63,19,-82,34,19,-97,0,9,-19
-39,-97,-58,68,9,-78,39,19,-97,0,9,-19
-48,-97,-48,73,0,-73,43,19,-97,0,9,-19
-58,-97,-39,78,-9,-68,48,19,-97,0,9,-19
-68,-107,-39,87,-14,-73,48,19,-107,0,0,-19
-68,-107,-39,87,-14,-73,48,19,-107,0,0,-19
-68,-107,-39,87,-14,-73,48,19,-107,0,0,-19
-68,-107,-39,87,-14,-73,48,19,-107,0,0,-19
-63,-112,-48,87,-7,-80,43,14,-117,-14,-14,-34
-58,-117,-58,87,0,-87,39,9,-117,-19,-19,-39
-53,-122,-68,87,7,-95,34,4,-117,-24,-24,-43
-48,-126,-78,87,14,-102,29,0,-117,-29,-29,-48
-34,-126,-92,80,29,-109,24,-9,-112,-39,-34,-58
-29,-126,-97,78,34,-112,19,-9,-107,-39,-39,-58
-24,-126,-102,75,39,-114,14,-9,-102,-39,-43,-58
-19,-126,-107,73,43,-117,9,-9,-97,-39,-48,-58
-4,-112,-107,58,51,-109,0,0,-82,-39,-48,-58
0,-107,-107,53,53,-107,0,0,-78,-39,-48,-58
4,-102,-107,48,56,-104,0,0,-73,-39,-48,-58
9,-97,-107,43,58,-102,0,0,-68,-39,-48,-58
-4,-97,-92,51,43,-95,9,0,-68,-29,-39,-48
-9,-97,-87,53,39,-92,9,0,-68,-29,-39,-48
-14,-97,-82,56,34,-90,9,0,-68,-29,-39,-48
-19,-97,-78,58,29,-87,9,0,-68,-29,-39,-48
-9,-87,-78,48,34,-82,19,0,-73,-29,-29,-48
-9,-87,-78,48,34,-82,19,0,-78,-29,-29,-48
-9,-87,-78,48,34,-82,19,0,-82,-29,-29,-48
-9,-87,-78,48,34,-82,19,0,-87,-29,-29,-48
-9,-78,-68,43,29,-73,19,9,-87,-29,-19,-39
-9,-78,-68,43,29,-73,19,9,-87,-29,-19,-39
-9,-78,-68,43,29,-73,19,9,-87,-29,-19,-39
-9,-78,-68,43,29,-73,19,9,-87,-29,-19,-39
-19,-78,-58,48,19,-68,29,9,-87,-29,-19,-29
-19,-78,-58,48,19,-68,29,9,-87,-29,-19,-29
-19,-78,-58,48,19,-68,29,9,-87,-29,-19,-29
-19,-78,-58,48,19,-68,29,9,-87,-29,-19,-29
-24,-82,-58,53,17,-70,29,4,-97,-34,-29,-39
-29,-87,-58,58,14,-73,29,0,-97,-39,-29,-39
-34,-92,-58,63,12,-75,29,-4,-97,-43,-29,-39
-39,-97,-58,68,9,-78,29,-9,-97,-48,-29,-39
-29,-107,-78,68,24,-92,19,-9,-107,-53,-39,-48
-29,-107,-78,68,24,-92,19,-9,-107,-58,-39,-48
-29,-107,-78,68,24,-92,19,-9,-107,-63,-39,-48
-29,-107,-78,68,24,-92,19,-9,-107,-68,-39,-48
-29,-107,-78,68,24,-92,9,-9,-117,-58,-39,-48
-29,-107,-78,68,24,-92,9,-9,-117,-58,-39,-48
-29,-107,-78,68,24,-92,9,-9,-117,-58,-39,-48
-29,-107,-78,68,24,-92,9,-9,-117,-58,-39,-48
-19,-102,-82,61,31,-92,9,0,-117,-48,-29,-48
-19,-97,-78,58,29,-87,9,0,-117,-48,-29,-48
-19,-92,-73,56,26,-82,9,0,-117,-48,-29,-48
-19,-87,-68,53,24,-78,9,0,-117,-48,-29,-48
-29,-87,-58,58,14,-73,19,-9,-107,-39,-29,-39
-29,-87,-58,58,14,-73,19,-9,-107,-39,-29,-39
-29,-87,-58,58,14,-73,19,-9,-107,-39,-29,-39
-29,-87,-58,58,14,-73,19,-9,-107,-39,-29,-39
-34,-97,-63,65,14,-80,19,-9,-107,-29,-29,-39
-39,-97,-58,68,9,-78,19,-9,-102,-29,-29,-39
-43,-102,-58,73,7,-80,19,-9,-102,-29,-29,-39
-48,-102,-53,75,2,-78,19,-9,-102,-29,-29,-39
-48,-92,-43,70,-2,-68,19,-9,-107,-29,-24,-39
-43,-97,-53,70,4,-75,19,-9,-107,-29,-24,-39
-43,-102,-58,73,7,-80,19,-9,-107,-29,-24,-39
-48,-102,-53,75,2,-78,19,-9,-107,-29,-24,-39
-39,-102,-63,70,12,-82,19,-14,-107,-29,-34,-39
-39,-102,-63,70,12,-82,19,-14,-107,-29,-34,-43
-39,-102,-63,70,12,-82,19,-14,-107,-29,-34,-43
-39,-102,-63,70,12,-82,19,-14,-107,-29,-29,-43
-24,-92,-68,58,21,-80,4,-4,-117,-39,-29,-43
-24,-92,-68,58,21,-80,4,-4,-117,-39,-29,-43
-24,-92,-68,58,21,-80,4,-4,-117,-39,-29,-43
-24,-92,-68,58,21,-80,4,0,-117,-39,-29,-43
-24,-102,-78,63,26,-90,4,-9,-117,-39,-34,-43
-24,-102,-78,63,26,-90,4,-9,-117,-39,-34,-43
-24,-92,-68,58,21,-80,0,-4,-112,-39,-34,-43
-19,-73,-53,46,17,-63,0,0,-112,-39,-29,-39
-9,-78,-68,43,29,-73,-9,0,-122,-43,-34,-34
-9,-73,-63,41,26,-68,-9,0,-122,-43,-29,-34
-4,-73,-68,39,31,-70,-9,0,-112,-43,-24,-34
-4,-68,-63,36,29,-65,-9,0,-107,-34,-24,-34
4,-48,-53,21,29,-51,-4,9,-92,-24,-14,-24
9,-39,-48,14,29,-43,-4,9,-87,-14,-4,-19
24,-19,-43,-2,34,-31,-4,9,-78,-14,0,-4
29,0,-29,-14,29,-14,-4,9,-73,-4,4,-4
29,9,-19,-19,24,-4,-4,9,-73,4,14,0
29,24,-4,-26,17,9,-14,0,-63,9,19,4
29,34,4,-31,12,19,-14,-9,-63,14,24,14
29,39,9,-34,9,24,-14,-14,-58,19,24,19
24,29,4,-26,9,17,-4,-29,-53,24,29,19
19,43,24,-31,-2,34,-9,-34,-48,29,34,24
14,48,34,-31,-9,41,-9,-39,-43,34,39,29
9,48,39,-29,-14,43,-19,-43,-34,34,43,34
0,39,39,-19,-19,39,-19,-53,-34,29,39,34
-4,43,48,-19,-26,46,-24,-58,-34,29,39,34
-14,43,58,-14,-36,51,-24,-58,-34,29,39,29
-24,39,63,-7,-43,51,-29,-63,-34,29,39,24
-29,43,73,-7,-51,58,-29,-68,-34,24,43,24
-29,43,73,-7,-51,58,-29,-68,-34,24,43,29
-29,43,73,-7,-51,58,-29,-68,-34,24,48,29
-34,43,78,-4,-56,61,-29,-68,-34,24,48,29
-24,53,78,-14,-51,65,-34,-58,-29,34,58,39
-24,53,78,-14,-51,65,-34,-63,-24,34,58,43
-24,53,78,-14,-51,65,-34,-68,-19,34,58,43
-24,58,82,-17,-53,70,-34,-68,-14,34,63,43
-14,68,82,-26,-48,75,-34,-58,-9,34,73,58
-14,68,82,-26,-48,75,-34,-58,-4,34,73,58
-14,68,82,-26,-48,75,-39,-58,-4,34,73,58
-14,68,82,-26,-48,75,-39,-58,0,34,73,58
0,82,82,-41,-41,82,-39,-58,0,34,73,68
4,82,78,-43,-36,80,-39,-58,0,34,73,68
4,73,68,-39,-31,70,-39,-53,-9,34,73,58
4,68,63,-36,-29,65,-39,-43,-9,24,63,53
14,53,39,-34,-12,46,-34,-43,-14,19,48,39
14,43,29,-29,-7,36,-34,-39,-19,14,43,34
9,34,24,-21,-7,29,-24,-34,-24,9,39,29
4,24,19,-14,-7,21,-24,-29,-29,4,34,24
0,19,19,-9,-9,19,-29,-19,-34,0,19,14
-4,0,4,2,-4,2,-24,-14,-43,-9,9,0
-4,-14,-9,9,2,-12,-19,-9,-53,-19,9,-4
-9,-29,-19,19,4,-24,-14,-4,-63,-29,-4,-4
0,-29,-29,14,14,-29,-9,4,-63,-29,-9,-19
-9,-43,-34,26,12,-39,-4,4,-63,-29,-19,-19
-19,-53,-34,36,7,-43,4,14,-68,-34,-19,-29
-19,-63,-43,41,12,-53,9,14,-73,-39,-24,-34
-9,-68,-58,39,24,-63,0,14,-68,-43,-19,-24
-4,-63,-58,34,26,-61,-4,14,-73,-48,-24,-29
4,-63,-68,29,36,-65,-9,14,-73,-48,-29,-29
14,-63,-78,24,46,-70,-14,14,-73,-48,-29,-29
24,-58,-82,17,53,-70,-14,19,-82,-58,-39,-29
34,-53,-87,9,61,-70,-14,19,-82,-63,-39,-29
43,-53,-97,4,70,-75,-14,19,-82,-63,-39,-29
58,-58,-117,0,87,-87,-9,29,-87,-63,-39,-34
48,-58,-107,4,78,-82,0,29,-78,-63,-39,-34
48,-63,-112,7,80,-87,4,29,-82,-68,-39,-34
48,-63,-112,7,80,-87,4,29,-82,-68,-39,-34
48,-53,-102,2,75,-78,4,34,-82,-68,-43,-39
14,-68,-82,26,48,-75,19,29,-78,-78,-53,-39
-4,-82,-78,43,36,-80,24,24,-73,-82,-53,-39
-24,-97,-73,61,24,-85,29,19,-68,-87,-53,-39
-48,-112,-63,80,7,-87,34,9,-58,-92,-53,-39
-117,-122,-4,119,-56,-63,53,4,-19,-73,-34,-39
-126,-102,24,114,-75,-39,43,-14,19,-48,-19,-24
-131,-29,102,80,-117,36,24,-34,78,9,24,0
-126,97,224,14,-175,161,-24,-78,175,97,97,53
-97,268,366,-85,-231,317,-73,-126,297,219,185,117
-48,483,531,-217,-290,507,-151,-190,453,366,302,195
24,736,712,-380,-344,724,-244,-248,629,556,453,287
92,980,888,-536,-397,934,-331,-312,805,722,585,375
170,1190,1019,-680,-424,1105,-414,-356,956,888,712,453
248,1381,1132,-814,-441,1256,-483,-385,1078,1005,800,527
312,1542,1229,-927,-458,1385,-561,-434,1176,1117,883,585
395,1737,1342,-1066,-473,1539,-639,-483,1293,1244,1000,673
492,1956,1464,-1224,-485,1710,-736,-541,1410,1390,1156,810
590,2186,1595,-1388,-502,1891,-849,-590,1512,1546,1317,941
702,2376,1673,-1539,-485,2025,-951,-634,1595,1683,1483,1107
790,2557,1766,-1673,-488,2161,-1063,-697,1659,1810,1668,1283
824,2713,1888,-1769,-531,2300,-1146,-771,1698,1956,1864,1473
785,2776,1991,-1781,-602,2383,-1185,-849,1703,2074,2020,1639
722,2732,2010,-1727,-644,2371,-1185,-888,1659,2117,2093,1708
649,2644,1995,-1647,-673,2320,-1161,-907,1600,2113,2122,1722
570,2591,2020,-1581,-724,2305,-1132,-927,1576,2122,2142,1732
507,2576,2069,-1542,-780,2322,-1117,-936,1581,2161,2181,1756
444,2513,2069,-1478,-812,2291,-1083,-927,1546,2142,2171,1722
370,2322,1952,-1346,-790,2137,-1010,-883,1415,2005,2049,1639
292,2010,1717,-1151,-712,1864,-907,-800,1210,1771,1820,1464
190,1615,1424,-902,-617,1520,-746,-678,946,1439,1498,1215
87,1117,1029,-602,-470,1073,-551,-517,634,980,1015,883
-9,561,570,-275,-290,566,-331,-317,302,492,522,546
-58,131,190,-36,-124,161,-165,-151,53,122,170,283
-63,-126,-63,95,0,-95,-58,-39,-73,-78,-14,87
-63,-292,-229,178,82,-261,9,39,-151,-190,-97,9
-63,-375,-312,219,124,-344,43,92,-185,-253,-136,-68
-58,-395,-336,226,139,-366,58,117,-175,-268,-180,-112
-48,-390,-341,219,146,-366,68,122,-170,-278,-195,-122
-39,-356,-317,197,139,-336,58,131,-126,-268,-229,-141
-24,-307,-283,165,129,-295,63,131,-87,-244,-229,-122
-4,-297,-292,151,143,-295,58,141,-68,-224,-214,-107
0,-302,-302,151,151,-302,68,141,-48,-224,-200,-126
9,-302,-312,146,161,-307,68,136,-43,-224,-165,-141
0,-302,-302,151,151,-302,68,126,-29,-209,-146,-161
-14,-283,-268,148,126,-275,68,117,9,-190,-146,-161
-29,-248,-219,139,95,-234,68,92,19,-175,-146,-141
-34,-224,-190,129,78,-207,58,87,48,-156,-156,-126
-34,-204,-170,119,68,-187,53,73,48,-161,-165,-117
-39,-214,-175,126,68,-195,48,73,39,-165,-170,-102
-43,-248,-204,146,80,-226,58,82,29,-175,-161,-112
-43,-258,-214,151,85,-236,68,78,24,-185,-146,-136
-53,-278,-224,165,85,-251,73,82,19,-175,-126,-146
-58,-273,-214,165,78,-244,73,82,29,-175,-117,-165
-63,-234,-170,148,53,-202,63,73,58,-165,-126,-161
-63,-195,-131,129,34,-163,53,73,58,-146,-122,-131
-53,-146,-92,100,19,-119,48,73,78,-136,-131,-117
-48,-136,-87,92,19,-112,53,82,73,-136,-126,-87
-48,-146,-97,97,24,-122,63,82,43,-146,-107,-78
-43,-161,-117,102,36,-139,63,87,48,-156,-107,-97
-48,-175,-126,112,39,-151,78,97,29,-156,-87,-92
-53,-180,-126,117,36,-153,82,97,29,-146,-73,-117
-53,-151,-97,102,21,-124,73,87,48,-131,-82,-117
-53,-117,-63,85,4,-90,58,78,48,-126,-82,-97
-43,-107,-63,75,9,-85,53,73,68,-126,-102,-92
-43,-102,-58,73,7,-80,48,63,58,-126,-117,-78
-43,-131,-87,87,21,-109,58,63,29,-126,-112,-73
-43,-170,-126,107,41,-148,68,63,4,-146,-122,-112
-48,-219,-170,134,61,-195,68,63,-24,-161,-126,-136
-68,-253,-185,161,58,-219,78,53,-43,-165,-126,-161
-73,-244,-170,158,48,-207,68,34,-34,-165,-131,-170
-63,-209,-146,136,41,-178,53,9,-29,-161,-151,-170
-58,-195,-136,126,39,-165,43,9,-24,-146,-165,-161
-58,-190,-131,124,36,-161,43,9,-24,-151,-180,-151
-63,-195,-131,129,34,-163,53,9,-43,-151,-185,-146
-73,-244,-170,158,48,-207,73,19,-53,-161,-175,-146
-82,-253,-170,168,43,-212,78,29,-53,-161,-165,-161
-78,-258,-180,168,51,-219,82,34,-63,-156,-141,-161
-87,-248,-161,168,36,-204,92,34,-43,-146,-136,-175
-87,-209,-122,148,17,-165,82,34,-19,-131,-146,-170
-87,-195,-107,141,9,-151,73,24,-14,-122,-146,-141
-78,-161,-82,119,2,-122,68,19,0,-112,-165,-141
-73,-156,-82,114,4,-119,68,19,0,-112,-161,-112
-63,-175,-112,119,24,-143,73,29,-19,-122,-151,-102
-63,-185,-122,124,29,-153,87,48,-14,-117,-146,-131
-63,-190,-126,126,31,-158,87,53,-24,-122,-126,-126
-53,-195,-141,124,43,-168,87,58,-14,-112,-117,-146
-43,-175,-131,109,43,-153,78,48,9,-112,-126,-161
-43,-156,-112,100,34,-134,73,43,9,-102,-136,-141
-39,-136,-97,87,29,-117,63,29,24,-97,-141,-141
-29,-122,-92,75,31,-107,58,29,29,-92,-156,-122
-29,-126,-97,78,34,-112,58,48,19,-87,-146,-107
-14,-141,-126,78,56,-134,68,48,24,-97,-146,-126
-14,-151,-136,82,61,-143,78,58,14,-97,-117,-131
-24,-156,-131,90,53,-143,73,58,14,-97,-107,-141
-29,-156,-126,92,48,-141,73,58,34,-92,-107,-136
-29,-117,-87,73,29,-102,63,53,43,-82,-112,-136
-29,-97,-68,63,19,-82,53,43,48,-78,-122,-112
-24,-82,-58,53,17,-70,48,43,58,-73,-131,-107
-29,-82,-53,56,12,-68,48,43,48,-68,-131,-87
-29,-112,-82,70,26,-97,58,43,34,-78,-112,-97
-34,-117,-82,75,24,-100,63,48,34,-78,-112,-117
-39,-136,-97,87,29,-117,73,48,24,-73,-92,-117
-39,-131,-92,85,26,-112,63,48,34,-73,-87,-131
-39,-102,-63,70,12,-82,58,39,39,-82,-97,-141
-39,-97,-58,68,9,-78,58,34,43,-68,-102,-112
-34,-63,-29,48,-2,-46,48,34,53,-63,-117,-117
-34,-58,-24,46,-4,-41,43,29,58,-58,-117,-102
-29,-78,-48,53,9,-63,53,29,39,-58,-102,-82
-29,-87,-58,58,14,-73,58,39,34,-73,-87,-112
-39,-107,-68,73,14,-87,58,43,19,-68,-78,-107
-39,-112,-73,75,17,-92,68,43,29,-58,-73,-126
-39,-107,-68,73,14,-87,63,34,29,-58,-82,-126
-39,-87,-48,63,4,-68,53,34,48,-58,-87,-126
-34,-58,-24,46,-4,-41,43,24,53,-53,-97,-112
-34,-34,0,34,-17,-17,29,19,63,-48,-107,-112
-29,-29,0,29,-14,-14,39,24,58,-48,-97,-107
-29,-43,-14,36,-7,-29,39,29,43,-48,-87,-107
-24,-68,-43,46,9,-56,43,43,34,-48,-82,-117
-24,-82,-58,53,17,-70,43,53,29,-48,-68,-126
-24,-68,-43,46,9,-56,34,43,34,-48,-68,-122
-24,-39,-14,31,-4,-26,34,43,48,-48,-68,-122
-24,-9,14,17,-19,2,29,39,68,-39,-78,-117
-24,4,29,9,-26,17,24,29,78,-34,-82,-102
-24,-9,14,17,-19,2,34,39,63,-48,-82,-102
-24,-29,-4,26,-9,-17,34,39,53,-58,-82,-92
-24,-48,-24,36,0,-36,43,48,48,-63,-82,-112
-29,-63,-34,46,2,-48,43,53,39,-73,-73,-126
-34,-68,-34,51,0,-51,39,48,39,-63,-63,-131
-39,-53,-14,46,-12,-34,39,43,53,-63,-63,-141
-39,-34,4,36,-21,-14,39,34,68,-63,-63,-131
-39,-9,29,24,-34,9,29,24,73,-53,-73,-122
-24,-9,14,17,-19,2,34,29,63,-58,-82,-107
-24,-19,4,21,-14,-7,39,39,63,-63,-82,-92
-24,-29,-4,26,-9,-17,43,48,43,-73,-73,-102
-24,-43,-19,34,-2,-31,53,53,43,-78,-73,-117
-24,-43,-19,34,-2,-31,63,58,58,-63,-63,-117
-14,-34,-19,24,2,-26,63,58,68,-53,-63,-122
-14,-9,4,12,-9,-2,63,53,92,-48,-68,-122
-14,19,34,-2,-24,26,53,53,97,-43,-78,-107
-19,14,34,2,-26,24,58,39,112,-34,-97,-102
-24,9,34,7,-29,21,58,39,112,-34,-97,-102
-29,-9,19,19,-24,4,68,48,112,-34,-97,-102
-43,-39,4,41,-24,-17,78,53,107,-48,-97,-112
-53,-43,9,48,-31,-17,82,58,117,-48,-97,-126
-58,-48,9,53,-34,-19,82,58,126,-48,-97,-141
-63,-48,14,56,-39,-17,82,53,146,-48,-107,-141
-63,-29,34,46,-48,2,73,53,161,-43,-112,-136
-58,-9,48,34,-53,19,68,63,175,-43,-126,-126
-43,-9,34,26,-39,12,63,63,180,-43,-141,-122
-34,-24,9,29,-21,-7,58,68,175,-43,-141,-122
-24,-48,-24,36,0,-36,63,82,165,-48,-131,-122
-19,-63,-43,41,12,-53,58,92,156,-58,-131,-131
-14,-73,-58,43,21,-65,63,97,146,-58,-131,-141
-14,-68,-53,41,19,-61,63,97,146,-58,-141,-156
-14,-63,-48,39,17,-56,63,92,146,-53,-156,-156
-9,-63,-53,36,21,-58,53,92,136,-58,-165,-151
-14,-63,-48,39,17,-56,53,92,131,-63,-175,-151
-14,-73,-58,43,21,-65,58,92,117,-68,-185,-141
-9,-97,-87,53,39,-92,63,97,87,-82,-185,-151
-34,-112,-78,73,21,-95,87,102,73,-87,-195,-175
-48,-141,-92,95,21,-117,92,102,53,-92,-195,-180
-48,-156,-107,102,29,-131,97,102,39,-97,-200,-195
-43,-156,-112,100,34,-134,97,97,34,-92,-204,-195
-53,-146,-92,100,19,-119,97,92,24,-87,-219,-200
-53,-146,-92,100,19,-119,97,92,14,-97,-244,-200
-53,-146,-92,100,19,-119,97,92,-9,-97,-248,-190
-53,-175,-122,114,34,-148,102,97,-43,-102,-248,-190
-58,-209,-151,134,46,-180,117,107,-78,-112,-244,-190
-68,-234,-165,151,48,-200,126,112,-97,-117,-239,-204
-73,-258,-185,165,56,-222,131,112,-122,-122,-234,-219
-78,-258,-180,168,51,-219,131,112,-136,-122,-244,-239
-82,-263,-180,173,48,-222,131,107,-156,-117,-263,-224
-87,-263,-175,175,43,-219,136,107,-180,-112,-273,-209
-92,-278,-185,185,46,-231,136,107,-209,-112,-283,-195
-92,-292,-200,192,53,-246,136,112,-248,-112,-287,-190
-102,-322,-219,212,58,-270,151,107,-297,-112,-278,-209
-112,-346,-234,229,61,-290,156,107,-331,-122,-278,-229
-117,-380,-263,248,73,-322,161,107,-361,-131,-278,-239
-117,-380,-263,248,73,-322,161,107,-375,-141,-278,-239
-107,-366,-258,236,75,-312,151,107,-385,-151,-292,-234
-107,-361,-253,234,73,-307,146,107,-405,-151,-302,-224
-107,-361,-253,234,73,-307,146,107,-419,-151,-307,-214
-107,-366,-258,236,75,-312,146,107,-439,-156,-307,-200
-102,-380,-278,241,87,-329,151,97,-453,-170,-302,-195
-102,-395,-292,248,95,-344,151,107,-463,-180,-292,-214
-102,-405,-302,253,100,-353,151,107,-463,-185,-283,-219
-102,-405,-302,253,100,-353,146,107,-463,-185,-283,-244
-107,-380,-273,244,82,-326,141,97,-439,-170,-292,-234
-107,-361,-253,234,73,-307,131,92,-429,-165,-297,-224
-112,-351,-239,231,63,-295,131,87,-419,-161,-297,-209
-117,-356,-239,236,61,-297,126,82,-419,-151,-287,-200
-117,-361,-244,239,63,-302,126,82,-409,-151,-273,-204
-112,-361,-248,236,68,-305,126,82,-400,-141,-253,-204
-112,-361,-248,236,68,-305,122,82,-390,-131,-234,-204
-107,-346,-239,226,65,-292,117,82,-370,-117,-214,-204
-112,-312,-200,212,43,-256,117,68,-341,-107,-200,-195
-117,-273,-156,195,19,-214,112,53,-322,-87,-195,-175
-117,-248,-131,183,7,-190,97,53,-292,-73,-190,-156
-112,-229,-117,170,2,-173,87,48,-278,-53,-180,-141
-122,-224,-102,173,-9,-163,97,48,-273,-48,-156,-122
-122,-224,-102,173,-9,-163,92,48,-268,-48,-131,-122
-112,-224,-112,168,0,-168,92,53,-258,-43,-107,-122
-112,-214,-102,163,-4,-158,92,53,-248,-39,-82,-122
-97,-190,-92,143,-2,-141,73,43,-229,-43,-78,-117
-92,-151,-58,122,-17,-104,68,39,-204,-43,-73,-107
-92,-112,-19,102,-36,-65,53,29,-180,-34,-68,-87
-87,-73,14,80,-51,-29,53,24,-161,-24,-68,-78
-68,-68,0,68,-34,-34,48,24,-170,-39,-53,-78
-48,-63,-14,56,-17,-39,43,24,-165,-48,-43,-82
-39,-58,-19,48,-9,-39,34,24,-165,-68,-34,-92
-19,-53,-34,36,7,-43,29,19,-165,-87,-19,-97
0,-29,-29,14,14,-29,19,9,-170,-102,-24,-97
14,-4,-19,-4,17,-12,0,0,-161,-107,-29,-97
29,24,-4,-26,17,9,-14,-14,-151,-117,-34,-92
43,43,0,-43,21,21,-34,-24,-136,-122,-39,-92
53,43,-9,-48,31,17,-39,-24,-146,-136,-48,-78
53,43,-9,-48,31,17,-39,-24,-151,-151,-39,-78
53,39,-14,-46,34,12,-43,-14,-156,-165,-34,-78
58,39,-19,-48,39,9,-43,-14,-156,-180,-19,-78
58,43,-14,-51,36,14,-43,-14,-161,-195,-19,-78
58,58,0,-58,29,29,-48,-14,-146,-214,-19,-78
53,73,19,-63,17,46,-53,-19,-151,-229,-24,-68
48,78,29,-63,9,53,-53,-19,-151,-248,-24,-63
39,73,34,-56,2,53,-43,-19,-151,-268,-19,-58
34,68,34,-51,0,51,-43,-19,-151,-278,-19,-58
29,63,34,-46,-2,48,-43,-19,-151,-287,-19,-58
29,58,29,-43,0,43,-48,-24,-156,-302,-19,-53
19,58,39,-39,-9,48,-39,-29,-146,-312,-14,-53
14,58,43,-36,-14,51,-39,-24,-146,-322,-14,-48
9,53,43,-31,-17,48,-39,-19,-151,-336,-14,-48
9,48,39,-29,-14,43,-39,-14,-151,-346,-14,-48
14,39,24,-26,-4,31,-48,-14,-146,-346,-24,-48
14,48,34,-31,-9,41,-48,-14,-141,-351,-19,-48
14,53,39,-34,-12,46,-48,-14,-126,-351,-19,-48
14,63,48,-39,-17,56,-53,-14,-122,-356,-19,-48
9,63,53,-36,-21,58,-53,-29,-122,-361,-29,-48
4,63,58,-34,-26,61,-53,-29,-122,-366,-29,-48
0,63,63,-31,-31,63,-53,-24,-117,-370,-34,-48
-14,63,78,-24,-46,70,-53,-24,-112,-370,-34,-48
-24,53,78,-14,-51,65,-53,-34,-107,-366,-34,-48
-34,48,82,-7,-58,65,-53,-34,-92,-366,-34,-48
-34,48,82,-7,-58,65,-58,-34,-87,-366,-29,-48
-34,53,87,-9,-61,70,-63,-43,-82,-366,-29,-43
-48,34,82,7,-65,58,-48,-34,-78,-351,-24,-43
-53,19,73,17,-63,46,-43,-34,-73,-336,-24,-43
-58,4,63,26,-61,34,-34,-34,-68,-322,-24,-43
-58,-9,48,34,-53,19,-29,-34,-63,-307,-24,-43
-73,-53,19,63,-46,-17,-19,-29,-53,-283,-24,-34
-78,-68,9,73,-43,-29,-9,-29,-43,-258,-24,-34
-73,-82,-9,78,-31,-46,0,-24,-34,-234,-24,-34
-78,-87,-9,82,-34,-48,9,-19,-19,-209,-24,-34
-87,-107,-19,97,-34,-63,24,-4,-14,-180,-14,-24
-87,-122,-34,104,-26,-78,24,0,-9,-165,-14,-24
-92,-141,-48,117,-21,-95,29,4,-4,-151,-14,-19
-92,-161,-68,126,-12,-114,34,9,0,-136,-9,-19
-102,-165,-63,134,-19,-114,34,4,0,-122,-19,-14
-102,-170,-68,136,-17,-119,39,9,0,-117,-19,-14
-97,-170,-73,134,-12,-122,39,9,4,-107,-19,-14
-97,-170,-73,134,-12,-122,39,9,4,-102,-19,-14
-87,-165,-78,126,-4,-122,39,9,14,-107,-19,-4
-87,-161,-73,124,-7,-117,43,14,14,-107,-19,-4
-87,-165,-78,126,-4,-122,43,14,9,-102,-19,-4
-87,-161,-73,124,-7,-117,43,14,9,-102,-19,0
-78,-156,-78,117,0,-117,43,14,14,-112,-19,-9
-78,-151,-73,114,-2,-112,43,14,14,-112,-14,-14
-78,-141,-63,109,-7,-102,53,14,14,-112,-14,-14
-78,-126,-48,102,-14,-87,53,14,14,-112,-14,-14
-73,-107,-34,90,-19,-70,43,4,19,-102,-19,-4
-73,-102,-29,87,-21,-65,43,4,19,-102,-19,-4
-68,-97,-29,82,-19,-63,48,9,19,-102,-19,-4
-63,-97,-34,80,-14,-65,48,9,24,-102,-19,-4
-53,-92,-39,73,-7,-65,48,0,19,-87,-14,-4
-53,-87,-34,70,-9,-61,48,0,19,-87,-14,-9
-53,-78,-24,65,-14,-51,48,0,19,-82,-14,-9
-53,-63,-9,58,-21,-36,48,0,19,-78,-14,-4
-43,-53,-9,48,-17,-31,58,9,9,-63,-14,4
-39,-53,-14,46,-12,-34,58,9,9,-63,-14,4
-34,-53,-19,43,-7,-36,53,4,9,-63,-19,4
-34,-58,-24,46,-4,-41,53,4,9,-63,-19,4
-29,-53,-24,41,-2,-39,53,-4,-4,-68,-29,-9
-29,-53,-24,41,-2,-39,53,-4,-9,-68,-29,-9
-29,-43,-14,36,-7,-29,53,-4,-14,-63,-29,-14
-24,-34,-9,29,-7,-21,53,-4,-19,-58,-24,-14
-14,-43,-29,29,7,-36,43,-9,-24,-58,-39,-24
-14,-43,-29,29,7,-36,43,-4,-29,-58,-43,-24
-19,-43,-24,31,2,-34,48,-4,-39,-58,-48,-24
-19,-48,-29,34,4,-39,48,0,-53,-58,-53,-24
-19,-48,-29,34,4,-39,43,-4,-53,-68,-63,-29
-14,-48,-34,31,9,-41,48,-4,-53,-68,-63,-34
-9,-48,-39,29,14,-43,48,-4,-48,-68,-68,-39
-4,-43,-39,24,17,-41,48,-4,-48,-73,-68,-43
0,-34,-34,17,17,-34,48,4,-39,-63,-58,-34
4,-34,-39,14,21,-36,48,0,-39,-63,-58,-34
9,-34,-43,12,26,-39,43,-4,-43,-63,-58,-34
14,-34,-48,9,31,-41,43,-4,-43,-63,-58,-34
29,-24,-53,-2,41,-39,43,0,-34,-63,-58,-24
34,-24,-58,-4,46,-41,39,4,-34,-63,-63,-24
39,-24,-63,-7,51,-43,39,9,-29,-63,-58,-24
43,-24,-68,-9,56,-46,43,14,-19,-58,-53,-24
53,-9,-63,-21,58,-36,34,14,-14,-68,-48,-24
68,-4,-73,-31,70,-39,34,19,-14,-68,-48,-24
73,0,-73,-36,73,-36,29,24,-9,-68,-43,-29
68,4,-63,-36,65,-29,29,29,-4,-68,-39,-29
68,-4,-73,-31,70,-39,24,24,4,-78,-48,-34
63,-4,-68,-29,65,-36,19,24,-4,-82,-48,-34
63,-9,-73,-26,68,-41,14,29,-9,-87,-53,-34
63,-9,-73,-26,68,-41,9,29,-9,-92,-53,-34
48,-24,-73,-12,61,-48,0,29,-9,-97,-53,-43
43,-29,-73,-7,58,-51,0,24,-9,-102,-53,-43
39,-34,-73,-2,56,-53,4,14,-4,-107,-48,-43
34,-39,-73,2,53,-56,4,4,-4,-107,-48,-43
24,-48,-73,12,48,-61,-4,-4,-14,-97,-58,-53
14,-53,-68,19,41,-61,-4,-4,-19,-107,-58,-53
4,-68,-73,31,39,-70,-4,0,-19,-107,-63,-53
0,-73,-73,36,36,-73,-4,0,-19,-107,-63,-53
-4,-73,-68,39,31,-70,-4,0,-29,-102,-73,-58
-9,-78,-68,43,29,-73,-4,0,-29,-102,-73,-58
-14,-87,-73,51,29,-80,-4,0,-29,-102,-73,-58
-19,-92,-73,56,26,-82,-4,0,-29,-102,-73,-58
-19,-102,-82,61,31,-92,4,4,-43,-92,-73,-68
-24,-107,-82,65,29,-95,4,9,-48,-97,-73,-68
-29,-122,-92,75,31,-107,4,9,-53,-97,-73,-68
-39,-126,-87,82,24,-107,4,9,-53,-102,-73,-68
-43,-136,-92,90,24,-114,14,9,-53,-92,-73,-68
-58,-141,-82,100,12,-112,14,4,-53,-92,-78,-68
-63,-141,-78,102,7,-109,19,4,-53,-92,-78,-73
-68,-151,-82,109,7,-117,19,4,-53,-92,-78,-78
-68,-151,-82,109,7,-117,29,0,-53,-92,-78,-68
-68,-146,-78,107,4,-112,29,0,-58,-92,-78,-68
-68,-146,-78,107,4,-112,29,0,-58,-92,-78,-68
-68,-141,-73,104,2,-107,34,0,-58,-92,-82,-68
-53,-131,-78,92,12,-104,34,-9,-58,-92,-82,-68
-58,-131,-73,95,7,-102,34,-9,-58,-92,-82,-68
-53,-131,-78,92,12,-104,29,-9,-58,-92,-78,-68
-43,-126,-82,85,19,-104,29,-9,-58,-92,-78,-68
-24,-122,-97,73,36,-109,24,-9,-58,-92,-78,-73
-14,-117,-102,65,43,-109,19,-4,-63,-92,-78,-73
-4,-117,-112,61,53,-114,14,-4,-63,-92,-78,-73
0,-112,-112,56,56,-112,9,-4,-63,-92,-78,-73
9,-117,-126,53,68,-122,0,4,-63,-92,-87,-82
14,-112,-126,48,70,-119,0,4,-63,-87,-87,-82
19,-107,-126,43,73,-117,0,4,-63,-87,-87,-82
24,-107,-131,41,78,-119,0,4,-63,-87,-87,-78
24,-107,-131,41,78,-119,0,14,-58,-82,-82,-78
24,-107,-131,41,78,-119,4,14,-53,-78,-82,-73
24,-107,-131,41,78,-119,4,14,-48,-73,-82,-68
24,-112,-136,43,80,-124,4,9,-43,-68,-82,-63
14,-117,-131,51,73,-124,4,9,-43,-68,-82,-68
9,-122,-131,56,70,-126,9,9,-43,-68,-82,-68
9,-126,-136,58,73,-131,14,9,-43,-68,-82,-68
9,-131,-141,61,75,-136,19,9,-43,-68,-82,-63
-4,-131,-126,68,61,-129,29,9,-43,-78,-82,-53
-4,-131,-126,68,61,-129,29,9,-43,-78,-82,-53
-9,-131,-122,70,56,-126,29,9,-43,-78,-82,-53
-14,-136,-122,75,53,-129,29,9,-43,-78,-82,-53
-9,-126,-117,68,53,-122,29,0,-43,-78,-82,-43
-4,-126,-122,65,58,-124,34,0,-43,-78,-82,-43
-4,-126,-122,65,58,-124,34,0,-43,-78,-78,-43
0,-122,-122,61,61,-122,34,0,-43,-78,-78,-43
9,-112,-122,51,65,-117,34,4,-34,-82,-68,-43
9,-112,-122,51,65,-117,29,4,-34,-82,-68,-48
9,-112,-122,51,65,-117,24,4,-34,-87,-68,-53
9,-112,-122,51,65,-117,19,4,-34,-87,-73,-58
9,-112,-122,51,65,-117,19,4,-34,-87,-63,-58
4,-112,-117,53,61,-114,19,4,-29,-87,-63,-58
4,-112,-117,53,61,-114,14,4,-24,-87,-63,-53
4,-107,-112,51,58,-109,14,4,-19,-82,-63,-48
-4,-107,-102,56,48,-104,24,4,-19,-73,-58,-48
0,-107,-107,53,53,-107,19,4,-24,-73,-58,-43
0,-107,-107,53,53,-107,19,4,-24,-73,-53,-43
0,-107,-107,53,53,-107,19,4,-24,-73,-53,-43
4,-107,-112,51,58,-109,29,4,-14,-82,-53,-43
4,-107,-112,51,58,-109,29,4,-14,-82,-53,-43
4,-107,-112,51,58,-109,29,4,-14,-78,-53,-43
4,-107,-112,51,58,-109,29,4,-14,-78,-53,-43
4,-107,-112,51,58,-109,29,4,-4,-68,-53,-43
4,-102,-107,48,56,-104,24,4,-4,-63,-48,-43
4,-97,-102,46,53,-100,24,4,-4,-63,-48,-43
4,-97,-102,46,53,-100,24,4,-4,-68,-53,-43
4,-87,-92,41,48,-90,29,4,4,-68,-53,-48
4,-87,-92,41,48,-90,29,4,4,-68,-53,-48
9,-87,-97,39,53,-92,29,4,4,-68,-53,-53
9,-78,-87,34,48,-82,29,9,9,-58,-48,-48
9,-87,-97,39,53,-92,19,0,9,-68,-58,-48
9,-87,-97,39,53,-92,19,0,9,-68,-58,-48
9,-87,-97,39,53,-92,19,0,9,-68,-58,-48
9,-87,-97,39,53,-92,19,0,9,-68,-58,-48
0,-97,-97,48,48,-97,9,-9,9,-68,-58,-58
0,-97,-97,48,48,-97,9,-9,9,-68,-58,-58
0,-97,-97,48,48,-97,9,-9,9,-68,-58,-58
0,-97,-97,48,48,-97,9,-9,9,-68,-58,-58
9,-82,-92,36,51,-87,4,0,19,-58,-48,-48
19,-78,-97,29,58,-87,0,0,19,-58,-48,-48
29,-73,-102,21,65,-87,-4,0,19,-58,-48,-48
39,-68,-107,14,73,-87,-9,0,19,-58,-48,-48
43,-63,-107,9,75,-85,-9,9,29,-48,-39,-39
48,-58,-107,4,78,-82,-9,9,29,-48,-39,-39
53,-53,-107,0,80,-80,-9,9,29,-48,-39,-39
58,-48,-107,-4,82,-78,-9,9,29,-48,-39,-39
43,-53,-97,4,70,-75,0,0,19,-48,-39,-43
39,-58,-97,9,68,-78,0,0,19,-48,-39,-48
34,-63,-97,14,65,-80,0,0,19,-48,-39,-53
29,-68,-97,19,63,-82,0,0,19,-48,-39,-58
19,-82,-102,31,61,-92,9,-4,9,-53,-43,-68
9,-97,-107,43,58,-102,9,-9,9,-58,-48,-68
0,-112,-112,56,56,-112,9,-14,9,-63,-53,-68
-9,-126,-117,68,53,-122,9,-19,9,-68,-58,-68
-24,-131,-107,78,41,-119,9,-29,9,-68,-58,-68
-29,-136,-107,82,39,-122,9,-29,9,-68,-58,-68
-34,-141,-107,87,36,-124,9,-29,9,-68,-58,-68
-39,-146,-107,92,34,-126,9,-29,9,-68,-58,-68
-34,-141,-107,87,36,-124,19,-19,19,-58,-48,-58
-29,-136,-107,82,39,-122,19,-19,19,-58,-48,-58
-24,-131,-107,78,41,-119,19,-19,19,-58,-48,-58
-19,-126,-107,73,43,-117,19,-19,19,-58,-48,-58
-9,-117,-107,63,48,-112,19,-9,29,-58,-39,-58
-9,-117,-107,63,48,-112,19,-9,29,-58,-39,-58
-9,-117,-107,63,48,-112,19,-9,29,-58,-39,-58
-9,-117,-107,63,48,-112,19,-9,29,-58,-39,-58
-9,-107,-97,58,43,-102,19,-9,19,-58,-48,-58
-9,-107,-97,58,43,-102,19,-9,19,-58,-48,-58
-9,-107,-97,58,43,-102,19,-9,19,-58,-48,-58
-9,-107,-97,58,43,-102,19,-9,19,-58,-48,-58
0,-107,-107,53,53,-107,19,0,29,-58,-48,-58
0,-107,-107,53,53,-107,19,0,29,-58,-48,-58
0,-107,-107,53,53,-107,19,0,29,-58,-48,-58
0,-107,-107,53,53,-107,19,0,29,-58,-48,-58
9,-97,-107,43,58,-102,9,0,34,-58,-39,-48
9,-102,-112,46,61,-107,9,0,34,-58,-39,-48
9,-102,-112,46,61,-107,9,0,34,-58,-39,-48
9,-102,-112,46,61,-107,9,0,29,-58,-43,-48
24,-97,-122,36,73,-109,9,0,29,-58,-43,-48
24,-102,-126,39,75,-114,9,0,29,-58,-43,-48
19,-102,-122,41,70,-112,9,0,29,-58,-43,-48
19,-102,-122,41,70,-112,9,-4,29,-58,-43,-48
19,-112,-131,46,75,-122,19,4,29,-68,-53,-43
19,-112,-131,46,75,-122,19,4,29,-68,-53,-43
19,-112,-131,46,75,-122,19,4,29,-68,-48,-43
24,-112,-136,43,80,-124,14,4,29,-68,-48,-43
24,-102,-126,39,75,-114,14,4,29,-58,-48,-43
24,-102,-126,39,75,-114,14,4,29,-58,-48,-43
24,-102,-126,39,75,-114,14,9,29,-58,-48,-43
24,-102,-126,39,75,-114,14,9,29,-58,-53,-43
34,-112,-146,39,90,-129,24,9,39,-58,-43,-43
34,-102,-136,34,85,-119,19,14,43,-58,-43,-43
39,-82,-122,21,80,-102,19,19,43,-58,-39,-39
39,-78,-117,19,78,-97,19,19,43,-53,-34,-34
29,-82,-112,26,70,-97,9,9,43,-43,-39,-43
34,-82,-117,24,75,-100,9,9,53,-43,-34,-43
34,-78,-112,21,73,-95,9,9,58,-34,-34,-43
39,-73,-112,17,75,-92,4,9,63,-34,-34,-43
34,-78,-112,21,73,-95,4,0,58,-24,-24,-48
39,-63,-102,12,70,-82,4,0,68,-24,-19,-34
34,-48,-82,7,58,-65,4,0,73,-14,-14,-34
29,-39,-68,4,48,-53,4,0,82,-4,-4,-29
19,-29,-48,4,34,-39,4,0,82,-9,4,-14
19,-24,-43,2,31,-34,4,-9,82,-4,14,-4
19,-24,-43,2,31,-34,4,-14,87,0,19,0
19,-29,-48,4,34,-39,4,-19,92,4,29,0
19,-19,-39,0,29,-29,0,-14,87,9,43,9
19,-19,-39,0,29,-29,0,-19,92,14,48,19
19,-24,-43,2,31,-34,-9,-24,102,14,53,29
19,-24,-43,2,31,-34,-9,-24,102,19,58,39
24,-4,-29,-9,26,-17,-14,-29,102,29,58,34
24,0,-24,-12,24,-12,-14,-29,102,29,58,34
24,0,-24,-12,24,-12,-19,-34,102,29,58,34
19,-4,-24,-7,21,-14,-19,-39,102,34,63,34
24,9,-14,-17,19,-2,-34,-48,97,24,63,39
29,24,-4,-26,17,9,-39,-48,92,24,68,39
29,39,9,-34,9,24,-43,-48,87,24,68,39
34,53,19,-43,7,36,-53,-48,82,24,68,39
39,92,53,-65,-7,73,-73,-58,73,14,53,39
43,122,78,-82,-17,100,-82,-68,63,4,48,34
48,156,107,-102,-29,131,-92,-73,53,-4,48,29
53,185,131,-119,-39,158,-102,-78,43,-14,43,29
58,239,180,-148,-61,209,-117,-92,9,-39,19,4
63,292,229,-178,-82,261,-136,-107,-19,-53,4,-9
68,346,278,-207,-104,312,-151,-122,-43,-68,-9,-24
78,405,326,-241,-124,366,-165,-136,-68,-82,-24,-39
82,439,356,-261,-136,397,-180,-151,-97,-87,-43,-48
82,453,370,-268,-143,412,-185,-151,-126,-92,-53,-68
82,473,390,-278,-153,431,-190,-146,-146,-107,-73,-82
82,492,409,-287,-163,451,-190,-151,-170,-117,-87,-97
68,458,390,-263,-161,424,-175,-146,-204,-102,-82,-102
58,424,366,-241,-153,395,-161,-141,-229,-97,-87,-107
48,390,341,-219,-146,366,-156,-136,-253,-92,-92,-112
39,351,312,-195,-136,331,-146,-136,-278,-87,-107,-122
14,273,258,-143,-122,265,-117,-122,-307,-82,-107,-117
4,209,204,-107,-100,207,-97,-107,-326,-78,-97,-112
-9,146,156,-68,-82,151,-78,-92,-346,-73,-102,-102
-19,87,107,-34,-63,97,-58,-82,-366,-68,-97,-107
-39,43,82,-2,-61,63,-39,-78,-390,-58,-97,-92
-48,4,53,21,-51,29,-24,-63,-409,-63,-87,-97
-48,-34,14,41,-31,-9,-14,-58,-429,-68,-82,-97
-48,-73,-24,61,-12,-48,-4,-53,-448,-73,-78,-92
-48,-68,-19,58,-14,-43,-4,-48,-468,-87,-78,-87
-43,-68,-24,56,-9,-46,-4,-43,-473,-87,-78,-87
-39,-68,-29,53,-4,-48,-4,-39,-478,-87,-73,-87
-34,-63,-29,48,-2,-46,-4,-29,-483,-87,-68,-87
-24,-63,-39,43,7,-51,0,-24,-473,-78,-63,-82
-24,-68,-43,46,9,-56,4,-19,-473,-73,-58,-78
-19,-78,-58,48,19,-68,14,-4,-478,-68,-53,-78
-19,-78,-58,48,19,-68,19,0,-478,-63,-48,-73
-19,-92,-73,56,26,-82,34,9,-483,-63,-48,-63
-19,-102,-82,61,31,-92,34,9,-483,-58,-48,-63
-19,-102,-82,61,31,-92,34,14,-483,-53,-53,-68
-24,-112,-87,68,31,-100,34,14,-483,-43,-53,-68
-14,-151,-136,82,61,-143,43,24,-473,-34,-53,-58
-14,-151,-136,82,61,-143,43,24,-463,-24,-63,-68
-19,-161,-141,90,61,-151,43,19,-448,-14,-53,-58
-19,-161,-141,90,61,-151,43,24,-419,14,-43,-48
-19,-122,-102,70,41,-112,34,24,-390,48,-19,-34
-14,-58,-43,36,14,-51,14,14,-331,107,34,9
9,58,48,-34,-19,53,-34,-19,-244,204,97,53
29,229,200,-129,-85,214,-73,-48,-122,326,195,126
58,444,385,-251,-163,414,-131,-102,34,483,322,214
112,678,566,-395,-226,622,-224,-161,209,663,473,307
161,902,741,-531,-290,822,-302,-214,375,839,614,395
229,1112,883,-671,-326,997,-375,-258,517,976,732,483
297,1273,976,-785,-339,1124,-444,-297,629,1093,829,556
351,1434,1083,-893,-366,1259,-502,-326,727,1195,922,624
414,1610,1195,-1012,-390,1403,-580,-385,834,1312,1039,712
492,1839,1346,-1166,-427,1593,-678,-463,941,1449,1195,839
580,2059,1478,-1320,-448,1769,-780,-531,1054,1586,1356,980
683,2269,1586,-1476,-451,1927,-893,-585,1137,1712,1522,1137
780,2459,1678,-1620,-448,2069,-1015,-658,1210,1839,1708,1312
834,2625,1790,-1729,-478,2208,-1107,-741,1268,1976,1903,1503
805,2698,1893,-1751,-544,2296,-1166,-839,1283,2074,2059,1659
751,2664,1912,-1708,-580,2288,-1166,-888,1239,2088,2122,1727
668,2566,1898,-1617,-614,2232,-1141,-907,1180,2074,2142,1732
580,2513,1932,-1546,-675,2222,-1112,-927,1166,2074,2161,1732
507,2508,2000,-1507,-746,2254,-1098,-946,1180,2093,2181,1747
453,2474,2020,-1464,-783,2247,-1063,-936,1176,2083,2161,1722
390,2303,1912,-1346,-761,2108,-980,-883,1073,1947,2039,1620
322,2020,1698,-1171,-688,1859,-878,-790,888,1722,1830,1464
239,1644,1405,-941,-583,1525,-736,-668,644,1390,1507,1215
136,1146,1010,-641,-436,1078,-531,-507,331,932,1024,873
48,600,551,-324,-251,575,-312,-307,0,434,522,517
9,170,161,-90,-75,165,-146,-141,-268,82,151,244
4,-87,-92,41,48,-90,-48,-39,-385,-117,-53,48
4,-244,-248,119,126,-246,19,39,-473,-229,-136,-39
24,-317,-341,146,183,-329,43,92,-488,-263,-175,-117
29,-336,-366,153,197,-351,48,117,-478,-278,-219,-151
29,-331,-361,151,195,-346,58,122,-473,-268,-224,-151
39,-307,-346,134,192,-326,48,122,-448,-248,-239,-170
43,-268,-312,112,178,-290,43,122,-429,-234,-239,-170
53,-268,-322,107,187,-295,48,122,-429,-195,-234,-165
48,-273,-322,112,185,-297,48,122,-419,-185,-229,-185
48,-273,-322,112,185,-297,58,126,-405,-165,-214,-200
39,-263,-302,112,170,-283,58,117,-380,-151,-195,-209
24,-234,-258,104,141,-246,58,97,-351,-141,-185,-219
29,-180,-209,75,119,-195,48,73,-331,-107,-175,-190
24,-156,-180,65,102,-168,39,68,-312,-97,-175,-175
24,-126,-151,51,87,-139,34,53,-302,-92,-185,-165
29,-136,-165,53,97,-151,39,53,-312,-87,-190,-151
34,-161,-195,63,114,-178,39,63,-331,-97,-180,-161
24,-170,-195,73,109,-183,48,58,-336,-97,-175,-175
24,-200,-224,87,124,-212,53,63,-331,-97,-165,-175
9,-185,-195,87,102,-190,53,63,-312,-87,-165,-195
4,-146,-151,70,78,-148,43,53,-292,-87,-156,-190
4,-126,-131,61,68,-129,43,43,-283,-78,-151,-161
4,-97,-102,46,53,-100,39,34,-273,-87,-170,-165
0,-107,-107,53,53,-107,43,34,-287,-97,-175,-146
-19,-136,-117,78,48,-126,53,43,-307,-107,-165,-146
-24,-161,-136,92,56,-148,63,39,-302,-126,-175,-175
-39,-185,-146,112,53,-165,68,48,-312,-126,-165,-170
-63,-200,-136,131,36,-168,82,48,-302,-126,-161,-195
-73,-170,-97,122,12,-134,73,39,-283,-112,-151,-195
-63,-146,-82,104,9,-114,58,29,-283,-117,-151,-165
-53,-117,-63,85,4,-90,53,34,-263,-117,-151,-170
-43,-112,-68,78,12,-90,48,34,-263,-117,-156,-156
-43,-141,-97,92,26,-119,48,34,-283,-126,-161,-151
-43,-170,-126,107,41,-148,58,43,-297,-146,-161,-161
-48,-190,-141,119,46,-165,68,53,-307,-151,-146,-165
-48,-204,-156,126,53,-180,68,63,-307,-156,-146,-180
-53,-185,-131,119,39,-158,68,63,-278,-146,-131,-180
-43,-151,-107,97,31,-129,53,58,-263,-131,-131,-170
-29,-126,-97,78,34,-112,43,48,-258,-126,-126,-151
0,-102,-102,51,51,-102,24,58,-248,-131,-131,-141
24,-87,-112,31,68,-100,34,58,-258,-131,-136,-126
43,-107,-151,31,97,-129,43,78,-268,-131,-126,-126
63,-117,-180,26,122,-148,48,87,-278,-151,-126,-151
58,-141,-200,41,129,-170,53,82,-278,-146,-112,-151
58,-131,-190,36,124,-161,53,73,-268,-136,-117,-175
58,-112,-170,26,114,-141,43,63,-253,-131,-126,-180
58,-107,-165,24,112,-136,34,43,-258,-122,-136,-161
58,-92,-151,17,104,-122,29,29,-253,-122,-146,-170
63,-97,-161,17,112,-129,29,19,-263,-131,-161,-151
73,-117,-190,21,131,-153,43,29,-292,-141,-151,-161
53,-136,-190,41,122,-163,48,29,-287,-146,-165,-190
43,-170,-214,63,129,-192,58,24,-297,-151,-156,-185
14,-195,-209,90,112,-202,68,29,-297,-151,-156,-214
-14,-195,-180,104,82,-187,68,9,-283,-151,-165,-229
-34,-195,-161,114,63,-178,53,4,-283,-141,-165,-209
-48,-185,-136,117,43,-161,53,0,-268,-146,-180,-200
-48,-170,-122,109,36,-146,48,0,-263,-141,-185,-180
-29,-185,-156,107,63,-170,58,9,-273,-136,-175,-165
-24,-190,-165,107,70,-178,58,29,-278,-136,-175,-175
-24,-200,-175,112,75,-187,68,39,-278,-136,-156,-180
-34,-204,-170,119,68,-187,73,39,-268,-126,-156,-190
-39,-195,-156,117,58,-175,73,48,-248,-122,-146,-204
-48,-165,-117,107,34,-141,63,43,-229,-102,-141,-185
-68,-146,-78,107,4,-112,73,53,-224,-87,-141,-170
-92,-131,-39,112,-26,-85,68,53,-195,-73,-131,-146
-117,-131,-14,124,-51,-73,87,73,-195,-58,-112,-126
-136,-151,-14,143,-61,-82,97,82,-190,-48,-92,-126
-151,-146,4,148,-78,-70,102,87,-190,-48,-73,-126
-146,-146,0,146,-73,-73,112,87,-180,-24,-53,-126
-136,-131,4,134,-70,-63,102,87,-170,-24,-39,-131
-117,-92,24,104,-70,-34,97,87,-146,-24,-48,-131
-87,-58,29,73,-58,-14,87,82,-141,-9,-43,-112
-73,-34,39,53,-56,2,78,73,-131,-4,-58,-107
-53,-19,34,36,-43,7,73,78,-136,0,-58,-92
-29,-29,0,29,-14,-14,63,68,-156,-19,-53,-102
0,-48,-48,24,24,-48,58,68,-161,-34,-68,-131
29,-68,-97,19,63,-82,48,63,-185,-48,-78,-146
58,-82,-141,12,100,-112,39,53,-195,-48,-82,-175
68,-92,-161,12,114,-126,34,39,-204,-58,-97,-190
78,-78,-156,0,117,-117,24,34,-185,-58,-107,-195
92,-53,-146,-19,119,-100,14,19,-180,-53,-122,-185
102,-34,-136,-34,119,-85,0,9,-170,-48,-136,-190
87,-43,-131,-21,109,-87,9,0,-175,-58,-136,-185
68,-73,-141,2,104,-107,9,0,-190,-58,-126,-195
53,-112,-165,29,109,-139,14,9,-200,-58,-122,-214
34,-141,-175,53,104,-158,14,14,-204,-58,-107,-234
24,-126,-151,51,87,-139,24,14,-190,-43,-102,-229
14,-97,-112,41,63,-104,24,14,-175,-39,-97,-229
4,-68,-73,31,39,-70,19,9,-156,-24,-102,-224
-4,-53,-48,29,21,-51,14,0,-146,-14,-102,-209
-19,-43,-24,31,2,-34,29,14,-141,-9,-87,-190
-34,-58,-24,46,-4,-41,34,29,-141,-9,-82,-170
-48,-73,-24,61,-12,-48,48,53,-136,-4,-78,-180
-68,-82,-14,75,-26,-48,53,73,-136,-4,-63,-185
-92,-82,9,87,-51,-36,63,78,-117,4,-58,-180
-117,-63,53,90,-85,-4,68,82,-92,14,-53,-180
-136,-39,97,87,-117,29,73,82,-68,24,-48,-161
-156,-9,146,82,-151,68,68,82,-53,43,-53,-141
-141,-19,122,80,-131,51,78,68,-68,34,-68,-146
-141,-39,102,90,-122,31,78,68,-73,24,-73,-131
-141,-58,82,100,-112,12,78,68,-97,9,-68,-141
-141,-82,58,112,-100,-12,82,63,-102,0,-73,-156
-107,-87,19,97,-63,-34,73,58,-117,-9,-73,-175
-73,-82,-9,78,-31,-46,63,48,-117,-14,-82,-190
-48,-63,-14,56,-17,-39,53,34,-102,-24,-97,-200
-24,-39,-14,31,-4,-26,34,24,-107,-34,-117,-195
9,-19,-29,4,19,-24,14,34,-117,-39,-117,-195
34,-19,-53,-7,43,-36,9,39,-122,-43,-117,-200
58,-34,-92,-12,75,-63,14,53,-126,-48,-117,-204
73,-58,-131,-7,102,-95,19,63,-136,-68,-117,-219
53,-53,-107,0,80,-80,29,78,-126,-63,-102,-219
39,-48,-87,4,63,-68,34,87,-117,-58,-97,-229
24,-39,-63,7,43,-51,39,92,-97,-53,-102,-224
14,-9,-24,-2,19,-17,34,102,-82,-43,-102,-214
0,0,0,0,0,0,43,97,-73,-43,-112,-204
4,0,-4,-2,4,-2,43,92,-73,-43,-122,-200
4,-14,-19,4,12,-17,43,92,-82,-43,-117,-200
4,-39,-43,17,24,-41,53,102,-97,-48,-102,-200
-14,-73,-58,43,21,-65,58,92,-107,-73,-112,-234
-24,-102,-78,63,26,-90,63,87,-117,-87,-122,-248
-39,-117,-78,78,19,-97,63,78,-117,-102,-141,-268
-53,-131,-78,92,12,-104,63,63,-117,-112,-165,-273
-63,-141,-78,102,7,-109,68,63,-122,-122,-185,-278
-82,-151,-68,117,-7,-109,73,63,-122,-131,-195,-278
-97,-170,-73,134,-12,-122,82,63,-131,-141,-204,-268
-107,-204,-97,156,-4,-151,92,68,-156,-161,-204,-278
-146,-234,-87,190,-29,-161,126,87,-156,-156,-195,-287
-185,-268,-82,226,-51,-175,141,92,-161,-161,-195,-287
-209,-287,-78,248,-65,-183,156,97,-161,-165,-200,-297
-229,-292,-63,261,-82,-178,165,97,-151,-161,-204,-292
-248,-283,-34,265,-107,-158,170,102,-136,-161,-200,-283
-268,-283,-14,275,-126,-148,175,102,-131,-165,-214,-278
-287,-283,4,285,-146,-139,180,102,-141,-161,-209,-263
-307,-312,-4,309,-151,-158,190,107,-161,-161,-200,-258
-283,-331,-48,307,-117,-190,190,102,-165,-185,-204,-273
-273,-351,-78,312,-97,-214,195,102,-175,-204,-209,-292
-258,-370,-112,314,-73,-241,195,97,-190,-224,-214,-312
-244,-366,-122,305,-61,-244,190,92,-195,-239,-234,-336
-195,-356,-161,275,-17,-258,170,78,-204,-263,-253,-336
-146,-351,-204,248,29,-278,156,68,-219,-278,-273,-336
-97,-361,-263,229,82,-312,136,58,-239,-297,-292,-336
-43,-370,-326,207,141,-348,117,53,-268,-317,-307,-346
-4,-385,-380,195,187,-383,107,48,-283,-336,-317,-375
24,-405,-429,190,226,-417,97,48,-302,-356,-326,-405
58,-434,-492,187,275,-463,87,48,-317,-375,-336,-424
97,-429,-527,165,312,-478,73,48,-317,-395,-346,-434
131,-405,-536,136,334,-470,68,58,-307,-390,-351,-424
156,-380,-536,112,346,-458,58,68,-307,-385,-351,-409
180,-361,-541,90,361,-451,53,78,-302,-380,-346,-395
204,-346,-551,70,378,-448,48,87,-302,-380,-336,-375
195,-346,-541,75,368,-444,68,102,-302,-366,-322,-351
180,-356,-536,87,358,-446,73,126,-297,-366,-302,-361
165,-361,-527,97,346,-444,78,141,-283,-361,-283,-356
151,-356,-507,102,329,-431,78,156,-268,-351,-273,-370
122,-336,-458,107,290,-397,82,156,-248,-331,-268,-346
107,-322,-429,107,268,-375,82,151,-234,-322,-268,-331
87,-317,-405,114,246,-361,92,146,-219,-312,-263,-312
68,-326,-395,129,231,-361,97,141,-214,-297,-248,-297
24,-356,-380,165,202,-368,117,131,-204,-307,-244,-302
-14,-380,-366,197,175,-373,126,131,-204,-297,-234,-312
-58,-405,-346,231,143,-375,131,131,-204,-287,-224,-322
-97,-414,-317,256,109,-366,136,131,-195,-273,-214,-331
-141,-424,-283,283,70,-353,136,112,-180,-268,-219,-341
-185,-409,-224,297,19,-317,141,92,-165,-253,-214,-322
-224,-409,-185,317,-19,-297,136,87,-141,-244,-209,-302
-258,-414,-156,336,-51,-285,136,78,-131,-229,-200,-287
-322,-419,-97,370,-112,-258,170,92,-112,-209,-170,-268
-375,-429,-53,402,-161,-241,190,97,-102,-195,-141,-258
-419,-439,-19,429,-200,-229,214,107,-87,-175,-112,-248
-473,-439,34,456,-253,-202,239,112,-73,-156,-82,-239
-488,-409,78,448,-283,-165,244,87,-48,-131,-78,-219
-502,-375,126,439,-314,-124,244,78,-19,-122,-73,-195
-522,-341,180,431,-351,-80,234,63,9,-102,-68,-161
-536,-307,229,422,-383,-39,239,53,34,-82,-68,-136
-453,-287,165,370,-309,-61,214,39,19,-97,-63,-131
-380,-278,102,329,-241,-87,190,24,9,-97,-63,-141
-317,-268,48,292,-183,-109,161,9,-4,-107,-63,-156
-244,-258,-14,251,-114,-136,136,-9,-19,-117,-58,-165
-146,-229,-82,187,-31,-156,102,-29,-39,-122,-82,-195
-63,-200,-136,131,36,-168,58,-48,-43,-126,-97,-214
19,-165,-185,73,102,-175,19,-73,-48,-136,-112,-229
102,-141,-244,19,173,-192,-24,-92,-48,-141,-126,-248
156,-136,-292,-9,224,-214,-53,-82,-53,-141,-136,-248
200,-131,-331,-34,265,-231,-68,-82,-63,-141,-126,-263
244,-131,-375,-56,309,-253,-87,-73,-73,-141,-122,-278
292,-126,-419,-82,356,-273,-102,-73,-78,-141,-107,-292
268,-107,-375,-80,322,-241,-87,-48,-63,-112,-87,-283
244,-87,-331,-78,287,-209,-87,-34,-29,-97,-78,-273
214,-68,-283,-73,248,-175,-87,-24,-14,-78,-73,-253
185,-58,-244,-63,214,-151,-82,-9,4,-63,-63,-239
165,-43,-209,-61,187,-126,-73,4,24,-48,-43,-224
141,-39,-180,-51,161,-109,-63,9,34,-34,-29,-214
117,-34,-151,-41,134,-92,-53,14,43,-19,-14,-204
97,-29,-126,-34,112,-78,-48,14,48,-9,0,-190
78,-19,-97,-29,87,-58,-29,24,63,9,24,-180
53,-9,-63,-21,58,-36,-19,34,78,19,34,-165
29,-4,-34,-12,31,-19,-9,43,87,24,43,-156
9,0,-9,-4,9,-4,0,53,102,34,53,-146
-9,-14,-4,12,-2,-9,9,53,117,48,58,-141
-43,-19,24,31,-34,2,19,53,122,48,68,-136
-78,-29,48,53,-63,9,29,53,136,53,73,-131
-112,-34,78,73,-95,21,34,53,141,53,78,-126
-190,-73,117,131,-153,21,63,63,146,58,92,-117
-268,-102,165,185,-217,31,92,78,151,63,97,-107
-346,-131,214,239,-280,41,122,97,161,68,97,-97
-434,-161,273,297,-353,56,151,112,170,78,102,-87
-468,-175,292,322,-380,58,170,102,180,82,102,-73
-512,-195,317,353,-414,61,190,92,190,82,102,-68
-546,-209,336,378,-441,63,204,82,190,82,107,-63
-580,-219,361,400,-470,70,219,63,190,82,107,-53
-517,-204,312,361,-414,53,200,39,175,73,92,-73
-453,-195,258,324,-356,31,180,14,161,63,82,-82
-390,-185,204,287,-297,9,165,-9,146,53,73,-92
-322,-175,146,248,-234,-14,146,-34,131,43,63,-102
-200,-161,39,180,-119,-61,92,-58,112,29,39,-126
-87,-126,-39,107,-24,-82,48,-87,92,14,24,-141
34,-92,-126,29,80,-109,4,-112,73,0,9,-156
146,-48,-195,-48,170,-122,-39,-136,58,-14,-4,-170
219,-39,-258,-90,239,-148,-68,-136,43,-24,-24,-161
283,-24,-307,-129,295,-165,-102,-136,29,-39,-34,-161
341,-14,-356,-163,348,-185,-131,-136,14,-53,-43,-156
405,-4,-409,-200,407,-207,-161,-136,0,-68,-48,-156
366,-19,-385,-173,375,-202,-151,-112,14,-58,-34,-117
326,-24,-351,-151,339,-187,-136,-87,19,-58,-29,-82
292,-24,-317,-134,305,-170,-126,-68,29,-53,-24,-48
253,-24,-278,-114,265,-151,-117,-48,34,-53,-19,-14
209,-34,-244,-87,226,-139,-97,-43,39,-48,-9,34
175,-43,-219,-65,197,-131,-82,-34,43,-48,-9,73
141,-63,-204,-39,173,-134,-73,-29,43,-43,-9,112
107,-73,-180,-17,143,-126,-63,-24,48,-43,-9,156
87,-63,-151,-12,119,-107,-48,-9,53,-39,4,200
78,-63,-141,-7,109,-102,-43,-4,63,-34,14,239
68,-58,-126,-4,97,-92,-29,0,73,-29,19,283
58,-48,-107,-4,82,-78,-24,4,82,-24,24,326
34,-29,-63,-2,48,-46,-14,19,107,-9,39,370
4,-24,-29,9,17,-26,-4,24,117,4,48,414
-19,-19,0,19,-9,-9,9,34,126,19,58,458
-43,-19,24,31,-34,2,19,39,141,34,68,502
-53,-9,43,31,-48,17,19,24,146,34,73,536
-53,-9,43,31,-48,17,19,19,146,29,73,556
-53,-4,48,29,-51,21,19,14,146,29,73,580
-53,4,58,24,-56,31,19,9,146,29,73,610
-34,-4,29,19,-31,12,9,-4,136,24,53,629
-9,-4,4,7,-7,0,0,-9,126,14,43,639
14,-4,-19,-4,17,-12,-14,-19,117,4,29,649
34,-9,-43,-12,39,-26,-24,-24,107,-4,19,658
43,-34,-78,-4,61,-56,-34,-34,82,-29,-4,668
48,-43,-92,-2,70,-68,-43,-34,78,-39,-9,673
53,-43,-97,-4,75,-70,-53,-34,73,-43,-14,673
63,-43,-107,-9,85,-75,-63,-34,68,-48,-14,678
43,-34,-78,-4,61,-56,-63,-9,82,-39,-9,697
34,-34,-68,0,51,-51,-63,4,87,-29,-4,717
19,-34,-53,7,36,-43,-58,14,87,-19,0,736
9,-39,-48,14,29,-43,-58,29,82,-9,4,756
-68,-63,4,65,-36,-29,-29,48,97,4,24,795
-131,-68,63,100,-97,-2,0,63,112,9,34,824
-195,-73,122,134,-158,24,24,78,131,14,39,854
-258,-73,185,165,-222,56,48,92,146,14,48,883
-248,-82,165,165,-207,41,68,78,136,-4,34,897
-248,-92,156,170,-202,31,78,58,126,-14,19,902
-248,-102,146,175,-197,21,82,39,112,-24,4,907
-248,-112,136,180,-192,12,92,24,102,-34,-9,912
-204,-136,68,170,-136,-34,82,0,78,-53,-39,888
-161,-151,9,156,-85,-70,68,-14,53,-73,-63,873
-117,-165,-48,141,-34,-107,58,-29,34,-92,-78,858
-73,-180,-107,126,17,-143,53,-43,19,-107,-92,844
0,-165,-165,82,82,-165,19,-63,0,-117,-107,805
78,-161,-239,41,158,-200,-4,-78,-24,-126,-126,775
146,-156,-302,4,224,-229,-34,-92,-43,-136,-141,741
204,-151,-356,-26,280,-253,-58,-107,-63,-146,-156,712
224,-146,-370,-39,297,-258,-68,-82,-58,-141,-146,702
239,-131,-370,-53,305,-251,-78,-73,-63,-131,-146,697
258,-122,-380,-68,319,-251,-87,-58,-63,-122,-151,692
278,-107,-385,-85,331,-246,-97,-48,-58,-112,-151,688
244,-97,-341,-73,292,-219,-78,-19,-34,-97,-131,712
209,-87,-297,-61,253,-192,-68,-4,-19,-82,-122,727
175,-78,-253,-48,214,-165,-53,4,0,-68,-107,741
141,-68,-209,-36,175,-139,-43,14,14,-48,-97,756
151,-48,-200,-51,175,-124,-58,34,29,-39,-82,790
151,-24,-175,-63,163,-100,-63,43,39,-39,-68,814
151,-9,-161,-70,156,-85,-68,58,53,-29,-58,839
156,14,-141,-85,148,-63,-73,68,68,-19,-43,863
161,34,-126,-97,143,-46,-87,78,78,-19,-39,873
165,39,-126,-102,146,-43,-92,78,78,-14,-34,888
170,39,-131,-104,151,-46,-97,78,78,-9,-29,902
175,43,-131,-109,153,-43,-102,78,78,-4,-24,917
156,19,-136,-87,146,-58,-92,73,73,-14,-24,907
141,9,-131,-75,136,-61,-82,68,68,-19,-24,907
126,-9,-136,-58,131,-73,-73,58,63,-19,-24,907
107,-19,-126,-43,117,-73,-63,48,63,-24,-24,907
68,-48,-117,-9,92,-82,-39,29,53,-29,-29,893
29,-82,-112,26,70,-97,-14,4,43,-34,-39,888
0,-112,-112,56,56,-112,14,-14,34,-39,-43,878
-29,-151,-122,90,46,-136,39,-34,24,-43,-48,868
-48,-161,-112,104,31,-136,53,-43,9,-48,-58,863
-58,-165,-107,112,24,-136,58,-48,0,-53,-58,858
-68,-175,-107,122,19,-141,63,-53,-4,-58,-58,854
-78,-180,-102,129,12,-141,73,-58,-9,-63,-63,849
-58,-175,-117,117,29,-146,58,-43,-19,-73,-73,839
-58,-170,-112,114,26,-141,53,-39,-19,-73,-73,839
-48,-165,-117,107,34,-141,43,-34,-19,-73,-68,839
-34,-156,-122,95,43,-139,39,-29,-19,-73,-68,839
-34,-141,-107,87,36,-124,29,-24,-9,-73,-58,849
-34,-136,-102,85,34,-119,29,-14,-14,-73,-58,854
-34,-136,-102,85,34,-119,29,-9,-14,-73,-58,858
-39,-131,-92,85,26,-112,29,-4,-14,-73,-58,863
-68,-131,-63,100,-2,-97,43,0,-9,-63,-53,873
-82,-131,-48,107,-17,-90,48,4,-4,-58,-48,883
-97,-131,-34,114,-31,-82,53,9,0,-58,-43,893
-112,-136,-24,124,-43,-80,58,14,4,-58,-39,907
-97,-126,-29,112,-34,-78,58,9,-4,-63,-39,917
-92,-126,-34,109,-29,-80,63,4,-4,-68,-43,922
-87,-126,-39,107,-24,-82,63,0,-4,-73,-48,927
-82,-131,-48,107,-17,-90,63,-9,-4,-78,-53,932
-53,-131,-78,92,12,-104,43,0,-14,-82,-58,917
-29,-131,-102,80,36,-117,39,0,-24,-87,-63,907
0,-131,-131,65,65,-131,34,0,-34,-92,-68,897
29,-131,-161,51,95,-146,29,0,-43,-97,-73,893
63,-126,-190,31,126,-158,9,-9,-48,-107,-82,878
92,-122,-214,14,153,-168,0,-9,-53,-107,-82,873
117,-117,-234,0,175,-175,-9,-9,-58,-107,-82,868
141,-117,-258,-12,200,-187,-19,-9,-63,-107,-82,863
141,-117,-258,-12,200,-187,-29,4,-53,-102,-73,858
141,-117,-258,-12,200,-187,-24,9,-53,-97,-73,854
136,-117,-253,-9,195,-185,-24,14,-53,-92,-68,849
136,-112,-248,-12,192,-180,-24,19,-53,-87,-68,844
117,-112,-229,-2,173,-170,-9,24,-48,-73,-63,844
107,-112,-219,2,163,-165,-9,24,-43,-73,-58,839
97,-112,-209,7,153,-161,-9,24,-39,-78,-53,834
87,-112,-200,12,143,-156,-9,24,-34,-78,-53,829
97,-107,-204,4,151,-156,-9,34,-24,-73,-48,834
92,-102,-195,4,143,-148,-9,34,-19,-68,-43,829
92,-97,-190,2,141,-143,-14,34,-14,-63,-39,829
92,-87,-180,-2,136,-134,-14,34,-9,-53,-34,829
92,-82,-175,-4,134,-129,-14,34,0,-43,-24,819
97,-78,-175,-9,136,-126,-19,34,-4,-43,-19,824
97,-73,-170,-12,134,-122,-19,34,-4,-43,-9,824
97,-68,-165,-14,131,-117,-19,34,-4,-43,-4,824
82,-73,-156,-4,119,-114,-4,29,-4,-53,4,805
73,-78,-151,2,112,-114,0,24,-4,-53,4,795
63,-82,-146,9,104,-114,4,19,-4,-48,4,785
53,-87,-141,17,97,-114,9,14,-4,-48,4,775
39,-102,-141,31,90,-122,24,9,-9,-58,-4,751
34,-102,-136,34,85,-119,24,4,-14,-53,0,736
29,-102,-131,36,80,-117,29,0,-19,-53,0,722
24,-107,-131,41,78,-119,34,-4,-24,-58,-4,707
14,-117,-131,51,73,-124,39,-4,-24,-58,-4,663
24,-107,-131,41,78,-119,29,4,-24,-48,4,644
39,-97,-136,29,87,-117,19,4,-24,-48,4,639
58,-78,-136,9,97,-107,9,9,-19,-39,9,624
68,-68,-136,0,102,-102,-4,19,-19,-39,9,610
78,-58,-136,-9,107,-97,-9,19,-19,-39,9,605
87,-48,-136,-19,112,-92,-14,19,-19,-39,9,600
97,-39,-136,-29,117,-87,-19,19,-19,-39,9,595
92,-48,-141,-21,117,-95,-29,19,-29,-39,9,580
87,-48,-136,-19,112,-92,-29,19,-29,-39,9,566
