I, II, III, aVR, aVL, aVF, V1, V2, V3, V4, V5, V6
-165,29,195,68,-180,112,-48,2762,9,-9,-9,87
-161,29,190,65,-175,109,-48,2762,4,-9,-9,87
-156,29,185,63,-170,107,-48,2762,0,-9,-9,87
-151,29,180,61,-165,104,-48,2752,0,-14,-9,87
-146,29,175,58,-161,102,-48,2742,0,-19,-9,87
-146,29,175,58,-161,102,-48,2737,-4,-19,-19,82
-146,29,175,58,-161,102,-48,2732,-9,-19,-29,78
-151,19,170,65,-161,95,-48,2693,-9,-19,-29,78
-156,9,165,73,-161,87,-48,2654,-9,-19,-29,78
-156,9,165,73,-161,87,-48,2635,-9,-14,-19,78
-156,9,165,73,-161,87,-48,2615,-9,-9,-9,78
-146,9,156,68,-151,82,-43,2601,-9,-9,-9,82
-136,9,146,63,-141,78,-39,2586,-9,-9,-9,87
-136,9,146,63,-141,78,-39,2586,-9,-9,-9,87
-136,9,146,63,-141,78,-39,2586,-9,-9,-9,87
-136,4,141,65,-139,73,-39,2596,-9,-14,-14,82
-136,0,136,68,-136,68,-39,2605,-9,-19,-19,78
-131,0,131,65,-131,65,-39,2605,-9,-19,-19,78
-126,0,126,63,-126,63,-39,2605,-9,-19,-19,78
-122,0,122,61,-122,61,-39,2591,-9,-19,-14,82
-117,0,117,58,-117,58,-39,2576,-9,-19,-9,87
-117,-4,112,61,-114,53,-39,2522,-9,-14,-9,87
-117,-9,107,63,-112,48,-39,2469,-9,-9,-9,87
-112,-9,102,61,-107,46,-39,2425,-9,-9,-9,87
-107,-9,97,58,-102,43,-39,2381,-9,-9,-9,87
-102,-4,97,53,-100,46,-39,2371,-4,-9,-9,87
-97,0,97,48,-97,48,-39,2361,0,-9,-9,87
-92,19,112,36,-102,65,-29,2342,4,-4,-4,87
-87,39,126,24,-107,82,-19,2322,9,0,0,87
-78,48,126,14,-102,87,-4,2313,14,4,0,87
-68,58,126,4,-97,92,9,2303,19,9,0,87
-68,63,131,2,-100,97,14,2283,24,14,9,92
-68,68,136,0,-102,102,19,2264,29,19,19,97
-63,68,131,-2,-97,100,24,2264,29,19,19,97
-53,68,122,-7,-87,95,24,2269,34,19,14,92
-48,73,122,-12,-85,97,29,2274,43,24,14,92
-39,78,117,-19,-78,97,19,2259,48,39,24,102
-19,102,122,-41,-70,112,9,2249,63,43,39,112
-4,117,122,-56,-63,119,-4,2249,68,53,43,122
0,151,151,-75,-75,151,-14,2244,63,58,48,126
9,175,165,-92,-78,170,-24,2249,63,68,63,146
43,209,165,-126,-61,187,-39,2249,68,73,68,161
63,224,161,-143,-48,192,-43,2259,73,82,78,170
78,244,165,-161,-43,204,-58,2259,73,82,87,175
78,253,175,-165,-48,214,-63,2254,73,82,92,180
78,239,161,-158,-41,200,-73,2230,78,82,92,170
48,200,151,-124,-51,175,-73,2210,68,68,78,161
34,175,141,-104,-53,158,-73,2220,53,58,68,146
19,141,122,-80,-51,131,-73,2220,48,43,53,136
-14,112,126,-48,-70,119,-58,2225,29,34,39,117
-53,73,126,-9,-90,100,-58,2230,9,9,9,102
-63,29,92,17,-78,61,-53,2244,-9,-4,-4,82
-73,4,78,34,-75,41,-48,2235,-19,-14,-19,73
-92,-4,87,48,-90,41,-53,2220,-24,-34,-24,58
-102,-9,92,56,-97,41,-53,2225,-34,-34,-29,53
-102,-14,87,58,-95,36,-48,2230,-34,-39,-43,48
-107,-14,92,61,-100,39,-48,2225,-34,-43,-48,39
-107,-19,87,63,-97,34,-43,2210,-39,-48,-43,34
-107,-19,87,63,-97,34,-39,2196,-43,-48,-43,34
-117,-24,92,70,-104,34,-39,2186,-43,-48,-48,34
-126,-29,97,78,-112,34,-34,2181,-43,-48,-48,34
-131,-34,97,82,-114,31,-34,2186,-43,-48,-48,29
-131,-34,97,82,-114,31,-34,2191,-43,-48,-48,29
-131,-34,97,82,-114,31,-34,2249,-43,-53,-58,29
-126,-34,92,80,-109,29,-34,2288,-39,-53,-48,29
-126,-29,97,78,-112,34,-29,2322,-39,-48,-43,29
-126,-24,102,75,-114,39,-29,2357,-34,-39,-39,29
-126,-19,107,73,-117,43,-29,2371,-34,-39,-39,24
-126,-19,107,73,-117,43,-29,2371,-29,-34,-34,24
-122,-19,102,70,-112,41,-29,2366,-29,-39,-34,24
-117,-14,102,65,-109,43,-29,2347,-19,-34,-29,29
-112,-14,97,63,-104,41,-24,2298,-19,-34,-39,24
-102,-4,97,53,-100,46,-14,2278,9,-4,-19,29
-102,-9,92,56,-97,41,-9,2288,78,48,19,43
-87,-14,73,51,-80,29,0,2303,146,112,63,58
-87,-34,53,61,-70,9,19,2347,195,146,73,58
-122,-82,39,102,-80,-21,43,2332,151,68,0,4
-180,-151,29,165,-104,-61,48,2278,14,-97,-131,-87
-117,-107,9,112,-63,-48,-24,2220,-53,-131,-136,-78
102,165,63,-134,19,114,-180,2147,63,82,87,131
483,551,68,-517,207,309,-439,1922,122,405,473,502
800,858,58,-829,370,458,-624,1576,58,678,814,810
1005,1010,4,-1007,500,507,-732,1278,-9,893,1058,1044
1298,1098,-200,-1198,749,448,-893,1088,-146,1073,1356,1327
1468,1215,-253,-1342,861,480,-927,1034,-165,1307,1698,1625
1429,1239,-190,-1334,810,524,-844,1054,-122,1532,1976,1810
1327,1122,-204,-1224,766,458,-844,1044,-126,1639,2088,1849
1176,917,-258,-1046,717,329,-854,1161,-102,1644,2093,1805
976,688,-287,-832,631,200,-824,1268,-82,1551,1966,1664
771,556,-214,-663,492,170,-717,1351,-68,1371,1722,1415
566,492,-73,-529,319,209,-556,1395,-68,1137,1449,1180
302,390,87,-346,107,239,-346,1503,-68,761,1054,893
87,273,185,-180,-48,229,-185,1649,-24,507,707,624
-39,151,190,-56,-114,170,-97,1810,58,385,444,361
-156,87,244,34,-200,165,-4,1898,87,253,234,175
-209,29,239,90,-224,134,19,1986,73,107,97,92
-200,-4,195,102,-197,95,0,2034,43,48,53,82
-190,-19,170,104,-180,75,0,2034,-4,29,-4,39
-200,-29,170,114,-185,70,4,2005,-24,-34,-68,-9
-200,-34,165,117,-183,65,4,2044,-29,-73,-78,-9
-195,-39,156,117,-175,58,0,2069,-34,-68,-58,4
-195,-39,156,117,-175,58,4,2088,-34,-58,-53,4
-195,-39,156,117,-175,58,4,2098,-34,-58,-63,0
-200,-39,161,119,-180,61,4,2113,-29,-63,-63,0
-200,-39,161,119,-180,61,4,2122,-24,-63,-63,4
-204,-39,165,122,-185,63,0,2137,-24,-63,-68,4
-209,-39,170,124,-190,65,-4,2156,-24,-58,-68,4
-204,-39,165,122,-185,63,-4,2181,-29,-58,-63,4
-204,-34,170,119,-187,68,-4,2156,-34,-58,-63,9
-204,-34,170,119,-187,68,-4,2156,-34,-58,-63,9
-204,-29,175,117,-190,73,-9,2166,-29,-58,-58,14
-200,-24,175,112,-187,75,-14,2215,-29,-53,-58,14
-200,-19,180,109,-190,80,-14,2244,-29,-53,-58,19
-200,-19,180,109,-190,80,-14,2215,-29,-58,-53,19
-200,-14,185,107,-192,85,-14,2181,-29,-58,-53,19
-200,-14,185,107,-192,85,-19,2137,-29,-58,-58,19
-200,-9,190,104,-195,90,-19,2088,-29,-58,-63,19
-195,-4,190,100,-192,92,-14,2122,-34,-53,-63,19
-190,0,190,95,-190,95,-14,2132,-34,-48,-58,24
-190,4,195,92,-192,100,-14,2196,-34,-48,-53,24
-190,4,195,92,-192,100,-19,2235,-34,-48,-48,24
-190,4,195,92,-192,100,-14,2269,-34,-48,-48,19
-190,4,195,92,-192,100,-9,2293,-34,-48,-53,19
-190,4,195,92,-192,100,-9,2371,-34,-53,-53,19
-190,9,200,90,-195,104,-9,2430,-29,-53,-53,19
-200,4,204,97,-202,104,-9,2503,-39,-63,-63,9
-204,9,214,97,-209,112,-9,2566,-39,-73,-63,9
-209,14,224,97,-217,119,-9,2684,-43,-78,-73,4
-214,14,229,100,-222,122,-4,2771,-48,-87,-78,4
-224,14,239,104,-231,126,-9,2757,-58,-97,-97,-4
-239,19,258,109,-248,139,-4,2752,-63,-102,-102,-9
-253,19,273,117,-263,146,0,2815,-68,-117,-117,-19
-253,24,278,114,-265,151,4,2884,-73,-126,-117,-24
-278,24,302,126,-290,163,9,2991,-82,-131,-136,-34
-292,24,317,134,-305,170,29,3123,-87,-141,-141,-43
-302,24,326,139,-314,175,34,3191,-102,-170,-165,-63
-317,29,346,143,-331,187,48,3274,-112,-190,-180,-78
-331,34,366,148,-348,200,48,3318,-122,-214,-209,-97
-356,39,395,158,-375,217,58,3381,-131,-239,-229,-112
-380,39,419,170,-400,229,68,3401,-151,-263,-258,-131
-405,39,444,183,-424,241,87,3435,-161,-287,-287,-151
-429,34,463,197,-446,248,102,3523,-165,-317,-317,-180
-448,29,478,209,-463,253,117,3596,-185,-341,-346,-195
-473,19,492,226,-483,256,131,3630,-190,-370,-375,-219
-488,9,497,239,-492,253,146,3655,-200,-390,-400,-234
-512,4,517,253,-514,261,156,3645,-214,-419,-434,-253
-527,0,527,263,-527,263,170,3660,-219,-444,-458,-268
-541,-4,536,273,-539,265,185,3625,-219,-463,-478,-287
-546,-9,536,278,-541,263,195,3577,-219,-473,-497,-297
-556,-19,536,287,-546,258,195,3562,-214,-488,-507,-317
-556,-29,527,292,-541,248,195,3547,-195,-488,-512,-326
-561,-39,522,300,-541,241,195,3591,-180,-483,-512,-326
-556,-43,512,300,-534,234,195,3620,-161,-468,-512,-326
-531,-48,483,290,-507,217,185,3640,-141,-448,-502,-322
-507,-53,453,280,-480,200,175,3655,-117,-419,-483,-302
-478,-53,424,265,-451,185,161,3684,-92,-400,-458,-287
-444,-53,390,248,-417,168,151,3699,-68,-366,-434,-268
-419,-58,361,239,-390,151,126,3699,-53,-331,-395,-239
-375,-58,317,217,-346,129,107,3689,-29,-292,-356,-209
-336,-53,283,195,-309,114,87,3713,-14,-253,-312,-170
-302,-39,263,170,-283,112,68,3718,4,-214,-268,-136
-273,-29,244,151,-258,107,48,3738,14,-180,-234,-112
-248,-9,239,129,-244,114,29,3757,24,-161,-204,-87
-219,-4,214,112,-217,104,9,3782,24,-141,-185,-68
-204,0,204,102,-204,102,0,3796,34,-122,-151,-39
-185,14,200,85,-192,107,-14,3821,39,-102,-126,-19
-165,19,185,73,-175,102,-19,3816,43,-82,-102,4
-156,29,185,63,-170,107,-29,3772,43,-73,-92,14
-146,39,185,53,-165,112,-34,3738,43,-58,-73,29
-141,48,190,46,-165,119,-39,3733,43,-43,-63,39
-136,48,185,43,-161,117,-39,3718,48,-29,-48,53
-126,48,175,39,-151,112,-43,3742,48,-19,-34,53
-126,48,175,39,-151,112,-48,3757,48,-4,-24,73
-117,48,165,34,-141,107,-48,3782,48,-4,-24,73
-117,48,165,34,-141,107,-48,3801,48,0,-19,73
-112,58,170,26,-141,114,-53,3825,48,4,-9,73
-112,63,175,24,-143,119,-58,3825,48,4,-9,78
-112,63,175,24,-143,119,-58,3811,48,4,-9,78
-107,63,170,21,-139,117,-58,3791,48,9,-4,82
-107,63,170,21,-139,117,-53,3786,48,9,-4,78
-107,63,170,21,-139,117,-48,3777,48,9,-4,73
-107,58,165,24,-136,112,-48,3801,43,9,-4,73
-107,53,161,26,-134,107,-48,3801,43,9,-4,73
-117,53,170,31,-143,112,-48,3801,39,9,-9,78
-117,53,170,31,-143,112,-48,3811,39,9,-9,82
-117,58,175,29,-146,117,-48,3821,34,4,-9,82
-117,63,180,26,-148,122,-43,3816,29,4,-9,82
-112,63,175,24,-143,119,-48,3811,29,0,-9,82
-112,63,175,24,-143,119,-53,3782,24,0,-4,82
-112,63,175,24,-143,119,-48,3752,29,0,-4,82
-112,58,170,26,-141,114,-43,3713,34,0,-4,82
-112,53,165,29,-139,109,-34,3669,24,-4,-9,78
-122,48,170,36,-146,109,-29,3616,24,-9,-14,78
-122,48,170,36,-146,109,-29,3611,19,-9,-14,73
-122,48,170,36,-146,109,-29,3591,14,-9,-14,73
-122,48,170,36,-146,109,-29,3567,14,-14,-24,73
-126,48,175,39,-151,112,-24,3528,14,-14,-29,73
-126,48,175,39,-151,112,-24,3479,4,-19,-29,68
-126,53,180,36,-153,117,-19,3430,4,-19,-29,68
-126,53,180,36,-153,117,-19,3381,9,-19,-29,68
-126,48,175,39,-151,112,-19,3337,14,-19,-29,68
-126,48,175,39,-151,112,-19,3298,14,-14,-29,68
-126,48,175,39,-151,112,-19,3230,14,-9,-24,68
-131,43,175,43,-153,109,-19,3162,4,-14,-24,63
-131,43,175,43,-153,109,-14,3132,0,-14,-24,63
-131,43,175,43,-153,109,-14,3118,0,-14,-29,63
-126,43,170,41,-148,107,-14,3074,0,-14,-34,63
-126,39,165,43,-146,102,-14,3010,-4,-14,-34,63
-126,29,156,48,-141,92,-14,2932,-4,-14,-34,63
-122,29,151,46,-136,90,-19,2898,-9,-14,-29,63
-122,29,151,46,-136,90,-24,2854,-9,-14,-24,63
-117,29,146,43,-131,87,-24,2840,-4,-14,-24,63
-112,29,141,41,-126,85,-24,2801,-4,-14,-24,63
-112,29,141,41,-126,85,-19,2801,-4,-14,-24,63
-112,29,141,41,-126,85,-14,2781,-4,-14,-19,63
-102,34,136,34,-119,85,-14,2776,-9,-14,-19,68
-102,34,136,34,-119,85,-14,2752,-9,-14,-19,73
-97,34,131,31,-114,82,-14,2727,-9,-14,-19,73
-97,34,131,31,-114,82,-14,2693,-14,-14,-19,73
-97,34,131,31,-114,82,-14,2679,-14,-14,-19,68
-92,29,122,31,-107,75,-14,2659,-14,-14,-19,63
-92,34,126,29,-109,80,-14,2635,-14,-14,-19,63
-87,39,126,24,-107,82,-14,2601,-14,-14,-14,63
-82,39,122,21,-102,80,-14,2581,-9,-9,-14,68
-78,39,117,19,-97,78,-14,2557,-9,-4,-14,73
-73,34,107,19,-90,70,-14,2518,-9,-4,-14,73
-73,29,102,21,-87,65,-14,2474,-14,-4,-14,73
-68,24,92,21,-80,58,-9,2454,-14,-4,-14,73
-63,24,87,19,-75,56,-9,2420,-14,-4,-14,73
-58,29,87,14,-73,58,-9,2405,-14,-4,-9,73
-53,34,87,9,-70,61,-9,2386,-14,-4,-9,73
-53,34,87,9,-70,61,-9,2366,-14,0,-9,73
-58,34,92,12,-75,63,-4,2332,-14,0,-9,73
-63,19,82,21,-73,51,-4,2318,-14,0,-9,73
-63,4,68,29,-65,36,-4,2293,-9,0,-9,73
-63,4,68,29,-65,36,-9,2274,-14,-4,-9,68
-63,4,68,29,-65,36,-9,2244,-19,-4,-4,68
-53,4,58,24,-56,31,-9,2244,-19,-4,-4,68
-48,9,58,19,-53,34,-14,2235,-19,-4,-4,68
-43,9,53,17,-48,31,-19,2225,-24,0,-9,68
-43,4,48,19,-46,26,-19,2205,-24,-4,-9,68
-43,14,58,14,-51,36,-14,2181,-19,-14,-14,63
-39,14,53,12,-46,34,-14,2156,-19,-14,-14,63
-43,4,48,19,-46,26,-14,2054,-19,-9,-14,58
-39,4,43,17,-41,24,-9,1942,-19,-4,-9,63
-34,-4,29,19,-31,12,-9,1849,-14,-4,-4,58
-29,0,29,14,-29,14,-9,1737,-14,0,-4,63
-24,14,39,4,-31,26,-9,1703,-4,4,4,63
-14,34,48,-9,-31,41,0,1644,0,9,14,73
-9,34,43,-12,-26,39,4,1610,4,14,9,68
-4,39,43,-17,-24,41,14,1581,9,19,9,68
0,53,53,-26,-26,53,19,1551,19,24,19,73
9,68,58,-39,-24,63,29,1522,29,29,29,78
9,68,58,-39,-24,63,29,1498,34,34,29,78
9,68,58,-39,-24,63,29,1473,39,39,29,78
9,68,58,-39,-24,63,29,1468,43,39,29,78
9,73,63,-41,-26,68,24,1444,48,48,34,82
14,82,68,-48,-26,75,19,1424,53,58,39,87
29,102,73,-65,-21,87,9,1405,58,63,48,92
43,117,73,-80,-14,95,0,1376,53,73,53,102
48,141,92,-95,-21,117,-4,1342,43,73,53,102
58,156,97,-107,-19,126,-14,1327,43,78,68,117
82,185,102,-134,-9,143,-24,1312,43,82,78,131
92,195,102,-143,-4,148,-24,1302,48,92,87,141
107,204,97,-156,4,151,-39,1283,53,92,92,141
117,204,87,-161,14,146,-43,1249,53,92,92,146
122,190,68,-156,26,129,-53,1215,53,92,92,141
87,151,63,-119,12,107,-53,1190,43,78,78,136
73,126,53,-100,9,90,-53,1176,34,68,68,126
58,92,34,-75,12,63,-53,1141,29,53,53,117
24,63,39,-43,-7,51,-39,1112,9,39,39,92
-9,24,34,-7,-21,29,-39,1093,-9,9,9,73
-14,-14,0,14,-7,-7,-34,1068,-29,-4,-4,53
-24,-34,-9,29,-7,-21,-29,1044,-39,-9,-19,43
-39,-43,-4,41,-17,-24,-29,1010,-43,-24,-24,29
-43,-48,-4,46,-19,-26,-24,995,-53,-24,-29,24
-43,-53,-9,48,-17,-31,-19,995,-53,-24,-39,24
-53,-53,0,53,-26,-26,-24,980,-53,-24,-39,14
-58,-58,0,58,-29,-29,-29,961,-53,-29,-34,9
-58,-58,0,58,-29,-29,-29,946,-53,-34,-29,14
-58,-58,0,58,-29,-29,-29,941,-53,-39,-29,14
-53,-53,0,53,-26,-26,-24,961,-53,-39,-29,14
-53,-53,0,53,-26,-26,-24,985,-53,-39,-29,9
-53,-53,0,53,-26,-26,-19,1005,-53,-39,-29,4
-58,-53,4,56,-31,-24,-14,1019,-58,-43,-39,0
-63,-58,4,61,-34,-26,-14,1000,-58,-43,-34,0
-68,-63,4,65,-36,-29,-9,1000,-58,-43,-39,0
-68,-63,4,65,-36,-29,-9,1000,-58,-39,-39,0
-68,-58,9,63,-39,-24,-9,1000,-63,-39,-39,0
-68,-58,9,63,-39,-24,-9,971,-58,-34,-34,4
-68,-58,9,63,-39,-24,-9,951,-58,-34,-34,4
-68,-58,9,63,-39,-24,-9,902,-43,-19,-29,9
-63,-63,0,63,-31,-31,-4,854,-34,-14,-29,9
-53,-53,0,53,-26,-26,4,829,0,14,0,19
-48,-53,-4,51,-21,-29,9,829,68,68,29,34
-29,-53,-24,41,-2,-39,19,834,122,117,63,39
-29,-73,-43,51,7,-58,34,844,131,117,63,29
-48,-107,-58,78,4,-82,39,819,78,34,-9,0
-68,-131,-63,100,-2,-97,14,751,-19,-82,-102,-43
39,-19,-58,-9,48,-39,-87,653,-48,-39,-34,19
287,278,-9,-283,148,134,-263,546,34,204,234,258
668,634,-34,-651,351,300,-512,239,43,522,629,629
961,893,-68,-927,514,412,-683,-170,-39,780,956,922
1141,1000,-141,-1071,641,429,-780,-488,-117,990,1195,1151
1400,1068,-331,-1234,866,368,-932,-712,-224,1185,1512,1424
1522,1161,-361,-1342,941,400,-961,-795,-209,1415,1825,1673
1444,1146,-297,-1295,871,424,-873,-780,-141,1629,2049,1820
1317,995,-322,-1156,819,336,-873,-839,-136,1708,2113,1820
1146,805,-341,-976,744,231,-854,-785,-92,1688,2074,1722
936,600,-336,-768,636,131,-790,-692,-73,1546,1898,1551
732,478,-253,-605,492,112,-644,-639,-63,1307,1610,1298
527,414,-112,-470,319,151,-448,-653,-68,1039,1307,1054
273,302,29,-287,122,165,-273,-619,-87,678,932,766
78,195,117,-136,-19,156,-146,-531,-43,458,619,522
-24,97,122,-36,-73,109,-58,-448,39,346,370,302
-117,48,165,34,-141,107,24,-395,63,224,185,151
-161,-9,151,85,-156,70,39,-331,43,92,78,78
-151,-43,107,97,-129,31,19,-307,14,48,53,73
-141,-58,82,100,-112,12,19,-278,-34,29,0,34
-156,-68,87,112,-122,9,29,-292,-53,-29,-53,-9
-161,-73,87,117,-124,7,34,-278,-53,-58,-58,-9
-156,-78,78,117,-117,0,29,-292,-53,-48,-39,4
-156,-78,78,117,-117,0,29,-302,-53,-39,-39,4
-151,-78,73,114,-112,-2,19,-307,-53,-39,-53,0
-146,-78,68,112,-107,-4,14,-317,-53,-43,-53,0
-141,-78,63,109,-102,-7,14,-336,-53,-43,-53,4
-141,-73,68,107,-104,-2,14,-341,-53,-43,-53,4
-141,-68,73,104,-107,2,14,-346,-53,-34,-48,9
-136,-68,68,102,-102,0,14,-341,-53,-29,-43,14
-136,-63,73,100,-104,4,19,-390,-53,-29,-39,19
-136,-63,73,100,-104,4,24,-400,-53,-29,-34,19
-136,-58,78,97,-107,9,19,-419,-48,-29,-29,24
-131,-58,73,95,-102,7,14,-419,-48,-24,-29,24
-131,-58,73,95,-102,7,14,-419,-48,-24,-29,29
-131,-58,73,95,-102,7,14,-434,-48,-24,-24,29
-131,-53,78,92,-104,12,14,-439,-48,-24,-29,29
-131,-53,78,92,-104,12,9,-444,-48,-29,-34,29
-131,-48,82,90,-107,17,9,-458,-48,-29,-34,24
-131,-43,87,87,-109,21,14,-453,-48,-29,-34,19
-131,-34,97,82,-114,31,9,-478,-43,-24,-29,24
-131,-24,107,78,-119,41,4,-468,-43,-19,-29,24
-131,-24,107,78,-119,41,0,-492,-43,-19,-29,24
-131,-24,107,78,-119,41,0,-497,-43,-19,-29,19
-136,-24,112,80,-124,43,0,-522,-43,-19,-34,19
-141,-24,117,82,-129,46,0,-531,-48,-24,-34,19
-141,-19,122,80,-131,51,0,-546,-48,-24,-29,24
-151,-19,131,85,-141,56,0,-556,-58,-29,-34,19
-156,-14,141,85,-148,63,4,-619,-58,-34,-34,19
-161,-14,146,87,-153,65,9,-595,-58,-34,-43,14
-165,-14,151,90,-158,68,14,-551,-58,-43,-48,14
-170,-14,156,92,-163,70,14,-575,-68,-58,-63,4
-180,-4,175,92,-178,85,19,-590,-73,-63,-63,0
-195,0,195,97,-195,97,19,-605,-78,-78,-78,-9
-195,4,200,95,-197,102,24,-639,-82,-87,-78,-14
-219,4,224,107,-222,114,24,-668,-92,-97,-102,-24
-234,9,244,112,-239,126,39,-683,-97,-107,-112,-34
-244,14,258,114,-251,136,43,-692,-112,-131,-136,-53
-258,19,278,119,-268,148,58,-697,-122,-151,-151,-68
-278,19,297,129,-287,158,63,-722,-131,-175,-180,-87
-307,14,322,146,-314,168,82,-722,-141,-204,-200,-102
-331,9,341,161,-336,175,97,-732,-161,-234,-229,-122
-356,9,366,173,-361,187,117,-727,-170,-258,-258,-141
-380,4,385,187,-383,195,131,-741,-175,-287,-287,-170
-400,4,405,197,-402,204,146,-824,-195,-312,-317,-185
-429,4,434,212,-431,219,161,-927,-200,-341,-346,-209
-444,0,444,222,-444,222,175,-922,-209,-361,-370,-224
-463,-4,458,234,-461,226,185,-922,-219,-385,-400,-248
-478,-9,468,244,-473,229,190,-863,-219,-405,-419,-268
-492,-14,478,253,-485,231,195,-805,-219,-424,-439,-287
-497,-19,478,258,-488,229,204,-790,-219,-434,-458,-297
-507,-29,478,268,-492,224,204,-785,-219,-448,-468,-312
-507,-39,468,273,-488,214,204,-785,-204,-448,-473,-317
-507,-48,458,278,-483,204,204,-761,-190,-448,-473,-317
-497,-53,444,275,-470,195,204,-746,-170,-439,-468,-317
-473,-58,414,265,-444,178,195,-732,-151,-419,-453,-312
-444,-63,380,253,-412,158,185,-712,-126,-385,-434,-283
-409,-63,346,236,-378,141,165,-683,-107,-361,-409,-258
-375,-58,317,217,-346,129,151,-673,-87,-326,-380,-239
-351,-53,297,202,-324,122,126,-653,-73,-292,-336,-209
-307,-48,258,178,-283,104,107,-663,-48,-253,-297,-185
-268,-43,224,156,-246,90,82,-649,-39,-224,-263,-156
-234,-29,204,131,-219,87,53,-658,-24,-195,-234,-126
-204,-24,180,114,-192,78,29,-658,-14,-161,-204,-102
-180,-9,170,95,-175,80,9,-663,-4,-141,-175,-78
-151,-4,146,78,-148,70,-9,-668,-4,-117,-156,-58
-136,0,136,68,-136,68,-14,-653,4,-92,-122,-29
-117,14,131,51,-124,73,-24,-644,9,-73,-97,-14
-102,14,117,43,-109,65,-29,-673,14,-53,-73,4
-97,14,112,41,-104,63,-39,-697,14,-43,-63,14
-92,14,107,39,-100,61,-43,-727,14,-29,-43,29
-87,19,107,34,-97,63,-53,-732,14,-14,-34,39
-78,19,97,29,-87,58,-58,-746,19,0,-19,53
-68,24,92,21,-80,58,-63,-751,19,4,-4,53
-68,34,102,17,-85,68,-68,-751,19,14,4,73
-58,39,97,9,-78,68,-68,-746,19,14,4,73
-58,39,97,9,-78,68,-68,-741,19,19,9,73
-53,43,97,4,-75,70,-68,-727,19,24,19,73
-53,43,97,4,-75,70,-68,-717,19,24,19,78
-53,43,97,4,-75,70,-68,-717,19,24,19,78
-48,43,92,2,-70,68,-68,-717,14,29,19,78
-48,43,92,2,-70,68,-68,-702,9,29,14,73
-48,43,92,2,-70,68,-68,-707,9,24,14,73
-48,43,92,2,-70,68,-68,-697,4,19,14,73
-43,43,87,0,-65,65,-68,-707,4,19,14,73
-48,43,92,2,-70,68,-68,-707,0,19,9,73
-48,43,92,2,-70,68,-68,-702,0,19,9,73
-48,43,92,2,-70,68,-68,-692,0,14,9,73
-53,39,92,7,-73,65,-63,-692,0,14,9,68
-58,34,92,12,-75,63,-63,-678,0,9,4,63
-63,34,97,14,-80,65,-63,-688,-4,9,4,63
-63,34,97,14,-80,65,-58,-683,-4,9,4,63
-58,29,87,14,-73,58,-53,-678,-4,9,4,68
-53,29,82,12,-68,56,-48,-653,-14,4,0,68
-63,29,92,17,-78,61,-48,-634,-14,0,-4,68
-63,29,92,17,-78,61,-48,-605,-14,0,-4,63
-63,34,97,14,-80,65,-48,-585,-14,0,-4,63
-63,39,102,12,-82,70,-48,-561,-14,-4,-9,63
-68,39,107,14,-87,73,-43,-546,-14,-4,-9,63
-68,34,102,17,-85,68,-43,-527,-24,-9,-9,58
-68,34,102,17,-85,68,-34,-502,-24,-9,-9,58
-68,34,102,17,-85,68,-29,-483,-24,-9,-9,58
-68,29,97,19,-82,63,-29,-444,-24,-9,-9,58
-68,29,97,19,-82,63,-29,-419,-24,-9,-14,58
-68,29,97,19,-82,63,-29,-424,-24,-9,-14,58
-73,24,97,24,-85,61,-29,-409,-29,-14,-14,53
-73,24,97,24,-85,61,-29,-414,-29,-14,-14,53
-73,24,97,24,-85,61,-34,-409,-29,-14,-14,53
-63,24,87,19,-75,56,-34,-414,-24,-14,-14,53
-58,24,82,17,-70,53,-34,-390,-24,-14,-14,53
-58,19,78,19,-68,48,-34,-380,-24,-14,-14,53
-53,19,73,17,-63,46,-34,-356,-29,-14,-14,53
-53,19,73,17,-63,46,-34,-336,-29,-14,-14,53
-53,19,73,17,-63,46,-34,-307,-24,-14,-14,53
-53,19,73,17,-63,46,-34,-317,-24,-14,-14,53
-53,19,73,17,-63,46,-34,-302,-24,-14,-14,53
-53,19,73,17,-63,46,-34,-312,-19,-9,-9,53
-43,19,63,12,-53,41,-34,-302,-19,-4,-9,53
-43,14,58,14,-51,36,-29,-322,-19,-4,-9,53
-39,14,53,12,-46,34,-24,-322,-19,-4,-9,53
-39,14,53,12,-46,34,-24,-322,-24,-4,-9,53
-39,14,53,12,-46,34,-24,-317,-24,-4,-9,53
-34,9,43,12,-39,26,-24,-326,-24,-4,-9,53
-34,9,43,12,-39,26,-24,-326,-24,-4,-9,53
-29,9,39,9,-34,24,-29,-351,-29,-9,-4,53
-29,9,39,9,-34,24,-34,-366,-29,-14,-4,53
-29,9,39,9,-34,24,-34,-370,-29,-14,-4,53
-24,9,34,7,-29,21,-34,-380,-29,-14,-4,53
-24,9,34,7,-29,21,-34,-400,-34,-9,-4,53
-19,4,24,7,-21,14,-29,-409,-34,-4,-4,53
-14,4,19,4,-17,12,-29,-434,-29,-4,-9,53
-9,4,14,2,-12,9,-29,-439,-24,-4,-9,53
-9,4,14,2,-12,9,-29,-453,-24,-9,-9,53
-14,4,19,4,-17,12,-29,-463,-24,-9,-9,53
-19,0,19,9,-19,9,-24,-478,-29,-9,-9,53
-24,-4,19,14,-21,7,-24,-478,-34,-9,-9,53
-24,-4,19,14,-21,7,-24,-488,-29,-9,-9,48
-24,-4,19,14,-21,7,-24,-488,-29,-9,-9,43
-24,-9,14,17,-19,2,-24,-497,-29,-9,-4,48
-19,-9,9,14,-14,0,-24,-497,-24,-14,-4,48
-19,0,19,9,-19,9,-24,-507,-24,-14,-4,48
-14,4,19,4,-17,12,-24,-507,-29,-4,-4,48
-19,-4,14,12,-17,4,-24,-512,-29,-9,-4,43
-19,0,19,9,-19,9,-24,-522,-24,-14,-9,39
-9,0,9,4,-9,4,-24,-517,-24,-9,-9,43
-9,-4,4,7,-7,0,-24,-512,-24,-9,-9,43
-14,-9,4,12,-9,-2,-19,-522,-19,-14,-4,48
-19,-14,4,17,-12,-4,-19,-507,-14,-19,-4,43
-19,-4,14,12,-17,4,-14,-517,-24,-14,-9,43
-24,-4,19,14,-21,7,-19,-507,-24,-14,-4,34
-19,0,19,9,-19,9,-14,-527,-24,-14,-4,39
-19,0,19,9,-19,9,-9,-536,-24,-14,-9,39
-9,4,14,2,-12,9,-9,-556,-9,-9,-4,43
-4,4,9,0,-7,7,-4,-566,-19,-9,-4,43
-4,9,14,-2,-9,12,-4,-629,-14,-4,-4,43
-9,9,19,0,-14,14,0,-678,-9,-4,-4,39
-9,4,14,2,-12,9,-4,-756,0,-4,-4,39
-9,9,19,0,-14,14,-4,-814,0,-4,-4,34
-9,24,34,-7,-21,29,4,-824,4,0,0,34
-9,39,48,-14,-29,43,14,-839,14,9,0,39
-4,48,53,-21,-29,51,24,-834,14,14,4,39
0,58,58,-29,-29,58,39,-829,19,19,9,39
4,68,63,-36,-29,65,39,-829,29,24,14,43
9,78,68,-43,-29,73,39,-829,39,29,19,48
14,82,68,-48,-26,75,39,-814,43,29,19,48
19,87,68,-53,-24,78,34,-814,48,39,24,53
24,97,73,-61,-24,85,29,-814,58,48,34,58
39,112,73,-75,-17,92,19,-810,68,53,48,63
53,126,73,-90,-9,100,0,-824,63,58,53,73
58,151,92,-104,-17,122,-14,-844,53,53,53,73
68,165,97,-117,-14,131,-24,-849,53,58,63,82
92,195,102,-143,-4,148,-34,-854,53,63,68,92
102,204,102,-153,0,153,-34,-844,53,73,78,102
117,214,97,-165,9,156,-48,-844,53,73,82,102
122,219,97,-170,12,158,-53,-844,53,78,82,107
122,209,87,-165,17,148,-63,-844,53,82,82,102
87,170,82,-129,2,126,-58,-844,39,68,73,97
73,146,73,-109,0,109,-53,-834,24,58,68,87
58,122,63,-90,-2,92,-53,-834,24,43,53,78
24,102,78,-63,-26,90,-39,-829,9,29,39,53
-14,53,68,-19,-41,61,-39,-819,-9,0,9,34
-24,4,29,9,-26,17,-34,-814,-29,-14,-4,14
-34,-14,19,24,-26,2,-29,-805,-39,-24,-19,4
-48,-24,24,36,-36,0,-29,-805,-43,-43,-24,-9
-53,-29,24,41,-39,-2,-24,-800,-53,-43,-29,-14
-53,-34,19,43,-36,-7,-19,-780,-53,-43,-39,-14
-58,-34,24,46,-41,-4,-19,-780,-58,-43,-43,-24
-58,-39,19,48,-39,-9,-19,-785,-63,-48,-43,-29
-58,-39,19,48,-39,-9,-19,-785,-63,-53,-43,-24
-58,-39,19,48,-39,-9,-19,-775,-63,-58,-48,-24
-58,-34,24,46,-41,-4,-14,-761,-63,-58,-48,-24
-63,-34,29,48,-46,-2,-14,-741,-63,-58,-48,-29
-63,-34,29,48,-46,-2,-14,-712,-63,-53,-43,-29
-68,-34,34,51,-51,0,-14,-688,-68,-53,-48,-29
-68,-34,34,51,-51,0,-14,-653,-63,-53,-39,-24
-68,-34,34,51,-51,0,-9,-600,-58,-53,-39,-19
-63,-34,29,48,-46,-2,-9,-570,-53,-48,-39,-19
-58,-29,29,43,-43,0,-9,-541,-53,-48,-39,-19
-58,-29,29,43,-43,0,-9,-536,-53,-43,-39,-14
-58,-29,29,43,-43,0,-9,-522,-58,-43,-43,-14
-63,-29,34,46,-48,2,-9,-517,-48,-34,-39,-9
-63,-34,29,48,-46,-2,-4,-512,-43,-34,-39,-9
-53,-24,29,39,-41,2,4,-492,0,4,-4,0
-48,-24,24,36,-36,0,9,-448,78,68,29,14
-29,-24,4,26,-17,-9,19,-405,136,122,63,29
-29,-43,-14,36,-7,-29,34,-356,151,126,63,29
-53,-87,-34,70,-9,-61,53,-366,82,29,-19,-14
-78,-122,-43,100,-17,-82,43,-419,-29,-102,-122,-73
14,-34,-48,9,31,-41,-53,-483,-87,-102,-87,-39
248,239,-9,-244,129,114,-224,-556,-34,97,146,170
639,585,-53,-612,346,265,-488,-761,-58,380,522,541
941,834,-107,-888,524,363,-673,-1068,-175,605,829,834
1117,941,-175,-1029,646,383,-780,-1288,-278,795,1044,1054
1371,1010,-361,-1190,866,324,-941,-1415,-409,971,1337,1317
1498,1102,-395,-1300,946,353,-976,-1444,-380,1210,1678,1586
1424,1088,-336,-1256,880,375,-893,-1376,-297,1434,1932,1751
1293,946,-346,-1119,819,300,-893,-1342,-278,1532,2000,1761
1117,766,-351,-941,734,207,-873,-1195,-219,1532,1966,1673
922,590,-331,-756,627,129,-800,-1068,-170,1434,1815,1507
732,497,-234,-614,483,131,-644,-980,-131,1239,1551,1259
527,429,-97,-478,312,165,-448,-927,-117,980,1263,1024
273,312,39,-292,117,175,-273,-824,-117,629,902,746
78,204,126,-141,-24,165,-146,-732,-58,434,610,507
-24,107,131,-41,-78,119,-58,-644,39,346,380,292
-122,58,180,31,-151,119,29,-556,68,224,190,136
-170,0,170,85,-170,85,48,-458,53,92,78,58
-161,-24,136,92,-148,56,29,-424,24,48,53,53
-151,-29,122,90,-136,46,29,-385,-24,29,0,14
-161,-39,122,100,-141,41,34,-375,-43,-34,-58,-29
-161,-43,117,102,-139,36,34,-336,-43,-68,-68,-29
-156,-48,107,102,-131,29,29,-331,-43,-58,-48,-14
-156,-48,107,102,-131,29,29,-322,-43,-48,-48,-14
-156,-48,107,102,-131,29,24,-366,-43,-48,-58,-19
-156,-48,107,102,-131,29,24,-414,-43,-53,-53,-19
-151,-48,102,100,-126,26,24,-380,-43,-53,-53,-14
-151,-43,107,97,-129,31,24,-331,-43,-53,-53,-14
-151,-39,112,95,-131,36,24,-273,-43,-48,-48,-14
-146,-39,107,92,-126,34,24,-204,-43,-48,-43,-14
-141,-34,107,87,-124,36,24,-234,-43,-48,-43,-9
-136,-34,102,85,-119,34,24,-224,-43,-48,-43,-9
-136,-29,107,82,-122,39,19,-219,-39,-48,-39,0
-131,-29,102,80,-117,36,14,-195,-39,-43,-39,4
-131,-29,102,80,-117,36,9,-156,-39,-43,-39,9
-131,-29,102,80,-117,36,4,-131,-39,-43,-34,9
-136,-24,112,80,-124,43,4,-102,-39,-39,-34,9
-141,-24,117,82,-129,46,0,-73,-39,-39,-34,9
-141,-19,122,80,-131,51,0,-58,-39,-39,-39,4
-141,-14,126,78,-134,56,4,-24,-39,-39,-43,0
-141,-9,131,75,-136,61,9,-24,-34,-39,-39,4
-141,-4,136,73,-139,65,14,9,-34,-39,-39,4
-141,0,141,70,-141,70,9,19,-34,-39,-34,9
-141,4,146,68,-143,75,9,48,-34,-39,-29,9
-141,4,146,68,-143,75,9,43,-34,-39,-34,9
-141,4,146,68,-143,75,9,53,-39,-43,-34,9
-146,4,151,70,-148,78,9,63,-39,-43,-39,9
-161,0,161,80,-161,80,9,78,-48,-48,-53,0
-165,4,170,80,-168,87,9,29,-48,-53,-53,0
-170,4,175,82,-173,90,9,68,-48,-53,-63,-4
-170,4,175,82,-173,90,14,136,-48,-58,-68,-4
-170,4,175,82,-173,90,14,136,-58,-68,-82,-14
-180,14,195,82,-187,104,24,151,-63,-73,-82,-19
-195,19,214,87,-204,117,29,165,-68,-87,-97,-29
-200,24,224,87,-212,124,34,180,-73,-97,-97,-34
-229,24,253,102,-241,139,34,200,-82,-107,-122,-43
-244,24,268,109,-256,146,43,214,-82,-122,-131,-53
-253,24,278,114,-265,151,43,234,-92,-151,-156,-73
-268,29,297,119,-283,163,58,263,-102,-170,-170,-87
-287,29,317,129,-302,173,63,273,-112,-195,-200,-107
-317,29,346,143,-331,187,78,283,-122,-219,-219,-122
-341,29,370,156,-356,200,87,283,-141,-244,-248,-141
-366,24,390,170,-378,207,107,292,-151,-263,-273,-161
-390,14,405,187,-397,209,122,283,-156,-287,-297,-190
-405,9,414,197,-409,212,136,302,-175,-312,-326,-204
-429,4,434,212,-431,219,151,302,-180,-341,-356,-229
-448,4,453,222,-451,229,165,307,-190,-361,-380,-244
-473,4,478,234,-475,241,175,307,-200,-385,-409,-268
-483,0,483,241,-483,241,190,326,-200,-400,-424,-283
-492,-4,488,248,-490,241,204,346,-200,-414,-439,-297
-497,-9,488,253,-492,239,214,356,-200,-424,-458,-307
-507,-19,488,263,-497,234,214,356,-200,-439,-468,-322
-507,-34,473,270,-490,219,209,356,-185,-439,-473,-326
-507,-48,458,278,-483,204,204,380,-170,-439,-473,-326
-497,-53,444,275,-470,195,204,400,-151,-429,-473,-326
-473,-58,414,265,-444,178,195,419,-131,-409,-463,-322
-448,-63,385,256,-417,161,180,424,-107,-380,-444,-297
-419,-63,356,241,-387,146,156,439,-87,-361,-419,-278
-385,-63,322,224,-353,129,141,439,-68,-326,-395,-258
-361,-63,297,212,-329,117,117,448,-53,-292,-356,-229
-317,-58,258,187,-287,100,102,448,-29,-253,-317,-200
-278,-53,224,165,-251,85,82,473,-19,-224,-283,-165
-248,-34,214,141,-231,90,58,468,-4,-195,-248,-136
-224,-24,200,124,-212,87,39,473,4,-161,-214,-112
-200,-9,190,104,-195,90,19,488,14,-146,-185,-87
-170,-4,165,87,-168,80,0,502,14,-126,-165,-68
-156,0,156,78,-156,78,-9,522,19,-102,-131,-43
-136,14,151,61,-143,82,-24,536,19,-82,-107,-34
-117,19,136,48,-126,78,-29,522,24,-63,-82,-14
-107,24,131,41,-119,78,-39,512,24,-53,-73,-4
-97,24,122,36,-109,73,-43,497,24,-39,-58,9
-87,29,117,29,-102,73,-53,507,24,-24,-53,19
-78,29,107,24,-92,68,-58,488,29,-9,-39,34
-68,34,102,17,-85,68,-63,478,29,-4,-24,34
-68,39,107,14,-87,73,-68,478,29,4,-14,53
-58,39,97,9,-78,68,-68,483,29,4,-14,53
-58,39,97,9,-78,68,-73,483,29,9,-9,58
-53,43,97,4,-75,70,-78,492,29,14,0,63
-48,48,97,0,-73,73,-78,492,29,14,4,68
-43,53,97,-4,-70,75,-78,483,29,14,9,68
-39,53,92,-7,-65,73,-78,478,29,19,14,73
-39,53,92,-7,-65,73,-78,488,29,19,14,73
-39,48,87,-4,-63,68,-78,478,29,19,14,73
-39,43,82,-2,-61,63,-78,483,24,19,14,73
-39,43,82,-2,-61,63,-78,453,24,19,14,73
-48,43,92,2,-70,68,-78,434,19,19,9,73
-48,43,92,2,-70,68,-73,390,19,19,9,68
-48,43,92,2,-70,68,-68,351,19,14,9,63
-48,43,92,2,-70,68,-63,317,19,14,9,63
-48,43,92,2,-70,68,-63,297,19,9,4,63
-53,43,97,4,-75,70,-63,278,14,9,0,63
-53,43,97,4,-75,70,-58,273,14,9,-4,63
-53,39,92,7,-73,65,-53,248,14,9,-4,63
-53,39,92,7,-73,65,-48,244,4,4,-9,58
-63,39,102,12,-82,70,-48,229,4,0,-14,58
-63,39,102,12,-82,70,-48,224,4,0,-14,53
-63,39,102,12,-82,70,-48,209,4,0,-14,53
-63,39,102,12,-82,70,-48,200,4,-4,-19,53
-68,39,107,14,-87,73,-43,190,4,-4,-19,53
-68,34,102,17,-85,68,-43,185,-4,-9,-19,48
-68,34,102,17,-85,68,-39,175,-4,-9,-14,48
-68,34,102,17,-85,68,-39,161,-4,-9,-9,48
-68,29,97,19,-82,63,-39,175,-4,-9,-9,48
-68,29,97,19,-82,63,-39,175,-4,-9,-14,48
-63,29,92,17,-78,61,-43,141,-4,-9,-14,48
-63,24,87,19,-75,56,-48,126,-9,-14,-14,43
-63,24,87,19,-75,56,-43,117,-4,-14,-14,48
-63,24,87,19,-75,56,-43,117,0,-14,-14,53
-58,29,87,14,-73,58,-43,87,0,-14,-14,53
-58,34,92,12,-75,63,-43,87,-4,-14,-14,53
-58,29,87,14,-73,58,-39,73,-4,-14,-14,53
-53,29,82,12,-68,56,-34,73,-9,-14,-14,53
-53,24,78,14,-65,51,-34,63,-14,-14,-14,48
-53,19,73,17,-63,46,-34,63,-14,-14,-14,43
-58,14,73,21,-65,43,-34,19,-14,-14,-19,43
-63,9,73,26,-68,41,-34,0,-14,-14,-24,43
-63,9,73,26,-68,41,-34,-58,-9,-14,-19,43
-53,9,63,21,-58,36,-34,-97,-9,-14,-19,43
-48,4,53,21,-51,29,-34,-102,-9,-14,-19,48
-39,4,43,17,-41,24,-34,-87,-9,-14,-19,53
-39,9,48,14,-43,29,-34,-82,-14,-9,-14,53
-39,14,53,12,-46,34,-34,-73,-14,-4,-9,53
-29,9,39,9,-34,24,-34,-73,-14,-4,-9,53
-24,9,34,7,-29,21,-34,-63,-14,-4,-9,53
-14,9,24,2,-19,17,-34,-63,-14,-4,-4,53
-9,9,19,0,-14,14,-34,-53,-9,-4,-4,53
-9,9,19,0,-14,14,-34,-107,-9,-4,-4,53
-4,9,14,-2,-9,12,-34,-165,-9,-4,-4,53
-9,4,14,2,-12,9,-39,-214,-14,-4,-4,53
-9,-4,4,7,-7,0,-39,-253,-14,-4,-4,53
-4,-4,0,4,-2,-2,-39,-283,-14,-4,-4,53
0,-4,-4,2,2,-4,-39,-292,-14,-4,0,53
4,-4,-9,0,7,-7,-34,-273,-14,-4,0,53
4,-4,-9,0,7,-7,-29,-248,-14,0,0,53
0,-4,-4,2,2,-4,-24,-229,-14,-4,0,48
-4,-4,0,4,-2,-2,-24,-195,-14,-9,0,43
-4,-4,0,4,-2,-2,-29,-180,-14,-9,-4,43
-4,-4,0,4,-2,-2,-34,-156,-19,-9,-9,43
-4,-9,-4,7,0,-7,-29,-141,-19,-4,-4,48
0,-9,-9,4,4,-9,-24,-117,-14,-4,-4,48
-4,0,4,2,-4,2,-24,-112,-9,-4,-4,48
-4,4,9,0,-7,7,-24,-97,-9,4,-4,48
-4,4,9,0,-7,7,-19,-87,-9,4,0,48
4,24,19,-14,-7,21,-14,-92,0,9,4,53
4,34,29,-19,-12,31,0,-87,14,19,9,53
9,48,39,-29,-14,43,19,-87,29,29,19,58
9,53,43,-31,-17,48,24,-82,29,29,19,58
9,58,48,-34,-19,53,29,-78,29,29,19,58
14,68,53,-41,-19,61,39,-68,39,34,29,63
19,73,53,-46,-17,63,39,-53,48,39,34,63
29,82,53,-56,-12,68,39,-39,63,43,39,68
39,87,48,-63,-4,68,19,-43,68,58,53,82
58,107,48,-82,4,78,4,-58,73,63,63,87
73,117,43,-95,14,80,-14,-63,68,73,63,92
78,141,63,-109,7,102,-24,-78,58,68,63,92
87,156,68,-122,9,112,-34,-82,53,68,73,107
112,185,73,-148,19,129,-43,-82,53,73,78,122
122,195,73,-158,24,134,-43,-73,53,82,87,131
146,214,68,-180,39,141,-58,-63,58,87,97,136
156,224,68,-190,43,146,-63,-58,63,92,102,141
151,214,63,-183,43,139,-73,-73,63,92,102,136
117,180,63,-148,26,122,-73,-82,48,78,87,131
97,156,58,-126,19,107,-73,-73,34,68,78,117
78,122,43,-100,17,82,-73,-73,29,53,63,107
43,92,48,-68,-2,70,-53,-68,9,39,48,82
4,53,48,-29,-21,51,-48,-63,-9,9,19,63
-4,14,19,-4,-12,17,-43,-58,-29,-4,0,39
-14,-4,9,9,-12,2,-39,-78,-39,-14,-19,24
-29,-14,14,21,-21,0,-39,-107,-43,-34,-24,9
-34,-19,14,26,-24,-2,-34,-117,-53,-34,-29,4
-39,-24,14,31,-26,-4,-29,-107,-53,-34,-39,4
-48,-24,24,36,-36,0,-29,-107,-53,-34,-39,0
-48,-29,19,39,-34,-4,-29,-102,-53,-39,-34,-4
-48,-29,19,39,-34,-4,-29,-97,-53,-39,-34,-4
-48,-29,19,39,-34,-4,-29,-97,-53,-39,-39,-4
-48,-29,19,39,-34,-4,-24,-92,-53,-39,-39,-4
-53,-34,19,43,-36,-7,-24,-87,-53,-39,-39,-9
-53,-34,19,43,-36,-7,-24,-82,-53,-39,-39,-9
-63,-34,29,48,-46,-2,-24,-92,-58,-43,-48,-9
-68,-34,34,51,-51,0,-24,-122,-58,-43,-39,-9
-68,-34,34,51,-51,0,-19,-122,-58,-43,-39,-9
-68,-34,34,51,-51,0,-19,-122,-53,-39,-39,-9
-63,-29,34,46,-48,2,-19,-122,-53,-39,-39,-9
-58,-29,29,43,-43,0,-19,-136,-48,-34,-34,-4
-58,-29,29,43,-43,0,-19,-141,-48,-34,-34,-4
-58,-24,34,41,-46,4,-19,-161,-39,-24,-29,0
-53,-24,29,39,-41,2,-14,-180,-34,-19,-29,4
-43,-14,29,29,-36,7,-4,-170,0,14,0,19
-39,-4,34,21,-36,14,0,-136,78,68,34,34
-19,4,24,7,-21,14,9,-97,156,131,73,48
-19,-24,-4,21,-7,-14,24,-53,170,141,73,48
-53,-82,-29,68,-12,-56,43,-68,92,39,-9,-4
-92,-131,-39,112,-26,-85,34,-141,-29,-102,-126,-78
-9,-68,-58,39,24,-63,-53,-219,-82,-112,-117,-48
204,170,-34,-187,119,68,-214,-283,-68,34,82,141
580,522,-58,-551,319,231,-478,-497,-112,287,444,492
883,771,-112,-827,497,329,-668,-824,-253,483,732,761
1073,863,-209,-968,641,326,-780,-1102,-400,619,922,956
1342,941,-400,-1141,871,270,-956,-1283,-507,810,1220,1229
1488,1049,-439,-1268,963,305,-1005,-1327,-497,1054,1561,1517
1434,1049,-385,-1241,910,331,-932,-1268,-400,1312,1830,1693
1317,907,-409,-1112,863,248,-941,-1239,-351,1454,1932,1722
1156,766,-390,-961,773,187,-893,-1083,-283,1459,1927,1668
946,600,-346,-773,646,126,-805,-936,-219,1366,1790,1517
746,478,-268,-612,507,104,-663,-854,-190,1185,1537,1268
546,424,-122,-485,334,151,-468,-810,-175,951,1254,1034
292,331,39,-312,126,185,-292,-688,-136,634,917,780
87,224,136,-156,-24,180,-165,-527,-53,439,629,546
-14,122,136,-53,-75,129,-78,-400,34,341,395,312
-107,78,185,14,-146,131,14,-346,68,234,214,156
-161,19,180,70,-170,100,39,-273,53,102,97,78
-151,-14,136,82,-143,61,19,-239,24,58,73,73
-136,-29,107,82,-122,39,19,-209,-24,39,19,34
-141,-39,102,90,-122,31,24,-209,-43,-24,-39,-9
-141,-43,97,92,-119,26,24,-180,-43,-58,-48,-9
-136,-48,87,92,-112,19,19,-165,-43,-48,-29,4
-136,-43,92,90,-114,24,19,-146,-39,-39,-29,4
-136,-39,97,87,-117,29,14,-136,-34,-39,-43,0
-136,-39,97,87,-117,29,9,-141,-34,-43,-43,0
-131,-39,92,85,-112,26,4,-151,-34,-43,-43,4
-136,-39,97,87,-117,29,4,-170,-34,-43,-48,4
-141,-39,102,90,-122,31,4,-185,-34,-39,-48,4
-136,-43,92,90,-114,24,9,-156,-34,-39,-43,4
-136,-43,92,90,-114,24,14,-175,-34,-39,-43,9
-136,-43,92,90,-114,24,14,-165,-34,-34,-43,9
-136,-39,97,87,-117,29,9,-146,-29,-29,-39,14
-131,-34,97,82,-114,31,4,-117,-29,-24,-39,14
-131,-29,102,80,-117,36,4,-107,-29,-24,-39,19
-131,-29,102,80,-117,36,4,-92,-29,-24,-34,19
-131,-24,107,78,-119,41,4,-82,-29,-19,-34,19
-126,-24,102,75,-114,39,0,-73,-29,-19,-29,19
-122,-19,102,70,-112,41,0,-68,-29,-19,-24,19
-122,-14,107,68,-114,46,4,-43,-29,-19,-24,19
-122,-9,112,65,-117,51,4,-43,-24,-19,-19,24
-131,-4,126,68,-129,61,4,-9,-24,-19,-24,24
-141,-4,136,73,-139,65,0,0,-24,-19,-29,24
-141,-4,136,73,-139,65,0,29,-19,-19,-29,19
-141,-4,136,73,-139,65,0,48,-14,-19,-34,19
-136,-4,131,70,-134,63,0,82,-19,-24,-34,19
-131,0,131,65,-131,65,0,97,-19,-24,-34,19
-141,0,141,70,-141,70,0,92,-29,-34,-43,9
-146,9,156,68,-151,82,0,78,-29,-43,-43,9
-156,14,170,70,-163,92,0,136,-29,-43,-53,4
-165,14,180,75,-173,97,4,165,-29,-48,-58,4
-170,14,185,78,-178,100,4,204,-39,-58,-73,-4
-180,19,200,80,-190,109,14,253,-43,-63,-73,-9
-195,19,214,87,-204,117,24,263,-43,-73,-87,-19
-195,24,219,85,-207,122,34,278,-43,-78,-87,-24
-219,24,244,97,-231,134,34,283,-53,-87,-107,-34
-234,24,258,104,-246,141,48,312,-58,-102,-112,-43
-244,24,268,109,-256,146,48,346,-73,-126,-136,-63
-258,29,287,114,-273,158,58,395,-82,-141,-151,-78
-278,29,307,124,-292,168,63,405,-87,-161,-180,-97
-307,29,336,139,-322,183,78,434,-92,-180,-200,-112
-331,29,361,151,-346,195,87,439,-112,-204,-224,-126
-356,29,385,163,-370,207,107,458,-122,-229,-248,-141
-380,24,405,178,-392,214,122,473,-122,-253,-273,-170
-400,19,419,190,-409,219,136,473,-136,-273,-297,-185
-429,19,448,204,-439,234,151,497,-136,-297,-326,-209
-448,19,468,214,-458,244,165,512,-141,-312,-351,-224
-468,14,483,226,-475,248,175,517,-151,-336,-375,-244
-478,9,488,234,-483,248,190,546,-151,-356,-390,-258
-492,4,497,244,-495,251,200,590,-151,-370,-409,-278
-497,0,497,248,-497,248,204,619,-151,-375,-429,-287
-512,-9,502,261,-507,246,204,644,-151,-390,-439,-302
-517,-19,497,268,-507,239,204,668,-136,-390,-444,-307
-522,-29,492,275,-507,231,204,717,-122,-390,-444,-302
-517,-34,483,275,-500,224,204,751,-102,-380,-444,-297
-492,-43,448,268,-470,202,195,785,-87,-366,-434,-292
-468,-53,414,261,-441,180,185,814,-68,-341,-414,-273
-434,-53,380,244,-407,163,161,858,-48,-326,-390,-258
-395,-53,341,224,-368,143,141,888,-29,-297,-366,-239
-366,-53,312,209,-339,129,117,922,-19,-263,-326,-209
-317,-48,268,183,-292,109,97,946,0,-224,-287,-180
-278,-43,234,161,-256,95,73,976,4,-200,-258,-146
-244,-29,214,136,-229,92,48,985,14,-175,-229,-117
-214,-24,190,119,-202,82,29,1000,24,-141,-195,-92
-190,-9,180,100,-185,85,9,1015,34,-122,-165,-68
-161,-4,156,82,-158,75,-9,1029,29,-102,-156,-58
-146,0,146,73,-146,73,-19,1034,34,-82,-131,-39
-126,14,141,56,-134,78,-39,1034,39,-68,-107,-24
-107,19,126,43,-117,73,-48,1005,43,-53,-82,-4
-97,24,122,36,-109,73,-58,1000,43,-43,-73,4
-87,29,117,29,-102,73,-63,1005,43,-29,-53,19
-73,39,112,17,-92,75,-68,1015,43,-9,-39,29
-58,39,97,9,-78,68,-68,1015,48,9,-19,43
-48,43,92,2,-70,68,-73,1019,48,14,-4,43
-48,48,97,0,-73,73,-78,1015,48,24,4,63
-43,43,87,0,-65,65,-82,1000,48,19,4,63
-48,39,87,4,-68,63,-87,980,48,19,9,63
-43,43,87,0,-65,65,-87,985,48,24,14,63
-43,43,87,0,-65,65,-87,966,48,24,9,68
-43,43,87,0,-65,65,-87,941,48,24,9,73
-39,43,82,-2,-61,63,-87,912,48,29,14,82
-39,43,82,-2,-61,63,-87,897,48,29,14,82
-39,43,82,-2,-61,63,-87,878,48,29,14,82
-39,43,82,-2,-61,63,-87,873,43,29,14,82
-39,43,82,-2,-61,63,-87,844,43,29,14,82
-43,43,87,0,-65,65,-87,829,43,29,9,82
-39,43,82,-2,-61,63,-87,824,48,29,9,82
-39,43,82,-2,-61,63,-87,819,48,29,9,82
-39,43,82,-2,-61,63,-82,800,48,34,9,82
-39,43,82,-2,-61,63,-82,795,48,29,4,82
-43,43,87,0,-65,65,-82,766,43,29,4,82
-43,43,87,0,-65,65,-78,751,48,29,4,82
-43,39,82,2,-63,61,-73,727,53,29,4,82
-39,39,78,0,-58,58,-68,722,43,24,4,78
-43,39,82,2,-63,61,-68,707,43,19,4,78
-43,39,82,2,-63,61,-68,702,39,19,4,73
-43,39,82,2,-63,61,-68,683,34,19,4,73
-43,39,82,2,-63,61,-68,673,34,14,0,73
-48,39,87,4,-68,63,-63,649,34,14,0,73
-48,34,82,7,-65,58,-63,653,24,9,0,68
-48,34,82,7,-65,58,-58,658,24,9,0,68
-48,34,82,7,-65,58,-58,658,24,9,-4,68
-48,29,78,9,-63,53,-58,663,24,9,-9,68
-48,29,78,9,-63,53,-63,688,24,9,-14,68
-48,29,78,9,-63,53,-68,683,24,9,-14,68
-48,24,73,12,-61,48,-68,658,19,0,-14,58
-43,24,68,9,-56,46,-63,673,19,-4,-14,53
-43,24,68,9,-56,46,-63,688,19,-4,-14,53
-39,24,63,7,-51,43,-63,673,19,-4,-14,53
-39,24,63,7,-51,43,-63,678,14,-4,-14,58
-39,19,58,9,-48,39,-63,668,14,-4,-14,63
-34,19,53,7,-43,36,-63,668,9,-4,-9,63
-34,19,53,7,-43,36,-63,658,9,-4,-4,63
-29,19,48,4,-39,34,-63,658,14,-4,-4,63
-24,19,43,2,-34,31,-63,634,14,-4,-4,63
-24,19,43,2,-34,31,-63,634,14,-4,-9,63
-24,19,43,2,-34,31,-63,614,14,-4,-9,63
-14,19,34,-2,-24,26,-58,614,4,-4,-9,63
-14,14,29,0,-21,21,-53,595,0,-4,-9,63
-9,14,24,-2,-17,19,-53,590,0,-4,-9,63
-9,14,24,-2,-17,19,-53,575,-4,-4,-9,63
-9,14,24,-2,-17,19,-53,566,-4,-4,-9,63
-4,9,14,-2,-9,12,-53,551,-4,-4,-9,63
-4,9,14,-2,-9,12,-58,546,-4,-4,-9,63
0,9,9,-4,-4,9,-63,531,-4,-4,-4,63
0,9,9,-4,-4,9,-63,531,0,-4,-4,63
0,9,9,-4,-4,9,-63,527,0,-4,-4,63
4,14,9,-9,-2,12,-63,527,0,-4,-4,63
4,19,14,-12,-4,17,-63,522,-4,-4,-4,63
4,14,9,-9,-2,12,-58,502,-4,-4,-4,63
4,14,9,-9,-2,12,-58,468,-4,-4,-4,63
4,9,4,-7,0,7,-58,463,-4,-4,0,63
4,4,0,-4,2,2,-58,453,-4,-4,0,63
4,0,-4,-2,4,-2,-58,453,-4,0,0,63
0,-4,-4,2,2,-4,-53,439,-4,0,0,63
-4,-4,0,4,-2,-2,-53,439,-4,0,0,63
-4,-4,0,4,-2,-2,-53,429,0,0,0,63
-4,0,4,2,-4,2,-53,434,0,0,0,63
0,9,9,-4,-4,9,-43,429,4,4,4,68
4,24,19,-14,-7,21,-34,429,9,9,9,73
14,43,29,-29,-7,36,-24,434,14,19,14,78
14,53,39,-34,-12,46,-14,434,24,29,19,82
19,68,48,-43,-14,58,-9,439,39,39,29,87
19,68,48,-43,-14,58,0,439,43,39,29,87
19,68,48,-43,-14,58,9,439,48,39,29,87
29,78,48,-53,-9,63,9,453,58,43,34,87
39,97,58,-68,-9,78,4,453,68,53,43,97
53,117,63,-85,-4,90,0,453,78,68,58,107
78,151,73,-114,2,112,-9,458,87,73,78,122
97,175,78,-136,9,126,-24,453,92,87,82,131
107,209,102,-158,2,156,-34,444,92,92,82,131
126,224,97,-175,14,161,-43,444,97,102,97,146
161,253,92,-207,34,173,-53,444,102,112,107,161
161,253,92,-207,34,173,-53,453,102,122,117,170
165,253,87,-209,39,170,-68,453,102,122,122,170
151,239,87,-195,31,163,-73,453,92,112,112,165
131,209,78,-170,26,143,-82,453,82,102,102,151
97,170,73,-134,12,122,-82,458,68,87,87,141
82,146,63,-114,9,104,-82,473,53,78,78,126
63,112,48,-87,7,80,-82,473,48,58,58,117
24,82,58,-53,-17,70,-68,478,29,39,39,92
-14,48,63,-17,-39,56,-68,473,9,9,9,73
-24,14,39,4,-31,26,-63,463,-9,-4,-4,53
-29,-4,24,17,-26,9,-58,439,-14,-14,-19,43
-39,-14,24,26,-31,4,-58,405,-14,-34,-24,29
-43,-19,24,31,-34,2,-53,385,-24,-34,-24,24
-43,-24,19,34,-31,-2,-48,380,-24,-34,-29,24
-48,-24,24,36,-36,0,-48,370,-24,-29,-29,19
-48,-29,19,39,-34,-4,-48,356,-24,-29,-24,19
-48,-29,19,39,-34,-4,-48,341,-24,-29,-24,24
-48,-29,19,39,-34,-4,-48,336,-24,-29,-29,24
-48,-29,19,39,-34,-4,-43,331,-24,-29,-29,24
-53,-34,19,43,-36,-7,-43,331,-24,-29,-29,19
-53,-34,19,43,-36,-7,-43,336,-24,-29,-29,14
-58,-34,24,46,-41,-4,-43,336,-29,-34,-39,9
-58,-34,24,46,-41,-4,-43,326,-29,-34,-29,4
-58,-34,24,46,-41,-4,-39,336,-29,-34,-29,0
-58,-34,24,46,-41,-4,-39,336,-24,-29,-29,0
-58,-29,29,43,-43,0,-39,336,-24,-29,-29,0
-58,-29,29,43,-43,0,-39,322,-19,-24,-24,4
-58,-29,29,43,-43,0,-39,317,-19,-24,-24,4
-58,-19,39,39,-48,9,-39,317,-9,-14,-19,9
-53,-14,39,34,-46,12,-34,317,-4,-14,-19,9
-43,-4,39,24,-41,17,-24,341,29,14,9,14
-39,-4,34,21,-36,14,-19,390,97,68,39,24
-19,-4,14,12,-17,4,0,434,165,122,73,29
-19,-24,-4,21,-7,-14,24,483,190,126,73,19
-48,-68,-19,58,-14,-43,34,488,131,48,0,-14
-78,-102,-24,90,-26,-63,14,448,29,-63,-92,-63
39,-9,-48,-14,43,-29,-78,390,-9,-58,-58,-29
297,268,-29,-283,163,119,-244,322,63,146,175,180
688,629,-58,-658,373,285,-507,112,97,453,561,551
990,893,-97,-941,544,397,-692,-200,39,702,878,844
1185,1000,-185,-1093,685,407,-785,-463,-63,868,1073,1058
1459,1068,-390,-1263,924,339,-932,-634,-195,1019,1346,1317
1605,1176,-429,-1390,1017,373,-951,-678,-195,1239,1673,1586
1551,1176,-375,-1363,963,400,-854,-624,-141,1444,1912,1751
1424,1029,-395,-1227,910,317,-868,-605,-151,1517,1986,1771
1254,844,-409,-1049,832,217,-863,-473,-122,1493,1956,1693
1029,634,-395,-832,712,119,-819,-326,-82,1415,1825,1537
810,507,-302,-658,556,102,-692,-219,-53,1239,1581,1298
590,453,-136,-522,363,158,-483,-170,-39,1010,1302,1063
322,351,29,-336,146,190,-292,-73,-39,688,951,785
117,234,117,-175,0,175,-175,78,4,468,639,527
4,126,122,-65,-58,124,-97,224,87,356,390,292
-97,78,175,9,-136,126,-4,283,112,234,200,136
-151,19,170,65,-161,95,19,351,92,102,87,58
-141,-9,131,75,-136,61,0,385,63,58,68,58
-131,-19,112,75,-122,46,0,424,14,39,19,24
-136,-29,107,82,-122,39,4,434,-9,-24,-39,-19
-131,-34,97,82,-114,31,4,473,-14,-58,-48,-19
-126,-39,87,82,-107,24,4,492,-14,-48,-29,-4
-126,-39,87,82,-107,24,9,517,-14,-39,-29,-4
-126,-39,87,82,-107,24,4,551,-9,-39,-43,-9
-126,-39,87,82,-107,24,4,580,-4,-43,-43,-9
-122,-39,82,80,-102,21,0,600,-4,-39,-43,-4
-122,-34,87,78,-104,26,-4,634,-4,-34,-43,-4
-122,-29,92,75,-107,31,-4,663,-4,-29,-39,-4
-117,-29,87,73,-102,29,-4,702,-4,-29,-34,-4
-117,-29,87,73,-102,29,-4,668,-9,-29,-39,0
-117,-34,82,75,-100,24,-4,673,-14,-29,-43,0
-117,-29,87,73,-102,29,-9,663,-9,-34,-39,0
-112,-29,82,70,-97,26,-14,673,-9,-34,-39,-4
-112,-24,87,68,-100,31,-14,688,-9,-34,-39,0
-112,-19,92,65,-102,36,-14,688,-9,-34,-34,0
-107,-9,97,58,-102,43,-14,688,-9,-29,-34,4
-102,-4,97,53,-100,46,-19,688,-9,-29,-34,9
-102,0,102,51,-102,51,-19,683,-9,-24,-29,14
-102,4,107,48,-104,56,-14,697,-9,-19,-24,19
-102,4,107,48,-104,56,-14,663,-4,-19,-19,24
-102,4,107,48,-104,56,-14,663,-4,-19,-19,24
-107,0,107,53,-107,53,-14,634,-4,-29,-24,19
-112,-4,107,58,-109,51,-9,624,-4,-39,-29,9
-117,-4,112,61,-114,53,-9,634,-4,-39,-34,9
-122,-4,117,63,-119,56,-9,658,-9,-43,-34,9
-122,0,122,61,-122,61,-9,673,-9,-43,-34,9
-131,0,131,65,-131,65,-9,692,-19,-48,-43,0
-136,9,146,63,-141,78,-9,644,-19,-53,-43,0
-141,14,156,63,-148,85,-9,683,-19,-53,-53,-4
-146,14,161,65,-153,87,-4,746,-19,-58,-53,-4
-151,14,165,68,-158,90,-4,741,-29,-68,-63,-14
-161,19,180,70,-170,100,4,751,-34,-68,-63,-19
-175,19,195,78,-185,107,9,761,-39,-78,-78,-29
-175,24,200,75,-187,112,14,780,-43,-87,-78,-34
-200,24,224,87,-212,124,14,805,-53,-97,-102,-43
-214,29,244,92,-229,136,29,863,-58,-112,-112,-53
-224,34,258,95,-241,146,34,927,-73,-141,-136,-73
-234,43,278,95,-256,161,53,990,-82,-161,-151,-87
-248,48,297,100,-273,173,63,1034,-92,-185,-180,-107
-278,48,326,114,-302,187,78,1102,-107,-209,-200,-122
-302,48,351,126,-326,200,87,1161,-131,-234,-229,-141
-331,48,380,141,-356,214,107,1229,-141,-258,-258,-161
-361,43,405,158,-383,224,122,1278,-146,-287,-287,-190
-380,34,414,173,-397,224,136,1356,-165,-312,-317,-204
-409,24,434,192,-422,229,151,1415,-170,-341,-346,-229
-429,19,448,204,-439,234,165,1473,-180,-361,-370,-239
-453,14,468,219,-461,241,175,1527,-190,-385,-400,-258
-468,9,478,229,-473,244,185,1586,-195,-405,-419,-278
-483,4,488,239,-485,246,195,1644,-200,-424,-439,-297
-488,0,488,244,-488,244,204,1693,-200,-429,-458,-307
-497,-9,488,253,-492,239,204,1732,-200,-439,-468,-322
-492,-24,468,258,-480,222,204,1786,-180,-439,-473,-322
-488,-39,448,263,-468,204,204,1864,-161,-439,-473,-317
-473,-43,429,258,-451,192,204,1908,-141,-429,-468,-317
-444,-48,395,246,-419,173,195,1952,-122,-409,-453,-312
-419,-53,366,236,-392,156,185,1947,-97,-380,-434,-292
-390,-53,336,222,-363,141,165,1952,-78,-361,-409,-278
-356,-53,302,204,-329,124,156,1912,-58,-326,-385,-258
-331,-53,278,192,-305,112,136,1883,-43,-292,-346,-229
-287,-48,239,168,-263,95,117,1922,-19,-248,-307,-200
-248,-43,204,146,-226,80,92,1986,-9,-214,-273,-165
-209,-29,180,119,-195,75,68,1991,4,-185,-239,-136
-175,-24,151,100,-163,63,48,2005,14,-151,-204,-112
-151,-4,146,78,-148,70,29,1956,29,-131,-175,-87
-122,4,126,58,-124,65,9,1908,34,-107,-156,-68
-107,9,117,48,-112,63,0,1893,43,-82,-126,-39
-87,24,112,31,-100,68,-14,1873,48,-63,-107,-24
-73,24,97,24,-85,61,-19,1878,53,-48,-82,-9
-68,24,92,21,-80,58,-29,1888,53,-43,-73,-4
-58,29,87,14,-73,58,-34,1893,53,-29,-53,9
-48,39,87,4,-68,63,-43,1922,53,-14,-43,19
-39,39,78,0,-58,58,-48,1947,58,0,-29,34
-29,43,73,-7,-51,58,-53,1981,58,4,-14,34
-29,48,78,-9,-53,63,-63,2000,58,19,0,53
-19,48,68,-14,-43,58,-68,2025,58,24,4,53
-14,53,68,-19,-41,61,-68,2025,58,29,9,58
-4,63,68,-29,-36,65,-68,2034,58,34,19,63
-4,63,68,-29,-36,65,-68,2015,58,34,19,68
-4,63,68,-29,-36,65,-68,1986,58,34,19,68
-4,63,68,-29,-36,65,-68,1932,58,39,24,73
-9,63,73,-26,-41,68,-68,1893,58,39,24,73
-9,63,73,-26,-41,68,-68,1893,58,29,14,73
-9,63,73,-26,-41,68,-68,1908,53,19,4,73
-9,63,73,-26,-41,68,-63,1893,53,19,4,68
-19,63,82,-21,-51,73,-58,1888,48,19,0,63
-24,63,87,-19,-56,75,-58,1859,48,24,4,63
-29,63,92,-17,-61,78,-58,1834,48,24,9,63
-29,58,87,-14,-58,73,-53,1815,48,24,9,63
-29,53,82,-12,-56,68,-53,1810,48,19,4,63
-34,53,87,-9,-61,70,-53,1756,43,19,4,63
-34,53,87,-9,-61,70,-48,1717,43,19,4,63
-34,53,87,-9,-61,70,-43,1708,48,19,4,63
-34,58,92,-12,-63,75,-39,1717,43,14,0,58
-43,58,102,-7,-73,80,-39,1747,43,9,-4,58
-43,58,102,-7,-73,80,-39,1786,43,9,-4,53
-43,58,102,-7,-73,80,-39,1815,39,9,-4,53
-43,58,102,-7,-73,80,-39,1849,34,4,-9,53
-53,58,112,-2,-82,85,-39,1849,34,0,-14,53
-58,53,112,2,-85,82,-43,1854,24,-9,-19,48
-63,48,112,7,-87,80,-39,1864,24,-9,-19,48
-68,43,112,12,-90,78,-39,1869,24,-9,-19,48
-68,39,107,14,-87,73,-39,1942,24,-4,-9,48
-68,39,107,14,-87,73,-39,2000,24,0,-4,48
-63,39,102,12,-82,70,-34,2005,24,0,-14,48
-63,34,97,14,-80,65,-29,2030,19,-4,-24,43
-63,34,97,14,-80,65,-24,2093,14,-9,-24,39
-63,34,97,14,-80,65,-24,2166,9,-14,-24,34
-63,34,97,14,-80,65,-24,2181,9,-14,-24,34
-68,34,102,17,-85,68,-24,2225,4,-14,-24,34
-68,29,97,19,-82,63,-29,2230,4,-14,-24,39
-63,29,92,17,-78,61,-34,2249,0,-14,-24,43
-58,29,87,14,-73,58,-34,2274,0,-9,-19,43
-53,29,82,12,-68,56,-34,2308,4,-4,-14,43
-53,29,82,12,-68,56,-34,2342,4,-4,-14,43
-53,29,82,12,-68,56,-34,2400,4,-4,-14,43
-63,29,92,17,-78,61,-34,2405,4,-4,-9,43
-63,29,92,17,-78,61,-34,2430,0,-4,-9,43
-63,24,87,19,-75,56,-34,2449,0,-4,-9,43
-58,24,82,17,-70,53,-34,2488,0,-4,-9,43
-58,24,82,17,-70,53,-34,2537,-4,-4,-14,43
-58,24,82,17,-70,53,-34,2591,-4,-4,-19,43
-58,19,78,19,-68,48,-34,2615,-4,-4,-19,43
-63,19,82,21,-73,51,-34,2649,-4,-4,-19,43
-58,19,78,19,-68,48,-34,2698,-4,-4,-14,43
-58,19,78,19,-68,48,-34,2757,0,-4,-14,43
-58,19,78,19,-68,48,-34,2796,0,-4,-14,43
-53,19,73,17,-63,46,-34,2830,0,-4,-14,43
-58,19,78,19,-68,48,-34,2874,-4,-4,-14,43
-58,14,73,21,-65,43,-29,2928,-4,-4,-14,43
-53,14,68,19,-61,41,-29,2971,-4,-4,-14,43
-48,14,63,17,-56,39,-29,3035,-4,-4,-9,43
-39,14,53,12,-46,34,-29,3118,-4,-9,-9,43
-34,14,48,9,-41,31,-29,3206,-4,-9,-9,43
-39,14,53,12,-46,34,-24,3225,-4,-9,-9,43
-43,14,58,14,-51,36,-24,3259,-4,-9,-9,43
-43,14,58,14,-51,36,-24,3289,0,-9,-9,43
-43,14,58,14,-51,36,-24,3328,0,-9,-9,43
-43,14,58,14,-51,36,-19,3362,0,-4,-4,48
-39,24,63,7,-51,43,-14,3401,9,-4,-4,48
-29,29,58,0,-43,43,-4,3406,14,4,0,48
-19,39,58,-9,-39,48,4,3411,24,14,4,48
-19,43,63,-12,-41,53,9,3386,29,19,4,48
-19,48,68,-14,-43,58,19,3367,39,29,9,48
-19,48,68,-14,-43,58,24,3347,39,29,9,48
-19,48,68,-14,-43,58,29,3328,39,29,9,48
-9,63,73,-26,-41,68,34,3362,53,39,19,58
4,87,82,-46,-39,85,34,3367,68,53,34,68
24,117,92,-70,-34,104,34,3372,82,73,48,82
58,161,102,-109,-21,131,29,3367,97,82,68,92
73,180,107,-126,-17,143,19,3347,102,97,78,107
78,209,131,-143,-26,170,14,3323,102,102,82,112
87,224,136,-156,-24,180,4,3294,112,107,102,126
112,253,141,-183,-14,197,-4,3264,122,112,117,141
107,244,136,-175,-14,190,-4,3191,112,117,112,141
107,234,126,-170,-9,180,-19,3108,102,112,102,131
102,219,117,-161,-7,168,-29,3089,97,107,97,131
92,190,97,-141,-2,143,-43,3069,92,102,92,122
58,151,92,-104,-17,122,-43,3020,78,87,78,112
43,126,82,-85,-19,104,-43,2981,63,78,68,97
34,87,53,-61,-9,70,-48,2957,58,58,48,82
4,53,48,-29,-21,51,-39,2937,39,39,29,53
-34,14,48,9,-41,31,-39,2888,14,9,0,34
-43,-24,19,34,-31,-2,-34,2835,-9,-4,-14,14
-48,-39,9,43,-29,-14,-29,2835,-19,-14,-29,9
-58,-43,14,51,-36,-14,-29,2825,-24,-34,-34,0
-63,-48,14,56,-39,-17,-24,2810,-34,-34,-34,-4
-63,-53,9,58,-36,-21,-19,2810,-34,-34,-39,-4
-68,-53,14,61,-41,-19,-19,2791,-34,-34,-39,-9
-68,-58,9,63,-39,-24,-19,2766,-34,-39,-34,-9
-68,-58,9,63,-39,-24,-19,2727,-34,-39,-39,-4
-68,-58,9,63,-39,-24,-19,2698,-34,-39,-48,-4
-73,-58,14,65,-43,-21,-14,2684,-34,-43,-48,-4
-82,-63,19,73,-51,-21,-14,2674,-34,-48,-48,-9
-82,-63,19,73,-51,-21,-14,2669,-34,-48,-48,-9
-87,-63,24,75,-56,-19,-14,2659,-39,-53,-58,-9
-87,-63,24,75,-56,-19,-19,2640,-39,-48,-48,-4
-87,-63,24,75,-56,-19,-19,2640,-39,-43,-48,0
-82,-63,19,73,-51,-21,-19,2640,-34,-39,-43,0
-78,-58,19,68,-48,-19,-19,2640,-34,-39,-39,0
-78,-58,19,68,-48,-19,-24,2625,-29,-34,-34,4
-78,-58,19,68,-48,-19,-29,2620,-29,-34,-34,4
-82,-53,29,68,-56,-12,-29,2615,-29,-29,-34,9
-82,-53,29,68,-56,-12,-24,2610,-34,-34,-39,9
-73,-43,29,58,-51,-7,-14,2669,0,-4,-9,19
-68,-43,24,56,-46,-9,-9,2752,68,48,19,34
-39,-34,4,36,-21,-14,0,2879,156,126,58,48
-29,-43,-14,36,-7,-29,14,3010,200,156,63,48
-82,-107,-24,95,-29,-65,48,3045,136,58,-19,-9
-136,-161,-24,148,-56,-92,53,3035,29,-73,-122,-82
-97,-131,-34,114,-31,-82,4,2986,-14,-117,-146,-92
82,82,0,-82,41,41,-117,2928,53,39,29,73
483,507,24,-495,229,265,-400,2693,117,400,463,478
795,834,39,-814,378,436,-605,2357,87,702,829,805
990,961,-29,-976,509,466,-712,2064,-14,907,1049,1024
1263,1049,-214,-1156,739,417,-873,1864,-146,1098,1346,1288
1459,1200,-258,-1329,858,470,-922,1815,-151,1351,1722,1600
1454,1244,-209,-1349,832,517,-854,1864,-102,1590,2010,1810
1371,1102,-268,-1237,819,417,-858,1883,-122,1708,2132,1878
1244,922,-322,-1083,783,300,-844,2015,-102,1727,2152,1849
1034,683,-351,-858,692,165,-844,2156,-78,1649,2034,1688
829,527,-302,-678,566,112,-761,2259,-63,1473,1805,1444
624,473,-151,-549,387,161,-541,2327,-63,1200,1498,1210
370,370,0,-370,185,185,-341,2444,-78,834,1117,932
136,239,102,-187,17,170,-214,2586,-34,570,771,644
-4,117,122,-56,-63,119,-126,2723,48,414,488,380
-117,63,180,26,-148,122,0,2806,87,278,258,195
-180,0,180,90,-180,90,58,2898,82,131,107,87
-170,-43,126,107,-148,41,29,2971,53,78,82,78
-161,-68,92,114,-126,12,19,3050,4,48,29,34
-170,-78,92,124,-131,7,24,3098,-24,-14,-39,-9
-170,-82,87,126,-129,2,24,3176,-34,-48,-58,-9
-161,-82,78,122,-119,-2,14,3196,-34,-39,-39,4
-156,-78,78,117,-117,0,9,3220,-34,-29,-39,4
-156,-78,78,117,-117,0,4,3230,-29,-34,-58,-4
-156,-78,78,117,-117,0,4,3235,-24,-43,-63,-9
-161,-82,78,122,-119,-2,9,3196,-24,-48,-68,-4
-170,-82,87,126,-129,2,14,3172,-24,-53,-73,-4
-170,-78,92,124,-131,7,14,3142,-29,-48,-68,-4
-165,-78,87,122,-126,4,14,3123,-34,-48,-63,-4
-156,-73,82,114,-119,4,14,3054,-34,-43,-58,0
-146,-73,73,109,-109,0,14,3025,-34,-39,-53,0
-146,-68,78,107,-112,4,9,3035,-29,-39,-48,4
-141,-68,73,104,-107,2,4,3064,-29,-34,-48,4
-146,-68,78,107,-112,4,4,3093,-29,-34,-48,9
-151,-68,82,109,-117,7,4,3108,-29,-34,-43,9
-156,-63,92,109,-124,14,4,3123,-29,-34,-43,9
-161,-63,97,112,-129,17,0,3137,-29,-39,-43,9
-161,-58,102,109,-131,21,0,3220,-29,-39,-48,9
-161,-53,107,107,-134,26,4,3323,-29,-39,-53,9
-156,-48,107,102,-131,29,4,3391,-24,-39,-48,14
-151,-43,107,97,-129,31,4,3494,-24,-39,-48,14
-151,-39,112,95,-131,36,0,3572,-24,-34,-48,14
-151,-34,117,92,-134,41,0,3669,-24,-29,-48,9
-151,-34,117,92,-134,41,0,3752,-24,-29,-53,9
-151,-34,117,92,-134,41,0,3850,-29,-34,-53,9
-146,-29,117,87,-131,43,0,3913,-29,-34,-48,14
-151,-29,122,90,-136,46,0,3982,-39,-39,-53,9
-156,-19,136,87,-146,58,0,4001,-39,-48,-53,9
-161,-14,146,87,-153,65,0,4108,-39,-53,-63,4
-170,-14,156,92,-163,70,4,4206,-39,-58,-68,4
-180,-14,165,97,-173,75,4,4235,-48,-68,-82,-4
-190,-9,180,100,-185,85,14,4313,-53,-73,-82,-9
-204,-9,195,107,-200,92,19,4392,-58,-87,-97,-19
-200,-4,195,102,-197,95,24,4431,-58,-97,-92,-24
-219,-4,214,112,-217,104,24,4474,-63,-107,-112,-34
-234,0,234,117,-234,117,39,4494,-68,-117,-122,-43
-244,4,248,119,-246,126,43,4518,-82,-141,-146,-63
-263,9,273,126,-268,141,53,4533,-92,-161,-165,-78
-287,9,297,139,-292,153,53,4528,-102,-185,-200,-97
-317,9,326,153,-322,168,68,4553,-117,-209,-219,-112
-341,9,351,165,-346,180,78,4567,-141,-234,-248,-131
-361,9,370,175,-366,190,97,4548,-156,-258,-278,-151
-380,4,385,187,-383,195,112,4509,-165,-287,-307,-180
-400,0,400,200,-400,200,126,4489,-185,-322,-336,-200
-429,-4,424,217,-427,209,141,4450,-190,-361,-366,-229
-448,-9,439,229,-444,214,156,4450,-200,-380,-395,-244
-473,-14,458,244,-466,222,165,4445,-209,-405,-429,-268
-488,-19,468,253,-478,224,180,4450,-214,-424,-448,-287
-502,-24,478,263,-490,226,195,4455,-219,-444,-468,-307
-507,-29,478,268,-492,224,209,4465,-219,-453,-488,-317
-517,-39,478,278,-497,219,214,4465,-219,-468,-497,-331
-517,-48,468,283,-492,209,214,4455,-204,-473,-507,-336
-517,-58,458,287,-488,200,214,4470,-190,-478,-512,-336
-512,-63,448,287,-480,192,219,4470,-170,-468,-512,-336
-492,-68,424,280,-458,178,214,4470,-151,-448,-502,-331
-468,-73,395,270,-431,161,204,4445,-126,-419,-483,-312
-439,-73,366,256,-402,146,185,4431,-107,-400,-458,-297
-409,-73,336,241,-373,131,170,4416,-87,-366,-434,-278
-390,-73,317,231,-353,122,146,4411,-73,-331,-395,-248
-346,-68,278,207,-312,104,126,4382,-43,-292,-356,-224
-307,-63,244,185,-275,90,102,4377,-29,-263,-322,-195
-273,-48,224,161,-248,87,78,4343,-14,-234,-287,-165
-244,-43,200,143,-222,78,58,4318,-4,-200,-253,-141
-219,-29,190,124,-204,80,43,4299,9,-170,-219,-112
-190,-24,165,107,-178,70,29,4279,14,-136,-195,-87
-175,-19,156,97,-165,68,19,4284,24,-112,-161,-58
-156,-4,151,80,-153,73,4,4284,29,-92,-136,-43
-136,4,141,65,-139,73,-9,4255,39,-68,-102,-19
-126,14,141,56,-134,78,-29,4230,43,-53,-82,-4
-112,19,131,46,-122,75,-34,4211,43,-34,-63,14
-97,29,126,34,-112,78,-43,4216,43,-14,-53,29
-87,29,117,29,-102,73,-43,4216,48,0,-39,43
-78,34,112,21,-95,73,-43,4226,48,4,-24,43
-78,39,117,19,-97,78,-48,4206,48,14,-14,58
-68,39,107,14,-87,73,-48,4191,48,14,-14,53
-68,39,107,14,-87,73,-48,4152,48,19,-9,53
-63,43,107,9,-85,75,-48,4123,48,24,0,53
-63,43,107,9,-85,75,-48,4094,48,24,0,63
-63,43,107,9,-85,75,-48,4055,48,24,0,68
-58,48,107,4,-82,78,-48,4001,48,29,4,73
-58,53,112,2,-85,82,-48,3962,48,29,4,73
-58,53,112,2,-85,82,-48,3933,48,29,4,68
-58,53,112,2,-85,82,-48,3918,43,29,4,63
-58,48,107,4,-82,78,-48,3850,43,29,4,63
-68,43,112,12,-90,78,-48,3791,39,29,0,63
-68,43,112,12,-90,78,-48,3767,39,29,0,68
-68,43,112,12,-90,78,-48,3747,39,24,0,73
-63,43,107,9,-85,75,-43,3708,39,24,0,73
-58,43,102,7,-80,73,-43,3684,39,19,-4,73
-63,43,107,9,-85,75,-43,3645,34,19,-4,68
-63,43,107,9,-85,75,-39,3620,34,19,-4,63
-63,34,97,14,-80,65,-34,3572,34,19,0,63
-63,29,92,17,-78,61,-29,3542,24,14,0,58
-73,29,102,21,-87,65,-29,3513,24,9,-4,58
-73,29,102,21,-87,65,-29,3494,24,9,-4,53
-73,29,102,21,-87,65,-29,3459,24,9,-4,53
-73,29,102,21,-87,65,-29,3430,24,4,-9,53
-73,34,107,19,-90,70,-24,3401,24,4,-9,58
-68,34,102,17,-85,68,-24,3376,14,0,-9,58
-68,39,107,14,-87,73,-19,3352,14,0,-14,58
-68,43,112,12,-90,78,-19,3323,14,0,-19,58
-68,39,107,14,-87,73,-19,3284,9,-4,-19,53
-68,39,107,14,-87,73,-19,3230,4,-9,-24,48
-68,39,107,14,-87,73,-19,3113,4,-9,-24,48
-73,34,107,19,-90,70,-19,3015,0,-14,-24,43
-73,34,107,19,-90,70,-14,2967,0,-14,-24,43
-73,34,107,19,-90,70,-14,2928,0,-14,-24,43
-63,34,97,14,-80,65,-14,2859,0,-9,-19,48
-58,34,92,12,-75,63,-14,2820,-4,-4,-14,53
-58,24,82,17,-70,53,-14,2781,-4,-4,-14,53
-53,19,73,17,-63,46,-14,2757,-9,-4,-14,53
-48,19,68,14,-58,43,-14,2708,-9,-4,-14,53
-43,19,63,12,-53,41,-14,2669,-4,-4,-14,53
-43,19,63,12,-53,41,-14,2644,-4,-4,-14,53
-43,19,63,12,-53,41,-14,2644,-4,-4,-14,53
-43,19,63,12,-53,41,-14,2605,0,-4,-9,53
-34,19,53,7,-43,36,-14,2586,0,-4,-9,53
-34,14,48,9,-41,31,-14,2542,0,-4,-9,53
-29,14,43,7,-36,29,-14,2518,0,-4,-9,53
-29,14,43,7,-36,29,-14,2444,-4,-4,-9,53
-29,14,43,7,-36,29,-14,2376,-4,-4,-9,53
-24,9,34,7,-29,21,-14,2347,-4,-4,-9,53
-24,9,34,7,-29,21,-14,2327,-4,-4,-9,53
-19,9,29,4,-24,19,-14,2298,-9,-4,-9,53
-19,9,29,4,-24,19,-14,2278,-9,-4,-14,53
-19,14,34,2,-26,24,-14,2254,-9,-4,-14,53
-14,19,34,-2,-24,26,-14,2225,-9,-4,-14,53
-14,19,34,-2,-24,26,-14,2191,-14,-4,-9,53
-9,14,24,-2,-17,19,-9,2166,-14,-4,-4,53
-9,9,19,0,-14,14,-9,2127,-14,-4,-4,53
-9,4,14,2,-12,9,-9,2108,-14,-4,0,53
-4,4,9,0,-7,7,-9,2054,-14,-4,0,53
-4,4,9,0,-7,7,-9,2005,-14,0,0,53
-4,4,9,0,-7,7,-9,1942,-14,0,0,53
-4,4,9,0,-7,7,-14,1893,-14,0,0,53
-4,4,9,0,-7,7,-14,1844,-9,0,0,53
-4,4,9,0,-7,7,-14,1805,-9,0,0,53
-4,0,4,2,-4,2,-9,1747,-14,4,4,58
0,0,0,0,0,0,-4,1698,-14,4,4,58
0,4,4,-2,-2,4,-9,1634,-9,-4,0,53
4,4,0,-4,2,2,-14,1581,-9,-4,-4,48
0,-4,-4,2,2,-4,-14,1546,-14,-4,-4,48
0,0,0,0,0,0,-14,1507,-14,-4,-9,48
0,0,0,0,0,0,-19,1459,-14,0,-9,48
-9,-4,4,7,-7,0,-24,1410,-14,0,-9,43
-14,-14,0,14,-7,-7,-19,1351,-14,-4,-4,48
-19,-24,-4,21,-7,-14,-19,1317,-14,-9,-4,43
-14,-9,4,12,-9,-2,-9,1268,-19,0,-9,43
-14,-4,9,9,-12,2,-9,1239,-14,4,-4,34
-4,9,14,-2,-9,12,-9,1215,-9,9,4,43
4,19,14,-12,-4,17,-9,1190,0,14,9,48
0,29,29,-14,-14,29,4,1156,9,19,14,53
0,39,39,-19,-19,39,19,1122,19,29,19,58
0,48,48,-24,-24,48,24,1102,24,34,24,58
0,58,58,-29,-29,58,29,1083,29,39,29,58
4,58,53,-31,-24,56,39,1034,39,39,29,58
9,63,53,-36,-21,58,43,980,48,39,29,58
19,73,53,-46,-17,63,48,927,63,43,29,58
29,87,58,-58,-14,73,39,844,68,58,43,73
48,112,63,-80,-7,87,24,761,73,63,58,78
63,126,63,-95,0,95,4,688,68,73,63,82
68,151,82,-109,-7,117,-4,639,63,73,63,82
78,165,87,-122,-4,126,-14,600,63,78,73,97
102,195,92,-148,4,143,-24,551,63,82,82,112
112,204,92,-158,9,148,-24,512,63,92,97,122
131,219,87,-175,21,153,-39,473,63,97,102,126
136,224,87,-180,24,156,-43,429,63,102,102,131
131,209,78,-170,26,143,-53,380,63,102,102,126
97,170,73,-134,12,122,-53,336,48,87,87,122
82,146,63,-114,9,104,-53,326,34,78,78,107
68,112,43,-90,12,78,-53,307,29,63,63,97
34,82,48,-58,-7,65,-39,258,9,48,48,73
-4,43,48,-19,-26,46,-39,209,-9,19,19,53
-9,4,14,2,-12,9,-34,204,-29,4,4,34
-14,-14,0,14,-7,-7,-29,175,-39,-4,-9,24
-29,-24,4,26,-17,-9,-29,126,-43,-24,-14,9
-34,-29,4,31,-19,-12,-24,97,-53,-24,-19,4
-34,-29,4,31,-19,-12,-19,73,-53,-24,-29,4
-39,-24,14,31,-26,-4,-19,39,-53,-24,-29,0
-39,-29,9,34,-24,-9,-19,-9,-53,-29,-24,-4
-39,-29,9,34,-24,-9,-19,-58,-53,-29,-24,-4
-39,-34,4,36,-21,-14,-14,-78,-53,-29,-29,-4
-39,-39,0,39,-19,-19,-4,-92,-53,-29,-29,-4
-43,-43,0,43,-21,-21,-4,-107,-53,-29,-29,-4
-43,-43,0,43,-21,-21,-4,-122,-53,-29,-29,0
-48,-39,9,43,-29,-14,-4,-122,-58,-34,-39,0
-48,-34,14,41,-31,-9,-4,-141,-58,-34,-29,0
-48,-34,14,41,-31,-9,0,-161,-58,-34,-29,0
-48,-34,14,41,-31,-9,0,-180,-53,-29,-29,0
-48,-29,19,39,-34,-4,0,-195,-53,-29,-29,0
-48,-29,19,39,-34,-4,0,-224,-48,-24,-24,4
-43,-29,14,36,-29,-7,-4,-239,-48,-24,-19,4
-39,-24,14,31,-26,-4,-9,-268,-39,-14,-9,9
-34,-24,9,29,-21,-7,-4,-297,-34,-9,-9,9
-24,-14,9,19,-17,-2,4,-297,0,24,19,19
-24,-19,4,21,-14,-7,9,-292,68,78,48,34
-9,-24,-14,17,2,-19,19,-283,136,141,82,48
-9,-43,-34,26,12,-39,34,-253,161,146,82,48
-43,-92,-48,68,2,-70,53,-283,92,39,0,-4
-73,-117,-43,95,-14,-80,43,-341,-19,-78,-97,-63
19,-29,-48,4,34,-39,-43,-405,-63,-63,-68,-19
248,234,-14,-241,131,109,-204,-478,4,156,175,200
639,610,-29,-624,334,290,-468,-702,14,483,580,580
936,883,-53,-910,495,414,-653,-990,-68,732,912,873
1122,1000,-122,-1061,622,439,-761,-1229,-156,922,1146,1093
1381,1068,-312,-1224,846,378,-912,-1385,-263,1137,1449,1366
1517,1166,-351,-1342,934,407,-936,-1405,-253,1405,1795,1654
1459,1161,-297,-1310,878,431,-863,-1371,-170,1620,2049,1810
1337,1015,-322,-1176,829,346,-873,-1366,-136,1717,2137,1820
1176,834,-341,-1005,758,246,-854,-1254,-107,1708,2103,1747
966,629,-336,-797,651,146,-795,-1151,-82,1600,1937,1576
761,507,-253,-634,507,126,-649,-1083,-73,1361,1654,1322
556,453,-102,-505,329,175,-448,-1054,-78,1068,1342,1083
312,346,34,-329,139,190,-273,-961,-82,727,976,805
117,224,107,-170,4,165,-146,-829,-43,507,658,546
4,117,112,-61,-53,114,-58,-732,39,375,409,312
-97,68,165,14,-131,117,34,-707,68,234,214,156
-151,9,161,70,-156,85,58,-668,48,117,97,78
-141,-24,117,82,-129,46,39,-668,14,87,73,73
-126,-39,87,82,-107,24,39,-649,-34,53,19,34
-131,-48,82,90,-107,17,43,-658,-53,-24,-39,-9
-131,-53,78,92,-104,12,39,-668,-53,-48,-43,-9
-126,-58,68,92,-97,4,29,-692,-53,-29,-19,4
-126,-58,68,92,-97,4,29,-688,-48,-19,-19,4
-126,-58,68,92,-97,4,24,-692,-43,-19,-34,0
-126,-58,68,92,-97,4,24,-707,-43,-24,-34,0
-122,-58,63,90,-92,2,24,-727,-43,-24,-34,4
-122,-53,68,87,-95,7,29,-741,-43,-24,-34,4
-122,-48,73,85,-97,12,34,-751,-43,-19,-29,4
-117,-53,63,85,-90,4,34,-741,-43,-19,-24,4
-117,-53,63,85,-90,4,34,-780,-43,-19,-24,9
-117,-53,63,85,-90,4,34,-800,-48,-19,-24,9
-117,-48,68,82,-92,9,29,-810,-48,-19,-19,14
-112,-43,68,78,-90,12,24,-800,-48,-14,-24,14
-112,-39,73,75,-92,17,24,-810,-48,-14,-29,19
-107,-39,68,73,-87,14,24,-814,-43,-14,-24,19
-102,-34,68,68,-85,17,24,-824,-39,-9,-24,19
-102,-34,68,68,-85,17,19,-839,-39,-9,-19,19
-102,-29,73,65,-87,21,19,-858,-39,-9,-14,19
-102,-24,78,63,-90,26,24,-863,-39,-9,-14,19
-102,-19,82,61,-92,31,24,-893,-34,-9,-9,24
-102,-14,87,58,-95,36,24,-897,-34,-9,-9,24
-102,-14,87,58,-95,36,19,-927,-34,-9,-9,24
-102,-9,92,56,-97,41,19,-922,-34,-9,-9,19
-102,-4,97,53,-100,46,19,-927,-34,-9,-14,19
-107,-4,102,56,-104,48,19,-917,-39,-14,-14,19
-112,0,112,56,-112,56,19,-927,-39,-14,-14,19
-122,-4,117,63,-119,56,19,-951,-48,-24,-24,9
-126,0,126,63,-126,63,19,-985,-48,-34,-24,9
-126,4,131,61,-129,68,19,-951,-48,-34,-34,4
-126,4,131,61,-129,68,24,-946,-48,-39,-39,4
-131,4,136,63,-134,70,19,-976,-58,-48,-53,-4
-141,9,151,65,-146,80,24,-995,-63,-53,-53,-9
-156,9,165,73,-161,87,29,-1024,-68,-68,-73,-24
-156,14,170,70,-163,92,34,-1049,-73,-78,-78,-34
-180,14,195,82,-187,104,34,-1073,-82,-87,-102,-43
-195,14,209,90,-202,112,48,-1073,-87,-102,-112,-53
-209,14,224,97,-217,119,53,-1083,-102,-131,-136,-68
-229,19,248,104,-239,134,68,-1078,-112,-151,-151,-78
-248,19,268,114,-258,143,73,-1098,-122,-170,-180,-97
-278,19,297,129,-287,158,87,-1098,-131,-190,-200,-112
-297,19,317,139,-307,168,97,-1112,-151,-214,-229,-131
-317,19,336,148,-326,178,117,-1112,-161,-239,-258,-151
-341,14,356,163,-348,185,131,-1107,-165,-268,-287,-180
-361,9,370,175,-366,190,146,-1117,-185,-292,-317,-195
-390,4,395,192,-392,200,161,-1112,-190,-326,-346,-219
-409,0,409,204,-409,204,175,-1117,-200,-351,-370,-234
-434,-4,429,219,-431,212,185,-1146,-209,-375,-400,-258
-448,-9,439,229,-444,214,200,-1151,-209,-395,-419,-278
-463,-14,448,239,-456,217,214,-1137,-209,-414,-439,-297
-468,-19,448,244,-458,214,224,-1137,-209,-424,-458,-307
-478,-29,448,253,-463,209,224,-1141,-209,-439,-473,-322
-478,-39,439,258,-458,200,224,-1146,-195,-439,-483,-326
-478,-48,429,263,-453,190,219,-1122,-180,-439,-483,-326
-468,-53,414,261,-441,180,214,-1112,-161,-429,-483,-326
-444,-58,385,251,-414,163,204,-1107,-141,-414,-473,-322
-419,-63,356,241,-387,146,195,-1107,-117,-390,-453,-302
-390,-63,326,226,-358,131,175,-1098,-97,-370,-429,-287
-356,-63,292,209,-324,114,161,-1102,-78,-336,-405,-268
-331,-63,268,197,-300,102,136,-1093,-63,-302,-366,-239
-287,-58,229,173,-258,85,117,-1093,-39,-263,-326,-209
-248,-53,195,151,-222,70,92,-1083,-29,-234,-292,-175
-214,-39,175,126,-195,68,68,-1093,-14,-204,-258,-146
-190,-34,156,112,-173,61,48,-1088,-4,-170,-224,-122
-170,-19,151,95,-161,65,29,-1083,4,-151,-195,-97
-141,-19,122,80,-131,51,9,-1098,0,-126,-175,-78
-126,-19,107,73,-117,43,0,-1122,4,-102,-141,-48
-102,-4,97,53,-100,46,-14,-1102,9,-82,-117,-34
-78,0,78,39,-78,39,-19,-1112,14,-63,-92,-14
-68,4,73,31,-70,39,-29,-1132,14,-53,-82,-4
-58,9,68,24,-63,39,-34,-1141,14,-39,-63,9
-48,24,73,12,-61,48,-43,-1127,14,-24,-53,19
-39,29,68,4,-53,48,-48,-1122,19,-9,-39,34
-29,34,63,-2,-46,48,-53,-1112,19,-4,-24,34
-29,39,68,-4,-48,53,-58,-1112,19,4,-14,53
-19,39,58,-9,-39,48,-58,-1102,19,9,-14,53
-19,39,58,-9,-39,48,-58,-1098,19,19,-9,53
-14,43,58,-14,-36,51,-58,-1073,19,24,0,53
-14,43,58,-14,-36,51,-58,-1073,19,24,0,58
-14,43,58,-14,-36,51,-58,-1073,19,24,0,63
-9,43,53,-17,-31,48,-58,-1078,19,29,4,73
-9,43,53,-17,-31,48,-58,-1063,19,29,4,73
-9,43,53,-17,-31,48,-58,-1054,19,29,4,73
-14,39,53,-12,-34,46,-58,-1024,14,24,4,68
-19,34,53,-7,-36,43,-58,-1019,14,19,4,63
-29,34,63,-2,-46,48,-58,-1015,4,19,0,63
-29,34,63,-2,-46,48,-58,-1000,0,19,0,63
-34,34,68,0,-51,51,-58,-990,0,14,0,63
-39,34,73,2,-56,53,-53,-995,0,14,0,63
-39,34,73,2,-56,53,-53,-971,0,9,-4,63
-43,34,78,4,-61,56,-53,-971,-4,9,-4,63
-43,34,78,4,-61,56,-48,-951,0,9,-4,63
-43,29,73,7,-58,51,-43,-941,4,9,-4,63
-43,29,73,7,-58,51,-39,-941,-4,4,-9,58
-53,29,82,12,-68,56,-39,-951,-4,0,-14,58
-53,29,82,12,-68,56,-39,-956,-4,0,-14,53
-53,29,82,12,-68,56,-39,-976,-4,0,-14,53
-53,29,82,12,-68,56,-39,-966,-4,-4,-14,53
-58,29,87,14,-73,58,-34,-971,-4,-4,-9,53
-58,24,82,17,-70,53,-34,-976,-14,-4,-9,48
-58,24,82,17,-70,53,-29,-980,-14,0,-9,48
-58,24,82,17,-70,53,-29,-971,-14,0,-9,48
-58,19,78,19,-68,48,-29,-956,-14,0,-9,48
-58,19,78,19,-68,48,-29,-932,-14,0,-14,48
-58,19,78,19,-68,48,-29,-936,-14,0,-14,48
-63,14,78,24,-70,46,-29,-961,-14,-4,-14,48
-63,14,78,24,-70,46,-24,-946,-9,-4,-14,53
-68,14,82,26,-75,48,-19,-936,-9,-4,-14,53
-68,14,82,26,-75,48,-14,-956,-9,-4,-14,53
-78,9,87,34,-82,48,-14,-941,-14,-4,-14,48
-87,0,87,43,-87,43,-14,-941,-14,-4,-14,43
-82,0,82,41,-82,41,-19,-932,-19,-4,-14,43
-82,0,82,41,-82,41,-24,-932,-19,-4,-14,43
-78,0,78,39,-78,39,-24,-917,-14,-4,-14,43
-73,0,73,36,-73,36,-24,-927,-14,-4,-14,43
-73,0,73,36,-73,36,-24,-927,-14,-4,-19,43
-73,0,73,36,-73,36,-24,-946,-14,-4,-19,43
-68,0,68,34,-68,34,-24,-936,-19,-4,-19,43
-73,-4,68,39,-70,31,-24,-946,-19,-4,-19,43
-68,-4,63,36,-65,29,-24,-946,-19,-4,-14,43
-68,-4,63,36,-65,29,-24,-956,-24,-4,-9,43
-68,0,68,34,-68,34,-24,-956,-24,-4,-9,43
-63,0,63,31,-63,31,-24,-961,-24,-4,-9,43
-58,0,58,29,-58,29,-19,-961,-24,-4,-9,43
-48,0,48,24,-48,24,-14,-971,-24,-4,-4,43
-48,0,48,24,-48,24,-14,-966,-19,-4,-4,43
-48,0,48,24,-48,24,-14,-966,-19,-4,-4,43
-48,0,48,24,-48,24,-14,-971,-19,-4,-4,43
-53,0,53,26,-53,26,-14,-980,-24,-4,-4,43
-53,-4,48,29,-51,21,-14,-980,-24,-4,-9,43
-53,-4,48,29,-51,21,-19,-995,-24,-4,-14,43
-53,-4,48,29,-51,21,-19,-985,-24,-4,-9,43
-53,-4,48,29,-51,21,-19,-980,-24,-4,-9,43
-53,-4,48,29,-51,21,-19,-976,-24,0,-9,43
-58,-4,53,31,-56,24,-14,-985,-24,0,-9,43
-53,-4,48,29,-51,21,-14,-980,-24,0,-9,43
-43,-4,39,24,-41,17,-14,-985,-19,0,-9,43
-43,-4,39,24,-41,17,-14,-980,-19,-4,-9,39
-43,-4,39,24,-41,17,-9,-985,-19,-4,-4,39
-43,-4,39,24,-41,17,-9,-985,-19,-9,-4,39
-48,0,48,24,-48,24,-14,-995,-19,-14,-4,39
-48,-4,43,26,-46,19,-14,-985,-24,-4,-9,34
-53,-14,39,34,-46,12,-9,-985,-24,-4,-9,29
-48,-4,43,26,-46,19,-4,-985,-19,-9,-9,29
-39,-4,34,21,-36,14,-4,-985,-19,-4,-4,34
-43,-4,39,24,-41,17,-4,-976,-14,-4,-4,29
-39,4,43,17,-41,24,0,-976,-9,-4,0,34
-29,4,34,12,-31,19,4,-956,-4,0,4,34
-19,24,43,-2,-31,34,4,-956,0,9,9,43
-19,39,58,-9,-39,48,14,-946,9,19,14,43
-19,58,78,-19,-48,68,29,-936,19,29,19,48
-14,68,82,-26,-48,75,34,-922,24,29,24,48
-9,78,87,-34,-48,82,39,-907,29,29,29,48
-9,78,87,-34,-48,82,39,-893,34,34,29,48
-4,78,82,-36,-43,80,39,-873,43,39,29,43
0,82,82,-41,-41,82,39,-854,53,43,29,43
9,87,78,-48,-34,82,29,-854,58,58,43,53
29,107,78,-68,-24,92,19,-858,63,58,58,63
43,117,73,-80,-14,95,4,-854,58,63,63,73
48,141,92,-95,-21,117,-4,-858,53,63,63,68
58,156,97,-107,-19,126,-14,-854,53,68,73,78
82,190,107,-136,-12,148,-24,-854,53,78,78,92
92,204,112,-148,-9,158,-24,-844,53,92,87,102
112,219,107,-165,2,163,-39,-834,58,92,92,112
117,224,107,-170,4,165,-43,-829,63,92,92,122
122,219,97,-170,12,158,-53,-829,63,92,97,112
97,190,92,-143,2,141,-53,-824,48,78,87,102
82,165,82,-124,0,124,-53,-814,39,73,78,87
68,131,63,-100,2,97,-53,-814,39,63,63,78
34,112,78,-73,-21,95,-39,-810,19,48,48,58
-4,82,87,-39,-46,85,-39,-805,0,19,19,43
-19,29,48,-4,-34,39,-34,-805,-24,4,4,24
-34,-4,29,19,-31,12,-29,-829,-39,-4,-9,14
-48,-14,34,31,-41,9,-29,-849,-43,-29,-14,0
-53,-19,34,36,-43,7,-24,-849,-53,-34,-19,-4
-53,-24,29,39,-41,2,-19,-844,-53,-34,-34,-4
-58,-24,34,41,-46,4,-19,-849,-53,-34,-39,-9
-58,-29,29,43,-43,0,-14,-849,-53,-34,-34,-14
-58,-29,29,43,-43,0,-9,-849,-53,-29,-34,-14
-58,-29,29,43,-43,0,-9,-868,-53,-29,-39,-14
-58,-29,29,43,-43,0,-4,-883,-53,-29,-39,-14
-63,-34,29,48,-46,-2,-4,-878,-53,-34,-39,-19
-63,-34,29,48,-46,-2,-4,-873,-53,-39,-39,-19
-73,-34,39,53,-56,2,-4,-863,-58,-43,-48,-19
-78,-34,43,56,-61,4,-4,-873,-58,-43,-39,-19
-78,-34,43,56,-61,4,-4,-863,-58,-43,-39,-14
-78,-34,43,56,-61,4,-9,-854,-53,-39,-39,-9
-78,-29,48,53,-63,9,-9,-814,-53,-39,-39,-9
-78,-29,48,53,-63,9,-9,-790,-48,-34,-34,-4
-78,-29,48,53,-63,9,-9,-746,-53,-34,-34,-9
-78,-24,53,51,-65,14,-9,-717,-48,-24,-29,-9
-73,-24,48,48,-61,12,-4,-707,-43,-24,-29,-9
-63,-14,48,39,-56,17,4,-668,-9,4,0,0
-58,-14,43,36,-51,14,9,-610,63,63,34,19
-39,-14,24,26,-31,4,19,-546,136,131,73,39
-39,-34,4,36,-21,-14,39,-473,170,156,73,39
-73,-82,-9,78,-31,-46,63,-458,112,68,-9,-14
-117,-141,-24,129,-46,-82,58,-478,-19,-92,-131,-97
-39,-87,-48,63,4,-68,-24,-502,-82,-122,-126,-78
180,161,-19,-170,100,70,-185,-566,-39,43,73,117
561,522,-39,-541,300,241,-448,-780,-53,317,434,473
863,785,-78,-824,470,353,-644,-1093,-180,531,736,751
1054,893,-161,-973,607,366,-761,-1356,-312,688,941,956
1342,971,-370,-1156,856,300,-932,-1542,-429,873,1239,1234
1507,1078,-429,-1293,968,324,-976,-1590,-429,1112,1581,1527
1459,1093,-366,-1276,912,363,-902,-1527,-366,1371,1869,1717
1346,966,-380,-1156,863,292,-912,-1493,-351,1512,1991,1761
1185,810,-375,-997,780,217,-883,-1346,-268,1532,1991,1708
976,629,-346,-802,661,141,-814,-1210,-190,1454,1859,1556
771,507,-263,-639,517,122,-673,-1117,-161,1268,1610,1307
566,453,-112,-509,339,170,-478,-1063,-146,1029,1332,1073
312,356,43,-334,134,200,-292,-956,-122,692,976,810
107,244,136,-175,-14,190,-156,-810,-53,478,668,566
-4,136,141,-65,-73,139,-68,-673,29,370,419,317
-107,87,195,9,-151,141,24,-610,58,253,224,146
-161,29,190,65,-175,109,48,-546,48,122,107,68
-151,-4,146,78,-148,70,29,-522,24,78,82,63
-141,-29,112,85,-126,41,29,-483,-24,58,24,24
-151,-48,102,100,-126,26,34,-473,-43,-4,-39,-19
-151,-43,107,97,-129,31,34,-439,-43,-43,-48,-19
-146,-39,107,92,-126,34,29,-419,-43,-39,-29,-4
-146,-39,107,92,-126,34,29,-380,-43,-29,-29,-4
-146,-39,107,92,-126,34,24,-351,-43,-29,-43,-9
-146,-39,107,92,-126,34,24,-326,-39,-34,-43,-9
-141,-39,102,90,-122,31,24,-307,-34,-34,-43,-4
-136,-34,102,85,-119,34,24,-312,-34,-34,-43,-4
-131,-29,102,80,-117,36,24,-312,-34,-29,-39,-4
-126,-29,97,78,-112,34,24,-268,-34,-29,-34,-4
-126,-24,102,75,-114,39,24,-273,-34,-29,-34,0
-131,-24,107,78,-119,41,24,-273,-34,-29,-34,0
-136,-19,117,78,-126,48,19,-263,-29,-29,-29,4
-131,-19,112,75,-122,46,14,-229,-29,-24,-29,0
-131,-19,112,75,-122,46,14,-214,-29,-24,-29,0
-131,-19,112,75,-122,46,19,-190,-29,-24,-24,0
-131,-14,117,73,-124,51,24,-170,-29,-19,-24,0
-131,-19,112,75,-122,46,19,-161,-29,-19,-24,0
-131,-19,112,75,-122,46,19,-156,-29,-19,-24,0
-136,-14,122,75,-129,53,19,-136,-29,-19,-24,0
-141,-9,131,75,-136,61,14,-141,-24,-19,-19,4
-141,-4,136,73,-139,65,14,-122,-24,-19,-19,4
-141,-4,136,73,-139,65,9,-126,-24,-19,-19,4
-136,0,136,68,-136,68,9,-107,-24,-19,-19,0
-131,4,136,63,-134,70,9,-97,-24,-19,-24,0
-131,4,136,63,-134,70,9,-53,-29,-24,-24,4
-131,9,141,61,-136,75,9,-29,-29,-24,-24,9
-141,9,151,65,-146,80,14,-9,-34,-29,-34,0
-146,19,165,63,-156,92,19,0,-29,-34,-34,0
-151,24,175,63,-163,100,19,58,-29,-34,-43,-4
-156,24,180,65,-168,102,24,87,-29,-39,-48,-4
-161,19,180,70,-170,100,24,97,-39,-48,-63,-19
-170,19,190,75,-180,104,34,117,-43,-53,-63,-29
-185,19,204,82,-195,112,39,126,-48,-68,-78,-39
-185,24,209,80,-197,117,43,141,-53,-78,-78,-43
-209,24,234,92,-222,129,43,131,-63,-82,-102,-53
-224,24,248,100,-236,136,58,146,-68,-92,-112,-63
-234,24,258,104,-246,141,63,151,-82,-122,-136,-82
-248,29,278,109,-263,153,78,170,-92,-141,-151,-97
-268,29,297,119,-283,163,82,161,-102,-165,-180,-117
-297,29,326,134,-312,178,97,170,-112,-190,-200,-131
-322,29,351,146,-336,190,102,156,-131,-214,-229,-151
-346,29,375,158,-361,202,117,156,-141,-239,-258,-170
-370,24,395,173,-383,209,131,161,-146,-268,-287,-200
-390,19,409,185,-400,214,146,151,-165,-292,-317,-214
-419,9,429,204,-424,219,161,156,-170,-322,-346,-239
-439,0,439,219,-439,219,175,151,-180,-341,-370,-253
-463,-4,458,234,-461,226,185,136,-190,-366,-400,-273
-478,-9,468,244,-473,229,200,146,-190,-385,-419,-287
-492,-14,478,253,-485,231,214,161,-190,-405,-439,-307
-497,-19,478,258,-488,229,224,161,-190,-414,-458,-317
-502,-24,478,263,-490,226,224,161,-190,-424,-468,-331
-497,-29,468,263,-483,219,224,161,-175,-419,-473,-336
-497,-39,458,268,-478,209,224,185,-161,-419,-473,-336
-488,-43,444,265,-466,200,224,195,-141,-409,-473,-336
-468,-48,419,258,-444,185,209,204,-126,-395,-463,-331
-448,-53,395,251,-422,170,195,209,-107,-370,-444,-312
-419,-53,366,236,-392,156,175,224,-87,-356,-419,-297
-385,-53,331,219,-358,139,161,224,-68,-326,-395,-278
-366,-53,312,209,-339,129,136,234,-53,-292,-356,-253
-326,-48,278,187,-302,114,117,234,-29,-253,-317,-229
-287,-48,239,168,-263,95,92,253,-19,-224,-283,-195
-253,-39,214,146,-234,87,68,253,-4,-195,-248,-165
-219,-34,185,126,-202,75,48,253,4,-156,-214,-141
-190,-19,170,104,-180,75,29,253,14,-131,-185,-117
-156,-9,146,82,-151,68,9,268,14,-107,-165,-92
-136,0,136,68,-136,68,0,273,24,-82,-131,-58
-117,14,131,51,-124,73,-14,287,29,-63,-107,-43
-97,19,117,39,-107,68,-19,273,34,-43,-82,-24
-92,24,117,34,-104,70,-34,253,34,-34,-73,-14
-87,29,117,29,-102,73,-43,244,34,-19,-53,0
-78,39,117,19,-97,78,-53,253,34,-4,-43,9
-68,39,107,14,-87,73,-58,253,39,9,-29,24
-53,48,102,2,-78,75,-63,263,39,14,-14,24
-48,58,107,-4,-78,82,-68,263,39,24,-4,43
-34,58,92,-12,-63,75,-68,273,39,24,0,48
-29,58,87,-14,-58,73,-68,278,39,29,9,53
-24,63,87,-19,-56,75,-68,297,39,34,19,53
-24,63,87,-19,-56,75,-68,292,39,34,19,58
-24,63,87,-19,-56,75,-68,292,39,34,19,53
-19,63,82,-21,-51,73,-68,287,39,39,24,53
-19,63,82,-21,-51,73,-68,292,39,39,24,53
-19,63,82,-21,-51,73,-68,292,39,39,24,53
-19,63,82,-21,-51,73,-68,312,34,39,24,53
-19,63,82,-21,-51,73,-68,307,34,39,24,53
-29,58,87,-14,-58,73,-68,302,29,39,19,53
-29,53,82,-12,-56,68,-68,307,29,39,19,53
-29,53,82,-12,-56,68,-68,312,29,34,19,53
-29,53,82,-12,-56,68,-63,302,29,34,19,53
-29,53,82,-12,-56,68,-63,317,29,29,14,53
-34,53,87,-9,-61,70,-63,307,24,29,14,53
-34,53,87,-9,-61,70,-58,302,24,29,14,53
-34,48,82,-7,-58,65,-53,287,24,29,14,53
-34,48,82,-7,-58,65,-43,283,14,24,9,48
-43,48,92,-2,-68,70,-39,268,14,19,4,48
-39,48,87,-4,-63,68,-39,229,19,19,4,43
-34,48,82,-7,-58,65,-39,175,24,19,4,43
-34,48,82,-7,-58,65,-39,175,24,14,0,43
-39,48,87,-4,-63,68,-34,161,24,14,0,43
-39,43,82,-2,-61,63,-34,156,9,9,-4,39
-39,43,82,-2,-61,63,-29,151,4,9,-9,39
-39,43,82,-2,-61,63,-29,146,4,4,-9,39
-39,39,78,0,-58,58,-29,146,4,0,-9,39
-34,43,78,-4,-56,61,-29,156,9,0,-9,39
-29,48,78,-9,-53,63,-29,136,14,0,-4,39
-34,43,78,-4,-56,61,-29,107,9,-4,-4,34
-34,43,78,-4,-56,61,-24,117,9,-4,-4,34
-34,39,73,-2,-53,56,-24,131,9,-4,-4,34
-29,34,63,-2,-46,48,-24,117,9,-4,-4,34
-29,34,63,-2,-46,48,-24,122,4,-4,-4,34
-29,29,58,0,-43,43,-24,112,4,-4,-4,34
-24,29,53,-2,-39,41,-24,112,0,-4,-4,34
-24,29,53,-2,-39,41,-24,102,0,-4,-4,34
-19,29,48,-4,-34,39,-24,107,0,-4,-9,34
-14,29,43,-7,-29,36,-24,87,-4,-4,-14,34
-14,29,43,-7,-29,36,-24,92,-4,-4,-14,34
-14,29,43,-7,-29,36,-24,78,-4,-4,-9,34
-4,29,34,-12,-19,31,-24,82,-4,-4,-9,34
-4,24,29,-9,-17,26,-24,68,0,-4,-9,34
0,24,24,-12,-12,24,-24,68,0,-4,-9,34
0,24,24,-12,-12,24,-24,58,-4,-4,-9,34
-4,24,29,-9,-17,26,-24,53,-4,-4,-9,34
-4,19,24,-7,-14,21,-24,43,-4,-4,-9,34
-4,19,24,-7,-14,21,-24,48,-4,-4,-9,34
0,19,19,-9,-9,19,-24,43,-4,-4,-4,34
0,19,19,-9,-9,19,-24,43,0,-4,-4,34
0,19,19,-9,-9,19,-24,39,0,-4,-4,34
4,19,14,-12,-4,17,-24,29,0,-4,0,34
4,19,14,-12,-4,17,-24,14,-4,-4,4,34
4,14,9,-9,-2,12,-19,9,-4,-4,4,34
4,14,9,-9,-2,12,-19,-9,-4,-4,4,34
0,14,14,-7,-7,14,-19,-14,-4,-4,9,34
-4,14,19,-4,-12,17,-19,-24,-4,-4,9,34
4,14,9,-9,-2,12,-19,-24,-4,0,9,34
9,14,4,-12,2,9,-14,-39,-4,0,9,34
4,24,19,-14,-7,21,-4,-39,-4,9,9,34
4,34,29,-19,-12,31,4,-48,0,19,9,34
14,43,29,-29,-7,36,14,-58,19,29,19,39
29,58,29,-43,0,43,29,-68,39,39,29,48
29,68,39,-48,-4,53,29,-68,39,39,29,48
29,78,48,-53,-9,63,29,-68,39,39,29,48
34,82,48,-58,-7,65,29,-78,48,43,39,53
43,92,48,-68,-2,70,29,-87,58,48,43,53
58,102,43,-80,7,73,29,-97,73,58,48,58
78,117,39,-97,19,78,19,-131,78,78,63,73
97,141,43,-119,26,92,9,-151,92,82,78,82
112,156,43,-134,34,100,-4,-161,97,92,82,92
117,180,63,-148,26,122,-14,-180,92,92,82,92
126,195,68,-161,29,131,-24,-190,92,97,92,107
141,219,78,-180,31,148,-29,-200,92,102,97,122
141,224,82,-183,29,153,-24,-200,92,112,107,131
156,214,58,-185,48,136,-39,-224,87,107,107,131
156,195,39,-175,58,117,-43,-253,82,102,102,131
146,180,34,-163,56,107,-53,-268,78,102,102,122
107,141,34,-124,36,87,-53,-278,58,87,87,112
92,122,29,-107,31,75,-53,-273,43,73,78,92
78,92,14,-85,31,53,-53,-278,39,53,63,78
43,63,19,-53,12,41,-39,-273,14,39,43,53
4,24,19,-14,-7,21,-39,-268,-9,9,9,34
-4,-14,-9,9,2,-12,-34,-263,-29,-4,-4,14
-14,-34,-19,24,2,-26,-29,-283,-39,-14,-19,4
-29,-43,-14,36,-7,-29,-29,-302,-39,-34,-19,-4
-34,-48,-14,41,-9,-31,-24,-302,-43,-34,-19,-4
-34,-48,-14,41,-9,-31,-19,-287,-43,-29,-29,-4
-39,-43,-4,41,-17,-24,-19,-283,-43,-24,-29,-9
-39,-48,-9,43,-14,-29,-19,-268,-43,-29,-24,-9
-39,-48,-9,43,-14,-29,-19,-253,-43,-29,-24,-4
-39,-48,-9,43,-14,-29,-19,-248,-43,-29,-29,-4
-39,-48,-9,43,-14,-29,-14,-239,-43,-29,-29,-4
-43,-53,-9,48,-17,-31,-14,-234,-43,-29,-29,-9
-43,-53,-9,48,-17,-31,-14,-229,-43,-29,-29,-9
-43,-48,-4,46,-19,-26,-14,-214,-43,-34,-39,-9
-39,-43,-4,41,-17,-24,-14,-219,-39,-34,-29,-9
-39,-43,-4,41,-17,-24,-9,-209,-39,-34,-29,-9
-39,-43,-4,41,-17,-24,-9,-200,-34,-29,-29,-9
-39,-39,0,39,-19,-19,-9,-214,-34,-29,-29,-9
-39,-39,0,39,-19,-19,-9,-244,-29,-24,-24,-4
-39,-39,0,39,-19,-19,-9,-273,-29,-24,-24,-4
-39,-34,4,36,-21,-14,-9,-317,-19,-14,-19,0
-34,-39,-4,36,-14,-21,-4,-346,-4,-9,-19,0
-24,-34,-9,29,-7,-21,4,-346,39,24,9,9
-19,-34,-14,26,-2,-24,9,-341,97,78,39,19
0,-34,-34,17,17,-34,19,-331,156,141,73,29
0,-53,-53,26,26,-53,24,-322,156,131,58,29
-34,-102,-68,68,17,-85,34,-370,63,9,-39,-24
-43,-102,-58,73,7,-80,9,-453,-48,-87,-102,-53
68,9,-58,-39,63,-24,-92,-541,-92,-53,-39,19
297,229,-68,-263,183,80,-253,-639,-92,92,161,214
688,561,-126,-624,407,217,-517,-888,-151,346,522,570
971,790,-180,-880,575,305,-702,-1180,-292,536,814,844
1141,863,-278,-1002,710,292,-810,-1424,-439,668,1010,1044
1366,922,-444,-1144,905,239,-971,-1571,-512,878,1302,1298
1468,1010,-458,-1239,963,275,-1005,-1581,-468,1141,1639,1566
1400,990,-409,-1195,905,290,-922,-1522,-375,1346,1864,1703
1268,829,-439,-1049,854,195,-922,-1493,-331,1434,1922,1693
1107,707,-400,-907,753,153,-854,-1351,-263,1424,1883,1605
897,561,-336,-729,617,112,-746,-1220,-200,1317,1712,1420
697,439,-258,-568,478,90,-605,-1137,-170,1112,1454,1180
497,385,-112,-441,305,136,-409,-1093,-156,854,1166,956
268,297,29,-283,119,163,-244,-985,-102,580,844,697
87,195,107,-141,-9,151,-126,-839,-4,429,570,458
-4,92,97,-43,-51,95,-53,-741,58,322,351,253
-87,48,136,19,-112,92,24,-717,68,204,185,126
-141,-9,131,75,-136,61,48,-673,53,82,73,48
-131,-43,87,87,-109,21,29,-668,24,48,53,43
-122,-53,68,87,-95,7,24,-658,-24,29,4,14
-131,-58,73,95,-102,7,24,-678,-43,-34,-48,-19
-131,-63,68,97,-100,2,24,-663,-43,-58,-53,-19
-126,-68,58,97,-92,-4,19,-663,-43,-39,-29,-4
-126,-68,58,97,-92,-4,19,-653,-39,-29,-29,-4
-126,-68,58,97,-92,-4,14,-653,-34,-29,-43,-9
-122,-63,58,92,-90,-2,14,-653,-34,-34,-43,-9
-112,-58,53,85,-82,-2,14,-658,-34,-34,-43,-4
-112,-53,58,82,-85,2,14,-673,-34,-34,-43,-4
-112,-48,63,80,-87,7,14,-683,-34,-29,-39,-4
-107,-48,58,78,-82,4,14,-668,-34,-29,-34,-4
-107,-43,63,75,-85,9,14,-702,-34,-29,-34,0
-107,-43,63,75,-85,9,14,-727,-34,-29,-34,0
-107,-39,68,73,-87,14,9,-741,-29,-29,-29,4
-107,-39,68,73,-87,14,9,-717,-29,-24,-29,4
-112,-39,73,75,-92,17,14,-712,-29,-24,-29,9
-112,-39,73,75,-92,17,14,-702,-24,-24,-24,9
-112,-34,78,73,-95,21,14,-697,-19,-19,-24,9
-107,-39,68,73,-87,14,4,-688,-19,-19,-24,9
-102,-39,63,70,-82,12,0,-683,-19,-19,-24,9
-102,-34,68,68,-85,17,4,-658,-19,-19,-24,9
-102,-29,73,65,-87,21,4,-658,-14,-19,-19,14
-102,-19,82,61,-92,31,9,-624,-14,-19,-19,14
-102,-14,87,58,-95,36,9,-614,-14,-19,-19,14
-102,-9,92,56,-97,41,9,-605,-14,-19,-19,9
-102,-4,97,53,-100,46,9,-605,-14,-19,-24,9
-102,-4,97,53,-100,46,9,-590,-14,-24,-24,9
-102,0,102,51,-102,51,9,-595,-9,-24,-24,9
-117,-9,107,63,-112,48,9,-580,-19,-34,-34,0
-126,-9,117,68,-122,53,9,-575,-19,-43,-34,0
-131,-4,126,68,-129,61,9,-497,-19,-43,-43,-9
-136,-4,131,70,-134,63,14,-448,-19,-48,-48,-14
-141,0,141,70,-141,70,14,-419,-29,-58,-68,-24
-151,9,161,70,-156,85,24,-380,-34,-63,-73,-29
-165,9,175,78,-170,92,29,-361,-43,-82,-92,-43
-165,14,180,75,-173,97,34,-336,-53,-97,-97,-53
-190,14,204,87,-197,109,34,-346,-63,-107,-122,-63
-204,14,219,95,-212,117,48,-331,-68,-122,-131,-73
-214,14,229,100,-222,122,53,-331,-82,-146,-151,-87
-229,19,248,104,-239,134,68,-317,-92,-161,-161,-97
-248,14,263,117,-256,139,73,-322,-97,-180,-190,-117
-278,9,287,134,-283,148,87,-307,-102,-200,-209,-131
-307,9,317,148,-312,163,97,-312,-122,-224,-239,-151
-336,9,346,163,-341,178,117,-302,-131,-248,-268,-170
-361,4,366,178,-363,185,131,-287,-136,-278,-292,-200
-380,0,380,190,-380,190,146,-287,-156,-302,-317,-214
-405,-4,400,204,-402,197,161,-273,-161,-331,-346,-239
-419,-9,409,214,-414,200,175,-268,-170,-351,-370,-253
-444,-14,429,229,-436,207,185,-273,-175,-366,-395,-273
-458,-19,439,239,-448,209,200,-253,-170,-375,-409,-287
-468,-24,444,246,-456,209,214,-229,-165,-390,-424,-307
-468,-29,439,248,-453,204,224,-219,-161,-395,-439,-317
-478,-39,439,258,-458,200,224,-204,-161,-409,-448,-326
-478,-48,429,263,-453,190,224,-190,-146,-409,-453,-326
-473,-58,414,265,-444,178,214,-136,-131,-405,-448,-322
-458,-63,395,261,-427,165,204,-97,-112,-390,-444,-317
-429,-68,361,248,-395,146,190,-43,-92,-370,-429,-312
-400,-73,326,236,-363,126,175,4,-68,-341,-405,-292
-361,-68,292,214,-326,112,156,43,-48,-322,-380,-278
-317,-63,253,190,-285,95,141,68,-29,-287,-356,-258
-292,-63,229,178,-261,82,117,92,-14,-253,-317,-229
-248,-58,190,153,-219,65,97,107,9,-214,-278,-200
-219,-53,165,136,-192,56,73,131,9,-195,-248,-165
-195,-39,156,117,-175,58,48,136,14,-175,-219,-136
-165,-39,126,102,-146,43,29,146,24,-141,-185,-112
-141,-29,112,85,-126,41,9,156,34,-122,-156,-87
-112,-24,87,68,-100,31,-9,170,34,-97,-141,-68
-97,-19,78,58,-87,29,-19,175,43,-73,-112,-39
-78,-4,73,41,-75,34,-34,204,48,-53,-87,-24
-58,0,58,29,-58,29,-39,204,53,-34,-63,-4
-48,4,53,21,-51,29,-48,204,53,-24,-53,4
-39,9,48,14,-43,29,-53,214,53,-9,-34,19
-29,19,48,4,-39,34,-63,224,53,0,-24,24
-19,19,39,0,-29,29,-68,224,58,9,-9,34
-9,24,34,-7,-21,29,-73,229,58,9,0,29
-9,29,39,-9,-24,34,-78,224,58,14,4,43
-4,29,34,-12,-19,31,-78,219,58,14,4,43
-9,29,39,-9,-24,34,-78,209,58,19,9,43
-4,34,39,-14,-21,36,-78,234,58,29,24,48
-4,34,39,-14,-21,36,-78,234,58,34,29,58
-4,34,39,-14,-21,36,-78,224,58,34,29,58
0,34,34,-17,-17,34,-78,209,58,39,34,63
0,39,39,-19,-19,39,-73,200,58,39,29,63
0,43,43,-21,-21,43,-68,185,58,39,24,63
0,43,43,-21,-21,43,-68,185,53,34,24,63
0,43,43,-21,-21,43,-68,161,53,29,24,63
-9,43,53,-17,-31,48,-73,141,48,29,19,63
-9,43,53,-17,-31,48,-78,131,48,29,19,63
-9,43,53,-17,-31,48,-78,131,48,29,19,58
-9,43,53,-17,-31,48,-73,117,48,34,19,53
-9,43,53,-17,-31,48,-73,122,48,29,14,53
-14,43,58,-14,-36,51,-73,102,43,29,14,53
-24,39,63,-7,-43,51,-68,97,43,29,14,53
-34,29,63,2,-48,46,-63,82,43,29,14,53
-34,24,58,4,-46,41,-58,87,39,24,9,48
-43,19,63,12,-53,41,-58,82,43,19,4,48
-43,19,63,12,-53,41,-58,63,43,19,9,43
-43,19,63,12,-53,41,-58,29,43,19,14,43
-39,24,63,7,-51,43,-58,9,43,14,9,48
-39,29,68,4,-53,48,-53,-24,43,14,9,53
-39,24,63,7,-51,43,-53,-48,34,9,4,48
-39,24,63,7,-51,43,-48,-73,34,9,0,48
-43,24,68,9,-56,46,-43,-87,34,9,0,43
-48,19,68,14,-58,43,-39,-97,34,9,0,39
-48,19,68,14,-58,43,-39,-92,34,9,-4,39
-48,19,68,14,-58,43,-39,-117,34,9,-4,39
-53,14,68,19,-61,41,-43,-161,29,4,-4,39
-53,14,68,19,-61,41,-43,-165,29,4,-4,43
-53,14,68,19,-61,41,-43,-141,29,4,0,43
-48,14,63,17,-56,39,-43,-146,29,4,4,43
-48,14,63,17,-56,39,-43,-131,24,4,4,43
-48,9,58,19,-53,34,-43,-131,24,4,4,43
-43,9,53,17,-48,31,-43,-126,19,0,4,43
-43,9,53,17,-48,31,-43,-131,19,-4,4,43
-43,9,53,17,-48,31,-43,-126,19,-4,0,43
-43,9,53,17,-48,31,-43,-146,14,-4,-4,43
-43,14,58,14,-51,36,-43,-136,14,-4,-4,43
-43,19,63,12,-53,41,-43,-146,14,-4,0,43
-34,19,53,7,-43,36,-43,-131,9,-4,0,43
-34,14,48,9,-41,31,-43,-136,9,-4,0,43
-34,14,48,9,-41,31,-43,-112,9,-4,0,39
-39,14,53,12,-46,34,-43,-97,4,-4,0,34
-39,14,53,12,-46,34,-43,-102,4,-4,0,34
-34,9,43,12,-39,26,-43,-112,4,-4,0,34
-34,9,43,12,-39,26,-43,-107,4,-4,0,34
-29,9,39,9,-34,24,-43,-112,4,-4,4,34
-29,4,34,12,-31,19,-43,-92,4,-4,4,34
-29,0,29,14,-29,14,-43,-78,0,-4,4,34
-29,0,29,14,-29,14,-43,-68,0,-4,0,34
-34,0,34,17,-34,17,-43,-63,-4,-4,-4,34
-29,0,29,14,-29,14,-39,-78,0,-4,-4,34
-24,4,29,9,-26,17,-39,-107,4,-4,-4,34
-19,4,24,7,-21,14,-39,-107,4,-4,0,34
-14,4,19,4,-17,12,-39,-112,4,-4,0,34
-14,4,19,4,-17,12,-39,-107,4,0,0,34
-19,4,24,7,-21,14,-34,-117,4,0,0,34
-19,4,24,7,-21,14,-34,-117,4,0,0,34
-14,4,19,4,-17,12,-34,-126,9,0,0,34
-14,0,14,7,-14,7,-34,-126,4,0,0,34
-14,-4,9,9,-12,2,-29,-136,0,4,4,39
-9,-4,4,7,-7,0,-29,-136,0,0,4,39
-9,0,9,4,-9,4,-34,-146,0,-4,4,39
-4,4,9,0,-7,7,-34,-136,-4,4,4,34
-4,4,9,0,-7,7,-29,-136,-4,4,9,29
-4,19,24,-7,-14,21,-14,-117,4,0,9,29
0,24,24,-12,-12,24,-4,-107,14,9,19,34
4,34,29,-19,-12,31,4,-97,24,19,24,39
9,48,39,-29,-14,43,19,-87,39,29,29,48
9,58,48,-34,-19,53,24,-78,39,29,29,48
9,68,58,-39,-24,63,29,-68,39,29,29,48
9,68,58,-39,-24,63,29,-63,43,34,29,48
14,73,58,-43,-21,65,29,-63,53,39,29,48
19,82,63,-51,-21,73,29,-63,68,43,29,48
29,97,68,-63,-19,82,19,-92,78,58,43,63
58,126,68,-92,-4,97,9,-107,87,63,58,73
82,146,63,-114,9,104,-4,-112,87,73,63,82
87,170,82,-129,2,126,-14,-122,82,73,63,82
97,185,87,-141,4,136,-24,-122,82,78,73,97
122,214,92,-168,14,153,-34,-87,82,82,82,112
131,224,92,-178,19,158,-34,-43,82,92,97,122
146,239,92,-192,26,165,-48,-29,87,97,107,126
146,244,97,-195,24,170,-53,-19,92,102,112,131
151,234,82,-192,34,158,-68,-43,92,102,112,126
126,200,73,-163,26,136,-73,-63,78,87,97,122
112,175,63,-143,24,119,-73,-34,63,78,87,107
97,141,43,-119,26,92,-73,-14,58,63,73,97
58,112,53,-85,2,82,-53,0,39,48,58,68
14,73,58,-43,-21,65,-48,14,19,19,29,43
0,29,29,-14,-14,29,-43,19,-4,4,9,24
-14,4,19,4,-17,12,-39,0,-19,-4,-9,14
-29,-4,24,17,-26,9,-39,-34,-24,-24,-14,0
-34,-9,24,21,-29,7,-34,-48,-34,-24,-19,-4
-39,-19,19,29,-29,0,-29,-48,-29,-24,-29,-4
-48,-24,24,36,-36,0,-29,-58,-24,-24,-29,-9
-48,-29,19,39,-34,-4,-29,-73,-24,-29,-24,-9
-48,-29,19,39,-34,-4,-29,-87,-24,-29,-24,-4
-48,-29,19,39,-34,-4,-29,-97,-24,-29,-29,-4
-48,-29,19,39,-34,-4,-24,-102,-24,-29,-29,-4
-53,-34,19,43,-36,-7,-24,-107,-24,-29,-29,-9
-53,-34,19,43,-36,-7,-24,-112,-24,-29,-29,-9
-58,-29,29,43,-43,0,-24,-122,-29,-34,-39,-4
-58,-24,34,41,-46,4,-24,-151,-29,-34,-29,0
-58,-24,34,41,-46,4,-19,-151,-29,-34,-29,0
-58,-24,34,41,-46,4,-19,-151,-24,-29,-29,0
-58,-24,34,41,-46,4,-14,-151,-24,-29,-29,-4
-58,-29,29,43,-43,0,-9,-165,-19,-24,-24,-4
-58,-29,29,43,-43,0,-9,-170,-19,-24,-24,-4
-58,-24,34,41,-46,4,-9,-190,-9,-14,-19,0
-48,-19,29,34,-39,4,-4,-200,-4,-14,-19,0
-34,-4,29,19,-31,12,4,-180,29,14,9,9
-29,-4,24,17,-26,9,9,-131,97,68,39,29
-9,-4,4,7,-7,0,19,-78,165,131,73,48
-19,-34,-14,26,-2,-24,34,-19,204,161,87,48
-63,-92,-29,78,-17,-61,53,-19,151,78,19,-4
-97,-141,-43,119,-26,-92,58,-73,24,-78,-107,-87
-9,-78,-68,43,29,-73,-14,-131,-34,-102,-107,-68
224,180,-43,-202,134,68,-175,-175,53,82,102,136
619,551,-68,-585,344,241,-439,-370,82,375,473,502
936,824,-112,-880,524,356,-629,-683,0,600,775,780
1141,941,-200,-1041,671,370,-741,-946,-87,766,980,985
1444,1019,-424,-1232,934,297,-907,-1122,-234,902,1244,1249
1625,1127,-497,-1376,1061,314,-946,-1161,-263,1093,1551,1527
1576,1151,-424,-1363,1000,363,-863,-1132,-209,1317,1825,1712
1464,1034,-429,-1249,946,302,-863,-1132,-204,1424,1932,1751
1302,854,-448,-1078,875,202,-858,-1019,-156,1454,1947,1717
1093,649,-444,-871,768,102,-814,-917,-112,1385,1830,1586
883,531,-351,-707,617,90,-692,-824,-73,1244,1610,1346
673,483,-190,-578,431,146,-517,-771,-48,1049,1361,1122
395,380,-14,-387,204,183,-317,-668,-43,707,1000,844
165,263,97,-214,34,180,-165,-527,4,488,688,585
39,146,107,-92,-34,126,-78,-390,87,375,439,336
-78,87,165,-4,-122,126,14,-326,117,253,244,165
-136,24,161,56,-148,92,43,-248,102,117,117,87
-131,-14,117,73,-124,51,29,-209,73,68,82,82
-122,-34,87,78,-104,26,29,-180,19,48,29,39
-131,-48,82,90,-107,17,34,-180,-4,-14,-29,-9
-131,-53,78,92,-104,12,34,-136,-4,-48,-39,-9
-126,-58,68,92,-97,4,29,-107,-4,-39,-19,4
-126,-58,68,92,-97,4,29,-68,-4,-29,-19,4
-126,-58,68,92,-97,4,24,-39,-4,-29,-34,0
-126,-53,73,90,-100,9,24,-34,-4,-34,-34,-4
-122,-48,73,85,-97,12,24,-34,-4,-34,-34,-4
-122,-43,78,82,-100,17,19,-19,-4,-34,-39,-4
-122,-39,82,80,-102,21,14,0,-4,-29,-39,-4
-117,-39,78,78,-97,19,14,43,-4,-29,-34,-4
-117,-34,82,75,-100,24,14,39,-4,-29,-34,0
-117,-39,78,78,-97,19,14,68,-4,-29,-29,4
-117,-39,78,78,-97,19,9,107,0,-29,-19,14
-112,-39,73,75,-92,17,4,175,0,-24,-19,14
-112,-39,73,75,-92,17,4,224,0,-24,-19,19
-112,-39,73,75,-92,17,9,263,0,-24,-14,19
-112,-34,78,73,-95,21,14,297,0,-19,-14,19
-112,-34,78,73,-95,21,9,331,0,-19,-19,19
-112,-29,82,70,-97,26,9,361,0,-19,-24,19
-112,-24,87,68,-100,31,9,409,-4,-19,-24,19
-112,-19,92,65,-102,36,4,434,-4,-19,-19,24
-112,-14,97,63,-104,41,4,473,-4,-19,-19,24
-112,-14,97,63,-104,41,0,488,-4,-19,-19,24
-112,-14,97,63,-104,41,0,536,-4,-19,-19,19
-112,-14,97,63,-104,41,0,575,-4,-19,-24,19
-112,-9,102,61,-107,46,0,644,-4,-24,-24,19
-112,0,112,56,-112,56,0,692,0,-24,-24,19
-117,0,117,58,-117,58,0,712,-9,-29,-34,9
-117,9,126,53,-122,68,0,722,-9,-34,-34,9
-122,14,136,53,-129,75,0,790,-9,-34,-39,4
-126,14,141,56,-134,78,4,829,-9,-39,-39,4
-131,14,146,58,-139,80,4,824,-19,-48,-53,-4
-141,19,161,61,-151,90,14,829,-24,-53,-53,-9
-156,19,175,68,-165,97,19,839,-29,-68,-68,-19
-156,24,180,65,-168,102,24,854,-34,-78,-68,-24
-185,24,209,80,-197,117,24,858,-43,-87,-92,-34
-204,24,229,90,-217,126,39,888,-48,-102,-102,-43
-214,24,239,95,-226,131,43,922,-63,-122,-122,-58
-229,29,258,100,-244,143,58,971,-73,-131,-131,-68
-248,29,278,109,-263,153,63,980,-82,-151,-156,-87
-278,29,307,124,-292,168,78,1010,-92,-170,-170,-102
-312,29,341,141,-326,185,87,1019,-112,-195,-200,-122
-346,29,375,158,-361,202,107,1044,-122,-219,-229,-141
-361,24,385,168,-373,204,122,1083,-122,-248,-253,-165
-370,19,390,175,-380,204,136,1107,-136,-273,-278,-175
-400,14,414,192,-407,214,151,1137,-141,-302,-307,-200
-419,9,429,204,-424,219,165,1156,-151,-322,-331,-214
-444,4,448,219,-446,226,175,1161,-165,-346,-361,-239
-458,0,458,229,-458,229,190,1190,-170,-366,-380,-258
-473,0,473,236,-473,236,204,1234,-170,-380,-400,-278
-478,0,478,239,-478,239,214,1263,-170,-385,-419,-287
-488,-9,478,248,-483,234,214,1288,-170,-400,-429,-302
-488,-19,468,253,-478,224,214,1312,-156,-400,-434,-307
-488,-29,458,258,-473,214,214,1356,-141,-400,-439,-307
-478,-34,444,256,-461,204,214,1385,-122,-390,-444,-307
-448,-39,409,244,-429,185,204,1410,-102,-370,-434,-302
-419,-43,375,231,-397,165,195,1429,-78,-341,-414,-283
-390,-43,346,217,-368,151,175,1444,-63,-326,-390,-268
-356,-43,312,200,-334,134,161,1444,-48,-297,-366,-248
-331,-48,283,190,-307,117,136,1454,-34,-273,-331,-224
-287,-48,239,168,-263,95,117,1454,-9,-244,-297,-200
-248,-48,200,148,-224,75,87,1478,0,-214,-263,-165
-214,-39,175,126,-195,68,58,1483,14,-185,-229,-136
-185,-34,151,109,-168,58,39,1498,24,-151,-195,-117
-161,-19,141,90,-151,61,19,1512,34,-131,-165,-97
-131,-14,117,73,-124,51,0,1532,29,-107,-146,-78
-117,-9,107,63,-112,48,-9,1542,34,-82,-112,-48
-92,9,102,41,-97,56,-19,1561,39,-63,-87,-29
-68,19,87,24,-78,53,-19,1551,43,-43,-63,-4
-53,24,78,14,-65,51,-29,1532,48,-34,-53,4
-39,29,68,4,-53,48,-34,1522,53,-19,-34,19
-29,39,68,-4,-48,53,-48,1532,53,-4,-24,24
-19,39,58,-9,-39,48,-58,1532,58,9,-9,34
-9,39,48,-14,-29,43,-63,1532,58,14,4,34
-9,39,48,-14,-29,43,-68,1522,58,24,14,53
-4,39,43,-17,-24,41,-68,1517,58,19,9,53
-9,39,48,-14,-29,43,-68,1507,58,19,9,53
-9,39,48,-14,-29,43,-68,1517,53,24,19,53
-14,34,48,-9,-31,41,-68,1503,48,24,19,58
-14,34,48,-9,-31,41,-68,1507,48,24,19,58
-9,34,43,-12,-26,39,-68,1507,48,29,24,63
-4,39,43,-17,-24,41,-68,1507,48,29,24,63
0,43,43,-21,-21,43,-68,1503,48,29,24,63
0,48,48,-24,-24,48,-68,1488,43,29,24,63
0,53,53,-26,-26,53,-68,1449,43,29,24,63
-14,53,68,-19,-41,61,-68,1429,39,29,24,63
-19,53,73,-17,-46,63,-68,1420,39,29,29,63
-19,48,68,-14,-43,58,-68,1415,39,24,29,63
-19,43,63,-12,-41,53,-63,1395,39,24,29,63
-19,43,63,-12,-41,53,-68,1395,39,19,24,63
-24,43,68,-9,-46,56,-73,1371,34,19,24,63
-29,43,73,-7,-51,58,-68,1356,34,14,19,63
-34,39,73,-2,-53,56,-63,1332,34,9,14,63
-34,39,73,-2,-53,56,-53,1327,24,4,4,53
-43,39,82,2,-63,61,-48,1312,24,0,-4,48
-43,39,82,2,-63,61,-48,1307,24,0,-4,43
-43,39,82,2,-63,61,-48,1288,24,0,-4,43
-43,39,82,2,-63,61,-48,1302,24,0,-9,43
-48,39,87,4,-68,63,-43,1302,24,4,-9,43
-53,34,87,9,-70,61,-43,1293,14,0,-4,39
-58,34,92,12,-75,63,-39,1283,14,0,0,39
-58,39,97,9,-78,68,-39,1263,19,0,0,43
-58,39,97,9,-78,68,-39,1249,24,0,0,48
-53,39,92,7,-73,65,-39,1239,24,0,-4,48
-48,39,87,4,-68,63,-39,1200,24,0,-4,48
-53,34,87,9,-70,61,-39,1151,14,-4,-4,43
-53,34,87,9,-70,61,-34,1141,9,-4,-4,43
-58,34,92,12,-75,63,-34,1141,9,-4,-4,39
-58,34,92,12,-75,63,-34,1112,9,-4,-4,34
-63,34,97,14,-80,65,-34,1107,4,-9,-9,34
-68,29,97,19,-82,63,-34,1088,4,-14,-14,34
-63,29,92,17,-78,61,-34,1088,0,-14,-14,34
-63,29,92,17,-78,61,-34,1078,0,-14,-14,34
-63,29,92,17,-78,61,-34,1078,4,-9,-9,34
-63,29,92,17,-78,61,-34,1054,4,-4,-4,34
-63,29,92,17,-78,61,-34,1054,4,-4,-4,34
-63,29,92,17,-78,61,-34,1034,4,-4,0,34
-53,29,82,12,-68,56,-34,1029,0,-4,0,34
-53,24,78,14,-65,51,-34,1005,0,-4,0,34
-48,24,73,12,-61,48,-34,1000,0,-4,-4,34
-48,24,73,12,-61,48,-34,985,-4,-4,-9,34
-53,24,78,14,-65,51,-34,980,-4,-4,-9,34
-53,19,73,17,-63,46,-34,971,-4,-4,-9,34
-53,14,68,19,-61,41,-34,980,-4,-4,-9,34
-48,9,58,19,-53,34,-34,980,-4,-4,-4,34
-48,9,58,19,-53,34,-34,1000,0,-4,-4,34
-48,9,58,19,-53,34,-34,1015,0,-4,-4,34
-43,9,53,17,-48,31,-34,1024,0,-4,-4,34
-43,9,53,17,-48,31,-34,1029,-4,-4,-4,34
-43,4,48,19,-46,26,-29,1039,-4,-4,-4,34
-43,4,48,19,-46,26,-29,1034,-4,-4,-4,34
-39,4,43,17,-41,24,-29,1034,-4,-4,0,34
-34,4,39,14,-36,21,-29,1029,-4,-4,0,34
-29,4,34,12,-31,19,-29,1029,-4,0,0,34
-29,4,34,12,-31,19,-24,1015,-4,0,0,34
-34,4,39,14,-36,21,-24,1019,-4,0,0,34
-34,4,39,14,-36,21,-24,1015,0,0,0,34
-34,4,39,14,-36,21,-24,1019,0,0,0,34
-29,9,39,9,-34,24,-14,1015,4,4,4,39
-24,34,58,-4,-41,46,0,1015,19,14,14,43
-19,58,78,-19,-48,68,9,1015,39,29,29,48
-9,58,68,-24,-39,63,9,1015,39,29,29,48
0,58,58,-29,-29,58,9,1015,39,29,29,48
4,58,53,-31,-24,56,14,1010,43,34,34,48
14,73,58,-43,-21,65,19,1005,53,39,39,53
29,92,63,-61,-17,78,24,1000,68,48,43,58
48,126,78,-87,-14,102,19,971,78,68,63,82
73,165,92,-119,-9,129,9,961,92,78,78,92
92,195,102,-143,-4,148,-4,961,97,92,82,102
97,209,112,-153,-7,161,-14,951,102,97,97,102
107,214,107,-161,0,161,-24,951,112,107,122,117
122,234,112,-178,4,173,-29,951,112,112,117,126
122,234,112,-178,4,173,-24,961,112,122,117,131
122,214,92,-168,14,153,-39,956,97,112,112,126
107,185,78,-146,14,131,-43,946,82,102,102,122
102,161,58,-131,21,109,-53,932,82,97,97,107
68,112,43,-90,12,78,-53,922,68,78,78,92
53,97,43,-75,4,70,-58,927,53,63,63,78
39,73,34,-56,2,53,-63,922,48,43,43,68
9,43,34,-26,-12,39,-48,927,24,29,29,43
-24,4,29,9,-26,17,-48,932,0,0,0,24
-34,-24,9,29,-21,-7,-43,956,-19,-14,-14,4
-43,-34,9,39,-26,-12,-39,956,-29,-24,-29,-4
-58,-43,14,51,-36,-14,-39,922,-29,-39,-29,-14
-63,-48,14,56,-39,-17,-34,907,-34,-34,-29,-14
-63,-53,9,58,-36,-21,-34,907,-34,-29,-34,-9
-68,-53,14,61,-41,-19,-39,897,-34,-24,-29,-9
-63,-58,4,61,-34,-26,-39,883,-29,-29,-24,-9
-58,-58,0,58,-29,-29,-39,868,-24,-29,-24,-4
-58,-58,0,58,-29,-29,-39,849,-24,-29,-29,-4
-58,-58,0,58,-29,-29,-34,834,-24,-29,-29,-4
-68,-63,4,65,-36,-29,-34,819,-29,-29,-29,-9
-73,-63,9,68,-41,-26,-34,805,-34,-29,-29,-9
-78,-63,14,70,-46,-24,-34,805,-39,-34,-39,-9
-78,-63,14,70,-46,-24,-34,785,-39,-34,-29,-9
-78,-68,9,73,-43,-29,-29,771,-39,-39,-29,-9
-78,-73,4,75,-41,-34,-29,756,-34,-39,-29,-9
-78,-68,9,73,-43,-29,-29,751,-34,-39,-29,-9
-78,-68,9,73,-43,-29,-29,732,-29,-34,-24,-4
-78,-63,14,70,-46,-24,-24,722,-29,-34,-24,0
-78,-53,24,65,-51,-14,-19,697,-19,-24,-19,9
-73,-53,19,63,-46,-17,-14,649,-14,-19,-19,9
-63,-43,19,53,-41,-12,-4,629,19,14,9,19
-58,-48,9,53,-34,-19,0,629,87,68,39,29
-39,-53,-14,46,-12,-34,9,634,156,131,73,39
-39,-73,-34,56,-2,-53,24,678,195,146,73,39
-73,-122,-48,97,-12,-85,43,663,141,48,-9,-14
-117,-161,-43,139,-36,-102,39,580,14,-92,-122,-92
-39,-87,-48,63,4,-68,-43,492,-43,-102,-107,-68
200,175,-24,-187,112,75,-204,453,68,117,126,156
600,551,-48,-575,324,251,-468,263,122,444,522,541
902,854,-48,-878,475,402,-644,-53,48,712,863,839
1093,1000,-92,-1046,592,453,-741,-322,-29,922,1107,1063
1381,1083,-297,-1232,839,392,-902,-483,-146,1102,1405,1337
1546,1195,-351,-1371,949,422,-936,-507,-146,1337,1747,1625
1503,1195,-307,-1349,905,444,-854,-507,-107,1551,2010,1805
1395,1054,-341,-1224,868,356,-854,-536,-117,1649,2108,1839
1239,849,-390,-1044,814,229,-858,-434,-102,1644,2098,1781
1034,619,-414,-827,724,102,-824,-341,-92,1542,1956,1625
829,497,-331,-663,580,82,-707,-248,-68,1346,1708,1376
624,444,-180,-534,402,131,-536,-195,-58,1098,1429,1141
351,336,-14,-344,183,161,-326,-102,-58,741,1039,854
126,214,87,-170,19,151,-165,29,-14,507,697,585
14,107,92,-61,-39,100,-92,170,68,390,439,336
-87,58,146,14,-117,102,-14,239,97,263,234,165
-146,-4,141,75,-143,68,19,292,82,122,107,78
-141,-43,97,92,-119,26,9,307,53,68,73,63
-131,-58,73,95,-102,7,9,336,4,48,19,24
-141,-68,73,104,-107,2,14,336,-14,-14,-39,-19
-141,-73,68,107,-104,-2,14,375,-14,-48,-53,-19
-136,-78,58,107,-97,-9,9,400,-14,-39,-39,-4
-136,-82,53,109,-95,-14,9,444,-14,-29,-39,-4
-136,-87,48,112,-92,-19,4,478,-14,-29,-53,-9
-136,-87,48,112,-92,-19,4,497,-14,-34,-48,-9
-131,-87,43,109,-87,-21,4,512,-14,-34,-43,-4
-126,-78,48,102,-87,-14,4,546,-14,-34,-43,-4
-122,-68,53,95,-87,-7,4,585,-14,-29,-39,-4
-117,-68,48,92,-82,-9,4,658,-14,-29,-34,-4
-117,-63,53,90,-85,-4,4,683,-14,-29,-34,0
-117,-68,48,92,-82,-9,4,707,-19,-29,-34,0
-117,-68,48,92,-82,-9,0,741,-19,-29,-29,4
-112,-68,43,90,-78,-12,-4,800,-19,-24,-29,0
-112,-68,43,90,-78,-12,-4,839,-19,-24,-29,0
-112,-68,43,90,-78,-12,-4,883,-19,-29,-29,0
-112,-63,48,87,-80,-7,-4,922,-19,-29,-34,0
-112,-63,48,87,-80,-7,-9,976,-19,-29,-34,0
-112,-58,53,85,-82,-2,-9,1024,-19,-29,-34,0
-112,-53,58,82,-85,2,-4,1049,-19,-29,-34,0
-112,-48,63,80,-87,7,-4,1049,-14,-29,-29,4
-112,-43,68,78,-90,12,-4,1083,-14,-29,-29,9
-112,-43,68,78,-90,12,-9,1093,-14,-29,-29,14
-117,-43,73,80,-95,14,-9,1122,-14,-29,-29,9
-122,-43,78,82,-100,17,-9,1141,-14,-29,-34,9
-122,-43,78,82,-100,17,-9,1200,-19,-34,-34,9
-122,-39,82,80,-102,21,-9,1239,-19,-34,-34,9
-131,-39,92,85,-112,26,-4,1244,-34,-39,-43,0
-136,-29,107,82,-122,39,0,1239,-39,-43,-43,0
-141,-19,122,80,-131,51,0,1322,-39,-43,-48,-4
-146,-14,131,80,-139,58,4,1376,-39,-48,-48,-4
-141,-9,131,75,-136,61,0,1459,-43,-58,-63,-9
-141,0,141,70,-141,70,4,1551,-43,-63,-63,-9
-156,0,156,78,-156,78,9,1610,-48,-78,-78,-19
-156,4,161,75,-158,82,14,1673,-53,-87,-78,-24
-185,4,190,90,-187,97,14,1693,-63,-97,-102,-39
-204,4,209,100,-207,107,29,1737,-68,-112,-112,-53
-214,4,219,104,-217,112,34,1761,-82,-141,-136,-73
-229,9,239,109,-234,124,48,1800,-92,-161,-151,-87
-244,9,253,117,-248,131,53,1795,-102,-185,-180,-107
-268,9,278,129,-273,143,68,1810,-112,-209,-200,-122
-292,9,302,141,-297,156,78,1805,-136,-234,-229,-141
-317,9,326,153,-322,168,97,1815,-151,-258,-258,-161
-341,4,346,168,-344,175,112,1839,-161,-287,-287,-190
-361,0,361,180,-361,180,126,1849,-185,-312,-317,-204
-390,-4,385,197,-387,190,141,1864,-190,-341,-346,-229
-409,-9,400,209,-405,195,156,1869,-200,-361,-370,-244
-439,-14,424,226,-431,204,165,1854,-214,-390,-405,-268
-458,-19,439,239,-448,209,180,1864,-219,-414,-429,-287
-473,-29,444,251,-458,207,195,1883,-219,-434,-453,-307
-478,-39,439,258,-458,200,204,1888,-219,-444,-478,-317
-488,-48,439,268,-463,195,209,1883,-219,-458,-488,-331
-488,-58,429,273,-458,185,214,1878,-204,-458,-492,-336
-488,-68,419,278,-453,175,214,1903,-190,-458,-492,-336
-478,-73,405,275,-441,165,214,1912,-170,-448,-492,-336
-453,-78,375,265,-414,148,204,1937,-146,-429,-483,-336
-429,-82,346,256,-387,131,195,1956,-117,-400,-463,-322
-400,-82,317,241,-358,117,175,1981,-97,-380,-439,-307
-366,-82,283,224,-324,100,161,1991,-78,-346,-414,-287
-341,-82,258,212,-300,87,136,2000,-58,-312,-375,-258
-297,-78,219,187,-258,70,117,2000,-29,-273,-336,-229
-258,-73,185,165,-222,56,97,2025,-14,-239,-297,-195
-224,-58,165,141,-195,53,78,2030,4,-204,-258,-165
-200,-53,146,126,-173,46,58,2020,14,-170,-224,-141
-180,-39,141,109,-161,51,39,2010,24,-151,-195,-117
-151,-34,117,92,-134,41,19,1976,24,-122,-170,-97
-136,-29,107,82,-122,39,9,1932,34,-92,-131,-68
-112,-14,97,63,-104,41,-4,1912,43,-73,-107,-48
-87,-9,78,48,-82,34,-9,1864,53,-53,-82,-24
-78,-4,73,41,-75,34,-19,1830,53,-43,-73,-14
-68,0,68,34,-68,34,-24,1805,53,-29,-53,0
-58,9,68,24,-63,39,-34,1815,53,-14,-43,9
-48,9,58,19,-53,34,-39,1815,58,0,-29,24
-39,19,58,9,-48,39,-43,1844,58,4,-14,24
-39,29,68,4,-53,48,-48,1864,58,14,-4,43
-29,29,58,0,-43,43,-48,1834,58,14,-4,43
-29,29,58,0,-43,43,-48,1800,58,19,0,43
-19,34,53,-7,-36,43,-48,1795,58,29,9,43
-14,34,48,-9,-31,41,-48,1766,58,34,9,48
-14,34,48,-9,-31,41,-48,1742,58,34,9,53
-9,34,43,-12,-26,39,-48,1712,58,39,14,63
-9,34,43,-12,-26,39,-48,1698,58,39,14,63
-9,34,43,-12,-26,39,-48,1678,58,39,14,63
-9,34,43,-12,-26,39,-48,1668,53,39,14,58
-9,34,43,-12,-26,39,-48,1634,53,39,14,53
-19,34,53,-7,-36,43,-48,1600,43,34,9,53
-19,34,53,-7,-36,43,-48,1576,39,29,9,53
-19,34,53,-7,-36,43,-48,1551,39,24,9,53
-19,34,53,-7,-36,43,-43,1512,39,24,9,53
-19,34,53,-7,-36,43,-48,1507,39,19,4,53
-24,34,58,-4,-41,46,-53,1478,34,19,4,53
-19,34,53,-7,-36,43,-48,1464,34,24,4,53
-14,29,43,-7,-29,36,-43,1439,34,29,4,53
-9,29,39,-9,-24,34,-34,1429,24,24,0,48
-14,29,43,-7,-29,36,-29,1410,24,19,-4,48
-14,29,43,-7,-29,36,-29,1405,24,19,-4,43
-14,29,43,-7,-29,36,-29,1385,24,19,-4,43
-14,29,43,-7,-29,36,-29,1376,24,9,-9,43
-19,29,48,-4,-34,39,-24,1351,24,4,-9,43
-19,24,43,-2,-31,34,-24,1332,14,0,-9,39
-19,24,43,-2,-31,34,-19,1312,14,0,-9,39
-19,19,39,0,-29,29,-19,1302,14,0,-9,39
-19,9,29,4,-24,19,-19,1298,14,0,-9,39
-19,9,29,4,-24,19,-19,1312,14,0,-14,39
-19,9,29,4,-24,19,-19,1298,14,0,-14,39
-19,4,24,7,-21,14,-19,1259,9,0,-14,34
-14,4,19,4,-17,12,-14,1259,9,4,-14,34
-9,9,19,0,-14,14,-14,1259,9,4,-14,34
0,14,14,-7,-7,14,-14,1229,9,4,-14,34
0,14,14,-7,-7,14,-14,1229,4,4,-14,34
0,9,9,-4,-4,9,-14,1215,4,4,-14,34
-4,9,14,-2,-9,12,-14,1215,-4,0,-14,34
-14,9,24,2,-19,17,-14,1205,-9,-4,-14,34
-14,4,19,4,-17,12,-14,1205,-4,-4,-14,34
-14,0,14,7,-14,7,-14,1180,-4,-4,-14,34
-14,0,14,7,-14,7,-14,1176,-4,0,-9,34
-14,0,14,7,-14,7,-14,1151,-4,4,0,34
-9,0,9,4,-9,4,-14,1146,-4,4,0,34
-14,-4,9,9,-12,2,-14,1122,0,4,0,34
-9,-4,4,7,-7,0,-9,1107,0,4,0,34
-9,-4,4,7,-7,0,-4,1083,-4,4,0,34
-9,0,9,4,-9,4,-4,1068,-4,4,0,34
-4,0,4,2,-4,2,-4,1049,-4,4,0,34
-4,0,4,2,-4,2,-9,1019,-9,4,0,34
0,0,0,0,0,0,-14,980,-14,4,4,34
0,0,0,0,0,0,-14,961,-9,4,4,34
0,0,0,0,0,0,-14,936,-9,4,4,34
0,0,0,0,0,0,-14,917,-9,4,4,34
-4,0,4,2,-4,2,-14,893,-14,4,4,34
-4,-4,0,4,-2,-2,-9,883,-14,4,4,34
-4,-4,0,4,-2,-2,-9,858,-14,4,4,34
0,0,0,0,0,0,-9,834,-14,4,9,39
4,4,0,-4,2,2,-9,805,-14,4,9,43
4,4,0,-4,2,2,-9,785,-14,9,9,43
0,4,4,-2,-2,4,-4,751,-14,9,9,43
4,19,14,-12,-4,17,0,717,0,14,14,43
14,39,24,-26,-4,31,9,688,9,24,19,48
19,43,24,-31,-2,34,19,658,24,29,29,53
29,48,19,-39,4,34,29,634,39,39,39,58
34,63,29,-48,2,46,29,610,39,39,39,58
39,78,39,-58,0,58,29,585,39,39,39,58
53,102,48,-78,2,75,29,580,48,53,48,63
68,126,58,-97,4,92,24,546,58,73,63,73
82,151,68,-117,7,109,24,517,73,92,78,87
107,180,73,-143,17,126,19,478,87,102,97,102
122,195,73,-158,24,134,9,439,92,112,107,112
126,219,92,-173,17,156,4,395,92,112,112,112
131,224,92,-178,19,158,-4,370,92,117,122,126
151,244,92,-197,29,168,-14,346,92,122,126,141
146,234,87,-190,29,161,-14,322,87,126,122,141
146,224,78,-185,34,151,-29,287,82,122,112,131
136,214,78,-175,29,146,-34,278,78,112,107,126
122,190,68,-156,26,129,-43,268,73,102,102,112
87,151,63,-119,12,107,-43,244,58,82,82,102
73,126,53,-100,9,90,-43,229,43,68,68,87
58,82,24,-70,17,53,-48,200,24,43,53,78
24,43,19,-34,2,31,-39,175,-9,19,39,53
-9,24,34,-7,-21,29,-39,170,-19,0,14,34
-14,4,19,4,-17,12,-34,161,-29,-4,4,14
-19,-14,4,17,-12,-4,-29,165,-39,-9,-9,9
-29,-24,4,26,-17,-9,-29,161,-43,-24,-14,0
-34,-29,4,31,-19,-12,-24,156,-53,-24,-19,-4
-34,-34,0,34,-17,-17,-19,165,-53,-24,-29,-4
-39,-34,4,36,-21,-14,-19,165,-53,-24,-29,-9
-39,-39,0,39,-19,-19,-19,161,-53,-29,-24,-9
-39,-39,0,39,-19,-19,-19,146,-53,-29,-24,-4
-39,-39,0,39,-19,-19,-19,141,-53,-29,-29,-4
-39,-34,4,36,-21,-14,-14,117,-53,-29,-29,-4
-43,-34,9,39,-26,-12,-14,97,-53,-29,-29,-9
-39,-34,4,36,-21,-14,-14,68,-53,-24,-24,-9
-39,-34,4,36,-21,-14,-14,34,-58,-24,-29,-9
-39,-34,4,36,-21,-14,-14,-14,-58,-24,-19,-4
-39,-34,4,36,-21,-14,-9,-43,-58,-24,-19,0
-39,-34,4,36,-21,-14,-9,-78,-53,-24,-19,0
-39,-29,9,34,-24,-9,-9,-112,-53,-29,-19,0
-39,-29,9,34,-24,-9,-9,-141,-53,-24,-14,0
-39,-29,9,34,-24,-9,-9,-161,-58,-24,-14,-4
-39,-29,9,34,-24,-9,-9,-190,-48,-14,-9,0
-34,-34,0,34,-17,-17,-4,-219,-43,-14,-9,0
-24,-24,0,24,-12,-12,4,-239,-9,24,19,9
-19,-24,-4,21,-7,-14,9,-234,58,87,48,24
0,-19,-19,9,9,-19,19,-234,126,136,82,39
0,-34,-34,17,17,-34,34,-229,151,136,82,39
-29,-78,-48,53,9,-63,53,-273,82,48,0,-4
-58,-112,-53,85,-2,-82,43,-361,-29,-73,-102,-63
29,-39,-68,4,48,-53,-48,-453,-73,-68,-68,-29
258,219,-39,-239,148,90,-214,-556,-4,136,165,180
649,590,-58,-619,353,265,-478,-795,-4,444,566,556
951,863,-87,-907,519,387,-663,-1137,-97,692,897,854
1137,971,-165,-1054,651,402,-766,-1390,-185,893,1117,1078
1400,1039,-361,-1220,880,339,-922,-1551,-302,1078,1415,1346
1542,1146,-395,-1344,968,375,-951,-1600,-287,1317,1756,1625
1483,1146,-336,-1315,910,405,-863,-1551,-219,1542,2010,1800
1361,1005,-356,-1183,858,324,-863,-1546,-214,1639,2098,1820
1195,824,-370,-1010,783,226,-844,-1429,-170,1639,2083,1742
985,614,-370,-800,678,122,-785,-1332,-136,1522,1917,1566
780,488,-292,-634,536,97,-644,-1273,-112,1307,1639,1307
575,434,-141,-505,358,146,-448,-1268,-112,1034,1332,1073
322,331,9,-326,156,170,-273,-1215,-126,668,951,795
122,214,92,-168,14,153,-146,-1122,-68,463,653,536
14,107,92,-61,-39,100,-58,-1034,29,366,419,302
-82,63,146,9,-114,104,29,-1005,58,244,224,146
-131,9,141,61,-136,75,48,-966,43,112,107,68
-122,-24,97,73,-109,36,29,-961,14,68,82,63
-112,-39,73,75,-92,17,29,-951,-34,48,29,24
-117,-48,68,82,-92,9,34,-966,-53,-14,-29,-19
-112,-53,58,82,-85,2,34,-951,-53,-48,-39,-19
-107,-53,53,80,-80,0,34,-936,-53,-39,-19,-4
-107,-48,58,78,-82,4,39,-917,-53,-29,-19,-4
-107,-48,58,78,-82,4,34,-897,-53,-29,-34,-9
-107,-48,58,78,-82,4,34,-883,-53,-34,-34,-9
-102,-53,48,78,-75,-2,29,-917,-53,-34,-34,-4
-102,-53,48,78,-75,-2,24,-936,-53,-34,-34,-4
-102,-48,53,75,-78,2,24,-951,-53,-29,-29,-4
-97,-48,48,73,-73,0,24,-956,-53,-29,-24,-4
-97,-43,53,70,-75,4,24,-1015,-53,-24,-19,0
-97,-43,53,70,-75,4,24,-1034,-53,-19,-14,0
-97,-39,58,68,-78,9,24,-1058,-48,-19,-9,4
-92,-39,53,65,-73,7,24,-1063,-48,-14,-9,4
-92,-39,53,65,-73,7,24,-1078,-48,-14,-9,9
-92,-39,53,65,-73,7,24,-1107,-48,-14,-4,9
-92,-34,58,63,-75,12,24,-1098,-48,-9,-4,14
-92,-34,58,63,-75,12,19,-1088,-48,-9,-4,19
-87,-29,58,58,-73,14,19,-1078,-48,-9,-4,19
-82,-24,58,53,-70,17,24,-1049,-48,-9,-4,19
-82,-19,63,51,-73,21,24,-1044,-43,-9,0,24
-82,-14,68,48,-75,26,24,-1005,-43,-9,0,24
-87,-14,73,51,-80,29,19,-995,-48,-9,-4,24
-92,-14,78,53,-85,31,19,-966,-53,-9,-9,19
-92,-14,78,53,-85,31,19,-946,-53,-9,-14,14
-92,-14,78,53,-85,31,19,-912,-58,-14,-14,9
-92,-4,87,48,-90,41,19,-888,-53,-14,-14,9
-102,0,102,51,-102,51,19,-858,-58,-19,-24,0
-107,9,117,48,-112,63,19,-873,-58,-29,-24,0
-112,14,126,48,-119,70,19,-800,-58,-34,-34,-4
-117,14,131,51,-124,73,24,-717,-58,-39,-39,-4
-122,14,136,53,-129,75,24,-702,-68,-48,-53,-14
-131,19,151,56,-141,85,34,-678,-73,-53,-53,-19
-146,19,165,63,-156,92,39,-653,-78,-68,-68,-29
-141,24,165,58,-153,95,43,-639,-82,-78,-68,-29
-161,24,185,68,-173,104,43,-619,-92,-87,-92,-34
-175,24,200,75,-187,112,53,-605,-97,-97,-102,-43
-185,24,209,80,-197,117,53,-585,-112,-122,-126,-63
-200,29,229,85,-214,129,68,-570,-122,-141,-141,-82
-219,29,248,95,-234,139,73,-575,-131,-165,-170,-107
-248,29,278,109,-263,153,87,-561,-141,-190,-190,-122
-273,29,302,122,-287,165,97,-556,-161,-214,-219,-141
-297,29,326,134,-312,178,117,-522,-175,-244,-248,-161
-322,24,346,148,-334,185,131,-507,-185,-278,-278,-190
-341,19,361,161,-351,190,146,-483,-204,-302,-307,-204
-370,14,385,178,-378,200,161,-478,-209,-331,-336,-229
-390,4,395,192,-392,200,175,-448,-219,-351,-366,-244
-419,-4,414,212,-417,204,190,-414,-229,-385,-409,-278
-419,-4,414,212,-417,204,190,-414,-229,-385,-409,-278
