I, II, III, aVR, aVL, aVF, V1, V2, V3, V4, V5, V6
1034,1620,585,-1327,224,1102,-1063,-663,156,1473,1952,1561
1078,1825,746,-1451,165,1285,-1302,-1156,-444,1166,1912,1712
1122,2030,907,-1576,107,1468,-1542,-1649,-1044,858,1873,1864
732,1581,849,-1156,-58,1215,-1205,-1649,-1605,-151,1005,1429
341,1132,790,-736,-224,961,-868,-1649,-2166,-1161,136,995
63,444,380,-253,-158,412,-229,-854,-1795,-1244,-312,414
-214,-244,-29,229,-92,-136,409,-58,-1424,-1327,-761,-165
-185,-356,-170,270,-7,-263,512,214,-917,-878,-585,-253
-156,-468,-312,312,78,-390,614,488,-409,-429,-409,-341
-97,-326,-229,212,65,-278,453,346,-273,-278,-278,-239
-39,-185,-146,112,53,-165,292,204,-136,-126,-146,-136
-9,-112,-102,61,46,-107,180,151,-53,-78,-97,-92
19,-39,-58,9,39,-48,68,97,29,-29,-48,-48
19,-24,-43,2,31,-34,48,78,29,-19,-48,-48
19,-9,-29,-4,24,-19,29,58,29,-9,-48,-48
19,-9,-29,-4,24,-19,19,39,29,-24,-48,-48
19,-9,-29,-4,24,-19,9,19,29,-39,-48,-48
9,-14,-24,2,17,-19,4,14,19,-39,-58,-48
0,-19,-19,9,9,-19,0,9,9,-39,-68,-48
0,-19,-19,9,9,-19,0,4,9,-48,-68,-48
0,-19,-19,9,9,-19,0,0,9,-58,-68,-48
0,-19,-19,9,9,-19,0,0,34,-58,-73,-53
0,-19,-19,9,9,-19,0,0,58,-58,-78,-58
-9,-24,-14,17,2,-19,0,-4,43,-63,-82,-58
-19,-29,-9,24,-4,-19,0,-9,29,-68,-87,-58
-19,-29,-9,24,-4,-19,0,-9,29,-68,-87,-63
-19,-29,-9,24,-4,-19,0,-9,29,-68,-87,-68
-24,-34,-9,29,-7,-21,14,-4,29,-68,-87,-73
-29,-39,-9,34,-9,-24,29,0,29,-68,-87,-78
-34,-48,-14,41,-9,-31,29,0,34,-68,-97,-78
-39,-58,-19,48,-9,-39,29,0,39,-68,-107,-78
-39,-58,-19,48,-9,-39,29,9,39,-73,-107,-78
-39,-58,-19,48,-9,-39,29,19,39,-78,-107,-78
-48,-63,-14,56,-17,-39,39,24,24,-82,-117,-87
-58,-68,-9,63,-24,-39,48,29,9,-87,-126,-97
-58,-73,-14,65,-21,-43,53,34,29,-92,-146,-122
-58,-78,-19,68,-19,-48,58,39,48,-97,-165,-146
-58,-82,-24,70,-17,-53,63,43,58,-97,-165,-146
-58,-87,-29,73,-14,-58,68,48,68,-97,-165,-146
-68,-92,-24,80,-21,-58,73,63,73,-92,-151,-136
-78,-97,-19,87,-29,-58,78,78,78,-87,-136,-126
-78,-97,-19,87,-29,-58,82,82,82,-87,-146,-126
-78,-97,-19,87,-29,-58,87,87,87,-87,-156,-126
-107,-122,-14,114,-46,-68,87,92,87,-87,-161,-136
-136,-146,-9,141,-63,-78,87,97,87,-87,-165,-146
-92,-107,-14,100,-39,-61,102,122,112,-73,-165,-146
-48,-68,-19,58,-14,-43,117,146,136,-58,-165,-146
-68,-92,-24,80,-21,-58,126,161,141,-58,-175,-161
-87,-117,-29,102,-29,-73,136,175,146,-58,-185,-175
-92,-126,-34,109,-29,-80,136,185,156,-53,-185,-180
-97,-136,-39,117,-29,-87,136,195,165,-48,-185,-185
-97,-136,-39,117,-29,-87,151,214,180,-39,-185,-185
-97,-136,-39,117,-29,-87,165,234,195,-29,-185,-185
-102,-136,-34,119,-34,-85,175,258,219,-9,-190,-200
-107,-136,-29,122,-39,-82,185,283,244,9,-195,-214
-107,-146,-39,126,-34,-92,200,312,273,24,-195,-224
-107,-156,-48,131,-29,-102,214,341,302,39,-195,-234
-112,-165,-53,139,-29,-109,229,370,326,63,-190,-234
-117,-175,-58,146,-29,-117,244,400,351,87,-185,-234
-117,-180,-63,148,-26,-122,258,434,395,117,-185,-239
-117,-185,-68,151,-24,-126,273,468,439,146,-185,-244
-117,-185,-68,151,-24,-126,283,497,468,175,-185,-248
-117,-185,-68,151,-24,-126,292,527,497,204,-185,-253
-117,-185,-68,151,-24,-126,297,556,536,234,-180,-253
-117,-185,-68,151,-24,-126,302,585,575,263,-175,-253
-112,-180,-68,146,-21,-124,302,600,610,297,-156,-248
-107,-175,-68,141,-19,-122,302,614,644,331,-136,-244
-97,-165,-68,131,-14,-117,297,614,658,361,-112,-239
-87,-156,-68,122,-9,-112,292,614,673,390,-87,-234
-78,-136,-58,107,-9,-97,278,595,673,400,-78,-219
-68,-117,-48,92,-9,-82,263,575,673,409,-68,-204
-58,-112,-53,85,-2,-82,244,527,624,390,-58,-180
-48,-107,-58,78,4,-82,224,478,575,370,-48,-156
-29,-78,-48,53,9,-63,190,409,497,322,-43,-126
-9,-48,-39,29,14,-43,156,341,419,273,-39,-97
0,-24,-24,12,12,-24,117,273,356,219,-39,-82
9,0,-9,-4,9,-4,78,204,292,165,-39,-68
24,14,-9,-19,17,2,48,156,229,117,-39,-39
39,29,-9,-34,24,9,19,107,165,68,-39,-9
43,43,0,-43,21,21,0,63,122,39,-39,9
48,58,9,-53,19,34,-19,19,78,9,-39,29
48,68,19,-58,14,43,-34,-9,43,-19,-39,29
48,78,29,-63,9,53,-48,-39,9,-48,-39,29
48,78,29,-63,9,53,-58,-58,-14,-68,-43,39
48,78,29,-63,9,53,-68,-78,-39,-87,-48,48
48,78,29,-63,9,53,-78,-92,-53,-97,-53,48
48,78,29,-63,9,53,-87,-107,-68,-107,-58,48
48,82,34,-65,7,58,-87,-112,-82,-117,-73,48
48,87,39,-68,4,63,-87,-117,-97,-126,-87,48
48,87,39,-68,4,63,-82,-117,-87,-126,-78,48
48,87,39,-68,4,63,-78,-117,-78,-126,-68,48
48,82,34,-65,7,58,-78,-117,-78,-126,-68,48
48,78,29,-63,9,53,-78,-117,-78,-126,-68,48
48,73,24,-61,12,48,-78,-117,-78,-126,-68,48
48,68,19,-58,14,43,-78,-117,-78,-126,-68,48
48,68,19,-58,14,43,-78,-112,-78,-126,-68,48
48,68,19,-58,14,43,-78,-107,-78,-126,-68,48
48,68,19,-58,14,43,-78,-107,-73,-122,-63,48
48,68,19,-58,14,43,-78,-107,-68,-117,-58,48
48,68,19,-58,14,43,-73,-107,-68,-112,-58,48
48,68,19,-58,14,43,-68,-107,-68,-107,-58,48
48,68,19,-58,14,43,-68,-107,-58,-107,-63,43
48,68,19,-58,14,43,-68,-107,-48,-107,-68,39
48,68,19,-58,14,43,-68,-97,-43,-97,-68,39
48,68,19,-58,14,43,-68,-87,-39,-87,-68,39
48,58,9,-53,19,34,-63,-87,-39,-82,-63,29
48,48,0,-48,24,24,-58,-87,-39,-78,-58,19
48,48,0,-48,24,24,-58,-87,-39,-73,-48,34
48,48,0,-48,24,24,-58,-87,-39,-68,-39,48
43,43,0,-43,21,21,-53,-87,-34,-63,-39,48
39,39,0,-39,19,19,-48,-87,-29,-58,-39,48
39,39,0,-39,19,19,-48,-87,-29,-53,-39,39
39,39,0,-39,19,19,-48,-87,-29,-48,-39,29
43,48,4,-46,19,26,-48,-87,-24,-48,-34,29
48,58,9,-53,19,34,-48,-87,-19,-48,-29,29
48,48,0,-48,24,24,-48,-87,-19,-43,-24,34
48,39,-9,-43,29,14,-48,-87,-19,-39,-19,39
48,24,-24,-36,36,0,-48,-87,-19,-39,-19,39
48,9,-39,-29,43,-14,-48,-87,-19,-39,-19,39
48,29,-19,-39,34,4,-53,-87,-24,-43,-24,29
48,48,0,-48,24,24,-58,-87,-29,-48,-29,19
48,48,0,-48,24,24,-63,-92,-43,-48,-29,19
48,48,0,-48,24,24,-68,-97,-58,-48,-29,19
48,48,0,-48,24,24,-68,-97,-43,-43,-24,24
48,48,0,-48,24,24,-68,-97,-29,-39,-19,29
48,43,-4,-46,26,19,-63,-97,-29,-39,-9,34
48,39,-9,-43,29,14,-58,-97,-29,-39,0,39
48,34,-14,-41,31,9,-58,-97,-29,-39,0,39
48,29,-19,-39,34,4,-58,-97,-29,-39,0,39
43,24,-19,-34,31,2,-53,-97,-29,-43,-9,34
39,19,-19,-29,29,0,-48,-97,-29,-48,-19,29
39,19,-19,-29,29,0,-48,-97,-29,-53,-24,29
39,19,-19,-29,29,0,-48,-97,-29,-58,-29,29
39,34,-4,-36,21,14,-63,-102,-53,-58,-29,19
39,48,9,-43,14,29,-78,-107,-78,-58,-29,9
43,48,4,-46,19,26,-68,-107,-58,-58,-29,19
48,48,0,-48,24,24,-58,-107,-39,-58,-29,29
58,48,-9,-53,34,19,-53,-102,-39,-43,-9,43
68,48,-19,-58,43,14,-48,-97,-39,-29,9,58
73,53,-19,-63,46,17,-34,-87,-19,-29,9,58
78,58,-19,-68,48,19,-19,-78,0,-29,9,58
78,73,-4,-75,41,34,-14,-68,0,-24,14,63
78,87,9,-82,34,48,-9,-58,0,-19,19,68
78,112,34,-95,21,73,-4,-58,0,-14,34,73
78,136,58,-107,9,97,0,-58,0,-9,48,78
82,126,43,-104,19,85,0,-58,9,-9,39,78
87,117,29,-102,29,73,0,-58,19,-9,29,78
87,112,24,-100,31,68,0,-53,19,-9,24,78
87,107,19,-97,34,63,0,-48,19,-9,19,78
87,107,19,-97,34,63,0,-48,14,-9,19,78
87,107,19,-97,34,63,0,-48,9,-9,19,78
87,107,19,-97,34,63,-4,-53,4,-14,19,73
87,107,19,-97,34,63,-9,-58,0,-19,19,68
87,107,19,-97,34,63,-14,-63,-4,-19,19,68
87,107,19,-97,34,63,-19,-68,-9,-19,19,68
87,92,4,-90,41,48,-19,-68,-9,-24,14,68
87,78,-9,-82,48,34,-19,-68,-9,-29,9,68
87,78,-9,-82,48,34,-24,-73,-9,-34,0,53
87,78,-9,-82,48,34,-29,-78,-9,-39,-9,39
87,78,-9,-82,48,34,-34,-78,-9,-39,-9,39
87,78,-9,-82,48,34,-39,-78,-9,-39,-9,39
87,73,-14,-80,51,29,-39,-82,-19,-39,-9,53
87,68,-19,-78,53,24,-39,-87,-29,-39,-9,68
82,58,-24,-70,53,17,-39,-87,-29,-48,-24,43
78,48,-29,-63,53,9,-39,-87,-29,-58,-39,19
73,48,-24,-61,48,12,-43,-92,-29,-58,-39,19
68,48,-19,-58,43,14,-48,-97,-29,-58,-39,19
68,48,-19,-58,43,14,-48,-97,-34,-63,-34,29
68,48,-19,-58,43,14,-48,-97,-39,-68,-29,39
68,24,-43,-46,56,-9,-48,-97,-39,-68,-29,29
68,0,-68,-34,68,-34,-48,-97,-39,-68,-29,19
68,9,-58,-39,63,-24,-53,-97,-43,-68,-29,19
68,19,-48,-43,58,-14,-58,-97,-48,-68,-29,19
58,19,-39,-39,48,-9,-58,-102,-48,-68,-34,19
48,19,-29,-34,39,-4,-58,-107,-48,-68,-39,19
48,19,-29,-34,39,-4,-63,-107,-53,-78,-48,14
48,19,-29,-34,39,-4,-68,-107,-58,-87,-58,9
53,19,-34,-36,43,-7,-68,-107,-58,-87,-58,9
58,19,-39,-39,48,-9,-68,-107,-58,-87,-58,9
58,9,-48,-34,53,-19,-68,-107,-58,-87,-58,9
58,0,-58,-29,58,-29,-68,-107,-58,-87,-58,9
48,-9,-58,-19,53,-34,-68,-107,-48,-87,-58,9
39,-19,-58,-9,48,-39,-68,-107,-39,-87,-58,9
39,-4,-43,-17,41,-24,-68,-112,-53,-87,-48,9
39,9,-29,-24,34,-9,-68,-117,-68,-87,-39,9
39,19,-19,-29,29,0,-78,-117,-68,-87,-53,-9
39,29,-9,-34,24,9,-87,-117,-68,-87,-68,-29
39,14,-24,-26,31,-4,-78,-112,-63,-87,-53,-4
39,0,-39,-19,39,-19,-68,-107,-58,-87,-39,19
39,-24,-63,-7,51,-43,-68,-107,-58,-92,-48,19
39,-48,-87,4,63,-68,-68,-107,-58,-97,-58,19
39,-24,-63,-7,51,-43,-68,-107,-68,-97,-68,0
39,0,-39,-19,39,-19,-68,-107,-78,-97,-78,-19
39,0,-39,-19,39,-19,-68,-107,-68,-97,-78,-19
39,0,-39,-19,39,-19,-68,-107,-58,-97,-78,-19
39,9,-29,-24,34,-9,-68,-107,-58,-92,-63,-9
39,19,-19,-29,29,0,-68,-107,-58,-87,-48,0
48,24,-24,-36,36,0,-63,-102,-48,-82,-48,4
53,29,-24,-41,39,2,-63,-92,-34,-73,-43,14
63,39,-24,-51,43,7,-63,-82,-24,-63,-39,29
73,39,-34,-56,53,2,-58,-68,-4,-48,-24,39
78,39,-39,-58,58,0,-53,-63,-4,-43,-14,43
82,39,-43,-61,63,-2,-53,-43,4,-39,-14,53
82,53,-29,-68,56,12,-58,-34,19,-39,-14,39
87,73,-14,-80,51,29,-73,-34,9,-48,-14,19
92,107,14,-100,39,61,-126,-58,19,-24,-4,43
92,136,43,-114,24,90,-170,-112,14,-9,9,68
102,146,43,-124,29,95,-219,-151,4,-14,14,82
112,161,48,-136,31,104,-239,-185,9,-9,24,87
107,175,68,-141,19,122,-258,-204,14,-9,24,92
97,175,78,-136,9,126,-258,-214,0,-14,14,92
97,165,68,-131,14,117,-248,-214,-19,-24,4,87
97,161,63,-129,17,112,-224,-209,-19,-34,0,87
97,146,48,-122,24,97,-204,-200,-19,-34,0,78
97,131,34,-114,31,82,-185,-180,-14,-34,0,68
97,117,19,-107,39,68,-170,-161,-14,-24,19,82
97,92,-4,-95,51,43,-151,-141,-19,-24,24,87
82,58,-24,-70,53,17,-136,-141,-53,-63,-19,63
68,19,-48,-43,58,-14,-117,-136,-73,-97,-48,39
39,-19,-58,-9,48,-39,-102,-136,-82,-112,-68,14
9,-58,-68,24,39,-63,-73,-117,-82,-122,-78,-4
4,-48,-53,21,29,-51,-43,-92,-68,-112,-82,-9
4,-34,-39,14,21,-36,-39,-78,-58,-97,-78,-14
4,-34,-39,14,21,-36,-39,-78,-53,-97,-78,-9
9,-34,-43,12,26,-39,-39,-78,-53,-107,-82,-9
9,-24,-34,7,21,-29,-34,-78,-53,-112,-82,-4
9,-19,-29,4,19,-24,-34,-78,-53,-112,-82,-4
9,-19,-29,4,19,-24,-34,-73,-53,-107,-87,-9
9,-24,-34,7,21,-29,-34,-73,-58,-102,-87,-9
9,-24,-34,7,21,-29,-29,-73,-58,-102,-82,-9
9,-24,-34,7,21,-29,-29,-73,-58,-102,-78,-9
9,-34,-43,12,26,-39,-29,-73,-53,-97,-73,-4
9,-43,-53,17,31,-48,-29,-68,-43,-92,-73,0
9,-43,-53,17,31,-48,-29,-68,-43,-92,-68,4
9,-43,-53,17,31,-48,-24,-68,-43,-92,-63,9
9,-39,-48,14,29,-43,-24,-68,-43,-87,-58,9
9,-34,-43,12,26,-39,-19,-63,-43,-82,-58,9
9,-24,-34,7,21,-29,-19,-63,-29,-73,-58,9
4,-4,-9,0,7,-7,-9,-53,-4,-73,-58,9
-9,-4,4,7,-7,0,34,-9,63,-78,-73,-9
-43,-14,29,29,-36,7,102,82,122,-97,-136,-63
-58,-29,29,43,-43,0,180,180,175,-126,-214,-122
-34,14,48,9,-41,31,190,239,258,-53,-151,-73
102,170,68,-136,17,119,82,283,409,253,146,131
292,439,146,-366,73,292,-82,283,683,712,600,444
488,712,224,-600,131,468,-302,73,610,985,946,741
688,990,302,-839,192,646,-551,-170,268,1107,1278,1054
893,1395,502,-1144,195,949,-902,-512,-156,1332,1776,1478
1029,1810,780,-1420,124,1295,-1293,-1049,-717,1405,2171,1878
907,2000,1093,-1454,-92,1546,-1522,-1654,-1385,1259,2288,2113
717,1898,1180,-1307,-231,1539,-1483,-1956,-1908,810,1995,2069
400,1273,873,-836,-236,1073,-1010,-1542,-2293,-107,1063,1493
34,331,297,-183,-131,314,-287,-814,-2000,-1063,-180,580
-141,-444,-302,292,80,-373,292,-58,-1542,-1337,-814,-185
-204,-702,-497,453,146,-600,614,424,-917,-829,-688,-429
-175,-678,-502,427,163,-590,653,483,-458,-463,-492,-429
-136,-531,-395,334,129,-463,556,414,-263,-283,-331,-317
-92,-375,-283,234,95,-329,414,297,-165,-170,-248,-229
-53,-258,-204,156,75,-231,312,239,-68,-107,-180,-161
-43,-185,-141,114,48,-163,214,180,9,-78,-146,-126
-39,-146,-107,92,34,-126,156,136,53,-58,-122,-112
-39,-131,-92,85,26,-112,131,107,53,-48,-117,-107
-34,-122,-87,78,26,-104,107,87,53,-63,-117,-102
-34,-122,-87,78,26,-104,107,73,58,-68,-126,-97
-34,-122,-87,78,26,-104,97,63,63,-63,-126,-97
-29,-112,-82,70,26,-97,92,53,63,-63,-122,-97
-24,-102,-78,63,26,-90,92,48,63,-68,-117,-102
-29,-97,-68,63,19,-82,78,48,53,-68,-126,-102
-29,-92,-63,61,17,-78,73,43,53,-68,-126,-102
-29,-87,-58,58,14,-73,78,43,63,-73,-122,-107
-29,-87,-58,58,14,-73,78,43,63,-73,-122,-112
-39,-87,-48,63,4,-68,78,43,63,-73,-126,-112
-39,-87,-48,63,4,-68,78,43,63,-73,-126,-122
-39,-92,-53,65,7,-73,78,34,63,-92,-136,-126
-39,-92,-53,65,7,-73,78,29,63,-92,-136,-126
-39,-92,-53,65,7,-73,78,43,68,-87,-136,-122
-43,-97,-53,70,4,-75,82,43,68,-92,-136,-122
-43,-102,-58,73,7,-80,87,43,78,-92,-136,-122
-43,-102,-58,73,7,-80,87,43,78,-92,-136,-122
-43,-102,-58,73,7,-80,87,48,78,-92,-141,-131
-48,-102,-53,75,2,-78,87,48,78,-92,-146,-131
-48,-102,-53,75,2,-78,92,53,82,-92,-146,-131
-48,-107,-58,78,4,-82,97,63,82,-102,-151,-136
-53,-107,-53,80,0,-80,102,63,82,-102,-151,-146
-58,-112,-53,85,-2,-82,102,68,87,-102,-151,-151
-58,-112,-53,85,-2,-82,102,68,97,-102,-161,-156
-58,-112,-53,85,-2,-82,107,73,97,-102,-161,-170
-68,-117,-48,92,-9,-82,107,73,102,-102,-165,-175
-73,-122,-48,97,-12,-85,112,82,107,-102,-170,-175
-73,-122,-48,97,-12,-85,117,87,117,-107,-175,-175
-78,-131,-53,104,-12,-92,126,102,122,-112,-180,-180
-82,-141,-58,112,-12,-100,126,107,131,-112,-180,-190
-82,-151,-68,117,-7,-109,131,112,136,-107,-175,-190
-82,-151,-68,117,-7,-109,136,122,146,-102,-180,-185
-82,-156,-73,119,-4,-114,146,131,156,-92,-175,-190
-92,-165,-73,129,-9,-119,146,141,161,-92,-180,-200
-97,-165,-68,131,-14,-117,151,151,170,-82,-180,-200
-92,-170,-78,131,-7,-124,156,161,180,-92,-195,-209
-87,-175,-87,131,0,-131,165,170,195,-92,-204,-219
-92,-190,-97,141,2,-143,175,180,209,-82,-204,-239
-97,-195,-97,146,0,-146,185,200,224,-73,-209,-263
-112,-204,-92,158,-9,-148,190,214,229,-68,-219,-263
-112,-209,-97,161,-7,-153,200,234,253,-48,-219,-263
-107,-224,-117,165,4,-170,209,248,268,-29,-214,-268
-112,-234,-122,173,4,-178,224,273,292,-4,-209,-273
-117,-239,-122,178,2,-180,239,292,322,19,-209,-283
-122,-248,-126,185,2,-187,253,312,351,43,-204,-292
-131,-263,-131,197,0,-197,268,326,385,68,-200,-307
-136,-273,-136,204,0,-204,283,351,419,102,-204,-322
-151,-283,-131,217,-9,-207,292,380,458,141,-200,-331
-156,-287,-131,222,-12,-209,307,400,492,190,-195,-341
-161,-292,-131,226,-14,-212,326,424,541,239,-185,-356
-170,-302,-131,236,-19,-217,336,448,585,292,-175,-370
-175,-312,-136,244,-19,-224,351,468,634,351,-151,-375
-175,-312,-136,244,-19,-224,356,478,692,419,-122,-380
-175,-322,-146,248,-14,-234,361,497,722,478,-92,-375
-180,-322,-141,251,-19,-231,361,507,771,541,-68,-370
-170,-317,-146,244,-12,-231,361,507,800,605,-39,-361
-161,-312,-151,236,-4,-231,356,497,819,644,-14,-351
-161,-292,-131,226,-14,-212,346,492,824,673,19,-336
-156,-278,-122,217,-17,-200,331,453,819,688,39,-312
-146,-258,-112,202,-17,-185,297,409,814,668,43,-287
-131,-239,-107,185,-12,-173,273,370,741,634,53,-268
-112,-219,-107,165,-2,-163,248,341,663,590,53,-248
-97,-195,-97,146,0,-146,214,302,595,531,53,-229
-87,-165,-78,126,-4,-122,175,244,517,473,53,-195
-63,-141,-78,102,7,-109,141,195,429,414,53,-165
-48,-122,-73,85,12,-97,102,161,351,331,53,-131
-34,-97,-63,65,14,-80,78,117,292,258,53,-97
-19,-68,-48,43,14,-58,48,78,239,209,53,-63
-9,-53,-43,31,17,-48,19,43,170,156,48,-39
0,-34,-34,17,17,-34,0,9,107,97,34,-29
14,-9,-24,-2,19,-17,-19,-14,68,58,29,-9
19,-4,-24,-7,21,-14,-29,-34,48,34,34,9
29,0,-29,-14,29,-14,-39,-48,14,4,39,29
34,0,-34,-17,34,-17,-43,-68,-24,-19,34,34
39,4,-34,-21,36,-14,-53,-68,-48,-34,29,39
43,19,-24,-31,34,-2,-58,-78,-58,-48,29,39
43,34,-9,-39,26,12,-73,-87,-68,-68,19,43
34,39,4,-36,14,21,-73,-87,-78,-73,19,43
24,43,19,-34,2,31,-73,-92,-82,-78,14,48
34,34,0,-34,17,17,-73,-97,-87,-87,9,48
48,34,-14,-41,31,9,-78,-97,-97,-97,9,48
48,34,-14,-41,31,9,-78,-97,-97,-102,9,53
48,34,-14,-41,31,9,-78,-97,-97,-107,4,53
48,39,-9,-43,29,14,-78,-97,-97,-107,4,53
43,39,-4,-41,24,17,-78,-97,-97,-107,4,53
48,39,-9,-43,29,14,-78,-92,-97,-107,4,53
53,39,-14,-46,34,12,-73,-92,-92,-107,0,53
53,39,-14,-46,34,12,-73,-92,-92,-107,4,53
48,39,-9,-43,29,14,-73,-92,-97,-107,9,48
48,39,-9,-43,29,14,-73,-92,-92,-107,9,48
48,34,-14,-41,31,9,-73,-92,-87,-112,9,48
48,34,-14,-41,31,9,-73,-87,-82,-112,9,43
48,34,-14,-41,31,9,-73,-87,-82,-107,9,43
48,34,-14,-41,31,9,-73,-87,-82,-107,9,43
53,34,-19,-43,36,7,-73,-82,-82,-102,9,43
53,39,-14,-46,34,12,-68,-82,-78,-97,14,43
48,43,-4,-46,26,19,-68,-82,-78,-92,14,43
53,39,-14,-46,34,12,-68,-82,-78,-92,14,39
58,39,-19,-48,39,9,-68,-82,-73,-92,19,39
53,39,-14,-46,34,12,-63,-78,-68,-82,19,39
53,34,-19,-43,36,7,-63,-73,-63,-78,19,39
53,34,-19,-43,36,7,-58,-73,-58,-73,14,43
53,34,-19,-43,36,7,-53,-73,-53,-63,14,43
53,29,-24,-41,39,2,-53,-73,-48,-58,14,43
53,24,-29,-39,41,-2,-53,-73,-43,-53,14,43
53,24,-29,-39,41,-2,-53,-68,-39,-48,19,43
53,24,-29,-39,41,-2,-53,-63,-39,-43,24,43
48,19,-29,-34,39,-4,-53,-63,-39,-43,24,39
48,19,-29,-34,39,-4,-53,-63,-39,-43,24,39
48,24,-24,-36,36,0,-53,-63,-39,-43,29,39
48,29,-19,-39,34,4,-53,-58,-34,-39,34,39
43,29,-14,-36,29,7,-53,-58,-34,-39,34,39
43,29,-14,-36,29,7,-53,-58,-34,-34,34,39
43,29,-14,-36,29,7,-58,-63,-34,-39,34,39
43,24,-19,-34,31,2,-63,-68,-39,-43,34,39
43,24,-19,-34,31,2,-63,-68,-39,-43,34,34
43,24,-19,-34,31,2,-63,-68,-39,-48,29,34
39,24,-14,-31,26,4,-68,-73,-48,-43,29,34
34,24,-9,-29,21,7,-68,-73,-48,-39,29,34
34,19,-14,-26,24,2,-68,-73,-43,-48,29,34
34,14,-19,-24,26,-2,-63,-78,-43,-53,29,34
34,14,-19,-24,26,-2,-63,-78,-48,-53,24,34
34,14,-19,-24,26,-2,-68,-78,-53,-53,24,34
34,14,-19,-24,26,-2,-68,-82,-58,-53,24,34
34,14,-19,-24,26,-2,-68,-87,-58,-53,24,34
34,14,-19,-24,26,-2,-68,-87,-68,-58,24,34
39,14,-24,-26,31,-4,-68,-87,-73,-63,24,34
39,14,-24,-26,31,-4,-68,-87,-73,-63,19,34
39,14,-24,-26,31,-4,-68,-87,-73,-63,19,34
39,14,-24,-26,31,-4,-73,-87,-73,-63,19,34
39,9,-29,-24,34,-9,-73,-87,-73,-63,19,34
39,4,-34,-21,36,-14,-73,-92,-78,-68,14,34
34,0,-34,-17,34,-17,-73,-92,-78,-68,9,34
34,0,-34,-17,34,-17,-73,-87,-82,-73,9,29
39,0,-39,-19,39,-19,-73,-87,-87,-73,9,24
39,4,-34,-21,36,-14,-73,-87,-87,-68,9,29
39,9,-29,-24,34,-9,-78,-87,-92,-82,9,24
39,9,-29,-24,34,-9,-68,-87,-87,-87,4,24
39,14,-24,-26,31,-4,-63,-92,-82,-92,0,29
39,9,-29,-24,34,-9,-63,-87,-78,-82,0,29
39,9,-29,-24,34,-9,-68,-87,-78,-78,0,29
43,19,-24,-31,34,-2,-68,-87,-78,-78,9,34
48,29,-19,-39,34,4,-68,-87,-78,-78,19,39
53,39,-14,-46,34,12,-68,-82,-68,-73,19,43
53,53,0,-53,26,26,-73,-78,-53,-63,19,53
58,73,14,-65,21,43,-78,-78,-43,-58,24,63
63,87,24,-75,19,56,-78,-78,-24,-48,34,68
68,97,29,-82,19,63,-73,-73,-19,-39,48,73
73,107,34,-90,19,70,-73,-53,-4,-29,53,82
82,112,29,-97,26,70,-78,-43,9,-19,53,87
97,122,24,-109,36,73,-92,-43,0,-19,53,87
102,136,34,-119,34,85,-141,-68,0,-19,53,87
102,146,43,-124,29,95,-180,-122,-14,-29,58,87
102,151,48,-126,26,100,-219,-161,-39,-43,58,97
102,161,58,-131,21,109,-229,-195,-48,-48,63,97
102,185,82,-143,9,134,-248,-214,-53,-48,63,102
97,195,97,-146,0,146,-248,-224,-78,-53,53,102
97,180,82,-139,7,131,-248,-224,-97,-63,43,92
97,170,73,-134,12,122,-234,-219,-97,-73,39,87
97,161,63,-129,17,112,-214,-209,-97,-73,39,87
97,151,53,-124,21,102,-195,-190,-92,-73,39,87
97,141,43,-119,26,92,-180,-175,-92,-73,39,92
97,122,24,-109,36,73,-161,-161,-97,-82,24,87
82,92,9,-87,36,51,-146,-161,-126,-112,-4,73
68,58,-9,-63,39,24,-126,-156,-141,-136,-19,58
48,29,-19,-39,34,4,-112,-156,-151,-151,-39,34
29,0,-29,-14,29,-14,-82,-136,-151,-161,-48,14
19,-9,-29,-4,24,-19,-53,-112,-136,-151,-48,14
14,-14,-29,0,21,-21,-48,-97,-126,-136,-39,14
14,-14,-29,0,21,-21,-48,-97,-117,-126,-34,14
19,-14,-34,-2,26,-24,-48,-97,-112,-126,-34,9
19,-9,-29,-4,24,-19,-43,-92,-112,-131,-34,14
19,-9,-29,-4,24,-19,-43,-87,-112,-131,-34,14
19,-9,-29,-4,24,-19,-43,-82,-112,-136,-39,9
19,-14,-34,-2,26,-24,-43,-82,-117,-141,-39,9
19,-14,-34,-2,26,-24,-39,-82,-117,-141,-39,9
19,-14,-34,-2,26,-24,-39,-82,-117,-141,-39,9
19,-14,-34,-2,26,-24,-34,-82,-122,-141,-34,9
19,-14,-34,-2,26,-24,-29,-78,-122,-141,-34,9
19,-14,-34,-2,26,-24,-29,-78,-122,-141,-34,9
19,-14,-34,-2,26,-24,-24,-78,-122,-141,-34,9
19,-14,-34,-2,26,-24,-24,-82,-122,-136,-34,9
19,-14,-34,-2,26,-24,-19,-82,-122,-131,-39,9
14,-14,-29,0,21,-21,-19,-82,-107,-122,-39,9
4,-4,-9,0,7,-7,-9,-73,-82,-122,-39,9
-9,-14,-4,12,-2,-9,29,-34,-14,-136,-63,-19
-43,-34,9,39,-26,-12,92,53,43,-165,-136,-82
-63,-39,24,51,-43,-7,165,136,97,-209,-229,-146
-43,14,58,14,-51,36,170,180,180,-151,-180,-102
82,195,112,-139,-14,153,63,214,331,175,141,117
263,488,224,-375,19,356,-102,204,605,653,619,444
444,775,331,-610,56,553,-307,43,497,912,966,766
629,1068,439,-849,95,753,-541,-151,122,1019,1298,1102
829,1444,614,-1137,107,1029,-878,-458,-414,1141,1722,1488
961,1830,868,-1395,46,1349,-1254,-961,-1088,1112,2044,1849
863,1966,1102,-1415,-119,1534,-1478,-1566,-1815,897,2191,2093
697,1810,1112,-1254,-207,1461,-1434,-1869,-2396,380,1927,2059
390,1200,810,-795,-209,1005,-995,-1488,-2620,-336,1098,1546
34,273,239,-153,-102,256,-307,-795,-2166,-1093,-43,697
-136,-468,-331,302,97,-400,263,-58,-1615,-1342,-702,-92
-195,-692,-497,444,151,-595,575,405,-897,-810,-600,-361
-165,-653,-488,409,161,-570,614,458,-414,-405,-380,-361
-126,-492,-366,309,119,-429,517,385,-195,-185,-195,-248
-82,-331,-248,207,82,-290,366,268,-102,-82,-126,-175
-43,-209,-165,126,61,-187,253,209,-9,-29,-73,-122
-34,-165,-131,100,48,-148,180,151,39,-14,-43,-87
-29,-156,-126,92,48,-141,146,107,53,-9,-24,-73
-29,-141,-112,85,41,-126,126,87,53,-4,-29,-73
-24,-131,-107,78,41,-119,107,78,53,-24,-39,-73
-24,-131,-107,78,41,-119,107,68,58,-34,-48,-68
-24,-131,-107,78,41,-119,97,63,63,-34,-48,-68
-24,-131,-107,78,41,-119,92,58,63,-34,-53,-68
-24,-131,-107,78,41,-119,92,58,63,-39,-58,-73
-29,-131,-102,80,36,-117,82,58,53,-43,-68,-73
-29,-131,-102,80,36,-117,82,53,53,-48,-68,-73
-24,-122,-97,73,36,-109,87,53,63,-53,-63,-73
-19,-117,-97,68,39,-107,87,53,63,-53,-63,-73
-29,-117,-87,73,29,-102,87,53,63,-53,-73,-73
-29,-117,-87,73,29,-102,87,53,63,-53,-78,-82
-29,-122,-92,75,31,-107,87,43,63,-73,-87,-87
-29,-122,-92,75,31,-107,87,39,63,-73,-87,-87
-29,-117,-87,73,29,-102,87,53,68,-63,-87,-87
-34,-117,-82,75,24,-100,92,53,68,-63,-87,-92
-34,-126,-92,80,29,-109,97,53,78,-63,-92,-92
-34,-131,-97,82,31,-114,97,53,78,-63,-97,-92
-34,-131,-97,82,31,-114,97,58,82,-63,-102,-107
-39,-131,-92,85,26,-112,97,58,87,-63,-107,-112
-43,-131,-87,87,21,-109,102,63,92,-63,-107,-112
-48,-136,-87,92,19,-112,107,73,92,-73,-112,-117
-53,-131,-78,92,12,-104,112,73,97,-73,-112,-122
-58,-131,-73,95,7,-102,112,78,107,-73,-112,-122
-58,-131,-73,95,7,-102,112,78,117,-73,-122,-126
-58,-131,-73,95,7,-102,117,82,117,-73,-122,-141
-63,-136,-73,100,4,-104,117,82,122,-73,-131,-146
-63,-141,-78,102,7,-109,122,92,126,-73,-141,-146
-63,-141,-78,102,7,-109,126,92,136,-73,-146,-146
-68,-151,-82,109,7,-117,136,102,141,-73,-151,-151
-73,-156,-82,114,4,-119,136,107,151,-73,-151,-161
-73,-161,-87,117,7,-124,141,112,156,-68,-146,-161
-73,-161,-87,117,7,-124,146,122,165,-68,-156,-161
-73,-165,-92,119,9,-129,156,131,175,-63,-156,-170
-82,-180,-97,131,7,-139,161,141,180,-68,-165,-180
-87,-185,-97,136,4,-141,170,151,190,-63,-170,-180
-87,-190,-102,139,7,-146,175,161,204,-63,-175,-190
-87,-195,-107,141,9,-151,185,170,224,-53,-175,-200
-92,-204,-112,148,9,-158,195,175,239,-43,-175,-209
-97,-204,-107,151,4,-156,204,190,253,-34,-180,-224
-112,-214,-102,163,-4,-158,209,204,263,-24,-190,-234
-112,-219,-107,165,-2,-163,219,224,292,0,-190,-244
-107,-229,-122,168,7,-175,229,234,312,14,-185,-253
-112,-234,-122,173,4,-178,244,253,341,34,-180,-263
-117,-244,-126,180,4,-185,253,283,375,68,-180,-273
-126,-263,-136,195,4,-200,268,317,429,117,-170,-283
-131,-268,-136,200,2,-202,287,331,473,165,-161,-287
-136,-273,-136,204,0,-204,312,351,517,214,-156,-292
-146,-278,-131,212,-7,-204,322,370,556,258,-141,-302
-156,-283,-126,219,-14,-204,331,390,595,302,-126,-312
-170,-292,-122,231,-24,-207,351,405,634,356,-112,-322
-180,-297,-117,239,-31,-207,366,414,678,414,-97,-331
-195,-302,-107,248,-43,-204,380,429,727,473,-87,-341
-214,-297,-82,256,-65,-190,390,439,775,527,-68,-346
-229,-287,-58,258,-85,-173,375,409,795,570,-53,-351
-244,-283,-39,263,-102,-161,366,385,800,610,-39,-356
-268,-273,-4,270,-131,-139,356,366,814,629,-24,-346
-287,-268,19,278,-153,-124,341,336,829,653,-14,-341
-273,-229,43,251,-158,-92,341,336,824,663,9,-322
-268,-195,73,231,-170,-61,307,312,819,673,34,-302
-234,-146,87,190,-161,-29,278,302,795,673,68,-263
-200,-97,102,148,-151,2,248,307,771,668,97,-214
-161,-92,68,126,-114,-12,239,297,727,619,107,-190
-117,-68,48,92,-82,-9,219,302,692,575,112,-161
-87,-34,53,61,-70,9,175,248,600,497,102,-126
-58,-19,39,39,-48,9,131,204,507,414,92,-97
-43,-9,34,26,-39,12,82,112,409,331,82,-73
-34,0,34,17,-34,17,39,24,312,258,78,-48
-19,14,34,2,-26,24,14,9,239,190,68,-24
0,24,24,-12,-12,24,-14,-9,161,122,58,0
24,24,0,-24,12,12,-19,-14,126,92,53,14
34,19,-14,-26,24,2,-34,-34,68,43,39,24
43,19,-24,-31,34,-2,-43,-43,19,4,34,43
48,19,-29,-34,39,-4,-53,-58,-24,-24,19,53
43,4,-39,-24,41,-17,-53,-63,-48,-63,9,43
53,9,-43,-31,48,-17,-53,-63,-58,-82,9,53
53,4,-48,-29,51,-21,-53,-58,-73,-82,9,53
53,4,-48,-29,51,-21,-58,-68,-87,-87,4,58
58,4,-53,-31,56,-24,-63,-68,-87,-97,4,53
58,9,-48,-34,53,-19,-63,-68,-92,-112,4,53
63,9,-53,-36,58,-21,-63,-68,-102,-117,4,53
68,9,-58,-39,63,-24,-63,-63,-112,-122,0,48
68,4,-63,-36,65,-29,-63,-63,-117,-126,0,48
68,4,-63,-36,65,-29,-58,-63,-117,-131,0,48
68,4,-63,-36,65,-29,-58,-63,-117,-131,-9,48
68,4,-63,-36,65,-29,-58,-63,-117,-131,-14,48
68,4,-63,-36,65,-29,-58,-58,-112,-136,-14,43
68,4,-63,-36,65,-29,-58,-58,-112,-141,-14,39
68,4,-63,-36,65,-29,-58,-58,-112,-141,-14,39
68,4,-63,-36,65,-29,-63,-58,-112,-141,-14,39
68,4,-63,-36,65,-29,-63,-53,-126,-141,-14,43
68,4,-63,-36,65,-29,-68,-53,-126,-131,-9,48
78,14,-63,-46,70,-24,-92,-78,-141,-117,19,73
78,14,-63,-46,70,-24,-87,-78,-112,-107,34,78
53,4,-48,-29,51,-21,-39,-14,-24,-92,-9,34
48,4,-43,-26,46,-19,4,48,58,-58,-34,4
-19,-39,-19,29,0,-29,87,92,68,-92,-82,-48
14,43,29,-29,-7,36,73,107,136,97,97,58
156,312,156,-234,0,234,-29,185,644,771,697,405
297,580,283,-439,7,431,-170,126,780,1205,1161,736
497,844,346,-671,75,595,-322,87,610,1434,1532,1073
697,1190,492,-944,102,841,-575,-68,278,1644,1932,1420
1000,1800,800,-1400,100,1300,-1054,-458,-366,1600,2288,1854
1063,2103,1039,-1583,12,1571,-1346,-893,-1063,1366,2386,2108
922,2132,1210,-1527,-143,1671,-1532,-1600,-2220,292,1864,2103
653,1756,1102,-1205,-224,1429,-1332,-1639,-2947,-829,990,1732
141,722,580,-431,-219,651,-527,-912,-2493,-1649,-234,839
-131,-102,29,117,-80,-36,87,-209,-2005,-2030,-941,87
-146,-507,-361,326,107,-434,453,414,-1054,-1166,-688,-209
-117,-663,-546,390,214,-605,566,634,-400,-483,-444,-331
-78,-492,-414,285,168,-453,439,483,-185,-229,-229,-219
-34,-346,-312,190,139,-329,307,317,-58,-63,-92,-136
9,-204,-214,97,112,-209,190,229,29,9,-9,-63
19,-131,-151,56,85,-141,107,151,78,39,14,-34
19,-141,-161,61,90,-151,87,112,82,39,14,-34
19,-141,-161,61,90,-151,68,87,82,39,9,-34
19,-122,-141,51,80,-131,48,73,58,9,-9,-39
14,-112,-126,48,70,-119,48,58,39,-4,-29,-43
14,-112,-126,48,70,-119,43,53,43,-14,-39,-53
14,-112,-126,48,70,-119,43,48,43,-24,-48,-58
14,-126,-141,56,78,-134,48,48,43,-29,-48,-63
9,-141,-151,65,80,-146,43,48,34,-34,-58,-63
4,-146,-151,70,78,-148,43,43,34,-39,-58,-63
0,-146,-146,73,73,-146,48,43,43,-43,-53,-63
0,-146,-146,73,73,-146,48,43,39,-48,-53,-63
-9,-146,-136,78,63,-141,48,43,34,-53,-63,-63
-9,-146,-136,78,63,-141,48,43,34,-53,-73,-73
-9,-151,-141,80,65,-146,48,39,34,-73,-87,-78
-14,-151,-136,82,61,-143,48,29,29,-82,-92,-82
-19,-146,-126,82,53,-136,48,34,29,-82,-97,-87
-24,-146,-122,85,48,-134,53,34,24,-82,-102,-97
-24,-151,-126,87,51,-139,58,34,29,-82,-112,-102
-24,-151,-126,87,51,-139,58,34,29,-82,-117,-102
-24,-151,-126,87,51,-139,58,39,34,-82,-122,-112
-34,-156,-122,95,43,-139,63,39,39,-82,-126,-117
-39,-161,-122,100,41,-141,73,43,43,-82,-126,-122
-39,-165,-126,102,43,-146,78,53,43,-92,-131,-126
-43,-165,-122,104,39,-143,82,53,48,-92,-131,-131
-48,-175,-126,112,39,-151,82,58,58,-92,-131,-131
-48,-180,-131,114,41,-156,82,58,68,-92,-141,-136
-48,-180,-131,114,41,-156,87,63,68,-87,-141,-151
-53,-185,-131,119,39,-158,87,63,73,-82,-146,-156
-53,-190,-136,122,41,-163,92,73,78,-82,-156,-161
-53,-190,-136,122,41,-163,97,73,87,-82,-165,-170
-63,-200,-136,131,36,-168,107,82,92,-82,-170,-180
-73,-204,-131,139,29,-168,107,87,102,-82,-175,-190
-73,-209,-136,141,31,-173,112,92,112,-73,-175,-195
-73,-209,-136,141,31,-173,117,102,122,-68,-185,-200
-73,-209,-136,141,31,-173,126,117,136,-63,-190,-209
-82,-219,-136,151,26,-178,131,126,151,-63,-200,-219
-92,-224,-131,158,19,-178,141,136,165,-48,-200,-224
-97,-229,-131,163,17,-180,146,151,180,-43,-204,-239
-97,-239,-141,168,21,-190,161,165,200,-29,-204,-248
-102,-253,-151,178,24,-202,175,175,219,-14,-204,-253
-107,-253,-146,180,19,-200,185,195,248,0,-209,-263
-122,-263,-141,192,9,-202,190,209,273,14,-219,-273
-131,-268,-136,200,2,-202,204,229,307,43,-219,-283
-141,-278,-136,209,-2,-207,219,244,331,73,-214,-292
-141,-283,-141,212,0,-212,239,263,370,102,-204,-302
-136,-287,-151,212,7,-219,253,283,414,136,-200,-312
-141,-297,-156,219,7,-226,263,307,453,180,-190,-322
-151,-307,-156,229,2,-231,278,322,497,224,-175,-326
-146,-307,-161,226,7,-234,287,341,536,278,-165,-331
-151,-312,-161,231,4,-236,292,366,585,331,-141,-336
-156,-312,-156,234,0,-234,302,380,629,390,-122,-331
-156,-307,-151,231,-2,-229,312,395,678,448,-92,-326
-151,-307,-156,229,2,-231,312,409,712,507,-58,-312
-146,-302,-156,224,4,-229,317,424,751,566,-19,-292
-141,-287,-146,214,2,-217,307,429,785,624,19,-283
-131,-278,-146,204,7,-212,297,429,780,653,53,-263
-131,-258,-126,195,-2,-192,278,400,790,668,78,-244
-122,-234,-112,178,-4,-173,263,380,771,678,107,-214
-97,-214,-117,156,9,-165,234,346,712,658,126,-190
-82,-190,-107,136,12,-148,200,317,649,624,136,-170
-73,-170,-97,122,12,-134,180,263,600,566,136,-141
-58,-151,-92,104,17,-122,146,219,536,497,126,-112
-43,-126,-82,85,19,-104,126,170,439,439,117,-82
-24,-102,-78,63,26,-90,102,146,361,375,112,-58
-14,-78,-63,46,24,-70,73,136,292,297,97,-43
-9,-58,-48,34,19,-53,39,78,229,219,82,-19
9,-43,-53,17,31,-48,19,43,156,185,73,-14
19,-34,-53,7,36,-43,-4,29,107,131,58,0
24,-24,-48,0,36,-36,-19,0,82,68,53,14
29,-4,-34,-12,31,-19,-34,-19,34,29,43,24
29,4,-24,-17,26,-9,-43,-29,9,9,29,34
29,9,-19,-19,24,-4,-48,-43,-14,-19,14,34
34,19,-14,-26,24,2,-58,-48,-34,-39,9,39
29,19,-9,-24,19,4,-58,-53,-43,-48,9,39
34,24,-9,-29,21,7,-58,-58,-58,-63,14,48
34,24,-9,-29,21,7,-53,-68,-63,-78,9,53
39,24,-14,-31,26,4,-58,-68,-78,-82,4,53
43,24,-19,-34,31,2,-58,-68,-78,-78,4,53
43,24,-19,-34,31,2,-73,-68,-87,-97,-4,58
43,24,-19,-34,31,2,-73,-68,-92,-97,0,53
43,24,-19,-34,31,2,-73,-68,-92,-97,0,53
43,14,-29,-29,36,-7,-68,-68,-87,-97,0,48
43,14,-29,-29,36,-7,-68,-68,-87,-92,0,48
39,14,-24,-26,31,-4,-68,-68,-87,-87,0,48
39,14,-24,-26,31,-4,-63,-68,-87,-87,-4,43
39,14,-24,-26,31,-4,-58,-68,-82,-87,-4,43
34,9,-24,-21,29,-7,-58,-68,-78,-82,0,43
34,9,-24,-21,29,-7,-58,-63,-78,-78,4,43
34,9,-24,-21,29,-7,-53,-63,-68,-73,0,43
34,9,-24,-21,29,-7,-53,-63,-63,-68,0,43
34,9,-24,-21,29,-7,-53,-58,-63,-63,0,39
39,9,-29,-24,34,-9,-53,-53,-58,-58,0,39
39,4,-34,-21,36,-14,-53,-53,-58,-63,0,39
39,4,-34,-21,36,-14,-53,-48,-53,-63,0,34
34,4,-29,-19,31,-12,-53,-53,-53,-58,0,34
29,4,-24,-17,26,-9,-53,-58,-53,-58,0,34
34,4,-29,-19,31,-12,-53,-53,-53,-48,4,34
34,4,-29,-19,31,-12,-48,-53,-53,-43,9,34
29,4,-24,-17,26,-9,-48,-53,-58,-43,4,34
29,0,-29,-14,29,-14,-48,-53,-58,-43,4,29
29,0,-29,-14,29,-14,-48,-53,-53,-43,9,29
24,0,-24,-12,24,-12,-43,-53,-53,-39,9,29
24,-4,-29,-9,26,-17,-48,-58,-53,-43,9,29
24,-4,-29,-9,26,-17,-53,-63,-53,-48,4,29
24,-4,-29,-9,26,-17,-53,-63,-58,-48,4,24
24,-4,-29,-9,26,-17,-53,-63,-63,-53,4,24
24,-4,-29,-9,26,-17,-53,-63,-63,-53,4,24
24,-4,-29,-9,26,-17,-53,-63,-63,-53,4,24
24,-4,-29,-9,26,-17,-53,-63,-68,-58,4,29
19,-9,-29,-4,24,-19,-53,-63,-68,-63,4,29
19,-9,-29,-4,24,-19,-53,-63,-73,-63,4,29
19,-9,-29,-4,24,-19,-53,-68,-78,-63,4,29
24,-9,-34,-7,29,-21,-53,-68,-78,-63,4,29
24,-9,-34,-7,29,-21,-53,-68,-82,-68,4,29
24,-9,-34,-7,29,-21,-53,-68,-82,-68,0,29
24,-9,-34,-7,29,-21,-53,-68,-82,-73,-4,29
24,-14,-39,-4,31,-26,-53,-68,-87,-73,-4,29
24,-14,-39,-4,31,-26,-53,-68,-87,-73,-4,24
24,-9,-34,-7,29,-21,-53,-68,-87,-78,-9,19
24,-4,-29,-9,26,-17,-58,-73,-97,-78,-9,14
24,-4,-29,-9,26,-17,-58,-73,-97,-78,-9,14
24,-4,-29,-9,26,-17,-58,-73,-92,-87,-9,14
24,-4,-29,-9,26,-17,-53,-78,-92,-92,-9,14
24,-4,-29,-9,26,-17,-53,-78,-97,-92,-14,14
24,-4,-29,-9,26,-17,-58,-78,-97,-92,-14,19
24,-4,-29,-9,26,-17,-58,-78,-97,-92,-14,24
19,-4,-24,-7,21,-14,-58,-78,-97,-97,-14,24
14,-4,-19,-4,17,-12,-58,-78,-102,-102,-14,24
19,-9,-29,-4,24,-19,-58,-78,-102,-102,-14,24
19,-14,-34,-2,26,-24,-58,-78,-102,-102,-19,24
19,-14,-34,-2,26,-24,-53,-78,-102,-102,-19,24
19,-14,-34,-2,26,-24,-53,-78,-102,-102,-19,24
19,-19,-39,0,29,-29,-53,-78,-102,-102,-19,24
19,-19,-39,0,29,-29,-53,-82,-107,-107,-19,24
14,-19,-34,2,24,-26,-53,-82,-107,-107,-19,19
14,-19,-34,2,24,-26,-53,-78,-107,-112,-19,14
19,-24,-43,2,31,-34,-53,-78,-107,-112,-24,14
19,-24,-43,2,31,-34,-53,-78,-107,-102,-29,19
19,-19,-39,0,29,-29,-63,-78,-112,-112,-29,14
19,-19,-39,0,29,-29,-68,-82,-112,-117,-29,4
19,-19,-39,0,29,-29,-63,-82,-117,-117,-29,4
19,-24,-43,2,31,-34,-63,-82,-122,-117,-29,9
19,-24,-43,2,31,-34,-58,-82,-122,-117,-29,9
19,-19,-39,0,29,-29,-53,-82,-122,-117,-29,9
19,-19,-39,0,29,-29,-53,-78,-122,-117,-34,9
14,-19,-34,2,24,-26,-53,-73,-122,-117,-39,9
14,-19,-34,2,24,-26,-53,-82,-117,-117,-39,14
14,-14,-29,0,21,-21,-53,-87,-117,-117,-39,14
14,-14,-29,0,21,-21,-48,-87,-117,-117,-39,14
19,-14,-34,-2,26,-24,-48,-82,-117,-122,-39,14
19,-14,-34,-2,26,-24,-53,-82,-117,-126,-39,14
19,-19,-39,0,29,-29,-53,-87,-117,-126,-43,14
19,-19,-39,0,29,-29,-53,-87,-117,-126,-43,9
19,-19,-39,0,29,-29,-53,-87,-117,-126,-39,4
24,-19,-43,-2,34,-31,-53,-87,-117,-126,-39,4
24,-19,-43,-2,34,-31,-53,-87,-122,-126,-39,4
19,-14,-34,-2,26,-24,-58,-92,-112,-126,-43,4
19,-14,-34,-2,26,-24,-63,-92,-117,-126,-48,4
14,-14,-29,0,21,-21,-58,-87,-122,-131,-43,4
14,-9,-24,-2,19,-17,-58,-87,-131,-126,-53,9
19,-14,-34,-2,26,-24,-58,-87,-131,-131,-53,0
19,-19,-39,0,29,-29,-58,-87,-126,-131,-53,-4
19,-24,-43,2,31,-34,-53,-82,-122,-131,-48,-4
24,-24,-48,0,36,-36,-53,-82,-122,-126,-48,-4
19,-19,-39,0,29,-29,-58,-82,-122,-126,-48,4
14,-19,-34,2,24,-26,-58,-82,-122,-131,-48,9
14,-14,-29,0,21,-21,-58,-78,-122,-126,-43,9
14,-14,-29,0,21,-21,-58,-78,-122,-122,-43,9
14,-14,-29,0,21,-21,-53,-73,-112,-117,-43,9
19,-19,-39,0,29,-29,-48,-68,-107,-117,-48,9
19,-4,-24,-7,21,-14,-48,-68,-102,-117,-39,9
19,9,-9,-14,14,0,-48,-68,-97,-117,-29,9
24,14,-9,-19,17,2,-48,-68,-87,-107,-19,19
24,29,4,-26,9,17,-53,-68,-73,-97,-14,29
29,43,14,-36,7,29,-63,-68,-63,-87,-9,43
34,58,24,-46,4,41,-68,-68,-43,-78,-4,48
39,68,29,-53,4,48,-63,-58,-39,-68,9,48
43,78,34,-61,4,56,-63,-34,-24,-58,14,53
58,82,24,-70,17,53,-63,-24,-4,-48,14,58
78,92,14,-85,31,53,-73,-24,-9,-48,14,58
82,97,14,-90,34,56,-122,-48,-19,-48,14,58
82,97,14,-90,34,56,-161,-102,-43,-58,19,58
78,97,19,-87,29,58,-200,-141,-73,-73,19,68
73,102,29,-87,21,65,-209,-175,-87,-78,24,68
78,136,58,-107,9,97,-234,-200,-87,-82,24,73
78,156,78,-117,0,117,-239,-214,-107,-92,14,73
78,136,58,-107,9,97,-239,-214,-131,-102,4,68
78,122,43,-100,17,82,-224,-209,-136,-112,0,68
73,117,43,-95,14,80,-204,-200,-136,-112,0,73
68,112,43,-90,12,78,-185,-180,-131,-112,0,78
73,112,39,-92,17,75,-170,-165,-126,-107,4,78
78,102,24,-90,26,63,-151,-151,-126,-112,-4,68
63,78,14,-70,24,46,-141,-151,-151,-136,-29,53
48,48,0,-48,24,24,-126,-146,-161,-156,-39,39
24,19,-4,-21,14,7,-112,-146,-170,-170,-68,14
0,-9,-9,4,4,-9,-82,-126,-170,-180,-87,-4
-4,-29,-24,17,9,-26,-53,-102,-156,-170,-87,-9
-4,-43,-39,24,17,-41,-48,-87,-146,-156,-78,-14
-4,-43,-39,24,17,-41,-43,-78,-131,-141,-63,-9
0,-43,-43,21,21,-43,-39,-68,-122,-136,-53,-9
4,-39,-43,17,24,-41,-34,-68,-122,-141,-53,-4
9,-39,-48,14,29,-43,-34,-68,-122,-141,-53,-4
9,-39,-48,14,29,-43,-34,-58,-117,-141,-58,-9
9,-43,-53,17,31,-48,-34,-53,-117,-141,-58,-9
9,-43,-53,17,31,-48,-29,-53,-117,-141,-58,-9
9,-43,-53,17,31,-48,-29,-53,-117,-141,-58,-9
9,-43,-53,17,31,-48,-29,-58,-122,-141,-58,-9
9,-43,-53,17,31,-48,-29,-58,-122,-141,-63,-9
9,-43,-53,17,31,-48,-29,-58,-122,-141,-63,-9
9,-43,-53,17,31,-48,-24,-58,-122,-141,-63,-9
4,-43,-48,19,26,-46,-24,-58,-122,-141,-63,-9
0,-43,-43,21,21,-43,-19,-53,-122,-141,-68,-9
0,-43,-43,21,21,-43,-14,-48,-102,-131,-68,-9
-4,-34,-29,19,12,-31,0,-34,-73,-131,-68,-9
-19,-34,-14,26,-2,-24,39,0,-4,-136,-82,-29
-53,-43,9,48,-31,-17,102,82,53,-156,-146,-82
-58,-19,39,39,-48,9,151,161,136,-151,-185,-107
-24,63,87,-19,-56,75,131,200,248,-43,-82,-24
107,268,161,-187,-26,214,9,204,351,283,244,204
292,585,292,-439,0,439,-170,165,575,761,727,541
473,893,419,-683,26,656,-409,-34,370,985,1068,863
658,1205,546,-932,56,875,-678,-268,-102,1058,1395,1200
824,1542,717,-1183,53,1129,-980,-585,-673,1102,1747,1546
922,1888,966,-1405,-21,1427,-1322,-1098,-1381,995,1995,1869
785,1908,1122,-1346,-168,1515,-1464,-1576,-2000,741,2025,2005
580,1634,1054,-1107,-236,1344,-1337,-1751,-2474,185,1644,1864
292,995,702,-644,-204,849,-863,-1312,-2542,-405,883,1337
-43,39,82,2,-63,61,-141,-561,-1932,-1034,-190,473
-180,-585,-405,383,112,-495,336,68,-1410,-1224,-732,-209
-204,-692,-488,448,141,-590,556,424,-722,-634,-512,-370
-175,-639,-463,407,143,-551,566,448,-302,-287,-326,-356
-136,-463,-326,300,95,-395,439,346,-146,-126,-175,-229
-92,-317,-224,204,65,-270,307,239,-68,-43,-107,-156
-53,-209,-156,131,51,-183,214,190,9,-9,-53,-102
-48,-170,-122,109,36,-146,161,146,48,0,-43,-82
-48,-165,-117,107,34,-141,146,117,53,0,-43,-82
-48,-156,-107,102,29,-131,126,97,53,0,-53,-87
-43,-151,-107,97,31,-129,107,87,53,-24,-68,-92
-43,-151,-107,97,31,-129,107,78,58,-39,-78,-92
-43,-151,-107,97,31,-129,97,73,63,-43,-78,-97
-43,-151,-107,97,31,-129,97,68,63,-43,-78,-97
-43,-151,-107,97,31,-129,102,68,63,-48,-78,-102
-53,-151,-97,102,21,-124,92,73,53,-53,-87,-102
-58,-151,-92,104,17,-122,92,73,53,-58,-87,-102
-58,-146,-87,102,14,-117,97,73,63,-63,-82,-102
-58,-146,-87,102,14,-117,97,73,63,-63,-82,-102
-63,-146,-82,104,9,-114,97,73,68,-58,-92,-102
-58,-146,-87,102,14,-117,97,73,73,-53,-97,-112
-58,-151,-92,104,17,-122,97,68,73,-73,-107,-117
-58,-151,-92,104,17,-122,97,68,73,-73,-107,-117
-58,-146,-87,102,14,-117,97,82,78,-68,-107,-117
-63,-146,-82,104,9,-114,102,82,78,-73,-107,-122
-63,-151,-87,107,12,-119,112,82,87,-73,-112,-122
-63,-151,-87,107,12,-119,117,82,87,-73,-117,-122
-63,-151,-87,107,12,-119,117,87,92,-73,-122,-131
-68,-151,-82,109,7,-117,117,87,97,-73,-126,-131
-68,-151,-82,109,7,-117,117,87,102,-68,-131,-131
-68,-156,-87,112,9,-122,117,92,102,-73,-141,-136
-73,-156,-82,114,4,-119,122,92,107,-73,-141,-141
-78,-161,-82,119,2,-122,122,97,117,-73,-141,-141
-78,-161,-82,119,2,-122,126,97,126,-73,-151,-146
-78,-161,-82,119,2,-122,136,102,126,-73,-151,-161
-82,-161,-78,122,-2,-119,136,102,131,-73,-151,-165
-82,-161,-78,122,-2,-119,141,112,136,-73,-151,-165
-82,-161,-78,122,-2,-119,141,112,146,-73,-156,-170
-87,-170,-82,129,-2,-126,146,122,151,-73,-161,-180
-92,-175,-82,134,-4,-129,146,126,161,-73,-165,-190
-92,-180,-87,136,-2,-134,151,131,165,-68,-165,-190
-92,-180,-87,136,-2,-134,156,141,170,-68,-175,-190
-92,-185,-92,139,0,-139,165,151,175,-63,-175,-200
-102,-200,-97,151,-2,-148,170,161,180,-63,-180,-209
-107,-204,-97,156,-4,-151,180,170,190,-53,-180,-209
-107,-209,-102,158,-2,-156,180,180,200,-53,-185,-214
-107,-214,-107,161,0,-161,185,190,214,-43,-185,-219
-112,-224,-112,168,0,-168,195,195,229,-34,-185,-224
-117,-224,-107,170,-4,-165,204,209,244,-24,-190,-234
-131,-234,-102,183,-14,-168,209,219,253,-14,-200,-244
-131,-239,-107,185,-12,-173,219,234,283,9,-200,-253
-131,-253,-122,192,-4,-187,229,244,302,34,-190,-263
-141,-263,-122,202,-9,-192,244,263,331,63,-180,-273
-146,-268,-122,207,-12,-195,253,283,366,102,-180,-283
-151,-278,-126,214,-12,-202,263,302,400,141,-175,-292
-156,-287,-131,222,-12,-209,278,312,444,175,-161,-297
-156,-292,-136,224,-9,-214,292,331,488,219,-156,-302
-170,-302,-131,236,-19,-217,307,361,541,268,-141,-307
-175,-307,-131,241,-21,-219,326,380,590,326,-126,-312
-175,-307,-131,241,-21,-219,341,395,644,380,-102,-317
-180,-312,-131,246,-24,-222,346,409,692,439,-78,-322
-185,-312,-126,248,-29,-219,361,434,746,512,-53,-322
-185,-302,-117,244,-34,-209,366,448,810,595,-24,-322
-180,-302,-122,241,-29,-212,366,458,844,644,4,-317
-180,-292,-112,236,-34,-202,361,458,897,697,29,-312
-175,-278,-102,226,-36,-190,361,463,922,751,58,-297
-170,-263,-92,217,-39,-178,356,458,936,780,82,-283
-170,-239,-68,204,-51,-153,341,453,932,780,102,-273
-165,-219,-53,192,-56,-136,322,414,917,766,107,-253
-156,-200,-43,178,-56,-122,287,375,907,732,97,-229
-141,-180,-39,161,-51,-109,263,341,829,683,92,-209
-117,-161,-43,139,-36,-102,239,317,732,619,92,-185
-97,-136,-39,117,-29,-87,204,283,644,541,92,-161
-87,-112,-24,100,-31,-68,165,224,561,473,82,-136
-63,-92,-29,78,-17,-61,131,175,468,405,73,-117
-48,-78,-29,63,-9,-53,92,141,380,322,68,-87
-34,-58,-24,46,-4,-41,68,97,312,248,63,-58
-19,-29,-9,24,-4,-19,43,68,258,200,58,-29
-9,-14,-4,12,-2,-9,19,43,190,146,48,-9
-4,-9,-4,7,0,-7,0,19,122,87,34,-4
4,0,-4,-2,4,-2,-19,4,78,48,29,9
9,4,-4,-7,7,0,-29,-14,58,24,29,19
19,9,-9,-14,14,0,-39,-29,24,-4,29,29
29,14,-14,-21,21,0,-43,-48,-14,-29,24,34
39,24,-14,-31,26,4,-53,-48,-39,-43,19,39
43,24,-19,-34,31,2,-58,-53,-48,-58,19,43
43,24,-19,-34,31,2,-73,-58,-58,-78,9,53
43,29,-14,-36,29,7,-73,-58,-73,-87,9,48
43,34,-9,-39,26,12,-73,-63,-82,-97,4,48
43,24,-19,-34,31,2,-68,-63,-82,-97,0,48
48,24,-24,-36,36,0,-68,-58,-87,-97,0,48
48,24,-24,-36,36,0,-68,-58,-87,-102,0,48
48,24,-24,-36,36,0,-68,-58,-87,-107,-4,43
48,24,-24,-36,36,0,-68,-58,-87,-112,-9,43
43,19,-24,-31,34,-2,-68,-58,-87,-117,-14,43
43,19,-24,-31,34,-2,-68,-58,-87,-122,-14,43
43,19,-24,-31,34,-2,-63,-63,-82,-126,-19,43
43,19,-24,-31,34,-2,-58,-63,-82,-126,-19,43
39,19,-19,-29,29,0,-53,-63,-87,-126,-19,39
39,19,-19,-29,29,0,-53,-58,-92,-126,-19,39
39,14,-24,-26,31,-4,-53,-53,-97,-131,-19,39
39,14,-24,-26,31,-4,-53,-48,-92,-131,-24,34
39,14,-24,-26,31,-4,-53,-48,-92,-126,-29,34
39,14,-24,-26,31,-4,-53,-48,-92,-126,-29,34
43,14,-29,-29,36,-7,-53,-43,-92,-122,-29,34
43,14,-29,-29,36,-7,-48,-43,-87,-122,-24,34
39,14,-24,-26,31,-4,-48,-43,-87,-122,-24,34
39,9,-29,-24,34,-9,-48,-43,-87,-117,-24,29
39,9,-29,-24,34,-9,-48,-43,-82,-112,-19,29
34,14,-19,-24,26,-2,-43,-43,-78,-102,-14,29
34,14,-19,-24,26,-2,-43,-43,-73,-97,-9,29
34,14,-19,-24,26,-2,-43,-43,-73,-97,-14,29
34,14,-19,-24,26,-2,-43,-43,-73,-92,-14,24
34,14,-19,-24,26,-2,-43,-43,-68,-92,-14,24
34,14,-19,-24,26,-2,-43,-43,-63,-92,-14,24
34,14,-19,-24,26,-2,-43,-43,-63,-87,-14,24
34,14,-19,-24,26,-2,-43,-43,-68,-82,-14,24
24,4,-19,-14,21,-7,-43,-39,-68,-82,-19,19
19,0,-19,-9,19,-9,-43,-34,-68,-82,-24,19
19,0,-19,-9,19,-9,-43,-39,-73,-82,-24,19
19,0,-19,-9,19,-9,-43,-39,-73,-78,-24,19
14,0,-14,-7,14,-7,-43,-43,-73,-78,-24,14
14,0,-14,-7,14,-7,-43,-48,-73,-73,-24,9
14,0,-14,-7,14,-7,-43,-48,-73,-73,-24,9
14,-4,-19,-4,17,-12,-43,-48,-78,-73,-24,9
14,-4,-19,-4,17,-12,-43,-48,-78,-73,-19,9
14,-4,-19,-4,17,-12,-43,-48,-78,-78,-19,14
14,-4,-19,-4,17,-12,-48,-53,-87,-78,-19,14
14,-4,-19,-4,17,-12,-48,-53,-87,-78,-19,14
14,-4,-19,-4,17,-12,-48,-53,-82,-87,-19,14
14,-4,-19,-4,17,-12,-43,-58,-82,-92,-19,14
14,-4,-19,-4,17,-12,-43,-58,-87,-92,-24,14
14,-4,-19,-4,17,-12,-48,-58,-92,-92,-24,14
14,-4,-19,-4,17,-12,-48,-58,-97,-92,-24,14
14,-4,-19,-4,17,-12,-48,-58,-97,-92,-24,14
14,-4,-19,-4,17,-12,-48,-63,-102,-92,-24,9
19,-4,-24,-7,21,-14,-48,-68,-102,-92,-24,4
19,-4,-24,-7,21,-14,-53,-68,-102,-97,-29,4
19,-4,-24,-7,21,-14,-58,-68,-102,-102,-29,4
19,-4,-24,-7,21,-14,-53,-63,-97,-102,-29,4
19,-4,-24,-7,21,-14,-53,-63,-97,-102,-29,9
19,0,-19,-9,19,-9,-53,-58,-92,-92,-19,9
19,9,-9,-14,14,0,-58,-58,-87,-87,-9,9
24,19,-4,-21,14,7,-58,-58,-82,-87,-9,19
29,29,0,-29,14,14,-58,-58,-78,-87,-9,29
34,43,9,-39,12,26,-58,-58,-68,-82,-4,34
34,63,29,-48,2,46,-63,-53,-53,-73,0,43
39,82,43,-61,-2,63,-68,-53,-43,-63,9,53
43,97,53,-70,-4,75,-68,-48,-24,-48,24,58
48,107,58,-78,-4,82,-63,-43,-19,-43,34,58
53,117,63,-85,-4,90,-63,-24,-4,-39,34,63
63,117,53,-90,4,85,-73,-29,4,-34,34,68
78,122,43,-100,17,82,-92,-43,-9,-39,34,68
82,126,43,-104,19,85,-141,-68,-19,-39,29,68
82,126,43,-104,19,85,-180,-122,-43,-48,29,68
82,126,43,-104,19,85,-209,-151,-73,-63,29,78
82,131,48,-107,17,90,-209,-175,-87,-68,34,78
87,156,68,-122,9,112,-229,-190,-87,-73,34,82
87,165,78,-126,4,122,-229,-195,-107,-82,24,82
87,156,68,-122,9,112,-229,-195,-126,-92,14,78
87,151,63,-119,12,107,-214,-190,-126,-102,9,78
82,146,63,-114,9,104,-195,-185,-131,-102,9,78
78,141,63,-109,7,102,-175,-170,-131,-102,9,78
73,131,58,-102,7,95,-161,-156,-131,-107,4,78
68,112,43,-90,12,78,-141,-141,-136,-122,-14,68
53,87,34,-70,9,61,-131,-146,-161,-151,-39,48
39,58,19,-48,9,39,-117,-146,-170,-175,-48,29
19,29,9,-24,4,19,-102,-146,-175,-180,-68,4
0,0,0,0,0,0,-73,-126,-170,-180,-78,-14
-4,-9,-4,7,0,-7,-43,-97,-156,-170,-73,-9
-4,-14,-9,9,2,-12,-39,-78,-146,-156,-58,-4
-4,-14,-9,9,2,-12,-39,-73,-136,-146,-53,0
0,-14,-14,7,7,-14,-39,-68,-131,-146,-53,0
0,-9,-9,4,4,-9,-34,-68,-131,-151,-53,0
0,-9,-9,4,4,-9,-34,-68,-131,-151,-53,-4
0,-4,-4,2,2,-4,-34,-63,-126,-151,-58,-9
0,-4,-4,2,2,-4,-34,-63,-126,-151,-58,-9
0,-4,-4,2,2,-4,-29,-63,-126,-151,-58,-4
0,-4,-4,2,2,-4,-29,-63,-126,-151,-58,0
0,-4,-4,2,2,-4,-29,-63,-126,-151,-53,0
0,-4,-4,2,2,-4,-29,-58,-122,-151,-53,0
0,-4,-4,2,2,-4,-29,-58,-122,-151,-53,0
0,-4,-4,2,2,-4,-24,-58,-122,-151,-53,0
0,-4,-4,2,2,-4,-24,-58,-122,-151,-53,-4
0,-4,-4,2,2,-4,-19,-53,-122,-151,-58,-9
-4,-4,0,4,-2,-2,-14,-43,-102,-141,-73,-14
-14,4,19,4,-17,12,0,-24,-73,-141,-87,-19
-29,4,34,12,-31,19,39,9,0,-156,-102,-39
-63,-4,58,34,-61,26,102,92,63,-185,-165,-92
-53,29,82,12,-68,56,141,165,151,-146,-180,-97
-4,122,126,-58,-65,124,112,200,268,-4,-53,4
131,331,200,-231,-34,265,-9,204,356,302,273,239
322,653,331,-488,-4,492,-190,165,566,761,756,580
502,976,473,-739,14,724,-434,-39,361,990,1102,902
688,1302,614,-995,36,958,-707,-278,-112,1068,1434,1239
814,1620,805,-1217,4,1212,-1010,-644,-722,1063,1747,1566
873,1947,1073,-1410,-100,1510,-1351,-1205,-1468,907,1956,1869
717,1912,1195,-1315,-239,1554,-1434,-1600,-2025,634,1927,1952
492,1586,1093,-1039,-300,1339,-1249,-1693,-2435,58,1488,1756
229,956,727,-592,-248,841,-785,-1249,-2474,-497,746,1220
-82,9,92,36,-87,51,-73,-492,-1834,-1093,-307,346
-200,-570,-370,385,85,-470,366,92,-1332,-1239,-780,-268
-204,-634,-429,419,112,-531,546,405,-663,-605,-492,-361
-170,-570,-400,370,114,-485,551,429,-263,-268,-312,-341
-126,-385,-258,256,65,-322,419,326,-126,-117,-165,-209
-82,-253,-170,168,43,-212,287,219,-48,-43,-107,-141
-43,-161,-117,102,36,-139,195,170,29,-19,-63,-92
-43,-126,-82,85,19,-104,141,131,58,-9,-53,-73
-48,-126,-78,87,14,-102,126,107,53,-9,-53,-73
-48,-112,-63,80,7,-87,112,87,53,-9,-53,-78
-43,-102,-58,73,7,-80,97,78,53,-34,-58,-82
-43,-102,-58,73,7,-80,97,68,53,-43,-68,-82
-43,-102,-58,73,7,-80,87,63,53,-43,-68,-87
-39,-102,-63,70,12,-82,87,58,53,-43,-68,-82
-34,-102,-68,68,17,-85,92,58,53,-48,-68,-82
-39,-102,-63,70,12,-82,82,58,43,-48,-78,-82
-39,-102,-63,70,12,-82,82,53,43,-48,-78,-82
-39,-97,-58,68,9,-78,87,53,53,-53,-73,-82
-39,-97,-58,68,9,-78,87,53,53,-53,-73,-82
-43,-97,-53,70,4,-75,87,58,53,-53,-82,-82
-39,-97,-58,68,9,-78,87,63,53,-53,-87,-92
-39,-102,-63,70,12,-82,87,58,53,-73,-97,-97
-39,-102,-63,70,12,-82,87,58,53,-73,-97,-97
-43,-97,-53,70,4,-75,87,73,58,-68,-97,-97
-53,-97,-43,75,-4,-70,92,73,58,-73,-97,-102
-53,-102,-48,78,-2,-75,97,73,68,-73,-102,-102
-53,-102,-48,78,-2,-75,97,73,68,-73,-107,-102
-53,-102,-48,78,-2,-75,97,73,73,-73,-117,-117
-58,-102,-43,80,-7,-73,97,68,78,-73,-126,-122
-58,-102,-43,80,-7,-73,102,73,78,-73,-126,-126
-58,-107,-48,82,-4,-78,107,82,73,-82,-131,-136
-63,-112,-48,87,-7,-80,112,87,78,-82,-131,-141
-68,-122,-53,95,-7,-87,112,97,87,-82,-131,-141
-68,-122,-53,95,-7,-87,112,97,102,-82,-141,-141
-68,-122,-53,95,-7,-87,117,102,107,-82,-141,-151
-73,-126,-53,100,-9,-90,117,97,112,-82,-146,-156
-73,-131,-58,102,-7,-95,122,102,117,-82,-151,-156
-73,-126,-53,100,-9,-90,126,102,126,-82,-161,-161
-78,-131,-53,104,-12,-92,136,112,131,-82,-170,-170
-82,-136,-53,109,-14,-95,136,117,141,-82,-175,-185
-82,-141,-58,112,-12,-100,141,122,146,-78,-175,-190
-82,-141,-58,112,-12,-100,141,131,156,-78,-185,-190
-82,-146,-63,114,-9,-104,146,141,165,-73,-185,-200
-92,-161,-68,126,-12,-114,151,151,170,-73,-190,-209
-97,-165,-68,131,-14,-117,161,161,180,-63,-190,-209
-97,-165,-68,131,-14,-117,165,170,190,-63,-195,-214
-97,-165,-68,131,-14,-117,175,180,204,-53,-195,-219
-102,-175,-73,139,-14,-124,185,185,224,-39,-190,-224
-107,-175,-68,141,-19,-122,195,200,244,-24,-190,-234
-122,-190,-68,156,-26,-129,200,209,253,-14,-200,-244
-122,-200,-78,161,-21,-139,209,224,283,9,-200,-253
-122,-209,-87,165,-17,-148,219,234,302,24,-195,-263
-131,-214,-82,173,-24,-148,234,253,331,43,-190,-273
-131,-214,-82,173,-24,-148,248,278,375,87,-185,-283
-131,-219,-87,175,-21,-153,263,302,419,131,-175,-292
-141,-229,-87,185,-26,-158,278,312,458,165,-165,-297
-151,-239,-87,195,-31,-163,297,341,522,229,-156,-302
-156,-244,-87,200,-34,-165,307,361,566,283,-131,-312
-161,-253,-92,207,-34,-173,317,380,614,341,-112,-322
-165,-248,-82,207,-41,-165,326,400,668,405,-92,-322
-175,-244,-68,209,-53,-156,341,419,722,468,-78,-322
-175,-244,-68,209,-53,-156,346,424,766,531,-53,-322
-175,-244,-68,209,-53,-156,351,429,810,595,-29,-322
-185,-244,-58,214,-63,-151,351,429,829,629,-14,-317
-195,-229,-34,212,-80,-131,341,419,844,653,0,-307
-204,-219,-14,212,-95,-117,336,409,863,683,19,-297
-209,-204,4,207,-107,-100,331,390,883,702,43,-292
-214,-180,34,197,-124,-73,302,331,824,668,43,-283
-219,-156,63,187,-141,-46,268,287,775,634,34,-268
-234,-151,82,192,-158,-34,244,234,702,556,9,-263
-244,-141,102,192,-173,-19,209,170,605,468,-14,-263
-224,-97,126,161,-175,14,161,146,546,419,-14,-234
-209,-58,151,134,-180,46,122,92,473,361,-9,-204
-175,-14,161,95,-168,73,82,82,419,317,14,-146
-141,34,175,53,-158,104,73,78,380,283,43,-97
-92,78,170,7,-131,124,48,82,356,248,53,-58
-48,107,156,-29,-102,131,43,97,312,209,53,-24
-24,107,131,-41,-78,119,9,68,234,151,43,-4
0,112,112,-56,-56,112,-9,43,175,92,39,19
9,122,112,-65,-51,117,-39,-24,117,58,39,29
19,131,112,-75,-46,122,-68,-82,63,24,39,39
29,131,102,-80,-36,117,-82,-78,34,4,43,53
39,122,82,-80,-21,102,-92,-73,0,-24,34,58
48,112,63,-80,-7,87,-92,-73,-29,-53,14,63
58,97,39,-78,9,68,-87,-68,-43,-78,9,68
58,87,29,-73,14,58,-97,-87,-73,-97,-9,53
58,78,19,-68,19,48,-92,-87,-92,-112,-19,43
53,68,14,-61,19,41,-78,-73,-97,-122,-19,43
53,63,9,-58,21,36,-87,-68,-107,-126,-9,43
53,63,9,-58,21,36,-87,-68,-102,-122,-14,43
58,63,4,-61,26,34,-87,-68,-102,-126,-24,39
58,63,4,-61,26,34,-82,-68,-102,-131,-24,43
58,58,0,-58,29,29,-82,-68,-102,-131,-24,43
58,58,0,-58,29,29,-82,-63,-107,-136,-34,34
58,53,-4,-56,31,24,-82,-63,-117,-141,-39,29
58,48,-9,-53,34,19,-73,-63,-117,-146,-43,29
58,43,-14,-51,36,14,-68,-63,-117,-151,-48,29
58,43,-14,-51,36,14,-68,-63,-117,-151,-43,29
58,43,-14,-51,36,14,-68,-58,-112,-151,-43,29
58,39,-19,-48,39,9,-68,-58,-117,-151,-43,24
58,34,-24,-46,41,4,-63,-58,-122,-151,-43,19
58,34,-24,-46,41,4,-68,-58,-122,-151,-43,19
58,34,-24,-46,41,4,-68,-53,-122,-151,-48,19
63,34,-29,-48,46,2,-78,-63,-131,-136,-39,34
63,43,-19,-53,41,12,-78,-63,-131,-131,-29,48
73,58,-14,-65,43,21,-78,-68,-63,-87,14,63
63,63,0,-63,31,31,-53,-24,-4,-58,9,43
4,19,14,-12,-4,17,43,58,53,-92,-87,-48
-14,34,48,-9,-31,41,73,102,141,-24,-43,-34
53,170,117,-112,-31,143,34,165,326,312,268,156
175,419,244,-297,-34,331,-63,185,634,800,736,453
346,707,361,-527,-7,534,-214,136,795,1254,1171,775
522,1000,478,-761,21,739,-395,53,688,1556,1590,1112
810,1454,644,-1132,82,1049,-722,-97,248,1698,1981,1498
1029,1917,888,-1473,70,1403,-1088,-444,-326,1688,2269,1859
990,2181,1190,-1586,-100,1686,-1459,-1220,-1332,1171,2230,2078
883,2152,1268,-1517,-192,1710,-1561,-1693,-2191,351,1781,2020
468,1620,1151,-1044,-341,1385,-1171,-1527,-2757,-751,858,1551
4,771,766,-387,-380,768,-531,-1049,-2644,-1893,-375,746
-136,-156,-19,146,-58,-87,107,-175,-1873,-1805,-902,-48
-165,-566,-400,366,117,-483,488,424,-936,-936,-668,-322
-122,-551,-429,336,153,-490,522,488,-419,-478,-434,-346
-68,-414,-346,241,139,-380,419,424,-165,-204,-234,-258
-24,-253,-229,139,102,-241,263,278,-82,-78,-126,-156
14,-131,-146,58,80,-139,146,190,0,0,-34,-73
19,-87,-107,34,63,-97,87,136,48,14,-19,-53
19,-78,-97,29,58,-87,68,97,63,19,-14,-53
19,-63,-82,21,51,-73,48,78,53,19,-19,-53
24,-53,-78,14,51,-65,29,68,43,-4,-29,-53
24,-53,-78,14,51,-65,39,53,43,-19,-43,-53
24,-53,-78,14,51,-65,39,43,43,-24,-48,-58
24,-53,-78,14,51,-65,34,39,39,-29,-53,-58
24,-53,-78,14,51,-65,34,39,34,-39,-58,-63
14,-53,-68,19,41,-61,24,34,24,-48,-73,-63
9,-53,-63,21,36,-58,24,24,24,-58,-78,-63
9,-53,-63,21,36,-58,29,24,34,-63,-73,-68
9,-58,-68,24,39,-63,29,24,34,-63,-73,-73
0,-63,-63,31,31,-63,29,24,34,-63,-82,-73
0,-68,-68,34,34,-68,29,24,34,-63,-87,-82
-4,-78,-73,41,34,-75,29,14,29,-82,-102,-87
-9,-82,-73,46,31,-78,29,9,24,-82,-107,-87
-9,-78,-68,43,29,-73,29,24,29,-78,-107,-87
-14,-78,-63,46,24,-70,34,24,29,-82,-107,-92
-14,-87,-73,51,29,-80,39,24,39,-82,-112,-102
-14,-92,-78,53,31,-85,39,24,39,-82,-117,-112
-14,-92,-78,53,31,-85,43,29,39,-82,-122,-122
-19,-92,-73,56,26,-82,48,29,39,-82,-126,-122
-19,-92,-73,56,26,-82,53,34,43,-82,-131,-122
-19,-97,-78,58,29,-87,58,43,43,-92,-141,-126
-24,-97,-73,61,24,-85,63,43,48,-92,-141,-131
-29,-102,-73,65,21,-87,63,48,58,-92,-141,-131
-29,-112,-82,70,26,-97,63,48,68,-92,-151,-136
-29,-122,-92,75,31,-107,68,53,68,-92,-151,-151
-39,-126,-87,82,24,-107,68,53,78,-87,-151,-156
-43,-131,-87,87,21,-109,73,63,87,-82,-151,-156
-48,-131,-82,90,17,-107,82,63,97,-78,-156,-161
-58,-141,-82,100,12,-112,97,73,102,-73,-161,-170
-63,-146,-82,104,9,-114,97,78,117,-68,-165,-185
-63,-151,-87,107,12,-119,102,82,126,-58,-165,-190
-63,-146,-82,104,9,-114,102,92,136,-58,-180,-190
-63,-146,-82,104,9,-114,107,102,146,-53,-185,-200
-73,-161,-87,117,7,-124,112,112,165,-53,-190,-209
-78,-165,-87,122,4,-126,122,122,190,-43,-190,-209
-82,-170,-87,126,2,-129,131,141,204,-34,-195,-219
-87,-175,-87,131,0,-131,146,161,224,-14,-195,-229
-92,-190,-97,141,2,-143,156,165,248,4,-190,-239
-97,-195,-97,146,0,-146,165,180,273,24,-190,-253
-112,-204,-92,158,-9,-148,175,190,292,34,-200,-263
-112,-209,-97,161,-7,-153,190,204,331,58,-200,-273
-112,-219,-107,165,-2,-163,200,219,366,87,-195,-278
-122,-224,-102,173,-9,-163,214,244,409,122,-190,-283
-126,-224,-97,175,-14,-161,229,263,448,165,-190,-292
-131,-229,-97,180,-17,-163,244,283,488,209,-185,-302
-136,-239,-102,187,-17,-170,258,292,536,253,-161,-307
-136,-244,-107,190,-14,-175,273,312,585,307,-146,-312
-151,-244,-92,197,-29,-168,273,336,634,351,-131,-312
-156,-239,-82,197,-36,-161,278,351,678,405,-117,-312
-151,-234,-82,192,-34,-158,287,366,722,458,-87,-307
-151,-234,-82,192,-34,-158,287,380,761,517,-58,-302
-151,-229,-78,190,-36,-153,292,390,790,561,-29,-287
-146,-214,-68,180,-39,-141,287,390,829,614,4,-273
-136,-204,-68,170,-34,-136,273,380,819,634,34,-253
-131,-185,-53,158,-39,-119,253,361,829,658,58,-234
-112,-165,-53,139,-29,-109,229,336,790,658,82,-209
-92,-146,-53,119,-19,-100,200,302,741,634,102,-185
-82,-122,-39,102,-21,-80,180,287,678,590,117,-165
-68,-102,-34,85,-17,-68,156,239,605,531,117,-136
-58,-82,-24,70,-17,-53,122,185,566,473,107,-107
-43,-63,-19,53,-12,-41,97,136,458,400,102,-82
-24,-43,-19,34,-2,-31,73,117,370,346,87,-68
-9,-19,-9,14,0,-14,39,87,292,278,73,-53
-9,0,9,4,-9,4,14,53,229,219,63,-29
4,14,9,-9,-2,12,-4,29,156,161,53,-9
9,19,9,-14,0,14,-29,9,97,102,48,4
14,29,14,-21,0,21,-39,-19,58,53,43,19
24,53,29,-39,-2,41,-48,-34,43,29,34,29
29,63,34,-46,-2,48,-58,-43,14,0,19,29
34,63,29,-48,2,46,-68,-58,-29,-39,4,29
43,68,24,-56,9,46,-78,-63,-48,-58,0,39
39,68,29,-53,4,48,-78,-68,-48,-63,0,34
39,68,29,-53,4,48,-78,-68,-63,-73,0,29
39,63,24,-51,7,43,-78,-82,-82,-87,-4,34
39,63,24,-51,7,43,-82,-78,-87,-92,-9,39
43,63,19,-53,12,41,-78,-78,-92,-97,-4,39
43,63,19,-53,12,41,-82,-78,-97,-107,-9,43
39,63,24,-51,7,43,-82,-73,-97,-102,-4,43
34,63,29,-48,2,46,-82,-73,-92,-97,-4,48
34,53,19,-43,7,36,-73,-73,-87,-97,-9,48
39,53,14,-46,12,34,-68,-68,-87,-97,-9,48
39,53,14,-46,12,34,-68,-68,-87,-92,-4,48
39,53,14,-46,12,34,-68,-68,-87,-87,-4,43
39,53,14,-46,12,34,-68,-68,-82,-87,-4,43
34,48,14,-41,9,31,-68,-68,-78,-87,-4,43
34,43,9,-39,12,26,-68,-63,-73,-78,0,43
34,39,4,-36,14,21,-63,-63,-63,-68,0,43
39,39,0,-39,19,19,-58,-58,-58,-68,0,43
39,39,0,-39,19,19,-53,-53,-58,-68,0,39
39,43,4,-41,17,24,-53,-53,-53,-58,4,39
39,43,4,-41,17,24,-53,-53,-48,-53,9,39
39,43,4,-41,17,24,-58,-48,-43,-53,9,34
39,43,4,-41,17,24,-63,-48,-43,-48,9,34
34,39,4,-36,14,21,-63,-53,-43,-48,9,34
34,34,0,-34,17,17,-63,-53,-43,-43,9,34
34,34,0,-34,17,17,-58,-53,-43,-43,14,34
29,34,4,-31,12,19,-58,-53,-48,-43,14,34
29,34,4,-31,12,19,-58,-53,-48,-43,14,29
29,39,9,-34,9,24,-58,-53,-43,-43,19,29
24,39,14,-31,4,26,-53,-53,-48,-39,19,29
24,34,9,-29,7,21,-53,-53,-53,-39,19,29
24,34,9,-29,7,21,-53,-53,-53,-43,14,29
24,34,9,-29,7,21,-53,-53,-53,-43,14,24
24,34,9,-29,7,21,-53,-53,-53,-43,14,24
24,34,9,-29,7,21,-53,-53,-53,-43,14,24
24,34,9,-29,7,21,-53,-58,-58,-48,14,24
24,34,9,-29,7,21,-53,-63,-68,-53,14,24
24,34,9,-29,7,21,-58,-63,-73,-53,4,19
29,39,9,-34,9,24,-63,-63,-78,-53,-4,19
29,39,9,-34,9,24,-63,-68,-82,-63,-4,19
29,39,9,-34,9,24,-63,-68,-82,-68,-4,19
24,39,14,-31,4,26,-63,-68,-82,-68,-4,24
24,39,14,-31,4,26,-63,-68,-82,-63,-4,29
24,39,14,-31,4,26,-63,-68,-82,-68,-4,29
24,34,9,-29,7,21,-63,-68,-87,-73,-4,29
24,34,9,-29,7,21,-63,-63,-82,-73,-4,24
24,34,9,-29,7,21,-63,-58,-78,-78,-9,24
24,34,9,-29,7,21,-68,-63,-87,-78,-9,24
24,34,9,-29,7,21,-68,-63,-87,-78,-9,24
24,34,9,-29,7,21,-68,-63,-82,-87,-9,24
24,34,9,-29,7,21,-63,-68,-82,-92,-9,24
24,34,9,-29,7,21,-58,-68,-87,-87,-14,24
24,34,9,-29,7,21,-58,-68,-92,-82,-14,24
24,34,9,-29,7,21,-58,-68,-92,-82,-14,24
24,34,9,-29,7,21,-58,-68,-87,-82,-14,24
24,34,9,-29,7,21,-58,-68,-92,-87,-14,24
29,34,4,-31,12,19,-58,-68,-92,-92,-14,24
29,34,4,-31,12,19,-58,-68,-97,-92,-19,24
29,34,4,-31,12,19,-58,-68,-102,-92,-19,24
29,39,9,-34,9,24,-63,-68,-102,-92,-19,24
29,39,9,-34,9,24,-63,-68,-102,-92,-19,24
29,39,9,-34,9,24,-58,-73,-102,-97,-19,19
24,39,14,-31,4,26,-53,-73,-97,-97,-19,14
24,39,14,-31,4,26,-53,-68,-97,-102,-19,14
29,39,9,-34,9,24,-53,-68,-97,-102,-19,14
29,39,9,-34,9,24,-53,-63,-97,-87,-24,19
29,39,9,-34,9,24,-58,-58,-102,-92,-29,19
29,39,9,-34,9,24,-58,-63,-107,-97,-29,14
29,43,14,-36,7,29,-53,-63,-107,-97,-29,14
29,39,9,-34,9,24,-53,-63,-102,-102,-29,19
29,34,4,-31,12,19,-53,-63,-102,-107,-29,19
29,34,4,-31,12,19,-48,-63,-102,-107,-29,19
34,29,-4,-31,19,12,-48,-63,-102,-107,-29,19
29,24,-4,-26,17,9,-53,-58,-107,-107,-29,14
24,19,-4,-21,14,7,-53,-63,-107,-107,-29,14
24,24,0,-24,12,12,-53,-68,-107,-107,-29,14
24,24,0,-24,12,12,-53,-68,-107,-107,-29,14
29,24,-4,-26,17,9,-53,-63,-107,-107,-29,14
29,24,-4,-26,17,9,-53,-63,-107,-107,-29,14
24,24,0,-24,12,12,-53,-68,-107,-107,-34,14
19,29,9,-24,4,19,-53,-68,-107,-107,-34,14
19,29,9,-24,4,19,-53,-68,-107,-107,-29,14
24,29,4,-26,9,17,-53,-68,-107,-107,-29,14
24,29,4,-26,9,17,-53,-68,-107,-107,-29,14
19,34,14,-26,2,24,-53,-73,-102,-107,-34,14
19,29,9,-24,4,19,-53,-78,-107,-102,-39,14
14,24,9,-19,2,17,-48,-78,-102,-112,-39,9
14,29,14,-21,0,21,-48,-78,-112,-117,-53,14
14,29,14,-21,0,21,-48,-78,-112,-122,-53,9
9,24,14,-17,-2,19,-53,-78,-112,-122,-53,4
9,19,9,-14,0,14,-53,-73,-112,-122,-48,4
14,19,4,-17,4,12,-53,-73,-112,-117,-48,4
14,19,4,-17,4,12,-53,-73,-112,-117,-48,9
14,19,4,-17,4,12,-53,-73,-112,-122,-48,9
19,19,0,-19,9,9,-48,-68,-107,-126,-43,9
14,19,4,-17,4,12,-48,-73,-112,-122,-43,9
9,19,9,-14,0,14,-48,-78,-117,-117,-48,9
9,19,9,-14,0,14,-48,-78,-117,-117,-48,4
9,19,9,-14,0,14,-48,-78,-117,-117,-48,0
9,19,9,-14,0,14,-48,-73,-112,-117,-48,0
9,19,9,-14,0,14,-48,-68,-107,-117,-48,0
9,19,9,-14,0,14,-48,-68,-107,-117,-48,0
9,19,9,-14,0,14,-48,-68,-107,-117,-48,0
9,19,9,-14,0,14,-48,-68,-107,-117,-48,0
9,19,9,-14,0,14,-48,-68,-107,-117,-48,0
9,19,9,-14,0,14,-48,-68,-107,-117,-48,0
9,19,9,-14,0,14,-48,-68,-107,-117,-48,0
9,19,9,-14,0,14,-48,-68,-107,-117,-48,0
9,19,9,-14,0,14,-48,-68,-107,-117,-48,0
9,19,9,-14,0,14,-48,-68,-107,-122,-48,0
9,19,9,-14,0,14,-48,-68,-107,-126,-48,0
9,19,9,-14,0,14,-48,-68,-112,-126,-48,0
9,19,9,-14,0,14,-48,-68,-117,-126,-48,0
9,19,9,-14,0,14,-48,-68,-117,-126,-48,0
9,19,9,-14,0,14,-48,-68,-117,-126,-48,0
9,14,4,-12,2,9,-48,-73,-117,-126,-48,0
9,9,0,-9,4,4,-48,-78,-117,-126,-48,0
9,9,0,-9,4,4,-48,-78,-117,-126,-48,0
9,9,0,-9,4,4,-48,-78,-117,-126,-48,0
9,9,0,-9,4,4,-48,-73,-117,-126,-48,0
9,9,0,-9,4,4,-48,-68,-117,-126,-48,0
9,9,0,-9,4,4,-48,-68,-117,-126,-48,0
9,9,0,-9,4,4,-48,-68,-117,-126,-48,0
9,9,0,-9,4,4,-48,-68,-117,-126,-48,0
9,9,0,-9,4,4,-48,-68,-117,-126,-48,0
9,9,0,-9,4,4,-48,-68,-112,-122,-43,0
9,9,0,-9,4,4,-48,-68,-107,-117,-39,0
14,19,4,-17,4,12,-48,-63,-102,-117,-39,0
19,29,9,-24,4,19,-48,-58,-87,-107,-39,4
29,43,14,-36,7,29,-53,-58,-78,-102,-39,9
29,63,34,-46,-2,48,-58,-58,-63,-97,-29,24
34,82,48,-58,-7,65,-58,-58,-43,-82,-14,29
39,97,58,-68,-9,78,-53,-53,-39,-73,0,34
39,107,68,-73,-14,87,-48,-34,-19,-63,4,43
43,112,68,-78,-12,90,-48,-24,0,-48,4,48
58,122,63,-90,-2,92,-63,-24,-9,-48,4,48
63,126,63,-95,0,95,-112,-48,-19,-48,4,48
63,126,63,-95,0,95,-151,-102,-43,-58,4,48
63,126,63,-95,0,95,-190,-141,-68,-73,0,58
63,131,68,-97,-2,100,-200,-175,-78,-78,4,58
68,156,87,-112,-9,122,-219,-195,-78,-78,4,63
68,165,97,-117,-14,131,-224,-204,-97,-87,0,63
68,156,87,-112,-9,122,-229,-204,-117,-102,-4,58
68,151,82,-109,-7,117,-214,-200,-117,-112,-9,58
63,146,82,-104,-9,114,-195,-190,-117,-112,-9,58
58,141,82,-100,-12,112,-175,-170,-112,-107,-4,58
58,131,73,-95,-7,102,-161,-156,-112,-102,0,58
63,122,58,-92,2,90,-141,-141,-117,-107,-14,53
53,107,53,-80,0,80,-131,-141,-146,-131,-39,43
39,68,29,-53,4,48,-122,-141,-161,-156,-53,29
19,29,9,-24,4,19,-112,-146,-170,-170,-78,4
-4,0,4,2,-4,2,-82,-126,-170,-180,-87,-19
-14,-9,4,12,-9,-2,-53,-102,-156,-170,-87,-24
-14,-19,-4,17,-4,-12,-39,-73,-141,-156,-78,-24
-14,-24,-9,19,-2,-17,-29,-58,-126,-146,-73,-19
-9,-24,-14,17,2,-19,-29,-58,-122,-141,-68,-19
-9,-19,-9,14,0,-14,-24,-58,-122,-141,-63,-14
-9,-19,-9,14,0,-14,-24,-58,-122,-141,-63,-14
-9,-19,-9,14,0,-14,-24,-53,-122,-141,-68,-19
-9,-24,-14,17,2,-19,-24,-53,-122,-141,-68,-19
-9,-24,-14,17,2,-19,-19,-53,-117,-141,-68,-19
-9,-24,-14,17,2,-19,-19,-58,-117,-141,-73,-19
-9,-24,-14,17,2,-19,-19,-63,-117,-141,-73,-19
-9,-24,-14,17,2,-19,-19,-58,-112,-141,-73,-19
-9,-24,-14,17,2,-19,-19,-58,-112,-141,-73,-19
-9,-24,-14,17,2,-19,-14,-58,-112,-141,-68,-19
-9,-24,-14,17,2,-19,-14,-58,-112,-141,-63,-19
-9,-24,-14,17,2,-19,-9,-53,-117,-141,-68,-19
-9,-24,-14,17,2,-19,-9,-53,-107,-131,-68,-19
-14,-14,0,14,-7,-7,-4,-53,-87,-122,-58,-19
-29,-14,14,21,-21,0,29,-29,-24,-117,-63,-39
-68,-29,39,48,-53,4,92,53,34,-170,-161,-102
-87,-34,53,61,-70,9,151,136,87,-204,-239,-151
-87,0,87,43,-87,43,175,200,175,-161,-214,-131
14,161,146,-87,-65,153,102,234,322,107,39,48
195,458,263,-326,-34,361,-63,239,614,619,531,370
375,756,380,-566,-2,568,-268,107,536,893,888,678
575,1058,483,-817,46,771,-502,-78,161,1024,1229,1029
775,1444,668,-1110,53,1056,-839,-380,-375,1137,1600,1390
932,1903,971,-1417,-19,1437,-1259,-912,-1068,1107,1971,1781
849,2054,1205,-1451,-178,1629,-1493,-1488,-1815,888,2083,1991
697,1917,1220,-1307,-261,1568,-1512,-1883,-2449,424,1888,2010
419,1376,956,-897,-268,1166,-1146,-1610,-2654,-87,1342,1664
9,366,356,-187,-173,361,-375,-863,-2176,-946,34,712
-161,-434,-273,297,56,-353,204,-141,-1664,-1366,-756,-97
-200,-683,-483,441,141,-583,536,370,-893,-790,-580,-336
-195,-683,-488,439,146,-585,614,478,-419,-395,-414,-400
-156,-497,-341,326,92,-419,497,385,-219,-195,-244,-287
-112,-336,-224,224,56,-280,375,278,-107,-82,-151,-204
-68,-219,-151,143,41,-185,263,219,-4,-24,-82,-136
-58,-170,-112,114,26,-141,185,170,58,-9,-73,-112
-58,-161,-102,109,21,-131,165,131,63,-9,-68,-112
-58,-141,-82,100,12,-112,146,107,63,-9,-68,-112
-53,-131,-78,92,12,-104,126,97,58,-34,-78,-107
-53,-131,-78,92,12,-104,126,87,58,-43,-87,-102
-53,-131,-78,92,12,-104,117,82,63,-43,-87,-107
-53,-131,-78,92,12,-104,112,78,63,-43,-87,-107
-53,-131,-78,92,12,-104,112,78,63,-48,-87,-112
-58,-131,-73,95,7,-102,102,78,53,-53,-97,-112
-58,-131,-73,95,7,-102,102,73,53,-58,-97,-112
-58,-126,-68,92,4,-97,107,73,63,-63,-92,-112
-58,-126,-68,92,4,-97,107,73,63,-63,-92,-112
-68,-126,-58,97,-4,-92,107,73,63,-63,-102,-112
-97,-156,-58,126,-19,-107,97,63,63,-63,-117,-131
-126,-190,-63,158,-31,-126,87,48,63,-82,-136,-146
-68,-136,-68,102,0,-102,107,58,78,-73,-126,-126
-9,-78,-68,43,29,-73,126,82,97,-53,-117,-107
-34,-92,-58,63,12,-75,122,82,87,-63,-117,-122
-53,-112,-58,82,2,-85,117,82,87,-73,-122,-131
-58,-117,-58,87,0,-87,117,78,82,-73,-126,-131
-63,-122,-58,92,-2,-90,117,78,82,-73,-131,-141
-68,-122,-53,95,-7,-87,117,78,87,-73,-136,-141
-68,-122,-53,95,-7,-87,122,82,92,-73,-136,-141
-68,-126,-58,97,-4,-92,126,92,92,-82,-141,-146
-73,-126,-53,100,-9,-90,131,92,97,-82,-141,-151
-78,-131,-53,104,-12,-92,131,97,107,-82,-141,-146
-78,-131,-53,104,-12,-92,131,97,117,-82,-151,-146
-78,-131,-53,104,-12,-92,136,102,117,-82,-156,-161
-82,-136,-53,109,-14,-95,136,102,122,-82,-165,-165
-87,-141,-53,114,-17,-97,141,112,122,-82,-170,-165
-92,-141,-48,117,-21,-95,146,112,126,-82,-175,-170
-97,-151,-53,124,-21,-102,156,122,131,-82,-180,-180
-102,-156,-53,129,-24,-104,156,126,141,-82,-185,-190
-102,-161,-58,131,-21,-109,161,126,146,-78,-185,-195
-102,-161,-58,131,-21,-109,165,131,151,-78,-195,-200
-97,-161,-63,129,-17,-112,170,141,156,-73,-195,-209
-102,-170,-68,136,-17,-119,170,146,161,-73,-200,-219
-107,-175,-68,141,-19,-122,175,151,170,-63,-200,-214
-107,-180,-73,143,-17,-126,175,161,180,-63,-204,-219
-107,-185,-78,146,-14,-131,185,170,190,-53,-200,-229
-112,-195,-82,153,-14,-139,195,175,200,-43,-195,-234
-117,-195,-78,156,-19,-136,204,190,214,-39,-200,-239
-131,-204,-73,168,-29,-139,209,200,224,-34,-209,-244
-131,-209,-78,170,-26,-143,219,214,253,-9,-209,-248
-131,-219,-87,175,-21,-153,229,224,273,14,-204,-253
-141,-224,-82,183,-29,-153,244,244,297,39,-195,-263
-146,-229,-82,187,-31,-156,253,263,326,68,-190,-273
-146,-234,-87,190,-29,-161,263,283,361,102,-185,-283
-151,-239,-87,195,-31,-163,278,292,400,136,-175,-287
-151,-244,-92,197,-29,-168,292,312,439,180,-175,-292
-161,-253,-92,207,-34,-173,302,336,488,224,-161,-297
-165,-258,-92,212,-36,-175,317,351,531,283,-146,-307
-165,-258,-92,212,-36,-175,331,366,580,341,-122,-317
-170,-268,-97,219,-36,-183,336,385,634,405,-97,-322
-175,-273,-97,224,-39,-185,346,405,692,468,-68,-322
-180,-263,-82,222,-48,-173,356,424,771,556,-34,-326
-180,-258,-78,219,-51,-168,366,439,810,614,-4,-322
-185,-253,-68,219,-58,-161,361,444,883,678,19,-317
-180,-244,-63,212,-58,-153,361,458,927,736,48,-302
-170,-229,-58,200,-56,-143,356,458,951,780,82,-287
-170,-209,-39,190,-65,-124,346,463,971,810,107,-278
-170,-190,-19,180,-75,-104,331,434,976,805,117,-253
-165,-170,-4,168,-80,-87,302,414,966,790,117,-229
-151,-151,0,151,-75,-75,283,366,888,751,112,-209
-131,-131,0,131,-65,-65,258,341,829,707,112,-195
-117,-107,9,112,-63,-48,229,331,746,634,107,-180
-107,-87,19,97,-63,-34,195,273,668,561,102,-156
-82,-73,9,78,-46,-31,161,219,556,497,92,-136
-68,-63,4,65,-36,-29,122,185,468,414,78,-107
-53,-39,14,46,-34,-12,92,141,409,322,73,-73
-39,-4,34,21,-36,14,63,107,326,253,63,-43
-29,4,34,12,-31,19,34,73,248,200,48,-24
-19,9,29,4,-24,19,9,34,170,136,34,-14
-4,24,29,-9,-17,26,-9,14,126,92,29,4
0,29,29,-14,-14,29,-19,-4,92,58,29,19
9,39,29,-24,-9,34,-29,-19,43,24,29,29
14,43,29,-29,-7,36,-34,-39,4,-9,19,34
19,48,29,-34,-4,39,-43,-48,-24,-39,9,34
24,53,29,-39,-2,41,-48,-58,-39,-58,4,34
29,53,24,-41,2,39,-63,-58,-58,-82,-9,39
34,53,19,-43,7,36,-63,-58,-73,-87,-9,34
34,58,24,-46,4,41,-68,-63,-78,-92,-14,39
34,53,19,-43,7,36,-68,-68,-78,-97,-19,39
39,53,14,-46,12,34,-68,-68,-87,-97,-19,39
39,53,14,-46,12,34,-68,-68,-97,-97,-19,39
39,53,14,-46,12,34,-68,-73,-102,-107,-24,34
39,53,14,-46,12,34,-68,-78,-102,-117,-24,34
34,48,14,-41,9,31,-68,-78,-102,-122,-29,34
34,48,14,-41,9,31,-68,-73,-107,-126,-34,34
34,48,14,-41,9,31,-63,-73,-102,-131,-39,34
34,48,14,-41,9,31,-63,-73,-102,-136,-39,34
29,48,19,-39,4,34,-63,-73,-107,-141,-43,24
29,48,19,-39,4,34,-63,-73,-107,-146,-48,19
29,43,14,-36,7,29,-63,-73,-107,-151,-48,19
29,43,14,-36,7,29,-63,-68,-102,-151,-48,14
29,39,9,-34,9,24,-63,-68,-102,-151,-48,14
29,34,4,-31,12,19,-63,-68,-102,-156,-48,14
34,34,0,-34,17,17,-63,-63,-102,-151,-48,14
34,34,0,-34,17,17,-58,-63,-102,-151,-48,14
29,34,4,-31,12,19,-58,-63,-107,-146,-53,14
29,29,0,-29,14,14,-58,-63,-107,-141,-53,9
29,29,0,-29,14,14,-58,-63,-102,-141,-48,9
24,29,4,-26,9,17,-53,-63,-102,-136,-48,9
24,24,0,-24,12,12,-53,-58,-102,-131,-48,9
24,24,0,-24,12,12,-53,-53,-102,-126,-53,9
24,19,-4,-21,14,7,-53,-53,-97,-122,-53,4
24,14,-9,-19,17,2,-53,-53,-92,-122,-53,4
24,14,-9,-19,17,2,-53,-53,-87,-117,-48,4
24,14,-9,-19,17,2,-53,-53,-82,-112,-43,4
24,14,-9,-19,17,2,-48,-53,-87,-107,-39,4
19,9,-9,-14,14,0,-43,-53,-87,-102,-34,0
19,9,-9,-14,14,0,-43,-53,-87,-102,-34,0
19,9,-9,-14,14,0,-43,-58,-87,-102,-34,0
19,9,-9,-14,14,0,-43,-58,-82,-97,-34,0
14,9,-4,-12,9,2,-43,-58,-82,-97,-34,0
14,14,0,-14,7,7,-43,-58,-82,-92,-34,0
14,19,4,-17,4,12,-43,-58,-82,-92,-34,0
14,14,0,-14,7,7,-43,-58,-87,-87,-34,0
14,14,0,-14,7,7,-43,-58,-87,-82,-34,-4
14,14,0,-14,7,7,-43,-58,-87,-87,-39,-4
14,14,0,-14,7,7,-48,-63,-97,-87,-39,-4
9,14,4,-12,2,9,-53,-63,-97,-82,-39,-4
4,14,9,-9,-2,12,-58,-63,-92,-87,-39,-4
4,14,9,-9,-2,12,-53,-68,-87,-92,-39,-4
4,14,9,-9,-2,12,-53,-68,-87,-92,-43,-4
9,14,4,-12,2,9,-58,-68,-92,-92,-43,-4
14,14,0,-14,7,7,-58,-68,-97,-92,-43,-4
14,14,0,-14,7,7,-58,-68,-97,-97,-39,-4
14,14,0,-14,7,7,-58,-68,-102,-102,-34,-4
19,9,-9,-14,14,0,-58,-73,-102,-102,-34,-4
19,4,-14,-12,17,-4,-58,-78,-102,-102,-39,-4
19,4,-14,-12,17,-4,-58,-78,-107,-102,-39,-4
19,4,-14,-12,17,-4,-63,-78,-112,-102,-39,-4
19,0,-19,-9,19,-9,-63,-78,-112,-102,-43,-4
19,0,-19,-9,19,-9,-63,-82,-117,-107,-48,-4
14,0,-14,-7,14,-7,-63,-82,-112,-107,-48,-4
14,0,-14,-7,14,-7,-63,-78,-107,-112,-48,-4
19,0,-19,-9,19,-9,-63,-78,-107,-112,-43,-4
19,4,-14,-12,17,-4,-63,-78,-107,-102,-39,0
14,4,-9,-9,12,-2,-68,-78,-117,-112,-39,0
9,0,-9,-4,9,-4,-68,-82,-122,-117,-39,-4
9,4,-4,-7,7,0,-63,-82,-122,-117,-39,-4
9,4,-4,-7,7,0,-63,-82,-122,-117,-39,0
9,4,-4,-7,7,0,-63,-82,-122,-117,-39,0
9,9,0,-9,4,4,-63,-82,-122,-117,-39,0
14,9,-4,-12,9,2,-68,-82,-126,-122,-43,0
14,9,-4,-12,9,2,-73,-82,-131,-126,-48,0
14,9,-4,-12,9,2,-73,-92,-126,-126,-48,0
14,14,0,-14,7,7,-73,-97,-126,-126,-48,-4
14,14,0,-14,7,7,-68,-97,-126,-126,-48,-4
19,14,-4,-17,12,4,-68,-92,-126,-131,-48,-4
19,9,-9,-14,14,0,-73,-87,-126,-136,-48,-4
19,0,-19,-9,19,-9,-73,-87,-126,-136,-53,-4
19,0,-19,-9,19,-9,-73,-87,-126,-136,-53,-4
19,0,-19,-9,19,-9,-73,-87,-126,-136,-48,-4
24,0,-24,-12,24,-12,-78,-87,-126,-136,-48,-4
19,4,-14,-12,17,-4,-82,-87,-131,-136,-48,-4
19,9,-9,-14,14,0,-68,-82,-122,-131,-53,0
19,19,0,-19,9,9,-58,-78,-117,-126,-58,0
24,19,-4,-21,14,7,-58,-78,-117,-126,-48,4
29,19,-9,-24,19,4,-58,-78,-117,-126,-39,9
29,39,9,-34,9,24,-63,-78,-112,-117,-34,9
34,53,19,-43,7,36,-68,-78,-97,-102,-29,14
39,73,34,-56,2,53,-73,-78,-87,-92,-29,19
39,92,53,-65,-7,73,-78,-78,-73,-87,-19,34
43,107,63,-75,-9,85,-82,-78,-53,-78,-4,39
48,117,68,-82,-9,92,-82,-73,-48,-73,9,43
53,126,73,-90,-9,100,-87,-58,-34,-68,14,48
63,131,68,-97,-2,100,-97,-53,-19,-58,14,48
78,131,53,-104,12,92,-112,-63,-29,-58,9,48
82,126,43,-104,19,85,-161,-97,-39,-58,4,48
82,126,43,-104,19,85,-195,-136,-63,-68,4,48
82,126,43,-104,19,85,-229,-161,-87,-82,0,58
78,131,53,-104,12,92,-234,-190,-102,-97,4,58
78,156,78,-117,0,117,-248,-204,-107,-107,4,63
78,161,82,-119,-2,122,-244,-214,-126,-112,0,63
78,146,68,-112,4,107,-239,-214,-146,-122,-4,58
82,141,58,-112,12,100,-224,-209,-146,-131,-9,58
82,136,53,-109,14,95,-204,-200,-146,-131,-9,58
78,131,53,-104,12,92,-185,-180,-141,-131,-9,58
78,122,43,-100,17,82,-170,-165,-141,-131,-9,58
78,102,24,-90,26,63,-151,-151,-141,-136,-24,48
63,78,14,-70,24,46,-141,-151,-165,-161,-48,34
48,48,0,-48,24,24,-126,-146,-180,-185,-63,19
29,19,-9,-24,19,4,-112,-146,-190,-200,-87,-4
9,-9,-19,0,14,-14,-78,-126,-185,-204,-97,-24
4,-19,-24,7,14,-21,-43,-102,-165,-190,-97,-24
4,-24,-29,9,17,-26,-39,-82,-156,-170,-82,-24
4,-24,-29,9,17,-26,-39,-78,-146,-156,-73,-19
9,-24,-34,7,21,-29,-39,-78,-141,-156,-73,-19
9,-19,-29,4,19,-24,-34,-78,-141,-161,-73,-14
4,-19,-24,7,14,-21,-34,-78,-141,-161,-73,-14
0,-19,-19,9,9,-19,-34,-73,-141,-161,-78,-19
0,-24,-24,12,12,-24,-34,-73,-146,-161,-78,-19
0,-24,-24,12,12,-24,-29,-73,-146,-161,-78,-19
0,-24,-24,12,12,-24,-34,-73,-146,-161,-78,-19
0,-24,-24,12,12,-24,-39,-73,-146,-161,-73,-19
0,-24,-24,12,12,-24,-39,-68,-141,-161,-73,-19
0,-24,-24,12,12,-24,-39,-68,-141,-161,-73,-19
0,-24,-24,12,12,-24,-29,-68,-136,-161,-73,-19
0,-24,-24,12,12,-24,-24,-68,-131,-161,-73,-19
0,-24,-24,12,12,-24,-19,-58,-131,-161,-78,-19
0,-24,-24,12,12,-24,-19,-53,-117,-151,-78,-19
-4,-19,-14,12,4,-17,-9,-43,-92,-151,-82,-24
-19,-24,-4,21,-7,-14,29,-9,-24,-156,-102,-48
-53,-34,19,43,-36,-7,92,73,34,-195,-180,-107
-68,-34,34,51,-51,0,151,156,87,-214,-239,-151
-43,43,87,0,-65,65,141,204,204,-112,-156,-82
82,248,165,-165,-41,207,34,224,380,214,156,146
268,551,283,-409,-7,417,-141,195,580,683,634,463
453,854,400,-653,26,627,-356,29,409,912,976,766
639,1156,517,-897,61,836,-600,-185,-9,1000,1307,1122
824,1542,717,-1183,53,1129,-946,-517,-590,1068,1668,1488
927,1922,995,-1424,-34,1459,-1312,-1029,-1288,956,1947,1810
790,1995,1205,-1393,-207,1600,-1493,-1586,-2039,653,1966,1952
610,1751,1141,-1180,-265,1446,-1405,-1825,-2508,165,1649,1859
302,1102,800,-702,-248,951,-932,-1395,-2547,-370,980,1400
-53,190,244,-68,-148,217,-219,-688,-2030,-1044,-151,531
-170,-512,-341,341,85,-427,302,-4,-1478,-1278,-766,-195
-195,-697,-502,446,153,-600,566,424,-756,-722,-561,-370
-175,-634,-458,405,141,-546,575,448,-331,-346,-366,-370
-136,-458,-322,297,92,-390,448,356,-165,-161,-204,-258
-92,-307,-214,200,61,-261,317,248,-87,-63,-122,-175
-53,-200,-146,126,46,-173,224,190,4,-14,-58,-112
-48,-161,-112,104,31,-136,165,141,58,-9,-53,-92
-48,-156,-107,102,29,-131,146,107,53,-9,-58,-92
-48,-141,-92,95,21,-117,126,87,43,-9,-68,-92
-43,-131,-87,87,21,-109,107,78,43,-34,-78,-92
-43,-131,-87,87,21,-109,107,68,48,-43,-87,-92
-43,-131,-87,87,21,-109,97,63,53,-43,-82,-92
-43,-131,-87,87,21,-109,92,58,53,-43,-78,-87
-43,-131,-87,87,21,-109,92,63,53,-48,-78,-92
-48,-131,-82,90,17,-107,82,68,43,-53,-87,-92
-48,-126,-78,87,14,-102,82,63,43,-58,-87,-92
-48,-117,-68,82,9,-92,87,63,53,-63,-82,-92
-43,-117,-73,80,14,-95,87,63,53,-63,-82,-92
-48,-117,-68,82,9,-92,87,63,53,-63,-92,-92
-48,-117,-68,82,9,-92,87,63,53,-63,-97,-102
-48,-122,-73,85,12,-97,87,58,53,-82,-107,-107
-48,-122,-73,85,12,-97,87,53,53,-82,-112,-112
-48,-117,-68,82,9,-92,87,63,58,-73,-117,-117
-53,-117,-63,85,4,-90,92,63,58,-78,-117,-122
-53,-122,-68,87,7,-95,97,63,68,-82,-122,-122
-53,-122,-68,87,7,-95,97,63,68,-82,-126,-122
-53,-122,-68,87,7,-95,97,68,73,-82,-131,-131
-58,-122,-63,90,2,-92,97,68,78,-82,-136,-131
-58,-122,-63,90,2,-92,102,73,82,-82,-136,-131
-58,-131,-73,95,7,-102,107,82,82,-87,-141,-136
-63,-136,-73,100,4,-104,112,82,87,-82,-141,-141
-68,-141,-73,104,2,-107,112,92,97,-82,-141,-141
-68,-141,-73,104,2,-107,112,97,107,-82,-151,-146
-68,-141,-73,104,2,-107,117,102,107,-82,-151,-161
-73,-146,-73,109,0,-109,117,102,112,-82,-156,-165
-73,-151,-78,112,2,-114,122,112,117,-82,-161,-165
-73,-151,-78,112,2,-114,126,112,126,-82,-165,-170
-78,-161,-82,119,2,-122,136,122,131,-82,-170,-180
-82,-165,-82,124,0,-124,136,126,141,-82,-175,-190
-82,-170,-87,126,2,-129,141,126,151,-78,-175,-190
-82,-170,-87,126,2,-129,146,131,161,-78,-185,-190
-82,-175,-92,129,4,-134,156,141,165,-73,-190,-200
-92,-190,-97,141,2,-143,161,146,170,-73,-200,-209
-97,-190,-92,143,-2,-141,170,151,175,-63,-200,-209
-97,-190,-92,143,-2,-141,175,161,180,-63,-204,-219
-97,-195,-97,146,0,-146,180,170,195,-53,-204,-229
-102,-204,-102,153,0,-153,185,175,209,-43,-204,-234
-107,-204,-97,156,-4,-151,195,195,224,-39,-204,-244
-122,-214,-92,168,-14,-153,200,209,234,-34,-209,-253
-122,-219,-97,170,-12,-158,209,224,263,-14,-209,-258
-122,-229,-107,175,-7,-168,219,234,283,4,-204,-263
-131,-234,-102,183,-14,-168,234,253,312,34,-200,-273
-136,-244,-107,190,-14,-175,248,283,361,82,-195,-287
-151,-253,-102,202,-24,-178,263,287,385,112,-190,-292
-165,-263,-97,214,-34,-180,283,292,409,146,-185,-302
-175,-273,-97,224,-39,-185,292,307,458,190,-170,-312
-185,-283,-97,234,-43,-190,302,322,507,234,-156,-322
-204,-287,-82,246,-61,-185,326,336,546,278,-151,-326
-224,-297,-73,261,-75,-185,341,341,585,326,-146,-341
-248,-312,-63,280,-92,-187,361,351,629,375,-146,-356
-283,-326,-43,305,-119,-185,370,351,668,419,-136,-375
-292,-297,-4,295,-143,-151,351,341,727,497,-102,-370
-302,-273,29,287,-165,-122,336,336,771,570,-68,-366
-297,-234,63,265,-180,-85,336,356,834,634,-19,-331
-287,-200,87,244,-187,-56,331,366,897,702,24,-302
-263,-156,107,209,-185,-24,356,419,951,756,68,-273
-248,-117,131,183,-190,7,346,448,1005,810,112,-244
-209,-107,102,158,-156,-2,331,444,980,800,122,-229
-170,-97,73,134,-122,-12,317,453,956,785,126,-204
-151,-92,58,122,-104,-17,278,385,883,722,131,-195
-126,-68,58,97,-92,-4,229,331,819,663,131,-180
-107,-48,58,78,-82,4,180,248,717,580,112,-161
-87,-48,39,68,-63,-4,131,175,614,492,92,-146
-68,-43,24,56,-46,-9,97,141,512,409,78,-122
-53,-39,14,46,-34,-12,68,112,409,336,68,-97
-39,-29,9,34,-24,-9,48,82,322,253,53,-73
-19,-24,-4,21,-7,-14,24,48,229,170,39,-48
4,-14,-19,4,12,-17,9,43,185,136,34,-29
14,-9,-24,-2,19,-17,-14,24,117,82,19,-14
29,0,-29,-14,29,-14,-34,-4,63,29,14,4
39,9,-29,-24,34,-9,-53,-39,14,-14,0,14
34,0,-34,-17,34,-17,-58,-43,-19,-53,-9,4
43,9,-34,-26,39,-12,-63,-43,-39,-73,-9,14
43,4,-39,-24,41,-17,-58,-39,-63,-82,-9,14
43,4,-39,-24,41,-17,-58,-48,-87,-97,-14,19
48,4,-43,-26,46,-19,-63,-53,-87,-102,-14,19
48,9,-39,-29,43,-14,-63,-58,-92,-112,-14,24
53,9,-43,-31,48,-17,-63,-58,-97,-117,-14,29
58,9,-48,-34,53,-19,-63,-53,-102,-122,-19,29
58,4,-53,-31,56,-24,-63,-53,-107,-126,-24,29
58,4,-53,-31,56,-24,-58,-53,-107,-131,-29,29
58,4,-53,-31,56,-24,-63,-53,-112,-136,-34,29
58,4,-53,-31,56,-24,-68,-53,-117,-141,-34,29
58,4,-53,-31,56,-24,-68,-48,-112,-146,-39,29
58,4,-53,-31,56,-24,-68,-48,-112,-151,-43,29
58,0,-58,-29,58,-29,-63,-48,-117,-151,-43,24
58,-4,-63,-26,61,-34,-63,-48,-122,-151,-43,19
63,-4,-68,-29,65,-36,-58,-48,-131,-161,-48,19
68,-4,-73,-31,70,-39,-58,-53,-126,-161,-48,19
78,4,-73,-41,75,-34,-78,-68,-126,-131,-14,43
78,4,-73,-41,75,-34,-68,-58,-82,-107,4,48
43,-4,-48,-19,46,-26,-14,0,9,-78,-24,9
29,-4,-34,-12,31,-19,34,58,97,-29,-34,-14
-14,14,29,0,-21,21,68,73,107,24,19,0
43,161,117,-102,-36,139,4,58,175,302,302,175
195,458,263,-326,-34,361,-131,92,614,995,927,541
346,756,409,-551,-31,583,-307,-9,683,1449,1415,893
546,1029,483,-788,31,756,-468,-78,414,1586,1708,1200
746,1385,639,-1066,53,1012,-732,-263,-14,1703,2030,1517
971,1883,912,-1427,29,1398,-1161,-692,-712,1488,2239,1869
956,2074,1117,-1515,-80,1595,-1405,-1166,-1464,1083,2191,2039
727,1995,1268,-1361,-270,1632,-1439,-1683,-2464,-248,1483,1903
370,1512,1141,-941,-385,1327,-1088,-1532,-3035,-1629,424,1400
-19,507,527,-244,-273,517,-317,-717,-2278,-1786,-434,590
-170,-287,-117,229,-26,-202,263,73,-1488,-1503,-775,-78
-151,-556,-405,353,126,-480,546,580,-697,-824,-570,-302
-87,-575,-488,331,200,-531,575,683,-204,-326,-375,-351
-58,-409,-351,234,146,-380,424,502,-73,-146,-209,-239
-24,-268,-244,146,109,-256,268,307,-29,-53,-122,-156
9,-161,-170,75,90,-165,165,219,43,0,-53,-92
9,-122,-131,56,70,-126,97,141,78,9,-43,-73
9,-122,-131,56,70,-126,87,102,68,9,-43,-68
9,-112,-122,51,65,-117,78,78,53,9,-48,-63
9,-102,-112,46,61,-107,58,68,48,-19,-58,-63
4,-102,-107,48,56,-104,58,58,48,-34,-68,-63
4,-102,-107,48,56,-104,48,48,48,-39,-73,-73
4,-102,-107,48,56,-104,43,39,43,-43,-78,-78
4,-107,-112,51,58,-109,43,39,43,-48,-78,-82
0,-112,-112,56,56,-112,34,39,34,-53,-87,-82
-4,-117,-112,61,53,-114,34,34,29,-58,-92,-87
-9,-117,-107,63,48,-112,39,34,34,-63,-92,-92
-9,-117,-107,63,48,-112,43,34,34,-63,-92,-92
-19,-117,-97,68,39,-107,48,34,34,-63,-102,-92
-24,-117,-92,70,34,-104,48,34,34,-63,-107,-102
-29,-122,-92,75,31,-107,48,29,34,-82,-117,-107
-29,-126,-97,78,34,-112,48,24,34,-92,-122,-112
-29,-126,-97,78,34,-112,48,34,39,-92,-126,-117
-39,-131,-92,85,26,-112,53,34,34,-92,-126,-122
-43,-141,-97,92,26,-119,58,34,39,-92,-131,-122
-43,-141,-97,92,26,-119,58,34,34,-92,-136,-126
-43,-141,-97,92,26,-119,58,39,34,-92,-141,-141
-48,-141,-92,95,21,-117,58,34,39,-92,-146,-141
-48,-141,-92,95,21,-117,63,34,43,-92,-146,-141
-48,-151,-102,100,26,-126,68,43,43,-97,-156,-146
-53,-156,-102,104,24,-129,73,43,48,-92,-161,-151
-63,-161,-97,112,17,-129,78,48,63,-92,-161,-151
-68,-161,-92,114,12,-126,82,48,78,-92,-170,-156
-68,-161,-92,114,12,-126,87,53,78,-87,-165,-170
-73,-165,-92,119,9,-129,87,53,82,-82,-165,-175
-73,-170,-97,122,12,-134,92,63,87,-82,-170,-175
-73,-170,-97,122,12,-134,97,63,97,-82,-175,-180
-78,-180,-102,129,12,-141,107,73,102,-78,-180,-190
-82,-185,-102,134,9,-143,107,78,112,-73,-185,-200
-82,-190,-107,136,12,-148,107,82,122,-63,-185,-200
-82,-190,-107,136,12,-148,107,92,131,-58,-195,-200
-82,-190,-107,136,12,-148,117,102,141,-53,-195,-214
-92,-200,-107,146,7,-153,122,107,151,-53,-200,-229
-97,-204,-107,151,4,-156,131,112,165,-39,-200,-229
-97,-209,-112,153,7,-161,136,122,180,-34,-204,-239
-102,-214,-112,158,4,-163,146,131,204,-19,-204,-248
-112,-224,-112,168,0,-168,156,136,229,-4,-204,-253
-117,-224,-107,170,-4,-165,170,161,253,14,-204,-263
-131,-234,-102,183,-14,-168,180,180,273,34,-209,-273
-131,-239,-107,185,-12,-173,190,195,307,58,-209,-278
-131,-248,-117,190,-7,-183,200,204,331,82,-204,-283
-141,-253,-112,197,-14,-183,214,224,366,117,-195,-292
-146,-258,-112,202,-17,-185,224,244,405,156,-190,-302
-141,-263,-122,202,-9,-192,234,263,439,195,-180,-307
-141,-268,-126,204,-7,-197,248,273,478,234,-165,-307
-141,-263,-122,202,-9,-192,263,292,517,283,-151,-307
-151,-263,-112,207,-19,-187,273,317,566,331,-122,-307
-156,-263,-107,209,-24,-185,278,331,610,385,-102,-297
-156,-258,-102,207,-26,-180,283,346,658,439,-73,-287
-151,-253,-102,202,-24,-178,283,351,683,488,-43,-278
-146,-244,-97,195,-24,-170,287,356,712,536,-9,-263
-136,-224,-87,180,-24,-156,278,361,741,585,24,-248
-122,-209,-87,165,-17,-148,268,361,732,605,53,-224
-122,-195,-73,158,-24,-134,239,336,732,614,78,-204
-112,-175,-63,143,-24,-119,214,322,702,619,107,-175
-92,-161,-68,126,-12,-114,195,287,639,580,122,-156
-82,-141,-58,112,-12,-100,170,258,570,527,126,-141
-68,-122,-53,95,-7,-87,151,214,531,473,126,-112
-48,-102,-53,75,2,-78,117,180,478,409,117,-82
-34,-82,-48,58,7,-65,97,126,380,351,102,-63
-14,-63,-48,39,17,-56,73,97,302,287,92,-48
-9,-43,-34,26,12,-39,48,102,244,229,78,-34
-9,-29,-19,19,4,-24,19,58,190,170,63,-9
4,-14,-19,4,12,-17,4,29,117,136,58,-4
9,-4,-14,-2,12,-9,-14,19,68,82,48,9
14,0,-14,-7,14,-7,-24,-4,58,34,43,19
19,14,-4,-17,12,4,-34,-19,24,9,34,24
19,19,0,-19,9,9,-39,-29,4,-4,24,34
19,19,0,-19,9,9,-39,-43,-14,-29,14,34
29,29,0,-29,14,14,-53,-48,-24,-43,9,39
29,29,0,-29,14,14,-58,-53,-24,-48,9,39
34,34,0,-34,17,17,-58,-53,-43,-58,14,43
34,34,0,-34,17,17,-53,-58,-53,-68,9,43
34,34,0,-34,17,17,-58,-58,-63,-73,9,43
34,34,0,-34,17,17,-58,-58,-58,-68,14,43
34,34,0,-34,17,17,-68,-58,-63,-78,4,48
34,34,0,-34,17,17,-63,-58,-63,-68,9,43
29,39,9,-34,9,24,-63,-58,-63,-68,14,48
24,34,9,-29,7,21,-58,-58,-58,-68,19,48
29,34,4,-31,12,19,-58,-58,-58,-58,19,48
29,34,4,-31,12,19,-58,-58,-58,-48,19,48
29,34,4,-31,12,19,-58,-58,-58,-43,19,43
29,34,4,-31,12,19,-58,-58,-53,-39,24,43
24,29,4,-26,9,17,-58,-58,-43,-39,24,43
24,29,4,-26,9,17,-58,-53,-39,-39,24,43
24,29,4,-26,9,17,-53,-53,-34,-34,24,43
24,29,4,-26,9,17,-53,-53,-34,-29,29,43
19,29,9,-24,4,19,-53,-53,-39,-24,29,39
19,29,9,-24,4,19,-53,-53,-39,-19,29,39
19,24,4,-21,7,14,-53,-53,-39,-24,29,39
19,24,4,-21,7,14,-53,-48,-34,-24,29,34
19,19,0,-19,9,9,-53,-48,-34,-19,29,34
19,14,-4,-17,12,4,-53,-48,-34,-19,29,34
24,14,-9,-19,17,2,-53,-43,-39,-14,29,34
24,14,-9,-19,17,2,-48,-43,-43,-14,29,34
19,19,0,-19,9,9,-48,-48,-48,-19,24,34
19,19,0,-19,9,9,-48,-53,-48,-24,24,29
19,19,0,-19,9,9,-48,-53,-43,-29,24,29
14,19,4,-17,4,12,-43,-53,-43,-29,19,29
14,14,0,-14,7,7,-43,-53,-48,-29,19,29
14,14,0,-14,7,7,-43,-53,-53,-29,14,29
14,9,-4,-12,9,2,-43,-53,-53,-29,14,24
14,4,-9,-9,12,-2,-43,-53,-53,-34,14,24
14,4,-9,-9,12,-2,-43,-58,-58,-39,9,24
14,4,-9,-9,12,-2,-43,-63,-63,-43,4,24
14,4,-9,-9,12,-2,-43,-63,-68,-48,4,24
9,0,-9,-4,9,-4,-43,-63,-68,-53,4,19
9,0,-9,-4,9,-4,-43,-58,-68,-53,4,19
9,0,-9,-4,9,-4,-43,-58,-68,-53,4,19
14,0,-14,-7,14,-7,-48,-58,-63,-53,0,19
14,0,-14,-7,14,-7,-53,-58,-63,-58,-4,19
14,0,-14,-7,14,-7,-53,-58,-63,-58,-4,19
14,0,-14,-7,14,-7,-53,-58,-63,-63,-4,19
14,0,-14,-7,14,-7,-48,-58,-68,-63,-4,19
14,4,-9,-9,12,-2,-43,-58,-68,-63,-4,14
9,4,-4,-7,7,0,-43,-58,-68,-68,-9,19
4,4,0,-4,2,2,-48,-63,-78,-68,-9,24
4,0,-4,-2,4,-2,-53,-63,-82,-68,-9,24
4,-4,-9,0,7,-7,-58,-63,-82,-78,-9,24
9,-4,-14,-2,12,-9,-53,-68,-82,-82,-9,19
14,-4,-19,-4,17,-12,-53,-68,-87,-82,-14,14
14,-4,-19,-4,17,-12,-53,-68,-92,-82,-14,14
14,-4,-19,-4,17,-12,-48,-68,-97,-82,-14,14
14,-4,-19,-4,17,-12,-48,-73,-92,-87,-19,14
14,-4,-19,-4,17,-12,-48,-78,-92,-92,-24,14
19,0,-19,-9,19,-9,-48,-78,-92,-92,-24,14
19,4,-14,-12,17,-4,-48,-78,-92,-92,-29,14
14,4,-9,-9,12,-2,-48,-73,-92,-92,-29,14
9,4,-4,-7,7,0,-53,-68,-92,-92,-29,14
9,-4,-14,-2,12,-9,-53,-68,-92,-92,-29,14
9,-9,-19,0,14,-14,-53,-73,-97,-97,-29,14
4,-9,-14,2,9,-12,-53,-73,-97,-97,-29,14
4,-9,-14,2,9,-12,-53,-68,-97,-102,-29,14
9,-9,-19,0,14,-14,-53,-68,-97,-102,-29,14
9,-4,-14,-2,12,-9,-53,-68,-97,-92,-29,19
9,-4,-14,-2,12,-9,-58,-68,-102,-102,-29,19
9,-9,-19,0,14,-14,-58,-73,-102,-107,-29,14
9,-4,-14,-2,12,-9,-53,-73,-102,-107,-29,9
9,-4,-14,-2,12,-9,-53,-73,-102,-107,-29,9
9,-4,-14,-2,12,-9,-48,-68,-102,-107,-29,9
9,0,-9,-4,9,-4,-43,-63,-102,-107,-29,9
14,0,-14,-7,14,-7,-48,-63,-102,-107,-29,9
14,0,-14,-7,14,-7,-53,-63,-102,-107,-29,9
14,0,-14,-7,14,-7,-53,-73,-97,-107,-34,14
14,4,-9,-9,12,-2,-53,-78,-97,-107,-39,14
9,0,-9,-4,9,-4,-48,-78,-102,-102,-39,14
9,-4,-14,-2,12,-9,-48,-73,-107,-102,-39,14
9,-4,-14,-2,12,-9,-53,-73,-107,-107,-39,14
9,-9,-19,0,14,-14,-53,-78,-107,-107,-43,14
9,-4,-14,-2,12,-9,-53,-73,-102,-107,-43,14
9,0,-9,-4,9,-4,-53,-68,-97,-107,-39,14
14,0,-14,-7,14,-7,-53,-68,-97,-107,-39,14
14,0,-14,-7,14,-7,-53,-68,-102,-107,-39,14
9,0,-9,-4,9,-4,-53,-73,-92,-102,-39,14
9,-4,-14,-2,12,-9,-53,-73,-97,-97,-39,14
4,-9,-14,2,9,-12,-48,-73,-102,-112,-34,9
4,-9,-14,2,9,-12,-48,-78,-112,-117,-43,9
9,-9,-19,0,14,-14,-48,-78,-112,-122,-43,4
9,-9,-19,0,14,-14,-48,-78,-107,-122,-43,4
9,-9,-19,0,14,-14,-48,-73,-102,-122,-39,4
14,-4,-19,-4,17,-12,-53,-73,-102,-117,-39,4
14,0,-14,-7,14,-7,-58,-73,-102,-117,-39,9
14,0,-14,-7,14,-7,-58,-73,-102,-122,-39,9
14,0,-14,-7,14,-7,-58,-73,-102,-117,-34,9
14,4,-9,-9,12,-2,-58,-78,-102,-112,-34,9
9,0,-9,-4,9,-4,-53,-73,-97,-112,-34,9
9,-9,-19,0,14,-14,-48,-68,-97,-117,-39,9
9,-9,-19,0,14,-14,-48,-68,-102,-117,-39,9
9,-9,-19,0,14,-14,-48,-68,-107,-117,-39,9
9,-9,-19,0,14,-14,-48,-73,-107,-117,-43,9
9,-9,-19,0,14,-14,-48,-78,-107,-117,-48,9
9,-9,-19,0,14,-14,-48,-78,-102,-117,-48,9
9,-9,-19,0,14,-14,-48,-78,-97,-117,-48,9
9,-9,-19,0,14,-14,-53,-73,-97,-117,-48,4
9,-9,-19,0,14,-14,-58,-68,-97,-117,-48,0
9,-9,-19,0,14,-14,-58,-68,-102,-117,-48,0
9,-9,-19,0,14,-14,-58,-68,-107,-117,-48,0
9,-9,-19,0,14,-14,-58,-68,-107,-117,-48,4
9,-9,-19,0,14,-14,-58,-68,-107,-117,-48,9
9,-9,-19,0,14,-14,-58,-73,-107,-117,-48,9
9,-9,-19,0,14,-14,-58,-78,-107,-117,-48,9
9,-9,-19,0,14,-14,-58,-78,-107,-117,-48,9
9,-9,-19,0,14,-14,-58,-78,-107,-117,-48,9
9,-14,-24,2,17,-19,-58,-73,-107,-117,-48,9
9,-19,-29,4,19,-24,-58,-68,-107,-117,-48,9
9,-19,-29,4,19,-24,-53,-68,-107,-117,-48,9
9,-19,-29,4,19,-24,-48,-68,-107,-117,-48,9
9,-19,-29,4,19,-24,-48,-68,-102,-117,-48,9
9,-19,-29,4,19,-24,-48,-68,-97,-117,-48,9
9,-19,-29,4,19,-24,-48,-73,-97,-117,-48,9
9,-19,-29,4,19,-24,-48,-78,-97,-117,-48,9
9,-14,-24,2,17,-19,-48,-78,-102,-117,-48,9
9,-9,-19,0,14,-14,-48,-78,-107,-117,-48,9
14,-9,-24,-2,19,-17,-53,-78,-107,-117,-48,9
19,-9,-29,-4,24,-19,-58,-78,-107,-117,-48,9
19,0,-19,-9,19,-9,-58,-68,-97,-112,-39,9
19,9,-9,-14,14,0,-58,-58,-87,-107,-29,9
24,14,-9,-19,17,2,-58,-58,-78,-102,-29,14
24,29,4,-26,9,17,-63,-58,-63,-92,-24,24
29,48,19,-39,4,34,-68,-58,-53,-82,-19,34
34,68,34,-51,0,51,-68,-58,-34,-68,-4,39
39,78,39,-58,0,58,-58,-53,-24,-58,9,43
43,87,43,-65,0,65,-53,-34,-4,-48,14,53
53,87,34,-70,9,61,-58,-24,14,-39,14,58
68,92,24,-80,21,58,-73,-24,9,-39,14,58
73,97,24,-85,24,61,-122,-48,0,-39,9,58
73,97,24,-85,24,61,-161,-102,-24,-48,9,58
73,97,24,-85,24,61,-200,-136,-53,-63,9,68
73,102,29,-87,21,65,-209,-165,-68,-68,14,68
73,131,58,-102,7,95,-229,-185,-68,-68,19,73
68,146,78,-107,-4,112,-229,-195,-87,-73,14,73
68,136,68,-102,0,102,-234,-200,-107,-82,4,68
68,131,63,-100,2,97,-224,-200,-107,-92,0,68
68,126,58,-97,4,92,-204,-190,-107,-92,0,73
68,122,53,-95,7,87,-185,-170,-102,-92,0,78
73,117,43,-95,14,80,-165,-156,-102,-87,4,78
78,102,24,-90,26,63,-141,-141,-107,-92,-4,68
63,78,14,-70,24,46,-131,-141,-136,-122,-29,53
48,48,0,-48,24,24,-117,-136,-151,-146,-39,39
24,14,-9,-19,17,2,-112,-136,-161,-161,-63,9
0,-19,-19,9,9,-19,-92,-117,-161,-170,-78,-14
-4,-34,-29,19,12,-31,-53,-92,-141,-161,-78,-14
-4,-43,-39,24,17,-41,-39,-78,-126,-146,-68,-14
-4,-43,-39,24,17,-41,-34,-68,-112,-126,-58,-9
0,-43,-43,21,21,-43,-29,-58,-102,-117,-53,-9
0,-39,-39,19,19,-39,-24,-58,-102,-122,-53,-4
0,-39,-39,19,19,-39,-24,-58,-102,-122,-53,-4
0,-39,-39,19,19,-39,-24,-53,-102,-126,-58,-9
0,-43,-43,21,21,-43,-24,-53,-107,-131,-58,-9
0,-43,-43,21,21,-43,-19,-53,-107,-131,-58,-9
0,-43,-43,21,21,-43,-19,-53,-107,-131,-58,-9
0,-43,-43,21,21,-43,-19,-58,-107,-131,-53,-9
0,-43,-43,21,21,-43,-19,-58,-102,-131,-53,-9
0,-43,-43,21,21,-43,-19,-58,-102,-131,-53,-9
0,-43,-43,21,21,-43,-14,-58,-102,-131,-53,-9
0,-43,-43,21,21,-43,-14,-58,-102,-131,-48,-9
0,-43,-43,21,21,-43,-9,-53,-102,-131,-48,-9
0,-43,-43,21,21,-43,-19,-53,-97,-117,-48,-4
-4,-34,-29,19,12,-31,-19,-43,-82,-112,-48,0
-24,-39,-14,31,-4,-26,19,-24,-14,-117,-63,-19
-63,-53,9,58,-36,-21,82,43,43,-136,-126,-73
-92,-78,14,85,-53,-31,165,136,87,-209,-244,-161
-82,-43,39,63,-61,-2,180,190,161,-180,-219,-141
24,126,102,-75,-39,114,97,239,341,146,78,63
185,409,224,-297,-19,317,-43,244,644,624,531,375
375,697,322,-536,26,509,-248,102,551,888,868,683
570,990,419,-780,75,705,-483,-73,190,1000,1190,1005
800,1415,614,-1107,92,1015,-839,-366,-331,1141,1610,1390
961,1849,888,-1405,36,1368,-1234,-854,-990,1132,1927,1751
868,2054,1185,-1461,-158,1620,-1527,-1546,-1761,956,2132,2030
707,1966,1259,-1337,-275,1612,-1551,-1937,-2386,478,1927,2030
390,1356,966,-873,-287,1161,-1122,-1595,-2630,-161,1210,1600
24,429,405,-226,-190,417,-444,-941,-2196,-839,180,834
-151,-400,-248,275,48,-324,180,-146,-1649,-1220,-595,-14
-214,-712,-497,463,141,-605,546,375,-936,-819,-610,-341
-190,-688,-497,439,153,-592,595,463,-434,-409,-400,-361
-156,-541,-385,348,114,-463,507,424,-195,-185,-224,-268
-112,-375,-263,244,75,-319,375,297,-97,-73,-141,-185
-73,-248,-175,161,51,-212,283,229,0,-9,-73,-122
-63,-195,-131,129,34,-163,204,180,53,0,-53,-97
-58,-175,-117,117,29,-146,165,146,73,0,-43,-92
-58,-161,-102,109,21,-131,146,122,73,4,-48,-92
-53,-151,-97,102,21,-124,126,107,73,-14,-58,-92
-53,-151,-97,102,21,-124,126,97,78,-24,-68,-92
-53,-151,-97,102,21,-124,117,92,82,-24,-68,-97
-53,-151,-97,102,21,-124,112,82,82,-24,-68,-92
-53,-151,-97,102,21,-124,112,78,82,-29,-68,-92
-53,-146,-92,100,19,-119,102,78,73,-34,-82,-92
-48,-141,-92,95,21,-117,102,73,73,-39,-87,-92
-48,-136,-87,92,19,-112,107,73,82,-43,-82,-92
-48,-136,-87,92,19,-112,107,73,82,-43,-82,-92
-58,-136,-78,97,9,-107,107,73,82,-43,-92,-92
-58,-136,-78,97,9,-107,107,73,82,-43,-97,-102
-58,-141,-82,100,12,-112,107,68,82,-63,-107,-107
-58,-141,-82,100,12,-112,107,68,82,-63,-107,-107
-58,-136,-78,97,9,-107,107,82,87,-53,-107,-107
-63,-136,-73,100,4,-104,112,82,87,-53,-107,-112
-63,-141,-78,102,7,-109,117,82,97,-58,-112,-117
-63,-141,-78,102,7,-109,117,82,97,-63,-117,-122
-58,-141,-82,100,12,-112,117,87,102,-63,-122,-131
-58,-141,-82,100,12,-112,117,87,107,-63,-126,-131
-58,-141,-82,100,12,-112,122,87,112,-58,-126,-126
-58,-146,-87,102,14,-117,126,92,112,-63,-131,-126
-63,-146,-82,104,9,-114,131,92,117,-63,-131,-131
-68,-151,-82,109,7,-117,131,97,126,-63,-131,-131
-68,-151,-82,109,7,-117,131,102,136,-63,-141,-136
-68,-151,-82,109,7,-117,136,112,136,-63,-141,-151
-73,-161,-87,117,7,-124,136,112,136,-63,-146,-156
-73,-170,-97,122,12,-134,141,122,136,-63,-151,-156
-73,-170,-97,122,12,-134,141,117,146,-63,-156,-161
-78,-180,-102,129,12,-141,146,122,151,-63,-161,-170
-82,-180,-97,131,7,-139,146,126,161,-68,-165,-180
-82,-180,-97,131,7,-139,151,131,165,-68,-165,-180
-82,-180,-97,131,7,-139,156,141,165,-68,-175,-180
-82,-185,-102,134,9,-143,165,151,165,-63,-175,-190
-92,-200,-107,146,7,-153,170,156,170,-63,-180,-200
-97,-204,-107,151,4,-156,180,161,180,-53,-180,-200
-97,-209,-112,153,7,-161,180,170,190,-53,-185,-204
-97,-214,-117,156,9,-165,185,180,204,-43,-185,-209
-102,-224,-122,163,9,-173,195,185,219,-34,-185,-214
-107,-224,-117,165,4,-170,204,200,234,-24,-190,-224
-122,-234,-112,178,-4,-173,209,204,234,-24,-200,-234
-122,-239,-117,180,-2,-178,219,214,253,-9,-200,-244
-122,-248,-126,185,2,-187,229,224,273,9,-195,-248
-131,-253,-122,192,-4,-187,244,244,302,34,-190,-253
-131,-258,-126,195,-2,-192,253,263,331,63,-190,-263
-131,-268,-136,200,2,-202,263,283,361,92,-185,-273
-136,-278,-141,207,2,-209,278,292,395,126,-175,-278
-136,-283,-146,209,4,-214,292,312,429,170,-175,-283
-151,-292,-141,222,-4,-217,302,341,478,214,-161,-287
-156,-297,-141,226,-7,-219,317,361,522,268,-146,-292
-161,-297,-136,229,-12,-217,331,375,580,322,-126,-302
-170,-302,-131,236,-19,-217,336,390,634,380,-107,-312
-175,-302,-126,239,-24,-214,351,419,692,453,-82,-312
-175,-292,-117,234,-29,-204,356,439,761,536,-53,-312
-175,-297,-122,236,-26,-209,361,453,805,590,-24,-312
-180,-292,-112,236,-34,-202,361,458,868,649,0,-312
-170,-278,-107,224,-31,-192,366,473,917,717,34,-297
-161,-263,-102,212,-29,-183,366,478,956,761,63,-283
-165,-244,-78,204,-43,-161,361,483,966,785,92,-278
-165,-229,-63,197,-51,-146,351,453,966,795,107,-263
-156,-209,-53,183,-51,-131,322,424,985,785,112,-239
-141,-190,-48,165,-46,-119,302,400,936,761,122,-219
-122,-170,-48,146,-36,-109,278,375,849,707,122,-200
-107,-146,-39,126,-34,-92,244,341,771,639,122,-180
-97,-122,-24,109,-36,-73,204,283,692,575,112,-156
-73,-102,-29,87,-21,-65,170,234,605,512,102,-136
-58,-82,-24,70,-17,-53,126,204,502,419,97,-107
-43,-58,-14,51,-14,-36,97,165,419,336,92,-78
-29,-29,0,29,-14,-14,68,122,366,283,82,-48
-19,-14,4,17,-12,-4,39,82,297,224,68,-29
-9,-4,4,7,-7,0,19,48,209,151,53,-19
4,9,4,-7,0,7,0,24,146,97,48,0
9,19,9,-14,0,14,-19,4,112,68,43,14
19,29,9,-24,4,19,-39,-9,63,34,39,29
24,29,4,-26,9,17,-43,-39,19,0,29,34
29,34,4,-31,12,19,-53,-48,-9,-24,19,39
34,34,0,-34,17,17,-53,-48,-24,-39,19,39
34,34,0,-34,17,17,-63,-48,-39,-58,9,43
39,39,0,-39,19,19,-63,-48,-53,-63,14,43
43,43,0,-43,21,21,-63,-53,-63,-68,14,48
43,34,-9,-39,26,12,-63,-63,-63,-73,9,48
48,34,-14,-41,31,9,-68,-68,-68,-78,9,48
48,39,-9,-43,29,14,-68,-68,-73,-87,4,48
48,43,-4,-46,26,19,-68,-68,-78,-97,-4,43
48,43,-4,-46,26,19,-68,-68,-82,-102,-9,43
43,39,-4,-41,24,17,-68,-68,-87,-107,-14,43
43,34,-9,-39,26,12,-68,-63,-87,-112,-14,43
43,29,-14,-36,29,7,-63,-63,-82,-117,-19,43
43,29,-14,-36,29,7,-63,-63,-82,-122,-24,43
39,29,-9,-34,24,9,-63,-63,-87,-126,-29,39
39,29,-9,-34,24,9,-58,-63,-92,-126,-29,39
39,24,-14,-31,26,4,-53,-63,-97,-131,-29,39
39,24,-14,-31,26,4,-53,-58,-92,-136,-29,34
39,24,-14,-31,26,4,-53,-58,-92,-136,-29,34
34,24,-9,-29,21,7,-58,-58,-92,-136,-29,34
34,24,-9,-29,21,7,-63,-53,-92,-131,-29,34
34,19,-14,-26,24,2,-58,-53,-92,-131,-29,29
29,14,-14,-21,21,0,-58,-53,-97,-131,-34,24
29,9,-19,-19,24,-4,-53,-53,-92,-131,-34,19
29,9,-19,-19,24,-4,-48,-53,-82,-131,-29,19
24,9,-14,-17,19,-2,-43,-48,-82,-122,-29,19
24,4,-19,-14,21,-7,-43,-43,-82,-117,-29,19
24,4,-19,-14,21,-7,-43,-43,-82,-117,-34,19
24,4,-19,-14,21,-7,-43,-43,-82,-112,-34,14
24,9,-14,-17,19,-2,-43,-43,-78,-112,-34,9
24,14,-9,-19,17,2,-43,-43,-73,-112,-34,4
24,14,-9,-19,17,2,-43,-43,-68,-107,-34,4
24,14,-9,-19,17,2,-43,-43,-68,-102,-34,4
19,9,-9,-14,14,0,-43,-43,-68,-97,-34,0
19,9,-9,-14,14,0,-43,-43,-68,-92,-34,0
19,4,-14,-12,17,-4,-39,-48,-68,-92,-34,0
19,0,-19,-9,19,-9,-34,-48,-63,-87,-34,0
14,0,-14,-7,14,-7,-34,-48,-63,-87,-34,0
14,0,-14,-7,14,-7,-34,-48,-63,-82,-34,0
14,0,-14,-7,14,-7,-34,-48,-63,-82,-29,0
14,-4,-19,-4,17,-12,-34,-48,-68,-82,-24,0
14,-4,-19,-4,17,-12,-34,-48,-68,-78,-24,-4
14,-4,-19,-4,17,-12,-34,-48,-68,-78,-29,-4
14,-4,-19,-4,17,-12,-39,-48,-78,-78,-29,-4
14,-4,-19,-4,17,-12,-39,-43,-78,-78,-29,-4
14,0,-14,-7,14,-7,-39,-43,-73,-82,-29,-4
14,4,-9,-9,12,-2,-34,-48,-73,-82,-29,-4
14,4,-9,-9,12,-2,-39,-53,-73,-82,-34,-4
14,4,-9,-9,12,-2,-48,-58,-73,-82,-34,-4
14,4,-9,-9,12,-2,-48,-63,-78,-87,-34,-9
14,4,-9,-9,12,-2,-48,-68,-78,-92,-34,-14
14,4,-9,-9,12,-2,-48,-68,-82,-92,-34,-14
19,4,-14,-12,17,-4,-48,-68,-82,-92,-34,-14
19,4,-14,-12,17,-4,-48,-68,-87,-92,-39,-9
19,4,-14,-12,17,-4,-48,-68,-92,-92,-39,-4
19,4,-14,-12,17,-4,-53,-68,-92,-92,-34,-4
19,0,-19,-9,19,-9,-53,-68,-92,-92,-29,-4
19,0,-19,-9,19,-9,-53,-73,-97,-97,-29,-4
14,0,-14,-7,14,-7,-53,-73,-97,-97,-29,-4
14,0,-14,-7,14,-7,-53,-68,-97,-102,-29,-4
19,0,-19,-9,19,-9,-53,-68,-97,-102,-29,-4
19,0,-19,-9,19,-9,-53,-68,-102,-92,-34,0
19,0,-19,-9,19,-9,-58,-68,-112,-102,-39,0
14,-4,-19,-4,17,-12,-58,-73,-112,-107,-39,-4
9,-4,-14,-2,12,-9,-53,-73,-107,-107,-39,-4
9,-4,-14,-2,12,-9,-53,-73,-107,-107,-39,0
9,-4,-14,-2,12,-9,-53,-73,-112,-107,-39,0
9,0,-9,-4,9,-4,-53,-73,-112,-107,-39,0
14,0,-14,-7,14,-7,-58,-73,-112,-107,-39,0
14,0,-14,-7,14,-7,-58,-68,-112,-112,-43,0
14,0,-14,-7,14,-7,-53,-73,-107,-117,-48,4
14,4,-9,-9,12,-2,-53,-78,-112,-117,-48,4
14,4,-9,-9,12,-2,-53,-78,-117,-117,-48,4
19,4,-14,-12,17,-4,-58,-78,-117,-122,-48,4
19,4,-14,-12,17,-4,-63,-82,-117,-126,-48,4
19,0,-19,-9,19,-9,-63,-87,-117,-126,-53,4
19,0,-19,-9,19,-9,-63,-87,-117,-126,-53,4
19,0,-19,-9,19,-9,-63,-87,-117,-126,-48,4
24,0,-24,-12,24,-12,-63,-87,-117,-126,-48,4
24,0,-24,-12,24,-12,-63,-87,-122,-126,-48,4
19,4,-14,-12,17,-4,-63,-92,-126,-126,-53,4
19,4,-14,-12,17,-4,-63,-92,-122,-126,-53,4
19,9,-9,-14,14,0,-63,-92,-117,-131,-53,4
19,9,-9,-14,14,0,-58,-82,-117,-126,-43,0
19,9,-9,-14,14,0,-58,-78,-117,-126,-39,0
19,19,0,-19,9,9,-63,-78,-107,-117,-39,9
19,29,9,-24,4,19,-68,-78,-97,-107,-39,19
24,43,19,-34,2,31,-68,-78,-87,-102,-34,24
29,63,34,-46,-2,48,-73,-73,-73,-92,-24,29
34,82,48,-58,-7,65,-78,-73,-63,-82,-19,39
43,97,53,-70,-4,75,-78,-68,-43,-68,-4,39
48,107,58,-78,-4,82,-73,-63,-39,-63,9,43
53,117,63,-85,-4,90,-73,-43,-24,-58,14,53
63,117,53,-90,4,85,-82,-43,-9,-53,14,58
78,122,43,-100,17,82,-102,-53,-19,-58,14,58
78,126,48,-102,14,87,-151,-78,-34,-58,9,58
73,126,53,-100,9,90,-190,-131,-63,-68,9,58
73,126,53,-100,9,90,-224,-161,-87,-82,9,68
73,131,58,-102,7,95,-229,-185,-97,-87,14,68
78,156,78,-117,0,117,-248,-204,-97,-87,14,68
78,165,87,-122,-4,126,-248,-214,-117,-92,4,63
78,156,78,-117,0,117,-244,-214,-136,-102,-4,58
78,151,73,-114,2,112,-224,-209,-136,-112,-9,58
73,146,73,-109,0,109,-204,-200,-141,-117,-9,58
68,141,73,-104,-2,107,-185,-180,-141,-122,-9,58
68,131,63,-100,2,97,-170,-165,-141,-122,-9,58
68,112,43,-90,12,78,-151,-151,-146,-131,-24,48
53,87,34,-70,9,61,-141,-151,-165,-156,-48,34
39,58,19,-48,9,39,-126,-146,-170,-175,-58,19
19,29,9,-24,4,19,-112,-146,-180,-190,-78,-4
0,0,0,0,0,0,-82,-126,-180,-200,-87,-24
-4,-9,-4,7,0,-7,-53,-102,-165,-190,-87,-24
-4,-14,-9,9,2,-12,-48,-87,-156,-175,-78,-24
-4,-14,-9,9,2,-12,-53,-87,-141,-161,-73,-19
0,-14,-14,7,7,-14,-58,-87,-131,-156,-73,-19
0,-9,-9,4,4,-9,-53,-87,-131,-161,-73,-14
0,-9,-9,4,4,-9,-53,-87,-131,-161,-73,-14
0,-14,-14,7,7,-14,-53,-82,-131,-161,-78,-19
0,-24,-24,12,12,-24,-53,-82,-136,-161,-78,-19
0,-24,-24,12,12,-24,-43,-82,-136,-161,-78,-19
0,-24,-24,12,12,-24,-39,-82,-136,-161,-78,-19
0,-24,-24,12,12,-24,-39,-82,-136,-161,-73,-19
0,-24,-24,12,12,-24,-39,-78,-131,-161,-73,-19
-4,-24,-19,14,7,-21,-39,-78,-131,-161,-73,-19
-9,-24,-14,17,2,-19,-34,-78,-131,-161,-73,-19
-9,-19,-9,14,0,-14,-34,-78,-131,-161,-73,-19
-9,-14,-4,12,-2,-9,-29,-73,-131,-161,-78,-19
-14,-14,0,14,-7,-7,-29,-73,-117,-151,-78,-24
-24,-4,19,14,-21,7,-19,-63,-92,-151,-78,-29
-39,-14,24,26,-31,4,24,-24,-24,-165,-107,-48
-73,-34,39,53,-56,2,92,63,34,-195,-185,-102
-87,-24,63,56,-75,19,151,146,92,-219,-248,-156
-63,43,107,9,-85,75,141,190,180,-141,-170,-102
73,239,165,-156,-46,202,34,219,341,195,146,126
263,546,283,-405,-9,414,-131,204,624,683,619,463
444,844,400,-644,21,622,-346,39,473,922,956,771
629,1146,517,-888,56,832,-590,-161,53,1010,1278,1093
810,1537,727,-1173,41,1132,-936,-507,-522,1093,1664,1464
922,1937,1015,-1429,-46,1476,-1322,-1049,-1234,1024,1947,1810
800,2034,1234,-1417,-217,1634,-1517,-1620,-1903,810,2049,2000
610,1839,1229,-1224,-309,1534,-1444,-1888,-2425,292,1742,1912
302,1190,888,-746,-292,1039,-980,-1473,-2576,-356,971,1410
-53,224,278,-85,-165,251,-268,-746,-2049,-1044,-112,570
-190,-483,-292,336,51,-387,273,-43,-1498,-1268,-712,-156
-214,-673,-458,444,122,-566,556,385,-780,-712,-551,-361
-185,-624,-439,405,126,-531,570,434,-351,-351,-366,-361
-146,-453,-307,300,80,-380,448,356,-185,-175,-214,-248
-102,-302,-200,202,48,-251,317,239,-92,-82,-136,-170
-63,-190,-126,126,31,-158,224,180,0,-39,-73,-112
-58,-151,-92,104,17,-122,161,131,39,-29,-63,-92
-58,-146,-87,102,14,-117,136,97,43,-29,-63,-92
-53,-131,-78,92,12,-104,117,78,43,-24,-68,-92
-43,-122,-78,82,17,-100,97,68,43,-43,-78,-92
-43,-122,-78,82,17,-100,97,58,48,-53,-87,-92
-43,-122,-78,82,17,-100,87,53,53,-53,-87,-97
-43,-117,-73,80,14,-95,82,48,53,-53,-87,-97
-43,-112,-68,78,12,-90,82,48,53,-58,-87,-102
-48,-112,-63,80,7,-87,73,48,43,-63,-97,-102
-48,-112,-63,80,7,-87,73,43,43,-68,-97,-102
-48,-112,-63,80,7,-87,78,48,53,-73,-92,-102
-48,-117,-68,82,9,-92,78,53,53,-73,-92,-102
-58,-117,-58,87,0,-87,82,53,53,-68,-102,-97
-58,-117,-58,87,0,-87,87,53,53,-63,-107,-102
-53,-117,-63,85,4,-90,87,48,53,-82,-117,-107
-48,-112,-63,80,7,-87,87,48,53,-82,-117,-107
-48,-107,-58,78,4,-82,87,63,58,-78,-117,-112
-53,-107,-53,80,0,-80,92,63,58,-82,-117,-122
-58,-117,-58,87,0,-87,97,63,68,-82,-122,-122
-63,-122,-58,92,-2,-90,97,63,68,-82,-126,-122
-63,-122,-58,92,-2,-90,97,68,73,-82,-131,-131
-68,-122,-53,95,-7,-87,97,68,78,-82,-136,-131
-68,-122,-53,95,-7,-87,102,73,82,-82,-136,-131
-68,-126,-58,97,-4,-92,107,82,82,-92,-141,-136
-73,-126,-53,100,-9,-90,112,82,87,-92,-141,-141
-78,-131,-53,104,-12,-92,112,87,97,-92,-141,-141
-78,-131,-53,104,-12,-92,112,87,102,-92,-151,-141
-78,-131,-53,104,-12,-92,117,92,97,-92,-151,-151
-82,-136,-53,109,-14,-95,117,92,102,-87,-156,-156
-82,-141,-58,112,-12,-100,122,102,107,-82,-161,-156
-82,-146,-63,114,-9,-104,126,97,117,-82,-165,-161
-87,-161,-73,124,-7,-117,136,102,122,-82,-170,-170
-92,-165,-73,129,-9,-119,136,107,131,-87,-175,-180
-92,-170,-78,131,-7,-124,141,112,136,-87,-175,-180
-92,-161,-68,126,-12,-114,146,122,146,-87,-185,-180
-92,-156,-63,124,-14,-109,156,131,156,-82,-185,-190
-102,-170,-68,136,-17,-119,156,136,161,-82,-195,-200
-107,-175,-68,141,-19,-122,161,141,170,-73,-200,-200
-107,-185,-78,146,-14,-131,165,151,175,-73,-204,-209
-107,-195,-87,151,-9,-141,175,161,185,-63,-204,-219
-112,-204,-92,158,-9,-148,185,165,200,-53,-204,-224
-117,-204,-87,161,-14,-146,195,180,214,-43,-209,-234
-131,-214,-82,173,-24,-148,200,190,224,-43,-214,-244
-131,-219,-87,175,-21,-153,209,204,253,-29,-209,-253
-131,-229,-97,180,-17,-163,219,214,273,-4,-204,-263
-141,-234,-92,187,-24,-163,239,244,317,39,-200,-278
-136,-239,-102,187,-17,-170,244,258,336,63,-190,-278
-136,-244,-107,190,-14,-175,253,273,361,87,-185,-283
-165,-263,-97,214,-34,-180,273,283,395,126,-185,-297
-195,-283,-87,239,-53,-185,292,292,429,165,-185,-312
-209,-287,-78,248,-65,-183,312,307,473,204,-180,-322
-224,-297,-73,261,-75,-185,326,312,512,248,-175,-336
-239,-307,-68,273,-85,-187,341,322,556,292,-175,-356
-263,-317,-53,290,-104,-185,351,322,590,331,-165,-375
-283,-292,-9,287,-136,-151,341,312,653,405,-141,-370
-302,-273,29,287,-165,-122,336,307,702,473,-117,-366
-297,-244,53,270,-175,-95,336,336,775,546,-63,-341
-287,-219,68,253,-178,-75,331,356,849,624,-14,-322
-263,-170,92,217,-178,-39,366,419,922,702,29,-292
-248,-126,122,187,-185,-2,366,458,995,780,73,-263
-219,-122,97,170,-158,-12,361,463,1005,795,97,-248
-190,-117,73,153,-131,-21,356,483,1015,805,117,-224
-175,-112,63,143,-119,-24,322,419,956,766,122,-209
-156,-87,68,122,-112,-9,278,370,907,732,122,-190
-136,-68,68,102,-102,0,224,292,805,653,112,-175
-117,-68,48,92,-82,-9,170,224,702,570,102,-165
-92,-63,29,78,-61,-17,136,190,605,492,82,-141
-73,-58,14,65,-43,-21,107,161,507,424,68,-117
-53,-43,9,48,-31,-17,82,126,414,331,63,-92
-29,-34,-4,31,-12,-19,53,87,317,239,58,-68
-4,-19,-14,12,4,-17,34,68,263,195,43,-48
4,-9,-14,2,9,-12,4,34,185,131,19,-34
19,4,-14,-12,17,-4,-19,4,117,68,14,-9
29,19,-9,-24,19,4,-43,-29,53,14,0,4
24,9,-14,-17,19,-2,-48,-39,14,-24,-9,0
34,19,-14,-26,24,2,-53,-43,-9,-43,-9,14
34,14,-19,-24,26,-2,-63,-43,-43,-68,-14,14
34,14,-19,-24,26,-2,-78,-58,-78,-97,-24,19
43,14,-29,-29,36,-7,-78,-63,-82,-102,-24,24
48,19,-29,-34,39,-4,-73,-68,-92,-112,-24,34
48,24,-24,-36,36,0,-78,-73,-102,-122,-29,34
48,29,-19,-39,34,4,-82,-73,-112,-131,-39,29
48,24,-24,-36,36,0,-82,-73,-117,-136,-39,29
48,24,-24,-36,36,0,-78,-73,-117,-141,-39,29
53,24,-29,-39,41,-2,-78,-73,-126,-146,-43,29
58,24,-34,-41,46,-4,-78,-73,-136,-151,-43,29
58,24,-34,-41,46,-4,-78,-68,-131,-156,-43,29
58,24,-34,-41,46,-4,-78,-68,-131,-161,-43,29
58,24,-34,-41,46,-4,-73,-73,-131,-165,-43,29
58,24,-34,-41,46,-4,-73,-78,-131,-170,-43,29
58,24,-34,-41,46,-4,-68,-73,-146,-170,-48,29
58,24,-34,-41,46,-4,-68,-73,-146,-161,-48,29
73,34,-39,-53,56,-2,-87,-82,-136,-131,-14,53
78,34,-43,-56,61,-4,-78,-68,-82,-107,4,58
43,24,-19,-34,31,2,-24,-9,14,-73,-9,24
29,24,-4,-26,17,9,24,48,107,-19,-4,4
-9,53,63,-21,-36,58,43,48,112,63,63,39
53,209,156,-131,-51,183,-34,19,175,370,361,234
214,502,287,-358,-36,395,-175,48,595,1044,980,595
375,795,419,-585,-21,607,-356,-58,644,1478,1464,941
561,1049,488,-805,36,768,-512,-131,341,1566,1708,1220
746,1385,639,-1066,53,1012,-771,-322,-122,1634,1981,1507
932,1844,912,-1388,9,1378,-1171,-766,-854,1332,2122,1820
878,1995,1117,-1437,-119,1556,-1385,-1254,-1639,839,2005,1952
658,1922,1263,-1290,-302,1593,-1395,-1708,-2557,-473,1317,1805
312,1444,1132,-878,-409,1288,-1019,-1493,-3045,-1834,278,1293
-53,463,517,-204,-285,490,-263,-668,-2230,-1844,-507,522
-180,-307,-126,244,-26,-217,302,131,-1381,-1415,-775,-107
-156,-551,-395,353,119,-473,556,610,-629,-775,-570,-312
-87,-546,-458,317,185,-502,556,683,-175,-317,-375,-341
-58,-385,-326,222,134,-356,409,497,-53,-146,-214,-229
-24,-248,-224,136,100,-236,258,297,-19,-63,-131,-146
9,-141,-151,65,80,-146,161,209,43,-14,-68,-82
9,-102,-112,46,61,-107,97,131,68,-9,-63,-63
4,-102,-107,48,56,-104,78,92,53,-14,-63,-68
0,-92,-92,46,46,-92,58,68,34,-19,-68,-73
0,-82,-82,41,41,-82,43,58,29,-43,-78,-73
-4,-82,-78,43,36,-80,48,48,29,-53,-87,-73
-4,-87,-82,46,39,-85,43,39,34,-53,-87,-78
-4,-92,-87,48,41,-90,43,29,34,-53,-87,-78
-4,-97,-92,51,43,-95,43,24,34,-58,-92,-82
-9,-102,-92,56,41,-97,34,19,24,-63,-107,-82
-9,-102,-92,56,41,-97,34,14,19,-68,-107,-87
-9,-97,-87,53,39,-92,39,14,24,-73,-102,-92
-14,-102,-87,58,36,-95,39,14,24,-73,-102,-92
-29,-107,-78,68,24,-92,39,14,24,-73,-112,-92
-29,-107,-78,68,24,-92,39,14,24,-73,-117,-102
-29,-112,-82,70,26,-97,39,9,24,-92,-126,-107
-29,-117,-87,73,29,-102,39,4,19,-107,-131,-107
-29,-117,-87,73,29,-102,39,14,19,-112,-136,-107
-34,-117,-82,75,24,-100,43,14,14,-112,-136,-117
-34,-122,-87,78,26,-104,48,14,19,-112,-141,-122
-39,-122,-82,80,21,-102,53,14,19,-112,-146,-122
-43,-122,-78,82,17,-100,58,19,24,-112,-151,-131
-48,-122,-73,85,12,-97,58,19,29,-107,-156,-136
-48,-122,-73,85,12,-97,63,24,34,-102,-156,-141
-48,-131,-82,90,17,-107,68,34,34,-112,-165,-146
-53,-136,-82,95,14,-109,73,34,39,-112,-170,-151
-63,-141,-78,102,7,-109,73,39,48,-112,-170,-146
-68,-141,-73,104,2,-107,73,39,58,-112,-180,-146
-68,-141,-73,104,2,-107,78,43,63,-102,-175,-161
-73,-146,-73,109,0,-109,78,43,73,-92,-175,-165
-68,-151,-82,109,7,-117,82,53,78,-87,-175,-165
-63,-151,-87,107,12,-119,87,53,87,-82,-175,-170
-68,-161,-92,114,12,-126,97,63,92,-82,-180,-180
-73,-165,-92,119,9,-129,97,68,102,-82,-185,-190
-78,-170,-92,124,7,-131,102,73,117,-73,-185,-190
-82,-170,-87,126,2,-129,107,82,131,-68,-195,-190
-82,-175,-92,129,4,-134,117,92,136,-63,-195,-200
-92,-190,-97,141,2,-143,122,97,141,-63,-200,-209
-97,-195,-97,146,0,-146,131,102,161,-43,-200,-209
-97,-200,-102,148,2,-151,136,112,180,-34,-204,-219
-97,-204,-107,151,4,-156,146,122,195,-19,-204,-234
-102,-214,-112,158,4,-163,156,126,209,-4,-204,-244
-107,-214,-107,161,0,-161,165,141,229,9,-209,-253
-122,-224,-102,173,-9,-163,170,151,244,24,-219,-263
-126,-229,-102,178,-12,-165,180,175,283,48,-214,-268
-131,-239,-107,185,-12,-173,190,195,312,73,-204,-273
-141,-244,-102,192,-19,-173,209,214,341,102,-200,-283
-146,-248,-102,197,-21,-175,224,234,375,136,-200,-292
-141,-248,-107,195,-17,-178,234,253,419,175,-185,-297
-141,-248,-107,195,-17,-178,248,263,468,214,-165,-297
-136,-244,-107,190,-14,-175,258,283,492,258,-156,-292
-141,-244,-102,192,-19,-173,263,307,527,302,-131,-287
-146,-244,-97,195,-24,-170,268,322,570,356,-107,-283
-146,-239,-92,192,-26,-165,273,336,619,409,-73,-278
-141,-234,-92,187,-24,-163,273,346,644,453,-48,-263
-136,-224,-87,180,-24,-156,278,356,673,497,-19,-244
-131,-209,-78,170,-26,-143,263,351,702,551,14,-229
-122,-200,-78,161,-21,-139,248,341,692,575,43,-204
-112,-185,-73,148,-19,-129,224,317,688,575,68,-185
-92,-165,-73,129,-9,-119,204,302,653,570,97,-156
-73,-146,-73,109,0,-109,180,273,595,541,117,-136
-63,-122,-58,92,-2,-90,151,248,531,497,126,-122
-58,-102,-43,80,-7,-73,136,204,488,448,126,-92
-48,-82,-34,65,-7,-58,107,170,429,390,117,-63
-39,-63,-24,51,-7,-43,87,117,341,331,97,-43
-24,-43,-19,34,-2,-31,63,87,273,268,82,-29
-9,-24,-14,17,2,-19,39,92,209,209,73,-19
0,-9,-9,4,4,-9,9,48,151,151,63,0
14,4,-9,-9,12,-2,-4,14,87,117,53,0
19,14,-4,-17,12,4,-24,0,48,63,39,9
19,19,0,-19,9,9,-34,-24,39,19,34,24
19,34,14,-26,2,24,-43,-39,4,0,24,34
29,43,14,-36,7,29,-48,-43,-19,-14,19,39
39,48,9,-43,14,29,-48,-53,-43,-39,14,34
39,53,14,-46,12,34,-58,-58,-53,-53,9,43
29,48,19,-39,4,34,-58,-63,-53,-58,9,48
34,48,14,-41,9,31,-63,-68,-68,-68,14,53
34,43,9,-39,12,26,-63,-78,-73,-78,9,53
34,48,14,-41,9,31,-63,-78,-87,-78,4,48
34,53,19,-43,7,36,-58,-78,-87,-68,4,43
34,53,19,-43,7,36,-73,-73,-92,-82,0,53
34,53,19,-43,7,36,-73,-68,-92,-78,9,53
34,53,19,-43,7,36,-73,-73,-87,-73,9,58
34,43,9,-39,12,26,-68,-78,-78,-68,9,58
39,43,4,-41,17,24,-68,-73,-78,-63,14,58
39,43,4,-41,17,24,-68,-68,-78,-58,19,58
34,43,9,-39,12,26,-68,-68,-78,-53,14,53
29,43,14,-36,7,29,-68,-68,-73,-48,14,53
24,43,19,-34,2,31,-68,-68,-68,-48,19,53
24,48,24,-36,0,36,-68,-63,-68,-48,24,53
29,48,19,-39,4,34,-63,-68,-63,-43,19,53
34,48,14,-41,9,31,-63,-73,-63,-39,19,53
29,48,19,-39,4,34,-63,-73,-68,-39,19,43
29,48,19,-39,4,34,-63,-73,-68,-39,19,39
29,43,14,-36,7,29,-63,-73,-68,-43,19,39
29,43,14,-36,7,29,-63,-68,-63,-43,19,34
29,43,14,-36,7,29,-63,-68,-63,-39,19,34
29,43,14,-36,7,29,-63,-68,-63,-39,19,34
34,43,9,-39,12,26,-63,-68,-68,-39,19,34
34,43,9,-39,12,26,-58,-73,-73,-43,19,34
29,39,9,-34,9,24,-58,-73,-78,-43,9,34
29,29,0,-29,14,14,-58,-73,-78,-43,4,29
29,29,0,-29,14,14,-58,-73,-73,-48,4,29
24,29,4,-26,9,17,-53,-73,-73,-48,0,29
19,24,4,-21,7,14,-53,-73,-78,-53,0,29
14,24,9,-19,2,17,-53,-73,-82,-58,-4,29
14,24,9,-19,2,17,-53,-73,-82,-58,-4,24
14,24,9,-19,2,17,-53,-73,-82,-63,-4,24
19,29,9,-24,4,19,-53,-78,-87,-63,-4,24
24,34,9,-29,7,21,-53,-82,-92,-63,-4,24
24,34,9,-29,7,21,-53,-82,-97,-73,-9,24
19,29,9,-24,4,19,-53,-82,-97,-82,-14,19
19,29,9,-24,4,19,-53,-82,-97,-82,-14,19
19,29,9,-24,4,19,-53,-87,-97,-82,-14,19
19,24,4,-21,7,14,-53,-87,-97,-82,-19,19
14,19,4,-17,4,12,-53,-87,-102,-87,-24,19
14,19,4,-17,4,12,-53,-87,-102,-87,-24,19
14,19,4,-17,4,12,-53,-87,-102,-92,-24,19
14,14,0,-14,7,7,-58,-87,-107,-97,-24,19
14,14,0,-14,7,7,-63,-87,-107,-102,-24,14
14,14,0,-14,7,7,-63,-87,-107,-107,-29,14
14,14,0,-14,7,7,-68,-92,-117,-107,-29,14
19,19,0,-19,9,9,-68,-92,-117,-107,-29,14
24,24,0,-24,12,12,-68,-92,-112,-117,-29,14
24,24,0,-24,12,12,-58,-97,-112,-122,-29,14
24,24,0,-24,12,12,-53,-97,-117,-122,-34,14
19,24,4,-21,7,14,-58,-97,-122,-122,-39,14
14,24,9,-19,2,17,-58,-97,-126,-122,-43,14
14,24,9,-19,2,17,-58,-97,-126,-122,-43,14
14,24,9,-19,2,17,-58,-97,-131,-122,-43,14
19,24,4,-21,7,14,-58,-97,-131,-122,-39,14
19,24,4,-21,7,14,-58,-97,-131,-122,-39,14
19,24,4,-21,7,14,-58,-97,-131,-122,-39,14
19,24,4,-21,7,14,-63,-97,-131,-122,-39,14
14,19,4,-17,4,12,-63,-97,-131,-122,-43,14
9,19,9,-14,0,14,-63,-102,-136,-126,-48,14
4,19,14,-12,-4,17,-63,-102,-136,-126,-48,14
4,19,14,-12,-4,17,-63,-97,-136,-131,-48,14
9,14,4,-12,2,9,-63,-97,-136,-131,-48,14
9,14,4,-12,2,9,-63,-97,-136,-122,-48,19
9,14,4,-12,2,9,-68,-97,-141,-131,-48,19
9,9,0,-9,4,4,-68,-102,-141,-136,-48,14
9,14,4,-12,2,9,-68,-102,-136,-136,-48,9
9,14,4,-12,2,9,-73,-102,-131,-136,-48,9
9,9,0,-9,4,4,-73,-102,-136,-136,-53,9
9,9,0,-9,4,4,-73,-102,-141,-136,-58,9
14,9,-4,-12,9,2,-68,-102,-141,-136,-58,9
14,9,-4,-12,9,2,-63,-102,-141,-136,-58,9
14,9,-4,-12,9,2,-63,-112,-136,-136,-58,14
14,14,0,-14,7,7,-63,-117,-136,-136,-58,14
9,14,4,-12,2,9,-58,-117,-136,-136,-58,14
9,14,4,-12,2,9,-58,-112,-136,-141,-58,14
9,14,4,-12,2,9,-63,-107,-141,-146,-58,9
9,9,0,-9,4,4,-63,-107,-146,-146,-63,4
9,9,0,-9,4,4,-63,-107,-146,-146,-63,4
9,9,0,-9,4,4,-63,-107,-146,-146,-58,4
14,9,-4,-12,9,2,-63,-107,-141,-146,-58,4
14,9,-4,-12,9,2,-63,-107,-141,-146,-58,4
4,14,9,-9,-2,12,-68,-112,-136,-146,-63,4
0,14,14,-7,-7,14,-73,-112,-146,-146,-68,4
-4,4,9,0,-7,7,-68,-107,-146,-156,-58,4
-4,0,4,2,-4,2,-68,-107,-151,-156,-63,4
-4,0,4,2,-4,2,-68,-107,-151,-156,-63,4
