I, II, III, aVR, aVL, aVF, V1, V2, V3, V4, V5, V6
-9,-39,-29,24,9,-34,-29,-48,-29,-19,-19,-19
-9,-34,-24,21,7,-29,-14,-48,-29,-19,-19,-14
-9,-29,-19,19,4,-24,0,-48,-29,-19,-19,-9
0,-24,-24,12,12,-24,0,-43,-24,-19,-14,-9
9,-19,-29,4,19,-24,0,-39,-19,-19,-9,-9
9,-9,-19,0,14,-14,-9,-24,-9,-4,-4,0
4,-9,-14,2,9,-12,-14,-14,-4,4,0,4
4,-9,-14,2,9,-12,-19,-9,0,14,0,9
9,-14,-24,2,17,-19,-24,-4,0,14,0,9
29,-9,-39,-9,34,-24,-19,0,9,14,19,19
34,14,-19,-24,26,-2,-14,9,19,19,29,34
48,29,-19,-39,34,4,-14,9,34,29,34,43
58,48,-9,-53,34,19,-24,0,34,34,43,48
68,53,-14,-61,41,19,-39,-14,19,34,43,48
87,53,-34,-70,61,9,-58,-24,9,34,43,53
92,48,-43,-70,68,2,-68,-24,14,34,43,53
97,39,-58,-68,78,-9,-68,-34,14,29,34,39
92,24,-68,-58,80,-21,-68,-43,-4,19,24,29
92,14,-78,-53,85,-31,-78,-43,-4,9,14,29
87,0,-87,-43,87,-43,-87,-63,-24,0,9,24
82,-14,-97,-34,90,-56,-92,-92,-43,-4,9,24
87,-14,-102,-36,95,-58,-97,-92,-43,-4,9,24
87,-9,-97,-39,92,-53,-102,-92,-43,-9,4,24
87,-9,-97,-39,92,-53,-102,-97,-43,-9,0,19
78,-24,-102,-26,90,-63,-102,-102,-43,-14,-4,14
63,-24,-87,-19,75,-56,-97,-107,-53,-29,-14,0
24,-29,-53,2,39,-41,-87,-107,-63,-48,-29,-9
-19,-63,-43,41,12,-53,-73,-107,-68,-48,-39,-24
-29,-73,-43,51,7,-58,-73,-102,-73,-53,-48,-34
-39,-78,-39,58,0,-58,-73,-102,-73,-58,-48,-34
-48,-87,-39,68,-4,-63,-73,-112,-78,-73,-48,-39
-48,-87,-39,68,-4,-63,-68,-117,-82,-73,-48,-39
-58,-92,-34,75,-12,-63,-68,-117,-82,-73,-53,-43
-53,-92,-39,73,-7,-65,-58,-107,-82,-68,-53,-39
-48,-87,-39,68,-4,-63,-53,-97,-87,-68,-48,-39
-48,-87,-39,68,-4,-63,-53,-107,-87,-68,-48,-39
-48,-92,-43,70,-2,-68,-53,-112,-87,-68,-48,-39
-48,-97,-48,73,0,-73,-58,-112,-82,-63,-48,-39
-53,-107,-53,80,0,-80,-63,-112,-78,-58,-48,-39
-53,-107,-53,80,0,-80,-73,-102,-78,-58,-48,-43
-53,-102,-48,78,-2,-75,-78,-87,-78,-58,-48,-43
-53,-102,-48,78,-2,-75,-73,-102,-82,-63,-48,-48
-53,-102,-48,78,-2,-75,-73,-112,-87,-68,-48,-53
-48,-92,-43,70,-2,-68,-73,-126,-92,-73,-53,-53
-58,-97,-39,78,-9,-68,-53,-126,-97,-82,-68,-63
-97,-122,-24,109,-36,-73,0,-97,-107,-102,-92,-87
-136,-141,-4,139,-65,-73,92,-9,-78,-107,-102,-102
-175,-175,0,175,-87,-87,175,78,-34,-97,-117,-131
-175,-185,-9,180,-82,-97,234,175,82,-4,-58,-97
-141,-92,48,117,-95,-21,302,341,331,219,126,48
-53,34,87,9,-70,61,366,546,605,468,336,214
117,180,63,-148,26,122,385,707,868,707,551,385
326,395,68,-361,129,231,239,668,1044,936,775,595
497,610,112,-553,192,361,29,512,1146,1132,990,795
605,829,224,-717,190,527,-336,126,1078,1234,1137,971
688,1166,478,-927,104,822,-1005,-780,761,1239,1268,1171
639,1346,707,-993,-34,1027,-1527,-1673,273,1083,1249,1234
561,1151,590,-856,-14,871,-1761,-2132,-219,766,1054,1151
390,707,317,-549,36,512,-1820,-2386,-1015,-9,400,668
122,346,224,-234,-51,285,-1444,-2152,-1468,-692,-268,92
29,253,224,-141,-97,239,-1093,-1693,-1322,-722,-366,-39
19,224,204,-122,-92,214,-756,-1171,-946,-527,-253,-29
19,204,185,-112,-82,195,-566,-849,-702,-409,-204,-29
9,112,102,-61,-46,107,-478,-683,-566,-361,-204,-58
-48,4,53,21,-51,29,-322,-497,-453,-307,-214,-107
-102,-92,9,97,-56,-41,-161,-322,-361,-273,-204,-146
-136,-112,24,124,-80,-43,-39,-190,-258,-219,-180,-151
-107,-102,4,104,-56,-48,-4,-92,-136,-141,-131,-112
-102,-97,4,100,-53,-46,14,-39,-78,-102,-107,-92
-82,-87,-4,85,-39,-46,53,0,-58,-78,-87,-82
-73,-78,-4,75,-34,-41,78,39,-39,-63,-78,-73
-78,-87,-9,82,-34,-48,78,58,-14,-68,-78,-73
-78,-97,-19,87,-29,-58,78,58,-14,-78,-78,-82
-87,-107,-19,97,-34,-63,87,63,-19,-73,-78,-87
-97,-112,-14,104,-41,-63,97,68,-19,-73,-78,-92
-92,-117,-24,104,-34,-70,107,78,-9,-73,-78,-82
-92,-122,-29,107,-31,-75,107,78,-4,-68,-73,-82
-87,-122,-34,104,-26,-78,112,78,-4,-63,-73,-87
-78,-122,-43,100,-17,-82,112,92,0,-63,-73,-87
-78,-117,-39,97,-19,-78,122,107,4,-58,-73,-82
-82,-112,-29,97,-26,-70,122,122,14,-53,-73,-78
-87,-117,-29,102,-29,-73,117,122,14,-53,-73,-78
-92,-117,-24,104,-34,-70,117,122,14,-53,-73,-82
-92,-117,-24,104,-34,-70,122,131,9,-53,-82,-87
-92,-112,-19,102,-36,-65,131,136,14,-53,-87,-92
-82,-112,-29,97,-26,-70,136,131,19,-58,-82,-92
-78,-112,-34,95,-21,-73,141,131,24,-58,-82,-92
-78,-107,-29,92,-24,-68,146,141,24,-58,-82,-92
-82,-107,-24,95,-29,-65,156,156,34,-53,-82,-92
-82,-107,-24,95,-29,-65,165,165,39,-53,-82,-92
-82,-107,-24,95,-29,-65,175,165,39,-53,-82,-92
-87,-102,-14,95,-36,-58,180,185,48,-48,-82,-92
-87,-102,-14,95,-36,-58,185,214,58,-39,-82,-92
-87,-102,-14,95,-36,-58,185,219,63,-39,-82,-92
-87,-102,-14,95,-36,-58,190,229,68,-39,-82,-92
-92,-102,-9,97,-41,-56,204,244,68,-43,-78,-97
-97,-97,0,97,-48,-48,214,258,68,-48,-78,-102
-107,-97,9,102,-58,-43,224,268,78,-43,-78,-102
-107,-97,9,102,-58,-43,234,287,82,-43,-78,-102
-107,-92,14,100,-61,-39,239,307,92,-43,-87,-107
-102,-92,9,97,-56,-41,253,322,97,-43,-92,-107
-102,-92,9,97,-56,-41,268,331,97,-48,-92,-117
-102,-87,14,95,-58,-36,287,331,92,-58,-97,-126
-107,-87,19,97,-63,-34,302,346,92,-63,-102,-131
-107,-82,24,95,-65,-29,317,370,97,-63,-112,-141
-117,-82,34,100,-75,-24,331,395,97,-78,-117,-141
-126,-87,39,107,-82,-24,341,419,92,-78,-122,-151
-131,-97,34,114,-82,-31,346,434,97,-87,-131,-156
-131,-102,29,117,-80,-36,356,444,102,-92,-141,-161
-126,-102,24,114,-75,-39,366,458,87,-97,-151,-165
-126,-97,29,112,-78,-34,370,468,82,-107,-156,-170
-126,-97,29,112,-78,-34,375,478,78,-117,-165,-185
-126,-97,29,112,-78,-34,380,483,73,-126,-170,-185
-122,-92,29,107,-75,-31,380,492,68,-131,-180,-185
-117,-87,29,102,-73,-29,380,502,58,-131,-180,-185
-107,-87,19,97,-63,-34,380,502,58,-136,-180,-185
-97,-82,14,90,-56,-34,375,502,58,-141,-185,-185
-87,-78,9,82,-48,-34,370,497,58,-141,-185,-185
-73,-58,14,65,-43,-21,361,483,58,-136,-175,-175
-58,-48,9,53,-34,-19,346,463,58,-126,-165,-161
-34,-34,0,34,-17,-17,317,439,63,-107,-141,-136
-14,-14,0,14,-7,-7,283,409,63,-92,-126,-122
4,-9,-14,2,9,-12,248,375,68,-78,-97,-102
19,9,-9,-14,14,0,214,351,78,-58,-82,-82
39,14,-24,-26,31,-4,175,322,87,-29,-63,-53
48,19,-29,-34,39,-4,141,283,87,-9,-39,-34
58,34,-24,-46,41,4,97,239,87,9,-19,-14
68,43,-24,-56,46,9,63,200,87,19,4,9
73,43,-29,-58,51,7,43,156,78,29,14,19
73,39,-34,-56,53,2,9,112,68,34,24,24
68,29,-39,-48,53,-4,-9,82,63,34,24,29
63,29,-34,-46,48,-2,-34,53,48,39,24,34
58,24,-34,-41,46,-4,-48,34,39,39,29,34
58,14,-43,-36,51,-14,-63,19,34,39,29,34
48,9,-39,-29,43,-14,-63,0,24,39,19,29
39,0,-39,-19,39,-19,-68,-14,19,34,24,29
29,-4,-34,-12,31,-19,-73,-24,9,24,24,24
29,-9,-39,-9,34,-24,-73,-29,0,19,24,24
19,-14,-34,-2,26,-24,-82,-43,0,19,24,19
19,-9,-29,-4,24,-19,-68,-48,-4,14,14,14
24,-14,-39,-4,31,-26,-53,-53,-9,9,14,14
24,-14,-39,-4,31,-26,-53,-63,-14,4,9,9
19,-14,-34,-2,26,-24,-48,-68,-14,4,9,9
19,-14,-34,-2,26,-24,-48,-68,-19,0,4,9
14,-14,-29,0,21,-21,-48,-68,-24,-4,0,9
14,-19,-34,2,24,-26,-48,-73,-29,-4,0,4
14,-19,-34,2,24,-26,-48,-78,-29,-4,0,4
9,-24,-34,7,21,-29,-53,-78,-29,-4,0,4
0,-29,-29,14,14,-29,-53,-82,-29,-4,0,4
0,-29,-29,14,14,-29,-63,-68,-24,9,9,9
0,-29,-29,14,14,-29,-73,-48,-19,19,14,14
0,-29,-29,14,14,-29,-73,-48,-19,9,14,14
-4,-24,-19,14,7,-21,-73,-48,-14,4,14,14
-9,-29,-19,19,4,-24,-73,-58,-24,0,9,4
-14,-34,-19,24,2,-26,-73,-68,-34,-4,0,-4
-14,-34,-19,24,2,-26,-63,-73,-34,-4,0,-4
-14,-34,-19,24,2,-26,-58,-78,-34,-4,0,-4
-19,-39,-19,29,0,-29,-53,-73,-29,0,0,0
-19,-43,-24,31,2,-34,-53,-68,-24,4,-4,0
-4,-39,-34,21,14,-36,-53,-53,-19,0,0,4
0,-34,-34,17,17,-34,-53,-39,-19,0,4,4
0,-34,-34,17,17,-34,-43,-39,-19,0,4,4
0,-34,-34,17,17,-34,-39,-39,-19,0,0,4
-14,-34,-19,24,2,-26,-39,-53,-24,-14,-4,0
-39,-39,0,39,-19,-19,-34,-68,-29,-24,-14,-4
-29,-39,-9,34,-9,-24,-24,-68,-29,-29,-14,-9
-14,-39,-24,26,4,-31,-19,-68,-29,-29,-19,-14
-4,-34,-29,19,12,-31,-14,-58,-29,-24,-19,-14
4,-24,-29,9,17,-26,-14,-58,-29,-19,-19,-14
-19,-34,-14,26,-2,-24,-19,-58,-29,-19,-19,-19
-34,-53,-19,43,-7,-36,-19,-58,-29,-29,-19,-19
-34,-58,-24,46,-4,-41,-24,-53,-39,-34,-24,-24
-34,-58,-24,46,-4,-41,-29,-48,-39,-34,-24,-24
-34,-58,-24,46,-4,-41,-29,-39,-39,-34,-24,-29
-34,-58,-24,46,-4,-41,-29,-29,-39,-34,-24,-29
-34,-63,-29,48,-2,-46,-29,-34,-39,-34,-24,-29
-34,-68,-34,51,0,-51,-29,-43,-34,-34,-24,-29
-29,-58,-29,43,0,-43,-24,-39,-29,-29,-19,-19
-24,-48,-24,36,0,-36,-24,-39,-24,-24,-14,-14
-9,-39,-29,24,9,-34,-14,-19,-4,-9,-4,-4
0,-29,-29,14,14,-29,-9,0,9,0,0,0
14,-19,-34,2,24,-26,-4,0,9,0,0,0
29,-9,-39,-9,34,-24,0,0,9,0,0,0
19,-19,-39,0,29,-29,4,0,4,0,-4,0
19,-14,-34,-2,26,-24,4,-4,0,0,-9,-4
19,-14,-34,-2,26,-24,4,-14,-4,-4,-19,-9
39,-9,-48,-14,43,-29,4,-29,0,-4,-9,-9
43,14,-29,-29,36,-7,4,0,9,19,14,14
58,29,-29,-43,43,0,4,19,24,39,34,34
68,53,-14,-61,41,19,-4,9,24,43,43,39
73,58,-14,-65,43,21,-19,0,19,43,43,39
92,53,-39,-73,65,7,-43,-9,19,43,39,43
97,43,-53,-70,75,-4,-58,-14,14,39,34,43
97,29,-68,-63,82,-19,-58,-24,9,29,24,29
92,14,-78,-53,85,-31,-58,-34,-4,19,14,19
87,4,-82,-46,85,-39,-68,-34,0,9,4,19
82,-4,-87,-39,85,-46,-78,-43,-9,0,0,14
82,-14,-97,-34,90,-56,-87,-63,-24,-4,0,14
87,-14,-102,-36,95,-58,-97,-63,-24,-4,0,14
97,-9,-107,-43,102,-58,-102,-58,-24,-9,0,19
107,-9,-117,-48,112,-63,-102,-63,-29,-9,0,19
97,-24,-122,-36,109,-73,-102,-73,-34,-14,-4,14
78,-34,-112,-21,95,-73,-97,-78,-43,-24,-14,0
34,-48,-82,7,58,-65,-87,-87,-63,-43,-34,-14
-9,-73,-63,41,26,-68,-73,-97,-73,-48,-43,-29
-24,-73,-48,48,12,-61,-73,-92,-73,-53,-48,-34
-29,-73,-43,51,7,-58,-73,-92,-73,-53,-48,-34
-29,-78,-48,53,9,-63,-73,-117,-82,-63,-48,-39
-29,-78,-48,53,9,-63,-68,-136,-92,-63,-48,-39
-39,-82,-43,61,2,-63,-63,-126,-92,-63,-53,-43
-43,-87,-43,65,0,-65,-53,-117,-92,-63,-58,-43
-48,-87,-39,68,-4,-63,-53,-107,-87,-63,-53,-43
-48,-87,-39,68,-4,-63,-53,-97,-78,-58,-48,-39
-39,-92,-53,65,7,-73,-58,-92,-78,-58,-48,-39
-29,-92,-63,61,17,-78,-63,-92,-78,-58,-48,-39
-43,-97,-53,70,4,-75,-63,-102,-82,-63,-53,-43
-53,-97,-43,75,-4,-70,-63,-117,-87,-68,-58,-53
-53,-92,-39,73,-7,-65,-48,-117,-87,-68,-58,-53
-53,-92,-39,73,-7,-65,-34,-117,-87,-68,-58,-53
-53,-92,-39,73,-7,-65,-43,-112,-87,-68,-53,-48
-58,-97,-39,78,-9,-68,-53,-112,-87,-73,-53,-43
-68,-117,-48,92,-9,-82,-58,-107,-92,-82,-68,-53
-97,-141,-43,119,-26,-92,-19,-73,-87,-82,-82,-78
-151,-165,-14,158,-68,-90,92,9,-68,-92,-102,-112
-175,-170,4,173,-90,-82,185,107,-4,-63,-92,-122
-156,-161,-4,158,-75,-82,244,219,141,53,-9,-63
-97,-63,34,80,-65,-14,292,351,370,258,165,78
4,68,63,-36,-29,65,380,585,663,507,385,253
156,214,58,-185,48,136,385,707,897,732,590,424
380,434,53,-407,163,244,209,658,1078,980,819,634
551,639,87,-595,231,363,-48,453,1132,1137,1000,810
673,888,214,-780,229,551,-492,-9,1024,1215,1137,990
741,1156,414,-949,163,785,-1078,-795,727,1185,1224,1146
673,1317,644,-995,14,980,-1590,-1712,234,1044,1224,1229
585,1156,570,-871,7,863,-1790,-2142,-219,751,1039,1141
366,619,253,-492,56,436,-1776,-2371,-1180,-239,175,483
122,287,165,-204,-21,226,-1424,-2156,-1590,-829,-405,-19
48,273,224,-161,-87,248,-1044,-1586,-1220,-624,-297,0
19,224,204,-122,-92,214,-722,-1098,-883,-468,-219,0
39,195,156,-117,-58,175,-566,-824,-683,-390,-204,-9
39,126,87,-82,-24,107,-463,-644,-536,-341,-195,-39
-43,9,53,17,-48,31,-283,-453,-424,-287,-200,-102
-102,-92,9,97,-56,-41,-141,-287,-331,-253,-195,-141
-126,-92,34,109,-80,-29,-34,-165,-224,-200,-170,-136
-97,-92,4,95,-51,-43,14,-82,-131,-136,-126,-112
-92,-97,-4,95,-43,-51,34,-48,-97,-107,-107,-102
-82,-97,-14,90,-34,-56,63,-19,-73,-87,-92,-97
-87,-97,-9,92,-39,-53,78,24,-53,-78,-82,-82
-97,-107,-9,102,-43,-58,78,58,-24,-68,-78,-73
-97,-117,-19,107,-39,-68,73,58,-24,-68,-78,-82
-97,-117,-19,107,-39,-68,73,68,-24,-63,-78,-82
-97,-112,-14,104,-41,-63,78,68,-24,-68,-78,-82
-92,-112,-19,102,-36,-65,87,68,-19,-73,-78,-73
-92,-112,-19,102,-36,-65,87,78,-14,-68,-73,-73
-92,-112,-19,102,-36,-65,92,87,-14,-63,-73,-78
-82,-112,-29,97,-26,-70,92,117,0,-58,-73,-78
-78,-112,-34,95,-21,-73,102,136,9,-53,-73,-78
-82,-102,-19,92,-31,-61,117,141,24,-48,-73,-78
-82,-97,-14,90,-34,-56,131,141,34,-43,-73,-78
-87,-107,-19,97,-34,-63,126,126,19,-43,-73,-82
-92,-117,-24,104,-34,-70,122,126,4,-43,-78,-82
-92,-112,-19,102,-36,-65,131,136,14,-43,-78,-82
-87,-112,-24,100,-31,-68,136,141,19,-43,-73,-82
-87,-112,-24,100,-31,-68,146,146,19,-53,-82,-87
-87,-107,-19,97,-34,-63,156,151,14,-68,-92,-92
-92,-107,-14,100,-39,-61,165,165,24,-53,-82,-92
-92,-107,-14,100,-39,-61,170,175,29,-43,-73,-92
-92,-107,-14,100,-39,-61,170,180,34,-43,-73,-92
-97,-102,-4,100,-46,-53,170,195,43,-43,-73,-92
-107,-102,4,104,-56,-48,175,214,48,-39,-73,-92
-117,-102,14,109,-65,-43,180,219,53,-39,-73,-92
-107,-97,9,102,-58,-43,195,229,58,-39,-73,-92
-97,-92,4,95,-51,-43,214,244,63,-39,-73,-97
-97,-87,9,92,-53,-39,224,258,68,-39,-78,-102
-107,-87,19,97,-63,-34,234,273,78,-34,-78,-102
-107,-87,19,97,-63,-34,244,297,82,-34,-78,-97
-112,-82,29,97,-70,-26,248,317,92,-34,-82,-97
-112,-82,29,97,-70,-26,263,336,102,-29,-78,-97
-112,-82,29,97,-70,-26,278,361,112,-24,-73,-102
-112,-78,34,95,-73,-21,297,370,112,-29,-78,-107
-117,-78,39,97,-78,-19,312,385,112,-34,-82,-112
-117,-78,39,97,-78,-19,322,409,112,-39,-92,-122
-126,-82,43,104,-85,-19,331,424,107,-58,-97,-122
-136,-87,48,112,-92,-19,341,429,102,-58,-107,-136
-141,-92,48,117,-95,-21,351,434,102,-68,-122,-146
-141,-92,48,117,-95,-21,370,444,102,-73,-131,-151
-136,-92,43,114,-90,-24,390,458,87,-82,-141,-161
-136,-87,48,112,-92,-19,400,468,82,-97,-146,-170
-136,-87,48,112,-92,-19,405,478,78,-107,-156,-185
-136,-92,43,114,-90,-24,409,483,73,-117,-161,-185
-131,-97,34,114,-82,-31,409,492,73,-122,-170,-185
-136,-97,39,117,-87,-29,405,502,68,-126,-170,-185
-136,-97,39,117,-87,-29,395,502,68,-136,-170,-185
-126,-92,34,109,-80,-29,380,502,68,-141,-175,-185
-122,-92,29,107,-75,-31,366,497,63,-141,-175,-185
-102,-78,24,90,-63,-26,351,483,58,-136,-165,-175
-78,-68,9,73,-43,-29,331,463,58,-126,-156,-161
-53,-48,4,51,-29,-21,297,439,63,-107,-131,-136
-34,-24,9,29,-21,-7,263,409,63,-92,-117,-122
-4,-14,-9,9,2,-12,229,380,73,-78,-87,-102
24,9,-14,-17,19,-2,195,351,82,-63,-73,-82
48,14,-34,-31,41,-9,170,312,87,-39,-53,-53
58,19,-39,-39,48,-9,151,273,87,-19,-29,-34
58,29,-29,-43,43,0,107,229,82,4,-9,-14
58,34,-24,-46,41,4,73,190,78,19,9,4
53,29,-24,-41,39,2,48,146,68,29,14,9
43,19,-24,-31,34,-2,14,102,58,34,24,14
48,9,-39,-29,43,-14,0,73,53,29,24,19
53,9,-43,-31,48,-17,-19,43,39,29,29,24
48,4,-43,-26,46,-19,-29,24,34,29,39,24
48,0,-48,-24,48,-24,-43,9,34,29,39,29
39,0,-39,-19,39,-19,-48,-4,24,29,24,29
34,-9,-43,-12,39,-26,-53,-14,19,24,19,29
29,-9,-39,-9,34,-24,-53,-24,9,14,14,24
29,-9,-39,-9,34,-24,-53,-29,0,9,14,24
24,-9,-34,-7,29,-21,-58,-48,-4,9,14,19
24,-4,-29,-9,26,-17,-53,-58,-14,4,4,14
24,-14,-39,-4,31,-26,-53,-63,-19,0,4,19
24,-14,-39,-4,31,-26,-58,-68,-24,-4,0,19
19,-14,-34,-2,26,-24,-63,-63,-24,-4,0,19
19,-14,-34,-2,26,-24,-68,-58,-24,-4,0,19
9,-14,-24,2,17,-19,-68,-58,-24,0,0,19
4,-19,-24,7,14,-21,-68,-58,-29,4,0,14
4,-19,-24,7,14,-21,-58,-63,-29,4,0,9
4,-19,-24,7,14,-21,-53,-68,-29,4,0,4
4,-19,-24,7,14,-21,-53,-73,-29,4,4,4
9,-19,-29,4,19,-24,-53,-73,-29,4,9,4
9,-24,-34,7,21,-29,-63,-63,-24,0,4,9
9,-29,-39,9,24,-34,-68,-58,-19,0,4,14
4,-29,-34,12,19,-31,-63,-53,-4,4,4,14
4,-34,-39,14,21,-36,-63,-48,4,4,9,14
-9,-34,-24,21,7,-29,-63,-48,-4,4,4,9
-24,-34,-9,29,-7,-21,-58,-48,-14,4,0,4
-14,-29,-14,21,0,-21,-58,-53,-19,4,0,4
-9,-29,-19,19,4,-24,-53,-53,-24,4,0,4
-9,-34,-24,21,7,-29,-53,-53,-24,0,-4,0
-9,-34,-24,21,7,-29,-53,-58,-24,-9,-4,0
-29,-43,-14,36,-7,-29,-53,-58,-29,-9,-4,-4
-39,-53,-14,46,-12,-34,-48,-58,-29,-9,-4,-4
-24,-43,-19,34,-2,-31,-48,-58,-19,-9,-4,-4
-9,-34,-24,21,7,-29,-48,-58,-9,-14,0,-4
-19,-39,-19,29,0,-29,-43,-58,-19,-14,-4,-4
-19,-39,-19,29,0,-29,-39,-58,-29,-19,-4,-9
-24,-39,-14,31,-4,-26,-39,-58,-29,-19,-14,-14
-34,-43,-9,39,-12,-26,-34,-48,-29,-19,-19,-14
-24,-43,-19,34,-2,-31,-34,-48,-29,-19,-19,-14
-24,-43,-19,34,-2,-31,-34,-48,-29,-19,-19,-19
-24,-53,-29,39,2,-41,-24,-48,-29,-29,-14,-14
-24,-58,-34,41,4,-46,-19,-48,-39,-34,-19,-14
-24,-58,-34,41,4,-46,-19,-48,-39,-34,-24,-14
-24,-58,-34,41,4,-46,-19,-48,-39,-34,-24,-19
-24,-53,-29,39,2,-41,-29,-48,-39,-29,-24,-19
-24,-48,-24,36,0,-36,-39,-43,-39,-24,-24,-19
-24,-48,-24,36,0,-36,-29,-43,-34,-24,-24,-19
-24,-53,-29,39,2,-41,-24,-48,-34,-24,-24,-19
-24,-53,-29,39,2,-41,-24,-48,-39,-29,-29,-29
-24,-53,-29,39,2,-41,-24,-48,-39,-29,-29,-34
-24,-63,-39,43,7,-51,-34,-53,-43,-34,-29,-34
-24,-68,-43,46,9,-56,-43,-53,-43,-34,-34,-34
-24,-68,-43,46,9,-56,-34,-48,-43,-34,-34,-34
-24,-68,-43,46,9,-56,-43,-48,-43,-34,-34,-34
-4,-53,-48,29,21,-51,-34,-43,-34,-29,-29,-29
9,-43,-53,17,31,-48,-29,-39,-24,-24,-24,-24
14,-29,-43,7,29,-36,-24,-34,-14,-14,-14,-14
19,-19,-39,0,29,-29,-19,-29,-9,-9,-9,-9
19,-19,-39,0,29,-29,-14,-29,-9,-9,-4,-9
19,-19,-39,0,29,-29,-9,-29,-9,-9,0,-9
19,-24,-43,2,31,-34,-9,-34,-9,-9,0,-9
24,-19,-43,-2,34,-31,-14,-34,-9,-4,0,-9
29,-14,-43,-7,36,-29,-19,-34,-9,-4,-4,-9
48,-9,-58,-19,53,-34,-24,-29,0,4,9,0
53,14,-39,-34,46,-12,-24,-9,9,24,19,19
68,29,-39,-48,53,-4,-24,0,24,39,24,34
82,58,-24,-70,53,17,-34,-9,24,43,34,39
92,68,-24,-80,58,21,-48,-19,19,43,34,39
107,53,-53,-80,80,0,-68,-24,19,43,34,43
107,34,-73,-70,90,-19,-78,-24,14,39,34,43
102,14,-87,-58,95,-36,-78,-34,4,29,24,24
92,-4,-97,-43,95,-51,-78,-43,-14,19,14,9
87,-14,-102,-36,95,-58,-87,-43,-14,4,4,9
82,-24,-107,-29,95,-65,-97,-53,-29,-9,0,4
82,-34,-117,-24,100,-75,-107,-73,-43,-14,0,4
87,-34,-122,-26,104,-78,-117,-73,-43,-14,0,4
87,-29,-117,-29,102,-73,-122,-73,-43,-19,-4,4
87,-29,-117,-29,102,-73,-122,-82,-48,-19,-9,0
87,-34,-122,-26,104,-78,-112,-92,-53,-24,-9,0
78,-34,-112,-21,95,-73,-97,-97,-63,-34,-14,-9
34,-43,-78,4,56,-61,-87,-107,-73,-48,-29,-19
-9,-63,-53,36,21,-58,-73,-117,-73,-48,-34,-29
-19,-63,-43,41,12,-53,-68,-112,-73,-48,-39,-34
-19,-63,-43,41,12,-53,-63,-112,-73,-43,-39,-34
-19,-68,-48,43,14,-58,-63,-117,-78,-53,-39,-34
-19,-68,-48,43,14,-58,-58,-117,-82,-53,-39,-29
-29,-73,-43,51,7,-58,-63,-117,-82,-53,-43,-34
-34,-78,-43,56,4,-61,-63,-117,-82,-53,-48,-34
-43,-82,-39,63,-2,-61,-63,-112,-87,-58,-48,-39
-48,-87,-39,68,-4,-63,-63,-107,-87,-58,-48,-39
-48,-92,-43,70,-2,-68,-63,-102,-87,-58,-48,-39
-48,-92,-43,70,-2,-68,-63,-102,-87,-58,-48,-39
-43,-97,-53,70,4,-75,-63,-112,-87,-58,-48,-39
-34,-97,-63,65,14,-80,-63,-126,-87,-58,-48,-43
-43,-92,-48,68,2,-70,-63,-126,-87,-58,-48,-48
-53,-92,-39,73,-7,-65,-63,-126,-87,-58,-48,-53
-63,-97,-34,80,-14,-65,-68,-112,-87,-58,-48,-53
-78,-107,-29,92,-24,-68,-73,-102,-87,-63,-53,-53
-87,-126,-39,107,-24,-82,-53,-102,-92,-82,-73,-63
-117,-151,-34,134,-41,-92,9,-73,-87,-92,-92,-87
-156,-170,-14,163,-70,-92,112,24,-58,-87,-97,-107
-165,-170,-4,168,-80,-87,195,136,14,-43,-73,-102
-151,-151,0,151,-75,-75,263,244,151,73,4,-48
-97,-43,53,70,-75,4,322,370,370,278,175,87
9,78,68,-43,-29,73,390,610,673,527,395,263
165,214,48,-190,58,131,375,736,917,751,600,434
400,444,43,-422,178,244,200,673,1093,990,824,644
580,658,78,-619,251,368,-58,453,1141,1137,1000,819
702,883,180,-793,261,531,-502,0,1034,1205,1127,985
771,1127,356,-949,207,741,-1088,-775,736,1166,1205,1127
712,1283,570,-997,70,927,-1605,-1688,244,1015,1190,1195
634,1117,483,-875,75,800,-1810,-2113,-209,712,990,1093
405,585,180,-495,112,383,-1795,-2357,-1156,-258,146,448
151,258,107,-204,21,183,-1444,-2156,-1551,-829,-414,-39
63,244,180,-153,-58,212,-1068,-1590,-1195,-624,-307,-19
19,195,175,-107,-78,185,-751,-1107,-873,-468,-229,-19
34,165,131,-100,-48,148,-575,-829,-673,-385,-214,-29
29,97,68,-63,-19,82,-453,-644,-527,-331,-204,-58
-53,-14,39,34,-46,12,-278,-448,-414,-278,-204,-112
-112,-112,0,112,-56,-56,-141,-278,-322,-244,-195,-141
-136,-97,39,117,-87,-29,-29,-146,-204,-190,-165,-131
-107,-82,24,95,-65,-29,24,-53,-102,-126,-117,-102
-102,-87,14,95,-58,-36,43,-19,-78,-97,-97,-92
-92,-87,4,90,-48,-41,73,9,-63,-78,-82,-87
-87,-87,0,87,-43,-43,87,39,-48,-73,-78,-82
-87,-97,-9,92,-39,-53,87,58,-24,-68,-78,-82
-87,-107,-19,97,-34,-63,87,48,-24,-68,-78,-92
-87,-107,-19,97,-34,-63,92,48,-24,-63,-78,-92
-92,-102,-9,97,-41,-56,102,58,-19,-63,-78,-87
-92,-102,-9,97,-41,-56,117,68,-9,-63,-78,-73
-92,-102,-9,97,-41,-56,117,82,0,-53,-73,-73
-92,-102,-9,97,-41,-56,122,97,4,-43,-73,-78
-87,-102,-14,95,-36,-58,122,112,9,-43,-73,-78
-87,-102,-14,95,-36,-58,131,117,9,-43,-73,-78
-107,-112,-4,109,-51,-58,126,122,14,-48,-73,-82
-122,-126,-4,124,-58,-65,122,122,14,-53,-73,-87
-112,-126,-14,119,-48,-70,126,112,9,-53,-73,-92
-102,-126,-24,114,-39,-75,131,117,4,-53,-78,-92
-92,-107,-14,100,-39,-61,151,126,14,-53,-78,-87
-78,-92,-14,85,-31,-53,165,131,19,-53,-73,-82
-78,-92,-14,85,-31,-53,170,141,24,-48,-73,-82
-78,-87,-9,82,-34,-48,175,151,24,-48,-73,-82
-87,-92,-4,90,-41,-48,180,165,34,-43,-73,-87
-92,-97,-4,95,-43,-51,180,175,39,-43,-73,-92
-92,-102,-9,97,-41,-56,185,180,43,-39,-68,-92
-97,-102,-4,100,-46,-53,190,195,53,-34,-63,-92
-97,-102,-4,100,-46,-53,185,219,58,-29,-63,-92
-97,-102,-4,100,-46,-53,180,229,63,-29,-63,-92
-97,-97,0,97,-48,-48,190,239,68,-29,-63,-87
-97,-92,4,95,-51,-43,204,253,73,-29,-63,-87
-97,-87,9,92,-53,-39,214,263,78,-29,-68,-92
-107,-87,19,97,-63,-34,224,273,87,-24,-68,-92
-112,-92,19,102,-65,-36,234,297,92,-29,-68,-92
-122,-92,29,107,-75,-31,239,317,102,-34,-73,-97
-122,-92,29,107,-75,-31,253,331,107,-34,-73,-97
-122,-92,29,107,-75,-31,268,351,112,-34,-73,-102
-122,-92,29,107,-75,-31,283,361,112,-39,-78,-107
-126,-97,29,112,-78,-34,292,375,112,-43,-82,-112
-136,-92,43,114,-90,-24,307,400,117,-39,-92,-122
-156,-92,63,124,-109,-14,322,414,117,-48,-97,-122
-151,-87,63,119,-107,-12,336,429,112,-48,-102,-131
-141,-82,58,112,-100,-12,351,444,112,-58,-112,-136
-141,-82,58,112,-100,-12,375,444,112,-63,-122,-141
-136,-82,53,109,-95,-14,400,448,97,-73,-131,-151
-136,-78,58,107,-97,-9,409,458,87,-87,-136,-161
-136,-78,58,107,-97,-9,414,468,78,-97,-146,-175
-136,-73,63,104,-100,-4,419,478,73,-107,-151,-175
-131,-68,63,100,-97,-2,419,492,73,-112,-161,-175
-122,-68,53,95,-87,-7,419,517,82,-102,-151,-170
-107,-68,39,87,-73,-14,414,531,97,-97,-141,-165
-97,-63,34,80,-65,-14,400,531,97,-102,-146,-165
-92,-63,29,78,-61,-17,385,527,92,-102,-146,-165
-87,-53,34,70,-61,-9,370,512,82,-102,-146,-161
-78,-48,29,63,-53,-9,351,492,78,-97,-146,-151
-53,-34,19,43,-36,-7,317,468,82,-78,-122,-126
-34,-14,19,24,-26,2,283,439,82,-63,-107,-112
-4,4,9,0,-7,7,253,405,87,-48,-73,-92
24,39,14,-31,4,26,224,370,92,-34,-53,-73
48,43,-4,-46,26,19,185,331,97,-9,-34,-43
58,48,-9,-53,34,19,151,292,97,9,-9,-24
68,53,-14,-61,41,19,107,244,92,24,4,-4
78,53,-24,-65,51,14,73,200,87,29,19,14
82,53,-29,-68,56,12,53,156,78,39,24,19
82,48,-34,-65,58,7,24,112,68,43,34,24
78,39,-39,-58,58,0,19,82,63,43,34,29
73,39,-34,-56,53,2,9,53,48,48,39,34
63,34,-29,-48,46,2,-19,34,43,43,48,34
58,29,-29,-43,43,0,-53,19,43,39,48,39
48,24,-24,-36,36,0,-58,0,34,39,34,34
43,9,-34,-26,39,-12,-63,-14,29,34,29,29
39,0,-39,-19,39,-19,-63,-24,14,24,24,24
39,-9,-48,-14,43,-29,-63,-29,0,19,24,24
29,-14,-43,-7,36,-29,-68,-43,0,19,24,19
24,-14,-39,-4,31,-26,-63,-48,-4,14,14,14
14,-24,-39,4,26,-31,-63,-53,-9,9,14,14
4,-24,-29,9,17,-26,-68,-58,-14,4,9,9
0,-24,-24,12,12,-24,-73,-58,-9,9,14,14
0,-24,-24,12,12,-24,-78,-58,-4,14,19,19
-4,-24,-19,14,7,-21,-78,-58,-4,14,19,19
-4,-29,-24,17,9,-26,-78,-58,-9,14,19,14
-4,-29,-24,17,9,-26,-68,-58,-9,14,14,9
-4,-29,-24,17,9,-26,-63,-58,-9,14,9,4
4,-24,-29,9,17,-26,-63,-63,-9,14,9,4
19,-19,-39,0,29,-29,-63,-63,-9,14,9,4
4,-19,-24,7,14,-21,-63,-68,-14,4,4,4
-9,-19,-9,14,0,-14,-58,-78,-19,0,4,4
0,-9,-9,4,4,-9,-53,-68,-14,4,9,4
14,-4,-19,-4,17,-12,-53,-58,-14,4,19,4
14,-4,-19,-4,17,-12,-48,-58,-14,9,19,9
14,-4,-19,-4,17,-12,-39,-58,-14,14,19,14
9,-9,-19,0,14,-14,-39,-58,-14,14,14,14
0,-19,-19,9,9,-19,-34,-53,-14,14,9,14
-9,-29,-19,19,4,-24,-43,-48,-14,14,4,9
-19,-34,-14,26,-2,-24,-53,-48,-14,9,4,9
-29,-34,-4,31,-12,-19,-53,-39,-14,9,4,4
-29,-34,-4,31,-12,-19,-48,-29,-9,9,4,4
-19,-24,-4,21,-7,-14,-34,-29,-9,4,4,4
-9,-14,-4,12,-2,-9,-19,-29,-9,-4,9,4
-19,-19,0,19,-9,-9,-14,-39,-14,-4,4,4
-19,-19,0,19,-9,-9,-9,-48,-19,-9,4,0
-14,-19,-4,17,-4,-12,-9,-48,-19,-4,0,-4
-14,-24,-9,19,-2,-17,-4,-39,-19,0,0,-4
-14,-24,-9,19,-2,-17,-9,-39,-14,0,0,-4
-24,-24,0,24,-12,-12,-14,-39,-9,0,0,-9
-34,-39,-4,36,-14,-21,-9,-39,-9,-14,-4,-14
-43,-48,-4,46,-19,-26,-9,-39,-19,-24,-19,-24
-43,-48,-4,46,-19,-26,-9,-43,-24,-24,-24,-24
-43,-48,-4,46,-19,-26,-9,-48,-29,-24,-24,-29
-43,-53,-9,48,-17,-31,-9,-48,-29,-24,-24,-29
-43,-58,-14,51,-14,-36,-9,-43,-29,-24,-24,-29
-39,-58,-19,48,-9,-39,-9,-39,-24,-24,-24,-29
-34,-63,-29,48,-2,-46,-14,-39,-24,-24,-24,-29
-34,-63,-29,48,-2,-46,-24,-39,-24,-29,-29,-34
-34,-63,-29,48,-2,-46,-34,-39,-19,-29,-29,-34
-39,-73,-34,56,-2,-53,-34,-39,-24,-34,-29,-34
-43,-78,-34,61,-4,-56,-34,-34,-24,-34,-34,-34
-43,-78,-34,61,-4,-56,-19,-29,-29,-34,-34,-34
-43,-78,-34,61,-4,-56,-24,-29,-34,-34,-34,-34
-43,-73,-29,58,-7,-51,-29,-34,-34,-39,-39,-34
-29,-68,-39,48,4,-53,-29,-39,-34,-39,-39,-29
-19,-53,-34,36,7,-43,-19,-39,-29,-29,-29,-24
-9,-39,-29,24,9,-34,-14,-39,-24,-24,-19,-24
0,-29,-29,14,14,-29,-9,-39,-14,-14,-14,-14
9,-19,-29,4,19,-24,-9,-39,-9,-9,-9,-9
14,-19,-34,2,24,-26,-4,-39,-9,-4,-4,-4
19,-19,-39,0,29,-29,0,-39,-9,0,0,0
19,-14,-34,-2,26,-24,0,-34,-9,0,0,0
24,-4,-29,-9,26,-17,0,-29,-9,0,0,0
34,4,-29,-19,31,-12,-4,-24,-9,4,0,0
58,9,-48,-34,53,-19,-4,-19,0,14,19,9
63,34,-29,-48,46,2,9,-4,14,29,29,24
78,48,-29,-63,53,9,24,0,34,39,34,34
87,68,-19,-78,53,24,0,4,39,53,48,43
92,68,-24,-80,58,21,-29,9,39,63,53,48
107,63,-43,-85,75,9,-58,4,39,63,53,53
107,53,-53,-80,80,0,-78,4,34,58,53,53
102,39,-63,-70,82,-12,-68,-14,19,39,34,34
92,24,-68,-58,80,-21,-58,-34,-4,19,14,19
92,14,-78,-53,85,-31,-68,-34,-4,9,4,19
92,4,-87,-48,90,-41,-78,-43,-19,0,0,14
92,-4,-97,-43,95,-51,-87,-63,-34,-4,0,14
97,-4,-102,-46,100,-53,-97,-63,-34,-4,0,14
97,-14,-112,-41,104,-63,-102,-68,-39,-9,-4,14
97,-29,-126,-34,112,-78,-102,-82,-48,-9,-9,9
87,-34,-122,-26,104,-78,-102,-92,-53,-14,-14,4
68,-34,-102,-17,85,-68,-97,-97,-63,-24,-24,-9
24,-48,-73,12,48,-61,-87,-97,-73,-39,-39,-19
-19,-73,-53,46,17,-63,-73,-97,-73,-39,-43,-29
-29,-73,-43,51,7,-58,-73,-92,-68,-43,-43,-34
-29,-73,-43,51,7,-58,-73,-92,-63,-43,-39,-34
-29,-73,-43,51,7,-58,-73,-102,-68,-53,-39,-39
-29,-68,-39,48,4,-53,-68,-107,-73,-53,-39,-39
-39,-73,-34,56,-2,-53,-68,-107,-73,-53,-43,-43
-43,-78,-34,61,-4,-56,-63,-107,-73,-53,-48,-43
-53,-78,-24,65,-14,-51,-63,-107,-78,-58,-48,-48
-58,-78,-19,68,-19,-48,-63,-107,-78,-58,-48,-48
-58,-87,-29,73,-14,-58,-68,-102,-82,-58,-53,-48
-58,-92,-34,75,-12,-63,-73,-102,-87,-58,-58,-48
-63,-97,-34,80,-14,-65,-73,-102,-87,-58,-58,-48
-63,-97,-34,80,-14,-65,-73,-107,-87,-58,-58,-53
-63,-92,-29,78,-17,-61,-68,-107,-87,-58,-58,-53
-63,-92,-29,78,-17,-61,-63,-107,-87,-58,-58,-53
-58,-87,-29,73,-14,-58,-63,-102,-87,-58,-53,-53
-58,-87,-29,73,-14,-58,-63,-102,-87,-63,-53,-53
-78,-107,-29,92,-24,-68,-58,-112,-92,-78,-68,-63
-117,-131,-14,124,-51,-73,-9,-92,-87,-82,-82,-87
-165,-161,4,163,-85,-78,92,9,-63,-87,-102,-117
-185,-170,14,178,-100,-78,175,126,4,-53,-92,-122
-165,-165,0,165,-82,-82,239,229,136,43,-19,-73
-107,-73,34,90,-70,-19,292,351,351,229,146,58
-9,53,63,-21,-36,58,400,614,653,488,366,224
136,195,58,-165,39,126,424,766,897,722,570,385
366,424,58,-395,153,241,292,736,1093,971,800,605
541,639,97,-590,222,368,78,551,1161,1127,980,790
673,873,200,-773,236,536,-356,117,1078,1224,1122,976
751,1127,375,-939,187,751,-932,-639,805,1215,1215,1137
678,1327,649,-1002,14,988,-1493,-1639,307,1083,1234,1234
585,1205,619,-895,-17,912,-1742,-2152,-151,800,1068,1161
380,639,258,-509,61,448,-1795,-2440,-1166,-229,190,492
151,278,126,-214,12,202,-1512,-2283,-1629,-858,-405,-19
58,253,195,-156,-68,224,-1102,-1683,-1259,-663,-317,-9
9,195,185,-102,-87,190,-751,-1166,-922,-517,-258,-19
29,175,146,-102,-58,161,-575,-873,-712,-419,-234,-29
29,117,87,-73,-29,102,-453,-673,-556,-351,-214,-58
-39,14,53,12,-46,34,-283,-473,-434,-292,-214,-112
-82,-73,9,78,-46,-31,-151,-297,-331,-253,-204,-141
-122,-73,48,97,-85,-12,-43,-156,-209,-195,-175,-131
-107,-73,34,90,-70,-19,4,-53,-102,-126,-126,-102
-102,-82,19,92,-61,-31,24,-19,-78,-102,-107,-92
-92,-87,4,90,-48,-41,53,9,-63,-87,-92,-87
-92,-87,4,90,-48,-41,73,39,-48,-82,-87,-82
-97,-97,0,97,-48,-48,78,58,-24,-78,-87,-82
-97,-107,-9,102,-43,-58,82,58,-24,-73,-87,-92
-97,-107,-9,102,-43,-58,92,68,-24,-63,-87,-92
-97,-102,-4,100,-46,-53,97,78,-19,-63,-82,-92
-92,-102,-9,97,-41,-56,107,87,-9,-63,-78,-82
-97,-102,-4,100,-46,-53,102,87,-4,-58,-73,-82
-102,-102,0,102,-51,-51,102,87,-4,-53,-73,-87
-97,-112,-14,104,-41,-63,102,97,0,-53,-73,-87
-97,-122,-24,109,-36,-73,112,97,0,-53,-73,-87
-97,-112,-14,104,-41,-63,122,102,4,-53,-73,-87
-92,-107,-14,100,-39,-61,131,102,4,-53,-73,-87
-92,-107,-14,100,-39,-61,122,112,9,-53,-73,-92
-92,-107,-14,100,-39,-61,112,136,14,-53,-78,-92
-92,-102,-9,97,-41,-56,122,146,24,-53,-78,-92
-87,-102,-14,95,-36,-58,126,151,29,-53,-73,-92
-87,-102,-14,95,-36,-58,136,161,34,-48,-73,-92
-87,-97,-9,92,-39,-53,146,170,34,-48,-73,-92
-87,-92,-4,90,-41,-48,156,185,43,-43,-73,-92
-82,-87,-4,85,-39,-46,161,195,48,-43,-73,-92
-82,-87,-4,85,-39,-46,165,190,48,-43,-73,-92
-87,-82,4,85,-46,-39,170,195,53,-43,-73,-92
-87,-82,4,85,-46,-39,175,214,58,-39,-73,-92
-87,-82,4,85,-46,-39,180,219,63,-39,-73,-92
-92,-82,9,87,-51,-36,190,224,68,-39,-73,-92
-97,-82,14,90,-56,-34,204,234,73,-39,-73,-97
-97,-82,14,90,-56,-34,214,248,78,-43,-78,-102
-107,-87,19,97,-63,-34,224,263,87,-43,-78,-102
-102,-87,14,95,-58,-36,239,297,92,-43,-78,-97
-102,-82,19,92,-61,-31,248,326,102,-43,-82,-97
-97,-78,19,87,-58,-29,263,341,107,-43,-82,-97
-92,-73,19,82,-56,-26,278,361,112,-43,-82,-102
-92,-68,24,80,-58,-21,292,361,102,-48,-87,-107
-97,-68,29,82,-63,-19,302,366,92,-53,-92,-112
-97,-63,34,80,-65,-14,317,390,107,-48,-102,-122
-107,-63,43,85,-75,-9,331,405,117,-58,-107,-122
-117,-68,48,92,-82,-9,341,424,112,-58,-107,-131
-122,-73,48,97,-85,-12,351,444,112,-68,-112,-136
-126,-73,53,100,-90,-9,366,453,112,-73,-122,-141
-126,-73,53,100,-90,-9,380,468,97,-82,-131,-151
-126,-68,58,97,-92,-4,380,483,92,-92,-136,-161
-126,-68,58,97,-92,-4,375,497,87,-97,-146,-175
-131,-73,58,102,-95,-7,390,502,82,-107,-151,-175
-131,-78,53,104,-92,-12,400,512,82,-112,-161,-175
-126,-78,48,102,-87,-14,400,517,73,-122,-170,-180
-117,-78,39,97,-78,-19,395,512,68,-136,-180,-185
-112,-78,34,95,-73,-21,385,512,68,-141,-185,-190
-112,-82,29,97,-70,-26,375,507,63,-141,-185,-195
-102,-68,34,85,-68,-17,351,502,63,-136,-175,-185
-87,-58,29,73,-58,-14,322,492,68,-126,-165,-170
-39,-19,19,29,-29,0,312,478,73,-107,-141,-136
4,24,19,-14,-7,21,302,458,73,-92,-126,-112
0,9,9,-4,-4,9,268,409,78,-78,-97,-102
-4,9,14,-2,-9,12,234,361,82,-63,-82,-92
19,9,-9,-14,14,0,190,322,78,-39,-63,-63
29,9,-19,-19,24,-4,151,283,68,-19,-39,-43
43,24,-19,-34,31,2,102,248,78,0,-19,-24
58,34,-24,-46,41,4,63,219,87,9,0,-4
68,43,-24,-56,46,9,43,185,78,24,9,9
73,48,-24,-61,48,12,14,151,68,34,24,24
68,39,-29,-53,48,4,0,107,63,34,24,29
63,39,-24,-51,43,7,-19,63,48,39,29,34
58,34,-24,-46,41,4,-29,34,34,39,34,34
58,29,-29,-43,43,0,-43,9,24,39,29,39
48,29,-19,-39,34,4,-43,-9,14,39,19,34
43,19,-24,-31,34,-2,-43,-24,9,34,19,29
39,14,-24,-26,31,-4,-43,-34,0,24,14,24
39,9,-29,-24,34,-9,-43,-39,-9,19,14,24
29,4,-24,-17,26,-9,-48,-53,-9,19,14,19
24,4,-19,-14,21,-7,-43,-58,-14,14,4,14
19,-4,-24,-7,21,-14,-43,-63,-19,4,4,14
14,-4,-19,-4,17,-12,-48,-68,-24,-4,0,9
4,-9,-14,2,9,-12,-53,-73,-29,-4,0,9
0,-14,-14,7,7,-14,-58,-78,-34,-4,0,9
-4,-14,-9,9,2,-12,-58,-78,-34,-4,0,9
-4,-19,-14,12,4,-17,-58,-78,-39,-4,0,4
0,-14,-14,7,7,-14,-58,-68,-34,-4,0,4
4,-9,-14,2,9,-12,-63,-58,-29,-4,0,4
0,-9,-9,4,4,-9,-68,-73,-29,0,0,4
0,-9,-9,4,4,-9,-73,-82,-29,4,0,4
0,-9,-9,4,4,-9,-73,-78,-29,0,0,4
0,-9,-9,4,4,-9,-68,-78,-29,0,4,4
-4,-4,0,4,-2,-2,-53,-68,-24,4,4,4
-4,-4,0,4,-2,-2,-43,-58,-24,4,9,4
-4,-14,-9,9,2,-12,-43,-58,-24,4,9,4
-4,-24,-19,14,7,-21,-39,-58,-24,4,9,4
-4,-9,-4,7,0,-7,-39,-58,-24,4,9,4
-9,0,9,4,-9,4,-34,-53,-24,4,9,4
-9,-4,4,7,-7,0,-34,-53,-24,4,4,0
-9,-4,4,7,-7,0,-34,-58,-24,0,4,0
-14,-9,4,12,-9,-2,-34,-58,-24,0,4,-4
-9,-14,-4,12,-2,-9,-29,-58,-19,0,4,-4
-9,-14,-4,12,-2,-9,-29,-58,-19,0,0,-4
-9,-14,-4,12,-2,-9,-29,-58,-19,-4,0,-4
-24,-29,-4,26,-9,-17,-24,-58,-24,-9,-4,-4
-29,-39,-9,34,-9,-24,-19,-58,-29,-19,-4,-9
-24,-29,-4,26,-9,-17,-24,-58,-29,-19,-14,-14
-24,-24,0,24,-12,-12,-24,-48,-29,-19,-19,-14
-24,-24,0,24,-12,-12,-24,-43,-29,-14,-19,-14
-34,-24,9,29,-21,-7,-24,-39,-29,-9,-19,-19
-34,-39,-4,36,-14,-21,-19,-39,-29,-19,-14,-19
-34,-48,-14,41,-9,-31,-19,-39,-39,-24,-19,-24
-39,-48,-9,43,-14,-29,-24,-39,-39,-29,-24,-24
-43,-48,-4,46,-19,-26,-29,-39,-39,-34,-24,-29
-43,-48,-4,46,-19,-26,-29,-43,-43,-34,-29,-29
-43,-48,-4,46,-19,-26,-29,-43,-48,-34,-34,-29
-43,-48,-4,46,-19,-26,-29,-43,-43,-34,-34,-34
-43,-53,-9,48,-17,-31,-34,-48,-43,-34,-34,-39
-43,-53,-9,48,-17,-31,-34,-48,-43,-39,-39,-43
-43,-53,-9,48,-17,-31,-34,-48,-39,-39,-39,-43
-39,-48,-9,43,-14,-29,-29,-53,-43,-43,-34,-34
-34,-39,-4,36,-14,-21,-24,-53,-43,-43,-34,-24
-34,-39,-4,36,-14,-21,-14,-48,-43,-43,-34,-34
-34,-39,-4,36,-14,-21,-24,-48,-43,-43,-34,-43
-43,-48,-4,46,-19,-26,-29,-63,-48,-43,-39,-43
-43,-58,-14,51,-14,-36,-29,-78,-53,-43,-39,-43
-48,-68,-19,58,-14,-43,-39,-78,-68,-39,-43,-39
-58,-73,-14,65,-21,-43,-43,-78,-78,-39,-43,-39
-39,-48,-9,43,-14,-29,-43,-68,-63,-34,-39,-34
-19,-29,-9,24,-4,-19,-48,-48,-43,-24,-29,-29
-4,-19,-14,12,4,-17,-43,-43,-34,-14,-19,-19
9,-9,-19,0,14,-14,-39,-39,-29,-9,-9,-9
9,-9,-19,0,14,-14,-24,-39,-24,-14,-9,-9
9,-9,-19,0,14,-14,-9,-39,-19,-19,-9,-9
9,-9,-19,0,14,-14,-9,-24,-14,-19,-9,-9
9,0,-9,-4,9,-4,-9,-14,-4,-9,-4,0
14,4,-9,-9,12,-2,-14,-9,0,0,0,4
29,24,-4,-26,17,9,-24,-4,9,14,9,19
48,19,-29,-34,39,-4,-24,-4,9,14,19,14
53,34,-19,-43,36,7,-24,0,9,19,19,14
68,48,-19,-58,43,14,-24,-4,19,29,24,24
78,68,-9,-73,43,29,-34,-19,14,34,34,29
82,68,-14,-75,48,26,-48,-29,9,34,34,29
97,63,-34,-80,65,14,-68,-34,9,34,34,34
102,58,-43,-80,73,7,-78,-34,4,29,34,39
107,48,-58,-78,82,-4,-78,-43,-4,19,24,29
102,34,-68,-68,85,-17,-63,-68,-24,9,14,19
102,24,-78,-63,90,-26,-58,-82,-24,0,4,19
102,14,-87,-58,95,-36,-78,-78,-39,-9,0,14
102,4,-97,-53,100,-46,-92,-82,-53,-14,0,14
117,4,-112,-61,114,-53,-102,-73,-43,-9,4,14
126,9,-117,-68,122,-53,-112,-63,-34,-9,4,14
112,9,-102,-61,107,-46,-112,-73,-39,-9,0,9
87,-4,-92,-41,90,-48,-112,-82,-43,-14,-4,4
68,-14,-82,-26,75,-48,-107,-92,-58,-29,-14,-9
24,-29,-53,2,39,-41,-97,-97,-73,-48,-29,-19
-24,-63,-39,43,7,-51,-78,-97,-73,-48,-39,-34
-39,-73,-34,56,-2,-53,-73,-92,-73,-53,-48,-43
-39,-73,-34,56,-2,-53,-73,-92,-73,-53,-48,-43
-39,-78,-39,58,0,-58,-73,-102,-78,-63,-48,-48
-34,-73,-39,53,2,-56,-73,-107,-82,-63,-48,-48
-39,-73,-34,56,-2,-53,-78,-107,-82,-63,-53,-53
-43,-78,-34,61,-4,-56,-73,-112,-87,-63,-58,-53
-48,-78,-29,63,-9,-53,-73,-117,-97,-68,-58,-58
-63,-78,-14,70,-24,-46,-73,-126,-97,-68,-58,-58
-78,-82,-4,80,-36,-43,-73,-131,-97,-68,-58,-58
-63,-78,-14,70,-24,-46,-68,-131,-92,-68,-58,-53
-53,-78,-24,65,-14,-51,-63,-131,-87,-68,-58,-48
-48,-73,-24,61,-12,-48,-63,-126,-87,-68,-53,-53
-43,-63,-19,53,-12,-41,-58,-117,-87,-68,-48,-53
-43,-63,-19,53,-12,-41,-58,-117,-87,-68,-48,-53
-43,-63,-19,53,-12,-41,-63,-112,-87,-68,-48,-53
-48,-68,-19,58,-14,-43,-68,-112,-92,-73,-53,-53
-68,-87,-19,78,-24,-53,-53,-97,-97,-82,-68,-63
-117,-122,-4,119,-56,-63,9,-58,-87,-82,-87,-87
-165,-151,14,158,-90,-68,112,39,-39,-68,-92,-102
-175,-156,19,165,-97,-68,214,156,34,-34,-73,-107
-146,-136,9,141,-78,-63,292,283,180,82,19,-48
-87,-29,58,58,-73,14,341,429,429,307,200,102
24,112,87,-68,-31,100,385,614,702,556,405,273
195,263,68,-229,63,165,380,751,946,785,619,444
405,483,78,-444,163,280,209,688,1102,1005,844,653
585,697,112,-641,236,405,-58,444,1141,1146,1015,834
702,917,214,-810,244,566,-483,-29,1010,1195,1117,990
741,1185,444,-963,148,814,-1098,-907,668,1151,1200,1141
649,1298,649,-973,0,973,-1566,-1771,156,946,1132,1156
556,1078,522,-817,17,800,-1756,-2196,-366,570,868,1005
370,610,239,-490,65,424,-1771,-2415,-1190,-263,146,453
126,307,180,-217,-26,244,-1395,-2108,-1493,-775,-366,-4
58,273,214,-165,-78,244,-1044,-1576,-1195,-634,-307,-19
43,224,180,-134,-68,202,-727,-1083,-858,-468,-229,-19
39,185,146,-112,-53,165,-556,-790,-653,-380,-214,-29
14,97,82,-56,-34,90,-448,-619,-512,-331,-204,-68
-58,-4,53,31,-56,24,-273,-429,-395,-278,-204,-126
-107,-82,24,95,-65,-29,-131,-268,-302,-253,-204,-151
-136,-82,53,109,-95,-14,-29,-151,-200,-209,-190,-141
-107,-78,29,92,-68,-24,14,-63,-107,-136,-131,-112
-102,-78,24,90,-63,-26,43,-19,-78,-102,-97,-102
-87,-73,14,80,-51,-29,73,9,-63,-82,-82,-92
-82,-68,14,75,-48,-26,87,39,-48,-73,-78,-82
-87,-78,9,82,-48,-34,82,58,-24,-68,-78,-82
-87,-87,0,87,-43,-43,78,58,-24,-68,-78,-92
-102,-92,9,97,-56,-41,78,68,-24,-63,-78,-92
-117,-92,24,104,-70,-34,78,78,-19,-63,-78,-92
-102,-92,9,97,-56,-41,87,87,-9,-63,-78,-87
-92,-92,0,92,-46,-46,87,87,-4,-58,-73,-92
-92,-92,0,92,-46,-46,97,78,-14,-63,-78,-97
-87,-92,-4,90,-41,-48,102,82,-19,-73,-82,-97
-87,-92,-4,90,-41,-48,122,87,-19,-73,-82,-97
-92,-92,0,92,-46,-46,131,92,-14,-73,-82,-97
-92,-97,-4,95,-43,-51,131,102,-4,-63,-82,-97
-92,-97,-4,95,-43,-51,136,112,4,-53,-82,-102
-92,-97,-4,95,-43,-51,136,126,4,-53,-87,-102
-92,-92,0,92,-46,-46,141,136,14,-53,-87,-102
-87,-92,-4,90,-41,-48,146,141,19,-53,-78,-97
-87,-92,-4,90,-41,-48,151,151,24,-48,-73,-92
-92,-87,4,90,-48,-41,156,161,24,-48,-73,-92
-102,-87,14,95,-58,-36,165,175,34,-43,-73,-92
-102,-87,14,95,-58,-36,170,185,43,-43,-73,-92
-102,-87,14,95,-58,-36,175,185,48,-43,-73,-92
-87,-78,9,82,-48,-34,180,200,63,-43,-73,-92
-68,-73,-4,70,-31,-39,185,224,78,-39,-73,-92
-78,-73,4,75,-41,-34,190,229,73,-39,-73,-97
-87,-73,14,80,-51,-29,200,239,68,-39,-73,-102
-92,-87,4,90,-48,-41,214,248,68,-39,-78,-107
-97,-97,0,97,-48,-48,224,258,68,-39,-87,-112
-107,-87,19,97,-63,-34,234,273,78,-34,-87,-107
-107,-78,29,92,-68,-24,244,297,82,-34,-87,-102
-112,-73,39,92,-75,-17,248,317,92,-34,-87,-107
-112,-73,39,92,-75,-17,263,331,97,-34,-82,-107
-112,-73,39,92,-75,-17,278,346,102,-34,-78,-112
-112,-68,43,90,-78,-12,297,351,102,-39,-78,-117
-112,-68,43,90,-78,-12,312,366,102,-43,-82,-122
-107,-63,43,85,-75,-9,326,390,107,-43,-92,-131
-117,-63,53,90,-85,-4,341,419,112,-58,-97,-131
-126,-68,58,97,-92,-4,351,448,112,-58,-102,-141
-131,-73,58,102,-95,-7,361,463,112,-63,-112,-146
-131,-73,58,102,-95,-7,375,473,112,-63,-122,-151
-126,-68,58,97,-92,-4,390,483,97,-73,-131,-161
-126,-58,68,92,-97,4,400,488,92,-87,-136,-170
-126,-58,68,92,-97,4,405,497,87,-97,-146,-185
-126,-58,68,92,-97,4,409,502,82,-107,-151,-185
-122,-63,58,92,-90,-2,409,512,78,-112,-161,-185
-117,-68,48,92,-82,-9,409,522,68,-112,-161,-185
-107,-68,39,87,-73,-14,409,522,68,-117,-161,-185
-97,-63,34,80,-65,-14,405,522,68,-122,-165,-185
-92,-63,29,78,-61,-17,395,522,68,-122,-165,-185
-82,-48,34,65,-58,-7,380,512,68,-117,-156,-175
-68,-39,29,53,-48,-4,361,492,68,-107,-151,-161
-43,-24,19,34,-31,-2,326,468,73,-87,-131,-136
-24,-4,19,14,-21,7,292,439,73,-73,-117,-122
-4,0,4,2,-4,2,258,405,78,-58,-87,-102
19,24,4,-21,7,14,224,370,82,-43,-73,-82
48,34,-14,-41,31,9,185,331,87,-19,-53,-53
58,39,-19,-48,39,9,151,297,87,-4,-29,-34
68,53,-14,-61,41,19,107,258,87,9,-9,-14
78,63,-14,-70,46,24,73,219,87,19,9,4
82,63,-19,-73,51,21,53,175,78,29,14,9
82,58,-24,-70,53,17,24,117,58,34,24,14
78,48,-29,-63,53,9,9,73,43,34,24,19
58,43,-14,-51,36,14,-9,43,39,39,29,24
39,34,-4,-36,21,14,-19,24,39,39,39,24
48,29,-19,-39,34,4,-39,9,34,39,39,29
48,29,-19,-39,34,4,-43,-9,24,39,29,29
58,19,-39,-39,48,-9,-43,-19,19,34,29,29
68,14,-53,-41,61,-19,-43,-24,9,24,24,24
58,9,-48,-34,53,-19,-43,-29,-4,19,24,24
39,4,-34,-21,36,-14,-53,-43,-9,19,24,19
29,4,-24,-17,26,-9,-53,-48,-14,14,14,14
24,-4,-29,-9,26,-17,-53,-53,-19,9,14,14
24,-4,-29,-9,26,-17,-53,-58,-19,9,9,9
19,-4,-24,-7,21,-14,-48,-58,-14,14,9,9
24,0,-24,-12,24,-12,-48,-68,-14,14,9,9
24,4,-19,-14,21,-7,-48,-78,-14,14,9,9
24,0,-24,-12,24,-12,-48,-78,-19,9,9,4
24,0,-24,-12,24,-12,-48,-78,-19,4,9,4
24,0,-24,-12,24,-12,-53,-73,-24,4,9,4
19,0,-19,-9,19,-9,-53,-73,-29,4,9,4
9,-9,-19,0,14,-14,-53,-73,-29,0,4,0
0,-19,-19,9,9,-19,-53,-68,-29,-9,-4,-4
0,-19,-19,9,9,-19,-58,-68,-29,-9,-4,-4
-4,-14,-9,9,2,-12,-63,-68,-24,-4,-4,-4
4,-4,-9,0,7,-7,-63,-58,-19,4,9,0
14,4,-9,-9,12,-2,-63,-48,-14,14,19,4
19,4,-14,-12,17,-4,-48,-48,-14,14,19,4
24,4,-19,-14,21,-7,-39,-48,-14,14,19,4
19,0,-19,-9,19,-9,-34,-48,-14,14,14,4
19,-4,-24,-7,21,-14,-34,-48,-14,14,4,0
9,-9,-19,0,14,-14,-34,-53,-14,4,4,0
-9,-14,-4,12,-2,-9,-34,-58,-19,0,4,-4
-9,-14,-4,12,-2,-9,-34,-58,-19,0,4,-4
-9,-14,-4,12,-2,-9,-39,-58,-19,0,0,-4
-9,-14,-4,12,-2,-9,-39,-58,-19,-4,4,-4
-19,-19,0,19,-9,-9,-34,-58,-19,-4,4,-4
-19,-19,0,19,-9,-9,-34,-58,-19,-9,4,-9
-14,-19,-4,17,-4,-12,-39,-58,-19,-9,0,-14
-14,-24,-9,19,-2,-17,-34,-48,-19,-9,-4,-14
-14,-24,-9,19,-2,-17,-34,-48,-19,-9,-9,-14
-24,-24,0,24,-12,-12,-29,-48,-29,-9,-9,-14
-24,-34,-9,29,-7,-21,-19,-48,-39,-19,-9,-9
-24,-34,-9,29,-7,-21,-19,-43,-39,-24,-19,-14
-24,-29,-4,26,-9,-17,-19,-39,-29,-24,-24,-14
-24,-29,-4,26,-9,-17,-19,-39,-29,-24,-24,-24
-24,-29,-4,26,-9,-17,-19,-39,-29,-24,-24,-29
-24,-29,-4,26,-9,-17,-14,-39,-34,-24,-24,-29
-24,-29,-4,26,-9,-17,-9,-43,-34,-24,-24,-29
-24,-34,-9,29,-7,-21,-14,-48,-34,-24,-24,-29
-24,-34,-9,29,-7,-21,-14,-48,-39,-29,-29,-34
-24,-39,-14,31,-4,-26,-14,-48,-39,-29,-29,-34
-24,-48,-24,36,0,-36,-14,-53,-43,-34,-29,-34
-29,-53,-24,41,-2,-39,-29,-53,-43,-34,-34,-34
-34,-58,-24,46,-4,-41,-34,-48,-43,-34,-34,-34
-39,-58,-19,48,-9,-39,-43,-48,-43,-34,-34,-34
-43,-58,-14,51,-14,-36,-48,-48,-43,-34,-34,-34
-34,-58,-24,46,-4,-41,-43,-53,-48,-39,-34,-39
-29,-58,-29,43,0,-43,-39,-58,-53,-39,-39,-39
-39,-68,-29,53,-4,-48,-34,-58,-48,-39,-34,-39
-39,-68,-29,53,-4,-48,-29,-58,-43,-34,-29,-34
-24,-58,-34,41,4,-46,-34,-53,-34,-34,-24,-34
4,-24,-29,9,17,-26,-34,-43,-29,-29,-14,-24
4,-19,-24,7,14,-21,-29,-53,-29,-24,-9,-24
9,-19,-29,4,19,-24,-29,-68,-29,-19,-9,-29
9,-19,-29,4,19,-24,-24,-58,-29,-14,-9,-19
9,-19,-29,4,19,-24,-19,-48,-29,-9,-9,-9
14,0,-14,-7,14,-7,-19,-34,-14,0,0,0
14,4,-9,-9,12,-2,-19,-24,-4,4,4,4
19,14,-4,-17,12,4,-19,-19,0,14,9,9
29,14,-14,-21,21,0,-24,-14,0,14,9,9
48,14,-34,-31,41,-9,-24,-9,9,19,29,14
53,34,-19,-43,36,7,-24,0,19,29,39,24
68,48,-19,-58,43,14,-19,0,34,39,43,34
78,68,-9,-73,43,29,-24,-9,34,43,53,39
73,68,-4,-70,39,31,-39,-24,29,43,48,39
78,63,-14,-70,46,24,-58,-34,29,43,43,43
87,53,-34,-70,61,9,-73,-34,24,43,43,43
97,39,-58,-68,78,-9,-78,-43,14,39,34,29
97,24,-73,-61,85,-24,-78,-53,-4,29,24,19
102,14,-87,-58,95,-36,-87,-53,-4,19,14,19
102,4,-97,-53,100,-46,-97,-68,-19,4,9,14
102,-4,-107,-48,104,-56,-102,-92,-34,-4,9,14
102,-4,-107,-48,104,-56,-97,-92,-48,-14,0,4
97,0,-97,-48,97,-48,-92,-92,-63,-29,-14,-4
97,4,-92,-51,95,-43,-92,-97,-58,-19,-9,0
87,-4,-92,-41,90,-48,-92,-102,-53,-14,-4,4
73,-14,-87,-29,80,-51,-87,-107,-63,-24,-4,-9
34,-29,-63,-2,48,-46,-78,-107,-73,-39,-9,-19
-9,-53,-43,31,17,-48,-63,-107,-73,-39,-24,-29
-19,-53,-34,36,7,-43,-63,-102,-73,-43,-39,-34
-19,-53,-34,36,7,-43,-73,-102,-73,-43,-39,-34
-19,-58,-39,39,9,-48,-82,-112,-78,-53,-39,-39
-19,-58,-39,39,9,-48,-78,-126,-82,-53,-39,-39
-29,-63,-34,46,2,-48,-78,-136,-82,-53,-43,-43
-34,-68,-34,51,0,-51,-73,-122,-78,-53,-39,-43
-39,-68,-29,53,-4,-48,-73,-107,-78,-58,-29,-48
-39,-73,-34,56,-2,-53,-73,-107,-78,-58,-39,-48
-39,-82,-43,61,2,-63,-73,-102,-78,-58,-48,-48
-48,-92,-43,70,-2,-68,-73,-107,-82,-58,-48,-48
-63,-107,-43,85,-9,-75,-73,-112,-87,-58,-48,-48
-63,-97,-34,80,-14,-65,-73,-117,-87,-53,-48,-53
-63,-82,-19,73,-21,-51,-68,-117,-87,-48,-48,-53
-48,-73,-24,61,-12,-48,-63,-117,-82,-48,-43,-48
-34,-63,-29,48,-2,-46,-63,-112,-78,-48,-39,-43
-39,-68,-29,53,-4,-48,-73,-117,-78,-53,-43,-43
-58,-87,-29,73,-14,-58,-63,-107,-78,-63,-58,-53
-97,-122,-24,109,-36,-73,-9,-82,-82,-73,-73,-78
-136,-151,-14,143,-61,-82,82,0,-48,-68,-73,-92
-165,-170,-4,168,-80,-87,165,102,0,-58,-87,-117
-156,-165,-9,161,-73,-87,224,214,122,34,-29,-78
-117,-78,39,97,-78,-19,302,370,370,248,156,68
-24,43,68,-9,-46,56,375,566,644,488,366,234
156,200,43,-178,56,122,395,732,912,741,585,405
375,424,48,-400,163,236,248,697,1093,985,814,614
546,639,92,-592,226,366,29,531,1171,1151,1010,805
653,858,204,-756,224,531,-346,136,1078,1224,1137,971
732,1210,478,-971,126,844,-1029,-795,746,1224,1263,1176
678,1405,727,-1041,-24,1066,-1566,-1712,244,1063,1239,1244
590,1195,605,-893,-7,900,-1800,-2220,-302,702,1010,1122
409,736,326,-573,41,531,-1859,-2522,-1151,-117,322,600
131,366,234,-248,-51,300,-1483,-2235,-1537,-736,-297,58
29,263,234,-146,-102,248,-1132,-1722,-1322,-702,-346,-39
19,229,209,-124,-95,219,-766,-1180,-941,-507,-248,-29
19,204,185,-112,-82,195,-546,-839,-692,-390,-214,-29
4,126,122,-65,-58,124,-444,-668,-546,-341,-204,-58
-58,34,92,12,-75,63,-273,-478,-424,-287,-204,-107
-102,-63,39,82,-70,-12,-141,-287,-322,-253,-195,-136
-126,-82,43,104,-85,-19,-48,-141,-209,-200,-170,-131
-102,-87,14,95,-58,-36,-14,-63,-112,-131,-126,-102
-102,-97,4,100,-53,-46,4,-29,-78,-102,-107,-92
-92,-97,-4,95,-43,-51,43,0,-63,-87,-92,-87
-92,-97,-4,95,-43,-51,68,29,-48,-82,-87,-82
-92,-97,-4,95,-43,-51,73,48,-24,-73,-78,-78
-87,-97,-9,92,-39,-53,78,48,-24,-68,-68,-82
-82,-97,-14,90,-34,-56,82,58,-19,-58,-68,-82
-78,-92,-14,85,-31,-53,87,68,-9,-53,-68,-82
-73,-97,-24,85,-24,-61,102,78,0,-53,-68,-73
-73,-102,-29,87,-21,-65,107,78,4,-48,-63,-73
-82,-112,-29,97,-26,-70,112,63,-4,-53,-68,-82
-87,-122,-34,104,-26,-78,112,63,-9,-63,-73,-87
-87,-122,-34,104,-26,-78,117,82,-9,-63,-73,-87
-92,-122,-29,107,-31,-75,112,102,-4,-63,-73,-87
-82,-122,-39,102,-21,-80,112,102,0,-58,-68,-87
-73,-117,-43,95,-14,-80,117,102,4,-53,-63,-92
-73,-117,-43,95,-14,-80,122,131,14,-48,-68,-92
-73,-112,-39,92,-17,-75,131,156,34,-43,-68,-92
-73,-112,-39,92,-17,-75,126,161,39,-43,-63,-87
-78,-112,-34,95,-21,-73,122,170,43,-39,-63,-82
-78,-97,-19,87,-29,-58,141,175,43,-39,-53,-82
-82,-87,-4,85,-39,-46,165,185,53,-34,-43,-82
-82,-87,-4,85,-39,-46,170,195,58,-34,-53,-87
-82,-87,-4,85,-39,-46,175,195,58,-34,-63,-92
-87,-92,-4,90,-41,-48,180,200,58,-34,-63,-92
-87,-102,-14,95,-36,-58,185,214,58,-29,-63,-92
-92,-102,-9,97,-41,-56,185,214,63,-29,-63,-92
-97,-102,-4,100,-46,-53,190,219,68,-29,-63,-92
-97,-102,-4,100,-46,-53,195,234,68,-34,-68,-97
-97,-97,0,97,-48,-48,195,248,68,-39,-78,-102
-102,-92,9,97,-56,-41,204,263,78,-34,-78,-102
-97,-87,9,92,-53,-39,214,287,82,-34,-78,-102
-102,-82,19,92,-61,-31,224,292,82,-43,-82,-107
-102,-82,19,92,-61,-31,244,292,78,-53,-82,-107
-102,-82,19,92,-61,-31,263,326,92,-43,-82,-107
-102,-78,24,90,-63,-26,287,351,102,-39,-87,-107
-107,-73,34,90,-70,-19,302,370,102,-43,-92,-112
-107,-63,43,85,-75,-9,317,400,107,-43,-102,-122
-117,-63,53,90,-85,-4,326,414,107,-58,-107,-122
-126,-68,58,97,-92,-4,331,429,102,-58,-112,-131
-122,-73,48,97,-85,-12,341,453,112,-68,-112,-136
-112,-73,39,92,-75,-17,356,473,122,-73,-112,-141
-107,-73,34,90,-70,-19,380,488,107,-82,-131,-151
-107,-68,39,87,-73,-14,400,497,102,-97,-146,-161
-122,-68,53,95,-87,-7,405,492,82,-117,-161,-180
-136,-68,68,102,-102,0,409,483,63,-136,-170,-185
-131,-68,63,100,-97,-2,405,492,73,-131,-180,-185
-126,-68,58,97,-92,-4,400,502,78,-122,-180,-185
-117,-68,48,92,-82,-9,395,512,78,-126,-180,-185
-107,-63,43,85,-75,-9,385,522,78,-131,-185,-185
-107,-78,29,92,-68,-24,370,536,82,-131,-185,-190
-102,-78,24,90,-63,-26,351,541,87,-126,-175,-185
-87,-68,19,78,-53,-24,322,522,87,-117,-165,-170
-63,-53,9,58,-36,-21,278,497,92,-97,-141,-146
-43,-34,9,39,-26,-12,263,463,92,-87,-141,-131
-24,-29,-4,26,-9,-17,248,424,97,-78,-126,-112
-4,0,4,2,-4,2,224,390,102,-63,-102,-92
19,14,-4,-17,12,4,195,351,107,-39,-73,-63
34,19,-14,-26,24,2,151,312,107,-14,-48,-39
48,34,-14,-41,31,9,97,268,107,9,-29,-14
58,43,-14,-51,36,14,63,229,107,19,-9,9
63,43,-19,-53,41,12,43,185,97,29,-4,19
63,39,-24,-51,43,7,14,141,87,39,19,29
58,29,-29,-43,43,0,0,112,82,43,34,39
53,29,-24,-41,39,2,-24,92,68,48,39,43
48,24,-24,-36,36,0,-39,82,58,48,48,43
48,19,-29,-34,39,-4,-53,48,48,48,48,48
39,19,-19,-29,29,0,-53,9,34,48,39,48
39,9,-29,-24,34,-9,-43,-14,29,43,39,48
39,4,-34,-21,36,-14,-34,-34,19,34,34,43
39,0,-39,-19,39,-19,-34,-24,9,29,34,43
29,-4,-34,-12,31,-19,-43,-24,9,29,34,39
24,0,-24,-12,24,-12,-48,-29,0,24,19,39
24,-4,-29,-9,26,-17,-53,-34,-9,19,14,43
29,-4,-34,-12,31,-19,-58,-48,-14,9,9,39
29,-4,-34,-12,31,-19,-58,-58,-14,4,9,39
29,-9,-39,-9,34,-24,-63,-58,-14,4,9,34
24,-14,-39,-4,31,-26,-68,-58,-14,4,9,29
14,-19,-34,2,24,-26,-68,-58,-14,9,14,24
4,-19,-24,7,14,-21,-68,-58,-9,14,19,24
14,-19,-34,2,24,-26,-68,-58,-9,14,19,24
19,-19,-39,0,29,-29,-63,-63,-9,14,19,24
19,-19,-39,0,29,-29,-63,-63,-14,14,19,24
19,-19,-39,0,29,-29,-63,-58,-19,9,14,24
14,-24,-39,4,26,-31,-68,-48,-19,9,14,24
4,-24,-29,9,17,-26,-73,-39,-14,14,14,24
4,-24,-29,9,17,-26,-73,-39,-14,19,19,24
4,-24,-29,9,17,-26,-73,-39,-14,24,19,24
4,-14,-19,4,12,-17,-53,-43,-14,24,19,24
4,-4,-9,0,7,-7,-39,-48,-14,24,19,24
0,-9,-9,4,4,-9,-34,-43,-14,19,19,24
0,-14,-14,7,7,-14,-34,-39,-14,14,14,19
0,-14,-14,7,7,-14,-43,-39,-14,9,14,19
-9,-14,-4,12,-2,-9,-53,-39,-19,9,14,14
-9,-14,-4,12,-2,-9,-48,-39,-19,9,14,14
-9,-14,-4,12,-2,-9,-48,-39,-19,9,9,14
-9,-19,-9,14,0,-14,-48,-43,-24,0,0,9
-19,-29,-9,24,-4,-19,-43,-48,-29,-4,-14,4
-19,-29,-9,24,-4,-19,-39,-48,-29,-9,-14,0
-14,-29,-14,21,0,-21,-39,-48,-29,-9,-19,-4
-14,-34,-19,24,2,-26,-34,-34,-24,-9,-19,0
-14,-34,-19,24,2,-26,-34,-29,-19,-9,-19,4
-24,-34,-9,29,-7,-21,-43,-29,-19,-9,-19,0
-24,-43,-19,34,-2,-31,-48,-29,-19,-19,-19,0
-24,-48,-24,36,0,-36,-39,-39,-29,-24,-24,-4
-24,-48,-24,36,0,-36,-29,-48,-29,-24,-24,-4
-24,-48,-24,36,0,-36,-29,-48,-29,-24,-24,-9
-24,-48,-24,36,0,-36,-29,-48,-29,-24,-24,-9
-24,-48,-24,36,0,-36,-29,-24,-29,-24,-24,-9
-24,-48,-24,36,0,-36,-29,-4,-24,-24,-24,-9
-24,-53,-29,39,2,-41,-34,-19,-24,-24,-24,-9
-24,-53,-29,39,2,-41,-34,-29,-29,-29,-29,-14
-34,-63,-29,48,-2,-46,-43,-34,-34,-29,-29,-14
-43,-78,-34,61,-4,-56,-53,-43,-43,-34,-29,-14
-34,-68,-34,51,0,-51,-53,-48,-43,-34,-34,-14
-24,-58,-34,41,4,-46,-43,-48,-43,-34,-34,-14
-24,-58,-34,41,4,-46,-43,-48,-43,-39,-34,-14
-24,-58,-34,41,4,-46,-39,-48,-43,-43,-34,-14
-24,-63,-39,43,7,-51,-39,-48,-48,-43,-34,-19
-29,-68,-39,48,4,-53,-39,-48,-53,-39,-39,-19
-29,-63,-34,46,2,-48,-34,-53,-53,-39,-34,-19
-14,-48,-34,31,9,-41,-29,-53,-48,-29,-24,-14
-14,-48,-34,31,9,-41,-34,-48,-39,-29,-19,-9
-14,-53,-39,34,12,-46,-43,-43,-34,-34,-14,-9
0,-39,-39,19,19,-39,-39,-29,-24,-19,-9,-4
19,-29,-48,4,34,-39,-39,-19,-19,-9,-9,0
24,-19,-43,-2,34,-31,-29,-14,-9,-4,-4,4
29,-9,-39,-9,34,-24,-19,-9,0,0,0,9
29,-9,-39,-9,34,-24,-14,-9,0,0,0,9
29,-4,-34,-12,31,-19,-14,-4,0,0,0,9
34,0,-34,-17,34,-17,-14,-4,-4,4,0,9
48,0,-48,-24,48,-24,-14,0,0,14,19,19
53,24,-29,-39,41,-2,-19,9,9,29,34,34
68,39,-29,-53,48,4,-24,9,24,39,43,43
82,68,-14,-75,48,26,-34,0,29,48,53,53
92,78,-14,-85,53,31,-48,-9,29,53,53,58
107,73,-34,-90,70,19,-63,-14,29,53,53,63
107,63,-43,-85,75,9,-68,-14,24,48,53,63
102,39,-63,-70,82,-12,-68,-24,14,34,43,48
92,14,-78,-53,85,-31,-68,-34,-4,19,34,39
87,4,-82,-46,85,-39,-78,-29,-4,9,19,34
82,-4,-87,-39,85,-46,-87,-34,-19,0,9,24
82,-14,-97,-34,90,-56,-97,-53,-34,-4,9,24
87,-14,-102,-36,95,-58,-107,-53,-34,-4,9,24
97,-4,-102,-46,100,-53,-112,-53,-34,-4,9,29
107,0,-107,-53,107,-53,-112,-63,-39,0,9,29
97,-14,-112,-41,104,-63,-112,-73,-39,-4,4,24
78,-24,-102,-26,90,-63,-107,-78,-43,-14,-4,9
34,-39,-73,2,53,-56,-97,-68,-53,-24,-19,0
-9,-63,-53,36,21,-58,-82,-58,-53,-19,-24,-9
-19,-63,-43,41,12,-53,-73,-53,-53,-24,-29,-14
-19,-63,-43,41,12,-53,-63,-53,-53,-24,-29,-14
-19,-68,-48,43,14,-58,-63,-73,-58,-39,-29,-19
-19,-68,-48,43,14,-58,-58,-87,-63,-43,-29,-19
-29,-78,-48,53,9,-63,-58,-92,-68,-43,-34,-24
-34,-87,-53,61,9,-70,-53,-97,-73,-43,-39,-24
-39,-87,-48,63,4,-68,-53,-102,-82,-48,-39,-29
-39,-87,-48,63,4,-68,-53,-107,-87,-48,-39,-29
-39,-82,-43,61,2,-63,-53,-102,-87,-48,-39,-29
-39,-73,-34,56,-2,-53,-53,-102,-87,-48,-39,-29
-39,-78,-39,58,0,-58,-58,-92,-82,-48,-39,-29
-34,-78,-43,56,4,-61,-63,-87,-78,-48,-39,-34
-34,-78,-43,56,4,-61,-58,-87,-78,-48,-39,-34
-34,-82,-48,58,7,-65,-53,-87,-78,-48,-39,-34
-34,-82,-48,58,7,-65,-53,-97,-82,-48,-39,-34
-39,-87,-48,63,4,-68,-53,-112,-87,-53,-43,-34
-43,-107,-63,75,9,-85,-34,-78,-87,-68,-58,-43
-68,-131,-63,100,-2,-97,29,-14,-78,-73,-73,-68
-117,-156,-39,136,-39,-97,122,63,-43,-68,-82,-92
-136,-161,-24,148,-56,-92,195,156,34,-24,-63,-92
-122,-141,-19,131,-51,-80,253,283,200,112,39,-19
-68,-34,34,51,-51,0,302,429,448,336,234,136
39,112,73,-75,-17,92,361,629,741,605,463,317
195,273,78,-234,58,175,336,717,976,849,678,492
385,522,136,-453,124,329,156,595,1102,1078,912,717
522,756,234,-639,143,495,-107,317,1102,1215,1098,907
595,990,395,-793,100,692,-531,-195,932,1263,1215,1078
614,1244,629,-929,-7,936,-1098,-1029,570,1205,1283,1224
531,1361,829,-946,-148,1095,-1556,-1849,63,1010,1229,1259
429,1156,727,-793,-148,941,-1703,-2181,-405,663,990,1122
224,610,385,-417,-80,497,-1654,-2303,-1249,-287,146,463
-4,268,273,-131,-139,270,-1268,-1981,-1542,-839,-414,-39
-39,248,287,-104,-163,268,-917,-1439,-1185,-644,-322,-39
-29,195,224,-82,-126,209,-624,-980,-863,-497,-258,-58
-19,141,161,-61,-90,151,-478,-727,-663,-409,-244,-68
-29,48,78,-9,-53,63,-385,-566,-517,-351,-234,-97
-78,-29,48,53,-63,9,-234,-385,-400,-292,-229,-136
-102,-92,9,97,-56,-41,-122,-229,-302,-253,-214,-151
-122,-92,29,107,-75,-31,-29,-112,-195,-190,-175,-136
-87,-92,-4,90,-41,-48,4,-34,-102,-117,-117,-102
-82,-92,-9,87,-36,-51,29,0,-78,-92,-97,-92
-73,-87,-14,80,-29,-51,63,29,-63,-78,-82,-87
-73,-87,-14,80,-29,-51,78,58,-48,-73,-78,-82
-78,-97,-19,87,-29,-58,78,78,-24,-68,-78,-82
-73,-112,-39,92,-17,-75,82,78,-19,-63,-78,-87
-68,-117,-48,92,-9,-82,92,87,-14,-53,-78,-82
-68,-112,-43,90,-12,-78,97,102,-4,-53,-78,-82
-63,-112,-48,87,-7,-80,107,117,9,-53,-78,-73
-63,-112,-48,87,-7,-80,97,117,14,-48,-73,-73
-63,-112,-48,87,-7,-80,92,117,14,-43,-73,-78
-63,-112,-48,87,-7,-80,107,131,19,-43,-73,-82
-68,-112,-43,90,-12,-78,131,136,19,-43,-73,-87
-73,-112,-39,92,-17,-75,122,131,14,-48,-78,-87
-73,-117,-43,95,-14,-80,112,122,4,-53,-82,-87
-73,-117,-43,95,-14,-80,117,117,0,-58,-82,-92
-73,-117,-43,95,-14,-80,122,126,-4,-63,-87,-92
-73,-112,-39,92,-17,-75,146,136,4,-63,-87,-92
-68,-112,-43,90,-12,-78,165,141,9,-63,-82,-92
-68,-112,-43,90,-12,-78,161,151,19,-53,-78,-92
-68,-107,-39,87,-14,-73,156,161,24,-48,-73,-92
-68,-107,-39,87,-14,-73,165,185,43,-43,-73,-92
-63,-107,-43,85,-9,-75,170,204,58,-43,-73,-92
-63,-107,-43,85,-9,-75,175,204,58,-43,-73,-92
-68,-102,-34,85,-17,-68,180,214,63,-43,-73,-92
-73,-102,-29,87,-21,-65,185,234,58,-43,-73,-92
-78,-102,-24,90,-26,-63,190,239,53,-48,-73,-92
-78,-102,-24,90,-26,-63,200,248,58,-48,-73,-92
-78,-102,-24,90,-26,-63,214,263,63,-48,-73,-97
-78,-102,-24,90,-26,-63,219,278,68,-48,-78,-102
-87,-107,-19,97,-34,-63,224,292,78,-43,-78,-102
-87,-112,-24,100,-31,-68,234,307,78,-48,-82,-107
-92,-112,-19,102,-36,-65,239,317,82,-53,-92,-117
-97,-112,-14,104,-41,-63,253,326,82,-53,-97,-122
-102,-112,-9,107,-46,-61,268,341,82,-53,-102,-131
-102,-107,-4,104,-48,-56,287,351,82,-58,-107,-136
-107,-107,0,107,-53,-53,302,366,82,-63,-112,-141
-97,-102,-4,100,-46,-53,326,395,87,-63,-122,-151
-97,-102,-4,100,-46,-53,351,414,87,-78,-126,-151
-107,-107,0,107,-53,-53,346,429,82,-78,-131,-161
-112,-112,0,112,-56,-56,341,444,82,-87,-141,-165
-117,-112,4,114,-61,-53,356,458,87,-92,-151,-170
-117,-112,4,114,-61,-53,370,478,78,-102,-161,-180
-117,-107,9,112,-63,-48,380,488,73,-122,-170,-195
-117,-107,9,112,-63,-48,385,497,68,-136,-185,-214
-117,-107,9,112,-63,-48,390,502,63,-151,-190,-214
-112,-107,4,109,-58,-51,390,512,63,-161,-200,-214
-117,-107,9,112,-63,-48,390,517,58,-161,-204,-214
-117,-107,9,112,-63,-48,385,512,58,-165,-209,-214
-97,-102,-4,100,-46,-53,380,512,58,-170,-214,-214
-82,-102,-19,92,-31,-61,375,507,53,-170,-214,-214
-73,-87,-14,80,-29,-51,366,488,43,-170,-204,-209
-58,-78,-19,68,-19,-48,351,463,39,-165,-195,-200
-43,-63,-19,53,-12,-41,317,439,43,-146,-170,-175
-34,-43,-9,39,-12,-26,283,409,43,-131,-156,-161
-14,-39,-24,26,4,-31,248,375,48,-107,-122,-136
4,-19,-24,7,14,-21,214,341,53,-82,-102,-112
34,-4,-39,-14,36,-21,175,297,58,-58,-82,-78
48,9,-39,-29,43,-14,141,253,58,-39,-58,-53
58,24,-34,-41,46,-4,92,209,63,-14,-29,-29
68,34,-34,-51,51,0,53,170,68,0,0,-4
73,34,-39,-53,56,-2,34,141,58,14,9,4
73,29,-43,-51,58,-7,4,112,48,24,24,14
63,19,-43,-41,53,-12,0,82,53,24,24,19
53,19,-34,-36,43,-7,-9,53,48,29,29,24
48,14,-34,-31,41,-9,-19,34,29,29,39,24
48,9,-39,-29,43,-14,-34,19,14,29,39,29
43,14,-29,-29,36,-7,-39,0,4,34,29,34
43,9,-34,-26,39,-12,-43,-14,0,34,29,39
39,4,-34,-21,36,-14,-43,-19,0,29,29,34
39,0,-39,-19,39,-19,-43,-19,0,29,34,34
24,-9,-34,-7,29,-21,-58,-34,0,29,34,29
14,-14,-29,0,21,-21,-63,-39,-4,24,24,24
14,-24,-39,4,26,-31,-63,-43,-9,19,24,24
14,-24,-39,4,26,-31,-68,-48,-14,14,19,19
9,-24,-34,7,21,-29,-68,-48,-14,14,19,19
9,-24,-34,7,21,-29,-68,-48,-14,14,19,19
9,-19,-29,4,19,-24,-63,-48,-14,14,19,19
14,-19,-34,2,24,-26,-58,-48,-19,14,19,14
14,-19,-34,2,24,-26,-58,-48,-19,14,19,14
14,-19,-34,2,24,-26,-63,-48,-19,14,19,14
4,-24,-29,9,17,-26,-63,-58,-24,14,19,14
0,-29,-29,14,14,-29,-63,-63,-29,14,19,14
0,-29,-29,14,14,-29,-63,-68,-34,9,14,14
0,-29,-29,14,14,-29,-58,-78,-39,9,14,14
-4,-24,-19,14,7,-21,-48,-78,-34,14,14,14
-4,-24,-19,14,7,-21,-43,-78,-34,14,19,14
-4,-24,-19,14,7,-21,-43,-68,-29,14,19,14
-4,-24,-19,14,7,-21,-39,-58,-24,14,19,14
-4,-24,-19,14,7,-21,-48,-53,-19,14,19,14
-9,-29,-19,19,4,-24,-53,-43,-14,14,19,14
-9,-34,-24,21,7,-29,-53,-39,-14,14,14,9
-9,-34,-24,21,7,-29,-53,-39,-14,9,14,9
-14,-34,-19,24,2,-26,-48,-43,-24,4,9,4
-9,-34,-24,21,7,-29,-39,-48,-29,0,4,4
-9,-34,-24,21,7,-29,-39,-53,-29,0,0,0
-9,-34,-24,21,7,-29,-39,-58,-29,-4,0,-4
-19,-39,-19,29,0,-29,-34,-68,-29,-4,-4,-4
-19,-39,-19,29,0,-29,-29,-78,-29,-9,-4,-9
-14,-39,-24,26,4,-31,-29,-63,-24,-4,-4,-9
-14,-43,-29,29,7,-36,-24,-39,-19,0,0,-4
-14,-43,-29,29,7,-36,-24,-24,-19,0,0,-4
-24,-43,-19,34,-2,-31,-24,-9,-19,0,0,-9
-34,-53,-19,43,-7,-36,-19,-24,-19,-14,-4,-14
-43,-58,-14,51,-14,-36,-19,-39,-29,-24,-19,-24
-34,-53,-19,43,-7,-36,-19,-43,-34,-24,-24,-24
-24,-48,-24,36,0,-36,-19,-48,-39,-24,-24,-29
-24,-48,-24,36,0,-36,-29,-48,-39,-19,-19,-24
-24,-48,-24,36,0,-36,-39,-43,-39,-14,-14,-19
-24,-53,-29,39,2,-41,-29,-43,-34,-14,-14,-19
-24,-63,-39,43,7,-51,-24,-48,-34,-14,-14,-19
-24,-63,-39,43,7,-51,-24,-48,-34,-19,-19,-24
-24,-63,-39,43,7,-51,-24,-48,-29,-19,-19,-24
-24,-68,-43,46,9,-56,-29,-48,-34,-24,-19,-24
-24,-68,-43,46,9,-56,-34,-43,-34,-24,-24,-24
-24,-68,-43,46,9,-56,-24,-39,-39,-29,-29,-29
-24,-68,-43,46,9,-56,-34,-39,-43,-34,-34,-34
-29,-68,-39,48,4,-53,-43,-43,-43,-34,-34,-34
-24,-68,-43,46,9,-56,-48,-48,-43,-34,-29,-34
-29,-82,-53,56,12,-68,-48,-48,-48,-34,-34,-34
-39,-92,-53,65,7,-73,-43,-48,-48,-39,-34,-39
-29,-78,-48,53,9,-63,-34,-53,-43,-39,-34,-34
-19,-68,-48,43,14,-58,-29,-48,-34,-34,-29,-29
-4,-53,-48,29,21,-51,-24,-43,-29,-24,-24,-19
9,-39,-48,14,29,-43,-19,-39,-24,-19,-19,-14
9,-39,-48,14,29,-43,-14,-39,-19,-14,-9,-4
9,-39,-48,14,29,-43,-9,-39,-19,-9,0,0
14,-34,-48,9,31,-41,-9,-34,-9,0,4,0
19,-29,-48,4,34,-39,-9,-29,0,9,9,0
19,-29,-48,4,34,-39,-19,-29,0,9,9,0
24,-19,-43,-2,34,-31,-24,-24,0,9,9,0
34,-9,-43,-12,39,-26,-34,-19,0,14,9,4
58,0,-58,-29,58,-29,-34,-9,9,24,29,19
63,24,-39,-43,51,-7,-29,0,19,39,39,34
78,39,-39,-58,58,0,-24,0,34,48,43,43
82,53,-29,-68,56,12,-34,-9,34,53,48,48
82,48,-34,-65,58,7,-48,-19,29,53,43,48
97,43,-53,-70,75,-4,-68,-24,29,53,43,53
97,34,-63,-65,80,-14,-78,-24,24,48,43,53
97,24,-73,-61,85,-24,-73,-34,14,39,39,39
92,14,-78,-53,85,-31,-68,-43,-4,29,34,29
92,4,-87,-48,90,-41,-73,-43,-4,19,24,29
92,-4,-97,-43,95,-51,-78,-53,-19,9,19,24
92,-14,-107,-39,100,-61,-82,-73,-34,4,19,24
97,-14,-112,-41,104,-63,-87,-73,-34,4,19,24
92,-14,-107,-39,100,-61,-92,-73,-34,-4,14,24
87,-19,-107,-34,97,-63,-92,-82,-39,-9,9,19
78,-34,-112,-21,95,-73,-87,-97,-48,-14,4,14
58,-43,-102,-7,80,-73,-78,-107,-63,-24,-4,0
24,-43,-68,9,46,-56,-68,-107,-73,-34,-19,-14
-9,-53,-43,31,17,-48,-53,-107,-73,-29,-24,-29
-19,-63,-43,41,12,-53,-58,-97,-73,-34,-29,-34
-19,-73,-53,46,17,-63,-63,-92,-73,-34,-29,-34
-24,-82,-58,53,17,-70,-73,-92,-73,-43,-29,-34
-29,-87,-58,58,14,-73,-78,-87,-73,-43,-29,-29
-39,-92,-53,65,7,-73,-68,-97,-73,-43,-34,-34
-43,-97,-53,70,4,-75,-53,-107,-73,-43,-39,-34
-48,-97,-48,73,0,-73,-53,-107,-78,-48,-39,-39
-48,-97,-48,73,0,-73,-53,-107,-78,-48,-39,-39
-48,-97,-48,73,0,-73,-58,-97,-78,-48,-39,-39
-48,-92,-43,70,-2,-68,-63,-92,-78,-48,-39,-39
-53,-97,-43,75,-4,-70,-63,-92,-82,-53,-43,-39
-53,-97,-43,75,-4,-70,-63,-97,-87,-58,-48,-43
-53,-97,-43,75,-4,-70,-53,-102,-87,-58,-48,-48
-53,-102,-48,78,-2,-75,-43,-107,-87,-58,-48,-53
-53,-102,-48,78,-2,-75,-43,-102,-87,-58,-48,-53
-58,-107,-48,82,-4,-78,-43,-102,-87,-63,-53,-53
-73,-126,-53,100,-9,-90,-24,-73,-82,-73,-68,-63
-107,-151,-43,129,-31,-97,39,-14,-68,-73,-82,-87
-136,-165,-29,151,-53,-97,141,87,0,-43,-73,-92
-136,-161,-24,148,-56,-92,224,204,112,24,-34,-73
-107,-122,-14,114,-46,-68,273,326,287,180,92,14
-39,4,43,17,-41,24,312,468,546,424,312,185
82,170,87,-126,-2,129,317,605,800,673,531,370
253,351,97,-302,78,224,239,629,995,897,736,551
434,580,146,-507,143,363,14,439,1073,1098,951,761
561,795,234,-678,163,514,-292,92,1024,1205,1117,936
619,995,375,-807,122,685,-717,-429,810,1200,1185,1078
624,1215,590,-919,17,902,-1283,-1273,405,1088,1205,1195
541,1254,712,-897,-85,983,-1639,-1952,-112,814,1068,1141
439,971,531,-705,-46,751,-1683,-2142,-590,390,746,917
244,502,258,-373,-7,380,-1595,-2196,-1288,-409,24,351
24,239,214,-131,-95,226,-1171,-1805,-1434,-810,-414,-58
-9,224,234,-107,-122,229,-839,-1322,-1093,-605,-307,-39
0,175,175,-87,-87,175,-566,-922,-785,-448,-229,-39
0,122,122,-61,-61,122,-424,-683,-605,-370,-214,-63
-19,29,48,-4,-34,39,-336,-536,-478,-322,-204,-107
-87,-43,43,65,-65,0,-175,-366,-370,-268,-200,-136
-131,-102,29,117,-80,-36,-53,-219,-283,-234,-185,-141
-146,-102,43,124,-95,-29,14,-107,-180,-180,-161,-131
-107,-102,4,104,-56,-48,24,-34,-92,-117,-117,-102
-102,-107,-4,104,-48,-56,43,0,-68,-92,-97,-92
-92,-107,-14,100,-39,-61,73,29,-53,-78,-82,-87
-92,-107,-14,100,-39,-61,87,58,-39,-68,-73,-78
-97,-117,-19,107,-39,-68,87,78,-14,-58,-68,-73
-92,-117,-24,104,-34,-70,87,87,-14,-58,-68,-82
-87,-107,-19,97,-34,-63,92,107,-14,-53,-68,-82
-87,-112,-24,100,-31,-68,97,102,-14,-58,-73,-87
-82,-122,-39,102,-21,-80,107,97,-9,-63,-78,-82
-87,-122,-34,104,-26,-78,117,97,-4,-58,-73,-82
-92,-122,-29,107,-31,-75,131,97,-4,-53,-73,-87
-87,-122,-34,104,-26,-78,122,122,4,-53,-73,-82
-87,-122,-34,104,-26,-78,122,136,9,-53,-73,-78
-87,-122,-34,104,-26,-78,122,141,14,-53,-73,-78
-82,-126,-43,104,-19,-85,122,141,14,-53,-73,-78
-78,-122,-43,100,-17,-82,131,136,14,-53,-73,-82
-73,-117,-43,95,-14,-80,141,146,14,-53,-78,-82
-73,-112,-39,92,-17,-75,151,156,24,-53,-78,-82
-68,-112,-43,90,-12,-78,156,161,29,-53,-73,-82
-78,-117,-39,97,-19,-78,156,170,34,-48,-73,-87
-87,-117,-29,102,-29,-73,156,180,34,-48,-73,-92
-92,-117,-24,104,-34,-70,165,195,43,-43,-73,-92
-92,-117,-24,104,-34,-70,170,204,48,-43,-73,-92
-87,-112,-24,100,-31,-68,180,204,48,-43,-73,-97
-87,-102,-14,95,-36,-58,190,214,53,-43,-73,-102
-87,-102,-14,95,-36,-58,195,229,53,-43,-78,-102
-87,-102,-14,95,-36,-58,200,229,53,-48,-82,-102
-92,-107,-14,100,-39,-61,209,234,58,-48,-82,-102
-97,-112,-14,104,-41,-63,224,244,63,-48,-82,-107
-97,-107,-9,102,-43,-58,229,258,68,-48,-87,-112
-107,-107,0,107,-53,-53,234,273,78,-43,-87,-112
-107,-112,-4,109,-51,-58,244,297,82,-43,-87,-107
-112,-112,0,112,-56,-56,248,317,92,-43,-92,-107
-112,-112,0,112,-56,-56,263,331,97,-43,-92,-107
-112,-112,0,112,-56,-56,278,351,102,-43,-92,-112
-112,-102,9,107,-61,-46,297,361,102,-48,-97,-122
-117,-97,19,107,-68,-39,312,375,102,-53,-102,-131
-117,-92,24,104,-70,-34,326,405,107,-53,-112,-141
-126,-92,34,109,-80,-29,341,424,107,-68,-117,-141
-136,-97,39,117,-87,-29,351,439,102,-73,-122,-151
-141,-102,39,122,-90,-31,361,453,102,-87,-131,-156
-141,-102,39,122,-90,-31,385,458,102,-92,-141,-161
-136,-102,34,119,-85,-34,409,468,87,-102,-151,-170
-136,-102,34,119,-85,-34,409,478,82,-117,-161,-185
-136,-107,29,122,-82,-39,405,488,78,-126,-175,-204
-136,-107,29,122,-82,-39,409,497,73,-136,-180,-204
-131,-107,24,119,-78,-41,409,512,73,-141,-190,-204
-126,-102,24,114,-75,-39,414,522,68,-146,-190,-204
-117,-97,19,107,-68,-39,414,522,68,-156,-190,-204
-107,-92,14,100,-61,-39,405,512,63,-161,-195,-204
-102,-92,9,97,-56,-41,395,497,53,-161,-195,-204
-92,-78,14,85,-53,-31,375,483,48,-156,-185,-195
-78,-68,9,73,-43,-29,351,463,48,-146,-175,-180
-53,-58,-4,56,-24,-31,312,444,58,-126,-151,-156
-34,-43,-9,39,-12,-26,273,419,63,-112,-136,-141
-14,-39,-24,26,4,-31,239,385,68,-97,-107,-122
4,-19,-24,7,14,-21,204,351,73,-82,-92,-102
29,-14,-43,-7,36,-29,165,297,73,-58,-73,-73
39,-9,-48,-14,43,-29,131,244,68,-39,-48,-53
43,9,-34,-26,39,-12,102,209,68,-14,-24,-24
48,24,-24,-36,36,0,82,180,68,0,0,4
53,24,-29,-39,41,-2,48,136,63,9,4,9
53,19,-34,-36,43,-7,4,92,58,14,14,14
53,14,-39,-34,46,-12,4,68,53,19,19,24
53,19,-34,-36,43,-7,0,43,39,29,29,34
58,14,-43,-36,51,-14,-19,39,39,34,43,34
68,9,-58,-39,63,-24,-43,39,43,39,48,39
48,4,-43,-26,46,-19,-43,19,34,39,39,39
34,-9,-43,-12,39,-26,-43,4,29,34,39,39
29,-14,-43,-7,36,-29,-43,-14,14,24,29,34
29,-19,-48,-4,39,-34,-43,-29,0,19,24,34
19,-24,-43,2,31,-34,-58,-43,0,19,24,29
14,-24,-39,4,26,-31,-63,-48,-4,14,14,24
14,-34,-48,9,31,-41,-63,-53,-9,14,14,24
14,-34,-48,9,31,-41,-68,-58,-14,14,9,19
14,-29,-43,7,29,-36,-63,-58,-14,14,9,19
19,-24,-43,2,31,-34,-58,-58,-14,14,9,19
14,-24,-39,4,26,-31,-58,-58,-14,14,9,19
14,-29,-43,7,29,-36,-58,-58,-19,14,9,14
14,-29,-43,7,29,-36,-53,-68,-24,14,9,14
14,-29,-43,7,29,-36,-53,-78,-29,14,9,14
14,-29,-43,7,29,-36,-53,-82,-29,9,14,14
19,-29,-48,4,34,-39,-53,-82,-29,4,19,14
19,-29,-48,4,34,-39,-53,-73,-29,0,14,14
19,-29,-48,4,34,-39,-48,-68,-29,0,14,14
9,-24,-34,7,21,-29,-43,-68,-24,4,9,14
4,-24,-29,9,17,-26,-43,-68,-24,4,9,14
0,-24,-24,12,12,-24,-43,-68,-24,4,9,14
-4,-24,-19,14,7,-21,-39,-68,-24,4,9,14
-4,-29,-24,17,9,-26,-39,-63,-19,4,9,14
-9,-39,-29,24,9,-34,-34,-53,-14,4,9,14
-9,-43,-34,26,12,-39,-39,-48,-14,4,4,9
-9,-43,-34,26,12,-39,-43,-48,-14,0,4,9
-19,-43,-24,31,2,-34,-43,-53,-19,0,4,4
-19,-43,-24,31,2,-34,-39,-58,-19,0,4,4
-19,-39,-19,29,0,-29,-39,-58,-19,0,0,4
-19,-34,-14,26,-2,-24,-39,-58,-19,-4,0,4
-19,-34,-14,26,-2,-24,-29,-53,-19,-4,-4,4
-9,-29,-19,19,4,-24,-19,-48,-19,-9,-4,0
-4,-29,-24,17,9,-26,-19,-48,-19,-9,-9,-9
-4,-34,-29,19,12,-31,-14,-39,-19,-9,-9,-14
-14,-43,-29,29,7,-36,-19,-39,-19,-9,-9,-14
-34,-53,-19,43,-7,-36,-24,-39,-19,-9,-9,-19
-34,-63,-29,48,-2,-46,-19,-39,-14,-14,-9,-14
-34,-68,-34,51,0,-51,-19,-39,-19,-14,-19,-14
-29,-63,-34,46,2,-48,-19,-39,-19,-14,-24,-14
-24,-58,-34,41,4,-46,-19,-39,-19,-14,-24,-19
-24,-58,-34,41,4,-46,-19,-43,-19,-14,-24,-19
-24,-58,-34,41,4,-46,-19,-43,-19,-14,-24,-19
-24,-58,-34,41,4,-46,-19,-43,-24,-19,-29,-19
-24,-63,-39,43,7,-51,-24,-48,-34,-24,-34,-19
-24,-63,-39,43,7,-51,-24,-53,-39,-29,-39,-24
-24,-63,-39,43,7,-51,-24,-58,-39,-29,-39,-24
-24,-68,-43,46,9,-56,-24,-63,-43,-34,-39,-24
-24,-68,-43,46,9,-56,-24,-63,-43,-34,-43,-24
-34,-73,-39,53,2,-56,-19,-53,-43,-34,-43,-29
-43,-78,-34,61,-4,-56,-34,-48,-43,-34,-43,-34
-43,-78,-34,61,-4,-56,-39,-48,-43,-34,-43,-34
-34,-78,-43,56,4,-61,-39,-48,-43,-34,-39,-34
-29,-78,-48,53,9,-63,-43,-48,-43,-34,-39,-29
-29,-73,-43,51,7,-58,-43,-48,-39,-39,-34,-29
-19,-58,-39,39,9,-48,-39,-48,-34,-34,-29,-24
-9,-48,-39,29,14,-43,-39,-39,-24,-24,-19,-19
4,-39,-43,17,24,-41,-24,-34,-14,-9,-9,-9
19,-29,-48,4,34,-39,-9,-29,-9,0,0,0
19,-29,-48,4,34,-39,-9,-29,-9,0,0,0
19,-29,-48,4,34,-39,-9,-29,-9,0,0,0
19,-29,-48,4,34,-39,-4,-29,-4,0,0,0
19,-24,-43,2,31,-34,0,-29,0,4,0,0
24,-24,-48,0,36,-36,0,-29,0,9,0,0
39,-14,-53,-12,46,-34,-4,-24,0,14,0,0
58,-9,-68,-24,63,-39,-4,-9,9,24,19,14
63,14,-48,-39,56,-17,-4,9,19,39,29,34
73,29,-43,-51,58,-7,-9,0,29,43,29,43
78,48,-29,-63,53,9,-24,-19,24,43,34,48
82,53,-29,-68,56,12,-39,-29,19,43,34,48
97,53,-43,-75,70,4,-58,-34,19,43,34,53
97,43,-53,-70,75,-4,-68,-34,14,39,39,53
97,29,-68,-63,82,-19,-68,-43,4,29,34,39
92,14,-78,-53,85,-31,-68,-53,-14,24,24,29
92,4,-87,-48,90,-41,-78,-53,-14,19,14,29
97,-4,-102,-46,100,-53,-87,-63,-24,9,9,24
102,-14,-117,-43,109,-65,-92,-82,-34,4,9,24
107,-14,-122,-46,114,-68,-97,-78,-34,4,9,24
107,-9,-117,-48,112,-63,-102,-73,-34,0,4,24
107,-9,-117,-48,112,-63,-102,-73,-34,0,0,19
97,-24,-122,-36,109,-73,-102,-73,-34,-4,-4,14
78,-34,-112,-21,95,-73,-92,-78,-43,-19,-14,-4
34,-48,-82,7,58,-65,-78,-78,-53,-39,-29,-19
-9,-73,-63,41,26,-68,-63,-82,-53,-39,-34,-29
-19,-73,-53,46,17,-63,-63,-82,-53,-43,-39,-34
-19,-78,-58,48,19,-68,-73,-82,-53,-43,-39,-34
-19,-87,-68,53,24,-78,-82,-92,-58,-53,-39,-39
-19,-87,-68,53,24,-78,-68,-107,-68,-53,-39,-39
-29,-92,-63,61,17,-78,-58,-117,-73,-53,-43,-43
-34,-97,-63,65,14,-80,-53,-117,-73,-53,-48,-39
-39,-97,-58,68,9,-78,-53,-117,-78,-58,-48,-39
-39,-87,-48,63,4,-68,-53,-112,-78,-58,-48,-39
-39,-82,-43,61,2,-63,-53,-102,-78,-58,-48,-39
-48,-92,-43,70,-2,-68,-58,-102,-78,-58,-48,-39
-63,-107,-43,85,-9,-75,-63,-102,-78,-58,-48,-39
-63,-107,-43,85,-9,-75,-63,-107,-78,-58,-48,-43
-63,-102,-39,82,-12,-70,-58,-107,-78,-58,-48,-43
-53,-97,-43,75,-4,-70,-53,-107,-78,-58,-48,-43
-43,-92,-48,68,2,-70,-53,-102,-78,-58,-48,-43
-48,-97,-48,73,0,-73,-53,-102,-78,-68,-53,-43
-68,-117,-48,92,-9,-82,-34,-87,-78,-82,-68,-53
-107,-141,-34,124,-36,-87,34,-39,-68,-82,-82,-78
-146,-161,-14,153,-65,-87,141,68,-19,-68,-82,-92
-156,-161,-4,158,-75,-82,224,185,78,-4,-48,-78
-126,-136,-9,131,-58,-73,283,312,248,141,58,0
-58,-14,43,36,-51,14,322,448,497,370,258,161
63,141,78,-102,-7,109,356,624,771,624,483,341
229,307,78,-268,75,192,312,678,980,849,688,512
434,541,107,-488,163,324,102,531,1102,1063,902,722
585,756,170,-671,207,463,-185,239,1088,1176,1068,897
673,976,302,-824,185,639,-629,-283,902,1195,1166,1049
712,1205,492,-958,109,849,-1176,-1078,541,1117,1210,1171
619,1278,658,-949,-19,968,-1576,-1859,9,878,1102,1156
502,1024,522,-763,-9,773,-1693,-2166,-483,478,805,966
292,522,229,-407,31,375,-1634,-2269,-1278,-380,48,375
63,239,175,-151,-56,207,-1263,-1961,-1507,-829,-424,-48
9,224,214,-117,-102,219,-917,-1429,-1137,-624,-326,-29
9,180,170,-95,-80,175,-629,-976,-810,-458,-239,-29
19,146,126,-82,-53,136,-488,-722,-614,-370,-214,-39
0,68,68,-34,-34,68,-385,-561,-478,-322,-204,-68
-68,-24,43,46,-56,9,-214,-380,-366,-268,-204,-117
-107,-92,14,100,-61,-39,-87,-219,-273,-234,-195,-136
-126,-82,43,104,-85,-19,0,-102,-170,-180,-170,-122
-97,-82,14,90,-56,-34,34,-24,-82,-117,-126,-92
-92,-87,4,90,-48,-41,53,9,-58,-92,-107,-82
-87,-92,-4,90,-41,-48,82,29,-48,-78,-92,-78
-92,-97,-4,95,-43,-51,97,48,-39,-73,-87,-73
-97,-112,-14,104,-41,-63,97,68,-14,-68,-87,-78
-97,-126,-29,112,-34,-78,97,68,-14,-68,-87,-92
-92,-126,-34,109,-29,-80,102,78,-14,-63,-87,-92
-87,-122,-34,104,-26,-78,107,87,-9,-63,-87,-92
-82,-117,-34,100,-24,-75,117,97,0,-63,-87,-82
-82,-112,-29,97,-26,-70,117,97,4,-58,-82,-82
-78,-112,-34,95,-21,-73,122,102,9,-53,-78,-82
-68,-112,-43,90,-12,-78,122,122,19,-53,-73,-78
-68,-107,-39,87,-14,-73,122,126,19,-53,-73,-78
-73,-102,-29,87,-21,-65,112,131,24,-53,-73,-78
-78,-107,-29,92,-24,-68,122,131,24,-53,-78,-82
-82,-107,-24,95,-29,-65,136,131,24,-53,-82,-92
-87,-112,-24,100,-31,-68,141,146,24,-53,-87,-92
-92,-112,-19,102,-36,-65,151,156,34,-53,-87,-92
-87,-112,-24,100,-31,-68,156,161,39,-53,-82,-92
-87,-112,-24,100,-31,-68,161,170,43,-48,-82,-92
-82,-102,-19,92,-31,-61,165,175,34,-48,-82,-92
-82,-97,-14,90,-34,-56,175,185,34,-43,-82,-92
-82,-97,-14,90,-34,-56,180,195,39,-43,-82,-92
-82,-97,-14,90,-34,-56,185,195,39,-43,-82,-92
-92,-92,0,92,-46,-46,190,204,48,-43,-87,-92
-97,-92,4,95,-51,-43,195,224,58,-39,-92,-92
-97,-92,4,95,-51,-43,200,229,63,-39,-92,-92
-97,-92,4,95,-51,-43,209,239,68,-39,-92,-92
-92,-92,0,92,-46,-46,219,253,73,-39,-87,-97
-87,-87,0,87,-43,-43,224,268,78,-39,-87,-102
-97,-87,9,92,-53,-39,234,283,87,-39,-87,-102
-97,-87,9,92,-53,-39,244,307,92,-43,-87,-102
-102,-78,24,90,-63,-26,248,331,102,-43,-97,-107
-102,-73,29,87,-65,-21,263,351,107,-43,-102,-107
-102,-73,29,87,-65,-21,278,370,112,-43,-102,-117
-102,-68,34,85,-68,-17,297,380,112,-48,-107,-126
-102,-53,48,78,-75,-2,317,395,112,-53,-112,-131
-97,-34,63,65,-80,14,336,419,117,-53,-122,-141
-107,-43,63,75,-85,9,351,424,112,-78,-141,-156
-117,-58,58,87,-87,0,361,429,102,-87,-161,-180
-126,-63,63,95,-95,0,366,444,97,-97,-170,-185
-131,-63,68,97,-100,2,375,453,92,-102,-180,-190
-126,-68,58,97,-92,-4,390,468,78,-107,-190,-190
-126,-68,58,97,-92,-4,400,478,73,-117,-195,-190
-126,-73,53,100,-90,-9,405,497,78,-126,-200,-204
-126,-78,48,102,-87,-14,409,512,82,-136,-200,-204
-131,-87,43,109,-87,-21,409,522,82,-141,-209,-200
-136,-97,39,117,-87,-29,409,531,78,-141,-209,-195
-117,-87,29,102,-73,-29,405,522,73,-141,-195,-185
-97,-73,24,85,-61,-24,395,512,68,-141,-185,-175
-87,-63,24,75,-56,-19,385,507,63,-141,-185,-175
-73,-39,34,56,-53,-2,370,492,58,-136,-175,-165
-58,-29,29,43,-43,0,351,478,58,-126,-165,-156
-34,-14,19,24,-26,2,317,458,63,-107,-141,-136
-19,0,19,9,-19,9,283,429,63,-92,-136,-122
-4,0,4,2,-4,2,248,395,68,-78,-117,-102
14,19,4,-17,4,12,214,361,73,-58,-92,-82
39,24,-14,-31,26,4,175,322,78,-29,-63,-53
48,29,-19,-39,34,4,141,283,78,-9,-34,-34
58,43,-14,-51,36,14,97,239,78,9,-9,-14
58,48,-9,-53,34,19,58,200,78,19,9,4
53,43,-9,-48,31,17,34,156,68,29,14,9
53,39,-14,-46,34,12,4,112,58,29,24,14
48,29,-19,-39,34,4,-9,82,53,24,24,19
48,29,-19,-39,34,4,-29,48,39,29,29,29
48,24,-24,-36,36,0,-39,24,29,29,39,34
53,19,-34,-36,43,-7,-43,9,24,34,48,39
48,19,-29,-34,39,-4,-34,-9,14,39,48,39
48,14,-34,-31,41,-9,-48,-24,9,34,48,39
48,14,-34,-31,41,-9,-63,-34,0,24,43,34
48,14,-34,-31,41,-9,-63,-34,-9,19,43,34
39,14,-24,-26,31,-4,-73,-43,-9,19,43,29
24,14,-9,-19,17,2,-63,-48,-14,14,34,24
14,4,-9,-9,12,-2,-53,-53,-19,9,34,24
29,4,-24,-17,26,-9,-68,-58,-14,4,29,19
39,4,-34,-21,36,-14,-78,-58,-4,4,29,19
24,-4,-29,-9,26,-17,-78,-63,-14,4,19,14
4,-14,-19,4,12,-17,-78,-68,-24,4,9,9
4,-29,-34,12,19,-31,-78,-73,-29,0,9,4
4,-39,-43,17,24,-41,-78,-78,-29,-4,9,4
4,-39,-43,17,24,-41,-82,-78,-29,-4,9,4
0,-39,-39,19,19,-39,-82,-82,-29,-4,9,4
0,-29,-29,14,14,-29,-78,-87,-29,-4,14,4
0,-19,-19,9,9,-19,-73,-87,-29,-9,14,4
0,-19,-19,9,9,-19,-68,-92,-29,-9,14,4
-4,-14,-9,9,2,-12,-63,-97,-24,-4,14,4
-4,-14,-9,9,2,-12,-68,-97,-24,-4,19,4
-4,-14,-9,9,2,-12,-73,-97,-24,-4,19,4
-9,-19,-9,14,0,-14,-68,-97,-29,-4,19,4
-14,-24,-9,19,-2,-17,-68,-97,-34,-4,19,4
-19,-29,-9,24,-4,-19,-63,-102,-34,-4,14,4
-19,-34,-14,26,-2,-24,-63,-107,-34,-4,4,0
-9,-19,-9,14,0,-14,-58,-92,-34,-9,4,0
-9,-4,4,7,-7,0,-53,-78,-39,-9,4,-4
-9,-4,4,7,-7,0,-48,-78,-39,0,14,-4
-9,-4,4,7,-7,0,-48,-78,-39,9,19,-4
-9,-9,0,9,-4,-4,-53,-68,-34,4,19,-4
-19,-19,0,19,-9,-9,-53,-58,-29,4,14,-4
-34,-34,0,34,-17,-17,-48,-68,-29,-9,4,-9
-43,-48,-4,46,-19,-26,-48,-78,-29,-19,-9,-14
-34,-43,-9,39,-12,-26,-48,-68,-29,-19,-9,-14
-24,-34,-9,29,-7,-21,-53,-68,-29,-19,-9,-14
-34,-29,4,31,-19,-12,-53,-68,-24,-14,-4,-19
-34,-34,0,34,-17,-17,-48,-68,-19,-19,0,-19
-29,-34,-4,31,-12,-19,-43,-68,-29,-24,-9,-24
-24,-29,-4,26,-9,-17,-39,-68,-29,-24,-14,-24
-24,-29,-4,26,-9,-17,-29,-58,-29,-24,-14,-29
-24,-29,-4,26,-9,-17,-19,-48,-29,-24,-14,-29
-24,-29,-4,26,-9,-17,-34,-53,-34,-24,-14,-29
-24,-29,-4,26,-9,-17,-48,-63,-34,-24,-14,-29
-24,-34,-9,29,-7,-21,-43,-68,-34,-24,-14,-29
-24,-34,-9,29,-7,-21,-34,-68,-39,-29,-19,-34
-29,-34,-4,31,-12,-19,-34,-73,-43,-34,-24,-39
-34,-39,-4,36,-14,-21,-34,-82,-53,-43,-29,-43
-34,-39,-4,36,-14,-21,-34,-82,-53,-43,-34,-43
-34,-39,-4,36,-14,-21,-24,-78,-53,-43,-34,-43
-34,-39,-4,36,-14,-21,-34,-78,-53,-43,-34,-43
-34,-39,-4,36,-14,-21,-39,-78,-53,-43,-34,-43
-29,-43,-14,36,-7,-29,-48,-78,-53,-43,-29,-43
-29,-48,-19,39,-4,-34,-58,-78,-53,-39,-29,-39
-29,-43,-14,36,-7,-29,-53,-78,-48,-39,-24,-39
-14,-29,-14,21,0,-21,-48,-73,-39,-29,-14,-34
0,-14,-14,7,7,-14,-43,-53,-24,-19,-4,-19
19,0,-19,-9,19,-9,-39,-39,-9,-9,0,-9
24,4,-19,-14,21,-7,-39,-34,-4,0,4,-9
29,9,-19,-19,24,-4,-39,-29,0,9,9,-9
29,9,-19,-19,24,-4,-39,-29,0,9,9,-9
29,9,-19,-19,24,-4,-34,-29,0,9,9,-9
29,14,-14,-21,21,0,-34,-29,-4,9,9,-9
39,24,-14,-31,26,4,-34,-24,-9,4,9,-9
63,29,-34,-46,48,-2,-29,-19,0,14,34,4
73,53,-19,-63,46,17,-24,-9,9,29,48,24
87,73,-14,-80,51,29,-24,-9,24,39,53,34
97,97,0,-97,48,48,-34,-19,24,43,63,39
102,97,-4,-100,53,46,-43,-34,19,43,63,39
117,92,-24,-104,70,34,-58,-43,19,43,63,43
117,78,-39,-97,78,19,-68,-43,14,39,63,43
117,58,-58,-87,87,0,-68,-53,4,29,53,29
112,43,-68,-78,90,-12,-78,-53,-9,19,43,19
112,34,-78,-73,95,-21,-97,-43,-4,9,34,19
112,24,-87,-68,100,-31,-122,-53,-19,0,24,14
112,14,-97,-63,104,-41,-141,-73,-34,-4,19,14
117,14,-102,-65,109,-43,-131,-73,-39,-4,19,14
117,19,-97,-68,107,-39,-122,-73,-43,-9,14,14
117,19,-97,-68,107,-39,-117,-82,-48,-9,9,9
107,4,-102,-56,104,-48,-112,-92,-53,-14,4,4
82,-4,-87,-39,85,-46,-107,-102,-63,-24,-4,-9
34,-19,-53,-7,43,-36,-97,-107,-73,-39,-19,-19
-9,-43,-34,26,12,-39,-82,-107,-73,-39,-24,-29
-19,-43,-24,31,2,-34,-82,-102,-73,-43,-29,-34
-24,-43,-19,34,-2,-31,-87,-102,-73,-43,-34,-34
-29,-48,-19,39,-4,-34,-92,-112,-78,-53,-39,-39
-29,-48,-19,39,-4,-34,-87,-117,-82,-58,-39,-39
-39,-53,-14,46,-12,-34,-87,-117,-82,-63,-43,-43
-34,-53,-19,43,-7,-36,-82,-112,-82,-63,-48,-43
-29,-48,-19,39,-4,-34,-82,-107,-87,-68,-48,-48
-29,-48,-19,39,-4,-34,-82,-107,-87,-68,-48,-48
-29,-53,-24,41,-2,-39,-82,-102,-87,-68,-48,-48
-34,-53,-19,43,-7,-36,-82,-107,-92,-68,-53,-48
-43,-58,-14,51,-14,-36,-82,-112,-97,-68,-58,-48
-43,-58,-14,51,-14,-36,-78,-122,-97,-68,-58,-53
-43,-53,-9,48,-17,-31,-68,-126,-97,-68,-58,-53
-43,-53,-9,48,-17,-31,-63,-126,-92,-58,-53,-53
-43,-53,-9,48,-17,-31,-63,-122,-87,-48,-48,-53
-53,-63,-9,58,-21,-36,-73,-122,-87,-63,-53,-53
-78,-87,-9,82,-34,-48,-63,-107,-87,-82,-68,-63
-117,-112,4,114,-61,-53,0,-73,-78,-82,-82,-87
-156,-131,24,143,-90,-53,102,19,-29,-68,-82,-102
-161,-122,39,141,-100,-41,185,161,68,-9,-48,-87
-126,-87,39,107,-82,-24,244,312,239,131,58,-9
-53,24,78,14,-65,51,292,444,488,356,253,146
73,170,97,-122,-12,134,336,614,761,605,473,322
248,336,87,-292,80,212,268,668,966,824,673,492
463,570,107,-517,178,339,34,522,1083,1034,883,702
629,785,156,-707,236,470,-253,219,1068,1146,1044,868
732,1005,273,-868,229,639,-697,-312,883,1166,1137,1010
775,1224,448,-1000,163,836,-1278,-1102,546,1098,1185,1137
688,1288,600,-988,43,944,-1712,-1878,39,868,1083,1127
575,1049,473,-812,51,761,-1815,-2196,-453,478,795,946
370,561,190,-466,90,375,-1742,-2308,-1249,-370,48,366
122,292,170,-207,-24,231,-1342,-1991,-1478,-810,-409,-53
48,292,244,-170,-97,268,-966,-1449,-1107,-595,-297,-29
34,244,209,-139,-87,226,-673,-1005,-800,-439,-219,-29
29,204,175,-117,-73,190,-527,-761,-624,-361,-204,-39
9,136,126,-73,-58,131,-424,-595,-488,-312,-195,-68
-58,53,112,2,-85,82,-253,-409,-375,-258,-195,-117
-107,-39,68,73,-87,14,-126,-248,-287,-229,-185,-141
-136,-53,82,95,-109,14,-39,-131,-190,-180,-161,-131
-107,-53,53,80,-80,0,-4,-58,-102,-122,-122,-107
-102,-58,43,80,-73,-7,14,-29,-78,-102,-107,-102
-97,-68,29,82,-63,-19,48,0,-68,-87,-92,-97
-102,-78,24,90,-63,-26,68,29,-58,-82,-87,-92
-107,-68,39,87,-73,-14,68,48,-34,-78,-87,-87
-107,-58,48,82,-78,-4,68,48,-34,-78,-87,-92
-97,-58,39,78,-68,-9,78,58,-34,-68,-82,-92
-87,-53,34,70,-61,-9,87,68,-29,-63,-78,-92
-82,-53,29,68,-56,-12,102,78,-19,-63,-78,-82
-82,-53,29,68,-56,-12,107,78,-14,-58,-73,-82
-87,-58,29,73,-58,-14,112,78,-19,-58,-78,-87
-87,-63,24,75,-56,-19,112,92,-19,-63,-82,-87
-87,-63,24,75,-56,-19,112,97,-19,-63,-82,-87
-92,-63,29,78,-61,-17,102,102,-14,-63,-82,-87
-92,-68,24,80,-58,-21,102,107,-9,-63,-82,-87
-92,-68,24,80,-58,-21,107,112,-4,-63,-82,-92
-92,-68,24,80,-58,-21,112,126,-4,-63,-82,-92
-92,-63,29,78,-61,-17,122,136,4,-63,-78,-92
-92,-68,24,80,-58,-21,122,136,9,-63,-73,-92
-97,-73,24,85,-61,-24,122,141,14,-58,-73,-92
-97,-68,29,82,-63,-19,126,151,14,-58,-78,-97
-102,-68,34,85,-68,-17,136,165,24,-53,-82,-102
-92,-63,29,78,-61,-17,151,175,29,-53,-82,-102
-82,-58,24,70,-53,-17,165,175,29,-53,-82,-102
-97,-53,43,75,-70,-4,170,185,34,-53,-82,-102
-107,-53,53,80,-80,0,175,204,39,-48,-82,-102
-107,-53,53,80,-80,0,175,209,43,-48,-82,-102
-107,-53,53,80,-80,0,180,219,48,-48,-82,-102
-107,-53,53,80,-80,0,195,239,53,-43,-78,-107
-107,-48,58,78,-82,4,204,258,58,-39,-78,-112
-126,-48,78,87,-102,14,219,273,68,-34,-78,-112
-136,-48,87,92,-112,19,234,297,73,-34,-78,-112
-126,-39,87,82,-107,24,253,317,87,-34,-82,-112
-112,-34,78,73,-95,21,283,331,97,-34,-82,-107
-112,-34,78,73,-95,21,287,351,102,-34,-78,-112
-112,-29,82,70,-97,26,297,361,102,-39,-78,-117
-122,-39,82,80,-102,21,307,375,107,-39,-82,-122
-126,-43,82,85,-104,19,317,400,117,-34,-92,-131
-136,-29,107,82,-122,39,331,419,117,-48,-97,-126
-146,-19,126,82,-136,53,341,439,112,-48,-102,-131
-156,-34,122,95,-139,43,351,453,112,-58,-112,-136
-161,-43,117,102,-139,36,366,463,112,-63,-122,-141
-156,-43,112,100,-134,34,385,473,97,-73,-131,-151
-156,-39,117,97,-136,39,400,478,92,-87,-136,-161
-156,-34,122,95,-139,43,414,483,78,-102,-151,-180
-156,-29,126,92,-141,48,429,483,63,-117,-161,-185
-151,-29,122,90,-136,46,429,492,63,-122,-170,-185
-146,-29,117,87,-131,43,429,502,58,-122,-170,-185
-136,-29,107,82,-122,39,419,502,58,-126,-170,-185
-126,-24,102,75,-114,39,405,502,58,-131,-175,-185
-122,-24,97,73,-109,36,395,497,48,-136,-180,-190
-112,-9,102,61,-107,46,380,483,39,-136,-175,-185
-97,0,97,48,-97,48,361,468,39,-126,-165,-170
-73,14,87,29,-80,51,326,448,43,-107,-141,-146
-53,34,87,9,-70,61,287,419,43,-97,-131,-136
-34,39,73,-2,-53,56,248,385,48,-87,-107,-122
-14,53,68,-19,-41,61,200,351,53,-78,-92,-102
9,53,43,-31,-17,48,146,312,58,-58,-73,-73
24,58,34,-41,-4,46,126,273,58,-39,-48,-53
39,73,34,-56,2,53,97,229,58,-19,-29,-34
48,82,34,-65,7,58,63,185,58,-9,-9,-14
53,82,29,-68,12,56,43,136,48,0,-4,-9
53,73,19,-63,17,46,9,87,39,4,4,-4
48,58,9,-53,19,34,-9,53,34,4,4,0
43,58,14,-51,14,36,-29,24,19,14,9,4
39,53,14,-46,12,34,-39,4,9,19,19,4
53,58,4,-56,24,31,-53,0,9,19,24,9
58,68,9,-63,24,39,-53,-9,4,19,19,9
53,58,4,-56,24,31,-53,-43,0,14,19,9
48,53,4,-51,21,29,-53,-73,-9,4,14,4
43,39,-4,-41,24,17,-53,-58,-19,0,14,4
29,24,-4,-26,17,9,-63,-53,-19,0,14,0
19,24,4,-21,7,14,-68,-58,-24,-4,4,-4
14,14,0,-14,7,7,-73,-63,-29,-9,4,-4
14,14,0,-14,7,7,-78,-73,-34,-14,-4,-9
9,14,4,-12,2,9,-78,-78,-34,-14,-9,-9
14,19,4,-17,4,12,-78,-78,-34,-14,-9,-9
14,24,9,-19,2,17,-78,-78,-34,-14,-9,-9
14,19,4,-17,4,12,-78,-73,-39,-14,-9,-14
14,19,4,-17,4,12,-78,-68,-39,-14,-9,-14
14,19,4,-17,4,12,-82,-68,-39,-14,-14,-14
9,19,9,-14,0,14,-82,-73,-39,-14,-19,-14
9,19,9,-14,0,14,-82,-82,-43,-19,-19,-19
9,19,9,-14,0,14,-82,-87,-48,-29,-24,-24
4,19,14,-12,-4,17,-73,-87,-48,-29,-24,-24
-4,24,29,-9,-17,26,-63,-87,-43,-24,-24,-24
-4,24,29,-9,-17,26,-63,-87,-43,-24,-19,-24
-4,24,29,-9,-17,26,-63,-87,-43,-24,-19,-24
0,24,24,-12,-12,24,-68,-87,-43,-24,-19,-19
4,24,19,-14,-7,21,-78,-87,-43,-24,-19,-14
0,19,19,-9,-9,19,-73,-82,-43,-19,-19,-14
0,14,14,-7,-7,14,-73,-78,-43,-14,-24,-19
0,14,14,-7,-7,14,-63,-78,-39,-19,-24,-19
-9,14,24,-2,-17,19,-53,-78,-39,-19,-24,-24
-9,14,24,-2,-17,19,-48,-73,-39,-19,-19,-24
-9,14,24,-2,-17,19,-48,-68,-39,-19,-19,-24
-9,14,24,-2,-17,19,-53,-68,-39,-24,-19,-24
-19,9,29,4,-24,19,-53,-68,-39,-24,-24,-24
-19,9,29,4,-24,19,-53,-73,-39,-29,-24,-29
-14,9,24,2,-19,17,-58,-78,-39,-29,-29,-34
-14,4,19,4,-17,12,-53,-68,-48,-29,-29,-34
-14,4,19,4,-17,12,-53,-68,-58,-29,-29,-34
-24,4,29,9,-26,17,-48,-68,-48,-29,-29,-39
-24,-4,19,14,-21,7,-39,-68,-39,-39,-29,-39
-14,0,14,7,-14,7,-39,-63,-48,-43,-39,-43
-4,9,14,-2,-9,12,-39,-58,-48,-43,-43,-43
-24,-4,19,14,-21,7,-39,-58,-48,-43,-43,-48
-43,-19,24,31,-34,2,-39,-58,-48,-43,-43,-48
-43,-19,24,31,-34,2,-39,-53,-48,-43,-43,-48
-43,-19,24,31,-34,2,-39,-53,-43,-43,-43,-48
-39,-19,19,29,-29,0,-43,-63,-43,-43,-43,-48
-34,-14,19,24,-26,2,-43,-68,-48,-48,-48,-53
-34,-14,19,24,-26,2,-43,-68,-48,-48,-53,-53
-34,-19,14,26,-24,-2,-43,-73,-53,-53,-58,-53
-34,-19,14,26,-24,-2,-39,-78,-58,-58,-63,-58
-34,-19,14,26,-24,-2,-24,-78,-63,-63,-63,-63
-34,-19,14,26,-24,-2,-34,-78,-63,-63,-63,-63
-34,-19,14,26,-24,-2,-39,-78,-63,-63,-63,-63
-24,-9,14,17,-19,2,-43,-73,-63,-63,-58,-63
-19,4,24,7,-21,14,-43,-68,-58,-58,-53,-58
0,14,14,-7,-7,14,-34,-58,-43,-43,-39,-43
19,29,9,-24,4,19,-29,-48,-29,-29,-29,-29
19,29,9,-24,4,19,-29,-48,-24,-29,-29,-29
19,29,9,-24,4,19,-29,-48,-19,-29,-29,-29
19,34,14,-26,2,24,-24,-48,-19,-29,-29,-24
19,39,19,-29,0,29,-19,-48,-19,-24,-29,-19
19,43,24,-31,-2,34,-19,-48,-24,-24,-29,-19
29,53,24,-41,2,39,-24,-43,-29,-24,-29,-19
53,48,-4,-51,29,21,-29,-39,-24,-14,-14,-14
63,63,0,-63,31,31,-34,-29,-19,0,-9,-4
82,92,9,-87,36,51,-34,-29,-4,9,-4,4
97,126,29,-112,34,78,-43,-39,-4,14,4,9
107,136,29,-122,39,82,-58,-34,0,19,9,14
126,141,14,-134,56,78,-78,-24,9,24,14,24
126,122,-4,-124,65,58,-87,-24,4,19,14,24
126,97,-29,-112,78,34,-87,-34,-4,9,4,9
112,82,-29,-97,70,26,-82,-58,-29,0,-4,0
102,73,-29,-87,65,21,-87,-73,-34,-9,-14,0
102,53,-48,-78,75,2,-97,-82,-48,-29,-19,-4
102,34,-68,-68,85,-17,-102,-102,-63,-43,-19,-4
117,48,-68,-82,92,-9,-107,-92,-53,-34,-19,-4
126,68,-58,-97,92,4,-112,-82,-43,-29,-24,-4
126,68,-58,-97,92,4,-112,-92,-48,-29,-29,-14
117,53,-63,-85,90,-4,-112,-102,-53,-34,-34,-24
82,29,-53,-56,68,-12,-112,-107,-63,-43,-43,-39
24,0,-24,-12,24,-12,-107,-107,-73,-58,-58,-48
-19,-24,-4,21,-7,-14,-92,-112,-78,-58,-63,-58
-29,-24,4,26,-17,-9,-92,-112,-82,-63,-68,-63
-29,-19,9,24,-19,-4,-92,-112,-82,-63,-68,-63
-29,-19,9,24,-19,-4,-92,-122,-87,-73,-68,-68
-29,-19,9,24,-19,-4,-87,-131,-102,-78,-73,-68
-39,-24,14,31,-26,-4,-87,-136,-112,-82,-82,-73
-43,-29,14,36,-29,-7,-82,-146,-112,-82,-87,-73
-48,-29,19,39,-34,-4,-82,-156,-117,-87,-87,-78
-34,-24,9,29,-21,-7,-82,-156,-112,-87,-87,-73
-19,-24,-4,21,-7,-14,-82,-151,-107,-87,-87,-68
-29,-24,4,26,-17,-9,-82,-141,-107,-82,-82,-68
-43,-29,14,36,-29,-7,-82,-131,-107,-78,-78,-68
-43,-34,9,39,-26,-12,-78,-126,-107,-78,-78,-73
-43,-34,9,39,-26,-12,-68,-117,-107,-78,-78,-73
-43,-39,4,41,-24,-17,-63,-126,-107,-82,-78,-78
-43,-43,0,43,-21,-21,-63,-131,-107,-87,-78,-82
-48,-48,0,48,-24,-24,-63,-131,-107,-92,-82,-82
-68,-68,0,68,-34,-34,-43,-117,-107,-102,-97,-92
-107,-87,19,97,-63,-34,19,-58,-87,-97,-107,-107
-146,-102,43,124,-95,-29,122,58,-29,-78,-102,-112
-156,-102,53,129,-104,-24,204,175,63,-24,-73,-102
-126,-78,48,102,-87,-14,263,302,229,112,29,-29
-39,48,87,-4,-63,68,297,439,478,336,224,126
102,209,107,-156,-2,158,326,614,751,585,444,302
287,370,82,-329,102,226,248,663,956,795,634,463
512,600,87,-556,212,344,4,512,1073,995,834,663
683,805,122,-744,280,463,-302,229,1073,1107,990,829
790,1015,224,-902,283,619,-766,-283,902,1127,1078,971
863,1234,370,-1049,246,802,-1361,-1073,575,1063,1127,1098
805,1298,492,-1051,156,895,-1810,-1849,78,839,1024,1088
673,1073,400,-873,136,736,-1898,-2191,-414,473,761,917
448,600,151,-524,148,375,-1810,-2327,-1210,-351,39,346
175,326,151,-251,12,239,-1400,-2010,-1454,-790,-414,-63
78,322,244,-200,-82,283,-1015,-1468,-1098,-575,-297,-29
58,273,214,-165,-78,244,-712,-1024,-790,-429,-219,-29
48,234,185,-141,-68,209,-556,-780,-614,-361,-204,-39
19,156,136,-87,-58,146,-439,-614,-483,-312,-195,-73
-58,63,122,-2,-90,92,-253,-429,-375,-258,-195,-126
-102,-24,78,63,-90,26,-122,-268,-297,-239,-195,-151
-126,-34,92,80,-109,29,-29,-151,-209,-200,-180,-141
-97,-34,63,65,-80,14,9,-73,-122,-136,-136,-117
-92,-39,53,65,-73,7,34,-39,-97,-112,-117,-112
-82,-34,48,58,-65,7,63,-9,-82,-97,-107,-107
-82,-29,53,56,-68,12,78,19,-68,-92,-107,-102
-92,-39,53,65,-73,7,78,39,-43,-87,-107,-102
-97,-48,48,73,-73,0,78,39,-43,-87,-107,-112
-97,-53,43,75,-70,-4,82,48,-43,-82,-107,-112
-97,-53,43,75,-70,-4,87,58,-39,-82,-107,-112
-97,-53,43,75,-70,-4,102,68,-29,-82,-107,-102
-102,-53,48,78,-75,-2,107,68,-24,-78,-102,-102
-102,-53,48,78,-75,-2,112,58,-24,-73,-102,-107
-97,-53,43,75,-70,-4,112,63,-19,-73,-102,-107
-92,-48,43,70,-68,-2,122,68,-19,-73,-102,-107
-92,-43,48,68,-70,2,122,73,-14,-73,-102,-107
-92,-48,43,70,-68,-2,122,82,-9,-73,-97,-102
-92,-48,43,70,-68,-2,126,92,-4,-73,-92,-102
-92,-48,43,70,-68,-2,131,117,-4,-73,-97,-102
-92,-43,48,68,-70,2,141,136,4,-73,-97,-102
-87,-43,43,65,-65,0,146,141,9,-73,-92,-102
-87,-43,43,65,-65,0,151,151,14,-68,-92,-102
-87,-39,48,63,-68,4,146,156,9,-68,-92,-102
-92,-39,53,65,-73,7,146,165,14,-63,-92,-102
-97,-43,53,70,-75,4,151,175,19,-63,-92,-107
-102,-48,53,75,-78,2,156,175,19,-63,-92,-112
-107,-43,63,75,-85,9,165,185,24,-63,-92,-112
-107,-43,63,75,-85,9,175,204,29,-58,-92,-112
-112,-43,68,78,-90,12,180,209,29,-58,-92,-112
-117,-43,73,80,-95,14,190,219,29,-58,-92,-112
-117,-43,73,80,-95,14,209,234,34,-58,-92,-112
-117,-39,78,78,-97,19,224,248,39,-58,-97,-112
-117,-29,87,73,-102,29,244,263,53,-48,-92,-107
-107,-19,87,63,-97,34,263,287,63,-43,-87,-102
-122,-24,97,73,-109,36,268,307,73,-43,-92,-107
-131,-34,97,82,-114,31,283,322,78,-43,-92,-107
-131,-34,97,82,-114,31,292,341,82,-43,-92,-112
-131,-29,102,80,-117,36,307,351,82,-48,-97,-117
-131,-24,107,78,-119,41,322,366,87,-53,-102,-122
-126,-14,112,70,-119,48,336,390,97,-53,-112,-131
-136,-14,122,75,-129,53,356,409,97,-68,-117,-131
-146,-19,126,82,-136,53,370,429,92,-68,-122,-141
-151,-24,126,87,-139,51,380,444,92,-78,-131,-146
-151,-24,126,87,-139,51,395,453,92,-82,-141,-151
-156,-29,126,92,-141,48,409,468,78,-87,-151,-161
-165,-29,136,97,-151,53,419,478,73,-97,-156,-170
-170,-34,136,102,-153,51,424,488,68,-107,-165,-190
-175,-39,136,107,-156,48,429,492,63,-117,-170,-195
-175,-39,136,107,-156,48,429,502,58,-126,-180,-195
-175,-39,136,107,-156,48,429,512,48,-131,-180,-195
-165,-34,131,100,-148,48,429,512,48,-136,-180,-195
-156,-24,131,90,-143,53,424,512,48,-141,-185,-195
-126,-19,107,73,-117,43,414,502,43,-141,-185,-195
-92,0,92,46,-92,46,400,483,39,-136,-175,-185
-97,9,107,43,-102,58,380,453,29,-131,-170,-175
-92,24,117,34,-104,70,346,419,24,-117,-151,-156
-63,43,107,9,-85,75,312,390,24,-102,-136,-141
-34,48,82,-7,-58,65,278,356,29,-87,-107,-122
-14,63,78,-24,-46,70,239,326,39,-73,-92,-102
9,63,53,-36,-21,58,195,292,48,-48,-73,-73
29,68,39,-48,-4,53,151,268,53,-29,-48,-53
48,82,34,-65,7,58,97,239,58,-9,-29,-34
58,92,34,-75,12,63,58,200,63,0,-9,-14
63,92,29,-78,17,61,34,156,58,9,-4,-9
58,82,24,-70,17,53,4,112,48,14,0,-4
48,68,19,-58,14,43,-9,82,43,14,-4,0
43,63,19,-53,12,41,-29,48,24,14,0,0
39,53,14,-46,12,34,-39,24,9,9,9,-4
39,48,9,-43,14,29,-58,0,4,9,9,0
29,48,19,-39,4,34,-63,-29,-4,9,0,0
34,48,14,-41,9,31,-63,-43,-9,4,0,0
39,53,14,-46,12,34,-63,-53,-19,-4,-4,-4
39,48,9,-43,14,29,-63,-58,-34,-9,-4,-4
29,43,14,-36,7,29,-73,-73,-39,-9,-4,-9
24,39,14,-31,4,26,-68,-82,-43,-14,-14,-14
24,24,0,-24,12,12,-63,-92,-48,-19,-14,-14
24,24,0,-24,12,12,-68,-97,-48,-24,-19,-14
19,24,4,-21,7,14,-68,-97,-43,-24,-19,-9
14,24,9,-19,2,17,-68,-92,-43,-19,-14,-9
4,24,19,-14,-7,21,-68,-87,-43,-14,-9,-9
4,14,9,-9,-2,12,-82,-73,-39,-14,-9,-14
4,9,4,-7,0,7,-97,-58,-29,-14,-9,-14
4,9,4,-7,0,7,-112,-68,-39,-14,-14,-14
0,9,9,-4,-4,9,-122,-82,-48,-14,-19,-14
0,9,9,-4,-4,9,-102,-82,-48,-14,-19,-14
0,9,9,-4,-4,9,-82,-78,-48,-19,-24,-14
4,9,4,-7,0,7,-78,-78,-48,-19,-24,-14
4,14,9,-9,-2,12,-73,-78,-43,-14,-24,-14
4,14,9,-9,-2,12,-82,-82,-43,-19,-19,-14
4,14,9,-9,-2,12,-92,-87,-43,-24,-19,-14
4,14,9,-9,-2,12,-78,-87,-43,-24,-19,-14
4,14,9,-9,-2,12,-68,-87,-43,-24,-19,-14
0,9,9,-4,-4,9,-63,-82,-48,-24,-19,-14
0,4,4,-2,-2,4,-63,-78,-53,-24,-24,-19
-4,4,9,0,-7,7,-63,-82,-53,-29,-24,-19
-19,4,24,7,-21,14,-63,-87,-58,-29,-24,-24
-19,4,24,7,-21,14,-58,-87,-58,-24,-19,-24
-19,4,24,7,-21,14,-58,-87,-58,-19,-19,-24
-19,4,24,7,-21,14,-58,-78,-48,-19,-19,-24
-29,0,29,14,-29,14,-53,-68,-39,-14,-24,-24
-29,0,29,14,-29,14,-48,-68,-39,-19,-24,-29
-24,0,24,12,-24,12,-48,-68,-39,-19,-29,-34
-24,-4,19,14,-21,7,-43,-58,-39,-19,-29,-34
-24,-4,19,14,-21,7,-43,-58,-39,-19,-29,-34
-34,-4,29,19,-31,12,-43,-58,-39,-19,-29,-39
-34,-14,19,24,-26,2,-39,-58,-39,-29,-29,-39
-34,-24,9,29,-21,-7,-39,-58,-48,-39,-39,-43
-34,-29,4,31,-19,-12,-39,-58,-48,-43,-43,-43
-34,-29,4,31,-19,-12,-34,-58,-48,-43,-43,-48
-34,-29,4,31,-19,-12,-29,-58,-48,-43,-43,-48
-34,-24,9,29,-21,-7,-29,-53,-48,-43,-43,-48
-34,-19,14,26,-24,-2,-29,-53,-43,-43,-43,-48
-34,-24,9,29,-21,-7,-34,-58,-48,-43,-43,-48
-34,-24,9,29,-21,-7,-34,-58,-58,-48,-48,-53
-34,-24,9,29,-21,-7,-34,-58,-58,-48,-48,-58
-34,-29,4,31,-19,-12,-34,-63,-63,-53,-48,-63
-34,-34,0,34,-17,-17,-43,-68,-63,-53,-53,-63
-34,-39,-4,36,-14,-21,-48,-68,-63,-53,-53,-63
-24,-29,-4,26,-9,-17,-48,-68,-58,-48,-48,-53
-14,-24,-9,19,-2,-17,-48,-68,-53,-43,-43,-43
0,-9,-9,4,4,-9,-39,-63,-43,-34,-34,-34
9,0,-9,-4,9,-4,-29,-58,-39,-29,-29,-29
9,0,-9,-4,9,-4,-29,-48,-29,-24,-24,-24
9,0,-9,-4,9,-4,-29,-39,-19,-19,-19,-19
9,0,-9,-4,9,-4,-29,-34,-19,-19,-19,-19
14,4,-9,-9,12,-2,-29,-29,-19,-14,-19,-19
24,14,-9,-19,17,2,-29,-24,-19,-14,-19,-19
48,19,-29,-34,39,-4,-24,-19,-9,-4,0,-9
53,43,-9,-48,31,17,-24,-9,0,9,9,4
68,58,-9,-63,39,24,-24,-9,14,19,14,14
78,82,4,-80,36,43,-34,-19,14,24,24,19
82,87,4,-85,39,46,-48,-29,9,24,24,19
97,87,-9,-92,53,39,-68,-34,14,29,29,29
97,82,-14,-90,56,34,-78,-34,14,29,34,34
97,68,-29,-82,63,19,-78,-43,4,19,24,19
92,53,-39,-73,65,7,-78,-53,-14,9,14,9
92,39,-53,-65,73,-7,-82,-53,-14,0,4,9
92,24,-68,-58,80,-21,-87,-63,-29,-9,0,4
92,14,-78,-53,85,-31,-92,-87,-48,-19,-4,0
97,14,-82,-56,90,-34,-97,-92,-53,-24,-9,-4
97,19,-78,-58,87,-29,-107,-92,-53,-29,-14,-4
97,19,-78,-58,87,-29,-112,-102,-58,-29,-19,-9
107,4,-102,-56,104,-48,-117,-112,-63,-34,-19,-9
107,-4,-112,-51,109,-58,-117,-117,-73,-43,-24,-19
43,-19,-63,-12,53,-41,-107,-117,-82,-58,-39,-29
-19,-43,-24,31,2,-34,-92,-117,-82,-58,-43,-39
-29,-43,-14,36,-7,-29,-87,-112,-82,-63,-53,-48
-29,-43,-14,36,-7,-29,-82,-112,-82,-63,-58,-53
-29,-48,-19,39,-4,-34,-68,-122,-87,-73,-58,-58
-29,-48,-19,39,-4,-34,-48,-126,-92,-73,-58,-58
-39,-58,-19,48,-9,-39,-68,-126,-92,-73,-63,-63
-43,-68,-24,56,-9,-46,-82,-126,-92,-73,-68,-63
-53,-68,-14,61,-19,-41,-82,-126,-97,-73,-63,-63
-58,-68,-9,63,-24,-39,-82,-126,-97,-68,-58,-58
-58,-73,-14,65,-21,-43,-82,-117,-92,-68,-58,-58
-58,-73,-14,65,-21,-43,-82,-112,-87,-68,-58,-58
-63,-78,-14,70,-24,-46,-82,-112,-87,-68,-58,-58
-63,-78,-14,70,-24,-46,-82,-117,-87,-68,-58,-63
-63,-73,-9,68,-26,-41,-78,-117,-92,-68,-58,-63
-63,-73,-9,68,-26,-41,-73,-117,-97,-68,-58,-63
-58,-68,-9,63,-24,-39,-73,-112,-97,-63,-58,-63
-58,-68,-9,63,-24,-39,-73,-112,-97,-63,-63,-63
-58,-78,-19,68,-19,-48,-68,-112,-97,-73,-68,-63
-78,-92,-14,85,-31,-53,-19,-82,-87,-73,-73,-78
-136,-122,14,129,-75,-53,97,9,-63,-82,-92,-107
-165,-131,34,148,-100,-48,195,117,4,-53,-82,-112
-156,-141,14,148,-85,-63,253,224,141,48,-14,-73
-107,-63,43,85,-75,-9,302,351,361,239,146,48
-14,58,73,-21,-43,65,424,629,673,497,366,214
126,195,68,-161,29,131,463,795,927,732,570,375
356,414,58,-385,148,236,331,780,1132,976,795,585
531,619,87,-575,222,353,117,610,1210,1127,971,761
663,863,200,-763,231,531,-312,175,1117,1205,1102,936
741,1127,385,-934,178,756,-883,-580,834,1176,1185,1088
673,1356,683,-1015,-4,1019,-1498,-1639,302,1054,1210,1200
585,1263,678,-924,-46,971,-1800,-2210,-190,780,1049,1141
370,697,326,-534,21,512,-1873,-2527,-1200,-234,190,492
131,336,204,-234,-36,270,-1610,-2400,-1659,-849,-385,0
43,302,258,-173,-107,280,-1185,-1781,-1293,-653,-302,0
0,234,234,-117,-117,234,-819,-1244,-961,-507,-248,-19
19,214,195,-117,-87,204,-629,-932,-736,-414,-224,-29
19,156,136,-87,-58,146,-492,-712,-566,-351,-204,-58
-48,53,102,-2,-75,78,-312,-512,-444,-292,-204,-107
-92,-34,58,63,-75,12,-170,-336,-341,-253,-195,-131
-131,-48,82,90,-107,17,-53,-190,-224,-200,-170,-126
-117,-63,53,90,-85,-4,4,-82,-122,-136,-126,-102
-97,-68,29,82,-63,-19,24,-34,-87,-102,-107,-92
-73,-68,4,70,-39,-31,53,9,-63,-78,-92,-87
-73,-68,4,70,-39,-31,73,48,-48,-73,-87,-82
-78,-78,0,78,-39,-39,78,78,-24,-68,-87,-82
-87,-97,-9,92,-39,-53,78,68,-29,-68,-87,-92
-97,-107,-9,102,-43,-58,82,68,-34,-63,-87,-92
-102,-102,0,102,-51,-51,87,78,-29,-63,-87,-92
-102,-102,0,102,-51,-51,97,87,-19,-63,-87,-82
-102,-102,0,102,-51,-51,97,87,-14,-63,-82,-82
-102,-102,0,102,-51,-51,102,87,-14,-63,-82,-87
-97,-102,-4,100,-46,-53,102,97,-9,-63,-82,-87
-97,-102,-4,100,-46,-53,112,97,-9,-63,-82,-87
-102,-102,0,102,-51,-51,122,102,-4,-63,-82,-87
-102,-107,-4,104,-48,-56,131,102,-4,-63,-82,-87
-97,-107,-9,102,-43,-58,122,102,-4,-58,-82,-92
-92,-107,-14,100,-39,-61,112,117,-4,-53,-87,-92
-92,-97,-4,95,-43,-51,122,131,4,-53,-87,-92
-87,-92,-4,90,-41,-48,126,141,9,-53,-82,-92
-87,-92,-4,90,-41,-48,136,151,14,-53,-82,-92
-87,-87,0,87,-43,-43,146,161,14,-58,-82,-92
-102,-97,4,100,-53,-46,156,170,24,-53,-82,-92
-112,-107,4,109,-58,-51,161,175,29,-53,-82,-92
-102,-107,-4,104,-48,-56,161,175,29,-53,-82,-92
-97,-102,-4,100,-46,-53,161,185,34,-53,-82,-92
-92,-97,-4,95,-43,-51,165,204,43,-48,-82,-92
-87,-92,-4,90,-41,-48,170,209,53,-48,-82,-92
-87,-87,0,87,-43,-43,185,219,58,-48,-82,-92
-87,-82,4,85,-46,-39,204,234,63,-48,-82,-97
-87,-78,9,82,-48,-34,214,248,68,-48,-82,-102
-97,-78,19,87,-58,-29,224,263,78,-43,-78,-102
-102,-82,19,92,-61,-31,229,287,82,-39,-78,-97
-112,-82,29,97,-70,-26,229,307,92,-34,-82,-97
-112,-82,29,97,-70,-26,234,322,97,-34,-82,-97
-112,-82,29,97,-70,-26,239,341,102,-34,-82,-102
-107,-78,29,92,-68,-24,273,351,102,-34,-82,-107
-107,-78,29,92,-68,-24,302,366,102,-34,-82,-112
-92,-68,24,80,-58,-21,322,390,107,-34,-92,-122
-87,-63,24,75,-56,-19,341,405,107,-48,-97,-122
-107,-68,39,87,-73,-14,351,419,102,-48,-102,-131
-122,-73,48,97,-85,-12,361,434,102,-58,-112,-136
-131,-78,53,104,-92,-12,370,453,107,-63,-122,-141
-136,-82,53,109,-95,-14,380,478,97,-73,-131,-151
-136,-87,48,112,-92,-19,385,502,102,-82,-136,-156
-136,-97,39,117,-87,-29,385,527,107,-87,-146,-165
-131,-87,43,109,-87,-21,390,536,107,-92,-146,-165
-122,-78,43,100,-82,-17,390,551,112,-92,-151,-165
-107,-68,39,87,-73,-14,395,561,107,-92,-151,-165
-87,-58,29,73,-58,-14,395,561,107,-97,-151,-165
-87,-63,24,75,-56,-19,395,561,107,-107,-161,-170
-92,-73,19,82,-56,-26,395,556,102,-112,-165,-175
-82,-58,24,70,-53,-17,385,546,97,-107,-156,-165
-68,-48,19,58,-43,-14,370,531,97,-97,-146,-151
-43,-34,9,39,-26,-12,336,517,112,-78,-122,-126
-24,-14,9,19,-17,-2,302,497,122,-63,-107,-112
-14,-14,0,14,-7,-7,268,453,112,-53,-82,-92
-4,0,4,2,-4,2,234,409,102,-43,-73,-73
29,4,-24,-17,26,-9,195,366,107,-19,-53,-43
48,9,-39,-29,43,-14,161,322,107,0,-29,-24
58,29,-29,-43,43,0,117,273,107,19,-9,-4
68,43,-24,-56,46,9,82,229,107,29,9,14
73,43,-29,-58,51,7,63,185,87,39,14,19
73,39,-34,-56,53,2,34,141,68,43,24,24
68,29,-39,-48,53,-4,19,107,63,39,24,29
63,29,-34,-46,48,-2,0,73,48,39,29,34
48,19,-29,-34,39,-4,-14,53,39,39,34,34
39,9,-29,-24,34,-9,-34,39,34,39,29,39
29,4,-24,-17,26,-9,-43,14,24,39,19,34
24,-9,-34,-7,29,-21,-53,-4,19,34,19,29
19,-14,-34,-2,26,-24,-53,-14,9,19,9,24
19,-19,-39,0,29,-29,-53,-19,0,9,4,24
0,-29,-29,14,14,-29,-63,-34,0,9,4,19
-14,-34,-19,24,2,-26,-63,-39,-4,4,-4,14
-14,-43,-29,29,7,-36,-63,-43,-9,0,-4,14
-14,-43,-29,29,7,-36,-68,-48,-14,-4,-9,9
-4,-43,-39,24,17,-41,-63,-48,-24,-4,-9,9
9,-43,-53,17,31,-48,-58,-48,-34,-4,-9,9
9,-34,-43,12,26,-39,-53,-48,-24,0,-4,14
14,-29,-43,7,29,-36,-48,-48,-19,4,0,14
14,-29,-43,7,29,-36,-48,-53,-19,4,0,14
14,-29,-43,7,29,-36,-53,-58,-19,4,0,14
9,-29,-39,9,24,-34,-63,-68,-24,0,0,9
9,-29,-39,9,24,-34,-73,-73,-29,-4,0,4
9,-29,-39,9,24,-34,-58,-68,-34,-9,-9,4
9,-29,-39,9,24,-34,-39,-68,-39,-9,-14,4
4,-24,-29,9,17,-26,-29,-63,-34,-4,-14,4
4,-24,-29,9,17,-26,-24,-58,-34,-4,-9,4
4,-24,-29,9,17,-26,-24,-58,-29,-4,-9,4
4,-24,-29,9,17,-26,-19,-58,-24,-4,-9,4
4,-29,-34,12,19,-31,-24,-58,-24,-4,-4,4
0,-39,-39,19,19,-39,-24,-53,-24,-4,0,4
-4,-43,-39,24,17,-41,-24,-43,-19,-4,-4,9
-9,-43,-34,26,12,-39,-24,-39,-14,-9,-4,19
-19,-53,-34,36,7,-43,-29,-39,-19,-9,-4,4
-19,-63,-43,41,12,-53,-29,-39,-19,-9,-4,-4
-19,-63,-43,41,12,-53,-43,-34,-19,-4,-9,-4
-19,-63,-43,41,12,-53,-58,-29,-19,-4,-9,-4
-29,-68,-39,48,4,-53,-43,-29,-19,-4,-14,0
-29,-68,-39,48,4,-53,-29,-29,-19,-9,-14,0
-24,-63,-39,43,7,-51,-29,-34,-24,-9,-19,-4
-24,-63,-39,43,7,-51,-24,-29,-29,-9,-19,-4
-19,-58,-39,39,9,-48,-24,-29,-29,-9,-19,-4
-24,-53,-29,39,2,-41,-24,-29,-29,-9,-19,-9
-24,-63,-39,43,7,-51,-4,-34,-29,-19,-19,-9
-24,-68,-43,46,9,-56,9,-39,-39,-24,-29,-14
-24,-68,-43,46,9,-56,9,-39,-39,-29,-34,-14
-24,-68,-43,46,9,-56,9,-39,-39,-34,-34,-19
-29,-82,-53,56,12,-68,0,-39,-39,-34,-34,-19
-34,-97,-63,65,14,-80,-9,-34,-39,-34,-34,-19
-34,-97,-63,65,14,-80,-9,-29,-29,-29,-34,-19
-34,-102,-68,68,17,-85,-14,-29,-24,-24,-34,-19
-34,-97,-63,65,14,-80,-14,-29,-29,-29,-39,-24
-34,-92,-58,63,12,-75,-14,-29,-29,-29,-39,-24
-34,-97,-63,65,14,-80,-14,-34,-34,-34,-39,-24
-34,-97,-63,65,14,-80,-14,-34,-34,-34,-43,-24
-34,-97,-63,65,14,-80,-4,-29,-34,-34,-39,-24
-34,-97,-63,65,14,-80,-14,-29,-34,-34,-34,-24
-34,-87,-53,61,9,-70,-19,-29,-34,-34,-34,-24
-19,-78,-58,48,19,-68,-19,-29,-34,-29,-29,-19
-14,-78,-63,46,24,-70,-9,-34,-29,-14,-14,-9
-9,-78,-68,43,29,-73,0,-39,-29,0,0,0
0,-68,-68,34,34,-68,0,-19,-14,0,0,0
9,-58,-68,24,39,-63,0,0,0,0,0,0
9,-58,-68,24,39,-63,4,0,0,0,0,4
9,-53,-63,21,36,-58,9,-4,0,0,0,4
9,-53,-63,21,36,-58,14,-9,0,4,0,9
19,-43,-63,12,41,-53,14,-14,0,4,0,9
43,-39,-82,-2,63,-61,14,-9,9,14,19,19
53,-14,-68,-19,61,-41,14,0,19,29,29,34
68,0,-68,-34,68,-34,19,4,29,39,34,43
78,19,-58,-48,68,-19,14,0,24,43,43,48
82,19,-63,-51,73,-21,0,-9,19,43,43,48
97,14,-82,-56,90,-34,-19,-14,19,43,43,53
97,4,-92,-51,95,-43,-43,0,29,43,48,58
97,-9,-107,-43,102,-58,-58,4,34,39,43,48
92,-24,-117,-34,104,-70,-63,-4,14,29,34,39
92,-34,-126,-29,109,-80,-78,-4,14,19,24,39
92,-43,-136,-24,114,-90,-87,-19,0,9,19,29
92,-53,-146,-19,119,-100,-92,-43,-14,4,19,24
102,-43,-146,-29,124,-95,-87,-43,-14,4,19,24
107,-29,-136,-39,122,-82,-82,-43,-14,0,14,24
107,-39,-146,-34,126,-92,-82,-53,-24,0,4,19
97,-63,-161,-17,129,-112,-82,-63,-34,-4,-4,14
78,-73,-151,-2,114,-112,-78,-73,-43,-14,-14,0
34,-87,-122,26,78,-104,-68,-78,-53,-29,-29,-9
-19,-112,-92,65,36,-102,-53,-78,-53,-29,-34,-19
-39,-112,-73,75,17,-92,-53,-73,-53,-34,-39,-24
-39,-112,-73,75,17,-92,-48,-73,-53,-34,-39,-24
-39,-117,-78,78,19,-97,-43,-82,-58,-43,-39,-29
-34,-117,-82,75,24,-100,-39,-82,-63,-43,-34,-29
-39,-122,-82,80,21,-102,-39,-78,-63,-43,-34,-34
-43,-126,-82,85,19,-104,-34,-78,-63,-43,-39,-34
-48,-126,-78,87,14,-102,-34,-78,-68,-48,-39,-39
-48,-126,-78,87,14,-102,-34,-78,-68,-48,-39,-39
-48,-131,-82,90,17,-107,-34,-73,-68,-48,-39,-39
-48,-131,-82,90,17,-107,-34,-73,-68,-48,-39,-39
-53,-136,-82,95,14,-109,-34,-73,-68,-48,-39,-39
-58,-141,-82,100,12,-112,-39,-78,-68,-48,-39,-43
-63,-141,-78,102,7,-109,-39,-78,-68,-48,-39,-43
-63,-151,-87,107,12,-119,-34,-82,-73,-48,-39,-43
-63,-161,-97,112,17,-129,-34,-82,-78,-48,-39,-43
-63,-156,-92,109,14,-124,-34,-82,-78,-53,-43,-43
-78,-165,-87,122,4,-126,-14,-68,-78,-63,-58,-53
-117,-190,-73,153,-21,-131,48,-24,-63,-63,-68,-78
-156,-209,-53,183,-51,-131,151,78,-9,-48,-63,-92
-165,-209,-43,187,-61,-126,234,204,82,4,-34,-82
-136,-185,-48,161,-43,-117,292,341,248,141,68,-9
-73,-82,-9,78,-31,-46,351,492,497,361,248,136
43,53,9,-48,17,31,405,683,771,605,453,302
214,200,-14,-207,114,92,385,771,985,819,658,468
424,414,-9,-419,217,202,200,658,1112,1024,873,673
595,639,43,-617,275,341,-87,414,1141,1161,1039,849
702,868,165,-785,268,517,-531,-58,1000,1205,1137,1000
751,1132,380,-941,185,756,-1137,-917,649,1141,1200,1141
668,1239,570,-954,48,905,-1595,-1761,126,917,1112,1146
556,1000,444,-778,56,722,-1751,-2176,-400,527,824,971
351,512,161,-431,95,336,-1732,-2386,-1229,-322,78,395
112,229,117,-170,-2,173,-1346,-2054,-1483,-780,-385,-29
48,214,165,-131,-58,190,-985,-1498,-1137,-585,-278,-9
34,165,131,-100,-48,148,-668,-1029,-814,-429,-204,-9
29,126,97,-78,-34,112,-497,-761,-624,-351,-195,-19
4,39,34,-21,-14,36,-395,-585,-488,-307,-185,-48
-68,-63,4,65,-36,-29,-224,-390,-375,-258,-185,-97
-112,-141,-29,126,-41,-85,-87,-229,-278,-224,-175,-122
-136,-141,-4,139,-65,-73,9,-112,-170,-170,-151,-112
-107,-141,-34,124,-36,-87,43,-19,-78,-102,-107,-82
-102,-146,-43,124,-29,-95,63,29,-48,-73,-87,-73
-92,-151,-58,122,-17,-104,102,48,-34,-58,-73,-73
-92,-156,-63,124,-14,-109,126,68,-19,-53,-68,-73
-102,-165,-63,134,-19,-114,117,87,-4,-53,-73,-73
-107,-175,-68,141,-19,-122,107,87,-14,-58,-78,-82
-122,-190,-68,156,-26,-129,107,97,-14,-53,-78,-82
-136,-200,-63,168,-36,-131,107,107,-9,-53,-78,-82
-117,-185,-68,151,-24,-126,117,126,9,-48,-73,-73
-102,-170,-68,136,-17,-119,117,136,24,-39,-63,-73
-102,-170,-68,136,-17,-119,131,136,24,-34,-63,-78
-97,-170,-73,134,-12,-122,141,151,29,-34,-63,-78
-97,-170,-73,134,-12,-122,151,151,19,-43,-68,-78
-102,-170,-68,136,-17,-119,151,151,14,-53,-73,-78
-97,-175,-78,136,-9,-126,165,151,14,-53,-73,-78
-92,-175,-82,134,-4,-129,185,151,14,-53,-73,-82
-92,-175,-82,134,-4,-129,175,165,14,-48,-73,-82
-92,-170,-78,131,-7,-124,170,175,24,-43,-68,-82
-87,-170,-82,129,-2,-126,175,180,34,-39,-63,-82
-87,-170,-82,129,-2,-126,180,190,43,-29,-63,-82
-82,-161,-78,122,-2,-119,195,195,43,-29,-63,-78
-82,-156,-73,119,-4,-114,214,204,53,-24,-63,-73
-82,-156,-73,119,-4,-114,209,214,63,-24,-63,-73
-82,-156,-73,119,-4,-114,204,214,68,-24,-63,-73
-92,-161,-68,126,-12,-114,209,234,73,-24,-63,-73
-97,-170,-73,134,-12,-122,214,263,78,-19,-63,-73
-97,-170,-73,134,-12,-122,219,273,87,-19,-63,-73
-97,-170,-73,134,-12,-122,229,287,97,-19,-63,-73
-97,-165,-68,131,-14,-117,234,302,102,-19,-63,-78
-97,-156,-58,126,-19,-107,234,317,107,-19,-68,-82
-107,-156,-48,131,-29,-102,258,331,112,-14,-68,-82
-107,-156,-48,131,-29,-102,283,356,112,-14,-68,-82
-112,-151,-39,131,-36,-95,287,370,122,-14,-73,-92
-112,-151,-39,131,-36,-95,302,380,126,-14,-73,-97
-112,-151,-39,131,-36,-95,317,400,131,-9,-73,-102
-112,-146,-34,129,-39,-90,336,409,131,-9,-78,-107
-117,-146,-29,131,-43,-87,351,424,131,-14,-78,-107
-117,-141,-24,129,-46,-82,366,448,136,-14,-82,-112
-126,-141,-14,134,-56,-78,380,463,141,-29,-87,-112
-136,-146,-9,141,-63,-78,390,478,141,-29,-92,-122
-141,-151,-9,146,-65,-80,400,507,141,-39,-102,-126
-141,-151,-9,146,-65,-80,414,531,141,-43,-112,-131
-131,-151,-19,141,-56,-85,429,536,126,-48,-122,-141
-126,-146,-19,136,-53,-82,439,536,122,-58,-126,-151
-126,-146,-19,136,-53,-82,444,546,117,-68,-136,-165
-126,-146,-19,136,-53,-82,448,551,112,-78,-141,-165
-122,-146,-24,134,-48,-85,448,561,112,-87,-151,-165
-117,-146,-29,131,-43,-87,448,570,107,-92,-151,-165
-107,-146,-39,126,-34,-92,448,570,107,-97,-151,-165
-97,-141,-43,119,-26,-92,444,570,107,-102,-156,-165
-92,-146,-53,119,-19,-100,434,570,107,-102,-156,-165
-82,-136,-53,109,-14,-95,419,561,107,-97,-146,-156
-73,-126,-53,100,-9,-90,400,546,107,-87,-141,-141
-53,-112,-58,82,2,-85,366,527,112,-68,-122,-117
-34,-92,-58,63,12,-75,331,497,107,-53,-107,-102
-14,-87,-73,51,29,-80,297,463,107,-39,-78,-82
4,-63,-68,29,36,-65,263,424,112,-24,-63,-63
29,-53,-82,12,56,-68,224,380,117,0,-43,-34
39,-48,-87,4,63,-68,200,331,112,14,-19,-19
48,-34,-82,-7,65,-58,165,278,107,29,0,-4
58,-34,-92,-12,75,-63,122,239,107,34,19,14
63,-43,-107,-9,85,-75,92,195,97,39,24,19
63,-48,-112,-7,87,-80,63,165,92,43,34,24
58,-58,-117,0,87,-87,48,151,92,43,34,29
63,-48,-112,-7,87,-80,24,122,78,48,39,34
68,-43,-112,-12,90,-78,9,102,68,48,48,34
58,-58,-117,0,87,-87,-4,68,58,48,48,34
39,-68,-107,14,73,-87,-4,29,43,48,39,29
34,-78,-112,21,73,-95,-4,14,39,43,39,29
29,-82,-112,26,70,-97,-4,4,29,34,34,24
43,-87,-131,21,87,-109,-4,9,24,29,34,24
48,-92,-141,21,95,-117,-14,4,29,29,34,19
24,-92,-117,34,70,-104,-14,0,24,24,24,14
4,-102,-107,48,56,-104,-14,-4,19,19,24,14
4,-112,-117,53,61,-114,-19,-19,9,14,9,9
0,-122,-122,61,61,-122,-19,-29,4,14,0,9
0,-112,-112,56,56,-112,-19,-29,4,14,0,9
-4,-102,-97,53,46,-100,-19,-29,4,14,0,9
-4,-102,-97,53,46,-100,-19,-24,0,14,4,9
-4,-97,-92,51,43,-95,-19,-19,0,14,9,14
0,-97,-97,48,48,-97,-24,-19,4,14,9,14
0,-97,-97,48,48,-97,-24,-24,9,14,9,14
0,-102,-102,51,51,-102,-24,-24,9,14,9,9
0,-107,-107,53,53,-107,-24,-19,9,9,4,4
0,-112,-112,56,56,-112,-19,-14,4,9,4,4
-4,-112,-107,58,51,-109,-14,-9,4,14,4,4
-4,-112,-107,58,51,-109,-19,-9,4,14,9,4
-4,-112,-107,58,51,-109,-24,-9,4,14,9,4
-4,-107,-102,56,48,-104,-19,-9,4,14,9,4
-4,-102,-97,53,46,-100,-19,-9,4,14,9,4
-9,-102,-92,56,41,-97,0,-9,4,14,9,4
-9,-102,-92,56,41,-97,14,-9,4,14,4,0
-9,-102,-92,56,41,-97,14,-9,4,9,4,0
-19,-102,-82,61,31,-92,14,-9,0,9,4,-4
-19,-102,-82,61,31,-92,9,-9,0,9,4,-4
-19,-102,-82,61,31,-92,0,-9,0,9,0,-4
-19,-102,-82,61,31,-92,0,-9,4,9,0,-4
-29,-107,-78,68,24,-92,4,-9,9,14,-4,-4
-29,-107,-78,68,24,-92,9,-4,9,9,-4,-9
-24,-107,-82,65,29,-95,9,0,9,9,-9,-14
-24,-112,-87,68,31,-100,14,9,4,9,-14,-14
-24,-112,-87,68,31,-100,14,9,0,9,-19,-14
-34,-112,-78,73,21,-95,14,4,0,9,-19,-19
-34,-122,-87,78,26,-104,19,0,0,0,-19,-19
-39,-126,-87,82,24,-107,19,-4,-14,-9,-29,-24
-43,-126,-82,85,19,-104,19,-9,-19,-14,-34,-24
-43,-126,-82,85,19,-104,19,-9,-19,-14,-34,-29
-43,-126,-82,85,19,-104,19,-9,-19,-14,-34,-29
-39,-126,-87,82,24,-107,19,0,-14,-14,-34,-29
-34,-126,-92,80,29,-109,19,4,-4,-14,-34,-29
-34,-131,-97,82,31,-114,14,0,-4,-14,-34,-29
-34,-131,-97,82,31,-114,14,0,-9,-19,-39,-34
-39,-131,-92,85,26,-112,14,0,-9,-19,-39,-34
-43,-136,-92,90,24,-114,14,-4,-14,-24,-39,-34
-43,-136,-92,90,24,-114,9,0,-14,-24,-43,-34
-43,-136,-92,90,24,-114,9,9,-14,-24,-43,-34
-34,-131,-97,82,31,-114,14,24,0,-9,-29,-24
-29,-126,-97,78,34,-112,19,39,19,0,-19,-19
-14,-112,-97,63,41,-104,29,39,19,0,-19,-19
0,-97,-97,48,48,-97,39,39,19,0,-19,-19
0,-92,-92,46,46,-92,43,34,19,0,-19,-19
0,-87,-87,43,43,-87,43,29,19,0,-14,-14
0,-82,-82,41,41,-82,48,29,19,4,-14,-14
9,-73,-82,31,46,-78,43,34,19,4,-9,-9
29,-73,-102,21,65,-87,39,43,34,14,9,0
34,-53,-87,9,61,-70,34,58,48,29,19,14
48,-39,-87,-4,68,-63,34,68,63,43,24,24
58,-19,-78,-19,68,-48,24,68,63,53,34,29
63,-19,-82,-21,73,-51,9,48,58,53,34,29
78,-24,-102,-26,90,-63,-9,34,58,53,34,34
78,-34,-112,-21,95,-73,-19,34,48,48,34,34
78,-48,-126,-14,102,-87,-19,24,34,39,24,19
73,-63,-136,-4,104,-100,-19,19,14,29,14,9
73,-73,-146,0,109,-109,-29,24,14,19,4,9
78,-78,-156,0,117,-117,-34,14,0,9,0,4
82,-82,-165,0,124,-124,-34,-4,-14,4,0,4
92,-82,-175,-4,134,-129,-39,-9,-14,4,0,4
97,-78,-175,-9,136,-126,-43,-14,-14,0,-4,4
107,-68,-175,-19,141,-122,-43,-24,-19,0,-9,0
107,-73,-180,-17,143,-126,-43,-34,-24,-4,-14,-4
87,-92,-180,2,134,-136,-39,-43,-34,-14,-24,-19
43,-117,-161,36,102,-139,-29,-48,-43,-29,-39,-29
-9,-141,-131,75,61,-136,-4,-48,-43,-29,-43,-39
-29,-141,-112,85,41,-126,4,-43,-43,-34,-48,-43
-29,-141,-112,85,41,-126,-4,-39,-43,-34,-48,-43
-29,-146,-117,87,43,-131,-14,-43,-48,-43,-48,-48
-34,-151,-117,92,41,-134,-14,-43,-53,-43,-48,-48
-48,-161,-112,104,31,-136,-19,-39,-53,-43,-53,-53
-58,-165,-107,112,24,-136,-14,-39,-53,-43,-58,-53
-68,-165,-97,117,14,-131,-14,-39,-58,-48,-58,-58
-68,-165,-97,117,14,-131,-14,-39,-58,-48,-58,-58
-68,-170,-102,119,17,-136,-14,-34,-58,-48,-58,-58
-63,-170,-107,117,21,-139,-14,-34,-53,-48,-58,-58
-63,-175,-112,119,24,-143,-14,-34,-48,-48,-58,-58
-63,-180,-117,122,26,-148,-14,-43,-48,-48,-58,-63
-63,-180,-117,122,26,-148,-9,-48,-48,-48,-58,-63
-63,-180,-117,122,26,-148,-4,-48,-48,-43,-58,-63
-63,-180,-117,122,26,-148,-4,-43,-48,-39,-58,-63
-58,-175,-117,117,29,-146,-14,-43,-48,-43,-53,-58
-68,-185,-117,126,24,-151,-4,-29,-48,-53,-58,-63
-117,-209,-92,163,-12,-151,58,-9,-53,-63,-82,-87
-165,-229,-63,197,-51,-146,161,68,-19,-58,-92,-102
-190,-258,-68,224,-61,-163,253,170,34,-53,-107,-131
-175,-263,-87,219,-43,-175,322,283,161,34,-48,-97
-141,-175,-34,158,-53,-104,385,458,409,258,136,53
-53,-53,0,53,-26,-26,444,673,683,507,346,224
136,102,-34,-119,85,34,468,858,961,751,561,395
366,326,-39,-346,202,143,326,844,1151,985,785,605
561,541,-19,-551,290,261,107,688,1254,1166,990,795
692,761,68,-727,312,414,-268,302,1185,1254,1127,961
775,1088,312,-932,231,700,-951,-619,863,1234,1229,1141
727,1259,531,-993,97,895,-1488,-1527,370,1054,1180,1185
629,1044,414,-836,107,729,-1732,-2069,-200,688,946,1063
439,580,141,-509,148,361,-1800,-2405,-1073,-136,253,541
170,253,82,-212,43,168,-1424,-2142,-1459,-727,-331,34
78,195,117,-136,-19,156,-1073,-1654,-1244,-663,-346,-29
58,146,87,-102,-14,117,-717,-1122,-883,-488,-248,-29
48,107,58,-78,-4,82,-507,-790,-653,-390,-214,-39
24,43,19,-34,2,31,-405,-610,-507,-326,-204,-68
-48,-34,14,41,-31,-9,-234,-409,-385,-258,-204,-117
-107,-136,-29,122,-39,-82,-78,-229,-292,-239,-204,-146
-146,-161,-14,153,-65,-87,39,-92,-190,-200,-190,-141
-122,-165,-43,143,-39,-104,73,-9,-92,-126,-146,-117
-122,-175,-53,148,-34,-114,92,29,-58,-92,-126,-112
-112,-175,-63,143,-24,-119,122,63,-43,-78,-112,-107
-112,-175,-63,143,-24,-119,136,97,-29,-73,-107,-102
-117,-185,-68,151,-24,-126,136,126,0,-68,-102,-102
-117,-195,-78,156,-19,-136,136,136,4,-68,-97,-112
-117,-190,-73,153,-21,-131,146,146,4,-63,-97,-112
-117,-180,-63,148,-26,-122,156,156,9,-63,-97,-112
-112,-180,-68,146,-21,-124,165,165,19,-58,-97,-102
-112,-180,-68,146,-21,-124,165,165,24,-48,-92,-102
-112,-180,-68,146,-21,-124,170,175,29,-43,-92,-102
-107,-180,-73,143,-17,-126,170,200,39,-43,-92,-97
-107,-180,-73,143,-17,-126,180,204,39,-43,-92,-97
-112,-180,-68,146,-21,-124,180,209,43,-43,-92,-97
-112,-180,-68,146,-21,-124,180,209,43,-43,-92,-97
