I, II, III, aVR, aVL, aVF, V1, V2, V3, V4, V5, V6
97,19,-78,-58,87,-29,-48,-73,-43,-9,19,53
48,4,-43,-26,46,-19,-48,-97,-73,-34,9,39
14,-9,-24,-2,19,-17,-39,-117,-87,-39,0,29
-19,-29,-9,24,-4,-19,-24,-112,-87,-48,-19,9
-34,-29,4,31,-19,-12,-14,-112,-87,-53,-34,-14
-24,-29,-4,26,-9,-17,-14,-102,-87,-53,-34,-14
-4,-29,-24,17,9,-26,-29,-97,-92,-63,-34,-14
-4,-29,-24,17,9,-26,-29,-97,-92,-63,-39,-14
-9,-34,-24,21,7,-29,-29,-97,-92,-63,-39,-14
-9,-39,-29,24,9,-34,-24,-97,-92,-63,-39,-14
-9,-39,-29,24,9,-34,-24,-97,-92,-63,-39,-14
-14,-34,-19,24,2,-26,-29,-97,-92,-63,-39,-14
-14,-29,-14,21,0,-21,-34,-92,-92,-63,-39,-14
-14,-29,-14,21,0,-21,-53,-92,-97,-68,-39,-14
-19,-29,-9,24,-4,-19,-68,-97,-97,-68,-39,-19
-19,-29,-9,24,-4,-19,-53,-102,-97,-68,-39,-19
-19,-34,-14,26,-2,-24,-43,-107,-97,-68,-39,-19
-24,-39,-14,31,-4,-26,-43,-107,-97,-68,-43,-19
-24,-39,-14,31,-4,-26,-39,-107,-97,-68,-43,-19
-24,-39,-14,31,-4,-26,-39,-107,-97,-68,-43,-19
-14,-34,-19,24,2,-26,-34,-112,-102,-68,-43,-19
-24,-34,-9,29,-7,-21,-24,-112,-102,-73,-43,-19
-24,-34,-9,29,-7,-21,-19,-112,-102,-78,-43,-19
-29,-34,-4,31,-12,-19,-19,-112,-102,-78,-43,-24
-34,-34,0,34,-17,-17,-19,-107,-102,-78,-43,-24
-34,-39,-4,36,-14,-21,-14,-107,-102,-73,-43,-24
-29,-39,-9,34,-9,-24,-14,-107,-97,-68,-43,-19
-29,-39,-9,34,-9,-24,-19,-107,-97,-68,-39,-19
-29,-39,-9,34,-9,-24,-29,-107,-97,-68,-34,-19
-29,-39,-9,34,-9,-24,-19,-107,-97,-68,-34,-19
-29,-39,-9,34,-9,-24,-4,-107,-97,-63,-34,-19
-34,-39,-4,36,-14,-21,-14,-107,-92,-63,-34,-14
-34,-39,-4,36,-14,-21,-34,-107,-92,-63,-29,-4
-24,-39,-14,31,-4,-26,-34,-97,-92,-63,-29,-4
-19,-34,-14,26,-2,-24,-29,-87,-92,-63,-29,-4
-4,-34,-29,19,12,-31,-19,-87,-78,-53,-19,4
-19,-34,-14,26,-2,-24,0,-97,-82,-68,-43,-19
-87,-34,53,61,-70,9,19,-141,-156,-141,-107,-73
-151,-24,126,87,-139,51,29,-170,-204,-175,-136,-92
-209,39,248,85,-229,143,68,-126,-156,-151,-136,-97
-224,97,322,63,-273,209,87,-24,-63,-68,-87,-73
-131,78,209,26,-170,143,146,195,151,131,63,0
48,131,82,-90,-17,107,151,361,414,483,400,224
268,244,-24,-256,146,109,-43,283,619,927,863,566
405,370,-34,-387,219,168,-239,73,614,1093,1058,761
522,585,63,-553,229,324,-507,-322,312,922,1010,863
570,341,-229,-456,400,56,-595,-629,-204,214,400,492
448,-273,-722,-87,585,-497,-546,-1063,-1073,-995,-717,-283
273,-561,-834,143,553,-697,-619,-1527,-1673,-1625,-1220,-610
-68,-595,-527,331,229,-561,-590,-1654,-1786,-1625,-1185,-595
-239,-536,-297,387,29,-417,-488,-1488,-1620,-1434,-1034,-527
-214,-419,-204,317,-4,-312,-380,-1156,-1278,-1132,-810,-405
-190,-302,-112,246,-39,-207,-258,-839,-936,-844,-600,-292
-180,-209,-29,195,-75,-119,-156,-570,-629,-570,-434,-224
-165,-131,34,148,-100,-48,-73,-366,-390,-361,-273,-161
-151,-92,58,122,-104,-17,-29,-239,-268,-248,-185,-117
-126,-63,63,95,-95,0,-4,-141,-175,-161,-141,-87
-92,-58,34,75,-63,-12,4,-78,-97,-102,-92,-68
-73,-53,19,63,-46,-17,4,-43,-53,-63,-63,-48
-63,-53,9,58,-36,-21,14,-24,-53,-58,-53,-39
-53,-53,0,53,-26,-26,39,-19,-43,-53,-48,-34
-43,-48,-4,46,-19,-26,43,-9,-24,-34,-39,-34
-39,-48,-9,43,-14,-29,43,-9,-14,-24,-29,-29
-48,-48,0,48,-24,-24,19,0,-14,-24,-24,-24
-53,-53,0,53,-26,-26,0,9,-14,-24,-24,-24
-53,-58,-4,56,-24,-31,0,14,-14,-24,-24,-29
-53,-63,-9,58,-21,-36,4,14,-9,-19,-24,-29
-53,-63,-9,58,-21,-36,19,9,-9,-19,-29,-34
-48,-63,-14,56,-17,-39,34,0,-9,-19,-34,-39
-43,-58,-14,51,-14,-36,43,19,-4,-14,-34,-39
-43,-39,4,41,-24,-17,53,39,4,-14,-34,-39
-34,-39,-4,36,-14,-21,53,34,4,-19,-34,-39
-48,-43,4,46,-26,-19,53,24,4,-29,-39,-39
-53,-53,0,53,-26,-26,48,19,0,-29,-39,-48
-53,-53,0,53,-26,-26,39,14,-4,-29,-39,-48
-53,-43,9,48,-31,-17,39,19,0,-29,-39,-48
-53,-53,0,53,-26,-26,34,19,0,-29,-39,-48
-53,-53,0,53,-26,-26,34,29,4,-29,-39,-48
-58,-53,4,56,-31,-24,34,39,9,-29,-43,-48
-58,-53,4,56,-31,-24,34,39,9,-29,-43,-48
-58,-53,4,56,-31,-24,39,43,14,-29,-43,-53
-58,-53,4,56,-31,-24,43,48,14,-29,-48,-58
-58,-53,4,56,-31,-24,53,48,19,-29,-48,-58
-58,-53,4,56,-31,-24,53,48,19,-24,-43,-58
-58,-53,4,56,-31,-24,58,48,19,-19,-43,-58
-63,-58,4,61,-34,-26,53,53,24,-19,-43,-58
-63,-63,0,63,-31,-31,48,63,24,-24,-48,-63
-73,-73,0,73,-36,-36,48,63,19,-29,-53,-73
-73,-82,-9,78,-31,-46,48,68,19,-29,-58,-82
-68,-73,-4,70,-31,-39,43,68,24,-29,-58,-82
-63,-58,4,61,-34,-26,43,82,29,-24,-58,-82
-58,-53,4,56,-31,-24,39,82,29,-19,-58,-82
-58,-53,4,56,-31,-24,29,82,29,-19,-58,-87
-73,-53,19,63,-46,-17,68,87,39,-14,-58,-87
-82,-53,29,68,-56,-12,92,92,43,-9,-53,-87
-82,-58,24,70,-53,-17,82,107,53,-9,-53,-87
-87,-58,29,73,-58,-14,78,112,58,-4,-53,-87
-78,-53,24,65,-51,-14,73,136,68,0,-53,-82
-68,-48,19,58,-43,-14,63,161,87,9,-48,-78
-68,-48,19,58,-43,-14,92,175,97,9,-48,-82
-63,-48,14,56,-39,-17,126,190,107,19,-43,-82
-68,-43,24,56,-46,-9,117,195,117,24,-43,-82
-87,-48,39,68,-63,-4,107,200,126,34,-39,-78
-78,-48,29,63,-53,-9,126,219,141,43,-34,-78
-73,-43,29,58,-51,-7,136,239,151,53,-29,-78
-73,-43,29,58,-51,-7,136,268,170,63,-19,-73
-73,-43,29,58,-51,-7,136,292,185,73,-14,-68
-73,-43,29,58,-51,-7,141,312,209,82,-9,-73
-73,-34,39,53,-56,2,146,346,229,97,-4,-78
-68,-24,43,46,-56,9,156,370,248,107,9,-73
-68,-24,43,46,-56,9,170,390,263,122,9,-73
-58,-24,34,41,-46,4,180,405,283,126,14,-68
-58,-24,34,41,-46,4,180,434,297,136,24,-63
-63,-9,53,36,-58,21,170,448,322,156,34,-58
-63,0,63,31,-63,31,175,468,346,165,43,-53
-63,4,68,29,-65,36,185,502,375,190,53,-43
-58,4,63,26,-61,34,195,536,405,209,63,-43
-48,19,68,14,-58,43,209,561,424,229,73,-34
-34,19,53,7,-43,36,229,585,448,244,82,-24
-39,24,63,7,-51,43,234,610,468,268,92,-14
-43,34,78,4,-61,56,234,619,478,283,102,-14
-43,39,82,2,-63,61,239,619,497,302,112,-4
-43,48,92,-2,-68,70,244,624,517,317,136,9
-39,58,97,-9,-68,78,253,624,536,336,151,24
-29,73,102,-21,-65,87,248,624,546,351,161,39
-14,73,87,-29,-51,80,229,614,551,361,161,43
-9,78,87,-34,-48,82,219,595,556,375,175,48
-4,82,87,-39,-46,85,204,575,561,390,200,63
9,97,87,-53,-39,92,180,561,566,405,219,82
24,97,73,-61,-24,85,170,561,575,424,244,92
29,97,68,-63,-19,82,151,536,585,434,263,107
34,97,63,-65,-14,80,141,507,580,434,268,117
39,97,58,-68,-9,78,131,478,566,434,273,131
58,102,43,-80,7,73,102,439,546,439,278,141
68,102,34,-85,17,68,82,419,531,439,287,146
73,97,24,-85,24,61,48,395,502,424,287,146
82,97,14,-90,34,56,29,361,473,405,278,151
82,97,14,-90,34,56,14,312,448,385,268,156
87,97,9,-92,39,53,-9,283,409,366,258,161
87,97,9,-92,39,53,-19,248,366,336,248,151
87,87,0,-87,43,43,-34,204,326,307,234,151
92,82,-9,-87,51,36,-24,170,287,268,214,146
92,82,-9,-87,51,36,-24,136,253,239,195,136
102,78,-24,-90,63,26,-14,112,209,209,170,126
112,73,-39,-92,75,17,0,92,175,180,161,122
92,82,-9,-87,51,36,0,63,141,156,146,112
92,92,0,-92,46,46,-4,39,117,136,131,107
87,78,-9,-82,48,34,-9,19,92,117,107,97
78,58,-19,-68,48,19,-14,4,78,97,92,87
73,58,-14,-65,43,21,-24,4,58,82,87,82
73,58,-14,-65,43,21,-24,-4,39,73,73,73
73,58,-14,-65,43,21,-24,-14,24,63,73,78
68,48,-19,-58,43,14,-24,-19,19,43,68,78
58,43,-14,-51,36,14,-34,-24,9,39,63,73
58,39,-19,-48,39,9,-43,-34,0,19,48,68
48,29,-19,-39,34,4,-43,-34,-9,9,43,53
39,19,-19,-29,29,0,-48,-34,-14,0,34,39
34,19,-14,-26,24,2,-53,-39,-19,0,24,39
34,24,-9,-29,21,7,-48,-48,-24,0,19,39
43,24,-19,-34,31,2,-58,-48,-24,0,19,34
53,24,-29,-39,41,-2,-58,-48,-24,-4,14,34
53,14,-39,-34,46,-12,-53,-48,-24,-9,14,29
43,14,-29,-29,36,-7,-48,-48,-29,-9,14,24
39,14,-24,-26,31,-4,-39,-58,-29,-9,9,24
34,19,-14,-26,24,2,-29,-68,-29,-9,9,24
34,19,-14,-26,24,2,-29,-58,-29,-4,14,29
39,19,-19,-29,29,0,-29,-48,-24,0,19,34
43,14,-29,-29,36,-7,-24,-48,-24,0,19,34
34,9,-24,-21,29,-7,-24,-48,-24,0,19,34
34,9,-24,-21,29,-7,-19,-53,-24,-4,14,29
34,9,-24,-21,29,-7,-14,-58,-24,-9,4,29
29,9,-19,-19,24,-4,-29,-58,-24,-19,-4,24
24,9,-14,-17,19,-2,-43,-58,-24,-29,-9,19
24,9,-14,-17,19,-2,-29,-63,-24,-19,4,19
24,9,-14,-17,19,-2,-29,-63,-29,-9,14,19
34,9,-24,-21,29,-7,-24,-58,-29,-9,14,29
39,9,-29,-24,34,-9,-19,-48,-29,-9,14,24
24,9,-14,-17,19,-2,-19,-48,-29,-9,14,19
14,9,-4,-12,9,2,-14,-48,-29,-9,14,19
19,9,-9,-14,14,0,-14,-58,-29,-9,14,14
19,4,-14,-12,17,-4,-14,-58,-29,-9,14,9
19,0,-19,-9,19,-9,-19,-48,-29,-9,9,9
14,0,-14,-7,14,-7,-29,-48,-24,-9,9,9
19,4,-14,-12,17,-4,-29,-48,-24,-4,9,4
24,9,-14,-17,19,-2,-24,-48,-24,0,9,4
19,9,-9,-14,14,0,-14,-48,-24,0,9,4
14,4,-9,-9,12,-2,-24,-48,-19,0,9,4
9,-4,-14,-2,12,-9,-14,-48,-19,-9,4,4
4,-9,-14,2,9,-12,-9,-43,-19,-14,4,4
4,-9,-14,2,9,-12,-14,-39,-19,-14,0,0
4,-9,-14,2,9,-12,-9,-39,-19,-14,0,-4
4,-9,-14,2,9,-12,-9,-53,-29,-19,-4,-9
0,-4,-4,2,2,-4,-4,-58,-29,-19,-9,-9
0,0,0,0,0,0,4,-63,-29,-24,-9,-4
4,0,-4,-2,4,-2,4,-63,-29,-24,-9,0
4,-14,-19,4,12,-17,-34,-53,-29,-19,-4,0
0,-19,-19,9,9,-19,-73,-43,-29,-14,-4,0
0,-19,-19,9,9,-19,-58,-43,-39,-19,-9,-4
0,-19,-19,9,9,-19,-39,-53,-39,-19,-14,-14
0,-14,-14,7,7,-14,-19,-73,-48,-24,-14,-14
0,-14,-14,7,7,-14,-4,-82,-53,-24,-19,-14
-4,-14,-9,9,2,-12,-4,-68,-53,-24,-19,-14
-9,-19,-9,14,0,-14,-4,-58,-53,-29,-19,-14
-9,-19,-9,14,0,-14,-4,-53,-48,-29,-19,-14
-9,-14,-4,12,-2,-9,-4,-53,-43,-29,-14,-14
-4,-14,-9,9,2,-12,-14,-68,-48,-29,-14,-14
0,-19,-19,9,9,-19,-14,-78,-48,-29,-14,-14
4,-19,-24,7,14,-21,-14,-68,-48,-34,-14,-14
4,-14,-19,4,12,-17,-19,-63,-48,-39,-14,-14
9,-9,-19,0,14,-14,-19,-68,-53,-39,-19,-9
9,-4,-14,-2,12,-9,-19,-68,-58,-43,-19,-4
14,-9,-24,-2,19,-17,-4,-63,-58,-34,-24,-9
19,-14,-34,-2,26,-24,4,-53,-58,-29,-24,-9
9,-14,-24,2,17,-19,4,-63,-63,-39,-19,-9
0,-9,-9,4,4,-9,9,-73,-68,-48,-19,-14
4,-9,-14,2,9,-12,-4,-68,-68,-48,-24,-14
4,-9,-14,2,9,-12,-19,-63,-68,-48,-24,-14
4,-14,-19,4,12,-17,-39,-53,-63,-39,-24,-14
4,-14,-19,4,12,-17,-53,-53,-58,-29,-24,-14
0,-14,-14,7,7,-14,-29,-63,-58,-39,-24,-19
0,-14,-14,7,7,-14,-9,-78,-68,-53,-29,-24
0,-14,-14,7,7,-14,-14,-78,-68,-53,-39,-24
-4,-14,-9,9,2,-12,-14,-78,-68,-53,-48,-19
-4,-14,-9,9,2,-12,-29,-68,-63,-53,-34,-14
-4,-9,-4,7,0,-7,-43,-58,-63,-53,-24,-14
-4,-14,-9,9,2,-12,-34,-73,-63,-53,-29,-14
-9,-24,-14,17,2,-19,-29,-87,-63,-53,-29,-14
-14,-24,-9,19,-2,-17,-24,-87,-63,-53,-29,-14
-14,-29,-14,21,0,-21,-14,-82,-68,-53,-24,-19
0,-14,-14,7,7,-14,-24,-78,-68,-48,-19,-9
19,0,-19,-9,19,-9,-39,-78,-68,-48,-19,0
14,-4,-19,-4,17,-12,-39,-78,-73,-48,-24,-9
9,-9,-19,0,14,-14,-39,-78,-78,-48,-29,-19
4,-9,-14,2,9,-12,-29,-82,-82,-53,-29,-19
0,-9,-9,4,4,-9,-19,-87,-87,-58,-29,-19
0,-14,-14,7,7,-14,-9,-87,-87,-58,-29,-19
0,-19,-19,9,9,-19,0,-87,-87,-58,-29,-19
0,-19,-19,9,9,-19,-9,-82,-82,-58,-29,-19
0,-19,-19,9,9,-19,-19,-78,-78,-58,-29,-19
0,-9,-9,4,4,-9,-24,-78,-73,-53,-29,-19
0,0,0,0,0,0,-29,-78,-68,-48,-29,-19
0,0,0,0,0,0,-29,-78,-68,-48,-29,-14
0,0,0,0,0,0,-29,-78,-68,-48,-29,-9
0,-9,-9,4,4,-9,-34,-87,-73,-48,-29,-9
0,-19,-19,9,9,-19,-39,-97,-78,-48,-29,-9
0,-9,-9,4,4,-9,-39,-87,-78,-48,-29,-9
0,0,0,0,0,0,-39,-78,-78,-48,-29,-9
14,0,-14,-7,14,-7,-34,-78,-82,-48,-29,-14
29,0,-29,-14,29,-14,-29,-78,-87,-48,-29,-19
19,0,-19,-9,19,-9,-19,-82,-87,-53,-34,-24
9,0,-9,-4,9,-4,-9,-87,-87,-58,-39,-29
9,0,-9,-4,9,-4,-4,-87,-87,-58,-39,-29
9,0,-9,-4,9,-4,0,-87,-87,-58,-39,-29
9,-9,-19,0,14,-14,0,-78,-78,-53,-29,-19
9,-19,-29,4,19,-24,0,-68,-68,-48,-19,-9
-4,-19,-14,12,4,-17,-24,-68,-68,-48,-19,-9
-19,-19,0,19,-9,-9,-48,-68,-68,-48,-19,-9
-4,-14,-9,9,2,-12,-63,-73,-68,-48,-24,-9
9,-9,-19,0,14,-14,-78,-78,-68,-48,-29,-9
14,0,-14,-7,14,-7,-58,-78,-68,-48,-29,-9
19,9,-9,-14,14,0,-39,-78,-68,-48,-29,-9
29,14,-14,-21,21,0,-24,-73,-63,-43,-19,-9
39,19,-19,-29,29,0,-9,-68,-58,-39,-9,-9
39,19,-19,-29,29,0,4,-63,-53,-34,-9,-4
39,19,-19,-29,29,0,19,-58,-48,-29,-9,0
43,19,-24,-31,34,-2,19,-43,-39,-19,-4,4
48,19,-29,-34,39,-4,19,-29,-29,-9,0,9
53,39,-14,-46,34,12,14,-14,-19,-4,9,14
58,58,0,-58,29,29,9,0,-9,0,19,19
63,58,-4,-61,34,26,9,0,-9,0,19,19
68,58,-9,-63,39,24,9,0,-9,0,19,19
78,53,-24,-65,51,14,4,-9,-9,0,19,24
87,48,-39,-68,63,4,0,-19,-9,0,19,29
87,48,-39,-68,63,4,-43,-39,-24,-4,19,29
87,48,-39,-68,63,4,-87,-58,-39,-9,19,29
87,58,-29,-73,58,14,-92,-82,-58,-19,14,29
87,68,-19,-78,53,24,-97,-107,-78,-29,9,29
87,68,-19,-78,53,24,-97,-107,-78,-29,4,29
87,68,-19,-78,53,24,-97,-107,-78,-29,0,29
82,58,-24,-70,53,17,-97,-92,-68,-24,0,29
78,48,-29,-63,53,9,-97,-78,-58,-19,0,29
78,48,-29,-63,53,9,-78,-68,-48,-9,4,29
78,48,-29,-63,53,9,-58,-58,-39,0,9,29
78,39,-39,-58,58,0,-58,-73,-48,-9,9,24
78,29,-48,-53,63,-9,-58,-87,-58,-19,9,19
78,19,-58,-48,68,-19,-39,-87,-58,-19,4,19
73,9,-63,-41,68,-26,-39,-92,-58,-24,0,19
73,0,-73,-36,73,-36,-39,-102,-63,-29,0,24
58,-4,-63,-26,61,-34,-53,-107,-78,-48,-9,19
29,-9,-39,-9,34,-24,-43,-107,-78,-53,-19,9
-9,-29,-19,19,4,-24,-34,-102,-78,-63,-29,0
-14,-39,-24,26,4,-31,-24,-102,-78,-63,-43,-24
-14,-48,-34,31,9,-41,-24,-102,-78,-63,-53,-34
-4,-39,-34,21,14,-36,-39,-107,-87,-73,-53,-34
-4,-29,-24,17,9,-26,-39,-107,-92,-73,-58,-34
-9,-34,-24,21,7,-29,-39,-107,-92,-73,-58,-34
-9,-39,-29,24,9,-34,-34,-107,-92,-73,-58,-34
-9,-43,-34,26,12,-39,-34,-107,-92,-73,-48,-34
-14,-43,-29,29,7,-36,-34,-107,-92,-73,-39,-34
-14,-39,-24,26,4,-31,-29,-102,-92,-73,-48,-34
-14,-39,-24,26,4,-31,-24,-102,-97,-78,-58,-34
-19,-34,-14,26,-2,-24,-19,-107,-97,-78,-58,-48
-19,-29,-9,24,-4,-19,-19,-107,-97,-78,-58,-58
-19,-34,-14,26,-2,-24,-24,-107,-97,-73,-53,-48
-24,-39,-14,31,-4,-26,-29,-107,-97,-68,-53,-39
-24,-43,-19,34,-2,-31,-29,-107,-97,-68,-48,-34
-24,-48,-24,36,0,-36,-29,-107,-97,-68,-43,-29
-14,-43,-29,29,7,-36,-29,-112,-102,-73,-43,-29
-24,-43,-19,34,-2,-31,-24,-112,-102,-78,-43,-29
-24,-43,-19,34,-2,-31,-19,-112,-102,-78,-43,-29
-24,-43,-19,34,-2,-31,-19,-112,-102,-78,-43,-34
-24,-43,-19,34,-2,-31,-14,-107,-102,-78,-48,-34
-24,-43,-19,34,-2,-31,-9,-107,-102,-78,-53,-34
-19,-39,-19,29,0,-29,-14,-102,-97,-78,-58,-34
-19,-39,-19,29,0,-29,-19,-97,-97,-78,-63,-39
-24,-39,-14,31,-4,-26,-63,-87,-97,-78,-63,-39
-29,-39,-9,34,-9,-24,-97,-78,-97,-78,-63,-39
-29,-39,-9,34,-9,-24,-73,-92,-97,-73,-58,-39
-34,-39,-4,36,-14,-21,-43,-107,-92,-73,-53,-39
-34,-34,0,34,-17,-17,-4,-107,-92,-68,-43,-29
-29,-29,0,29,-14,-14,34,-102,-92,-63,-39,-24
-14,-24,-9,19,-2,-17,19,-92,-87,-63,-39,-24
-4,-24,-19,14,7,-21,14,-87,-82,-63,-39,-24
-24,-29,-4,26,-9,-17,19,-97,-102,-92,-78,-63
-68,-24,43,46,-56,9,19,-126,-146,-146,-126,-102
-146,-24,122,85,-134,48,19,-190,-224,-209,-175,-131
-195,4,200,95,-197,102,48,-156,-190,-190,-170,-141
-248,48,297,100,-273,173,117,4,-78,-126,-165,-156
-195,58,253,68,-224,156,165,175,92,24,-63,-107
19,107,87,-63,-34,97,195,439,478,512,395,175
204,175,-29,-190,117,73,82,434,678,893,785,448
341,444,102,-392,119,273,-141,209,751,1229,1141,780
434,653,219,-544,107,436,-380,-117,561,1205,1200,936
512,278,-234,-395,373,21,-434,-400,-68,224,326,395
429,-175,-605,-126,517,-390,-409,-727,-761,-756,-561,-190
185,-473,-658,143,422,-566,-551,-1405,-1556,-1478,-1088,-512
-87,-600,-512,344,212,-556,-556,-1678,-1888,-1766,-1298,-644
-219,-497,-278,358,29,-387,-434,-1449,-1639,-1512,-1112,-566
-244,-414,-170,329,-36,-292,-361,-1220,-1390,-1268,-936,-492
-209,-331,-122,270,-43,-226,-258,-893,-1029,-956,-712,-380
-190,-263,-73,226,-58,-168,-175,-624,-727,-683,-541,-302
-165,-161,4,163,-85,-78,-107,-405,-468,-448,-361,-229
-141,-97,43,119,-92,-26,-58,-253,-297,-287,-239,-175
-131,-78,53,104,-92,-12,-4,-165,-204,-204,-195,-141
-117,-68,48,92,-82,-9,34,-97,-122,-141,-136,-112
-92,-63,29,78,-61,-17,34,-58,-73,-87,-92,-87
-78,-63,14,70,-46,-24,34,-24,-53,-63,-63,-68
-73,-63,9,68,-41,-26,48,-19,-43,-63,-58,-63
-63,-58,4,61,-34,-26,53,-9,-24,-43,-53,-63
-58,-58,0,58,-29,-29,43,-4,-14,-34,-48,-58
-58,-53,4,56,-31,-24,29,4,-14,-34,-43,-53
-53,-53,0,53,-26,-26,29,9,-14,-34,-39,-48
-53,-58,-4,56,-24,-31,29,14,-14,-34,-34,-48
-63,-63,0,63,-31,-31,34,14,-9,-19,-34,-48
-78,-63,14,70,-46,-24,34,19,-9,-9,-34,-48
-63,-63,0,63,-31,-31,24,19,-9,-19,-39,-53
-43,-63,-19,53,-12,-41,19,19,-9,-24,-43,-58
-43,-43,0,43,-21,-21,34,19,-4,-24,-43,-58
-34,-39,-4,36,-14,-21,43,24,-4,-24,-43,-58
-48,-43,4,46,-26,-19,43,24,-4,-29,-48,-53
-53,-53,0,53,-26,-26,43,24,-4,-29,-48,-58
-53,-53,0,53,-26,-26,39,24,0,-24,-48,-58
-53,-43,9,48,-31,-17,39,29,9,-19,-48,-58
-58,-58,0,58,-29,-29,34,29,9,-19,-43,-58
-63,-63,0,63,-31,-31,34,29,9,-19,-39,-58
-68,-63,4,65,-36,-29,43,24,4,-19,-43,-58
-68,-63,4,65,-36,-29,53,19,0,-19,-43,-58
-68,-63,4,65,-36,-29,48,24,4,-19,-48,-63
-68,-63,4,65,-36,-29,39,34,4,-19,-58,-68
-58,-58,0,58,-29,-29,39,39,9,-24,-58,-73
-48,-53,-4,51,-21,-29,34,39,9,-29,-58,-78
-48,-53,-4,51,-21,-29,39,39,9,-29,-63,-78
-53,-53,0,53,-26,-26,39,43,14,-29,-63,-78
-58,-53,4,56,-31,-24,39,53,19,-29,-63,-78
-73,-53,19,63,-46,-17,39,53,24,-24,-58,-78
-73,-53,19,63,-46,-17,39,58,29,-19,-58,-82
-73,-53,19,63,-46,-17,39,58,34,-19,-58,-82
-73,-48,24,61,-48,-12,53,73,34,-19,-63,-82
-68,-43,24,56,-46,-9,68,78,34,-19,-68,-82
-68,-43,24,56,-46,-9,58,82,39,-19,-68,-87
-73,-43,29,58,-51,-7,63,92,48,-14,-68,-87
-73,-43,29,58,-51,-7,63,102,53,-9,-58,-87
-73,-48,24,61,-48,-12,63,117,63,-9,-53,-87
-78,-53,24,65,-51,-14,68,122,68,-4,-53,-87
-78,-58,19,68,-48,-19,73,131,73,0,-53,-87
-78,-58,19,68,-48,-19,68,136,87,9,-48,-87
-78,-58,19,68,-48,-19,73,146,97,9,-48,-92
-68,-53,14,61,-41,-19,87,161,107,19,-43,-92
-63,-39,24,51,-43,-7,92,175,117,24,-43,-92
-78,-39,39,58,-58,0,97,190,126,34,-39,-87
-68,-39,29,53,-48,-4,107,209,146,43,-34,-87
-63,-39,24,51,-43,-7,107,224,156,53,-29,-87
-63,-43,19,53,-41,-12,107,248,170,63,-19,-82
-68,-43,24,56,-46,-9,107,273,185,73,-14,-78
-73,-43,29,58,-51,-7,112,292,209,82,-9,-78
-73,-29,43,51,-58,7,107,322,229,97,-9,-78
-68,-14,53,41,-61,19,107,341,248,107,0,-73
-63,-14,48,39,-56,17,122,361,263,122,0,-73
-48,-14,34,31,-41,9,136,375,283,131,4,-68
-48,-14,34,31,-41,9,146,405,297,146,14,-68
-48,0,48,24,-48,24,151,429,322,165,24,-68
-48,4,53,21,-51,29,165,458,346,180,34,-63
-53,4,58,24,-56,31,175,483,370,204,43,-53
-48,4,53,21,-51,29,185,507,400,219,53,-53
-48,19,68,14,-58,43,190,531,424,239,68,-43
-48,19,68,14,-58,43,195,551,448,253,82,-34
-48,24,73,12,-61,48,195,570,473,278,92,-24
-43,34,78,4,-61,56,195,580,488,292,102,-24
-43,34,78,4,-61,56,195,585,507,312,112,-14
-43,39,82,2,-63,61,195,595,527,331,136,0
-39,48,87,-4,-63,68,190,595,546,356,151,14
-29,63,92,-17,-61,78,170,595,556,370,161,29
-14,63,78,-24,-46,70,161,585,561,380,170,39
-9,63,73,-26,-41,68,170,566,566,395,195,48
-4,63,68,-29,-36,65,165,546,570,409,209,63
4,78,73,-41,-34,75,141,531,575,424,219,82
14,82,68,-48,-26,75,131,522,575,444,239,92
19,92,73,-56,-26,82,107,492,580,458,253,107
34,97,63,-65,-14,80,92,468,580,463,258,117
48,97,48,-73,0,73,82,439,566,463,268,131
58,102,43,-80,7,73,63,400,546,463,278,141
58,97,39,-78,9,68,78,380,536,463,287,146
63,87,24,-75,19,56,73,351,512,453,287,146
78,87,9,-82,34,48,48,326,488,434,283,151
82,87,4,-85,39,46,29,292,463,409,278,151
87,87,0,-87,43,43,9,263,419,385,268,161
87,87,0,-87,43,43,0,234,375,356,253,161
78,78,0,-78,39,39,-14,200,336,326,239,161
68,73,4,-70,31,39,-14,170,297,287,224,156
73,82,9,-78,31,46,-24,136,263,258,204,146
82,87,4,-85,39,46,-29,112,224,229,180,131
82,82,0,-82,41,41,-29,92,190,190,165,122
63,78,14,-70,24,46,-29,63,151,156,146,112
63,73,9,-68,26,41,-39,39,126,136,131,107
63,68,4,-65,29,36,-43,19,102,117,112,97
58,53,-4,-56,31,24,-43,4,87,97,97,87
53,48,-4,-51,29,21,-53,4,73,82,87,82
53,48,-4,-51,29,21,-43,-4,48,68,73,73
53,48,-4,-51,29,21,-34,-14,24,53,68,73
48,39,-9,-43,29,14,-24,-19,19,29,58,68
39,39,0,-39,19,19,-14,-24,9,24,53,63
34,39,4,-36,14,21,-34,-34,0,9,39,53
24,29,4,-26,9,17,-53,-34,-9,4,39,43
19,19,0,-19,9,9,-78,-34,-14,0,29,39
14,19,4,-17,4,12,-97,-39,-19,0,19,39
14,24,9,-19,2,17,-68,-48,-24,0,19,39
14,24,9,-19,2,17,-58,-48,-24,0,19,34
14,24,9,-19,2,17,-53,-43,-24,-4,14,34
14,14,0,-14,7,7,-43,-39,-24,-9,14,29
4,19,14,-12,-4,17,-39,-39,-29,-9,24,24
4,19,14,-12,-4,17,-39,-39,-29,-9,29,24
4,19,14,-12,-4,17,-29,-53,-34,-14,19,24
4,19,14,-12,-4,17,-19,-68,-39,-19,9,24
9,14,4,-12,2,9,-19,-68,-34,-19,9,24
9,9,0,-9,4,4,-14,-68,-34,-19,9,24
-4,9,14,-2,-9,12,-14,-53,-29,-19,9,24
-4,9,14,-2,-9,12,-19,-39,-24,-19,9,19
-4,14,19,-4,-12,17,-34,-39,-24,-14,9,19
-4,19,24,-7,-14,21,-43,-39,-24,-9,14,19
-4,19,24,-7,-14,21,-48,-39,-24,-9,19,19
-4,19,24,-7,-14,21,-39,-43,-24,-9,19,19
0,29,29,-14,-14,29,-39,-43,-24,-4,14,24
0,29,29,-14,-14,29,-39,-43,-19,0,14,29
-9,19,29,-4,-19,24,-34,-43,-19,0,14,19
-14,19,34,-2,-24,26,-29,-48,-19,0,14,19
-14,19,34,-2,-24,26,-24,-48,-19,0,14,19
-9,19,29,-4,-19,24,-24,-58,-19,0,14,19
-9,14,24,-2,-17,19,-34,-53,-19,0,14,19
-9,9,19,0,-14,14,-48,-39,-19,0,9,19
-14,9,24,2,-19,17,-58,-39,-19,-4,9,19
-14,9,24,2,-19,17,-58,-39,-24,-9,9,14
-14,9,24,2,-19,17,-39,-48,-24,-9,9,14
-19,9,29,4,-24,19,-4,-58,-29,-9,9,14
-24,4,29,9,-26,17,-4,-58,-29,-9,9,9
-24,0,24,12,-24,12,-9,-63,-29,-14,4,4
-24,0,24,12,-24,12,-29,-58,-29,-14,4,4
-24,0,24,12,-24,12,-48,-48,-29,-14,0,0
-24,0,24,12,-24,12,-48,-43,-24,-14,0,0
-24,-4,19,14,-21,7,-48,-48,-29,-19,-4,0
-24,-4,19,14,-21,7,-34,-48,-29,-19,-9,0
-19,0,19,9,-19,9,-14,-53,-29,-24,-9,0
-14,0,14,7,-14,7,-4,-63,-34,-29,-9,0
-14,-9,4,12,-9,-2,0,-68,-39,-34,-4,0
-19,-9,9,14,-14,0,-14,-53,-39,-34,-4,0
-19,-9,9,14,-14,0,-24,-43,-48,-39,-9,0
-19,-9,9,14,-14,0,-39,-53,-48,-39,-14,-4
-19,-4,14,12,-17,4,-53,-63,-53,-43,-14,-4
-19,-4,14,12,-17,4,-53,-73,-53,-43,-24,-4
-19,-4,14,12,-17,4,-53,-78,-53,-43,-29,-4
-19,-9,9,14,-14,0,-53,-78,-53,-48,-29,-4
-19,-9,9,14,-14,0,-53,-73,-53,-48,-29,-4
-24,-4,19,14,-21,7,-39,-73,-53,-48,-24,-4
-29,-4,24,17,-26,9,-34,-78,-58,-48,-24,-4
-29,-9,19,19,-24,4,-34,-78,-58,-48,-24,-4
-24,-9,14,17,-19,2,-29,-78,-58,-48,-24,-4
-19,-4,14,12,-17,4,-29,-73,-58,-48,-19,-4
-9,-4,4,7,-7,0,-29,-68,-63,-48,-19,-4
-4,0,4,2,-4,2,-29,-68,-63,-53,-19,-4
-4,0,4,2,-4,2,-24,-73,-58,-53,-24,-9
-9,-4,4,7,-7,0,-24,-73,-58,-58,-24,-9
-9,-4,4,7,-7,0,-34,-73,-58,-58,-19,-4
-9,0,9,4,-9,4,-43,-78,-63,-58,-19,-4
-4,0,4,2,-4,2,-48,-78,-68,-58,-24,-4
-4,0,4,2,-4,2,-48,-78,-68,-58,-29,-4
-4,-4,0,4,-2,-2,-43,-82,-68,-58,-34,-4
-4,-4,0,4,-2,-2,-29,-92,-68,-58,-34,-4
-9,-4,4,7,-7,0,-24,-92,-68,-58,-34,-4
-14,-4,9,9,-12,2,-29,-97,-78,-68,-39,-9
-14,-4,9,9,-12,2,-34,-97,-78,-73,-39,-14
-24,-9,14,17,-19,2,-43,-92,-78,-73,-39,-9
-34,-14,19,24,-26,2,-53,-87,-73,-73,-34,-9
-19,-9,9,14,-14,0,-58,-87,-73,-73,-34,-14
-4,-9,-4,7,0,-7,-63,-87,-73,-73,-39,-14
-9,-4,4,7,-7,0,-68,-87,-73,-73,-39,-14
-9,4,14,2,-12,9,-68,-87,-73,-73,-39,-14
0,0,0,0,0,0,-68,-82,-73,-68,-34,-14
4,-4,-9,0,7,-7,-73,-78,-73,-68,-29,-19
0,0,0,0,0,0,-63,-78,-73,-63,-29,-14
0,0,0,0,0,0,-58,-78,-78,-58,-29,-9
-4,-14,-9,9,2,-12,-48,-97,-82,-68,-29,-9
-9,-29,-19,19,4,-24,-39,-117,-87,-78,-29,-9
-9,-19,-9,14,0,-14,-39,-102,-87,-78,-29,-9
-9,-9,0,9,-4,-4,-39,-87,-87,-78,-29,-9
-9,-9,0,9,-4,-4,-39,-87,-87,-73,-29,-9
-9,-9,0,9,-4,-4,-39,-87,-87,-68,-29,-9
-9,-9,0,9,-4,-4,-39,-92,-87,-68,-34,-9
-9,-9,0,9,-4,-4,-39,-97,-87,-68,-39,-9
-4,-4,0,4,-2,-2,-39,-97,-87,-68,-39,-9
0,0,0,0,0,0,-39,-97,-87,-68,-39,-9
0,9,9,-4,-4,9,-34,-97,-87,-68,-39,-9
0,19,19,-9,-9,19,-29,-97,-87,-68,-39,-9
9,9,0,-9,4,4,-29,-97,-87,-68,-39,-9
19,0,-19,-9,19,-9,-29,-97,-87,-68,-39,-9
9,0,-9,-4,9,-4,-34,-97,-87,-68,-39,-9
0,0,0,0,0,0,-39,-97,-87,-68,-39,-9
-4,0,4,2,-4,2,-53,-97,-87,-73,-39,-9
-9,0,9,4,-9,4,-68,-97,-87,-78,-39,-9
-9,0,9,4,-9,4,-68,-97,-87,-78,-39,-14
-9,0,9,4,-9,4,-68,-97,-87,-78,-39,-19
-4,0,4,2,-4,2,-58,-97,-87,-78,-39,-19
0,0,0,0,0,0,-48,-97,-87,-78,-39,-19
0,0,0,0,0,0,-43,-92,-87,-78,-39,-19
0,0,0,0,0,0,-39,-87,-87,-78,-39,-19
4,4,0,-4,2,2,-39,-87,-87,-73,-39,-19
9,9,0,-9,4,4,-39,-87,-87,-68,-39,-19
14,14,0,-14,7,7,-39,-82,-78,-63,-29,-9
19,19,0,-19,9,9,-39,-78,-68,-58,-19,0
29,29,0,-29,14,14,-29,-68,-63,-48,-9,4
39,39,0,-39,19,19,-19,-58,-58,-39,0,9
48,48,0,-48,24,24,-4,-43,-43,-29,4,19
58,58,0,-58,29,29,9,-29,-29,-19,9,29
58,58,0,-58,29,29,0,-24,-24,-14,9,29
58,58,0,-58,29,29,-9,-19,-19,-9,9,29
58,58,0,-58,29,29,-14,-19,-19,-9,9,29
58,58,0,-58,29,29,-19,-19,-19,-9,9,29
78,68,-9,-73,43,29,-43,-24,-19,-9,19,39
97,78,-19,-87,58,29,-68,-29,-19,-9,29,48
87,68,-19,-78,53,24,-73,-63,-39,-24,19,39
78,58,-19,-68,48,19,-78,-97,-58,-39,9,29
78,58,-19,-68,48,19,-92,-102,-73,-43,4,29
78,58,-19,-68,48,19,-107,-107,-87,-48,0,29
78,68,-9,-73,43,29,-107,-117,-87,-48,0,34
78,78,0,-78,39,39,-107,-126,-87,-48,0,39
78,68,-9,-73,43,29,-92,-117,-82,-43,4,39
78,58,-19,-68,48,19,-78,-107,-78,-39,9,39
78,53,-24,-65,51,14,-63,-102,-73,-39,9,39
78,48,-29,-63,53,9,-48,-97,-68,-39,9,39
73,43,-29,-58,51,7,-58,-97,-68,-39,9,39
68,39,-29,-53,48,4,-68,-97,-68,-39,9,39
68,24,-43,-46,56,-9,-87,-97,-68,-39,9,39
68,9,-58,-39,63,-24,-107,-97,-68,-39,9,39
63,4,-58,-34,61,-26,-78,-102,-73,-43,0,39
43,0,-43,-21,43,-21,-58,-107,-82,-53,-9,24
29,-4,-34,-12,31,-19,-43,-117,-97,-68,-19,14
14,-9,-24,-2,19,-17,-29,-117,-97,-68,-29,0
-19,-39,-19,29,0,-29,-24,-112,-97,-73,-39,-9
-34,-48,-14,41,-9,-31,-24,-112,-97,-73,-43,-24
-24,-39,-14,31,-4,-26,-24,-112,-97,-73,-39,-24
-4,-29,-24,17,9,-26,-39,-117,-102,-82,-34,-24
-4,-29,-24,17,9,-26,-58,-117,-102,-82,-39,-24
-9,-34,-24,21,7,-29,-78,-117,-102,-82,-39,-24
-9,-43,-34,26,12,-39,-63,-117,-102,-82,-43,-24
-9,-48,-39,29,14,-43,-53,-117,-102,-82,-48,-24
-14,-43,-29,29,7,-36,-48,-117,-102,-82,-48,-24
-14,-39,-24,26,4,-31,-43,-112,-102,-82,-48,-24
-14,-39,-24,26,4,-31,-43,-117,-107,-87,-48,-24
-19,-39,-19,29,0,-29,-39,-126,-107,-87,-48,-29
-14,-34,-19,24,2,-26,-29,-126,-107,-87,-48,-29
-9,-34,-24,21,7,-29,-24,-126,-107,-87,-48,-29
-14,-39,-24,26,4,-31,-43,-122,-107,-87,-53,-29
-14,-39,-24,26,4,-31,-58,-117,-107,-87,-53,-29
-19,-39,-19,29,0,-29,-48,-112,-102,-87,-53,-29
-14,-34,-19,24,2,-26,-34,-112,-102,-87,-53,-29
-24,-34,-9,29,-7,-21,-24,-112,-102,-87,-53,-24
-24,-34,-9,29,-7,-21,-19,-112,-102,-87,-53,-19
-24,-34,-9,29,-7,-21,-19,-117,-102,-87,-53,-24
-24,-34,-9,29,-7,-21,-19,-117,-102,-87,-53,-24
-24,-34,-9,29,-7,-21,-24,-117,-117,-87,-53,-29
-19,-29,-9,24,-4,-19,-34,-117,-126,-87,-53,-29
-14,-34,-19,24,2,-26,-39,-117,-117,-87,-53,-29
-9,-39,-29,24,9,-34,-48,-117,-107,-87,-53,-29
-9,-39,-29,24,9,-34,-48,-117,-107,-87,-53,-29
-9,-39,-29,24,9,-34,-43,-117,-107,-82,-53,-29
-14,-34,-19,24,2,-26,-39,-112,-102,-82,-53,-29
-14,-29,-14,21,0,-21,-43,-107,-102,-82,-48,-24
-14,-29,-14,21,0,-21,-53,-92,-102,-82,-48,-24
-19,-24,-4,21,-7,-14,-58,-78,-102,-82,-48,-24
-24,-24,0,24,-12,-12,-34,-92,-107,-87,-48,-24
-58,-24,34,41,-46,4,0,-117,-131,-117,-82,-58
-107,-14,92,61,-100,39,19,-146,-175,-165,-126,-92
-151,4,156,73,-153,80,29,-161,-195,-175,-136,-92
-165,63,229,51,-197,146,73,-78,-102,-97,-92,-73
-136,117,253,9,-195,185,97,63,34,39,0,-24
-19,126,146,-53,-82,136,107,224,263,297,214,102
185,209,24,-197,80,117,63,331,541,707,614,380
366,307,-58,-336,212,124,-146,165,590,951,902,619
463,419,-43,-441,253,187,-356,-131,429,917,922,712
522,448,-73,-485,297,187,-551,-522,14,531,663,663
512,19,-492,-265,502,-236,-566,-824,-614,-390,-156,141
356,-448,-805,46,580,-627,-531,-1185,-1317,-1302,-971,-439
146,-590,-736,222,441,-663,-619,-1576,-1751,-1634,-1171,-570
-107,-566,-458,336,175,-512,-546,-1561,-1703,-1522,-1073,-517
-190,-448,-258,319,34,-353,-400,-1254,-1376,-1220,-858,-409
-170,-346,-175,258,2,-261,-312,-956,-1058,-936,-658,-322
-151,-244,-92,197,-29,-168,-209,-673,-741,-668,-473,-244
-151,-165,-14,158,-68,-90,-122,-453,-492,-448,-351,-190
-146,-102,43,124,-95,-29,-53,-297,-312,-292,-234,-141
-131,-78,53,104,-92,-12,-9,-195,-209,-204,-161,-112
-107,-63,43,85,-75,-9,14,-122,-136,-141,-131,-97
-78,-58,19,68,-48,-19,14,-68,-82,-92,-92,-82
-63,-53,9,58,-36,-21,4,-43,-63,-63,-73,-68
-58,-58,0,58,-29,-29,4,-34,-63,-63,-63,-58
-53,-63,-9,58,-21,-36,19,-39,-53,-63,-58,-53
-43,-58,-14,51,-14,-36,34,-29,-34,-43,-53,-53
-39,-58,-19,48,-9,-39,43,-29,-24,-34,-48,-48
-39,-53,-14,46,-12,-34,39,-14,-19,-34,-43,-43
-34,-53,-19,43,-7,-36,39,0,-14,-34,-43,-43
-39,-58,-19,48,-9,-39,19,9,-14,-29,-39,-48
-43,-63,-19,53,-12,-41,4,14,-9,-19,-34,-48
-48,-63,-14,56,-17,-39,4,19,-9,-19,-34,-43
-48,-63,-14,56,-17,-39,4,19,-9,-19,-34,-39
-48,-68,-19,58,-14,-43,34,14,-9,-14,-39,-39
-53,-58,-4,56,-24,-31,63,9,-4,-14,-43,-39
-43,-58,-14,51,-14,-36,63,9,-9,-19,-43,-43
-58,-63,-4,61,-26,-34,63,4,-14,-29,-48,-48
-58,-68,-9,63,-24,-39,53,4,-14,-29,-48,-58
-53,-63,-9,58,-21,-36,39,4,-14,-29,-48,-58
-53,-48,4,51,-29,-21,39,14,-4,-29,-48,-58
-53,-53,0,53,-26,-26,34,19,0,-29,-48,-58
-53,-53,0,53,-26,-26,34,19,0,-29,-48,-58
-58,-53,4,56,-31,-24,34,19,0,-29,-53,-58
-58,-53,4,56,-31,-24,39,14,-4,-29,-53,-58
-58,-53,4,56,-31,-24,48,14,-4,-29,-53,-63
-58,-58,0,58,-29,-29,48,24,-4,-29,-58,-68
-58,-63,-4,61,-26,-34,53,29,0,-29,-58,-68
-58,-63,-4,61,-26,-34,53,29,4,-29,-58,-68
-58,-63,-4,61,-26,-34,58,29,9,-29,-63,-68
-63,-63,0,63,-31,-31,58,39,14,-29,-63,-68
-63,-63,0,63,-31,-31,58,53,14,-34,-68,-73
-73,-63,9,68,-41,-26,43,53,19,-34,-68,-78
-73,-63,9,68,-41,-26,29,58,29,-29,-68,-82
-73,-63,9,68,-41,-26,39,58,34,-29,-68,-82
-73,-58,14,65,-43,-21,53,73,39,-24,-68,-82
-73,-53,19,63,-46,-17,58,78,34,-19,-68,-82
-78,-53,24,65,-51,-14,58,82,29,-19,-68,-87
-82,-63,19,73,-51,-21,58,92,39,-14,-68,-87
-82,-73,9,78,-46,-31,43,102,43,-9,-63,-87
-82,-68,14,75,-48,-26,73,117,58,-9,-63,-87
-87,-58,29,73,-58,-14,107,122,68,-4,-63,-87
-87,-58,29,73,-58,-14,112,131,73,0,-63,-87
-87,-58,29,73,-58,-14,112,141,87,9,-58,-87
-87,-53,34,70,-61,-9,102,161,97,9,-58,-92
-82,-48,34,65,-58,-7,97,180,107,19,-53,-92
-82,-39,43,61,-63,2,102,195,117,24,-53,-92
-97,-39,58,68,-78,9,107,209,126,34,-48,-87
-87,-39,48,63,-68,4,117,229,146,43,-43,-87
-82,-34,48,58,-65,7,117,248,161,53,-39,-87
-78,-34,43,56,-61,4,126,278,180,63,-29,-82
-73,-34,39,53,-56,2,136,302,195,73,-24,-78
-73,-34,39,53,-56,2,151,322,219,82,-19,-78
-73,-24,48,48,-61,12,165,356,239,97,-14,-78
-78,-19,58,48,-68,19,175,380,258,107,0,-73
-87,-24,63,56,-75,19,190,400,273,122,0,-73
-78,-24,53,51,-65,14,204,414,292,131,4,-68
-78,-24,53,51,-65,14,209,444,307,146,14,-63
-78,-14,63,46,-70,24,209,468,331,165,24,-58
-73,-9,63,41,-68,26,224,497,356,175,34,-53
-78,-4,73,41,-75,34,224,522,380,195,43,-48
-78,-4,73,41,-75,34,224,546,405,209,53,-53
-78,14,92,31,-85,53,229,575,424,229,68,-43
-73,19,92,26,-82,56,239,605,448,244,82,-34
-63,29,92,17,-78,61,244,629,473,268,92,-19
-53,43,97,4,-75,70,244,639,488,283,102,-14
-53,43,97,4,-75,70,248,639,507,302,112,-4
-53,48,102,2,-78,75,253,644,527,317,136,9
-48,58,107,-4,-78,82,268,644,546,336,151,19
-39,73,112,-17,-75,92,268,644,556,351,161,29
-24,73,97,-24,-61,85,248,649,561,361,170,39
-19,78,97,-29,-58,87,239,644,566,375,195,48
-19,78,97,-29,-58,87,224,605,570,385,209,63
-9,87,97,-39,-53,92,200,570,575,395,219,82
4,92,87,-48,-41,90,200,561,575,414,239,97
9,97,87,-53,-39,92,190,527,575,424,253,117
24,92,68,-58,-21,80,156,507,575,429,258,126
39,87,48,-63,-4,68,122,488,566,434,263,141
48,92,43,-70,2,68,102,448,546,434,273,151
48,92,43,-70,2,68,92,429,531,429,287,156
53,92,39,-73,7,65,68,400,502,414,287,156
63,97,34,-80,14,65,58,361,473,395,278,161
68,107,39,-87,14,73,48,312,444,375,268,165
78,117,39,-97,19,78,29,283,400,356,258,170
78,107,29,-92,24,68,14,258,361,326,248,161
78,87,9,-82,34,48,-4,224,326,297,234,161
78,82,4,-80,36,43,-4,190,287,258,214,156
73,82,9,-78,31,46,-14,156,253,229,195,146
73,78,4,-75,34,41,-19,126,214,200,170,131
73,73,0,-73,36,36,-19,102,185,170,161,122
53,63,9,-58,21,36,-9,68,146,146,136,112
53,53,0,-53,26,26,-4,39,117,126,112,107
53,48,-4,-51,29,21,-4,14,87,107,102,97
48,39,-9,-43,29,14,-4,-4,68,87,102,87
43,39,-4,-41,24,17,-14,-4,53,73,97,82
43,39,-4,-41,24,17,-14,-14,39,63,82,73
43,39,-4,-41,24,17,-29,-24,24,58,78,73
39,29,-9,-34,24,9,-43,-29,19,43,68,68
39,39,0,-39,19,19,-34,-29,14,43,68,63
48,48,0,-48,24,24,-24,-34,9,29,58,58
43,48,4,-46,19,26,-14,-34,0,24,58,53
39,48,9,-43,14,29,-9,-34,-4,19,53,48
24,39,14,-31,4,26,-29,-39,-9,9,39,43
14,34,19,-24,-2,26,-39,-48,-14,0,29,39
14,34,19,-24,-2,26,-48,-48,-14,0,29,34
14,34,19,-24,-2,26,-48,-48,-14,-4,24,34
14,24,9,-19,2,17,-34,-43,-9,-4,29,34
4,24,19,-14,-7,21,-19,-39,-9,0,34,34
4,9,4,-7,0,7,-34,-39,-9,0,29,34
4,0,-4,-2,4,-2,-48,-39,-9,0,29,34
0,0,0,0,0,0,-48,-39,-19,0,24,34
0,0,0,0,0,0,-48,-39,-24,0,19,34
0,0,0,0,0,0,-24,-48,-24,0,19,34
-14,0,14,7,-14,7,-4,-58,-24,0,19,34
0,4,4,-2,-2,4,-9,-48,-19,4,24,29
14,9,-4,-12,9,2,-14,-39,-14,9,24,29
14,9,-4,-12,9,2,-29,-39,-14,9,24,29
14,9,-4,-12,9,2,-43,-39,-14,9,29,29
9,9,0,-9,4,4,-9,-43,-14,9,29,34
4,9,4,-7,0,7,9,-43,-19,9,24,39
0,4,4,-2,-2,4,-4,-43,-14,9,24,39
-9,0,9,4,-9,4,-19,-39,-9,9,24,24
-14,0,14,7,-14,7,-34,-34,-9,9,24,19
-14,0,14,7,-14,7,-43,-29,-9,9,24,19
-9,4,14,2,-12,9,-19,-39,-9,9,24,24
-9,4,14,2,-12,9,4,-39,-9,9,24,29
-9,0,9,4,-9,4,0,-29,-9,9,19,29
-14,0,14,7,-14,7,-9,-29,-4,9,19,29
-14,0,14,7,-14,7,-29,-29,-4,4,14,19
-14,0,14,7,-14,7,-43,-29,-4,0,9,14
-19,0,19,9,-19,9,-14,-29,-14,0,9,14
-24,-4,19,14,-21,7,-4,-29,-19,0,9,14
-24,-9,14,17,-19,2,-4,-34,-19,-4,4,14
-24,-9,14,17,-19,2,-9,-34,-19,-4,4,14
-24,-9,14,17,-19,2,-19,-29,-19,-4,0,9
-24,-9,14,17,-19,2,-19,-29,-19,-4,0,4
-19,-14,4,17,-12,-4,-4,-43,-29,-9,-4,0
-19,-14,4,17,-12,-4,14,-48,-29,-9,-9,0
-19,-4,14,12,-17,4,9,-53,-29,-14,-9,0
-14,0,14,7,-14,7,-4,-53,-29,-14,-9,0
-14,-9,4,12,-9,-2,-19,-48,-29,-14,-4,0
-19,-9,9,14,-14,0,-34,-43,-29,-14,-4,0
-19,-9,9,14,-14,0,-34,-43,-39,-19,-4,0
-19,-9,9,14,-14,0,-29,-53,-39,-19,-4,-4
-14,-4,9,9,-12,2,-14,-58,-39,-24,-4,-4
-9,-4,4,7,-7,0,-4,-53,-34,-24,-9,-4
-9,-4,4,7,-7,0,0,-48,-34,-24,-9,-4
-9,-9,0,9,-4,-4,4,-48,-34,-29,-9,-4
-9,-9,0,9,-4,-4,4,-43,-39,-29,-9,-4
-9,-4,4,7,-7,0,4,-43,-43,-29,-4,-4
-9,-4,4,7,-7,0,-9,-48,-48,-29,-4,-4
-9,-9,0,9,-4,-4,-14,-48,-48,-29,-4,-4
-9,-9,0,9,-4,-4,-14,-53,-48,-34,-9,-4
-14,-4,9,9,-12,2,-19,-63,-48,-39,-14,-4
-14,-9,4,12,-9,-2,-19,-68,-53,-39,-19,-4
-19,-14,4,17,-12,-4,-19,-68,-58,-43,-19,-4
-24,-19,4,21,-14,-7,-14,-73,-58,-39,-19,-9
-29,-24,4,26,-17,-9,-14,-73,-58,-39,-14,-9
-19,-19,0,19,-9,-9,-19,-73,-58,-39,-9,-4
-9,-9,0,9,-4,-4,-19,-73,-58,-39,-9,-4
-4,-9,-4,7,0,-7,-19,-68,-58,-39,-14,-4
-4,-9,-4,7,0,-7,-19,-63,-58,-39,-14,-4
-4,-14,-9,9,2,-12,-24,-58,-58,-39,-14,-4
-4,-14,-9,9,2,-12,-24,-63,-58,-39,-14,-4
-19,-14,4,17,-12,-4,-24,-63,-53,-39,-14,-4
-29,-14,14,21,-21,0,-29,-68,-58,-43,-19,-4
-24,-14,9,19,-17,-2,-29,-63,-58,-39,-19,-4
-24,-14,9,19,-17,-2,-24,-58,-58,-34,-19,0
-19,-14,4,17,-12,-4,-24,-58,-53,-34,-14,0
-14,-9,4,12,-9,-2,-24,-58,-53,-34,-14,-4
-4,-9,-4,7,0,-7,-19,-68,-58,-39,-19,-4
0,-14,-14,7,7,-14,-19,-78,-63,-43,-19,-4
-9,-14,-4,12,-2,-9,-19,-78,-63,-48,-19,-4
-14,-19,-4,17,-4,-12,-14,-73,-68,-53,-14,-9
-9,-14,-4,12,-2,-9,-4,-68,-68,-48,-14,-4
-9,-9,0,9,-4,-4,0,-68,-68,-48,-19,0
-9,-9,0,9,-4,-4,-9,-68,-68,-48,-19,0
-9,-9,0,9,-4,-4,-19,-68,-68,-48,-19,0
-9,-9,0,9,-4,-4,-29,-68,-68,-48,-19,0
-9,-9,0,9,-4,-4,-39,-68,-68,-48,-19,0
-9,-14,-4,12,-2,-9,-39,-78,-68,-48,-19,0
-9,-19,-9,14,0,-14,-39,-87,-68,-48,-19,0
-24,-19,4,21,-14,-7,-34,-78,-63,-39,-19,0
-39,-19,19,29,-29,0,-29,-68,-58,-29,-19,0
-24,-14,9,19,-17,-2,-29,-68,-58,-39,-19,0
-9,-9,0,9,-4,-4,-29,-68,-58,-48,-19,0
-9,-4,4,7,-7,0,-19,-68,-58,-48,-19,0
-9,0,9,4,-9,4,-9,-68,-58,-48,-19,0
-9,0,9,4,-9,4,-9,-68,-58,-48,-19,0
-9,0,9,4,-9,4,-9,-68,-58,-48,-19,0
-9,0,9,4,-9,4,-9,-68,-63,-48,-19,0
-9,0,9,4,-9,4,-9,-68,-68,-48,-19,0
-14,-4,9,9,-12,2,-9,-73,-73,-48,-19,0
-19,-9,9,14,-14,0,-9,-78,-78,-48,-19,0
-19,-9,9,14,-14,0,-14,-78,-78,-43,-14,0
-19,-9,9,14,-14,0,-19,-78,-78,-39,-9,0
-19,-9,9,14,-14,0,-29,-78,-73,-39,-9,0
-19,-9,9,14,-14,0,-39,-78,-68,-39,-9,0
-19,-14,4,17,-12,-4,-39,-78,-68,-43,-14,0
-19,-19,0,19,-9,-9,-39,-78,-68,-48,-19,0
-19,-19,0,19,-9,-9,-39,-78,-68,-48,-19,0
-19,-19,0,19,-9,-9,-39,-78,-68,-48,-19,0
-9,-19,-9,14,0,-14,-29,-78,-68,-48,-19,0
0,-19,-19,9,9,-19,-19,-78,-68,-48,-19,0
0,-19,-19,9,9,-19,4,-73,-68,-43,-14,0
0,-19,-19,9,9,-19,29,-68,-68,-39,-9,0
0,-14,-14,7,7,-14,9,-68,-68,-39,-9,0
0,-9,-9,4,4,-9,-9,-68,-68,-39,-9,0
-4,-9,-4,7,0,-7,-9,-68,-68,-39,-14,0
-9,-9,0,9,-4,-4,-9,-68,-68,-39,-19,0
-9,0,9,4,-9,4,-9,-63,-63,-34,-19,0
-9,9,19,0,-14,14,-9,-58,-58,-29,-19,0
4,9,4,-7,0,7,-9,-48,-48,-24,-9,9
19,9,-9,-14,14,0,-9,-39,-39,-19,0,19
34,24,-9,-29,21,7,-4,-24,-29,-9,4,24
48,39,-9,-43,29,14,0,-9,-19,0,9,29
53,53,0,-53,26,26,14,-4,-14,4,19,34
58,68,9,-63,24,39,29,0,-9,9,29,39
58,68,9,-63,24,39,43,0,-9,14,34,43
58,68,9,-63,24,39,58,0,-9,19,39,48
68,68,0,-68,34,34,34,19,0,19,39,48
78,68,-9,-73,43,29,9,39,9,19,39,48
78,53,-24,-65,51,14,-58,9,-4,14,34,48
78,39,-39,-58,58,0,-126,-19,-19,9,29,48
82,58,-24,-70,53,17,-92,-39,-34,0,29,48
87,78,-9,-82,48,34,-58,-58,-48,-9,29,48
87,78,-9,-82,48,34,-58,-73,-53,-14,29,48
87,78,-9,-82,48,34,-58,-87,-58,-19,29,48
78,73,-4,-75,41,34,-78,-87,-68,-19,24,43
68,68,0,-68,34,34,-97,-87,-78,-19,19,39
68,58,-9,-63,39,24,-82,-87,-68,-19,19,39
68,48,-19,-58,43,14,-68,-87,-58,-19,19,39
68,43,-24,-56,46,9,-58,-78,-58,-19,19,39
68,39,-29,-53,48,4,-48,-68,-58,-19,19,39
78,34,-43,-56,61,-4,-48,-68,-58,-19,19,39
87,29,-58,-58,73,-14,-48,-68,-58,-19,19,39
87,24,-63,-56,75,-19,-48,-73,-63,-19,14,39
78,14,-63,-46,70,-24,-48,-87,-68,-24,9,34
68,4,-63,-36,65,-29,-48,-102,-73,-29,4,29
39,-4,-43,-17,41,-24,-43,-117,-87,-48,-9,9
19,-9,-29,-4,24,-19,-39,-102,-87,-48,-19,0
-9,-29,-19,19,4,-24,-34,-82,-87,-53,-29,-9
-14,-29,-14,21,0,-21,-24,-82,-87,-58,-34,-24
-14,-29,-14,21,0,-21,-24,-82,-87,-63,-34,-24
-9,-29,-19,19,4,-24,-29,-92,-92,-73,-34,-24
-14,-29,-14,21,0,-21,-19,-97,-92,-73,-39,-24
-19,-34,-14,26,-2,-24,-29,-97,-92,-73,-39,-24
-19,-39,-19,29,0,-29,-34,-97,-92,-73,-39,-24
-14,-39,-24,26,4,-31,-34,-97,-92,-73,-39,-19
-14,-34,-19,24,2,-26,-34,-97,-92,-73,-39,-14
-14,-29,-14,21,0,-21,-19,-92,-92,-73,-39,-14
-14,-29,-14,21,0,-21,-4,-92,-97,-78,-39,-14
-19,-29,-9,24,-4,-19,-14,-97,-97,-78,-39,-19
-19,-29,-9,24,-4,-19,-29,-97,-97,-78,-39,-19
-19,-34,-14,26,-2,-24,-34,-97,-97,-78,-39,-19
-24,-39,-14,31,-4,-26,-39,-97,-97,-78,-43,-19
-24,-39,-14,31,-4,-26,-34,-102,-97,-78,-43,-19
-24,-39,-14,31,-4,-26,-29,-107,-97,-78,-43,-19
-14,-24,-9,19,-2,-17,-24,-112,-102,-78,-43,-19
-24,-14,9,19,-17,-2,-14,-112,-102,-78,-43,-19
-29,-24,4,26,-17,-9,-19,-107,-102,-78,-43,-19
-34,-34,0,34,-17,-17,-29,-102,-102,-78,-43,-24
-34,-34,0,34,-17,-17,-29,-97,-107,-78,-43,-24
-34,-34,0,34,-17,-17,-29,-97,-112,-78,-43,-24
-24,-24,0,24,-12,-12,-14,-107,-107,-78,-43,-19
-19,-19,0,19,-9,-9,0,-117,-107,-78,-43,-19
-19,-19,0,19,-9,-9,-9,-107,-102,-78,-43,-19
-19,-19,0,19,-9,-9,-9,-97,-97,-78,-43,-19
-19,-24,-4,21,-7,-14,-14,-97,-97,-73,-43,-19
-24,-29,-4,26,-9,-17,-14,-97,-92,-73,-43,-19
-24,-29,-4,26,-9,-17,-14,-97,-92,-73,-39,-19
-19,-29,-9,24,-4,-19,-14,-92,-92,-73,-39,-24
-24,-24,0,24,-12,-12,-4,-87,-92,-73,-39,-24
-34,-24,9,29,-21,-7,14,-87,-92,-73,-39,-24
-68,-24,43,46,-56,9,43,-97,-112,-92,-68,-48
-126,-14,112,70,-119,48,68,-126,-156,-136,-107,-73
-175,4,180,85,-178,92,78,-131,-161,-131,-102,-68
-195,53,248,70,-222,151,117,-39,-53,-43,-43,-43
-146,107,253,19,-200,180,102,92,82,112,73,29
9,126,117,-68,-53,122,68,234,278,356,287,165
224,224,0,-224,112,112,14,283,488,678,624,405
409,341,-68,-375,239,136,-180,63,512,893,893,634
492,390,-102,-441,297,143,-366,-248,297,775,834,673
531,380,-151,-456,341,114,-566,-663,-180,297,478,536
502,4,-497,-253,500,-246,-595,-990,-780,-546,-268,34
312,-448,-761,68,536,-605,-546,-1361,-1444,-1390,-1029,-512
87,-580,-668,246,378,-624,-600,-1649,-1766,-1634,-1190,-614
-165,-541,-375,353,104,-458,-517,-1532,-1625,-1444,-1034,-527
-234,-419,-185,326,-24,-302,-380,-1224,-1307,-1151,-819,-419
-195,-317,-122,256,-36,-219,-292,-917,-990,-868,-614,-317
-170,-224,-53,197,-58,-139,-204,-624,-683,-610,-434,-224
-161,-146,14,153,-87,-65,-136,-390,-434,-390,-307,-165
-146,-87,58,117,-102,-14,-63,-244,-273,-253,-195,-126
-131,-68,63,100,-97,-2,-9,-165,-200,-190,-141,-107
-117,-58,58,87,-87,0,14,-97,-131,-122,-112,-87
-97,-58,39,78,-68,-9,24,-48,-73,-73,-68,-73
-73,-53,19,63,-46,-17,29,-24,-43,-43,-48,-58
-58,-53,4,56,-31,-24,34,-4,-43,-43,-43,-48
-53,-53,0,53,-26,-26,48,0,-34,-48,-39,-43
-43,-48,-4,46,-19,-26,53,9,-14,-34,-34,-43
-39,-48,-9,43,-14,-29,63,4,-9,-24,-34,-39
-39,-43,-4,41,-17,-24,68,4,-14,-24,-34,-34
-39,-43,-4,41,-17,-24,58,9,-14,-24,-34,-34
-43,-48,-4,46,-19,-26,48,14,-14,-24,-34,-39
-43,-53,-9,48,-17,-31,39,19,-9,-24,-34,-39
-48,-53,-4,51,-21,-29,24,29,-9,-29,-34,-39
-53,-58,-4,56,-24,-31,24,29,-9,-29,-34,-43
-53,-63,-9,58,-21,-36,29,29,-9,-24,-34,-48
-53,-48,4,51,-29,-21,43,24,-4,-24,-34,-48
-43,-48,-4,46,-19,-26,53,24,-4,-24,-34,-48
-48,-43,4,46,-26,-19,53,24,-4,-29,-39,-48
-43,-43,0,43,-21,-21,53,24,-4,-29,-39,-58
-43,-43,0,43,-21,-21,58,24,-4,-29,-39,-58
-43,-34,9,39,-26,-12,68,29,0,-29,-39,-58
-43,-43,0,43,-21,-21,63,29,0,-29,-39,-58
-43,-43,0,43,-21,-21,63,29,0,-29,-39,-58
-58,-48,9,53,-34,-19,58,29,0,-29,-43,-58
-68,-53,14,61,-41,-19,53,29,0,-29,-43,-58
-68,-53,14,61,-41,-19,43,34,4,-29,-43,-63
-68,-53,14,61,-41,-19,29,43,4,-29,-48,-68
-68,-53,14,61,-41,-19,34,53,9,-29,-48,-68
-68,-53,14,61,-41,-19,34,58,9,-29,-48,-68
-68,-53,14,61,-41,-19,43,58,9,-29,-53,-68
-73,-53,19,63,-46,-17,48,63,14,-29,-53,-68
-73,-53,19,63,-46,-17,53,73,14,-34,-58,-73
-82,-53,29,68,-56,-12,58,73,14,-34,-58,-78
-82,-58,24,70,-53,-17,58,73,19,-29,-63,-82
-82,-63,19,73,-51,-21,58,68,24,-29,-68,-82
-82,-68,14,75,-48,-26,68,73,29,-24,-68,-82
-78,-73,4,75,-41,-34,78,68,34,-19,-68,-82
-73,-53,19,63,-46,-17,78,97,43,-14,-63,-87
-73,-34,39,53,-56,2,92,131,58,-4,-58,-87
-73,-29,43,51,-58,7,82,131,63,0,-53,-87
-73,-29,43,51,-58,7,73,136,73,0,-53,-87
-78,-29,48,53,-63,9,92,141,73,0,-53,-87
-78,-29,48,53,-63,9,112,151,73,0,-53,-87
-78,-29,48,53,-63,9,112,161,87,9,-48,-87
-78,-29,48,53,-63,9,122,175,97,9,-48,-92
-78,-39,39,58,-58,0,126,190,107,19,-43,-87
-82,-39,43,61,-63,2,122,204,117,24,-43,-82
-97,-39,58,68,-78,9,126,219,126,34,-39,-78
-87,-39,48,63,-68,4,136,239,146,43,-34,-78
-82,-34,48,58,-65,7,136,268,161,53,-29,-82
-82,-34,48,58,-65,7,136,307,180,63,-19,-82
-82,-34,48,58,-65,7,136,322,195,73,-14,-78
-82,-34,48,58,-65,7,141,331,219,82,-9,-78
-82,-24,58,53,-70,17,151,366,239,97,-4,-78
-78,-14,63,46,-70,24,165,390,258,107,9,-73
-73,-9,63,41,-68,26,180,424,278,122,9,-73
-58,-4,53,31,-56,24,195,453,302,131,14,-68
-58,-4,53,31,-56,24,204,473,317,146,24,-63
-58,9,68,24,-63,39,209,488,341,165,34,-58
-53,14,68,19,-61,41,234,517,366,175,43,-53
-53,14,68,19,-61,41,253,541,390,195,53,-43
-48,14,63,17,-56,39,244,566,414,209,63,-43
-48,29,78,9,-63,53,229,590,434,229,78,-34
-43,29,73,7,-58,51,239,610,453,244,92,-24
-39,34,73,2,-56,53,244,629,473,268,102,-14
-39,43,82,-2,-61,63,248,639,488,283,112,-14
-43,43,87,0,-65,65,253,644,507,302,122,-4
-43,48,92,-2,-68,70,258,658,527,317,146,9
-39,58,97,-9,-68,78,258,663,546,336,161,24
-29,78,107,-24,-68,92,239,663,556,351,165,39
-14,82,97,-34,-56,90,229,653,561,361,170,48
-4,92,97,-43,-51,95,229,634,566,375,195,58
4,102,97,-53,-46,100,214,614,570,390,209,73
29,117,87,-73,-29,102,190,595,575,400,219,92
53,122,68,-87,-7,95,180,580,575,414,239,102
48,122,73,-85,-12,97,151,546,575,424,253,117
53,117,63,-85,-4,90,131,517,570,424,258,126
68,117,48,-92,9,82,122,488,556,424,263,141
78,122,43,-100,17,82,102,448,536,424,268,151
73,122,48,-97,12,85,82,429,522,414,273,156
73,117,43,-95,14,80,43,400,492,395,268,156
82,117,34,-100,24,75,19,361,458,375,258,161
82,117,34,-100,24,75,0,312,424,351,248,161
87,117,29,-102,29,73,4,283,375,326,244,161
87,117,29,-102,29,73,19,253,326,297,234,151
102,107,4,-104,48,56,9,209,287,273,214,151
117,102,-14,-109,65,43,14,170,248,239,195,146
102,102,0,-102,51,51,4,136,219,214,175,136
92,97,4,-95,43,51,0,112,185,190,151,122
92,92,0,-92,46,46,-9,92,156,161,141,112
73,87,14,-80,29,51,-19,63,122,136,126,102
78,82,4,-80,36,43,-24,39,97,117,117,102
82,78,-4,-80,43,36,-24,19,73,97,102,97
78,68,-9,-73,43,29,-24,4,58,78,92,87
73,68,-4,-70,39,31,-34,4,43,63,87,82
73,68,-4,-70,39,31,-39,-4,34,53,73,68
73,68,-4,-70,39,31,-43,-14,24,43,68,63
63,58,-4,-61,34,26,-58,-19,19,24,58,58
48,58,9,-53,19,34,-73,-24,9,24,53,53
48,58,9,-53,19,34,-73,-34,0,9,39,48
43,48,4,-46,19,26,-73,-34,-9,4,39,43
39,39,0,-39,19,19,-39,-34,-14,4,43,39
34,39,4,-36,14,21,0,-39,-19,9,48,39
34,43,9,-39,12,26,9,-53,-24,9,39,39
34,43,9,-39,12,26,0,-58,-24,9,29,34
34,43,9,-39,12,26,-14,-58,-24,4,24,39
34,34,0,-34,17,17,-24,-58,-24,0,24,39
24,34,9,-29,7,21,-24,-53,-29,0,24,34
24,29,4,-26,9,17,-29,-48,-29,0,19,34
24,29,4,-26,9,17,-39,-48,-29,0,19,34
24,29,4,-26,9,17,-48,-48,-29,0,19,34
29,29,0,-29,14,14,-39,-48,-24,0,19,34
29,29,0,-29,14,14,-24,-48,-24,0,19,34
19,29,9,-24,4,19,-24,-48,-24,0,19,34
24,29,4,-26,9,17,-29,-48,-24,0,19,29
24,29,4,-26,9,17,-24,-48,-24,4,14,29
24,29,4,-26,9,17,-14,-48,-24,9,14,29
14,24,9,-19,2,17,-24,-43,-19,9,19,29
4,19,14,-12,-4,17,-19,-43,-14,9,19,29
4,19,14,-12,-4,17,-39,-43,-19,4,14,29
0,9,9,-4,-4,9,-58,-43,-19,0,14,29
0,14,14,-7,-7,14,-58,-39,-19,0,14,19
4,29,24,-17,-9,26,-58,-39,-19,0,14,19
4,29,24,-17,-9,26,-19,-48,-19,0,14,19
9,29,19,-19,-4,24,14,-68,-19,0,14,19
9,19,9,-14,0,14,14,-68,-19,0,14,14
9,9,0,-9,4,4,9,-58,-19,0,9,9
0,9,9,-4,-4,9,0,-43,-14,0,9,9
-4,9,14,-2,-9,12,0,-29,-14,0,9,4
-4,9,14,-2,-9,12,-4,-29,-14,0,9,4
-9,9,19,0,-14,14,4,-29,-19,0,9,4
-14,4,19,4,-17,12,4,-39,-19,0,9,4
-14,0,14,7,-14,7,0,-53,-19,-4,4,4
-14,0,14,7,-14,7,-14,-53,-19,-4,4,4
-14,0,14,7,-14,7,-29,-48,-19,-4,0,0
-14,0,14,7,-14,7,-29,-48,-19,-4,0,-4
-14,-4,9,9,-12,2,-29,-58,-29,-9,-4,-9
-19,-9,9,14,-14,0,-24,-43,-29,-9,-9,-4
-19,-9,9,14,-14,0,-14,-34,-29,-14,-9,0
-14,-9,4,12,-9,-2,-14,-43,-29,-14,-9,0
-14,-19,-4,17,-4,-12,-19,-48,-29,-14,-4,0
-19,-14,4,17,-12,-4,-24,-43,-29,-14,-4,0
-19,-9,9,14,-14,0,-24,-43,-39,-19,-9,0
-19,-9,9,14,-14,0,-29,-53,-39,-19,-14,-4
-19,-4,14,12,-17,4,-34,-63,-43,-24,-14,-4
-19,-14,4,17,-12,-4,-24,-73,-43,-24,-19,-4
-19,-24,-4,21,-7,-14,-14,-78,-43,-24,-19,-4
-19,-19,0,19,-9,-9,-14,-68,-39,-29,-19,-4
-19,-9,9,14,-14,0,-14,-53,-34,-29,-19,-4
-19,-4,14,12,-17,4,-14,-53,-34,-29,-14,-4
-19,-4,14,12,-17,4,-24,-58,-39,-29,-14,-4
-19,-9,9,14,-14,0,-9,-58,-43,-34,-14,-4
-14,-9,4,12,-9,-2,9,-58,-48,-39,-14,-4
-14,-4,9,9,-12,2,9,-63,-48,-39,-14,-4
-9,-4,4,7,-7,0,9,-68,-53,-39,-19,-4
-9,-14,-4,12,-2,-9,-4,-68,-58,-43,-19,-4
-14,-29,-14,21,0,-21,-14,-73,-58,-43,-24,-9
-19,-34,-14,26,-2,-24,-43,-73,-58,-48,-24,-14
-19,-34,-14,26,-2,-24,-82,-73,-58,-48,-19,-14
-19,-29,-9,24,-4,-19,-78,-73,-58,-43,-19,-14
-14,-29,-14,21,0,-21,-68,-68,-58,-39,-24,-14
-14,-19,-4,17,-4,-12,-39,-63,-58,-39,-24,-9
-14,-14,0,14,-7,-7,-4,-63,-58,-39,-24,-4
-4,-14,-9,9,2,-12,19,-73,-58,-39,-24,-4
0,-14,-14,7,7,-14,34,-73,-58,-39,-24,-4
-9,-14,-4,12,-2,-9,19,-82,-68,-43,-29,-4
-14,-14,0,14,-7,-7,4,-87,-68,-43,-29,-4
-14,-19,-4,17,-4,-12,-4,-87,-68,-43,-29,0
-14,-24,-9,19,-2,-17,-14,-87,-63,-43,-24,0
-14,-19,-4,17,-4,-12,-19,-82,-63,-43,-24,-4
-14,-19,-4,17,-4,-12,-24,-78,-63,-43,-29,-4
-19,-24,-4,21,-7,-14,-39,-63,-63,-43,-29,-4
-19,-24,-4,21,-7,-14,-48,-48,-63,-43,-29,-4
-14,-24,-9,19,-2,-17,-53,-58,-63,-43,-24,-4
-14,-24,-9,19,-2,-17,-63,-68,-63,-48,-19,-9
-9,-19,-9,14,0,-14,-39,-78,-68,-48,-19,-9
-9,-19,-9,14,0,-14,-19,-87,-78,-48,-19,-9
-9,-9,0,9,-4,-4,-9,-87,-78,-48,-19,-9
-9,0,9,4,-9,4,0,-87,-78,-48,-19,-9
-9,0,9,4,-9,4,-9,-82,-78,-48,-19,-9
-9,0,9,4,-9,4,-19,-78,-78,-48,-19,-9
-9,-4,4,7,-7,0,-19,-78,-78,-48,-19,-9
-9,-9,0,9,-4,-4,-19,-78,-78,-48,-19,-9
-9,-19,-9,14,0,-14,-9,-78,-78,-48,-24,-9
-9,-29,-19,19,4,-24,0,-78,-78,-48,-29,-9
-14,-29,-14,21,0,-21,-9,-78,-78,-48,-29,-9
-19,-29,-9,24,-4,-19,-19,-78,-78,-48,-29,-9
-19,-24,-4,21,-7,-14,-29,-78,-73,-48,-29,-9
-19,-19,0,19,-9,-9,-39,-78,-68,-48,-29,-9
-14,-19,-4,17,-4,-12,-58,-78,-68,-48,-29,-9
-9,-19,-9,14,0,-14,-78,-78,-68,-48,-29,-9
-9,-19,-9,14,0,-14,-48,-87,-78,-48,-29,-9
-9,-19,-9,14,0,-14,-19,-97,-87,-48,-29,-9
-9,-19,-9,14,0,-14,0,-97,-87,-48,-29,-9
-9,-19,-9,14,0,-14,19,-97,-87,-48,-29,-9
-9,-14,-4,12,-2,-9,4,-87,-82,-48,-29,-9
-9,-9,0,9,-4,-4,-9,-78,-78,-48,-29,-9
-9,-9,0,9,-4,-4,-19,-78,-73,-48,-29,-9
-9,-9,0,9,-4,-4,-29,-78,-68,-48,-29,-9
-9,-14,-4,12,-2,-9,-29,-78,-68,-48,-29,-9
-9,-19,-9,14,0,-14,-29,-78,-68,-48,-29,-9
-9,-19,-9,14,0,-14,-29,-78,-73,-48,-29,-9
-9,-19,-9,14,0,-14,-29,-78,-78,-48,-29,-9
-9,-19,-9,14,0,-14,-29,-82,-78,-48,-29,-9
-9,-19,-9,14,0,-14,-29,-87,-78,-48,-29,-9
-9,-19,-9,14,0,-14,-29,-87,-73,-43,-24,-9
-9,-19,-9,14,0,-14,-29,-87,-68,-39,-19,-9
-9,-14,-4,12,-2,-9,-39,-82,-68,-39,-19,-9
-9,-9,0,9,-4,-4,-48,-78,-68,-39,-19,-9
0,0,0,0,0,0,-39,-78,-68,-39,-14,-4
9,9,0,-9,4,4,-29,-78,-68,-39,-9,0
19,19,0,-19,9,9,-14,-63,-58,-34,-9,0
29,29,0,-29,14,14,0,-48,-48,-29,-9,0
34,29,-4,-31,19,12,4,-39,-39,-19,-4,4
39,29,-9,-34,24,9,9,-29,-29,-9,0,9
43,29,-14,-36,29,7,29,-24,-24,-4,4,19
48,29,-19,-39,34,4,48,-19,-19,0,9,29
48,39,-9,-43,29,14,48,-14,-14,4,19,29
48,48,0,-48,24,24,48,-9,-9,9,29,29
58,48,-9,-53,34,19,4,4,0,9,29,34
68,48,-19,-58,43,14,-39,19,9,9,29,39
73,48,-24,-61,48,12,-53,9,0,9,29,39
78,48,-29,-63,53,9,-68,0,-9,9,29,39
78,48,-29,-63,53,9,-68,-29,-24,0,24,39
78,48,-29,-63,53,9,-68,-58,-39,-9,19,39
78,53,-24,-65,51,14,-82,-78,-48,-19,14,39
78,58,-19,-68,48,19,-97,-97,-58,-29,9,39
78,58,-19,-68,48,19,-97,-97,-63,-29,9,34
78,58,-19,-68,48,19,-97,-97,-68,-29,9,29
78,58,-19,-68,48,19,-78,-92,-68,-29,9,29
78,58,-19,-68,48,19,-58,-87,-68,-29,9,29
73,39,-34,-56,53,2,-43,-87,-68,-29,4,29
68,19,-48,-43,58,-14,-29,-87,-68,-29,0,29
68,19,-48,-43,58,-14,-29,-87,-68,-29,0,29
68,19,-48,-43,58,-14,-29,-87,-68,-29,0,29
73,14,-58,-43,65,-21,-48,-82,-63,-29,0,29
63,4,-58,-34,61,-26,-68,-82,-58,-29,4,29
58,0,-58,-29,58,-29,-87,-87,-53,-34,9,29
29,-4,-34,-12,31,-19,-102,-87,-58,-48,9,19
14,-9,-24,-2,19,-17,-53,-87,-68,-48,-9,9
-9,-29,-19,19,4,-24,-4,-82,-78,-53,-29,0
-34,-39,-4,36,-14,-21,-14,-82,-78,-58,-43,-19
-53,-48,4,51,-29,-21,-34,-82,-78,-63,-53,-24
-29,-48,-19,39,-4,-34,-48,-87,-82,-73,-43,-24
-14,-48,-34,31,9,-41,-48,-87,-82,-73,-39,-24
-19,-48,-29,34,4,-39,-34,-92,-87,-73,-39,-24
-19,-48,-29,34,4,-39,-14,-97,-92,-73,-39,-24
-19,-48,-29,34,4,-39,-4,-112,-92,-73,-43,-24
-24,-43,-19,34,-2,-31,4,-126,-92,-73,-48,-24
-24,-39,-14,31,-4,-26,-9,-112,-92,-73,-48,-24
-24,-39,-14,31,-4,-26,-24,-102,-97,-78,-48,-24
-29,-39,-9,34,-9,-24,-24,-102,-92,-78,-43,-29
-29,-39,-9,34,-9,-24,-29,-97,-87,-78,-39,-29
-29,-43,-14,36,-7,-29,-34,-97,-87,-78,-39,-29
-34,-48,-14,41,-9,-31,-39,-97,-87,-78,-43,-29
-34,-48,-14,41,-9,-31,-39,-97,-92,-78,-48,-34
-34,-48,-14,41,-9,-31,-39,-97,-97,-78,-53,-39
-19,-39,-19,29,0,-29,-34,-102,-102,-78,-53,-39
-24,-34,-9,29,-7,-21,-24,-102,-102,-78,-53,-39
-24,-34,-9,29,-7,-21,-19,-117,-102,-78,-53,-39
-24,-34,-9,29,-7,-21,-19,-131,-102,-78,-53,-43
-29,-39,-9,34,-9,-24,-19,-112,-97,-78,-48,-39
-34,-43,-9,39,-12,-26,-19,-97,-92,-78,-43,-34
-29,-39,-9,34,-9,-24,-29,-97,-87,-73,-43,-29
-29,-39,-9,34,-9,-24,-39,-97,-87,-68,-43,-29
-29,-39,-9,34,-9,-24,-58,-97,-87,-68,-43,-29
-29,-39,-9,34,-9,-24,-68,-97,-87,-68,-43,-29
-29,-34,-4,31,-12,-19,-43,-97,-87,-63,-43,-29
-34,-29,4,31,-19,-12,-14,-97,-82,-63,-43,-29
-29,-29,0,29,-14,-14,0,-97,-82,-63,-34,-19
-19,-29,-9,24,-4,-19,14,-92,-82,-63,-29,-14
-14,-24,-9,19,-2,-17,4,-87,-82,-63,-29,-14
-14,-24,-9,19,-2,-17,4,-87,-82,-63,-29,-14
-48,-39,9,43,-29,-14,29,-87,-102,-87,-63,-48
-107,-43,63,75,-85,9,48,-107,-146,-136,-107,-82
-170,-24,146,97,-158,61,39,-161,-200,-180,-146,-102
-204,24,229,90,-217,126,58,-117,-141,-141,-131,-102
-244,58,302,92,-273,180,112,24,-39,-73,-107,-107
-175,58,234,58,-204,146,146,175,122,82,14,-48
48,112,63,-80,-7,87,117,375,448,517,439,239
244,185,-58,-214,151,63,-53,307,590,844,795,517
390,429,39,-409,175,234,-263,29,580,1078,1073,790
492,614,122,-553,185,368,-488,-351,307,951,1054,888
551,214,-336,-383,444,-61,-517,-668,-341,-39,146,302
448,-263,-712,-92,580,-488,-468,-1029,-1054,-1029,-775,-326
200,-502,-702,151,451,-602,-580,-1595,-1698,-1576,-1166,-575
-78,-570,-492,324,207,-531,-556,-1756,-1878,-1688,-1239,-634
-209,-468,-258,339,24,-363,-434,-1464,-1581,-1410,-1024,-527
-234,-385,-151,309,-41,-268,-361,-1171,-1283,-1141,-819,-424
-209,-292,-82,251,-63,-187,-258,-834,-932,-839,-610,-322
-200,-214,-14,207,-92,-114,-175,-556,-639,-575,-453,-253
-185,-141,43,163,-114,-48,-102,-366,-409,-380,-302,-195
-170,-107,63,139,-117,-21,-48,-244,-268,-258,-209,-156
-136,-73,63,104,-100,-4,-9,-151,-175,-165,-161,-112
-97,-48,48,73,-73,0,14,-78,-92,-92,-97,-73
-82,-58,24,70,-53,-17,14,-48,-63,-63,-68,-58
-78,-73,4,75,-41,-34,14,-24,-63,-63,-53,-48
-73,-73,0,73,-36,-36,34,-19,-53,-63,-48,-43
-63,-68,-4,65,-29,-36,43,-9,-34,-43,-43,-43
-53,-63,-9,58,-21,-36,43,-9,-24,-34,-39,-43
-48,-53,-4,51,-21,-29,39,-4,-24,-34,-34,-43
-43,-53,-9,48,-17,-31,39,4,-19,-34,-34,-43
-43,-58,-14,51,-14,-36,39,14,-14,-34,-34,-48
-48,-63,-14,56,-17,-39,43,14,-9,-29,-34,-48
-58,-63,-4,61,-26,-34,43,19,-9,-29,-34,-48
-58,-63,-4,61,-26,-34,43,19,-9,-24,-34,-48
-53,-63,-9,58,-21,-36,48,19,-9,-14,-34,-48
-48,-43,4,46,-26,-19,48,14,-4,-14,-34,-48
-34,-39,-4,36,-14,-21,43,14,-4,-14,-34,-48
-48,-43,4,46,-26,-19,39,14,-4,-19,-39,-43
-53,-53,0,53,-26,-26,34,14,-4,-19,-39,-48
-58,-58,0,58,-29,-29,29,14,-4,-19,-39,-48
-63,-53,9,58,-36,-21,29,19,0,-19,-39,-48
-63,-63,0,63,-31,-31,34,19,0,-24,-39,-53
-63,-63,0,63,-31,-31,43,19,0,-29,-39,-58
-73,-78,-4,75,-34,-41,34,24,0,-29,-43,-58
-78,-92,-14,85,-31,-53,24,29,0,-29,-43,-58
-78,-82,-4,80,-36,-43,4,34,4,-24,-43,-63
-78,-73,4,75,-41,-34,-19,43,4,-19,-48,-68
-68,-63,4,65,-36,-29,24,48,9,-19,-43,-63
-58,-53,4,56,-31,-24,63,48,9,-19,-39,-58
-58,-53,4,56,-31,-24,68,48,9,-19,-43,-58
-63,-53,9,58,-36,-21,68,53,14,-19,-43,-58
-63,-53,9,58,-36,-21,68,58,14,-24,-53,-63
-73,-53,19,63,-46,-17,68,53,14,-24,-58,-68
-73,-58,14,65,-43,-21,68,58,19,-24,-58,-78
-73,-63,9,68,-41,-26,68,58,24,-29,-58,-82
-78,-68,9,73,-43,-29,53,78,29,-24,-58,-82
-78,-73,4,75,-41,-34,39,87,34,-19,-58,-82
-78,-63,14,70,-46,-24,24,92,43,-19,-58,-82
-82,-53,29,68,-56,-12,24,102,58,-14,-58,-78
-78,-53,24,65,-51,-14,39,112,63,-4,-48,-78
-73,-58,14,65,-43,-21,53,126,73,0,-43,-78
-78,-63,14,70,-46,-24,68,126,73,4,-43,-78
-78,-68,9,73,-43,-29,82,131,73,9,-43,-78
-78,-68,9,73,-43,-29,92,141,87,19,-43,-78
-78,-68,9,73,-43,-29,112,156,97,19,-48,-82
-73,-63,9,68,-41,-26,141,170,107,29,-43,-82
-73,-48,24,61,-48,-12,161,185,117,34,-43,-82
-87,-48,39,68,-63,-4,151,200,126,43,-34,-78
-78,-48,29,63,-53,-9,146,219,146,53,-24,-78
-73,-43,29,58,-51,-7,136,234,161,63,-19,-78
-73,-43,29,58,-51,-7,126,258,180,73,-9,-73
-78,-63,14,70,-46,-24,112,283,195,82,-9,-68
-82,-82,0,82,-41,-41,102,302,219,92,-9,-68
-82,-58,24,70,-53,-17,78,341,239,107,-4,-68
-78,-34,43,56,-61,4,58,370,258,117,9,-63
-78,-34,43,56,-61,4,112,390,273,131,9,-63
-68,-34,34,51,-51,0,165,405,292,141,14,-58
-63,-34,29,48,-46,-2,185,429,307,156,24,-53
-58,-19,39,39,-48,9,200,448,331,175,34,-48
-39,-4,34,21,-36,14,219,478,356,185,43,-43
-24,4,29,9,-26,17,234,502,380,204,53,-34
-34,4,39,14,-36,21,244,527,400,214,63,-34
-48,19,68,14,-58,43,248,551,414,229,78,-24
-43,19,63,12,-53,41,244,566,439,244,92,-19
-39,24,63,7,-51,43,234,580,463,268,102,-14
-34,34,68,0,-51,51,229,610,483,287,112,-14
-34,34,68,0,-51,51,224,634,507,312,122,-4
-34,39,73,-2,-53,56,209,644,536,331,146,14
-29,48,78,-9,-53,63,190,644,566,356,161,34
-14,63,78,-24,-46,70,170,644,575,370,170,48
4,63,58,-34,-26,61,161,634,580,380,180,58
14,68,53,-41,-19,61,195,624,585,395,209,68
24,73,48,-48,-12,61,214,614,590,409,229,82
39,87,48,-63,-4,68,170,600,605,424,239,102
53,92,39,-73,7,65,141,590,614,444,258,112
48,97,48,-73,0,73,122,551,605,453,273,122
53,97,43,-75,4,70,112,517,590,453,278,126
68,97,29,-82,19,63,117,488,575,453,283,141
78,102,24,-90,26,63,112,448,556,453,287,151
82,102,19,-92,31,61,102,434,551,458,302,165
92,97,4,-95,43,51,73,409,531,453,307,175
102,97,-4,-100,53,46,58,370,502,434,297,180
102,97,-4,-100,53,46,48,322,473,409,287,180
102,97,-4,-100,53,46,19,292,429,385,278,180
97,97,0,-97,48,48,0,263,385,356,263,170
97,92,-4,-95,51,43,-14,224,341,326,244,170
97,92,-4,-95,51,43,-14,190,297,287,224,165
97,97,0,-97,48,48,-24,156,263,258,204,156
102,97,-4,-100,53,46,-29,131,224,229,180,141
102,92,-9,-97,56,41,-14,107,195,200,170,131
82,87,4,-85,39,46,0,73,161,175,156,122
78,78,0,-78,39,39,-19,48,131,151,141,117
73,68,-4,-70,39,31,-34,29,102,126,122,107
58,53,-4,-56,31,24,-43,14,87,102,107,92
43,48,4,-46,19,26,-63,14,73,82,97,82
53,48,-4,-51,29,21,-73,4,53,73,78,68
63,48,-14,-56,39,17,-82,-4,34,63,68,63
58,39,-19,-48,39,9,-63,-19,29,39,58,58
48,39,-9,-43,29,14,-43,-34,19,34,53,53
48,39,-9,-43,29,14,-24,-43,9,19,39,53
43,29,-14,-36,29,7,-4,-43,0,14,39,53
34,19,-14,-26,24,2,-24,-39,-4,9,34,48
24,19,-4,-21,14,7,-39,-39,-9,9,29,48
24,24,0,-24,12,12,-39,-48,-14,9,29,48
24,24,0,-24,12,12,-58,-48,-14,9,29,43
29,34,4,-31,12,19,-58,-48,-14,4,24,43
34,34,0,-34,17,17,-53,-48,-14,0,24,39
24,34,9,-29,7,21,-34,-48,-19,-4,24,34
24,29,4,-26,9,17,-19,-48,-19,-9,19,34
19,19,0,-19,9,9,-19,-48,-19,-9,19,34
14,9,-4,-12,9,2,-19,-48,-19,-9,19,34
19,9,-9,-14,14,0,-39,-53,-19,-9,19,29
19,9,-9,-14,14,0,-53,-58,-24,-9,19,24
4,9,4,-7,0,7,-68,-58,-24,-4,14,24
4,9,4,-7,0,7,-87,-58,-24,0,9,19
9,14,4,-12,2,9,-92,-53,-19,0,4,19
14,19,4,-17,4,12,-92,-48,-14,0,4,19
14,19,4,-17,4,12,-63,-48,-14,-4,9,19
14,19,4,-17,4,12,-19,-53,-14,-9,9,19
14,19,4,-17,4,12,4,-58,-24,-9,4,19
9,9,0,-9,4,4,29,-63,-29,-9,4,19
0,9,9,-4,-4,9,14,-58,-29,-4,4,9
-4,19,24,-7,-14,21,0,-58,-29,0,4,9
-4,19,24,-7,-14,21,0,-53,-24,0,4,9
0,19,19,-9,-9,19,-4,-58,-19,0,4,9
0,14,14,-7,-7,14,-14,-53,-14,0,4,9
0,9,9,-4,-4,9,-29,-39,-9,0,0,9
-4,9,14,-2,-9,12,-58,-29,-4,0,4,9
-4,9,14,-2,-9,12,-78,-19,-4,0,9,4
-4,9,14,-2,-9,12,-58,-34,-9,0,9,4
-9,9,19,0,-14,14,-24,-48,-19,0,9,4
-14,4,19,4,-17,12,-24,-48,-19,0,9,4
-14,0,14,7,-14,7,-29,-53,-19,-4,4,4
-9,0,9,4,-9,4,-39,-48,-14,-4,4,4
-4,0,4,2,-4,2,-48,-39,-9,-4,0,0
-4,0,4,2,-4,2,-48,-39,-9,-4,0,-4
-4,-4,0,4,-2,-2,-48,-48,-19,-9,-4,-9
-9,-4,4,7,-7,0,-34,-53,-24,-9,-9,-9
-9,0,9,4,-9,4,-14,-63,-29,-14,-9,-9
-4,4,9,0,-7,7,-9,-68,-29,-14,-14,-9
-4,0,4,2,-4,2,-9,-68,-29,-14,-14,-9
-9,0,9,4,-9,4,-14,-63,-29,-14,-14,-9
-9,0,9,4,-9,4,-14,-63,-39,-19,-19,-9
-14,-4,9,9,-12,2,-14,-68,-39,-24,-24,-14
-19,-4,14,12,-17,4,-14,-73,-43,-34,-24,-14
-19,-4,14,12,-17,4,-39,-73,-43,-34,-29,-14
-19,-4,14,12,-17,4,-63,-68,-43,-34,-29,-14
-14,-9,4,12,-9,-2,-48,-68,-43,-39,-29,-14
-9,-9,0,9,-4,-4,-34,-63,-43,-39,-29,-14
-9,0,9,4,-9,4,-34,-58,-39,-34,-19,-14
-9,4,14,2,-12,9,-43,-58,-39,-29,-14,-14
-9,0,9,4,-9,4,-43,-58,-39,-29,-14,-14
-4,0,4,2,-4,2,-39,-58,-39,-29,-14,-14
-4,4,9,0,-7,7,-34,-68,-39,-29,-14,-9
0,4,4,-2,-2,4,-29,-78,-43,-29,-19,-4
0,4,4,-2,-2,4,-24,-78,-53,-34,-19,-4
-4,0,4,2,-4,2,-14,-82,-58,-34,-24,-9
-9,-9,0,9,-4,-4,-14,-82,-58,-39,-24,-9
-9,-14,-4,12,-2,-9,-24,-82,-58,-39,-19,-4
-9,-9,0,9,-4,-4,-29,-82,-58,-39,-19,-9
-4,-9,-4,7,0,-7,-29,-78,-58,-39,-24,-14
-4,-9,-4,7,0,-7,-34,-73,-53,-39,-24,-14
-4,-14,-9,9,2,-12,-34,-73,-48,-39,-24,-14
-4,-14,-9,9,2,-12,-24,-82,-48,-43,-24,-14
-9,-14,-4,12,-2,-9,-24,-82,-48,-48,-24,-14
-9,-14,-4,12,-2,-9,-39,-87,-63,-53,-29,-14
-4,-14,-9,9,2,-12,-53,-87,-68,-53,-29,-14
-4,-14,-9,9,2,-12,-43,-87,-68,-53,-29,-9
-4,-14,-9,9,2,-12,-34,-87,-63,-53,-24,-9
0,0,0,0,0,0,-29,-87,-63,-53,-24,-14
4,9,4,-7,0,7,-24,-87,-63,-53,-29,-14
0,4,4,-2,-2,4,-29,-87,-63,-53,-29,-14
0,4,4,-2,-2,4,-29,-87,-63,-53,-29,-14
0,-4,-4,2,2,-4,-29,-82,-68,-48,-24,-14
-4,-14,-9,9,2,-12,-34,-78,-73,-48,-19,-19
-4,-4,0,4,-2,-2,-39,-78,-68,-48,-24,-14
-9,0,9,4,-9,4,-48,-78,-68,-48,-29,-9
-9,-4,4,7,-7,0,-53,-78,-68,-48,-29,-9
-9,-9,0,9,-4,-4,-58,-78,-68,-48,-29,-9
-9,-9,0,9,-4,-4,-58,-87,-73,-53,-34,-14
-9,-9,0,9,-4,-4,-58,-97,-78,-58,-39,-19
-9,-9,0,9,-4,-4,-43,-97,-78,-58,-39,-19
-9,-9,0,9,-4,-4,-29,-97,-78,-58,-39,-19
-9,-9,0,9,-4,-4,-29,-97,-78,-58,-39,-19
-9,-9,0,9,-4,-4,-29,-97,-78,-58,-39,-19
-9,-4,4,7,-7,0,-39,-97,-78,-58,-39,-19
-9,0,9,4,-9,4,-48,-97,-78,-58,-39,-19
-9,0,9,4,-9,4,-34,-97,-78,-58,-34,-14
-9,0,9,4,-9,4,-19,-97,-78,-58,-29,-9
-9,0,9,4,-9,4,-19,-97,-78,-58,-29,-9
-9,0,9,4,-9,4,-19,-97,-78,-58,-29,-9
-9,-4,4,7,-7,0,-34,-92,-78,-58,-34,-14
-9,-9,0,9,-4,-4,-48,-87,-78,-58,-39,-19
-14,-9,4,12,-9,-2,-48,-87,-78,-58,-39,-19
-19,-9,9,14,-14,0,-48,-87,-78,-58,-39,-19
-19,-9,9,14,-14,0,-53,-87,-78,-58,-34,-19
-19,-9,9,14,-14,0,-58,-87,-78,-58,-29,-19
-14,-4,9,9,-12,2,-58,-87,-78,-58,-29,-19
-9,0,9,4,-9,4,-58,-87,-78,-58,-29,-19
-9,0,9,4,-9,4,-43,-87,-78,-58,-34,-19
-9,0,9,4,-9,4,-29,-87,-78,-58,-39,-19
-9,0,9,4,-9,4,-29,-87,-78,-58,-39,-19
-9,0,9,4,-9,4,-29,-87,-78,-58,-39,-19
-9,4,14,2,-12,9,-29,-92,-78,-58,-34,-14
-9,9,19,0,-14,14,-29,-97,-78,-58,-29,-9
-9,9,19,0,-14,14,-43,-97,-78,-53,-29,-9
-9,9,19,0,-14,14,-58,-97,-78,-48,-29,-9
4,24,19,-14,-7,21,-48,-78,-63,-43,-19,-4
19,39,19,-29,0,29,-39,-58,-48,-39,-9,0
19,39,19,-29,0,29,-24,-53,-43,-29,-9,4
19,39,19,-29,0,29,-9,-48,-39,-19,-9,9
29,39,9,-34,9,24,-9,-34,-29,-9,4,14
39,39,0,-39,19,19,-9,-19,-19,0,19,19
39,48,9,-43,14,29,-9,-19,-14,4,19,24
39,58,19,-48,9,39,-9,-19,-9,9,19,29
39,58,19,-48,9,39,9,-19,-9,9,19,29
39,58,19,-48,9,39,29,-19,-9,9,19,29
48,58,9,-53,19,34,-9,-24,-14,4,19,29
58,58,0,-58,29,29,-48,-29,-19,0,19,29
63,58,-4,-61,34,26,-97,-48,-29,-9,14,29
68,58,-9,-63,39,24,-146,-68,-39,-19,9,29
73,68,-4,-70,39,31,-122,-92,-53,-24,9,34
78,78,0,-78,39,39,-97,-117,-68,-29,9,39
78,78,0,-78,39,39,-97,-117,-68,-29,9,39
78,78,0,-78,39,39,-97,-117,-68,-29,9,39
73,73,0,-73,36,36,-82,-107,-63,-24,9,39
68,68,0,-68,34,34,-68,-97,-58,-19,9,39
58,58,0,-58,29,29,-68,-92,-53,-19,9,39
48,48,0,-48,24,24,-68,-87,-48,-19,9,39
48,39,-9,-43,29,14,-87,-87,-48,-19,9,34
48,29,-19,-39,34,4,-107,-87,-48,-19,9,29
53,19,-34,-36,43,-7,-92,-92,-58,-24,4,29
58,9,-48,-34,53,-19,-78,-97,-68,-29,0,29
48,4,-43,-26,46,-19,-73,-102,-68,-34,-4,29
29,0,-29,-14,29,-14,-68,-107,-73,-43,-9,19
9,-4,-14,-2,12,-9,-63,-112,-82,-58,-19,9
-4,-9,-4,7,0,-7,-48,-107,-78,-58,-29,0
-29,-29,0,29,-14,-14,-53,-102,-78,-63,-39,-9
-34,-29,4,31,-19,-12,-63,-102,-78,-63,-43,-24
-34,-34,0,34,-17,-17,-48,-102,-82,-63,-43,-24
-24,-39,-14,31,-4,-26,-48,-107,-92,-73,-43,-24
-24,-39,-14,31,-4,-26,-48,-107,-92,-73,-48,-24
-29,-43,-14,36,-7,-29,-48,-107,-92,-73,-48,-24
-24,-43,-19,34,-2,-31,-43,-107,-92,-73,-43,-24
-19,-39,-19,29,0,-29,-43,-107,-92,-73,-39,-24
-24,-34,-9,29,-7,-21,-39,-112,-92,-73,-39,-24
-24,-29,-4,26,-9,-17,-34,-112,-92,-73,-39,-24
-29,-34,-4,31,-12,-19,-34,-122,-97,-78,-43,-24
-39,-39,0,39,-19,-19,-29,-136,-97,-78,-48,-29
-39,-39,0,39,-19,-19,-34,-122,-97,-78,-48,-29
-39,-43,-4,41,-17,-24,-43,-107,-97,-78,-48,-29
-43,-48,-4,46,-19,-26,-68,-107,-92,-78,-53,-29
-43,-48,-4,46,-19,-26,-87,-107,-87,-78,-53,-29
-39,-48,-9,43,-14,-29,-63,-107,-87,-78,-48,-29
-24,-43,-19,34,-2,-31,-34,-112,-92,-78,-43,-29
-34,-39,-4,36,-14,-21,-24,-112,-97,-78,-43,-29
-34,-34,0,34,-17,-17,-19,-112,-102,-78,-43,-29
-34,-34,0,34,-17,-17,-34,-112,-102,-78,-43,-34
-34,-34,0,34,-17,-17,-48,-107,-102,-78,-43,-34
-34,-34,0,34,-17,-17,-39,-107,-107,-82,-48,-34
-29,-29,0,29,-14,-14,-34,-107,-107,-87,-53,-29
-29,-29,0,29,-14,-14,-34,-107,-107,-87,-53,-29
-29,-29,0,29,-14,-14,-39,-107,-107,-87,-53,-29
-29,-29,0,29,-14,-14,-39,-112,-107,-87,-53,-29
-29,-29,0,29,-14,-14,-34,-117,-107,-82,-53,-29
-34,-29,4,31,-19,-12,-29,-117,-102,-78,-53,-29
-34,-29,4,31,-19,-12,-34,-117,-102,-73,-48,-24
-29,-29,0,29,-14,-14,-34,-107,-97,-73,-43,-24
-29,-24,4,26,-17,-9,-29,-97,-92,-73,-39,-24
-29,-24,4,26,-17,-9,-14,-97,-92,-73,-39,-24
-58,-24,34,41,-46,4,9,-107,-112,-97,-73,-58
-117,-24,92,70,-104,34,29,-146,-175,-161,-131,-102
-170,-14,156,92,-163,70,39,-170,-214,-185,-156,-112
-219,29,248,95,-234,139,87,-87,-122,-126,-126,-102
-224,68,292,78,-258,180,117,53,14,-9,-48,-63
-97,78,175,9,-136,126,131,239,239,224,141,48
117,161,43,-139,36,102,92,370,512,610,517,312
312,278,-34,-295,173,122,-102,244,624,936,883,600
424,409,-14,-417,219,197,-297,-14,527,985,980,741
497,512,14,-505,241,263,-512,-434,126,649,771,717
502,156,-346,-329,424,-95,-546,-766,-488,-224,0,219
341,-356,-697,7,519,-527,-507,-1176,-1249,-1224,-917,-414
126,-541,-668,207,397,-605,-590,-1615,-1742,-1644,-1220,-600
-136,-536,-400,336,131,-468,-531,-1634,-1742,-1561,-1127,-556
-229,-439,-209,334,-9,-324,-400,-1361,-1464,-1288,-917,-458
-214,-351,-136,283,-39,-244,-326,-1044,-1137,-1005,-712,-356
-200,-263,-63,231,-68,-163,-239,-741,-810,-736,-522,-263
-190,-185,4,187,-97,-90,-146,-502,-546,-497,-385,-204
-175,-122,53,148,-114,-34,-73,-326,-351,-322,-253,-151
-156,-87,68,122,-112,-9,-29,-214,-239,-224,-175,-117
-126,-63,63,95,-95,0,-4,-131,-156,-151,-141,-97
-97,-58,39,78,-68,-9,14,-78,-87,-102,-97,-82
-82,-53,29,68,-56,-12,24,-53,-53,-73,-73,-68
-78,-63,14,70,-46,-24,9,-34,-53,-73,-63,-58
-73,-73,0,73,-36,-36,9,-29,-43,-73,-58,-53
-68,-68,0,68,-34,-34,14,-9,-24,-43,-48,-48
-68,-68,0,68,-34,-34,14,0,-14,-24,-39,-39
-68,-58,9,63,-39,-24,14,4,-9,-24,-34,-34
-63,-53,9,58,-36,-21,19,9,-4,-24,-34,-34
-58,-58,0,58,-29,-29,29,4,-4,-29,-34,-39
-53,-63,-9,58,-21,-36,43,-4,0,-29,-34,-39
-58,-63,-4,61,-26,-34,43,0,-4,-29,-34,-39
-58,-63,-4,61,-26,-34,43,0,-9,-29,-34,-39
-53,-63,-9,58,-21,-36,34,0,-9,-24,-34,-39
-53,-48,4,51,-29,-21,24,0,-4,-24,-34,-39
-43,-48,-4,46,-19,-26,24,9,0,-19,-34,-39
-58,-53,4,56,-31,-24,24,14,4,-19,-39,-39
-63,-63,0,63,-31,-31,43,14,4,-19,-39,-48
-63,-63,0,63,-31,-31,58,14,4,-19,-39,-48
-68,-53,14,61,-41,-19,58,19,9,-24,-39,-48
-73,-63,9,68,-41,-26,53,19,9,-29,-39,-48
-73,-63,9,68,-41,-26,39,29,9,-29,-34,-48
-78,-63,14,70,-46,-24,24,39,9,-29,-34,-48
-63,-63,0,63,-31,-31,24,39,9,-29,-34,-48
-48,-63,-14,56,-17,-39,29,43,14,-29,-34,-53
-58,-63,-4,61,-26,-34,29,43,9,-29,-43,-58
-68,-63,4,65,-36,-29,34,39,9,-29,-48,-58
-78,-63,14,70,-46,-24,34,39,9,-29,-48,-63
-87,-63,24,75,-56,-19,39,39,9,-29,-53,-68
-82,-63,19,73,-51,-21,53,39,14,-29,-53,-68
-73,-63,9,68,-41,-26,68,43,14,-34,-58,-73
-82,-63,19,73,-51,-21,68,43,14,-34,-58,-73
-82,-63,19,73,-51,-21,68,48,19,-29,-58,-73
-82,-63,19,73,-51,-21,68,53,24,-29,-58,-73
-82,-58,24,70,-53,-17,73,73,29,-24,-58,-73
-78,-53,24,65,-51,-14,73,82,39,-19,-58,-73
-78,-53,24,65,-51,-14,68,92,48,-19,-58,-78
-87,-63,24,75,-56,-19,73,102,58,-14,-58,-78
-92,-73,19,82,-56,-26,63,112,63,-9,-53,-78
-92,-68,24,80,-58,-21,63,126,73,-4,-48,-78
-97,-58,39,78,-68,-9,68,131,78,4,-43,-78
-92,-58,34,75,-63,-12,63,151,82,9,-43,-78
-87,-58,29,73,-58,-14,53,170,97,19,-39,-78
-87,-58,29,73,-58,-14,73,165,102,14,-43,-82
-82,-58,24,70,-53,-17,97,161,107,19,-43,-82
-82,-48,34,65,-58,-7,112,175,117,24,-43,-82
-97,-48,48,73,-73,0,126,190,126,34,-39,-78
-87,-48,39,68,-63,-4,136,214,146,43,-34,-78
-82,-43,39,63,-61,-2,136,239,161,53,-29,-78
-82,-43,39,63,-61,-2,126,268,175,63,-19,-73
-82,-43,39,63,-61,-2,117,292,185,73,-14,-68
-82,-43,39,63,-61,-2,122,312,209,87,-9,-68
-82,-34,48,58,-65,7,126,346,229,107,-4,-68
-78,-24,53,51,-65,14,156,370,253,117,9,-63
-78,-24,53,51,-65,14,190,390,273,131,9,-63
-68,-24,43,46,-56,9,204,405,292,136,14,-58
-68,-24,43,46,-56,9,209,434,307,146,24,-53
-68,-14,53,41,-61,19,190,463,331,165,34,-48
-63,-9,53,36,-58,21,185,497,356,175,43,-43
-63,-4,58,34,-61,26,185,522,380,195,53,-34
-58,-4,53,31,-56,24,185,546,405,209,63,-34
-58,9,68,24,-63,39,200,570,424,229,78,-24
-53,9,63,21,-58,36,219,595,448,244,92,-14
-43,19,63,12,-53,41,234,619,473,268,107,-4
-34,34,68,0,-51,51,244,629,488,283,122,-4
-34,34,68,0,-51,51,244,634,507,302,131,4
-34,39,73,-2,-53,56,244,644,527,317,156,19
-29,48,78,-9,-53,63,248,644,546,336,170,34
-19,63,82,-21,-51,73,239,644,556,351,180,48
-4,63,68,-29,-36,65,219,639,570,366,190,58
0,68,68,-34,-34,68,209,624,585,385,214,68
4,73,68,-39,-31,70,185,605,590,400,229,82
19,87,68,-53,-24,78,151,590,595,414,239,102
39,92,53,-65,-7,73,141,585,595,434,258,112
48,97,48,-73,0,73,122,556,595,444,273,126
63,97,34,-80,14,65,112,531,590,444,278,136
78,97,19,-87,29,58,102,507,575,444,283,151
87,117,29,-102,29,73,82,468,556,448,287,165
87,131,43,-109,21,87,73,448,541,448,297,175
92,117,24,-104,34,70,48,405,507,434,297,175
102,107,4,-104,48,56,39,351,473,414,287,180
102,107,4,-104,48,56,39,302,444,390,278,180
107,107,0,-107,53,53,29,273,400,366,268,180
107,107,0,-107,53,53,19,253,361,336,258,170
107,97,-9,-102,58,43,4,224,326,307,244,170
102,87,-14,-95,58,36,0,190,287,268,224,165
92,82,-9,-87,51,36,-14,156,253,239,204,156
87,73,-14,-80,51,29,-34,131,214,209,175,141
82,63,-19,-73,51,21,-48,112,185,180,161,131
63,58,-4,-61,34,26,-48,82,146,156,146,122
63,53,-9,-58,36,21,-53,58,117,136,131,117
68,58,-9,-63,39,24,-48,39,92,117,112,107
68,58,-9,-63,39,24,-43,24,78,97,102,97
63,43,-19,-53,41,12,-48,14,58,78,97,92
63,29,-34,-46,48,-2,-43,-4,39,63,82,82
63,39,-24,-51,43,7,-34,-14,24,53,78,78
58,39,-19,-48,39,9,-24,-19,19,34,68,68
48,39,-9,-43,29,14,-24,-24,9,34,63,63
48,39,-9,-43,29,14,-24,-34,0,19,48,58
43,19,-24,-31,34,-2,-29,-34,-9,9,43,48
39,0,-39,-19,39,-19,-39,-34,-14,0,34,39
34,9,-24,-21,29,-7,-39,-39,-19,0,29,39
34,24,-9,-29,21,7,-29,-48,-24,0,29,39
34,24,-9,-29,21,7,-34,-48,-24,0,29,34
34,24,-9,-29,21,7,-29,-48,-24,-4,24,34
34,14,-19,-24,26,-2,-24,-48,-24,-9,24,34
24,14,-9,-19,17,2,-19,-48,-29,-9,24,34
24,9,-14,-17,19,-2,-39,-48,-29,-9,24,34
24,9,-14,-17,19,-2,-58,-48,-29,-9,29,34
14,9,-4,-12,9,2,-43,-43,-29,-4,29,34
9,9,0,-9,4,4,-29,-39,-24,0,29,34
24,14,-9,-19,17,2,-24,-39,-24,0,29,34
24,19,-4,-21,14,7,-24,-39,-24,0,29,34
24,19,-4,-21,14,7,-34,-43,-24,0,29,29
24,19,-4,-21,14,7,-43,-48,-24,0,24,29
14,14,0,-14,7,7,-43,-53,-24,0,19,29
4,9,4,-7,0,7,-43,-58,-24,0,19,29
4,9,4,-7,0,7,-24,-63,-24,0,19,29
4,9,4,-7,0,7,-19,-63,-29,0,14,29
4,0,-4,-2,4,-2,-19,-63,-24,-4,9,29
0,-9,-9,4,4,-9,-19,-58,-19,-9,4,14
0,0,0,0,0,0,-24,-48,-19,-9,4,9
4,9,4,-7,0,7,-24,-39,-19,-9,4,9
9,9,0,-9,4,4,-24,-48,-19,-4,9,9
9,4,-4,-7,7,0,-24,-48,-19,0,14,9
9,0,-9,-4,9,-4,-29,-48,-19,0,9,9
4,0,-4,-2,4,-2,-39,-58,-14,0,9,9
4,0,-4,-2,4,-2,-34,-43,-14,0,9,4
4,0,-4,-2,4,-2,-24,-29,-14,0,9,4
0,0,0,0,0,0,-4,-29,-19,0,9,4
-4,-4,0,4,-2,-2,-4,-29,-19,0,9,4
-4,-9,-4,7,0,-7,-14,-34,-19,-4,4,9
-4,-9,-4,7,0,-7,-29,-34,-19,-4,4,14
-4,-9,-4,7,0,-7,-43,-29,-19,-4,0,9
-4,-9,-4,7,0,-7,-48,-29,-19,-4,0,4
-4,-14,-9,9,2,-12,-58,-43,-29,-14,-4,0
-9,-14,-4,12,-2,-9,-63,-48,-29,-19,-9,0
-9,-9,0,9,-4,-4,-24,-53,-29,-24,-9,0
-4,-9,-4,7,0,-7,4,-53,-29,-24,-9,0
-4,-19,-14,12,4,-17,0,-48,-29,-24,-4,0
-9,-19,-9,14,0,-14,-4,-43,-29,-24,-4,0
-9,-14,-4,12,-2,-9,-4,-43,-39,-29,-9,0
-9,-9,0,9,-4,-4,0,-53,-39,-29,-14,-4
-9,-4,4,7,-7,0,4,-63,-43,-34,-14,-4
-9,-4,4,7,-7,0,4,-63,-43,-34,-19,-4
-9,-9,0,9,-4,-4,-4,-58,-43,-29,-19,-4
-9,-19,-9,14,0,-14,-14,-58,-43,-29,-19,-4
-14,-19,-4,17,-4,-12,-14,-53,-43,-29,-19,-4
-19,-14,4,17,-12,-4,-14,-53,-43,-29,-14,-4
-19,-14,4,17,-12,-4,-29,-53,-48,-34,-14,-4
-19,-19,0,19,-9,-9,-34,-48,-48,-39,-14,-4
-14,-19,-4,17,-4,-12,-34,-48,-48,-39,-14,-4
-14,-14,0,14,-7,-7,-39,-53,-48,-39,-14,-4
-9,-14,-4,12,-2,-9,-53,-63,-53,-39,-19,-9
-9,-14,-4,12,-2,-9,-68,-68,-58,-43,-19,-14
-14,-19,-4,17,-4,-12,-39,-73,-58,-43,-24,-19
-19,-24,-4,21,-7,-14,-14,-73,-58,-48,-24,-19
-4,-24,-19,14,7,-21,-19,-63,-58,-48,-19,-14
9,-19,-29,4,19,-24,-19,-53,-58,-48,-19,-14
4,-19,-24,7,14,-21,-9,-63,-63,-53,-24,-14
-4,-19,-14,12,4,-17,0,-73,-68,-58,-24,-14
-4,-24,-19,14,7,-21,-9,-73,-68,-58,-24,-14
-4,-24,-19,14,7,-21,-14,-82,-68,-58,-24,-14
-9,-24,-14,17,2,-19,-24,-68,-58,-48,-19,-9
-9,-24,-14,17,2,-19,-39,-58,-58,-43,-19,-4
0,-19,-19,9,9,-19,-34,-58,-58,-43,-19,-4
4,-14,-19,4,12,-17,-24,-58,-58,-43,-19,0
4,-14,-19,4,12,-17,-24,-63,-58,-43,-14,0
4,-9,-14,2,9,-12,-24,-68,-63,-43,-14,-4
0,-14,-14,7,7,-14,-29,-68,-63,-48,-19,-4
-9,-24,-14,17,2,-19,-39,-68,-63,-53,-19,-4
-14,-24,-9,19,-2,-17,-39,-73,-63,-53,-19,-4
-14,-29,-14,21,0,-21,-34,-73,-68,-53,-14,-9
-4,-24,-19,14,7,-21,-29,-78,-78,-48,-14,-9
0,-19,-19,9,9,-19,-29,-87,-87,-48,-19,-9
0,-19,-19,9,9,-19,-24,-78,-78,-48,-19,-9
0,-19,-19,9,9,-19,-19,-68,-68,-48,-19,-9
0,-14,-14,7,7,-14,-9,-68,-68,-48,-24,-9
0,-9,-9,4,4,-9,0,-68,-68,-48,-29,-9
9,-9,-19,0,14,-14,-9,-68,-68,-48,-29,-9
19,-9,-29,-4,24,-19,-19,-68,-68,-48,-29,-9
9,-9,-19,0,14,-14,-29,-68,-68,-48,-29,-9
0,-9,-9,4,4,-9,-39,-68,-68,-48,-29,-9
-4,-9,-4,7,0,-7,-39,-68,-68,-48,-29,-9
-9,-9,0,9,-4,-4,-39,-68,-68,-48,-29,-9
-9,-9,0,9,-4,-4,-39,-68,-68,-48,-29,-9
-9,-9,0,9,-4,-4,-39,-68,-68,-48,-29,-9
-9,-14,-4,12,-2,-9,-34,-78,-73,-53,-29,-9
-9,-19,-9,14,0,-14,-29,-87,-78,-58,-29,-9
-9,-19,-9,14,0,-14,-29,-87,-78,-58,-29,-9
-9,-19,-9,14,0,-14,-29,-87,-78,-58,-29,-9
-9,-19,-9,14,0,-14,-39,-87,-78,-53,-29,-9
-9,-19,-9,14,0,-14,-48,-87,-78,-48,-29,-9
-4,-19,-14,12,4,-17,-48,-82,-78,-48,-29,-9
0,-19,-19,9,9,-19,-48,-78,-78,-48,-29,-9
4,-14,-19,4,12,-17,-34,-78,-78,-48,-29,-9
9,-9,-19,0,14,-14,-19,-78,-78,-48,-29,-9
9,-9,-19,0,14,-14,-19,-78,-73,-48,-29,-9
9,-9,-19,0,14,-14,-19,-78,-68,-48,-29,-9
9,-9,-19,0,14,-14,-19,-78,-68,-48,-29,-9
9,-9,-19,0,14,-14,-19,-78,-68,-48,-29,-9
0,-9,-9,4,4,-9,-29,-78,-68,-48,-24,-4
-9,-9,0,9,-4,-4,-39,-78,-68,-48,-19,0
0,-9,-9,4,4,-9,-53,-68,-68,-48,-19,0
9,-9,-19,0,14,-14,-68,-58,-68,-48,-19,0
9,-9,-19,0,14,-14,-43,-68,-73,-48,-19,0
9,-9,-19,0,14,-14,-19,-78,-78,-48,-19,0
4,-9,-14,2,9,-12,-19,-92,-78,-48,-24,0
0,-9,-9,4,4,-9,-19,-107,-78,-48,-29,0
0,-4,-4,2,2,-4,-19,-87,-73,-43,-29,0
0,0,0,0,0,0,-19,-68,-68,-39,-29,0
14,9,-4,-12,9,2,-19,-53,-53,-29,-19,4
29,19,-9,-24,19,4,-19,-39,-39,-19,-9,9
43,29,-14,-36,29,7,-4,-39,-34,-14,-4,9
58,39,-19,-48,39,9,9,-39,-29,-9,0,9
58,39,-19,-48,39,9,19,-24,-24,-9,4,14
58,39,-19,-48,39,9,29,-9,-19,-9,9,19
68,48,-19,-58,43,14,29,4,-9,4,19,34
78,58,-19,-68,48,19,29,19,0,19,29,48
78,58,-19,-68,48,19,14,19,9,19,29,48
78,58,-19,-68,48,19,0,19,19,19,29,48
87,58,-29,-73,58,14,-29,4,4,19,29,43
97,58,-39,-78,68,9,-58,-9,-9,19,29,39
97,58,-39,-78,68,9,-68,-39,-24,4,24,39
97,58,-39,-78,68,9,-78,-68,-39,-9,19,39
87,53,-34,-70,61,9,-117,-73,-53,-19,19,39
78,48,-29,-63,53,9,-156,-78,-68,-29,19,39
78,48,-29,-63,53,9,-156,-87,-68,-29,14,39
78,48,-29,-63,53,9,-156,-97,-68,-29,9,39
78,48,-29,-63,53,9,-82,-97,-68,-24,9,39
78,48,-29,-63,53,9,-9,-97,-68,-19,9,39
78,48,-29,-63,53,9,-9,-92,-63,-19,14,39
78,48,-29,-63,53,9,-9,-87,-58,-19,19,39
78,43,-34,-61,56,4,-19,-78,-58,-19,19,34
78,39,-39,-58,58,0,-29,-68,-58,-19,19,29
78,19,-58,-48,68,-19,-39,-82,-58,-19,14,29
78,0,-78,-39,78,-39,-48,-97,-58,-19,9,29
68,-4,-73,-31,70,-39,-63,-92,-58,-24,4,29
48,-4,-53,-21,51,-29,-68,-92,-68,-34,0,19
29,-9,-39,-9,34,-24,-73,-97,-78,-48,-9,9
14,-9,-24,-2,19,-17,-58,-97,-78,-48,-19,0
-9,-29,-19,19,4,-24,-39,-92,-82,-58,-29,-9
-14,-29,-14,21,0,-21,-24,-92,-87,-63,-34,-24
-14,-29,-14,21,0,-21,-24,-92,-87,-63,-34,-24
-4,-29,-24,17,9,-26,-39,-97,-92,-73,-34,-24
0,-29,-29,14,14,-29,-24,-97,-87,-68,-39,-19
0,-34,-34,17,17,-34,-9,-97,-82,-63,-39,-14
0,-39,-39,19,19,-39,4,-92,-82,-58,-29,-14
0,-39,-39,19,19,-39,14,-87,-82,-53,-19,-14
-9,-43,-34,26,12,-39,4,-87,-82,-53,-29,-14
-14,-48,-34,31,9,-41,-4,-82,-82,-53,-39,-14
-19,-53,-34,36,7,-43,-19,-87,-92,-63,-39,-14
-29,-58,-29,43,0,-43,-29,-97,-97,-68,-39,-19
-29,-58,-29,43,0,-43,-39,-97,-97,-68,-39,-19
-29,-63,-34,46,2,-48,-53,-97,-97,-68,-39,-19
-29,-48,-19,39,-4,-34,-58,-97,-92,-68,-43,-19
-24,-29,-4,26,-9,-17,-58,-97,-87,-68,-43,-19
-19,-29,-9,24,-4,-19,-53,-97,-87,-68,-43,-19
-4,-24,-19,14,7,-21,-43,-102,-92,-68,-43,-19
-14,-34,-19,24,2,-26,-9,-102,-92,-68,-43,-19
-14,-43,-29,29,7,-36,19,-102,-92,-68,-43,-19
-14,-29,-14,21,0,-21,19,-102,-92,-68,-43,-24
-14,-14,0,14,-7,-7,19,-97,-92,-68,-43,-24
-19,-29,-9,24,-4,-19,14,-97,-97,-68,-43,-24
-19,-39,-19,29,0,-29,4,-97,-97,-68,-43,-19
-19,-39,-19,29,0,-29,-4,-97,-97,-68,-43,-24
-19,-39,-19,29,0,-29,-19,-97,-97,-68,-43,-29
-19,-34,-14,26,-2,-24,-43,-97,-97,-68,-43,-29
-19,-29,-9,24,-4,-19,-63,-97,-97,-63,-43,-29
-24,-29,-4,26,-9,-17,-53,-97,-92,-68,-43,-29
-24,-29,-4,26,-9,-17,-53,-97,-92,-73,-39,-24
-19,-29,-9,24,-4,-19,-34,-97,-92,-73,-39,-24
-19,-24,-4,21,-7,-14,-9,-97,-92,-73,-39,-24
-29,-24,4,26,-17,-9,9,-97,-92,-73,-39,-24
-68,-24,43,46,-56,9,39,-107,-112,-97,-73,-58
-126,-14,112,70,-119,48,73,-122,-141,-131,-107,-87
-180,4,185,87,-183,95,97,-122,-146,-126,-107,-82
-185,53,239,65,-212,146,126,-39,-43,-34,-48,-48
-146,97,244,24,-195,170,136,102,102,117,58,14
-14,117,131,-51,-73,124,97,219,273,322,248,136
204,209,4,-207,100,107,4,283,492,678,624,409
390,297,-92,-344,241,102,-214,87,507,873,878,629
492,400,-92,-446,292,153,-434,-239,312,790,863,702
527,409,-117,-468,322,146,-629,-663,-146,370,551,585
492,-39,-531,-226,512,-285,-644,-1000,-819,-585,-322,-4
322,-458,-780,68,551,-619,-546,-1312,-1424,-1395,-1063,-531
97,-551,-649,226,373,-600,-570,-1654,-1761,-1625,-1190,-610
-146,-522,-375,334,114,-448,-502,-1595,-1688,-1488,-1078,-546
-219,-400,-180,309,-19,-290,-361,-1244,-1337,-1161,-849,-429
-195,-307,-112,251,-41,-209,-273,-951,-1029,-893,-644,-326
-170,-214,-43,192,-63,-129,-170,-673,-722,-639,-453,-234
-165,-141,24,153,-95,-58,-92,-439,-468,-419,-331,-180
-156,-82,73,119,-114,-4,-34,-268,-283,-263,-214,-131
-141,-63,78,102,-109,7,9,-165,-190,-180,-141,-97
-117,-53,63,85,-90,4,34,-92,-126,-122,-112,-78
-97,-63,34,80,-65,-14,29,-48,-68,-78,-73,-68
-92,-73,19,82,-56,-26,14,-34,-43,-53,-53,-58
-78,-63,14,70,-46,-24,0,-4,-43,-53,-43,-48
-63,-53,9,58,-36,-21,0,9,-34,-53,-39,-43
-48,-43,4,46,-26,-19,-9,19,-14,-34,-39,-43
-39,-39,0,39,-19,-19,-24,19,-4,-24,-39,-39
-39,-34,4,36,-21,-14,9,9,-9,-24,-34,-39
-34,-34,0,34,-17,-17,48,0,-14,-24,-34,-43
-34,-34,0,34,-17,-17,53,4,-14,-24,-34,-48
-34,-34,0,34,-17,-17,63,4,-9,-19,-34,-48
-43,-34,9,39,-26,-12,63,9,-9,-19,-34,-48
-48,-34,14,41,-31,-9,63,9,-9,-19,-34,-48
-43,-39,4,41,-24,-17,63,14,-4,-14,-34,-43
-43,-29,14,36,-29,-7,63,19,4,-14,-34,-39
-34,-39,-4,36,-14,-21,48,24,4,-19,-34,-39
-48,-53,-4,51,-21,-29,34,24,4,-29,-39,-39
-58,-63,-4,61,-26,-34,19,34,4,-29,-39,-48
-63,-63,0,63,-31,-31,0,43,4,-29,-39,-48
-63,-48,14,56,-39,-17,9,48,9,-24,-39,-48
-63,-53,9,58,-36,-21,14,48,9,-19,-39,-48
-53,-48,4,51,-29,-21,34,39,9,-19,-39,-48
-48,-43,4,46,-26,-19,53,29,9,-19,-43,-48
-48,-43,4,46,-26,-19,73,29,9,-19,-43,-48
-48,-43,4,46,-26,-19,97,34,14,-19,-43,-53
-48,-43,4,46,-26,-19,97,43,14,-19,-48,-58
-48,-43,4,46,-26,-19,102,48,19,-19,-48,-58
-48,-43,4,46,-26,-19,82,48,14,-19,-48,-58
-48,-43,4,46,-26,-19,68,48,9,-19,-53,-58
-68,-63,4,65,-36,-29,58,53,14,-19,-53,-63
-82,-82,0,82,-41,-41,48,63,14,-24,-58,-73
-102,-82,19,92,-61,-31,24,68,19,-24,-58,-78
-112,-82,29,97,-70,-26,0,78,29,-19,-58,-82
-82,-58,24,70,-53,-17,0,87,43,-14,-53,-73
-53,-29,24,41,-39,-2,4,112,58,-4,-48,-63
-48,-24,24,36,-36,0,63,97,53,0,-48,-63
-48,-24,24,36,-36,0,117,82,48,0,-48,-68
-58,-24,34,41,-46,4,146,92,58,0,-53,-73
-63,-24,39,43,-51,7,161,102,63,0,-53,-78
-63,-34,29,48,-46,-2,136,122,73,0,-53,-82
-68,-39,29,53,-48,-4,117,131,78,4,-53,-87
-73,-48,24,61,-48,-12,112,141,82,9,-53,-87
-78,-58,19,68,-48,-19,102,151,97,19,-48,-87
-78,-58,19,68,-48,-19,82,170,107,19,-48,-92
-73,-58,14,65,-43,-21,68,190,117,29,-43,-92
-82,-43,39,63,-61,-2,87,204,126,34,-43,-92
-107,-39,68,73,-87,14,107,219,136,43,-39,-87
-87,-39,48,63,-68,4,136,239,156,53,-34,-87
-73,-34,39,53,-56,2,156,258,170,63,-29,-87
-73,-24,48,48,-61,12,161,287,190,73,-14,-82
-73,-14,58,43,-65,21,165,312,204,82,-4,-78
-78,-24,53,51,-65,14,170,331,229,92,0,-73
-82,-24,58,53,-70,17,175,366,248,107,4,-68
-78,-14,63,46,-70,24,165,395,273,117,19,-63
-78,-14,63,46,-70,24,161,419,292,131,19,-63
-68,-14,53,41,-61,19,146,434,312,141,24,-58
-68,-14,53,41,-61,19,122,463,326,156,34,-53
-63,0,63,31,-63,31,151,483,346,175,39,-48
-53,9,63,21,-58,36,195,507,366,185,43,-43
-53,14,68,19,-61,41,229,531,385,204,53,-34
-48,14,63,17,-56,39,263,556,405,219,63,-34
-43,34,78,4,-61,56,268,580,424,239,78,-24
-34,39,73,-2,-53,56,278,605,448,253,92,-14
-24,48,73,-12,-48,61,292,629,473,278,112,-4
-14,63,78,-24,-46,70,302,639,488,292,131,-4
-14,63,78,-24,-46,70,283,644,507,307,131,4
-14,68,82,-26,-48,75,263,653,527,317,146,19
-19,68,87,-24,-53,78,253,653,551,336,161,34
-19,73,92,-26,-56,82,229,653,566,351,170,48
-4,68,73,-31,-39,70,200,644,570,361,180,58
0,68,68,-34,-34,68,180,624,575,375,204,68
9,73,63,-41,-26,68,165,605,580,390,219,82
29,87,58,-58,-14,73,141,590,585,405,229,102
43,102,58,-73,-7,80,136,580,585,424,253,117
48,117,68,-82,-9,92,122,546,585,434,273,136
68,117,48,-92,9,82,131,517,580,434,278,146
87,117,29,-102,29,73,141,488,566,434,283,161
97,122,24,-109,36,73,136,448,546,434,283,170
97,122,24,-109,36,73,141,429,531,429,287,175
97,117,19,-107,39,68,112,409,502,414,287,175
102,117,14,-109,43,65,97,380,473,395,278,180
102,117,14,-109,43,65,73,322,444,370,268,175
107,117,9,-112,48,63,39,283,400,346,258,170
107,117,9,-112,48,63,14,253,356,317,244,161
107,107,0,-107,53,53,-14,214,317,287,224,161
107,102,-4,-104,56,48,-29,180,273,248,204,156
102,102,0,-102,51,51,-53,146,234,219,185,146
102,97,-4,-100,53,46,-58,122,195,190,156,131
102,92,-9,-97,56,41,-58,102,165,161,141,122
82,87,4,-85,39,46,-29,73,131,136,126,112
82,82,0,-82,41,41,-4,48,107,117,112,107
97,78,-19,-87,58,29,-4,4,82,97,92,97
107,68,-39,-87,73,14,-4,-34,68,78,82,87
87,68,-19,-78,53,24,-14,-9,58,68,82,82
73,68,-4,-70,39,31,-14,4,48,63,73,73
68,63,-4,-65,36,29,-34,-4,34,53,68,73
58,48,-9,-53,34,19,-53,-9,29,34,58,68
48,48,0,-48,24,24,-53,-14,19,34,53,63
48,48,0,-48,24,24,-53,-24,9,19,39,58
48,43,-4,-46,26,19,-39,-24,4,14,39,53
48,39,-9,-43,29,14,-29,-24,4,9,34,48
43,39,-4,-41,24,17,-29,-29,0,9,29,48
43,43,0,-43,21,21,-19,-39,-4,9,29,48
39,39,0,-39,19,19,-39,-39,-9,4,29,39
34,34,0,-34,17,17,-48,-39,-14,-4,24,34
34,24,-9,-29,21,7,-43,-43,-14,-9,19,29
24,24,0,-24,12,12,-39,-48,-19,-9,14,24
29,24,-4,-26,17,9,-39,-48,-19,-9,9,24
34,29,-4,-31,19,12,-39,-48,-19,-9,9,24
34,29,-4,-31,19,12,-29,-48,-19,-9,9,24
39,29,-9,-34,24,9,-19,-48,-14,-9,9,24
39,29,-9,-34,24,9,-14,-48,-14,-9,9,24
24,29,4,-26,9,17,-14,-48,-14,-9,9,24
19,24,4,-21,7,14,-19,-48,-19,-4,14,24
14,19,4,-17,4,12,-24,-48,-24,0,14,29
14,19,4,-17,4,12,-29,-48,-24,0,14,29
14,19,4,-17,4,12,-34,-48,-24,0,19,29
19,19,0,-19,9,9,-19,-53,-24,0,19,29
24,19,-4,-21,14,7,-19,-53,-29,0,14,29
19,19,0,-19,9,9,-19,-43,-24,0,14,34
9,19,9,-14,0,14,-19,-29,-19,0,14,24
0,19,19,-9,-9,19,-29,-29,-14,0,14,19
-4,19,24,-7,-14,21,-34,-29,-9,0,14,19
0,19,19,-9,-9,19,-34,-39,-9,0,14,19
0,14,14,-7,-7,14,-34,-39,-9,0,14,19
9,14,4,-12,2,9,-24,-34,-14,0,9,19
14,19,4,-17,4,12,-19,-39,-14,0,9,19
19,24,4,-21,7,14,-4,-39,-14,0,9,14
24,29,4,-26,9,17,14,-39,-14,0,9,14
19,29,9,-24,4,19,24,-39,-19,0,9,14
14,24,9,-19,2,17,14,-39,-19,0,9,14
4,9,4,-7,0,7,9,-48,-19,-4,4,9
-4,0,4,2,-4,2,0,-53,-19,-4,4,4
-14,0,14,7,-14,7,-9,-48,-19,-4,0,0
-24,0,24,12,-24,12,-9,-48,-19,-4,0,-4
-14,0,14,7,-14,7,-24,-53,-29,-9,-4,-4
-9,4,14,2,-12,9,-34,-48,-29,-9,-9,0
-9,9,19,0,-14,14,-24,-53,-29,-14,-9,0
-4,9,14,-2,-9,12,-24,-53,-29,-14,-9,0
0,0,0,0,0,0,-24,-53,-29,-14,-4,0
0,0,0,0,0,0,-24,-53,-29,-14,-4,0
0,0,0,0,0,0,-19,-53,-39,-19,-4,0
0,0,0,0,0,0,-9,-63,-39,-19,-4,-4
0,4,4,-2,-2,4,-4,-58,-39,-19,-4,-4
0,4,4,-2,-2,4,-4,-43,-34,-14,-9,-4
0,4,4,-2,-2,4,-14,-39,-34,-14,-9,-4
0,0,0,0,0,0,-24,-39,-34,-19,-9,-4
-4,0,4,2,-4,2,-9,-48,-39,-24,-14,-4
-9,4,14,2,-12,9,4,-63,-43,-29,-14,-4
-9,4,14,2,-12,9,-4,-68,-48,-29,-14,-4
-9,0,9,4,-9,4,-4,-68,-48,-29,-14,-4
-9,0,9,4,-9,4,0,-63,-48,-29,-9,-4
-14,4,19,4,-17,12,0,-63,-48,-29,-4,-4
-9,4,14,2,-12,9,-4,-68,-48,-29,-9,-4
-9,4,14,2,-12,9,-9,-68,-48,-34,-9,-4
0,9,9,-4,-4,9,-9,-73,-48,-29,-14,-9
9,14,4,-12,2,9,-14,-73,-48,-29,-14,-9
0,4,4,-2,-2,4,-24,-68,-48,-29,-9,-4
-9,0,9,4,-9,4,-29,-63,-48,-29,-9,-4
-4,0,4,2,-4,2,-34,-58,-53,-34,-14,-4
-4,0,4,2,-4,2,-39,-53,-58,-39,-14,-4
-4,-4,0,4,-2,-2,-34,-58,-58,-39,-14,-4
-4,-4,0,4,-2,-2,-24,-73,-58,-39,-14,-4
-9,-4,4,7,-7,0,-9,-73,-58,-39,-14,-4
-9,-4,4,7,-7,0,0,-78,-68,-43,-19,-4
0,0,0,0,0,0,-4,-78,-68,-43,-19,-9
4,4,0,-4,2,2,-4,-78,-68,-43,-19,-9
4,4,0,-4,2,2,-14,-78,-63,-43,-14,-9
4,9,4,-7,0,7,-24,-78,-63,-43,-14,-14
0,9,9,-4,-4,9,-24,-73,-58,-43,-19,-14
-9,4,14,2,-12,9,-29,-68,-53,-43,-19,-14
-14,0,14,7,-14,7,-29,-68,-53,-43,-19,-14
-14,-9,4,12,-9,-2,-24,-63,-58,-43,-14,-19
-4,-9,-4,7,0,-7,-14,-63,-63,-43,-14,-14
0,-9,-9,4,4,-9,-9,-68,-68,-48,-19,-9
0,4,4,-2,-2,4,-9,-68,-68,-48,-19,-9
0,19,19,-9,-9,19,-9,-68,-68,-48,-19,-9
0,9,9,-4,-4,9,-29,-73,-68,-48,-19,-9
0,0,0,0,0,0,-48,-78,-68,-48,-19,-9
0,0,0,0,0,0,-39,-78,-68,-48,-19,-9
0,0,0,0,0,0,-29,-78,-68,-48,-19,-9
4,4,0,-4,2,2,-24,-78,-68,-48,-19,-9
9,9,0,-9,4,4,-19,-78,-68,-48,-19,-9
9,9,0,-9,4,4,-14,-78,-68,-48,-19,-9
9,9,0,-9,4,4,-9,-78,-68,-48,-19,-9
4,9,4,-7,0,7,-9,-78,-68,-48,-19,-9
0,9,9,-4,-4,9,-9,-78,-68,-48,-19,-9
0,9,9,-4,-4,9,-9,-73,-68,-48,-19,-9
0,9,9,-4,-4,9,-9,-68,-68,-48,-19,-9
4,9,4,-7,0,7,-29,-68,-73,-48,-19,-9
9,9,0,-9,4,4,-48,-68,-78,-48,-19,-9
9,9,0,-9,4,4,-39,-82,-78,-48,-19,-9
9,9,0,-9,4,4,-29,-97,-78,-48,-19,-9
9,9,0,-9,4,4,-29,-82,-68,-48,-19,-9
9,9,0,-9,4,4,-29,-68,-58,-48,-19,-9
9,9,0,-9,4,4,-29,-58,-58,-48,-24,-9
9,9,0,-9,4,4,-29,-48,-58,-48,-29,-9
0,9,9,-4,-4,9,-29,-63,-63,-48,-29,-9
-9,9,19,0,-14,14,-29,-78,-68,-48,-29,-9
0,14,14,-7,-7,14,-29,-78,-68,-43,-24,-9
9,19,9,-14,0,14,-29,-78,-68,-39,-19,-9
19,19,0,-19,9,9,-24,-78,-68,-39,-19,-9
29,19,-9,-24,19,4,-19,-78,-68,-39,-19,-9
19,19,0,-19,9,9,-19,-78,-68,-43,-19,-9
9,19,9,-14,0,14,-19,-78,-68,-48,-19,-9
9,9,0,-9,4,4,-19,-78,-68,-48,-19,-9
9,0,-9,-4,9,-4,-19,-78,-68,-48,-19,-9
9,14,4,-12,2,9,-24,-73,-68,-43,-19,-9
9,29,19,-19,-4,24,-29,-68,-68,-39,-19,-9
24,39,14,-31,4,26,-29,-58,-58,-39,-14,-4
39,48,9,-43,14,29,-29,-48,-48,-39,-9,0
39,48,9,-43,14,29,-14,-48,-43,-29,-4,9
39,48,9,-43,14,29,0,-48,-39,-19,0,19
43,53,9,-48,17,31,9,-34,-29,-9,4,19
48,58,9,-53,19,34,19,-19,-19,0,9,19
53,68,14,-61,19,41,19,-9,-14,4,19,24
58,78,19,-68,19,48,19,0,-9,9,29,29
68,82,14,-75,26,48,19,4,-4,14,29,39
78,87,9,-82,34,48,19,9,0,19,29,48
92,87,-4,-90,48,41,0,9,0,19,39,48
107,87,-19,-97,63,34,-19,9,0,19,48,48
97,82,-14,-90,56,34,-48,-24,-24,9,34,43
87,78,-9,-82,48,34,-78,-58,-48,0,19,39
78,68,-9,-73,43,29,-107,-68,-53,-9,14,39
68,58,-9,-63,39,24,-136,-78,-58,-19,9,39
78,73,-4,-75,41,34,-126,-82,-58,-19,9,39
87,87,0,-87,43,43,-117,-87,-58,-19,9,39
87,87,0,-87,43,43,-78,-87,-58,-19,14,39
87,87,0,-87,43,43,-39,-87,-58,-19,19,39
87,73,-14,-80,51,29,-29,-82,-58,-19,19,39
87,58,-29,-73,58,14,-19,-78,-58,-19,19,39
87,58,-29,-73,58,14,-29,-78,-58,-19,19,39
87,58,-29,-73,58,14,-39,-78,-58,-19,19,39
78,39,-39,-58,58,0,-58,-78,-58,-24,19,39
68,19,-48,-43,58,-14,-78,-78,-58,-29,19,39
48,4,-43,-26,46,-19,-87,-82,-58,-34,9,29
29,0,-29,-14,29,-14,-87,-87,-68,-43,0,19
14,-4,-19,-4,17,-12,-92,-97,-78,-53,-9,9
14,0,-14,-7,14,-7,-78,-97,-78,-48,-19,9
-9,-14,-4,12,-2,-9,-34,-92,-78,-53,-29,0
-14,-9,4,12,-9,-2,4,-92,-78,-53,-34,-14
-14,-9,4,12,-9,-2,24,-92,-78,-53,-34,-14
-4,-9,-4,7,0,-7,29,-97,-82,-63,-34,-14
-4,-9,-4,7,0,-7,4,-97,-82,-68,-39,-19
-9,-14,-4,12,-2,-9,-19,-97,-82,-73,-39,-24
-9,-24,-14,17,2,-19,-24,-102,-87,-73,-43,-24
-9,-29,-19,19,4,-24,-34,-107,-92,-73,-48,-24
-14,-24,-9,19,-2,-17,-39,-107,-92,-73,-48,-24
-14,-19,-4,17,-4,-12,-43,-102,-92,-73,-48,-24
-14,-14,0,14,-7,-7,-43,-87,-97,-78,-48,-24
-19,-9,9,14,-14,0,-39,-78,-97,-78,-48,-29
-9,0,9,4,-9,4,-24,-87,-97,-78,-48,-29
0,4,4,-2,-2,4,-14,-97,-97,-78,-48,-29
-14,-9,4,12,-9,-2,-9,-97,-92,-78,-53,-29
-24,-19,4,21,-14,-7,0,-97,-87,-78,-53,-29
-29,-19,9,24,-19,-4,-14,-97,-87,-78,-53,-29
-24,-14,9,19,-17,-2,-24,-102,-92,-78,-53,-29
-39,-24,14,31,-26,-4,-29,-102,-97,-78,-53,-29
-43,-34,9,39,-26,-12,-39,-102,-102,-78,-53,-29
-43,-34,9,39,-26,-12,-63,-102,-102,-78,-53,-34
-43,-34,9,39,-26,-12,-87,-97,-102,-78,-53,-34
-34,-24,9,29,-21,-7,-73,-102,-102,-78,-53,-29
-19,-9,9,14,-14,0,-63,-107,-97,-78,-53,-19
-19,-9,9,14,-14,0,-29,-107,-97,-78,-48,-19
-19,-9,9,14,-14,0,0,-107,-97,-78,-43,-19
-19,-9,9,14,-14,0,0,-107,-97,-78,-43,-19
-19,-9,9,14,-14,0,4,-107,-97,-73,-43,-19
-24,-9,14,17,-19,2,14,-107,-92,-73,-43,-19
-24,-9,14,17,-19,2,14,-107,-92,-73,-39,-14
-19,-9,9,14,-14,0,-14,-97,-87,-73,-39,-14
-19,-4,14,12,-17,4,-39,-87,-82,-73,-39,-14
-24,-4,19,14,-21,7,-24,-87,-82,-58,-39,-14
-58,-4,53,31,-56,24,0,-97,-102,-68,-73,-48
-117,-4,112,61,-114,53,39,-141,-161,-136,-122,-87
-170,4,175,82,-173,90,68,-170,-195,-165,-136,-92
-224,53,278,85,-251,165,112,-107,-131,-122,-117,-87
-234,97,331,68,-283,214,136,14,-24,-19,-48,-53
-107,107,214,0,-161,161,151,219,180,156,97,24
107,190,82,-148,12,136,112,370,434,483,429,253
317,292,-24,-305,170,134,-63,248,585,873,844,570
444,409,-34,-427,239,187,-239,-4,527,985,990,741
556,590,34,-573,261,312,-502,-439,165,732,858,780
600,312,-287,-456,444,12,-585,-785,-409,-58,165,346
429,-278,-707,-75,568,-492,-551,-1205,-1224,-1151,-854,-375
204,-541,-746,168,475,-644,-639,-1654,-1771,-1664,-1259,-649
-102,-546,-444,324,170,-495,-585,-1698,-1795,-1610,-1180,-605
-239,-458,-219,348,-9,-339,-458,-1449,-1542,-1366,-985,-507
-214,-356,-141,285,-36,-248,-361,-1132,-1210,-1068,-766,-390
-190,-253,-63,222,-63,-158,-248,-829,-878,-785,-561,-283
-180,-161,19,170,-100,-70,-151,-556,-590,-531,-414,-219
-165,-82,82,124,-124,0,-73,-346,-370,-341,-273,-161
-151,-58,92,104,-122,17,-24,-229,-258,-239,-190,-126
-126,-43,82,85,-104,19,4,-141,-175,-161,-151,-107
-92,-39,53,65,-73,7,14,-82,-102,-107,-107,-92
-73,-34,39,53,-56,2,14,-53,-63,-73,-82,-78
-68,-24,43,46,-56,9,14,-29,-63,-68,-68,-63
-63,-14,48,39,-56,17,29,-19,-53,-63,-58,-53
-43,-9,34,26,-39,12,34,-4,-29,-43,-48,-53
-29,-9,19,19,-24,4,34,0,-14,-34,-39,-48
-39,-14,24,26,-31,4,39,4,-14,-34,-34,-39
-43,-24,19,34,-31,-2,48,9,-14,-34,-34,-34
-43,-34,9,39,-26,-12,39,14,-14,-34,-34,-39
-43,-43,0,43,-21,-21,34,14,-9,-29,-34,-39
-48,-43,4,46,-26,-19,34,19,-9,-29,-34,-39
-48,-43,4,46,-26,-19,34,19,-9,-29,-34,-39
-43,-43,0,43,-21,-21,39,14,-9,-24,-34,-39
-43,-29,14,36,-29,-7,43,9,-4,-24,-34,-39
-29,-24,4,26,-17,-9,43,14,-4,-24,-34,-39
-39,-24,14,31,-26,-4,43,14,-4,-29,-39,-39
-43,-34,9,39,-26,-12,58,24,-4,-29,-43,-48
-43,-34,9,39,-26,-12,68,34,-4,-29,-48,-48
-43,-24,19,34,-31,-2,53,29,0,-29,-48,-48
-43,-34,9,39,-26,-12,34,19,0,-29,-48,-48
-43,-34,9,39,-26,-12,43,19,-4,-29,-48,-48
-48,-34,14,41,-31,-9,53,19,-9,-29,-53,-48
-48,-29,19,39,-34,-4,68,24,-9,-29,-48,-48
-48,-24,24,36,-36,0,87,34,-4,-29,-43,-53
-48,-24,24,36,-36,0,68,43,0,-29,-48,-58
-48,-24,24,36,-36,0,53,48,9,-29,-48,-58
-58,-29,29,43,-43,0,53,43,9,-29,-48,-58
-68,-34,34,51,-51,0,58,39,9,-29,-53,-58
-63,-34,29,48,-46,-2,58,43,14,-24,-53,-58
-53,-34,19,43,-36,-7,58,53,14,-24,-58,-63
-63,-34,29,48,-46,-2,58,63,14,-24,-58,-68
-63,-34,29,48,-46,-2,58,78,19,-19,-58,-73
-63,-29,34,46,-48,2,48,78,24,-19,-58,-73
-63,-19,43,41,-53,12,43,92,29,-14,-58,-73
-53,-14,39,34,-46,12,48,92,34,-9,-53,-73
-48,-14,34,31,-41,9,48,92,39,-9,-48,-78
-53,-14,39,34,-46,12,82,102,48,-4,-48,-78
-53,-14,39,34,-46,12,102,112,53,0,-43,-78
-53,-19,34,36,-43,7,87,126,63,0,-43,-78
-58,-19,39,39,-48,9,78,131,68,4,-43,-78
-58,-19,39,39,-48,9,78,141,73,9,-43,-78
-58,-19,39,39,-48,9,73,151,87,19,-39,-78
-58,-19,39,39,-48,9,82,161,97,19,-39,-82
-53,-19,34,36,-43,7,97,170,107,29,-34,-82
-53,-19,34,36,-43,7,102,185,117,34,-39,-82
-68,-29,39,48,-53,4,107,200,126,43,-39,-78
-58,-19,39,39,-48,9,131,229,146,53,-34,-78
-53,-4,48,29,-51,21,146,258,161,63,-29,-78
-53,-4,48,29,-51,21,151,278,175,73,-19,-68
-53,-4,48,29,-51,21,156,292,185,82,-14,-58
-53,-4,48,29,-51,21,161,307,209,92,-9,-58
-53,4,58,24,-56,31,165,336,229,107,-4,-58
-48,14,63,17,-56,39,165,361,248,117,9,-53
-48,14,63,17,-56,39,170,380,263,131,9,-53
-39,14,53,12,-46,34,185,400,283,141,19,-48
-39,14,53,12,-46,34,190,434,297,156,34,-43
-34,34,68,0,-51,51,190,458,322,175,48,-34
-24,48,73,-12,-48,61,204,488,346,185,63,-24
-24,53,78,-14,-51,65,214,512,370,204,73,-14
-19,53,73,-17,-46,63,224,536,395,219,82,-14
-19,63,82,-21,-51,73,224,561,414,234,97,-4
-14,58,73,-21,-43,65,229,585,439,244,112,4
-9,58,68,-24,-39,63,229,614,463,268,122,14
-4,63,68,-29,-36,65,224,629,478,283,131,14
-4,63,68,-29,-36,65,224,634,497,302,136,19
-4,68,73,-31,-39,70,224,644,517,317,156,29
0,82,82,-41,-41,82,229,649,541,341,170,43
9,102,92,-56,-41,97,219,653,556,361,180,58
24,107,82,-65,-29,95,209,644,561,370,190,68
29,117,87,-73,-29,102,209,624,566,385,214,78
34,122,87,-78,-26,104,209,605,570,395,229,92
48,136,87,-92,-19,112,200,590,575,405,239,112
63,141,78,-102,-7,109,190,595,580,424,258,122
68,146,78,-107,-4,112,170,575,585,434,273,136
87,146,58,-117,14,102,151,546,580,439,283,151
107,146,39,-126,34,92,131,517,566,444,292,170
117,151,34,-134,41,92,112,473,546,448,297,180
117,151,34,-134,41,92,102,448,531,448,307,185
122,146,24,-134,48,85,73,419,507,434,307,185
131,146,14,-139,58,80,58,380,483,414,297,190
131,146,14,-139,58,80,48,331,453,390,287,190
136,146,9,-141,63,78,29,302,409,366,278,190
136,146,9,-141,63,78,24,273,366,336,263,180
136,136,0,-136,68,68,14,234,326,307,244,180
136,131,-4,-134,70,63,14,200,287,268,224,175
131,131,0,-131,65,65,4,165,253,239,204,165
126,126,0,-126,63,63,-14,136,214,209,175,146
122,122,0,-122,61,61,-29,112,185,180,161,131
102,117,14,-109,43,65,-34,82,151,156,146,122
102,112,9,-107,46,61,-43,58,126,136,131,117
102,102,0,-102,51,51,-43,39,102,107,112,107
97,87,-9,-92,53,39,-43,24,87,78,102,97
92,87,-4,-90,48,41,-39,24,73,73,97,92
92,87,-4,-90,48,41,-24,14,58,73,82,82
92,92,0,-92,46,46,-24,4,39,63,78,82
87,87,0,-87,43,43,-24,0,29,43,68,78
78,87,9,-82,34,48,-34,-4,19,43,63,73
78,87,9,-82,34,48,-43,-14,9,29,48,68
73,78,4,-75,34,41,-43,-24,0,24,48,63
68,68,0,-68,34,34,-48,-34,-4,19,43,58
63,53,-9,-58,36,21,-34,-39,-14,9,34,53
63,43,-19,-53,41,12,-9,-48,-24,0,29,48
63,53,-9,-58,36,21,-19,-48,-24,9,29,43
63,63,0,-63,31,31,-19,-48,-24,14,24,43
58,53,-4,-56,31,24,-24,-48,-19,9,24,39
43,53,9,-48,17,31,-29,-48,-19,9,24,34
43,48,4,-46,19,26,-29,-48,-19,4,19,34
43,48,4,-46,19,26,-29,-48,-19,0,19,34
48,48,0,-48,24,24,-24,-48,-24,0,19,34
58,48,-9,-53,34,19,-19,-48,-24,0,19,34
63,48,-14,-56,39,17,-14,-48,-24,0,19,34
53,48,-4,-51,29,21,-14,-48,-24,0,19,34
53,48,-4,-51,29,21,-19,-48,-19,0,24,29
53,48,-4,-51,29,21,-24,-48,-14,0,24,29
43,48,4,-46,19,26,-34,-43,-14,4,24,29
34,48,14,-41,9,31,-43,-39,-14,9,29,29
34,48,14,-41,9,31,-29,-43,-14,9,29,29
34,48,14,-41,9,31,-29,-43,-19,9,24,29
39,48,9,-43,14,29,-34,-43,-19,9,24,39
39,48,9,-43,14,29,-39,-39,-19,9,24,34
34,48,14,-41,9,31,-39,-43,-19,4,19,29
34,48,14,-41,9,31,-34,-48,-19,0,14,29
39,48,9,-43,14,29,-14,-58,-19,0,14,29
39,43,4,-41,17,24,4,-58,-19,0,14,29
39,39,0,-39,19,19,9,-43,-19,0,14,29
34,39,4,-36,14,21,9,-39,-14,0,19,29
29,39,9,-34,9,24,-14,-39,-9,0,19,19
24,39,14,-31,4,26,-34,-39,-4,0,19,14
19,39,19,-29,0,29,-14,-34,-9,0,19,14
14,34,19,-24,-2,26,-14,-29,-9,0,19,14
19,34,14,-26,2,24,0,-34,-14,-4,14,14
24,39,14,-31,4,26,9,-34,-19,-4,14,14
24,39,14,-31,4,26,0,-34,-19,-4,9,14
24,39,14,-31,4,26,0,-39,-19,-4,9,14
19,24,4,-21,7,14,-9,-48,-24,-4,4,9
9,14,4,-12,2,9,-14,-48,-19,0,0,9
9,19,9,-14,0,14,-24,-53,-19,-4,0,9
14,19,4,-17,4,12,-43,-53,-19,-4,0,9
19,9,-9,-14,14,0,-48,-48,-19,-4,4,9
19,9,-9,-14,14,0,-53,-43,-19,-4,4,9
19,9,-9,-14,14,0,-24,-43,-29,-9,0,9
19,9,-9,-14,14,0,9,-53,-29,-9,-4,4
14,14,0,-14,7,7,14,-63,-34,-14,-4,4
9,14,4,-12,2,9,14,-63,-34,-14,-9,4
4,14,9,-9,-2,12,9,-58,-34,-14,-9,4
0,9,9,-4,-4,9,4,-58,-34,-19,-9,4
0,9,9,-4,-4,9,4,-53,-34,-24,-14,0
0,14,14,-7,-7,14,4,-53,-34,-29,-14,-4
4,14,9,-9,-2,12,-14,-58,-43,-29,-14,-4
9,9,0,-9,4,4,-24,-58,-48,-29,-14,-4
14,9,-4,-12,9,2,-19,-58,-48,-29,-9,-4
14,14,0,-14,7,7,-19,-63,-48,-29,-4,-4
19,9,-9,-14,14,0,-4,-68,-53,-29,-9,-4
19,4,-14,-12,17,-4,9,-68,-58,-34,-9,-4
14,0,-14,-7,14,-7,0,-73,-58,-34,-14,-9
9,-4,-14,-2,12,-9,-14,-73,-58,-39,-14,-9
9,-4,-14,-2,12,-9,-29,-73,-58,-39,-14,-4
9,0,-9,-4,9,-4,-39,-73,-58,-39,-19,-4
14,9,-4,-12,9,2,-39,-68,-58,-39,-24,-4
14,19,4,-17,4,12,-39,-63,-58,-39,-24,-4
9,-4,-14,-2,12,-9,-19,-73,-58,-39,-19,-4
4,-24,-29,9,17,-26,4,-92,-58,-39,-14,-4
0,-14,-14,7,7,-14,14,-82,-58,-39,-14,-4
0,-4,-4,2,2,-4,19,-78,-68,-43,-19,-4
9,-4,-14,-2,12,-9,0,-78,-68,-43,-19,-4
14,-4,-19,-4,17,-12,-14,-78,-68,-43,-19,0
14,-4,-19,-4,17,-12,-19,-82,-63,-43,-14,0
14,0,-14,-7,14,-7,-24,-87,-63,-43,-14,-4
4,-4,-9,0,7,-7,-24,-87,-63,-43,-19,-4
-9,-14,-4,12,-2,-9,-29,-87,-63,-43,-19,-4
-9,-14,-4,12,-2,-9,-29,-87,-63,-43,-19,-4
-4,-19,-14,12,4,-17,-24,-82,-68,-43,-14,-9
4,-9,-14,2,9,-12,-29,-78,-68,-43,-14,-9
19,0,-19,-9,19,-9,-39,-78,-68,-48,-19,-9
14,0,-14,-7,14,-7,-39,-78,-68,-48,-19,-9
9,0,-9,-4,9,-4,-39,-78,-68,-48,-19,-9
9,-4,-14,-2,12,-9,-39,-78,-68,-48,-19,-4
9,-9,-19,0,14,-14,-39,-78,-68,-48,-19,0
9,-14,-24,2,17,-19,-24,-82,-73,-48,-19,0
9,-19,-29,4,19,-24,-9,-87,-78,-48,-19,0
9,-19,-29,4,19,-24,-9,-87,-78,-48,-19,0
9,-19,-29,4,19,-24,-9,-87,-78,-48,-19,0
9,-14,-24,2,17,-19,-14,-87,-78,-43,-19,0
9,-9,-19,0,14,-14,-19,-87,-78,-39,-19,0
9,-9,-19,0,14,-14,-43,-87,-78,-39,-19,-4
9,-9,-19,0,14,-14,-68,-87,-78,-39,-19,-9
0,-19,-19,9,9,-19,-48,-87,-82,-43,-24,-9
-9,-29,-19,19,4,-24,-29,-87,-87,-48,-29,-9
0,-19,-19,9,9,-19,-4,-97,-87,-48,-29,-4
9,-9,-19,0,14,-14,19,-107,-87,-48,-29,0
9,-9,-19,0,14,-14,-9,-92,-82,-48,-24,0
9,-9,-19,0,14,-14,-39,-78,-78,-48,-19,0
9,-9,-19,0,14,-14,-39,-78,-78,-48,-19,-4
9,-9,-19,0,14,-14,-39,-78,-78,-48,-19,-9
0,-19,-19,9,9,-19,-43,-78,-78,-48,-19,-9
-9,-29,-19,19,4,-24,-48,-78,-78,-48,-19,-9
-9,-29,-19,19,4,-24,-48,-87,-82,-48,-24,-9
-9,-29,-19,19,4,-24,-48,-97,-87,-48,-29,-9
0,-19,-19,9,9,-19,-43,-97,-87,-48,-29,-9
9,-9,-19,0,14,-14,-39,-97,-87,-48,-29,-9
9,-9,-19,0,14,-14,-34,-92,-87,-53,-29,-9
9,-9,-19,0,14,-14,-29,-87,-87,-58,-29,-9
4,-14,-19,4,12,-17,-29,-87,-87,-58,-29,-9
0,-19,-19,9,9,-19,-29,-87,-87,-58,-29,-9
0,-19,-19,9,9,-19,-39,-87,-87,-58,-29,-9
0,-19,-19,9,9,-19,-48,-87,-87,-58,-29,-9
9,-9,-19,0,14,-14,-34,-82,-87,-58,-29,-9
19,0,-19,-9,19,-9,-19,-78,-87,-58,-29,-9
29,19,-9,-24,19,4,-9,-73,-78,-43,-14,0
39,39,0,-39,19,19,0,-68,-68,-29,0,9
39,29,-9,-34,24,9,9,-58,-53,-24,4,14
39,19,-19,-29,29,0,19,-48,-39,-19,9,19
39,19,-19,-29,29,0,19,-34,-34,-14,9,19
39,19,-19,-29,29,0,19,-19,-29,-9,9,19
43,29,-14,-36,29,7,4,-14,-19,-4,19,24
48,39,-9,-43,29,14,-9,-9,-9,0,29,29
58,43,-14,-51,36,14,-14,-9,-9,0,29,34
68,48,-19,-58,43,14,-19,-9,-9,0,29,39
87,48,-39,-68,63,4,-34,-19,-14,0,29,39
107,48,-58,-78,82,-4,-48,-29,-19,0,29,39
97,43,-53,-70,75,-4,-68,-58,-39,-9,24,39
87,39,-48,-63,68,-4,-87,-87,-58,-19,19,39
87,39,-48,-63,68,-4,-87,-102,-68,-24,19,39
87,39,-48,-63,68,-4,-87,-117,-78,-29,19,39
78,39,-39,-58,58,0,-87,-117,-78,-29,14,34
68,39,-29,-53,48,4,-87,-117,-78,-29,9,29
68,39,-29,-53,48,4,-82,-107,-73,-29,9,29
68,39,-29,-53,48,4,-78,-97,-68,-29,9,29
68,29,-39,-48,53,-4,-73,-97,-68,-34,9,29
68,19,-48,-43,58,-14,-68,-97,-68,-39,9,29
58,4,-53,-31,56,-24,-68,-97,-68,-39,4,29
48,-9,-58,-19,53,-34,-68,-97,-68,-39,0,29
58,-9,-68,-24,63,-39,-73,-97,-68,-39,0,29
53,-14,-68,-19,61,-41,-73,-102,-73,-43,0,24
48,-24,-73,-12,61,-48,-78,-112,-78,-48,-4,24
19,-34,-53,7,36,-43,-73,-117,-97,-68,-19,9
4,-39,-43,17,24,-41,-58,-117,-97,-68,-29,0
-19,-58,-39,39,9,-48,-43,-112,-97,-73,-39,-9
-29,-58,-29,43,0,-43,-34,-112,-102,-73,-43,-24
-34,-58,-24,46,-4,-41,-34,-112,-107,-73,-43,-24
-24,-58,-34,41,4,-46,-48,-131,-112,-82,-48,-29
-24,-58,-34,41,4,-46,-48,-146,-112,-82,-58,-34
-34,-68,-34,51,0,-51,-48,-131,-112,-82,-58,-34
-39,-78,-39,58,0,-58,-43,-117,-112,-82,-58,-34
-39,-78,-39,58,0,-58,-43,-117,-107,-82,-58,-34
-43,-73,-29,58,-7,-51,-43,-117,-102,-82,-58,-34
-39,-63,-24,51,-7,-43,-43,-112,-102,-82,-58,-34
-34,-58,-24,46,-4,-41,-43,-112,-107,-87,-58,-34
-39,-58,-19,48,-9,-39,-39,-117,-107,-87,-58,-39
-39,-58,-19,48,-9,-39,-39,-117,-107,-87,-58,-39
-43,-73,-29,58,-7,-51,-29,-126,-107,-87,-58,-39
-53,-87,-34,70,-9,-61,-19,-136,-107,-87,-63,-39
-53,-87,-34,70,-9,-61,-19,-122,-107,-87,-63,-39
-53,-87,-34,70,-9,-61,-19,-107,-107,-87,-63,-39
-43,-78,-34,61,-4,-56,-24,-122,-117,-87,-63,-39
-53,-73,-19,63,-17,-46,-24,-131,-122,-87,-63,-39
-48,-73,-24,61,-12,-48,-9,-141,-126,-92,-63,-39
-43,-73,-29,58,-7,-51,0,-151,-131,-97,-63,-43
-43,-73,-29,58,-7,-51,0,-136,-131,-97,-58,-43
-43,-73,-29,58,-7,-51,0,-126,-131,-97,-53,-43
-39,-68,-29,53,-4,-48,-14,-126,-122,-97,-53,-39
-39,-68,-29,53,-4,-48,-29,-126,-117,-97,-53,-39
-43,-68,-24,56,-9,-46,-48,-126,-117,-97,-58,-39
-48,-68,-19,58,-14,-43,-58,-126,-117,-97,-63,-39
-48,-73,-24,61,-12,-48,-53,-126,-117,-92,-63,-43
-53,-78,-24,65,-14,-51,-43,-126,-112,-92,-63,-48
-53,-78,-24,65,-14,-51,-43,-131,-117,-92,-58,-43
-48,-78,-29,63,-9,-53,-43,-131,-122,-92,-58,-43
-48,-73,-24,61,-12,-48,-34,-126,-122,-87,-53,-39
-53,-73,-19,63,-17,-46,-14,-126,-122,-82,-48,-34
-78,-73,4,75,-41,-34,9,-126,-126,-107,-82,-68
-126,-63,63,95,-95,0,29,-146,-156,-156,-126,-102
-200,-53,146,126,-173,46,34,-170,-195,-175,-141,-107
-244,-14,229,129,-236,107,68,-97,-122,-112,-102,-92
-239,24,263,107,-251,143,87,34,-14,-24,-53,-73
-126,29,156,48,-141,92,87,175,151,151,92,9
87,102,14,-95,36,58,58,312,424,531,483,283
273,195,-78,-234,175,58,-112,180,512,805,805,546
419,380,-39,-400,229,170,-322,-141,409,907,951,732
522,507,-14,-514,268,246,-546,-566,43,649,800,741
527,97,-429,-312,478,-165,-580,-893,-600,-302,-73,161
370,-390,-761,9,566,-575,-536,-1263,-1307,-1254,-961,-463
112,-590,-702,239,407,-646,-634,-1712,-1805,-1664,-1239,-644
-175,-619,-444,397,134,-531,-595,-1756,-1839,-1639,-1200,-634
-263,-492,-229,378,-17,-361,-468,-1424,-1507,-1332,-971,-512
-244,-385,-141,314,-51,-263,-390,-1093,-1176,-1034,-751,-395
-224,-292,-68,258,-78,-180,-268,-800,-858,-766,-561,-302
-219,-214,4,217,-112,-104,-165,-566,-600,-536,-424,-244
-209,-151,58,180,-134,-46,-102,-366,-385,-361,-283,-185
-200,-126,73,163,-136,-26,-58,-234,-258,-258,-200,-146
-175,-122,53,148,-114,-34,-29,-161,-185,-185,-170,-122
-146,-126,19,136,-82,-53,-14,-107,-122,-131,-126,-102
-122,-112,9,117,-65,-51,-14,-82,-92,-97,-102,-87
-107,-102,4,104,-56,-48,-14,-63,-92,-92,-92,-78
-102,-102,0,102,-51,-51,-14,-58,-87,-92,-87,-78
-92,-97,-4,95,-43,-51,-24,-48,-73,-73,-82,-82
-97,-102,-4,100,-46,-53,-9,-48,-63,-63,-78,-78
-107,-102,4,104,-56,-48,0,-43,-63,-63,-73,-73
-102,-102,0,102,-51,-51,0,-39,-63,-68,-73,-68
-102,-107,-4,104,-48,-56,0,-34,-63,-73,-73,-68
-102,-107,-4,104,-48,-56,9,-34,-58,-68,-73,-68
-107,-102,4,104,-56,-48,14,-29,-58,-68,-73,-68
-107,-102,4,104,-56,-48,14,-29,-58,-68,-73,-73
-102,-102,0,102,-51,-51,19,-29,-58,-63,-73,-78
-87,-82,4,85,-46,-39,24,-29,-53,-63,-73,-78
-63,-78,-14,70,-24,-46,24,-24,-53,-63,-73,-78
-87,-82,4,85,-46,-39,24,-24,-53,-68,-78,-73
-102,-92,9,97,-56,-41,24,-24,-53,-68,-78,-78
-102,-97,4,100,-53,-46,9,-39,-53,-68,-78,-78
-102,-92,9,97,-56,-41,0,-48,-48,-68,-78,-78
-107,-102,4,104,-56,-48,-4,-29,-43,-68,-78,-78
-112,-102,9,107,-61,-46,-4,-9,-39,-68,-78,-78
-117,-102,14,109,-65,-43,-9,-9,-39,-68,-78,-78
-117,-102,14,109,-65,-43,-14,-9,-39,-68,-73,-78
-122,-107,14,114,-68,-46,-9,-9,-34,-68,-73,-82
-126,-112,14,119,-70,-48,-9,-4,-34,-68,-78,-87
-126,-112,14,119,-70,-48,-4,0,-34,-68,-78,-92
-126,-112,14,119,-70,-48,-4,0,-39,-68,-78,-97
-126,-112,14,119,-70,-48,0,0,-39,-68,-82,-97
-131,-112,19,122,-75,-46,0,4,-34,-68,-82,-97
-131,-112,19,122,-75,-46,24,9,-34,-73,-87,-102
-141,-112,29,126,-85,-41,48,4,-34,-73,-87,-107
-141,-112,29,126,-85,-41,53,9,-29,-68,-87,-112
-141,-112,29,126,-85,-41,58,9,-24,-68,-87,-112
-136,-102,34,119,-85,-34,63,24,-19,-63,-87,-112
-126,-92,34,109,-80,-29,68,29,-14,-58,-87,-112
-126,-92,34,109,-80,-29,39,34,-9,-58,-87,-117
-131,-92,39,112,-85,-26,24,43,0,-53,-87,-117
-131,-97,34,114,-82,-31,19,58,9,-43,-82,-112
-131,-107,24,119,-78,-41,14,78,24,-39,-82,-107
-141,-107,34,124,-87,-36,19,82,29,-34,-82,-107
-146,-107,39,126,-92,-34,24,92,34,-29,-82,-107
-146,-107,39,126,-92,-34,48,97,43,-24,-78,-107
-146,-107,39,126,-92,-34,82,107,48,-29,-78,-112
-136,-107,29,122,-82,-39,97,117,58,-24,-73,-112
-131,-97,34,114,-82,-31,102,126,68,-24,-73,-112
-146,-97,48,122,-97,-24,92,141,68,-14,-73,-107
-136,-97,39,117,-87,-29,87,161,78,-4,-73,-107
-136,-92,43,114,-90,-24,87,165,92,4,-73,-117
-141,-92,48,117,-95,-21,87,180,112,14,-68,-122
-146,-92,53,119,-100,-19,87,214,126,24,-63,-117
-151,-92,58,122,-104,-17,92,244,151,34,-58,-117
-151,-82,68,117,-109,-7,97,278,170,48,-53,-112
-146,-73,73,109,-109,0,107,302,190,58,-39,-102
-141,-73,68,107,-104,-2,122,312,204,73,-29,-97
-126,-73,53,100,-90,-9,136,317,224,82,-14,-87
-122,-73,48,97,-85,-12,141,361,239,97,-4,-82
-117,-58,58,87,-87,0,141,400,263,117,4,-78
-112,-48,63,80,-87,7,141,419,287,126,14,-73
-112,-43,68,78,-90,12,136,434,312,146,24,-63
-107,-48,58,78,-82,4,170,458,336,161,34,-63
-107,-39,68,73,-87,14,200,483,356,180,48,-53
-102,-39,63,70,-82,12,209,507,380,190,63,-43
-97,-34,63,65,-80,14,214,531,405,209,73,-34
-92,-24,68,58,-80,21,195,541,419,224,73,-34
-92,-24,68,58,-80,21,175,546,439,244,73,-24
-107,-19,87,63,-97,34,175,566,458,263,107,-9
-117,-9,107,63,-112,48,170,575,478,287,131,4
-92,9,102,41,-97,56,146,585,488,302,141,19
-63,14,78,24,-70,46,131,585,492,312,151,29
-58,19,78,19,-68,48,131,556,497,322,170,39
-53,24,78,14,-65,51,117,527,502,331,180,53
-39,43,82,-2,-61,63,112,512,507,346,190,73
-24,53,78,-14,-51,65,122,502,507,366,209,82
-19,58,78,-19,-48,68,112,478,507,375,224,97
-4,58,63,-26,-34,61,112,458,502,375,229,107
9,58,48,-34,-19,53,87,419,488,375,234,117
19,63,43,-41,-12,53,53,370,468,375,239,122
19,63,43,-41,-12,53,34,351,453,370,244,126
24,58,34,-41,-4,46,-4,322,424,356,239,126
34,58,24,-46,4,41,-9,278,390,336,229,126
34,58,24,-46,4,41,-9,224,356,312,219,122
34,58,24,-46,4,41,-19,195,312,287,209,122
29,58,29,-43,0,43,-19,165,268,258,195,112
24,48,24,-36,0,36,-48,126,229,229,175,112
19,43,24,-31,-2,34,-63,92,190,190,156,107
9,39,29,-24,-9,34,-87,63,161,161,131,92
4,29,24,-17,-9,26,-107,43,126,131,102,73
4,24,19,-14,-7,21,-126,24,97,97,92,63
-14,19,34,-2,-24,26,-146,-4,63,68,78,53
-14,9,24,2,-19,17,-122,-39,39,48,63,48
-14,0,14,7,-14,7,-92,-68,14,29,43,39
-14,-9,4,12,-9,-2,-87,-82,0,14,39,34
-14,-9,4,12,-9,-2,-92,-82,-14,4,39,34
-14,-4,9,9,-12,2,-87,-82,-29,-4,24,24
-14,0,14,7,-14,7,-82,-82,-43,-14,19,24
-19,-9,9,14,-14,0,-82,-97,-53,-39,4,9
-29,-9,19,19,-24,4,-82,-112,-68,-43,-4,-4
-34,-9,24,21,-29,7,-87,-122,-78,-58,-24,-14
-43,-19,24,31,-34,2,-92,-122,-87,-63,-29,-24
-48,-39,9,43,-29,-14,-112,-122,-92,-68,-34,-29
-53,-48,4,51,-29,-21,-126,-126,-97,-68,-39,-29
-53,-43,9,48,-31,-17,-102,-136,-102,-68,-34,-24
-53,-43,9,48,-31,-17,-97,-136,-102,-68,-29,-24
-53,-34,19,43,-36,-7,-97,-141,-102,-73,-34,-24
-53,-34,19,43,-36,-7,-92,-146,-102,-78,-34,-29
-68,-34,34,51,-51,0,-97,-146,-107,-78,-34,-34
-73,-39,34,56,-53,-2,-107,-146,-107,-78,-39,-34
-73,-43,29,58,-51,-7,-117,-136,-112,-78,-43,-34
-73,-48,24,61,-48,-12,-126,-126,-117,-78,-48,-34
-68,-48,19,58,-43,-14,-112,-136,-117,-78,-48,-34
-68,-48,19,58,-43,-14,-92,-146,-122,-78,-48,-34
-82,-48,34,65,-58,-7,-82,-146,-122,-78,-48,-34
-82,-48,34,65,-58,-7,-78,-146,-122,-78,-48,-39
-82,-53,29,68,-56,-12,-82,-136,-117,-78,-53,-39
-82,-58,24,70,-53,-17,-82,-126,-112,-78,-53,-39
-82,-58,24,70,-53,-17,-92,-126,-112,-78,-48,-43
-82,-58,24,70,-53,-17,-87,-131,-112,-78,-48,-48
-82,-53,29,68,-56,-12,-87,-141,-122,-82,-58,-48
-92,-63,29,78,-61,-17,-87,-151,-126,-87,-63,-53
-92,-63,29,78,-61,-17,-87,-151,-126,-87,-63,-53
