I, II, III, aVR, aVL, aVF, V1, V2, V3, V4, V5, V6
204,136,-68,-170,136,34,48,419,302,253,253,214
214,141,-73,-178,143,34,43,419,302,258,258,219
224,146,-78,-185,151,34,39,419,302,263,263,224
224,146,-78,-185,151,34,34,414,302,263,268,229
224,146,-78,-185,151,34,29,409,302,263,273,234
219,146,-73,-183,146,36,24,395,297,263,273,234
214,146,-68,-180,141,39,19,380,292,263,273,234
204,141,-63,-173,134,39,14,351,278,253,258,219
195,136,-58,-165,126,39,9,322,263,244,244,204
180,131,-48,-156,114,41,9,292,244,224,224,190
165,126,-39,-146,102,43,9,263,224,204,204,175
141,107,-34,-124,87,36,4,219,190,175,175,156
117,87,-29,-102,73,29,0,175,156,146,146,136
102,73,-29,-87,65,21,0,151,131,122,126,117
87,58,-29,-73,58,14,0,126,107,97,107,97
63,39,-24,-51,43,7,4,97,82,73,78,73
39,19,-19,-29,29,0,9,68,58,48,48,48
24,4,-19,-14,21,-7,9,43,39,34,29,29
9,-9,-19,0,14,-14,9,19,19,19,9,9
0,-19,-19,9,9,-19,9,0,0,-4,-14,-9
-9,-29,-19,19,4,-24,9,-19,-19,-29,-39,-29
-19,-39,-19,29,0,-29,9,-29,-29,-39,-48,-39
-29,-48,-19,39,-4,-34,9,-39,-39,-48,-58,-48
-34,-53,-19,43,-7,-36,9,-43,-48,-58,-68,-63
-39,-58,-19,48,-9,-39,9,-48,-58,-68,-78,-78
-43,-63,-19,53,-12,-41,9,-53,-58,-68,-82,-78
-48,-68,-19,58,-14,-43,9,-58,-58,-68,-87,-78
-48,-73,-24,61,-12,-48,9,-63,-68,-78,-92,-78
-48,-78,-29,63,-9,-53,9,-68,-78,-87,-97,-78
-48,-78,-29,63,-9,-53,4,-73,-78,-87,-97,-78
-48,-78,-29,63,-9,-53,0,-78,-78,-87,-97,-78
-48,-78,-29,63,-9,-53,0,-78,-78,-87,-97,-82
-48,-78,-29,63,-9,-53,0,-78,-78,-87,-97,-87
-48,-78,-29,63,-9,-53,0,-78,-82,-87,-97,-87
-48,-78,-29,63,-9,-53,0,-78,-87,-87,-97,-87
-48,-73,-24,61,-12,-48,0,-78,-87,-87,-97,-87
-48,-68,-19,58,-14,-43,0,-78,-87,-87,-97,-87
-48,-68,-19,58,-14,-43,0,-78,-82,-87,-97,-87
-48,-68,-19,58,-14,-43,0,-78,-78,-87,-97,-87
-48,-68,-19,58,-14,-43,0,-73,-78,-87,-92,-87
-48,-68,-19,58,-14,-43,0,-68,-78,-87,-87,-87
-48,-68,-19,58,-14,-43,0,-68,-78,-87,-87,-87
-48,-68,-19,58,-14,-43,0,-68,-78,-87,-87,-87
-48,-68,-19,58,-14,-43,4,-68,-78,-87,-92,-87
-48,-68,-19,58,-14,-43,9,-68,-78,-87,-97,-87
-48,-68,-19,58,-14,-43,9,-68,-78,-87,-97,-87
-48,-68,-19,58,-14,-43,9,-68,-78,-87,-97,-87
-48,-68,-19,58,-14,-43,4,-73,-82,-92,-97,-87
-48,-68,-19,58,-14,-43,0,-78,-87,-97,-97,-87
-48,-68,-19,58,-14,-43,0,-78,-87,-97,-97,-87
-48,-68,-19,58,-14,-43,0,-78,-87,-97,-97,-87
-48,-68,-19,58,-14,-43,4,-73,-87,-92,-97,-87
-48,-68,-19,58,-14,-43,9,-68,-87,-87,-97,-87
-48,-68,-19,58,-14,-43,9,-68,-87,-87,-97,-87
-48,-68,-19,58,-14,-43,9,-68,-87,-87,-97,-87
-53,-68,-14,61,-19,-41,4,-73,-87,-92,-97,-87
-58,-68,-9,63,-24,-39,0,-78,-87,-97,-97,-87
-58,-68,-9,63,-24,-39,0,-82,-97,-102,-102,-92
-58,-68,-9,63,-24,-39,0,-87,-107,-107,-107,-97
-58,-68,-9,63,-24,-39,0,-87,-107,-107,-112,-97
-58,-68,-9,63,-24,-39,0,-87,-107,-107,-117,-97
-58,-73,-14,65,-21,-43,0,-92,-107,-107,-117,-97
-58,-78,-19,68,-19,-48,0,-97,-107,-107,-117,-97
-58,-82,-24,70,-17,-53,0,-97,-107,-107,-117,-102
-58,-87,-29,73,-14,-58,0,-97,-107,-107,-117,-107
-58,-87,-29,73,-14,-58,0,-97,-107,-107,-117,-107
-58,-87,-29,73,-14,-58,0,-97,-107,-107,-117,-107
-58,-87,-29,73,-14,-58,0,-97,-107,-112,-122,-112
-58,-87,-29,73,-14,-58,0,-97,-107,-117,-126,-117
-58,-87,-29,73,-14,-58,0,-97,-107,-117,-126,-117
-58,-87,-29,73,-14,-58,0,-97,-107,-117,-126,-117
-58,-87,-29,73,-14,-58,0,-97,-112,-117,-126,-117
-58,-87,-29,73,-14,-58,0,-97,-117,-117,-126,-117
-58,-87,-29,73,-14,-58,-4,-102,-117,-122,-126,-117
-58,-87,-29,73,-14,-58,-9,-107,-117,-126,-126,-117
-63,-87,-24,75,-19,-56,-9,-107,-117,-126,-126,-117
-68,-87,-19,78,-24,-53,-9,-107,-117,-126,-126,-117
-68,-87,-19,78,-24,-53,-9,-107,-117,-126,-131,-117
-68,-87,-19,78,-24,-53,-9,-107,-117,-126,-136,-117
-68,-87,-19,78,-24,-53,-9,-107,-117,-126,-136,-117
-68,-87,-19,78,-24,-53,-9,-107,-117,-126,-136,-117
-68,-87,-19,78,-24,-53,-9,-107,-117,-126,-136,-122
-68,-82,-14,75,-26,-48,-9,-107,-117,-126,-136,-122
-63,-82,-19,73,-21,-51,-9,-107,-117,-122,-136,-122
-58,-82,-24,70,-17,-53,-4,-102,-117,-122,-136,-122
-58,-78,-19,68,-19,-48,-4,-102,-112,-122,-136,-122
-58,-63,-4,61,-26,-34,9,-92,-92,-107,-126,-117
-53,-43,9,48,-31,-17,14,-82,-82,-102,-117,-107
-48,-24,24,36,-36,0,19,-78,-78,-87,-107,-102
-43,-9,34,26,-39,12,24,-68,-73,-82,-102,-87
-39,-4,34,21,-36,14,24,-63,-68,-78,-92,-78
-34,-4,29,19,-31,12,19,-63,-68,-73,-82,-78
-24,-4,19,14,-21,7,19,-63,-68,-68,-73,-78
-19,-4,14,12,-17,4,9,-63,-68,-63,-73,-73
-14,9,24,2,-19,17,0,-63,-58,-58,-63,-63
-4,29,34,-12,-19,31,-4,-63,-48,-53,-53,-48
4,48,43,-26,-19,46,-9,-63,-43,-48,-43,-39
4,48,43,-26,-19,46,-14,-73,-43,-48,-48,-39
14,39,24,-26,-4,31,-24,-82,-58,-58,-63,-43
14,24,9,-19,2,17,-29,-82,-68,-68,-73,-53
14,19,4,-17,4,12,-29,-78,-68,-68,-78,-58
9,14,4,-12,2,9,-29,-78,-73,-68,-78,-58
9,4,-4,-7,7,0,-19,-78,-78,-68,-78,-58
-4,-19,-14,12,4,-17,-19,-82,-87,-87,-87,-73
-19,-48,-29,34,4,-39,-34,-112,-117,-131,-112,-92
-29,-73,-43,51,7,-58,-39,-136,-136,-141,-131,-112
-34,-92,-58,63,12,-75,-34,-151,-146,-146,-141,-126
-43,-107,-63,75,9,-85,-34,-151,-146,-151,-156,-136
-53,-107,-53,80,0,-80,-29,-146,-146,-151,-156,-136
-63,-107,-43,85,-9,-75,-19,-146,-141,-151,-161,-136
-73,-122,-48,97,-12,-85,-19,-146,-156,-161,-170,-151
-73,-117,-43,95,-14,-80,-29,-146,-161,-165,-170,-151
-73,-117,-43,95,-14,-80,-34,-156,-165,-180,-175,-151
-73,-117,-43,95,-14,-80,-39,-156,-165,-180,-180,-151
-73,-117,-43,95,-14,-80,-39,-156,-165,-175,-180,-156
-82,-122,-39,102,-21,-80,-34,-151,-161,-170,-180,-156
-87,-131,-43,109,-21,-87,-24,-141,-156,-165,-175,-151
-87,-131,-43,109,-21,-87,-24,-136,-156,-165,-175,-151
-92,-131,-39,112,-26,-85,-19,-136,-151,-165,-175,-156
-92,-131,-39,112,-26,-85,-24,-141,-156,-170,-180,-161
-92,-131,-39,112,-26,-85,-24,-146,-161,-175,-185,-165
-92,-131,-39,112,-26,-85,-24,-146,-161,-175,-190,-165
-92,-146,-53,119,-19,-100,-24,-141,-161,-175,-190,-175
-97,-156,-58,126,-19,-107,-14,-117,-156,-175,-185,-175
-97,-156,-58,126,-19,-107,4,-63,-112,-151,-170,-175
-97,-136,-39,117,-29,-87,34,4,-34,-78,-107,-141
-73,-97,-24,85,-24,-61,58,87,63,19,-14,-73
-24,-34,-9,29,-7,-21,82,204,170,136,102,19
48,73,24,-61,12,48,136,405,351,317,292,170
126,253,126,-190,0,190,190,605,619,605,595,429
268,536,268,-402,0,402,185,761,936,990,1005,805
385,800,414,-592,-14,607,141,858,1234,1390,1464,1210
439,922,483,-680,-21,702,63,814,1342,1620,1737,1439
409,922,512,-666,-51,717,-53,536,1210,1586,1751,1483
292,810,517,-551,-112,663,-117,170,810,1166,1307,1185
68,649,580,-358,-256,614,-219,-463,122,419,546,668
-92,492,585,-200,-339,539,-346,-936,-385,-58,82,331
-151,356,507,-102,-329,431,-370,-1107,-644,-331,-204,92
-131,292,424,-80,-278,358,-317,-863,-512,-273,-175,29
-112,219,331,-53,-222,275,-244,-634,-400,-229,-161,-14
-82,141,224,-29,-153,183,-185,-453,-326,-214,-161,-43
-68,68,136,0,-102,102,-122,-341,-292,-214,-170,-78
-73,24,97,24,-85,61,-82,-258,-244,-195,-170,-102
-78,-14,63,46,-70,24,-58,-195,-200,-180,-156,-102
-78,-39,39,58,-58,0,-34,-151,-170,-156,-146,-102
-78,-63,14,70,-46,-24,-14,-107,-146,-141,-141,-112
-78,-73,4,75,-41,-34,-4,-97,-136,-141,-141,-122
-82,-73,9,78,-46,-31,-4,-92,-136,-146,-146,-126
-82,-68,14,75,-48,-26,-4,-92,-131,-146,-146,-126
-78,-78,0,78,-39,-39,0,-78,-122,-146,-146,-122
-73,-78,-4,75,-34,-41,4,-68,-122,-141,-146,-122
-68,-78,-9,73,-29,-43,9,-63,-117,-136,-146,-122
-63,-78,-14,70,-24,-46,9,-58,-117,-136,-146,-122
-68,-78,-9,73,-29,-43,9,-53,-112,-131,-141,-122
-68,-78,-9,73,-29,-43,9,-43,-97,-122,-136,-117
-63,-78,-14,70,-24,-46,9,-34,-92,-117,-131,-117
-63,-78,-14,70,-24,-46,9,-29,-92,-112,-126,-112
-58,-73,-14,65,-21,-43,9,-24,-87,-112,-122,-107
-53,-73,-19,63,-17,-46,14,-14,-78,-107,-117,-107
-53,-68,-14,61,-19,-41,14,-14,-78,-107,-117,-102
-48,-68,-19,58,-14,-43,14,-4,-78,-107,-112,-102
-43,-63,-19,53,-12,-41,14,4,-63,-102,-102,-97
-39,-58,-19,48,-9,-39,14,14,-53,-97,-92,-97
-34,-63,-29,48,-2,-46,14,24,-48,-87,-87,-97
-29,-58,-29,43,0,-43,14,34,-39,-78,-82,-82
-19,-58,-39,39,9,-48,14,48,-29,-58,-73,-73
-14,-58,-43,36,14,-51,14,68,-19,-43,-68,-58
-9,-48,-39,29,14,-43,19,78,-9,-39,-58,-48
0,-43,-43,21,21,-43,19,92,4,-43,-48,-43
14,-39,-53,12,34,-46,19,107,19,-34,-34,-39
14,-29,-43,7,29,-36,19,131,34,-19,-24,-34
24,-19,-43,-2,34,-31,24,146,48,4,-9,-19
39,-9,-48,-14,43,-29,29,165,73,19,4,-4
48,4,-43,-26,46,-19,29,185,87,39,24,9
63,14,-48,-39,56,-17,34,209,112,53,43,24
73,29,-43,-51,58,-7,34,229,126,78,68,43
87,39,-48,-63,68,-4,39,263,146,97,82,58
102,58,-43,-80,73,7,39,278,165,117,97,73
117,68,-48,-92,82,9,39,302,185,136,117,97
131,82,-48,-107,90,17,39,322,204,156,141,112
146,97,-48,-122,97,24,39,346,224,170,161,131
161,107,-53,-134,107,26,43,356,239,185,185,151
170,112,-58,-141,114,26,48,375,248,204,209,170
175,122,-53,-148,114,34,48,385,258,214,224,190
190,131,-58,-161,124,36,43,395,268,229,239,195
195,141,-53,-168,124,43,39,405,278,239,244,200
204,151,-53,-178,129,48,34,409,287,248,244,200
214,151,-63,-183,139,43,29,409,292,258,253,204
214,156,-58,-185,136,48,29,409,302,258,253,214
219,161,-58,-190,139,51,24,405,302,258,263,219
219,165,-53,-192,136,56,24,390,297,258,268,224
219,165,-53,-192,136,56,14,375,287,258,268,234
219,165,-53,-192,136,56,9,346,278,248,268,239
204,161,-43,-183,124,58,9,326,263,244,253,229
190,156,-34,-173,112,61,9,302,248,229,234,219
165,146,-19,-156,92,63,9,273,229,209,224,200
146,136,-9,-141,78,63,9,234,200,185,195,170
126,112,-14,-119,70,48,9,195,170,156,170,146
107,92,-14,-100,61,39,4,165,146,131,141,117
82,73,-9,-78,46,31,4,136,117,102,117,92
58,53,-4,-56,31,24,4,102,92,87,92,68
43,43,0,-43,21,21,4,68,63,63,58,48
24,29,4,-26,9,17,4,39,43,34,34,29
4,9,4,-7,0,7,4,24,19,9,9,4
-9,0,9,4,-9,4,4,4,4,-4,-4,-14
-19,-14,4,17,-12,-4,4,-14,-9,-19,-24,-24
-29,-34,-4,31,-12,-19,4,-24,-29,-29,-39,-39
-39,-43,-4,41,-17,-24,4,-39,-34,-43,-48,-48
-43,-43,0,43,-21,-21,0,-48,-43,-53,-58,-58
-43,-48,-4,46,-19,-26,0,-58,-58,-63,-68,-68
-48,-48,0,48,-24,-24,4,-58,-68,-68,-73,-73
-48,-58,-9,53,-19,-34,4,-58,-73,-68,-82,-73
-53,-58,-4,56,-24,-31,4,-58,-78,-78,-87,-82
-53,-63,-9,58,-21,-36,4,-68,-78,-78,-87,-87
-53,-63,-9,58,-21,-36,4,-68,-78,-78,-87,-92
-53,-63,-9,58,-21,-36,-4,-78,-82,-82,-92,-97
-58,-63,-4,61,-26,-34,-9,-78,-82,-87,-102,-97
-58,-63,-4,61,-26,-34,-9,-78,-87,-87,-102,-97
-58,-63,-4,61,-26,-34,-9,-78,-87,-87,-102,-97
-58,-63,-4,61,-26,-34,-9,-78,-87,-87,-102,-92
-58,-63,-4,61,-26,-34,-9,-78,-87,-87,-102,-87
-58,-63,-4,61,-26,-34,-14,-73,-82,-87,-102,-82
-58,-63,-4,61,-26,-34,-14,-73,-82,-82,-97,-82
-58,-63,-4,61,-26,-34,-14,-73,-82,-82,-97,-87
-58,-63,-4,61,-26,-34,-14,-73,-82,-82,-97,-92
-53,-63,-9,58,-21,-36,-14,-73,-82,-87,-97,-92
-53,-63,-9,58,-21,-36,-14,-73,-87,-92,-97,-92
-53,-63,-9,58,-21,-36,-9,-73,-87,-92,-92,-87
-58,-63,-4,61,-26,-34,-9,-73,-82,-92,-92,-87
-58,-68,-9,63,-24,-39,-4,-73,-82,-92,-92,-87
-58,-68,-9,63,-24,-39,0,-73,-82,-92,-92,-87
-58,-68,-9,63,-24,-39,0,-73,-82,-92,-92,-87
-58,-68,-9,63,-24,-39,-4,-73,-82,-92,-97,-87
-58,-68,-9,63,-24,-39,-9,-78,-87,-92,-97,-92
-58,-68,-9,63,-24,-39,-14,-82,-92,-92,-92,-97
-58,-68,-9,63,-24,-39,-9,-82,-97,-97,-92,-97
-53,-68,-14,61,-19,-41,-9,-82,-97,-97,-97,-97
-53,-63,-9,58,-21,-36,-9,-87,-92,-97,-97,-102
-53,-58,-4,56,-24,-31,-14,-87,-87,-97,-97,-102
-58,-63,-4,61,-26,-34,-14,-87,-87,-97,-97,-102
-58,-63,-4,61,-26,-34,-14,-87,-87,-97,-102,-102
-58,-63,-4,61,-26,-34,-14,-87,-97,-102,-107,-102
-58,-63,-4,61,-26,-34,-14,-92,-102,-102,-112,-107
-58,-63,-4,61,-26,-34,-14,-97,-102,-102,-112,-107
-58,-63,-4,61,-26,-34,-14,-97,-107,-102,-117,-107
-63,-63,0,63,-31,-31,-14,-97,-107,-107,-117,-112
-63,-68,-4,65,-29,-36,-14,-97,-107,-107,-122,-117
-58,-73,-14,65,-21,-43,-14,-97,-107,-107,-122,-117
-58,-78,-19,68,-19,-48,-14,-97,-112,-107,-122,-117
-63,-78,-14,70,-24,-46,-14,-97,-107,-112,-122,-117
-63,-78,-14,70,-24,-46,-14,-102,-107,-117,-126,-117
-63,-78,-14,70,-24,-46,-14,-102,-97,-117,-117,-117
-63,-78,-14,70,-24,-46,-14,-102,-87,-117,-107,-122
-63,-73,-9,68,-26,-41,-14,-107,-112,-117,-122,-122
-68,-73,-4,70,-31,-39,-19,-107,-131,-117,-131,-122
-68,-73,-4,70,-31,-39,-19,-107,-131,-117,-131,-122
-68,-78,-9,73,-29,-43,-19,-112,-131,-122,-131,-122
-68,-82,-14,75,-26,-48,-14,-112,-122,-122,-131,-122
-68,-87,-19,78,-24,-53,-9,-117,-117,-126,-136,-126
-68,-87,-19,78,-24,-53,-9,-117,-117,-126,-136,-126
-68,-87,-19,78,-24,-53,-9,-117,-117,-126,-136,-126
-68,-87,-19,78,-24,-53,-9,-117,-117,-126,-131,-126
-68,-87,-19,78,-24,-53,-9,-117,-117,-126,-126,-126
-68,-87,-19,78,-24,-53,-9,-117,-117,-126,-126,-131
-68,-82,-14,75,-26,-48,-9,-117,-117,-126,-126,-131
-63,-82,-19,73,-21,-51,-9,-117,-117,-122,-126,-131
-58,-82,-24,70,-17,-53,-4,-112,-117,-122,-126,-131
-58,-78,-19,68,-19,-48,-9,-112,-112,-122,-126,-126
-58,-63,-4,61,-26,-34,0,-102,-92,-107,-117,-117
-53,-39,14,46,-34,-12,4,-92,-87,-102,-107,-107
-48,-14,34,31,-41,9,9,-87,-87,-87,-97,-102
-43,-4,39,24,-41,17,19,-78,-82,-82,-97,-92
-39,-4,34,21,-36,14,24,-73,-78,-78,-92,-87
-39,-4,34,21,-36,14,19,-73,-78,-78,-92,-87
-34,-4,29,19,-31,12,19,-73,-78,-78,-92,-87
-29,-14,14,21,-21,0,14,-68,-78,-73,-92,-82
-24,-9,14,17,-19,2,9,-63,-68,-68,-82,-73
-14,19,34,-2,-24,26,4,-63,-58,-58,-73,-58
-4,48,53,-21,-29,51,0,-63,-53,-48,-63,-48
-4,48,53,-21,-29,51,0,-73,-48,-48,-58,-48
4,39,34,-21,-14,36,-4,-82,-58,-58,-63,-53
4,24,19,-14,-7,21,-9,-82,-68,-68,-68,-58
4,19,14,-12,-4,17,-9,-78,-68,-68,-68,-58
0,19,19,-9,-9,19,-9,-78,-63,-58,-63,-53
0,14,14,-7,-7,14,0,-78,-58,-48,-58,-48
-14,-9,4,12,-9,-2,0,-78,-68,-58,-68,-63
-29,-39,-9,34,-9,-24,-14,-102,-97,-92,-92,-82
-39,-63,-24,51,-7,-43,-29,-126,-122,-117,-117,-107
-43,-82,-39,63,-2,-61,-34,-141,-136,-136,-131,-126
-53,-102,-48,78,-2,-75,-34,-141,-136,-141,-146,-136
-63,-107,-43,85,-9,-75,-29,-136,-136,-141,-146,-136
-73,-107,-34,90,-19,-70,-19,-136,-126,-141,-146,-136
-82,-122,-39,102,-21,-80,-19,-136,-136,-151,-151,-151
-82,-122,-39,102,-21,-80,-24,-136,-146,-151,-156,-151
-82,-126,-43,104,-19,-85,-24,-146,-156,-161,-165,-151
-82,-126,-43,104,-19,-85,-29,-146,-156,-161,-170,-151
-82,-126,-43,104,-19,-85,-29,-146,-156,-156,-170,-156
-87,-126,-39,107,-24,-82,-29,-146,-156,-156,-170,-156
-87,-131,-43,109,-21,-87,-24,-141,-156,-156,-165,-151
-87,-131,-43,109,-21,-87,-24,-136,-161,-161,-170,-151
-92,-131,-39,112,-26,-85,-19,-136,-161,-165,-175,-156
-92,-131,-39,112,-26,-85,-19,-136,-161,-165,-175,-156
-92,-131,-39,112,-26,-85,-14,-136,-161,-165,-175,-156
-92,-131,-39,112,-26,-85,-14,-136,-151,-165,-170,-156
-92,-146,-53,119,-19,-100,-14,-131,-141,-165,-161,-165
-97,-161,-63,129,-17,-112,-9,-117,-151,-170,-170,-165
-97,-165,-68,131,-14,-117,4,-73,-122,-151,-170,-165
-107,-156,-48,131,-29,-102,24,-19,-63,-92,-122,-141
-92,-126,-34,109,-29,-80,39,48,14,-9,-43,-82
-43,-92,-48,68,2,-70,48,136,97,73,39,-24
29,-14,-43,-7,36,-29,87,307,253,219,195,92
92,141,48,-117,21,95,170,536,502,478,458,307
219,400,180,-309,19,290,195,722,800,834,829,639
356,722,366,-539,-4,544,175,917,1200,1322,1376,1117
429,902,473,-666,-21,688,122,971,1410,1639,1737,1420
448,956,507,-702,-29,732,14,790,1424,1776,1927,1581
380,897,517,-639,-68,707,-39,522,1171,1527,1659,1400
107,736,629,-422,-261,683,-141,-204,414,702,805,824
-102,580,683,-239,-392,631,-268,-771,-161,146,248,429
-175,419,595,-122,-385,507,-331,-1063,-536,-219,-122,151
-170,331,502,-80,-336,417,-317,-941,-522,-253,-175,48
-141,258,400,-58,-270,329,-248,-697,-400,-200,-151,4
-102,180,283,-39,-192,231,-195,-502,-317,-175,-141,-24
-73,97,170,-12,-122,134,-131,-375,-283,-185,-151,-63
-63,43,107,9,-85,75,-92,-278,-234,-175,-151,-92
-68,0,68,34,-68,34,-63,-214,-190,-161,-136,-92
-68,-29,39,48,-53,4,-34,-170,-161,-136,-126,-92
-68,-58,9,63,-39,-24,-14,-117,-131,-122,-122,-102
-68,-73,-4,70,-31,-39,-4,-97,-117,-122,-122,-112
-73,-78,-4,75,-34,-41,-4,-92,-117,-131,-126,-117
-73,-78,-4,75,-34,-41,-4,-92,-112,-136,-126,-117
-73,-92,-19,82,-26,-56,4,-73,-102,-136,-126,-112
-73,-97,-24,85,-24,-61,14,-58,-102,-131,-126,-112
-68,-97,-29,82,-19,-63,19,-53,-97,-126,-131,-117
-63,-97,-34,80,-14,-65,19,-48,-97,-126,-136,-122
-63,-97,-34,80,-14,-65,19,-43,-92,-126,-131,-122
-58,-97,-39,78,-9,-68,19,-34,-78,-122,-126,-117
-58,-97,-39,78,-9,-68,19,-24,-73,-117,-117,-112
-63,-97,-34,80,-14,-65,19,-19,-73,-112,-107,-102
-58,-97,-39,78,-9,-68,19,-14,-68,-112,-102,-97
-53,-102,-48,78,-2,-75,24,-4,-58,-107,-97,-97
-48,-97,-48,73,0,-73,19,-9,-58,-102,-102,-102
-39,-97,-58,68,9,-78,14,-4,-58,-97,-102,-112
-34,-87,-53,61,9,-70,14,4,-48,-92,-102,-102
-29,-78,-48,53,9,-63,14,14,-43,-87,-102,-97
-24,-78,-53,51,14,-65,14,24,-39,-78,-87,-97
-19,-68,-48,43,14,-58,14,34,-29,-68,-73,-82
-9,-68,-58,39,24,-63,19,43,-19,-58,-63,-73
-4,-68,-63,36,29,-65,24,58,-9,-53,-58,-58
0,-58,-58,29,29,-58,29,68,4,-39,-53,-48
9,-53,-63,21,36,-58,29,82,24,-34,-48,-43
24,-48,-73,12,48,-61,29,97,34,-24,-34,-34
24,-39,-63,7,43,-51,29,122,43,-9,-24,-24
29,-29,-58,0,43,-43,24,136,53,4,-9,-14
39,-19,-58,-9,48,-39,19,156,73,9,4,-4
48,-9,-58,-19,53,-34,19,170,73,24,19,9
63,-4,-68,-29,65,-36,24,190,82,34,34,24
73,4,-68,-39,70,-31,24,209,107,58,58,43
87,9,-78,-48,82,-34,29,244,136,78,73,58
102,29,-73,-65,87,-21,29,258,156,92,92,73
117,39,-78,-78,97,-19,29,283,175,107,117,97
131,53,-78,-92,104,-12,29,302,195,131,141,107
146,68,-78,-107,112,-4,29,326,214,151,161,122
161,82,-78,-122,119,2,29,336,234,165,170,131
170,92,-78,-131,124,7,29,356,248,185,180,141
180,102,-78,-141,129,12,34,366,258,195,204,170
200,112,-87,-156,143,12,34,375,268,209,229,185
204,122,-82,-163,143,19,34,390,287,229,248,200
214,131,-82,-173,148,24,34,400,307,248,263,209
224,126,-97,-175,161,14,29,400,307,258,273,219
224,126,-97,-175,161,14,29,400,312,258,273,234
234,131,-102,-183,168,14,24,400,312,258,278,234
239,136,-102,-187,170,17,24,390,307,258,278,234
234,141,-92,-187,163,24,9,380,297,258,278,244
229,146,-82,-187,156,31,0,356,287,248,278,248
219,141,-78,-180,148,31,0,331,268,244,268,239
209,136,-73,-173,141,31,0,302,248,229,253,229
185,126,-58,-156,122,34,0,273,234,214,244,209
165,117,-48,-141,107,34,0,234,209,195,214,180
146,97,-48,-122,97,24,4,195,180,165,190,156
126,82,-43,-104,85,19,4,165,156,141,161,126
102,63,-39,-82,70,12,4,141,131,112,136,102
78,43,-34,-61,56,4,4,112,112,97,112,78
63,34,-29,-48,46,2,4,82,87,73,78,58
43,19,-24,-31,34,-2,4,58,73,43,53,39
24,0,-24,-12,24,-12,4,43,48,19,29,14
9,-9,-19,0,14,-14,4,24,34,4,14,-4
-4,-19,-14,12,4,-17,0,0,14,-9,-9,-19
-19,-34,-14,26,-2,-24,-4,-14,-9,-19,-29,-39
-29,-48,-19,39,-4,-34,-4,-29,-14,-34,-39,-48
-34,-53,-19,43,-7,-36,-9,-39,-24,-43,-48,-58
-34,-58,-24,46,-4,-41,-9,-48,-34,-53,-58,-63
-39,-58,-19,48,-9,-39,-4,-48,-39,-58,-63,-63
-39,-68,-29,53,-4,-48,0,-48,-43,-58,-73,-63
-43,-68,-24,56,-9,-46,4,-48,-48,-68,-78,-73
-43,-73,-29,58,-7,-51,4,-58,-53,-68,-78,-82
-43,-73,-29,58,-7,-51,4,-58,-58,-68,-78,-92
-43,-73,-29,58,-7,-51,0,-68,-63,-73,-78,-97
-48,-73,-24,61,-12,-48,0,-68,-63,-78,-82,-97
-48,-73,-24,61,-12,-48,0,-68,-68,-78,-82,-92
-48,-73,-24,61,-12,-48,0,-68,-68,-78,-82,-87
-48,-73,-24,61,-12,-48,0,-73,-68,-82,-82,-87
-48,-73,-24,61,-12,-48,0,-78,-68,-87,-82,-87
-48,-73,-24,61,-12,-48,-4,-73,-63,-87,-87,-82
-48,-73,-24,61,-12,-48,-4,-73,-63,-82,-87,-82
-48,-68,-19,58,-14,-43,-4,-73,-63,-82,-87,-82
-48,-63,-14,56,-17,-39,-4,-73,-63,-82,-87,-82
-43,-63,-19,53,-12,-41,-4,-73,-58,-82,-82,-82
-43,-63,-19,53,-12,-41,-4,-73,-58,-82,-78,-82
-43,-68,-24,56,-9,-46,0,-68,-58,-82,-73,-78
-48,-73,-24,61,-12,-48,0,-63,-53,-82,-73,-78
-48,-78,-29,63,-9,-53,0,-63,-53,-82,-78,-82
-48,-78,-29,63,-9,-53,0,-63,-53,-82,-82,-87
-48,-78,-29,63,-9,-53,0,-68,-53,-78,-82,-87
-48,-78,-29,63,-9,-53,-4,-73,-53,-73,-87,-87
-48,-78,-29,63,-9,-53,-4,-73,-53,-73,-82,-82
-48,-78,-29,63,-9,-53,-4,-73,-53,-73,-73,-78
-48,-78,-29,63,-9,-53,0,-73,-58,-82,-73,-78
-43,-78,-34,61,-4,-56,0,-73,-58,-87,-78,-78
-43,-78,-34,61,-4,-56,0,-78,-63,-87,-82,-87
-43,-78,-34,61,-4,-56,-4,-78,-68,-87,-87,-92
-48,-82,-34,65,-7,-58,-9,-78,-73,-87,-92,-92
-48,-82,-34,65,-7,-58,-14,-78,-78,-87,-102,-92
-48,-82,-34,65,-7,-58,-14,-78,-82,-92,-102,-92
-48,-82,-34,65,-7,-58,-14,-82,-82,-92,-102,-97
-48,-82,-34,65,-7,-58,-14,-87,-78,-92,-92,-92
-48,-82,-34,65,-7,-58,-14,-87,-78,-92,-87,-87
-53,-82,-29,68,-12,-56,-14,-87,-78,-97,-87,-92
-53,-87,-34,70,-9,-61,-14,-87,-78,-97,-92,-97
-48,-87,-39,68,-4,-63,-14,-87,-78,-97,-92,-97
-48,-87,-39,68,-4,-63,-14,-87,-82,-97,-92,-97
-53,-87,-34,70,-9,-61,-14,-87,-82,-102,-92,-97
-53,-87,-34,70,-9,-61,-14,-92,-87,-107,-97,-97
-53,-87,-34,70,-9,-61,-14,-92,-87,-107,-102,-97
-53,-87,-34,70,-9,-61,-14,-92,-87,-107,-107,-102
-48,-87,-39,68,-4,-63,-14,-97,-92,-107,-112,-107
-48,-92,-43,70,-2,-68,-19,-97,-92,-107,-112,-112
-48,-92,-43,70,-2,-68,-19,-102,-92,-112,-112,-112
-48,-97,-48,73,0,-73,-19,-107,-97,-117,-117,-117
-53,-97,-43,75,-4,-70,-19,-107,-97,-117,-117,-117
-58,-97,-39,78,-9,-68,-19,-107,-97,-117,-117,-117
-58,-97,-39,78,-9,-68,-24,-107,-97,-117,-117,-112
-58,-97,-39,78,-9,-68,-24,-107,-97,-117,-117,-112
-58,-97,-39,78,-9,-68,-29,-107,-97,-117,-117,-112
-58,-92,-34,75,-12,-63,-29,-107,-97,-117,-117,-112
-53,-92,-39,73,-7,-65,-29,-107,-97,-112,-117,-112
-48,-92,-43,70,-2,-68,-24,-102,-97,-112,-117,-112
-48,-87,-39,68,-4,-63,-24,-97,-92,-112,-117,-112
-48,-73,-24,61,-12,-48,-9,-82,-73,-97,-107,-107
-43,-53,-9,48,-17,-31,0,-73,-63,-92,-97,-97
-39,-34,4,36,-21,-14,9,-68,-58,-78,-87,-92
-39,-24,14,31,-26,-4,14,-63,-53,-73,-82,-82
-39,-24,14,31,-26,-4,14,-63,-48,-68,-73,-78
-34,-19,14,26,-24,-2,9,-63,-48,-68,-73,-78
-24,-14,9,19,-17,-2,9,-63,-48,-68,-73,-78
-19,-14,4,17,-12,-4,4,-58,-48,-63,-73,-78
-14,0,14,7,-14,7,0,-53,-39,-58,-63,-73
-4,19,24,-7,-14,21,-4,-53,-29,-48,-53,-58
4,39,34,-21,-14,36,-9,-53,-24,-39,-43,-48
4,39,34,-21,-14,36,-14,-63,-24,-39,-43,-43
14,29,14,-21,0,21,-24,-73,-39,-48,-53,-43
14,14,0,-14,7,7,-29,-73,-48,-58,-58,-48
14,9,-4,-12,9,2,-29,-68,-48,-58,-58,-48
4,9,4,-7,0,7,-29,-73,-48,-58,-63,-58
0,4,4,-2,-2,4,-19,-78,-48,-58,-68,-68
-14,-24,-9,19,-2,-17,-19,-78,-63,-68,-78,-82
-29,-58,-29,43,0,-43,-34,-102,-97,-102,-102,-102
-39,-82,-43,61,2,-63,-43,-126,-122,-122,-126,-117
-43,-102,-58,73,7,-80,-43,-141,-136,-136,-141,-126
-53,-117,-63,85,4,-90,-43,-141,-136,-141,-156,-136
-63,-117,-53,90,-4,-85,-39,-136,-136,-141,-156,-136
-68,-117,-48,92,-9,-82,-29,-136,-126,-141,-156,-136
-73,-131,-58,102,-7,-95,-29,-136,-136,-151,-161,-151
-73,-131,-58,102,-7,-95,-34,-136,-141,-151,-161,-151
-73,-136,-63,104,-4,-100,-34,-146,-146,-161,-165,-151
-73,-136,-63,104,-4,-100,-39,-146,-146,-161,-170,-151
-73,-136,-63,104,-4,-100,-39,-146,-146,-156,-170,-156
-78,-136,-58,107,-9,-97,-39,-146,-146,-156,-170,-156
-78,-141,-63,109,-7,-102,-34,-141,-146,-156,-165,-151
-78,-136,-58,107,-9,-97,-34,-136,-146,-156,-165,-151
-82,-131,-48,107,-17,-90,-29,-136,-141,-156,-165,-156
-82,-131,-48,107,-17,-90,-29,-136,-141,-156,-165,-156
-82,-131,-48,107,-17,-90,-24,-136,-141,-156,-165,-156
-82,-131,-48,107,-17,-90,-19,-136,-141,-156,-170,-156
-82,-146,-63,114,-9,-104,-14,-131,-141,-156,-170,-165
-87,-161,-73,124,-7,-117,-4,-107,-136,-156,-170,-165
-87,-165,-78,126,-4,-122,14,-53,-92,-131,-161,-165
-87,-146,-58,117,-14,-102,34,14,-14,-53,-87,-131
-63,-107,-43,85,-9,-75,48,97,82,48,14,-63
-19,-34,-14,26,-2,-24,73,214,200,180,136,39
48,82,34,-65,7,58,126,414,390,375,331,200
126,263,136,-195,-4,200,185,624,663,673,653,468
268,546,278,-407,-4,412,185,790,985,1068,1083,854
370,810,439,-590,-34,624,151,897,1298,1483,1542,1254
409,932,522,-671,-56,727,82,863,1420,1727,1815,1478
380,946,566,-663,-92,756,-24,590,1288,1693,1830,1512
263,849,585,-556,-161,717,-78,229,888,1273,1385,1205
39,678,639,-358,-300,658,-180,-405,195,512,600,678
-122,512,634,-195,-378,573,-307,-878,-317,19,112,331
-175,366,541,-95,-358,453,-341,-1058,-590,-263,-175,92
-151,292,444,-70,-297,368,-297,-824,-473,-214,-146,29
-131,219,351,-43,-241,285,-234,-605,-370,-180,-141,-14
-102,141,244,-19,-173,192,-185,-434,-307,-175,-151,-43
-78,68,146,4,-112,107,-122,-322,-278,-185,-161,-73
-73,24,97,24,-85,61,-82,-239,-234,-175,-161,-92
-73,-19,53,46,-63,17,-53,-175,-190,-161,-146,-92
-68,-48,19,58,-43,-14,-24,-131,-161,-136,-136,-92
-68,-73,-4,70,-31,-39,-9,-92,-141,-122,-136,-107
-68,-82,-14,75,-26,-48,-4,-87,-136,-122,-141,-122
-73,-87,-14,80,-29,-51,-4,-82,-136,-126,-146,-126
-73,-87,-14,80,-29,-51,-4,-82,-131,-126,-146,-126
-73,-102,-29,87,-21,-65,0,-68,-122,-126,-141,-122
-73,-107,-34,90,-19,-70,4,-58,-122,-122,-136,-122
-68,-107,-39,87,-14,-73,9,-53,-117,-117,-136,-117
-63,-107,-43,85,-9,-75,9,-48,-117,-117,-136,-112
-63,-107,-43,85,-9,-75,9,-43,-117,-117,-131,-112
-58,-107,-48,82,-4,-78,9,-34,-107,-112,-126,-107
-53,-102,-48,78,-2,-75,9,-24,-102,-107,-122,-112
-53,-97,-43,75,-4,-70,9,-19,-102,-102,-117,-112
-48,-92,-43,70,-2,-68,9,-14,-92,-102,-112,-107
-43,-92,-48,68,2,-70,14,-4,-78,-97,-107,-107
-43,-87,-43,65,0,-65,14,-4,-78,-92,-107,-102
-39,-87,-48,63,4,-68,14,4,-78,-87,-102,-102
-34,-82,-48,58,7,-65,14,14,-63,-87,-92,-92
-29,-78,-48,53,9,-63,14,24,-53,-87,-82,-87
-19,-78,-58,48,19,-68,14,29,-53,-78,-78,-87
-9,-68,-58,39,24,-63,14,34,-48,-68,-73,-73
0,-63,-63,31,31,-63,14,43,-39,-58,-63,-63
4,-58,-63,26,34,-61,14,58,-29,-53,-58,-48
4,-48,-53,21,29,-51,19,78,-19,-39,-48,-39
9,-43,-53,17,31,-48,19,102,-4,-34,-39,-34
24,-39,-63,7,43,-51,19,107,14,-24,-29,-29
24,-29,-53,2,39,-41,19,122,34,-9,-24,-24
34,-19,-53,-7,43,-36,19,136,39,9,-14,-14
48,-9,-58,-19,53,-34,19,156,53,19,-4,-4
58,-4,-63,-26,61,-34,19,175,68,39,14,9
73,-4,-78,-34,75,-41,24,200,92,53,34,24
82,9,-73,-46,78,-31,24,219,112,78,68,48
97,19,-78,-58,87,-29,29,253,136,97,92,68
112,43,-68,-78,90,-12,29,268,156,122,112,87
126,58,-68,-92,97,-4,29,292,175,146,136,117
141,73,-68,-107,104,2,29,312,195,170,161,131
156,87,-68,-122,112,9,29,336,214,190,180,151
170,102,-68,-136,119,17,34,346,239,204,200,170
180,112,-68,-146,124,21,39,366,258,224,219,190
190,117,-73,-153,131,21,39,375,268,234,234,209
209,122,-87,-165,148,17,34,385,278,248,248,214
214,131,-82,-173,148,24,29,395,287,258,263,224
224,141,-82,-183,153,29,24,400,297,268,273,229
234,141,-92,-187,163,24,19,400,292,278,283,234
234,146,-87,-190,161,29,19,400,292,278,283,244
234,151,-82,-192,158,34,14,395,292,278,287,244
229,156,-73,-192,151,41,14,380,287,278,287,244
224,161,-63,-192,143,48,4,366,283,278,283,248
219,165,-53,-192,136,56,0,336,278,268,278,248
209,156,-53,-183,131,51,4,317,258,258,263,234
200,146,-53,-173,126,46,9,292,239,239,244,219
175,131,-43,-153,109,43,9,263,219,219,229,204
156,117,-39,-136,97,39,9,224,190,195,195,180
136,97,-39,-117,87,29,9,185,161,165,170,156
117,82,-34,-100,75,24,4,156,136,141,141,126
92,63,-29,-78,61,17,4,126,107,107,112,102
68,43,-24,-56,46,9,4,92,82,87,82,78
53,34,-19,-43,36,7,0,63,53,68,48,53
34,19,-14,-26,24,2,-4,39,34,43,24,29
19,0,-19,-9,19,-9,-4,24,9,19,0,4
9,-9,-19,0,14,-14,-4,4,-4,4,-14,-14
0,-19,-19,9,9,-19,-4,-14,-19,-9,-34,-24
-9,-34,-24,21,7,-29,-4,-24,-39,-19,-48,-39
-24,-43,-19,34,-2,-31,-4,-39,-43,-34,-58,-48
-34,-43,-9,39,-12,-26,-9,-48,-53,-43,-68,-58
-34,-48,-14,41,-9,-31,-9,-58,-58,-53,-78,-68
-39,-48,-9,43,-14,-29,-4,-58,-58,-58,-82,-73
-39,-63,-24,51,-7,-43,-4,-58,-63,-58,-92,-73
-43,-68,-24,56,-9,-46,-4,-58,-68,-68,-97,-82
-43,-73,-29,58,-7,-51,-4,-68,-68,-68,-97,-82
-43,-73,-29,58,-7,-51,-4,-68,-68,-68,-97,-82
-43,-73,-29,58,-7,-51,-9,-78,-78,-78,-97,-92
-48,-73,-24,61,-12,-48,-9,-78,-82,-87,-102,-97
-48,-73,-24,61,-12,-48,-9,-78,-87,-87,-102,-97
-48,-73,-24,61,-12,-48,-9,-78,-87,-87,-102,-97
-48,-73,-24,61,-12,-48,-9,-78,-87,-87,-102,-97
-48,-73,-24,61,-12,-48,-9,-78,-87,-87,-102,-97
-48,-73,-24,61,-12,-48,-9,-73,-82,-87,-102,-87
-48,-73,-24,61,-12,-48,-4,-73,-82,-82,-97,-82
-48,-73,-24,61,-12,-48,-4,-73,-82,-82,-97,-82
-48,-73,-24,61,-12,-48,-4,-73,-82,-82,-97,-82
-43,-73,-29,58,-7,-51,-4,-73,-78,-82,-97,-82
-43,-73,-29,58,-7,-51,-4,-73,-78,-82,-97,-82
-43,-73,-29,58,-7,-51,0,-68,-78,-82,-92,-78
-48,-73,-24,61,-12,-48,0,-63,-73,-82,-92,-78
-48,-78,-29,63,-9,-53,0,-63,-78,-82,-92,-78
-48,-78,-29,63,-9,-53,0,-63,-82,-82,-92,-78
-48,-78,-29,63,-9,-53,-4,-73,-87,-82,-92,-82
-48,-78,-29,63,-9,-53,-14,-82,-92,-82,-97,-87
-48,-78,-29,63,-9,-53,-14,-82,-92,-82,-97,-87
-48,-78,-29,63,-9,-53,-14,-82,-92,-82,-92,-87
-48,-78,-29,63,-9,-53,-9,-78,-92,-87,-92,-87
-43,-78,-34,61,-4,-56,-9,-73,-87,-87,-97,-87
-43,-78,-34,61,-4,-56,-9,-78,-87,-87,-97,-87
-43,-78,-34,61,-4,-56,-14,-78,-87,-87,-97,-82
-48,-78,-29,63,-9,-53,-14,-78,-87,-87,-97,-82
-48,-73,-24,61,-12,-48,-14,-78,-87,-87,-102,-82
-48,-73,-24,61,-12,-48,-9,-78,-92,-87,-102,-87
-48,-73,-24,61,-12,-48,-4,-82,-92,-82,-102,-97
-48,-73,-24,61,-12,-48,-4,-87,-92,-82,-102,-97
-48,-73,-24,61,-12,-48,-4,-87,-97,-82,-107,-97
-53,-68,-14,61,-19,-41,-9,-92,-97,-92,-112,-102
-53,-68,-14,61,-19,-41,-14,-97,-97,-97,-122,-107
-48,-68,-19,58,-14,-43,-14,-97,-97,-97,-122,-107
-48,-68,-19,58,-14,-43,-14,-97,-102,-97,-122,-107
-53,-73,-19,63,-17,-46,-14,-92,-102,-102,-122,-107
-53,-78,-24,65,-14,-51,-14,-92,-107,-107,-126,-107
-53,-78,-24,65,-14,-51,-14,-92,-107,-107,-122,-107
-53,-78,-24,65,-14,-51,-14,-97,-112,-107,-122,-112
-53,-82,-29,68,-12,-56,-14,-97,-112,-107,-122,-112
-58,-87,-29,73,-14,-58,-19,-102,-117,-112,-126,-117
-58,-87,-29,73,-14,-58,-19,-102,-117,-112,-126,-117
-58,-87,-29,73,-14,-58,-19,-107,-117,-117,-126,-117
-58,-87,-29,73,-14,-58,-19,-107,-117,-117,-126,-117
-58,-87,-29,73,-14,-58,-19,-107,-117,-117,-126,-117
-58,-87,-29,73,-14,-58,-19,-107,-117,-122,-131,-117
-58,-87,-29,73,-14,-58,-19,-107,-117,-122,-131,-117
-58,-87,-29,73,-14,-58,-19,-107,-117,-126,-136,-122
-58,-92,-34,75,-12,-63,-19,-107,-117,-122,-136,-122
-58,-92,-34,75,-12,-63,-14,-102,-117,-122,-136,-122
-58,-87,-29,73,-14,-58,-14,-102,-112,-122,-136,-117
-58,-73,-14,65,-21,-43,0,-92,-92,-107,-126,-107
-53,-53,0,53,-26,-26,4,-82,-82,-102,-117,-97
-48,-34,14,41,-31,-9,9,-78,-78,-87,-107,-92
-43,-24,19,34,-31,-2,14,-68,-73,-82,-102,-82
-39,-19,19,29,-29,0,19,-63,-68,-78,-92,-78
-34,-14,19,24,-26,2,19,-63,-68,-78,-92,-78
-24,-14,9,19,-17,-2,19,-63,-68,-78,-92,-78
-19,-14,4,17,-12,-4,14,-63,-68,-73,-92,-78
-14,0,14,7,-14,7,9,-63,-58,-68,-82,-73
-4,19,24,-7,-14,21,4,-63,-48,-58,-73,-58
4,39,34,-21,-14,36,0,-58,-39,-39,-48,-43
4,39,34,-21,-14,36,-4,-63,-34,-29,-34,-39
14,29,14,-21,0,21,-14,-73,-48,-48,-58,-43
14,14,0,-14,7,7,-19,-73,-58,-68,-78,-48
14,9,-4,-12,9,2,-24,-78,-68,-68,-78,-48
9,9,0,-9,4,4,-29,-87,-78,-68,-78,-48
14,9,-4,-12,9,2,-19,-78,-68,-63,-73,-48
4,-9,-14,2,9,-12,-19,-68,-68,-68,-78,-63
-9,-39,-29,24,9,-34,-29,-92,-97,-102,-102,-82
-19,-63,-43,41,12,-53,-34,-117,-122,-122,-126,-102
-24,-87,-63,56,19,-75,-34,-136,-141,-136,-141,-122
-34,-107,-73,70,19,-90,-34,-141,-146,-141,-156,-136
-48,-107,-58,78,4,-82,-29,-136,-146,-141,-161,-136
-63,-107,-43,85,-9,-75,-19,-136,-136,-141,-165,-136
-73,-122,-48,97,-12,-85,-19,-136,-146,-151,-170,-151
-73,-122,-48,97,-12,-85,-24,-136,-151,-151,-170,-151
-73,-131,-58,102,-7,-95,-24,-146,-156,-165,-175,-151
-73,-136,-63,104,-4,-100,-29,-146,-156,-170,-180,-151
-73,-136,-63,104,-4,-100,-34,-146,-156,-165,-175,-156
-78,-136,-58,107,-9,-97,-39,-146,-156,-165,-170,-156
-78,-136,-58,107,-9,-97,-34,-141,-156,-165,-165,-151
-78,-131,-53,104,-12,-92,-34,-136,-156,-165,-165,-151
-82,-131,-48,107,-17,-90,-29,-136,-151,-165,-165,-156
-82,-131,-48,107,-17,-90,-29,-136,-151,-165,-165,-156
-82,-131,-48,107,-17,-90,-24,-136,-156,-165,-165,-156
-82,-131,-48,107,-17,-90,-24,-136,-161,-165,-170,-156
-82,-146,-63,114,-9,-104,-29,-146,-165,-170,-175,-170
-87,-156,-68,122,-9,-112,-24,-136,-165,-175,-180,-175
-97,-170,-73,134,-12,-122,-4,-92,-141,-175,-200,-195
-107,-165,-58,136,-24,-112,19,-34,-82,-126,-165,-180
-97,-136,-39,117,-29,-87,39,19,-4,-58,-97,-131
-63,-82,-19,73,-21,-51,63,107,87,34,-4,-58
-9,-29,-19,19,4,-24,122,307,239,175,126,34
48,97,48,-73,0,73,185,517,473,419,370,234
204,409,204,-307,0,307,209,732,829,839,810,634
326,702,375,-514,-24,539,190,878,1166,1268,1298,1058
419,907,488,-663,-34,697,117,927,1415,1664,1766,1434
439,990,551,-714,-56,771,9,741,1424,1800,1976,1620
356,888,531,-622,-87,710,-48,448,1102,1459,1610,1376
165,736,570,-451,-202,653,-151,-112,492,795,927,922
-43,561,605,-258,-324,583,-322,-785,-200,146,292,488
-146,400,546,-126,-346,473,-395,-1156,-644,-302,-165,161
-126,331,458,-102,-292,395,-346,-927,-531,-253,-156,82
-112,258,370,-73,-241,314,-278,-722,-444,-224,-161,14
-82,175,258,-46,-170,217,-224,-527,-361,-214,-161,-24
-63,97,161,-17,-112,129,-161,-390,-312,-214,-170,-68
-63,39,102,12,-82,70,-112,-297,-263,-195,-170,-97
-68,-14,53,41,-61,19,-73,-224,-219,-180,-156,-102
-68,-39,29,53,-48,-4,-43,-170,-180,-151,-146,-102
-68,-63,4,65,-36,-29,-24,-117,-146,-131,-141,-112
-68,-73,-4,70,-31,-39,-4,-92,-131,-131,-141,-117
-73,-78,-4,75,-34,-41,4,-73,-126,-136,-146,-117
-73,-78,-4,75,-34,-41,4,-82,-122,-136,-146,-117
-73,-87,-14,80,-29,-51,9,-78,-112,-136,-146,-112
-73,-87,-14,80,-29,-51,9,-68,-112,-131,-146,-117
-68,-87,-19,78,-24,-53,9,-63,-107,-126,-146,-122
-63,-87,-24,75,-19,-56,9,-58,-112,-126,-146,-122
-63,-87,-24,75,-19,-56,9,-53,-112,-126,-141,-122
-58,-87,-29,73,-14,-58,9,-43,-97,-122,-136,-117
-53,-87,-34,70,-9,-61,9,-34,-92,-117,-131,-117
-53,-87,-34,70,-9,-61,9,-29,-92,-112,-126,-117
-48,-82,-34,65,-7,-58,9,-24,-87,-112,-122,-117
-43,-82,-39,63,-2,-61,14,-14,-78,-107,-117,-117
-43,-78,-34,61,-4,-56,14,-14,-78,-102,-117,-112
-39,-78,-39,58,0,-58,14,-4,-78,-97,-112,-112
-34,-73,-39,53,2,-56,14,4,-63,-92,-102,-102
-29,-68,-39,48,4,-53,14,14,-53,-87,-92,-97
-24,-68,-43,46,9,-56,14,24,-48,-78,-87,-97
-19,-58,-39,39,9,-48,14,34,-34,-68,-82,-82
-9,-53,-43,31,17,-48,14,43,-19,-58,-73,-78
-4,-48,-43,26,19,-46,14,58,-9,-53,-68,-63
0,-39,-39,19,19,-39,19,68,0,-39,-58,-48
9,-34,-43,12,26,-39,19,82,14,-34,-48,-43
24,-29,-53,2,39,-41,19,97,24,-24,-34,-34
19,-19,-39,0,29,-29,24,122,34,-9,-24,-24
24,-9,-34,-7,29,-21,29,136,48,9,-9,-9
39,0,-39,-19,39,-19,29,156,73,19,4,0
48,9,-39,-29,43,-14,29,175,87,39,24,9
63,14,-48,-39,56,-17,34,200,112,53,39,24
73,29,-43,-51,58,-7,34,219,126,78,58,43
87,34,-53,-61,70,-9,39,253,146,92,73,58
102,48,-53,-75,78,-2,39,268,165,107,92,73
117,53,-63,-85,90,-4,39,297,185,126,117,97
131,63,-68,-97,100,-2,39,322,204,151,141,112
141,78,-63,-109,102,7,39,346,224,170,161,131
151,92,-58,-122,104,17,39,356,244,185,180,151
161,107,-53,-134,107,26,34,375,258,204,200,170
170,122,-48,-146,109,36,29,385,268,214,214,190
190,131,-58,-161,124,36,24,400,283,234,234,195
195,141,-53,-168,124,43,24,414,297,248,253,209
204,161,-43,-183,124,58,24,419,307,258,263,219
214,170,-43,-192,129,63,19,419,307,268,273,224
219,165,-53,-192,136,56,24,419,312,268,273,234
229,161,-68,-195,148,46,24,414,312,268,278,234
229,165,-63,-197,146,51,29,409,307,273,287,239
224,165,-58,-195,141,53,24,405,297,278,292,248
224,165,-58,-195,141,53,19,375,292,273,292,253
214,156,-58,-185,136,48,19,351,278,268,283,244
204,156,-48,-180,126,53,14,322,263,248,263,234
185,156,-29,-170,107,63,9,292,248,229,248,219
165,146,-19,-156,92,63,9,253,219,204,214,195
146,126,-19,-136,82,53,9,214,190,175,190,175
126,112,-14,-119,70,48,4,185,165,151,161,146
102,92,-9,-97,56,41,4,156,136,117,131,122
78,73,-4,-75,41,34,0,122,112,97,102,97
63,58,-4,-61,34,26,-4,92,82,73,68,73
43,39,-4,-41,24,17,-4,58,58,43,39,43
24,19,-4,-21,14,7,-4,34,29,19,9,14
9,4,-4,-7,7,0,-4,14,9,0,-4,-9
0,-9,-9,4,4,-9,-4,-4,-9,-19,-24,-24
-9,-24,-14,17,2,-19,-4,-14,-29,-29,-39,-39
-19,-34,-14,26,-2,-24,-4,-29,-34,-43,-48,-48
-29,-39,-9,34,-9,-24,-9,-43,-43,-53,-58,-58
-34,-48,-14,41,-9,-31,-9,-58,-53,-63,-68,-68
-39,-48,-9,43,-14,-29,-4,-58,-63,-73,-73,-73
-39,-58,-19,48,-9,-39,-4,-58,-73,-78,-82,-73
-43,-58,-14,51,-14,-36,-4,-58,-78,-87,-92,-87
-43,-63,-19,53,-12,-41,-4,-68,-78,-87,-97,-92
-43,-63,-19,53,-12,-41,-4,-68,-78,-87,-97,-92
-43,-63,-19,53,-12,-41,-9,-78,-82,-92,-97,-97
-53,-63,-9,58,-21,-36,-9,-78,-82,-97,-102,-92
-58,-63,-4,61,-26,-34,-9,-78,-87,-97,-102,-87
-58,-63,-4,61,-26,-34,-9,-78,-87,-97,-102,-87
-58,-63,-4,61,-26,-34,-9,-78,-87,-97,-102,-87
-58,-63,-4,61,-26,-34,-4,-78,-87,-97,-102,-87
-58,-63,-4,61,-26,-34,-4,-73,-82,-97,-102,-82
-58,-63,-4,61,-26,-34,-4,-73,-82,-92,-97,-82
-58,-63,-4,61,-26,-34,-4,-73,-82,-92,-97,-82
-53,-63,-9,58,-21,-36,-9,-73,-82,-92,-97,-82
-43,-63,-19,53,-12,-41,-14,-73,-82,-92,-97,-82
-43,-63,-19,53,-12,-41,-14,-73,-87,-92,-97,-82
-43,-63,-19,53,-12,-41,-9,-73,-87,-92,-92,-78
-48,-63,-14,56,-17,-39,-4,-73,-82,-92,-92,-78
-48,-68,-19,58,-14,-43,0,-73,-82,-92,-92,-78
-48,-63,-14,56,-17,-39,0,-78,-82,-97,-97,-82
-48,-58,-9,53,-19,-34,0,-82,-82,-102,-102,-87
-48,-58,-9,53,-19,-34,-9,-82,-82,-102,-107,-87
-48,-58,-9,53,-19,-34,-14,-82,-82,-102,-107,-87
-53,-63,-9,58,-21,-36,-14,-78,-82,-97,-97,-87
-58,-68,-9,63,-24,-39,-9,-73,-87,-97,-92,-87
-53,-68,-14,61,-19,-41,-4,-73,-87,-97,-97,-82
-53,-68,-14,61,-19,-41,0,-78,-87,-97,-97,-82
-53,-68,-14,61,-19,-41,-4,-78,-87,-97,-97,-82
-58,-73,-14,65,-21,-43,-4,-78,-87,-97,-97,-82
-53,-63,-9,58,-21,-36,-4,-78,-87,-102,-107,-87
-48,-53,-4,51,-21,-29,-4,-78,-92,-112,-112,-92
-48,-53,-4,51,-21,-29,-4,-82,-97,-112,-112,-97
-48,-53,-4,51,-21,-29,-4,-87,-102,-112,-112,-97
-53,-63,-9,58,-21,-36,-4,-87,-107,-107,-112,-92
-63,-73,-9,68,-26,-41,-4,-87,-107,-107,-107,-92
-63,-78,-14,70,-24,-46,-4,-92,-107,-107,-112,-97
-58,-78,-19,68,-19,-48,-4,-97,-107,-107,-112,-97
-58,-78,-19,68,-19,-48,-4,-97,-112,-107,-117,-102
-63,-78,-14,70,-24,-46,-4,-97,-112,-112,-122,-107
-63,-73,-9,68,-26,-41,-4,-102,-117,-117,-126,-107
-63,-68,-4,65,-29,-36,-4,-102,-117,-117,-126,-107
-58,-68,-9,63,-24,-39,-4,-97,-112,-117,-122,-112
-53,-68,-14,61,-19,-41,-4,-97,-112,-117,-122,-112
-58,-78,-19,68,-19,-48,-9,-97,-112,-117,-122,-107
-58,-82,-24,70,-17,-53,-9,-102,-112,-122,-122,-102
-63,-82,-19,73,-21,-51,-9,-102,-112,-122,-122,-102
-68,-87,-19,78,-24,-53,-9,-107,-117,-126,-126,-107
-68,-87,-19,78,-24,-53,-9,-107,-117,-126,-126,-107
-68,-87,-19,78,-24,-53,-9,-107,-117,-126,-126,-107
-68,-87,-19,78,-24,-53,-9,-107,-117,-126,-126,-112
-68,-87,-19,78,-24,-53,-9,-107,-117,-126,-126,-117
-68,-87,-19,78,-24,-53,-9,-107,-117,-126,-126,-122
-68,-82,-14,75,-26,-48,-9,-107,-117,-126,-126,-122
-68,-82,-14,75,-26,-48,-9,-107,-117,-122,-126,-117
-68,-82,-14,75,-26,-48,-4,-102,-117,-122,-126,-112
-63,-78,-14,70,-24,-46,-4,-102,-112,-122,-126,-107
-58,-63,-4,61,-26,-34,9,-92,-92,-107,-117,-97
-53,-43,9,48,-31,-17,19,-78,-73,-107,-112,-92
-48,-24,24,36,-36,0,29,-68,-58,-97,-107,-92
-48,-14,34,31,-41,9,34,-58,-63,-92,-102,-82
-48,-14,34,31,-41,9,34,-53,-68,-87,-92,-78
-43,-14,29,29,-36,7,24,-58,-68,-87,-87,-73
-34,-14,19,24,-26,2,19,-63,-68,-87,-82,-68
-29,-14,14,21,-21,0,14,-63,-68,-78,-82,-68
-24,0,24,12,-24,12,9,-63,-58,-68,-73,-63
-9,19,29,-4,-19,24,4,-63,-53,-58,-63,-48
4,39,34,-21,-14,36,0,-63,-53,-48,-53,-39
4,39,34,-21,-14,36,-4,-73,-53,-48,-58,-39
14,29,14,-21,0,21,-14,-82,-68,-58,-73,-43
14,14,0,-14,7,7,-19,-82,-73,-68,-78,-48
14,9,-4,-12,9,2,-19,-78,-68,-68,-78,-48
9,0,-9,-4,9,-4,-19,-78,-68,-68,-78,-48
9,-14,-24,2,17,-19,-9,-78,-68,-68,-78,-48
-4,-29,-24,17,9,-26,-9,-78,-78,-78,-87,-68
-19,-48,-29,34,4,-39,-24,-102,-107,-112,-112,-92
-29,-73,-43,51,7,-58,-34,-126,-136,-131,-136,-112
-34,-92,-58,63,12,-75,-34,-141,-156,-146,-151,-126
-43,-112,-68,78,12,-90,-34,-141,-156,-151,-161,-136
-53,-117,-63,85,4,-90,-29,-136,-156,-151,-156,-136
-68,-117,-48,92,-9,-82,-19,-136,-141,-151,-156,-131
-82,-131,-48,107,-17,-90,-19,-136,-146,-161,-161,-141
-82,-126,-43,104,-19,-85,-24,-136,-151,-161,-165,-141
-82,-126,-43,104,-19,-85,-24,-146,-156,-170,-175,-141
-82,-126,-43,104,-19,-85,-24,-146,-156,-175,-180,-141
-82,-126,-43,104,-19,-85,-19,-146,-156,-175,-180,-146
-87,-126,-39,107,-24,-82,-19,-146,-161,-175,-180,-151
-87,-131,-43,109,-21,-87,-14,-141,-165,-175,-175,-151
-87,-131,-43,109,-21,-87,-19,-136,-165,-175,-175,-151
-92,-131,-39,112,-26,-85,-19,-136,-161,-175,-175,-156
-92,-131,-39,112,-26,-85,-19,-136,-161,-175,-175,-156
-92,-131,-39,112,-26,-85,-14,-136,-161,-175,-175,-156
-92,-131,-39,112,-26,-85,-14,-141,-161,-175,-180,-156
-92,-146,-53,119,-19,-100,-14,-141,-161,-175,-180,-165
-97,-156,-58,126,-19,-107,-4,-117,-156,-175,-185,-165
-97,-156,-58,126,-19,-107,14,-63,-112,-151,-180,-165
-97,-136,-39,117,-29,-87,39,4,-39,-87,-122,-146
-73,-97,-24,85,-24,-61,58,87,53,0,-34,-92
-24,-34,-9,29,-7,-21,82,204,165,122,78,0
48,73,24,-61,12,48,136,405,351,307,263,151
126,253,126,-190,0,190,195,600,614,590,566,409
268,536,268,-402,0,402,195,751,927,971,976,785
375,800,424,-588,-24,612,151,849,1224,1366,1434,1190
419,922,502,-671,-41,712,73,805,1332,1590,1708,1420
395,917,522,-656,-63,719,-48,531,1200,1566,1742,1464
283,800,517,-541,-117,658,-117,170,800,1156,1317,1166
68,639,570,-353,-251,605,-229,-463,107,400,536,649
-82,483,566,-200,-324,524,-366,-936,-405,-87,53,312
-146,346,492,-100,-319,419,-385,-1107,-663,-361,-234,78
-131,283,414,-75,-273,348,-326,-863,-531,-302,-204,19
-112,209,322,-48,-217,265,-253,-634,-419,-253,-180,-24
-82,131,214,-24,-148,173,-195,-453,-346,-234,-170,-53
-63,63,126,0,-95,95,-131,-341,-302,-224,-180,-87
-63,24,87,19,-75,56,-92,-258,-244,-195,-180,-112
-68,-14,53,41,-61,19,-63,-195,-200,-180,-165,-112
-68,-39,29,53,-48,-4,-34,-151,-170,-156,-156,-112
-68,-63,4,65,-36,-29,-14,-107,-146,-146,-151,-122
-68,-73,-4,70,-31,-39,-4,-97,-136,-151,-151,-131
-78,-78,0,78,-39,-39,-4,-87,-136,-156,-151,-136
-82,-78,4,80,-43,-36,-4,-82,-131,-156,-146,-136
-82,-87,-4,85,-39,-46,0,-68,-122,-151,-146,-131
-82,-87,-4,85,-39,-46,4,-58,-122,-141,-146,-131
-78,-87,-9,82,-34,-48,9,-53,-117,-136,-146,-126
-73,-87,-14,80,-29,-51,9,-48,-117,-136,-146,-122
-73,-87,-14,80,-29,-51,9,-43,-112,-136,-141,-122
-68,-87,-19,78,-24,-53,9,-34,-97,-131,-136,-117
-63,-82,-19,73,-21,-51,9,-24,-92,-122,-131,-117
-63,-78,-14,70,-24,-46,9,-19,-92,-112,-126,-112
-58,-73,-14,65,-21,-43,4,-14,-87,-112,-122,-107
-53,-73,-19,63,-17,-46,4,-4,-78,-107,-117,-107
-48,-68,-19,58,-14,-43,4,-4,-78,-107,-117,-102
-39,-68,-29,53,-4,-48,4,4,-78,-107,-112,-102
-34,-63,-29,48,-2,-46,9,14,-68,-102,-102,-92
-29,-58,-29,43,0,-43,14,24,-63,-97,-92,-87
-29,-58,-29,43,0,-43,14,34,-58,-87,-87,-87
-29,-48,-19,39,-4,-34,14,43,-48,-78,-82,-73
-19,-43,-24,31,2,-34,14,53,-34,-68,-73,-68
-14,-39,-24,26,4,-31,14,68,-19,-63,-68,-58
-9,-29,-19,19,4,-24,19,73,-9,-48,-58,-53
0,-24,-24,12,12,-24,19,82,4,-43,-48,-53
14,-19,-34,2,24,-26,19,97,14,-34,-34,-43
14,-9,-24,-2,19,-17,19,122,24,-19,-24,-34
24,4,-19,-14,21,-7,19,141,39,4,-9,-19
39,19,-19,-29,29,0,19,165,63,19,4,-4
48,29,-19,-39,34,4,19,185,78,39,24,9
63,34,-29,-48,46,2,24,209,102,53,43,24
73,48,-24,-61,48,12,24,229,117,78,68,43
87,58,-29,-73,58,14,29,263,136,97,82,58
102,73,-29,-87,65,21,29,278,156,112,97,73
117,78,-39,-97,78,19,29,302,175,126,117,97
131,92,-39,-112,85,26,29,322,195,151,141,112
146,107,-39,-126,92,34,29,346,214,170,161,131
161,122,-39,-141,100,41,29,356,234,185,180,146
170,131,-39,-151,104,46,29,375,248,204,200,161
180,141,-39,-161,109,51,29,385,258,214,214,180
200,151,-48,-175,124,51,24,395,268,229,229,185
204,161,-43,-183,124,58,24,405,278,239,239,200
214,170,-43,-192,129,63,24,409,287,248,244,209
224,170,-53,-197,139,58,19,409,287,258,253,214
224,175,-48,-200,136,63,19,409,292,258,253,224
229,180,-48,-204,139,65,14,405,292,253,258,224
229,185,-43,-207,136,70,14,390,287,248,258,224
224,190,-34,-207,129,78,4,375,278,248,258,229
219,195,-24,-207,122,85,0,346,268,239,258,229
204,185,-19,-195,112,82,0,322,248,234,244,214
190,175,-14,-183,102,80,0,292,229,219,224,200
175,165,-9,-170,92,78,0,263,209,200,209,185
165,156,-9,-161,87,73,0,224,180,175,175,161
136,131,-4,-134,70,63,0,185,151,146,156,141
107,112,4,-109,51,58,-4,156,126,122,131,117
82,92,9,-87,36,51,-4,122,97,87,102,92
58,73,14,-65,21,43,-4,82,73,68,73,68
43,58,14,-51,14,36,-4,53,43,43,39,39
24,39,14,-31,4,26,-4,29,24,14,14,9
4,19,14,-12,-4,17,-9,14,0,-9,-9,-14
-9,9,19,0,-14,14,-14,-4,-14,-24,-24,-34
-19,0,19,9,-19,9,-14,-24,-29,-39,-43,-43
-29,-14,14,21,-21,0,-14,-34,-48,-48,-58,-58
-39,-24,14,31,-26,-4,-14,-48,-48,-63,-68,-68
-43,-24,19,34,-31,-2,-19,-58,-53,-73,-78,-78
-43,-29,14,36,-29,-7,-24,-73,-63,-82,-87,-87
-48,-29,19,39,-34,-4,-24,-78,-68,-87,-92,-92
-48,-39,9,43,-29,-14,-24,-78,-78,-92,-107,-92
-53,-39,14,46,-34,-12,-24,-78,-87,-107,-117,-102
-53,-43,9,48,-31,-17,-24,-87,-87,-107,-117,-102
-53,-43,9,48,-31,-17,-24,-87,-87,-107,-117,-102
-53,-43,9,48,-31,-17,-24,-92,-87,-107,-117,-107
-58,-43,14,51,-36,-14,-19,-87,-82,-107,-122,-107
-58,-39,19,48,-39,-9,-19,-87,-87,-107,-122,-107
-58,-34,24,46,-41,-4,-19,-87,-87,-107,-122,-107
-58,-34,24,46,-41,-4,-19,-92,-87,-107,-122,-107
-58,-34,24,46,-41,-4,-19,-97,-87,-107,-122,-107
-58,-34,24,46,-41,-4,-24,-92,-87,-112,-122,-102
-58,-34,24,46,-41,-4,-24,-92,-92,-112,-117,-102
-58,-34,24,46,-41,-4,-19,-92,-92,-112,-117,-102
-58,-34,24,46,-41,-4,-14,-92,-92,-112,-117,-102
-53,-29,24,41,-39,-2,-14,-92,-87,-112,-117,-107
-53,-24,29,39,-41,2,-14,-92,-87,-112,-117,-112
-53,-24,29,39,-41,2,-14,-92,-87,-107,-112,-107
-58,-24,34,41,-46,4,-19,-92,-82,-102,-112,-107
-58,-29,29,43,-43,0,-19,-87,-82,-102,-112,-102
-58,-29,29,43,-43,0,-19,-82,-82,-102,-112,-97
-58,-29,29,43,-43,0,-19,-82,-82,-102,-112,-97
-58,-29,29,43,-43,0,-24,-82,-82,-102,-117,-97
-58,-29,29,43,-43,0,-24,-87,-82,-107,-117,-97
-58,-29,29,43,-43,0,-24,-92,-82,-112,-112,-97
-58,-29,29,43,-43,0,-19,-92,-87,-117,-112,-97
-53,-29,24,41,-39,-2,-19,-92,-87,-117,-117,-97
-53,-29,24,41,-39,-2,-19,-97,-87,-117,-117,-102
-53,-29,24,41,-39,-2,-24,-97,-87,-117,-117,-102
-58,-34,24,46,-41,-4,-24,-97,-87,-117,-117,-107
-58,-34,24,46,-41,-4,-24,-97,-87,-117,-122,-112
-63,-34,29,48,-46,-2,-24,-97,-92,-122,-122,-112
-68,-34,34,51,-51,0,-24,-102,-92,-122,-122,-117
-68,-34,34,51,-51,0,-24,-107,-92,-122,-122,-117
-68,-34,34,51,-51,0,-24,-107,-97,-122,-126,-117
-68,-34,34,51,-51,0,-24,-107,-97,-126,-126,-117
-63,-39,24,51,-43,-7,-24,-107,-97,-126,-131,-117
-58,-39,19,48,-39,-9,-24,-112,-97,-126,-131,-117
-58,-39,19,48,-39,-9,-24,-117,-102,-126,-131,-117
-63,-39,24,51,-43,-7,-24,-117,-107,-131,-131,-117
-63,-39,24,51,-43,-7,-24,-122,-117,-136,-136,-117
-63,-39,24,51,-43,-7,-24,-122,-117,-136,-136,-117
-63,-39,24,51,-43,-7,-24,-126,-122,-136,-141,-122
-63,-43,19,53,-41,-12,-24,-122,-117,-136,-141,-122
-68,-48,19,58,-43,-14,-29,-122,-117,-141,-146,-126
-68,-48,19,58,-43,-14,-29,-122,-117,-141,-146,-126
-68,-48,19,58,-43,-14,-29,-126,-117,-146,-146,-126
-68,-53,14,61,-41,-19,-29,-126,-112,-141,-146,-126
-68,-58,9,63,-39,-24,-29,-126,-107,-136,-146,-126
-68,-58,9,63,-39,-24,-29,-126,-107,-136,-151,-126
-68,-53,14,61,-41,-19,-29,-126,-112,-141,-151,-131
-68,-53,14,61,-41,-19,-29,-131,-117,-146,-156,-136
-68,-53,14,61,-41,-19,-29,-136,-126,-151,-156,-141
-68,-53,14,61,-41,-19,-24,-131,-126,-151,-156,-141
-68,-48,19,58,-43,-14,-24,-131,-122,-151,-156,-136
-63,-39,24,51,-43,-7,-9,-117,-102,-136,-146,-126
-53,-24,29,39,-41,2,-4,-102,-92,-131,-136,-117
-48,-4,43,26,-46,19,4,-97,-87,-117,-126,-112
-43,4,48,19,-46,26,14,-87,-82,-112,-122,-102
-39,9,48,14,-43,29,14,-82,-73,-107,-112,-97
-34,14,48,9,-41,31,9,-82,-68,-107,-112,-97
-24,14,39,4,-31,26,9,-82,-68,-107,-112,-97
-19,14,34,2,-26,24,4,-82,-68,-102,-112,-97
-14,29,43,-7,-29,36,0,-82,-58,-97,-102,-92
-4,48,53,-21,-29,51,-4,-82,-48,-87,-92,-78
9,73,63,-41,-26,68,-9,-82,-43,-73,-78,-68
14,78,63,-46,-24,70,-14,-92,-43,-68,-73,-68
24,68,43,-46,-9,56,-29,-102,-58,-78,-82,-73
24,53,29,-39,-2,41,-39,-102,-68,-87,-87,-78
24,48,24,-36,0,36,-39,-97,-68,-87,-87,-78
19,48,29,-34,-4,39,-39,-97,-68,-87,-87,-78
19,48,29,-34,-4,39,-29,-92,-68,-87,-82,-73
4,29,24,-17,-9,26,-29,-87,-78,-97,-87,-82
-9,0,9,4,-9,4,-43,-112,-107,-131,-112,-102
-19,-24,-4,21,-7,-14,-53,-136,-131,-151,-136,-122
-24,-48,-24,36,0,-36,-53,-156,-151,-165,-161,-141
-34,-68,-34,51,0,-51,-53,-161,-156,-170,-185,-156
-43,-68,-24,56,-9,-46,-48,-156,-156,-170,-185,-156
-53,-68,-14,61,-19,-41,-39,-156,-146,-170,-185,-156
-73,-87,-14,80,-29,-51,-39,-156,-156,-185,-190,-170
-82,-92,-9,87,-36,-51,-43,-156,-161,-190,-190,-170
-82,-97,-14,90,-34,-56,-43,-165,-165,-200,-195,-170
-82,-97,-14,90,-34,-56,-48,-165,-165,-200,-200,-170
-82,-97,-14,90,-34,-56,-48,-165,-165,-195,-200,-175
-87,-97,-9,92,-39,-53,-48,-165,-165,-195,-200,-175
-87,-102,-14,95,-36,-58,-43,-161,-165,-195,-195,-170
-87,-102,-14,95,-36,-58,-43,-156,-165,-195,-195,-170
-92,-97,-4,95,-43,-51,-39,-156,-161,-195,-195,-175
-92,-92,0,92,-46,-46,-39,-156,-161,-195,-195,-175
-92,-92,0,92,-46,-46,-34,-161,-161,-195,-195,-175
-92,-92,0,92,-46,-46,-34,-165,-161,-195,-200,-175
-92,-107,-14,100,-39,-61,-39,-170,-165,-200,-204,-190
-97,-117,-19,107,-39,-68,-34,-156,-165,-204,-209,-195
-107,-126,-19,117,-43,-73,-14,-112,-141,-200,-219,-209
-117,-117,0,117,-58,-58,9,-53,-82,-146,-175,-190
-102,-102,0,102,-51,-51,29,0,-9,-73,-112,-146
-63,-63,0,63,-31,-31,53,87,78,24,-24,-78
-4,0,4,2,-4,2,117,297,224,151,112,14
58,136,78,-97,-9,107,185,517,453,380,361,214
224,439,214,-331,4,326,200,722,800,780,771,600
356,722,366,-539,-4,544,170,858,1127,1190,1229,1010
444,912,468,-678,-12,690,92,907,1366,1571,1673,1366
458,980,522,-719,-31,751,-19,722,1366,1693,1859,1532
375,883,507,-629,-65,695,-78,414,1039,1356,1503,1293
185,736,551,-461,-183,644,-180,-161,424,697,829,844
-34,570,605,-268,-319,588,-341,-829,-239,82,239,439
-146,419,566,-136,-356,492,-405,-1195,-653,-331,-175,141
-131,346,478,-107,-305,412,-356,-951,-541,-283,-165,63
-122,268,390,-73,-256,329,-287,-732,-453,-253,-170,-4
-92,190,283,-48,-187,236,-234,-541,-366,-244,-170,-39
-73,117,190,-21,-131,153,-170,-409,-312,-244,-180,-78
-73,63,136,4,-104,100,-122,-307,-258,-219,-185,-107
-78,14,92,31,-85,53,-82,-224,-209,-200,-175,-112
-78,-9,68,43,-73,29,-53,-175,-175,-175,-165,-112
-78,-34,43,56,-61,4,-34,-126,-146,-161,-161,-122
-78,-48,29,63,-53,-9,-19,-112,-131,-156,-156,-131
-82,-58,24,70,-53,-17,-14,-102,-126,-156,-156,-136
-82,-58,24,70,-53,-17,-9,-102,-122,-156,-156,-136
-82,-68,14,75,-48,-26,0,-87,-112,-156,-156,-131
-82,-68,14,75,-48,-26,4,-78,-112,-151,-156,-131
-78,-68,9,73,-43,-29,9,-73,-107,-146,-156,-131
-73,-68,4,70,-39,-31,9,-68,-107,-146,-156,-136
-73,-68,4,70,-39,-31,9,-63,-102,-146,-151,-141
-68,-68,0,68,-34,-34,9,-53,-87,-136,-146,-136
-63,-68,-4,65,-29,-36,9,-43,-82,-126,-141,-136
-58,-68,-9,63,-24,-39,9,-34,-78,-122,-131,-126
-48,-63,-14,56,-17,-39,9,-24,-68,-122,-122,-117
-43,-63,-19,53,-12,-41,14,-14,-58,-117,-117,-117
-43,-58,-14,51,-14,-36,14,-14,-58,-112,-117,-112
-48,-58,-9,53,-19,-34,14,-4,-63,-107,-117,-117
-53,-53,0,53,-26,-26,14,4,-53,-102,-112,-112
-48,-48,0,48,-24,-24,14,9,-48,-102,-102,-107
-43,-48,-4,46,-19,-26,14,14,-48,-97,-97,-107
-34,-39,-4,36,-14,-21,14,24,-39,-87,-92,-92
-19,-34,-14,26,-2,-24,14,34,-29,-78,-82,-87
-14,-29,-14,21,0,-21,14,48,-19,-73,-78,-78
-9,-19,-9,14,0,-14,19,58,-9,-58,-68,-68
0,-19,-19,9,9,-19,19,73,9,-53,-58,-63
14,-19,-34,2,24,-26,19,87,24,-43,-43,-53
14,-9,-24,-2,19,-17,24,117,34,-29,-34,-43
24,0,-24,-12,24,-12,29,136,48,-9,-19,-29
39,9,-29,-24,34,-9,29,156,68,0,-4,-14
48,19,-29,-34,39,-4,29,175,78,19,14,0
63,24,-39,-43,51,-7,29,200,102,29,29,9
73,39,-34,-56,53,2,24,219,117,48,48,24
82,48,-34,-65,58,7,29,253,136,68,63,39
92,68,-24,-80,58,21,29,268,156,87,82,53
107,73,-34,-90,70,19,29,292,175,107,107,78
122,82,-39,-102,80,21,29,312,195,131,131,92
136,97,-39,-117,87,29,29,336,214,151,151,112
151,112,-39,-131,95,36,29,346,234,165,170,131
165,122,-43,-143,104,39,29,366,248,190,190,151
180,131,-48,-156,114,41,29,375,258,204,204,170
200,141,-58,-170,129,41,24,390,268,219,219,175
204,151,-53,-178,129,48,24,405,278,229,234,190
214,161,-53,-187,134,53,29,409,287,239,244,204
224,161,-63,-192,143,48,29,409,287,248,253,214
229,165,-63,-197,146,51,29,414,292,248,258,224
239,170,-68,-204,153,51,24,414,292,248,268,224
239,175,-63,-207,151,56,24,400,287,248,268,224
234,175,-58,-204,146,58,14,385,278,248,263,229
229,180,-48,-204,139,65,9,356,268,239,263,234
214,175,-39,-195,126,68,9,331,248,229,253,224
200,165,-34,-183,117,65,9,307,234,214,234,209
175,156,-19,-165,97,68,9,283,219,200,219,190
156,146,-9,-151,82,68,9,244,190,180,185,165
136,126,-9,-131,73,58,9,204,161,156,161,146
117,112,-4,-114,61,53,4,170,141,136,136,117
92,92,0,-92,46,46,4,136,117,107,112,92
68,73,4,-70,31,39,4,102,92,87,82,68
53,58,4,-56,24,31,4,73,63,63,48,43
34,39,4,-36,14,21,0,43,39,34,24,19
14,19,4,-17,4,12,-4,24,9,9,0,-4
0,9,9,-4,-4,9,-4,4,-4,-4,-14,-24
-9,0,9,4,-9,4,-4,-14,-19,-19,-34,-34
-19,-14,4,17,-12,-4,-4,-24,-39,-29,-48,-48
-29,-24,4,26,-17,-9,-4,-39,-43,-43,-58,-58
-39,-34,4,36,-21,-14,-9,-48,-53,-58,-68,-68
-43,-48,-4,46,-19,-26,-9,-58,-63,-73,-78,-78
-48,-48,0,48,-24,-24,-4,-68,-78,-82,-87,-82
-48,-58,-9,53,-19,-34,-4,-78,-92,-87,-102,-82
-53,-53,0,53,-26,-26,-4,-78,-97,-97,-107,-102
-53,-53,0,53,-26,-26,-4,-87,-97,-97,-107,-112
-53,-53,0,53,-26,-26,-4,-82,-92,-97,-107,-112
-53,-53,0,53,-26,-26,-9,-87,-92,-102,-107,-117
-58,-53,4,56,-31,-24,-9,-87,-92,-107,-112,-107
-58,-53,4,56,-31,-24,-9,-87,-97,-107,-112,-97
-58,-58,0,58,-29,-29,-9,-87,-97,-102,-107,-97
-58,-63,-4,61,-26,-34,-9,-87,-97,-97,-102,-97
-58,-63,-4,61,-26,-34,-4,-87,-97,-97,-102,-97
-58,-63,-4,61,-26,-34,-4,-82,-92,-97,-102,-92
-58,-58,0,58,-29,-29,-4,-82,-92,-97,-102,-92
-58,-53,4,56,-31,-24,-4,-82,-92,-102,-107,-92
-58,-53,4,56,-31,-24,-4,-82,-92,-102,-107,-92
-53,-53,0,53,-26,-26,-4,-82,-92,-102,-107,-92
-53,-53,0,53,-26,-26,-4,-82,-102,-102,-107,-97
-53,-53,0,53,-26,-26,0,-82,-107,-102,-102,-97
-63,-58,4,61,-34,-26,0,-82,-102,-102,-102,-97
-68,-68,0,68,-34,-34,0,-82,-102,-102,-102,-97
-68,-68,0,68,-34,-34,-4,-82,-97,-102,-102,-97
-68,-68,0,68,-34,-34,-9,-82,-92,-102,-102,-97
-63,-68,-4,65,-29,-36,-14,-87,-92,-102,-107,-97
-58,-68,-9,63,-24,-39,-14,-92,-92,-102,-107,-97
-58,-68,-9,63,-24,-39,-14,-92,-92,-102,-102,-97
-58,-68,-9,63,-24,-39,-9,-92,-97,-107,-102,-97
-53,-63,-9,58,-21,-36,-9,-92,-102,-107,-107,-97
-53,-58,-4,56,-24,-31,-9,-97,-107,-107,-107,-102
-58,-58,0,58,-29,-29,-14,-97,-107,-102,-107,-102
-68,-63,4,65,-36,-29,-14,-97,-107,-97,-107,-102
-68,-68,0,68,-34,-34,-9,-92,-102,-97,-107,-102
-68,-73,-4,70,-31,-39,-4,-87,-102,-102,-102,-102
-68,-73,-4,70,-31,-39,-4,-92,-102,-102,-102,-107
-68,-73,-4,70,-31,-39,-4,-97,-102,-102,-102,-107
-63,-68,-4,65,-29,-36,-4,-97,-107,-107,-112,-112
-63,-63,0,63,-31,-31,-4,-97,-107,-117,-117,-122
-63,-68,-4,65,-29,-36,-4,-97,-107,-117,-122,-126
-58,-68,-9,63,-24,-39,-4,-97,-107,-117,-122,-126
-63,-73,-9,68,-26,-41,-4,-97,-102,-112,-117,-112
-73,-78,-4,75,-34,-41,-4,-97,-92,-112,-112,-97
-73,-78,-4,75,-34,-41,-9,-102,-107,-117,-117,-97
-73,-78,-4,75,-34,-41,-14,-102,-117,-117,-117,-97
-73,-78,-4,75,-34,-41,-14,-102,-117,-117,-117,-102
-78,-82,-4,80,-36,-43,-19,-107,-122,-117,-122,-102
-78,-82,-4,80,-36,-43,-14,-107,-117,-117,-122,-107
-78,-87,-9,82,-34,-48,-9,-107,-117,-117,-126,-117
-78,-87,-9,82,-34,-48,-9,-107,-117,-117,-126,-117
-78,-87,-9,82,-34,-48,-9,-107,-117,-117,-126,-117
-78,-87,-9,82,-34,-48,-9,-112,-122,-126,-126,-117
-73,-87,-14,80,-29,-51,-9,-112,-122,-131,-126,-122
-73,-87,-14,80,-29,-51,-9,-117,-126,-136,-131,-126
-68,-82,-14,75,-26,-48,-9,-117,-126,-136,-136,-131
-68,-82,-14,75,-26,-48,-9,-117,-126,-131,-136,-131
-68,-82,-14,75,-26,-48,-4,-112,-126,-131,-136,-131
-68,-78,-9,73,-29,-43,-4,-107,-122,-131,-136,-126
-68,-63,4,65,-36,-29,9,-92,-102,-117,-126,-117
-63,-43,19,53,-41,-12,14,-82,-92,-107,-112,-107
-58,-24,34,41,-46,4,19,-78,-87,-87,-97,-102
-53,-14,39,34,-46,12,24,-68,-82,-82,-92,-92
-48,-14,34,31,-41,9,24,-63,-78,-78,-82,-87
-43,-14,29,29,-36,7,19,-63,-78,-78,-82,-87
-34,-14,19,24,-26,2,19,-63,-78,-78,-82,-87
-34,-9,24,21,-29,7,14,-63,-78,-73,-82,-87
-34,9,43,12,-39,26,9,-63,-68,-68,-73,-82
-24,29,53,-2,-39,41,4,-63,-58,-58,-68,-68
-14,48,63,-17,-39,56,0,-63,-53,-48,-63,-58
-14,43,58,-14,-36,51,-4,-73,-53,-48,-63,-58
-4,29,34,-12,-19,31,-14,-82,-68,-58,-73,-63
-4,14,19,-4,-12,17,-19,-82,-73,-68,-73,-63
-4,9,14,-2,-9,12,-19,-78,-68,-68,-68,-58
-9,9,19,0,-14,14,-19,-78,-68,-68,-68,-58
-9,4,14,2,-12,9,-9,-78,-68,-68,-68,-58
-24,-19,4,21,-14,-7,-9,-78,-82,-78,-78,-73
-39,-48,-9,43,-14,-29,-24,-102,-117,-112,-102,-92
-48,-73,-24,61,-12,-48,-34,-126,-141,-131,-126,-112
-53,-92,-39,73,-7,-65,-34,-141,-156,-146,-141,-126
-63,-107,-43,85,-9,-75,-34,-141,-156,-151,-156,-136
-73,-107,-34,90,-19,-70,-29,-136,-156,-151,-156,-136
-82,-107,-24,95,-29,-65,-19,-136,-146,-151,-161,-136
-92,-122,-29,107,-31,-75,-19,-136,-156,-161,-170,-151
-87,-122,-34,104,-26,-78,-24,-136,-161,-161,-170,-156
-82,-126,-43,104,-19,-85,-24,-146,-165,-170,-175,-161
-82,-126,-43,104,-19,-85,-29,-151,-165,-170,-175,-161
-82,-126,-43,104,-19,-85,-29,-156,-165,-165,-170,-165
-92,-126,-34,109,-29,-80,-29,-156,-165,-165,-170,-165
-97,-131,-34,114,-31,-82,-24,-151,-165,-165,-165,-161
-97,-131,-34,114,-31,-82,-29,-146,-165,-165,-165,-161
-102,-131,-29,117,-36,-80,-29,-146,-161,-165,-165,-165
-102,-131,-29,117,-36,-80,-29,-141,-161,-165,-165,-165
-102,-131,-29,117,-36,-80,-24,-136,-161,-165,-165,-165
-97,-131,-34,114,-31,-82,-24,-136,-156,-165,-170,-165
-92,-146,-53,119,-19,-100,-24,-131,-151,-165,-170,-175
-97,-156,-58,126,-19,-107,-14,-107,-146,-165,-170,-175
-97,-156,-58,126,-19,-107,4,-53,-102,-141,-161,-175
-97,-136,-39,117,-29,-87,29,9,-29,-68,-97,-141
-73,-97,-24,85,-24,-61,48,87,63,29,-4,-73
-24,-39,-14,31,-4,-26,68,200,165,146,112,19
48,63,14,-56,17,39,117,395,341,326,302,170
131,244,112,-187,9,178,175,605,600,610,605,434
278,527,248,-402,14,387,175,771,907,990,1015,814
385,790,405,-588,-9,597,141,893,1229,1385,1473,1215
429,912,483,-671,-26,697,73,873,1361,1610,1747,1439
395,922,527,-658,-65,724,-19,610,1254,1600,1766,1468
273,819,546,-546,-136,683,-58,258,878,1205,1327,1156
39,668,629,-353,-295,649,-161,-395,190,463,566,639
-131,522,653,-195,-392,588,-287,-888,-317,-9,102,302
-185,370,556,-92,-370,463,-326,-1073,-590,-292,-190,78
-161,292,453,-65,-307,373,-287,-844,-473,-244,-165,29
-136,219,356,-41,-246,287,-229,-624,-375,-204,-151,-14
-102,141,244,-19,-173,192,-185,-453,-317,-195,-151,-43
-78,58,136,9,-107,97,-122,-341,-283,-200,-161,-78
-73,4,78,34,-75,41,-82,-258,-234,-185,-161,-102
-78,-34,43,56,-61,4,-53,-195,-190,-170,-146,-107
-78,-58,19,68,-48,-19,-24,-151,-161,-146,-136,-112
-78,-82,-4,80,-36,-43,-4,-102,-141,-131,-131,-122
-78,-92,-14,85,-31,-53,4,-87,-136,-131,-131,-131
-82,-97,-14,90,-34,-56,4,-82,-136,-141,-136,-136
-82,-97,-14,90,-34,-56,4,-82,-131,-146,-136,-136
-82,-107,-24,95,-29,-65,9,-68,-122,-146,-136,-131
-82,-107,-24,95,-29,-65,14,-58,-122,-141,-136,-131
-78,-107,-29,92,-24,-68,14,-53,-117,-136,-136,-131
-73,-107,-34,90,-19,-70,9,-48,-117,-136,-136,-131
-73,-102,-29,87,-21,-65,9,-43,-117,-136,-131,-131
-68,-97,-29,82,-19,-63,9,-34,-107,-131,-126,-126
-63,-97,-34,80,-14,-65,9,-24,-102,-126,-126,-126
-63,-97,-34,80,-14,-65,9,-19,-102,-122,-126,-122
-58,-92,-34,75,-12,-63,9,-14,-97,-122,-122,-117
-53,-92,-39,73,-7,-65,14,-4,-87,-117,-117,-117
-48,-87,-39,68,-4,-63,14,-4,-87,-112,-117,-112
-39,-87,-48,63,4,-68,14,4,-87,-107,-112,-112
-34,-87,-53,61,9,-70,14,14,-73,-102,-102,-102
-29,-87,-58,58,14,-73,14,24,-63,-97,-92,-97
-24,-87,-63,56,19,-75,14,29,-58,-87,-87,-82
-19,-78,-58,48,19,-68,14,34,-48,-78,-82,-53
-9,-73,-63,41,26,-68,14,43,-39,-68,-73,-58
-4,-68,-63,36,29,-65,14,58,-29,-63,-68,-58
0,-58,-58,29,29,-58,19,68,-19,-48,-58,-48
9,-53,-63,21,36,-58,19,82,-4,-43,-48,-43
24,-48,-73,12,48,-61,24,92,4,-34,-34,-34
24,-39,-63,7,43,-51,29,112,14,-19,-24,-24
34,-34,-68,0,51,-51,29,126,24,0,-9,-9
48,-29,-78,-9,63,-53,29,146,43,9,4,4
58,-19,-78,-19,68,-48,29,165,58,29,19,14
73,-14,-87,-29,80,-51,34,190,82,43,34,24
82,0,-82,-41,82,-41,34,209,102,68,58,43
97,9,-87,-53,92,-39,39,244,126,87,73,58
122,29,-92,-75,107,-31,34,258,146,102,92,73
146,39,-107,-92,126,-34,29,283,165,117,117,97
146,53,-92,-100,119,-19,29,302,185,141,141,112
146,68,-78,-107,112,-4,29,326,204,161,161,131
161,82,-78,-122,119,2,29,336,219,175,180,151
170,92,-78,-131,124,7,29,356,229,195,200,170
180,102,-78,-141,129,12,24,366,239,200,209,190
200,112,-87,-156,143,12,14,375,248,209,219,195
204,122,-82,-163,143,19,14,385,258,219,234,204
214,131,-82,-173,148,24,14,390,268,229,244,209
224,131,-92,-178,158,19,9,390,268,239,253,214
224,136,-87,-180,156,24,9,390,273,239,253,224
229,141,-87,-185,158,26,4,385,273,239,258,224
229,146,-82,-187,156,31,4,370,268,239,258,224
224,146,-78,-185,151,34,0,356,258,244,258,234
219,146,-73,-183,146,36,0,326,248,239,258,239
204,136,-68,-170,136,34,0,302,234,229,244,224
190,126,-63,-158,126,31,0,273,219,209,224,209
165,117,-48,-141,107,34,0,244,200,195,214,190
146,107,-39,-126,92,34,0,204,170,175,185,161
126,87,-39,-107,82,24,0,170,141,146,161,136
107,73,-34,-90,70,19,-4,146,117,122,131,107
82,53,-29,-68,56,12,-4,117,92,87,102,82
58,34,-24,-46,41,4,-4,82,73,68,73,58
43,19,-24,-31,34,-2,-4,53,43,43,39,34
24,0,-24,-12,24,-12,-4,29,24,14,14,9
4,-19,-24,7,14,-21,0,24,14,-4,-4,-14
-9,-29,-19,19,4,-24,4,14,14,-14,-14,-34
-19,-39,-19,29,0,-29,4,-14,-9,-29,-34,-43
-29,-53,-24,41,-2,-39,4,-34,-39,-39,-48,-58
-39,-63,-24,51,-7,-43,4,-48,-53,-58,-58,-68
-43,-63,-19,53,-12,-41,0,-58,-73,-73,-68,-78
-43,-68,-24,56,-9,-46,0,-68,-73,-82,-78,-87
-48,-68,-19,58,-14,-43,4,-68,-68,-87,-82,-92
-48,-78,-29,63,-9,-53,4,-63,-73,-82,-92,-87
-53,-78,-24,65,-14,-51,4,-58,-78,-87,-97,-92
-53,-82,-29,68,-12,-56,4,-68,-78,-87,-97,-92
-53,-82,-29,68,-12,-56,4,-68,-78,-87,-97,-92
-53,-82,-29,68,-12,-56,0,-78,-82,-92,-97,-97
-58,-82,-24,70,-17,-53,0,-78,-82,-97,-102,-97
-58,-82,-24,70,-17,-53,0,-78,-87,-97,-102,-97
-58,-82,-24,70,-17,-53,0,-78,-87,-97,-102,-97
-58,-87,-29,73,-14,-58,4,-73,-87,-97,-102,-97
-58,-92,-34,75,-12,-63,9,-68,-87,-97,-102,-97
-58,-92,-34,75,-12,-63,4,-63,-82,-97,-102,-92
-58,-92,-34,75,-12,-63,4,-63,-82,-92,-97,-92
-58,-87,-29,73,-14,-58,4,-68,-82,-92,-97,-92
-58,-82,-24,70,-17,-53,4,-73,-82,-92,-97,-92
-53,-82,-29,68,-12,-56,0,-73,-82,-92,-97,-92
-53,-82,-29,68,-12,-56,-4,-73,-87,-92,-97,-92
-48,-82,-34,65,-7,-58,0,-73,-92,-92,-92,-87
-48,-82,-34,65,-7,-58,0,-73,-92,-92,-92,-87
-48,-87,-39,68,-4,-63,0,-73,-92,-92,-92,-87
-48,-87,-39,68,-4,-63,0,-73,-92,-92,-92,-87
-53,-87,-34,70,-9,-61,9,-73,-82,-92,-92,-87
-58,-87,-29,73,-14,-58,14,-73,-73,-92,-97,-87
-58,-87,-29,73,-14,-58,14,-73,-73,-92,-97,-92
-58,-87,-29,73,-14,-58,14,-73,-73,-92,-92,-97
-58,-87,-29,73,-14,-58,14,-73,-82,-97,-97,-102
-53,-87,-34,70,-9,-61,9,-73,-87,-97,-107,-107
-53,-87,-34,70,-9,-61,9,-78,-87,-97,-107,-112
-53,-87,-34,70,-9,-61,4,-78,-87,-97,-107,-112
-58,-92,-34,75,-12,-63,9,-78,-82,-97,-102,-107
-58,-92,-34,75,-12,-63,14,-78,-78,-97,-102,-102
-58,-92,-34,75,-12,-63,14,-78,-82,-102,-102,-97
-58,-92,-34,75,-12,-63,14,-82,-82,-102,-102,-97
-58,-92,-34,75,-12,-63,9,-87,-87,-102,-102,-97
-58,-92,-34,75,-12,-63,4,-87,-97,-102,-107,-97
-68,-92,-24,80,-21,-58,4,-87,-97,-107,-107,-102
-73,-97,-24,85,-24,-61,4,-87,-97,-107,-112,-107
-68,-97,-29,82,-19,-63,4,-87,-97,-107,-117,-112
-68,-97,-29,82,-19,-63,4,-87,-102,-107,-122,-117
-68,-97,-29,82,-19,-63,4,-87,-102,-112,-122,-117
-63,-97,-34,80,-14,-65,4,-92,-107,-117,-126,-117
-63,-97,-34,80,-14,-65,4,-92,-102,-117,-122,-112
-63,-97,-34,80,-14,-65,4,-97,-102,-117,-122,-112
-63,-97,-34,80,-14,-65,0,-102,-102,-122,-117,-112
-68,-97,-29,82,-19,-63,0,-107,-107,-126,-117,-117
-68,-97,-29,82,-19,-63,0,-107,-112,-126,-117,-117
-68,-97,-29,82,-19,-63,0,-107,-117,-126,-117,-117
-68,-102,-34,85,-17,-68,0,-107,-117,-122,-117,-117
-68,-102,-34,85,-17,-68,0,-107,-117,-117,-117,-117
-68,-107,-39,87,-14,-73,0,-107,-117,-117,-122,-122
-68,-102,-34,85,-17,-68,0,-107,-117,-117,-126,-122
-68,-102,-34,85,-17,-68,0,-107,-112,-112,-126,-122
-68,-102,-34,85,-17,-68,4,-102,-107,-112,-126,-122
-68,-97,-29,82,-19,-63,4,-97,-102,-112,-122,-117
-68,-82,-14,75,-26,-48,19,-82,-82,-97,-107,-107
-63,-63,0,63,-31,-31,24,-73,-78,-97,-97,-97
-58,-43,14,51,-36,-14,29,-68,-78,-87,-87,-92
-53,-34,19,43,-36,-7,34,-58,-73,-82,-82,-82
-48,-34,14,41,-31,-9,34,-53,-68,-78,-73,-78
-43,-34,9,39,-26,-12,24,-58,-63,-78,-73,-78
-34,-34,0,34,-17,-17,19,-63,-58,-78,-73,-78
-29,-34,-4,31,-12,-19,14,-63,-58,-68,-73,-78
-24,-19,4,21,-14,-7,9,-63,-48,-58,-63,-73
-14,0,14,7,-14,7,14,-53,-39,-48,-58,-63
-4,19,24,-7,-14,21,19,-43,-34,-39,-53,-58
-9,19,29,-4,-19,24,4,-63,-43,-43,-53,-58
-4,9,14,-2,-9,12,-14,-82,-68,-58,-63,-63
-4,-4,0,4,-2,-2,-19,-82,-78,-68,-68,-68
-4,-9,-4,7,0,-7,-19,-78,-78,-68,-68,-68
-9,-4,4,7,-7,0,-19,-78,-73,-68,-68,-63
-9,-4,4,7,-7,0,-9,-78,-68,-68,-68,-58
-24,-29,-4,26,-9,-17,-9,-78,-78,-78,-78,-73
-39,-58,-19,48,-9,-39,-24,-102,-107,-112,-102,-92
-48,-92,-43,70,-2,-68,-34,-122,-126,-131,-126,-112
-53,-122,-68,87,7,-95,-34,-131,-136,-146,-141,-126
-63,-151,-87,107,12,-119,-34,-131,-136,-151,-156,-136
-73,-165,-92,119,9,-129,-29,-126,-136,-151,-156,-136
-78,-146,-68,112,-4,-107,-19,-126,-126,-151,-156,-141
-82,-141,-58,112,-12,-100,-19,-126,-136,-161,-161,-161
-82,-141,-58,112,-12,-100,-24,-126,-141,-156,-161,-161
-82,-146,-63,114,-9,-104,-24,-136,-146,-161,-165,-161
-82,-146,-63,114,-9,-104,-29,-136,-146,-161,-170,-161
-82,-146,-63,114,-9,-104,-29,-136,-146,-156,-170,-165
-87,-146,-58,117,-14,-102,-29,-136,-156,-161,-170,-165
-87,-151,-63,119,-12,-107,-24,-131,-165,-165,-165,-161
-87,-156,-68,122,-9,-112,-24,-126,-165,-165,-165,-156
-92,-161,-68,126,-12,-114,-19,-126,-161,-165,-165,-156
-87,-161,-73,124,-7,-117,-19,-126,-156,-161,-165,-151
-82,-161,-78,122,-2,-119,-14,-126,-151,-156,-165,-146
-82,-156,-73,119,-4,-114,-9,-117,-141,-156,-170,-146
-82,-165,-82,124,0,-124,-4,-102,-131,-156,-170,-156
-87,-170,-82,129,-2,-126,4,-78,-126,-146,-165,-156
-87,-165,-78,126,-4,-122,24,-24,-82,-112,-151,-156
-82,-136,-53,109,-14,-95,48,53,9,-24,-68,-102
-53,-87,-34,70,-9,-61,68,146,122,87,43,-14
4,-4,-9,0,7,-7,92,268,263,244,200,107
87,122,34,-104,26,78,146,473,478,463,429,287
165,302,136,-234,14,219,190,683,746,771,761,566
307,585,278,-446,14,431,175,849,1063,1176,1200,961
400,819,419,-610,-9,619,131,927,1327,1517,1586,1302
429,912,483,-671,-26,697,53,863,1400,1688,1786,1468
366,907,541,-636,-87,724,-48,546,1220,1586,1712,1434
214,790,575,-502,-180,683,-97,141,771,1098,1180,1058
14,624,610,-319,-297,617,-195,-448,117,405,478,575
-122,463,585,-170,-353,524,-317,-878,-356,-19,73,273
-170,322,492,-75,-331,407,-346,-1029,-595,-278,-200,58
-141,253,395,-56,-268,324,-297,-766,-444,-204,-156,19
-122,180,302,-29,-212,241,-229,-561,-351,-175,-141,-24
-92,102,195,-4,-143,148,-175,-405,-297,-175,-141,-53
-73,34,107,19,-90,70,-117,-302,-268,-180,-156,-78
-73,-4,68,39,-70,31,-82,-229,-224,-165,-161,-92
-73,-43,29,58,-51,-7,-53,-170,-180,-156,-146,-102
-68,-68,0,68,-34,-34,-24,-131,-151,-136,-136,-112
-68,-92,-24,80,-21,-58,-4,-87,-126,-122,-131,-122
-68,-102,-34,85,-17,-68,4,-78,-117,-122,-131,-131
-73,-107,-34,90,-19,-70,4,-73,-122,-126,-136,-131
-73,-107,-34,90,-19,-70,4,-73,-122,-126,-136,-126
-73,-117,-43,95,-14,-80,9,-63,-112,-126,-136,-122
-73,-117,-43,95,-14,-80,14,-58,-112,-122,-136,-122
-68,-117,-48,92,-9,-82,19,-53,-107,-117,-136,-117
-63,-117,-53,90,-4,-85,19,-48,-107,-117,-136,-112
-63,-117,-53,90,-4,-85,19,-43,-102,-117,-131,-112
-58,-117,-58,87,0,-87,19,-34,-87,-112,-126,-107
-53,-117,-63,85,4,-90,19,-24,-82,-107,-122,-107
-53,-117,-63,85,4,-90,19,-19,-82,-102,-117,-102
-48,-112,-63,80,7,-87,19,-14,-82,-102,-112,-97
-43,-112,-68,78,12,-90,24,-4,-78,-97,-107,-97
-43,-107,-63,75,9,-85,24,-4,-78,-97,-107,-92
-39,-107,-68,73,14,-87,24,4,-78,-97,-102,-92
-34,-102,-68,68,17,-85,24,14,-63,-92,-92,-82
-29,-97,-68,63,19,-82,24,24,-53,-87,-82,-78
-24,-97,-73,61,24,-85,24,34,-48,-78,-78,-78
-19,-87,-68,53,24,-78,24,43,-39,-68,-73,-63
-9,-82,-73,46,31,-78,19,53,-24,-53,-63,-58
-4,-78,-73,41,34,-75,14,68,-9,-43,-58,-48
-4,-68,-63,36,29,-65,19,78,0,-29,-48,-39
0,-63,-63,31,31,-63,19,92,14,-24,-39,-34
14,-58,-73,21,43,-65,19,107,19,-14,-24,-24
14,-48,-63,17,39,-56,19,131,24,0,-14,-14
29,-39,-68,4,48,-53,19,146,39,19,0,0
48,-29,-78,-9,63,-53,19,165,63,29,14,14
58,-19,-78,-19,68,-48,19,185,78,48,34,29
73,-14,-87,-29,80,-51,24,209,102,63,53,43
82,-4,-87,-39,85,-46,29,229,122,87,78,63
97,0,-97,-48,97,-48,39,263,146,107,92,78
107,19,-87,-63,97,-34,39,278,165,131,117,92
117,29,-87,-73,102,-29,39,302,185,156,146,117
131,48,-82,-90,107,-17,34,322,204,180,170,131
146,68,-78,-107,112,-4,29,346,224,200,190,151
161,82,-78,-122,119,2,29,346,239,214,209,170
170,92,-78,-131,124,7,29,356,248,234,229,190
180,102,-78,-141,129,12,29,366,258,244,244,209
200,112,-87,-156,143,12,24,375,268,258,258,214
204,122,-82,-163,143,19,19,385,278,268,273,234
214,131,-82,-173,148,24,14,390,287,278,283,248
224,126,-97,-175,161,14,9,390,287,287,297,253
224,126,-97,-175,161,14,9,390,292,287,302,263
229,131,-97,-180,163,17,9,385,292,287,307,263
229,136,-92,-183,161,21,14,370,287,287,307,263
219,136,-82,-178,151,26,4,356,278,283,297,263
209,136,-73,-173,141,31,0,326,268,268,287,258
195,126,-68,-161,131,29,0,302,248,258,263,239
180,117,-63,-148,122,26,0,273,229,239,234,219
156,107,-48,-131,102,29,0,244,209,219,219,200
136,97,-39,-117,87,29,0,204,180,195,185,170
117,78,-39,-97,78,19,0,165,156,165,161,146
97,63,-34,-80,65,14,-4,136,136,141,131,117
73,43,-29,-58,51,7,-4,112,107,107,102,87
48,24,-24,-36,36,0,-4,82,82,87,73,58
34,9,-24,-21,29,-7,0,53,53,63,39,34
14,-9,-24,-2,19,-17,4,29,34,34,14,9
-4,-29,-24,17,9,-26,4,14,4,4,-4,-4
-19,-39,-19,29,0,-29,4,-4,-14,-14,-14,-14
-29,-48,-19,39,-4,-34,4,-19,-29,-29,-34,-24
-39,-63,-24,51,-7,-43,4,-24,-48,-39,-48,-39
-48,-73,-24,61,-12,-48,4,-39,-48,-48,-58,-48
-53,-73,-19,63,-17,-46,0,-48,-53,-53,-68,-58
-53,-78,-24,65,-14,-51,0,-58,-63,-63,-78,-73
-58,-78,-19,68,-19,-48,4,-58,-68,-68,-82,-82
-53,-82,-29,68,-12,-56,0,-58,-73,-68,-92,-82
-53,-78,-24,65,-14,-51,-4,-58,-78,-78,-97,-92
-53,-82,-29,68,-12,-56,-4,-68,-78,-78,-97,-92
-53,-82,-29,68,-12,-56,-4,-68,-78,-78,-97,-92
-53,-82,-29,68,-12,-56,-4,-78,-82,-82,-97,-97
-58,-82,-24,70,-17,-53,0,-78,-82,-87,-102,-97
-58,-82,-24,70,-17,-53,0,-78,-87,-87,-102,-97
-58,-82,-24,70,-17,-53,0,-78,-87,-87,-102,-97
-58,-87,-29,73,-14,-58,0,-78,-87,-87,-102,-97
-58,-92,-34,75,-12,-63,0,-78,-87,-87,-102,-97
-58,-92,-34,75,-12,-63,-4,-73,-82,-87,-102,-92
-58,-92,-34,75,-12,-63,-4,-73,-82,-82,-97,-92
-58,-87,-29,73,-14,-58,-4,-73,-82,-82,-97,-92
-58,-82,-24,70,-17,-53,-4,-73,-82,-82,-97,-92
-53,-82,-29,68,-12,-56,-4,-73,-82,-82,-97,-92
-53,-82,-29,68,-12,-56,-4,-73,-87,-82,-97,-92
-53,-82,-29,68,-12,-56,0,-73,-87,-82,-92,-87
-58,-82,-24,70,-17,-53,0,-73,-82,-82,-92,-87
-58,-87,-29,73,-14,-58,4,-73,-82,-82,-92,-87
-58,-87,-29,73,-14,-58,9,-73,-82,-82,-92,-87
-58,-87,-29,73,-14,-58,9,-73,-82,-82,-92,-87
-58,-87,-29,73,-14,-58,4,-73,-82,-82,-97,-87
-58,-87,-29,73,-14,-58,0,-73,-82,-82,-92,-82
-58,-87,-29,73,-14,-58,-4,-73,-82,-82,-82,-78
-58,-87,-29,73,-14,-58,0,-73,-87,-87,-82,-78
-53,-87,-34,70,-9,-61,0,-73,-87,-87,-87,-78
-53,-82,-29,68,-12,-56,0,-78,-87,-87,-87,-82
-53,-78,-24,65,-14,-51,-4,-78,-87,-87,-87,-82
-53,-82,-29,68,-12,-56,-4,-78,-87,-87,-87,-82
-48,-82,-34,65,-7,-58,-4,-78,-87,-87,-92,-82
-48,-87,-39,68,-4,-63,-4,-78,-92,-92,-92,-82
-48,-92,-43,70,-2,-68,-4,-82,-92,-92,-92,-87
-48,-92,-43,70,-2,-68,-4,-87,-92,-92,-92,-92
-48,-92,-43,70,-2,-68,-4,-87,-97,-92,-97,-97
-53,-92,-39,73,-7,-65,-4,-87,-102,-102,-107,-102
-53,-97,-43,75,-4,-70,-4,-87,-107,-107,-122,-107
-53,-97,-43,75,-4,-70,-4,-87,-107,-107,-122,-107
-58,-97,-39,78,-9,-68,-4,-87,-112,-107,-122,-107
-63,-97,-34,80,-14,-65,-4,-87,-112,-112,-117,-107
-63,-97,-34,80,-14,-65,-4,-92,-117,-117,-117,-107
-63,-97,-34,80,-14,-65,-4,-92,-117,-112,-117,-107
-63,-97,-34,80,-14,-65,-4,-97,-122,-107,-122,-112
-63,-97,-34,80,-14,-65,-4,-102,-117,-112,-122,-112
-68,-97,-29,82,-19,-63,-9,-107,-117,-117,-126,-117
-68,-97,-29,82,-19,-63,-9,-107,-117,-117,-126,-117
-68,-97,-29,82,-19,-63,-9,-107,-117,-117,-126,-117
-68,-102,-34,85,-17,-68,-9,-107,-117,-117,-126,-117
-63,-102,-39,82,-12,-70,-9,-107,-117,-117,-126,-117
-63,-107,-43,85,-9,-75,-14,-107,-117,-117,-131,-122
-58,-102,-43,80,-7,-73,-19,-107,-117,-117,-136,-122
-58,-107,-48,82,-4,-78,-19,-107,-117,-112,-136,-122
-58,-112,-53,85,-2,-82,-14,-102,-117,-112,-136,-122
-58,-107,-48,82,-4,-78,-14,-102,-122,-112,-136,-122
-58,-92,-34,75,-12,-63,0,-92,-112,-97,-126,-117
-53,-68,-14,61,-19,-41,4,-82,-92,-92,-117,-107
-48,-43,4,46,-26,-19,9,-78,-78,-78,-107,-102
-43,-34,9,39,-26,-12,14,-68,-73,-73,-102,-92
-39,-34,4,36,-21,-14,14,-63,-68,-68,-92,-87
-34,-34,0,34,-17,-17,9,-63,-73,-68,-92,-82
-24,-34,-9,29,-7,-21,9,-63,-78,-68,-92,-78
-19,-34,-14,26,-2,-24,4,-63,-78,-63,-92,-78
-14,-19,-4,17,-4,-12,0,-63,-68,-58,-82,-73
-9,4,14,2,-12,9,0,-63,-53,-48,-68,-58
-4,29,34,-12,-19,31,0,-63,-43,-39,-53,-48
-4,34,39,-14,-21,36,-4,-73,-39,-39,-53,-48
4,29,24,-17,-9,26,-14,-82,-48,-48,-63,-53
9,14,4,-12,2,9,-24,-82,-58,-58,-73,-58
14,9,-4,-12,9,2,-29,-78,-58,-58,-78,-58
9,9,0,-9,4,4,-29,-78,-58,-58,-78,-58
9,4,-4,-7,7,0,-19,-78,-58,-58,-78,-58
-4,-19,-14,12,4,-17,-19,-78,-68,-63,-82,-68
-19,-48,-29,34,4,-39,-34,-102,-97,-92,-102,-82
-29,-78,-48,53,9,-63,-43,-126,-122,-112,-126,-102
-34,-102,-68,68,17,-85,-43,-141,-136,-126,-141,-117
-43,-117,-73,80,14,-95,-43,-141,-136,-136,-161,-131
-53,-117,-63,85,4,-90,-39,-136,-136,-141,-165,-136
-63,-117,-53,90,-4,-85,-29,-136,-126,-141,-165,-136
-73,-131,-58,102,-7,-95,-29,-136,-136,-151,-170,-151
-73,-131,-58,102,-7,-95,-34,-136,-141,-151,-165,-151
-73,-136,-63,104,-4,-100,-34,-146,-146,-161,-165,-151
-73,-136,-63,104,-4,-100,-34,-146,-146,-161,-170,-151
-73,-136,-63,104,-4,-100,-29,-146,-146,-156,-170,-156
-78,-136,-58,107,-9,-97,-29,-146,-146,-156,-175,-156
-78,-141,-63,109,-7,-102,-24,-141,-146,-156,-175,-151
-78,-141,-63,109,-7,-102,-24,-136,-146,-161,-175,-151
-82,-141,-58,112,-12,-100,-19,-136,-141,-165,-175,-156
-82,-141,-58,112,-12,-100,-19,-136,-141,-165,-175,-156
-82,-141,-58,112,-12,-100,-14,-136,-141,-165,-175,-156
-82,-141,-58,112,-12,-100,-14,-136,-141,-165,-180,-156
-82,-156,-73,119,-4,-114,-14,-131,-141,-165,-180,-165
-92,-175,-82,134,-4,-129,-9,-122,-151,-175,-185,-165
-97,-185,-87,141,-4,-136,4,-82,-122,-161,-180,-165
-102,-165,-63,134,-19,-114,29,-19,-48,-97,-131,-141
-82,-126,-43,104,-19,-85,48,58,43,-9,-53,-82
-39,-82,-43,61,2,-63,73,161,146,102,48,-14
29,4,-24,-17,26,-9,126,346,322,278,224,112
97,185,87,-141,4,136,195,570,590,566,527,370
229,468,239,-348,-4,353,204,751,907,951,936,746
351,771,419,-561,-34,595,175,893,1273,1415,1459,1200
409,932,522,-671,-56,727,112,893,1449,1708,1795,1478
409,956,546,-683,-68,751,-9,663,1381,1761,1912,1590
322,868,546,-595,-112,707,-78,346,1044,1429,1571,1361
82,692,610,-387,-263,651,-190,-331,297,610,722,790
-92,522,614,-214,-353,568,-326,-849,-268,58,170,400
-156,370,527,-107,-341,448,-366,-1078,-575,-258,-161,136
-141,292,434,-75,-287,363,-326,-893,-492,-244,-175,48
-122,214,336,-46,-229,275,-258,-663,-385,-204,-161,0
-92,131,224,-19,-158,178,-204,-483,-317,-195,-161,-34
-68,58,126,4,-97,92,-141,-366,-292,-200,-170,-73
-63,14,78,24,-70,46,-102,-278,-253,-185,-170,-102
-68,-29,39,48,-53,4,-68,-209,-200,-170,-156,-102
-68,-58,9,63,-39,-24,-34,-161,-161,-146,-146,-102
-68,-82,-14,75,-26,-48,-9,-107,-136,-131,-141,-107
-68,-92,-24,80,-21,-58,4,-87,-126,-131,-141,-112
-73,-97,-24,85,-24,-61,4,-82,-126,-136,-146,-117
-73,-97,-24,85,-24,-61,4,-82,-122,-136,-146,-117
-73,-107,-34,90,-19,-70,9,-68,-107,-136,-146,-117
-73,-107,-34,90,-19,-70,14,-58,-102,-131,-146,-122
-68,-107,-39,87,-14,-73,19,-53,-97,-122,-141,-122
-63,-107,-43,85,-9,-75,19,-48,-97,-117,-136,-122
-63,-107,-43,85,-9,-75,19,-43,-92,-117,-131,-122
-58,-107,-48,82,-4,-78,19,-34,-78,-112,-126,-117
-53,-107,-53,80,0,-80,19,-29,-73,-107,-126,-117
-53,-107,-53,80,0,-80,19,-29,-73,-102,-126,-112
-48,-102,-53,75,2,-78,19,-24,-68,-102,-122,-107
-43,-102,-58,73,7,-80,24,-14,-58,-97,-117,-107
-43,-97,-53,70,4,-75,24,-9,-53,-92,-117,-97
-39,-97,-58,68,9,-78,24,4,-48,-87,-112,-92
-39,-92,-53,65,7,-73,24,14,-34,-82,-102,-82
-39,-87,-48,63,4,-68,24,24,-24,-78,-92,-78
-34,-87,-53,61,9,-70,24,34,-24,-68,-87,-82
-29,-78,-48,53,9,-63,24,43,-19,-58,-82,-73
-19,-73,-53,46,17,-63,24,53,-9,-48,-73,-68
-14,-68,-53,41,19,-61,24,68,0,-43,-68,-58
-9,-58,-48,34,19,-53,34,78,9,-29,-58,-48
0,-53,-53,26,26,-53,39,92,24,-24,-48,-43
14,-48,-63,17,39,-56,39,107,39,-14,-29,-34
14,-39,-53,12,34,-46,39,131,53,0,-14,-24
19,-29,-48,4,34,-39,39,146,68,19,0,-9
29,-19,-48,-4,39,-34,39,165,92,29,14,4
39,-9,-48,-14,43,-29,39,185,107,48,34,24
53,-4,-58,-24,56,-31,43,209,131,63,53,43
68,9,-58,-39,63,-24,43,229,146,92,78,63
87,19,-68,-53,78,-24,48,263,165,117,92,78
102,43,-58,-73,80,-7,48,278,190,136,112,92
117,58,-58,-87,87,0,48,302,214,156,136,117
131,73,-58,-102,95,7,48,322,234,180,161,131
146,87,-58,-117,102,14,48,346,253,200,180,151
161,102,-58,-131,109,21,48,356,273,214,200,170
170,112,-58,-141,114,26,48,375,287,234,219,190
180,122,-58,-151,119,31,43,385,297,244,234,214
200,131,-68,-165,134,31,34,395,307,258,248,224
204,141,-63,-173,134,39,34,409,322,268,273,239
214,151,-63,-183,139,43,34,419,336,278,292,248
224,151,-73,-187,148,39,29,419,336,287,302,258
224,156,-68,-190,146,43,29,419,341,287,302,273
234,161,-73,-197,153,43,24,414,341,287,307,273
239,165,-73,-202,156,46,24,400,336,287,307,273
234,165,-68,-200,151,48,14,385,326,287,297,273
229,165,-63,-197,146,51,9,356,317,278,287,268
214,151,-63,-183,139,43,9,331,292,268,273,253
200,136,-63,-168,131,36,9,302,268,248,253,239
175,126,-48,-151,112,39,9,273,248,229,239,219
156,117,-39,-136,97,39,9,234,219,204,204,190
131,97,-34,-114,82,31,9,195,190,175,180,165
107,82,-24,-95,65,29,4,165,165,151,151,136
82,63,-19,-73,51,21,4,136,136,112,122,112
58,43,-14,-51,36,14,4,102,112,87,92,87
43,29,-14,-36,29,7,4,73,82,63,53,58
24,9,-14,-17,19,-2,4,48,63,34,24,29
4,-9,-14,2,9,-12,4,34,34,4,0,4
-9,-19,-9,14,0,-14,4,14,14,-14,-14,-14
-24,-29,-4,26,-9,-17,4,-4,0,-29,-34,-24
-39,-43,-4,41,-17,-24,4,-14,-19,-39,-48,-39
-48,-58,-9,53,-19,-34,4,-29,-24,-53,-58,-48
-53,-63,-9,58,-21,-36,0,-39,-34,-63,-68,-58
-53,-68,-14,61,-19,-41,0,-53,-48,-73,-78,-73
-58,-68,-9,63,-24,-39,4,-58,-58,-78,-82,-82
-58,-78,-19,68,-19,-48,4,-58,-63,-78,-92,-82
-63,-78,-14,70,-24,-46,4,-58,-68,-87,-97,-92
-58,-82,-24,70,-17,-53,4,-68,-68,-92,-102,-97
-53,-82,-29,68,-12,-56,4,-68,-68,-97,-107,-102
-53,-82,-29,68,-12,-56,0,-78,-73,-102,-107,-107
-58,-82,-24,70,-17,-53,0,-78,-73,-107,-112,-107
-63,-82,-19,73,-21,-51,0,-78,-78,-107,-107,-102
-68,-82,-14,75,-26,-48,0,-78,-78,-107,-102,-97
-68,-82,-14,75,-26,-48,4,-78,-78,-107,-102,-97
-68,-82,-14,75,-26,-48,9,-78,-78,-107,-102,-97
-68,-82,-14,75,-26,-48,4,-73,-73,-107,-102,-92
-68,-82,-14,75,-26,-48,4,-73,-73,-102,-97,-92
-68,-78,-9,73,-29,-43,4,-73,-73,-102,-97,-92
-68,-73,-4,70,-31,-39,4,-73,-73,-102,-97,-92
-63,-73,-9,68,-26,-41,4,-68,-68,-97,-102,-92
-63,-73,-9,68,-26,-41,4,-63,-68,-92,-107,-92
-58,-73,-14,65,-21,-43,4,-63,-68,-92,-102,-87
-58,-73,-14,65,-21,-43,0,-63,-63,-92,-102,-87
-58,-78,-19,68,-19,-48,0,-68,-68,-92,-97,-87
-58,-78,-19,68,-19,-48,0,-73,-73,-92,-92,-87
-58,-78,-19,68,-19,-48,0,-73,-73,-92,-92,-87
-58,-78,-19,68,-19,-48,-4,-73,-73,-92,-97,-87
-58,-78,-19,68,-19,-48,-4,-73,-68,-92,-97,-87
-58,-78,-19,68,-19,-48,-4,-73,-63,-92,-92,-87
-58,-78,-19,68,-19,-48,0,-73,-68,-97,-92,-87
-53,-78,-24,65,-14,-51,0,-73,-68,-97,-97,-87
-53,-78,-24,65,-14,-51,0,-78,-73,-97,-97,-87
-53,-78,-24,65,-14,-51,-4,-78,-78,-97,-97,-82
-58,-82,-24,70,-17,-53,-4,-78,-78,-97,-97,-82
-58,-82,-24,70,-17,-53,-4,-78,-78,-97,-102,-82
-58,-82,-24,70,-17,-53,-4,-78,-82,-102,-102,-82
-58,-82,-24,70,-17,-53,-4,-82,-82,-102,-102,-87
-58,-82,-24,70,-17,-53,-4,-87,-82,-102,-102,-87
-58,-82,-24,70,-17,-53,-4,-87,-87,-102,-107,-87
-63,-82,-19,73,-21,-51,-4,-87,-87,-107,-107,-92
-63,-87,-24,75,-19,-56,-4,-87,-87,-107,-112,-97
-58,-87,-29,73,-14,-58,-4,-87,-87,-102,-112,-97
-58,-87,-29,73,-14,-58,-4,-87,-92,-97,-112,-97
-58,-87,-29,73,-14,-58,-4,-87,-92,-102,-112,-97
-53,-87,-34,70,-9,-61,-4,-92,-97,-107,-117,-97
-53,-87,-34,70,-9,-61,-4,-92,-102,-112,-117,-102
-53,-87,-34,70,-9,-61,-4,-92,-107,-117,-117,-112
-53,-87,-34,70,-9,-61,0,-97,-112,-117,-122,-112
-58,-92,-34,75,-12,-63,0,-97,-112,-117,-122,-112
-58,-87,-29,73,-14,-58,0,-102,-112,-117,-122,-112
-58,-87,-29,73,-14,-58,0,-112,-112,-122,-122,-112
-58,-87,-29,73,-14,-58,0,-112,-112,-122,-122,-112
-58,-87,-29,73,-14,-58,0,-117,-117,-126,-126,-117
-58,-92,-34,75,-12,-63,-4,-117,-117,-126,-131,-117
-58,-97,-39,78,-9,-68,-9,-117,-117,-126,-136,-117
-58,-97,-39,78,-9,-68,-9,-117,-122,-126,-136,-112
-58,-97,-39,78,-9,-68,-9,-112,-122,-126,-136,-112
-58,-102,-43,80,-7,-73,-9,-112,-126,-126,-136,-112
-58,-102,-43,80,-7,-73,-9,-107,-126,-126,-136,-112
-58,-102,-43,80,-7,-73,-9,-107,-126,-122,-131,-112
-58,-102,-43,80,-7,-73,-4,-102,-126,-122,-126,-112
-58,-97,-39,78,-9,-68,-4,-107,-126,-126,-126,-107
-58,-82,-24,70,-17,-53,9,-102,-112,-117,-117,-97
-53,-63,-9,58,-21,-36,14,-92,-102,-112,-112,-92
-48,-43,4,46,-26,-19,19,-87,-97,-97,-107,-92
-43,-29,14,36,-29,-7,24,-78,-87,-92,-102,-82
-39,-24,14,31,-26,-4,24,-73,-78,-87,-92,-78
-34,-24,9,29,-21,-7,19,-68,-78,-87,-92,-78
-24,-24,0,24,-12,-12,19,-63,-78,-87,-92,-78
-19,-29,-9,24,-4,-19,19,-63,-78,-78,-92,-78
-14,-19,-4,17,-4,-12,19,-63,-68,-68,-82,-73
-4,0,4,2,-4,2,14,-63,-58,-58,-73,-58
4,19,14,-12,-4,17,9,-63,-53,-48,-63,-48
4,24,19,-14,-7,21,0,-73,-53,-48,-63,-48
14,19,4,-17,4,12,-14,-82,-68,-58,-73,-53
19,4,-14,-12,17,-4,-24,-87,-78,-68,-78,-58
24,0,-24,-12,24,-12,-29,-87,-78,-68,-78,-58
24,9,-14,-17,19,-2,-29,-87,-73,-63,-73,-53
29,14,-14,-21,21,0,-19,-87,-68,-58,-68,-48
14,-9,-24,-2,19,-17,-14,-78,-78,-68,-73,-63
0,-39,-39,19,19,-39,-24,-92,-107,-102,-92,-82
-14,-63,-48,39,17,-56,-34,-117,-131,-122,-117,-102
-24,-82,-58,53,17,-70,-34,-131,-146,-136,-131,-117
-34,-102,-68,68,17,-85,-34,-136,-151,-146,-151,-126
-43,-107,-63,75,9,-85,-29,-136,-156,-151,-156,-126
-53,-107,-53,80,0,-80,-19,-136,-146,-151,-156,-126
-63,-122,-58,92,-2,-90,-19,-136,-156,-161,-161,-141
-63,-126,-63,95,0,-95,-24,-136,-161,-161,-161,-146
-63,-136,-73,100,4,-104,-24,-146,-165,-170,-165,-151
-63,-136,-73,100,4,-104,-29,-146,-165,-170,-170,-151
-63,-136,-73,100,4,-104,-29,-146,-165,-165,-170,-156
-68,-136,-68,102,0,-102,-29,-146,-165,-165,-170,-156
-68,-141,-73,104,2,-107,-24,-141,-165,-165,-165,-151
-68,-141,-73,104,2,-107,-24,-136,-165,-165,-165,-146
-73,-141,-68,107,-2,-104,-19,-136,-161,-165,-165,-146
-78,-141,-63,109,-7,-102,-19,-136,-161,-165,-165,-146
-82,-141,-58,112,-12,-100,-14,-136,-161,-165,-165,-146
-82,-141,-58,112,-12,-100,-14,-141,-161,-165,-170,-146
-82,-156,-73,119,-4,-114,-14,-141,-161,-165,-170,-156
-87,-165,-78,126,-4,-122,-9,-136,-175,-185,-185,-165
-87,-165,-78,126,-4,-122,4,-102,-151,-180,-190,-175
-97,-161,-63,129,-17,-112,29,-43,-82,-122,-146,-156
-82,-136,-53,109,-14,-95,48,29,4,-39,-73,-102
-53,-107,-53,80,0,-80,63,122,82,43,0,-53
0,-34,-34,17,17,-34,107,297,234,190,146,53
78,126,48,-102,14,87,195,536,492,453,409,268
219,390,170,-305,24,280,224,732,800,814,780,600
361,717,356,-539,2,536,195,907,1185,1293,1332,1083
439,902,463,-671,-12,683,131,941,1381,1600,1698,1390
468,946,478,-707,-4,712,0,746,1381,1737,1908,1571
409,878,468,-644,-29,673,-78,463,1112,1488,1659,1410
161,707,546,-434,-192,627,-200,-244,346,653,800,844
-24,541,566,-258,-295,553,-346,-790,-239,87,239,458
-107,395,502,-143,-305,448,-395,-1093,-614,-283,-136,175
-112,322,434,-104,-273,378,-366,-980,-600,-322,-195,68
-97,239,336,-70,-217,287,-287,-727,-463,-258,-170,19
-73,151,224,-39,-148,187,-224,-522,-366,-224,-161,-14
-53,78,131,-12,-92,104,-156,-395,-326,-224,-170,-58
-53,34,87,9,-70,61,-112,-297,-273,-204,-170,-92
-63,-9,53,36,-58,21,-73,-224,-214,-185,-151,-92
-68,-39,29,53,-48,-4,-34,-170,-170,-156,-136,-92
-68,-63,4,65,-36,-29,-9,-117,-146,-136,-131,-102
-68,-73,-4,70,-31,-39,4,-97,-136,-131,-131,-112
-73,-82,-9,78,-31,-46,4,-92,-136,-136,-136,-117
-73,-87,-14,80,-29,-51,4,-92,-131,-136,-136,-117
-73,-97,-24,85,-24,-61,9,-78,-122,-136,-136,-117
-73,-97,-24,85,-24,-61,14,-68,-122,-131,-136,-122
-68,-97,-29,82,-19,-63,19,-63,-112,-126,-136,-122
-63,-97,-34,80,-14,-65,19,-58,-107,-126,-136,-122
-68,-97,-29,82,-19,-63,19,-53,-102,-126,-131,-122
-68,-97,-29,82,-19,-63,19,-43,-87,-122,-126,-117
-63,-97,-34,80,-14,-65,19,-34,-82,-117,-122,-117
-63,-97,-34,80,-14,-65,19,-29,-82,-112,-117,-112
-58,-92,-34,75,-12,-63,19,-24,-78,-112,-112,-107
-53,-92,-39,73,-7,-65,24,-14,-68,-107,-107,-107
-58,-87,-29,73,-14,-58,29,-9,-68,-102,-107,-102
-58,-87,-29,73,-14,-58,34,4,-68,-97,-102,-102
-53,-82,-29,68,-12,-56,34,14,-53,-92,-97,-92
-48,-78,-29,63,-9,-53,34,24,-43,-87,-92,-87
-43,-82,-39,63,-2,-61,34,34,-43,-78,-87,-87
-39,-78,-39,58,0,-58,34,43,-39,-68,-82,-73
-29,-73,-43,51,7,-58,34,53,-29,-58,-73,-68
-24,-68,-43,46,9,-56,34,68,-19,-53,-68,-58
-19,-58,-39,39,9,-48,39,78,-4,-34,-53,-48
-9,-53,-43,31,17,-48,39,92,14,-24,-39,-43
4,-48,-53,21,29,-51,39,107,24,-14,-19,-34
4,-39,-43,17,24,-41,39,131,34,0,-4,-24
19,-29,-48,4,34,-39,39,146,48,19,9,-9
39,-19,-58,-9,48,-39,39,165,73,29,24,4
48,-4,-53,-21,51,-29,39,185,87,48,39,19
63,4,-58,-34,61,-26,43,209,112,63,53,34
73,19,-53,-46,63,-17,43,229,126,87,78,53
87,29,-58,-58,73,-14,48,263,146,107,92,68
102,48,-53,-75,78,-2,48,278,165,126,112,82
117,58,-58,-87,87,0,48,302,185,146,136,107
136,73,-63,-104,100,4,48,322,204,170,161,122
156,87,-68,-122,112,9,48,346,224,190,180,141
170,102,-68,-136,119,17,48,361,248,209,204,161
180,112,-68,-146,124,21,48,385,268,234,229,180
190,122,-68,-156,129,26,48,400,287,244,244,204
209,131,-78,-170,143,26,43,414,307,258,258,214
214,141,-73,-178,143,34,43,429,317,268,273,229
224,151,-73,-187,148,39,43,439,326,278,283,239
234,151,-82,-192,158,34,39,439,326,287,297,248
234,156,-78,-195,156,39,39,439,331,287,302,263
239,161,-78,-200,158,41,34,434,331,287,307,263
239,165,-73,-202,156,46,34,419,326,287,307,263
234,165,-68,-200,151,48,24,409,317,292,302,268
229,165,-63,-197,146,51,19,385,307,287,297,268
224,156,-68,-190,146,43,19,361,287,283,283,253
219,146,-73,-183,146,36,19,331,268,268,263,239
195,136,-58,-165,126,39,19,302,248,248,248,224
175,126,-48,-151,112,39,19,263,219,224,214,200
151,107,-43,-129,97,31,19,219,190,190,190,175
126,92,-34,-109,80,29,14,185,165,161,161,146
102,73,-29,-87,65,21,9,156,136,126,131,122
78,53,-24,-65,51,14,4,122,112,107,102,97
63,39,-24,-51,43,7,4,87,78,82,63,68
43,19,-24,-31,34,-2,4,58,53,53,34,39
24,0,-24,-12,24,-12,4,39,24,24,4,14
9,-9,-19,0,14,-14,4,14,4,4,-14,-4
0,-19,-19,9,9,-19,4,-4,-14,-14,-34,-19
-9,-34,-24,21,7,-29,4,-14,-39,-29,-48,-39
-24,-43,-19,34,-2,-31,4,-34,-43,-43,-58,-48
-34,-43,-9,39,-12,-26,0,-48,-53,-53,-68,-58
-34,-48,-14,41,-9,-31,-4,-63,-63,-68,-78,-68
-39,-48,-9,43,-14,-29,-4,-68,-68,-78,-82,-73
-39,-58,-19,48,-9,-39,-4,-68,-73,-78,-92,-73
-43,-58,-14,51,-14,-36,-4,-68,-78,-87,-97,-82
-43,-63,-19,53,-12,-41,-4,-73,-78,-87,-102,-82
-43,-63,-19,53,-12,-41,-4,-68,-78,-87,-107,-82
-43,-63,-19,53,-12,-41,-9,-78,-82,-92,-107,-87
-48,-63,-14,56,-17,-39,-9,-78,-82,-97,-112,-87
-48,-63,-14,56,-17,-39,-9,-78,-87,-97,-112,-87
-48,-63,-14,56,-17,-39,-9,-78,-87,-97,-112,-87
-48,-63,-14,56,-17,-39,-9,-78,-87,-97,-112,-87
-48,-63,-14,56,-17,-39,-9,-78,-87,-97,-112,-87
-48,-63,-14,56,-17,-39,-14,-73,-82,-97,-112,-87
-48,-63,-14,56,-17,-39,-14,-73,-82,-92,-107,-92
-48,-63,-14,56,-17,-39,-14,-73,-87,-97,-107,-92
-48,-63,-14,56,-17,-39,-14,-73,-92,-102,-107,-92
-43,-63,-19,53,-12,-41,-19,-73,-92,-102,-107,-92
-43,-63,-19,53,-12,-41,-24,-73,-97,-102,-107,-92
-43,-63,-19,53,-12,-41,-19,-78,-97,-102,-102,-87
-48,-63,-14,56,-17,-39,-19,-82,-92,-102,-102,-87
-48,-68,-19,58,-14,-43,-14,-82,-92,-102,-102,-87
-48,-68,-19,58,-14,-43,-9,-82,-92,-102,-102,-87
-48,-68,-19,58,-14,-43,-9,-82,-92,-102,-102,-87
-48,-68,-19,58,-14,-43,-14,-82,-92,-102,-107,-87
-53,-68,-14,61,-19,-41,-14,-82,-92,-97,-107,-87
-58,-68,-9,63,-24,-39,-14,-82,-92,-92,-102,-87
-58,-68,-9,63,-24,-39,-9,-82,-97,-97,-102,-87
-53,-68,-14,61,-19,-41,-9,-82,-97,-97,-107,-87
-53,-68,-14,61,-19,-41,-9,-87,-92,-97,-107,-92
-53,-68,-14,61,-19,-41,-14,-87,-87,-97,-107,-92
-58,-73,-14,65,-21,-43,-14,-87,-87,-97,-107,-92
-58,-73,-14,65,-21,-43,-14,-87,-87,-97,-112,-92
-53,-73,-19,63,-17,-46,-14,-87,-92,-102,-112,-92
-48,-73,-24,61,-12,-48,-14,-92,-92,-102,-112,-97
-48,-73,-24,61,-12,-48,-14,-97,-92,-102,-112,-97
-48,-73,-24,61,-12,-48,-14,-97,-97,-102,-117,-97
-53,-73,-19,63,-17,-46,-14,-97,-97,-107,-117,-97
-53,-78,-24,65,-14,-51,-14,-97,-97,-107,-122,-97
-48,-78,-29,63,-9,-53,-14,-97,-97,-107,-122,-97
-48,-78,-29,63,-9,-53,-14,-97,-102,-107,-122,-97
-53,-78,-24,65,-14,-51,-14,-97,-102,-112,-122,-97
-53,-78,-24,65,-14,-51,-14,-102,-107,-117,-126,-97
-53,-78,-24,65,-14,-51,-14,-102,-107,-117,-122,-97
-53,-78,-24,65,-14,-51,-14,-102,-107,-117,-117,-102
-53,-78,-24,65,-14,-51,-14,-107,-112,-117,-122,-102
-58,-82,-24,70,-17,-53,-19,-107,-112,-117,-122,-102
-58,-82,-24,70,-17,-53,-19,-107,-112,-117,-122,-107
-58,-82,-24,70,-17,-53,-19,-112,-112,-122,-122,-112
-58,-87,-29,73,-14,-58,-14,-112,-112,-122,-126,-112
-58,-87,-29,73,-14,-58,-14,-112,-112,-122,-131,-112
-58,-87,-29,73,-14,-58,-14,-112,-112,-122,-131,-112
-58,-82,-24,70,-17,-53,-14,-117,-117,-126,-136,-117
-58,-82,-24,70,-17,-53,-14,-117,-117,-126,-136,-122
-58,-87,-29,73,-14,-58,-19,-117,-117,-126,-136,-126
-58,-87,-29,73,-14,-58,-19,-117,-117,-126,-136,-126
-58,-87,-29,73,-14,-58,-19,-117,-117,-126,-136,-126
-58,-87,-29,73,-14,-58,-19,-117,-117,-126,-136,-122
-58,-87,-29,73,-14,-58,-19,-117,-117,-126,-136,-122
-58,-87,-29,73,-14,-58,-19,-117,-117,-126,-136,-122
-58,-82,-24,70,-17,-53,-19,-117,-117,-126,-136,-122
-58,-82,-24,70,-17,-53,-19,-117,-122,-126,-136,-122
-58,-82,-24,70,-17,-53,-14,-112,-126,-131,-136,-122
-58,-78,-19,68,-19,-48,-14,-117,-122,-131,-136,-117
-58,-63,-4,61,-26,-34,0,-112,-102,-117,-126,-107
-53,-48,4,51,-29,-21,4,-102,-92,-112,-117,-97
-48,-34,14,41,-31,-9,9,-97,-87,-97,-107,-92
-43,-24,19,34,-31,-2,14,-82,-82,-92,-102,-82
-39,-24,14,31,-26,-4,14,-73,-78,-87,-92,-78
-34,-19,14,26,-24,-2,9,-73,-78,-87,-97,-78
-24,-14,9,19,-17,-2,9,-73,-78,-87,-102,-78
-19,-14,4,17,-12,-4,4,-73,-78,-82,-102,-78
-14,0,14,7,-14,7,0,-73,-68,-78,-92,-73
-4,24,29,-9,-17,26,-4,-73,-58,-63,-78,-58
4,48,43,-26,-19,46,-9,-73,-53,-48,-63,-48
4,48,43,-26,-19,46,-14,-82,-53,-48,-63,-48
14,39,24,-26,-4,31,-24,-92,-68,-58,-73,-53
14,24,9,-19,2,17,-34,-92,-78,-73,-82,-63
14,19,4,-17,4,12,-39,-87,-78,-78,-87,-68
14,19,4,-17,4,12,-39,-87,-78,-78,-87,-68
19,14,-4,-17,12,4,-29,-87,-78,-78,-87,-68
4,-14,-19,4,12,-17,-29,-87,-82,-82,-92,-82
-9,-48,-39,29,14,-43,-43,-112,-107,-112,-112,-102
-24,-73,-48,48,12,-61,-53,-136,-131,-131,-136,-122
-34,-92,-58,63,12,-75,-53,-151,-146,-146,-151,-136
-43,-107,-63,75,9,-85,-53,-151,-151,-151,-165,-146
-53,-107,-53,80,0,-80,-48,-146,-156,-151,-165,-146
-63,-102,-39,82,-12,-70,-39,-146,-151,-151,-165,-141
-73,-112,-39,92,-17,-75,-39,-146,-165,-161,-170,-151
-78,-112,-34,95,-21,-73,-39,-146,-170,-161,-170,-151
-82,-117,-34,100,-24,-75,-34,-156,-175,-170,-175,-151
-82,-122,-39,102,-21,-80,-39,-156,-175,-170,-180,-156
-82,-126,-43,104,-19,-85,-39,-156,-175,-165,-180,-165
-87,-126,-39,107,-24,-82,-39,-156,-170,-165,-180,-165
-87,-131,-43,109,-21,-87,-34,-151,-165,-165,-175,-161
-87,-131,-43,109,-21,-87,-34,-141,-165,-165,-175,-156
-92,-131,-39,112,-26,-85,-29,-136,-161,-165,-175,-156
-92,-131,-39,112,-26,-85,-29,-136,-161,-165,-175,-156
-92,-131,-39,112,-26,-85,-24,-136,-161,-165,-175,-156
-92,-131,-39,112,-26,-85,-24,-136,-161,-170,-180,-156
-92,-146,-53,119,-19,-100,-24,-131,-161,-175,-180,-165
-102,-156,-53,129,-24,-104,-14,-107,-156,-175,-180,-165
-107,-156,-48,131,-29,-102,4,-53,-112,-151,-170,-165
-107,-136,-29,122,-39,-82,34,14,-34,-78,-112,-136
-82,-97,-14,90,-34,-56,58,97,63,19,-24,-73
-34,-34,0,34,-17,-17,82,219,180,141,92,19
39,73,34,-56,2,53,136,424,370,326,283,170
126,253,126,-190,0,190,195,634,639,614,585,424
278,536,258,-407,9,397,195,800,956,1000,995,795
385,795,409,-590,-12,602,146,888,1229,1366,1424,1176
429,912,483,-671,-26,697,63,834,1312,1561,1668,1381
400,902,502,-651,-51,702,-68,546,1166,1512,1683,1415
283,780,497,-531,-107,639,-146,170,751,1078,1239,1107
73,619,546,-346,-236,583,-248,-463,78,356,492,614
-73,463,536,-195,-305,500,-375,-936,-414,-97,43,302
-141,326,468,-92,-305,397,-390,-1093,-658,-351,-224,82
-131,263,395,-65,-263,329,-326,-834,-512,-273,-175,39
-117,190,307,-36,-212,248,-258,-614,-405,-234,-161,-4
-92,112,204,-9,-148,158,-204,-444,-336,-224,-161,-34
-73,39,112,17,-92,75,-141,-331,-297,-219,-170,-68
-73,-4,68,39,-70,31,-102,-248,-244,-195,-170,-92
-82,-43,39,63,-61,-2,-63,-185,-195,-180,-156,-92
-87,-68,19,78,-53,-24,-24,-141,-161,-156,-146,-92
-87,-87,0,87,-43,-43,-4,-92,-136,-136,-141,-102
-87,-92,-4,90,-41,-48,4,-78,-126,-131,-141,-112
-92,-97,-4,95,-43,-51,4,-73,-126,-136,-146,-117
-92,-97,-4,95,-43,-51,4,-73,-122,-136,-146,-117
-92,-107,-14,100,-39,-61,9,-58,-112,-136,-141,-117
-92,-107,-14,100,-39,-61,14,-48,-112,-131,-136,-122
-87,-107,-19,97,-34,-63,19,-43,-107,-126,-136,-122
-82,-107,-24,95,-29,-65,19,-39,-107,-126,-136,-122
-82,-107,-24,95,-29,-65,19,-34,-102,-126,-131,-117
-78,-107,-29,92,-24,-68,19,-24,-87,-122,-126,-107
-73,-107,-34,90,-19,-70,19,-19,-82,-117,-122,-107
-73,-107,-34,90,-19,-70,19,-19,-82,-112,-117,-102
-68,-102,-34,85,-17,-68,19,-14,-78,-107,-112,-97
-63,-102,-39,82,-12,-70,24,-4,-68,-97,-107,-97
-63,-97,-34,80,-14,-65,29,-4,-68,-92,-107,-92
-58,-97,-39,78,-9,-68,34,4,-68,-87,-102,-92
-53,-92,-39,73,-7,-65,34,19,-53,-82,-92,-82
-48,-87,-39,68,-4,-63,34,34,-43,-78,-82,-78
-43,-87,-43,65,0,-65,34,43,-39,-73,-78,-78
-39,-78,-39,58,0,-58,34,53,-29,-68,-73,-63
-29,-78,-48,53,9,-63,34,63,-19,-58,-68,-63
-24,-78,-53,51,14,-65,34,78,-9,-53,-68,-58
-19,-68,-48,43,14,-58,39,87,0,-39,-58,-48
-9,-63,-53,36,21,-58,39,102,14,-34,-48,-43
9,-53,-63,21,36,-58,39,117,24,-24,-29,-34
14,-39,-53,12,34,-46,39,141,34,-9,-14,-24
24,-29,-53,2,39,-41,39,156,48,9,0,-9
39,-19,-58,-9,48,-39,39,175,73,19,14,4
48,-9,-58,-19,53,-34,39,204,87,39,34,19
63,-4,-68,-29,65,-36,43,239,112,53,53,34
78,14,-63,-46,70,-24,43,248,126,78,78,53
97,29,-68,-63,82,-19,48,273,146,97,92,68
112,48,-63,-80,87,-7,48,287,165,117,112,82
126,58,-68,-92,97,-4,48,312,185,136,136,107
141,73,-68,-107,104,2,48,331,204,165,161,122
156,87,-68,-122,112,9,48,356,224,190,180,141
170,102,-68,-136,119,17,48,370,253,204,200,161
180,112,-68,-146,124,21,48,395,278,224,219,180
195,122,-73,-158,134,24,48,405,287,234,234,200
219,131,-87,-175,153,21,43,414,297,248,248,204
224,141,-82,-183,153,29,43,424,307,258,268,219
234,151,-82,-192,158,34,43,429,317,268,283,229
244,151,-92,-197,168,29,39,429,317,278,292,234
244,156,-87,-200,165,34,39,429,322,278,292,244
248,161,-87,-204,168,36,34,424,322,278,297,244
248,165,-82,-207,165,41,34,409,317,278,297,244
244,165,-78,-204,161,43,24,395,307,278,292,248
239,165,-73,-202,156,46,19,366,297,268,287,248
224,156,-68,-190,146,43,19,341,278,253,273,234
209,146,-63,-178,136,41,19,312,258,229,253,219
180,131,-48,-156,114,41,14,278,234,209,234,200
156,117,-39,-136,97,39,9,234,200,185,195,170
136,97,-39,-117,87,29,9,195,165,156,170,146
117,82,-34,-100,75,24,4,165,136,131,141,117
92,63,-29,-78,61,17,4,136,107,97,112,92
68,43,-24,-56,46,9,4,102,82,78,82,68
53,29,-24,-41,39,2,4,73,53,53,48,43
34,9,-24,-21,29,-7,4,48,34,24,24,19
14,-9,-24,-2,19,-17,4,29,9,0,0,-4
0,-19,-19,9,9,-19,4,4,-4,-14,-14,-24
-9,-24,-14,17,2,-19,4,-14,-19,-34,-34,-34
-19,-34,-14,26,-2,-24,4,-24,-39,-48,-48,-48
-29,-43,-14,36,-7,-29,4,-39,-43,-63,-58,-58
-34,-43,-9,39,-12,-26,0,-48,-53,-73,-68,-68
-34,-53,-19,43,-7,-36,0,-58,-63,-78,-78,-78
-39,-58,-19,48,-9,-39,4,-58,-68,-78,-82,-82
-39,-68,-29,53,-4,-48,0,-63,-78,-78,-92,-82
-43,-68,-24,56,-9,-46,-4,-68,-87,-87,-97,-92
-43,-73,-29,58,-7,-51,-4,-78,-87,-92,-102,-92
-43,-73,-29,58,-7,-51,-4,-78,-87,-97,-107,-92
-43,-73,-29,58,-7,-51,-9,-82,-92,-102,-107,-97
-48,-73,-24,61,-12,-48,-9,-78,-92,-107,-112,-97
-48,-73,-24,61,-12,-48,-9,-78,-97,-107,-112,-102
-48,-73,-24,61,-12,-48,-9,-78,-97,-107,-112,-107
-48,-73,-24,61,-12,-48,-9,-82,-97,-107,-112,-107
-48,-73,-24,61,-12,-48,-9,-87,-97,-107,-112,-107
-48,-73,-24,61,-12,-48,-14,-82,-92,-107,-107,-97
-48,-73,-24,61,-12,-48,-14,-82,-92,-102,-97,-92
-48,-73,-24,61,-12,-48,-14,-82,-92,-102,-97,-92
-48,-73,-24,61,-12,-48,-14,-82,-92,-102,-97,-92
-43,-68,-24,56,-9,-46,-14,-82,-92,-102,-97,-92
-43,-63,-19,53,-12,-41,-14,-82,-97,-102,-97,-92
-43,-63,-19,53,-12,-41,-9,-82,-97,-102,-97,-87
-48,-63,-14,56,-17,-39,-9,-82,-92,-102,-102,-87
-48,-68,-19,58,-14,-43,-9,-82,-92,-102,-102,-87
-48,-68,-19,58,-14,-43,-9,-82,-92,-102,-102,-87
-48,-68,-19,58,-14,-43,-4,-82,-92,-102,-102,-87
-48,-68,-19,58,-14,-43,-4,-82,-92,-102,-107,-87
-48,-68,-19,58,-14,-43,-4,-78,-87,-97,-107,-87
-48,-68,-19,58,-14,-43,-4,-73,-82,-92,-102,-87
-48,-73,-24,61,-12,-48,0,-73,-87,-97,-102,-87
-43,-78,-34,61,-4,-56,0,-73,-87,-97,-107,-87
-43,-78,-34,61,-4,-56,0,-82,-92,-102,-107,-92
-43,-78,-34,61,-4,-56,-4,-87,-97,-107,-107,-92
-48,-78,-29,63,-9,-53,-9,-87,-97,-107,-107,-92
-48,-73,-24,61,-12,-48,-14,-87,-97,-107,-112,-92
-48,-73,-24,61,-12,-48,-14,-87,-102,-112,-112,-92
-48,-73,-24,61,-12,-48,-14,-92,-102,-112,-112,-97
-48,-73,-24,61,-12,-48,-14,-97,-102,-112,-107,-97
-48,-73,-24,61,-12,-48,-14,-97,-107,-112,-107,-97
-53,-73,-19,63,-17,-46,-14,-97,-107,-117,-107,-102
-53,-78,-24,65,-14,-51,-14,-97,-107,-117,-112,-107
-48,-78,-29,63,-9,-53,-14,-97,-102,-117,-117,-107
-48,-78,-29,63,-9,-53,-14,-97,-102,-117,-122,-107
-53,-78,-24,65,-14,-51,-14,-97,-102,-122,-122,-107
-53,-78,-24,65,-14,-51,-14,-102,-107,-126,-126,-107
-53,-78,-24,65,-14,-51,-14,-102,-112,-126,-122,-102
-53,-78,-24,65,-14,-51,-14,-102,-117,-126,-117,-102
-53,-78,-24,65,-14,-51,-9,-107,-122,-126,-122,-102
-58,-82,-24,70,-17,-53,-9,-107,-122,-126,-122,-102
-63,-82,-19,73,-21,-51,-9,-102,-117,-122,-122,-107
-68,-82,-14,75,-26,-48,-9,-102,-112,-122,-122,-112
-68,-87,-19,78,-24,-53,-4,-102,-112,-122,-117,-112
-68,-87,-19,78,-24,-53,-4,-102,-112,-122,-112,-112
-68,-87,-19,78,-24,-53,-4,-102,-112,-122,-112,-112
-68,-87,-19,78,-24,-53,-9,-107,-117,-126,-117,-117
-68,-87,-19,78,-24,-53,-9,-107,-117,-126,-117,-117
-68,-87,-19,78,-24,-53,-9,-107,-117,-126,-117,-117
-68,-87,-19,78,-24,-53,-9,-107,-122,-126,-122,-122
-68,-87,-19,78,-24,-53,-9,-107,-122,-126,-122,-126
-68,-87,-19,78,-24,-53,-9,-107,-126,-126,-126,-131
-68,-82,-14,75,-26,-48,-9,-107,-126,-126,-126,-131
-68,-87,-19,78,-24,-53,-14,-112,-126,-122,-126,-126
-68,-92,-24,80,-21,-58,-14,-112,-126,-122,-126,-122
-68,-87,-19,78,-24,-53,-14,-112,-122,-126,-131,-117
-68,-73,-4,70,-31,-39,0,-102,-102,-117,-126,-107
-63,-53,9,58,-36,-21,4,-87,-92,-112,-117,-97
-58,-34,24,46,-41,-4,9,-78,-87,-97,-107,-92
-53,-24,29,39,-41,2,24,-68,-82,-92,-97,-82
-48,-24,24,36,-36,0,34,-63,-78,-87,-82,-78
-43,-29,14,36,-29,-7,29,-58,-73,-87,-82,-78
-34,-34,0,34,-17,-17,29,-53,-68,-87,-82,-78
-34,-34,0,34,-17,-17,24,-53,-63,-78,-82,-78
-34,-19,14,26,-24,-2,19,-53,-48,-68,-73,-73
-24,0,24,12,-24,12,14,-53,-39,-58,-63,-58
-14,19,34,-2,-24,26,9,-53,-34,-48,-53,-48
-14,19,34,-2,-24,26,4,-63,-34,-48,-53,-43
-4,9,14,-2,-9,12,-4,-73,-48,-58,-63,-43
0,-4,-4,2,2,-4,-14,-73,-53,-68,-68,-48
4,-9,-14,2,9,-12,-19,-68,-48,-68,-68,-48
0,-4,-4,2,2,-4,-19,-68,-43,-63,-63,-43
0,-4,-4,2,2,-4,-9,-68,-39,-58,-58,-39
-14,-29,-14,21,0,-21,-9,-68,-48,-68,-68,-53
-29,-58,-29,43,0,-43,-24,-92,-78,-102,-92,-73
-39,-82,-43,61,2,-63,-34,-117,-107,-122,-117,-102
-43,-102,-58,73,7,-80,-34,-131,-126,-136,-131,-126
-53,-117,-63,85,4,-90,-34,-131,-126,-141,-146,-136
-63,-117,-53,90,-4,-85,-29,-126,-126,-141,-146,-136
-73,-117,-43,95,-14,-80,-14,-126,-117,-141,-146,-131
-82,-131,-48,107,-17,-90,-9,-126,-126,-151,-151,-141
-87,-136,-48,112,-19,-92,-14,-126,-131,-151,-151,-141
-92,-146,-53,119,-19,-100,-14,-136,-136,-161,-156,-141
-92,-146,-53,119,-19,-100,-19,-141,-141,-161,-161,-141
-92,-146,-53,119,-19,-100,-19,-146,-146,-156,-161,-146
-97,-141,-43,119,-26,-92,-19,-146,-146,-156,-161,-146
-97,-141,-43,119,-26,-92,-14,-141,-146,-156,-156,-141
-92,-141,-48,117,-21,-95,-19,-136,-141,-156,-161,-141
-92,-141,-48,117,-21,-95,-19,-136,-131,-156,-165,-146
-92,-136,-43,114,-24,-90,-19,-136,-131,-156,-165,-146
-92,-131,-39,112,-26,-85,-14,-136,-131,-156,-165,-146
-92,-131,-39,112,-26,-85,-9,-136,-131,-156,-170,-146
-92,-146,-53,119,-19,-100,-4,-131,-131,-156,-170,-156
-97,-161,-63,129,-17,-112,4,-117,-131,-165,-175,-165
-97,-165,-68,131,-14,-117,24,-73,-92,-151,-170,-175
-102,-151,-48,126,-26,-100,43,-9,-24,-87,-122,-151
-82,-117,-34,100,-24,-75,58,68,63,0,-43,-92
-34,-73,-39,53,2,-56,73,170,151,97,48,-19
39,14,-24,-26,31,-4,117,356,312,258,214,112
122,185,63,-153,29,124,185,575,561,522,497,346
268,458,190,-363,39,324,195,751,858,883,888,697
395,751,356,-573,19,553,170,917,1229,1332,1390,1141
458,902,444,-680,7,673,112,941,1410,1610,1708,1410
448,932,483,-690,-17,707,0,717,1351,1664,1820,1512
351,849,497,-600,-73,673,-58,405,1024,1332,1473,1273
102,688,585,-395,-241,636,-161,-302,297,561,678,746
-82,531,614,-224,-348,573,-287,-849,-248,58,180,400
-156,370,527,-107,-341,448,-336,-1078,-570,-253,-146,136
-151,283,434,-65,-292,358,-307,-893,-502,-234,-156,48
-131,204,336,-36,-234,270,-239,-658,-380,-195,-141,4
-102,122,224,-9,-163,173,-185,-473,-297,-185,-141,-24
-87,39,126,24,-107,82,-122,-346,-263,-190,-151,-58
-92,-14,78,53,-85,31,-82,-248,-214,-175,-151,-82
-97,-58,39,78,-68,-9,-53,-185,-170,-161,-136,-82
-97,-87,9,92,-53,-39,-24,-141,-141,-136,-126,-82
-92,-117,-24,104,-34,-70,-4,-87,-117,-122,-122,-97
-87,-131,-43,109,-21,-87,4,-68,-107,-122,-122,-112
-92,-136,-43,114,-24,-90,14,-63,-102,-126,-126,-117
-92,-136,-43,114,-24,-90,24,-63,-92,-126,-126,-117
-92,-146,-53,119,-19,-100,29,-48,-82,-126,-126,-117
-92,-146,-53,119,-19,-100,34,-39,-82,-122,-126,-122
-87,-146,-58,117,-14,-102,34,-34,-78,-117,-126,-122
-82,-146,-63,114,-9,-104,29,-29,-78,-117,-126,-122
-82,-146,-63,114,-9,-104,29,-24,-73,-117,-122,-117
-78,-146,-68,112,-4,-107,29,-14,-58,-112,-117,-107
-68,-146,-78,107,4,-112,29,-4,-53,-102,-112,-107
-63,-146,-82,104,9,-114,29,0,-53,-92,-107,-102
-58,-136,-78,97,9,-107,24,4,-48,-92,-102,-97
-53,-131,-78,92,12,-104,24,14,-39,-87,-97,-97
-53,-126,-73,90,9,-100,24,9,-39,-82,-97,-92
-48,-126,-78,87,14,-102,24,14,-39,-78,-92,-92
-43,-117,-73,80,14,-95,24,24,-24,-73,-82,-78
-39,-107,-68,73,14,-87,24,34,-14,-68,-73,-68
-34,-107,-73,70,19,-90,24,43,-14,-58,-68,-68
-29,-97,-68,63,19,-82,24,53,-9,-48,-63,-53
-19,-92,-73,56,26,-82,24,63,0,-39,-53,-48
-14,-87,-73,51,29,-80,24,78,9,-34,-48,-39
-9,-78,-68,43,29,-73,29,87,19,-19,-39,-29
0,-73,-73,36,36,-73,29,102,34,-14,-29,-24
19,-68,-87,24,53,-78,29,112,39,-9,-14,-19
24,-58,-82,17,53,-70,29,131,43,0,-4,-14
34,-43,-78,4,56,-61,29,146,58,19,4,0
48,-29,-78,-9,63,-53,29,165,82,29,14,14
58,-19,-78,-19,68,-48,29,185,97,43,34,24
73,-14,-87,-29,80,-51,34,209,122,53,53,34
82,-4,-87,-39,85,-46,34,229,136,78,78,53
97,0,-97,-48,97,-48,39,263,156,97,92,68
112,19,-92,-65,102,-36,34,278,175,117,107,82
126,29,-97,-78,112,-34,29,302,195,136,126,107
146,48,-97,-97,122,-24,24,322,214,161,151,122
165,68,-97,-117,131,-14,19,346,234,180,170,141
180,82,-97,-131,139,-7,19,356,253,200,195,161
190,92,-97,-141,143,-2,19,375,268,224,219,180
200,107,-92,-153,146,7,19,385,283,234,234,204
219,122,-97,-170,158,12,14,395,297,248,248,214
224,131,-92,-178,158,19,14,405,307,258,268,229
234,141,-92,-187,163,24,14,409,317,268,283,239
244,141,-102,-192,173,19,9,414,317,278,292,244
244,146,-97,-195,170,24,9,419,322,278,292,253
248,151,-97,-200,173,26,9,414,322,278,297,253
248,156,-92,-202,170,31,14,400,317,278,297,253
244,156,-87,-200,165,34,4,385,312,278,292,258
239,156,-82,-197,161,36,0,356,307,268,287,258
224,151,-73,-187,148,39,0,331,287,258,273,244
209,146,-63,-178,136,41,0,302,268,239,253,229
185,136,-48,-161,117,43,0,273,248,224,239,209
165,126,-39,-146,102,43,0,234,219,204,204,180
146,102,-43,-124,95,29,0,195,190,175,180,156
126,82,-43,-104,85,19,-4,165,165,151,151,126
102,63,-39,-82,70,12,-4,136,136,117,122,102
78,43,-34,-61,56,4,-4,102,112,97,92,78
63,34,-29,-48,46,2,-4,68,82,73,58,48
43,19,-24,-31,34,-2,-4,39,63,43,34,19
24,0,-24,-12,24,-12,-4,24,39,14,9,-4
9,-9,-19,0,14,-14,-4,4,24,-4,-4,-24
0,-19,-19,9,9,-19,-9,-14,4,-19,-29,-39
-9,-34,-24,21,7,-29,-14,-24,-19,-29,-48,-58
-24,-43,-19,34,-2,-31,-14,-39,-24,-43,-63,-68
-34,-43,-9,39,-12,-26,-19,-48,-34,-53,-78,-78
-34,-48,-14,41,-9,-31,-19,-58,-53,-68,-87,-82
-39,-48,-9,43,-14,-29,-14,-58,-68,-78,-92,-82
-39,-63,-24,51,-7,-43,-14,-58,-73,-78,-97,-82
-43,-68,-24,56,-9,-46,-14,-58,-78,-87,-97,-92
-43,-73,-29,58,-7,-51,-14,-68,-78,-87,-97,-92
-43,-73,-29,58,-7,-51,-14,-68,-78,-87,-97,-92
-43,-68,-24,56,-9,-46,-19,-78,-82,-92,-97,-97
-48,-63,-14,56,-17,-39,-19,-78,-82,-97,-102,-97
-48,-63,-14,56,-17,-39,-19,-78,-82,-97,-102,-97
-48,-63,-14,56,-17,-39,-19,-78,-78,-97,-102,-97
-48,-63,-14,56,-17,-39,-14,-78,-78,-97,-107,-102
-48,-63,-14,56,-17,-39,-9,-78,-78,-97,-112,-107
-48,-63,-14,56,-17,-39,-14,-78,-73,-97,-112,-102
-48,-63,-14,56,-17,-39,-14,-82,-73,-92,-107,-102
-48,-58,-9,53,-19,-34,-19,-82,-73,-92,-107,-102
-48,-53,-4,51,-21,-29,-24,-82,-73,-92,-107,-102
-43,-53,-9,48,-17,-31,-24,-82,-73,-92,-107,-107
-43,-53,-9,48,-17,-31,-24,-82,-78,-92,-107,-112
-43,-53,-9,48,-17,-31,-19,-82,-82,-92,-102,-107
-48,-53,-4,51,-21,-29,-19,-82,-82,-92,-102,-107
-48,-58,-9,53,-19,-34,-19,-78,-82,-92,-102,-102
-48,-58,-9,53,-19,-34,-19,-73,-82,-92,-102,-97
-48,-53,-4,51,-21,-29,-19,-73,-87,-97,-102,-97
-48,-48,0,48,-24,-24,-24,-73,-92,-102,-107,-97
-48,-48,0,48,-24,-24,-24,-78,-92,-102,-107,-97
-48,-48,0,48,-24,-24,-24,-82,-92,-102,-102,-97
-48,-53,-4,51,-21,-29,-19,-82,-97,-102,-102,-92
-43,-58,-14,51,-14,-36,-19,-82,-97,-97,-107,-87
-43,-58,-14,51,-14,-36,-19,-87,-97,-97,-107,-92
-43,-58,-14,51,-14,-36,-24,-87,-97,-97,-107,-92
-48,-63,-14,56,-17,-39,-24,-87,-97,-97,-102,-92
-48,-63,-14,56,-17,-39,-24,-87,-97,-97,-102,-92
-48,-68,-19,58,-14,-43,-19,-82,-102,-97,-102,-92
-48,-73,-24,61,-12,-48,-14,-82,-102,-92,-102,-97
-48,-78,-29,63,-9,-53,-14,-87,-97,-92,-102,-97
-48,-82,-34,65,-7,-58,-14,-87,-97,-92,-107,-97
-58,-87,-29,73,-14,-58,-9,-87,-97,-97,-107,-102
-63,-97,-34,80,-14,-65,-4,-87,-97,-97,-112,-107
-58,-97,-39,78,-9,-68,-4,-82,-92,-97,-107,-102
-58,-97,-39,78,-9,-68,-4,-78,-92,-97,-102,-97
-63,-97,-34,80,-14,-65,-4,-78,-92,-102,-102,-97
-63,-97,-34,80,-14,-65,-4,-82,-97,-107,-107,-97
-63,-97,-34,80,-14,-65,-4,-82,-97,-112,-117,-102
-63,-97,-34,80,-14,-65,-4,-82,-97,-117,-126,-112
-63,-97,-34,80,-14,-65,-4,-87,-102,-117,-131,-112
-68,-102,-34,85,-17,-68,-9,-87,-102,-117,-131,-112
-68,-107,-39,87,-14,-73,-9,-82,-97,-112,-122,-107
-68,-117,-48,92,-9,-82,-9,-82,-92,-112,-112,-102
-68,-117,-48,92,-9,-82,-4,-82,-92,-107,-107,-102
-68,-117,-48,92,-9,-82,0,-87,-97,-107,-107,-107
-68,-122,-53,95,-7,-87,0,-87,-102,-107,-107,-107
-68,-126,-58,97,-4,-92,0,-87,-107,-107,-107,-107
-68,-126,-58,97,-4,-92,0,-87,-107,-107,-112,-107
-68,-126,-58,97,-4,-92,0,-87,-107,-107,-117,-107
-68,-131,-63,100,-2,-97,0,-87,-102,-107,-117,-107
-68,-136,-68,102,0,-102,0,-82,-97,-107,-112,-107
-68,-141,-73,104,2,-107,4,-82,-97,-107,-112,-107
-68,-151,-82,109,7,-117,9,-78,-97,-102,-107,-102
-68,-151,-82,109,7,-117,14,-73,-97,-102,-107,-102
-68,-146,-78,107,4,-112,14,-73,-92,-102,-107,-97
-68,-131,-63,100,-2,-97,29,-63,-73,-87,-97,-92
-63,-112,-48,87,-7,-80,34,-53,-63,-82,-87,-87
-58,-92,-34,75,-12,-63,39,-48,-58,-68,-78,-82
-53,-82,-29,68,-12,-56,43,-39,-53,-63,-73,-73
-48,-82,-34,65,-7,-58,43,-34,-48,-58,-63,-63
-43,-82,-39,63,-2,-61,39,-34,-48,-58,-63,-58
-34,-78,-43,56,4,-61,39,-39,-43,-58,-63,-58
-29,-73,-43,51,7,-58,34,-43,-39,-53,-63,-58
-24,-53,-29,39,2,-41,29,-43,-29,-48,-58,-58
-14,-29,-14,21,0,-21,24,-43,-19,-39,-53,-48
-4,-9,-4,7,0,-7,19,-43,-19,-29,-43,-39
-4,-9,-4,7,0,-7,14,-53,-24,-29,-43,-39
4,-19,-24,7,14,-21,9,-58,-39,-39,-48,-39
4,-34,-39,14,21,-36,9,-53,-48,-48,-48,-39
4,-34,-39,14,21,-36,9,-48,-48,-48,-48,-39
0,-29,-29,14,14,-29,9,-48,-48,-48,-48,-39
0,-34,-34,17,17,-34,14,-53,-48,-48,-48,-39
-14,-58,-43,36,14,-51,9,-58,-58,-58,-58,-53
-29,-87,-58,58,14,-73,-4,-82,-87,-92,-82,-78
-39,-112,-73,75,17,-92,-14,-107,-112,-112,-107,-102
-39,-126,-87,82,24,-107,-14,-122,-126,-126,-122,-117
-43,-136,-92,90,24,-114,-14,-122,-126,-131,-136,-126
-53,-136,-82,95,14,-109,-9,-112,-126,-126,-136,-122
-63,-136,-73,100,4,-104,0,-107,-117,-122,-136,-117
-73,-151,-78,112,2,-114,0,-107,-126,-131,-141,-131
-73,-151,-78,112,2,-114,-4,-107,-131,-131,-141,-131
-73,-151,-78,112,2,-114,-4,-117,-136,-141,-146,-131
-73,-146,-73,109,0,-109,-9,-117,-136,-141,-151,-131
-73,-146,-73,109,0,-109,-9,-117,-136,-136,-151,-136
-78,-146,-68,112,-4,-107,-9,-117,-136,-136,-151,-136
-78,-156,-78,117,0,-117,-4,-112,-136,-136,-146,-136
-78,-161,-82,119,2,-122,-4,-107,-136,-136,-146,-141
-82,-161,-78,122,-2,-119,0,-107,-131,-136,-146,-146
-82,-161,-78,122,-2,-119,0,-107,-131,-136,-146,-146
-82,-161,-78,122,-2,-119,4,-107,-131,-146,-146,-146
-82,-161,-78,122,-2,-119,4,-107,-131,-156,-151,-146
-82,-175,-92,129,4,-134,9,-92,-117,-141,-151,-151
-87,-185,-97,136,4,-141,24,-58,-97,-126,-151,-146
-78,-180,-102,129,12,-141,43,4,-43,-82,-112,-131
-68,-156,-87,112,9,-122,68,82,43,9,-19,-82
-43,-102,-58,73,7,-80,87,180,161,126,92,9
4,-24,-29,9,17,-26,112,312,292,268,229,126
97,112,14,-104,41,63,156,502,497,492,473,326
195,322,126,-258,34,224,204,702,785,819,829,634
312,561,248,-436,31,405,204,849,1083,1176,1200,976
395,780,385,-588,4,583,161,927,1361,1542,1620,1342
405,883,478,-644,-36,680,87,834,1381,1639,1751,1449
341,863,522,-602,-90,692,-19,507,1161,1478,1625,1366
214,751,536,-483,-161,644,-73,122,746,1068,1180,1058
-19,590,610,-285,-314,600,-170,-531,43,336,419,541
-141,434,575,-146,-358,505,-292,-893,-370,-48,39,248
-156,292,448,-68,-302,370,-317,-951,-536,-234,-165,63
-131,229,361,-48,-246,295,-268,-732,-419,-190,-136,19
-112,161,273,-24,-192,217,-200,-536,-326,-165,-122,-14
-82,82,165,0,-124,124,-146,-380,-273,-165,-126,-43
-63,9,73,26,-68,41,-82,-283,-253,-175,-141,-78
-63,-24,39,43,-51,7,-53,-204,-204,-156,-141,-97
-68,-53,14,61,-41,-19,-34,-146,-161,-141,-126,-92
-68,-78,-9,73,-29,-43,-4,-102,-131,-122,-117,-92
-68,-102,-34,85,-17,-68,14,-58,-107,-112,-112,-102
-63,-112,-48,87,-7,-80,24,-58,-107,-112,-112,-112
-63,-117,-53,90,-4,-85,24,-63,-117,-117,-117,-117
-63,-112,-48,87,-7,-80,19,-63,-112,-117,-122,-117
-63,-117,-53,90,-4,-85,19,-48,-102,-117,-126,-112
-63,-117,-53,90,-4,-85,24,-39,-97,-112,-126,-112
-58,-117,-58,87,0,-87,29,-34,-87,-107,-126,-112
-53,-117,-63,85,4,-90,29,-29,-87,-107,-126,-112
-53,-117,-63,85,4,-90,29,-24,-82,-107,-122,-112
-53,-117,-63,85,4,-90,29,-14,-68,-102,-112,-107
-53,-117,-63,85,4,-90,29,-4,-63,-97,-102,-107
-53,-117,-63,85,4,-90,24,0,-68,-92,-97,-97
-48,-112,-63,80,7,-87,19,4,-68,-92,-92,-87
-39,-107,-68,73,14,-87,24,14,-63,-92,-92,-87
-34,-97,-63,65,14,-80,24,14,-68,-92,-97,-82
-29,-97,-68,63,19,-82,24,24,-68,-87,-92,-87
-24,-92,-68,58,21,-80,24,34,-53,-82,-82,-82
-19,-87,-68,53,24,-78,24,43,-43,-78,-73,-78
-14,-87,-73,51,29,-80,24,53,-39,-68,-68,-78
-9,-78,-68,43,29,-73,19,63,-29,-58,-63,-68
0,-73,-73,36,36,-73,14,73,-19,-48,-53,-68
4,-68,-73,31,39,-70,14,87,-9,-43,-48,-58
9,-58,-68,24,39,-63,19,97,0,-29,-39,-48
19,-53,-73,17,46,-63,19,107,14,-24,-29,-39
34,-48,-82,7,58,-65,19,117,24,-14,-14,-24
34,-39,-73,2,53,-56,19,141,34,0,-4,-14
43,-29,-73,-7,58,-51,19,156,48,19,9,0
58,-14,-73,-21,65,-43,24,175,73,29,24,14
68,0,-68,-34,68,-34,29,195,87,48,43,29
82,9,-73,-46,78,-31,34,219,117,63,63,43
92,29,-63,-61,78,-17,34,239,136,87,87,63
107,39,-68,-73,87,-14,39,273,156,107,102,78
122,58,-63,-90,92,-2,39,287,175,126,122,92
141,68,-73,-104,107,-2,29,307,190,146,151,117
161,82,-78,-122,119,2,19,322,204,170,180,131
175,102,-73,-139,124,14,19,346,224,190,200,156
190,122,-68,-156,129,26,19,356,244,204,219,180
200,131,-68,-165,134,31,24,375,258,224,239,200
209,141,-68,-175,139,36,29,385,268,234,253,219
229,141,-87,-185,158,26,24,395,278,248,268,224
234,141,-92,-187,163,24,24,405,287,258,283,239
244,161,-82,-202,163,39,19,405,297,268,292,248
253,170,-82,-212,168,43,9,400,297,278,302,253
248,175,-73,-212,161,51,9,400,302,278,302,263
248,180,-68,-214,158,56,4,395,302,278,307,263
244,185,-58,-214,151,63,9,380,297,278,307,258
234,185,-48,-209,141,68,4,366,287,278,302,258
229,185,-43,-207,136,70,0,331,273,263,292,258
214,175,-39,-195,126,68,0,302,248,248,273,244
195,165,-29,-180,112,68,0,273,229,224,248,224
165,156,-9,-161,87,73,0,244,209,200,229,200
146,146,0,-146,73,73,0,209,180,175,190,165
126,126,0,-126,63,63,0,175,151,146,161,136
107,112,4,-109,51,58,-4,146,126,122,131,107
82,92,9,-87,36,51,-4,117,97,87,102,82
58,73,14,-65,21,43,-4,82,73,68,73,58
43,58,14,-51,14,36,-4,53,43,43,39,34
29,39,9,-34,9,24,-4,29,24,14,14,9
14,19,4,-17,4,12,-4,14,0,-9,-9,-14
0,9,9,-4,-4,9,-9,0,-14,-24,-29,-34
-9,0,9,4,-9,4,-14,-14,-29,-39,-53,-43
-19,-14,4,17,-12,-4,-14,-24,-48,-48,-68,-63
-29,-24,4,26,-17,-9,-14,-39,-53,-63,-78,-78
-34,-24,9,29,-21,-7,-24,-48,-58,-73,-87,-87
-34,-29,4,31,-19,-12,-29,-58,-63,-82,-97,-97
-39,-29,9,34,-24,-9,-29,-58,-68,-87,-102,-102
-39,-39,0,39,-19,-19,-34,-58,-73,-87,-112,-102
-43,-39,4,41,-24,-17,-34,-58,-78,-97,-117,-107
-43,-43,0,43,-21,-21,-34,-68,-78,-97,-117,-102
-43,-48,-4,46,-19,-26,-29,-63,-78,-97,-112,-102
-43,-53,-9,48,-17,-31,-29,-68,-82,-102,-107,-107
-48,-58,-9,53,-19,-34,-29,-68,-82,-107,-112,-107
-48,-63,-14,56,-17,-39,-29,-68,-87,-107,-112,-107
-43,-63,-19,53,-12,-41,-29,-68,-87,-107,-112,-112
-39,-63,-24,51,-7,-43,-29,-68,-87,-107,-112,-117
-39,-63,-24,51,-7,-43,-24,-68,-87,-102,-112,-117
-39,-63,-24,51,-7,-43,-24,-63,-82,-97,-112,-112
-43,-73,-29,58,-7,-51,-19,-58,-78,-92,-102,-107
-48,-82,-34,65,-7,-58,-14,-53,-73,-92,-97,-102
-48,-87,-39,68,-4,-63,-14,-53,-73,-87,-97,-92
-43,-92,-48,68,2,-70,-14,-53,-73,-82,-97,-82
-43,-92,-48,68,2,-70,-14,-53,-78,-82,-97,-82
-43,-92,-48,68,2,-70,-9,-53,-78,-82,-92,-78
-43,-97,-53,70,4,-75,-9,-53,-73,-82,-92,-78
-39,-107,-68,73,14,-87,-9,-53,-73,-82,-92,-78
-39,-107,-68,73,14,-87,-4,-48,-68,-78,-87,-78
-39,-107,-68,73,14,-87,0,-43,-63,-73,-82,-78
-39,-112,-73,75,17,-92,-4,-43,-63,-73,-87,-78
-39,-117,-78,78,19,-97,-4,-43,-63,-73,-87,-78
-39,-117,-78,78,19,-97,-4,-48,-68,-73,-87,-78
-39,-117,-78,78,19,-97,0,-53,-78,-78,-92,-78
-34,-117,-82,75,24,-100,0,-53,-78,-78,-97,-78
-34,-117,-82,75,24,-100,0,-58,-78,-78,-97,-82
-39,-117,-78,78,19,-97,-4,-58,-73,-78,-97,-82
-48,-122,-73,85,12,-97,-4,-58,-68,-78,-97,-82
-48,-122,-73,85,12,-97,-4,-58,-68,-78,-102,-82
-48,-122,-73,85,12,-97,-4,-58,-73,-82,-102,-82
-48,-122,-73,85,12,-97,-4,-63,-73,-82,-102,-87
-48,-122,-73,85,12,-97,-4,-68,-73,-82,-102,-87
-48,-122,-73,85,12,-97,-4,-68,-78,-82,-107,-87
-53,-122,-68,87,7,-95,-4,-68,-78,-87,-107,-92
-53,-122,-68,87,7,-95,-4,-68,-82,-92,-112,-97
-48,-117,-68,82,9,-92,-4,-68,-87,-97,-112,-97
-48,-112,-63,80,7,-87,-4,-68,-92,-97,-112,-97
-53,-107,-53,80,0,-80,-4,-68,-92,-102,-112,-97
-53,-107,-53,80,0,-80,-4,-73,-92,-107,-117,-97
-53,-107,-53,80,0,-80,-4,-73,-87,-107,-117,-97
-53,-102,-48,78,-2,-75,-4,-73,-87,-112,-122,-107
-53,-97,-43,75,-4,-70,-4,-78,-92,-117,-131,-112
-58,-102,-43,80,-7,-73,-9,-73,-92,-117,-131,-117
-58,-102,-43,80,-7,-73,-9,-68,-92,-117,-131,-122
-58,-97,-39,78,-9,-68,-9,-73,-97,-122,-131,-122
-58,-97,-39,78,-9,-68,-4,-73,-102,-122,-131,-122
-58,-97,-39,78,-9,-68,-4,-73,-102,-122,-131,-122
-58,-97,-39,78,-9,-68,-4,-73,-102,-122,-131,-122
-58,-92,-34,75,-12,-63,-4,-78,-107,-117,-131,-126
-58,-92,-34,75,-12,-63,-4,-78,-107,-117,-126,-126
-53,-92,-39,73,-7,-65,-4,-82,-107,-117,-126,-126
-48,-92,-43,70,-2,-68,-4,-87,-102,-112,-126,-126
-48,-107,-58,78,4,-82,-4,-82,-102,-112,-126,-122
-43,-122,-78,82,17,-100,-4,-82,-102,-107,-126,-117
-48,-126,-78,87,14,-102,0,-78,-97,-107,-122,-117
-53,-131,-78,92,12,-104,9,-82,-97,-107,-122,-107
-53,-141,-87,97,17,-114,14,-68,-87,-102,-112,-102
-58,-151,-92,104,17,-122,14,-63,-82,-97,-112,-92
-53,-146,-92,100,19,-119,19,-53,-78,-87,-102,-92
-43,-141,-97,92,26,-119,29,-43,-68,-78,-92,-87
-43,-131,-87,87,21,-109,39,-29,-58,-73,-82,-78
-43,-122,-78,82,17,-100,48,-19,-43,-63,-78,-63
-39,-117,-78,78,19,-97,53,-14,-34,-53,-73,-63
-34,-117,-82,75,24,-100,58,-14,-34,-53,-68,-58
-29,-117,-87,73,29,-102,43,-14,-34,-48,-68,-58
-19,-112,-92,65,36,-102,39,-19,-34,-48,-68,-63
-19,-97,-78,58,29,-87,34,-19,-29,-48,-68,-58
-14,-82,-68,48,26,-75,34,-19,-24,-43,-68,-58
-4,-63,-58,34,26,-61,29,-24,-19,-34,-58,-39
4,-48,-53,21,29,-51,24,-24,-9,-29,-48,-24
9,-34,-43,12,26,-39,19,-24,-19,-34,-43,-34
0,-53,-53,26,26,-53,4,-34,-34,-48,-63,-43
0,-53,-53,26,26,-53,4,-39,-39,-53,-63,-43
0,-58,-58,29,29,-58,9,-48,-48,-58,-68,-48
0,-58,-58,29,29,-58,9,-48,-48,-58,-68,-48
0,-58,-58,29,29,-58,9,-48,-48,-58,-68,-48
-9,-78,-68,43,29,-73,4,-53,-68,-78,-87,-73
-19,-97,-78,58,29,-87,0,-58,-87,-97,-107,-97
-29,-122,-92,75,31,-107,0,-78,-107,-122,-126,-112
-39,-146,-107,92,34,-126,0,-97,-126,-146,-146,-126
-48,-146,-97,97,24,-122,0,-97,-126,-146,-151,-131
-58,-146,-87,102,14,-117,0,-97,-126,-146,-156,-136
-63,-146,-82,104,9,-114,-4,-102,-131,-146,-161,-141
-68,-146,-78,107,4,-112,-9,-107,-136,-146,-165,-146
-73,-146,-73,109,0,-109,-9,-107,-136,-151,-170,-151
-78,-146,-68,112,-4,-107,-9,-107,-136,-156,-175,-156
-78,-146,-68,112,-4,-107,-9,-107,-136,-156,-175,-156
-78,-146,-68,112,-4,-107,-9,-107,-136,-156,-175,-156
-78,-146,-68,112,-4,-107,-9,-107,-136,-156,-175,-156
-78,-146,-68,112,-4,-107,-9,-107,-136,-156,-175,-156
-82,-146,-63,114,-9,-104,-9,-107,-136,-156,-175,-161
-87,-146,-58,117,-14,-102,-9,-107,-136,-156,-175,-165
-87,-146,-58,117,-14,-102,-9,-107,-136,-156,-175,-165
-87,-146,-58,117,-14,-102,-9,-107,-136,-156,-175,-165
-87,-146,-58,117,-14,-102,-4,-92,-126,-156,-175,-165
-87,-146,-58,117,-14,-102,0,-78,-117,-156,-175,-165
-87,-141,-53,114,-17,-97,19,-34,-78,-122,-151,-156
-87,-136,-48,112,-19,-92,39,9,-39,-87,-126,-146
-63,-97,-34,80,-14,-65,63,102,58,4,-34,-78
-39,-58,-19,48,-9,-39,87,195,156,97,58,-9
34,73,39,-53,-2,56,136,390,370,322,283,170
107,204,97,-156,4,151,185,585,585,546,507,351
224,463,239,-344,-7,351,185,732,888,927,927,712
341,722,380,-531,-19,551,185,878,1190,1307,1346,1073
361,829,468,-595,-53,649,102,771,1249,1473,1561,1273
380,936,556,-658,-87,746,19,663,1307,1639,1776,1473
253,819,566,-536,-156,692,-73,239,854,1180,1312,1161
126,702,575,-414,-224,639,-165,-185,400,722,849,849
0,551,551,-275,-275,551,-263,-585,-68,239,366,502
-126,400,527,-136,-326,463,-361,-985,-536,-244,-117,156
-117,317,434,-100,-275,375,-317,-829,-492,-253,-151,68
-107,234,341,-63,-224,287,-273,-673,-448,-263,-185,-19
-87,161,248,-36,-168,204,-209,-507,-366,-239,-185,-53
-68,87,156,-9,-112,122,-146,-341,-283,-214,-185,-87
-68,39,107,14,-87,73,-102,-258,-239,-195,-175,-102
-68,-9,58,39,-63,24,-58,-175,-195,-175,-165,-117
-68,-9,58,39,-63,24,-58,-175,-195,-175,-165,-117
