I, II, III, aVR, aVL, aVF, V1, V2, V3, V4, V5, V6
-68,-48,19,58,-43,-14,107,107,0,-48,-78,-87
-68,-24,43,46,-56,9,102,117,19,-39,-63,-68
-68,0,68,34,-68,34,97,126,39,-29,-48,-48
-68,9,78,29,-73,43,97,131,53,-19,-39,-39
-68,19,87,24,-78,53,97,136,68,-9,-29,-29
-63,24,87,19,-75,56,102,136,73,-9,-29,-24
-58,29,87,14,-73,58,107,136,78,-9,-29,-19
-58,34,92,12,-75,63,107,141,82,0,-19,-19
-58,39,97,9,-78,68,107,146,87,9,-9,-19
-58,39,97,9,-78,68,107,146,87,14,-9,-19
-58,39,97,9,-78,68,107,146,87,19,-9,-19
-63,39,102,12,-82,70,107,151,97,19,-9,-14
-68,39,107,14,-87,73,107,156,107,19,-9,-9
-68,43,112,12,-90,78,107,161,107,24,-9,-9
-68,48,117,9,-92,82,107,165,107,29,-9,-9
-63,48,112,7,-87,80,107,165,107,29,-9,-9
-58,48,107,4,-82,78,107,165,107,29,-9,-9
-58,53,112,2,-85,82,107,165,117,29,-9,-9
-58,58,117,0,-87,87,107,165,126,29,-9,-9
-58,63,122,-2,-90,92,107,175,131,39,-4,-4
-58,68,126,-4,-92,97,107,185,136,48,0,0
-58,68,126,-4,-92,97,107,190,146,53,4,0
-58,68,126,-4,-92,97,107,195,156,58,9,0
-58,73,131,-7,-95,102,107,204,161,63,14,0
-58,78,136,-9,-97,107,107,214,165,68,19,0
-58,82,141,-12,-100,112,107,219,180,78,29,9
-58,87,146,-14,-102,117,107,224,195,87,39,19
-53,92,146,-19,-100,119,107,234,200,92,39,19
-48,97,146,-24,-97,122,107,244,204,97,39,19
-39,107,146,-34,-92,126,107,253,219,107,48,24
-29,117,146,-43,-87,131,107,263,234,117,58,29
-29,126,156,-48,-92,141,107,273,248,131,63,39
-29,136,165,-53,-97,151,107,283,263,146,68,48
-24,151,175,-63,-100,163,107,302,287,165,82,58
-19,165,185,-73,-102,175,107,322,312,185,97,68
-9,180,190,-85,-100,185,107,341,331,200,107,82
0,195,195,-97,-97,195,107,361,351,214,117,97
9,214,204,-112,-97,209,107,375,380,244,136,102
19,234,214,-126,-97,224,107,390,409,273,156,107
29,253,224,-141,-97,239,97,414,434,297,175,131
39,273,234,-156,-97,253,87,439,458,322,195,156
48,302,253,-175,-102,278,82,463,502,366,229,175
58,331,273,-195,-107,302,78,488,546,409,263,195
82,361,278,-222,-97,319,78,517,585,448,292,224
107,390,283,-248,-87,336,78,546,624,488,322,253
126,414,287,-270,-80,351,68,570,668,531,356,283
146,439,292,-292,-73,366,58,595,712,575,390,312
170,468,297,-319,-63,383,43,624,741,614,424,341
195,497,302,-346,-53,400,29,653,771,653,458,370
214,527,312,-370,-48,419,14,673,810,692,492,400
234,556,322,-395,-43,439,0,692,849,732,527,429
263,580,317,-422,-26,448,-4,697,868,761,551,453
292,605,312,-448,-9,458,-9,702,888,790,575,478
302,619,317,-461,-7,468,-24,702,902,814,600,497
312,634,322,-473,-4,478,-39,702,917,839,624,517
331,644,312,-488,9,478,-48,702,917,849,634,527
351,653,302,-502,24,478,-58,702,917,858,644,536
356,644,287,-500,34,466,-68,688,897,849,644,536
361,634,273,-497,43,453,-78,673,878,839,644,536
361,619,258,-490,51,439,-78,639,849,810,629,527
361,605,244,-483,58,424,-78,605,819,780,614,517
351,580,229,-466,61,405,-78,575,766,736,585,492
341,556,214,-448,63,385,-78,546,712,692,556,468
322,522,200,-422,61,361,-78,497,658,644,512,439
302,488,185,-395,58,336,-78,448,605,595,468,409
278,444,165,-361,56,305,-73,405,541,536,429,375
253,400,146,-326,53,273,-68,361,478,478,390,341
229,366,136,-297,46,251,-63,317,424,424,351,307
204,331,126,-268,39,229,-58,273,370,370,312,273
175,287,112,-231,31,200,-53,229,312,317,273,239
146,244,97,-195,24,170,-48,185,253,263,234,204
126,214,87,-170,19,151,-43,151,209,219,195,175
107,185,78,-146,14,131,-39,117,165,175,156,146
82,156,73,-119,4,114,-29,97,131,141,131,126
58,126,68,-92,-4,97,-19,78,97,107,107,107
39,97,58,-68,-9,78,-19,63,73,82,87,87
19,68,48,-43,-14,58,-19,48,48,58,68,68
4,53,48,-29,-21,51,-14,34,29,39,48,48
-9,39,48,-14,-29,43,-9,19,9,19,29,29
-14,29,43,-7,-29,36,-4,9,-4,4,19,19
-19,19,39,0,-29,29,0,0,-19,-9,9,9
-24,4,29,9,-26,17,0,-4,-29,-24,-4,-4
-29,-9,19,19,-24,4,0,-9,-39,-39,-19,-19
-34,-9,24,21,-29,7,9,-14,-48,-43,-24,-19
-39,-9,29,24,-34,9,19,-19,-58,-48,-29,-19
-43,-19,24,31,-34,2,24,-24,-63,-53,-34,-24
-48,-29,19,39,-34,-4,29,-29,-68,-58,-39,-29
-53,-29,24,41,-39,-2,29,-29,-68,-63,-43,-34
-58,-29,29,43,-43,0,29,-29,-68,-68,-48,-39
-58,-29,29,43,-43,0,29,-29,-73,-68,-48,-39
-58,-29,29,43,-43,0,29,-29,-78,-68,-48,-39
-58,-39,19,48,-39,-9,29,-29,-78,-68,-48,-39
-58,-48,9,53,-34,-19,29,-29,-78,-68,-48,-39
-58,-48,9,53,-34,-19,29,-34,-78,-73,-48,-43
-58,-48,9,53,-34,-19,29,-39,-78,-78,-48,-48
-63,-48,14,56,-39,-17,29,-39,-78,-78,-48,-48
-68,-48,19,58,-43,-14,29,-39,-78,-78,-48,-48
-68,-48,19,58,-43,-14,29,-29,-78,-78,-48,-48
-68,-48,19,58,-43,-14,29,-19,-78,-78,-48,-48
-68,-48,19,58,-43,-14,29,-19,-78,-78,-53,-48
-68,-48,19,58,-43,-14,29,-19,-78,-78,-58,-48
-68,-48,19,58,-43,-14,29,-24,-78,-78,-58,-48
-68,-48,19,58,-43,-14,29,-29,-78,-78,-58,-48
-68,-48,19,58,-43,-14,29,-29,-78,-78,-58,-53
-68,-48,19,58,-43,-14,29,-29,-78,-78,-58,-58
-68,-48,19,58,-43,-14,34,-24,-78,-78,-58,-58
-68,-48,19,58,-43,-14,39,-19,-78,-78,-58,-58
-68,-48,19,58,-43,-14,39,-14,-78,-78,-58,-58
-68,-48,19,58,-43,-14,39,-9,-78,-78,-58,-58
-68,-48,19,58,-43,-14,39,-4,-73,-78,-63,-58
-68,-48,19,58,-43,-14,39,0,-68,-78,-68,-58
-68,-48,19,58,-43,-14,39,0,-68,-78,-68,-58
-68,-48,19,58,-43,-14,39,0,-68,-78,-68,-58
-68,-48,19,58,-43,-14,43,4,-63,-78,-68,-58
-68,-48,19,58,-43,-14,48,9,-58,-78,-68,-58
-73,-48,24,61,-48,-12,48,9,-58,-73,-68,-58
-78,-48,29,63,-53,-9,48,9,-58,-68,-68,-58
-78,-48,29,63,-53,-9,48,14,-58,-68,-68,-58
-78,-48,29,63,-53,-9,48,19,-58,-68,-68,-58
-78,-43,34,61,-56,-4,48,19,-53,-63,-63,-58
-78,-39,39,58,-58,0,48,19,-48,-58,-58,-58
-78,-29,48,53,-63,9,48,24,-43,-53,-53,-53
-78,-19,58,48,-68,19,48,29,-39,-48,-48,-48
-78,-19,58,48,-68,19,48,29,-39,-48,-48,-43
-78,-19,58,48,-68,19,48,29,-39,-48,-48,-39
-68,-14,53,41,-61,19,53,34,-34,-48,-43,-39
-58,-9,48,34,-53,19,58,39,-29,-48,-39,-39
-58,-9,48,34,-53,19,58,39,-29,-43,-39,-39
-58,-9,48,34,-53,19,58,39,-29,-39,-39,-39
-58,-4,53,31,-56,24,53,39,-24,-34,-34,-34
-58,0,58,29,-58,29,48,39,-19,-29,-29,-29
-58,0,58,29,-58,29,48,43,-19,-24,-29,-24
-58,0,58,29,-58,29,48,48,-19,-19,-29,-19
-58,0,58,29,-58,29,48,48,-14,-19,-29,-19
-58,0,58,29,-58,29,48,48,-9,-19,-29,-19
-53,0,53,26,-53,26,48,48,-9,-24,-29,-19
-48,0,48,24,-48,24,48,48,-9,-29,-29,-19
-48,0,48,24,-48,24,48,48,-9,-29,-29,-19
-48,0,48,24,-48,24,48,48,-9,-29,-29,-19
-53,0,53,26,-53,26,48,43,-9,-29,-24,-19
-58,0,58,29,-58,29,48,39,-9,-29,-19,-19
-58,0,58,29,-58,29,48,39,-14,-29,-19,-19
-58,0,58,29,-58,29,48,39,-19,-29,-19,-19
-53,0,53,26,-53,26,48,39,-24,-29,-19,-19
-48,0,48,24,-48,24,48,39,-29,-29,-19,-19
-48,0,48,24,-48,24,48,34,-29,-29,-19,-19
-48,0,48,24,-48,24,48,29,-29,-29,-19,-19
-53,0,53,26,-53,26,48,29,-29,-34,-19,-19
-58,0,58,29,-58,29,48,29,-29,-39,-19,-19
-58,0,58,29,-58,29,48,29,-29,-39,-19,-19
-58,0,58,29,-58,29,48,29,-29,-39,-19,-19
-58,-4,53,31,-56,24,48,29,-29,-39,-24,-19
-58,-9,48,34,-53,19,48,29,-29,-39,-29,-19
-58,-9,48,34,-53,19,48,24,-29,-39,-29,-24
-58,-9,48,34,-53,19,48,19,-29,-39,-29,-29
-58,-9,48,34,-53,19,48,19,-34,-43,-29,-29
-58,-9,48,34,-53,19,48,19,-39,-48,-29,-29
-58,-9,48,34,-53,19,43,19,-43,-48,-34,-29
-58,-9,48,34,-53,19,39,19,-48,-48,-39,-29
-58,-9,48,34,-53,19,39,19,-48,-48,-39,-29
-58,-9,48,34,-53,19,39,19,-48,-48,-39,-29
-58,-9,48,34,-53,19,39,19,-48,-53,-39,-29
-58,-9,48,34,-53,19,39,19,-48,-58,-39,-29
-58,-14,43,36,-51,14,39,9,-48,-58,-39,-34
-58,-19,39,39,-48,9,39,0,-48,-58,-39,-39
-58,-19,39,39,-48,9,39,0,-48,-58,-39,-39
-58,-19,39,39,-48,9,39,0,-48,-58,-39,-39
-58,-19,39,39,-48,9,39,4,-48,-58,-39,-34
-58,-19,39,39,-48,9,39,9,-48,-58,-39,-29
-58,-14,43,36,-51,14,39,9,-48,-58,-39,-29
-58,-9,48,34,-53,19,39,9,-48,-58,-39,-29
-58,-9,48,34,-53,19,39,9,-53,-58,-39,-34
-58,-9,48,34,-53,19,39,9,-58,-58,-39,-39
-63,-14,48,39,-56,17,39,9,-58,-58,-39,-39
-68,-19,48,43,-58,14,39,9,-58,-58,-39,-39
-68,-19,48,43,-58,14,39,9,-58,-58,-39,-39
-68,-19,48,43,-58,14,39,9,-58,-58,-39,-39
-68,-19,48,43,-58,14,34,4,-58,-58,-43,-39
-68,-19,48,43,-58,14,29,0,-58,-58,-48,-39
-68,-19,48,43,-58,14,29,0,-58,-58,-48,-39
-68,-19,48,43,-58,14,29,0,-58,-58,-48,-39
-68,-19,48,43,-58,14,34,4,-48,-58,-48,-39
-68,-19,48,43,-58,14,39,9,-39,-58,-48,-39
-68,-19,48,43,-58,14,39,9,-39,-58,-48,-39
-68,-19,48,43,-58,14,39,9,-39,-58,-48,-39
-68,-19,48,43,-58,14,39,4,-43,-58,-48,-39
-68,-19,48,43,-58,14,39,0,-48,-58,-48,-39
-68,-19,48,43,-58,14,39,0,-48,-58,-43,-34
-68,-19,48,43,-58,14,39,0,-48,-58,-39,-29
-68,-24,43,46,-56,9,39,0,-48,-63,-39,-29
-68,-29,39,48,-53,4,39,0,-48,-68,-39,-29
-68,-29,39,48,-53,4,39,4,-48,-68,-43,-34
-68,-29,39,48,-53,4,39,9,-48,-68,-48,-39
-73,-29,43,51,-58,7,43,9,-48,-63,-48,-39
-78,-29,48,53,-63,9,48,9,-48,-58,-48,-39
-78,-29,48,53,-63,9,48,9,-48,-58,-48,-39
-78,-29,48,53,-63,9,48,9,-48,-58,-48,-39
-68,-29,39,48,-53,4,48,9,-48,-58,-48,-39
-58,-29,29,43,-43,0,48,9,-48,-58,-48,-39
-68,-24,43,46,-56,9,43,4,-48,-58,-48,-39
-78,-19,58,48,-68,19,39,0,-48,-58,-48,-39
-78,-19,58,48,-68,19,39,0,-48,-58,-48,-39
-78,-19,58,48,-68,19,39,0,-48,-58,-48,-39
-78,-19,58,48,-68,19,34,-4,-48,-58,-48,-39
-78,-19,58,48,-68,19,29,-9,-48,-58,-48,-39
-73,-19,53,46,-63,17,29,-9,-48,-58,-48,-39
-68,-19,48,43,-58,14,29,-9,-48,-58,-48,-39
-68,-19,48,43,-58,14,34,-9,-48,-58,-48,-39
-68,-19,48,43,-58,14,39,-9,-48,-58,-48,-39
-73,-19,53,46,-63,17,39,-9,-48,-58,-48,-39
-78,-19,58,48,-68,19,39,-9,-48,-58,-48,-39
-78,-19,58,48,-68,19,39,-9,-48,-58,-48,-39
-78,-19,58,48,-68,19,39,-9,-48,-58,-48,-39
-73,-19,53,46,-63,17,39,-9,-48,-58,-48,-39
-68,-19,48,43,-58,14,39,-9,-48,-58,-48,-39
-63,-19,43,41,-53,12,39,-9,-48,-58,-48,-39
-58,-19,39,39,-48,9,39,-9,-48,-58,-48,-39
-58,-19,39,39,-48,9,43,-9,-48,-58,-48,-39
-58,-19,39,39,-48,9,48,-9,-48,-58,-48,-39
-63,-4,58,34,-61,26,53,-4,-39,-48,-39,-34
-68,9,78,29,-73,43,58,0,-29,-39,-29,-29
-68,14,82,26,-75,48,63,9,-24,-39,-24,-19
-68,19,87,24,-78,53,68,19,-19,-39,-19,-9
-68,29,97,19,-82,63,78,19,-14,-34,-19,-9
-68,39,107,14,-87,73,87,19,-9,-29,-19,-9
-68,39,107,14,-87,73,92,24,-4,-29,-19,-9
-68,39,107,14,-87,73,97,29,0,-29,-19,-9
-68,39,107,14,-87,73,97,29,4,-29,-19,-9
-68,39,107,14,-87,73,97,29,9,-29,-19,-9
-63,43,107,9,-85,75,87,24,9,-29,-19,-9
-58,48,107,4,-82,78,78,19,9,-29,-19,-9
-58,48,107,4,-82,78,68,9,4,-29,-19,-9
-58,48,107,4,-82,78,58,0,0,-29,-19,-9
-58,48,107,4,-82,78,48,-4,-4,-29,-19,-9
-58,48,107,4,-82,78,39,-9,-9,-29,-19,-9
-58,48,107,4,-82,78,24,-14,-14,-34,-19,-9
-58,48,107,4,-82,78,9,-19,-19,-39,-19,-9
-58,48,107,4,-82,78,9,-19,-19,-39,-19,-9
-58,48,107,4,-82,78,9,-19,-19,-39,-19,-9
-58,39,97,9,-78,68,9,-14,-24,-39,-24,-9
-58,29,87,14,-73,58,9,-9,-29,-39,-29,-9
-53,19,73,17,-63,46,9,-9,-29,-39,-29,-9
-48,9,58,19,-53,34,9,-9,-29,-39,-29,-9
-43,9,53,17,-48,31,9,-9,-24,-34,-24,-9
-39,9,48,14,-43,29,9,-9,-19,-29,-19,-9
-29,14,43,7,-36,29,9,-9,-19,-29,-14,-4
-19,19,39,0,-29,29,9,-9,-19,-29,-9,0
-29,19,48,4,-39,34,19,-4,-19,-29,-9,0
-39,19,58,9,-48,39,29,0,-19,-29,-9,0
-53,4,58,24,-56,31,29,0,-24,-39,-19,-9
-68,-9,58,39,-63,24,29,0,-29,-48,-29,-19
-68,-14,53,41,-61,19,29,0,-34,-48,-29,-19
-73,-19,53,46,-63,17,29,-4,-34,-53,-34,-29
-78,-24,53,51,-65,14,34,-9,-39,-58,-43,-39
-78,-24,53,51,-65,14,39,-14,-39,-58,-48,-48
-87,-29,58,58,-73,14,43,-14,-43,-68,-48,-53
-87,-29,58,58,-73,14,43,-19,-53,-73,-58,-58
-82,-39,43,61,-63,2,53,-19,-53,-73,-58,-58
-78,-39,39,58,-58,0,58,-19,-53,-73,-58,-58
-82,-43,39,63,-61,-2,63,-14,-53,-73,-58,-58
-82,-48,34,65,-58,-7,63,-14,-53,-73,-63,-58
-87,-48,39,68,-63,-4,63,-14,-53,-78,-68,-58
-92,-48,43,70,-68,-2,63,-14,-53,-82,-73,-63
-92,-43,48,68,-70,2,58,-14,-53,-82,-73,-63
-102,-43,58,73,-80,7,58,-14,-53,-82,-73,-63
-102,-43,58,73,-80,7,58,-14,-53,-82,-68,-63
-102,-43,58,73,-80,7,58,-19,-53,-78,-63,-63
-102,-39,63,70,-82,12,58,-19,-53,-73,-63,-63
-97,-39,58,68,-78,9,58,-19,-48,-73,-63,-63
-92,-39,53,65,-73,7,58,-19,-48,-78,-68,-63
-87,-39,48,63,-68,4,63,-19,-48,-78,-73,-63
-87,-39,48,63,-68,4,68,-9,-48,-78,-73,-58
-92,-39,53,65,-73,7,73,0,-48,-73,-73,-53
-92,-39,53,65,-73,7,78,-4,-43,-73,-68,-53
-87,-34,53,61,-70,9,78,-9,-43,-73,-68,-48
-87,-34,53,61,-70,9,78,-9,-43,-73,-68,-53
-92,-34,58,63,-75,12,78,-14,-43,-73,-68,-58
-92,-34,58,63,-75,12,73,-14,-48,-73,-68,-58
-92,-34,58,63,-75,12,68,-14,-48,-73,-68,-58
-92,-34,58,63,-75,12,73,-14,-43,-68,-63,-58
-92,-29,63,61,-78,17,73,-14,-43,-68,-58,-58
-92,-29,63,61,-78,17,73,-9,-39,-73,-53,-53
-87,-34,53,61,-70,9,73,-4,-39,-78,-53,-53
-92,-34,58,63,-75,12,73,-4,-39,-78,-58,-58
-97,-34,63,65,-80,14,73,0,-39,-78,-58,-58
-97,-29,68,63,-82,19,82,29,-14,-63,-53,-53
-97,-14,82,56,-90,34,97,43,4,-48,-43,-48
-92,4,97,43,-95,51,97,68,39,-29,-29,-43
-87,34,122,26,-104,78,126,97,82,0,-19,-34
-107,68,175,19,-141,122,175,92,92,0,-14,-24
-141,97,239,21,-190,168,170,-9,53,0,-4,-4
-146,146,292,0,-219,219,48,-229,-48,0,39,53
-136,204,341,-34,-239,273,-122,-483,-165,43,141,175
-39,229,268,-95,-153,248,-326,-639,-224,141,283,317
82,165,82,-124,0,124,-561,-829,-336,204,395,434
258,39,-219,-148,239,-90,-785,-1063,-492,258,536,551
468,-122,-590,-173,529,-356,-1073,-1342,-692,297,683,692
663,-273,-936,-195,800,-605,-1317,-1673,-956,297,795,785
780,-439,-1220,-170,1000,-829,-1488,-1937,-1210,185,761,746
805,-722,-1527,-41,1166,-1124,-1556,-2122,-1429,-141,395,400
761,-1083,-1844,161,1302,-1464,-1498,-2166,-1673,-683,-200,-156
649,-1410,-2059,380,1354,-1734,-1366,-2113,-1864,-1137,-732,-668
473,-1551,-2025,539,1249,-1788,-1146,-1908,-1908,-1400,-1058,-976
370,-1498,-1869,563,1119,-1683,-878,-1503,-1727,-1410,-1112,-1029
307,-1390,-1698,541,1002,-1544,-658,-1161,-1468,-1278,-1058,-1010
224,-1307,-1532,541,878,-1420,-527,-976,-1283,-1180,-1029,-1000
117,-1190,-1307,536,712,-1249,-409,-829,-1122,-1054,-956,-936
9,-1107,-1117,549,563,-1112,-278,-697,-990,-966,-917,-897
-34,-1039,-1005,536,485,-1022,-165,-570,-878,-907,-878,-863
-34,-946,-912,490,439,-929,-117,-478,-771,-834,-810,-795
-29,-795,-766,412,368,-780,-97,-400,-649,-702,-688,-678
-39,-610,-570,324,265,-590,-53,-292,-492,-522,-531,-517
-29,-448,-419,239,195,-434,19,-170,-331,-395,-400,-400
-48,-317,-268,183,109,-292,48,-87,-204,-302,-307,-297
-68,-161,-92,114,12,-126,68,0,-73,-165,-170,-170
-68,-73,-4,70,-31,-39,87,68,9,-53,-87,-92
-58,-34,24,46,-41,-4,117,97,48,-29,-53,-68
-53,-9,43,31,-48,17,112,107,63,-29,-48,-53
-53,14,68,19,-61,41,92,102,68,-19,-39,-43
-53,29,82,12,-68,56,92,102,78,4,-24,-24
-53,29,82,12,-68,56,102,107,92,4,-19,-24
-58,24,82,17,-70,53,112,117,92,4,-19,-24
-58,24,82,17,-70,53,117,117,97,4,-19,-19
-58,29,87,14,-73,58,112,117,102,14,-14,-14
-58,29,87,14,-73,58,112,122,107,19,-9,-14
-58,29,87,14,-73,58,112,122,107,19,-9,-14
-53,29,82,12,-68,56,112,126,112,19,-9,-14
-53,39,92,7,-73,65,107,122,112,19,-9,-9
-53,43,97,4,-75,70,102,117,107,24,-9,-9
-53,58,112,-2,-82,85,107,117,112,29,-9,-9
-53,73,126,-9,-90,100,107,117,122,29,-4,-4
-53,63,117,-4,-85,90,112,126,122,34,-4,-4
-58,48,107,4,-82,78,112,131,122,34,-4,-9
-63,43,107,9,-85,75,112,136,136,43,0,-9
-58,43,102,7,-80,73,117,141,141,48,0,-9
-58,43,102,7,-80,73,117,146,146,53,0,-9
-53,48,102,2,-78,75,117,151,151,58,4,-4
-48,58,107,-4,-78,82,112,156,156,58,9,0
-48,68,117,-9,-82,92,107,161,165,63,9,0
-48,68,117,-9,-82,92,112,170,170,73,24,4
-43,73,117,-14,-80,95,112,175,175,73,29,9
-39,82,122,-21,-80,102,107,175,185,78,34,9
-34,87,122,-26,-78,104,112,175,190,87,39,14
-34,87,122,-26,-78,104,112,190,204,97,43,24
-34,87,122,-26,-78,104,112,195,214,102,43,24
-29,92,122,-31,-75,107,112,204,224,117,53,34
-24,97,122,-36,-73,109,112,219,244,131,63,39
-24,117,141,-46,-82,129,107,229,268,146,68,53
-19,136,156,-58,-87,146,102,248,278,156,78,58
-4,146,151,-70,-78,148,97,258,292,165,87,63
4,161,156,-82,-75,158,97,273,317,185,102,73
9,180,170,-95,-80,175,97,287,341,204,122,82
19,195,175,-107,-78,185,97,302,361,224,131,97
29,204,175,-117,-73,190,102,326,390,248,141,112
48,229,180,-139,-65,204,92,346,414,268,156,126
58,253,195,-156,-68,224,92,366,434,302,180,146
78,273,195,-175,-58,234,92,395,468,341,209,170
82,297,214,-190,-65,256,78,419,497,375,239,190
97,326,229,-212,-65,278,73,444,536,409,263,214
112,356,244,-234,-65,300,58,478,580,453,292,239
136,385,248,-261,-56,317,48,512,624,492,326,263
165,414,248,-290,-41,331,43,536,668,536,366,292
195,439,244,-317,-24,341,29,556,697,575,395,312
219,468,248,-344,-14,358,14,580,732,614,429,341
244,497,253,-370,-4,375,0,605,766,649,458,370
273,522,248,-397,12,385,-9,614,790,688,492,400
307,546,239,-427,34,392,-19,629,819,717,527,424
312,561,248,-436,31,405,-34,649,849,751,551,448
336,575,239,-456,48,407,-43,653,863,771,566,458
351,590,239,-470,56,414,-63,658,878,790,590,483
366,605,239,-485,63,422,-78,658,888,805,605,502
375,614,239,-495,68,427,-82,658,888,819,624,512
395,619,224,-507,85,422,-97,644,873,819,624,517
405,619,214,-512,95,417,-107,639,868,819,629,522
405,605,200,-505,102,402,-107,624,849,805,624,522
395,590,195,-492,100,392,-107,585,810,771,605,507
385,570,185,-478,100,378,-107,541,766,736,580,488
370,531,161,-451,104,346,-107,502,722,697,551,463
351,512,161,-431,95,336,-102,468,673,658,517,448
322,473,151,-397,85,312,-97,434,614,610,488,424
307,444,136,-375,85,290,-97,375,551,551,444,380
278,400,122,-339,78,261,-82,336,502,497,395,346
268,356,87,-312,90,222,-78,292,453,448,356,312
234,322,87,-278,73,204,-73,244,390,390,317,278
209,283,73,-246,68,178,-63,195,336,331,268,248
175,244,68,-209,53,156,-53,161,283,287,229,209
141,204,63,-173,39,134,-53,131,239,239,200,175
126,175,48,-151,39,112,-53,92,200,190,156,151
97,146,48,-122,24,97,-39,58,161,156,126,122
78,117,39,-97,19,78,-19,34,126,126,97,97
43,87,43,-65,0,65,-9,14,107,97,73,82
34,63,29,-48,2,46,-4,-9,78,68,53,63
19,48,29,-34,-4,39,-4,-29,48,39,34,48
-4,39,43,-17,-24,41,-4,-34,34,24,19,34
-9,24,34,-7,-21,29,0,-39,24,4,0,19
-14,14,29,0,-21,21,0,-43,14,0,-4,9
-14,4,19,4,-17,12,4,-53,-4,-19,-14,0
-14,-14,0,14,-7,-7,14,-53,-19,-29,-29,-14
-29,-29,0,29,-14,-14,24,-63,-24,-39,-39,-19
-39,-39,0,39,-19,-19,24,-63,-34,-48,-43,-29
-53,-43,9,48,-31,-17,24,-63,-34,-48,-43,-34
-58,-48,9,53,-34,-19,29,-68,-43,-48,-48,-39
-58,-48,9,53,-34,-19,34,-78,-53,-58,-53,-48
-58,-48,9,53,-34,-19,34,-78,-58,-68,-63,-48
-58,-53,4,56,-31,-24,34,-78,-58,-73,-63,-48
-63,-53,9,58,-36,-21,34,-82,-58,-78,-63,-53
-63,-53,9,58,-36,-21,29,-87,-63,-78,-68,-53
-68,-58,9,63,-39,-24,29,-87,-63,-78,-68,-53
-68,-63,4,65,-36,-29,29,-87,-63,-78,-63,-53
-68,-58,9,63,-39,-24,29,-87,-68,-82,-63,-58
-68,-53,14,61,-41,-19,29,-87,-68,-82,-68,-58
-68,-58,9,63,-39,-24,29,-82,-68,-82,-68,-63
-68,-63,4,65,-36,-29,29,-82,-68,-82,-73,-63
-78,-78,0,78,-39,-39,29,-82,-68,-82,-73,-68
-82,-87,-4,85,-39,-46,29,-82,-68,-87,-73,-68
-82,-73,9,78,-46,-31,34,-87,-68,-82,-73,-58
-78,-63,14,70,-46,-24,34,-92,-68,-78,-73,-53
-78,-63,14,70,-46,-24,34,-82,-68,-78,-73,-53
-82,-63,19,73,-51,-21,34,-78,-68,-78,-73,-58
-78,-73,4,75,-41,-34,34,-78,-68,-78,-73,-63
-73,-78,-4,75,-34,-41,34,-78,-63,-82,-73,-68
-68,-78,-9,73,-29,-43,34,-78,-63,-82,-82,-68
-63,-73,-9,68,-26,-41,29,-73,-63,-82,-87,-68
-58,-73,-14,65,-21,-43,24,-68,-63,-82,-87,-68
-58,-73,-14,65,-21,-43,24,-68,-58,-78,-87,-68
-63,-73,-9,68,-26,-41,24,-68,-58,-78,-87,-73
-63,-73,-9,68,-26,-41,24,-68,-53,-78,-87,-73
-63,-68,-4,65,-29,-36,29,-68,-53,-82,-87,-73
-63,-63,0,63,-31,-31,29,-68,-53,-82,-87,-73
-63,-63,0,63,-31,-31,29,-68,-48,-82,-82,-73
-63,-58,4,61,-34,-26,34,-58,-48,-82,-78,-73
-63,-53,9,58,-36,-21,34,-53,-48,-73,-78,-73
-63,-53,9,58,-36,-21,39,-53,-39,-68,-78,-73
-68,-53,14,61,-41,-19,39,-53,-34,-68,-78,-73
-73,-48,24,61,-48,-12,39,-48,-29,-63,-73,-73
-73,-43,29,58,-51,-7,39,-48,-24,-58,-68,-68
-73,-39,34,56,-53,-2,34,-43,-19,-53,-68,-68
-63,-39,24,51,-43,-7,34,-34,-14,-53,-68,-63
-58,-34,24,46,-41,-4,39,-24,-9,-48,-63,-53
-58,-29,29,43,-43,0,39,-24,-4,-43,-58,-53
-58,-24,34,41,-46,4,39,-19,0,-39,-53,-48
-53,-24,29,39,-41,2,39,-19,4,-39,-53,-43
-53,-19,34,36,-43,7,39,-14,4,-34,-53,-48
-53,-9,43,31,-48,17,39,-9,4,-34,-53,-48
-53,-4,48,29,-51,21,39,-9,14,-34,-48,-43
-53,0,53,26,-53,26,29,-14,9,-29,-43,-39
-48,4,53,21,-51,29,19,-14,4,-29,-43,-39
-48,4,53,21,-51,29,29,-14,4,-29,-43,-39
-48,4,53,21,-51,29,43,-14,9,-29,-43,-39
-53,-4,48,29,-51,21,43,-9,14,-29,-43,-34
-58,-14,43,36,-51,14,48,-4,19,-24,-43,-29
-58,-14,43,36,-51,14,48,-9,19,-24,-39,-29
-58,-14,43,36,-51,14,48,-9,19,-24,-39,-29
-53,-14,39,34,-46,12,48,-9,14,-24,-39,-29
-53,-14,39,34,-46,12,48,-9,14,-24,-39,-29
-48,-14,34,31,-41,9,48,-9,14,-29,-39,-29
-43,-14,29,29,-36,7,48,-9,14,-29,-39,-34
-53,-24,29,39,-41,2,48,-9,9,-29,-39,-34
-53,-29,24,41,-39,-2,48,-14,9,-29,-39,-34
-53,-29,24,41,-39,-2,48,-14,4,-29,-43,-34
-48,-29,19,39,-34,-4,43,-19,4,-34,-48,-34
-48,-34,14,41,-31,-9,43,-19,4,-39,-48,-34
-43,-34,9,39,-26,-12,43,-19,0,-39,-48,-34
-43,-34,9,39,-26,-12,43,-24,0,-39,-48,-34
-48,-34,14,41,-31,-9,43,-29,0,-39,-48,-34
-48,-29,19,39,-34,-4,43,-29,-9,-43,-48,-34
-48,-29,19,39,-34,-4,43,-29,-9,-43,-48,-39
-43,-29,14,36,-29,-7,43,-39,-9,-53,-53,-43
-43,-29,14,36,-29,-7,48,-43,-14,-58,-53,-48
-43,-29,14,36,-29,-7,53,-48,-14,-58,-53,-53
-39,-39,0,39,-19,-19,53,-48,-19,-63,-58,-53
-48,-39,9,43,-29,-14,53,-43,-19,-63,-58,-48
-58,-39,19,48,-39,-9,53,-39,-19,-58,-58,-43
-63,-34,29,48,-46,-2,48,-43,-19,-58,-58,-43
-63,-29,34,46,-48,2,48,-43,-19,-58,-58,-43
-58,-29,29,43,-43,0,53,-43,-24,-63,-58,-53
-53,-29,24,41,-39,-2,53,-43,-29,-68,-58,-58
-58,-39,19,48,-39,-9,53,-43,-29,-68,-58,-58
-58,-43,14,51,-36,-14,53,-43,-34,-68,-58,-58
-58,-43,14,51,-36,-14,58,-43,-29,-68,-63,-53
-58,-43,14,51,-36,-14,63,-43,-29,-63,-63,-58
-58,-39,19,48,-39,-9,53,-43,-29,-63,-63,-58
-58,-39,19,48,-39,-9,48,-48,-29,-68,-68,-58
-58,-39,19,48,-39,-9,48,-48,-29,-68,-68,-58
-58,-39,19,48,-39,-9,48,-48,-29,-68,-68,-58
-58,-39,19,48,-39,-9,48,-53,-34,-68,-68,-58
-58,-39,19,48,-39,-9,48,-58,-39,-68,-68,-58
-58,-39,19,48,-39,-9,48,-58,-39,-73,-68,-58
-58,-39,19,48,-39,-9,48,-58,-39,-78,-68,-58
-63,-43,19,53,-41,-12,48,-58,-39,-78,-68,-58
-68,-48,19,58,-43,-14,48,-58,-39,-78,-68,-58
-68,-48,19,58,-43,-14,48,-58,-39,-78,-73,-58
-68,-48,19,58,-43,-14,48,-58,-39,-78,-78,-58
-63,-43,19,53,-41,-12,48,-53,-39,-78,-78,-58
-58,-39,19,48,-39,-9,48,-48,-39,-78,-78,-58
-58,-39,19,48,-39,-9,43,-48,-39,-78,-78,-58
-58,-39,19,48,-39,-9,39,-48,-39,-78,-78,-58
-58,-39,19,48,-39,-9,39,-53,-43,-78,-78,-58
-58,-39,19,48,-39,-9,39,-58,-48,-78,-78,-58
-58,-39,19,48,-39,-9,39,-58,-48,-78,-78,-58
-58,-39,19,48,-39,-9,39,-58,-48,-78,-78,-58
-58,-43,14,51,-36,-14,43,-53,-48,-73,-78,-58
-58,-48,9,53,-34,-19,48,-48,-48,-68,-78,-58
-63,-48,14,56,-39,-17,48,-48,-48,-68,-78,-58
-68,-48,19,58,-43,-14,48,-48,-48,-68,-78,-58
-68,-48,19,58,-43,-14,48,-48,-48,-73,-78,-58
-68,-48,19,58,-43,-14,48,-48,-48,-78,-78,-58
-68,-48,19,58,-43,-14,48,-48,-48,-78,-78,-58
-68,-48,19,58,-43,-14,48,-48,-48,-78,-78,-58
-63,-43,19,53,-41,-12,48,-48,-48,-78,-78,-58
-58,-39,19,48,-39,-9,48,-48,-48,-78,-78,-58
-58,-39,19,48,-39,-9,48,-48,-48,-78,-78,-58
-58,-39,19,48,-39,-9,48,-48,-48,-78,-78,-58
-58,-39,19,48,-39,-9,48,-48,-48,-78,-78,-58
-58,-39,19,48,-39,-9,48,-48,-48,-78,-78,-58
-58,-39,19,48,-39,-9,48,-48,-48,-78,-78,-58
-58,-39,19,48,-39,-9,48,-48,-48,-78,-78,-58
-58,-39,19,48,-39,-9,48,-48,-48,-78,-78,-58
-58,-39,19,48,-39,-9,48,-48,-48,-78,-78,-58
-68,-39,29,53,-48,-4,48,-43,-48,-78,-78,-58
-78,-39,39,58,-58,0,48,-39,-48,-78,-78,-58
-68,-39,29,53,-48,-4,43,-34,-48,-78,-78,-58
-58,-39,19,48,-39,-9,39,-29,-48,-78,-78,-58
-58,-39,19,48,-39,-9,39,-29,-48,-78,-78,-53
-58,-39,19,48,-39,-9,39,-29,-48,-78,-78,-48
-58,-39,19,48,-39,-9,43,-34,-48,-78,-78,-48
-58,-39,19,48,-39,-9,48,-39,-48,-78,-78,-48
-58,-39,19,48,-39,-9,48,-39,-48,-78,-78,-53
-58,-39,19,48,-39,-9,48,-39,-48,-78,-78,-58
-58,-34,24,46,-41,-4,48,-34,-48,-78,-73,-58
-58,-29,29,43,-43,0,48,-29,-48,-78,-68,-58
-58,-14,43,36,-51,14,58,-24,-39,-68,-63,-48
-58,0,58,29,-58,29,68,-19,-29,-58,-58,-39
-63,0,63,31,-63,31,82,-9,-19,-53,-53,-34
-68,0,68,34,-68,34,97,0,-9,-48,-48,-29
-68,0,68,34,-68,34,97,0,-9,-48,-48,-29
-68,0,68,34,-68,34,97,0,-9,-48,-48,-29
-68,9,78,29,-73,43,97,0,-9,-43,-43,-29
-68,19,87,24,-78,53,97,0,-9,-39,-39,-29
-63,24,87,19,-75,56,97,0,-9,-39,-39,-24
-58,29,87,14,-73,58,97,0,-9,-39,-39,-19
-53,29,82,12,-68,56,82,-4,-14,-39,-39,-19
-48,29,78,9,-63,53,68,-9,-19,-39,-39,-19
-48,29,78,9,-63,53,58,-14,-19,-43,-39,-19
-48,29,78,9,-63,53,48,-19,-19,-48,-39,-19
-53,24,78,14,-65,51,29,-19,-24,-48,-39,-19
-58,19,78,19,-68,48,9,-19,-29,-48,-39,-19
-68,19,87,24,-78,53,9,-24,-29,-48,-39,-19
-78,19,97,29,-87,58,9,-29,-29,-48,-39,-19
-68,14,82,26,-75,48,9,-29,-34,-53,-43,-19
-58,9,68,24,-63,39,9,-29,-39,-58,-48,-19
-58,0,58,29,-58,29,4,-29,-39,-58,-48,-24
-58,-9,48,34,-53,19,0,-29,-39,-58,-48,-29
-48,-9,39,29,-43,14,0,-24,-39,-58,-43,-29
-39,-9,29,24,-34,9,0,-19,-39,-58,-39,-29
-34,0,34,17,-34,17,4,-19,-34,-53,-39,-24
-29,9,39,9,-34,24,9,-19,-29,-48,-39,-19
-29,9,39,9,-34,24,14,-19,-29,-48,-39,-19
-29,9,39,9,-34,24,19,-19,-29,-48,-39,-19
-34,0,34,17,-34,17,24,-19,-34,-53,-43,-24
-39,-9,29,24,-34,9,29,-19,-39,-58,-48,-29
-39,-14,24,26,-31,4,34,-19,-43,-63,-53,-34
-43,-19,24,31,-34,2,39,-19,-43,-68,-58,-39
-48,-29,19,39,-34,-4,43,-24,-48,-73,-63,-43
-58,-34,24,46,-41,-4,43,-24,-48,-78,-68,-48
-63,-34,29,48,-46,-2,48,-24,-48,-78,-68,-48
-78,-39,39,58,-58,0,53,-24,-53,-87,-68,-53
-78,-39,39,58,-58,0,53,-24,-63,-92,-78,-58
-78,-48,29,63,-53,-9,58,-19,-63,-92,-78,-58
-78,-43,34,61,-56,-4,58,-19,-63,-92,-78,-58
-82,-39,43,61,-63,2,63,-14,-63,-92,-78,-58
-82,-39,43,61,-63,2,63,-14,-63,-92,-82,-58
-82,-39,43,61,-63,2,63,-14,-63,-92,-82,-58
-82,-43,39,63,-61,-2,63,-14,-63,-92,-82,-63
-82,-48,34,65,-58,-7,63,-14,-63,-92,-82,-63
-92,-53,39,73,-65,-7,63,-14,-63,-92,-82,-63
-92,-53,39,73,-65,-7,58,-9,-63,-97,-82,-63
-92,-53,39,73,-65,-7,58,-14,-63,-97,-82,-63
-92,-48,43,70,-68,-2,58,-19,-63,-92,-82,-63
-87,-43,43,65,-65,0,58,-19,-58,-92,-82,-63
-87,-39,48,63,-68,4,58,-19,-58,-97,-82,-63
-87,-39,48,63,-68,4,68,-19,-58,-97,-82,-63
-87,-39,48,63,-68,4,73,-19,-58,-97,-82,-63
-92,-43,48,68,-70,2,73,-19,-58,-92,-82,-63
-92,-48,43,70,-68,-2,78,-14,-53,-92,-78,-63
-87,-43,43,65,-65,0,78,-9,-58,-92,-78,-58
-87,-43,43,65,-65,0,78,-9,-63,-92,-78,-58
-92,-43,48,68,-70,2,78,-14,-63,-92,-78,-58
-92,-43,48,68,-70,2,78,-14,-68,-92,-78,-58
-87,-43,43,65,-65,0,78,-9,-63,-92,-78,-58
-82,-43,39,63,-61,-2,82,-4,-53,-87,-78,-58
-82,-39,43,61,-63,2,82,-4,-53,-87,-78,-58
-82,-34,48,58,-65,7,82,0,-48,-87,-73,-53
-82,-34,48,58,-65,7,82,4,-48,-87,-73,-53
-87,-34,53,61,-70,9,82,4,-48,-87,-78,-58
-87,-34,53,61,-70,9,82,14,-43,-87,-73,-58
-87,-29,58,58,-73,14,92,48,-14,-78,-63,-53
-87,-14,73,51,-80,29,107,63,4,-68,-53,-48
-87,4,92,41,-90,48,107,82,29,-48,-39,-43
-87,34,122,26,-104,78,136,107,58,-19,-34,-39
-107,68,175,19,-141,122,170,87,53,-19,-34,-34
-141,97,239,21,-190,168,151,-24,4,-19,-24,-14
-141,146,287,-2,-214,217,24,-239,-97,-19,24,48
-126,214,341,-43,-234,278,-146,-488,-209,34,136,180
-29,253,283,-112,-156,268,-346,-639,-253,151,297,336
92,195,102,-143,-4,148,-580,-819,-341,239,439,473
268,68,-200,-168,234,-65,-805,-1039,-483,312,595,600
478,-97,-575,-190,527,-336,-1098,-1302,-683,366,746,746
673,-253,-927,-209,800,-590,-1337,-1615,-936,375,858,839
795,-419,-1215,-187,1005,-817,-1498,-1854,-1180,253,819,795
834,-702,-1537,-65,1185,-1119,-1551,-2015,-1395,-82,453,439
800,-1068,-1869,134,1334,-1468,-1473,-2064,-1649,-634,-151,-131
702,-1381,-2083,339,1393,-1732,-1322,-1976,-1834,-1093,-678,-624
541,-1503,-2044,480,1293,-1773,-1078,-1732,-1859,-1356,-1005,-912
439,-1439,-1878,500,1159,-1659,-834,-1390,-1693,-1371,-1073,-971
375,-1322,-1698,473,1037,-1510,-663,-1102,-1449,-1239,-1019,-951
287,-1239,-1527,475,907,-1383,-546,-922,-1273,-1156,-1005,-951
175,-1122,-1298,473,736,-1210,-429,-785,-1122,-1044,-936,-897
63,-1054,-1117,495,590,-1085,-292,-658,-990,-961,-897,-868
14,-985,-1000,485,507,-993,-180,-536,-878,-907,-868,-844
9,-888,-897,439,453,-893,-131,-444,-771,-834,-800,-780
4,-746,-751,370,378,-749,-107,-366,-649,-707,-678,-658
-19,-561,-541,290,261,-551,-63,-263,-492,-527,-522,-488
-19,-405,-385,212,183,-395,14,-146,-336,-395,-390,-380
-43,-278,-234,161,95,-256,48,-68,-214,-302,-297,-287
-68,-126,-58,97,-4,-92,68,19,-82,-165,-165,-161
-68,-43,24,56,-46,-9,87,87,0,-53,-87,-82
-58,-4,53,31,-56,24,117,117,39,-34,-53,-63
-53,14,68,19,-61,41,117,131,53,-39,-48,-53
-53,34,87,9,-70,61,102,131,58,-29,-39,-43
-53,48,102,2,-78,75,102,131,68,-4,-24,-24
-48,48,97,0,-73,73,107,131,82,-4,-24,-24
-48,48,97,0,-73,73,107,136,82,-4,-29,-24
-48,53,102,-2,-75,78,107,136,87,-4,-29,-19
-48,58,107,-4,-78,82,102,136,92,4,-24,-14
-48,53,102,-2,-75,78,107,141,97,9,-19,-14
-53,48,102,2,-78,75,112,141,97,9,-19,-14
-58,48,107,4,-82,78,112,146,102,9,-19,-14
-63,53,117,4,-90,85,112,146,107,9,-19,-9
-63,53,117,4,-90,85,112,151,107,14,-19,-9
-63,58,122,2,-92,90,117,156,112,19,-19,-9
-63,63,126,0,-95,95,117,156,122,24,-14,-4
-63,68,131,-2,-97,100,117,161,122,34,-14,-4
-68,68,136,0,-102,102,107,156,122,34,-14,-9
-68,68,136,0,-102,102,102,156,131,39,-9,-9
-58,73,131,-7,-95,102,107,161,131,34,-9,-4
-58,73,131,-7,-95,102,107,165,136,34,-9,0
-53,78,131,-12,-92,104,107,170,136,39,-4,4
-53,78,131,-12,-92,104,107,175,136,43,0,9
-53,78,131,-12,-92,104,107,180,146,53,0,4
-48,78,126,-14,-87,102,112,190,156,63,9,4
-43,82,126,-19,-85,104,112,195,165,68,14,9
-39,92,131,-26,-85,112,102,200,175,78,24,9
-43,97,141,-26,-92,119,102,204,185,87,29,14
-53,97,151,-21,-102,124,102,219,204,97,39,24
-53,97,151,-21,-102,124,102,224,214,102,43,24
-48,112,161,-31,-104,136,102,234,224,117,53,34
-39,126,165,-43,-102,146,102,248,239,131,63,39
-34,136,170,-51,-102,153,102,258,258,146,68,53
-29,146,175,-58,-102,161,102,278,268,156,78,58
-14,156,170,-70,-92,163,97,287,283,170,87,63
-4,170,175,-82,-90,173,97,302,307,195,102,73
0,190,190,-95,-95,190,97,317,331,214,122,82
9,204,195,-107,-92,200,97,331,351,234,131,97
14,214,200,-114,-92,207,97,356,380,258,146,112
29,239,209,-134,-90,224,82,375,405,278,165,131
39,263,224,-151,-92,244,82,395,434,312,190,156
58,283,224,-170,-82,253,87,424,478,351,219,180
68,307,239,-187,-85,273,78,448,507,385,248,200
87,336,248,-212,-80,292,73,468,546,419,273,224
102,366,263,-234,-80,314,63,492,585,463,302,248
122,395,273,-258,-75,334,53,522,624,502,336,273
141,424,283,-283,-70,353,43,546,668,546,375,307
165,448,283,-307,-58,366,29,566,702,590,409,336
190,478,287,-334,-48,383,19,590,746,639,448,370
214,507,292,-361,-39,400,9,614,785,678,478,400
234,536,302,-385,-34,419,0,624,810,717,512,429
258,566,307,-412,-24,436,-9,639,839,746,546,453
273,585,312,-429,-19,448,-24,658,868,785,575,483
307,605,297,-456,4,451,-34,663,883,810,595,492
322,619,297,-470,12,458,-53,668,897,829,619,512
341,634,292,-488,24,463,-68,668,907,839,629,531
356,639,283,-497,36,461,-73,668,907,849,644,541
375,639,263,-507,56,451,-87,653,888,849,644,546
385,639,253,-512,65,446,-97,639,873,844,644,546
385,624,239,-505,73,431,-97,614,849,824,634,541
375,610,234,-492,70,422,-97,585,810,790,614,527
361,590,229,-475,65,409,-97,551,766,756,590,507
346,551,204,-448,70,378,-102,512,722,712,561,483
331,531,200,-431,65,366,-102,478,673,668,527,468
302,492,190,-397,56,341,-97,444,614,619,497,444
287,458,170,-373,58,314,-97,390,551,561,453,400
253,409,156,-331,48,283,-82,356,497,502,405,366
239,366,126,-302,56,246,-78,312,444,448,366,331
204,331,126,-268,39,229,-73,268,380,390,326,297
190,297,107,-244,41,202,-58,224,326,326,278,268
170,263,92,-217,39,178,-43,190,273,278,239,229
131,224,92,-178,19,158,-43,161,229,229,209,195
107,195,87,-151,9,141,-43,126,185,180,165,170
78,165,87,-122,-4,126,-34,97,141,151,136,141
63,136,73,-100,-4,104,-24,73,107,126,107,112
34,107,73,-70,-19,90,-19,63,92,97,82,92
24,82,58,-53,-17,70,-14,48,68,68,63,73
9,68,58,-39,-24,63,-9,29,39,39,43,53
-14,53,68,-19,-41,61,0,19,24,24,29,34
-19,29,48,-4,-34,39,9,4,9,0,9,19
-29,14,43,7,-36,29,9,-4,-4,-9,4,9
-34,4,39,14,-36,21,9,-14,-24,-29,-4,0
-34,-9,24,21,-29,7,9,-14,-39,-39,-19,-14
-43,-14,29,29,-36,7,14,-24,-43,-43,-29,-19
-43,-19,24,31,-34,2,14,-24,-53,-48,-34,-24
-53,-24,29,39,-41,2,14,-24,-53,-48,-34,-24
-58,-29,29,43,-43,0,19,-29,-58,-48,-39,-29
-58,-29,29,43,-43,0,24,-39,-63,-63,-43,-39
-58,-29,29,43,-43,0,24,-39,-68,-73,-53,-39
-58,-34,24,46,-41,-4,24,-39,-68,-73,-58,-39
-63,-34,29,48,-46,-2,29,-39,-68,-78,-63,-43
-63,-39,24,51,-43,-7,24,-43,-73,-78,-68,-43
-68,-48,19,58,-43,-14,19,-48,-73,-78,-68,-43
-63,-53,9,58,-36,-21,19,-48,-73,-78,-63,-43
-58,-53,4,56,-31,-24,19,-48,-78,-82,-63,-48
-58,-48,9,53,-34,-19,24,-43,-78,-82,-68,-48
-58,-48,9,53,-34,-19,29,-39,-78,-82,-68,-53
-63,-53,9,58,-36,-21,29,-43,-78,-82,-68,-53
-73,-58,14,65,-43,-21,29,-43,-78,-82,-63,-58
-73,-58,14,65,-43,-21,29,-43,-78,-87,-63,-58
-73,-53,19,63,-46,-17,34,-43,-78,-87,-63,-53
-68,-58,9,63,-39,-24,34,-48,-78,-87,-63,-53
-68,-63,4,65,-36,-29,34,-43,-78,-87,-63,-53
-73,-63,9,68,-41,-26,34,-39,-78,-87,-63,-58
-73,-68,4,70,-39,-31,34,-39,-78,-82,-63,-58
-73,-68,4,70,-39,-31,39,-34,-73,-82,-63,-58
-73,-68,4,70,-39,-31,48,-29,-73,-82,-68,-58
-73,-63,9,68,-41,-26,48,-24,-73,-82,-68,-58
-68,-63,4,65,-36,-29,43,-19,-73,-87,-68,-58
-68,-63,4,65,-36,-29,43,-24,-68,-82,-68,-58
-73,-63,9,68,-41,-26,43,-29,-68,-78,-68,-63
-73,-63,9,68,-41,-26,43,-29,-63,-78,-68,-63
-73,-63,9,68,-41,-26,48,-24,-63,-78,-68,-63
-73,-63,9,68,-41,-26,48,-14,-63,-73,-68,-63
-73,-63,9,68,-41,-26,48,-9,-58,-73,-68,-63
-68,-58,9,63,-39,-24,48,0,-58,-73,-68,-63
-63,-53,9,58,-36,-21,43,4,-58,-68,-68,-63
-63,-48,14,56,-39,-17,48,4,-48,-68,-68,-63
-63,-43,19,53,-41,-12,48,4,-48,-68,-68,-63
-63,-39,24,51,-43,-7,48,9,-48,-63,-63,-58
-63,-34,29,48,-46,-2,48,9,-43,-58,-58,-48
-63,-29,34,46,-48,2,43,14,-39,-53,-58,-48
-58,-29,29,43,-43,0,43,19,-34,-53,-58,-48
-58,-24,34,41,-46,4,48,24,-29,-53,-53,-43
-58,-19,39,39,-48,9,48,24,-24,-53,-48,-43
-58,-14,43,36,-51,14,48,29,-19,-48,-43,-39
-53,-14,39,34,-46,12,48,29,-14,-48,-39,-29
-53,-14,39,34,-46,12,48,34,-14,-43,-34,-29
-53,-9,43,31,-48,17,48,39,-14,-39,-34,-29
-53,-4,48,29,-51,21,48,39,-4,-34,-29,-24
-53,-4,48,29,-51,21,48,39,-4,-29,-24,-19
-53,-4,48,29,-51,21,48,43,-4,-24,-19,-19
-58,-4,53,31,-56,24,43,43,-4,-19,-14,-19
-58,-4,53,31,-56,24,43,43,0,-19,-14,-19
-58,-4,53,31,-56,24,43,43,0,-19,-14,-14
-58,-4,53,31,-56,24,48,43,0,-14,-14,-9
-58,-4,53,31,-56,24,48,39,0,-14,-9,-9
-58,-4,53,31,-56,24,48,39,0,-14,-9,-9
-53,-4,48,29,-51,21,48,39,-4,-14,-9,-9
-53,-4,48,29,-51,21,48,39,-4,-14,-14,-9
-53,-4,48,29,-51,21,48,39,-4,-19,-19,-9
-53,-4,48,29,-51,21,48,39,-4,-19,-19,-14
-63,-9,53,36,-58,21,48,39,-9,-19,-19,-14
-63,-9,53,36,-58,21,48,34,-14,-19,-19,-19
-63,-9,53,36,-58,21,48,34,-24,-19,-24,-24
-58,-9,48,34,-53,19,43,29,-24,-24,-29,-24
-58,-14,43,36,-51,14,43,29,-24,-29,-29,-24
-53,-14,39,34,-46,12,43,29,-29,-29,-29,-24
-53,-14,39,34,-46,12,43,24,-29,-29,-29,-24
-58,-14,43,36,-51,14,43,19,-24,-29,-29,-24
-58,-14,43,36,-51,14,43,19,-29,-34,-29,-24
-58,-19,39,39,-48,9,43,19,-29,-34,-29,-29
-58,-19,39,39,-48,9,43,14,-29,-39,-34,-29
-63,-19,43,41,-53,12,48,9,-34,-39,-34,-29
-63,-19,43,41,-53,12,48,0,-34,-39,-34,-34
-58,-29,29,43,-43,0,43,0,-43,-43,-39,-29
-58,-29,29,43,-43,0,43,0,-48,-48,-39,-24
-58,-29,29,43,-43,0,43,0,-48,-48,-39,-24
-63,-29,34,46,-48,2,39,-4,-48,-48,-39,-24
-63,-29,34,46,-48,2,39,-4,-48,-53,-39,-29
-63,-29,34,46,-48,2,43,-4,-48,-58,-39,-39
-63,-29,34,46,-48,2,43,-4,-48,-58,-43,-39
-68,-34,34,51,-51,0,43,-4,-48,-58,-48,-39
-68,-34,34,51,-51,0,43,-4,-53,-58,-48,-39
-68,-34,34,51,-51,0,43,-4,-53,-63,-53,-34
-68,-29,39,48,-53,4,43,-4,-58,-63,-53,-34
-73,-29,43,51,-58,7,43,-4,-63,-68,-58,-39
-68,-34,34,51,-51,0,39,-4,-58,-68,-58,-39
-68,-39,29,53,-48,-4,39,-9,-58,-68,-58,-39
-68,-39,29,53,-48,-4,39,-9,-53,-68,-53,-39
-68,-39,29,53,-48,-4,39,-9,-48,-68,-48,-39
-68,-39,29,53,-48,-4,39,-9,-48,-68,-48,-39
-68,-39,29,53,-48,-4,39,-9,-48,-68,-48,-39
-68,-39,29,53,-48,-4,39,-9,-53,-68,-48,-39
-68,-39,29,53,-48,-4,39,-9,-58,-68,-48,-39
-68,-39,29,53,-48,-4,39,-9,-58,-68,-48,-39
-68,-39,29,53,-48,-4,39,-9,-58,-68,-48,-39
-68,-39,29,53,-48,-4,39,-9,-58,-68,-53,-39
-68,-39,29,53,-48,-4,39,-9,-58,-68,-58,-39
-68,-39,29,53,-48,-4,39,-9,-58,-68,-58,-39
-68,-39,29,53,-48,-4,39,-9,-58,-68,-58,-39
-73,-39,34,56,-53,-2,39,-9,-58,-68,-58,-39
-78,-39,39,58,-58,0,39,-9,-58,-68,-58,-39
-78,-39,39,58,-58,0,39,-9,-58,-68,-53,-39
-78,-39,39,58,-58,0,39,-9,-58,-68,-48,-39
-78,-39,39,58,-58,0,39,-9,-58,-68,-48,-39
-78,-39,39,58,-58,0,39,-9,-58,-68,-48,-39
-78,-39,39,58,-58,0,39,-9,-58,-73,-48,-39
-78,-39,39,58,-58,0,39,-9,-58,-78,-48,-39
-78,-39,39,58,-58,0,39,-9,-63,-78,-53,-39
-78,-39,39,58,-58,0,39,-9,-68,-78,-58,-39
-73,-39,34,56,-53,-2,39,-9,-68,-73,-58,-39
-68,-39,29,53,-48,-4,39,-9,-68,-68,-58,-39
-68,-39,29,53,-48,-4,39,-9,-63,-68,-58,-39
-68,-39,29,53,-48,-4,39,-9,-58,-68,-58,-39
-68,-39,29,53,-48,-4,39,-9,-58,-68,-58,-43
-68,-39,29,53,-48,-4,39,-9,-58,-68,-58,-48
-68,-39,29,53,-48,-4,43,-9,-58,-68,-58,-48
-68,-39,29,53,-48,-4,48,-9,-58,-68,-58,-48
-73,-39,34,56,-53,-2,48,-9,-58,-68,-58,-48
-78,-39,39,58,-58,0,48,-9,-58,-68,-58,-48
-78,-39,39,58,-58,0,43,-9,-58,-68,-58,-48
-78,-39,39,58,-58,0,39,-9,-58,-68,-58,-48
-78,-39,39,58,-58,0,39,-9,-58,-68,-58,-43
-78,-39,39,58,-58,0,39,-9,-58,-68,-58,-39
-73,-39,34,56,-53,-2,39,-9,-63,-68,-58,-39
-68,-39,29,53,-48,-4,39,-9,-68,-68,-58,-39
-68,-39,29,53,-48,-4,39,-9,-68,-68,-58,-39
-68,-39,29,53,-48,-4,39,-9,-68,-68,-58,-39
-68,-39,29,53,-48,-4,39,-9,-63,-68,-58,-39
-68,-39,29,53,-48,-4,39,-9,-58,-68,-58,-39
-68,-39,29,53,-48,-4,39,-9,-58,-68,-58,-39
-68,-39,29,53,-48,-4,39,-9,-58,-68,-58,-39
-68,-39,29,53,-48,-4,39,-9,-58,-68,-58,-39
-68,-39,29,53,-48,-4,39,-9,-58,-68,-58,-39
-68,-39,29,53,-48,-4,39,-9,-58,-73,-58,-39
-68,-39,29,53,-48,-4,39,-9,-58,-78,-58,-39
-68,-39,29,53,-48,-4,43,-9,-58,-78,-58,-39
-68,-39,29,53,-48,-4,48,-9,-58,-78,-58,-39
-73,-39,34,56,-53,-2,48,-9,-58,-73,-58,-39
-78,-39,39,58,-58,0,48,-9,-58,-68,-58,-39
-78,-39,39,58,-58,0,48,-9,-58,-68,-58,-39
-78,-39,39,58,-58,0,48,-9,-58,-68,-58,-39
-73,-29,43,51,-58,7,48,-4,-53,-63,-53,-34
-68,-19,48,43,-58,14,48,0,-48,-58,-48,-29
-68,-4,63,36,-65,29,58,4,-39,-53,-39,-24
-68,9,78,29,-73,43,68,9,-29,-48,-29,-19
-73,9,82,31,-78,46,73,14,-24,-48,-29,-19
-78,9,87,34,-82,48,78,19,-19,-48,-29,-19
-78,9,87,34,-82,48,87,24,-19,-48,-29,-19
-78,9,87,34,-82,48,97,29,-19,-48,-29,-19
-73,19,92,26,-82,56,97,34,-14,-39,-29,-9
-68,29,97,19,-82,63,97,39,-9,-29,-29,0
-68,29,97,19,-82,63,87,39,-9,-29,-24,0
-68,29,97,19,-82,63,78,39,-9,-29,-19,0
-68,29,97,19,-82,63,63,24,-14,-29,-19,0
-68,29,97,19,-82,63,48,9,-19,-29,-19,0
-63,19,82,21,-73,51,34,0,-29,-39,-24,-4
-58,9,68,24,-63,39,19,-9,-39,-48,-29,-9
-58,9,68,24,-63,39,14,-14,-39,-48,-29,-9
-58,9,68,24,-63,39,9,-19,-39,-48,-29,-9
-63,4,68,29,-65,36,9,-19,-39,-48,-29,-9
-68,0,68,34,-68,34,9,-19,-39,-48,-29,-9
-68,0,68,34,-68,34,9,-14,-39,-48,-29,-9
-68,0,68,34,-68,34,9,-9,-39,-48,-29,-9
-63,-9,53,36,-58,21,9,-9,-48,-53,-34,-14
-58,-19,39,39,-48,9,9,-9,-58,-58,-39,-19
-43,-19,24,31,-34,2,0,-9,-58,-58,-39,-19
-29,-19,9,24,-19,-4,-9,-9,-58,-58,-39,-19
-29,-9,19,19,-24,4,0,-9,-48,-53,-29,-14
-29,0,29,14,-29,14,9,-9,-39,-48,-19,-9
-34,0,34,17,-34,17,14,-9,-39,-48,-19,-9
-39,0,39,19,-39,19,19,-9,-39,-48,-19,-9
-53,-14,39,34,-46,12,24,-9,-48,-53,-29,-19
-63,-24,39,43,-51,7,29,-9,-53,-58,-39,-29
-73,-39,34,56,-53,-2,34,-14,-58,-63,-48,-39
-78,-43,34,61,-56,-4,34,-14,-58,-68,-58,-48
-78,-43,34,61,-56,-4,39,-9,-58,-68,-58,-48
-87,-48,39,68,-63,-4,43,-4,-63,-78,-58,-53
-87,-48,39,68,-63,-4,43,-9,-73,-82,-68,-58
-87,-58,29,73,-58,-14,48,-9,-73,-82,-68,-58
-97,-63,34,80,-65,-14,48,-14,-73,-82,-68,-58
-112,-68,43,90,-78,-12,53,-14,-73,-82,-68,-58
-102,-68,34,85,-68,-17,53,-14,-73,-87,-73,-58
-92,-68,24,80,-58,-21,53,-14,-73,-92,-73,-58
-87,-68,19,78,-53,-24,53,-14,-73,-92,-73,-63
-82,-68,14,75,-48,-26,53,-14,-73,-92,-73,-63
-92,-73,19,82,-56,-26,58,-14,-73,-92,-73,-63
-92,-73,19,82,-56,-26,58,-9,-73,-97,-73,-63
-97,-73,24,85,-61,-24,58,-9,-73,-97,-73,-63
-102,-68,34,85,-68,-17,58,-9,-73,-92,-73,-63
-97,-68,29,82,-63,-19,58,-9,-68,-92,-73,-63
-97,-68,29,82,-63,-19,58,-9,-68,-97,-73,-63
-97,-68,29,82,-63,-19,63,-9,-68,-97,-78,-63
-97,-68,29,82,-63,-19,63,-9,-68,-97,-82,-63
-102,-68,34,85,-68,-17,63,-9,-68,-87,-82,-63
-102,-68,34,85,-68,-17,68,-4,-63,-82,-78,-63
-97,-63,34,80,-65,-14,68,0,-63,-82,-78,-58
-97,-63,34,80,-65,-14,68,0,-63,-82,-78,-58
-102,-63,39,82,-70,-12,68,-4,-63,-87,-78,-58
-102,-63,39,82,-70,-12,68,-4,-68,-92,-78,-58
-102,-63,39,82,-70,-12,68,-4,-73,-92,-78,-58
-102,-63,39,82,-70,-12,73,-4,-73,-87,-78,-58
-102,-58,43,80,-73,-7,73,-4,-73,-87,-78,-58
-102,-53,48,78,-75,-2,73,0,-68,-87,-73,-53
-97,-53,43,75,-70,-4,73,4,-68,-87,-68,-53
-97,-53,43,75,-70,-4,73,4,-68,-87,-68,-58
-97,-58,39,78,-68,-9,73,9,-68,-87,-68,-58
-97,-58,39,78,-68,-9,82,39,-43,-78,-63,-53
-92,-43,48,68,-70,2,97,53,-24,-68,-58,-53
-87,-24,63,56,-75,19,97,73,0,-48,-48,-53
-78,0,78,39,-78,39,126,112,39,-19,-39,-43
-87,29,117,29,-102,73,161,107,43,-19,-34,-34
-141,58,200,41,-170,129,161,4,4,-29,-39,-29
-161,107,268,26,-214,187,53,-200,-87,-39,-4,19
-161,185,346,-12,-253,265,-117,-483,-219,-9,87,141
-78,234,312,-78,-195,273,-317,-668,-283,82,229,287
14,209,195,-112,-90,202,-551,-849,-346,175,366,414
161,117,-43,-139,102,36,-775,-1068,-463,253,517,531
390,-39,-429,-175,409,-234,-1073,-1342,-658,336,697,712
605,-185,-790,-209,697,-488,-1317,-1664,-907,375,839,839
756,-292,-1049,-231,902,-671,-1527,-1947,-1137,375,961,936
824,-517,-1342,-153,1083,-929,-1629,-2152,-1337,161,756,722
844,-917,-1761,36,1302,-1339,-1581,-2205,-1600,-405,126,122
800,-1263,-2064,231,1432,-1664,-1459,-2122,-1795,-878,-424,-400
639,-1444,-2083,402,1361,-1764,-1215,-1883,-1883,-1249,-849,-780
536,-1439,-1976,451,1256,-1708,-971,-1546,-1781,-1371,-1015,-932
473,-1337,-1810,431,1141,-1573,-785,-1244,-1537,-1259,-985,-936
385,-1268,-1654,441,1019,-1461,-653,-1049,-1361,-1195,-995,-961
258,-1161,-1420,451,839,-1290,-527,-907,-1210,-1083,-936,-912
131,-1102,-1234,485,683,-1168,-380,-775,-1078,-1000,-907,-888
53,-1068,-1122,507,588,-1095,-248,-639,-971,-971,-912,-883
19,-1005,-1024,492,522,-1015,-180,-531,-868,-922,-878,-839
19,-873,-893,427,456,-883,-151,-448,-756,-805,-761,-746
0,-697,-697,348,348,-697,-102,-341,-610,-634,-610,-605
0,-527,-527,263,263,-527,-14,-209,-448,-492,-478,-478
-24,-385,-361,204,168,-373,29,-117,-322,-390,-385,-366
-58,-200,-141,129,41,-170,48,-24,-161,-224,-219,-214
-68,-82,-14,75,-26,-48,68,48,-48,-82,-107,-112
-58,-43,14,51,-36,-14,102,92,4,-53,-68,-82
-53,-24,29,39,-41,2,107,122,34,-48,-58,-63
-53,0,53,26,-53,26,92,122,39,-34,-48,-53
-53,19,73,17,-63,46,92,122,48,-4,-34,-34
-53,24,78,14,-65,51,102,131,68,-4,-29,-29
-58,29,87,14,-73,58,107,146,73,-4,-29,-24
-63,34,97,14,-80,65,112,146,78,-4,-29,-19
-68,39,107,14,-87,73,112,146,82,4,-24,-14
-68,39,107,14,-87,73,112,151,87,9,-14,-14
-73,39,112,17,-92,75,112,151,87,9,-9,-14
-73,39,112,17,-92,75,107,156,92,9,-9,-14
-73,43,117,14,-95,80,102,156,97,9,-9,-9
-73,43,117,14,-95,80,102,156,97,14,-9,-9
-73,48,122,12,-97,85,107,156,102,19,-9,-9
-73,53,126,9,-100,90,107,156,112,19,-4,-4
-73,58,131,7,-102,95,107,161,112,24,-4,-4
-73,58,131,7,-102,95,97,161,112,24,-4,-9
-68,58,126,4,-97,92,92,165,122,29,0,-9
-58,63,122,-2,-90,92,97,170,122,29,0,-9
-58,63,122,-2,-90,92,97,175,126,34,0,-9
-53,68,122,-7,-87,95,102,180,136,43,4,-4
-53,68,122,-7,-87,95,107,185,146,53,9,0
-68,68,136,0,-102,102,112,190,156,63,9,0
-78,68,146,4,-112,107,122,200,165,73,19,4
-63,73,136,-4,-100,104,122,204,170,73,19,9
-48,82,131,-17,-90,107,112,209,175,78,24,9
-43,87,131,-21,-87,109,112,214,180,87,29,14
-43,87,131,-21,-87,109,112,229,195,97,39,24
-48,87,136,-19,-92,112,112,234,204,97,43,19
-48,102,151,-26,-100,126,112,244,214,107,53,24
-43,117,161,-36,-102,139,112,258,234,122,63,29
-43,126,170,-41,-107,148,112,268,258,136,68,43
-39,136,175,-48,-107,156,112,287,268,146,73,48
-24,146,170,-61,-97,158,107,297,283,161,78,53
-14,161,175,-73,-95,168,107,312,307,185,92,63
-9,180,190,-85,-100,185,107,326,331,204,112,73
-4,195,200,-95,-102,197,107,341,351,224,122,87
-4,204,209,-100,-107,207,107,366,380,248,136,102
4,224,219,-114,-107,222,92,390,405,268,156,117
9,244,234,-126,-112,239,92,414,434,302,180,136
29,263,234,-146,-102,248,97,444,478,341,209,161
39,287,248,-163,-104,268,87,468,507,375,239,180
63,317,253,-190,-95,285,82,488,541,405,258,200
82,346,263,-214,-90,305,73,512,575,444,283,219
107,380,273,-244,-82,326,68,541,614,483,317,244
131,414,283,-273,-75,348,63,566,658,527,356,278
151,439,287,-295,-68,363,48,590,692,570,385,307
170,468,297,-319,-63,383,39,619,736,619,419,341
195,497,302,-346,-53,400,29,644,775,658,448,370
214,527,312,-370,-48,419,19,653,800,697,483,400
244,556,312,-400,-34,434,9,668,829,727,517,424
263,575,312,-419,-24,444,-4,688,858,766,546,453
297,605,307,-451,-4,456,-14,697,883,800,575,468
312,629,317,-470,-2,473,-34,707,907,829,610,492
326,644,317,-485,4,480,-48,707,922,844,624,512
336,649,312,-492,12,480,-53,707,927,858,644,522
356,649,292,-502,31,470,-73,697,912,863,649,536
366,649,283,-507,41,466,-87,688,902,863,653,546
370,639,268,-505,51,453,-87,663,883,849,649,541
366,629,263,-497,51,446,-87,634,849,819,634,527
356,610,253,-483,51,431,-87,605,805,785,610,512
346,570,224,-458,61,397,-92,570,761,741,580,492
336,556,219,-446,58,387,-97,536,722,702,551,478
312,522,209,-417,51,366,-97,502,673,658,527,453
297,492,195,-395,51,344,-97,444,600,600,483,409
263,448,185,-356,39,317,-82,405,536,541,434,375
248,405,156,-326,46,280,-78,361,483,488,395,341
214,370,156,-292,29,263,-73,317,419,429,356,307
195,326,131,-261,31,229,-68,268,361,366,307,278
170,283,112,-226,29,197,-63,229,302,317,268,239
141,244,102,-192,19,173,-63,195,258,268,239,204
126,214,87,-170,19,151,-63,156,214,219,195,180
97,185,87,-141,4,136,-48,126,165,180,165,151
82,156,73,-119,4,114,-34,102,126,146,136,122
53,126,73,-90,-9,100,-29,82,107,112,107,97
43,102,58,-73,-7,80,-24,58,78,78,82,73
24,78,53,-51,-14,65,-24,34,43,48,63,58
-4,53,58,-24,-31,56,-19,19,24,34,48,43
-9,34,43,-12,-26,39,-9,9,14,14,29,29
-19,24,43,-2,-31,34,-9,4,4,9,24,19
-24,19,43,2,-34,31,-4,-9,-14,-9,9,9
-24,9,34,7,-29,21,0,-14,-29,-19,-9,-4
-39,0,39,19,-39,19,4,-24,-39,-29,-19,-9
-43,-9,34,26,-39,12,4,-24,-53,-39,-24,-14
-53,-14,39,34,-46,12,4,-24,-53,-39,-24,-14
-58,-19,39,39,-48,9,9,-29,-58,-39,-29,-19
-63,-24,39,43,-51,7,14,-34,-63,-48,-34,-34
-68,-29,39,48,-53,4,14,-29,-68,-53,-43,-39
-68,-34,34,51,-51,0,14,-29,-68,-53,-43,-39
-73,-34,39,53,-56,2,19,-29,-68,-58,-43,-43
-58,-34,24,46,-41,-4,19,-34,-73,-63,-53,-43
-48,-39,9,43,-29,-14,19,-39,-73,-68,-58,-43
-48,-39,9,43,-29,-14,19,-39,-73,-68,-53,-43
-48,-34,14,41,-31,-9,19,-39,-78,-73,-53,-48
-58,-34,24,46,-41,-4,19,-34,-78,-73,-53,-48
-68,-39,29,53,-48,-4,19,-29,-78,-73,-48,-53
-68,-48,19,58,-43,-14,19,-34,-78,-73,-53,-53
-73,-58,14,65,-43,-21,19,-34,-78,-73,-53,-58
-73,-58,14,65,-43,-21,19,-34,-78,-78,-58,-58
-73,-53,19,63,-46,-17,24,-34,-78,-78,-63,-53
-68,-53,14,61,-41,-19,29,-39,-78,-78,-63,-53
-68,-53,14,61,-41,-19,34,-34,-78,-78,-63,-53
-73,-53,19,63,-46,-17,34,-29,-78,-78,-63,-58
-73,-58,14,65,-43,-21,34,-29,-78,-73,-63,-58
-78,-58,19,68,-48,-19,34,-24,-73,-73,-63,-58
-82,-58,24,70,-53,-17,39,-19,-73,-73,-68,-58
-82,-53,29,68,-56,-12,43,-14,-73,-73,-68,-58
-78,-53,24,65,-51,-14,43,-9,-73,-78,-68,-58
-78,-53,24,65,-51,-14,43,-9,-68,-78,-68,-58
-82,-53,29,68,-56,-12,43,-9,-68,-78,-68,-63
-82,-58,24,70,-53,-17,43,-9,-63,-82,-68,-63
-82,-63,19,73,-51,-21,48,-4,-63,-87,-68,-63
-82,-63,19,73,-51,-21,43,0,-63,-82,-68,-68
-82,-63,19,73,-51,-21,39,0,-58,-82,-68,-73
-87,-58,29,73,-58,-14,43,9,-58,-82,-68,-73
-92,-53,39,73,-65,-7,43,14,-58,-78,-68,-73
-92,-53,39,73,-65,-7,53,14,-48,-78,-68,-73
-92,-53,39,73,-65,-7,58,14,-48,-78,-68,-73
-87,-48,39,68,-63,-4,58,19,-48,-73,-63,-73
-82,-43,39,63,-61,-2,58,19,-43,-68,-58,-68
-82,-34,48,58,-65,7,53,24,-39,-63,-58,-68
-78,-29,48,53,-63,9,53,29,-34,-63,-58,-68
-78,-24,53,51,-65,14,58,34,-34,-58,-53,-63
-78,-19,58,48,-68,19,58,34,-34,-53,-48,-63
-78,-14,63,46,-70,24,53,34,-29,-48,-43,-58
-73,-14,58,43,-65,21,48,29,-24,-48,-39,-48
-73,-9,63,41,-68,26,48,34,-24,-43,-34,-48
-73,0,73,36,-73,36,48,39,-24,-39,-34,-48
-68,4,73,31,-70,39,53,39,-14,-34,-29,-39
-63,4,68,29,-65,36,58,39,-14,-29,-24,-29
-58,4,63,26,-61,34,58,43,-14,-29,-24,-29
-58,4,63,26,-61,34,53,43,-14,-29,-24,-29
-63,4,68,29,-65,36,53,43,-9,-29,-24,-34
-68,4,73,31,-70,39,53,43,-9,-29,-24,-34
-68,4,73,31,-70,39,53,43,-9,-24,-24,-29
-68,4,73,31,-70,39,48,39,-9,-24,-19,-29
-63,4,68,29,-65,36,48,39,-9,-24,-19,-29
-53,4,58,24,-56,31,48,39,-14,-24,-19,-29
-53,0,53,26,-53,26,48,39,-14,-24,-19,-29
-53,-4,48,29,-51,21,48,39,-14,-29,-19,-29
-53,-4,48,29,-51,21,48,39,-14,-34,-19,-34
-63,-9,53,36,-58,21,48,39,-19,-39,-19,-34
-63,-4,58,34,-61,26,48,34,-19,-39,-19,-34
-63,0,63,31,-63,31,48,34,-24,-39,-24,-34
-58,0,58,29,-58,29,43,29,-19,-39,-29,-34
-58,-4,53,31,-56,24,43,29,-14,-39,-29,-34
-53,-4,48,29,-51,21,43,29,-19,-39,-29,-34
-53,-4,48,29,-51,21,43,24,-19,-39,-29,-34
-58,0,58,29,-58,29,43,19,-19,-39,-29,-29
-58,4,63,26,-61,34,43,19,-29,-43,-29,-24
-58,0,58,29,-58,29,43,24,-29,-39,-29,-29
-58,0,58,29,-58,29,43,24,-29,-39,-34,-29
-68,0,68,34,-68,34,48,24,-34,-39,-34,-29
-73,0,73,36,-73,36,48,19,-34,-39,-34,-34
-68,-9,58,39,-63,24,43,14,-39,-43,-39,-34
-68,-9,58,39,-63,24,43,9,-39,-48,-39,-34
-68,-9,58,39,-63,24,43,9,-39,-48,-39,-34
-73,-9,63,41,-68,26,39,4,-39,-48,-39,-34
-68,-9,58,39,-63,24,39,4,-39,-48,-39,-34
-63,-9,53,36,-58,21,43,4,-39,-48,-39,-39
-53,-9,43,31,-48,17,43,0,-39,-48,-39,-39
-48,-14,34,31,-41,9,43,-4,-39,-48,-39,-39
-58,-14,43,36,-51,14,43,-4,-43,-48,-39,-39
-68,-14,53,41,-61,19,43,-4,-43,-53,-43,-34
-68,-14,53,41,-61,19,43,-4,-48,-53,-43,-34
-73,-19,53,46,-63,17,43,-4,-53,-58,-48,-39
-68,-19,48,43,-58,14,39,0,-48,-58,-48,-39
-68,-19,48,43,-58,14,39,0,-48,-58,-48,-39
-68,-19,48,43,-58,14,43,0,-48,-58,-43,-39
-68,-19,48,43,-58,14,48,0,-48,-58,-39,-39
-68,-19,48,43,-58,14,48,0,-48,-58,-39,-39
-68,-19,48,43,-58,14,48,0,-48,-58,-39,-39
-68,-19,48,43,-58,14,48,0,-48,-58,-43,-39
-68,-19,48,43,-58,14,48,0,-48,-58,-48,-39
-68,-14,53,41,-61,19,43,-9,-53,-58,-48,-39
-68,-9,58,39,-63,24,39,-19,-58,-58,-48,-39
-68,-9,58,39,-63,24,39,-19,-58,-58,-48,-39
-68,-9,58,39,-63,24,39,-19,-58,-58,-48,-39
-68,-14,53,41,-61,19,43,-9,-53,-58,-48,-39
-68,-19,48,43,-58,14,48,0,-48,-58,-48,-39
-78,-29,48,53,-63,9,48,0,-48,-58,-48,-39
-87,-39,48,63,-68,4,48,0,-48,-58,-48,-39
-78,-29,48,53,-63,9,48,-4,-48,-63,-48,-43
-68,-19,48,43,-58,14,48,-9,-48,-68,-48,-48
-68,-19,48,43,-58,14,48,-9,-48,-68,-48,-48
-68,-19,48,43,-58,14,48,-9,-48,-68,-48,-48
-68,-24,43,46,-56,9,48,-9,-48,-68,-48,-48
-68,-29,39,48,-53,4,48,-9,-48,-68,-48,-48
-68,-29,39,48,-53,4,48,-9,-48,-68,-48,-48
-68,-29,39,48,-53,4,48,-9,-48,-68,-48,-48
-68,-29,39,48,-53,4,43,-9,-53,-68,-48,-48
-68,-29,39,48,-53,4,39,-9,-58,-68,-48,-48
-68,-24,43,46,-56,9,39,-9,-58,-68,-48,-48
-68,-19,48,43,-58,14,39,-9,-58,-68,-48,-48
-68,-19,48,43,-58,14,39,-9,-53,-68,-48,-48
-68,-19,48,43,-58,14,39,-9,-48,-68,-48,-48
-68,-19,48,43,-58,14,39,-9,-48,-68,-48,-48
-68,-19,48,43,-58,14,39,-9,-48,-68,-48,-48
-68,-19,48,43,-58,14,39,-4,-43,-68,-48,-43
-68,-19,48,43,-58,14,39,0,-39,-68,-48,-39
-73,-19,53,46,-63,17,39,0,-39,-68,-48,-39
-78,-19,58,48,-68,19,39,0,-39,-68,-48,-39
-78,-19,58,48,-68,19,39,-4,-43,-68,-48,-39
-78,-19,58,48,-68,19,39,-9,-48,-68,-48,-39
-73,-19,53,46,-63,17,39,-9,-48,-68,-53,-43
-68,-19,48,43,-58,14,39,-9,-48,-68,-58,-48
-68,-24,43,46,-56,9,43,-9,-48,-68,-58,-48
-68,-29,39,48,-53,4,48,-9,-48,-68,-58,-48
-68,-29,39,48,-53,4,48,-9,-48,-68,-53,-43
-68,-29,39,48,-53,4,48,-9,-48,-68,-48,-39
-68,-24,43,46,-56,9,48,-9,-48,-68,-48,-39
-68,-19,48,43,-58,14,48,-9,-48,-68,-48,-39
-68,-19,48,43,-58,14,48,-9,-48,-68,-48,-39
-68,-19,48,43,-58,14,48,-9,-48,-68,-48,-39
-68,-19,48,43,-58,14,48,-9,-43,-68,-48,-39
-68,-19,48,43,-58,14,48,-9,-39,-68,-48,-39
-63,-9,53,36,-58,21,48,-9,-34,-58,-43,-34
-58,0,58,29,-58,29,48,-9,-29,-48,-39,-29
-58,4,63,26,-61,34,63,0,-24,-43,-34,-24
-58,9,68,24,-63,39,78,9,-19,-39,-29,-19
-73,24,97,24,-85,61,82,9,-19,-39,-24,-14
-87,39,126,24,-107,82,87,9,-19,-39,-19,-9
-78,39,117,19,-97,78,92,14,-9,-39,-19,-9
-68,39,107,14,-87,73,97,19,0,-39,-19,-9
-68,39,107,14,-87,73,97,29,4,-34,-14,-4
-68,39,107,14,-87,73,97,39,9,-29,-9,0
-68,48,117,9,-92,82,92,29,9,-29,-9,0
-68,58,126,4,-97,92,87,19,9,-29,-9,0
-53,58,112,-2,-82,85,68,9,0,-29,-14,-4
-39,58,97,-9,-68,78,48,0,-9,-29,-19,-9
-48,53,102,-2,-75,78,39,-4,-14,-29,-24,-9
-58,48,107,4,-82,78,29,-9,-19,-29,-29,-9
-58,43,102,7,-80,73,19,-14,-19,-34,-29,-9
-58,39,97,9,-78,68,9,-19,-19,-39,-29,-9
-58,29,87,14,-73,58,9,-19,-24,-43,-29,-14
-58,19,78,19,-68,48,9,-19,-29,-48,-29,-19
-58,9,68,24,-63,39,4,-19,-29,-48,-29,-19
-58,0,58,29,-58,29,0,-19,-29,-48,-29,-19
-53,0,53,26,-53,26,0,-19,-29,-48,-29,-19
-48,0,48,24,-48,24,0,-19,-29,-48,-29,-19
-48,4,53,21,-51,29,9,-19,-29,-43,-24,-19
-48,9,58,19,-53,34,19,-19,-29,-39,-19,-19
-39,9,48,14,-43,29,24,-14,-29,-39,-19,-19
-29,9,39,9,-34,24,29,-9,-29,-39,-19,-19
-39,9,48,14,-43,29,29,-9,-29,-43,-24,-19
-48,9,58,19,-53,34,29,-9,-29,-48,-29,-19
-53,0,53,26,-53,26,34,-4,-29,-48,-34,-24
-58,-9,48,34,-53,19,39,-4,-29,-48,-39,-29
-63,-24,39,43,-51,7,43,-4,-29,-53,-43,-39
-68,-34,34,51,-51,0,43,-4,-29,-58,-48,-48
-68,-43,24,56,-46,-9,48,-9,-34,-63,-48,-48
-78,-58,19,68,-48,-19,53,-14,-43,-78,-48,-53
-78,-48,29,63,-53,-9,53,-19,-53,-82,-63,-58
-78,-48,29,63,-53,-9,58,-19,-53,-82,-68,-58
-78,-48,29,63,-53,-9,58,-19,-53,-82,-68,-58
-82,-48,34,65,-58,-7,63,-14,-53,-82,-68,-58
-82,-53,29,68,-56,-12,63,-14,-53,-82,-73,-58
-82,-58,24,70,-53,-17,63,-14,-53,-82,-73,-58
-82,-58,24,70,-53,-17,58,-19,-53,-82,-73,-63
-82,-58,24,70,-53,-17,53,-24,-53,-82,-73,-63
-92,-58,34,75,-63,-12,58,-24,-53,-82,-73,-63
-92,-53,39,73,-65,-7,58,-19,-53,-87,-73,-63
-92,-53,39,73,-65,-7,58,-14,-53,-87,-73,-63
-92,-48,43,70,-68,-2,58,-9,-53,-82,-73,-63
-87,-53,34,70,-61,-9,58,-9,-48,-82,-73,-63
-87,-58,29,73,-58,-14,58,-9,-48,-87,-73,-63
-87,-58,29,73,-58,-14,63,-14,-48,-87,-73,-63
-87,-58,29,73,-58,-14,63,-19,-48,-87,-73,-63
-92,-53,39,73,-65,-7,63,-19,-53,-82,-73,-63
-92,-48,43,70,-68,-2,68,-14,-53,-82,-68,-63
-87,-43,43,65,-65,0,68,-9,-53,-82,-68,-58
-87,-43,43,65,-65,0,68,-9,-53,-82,-68,-58
-92,-43,48,68,-70,2,78,-9,-39,-78,-68,-58
-92,-43,48,68,-70,2,87,-4,-29,-73,-68,-58
-92,-43,48,68,-70,2,78,-4,-39,-73,-68,-58
-92,-43,48,68,-70,2,73,-4,-43,-68,-68,-58
-92,-43,48,68,-70,2,73,-9,-43,-73,-68,-58
-92,-43,48,68,-70,2,73,-9,-39,-78,-63,-53
-87,-48,39,68,-63,-4,73,-4,-39,-78,-63,-53
-87,-53,34,70,-61,-9,73,-4,-39,-78,-68,-58
-87,-53,34,70,-61,-9,73,0,-39,-78,-68,-58
-87,-48,39,68,-63,-4,82,29,-14,-68,-63,-53
-87,-34,53,61,-70,9,102,43,4,-58,-53,-48
-87,-14,73,51,-80,29,107,63,29,-39,-39,-43
-87,29,117,29,-102,73,136,112,78,-9,-34,-39
-107,78,185,14,-146,131,170,117,92,-9,-34,-34
-141,82,224,29,-183,153,204,53,73,-9,-39,-34
-141,107,248,17,-195,178,131,-112,0,-9,-4,9
-156,185,341,-14,-248,263,-29,-400,-131,14,87,126
-87,234,322,-73,-204,278,-219,-590,-195,102,229,268
19,195,175,-107,-78,185,-453,-756,-283,175,346,395
180,87,-92,-134,136,-2,-678,-961,-424,234,478,512
409,-87,-497,-161,453,-292,-980,-1234,-610,302,649,663
624,-253,-878,-185,751,-566,-1229,-1556,-849,326,780,761
771,-370,-1141,-200,956,-756,-1439,-1854,-1107,283,849,829
834,-605,-1439,-114,1137,-1022,-1542,-2074,-1337,24,590,585
814,-1000,-1815,92,1315,-1407,-1522,-2196,-1620,-556,-48,-29
732,-1342,-2074,305,1403,-1708,-1429,-2181,-1834,-1044,-610,-566
536,-1532,-2069,497,1302,-1800,-1195,-1976,-1937,-1381,-1000,-917
400,-1537,-1937,568,1168,-1737,-961,-1673,-1849,-1468,-1132,-1039
346,-1420,-1766,536,1056,-1593,-746,-1302,-1571,-1337,-1078,-1029
268,-1337,-1605,534,936,-1471,-585,-1039,-1361,-1254,-1063,-1039
156,-1210,-1366,527,761,-1288,-468,-888,-1190,-1112,-990,-966
43,-1132,-1176,544,610,-1154,-331,-746,-1039,-1000,-946,-917
-24,-1078,-1054,551,514,-1066,-195,-614,-927,-956,-917,-893
-48,-995,-946,522,448,-971,-122,-512,-819,-893,-849,-829
-34,-854,-819,444,392,-836,-112,-429,-697,-761,-732,-722
-39,-668,-629,353,295,-649,-82,-322,-541,-575,-580,-566
-29,-507,-478,268,224,-492,0,-200,-380,-444,-448,-448
-43,-375,-331,209,143,-353,39,-117,-253,-351,-356,-346
-68,-195,-126,131,29,-161,58,-24,-107,-200,-209,-204
-68,-82,-14,75,-26,-48,78,48,-9,-73,-117,-112
-53,-39,14,46,-34,-12,107,78,34,-43,-78,-87
-43,-14,29,29,-36,7,107,92,53,-39,-68,-73
-43,4,48,19,-46,26,92,92,58,-24,-58,-63
-43,19,63,12,-53,41,92,92,68,4,-43,-43
-43,19,63,12,-53,41,102,102,87,4,-29,-39
-48,19,68,14,-58,43,107,117,92,4,-19,-34
-58,24,82,17,-70,53,107,122,97,4,-19,-29
-68,29,97,19,-82,63,102,126,102,14,-14,-24
-58,34,92,12,-75,63,107,131,107,19,-14,-19
-53,39,92,7,-73,65,112,131,107,19,-19,-14
-53,39,92,7,-73,65,112,131,112,19,-19,-14
-53,43,97,4,-75,70,112,126,117,19,-19,-9
-53,43,97,4,-75,70,112,126,112,24,-19,-9
-53,48,102,2,-78,75,117,126,112,29,-19,-9
-53,53,107,0,-80,80,117,126,122,29,-14,-4
-53,58,112,-2,-82,85,117,131,122,34,-14,-4
-58,53,112,2,-85,82,112,131,122,34,-14,-9
-58,48,107,4,-82,78,112,136,131,39,-9,-9
-53,53,107,0,-80,80,117,141,131,39,-9,-9
-58,53,112,2,-85,82,117,146,136,43,-9,-9
-53,58,112,-2,-82,85,117,151,141,48,-4,-4
-53,58,112,-2,-82,85,117,156,146,53,0,0
-58,58,117,0,-87,87,117,156,156,63,0,-4
-58,58,117,0,-87,87,122,161,165,73,9,-4
-53,63,117,-4,-85,90,122,165,175,68,9,0
-48,73,122,-12,-85,97,112,170,185,68,14,0
-43,82,126,-19,-85,104,112,175,190,78,19,4
-43,87,131,-21,-87,109,112,190,204,87,29,14
-34,87,122,-26,-78,104,107,190,214,92,34,14
-19,102,122,-41,-70,112,102,195,224,107,43,24
-14,112,126,-48,-70,119,102,209,239,122,53,29
-14,117,131,-51,-73,124,102,219,258,136,58,43
-14,126,141,-56,-78,134,102,244,268,146,68,48
-4,136,141,-65,-73,139,97,258,283,161,78,53
4,146,141,-75,-68,143,97,273,307,180,92,63
9,161,151,-85,-70,156,97,287,331,195,112,73
19,175,156,-97,-68,165,97,297,351,214,122,87
24,185,161,-104,-68,173,97,317,380,239,136,102
39,209,170,-124,-65,190,82,336,400,253,146,112
48,234,185,-141,-68,209,82,356,424,283,161,126
68,248,180,-158,-56,214,82,385,468,322,190,151
78,268,190,-173,-56,229,68,409,497,356,219,170
102,297,195,-200,-46,246,63,439,531,390,244,195
122,326,204,-224,-41,265,53,473,566,434,273,219
146,361,214,-253,-34,287,48,502,605,468,307,239
170,395,224,-283,-26,309,43,527,649,507,346,268
190,419,229,-305,-19,324,29,546,678,546,375,292
209,448,239,-329,-14,344,19,570,717,590,409,322
234,478,244,-356,-4,361,9,595,761,629,439,351
253,507,253,-380,0,380,0,605,790,668,473,380
287,536,248,-412,19,392,-9,624,819,697,507,405
312,556,244,-434,34,400,-24,649,849,736,536,434
346,575,229,-461,58,402,-34,653,863,761,556,448
361,590,229,-475,65,409,-53,658,878,780,580,473
370,605,234,-488,68,419,-68,663,893,795,600,497
375,610,234,-492,70,422,-73,668,897,810,624,512
395,610,214,-502,90,412,-87,653,883,819,624,517
405,610,204,-507,100,407,-97,639,873,824,624,517
409,595,185,-502,112,390,-97,619,858,810,619,517
405,580,175,-492,114,378,-97,595,829,780,605,507
395,570,175,-483,109,373,-97,566,790,751,585,488
385,541,156,-463,114,348,-102,531,751,712,561,463
370,522,151,-446,109,336,-102,497,702,673,527,453
341,483,141,-412,100,312,-97,463,644,629,497,434
326,458,131,-392,97,295,-97,405,585,570,458,390
292,419,126,-356,82,273,-82,366,536,512,414,356
278,375,97,-326,90,236,-73,317,483,458,375,322
244,341,97,-292,73,219,-63,268,419,400,336,287
214,302,87,-258,63,195,-53,224,366,341,287,263
180,263,82,-222,48,173,-43,190,312,297,248,229
151,224,73,-187,39,148,-48,156,268,248,219,195
136,195,58,-165,39,126,-53,117,224,200,175,170
107,165,58,-136,24,112,-39,87,180,165,146,141
92,136,43,-114,24,90,-24,63,146,136,117,112
63,107,43,-85,9,75,-19,39,122,107,92,87
53,82,29,-68,12,56,-14,9,87,78,73,63
39,68,29,-53,4,48,-14,-9,58,43,53,48
14,53,39,-34,-12,46,-9,-19,43,24,39,34
9,29,19,-19,-4,24,0,-34,34,4,14,19
0,14,14,-7,-7,14,0,-43,24,0,4,9
-9,4,14,2,-12,9,4,-53,4,-19,-4,0
-14,-9,4,12,-9,-2,9,-53,-9,-29,-19,-14
-29,-24,4,26,-17,-9,14,-63,-14,-39,-34,-24
-34,-39,-4,36,-14,-21,14,-63,-24,-48,-43,-34
-43,-43,0,43,-21,-21,14,-68,-29,-53,-43,-34
-48,-48,0,48,-24,-24,19,-78,-39,-58,-48,-39
-48,-48,0,48,-24,-24,24,-87,-43,-68,-53,-48
-48,-48,0,48,-24,-24,24,-87,-48,-73,-63,-48
-48,-53,-4,51,-21,-29,29,-82,-48,-68,-63,-48
-53,-53,0,53,-26,-26,39,-78,-48,-68,-63,-53
-58,-53,4,56,-31,-24,39,-78,-53,-68,-68,-48
-68,-58,9,63,-39,-24,39,-78,-53,-68,-68,-43
-68,-63,4,65,-36,-29,34,-82,-53,-73,-63,-43
-68,-63,4,65,-36,-29,29,-87,-58,-82,-63,-48
-68,-58,9,63,-39,-24,29,-87,-58,-82,-68,-48
-68,-58,9,63,-39,-24,29,-87,-58,-82,-68,-53
-68,-63,4,65,-36,-29,29,-92,-63,-82,-78,-58
-73,-68,4,70,-39,-31,29,-92,-68,-82,-82,-68
-68,-68,0,68,-34,-34,29,-92,-68,-87,-82,-68
-63,-63,0,63,-31,-31,34,-92,-68,-87,-82,-63
-58,-63,-4,61,-26,-34,34,-92,-68,-87,-82,-63
-58,-63,-4,61,-26,-34,34,-82,-68,-87,-82,-63
-68,-63,4,65,-36,-29,34,-78,-68,-87,-82,-68
-73,-68,4,70,-39,-31,34,-78,-68,-82,-82,-68
-73,-68,4,70,-39,-31,34,-78,-63,-82,-82,-68
-73,-68,4,70,-39,-31,39,-78,-63,-82,-87,-68
-73,-63,9,68,-41,-26,39,-73,-58,-82,-82,-68
-68,-63,4,65,-36,-29,34,-68,-53,-87,-78,-68
-68,-63,4,65,-36,-29,34,-68,-48,-87,-78,-68
-73,-63,9,68,-41,-26,34,-68,-48,-87,-78,-73
-73,-63,9,68,-41,-26,34,-68,-43,-87,-78,-73
-73,-63,9,68,-41,-26,39,-63,-43,-87,-78,-73
-68,-63,4,65,-36,-29,39,-58,-43,-82,-78,-73
-63,-63,0,63,-31,-31,39,-58,-39,-82,-78,-73
-63,-58,4,61,-34,-26,43,-58,-39,-82,-78,-73
-63,-53,9,58,-36,-21,43,-63,-39,-78,-78,-73
-68,-58,9,63,-39,-24,48,-53,-24,-78,-78,-68
-73,-63,9,68,-41,-26,48,-43,-19,-78,-78,-63
-73,-58,14,65,-43,-21,48,-34,-19,-68,-73,-63
-73,-53,19,63,-46,-17,48,-29,-14,-58,-68,-58
-73,-43,29,58,-51,-7,43,-24,-9,-53,-68,-58
-68,-39,29,53,-48,-4,43,-19,-4,-53,-68,-58
-68,-34,34,51,-51,0,48,-14,0,-48,-63,-53
-68,-29,39,48,-53,4,48,-14,4,-43,-58,-53
-68,-24,43,46,-56,9,43,-9,9,-39,-53,-48
-63,-24,39,43,-51,7,39,-9,14,-39,-48,-39
-58,-19,39,39,-48,9,39,-9,14,-34,-43,-43
-53,-9,43,31,-48,17,39,-9,14,-29,-43,-48
-53,-4,48,29,-51,21,43,-9,24,-24,-39,-43
-53,-4,48,29,-51,21,48,-9,24,-19,-34,-39
-48,-4,43,26,-46,19,48,-4,24,-24,-34,-39
-48,-4,43,26,-46,19,43,-4,24,-29,-34,-39
-48,-4,43,26,-46,19,43,-4,29,-29,-34,-39
-48,-4,43,26,-46,19,43,-4,29,-29,-34,-34
-48,-9,39,29,-43,14,48,0,29,-24,-34,-29
-48,-14,34,31,-41,9,48,0,29,-24,-29,-29
-48,-14,34,31,-41,9,48,0,29,-24,-34,-29
-43,-14,29,29,-36,7,48,0,24,-24,-39,-29
-48,-14,34,31,-41,9,48,-9,24,-24,-39,-29
-53,-14,39,34,-46,12,48,-19,24,-29,-39,-29
-53,-9,43,31,-48,17,48,-19,24,-29,-39,-34
-63,-9,53,36,-58,21,48,-19,19,-29,-39,-34
-63,-9,53,36,-58,21,48,-19,19,-29,-34,-34
-63,-9,53,36,-58,21,48,-14,14,-29,-34,-34
-58,-9,48,34,-53,19,43,-19,9,-34,-39,-34
-58,-14,43,36,-51,14,43,-19,4,-39,-39,-34
-43,-14,29,29,-36,7,43,-14,0,-39,-39,-34
-34,-14,19,24,-26,2,43,-14,0,-39,-39,-34
-48,-14,34,31,-41,9,43,-19,0,-39,-39,-34
-58,-14,43,36,-51,14,43,-19,-9,-43,-39,-34
-58,-19,39,39,-48,9,39,-19,-9,-43,-43,-39
-58,-19,39,39,-48,9,34,-24,-9,-48,-53,-39
-63,-19,43,41,-53,12,39,-24,-14,-43,-53,-39
-63,-19,43,41,-53,12,39,-29,-14,-39,-53,-43
-58,-29,29,43,-43,0,39,-29,-19,-43,-58,-43
-58,-29,29,43,-43,0,43,-29,-19,-48,-58,-43
-53,-34,19,43,-36,-7,43,-29,-19,-48,-58,-43
-53,-39,14,46,-34,-12,39,-34,-19,-48,-58,-43
-53,-39,14,46,-34,-12,39,-34,-19,-53,-58,-43
-53,-39,14,46,-34,-12,43,-34,-19,-58,-58,-48
-53,-34,19,43,-36,-7,43,-34,-24,-58,-58,-48
-58,-34,24,46,-41,-4,43,-34,-29,-58,-58,-48
-68,-34,34,51,-51,0,43,-34,-34,-58,-58,-48
-78,-34,43,56,-61,4,43,-34,-34,-63,-63,-43
-73,-34,39,53,-56,2,39,-34,-34,-63,-63,-43
-73,-39,34,56,-53,-2,34,-34,-34,-68,-68,-48
-68,-39,29,53,-48,-4,34,-34,-34,-68,-68,-48
-68,-39,29,53,-48,-4,39,-39,-39,-68,-68,-48
-63,-34,29,48,-46,-2,43,-43,-39,-68,-68,-48
-58,-29,29,43,-43,0,48,-48,-39,-68,-68,-48
-58,-29,29,43,-43,0,48,-48,-39,-68,-68,-48
-58,-29,29,43,-43,0,48,-48,-39,-68,-68,-48
-58,-34,24,46,-41,-4,43,-48,-39,-68,-68,-48
-58,-39,19,48,-39,-9,39,-48,-39,-68,-68,-48
-58,-39,19,48,-39,-9,39,-43,-39,-68,-68,-48
-58,-39,19,48,-39,-9,39,-39,-39,-68,-68,-48
-58,-39,19,48,-39,-9,39,-39,-39,-68,-68,-48
-58,-39,19,48,-39,-9,39,-39,-39,-68,-68,-48
-63,-39,24,51,-43,-7,39,-39,-43,-68,-68,-48
-68,-39,29,53,-48,-4,39,-39,-48,-68,-68,-48
-68,-39,29,53,-48,-4,39,-43,-48,-68,-68,-48
-68,-39,29,53,-48,-4,39,-48,-48,-68,-68,-48
-63,-39,24,51,-43,-7,39,-48,-48,-73,-68,-48
-58,-39,19,48,-39,-9,39,-48,-48,-78,-68,-48
-58,-39,19,48,-39,-9,39,-48,-48,-78,-73,-48
-58,-39,19,48,-39,-9,39,-48,-48,-78,-78,-48
-58,-34,24,46,-41,-4,39,-43,-43,-78,-78,-48
-58,-29,29,43,-43,0,39,-39,-39,-78,-78,-48
-58,-29,29,43,-43,0,39,-39,-39,-78,-73,-48
-58,-29,29,43,-43,0,39,-39,-39,-78,-68,-48
-58,-34,24,46,-41,-4,39,-39,-39,-78,-68,-48
-58,-39,19,48,-39,-9,39,-39,-39,-78,-68,-48
-58,-39,19,48,-39,-9,39,-39,-39,-78,-68,-48
-58,-39,19,48,-39,-9,39,-39,-39,-78,-68,-48
-58,-39,19,48,-39,-9,39,-39,-43,-78,-68,-53
-58,-39,19,48,-39,-9,39,-39,-48,-78,-68,-58
-58,-39,19,48,-39,-9,39,-34,-48,-78,-68,-58
-58,-39,19,48,-39,-9,39,-29,-48,-78,-68,-58
-58,-43,14,51,-36,-14,39,-29,-48,-78,-68,-58
-58,-48,9,53,-34,-19,39,-29,-48,-78,-68,-58
-58,-48,9,53,-34,-19,39,-29,-48,-78,-68,-53
-58,-48,9,53,-34,-19,39,-29,-48,-78,-68,-48
-58,-48,9,53,-34,-19,39,-29,-48,-78,-68,-48
-58,-48,9,53,-34,-19,39,-29,-48,-78,-68,-48
-58,-48,9,53,-34,-19,39,-34,-48,-78,-73,-53
-58,-48,9,53,-34,-19,39,-39,-48,-78,-78,-58
-63,-43,19,53,-41,-12,39,-39,-48,-78,-78,-58
-68,-39,29,53,-48,-4,39,-39,-48,-78,-78,-58
-68,-34,34,51,-51,0,39,-34,-48,-78,-73,-53
-68,-29,39,48,-53,4,39,-29,-48,-78,-68,-48
-63,-29,34,46,-48,2,39,-29,-48,-78,-68,-48
-58,-29,29,43,-43,0,39,-29,-48,-78,-68,-48
-58,-29,29,43,-43,0,43,-29,-43,-73,-68,-48
-58,-29,29,43,-43,0,48,-29,-39,-68,-68,-48
-58,-14,43,36,-51,14,48,-24,-39,-63,-63,-43
-58,0,58,29,-58,29,48,-19,-39,-58,-58,-39
-58,9,68,24,-63,39,63,-14,-29,-58,-53,-34
-58,19,78,19,-68,48,78,-9,-19,-58,-48,-29
-58,24,82,17,-70,53,82,-4,-19,-53,-48,-24
-58,29,87,14,-73,58,87,0,-19,-48,-48,-19
-58,29,87,14,-73,58,87,0,-19,-48,-48,-19
-58,29,87,14,-73,58,87,0,-19,-48,-48,-19
-58,34,92,12,-75,63,82,0,-14,-39,-43,-19
-58,39,97,9,-78,68,78,0,-9,-29,-39,-19
-48,39,87,4,-68,63,68,-4,-9,-39,-39,-19
-39,39,78,0,-58,58,58,-9,-9,-48,-39,-19
-48,39,87,4,-68,63,48,-14,-14,-48,-39,-19
-58,39,97,9,-78,68,39,-19,-19,-48,-39,-19
-58,39,97,9,-78,68,29,-29,-24,-53,-43,-24
-58,39,97,9,-78,68,19,-39,-29,-58,-48,-29
-58,29,87,14,-73,58,14,-39,-34,-58,-48,-29
-58,19,78,19,-68,48,9,-39,-39,-58,-48,-29
-53,19,73,17,-63,46,9,-34,-39,-58,-48,-29
-48,19,68,14,-58,43,9,-29,-39,-58,-48,-29
-43,9,53,17,-48,31,4,-29,-43,-58,-48,-29
-39,0,39,19,-39,19,0,-29,-48,-58,-48,-29
-39,0,39,19,-39,19,0,-29,-48,-58,-48,-29
-39,0,39,19,-39,19,0,-29,-48,-58,-48,-29
-29,9,39,9,-34,24,0,-24,-39,-53,-43,-24
-19,19,39,0,-29,29,0,-19,-29,-48,-39,-19
-19,19,39,0,-29,29,4,-19,-29,-48,-39,-19
-19,19,39,0,-29,29,9,-19,-29,-48,-39,-19
-29,4,34,12,-31,19,19,-19,-34,-53,-43,-29
-39,-9,29,24,-34,9,29,-19,-39,-58,-48,-39
-43,-19,24,31,-34,2,29,-19,-43,-63,-53,-43
-48,-24,24,36,-36,0,29,-19,-48,-68,-63,-48
-58,-34,24,46,-41,-4,34,-24,-53,-78,-73,-58
-58,-34,24,46,-41,-4,39,-24,-58,-78,-78,-58
-68,-39,29,53,-48,-4,43,-24,-63,-87,-78,-63
-68,-39,29,53,-48,-4,43,-29,-73,-92,-87,-68
-68,-48,19,58,-43,-14,48,-29,-73,-92,-82,-68
-68,-48,19,58,-43,-14,48,-29,-73,-92,-78,-68
-73,-48,24,61,-48,-12,53,-24,-73,-92,-78,-68
-73,-48,24,61,-48,-12,53,-24,-73,-92,-82,-68
-73,-48,24,61,-48,-12,53,-24,-73,-92,-82,-68
-73,-48,24,61,-48,-12,53,-24,-73,-92,-82,-73
-73,-48,24,61,-48,-12,53,-19,-73,-92,-82,-73
-82,-53,29,68,-56,-12,58,-14,-73,-92,-82,-73
-82,-53,29,68,-56,-12,58,-9,-73,-97,-82,-73
-82,-53,29,68,-56,-12,58,-9,-73,-97,-82,-73
-87,-48,39,68,-63,-4,58,-9,-73,-87,-82,-68
-87,-48,39,68,-63,-4,58,-9,-68,-82,-82,-63
-87,-48,39,68,-63,-4,58,-9,-68,-87,-82,-63
-87,-48,39,68,-63,-4,63,-9,-68,-87,-82,-63
-87,-48,39,68,-63,-4,63,-9,-68,-92,-87,-68
-92,-48,43,70,-68,-2,63,-9,-68,-92,-92,-73
-92,-48,43,70,-68,-2,63,-4,-63,-92,-87,-73
-87,-43,43,65,-65,0,58,0,-63,-92,-87,-68
-82,-43,39,63,-61,-2,58,0,-63,-92,-87,-68
-82,-43,39,63,-61,-2,58,-4,-63,-92,-87,-68
-82,-43,39,63,-61,-2,63,0,-68,-92,-87,-68
-82,-43,39,63,-61,-2,68,4,-68,-92,-87,-68
-82,-43,39,63,-61,-2,73,4,-63,-87,-82,-68
-82,-39,43,61,-63,2,73,4,-63,-87,-78,-68
-82,-34,48,58,-65,7,73,4,-58,-87,-73,-63
-78,-34,43,56,-61,4,73,4,-58,-87,-73,-63
-73,-34,39,53,-56,2,68,4,-58,-87,-82,-68
-68,-34,34,51,-51,0,63,9,-58,-87,-87,-68
-68,-29,39,48,-53,4,73,39,-34,-78,-82,-63
-68,-14,53,41,-61,19,87,53,-14,-68,-73,-58
-68,0,68,34,-68,34,87,78,14,-48,-58,-53
-68,24,92,21,-80,58,117,107,53,-19,-48,-43
-87,58,146,14,-117,102,180,126,63,-24,-48,-43
-122,87,209,17,-165,148,190,48,24,-29,-43,-34
-146,136,283,4,-214,209,87,-161,-78,-43,-24,14
-156,195,351,-19,-253,273,-63,-405,-195,-14,53,126
-78,253,331,-87,-204,292,-258,-551,-219,102,224,278
24,224,200,-124,-87,212,-483,-732,-297,185,366,405
200,112,-87,-156,143,12,-707,-946,-424,278,522,536
409,-34,-444,-187,427,-239,-995,-1205,-595,356,683,692
629,-161,-790,-234,710,-475,-1263,-1527,-849,419,893,873
771,-302,-1073,-234,922,-688,-1459,-1781,-1093,370,956,922
839,-585,-1424,-126,1132,-1005,-1561,-2010,-1327,73,624,605
839,-946,-1786,53,1312,-1366,-1537,-2098,-1586,-439,63,78
741,-1327,-2069,292,1405,-1698,-1410,-2074,-1834,-985,-546,-497
580,-1522,-2103,470,1342,-1812,-1195,-1898,-1937,-1342,-951,-868
478,-1464,-1942,492,1210,-1703,-946,-1517,-1786,-1385,-1044,-956
414,-1351,-1766,468,1090,-1559,-746,-1200,-1556,-1288,-1029,-971
326,-1268,-1595,470,961,-1432,-614,-1010,-1361,-1205,-1015,-971
214,-1151,-1366,468,790,-1259,-497,-858,-1190,-1093,-956,-917
82,-1073,-1156,495,619,-1115,-346,-727,-1058,-1000,-927,-888
14,-1010,-1024,497,519,-1017,-214,-600,-946,-936,-897,-863
9,-951,-961,470,485,-956,-161,-502,-844,-883,-844,-814
9,-834,-844,412,427,-839,-136,-419,-727,-771,-736,-717
-9,-639,-629,324,309,-634,-92,-312,-570,-585,-580,-556
-9,-468,-458,239,224,-463,-19,-190,-409,-453,-448,-439
-39,-331,-292,185,126,-312,19,-102,-278,-356,-346,-331
-68,-170,-102,119,17,-136,48,-9,-141,-214,-200,-200
-68,-73,-4,70,-31,-39,73,63,-39,-82,-107,-112
-58,-24,34,41,-46,4,107,97,19,-39,-63,-78
-53,-4,48,29,-51,21,107,117,34,-39,-58,-63
-53,14,68,19,-61,41,92,122,39,-29,-48,-53
-53,34,87,9,-70,61,92,122,48,-4,-34,-29
-53,39,92,7,-73,65,102,126,63,-4,-29,-24
-58,39,97,9,-78,68,112,136,68,-4,-29,-24
-58,43,102,7,-80,73,117,136,78,-4,-29,-19
-58,48,107,4,-82,78,112,136,82,4,-24,-14
-58,48,107,4,-82,78,112,141,87,9,-19,-14
-63,48,112,7,-87,80,107,141,87,9,-14,-14
-63,48,112,7,-87,80,102,146,92,9,-9,-14
-63,53,117,4,-90,85,102,146,97,9,-9,-9
-63,53,117,4,-90,85,102,146,97,14,-9,-9
-63,58,122,2,-92,90,107,146,102,19,-9,-9
-63,63,126,0,-95,95,107,146,112,19,-4,-4
-63,68,131,-2,-97,100,107,151,107,24,-9,-4
-68,68,136,0,-102,102,102,151,102,24,-14,-9
-68,68,136,0,-102,102,97,156,112,29,-9,-9
-58,73,131,-7,-95,102,97,161,112,29,-9,-9
-58,73,131,-7,-95,102,97,165,117,34,-9,-9
-53,78,131,-12,-92,104,97,170,122,39,-4,-4
-53,82,136,-14,-95,109,97,175,126,43,0,0
-58,87,146,-14,-102,117,97,180,136,53,0,0
-58,87,146,-14,-102,117,102,190,146,63,14,4
-53,92,146,-19,-100,119,102,195,156,63,19,9
-48,102,151,-26,-100,126,92,200,165,68,24,9
-43,107,151,-31,-97,129,92,204,170,78,29,14
-43,102,146,-29,-95,124,92,219,185,87,34,24
-43,97,141,-26,-92,119,92,224,195,92,34,24
-39,112,151,-36,-95,131,92,234,204,107,43,34
-34,126,161,-46,-97,143,92,248,224,122,53,39
-34,136,170,-51,-102,153,92,253,248,136,58,53
-29,146,175,-58,-102,161,92,268,258,146,68,58
-14,156,170,-70,-92,163,87,273,273,156,78,63
-4,170,175,-82,-90,173,87,283,297,175,92,73
-4,185,190,-90,-97,187,87,297,322,195,112,78
0,195,195,-97,-97,195,87,312,341,214,122,87
4,204,200,-104,-97,202,82,336,366,239,136,102
19,229,209,-124,-95,219,63,356,385,258,156,117
29,253,224,-141,-97,239,63,375,414,292,180,136
48,273,224,-161,-87,248,63,405,458,331,209,161
58,297,239,-178,-90,268,53,429,488,366,239,185
78,326,248,-202,-85,287,53,453,527,400,263,214
87,356,268,-222,-90,312,48,478,566,444,292,239
107,385,278,-246,-85,331,48,502,605,483,326,263
131,414,283,-273,-75,348,43,527,649,531,366,297
156,439,283,-297,-63,361,29,546,678,575,395,322
180,468,287,-324,-53,378,19,570,717,619,434,351
204,497,292,-351,-43,395,9,595,756,658,468,380
224,531,307,-378,-41,419,0,605,785,697,502,409
248,566,317,-407,-34,441,-9,619,819,727,536,434
263,585,322,-424,-29,453,-24,644,849,766,566,463
297,605,307,-451,-4,456,-34,653,863,790,585,478
317,619,302,-468,7,461,-53,658,883,814,614,502
336,634,297,-485,19,466,-68,658,897,834,634,522
346,644,297,-495,24,470,-73,663,897,849,653,536
366,649,283,-507,41,466,-87,653,883,849,653,546
380,653,273,-517,53,463,-97,644,878,849,653,551
385,644,258,-514,63,451,-97,624,858,834,644,551
375,629,253,-502,61,441,-102,595,819,800,624,536
366,610,244,-488,61,427,-107,561,775,766,600,517
361,570,209,-466,75,390,-112,522,736,727,575,492
351,551,200,-451,75,375,-112,488,692,688,546,478
322,517,195,-419,63,356,-107,458,634,639,517,453
307,492,185,-400,61,339,-107,405,570,580,473,409
273,448,175,-361,48,312,-92,366,517,522,424,375
258,405,146,-331,56,275,-87,322,463,468,385,341
224,370,146,-297,39,258,-78,278,400,409,346,307
200,331,131,-265,34,231,-63,234,346,351,297,278
170,292,122,-231,24,207,-53,204,292,307,253,234
141,253,112,-197,14,183,-53,180,248,258,219,195
126,219,92,-173,17,156,-53,146,204,204,175,170
97,185,87,-141,4,136,-39,117,161,165,146,141
73,156,82,-114,-4,119,-24,92,126,136,117,112
34,126,92,-80,-29,109,-19,73,107,107,92,92
39,102,63,-70,-12,82,-14,48,73,78,73,73
39,87,48,-63,-4,68,-14,29,39,48,53,58
4,68,63,-36,-29,65,-9,14,24,34,39,43
-9,43,53,-17,-31,48,0,0,14,14,19,29
-19,34,53,-7,-36,43,0,-4,4,9,9,19
-24,24,48,0,-36,36,4,-14,-14,-9,-4,9
-24,9,34,7,-29,21,14,-14,-34,-24,-19,-9
-39,0,39,19,-39,19,24,-24,-43,-39,-29,-19
-43,-9,34,26,-39,12,24,-24,-53,-48,-34,-24
-53,-14,39,34,-46,12,24,-24,-53,-48,-34,-24
-58,-19,39,39,-48,9,29,-29,-58,-48,-39,-29
-58,-19,39,39,-48,9,34,-39,-63,-58,-43,-39
-58,-24,34,41,-46,4,34,-39,-73,-68,-53,-39
-58,-34,24,46,-41,-4,34,-39,-78,-73,-53,-39
-63,-34,29,48,-46,-2,39,-39,-78,-78,-53,-43
-63,-34,29,48,-46,-2,39,-39,-82,-78,-58,-43
-73,-34,39,53,-56,2,39,-39,-82,-78,-58,-43
-78,-34,43,56,-61,4,39,-39,-82,-78,-53,-43
-78,-34,43,56,-61,4,34,-39,-87,-82,-53,-48
-78,-34,43,56,-61,4,29,-39,-87,-82,-58,-48
-78,-39,39,58,-58,0,29,-39,-87,-82,-58,-53
-78,-43,34,61,-56,-4,29,-43,-87,-82,-63,-53
-78,-48,29,63,-53,-9,29,-48,-87,-82,-63,-58
-73,-48,24,61,-48,-12,29,-53,-87,-87,-63,-58
-73,-43,29,58,-51,-7,39,-53,-87,-87,-68,-53
-68,-43,24,56,-46,-9,43,-53,-87,-87,-73,-53
-68,-43,24,56,-46,-9,43,-39,-87,-87,-73,-48
-73,-43,29,58,-51,-7,43,-29,-87,-87,-73,-48
-73,-48,24,61,-48,-12,43,-29,-87,-82,-68,-48
-73,-48,24,61,-48,-12,43,-29,-82,-82,-63,-48
-73,-53,19,63,-46,-17,48,-34,-82,-82,-68,-53
-73,-53,19,63,-46,-17,48,-34,-82,-82,-68,-58
-68,-53,14,61,-41,-19,39,-29,-82,-87,-68,-58
-68,-53,14,61,-41,-19,34,-29,-78,-87,-68,-58
-73,-53,19,63,-46,-17,34,-24,-78,-87,-73,-63
-73,-53,19,63,-46,-17,34,-19,-73,-87,-78,-63
-73,-53,19,63,-46,-17,39,-14,-73,-87,-78,-63
-73,-53,19,63,-46,-17,39,-9,-73,-82,-78,-63
-73,-53,19,63,-46,-17,43,-9,-68,-78,-73,-63
-73,-48,24,61,-48,-12,53,0,-68,-73,-68,-63
-73,-43,29,58,-51,-7,53,4,-68,-68,-68,-58
-73,-43,29,58,-51,-7,58,4,-58,-68,-68,-53
-73,-43,29,58,-51,-7,58,4,-58,-68,-68,-53
-73,-39,34,56,-53,-2,58,9,-58,-63,-63,-53
-73,-34,39,53,-56,2,53,9,-53,-63,-58,-53
-73,-29,43,51,-58,7,43,14,-48,-63,-58,-58
-68,-29,39,48,-53,4,43,19,-43,-63,-58,-58
-68,-24,43,46,-56,9,48,24,-39,-58,-53,-53
-68,-19,48,43,-58,14,48,24,-29,-48,-48,-53
-68,-14,53,41,-61,19,48,29,-19,-39,-43,-48
-63,-14,48,39,-56,17,48,29,-14,-39,-39,-39
-63,-9,53,36,-58,21,48,34,-14,-34,-34,-39
-63,0,63,31,-63,31,53,39,-14,-29,-34,-39
-63,4,68,29,-65,36,58,39,-4,-24,-29,-34
-73,4,78,34,-75,41,58,39,-4,-19,-24,-29
-78,4,82,36,-80,43,58,43,-4,-19,-24,-29
-68,4,73,31,-70,39,48,43,-4,-19,-24,-29
-58,4,63,26,-61,34,43,43,0,-19,-24,-29
-58,4,63,26,-61,34,43,48,0,-19,-24,-19
-58,4,63,26,-61,34,48,53,0,-14,-24,-9
-63,9,73,26,-68,41,48,48,0,-14,-19,-9
-68,14,82,26,-75,48,48,48,0,-14,-19,-9
-63,14,78,24,-70,46,48,43,-4,-14,-19,-9
-63,14,78,24,-70,46,48,39,-4,-14,-19,-9
-58,14,73,21,-65,43,48,39,0,-19,-19,-9
-53,14,68,19,-61,41,48,39,4,-19,-19,-14
-63,9,73,26,-68,41,48,39,0,-19,-19,-14
-63,9,73,26,-68,41,48,34,0,-19,-19,-14
-63,9,73,26,-68,41,53,34,-4,-19,-24,-14
-58,9,68,24,-63,39,53,29,-4,-24,-29,-14
-58,4,63,26,-61,34,53,29,-4,-29,-29,-14
-53,4,58,24,-56,31,53,29,-9,-29,-29,-14
-53,0,53,26,-53,26,48,24,-9,-29,-29,-19
-58,-4,53,31,-56,24,43,19,-9,-29,-29,-24
-58,-4,53,31,-56,24,43,19,-19,-34,-29,-24
-58,-9,48,34,-53,19,43,19,-19,-34,-29,-29
-63,-9,53,36,-58,21,43,14,-24,-39,-34,-24
-73,-9,63,41,-68,26,48,14,-34,-39,-34,-19
-73,-9,63,41,-68,26,48,9,-34,-39,-34,-24
-68,-19,48,43,-58,14,43,9,-39,-43,-39,-24
-63,-19,43,41,-53,12,43,4,-39,-48,-39,-29
-58,-19,39,39,-48,9,43,0,-39,-48,-39,-34
-63,-24,39,43,-51,7,39,-4,-39,-48,-39,-34
-63,-29,34,46,-48,2,39,-4,-39,-48,-39,-34
-63,-29,34,46,-48,2,43,-4,-39,-48,-39,-39
-63,-29,34,46,-48,2,43,-4,-39,-48,-39,-39
-68,-29,39,48,-53,4,43,-4,-39,-48,-39,-39
-68,-24,43,46,-56,9,43,-4,-43,-48,-39,-39
-68,-24,43,46,-56,9,48,-4,-43,-53,-43,-34
-68,-24,43,46,-56,9,53,-4,-48,-53,-43,-39
-63,-24,39,43,-51,7,43,0,-48,-53,-43,-39
-58,-29,29,43,-43,0,39,0,-48,-58,-48,-39
-63,-29,34,46,-48,2,39,0,-48,-58,-48,-39
-68,-29,39,48,-53,4,39,0,-48,-58,-48,-39
-68,-29,39,48,-53,4,39,-4,-48,-58,-48,-39
-68,-29,39,48,-53,4,39,-9,-48,-58,-48,-39
-68,-29,39,48,-53,4,39,-9,-53,-58,-48,-39
-68,-29,39,48,-53,4,39,-9,-58,-58,-48,-39
-68,-29,39,48,-53,4,39,-9,-58,-58,-48,-39
-68,-29,39,48,-53,4,39,-9,-58,-58,-48,-39
-68,-29,39,48,-53,4,39,-9,-53,-58,-48,-39
-68,-29,39,48,-53,4,39,-9,-48,-58,-48,-39
-73,-29,43,51,-58,7,39,-9,-48,-58,-48,-39
-78,-29,48,53,-63,9,39,-9,-48,-58,-48,-39
-78,-29,48,53,-63,9,39,-9,-53,-58,-48,-39
-78,-29,48,53,-63,9,39,-9,-58,-58,-48,-39
-78,-29,48,53,-63,9,43,-4,-58,-58,-48,-39
-78,-29,48,53,-63,9,48,0,-58,-58,-48,-39
-78,-29,48,53,-63,9,48,0,-58,-58,-48,-39
-78,-29,48,53,-63,9,48,0,-58,-58,-48,-39
-73,-29,43,51,-58,7,48,0,-58,-58,-53,-39
-68,-29,39,48,-53,4,48,0,-58,-58,-58,-39
-68,-29,39,48,-53,4,48,-9,-58,-58,-58,-39
-68,-29,39,48,-53,4,48,-19,-58,-58,-58,-39
-73,-29,43,51,-58,7,48,-9,-58,-58,-53,-39
-78,-29,48,53,-63,9,48,0,-58,-58,-48,-39
-78,-34,43,56,-61,4,48,0,-58,-58,-48,-43
-78,-39,39,58,-58,0,48,0,-58,-58,-48,-48
-78,-39,39,58,-58,0,48,-4,-58,-58,-48,-48
-78,-39,39,58,-58,0,48,-9,-58,-58,-48,-48
-78,-34,43,56,-61,4,48,-9,-58,-58,-48,-48
-78,-29,48,53,-63,9,48,-9,-58,-58,-48,-48
-73,-29,43,51,-58,7,48,-9,-58,-63,-48,-48
-68,-29,39,48,-53,4,48,-9,-58,-68,-48,-48
-68,-29,39,48,-53,4,43,-9,-58,-68,-48,-48
-68,-29,39,48,-53,4,39,-9,-58,-68,-48,-48
-68,-29,39,48,-53,4,39,-9,-58,-68,-48,-48
-68,-29,39,48,-53,4,39,-9,-58,-68,-48,-48
-73,-29,43,51,-58,7,43,-9,-53,-63,-48,-43
-78,-29,48,53,-63,9,48,-9,-48,-58,-48,-39
-78,-29,48,53,-63,9,48,-9,-48,-58,-48,-39
-78,-29,48,53,-63,9,48,-9,-48,-58,-48,-39
-73,-29,43,51,-58,7,48,-9,-53,-63,-53,-39
-68,-29,39,48,-53,4,48,-9,-58,-68,-58,-39
-68,-34,34,51,-51,0,48,-9,-58,-68,-58,-39
-68,-39,29,53,-48,-4,48,-9,-58,-68,-58,-39
-68,-39,29,53,-48,-4,48,-9,-58,-68,-58,-39
-68,-39,29,53,-48,-4,48,-9,-58,-68,-58,-39
-68,-39,29,53,-48,-4,48,-9,-58,-68,-58,-39
-68,-39,29,53,-48,-4,48,-9,-58,-68,-58,-39
-68,-39,29,53,-48,-4,48,-9,-58,-68,-53,-39
-68,-39,29,53,-48,-4,48,-9,-58,-68,-48,-39
-68,-34,34,51,-51,0,48,-9,-58,-68,-48,-39
-68,-29,39,48,-53,4,48,-9,-58,-68,-48,-39
-73,-29,43,51,-58,7,48,0,-48,-63,-48,-34
-78,-29,48,53,-63,9,48,9,-39,-58,-48,-29
-78,-24,53,51,-65,14,48,9,-39,-53,-43,-24
-78,-19,58,48,-68,19,48,9,-39,-48,-39,-19
-78,-4,73,41,-75,34,63,9,-29,-43,-34,-14
-78,9,87,34,-82,48,78,9,-19,-39,-29,-9
-78,14,92,31,-85,53,82,14,-19,-39,-29,-9
-78,19,97,29,-87,58,87,19,-19,-39,-29,-9
-78,19,97,29,-87,58,92,29,-14,-34,-29,-9
-78,19,97,29,-87,58,97,39,-9,-29,-29,-9
-78,29,107,24,-92,68,97,39,-4,-24,-29,-9
-78,39,117,19,-97,78,97,39,0,-19,-29,-9
-68,39,107,14,-87,73,87,34,0,-19,-19,-4
-58,39,97,9,-78,68,78,29,0,-19,-9,0
-58,39,97,9,-78,68,73,24,-4,-19,-9,0
-58,39,97,9,-78,68,68,19,-9,-19,-9,0
-63,29,92,17,-78,61,48,4,-14,-29,-19,-4
-68,19,87,24,-78,53,29,-9,-19,-39,-29,-9
-68,19,87,24,-78,53,29,-14,-24,-39,-29,-9
-68,19,87,24,-78,53,29,-19,-29,-39,-29,-9
-78,19,97,29,-87,58,29,-19,-29,-39,-29,-9
-87,19,107,34,-97,63,29,-19,-29,-39,-29,-9
-68,14,82,26,-75,48,24,-19,-34,-43,-29,-19
-48,9,58,19,-53,34,19,-19,-39,-48,-29,-29
-48,0,48,24,-48,24,19,-19,-39,-48,-29,-29
-48,-9,39,29,-43,14,19,-19,-39,-48,-29,-29
-43,-9,34,26,-39,12,19,-19,-39,-43,-29,-24
-39,-9,29,24,-34,9,19,-19,-39,-39,-29,-19
-39,-4,34,21,-36,14,19,-9,-39,-39,-19,-14
-39,0,39,19,-39,19,19,0,-39,-39,-9,-9
-43,0,43,21,-43,21,24,0,-39,-39,-19,-9
-48,0,48,24,-48,24,29,0,-39,-39,-29,-9
-48,-14,34,31,-41,9,29,-4,-43,-48,-34,-19
-53,-24,29,39,-41,2,34,-9,-43,-53,-39,-24
-58,-39,19,48,-39,-9,39,-14,-48,-63,-43,-34
-68,-43,24,56,-46,-9,43,-14,-48,-68,-48,-39
-73,-43,29,58,-51,-7,48,-14,-48,-68,-48,-39
-87,-48,39,68,-63,-4,53,-14,-53,-78,-48,-43
-87,-48,39,68,-63,-4,53,-19,-63,-82,-63,-48
-87,-58,29,73,-58,-14,58,-19,-63,-82,-68,-48
-87,-58,29,73,-58,-14,58,-14,-63,-82,-68,-53
-92,-58,34,75,-63,-12,63,-4,-63,-82,-68,-58
-92,-58,34,75,-63,-12,63,-4,-63,-82,-73,-58
-92,-58,34,75,-63,-12,63,-4,-63,-82,-73,-58
-92,-58,34,75,-63,-12,63,-9,-63,-82,-73,-63
-92,-58,34,75,-63,-12,63,-14,-63,-82,-73,-63
-97,-63,34,80,-65,-14,68,-14,-63,-82,-73,-63
-92,-63,29,78,-61,-17,68,-9,-63,-87,-73,-63
-92,-63,29,78,-61,-17,68,-9,-63,-87,-73,-63
-92,-58,34,75,-63,-12,68,-9,-63,-82,-73,-63
-87,-58,29,73,-58,-14,68,-9,-58,-82,-73,-58
-87,-58,29,73,-58,-14,68,-9,-58,-87,-73,-53
-87,-58,29,73,-58,-14,68,-9,-63,-87,-73,-53
-87,-58,29,73,-58,-14,63,-9,-68,-87,-73,-53
-92,-53,39,73,-65,-7,63,-9,-68,-82,-73,-58
-92,-48,43,70,-68,-2,68,-4,-63,-82,-68,-63
-87,-43,43,65,-65,0,73,4,-58,-82,-68,-58
-87,-43,43,65,-65,0,78,9,-53,-82,-68,-58
-92,-48,43,70,-68,-2,78,4,-53,-82,-68,-58
-92,-53,39,73,-65,-7,78,4,-58,-82,-68,-58
-92,-53,39,73,-65,-7,78,0,-58,-82,-68,-58
-92,-53,39,73,-65,-7,82,-4,-53,-78,-68,-58
-97,-48,48,73,-73,0,82,-4,-53,-78,-68,-58
-102,-43,58,73,-80,7,82,0,-48,-78,-63,-53
-97,-43,53,70,-75,4,82,4,-48,-78,-63,-53
-97,-43,53,70,-75,4,82,4,-48,-78,-68,-58
-97,-43,53,70,-75,4,78,9,-53,-78,-68,-58
-97,-39,58,68,-78,9,82,39,-34,-68,-63,-53
-92,-24,68,58,-80,21,97,53,-14,-58,-53,-48
-87,-4,82,46,-85,39,97,73,9,-39,-39,-43
-87,24,112,31,-100,68,126,87,39,-9,-29,-34
-107,58,165,24,-136,112,161,58,34,-9,-24,-24
-141,87,229,26,-185,158,122,-82,-24,-14,-14,-4
-141,136,278,2,-209,207,-24,-326,-136,-19,34,58
-126,195,322,-34,-224,258,-204,-595,-253,24,141,185
-29,224,253,-97,-141,239,-414,-766,-302,131,297,336
92,170,78,-131,7,124,-653,-966,-405,209,424,463
268,48,-219,-158,244,-85,-883,-1205,-561,273,566,580
468,-107,-575,-180,522,-341,-1171,-1478,-751,326,722,732
653,-253,-907,-200,780,-580,-1405,-1800,-995,336,839,829
785,-409,-1195,-187,990,-802,-1561,-2030,-1229,234,819,805
834,-683,-1517,-75,1176,-1100,-1610,-2181,-1434,-82,473,468
824,-1039,-1864,107,1344,-1451,-1512,-2171,-1654,-605,-112,-87
751,-1342,-2093,295,1422,-1717,-1342,-2025,-1805,-1034,-619,-566
600,-1464,-2064,431,1332,-1764,-1122,-1781,-1849,-1317,-956,-873
507,-1400,-1908,446,1207,-1654,-902,-1439,-1703,-1351,-1034,-951
434,-1298,-1732,431,1083,-1515,-717,-1166,-1459,-1239,-995,-941
336,-1229,-1566,446,951,-1398,-585,-1000,-1283,-1176,-995,-951
219,-1122,-1342,451,780,-1232,-463,-858,-1141,-1068,-936,-907
102,-1063,-1166,480,634,-1115,-322,-727,-1019,-990,-907,-888
43,-1015,-1058,485,551,-1037,-200,-595,-907,-936,-888,-863
29,-936,-966,453,497,-951,-141,-492,-800,-863,-829,-800
19,-795,-814,387,417,-805,-117,-409,-683,-741,-707,-688
-9,-610,-600,309,295,-605,-73,-302,-531,-566,-551,-527
-9,-448,-439,229,214,-444,0,-180,-370,-434,-419,-409
-34,-317,-283,175,124,-300,29,-97,-244,-341,-326,-307
-63,-156,-92,109,14,-124,48,0,-107,-190,-185,-180
-68,-63,4,65,-36,-29,68,78,-19,-63,-97,-102
-58,-24,34,41,-46,4,102,107,24,-39,-58,-78
-53,-4,48,29,-51,21,107,122,43,-39,-48,-63
-53,14,68,19,-61,41,92,122,48,-29,-39,-53
-53,29,82,12,-68,56,92,122,58,-4,-24,-34
-53,29,82,12,-68,56,97,126,73,-4,-19,-34
-58,29,87,14,-73,58,97,136,73,-4,-19,-34
-63,34,97,14,-80,65,97,141,82,-4,-19,-24
-68,39,107,14,-87,73,92,146,92,4,-14,-14
-68,39,107,14,-87,73,97,151,97,14,-9,-14
-73,39,112,17,-92,75,102,151,97,19,-9,-14
-68,39,107,14,-87,73,107,156,102,19,-9,-14
-63,43,107,9,-85,75,112,156,107,19,-9,-9
-63,43,107,9,-85,75,112,156,107,24,-9,-9
-63,48,112,7,-87,80,117,156,112,29,-9,-9
-63,53,117,4,-90,85,117,156,122,29,-4,-4
-63,58,122,2,-92,90,117,161,122,34,-4,-4
-68,58,126,4,-97,92,112,161,122,34,-4,-9
-68,58,126,4,-97,92,112,165,131,39,0,-9
-58,63,122,-2,-90,92,117,170,131,39,0,-9
-58,63,122,-2,-90,92,117,175,136,43,0,-9
-53,73,126,-9,-90,100,117,180,141,48,4,-4
-53,78,131,-12,-92,104,117,185,146,53,9,0
-58,78,136,-9,-97,107,117,190,156,63,9,0
-58,78,136,-9,-97,107,122,200,165,73,19,4
-53,82,136,-14,-95,109,122,204,175,73,19,9
-48,92,141,-21,-95,117,112,209,185,78,24,9
-43,97,141,-26,-92,119,112,214,190,87,29,14
-43,97,141,-26,-92,119,112,229,204,97,39,24
-43,92,136,-24,-90,114,112,234,214,102,43,24
-39,102,141,-31,-90,122,112,244,224,117,53,34
-34,117,151,-41,-92,134,117,258,244,131,63,39
-34,126,161,-46,-97,143,122,268,268,146,68,53
-29,136,165,-53,-97,151,122,287,278,156,78,58
-14,146,161,-65,-87,153,117,297,292,170,87,63
-4,161,165,-78,-85,163,117,312,317,195,102,73
0,180,180,-90,-90,180,117,326,341,214,122,82
9,200,190,-104,-90,195,117,341,361,234,131,97
14,214,200,-114,-92,207,117,366,390,258,146,112
24,239,214,-131,-95,226,102,390,419,278,165,126
29,263,234,-146,-102,248,102,414,453,312,190,146
48,283,234,-165,-92,258,107,444,497,351,214,170
58,307,248,-183,-95,278,97,468,527,385,239,190
78,336,258,-207,-90,297,92,492,566,419,263,214
92,366,273,-229,-90,319,82,522,605,463,292,239
117,395,278,-256,-80,336,73,551,644,502,326,263
141,424,283,-283,-70,353,63,575,688,546,366,297
165,448,283,-307,-58,366,48,595,717,585,395,322
190,478,287,-334,-48,383,39,619,756,629,429,351
214,507,292,-361,-39,400,34,644,800,668,458,380
234,536,302,-385,-34,419,29,653,829,707,492,409
258,566,307,-412,-24,436,19,668,858,736,531,434
273,585,312,-429,-19,448,4,688,888,775,566,463
307,605,297,-456,4,451,-4,692,902,800,585,478
322,619,297,-470,12,458,-24,697,917,819,610,502
336,634,297,-485,19,466,-43,702,927,834,624,522
346,639,292,-492,26,466,-53,707,927,849,644,531
366,639,273,-502,46,456,-68,692,912,849,644,536
375,639,263,-507,56,451,-78,678,902,844,644,536
375,624,248,-500,63,436,-78,649,878,824,634,531
366,610,244,-488,61,427,-78,614,839,790,614,517
356,595,239,-475,58,417,-78,580,795,756,590,497
346,561,214,-453,65,387,-82,541,751,712,561,473
336,541,204,-439,65,373,-87,507,702,668,527,458
312,502,190,-407,61,346,-87,473,644,619,497,434
297,473,175,-385,61,324,-87,414,580,566,453,390
263,429,165,-346,48,297,-73,375,527,512,405,356
248,385,136,-317,56,261,-63,331,473,458,366,322
214,351,136,-283,39,244,-53,287,409,400,326,287
190,307,117,-248,36,212,-43,244,356,341,278,258
161,263,102,-212,29,183,-34,209,302,297,239,219
131,224,92,-178,19,158,-43,175,253,244,209,185
117,195,78,-156,19,136,-53,136,204,190,165,161
92,165,73,-129,9,119,-43,107,161,156,136,131
82,136,53,-109,14,95,-34,82,126,126,107,102
53,107,53,-80,0,80,-29,63,102,97,82,82
43,82,39,-63,2,61,-24,39,68,68,63,63
29,68,39,-48,-4,53,-14,19,39,39,43,48
4,53,48,-29,-21,51,0,9,24,24,29,34
-4,34,39,-14,-21,36,9,0,14,4,9,19
-19,24,43,-2,-31,34,9,-4,4,0,4,9
-24,14,39,4,-31,26,14,-14,-14,-19,-4,0
-24,0,24,12,-24,12,19,-14,-29,-29,-19,-14
-39,-9,29,24,-34,9,24,-29,-29,-39,-29,-19
-43,-19,24,31,-34,2,24,-34,-34,-48,-34,-24
-53,-24,29,39,-41,2,24,-34,-34,-48,-34,-19
-58,-29,29,43,-43,0,29,-39,-39,-48,-39,-19
-58,-29,29,43,-43,0,34,-48,-43,-58,-43,-29
-58,-29,29,43,-43,0,34,-48,-48,-63,-53,-29
-58,-34,24,46,-41,-4,34,-48,-48,-63,-53,-29
-63,-34,29,48,-46,-2,39,-48,-48,-68,-53,-34
-63,-34,29,48,-46,-2,39,-48,-58,-68,-58,-39
-68,-39,29,53,-48,-4,39,-48,-63,-68,-58,-43
-68,-43,24,56,-46,-9,39,-48,-63,-68,-53,-43
-68,-43,24,56,-46,-9,39,-48,-68,-73,-53,-48
-68,-43,24,56,-46,-9,34,-48,-68,-73,-58,-48
-68,-48,19,58,-43,-14,29,-48,-68,-73,-58,-53
-63,-53,9,58,-36,-21,29,-53,-68,-73,-63,-53
-63,-58,4,61,-34,-26,29,-53,-68,-73,-63,-58
-63,-58,4,61,-34,-26,29,-48,-68,-78,-63,-58
-63,-53,9,58,-36,-21,34,-43,-68,-78,-63,-53
-63,-53,9,58,-36,-21,34,-43,-68,-78,-63,-53
-68,-53,14,61,-41,-19,34,-34,-68,-78,-63,-53
-73,-53,19,63,-46,-17,34,-29,-68,-78,-63,-58
-73,-58,14,65,-43,-21,34,-29,-68,-73,-63,-58
-73,-58,14,65,-43,-21,34,-29,-58,-73,-63,-58
-73,-58,14,65,-43,-21,39,-29,-53,-73,-68,-58
-73,-53,19,63,-46,-17,43,-24,-53,-73,-68,-58
-68,-53,14,61,-41,-19,43,-19,-53,-78,-68,-58
-68,-53,14,61,-41,-19,48,-19,-48,-78,-68,-58
-73,-53,19,63,-46,-17,53,-19,-48,-78,-68,-63
-73,-53,19,63,-46,-17,53,-19,-43,-78,-68,-63
-73,-53,19,63,-46,-17,58,-14,-43,-78,-68,-63
-78,-53,24,65,-51,-14,53,-9,-43,-73,-68,-63
-82,-53,29,68,-56,-12,48,-9,-39,-73,-68,-63
-82,-48,34,65,-58,-7,53,0,-39,-73,-68,-63
-82,-43,39,63,-61,-2,53,4,-39,-68,-68,-63
-78,-43,34,61,-56,-4,58,4,-34,-73,-68,-63
-73,-43,29,58,-51,-7,58,4,-39,-78,-68,-63
-73,-39,34,56,-53,-2,58,9,-39,-73,-63,-63
-73,-34,39,53,-56,2,58,9,-34,-68,-58,-58
-73,-29,43,51,-58,7,53,9,-29,-63,-58,-58
-68,-29,39,48,-53,4,53,9,-24,-63,-58,-58
-68,-29,39,48,-53,4,58,14,-19,-58,-53,-53
-68,-29,39,48,-53,4,58,14,-14,-53,-48,-53
-68,-24,43,46,-56,9,58,19,-9,-43,-43,-48
-63,-24,39,43,-51,7,58,19,-4,-39,-39,-39
-63,-19,43,41,-53,12,58,24,-4,-34,-39,-39
-63,-9,53,36,-58,21,58,29,-4,-29,-43,-39
-63,-4,58,34,-61,26,58,29,4,-34,-39,-39
-63,-4,58,34,-61,26,58,29,4,-39,-34,-39
-58,-4,53,31,-56,24,58,34,4,-39,-34,-39
-58,-4,53,31,-56,24,53,34,4,-39,-34,-39
-58,-4,53,31,-56,24,53,29,4,-34,-34,-34
-58,-4,53,31,-56,24,53,24,0,-29,-34,-24
-58,-4,53,31,-56,24,58,24,0,-24,-29,-19
-58,-4,53,31,-56,24,58,19,0,-24,-19,-19
-58,-4,53,31,-56,24,58,24,0,-24,-19,-19
-53,-4,48,29,-51,21,58,29,-4,-24,-19,-19
-53,-4,48,29,-51,21,58,29,-4,-24,-19,-19
-53,-4,48,29,-51,21,58,29,-4,-29,-19,-19
-53,0,53,26,-53,26,58,29,-4,-29,-24,-24
-63,0,63,31,-63,31,58,29,-9,-29,-29,-24
-63,0,63,31,-63,31,58,24,-9,-29,-29,-24
-63,0,63,31,-63,31,58,24,-14,-29,-34,-24
-58,0,58,29,-58,29,48,19,-14,-34,-39,-24
-58,-4,53,31,-56,24,43,19,-14,-39,-39,-24
-53,-4,48,29,-51,21,43,19,-19,-39,-39,-24
-53,-4,48,29,-51,21,43,14,-19,-39,-39,-24
-58,-9,48,34,-53,19,43,9,-19,-39,-39,-24
-58,-14,43,36,-51,14,43,9,-29,-43,-39,-24
-58,-19,39,39,-48,9,48,9,-29,-39,-34,-29
-58,-19,39,39,-48,9,53,4,-29,-39,-34,-29
-63,-19,43,41,-53,12,58,4,-34,-39,-34,-29
-63,-19,43,41,-53,12,58,0,-34,-39,-34,-34
-58,-24,34,41,-46,4,53,0,-39,-43,-39,-34
-58,-19,39,39,-48,9,53,0,-39,-48,-39,-34
-58,-19,39,39,-48,9,53,0,-39,-48,-39,-34
-63,-19,43,41,-53,12,48,-4,-39,-48,-39,-34
-63,-19,43,41,-53,12,43,-4,-39,-53,-39,-34
-63,-19,43,41,-53,12,43,-4,-39,-58,-39,-39
-63,-24,39,43,-51,7,43,-4,-34,-58,-39,-39
-68,-34,34,51,-51,0,43,-4,-29,-58,-39,-39
-68,-34,34,51,-51,0,48,-4,-34,-58,-39,-39
-68,-34,34,51,-51,0,53,-4,-34,-63,-43,-34
-63,-29,34,46,-48,2,53,-4,-39,-63,-43,-34
-63,-29,34,46,-48,2,53,-4,-43,-68,-48,-39
-63,-29,34,46,-48,2,48,-4,-43,-63,-43,-39
-68,-29,39,48,-53,4,48,-9,-48,-58,-39,-39
-68,-29,39,48,-53,4,48,-4,-48,-58,-39,-39
-68,-29,39,48,-53,4,48,0,-48,-58,-39,-39
-68,-29,39,48,-53,4,48,0,-48,-58,-43,-39
-68,-29,39,48,-53,4,48,0,-48,-58,-48,-39
-63,-29,34,46,-48,2,48,0,-48,-58,-48,-39
-58,-29,29,43,-43,0,48,0,-48,-58,-48,-39
-58,-29,29,43,-43,0,48,0,-48,-58,-53,-39
-58,-29,29,43,-43,0,48,0,-48,-58,-58,-39
-58,-29,29,43,-43,0,48,-4,-48,-58,-58,-39
-58,-29,29,43,-43,0,48,-9,-48,-58,-58,-39
-63,-29,34,46,-48,2,48,-9,-48,-58,-53,-39
-68,-29,39,48,-53,4,48,-9,-48,-58,-48,-39
-68,-29,39,48,-53,4,48,-9,-48,-58,-48,-39
-68,-29,39,48,-53,4,48,-9,-48,-58,-48,-39
-68,-29,39,48,-53,4,48,-9,-48,-58,-48,-39
-68,-29,39,48,-53,4,48,-9,-48,-58,-48,-39
-68,-29,39,48,-53,4,48,-9,-48,-58,-48,-39
-68,-29,39,48,-53,4,48,-9,-48,-58,-48,-39
-68,-29,39,48,-53,4,48,-9,-48,-63,-48,-39
-68,-29,39,48,-53,4,48,-9,-48,-68,-48,-39
-63,-29,34,46,-48,2,48,-9,-48,-68,-48,-39
-58,-29,29,43,-43,0,48,-9,-48,-68,-48,-39
-58,-29,29,43,-43,0,48,-9,-48,-63,-48,-39
-58,-29,29,43,-43,0,48,-9,-48,-58,-48,-39
-63,-34,29,48,-46,-2,48,-9,-48,-58,-48,-39
-68,-39,29,53,-48,-4,48,-9,-48,-58,-48,-39
-68,-39,29,53,-48,-4,48,-9,-48,-58,-48,-39
-68,-39,29,53,-48,-4,48,-9,-48,-58,-48,-39
-68,-34,34,51,-51,0,48,-9,-48,-58,-48,-39
-68,-29,39,48,-53,4,48,-9,-48,-58,-48,-39
-68,-29,39,48,-53,4,48,-9,-48,-58,-48,-34
-68,-29,39,48,-53,4,48,-9,-48,-58,-48,-29
-68,-29,39,48,-53,4,53,-9,-48,-58,-48,-29
-68,-29,39,48,-53,4,58,-9,-48,-58,-48,-29
-68,-29,39,48,-53,4,58,-9,-48,-58,-48,-34
-68,-29,39,48,-53,4,58,-9,-48,-58,-48,-39
-68,-34,34,51,-51,0,53,-9,-48,-58,-48,-39
-68,-39,29,53,-48,-4,48,-9,-48,-58,-48,-39
-68,-39,29,53,-48,-4,48,-9,-48,-63,-48,-39
-68,-39,29,53,-48,-4,48,-9,-48,-68,-48,-39
-68,-39,29,53,-48,-4,48,-9,-48,-68,-48,-39
-68,-39,29,53,-48,-4,48,-9,-48,-68,-48,-39
-68,-34,34,51,-51,0,48,-4,-48,-68,-48,-39
-68,-29,39,48,-53,4,48,0,-48,-68,-48,-39
-68,-19,48,43,-58,14,58,0,-39,-58,-43,-29
-68,-9,58,39,-63,24,68,0,-29,-48,-39,-19
-68,0,68,34,-68,34,78,9,-19,-43,-34,-19
-68,9,78,29,-73,43,87,19,-9,-39,-29,-19
-68,9,78,29,-73,43,92,19,-9,-39,-29,-19
-68,9,78,29,-73,43,97,19,-9,-39,-29,-19
-68,14,82,26,-75,48,97,29,-4,-34,-24,-14
-68,19,87,24,-78,53,97,39,0,-29,-19,-9
-63,29,92,17,-78,61,97,39,0,-24,-19,-4
-58,39,97,9,-78,68,97,39,0,-19,-19,0
-58,39,97,9,-78,68,87,34,0,-19,-19,0
-58,39,97,9,-78,68,78,29,0,-19,-19,0
-58,39,97,9,-78,68,63,14,-4,-24,-19,-4
-58,39,97,9,-78,68,48,0,-9,-29,-19,-9
-58,29,87,14,-73,58,39,-4,-14,-34,-24,-14
-58,19,78,19,-68,48,29,-9,-19,-39,-29,-19
-58,14,73,21,-65,43,24,-9,-24,-39,-29,-19
-58,9,68,24,-63,39,19,-9,-29,-39,-29,-19
-58,9,68,24,-63,39,19,-9,-29,-43,-29,-19
-58,9,68,24,-63,39,19,-9,-29,-48,-29,-19
-58,4,63,26,-61,34,19,-9,-34,-48,-29,-19
-58,0,58,29,-58,29,19,-9,-39,-48,-29,-19
-53,-9,43,31,-48,17,14,-9,-39,-48,-29,-19
-48,-19,29,34,-39,4,9,-9,-39,-48,-29,-19
-39,-9,29,24,-34,9,9,-14,-39,-43,-29,-19
-29,0,29,14,-29,14,9,-19,-39,-39,-29,-19
-29,0,29,14,-29,14,19,-19,-34,-39,-29,-19
-29,0,29,14,-29,14,29,-19,-29,-39,-29,-19
-39,-4,34,21,-36,14,34,-4,-29,-43,-29,-19
-48,-9,39,29,-43,14,39,9,-29,-48,-29,-19
-53,-19,34,36,-43,7,39,9,-39,-48,-34,-24
-58,-24,34,41,-46,4,39,4,-43,-53,-43,-29
-68,-34,34,51,-51,0,43,4,-48,-63,-53,-39
-68,-34,34,51,-51,0,48,4,-48,-68,-58,-39
-78,-39,39,58,-58,0,58,0,-53,-78,-63,-48
-78,-39,39,58,-58,0,63,-9,-63,-82,-78,-58
-78,-53,24,65,-51,-14,68,-9,-63,-82,-78,-58
-78,-58,19,68,-48,-19,68,-9,-63,-82,-78,-58
-82,-58,24,70,-53,-17,73,-4,-63,-82,-73,-58
-82,-58,24,70,-53,-17,73,-4,-63,-82,-73,-58
-82,-58,24,70,-53,-17,73,-4,-63,-82,-73,-58
-82,-58,24,70,-53,-17,73,-4,-63,-82,-73,-63
-82,-58,24,70,-53,-17,73,-4,-63,-82,-73,-63
-92,-63,29,78,-61,-17,78,-4,-63,-82,-73,-63
-92,-63,29,78,-61,-17,73,0,-63,-87,-73,-63
-92,-63,29,78,-61,-17,68,0,-63,-87,-73,-63
-92,-58,34,75,-63,-12,68,0,-63,-82,-73,-63
-87,-58,29,73,-58,-14,68,0,-58,-82,-73,-63
-87,-58,29,73,-58,-14,68,0,-58,-87,-73,-63
-87,-58,29,73,-58,-14,73,0,-58,-87,-73,-63
-87,-58,29,73,-58,-14,73,0,-58,-87,-73,-63
-92,-58,34,75,-63,-12,73,0,-58,-82,-73,-63
-92,-58,34,75,-63,-12,78,4,-53,-82,-73,-68
-87,-53,34,70,-61,-9,78,9,-53,-82,-78,-68
-87,-53,34,70,-61,-9,78,9,-53,-82,-78,-68
-92,-53,39,73,-65,-7,78,4,-53,-82,-78,-68
-92,-53,39,73,-65,-7,78,4,-58,-82,-78,-63
-92,-53,39,73,-65,-7,78,4,-58,-82,-78,-58
-92,-53,39,73,-65,-7,82,4,-53,-78,-78,-58
-92,-48,43,70,-68,-2,82,4,-53,-78,-78,-58
-92,-43,48,68,-70,2,82,9,-48,-78,-73,-53
-87,-43,43,65,-65,0,82,14,-48,-78,-73,-53
-87,-43,43,65,-65,0,87,14,-43,-73,-73,-58
-87,-43,43,65,-65,0,92,19,-39,-68,-68,-58
-87,-39,48,63,-68,4,102,48,-14,-58,-63,-48
-87,-24,63,56,-75,19,117,63,4,-48,-53,-39
-87,0,87,43,-87,43,112,82,24,-34,-39,-34
-87,34,122,26,-104,78,136,107,53,-9,-29,-24
-107,68,175,19,-141,122,151,53,39,-9,-14,-4
-141,97,239,21,-190,168,112,-97,-24,-9,4,24
-136,146,283,-4,-209,214,-19,-331,-131,-4,58,87
-117,204,322,-43,-219,263,-200,-600,-253,43,170,214
-9,229,239,-109,-124,234,-414,-785,-317,151,331,366
122,165,43,-143,39,104,-658,-1005,-434,224,463,492
297,39,-258,-168,278,-109,-883,-1249,-595,278,605,610
507,-122,-629,-192,568,-375,-1171,-1537,-800,317,751,751
688,-287,-976,-200,832,-631,-1381,-1825,-1054,283,810,800
790,-468,-1259,-161,1024,-863,-1517,-2044,-1298,136,722,717
824,-751,-1576,-36,1200,-1163,-1542,-2156,-1493,-190,356,351
790,-1112,-1903,161,1346,-1507,-1439,-2127,-1712,-732,-239,-224
702,-1381,-2083,339,1393,-1732,-1283,-2000,-1854,-1141,-727,-678
551,-1464,-2015,456,1283,-1739,-1039,-1722,-1849,-1361,-1010,-927
453,-1400,-1854,473,1154,-1627,-834,-1395,-1683,-1371,-1063,-980
395,-1283,-1678,444,1037,-1481,-678,-1132,-1439,-1239,-1010,-961
307,-1215,-1522,453,915,-1368,-546,-956,-1268,-1156,-995,-961
195,-1112,-1307,458,751,-1210,-429,-819,-1122,-1044,-936,-907
78,-1044,-1122,483,600,-1083,-287,-688,-990,-961,-902,-873
24,-990,-1015,483,519,-1002,-165,-561,-878,-907,-868,-844
19,-907,-927,444,473,-917,-112,-458,-771,-834,-800,-780
19,-766,-785,373,402,-775,-87,-370,-649,-702,-678,-668
-9,-580,-570,295,280,-575,-48,-263,-492,-517,-522,-507
-19,-419,-400,219,190,-409,19,-141,-331,-385,-390,-390
-43,-292,-248,168,102,-270,48,-58,-204,-292,-297,-287
-68,-141,-73,104,2,-107,68,29,-73,-156,-161,-161
-68,-53,14,61,-41,-19,87,97,9,-43,-82,-82
-58,-14,43,36,-51,14,117,126,48,-19,-53,-58
-53,0,53,26,-53,26,117,141,63,-19,-48,-43
-53,14,68,19,-61,41,102,141,68,-9,-39,-34
-53,29,82,12,-68,56,97,141,78,14,-24,-14
-53,29,82,12,-68,56,102,146,92,14,-19,-14
-58,29,87,14,-73,58,107,156,92,14,-19,-14
-58,34,92,12,-75,63,107,156,97,14,-19,-9
-58,39,97,9,-78,68,102,156,107,24,-14,-4
-58,39,97,9,-78,68,102,161,117,29,-9,-4
-63,43,107,9,-85,75,107,161,117,29,-9,-4
-63,48,112,7,-87,80,112,165,122,29,-9,-4
-63,53,117,4,-90,85,112,165,126,29,-9,0
-63,53,117,4,-90,85,112,165,126,34,-9,0
-63,58,122,2,-92,90,117,165,131,39,-9,0
-63,63,126,0,-95,95,117,165,141,39,-4,4
-63,68,131,-2,-97,100,122,170,141,43,0,4
-68,68,136,0,-102,102,122,170,141,43,4,0
-68,63,131,2,-100,97,122,180,156,48,9,0
-58,63,122,-2,-90,92,126,190,161,48,9,0
-58,63,122,-2,-90,92,126,195,165,53,9,0
-53,68,122,-7,-87,95,126,200,170,58,14,4
-53,73,126,-9,-90,100,126,204,170,63,19,4
-58,78,136,-9,-97,107,126,209,175,73,19,0
-58,78,136,-9,-97,107,131,219,185,87,29,4
-53,82,136,-14,-95,109,131,224,195,92,29,9
-43,92,136,-24,-90,114,122,229,204,97,29,9
-34,97,131,-31,-82,114,122,234,209,107,29,14
-34,97,131,-31,-82,114,122,253,224,117,39,24
-34,97,131,-31,-82,114,122,263,234,122,43,24
-34,112,146,-39,-90,129,122,273,248,136,58,39
-34,126,161,-46,-97,143,122,287,273,151,73,48
-34,136,170,-51,-102,153,122,297,297,165,78,63
-29,146,175,-58,-102,161,122,317,307,175,87,68
-14,156,170,-70,-92,163,117,326,322,190,97,73
-4,170,175,-82,-90,173,117,341,346,214,112,82
0,195,195,-97,-97,195,122,356,370,239,131,97
9,214,204,-112,-97,209,126,370,390,263,141,117
19,224,204,-122,-92,214,126,395,419,287,156,131
39,248,209,-143,-85,229,112,414,444,307,175,146
48,273,224,-161,-87,248,112,429,473,341,200,165
68,292,224,-180,-78,258,112,453,517,380,229,190
78,317,239,-197,-80,278,92,478,546,414,258,209
97,346,248,-222,-75,297,82,502,585,448,283,234
112,375,263,-244,-75,319,73,531,624,492,312,258
136,405,268,-270,-65,336,68,561,663,531,346,283
161,434,273,-297,-56,353,68,585,712,575,385,317
185,458,273,-322,-43,366,58,605,746,614,414,341
204,488,283,-346,-39,385,48,634,785,658,448,370
224,517,292,-370,-34,405,39,663,824,697,478,400
244,546,302,-395,-29,424,29,673,849,732,517,429
268,575,307,-422,-19,441,19,688,878,756,556,453
283,595,312,-439,-14,453,4,702,907,795,585,483
317,614,297,-466,9,456,-4,702,922,819,605,497
336,629,292,-483,21,461,-24,702,932,834,624,517
356,644,287,-500,34,466,-39,697,936,844,634,531
366,649,283,-507,41,466,-43,697,936,858,653,541
385,649,263,-517,61,456,-58,683,922,858,653,546
395,644,248,-519,73,446,-73,668,912,854,653,546
395,624,229,-509,82,427,-78,644,888,834,644,541
385,610,224,-497,80,417,-78,614,844,800,624,527
375,590,214,-483,80,402,-78,580,795,766,600,507
366,551,185,-458,90,368,-82,541,751,717,566,478
351,531,180,-441,85,356,-82,507,702,668,527,458
322,492,170,-407,75,331,-78,473,644,619,497,434
307,463,156,-385,75,309,-78,414,580,561,453,390
273,424,151,-348,61,287,-63,375,527,502,405,356
258,385,126,-322,65,256,-58,331,473,448,366,322
219,351,131,-285,43,241,-53,287,409,395,326,287
190,312,122,-251,34,217,-43,244,356,341,278,258
161,273,112,-217,24,192,-34,209,302,297,239,219
131,234,102,-183,14,168,-34,180,258,248,209,185
117,200,82,-158,17,141,-34,146,214,200,165,165
87,165,78,-126,4,122,-19,117,170,165,136,141
78,136,58,-107,9,97,-4,92,136,136,107,112
53,107,53,-80,0,80,0,73,117,107,82,92
43,82,39,-63,2,61,9,53,87,78,63,73
29,68,39,-48,-4,53,14,39,58,48,43,58
0,53,53,-26,-26,53,19,29,43,34,34,43
-9,34,43,-12,-26,39,29,19,34,14,19,29
-19,24,43,-2,-31,34,29,14,24,9,14,19
-24,14,39,4,-31,26,34,4,4,-9,4,9
-24,0,24,12,-24,12,39,4,-9,-19,-9,-4
-39,-9,29,24,-34,9,43,-4,-14,-29,-19,-9
-43,-19,24,31,-34,2,43,-4,-24,-39,-24,-14
-53,-24,29,39,-41,2,43,-4,-24,-39,-24,-14
-53,-29,24,41,-39,-2,48,-9,-29,-34,-29,-19
-48,-29,19,39,-34,-4,53,-19,-34,-39,-34,-29
-48,-29,19,39,-34,-4,53,-19,-39,-43,-43,-29
-48,-34,14,41,-31,-9,53,-19,-39,-43,-43,-29
-53,-34,19,43,-36,-7,58,-19,-39,-53,-43,-34
-53,-34,19,43,-36,-7,58,-19,-43,-58,-48,-34
-58,-39,19,48,-39,-9,58,-19,-39,-58,-48,-34
-58,-43,14,51,-36,-14,58,-19,-34,-58,-43,-34
-58,-43,14,51,-36,-14,58,-19,-39,-63,-43,-39
-58,-43,14,51,-36,-14,58,-19,-39,-63,-48,-39
-58,-43,14,51,-36,-14,58,-14,-43,-63,-48,-43
-58,-43,14,51,-36,-14,58,-14,-48,-63,-53,-43
-63,-48,14,56,-39,-17,58,-14,-48,-58,-53,-48
-63,-48,14,56,-39,-17,58,-14,-48,-58,-53,-48
-63,-43,19,53,-41,-12,58,-14,-48,-58,-53,-43
-58,-43,14,51,-36,-14,53,-14,-48,-58,-53,-43
-58,-43,14,51,-36,-14,53,-4,-48,-58,-53,-43
-63,-43,19,53,-41,-12,53,0,-48,-58,-53,-48
-63,-48,14,56,-39,-17,58,0,-48,-53,-53,-48
-63,-48,14,56,-39,-17,63,0,-43,-53,-53,-48
-68,-53,14,61,-41,-19,68,0,-39,-53,-58,-53
-73,-53,19,63,-46,-17,68,4,-34,-53,-58,-58
-68,-53,14,61,-41,-19,63,9,-34,-58,-58,-58
-68,-53,14,61,-41,-19,63,9,-29,-58,-58,-58
-73,-48,24,61,-48,-12,58,14,-34,-58,-58,-58
-73,-43,29,58,-51,-7,53,19,-34,-58,-58,-53
-73,-43,29,58,-51,-7,58,24,-34,-58,-58,-53
-73,-43,29,58,-51,-7,58,29,-34,-53,-58,-53
-73,-43,29,58,-51,-7,68,29,-24,-53,-53,-48
-73,-39,34,56,-53,-2,82,39,-19,-53,-48,-43
-73,-34,39,53,-56,2,82,39,-19,-48,-48,-43
-73,-34,39,53,-56,2,87,34,-9,-48,-48,-43
-73,-34,39,53,-56,2,82,34,-9,-43,-48,-43
-73,-29,43,51,-58,7,78,39,-9,-34,-43,-43
-73,-24,48,48,-61,12,78,43,-4,-29,-39,-39
-73,-19,53,46,-63,17,73,53,0,-24,-39,-39
-68,-19,48,43,-58,14,73,58,4,-24,-34,-39
-68,-14,53,41,-61,19,78,63,9,-19,-24,-34
-68,-9,58,39,-63,24,78,68,14,-14,-19,-34
-68,-4,63,36,-65,29,78,78,19,-9,-14,-29
-63,-4,58,34,-61,26,78,78,24,-9,-9,-19
-63,0,63,31,-63,31,78,82,24,-4,-4,-19
-63,9,73,26,-68,41,82,82,24,0,-4,-19
-63,14,78,24,-70,46,87,78,34,4,0,-14
-63,14,78,24,-70,46,87,78,34,9,4,-9
-58,14,73,21,-65,43,87,82,34,9,4,-9
-58,14,73,21,-65,43,78,82,34,9,4,-9
-58,14,73,21,-65,43,73,82,39,9,4,-9
-58,14,73,21,-65,43,73,82,39,4,4,-4
-58,14,73,21,-65,43,78,82,39,4,4,0
-58,14,73,21,-65,43,78,78,39,4,4,0
-58,14,73,21,-65,43,78,78,39,4,0,0
-53,14,68,19,-61,41,78,78,34,4,0,0
-53,14,68,19,-61,41,78,78,34,4,0,0
-53,14,68,19,-61,41,78,73,34,0,0,0
-53,14,68,19,-61,41,78,68,34,0,0,-4
-58,9,68,24,-63,39,78,68,29,0,0,-4
-53,9,63,21,-58,36,78,63,29,0,0,-4
-53,9,63,21,-58,36,78,63,24,0,-4,-4
-48,9,58,19,-53,34,73,58,24,-4,-9,-4
-58,4,63,26,-61,34,73,63,24,-9,-4,-4
-63,4,68,29,-65,36,73,68,19,-9,0,-4
-63,4,68,29,-65,36,73,63,19,-9,0,-4
-68,4,73,31,-70,39,73,58,19,-9,0,-4
-63,4,68,29,-65,36,73,58,9,-14,-4,-4
-58,0,58,29,-58,29,73,58,9,-14,-9,-9
-58,0,58,29,-58,29,73,53,14,-19,-14,-9
-63,0,63,31,-63,31,78,53,14,-19,-14,-9
-63,4,68,29,-65,36,73,48,14,-14,-14,-14
-58,0,58,29,-58,29,63,48,9,-14,-19,-14
-58,0,58,29,-58,29,63,48,9,-19,-19,-14
-58,0,58,29,-58,29,63,48,9,-19,-19,-14
-63,0,63,31,-63,31,58,43,9,-19,-19,-14
-63,0,63,31,-63,31,58,43,9,-19,-19,-14
-63,0,63,31,-63,31,63,43,9,-19,-14,-14
-63,0,63,31,-63,31,63,43,9,-19,-9,-9
-63,-4,58,34,-61,26,63,43,9,-19,-9,-9
-58,-4,53,31,-56,24,63,43,4,-19,-9,-9
-58,-4,53,31,-56,24,63,43,4,-24,-14,-9
-58,-4,53,31,-56,24,63,43,0,-24,-14,-19
-63,-4,58,34,-61,26,58,39,0,-19,-14,-19
-68,-9,58,39,-63,24,58,39,0,-19,-19,-19
-68,-9,58,39,-63,24,63,43,0,-19,-19,-19
-68,-9,58,39,-63,24,68,48,0,-19,-19,-19
-68,-9,58,39,-63,24,68,48,0,-19,-19,-19
-68,-9,58,39,-63,24,68,48,0,-19,-19,-19
-68,-9,58,39,-63,24,63,48,0,-19,-19,-19
-68,-9,58,39,-63,24,58,48,0,-19,-19,-19
-68,-4,63,36,-65,29,58,43,0,-19,-19,-14
-68,0,68,34,-68,34,58,39,0,-19,-19,-9
-68,0,68,34,-68,34,58,39,0,-19,-19,-9
-68,0,68,34,-68,34,58,39,0,-19,-19,-9
-68,0,68,34,-68,34,58,39,0,-19,-19,-9
-68,0,68,34,-68,34,58,39,0,-19,-19,-9
-68,0,68,34,-68,34,58,43,4,-19,-19,-9
-68,0,68,34,-68,34,58,48,9,-19,-19,-9
-68,0,68,34,-68,34,58,48,9,-19,-19,-14
-68,0,68,34,-68,34,58,48,9,-19,-19,-19
-68,0,68,34,-68,34,58,48,9,-19,-14,-19
-68,0,68,34,-68,34,58,48,9,-19,-9,-19
-68,0,68,34,-68,34,58,48,9,-19,-9,-19
-68,0,68,34,-68,34,58,48,9,-19,-9,-19
-68,0,68,34,-68,34,58,48,9,-19,-14,-19
-68,0,68,34,-68,34,58,48,9,-19,-19,-19
-68,4,73,31,-70,39,58,48,9,-19,-19,-19
-68,9,78,29,-73,43,58,48,9,-19,-19,-19
-68,9,78,29,-73,43,63,48,9,-19,-14,-19
-68,9,78,29,-73,43,68,48,9,-19,-9,-19
-68,9,78,29,-73,43,68,48,9,-19,-9,-19
-68,9,78,29,-73,43,68,48,9,-19,-9,-19
-68,0,68,34,-68,34,68,53,14,-19,-9,-14
-68,-9,58,39,-63,24,68,58,19,-19,-9,-9
-68,0,68,34,-68,34,68,58,19,-14,-9,-9
-68,9,78,29,-73,43,68,58,19,-9,-9,-9
-68,9,78,29,-73,43,68,58,19,-9,-9,-9
-68,9,78,29,-73,43,68,58,19,-9,-9,-9
-63,9,73,26,-68,41,63,58,19,-9,-9,-9
-58,9,68,24,-63,39,58,58,19,-9,-9,-9
-58,19,78,19,-68,48,58,58,24,-9,-9,-9
-58,29,87,14,-73,58,58,58,29,-9,-9,-9
-63,29,92,17,-78,61,63,58,34,-4,-4,-4
-68,29,97,19,-82,63,68,58,39,0,0,0
-68,43,112,12,-90,78,78,63,43,4,4,4
-68,58,126,4,-97,92,87,68,48,9,9,9
-73,58,131,7,-102,95,97,73,58,14,9,9
-78,58,136,9,-107,97,107,78,68,19,9,9
-78,58,136,9,-107,97,112,82,68,19,9,9
-78,58,136,9,-107,97,117,87,68,19,9,9
-73,78,151,-2,-112,114,117,92,73,24,19,19
-68,97,165,-14,-117,131,117,97,78,29,29,29
-63,97,161,-17,-112,129,112,97,82,39,29,29
-58,97,156,-19,-107,126,107,97,87,48,29,29
-53,92,146,-19,-100,119,92,92,87,39,29,29
-48,87,136,-19,-92,112,78,87,87,29,29,29
-48,87,136,-19,-92,112,68,78,78,24,29,29
-48,87,136,-19,-92,112,58,68,68,19,29,29
-53,87,141,-17,-97,114,48,63,68,19,24,29
-58,87,146,-14,-102,117,39,58,68,19,19,29
-58,87,146,-14,-102,117,34,53,68,19,19,29
-58,87,146,-14,-102,117,29,48,68,19,19,29
-58,82,141,-12,-100,112,24,48,68,19,19,29
-58,78,136,-9,-97,107,19,48,68,19,19,29
-48,78,126,-14,-87,102,19,48,63,19,19,29
-39,78,117,-19,-78,97,19,48,58,19,19,29
-39,78,117,-19,-78,97,19,53,58,19,19,29
-39,78,117,-19,-78,97,19,58,58,19,19,29
-39,68,107,-14,-73,87,29,63,68,24,24,29
-39,58,97,-9,-68,78,39,68,78,29,29,29
-39,53,92,-7,-65,73,43,68,78,29,29,29
-39,48,87,-4,-63,68,48,68,78,29,29,29
-48,39,87,4,-68,63,48,68,73,19,24,24
-53,29,82,12,-68,56,48,63,68,9,14,19
-63,19,82,21,-73,51,53,63,68,4,9,14
-68,14,82,26,-75,48,53,63,68,0,0,9
-68,24,92,21,-80,58,58,63,68,9,0,9
-78,29,107,24,-92,68,63,63,63,9,0,4
-78,29,107,24,-92,68,63,58,53,-4,-9,0
-78,19,97,29,-87,58,68,58,53,-14,-9,0
-78,19,97,29,-87,58,68,53,48,-14,-9,-4
-82,19,102,31,-92,61,73,53,43,-14,-9,-9
-82,19,102,31,-92,61,73,53,43,-14,-14,-9
-82,19,102,31,-92,61,73,53,43,-14,-14,-9
-82,19,102,31,-92,61,78,58,53,-9,-14,-14
-82,19,102,31,-92,61,82,63,63,-4,-14,-14
-97,4,102,46,-100,53,87,63,63,-4,-14,-14
-102,-4,97,53,-100,46,87,68,63,-9,-14,-14
-102,-4,97,53,-100,46,87,68,63,-9,-14,-14
-102,0,102,51,-102,51,87,68,63,-4,-14,-14
-97,9,107,43,-102,58,87,63,68,-4,-14,-9
-97,19,117,39,-107,68,87,58,68,-9,-14,-4
-97,19,117,39,-107,68,92,58,68,-9,-14,-4
-97,19,117,39,-107,68,92,58,68,-9,-14,-4
-102,19,122,41,-112,70,97,68,73,0,-14,-4
-102,19,122,41,-112,70,107,82,82,4,-9,-4
-92,19,112,36,-102,65,107,87,87,4,-9,0
-87,14,102,36,-95,58,107,87,92,4,-9,0
-92,14,107,39,-100,61,102,82,92,4,-9,0
-92,14,107,39,-100,61,97,82,87,4,-9,0
-97,14,112,41,-104,63,97,78,87,4,-9,0
-102,14,117,43,-109,65,102,73,92,9,-9,0
-102,19,122,41,-112,70,102,73,92,9,-4,0
-102,24,126,39,-114,75,102,78,97,9,4,4
-97,29,126,34,-112,78,102,73,92,9,4,4
-97,34,131,31,-114,82,102,63,87,9,0,0
-92,34,126,29,-109,80,102,68,82,9,0,0
-87,39,126,24,-107,82,112,97,102,19,4,4
-87,53,141,17,-114,97,126,112,122,29,14,9
-87,73,161,7,-124,117,126,131,146,48,29,14
-78,102,180,-12,-129,141,161,200,214,82,39,24
-87,136,224,-24,-156,180,200,224,248,87,43,34
-136,151,287,-7,-212,219,258,185,248,87,29,24
-151,185,336,-17,-244,261,209,43,195,87,53,58
-185,278,463,-46,-324,370,53,-263,53,102,136,170
-136,341,478,-102,-307,409,-131,-473,-19,180,268,307
-39,312,351,-136,-195,331,-346,-634,-97,253,375,419
112,214,102,-163,4,158,-551,-834,-229,312,497,522
346,53,-292,-200,319,-119,-878,-1107,-405,385,668,683
566,-97,-663,-234,614,-380,-1151,-1429,-634,414,800,790
741,-214,-956,-263,849,-585,-1385,-1756,-893,424,941,917
834,-448,-1283,-192,1058,-866,-1512,-2005,-1122,219,756,732
829,-844,-1673,7,1251,-1259,-1527,-2166,-1429,-370,117,122
761,-1185,-1947,212,1354,-1566,-1468,-2191,-1668,-868,-444,-409
561,-1424,-1986,431,1273,-1705,-1234,-2020,-1825,-1268,-893,-814
419,-1478,-1898,529,1159,-1688,-1000,-1751,-1790,-1420,-1083,-990
370,-1361,-1732,495,1051,-1546,-766,-1337,-1493,-1278,-1029,-971
297,-1278,-1576,490,936,-1427,-585,-1029,-1263,-1185,-1015,-971
175,-1161,-1337,492,756,-1249,-468,-868,-1083,-1039,-932,-902
53,-1093,-1146,519,600,-1119,-331,-717,-922,-922,-878,-858
-9,-1024,-1015,517,502,-1019,-180,-585,-810,-878,-863,-849
-29,-927,-897,478,434,-912,-92,-483,-702,-814,-810,-800
-19,-800,-780,409,380,-790,-87,-400,-590,-702,-697,-692
-29,-629,-600,329,285,-614,-63,-292,-444,-536,-551,-536
-19,-453,-434,236,207,-444,29,-151,-268,-385,-409,-419
-34,-307,-273,170,119,-290,78,-48,-126,-273,-307,-317
-68,-151,-82,109,7,-117,97,53,29,-117,-151,-165
-78,-63,14,70,-46,-24,117,136,136,14,-48,-63
-68,19,87,24,-78,53,161,175,195,58,4,-19
-63,82,146,-9,-104,114,175,200,229,78,29,14
-58,102,161,-21,-109,131,151,200,234,87,39,24
-53,117,170,-31,-112,143,141,200,244,112,53,43
-53,112,165,-29,-109,139,151,204,258,112,58,43
-58,107,165,-24,-112,136,156,214,258,112,58,43
-53,112,165,-29,-109,139,156,214,263,112,53,43
-48,117,165,-34,-107,141,151,214,268,122,53,43
-48,117,165,-34,-107,141,151,214,268,122,53,43
