I, II, III, aVR, aVL, aVF, V1, V2, V3, V4, V5, V6
9,48,39,-29,-14,43,4,-14,0,58,146,165
9,48,39,-29,-14,43,34,-9,14,58,151,161
14,43,29,-29,-7,36,43,0,24,63,156,161
14,43,29,-29,-7,36,48,9,39,63,156,161
24,43,19,-34,2,31,53,9,48,68,156,165
29,43,14,-36,7,29,19,9,48,68,156,170
29,53,24,-41,2,39,0,4,48,68,156,165
34,68,34,-51,0,51,-34,-24,14,63,161,165
39,82,43,-61,-2,63,-82,-63,-29,53,161,175
48,97,48,-73,0,73,-107,-97,-58,48,165,175
48,97,48,-73,0,73,-112,-107,-73,39,165,175
48,87,39,-68,4,63,-107,-102,-82,19,165,175
48,73,24,-61,12,48,-97,-102,-82,9,156,170
43,58,14,-51,14,36,-92,-87,-87,9,146,170
43,53,9,-48,17,31,-78,-82,-87,4,141,161
48,39,-9,-43,29,14,-68,-73,-87,4,136,161
48,24,-24,-36,36,0,-58,-63,-78,4,136,156
48,29,-19,-39,34,4,-53,-53,-68,14,146,161
53,34,-19,-43,36,7,-53,-48,-63,29,151,165
68,43,-24,-56,46,9,-53,-48,-58,29,151,165
82,48,-34,-65,58,7,-53,-53,-58,29,151,161
53,34,-19,-43,36,7,-43,-43,-63,19,146,151
24,14,-9,-19,17,2,-34,-43,-73,0,122,131
4,-19,-24,7,14,-21,-29,-43,-82,-14,102,112
-4,-43,-39,24,17,-41,-29,-53,-87,-19,97,102
-4,-43,-39,24,17,-41,-29,-58,-92,-24,97,102
-9,-53,-43,31,17,-48,-29,-58,-92,-24,97,97
-19,-53,-34,36,7,-43,-24,-48,-92,-29,92,97
-34,-58,-24,46,-4,-41,-19,-43,-92,-29,92,92
-34,-58,-24,46,-4,-41,-19,-39,-92,-29,92,92
-29,-58,-29,43,0,-43,-19,-39,-92,-29,92,92
-29,-58,-29,43,0,-43,-24,-34,-92,-29,82,87
-34,-58,-24,46,-4,-41,-19,-29,-87,-29,78,87
-43,-58,-14,51,-14,-36,-9,-34,-82,-39,73,82
-97,-73,24,85,-61,-24,39,0,-43,-53,39,48
-209,-97,112,153,-161,7,156,97,82,-87,-43,-29
-322,-87,234,204,-278,73,307,224,292,-68,-92,-73
-390,-53,336,222,-363,141,434,366,561,-4,-102,-87
-366,-9,356,187,-361,173,546,546,922,156,-78,-63
-219,136,356,41,-287,246,585,697,1366,512,122,73
48,405,356,-226,-153,380,517,751,1786,995,448,336
448,814,366,-631,41,590,136,556,1659,1483,917,727
932,1224,292,-1078,319,758,-395,209,1073,1834,1385,1137
1449,1195,-253,-1322,851,470,-936,-263,48,1678,1512,1239
1639,405,-1234,-1022,1437,-414,-1127,-517,-1229,658,1034,839
1288,-605,-1893,-341,1590,-1249,-1034,-727,-2508,-976,9,39
893,-1039,-1932,73,1412,-1485,-1078,-922,-3098,-1751,-473,-302
536,-1122,-1659,292,1098,-1390,-966,-883,-2879,-1786,-595,-400
287,-1024,-1312,368,800,-1168,-707,-629,-2264,-1556,-570,-395
141,-800,-941,329,541,-871,-424,-356,-1532,-1151,-434,-312
39,-531,-570,246,305,-551,-229,-170,-936,-766,-297,-229
-24,-356,-331,190,153,-344,-97,-34,-595,-483,-175,-136
-34,-219,-185,126,75,-202,-58,0,-380,-292,-68,-53
-34,-170,-136,102,51,-153,-4,24,-219,-185,0,-4
-43,-156,-112,100,34,-134,34,34,-126,-146,9,-4
-63,-131,-68,97,2,-100,48,34,-92,-102,19,-4
-78,-122,-43,100,-17,-82,53,9,-78,-78,24,0
-82,-112,-29,97,-26,-70,58,9,-53,-68,34,9
-82,-107,-24,95,-29,-65,68,14,-19,-68,34,9
-87,-107,-19,97,-34,-63,73,24,-4,-53,34,9
-97,-102,-4,100,-46,-53,68,24,-4,-39,34,9
-107,-92,14,100,-61,-39,68,19,4,-29,39,9
-117,-87,29,102,-73,-29,73,19,14,-29,39,4
-107,-87,19,97,-63,-34,73,19,19,-29,39,4
-102,-82,19,92,-61,-31,78,24,29,-24,39,4
-102,-82,19,92,-61,-31,78,24,29,-14,39,4
-102,-82,19,92,-61,-31,78,24,39,-14,39,4
-102,-82,19,92,-61,-31,78,24,39,-14,39,9
-102,-82,19,92,-61,-31,82,24,48,-14,39,14
-107,-87,19,97,-63,-34,82,29,48,-4,39,19
-112,-87,24,100,-68,-31,87,34,53,-4,39,19
-112,-87,24,100,-68,-31,87,34,58,-4,34,19
-112,-87,24,100,-68,-31,87,34,63,0,34,19
-112,-87,24,100,-68,-31,92,34,68,4,29,19
-117,-87,29,102,-73,-29,92,29,78,4,29,19
-117,-87,29,102,-73,-29,92,34,87,4,29,19
-117,-87,29,102,-73,-29,97,39,97,9,29,19
-117,-92,24,104,-70,-34,102,39,102,9,24,14
-117,-92,24,104,-70,-34,107,43,102,14,24,14
-122,-92,29,107,-75,-31,102,43,112,14,19,4
-126,-92,34,109,-80,-29,102,48,122,14,14,0
-126,-92,34,109,-80,-29,102,58,136,24,14,4
-131,-92,39,112,-85,-26,102,58,136,24,14,4
-126,-87,39,107,-82,-24,112,63,141,19,14,0
-122,-82,39,102,-80,-21,117,68,151,19,14,-4
-122,-73,48,97,-85,-12,117,68,161,24,14,-4
-122,-68,53,95,-87,-7,122,73,170,29,14,-4
-126,-68,58,97,-92,-4,131,78,180,29,14,0
-131,-68,63,100,-97,-2,131,82,190,43,14,0
-131,-73,58,102,-95,-7,136,82,209,43,14,-4
-131,-63,68,97,-100,2,136,92,224,48,14,-9
-141,-63,78,102,-109,7,141,97,234,58,14,-9
-146,-58,87,102,-117,14,146,102,248,63,14,-9
-146,-53,92,100,-119,19,151,107,263,68,9,-14
-151,-53,97,102,-124,21,151,117,273,78,4,-14
-151,-43,107,97,-129,31,156,122,283,78,4,-19
-156,-39,117,97,-136,39,161,126,302,87,4,-19
-156,-34,122,95,-139,43,165,131,317,97,4,-19
-156,-29,126,92,-141,48,170,136,341,102,4,-19
-161,-29,131,95,-146,51,170,141,346,102,9,-19
-165,-24,141,95,-153,58,175,146,356,97,9,-14
-165,-14,151,90,-158,68,180,151,366,107,9,-19
-165,-14,151,90,-158,68,180,161,375,117,9,-24
-170,-9,161,90,-165,75,185,165,385,117,9,-29
-170,-9,161,90,-165,75,190,170,390,117,4,-34
-165,-4,161,85,-163,78,195,170,400,112,0,-34
-161,0,161,80,-161,80,200,165,405,102,-4,-39
-161,-4,156,82,-158,75,200,165,400,102,-9,-43
-161,-9,151,85,-156,70,200,170,390,97,-14,-48
-156,-9,146,82,-151,68,195,175,380,92,-19,-48
-156,-9,146,82,-151,68,190,175,361,82,-29,-48
-146,-4,141,75,-143,68,175,165,356,73,-29,-48
-136,-4,131,70,-134,63,165,165,346,73,-24,-48
-126,-9,117,68,-122,53,165,165,336,73,-14,-48
-112,-9,102,61,-107,46,156,161,326,73,-4,-48
-97,-4,92,51,-95,43,146,151,312,73,-9,-48
-82,0,82,41,-82,41,131,151,297,68,-9,-43
-73,0,73,36,-73,36,122,141,287,68,0,-34
-58,4,63,26,-61,34,112,136,273,73,4,-34
-43,4,48,19,-46,26,102,126,258,73,9,-24
-29,4,34,12,-31,19,87,117,244,68,14,-19
-19,4,24,7,-21,14,73,102,234,73,19,-14
-4,14,19,-4,-12,17,53,92,214,73,24,-9
9,14,4,-12,2,9,43,87,204,73,29,0
24,19,-4,-21,14,7,29,82,195,78,39,9
34,19,-14,-26,24,2,24,68,180,82,48,9
39,24,-14,-31,26,4,14,58,170,87,53,14
53,29,-24,-41,39,2,0,43,151,82,58,14
68,34,-34,-51,51,0,-14,29,141,82,63,19
68,39,-29,-53,48,4,-24,19,117,68,58,14
73,39,-34,-56,53,2,-34,9,97,58,58,14
73,34,-39,-53,56,-2,-39,-4,78,58,58,9
73,34,-39,-53,56,-2,-43,-9,63,43,63,9
78,39,-39,-58,58,0,-53,-14,39,34,63,14
82,34,-48,-58,65,-7,-58,-14,34,24,63,14
73,34,-39,-53,56,-2,-58,-19,24,24,63,4
73,34,-39,-53,56,-2,-58,-19,19,19,58,4
68,29,-39,-48,53,-4,-58,-19,9,14,58,4
68,19,-48,-43,58,-14,-58,-19,0,9,53,0
63,19,-43,-41,53,-12,-58,-19,-4,4,48,0
63,19,-43,-41,53,-12,-58,-19,-9,0,43,0
58,14,-43,-36,51,-14,-58,-19,-14,0,43,0
53,9,-43,-31,48,-17,-53,-24,-24,0,43,-4
53,9,-43,-31,48,-17,-53,-24,-29,-9,34,-14
53,9,-43,-31,48,-17,-53,-24,-29,-9,24,-19
48,4,-43,-26,46,-19,-58,-24,-29,-14,24,-19
48,4,-43,-26,46,-19,-58,-24,-29,-19,24,-19
48,4,-43,-26,46,-19,-53,-24,-39,-19,19,-29
39,4,-34,-21,36,-14,-53,-24,-39,-19,19,-34
39,4,-34,-21,36,-14,-53,-24,-34,-24,19,-34
39,9,-29,-24,34,-9,-53,-24,-34,-24,19,-29
29,14,-14,-21,21,0,-53,-24,-34,-24,14,-29
29,14,-14,-21,21,0,-53,-24,-29,-24,14,-29
24,9,-14,-17,19,-2,-48,-24,-29,-19,24,-24
24,4,-19,-14,21,-7,-48,-29,-29,-19,24,-24
29,4,-24,-17,26,-9,-43,-29,-34,-24,24,-29
29,4,-24,-17,26,-9,-43,-24,-34,-29,24,-39
14,4,-9,-9,12,-2,-43,-29,-34,-29,19,-39
14,9,-4,-12,9,2,-39,-34,-34,-29,14,-34
9,14,4,-12,2,9,-43,-29,-29,-19,24,-29
4,19,14,-12,-4,17,-43,-29,-24,-9,24,-24
4,19,14,-12,-4,17,-43,-34,-24,-9,29,-19
-4,19,24,-7,-14,21,-43,-34,-24,-4,34,-19
0,19,19,-9,-9,19,-43,-34,-24,-4,39,-24
4,24,19,-14,-7,21,-43,-34,-24,0,39,-24
4,29,24,-17,-9,26,-43,-34,-24,0,34,-24
0,34,34,-17,-17,34,-43,-39,-19,0,39,-24
-4,39,43,-17,-24,41,-39,-39,-19,0,39,-19
-9,43,53,-17,-31,48,-34,-39,-19,4,39,-14
-14,43,58,-14,-36,51,-39,-43,-19,4,39,-14
-19,48,68,-14,-43,58,-39,-43,-24,4,34,-14
-19,48,68,-14,-43,58,-39,-43,-29,0,29,-14
-19,48,68,-14,-43,58,-39,-43,-29,-4,29,-14
-9,48,58,-19,-34,53,-39,-48,-24,0,29,-14
-9,48,58,-19,-34,53,-43,-53,-24,0,29,-14
-19,48,68,-14,-43,58,-43,-58,-29,-4,34,-14
-24,43,68,-9,-46,56,-43,-68,-29,-9,43,-14
-24,48,73,-12,-48,61,-43,-68,-29,-9,43,-14
-24,48,73,-12,-48,61,-43,-68,-24,-9,43,-14
-24,53,78,-14,-51,65,-43,-63,-29,-4,43,-14
-24,53,78,-14,-51,65,-48,-63,-29,0,43,-14
-24,53,78,-14,-51,65,-48,-58,-34,0,43,-14
-24,58,82,-17,-53,70,-48,-53,-34,0,39,-19
-19,58,78,-19,-48,68,-43,-63,-39,-4,39,-19
-19,63,82,-21,-51,73,-43,-63,-39,-9,39,-19
-19,63,82,-21,-51,73,-43,-63,-43,-9,29,-19
-14,63,78,-24,-46,70,-43,-63,-53,-14,24,-24
-14,53,68,-19,-41,61,-43,-63,-53,-14,24,-24
-14,48,63,-17,-39,56,-43,-63,-58,-19,24,-24
-14,43,58,-14,-36,51,-43,-63,-63,-19,24,-24
-9,39,48,-14,-29,43,-43,-63,-63,-24,24,-29
-9,34,43,-12,-26,39,-43,-63,-63,-24,24,-29
-9,34,43,-12,-26,39,-48,-63,-63,-29,19,-29
-9,39,48,-14,-29,43,-48,-63,-73,-29,19,-29
-9,43,53,-17,-31,48,-48,-63,-73,-29,19,-29
-9,39,48,-14,-29,43,-53,-63,-73,-29,24,-34
-9,39,48,-14,-29,43,-58,-63,-78,-34,24,-34
0,43,43,-21,-21,43,-58,-63,-78,-39,24,-39
-14,29,43,-7,-29,36,-58,-63,-78,-39,24,-39
-14,29,43,-7,-29,36,-58,-63,-78,-39,19,-43
-9,24,34,-7,-21,29,-58,-63,-87,-43,14,-48
-9,19,29,-4,-19,24,-58,-68,-87,-48,14,-48
-9,14,24,-2,-17,19,-58,-73,-87,-58,9,-48
-9,14,24,-2,-17,19,-53,-73,-87,-58,9,-48
-14,24,39,-4,-26,31,-48,-73,-87,-53,9,-43
-14,29,43,-7,-29,36,-48,-68,-82,-48,9,-39
-14,24,39,-4,-26,31,-48,-68,-82,-43,4,-39
-9,19,29,-4,-19,24,-48,-68,-82,-48,4,-39
-4,14,19,-4,-12,17,-48,-68,-82,-48,4,-43
-4,14,19,-4,-12,17,-53,-68,-87,-48,14,-43
-9,14,24,-2,-17,19,-58,-68,-87,-48,14,-43
-9,14,24,-2,-17,19,-58,-68,-87,-48,14,-43
-9,14,24,-2,-17,19,-53,-68,-87,-48,14,-43
-4,19,24,-7,-14,21,-53,-68,-87,-53,14,-48
-4,24,29,-9,-17,26,-53,-68,-87,-58,14,-48
-4,19,24,-7,-14,21,-48,-68,-92,-58,14,-48
-4,19,24,-7,-14,21,-48,-68,-92,-63,9,-48
0,24,24,-12,-12,24,-48,-73,-92,-63,0,-48
4,24,19,-14,-7,21,-48,-73,-92,-63,0,-48
4,24,19,-14,-7,21,-48,-73,-92,-63,0,-48
4,24,19,-14,-7,21,-48,-73,-92,-63,4,-53
0,24,24,-12,-12,24,-53,-68,-97,-63,4,-53
0,19,19,-9,-9,19,-48,-68,-97,-63,0,-53
4,24,19,-14,-7,21,-58,-68,-97,-63,-4,-53
4,24,19,-14,-7,21,-58,-68,-92,-63,-9,-53
0,24,24,-12,-12,24,-58,-68,-92,-63,-4,-53
0,29,29,-14,-14,29,-58,-68,-97,-63,-4,-53
4,29,24,-17,-9,26,-53,-68,-92,-63,0,-48
9,29,19,-19,-4,24,-48,-68,-87,-68,9,-48
4,29,24,-17,-9,26,-48,-63,-87,-58,9,-48
0,29,29,-14,-14,29,-48,-58,-87,-48,9,-48
0,39,39,-19,-19,39,-48,-53,-78,-39,14,-43
4,48,43,-26,-19,46,-39,-43,-58,-29,19,-39
14,63,48,-39,-17,56,-34,-39,-43,-24,29,-39
19,78,58,-48,-19,68,-14,-24,-29,-9,39,-19
24,87,63,-56,-19,75,14,-19,-14,-4,43,-19
34,92,58,-63,-12,75,24,-9,-4,4,48,-14
34,92,58,-63,-12,75,34,0,9,4,48,-14
43,92,48,-68,-2,70,43,0,19,9,48,-9
48,92,43,-70,2,68,9,0,19,9,53,0
48,102,53,-75,-2,78,-9,-4,19,9,58,0
53,107,53,-80,0,80,-48,-39,-4,4,58,0
58,112,53,-85,2,82,-102,-82,-39,-4,53,9
68,126,58,-97,4,92,-126,-117,-78,-9,58,9
68,126,58,-97,4,92,-131,-126,-102,-19,58,9
68,122,53,-95,7,87,-126,-122,-112,-34,58,4
68,112,43,-90,12,78,-117,-122,-112,-39,48,-4
58,97,39,-78,9,68,-117,-107,-117,-39,39,-4
53,92,39,-73,7,65,-107,-102,-117,-43,34,-14
58,78,19,-68,19,48,-97,-92,-117,-43,29,-14
58,63,4,-61,26,34,-87,-82,-107,-43,29,-19
68,63,-4,-65,36,29,-87,-78,-97,-43,34,-19
82,63,-19,-73,51,21,-92,-78,-92,-39,34,-19
92,73,-19,-82,56,26,-87,-73,-87,-39,39,-14
102,78,-24,-90,63,26,-82,-73,-87,-39,43,-14
63,63,0,-63,31,31,-73,-58,-92,-48,39,-24
24,43,19,-34,2,31,-63,-53,-102,-68,14,-43
4,24,19,-14,-7,21,-58,-53,-112,-78,-4,-53
-4,14,19,-4,-12,17,-58,-63,-117,-78,-9,-53
-4,14,19,-4,-12,17,-58,-73,-122,-78,-9,-53
-9,4,14,2,-12,9,-58,-78,-122,-73,-9,-58
-14,0,14,7,-14,7,-58,-73,-122,-78,-14,-58
-24,-9,14,17,-19,2,-58,-73,-122,-78,-14,-63
-24,-14,9,19,-17,-2,-58,-68,-126,-82,-19,-68
-19,-19,0,19,-9,-9,-58,-68,-131,-87,-24,-73
-14,-19,-4,17,-4,-12,-58,-68,-131,-87,-29,-78
-14,-19,-4,17,-4,-12,-48,-68,-126,-87,-29,-78
-19,-14,4,17,-12,-4,-48,-68,-131,-87,-14,-68
-68,-24,43,46,-56,9,-9,-29,-102,-92,-29,-87
-200,-39,161,119,-180,61,117,78,19,-102,-92,-141
-331,-19,312,175,-322,146,278,214,224,-58,-122,-161
-414,9,424,202,-419,217,419,370,483,-14,-131,-180
-405,48,453,178,-429,251,546,566,834,126,-107,-161
-258,161,419,48,-339,290,619,785,1307,414,39,-58
9,395,385,-202,-187,390,585,907,1756,829,312,170
439,810,370,-624,34,590,190,702,1673,1259,722,517
951,1224,273,-1088,339,749,-356,346,1132,1551,1132,883
1527,1263,-263,-1395,895,500,-990,-234,73,1478,1254,980
1776,541,-1234,-1159,1505,-346,-1273,-595,-1239,541,771,575
1405,-600,-2005,-402,1705,-1302,-1185,-868,-2635,-1137,-312,-307
990,-1166,-2156,87,1573,-1661,-1234,-1127,-3342,-1956,-854,-732
605,-1210,-1815,302,1210,-1512,-1107,-1068,-3098,-1956,-902,-756
326,-1073,-1400,373,863,-1237,-834,-795,-2459,-1693,-805,-678
165,-814,-980,324,573,-897,-507,-473,-1668,-1254,-619,-546
48,-512,-561,231,305,-536,-268,-239,-1015,-834,-434,-414
-19,-326,-307,173,143,-317,-136,-82,-658,-541,-292,-302
-34,-180,-146,107,56,-163,-97,-29,-429,-341,-165,-200
-34,-122,-87,78,26,-104,-29,0,-253,-224,-87,-136
-43,-97,-53,70,4,-75,24,14,-146,-175,-68,-122
-68,-73,-4,70,-31,-39,34,14,-112,-136,-58,-122
-87,-63,24,75,-56,-19,34,-9,-97,-117,-53,-117
-92,-58,34,75,-63,-12,39,-14,-78,-107,-43,-107
-92,-58,34,75,-63,-12,48,-14,-48,-107,-43,-107
-92,-58,34,75,-63,-12,58,-4,-34,-97,-48,-107
-97,-53,43,75,-70,-4,58,-4,-34,-87,-53,-107
-97,-48,48,73,-73,0,58,-9,-24,-78,-48,-107
-97,-48,48,73,-73,0,63,-9,-14,-78,-48,-112
-102,-48,53,75,-78,2,63,-9,-9,-78,-48,-112
-112,-43,68,78,-90,12,68,-4,0,-73,-48,-112
-112,-43,68,78,-90,12,68,-4,4,-58,-39,-107
-112,-43,68,78,-90,12,68,-4,19,-53,-29,-102
-112,-39,73,75,-92,17,68,-4,19,-53,-29,-102
-112,-34,78,73,-95,21,73,-4,29,-53,-29,-102
-117,-39,78,78,-97,19,73,4,34,-43,-29,-97
-122,-39,82,80,-102,21,78,14,43,-43,-29,-97
-122,-39,82,80,-102,21,78,14,48,-43,-34,-97
-122,-39,82,80,-102,21,78,14,53,-39,-34,-97
-117,-43,73,80,-95,14,82,19,53,-34,-39,-97
-117,-48,68,82,-92,9,82,19,58,-34,-39,-97
-122,-48,73,85,-97,12,82,24,68,-34,-39,-97
-126,-48,78,87,-102,14,87,29,78,-29,-39,-97
-126,-48,78,87,-102,14,92,29,82,-29,-43,-102
-126,-43,82,85,-104,19,97,34,82,-24,-43,-102
-126,-43,82,85,-104,19,102,34,92,-24,-48,-107
-126,-43,82,85,-104,19,112,39,102,-24,-53,-107
-126,-43,82,85,-104,19,112,48,117,-14,-53,-102
-131,-43,87,87,-109,21,112,48,117,-14,-53,-102
-131,-39,92,85,-112,26,117,53,126,-14,-53,-107
-131,-34,97,82,-114,31,117,58,141,-9,-53,-112
-131,-29,102,80,-117,36,117,58,151,-4,-53,-112
-131,-29,102,80,-117,36,122,63,161,0,-53,-112
-141,-29,112,85,-126,41,131,68,170,0,-58,-107
-151,-29,122,90,-136,46,131,73,180,14,-63,-107
-151,-34,117,92,-134,41,136,78,200,14,-63,-107
-151,-24,126,87,-139,51,136,92,214,19,-63,-107
-156,-24,131,90,-143,53,141,97,219,29,-63,-107
-156,-19,136,87,-146,58,146,102,229,34,-63,-107
-151,-14,136,82,-143,61,151,107,244,34,-63,-112
-151,-14,136,82,-143,61,151,117,253,39,-63,-112
-151,-4,146,78,-148,70,156,126,263,34,-63,-112
-156,0,156,78,-156,78,161,136,283,39,-63,-107
-165,4,170,80,-168,87,165,141,292,48,-63,-107
-175,9,185,82,-180,97,170,146,312,53,-63,-107
-180,14,195,82,-187,104,170,151,317,58,-58,-107
-185,24,209,80,-197,117,175,156,326,58,-58,-102
-185,29,214,78,-200,122,185,161,336,63,-58,-102
-185,24,209,80,-197,117,190,170,346,68,-58,-102
-190,29,219,80,-204,124,195,175,356,68,-58,-102
-190,29,219,80,-204,124,200,180,361,68,-63,-102
-190,34,224,78,-207,129,200,180,366,73,-68,-107
-190,39,229,75,-209,134,200,175,366,73,-73,-117
-190,39,229,75,-209,134,200,180,366,73,-73,-117
-190,39,229,75,-209,134,200,190,361,68,-73,-117
-180,39,219,70,-200,129,195,190,356,68,-73,-117
-175,39,214,68,-195,126,190,185,341,63,-78,-117
-165,43,209,61,-187,126,175,170,336,48,-82,-117
-156,43,200,56,-178,122,165,165,326,43,-82,-117
-146,39,185,53,-165,112,165,165,317,43,-82,-117
-131,39,170,46,-151,104,156,161,307,43,-82,-117
-112,43,156,34,-134,100,146,151,292,39,-82,-117
-92,48,141,21,-117,95,131,151,278,29,-78,-112
-82,43,126,19,-104,85,122,141,273,29,-73,-107
-68,43,112,12,-90,78,112,136,263,34,-73,-112
-53,43,97,4,-75,70,102,126,253,39,-68,-102
-39,43,82,-2,-61,63,87,117,244,39,-63,-97
-24,53,78,-14,-51,65,73,102,234,43,-58,-92
-4,73,78,-34,-41,75,53,92,214,43,-53,-87
9,73,63,-41,-26,68,43,87,195,39,-48,-78
24,78,53,-51,-14,65,29,82,175,39,-39,-68
34,78,43,-56,-4,61,19,68,161,39,-34,-68
39,82,43,-61,-2,63,4,58,151,39,-34,-63
53,82,29,-68,12,56,-4,48,131,34,-29,-63
68,82,14,-75,26,48,-14,39,122,34,-24,-58
73,82,9,-78,31,46,-24,29,107,29,-24,-58
82,78,-4,-80,43,36,-34,19,97,29,-19,-53
82,73,-9,-78,46,31,-39,4,78,29,-19,-53
82,73,-9,-78,46,31,-43,0,63,14,-14,-48
82,73,-9,-78,46,31,-58,-9,34,4,-19,-43
82,63,-19,-73,51,21,-68,-14,24,-4,-24,-43
73,63,-9,-68,41,26,-68,-19,9,-9,-24,-53
73,63,-9,-68,41,26,-68,-19,0,-19,-29,-53
68,58,-9,-63,39,24,-68,-19,-9,-24,-24,-53
68,48,-19,-58,43,14,-68,-19,-19,-29,-24,-58
63,43,-19,-53,41,12,-68,-19,-24,-29,-29,-58
63,39,-24,-51,43,7,-68,-19,-29,-29,-34,-58
58,34,-24,-46,41,4,-68,-19,-29,-34,-39,-58
53,29,-24,-41,39,2,-63,-24,-34,-39,-43,-63
53,29,-24,-41,39,2,-58,-24,-39,-48,-48,-73
53,29,-24,-41,39,2,-53,-24,-39,-48,-53,-78
48,24,-24,-36,36,0,-58,-24,-43,-53,-58,-78
48,24,-24,-36,36,0,-58,-24,-48,-58,-63,-78
48,29,-19,-39,34,4,-58,-24,-58,-58,-68,-87
39,34,-4,-36,21,14,-63,-24,-58,-58,-68,-92
39,29,-9,-34,24,9,-58,-24,-53,-58,-63,-92
39,29,-9,-34,24,9,-53,-24,-53,-53,-58,-87
29,34,4,-31,12,19,-53,-24,-53,-53,-63,-82
29,34,4,-31,12,19,-53,-24,-48,-53,-63,-78
24,34,9,-29,7,21,-48,-19,-48,-48,-58,-73
24,34,9,-29,7,21,-48,-19,-48,-48,-63,-73
29,34,4,-31,12,19,-43,-29,-48,-48,-63,-73
29,34,4,-31,12,19,-43,-34,-43,-48,-63,-78
14,34,19,-24,-2,26,-43,-34,-43,-48,-68,-78
14,39,24,-26,-4,31,-39,-34,-43,-48,-73,-73
14,43,29,-29,-7,36,-43,-29,-48,-48,-63,-73
14,48,34,-31,-9,41,-43,-29,-53,-48,-63,-73
14,48,34,-31,-9,41,-43,-34,-53,-48,-63,-68
4,48,43,-26,-19,46,-43,-34,-53,-43,-63,-68
4,39,34,-21,-14,36,-43,-34,-53,-43,-63,-73
4,34,29,-19,-12,31,-43,-34,-53,-39,-68,-73
4,39,34,-21,-14,36,-43,-39,-53,-39,-68,-73
0,43,43,-21,-21,43,-43,-48,-48,-39,-58,-73
-9,43,53,-17,-31,48,-43,-48,-43,-34,-58,-68
-19,43,63,-12,-41,53,-43,-48,-39,-24,-58,-63
-19,48,68,-14,-43,58,-48,-48,-34,-24,-53,-58
-19,58,78,-19,-48,68,-48,-43,-34,-24,-53,-53
-19,58,78,-19,-48,68,-48,-43,-39,-24,-53,-53
-19,58,78,-19,-48,68,-48,-43,-39,-24,-48,-53
-19,58,78,-19,-48,68,-43,-43,-34,-19,-48,-53
-29,58,87,-14,-58,73,-43,-43,-34,-19,-48,-53
-29,63,92,-17,-61,78,-43,-43,-39,-24,-53,-53
-24,63,87,-19,-56,75,-43,-48,-39,-29,-53,-53
-24,68,92,-21,-58,80,-43,-53,-43,-29,-58,-53
-24,68,92,-21,-58,80,-43,-58,-43,-29,-63,-53
-24,73,97,-24,-61,85,-43,-58,-48,-29,-63,-53
-24,73,97,-24,-61,85,-48,-63,-48,-29,-63,-53
-24,68,92,-21,-58,80,-48,-58,-53,-29,-58,-53
-24,68,92,-21,-58,80,-48,-53,-53,-29,-58,-58
-19,58,78,-19,-48,68,-48,-63,-58,-34,-58,-58
-19,53,73,-17,-46,63,-53,-63,-58,-39,-58,-58
-19,53,73,-17,-46,63,-53,-63,-58,-39,-68,-53
-14,53,68,-19,-41,61,-53,-63,-63,-43,-73,-53
-14,48,63,-17,-39,56,-53,-63,-63,-39,-73,-53
-14,48,63,-17,-39,56,-53,-63,-68,-39,-73,-53
-14,48,63,-17,-39,56,-53,-63,-73,-39,-73,-58
-9,48,58,-19,-34,53,-53,-63,-73,-43,-73,-68
-9,43,53,-17,-31,48,-53,-63,-73,-43,-73,-68
-9,43,53,-17,-31,48,-58,-63,-73,-48,-78,-68
-9,48,58,-19,-34,53,-58,-63,-78,-53,-78,-68
-9,53,63,-21,-36,58,-58,-63,-73,-58,-78,-68
-9,48,58,-19,-34,53,-58,-63,-73,-58,-78,-68
-9,48,58,-19,-34,53,-58,-63,-78,-63,-82,-63
0,53,53,-26,-26,53,-58,-63,-82,-68,-87,-68
-14,39,53,-12,-34,46,-58,-63,-87,-68,-92,-68
-14,39,53,-12,-34,46,-58,-63,-87,-68,-92,-73
-9,34,43,-12,-26,39,-58,-63,-97,-73,-92,-78
-4,29,34,-12,-19,31,-58,-63,-97,-73,-92,-78
0,24,24,-12,-12,24,-58,-63,-97,-78,-97,-78
4,29,24,-17,-9,26,-58,-63,-97,-78,-97,-78
4,43,39,-24,-17,41,-58,-63,-97,-73,-97,-73
0,43,43,-21,-21,43,-58,-58,-87,-68,-92,-68
-4,34,39,-14,-21,36,-58,-58,-82,-63,-92,-68
-4,29,34,-12,-19,31,-58,-58,-82,-68,-92,-68
-4,24,29,-9,-17,26,-58,-58,-82,-68,-92,-73
0,24,24,-12,-12,24,-58,-58,-92,-68,-87,-73
0,24,24,-12,-12,24,-58,-58,-97,-68,-92,-73
0,24,24,-12,-12,24,-58,-63,-97,-73,-97,-78
0,24,24,-12,-12,24,-53,-68,-97,-78,-102,-82
4,29,24,-17,-9,26,-53,-68,-97,-78,-102,-82
4,34,29,-19,-12,31,-53,-68,-97,-78,-102,-78
4,29,24,-17,-9,26,-53,-68,-102,-73,-97,-78
4,29,24,-17,-9,26,-58,-68,-102,-73,-97,-78
4,19,14,-12,-4,17,-58,-68,-97,-73,-107,-78
4,4,0,-4,2,2,-58,-63,-92,-73,-107,-78
4,4,0,-4,2,2,-58,-63,-92,-73,-107,-78
4,4,0,-4,2,2,-58,-63,-92,-73,-102,-82
0,19,19,-9,-9,19,-58,-63,-102,-78,-102,-82
0,29,29,-14,-14,29,-48,-68,-107,-82,-107,-82
4,24,19,-14,-7,21,-58,-68,-107,-82,-107,-82
4,14,9,-9,-2,12,-58,-68,-107,-82,-107,-82
4,14,9,-9,-2,12,-53,-63,-102,-82,-107,-82
4,19,14,-12,-4,17,-53,-63,-102,-82,-107,-82
4,24,19,-14,-7,21,-53,-58,-92,-73,-102,-73
9,29,19,-19,-4,24,-58,-58,-87,-68,-97,-68
9,34,24,-21,-7,29,-58,-53,-87,-68,-97,-68
9,39,29,-24,-9,34,-58,-48,-87,-68,-97,-68
14,39,24,-26,-4,31,-53,-48,-78,-63,-92,-68
14,48,34,-31,-9,41,-43,-48,-68,-53,-87,-63
19,58,39,-39,-9,48,-39,-48,-58,-43,-82,-58
29,58,29,-43,0,43,-24,-39,-39,-34,-82,-53
29,68,39,-48,-4,53,-4,-19,-29,-19,-78,-39
29,78,48,-53,-9,63,14,-14,-14,-14,-73,-48
34,82,48,-58,-7,65,24,0,0,-4,-68,-43
34,82,48,-58,-7,65,29,9,9,-4,-68,-43
48,82,34,-65,7,58,24,0,14,0,-68,-39
58,82,24,-70,17,53,-9,-9,9,0,-63,-29
58,92,34,-75,12,63,-29,-24,0,0,-58,-29
63,102,39,-82,12,70,-53,-43,-24,-4,-53,-29
63,112,48,-87,7,80,-107,-87,-63,-14,-53,-19
68,126,58,-97,4,92,-141,-126,-92,-19,-48,-19
68,126,58,-97,4,92,-141,-126,-102,-29,-48,-19
68,122,53,-95,7,87,-136,-122,-112,-43,-48,-19
68,112,43,-90,12,78,-126,-122,-117,-53,-58,-24
63,97,34,-80,14,65,-122,-107,-122,-58,-68,-24
63,92,29,-78,17,61,-107,-97,-117,-63,-73,-34
68,78,9,-73,29,43,-97,-82,-117,-63,-78,-34
73,63,-9,-68,41,26,-87,-73,-107,-63,-78,-39
78,63,-14,-70,46,24,-82,-63,-97,-58,-73,-39
82,63,-19,-73,51,21,-87,-68,-92,-48,-73,-34
82,63,-19,-73,51,21,-87,-73,-87,-48,-73,-29
78,58,-19,-68,48,19,-82,-73,-87,-43,-73,-34
43,43,0,-43,21,21,-73,-63,-92,-48,-78,-43
14,24,9,-19,2,17,-63,-63,-102,-68,-102,-68
0,4,4,-2,-2,4,-58,-63,-112,-78,-117,-82
-4,-4,0,4,-2,-2,-53,-68,-117,-78,-122,-82
-4,-4,0,4,-2,-2,-48,-68,-122,-82,-126,-82
-9,-14,-4,12,-2,-9,-48,-68,-122,-82,-126,-87
-14,-19,-4,17,-4,-12,-48,-63,-122,-87,-131,-87
-19,-24,-4,21,-7,-14,-48,-63,-122,-87,-131,-92
-14,-19,-4,17,-4,-12,-48,-58,-122,-87,-131,-92
-9,-19,-9,14,0,-14,-48,-58,-117,-87,-131,-92
-9,-19,-9,14,0,-14,-48,-53,-112,-87,-136,-97
-14,-19,-4,17,-4,-12,-34,-43,-102,-82,-131,-92
-29,-19,9,24,-19,-4,-14,-34,-87,-82,-131,-92
-97,-34,63,65,-80,14,43,14,-39,-92,-165,-126
-219,-48,170,134,-195,61,165,126,102,-102,-229,-180
-331,-19,312,175,-322,146,317,268,331,-39,-248,-195
-385,43,429,170,-407,236,439,414,610,58,-224,-190
-326,112,439,107,-383,275,531,595,971,234,-170,-136
-136,263,400,-63,-268,331,517,727,1351,551,24,14
190,546,356,-368,-82,451,395,732,1659,976,341,278
634,907,273,-771,180,590,0,483,1424,1342,736,605
1137,1171,34,-1154,551,602,-531,107,722,1488,1039,873
1600,1029,-570,-1315,1085,229,-1044,-395,-331,1190,1019,863
1649,248,-1400,-949,1525,-575,-1195,-702,-1532,204,517,453
1200,-668,-1869,-265,1534,-1268,-1093,-941,-2679,-1234,-429,-302
785,-1005,-1790,109,1288,-1398,-1137,-1122,-3118,-1810,-814,-585
453,-1019,-1473,283,963,-1246,-1010,-1019,-2796,-1732,-849,-610
239,-907,-1146,334,692,-1027,-727,-692,-2147,-1483,-785,-570
112,-692,-805,290,458,-749,-434,-395,-1434,-1093,-639,-473
24,-439,-463,207,244,-451,-239,-195,-878,-727,-492,-380
-34,-287,-253,161,109,-270,-107,-39,-566,-473,-366,-287
-39,-161,-122,100,41,-141,-68,0,-361,-302,-258,-204
-34,-112,-78,73,21,-95,-14,24,-204,-204,-195,-156
-43,-97,-53,70,4,-75,19,29,-126,-170,-190,-151
-63,-73,-9,68,-26,-41,24,24,-102,-136,-185,-151
-78,-63,14,70,-46,-24,24,0,-87,-117,-180,-146
-82,-58,24,70,-53,-17,29,0,-68,-107,-170,-136
-78,-58,19,68,-48,-19,39,4,-39,-107,-170,-136
-78,-58,19,68,-48,-19,48,14,-24,-97,-170,-136
-87,-53,34,70,-61,-9,48,14,-24,-87,-170,-136
-87,-48,39,68,-63,-4,48,9,-14,-78,-165,-131
-92,-48,43,70,-68,-2,53,9,-4,-78,-165,-131
-97,-48,48,73,-73,0,53,9,0,-78,-165,-131
-102,-34,68,68,-85,17,58,14,9,-73,-165,-131
-102,-24,78,63,-90,26,58,14,9,-63,-165,-131
-92,-34,58,63,-75,12,58,14,19,-63,-165,-131
-82,-43,39,63,-61,-2,58,14,19,-63,-165,-131
-97,-53,43,75,-70,-4,63,14,29,-63,-165,-131
-112,-68,43,90,-78,-12,63,19,29,-53,-165,-126
-102,-48,53,75,-78,2,63,24,34,-53,-165,-126
-92,-29,63,61,-78,17,58,24,39,-53,-170,-126
-92,-29,63,61,-78,17,58,24,39,-48,-170,-126
-92,-29,63,61,-78,17,63,29,39,-43,-175,-126
-97,-34,63,65,-80,14,68,29,48,-43,-180,-136
-102,-39,63,70,-82,12,73,34,58,-43,-185,-146
-112,-48,63,80,-87,7,78,39,68,-39,-185,-146
-117,-63,53,90,-85,-4,82,39,73,-39,-190,-151
-117,-63,53,90,-85,-4,87,43,73,-34,-195,-156
-117,-63,53,90,-85,-4,87,43,82,-34,-200,-165
-117,-68,48,92,-82,-9,97,48,97,-34,-200,-170
-117,-73,43,95,-80,-14,102,58,117,-24,-200,-170
-112,-73,39,92,-75,-17,102,58,117,-19,-195,-170
-102,-73,29,87,-65,-21,107,63,122,-14,-195,-175
-102,-73,29,87,-65,-21,117,73,141,-4,-200,-180
-102,-68,34,85,-68,-17,126,78,161,4,-200,-180
-112,-92,19,102,-65,-36,131,87,170,9,-200,-185
-126,-117,9,122,-68,-53,141,97,180,9,-200,-185
-131,-107,24,119,-78,-41,141,102,185,24,-200,-185
-131,-97,34,114,-82,-31,146,107,200,24,-200,-185
-131,-78,53,104,-92,-12,146,112,214,29,-195,-190
-136,-73,63,104,-100,-4,151,107,224,39,-190,-195
-136,-68,68,102,-102,0,156,112,239,43,-190,-195
-136,-63,73,100,-104,4,161,117,253,48,-190,-200
-141,-63,78,102,-109,7,161,126,268,58,-190,-190
-141,-53,87,97,-114,17,165,131,283,58,-190,-180
-146,-48,97,97,-122,24,170,136,307,78,-185,-175
-146,-43,102,95,-124,29,175,141,322,97,-180,-175
-146,-39,107,92,-126,34,180,146,346,102,-180,-170
-151,-34,117,92,-134,41,180,151,356,107,-175,-165
-156,-24,131,90,-143,53,185,156,366,107,-170,-156
-156,-14,141,85,-148,63,190,161,375,117,-165,-151
-156,-9,146,82,-151,68,190,165,385,126,-165,-151
-161,0,161,80,-161,80,195,161,395,126,-165,-151
-161,0,161,80,-161,80,195,161,400,126,-175,-151
-161,4,165,78,-163,85,190,161,405,126,-185,-151
-161,4,165,78,-163,85,190,156,409,126,-190,-156
-161,0,161,80,-161,80,190,156,409,131,-190,-156
-161,0,161,80,-161,80,195,161,400,126,-190,-156
-151,0,151,75,-151,75,190,161,395,126,-190,-156
-146,4,151,70,-148,78,185,156,375,122,-195,-156
-136,14,151,61,-143,82,175,141,366,112,-195,-156
-126,14,141,56,-134,78,165,136,356,112,-190,-151
-117,9,126,53,-122,68,165,136,346,112,-190,-146
-107,4,112,51,-109,58,156,131,336,112,-190,-146
-92,4,97,43,-95,51,146,122,322,112,-185,-141
-73,-4,68,39,-70,31,131,122,307,112,-170,-131
-63,-19,43,41,-53,12,122,112,302,117,-156,-122
-48,-14,34,31,-41,9,112,107,292,122,-146,-122
-34,-14,19,24,-26,2,102,97,278,126,-136,-112
-19,-4,14,12,-17,4,87,87,263,126,-131,-107
-9,9,19,0,-14,14,78,73,253,131,-122,-102
-4,24,29,-9,-17,26,63,73,234,136,-107,-92
0,24,24,-12,-12,24,53,78,224,141,-97,-78
14,29,14,-21,0,21,39,73,214,146,-82,-68
24,29,4,-26,9,17,34,58,200,146,-73,-68
29,34,4,-31,12,19,24,53,190,146,-68,-63
39,34,-4,-36,21,14,14,48,170,141,-58,-63
48,34,-14,-41,31,9,4,39,156,141,-53,-53
48,34,-14,-41,31,9,-4,29,131,131,-53,-48
53,29,-24,-41,39,2,-14,19,117,126,-48,-43
53,24,-29,-39,41,-2,-19,4,97,126,-48,-43
53,24,-29,-39,41,-2,-24,0,82,112,-43,-39
53,24,-29,-39,41,-2,-34,-4,58,102,-43,-34
58,14,-43,-36,51,-14,-39,-4,53,92,-43,-24
53,14,-39,-34,46,-12,-39,-9,39,87,-43,-24
53,14,-39,-34,46,-12,-34,-9,29,78,-39,-14
48,9,-39,-29,43,-14,-29,-9,19,73,-34,-9
48,0,-48,-24,48,-24,-29,-9,9,68,-43,-19
43,0,-43,-21,43,-21,-29,-9,4,63,-48,-19
43,0,-43,-21,43,-21,-29,-9,-4,58,-53,-19
39,-4,-43,-17,41,-24,-29,-9,-9,53,-53,-19
34,-4,-39,-14,36,-21,-24,-14,-14,48,-53,-19
34,0,-34,-17,34,-17,-24,-14,-19,39,-58,-19
34,0,-34,-17,34,-17,-24,-14,-14,39,-63,-19
29,-4,-34,-12,31,-19,-29,-14,-9,34,-63,-19
29,-14,-43,-7,36,-29,-29,-14,-9,29,-63,-14
29,-24,-53,-2,41,-39,-24,-14,-19,29,-68,-19
19,-24,-43,2,31,-34,-24,-14,-19,29,-68,-14
19,-29,-48,4,34,-39,-19,-14,-14,29,-68,-4
19,-29,-48,4,34,-39,-19,-14,-14,34,-68,0
9,-24,-34,7,21,-29,-24,-14,-14,34,-73,4
9,-9,-19,0,14,-14,-29,-19,-9,34,-73,9
4,4,0,-4,2,2,-29,-19,-9,39,-63,14
4,-4,-9,0,7,-7,-29,-19,-9,39,-58,19
4,-14,-19,4,12,-17,-24,-19,-9,39,-53,24
4,-14,-19,4,12,-17,-24,-19,-4,39,-48,19
-4,-9,-4,7,0,-7,-24,-24,-4,39,-53,19
-4,0,4,2,-4,2,-19,-24,-9,39,-58,24
-4,4,9,0,-7,7,-19,-19,-14,39,-53,24
-4,9,14,-2,-9,12,-14,-19,-14,39,-63,29
-4,9,14,-2,-9,12,-14,-24,-14,39,-63,34
-14,9,24,2,-19,17,-14,-24,-14,43,-63,34
-14,9,24,2,-19,17,-14,-24,-14,43,-58,34
-14,0,14,7,-14,7,-14,-24,-14,53,-58,39
-14,-9,4,12,-9,-2,-14,-24,-14,58,-58,43
-14,9,24,2,-19,17,-14,-29,-9,58,-48,43
-14,24,39,-4,-26,31,-14,-29,-9,58,-48,48
-19,24,43,-2,-31,34,-14,-29,-9,68,-43,53
-19,24,43,-2,-31,34,-19,-34,-4,73,-39,53
-19,29,48,-4,-34,39,-19,-34,-4,73,-43,58
-19,29,48,-4,-34,39,-19,-34,-9,73,-43,63
-19,29,48,-4,-34,39,-24,-34,-9,73,-39,63
-19,29,48,-4,-34,39,-24,-34,-4,78,-39,63
-29,29,58,0,-43,43,-24,-39,-4,73,-39,63
-29,34,63,-2,-46,48,-24,-43,-9,63,-43,63
-29,29,58,0,-43,43,-24,-48,-9,58,-43,68
-34,29,63,2,-48,46,-24,-48,-14,58,-43,73
-34,19,53,7,-43,36,-24,-48,-14,58,-43,73
-34,14,48,9,-41,31,-24,-48,-19,58,-43,73
-29,34,63,-2,-46,48,-29,-53,-19,58,-43,68
-24,48,73,-12,-48,61,-29,-53,-24,58,-43,63
-24,48,73,-12,-48,61,-29,-53,-29,58,-48,58
-19,43,63,-12,-41,53,-29,-63,-39,53,-48,58
-19,43,63,-12,-41,53,-34,-63,-39,43,-53,58
-19,43,63,-12,-41,53,-34,-63,-39,39,-63,58
-14,43,58,-14,-36,51,-34,-58,-43,34,-63,53
-14,39,53,-12,-34,46,-34,-53,-43,34,-63,53
-14,43,58,-14,-36,51,-39,-53,-48,43,-53,53
-14,48,63,-17,-39,56,-43,-53,-53,58,-43,53
-9,73,82,-31,-46,78,-48,-63,-58,34,-58,43
-9,92,102,-41,-56,97,-53,-73,-63,14,-73,39
4,82,78,-43,-36,80,-58,-73,-63,9,-78,39
19,73,53,-46,-17,63,-58,-73,-73,9,-78,39
-4,68,73,-31,-39,70,-58,-68,-68,34,-63,39
-29,58,87,-14,-58,73,-58,-63,-63,58,-48,34
-14,58,73,-21,-43,65,-58,-63,-68,34,-68,29
9,68,58,-39,-24,63,-58,-63,-68,9,-82,19
-19,48,68,-14,-43,58,-53,-58,-63,9,-82,19
-34,39,73,-2,-53,56,-48,-53,-58,9,-82,19
-14,24,39,-4,-26,31,-43,-53,-68,9,-92,14
0,9,9,-4,-4,9,-39,-53,-68,14,-102,9
9,19,9,-14,0,14,-39,-53,-68,9,-107,9
24,34,9,-29,7,21,-39,-53,-68,9,-107,9
14,24,9,-19,2,17,-39,-48,-68,14,-107,14
4,4,0,-4,2,2,-39,-39,-63,14,-112,14
0,-19,-19,9,9,-19,-29,-39,-58,19,-122,4
-4,-39,-34,21,14,-36,-19,-39,-53,19,-122,0
-24,-43,-19,34,-2,-31,-19,-39,-48,19,-122,-4
-43,-43,0,43,-21,-21,-19,-39,-48,19,-112,-4
-34,-43,-9,39,-12,-26,-19,-39,-48,19,-117,-4
-19,-43,-24,31,2,-34,-19,-39,-48,19,-122,-4
-19,-63,-43,41,12,-53,-9,-34,-48,19,-126,0
-14,-82,-68,48,26,-75,-4,-29,-48,19,-131,4
-14,-73,-58,43,21,-65,-4,-29,-48,19,-136,9
-14,-68,-53,41,19,-61,-4,-29,-53,19,-141,9
-14,-63,-48,39,17,-56,-9,-34,-53,4,-151,0
-14,-58,-43,36,14,-51,-9,-43,-53,-4,-165,-9
-14,-53,-39,34,12,-46,-9,-39,-39,19,-146,-4
-19,-53,-34,36,7,-43,-9,-39,-29,43,-131,-4
-14,-24,-9,19,-2,-17,-14,-39,-39,29,-141,-14
-9,0,9,4,-9,4,-19,-39,-48,19,-156,-29
-9,4,14,2,-12,9,-19,-39,-48,19,-156,-39
-9,9,19,0,-14,14,-19,-39,-48,19,-156,-48
-9,29,39,-9,-24,34,-19,-39,-43,29,-151,-63
-4,43,48,-19,-26,46,-14,-34,-29,34,-141,-68
0,63,63,-31,-31,63,-14,-34,-19,43,-131,-78
0,78,78,-39,-39,78,-4,-24,-9,58,-117,-58
0,87,87,-43,-43,87,24,-24,4,63,-107,-58
4,92,87,-48,-41,90,34,-19,14,73,-97,-53
4,107,102,-56,-48,104,29,-24,19,68,-92,-53
14,122,107,-68,-46,114,24,-39,19,68,-87,-48
19,122,102,-70,-41,112,-19,-48,9,68,-73,-34
19,131,112,-75,-46,122,-48,-63,0,68,-58,-29
24,146,122,-85,-48,134,-73,-82,-29,63,-43,-19
29,161,131,-95,-51,146,-112,-112,-68,53,-34,0
39,175,136,-107,-48,156,-131,-136,-92,48,-19,4
39,175,136,-107,-48,156,-131,-136,-102,39,-9,9
34,161,126,-97,-46,143,-122,-131,-112,24,9,19
29,141,112,-85,-41,126,-107,-131,-112,19,19,24
24,126,102,-75,-39,114,-102,-117,-112,19,14,29
24,122,97,-73,-36,109,-87,-112,-107,14,14,24
34,107,73,-70,-19,90,-82,-102,-107,19,24,34
39,92,53,-65,-7,73,-78,-92,-97,24,39,39
39,92,53,-65,-7,73,-73,-82,-82,34,58,53
43,92,48,-68,-2,70,-73,-78,-73,48,73,68
43,87,43,-65,0,65,-68,-73,-68,58,87,78
43,78,34,-61,4,56,-63,-73,-68,68,102,82
9,48,39,-29,-14,43,-53,-63,-73,48,107,73
-24,14,39,4,-31,26,-43,-63,-82,19,92,53
-39,-4,34,21,-36,14,-39,-48,-92,9,92,63
-43,-14,29,29,-36,7,-39,-43,-97,9,107,82
-34,-14,19,24,-26,2,-39,-58,-107,0,107,82
-29,-24,4,26,-17,-9,-39,-68,-112,-4,107,78
-34,-29,4,31,-19,-12,-34,-63,-112,-9,107,82
-43,-39,4,41,-24,-17,-29,-63,-112,-9,112,82
-43,-39,4,41,-24,-17,-29,-58,-112,-4,117,87
-39,-39,0,39,-19,-19,-29,-58,-112,0,122,92
-39,-39,0,39,-19,-19,-29,-53,-107,0,117,97
-43,-39,4,41,-24,-17,-19,-48,-97,0,117,107
-43,-39,4,41,-24,-17,-14,-53,-87,-14,107,87
-87,-53,34,70,-61,-9,29,-19,-43,-34,68,39
-190,-82,107,136,-148,12,131,68,78,-73,-39,-43
-292,-78,214,185,-253,68,268,185,283,-58,-112,-92
-366,-29,336,197,-351,153,375,283,551,19,-97,-102
-346,29,375,158,-361,202,468,419,912,195,-48,-73
-219,161,380,29,-300,270,507,561,1342,595,165,78
29,414,385,-222,-178,400,439,605,1747,1122,507,356
375,829,453,-602,-39,641,112,448,1668,1693,1058,800
805,1244,439,-1024,183,841,-366,141,1132,2127,1610,1263
1259,1259,0,-1259,629,629,-834,-263,161,2010,1859,1488
1385,512,-873,-949,1129,-180,-951,-448,-1063,1029,1503,1210
1063,-414,-1478,-324,1271,-946,-868,-629,-2327,-697,478,429
697,-766,-1464,34,1080,-1115,-922,-795,-2903,-1566,-4,107
390,-897,-1288,253,839,-1093,-849,-780,-2718,-1634,-224,-73
190,-849,-1039,329,614,-944,-629,-551,-2137,-1439,-297,-151
73,-688,-761,307,417,-724,-375,-312,-1464,-1078,-239,-146
0,-483,-483,241,241,-483,-209,-161,-927,-736,-180,-141
-53,-317,-263,185,104,-290,-82,-34,-595,-453,-63,-58
-53,-190,-136,122,41,-163,-48,-9,-390,-263,39,14
-48,-141,-92,95,21,-117,4,24,-229,-151,102,58
-53,-126,-73,90,9,-100,43,43,-136,-107,107,53
-68,-102,-34,85,-17,-68,48,43,-102,-68,117,53
-78,-92,-14,85,-31,-53,43,19,-87,-48,122,58
-82,-97,-14,90,-34,-56,48,14,-68,-39,131,68
-82,-107,-24,95,-29,-65,58,14,-39,-39,131,68
-87,-112,-24,100,-31,-68,68,24,-24,-34,131,63
-97,-112,-14,104,-41,-63,68,24,-24,-29,131,58
-97,-107,-9,102,-43,-58,68,19,-14,-19,136,58
-97,-107,-9,102,-43,-58,73,19,-4,-19,136,53
-97,-102,-4,100,-46,-53,73,19,-4,-14,136,53
-102,-92,9,97,-56,-41,78,24,0,-4,136,53
-102,-92,9,97,-56,-41,78,24,0,4,136,53
-102,-92,9,97,-56,-41,78,24,9,4,136,53
-102,-92,9,97,-56,-41,78,24,9,0,141,53
-102,-92,9,97,-56,-41,82,24,19,-4,146,53
-107,-107,0,107,-53,-53,82,29,24,4,146,58
-112,-117,-4,114,-53,-61,87,34,34,4,146,58
-112,-117,-4,114,-53,-61,87,34,39,4,136,58
-112,-117,-4,114,-53,-61,87,34,43,9,131,58
-107,-112,-4,109,-51,-58,92,39,39,14,126,63
-107,-107,0,107,-53,-53,92,39,39,14,126,68
-112,-107,4,109,-58,-51,92,43,48,14,131,68
-117,-107,9,112,-63,-48,97,48,58,19,136,68
-117,-112,4,114,-61,-53,102,48,63,14,131,63
-117,-112,4,114,-61,-53,107,53,63,14,131,63
-117,-112,4,114,-61,-53,107,43,73,14,126,53
-117,-112,4,114,-61,-53,112,39,82,14,122,48
-112,-102,9,107,-61,-46,112,48,97,24,122,53
-112,-92,19,102,-65,-36,112,48,97,24,122,53
-112,-92,19,102,-65,-36,117,53,102,24,117,48
-112,-92,19,102,-65,-36,117,58,112,29,112,43
-117,-97,19,107,-68,-39,117,58,122,34,112,43
-122,-107,14,114,-68,-46,122,63,131,39,112,43
-126,-97,29,112,-78,-34,131,63,141,39,107,43
-131,-87,43,109,-87,-21,131,63,151,53,102,39
-131,-87,43,109,-87,-21,136,68,170,53,102,39
-131,-73,58,102,-95,-7,136,82,185,58,102,39
-136,-68,68,102,-102,0,131,82,195,68,102,39
-136,-58,78,97,-107,9,126,82,209,73,102,39
-131,-48,82,90,-107,17,131,82,224,78,97,34
-131,-43,87,87,-109,21,131,87,234,87,92,34
-126,-34,92,80,-109,29,136,92,244,87,92,29
-126,-29,97,78,-112,34,141,97,263,97,92,29
-126,-19,107,73,-117,43,146,97,273,107,87,29
-126,-9,117,68,-122,53,151,97,292,112,82,29
-136,-4,131,70,-134,63,151,102,307,122,87,29
-146,4,151,70,-148,78,156,107,326,126,87,34
-146,14,161,65,-153,87,156,112,336,136,87,39
-146,14,161,65,-153,87,151,122,346,146,87,43
-151,19,170,65,-161,95,156,126,356,146,87,43
-151,19,170,65,-161,95,161,131,361,146,82,43
-151,24,175,63,-163,100,161,131,366,146,78,43
-151,29,180,61,-165,104,161,126,366,141,73,39
-151,29,180,61,-165,104,161,117,361,141,68,34
-151,29,180,61,-165,104,161,112,351,136,63,29
-141,29,170,56,-156,100,156,122,351,136,63,29
-136,29,165,53,-151,97,151,126,341,131,58,29
-131,29,161,51,-146,95,141,117,336,122,58,34
-126,24,151,51,-139,87,136,117,326,122,63,39
-122,19,141,51,-131,80,136,117,317,122,63,43
-112,19,131,46,-122,75,126,112,307,122,63,48
-92,19,112,36,-102,65,122,102,292,126,68,58
-73,19,92,26,-82,56,112,102,278,126,78,73
-68,14,82,26,-75,48,102,97,278,131,97,82
-58,14,73,21,-65,43,92,97,273,141,112,82
-48,14,63,17,-56,39,87,87,258,146,117,92
-39,14,53,12,-46,34,78,78,244,146,122,97
-29,19,48,4,-39,34,68,63,234,151,131,107
-14,34,48,-9,-31,41,53,53,214,151,141,117
4,34,29,-19,-12,31,43,48,204,151,146,126
24,39,14,-31,4,26,29,43,195,156,156,136
34,39,4,-36,14,21,24,39,180,161,161,141
39,43,4,-41,17,24,14,39,170,165,161,151
43,43,0,-43,21,21,4,29,151,161,165,151
48,43,-4,-46,26,19,-4,19,141,161,170,156
48,43,-4,-46,26,19,-9,19,126,151,170,156
53,39,-14,-46,34,12,-14,19,117,146,175,161
53,34,-19,-43,36,7,-19,4,97,146,170,161
53,34,-19,-43,36,7,-24,0,82,131,170,165
53,34,-19,-43,36,7,-34,-4,58,122,170,170
53,24,-29,-39,41,-2,-39,-4,53,112,170,170
43,24,-19,-34,31,2,-39,-4,39,107,170,161
43,24,-19,-34,31,2,-39,0,29,97,165,161
43,19,-24,-31,34,-2,-39,0,19,87,161,156
48,9,-39,-29,43,-14,-39,0,9,78,151,146
43,9,-34,-26,39,-12,-34,0,4,73,146,146
43,9,-34,-26,39,-12,-29,0,0,68,141,146
39,4,-34,-21,36,-14,-29,0,0,63,141,146
34,0,-34,-17,34,-17,-24,-4,-4,58,141,141
34,0,-34,-17,34,-17,-24,-4,-9,48,136,136
34,0,-34,-17,34,-17,-24,-4,-9,48,131,136
24,-4,-29,-9,26,-17,-29,-4,-9,43,126,136
19,-4,-24,-7,21,-14,-29,-4,-9,39,122,136
19,-4,-24,-7,21,-14,-24,0,-14,39,117,126
9,-4,-14,-2,12,-9,-24,4,-9,39,117,122
14,-9,-24,-2,19,-17,-24,4,-4,34,117,122
19,-9,-29,-4,24,-19,-24,4,-4,34,117,126
9,-4,-14,-2,12,-9,-24,0,-4,34,112,131
9,-4,-14,-2,12,-9,-24,-4,0,34,112,136
9,-4,-14,-2,12,-9,-19,-4,-4,39,117,136
14,-4,-19,-4,17,-12,-19,-9,-9,39,112,131
19,-4,-24,-7,21,-14,-14,-9,-9,39,112,131
19,-4,-24,-7,21,-14,-14,-4,-4,39,112,126
4,0,-4,-2,4,-2,-19,-9,-4,39,112,126
4,9,4,-7,0,7,-19,-14,-4,39,112,131
4,4,0,-4,2,2,-24,-9,-4,39,112,131
4,0,-4,-2,4,-2,-24,-9,-4,39,102,131
4,9,4,-7,0,7,-24,-14,0,43,102,136
-4,19,24,-7,-14,21,-24,-14,4,53,102,136
-4,19,24,-7,-14,21,-24,-14,4,53,107,131
-4,24,29,-9,-17,26,-24,-14,4,58,107,131
-4,34,39,-14,-21,36,-24,-14,0,58,107,131
-9,43,53,-17,-31,48,-24,-19,0,58,117,131
-14,48,63,-17,-39,56,-24,-19,0,58,117,131
-19,53,73,-17,-46,63,-24,-19,0,63,117,131
-19,53,73,-17,-46,63,-29,-29,0,58,117,131
-19,58,78,-19,-48,68,-29,-34,-4,53,112,131
-19,58,78,-19,-48,68,-29,-34,-9,53,107,131
-19,58,78,-19,-48,68,-29,-34,-9,53,107,131
-19,58,78,-19,-48,68,-24,-34,-4,58,107,131
-29,58,87,-14,-58,73,-24,-34,-4,58,107,131
-29,68,97,-19,-63,82,-24,-29,-4,53,102,131
-24,73,97,-24,-61,85,-24,-29,0,48,102,131
-24,78,102,-26,-63,90,-24,-29,-4,48,102,131
-24,78,102,-26,-63,90,-24,-29,-4,48,102,131
-24,78,102,-26,-63,90,-24,-29,-9,48,102,131
-24,73,97,-24,-61,85,-29,-34,-9,48,102,131
-24,68,92,-21,-58,80,-29,-34,-14,48,102,131
-24,68,92,-21,-58,80,-29,-34,-14,48,97,126
-19,63,82,-21,-51,73,-29,-43,-19,43,97,126
-19,63,82,-21,-51,73,-34,-43,-19,39,97,126
-19,63,82,-21,-51,73,-34,-43,-19,34,92,126
-14,63,78,-24,-46,70,-34,-43,-24,24,92,122
-14,58,73,-21,-43,65,-34,-43,-29,24,92,122
-14,58,73,-21,-43,65,-34,-43,-39,19,92,122
-14,58,73,-21,-43,65,-34,-43,-43,19,87,117
-9,58,68,-24,-39,63,-34,-43,-43,14,82,107
-14,48,63,-17,-39,56,-29,-43,-39,14,82,107
-19,43,63,-12,-41,53,-29,-43,-34,9,78,107
-19,43,63,-12,-41,53,-29,-43,-43,9,78,107
-19,43,63,-12,-41,53,-29,-43,-43,9,78,107
-19,39,58,-9,-39,48,-29,-43,-48,9,78,102
-19,39,58,-9,-39,48,-29,-43,-58,4,73,102
-9,48,58,-19,-34,53,-34,-43,-58,0,73,102
-24,39,63,-7,-43,51,-39,-43,-58,0,73,107
-24,39,63,-7,-43,51,-39,-43,-58,0,73,107
-19,34,53,-7,-36,43,-39,-43,-68,-4,73,107
-19,29,48,-4,-34,39,-39,-43,-68,-4,73,107
-19,24,43,-2,-31,34,-39,-43,-68,-9,68,107
-14,19,34,-2,-24,26,-39,-43,-68,-9,68,107
-14,24,39,-4,-26,31,-39,-43,-68,-4,68,112
-9,24,34,-7,-21,29,-34,-39,-63,-4,68,112
-4,14,19,-4,-12,17,-29,-39,-63,-4,63,107
-4,14,19,-4,-12,17,-29,-39,-63,-9,63,107
-4,14,19,-4,-12,17,-29,-39,-63,-9,63,102
-4,14,19,-4,-12,17,-34,-39,-68,-9,68,102
-9,14,24,-2,-17,19,-39,-39,-68,-9,63,102
-9,14,24,-2,-17,19,-39,-39,-68,-9,58,102
-9,14,24,-2,-17,19,-34,-39,-68,-9,53,102
-4,19,24,-7,-14,21,-29,-39,-68,-14,53,102
-4,24,29,-9,-17,26,-24,-39,-68,-19,53,107
-4,19,24,-7,-14,21,-24,-39,-73,-19,58,107
-4,19,24,-7,-14,21,-29,-39,-73,-24,58,107
-4,19,24,-7,-14,21,-29,-43,-73,-24,48,102
-4,14,19,-4,-12,17,-29,-43,-73,-24,48,97
-4,9,14,-2,-9,12,-29,-43,-73,-24,53,97
-4,4,9,0,-7,7,-29,-43,-73,-24,63,92
-9,9,19,0,-14,14,-34,-39,-78,-24,63,92
-9,9,19,0,-14,14,-29,-39,-78,-24,58,92
-14,14,29,0,-21,21,-39,-39,-78,-24,53,92
-24,14,39,4,-31,26,-39,-39,-73,-24,48,92
-14,14,29,0,-21,21,-39,-39,-73,-24,48,92
-9,19,29,-4,-19,24,-39,-39,-78,-24,53,92
-4,19,24,-7,-14,21,-39,-39,-73,-19,53,92
0,19,19,-9,-9,19,-39,-39,-68,-19,58,97
0,24,24,-12,-12,24,-34,-39,-68,-19,58,97
0,29,29,-14,-14,29,-29,-39,-68,-19,58,97
4,39,34,-21,-14,36,-29,-39,-58,-9,58,102
9,48,39,-29,-14,43,-24,-34,-39,0,63,102
19,63,43,-41,-12,53,-24,-29,-24,4,68,107
19,78,58,-48,-19,68,-14,-14,-9,19,78,126
19,87,68,-53,-24,78,14,-14,4,24,82,122
24,92,68,-58,-21,80,24,-9,14,34,87,122
24,92,68,-58,-21,80,34,4,29,39,87,122
34,92,58,-63,-12,75,43,9,39,48,87,126
39,92,53,-65,-7,73,9,0,43,48,92,136
39,102,63,-70,-12,82,-9,-14,48,48,97,136
43,107,63,-75,-9,85,-48,-43,4,39,102,136
48,112,63,-80,-7,87,-102,-82,-48,24,102,146
58,126,68,-92,-4,97,-122,-107,-78,14,107,146
58,126,68,-92,-4,97,-122,-107,-92,0,107,146
58,122,63,-90,-2,92,-117,-102,-107,-14,107,146
58,112,53,-85,2,82,-107,-102,-112,-19,97,141
53,97,43,-75,4,70,-102,-92,-112,-19,87,141
53,92,39,-73,7,65,-87,-92,-107,-24,82,131
53,73,19,-63,17,46,-78,-82,-102,-19,82,131
48,53,4,-51,21,29,-68,-73,-87,-14,87,126
48,53,4,-51,21,29,-68,-63,-78,-9,92,126
53,53,0,-53,26,26,-73,-58,-73,0,92,126
68,63,-4,-65,36,29,-68,-53,-63,4,92,131
82,68,-14,-75,48,26,-63,-53,-58,9,92,131
53,53,0,-53,26,26,-53,-39,-63,0,87,122
24,34,9,-29,7,21,-43,-34,-73,-19,63,102
-4,14,19,-4,-12,17,-39,-34,-82,-34,48,87
-24,4,29,9,-26,17,-39,-43,-87,-39,48,82
-14,9,24,2,-19,17,-39,-53,-97,-43,43,78
-9,4,14,2,-12,9,-39,-58,-102,-43,39,68
-14,0,14,7,-14,7,-39,-53,-102,-48,34,68
-24,-9,14,17,-19,2,-39,-53,-102,-48,34,63
-24,-19,4,21,-14,-7,-39,-48,-102,-48,29,63
-19,-29,-9,24,-4,-19,-39,-48,-102,-48,24,63
-19,-29,-9,24,-4,-19,-39,-48,-102,-48,19,58
-24,-29,-4,26,-9,-17,-29,-48,-97,-48,19,58
-29,-29,0,29,-14,-14,-24,-53,-102,-58,24,53
-78,-43,34,61,-56,-4,19,-19,-73,-73,0,19
-190,-73,117,131,-153,21,126,68,39,-117,-97,-63
-302,-68,234,185,-268,82,268,185,234,-107,-161,-112
-385,-29,356,207,-370,163,405,326,502,-63,-170,-141
-375,19,395,178,-385,207,527,507,863,78,-146,-131
-258,141,400,58,-329,270,585,668,1322,434,34,-9
-19,385,405,-183,-212,395,536,732,1756,917,341,239
366,834,468,-600,-51,651,185,561,1717,1464,839,649
834,1283,448,-1058,192,866,-317,239,1220,1873,1337,1078
1400,1337,-63,-1368,732,636,-893,-234,234,1869,1576,1278
1639,629,-1010,-1134,1324,-190,-1117,-488,-1005,1000,1210,976
1298,-473,-1771,-412,1534,-1122,-1029,-697,-2386,-795,122,117
912,-1000,-1912,43,1412,-1456,-1078,-893,-3079,-1732,-424,-283
556,-1117,-1673,280,1115,-1395,-971,-873,-2908,-1815,-595,-405
307,-1054,-1361,373,834,-1207,-717,-639,-2342,-1634,-619,-424
161,-829,-990,334,575,-910,-434,-370,-1600,-1229,-492,-351
58,-561,-619,251,339,-590,-239,-190,-995,-844,-366,-278
-9,-375,-366,192,178,-370,-102,-48,-644,-546,-239,-180
-24,-229,-204,126,90,-217,-58,-9,-419,-341,-126,-92
-24,-165,-141,95,58,-153,-4,14,-244,-214,-43,-29
-34,-136,-102,85,34,-119,34,24,-136,-156,-19,-14
-58,-102,-43,80,-7,-73,43,29,-102,-112,-9,-9
-78,-82,-4,80,-36,-43,43,9,-87,-87,-4,0
-82,-78,4,80,-43,-36,48,9,-68,-78,4,9
-82,-78,4,80,-43,-36,58,14,-39,-78,4,9
-87,-78,9,82,-48,-34,68,24,-24,-68,4,9
-97,-73,24,85,-61,-24,68,24,-24,-58,4,9
-97,-68,29,82,-63,-19,68,19,-9,-48,9,14
-97,-68,29,82,-63,-19,73,19,4,-48,9,14
-97,-68,29,82,-63,-19,73,19,9,-48,9,14
-102,-63,39,82,-70,-12,78,24,19,-43,9,14
-102,-63,39,82,-70,-12,78,24,19,-34,9,14
-102,-63,39,82,-70,-12,78,24,29,-34,9,14
-102,-63,39,82,-70,-12,78,24,29,-34,9,14
-102,-63,39,82,-70,-12,82,24,39,-34,9,14
-102,-68,34,85,-68,-17,82,29,39,-24,9,19
-102,-68,34,85,-68,-17,87,34,43,-24,9,19
-107,-73,34,90,-70,-19,92,34,48,-29,4,19
-112,-78,34,95,-73,-21,97,34,53,-29,4,19
-112,-78,34,95,-73,-21,102,34,53,-24,0,19
-117,-78,39,97,-78,-19,102,29,58,-24,0,19
-122,-78,43,100,-82,-17,102,34,68,-24,0,19
-126,-78,48,102,-87,-14,107,39,78,-19,0,19
-122,-78,43,100,-82,-17,112,39,82,-19,0,14
-117,-73,43,95,-80,-14,117,43,82,-14,4,14
-117,-73,43,95,-80,-14,117,43,92,-14,4,9
-117,-73,43,95,-80,-14,122,48,102,-14,4,9
-117,-78,39,97,-78,-19,117,58,117,-4,4,14
-122,-82,39,102,-80,-21,112,58,117,-4,4,14
-122,-82,39,102,-80,-21,117,63,126,-4,0,9
-122,-82,39,102,-80,-21,117,68,141,0,-4,4
-122,-73,48,97,-85,-12,117,68,151,4,-9,4
-122,-68,53,95,-87,-7,122,73,161,9,-14,4
-126,-63,63,95,-95,0,131,78,170,9,-14,4
-131,-58,73,95,-102,7,131,82,180,24,-14,0
-131,-58,73,95,-102,7,136,78,195,19,-14,0
-131,-43,87,87,-109,21,136,82,204,19,-14,0
-141,-48,92,95,-117,21,141,87,214,29,-14,0
-146,-48,97,97,-122,24,146,92,229,34,-14,0
-146,-43,102,95,-124,29,156,97,248,43,-14,-4
-151,-43,107,97,-129,31,161,107,263,58,-14,-4
-151,-34,117,92,-134,41,165,112,273,58,-14,-4
-156,-29,126,92,-141,48,170,117,292,68,-14,0
-156,-24,131,90,-143,53,175,122,307,78,-14,0
-156,-19,136,87,-146,58,180,126,331,82,-14,0
-161,-9,151,85,-156,70,180,131,336,87,-14,-4
-165,4,170,80,-168,87,185,136,346,87,-19,-4
-165,14,180,75,-173,97,190,141,356,97,-19,-4
-165,14,180,75,-173,97,190,151,366,107,-19,-4
-170,14,185,78,-178,100,195,156,375,107,-19,-4
-170,9,180,80,-175,95,200,161,380,107,-24,-4
-170,9,180,80,-175,95,200,161,385,102,-29,-4
-170,9,180,80,-175,95,200,156,385,92,-34,-9
-170,9,180,80,-175,95,200,156,380,92,-39,-14
-170,9,180,80,-175,95,200,161,370,87,-43,-19
-161,9,170,75,-165,90,195,165,366,87,-43,-19
-156,9,165,73,-161,87,190,165,351,82,-48,-19
-146,14,161,65,-153,87,180,151,346,63,-48,-24
-136,14,151,61,-143,82,175,146,336,53,-43,-29
-131,4,136,63,-134,70,175,146,331,53,-43,-29
-122,0,122,61,-122,61,165,141,326,53,-43,-29
-102,4,107,48,-104,56,156,131,312,58,-39,-24
-82,9,92,36,-87,51,141,131,297,58,-29,-14
-73,14,87,29,-80,51,126,122,292,58,-19,-4
-58,24,82,17,-70,53,112,117,283,63,-14,-4
-43,24,68,9,-56,46,102,112,268,68,-9,4
-29,24,53,2,-41,39,87,107,253,68,-4,9
-24,29,53,-2,-39,41,78,92,244,73,9,14
-14,43,58,-14,-36,51,63,82,224,73,24,19
0,43,43,-21,-21,43,53,78,214,73,29,29
14,48,34,-31,-9,41,39,73,204,78,39,39
29,48,19,-39,4,34,29,58,190,82,43,39
39,53,14,-46,12,34,14,48,180,87,43,43
48,53,4,-51,21,29,4,39,161,82,48,43
58,53,-4,-56,31,24,-4,29,151,82,53,48
63,63,0,-63,31,31,-14,19,126,73,58,48
73,68,-4,-70,39,31,-24,9,107,68,68,53
73,63,-9,-68,41,26,-29,-4,87,73,68,58
73,63,-9,-68,41,26,-34,-9,73,63,73,68
78,63,-14,-70,46,24,-48,-14,48,53,73,73
82,53,-29,-68,56,12,-58,-14,43,43,73,73
73,53,-19,-63,46,17,-58,-19,29,39,73,63
73,53,-19,-63,46,17,-58,-19,19,29,68,63
68,48,-19,-58,43,14,-53,-19,9,24,68,58
68,39,-29,-53,48,4,-48,-19,0,19,63,48
63,39,-24,-51,43,7,-48,-19,-4,14,58,48
63,39,-24,-51,43,7,-48,-19,-9,9,53,48
58,34,-24,-46,41,4,-48,-19,-9,4,53,48
53,29,-24,-41,39,2,-43,-24,-14,0,53,43
53,29,-24,-41,39,2,-43,-24,-19,-4,48,39
53,29,-24,-41,39,2,-43,-24,-19,0,43,39
48,24,-24,-36,36,0,-48,-24,-19,-4,43,39
48,24,-24,-36,36,0,-48,-24,-19,-9,43,39
48,24,-24,-36,36,0,-43,-24,-29,-9,39,29
39,24,-14,-31,26,4,-43,-24,-29,-9,39,24
39,19,-19,-29,29,0,-39,-19,-24,-14,39,24
39,19,-19,-29,29,0,-34,-14,-24,-14,39,29
29,24,-4,-26,17,9,-39,-14,-24,-14,34,29
29,24,-4,-26,17,9,-43,-14,-19,-14,34,29
29,19,-9,-24,19,4,-39,-14,-24,-9,43,34
34,14,-19,-24,26,-2,-39,-19,-29,-9,43,34
34,14,-19,-24,26,-2,-34,-19,-29,-9,43,34
29,14,-14,-21,21,0,-34,-14,-24,-9,43,29
9,14,4,-12,2,9,-34,-19,-24,-9,43,24
4,19,14,-12,-4,17,-29,-24,-24,-9,43,24
4,24,19,-14,-7,21,-29,-19,-24,-9,43,24
4,29,24,-17,-9,26,-24,-19,-24,-9,34,24
14,29,14,-21,0,21,-24,-24,-24,-9,34,29
14,29,14,-21,0,21,-24,-24,-24,-4,34,29
4,29,24,-17,-9,26,-29,-24,-24,-4,39,24
-4,34,39,-14,-21,36,-34,-24,-24,0,39,24
-4,39,43,-17,-24,41,-34,-24,-24,0,39,24
-9,43,53,-17,-31,48,-34,-29,-19,0,48,24
-9,48,58,-19,-34,53,-34,-29,-19,0,48,29
-9,53,63,-21,-36,58,-34,-29,-19,4,48,34
-9,53,63,-21,-36,58,-39,-39,-14,4,48,34
-9,58,68,-24,-39,63,-39,-43,-14,4,43,34
-14,53,68,-19,-41,61,-39,-43,-19,4,43,29
-19,48,68,-14,-43,58,-39,-43,-19,4,48,24
-19,48,68,-14,-43,58,-39,-43,-14,9,48,24
-29,48,78,-9,-53,63,-43,-43,-14,9,48,24
-24,53,78,-14,-51,65,-43,-43,-19,4,48,24
-14,53,68,-19,-41,61,-43,-48,-19,0,53,24
-14,58,73,-21,-43,65,-39,-48,-24,0,53,24
-14,58,73,-21,-43,65,-34,-48,-24,0,53,24
-19,63,82,-21,-51,73,-34,-48,-29,0,53,24
-24,63,87,-19,-56,75,-39,-53,-29,0,53,24
-24,58,82,-17,-53,70,-39,-48,-34,0,53,19
-24,58,82,-17,-53,70,-39,-43,-34,0,48,9
-19,58,78,-19,-48,68,-39,-53,-39,-4,43,9
-19,63,82,-21,-51,73,-43,-53,-39,-9,39,9
-19,63,82,-21,-51,73,-43,-53,-39,-9,34,9
-14,63,78,-24,-46,70,-43,-53,-43,-14,34,4
-14,53,68,-19,-41,61,-43,-53,-43,-14,39,0
-14,48,63,-17,-39,56,-43,-53,-48,-19,43,-4
-14,48,63,-17,-39,56,-43,-53,-53,-19,43,-4
-9,48,58,-19,-34,53,-43,-53,-53,-24,43,-9
-14,43,58,-14,-36,51,-43,-53,-53,-24,43,-9
-19,43,63,-12,-41,53,-48,-53,-53,-29,39,-9
-19,39,58,-9,-39,48,-48,-53,-63,-29,39,-9
-19,34,53,-7,-36,43,-48,-53,-63,-29,39,-9
-14,29,43,-7,-29,36,-48,-53,-63,-29,39,-14
-9,29,39,-9,-24,34,-48,-53,-68,-34,34,-14
0,39,39,-19,-19,39,-43,-53,-68,-39,29,-19
-14,29,43,-7,-29,36,-39,-53,-68,-39,24,-19
-14,29,43,-7,-29,36,-39,-53,-63,-34,24,-24
-9,24,34,-7,-21,29,-39,-53,-68,-34,24,-29
-9,19,29,-4,-19,24,-43,-53,-68,-34,24,-29
-9,14,24,-2,-17,19,-48,-53,-68,-39,19,-29
-4,14,19,-4,-12,17,-48,-58,-78,-48,19,-34
-4,24,29,-9,-17,26,-48,-63,-87,-53,19,-34
-4,24,29,-9,-17,26,-48,-58,-92,-53,14,-34
-4,14,19,-4,-12,17,-48,-58,-102,-53,4,-39
-4,14,19,-4,-12,17,-43,-53,-92,-58,9,-34
-4,14,19,-4,-12,17,-39,-48,-82,-58,14,-34
-9,14,24,-2,-17,19,-39,-48,-78,-48,29,-29
-19,14,34,2,-26,24,-39,-48,-68,-39,34,-24
-19,14,34,2,-26,24,-39,-43,-68,-39,34,-24
-19,14,34,2,-26,24,-34,-39,-68,-39,34,-24
-14,14,29,0,-21,21,-34,-39,-68,-39,34,-34
-14,14,29,0,-21,21,-34,-39,-68,-39,34,-39
-14,9,24,2,-19,17,-39,-43,-78,-43,34,-39
-14,9,24,2,-19,17,-48,-48,-82,-53,29,-39
-9,9,19,0,-14,14,-48,-53,-82,-53,14,-39
-4,4,9,0,-7,7,-48,-53,-82,-53,9,-39
-4,4,9,0,-7,7,-48,-48,-82,-53,14,-39
-4,4,9,0,-7,7,-48,-43,-82,-53,24,-43
-9,9,19,0,-14,14,-48,-39,-87,-53,24,-43
-9,9,19,0,-14,14,-39,-39,-87,-53,19,-43
-4,4,9,0,-7,7,-48,-43,-87,-53,19,-43
-4,-4,0,4,-2,-2,-48,-48,-87,-53,19,-43
-4,-4,0,4,-2,-2,-43,-48,-87,-58,19,-48
-4,0,4,2,-4,2,-43,-53,-92,-63,19,-53
0,0,0,0,0,0,-39,-48,-82,-53,24,-48
0,0,0,0,0,0,-39,-48,-78,-48,29,-48
0,0,0,0,0,0,-39,-48,-78,-48,29,-48
0,0,0,0,0,0,-39,-48,-78,-48,29,-48
-4,0,4,2,-4,2,-34,-48,-78,-48,29,-48
-9,0,9,4,-9,4,-29,-48,-78,-48,29,-48
-9,4,14,2,-12,9,-29,-43,-73,-48,29,-48
-9,9,19,0,-14,14,-29,-39,-68,-48,29,-48
0,19,19,-9,-9,19,-34,-39,-68,-39,29,-43
9,29,19,-19,-4,24,-29,-34,-53,-29,34,-39
19,43,24,-31,-2,34,-24,-29,-39,-24,39,-34
19,58,39,-39,-9,48,-4,-14,-19,-9,48,-9
19,68,48,-43,-14,58,24,-9,0,0,58,-9
24,73,48,-48,-12,61,34,0,14,14,68,-4
29,73,43,-51,-7,58,39,9,24,14,68,-4
43,73,29,-58,7,51,43,9,29,19,68,0
48,73,24,-61,12,48,9,9,34,19,73,9
48,82,34,-65,7,58,-9,4,39,19,78,9
48,92,43,-70,2,68,-43,-29,4,14,78,4
48,102,53,-75,-2,78,-92,-73,-39,4,73,9
58,117,58,-87,0,87,-117,-107,-78,-4,78,9
58,117,58,-87,0,87,-122,-117,-102,-19,78,9
58,112,53,-85,2,82,-117,-112,-112,-34,78,9
58,102,43,-80,7,73,-107,-112,-112,-39,68,4
53,87,34,-70,9,61,-102,-97,-112,-39,58,4
53,82,29,-68,12,56,-87,-92,-107,-43,53,-4
58,68,9,-63,24,39,-82,-82,-107,-43,48,-4
58,53,-4,-56,31,24,-78,-73,-97,-43,48,-9
68,63,-4,-65,36,29,-78,-68,-87,-39,53,-9
82,73,-9,-78,46,31,-82,-68,-82,-29,53,-9
82,73,-9,-78,46,31,-78,-63,-78,-24,53,-9
82,68,-14,-75,48,26,-73,-63,-78,-19,53,-14
53,48,-4,-51,29,21,-58,-48,-82,-29,48,-24
24,24,0,-24,12,12,-43,-43,-92,-48,24,-43
0,4,4,-2,-2,4,-39,-43,-102,-58,9,-58
-14,-4,9,9,-12,2,-39,-53,-107,-58,9,-63
-14,-4,9,9,-12,2,-39,-63,-107,-63,9,-63
-19,-14,4,17,-12,-4,-39,-68,-102,-63,9,-68
-24,-19,4,21,-14,-7,-39,-63,-102,-73,4,-68
-34,-29,4,31,-19,-12,-39,-63,-102,-78,4,-73
-34,-29,4,31,-19,-12,-39,-58,-102,-78,4,-73
-29,-29,0,29,-14,-14,-39,-58,-102,-78,4,-73
-29,-34,-4,31,-12,-19,-39,-53,-102,-78,0,-78
-34,-39,-4,36,-14,-21,-29,-48,-97,-78,0,-78
-34,-39,-4,36,-14,-21,-19,-53,-107,-82,-4,-78
-78,-53,24,65,-51,-14,29,-19,-82,-92,-39,-107
-204,-73,131,139,-168,29,146,87,39,-112,-102,-161
-331,-58,273,195,-302,107,297,224,244,-78,-131,-180
-414,-19,395,217,-405,187,444,375,522,-14,-131,-195
-405,29,434,187,-419,231,575,566,893,146,-97,-170
-234,175,409,29,-322,292,614,746,1332,463,73,-48
58,444,385,-251,-163,414,546,829,1747,907,370,200
473,844,370,-658,51,607,156,610,1620,1337,800,566
971,1244,273,-1107,348,758,-385,239,1034,1629,1229,951
1517,1215,-302,-1366,910,456,-985,-297,-14,1488,1317,1010
1737,424,-1312,-1080,1525,-444,-1234,-614,-1317,483,800,566
1356,-649,-2005,-353,1681,-1327,-1141,-854,-2630,-1146,-244,-268
932,-1146,-2078,107,1505,-1612,-1185,-1078,-3254,-1917,-746,-644
570,-1195,-1766,312,1168,-1481,-1054,-1010,-3001,-1917,-819,-697
317,-1063,-1381,373,849,-1222,-775,-727,-2352,-1654,-746,-649
156,-814,-971,329,563,-893,-463,-419,-1581,-1220,-570,-522
39,-522,-561,241,300,-541,-239,-200,-946,-805,-395,-395
-24,-341,-317,183,146,-329,-107,-58,-610,-522,-263,-292
-34,-200,-165,117,65,-183,-68,-19,-400,-331,-146,-200
-39,-146,-107,92,34,-126,-9,9,-234,-214,-68,-136
-53,-126,-73,90,9,-100,34,24,-136,-165,-48,-122
-73,-97,-24,85,-24,-61,43,24,-102,-126,-39,-122
-87,-82,4,85,-46,-39,43,0,-87,-107,-34,-117
-92,-73,19,82,-56,-26,48,0,-68,-97,-24,-107
-92,-68,24,80,-58,-21,58,4,-39,-97,-24,-107
-97,-68,29,82,-63,-19,68,14,-19,-87,-24,-107
-107,-63,43,85,-75,-9,68,14,-14,-78,-24,-107
-107,-58,48,82,-78,-4,68,9,-4,-63,-19,-102
-107,-58,48,82,-78,-4,73,9,4,-58,-19,-102
-107,-63,43,85,-75,-9,73,9,14,-58,-19,-102
-112,-63,48,87,-80,-7,78,14,29,-53,-19,-102
-112,-63,48,87,-80,-7,78,14,29,-43,-19,-97
-112,-63,48,87,-80,-7,78,14,39,-43,-19,-92
-112,-63,48,87,-80,-7,78,14,39,-43,-19,-92
-112,-63,48,87,-80,-7,82,14,48,-43,-19,-92
-112,-63,48,87,-80,-7,82,19,48,-34,-24,-92
-112,-58,53,85,-82,-2,87,24,53,-34,-29,-97
-112,-58,53,85,-82,-2,87,24,58,-39,-34,-97
-112,-58,53,85,-82,-2,87,24,63,-39,-34,-97
-112,-63,48,87,-80,-7,92,29,63,-34,-34,-97
-117,-68,48,92,-82,-9,92,29,68,-34,-29,-97
-122,-68,53,95,-87,-7,92,34,78,-29,-29,-92
-126,-68,58,97,-92,-4,97,39,87,-19,-29,-87
-126,-73,53,100,-90,-9,102,39,92,-19,-29,-92
-126,-73,53,100,-90,-9,107,43,92,-14,-24,-92
-131,-73,58,102,-95,-7,112,43,102,-14,-24,-97
-136,-73,63,104,-100,-4,122,48,112,-14,-24,-97
-136,-73,63,104,-100,-4,122,58,131,-4,-24,-97
-141,-73,68,107,-104,-2,122,58,136,-4,-24,-102
-141,-73,68,107,-104,-2,126,63,141,-4,-29,-107
-141,-73,68,107,-104,-2,126,68,151,0,-34,-112
-141,-68,73,104,-107,2,126,68,161,4,-34,-107
-141,-68,73,104,-107,2,131,73,170,9,-34,-102
-146,-68,78,107,-112,4,141,78,180,9,-34,-97
-151,-68,82,109,-117,7,141,82,190,24,-34,-97
-151,-68,82,109,-117,7,146,92,209,29,-34,-97
-151,-53,97,102,-124,21,146,112,224,39,-34,-97
-156,-53,102,104,-129,24,151,117,234,48,-34,-97
-156,-48,107,102,-131,29,156,122,248,53,-34,-97
-156,-48,107,102,-131,29,161,122,263,53,-34,-102
-161,-53,107,107,-134,26,161,126,273,58,-34,-102
-161,-43,117,102,-139,36,165,131,278,58,-34,-102
-165,-39,126,102,-146,43,170,136,292,68,-34,-97
-165,-34,131,100,-148,48,180,141,302,73,-39,-97
-165,-29,136,97,-151,53,190,146,322,73,-43,-97
-170,-24,146,97,-158,61,190,151,326,78,-39,-97
-175,-14,161,95,-168,73,195,156,336,78,-39,-92
-180,-4,175,92,-178,85,200,161,346,87,-39,-92
-185,-4,180,95,-183,87,200,170,356,97,-39,-92
-190,-4,185,97,-187,90,204,170,366,97,-34,-97
-190,-9,180,100,-185,85,209,170,370,97,-34,-102
-190,-4,185,97,-187,90,204,175,375,97,-39,-102
-190,0,190,95,-190,95,200,175,375,92,-43,-107
-190,0,190,95,-190,95,200,175,370,87,-48,-107
-190,0,190,95,-190,95,200,180,361,78,-53,-107
-180,0,180,90,-180,90,200,180,356,78,-53,-107
-175,0,175,87,-175,87,200,175,341,73,-58,-107
-165,4,170,80,-168,87,185,165,336,63,-63,-107
-156,4,161,75,-158,82,175,165,326,63,-63,-107
-151,0,151,75,-151,75,175,165,317,63,-63,-107
-141,0,141,70,-141,70,165,161,307,63,-63,-107
-122,4,126,58,-124,65,156,146,292,63,-58,-102
-102,9,112,46,-107,61,141,141,278,58,-48,-92
-92,9,102,41,-97,56,131,131,273,53,-39,-82
-78,14,92,31,-85,53,122,126,263,53,-34,-82
-58,14,73,21,-65,43,112,117,253,58,-29,-73
-39,14,53,12,-46,34,97,107,244,58,-24,-68
-29,19,48,4,-39,34,82,92,239,68,-9,-63
-14,34,48,-9,-31,41,63,82,224,73,4,-58
0,39,39,-19,-19,39,53,78,214,73,9,-43
14,48,34,-31,-9,41,39,73,204,78,19,-29
29,48,19,-39,4,34,29,58,185,78,24,-29
39,53,14,-46,12,34,14,48,170,78,24,-24
48,53,4,-51,21,29,4,39,151,73,29,-24
58,53,-4,-56,31,24,-4,29,141,73,34,-19
58,53,-4,-56,31,24,-14,19,122,68,34,-19
63,48,-14,-56,39,17,-24,9,107,68,39,-14
68,43,-24,-56,46,9,-29,-4,87,68,39,-19
73,43,-29,-58,51,7,-34,-9,73,53,43,-19
78,43,-34,-61,56,4,-43,-14,48,43,43,-14
82,34,-48,-58,65,-7,-48,-14,43,34,43,-14
73,34,-39,-53,56,-2,-48,-24,29,29,48,-24
73,34,-39,-53,56,-2,-48,-29,19,19,48,-24
63,29,-34,-46,48,-2,-48,-29,9,14,48,-24
58,19,-39,-39,48,-9,-48,-29,0,9,43,-29
53,19,-34,-36,43,-7,-48,-24,-4,9,39,-29
53,19,-34,-36,43,-7,-48,-19,-9,9,34,-29
48,14,-34,-31,41,-9,-48,-19,-9,4,34,-29
43,9,-34,-26,39,-12,-43,-24,-14,0,34,-34
43,9,-34,-26,39,-12,-43,-24,-19,-9,29,-39
43,9,-34,-26,39,-12,-43,-24,-19,-9,24,-39
43,4,-39,-24,41,-17,-48,-24,-19,-14,24,-39
48,4,-43,-26,46,-19,-48,-24,-19,-19,24,-39
48,4,-43,-26,46,-19,-43,-24,-29,-19,19,-43
39,4,-34,-21,36,-14,-43,-24,-29,-19,19,-43
39,0,-39,-19,39,-19,-39,-24,-29,-19,19,-43
39,0,-39,-19,39,-19,-34,-24,-34,-14,19,-39
24,4,-19,-14,21,-7,-34,-29,-34,-14,14,-39
19,4,-14,-12,17,-4,-34,-34,-29,-14,14,-39
14,4,-9,-9,12,-2,-34,-29,-29,-9,24,-34
14,4,-9,-9,12,-2,-39,-29,-29,-9,24,-34
19,4,-14,-12,17,-4,-34,-29,-29,-9,24,-34
19,4,-14,-12,17,-4,-34,-24,-24,-9,24,-39
4,-4,-9,0,7,-7,-34,-29,-24,-9,24,-39
4,-9,-14,2,9,-12,-29,-34,-24,-9,24,-34
4,-4,-9,0,7,-7,-29,-29,-24,-9,29,-29
4,0,-4,-2,4,-2,-24,-29,-24,-9,24,-24
4,4,0,-4,2,2,-24,-34,-24,-9,24,-24
-4,9,14,-2,-9,12,-24,-34,-24,-4,24,-29
-4,9,14,-2,-9,12,-24,-34,-24,-4,29,-34
-4,14,19,-4,-12,17,-24,-34,-24,0,29,-34
-4,19,24,-7,-14,21,-24,-34,-24,0,29,-29
-9,24,34,-7,-21,29,-24,-39,-19,0,39,-24
-14,24,39,-4,-26,31,-24,-39,-19,0,39,-19
-19,24,43,-2,-31,34,-24,-39,-19,4,39,-14
-24,24,48,0,-36,36,-29,-43,-14,4,39,-14
-29,29,58,0,-43,43,-29,-43,-14,4,34,-14
-29,29,58,0,-43,43,-29,-43,-19,4,39,-14
-29,29,58,0,-43,43,-29,-43,-19,4,48,-14
-34,29,63,2,-48,46,-24,-43,-14,14,48,-14
-48,29,78,9,-63,53,-24,-43,-14,19,48,-14
-48,34,82,7,-65,58,-24,-43,-19,14,43,-14
-43,34,78,4,-61,56,-24,-48,-19,9,43,-14
-39,39,78,0,-58,58,-24,-48,-24,4,43,-14
-34,39,73,-2,-53,56,-24,-48,-24,0,43,-14
-34,43,78,-4,-56,61,-24,-48,-29,0,43,-14
-34,43,78,-4,-56,61,-29,-53,-29,0,43,-14
-34,34,68,0,-51,51,-29,-48,-29,0,43,-14
-34,29,63,2,-48,46,-29,-43,-24,0,39,-19
-29,24,53,2,-41,39,-29,-53,-29,0,43,-14
-29,24,53,2,-41,39,-34,-53,-29,0,48,-9
-29,29,58,0,-43,43,-34,-53,-34,0,43,-9
-24,34,58,-4,-41,46,-34,-53,-43,-4,43,-14
-24,29,53,-2,-39,41,-34,-53,-43,-4,43,-14
-24,29,53,-2,-39,41,-34,-53,-48,-9,43,-14
-24,29,53,-2,-39,41,-34,-53,-53,-9,43,-14
-19,29,48,-4,-34,39,-34,-53,-53,-14,43,-19
-19,19,39,0,-29,29,-34,-53,-53,-14,43,-19
-19,14,34,2,-26,24,-39,-53,-53,-19,39,-19
-19,14,34,2,-26,24,-39,-58,-63,-19,39,-19
-19,14,34,2,-26,24,-39,-63,-63,-19,39,-19
-19,9,29,4,-24,19,-39,-63,-63,-19,39,-24
-19,9,29,4,-24,19,-39,-63,-68,-24,34,-24
-9,19,29,-4,-19,24,-39,-58,-68,-29,34,-29
-24,9,34,7,-29,21,-39,-53,-68,-29,34,-29
-24,9,34,7,-29,21,-39,-53,-68,-29,39,-29
-19,4,24,7,-21,14,-39,-53,-78,-34,43,-29
-19,0,19,9,-19,9,-39,-53,-78,-34,43,-29
-19,-4,14,12,-17,4,-39,-53,-78,-39,39,-29
-14,-4,9,9,-12,2,-39,-58,-78,-39,39,-29
-14,4,19,4,-17,12,-39,-63,-78,-34,39,-24
-14,9,24,2,-19,17,-39,-58,-73,-34,43,-19
-14,4,19,4,-17,12,-39,-58,-73,-34,43,-19
-14,0,14,7,-14,7,-43,-58,-73,-39,43,-19
-14,-4,9,9,-12,2,-48,-58,-73,-39,43,-24
-14,-4,9,9,-12,2,-48,-58,-82,-39,48,-24
-19,-4,14,12,-17,4,-48,-58,-87,-39,43,-24
-19,-4,14,12,-17,4,-48,-58,-87,-39,43,-24
-19,-4,14,12,-17,4,-43,-58,-87,-39,43,-24
-14,-4,9,9,-12,2,-43,-58,-82,-39,43,-29
-14,-4,9,9,-12,2,-43,-58,-78,-39,43,-29
-14,-9,4,12,-9,-2,-39,-58,-82,-39,48,-29
-14,-9,4,12,-9,-2,-39,-58,-82,-43,48,-29
-14,-9,4,12,-9,-2,-39,-63,-82,-43,39,-29
-14,-14,0,14,-7,-7,-39,-63,-82,-43,39,-29
-14,-19,-4,17,-4,-12,-39,-63,-82,-43,43,-29
-14,-24,-9,19,-2,-17,-39,-63,-82,-43,53,-34
-14,-19,-4,17,-4,-12,-39,-58,-87,-43,53,-34
-9,-19,-9,14,0,-14,-29,-58,-87,-43,48,-34
-4,-19,-14,12,4,-17,-39,-58,-82,-43,48,-29
-4,-24,-19,14,7,-21,-39,-58,-78,-43,48,-24
-9,-29,-19,19,4,-24,-34,-58,-73,-43,48,-24
-14,-29,-14,21,0,-21,-34,-63,-73,-43,48,-24
-9,-29,-19,19,4,-24,-34,-58,-73,-39,53,-24
-9,-29,-19,19,4,-24,-39,-58,-78,-39,58,-29
-9,-24,-14,17,2,-19,-39,-58,-78,-39,58,-29
-9,-19,-9,14,0,-14,-39,-58,-78,-39,58,-29
0,-14,-14,7,7,-14,-39,-53,-73,-34,58,-24
9,-9,-19,0,14,-14,-39,-48,-68,-29,58,-19
9,4,-4,-7,7,0,-39,-48,-63,-24,63,-14
9,14,4,-12,2,9,-29,-39,-48,-19,68,-9
14,29,14,-21,0,21,-19,-34,-34,-14,73,-9
9,39,29,-24,-9,34,4,-14,-19,0,78,9
9,48,39,-29,-14,43,29,-4,4,9,82,9
14,53,39,-34,-12,46,34,9,24,24,87,14
14,53,39,-34,-12,46,43,14,34,29,92,14
24,53,29,-39,-2,41,53,9,39,39,97,19
34,53,19,-43,7,36,19,9,43,39,102,34
39,63,24,-51,7,43,0,4,48,39,107,39
43,78,34,-61,4,56,-34,-24,14,34,107,39
48,92,43,-70,2,68,-82,-63,-29,24,102,48
58,107,48,-82,4,78,-117,-107,-68,14,107,48
58,107,48,-82,4,78,-131,-126,-92,0,107,48
58,102,43,-80,7,73,-126,-122,-107,-14,107,48
58,92,34,-75,12,63,-117,-122,-112,-19,97,43
53,78,24,-65,14,51,-112,-107,-112,-19,87,43
53,73,19,-63,17,46,-97,-102,-107,-24,82,34
58,58,0,-58,29,29,-87,-92,-107,-24,78,34
58,43,-14,-51,36,14,-78,-82,-97,-24,78,29
63,43,-19,-53,41,12,-78,-73,-87,-19,87,29
73,43,-29,-58,51,7,-82,-68,-82,-9,92,29
78,43,-34,-61,56,4,-78,-63,-73,-9,92,29
82,39,-43,-61,63,-2,-73,-63,-68,-9,92,24
53,24,-29,-39,41,-2,-63,-53,-73,-19,87,14
24,4,-19,-14,21,-7,-53,-53,-82,-39,63,-4
0,-19,-19,9,9,-19,-43,-53,-97,-48,39,-19
-14,-34,-19,24,2,-26,-39,-63,-107,-48,29,-24
-14,-34,-19,24,2,-26,-39,-68,-112,-53,29,-24
-19,-43,-24,31,2,-34,-39,-68,-112,-53,29,-29
-24,-48,-24,36,0,-36,-39,-68,-112,-58,29,-29
-34,-58,-24,46,-4,-41,-39,-73,-112,-58,34,-34
-34,-58,-24,46,-4,-41,-39,-68,-107,-58,39,-29
-29,-58,-29,43,0,-43,-39,-68,-102,-58,43,-24
-24,-53,-29,39,2,-41,-43,-63,-102,-58,39,-24
-24,-48,-24,36,0,-36,-39,-58,-97,-58,39,-19
-39,-48,-9,43,-14,-29,-24,-53,-97,-63,34,-24
-97,-63,34,80,-65,-14,29,-9,-63,-73,0,-58
-219,-78,141,148,-180,31,151,97,68,-87,-68,-117
-341,-58,283,200,-312,112,307,234,283,-48,-102,-141
-400,-14,385,207,-392,185,434,385,551,19,-97,-146
-366,39,405,163,-385,222,546,575,912,185,-58,-112
-209,185,395,12,-302,290,580,727,1337,512,131,24
68,453,385,-261,-158,419,507,780,1737,966,448,287
502,844,341,-673,80,592,112,546,1581,1366,863,634
1019,1234,214,-1127,402,724,-434,161,966,1629,1278,1000
1537,1161,-375,-1349,956,392,-1000,-366,-82,1420,1327,1039
1727,326,-1400,-1027,1564,-536,-1215,-673,-1385,346,771,575
1346,-678,-2025,-334,1686,-1351,-1122,-897,-2630,-1200,-219,-214
922,-1107,-2030,92,1476,-1568,-1166,-1107,-3186,-1888,-668,-546
551,-1156,-1708,302,1129,-1432,-1034,-1019,-2932,-1873,-741,-600
287,-1024,-1312,368,800,-1168,-756,-717,-2283,-1595,-668,-551
136,-785,-922,324,529,-854,-458,-424,-1537,-1171,-507,-439
29,-502,-531,236,280,-517,-248,-219,-927,-766,-346,-326
-34,-336,-302,185,134,-319,-112,-68,-590,-492,-219,-229
-43,-209,-165,126,61,-187,-68,-19,-380,-312,-107,-141
-43,-151,-107,97,31,-129,-14,4,-224,-200,-34,-82
-53,-126,-73,90,9,-100,24,14,-136,-156,-19,-73
-73,-102,-29,87,-21,-65,34,19,-102,-117,-4,-73
-87,-92,-4,90,-41,-48,34,0,-87,-97,4,-68
-92,-87,4,90,-48,-41,39,0,-63,-82,14,-58
-92,-87,4,90,-48,-41,48,4,-29,-78,14,-58
-97,-87,9,92,-53,-39,58,14,-14,-68,14,-53
-107,-82,24,95,-65,-29,58,14,-14,-58,14,-48
-107,-78,29,92,-68,-24,58,9,-4,-48,19,-43
-107,-78,29,92,-68,-24,63,9,4,-48,19,-43
-107,-82,24,95,-65,-29,68,9,9,-48,19,-43
-112,-82,29,97,-70,-26,78,14,19,-43,19,-43
-112,-82,29,97,-70,-26,78,14,19,-34,19,-43
-112,-82,29,97,-70,-26,78,14,29,-34,19,-43
-112,-82,29,97,-70,-26,78,14,34,-29,19,-39
-112,-82,29,97,-70,-26,82,14,48,-24,19,-34
-112,-82,29,97,-70,-26,82,19,48,-14,24,-29
-112,-78,34,95,-73,-21,87,24,53,-14,29,-29
-112,-73,39,92,-75,-17,87,24,58,-14,24,-29
-112,-68,43,90,-78,-12,87,24,63,-9,24,-29
-117,-68,48,92,-82,-9,92,29,63,-4,14,-29
-126,-68,58,97,-92,-4,92,29,68,-4,9,-29
-131,-78,53,104,-92,-12,92,34,78,-4,9,-29
-136,-87,48,112,-92,-19,97,39,87,0,9,-29
-126,-92,34,109,-80,-29,102,39,92,0,4,-39
-117,-92,24,104,-70,-34,107,43,92,4,4,-43
-117,-82,34,100,-75,-24,107,43,102,4,9,-48
-117,-73,43,95,-80,-14,112,48,112,4,14,-48
-122,-73,48,97,-85,-12,112,58,126,14,14,-39
-131,-73,58,102,-95,-7,112,58,126,14,14,-34
-131,-78,53,104,-92,-12,117,63,131,14,14,-39
-131,-82,48,107,-90,-17,117,68,141,19,14,-43
-131,-78,53,104,-92,-12,117,68,151,24,14,-43
-131,-78,53,104,-92,-12,122,73,161,29,14,-43
-136,-78,58,107,-97,-9,131,78,170,29,9,-48
-141,-78,63,109,-102,-7,131,82,180,43,4,-58
-141,-82,58,112,-100,-12,136,87,200,39,4,-58
-141,-73,68,107,-104,-2,136,102,214,39,4,-58
-146,-73,73,109,-109,0,141,107,224,48,4,-58
-146,-68,78,107,-112,4,146,112,239,53,4,-58
-146,-63,82,104,-114,9,151,117,253,58,4,-58
-151,-63,87,107,-119,12,151,126,263,68,4,-53
-151,-53,97,102,-124,21,156,131,273,68,4,-53
-156,-48,107,102,-131,29,161,136,292,78,4,-48
-156,-43,112,100,-134,34,165,141,297,87,4,-48
-156,-39,117,97,-136,39,170,146,312,92,4,-48
-161,-34,126,97,-143,46,170,151,317,97,9,-48
-165,-24,141,95,-153,58,175,156,326,97,9,-43
-165,-14,151,90,-158,68,180,161,336,102,9,-43
-165,-14,151,90,-158,68,180,170,346,107,9,-43
-175,-14,161,95,-168,73,185,170,351,107,9,-48
-180,-19,161,100,-170,70,190,170,351,107,4,-53
-180,-14,165,97,-173,75,190,170,356,107,0,-53
-180,-9,170,95,-175,80,190,165,356,102,-4,-58
-180,-9,170,95,-175,80,190,165,351,97,-4,-58
-180,-9,170,95,-175,80,190,170,341,87,-4,-58
-170,-9,161,90,-165,75,185,175,336,87,-4,-58
-165,-9,156,87,-161,73,180,175,322,82,-9,-58
-156,-4,151,80,-153,73,165,161,317,73,-14,-63
-146,-4,141,75,-143,68,156,156,307,73,-14,-68
-136,-4,131,70,-134,63,156,151,297,73,-14,-68
-122,0,122,61,-122,61,146,141,287,73,-14,-68
-102,4,107,48,-104,56,136,126,273,73,-4,-63
-82,9,92,36,-87,51,122,122,258,68,9,-53
-73,9,82,31,-78,46,107,112,253,68,19,-43
-58,14,73,21,-65,43,92,107,244,73,24,-43
-43,14,58,14,-51,36,82,102,229,78,29,-34
-29,14,43,7,-36,29,68,97,214,78,34,-29
-19,19,39,0,-29,29,58,82,209,82,43,-24
-4,34,39,-14,-21,36,43,73,195,82,53,-19
9,34,24,-21,-7,29,34,68,185,82,58,-9
24,39,14,-31,4,26,19,63,175,87,68,0
39,43,4,-41,17,24,14,53,161,87,78,0
53,53,0,-53,26,26,0,43,141,82,87,4
58,48,-9,-53,34,19,-14,29,126,82,92,4
68,43,-24,-56,46,9,-29,14,112,82,97,4
68,39,-29,-53,48,4,-34,0,92,73,97,4
68,39,-29,-53,48,4,-39,-19,78,68,97,9
68,39,-29,-53,48,4,-43,-19,58,68,97,9
68,39,-29,-53,48,4,-48,-19,39,68,97,9
68,34,-34,-51,51,0,-63,-29,19,53,97,14
68,29,-39,-48,53,-4,-68,-29,9,39,97,9
73,29,-43,-51,58,-7,-78,-34,0,29,97,9
68,29,-39,-48,53,-4,-73,-24,-9,29,97,19
68,39,-29,-53,48,4,-53,-39,-14,24,97,9
73,43,-29,-58,51,7,-53,-48,-24,24,97,4
58,48,-9,-53,34,19,-58,-48,-24,19,97,4
53,53,0,-53,26,26,-63,-58,-29,19,97,9
58,53,-4,-56,31,24,-78,-68,-39,14,97,19
58,63,4,-61,26,34,-78,-82,-48,9,97,19
63,58,-4,-61,34,26,-82,-82,-63,0,97,9
68,53,-14,-61,41,19,-102,-92,-87,-14,92,9
78,48,-29,-63,53,9,-122,-112,-102,-19,78,-4
78,29,-48,-53,63,-9,-122,-107,-102,-29,58,-19
58,24,-34,-41,46,-4,-107,-97,-97,-39,68,-19
39,14,-24,-26,31,-4,-87,-92,-82,-39,68,-24
34,29,-4,-31,19,12,-73,-78,-63,-14,78,-4
34,53,19,-43,7,36,-48,-73,-39,4,92,4
39,53,14,-46,12,34,-39,-58,-34,4,87,4
39,53,14,-46,12,34,-29,-43,-19,4,87,0
19,43,24,-31,-2,34,9,-14,0,4,87,0
4,34,29,-19,-12,31,43,9,14,9,82,0
4,34,29,-19,-12,31,48,14,19,9,82,0
4,29,24,-17,-9,26,53,14,19,9,82,-4
0,39,39,-19,-19,39,34,9,0,9,97,-4
-4,43,48,-19,-26,46,14,-4,-24,0,92,-14
-9,48,58,-19,-34,53,-14,-19,-34,0,82,-14
-4,63,68,-29,-36,65,-48,-43,-39,9,87,-4
-4,63,68,-29,-36,65,-48,-48,-43,4,92,-4
-9,53,63,-21,-36,58,-48,-48,-43,4,97,-9
-19,34,53,-7,-36,43,-39,-43,-43,0,92,-9
-34,9,43,12,-39,26,-29,-43,-43,0,92,-14
-39,9,48,14,-43,29,-19,-39,-43,0,92,-14
-39,9,48,14,-43,29,-9,-39,-43,0,92,-14
-39,9,48,14,-43,29,-24,-39,-48,0,92,-14
-43,9,53,17,-48,31,-29,-39,-48,0,97,-9
-9,29,39,-9,-24,34,-58,-82,-92,9,131,19
-19,34,53,-7,-36,43,-48,-87,-102,14,136,19
-92,4,97,43,-95,51,-9,-48,-82,-24,73,-34
-165,9,175,78,-170,92,63,19,19,-9,43,-53
-351,29,380,161,-366,204,209,107,156,-48,-14,-102
-444,58,502,192,-473,280,341,234,385,9,-39,-112
-429,73,502,178,-466,287,492,483,897,195,4,-102
-292,209,502,41,-397,356,536,634,1385,507,175,34
19,619,600,-319,-290,610,434,732,2015,1185,619,385
414,1029,614,-722,-100,822,180,678,2186,1727,1063,756
1141,1473,331,-1307,405,902,-497,204,1312,1952,1483,1127
1542,1156,-385,-1349,963,385,-824,-48,185,1312,1298,995
1302,-278,-1581,-512,1442,-929,-771,-370,-1893,-883,-87,-131
1019,-1137,-2156,58,1588,-1647,-854,-678,-3284,-2220,-932,-800
663,-1298,-1961,317,1312,-1629,-907,-805,-3313,-2337,-1034,-873
414,-1278,-1693,431,1054,-1485,-814,-717,-2947,-2191,-990,-844
248,-917,-1166,334,707,-1041,-531,-444,-1995,-1566,-678,-610
126,-512,-639,192,383,-575,-336,-258,-1180,-961,-366,-375
34,-307,-341,136,187,-324,-180,-87,-736,-600,-200,-248
-4,-141,-136,73,65,-139,-117,-19,-419,-331,-48,-131
-9,-92,-82,51,36,-87,-63,4,-253,-200,34,-63
-24,-78,-53,51,14,-65,-24,14,-156,-136,58,-43
-43,-63,-19,53,-12,-41,4,29,-112,-97,68,-53
-58,-63,-4,61,-26,-34,24,19,-87,-78,73,-58
-68,-58,9,63,-39,-24,19,4,-68,-68,82,-48
-73,-58,14,65,-43,-21,19,-4,-39,-68,82,-48
-78,-58,19,68,-48,-19,29,4,-24,-58,82,-48
-87,-53,34,70,-61,-9,29,4,-24,-48,82,-48
-87,-48,39,68,-63,-4,29,-4,-14,-39,87,-39
-87,-48,39,68,-63,-4,34,-9,-4,-39,87,-34
-78,-48,29,63,-53,-9,34,-9,0,-39,87,-34
-73,-43,29,58,-51,-7,39,-4,9,-34,87,-34
-82,-43,39,63,-61,-2,43,4,9,-24,87,-34
-92,-43,48,68,-70,2,48,14,19,-24,87,-34
-92,-43,48,68,-70,2,48,14,24,-19,92,-39
-92,-43,48,68,-70,2,53,14,39,-14,97,-43
-92,-48,43,70,-68,-2,53,19,39,-4,97,-39
-92,-48,43,70,-68,-2,58,24,43,-4,97,-39
-92,-48,43,70,-68,-2,58,24,48,-4,97,-43
-92,-48,43,70,-68,-2,58,24,53,0,102,-48
-92,-48,43,70,-68,-2,68,29,63,9,97,-48
-97,-48,48,73,-73,0,73,29,78,14,97,-48
-102,-48,53,75,-78,2,73,29,87,14,97,-48
-107,-48,58,78,-82,4,78,29,97,19,97,-48
-107,-53,53,80,-80,0,82,29,102,19,92,-48
-107,-53,53,80,-80,0,87,34,102,24,92,-43
-107,-53,53,80,-80,0,87,34,112,24,97,-43
-107,-53,53,80,-80,0,92,39,122,24,102,-39
-107,-53,53,80,-80,0,92,48,136,34,107,-34
-112,-53,58,82,-85,2,92,48,136,34,112,-34
-117,-53,63,85,-90,4,97,53,141,39,107,-34
-122,-53,68,87,-95,7,97,58,151,48,102,-34
-122,-48,73,85,-97,12,97,58,165,53,107,-34
-122,-48,73,85,-97,12,102,63,180,58,112,-34
-126,-43,82,85,-104,19,112,68,190,58,112,-29
-131,-39,92,85,-112,26,112,73,200,73,112,-29
-136,-39,97,87,-117,29,117,78,219,73,112,-24
-141,-24,117,82,-129,46,117,92,234,78,112,-19
-146,-24,122,85,-134,48,126,92,244,87,117,-19
-146,-19,126,82,-136,53,136,92,258,92,122,-19
-141,-14,126,78,-134,56,141,97,273,97,122,-24
-141,-14,126,78,-134,56,141,107,283,107,122,-24
-141,-4,136,73,-139,65,141,112,292,107,126,-19
-146,0,146,73,-146,73,141,117,312,117,131,-9
-146,4,151,70,-148,78,146,117,317,136,141,-4
-146,9,156,68,-151,82,151,117,331,151,151,0
-151,24,175,63,-163,100,151,122,336,156,156,0
-156,43,200,56,-178,122,156,126,346,156,156,4
-156,53,209,51,-183,131,156,117,351,170,165,14
-156,53,209,51,-183,131,151,112,356,185,175,24
-146,68,214,39,-180,141,141,107,356,190,185,29
-131,78,209,26,-170,143,131,102,351,195,190,34
-126,92,219,17,-173,156,126,102,351,204,200,48
-122,107,229,7,-175,168,122,97,346,209,209,58
-117,117,234,0,-175,175,112,78,336,209,219,58
-112,126,239,-7,-175,183,102,63,322,204,229,58
-97,126,224,-14,-161,175,92,63,312,209,234,63
-87,126,214,-19,-151,170,82,58,292,209,234,68
-78,131,209,-26,-143,170,63,39,283,200,234,78
-68,131,200,-31,-134,165,48,29,268,200,239,87
-58,131,190,-36,-124,161,43,19,258,204,239,87
-43,136,180,-46,-112,158,29,4,248,209,239,87
-24,141,165,-58,-95,153,19,-4,234,209,239,92
-4,146,151,-70,-78,148,4,-4,219,204,244,102
4,141,136,-73,-65,139,0,-14,209,200,244,102
19,141,122,-80,-51,131,-4,-19,195,200,239,92
34,136,102,-85,-34,119,-9,-24,180,195,234,97
48,131,82,-90,-17,107,-19,-29,165,185,229,97
48,131,82,-90,-17,107,-29,-34,156,185,229,92
53,141,87,-97,-17,114,-43,-34,136,180,229,87
53,131,78,-92,-12,104,-43,-34,126,165,224,92
53,126,73,-90,-9,100,-48,-34,117,156,224,97
58,112,53,-85,2,82,-53,-43,92,146,224,92
58,102,43,-80,7,73,-63,-48,73,136,219,92
68,97,29,-82,19,63,-63,-48,53,112,204,78
78,92,14,-85,31,53,-63,-48,43,92,190,68
68,78,9,-73,29,43,-63,-43,29,78,180,58
63,58,-4,-61,34,26,-63,-39,19,68,175,53
63,48,-14,-56,39,17,-58,-43,9,63,156,39
63,43,-19,-53,41,12,-53,-39,4,43,141,29
58,34,-24,-46,41,4,-53,-39,-14,29,131,24
53,14,-39,-34,46,-12,-48,-34,-14,14,122,14
39,14,-24,-26,31,-4,-43,-39,-19,9,122,4
34,14,-19,-24,26,-2,-39,-39,-19,0,117,4
29,9,-19,-19,24,-4,-39,-34,-19,-4,112,0
29,0,-29,-14,29,-14,-39,-29,-19,-9,102,-9
19,0,-19,-9,19,-9,-39,-24,-24,-9,97,-9
14,0,-14,-7,14,-7,-39,-19,-29,-9,92,-9
9,-4,-14,-2,12,-9,-39,-14,-29,-14,92,-9
4,-9,-14,2,9,-12,-34,-14,-34,-19,92,-14
0,-9,-9,4,4,-9,-29,-14,-34,-24,87,-19
-4,-9,-4,7,0,-7,-24,-14,-29,-19,82,-19
-9,-14,-4,12,-2,-9,-29,-14,-29,-24,78,-19
-9,-14,-4,12,-2,-9,-29,-14,-29,-29,73,-19
-9,-9,0,9,-4,-4,-24,-14,-39,-29,68,-29
-19,-4,14,12,-17,4,-24,-14,-39,-29,68,-34
-19,-4,14,12,-17,4,-19,-19,-34,-29,73,-34
-19,0,19,9,-19,9,-14,-24,-34,-24,78,-29
-29,4,34,12,-31,19,-14,-24,-29,-19,73,-24
-29,4,34,12,-31,19,-14,-24,-19,-14,73,-19
-34,9,43,12,-39,26,-9,-19,-19,-9,82,-9
-34,14,48,9,-41,31,-9,-19,-19,-9,82,-4
-34,14,48,9,-41,31,-9,-24,-14,-9,87,-4
-39,14,53,12,-46,34,-14,-24,-4,-9,92,-9
-53,19,73,17,-63,46,-14,-24,-4,-4,92,-9
-53,29,82,12,-68,56,-9,-24,-4,0,92,-4
-53,29,82,12,-68,56,-9,-19,-4,0,97,0
-53,29,82,12,-68,56,-4,-19,-4,0,92,4
-48,29,78,9,-63,53,-4,-24,-4,0,92,4
-53,29,82,12,-68,56,-4,-24,-4,4,92,0
-53,29,82,12,-68,56,-9,-29,-9,0,92,-4
-53,34,87,9,-70,61,-14,-34,-14,0,87,-4
-48,34,82,7,-65,58,-14,-34,-14,0,82,-4
-48,34,82,7,-65,58,-14,-39,-9,0,87,-4
-48,29,78,9,-63,53,-14,-39,-14,-4,87,-4
-48,24,73,12,-61,48,-14,-39,-19,-4,87,-4
-43,24,68,9,-56,46,-19,-43,-19,-9,87,-4
-39,29,68,4,-53,48,-19,-43,-24,-14,82,-4
-39,24,63,7,-51,43,-19,-43,-29,-14,82,-4
-39,19,58,9,-48,39,-19,-43,-29,-14,87,-4
-34,19,53,7,-43,36,-19,-43,-29,-14,87,-4
-39,19,58,9,-48,39,-24,-43,-34,-19,87,-4
-39,19,58,9,-48,39,-29,-43,-39,-24,82,-4
-34,14,48,9,-41,31,-34,-48,-39,-29,82,-4
-34,14,48,9,-41,31,-34,-43,-43,-29,82,-4
-34,9,43,12,-39,26,-34,-39,-43,-29,82,-4
-34,14,48,9,-41,31,-34,-39,-48,-29,82,-4
-34,14,48,9,-41,31,-39,-43,-48,-29,82,-4
-34,9,43,12,-39,26,-39,-48,-58,-34,82,-4
-34,9,43,12,-39,26,-39,-53,-63,-39,78,-9
-29,4,34,12,-31,19,-34,-63,-68,-43,78,-14
-29,4,34,12,-31,19,-34,-63,-68,-48,78,-19
-29,4,34,12,-31,19,-34,-63,-68,-48,73,-19
-24,4,29,9,-26,17,-34,-63,-73,-53,73,-24
-24,0,24,12,-24,12,-34,-63,-73,-48,68,-24
-24,0,24,12,-24,12,-34,-63,-78,-48,63,-24
-24,0,24,12,-24,12,-34,-58,-78,-48,63,-19
-19,0,19,9,-19,9,-34,-53,-73,-53,63,-19
-19,-4,14,12,-17,4,-29,-53,-73,-53,63,-19
-19,-4,14,12,-17,4,-29,-53,-73,-58,58,-19
-19,-4,14,12,-17,4,-29,-53,-82,-58,58,-19
-19,-4,14,12,-17,4,-29,-53,-82,-58,58,-19
-14,-9,4,12,-9,-2,-29,-53,-82,-58,58,-24
-9,-9,0,9,-4,-4,-29,-53,-87,-63,53,-24
0,0,0,0,0,0,-29,-53,-87,-68,53,-29
-14,-9,4,12,-9,-2,-29,-53,-87,-68,53,-29
-19,-9,9,14,-14,0,-29,-48,-82,-63,53,-29
-19,-14,4,17,-12,-4,-29,-43,-87,-63,53,-29
-24,-19,4,21,-14,-7,-29,-43,-82,-63,53,-29
-29,-24,4,26,-17,-9,-29,-43,-78,-68,48,-29
-24,-24,0,24,-12,-12,-29,-43,-78,-68,58,-29
-24,-14,9,19,-17,-2,-29,-43,-78,-63,68,-24
-24,-9,14,17,-19,2,-34,-43,-78,-63,63,-24
-24,-14,9,19,-17,-2,-39,-48,-82,-63,53,-29
-24,-14,9,19,-17,-2,-39,-48,-82,-68,48,-29
-24,-14,9,19,-17,-2,-39,-48,-82,-68,43,-34
-14,-14,0,14,-7,-7,-39,-48,-87,-68,48,-34
-9,-14,-4,12,-2,-9,-39,-48,-87,-68,43,-34
-9,-19,-9,14,0,-14,-39,-48,-87,-68,43,-34
-9,-24,-14,17,2,-19,-34,-48,-87,-68,43,-34
-9,-24,-14,17,2,-19,-29,-43,-82,-63,48,-34
-14,-24,-9,19,-2,-17,-24,-39,-78,-58,53,-29
-14,-29,-14,21,0,-21,-24,-39,-82,-58,58,-29
-14,-29,-14,21,0,-21,-29,-39,-82,-63,58,-29
-14,-29,-14,21,0,-21,-29,-43,-82,-63,48,-29
-14,-34,-19,24,2,-26,-29,-43,-82,-63,48,-29
-14,-34,-19,24,2,-26,-29,-43,-82,-63,53,-29
-14,-34,-19,24,2,-26,-29,-43,-82,-63,63,-34
-19,-29,-9,24,-4,-19,-29,-39,-87,-63,63,-29
-19,-29,-9,24,-4,-19,-19,-39,-87,-63,58,-24
-14,-24,-9,19,-2,-17,-29,-39,-87,-63,58,-24
-14,-24,-9,19,-2,-17,-29,-39,-87,-63,58,-24
-19,-29,-9,24,-4,-19,-24,-39,-82,-63,58,-24
-24,-29,-4,26,-9,-17,-24,-43,-82,-63,58,-24
-19,-29,-9,24,-4,-19,-24,-39,-78,-58,58,-19
-19,-29,-9,24,-4,-19,-29,-39,-78,-58,58,-19
-19,-29,-9,24,-4,-19,-29,-39,-78,-58,58,-19
-19,-29,-9,24,-4,-19,-29,-39,-78,-58,58,-19
-19,-29,-9,24,-4,-19,-29,-39,-78,-58,58,-19
-19,-29,-9,24,-4,-19,-29,-39,-78,-58,58,-19
-19,-29,-9,24,-4,-19,-29,-34,-73,-58,58,-19
-19,-29,-9,24,-4,-19,-29,-29,-68,-58,58,-19
-19,-29,-9,24,-4,-19,-24,-29,-68,-58,58,-24
-19,-29,-9,24,-4,-19,-19,-29,-68,-58,58,-29
-14,-29,-14,21,0,-21,-19,-29,-68,-58,58,-29
-9,-29,-19,19,4,-24,-19,-29,-68,-58,58,-29
-9,-29,-19,19,4,-24,-19,-34,-73,-58,58,-29
-9,-29,-19,19,4,-24,-19,-39,-78,-58,58,-29
-14,-29,-14,21,0,-21,-19,-39,-78,-58,58,-29
-19,-29,-9,24,-4,-19,-19,-39,-78,-58,58,-29
-19,-29,-9,24,-4,-19,-19,-39,-78,-53,58,-24
-19,-29,-9,24,-4,-19,-19,-39,-78,-48,58,-19
-14,-29,-14,21,0,-21,-19,-39,-78,-48,58,-19
-9,-29,-19,19,4,-24,-19,-39,-78,-48,58,-19
-9,-24,-14,17,2,-19,-19,-39,-78,-48,58,-19
-9,-19,-9,14,0,-14,-19,-39,-78,-48,58,-19
-9,-19,-9,14,0,-14,-19,-39,-78,-53,58,-19
-9,-19,-9,14,0,-14,-19,-39,-78,-58,58,-19
-9,-19,-9,14,0,-14,-19,-39,-78,-58,58,-19
-9,-19,-9,14,0,-14,-19,-39,-78,-58,58,-19
-14,-19,-4,17,-4,-12,-19,-39,-73,-53,63,-19
-19,-19,0,19,-9,-9,-19,-39,-68,-48,68,-19
-19,-19,0,19,-9,-9,-19,-39,-68,-48,68,-19
-19,-19,0,19,-9,-9,-19,-39,-68,-48,68,-19
-19,-19,0,19,-9,-9,-19,-39,-73,-48,68,-19
-19,-19,0,19,-9,-9,-19,-39,-78,-48,68,-19
-19,-19,0,19,-9,-9,-24,-39,-78,-48,68,-19
-19,-19,0,19,-9,-9,-29,-39,-78,-48,68,-19
-19,-19,0,19,-9,-9,-29,-39,-73,-48,68,-19
-19,-19,0,19,-9,-9,-29,-39,-68,-48,68,-19
-19,-19,0,19,-9,-9,-24,-39,-68,-48,68,-19
-19,-19,0,19,-9,-9,-19,-39,-68,-48,68,-19
-19,-19,0,19,-9,-9,-19,-39,-68,-48,68,-19
-19,-19,0,19,-9,-9,-19,-39,-68,-48,68,-19
-19,-19,0,19,-9,-9,-19,-39,-68,-48,68,-19
-19,-19,0,19,-9,-9,-19,-39,-68,-48,68,-19
-14,-19,-4,17,-4,-12,-19,-39,-68,-48,68,-24
-9,-19,-9,14,0,-14,-19,-39,-68,-48,68,-29
-9,-19,-9,14,0,-14,-19,-39,-68,-48,68,-29
-9,-19,-9,14,0,-14,-19,-39,-68,-48,68,-29
-9,-19,-9,14,0,-14,-19,-39,-68,-48,68,-24
-9,-19,-9,14,0,-14,-19,-39,-68,-48,68,-19
-9,-19,-9,14,0,-14,-19,-39,-68,-48,68,-19
-9,-19,-9,14,0,-14,-19,-39,-68,-48,68,-19
-9,-19,-9,14,0,-14,-19,-39,-68,-48,68,-19
-9,-19,-9,14,0,-14,-19,-39,-68,-48,68,-19
-9,-19,-9,14,0,-14,-19,-39,-68,-48,73,-19
-9,-19,-9,14,0,-14,-19,-39,-68,-48,78,-19
-9,-19,-9,14,0,-14,-19,-34,-68,-48,78,-19
-9,-19,-9,14,0,-14,-19,-29,-68,-48,78,-19
-9,-19,-9,14,0,-14,-19,-29,-68,-48,73,-19
-9,-19,-9,14,0,-14,-19,-29,-68,-48,68,-19
-9,-19,-9,14,0,-14,-19,-34,-68,-48,68,-19
-9,-19,-9,14,0,-14,-19,-39,-68,-48,68,-19
-9,-14,-4,12,-2,-9,-19,-39,-68,-48,68,-19
-9,-9,0,9,-4,-4,-19,-39,-68,-48,68,-19
-9,-9,0,9,-4,-4,-19,-39,-68,-48,68,-19
-9,-9,0,9,-4,-4,-19,-39,-68,-48,68,-19
-9,-9,0,9,-4,-4,-19,-39,-68,-48,68,-19
-9,-9,0,9,-4,-4,-19,-39,-68,-48,68,-19
-4,0,4,2,-4,2,-19,-34,-63,-43,73,-14
0,9,9,-4,-4,9,-19,-29,-58,-39,78,-9
4,19,14,-12,-4,17,-9,-29,-43,-29,87,-4
9,29,19,-19,-4,24,0,-29,-29,-19,97,0
9,34,24,-21,-7,29,9,-19,-24,-19,97,0
9,48,39,-29,-14,43,14,-14,-19,-14,97,0
9,63,53,-36,-21,58,24,-9,-14,-9,102,0
19,68,48,-43,-14,58,34,0,0,-4,102,-4
24,78,53,-51,-14,65,29,4,4,4,107,19
29,87,58,-58,-14,73,24,-4,14,4,112,19
34,92,58,-63,-12,75,4,-4,19,14,117,24
34,92,58,-63,-12,75,-19,-9,19,14,117,24
39,92,53,-65,-7,73,-24,-48,0,14,117,24
39,92,53,-65,-7,73,-58,-87,-29,9,122,29
39,107,68,-73,-14,87,-68,-87,-24,9,126,29
43,122,78,-82,-17,100,-82,-92,-34,4,131,29
53,131,78,-92,-12,104,-107,-102,-48,4,131,43
68,146,78,-107,-4,112,-112,-107,-53,9,136,48
73,146,73,-109,0,109,-112,-107,-58,9,146,53
78,141,63,-109,7,102,-107,-102,-63,4,156,58
82,131,48,-107,17,90,-102,-102,-63,0,146,53
82,117,34,-100,24,75,-102,-87,-63,0,136,53
82,107,24,-95,29,65,-87,-78,-58,-4,131,43
87,87,0,-87,43,43,-78,-63,-58,-4,126,43
87,73,-14,-80,51,29,-68,-53,-48,-4,126,39
87,73,-14,-80,51,29,-63,-43,-39,0,131,39
68,53,-14,-61,41,19,-53,-39,-48,-14,112,24
43,34,-9,-39,26,12,-39,-34,-58,-39,92,9
34,14,-19,-24,26,-2,-34,-39,-63,-39,92,4
-4,-14,-9,9,2,-12,-24,-34,-73,-48,87,-4
-19,-19,0,19,-9,-9,-19,-43,-82,-63,68,-19
-19,-24,-4,21,-7,-14,-19,-53,-92,-68,58,-24
-24,-34,-9,29,-7,-21,-19,-53,-92,-63,58,-24
-24,-34,-9,29,-7,-21,-19,-48,-92,-63,58,-24
-24,-39,-14,31,-4,-26,-19,-48,-92,-63,58,-34
-24,-39,-14,31,-4,-26,-19,-43,-92,-68,53,-39
-34,-48,-14,41,-9,-31,-19,-48,-92,-68,53,-43
-34,-48,-14,41,-9,-31,-19,-48,-92,-68,53,-43
-29,-48,-19,39,-4,-34,-19,-48,-87,-68,53,-43
-29,-48,-19,39,-4,-34,-19,-43,-82,-68,48,-48
-63,-48,14,56,-39,-17,19,-9,-53,-68,39,-58
-107,-48,58,78,-82,4,63,24,-19,-73,24,-73
-185,-53,131,119,-158,39,156,117,92,-39,14,-87
-317,-58,258,187,-287,100,312,273,297,-4,-24,-122
-361,-14,346,187,-353,165,453,458,585,102,-4,-102
-346,63,409,141,-378,236,566,649,922,244,58,-63
-185,204,390,-9,-287,297,551,741,1146,448,175,43
107,429,322,-268,-107,375,429,785,1390,795,434,248
497,668,170,-583,163,419,136,580,1283,1015,688,473
1005,985,-19,-995,512,483,-429,122,634,1176,1019,761
1302,854,-448,-1078,875,202,-824,-248,-219,868,922,678
1561,317,-1244,-939,1403,-463,-1200,-746,-1424,117,502,317
1517,-273,-1790,-622,1654,-1032,-1312,-946,-2166,-492,200,63
976,-1000,-1976,12,1476,-1488,-1171,-1078,-2854,-1556,-546,-536
610,-1156,-1766,273,1188,-1461,-1063,-1078,-2932,-1854,-766,-692
326,-990,-1317,331,822,-1154,-785,-795,-2249,-1498,-634,-590
136,-829,-966,346,551,-897,-527,-502,-1678,-1234,-527,-507
34,-566,-600,265,317,-583,-258,-239,-1044,-829,-336,-366
-24,-356,-331,190,153,-344,-122,-107,-610,-541,-219,-278
-53,-248,-195,151,70,-222,-48,-19,-419,-366,-122,-190
-73,-151,-78,112,2,-114,-9,19,-258,-239,-48,-126
-82,-131,-48,107,-17,-90,43,43,-146,-185,-19,-97
-92,-122,-29,107,-31,-75,73,48,-82,-151,-9,-92
-112,-102,9,107,-61,-46,73,43,-73,-117,0,-92
-117,-97,19,107,-68,-39,73,19,-58,-102,0,-92
-112,-97,14,104,-63,-41,78,19,-39,-97,4,-87
-112,-97,14,104,-63,-41,87,24,-9,-97,4,-87
-117,-97,19,107,-68,-39,97,34,4,-87,4,-87
-126,-92,34,109,-80,-29,97,34,4,-78,9,-87
-126,-87,39,107,-82,-24,97,29,14,-68,19,-82
-126,-87,39,107,-82,-24,102,29,19,-68,19,-82
-126,-87,39,107,-82,-24,102,29,19,-68,19,-82
-131,-82,48,107,-90,-17,107,34,29,-63,19,-82
-131,-82,48,107,-90,-17,107,34,29,-53,19,-82
-136,-87,48,112,-92,-19,107,34,43,-53,14,-82
-141,-92,48,117,-95,-21,107,34,48,-53,9,-82
-141,-92,48,117,-95,-21,112,34,58,-53,4,-82
-141,-97,43,119,-92,-26,112,39,58,-43,0,-78
-141,-97,43,119,-92,-26,117,43,63,-48,0,-82
-141,-97,43,119,-92,-26,117,43,68,-53,-4,-87
-141,-97,43,119,-92,-26,122,43,73,-48,-4,-87
-141,-97,43,119,-92,-26,131,48,78,-43,-9,-87
-146,-97,48,122,-97,-24,131,53,87,-43,-9,-87
-151,-97,53,124,-102,-21,131,63,97,-43,-9,-87
-156,-97,58,126,-107,-19,136,73,107,-39,-9,-82
-156,-102,53,129,-104,-24,141,78,112,-39,-14,-82
-156,-102,53,129,-104,-24,146,82,112,-34,-14,-82
-156,-102,53,129,-104,-24,146,82,122,-34,-14,-87
-156,-102,53,129,-104,-24,151,87,131,-34,-19,-87
-156,-102,53,129,-104,-24,151,97,146,-24,-24,-82
-161,-102,58,131,-109,-21,151,97,146,-24,-24,-82
-161,-102,58,131,-109,-21,156,102,151,-24,-29,-87
-161,-102,58,131,-109,-21,156,107,161,-19,-34,-92
-161,-97,63,129,-112,-17,156,107,170,-14,-34,-92
-161,-87,73,124,-117,-7,161,112,180,-9,-34,-92
-165,-78,87,122,-126,4,170,117,190,-9,-34,-87
-170,-78,92,124,-131,7,170,122,200,4,-34,-87
-170,-78,92,124,-131,7,175,126,219,4,-34,-87
-165,-63,102,114,-134,19,175,146,234,4,-34,-87
-165,-63,102,114,-134,19,180,156,244,9,-34,-87
-165,-58,107,112,-136,24,185,161,253,14,-34,-87
-165,-53,112,109,-139,29,190,165,263,19,-34,-92
-170,-53,117,112,-143,31,190,175,273,29,-34,-92
-170,-43,126,107,-148,41,195,180,283,29,-34,-92
-175,-39,136,107,-156,48,200,185,302,39,-34,-87
-175,-34,141,104,-158,53,204,190,312,48,-34,-87
-175,-29,146,102,-161,58,209,200,331,53,-34,-82
-180,-24,156,102,-168,65,209,209,336,58,-29,-78
-185,-14,170,100,-178,78,214,214,346,58,-29,-73
-185,-4,180,95,-183,87,219,219,356,68,-29,-73
-175,0,175,87,-175,87,209,229,366,78,-24,-73
-170,9,180,80,-175,95,204,229,375,78,-19,-73
-170,9,180,80,-175,95,209,229,385,82,-19,-68
-170,14,185,78,-178,100,209,229,395,87,-19,-63
-161,19,180,70,-170,100,209,224,395,92,-19,-58
-151,19,170,65,-161,95,209,224,390,102,-14,-48
-151,24,175,63,-163,100,209,224,385,97,-14,-48
-141,29,170,56,-156,100,200,219,385,97,-14,-48
-126,39,165,43,-146,102,185,214,375,107,-4,-39
-107,53,161,26,-134,107,165,200,375,112,9,-29
-92,63,156,14,-124,109,151,190,370,112,14,-24
-78,68,146,4,-112,107,146,185,366,112,14,-19
-63,73,136,-4,-100,104,131,170,356,122,14,-19
-43,82,126,-19,-85,104,117,151,341,131,19,-14
-14,87,102,-36,-58,95,102,151,331,131,29,-4
4,87,82,-46,-39,85,92,141,331,136,39,4
19,92,73,-56,-26,82,82,136,326,141,48,14
34,92,58,-63,-12,75,73,126,317,146,58,34
48,97,48,-73,0,73,53,117,302,151,63,39
58,107,48,-82,4,78,39,102,292,161,73,43
68,122,53,-95,7,87,24,92,278,161,82,48
78,122,43,-100,17,82,14,87,273,161,87,58
92,126,34,-109,29,80,0,82,263,165,97,68
102,126,24,-114,39,75,-4,68,248,165,102,68
107,126,19,-117,43,73,-14,53,239,165,102,73
117,122,4,-119,56,63,-24,39,219,161,107,73
126,122,-4,-124,65,58,-34,29,204,161,107,73
126,122,-4,-124,65,58,-43,19,180,151,102,68
131,112,-19,-122,75,46,-53,9,161,141,102,68
131,102,-29,-117,80,36,-58,-4,136,136,97,63
126,102,-24,-114,75,39,-58,-9,122,122,97,63
122,102,-19,-112,70,41,-63,-14,97,112,92,63
122,87,-34,-104,78,26,-68,-14,92,97,92,63
112,82,-29,-97,70,26,-68,-19,78,87,92,53
112,82,-29,-97,70,26,-63,-19,68,73,87,48
107,78,-29,-92,68,24,-58,-19,58,63,82,39
97,63,-34,-80,65,14,-58,-19,43,53,68,29
82,58,-24,-70,53,17,-58,-19,34,43,58,29
82,48,-34,-65,58,7,-53,-19,29,39,53,29
78,34,-43,-56,61,-4,-48,-19,29,34,53,29
73,29,-43,-51,58,-7,-43,-24,19,29,48,19
73,29,-43,-51,58,-7,-43,-24,9,19,39,9
73,29,-43,-51,58,-7,-43,-24,4,19,34,4
68,24,-43,-46,56,-9,-48,-24,0,14,34,0
68,19,-48,-43,58,-14,-48,-19,-4,4,29,0
68,14,-53,-41,61,-19,-43,-14,-19,0,19,-9
53,14,-39,-34,46,-12,-43,-14,-19,0,19,-14
48,9,-39,-29,43,-14,-39,-14,-14,0,19,-14
48,9,-39,-29,43,-14,-34,-14,-14,4,19,-9
39,14,-24,-26,31,-4,-34,-14,-14,4,14,-4
39,14,-24,-26,31,-4,-34,-14,-14,-4,9,-4
34,14,-19,-24,26,-2,-29,-9,-19,-9,14,-4
34,9,-24,-21,29,-7,-29,-14,-19,-9,9,-4
34,4,-29,-19,31,-12,-24,-19,-19,-9,4,-4
29,0,-29,-14,29,-14,-29,-14,-19,-14,4,-14
14,0,-14,-7,14,-7,-34,-14,-24,-19,-4,-19
14,9,-4,-12,9,2,-29,-19,-24,-19,-14,-14
14,14,0,-14,7,7,-29,-19,-24,-19,-14,-14
14,9,-4,-12,9,2,-24,-19,-24,-19,-24,-14
14,0,-14,-7,14,-7,-24,-24,-24,-19,-24,-14
4,0,-4,-2,4,-2,-24,-24,-24,-14,-39,-19
4,0,-4,-2,4,-2,-24,-24,-24,-14,-48,-24
4,9,4,-7,0,7,-24,-19,-24,-9,-53,-24
4,19,14,-12,-4,17,-24,-14,-24,-9,-58,-24
-4,24,29,-9,-17,26,-19,-19,-19,-9,-53,-24
-14,24,39,-4,-26,31,-14,-19,-19,-9,-58,-19
-24,24,48,0,-36,36,-14,-19,-14,0,-58,-14
-29,24,53,2,-41,39,-19,-24,-4,4,-58,-14
-29,29,58,0,-43,43,-19,-24,-4,4,-63,-14
-29,29,58,0,-43,43,-19,-24,-9,4,-63,-14
-34,29,63,2,-48,46,-19,-24,-9,9,-58,-9
-39,29,68,4,-53,48,-14,-24,-4,19,-58,-4
-48,29,78,9,-63,53,-14,-24,0,19,-58,-4
-48,34,82,7,-65,58,-14,-24,0,14,-63,-4
-43,34,78,4,-61,56,-14,-29,0,9,-68,-9
-43,39,82,2,-63,61,-14,-29,-4,9,-73,-14
-43,34,78,4,-61,56,-14,-29,-4,9,-73,-14
-43,34,78,4,-61,56,-14,-29,-9,9,-73,-14
-43,34,78,4,-61,56,-19,-34,-9,9,-78,-9
-43,29,73,7,-58,51,-19,-34,-14,9,-82,-4
-43,29,73,7,-58,51,-19,-34,-14,9,-87,-9
-39,24,63,7,-51,43,-19,-43,-19,4,-87,-9
-39,29,68,4,-53,48,-24,-43,-19,9,-82,-4
-39,34,73,2,-56,53,-24,-43,-19,19,-82,0
-34,39,73,-2,-53,56,-24,-43,-19,14,-82,-4
-34,39,73,-2,-53,56,-24,-43,-14,14,-82,-4
-29,39,68,-4,-48,53,-24,-43,-19,9,-82,-4
-24,39,63,-7,-43,51,-24,-43,-24,9,-82,-4
-19,34,53,-7,-36,43,-29,-48,-29,4,-82,-9
-19,24,43,-2,-31,34,-34,-53,-34,4,-82,-9
-19,24,43,-2,-31,34,-39,-53,-34,-4,-92,-9
-19,24,43,-2,-31,34,-39,-53,-43,-9,-97,-9
-19,29,48,-4,-34,39,-39,-53,-43,-9,-97,-9
-19,29,48,-4,-34,39,-39,-53,-43,-9,-97,-14
-19,29,48,-4,-34,39,-39,-53,-48,-14,-102,-14
-9,39,48,-14,-29,43,-39,-53,-48,-19,-102,-19
-24,29,53,-2,-39,41,-39,-53,-48,-19,-107,-19
-24,29,53,-2,-39,41,-39,-53,-48,-19,-112,-19
-19,24,43,-2,-31,34,-39,-53,-58,-24,-112,-19
-19,19,39,0,-29,29,-39,-53,-58,-24,-112,-19
-19,14,34,2,-26,24,-39,-53,-58,-34,-117,-19
-14,14,29,0,-21,21,-39,-53,-58,-39,-117,-19
-9,24,34,-7,-21,29,-39,-53,-63,-34,-112,-14
-4,24,29,-9,-17,26,-39,-48,-63,-34,-112,-14
-4,14,19,-4,-12,17,-39,-48,-63,-34,-122,-19
-4,9,14,-2,-9,12,-39,-48,-63,-39,-122,-19
-4,4,9,0,-7,7,-39,-48,-68,-43,-126,-24
-4,4,9,0,-7,7,-39,-48,-78,-48,-122,-24
-9,4,14,2,-12,9,-39,-48,-78,-48,-122,-24
-9,4,14,2,-12,9,-39,-48,-78,-48,-122,-24
-9,4,14,2,-12,9,-39,-48,-78,-43,-122,-24
-4,4,9,0,-7,7,-43,-48,-78,-39,-122,-24
-4,4,9,0,-7,7,-43,-53,-78,-39,-122,-24
-4,0,4,2,-4,2,-43,-58,-82,-39,-122,-29
-4,4,9,0,-7,7,-48,-58,-82,-43,-126,-29
-4,9,14,-2,-9,12,-48,-63,-82,-43,-136,-29
-4,14,19,-4,-12,17,-48,-63,-82,-48,-136,-29
-4,24,29,-9,-17,26,-48,-63,-82,-53,-131,-29
-4,9,14,-2,-9,12,-48,-58,-82,-53,-126,-34
-9,0,9,4,-9,4,-48,-48,-87,-53,-131,-34
-9,0,9,4,-9,4,-39,-48,-87,-53,-136,-34
-4,4,9,0,-7,7,-48,-48,-87,-53,-136,-34
-9,4,14,2,-12,9,-48,-48,-87,-53,-126,-34
-14,9,24,2,-19,17,-43,-48,-82,-53,-117,-34
-4,9,14,-2,-9,12,-43,-53,-82,-48,-117,-34
0,9,9,-4,-4,9,-48,-58,-87,-43,-122,-34
0,9,9,-4,-4,9,-48,-58,-87,-43,-122,-29
0,9,9,-4,-4,9,-48,-58,-87,-48,-126,-29
0,9,9,-4,-4,9,-48,-58,-87,-48,-126,-34
0,9,9,-4,-4,9,-48,-58,-87,-48,-126,-39
0,9,9,-4,-4,9,-48,-58,-87,-48,-126,-39
0,9,9,-4,-4,9,-48,-58,-87,-48,-126,-39
-4,14,19,-4,-12,17,-43,-58,-87,-48,-126,-34
-9,19,29,-4,-19,24,-39,-58,-87,-48,-126,-29
-9,19,29,-4,-19,24,-39,-58,-87,-48,-126,-29
-9,19,29,-4,-19,24,-39,-58,-87,-48,-126,-29
-4,14,19,-4,-12,17,-43,-53,-87,-48,-126,-29
0,9,9,-4,-4,9,-48,-48,-87,-48,-126,-29
0,9,9,-4,-4,9,-48,-48,-87,-48,-126,-29
0,9,9,-4,-4,9,-48,-48,-87,-48,-126,-29
0,14,14,-7,-7,14,-48,-58,-87,-48,-126,-29
0,19,19,-9,-9,19,-48,-68,-87,-48,-126,-29
0,19,19,-9,-9,19,-48,-68,-87,-48,-126,-29
0,19,19,-9,-9,19,-48,-68,-87,-48,-126,-29
4,29,24,-17,-9,26,-48,-63,-87,-48,-126,-29
9,39,29,-24,-9,34,-48,-58,-87,-48,-126,-29
9,43,34,-26,-12,39,-43,-53,-78,-43,-122,-24
9,48,39,-29,-14,43,-39,-48,-68,-39,-117,-19
9,58,48,-34,-19,53,-29,-43,-53,-24,-102,-9
9,68,58,-39,-24,63,-19,-39,-39,-9,-87,0
9,78,68,-43,-29,73,0,-39,-34,-4,-87,4
14,82,68,-48,-26,75,4,-34,-19,0,-82,0
19,87,68,-53,-24,78,9,-29,-9,0,-82,-4
19,87,68,-53,-24,78,4,-14,0,9,-78,0
24,107,82,-65,-29,95,4,-19,4,14,-73,9
34,122,87,-78,-26,104,-14,-19,4,24,-68,24
34,122,87,-78,-26,104,-34,-34,4,19,-68,24
43,122,78,-82,-17,100,-53,-58,0,19,-68,29
43,122,78,-82,-17,100,-78,-82,-24,19,-63,39
39,131,92,-85,-26,112,-87,-112,-48,19,-58,39
43,141,97,-92,-26,119,-92,-107,-48,19,-53,39
48,151,102,-100,-26,126,-112,-112,-58,14,-53,48
68,170,102,-119,-17,136,-131,-131,-73,19,-43,48
78,175,97,-126,-9,136,-131,-126,-73,19,-39,48
78,170,92,-124,-7,131,-131,-122,-82,9,-34,53
78,161,82,-119,-2,122,-126,-122,-82,9,-39,53
78,146,68,-112,4,107,-126,-107,-82,9,-43,53
82,141,58,-112,12,100,-117,-102,-78,4,-43,43
87,126,39,-107,24,82,-107,-92,-78,4,-48,43
87,112,24,-100,31,68,-97,-82,-68,4,-48,39
87,97,9,-92,39,53,-82,-68,-58,9,-48,39
92,82,-9,-87,51,36,-73,-58,-53,19,-53,39
73,68,-4,-70,39,31,-68,-53,-58,4,-63,34
53,48,-4,-51,29,21,-63,-53,-68,-9,-73,24
24,34,9,-29,7,21,-53,-48,-73,-19,-78,14
-4,14,19,-4,-12,17,-43,-53,-82,-39,-102,-4
-9,-4,4,7,-7,0,-39,-53,-92,-48,-117,-14
-4,-14,-9,9,2,-12,-39,-63,-97,-48,-117,-14
-4,-14,-9,9,2,-12,-39,-68,-102,-53,-117,-19
-9,-24,-14,17,2,-19,-39,-68,-102,-53,-117,-29
-14,-29,-14,21,0,-21,-34,-63,-102,-63,-126,-29
-24,-39,-14,31,-4,-26,-29,-63,-102,-68,-131,-34
-24,-39,-14,31,-4,-26,-29,-58,-102,-68,-131,-34
-19,-39,-19,29,0,-29,-29,-58,-102,-68,-131,-34
-24,-39,-14,31,-4,-26,-24,-48,-102,-63,-136,-39
-34,-39,-4,36,-14,-21,-9,-39,-97,-58,-136,-39
-63,-39,24,51,-43,-7,24,-9,-53,-53,-141,-43
-136,-53,82,95,-109,14,97,58,24,-53,-175,-78
-248,-63,185,156,-217,61,224,195,190,-34,-229,-126
-361,-39,322,200,-341,141,385,361,439,39,-248,-141
-375,34,409,170,-392,222,488,512,732,146,-204,-117
-297,117,414,90,-356,265,575,702,1117,351,-126,-53
-63,292,356,-114,-209,324,517,771,1381,649,82,107
292,590,297,-441,-2,444,351,741,1620,1073,419,395
736,883,146,-810,295,514,-82,405,1234,1312,756,673
1263,1176,-87,-1220,675,544,-668,-82,390,1415,1093,971
1576,1015,-561,-1295,1068,226,-1102,-580,-575,1117,1029,922
1561,92,-1468,-827,1515,-688,-1185,-858,-1795,-43,361,370
1151,-712,-1864,-219,1507,-1288,-1083,-1024,-2723,-1273,-434,-263
697,-941,-1639,122,1168,-1290,-1117,-1176,-2962,-1644,-688,-439
395,-980,-1376,292,885,-1178,-966,-1024,-2659,-1615,-761,-502
200,-839,-1039,319,619,-939,-668,-658,-1961,-1322,-688,-463
73,-658,-732,292,402,-695,-385,-375,-1317,-980,-561,-380
-9,-434,-424,222,207,-429,-190,-180,-810,-658,-434,-297
-58,-287,-229,173,85,-258,-63,-29,-497,-409,-326,-204
-53,-180,-126,117,36,-153,-29,19,-312,-253,-234,-122
-53,-146,-92,100,19,-119,24,43,-175,-161,-175,-78
-63,-146,-82,104,9,-114,63,53,-107,-136,-175,-82
-78,-122,-43,100,-17,-82,68,53,-73,-97,-165,-82
-87,-112,-24,100,-31,-68,63,29,-58,-78,-161,-78
-92,-102,-9,97,-41,-56,68,29,-39,-68,-151,-68
-92,-97,-4,95,-43,-51,78,34,-9,-68,-151,-68
-97,-97,0,97,-48,-48,87,43,4,-58,-146,-63
-107,-92,14,100,-61,-39,87,43,4,-48,-141,-58
-107,-87,19,97,-63,-34,87,39,14,-39,-136,-53
-107,-87,19,97,-63,-34,92,39,24,-39,-136,-53
-107,-97,9,102,-58,-43,92,39,29,-39,-141,-53
-112,-102,9,107,-61,-46,97,43,39,-34,-146,-53
-117,-102,14,109,-65,-43,97,43,39,-24,-146,-53
-122,-102,19,112,-70,-41,97,43,48,-24,-146,-53
-122,-97,24,109,-73,-36,97,43,48,-24,-146,-53
-122,-92,29,107,-75,-31,102,43,58,-24,-146,-53
-117,-92,24,104,-70,-34,102,48,58,-14,-146,-48
-112,-87,24,100,-68,-31,107,53,63,-14,-146,-48
-112,-87,24,100,-68,-31,112,53,68,-14,-151,-48
-112,-87,24,100,-68,-31,117,53,73,-9,-151,-48
-112,-97,14,104,-63,-41,122,58,73,-4,-156,-48
-117,-107,9,112,-63,-48,122,58,78,-4,-156,-48
-122,-107,14,114,-68,-46,117,63,87,-4,-151,-48
-126,-107,19,117,-73,-43,117,68,97,0,-146,-48
-126,-112,14,119,-70,-48,122,68,107,0,-151,-53
-126,-112,14,119,-70,-48,126,73,112,4,-151,-53
-126,-112,14,119,-70,-48,126,73,122,9,-151,-58
-126,-112,14,119,-70,-48,131,78,131,14,-151,-58
-126,-107,19,117,-73,-43,131,87,146,24,-151,-53
-131,-102,29,117,-80,-36,131,87,146,24,-151,-53
-131,-102,29,117,-80,-36,136,92,151,24,-156,-53
-131,-102,29,117,-80,-36,136,97,161,29,-161,-53
-131,-102,29,117,-80,-36,136,97,170,34,-161,-53
-131,-107,24,119,-78,-41,141,102,180,39,-161,-53
-136,-107,29,122,-82,-39,151,107,190,39,-161,-53
-141,-107,34,124,-87,-36,151,112,200,53,-161,-58
-141,-107,34,124,-87,-36,156,117,219,58,-161,-58
-141,-92,48,117,-95,-21,156,131,234,68,-161,-58
-146,-92,53,119,-100,-19,161,136,244,78,-161,-58
-146,-87,58,117,-102,-14,165,141,258,82,-161,-58
-146,-82,63,114,-104,-9,170,146,273,87,-161,-58
-151,-82,68,117,-109,-7,170,156,283,97,-161,-53
-151,-73,78,112,-114,2,175,161,292,97,-161,-53
-156,-68,87,112,-122,9,180,165,312,107,-161,-48
-156,-63,92,109,-124,14,180,170,322,117,-161,-43
-156,-58,97,107,-126,19,180,175,341,122,-161,-39
-156,-53,102,104,-129,24,180,180,346,126,-156,-39
-156,-43,112,100,-134,34,185,185,356,126,-156,-34
-156,-34,122,95,-139,43,190,190,361,131,-161,-34
-156,-34,122,95,-139,43,190,200,366,136,-165,-34
-161,-34,126,97,-143,46,195,200,370,131,-165,-39
-161,-39,122,100,-141,41,200,200,370,126,-170,-43
-161,-43,117,102,-139,36,200,200,375,126,-175,-43
-161,-48,112,104,-136,31,200,195,375,122,-180,-48
-165,-48,117,107,-141,34,200,195,370,122,-180,-48
-170,-48,122,109,-146,36,200,200,361,117,-180,-48
-161,-48,112,104,-136,31,190,200,351,117,-180,-48
-156,-48,107,102,-131,29,180,195,331,112,-185,-48
-141,-43,97,92,-119,26,165,180,326,102,-185,-48
-126,-43,82,85,-104,19,156,175,317,102,-180,-48
-117,-48,68,82,-92,9,156,175,302,102,-180,-43
-102,-48,53,75,-78,2,146,170,287,102,-180,-39
-82,-43,39,63,-61,-2,136,151,268,102,-175,-34
-63,-39,24,51,-43,-7,122,141,248,97,-165,-24
-53,-34,19,43,-36,-7,112,126,244,97,-151,-14
-39,-24,14,31,-26,-4,102,117,234,102,-141,-14
-19,-24,-4,21,-7,-14,92,107,224,107,-136,-4
0,-24,-24,12,12,-24,78,97,214,107,-131,0
9,-19,-29,4,19,-24,68,82,209,117,-122,4
24,-4,-29,-9,26,-17,53,73,195,122,-112,9
34,0,-34,-17,34,-17,39,68,185,122,-107,19
43,9,-34,-26,39,-12,19,63,175,126,-97,29
53,9,-43,-31,48,-17,14,48,165,126,-87,34
58,14,-43,-36,51,-14,4,39,161,126,-82,43
68,14,-53,-41,61,-19,-4,29,141,126,-78,43
78,14,-63,-46,70,-24,-14,19,131,131,-73,48
78,14,-63,-46,70,-24,-19,9,112,122,-73,48
82,9,-73,-46,78,-31,-24,0,97,117,-68,53
82,14,-68,-48,75,-26,-29,-14,78,117,-68,43
82,24,-58,-53,70,-17,-34,-19,63,102,-63,39
82,24,-58,-53,70,-17,-39,-24,43,97,-63,53
82,14,-68,-48,75,-26,-39,-24,43,92,-63,63
68,14,-53,-41,61,-19,-39,-24,34,87,-63,58
63,14,-48,-39,56,-17,-39,-19,29,78,-68,63
58,9,-48,-34,53,-19,-39,-19,19,73,-68,58
58,0,-58,-29,58,-29,-39,-19,9,68,-73,48
58,0,-58,-29,58,-29,-39,-19,4,63,-78,48
63,0,-63,-31,63,-31,-39,-19,0,58,-82,48
58,0,-58,-29,58,-29,-39,-24,-4,48,-87,43
53,0,-53,-26,53,-26,-34,-34,-14,39,-92,34
48,0,-48,-24,48,-24,-34,-34,-19,29,-97,29
43,0,-43,-21,43,-21,-34,-34,-19,29,-102,29
39,-4,-43,-17,41,-24,-39,-34,-14,29,-102,29
39,-4,-43,-17,41,-24,-39,-34,-9,29,-102,29
39,-4,-43,-17,41,-24,-34,-34,-19,29,-107,29
29,-4,-34,-12,31,-19,-34,-34,-19,29,-107,34
29,-14,-43,-7,36,-29,-29,-34,-14,24,-112,24
29,-19,-48,-4,39,-34,-24,-34,-14,24,-117,19
19,-24,-43,2,31,-34,-24,-34,-14,24,-122,19
19,-34,-53,7,36,-43,-24,-34,-9,24,-122,19
19,-24,-43,2,31,-34,-19,-29,-9,34,-112,24
24,-14,-39,-4,31,-26,-19,-29,-9,39,-112,24
24,-9,-34,-7,29,-21,-19,-29,-9,39,-107,24
19,-4,-24,-7,21,-14,-24,-24,-4,39,-102,19
4,0,-4,-2,4,-2,-24,-24,-4,43,-107,19
4,9,4,-7,0,7,-19,-24,-4,48,-112,24
4,4,0,-4,2,2,-19,-19,0,48,-107,24
4,0,-4,-2,4,-2,-14,-19,4,48,-112,24
0,0,0,0,0,0,-14,-24,4,43,-112,29
-14,0,14,7,-14,7,-14,-24,4,43,-112,29
-14,4,19,4,-17,12,-14,-29,4,43,-112,24
-14,14,29,0,-21,21,-14,-34,4,48,-117,24
-14,19,34,-2,-24,26,-14,-34,4,48,-117,24
-19,24,43,-2,-31,34,-14,-39,9,48,-107,24
-24,24,48,0,-36,36,-14,-39,9,48,-107,29
-29,24,53,2,-41,39,-14,-39,9,53,-107,34
-29,24,53,2,-41,39,-19,-43,14,58,-107,39
-29,29,58,0,-43,43,-19,-43,14,63,-112,43
-29,29,58,0,-43,43,-19,-43,9,63,-112,43
-29,29,58,0,-43,43,-19,-43,9,63,-107,43
-29,29,58,0,-43,43,-14,-43,9,63,-107,43
-39,29,68,4,-53,48,-14,-43,4,58,-107,43
-34,34,68,0,-51,51,-19,-43,0,53,-112,43
-24,34,58,-4,-41,46,-24,-48,0,48,-112,43
-24,39,63,-7,-43,51,-24,-48,-4,48,-112,43
-24,39,63,-7,-43,51,-24,-48,-4,48,-112,43
-24,43,68,-9,-46,56,-24,-48,-9,48,-112,43
-24,43,68,-9,-46,56,-29,-53,-9,48,-112,43
-24,39,63,-7,-43,51,-29,-48,-14,48,-112,43
-24,39,63,-7,-43,51,-29,-43,-14,48,-117,39
-24,34,58,-4,-41,46,-24,-53,-19,43,-117,39
-29,34,63,-2,-46,48,-24,-53,-19,39,-117,39
-29,34,63,-2,-46,48,-24,-53,-19,39,-122,39
-24,34,58,-4,-41,46,-24,-53,-24,34,-122,34
-24,29,53,-2,-39,41,-29,-53,-29,34,-122,34
-24,29,53,-2,-39,41,-34,-53,-39,29,-122,34
-24,29,53,-2,-39,41,-34,-53,-43,29,-122,39
-19,29,48,-4,-34,39,-34,-53,-43,24,-122,39
-19,24,43,-2,-31,34,-29,-53,-43,19,-122,39
-19,24,43,-2,-31,34,-29,-53,-43,9,-126,39
-19,24,43,-2,-31,34,-29,-53,-53,9,-126,39
-19,24,43,-2,-31,34,-29,-53,-53,9,-126,39
-19,14,34,2,-26,24,-29,-53,-53,9,-126,34
-19,9,29,4,-24,19,-29,-53,-58,4,-131,34
-4,19,24,-7,-14,21,-29,-53,-58,0,-131,34
-14,9,24,2,-19,17,-29,-53,-58,0,-131,39
-14,19,34,-2,-24,26,-34,-58,-58,0,-126,39
-9,24,34,-7,-21,29,-39,-63,-68,-4,-122,39
-9,19,29,-4,-19,24,-39,-63,-68,-4,-122,39
-9,14,24,-2,-17,19,-39,-63,-68,-9,-126,39
-9,14,24,-2,-17,19,-34,-63,-68,-9,-126,39
-14,24,39,-4,-26,31,-29,-63,-68,-4,-126,43
-14,24,39,-4,-26,31,-29,-58,-63,-4,-131,43
-14,14,29,0,-21,21,-29,-58,-63,-4,-141,39
-9,9,19,0,-14,14,-29,-58,-68,-9,-141,39
-4,4,9,0,-7,7,-29,-58,-73,-9,-141,34
-4,4,9,0,-7,7,-29,-58,-78,-9,-131,39
-9,4,14,2,-12,9,-29,-58,-78,-9,-131,43
-9,4,14,2,-12,9,-34,-58,-78,-9,-131,43
-9,4,14,2,-12,9,-34,-58,-78,-9,-131,43
-4,9,14,-2,-9,12,-34,-58,-78,-9,-131,43
-4,14,19,-4,-12,17,-34,-58,-78,-9,-131,48
-9,9,19,0,-14,14,-34,-58,-78,-9,-131,48
-14,9,24,2,-19,17,-39,-58,-73,-14,-136,48
-14,9,24,2,-19,17,-39,-63,-73,-19,-146,48
-14,4,19,4,-17,12,-39,-63,-73,-24,-146,48
-14,4,19,4,-17,12,-39,-63,-73,-24,-141,48
-14,4,19,4,-17,12,-39,-63,-73,-24,-131,43
-19,9,29,4,-24,19,-39,-58,-78,-24,-131,48
-19,9,29,4,-24,19,-29,-58,-78,-24,-136,53
-14,4,19,4,-17,12,-39,-58,-78,-24,-131,53
-14,-4,9,9,-12,2,-39,-58,-78,-24,-126,53
-14,-4,9,9,-12,2,-34,-58,-78,-24,-126,53
-14,0,14,7,-14,7,-34,-63,-82,-24,-126,53
-9,0,9,4,-9,4,-34,-58,-73,-19,-126,53
-9,0,9,4,-9,4,-39,-58,-68,-19,-126,58
-9,0,9,4,-9,4,-39,-58,-68,-19,-131,58
-9,0,9,4,-9,4,-39,-58,-68,-19,-136,58
-9,0,9,4,-9,4,-39,-58,-68,-19,-136,58
-9,0,9,4,-9,4,-39,-58,-68,-19,-136,58
-9,0,9,4,-9,4,-39,-58,-73,-19,-136,58
-9,0,9,4,-9,4,-39,-58,-78,-19,-136,58
-9,0,9,4,-9,4,-39,-58,-78,-19,-136,58
-9,0,9,4,-9,4,-39,-58,-78,-19,-136,58
-9,0,9,4,-9,4,-39,-58,-78,-19,-136,58
-9,0,9,4,-9,4,-39,-58,-78,-19,-136,58
-9,4,14,2,-12,9,-34,-58,-68,-19,-136,58
-9,9,19,0,-14,14,-29,-58,-58,-19,-136,58
0,29,29,-14,-14,29,-29,-58,-53,-9,-126,68
9,48,39,-29,-14,43,-29,-58,-48,0,-117,78
9,48,39,-29,-14,43,-24,-53,-43,14,-112,82
9,53,43,-31,-17,48,-14,-43,-24,19,-107,82
14,58,43,-36,-14,51,-4,-39,-9,24,-102,87
9,68,58,-39,-24,63,14,-24,9,29,-97,107
9,78,68,-43,-29,73,24,-24,14,34,-97,107
14,82,68,-48,-26,75,14,-19,14,43,-97,112
14,92,78,-53,-31,85,-4,-19,19,43,-97,112
24,102,78,-63,-26,90,-24,-29,19,48,-97,117
29,92,63,-61,-17,78,-58,-58,0,48,-92,126
29,92,63,-61,-17,78,-78,-92,-19,48,-87,126
34,102,68,-68,-17,85,-82,-102,-29,43,-92,117
39,112,73,-75,-17,92,-102,-122,-48,34,-102,117
53,136,82,-95,-14,109,-122,-146,-68,39,-87,126
58,146,87,-102,-14,117,-122,-146,-73,39,-78,136
63,151,87,-107,-12,119,-126,-141,-82,29,-68,141
68,151,82,-109,-7,117,-126,-141,-82,29,-68,141
63,136,73,-100,-4,104,-126,-122,-82,29,-78,146
63,131,68,-97,-2,100,-117,-112,-78,24,-82,141
68,112,43,-90,12,78,-107,-102,-78,24,-87,141
68,92,24,-80,21,58,-97,-92,-68,24,-87,136
68,87,19,-78,24,53,-82,-78,-58,24,-87,136
73,82,9,-78,31,46,-73,-68,-53,29,-92,136
68,73,4,-70,31,39,-63,-63,-48,24,-102,131
63,58,-4,-61,34,26,-53,-63,-48,19,-112,122
34,29,-4,-31,19,12,-43,-53,-58,0,-126,102
4,-4,-9,0,7,-7,-34,-53,-73,-29,-161,73
-14,-24,-9,19,-2,-17,-29,-53,-87,-39,-175,63
-24,-34,-9,29,-7,-21,-29,-63,-97,-39,-175,63
-24,-34,-9,29,-7,-21,-29,-68,-102,-43,-175,63
-29,-43,-14,36,-7,-29,-29,-68,-102,-43,-175,58
-34,-48,-14,41,-9,-31,-24,-63,-102,-48,-180,58
-43,-58,-14,51,-14,-36,-19,-63,-102,-48,-180,53
-39,-63,-24,51,-7,-43,-19,-58,-102,-48,-190,53
-29,-68,-39,48,4,-53,-19,-58,-102,-48,-200,53
-29,-68,-39,48,4,-53,-24,-53,-102,-48,-204,48
-34,-68,-34,51,0,-51,-19,-48,-97,-48,-204,48
-19,-68,-48,43,14,-58,-29,-68,-122,-53,-190,53
-48,-82,-34,65,-7,-58,0,-48,-112,-63,-204,29
-170,-117,53,143,-112,-31,107,58,-14,-102,-297,-48
-292,-117,175,204,-234,29,248,195,165,-87,-356,-92
-405,-87,317,246,-361,114,400,341,400,-78,-395,-131
-424,-48,375,236,-400,163,536,527,727,29,-400,-131
-341,34,375,153,-358,204,639,756,1239,312,-273,-53
-136,239,375,-51,-256,307,634,888,1727,722,-19,151
258,697,439,-478,-90,568,312,717,1776,1249,453,546
736,1156,419,-946,158,788,-161,395,1366,1639,927,961
1439,1444,4,-1442,717,724,-858,-204,453,1888,1342,1302
1815,971,-844,-1393,1329,63,-1205,-585,-712,1273,1151,1141
1468,-263,-1732,-602,1600,-997,-1112,-849,-2274,-614,-19,204
1078,-922,-2000,-78,1539,-1461,-1156,-1098,-3147,-1644,-649,-273
658,-1088,-1747,214,1202,-1417,-1107,-1102,-3103,-1820,-844,-414
346,-1073,-1420,363,883,-1246,-912,-893,-2664,-1732,-893,-453
190,-868,-1058,339,624,-963,-580,-556,-1859,-1327,-766,-385
78,-619,-697,270,387,-658,-336,-307,-1190,-941,-639,-317
-9,-424,-414,217,202,-419,-161,-107,-775,-619,-512,-209
-43,-268,-224,156,90,-246,-78,-9,-488,-390,-400,-112
-43,-195,-151,119,53,-173,-14,24,-283,-248,-312,-39
-53,-156,-102,104,24,-129,34,43,-146,-175,-283,-14
-73,-126,-53,100,-9,-90,43,43,-107,-131,-273,-14
-87,-112,-24,100,-31,-68,43,19,-87,-107,-268,-9
-92,-102,-9,97,-41,-56,48,9,-63,-92,-258,0
-92,-97,-4,95,-43,-51,58,4,-29,-87,-258,0
-97,-97,0,97,-48,-48,73,24,-14,-78,-258,0
-107,-92,14,100,-61,-39,78,34,-14,-68,-258,0
-112,-92,19,102,-65,-36,78,29,0,-58,-253,4
-117,-97,19,107,-68,-39,82,29,14,-58,-253,4
-117,-97,19,107,-68,-39,82,29,19,-58,-258,4
-122,-92,29,107,-75,-31,87,34,29,-53,-263,4
-122,-87,34,104,-78,-26,87,34,29,-43,-263,4
-122,-82,39,102,-80,-21,87,34,39,-43,-263,4
-122,-82,39,102,-80,-21,87,29,34,-43,-273,-4
-122,-82,39,102,-80,-21,92,24,39,-43,-283,-14
-122,-92,29,107,-75,-31,92,29,39,-34,-283,-9
-122,-97,24,109,-73,-36,97,34,43,-34,-283,-9
-126,-97,29,112,-78,-34,97,34,48,-43,-287,-9
-131,-97,34,114,-82,-31,97,34,53,-48,-287,-9
-131,-97,34,114,-82,-31,102,39,58,-34,-292,0
-136,-97,39,117,-87,-29,102,39,68,-24,-292,9
-141,-92,48,117,-95,-21,102,48,78,-24,-292,9
-146,-87,58,117,-102,-14,107,58,87,-19,-292,9
-141,-92,48,117,-95,-21,112,58,92,-19,-302,4
-136,-92,43,114,-90,-24,117,63,92,-14,-307,4
-136,-92,43,114,-90,-24,117,58,102,-14,-307,0
-136,-92,43,114,-90,-24,122,58,112,-14,-307,0
-136,-92,43,114,-90,-24,122,68,126,-9,-307,0
-141,-92,48,117,-95,-21,122,68,126,-14,-307,-4
-141,-92,48,117,-95,-21,122,73,131,-14,-317,-9
-141,-92,48,117,-95,-21,117,78,141,-9,-326,-14
-141,-87,53,114,-97,-17,117,78,151,-4,-331,-19
-141,-87,53,114,-97,-17,122,82,161,0,-336,-24
-146,-87,58,117,-102,-14,131,87,170,0,-336,-19
-151,-87,63,119,-107,-12,131,92,180,14,-336,-19
-151,-87,63,119,-107,-12,136,97,200,14,-336,-19
-151,-73,78,112,-114,2,136,112,214,19,-336,-19
-156,-78,78,117,-117,0,146,117,224,29,-341,-19
-156,-78,78,117,-117,0,156,122,239,34,-346,-19
-156,-73,82,114,-119,4,161,126,253,39,-346,-24
-161,-73,87,117,-124,7,161,136,263,48,-346,-24
-161,-58,102,109,-131,21,165,141,273,43,-351,-24
-165,-48,117,107,-141,34,170,146,292,48,-356,-19
-165,-43,122,104,-143,39,165,151,297,58,-356,-19
-165,-39,126,102,-146,43,161,156,312,63,-356,-19
-170,-39,131,104,-151,46,161,161,317,63,-361,-24
-175,-34,141,104,-158,53,165,165,326,58,-370,-24
-175,-29,146,102,-161,58,175,170,331,68,-370,-24
-175,-34,141,104,-158,53,180,180,336,78,-370,-24
-180,-29,151,104,-165,61,185,185,346,78,-370,-24
-180,-29,151,104,-165,61,190,190,351,78,-375,-24
-180,-19,161,100,-170,70,190,190,356,78,-385,-24
-180,-9,170,95,-175,80,190,185,356,73,-395,-29
-180,-9,170,95,-175,80,190,185,351,73,-395,-34
-180,-9,170,95,-175,80,190,190,341,68,-395,-39
-175,-9,165,92,-170,78,185,195,336,68,-400,-39
-175,-9,165,92,-170,78,180,195,322,63,-409,-39
-165,-4,161,85,-163,78,165,180,312,48,-414,-39
-156,-4,151,80,-153,73,156,175,297,43,-414,-39
-146,-14,131,80,-139,58,156,170,287,39,-419,-39
-131,-19,112,75,-122,46,146,161,278,34,-424,-39
-112,-14,97,63,-104,41,131,151,263,34,-424,-34
-92,-9,82,51,-87,36,112,151,248,29,-419,-24
-82,-4,78,43,-80,36,102,141,244,29,-409,-14
-68,4,73,31,-70,39,92,136,234,34,-405,-14
-53,9,63,21,-58,36,82,122,219,39,-400,-4
-39,14,53,12,-46,34,68,107,204,39,-395,0
-24,19,43,2,-34,31,58,92,200,43,-385,4
-4,34,39,-14,-21,36,43,82,185,43,-375,9
9,34,24,-21,-7,29,29,73,175,43,-375,19
24,39,14,-31,4,26,9,63,165,48,-370,29
39,39,0,-39,19,19,4,48,151,53,-366,29
48,43,-4,-46,26,19,-4,39,141,58,-366,34
58,43,-14,-51,36,14,-14,29,122,53,-361,34
68,43,-24,-56,46,9,-24,19,112,53,-356,39
68,48,-19,-58,43,14,-34,9,97,48,-356,39
73,48,-24,-61,48,12,-43,0,87,48,-351,43
73,48,-24,-61,48,12,-48,-14,68,53,-356,43
73,53,-19,-63,46,17,-53,-19,53,43,-356,48
78,58,-19,-68,48,19,-63,-29,24,34,-361,53
82,53,-29,-68,56,12,-68,-34,14,24,-366,53
73,53,-19,-63,46,17,-68,-39,0,19,-366,48
73,53,-19,-63,46,17,-68,-39,-9,9,-370,53
68,48,-19,-58,43,14,-68,-39,-19,0,-375,48
68,39,-29,-53,48,4,-68,-39,-29,-9,-385,39
63,39,-24,-51,43,7,-68,-43,-39,-14,-400,34
63,39,-24,-51,43,7,-68,-48,-48,-19,-414,29
58,34,-24,-46,41,4,-68,-48,-48,-24,-414,29
53,29,-24,-41,39,2,-63,-53,-53,-29,-414,24
48,29,-19,-39,34,4,-63,-48,-58,-39,-419,19
43,29,-14,-36,29,7,-63,-43,-58,-39,-424,19
39,24,-14,-31,26,4,-68,-43,-58,-43,-429,19
39,24,-14,-31,26,4,-68,-43,-58,-48,-434,19
39,24,-14,-31,26,4,-68,-43,-68,-48,-444,9
29,24,-4,-26,17,9,-73,-43,-68,-48,-448,4
34,19,-14,-26,24,2,-68,-43,-63,-53,-453,0
39,19,-19,-29,29,0,-63,-43,-63,-53,-458,0
29,24,-4,-26,17,9,-63,-43,-63,-53,-468,4
29,24,-4,-26,17,9,-63,-43,-58,-53,-473,9
24,19,-4,-21,14,7,-58,-39,-58,-48,-473,14
24,14,-9,-19,17,2,-58,-39,-58,-48,-483,14
24,14,-9,-19,17,2,-53,-43,-63,-53,-483,14
14,19,4,-17,4,12,-53,-43,-63,-58,-488,9
14,19,4,-17,4,12,-53,-43,-63,-58,-488,9
