I, II, III, aVR, aVL, aVF, V1, V2, V3, V4, V5, V6
175,97,-78,-136,126,9,0,361,195,175,107,156
175,97,-78,-136,126,9,0,361,195,175,107,156
175,97,-78,-136,126,9,0,361,195,175,107,156
175,97,-78,-136,126,9,0,361,195,175,107,156
180,107,-73,-143,126,17,-9,366,200,185,117,156
185,107,-78,-146,131,14,-9,370,204,185,117,156
190,107,-82,-148,136,12,-9,375,209,185,117,156
195,107,-87,-151,141,9,-9,380,214,185,117,156
200,117,-82,-158,141,17,-9,385,219,190,126,165
204,117,-87,-161,146,14,-9,390,224,195,126,165
209,117,-92,-163,151,12,-9,395,229,200,126,165
214,117,-97,-165,156,9,-9,400,234,204,126,165
214,122,-92,-168,153,14,-19,395,244,209,131,170
214,126,-87,-170,151,19,-19,390,244,214,136,175
214,131,-82,-173,148,24,-19,385,244,219,141,180
214,136,-78,-175,146,29,-19,380,244,224,146,185
204,146,-58,-175,131,43,-19,370,253,224,156,195
204,146,-58,-175,131,43,-19,361,253,224,156,195
204,146,-58,-175,131,43,-19,351,253,224,156,195
204,146,-58,-175,131,43,-19,341,253,224,156,195
190,156,-34,-173,112,61,-29,317,239,214,146,185
185,156,-29,-170,107,63,-29,302,234,214,146,185
180,156,-24,-168,102,65,-29,287,229,214,146,185
175,156,-19,-165,97,68,-29,273,224,214,146,185
156,141,-14,-148,85,63,-19,253,214,204,131,180
146,136,-9,-141,78,63,-19,234,204,195,126,175
136,131,-4,-134,70,63,-19,214,195,185,122,170
126,126,0,-126,63,63,-19,195,185,175,117,165
112,122,9,-117,51,65,-14,170,170,156,97,151
97,117,19,-107,39,68,-9,156,165,146,87,146
82,112,29,-97,26,70,-4,141,161,136,78,141
68,107,39,-87,14,73,0,126,156,126,68,136
48,92,43,-70,2,68,0,112,136,107,58,126
39,87,48,-63,-4,68,0,97,126,97,48,117
29,82,53,-56,-12,68,0,82,117,87,39,107
19,78,58,-48,-19,68,0,68,107,78,29,97
4,63,58,-34,-26,61,9,53,92,63,14,82
0,58,58,-29,-29,58,9,48,87,58,9,78
-4,53,58,-24,-31,56,9,43,82,53,4,73
-9,48,58,-19,-34,53,9,39,78,48,0,68
-14,43,58,-14,-36,51,19,34,63,39,-14,63
-19,39,58,-9,-39,48,19,29,58,29,-19,58
-24,34,58,-4,-41,46,19,24,53,19,-24,53
-29,29,58,0,-43,43,19,19,48,9,-29,48
-34,29,63,2,-48,46,9,14,39,4,-34,43
-39,29,68,4,-53,48,9,9,39,0,-39,39
-43,29,73,7,-58,51,9,4,39,-4,-43,34
-48,29,78,9,-63,53,9,0,39,-9,-48,29
-48,19,68,14,-58,43,19,-9,29,-19,-58,19
-48,19,68,14,-58,43,19,-9,29,-19,-58,19
-48,19,68,14,-58,43,19,-9,29,-19,-58,19
-48,19,68,14,-58,43,19,-9,29,-19,-58,19
-58,9,68,24,-63,39,19,-9,19,-19,-58,19
-58,9,68,24,-63,39,19,-9,19,-19,-58,19
-58,9,68,24,-63,39,19,-9,19,-19,-58,19
-58,9,68,24,-63,39,19,-9,19,-19,-58,19
-58,0,58,29,-58,29,29,-9,19,-29,-68,9
-58,0,58,29,-58,29,29,-9,19,-29,-68,9
-58,0,58,29,-58,29,29,-9,19,-29,-68,9
-58,0,58,29,-58,29,29,-9,19,-29,-68,9
-58,-9,48,34,-53,19,29,-9,19,-29,-68,9
-58,-9,48,34,-53,19,29,-9,19,-29,-68,9
-58,-9,48,34,-53,19,29,-9,19,-29,-68,9
-58,-9,48,34,-53,19,29,-9,19,-29,-68,9
-58,0,58,29,-58,29,29,-9,19,-29,-68,0
-58,0,58,29,-58,29,29,-9,19,-29,-68,0
-58,0,58,29,-58,29,29,-9,19,-29,-68,0
-58,0,58,29,-58,29,29,-9,19,-29,-68,0
-58,9,68,24,-63,39,29,-9,19,-29,-68,0
-58,9,68,24,-63,39,29,-9,19,-29,-68,0
-58,9,68,24,-63,39,29,-9,19,-29,-68,0
-58,9,68,24,-63,39,29,-9,19,-29,-68,0
-58,0,58,29,-58,29,19,-9,19,-29,-68,9
-58,0,58,29,-58,29,19,-9,19,-29,-68,9
-58,0,58,29,-58,29,19,-9,19,-29,-68,9
-58,0,58,29,-58,29,19,-9,19,-29,-68,9
-68,0,68,34,-68,34,29,-19,19,-29,-68,9
-68,0,68,34,-68,34,29,-19,19,-29,-68,9
-68,0,68,34,-68,34,29,-19,19,-29,-68,9
-68,0,68,34,-68,34,29,-19,19,-29,-68,9
-68,0,68,34,-68,34,19,-19,19,-29,-68,9
-68,0,68,34,-68,34,19,-19,19,-29,-68,9
-68,0,68,34,-68,34,19,-19,19,-29,-68,9
-68,0,68,34,-68,34,19,-19,19,-29,-68,9
-68,0,68,34,-68,34,19,-19,19,-29,-78,9
-68,0,68,34,-68,34,19,-19,19,-29,-78,9
-68,0,68,34,-68,34,19,-19,19,-29,-78,9
-68,0,68,34,-68,34,19,-19,19,-29,-78,9
-68,0,68,34,-68,34,9,-19,29,-29,-68,9
-68,0,68,34,-68,34,9,-19,29,-29,-68,9
-68,0,68,34,-68,34,9,-19,29,-29,-68,9
-68,0,68,34,-68,34,9,-19,29,-29,-68,9
-58,0,58,29,-58,29,19,-9,19,-29,-68,19
-58,0,58,29,-58,29,19,-9,19,-29,-68,19
-58,0,58,29,-58,29,19,-9,19,-29,-68,19
-58,0,58,29,-58,29,19,-9,19,-29,-68,19
-68,0,68,34,-68,34,19,-19,19,-29,-68,9
-68,0,68,34,-68,34,19,-19,19,-29,-68,9
-68,0,68,34,-68,34,19,-19,19,-29,-68,9
-68,0,68,34,-68,34,19,-19,19,-29,-68,9
-68,-9,58,39,-63,24,19,-19,19,-29,-68,9
-68,-9,58,39,-63,24,19,-19,19,-29,-68,9
-68,-9,58,39,-63,24,19,-19,19,-29,-68,9
-68,-9,58,39,-63,24,19,-19,19,-29,-68,9
-58,0,58,29,-58,29,19,-19,19,-29,-68,9
-58,0,58,29,-58,29,19,-19,19,-29,-68,9
-58,0,58,29,-58,29,19,-19,19,-29,-68,9
-58,0,58,29,-58,29,19,-19,19,-29,-68,9
-58,0,58,29,-58,29,19,-19,29,-29,-68,9
-58,0,58,29,-58,29,19,-19,29,-29,-68,9
-58,0,58,29,-58,29,19,-19,29,-29,-68,9
-58,0,58,29,-58,29,19,-19,29,-29,-68,9
-68,0,68,34,-68,34,19,-19,29,-29,-68,9
-68,0,68,34,-68,34,19,-19,29,-29,-68,9
-68,0,68,34,-68,34,19,-19,29,-29,-68,9
-68,0,68,34,-68,34,19,-19,29,-29,-68,9
-68,9,78,29,-73,43,9,-29,29,-29,-68,9
-68,9,78,29,-73,43,9,-29,29,-29,-68,9
-68,9,78,29,-73,43,9,-29,29,-29,-68,9
-68,9,78,29,-73,43,9,-29,29,-29,-68,9
-78,0,78,39,-78,39,19,-29,19,-29,-58,9
-78,0,78,39,-78,39,19,-29,19,-29,-58,9
-78,0,78,39,-78,39,19,-29,19,-29,-58,9
-78,0,78,39,-78,39,19,-29,19,-29,-58,9
-68,0,68,34,-68,34,19,-29,19,-29,-68,9
-68,0,68,34,-68,34,19,-29,19,-29,-68,9
-68,0,68,34,-68,34,19,-29,19,-29,-68,9
-68,0,68,34,-68,34,19,-29,19,-29,-68,9
-68,0,68,34,-68,34,19,-29,19,-29,-68,9
-68,0,68,34,-68,34,19,-29,19,-29,-68,9
-68,0,68,34,-68,34,19,-29,19,-29,-68,9
-68,0,68,34,-68,34,19,-29,19,-29,-68,9
-78,0,78,39,-78,39,9,-39,9,-39,-68,0
-78,0,78,39,-78,39,9,-39,9,-39,-68,0
-78,0,78,39,-78,39,9,-39,9,-39,-68,0
-78,0,78,39,-78,39,9,-39,9,-39,-68,0
-68,0,68,34,-68,34,9,-29,19,-39,-68,0
-68,0,68,34,-68,34,9,-29,19,-39,-68,0
-68,0,68,34,-68,34,9,-29,19,-39,-68,0
-68,0,68,34,-68,34,9,-29,19,-39,-68,0
-78,-9,68,43,-73,29,19,-29,19,-39,-68,0
-78,-9,68,43,-73,29,19,-29,19,-39,-68,0
-78,-9,68,43,-73,29,19,-29,19,-39,-68,0
-78,-9,68,43,-73,29,19,-29,19,-39,-68,0
-68,0,68,34,-68,34,9,-39,19,-29,-68,0
-68,0,68,34,-68,34,9,-39,19,-29,-68,0
-68,0,68,34,-68,34,9,-39,19,-29,-68,0
-68,0,68,34,-68,34,9,-39,19,-29,-68,0
-68,0,68,34,-68,34,9,-39,19,-39,-78,0
-68,0,68,34,-68,34,9,-39,19,-39,-78,0
-68,0,68,34,-68,34,9,-39,19,-39,-78,0
-68,0,68,34,-68,34,9,-39,19,-39,-78,0
-78,-9,68,43,-73,29,19,-39,9,-39,-78,0
-78,-9,68,43,-73,29,19,-39,9,-39,-78,0
-78,-9,68,43,-73,29,19,-39,9,-39,-78,0
-78,-9,68,43,-73,29,19,-39,9,-39,-78,0
-78,-9,68,43,-73,29,19,-39,9,-39,-78,0
-78,-9,68,43,-73,29,19,-39,9,-39,-78,0
-78,-9,68,43,-73,29,19,-39,9,-39,-78,0
-78,-9,68,43,-73,29,19,-39,9,-39,-78,0
-78,0,78,39,-78,39,9,-39,9,-39,-68,0
-78,0,78,39,-78,39,9,-39,9,-39,-68,0
-78,0,78,39,-78,39,9,-39,9,-39,-68,0
-78,0,78,39,-78,39,9,-39,9,-39,-68,0
-78,0,78,39,-78,39,0,-39,9,-39,-78,0
-78,0,78,39,-78,39,0,-39,9,-39,-78,0
-78,0,78,39,-78,39,0,-39,9,-39,-78,0
-78,0,78,39,-78,39,0,-39,9,-39,-78,0
-87,-4,82,46,-85,39,4,-39,9,-39,-78,-9
-87,-9,78,48,-82,34,9,-39,9,-39,-78,-9
-87,-14,73,51,-80,29,14,-39,9,-39,-78,-9
-87,-19,68,53,-78,24,19,-39,9,-39,-78,-9
-87,-9,78,48,-82,34,19,-39,9,-39,-78,-9
-87,-9,78,48,-82,34,19,-39,9,-39,-78,-9
-87,-9,78,48,-82,34,19,-39,9,-39,-78,-9
-87,-9,78,48,-82,34,19,-39,9,-39,-78,-9
-78,-19,58,48,-68,19,9,-48,9,-39,-78,-9
-78,-19,58,48,-68,19,9,-48,9,-39,-78,-9
-78,-19,58,48,-68,19,9,-48,9,-39,-78,-9
-78,-19,58,48,-68,19,9,-48,9,-39,-78,-9
-78,-9,68,43,-73,29,0,-48,9,-39,-78,-9
-78,-9,68,43,-73,29,0,-48,9,-39,-78,-9
-78,-9,68,43,-73,29,0,-48,9,-39,-78,-9
-78,-9,68,43,-73,29,0,-48,9,-39,-78,-9
-87,-9,78,48,-82,34,9,-48,9,-39,-78,-9
-87,-9,78,48,-82,34,9,-48,9,-39,-78,-9
-87,-9,78,48,-82,34,9,-48,9,-39,-78,-9
-87,-9,78,48,-82,34,9,-48,9,-39,-78,-9
-78,0,78,39,-78,39,9,-48,9,-39,-78,0
-78,0,78,39,-78,39,9,-48,9,-39,-78,0
-78,0,78,39,-78,39,9,-48,9,-39,-78,0
-78,0,78,39,-78,39,9,-48,9,-39,-78,0
-68,0,68,34,-68,34,9,-48,9,-39,-78,4
-63,4,68,29,-65,36,9,-43,14,-39,-78,4
-63,4,68,29,-65,36,9,-43,14,-34,-78,4
-63,9,73,26,-68,41,9,-43,14,-34,-73,4
-68,4,73,31,-70,39,9,-43,19,-34,-82,-4
-73,9,82,31,-78,46,9,-43,19,-34,-73,4
-68,19,87,24,-78,53,9,-43,19,-29,-68,9
-68,29,97,19,-82,63,9,-39,19,-29,-63,19
-58,34,92,12,-75,63,9,-29,39,-9,-53,24
-53,48,102,2,-78,75,0,-34,43,-4,-48,29
-53,53,107,0,-80,80,-9,-39,48,0,-43,34
-53,63,117,-4,-85,90,-14,-43,53,4,-39,39
-43,82,126,-19,-85,104,-24,-58,63,14,-29,48
-39,87,126,-24,-82,107,-24,-58,63,14,-24,48
-39,92,131,-26,-85,112,-24,-53,58,14,-19,48
-29,87,117,-29,-73,102,-24,-53,53,9,-14,48
-34,78,112,-21,-73,95,-14,-63,48,-9,-34,34
-29,87,117,-29,-73,102,-19,-63,43,-9,-34,34
-24,92,117,-34,-70,104,-19,-58,43,-4,-34,39
-19,92,112,-36,-65,102,-24,-53,53,0,-34,39
-9,97,107,-43,-58,102,-14,-39,53,9,-19,53
-4,102,107,-48,-56,104,-14,-34,58,9,-19,53
0,107,107,-53,-53,107,-9,-29,58,14,-19,53
0,112,112,-56,-56,112,-9,-24,58,14,-14,58
4,112,107,-58,-51,109,-19,-9,68,19,-14,58
9,107,97,-58,-43,102,-19,-9,68,19,-19,53
14,102,87,-58,-36,95,-19,-9,68,19,-19,53
19,102,82,-61,-31,92,-14,-9,68,19,-19,58
14,102,87,-58,-36,95,-9,-4,73,29,-9,68
14,97,82,-56,-34,90,-4,9,68,29,-9,68
14,97,82,-56,-34,90,-4,4,68,24,-9,58
9,92,82,-51,-36,87,-9,0,63,14,-19,48
-9,73,82,-31,-46,78,-9,-9,48,0,-29,39
-14,58,73,-21,-43,65,-9,-24,39,-4,-43,34
-29,53,82,-12,-56,68,-9,-24,39,-4,-43,34
-34,48,82,-7,-58,65,-4,-24,48,0,-43,34
-53,43,97,4,-75,70,-4,-39,43,-9,-43,14
-58,39,97,9,-78,68,-4,-48,34,-19,-48,9
-58,29,87,14,-73,58,-4,-53,19,-34,-63,4
-68,19,87,24,-78,53,0,-58,9,-34,-63,0
-73,14,87,29,-80,51,9,-58,14,-34,-68,4
-78,14,92,31,-85,53,9,-58,9,-39,-73,-4
-82,14,97,34,-90,56,9,-58,9,-39,-73,-4
-92,14,107,39,-100,61,14,-58,9,-39,-73,0
-82,-4,78,43,-80,36,14,-58,0,-48,-82,-9
-82,-4,78,43,-80,36,14,-58,0,-43,-82,-9
-82,0,82,41,-82,41,14,-58,0,-43,-82,-9
-82,0,82,41,-82,41,14,-58,4,-43,-82,-9
-92,0,92,46,-92,46,4,-58,-4,-43,-82,-19
-92,0,92,46,-92,46,4,-58,-4,-43,-82,-19
-92,0,92,46,-92,46,4,-58,-4,-43,-82,-19
-92,0,92,46,-92,46,9,-58,-4,-43,-82,-19
-92,0,92,46,-92,46,19,-58,-4,-43,-82,-9
-97,0,97,48,-97,48,19,-53,-4,-43,-82,-9
-97,0,97,48,-97,48,19,-53,-4,-43,-82,-9
-92,0,92,46,-92,46,19,-53,-4,-43,-82,-9
-92,-14,78,53,-85,31,29,-53,4,-53,-82,-9
-92,-14,78,53,-85,31,29,-53,4,-53,-82,-9
-97,-9,87,53,-92,39,29,-53,4,-53,-82,-9
-97,-9,87,53,-92,39,29,-53,9,-53,-82,-9
-97,-19,78,58,-87,29,19,-53,0,-53,-82,-9
-97,-19,78,58,-87,29,19,-53,0,-48,-82,-9
-97,-19,78,58,-87,29,24,-53,9,-48,-82,-9
-97,-19,78,58,-87,29,24,-53,0,-48,-82,-9
-97,-9,87,53,-92,39,24,-63,0,-39,-82,-9
-97,-9,87,53,-92,39,24,-63,0,-39,-82,-4
-97,-9,87,53,-92,39,24,-63,0,-43,-82,-4
-97,-14,82,56,-90,34,24,-63,0,-43,-82,-4
-87,-14,73,51,-80,29,24,-53,0,-34,-78,-4
-87,-14,73,51,-80,29,19,-58,4,-29,-78,-4
-87,-14,73,51,-80,29,29,-43,14,-29,-73,-4
-87,0,87,43,-87,43,19,-53,14,-24,-68,-14
-82,9,92,36,-87,51,19,-48,24,-19,-63,-14
-92,4,97,43,-95,51,29,-43,39,-14,-58,0
-82,4,87,39,-85,46,34,-24,48,-4,-58,4
-82,24,107,29,-95,65,34,-14,58,4,-43,14
-87,24,112,31,-100,68,39,-9,87,24,-14,29
-97,29,126,34,-112,78,29,-19,107,58,4,48
-82,39,122,21,-102,80,9,-43,112,82,34,73
-68,58,126,4,-97,92,-9,-48,131,117,68,102
-39,68,107,-14,-73,87,-9,-14,156,146,102,131
4,68,63,-36,-29,65,-19,39,161,175,126,146
78,63,-14,-70,46,24,-19,126,185,209,141,165
156,58,-97,-107,126,-19,-24,224,214,248,175,190
248,63,-185,-156,217,-61,-29,331,268,287,219,224
351,107,-244,-229,297,-68,-53,419,331,356,283,273
468,190,-278,-329,373,-43,-102,429,395,439,346,346
570,283,-287,-427,429,-2,-175,375,453,512,424,414
649,370,-278,-509,463,46,-239,317,522,585,492,468
702,453,-248,-578,475,102,-292,214,551,624,541,531
707,444,-263,-575,485,90,-326,112,458,546,463,483
678,307,-370,-492,524,-31,-292,102,253,312,244,292
644,175,-468,-409,556,-146,-253,87,29,78,24,107
605,112,-492,-358,549,-190,-268,-34,-146,-73,-78,29
507,78,-429,-292,468,-175,-287,-224,-307,-185,-151,-29
375,14,-361,-195,368,-173,-273,-395,-439,-287,-234,-87
253,0,-253,-126,253,-126,-273,-561,-522,-356,-278,-122
122,19,-102,-70,112,-41,-268,-702,-551,-375,-283,-122
-9,4,14,2,-12,9,-234,-771,-541,-385,-302,-136
-97,-29,68,63,-82,19,-195,-780,-531,-409,-326,-161
-136,-68,68,102,-102,0,-165,-751,-531,-424,-351,-195
-175,-97,78,136,-126,-9,-151,-717,-522,-444,-380,-219
-195,-112,82,153,-139,-14,-136,-673,-527,-444,-395,-234
-175,-122,53,148,-114,-34,-136,-619,-512,-444,-395,-248
-156,-131,24,143,-90,-53,-126,-556,-492,-439,-390,-244
-141,-126,14,134,-78,-56,-117,-488,-463,-429,-375,-239
-136,-112,24,124,-80,-43,-107,-429,-424,-385,-341,-214
-122,-87,34,104,-78,-26,-102,-390,-380,-326,-297,-165
-97,-58,39,78,-68,-9,-97,-326,-307,-273,-248,-136
-73,-39,34,56,-53,-2,-78,-258,-244,-229,-204,-107
-68,-39,29,53,-48,-4,-63,-209,-195,-190,-170,-82
-63,-24,39,43,-51,7,-48,-161,-146,-151,-151,-58
-53,-9,43,31,-48,17,-43,-117,-107,-117,-126,-39
-53,0,53,26,-53,26,-29,-82,-82,-102,-107,-24
-43,0,43,21,-43,21,-19,-73,-68,-78,-97,-19
-48,0,48,24,-48,24,-14,-63,-58,-73,-92,-9
-48,0,48,24,-48,24,-14,-48,-48,-63,-87,-9
-48,-4,43,26,-46,19,-4,-43,-43,-58,-82,-9
-48,-4,43,26,-46,19,-4,-34,-34,-53,-78,-9
-39,0,39,19,-39,19,-9,-29,-24,-43,-68,-9
-43,4,48,19,-46,26,-9,-29,-19,-43,-68,-9
-43,9,53,17,-48,31,-4,-24,-19,-39,-68,-9
-43,9,53,17,-48,31,-4,-19,-9,-39,-68,-9
-39,19,58,9,-48,39,-14,-14,-9,-29,-68,-4
-39,19,58,9,-48,39,-9,-14,-9,-29,-63,-4
-39,19,58,9,-48,39,-9,-14,-9,-29,-63,-4
-43,24,68,9,-56,46,-9,-14,-9,-24,-63,-4
-43,14,58,14,-51,36,0,-9,0,-19,-53,9
-43,9,53,17,-48,31,0,-9,0,-19,-53,9
-43,9,53,17,-48,31,0,-9,4,-19,-48,4
-39,9,48,14,-43,29,0,-4,4,-19,-48,4
-39,4,43,17,-41,24,9,4,4,-19,-58,9
-39,0,39,19,-39,19,9,4,9,-19,-58,9
-39,-4,34,21,-36,14,9,9,9,-19,-58,9
-39,-9,29,24,-34,9,9,9,9,-19,-58,9
-48,-4,43,26,-46,19,0,9,9,-19,-58,0
-48,0,48,24,-48,24,0,9,9,-19,-58,4
-48,4,53,21,-51,29,0,9,9,-14,-53,4
-48,9,58,19,-53,34,0,14,9,-14,-53,4
-48,9,58,19,-53,34,4,14,14,-14,-43,14
-48,14,63,17,-56,39,4,14,19,-14,-43,14
-43,14,58,14,-51,36,0,9,19,-9,-43,14
-43,9,53,17,-48,31,0,9,19,-9,-43,14
-34,9,43,12,-39,26,4,9,14,-9,-53,14
-34,9,43,12,-39,26,9,9,14,-9,-53,14
-34,9,43,12,-39,26,9,19,14,-9,-48,14
-34,9,43,12,-39,26,9,19,14,-9,-48,14
-34,9,43,12,-39,26,9,29,9,-9,-48,14
-29,9,39,9,-34,24,9,34,14,-9,-48,14
-29,9,39,9,-34,24,9,34,14,-9,-48,14
-29,9,39,9,-34,24,4,34,14,-9,-48,14
-29,9,39,9,-34,24,-4,34,24,-9,-48,14
-29,9,39,9,-34,24,0,34,24,-9,-48,14
-24,9,34,7,-29,21,0,43,24,-4,-48,19
-24,9,34,7,-29,21,0,43,24,-4,-43,19
-34,9,43,12,-39,26,9,34,24,4,-34,19
-34,14,48,9,-41,31,9,34,24,9,-34,19
-34,14,48,9,-41,31,9,39,29,9,-29,19
-34,19,53,7,-43,36,4,39,29,14,-29,19
-19,19,39,0,-29,29,-4,39,24,4,-39,19
-14,19,34,-2,-24,26,-4,48,29,4,-39,24
-14,19,34,-2,-24,26,-4,58,29,4,-39,24
-14,19,34,-2,-24,26,-4,63,29,9,-34,24
-9,19,29,-4,-19,24,4,63,29,9,-34,14
-9,19,29,-4,-19,24,4,68,29,9,-34,19
-9,19,29,-4,-19,24,4,73,29,9,-34,19
-4,24,29,-9,-17,26,4,73,29,14,-34,19
0,24,24,-12,-12,24,9,63,34,19,-29,29
0,24,24,-12,-12,24,9,73,43,24,-19,34
0,29,29,-14,-14,29,4,78,48,29,-14,34
4,29,24,-17,-9,26,4,82,48,34,-14,39
-4,24,29,-9,-17,26,4,82,39,29,-24,34
0,24,24,-12,-12,24,4,92,48,29,-24,34
0,19,19,-9,-9,19,4,102,48,29,-14,34
0,14,14,-7,-7,14,4,102,48,24,-14,34
4,14,9,-9,-2,12,-4,97,58,24,-24,24
14,19,4,-17,4,12,-4,102,63,29,-24,24
19,19,0,-19,9,9,0,117,63,34,-19,29
24,24,0,-24,12,12,0,122,73,39,-14,34
24,34,9,-29,7,21,0,126,78,43,-9,43
29,34,4,-31,12,19,0,136,78,48,-9,48
29,29,0,-29,14,14,4,151,82,53,-4,48
29,29,0,-29,14,14,4,161,87,58,0,48
43,29,-14,-36,29,7,0,156,82,48,0,43
48,39,-9,-43,29,14,0,165,87,53,4,43
58,48,-9,-53,34,19,4,175,92,63,9,53
58,48,-9,-53,34,19,4,180,102,68,14,53
48,43,-4,-46,26,19,4,180,102,73,19,58
53,43,-9,-48,31,17,4,190,112,78,24,63
58,48,-9,-53,34,19,4,200,117,82,24,68
63,58,-4,-61,34,26,4,209,122,87,29,68
73,58,-14,-65,43,21,-4,219,122,107,34,73
78,58,-19,-68,48,19,0,229,131,112,39,73
82,63,-19,-73,51,21,0,239,136,112,43,78
87,68,-19,-78,53,24,-4,248,141,117,48,82
102,78,-24,-90,63,26,-4,263,136,126,53,78
107,78,-29,-92,68,24,-4,273,136,126,58,87
112,78,-34,-95,73,21,-4,283,151,131,68,87
117,82,-34,-100,75,24,-4,283,165,131,68,87
122,92,-29,-107,75,31,-14,292,165,136,73,92
126,92,-34,-109,80,29,-14,302,170,141,78,92
136,92,-43,-114,90,24,-14,307,180,146,78,97
146,97,-48,-122,97,24,-14,317,190,146,82,102
151,102,-48,-126,100,26,-14,326,190,151,78,112
151,102,-48,-126,100,26,-14,331,195,156,78,117
156,107,-48,-131,102,29,-9,336,195,161,82,117
161,117,-43,-139,102,36,-9,346,200,165,92,117
175,107,-68,-141,122,19,-19,356,204,180,97,117
180,112,-68,-146,124,21,-19,356,209,185,102,122
185,112,-73,-148,129,19,-19,361,214,190,107,126
185,112,-73,-148,129,19,-24,370,219,195,112,126
190,107,-82,-148,136,12,-19,375,224,200,117,141
195,112,-82,-153,139,14,-19,380,229,204,122,146
200,112,-87,-156,143,12,-24,385,234,214,122,151
200,112,-87,-156,143,12,-24,390,234,219,122,156
204,122,-82,-163,143,19,-24,390,244,224,141,165
214,126,-87,-170,151,19,-29,385,244,224,141,170
219,126,-92,-173,156,17,-29,385,244,224,146,175
219,131,-87,-175,153,21,-29,375,244,224,151,175
219,136,-82,-178,151,26,-34,370,248,229,141,165
214,136,-78,-175,146,29,-39,361,244,229,141,170
209,141,-68,-175,139,36,-43,351,244,229,141,170
200,141,-58,-170,129,41,-43,331,239,229,141,175
200,131,-68,-165,134,31,-34,326,239,229,151,185
195,131,-63,-163,129,34,-34,312,239,229,141,180
185,131,-53,-158,119,39,-34,292,234,219,131,175
175,126,-48,-151,112,39,-39,263,229,209,126,170
165,122,-43,-143,104,39,-29,248,214,204,126,175
156,126,-29,-141,92,48,-29,234,204,195,126,165
146,131,-14,-139,80,58,-29,209,195,190,122,161
136,126,-9,-131,73,58,-29,190,190,180,117,156
107,126,19,-117,43,73,-19,170,180,170,107,141
102,122,19,-112,41,70,-19,151,175,165,97,131
92,122,29,-107,31,75,-19,131,161,151,87,126
82,122,39,-102,21,80,-19,117,156,136,78,117
63,117,53,-90,4,85,-19,107,151,131,73,117
53,102,48,-78,2,75,-19,87,146,122,58,107
39,97,58,-68,-9,78,-14,73,136,107,48,102
29,87,58,-58,-14,73,-14,63,117,97,43,87
9,82,73,-46,-31,78,-9,48,112,82,24,73
4,73,68,-39,-31,70,-9,39,102,78,14,68
-4,68,73,-31,-39,70,-9,29,92,63,4,58
-14,68,82,-26,-48,75,-9,19,87,58,-4,48
-24,63,87,-19,-56,75,4,9,78,58,4,48
-29,63,92,-17,-61,78,4,0,78,48,0,43
-34,58,92,-12,-63,75,4,0,73,48,-9,43
-39,53,92,-7,-65,73,4,-4,68,39,-14,39
-39,39,78,0,-58,58,-4,-9,58,24,-29,19
-39,39,78,0,-58,58,-4,-14,53,19,-34,19
-39,39,78,0,-58,58,0,-14,48,14,-34,19
-43,29,73,7,-58,51,0,-19,43,9,-34,14
-48,19,68,14,-58,43,9,-24,43,0,-43,19
-53,19,73,17,-63,46,4,-24,43,0,-43,14
-53,19,73,17,-63,46,4,-19,43,0,-43,14
-53,14,68,19,-61,41,9,-19,43,-4,-53,14
-63,19,82,21,-73,51,9,-24,39,0,-53,4
-63,14,78,24,-70,46,9,-29,34,-4,-53,4
-63,14,78,24,-70,46,9,-29,29,-14,-53,4
-63,14,78,24,-70,46,9,-34,29,-4,-53,4
-53,4,58,24,-56,31,19,-34,39,-14,-63,4
-53,4,58,24,-56,31,19,-34,39,-14,-63,4
-53,4,58,24,-56,31,19,-34,34,-19,-63,4
-58,0,58,29,-58,29,19,-34,34,-19,-68,0
-68,9,78,29,-73,43,14,-34,34,-19,-58,0
-68,9,78,29,-73,43,14,-34,34,-19,-58,0
-68,9,78,29,-73,43,9,-34,34,-19,-58,0
-68,14,82,26,-75,48,0,-34,29,-19,-58,0
-63,14,78,24,-70,46,0,-34,29,-24,-68,-4
-63,14,78,24,-70,46,0,-39,29,-24,-68,-4
-58,14,73,21,-65,43,0,-39,29,-24,-68,-4
-48,14,63,17,-56,39,0,-39,29,-24,-68,-4
-53,14,68,19,-61,41,9,-39,34,-24,-68,-4
-53,9,63,21,-58,36,9,-39,34,-24,-68,-4
-58,9,68,24,-63,39,9,-34,34,-24,-68,-4
-58,9,68,24,-63,39,14,-34,34,-24,-73,-4
-58,0,58,29,-58,29,4,-43,24,-14,-63,-4
-58,0,58,29,-58,29,0,-43,19,-19,-63,-4
-58,0,58,29,-58,29,0,-48,19,-19,-63,-4
-58,0,58,29,-58,29,0,-48,19,-14,-63,-4
-58,0,58,29,-58,29,9,-39,19,-14,-63,-4
-58,0,58,29,-58,29,14,-39,19,-14,-63,-4
-58,0,58,29,-58,29,14,-39,19,-14,-58,-4
-63,0,63,31,-63,31,9,-39,19,-14,-58,-4
-73,0,73,36,-73,36,9,-34,19,-24,-68,-14
-73,0,73,36,-73,36,14,-34,19,-24,-73,-14
-73,0,73,36,-73,36,14,-39,19,-24,-73,-14
-73,0,73,36,-73,36,9,-39,19,-29,-73,-14
-73,0,73,36,-73,36,9,-39,29,-29,-73,-4
-73,0,73,36,-73,36,9,-39,29,-29,-73,-4
-68,0,68,34,-68,34,9,-39,29,-29,-73,-4
-68,0,68,34,-68,34,9,-39,29,-29,-73,-4
-73,-4,68,39,-70,31,19,-39,19,-19,-63,-4
-73,-4,68,39,-70,31,19,-34,19,-19,-63,-4
-68,0,68,34,-68,34,19,-34,19,-19,-63,-4
-68,0,68,34,-68,34,19,-34,19,-19,-63,-4
-68,0,68,34,-68,34,9,-34,19,-29,-63,0
-68,0,68,34,-68,34,9,-34,19,-29,-63,0
-68,0,68,34,-68,34,9,-39,19,-29,-63,-4
-73,-4,68,39,-70,31,9,-39,19,-29,-63,-4
-63,4,68,29,-65,36,9,-39,29,-19,-63,-4
-63,4,68,29,-65,36,9,-39,29,-19,-68,-9
-63,4,68,29,-65,36,9,-39,29,-24,-68,-9
-63,4,68,29,-65,36,9,-39,24,-24,-63,-9
-63,0,63,31,-63,31,9,-39,24,-19,-63,-9
-58,0,58,29,-58,29,9,-39,24,-19,-63,-9
-58,0,58,29,-58,29,9,-39,29,-19,-58,-4
-58,0,58,29,-58,29,9,-39,29,-19,-58,-4
-68,0,68,34,-68,34,19,-34,29,-19,-63,-4
-68,0,68,34,-68,34,19,-34,29,-19,-63,-4
-73,0,73,36,-73,36,19,-39,29,-19,-63,-4
-73,0,73,36,-73,36,19,-39,29,-19,-63,-4
-63,9,73,26,-68,41,9,-48,29,-19,-63,0
-63,4,68,29,-65,36,9,-48,29,-19,-63,0
-63,4,68,29,-65,36,9,-48,29,-19,-63,0
-63,4,68,29,-65,36,9,-48,29,-19,-63,0
-63,14,78,24,-70,46,9,-39,34,-19,-63,0
-63,14,78,24,-70,46,9,-43,34,-19,-63,0
-63,19,82,21,-73,51,9,-43,34,-19,-63,0
-63,24,87,19,-75,56,9,-43,34,-19,-63,4
-63,24,87,19,-75,56,9,-53,29,-9,-63,-4
-63,24,87,19,-75,56,9,-48,29,-9,-63,-4
-63,14,78,24,-70,46,9,-48,29,-9,-63,-9
-63,14,78,24,-70,46,9,-48,29,-9,-68,-9
-73,14,87,29,-80,51,19,-48,24,-14,-68,0
-73,14,87,29,-80,51,19,-48,19,-14,-68,0
-73,9,82,31,-78,46,19,-53,19,-14,-68,-4
-73,9,82,31,-78,46,19,-53,19,-14,-68,-4
-68,9,78,29,-73,43,9,-53,19,-14,-58,4
-68,9,78,29,-73,43,9,-53,19,-24,-58,4
-63,9,73,26,-68,41,9,-53,19,-24,-63,4
-63,14,78,24,-70,46,9,-53,19,-19,-63,4
-63,4,68,29,-65,36,9,-43,19,-29,-63,-4
-63,4,68,29,-65,36,9,-43,19,-29,-63,-4
-63,4,68,29,-65,36,9,-43,19,-29,-63,-4
-63,4,68,29,-65,36,9,-43,19,-29,-63,-4
-63,4,68,29,-65,36,19,-53,19,-19,-63,4
-63,-4,58,34,-61,26,19,-53,19,-19,-63,4
-68,-4,63,36,-65,29,19,-53,14,-24,-63,0
-68,-4,63,36,-65,29,19,-53,14,-24,-63,0
-68,4,73,31,-70,39,19,-53,14,-34,-63,-9
-68,9,78,29,-73,43,19,-58,19,-29,-58,-4
-63,9,73,26,-68,41,19,-58,19,-29,-58,-4
-63,9,73,26,-68,41,19,-58,19,-29,-63,-9
-63,9,73,26,-68,41,9,-58,19,-24,-63,0
-68,9,78,29,-73,43,9,-58,19,-24,-68,0
-68,9,78,29,-73,43,9,-58,14,-24,-68,0
-68,14,82,26,-75,48,9,-58,14,-24,-68,0
-68,4,73,31,-70,39,9,-58,9,-24,-68,0
-68,4,73,31,-70,39,9,-58,9,-24,-63,0
-68,4,73,31,-70,39,9,-58,14,-24,-63,0
-68,4,73,31,-70,39,9,-63,14,-24,-63,0
-68,4,73,31,-70,39,19,-53,14,-24,-73,-9
-68,0,68,34,-68,34,19,-53,14,-24,-73,-9
-68,0,68,34,-68,34,19,-53,14,-24,-73,-9
-68,0,68,34,-68,34,19,-53,14,-24,-73,-9
-68,9,78,29,-73,43,9,-63,4,-24,-63,0
-68,9,78,29,-73,43,9,-63,4,-24,-68,0
-68,9,78,29,-73,43,9,-63,4,-24,-68,0
-73,4,78,34,-75,41,9,-63,4,-29,-73,-9
-82,4,87,39,-85,46,9,-58,9,-29,-73,-19
-82,4,87,39,-85,46,9,-58,9,-29,-68,-19
-82,4,87,39,-85,46,9,-58,9,-29,-68,-19
-82,4,87,39,-85,46,9,-58,9,-29,-68,-14
-73,-4,68,39,-70,31,9,-58,9,-39,-68,-14
-73,-4,68,39,-70,31,14,-58,9,-39,-68,-14
-73,-4,68,39,-70,31,14,-58,9,-39,-68,-14
-73,-4,68,39,-70,31,9,-58,9,-39,-68,-14
-82,-4,78,43,-80,36,9,-58,9,-29,-68,-14
-82,-4,78,43,-80,36,9,-58,9,-29,-78,-14
-82,-4,78,43,-80,36,9,-58,9,-29,-68,-14
-82,-4,78,43,-80,36,9,-58,9,-29,-68,-14
-82,-4,78,43,-80,36,19,-58,9,-39,-73,-19
-82,-4,78,43,-80,36,19,-58,9,-39,-73,-19
-82,-4,78,43,-80,36,19,-58,9,-39,-73,-19
-82,-4,78,43,-80,36,19,-58,4,-39,-73,-19
-82,-4,78,43,-80,36,9,-58,4,-39,-73,-19
-82,-4,78,43,-80,36,0,-58,9,-39,-73,-19
-82,-4,78,43,-80,36,9,-58,9,-39,-73,-19
-87,-4,82,46,-85,39,9,-58,4,-43,-68,-19
-78,4,82,36,-80,43,19,-58,4,-34,-68,-19
-78,4,82,36,-80,43,14,-58,4,-34,-73,-19
-73,4,78,34,-75,41,14,-58,4,-29,-73,-19
-73,4,78,34,-75,41,14,-63,4,-29,-68,-19
-82,0,82,41,-82,41,14,-73,4,-39,-68,-24
-82,0,82,41,-82,41,14,-73,4,-39,-68,-24
-82,0,82,41,-82,41,19,-68,4,-43,-68,-24
-82,-4,78,43,-80,36,19,-68,4,-43,-68,-29
-78,-4,73,41,-75,34,19,-68,14,-34,-78,-19
-78,-4,73,41,-75,34,9,-63,4,-34,-78,-19
-78,0,78,39,-78,39,9,-68,0,-39,-68,-19
-68,0,68,34,-68,34,0,-68,0,-39,-78,-19
-68,0,68,34,-68,34,0,-68,0,-39,-78,-19
-68,0,68,34,-68,34,0,-68,0,-39,-78,-19
-68,0,68,34,-68,34,0,-68,0,-39,-78,-19
-68,9,78,29,-73,43,9,-68,0,-39,-78,-14
-63,14,78,24,-70,46,9,-63,4,-39,-78,-14
-63,14,78,24,-70,46,9,-63,4,-34,-78,-14
-63,19,82,21,-73,51,9,-63,4,-34,-73,-14
-63,14,78,24,-70,46,9,-63,14,-39,-73,-14
-63,19,82,21,-73,51,9,-63,19,-34,-63,-4
-53,29,82,12,-68,56,9,-63,24,-24,-58,0
-48,39,87,4,-68,63,9,-58,29,-19,-53,9
-48,43,92,2,-70,68,19,-48,29,-9,-43,14
-43,58,102,-7,-73,80,9,-53,34,-4,-39,19
-43,63,107,-9,-75,85,0,-58,39,0,-34,24
-43,73,117,-14,-80,95,-4,-63,43,4,-29,29
-43,82,126,-19,-85,104,-14,-78,53,14,-24,29
-39,87,126,-24,-82,107,-14,-78,53,14,-24,29
-39,92,131,-26,-85,112,-14,-73,48,14,-24,29
-29,87,117,-29,-73,102,-14,-73,43,9,-24,29
-24,87,112,-31,-68,100,-24,-73,48,9,-24,24
-19,97,117,-39,-68,107,-29,-73,43,9,-24,24
-14,102,117,-43,-65,109,-29,-68,43,14,-24,29
-9,102,112,-46,-61,107,-34,-63,53,19,-24,29
0,112,112,-56,-56,112,-24,-58,53,19,-19,43
4,112,107,-58,-51,109,-24,-53,58,19,-19,43
9,112,102,-61,-46,107,-19,-48,58,24,-19,43
9,112,102,-61,-46,107,-19,-43,58,24,-14,48
19,117,97,-68,-39,107,-9,-29,58,29,-4,58
19,107,87,-63,-34,97,-9,-29,58,29,-9,53
19,97,78,-58,-29,87,-9,-29,58,29,-9,53
19,92,73,-56,-26,82,-4,-29,58,29,-9,58
19,97,78,-58,-29,87,-9,-19,63,39,0,48
14,87,73,-51,-29,80,-4,-9,58,39,0,48
9,82,73,-46,-31,78,-4,-19,58,34,0,39
0,73,73,-36,-36,73,-9,-29,53,24,-9,29
-9,58,68,-24,-39,63,-9,-39,29,4,-29,19
-14,48,63,-17,-39,56,-9,-53,19,-4,-43,14
-29,48,78,-9,-53,63,-9,-53,19,-9,-43,14
-34,48,82,-7,-58,65,-4,-53,29,-9,-43,14
-53,53,107,0,-80,80,-4,-68,19,-9,-43,14
-58,48,107,4,-82,78,-4,-78,14,-19,-48,9
-58,39,97,9,-78,68,-4,-82,4,-34,-63,4
-68,29,97,19,-82,63,0,-87,0,-34,-63,0
-73,14,87,29,-80,51,9,-97,-4,-34,-68,-4
-78,14,92,31,-85,53,9,-97,-9,-39,-73,-14
-82,14,97,34,-90,56,9,-97,-9,-39,-73,-14
-92,14,107,39,-100,61,14,-97,-9,-39,-73,-9
-82,14,97,34,-90,56,14,-97,-19,-43,-82,-19
-82,14,97,34,-90,56,14,-97,-19,-43,-82,-19
-82,19,102,31,-92,61,14,-97,-19,-48,-82,-19
-82,19,102,31,-92,61,14,-97,-14,-53,-82,-19
-82,4,87,39,-85,46,14,-92,-14,-53,-82,-19
-82,0,82,41,-82,41,14,-87,-14,-53,-82,-19
-82,-4,78,43,-80,36,14,-82,-14,-53,-82,-19
-82,-9,73,46,-78,31,19,-78,-14,-53,-82,-19
-82,-19,63,51,-73,21,19,-87,-14,-63,-92,-29
-87,-19,68,53,-78,24,19,-82,-14,-63,-92,-29
-87,-19,68,53,-78,24,19,-82,-14,-63,-92,-29
-82,-19,63,51,-73,21,19,-82,-14,-63,-92,-29
-92,-24,68,58,-80,21,29,-82,-14,-63,-92,-19
-92,-24,68,58,-80,21,29,-82,-14,-63,-92,-19
-97,-19,78,58,-87,29,29,-82,-14,-63,-92,-19
-97,-19,78,58,-87,29,29,-82,-9,-63,-92,-19
-97,-19,78,58,-87,29,29,-82,-9,-63,-82,-19
-97,-19,78,58,-87,29,29,-82,-9,-58,-82,-19
-97,-19,78,58,-87,29,34,-82,0,-58,-82,-19
-97,-19,78,58,-87,29,34,-82,-9,-58,-82,-19
-97,-19,78,58,-87,29,24,-82,-9,-48,-92,-29
-97,-19,78,58,-87,29,24,-82,-9,-48,-92,-24
-97,-19,78,58,-87,29,24,-82,-9,-53,-92,-24
-97,-24,73,61,-85,24,24,-82,-9,-53,-92,-24
-97,-14,82,56,-90,34,24,-82,-9,-63,-87,-24
-97,-14,82,56,-90,34,19,-87,-4,-58,-87,-24
-97,-24,73,61,-85,24,19,-82,-4,-48,-82,-24
-97,-19,78,58,-87,29,19,-82,-4,-53,-78,-24
-102,-9,92,56,-97,41,29,-78,-4,-58,-82,-24
-112,-4,107,58,-109,51,29,-73,9,-43,-78,-29
-102,-4,97,53,-100,46,34,-63,29,-24,-58,-14
-102,4,107,48,-104,56,43,-43,58,-14,-43,4
-107,14,122,46,-114,68,39,-39,78,14,-34,9
-97,19,117,39,-107,68,29,-68,87,48,-4,39
-73,39,112,17,-92,75,9,-82,92,82,34,63
-48,48,97,0,-73,73,-9,-78,102,107,68,102
-29,48,78,-9,-53,63,-9,-34,117,146,92,122
24,48,24,-36,0,36,-9,48,131,165,117,136
97,34,-63,-65,80,-14,-19,136,165,200,141,156
185,39,-146,-112,165,-53,-24,234,214,239,175,180
287,63,-224,-175,256,-80,-39,341,268,287,219,214
390,117,-273,-253,331,-78,-73,409,331,366,283,273
497,200,-297,-348,397,-48,-131,390,395,448,356,336
600,292,-307,-446,453,-7,-195,336,463,531,434,414
678,390,-287,-534,483,51,-258,268,522,595,512,497
722,473,-248,-597,485,112,-322,165,522,605,531,531
717,424,-292,-570,505,65,-326,102,390,468,414,434
697,278,-419,-488,558,-70,-292,102,175,214,175,234
663,175,-488,-419,575,-156,-283,58,-39,9,-14,78
614,122,-492,-368,553,-185,-297,-92,-214,-112,-87,9
497,68,-429,-283,463,-180,-287,-273,-366,-234,-180,-48
366,14,-351,-190,358,-168,-273,-444,-497,-336,-263,-117
244,9,-234,-126,239,-112,-283,-619,-561,-385,-297,-131
112,9,-102,-61,107,-46,-258,-751,-570,-395,-302,-131
-29,-4,24,17,-26,9,-224,-810,-561,-405,-312,-156
-107,-39,68,73,-87,14,-185,-790,-561,-429,-346,-180
-146,-78,68,112,-107,-4,-165,-751,-551,-444,-370,-204
-175,-97,78,136,-126,-9,-151,-727,-541,-463,-380,-229
-195,-102,92,148,-143,-4,-146,-692,-536,-463,-385,-244
-175,-112,63,143,-119,-24,-136,-629,-531,-453,-385,-239
-146,-112,34,129,-90,-39,-136,-566,-512,-439,-380,-234
-131,-107,24,119,-78,-41,-117,-507,-473,-419,-356,-229
-126,-92,34,109,-80,-29,-107,-458,-424,-375,-331,-204
-102,-58,43,80,-73,-7,-102,-400,-361,-317,-278,-165
-87,-39,48,63,-68,4,-97,-326,-287,-263,-229,-126
-73,-29,43,51,-58,7,-87,-268,-234,-219,-195,-97
-68,-9,58,39,-63,24,-73,-229,-185,-180,-161,-82
-63,-4,58,34,-61,26,-58,-180,-136,-141,-131,-58
-53,0,53,26,-53,26,-43,-136,-107,-107,-117,-48
-34,9,43,12,-39,26,-39,-122,-92,-92,-107,-34
-43,9,53,17,-48,31,-29,-102,-68,-78,-97,-19
-48,9,58,19,-53,34,-14,-92,-53,-68,-92,-9
-48,9,58,19,-53,34,-14,-78,-48,-63,-87,-9
-48,4,53,21,-51,29,-4,-73,-48,-63,-82,-9
-48,4,53,21,-51,29,-4,-63,-43,-63,-78,-9
-39,9,48,14,-43,29,-9,-58,-43,-53,-68,-9
-43,14,58,14,-51,36,-9,-58,-39,-53,-68,-9
-43,19,63,12,-53,41,-4,-53,-39,-48,-68,-9
-43,19,63,12,-53,41,-4,-48,-29,-48,-68,-9
-39,9,48,14,-43,29,-14,-43,-29,-39,-68,-4
-39,9,48,14,-43,29,-9,-43,-29,-39,-63,-4
-39,9,48,14,-43,29,-9,-43,-29,-39,-63,-4
-43,14,58,14,-51,36,-9,-43,-29,-34,-63,-4
-43,24,68,9,-56,46,-9,-39,-29,-39,-63,0
-43,19,63,12,-53,41,-9,-39,-29,-39,-63,0
-43,19,63,12,-53,41,-9,-39,-24,-39,-58,-4
-39,19,58,9,-48,39,-9,-34,-24,-39,-58,-4
-39,24,63,7,-51,43,-9,-34,-14,-29,-58,0
-39,29,68,4,-53,48,-9,-34,-9,-29,-58,0
-39,34,73,2,-56,53,-9,-29,-9,-29,-58,0
-39,39,78,0,-58,58,-9,-29,-9,-29,-58,0
-39,29,68,4,-53,48,-9,-29,-9,-39,-58,0
-39,29,68,4,-53,48,-9,-29,-9,-39,-58,4
-39,29,68,4,-53,48,-9,-29,-9,-34,-53,4
-39,29,68,4,-53,48,-9,-24,-9,-34,-53,4
-39,24,63,7,-51,43,4,-19,-4,-34,-63,4
-39,24,63,7,-51,43,4,-14,0,-34,-63,4
-34,19,53,7,-43,36,0,-14,0,-29,-63,4
-34,9,43,12,-39,26,0,-9,0,-29,-63,4
-34,9,43,12,-39,26,-4,-19,-4,-29,-53,4
-34,9,43,12,-39,26,0,-19,-4,-29,-53,4
-34,9,43,12,-39,26,0,-9,-4,-29,-48,4
-34,9,43,12,-39,26,0,-9,-4,-29,-48,4
-34,19,53,7,-43,36,0,-9,-9,-19,-48,4
-29,19,48,4,-39,34,0,-4,-4,-19,-48,4
-29,19,48,4,-39,34,0,-4,-4,-19,-48,4
-29,19,48,4,-39,34,-4,-4,-4,-19,-48,4
-29,29,58,0,-43,43,-4,-4,-4,-19,-48,4
-29,29,58,0,-43,43,0,-4,-4,-19,-48,4
-24,29,53,-2,-39,41,0,4,-4,-14,-48,9
-24,29,53,-2,-39,41,0,4,-4,-14,-43,9
-24,19,43,2,-34,31,0,4,-4,-24,-43,9
-24,24,48,0,-36,36,0,4,-4,-19,-43,9
-24,24,48,0,-36,36,0,9,0,-19,-39,9
-24,29,53,-2,-39,41,-4,9,0,-14,-39,9
-19,29,48,-4,-34,39,-4,9,-9,-14,-39,9
-14,29,43,-7,-29,36,-4,19,0,-14,-39,14
-14,29,43,-7,-29,36,-4,29,4,-14,-39,14
-14,29,43,-7,-29,36,-4,34,9,-9,-34,14
0,39,39,-19,-19,39,-4,34,9,-9,-34,14
0,39,39,-19,-19,39,-4,39,9,-9,-34,19
0,39,39,-19,-19,39,-4,43,9,-9,-34,19
4,43,39,-24,-17,41,-4,43,9,-4,-34,19
0,43,43,-21,-21,43,0,43,14,-9,-39,19
0,43,43,-21,-21,43,0,53,24,-4,-29,24
0,48,48,-24,-24,48,-4,58,29,0,-24,24
4,48,43,-26,-19,46,-4,63,29,4,-24,29
4,39,34,-21,-14,36,-4,53,29,4,-24,34
9,43,34,-26,-12,39,-4,63,39,9,-24,34
9,43,34,-26,-12,39,-4,73,39,14,-14,34
9,43,34,-26,-12,39,-4,73,39,14,-14,34
14,53,39,-34,-12,46,-4,78,39,4,-14,34
24,58,34,-41,-4,46,-4,82,43,9,-14,34
29,58,29,-43,0,43,0,97,43,14,-9,39
34,63,29,-48,2,46,0,102,53,19,-4,43
34,63,29,-48,2,46,0,97,58,14,-9,43
39,63,24,-51,7,43,0,107,58,19,-9,48
39,58,19,-48,9,39,4,122,63,24,-4,48
39,58,19,-48,9,39,4,131,68,29,0,48
53,58,4,-56,24,31,0,126,63,39,0,43
58,68,9,-63,24,39,0,136,68,43,4,43
68,78,9,-73,29,43,4,146,73,53,9,53
68,78,9,-73,29,43,4,151,82,58,14,53
68,63,-4,-65,36,29,-4,170,82,53,19,58
73,63,-9,-68,41,26,-4,180,92,58,24,63
78,68,-9,-73,43,29,-4,190,97,63,24,68
82,78,-4,-80,43,36,-4,200,102,68,29,68
92,78,-14,-85,53,31,-14,200,102,87,34,73
97,78,-19,-87,58,29,-9,209,112,92,39,73
102,82,-19,-92,61,31,-9,219,117,92,43,78
107,87,-19,-97,63,34,-14,229,122,97,48,82
112,97,-14,-104,63,41,-14,234,126,107,43,87
117,97,-19,-107,68,39,-14,244,126,107,48,97
122,97,-24,-109,73,36,-14,253,141,112,58,97
126,102,-24,-114,75,39,-14,253,156,112,58,97
131,102,-29,-117,80,36,-14,273,146,117,73,102
136,102,-34,-119,85,34,-14,283,151,122,78,102
146,102,-43,-124,95,29,-14,287,161,126,78,107
156,107,-48,-131,102,29,-14,297,170,126,82,112
161,112,-48,-136,104,31,-14,307,165,131,87,122
161,112,-48,-136,104,31,-14,312,175,136,87,126
165,117,-48,-141,107,34,-9,317,180,141,92,126
170,126,-43,-148,107,41,-9,326,190,146,102,126
185,126,-58,-156,122,34,-19,336,195,151,97,126
190,131,-58,-161,124,36,-19,336,200,156,102,131
195,131,-63,-163,129,34,-19,341,204,161,107,136
195,131,-63,-163,129,34,-24,351,209,165,112,136
200,136,-63,-168,131,36,-19,361,214,170,126,141
204,141,-63,-173,134,39,-19,361,219,175,131,146
209,141,-68,-175,139,36,-24,361,224,185,131,151
209,141,-68,-175,139,36,-24,361,224,190,131,156
219,161,-58,-190,139,51,-34,361,234,195,131,156
224,165,-58,-195,141,53,-39,356,234,195,131,161
224,165,-58,-195,141,53,-39,356,234,195,136,165
219,170,-48,-195,134,61,-39,346,234,195,141,165
229,165,-63,-197,146,51,-34,341,244,200,151,165
224,165,-58,-195,141,53,-39,331,234,200,151,170
219,170,-48,-195,134,61,-43,322,229,200,151,170
209,170,-39,-190,124,65,-43,302,219,200,151,175
209,170,-39,-190,124,65,-34,297,219,200,161,175
204,170,-34,-187,119,68,-34,283,219,200,151,170
195,170,-24,-183,109,73,-34,263,214,190,141,165
185,165,-19,-175,102,73,-39,234,209,180,136,161
165,156,-9,-161,87,73,-39,209,200,180,122,165
156,156,0,-156,78,78,-39,195,185,165,117,156
146,156,9,-151,68,82,-39,170,170,156,107,151
136,146,9,-141,63,78,-39,151,161,141,97,146
117,151,34,-134,41,92,-29,131,151,126,97,141
112,141,29,-126,41,85,-29,112,146,126,87,131
102,136,34,-119,34,85,-29,92,131,117,78,126
92,131,39,-112,26,85,-29,78,126,107,68,117
73,117,43,-95,14,80,-19,68,112,92,73,107
63,102,39,-82,12,70,-19,48,107,82,58,97
48,97,48,-73,0,73,-14,34,97,68,48,92
39,87,48,-63,-4,68,-14,24,78,58,43,78
19,92,73,-56,-26,82,-9,9,82,53,34,73
14,82,68,-48,-26,75,-9,0,73,48,24,68
4,78,73,-41,-34,75,-9,-9,63,34,14,58
-4,78,82,-36,-43,80,-9,-19,58,29,4,48
-4,53,58,-24,-31,56,-4,-29,39,9,-4,39
-9,53,63,-21,-36,58,-4,-39,39,0,-9,34
-14,48,63,-17,-39,56,-4,-39,34,0,-19,34
-19,43,63,-12,-41,53,-4,-43,29,-9,-24,29
-29,48,78,-9,-53,63,-4,-48,29,-4,-29,29
-29,48,78,-9,-53,63,-4,-53,24,-9,-34,29
-29,48,78,-9,-53,63,0,-53,19,-14,-34,29
-34,39,73,-2,-53,56,0,-58,14,-19,-34,24
-29,29,58,0,-43,43,0,-73,4,-29,-43,9
-34,29,63,2,-48,46,-4,-73,4,-29,-43,4
-34,29,63,2,-48,46,-4,-68,4,-29,-43,4
-34,24,58,4,-46,41,0,-68,4,-34,-53,4
-43,19,63,12,-53,41,0,-63,9,-29,-53,4
-43,14,58,14,-51,36,0,-68,4,-34,-53,4
-43,14,58,14,-51,36,0,-68,0,-43,-53,4
-43,14,58,14,-51,36,0,-73,0,-34,-53,4
-43,14,58,14,-51,36,0,-73,0,-43,-53,-4
-43,14,58,14,-51,36,0,-73,0,-43,-53,-4
-43,14,58,14,-51,36,0,-73,-4,-48,-53,-4
-48,9,58,19,-53,34,0,-73,-4,-48,-58,-9
-48,19,68,14,-58,43,0,-82,-4,-39,-58,0
-48,19,68,14,-58,43,4,-82,-4,-39,-58,0
-48,19,68,14,-58,43,4,-82,-4,-39,-58,0
-48,24,73,12,-61,48,0,-82,-9,-39,-58,0
-48,14,63,17,-56,39,0,-73,-9,-43,-58,-4
-53,14,68,19,-61,41,0,-78,-9,-43,-58,-4
-53,14,68,19,-61,41,0,-78,-9,-43,-58,-4
-48,14,63,17,-56,39,0,-78,-9,-43,-58,-4
-43,14,58,14,-51,36,0,-87,-14,-43,-58,-4
-43,9,53,17,-48,31,0,-87,-14,-43,-58,-4
-48,9,58,19,-53,34,0,-82,-14,-43,-58,-4
-48,9,58,19,-53,34,4,-82,-14,-43,-63,-4
-48,9,58,19,-53,34,14,-73,-4,-43,-53,-4
-48,9,58,19,-53,34,9,-73,-9,-48,-53,-4
-48,9,58,19,-53,34,9,-78,-9,-48,-53,-4
-48,9,58,19,-53,34,9,-78,-9,-43,-53,-4
-39,9,48,14,-43,29,0,-78,-9,-43,-63,-4
-39,9,48,14,-43,29,4,-78,-9,-43,-63,-4
-39,9,48,14,-43,29,4,-78,-9,-43,-58,-4
-43,9,53,17,-48,31,0,-78,-9,-43,-58,-4
-43,9,53,17,-48,31,0,-73,-9,-43,-58,-4
-43,9,53,17,-48,31,4,-73,-9,-43,-63,-4
-43,9,53,17,-48,31,4,-78,-9,-43,-63,-4
-43,9,53,17,-48,31,0,-78,-9,-48,-63,-4
-53,0,53,26,-53,26,9,-78,-19,-48,-53,4
-53,0,53,26,-53,26,9,-78,-19,-48,-53,4
-48,0,48,24,-48,24,9,-78,-19,-48,-53,4
-48,0,48,24,-48,24,9,-78,-19,-48,-53,4
-43,4,48,19,-46,26,0,-78,-9,-48,-53,4
-43,4,48,19,-46,26,0,-73,-9,-48,-53,4
-39,9,48,14,-43,29,0,-73,-9,-48,-53,4
-39,9,48,14,-43,29,0,-73,-9,-48,-53,4
-48,9,58,19,-53,34,0,-73,-19,-39,-53,9
-48,9,58,19,-53,34,0,-73,-19,-39,-53,9
-48,9,58,19,-53,34,0,-78,-19,-39,-53,4
-53,4,58,24,-56,31,0,-78,-19,-39,-53,4
-43,4,48,19,-46,26,9,-87,-19,-39,-53,4
-43,4,48,19,-46,26,9,-87,-19,-39,-58,0
-43,4,48,19,-46,26,9,-87,-19,-43,-58,0
-43,4,48,19,-46,26,9,-87,-24,-43,-53,0
-43,0,43,21,-43,21,9,-78,-14,-39,-53,0
-39,0,39,19,-39,19,9,-78,-14,-39,-53,0
-39,0,39,19,-39,19,9,-78,-9,-39,-48,4
-39,0,39,19,-39,19,9,-78,-9,-39,-48,4
-39,0,39,19,-39,19,0,-82,-19,-39,-43,4
-39,0,39,19,-39,19,0,-82,-19,-39,-43,4
-43,0,43,21,-43,21,0,-87,-19,-39,-43,4
-43,0,43,21,-43,21,0,-87,-19,-39,-43,4
-43,0,43,21,-43,21,0,-87,-9,-39,-43,0
-43,-4,39,24,-41,17,0,-87,-9,-39,-43,0
-43,-4,39,24,-41,17,0,-87,-9,-39,-43,0
-43,-4,39,24,-41,17,0,-87,-9,-39,-43,0
-43,-4,39,24,-41,17,0,-87,-14,-48,-53,0
-43,-4,39,24,-41,17,0,-92,-14,-48,-53,0
-43,0,43,21,-43,21,0,-92,-14,-48,-53,0
-43,4,48,19,-46,26,0,-92,-14,-48,-53,4
-43,4,48,19,-46,26,9,-82,-19,-48,-53,4
-43,4,48,19,-46,26,9,-78,-19,-48,-53,4
-43,-4,39,24,-41,17,9,-78,-19,-48,-53,0
-43,-4,39,24,-41,17,9,-78,-19,-48,-58,0
-34,-4,29,19,-31,12,4,-87,-14,-53,-58,0
-34,-4,29,19,-31,12,0,-87,-19,-53,-58,0
-34,-9,24,21,-29,7,-4,-92,-19,-53,-58,-4
-34,-9,24,21,-29,7,-9,-92,-19,-53,-58,-4
-48,-9,39,29,-43,14,-4,-92,-29,-43,-48,-4
-48,-9,39,29,-43,14,0,-92,-29,-53,-48,-4
-43,-9,34,26,-39,12,4,-92,-29,-53,-53,-4
-43,-4,39,24,-41,17,9,-92,-29,-48,-53,-4
-43,-4,39,24,-41,17,0,-92,-19,-48,-53,4
-43,-4,39,24,-41,17,0,-92,-19,-48,-53,4
-43,-4,39,24,-41,17,0,-92,-19,-48,-53,4
-43,-4,39,24,-41,17,0,-92,-19,-48,-53,4
-53,4,58,24,-56,31,0,-92,-29,-48,-53,4
-53,-4,48,29,-51,21,0,-92,-29,-48,-53,4
-58,-4,53,31,-56,24,0,-92,-34,-53,-53,0
-58,-4,53,31,-56,24,0,-92,-34,-53,-53,0
-48,-14,34,31,-41,9,0,-92,-34,-53,-53,0
-48,-9,39,29,-43,14,0,-97,-29,-48,-48,4
-43,-9,34,26,-39,12,0,-97,-29,-48,-48,4
-43,-9,34,26,-39,12,0,-97,-29,-48,-53,0
-43,-9,34,26,-39,12,0,-97,-29,-53,-53,0
-48,-9,39,29,-43,14,0,-97,-29,-53,-58,0
-48,-9,39,29,-43,14,0,-97,-34,-53,-58,0
-48,-4,43,26,-46,19,0,-97,-34,-53,-58,0
-48,-14,34,31,-41,9,0,-97,-39,-53,-58,0
-48,-14,34,31,-41,9,0,-97,-39,-53,-53,0
-48,-14,34,31,-41,9,0,-97,-34,-53,-53,0
-48,-14,34,31,-41,9,0,-102,-34,-53,-53,0
-48,-14,34,31,-41,9,0,-102,-34,-53,-53,-9
-48,-19,29,34,-39,4,0,-102,-34,-53,-53,-9
-48,-19,29,34,-39,4,0,-102,-34,-53,-53,-9
-48,-19,29,34,-39,4,0,-102,-34,-53,-53,-9
-58,-19,39,39,-48,9,-9,-102,-34,-53,-43,0
-58,-19,39,39,-48,9,-9,-102,-34,-53,-48,0
-58,-19,39,39,-48,9,-9,-102,-34,-53,-48,0
-63,-24,39,43,-51,7,-9,-102,-34,-58,-53,-9
-53,-14,39,34,-46,12,0,-107,-29,-58,-53,-9
-53,-14,39,34,-46,12,0,-107,-29,-58,-48,-9
-53,-14,39,34,-46,12,0,-107,-29,-58,-48,-9
-53,-14,39,34,-46,12,0,-107,-29,-58,-48,-4
-43,-4,39,24,-41,17,-9,-107,-39,-58,-48,-4
-43,-4,39,24,-41,17,-4,-107,-39,-58,-48,-4
-43,-4,39,24,-41,17,-4,-107,-39,-58,-48,-4
-43,-4,39,24,-41,17,-9,-107,-39,-58,-48,-4
-53,-4,48,29,-51,21,-9,-107,-39,-58,-48,-4
-53,-4,48,29,-51,21,-9,-107,-39,-58,-58,-4
-53,-4,48,29,-51,21,-9,-107,-39,-58,-48,-4
-53,-4,48,29,-51,21,-9,-107,-39,-58,-48,-4
-53,-4,48,29,-51,21,-9,-107,-29,-48,-53,0
-53,-4,48,29,-51,21,-9,-107,-29,-48,-53,0
-53,-4,48,29,-51,21,-9,-107,-29,-48,-53,0
-53,-4,48,29,-51,21,-9,-107,-34,-48,-53,0
-63,-14,48,39,-56,17,0,-107,-43,-58,-53,-9
-63,-14,48,39,-56,17,-9,-107,-39,-58,-53,-9
-63,-14,48,39,-56,17,0,-107,-39,-58,-53,-9
-68,-14,53,41,-61,19,0,-107,-43,-63,-48,-9
-58,-4,53,31,-56,24,0,-107,-43,-63,-48,0
-58,-4,53,31,-56,24,-4,-107,-43,-63,-53,0
-53,-4,48,29,-51,21,-4,-107,-43,-58,-53,0
-53,-4,48,29,-51,21,-4,-112,-43,-58,-48,0
-53,-4,48,29,-51,21,-14,-112,-43,-58,-58,-4
-53,-9,43,31,-48,17,-14,-112,-43,-58,-58,-4
-53,-14,39,34,-46,12,-9,-107,-43,-63,-58,-4
-53,-24,29,39,-41,2,-9,-107,-43,-63,-58,-9
-58,-14,43,36,-51,14,-9,-107,-43,-63,-58,0
-58,-14,43,36,-51,14,-9,-112,-43,-63,-58,0
-58,-14,43,36,-51,14,-9,-112,-43,-68,-53,-4
-58,-19,39,39,-48,9,-9,-112,-43,-68,-53,-4
-58,-19,39,39,-48,9,0,-112,-43,-58,-43,-4
-58,-14,43,36,-51,14,-4,-112,-43,-58,-43,-4
-58,-14,43,36,-51,14,-4,-112,-43,-58,-43,-4
-58,-14,43,36,-51,14,-4,-112,-43,-53,-43,0
-58,-24,34,41,-46,4,-4,-102,-43,-53,-43,-9
-58,-34,24,46,-41,-4,-4,-102,-43,-63,-53,-9
-58,-29,29,43,-43,0,0,-97,-48,-68,-58,-9
-48,-29,19,39,-34,-4,0,-97,-39,-58,-48,-9
-48,-29,19,39,-34,-4,0,-97,-39,-58,-48,-9
-48,-29,19,39,-34,-4,0,-97,-39,-58,-48,-9
-48,-29,19,39,-34,-4,0,-97,-39,-58,-48,-9
-58,-29,29,43,-43,0,0,-87,-48,-68,-48,-4
-53,-24,29,39,-41,2,0,-82,-43,-68,-48,-4
-53,-24,29,39,-41,2,0,-82,-43,-63,-48,-4
-53,-19,34,36,-43,7,0,-82,-43,-63,-43,-4
-43,-4,39,24,-41,17,0,-82,-24,-58,-43,-4
-43,0,43,21,-43,21,0,-82,-19,-53,-34,4
-34,9,43,12,-39,26,0,-82,-14,-43,-29,9
-29,19,48,4,-39,34,0,-78,-9,-39,-24,19
-19,24,43,-2,-31,34,-9,-78,0,-19,-14,24
-14,39,53,-12,-34,46,-19,-82,4,-14,-9,29
-14,43,58,-14,-36,51,-29,-87,9,-9,-4,34
-14,53,68,-19,-41,61,-34,-92,14,-4,0,39
-14,48,63,-17,-39,56,-24,-97,9,-14,0,29
-9,48,58,-19,-34,53,-24,-97,4,-14,-4,29
-9,48,58,-19,-34,53,-24,-92,-4,-14,-9,29
0,39,39,-19,-19,39,-24,-92,-14,-19,-14,29
14,48,34,-31,-9,41,-24,-92,-14,-24,-9,39
19,68,48,-43,-14,58,-29,-92,-14,-19,-4,43
24,82,58,-53,-17,70,-29,-87,-9,-9,0,53
29,92,63,-61,-17,78,-34,-82,4,0,4,58
48,92,43,-70,2,68,-34,-68,14,9,19,53
53,92,39,-73,7,65,-34,-63,19,9,19,53
58,92,34,-75,12,63,-29,-58,19,14,19,53
58,92,34,-75,12,63,-29,-53,19,14,24,58
48,73,24,-61,12,48,-19,-39,9,4,19,48
48,58,9,-53,19,34,-19,-39,9,0,9,43
48,43,-4,-46,26,19,-19,-39,9,-4,4,43
48,34,-14,-41,31,9,-14,-39,9,-9,0,48
29,29,0,-29,14,14,-19,-48,0,0,9,58
24,19,-4,-21,14,7,-14,-39,-9,0,9,58
19,14,-4,-17,12,4,-14,-48,-14,-4,9,48
9,4,-4,-7,7,0,-19,-58,-24,-14,0,39
-19,-9,9,14,-14,0,-19,-78,-39,-39,-9,19
-24,-19,4,21,-14,-7,-19,-92,-48,-43,-24,14
-39,-19,19,29,-29,0,-19,-92,-48,-43,-24,14
-43,-19,24,31,-34,2,-14,-92,-39,-39,-24,14
-53,-34,19,43,-36,-7,4,-82,-29,-43,-29,-4
-58,-39,19,48,-39,-9,4,-87,-34,-58,-39,-9
-58,-48,9,53,-34,-19,4,-87,-43,-78,-58,-14
-68,-58,9,63,-39,-24,9,-87,-48,-82,-63,-19
-68,-63,4,65,-36,-29,0,-97,-63,-87,-68,-24
-68,-63,4,65,-36,-29,0,-97,-68,-87,-73,-34
-68,-63,4,65,-36,-29,0,-97,-68,-82,-73,-34
-73,-63,9,68,-41,-26,4,-97,-68,-78,-73,-29
-63,-63,0,63,-31,-31,4,-97,-58,-78,-63,-19
-63,-63,0,63,-31,-31,4,-97,-58,-73,-63,-19
-63,-58,4,61,-34,-26,4,-97,-58,-73,-63,-19
-63,-58,4,61,-34,-26,4,-97,-53,-73,-63,-19
-63,-58,4,61,-34,-26,4,-97,-53,-73,-53,-19
-63,-58,4,61,-34,-26,4,-97,-53,-73,-53,-19
-63,-58,4,61,-34,-26,4,-97,-53,-73,-53,-19
-63,-58,4,61,-34,-26,9,-97,-53,-73,-53,-19
-73,-58,14,65,-43,-21,9,-97,-53,-73,-53,-19
-78,-58,19,68,-48,-19,9,-92,-53,-73,-53,-19
-78,-58,19,68,-48,-19,9,-92,-53,-73,-53,-19
-73,-58,14,65,-43,-21,9,-92,-53,-73,-53,-19
-63,-63,0,63,-31,-31,9,-92,-53,-63,-53,-29
-63,-63,0,63,-31,-31,9,-92,-53,-63,-53,-29
-68,-58,9,63,-39,-24,9,-92,-53,-63,-53,-29
-68,-58,9,63,-39,-24,9,-92,-48,-63,-53,-29
-78,-58,19,68,-48,-19,9,-92,-58,-73,-63,-19
-78,-58,19,68,-48,-19,9,-92,-58,-68,-63,-19
-78,-58,19,68,-48,-19,14,-92,-48,-68,-63,-19
-78,-58,19,68,-48,-19,14,-92,-58,-68,-63,-19
-78,-48,29,63,-53,-9,4,-92,-58,-68,-53,-29
-78,-48,29,63,-53,-9,4,-92,-58,-68,-53,-24
-78,-48,29,63,-53,-9,4,-92,-58,-73,-53,-24
-78,-53,24,65,-51,-14,4,-92,-58,-73,-53,-24
-78,-53,24,65,-51,-14,4,-92,-48,-53,-48,-24
-78,-53,24,65,-51,-14,9,-87,-34,-48,-39,-14
-78,-53,24,65,-51,-14,9,-82,-24,-48,-34,-14
-68,-39,29,53,-48,-4,19,-82,-14,-43,-29,-14
-73,-29,43,51,-58,7,29,-68,-4,-29,-24,-4
-73,-24,48,48,-61,12,39,-53,19,-4,-9,9
-73,-24,48,48,-61,12,24,-53,39,4,0,24
-63,-14,48,39,-56,17,4,-73,48,24,24,34
-48,-4,43,26,-46,19,-9,-78,48,53,53,58
-19,0,19,9,-19,9,-19,-48,58,78,82,87
14,0,-14,-7,14,-7,-19,14,73,102,102,102
58,-9,-68,-24,63,-39,-19,78,92,136,126,112
126,-9,-136,-58,131,-73,-19,161,136,175,161,141
219,0,-219,-109,219,-109,-29,273,190,234,195,165
331,24,-307,-178,319,-141,-48,380,253,297,248,204
439,87,-351,-263,395,-131,-92,419,322,385,331,278
551,180,-370,-366,461,-95,-156,400,395,463,414,361
644,292,-351,-468,497,-29,-229,361,458,551,497,429
732,385,-346,-558,539,19,-297,292,502,614,570,502
785,439,-346,-612,566,46,-351,209,463,610,570,522
795,390,-405,-592,600,-7,-375,161,307,458,444,429
790,287,-502,-539,646,-107,-380,136,82,244,258,278
785,239,-546,-512,666,-153,-395,43,-126,78,141,190
727,209,-517,-468,622,-153,-419,-131,-292,-29,68,136
605,165,-439,-385,522,-136,-419,-341,-439,-136,-14,87
488,141,-346,-314,417,-102,-424,-570,-556,-219,-78,39
370,126,-244,-248,307,-58,-434,-780,-610,-263,-102,29
219,131,-87,-175,153,21,-419,-932,-614,-278,-117,29
87,107,19,-97,34,63,-370,-980,-600,-297,-131,4
14,78,63,-46,-24,70,-326,-966,-580,-317,-156,-24
-29,34,63,-2,-46,48,-302,-897,-570,-326,-175,-58
-78,9,87,34,-82,48,-273,-839,-551,-331,-200,-92
-107,-19,87,63,-97,34,-244,-780,-541,-356,-224,-117
-97,-48,48,73,-73,0,-219,-688,-522,-356,-234,-131
-97,-82,14,90,-56,-34,-185,-595,-497,-356,-239,-146
-97,-102,-4,100,-46,-53,-156,-522,-463,-336,-239,-151
-87,-102,-14,95,-36,-58,-136,-448,-424,-322,-224,-136
-63,-87,-24,75,-19,-56,-126,-380,-366,-283,-190,-112
-58,-73,-14,65,-21,-43,-107,-312,-297,-229,-156,-87
-63,-68,-4,65,-29,-36,-92,-253,-244,-200,-131,-78
-48,-58,-9,53,-19,-34,-78,-209,-200,-156,-102,-48
-53,-58,-4,56,-24,-31,-48,-161,-156,-122,-78,-29
-48,-39,9,43,-29,-14,-34,-131,-126,-102,-63,-14
-34,-24,9,29,-21,-7,-39,-112,-107,-82,-43,-9
-24,-19,4,21,-14,-7,-34,-87,-87,-68,-39,-9
-34,-19,14,26,-24,-2,-29,-73,-73,-63,-29,-4
-43,-19,24,31,-34,2,-9,-63,-68,-58,-29,0
-48,-19,29,34,-39,4,-14,-58,-63,-58,-29,0
-48,-19,29,34,-39,4,-14,-48,-58,-53,-29,0
-48,-24,24,36,-36,0,-4,-48,-58,-53,-29,0
-48,-24,24,36,-36,0,-4,-43,-53,-53,-29,0
-39,-24,14,31,-26,-4,0,-29,-63,-53,-29,0
-43,-24,19,34,-31,-2,0,-29,-58,-53,-29,0
-43,-24,19,34,-31,-2,4,-24,-58,-48,-29,0
-43,-29,14,36,-29,-7,4,-19,-48,-48,-29,0
-48,-39,9,43,-29,-14,-4,-14,-39,-39,-29,4
-48,-39,9,43,-29,-14,0,-14,-39,-39,-24,4
-48,-39,9,43,-29,-14,0,-14,-39,-39,-24,4
-53,-34,19,43,-36,-7,0,-14,-39,-34,-24,4
-53,-34,19,43,-36,-7,9,-9,-48,-39,-24,0
-53,-39,14,46,-34,-12,9,-9,-48,-39,-24,0
-53,-39,14,46,-34,-12,9,-9,-43,-39,-19,-4
-48,-39,9,43,-29,-14,9,-4,-43,-39,-19,-4
-48,-39,9,43,-29,-14,0,-4,-34,-29,-19,0
-48,-39,9,43,-29,-14,0,-4,-29,-29,-19,0
-48,-39,9,43,-29,-14,0,0,-29,-29,-19,0
-48,-39,9,43,-29,-14,0,0,-29,-29,-19,0
-39,-29,9,34,-24,-9,0,0,-29,-29,-19,0
-39,-29,9,34,-24,-9,0,0,-29,-29,-19,4
-39,-29,9,34,-24,-9,0,0,-29,-24,-14,4
-39,-29,9,34,-24,-9,0,4,-29,-24,-14,4
-39,-29,9,34,-24,-9,4,9,-34,-34,-14,14
-39,-24,14,31,-26,-4,4,14,-29,-34,-14,14
-34,-24,9,29,-21,-7,0,14,-29,-29,-14,14
-34,-29,4,31,-19,-12,0,19,-29,-29,-14,14
-43,-29,14,36,-29,-7,4,9,-24,-19,-4,14
-43,-29,14,36,-29,-7,9,9,-24,-19,-4,14
-43,-29,14,36,-29,-7,9,19,-24,-19,0,14
-43,-29,14,36,-29,-7,9,19,-24,-19,0,14
-43,-39,4,41,-24,-17,19,29,-9,-9,0,24
-39,-39,0,39,-19,-19,19,34,-4,-9,0,24
-39,-39,0,39,-19,-19,19,34,-4,-9,0,24
-39,-39,0,39,-19,-19,14,34,-4,-9,0,24
-39,-48,-9,43,-14,-29,24,34,-14,-19,-9,19
-39,-48,-9,43,-14,-29,29,34,-14,-19,-9,14
-34,-48,-14,41,-9,-31,29,43,-14,-14,-9,14
-34,-48,-14,41,-9,-31,29,43,-14,-14,-4,9
-34,-39,-4,36,-14,-21,19,53,-14,-24,-4,9
-34,-34,0,34,-17,-17,19,53,-14,-19,-4,9
-34,-34,0,34,-17,-17,19,58,-9,-19,0,9
-34,-29,4,31,-19,-12,14,58,-9,-14,0,9
-29,-19,9,24,-19,-4,4,48,-9,-4,0,9
-24,-19,4,21,-14,-7,4,58,0,-4,0,14
-24,-19,4,21,-14,-7,4,68,4,-4,0,14
-24,-19,4,21,-14,-7,4,73,9,0,4,14
-19,-19,0,19,-9,-9,14,73,0,0,14,14
-19,-19,0,19,-9,-9,14,78,0,0,14,19
-19,-19,0,19,-9,-9,14,82,0,0,14,19
-14,-14,0,14,-7,-7,14,82,0,4,14,19
-9,-24,-14,17,2,-19,19,82,4,19,9,19
-9,-24,-14,17,2,-19,19,92,14,24,19,24
-9,-19,-9,14,0,-14,14,97,19,29,24,24
-4,-19,-14,12,4,-17,14,102,19,34,24,29
-4,-19,-14,12,4,-17,14,112,19,24,24,34
0,-14,-14,7,7,-14,14,122,29,29,24,34
0,-14,-14,7,7,-14,14,131,29,34,34,34
0,-14,-14,7,7,-14,14,131,29,34,34,34
4,-14,-19,4,12,-17,14,136,39,24,34,34
14,-9,-24,-2,19,-17,14,141,43,29,34,34
19,-9,-29,-4,24,-19,19,156,43,34,39,39
24,-4,-29,-9,26,-17,19,161,53,39,43,43
34,4,-29,-19,31,-12,9,165,58,43,48,43
39,4,-34,-21,36,-14,9,175,58,48,48,48
39,0,-39,-19,39,-19,14,190,63,53,53,48
39,0,-39,-19,39,-19,14,200,68,58,58,48
43,0,-43,-21,43,-21,9,195,73,58,58,53
48,9,-39,-29,43,-14,9,204,78,63,63,53
58,19,-39,-39,48,-9,14,214,82,73,68,63
58,19,-39,-39,48,-9,14,219,92,78,73,63
58,4,-53,-31,56,-24,24,239,92,82,78,68
63,4,-58,-34,61,-26,24,248,102,87,82,73
68,9,-58,-39,63,-24,24,258,107,92,82,78
73,19,-53,-46,63,-17,24,268,112,97,87,78
82,19,-63,-51,73,-21,14,278,122,117,102,82
87,19,-68,-53,78,-24,19,287,131,122,107,82
92,24,-68,-58,80,-21,19,297,136,122,112,87
97,29,-68,-63,82,-19,14,307,141,126,117,92
112,43,-68,-78,90,-12,4,312,146,141,122,97
117,48,-68,-82,92,-9,4,322,146,146,126,107
122,53,-68,-87,95,-7,4,331,161,156,136,107
126,63,-63,-95,95,0,4,331,175,161,136,107
122,63,-58,-92,90,2,14,351,175,165,131,112
126,63,-63,-95,95,0,14,361,180,170,136,112
136,63,-73,-100,104,-4,14,366,190,175,136,117
146,68,-78,-107,112,-4,14,375,200,175,141,122
151,63,-87,-107,119,-12,14,395,195,180,156,122
151,63,-87,-107,119,-12,14,400,204,185,156,126
156,68,-87,-112,122,-9,19,405,209,190,161,126
161,78,-82,-119,122,-2,19,414,219,195,170,126
175,78,-97,-126,136,-9,19,424,214,200,165,136
180,82,-97,-131,139,-7,19,424,219,204,170,141
185,82,-102,-134,143,-9,19,429,224,209,175,146
185,82,-102,-134,143,-9,14,439,229,214,180,146
190,97,-92,-143,141,2,0,439,234,219,195,161
195,102,-92,-148,143,4,0,439,239,224,200,165
200,102,-97,-151,148,2,-4,439,244,234,200,170
200,102,-97,-151,148,2,-4,439,244,239,200,175
200,102,-97,-151,148,2,4,444,253,244,209,165
204,107,-97,-156,151,4,0,434,253,244,209,170
204,107,-97,-156,151,4,0,429,253,244,214,175
200,112,-87,-156,143,12,0,414,253,244,219,175
200,107,-92,-153,146,7,-4,385,253,239,209,165
195,107,-87,-151,141,9,-9,370,244,239,209,170
190,112,-78,-151,134,17,-14,356,239,239,209,170
180,112,-68,-146,124,21,-14,331,229,239,209,175
161,112,-48,-136,104,31,-14,307,224,239,219,175
156,112,-43,-134,100,34,-14,292,219,239,209,170
146,112,-34,-129,90,39,-14,273,209,229,200,165
136,107,-29,-122,82,39,-19,244,200,219,195,161
117,97,-19,-107,68,39,-19,209,185,200,180,156
107,97,-9,-102,58,43,-19,195,175,185,175,146
97,97,0,-97,48,48,-19,170,165,175,165,141
87,87,0,-87,43,43,-19,151,161,161,156,136
68,78,9,-73,29,43,-19,141,136,141,136,122
63,63,0,-63,31,31,-19,122,126,136,126,112
53,53,0,-53,26,26,-19,102,107,122,117,107
43,43,0,-43,21,21,-19,87,97,107,107,97
24,43,19,-34,2,31,-9,68,82,102,102,87
14,34,19,-24,-2,26,-9,48,78,92,87,78
0,34,34,-17,-17,34,-4,34,68,78,78,73
-9,29,39,-9,-24,34,-4,24,48,68,73,58
-9,24,34,-7,-21,29,0,19,48,63,73,53
-14,14,29,0,-21,21,0,9,43,58,63,48
-24,9,34,7,-29,21,0,0,39,43,53,39
-34,9,43,12,-39,26,0,-9,39,39,43,29
-34,-14,19,24,-26,2,4,-9,19,19,34,19
-39,-14,24,26,-31,4,4,-19,19,9,29,14
-43,-19,24,31,-34,2,4,-19,14,9,19,14
-48,-24,24,36,-36,0,4,-24,9,0,14,9
-53,-29,24,41,-39,-2,4,-29,9,4,9,9
-58,-29,29,43,-43,0,4,-34,4,0,4,9
-63,-29,34,46,-48,2,9,-34,0,-4,4,9
-73,-39,34,56,-53,-2,9,-39,-4,-9,4,4
-68,-29,39,48,-53,4,9,-43,-14,-9,4,0
-73,-29,43,51,-58,7,4,-43,-14,-9,4,-4
-73,-29,43,51,-58,7,4,-39,-14,-9,4,-4
-73,-34,39,53,-56,2,9,-39,-14,-14,-4,-4
-63,-29,34,46,-48,2,19,-34,-9,-9,4,-4
-63,-34,29,48,-46,-2,19,-39,-14,-14,4,-4
-63,-34,29,48,-46,-2,19,-39,-19,-24,4,-4
-63,-34,29,48,-46,-2,19,-43,-19,-14,4,-4
-73,-43,29,58,-51,-7,19,-43,-19,-4,-4,-4
-73,-43,29,58,-51,-7,19,-43,-19,-4,-4,-4
-73,-43,29,58,-51,-7,19,-43,-24,-9,-4,-4
-78,-48,29,63,-53,-9,19,-43,-24,-9,-9,-9
-78,-48,29,63,-53,-9,19,-43,-24,-19,-9,-9
-78,-48,29,63,-53,-9,24,-43,-24,-19,-9,-9
-78,-48,29,63,-53,-9,24,-43,-24,-19,-9,-9
-78,-43,34,61,-56,-4,19,-43,-29,-19,-9,-9
-68,-43,24,56,-46,-9,19,-43,-29,-14,-9,-4
-73,-43,29,58,-51,-7,19,-48,-29,-14,-9,-4
-73,-43,29,58,-51,-7,19,-48,-29,-14,-9,-4
-68,-43,24,56,-46,-9,19,-48,-29,-14,-9,-4
-73,-43,29,58,-51,-7,19,-39,-14,-24,-9,-14
-73,-48,24,61,-48,-12,19,-39,-14,-24,-9,-14
-78,-48,29,63,-53,-9,19,-34,-14,-24,-9,-14
-78,-48,29,63,-53,-9,24,-34,-14,-24,-14,-14
-78,-48,29,63,-53,-9,14,-43,-24,-24,-4,-14
-78,-48,29,63,-53,-9,9,-43,-29,-29,-4,-14
-78,-48,29,63,-53,-9,9,-48,-29,-29,-4,-14
-78,-48,29,63,-53,-9,9,-48,-29,-24,-4,-14
-68,-39,29,53,-48,-4,9,-48,-19,-24,-4,-14
-68,-39,29,53,-48,-4,14,-48,-19,-24,-4,-14
-68,-39,29,53,-48,-4,14,-48,-19,-24,0,-14
-73,-39,34,56,-53,-2,9,-48,-19,-24,0,-14
-73,-29,43,51,-58,7,9,-43,-29,-14,0,-14
-73,-29,43,51,-58,7,14,-43,-29,-14,-4,-14
-73,-29,43,51,-58,7,14,-48,-29,-14,-4,-14
-73,-29,43,51,-58,7,9,-48,-29,-19,-4,-14
-82,-34,48,58,-65,7,14,-39,-29,-24,-9,-24
-82,-39,43,61,-63,2,19,-39,-29,-29,-14,-24
-78,-43,34,61,-56,-4,24,-39,-29,-34,-19,-24
-78,-48,29,63,-53,-9,29,-39,-29,-39,-24,-24
-73,-53,19,63,-46,-17,19,-48,-29,-29,-14,-14
-73,-53,19,63,-46,-17,19,-43,-29,-29,-14,-14
-68,-48,19,58,-43,-14,19,-43,-29,-29,-14,-14
-68,-48,19,58,-43,-14,19,-43,-29,-29,-14,-14
-78,-48,29,63,-53,-9,19,-34,-29,-29,-14,-9
-78,-48,29,63,-53,-9,19,-34,-29,-29,-14,-9
-78,-48,29,63,-53,-9,19,-39,-29,-29,-14,-14
-82,-53,29,68,-56,-12,19,-39,-29,-29,-14,-14
-82,-43,39,63,-61,-2,19,-48,-39,-29,-4,-14
-82,-43,39,63,-61,-2,19,-48,-39,-29,-9,-19
-82,-43,39,63,-61,-2,19,-48,-39,-34,-9,-19
-82,-43,39,63,-61,-2,19,-48,-43,-34,-4,-19
-82,-39,43,61,-63,2,19,-48,-34,-29,-14,-19
-78,-39,39,58,-58,0,19,-48,-34,-29,-14,-19
-78,-39,39,58,-58,0,19,-48,-29,-29,-9,-14
-78,-39,39,58,-58,0,19,-48,-29,-29,-9,-14
-78,-29,48,53,-63,9,9,-53,-19,-29,-4,-14
-78,-29,48,53,-63,9,9,-53,-19,-29,-4,-14
-82,-29,53,56,-68,12,9,-58,-19,-29,-4,-14
-82,-29,53,56,-68,12,9,-58,-19,-29,-4,-14
-82,-39,43,61,-63,2,9,-48,-29,-29,-14,-9
-82,-43,39,63,-61,-2,9,-48,-29,-29,-14,-9
-82,-43,39,63,-61,-2,9,-48,-29,-29,-14,-9
-82,-43,39,63,-61,-2,9,-48,-29,-29,-14,-9
-82,-34,48,58,-65,7,19,-48,-34,-19,-4,-9
-82,-34,48,58,-65,7,19,-53,-34,-19,-4,-9
-82,-29,53,56,-68,12,19,-53,-34,-19,-4,-9
-82,-24,58,53,-70,17,19,-53,-34,-19,-4,-4
-82,-29,53,56,-68,12,29,-43,-19,-29,-14,-9
-82,-34,48,58,-65,7,29,-39,-19,-29,-14,-14
-82,-48,34,65,-58,-7,29,-39,-19,-29,-14,-24
-82,-53,29,68,-56,-12,29,-39,-19,-29,-19,-29
-82,-43,39,63,-61,-2,29,-48,-24,-34,-19,-19
-82,-43,39,63,-61,-2,29,-48,-29,-34,-19,-19
-82,-48,34,65,-58,-7,29,-53,-29,-34,-19,-24
-82,-48,34,65,-58,-7,29,-53,-29,-34,-19,-24
-87,-48,39,68,-63,-4,19,-53,-29,-24,-9,-24
-87,-48,39,68,-63,-4,19,-53,-29,-34,-9,-24
-82,-48,34,65,-58,-7,19,-53,-29,-34,-14,-24
-82,-43,39,63,-61,-2,19,-53,-29,-29,-14,-24
-92,-48,43,70,-68,-2,29,-53,-29,-39,-24,-24
-92,-53,39,73,-65,-7,29,-53,-29,-39,-24,-24
-92,-58,34,75,-63,-12,29,-53,-29,-39,-24,-24
-92,-63,29,78,-61,-17,29,-53,-29,-39,-24,-24
-82,-53,29,68,-56,-12,19,-53,-34,-39,-24,-24
-82,-63,19,73,-51,-21,19,-53,-39,-39,-24,-24
-87,-63,24,75,-56,-19,19,-53,-48,-43,-24,-29
-87,-63,24,75,-56,-19,19,-53,-53,-43,-24,-29
-87,-53,34,70,-61,-9,19,-53,-43,-34,-24,-29
-87,-48,39,68,-63,-4,19,-58,-39,-29,-19,-24
-82,-48,34,65,-58,-7,19,-58,-39,-29,-19,-24
-82,-48,34,65,-58,-7,19,-58,-39,-29,-24,-29
-82,-39,43,61,-63,2,19,-58,-39,-34,-14,-29
-87,-39,48,63,-68,4,19,-58,-39,-34,-19,-29
-87,-39,48,63,-68,4,19,-58,-43,-34,-19,-29
-87,-34,53,61,-70,9,19,-58,-43,-34,-19,-29
-87,-43,43,65,-65,0,29,-58,-48,-34,-19,-29
-87,-43,43,65,-65,0,29,-58,-48,-34,-14,-29
-87,-43,43,65,-65,0,29,-58,-43,-34,-14,-29
-87,-43,43,65,-65,0,29,-63,-43,-34,-14,-29
-87,-43,43,65,-65,0,19,-63,-53,-24,-14,-19
-87,-48,39,68,-63,-4,19,-63,-53,-24,-14,-19
-87,-48,39,68,-63,-4,19,-63,-53,-24,-14,-19
-87,-48,39,68,-63,-4,19,-63,-53,-24,-14,-19
-78,-48,29,63,-53,-9,19,-53,-48,-24,-14,-19
-78,-48,29,63,-53,-9,19,-53,-43,-24,-19,-19
-78,-48,29,63,-53,-9,19,-53,-39,-24,-19,-19
-82,-53,29,68,-56,-12,19,-53,-34,-29,-24,-29
-82,-53,29,68,-56,-12,29,-58,-48,-39,-34,-39
-82,-53,29,68,-56,-12,29,-58,-48,-39,-29,-39
-82,-53,29,68,-56,-12,29,-58,-48,-39,-29,-39
-82,-53,29,68,-56,-12,29,-58,-48,-39,-29,-34
-92,-63,29,78,-61,-17,29,-58,-48,-29,-19,-34
-92,-63,29,78,-61,-17,34,-58,-48,-29,-19,-34
-92,-63,29,78,-61,-17,34,-58,-48,-29,-19,-34
-92,-63,29,78,-61,-17,29,-58,-48,-29,-19,-34
-92,-53,39,73,-65,-7,29,-58,-48,-19,-19,-34
-92,-53,39,73,-65,-7,29,-58,-48,-19,-29,-34
-92,-53,39,73,-65,-7,29,-58,-48,-19,-19,-34
-92,-53,39,73,-65,-7,29,-58,-48,-19,-19,-34
-92,-53,39,73,-65,-7,29,-68,-48,-34,-29,-39
-92,-53,39,73,-65,-7,29,-68,-48,-39,-34,-39
-92,-53,39,73,-65,-7,29,-68,-48,-43,-39,-39
-92,-53,39,73,-65,-7,29,-68,-53,-48,-43,-39
-82,-53,29,68,-56,-12,19,-58,-43,-43,-34,-29
-82,-53,29,68,-56,-12,9,-58,-39,-39,-34,-29
-82,-53,29,68,-56,-12,19,-58,-39,-34,-34,-29
-87,-53,34,70,-61,-9,19,-58,-43,-34,-29,-29
-87,-53,34,70,-61,-9,29,-68,-43,-43,-29,-29
-87,-53,34,70,-61,-9,24,-68,-43,-43,-34,-29
-82,-53,29,68,-56,-12,24,-68,-43,-39,-34,-29
-82,-53,29,68,-56,-12,24,-73,-43,-39,-29,-29
-92,-58,34,75,-63,-12,24,-73,-53,-39,-39,-34
-92,-58,34,75,-63,-12,24,-73,-53,-39,-39,-34
-92,-58,34,75,-63,-12,29,-68,-53,-43,-39,-34
-92,-63,29,78,-61,-17,29,-68,-53,-43,-39,-39
-97,-73,24,85,-61,-24,29,-68,-53,-39,-43,-29
-97,-73,24,85,-61,-24,29,-73,-53,-34,-39,-29
-97,-73,24,85,-61,-24,29,-73,-53,-34,-29,-34
-97,-78,19,87,-58,-29,29,-73,-53,-29,-24,-34
-87,-68,19,78,-53,-24,39,-63,-53,-39,-43,-34
-78,-63,14,70,-46,-24,24,-63,-53,-48,-53,-43
-87,-63,24,75,-56,-19,24,-73,-53,-48,-43,-43
-87,-53,34,70,-61,-9,24,-73,-53,-43,-34,-39
-78,-48,29,63,-53,-9,19,-68,-68,-39,-39,-39
-68,-48,19,58,-43,-14,19,-68,-58,-29,-29,-29
-68,-48,19,58,-43,-14,19,-68,-58,-29,-29,-29
-68,-48,19,58,-43,-14,19,-68,-58,-29,-29,-29
-68,-48,19,58,-43,-14,19,-68,-58,-29,-29,-29
-78,-48,29,63,-53,-9,19,-68,-48,-29,-29,-24
-73,-43,29,58,-51,-7,19,-63,-43,-29,-29,-24
-73,-43,29,58,-51,-7,19,-63,-43,-24,-29,-24
-73,-39,34,56,-53,-2,19,-63,-43,-24,-24,-24
-73,-34,39,53,-56,2,29,-53,-24,-19,-14,-24
-73,-29,43,51,-58,7,29,-53,-19,-14,-4,-14
-63,-19,43,41,-53,12,29,-53,-14,-4,0,-9
-58,-9,48,34,-53,19,29,-48,-9,0,4,0
-48,14,63,17,-56,39,19,-58,-9,9,14,4
-43,29,73,7,-58,51,9,-63,-4,14,19,9
-43,34,78,4,-61,56,0,-68,0,19,24,14
-43,43,87,0,-65,65,-4,-73,4,24,29,19
-43,39,82,2,-63,61,4,-78,4,24,24,19
-39,39,78,0,-58,58,4,-78,4,24,24,19
-39,39,78,0,-58,58,4,-73,0,24,24,19
-29,29,58,0,-43,43,4,-73,-4,19,24,19
-24,29,53,-2,-39,41,14,-73,-9,19,24,14
-19,39,58,-9,-39,48,9,-73,-14,19,24,14
-14,43,58,-14,-36,51,9,-68,-14,24,24,19
-9,43,53,-17,-31,48,4,-63,-4,29,24,19
-9,53,63,-21,-36,58,4,-58,4,29,29,34
-4,53,58,-24,-31,56,4,-53,9,29,29,34
0,53,53,-26,-26,53,9,-48,9,34,29,34
0,53,53,-26,-26,53,9,-43,9,34,34,39
0,48,48,-24,-24,48,9,-29,9,29,43,29
0,39,39,-19,-19,39,9,-29,9,29,39,24
0,29,29,-14,-14,29,9,-29,9,29,39,24
0,24,24,-12,-12,24,14,-29,9,29,39,29
-9,9,19,0,-14,14,19,-19,9,29,29,39
-14,0,14,7,-14,7,24,-9,0,29,29,39
-19,-4,14,12,-17,4,24,-19,-4,24,29,29
-29,-14,14,21,-21,0,19,-29,-14,14,19,19
-58,-19,39,39,-48,9,9,-43,-39,0,9,0
-63,-29,34,46,-48,2,9,-63,-48,-4,-4,-4
-78,-29,48,53,-63,9,9,-68,-48,-4,-4,-4
-82,-29,53,56,-68,12,14,-73,-39,0,-4,-4
-82,-24,58,53,-70,17,24,-73,-39,-9,-14,-14
-87,-29,58,58,-73,14,24,-78,-43,-19,-19,-19
-87,-39,48,63,-68,4,24,-78,-53,-34,-34,-24
-97,-48,48,73,-73,0,29,-78,-58,-34,-34,-29
-97,-58,39,78,-68,-9,29,-68,-63,-43,-39,-34
-97,-63,34,80,-65,-14,29,-68,-68,-48,-43,-43
-97,-68,29,82,-63,-19,29,-68,-68,-48,-43,-43
-102,-73,29,87,-65,-21,34,-68,-68,-48,-43,-39
-102,-82,19,92,-61,-31,34,-68,-68,-39,-34,-39
-102,-82,19,92,-61,-31,34,-68,-68,-34,-34,-39
-102,-78,24,90,-63,-26,34,-68,-68,-34,-34,-39
-102,-78,24,90,-63,-26,34,-68,-63,-34,-34,-39
-102,-87,14,95,-58,-36,43,-68,-63,-43,-34,-39
-102,-87,14,95,-58,-36,43,-68,-63,-43,-34,-39
-102,-87,14,95,-58,-36,43,-68,-63,-43,-34,-39
-102,-87,14,95,-58,-36,48,-68,-63,-43,-34,-39
-112,-87,24,100,-68,-31,48,-68,-53,-43,-43,-48
-117,-87,29,102,-73,-29,48,-63,-53,-43,-43,-48
-117,-87,29,102,-73,-29,48,-63,-53,-43,-43,-48
-112,-87,24,100,-68,-31,48,-63,-53,-43,-43,-48
-102,-82,19,92,-61,-31,58,-63,-63,-34,-34,-39
-102,-82,19,92,-61,-31,58,-63,-63,-34,-34,-39
-107,-78,29,92,-68,-24,58,-63,-63,-34,-34,-39
-107,-78,29,92,-68,-24,58,-63,-58,-34,-34,-39
-107,-78,29,92,-68,-24,48,-63,-58,-34,-34,-39
-107,-78,29,92,-68,-24,48,-63,-58,-29,-34,-39
-107,-78,29,92,-68,-24,53,-63,-48,-29,-34,-39
-107,-78,29,92,-68,-24,53,-63,-58,-29,-34,-39
-97,-78,19,87,-58,-29,48,-63,-58,-39,-43,-39
-97,-78,19,87,-58,-29,43,-63,-58,-39,-43,-34
-97,-78,19,87,-58,-29,39,-63,-58,-43,-43,-34
-97,-82,14,90,-56,-34,34,-63,-58,-43,-43,-34
-107,-73,34,90,-70,-19,53,-53,-48,-34,-39,-24
-117,-82,34,100,-75,-24,58,-48,-43,-29,-29,-34
-117,-82,34,100,-75,-24,48,-53,-43,-19,-24,-34
-107,-78,29,92,-68,-24,48,-53,-34,-14,-19,-24
-112,-58,53,85,-82,-2,68,-29,-4,0,-4,-14
-112,-63,48,87,-80,-7,68,-24,9,4,0,-9
-102,-53,48,78,-75,-2,53,-34,29,24,9,4
-92,-34,58,63,-75,12,53,-43,48,63,43,34
-68,-24,43,46,-56,9,29,-48,58,102,73,58
-39,-19,19,29,-29,0,0,-39,68,126,112,78
-14,-29,-14,21,0,-21,0,4,92,161,131,102
19,-48,-68,14,43,-58,19,87,122,195,165,122
78,-58,-136,-9,107,-97,19,161,146,234,200,141
161,-48,-209,-56,185,-129,9,253,200,292,244,175
253,-14,-268,-119,261,-141,0,361,273,366,307,224
351,39,-312,-195,331,-136,-34,419,361,453,380,297
453,122,-331,-287,392,-104,-87,429,444,551,483,390
546,234,-312,-390,429,-39,-151,419,536,668,585,488
634,356,-278,-495,456,39,-209,370,629,761,688,580
688,439,-248,-563,468,95,-273,287,629,775,707,619
688,409,-278,-549,483,65,-287,239,492,663,610,546
673,336,-336,-505,505,0,-292,224,278,458,444,414
678,278,-400,-478,539,-61,-326,141,58,292,307,317
629,248,-380,-439,505,-65,-361,-14,-146,156,214,253
536,204,-331,-370,434,-63,-370,-224,-331,29,131,185
419,170,-248,-295,334,-39,-375,-444,-478,-82,48,126
302,165,-136,-234,219,14,-385,-644,-561,-146,-4,97
161,151,-9,-156,85,70,-351,-785,-595,-180,-29,78
19,117,97,-68,-39,107,-302,-844,-590,-209,-63,43
-53,68,122,-7,-87,95,-268,-829,-590,-248,-117,-14
-78,14,92,31,-85,53,-244,-771,-590,-287,-156,-68
-117,-29,87,73,-102,29,-204,-712,-570,-312,-190,-112
-146,-97,48,122,-97,-24,-185,-653,-561,-336,-224,-146
-126,-126,0,126,-63,-63,-170,-590,-561,-366,-253,-170
-126,-141,-14,134,-56,-78,-146,-507,-546,-375,-268,-185
-126,-161,-34,143,-46,-97,-117,-444,-512,-356,-268,-190
-117,-161,-43,139,-36,-102,-97,-400,-463,-331,-234,-165
-92,-146,-53,119,-19,-100,-78,-331,-405,-273,-190,-131
-87,-122,-34,104,-26,-78,-68,-273,-336,-219,-156,-117
-82,-97,-14,90,-34,-56,-63,-234,-283,-180,-131,-97
-78,-87,-9,82,-34,-48,-48,-190,-239,-146,-102,-78
-63,-78,-14,70,-24,-46,-48,-141,-195,-112,-78,-48
-58,-58,0,58,-29,-29,-24,-112,-146,-73,-53,-34
-43,-43,0,43,-21,-21,-9,-92,-117,-53,-34,-29
-53,-48,4,51,-29,-21,-4,-68,-97,-48,-19,-19
-63,-58,4,61,-34,-26,9,-53,-92,-43,-19,-14
-63,-48,14,56,-39,-17,19,-43,-78,-29,-19,-9
-58,-58,0,58,-29,-29,24,-29,-73,-19,-14,-9
-58,-58,0,58,-29,-29,24,-19,-68,-14,-9,-9
-58,-63,-4,61,-26,-34,34,-19,-68,-14,-4,-9
-58,-63,-4,61,-26,-34,34,-14,-63,-14,0,-9
-48,-63,-14,56,-17,-39,29,-19,-63,-14,-9,-9
-53,-63,-9,58,-21,-36,29,-19,-58,-14,-9,-9
-53,-63,-9,58,-21,-36,34,-14,-58,-9,-9,-9
-53,-68,-14,61,-19,-41,34,-9,-48,-9,-9,-9
-58,-68,-9,63,-24,-39,43,0,-58,-19,-19,-14
-58,-68,-9,63,-24,-39,48,4,-58,-19,-14,-14
-58,-68,-9,63,-24,-39,48,9,-58,-19,-14,-14
-63,-63,0,63,-31,-31,48,14,-58,-14,-14,-14
-63,-58,4,61,-34,-26,39,9,-53,-4,-4,0
-63,-58,4,61,-34,-26,39,9,-48,0,-4,0
-63,-53,9,58,-36,-21,39,9,-39,4,0,-4
-58,-48,9,53,-34,-19,39,14,-34,9,0,-4
-58,-48,9,53,-34,-19,39,14,-43,0,0,0
-58,-48,9,53,-34,-19,39,14,-39,0,0,0
-58,-48,9,53,-34,-19,39,19,-39,0,0,0
-58,-48,9,53,-34,-19,39,19,-39,0,0,0
-48,-58,-9,53,-19,-34,39,19,-39,-9,-9,-9
-48,-58,-9,53,-19,-34,39,19,-39,-9,-9,-4
-48,-58,-9,53,-19,-34,39,19,-39,-4,-4,-4
-48,-58,-9,53,-19,-34,39,24,-39,-4,-4,-4
-48,-58,-9,53,-19,-34,43,29,-43,-4,-4,-4
-48,-53,-4,51,-21,-29,43,34,-39,-4,-4,-4
-43,-53,-9,48,-17,-31,39,34,-39,0,-4,-4
-43,-58,-14,51,-14,-36,39,39,-39,0,-4,-4
-43,-48,-4,46,-19,-26,43,39,-34,9,4,4
-43,-48,-4,46,-19,-26,48,39,-34,9,4,4
-43,-48,-4,46,-19,-26,48,48,-34,9,9,4
-43,-48,-4,46,-19,-26,48,48,-34,9,9,4
-43,-48,-4,46,-19,-26,39,48,-39,9,9,4
-39,-48,-9,43,-14,-29,39,53,-34,9,9,4
-39,-48,-9,43,-14,-29,39,53,-34,9,9,4
-39,-48,-9,43,-14,-29,34,53,-34,9,9,4
-48,-48,0,48,-24,-24,43,53,-24,19,9,4
-48,-48,0,48,-24,-24,48,53,-24,19,9,4
-43,-48,-4,46,-19,-26,48,63,-24,24,9,9
-43,-48,-4,46,-19,-26,48,63,-24,24,14,9
-34,-58,-24,46,-4,-41,48,63,-24,14,4,9
-34,-53,-19,43,-7,-36,48,63,-24,19,4,9
-34,-53,-19,43,-7,-36,48,68,-19,19,9,9
-34,-48,-14,41,-9,-31,43,68,-19,24,9,9
-29,-39,-9,34,-9,-24,34,58,-19,24,19,19
-24,-39,-14,31,-4,-26,34,68,-9,24,19,24
-24,-39,-14,31,-4,-26,34,78,-4,24,19,24
-24,-39,-14,31,-4,-26,34,82,0,29,24,24
-19,-39,-19,29,0,-29,43,82,0,39,24,14
-19,-39,-19,29,0,-29,43,87,0,39,24,19
-19,-39,-19,29,0,-29,43,92,0,39,24,19
-14,-34,-19,24,2,-26,43,92,0,43,24,19
-9,-34,-24,21,7,-29,48,92,-4,39,19,19
-9,-34,-24,21,7,-29,48,102,4,43,29,24
-9,-29,-19,19,4,-24,43,107,9,48,34,24
-4,-29,-24,17,9,-26,43,112,9,53,34,29
-4,-19,-14,12,4,-17,34,112,9,53,43,34
0,-14,-14,7,7,-14,34,122,19,58,43,34
0,-14,-14,7,7,-14,34,131,19,63,53,34
0,-14,-14,7,7,-14,34,131,19,63,53,34
4,-14,-19,4,12,-17,43,136,39,63,53,43
14,-9,-24,-2,19,-17,43,141,43,68,53,43
19,-9,-29,-4,24,-19,48,156,43,73,58,48
24,-4,-29,-9,26,-17,48,161,53,78,63,53
24,-14,-39,-4,31,-26,48,165,58,82,58,43
29,-14,-43,-7,36,-29,48,175,58,87,58,48
29,-19,-48,-4,39,-34,53,190,63,92,63,48
29,-19,-48,-4,39,-34,53,200,68,97,68,48
43,-19,-63,-12,53,-41,48,214,73,97,78,53
48,-9,-58,-19,53,-34,48,224,78,102,82,53
58,0,-58,-29,58,-29,53,234,82,112,87,63
58,0,-58,-29,58,-29,53,239,92,117,92,63
58,4,-53,-31,56,-24,43,244,102,122,97,68
63,4,-58,-34,61,-26,43,248,112,126,102,73
68,9,-58,-39,63,-24,43,253,117,131,102,78
73,19,-53,-46,63,-17,43,258,122,136,107,78
73,19,-53,-46,63,-17,53,278,141,146,112,92
78,19,-58,-48,68,-19,58,287,151,151,117,92
82,24,-58,-53,70,-17,58,297,156,151,122,97
87,29,-58,-58,73,-14,53,307,161,156,126,102
92,29,-63,-61,78,-17,53,312,156,170,131,107
97,29,-68,-63,82,-19,53,322,156,175,136,117
102,29,-73,-65,87,-21,53,331,170,185,146,117
107,34,-73,-70,90,-19,53,331,185,190,146,117
112,39,-73,-75,92,-17,43,341,195,200,161,131
117,43,-73,-80,95,-14,43,351,200,209,165,131
126,48,-78,-87,102,-14,43,356,209,219,165,136
136,58,-78,-97,107,-9,43,366,219,224,170,141
151,63,-87,-107,119,-12,43,375,224,219,175,141
151,63,-87,-107,119,-12,43,380,234,224,175,146
156,68,-87,-112,122,-9,48,385,239,229,180,146
161,78,-82,-119,122,-2,48,395,248,234,190,146
165,68,-97,-117,131,-14,48,414,253,239,185,146
170,73,-97,-122,134,-12,48,414,258,244,190,151
175,73,-102,-124,139,-14,48,419,263,248,195,156
175,73,-102,-124,139,-14,43,429,268,253,200,156
170,78,-92,-124,131,-7,39,419,273,268,204,170
175,82,-92,-129,134,-4,39,419,278,273,209,175
180,82,-97,-131,139,-7,34,419,283,283,209,180
180,82,-97,-131,139,-7,34,419,283,287,209,185
180,92,-87,-136,134,2,24,414,283,283,219,185
185,97,-87,-141,136,4,19,405,283,283,219,190
185,97,-87,-141,136,4,19,400,283,283,224,195
180,102,-78,-141,129,12,19,385,283,283,229,195
180,107,-73,-143,126,17,24,366,283,278,219,190
175,107,-68,-141,122,19,19,351,273,278,219,190
170,112,-58,-141,114,26,14,336,268,278,219,185
161,112,-48,-136,104,31,14,312,258,278,219,185
151,112,-39,-131,95,36,14,287,253,268,229,185
146,112,-34,-129,90,39,14,273,248,268,219,180
136,112,-24,-124,80,43,14,253,239,258,209,175
126,107,-19,-117,73,43,9,224,229,248,204,170
107,87,-19,-97,63,34,9,209,209,229,180,165
97,87,-9,-92,53,39,9,195,195,214,175,156
87,87,0,-87,43,43,9,170,180,204,165,151
78,78,0,-78,39,39,9,151,170,190,156,146
68,82,14,-75,26,48,9,131,156,170,146,131
63,73,9,-68,26,41,9,112,146,165,136,122
53,68,14,-61,19,41,9,92,126,151,126,117
43,63,19,-53,12,41,9,78,117,136,117,107
34,58,24,-46,4,41,9,68,102,122,112,97
24,43,19,-34,2,31,9,48,97,112,97,87
9,39,29,-24,-9,34,14,34,87,97,87,82
0,29,29,-14,-14,29,14,24,68,87,82,68
-9,14,24,-2,-17,19,29,29,63,73,63,53
-14,4,19,4,-17,12,29,19,53,68,53,48
-24,0,24,12,-24,12,29,9,43,53,43,39
-34,0,34,17,-34,17,29,0,39,48,34,29
-34,-14,19,24,-26,2,34,9,29,39,34,29
-39,-14,24,26,-31,4,34,0,29,29,29,24
-43,-19,24,31,-34,2,34,0,24,29,19,24
-48,-24,24,36,-36,0,34,-4,19,19,14,19
-48,-29,19,39,-34,-4,24,-9,9,24,9,9
-48,-29,19,39,-34,-4,24,-14,4,19,4,9
-48,-29,19,39,-34,-4,29,-14,0,14,4,9
-53,-39,14,46,-34,-12,29,-19,-4,9,4,4
-58,-39,19,48,-39,-9,29,-24,-4,0,-4,0
-63,-39,24,51,-43,-7,24,-24,-4,0,-4,-4
-63,-39,24,51,-43,-7,24,-19,-4,0,-4,-4
-63,-43,19,53,-41,-12,29,-19,-4,-4,-14,-4
-63,-43,19,53,-41,-12,29,-24,0,0,-4,-4
-63,-43,19,53,-41,-12,29,-29,-4,-4,-4,-4
-63,-39,24,51,-43,-7,29,-29,-9,-14,-4,-4
-63,-34,29,48,-46,-2,29,-34,-9,-4,-4,-4
-63,-43,19,53,-41,-12,39,-24,-9,-4,-14,-14
-63,-43,19,53,-41,-12,39,-24,-9,-4,-14,-14
-63,-43,19,53,-41,-12,39,-24,-14,-9,-14,-14
-68,-48,19,58,-43,-14,39,-24,-14,-9,-19,-19
-78,-58,19,68,-48,-19,48,-24,-14,-9,-19,-19
-78,-58,19,68,-48,-19,53,-24,-14,-9,-19,-19
-78,-58,19,68,-48,-19,53,-24,-14,-9,-19,-19
-78,-53,24,65,-51,-14,48,-24,-19,-9,-19,-19
-78,-43,34,61,-56,-4,39,-24,-29,-14,-19,-14
-82,-43,39,63,-61,-2,39,-29,-29,-14,-19,-14
-82,-43,39,63,-61,-2,39,-29,-29,-14,-19,-14
-78,-43,34,61,-56,-4,39,-29,-29,-14,-19,-14
-63,-34,29,48,-46,-2,39,-29,-14,-14,-19,-14
-63,-39,24,51,-43,-7,39,-29,-14,-14,-19,-14
-68,-39,29,53,-48,-4,39,-24,-14,-14,-19,-14
-68,-39,29,53,-48,-4,43,-24,-14,-14,-24,-14
-68,-39,29,53,-48,-4,43,-24,-14,-14,-24,-14
-68,-39,29,53,-48,-4,39,-24,-19,-19,-24,-14
-68,-39,29,53,-48,-4,39,-29,-19,-19,-24,-14
-68,-39,29,53,-48,-4,39,-29,-19,-14,-24,-14
-68,-48,19,58,-43,-14,39,-29,-9,-24,-34,-14
-68,-48,19,58,-43,-14,43,-29,-9,-24,-34,-14
-68,-48,19,58,-43,-14,43,-29,-9,-24,-29,-14
-73,-48,24,61,-48,-12,39,-29,-9,-24,-29,-14
-63,-39,24,51,-43,-7,39,-24,-19,-24,-19,-14
-63,-39,24,51,-43,-7,43,-24,-19,-24,-24,-14
-63,-39,24,51,-43,-7,43,-29,-19,-24,-24,-14
-63,-39,24,51,-43,-7,39,-29,-19,-29,-24,-14
-63,-29,34,46,-48,2,29,-39,-29,-24,-14,-4
-63,-29,34,46,-48,2,29,-39,-29,-19,-14,-4
-58,-29,29,43,-43,0,29,-39,-29,-14,-14,-4
-58,-29,29,43,-43,0,29,-39,-29,-9,-14,-4
-73,-24,48,48,-61,12,29,-29,-19,-9,-14,-14
-73,-24,48,48,-61,12,29,-24,-19,-9,-14,-14
-68,-19,48,43,-58,14,29,-24,-19,-9,-14,-14
-68,-19,48,43,-58,14,29,-24,-19,-9,-14,-14
-68,-29,39,48,-53,4,29,-24,-19,-19,-24,-9
-68,-29,39,48,-53,4,29,-24,-19,-19,-24,-9
-68,-29,39,48,-53,4,29,-29,-19,-19,-24,-14
-73,-34,39,53,-56,2,29,-29,-19,-19,-24,-14
-73,-43,29,58,-51,-7,29,-29,-29,-29,-34,-14
-73,-43,29,58,-51,-7,29,-29,-29,-29,-39,-19
-73,-43,29,58,-51,-7,29,-29,-29,-34,-39,-19
-73,-43,29,58,-51,-7,29,-29,-34,-34,-34,-19
-73,-29,43,51,-58,7,29,-39,-34,-19,-24,-9
-68,-29,39,48,-53,4,29,-39,-34,-19,-24,-9
-68,-29,39,48,-53,4,29,-39,-29,-19,-19,-4
-68,-29,39,48,-53,4,29,-39,-29,-19,-19,-4
-68,-29,39,48,-53,4,29,-34,-29,-19,-14,-4
-68,-29,39,48,-53,4,29,-34,-29,-19,-14,-4
-73,-29,43,51,-58,7,29,-39,-29,-19,-14,-4
-73,-29,43,51,-58,7,29,-39,-29,-19,-14,-4
-63,-29,34,46,-48,2,29,-39,-29,-29,-24,-19
-63,-34,29,48,-46,-2,29,-39,-29,-29,-24,-19
-63,-34,29,48,-46,-2,29,-39,-29,-29,-24,-19
-63,-34,29,48,-46,-2,29,-39,-29,-29,-24,-19
-63,-34,29,48,-46,-2,29,-29,-34,-19,-24,-9
-63,-34,29,48,-46,-2,29,-34,-34,-19,-24,-9
-63,-29,34,46,-48,2,29,-34,-34,-19,-24,-9
-63,-24,39,43,-51,7,29,-34,-34,-19,-24,-4
-63,-34,29,48,-46,-2,39,-43,-39,-29,-34,-14
-63,-34,29,48,-46,-2,39,-39,-39,-29,-34,-14
-63,-43,19,53,-41,-12,39,-39,-39,-29,-34,-19
-63,-43,19,53,-41,-12,39,-39,-39,-29,-39,-19
-73,-39,34,56,-53,-2,39,-39,-34,-24,-29,-9
-73,-34,39,53,-56,2,39,-39,-39,-24,-29,-9
-73,-34,39,53,-56,2,39,-43,-39,-24,-29,-14
-73,-29,43,51,-58,7,39,-43,-39,-24,-29,-14
-68,-29,39,48,-53,4,29,-43,-39,-24,-29,-14
-68,-29,39,48,-53,4,29,-43,-39,-34,-29,-14
-63,-29,34,46,-48,2,29,-43,-39,-34,-34,-14
-63,-24,39,43,-51,7,29,-43,-39,-29,-34,-14
-73,-34,39,53,-56,2,29,-43,-39,-39,-43,-24
-73,-34,39,53,-56,2,29,-43,-39,-39,-43,-24
-73,-34,39,53,-56,2,29,-43,-39,-39,-43,-24
-73,-34,39,53,-56,2,29,-43,-39,-39,-43,-24
-73,-34,39,53,-56,2,29,-43,-39,-39,-43,-24
-73,-43,29,58,-51,-7,29,-43,-39,-39,-43,-24
-78,-43,34,61,-56,-4,29,-43,-43,-43,-43,-29
-78,-43,34,61,-56,-4,29,-43,-43,-43,-43,-29
-78,-43,34,61,-56,-4,29,-34,-43,-43,-53,-29
-78,-39,39,58,-58,0,29,-39,-39,-39,-48,-24
-73,-39,34,56,-53,-2,29,-39,-39,-39,-48,-24
-73,-39,34,56,-53,-2,29,-39,-39,-39,-53,-29
-73,-48,24,61,-48,-12,29,-48,-39,-53,-43,-29
-78,-48,29,63,-53,-9,29,-48,-39,-53,-48,-29
-78,-48,29,63,-53,-9,29,-48,-43,-53,-48,-29
-78,-43,34,61,-56,-4,29,-48,-43,-53,-48,-29
-78,-43,34,61,-56,-4,29,-48,-39,-43,-48,-29
-78,-43,34,61,-56,-4,29,-48,-39,-43,-43,-29
-78,-43,34,61,-56,-4,29,-48,-34,-43,-43,-29
-78,-43,34,61,-56,-4,29,-53,-34,-43,-43,-29
-78,-43,34,61,-56,-4,29,-53,-43,-53,-53,-29
-78,-48,29,63,-53,-9,29,-53,-43,-53,-53,-29
-78,-48,29,63,-53,-9,29,-53,-43,-53,-53,-29
-78,-48,29,63,-53,-9,29,-53,-43,-53,-53,-29
-78,-39,39,58,-58,0,29,-53,-43,-43,-43,-29
-78,-39,39,58,-58,0,29,-53,-43,-43,-48,-29
-78,-39,39,58,-58,0,29,-53,-43,-43,-48,-29
-82,-43,39,63,-61,-2,29,-53,-43,-48,-53,-39
-82,-43,39,63,-61,-2,19,-58,-48,-48,-53,-39
-82,-43,39,63,-61,-2,19,-58,-48,-48,-48,-39
-82,-43,39,63,-61,-2,19,-58,-48,-48,-48,-39
-82,-43,39,63,-61,-2,19,-58,-48,-48,-48,-34
-82,-43,39,63,-61,-2,19,-58,-58,-48,-48,-34
-82,-43,39,63,-61,-2,24,-58,-58,-48,-48,-34
-82,-43,39,63,-61,-2,24,-58,-58,-48,-48,-34
-82,-43,39,63,-61,-2,19,-58,-58,-48,-48,-34
-82,-43,39,63,-61,-2,19,-68,-48,-39,-39,-34
-82,-43,39,63,-61,-2,19,-68,-48,-39,-48,-34
-82,-43,39,63,-61,-2,19,-68,-48,-39,-39,-34
-82,-43,39,63,-61,-2,19,-68,-48,-39,-39,-34
-82,-34,48,58,-65,7,19,-58,-39,-48,-43,-39
-82,-34,48,58,-65,7,19,-58,-39,-48,-43,-39
-82,-34,48,58,-65,7,19,-58,-39,-48,-43,-39
-82,-34,48,58,-65,7,19,-58,-43,-48,-43,-39
-82,-24,58,53,-70,17,9,-68,-53,-58,-53,-39
-82,-24,58,53,-70,17,0,-68,-48,-58,-53,-39
-82,-24,58,53,-70,17,9,-68,-48,-58,-53,-39
-87,-24,63,56,-75,19,9,-68,-53,-63,-48,-39
-78,-29,48,53,-63,9,14,-58,-53,-63,-58,-39
-78,-34,43,56,-61,4,14,-58,-53,-63,-63,-39
-73,-39,34,56,-53,-2,19,-58,-53,-58,-63,-39
-73,-43,29,58,-51,-7,24,-63,-53,-58,-58,-39
-78,-39,39,58,-58,0,24,-63,-53,-58,-58,-43
-82,-39,43,61,-63,2,24,-63,-53,-58,-58,-43
-87,-39,48,63,-68,4,29,-58,-53,-63,-58,-43
-92,-43,48,68,-70,2,29,-58,-53,-63,-58,-48
-87,-43,43,65,-65,0,19,-58,-63,-63,-68,-39
-87,-43,43,65,-65,0,19,-63,-63,-63,-68,-39
-87,-43,43,65,-65,0,19,-63,-63,-68,-63,-43
-87,-48,39,68,-63,-4,19,-63,-63,-68,-63,-43
-87,-58,29,73,-58,-14,29,-53,-53,-68,-63,-43
-87,-53,34,70,-61,-9,24,-53,-53,-68,-63,-43
-87,-53,34,70,-61,-9,24,-53,-53,-68,-63,-43
-87,-53,34,70,-61,-9,24,-53,-53,-63,-63,-39
-97,-53,43,75,-70,-4,24,-53,-63,-73,-73,-48
-97,-53,43,75,-70,-4,24,-53,-63,-73,-73,-48
-92,-53,39,73,-65,-7,24,-53,-63,-73,-68,-48
-92,-53,39,73,-65,-7,24,-53,-63,-73,-68,-48
-82,-43,39,63,-61,-2,19,-63,-63,-68,-63,-48
-82,-43,39,63,-61,-2,19,-63,-63,-68,-63,-48
-82,-43,39,63,-61,-2,9,-68,-63,-68,-63,-48
-78,-29,48,53,-63,9,9,-58,-58,-58,-58,-48
-78,-39,39,58,-58,0,19,-58,-58,-58,-58,-39
-78,-39,39,58,-58,0,19,-58,-58,-58,-58,-39
-78,-39,39,58,-58,0,19,-58,-58,-58,-58,-39
-78,-39,39,58,-58,0,19,-58,-58,-58,-58,-39
-78,-39,39,58,-58,0,19,-58,-48,-48,-48,-34
-73,-34,39,53,-56,2,19,-53,-43,-48,-48,-34
-73,-34,39,53,-56,2,19,-53,-43,-43,-48,-34
-73,-29,43,51,-58,7,19,-53,-43,-43,-43,-34
-82,-24,58,53,-70,17,19,-63,-43,-48,-53,-34
-82,-19,63,51,-73,21,19,-63,-39,-43,-43,-24
-73,-9,63,41,-68,26,19,-63,-34,-34,-39,-19
-68,0,68,34,-68,34,19,-58,-29,-29,-34,-9
-48,14,63,17,-56,39,19,-58,-19,-29,-24,-4
-43,29,73,7,-58,51,9,-63,-14,-24,-19,0
-43,34,78,4,-61,56,0,-68,-9,-19,-14,4
-43,43,87,0,-65,65,-4,-73,-4,-14,-9,9
-43,53,97,-4,-70,75,-4,-78,-4,-4,-4,9
-39,58,97,-9,-68,78,-4,-78,-4,-4,-4,9
-39,63,102,-12,-70,82,-4,-73,-9,-4,-4,9
-29,58,87,-14,-58,73,-4,-73,-14,-9,-4,9
-24,68,92,-21,-58,80,-4,-82,-19,-9,-4,14
-19,78,97,-29,-58,87,-9,-82,-24,-9,-4,14
-14,82,97,-34,-56,90,-9,-78,-24,-4,-4,19
-9,82,92,-36,-51,87,-14,-73,-14,0,-4,19
9,87,78,-48,-34,82,-14,-63,-9,4,4,34
14,92,78,-53,-31,85,-14,-53,0,9,9,34
19,97,78,-58,-29,87,-9,-43,4,19,14,34
19,102,82,-61,-31,92,-9,-34,9,24,24,39
19,87,68,-53,-24,78,-9,-29,9,9,14,29
19,78,58,-48,-19,68,-9,-29,9,9,9,24
19,68,48,-43,-14,58,-9,-29,9,9,9,24
19,63,43,-41,-12,53,-4,-29,9,9,9,29
9,53,43,-31,-17,48,0,-19,9,0,0,29
4,39,34,-21,-14,36,4,-9,0,0,0,29
0,29,29,-14,-14,29,4,-19,-4,-4,0,19
-9,14,24,-2,-17,19,0,-29,-14,-14,-9,9
-29,0,29,14,-29,14,0,-48,-43,-39,-19,-9
-34,-9,24,21,-29,7,0,-63,-58,-43,-34,-14
-48,-9,39,29,-43,14,0,-63,-63,-43,-34,-14
-53,-9,43,31,-48,17,4,-63,-58,-39,-34,-14
-63,-14,48,39,-56,17,14,-63,-48,-39,-43,-24
-68,-19,48,43,-58,14,14,-68,-53,-48,-48,-29
-68,-29,39,48,-53,4,14,-68,-63,-63,-63,-34
-78,-39,39,58,-58,0,19,-68,-68,-63,-63,-39
-87,-48,39,68,-63,-4,19,-78,-73,-73,-68,-43
-87,-53,34,70,-61,-9,19,-78,-78,-78,-73,-53
-87,-58,29,73,-58,-14,19,-78,-78,-78,-73,-53
-92,-63,29,78,-61,-17,24,-78,-78,-78,-73,-48
-92,-63,29,78,-61,-17,24,-68,-68,-78,-73,-48
-92,-63,29,78,-61,-17,24,-68,-68,-73,-73,-48
-92,-58,34,75,-63,-12,24,-68,-68,-73,-73,-48
-92,-58,34,75,-63,-12,24,-68,-63,-73,-73,-48
-82,-68,14,75,-48,-26,24,-68,-73,-82,-82,-58
-82,-68,14,75,-48,-26,24,-68,-73,-82,-82,-58
-82,-68,14,75,-48,-26,24,-68,-73,-82,-82,-58
-82,-68,14,75,-48,-26,29,-68,-73,-82,-82,-58
-82,-58,24,70,-53,-17,29,-78,-82,-73,-82,-48
-87,-58,29,73,-58,-14,29,-73,-82,-73,-82,-48
-87,-58,29,73,-58,-14,29,-73,-82,-73,-82,-48
-82,-58,24,70,-53,-17,29,-73,-82,-73,-82,-48
-82,-53,29,68,-56,-12,19,-63,-73,-73,-73,-48
-82,-53,29,68,-56,-12,19,-63,-73,-73,-73,-48
-87,-48,39,68,-63,-4,19,-63,-73,-73,-73,-48
-87,-48,39,68,-63,-4,19,-63,-68,-73,-73,-48
-87,-48,39,68,-63,-4,19,-63,-78,-82,-73,-48
-87,-48,39,68,-63,-4,19,-63,-78,-78,-73,-48
-87,-48,39,68,-63,-4,24,-63,-68,-78,-73,-48
-87,-48,39,68,-63,-4,24,-63,-78,-78,-73,-48
-87,-48,39,68,-63,-4,24,-63,-68,-73,-63,-48
-87,-48,39,68,-63,-4,24,-63,-68,-68,-63,-43
-87,-48,39,68,-63,-4,24,-63,-68,-68,-63,-43
-87,-53,34,70,-61,-9,24,-63,-68,-63,-63,-43
-87,-53,34,70,-61,-9,24,-73,-68,-63,-68,-34
-78,-53,24,65,-51,-14,29,-58,-53,-68,-58,-43
-78,-43,34,61,-56,-4,29,-53,-53,-58,-53,-43
-87,-48,39,68,-63,-4,39,-53,-43,-53,-58,-43
-92,-48,43,70,-68,-2,39,-48,-34,-58,-53,-34
-92,-43,48,68,-70,2,29,-34,-9,-43,-48,-39
-92,-24,68,58,-80,21,34,-24,9,-14,-29,-14
-82,-14,68,48,-75,26,43,-34,39,14,4,4
-78,-4,73,41,-75,34,19,-39,48,53,34,29
-58,0,58,29,-58,29,0,-39,58,87,63,58
-14,0,14,7,-14,7,0,-4,63,122,92,82
29,-9,-39,-9,34,-24,0,68,82,156,117,92
78,-19,-97,-29,87,-58,9,141,126,195,151,122
151,-19,-170,-65,161,-95,9,234,180,234,195,156
244,4,-239,-124,241,-117,0,341,263,307,248,195
341,58,-283,-200,312,-112,-34,409,351,405,331,268
444,141,-302,-292,373,-80,-97,419,434,512,434,361
546,253,-292,-400,419,-19,-170,400,527,610,536,448
634,366,-268,-500,451,48,-229,370,600,702,619,541
697,458,-239,-578,468,109,-292,297,600,746,678,600
717,468,-248,-592,483,109,-326,229,483,673,629,575
702,395,-307,-549,505,43,-341,204,268,488,463,444
697,317,-380,-507,539,-31,-346,151,48,292,297,326
658,268,-390,-463,524,-61,-370,24,-146,156,204,253
575,234,-341,-405,458,-53,-380,-175,-322,29,122,195
478,209,-268,-344,373,-29,-405,-395,-468,-92,29,136
370,195,-175,-283,273,9,-414,-595,-570,-175,-24,107
239,180,-58,-209,148,61,-400,-756,-605,-219,-48,87
107,156,48,-131,29,102,-361,-844,-619,-258,-92,53
14,117,102,-65,-43,109,-317,-849,-629,-297,-136,4
-39,73,112,-17,-75,92,-283,-810,-619,-326,-175,-48
-68,19,87,24,-78,53,-263,-751,-610,-341,-209,-92
-97,-19,78,58,-87,29,-234,-692,-600,-356,-234,-126
-97,-58,39,78,-68,-9,-200,-610,-580,-366,-253,-141
-87,-82,4,85,-46,-39,-175,-536,-556,-375,-268,-165
-87,-102,-14,95,-36,-58,-146,-463,-522,-375,-278,-170
-78,-112,-34,95,-21,-73,-126,-409,-483,-351,-263,-165
-63,-97,-34,80,-14,-65,-117,-341,-424,-302,-219,-131
-48,-73,-24,61,-12,-48,-97,-273,-356,-248,-175,-107
-43,-58,-14,51,-14,-36,-82,-224,-292,-209,-151,-87
-48,-48,0,48,-24,-24,-78,-180,-239,-175,-122,-78
-43,-39,4,41,-24,-17,-58,-141,-185,-131,-97,-58
-39,-19,19,29,-29,0,-43,-112,-156,-102,-82,-43
-24,-14,9,19,-17,-2,-39,-92,-136,-92,-63,-39
-24,-29,-4,26,-9,-17,-34,-78,-117,-78,-58,-29
-14,-29,-14,21,0,-21,-19,-53,-92,-73,-58,-14
-24,-19,4,21,-14,-7,-9,-43,-87,-68,-48,-19
-29,-29,0,29,-14,-14,4,-48,-82,-68,-48,-29
-29,-29,0,29,-14,-14,4,-39,-78,-63,-48,-29
-29,-34,-4,31,-12,-19,14,-39,-78,-63,-48,-29
-29,-34,-4,31,-12,-19,14,-34,-73,-63,-48,-29
-29,-34,-4,31,-12,-19,9,-19,-73,-53,-48,-19
-34,-34,0,34,-17,-17,9,-19,-68,-53,-48,-19
-34,-34,0,34,-17,-17,14,-14,-68,-48,-48,-19
-34,-39,-4,36,-14,-21,14,-9,-58,-48,-48,-19
-29,-29,0,29,-14,-14,4,-14,-58,-39,-39,-14
-29,-29,0,29,-14,-14,9,-14,-58,-39,-34,-14
-29,-29,0,29,-14,-14,9,-14,-58,-39,-34,-14
-34,-24,9,29,-21,-7,9,-14,-58,-34,-34,-14
-34,-24,9,29,-21,-7,9,0,-58,-39,-43,-9
-34,-29,4,31,-19,-12,9,0,-58,-39,-43,-9
-34,-29,4,31,-19,-12,9,0,-53,-39,-39,-14
-29,-29,0,29,-14,-14,9,4,-53,-39,-39,-14
-29,-29,0,29,-14,-14,19,4,-43,-29,-29,-9
-29,-29,0,29,-14,-14,19,4,-39,-29,-29,-9
-29,-29,0,29,-14,-14,19,9,-39,-29,-29,-9
-29,-29,0,29,-14,-14,19,9,-39,-29,-29,-9
-29,-29,0,29,-14,-14,19,9,-48,-39,-39,-19
-29,-29,0,29,-14,-14,19,9,-48,-39,-39,-14
-29,-29,0,29,-14,-14,19,9,-48,-34,-34,-14
-29,-29,0,29,-14,-14,19,14,-48,-34,-34,-14
-29,-29,0,29,-14,-14,24,19,-43,-34,-34,-4
-29,-24,4,26,-17,-9,24,24,-39,-34,-34,-4
-24,-24,0,24,-12,-12,19,24,-39,-29,-34,-4
-24,-29,-4,26,-9,-17,19,29,-39,-29,-34,-4
-24,-29,-4,26,-9,-17,14,29,-39,-39,-34,-4
-24,-29,-4,26,-9,-17,19,29,-34,-39,-34,-4
-24,-29,-4,26,-9,-17,19,39,-29,-39,-29,-4
-24,-29,-4,26,-9,-17,19,39,-24,-39,-29,-4
-24,-29,-4,26,-9,-17,19,39,-29,-29,-29,-14
-19,-29,-9,24,-4,-19,19,43,-24,-29,-29,-14
-19,-29,-9,24,-4,-19,19,43,-24,-29,-29,-14
-19,-29,-9,24,-4,-19,14,43,-24,-29,-29,-14
-19,-19,0,19,-9,-9,14,43,-24,-19,-19,-4
-19,-19,0,19,-9,-9,19,43,-24,-19,-19,-4
-14,-19,-4,17,-4,-12,19,53,-24,-14,-19,0
-14,-19,-4,17,-4,-12,19,53,-24,-14,-14,0
-24,-29,-4,26,-9,-17,29,53,-14,-14,-14,0
-24,-24,0,24,-12,-12,29,53,-14,-9,-14,0
-24,-24,0,24,-12,-12,29,58,-9,-9,-9,0
-24,-19,4,21,-14,-7,24,58,-9,-4,-9,0
-19,-29,-9,24,-4,-19,34,58,-19,-4,0,0
-14,-29,-14,21,0,-21,34,68,-9,-4,0,4
-14,-29,-14,21,0,-21,34,78,-4,-4,0,4
-14,-29,-14,21,0,-21,34,82,0,0,4,4
0,-24,-24,12,12,-24,24,73,9,0,-4,4
0,-19,-19,9,9,-19,24,78,9,0,-4,9
0,-14,-14,7,7,-14,24,82,9,0,-4,9
4,-4,-9,0,7,-7,24,82,9,4,-4,9
9,-14,-24,2,17,-19,29,92,4,0,-9,9
9,-14,-24,2,17,-19,29,102,14,4,0,14
9,-9,-19,0,14,-14,24,107,19,9,4,14
14,-9,-24,-2,19,-17,24,112,19,14,4,19
14,-9,-24,-2,19,-17,24,112,19,4,-4,14
19,-4,-24,-7,21,-14,24,122,29,9,-4,14
19,-4,-24,-7,21,-14,24,131,29,14,4,14
19,-4,-24,-7,21,-14,24,131,29,14,4,14
14,4,-9,-9,12,-2,14,136,39,19,9,24
24,9,-14,-17,19,-2,14,141,43,29,14,24
29,9,-19,-19,24,-4,19,156,43,39,24,29
34,14,-19,-24,26,-2,19,161,53,48,34,34
43,4,-39,-24,41,-17,29,165,68,43,29,34
48,4,-43,-26,46,-19,29,175,68,48,29,39
48,0,-48,-24,48,-24,34,190,73,53,34,39
48,0,-48,-24,48,-24,34,200,78,58,39,39
63,0,-63,-31,63,-31,19,204,82,58,39,43
68,9,-58,-39,63,-24,19,214,87,63,43,43
78,19,-58,-48,68,-19,24,224,92,73,48,53
78,19,-58,-48,68,-19,24,229,102,78,53,53
68,14,-53,-41,61,-19,24,239,102,87,68,68
73,14,-58,-43,65,-21,24,248,112,97,73,73
78,19,-58,-48,68,-19,24,258,117,107,73,78
82,29,-53,-56,68,-12,24,268,122,117,78,78
82,39,-43,-61,63,-2,34,278,131,117,82,73
87,39,-48,-63,68,-4,39,287,141,122,87,73
92,43,-48,-68,70,-2,39,297,146,122,92,78
97,48,-48,-73,73,0,34,307,151,126,97,82
112,43,-68,-78,90,-12,43,322,165,141,102,87
117,39,-78,-78,97,-19,43,331,165,146,107,97
122,34,-87,-78,104,-26,43,341,180,156,117,97
126,34,-92,-80,109,-29,43,341,195,161,117,97
122,29,-92,-75,107,-31,43,361,195,156,112,102
126,24,-102,-75,114,-39,43,370,200,161,117,102
136,19,-117,-78,126,-48,43,375,209,165,117,107
146,19,-126,-82,136,-53,43,385,219,165,122,112
151,39,-112,-95,131,-36,34,385,219,180,136,122
151,43,-107,-97,129,-31,34,390,224,185,136,126
156,53,-102,-104,129,-24,39,395,224,190,141,126
161,68,-92,-114,126,-12,39,405,229,195,151,126
165,58,-107,-112,136,-24,39,424,244,200,146,126
170,63,-107,-117,139,-21,39,424,248,204,151,131
175,63,-112,-119,143,-24,39,429,253,209,156,136
175,63,-112,-119,143,-24,34,439,258,214,161,136
180,68,-112,-124,146,-21,29,429,263,209,175,141
185,73,-112,-129,148,-19,29,429,268,214,180,146
190,73,-117,-131,153,-21,24,429,273,224,180,151
190,73,-117,-131,153,-21,24,429,273,229,180,156
190,73,-117,-131,153,-21,24,434,273,244,190,156
195,78,-117,-136,156,-19,19,424,273,244,190,161
195,78,-117,-136,156,-19,19,419,273,244,195,165
190,82,-107,-136,148,-12,19,405,273,244,200,165
180,97,-82,-139,131,7,24,385,283,248,200,175
175,97,-78,-136,126,9,19,370,273,248,200,180
170,102,-68,-136,119,17,14,356,268,248,200,180
161,102,-58,-131,109,21,14,331,258,248,200,185
161,112,-48,-136,104,31,14,307,253,239,209,175
156,112,-43,-134,100,34,14,292,248,239,200,170
146,112,-34,-129,90,39,14,273,239,229,190,165
136,107,-29,-122,82,39,9,244,229,219,185,161
126,97,-29,-112,78,34,0,219,209,209,170,156
117,97,-19,-107,68,39,0,204,195,195,165,146
107,97,-9,-102,58,43,0,180,180,185,156,141
97,87,-9,-92,53,39,0,161,170,170,146,136
78,82,4,-80,36,43,0,141,156,161,136,131
73,73,0,-73,36,36,0,122,146,156,126,122
63,68,4,-65,29,36,0,102,126,141,117,117
53,63,9,-58,21,36,0,87,117,126,107,107
43,53,9,-48,17,31,9,87,102,117,92,87
34,34,0,-34,17,17,9,68,97,102,78,78
19,24,4,-21,7,14,14,53,87,82,68,73
9,9,0,-9,4,4,14,43,68,68,63,58
0,14,14,-7,-7,14,9,29,53,53,53,53
-4,4,9,0,-7,7,9,19,43,48,43,48
-14,0,14,7,-14,7,9,9,34,34,34,39
-24,0,24,12,-24,12,9,0,29,29,24,29
-24,-14,9,19,-17,-2,14,0,9,19,14,19
-29,-14,14,21,-21,0,14,-9,9,9,9,14
-34,-19,14,26,-24,-2,14,-9,4,9,0,14
-39,-24,14,31,-26,-4,14,-14,0,0,-4,9
-39,-39,0,39,-19,-19,14,-19,0,4,-9,9
-39,-39,0,39,-19,-19,14,-24,-4,0,-14,9
-39,-39,0,39,-19,-19,19,-24,-9,-4,-14,9
-43,-48,-4,46,-19,-26,19,-29,-14,-9,-14,4
-39,-34,4,36,-21,-14,9,-34,-4,-9,-14,0
-43,-29,14,36,-29,-7,4,-34,-4,-9,-14,-4
-43,-24,19,34,-31,-2,4,-29,-4,-9,-14,-4
-43,-24,19,34,-31,-2,9,-29,-4,-14,-24,-4
-53,-34,19,43,-36,-7,19,-24,-9,-19,-34,-14
-53,-43,9,48,-31,-17,19,-29,-14,-24,-34,-14
-53,-48,4,51,-29,-21,19,-29,-19,-34,-34,-14
-53,-53,0,53,-26,-26,19,-34,-19,-24,-34,-14
-53,-43,9,48,-31,-17,19,-34,-29,-24,-24,-14
-53,-43,9,48,-31,-17,19,-34,-29,-24,-24,-14
-53,-43,9,48,-31,-17,19,-34,-34,-29,-24,-14
-58,-48,9,53,-34,-19,19,-34,-34,-29,-29,-19
-68,-58,9,63,-39,-24,19,-34,-24,-29,-29,-9
-68,-58,9,63,-39,-24,24,-34,-24,-29,-29,-9
-68,-58,9,63,-39,-24,24,-34,-24,-29,-29,-9
-68,-53,14,61,-41,-19,19,-34,-29,-29,-29,-9
-63,-39,24,51,-43,-7,19,-34,-29,-24,-29,-14
-63,-34,29,48,-46,-2,19,-39,-29,-24,-29,-14
-58,-29,29,43,-43,0,19,-39,-29,-24,-29,-14
-48,-24,24,36,-36,0,19,-39,-29,-24,-29,-14
-53,-34,19,43,-36,-7,19,-39,-14,-24,-29,-4
-53,-39,14,46,-34,-12,19,-39,-14,-24,-29,-4
-58,-39,19,48,-39,-9,19,-34,-14,-24,-29,-4
-58,-39,19,48,-39,-9,24,-34,-14,-24,-34,-4
-68,-43,24,56,-46,-9,34,-34,-14,-24,-24,-14
-68,-48,19,58,-43,-14,29,-34,-19,-29,-24,-14
-68,-53,14,61,-41,-19,29,-39,-19,-29,-24,-14
-68,-58,9,63,-39,-24,29,-39,-19,-24,-24,-14
-78,-58,19,68,-48,-19,19,-39,-29,-34,-34,-14
-78,-58,19,68,-48,-19,24,-39,-29,-34,-34,-14
-78,-58,19,68,-48,-19,24,-39,-29,-34,-29,-14
-82,-58,24,70,-53,-17,19,-39,-29,-34,-29,-14
-78,-68,9,73,-43,-29,19,-34,-39,-43,-39,-14
-73,-68,4,70,-39,-31,24,-34,-39,-43,-43,-14
-68,-68,0,68,-34,-34,24,-39,-39,-43,-43,-14
-63,-68,-4,65,-29,-36,19,-39,-39,-48,-43,-14
-63,-58,4,61,-34,-26,19,-39,-29,-43,-34,-14
-63,-58,4,61,-34,-26,19,-39,-29,-39,-34,-14
-58,-58,0,58,-29,-29,19,-39,-29,-34,-34,-14
-58,-58,0,58,-29,-29,19,-39,-29,-29,-34,-14
-73,-53,19,63,-46,-17,19,-39,-29,-39,-43,-24
-73,-53,19,63,-46,-17,19,-34,-29,-39,-43,-24
-68,-48,19,58,-43,-14,19,-34,-29,-39,-43,-24
-68,-48,19,58,-43,-14,19,-34,-29,-39,-43,-24
-58,-39,19,48,-39,-9,19,-34,-39,-39,-34,-19
-58,-39,19,48,-39,-9,19,-34,-39,-39,-34,-19
-58,-39,19,48,-39,-9,19,-39,-39,-39,-34,-24
-63,-43,19,53,-41,-12,19,-39,-39,-39,-34,-24
-53,-34,19,43,-36,-7,9,-48,-39,-29,-24,-14
-53,-34,19,43,-36,-7,9,-48,-39,-29,-29,-19
-53,-34,19,43,-36,-7,9,-48,-39,-34,-29,-19
-53,-34,19,43,-36,-7,9,-48,-43,-34,-24,-19
-58,-39,19,48,-39,-9,19,-39,-34,-29,-34,-9
-58,-39,19,48,-39,-9,19,-39,-34,-29,-34,-9
-63,-39,24,51,-43,-7,19,-39,-29,-29,-29,-4
-68,-39,29,53,-48,-4,19,-39,-29,-29,-29,-4
-68,-39,29,53,-48,-4,19,-43,-29,-29,-34,-14
-68,-39,29,53,-48,-4,19,-43,-29,-29,-34,-14
-73,-39,34,56,-53,-2,19,-48,-29,-29,-34,-14
-73,-39,34,56,-53,-2,19,-48,-29,-29,-34,-14
-63,-39,24,51,-43,-7,19,-39,-29,-29,-34,-9
-63,-43,19,53,-41,-12,19,-39,-29,-29,-34,-9
-63,-43,19,53,-41,-12,19,-39,-29,-29,-34,-9
-63,-43,19,53,-41,-12,19,-39,-29,-29,-34,-9
-63,-53,9,58,-36,-21,19,-48,-43,-39,-43,-14
-63,-53,9,58,-36,-21,19,-53,-43,-39,-43,-19
-63,-48,14,56,-39,-17,19,-53,-43,-39,-43,-24
-63,-43,19,53,-41,-12,19,-53,-43,-39,-43,-24
-68,-43,24,56,-46,-9,29,-53,-29,-29,-39,-14
-73,-43,29,58,-51,-7,29,-48,-29,-29,-34,-14
-78,-53,24,65,-51,-14,29,-48,-29,-29,-29,-19
-82,-53,29,68,-56,-12,29,-48,-29,-29,-29,-19
-73,-53,19,63,-46,-17,29,-48,-34,-43,-39,-19
-73,-53,19,63,-46,-17,29,-48,-39,-43,-39,-19
-73,-58,14,65,-43,-21,29,-53,-39,-43,-39,-24
-73,-58,14,65,-43,-21,29,-53,-39,-43,-39,-24
-68,-58,9,63,-39,-24,29,-43,-29,-34,-48,-24
-68,-58,9,63,-39,-24,29,-43,-29,-43,-48,-24
-63,-58,4,61,-34,-26,29,-43,-29,-43,-53,-24
-63,-53,9,58,-36,-21,29,-43,-29,-39,-53,-24
-73,-53,19,63,-46,-17,19,-43,-39,-48,-43,-24
-73,-53,19,63,-46,-17,19,-43,-39,-48,-43,-24
-73,-53,19,63,-46,-17,19,-43,-39,-48,-43,-24
-73,-53,19,63,-46,-17,19,-43,-39,-48,-43,-24
-63,-53,9,58,-36,-21,29,-43,-39,-48,-43,-14
-63,-63,0,63,-31,-31,29,-43,-39,-48,-43,-14
-68,-63,4,65,-36,-29,29,-43,-43,-53,-43,-19
-68,-63,4,65,-36,-29,29,-43,-43,-53,-43,-19
-68,-63,4,65,-36,-29,19,-53,-53,-53,-53,-24
-68,-58,9,63,-39,-24,19,-58,-48,-48,-48,-24
-63,-58,4,61,-34,-26,19,-58,-48,-48,-48,-29
-63,-58,4,61,-34,-26,19,-58,-48,-48,-53,-39
-63,-58,4,61,-34,-26,19,-48,-39,-43,-43,-29
-68,-58,9,63,-39,-24,19,-48,-39,-43,-48,-29
-68,-58,9,63,-39,-24,19,-48,-43,-43,-48,-29
-68,-53,14,61,-41,-19,19,-48,-43,-43,-48,-29
-68,-53,14,61,-41,-19,19,-58,-48,-43,-48,-29
-68,-53,14,61,-41,-19,19,-58,-48,-43,-43,-29
-68,-53,14,61,-41,-19,19,-58,-43,-43,-43,-29
-68,-53,14,61,-41,-19,19,-63,-43,-43,-43,-29
-68,-43,24,56,-46,-9,19,-53,-43,-43,-43,-29
-68,-48,19,58,-43,-14,19,-53,-43,-43,-43,-29
-68,-48,19,58,-43,-14,19,-53,-43,-43,-43,-29
-68,-48,19,58,-43,-14,19,-53,-43,-43,-43,-29
-68,-48,19,58,-43,-14,19,-63,-43,-43,-34,-19
-68,-48,19,58,-43,-14,19,-63,-43,-43,-39,-19
-68,-48,19,58,-43,-14,19,-63,-43,-43,-39,-19
-73,-53,19,63,-46,-17,19,-63,-43,-48,-43,-29
-73,-43,29,58,-51,-7,19,-58,-48,-39,-43,-29
-73,-43,29,58,-51,-7,19,-58,-48,-39,-39,-29
-73,-43,29,58,-51,-7,19,-58,-48,-39,-39,-29
-73,-43,29,58,-51,-7,19,-58,-48,-39,-39,-24
-73,-43,29,58,-51,-7,19,-58,-48,-39,-39,-34
-73,-43,29,58,-51,-7,24,-58,-48,-39,-39,-34
-73,-43,29,58,-51,-7,24,-58,-48,-39,-39,-34
-73,-43,29,58,-51,-7,19,-58,-48,-39,-39,-34
-73,-43,29,58,-51,-7,9,-68,-48,-39,-48,-34
-73,-43,29,58,-51,-7,9,-68,-48,-39,-58,-34
-73,-43,29,58,-51,-7,9,-68,-48,-39,-48,-34
-73,-43,29,58,-51,-7,9,-68,-48,-39,-48,-34
-73,-53,19,63,-46,-17,19,-68,-48,-48,-43,-29
-73,-53,19,63,-46,-17,19,-68,-48,-48,-43,-29
-73,-53,19,63,-46,-17,19,-68,-48,-48,-43,-29
-73,-53,19,63,-46,-17,19,-68,-53,-48,-43,-29
-73,-53,19,63,-46,-17,29,-58,-53,-39,-53,-29
-73,-53,19,63,-46,-17,19,-58,-48,-39,-53,-29
-73,-53,19,63,-46,-17,29,-58,-48,-39,-53,-29
-78,-53,24,65,-51,-14,29,-58,-53,-43,-48,-29
-78,-43,34,61,-56,-4,19,-58,-43,-43,-39,-29
-78,-43,34,61,-56,-4,14,-58,-43,-43,-43,-29
-73,-43,29,58,-51,-7,14,-58,-43,-39,-43,-29
-73,-43,29,58,-51,-7,14,-63,-43,-39,-39,-29
-73,-48,24,61,-48,-12,14,-63,-43,-48,-48,-34
-73,-48,24,61,-48,-12,14,-63,-43,-48,-48,-34
-73,-48,24,61,-48,-12,19,-58,-43,-53,-48,-34
-73,-53,19,63,-46,-17,19,-58,-43,-53,-48,-39
-78,-43,34,61,-56,-4,19,-68,-43,-43,-58,-29
-78,-43,34,61,-56,-4,19,-73,-43,-43,-58,-29
-78,-43,34,61,-56,-4,19,-73,-43,-48,-53,-34
-78,-48,29,63,-53,-9,19,-73,-43,-48,-53,-34
-68,-43,24,56,-46,-9,9,-73,-43,-39,-43,-24
-68,-34,34,51,-51,0,4,-73,-43,-39,-43,-24
-68,-29,39,48,-53,4,4,-73,-43,-39,-43,-24
-68,-24,43,46,-56,9,4,-73,-43,-34,-43,-19
-68,-29,39,48,-53,4,4,-63,-34,-43,-53,-29
-68,-34,34,51,-51,0,4,-63,-34,-43,-53,-29
-63,-39,24,51,-43,-7,4,-63,-34,-43,-48,-29
-63,-43,19,53,-41,-12,4,-63,-34,-43,-48,-29
-73,-53,19,63,-46,-17,19,-73,-43,-48,-53,-29
-73,-53,19,63,-46,-17,19,-73,-43,-48,-53,-29
-73,-53,19,63,-46,-17,19,-68,-43,-48,-53,-29
-73,-53,19,63,-46,-17,19,-68,-43,-43,-53,-29
-73,-48,24,61,-48,-12,9,-68,-53,-53,-53,-39
-73,-48,24,61,-48,-12,9,-68,-53,-53,-53,-39
-73,-43,29,58,-51,-7,9,-68,-48,-53,-48,-34
-73,-43,29,58,-51,-7,9,-68,-48,-53,-48,-34
-73,-48,24,61,-48,-12,14,-68,-39,-63,-58,-34
-73,-58,14,65,-43,-21,14,-68,-43,-53,-58,-39
-58,-48,9,53,-34,-19,14,-68,-53,-53,-58,-39
-58,-53,4,56,-31,-24,14,-68,-43,-53,-58,-39
-68,-58,9,63,-39,-24,19,-68,-39,-48,-48,-39
-58,-48,9,53,-34,-19,19,-58,-39,-48,-48,-39
-58,-48,9,53,-34,-19,19,-58,-39,-48,-48,-39
-58,-48,9,53,-34,-19,19,-58,-39,-48,-48,-39
-58,-48,9,53,-34,-19,19,-58,-39,-48,-48,-39
-68,-48,19,58,-43,-14,19,-68,-39,-58,-48,-34
-63,-43,19,53,-41,-12,19,-63,-34,-58,-48,-34
-63,-43,19,53,-41,-12,19,-63,-34,-53,-48,-34
-63,-39,24,51,-43,-7,19,-63,-34,-53,-43,-34
-63,-24,39,43,-51,7,9,-73,-34,-39,-43,-34
-63,-19,43,41,-53,12,9,-73,-29,-34,-34,-24
-53,-9,43,31,-48,17,9,-73,-24,-24,-29,-19
-48,0,48,24,-48,24,9,-68,-19,-19,-24,-9
-29,24,53,2,-41,39,9,-58,0,-9,-14,4
-24,39,63,-7,-43,51,0,-63,4,-4,-9,9
-24,43,68,-9,-46,56,-9,-68,9,0,-4,14
-24,53,78,-14,-51,65,-14,-73,14,4,0,19
-24,58,82,-17,-53,70,-4,-78,4,14,14,19
-19,58,78,-19,-48,68,-4,-78,4,14,14,19
-19,58,78,-19,-48,68,-4,-73,0,14,14,19
-9,48,58,-19,-34,53,-4,-73,-4,9,14,19
4,58,53,-31,-24,56,-4,-63,4,0,14,24
9,68,58,-39,-24,63,-9,-63,4,0,14,24
14,73,58,-43,-21,65,-9,-58,9,4,14,29
19,73,53,-46,-17,63,-14,-53,24,9,14,29
29,73,43,-51,-7,58,-14,-48,34,19,19,34
34,73,39,-53,-2,56,-14,-43,39,19,19,34
39,73,34,-56,2,53,-9,-39,39,24,19,34
39,73,34,-56,2,53,-9,-34,39,24,24,39
39,78,39,-58,0,58,-19,-29,29,19,24,39
39,68,29,-53,4,48,-19,-29,29,19,19,34
39,58,19,-48,9,39,-19,-29,29,19,19,34
39,53,14,-46,12,34,-14,-29,29,19,19,39
24,43,19,-34,2,31,-9,-39,24,14,14,34
14,29,14,-21,0,21,-4,-29,9,9,9,29
4,19,14,-12,-4,17,-4,-39,0,0,4,14
-9,4,14,2,-12,9,-9,-48,-14,-14,-9,0
-29,-19,9,24,-19,-4,0,-48,-19,-29,-19,-9
-34,-29,4,31,-19,-12,0,-63,-29,-34,-34,-14
-48,-29,19,39,-34,-4,0,-63,-29,-34,-34,-14
-53,-29,24,41,-39,-2,4,-63,-19,-29,-34,-14
-63,-34,29,48,-46,-2,14,-73,-29,-39,-43,-24
-68,-39,29,53,-48,-4,14,-78,-34,-48,-48,-29
-68,-48,19,58,-43,-14,14,-78,-43,-63,-63,-34
-78,-58,19,68,-48,-19,19,-78,-48,-63,-63,-39
-68,-53,14,61,-41,-19,19,-78,-43,-68,-58,-34
-68,-53,14,61,-41,-19,19,-78,-48,-68,-63,-43
-68,-53,14,61,-41,-19,19,-78,-48,-63,-63,-43
-73,-53,19,63,-46,-17,24,-78,-48,-58,-63,-39
-73,-63,9,68,-41,-26,24,-68,-48,-58,-53,-48
-73,-63,9,68,-41,-26,24,-68,-48,-53,-53,-48
-73,-58,14,65,-43,-21,24,-68,-48,-53,-53,-48
-73,-58,14,65,-43,-21,24,-68,-43,-53,-53,-48
-73,-68,4,70,-39,-31,24,-68,-53,-63,-63,-48
-73,-68,4,70,-39,-31,24,-68,-53,-63,-63,-48
-73,-68,4,70,-39,-31,24,-68,-53,-63,-63,-48
-73,-68,4,70,-39,-31,29,-68,-53,-63,-63,-48
-73,-68,4,70,-39,-31,29,-68,-53,-73,-73,-48
-78,-68,9,73,-43,-29,29,-63,-53,-73,-73,-48
-78,-68,9,73,-43,-29,29,-63,-53,-73,-73,-48
-73,-68,4,70,-39,-31,29,-63,-53,-73,-73,-48
-63,-68,-4,65,-29,-36,29,-63,-53,-63,-63,-48
-63,-63,0,63,-31,-31,29,-63,-53,-63,-63,-48
-68,-53,14,61,-41,-19,29,-63,-53,-63,-63,-48
-68,-48,19,58,-43,-14,29,-63,-48,-63,-63,-48
-78,-58,19,68,-48,-19,29,-63,-48,-63,-53,-48
-78,-58,19,68,-48,-19,29,-63,-48,-58,-53,-48
-78,-58,19,68,-48,-19,34,-63,-39,-58,-53,-48
-78,-58,19,68,-48,-19,34,-63,-48,-58,-53,-48
-78,-58,19,68,-48,-19,34,-53,-39,-58,-63,-48
-78,-58,19,68,-48,-19,34,-53,-39,-58,-63,-43
-78,-58,19,68,-48,-19,34,-53,-39,-63,-63,-43
-78,-63,14,70,-46,-24,34,-53,-39,-63,-63,-43
-78,-63,14,70,-46,-24,34,-43,-39,-63,-58,-43
-87,-63,24,75,-56,-19,48,-48,-34,-58,-48,-43
-87,-63,24,75,-56,-19,48,-53,-24,-48,-43,-43
-87,-48,39,68,-63,-4,48,-43,-4,-34,-39,-34
-82,-39,43,61,-63,2,39,-29,24,-9,-24,-24
-82,-34,48,58,-65,7,39,-24,48,14,-9,-19
-63,-34,29,48,-46,-2,34,-34,58,24,9,-4
-43,-24,19,34,-31,-2,24,-43,68,53,34,14
-29,-24,4,26,-17,-9,9,-29,78,92,63,48
0,-29,-29,14,14,-29,0,9,97,126,92,78
43,-39,-82,-2,63,-61,0,82,112,151,112,92
97,-48,-146,-24,122,-97,9,156,141,175,136,102
165,-48,-214,-58,190,-131,9,248,195,224,180,131
258,-19,-278,-119,268,-148,0,361,268,302,244,185
361,34,-326,-197,344,-146,-29,439,370,414,336,253
458,136,-322,-297,390,-92,-82,439,458,522,439,346
561,248,-312,-405,436,-31,-156,419,541,619,541,448
644,370,-273,-507,458,48,-229,380,624,717,634,536
702,463,-239,-583,470,112,-287,302,629,761,688,600
717,478,-239,-597,478,119,-331,239,512,688,639,570
717,400,-317,-558,517,41,-336,209,297,497,473,448
702,317,-385,-509,544,-34,-351,156,73,292,317,326
678,278,-400,-478,539,-61,-375,14,-126,165,229,258
600,248,-351,-424,475,-51,-400,-180,-292,58,146,214
497,224,-273,-361,385,-24,-409,-400,-439,-58,63,156
390,209,-180,-300,285,14,-424,-610,-546,-151,0,117
253,204,-48,-229,151,78,-424,-780,-590,-204,-24,87
122,180,58,-151,31,119,-380,-863,-595,-239,-58,58
39,136,97,-87,-29,117,-331,-863,-590,-268,-102,24
-4,87,92,-41,-48,90,-297,-819,-590,-297,-146,-24
-48,43,92,2,-70,68,-283,-771,-590,-326,-185,-68
-78,0,78,39,-78,39,-263,-712,-580,-341,-200,-102
-78,-29,48,53,-63,9,-234,-634,-551,-346,-224,-126
-68,-48,19,58,-43,-14,-209,-551,-522,-356,-244,-151
-68,-73,-4,70,-31,-39,-175,-488,-497,-356,-239,-156
-68,-82,-14,75,-26,-48,-146,-424,-453,-326,-229,-151
-48,-73,-24,61,-12,-48,-126,-351,-385,-283,-195,-126
-43,-58,-14,51,-14,-36,-107,-283,-317,-234,-161,-112
-39,-53,-14,46,-12,-34,-87,-224,-258,-190,-136,-87
-34,-48,-14,41,-9,-31,-73,-185,-204,-151,-112,-68
-29,-39,-9,34,-9,-24,-58,-141,-161,-117,-92,-58
-34,-29,4,31,-19,-12,-39,-112,-126,-92,-78,-48
-19,-29,-9,24,-4,-19,-24,-92,-97,-73,-53,-34
-24,-14,9,19,-17,-2,-9,-63,-87,-53,-34,-9
-24,-19,4,21,-14,-7,-14,-58,-78,-48,-39,-9
-24,-19,4,21,-14,-7,-9,-53,-63,-43,-39,-14
-24,-19,4,21,-14,-7,-9,-34,-58,-39,-29,-19
-29,-29,0,29,-14,-14,-4,-29,-53,-48,-29,-19
-29,-29,0,29,-14,-14,-4,-19,-48,-43,-29,-19
-29,-34,-4,31,-12,-19,4,-19,-48,-43,-29,-19
-29,-34,-4,31,-12,-19,4,-14,-43,-43,-29,-19
-29,-39,-9,34,-9,-24,9,-9,-34,-34,-29,-19
-34,-43,-9,39,-12,-26,9,-9,-29,-34,-29,-19
-34,-48,-14,41,-9,-31,14,-4,-29,-29,-29,-19
-34,-58,-24,46,-4,-41,14,0,-19,-29,-29,-19
-29,-48,-19,39,-4,-34,14,4,-24,-29,-29,-24
-29,-48,-19,39,-4,-34,19,4,-29,-29,-24,-24
-29,-48,-19,39,-4,-34,19,4,-34,-29,-24,-24
-34,-43,-9,39,-12,-26,19,4,-39,-24,-24,-24
-34,-34,0,34,-17,-17,9,0,-29,-29,-24,-19
-34,-39,-4,36,-14,-21,9,0,-29,-29,-24,-19
-34,-39,-4,36,-14,-21,9,0,-24,-29,-19,-24
-29,-39,-9,34,-9,-24,9,4,-24,-29,-19,-24
-29,-48,-19,39,-4,-34,19,14,-24,-19,-29,-19
-29,-48,-19,39,-4,-34,19,14,-19,-19,-29,-19
-29,-48,-19,39,-4,-34,19,19,-19,-19,-29,-19
-29,-48,-19,39,-4,-34,19,19,-19,-19,-29,-19
-29,-48,-19,39,-4,-34,19,19,-19,-19,-29,-19
-29,-48,-19,39,-4,-34,19,19,-19,-19,-29,-14
-29,-48,-19,39,-4,-34,19,19,-19,-14,-24,-14
-29,-48,-19,39,-4,-34,19,24,-19,-14,-24,-14
-29,-48,-19,39,-4,-34,24,29,-14,-24,-24,-14
-29,-43,-14,36,-7,-29,24,34,-9,-24,-24,-14
-24,-43,-19,34,-2,-31,19,34,-9,-19,-24,-14
-24,-48,-24,36,0,-36,19,39,-9,-19,-24,-14
-24,-39,-14,31,-4,-26,24,29,-14,-29,-24,-14
-24,-39,-14,31,-4,-26,29,29,-14,-29,-24,-14
-24,-39,-14,31,-4,-26,29,39,-14,-29,-19,-14
-24,-39,-14,31,-4,-26,29,39,-14,-29,-19,-14
-24,-39,-14,31,-4,-26,29,48,-19,-19,-19,-14
-19,-39,-19,29,0,-29,29,53,-14,-19,-19,-14
-19,-39,-19,29,0,-29,29,53,-14,-19,-19,-14
-19,-39,-19,29,0,-29,24,53,-14,-19,-19,-14
-19,-39,-19,29,0,-29,24,43,-4,-19,-19,-14
-19,-39,-19,29,0,-29,29,43,-4,-19,-19,-14
-14,-39,-24,26,4,-31,29,53,-4,-14,-19,-9
-14,-39,-24,26,4,-31,29,53,-4,-14,-14,-9
-14,-29,-14,21,0,-21,29,63,-4,-14,-14,-9
-14,-24,-9,19,-2,-17,29,63,-4,-9,-14,-9
-14,-24,-9,19,-2,-17,29,68,0,-9,-9,-9
-14,-19,-4,17,-4,-12,24,68,0,-4,-9,-9
-9,-19,-9,14,0,-14,14,58,-9,0,0,0
-4,-19,-14,12,4,-17,14,68,0,4,0,4
-4,-19,-14,12,4,-17,14,78,4,9,0,4
-4,-19,-14,12,4,-17,14,82,9,19,4,4
0,-19,-19,9,9,-19,24,82,14,9,4,4
0,-19,-19,9,9,-19,24,87,19,9,4,9
0,-19,-19,9,9,-19,24,92,24,9,4,9
4,-14,-19,4,12,-17,24,92,29,14,4,9
9,-24,-34,7,21,-29,29,92,24,9,0,0
9,-24,-34,7,21,-29,29,102,34,14,9,4
9,-19,-29,4,19,-24,24,107,39,19,14,4
14,-19,-34,2,24,-26,24,112,39,24,14,9
24,-14,-39,-4,31,-26,24,112,39,34,24,24
29,-4,-34,-12,31,-19,24,122,48,39,24,24
29,0,-29,-14,29,-14,24,131,48,43,34,24
29,4,-24,-17,26,-9,24,131,48,43,34,24
24,-4,-29,-9,26,-17,24,146,58,53,34,34
34,0,-34,-17,34,-17,24,151,63,58,34,34
39,0,-39,-19,39,-19,29,165,63,63,39,39
43,4,-39,-24,41,-17,29,170,73,68,43,43
43,0,-43,-21,43,-21,19,165,78,63,48,34
48,-4,-53,-21,51,-29,19,175,78,68,48,39
48,-14,-63,-17,56,-39,24,190,82,73,53,39
48,-19,-68,-14,58,-43,24,200,87,78,58,39
63,-14,-78,-24,70,-46,19,204,102,87,58,43
68,0,-68,-34,68,-34,19,214,107,92,63,43
78,14,-63,-46,70,-24,24,224,112,102,68,53
78,19,-58,-48,68,-19,24,229,122,107,73,53
78,14,-63,-46,70,-24,34,248,131,102,78,48
82,14,-68,-48,75,-26,34,258,141,107,82,53
87,19,-68,-53,78,-24,34,268,146,112,82,58
92,29,-63,-61,78,-17,34,278,151,117,87,58
102,24,-78,-63,90,-26,34,287,161,126,92,73
107,19,-87,-63,97,-34,39,297,170,131,97,73
112,19,-92,-65,102,-36,39,307,175,131,102,78
117,19,-97,-68,107,-39,34,317,180,136,107,82
122,29,-92,-75,107,-31,43,331,185,141,112,87
126,29,-97,-78,112,-34,43,341,185,146,117,97
131,29,-102,-80,117,-36,43,351,200,156,126,97
136,34,-102,-85,119,-34,43,351,214,161,126,97
141,43,-97,-92,119,-26,34,361,214,175,131,112
146,43,-102,-95,124,-29,34,370,219,180,136,112
156,43,-112,-100,134,-34,34,375,229,185,136,117
165,48,-117,-107,141,-34,34,385,239,185,141,122
170,63,-107,-117,139,-21,24,395,234,200,146,122
170,63,-107,-117,139,-21,24,400,244,204,146,126
175,68,-107,-122,141,-19,29,405,248,209,151,126
180,78,-102,-129,141,-12,29,414,258,214,161,126
185,78,-107,-131,146,-14,29,424,263,219,165,126
190,82,-107,-136,148,-12,29,424,268,224,170,131
195,82,-112,-139,153,-14,29,429,273,229,175,136
195,82,-112,-139,153,-14,24,439,278,234,180,136
200,87,-112,-143,156,-12,19,429,283,239,195,141
204,92,-112,-148,158,-9,19,429,287,244,200,146
209,92,-117,-151,163,-12,14,429,292,253,200,151
209,92,-117,-151,163,-12,14,429,292,258,200,156
200,102,-97,-151,148,2,14,424,292,263,200,156
204,107,-97,-156,151,4,9,414,292,263,200,161
204,107,-97,-156,151,4,9,409,292,263,204,165
200,112,-87,-156,143,12,9,395,292,263,209,165
200,117,-82,-158,141,17,4,370,283,268,219,175
195,117,-78,-156,136,19,0,351,273,268,219,180
190,122,-68,-156,129,26,-4,331,268,268,219,180
180,122,-58,-151,119,31,-4,302,258,268,219,185
170,131,-39,-151,104,46,-4,278,263,258,219,175
165,131,-34,-148,100,48,-4,263,258,258,209,170
156,131,-24,-143,90,53,-4,244,248,248,200,165
146,126,-19,-136,82,53,-9,214,239,239,195,161
136,107,-29,-122,82,39,0,200,219,219,170,146
126,107,-19,-117,73,43,0,185,204,204,165,136
117,107,-9,-112,63,48,0,161,190,195,156,131
107,97,-9,-102,58,43,0,141,180,180,146,126
78,87,9,-82,34,48,0,131,156,151,126,102
73,73,0,-73,36,36,0,112,146,146,117,92
63,63,0,-63,31,31,0,92,126,131,107,87
53,53,0,-53,26,26,0,78,117,117,97,78
43,48,4,-46,19,26,0,68,102,112,92,68
34,34,0,-34,17,17,0,48,97,102,78,58
19,29,9,-24,4,19,4,34,87,87,68,53
9,19,9,-14,0,14,4,24,68,78,63,39
9,14,4,-12,2,9,0,19,73,53,53,43
4,4,0,-4,2,2,0,9,63,48,43,39
-4,0,4,2,-4,2,0,0,53,34,34,29
-14,0,14,7,-14,7,0,-9,48,29,24,19
-14,-14,0,14,-7,-7,14,0,29,29,24,19
-19,-14,4,17,-12,-4,14,-9,29,19,19,14
-24,-19,4,21,-14,-7,14,-9,24,19,9,14
-29,-24,4,26,-17,-9,14,-14,19,9,4,9
-29,-19,9,24,-19,-4,14,-19,19,4,9,0
-29,-19,9,24,-19,-4,14,-24,14,0,4,0
-29,-19,9,24,-19,-4,19,-24,9,-4,4,0
-34,-29,4,31,-19,-12,19,-29,4,-9,4,-4
-39,-39,0,39,-19,-19,19,-34,-4,-9,-4,-9
-43,-39,4,41,-24,-17,14,-34,-4,-9,-4,-14
-43,-39,4,41,-24,-17,14,-29,-4,-9,-4,-14
-43,-43,0,43,-21,-21,19,-29,-4,-14,-14,-14
-43,-39,4,41,-24,-17,29,-34,0,-9,-24,-14
-43,-43,0,43,-21,-21,29,-39,-4,-14,-24,-14
-43,-43,0,43,-21,-21,29,-39,-9,-24,-24,-14
-43,-43,0,43,-21,-21,29,-43,-9,-14,-24,-14
-43,-43,0,43,-21,-21,19,-43,-19,-24,-24,-14
-43,-43,0,43,-21,-21,19,-43,-19,-24,-24,-14
-43,-43,0,43,-21,-21,19,-43,-24,-29,-24,-14
-48,-48,0,48,-24,-24,19,-43,-24,-29,-29,-19
-39,-48,-9,43,-14,-29,19,-53,-14,-19,-29,-19
-39,-48,-9,43,-14,-29,24,-53,-14,-19,-29,-19
-39,-48,-9,43,-14,-29,24,-53,-14,-19,-29,-19
-39,-43,-4,41,-17,-24,19,-53,-19,-19,-29,-19
-39,-43,-4,41,-17,-24,19,-43,-19,-24,-29,-24
-43,-43,0,43,-21,-21,19,-48,-19,-24,-29,-24
-43,-43,0,43,-21,-21,19,-48,-19,-24,-29,-24
-39,-43,-4,41,-17,-24,19,-48,-19,-24,-29,-24
-43,-34,9,39,-26,-12,19,-48,-24,-24,-19,-24
-43,-39,4,41,-24,-17,19,-48,-24,-24,-19,-24
-48,-39,9,43,-29,-14,19,-43,-24,-24,-19,-24
-48,-39,9,43,-29,-14,24,-43,-24,-24,-24,-24
-48,-39,9,43,-29,-14,24,-43,-14,-14,-24,-24
-48,-39,9,43,-29,-14,19,-43,-19,-19,-24,-24
-48,-39,9,43,-29,-14,19,-48,-19,-19,-24,-24
-48,-39,9,43,-29,-14,19,-48,-19,-14,-24,-24
-48,-39,9,43,-29,-14,19,-48,-19,-24,-24,-24
-48,-39,9,43,-29,-14,24,-48,-19,-24,-24,-24
-48,-39,9,43,-29,-14,24,-48,-19,-24,-19,-24
-53,-39,14,46,-34,-12,19,-48,-19,-24,-19,-24
-43,-39,4,41,-24,-17,9,-53,-9,-24,-19,-24
-43,-39,4,41,-24,-17,14,-53,-9,-24,-24,-24
-43,-39,4,41,-24,-17,14,-58,-9,-24,-24,-24
-43,-39,4,41,-24,-17,9,-58,-9,-29,-24,-24
-48,-48,0,48,-24,-24,19,-48,-9,-29,-24,-24
-53,-48,4,51,-29,-21,19,-48,-9,-29,-24,-24
-53,-48,4,51,-29,-21,19,-48,-9,-29,-24,-24
-58,-48,9,53,-34,-19,19,-48,-9,-29,-24,-24
-58,-43,14,51,-36,-14,19,-48,-9,-29,-34,-34
-53,-43,9,48,-31,-17,19,-43,-9,-29,-34,-34
-43,-39,4,41,-24,-17,19,-43,-9,-29,-34,-34
-39,-39,0,39,-19,-19,19,-43,-9,-29,-34,-34
-43,-48,-4,46,-19,-26,9,-43,-19,-29,-34,-29
-48,-48,0,48,-24,-24,9,-43,-19,-29,-34,-29
-53,-48,4,51,-29,-21,9,-48,-19,-29,-34,-34
-63,-53,9,58,-36,-21,9,-48,-19,-29,-34,-34
-53,-43,9,48,-31,-17,9,-58,-19,-19,-24,-24
-53,-43,9,48,-31,-17,9,-58,-19,-19,-29,-29
-53,-43,9,48,-31,-17,9,-58,-19,-24,-29,-29
-53,-43,9,48,-31,-17,9,-58,-24,-24,-24,-29
-63,-43,19,53,-41,-12,14,-53,-14,-19,-24,-29
-58,-48,9,53,-34,-19,19,-48,-14,-19,-24,-29
-58,-53,4,56,-31,-24,24,-43,-9,-19,-19,-24
-58,-58,0,58,-29,-29,29,-39,-9,-19,-19,-24
-58,-58,0,58,-29,-29,19,-43,-19,-29,-24,-34
-58,-58,0,58,-29,-29,19,-43,-19,-29,-24,-34
-63,-58,4,61,-34,-26,19,-48,-19,-29,-24,-34
-63,-58,4,61,-34,-26,19,-48,-19,-29,-24,-34
-53,-48,4,51,-29,-21,19,-48,-19,-29,-34,-29
-53,-53,0,53,-26,-26,19,-48,-19,-29,-34,-29
-53,-53,0,53,-26,-26,19,-48,-19,-29,-34,-29
-53,-53,0,53,-26,-26,19,-48,-19,-29,-34,-29
-53,-43,9,48,-31,-17,9,-48,-24,-19,-24,-19
-53,-43,9,48,-31,-17,9,-53,-24,-19,-24,-19
-53,-39,14,46,-34,-12,9,-53,-24,-19,-24,-19
-53,-34,19,43,-36,-7,9,-53,-24,-19,-24,-14
-53,-34,19,43,-36,-7,9,-63,-19,-29,-24,-24
-53,-34,19,43,-36,-7,9,-58,-19,-29,-24,-24
-53,-43,9,48,-31,-17,9,-58,-19,-29,-24,-29
-53,-43,9,48,-31,-17,9,-58,-19,-29,-29,-29
-53,-53,0,53,-26,-26,19,-48,-14,-34,-29,-39
-53,-53,0,53,-26,-26,19,-48,-19,-34,-29,-39
-53,-58,-4,56,-24,-31,19,-53,-19,-34,-29,-43
-53,-58,-4,56,-24,-31,19,-53,-19,-34,-29,-43
-58,-48,9,53,-34,-19,9,-53,-29,-43,-39,-43
-58,-48,9,53,-34,-19,9,-53,-29,-53,-39,-43
-53,-48,4,51,-29,-21,9,-53,-29,-53,-43,-43
-53,-43,9,48,-31,-17,9,-53,-29,-48,-43,-43
-53,-53,0,53,-26,-26,19,-53,-19,-39,-34,-34
-53,-53,0,53,-26,-26,19,-53,-19,-39,-34,-34
-53,-53,0,53,-26,-26,19,-53,-19,-39,-34,-34
-53,-53,0,53,-26,-26,19,-53,-19,-39,-34,-34
-63,-53,9,58,-36,-21,9,-53,-29,-39,-34,-34
-63,-63,0,63,-31,-31,9,-53,-29,-39,-34,-34
-68,-63,4,65,-36,-29,9,-53,-34,-43,-34,-39
-68,-63,4,65,-36,-29,9,-53,-34,-43,-34,-39
-68,-63,4,65,-36,-29,19,-53,-34,-53,-34,-39
-68,-58,9,63,-39,-24,19,-58,-29,-48,-29,-34
-63,-58,4,61,-34,-26,19,-58,-29,-48,-29,-34
-63,-58,4,61,-34,-26,19,-58,-29,-48,-34,-39
-53,-48,4,51,-29,-21,9,-58,-29,-53,-34,-39
-58,-48,9,53,-34,-19,9,-58,-29,-53,-39,-39
-58,-48,9,53,-34,-19,9,-58,-34,-53,-39,-39
-58,-43,14,51,-36,-14,9,-58,-34,-53,-39,-39
-58,-53,4,56,-31,-24,9,-58,-29,-53,-48,-39
-58,-53,4,56,-31,-24,9,-58,-29,-53,-43,-39
-58,-53,4,56,-31,-24,9,-58,-24,-53,-43,-39
-58,-53,4,56,-31,-24,9,-63,-24,-53,-43,-39
-68,-63,4,65,-36,-29,19,-63,-34,-43,-43,-48
-68,-68,0,68,-34,-34,19,-63,-34,-43,-43,-48
-68,-68,0,68,-34,-34,19,-63,-34,-43,-43,-48
-68,-68,0,68,-34,-34,19,-63,-34,-43,-43,-48
-68,-58,9,63,-39,-24,19,-63,-34,-53,-34,-39
-68,-58,9,63,-39,-24,19,-63,-34,-53,-39,-39
-68,-58,9,63,-39,-24,19,-63,-34,-53,-39,-39
-73,-63,9,68,-41,-26,19,-63,-34,-58,-43,-48
-63,-53,9,58,-36,-21,19,-68,-29,-58,-53,-48
-63,-53,9,58,-36,-21,19,-68,-29,-58,-48,-48
-63,-53,9,58,-36,-21,19,-68,-29,-58,-48,-48
-63,-53,9,58,-36,-21,19,-68,-29,-58,-48,-43
-63,-53,9,58,-36,-21,19,-68,-29,-58,-48,-53
-63,-53,9,58,-36,-21,24,-68,-29,-58,-48,-53
-63,-53,9,58,-36,-21,24,-68,-29,-58,-48,-53
-63,-53,9,58,-36,-21,19,-68,-29,-58,-48,-53
-63,-53,9,58,-36,-21,19,-68,-39,-48,-39,-53
-63,-53,9,58,-36,-21,19,-68,-39,-48,-48,-53
-63,-53,9,58,-36,-21,19,-68,-39,-48,-39,-53
-63,-53,9,58,-36,-21,19,-68,-39,-48,-39,-53
-63,-43,19,53,-41,-12,9,-68,-39,-58,-53,-48
-63,-43,19,53,-41,-12,9,-68,-39,-58,-53,-48
-63,-43,19,53,-41,-12,9,-68,-39,-58,-53,-48
-63,-43,19,53,-41,-12,9,-68,-43,-58,-53,-48
-63,-53,9,58,-36,-21,19,-68,-34,-58,-53,-58
-63,-53,9,58,-36,-21,9,-68,-29,-58,-53,-58
-63,-53,9,58,-36,-21,19,-68,-29,-58,-53,-58
-68,-53,14,61,-41,-19,19,-68,-34,-63,-48,-58
-78,-53,24,65,-51,-14,19,-68,-43,-53,-48,-58
-78,-53,24,65,-51,-14,14,-68,-43,-53,-53,-58
-73,-53,19,63,-46,-17,14,-68,-43,-48,-53,-58
-73,-53,19,63,-46,-17,14,-73,-43,-48,-48,-58
-73,-58,14,65,-43,-21,14,-73,-43,-48,-39,-43
-73,-58,14,65,-43,-21,14,-73,-43,-48,-39,-43
-73,-58,14,65,-43,-21,19,-68,-43,-53,-39,-43
-73,-63,9,68,-41,-26,19,-68,-43,-53,-39,-48
-78,-53,24,65,-51,-14,9,-68,-43,-63,-48,-58
-78,-53,24,65,-51,-14,9,-73,-43,-63,-48,-58
-78,-53,24,65,-51,-14,9,-73,-43,-68,-43,-63
-78,-58,19,68,-48,-19,9,-73,-43,-68,-43,-63
-78,-58,19,68,-48,-19,9,-73,-43,-68,-53,-53
-78,-53,24,65,-51,-14,4,-73,-43,-68,-53,-53
-78,-53,24,65,-51,-14,4,-73,-43,-68,-53,-53
-78,-53,24,65,-51,-14,4,-73,-43,-63,-53,-48
-78,-53,24,65,-51,-14,14,-63,-43,-63,-43,-48
-78,-53,24,65,-51,-14,14,-63,-43,-63,-43,-48
-73,-53,19,63,-46,-17,14,-63,-43,-63,-39,-48
-73,-53,19,63,-46,-17,14,-63,-43,-63,-39,-48
-73,-63,9,68,-41,-26,19,-73,-43,-68,-53,-48
-73,-63,9,68,-41,-26,19,-73,-43,-68,-53,-48
-73,-63,9,68,-41,-26,19,-68,-43,-68,-53,-48
-73,-63,9,68,-41,-26,19,-68,-43,-63,-53,-48
-63,-58,4,61,-34,-26,9,-78,-53,-63,-53,-58
-63,-58,4,61,-34,-26,9,-78,-53,-63,-53,-58
-63,-53,9,58,-36,-21,9,-78,-48,-63,-48,-53
-63,-53,9,58,-36,-21,9,-78,-48,-63,-48,-53
-63,-58,4,61,-34,-26,14,-78,-48,-73,-48,-63
-63,-58,4,61,-34,-26,14,-78,-43,-63,-48,-58
-58,-48,9,53,-34,-19,14,-78,-43,-63,-48,-58
-58,-43,14,51,-36,-14,14,-78,-43,-63,-48,-58
-68,-53,14,61,-41,-19,14,-78,-53,-63,-53,-58
-78,-48,29,63,-53,-9,14,-78,-53,-53,-43,-58
-78,-48,29,63,-53,-9,9,-78,-48,-48,-48,-48
-68,-48,19,58,-43,-14,9,-68,-43,-58,-39,-58
-68,-48,19,58,-43,-14,9,-68,-39,-58,-39,-58
-68,-48,19,58,-43,-14,9,-68,-34,-58,-39,-58
-68,-48,19,58,-43,-14,9,-68,-29,-58,-39,-58
-58,-39,19,48,-39,-9,9,-68,-39,-58,-48,-53
-53,-34,19,43,-36,-7,9,-63,-34,-58,-48,-53
-53,-34,19,43,-36,-7,9,-63,-34,-53,-48,-53
-53,-29,24,41,-39,-2,9,-63,-34,-53,-43,-53
-53,-24,29,39,-41,2,0,-63,-24,-48,-43,-53
-53,-19,34,36,-43,7,0,-63,-19,-43,-34,-43
-43,-9,34,26,-39,12,0,-63,-14,-34,-29,-39
-39,0,39,19,-39,19,0,-58,-9,-29,-24,-29
-29,19,48,4,-39,34,0,-58,0,-9,-4,-14
-24,39,63,-7,-43,51,-9,-63,4,-4,0,-9
-24,48,73,-12,-48,61,-19,-68,9,0,4,-4
-24,63,87,-19,-56,75,-24,-73,14,4,9,0
-24,68,92,-21,-58,80,-24,-78,24,4,14,0
-19,68,87,-24,-53,78,-24,-78,24,4,14,0
-19,68,87,-24,-53,78,-24,-73,19,4,14,0
-9,58,68,-24,-39,63,-24,-73,14,0,14,0
-4,48,53,-21,-29,51,-14,-73,19,-9,4,-4
0,58,58,-29,-29,58,-19,-73,14,-9,4,-4
4,63,58,-34,-26,61,-19,-68,14,-4,4,0
9,63,53,-36,-21,58,-24,-63,24,0,4,0
19,63,43,-41,-12,53,-14,-48,14,9,9,4
24,63,39,-43,-7,51,-14,-43,19,9,9,4
29,63,34,-46,-2,48,-9,-39,19,14,9,4
29,63,34,-46,-2,48,-9,-34,19,14,14,9
29,68,39,-48,-4,53,-19,-39,19,19,24,19
29,58,29,-43,0,43,-19,-39,19,19,19,14
29,48,19,-39,4,34,-19,-39,19,19,19,14
29,43,14,-36,7,29,-14,-39,19,19,19,19
9,29,19,-19,-4,24,-9,-39,9,14,9,14
4,19,14,-12,-4,17,-4,-29,0,9,9,9
0,14,14,-7,-7,14,-4,-39,-4,0,9,-4
-9,4,14,2,-12,9,-9,-48,-14,-14,0,-19
-29,-19,9,24,-19,-4,-9,-68,-19,-19,-9,-19
-34,-29,4,31,-19,-12,-9,-82,-29,-24,-24,-24
-48,-29,19,39,-34,-4,-9,-82,-29,-24,-24,-24
-53,-29,24,41,-39,-2,-4,-82,-19,-19,-24,-24
-63,-43,19,53,-41,-12,14,-73,-19,-29,-34,-43
-68,-48,19,58,-43,-14,14,-78,-24,-39,-39,-48
-68,-58,9,63,-39,-24,14,-78,-34,-53,-53,-53
-78,-68,9,73,-43,-29,19,-78,-39,-53,-53,-58
-78,-63,14,70,-46,-24,9,-78,-43,-63,-58,-53
-78,-63,14,70,-46,-24,9,-78,-48,-68,-63,-63
-78,-63,14,70,-46,-24,9,-78,-48,-68,-63,-63
-82,-63,19,73,-51,-21,14,-78,-48,-68,-63,-58
-82,-73,9,78,-46,-31,4,-87,-58,-78,-73,-63
-82,-73,9,78,-46,-31,4,-87,-58,-73,-73,-68
-82,-68,14,75,-48,-26,4,-87,-58,-73,-73,-73
-82,-68,14,75,-48,-26,4,-87,-53,-73,-73,-78
-73,-63,9,68,-41,-26,4,-78,-53,-73,-73,-73
-73,-58,14,65,-43,-21,4,-78,-53,-73,-73,-68
-73,-53,19,63,-46,-17,4,-78,-53,-73,-73,-63
-73,-48,24,61,-48,-12,9,-78,-53,-73,-73,-58
-73,-58,14,65,-43,-21,19,-78,-43,-73,-73,-68
-78,-58,19,68,-48,-19,19,-73,-43,-73,-73,-68
-78,-58,19,68,-48,-19,19,-73,-43,-73,-73,-68
-73,-58,14,65,-43,-21,19,-73,-43,-73,-73,-68
-73,-63,9,68,-41,-26,19,-73,-43,-73,-73,-68
-73,-63,9,68,-41,-26,19,-73,-43,-73,-73,-68
-78,-58,19,68,-48,-19,19,-73,-43,-73,-73,-68
-78,-58,19,68,-48,-19,19,-73,-39,-73,-73,-68
-78,-58,19,68,-48,-19,9,-82,-48,-73,-63,-58
-78,-58,19,68,-48,-19,9,-82,-48,-68,-63,-58
-78,-58,19,68,-48,-19,14,-82,-39,-68,-63,-58
-78,-58,19,68,-48,-19,14,-82,-48,-68,-63,-58
-87,-58,29,73,-58,-14,24,-82,-48,-58,-63,-68
-87,-58,29,73,-58,-14,24,-82,-48,-58,-63,-63
-87,-58,29,73,-58,-14,24,-82,-48,-63,-63,-63
-87,-63,24,75,-56,-19,24,-82,-48,-63,-63,-63
-87,-73,14,80,-51,-29,24,-73,-39,-63,-68,-63
-97,-73,24,85,-61,-24,29,-68,-34,-58,-58,-53
-97,-82,14,90,-56,-34,29,-63,-24,-48,-53,-63
-97,-78,19,87,-58,-29,39,-53,-14,-43,-58,-63
-92,-68,24,80,-58,-21,48,-39,4,-29,-43,-53
-92,-63,29,78,-61,-17,48,-34,29,-14,-29,-39
-92,-63,29,78,-61,-17,53,-43,48,14,-9,-24
-82,-63,19,73,-51,-21,43,-43,58,34,14,-4
-58,-63,-4,61,-26,-34,29,-39,68,63,43,19
-39,-58,-19,48,-9,-39,19,-9,78,87,63,39
4,-68,-73,31,39,-70,19,53,92,122,82,53
68,-78,-146,4,107,-112,9,136,112,156,107,73
136,-78,-214,-29,175,-146,0,229,156,204,151,92
229,-48,-278,-90,253,-163,-9,331,229,273,214,136
341,4,-336,-173,339,-165,-39,429,331,366,287,214
458,97,-361,-278,409,-131,-102,448,419,463,390,297
551,200,-351,-375,451,-75,-165,429,502,570,483,390
634,312,-322,-473,478,-4,-239,400,575,658,575,478
712,424,-287,-568,500,68,-307,322,590,712,639,551
756,458,-297,-607,527,80,-361,248,492,668,600,531
756,400,-356,-578,556,21,-366,219,287,488,453,419
741,307,-434,-524,588,-63,-361,175,73,292,297,307
707,268,-439,-488,573,-85,-385,53,-126,156,200,239
639,229,-409,-434,524,-90,-409,-151,-312,39,126,185
527,204,-322,-366,424,-58,-429,-390,-458,-68,63,136
409,190,-219,-300,314,-14,-453,-619,-556,-151,9,107
283,185,-97,-234,190,43,-444,-800,-610,-195,-24,87
141,180,39,-161,51,109,-400,-922,-624,-239,-68,58
39,146,107,-92,-34,126,-351,-941,-610,-268,-102,24
-14,97,112,-41,-63,104,-317,-888,-590,-297,-136,-14
-48,53,102,-2,-75,78,-292,-829,-600,-317,-165,-58
-68,19,87,24,-78,53,-283,-771,-590,-331,-200,-92
-68,-9,58,39,-63,24,-263,-702,-561,-336,-214,-117
-58,-39,19,48,-39,-9,-229,-619,-531,-336,-224,-131
-48,-53,-4,51,-21,-29,-204,-536,-507,-336,-229,-146
-58,-82,-24,70,-17,-53,-165,-463,-463,-317,-229,-151
-68,-92,-24,80,-21,-58,-126,-390,-405,-283,-204,-136
-53,-87,-34,70,-9,-61,-97,-312,-326,-244,-170,-122
-48,-82,-34,65,-7,-58,-87,-253,-268,-209,-146,-117
-53,-78,-24,65,-14,-51,-63,-204,-234,-170,-131,-97
-39,-68,-29,53,-4,-48,-39,-151,-180,-136,-102,-78
-34,-58,-24,46,-4,-41,-29,-122,-146,-122,-87,-68
-29,-58,-29,43,0,-43,-34,-112,-126,-102,-73,-53
-34,-53,-19,43,-7,-36,-19,-92,-107,-82,-63,-48
-34,-39,-4,36,-14,-21,-14,-68,-87,-68,-58,-39
-34,-39,-4,36,-14,-21,-9,-63,-73,-63,-48,-34
-24,-39,-14,31,-4,-26,-19,-53,-68,-48,-48,-39
-39,-39,0,39,-19,-19,-14,-48,-63,-58,-48,-39
-39,-39,0,39,-19,-19,-14,-39,-58,-53,-48,-39
-39,-43,-4,41,-17,-24,-4,-39,-58,-53,-48,-39
-39,-43,-4,41,-17,-24,-4,-34,-53,-53,-48,-39
-29,-53,-24,41,-2,-39,0,-29,-63,-53,-48,-39
-34,-53,-19,43,-7,-36,0,-29,-58,-53,-48,-39
-34,-53,-19,43,-7,-36,4,-24,-58,-48,-48,-39
-34,-58,-24,46,-4,-41,4,-19,-48,-48,-48,-39
-39,-58,-19,48,-9,-39,4,-14,-39,-48,-48,-43
-39,-58,-19,48,-9,-39,9,-14,-39,-48,-43,-43
-39,-58,-19,48,-9,-39,9,-14,-39,-48,-43,-43
-43,-53,-9,48,-17,-31,9,-14,-39,-43,-43,-43
-43,-53,-9,48,-17,-31,9,-9,-39,-39,-53,-39
-43,-58,-14,51,-14,-36,9,-9,-39,-39,-53,-39
-43,-58,-14,51,-14,-36,9,-9,-34,-39,-48,-43
-39,-58,-19,48,-9,-39,9,-4,-34,-39,-48,-43
-39,-58,-19,48,-9,-39,19,-4,-43,-39,-48,-48
-39,-58,-19,48,-9,-39,19,-4,-39,-39,-48,-48
-39,-58,-19,48,-9,-39,19,0,-39,-39,-48,-48
-39,-58,-19,48,-9,-39,19,0,-39,-39,-48,-48
-29,-48,-19,39,-4,-34,19,9,-29,-39,-48,-48
-29,-48,-19,39,-4,-34,19,9,-29,-39,-48,-43
-29,-48,-19,39,-4,-34,19,9,-29,-34,-43,-43
-29,-48,-19,39,-4,-34,19,14,-29,-34,-43,-43
-19,-39,-19,29,0,-29,14,19,-34,-34,-34,-34
-19,-34,-14,26,-2,-24,14,24,-29,-34,-34,-34
-14,-34,-19,24,2,-26,9,24,-29,-29,-34,-34
-14,-39,-24,26,4,-31,9,29,-29,-29,-34,-34
-24,-48,-24,36,0,-36,14,19,-24,-29,-34,-34
-24,-48,-24,36,0,-36,19,19,-24,-29,-34,-34
-24,-48,-24,36,0,-36,19,29,-24,-29,-29,-34
-24,-48,-24,36,0,-36,19,29,-24,-29,-29,-34
-24,-39,-14,31,-4,-26,19,29,-19,-29,-29,-34
-19,-39,-19,29,0,-29,19,34,-14,-29,-29,-34
-19,-39,-19,29,0,-29,19,34,-14,-29,-29,-34
-19,-39,-19,29,0,-29,14,34,-14,-29,-29,-34
-19,-48,-29,34,4,-39,14,43,-14,-29,-39,-43
-19,-48,-29,34,4,-39,19,43,-14,-29,-39,-43
-14,-48,-34,31,9,-41,19,53,-14,-24,-39,-39
-14,-48,-34,31,9,-41,19,53,-14,-24,-34,-39
-14,-39,-24,26,4,-31,29,63,-14,-24,-24,-29
-14,-34,-19,24,2,-26,29,63,-14,-19,-24,-29
-14,-34,-19,24,2,-26,29,68,-9,-19,-19,-29
-14,-29,-14,21,0,-21,24,68,-9,-14,-19,-29
-19,-29,-9,24,-4,-19,14,58,-9,-14,-29,-29
-14,-29,-14,21,0,-21,14,68,0,-14,-29,-24
-14,-29,-14,21,0,-21,14,78,4,-14,-29,-24
-14,-29,-14,21,0,-21,14,82,9,-9,-24,-24
0,-34,-34,17,17,-34,24,82,9,-9,-24,-34
0,-39,-39,19,19,-39,24,87,9,-9,-24,-29
0,-43,-43,21,21,-43,24,92,9,-9,-24,-29
4,-43,-48,19,26,-46,24,92,9,-4,-24,-29
9,-43,-53,17,31,-48,29,92,4,0,-19,-29
9,-43,-53,17,31,-48,29,102,14,4,-9,-24
9,-39,-48,14,29,-43,24,107,19,9,-4,-24
14,-39,-53,12,34,-46,24,112,19,14,-4,-19
4,-29,-34,12,19,-31,24,112,29,4,-4,-4
9,-24,-34,7,21,-29,24,122,39,9,-4,-4
9,-24,-34,7,21,-29,24,131,39,14,4,-4
9,-24,-34,7,21,-29,24,131,39,14,4,-4
14,-24,-39,4,26,-31,24,146,48,24,4,-4
24,-19,-43,-2,34,-31,24,151,53,29,4,-4
29,-19,-48,-4,39,-34,29,165,53,34,9,0
34,-14,-48,-9,41,-31,29,170,63,39,14,4
43,-4,-48,-19,46,-26,19,175,68,34,9,-4
48,-4,-53,-21,51,-29,19,185,68,39,9,0
48,-9,-58,-19,53,-34,24,200,73,43,14,0
48,-9,-58,-19,53,-34,24,209,78,48,19,0
53,-19,-73,-17,63,-46,19,204,82,58,29,14
58,-9,-68,-24,63,-39,19,214,87,63,34,14
68,0,-68,-34,68,-34,24,224,92,73,39,24
68,0,-68,-34,68,-34,24,229,102,78,43,24
78,4,-73,-41,75,-34,24,248,122,92,58,29
82,4,-78,-43,80,-36,24,258,131,97,63,34
87,9,-78,-48,82,-34,24,268,136,102,63,39
92,19,-73,-56,82,-26,24,278,141,107,68,39
92,19,-73,-56,82,-26,24,287,141,107,73,43
97,19,-78,-58,87,-29,29,297,151,112,78,43
102,24,-78,-63,90,-26,29,307,156,112,82,48
107,29,-78,-68,92,-24,24,317,161,117,87,53
102,48,-53,-75,78,-2,14,322,165,136,92,68
107,48,-58,-78,82,-4,14,331,165,146,97,78
112,48,-63,-80,87,-7,14,341,180,161,107,78
117,53,-63,-85,90,-4,14,341,195,170,107,78
131,63,-68,-97,100,-2,24,361,204,170,102,73
136,63,-73,-100,104,-4,24,370,209,170,107,73
146,63,-82,-104,114,-9,24,375,219,170,107,78
156,68,-87,-112,122,-9,24,385,229,165,112,82
151,68,-82,-109,117,-7,34,405,229,170,126,82
151,63,-87,-107,119,-12,34,409,234,175,126,87
156,63,-92,-109,124,-14,39,414,234,180,131,87
161,68,-92,-114,126,-12,39,424,239,185,141,87
165,58,-107,-112,136,-24,39,434,244,190,141,87
170,63,-107,-117,139,-21,39,434,248,195,141,92
