I, II, III, aVR, aVL, aVF, V1, V2, V3, V4, V5, V6
341,527,185,-434,78,356,-800,-888,-556,-146,175,400
278,409,131,-344,73,270,-614,-692,-444,-117,126,302
214,292,78,-253,68,185,-429,-497,-331,-87,78,204
117,190,73,-153,21,131,-287,-380,-268,-97,29,112
19,87,68,-53,-24,78,-146,-263,-204,-107,-19,19
-9,29,39,-9,-24,34,-87,-200,-180,-107,-53,-34
-39,-29,9,34,-24,-9,-29,-136,-156,-107,-87,-87
-58,-43,14,51,-36,-14,4,-112,-141,-107,-87,-97
-78,-58,19,68,-48,-19,39,-87,-126,-107,-87,-107
-82,-73,9,78,-46,-31,48,-73,-117,-107,-92,-117
-87,-87,0,87,-43,-43,58,-58,-107,-107,-97,-126
-87,-87,0,87,-43,-43,73,-48,-107,-107,-102,-126
-87,-87,0,87,-43,-43,87,-39,-107,-107,-107,-126
-92,-92,0,92,-46,-46,97,-39,-107,-107,-107,-131
-97,-97,0,97,-48,-48,107,-39,-107,-107,-107,-136
-97,-97,0,97,-48,-48,112,-34,-102,-107,-107,-141
-97,-97,0,97,-48,-48,117,-29,-97,-107,-107,-146
-97,-97,0,97,-48,-48,122,-24,-97,-107,-112,-151
-97,-97,0,97,-48,-48,126,-19,-97,-107,-117,-156
-97,-92,4,95,-51,-43,131,-14,-97,-107,-117,-156
-97,-87,9,92,-53,-39,136,-9,-97,-107,-117,-156
-97,-87,9,92,-53,-39,136,-9,-97,-107,-117,-156
-97,-87,9,92,-53,-39,136,-9,-97,-107,-117,-156
-97,-87,9,92,-53,-39,136,-4,-92,-102,-117,-156
-97,-87,9,92,-53,-39,136,0,-87,-97,-117,-156
-97,-87,9,92,-53,-39,136,0,-82,-97,-117,-156
-97,-87,9,92,-53,-39,136,0,-78,-97,-117,-156
-97,-82,14,90,-56,-34,136,9,-78,-92,-112,-151
-97,-78,19,87,-58,-29,136,19,-78,-87,-107,-146
-97,-78,19,87,-58,-29,136,24,-73,-82,-102,-146
-97,-78,19,87,-58,-29,136,29,-68,-78,-97,-146
-92,-78,14,85,-53,-31,136,34,-63,-78,-97,-146
-87,-78,9,82,-48,-34,136,39,-58,-78,-97,-146
-87,-73,14,80,-51,-29,141,43,-48,-73,-92,-141
-87,-68,19,78,-53,-24,146,48,-39,-68,-87,-136
-87,-68,19,78,-53,-24,151,53,-39,-63,-87,-136
-87,-68,19,78,-53,-24,156,58,-39,-58,-87,-136
-87,-58,29,73,-58,-14,156,63,-29,-53,-82,-131
-87,-48,39,68,-63,-4,156,68,-19,-48,-78,-126
-73,-43,29,58,-51,-7,156,78,-14,-48,-73,-126
-58,-39,19,48,-39,-9,156,87,-9,-48,-68,-126
-58,-34,24,46,-41,-4,161,97,0,-39,-63,-117
-58,-29,29,43,-43,0,165,107,9,-29,-58,-107
-68,-19,48,43,-58,14,170,122,29,-19,-48,-102
-78,-9,68,43,-73,29,175,136,48,-9,-39,-97
-63,0,63,31,-63,31,175,146,48,-4,-39,-97
-48,9,58,19,-53,34,175,156,48,0,-39,-97
-43,19,63,12,-53,41,175,165,63,9,-29,-82
-39,29,68,4,-53,48,175,175,78,19,-19,-68
-29,43,73,-7,-51,58,180,195,92,29,-14,-63
-19,58,78,-19,-48,68,185,214,107,39,-9,-58
-14,68,82,-26,-48,75,185,234,126,58,0,-53
-9,78,87,-34,-48,82,185,253,146,78,9,-48
0,97,97,-48,-48,97,185,273,165,92,24,-34
9,117,107,-63,-48,112,185,292,185,107,39,-19
14,136,122,-75,-53,129,185,317,214,126,58,-4
19,156,136,-87,-58,146,185,341,244,146,78,9
34,175,141,-104,-53,158,185,370,268,165,97,24
48,195,146,-122,-48,170,185,400,292,185,117,39
63,214,151,-139,-43,183,185,429,326,209,136,63
78,234,156,-156,-39,195,185,458,361,234,156,87
97,258,161,-178,-31,209,180,483,395,253,175,102
117,283,165,-200,-24,224,175,507,429,273,195,117
131,297,165,-214,-17,231,165,531,453,292,214,141
146,312,165,-229,-9,239,156,556,478,312,234,165
161,336,175,-248,-7,256,146,585,512,336,258,180
175,361,185,-268,-4,273,136,614,546,361,283,195
185,366,180,-275,2,273,131,629,566,380,297,209
195,370,175,-283,9,273,126,644,585,400,312,224
209,375,165,-292,21,270,112,653,595,409,322,234
224,380,156,-302,34,268,97,663,605,419,331,244
234,380,146,-307,43,263,82,653,605,419,331,244
244,380,136,-312,53,258,68,644,605,419,331,244
244,370,126,-307,58,248,48,600,570,400,322,244
244,361,117,-302,63,239,29,556,536,380,312,244
229,336,107,-283,61,222,24,517,492,361,292,224
214,312,97,-263,58,204,19,478,448,341,273,204
200,287,87,-244,56,187,4,414,395,302,248,185
185,263,78,-224,53,170,-9,351,341,263,224,165
170,234,63,-202,53,148,-9,302,292,229,200,136
156,204,48,-180,53,126,-9,253,244,195,175,107
136,175,39,-156,48,107,-9,204,200,165,146,82
117,146,29,-131,43,87,-9,156,156,136,117,58
97,131,34,-114,31,82,-9,117,112,102,87,39
78,117,39,-97,19,78,-9,78,68,68,58,19
63,92,29,-78,17,61,-9,43,39,43,39,4
48,68,19,-58,14,43,-9,9,9,19,19,-9
34,58,24,-46,4,41,-4,-14,-14,9,9,-24
19,48,29,-34,-4,39,0,-39,-39,0,0,-39
9,34,24,-21,-7,29,0,-48,-48,-9,-4,-43
0,19,19,-9,-9,19,0,-58,-58,-19,-9,-48
-4,19,24,-7,-14,21,0,-73,-73,-29,-19,-53
-9,19,29,-4,-19,24,0,-87,-87,-39,-29,-58
-14,14,29,0,-21,21,4,-92,-97,-48,-29,-58
-19,9,29,4,-24,19,9,-97,-107,-58,-29,-58
-24,-4,19,14,-21,7,14,-102,-107,-58,-29,-58
-29,-19,9,24,-19,-4,19,-107,-107,-58,-29,-58
-29,-19,9,24,-19,-4,19,-107,-107,-58,-39,-68
-29,-19,9,24,-19,-4,19,-107,-107,-58,-48,-78
-29,-19,9,24,-19,-4,19,-112,-117,-63,-48,-78
-29,-19,9,24,-19,-4,19,-117,-126,-68,-48,-78
-29,-19,9,24,-19,-4,19,-117,-126,-68,-48,-78
-29,-19,9,24,-19,-4,19,-117,-126,-68,-48,-78
-29,-19,9,24,-19,-4,19,-122,-126,-68,-48,-78
-29,-19,9,24,-19,-4,19,-126,-126,-68,-48,-78
-29,-24,4,26,-17,-9,19,-126,-126,-68,-48,-78
-29,-29,0,29,-14,-14,19,-126,-126,-68,-48,-78
-43,-39,4,41,-24,-17,29,-122,-122,-58,-39,-78
-58,-48,9,53,-34,-19,39,-117,-117,-48,-29,-78
-58,-48,9,53,-34,-19,39,-117,-117,-48,-29,-78
-58,-48,9,53,-34,-19,39,-117,-117,-48,-29,-78
-58,-53,4,56,-31,-24,43,-112,-112,-48,-34,-78
-58,-58,0,58,-29,-29,48,-107,-107,-48,-39,-78
-58,-58,0,58,-29,-29,53,-107,-107,-53,-43,-82
-58,-58,0,58,-29,-29,58,-107,-107,-58,-48,-87
-58,-53,4,56,-31,-24,58,-107,-107,-58,-48,-87
-58,-48,9,53,-34,-19,58,-107,-107,-58,-48,-87
-58,-48,9,53,-34,-19,58,-102,-107,-58,-53,-87
-58,-48,9,53,-34,-19,58,-97,-107,-58,-58,-87
-63,-53,9,58,-36,-21,63,-92,-107,-58,-58,-92
-68,-58,9,63,-39,-24,68,-87,-107,-58,-58,-97
-73,-63,9,68,-41,-26,68,-87,-107,-58,-58,-97
-78,-68,9,73,-43,-29,68,-87,-107,-58,-58,-97
-78,-68,9,73,-43,-29,68,-78,-102,-58,-58,-97
-78,-68,9,73,-43,-29,68,-68,-97,-58,-58,-97
-78,-68,9,73,-43,-29,68,-68,-92,-48,-58,-102
-78,-68,9,73,-43,-29,68,-68,-87,-39,-58,-107
-82,-78,4,80,-43,-36,68,-58,-82,-39,-58,-107
-87,-87,0,87,-43,-43,68,-48,-78,-39,-58,-107
-87,-87,0,87,-43,-43,63,-48,-78,-48,-63,-107
-87,-87,0,87,-43,-43,58,-48,-78,-58,-68,-107
-82,-82,0,82,-41,-41,43,-43,-78,-58,-68,-107
-78,-78,0,78,-39,-39,29,-39,-78,-58,-68,-107
-78,-78,0,78,-39,-39,43,-39,-78,-58,-68,-112
-78,-78,0,78,-39,-39,58,-39,-78,-58,-68,-117
-87,-92,-4,90,-41,-48,39,-39,-78,-58,-68,-117
-97,-107,-9,102,-43,-58,19,-39,-78,-58,-68,-117
-112,-107,4,109,-58,-51,34,-29,-68,-48,-58,-117
-126,-107,19,117,-73,-43,48,-19,-58,-39,-48,-117
-97,-107,-9,102,-43,-58,87,-39,-78,-53,-68,-117
-68,-107,-39,87,-14,-73,126,-58,-97,-68,-87,-117
-68,-102,-34,85,-17,-68,107,-73,-97,-68,-78,-117
-68,-97,-29,82,-19,-63,87,-87,-97,-68,-68,-117
-97,-97,0,97,-48,-48,87,-58,-82,-48,-63,-107
-126,-97,29,112,-78,-34,87,-29,-68,-29,-58,-97
-117,-97,19,107,-68,-39,87,-14,-58,-29,-58,-97
-107,-97,9,102,-58,-43,87,0,-48,-29,-58,-97
-102,-87,14,95,-58,-36,87,-19,-68,-43,-58,-97
-97,-78,19,87,-58,-29,87,-39,-87,-58,-58,-97
-97,-78,19,87,-58,-29,87,-48,-92,-63,-63,-102
-97,-78,19,87,-58,-29,87,-58,-97,-68,-68,-107
-82,-78,4,80,-43,-36,82,-63,-97,-68,-68,-107
-68,-78,-9,73,-29,-43,78,-68,-97,-68,-68,-107
-68,-87,-19,78,-24,-53,73,-68,-97,-73,-68,-107
-68,-97,-29,82,-19,-63,68,-68,-97,-78,-68,-107
-68,-82,-14,75,-26,-48,58,-68,-97,-78,-73,-112
-68,-68,0,68,-34,-34,48,-68,-97,-78,-78,-117
-68,-63,4,65,-36,-29,48,-68,-97,-78,-78,-117
-68,-58,9,63,-39,-24,48,-68,-97,-78,-78,-117
-78,-58,19,68,-48,-19,43,-73,-97,-78,-78,-117
-87,-58,29,73,-58,-14,39,-78,-97,-78,-78,-117
-87,-58,29,73,-58,-14,39,-78,-97,-78,-73,-112
-87,-58,29,73,-58,-14,39,-78,-97,-78,-68,-107
-87,-58,29,73,-58,-14,39,-82,-97,-78,-68,-107
-87,-58,29,73,-58,-14,39,-87,-97,-78,-68,-107
-87,-58,29,73,-58,-14,34,-87,-102,-78,-78,-112
-87,-58,29,73,-58,-14,29,-87,-107,-78,-87,-117
-87,-53,34,70,-61,-9,24,-87,-112,-82,-87,-117
-87,-48,39,68,-63,-4,19,-87,-117,-87,-87,-117
-87,-34,53,61,-70,9,14,-97,-126,-102,-97,-122
-87,-19,68,53,-78,24,9,-107,-136,-117,-107,-126
-87,-4,82,46,-85,39,9,-107,-146,-117,-107,-126
-87,9,97,39,-92,53,9,-107,-156,-117,-107,-126
-87,-4,82,46,-85,39,9,-107,-146,-112,-107,-126
-87,-19,68,53,-78,24,9,-107,-136,-107,-107,-126
-87,-19,68,53,-78,24,9,-107,-136,-107,-107,-131
-87,-19,68,53,-78,24,9,-107,-136,-107,-107,-136
-82,-19,63,51,-73,21,4,-107,-141,-107,-102,-136
-78,-19,58,48,-68,19,0,-107,-146,-107,-97,-136
-78,9,87,34,-82,48,0,-117,-146,-107,-97,-136
-78,39,117,19,-97,78,0,-126,-146,-107,-97,-136
-82,19,102,31,-92,61,0,-117,-146,-107,-97,-136
-87,0,87,43,-87,43,0,-107,-146,-107,-97,-136
-87,0,87,43,-87,43,0,-107,-146,-112,-107,-141
-87,0,87,43,-87,43,0,-107,-146,-117,-117,-146
-87,19,107,34,-97,63,0,-112,-151,-126,-117,-146
-87,39,126,24,-107,82,0,-117,-156,-136,-117,-146
-87,39,126,24,-107,82,0,-117,-156,-136,-117,-141
-87,39,126,24,-107,82,0,-117,-156,-136,-117,-136
-87,39,126,24,-107,82,-9,-117,-151,-126,-107,-126
-87,39,126,24,-107,82,-19,-117,-146,-117,-97,-117
-87,39,126,24,-107,82,-19,-117,-146,-126,-107,-131
-87,39,126,24,-107,82,-19,-117,-146,-136,-117,-146
-87,48,136,19,-112,92,-19,-117,-156,-136,-117,-146
-87,58,146,14,-117,102,-19,-117,-165,-136,-117,-146
-82,68,151,7,-117,109,-4,-107,-151,-126,-112,-136
-78,78,156,0,-117,117,9,-97,-136,-117,-107,-126
-68,82,151,-7,-109,117,14,-92,-126,-112,-107,-126
-58,87,146,-14,-102,117,19,-87,-117,-107,-107,-126
-58,97,156,-19,-107,126,24,-82,-112,-97,-97,-117
-53,107,161,-26,-107,134,29,-73,-102,-87,-87,-112
-53,117,170,-31,-112,143,39,-68,-92,-82,-82,-107
-39,122,161,-41,-100,141,39,-63,-92,-78,-78,-107
-43,126,170,-41,-107,148,34,-58,-87,-73,-68,-97
-48,126,175,-39,-112,151,24,-58,-87,-63,-58,-92
-9,146,156,-68,-82,151,4,-58,-82,-58,-53,-87
24,151,126,-87,-51,139,-14,-53,-78,-53,-43,-82
53,151,97,-102,-21,124,-24,-48,-78,-63,-53,-82
73,156,82,-114,-4,119,-39,-48,-78,-73,-63,-87
58,156,97,-107,-19,126,-48,-63,-92,-73,-63,-87
29,151,122,-90,-46,136,-53,-78,-97,-73,-68,-87
19,170,151,-95,-65,161,-58,-87,-117,-97,-78,-87
4,190,185,-97,-90,187,-63,-92,-131,-107,-87,-92
4,156,151,-80,-73,153,-63,-92,-131,-107,-87,-92
9,117,107,-63,-48,112,-63,-92,-131,-107,-82,-92
9,136,126,-73,-58,131,-68,-107,-146,-122,-92,-97
14,156,141,-85,-63,148,-82,-117,-156,-136,-107,-102
14,122,107,-68,-46,114,-82,-117,-156,-136,-112,-117
4,92,87,-48,-41,90,-73,-117,-156,-136,-112,-131
-19,78,97,-29,-58,87,-53,-122,-161,-141,-122,-136
-53,68,122,-7,-87,95,-34,-136,-170,-161,-141,-141
-78,82,161,-2,-119,122,-29,-156,-195,-180,-156,-161
-82,102,185,-9,-134,143,-29,-165,-204,-190,-170,-170
-92,68,161,12,-126,114,-24,-161,-204,-185,-175,-175
-97,43,141,26,-119,92,-19,-151,-204,-180,-175,-175
-97,53,151,21,-124,102,-9,-151,-204,-185,-175,-180
-97,58,156,19,-126,107,-9,-156,-209,-185,-175,-180
-102,63,165,19,-134,114,-14,-156,-209,-190,-180,-180
-97,68,165,14,-131,117,-19,-156,-209,-195,-190,-180
-92,68,161,12,-126,114,-14,-156,-209,-200,-190,-185
-97,68,165,14,-131,117,-14,-156,-209,-204,-190,-190
-97,73,170,12,-134,122,-14,-156,-219,-204,-190,-190
-97,78,175,9,-136,126,-19,-156,-229,-209,-190,-190
-107,78,185,14,-146,131,-19,-151,-219,-204,-190,-190
-117,78,195,19,-156,136,-19,-146,-204,-195,-195,-195
-126,78,204,24,-165,141,-19,-151,-204,-195,-195,-195
-136,78,214,29,-175,146,-19,-151,-209,-200,-195,-195
-107,78,185,14,-146,131,-24,-151,-209,-209,-204,-200
-78,78,156,0,-117,117,-24,-151,-209,-219,-214,-204
-102,78,180,12,-141,129,-4,-131,-200,-204,-204,-214
-117,63,180,26,-148,122,19,-112,-185,-190,-204,-224
-126,58,185,34,-156,122,82,-39,-112,-161,-195,-219
-136,34,170,51,-153,102,175,68,-9,-112,-175,-214
-136,24,161,56,-148,92,165,63,43,-73,-156,-224
-92,34,126,29,-109,80,73,107,146,19,-97,-200
-24,19,43,2,-34,31,-43,190,263,126,-9,-131
126,63,-63,-95,95,0,-273,317,448,307,170,9
419,190,-229,-305,324,-19,-605,629,868,702,512,268
775,385,-390,-580,583,-2,-917,1141,1522,1259,985,614
1122,634,-488,-878,805,73,-1205,1615,2059,1693,1342,878
1307,814,-492,-1061,900,161,-1488,1595,2156,1820,1483,1029
1288,917,-370,-1102,829,273,-1712,873,1571,1449,1312,1063
1088,854,-234,-971,661,309,-1790,-43,800,922,980,893
766,673,-92,-719,429,290,-1756,-990,-141,219,468,605
492,624,131,-558,180,378,-1698,-1810,-1132,-405,107,458
409,624,214,-517,97,419,-1527,-1844,-1395,-585,14,434
356,590,234,-473,61,412,-1268,-1400,-1049,-424,48,409
302,541,239,-422,31,390,-976,-1078,-805,-341,34,331
239,444,204,-341,17,324,-736,-800,-595,-258,24,248
185,326,141,-256,21,234,-536,-585,-434,-185,19,190
136,200,63,-168,36,131,-346,-405,-322,-141,-9,107
68,87,19,-78,24,53,-190,-283,-248,-136,-58,19
9,9,0,-9,4,4,-73,-190,-200,-136,-87,-48
-39,-63,-24,51,-7,-43,-4,-117,-156,-126,-107,-82
-58,-78,-19,68,-19,-48,29,-73,-131,-117,-102,-78
-68,-68,0,68,-34,-34,58,-63,-126,-126,-112,-87
-82,-58,24,70,-53,-17,73,-63,-117,-126,-122,-102
-82,-68,14,75,-48,-26,73,-48,-107,-126,-126,-112
-82,-92,-9,87,-36,-51,73,-34,-102,-126,-131,-122
-87,-92,-4,90,-41,-48,82,-29,-107,-126,-131,-126
-97,-92,4,95,-51,-43,92,-24,-107,-126,-131,-126
-102,-97,4,100,-53,-46,102,-19,-102,-126,-136,-126
-102,-97,4,100,-53,-46,102,-9,-97,-126,-136,-122
-102,-97,4,100,-53,-46,102,-9,-92,-131,-136,-126
-102,-92,9,97,-56,-41,107,-4,-92,-136,-136,-126
-102,-82,19,92,-61,-31,112,0,-92,-136,-136,-126
-102,-78,24,90,-63,-26,112,0,-87,-131,-136,-126
-112,-92,19,102,-65,-36,112,14,-82,-126,-136,-126
-112,-102,9,107,-61,-46,112,14,-78,-126,-141,-131
-107,-92,14,100,-61,-39,112,14,-73,-126,-141,-126
-107,-78,29,92,-68,-24,112,14,-73,-126,-141,-122
-107,-78,29,92,-68,-24,122,19,-73,-131,-136,-122
-107,-78,29,92,-68,-24,126,24,-68,-131,-136,-122
-107,-78,29,92,-68,-24,126,24,-68,-126,-136,-126
-107,-73,34,90,-70,-19,131,29,-63,-126,-136,-136
-107,-68,39,87,-73,-14,126,34,-58,-126,-136,-136
-107,-68,39,87,-73,-14,122,39,-53,-122,-131,-131
-102,-63,39,82,-70,-12,122,43,-53,-122,-131,-131
-102,-58,43,80,-73,-7,122,48,-48,-122,-126,-126
-97,-53,43,75,-70,-4,126,48,-48,-117,-122,-126
-97,-53,43,75,-70,-4,126,53,-39,-117,-117,-126
-97,-43,53,70,-75,4,126,58,-43,-112,-117,-122
-97,-39,58,68,-78,9,126,68,-43,-112,-117,-122
-97,-34,63,65,-80,14,131,73,-34,-107,-117,-122
-92,-29,63,61,-78,17,131,82,-24,-97,-117,-117
-87,-29,58,58,-73,14,131,82,-19,-92,-117,-117
-87,-24,63,56,-75,19,126,97,-9,-92,-112,-117
-87,-14,73,51,-80,29,126,102,-4,-87,-112,-112
-82,-4,78,43,-80,36,126,107,0,-82,-107,-112
-82,9,92,36,-87,51,126,117,4,-73,-97,-102
-82,14,97,34,-90,56,131,126,19,-68,-87,-92
-73,29,102,21,-87,65,131,131,39,-63,-82,-87
-53,43,97,4,-75,70,126,141,43,-58,-78,-78
-39,58,97,-9,-68,78,131,151,48,-48,-73,-73
-34,68,102,-17,-68,85,131,165,58,-39,-68,-73
-29,78,107,-24,-68,92,131,175,73,-29,-58,-63
-19,87,107,-34,-63,97,136,195,87,-14,-48,-53
-19,107,126,-43,-73,117,136,204,102,-4,-34,-34
-14,126,141,-56,-78,134,136,224,126,9,-19,-14
-14,156,170,-70,-92,163,136,234,146,24,-4,-4
-9,170,180,-80,-95,175,131,258,165,39,9,9
9,190,180,-100,-85,185,131,283,190,58,29,24
19,214,195,-117,-87,204,131,302,214,87,48,34
24,234,209,-129,-92,222,122,331,253,117,78,63
34,258,224,-146,-95,241,112,366,287,141,97,73
53,292,239,-173,-92,265,112,385,322,165,122,97
68,322,253,-195,-92,287,112,414,356,190,146,122
92,341,248,-217,-78,295,107,444,395,219,170,146
112,370,258,-241,-73,314,97,473,429,244,195,170
126,400,273,-263,-73,336,78,497,463,263,214,190
151,419,268,-285,-58,344,63,522,492,287,234,209
165,444,278,-305,-56,361,58,541,522,317,263,234
190,463,273,-326,-41,368,48,566,551,336,292,258
200,497,297,-348,-48,397,29,590,580,361,317,283
219,517,297,-368,-39,407,14,605,610,385,336,302
234,522,287,-378,-26,405,4,614,629,405,351,322
248,527,278,-387,-14,402,0,634,653,419,361,336
263,531,268,-397,-2,400,-4,639,663,424,370,336
263,527,263,-395,0,395,-14,639,663,429,380,341
273,512,239,-392,17,375,-24,619,649,429,370,331
273,502,229,-387,21,366,-39,590,624,419,356,322
263,488,224,-375,19,356,-43,561,590,390,336,312
253,463,209,-358,21,336,-58,512,541,351,312,287
248,439,190,-344,29,314,-58,458,488,317,287,263
219,409,190,-314,14,300,-63,405,429,283,258,234
204,375,170,-290,17,273,-68,351,370,248,224,204
180,346,165,-263,7,256,-68,302,312,200,195,170
161,312,151,-236,4,231,-68,253,253,151,156,136
136,287,151,-212,-7,219,-68,200,195,107,112,102
102,258,156,-180,-26,207,-58,156,146,78,82,78
63,224,161,-143,-48,192,-53,112,97,39,48,53
48,204,156,-126,-53,180,-43,68,48,4,19,19
34,180,146,-107,-56,163,-39,29,9,-19,-9,-9
19,170,151,-95,-65,161,-39,-4,-29,-48,-29,-29
9,146,136,-78,-63,141,-39,-29,-58,-78,-48,-43
-14,126,141,-56,-78,134,-34,-53,-87,-102,-73,-53
-24,122,146,-48,-85,134,-34,-73,-107,-122,-92,-73
-53,107,161,-26,-107,134,-19,-82,-122,-126,-97,-78
-73,102,175,-14,-124,139,-14,-97,-141,-151,-112,-87
-73,92,165,-9,-119,129,-14,-122,-151,-156,-117,-92
-73,87,161,-7,-117,124,-14,-131,-161,-161,-122,-102
-68,73,141,-2,-104,107,-14,-131,-170,-161,-136,-102
-58,68,126,-4,-92,97,-19,-131,-180,-170,-146,-107
-53,63,117,-4,-85,90,-19,-141,-185,-175,-151,-126
-53,58,112,-2,-82,85,-19,-151,-190,-175,-151,-136
-63,58,122,2,-92,90,-19,-156,-185,-185,-151,-136
-68,58,126,4,-97,92,-19,-156,-190,-190,-156,-136
-68,58,126,4,-97,92,-14,-161,-195,-195,-161,-131
-78,53,131,12,-104,92,-9,-161,-195,-195,-161,-126
-78,48,126,14,-102,87,-4,-156,-195,-195,-165,-126
-78,43,122,17,-100,82,-4,-156,-200,-195,-170,-131
-78,43,122,17,-100,82,-4,-151,-200,-195,-170,-131
-78,39,117,19,-97,78,-4,-146,-200,-195,-170,-131
-82,39,122,21,-102,80,0,-146,-195,-200,-170,-131
-82,34,117,24,-100,75,0,-151,-195,-200,-170,-136
-87,34,122,26,-104,78,0,-151,-195,-190,-161,-136
-87,34,122,26,-104,78,0,-146,-190,-185,-151,-136
-82,34,117,24,-100,75,0,-141,-185,-180,-156,-136
-82,34,117,24,-100,75,4,-136,-180,-175,-156,-141
-82,34,117,24,-100,75,4,-136,-180,-180,-161,-141
-82,34,117,24,-100,75,4,-136,-175,-180,-161,-141
-82,34,117,24,-100,75,9,-136,-175,-175,-161,-136
-82,34,117,24,-100,75,9,-136,-175,-175,-161,-141
-82,34,117,24,-100,75,14,-131,-175,-175,-161,-141
-82,29,112,26,-97,70,19,-122,-175,-175,-151,-136
-92,29,122,31,-107,75,24,-117,-165,-175,-151,-131
-92,34,126,29,-109,80,24,-112,-161,-170,-151,-126
-87,34,122,26,-104,78,24,-112,-156,-165,-146,-126
-82,29,112,26,-97,70,24,-107,-151,-161,-146,-131
-82,24,107,29,-95,65,19,-102,-151,-165,-156,-131
-82,24,107,29,-95,65,14,-102,-151,-165,-156,-131
-78,14,92,31,-85,53,19,-97,-146,-161,-146,-126
-68,9,78,29,-73,43,19,-97,-146,-156,-141,-126
-68,14,82,26,-75,48,14,-97,-141,-151,-141,-131
-68,14,82,26,-75,48,14,-97,-141,-151,-141,-131
-68,14,82,26,-75,48,19,-92,-141,-151,-141,-131
-68,14,82,26,-75,48,24,-92,-141,-151,-141,-126
-68,9,78,29,-73,43,19,-92,-141,-151,-141,-126
-68,9,78,29,-73,43,19,-87,-141,-151,-141,-126
-68,9,78,29,-73,43,19,-87,-136,-151,-136,-126
-63,9,73,26,-68,41,19,-87,-136,-151,-131,-126
-63,9,73,26,-68,41,19,-87,-136,-146,-131,-126
-68,-4,63,36,-65,29,14,-92,-141,-146,-131,-126
-73,-9,63,41,-68,26,14,-92,-141,-146,-131,-126
-78,-4,73,41,-75,34,14,-92,-141,-156,-131,-126
-78,-4,73,41,-75,34,9,-97,-146,-156,-131,-126
-73,-4,68,39,-70,31,9,-102,-151,-151,-131,-122
-73,-4,68,39,-70,31,9,-102,-151,-151,-131,-122
-78,-4,73,41,-75,34,9,-102,-151,-156,-131,-122
-78,-4,73,41,-75,34,9,-102,-151,-156,-131,-117
-78,-4,73,41,-75,34,9,-107,-151,-156,-126,-112
-73,-4,68,39,-70,31,9,-112,-156,-156,-126,-117
-73,-9,63,41,-68,26,9,-112,-156,-156,-126,-117
-73,-9,63,41,-68,26,9,-117,-161,-156,-122,-112
-73,-4,68,39,-70,31,0,-122,-165,-156,-122,-112
-73,-9,63,41,-68,26,0,-126,-165,-156,-122,-112
-73,-14,58,43,-65,21,4,-126,-170,-156,-122,-107
-78,-14,63,46,-70,24,4,-126,-170,-156,-117,-107
-78,-14,63,46,-70,24,4,-131,-170,-161,-117,-112
-78,-19,58,48,-68,19,9,-131,-170,-156,-117,-107
-78,-24,53,51,-65,14,9,-131,-165,-151,-117,-102
-73,-24,48,48,-61,12,9,-136,-165,-151,-122,-102
-68,-24,43,46,-56,9,9,-136,-165,-156,-126,-102
-73,-29,43,51,-58,7,9,-136,-170,-161,-126,-102
-73,-34,39,53,-56,2,9,-136,-175,-165,-131,-102
-73,-34,39,53,-56,2,9,-136,-175,-161,-131,-102
-78,-34,43,56,-61,4,9,-126,-175,-161,-126,-102
-78,-34,43,56,-61,4,9,-122,-170,-165,-122,-102
-78,-39,39,58,-58,0,9,-122,-170,-165,-122,-102
-78,-39,39,58,-58,0,9,-122,-175,-161,-122,-102
-78,-39,39,58,-58,0,9,-126,-175,-161,-122,-102
-82,-39,43,61,-63,2,9,-126,-170,-156,-122,-102
-87,-34,53,61,-70,9,9,-126,-170,-156,-122,-102
-87,-34,53,61,-70,9,9,-126,-175,-156,-117,-102
-73,-29,43,51,-58,7,9,-131,-180,-165,-117,-102
-68,-34,34,51,-51,0,9,-131,-180,-165,-117,-102
-82,-34,48,58,-65,7,9,-131,-175,-165,-117,-102
-82,-34,48,58,-65,7,4,-131,-175,-161,-122,-102
-82,-34,48,58,-65,7,9,-131,-180,-161,-126,-102
-78,-34,43,56,-61,4,9,-131,-175,-156,-122,-97
-78,-39,39,58,-58,0,9,-136,-175,-156,-117,-97
-82,-43,39,63,-61,-2,9,-136,-175,-156,-117,-97
-87,-48,39,68,-63,-4,9,-136,-175,-156,-117,-97
-87,-48,39,68,-63,-4,9,-136,-175,-156,-117,-97
-87,-48,39,68,-63,-4,9,-136,-175,-156,-117,-97
-87,-48,39,68,-63,-4,9,-136,-175,-156,-117,-97
-87,-48,39,68,-63,-4,9,-136,-175,-156,-117,-97
-87,-48,39,68,-63,-4,9,-136,-175,-156,-117,-97
-87,-48,39,68,-63,-4,9,-136,-175,-156,-117,-97
-87,-53,34,70,-61,-9,14,-136,-175,-151,-117,-92
-87,-58,29,73,-58,-14,19,-136,-175,-146,-117,-87
-87,-58,29,73,-58,-14,24,-136,-175,-146,-117,-87
-87,-58,29,73,-58,-14,29,-136,-175,-146,-117,-87
-87,-63,24,75,-56,-19,29,-136,-175,-146,-117,-92
-87,-68,19,78,-53,-24,29,-136,-175,-146,-117,-97
-87,-68,19,78,-53,-24,29,-131,-170,-146,-117,-97
-87,-68,19,78,-53,-24,29,-126,-165,-146,-117,-97
-92,-68,24,80,-58,-21,29,-126,-165,-146,-117,-92
-97,-68,29,82,-63,-19,29,-126,-165,-146,-117,-87
-97,-68,29,82,-63,-19,29,-126,-165,-146,-117,-87
-97,-68,29,82,-63,-19,29,-126,-165,-146,-117,-87
-92,-73,19,82,-56,-26,29,-131,-170,-146,-117,-92
-87,-78,9,82,-48,-34,29,-136,-175,-146,-117,-97
-82,-78,4,80,-43,-36,29,-136,-175,-146,-117,-97
-78,-78,0,78,-39,-39,29,-136,-175,-146,-117,-97
-78,-58,19,68,-48,-19,39,-126,-165,-136,-107,-87
-78,-39,39,58,-58,0,48,-117,-156,-126,-97,-78
-73,-24,48,48,-61,12,53,-112,-146,-117,-92,-68
-68,-9,58,39,-63,24,58,-107,-136,-107,-87,-58
-68,-9,58,39,-63,24,63,-102,-131,-102,-82,-58
-68,-9,58,39,-63,24,73,-92,-122,-97,-78,-58
-68,-9,58,39,-63,24,82,-82,-112,-92,-73,-58
-58,-14,43,36,-51,14,87,-73,-112,-87,-68,-58
-53,-14,39,34,-46,12,78,-73,-107,-87,-63,-48
-48,-19,29,34,-39,4,63,-78,-107,-82,-58,-43
-19,-4,14,12,-17,4,43,-78,-102,-78,-53,-39
4,-4,-9,0,7,-7,24,-73,-97,-73,-43,-34
19,-4,-24,-7,21,-14,19,-68,-97,-68,-39,-24
24,0,-24,-12,24,-12,9,-68,-97,-63,-34,-19
24,0,-24,-12,24,-12,0,-78,-102,-63,-34,-19
9,-4,-14,-2,12,-9,-4,-87,-97,-63,-39,-19
0,-4,-4,2,2,-4,-4,-92,-107,-78,-43,-19
-14,-4,9,9,-12,2,-4,-92,-112,-78,-48,-24
-24,-14,9,19,-17,-2,-4,-92,-112,-78,-48,-24
-29,-29,0,29,-14,-14,-4,-92,-112,-78,-43,-24
-4,-29,-24,17,9,-26,-14,-102,-122,-82,-43,-24
24,-29,-53,2,39,-41,-34,-107,-126,-87,-48,-24
24,-34,-58,4,41,-46,-34,-102,-122,-87,-48,-24
14,-34,-48,9,31,-41,-24,-97,-117,-87,-43,-24
-9,-58,-48,34,19,-53,-4,-97,-122,-92,-53,-39
-43,-78,-34,61,-4,-56,14,-107,-131,-112,-73,-53
-73,-102,-29,87,-21,-65,29,-126,-156,-131,-87,-73
-82,-122,-39,102,-21,-80,39,-136,-165,-141,-102,-82
-87,-131,-43,109,-21,-87,39,-136,-165,-141,-107,-87
-87,-131,-43,109,-21,-87,39,-131,-165,-141,-107,-87
-87,-131,-43,109,-21,-87,58,-131,-165,-146,-107,-92
-87,-136,-48,112,-19,-92,68,-136,-170,-146,-107,-92
-97,-141,-43,119,-26,-92,73,-136,-175,-146,-107,-92
-97,-146,-48,122,-24,-97,78,-136,-180,-146,-112,-92
-97,-151,-53,124,-21,-102,82,-131,-180,-146,-117,-92
-107,-156,-48,131,-29,-102,82,-126,-180,-146,-122,-92
-112,-156,-43,134,-34,-100,82,-126,-175,-146,-122,-92
-117,-156,-39,136,-39,-97,78,-126,-170,-151,-122,-92
-117,-156,-39,136,-39,-97,78,-126,-175,-156,-122,-92
-117,-156,-39,136,-39,-97,78,-126,-175,-156,-126,-97
-117,-161,-43,139,-36,-102,78,-131,-175,-151,-126,-97
-117,-165,-48,141,-34,-107,78,-131,-180,-151,-126,-97
-117,-165,-48,141,-34,-107,73,-136,-180,-151,-122,-92
-117,-165,-48,141,-34,-107,73,-141,-180,-151,-117,-87
-126,-161,-34,143,-46,-97,78,-126,-180,-156,-122,-97
-126,-170,-43,148,-41,-107,87,-112,-175,-161,-136,-107
-136,-185,-48,161,-43,-117,146,-48,-131,-161,-146,-126
-146,-219,-73,183,-36,-146,234,48,-58,-141,-146,-146
-151,-224,-73,187,-39,-148,214,39,14,-78,-112,-131
-112,-209,-97,161,-7,-153,112,78,136,39,-39,-82
-39,-151,-112,95,36,-131,-39,146,302,195,82,-9
117,-34,-151,-41,134,-92,-302,258,536,424,297,136
385,156,-229,-270,307,-36,-624,536,1044,927,707,434
717,414,-302,-566,509,56,-927,1015,1786,1590,1249,819
1068,712,-356,-890,712,178,-1180,1600,2581,2230,1761,1180
1259,941,-317,-1100,788,312,-1429,1693,2937,2562,2059,1429
1312,1078,-234,-1195,773,422,-1688,1049,2420,2230,1927,1507
1185,1049,-136,-1117,661,456,-1800,209,1717,1742,1634,1381
888,800,-87,-844,488,356,-1786,-800,522,800,961,995
639,683,43,-661,297,363,-1747,-1683,-722,-63,439,751
566,697,131,-631,217,414,-1610,-1883,-1244,-405,253,702
522,678,156,-600,183,417,-1385,-1605,-1156,-405,195,653
439,634,195,-536,122,414,-1083,-1268,-893,-307,180,570
346,541,195,-444,75,368,-834,-976,-663,-209,170,483
278,414,136,-346,70,275,-624,-732,-488,-141,161,405
214,278,63,-246,75,170,-424,-522,-361,-102,126,302
122,146,24,-134,48,85,-248,-380,-283,-112,48,185
39,48,9,-43,14,29,-112,-268,-229,-126,-9,87
-24,-58,-34,41,4,-46,-24,-170,-175,-117,-48,14
-58,-107,-48,82,-4,-78,29,-102,-141,-107,-63,-19
-73,-117,-43,95,-14,-80,68,-82,-136,-117,-73,-29
-92,-126,-34,109,-29,-80,92,-73,-126,-117,-82,-43
-92,-141,-48,117,-21,-95,102,-53,-117,-117,-87,-53
-92,-170,-78,131,-7,-124,112,-34,-112,-117,-92,-63
-97,-170,-73,134,-12,-122,126,-29,-107,-112,-92,-68
-107,-170,-63,139,-21,-117,141,-24,-97,-107,-92,-68
-112,-180,-68,146,-21,-124,156,-14,-92,-107,-97,-73
-112,-185,-73,148,-19,-129,161,0,-87,-107,-97,-73
-112,-190,-78,151,-17,-134,161,0,-82,-107,-97,-82
-112,-190,-78,151,-17,-134,165,4,-82,-107,-97,-87
-112,-190,-78,151,-17,-134,170,9,-82,-107,-102,-87
-112,-195,-82,153,-14,-139,170,9,-78,-102,-107,-87
-122,-200,-78,161,-21,-139,175,24,-73,-97,-107,-82
-122,-200,-78,161,-21,-139,180,24,-68,-97,-112,-82
-122,-204,-82,163,-19,-143,180,24,-63,-97,-107,-82
-126,-204,-78,165,-24,-141,180,24,-63,-97,-102,-82
-126,-209,-82,168,-21,-146,185,29,-58,-97,-97,-82
-126,-214,-87,170,-19,-151,185,34,-48,-92,-97,-82
-126,-219,-92,173,-17,-156,185,34,-48,-87,-97,-82
-126,-219,-92,173,-17,-156,190,39,-43,-87,-97,-87
-122,-214,-92,168,-14,-153,185,43,-39,-87,-97,-87
-117,-214,-97,165,-9,-156,180,48,-34,-82,-92,-82
-112,-214,-102,163,-4,-158,180,53,-39,-87,-97,-82
-112,-214,-102,163,-4,-158,180,58,-39,-92,-97,-78
-107,-209,-102,158,-2,-156,185,58,-39,-87,-97,-78
-107,-209,-102,158,-2,-156,185,63,-29,-87,-97,-78
-107,-204,-97,156,-4,-151,190,68,-29,-78,-92,-73
-107,-204,-97,156,-4,-151,195,78,-24,-73,-87,-73
-112,-200,-87,156,-12,-143,200,82,-14,-68,-82,-73
-112,-195,-82,153,-14,-139,200,92,-4,-58,-78,-68
-107,-195,-87,151,-9,-141,204,92,4,-48,-78,-63
-107,-190,-82,148,-12,-136,204,107,19,-43,-73,-58
-107,-190,-82,148,-12,-136,204,117,24,-39,-73,-53
-102,-190,-87,146,-7,-139,204,126,29,-34,-68,-53
-102,-180,-78,141,-12,-129,204,136,34,-24,-58,-48
-102,-180,-78,141,-12,-129,209,146,48,-19,-48,-43
-102,-175,-73,139,-14,-124,214,156,68,-14,-43,-39
-92,-170,-78,131,-7,-124,214,170,73,-9,-39,-29
-82,-161,-78,122,-2,-119,224,180,82,0,-34,-24
-82,-156,-73,119,-4,-114,229,195,97,9,-29,-24
-82,-146,-63,114,-9,-104,229,204,112,19,-19,-14
-78,-136,-58,107,-9,-97,234,224,126,34,-9,-4
-78,-126,-48,102,-14,-87,239,234,141,43,0,4
-73,-117,-43,95,-14,-80,244,253,165,58,9,14
-73,-97,-24,85,-24,-61,248,263,185,73,24,19
-68,-92,-24,80,-21,-58,248,287,204,87,39,29
-48,-73,-24,61,-12,-48,244,312,224,102,48,43
-39,-48,-9,43,-14,-29,239,331,244,126,58,53
-34,-34,0,34,-17,-17,239,351,273,146,78,78
-24,-14,9,19,-17,-2,239,375,297,161,87,82
-9,9,19,0,-14,14,239,395,326,180,112,102
0,29,29,-14,-14,29,239,424,356,200,136,122
14,48,34,-31,-9,41,234,448,390,224,156,141
24,78,53,-51,-14,65,224,473,419,244,175,161
34,102,68,-68,-17,85,214,497,453,263,195,180
53,117,63,-85,-4,90,209,522,483,287,214,200
68,136,68,-102,0,102,204,541,512,317,239,219
92,151,58,-122,17,104,195,566,541,336,263,239
102,185,82,-143,9,134,180,590,575,366,287,263
122,204,82,-163,19,143,170,605,610,395,307,283
136,214,78,-175,29,146,161,614,629,419,326,307
151,224,73,-187,39,148,156,634,653,439,341,326
170,234,63,-202,53,148,146,644,683,448,361,331
175,234,58,-204,58,146,131,649,702,458,380,341
185,224,39,-204,73,131,122,649,702,473,385,346
185,219,34,-202,75,126,107,639,692,478,385,351
185,214,29,-200,78,122,97,624,678,468,380,351
185,200,14,-192,85,107,78,590,649,448,370,336
190,180,-9,-185,100,85,73,541,600,424,351,326
170,156,-14,-163,92,70,63,492,546,400,326,312
165,122,-43,-143,104,39,53,439,492,370,297,287
151,92,-58,-122,104,17,48,390,439,326,273,258
131,58,-73,-95,102,-7,48,346,380,287,244,229
107,34,-73,-70,90,-19,48,297,322,253,209,200
82,4,-78,-43,80,-36,53,253,273,219,185,175
53,-29,-82,-12,68,-56,53,209,224,175,156,151
43,-53,-97,4,70,-75,58,170,175,136,126,122
34,-82,-117,24,75,-100,58,136,136,107,97,97
19,-97,-117,39,68,-107,58,102,97,82,78,78
9,-126,-136,58,73,-131,58,78,68,58,58,63
-14,-146,-131,80,58,-139,63,53,39,39,39,53
-24,-151,-126,87,51,-139,63,34,19,24,24,34
-43,-165,-122,104,39,-143,73,24,4,19,19,29
-53,-170,-117,112,31,-143,73,9,-14,-4,4,19
-53,-180,-126,117,36,-153,68,-9,-24,-14,0,14
-53,-185,-131,119,39,-158,63,-14,-34,-24,-4,4
-58,-195,-136,126,39,-165,68,-14,-43,-24,-14,4
-58,-195,-136,126,39,-165,68,-14,-53,-34,-19,0
-53,-200,-146,126,46,-173,68,-19,-58,-34,-24,-9
-53,-204,-151,129,48,-178,68,-24,-63,-29,-24,-9
-58,-204,-146,131,43,-175,68,-29,-58,-39,-24,-9
-58,-204,-146,131,43,-175,68,-29,-63,-43,-29,-9
-63,-204,-141,134,39,-173,73,-34,-68,-43,-34,-4
-78,-209,-131,143,26,-170,78,-34,-68,-39,-34,0
-78,-209,-131,143,26,-170,82,-29,-63,-39,-34,0
-78,-209,-131,143,26,-170,82,-29,-63,-39,-34,-4
-73,-209,-136,141,31,-173,78,-29,-63,-39,-34,-4
-68,-214,-146,141,39,-180,73,-29,-63,-39,-34,-4
-73,-214,-141,143,34,-178,78,-29,-63,-43,-34,-4
-73,-219,-146,146,36,-183,78,-34,-68,-43,-34,-9
-82,-219,-136,151,26,-178,78,-34,-68,-39,-29,-9
-87,-219,-131,153,21,-175,78,-29,-63,-39,-24,-9
-82,-219,-136,151,26,-178,78,-29,-63,-39,-29,-9
-82,-219,-136,151,26,-178,82,-29,-63,-39,-29,-14
-82,-224,-141,153,29,-183,82,-34,-68,-43,-34,-14
-82,-229,-146,156,31,-187,82,-39,-68,-43,-34,-14
-82,-229,-146,156,31,-187,87,-39,-73,-43,-34,-14
-82,-229,-146,156,31,-187,87,-39,-78,-48,-34,-24
-82,-229,-146,156,31,-187,97,-43,-78,-48,-43,-24
-82,-234,-151,158,34,-192,107,-43,-78,-48,-43,-19
-92,-234,-141,163,24,-187,112,-43,-78,-53,-43,-19
-92,-229,-136,161,21,-183,112,-43,-82,-53,-43,-19
-92,-229,-136,161,21,-183,112,-43,-82,-53,-39,-19
-92,-234,-141,163,24,-187,112,-39,-82,-53,-39,-24
-97,-239,-141,168,21,-190,112,-34,-82,-53,-48,-24
-102,-239,-136,170,17,-187,112,-34,-82,-48,-48,-24
-107,-244,-136,175,14,-190,117,-24,-78,-48,-43,-19
-107,-244,-136,175,14,-190,117,-19,-78,-48,-43,-19
-107,-239,-131,173,12,-185,112,-9,-68,-43,-39,-24
-107,-239,-131,173,12,-185,112,0,-63,-43,-34,-24
-107,-244,-136,175,14,-190,112,4,-63,-43,-34,-24
-107,-248,-141,178,17,-195,112,4,-63,-43,-34,-19
-107,-253,-146,180,19,-200,107,0,-63,-43,-39,-19
-107,-253,-146,180,19,-200,107,0,-63,-43,-43,-19
-102,-253,-151,178,24,-202,107,0,-58,-43,-43,-19
-92,-253,-161,173,34,-207,107,0,-58,-43,-43,-19
-92,-244,-151,168,29,-197,107,0,-58,-39,-43,-19
-97,-248,-151,173,26,-200,102,-4,-63,-39,-43,-19
-97,-258,-161,178,31,-209,112,-4,-63,-39,-43,-19
-97,-258,-161,178,31,-209,122,-4,-63,-48,-43,-19
-97,-253,-156,175,29,-204,117,-9,-68,-48,-43,-19
-92,-248,-156,170,31,-202,117,-14,-73,-43,-43,-14
-92,-253,-161,173,34,-207,112,-14,-68,-43,-39,-14
-97,-258,-161,178,31,-209,107,-14,-63,-48,-34,-14
-92,-258,-165,175,36,-212,107,-14,-63,-48,-39,-14
-87,-258,-170,173,41,-214,107,-19,-63,-48,-39,-14
-82,-258,-175,170,46,-217,107,-24,-68,-48,-39,-19
-82,-263,-180,173,48,-222,107,-24,-68,-48,-39,-19
-87,-268,-180,178,46,-224,107,-24,-68,-48,-39,-19
-92,-268,-175,180,41,-222,97,-24,-68,-48,-43,-24
-92,-268,-175,180,41,-222,97,-29,-68,-48,-43,-24
-92,-268,-175,180,41,-222,102,-29,-73,-48,-43,-19
-97,-268,-170,183,36,-219,102,-29,-73,-48,-39,-19
-97,-268,-170,183,36,-219,102,-34,-73,-53,-39,-24
-97,-273,-175,185,39,-224,102,-34,-78,-53,-39,-24
-97,-278,-180,187,41,-229,97,-34,-78,-53,-39,-24
-97,-278,-180,187,41,-229,97,-34,-78,-48,-39,-24
-97,-278,-180,187,41,-229,97,-29,-78,-48,-39,-24
-102,-273,-170,187,34,-222,97,-29,-78,-48,-39,-24
-102,-268,-165,185,31,-217,97,-29,-78,-48,-43,-24
-97,-268,-170,183,36,-219,92,-39,-78,-43,-48,-24
-97,-268,-170,183,36,-219,87,-39,-78,-43,-48,-24
-97,-263,-165,180,34,-214,87,-34,-78,-53,-43,-24
-97,-263,-165,180,34,-214,87,-34,-82,-58,-43,-24
-97,-263,-165,180,34,-214,92,-29,-87,-53,-39,-19
-97,-263,-165,180,34,-214,97,-29,-87,-53,-34,-14
-102,-268,-165,185,31,-217,97,-29,-78,-48,-34,-14
-107,-268,-161,187,26,-214,97,-29,-73,-48,-34,-14
-112,-273,-161,192,24,-217,97,-29,-78,-48,-34,-14
-102,-273,-170,187,34,-222,97,-34,-82,-58,-39,-14
-92,-273,-180,183,43,-226,97,-34,-82,-58,-39,-19
-102,-268,-165,185,31,-217,97,-34,-78,-58,-39,-24
-102,-268,-165,185,31,-217,92,-34,-78,-53,-43,-24
-102,-268,-165,185,31,-217,97,-34,-82,-53,-48,-24
-92,-268,-175,180,41,-222,97,-34,-82,-53,-48,-24
-87,-273,-185,180,48,-229,97,-39,-87,-58,-48,-29
-87,-273,-185,180,48,-229,97,-39,-87,-58,-48,-29
-87,-273,-185,180,48,-229,97,-39,-87,-58,-48,-29
-92,-273,-180,183,43,-226,97,-39,-87,-58,-43,-29
-97,-273,-175,185,39,-224,97,-39,-87,-58,-39,-29
-97,-273,-175,185,39,-224,102,-39,-87,-53,-39,-29
-97,-273,-175,185,39,-224,107,-39,-87,-48,-39,-29
-97,-268,-170,183,36,-219,107,-34,-87,-48,-39,-29
-97,-263,-165,180,34,-214,107,-29,-87,-48,-39,-29
-97,-263,-165,180,34,-214,107,-29,-87,-48,-39,-29
-97,-263,-165,180,34,-214,107,-29,-87,-48,-39,-29
-97,-263,-165,180,34,-214,107,-29,-87,-48,-39,-29
-97,-263,-165,180,34,-214,107,-29,-87,-48,-39,-29
-102,-268,-165,185,31,-217,107,-29,-82,-48,-39,-29
-107,-273,-165,190,29,-219,107,-29,-78,-48,-39,-29
-107,-278,-170,192,31,-224,107,-29,-78,-48,-39,-29
-107,-283,-175,195,34,-229,107,-29,-78,-48,-39,-29
-102,-283,-180,192,39,-231,107,-34,-78,-53,-39,-29
-97,-283,-185,190,43,-234,107,-39,-78,-58,-39,-29
-97,-283,-185,190,43,-234,107,-39,-78,-58,-39,-29
-97,-283,-185,190,43,-234,107,-39,-78,-58,-39,-29
-102,-278,-175,190,36,-226,107,-34,-78,-53,-39,-29
-107,-273,-165,190,29,-219,107,-29,-78,-48,-39,-29
-107,-273,-165,190,29,-219,107,-29,-82,-48,-39,-29
-107,-273,-165,190,29,-219,107,-29,-87,-48,-39,-29
-107,-278,-170,192,31,-224,107,-29,-87,-48,-39,-29
-107,-283,-175,195,34,-229,107,-29,-87,-48,-39,-29
-107,-283,-175,195,34,-229,107,-29,-87,-48,-39,-29
-107,-283,-175,195,34,-229,107,-29,-87,-48,-39,-29
-102,-278,-175,190,36,-226,117,-29,-87,-48,-39,-29
-97,-273,-175,185,39,-224,126,-29,-87,-48,-39,-29
-92,-273,-180,183,43,-226,126,-29,-87,-48,-39,-29
-87,-273,-185,180,48,-229,126,-29,-87,-48,-39,-29
-87,-253,-165,170,39,-209,131,-24,-78,-39,-29,-19
-87,-234,-146,161,29,-190,136,-19,-68,-29,-19,-9
-87,-219,-131,153,21,-175,141,-9,-53,-14,-9,0
-87,-204,-117,146,14,-161,146,0,-39,0,0,9
-73,-204,-131,139,29,-168,151,4,-39,0,0,9
-63,-200,-136,131,36,-168,156,9,-29,0,0,9
-53,-200,-146,126,46,-173,165,19,-24,4,4,9
-39,-200,-161,119,61,-180,165,24,-24,9,9,9
-34,-200,-165,117,65,-183,156,24,-19,9,9,14
-29,-204,-175,117,73,-190,141,19,-19,14,9,14
-4,-190,-185,97,90,-187,122,19,-14,19,14,19
14,-190,-204,87,109,-197,102,24,-9,24,24,24
29,-195,-224,82,126,-209,92,34,-4,24,29,34
34,-195,-229,80,131,-212,78,39,0,24,34,39
34,-195,-229,80,131,-212,68,24,-14,24,34,39
19,-200,-219,90,119,-209,63,9,-19,24,29,39
14,-200,-214,92,114,-207,63,4,-29,9,24,39
4,-200,-204,97,104,-202,63,4,-34,9,19,34
4,-204,-209,100,107,-207,63,4,-29,9,19,34
9,-214,-224,102,117,-219,63,4,-24,9,24,34
9,-214,-224,102,117,-219,58,-4,-34,9,24,34
14,-214,-229,100,122,-222,43,-9,-39,9,19,34
24,-214,-239,95,131,-226,43,-9,-39,9,19,39
24,-209,-234,92,129,-222,53,-9,-39,9,24,43
0,-234,-234,117,117,-234,73,-9,-43,4,14,29
-34,-253,-219,143,92,-236,92,-19,-53,-14,-4,14
-68,-268,-200,168,65,-234,102,-39,-82,-34,-19,-4
-82,-278,-195,180,56,-236,107,-48,-97,-43,-34,-14
-87,-292,-204,190,58,-248,107,-48,-97,-43,-43,-24
-87,-297,-209,192,61,-253,107,-43,-97,-43,-48,-29
-87,-297,-209,192,61,-253,117,-39,-97,-48,-48,-34
-87,-302,-214,195,63,-258,117,-39,-102,-48,-48,-34
-97,-302,-204,200,53,-253,117,-39,-102,-48,-48,-34
-97,-302,-204,200,53,-253,117,-39,-102,-48,-53,-34
-97,-302,-204,200,53,-253,122,-39,-102,-53,-53,-39
-107,-302,-195,204,43,-248,122,-39,-102,-58,-53,-43
-107,-302,-195,204,43,-248,126,-39,-107,-58,-53,-43
-107,-302,-195,204,43,-248,126,-39,-112,-63,-53,-43
-107,-302,-195,204,43,-248,126,-39,-117,-68,-53,-43
-107,-302,-195,204,43,-248,126,-39,-117,-68,-58,-48
-107,-302,-195,204,43,-248,126,-43,-117,-68,-58,-48
-107,-302,-195,204,43,-248,126,-43,-122,-73,-58,-48
-107,-302,-195,204,43,-248,122,-48,-122,-73,-58,-48
-107,-302,-195,204,43,-248,122,-53,-122,-73,-58,-48
-117,-302,-185,209,34,-244,122,-43,-126,-78,-63,-58
-117,-317,-200,217,41,-258,126,-34,-126,-82,-78,-68
-136,-331,-195,234,29,-263,190,29,-87,-82,-87,-78
-156,-366,-209,261,26,-287,283,126,-19,-63,-87,-87
-151,-366,-214,258,31,-290,263,112,43,-19,-68,-92
-102,-346,-244,224,70,-295,161,146,156,78,-9,-63
-43,-297,-253,170,104,-275,14,229,317,219,97,4
97,-190,-287,46,192,-239,-244,356,546,434,297,146
370,0,-370,-185,370,-185,-580,639,1024,907,688,419
707,258,-448,-483,578,-95,-897,1122,1737,1542,1210,780
1088,556,-531,-822,810,12,-1156,1790,2596,2220,1747,1156
1307,785,-522,-1046,915,131,-1410,1966,3015,2591,2069,1420
1395,951,-444,-1173,919,253,-1688,1346,2552,2303,1966,1512
1302,951,-351,-1127,827,300,-1820,531,1903,1859,1703,1400
985,678,-307,-832,646,185,-1800,-551,717,927,1029,1015
717,536,-180,-627,448,178,-1756,-1507,-517,73,507,771
629,561,-68,-595,348,246,-1625,-1781,-1122,-302,307,722
570,551,-19,-561,295,265,-1405,-1576,-1117,-336,234,673
473,497,24,-485,224,261,-1088,-1234,-858,-248,219,590
366,395,29,-380,168,212,-824,-936,-634,-161,209,502
297,278,-19,-287,158,129,-614,-692,-463,-82,190,424
234,151,-82,-192,158,34,-414,-483,-341,-34,146,322
131,24,-107,-78,119,-41,-234,-341,-253,-43,78,209
39,-68,-107,14,73,-87,-92,-229,-190,-58,29,117
-29,-165,-136,97,53,-151,0,-122,-141,-48,-9,43
-68,-204,-136,136,34,-170,58,-43,-112,-39,-24,9
-78,-214,-136,146,29,-175,102,-29,-107,-53,-34,0
-92,-224,-131,158,19,-178,131,-24,-97,-58,-43,-14
-92,-234,-141,163,24,-187,146,-4,-82,-58,-53,-29
-92,-258,-165,175,36,-212,161,14,-73,-58,-63,-43
-102,-268,-165,185,31,-217,170,19,-73,-58,-63,-48
-117,-278,-161,197,21,-219,180,24,-68,-58,-63,-48
-126,-283,-156,204,14,-219,190,29,-68,-58,-68,-53
-131,-283,-151,207,9,-217,190,39,-68,-58,-68,-53
-131,-287,-156,209,12,-222,190,39,-63,-58,-68,-68
-131,-287,-156,209,12,-222,195,43,-63,-58,-68,-78
-131,-292,-161,212,14,-226,200,48,-63,-58,-68,-78
-131,-302,-170,217,19,-236,200,48,-58,-53,-68,-78
-141,-302,-161,222,9,-231,204,63,-53,-48,-68,-73
-141,-297,-156,219,7,-226,209,63,-48,-48,-73,-73
-136,-297,-161,217,12,-229,209,63,-43,-48,-73,-73
-136,-292,-156,214,9,-224,209,63,-43,-48,-73,-73
-136,-292,-156,214,9,-224,214,73,-39,-48,-68,-73
-136,-292,-156,214,9,-224,214,82,-29,-43,-68,-73
-131,-292,-161,212,14,-226,214,82,-29,-39,-68,-73
-126,-287,-161,207,17,-224,219,87,-24,-39,-68,-78
-122,-278,-156,200,17,-217,219,92,-24,-39,-68,-78
-117,-273,-156,195,19,-214,219,97,-24,-34,-63,-73
-112,-268,-156,190,21,-212,219,102,-24,-34,-63,-73
-112,-263,-151,187,19,-207,219,107,-19,-34,-58,-68
-107,-258,-151,183,21,-204,224,107,-14,-24,-58,-68
-107,-258,-151,183,21,-204,224,112,0,-19,-58,-68
-107,-253,-146,180,19,-200,224,117,0,-14,-58,-63
-107,-253,-146,180,19,-200,224,126,4,-14,-58,-63
-112,-248,-136,180,12,-192,229,126,9,-14,-53,-63
-112,-244,-131,178,9,-187,229,131,14,-9,-48,-58
-107,-244,-136,175,14,-190,234,131,19,-4,-48,-58
-107,-239,-131,173,12,-185,234,146,29,-4,-43,-58
-107,-239,-131,173,12,-185,234,151,34,0,-48,-53
-102,-239,-136,170,17,-187,234,156,39,4,-48,-53
-102,-229,-126,165,12,-178,234,165,39,14,-39,-48
-102,-229,-126,165,12,-178,239,175,48,19,-29,-43
-107,-219,-112,163,2,-165,244,180,68,24,-24,-43
-102,-209,-107,156,2,-158,244,190,73,29,-19,-39
-92,-200,-107,146,7,-153,248,200,78,39,-14,-34
-92,-195,-102,143,4,-148,248,214,87,48,-9,-34
-87,-185,-97,136,4,-141,248,224,102,58,-4,-24
-78,-175,-97,126,9,-136,253,244,117,73,0,-14
-78,-161,-82,119,2,-122,258,253,131,78,9,-9
-73,-146,-73,109,0,-109,263,273,156,87,19,-4
-73,-122,-48,97,-12,-85,268,283,175,102,34,4
-68,-112,-43,90,-12,-78,268,307,195,117,48,19
-48,-92,-43,70,-2,-68,268,331,214,131,58,34
-39,-68,-29,53,-4,-48,268,351,234,156,68,43
-34,-53,-19,43,-7,-36,268,370,263,175,87,68
-24,-34,-9,29,-7,-21,268,395,287,190,97,73
-9,-9,0,9,-4,-4,268,409,312,209,122,92
0,9,9,-4,-4,9,268,434,336,229,146,112
9,29,19,-19,-4,24,278,463,370,253,165,131
14,58,43,-36,-14,51,283,492,400,273,185,151
24,78,53,-51,-14,65,263,517,429,283,200,165
43,87,43,-65,0,65,248,541,453,297,214,180
58,97,39,-78,9,68,244,561,483,326,234,195
82,102,19,-92,31,61,234,585,512,346,253,209
87,136,48,-112,19,92,224,610,541,370,278,234
102,156,53,-129,24,104,219,624,570,395,297,253
117,165,48,-141,34,107,209,639,590,419,322,278
131,175,43,-153,43,109,204,663,614,439,341,297
151,200,48,-175,51,124,190,673,644,453,356,307
156,214,58,-185,48,136,170,678,663,468,370,322
175,209,34,-192,70,122,161,683,673,483,380,322
185,209,24,-197,80,117,146,678,673,488,385,322
190,204,14,-197,87,109,131,658,653,478,385,322
195,190,-4,-192,100,92,107,619,619,458,380,307
204,180,-24,-192,114,78,97,570,570,429,366,302
190,165,-24,-178,107,70,82,522,517,400,346,292
185,146,-39,-165,112,53,68,468,463,375,322,283
170,131,-39,-151,104,46,58,419,409,336,302,268
151,97,-53,-124,102,21,58,370,366,302,268,239
126,73,-53,-100,90,9,58,317,322,273,229,209
97,29,-68,-63,82,-19,63,273,263,244,204,180
63,-19,-82,-21,73,-51,63,229,204,204,175,151
43,-39,-82,-2,63,-61,68,190,161,165,146,122
24,-63,-87,19,56,-75,68,156,126,136,117,97
9,-63,-73,26,41,-68,63,122,87,112,97,73
0,-78,-78,39,39,-78,58,97,58,87,78,53
-24,-112,-87,68,31,-100,63,73,29,68,58,43
-34,-131,-97,82,31,-114,63,53,9,53,43,24
-43,-146,-102,95,29,-124,73,43,-4,48,39,19
-43,-151,-107,97,31,-129,73,29,-24,24,24,9
-58,-161,-102,109,21,-131,73,14,-34,19,19,4
-73,-165,-92,119,9,-129,73,14,-43,14,14,-4
-78,-185,-107,131,14,-146,82,19,-34,14,0,-14
-78,-195,-117,136,19,-156,87,24,-24,4,-9,-29
-73,-200,-126,136,26,-163,87,19,-43,-4,-14,-39
-73,-204,-131,139,29,-168,87,14,-63,-9,-14,-39
-87,-200,-112,143,12,-156,82,9,-63,-19,-14,-39
-97,-195,-97,146,0,-146,78,9,-73,-24,-19,-39
-82,-195,-112,139,14,-153,78,4,-68,-19,-24,-48
-78,-200,-122,139,21,-161,78,4,-58,-9,-24,-58
-73,-204,-131,139,29,-168,92,14,-53,-4,-24,-58
-68,-209,-141,139,36,-175,102,19,-53,0,-24,-63
-68,-209,-141,139,36,-175,102,19,-53,0,-19,-63
-68,-214,-146,141,39,-180,102,19,-53,0,-14,-63
-78,-214,-136,146,29,-175,107,19,-53,-4,-14,-58
-82,-219,-136,151,26,-178,107,14,-58,-4,-14,-58
-97,-219,-122,158,12,-170,107,14,-58,0,-14,-58
-107,-219,-112,163,2,-165,107,19,-53,0,-14,-58
-102,-219,-117,161,7,-168,97,19,-63,-14,-29,-63
-102,-219,-117,161,7,-168,92,19,-73,-29,-39,-73
-107,-219,-112,163,2,-165,92,19,-78,-34,-53,-73
-112,-219,-107,165,-2,-163,92,19,-78,-34,-63,-73
-112,-224,-112,168,0,-168,97,24,-68,-19,-53,-82
-112,-229,-117,170,2,-173,97,29,-58,-9,-43,-102
-126,-234,-107,180,-9,-170,102,29,-43,-9,-53,-107
-141,-244,-102,192,-19,-173,107,34,-29,-9,-53,-107
-141,-244,-102,192,-19,-173,112,34,-43,-14,-63,-107
-131,-239,-107,185,-12,-173,112,34,-63,-14,-73,-107
-131,-239,-107,185,-12,-173,112,34,-63,-14,-58,-102
-131,-244,-112,187,-9,-178,112,39,-63,-14,-48,-102
-131,-248,-117,190,-7,-183,112,39,-73,-29,-58,-102
-131,-248,-117,190,-7,-183,112,34,-82,-39,-58,-102
-131,-248,-117,190,-7,-183,117,39,-78,-39,-63,-97
-126,-244,-117,185,-4,-180,117,39,-78,-39,-73,-97
-126,-239,-112,183,-7,-175,112,39,-68,-34,-73,-102
-126,-239,-112,183,-7,-175,112,39,-63,-34,-73,-102
-126,-239,-112,183,-7,-175,107,43,-63,-34,-68,-102
-126,-239,-112,183,-7,-175,102,43,-63,-34,-63,-97
-122,-224,-102,173,-9,-163,97,34,-78,-43,-58,-92
-117,-204,-87,161,-14,-146,97,29,-92,-53,-53,-87
-117,-214,-97,165,-9,-156,97,39,-73,-43,-53,-87
-112,-224,-112,168,0,-168,97,48,-58,-34,-53,-87
-122,-229,-107,175,-7,-168,107,48,-58,-24,-53,-87
-136,-248,-112,192,-12,-180,112,43,-63,-19,-53,-87
-117,-248,-131,183,7,-190,97,43,-63,-19,-58,-87
-97,-239,-141,168,21,-190,82,43,-63,-29,-63,-87
-107,-234,-126,170,9,-180,73,39,-68,-39,-63,-87
-112,-229,-117,170,2,-173,68,34,-73,-43,-63,-82
-112,-219,-107,165,-2,-163,68,29,-87,-53,-63,-73
-117,-209,-92,163,-12,-151,68,24,-102,-68,-63,-63
-107,-209,-102,158,-2,-156,63,24,-87,-48,-63,-73
-97,-209,-112,153,7,-161,58,19,-73,-29,-58,-82
-92,-209,-117,151,12,-163,58,14,-87,-39,-58,-87
-92,-214,-122,153,14,-168,58,14,-97,-48,-58,-87
-92,-214,-122,153,14,-168,58,14,-97,-48,-58,-78
-92,-209,-117,151,12,-163,48,14,-97,-48,-63,-73
-92,-200,-107,146,7,-153,43,9,-92,-48,-63,-73
-92,-190,-97,141,2,-143,43,9,-92,-48,-63,-68
-97,-200,-102,148,2,-151,43,9,-92,-43,-63,-73
-97,-209,-112,153,7,-161,43,4,-92,-43,-68,-82
-97,-209,-112,153,7,-161,43,4,-97,-43,-68,-82
-97,-209,-112,153,7,-161,39,4,-97,-43,-68,-82
-97,-209,-112,153,7,-161,39,4,-97,-43,-68,-82
-97,-209,-112,153,7,-161,39,9,-97,-48,-68,-82
-102,-209,-107,156,2,-158,43,9,-97,-48,-63,-68
-102,-209,-107,156,2,-158,48,9,-97,-48,-63,-53
-97,-209,-112,153,7,-161,48,0,-97,-43,-63,-53
-97,-209,-112,153,7,-161,48,0,-97,-43,-58,-53
-92,-209,-117,151,12,-163,48,4,-97,-48,-53,-58
-87,-214,-126,151,19,-170,48,4,-102,-48,-53,-63
-87,-214,-126,151,19,-170,48,9,-107,-48,-53,-63
-87,-214,-126,151,19,-170,48,9,-107,-53,-53,-63
-102,-214,-112,158,4,-163,48,9,-97,-48,-53,-63
-117,-209,-92,163,-12,-151,48,9,-92,-48,-53,-63
-122,-214,-92,168,-14,-153,53,9,-97,-43,-53,-63
-112,-214,-102,163,-4,-158,58,4,-102,-48,-58,-63
-102,-214,-112,158,4,-163,58,4,-102,-48,-63,-63
-112,-209,-97,161,-7,-153,58,4,-97,-48,-68,-63
-102,-209,-107,156,2,-158,43,0,-102,-53,-78,-68
-92,-209,-117,151,12,-163,39,-4,-112,-63,-87,-73
-87,-204,-117,146,14,-161,43,0,-107,-63,-82,-68
-87,-204,-117,146,14,-161,48,9,-107,-68,-78,-68
-87,-204,-117,146,14,-161,48,9,-107,-68,-78,-68
-87,-204,-117,146,14,-161,48,9,-107,-68,-78,-68
-87,-204,-117,146,14,-161,48,9,-107,-68,-82,-68
-87,-204,-117,146,14,-161,48,9,-107,-68,-87,-68
-97,-204,-107,151,4,-156,53,14,-102,-68,-87,-68
-107,-204,-97,156,-4,-151,58,19,-97,-68,-87,-68
-107,-200,-92,153,-7,-146,58,19,-97,-68,-87,-68
-107,-195,-87,151,-9,-141,58,19,-97,-68,-87,-68
-102,-195,-92,148,-4,-143,63,19,-102,-73,-92,-68
-97,-195,-97,146,0,-146,68,19,-107,-78,-97,-68
-97,-195,-97,146,0,-146,68,19,-107,-78,-97,-73
-97,-195,-97,146,0,-146,68,19,-107,-78,-97,-78
-92,-190,-97,141,2,-143,63,19,-112,-82,-102,-82
-87,-185,-97,136,4,-141,58,19,-117,-87,-107,-87
-78,-185,-107,131,14,-146,58,19,-117,-87,-107,-87
-68,-185,-117,126,24,-151,58,19,-117,-87,-107,-87
-68,-185,-117,126,24,-151,63,19,-117,-87,-107,-87
-68,-185,-117,126,24,-151,68,19,-117,-87,-107,-87
-73,-185,-112,129,19,-148,73,19,-117,-87,-102,-82
-78,-185,-107,131,14,-146,78,19,-117,-87,-97,-78
-78,-180,-102,129,12,-141,78,19,-117,-87,-97,-78
-78,-175,-97,126,9,-136,78,19,-117,-87,-97,-78
-73,-165,-92,119,9,-129,82,24,-107,-78,-92,-73
-68,-156,-87,112,9,-122,87,29,-97,-68,-87,-68
-68,-141,-73,104,2,-107,102,34,-87,-58,-78,-63
-68,-126,-58,97,-4,-92,117,39,-78,-48,-68,-58
-68,-122,-53,95,-7,-87,126,48,-78,-48,-68,-58
-63,-117,-53,90,-4,-85,136,58,-68,-43,-63,-58
-63,-112,-48,87,-7,-80,151,68,-58,-43,-63,-58
-48,-112,-63,80,7,-87,156,73,-53,-39,-58,-58
-43,-97,-53,70,4,-75,146,73,-48,-39,-53,-48
-39,-87,-48,63,4,-68,131,68,-48,-34,-48,-43
-14,-73,-58,43,21,-65,112,63,-39,-29,-43,-34
4,-73,-78,34,41,-75,92,63,-29,-24,-34,-24
19,-68,-87,24,53,-78,87,68,-29,-19,-34,-19
24,-58,-82,17,53,-70,78,68,-29,-14,-34,-19
24,-58,-82,17,53,-70,73,53,-43,-14,-34,-19
9,-63,-73,26,41,-68,73,39,-48,-14,-39,-19
14,-63,-78,24,46,-70,73,24,-58,-24,-39,-19
14,-63,-78,24,46,-70,73,14,-63,-19,-39,-24
19,-68,-87,24,53,-78,68,9,-63,-19,-34,-14
29,-78,-107,24,68,-92,63,4,-63,-19,-24,-4
29,-78,-107,24,68,-92,43,-9,-73,-19,-14,0
34,-78,-112,21,73,-95,14,-19,-78,-19,-9,4
34,-82,-117,24,75,-100,14,-24,-78,-19,-9,9
24,-82,-107,29,65,-95,24,-29,-78,-19,-4,14
0,-107,-107,53,53,-107,48,-29,-73,-19,-14,0
-34,-126,-92,80,29,-109,73,-39,-73,-34,-34,-14
-63,-146,-82,104,9,-114,87,-68,-107,-53,-53,-39
-73,-161,-87,117,7,-124,97,-87,-126,-63,-73,-53
-87,-170,-82,129,-2,-126,87,-92,-126,-68,-78,-58
-97,-170,-73,134,-12,-122,78,-92,-126,-73,-78,-58
-87,-170,-82,129,-2,-126,82,-97,-126,-78,-82,-58
-78,-175,-97,126,9,-136,78,-107,-131,-78,-87,-53
-87,-180,-92,134,2,-136,78,-112,-131,-78,-87,-53
-87,-185,-97,136,4,-141,78,-117,-131,-78,-92,-53
-97,-185,-87,141,-4,-136,78,-117,-131,-73,-87,-53
-117,-185,-68,151,-24,-126,73,-117,-131,-68,-82,-53
-117,-185,-68,151,-24,-126,78,-122,-131,-68,-82,-53
-117,-185,-68,151,-24,-126,78,-126,-131,-73,-82,-53
-107,-185,-78,146,-14,-131,78,-136,-141,-82,-87,-58
-97,-185,-87,141,-4,-136,78,-146,-146,-87,-97,-68
-97,-185,-87,141,-4,-136,73,-151,-146,-87,-97,-68
-97,-185,-87,141,-4,-136,68,-151,-151,-92,-97,-68
-97,-180,-82,139,-7,-131,63,-156,-151,-92,-92,-68
-97,-175,-78,136,-9,-126,63,-161,-151,-92,-87,-68
-107,-175,-68,141,-19,-122,68,-165,-161,-92,-92,-78
-107,-190,-82,148,-12,-136,78,-170,-165,-92,-107,-87
-122,-209,-87,165,-17,-148,122,-122,-146,-112,-126,-102
-136,-248,-112,192,-12,-180,195,-39,-97,-112,-136,-117
-170,-273,-102,222,-34,-187,258,-39,-58,-102,-151,-151
-161,-278,-117,219,-21,-197,239,9,29,-39,-126,-151
-141,-268,-126,204,-7,-197,170,19,107,29,-78,-126
-39,-200,-161,119,61,-180,-9,73,253,170,63,-29
180,-48,-229,-65,204,-139,-356,214,570,541,385,219
463,170,-292,-317,378,-61,-683,556,1122,1073,839,556
897,492,-405,-695,651,43,-985,1327,2064,1830,1444,961
1171,746,-424,-958,797,161,-1283,1605,2566,2278,1834,1254
1307,976,-331,-1141,819,322,-1610,1166,2288,2127,1839,1420
1263,1039,-224,-1151,744,407,-1790,531,1825,1820,1683,1381
956,805,-151,-880,553,326,-1810,-570,722,912,1015,995
697,702,4,-700,346,353,-1805,-1546,-429,82,497,751
566,712,146,-639,209,429,-1737,-1952,-1171,-375,253,697
463,688,224,-575,119,456,-1581,-1878,-1302,-492,136,644
409,639,229,-524,90,434,-1268,-1503,-1015,-380,156,580
346,541,195,-444,75,368,-1010,-1171,-761,-268,180,512
287,439,151,-363,68,295,-790,-902,-556,-165,185,453
234,326,92,-280,70,209,-580,-668,-400,-92,165,370
136,180,43,-158,46,112,-370,-512,-302,-102,92,248
48,68,19,-58,14,43,-200,-385,-229,-117,39,146
-19,-53,-34,36,7,-43,-97,-263,-170,-107,-9,53
-58,-117,-58,87,0,-87,-29,-170,-131,-97,-34,0
-68,-126,-58,97,-4,-92,24,-156,-126,-107,-48,-9
-82,-136,-53,109,-14,-95,63,-151,-117,-107,-63,-24
-82,-141,-58,112,-12,-100,87,-131,-102,-107,-68,-34
-82,-161,-78,122,-2,-119,112,-112,-92,-107,-73,-43
-87,-156,-68,122,-9,-112,122,-107,-92,-107,-73,-53
-97,-151,-53,124,-21,-102,131,-102,-87,-107,-73,-58
-107,-156,-48,131,-29,-102,141,-97,-82,-107,-78,-63
-112,-156,-43,134,-34,-100,141,-87,-78,-107,-78,-63
-112,-161,-48,136,-31,-104,126,-87,-73,-107,-82,-68
-112,-161,-48,136,-31,-104,117,-82,-73,-107,-87,-68
-107,-161,-53,134,-26,-107,122,-78,-73,-107,-87,-68
-102,-165,-63,134,-19,-114,122,-78,-68,-102,-87,-68
-107,-165,-58,136,-24,-112,126,-68,-63,-102,-87,-73
-102,-161,-58,131,-21,-109,131,-73,-58,-107,-92,-82
-97,-165,-68,131,-14,-117,131,-73,-53,-107,-92,-82
-97,-165,-68,131,-14,-117,131,-73,-53,-107,-92,-82
-102,-165,-63,134,-19,-114,126,-68,-53,-107,-87,-82
-107,-165,-58,136,-24,-112,117,-63,-48,-102,-87,-82
-107,-170,-63,139,-21,-117,126,-63,-48,-97,-87,-82
-107,-170,-63,139,-21,-117,141,-58,-43,-97,-87,-87
-107,-165,-58,136,-24,-112,141,-53,-39,-92,-87,-87
-107,-165,-58,136,-24,-112,141,-48,-34,-82,-82,-82
-102,-156,-53,129,-24,-104,141,-53,-34,-82,-82,-82
-102,-146,-43,124,-29,-95,141,-58,-29,-82,-78,-78
-97,-141,-43,119,-26,-92,146,-58,-29,-78,-78,-78
-97,-141,-43,119,-26,-92,146,-53,-19,-78,-78,-78
-97,-136,-39,117,-29,-87,141,-48,-24,-78,-78,-73
-97,-136,-39,117,-29,-87,136,-39,-24,-82,-78,-73
-97,-131,-34,114,-31,-82,136,-34,-14,-78,-78,-78
-92,-126,-34,109,-29,-80,131,-24,-4,-68,-78,-78
-87,-126,-39,107,-24,-82,136,-24,0,-63,-78,-78
-87,-122,-34,104,-26,-78,136,-9,9,-63,-73,-78
-78,-117,-39,97,-19,-78,136,-4,14,-58,-73,-73
-63,-112,-48,87,-7,-80,136,0,19,-53,-68,-73
-82,-102,-19,92,-31,-61,141,9,29,-39,-53,-58
-102,-102,0,102,-51,-51,151,19,48,-29,-39,-43
-102,-92,9,97,-56,-41,156,39,68,-24,-34,-48
-92,-82,9,87,-51,-36,156,63,73,-19,-29,-48
-58,-73,-14,65,-21,-43,161,73,78,-24,-29,-43
-34,-68,-34,51,0,-51,161,87,87,-29,-29,-43
-43,-58,-14,51,-14,-36,165,97,102,-9,-19,-34
-48,-48,0,48,-24,-24,175,117,117,14,-9,-24
-48,-34,14,41,-31,-9,180,126,131,29,0,-19
-43,-19,24,31,-34,2,185,146,156,48,9,-14
-43,-4,39,24,-41,17,195,161,175,63,24,-4
-39,-4,34,21,-36,14,200,190,195,78,39,9
-39,14,53,12,-46,34,200,214,214,92,58,34
-48,39,87,4,-68,63,200,234,234,117,78,53
-43,48,92,-2,-68,70,200,248,263,136,97,78
-34,63,97,-14,-65,80,200,268,287,151,107,82
-9,82,92,-36,-51,87,195,287,317,185,131,107
9,97,87,-53,-39,92,190,317,346,219,156,131
53,117,63,-85,-4,90,185,341,375,234,175,146
92,146,53,-119,19,100,175,366,400,244,195,161
112,165,53,-139,29,109,151,390,434,258,209,180
141,175,34,-158,53,104,131,414,463,278,224,200
141,195,53,-168,43,124,126,434,492,307,248,224
151,209,58,-180,46,134,117,458,522,326,273,248
156,253,97,-204,29,175,102,483,556,361,302,273
170,283,112,-226,29,197,92,497,590,395,326,292
190,292,102,-241,43,197,82,507,610,419,346,312
209,302,92,-256,58,197,78,527,634,439,361,326
224,312,87,-268,68,200,73,536,663,448,380,341
224,312,87,-268,68,200,63,541,683,458,400,361
234,302,68,-268,82,185,68,541,688,478,409,361
234,297,63,-265,85,180,68,531,683,488,414,361
234,292,58,-263,87,175,58,507,663,478,409,366
234,278,43,-256,95,161,39,463,629,458,400,356
234,263,29,-248,102,146,29,424,585,439,385,341
209,244,34,-226,87,139,14,385,536,419,366,322
200,209,9,-204,95,109,4,331,488,385,336,297
180,180,0,-180,90,90,0,283,439,336,312,268
161,146,-14,-153,87,65,-4,234,385,297,278,239
136,122,-14,-129,75,53,-9,180,331,263,239,209
112,92,-19,-102,65,36,-4,136,283,234,209,185
82,58,-24,-70,53,17,-4,92,234,195,175,161
63,39,-24,-51,43,7,9,53,190,161,146,126
43,14,-29,-29,36,-7,19,19,156,136,117,97
29,0,-29,-14,29,-14,24,-14,112,102,92,73
19,-29,-48,4,34,-39,29,-39,78,68,68,53
-4,-48,-43,26,19,-46,34,-63,48,48,48,43
-14,-53,-39,34,12,-46,34,-82,29,34,34,24
-24,-63,-39,43,7,-51,43,-97,9,19,24,14
-24,-63,-39,43,7,-51,43,-117,-14,-14,4,0
-34,-73,-39,53,2,-56,43,-141,-29,-19,-4,-4
-43,-78,-34,61,-4,-56,43,-151,-43,-24,-14,-14
-48,-87,-39,68,-4,-63,53,-151,-48,-24,-24,-14
-48,-87,-39,68,-4,-63,58,-151,-53,-34,-29,-19
-48,-92,-43,70,-2,-68,58,-156,-58,-39,-34,-29
-53,-97,-43,75,-4,-70,58,-161,-63,-39,-34,-29
-68,-97,-29,82,-19,-63,53,-165,-58,-48,-34,-34
-78,-97,-19,87,-29,-58,48,-165,-63,-53,-39,-39
-78,-97,-19,87,-29,-58,48,-170,-68,-53,-43,-39
-87,-102,-14,95,-36,-58,48,-170,-68,-48,-43,-39
-87,-102,-14,95,-36,-58,53,-165,-68,-53,-43,-39
-87,-102,-14,95,-36,-58,53,-165,-73,-58,-43,-43
-73,-97,-24,85,-24,-61,48,-170,-78,-58,-48,-43
-58,-97,-39,78,-9,-68,43,-175,-82,-58,-53,-43
-63,-92,-29,78,-17,-61,48,-175,-82,-63,-53,-43
-63,-92,-29,78,-17,-61,48,-180,-87,-63,-53,-48
-68,-92,-24,80,-21,-58,48,-175,-87,-58,-53,-48
-68,-92,-24,80,-21,-58,48,-165,-82,-58,-53,-48
-63,-92,-29,78,-17,-61,48,-161,-82,-63,-58,-48
-63,-92,-29,78,-17,-61,53,-156,-82,-68,-58,-53
-68,-87,-19,78,-24,-53,53,-151,-82,-73,-58,-53
-73,-82,-9,78,-31,-46,53,-146,-78,-73,-53,-53
-73,-82,-9,78,-31,-46,58,-146,-78,-68,-53,-53
-73,-82,-9,78,-31,-46,58,-146,-78,-68,-53,-63
-73,-78,-4,75,-34,-41,58,-146,-78,-63,-63,-63
-73,-78,-4,75,-34,-41,58,-141,-78,-58,-63,-58
-73,-78,-4,75,-34,-41,63,-141,-78,-63,-68,-58
-63,-73,-9,68,-26,-41,63,-141,-82,-63,-73,-58
-63,-73,-9,68,-26,-41,58,-146,-82,-68,-68,-63
-63,-78,-14,70,-24,-46,53,-146,-82,-73,-68,-73
-63,-82,-19,73,-21,-51,53,-141,-92,-82,-78,-73
-63,-82,-19,73,-21,-51,53,-141,-102,-87,-78,-73
-63,-82,-19,73,-21,-51,58,-131,-97,-87,-73,-68
-58,-78,-19,68,-19,-48,58,-126,-97,-87,-73,-68
-63,-73,-9,68,-26,-41,53,-126,-87,-78,-73,-73
-68,-73,-4,70,-31,-39,53,-126,-82,-73,-73,-73
-68,-92,-24,80,-21,-58,58,-112,-82,-73,-73,-73
-68,-112,-43,90,-12,-78,63,-102,-82,-73,-73,-68
-68,-102,-34,85,-17,-68,58,-102,-82,-73,-73,-68
-68,-87,-19,78,-24,-53,58,-97,-82,-73,-73,-68
-68,-78,-9,73,-29,-43,58,-97,-78,-78,-78,-68
-63,-68,-4,65,-29,-36,58,-97,-78,-82,-82,-68
-63,-68,-4,65,-29,-36,58,-97,-78,-78,-82,-73
-68,-82,-14,75,-26,-48,53,-102,-82,-78,-82,-78
-68,-78,-9,73,-29,-43,58,-102,-82,-78,-87,-82
-68,-63,4,65,-36,-29,63,-102,-82,-87,-92,-87
-68,-58,9,63,-39,-24,58,-107,-92,-92,-92,-87
-63,-53,9,58,-36,-21,58,-112,-102,-92,-92,-82
-63,-53,9,58,-36,-21,58,-102,-102,-92,-92,-82
-68,-53,14,61,-41,-19,58,-92,-102,-97,-92,-82
-68,-53,14,61,-41,-19,58,-92,-102,-97,-97,-82
-68,-53,14,61,-41,-19,58,-97,-102,-97,-97,-82
-63,-68,-4,65,-29,-36,58,-92,-107,-97,-92,-82
-63,-87,-24,75,-19,-56,58,-82,-107,-97,-87,-78
-63,-87,-24,75,-19,-56,58,-82,-107,-97,-87,-73
-63,-82,-19,73,-21,-51,48,-82,-107,-97,-92,-73
-63,-73,-9,68,-26,-41,48,-87,-107,-97,-92,-73
-63,-63,0,63,-31,-31,53,-87,-112,-97,-92,-68
-68,-63,4,65,-36,-29,53,-87,-112,-97,-92,-68
-68,-63,4,65,-36,-29,53,-92,-112,-102,-97,-73
-68,-63,4,65,-36,-29,53,-87,-112,-102,-97,-78
-68,-63,4,65,-36,-29,48,-82,-107,-102,-97,-82
-78,-68,9,73,-43,-29,53,-73,-107,-97,-97,-82
-87,-73,14,80,-51,-29,58,-58,-107,-97,-97,-82
-92,-68,24,80,-58,-21,58,-58,-107,-97,-97,-92
-92,-63,29,78,-61,-17,58,-58,-107,-97,-102,-102
-68,-63,4,65,-36,-29,58,-78,-107,-102,-112,-107
-48,-63,-14,56,-17,-39,58,-87,-107,-112,-117,-112
-48,-58,-9,53,-19,-34,58,-82,-107,-117,-112,-112
-48,-58,-9,53,-19,-34,58,-82,-112,-117,-112,-112
-53,-58,-4,56,-24,-31,63,-73,-117,-112,-112,-112
-58,-58,0,58,-29,-29,68,-68,-117,-112,-112,-112
-63,-58,4,61,-34,-26,68,-63,-107,-107,-112,-112
-68,-53,14,61,-41,-19,68,-58,-102,-107,-112,-112
-68,-58,9,63,-39,-24,68,-58,-107,-107,-112,-112
-53,-58,-4,56,-24,-31,68,-63,-112,-117,-117,-112
-48,-58,-9,53,-19,-34,68,-63,-112,-117,-107,-107
-63,-53,9,58,-36,-21,68,-63,-107,-117,-97,-102
-63,-48,14,56,-39,-17,63,-63,-112,-112,-107,-102
-63,-43,19,53,-41,-12,68,-63,-122,-112,-117,-102
-53,-39,14,46,-34,-12,68,-58,-117,-107,-112,-97
-48,-39,9,43,-29,-14,68,-58,-117,-107,-107,-97
-68,-39,29,53,-48,-4,68,-58,-117,-107,-107,-97
-87,-39,48,63,-68,4,68,-58,-117,-107,-107,-97
-73,-39,34,56,-53,-2,63,-63,-122,-112,-112,-102
-58,-39,19,48,-39,-9,58,-68,-126,-117,-117,-107
-58,-39,19,48,-39,-9,53,-68,-126,-117,-117,-107
-58,-39,19,48,-39,-9,48,-68,-126,-117,-117,-107
-63,-39,24,51,-43,-7,48,-68,-126,-117,-112,-107
-68,-39,29,53,-48,-4,48,-68,-126,-117,-107,-107
-68,-39,29,53,-48,-4,48,-68,-126,-112,-107,-102
-68,-39,29,53,-48,-4,48,-68,-126,-107,-107,-97
-68,-39,29,53,-48,-4,43,-68,-126,-107,-107,-97
-68,-39,29,53,-48,-4,39,-68,-126,-107,-107,-97
-58,-39,19,48,-39,-9,39,-68,-131,-112,-112,-97
-48,-39,9,43,-29,-14,39,-68,-136,-117,-117,-97
-58,-39,19,48,-39,-9,39,-68,-136,-117,-117,-97
-68,-39,29,53,-48,-4,39,-68,-136,-117,-117,-97
-68,-39,29,53,-48,-4,39,-68,-136,-117,-117,-102
-68,-39,29,53,-48,-4,39,-68,-136,-117,-117,-107
-68,-39,29,53,-48,-4,34,-68,-136,-117,-117,-107
-68,-39,29,53,-48,-4,29,-68,-136,-117,-117,-107
-68,-34,34,51,-51,0,24,-68,-136,-117,-117,-107
-68,-29,39,48,-53,4,19,-68,-136,-117,-117,-107
-68,-29,39,48,-53,4,19,-73,-136,-122,-117,-107
-68,-29,39,48,-53,4,19,-78,-136,-126,-117,-107
-68,-29,39,48,-53,4,19,-78,-136,-126,-117,-107
-68,-29,39,48,-53,4,19,-78,-136,-126,-117,-107
-68,-29,39,48,-53,4,19,-78,-136,-126,-122,-107
-68,-29,39,48,-53,4,19,-78,-136,-126,-126,-107
-68,-29,39,48,-53,4,19,-78,-141,-126,-126,-107
-68,-29,39,48,-53,4,19,-78,-146,-126,-126,-107
-68,-29,39,48,-53,4,19,-78,-146,-126,-126,-107
-68,-29,39,48,-53,4,19,-78,-146,-126,-126,-107
-68,-24,43,46,-56,9,19,-82,-146,-131,-126,-112
-68,-19,48,43,-58,14,19,-87,-146,-136,-126,-117
-68,-19,48,43,-58,14,19,-87,-141,-136,-126,-117
-68,-19,48,43,-58,14,19,-87,-136,-136,-126,-117
-68,-4,63,36,-65,29,24,-78,-131,-126,-122,-107
-68,9,78,29,-73,43,29,-68,-126,-117,-117,-97
-58,29,87,14,-73,58,34,-63,-117,-112,-107,-92
-48,48,97,0,-73,73,39,-58,-107,-107,-97,-87
-43,53,97,-4,-70,75,43,-48,-102,-102,-97,-87
-39,53,92,-7,-65,73,48,-43,-97,-97,-97,-87
-39,58,97,-9,-68,78,53,-39,-92,-97,-97,-87
-34,63,97,-14,-65,80,58,-29,-82,-92,-92,-87
-19,58,78,-19,-48,68,58,-29,-82,-87,-87,-87
-14,58,73,-21,-43,65,48,-34,-78,-87,-82,-78
-9,58,68,-24,-39,63,34,-39,-82,-82,-78,-73
14,73,58,-43,-21,65,14,-39,-82,-78,-73,-68
29,73,43,-51,-7,58,-4,-39,-78,-78,-68,-63
39,73,34,-56,2,53,-9,-39,-78,-82,-73,-58
43,78,34,-61,4,56,-14,-39,-78,-82,-73,-63
43,78,34,-61,4,56,-19,-53,-92,-82,-73,-68
29,73,43,-51,-7,58,-24,-68,-97,-82,-78,-68
24,73,48,-48,-12,61,-24,-73,-107,-97,-82,-68
9,78,68,-43,-29,73,-24,-73,-112,-97,-87,-73
4,73,68,-39,-31,70,-24,-73,-112,-97,-87,-73
9,58,48,-34,-19,53,-24,-73,-112,-97,-87,-73
9,58,48,-34,-19,53,-29,-82,-122,-102,-92,-73
19,63,43,-41,-12,53,-48,-87,-126,-107,-97,-73
24,63,39,-43,-7,51,-53,-87,-126,-107,-102,-73
14,63,48,-39,-17,56,-43,-87,-126,-107,-102,-73
-9,39,48,-14,-29,43,-24,-87,-131,-112,-112,-87
-43,19,63,12,-53,41,-4,-102,-141,-136,-131,-102
-68,4,73,31,-70,39,0,-126,-165,-161,-146,-122
-68,-4,63,36,-65,29,0,-136,-180,-170,-161,-131
-68,-14,53,41,-61,19,0,-136,-185,-170,-165,-136
-68,-9,58,39,-63,24,0,-131,-185,-170,-165,-136
-68,-4,63,36,-65,29,9,-131,-185,-175,-165,-141
-78,-9,68,43,-73,29,14,-136,-185,-170,-161,-136
-97,-9,87,53,-92,39,19,-136,-180,-165,-156,-131
-97,-9,87,53,-92,39,19,-136,-180,-165,-161,-131
-97,-9,87,53,-92,39,24,-136,-180,-165,-161,-131
-107,-9,97,58,-102,43,19,-136,-185,-170,-161,-136
-107,-9,97,58,-102,43,19,-136,-190,-175,-161,-141
-97,-9,87,53,-92,39,19,-141,-190,-180,-165,-141
-87,-9,78,48,-82,34,19,-146,-195,-185,-170,-141
-87,-9,78,48,-82,34,19,-146,-195,-185,-175,-146
-87,-9,78,48,-82,34,19,-151,-195,-185,-175,-146
-87,-4,82,46,-85,39,24,-146,-200,-190,-175,-146
-87,0,87,43,-87,43,24,-141,-200,-190,-175,-146
-92,0,92,46,-92,46,24,-141,-195,-190,-170,-146
-107,0,107,53,-107,53,39,-126,-185,-190,-170,-156
-107,-9,97,58,-102,43,58,-107,-175,-185,-185,-161
-117,-19,97,68,-107,39,102,-39,-122,-170,-185,-165
-126,-39,87,82,-107,24,146,58,-34,-131,-165,-165
-112,-14,97,63,-104,41,73,68,58,-48,-112,-141
-14,34,48,-9,-31,41,-82,136,219,102,-9,-73
122,122,0,-122,61,61,-278,258,448,317,161,48
322,278,-43,-300,183,117,-570,473,795,639,448,244
624,497,-126,-561,375,185,-907,844,1366,1171,883,551
951,756,-195,-854,573,280,-1185,1307,2039,1747,1361,907
1239,1019,-219,-1129,729,400,-1415,1659,2557,2166,1717,1190
1346,1171,-175,-1259,761,497,-1639,1512,2640,2293,1869,1342
1307,1229,-78,-1268,692,575,-1834,751,1947,1805,1610,1302
1127,1156,29,-1141,549,592,-1883,-151,1093,1185,1210,1098
854,932,78,-893,387,505,-1815,-1054,29,366,619,775
644,849,204,-746,219,527,-1732,-1771,-985,-317,219,605
575,849,273,-712,151,561,-1546,-1786,-1254,-497,117,575
522,819,297,-671,112,558,-1288,-1400,-990,-375,117,536
439,756,317,-597,61,536,-995,-1112,-771,-297,102,453
346,639,292,-492,26,466,-775,-858,-600,-229,87,361
278,522,244,-400,17,383,-595,-653,-468,-175,63,278
209,400,190,-305,9,295,-405,-473,-366,-151,14,175
117,287,170,-202,-26,229,-248,-351,-297,-170,-53,68
39,204,165,-122,-63,185,-136,-258,-253,-185,-102,-24
-14,126,141,-56,-78,134,-68,-175,-214,-175,-136,-82
-43,107,151,-31,-97,129,-29,-126,-190,-165,-141,-97
-58,97,156,-19,-107,126,9,-117,-185,-175,-151,-107
-78,87,165,-4,-122,126,34,-112,-175,-175,-156,-122
-82,78,161,2,-122,119,43,-92,-165,-175,-156,-131
-82,48,131,17,-107,90,53,-73,-161,-175,-161,-141
-87,43,131,21,-109,87,63,-68,-161,-175,-161,-146
-97,43,141,26,-119,92,73,-63,-156,-175,-161,-146
-102,39,141,31,-122,90,82,-58,-151,-175,-165,-151
-102,39,141,31,-122,90,82,-48,-146,-170,-165,-151
-102,39,141,31,-122,90,82,-48,-141,-165,-165,-156
-102,43,146,29,-124,95,87,-43,-141,-165,-165,-156
-102,43,146,29,-124,95,92,-39,-141,-165,-165,-156
-102,34,136,34,-119,85,92,-39,-136,-161,-165,-156
-112,29,141,41,-126,85,97,-24,-131,-156,-165,-156
-112,34,146,39,-129,90,102,-24,-126,-156,-170,-161
-107,34,141,36,-124,87,102,-24,-122,-156,-170,-161
-107,39,146,34,-126,92,102,-24,-122,-161,-170,-161
-107,39,146,34,-126,92,107,-19,-122,-165,-165,-161
-107,39,146,34,-126,92,107,-14,-117,-161,-165,-156
-107,39,146,34,-126,92,107,-14,-117,-156,-165,-151
-107,43,151,31,-129,97,112,-9,-112,-151,-165,-156
-107,48,156,29,-131,102,112,-4,-107,-146,-165,-156
-107,43,151,31,-129,97,122,0,-102,-141,-161,-151
-102,43,146,29,-124,95,131,4,-102,-141,-161,-151
-102,48,151,26,-126,100,122,9,-97,-141,-156,-151
-97,53,151,21,-124,102,117,9,-97,-136,-156,-156
-97,53,151,21,-124,102,117,14,-87,-136,-156,-156
-97,58,156,19,-126,107,117,19,-87,-131,-156,-151
-97,58,156,19,-126,107,117,29,-82,-131,-156,-151
-97,63,161,17,-129,112,122,34,-73,-126,-151,-151
-92,73,165,9,-129,119,126,43,-63,-117,-146,-146
-87,78,165,4,-126,122,136,43,-58,-112,-146,-146
-87,82,170,2,-129,126,136,58,-48,-112,-141,-146
-87,87,175,0,-131,131,136,63,-43,-107,-141,-141
-82,92,175,-4,-129,134,136,68,-43,-102,-141,-141
-82,102,185,-9,-134,143,136,78,-43,-92,-136,-136
-82,102,185,-9,-134,143,141,87,-29,-87,-126,-131
-82,112,195,-14,-139,153,146,97,-9,-82,-122,-126
-73,122,195,-24,-134,158,146,107,0,-82,-117,-117
-63,131,195,-34,-129,163,151,112,9,-78,-112,-112
-63,136,200,-36,-131,168,151,126,19,-68,-107,-112
-63,146,209,-41,-136,178,151,136,34,-58,-97,-102
-58,156,214,-48,-136,185,156,156,48,-43,-87,-97
-58,170,229,-56,-143,200,161,165,63,-34,-78,-92
-53,180,234,-63,-143,207,165,185,87,-19,-73,-82
-53,195,248,-70,-151,222,170,195,107,-4,-63,-73
-58,200,258,-70,-158,229,170,219,126,9,-48,-58
-48,219,268,-85,-158,244,170,244,146,24,-34,-43
-39,248,287,-104,-163,268,170,263,161,43,-19,-39
-34,268,302,-117,-168,285,170,283,185,58,0,-19
-24,287,312,-131,-168,300,170,307,209,73,4,-14
-9,307,317,-148,-163,312,170,326,239,97,24,9
4,322,317,-163,-156,319,175,356,268,117,48,29
24,341,317,-183,-146,329,175,385,302,136,68,43
34,370,336,-202,-151,353,165,414,331,156,87,63
43,390,346,-217,-151,368,156,439,366,175,107,82
63,400,336,-231,-136,368,151,463,390,195,122,102
78,419,341,-248,-131,380,146,483,414,219,141,122
102,429,326,-265,-112,378,136,507,444,239,165,136
112,458,346,-285,-117,402,122,531,473,263,190,156
122,478,356,-300,-117,417,112,546,502,287,209,175
131,488,356,-309,-112,422,102,556,522,307,229,195
161,497,336,-329,-87,417,97,575,541,322,244,209
190,507,317,-348,-63,412,82,580,556,331,253,214
195,507,312,-351,-58,409,63,575,566,341,263,224
204,497,292,-351,-43,395,53,570,566,351,268,224
204,492,287,-348,-41,390,39,561,561,356,273,229
204,488,283,-346,-39,385,29,536,541,346,268,229
204,473,268,-339,-31,370,9,497,507,326,258,209
204,453,248,-329,-21,351,4,453,463,302,244,195
180,429,248,-305,-34,339,-4,405,409,278,219,175
175,395,219,-285,-21,307,-14,351,356,248,190,151
161,366,204,-263,-21,285,-19,302,302,200,170,126
141,331,190,-236,-24,261,-19,253,248,161,141,102
117,312,195,-214,-39,253,-24,204,200,131,102,78
92,287,195,-190,-51,241,-24,165,156,107,78,58
63,258,195,-161,-65,226,-29,122,107,68,48,34
48,244,195,-146,-73,219,-29,82,63,34,19,4
43,219,175,-131,-65,197,-34,48,29,9,-9,-19
39,204,165,-122,-63,185,-39,14,-9,-14,-29,-39
29,175,146,-102,-58,161,-39,-9,-39,-39,-43,-48
4,156,151,-80,-73,153,-34,-34,-63,-58,-58,-53
-4,151,156,-73,-80,153,-34,-48,-78,-73,-73,-73
-14,141,156,-63,-85,148,-24,-53,-92,-78,-78,-78
-14,141,156,-63,-85,148,-24,-68,-112,-102,-87,-87
-24,131,156,-53,-90,143,-24,-82,-122,-107,-87,-92
-39,126,165,-43,-102,146,-24,-87,-126,-112,-87,-97
-48,117,165,-34,-107,141,-19,-92,-126,-112,-92,-92
-48,117,165,-34,-107,141,-19,-92,-131,-117,-97,-97
-43,112,156,-34,-100,134,-19,-97,-136,-117,-102,-107
-43,107,151,-31,-97,129,-19,-102,-141,-117,-102,-107
-48,107,156,-29,-102,131,-19,-107,-141,-126,-102,-107
-39,107,146,-34,-92,126,-19,-107,-151,-131,-107,-107
-29,107,136,-39,-82,122,-19,-112,-156,-131,-112,-107
-48,102,151,-26,-100,126,-19,-112,-156,-126,-112,-107
-58,102,161,-21,-109,131,-14,-107,-151,-126,-112,-107
-58,102,161,-21,-109,131,-14,-112,-156,-126,-112,-112
-58,102,161,-21,-109,131,-14,-117,-161,-126,-112,-112
-58,102,161,-21,-109,131,-14,-117,-161,-126,-117,-112
-63,107,170,-21,-117,139,-9,-117,-161,-131,-122,-112
-63,102,165,-19,-114,134,-9,-122,-165,-136,-122,-117
-68,102,170,-17,-119,136,-9,-122,-165,-136,-122,-117
-68,102,170,-17,-119,136,-9,-117,-165,-136,-122,-117
-63,102,165,-19,-114,134,-9,-117,-170,-141,-126,-117
-63,102,165,-19,-114,134,-4,-117,-170,-146,-126,-122
-68,102,170,-17,-119,136,-4,-117,-175,-151,-131,-122
-82,102,185,-9,-134,143,-4,-117,-175,-151,-131,-122
-92,102,195,-4,-143,148,0,-117,-175,-146,-131,-122
-82,102,185,-9,-134,143,0,-126,-180,-151,-131,-136
-73,102,175,-14,-124,139,0,-136,-185,-156,-141,-141
-73,97,170,-12,-122,134,4,-131,-185,-156,-141,-136
-82,97,180,-7,-131,139,14,-131,-185,-161,-141,-136
-92,102,195,-4,-143,148,14,-131,-185,-161,-141,-136
-102,102,204,0,-153,153,14,-131,-180,-161,-136,-136
-92,102,195,-4,-143,148,14,-126,-180,-161,-136,-141
-82,102,185,-9,-134,143,14,-122,-180,-165,-146,-141
-82,102,185,-9,-134,143,14,-122,-185,-165,-151,-141
-82,102,185,-9,-134,143,19,-117,-185,-165,-151,-136
-78,102,180,-12,-129,141,19,-112,-185,-165,-151,-136
-78,102,180,-12,-129,141,14,-107,-180,-161,-151,-141
-78,102,180,-12,-129,141,14,-107,-180,-161,-151,-146
-78,102,180,-12,-129,141,14,-102,-180,-161,-151,-151
-78,97,175,-9,-126,136,14,-102,-180,-161,-151,-146
-78,92,170,-7,-124,131,9,-102,-180,-161,-151,-146
-78,97,175,-9,-126,136,9,-97,-180,-161,-151,-146
-78,97,175,-9,-126,136,9,-97,-175,-161,-151,-146
-73,97,170,-12,-122,134,4,-97,-170,-161,-151,-146
-73,97,170,-12,-122,134,0,-97,-165,-156,-151,-146
-87,82,170,2,-129,126,-4,-97,-165,-151,-146,-146
-97,82,180,7,-139,131,-4,-92,-161,-146,-141,-146
-97,87,185,4,-141,136,-4,-92,-161,-156,-141,-146
-97,87,185,4,-141,136,-9,-97,-165,-156,-141,-146
-87,92,180,-2,-134,136,-9,-102,-170,-151,-141,-146
-82,92,175,-4,-129,134,-9,-102,-170,-151,-141,-151
-82,92,175,-4,-129,134,-9,-107,-170,-156,-141,-151
-78,92,170,-7,-124,131,-9,-112,-170,-156,-146,-151
-78,87,165,-4,-122,126,-9,-117,-170,-156,-146,-151
-73,82,156,-4,-114,119,-9,-122,-175,-156,-146,-156
-78,78,156,0,-117,117,-9,-122,-175,-156,-146,-156
-82,78,161,2,-122,119,-9,-122,-175,-156,-146,-151
-87,82,170,2,-129,126,-19,-122,-175,-156,-151,-151
-92,82,175,4,-134,129,-19,-126,-175,-156,-151,-151
-92,82,175,4,-134,129,-14,-126,-175,-151,-151,-141
-97,82,180,7,-139,131,-14,-126,-170,-146,-146,-136
-92,82,175,4,-134,129,-14,-131,-170,-151,-146,-141
-87,82,170,2,-129,126,-14,-131,-175,-151,-146,-141
-87,82,170,2,-129,126,-14,-136,-180,-151,-146,-141
-87,82,170,2,-129,126,-9,-141,-185,-151,-146,-141
-82,78,161,2,-122,119,-9,-136,-185,-156,-146,-141
-82,78,161,2,-122,119,-9,-136,-185,-156,-146,-141
-82,82,165,0,-124,124,-14,-136,-185,-156,-151,-141
-78,82,161,-2,-119,122,-19,-146,-185,-151,-151,-141
-78,82,161,-2,-119,122,-19,-146,-185,-151,-146,-141
-78,82,161,-2,-119,122,-19,-141,-185,-156,-141,-141
-78,78,156,0,-117,117,-19,-141,-180,-156,-141,-141
-78,78,156,0,-117,117,-19,-136,-175,-151,-141,-141
-87,78,165,4,-126,122,-19,-136,-175,-151,-141,-141
-102,78,180,12,-141,129,-19,-136,-170,-146,-141,-141
-97,78,175,9,-136,126,-19,-136,-170,-146,-141,-141
-87,73,161,7,-124,117,-19,-136,-175,-146,-141,-141
-73,78,151,-2,-112,114,-19,-141,-180,-156,-146,-141
-63,78,141,-7,-102,109,-19,-141,-180,-156,-146,-141
-78,78,156,0,-117,117,-19,-141,-175,-156,-146,-141
-82,73,156,4,-119,114,-24,-141,-175,-151,-146,-141
-73,73,146,0,-109,109,-19,-141,-175,-146,-146,-141
-68,78,146,-4,-107,112,-14,-141,-175,-146,-146,-141
-73,78,151,-2,-112,114,-9,-136,-175,-151,-141,-136
-78,78,156,0,-117,117,-9,-136,-175,-156,-136,-136
-78,73,151,2,-114,112,-14,-141,-175,-156,-136,-136
-78,68,146,4,-112,107,-19,-146,-175,-156,-136,-136
-78,68,146,4,-112,107,-19,-151,-175,-156,-136,-136
-78,68,146,4,-112,107,-19,-156,-175,-156,-136,-136
-82,68,151,7,-117,109,-19,-156,-175,-156,-136,-136
-87,68,156,9,-122,112,-19,-156,-175,-156,-136,-136
-87,68,156,9,-122,112,-14,-156,-175,-156,-136,-136
-87,68,156,9,-122,112,-9,-156,-175,-156,-136,-136
-87,68,156,9,-122,112,-9,-151,-175,-156,-136,-131
-87,68,156,9,-122,112,-9,-146,-175,-156,-136,-126
-87,68,156,9,-122,112,-9,-146,-175,-156,-136,-126
-87,68,156,9,-122,112,-9,-146,-175,-156,-136,-126
-87,68,156,9,-122,112,-9,-146,-175,-156,-136,-126
-87,68,156,9,-122,112,-9,-146,-175,-156,-136,-126
-87,63,151,12,-119,107,-9,-146,-175,-156,-136,-126
-87,58,146,14,-117,102,-9,-146,-175,-156,-136,-126
-87,58,146,14,-117,102,-9,-151,-175,-156,-136,-131
-87,58,146,14,-117,102,-9,-156,-175,-156,-136,-136
-82,58,141,12,-112,100,-9,-156,-175,-156,-136,-136
-78,58,136,9,-107,97,-9,-156,-175,-156,-136,-136
-78,53,131,12,-104,92,-9,-156,-175,-156,-136,-136
-78,48,126,14,-102,87,-9,-156,-175,-156,-136,-136
-82,48,131,17,-107,90,-9,-151,-175,-156,-136,-136
-87,48,136,19,-112,92,-9,-146,-175,-156,-136,-136
-87,48,136,19,-112,92,-9,-146,-175,-156,-136,-136
-87,48,136,19,-112,92,-9,-146,-175,-156,-136,-136
-87,48,136,19,-112,92,-9,-146,-175,-156,-136,-136
-87,48,136,19,-112,92,-9,-146,-175,-156,-136,-136
-87,48,136,19,-112,92,-9,-146,-175,-156,-141,-136
-87,48,136,19,-112,92,-9,-146,-175,-156,-146,-136
-87,48,136,19,-112,92,-9,-146,-175,-156,-146,-136
-87,48,136,19,-112,92,-9,-146,-175,-156,-146,-136
-87,48,136,19,-112,92,0,-146,-170,-151,-136,-131
-87,48,136,19,-112,92,9,-146,-165,-146,-126,-126
-78,68,146,4,-112,107,14,-136,-156,-136,-122,-117
-68,87,156,-9,-112,122,19,-126,-146,-126,-117,-107
-68,97,165,-14,-117,131,24,-122,-136,-117,-112,-102
-68,102,170,-17,-119,136,29,-117,-126,-112,-107,-97
-68,107,175,-19,-122,141,39,-112,-122,-107,-107,-97
-63,112,175,-24,-119,143,48,-97,-112,-102,-102,-97
-48,112,161,-31,-104,136,53,-92,-112,-97,-97,-97
-43,117,161,-36,-102,139,48,-92,-107,-97,-92,-87
-39,112,151,-36,-95,131,34,-97,-107,-92,-87,-82
-14,122,136,-53,-75,129,14,-97,-102,-87,-82,-78
4,122,117,-63,-56,119,-4,-87,-97,-82,-68,-73
19,122,102,-70,-41,112,-9,-78,-97,-82,-63,-68
29,122,92,-75,-31,107,-24,-78,-92,-82,-63,-68
34,117,82,-75,-24,100,-39,-92,-102,-82,-63,-68
19,112,92,-65,-36,102,-43,-107,-107,-78,-68,-68
14,112,97,-63,-41,104,-43,-112,-117,-87,-73,-68
4,112,107,-58,-51,109,-43,-112,-122,-87,-78,-73
4,102,97,-53,-46,100,-43,-112,-122,-87,-78,-73
14,87,73,-51,-29,80,-43,-112,-122,-92,-73,-73
19,87,68,-53,-24,78,-48,-122,-131,-102,-73,-73
24,87,63,-56,-19,75,-63,-126,-136,-107,-78,-73
24,82,58,-53,-17,70,-63,-126,-136,-107,-82,-73
14,82,68,-48,-26,75,-53,-122,-136,-102,-73,-68
-9,58,68,-24,-39,63,-34,-117,-141,-102,-73,-78
-43,39,82,2,-63,61,-14,-126,-151,-122,-102,-92
-68,24,92,21,-80,58,-9,-146,-175,-141,-126,-112
-73,4,78,34,-75,41,-9,-156,-185,-151,-141,-122
-78,-14,63,46,-70,24,-9,-156,-185,-151,-146,-126
-78,-14,63,46,-70,24,-9,-151,-185,-156,-146,-126
-78,-14,63,46,-70,24,0,-151,-185,-165,-146,-131
-78,-19,58,48,-68,19,0,-156,-195,-165,-146,-131
-87,-19,68,53,-78,24,0,-156,-200,-165,-146,-131
-92,-24,68,58,-80,21,0,-156,-200,-165,-146,-131
-97,-29,68,63,-82,19,4,-156,-200,-165,-141,-131
-107,-29,78,68,-92,24,4,-156,-200,-161,-141,-131
-107,-29,78,68,-92,24,9,-156,-200,-156,-141,-131
-107,-34,73,70,-90,19,9,-156,-200,-161,-141,-131
-107,-39,68,73,-87,14,9,-156,-204,-165,-141,-131
-107,-39,68,73,-87,14,9,-156,-204,-165,-146,-136
-107,-39,68,73,-87,14,9,-161,-204,-165,-146,-136
-107,-39,68,73,-87,14,19,-161,-204,-170,-146,-136
-107,-39,68,73,-87,14,24,-161,-200,-170,-146,-136
-107,-39,68,73,-87,14,14,-161,-200,-170,-146,-131
-117,-39,78,78,-97,19,19,-146,-195,-170,-151,-136
-117,-53,63,85,-90,4,29,-151,-209,-180,-165,-146
-126,-68,58,97,-92,-4,63,-107,-180,-180,-165,-156
-136,-112,24,124,-80,-43,170,-9,-122,-180,-180,-185
-122,-112,9,117,-65,-51,161,0,-58,-136,-161,-190
-97,-97,0,97,-48,-48,63,43,58,-34,-102,-156
-34,-43,-9,39,-12,-26,-73,141,244,131,24,-68
117,82,-34,-100,75,24,-361,248,458,336,219,68
370,273,-97,-322,234,87,-692,512,897,751,561,317
751,546,-204,-649,478,170,-1000,1176,1781,1498,1161,741
1093,824,-268,-958,680,278,-1259,1727,2508,2088,1639,1093
1312,1068,-244,-1190,778,412,-1542,1830,2869,2444,1956,1351
1385,1220,-165,-1302,775,527,-1795,1317,2454,2186,1864,1420
1239,1156,-82,-1198,661,536,-1908,385,1693,1625,1507,1239
1000,941,-58,-971,529,441,-1903,-546,722,863,961,941
732,829,97,-780,317,463,-1869,-1620,-697,-68,419,712
605,800,195,-702,204,497,-1732,-1991,-1371,-497,175,624
551,785,234,-668,158,509,-1464,-1586,-1102,-380,170,595
468,736,268,-602,100,502,-1161,-1278,-878,-307,151,522
361,629,268,-495,46,448,-902,-1000,-683,-229,141,434
278,522,244,-400,17,383,-683,-771,-527,-165,122,356
214,380,165,-297,24,273,-478,-566,-400,-112,78,253
126,248,122,-187,2,185,-307,-419,-307,-102,14,146
39,146,107,-92,-34,126,-161,-312,-248,-131,-39,29
-24,48,73,-12,-48,61,-58,-214,-195,-136,-78,-53
-68,14,82,26,-75,48,-14,-146,-165,-117,-82,-68
-97,-9,87,53,-92,39,29,-117,-156,-117,-92,-78
-112,-19,92,65,-102,36,53,-112,-146,-117,-102,-92
-112,-29,82,70,-97,26,63,-92,-136,-117,-107,-102
-97,-58,39,78,-68,-9,73,-68,-131,-122,-112,-112
-87,-63,24,75,-56,-19,82,-58,-131,-126,-112,-117
-107,-68,39,87,-73,-14,97,-53,-126,-126,-112,-117
-122,-78,43,100,-82,-17,112,-48,-122,-126,-117,-122
-122,-82,39,102,-80,-21,112,-39,-126,-126,-126,-126
-122,-87,34,104,-78,-26,112,-39,-131,-126,-136,-136
-122,-87,34,104,-78,-26,122,-34,-122,-126,-136,-136
-122,-92,29,107,-75,-31,131,-29,-112,-126,-136,-136
-122,-102,19,112,-70,-41,136,-24,-102,-112,-131,-136
-131,-107,24,119,-78,-41,146,-4,-92,-97,-126,-136
-136,-107,29,122,-82,-39,151,0,-87,-92,-126,-141
-136,-112,24,124,-80,-43,151,4,-82,-87,-122,-141
-136,-117,19,126,-78,-48,151,4,-82,-87,-122,-141
-136,-126,9,131,-73,-58,156,9,-82,-87,-117,-141
-136,-126,9,131,-73,-58,156,14,-78,-87,-117,-141
-136,-126,9,131,-73,-58,156,14,-78,-87,-117,-141
-136,-122,14,129,-75,-53,156,19,-73,-87,-117,-146
-136,-117,19,126,-78,-48,151,24,-68,-87,-117,-146
-136,-117,19,126,-78,-48,151,29,-63,-82,-112,-141
-131,-112,19,122,-75,-46,151,34,-63,-82,-112,-141
-136,-107,29,122,-82,-39,151,39,-58,-82,-107,-136
-136,-102,34,119,-85,-34,156,39,-58,-78,-107,-136
-146,-102,43,124,-95,-29,161,48,-43,-78,-107,-136
-156,-97,58,126,-107,-19,165,58,-39,-73,-107,-131
-156,-102,53,129,-104,-24,165,68,-34,-68,-107,-131
-156,-102,53,129,-104,-24,170,73,-24,-58,-102,-131
-131,-102,29,117,-80,-36,170,78,-19,-48,-97,-126
-107,-107,0,107,-53,-53,175,73,-19,-43,-97,-126
-107,-102,4,104,-56,-48,175,87,-9,-43,-92,-126
-107,-97,9,102,-58,-43,175,92,-4,-39,-92,-122
-102,-97,4,100,-53,-46,175,97,0,-39,-87,-122
-102,-92,9,97,-56,-41,175,107,4,-34,-78,-117
-102,-92,9,97,-56,-41,185,117,19,-29,-68,-112
-102,-82,19,92,-61,-31,195,126,39,-24,-63,-107
-97,-73,24,85,-61,-24,200,141,43,-19,-58,-97
-92,-63,29,78,-61,-17,209,151,48,-9,-53,-92
-92,-63,29,78,-61,-17,209,170,58,0,-48,-92
-92,-58,34,75,-63,-12,209,185,73,9,-39,-82
-82,-53,29,68,-56,-12,209,204,87,24,-29,-73
-78,-43,34,61,-56,-4,209,214,102,34,-19,-63
-73,-29,43,51,-58,7,214,229,122,48,-9,-53
-73,-9,63,41,-68,26,219,234,136,63,4,-43
-73,-4,68,39,-70,31,219,258,156,78,29,-19
-58,14,73,21,-65,43,219,283,175,92,53,4
-48,34,82,7,-65,58,224,302,190,112,58,4
-43,43,87,0,-65,65,229,322,214,126,68,19
-34,58,92,-12,-63,75,239,346,239,136,73,19
-19,73,92,-26,-56,82,248,366,268,156,92,39
-9,87,97,-39,-53,92,248,395,297,180,117,63
4,107,102,-56,-48,104,244,424,331,204,136,82
19,146,126,-82,-53,136,234,463,361,229,156,107
34,175,141,-104,-53,158,224,497,395,253,175,131
58,185,126,-122,-34,156,219,527,424,278,200,151
78,204,126,-141,-24,165,214,551,453,307,229,170
102,214,112,-158,-4,163,204,585,492,331,253,185
112,244,131,-178,-9,187,190,619,531,361,278,204
131,263,131,-197,0,197,180,639,561,385,297,224
151,273,122,-212,14,197,170,653,580,405,317,244
170,283,112,-226,29,197,165,678,605,419,331,268
190,292,102,-241,43,197,151,688,624,429,341,283
190,292,102,-241,43,197,131,702,649,444,356,297
195,283,87,-239,53,185,122,717,663,458,366,302
195,268,73,-231,61,170,107,717,668,468,370,302
195,253,58,-224,68,156,97,702,658,463,366,297
204,239,34,-222,85,136,78,658,619,439,351,278
214,219,4,-217,104,112,73,610,570,409,331,263
190,195,4,-192,92,100,63,561,522,380,312,253
185,161,-24,-173,104,68,53,507,473,346,287,239
165,131,-34,-148,100,48,48,453,419,297,263,214
141,97,-43,-119,92,26,48,400,366,258,229,190
117,73,-43,-95,80,14,39,341,307,224,190,161
92,43,-48,-68,70,-2,34,292,253,195,165,136
68,9,-58,-39,63,-24,29,244,204,156,136,107
58,-9,-68,-24,63,-39,29,200,161,122,107,73
43,-34,-78,-4,61,-56,29,165,126,97,82,48
29,-48,-78,9,53,-63,29,131,87,73,68,29
19,-78,-97,29,58,-87,29,107,53,48,48,14
-4,-97,-92,51,43,-95,34,82,24,29,29,4
-19,-112,-92,65,36,-102,34,63,9,19,14,-14
-34,-131,-97,82,31,-114,43,53,-4,19,9,-19
-34,-131,-97,82,31,-114,43,39,-24,-4,-4,-29
-43,-141,-97,92,26,-119,43,24,-34,-9,-9,-34
-53,-151,-97,102,21,-124,43,14,-43,-19,-14,-43
-58,-165,-107,112,24,-136,48,4,-48,-24,-24,-43
-58,-165,-107,112,24,-136,48,4,-53,-34,-34,-53
-53,-170,-117,112,31,-143,48,0,-58,-39,-43,-68
-58,-175,-117,117,29,-146,48,-9,-63,-39,-43,-68
-68,-175,-107,122,19,-141,48,-19,-63,-48,-43,-68
-68,-170,-102,119,17,-136,48,-19,-78,-58,-48,-63
-68,-165,-97,117,14,-131,48,-24,-87,-63,-53,-58
-73,-170,-97,122,12,-134,48,-29,-87,-58,-53,-58
-68,-170,-102,119,17,-136,53,-29,-82,-58,-53,-58
-68,-170,-102,119,17,-136,53,-29,-78,-53,-53,-63
-68,-170,-102,119,17,-136,53,-29,-73,-48,-53,-63
-68,-175,-107,122,19,-141,53,-29,-73,-48,-53,-63
-73,-175,-102,124,14,-139,58,-29,-73,-53,-53,-63
-73,-180,-107,126,17,-143,58,-34,-78,-53,-53,-68
-78,-180,-102,129,12,-141,58,-34,-78,-48,-53,-68
-82,-180,-97,131,7,-139,68,-29,-73,-43,-53,-68
-82,-180,-97,131,7,-139,78,-29,-73,-43,-58,-68
-82,-185,-102,134,9,-143,82,-29,-78,-48,-58,-73
-87,-190,-102,139,7,-146,82,-29,-87,-53,-63,-73
-92,-190,-97,141,2,-143,82,-39,-87,-58,-58,-73
-92,-190,-97,141,2,-143,87,-48,-87,-58,-53,-73
-97,-190,-92,143,-2,-141,87,-48,-87,-58,-53,-82
-102,-190,-87,146,-7,-139,87,-48,-87,-58,-63,-82
-102,-195,-92,148,-4,-143,82,-43,-87,-58,-63,-78
-112,-195,-82,153,-14,-139,82,-43,-87,-63,-63,-78
-102,-190,-87,146,-7,-139,82,-43,-92,-63,-73,-78
-92,-190,-97,141,2,-143,82,-43,-92,-63,-78,-78
-92,-195,-102,143,4,-148,82,-34,-87,-58,-68,-82
-92,-200,-107,146,7,-153,82,-24,-82,-58,-68,-82
-97,-200,-102,148,2,-151,82,-24,-78,-58,-68,-82
-102,-200,-97,151,-2,-148,87,-19,-68,-58,-63,-78
-97,-200,-102,148,2,-151,92,-19,-68,-58,-63,-78
-97,-200,-102,148,2,-151,92,-19,-63,-53,-63,-82
-107,-200,-92,153,-7,-146,92,-29,-68,-58,-63,-82
-117,-200,-82,158,-17,-141,92,-34,-73,-63,-63,-82
-107,-200,-92,153,-7,-146,92,-34,-73,-63,-63,-78
-97,-200,-102,148,2,-151,87,-34,-73,-63,-63,-78
-97,-204,-107,151,4,-156,92,-24,-68,-63,-63,-78
-97,-214,-117,156,9,-165,97,-19,-58,-63,-63,-78
-92,-214,-122,153,14,-168,97,-19,-58,-63,-63,-82
-92,-214,-122,153,14,-168,97,-19,-58,-58,-63,-87
-87,-219,-131,153,21,-175,82,-24,-73,-58,-63,-87
-78,-209,-131,143,26,-170,73,-24,-82,-58,-63,-87
-78,-200,-122,139,21,-161,73,-24,-73,-63,-53,-78
-78,-195,-117,136,19,-156,68,-29,-68,-58,-43,-68
-73,-200,-126,136,26,-163,68,-34,-73,-53,-43,-63
-73,-209,-136,141,31,-173,68,-34,-73,-53,-43,-63
-82,-209,-126,146,21,-168,73,-29,-73,-58,-48,-68
-87,-209,-122,148,17,-165,78,-24,-73,-58,-58,-73
-87,-209,-122,148,17,-165,78,-29,-73,-58,-58,-73
-82,-209,-126,146,21,-168,78,-34,-78,-58,-58,-78
-82,-214,-131,148,24,-173,82,-34,-78,-58,-58,-78
-82,-214,-131,148,24,-173,87,-34,-78,-58,-58,-73
-82,-209,-126,146,21,-168,78,-34,-78,-58,-58,-73
-82,-209,-126,146,21,-168,78,-39,-78,-58,-53,-73
-78,-214,-136,146,29,-175,78,-34,-82,-58,-53,-63
-78,-219,-141,148,31,-180,73,-29,-82,-58,-48,-58
-78,-219,-141,148,31,-180,73,-34,-82,-63,-48,-58
-78,-219,-141,148,31,-180,73,-34,-87,-63,-48,-53
-78,-214,-136,146,29,-175,68,-39,-87,-63,-48,-53
-78,-209,-131,143,26,-170,68,-43,-87,-63,-48,-53
-78,-209,-131,143,26,-170,68,-39,-87,-53,-48,-53
-82,-204,-122,143,19,-163,68,-39,-87,-39,-48,-53
-82,-209,-126,146,21,-168,68,-29,-82,-48,-53,-53
-78,-219,-141,148,31,-180,68,-29,-78,-53,-53,-53
-78,-219,-141,148,31,-180,68,-29,-78,-53,-53,-53
-78,-219,-141,148,31,-180,68,-24,-78,-58,-53,-53
-78,-219,-141,148,31,-180,68,-34,-87,-63,-53,-53
-78,-214,-136,146,29,-175,68,-39,-97,-63,-53,-53
-78,-214,-136,146,29,-175,68,-39,-97,-63,-48,-58
-82,-214,-131,148,24,-173,68,-39,-92,-58,-43,-63
-87,-214,-126,151,19,-170,73,-39,-87,-58,-43,-63
-87,-219,-131,153,21,-175,78,-39,-87,-58,-43,-63
-78,-214,-136,146,29,-175,78,-43,-92,-68,-48,-63
-73,-214,-141,143,34,-178,78,-43,-92,-68,-48,-63
-82,-209,-126,146,21,-168,78,-48,-92,-68,-48,-63
-82,-209,-126,146,21,-168,73,-53,-97,-63,-48,-63
-78,-209,-131,143,26,-170,73,-48,-92,-53,-48,-63
-78,-214,-136,146,29,-175,73,-43,-87,-48,-48,-63
-87,-214,-126,151,19,-170,78,-39,-82,-48,-39,-58
-97,-214,-117,156,9,-165,87,-39,-78,-48,-29,-58
-97,-214,-117,156,9,-165,82,-43,-82,-53,-39,-58
-97,-214,-117,156,9,-165,78,-48,-87,-58,-48,-58
-97,-219,-122,158,12,-170,78,-48,-87,-63,-53,-58
-97,-224,-126,161,14,-175,78,-48,-87,-68,-58,-58
-97,-224,-126,161,14,-175,78,-48,-87,-68,-58,-58
-97,-224,-126,161,14,-175,78,-48,-87,-68,-58,-58
-97,-224,-126,161,14,-175,78,-48,-87,-68,-58,-58
-97,-224,-126,161,14,-175,78,-48,-87,-68,-58,-58
-97,-224,-126,161,14,-175,78,-48,-87,-63,-48,-58
-97,-224,-126,161,14,-175,78,-48,-87,-58,-39,-58
-97,-224,-126,161,14,-175,78,-48,-87,-58,-48,-58
-97,-224,-126,161,14,-175,78,-48,-87,-58,-58,-58
-97,-234,-136,165,19,-185,78,-48,-82,-58,-58,-63
-97,-244,-146,170,24,-195,78,-48,-78,-58,-58,-68
-97,-244,-146,170,24,-195,78,-48,-78,-58,-53,-68
-97,-244,-146,170,24,-195,78,-48,-78,-58,-48,-68
-97,-229,-131,163,17,-180,78,-48,-78,-58,-48,-58
-97,-214,-117,156,9,-165,78,-48,-78,-58,-48,-48
-82,-209,-126,146,21,-168,82,-48,-78,-58,-48,-48
-68,-204,-136,136,34,-170,87,-48,-78,-58,-48,-48
-63,-190,-126,126,31,-158,92,-39,-68,-43,-39,-39
-58,-175,-117,117,29,-146,97,-29,-58,-29,-29,-29
-58,-175,-117,117,29,-146,102,-19,-48,-24,-24,-29
-58,-175,-117,117,29,-146,107,-14,-39,-19,-19,-29
-58,-175,-117,117,29,-146,112,-9,-34,-19,-19,-29
-53,-170,-117,112,31,-143,117,0,-24,-14,-14,-29
-39,-165,-126,102,43,-146,117,4,-24,-9,-4,-24
-34,-156,-122,95,43,-139,107,4,-19,-9,4,-9
-29,-151,-122,90,46,-136,92,0,-19,0,9,0
-4,-131,-126,68,61,-129,73,0,-14,9,14,9
14,-131,-146,58,80,-139,53,9,-9,14,24,14
29,-131,-161,51,95,-146,48,19,-9,14,24,19
34,-131,-165,48,100,-148,39,19,-4,14,19,14
34,-136,-170,51,102,-153,29,4,-14,14,14,9
14,-141,-156,63,85,-148,24,-9,-19,14,9,9
4,-141,-146,68,75,-143,24,-14,-29,0,4,9
-4,-146,-141,75,68,-143,29,-19,-39,-4,0,0
-4,-161,-156,82,75,-158,34,-24,-43,-9,0,-4
0,-180,-180,90,90,-180,34,-24,-43,-14,4,-4
0,-185,-185,92,92,-185,29,-34,-53,-24,4,-4
0,-185,-185,92,92,-185,14,-39,-58,-29,-4,-4
-4,-190,-185,97,90,-187,14,-39,-58,-29,-14,-4
-24,-190,-165,107,70,-178,24,-39,-58,-29,-14,-4
-58,-214,-156,136,48,-185,43,-39,-63,-34,-24,-19
-92,-234,-141,163,24,-187,63,-43,-73,-53,-43,-34
-117,-248,-131,183,7,-190,68,-58,-97,-73,-58,-53
-97,-258,-161,178,31,-209,68,-68,-107,-82,-73,-63
-78,-268,-190,173,56,-229,68,-68,-107,-82,-78,-68
-87,-268,-180,178,46,-224,68,-63,-102,-82,-78,-63
-97,-268,-170,183,36,-219,78,-63,-97,-87,-78,-63
-97,-268,-170,183,36,-219,73,-68,-102,-87,-78,-63
-107,-263,-156,185,24,-209,68,-68,-102,-87,-78,-63
-107,-263,-156,185,24,-209,68,-68,-107,-87,-82,-68
-107,-263,-156,185,24,-209,73,-68,-112,-87,-82,-73
-117,-263,-146,190,14,-204,78,-68,-112,-82,-82,-73
-117,-263,-146,190,14,-204,87,-68,-112,-78,-82,-73
-117,-268,-151,192,17,-209,87,-68,-107,-82,-78,-73
-117,-273,-156,195,19,-214,87,-68,-107,-87,-73,-73
-117,-273,-156,195,19,-214,92,-63,-107,-87,-78,-73
-117,-273,-156,195,19,-214,97,-63,-107,-87,-78,-68
-117,-268,-151,192,17,-209,97,-63,-112,-92,-78,-63
-117,-263,-146,190,14,-204,92,-63,-112,-92,-78,-58
-117,-263,-146,190,14,-204,87,-53,-102,-92,-73,-58
-126,-263,-136,195,4,-200,97,-29,-87,-92,-73,-68
-126,-278,-151,202,12,-214,117,-4,-68,-78,-87,-82
-136,-292,-156,214,9,-224,161,68,-4,-53,-87,-97
-146,-336,-190,241,21,-263,253,165,78,-24,-78,-107
-131,-336,-204,234,36,-270,229,175,165,48,-34,-92
-87,-326,-239,207,75,-283,131,209,263,141,19,-68
-4,-278,-273,141,134,-275,-4,297,429,297,141,9
175,-170,-346,-2,261,-258,-273,439,644,512,361,170
458,0,-458,-229,458,-229,-585,736,1083,936,727,444
805,244,-561,-524,683,-158,-912,1224,1693,1454,1166,780
1112,492,-619,-802,866,-63,-1190,1600,2147,1815,1483,1044
1234,668,-566,-951,900,51,-1444,1483,2239,1952,1634,1195
1210,751,-458,-980,834,146,-1668,751,1556,1473,1376,1156
1005,746,-258,-875,631,244,-1742,-151,766,927,1034,995
707,590,-117,-649,412,236,-1698,-1054,-234,180,502,717
473,527,53,-500,209,290,-1629,-1737,-1132,-419,131,541
380,546,165,-463,107,356,-1459,-1717,-1283,-517,58,507
351,497,146,-424,102,322,-1200,-1307,-995,-385,68,473
292,414,122,-353,85,268,-907,-995,-751,-297,63,395
204,297,92,-251,56,195,-668,-732,-546,-209,78,331
141,180,39,-161,51,109,-468,-517,-380,-136,82,278
97,68,-29,-82,63,19,-283,-346,-273,-87,53,195
29,-34,-63,2,46,-48,-131,-234,-200,-82,4,107
-29,-112,-82,70,26,-97,-34,-156,-151,-97,-29,34
-63,-185,-122,124,29,-153,19,-87,-107,-87,-48,-4
-82,-195,-112,139,14,-153,58,-39,-82,-73,-48,-9
-87,-195,-107,141,9,-151,97,-29,-78,-78,-53,-9
-97,-204,-107,151,4,-156,117,-29,-73,-78,-63,-24
-92,-214,-122,153,14,-168,122,-14,-68,-78,-68,-34
-92,-234,-141,163,24,-187,126,0,-63,-78,-73,-43
-97,-229,-131,163,17,-180,131,0,-63,-78,-73,-48
-102,-229,-126,165,12,-178,141,4,-58,-78,-73,-48
-102,-234,-131,168,14,-183,151,9,-53,-78,-78,-53
-102,-239,-136,170,17,-187,156,19,-48,-73,-73,-53
-102,-244,-141,173,19,-192,161,19,-43,-68,-68,-58
-102,-239,-136,170,17,-187,165,29,-43,-68,-68,-58
-102,-239,-136,170,17,-187,170,39,-43,-68,-68,-58
-102,-244,-141,173,19,-192,170,39,-39,-63,-68,-58
-112,-244,-131,178,9,-187,175,53,-34,-58,-68,-58
-112,-244,-131,178,9,-187,180,53,-29,-58,-73,-58
-107,-248,-141,178,17,-195,180,53,-24,-58,-73,-53
-102,-244,-141,173,19,-192,180,48,-29,-63,-73,-53
-97,-244,-146,170,24,-195,185,48,-34,-68,-68,-53
-97,-244,-146,170,24,-195,180,53,-29,-63,-68,-53
-97,-244,-146,170,24,-195,175,53,-29,-58,-68,-53
-97,-244,-146,170,24,-195,180,58,-24,-68,-68,-58
-97,-244,-146,170,24,-195,180,63,-19,-78,-68,-58
-97,-244,-146,170,24,-195,180,68,-9,-63,-63,-53
-92,-239,-146,165,26,-192,180,73,-4,-53,-63,-53
-92,-234,-141,163,24,-187,180,78,0,-53,-58,-53
-87,-229,-141,158,26,-185,185,78,0,-48,-58,-58
-92,-229,-136,161,21,-183,185,82,9,-48,-58,-58
-97,-224,-126,161,14,-175,185,87,9,-43,-58,-53
-97,-224,-126,161,14,-175,180,97,14,-43,-58,-43
-97,-219,-122,158,12,-170,180,102,24,-39,-53,-34
-92,-214,-122,153,14,-168,180,112,34,-29,-43,-29
-87,-214,-126,151,19,-170,185,112,39,-24,-39,-29
-87,-204,-117,146,14,-161,185,126,48,-19,-34,-29
-87,-195,-107,141,9,-151,185,131,53,-9,-34,-24
-73,-190,-117,131,21,-153,190,141,58,-4,-29,-24
-63,-180,-117,122,26,-148,195,156,63,4,-19,-19
-63,-180,-117,122,26,-148,200,165,78,9,-9,-14
-63,-170,-107,117,21,-139,204,175,97,14,-4,-9
-53,-156,-102,104,24,-129,200,185,107,19,4,4
-43,-141,-97,92,26,-119,200,190,117,29,14,14
-43,-136,-92,90,24,-114,200,204,126,39,24,14
-43,-126,-82,85,19,-104,200,214,141,48,39,24
-29,-117,-87,73,29,-102,204,239,156,63,48,34
-19,-102,-82,61,31,-92,209,253,170,73,58,43
-9,-82,-73,46,31,-78,214,273,195,92,68,58
-4,-58,-53,31,24,-56,219,283,214,112,82,73
0,-53,-53,26,26,-53,214,307,234,131,102,92
19,-34,-53,7,36,-43,209,331,253,151,122,112
29,-4,-34,-12,31,-19,209,351,278,175,141,122
34,14,-19,-24,26,-2,209,370,312,195,165,146
48,39,-9,-43,29,14,204,400,336,214,175,156
68,63,-4,-65,36,29,200,424,366,244,200,185
82,82,0,-82,41,41,195,453,405,273,234,214
102,107,4,-104,48,56,185,483,448,302,263,239
117,136,19,-126,48,78,175,512,478,326,283,258
131,156,24,-143,53,90,165,536,512,351,302,278
151,170,19,-161,65,95,156,561,541,375,326,302
165,195,29,-180,68,112,146,580,570,405,356,326
190,209,19,-200,85,114,136,600,600,424,380,346
200,244,43,-222,78,143,122,619,629,448,405,370
214,263,48,-239,82,156,112,634,658,473,419,385
229,273,43,-251,92,158,102,644,678,492,434,400
248,278,29,-263,109,153,97,663,697,502,444,414
268,283,14,-275,126,148,82,668,712,507,448,419
273,283,9,-278,131,146,63,658,712,507,453,419
283,273,-9,-278,146,131,53,649,702,507,453,409
273,248,-24,-261,148,112,43,629,678,502,444,405
263,224,-39,-244,151,92,39,595,639,483,424,395
253,204,-48,-229,151,78,24,551,600,453,405,366
244,180,-63,-212,153,58,24,502,551,419,380,341
209,146,-63,-178,136,41,24,453,492,380,346,317
195,102,-92,-148,143,4,24,400,434,336,307,287
180,73,-107,-126,143,-17,24,351,375,287,278,253
161,39,-122,-100,141,-41,29,302,317,248,239,219
136,19,-117,-78,126,-48,29,248,263,204,200,185
112,-4,-117,-53,114,-61,34,204,214,165,175,156
78,-39,-117,-19,97,-78,39,165,165,126,146,131
58,-58,-117,0,87,-87,48,131,122,92,117,102
39,-82,-122,21,80,-102,48,97,87,68,82,78
19,-97,-117,39,68,-107,48,63,48,43,58,58
9,-126,-136,58,73,-131,48,43,24,19,39,39
-14,-146,-131,80,58,-139,53,24,4,0,19,24
-24,-151,-126,87,51,-139,53,4,-9,-14,0,4
-34,-161,-126,97,46,-143,63,-4,-24,-19,-9,0
-34,-161,-126,97,46,-143,63,-19,-43,-48,-24,-9
-43,-170,-126,107,41,-148,63,-34,-53,-58,-29,-14
-53,-180,-126,117,36,-153,63,-34,-63,-63,-34,-24
-58,-195,-136,126,39,-165,68,-34,-68,-63,-43,-24
-63,-195,-131,129,34,-163,73,-34,-73,-73,-48,-29
-63,-200,-136,131,36,-168,78,-39,-78,-78,-53,-39
-63,-204,-141,134,39,-173,78,-43,-82,-78,-58,-39
-68,-204,-136,136,34,-170,78,-48,-82,-87,-63,-39
-68,-204,-136,136,34,-170,78,-48,-92,-92,-68,-43
-68,-204,-136,136,34,-170,78,-53,-97,-92,-73,-48
-73,-209,-136,141,31,-173,73,-58,-102,-87,-73,-48
-68,-209,-141,139,36,-175,73,-58,-102,-87,-73,-48
-68,-209,-141,139,36,-175,73,-58,-102,-87,-73,-53
-68,-209,-141,139,36,-175,73,-58,-102,-87,-73,-53
-68,-214,-146,141,39,-180,73,-53,-102,-87,-73,-53
-73,-214,-141,143,34,-178,78,-48,-102,-92,-73,-53
-73,-219,-146,146,36,-183,78,-53,-107,-92,-73,-53
-78,-219,-141,148,31,-180,78,-53,-107,-87,-73,-48
-78,-219,-141,148,31,-180,78,-43,-97,-87,-68,-48
-73,-219,-146,146,36,-183,78,-39,-92,-92,-68,-48
-68,-214,-146,141,39,-180,82,-39,-87,-92,-68,-48
-68,-209,-141,139,36,-175,82,-39,-87,-92,-73,-43
-73,-209,-136,141,31,-173,82,-39,-87,-92,-73,-43
-73,-209,-136,141,31,-173,87,-39,-87,-87,-73,-43
-73,-209,-136,141,31,-173,87,-34,-87,-82,-68,-53
-73,-209,-136,141,31,-173,87,-29,-87,-78,-73,-53
-68,-214,-146,141,39,-180,87,-24,-82,-78,-73,-48
-73,-214,-141,143,34,-178,92,-24,-78,-82,-73,-48
-68,-209,-141,139,36,-175,92,-24,-73,-78,-68,-48
-63,-209,-146,136,41,-178,92,-24,-63,-73,-58,-48
-63,-214,-151,139,43,-183,92,-19,-63,-68,-53,-53
-63,-219,-156,141,46,-187,92,-14,-63,-68,-58,-53
-63,-219,-156,141,46,-187,92,-14,-63,-63,-53,-53
-63,-219,-156,141,46,-187,97,-9,-58,-58,-43,-48
-58,-219,-161,139,51,-190,97,-9,-58,-58,-43,-48
-58,-219,-161,139,51,-190,92,-9,-53,-53,-43,-53
-58,-219,-161,139,51,-190,87,-14,-53,-58,-48,-53
-58,-219,-161,139,51,-190,82,-14,-53,-63,-53,-53
-58,-219,-161,139,51,-190,82,-14,-53,-63,-53,-48
-58,-219,-161,139,51,-190,78,-14,-53,-63,-53,-48
-53,-214,-161,134,53,-187,78,-9,-53,-63,-53,-48
-48,-214,-165,131,58,-190,78,-9,-48,-63,-53,-48
-43,-209,-165,126,61,-187,78,-9,-48,-63,-53,-48
-43,-204,-161,124,58,-183,78,-9,-48,-58,-53,-48
-53,-219,-165,136,56,-192,73,-14,-53,-58,-53,-43
-58,-219,-161,139,51,-190,73,-14,-53,-58,-53,-39
-58,-209,-151,134,46,-180,73,-19,-58,-73,-53,-39
-58,-204,-146,131,43,-175,68,-29,-68,-78,-53,-39
-53,-200,-146,126,46,-173,68,-34,-73,-73,-53,-34
-53,-200,-146,126,46,-173,68,-34,-73,-73,-53,-34
-63,-204,-141,134,39,-173,68,-34,-73,-78,-53,-34
-68,-209,-141,139,36,-175,68,-34,-73,-78,-58,-34
-68,-209,-141,139,36,-175,68,-39,-73,-78,-58,-34
-63,-209,-146,136,41,-178,68,-43,-78,-78,-58,-39
-63,-214,-151,139,43,-183,68,-43,-82,-78,-58,-43
-63,-214,-151,139,43,-183,68,-43,-87,-78,-58,-43
-63,-209,-146,136,41,-178,58,-43,-87,-78,-63,-43
-63,-209,-146,136,41,-178,58,-48,-87,-78,-63,-43
-63,-209,-146,136,41,-178,63,-48,-92,-82,-63,-39
-68,-209,-141,139,36,-175,63,-48,-92,-87,-58,-39
-68,-209,-141,139,36,-175,63,-58,-92,-92,-58,-43
-68,-209,-141,139,36,-175,63,-63,-97,-92,-58,-43
-68,-204,-136,136,34,-170,58,-63,-97,-92,-63,-43
-68,-200,-131,134,31,-165,58,-63,-97,-92,-68,-43
-68,-200,-131,134,31,-165,58,-58,-97,-97,-68,-43
-73,-195,-122,134,24,-158,58,-58,-97,-97,-68,-43
-78,-195,-117,136,19,-156,58,-58,-97,-97,-73,-43
-78,-200,-122,139,21,-161,58,-68,-97,-92,-73,-43
-78,-200,-122,139,21,-161,58,-73,-97,-92,-68,-48
-78,-200,-122,139,21,-161,58,-73,-97,-97,-63,-53
-78,-204,-126,141,24,-165,58,-78,-102,-102,-68,-53
-78,-204,-126,141,24,-165,58,-78,-107,-102,-73,-53
-78,-200,-122,139,21,-161,58,-78,-112,-102,-73,-53
-82,-195,-112,139,14,-153,58,-78,-112,-97,-73,-53
-87,-190,-102,139,7,-146,58,-78,-112,-97,-68,-53
-87,-190,-102,139,7,-146,58,-78,-117,-97,-63,-53
-73,-185,-112,129,19,-148,58,-82,-122,-107,-68,-53
-63,-185,-122,124,29,-153,58,-82,-122,-107,-68,-53
-73,-185,-112,129,19,-148,58,-82,-117,-112,-73,-53
-73,-190,-117,131,21,-153,53,-82,-117,-112,-78,-53
-73,-185,-112,129,19,-148,58,-82,-112,-102,-78,-53
-78,-185,-107,131,14,-146,63,-82,-107,-97,-78,-53
-78,-185,-107,131,14,-146,58,-87,-112,-102,-78,-48
-78,-185,-107,131,14,-146,58,-97,-117,-107,-78,-48
-78,-185,-107,131,14,-146,58,-97,-117,-107,-78,-48
-78,-185,-107,131,14,-146,58,-97,-117,-107,-78,-48
-78,-185,-107,131,14,-146,58,-97,-117,-107,-78,-48
-78,-185,-107,131,14,-146,58,-97,-117,-107,-78,-48
-78,-185,-107,131,14,-146,58,-97,-117,-107,-78,-48
-78,-185,-107,131,14,-146,58,-97,-117,-107,-78,-48
-78,-185,-107,131,14,-146,58,-92,-117,-107,-78,-48
-78,-185,-107,131,14,-146,58,-87,-117,-107,-78,-48
-78,-185,-107,131,14,-146,63,-87,-117,-107,-78,-48
-78,-185,-107,131,14,-146,68,-87,-117,-107,-78,-48
-78,-185,-107,131,14,-146,68,-87,-117,-107,-78,-48
-78,-185,-107,131,14,-146,68,-87,-117,-107,-78,-48
-78,-185,-107,131,14,-146,68,-87,-117,-107,-78,-48
-78,-185,-107,131,14,-146,68,-87,-117,-107,-78,-48
-78,-185,-107,131,14,-146,68,-87,-117,-107,-78,-48
-78,-185,-107,131,14,-146,68,-87,-117,-107,-78,-48
-78,-185,-107,131,14,-146,68,-87,-117,-107,-78,-48
-78,-185,-107,131,14,-146,68,-87,-117,-107,-78,-48
-78,-185,-107,131,14,-146,68,-87,-117,-107,-78,-53
-78,-185,-107,131,14,-146,68,-87,-117,-107,-78,-58
-78,-185,-107,131,14,-146,68,-87,-117,-107,-78,-58
-78,-185,-107,131,14,-146,68,-87,-117,-107,-78,-58
-78,-185,-107,131,14,-146,68,-87,-117,-107,-78,-58
-78,-185,-107,131,14,-146,68,-87,-117,-107,-78,-58
-78,-185,-107,131,14,-146,68,-87,-117,-107,-78,-58
-78,-185,-107,131,14,-146,68,-87,-117,-107,-78,-58
-78,-185,-107,131,14,-146,68,-87,-117,-107,-78,-58
-78,-185,-107,131,14,-146,68,-87,-117,-107,-78,-58
-78,-180,-102,129,12,-141,68,-87,-122,-107,-82,-58
-78,-175,-97,126,9,-136,68,-87,-126,-107,-87,-58
-78,-175,-97,126,9,-136,68,-87,-126,-107,-87,-58
-78,-175,-97,126,9,-136,68,-87,-126,-107,-87,-58
-78,-161,-82,119,2,-122,73,-87,-117,-102,-82,-53
-78,-146,-68,112,-4,-107,78,-87,-107,-97,-78,-48
-73,-131,-58,102,-7,-95,87,-82,-102,-87,-68,-39
-68,-117,-48,92,-9,-82,97,-78,-97,-78,-58,-29
-58,-102,-43,80,-7,-73,97,-73,-97,-73,-53,-29
-53,-92,-39,73,-7,-65,97,-68,-92,-68,-48,-29
-48,-87,-39,68,-4,-63,102,-68,-92,-68,-48,-29
-43,-82,-39,63,-2,-61,107,-58,-82,-63,-43,-29
-29,-82,-53,56,12,-68,107,-53,-82,-58,-39,-29
-24,-78,-53,51,14,-65,97,-53,-78,-58,-34,-19
-19,-82,-63,51,21,-73,82,-58,-78,-53,-29,-14
4,-73,-78,34,41,-75,63,-58,-73,-48,-24,-9
19,-73,-92,26,56,-82,43,-53,-68,-43,-14,-4
29,-73,-102,21,65,-87,39,-48,-68,-43,-14,0
34,-68,-102,17,68,-85,29,-48,-68,-43,-19,0
34,-68,-102,17,68,-85,19,-63,-82,-43,-24,0
19,-73,-92,26,56,-82,14,-78,-87,-43,-29,0
14,-73,-87,29,51,-80,14,-82,-97,-58,-34,0
4,-73,-78,34,41,-75,14,-82,-102,-63,-39,-4
4,-82,-87,39,46,-85,14,-82,-102,-68,-39,-4
9,-92,-102,41,56,-97,14,-82,-97,-68,-34,-4
9,-87,-97,39,53,-92,9,-92,-102,-73,-34,-4
19,-87,-107,34,63,-97,-4,-97,-107,-73,-39,-4
24,-92,-117,34,70,-104,-4,-97,-107,-68,-43,-4
14,-92,-107,39,61,-100,4,-97,-107,-68,-43,-4
-9,-117,-107,63,48,-112,24,-97,-112,-73,-53,-19
-43,-136,-92,90,24,-114,43,-107,-122,-92,-73,-34
-68,-151,-82,109,7,-117,48,-126,-146,-112,-87,-53
-78,-161,-82,119,2,-122,53,-131,-156,-122,-102,-63
-87,-170,-82,129,-2,-126,58,-126,-156,-122,-107,-68
-87,-170,-82,129,-2,-126,58,-122,-156,-122,-107,-68
-87,-170,-82,129,-2,-126,68,-122,-156,-126,-107,-73
-82,-175,-92,129,4,-134,63,-126,-165,-131,-107,-73
-87,-175,-87,131,0,-131,58,-126,-170,-136,-107,-73
-87,-175,-87,131,0,-131,58,-126,-170,-136,-112,-73
-87,-175,-87,131,0,-131,63,-126,-170,-136,-112,-73
-97,-180,-82,139,-7,-131,68,-126,-165,-131,-112,-73
-97,-185,-87,141,-4,-136,78,-126,-161,-126,-112,-73
-97,-185,-87,141,-4,-136,78,-126,-161,-131,-112,-73
-97,-185,-87,141,-4,-136,78,-126,-165,-136,-112,-73
-97,-185,-87,141,-4,-136,73,-126,-165,-136,-117,-82
-97,-185,-87,141,-4,-136,68,-131,-165,-136,-117,-87
-97,-180,-82,139,-7,-131,68,-131,-170,-141,-117,-87
-97,-175,-78,136,-9,-126,63,-131,-170,-141,-117,-87
-97,-175,-78,136,-9,-126,63,-131,-170,-141,-117,-87
-107,-175,-68,141,-19,-122,78,-117,-165,-141,-122,-97
-107,-190,-82,148,-12,-136,107,-97,-151,-141,-131,-107
-117,-204,-87,161,-14,-146,161,-29,-92,-131,-126,-117
-117,-219,-102,168,-7,-161,200,68,0,-87,-107,-112
-92,-190,-97,141,2,-143,122,78,97,0,-53,-82
-9,-141,-131,75,61,-136,-39,151,268,161,58,-14
112,-53,-165,-29,139,-109,-239,278,507,385,239,107
302,97,-204,-200,253,-53,-517,473,849,707,531,317
595,312,-283,-453,439,14,-839,824,1415,1239,971,639
927,570,-356,-749,641,107,-1122,1293,2113,1839,1464,1000
1220,834,-385,-1027,802,224,-1356,1649,2654,2283,1834,1288
1337,985,-351,-1161,844,317,-1581,1478,2727,2405,1981,1439
1307,1044,-263,-1176,785,390,-1776,692,2025,1912,1717,1400
1127,966,-161,-1046,644,402,-1834,-195,1151,1273,1312,1195
854,736,-117,-795,485,309,-1776,-1083,68,434,717,873
639,663,24,-651,307,344,-1703,-1795,-971,-268,292,692
566,673,107,-619,229,390,-1527,-1805,-1263,-468,165,653
512,649,136,-580,187,392,-1268,-1415,-990,-346,165,610
429,590,161,-509,134,375,-976,-1122,-761,-268,151,522
331,473,141,-402,95,307,-741,-858,-570,-190,141,434
258,356,97,-307,80,226,-546,-644,-419,-126,122,356
195,229,34,-212,80,131,-361,-463,-322,-97,73,248
107,112,4,-109,51,58,-209,-341,-258,-112,4,136
29,24,-4,-26,17,9,-92,-248,-214,-131,-39,48
-24,-58,-34,41,4,-46,-19,-165,-175,-126,-68,-4
-48,-78,-29,63,-9,-53,19,-112,-151,-117,-73,-24
-58,-87,-29,73,-14,-58,58,-97,-146,-126,-82,-39
-78,-102,-24,90,-26,-63,82,-92,-131,-122,-92,-53
-82,-117,-34,100,-24,-75,92,-73,-117,-117,-97,-63
-82,-141,-58,112,-12,-100,102,-53,-112,-117,-102,-73
-87,-141,-53,114,-17,-97,112,-48,-112,-117,-102,-78
-97,-141,-43,119,-26,-92,122,-43,-107,-117,-102,-82
-102,-146,-43,124,-29,-95,131,-39,-102,-117,-107,-92
-102,-146,-43,124,-29,-95,131,-29,-102,-117,-112,-92
-102,-146,-43,124,-29,-95,131,-29,-102,-117,-117,-97
-102,-146,-43,124,-29,-95,136,-19,-102,-117,-117,-97
-102,-151,-48,126,-26,-100,141,-9,-102,-117,-117,-97
-102,-156,-53,129,-24,-104,141,-9,-97,-112,-117,-97
-112,-156,-43,134,-34,-100,146,4,-92,-107,-117,-97
-112,-151,-39,131,-36,-95,151,4,-87,-107,-122,-102
-107,-151,-43,129,-31,-97,151,4,-82,-107,-122,-102
-107,-146,-39,126,-34,-92,151,4,-78,-107,-122,-102
-107,-146,-39,126,-34,-92,156,9,-73,-107,-117,-102
-107,-151,-43,129,-31,-97,156,14,-68,-102,-117,-102
-107,-156,-48,131,-29,-102,156,14,-68,-97,-117,-102
-107,-156,-48,131,-29,-102,161,19,-63,-97,-117,-107
-107,-156,-48,131,-29,-102,161,24,-58,-97,-117,-107
-107,-156,-48,131,-29,-102,161,34,-53,-92,-112,-102
-102,-151,-48,126,-26,-100,161,43,-53,-92,-112,-102
-107,-146,-39,126,-34,-92,161,48,-48,-92,-107,-97
-107,-141,-34,124,-36,-87,165,48,-48,-87,-107,-97
-107,-141,-34,124,-36,-87,165,53,-39,-87,-107,-97
-107,-136,-29,122,-39,-82,165,58,-39,-82,-107,-92
-107,-136,-29,122,-39,-82,170,68,-34,-82,-107,-92
-107,-131,-24,119,-41,-78,180,73,-24,-78,-102,-92
-102,-126,-24,114,-39,-75,180,82,-14,-68,-92,-82
-97,-126,-29,112,-34,-78,185,82,-9,-63,-87,-78
-97,-122,-24,109,-36,-73,185,97,4,-63,-82,-78
-97,-117,-19,107,-39,-68,185,102,14,-58,-82,-73
-92,-112,-19,102,-36,-65,185,107,19,-53,-82,-78
-92,-102,-9,97,-41,-56,185,117,24,-43,-78,-78
-92,-102,-9,97,-41,-56,190,126,34,-39,-68,-73
-92,-92,0,92,-46,-46,195,136,48,-34,-63,-68
-82,-82,0,82,-41,-41,195,151,53,-24,-53,-58
-73,-73,0,73,-36,-36,200,161,58,-9,-43,-53
-73,-68,4,70,-39,-31,200,175,68,0,-39,-58
-73,-58,14,65,-43,-21,200,185,82,9,-29,-53
-68,-48,19,58,-43,-14,204,204,97,24,-24,-43
-68,-34,34,51,-51,0,209,214,112,34,-19,-34
-63,-19,43,41,-53,12,214,234,136,43,-14,-29
-63,0,63,31,-63,31,219,244,156,53,-4,-24
-58,4,63,26,-61,34,219,263,170,63,9,-9
-39,24,63,7,-51,43,219,283,185,73,24,4
-29,48,78,-9,-53,63,219,302,204,97,39,14
-24,63,87,-19,-56,75,219,322,234,117,58,39
-14,82,97,-34,-56,90,219,346,258,126,63,43
0,102,102,-51,-51,102,219,366,287,146,82,68
9,117,107,-63,-48,112,224,395,317,170,107,92
24,136,112,-80,-43,124,224,424,351,195,126,112
34,170,136,-102,-51,153,214,448,380,214,146,131
43,195,151,-119,-53,173,204,468,414,234,165,151
58,204,146,-131,-43,175,200,492,444,258,185,170
68,224,156,-146,-43,190,195,512,473,287,209,190
92,239,146,-165,-26,192,185,536,497,302,229,204
102,273,170,-187,-34,222,170,561,522,322,248,224
122,287,165,-204,-21,226,161,575,551,346,268,244
141,292,151,-217,-4,222,151,585,570,366,287,263
161,302,141,-231,9,222,146,605,595,380,302,278
180,312,131,-246,24,222,131,610,614,390,312,283
190,312,122,-251,34,217,112,610,624,400,322,292
204,302,97,-253,53,200,102,610,624,409,326,292
204,297,92,-251,56,195,82,600,619,414,331,292
204,292,87,-248,58,190,68,575,600,405,326,287
204,278,73,-241,65,175,48,536,561,380,312,273
204,258,53,-231,75,156,43,492,512,351,292,263
180,234,53,-207,63,143,34,444,463,326,273,244
175,200,24,-187,75,112,24,390,414,297,248,219
161,170,9,-165,75,90,19,341,361,253,229,190
141,136,-4,-139,73,65,19,292,307,219,200,161
122,117,-4,-119,63,56,19,244,253,185,161,131
102,92,-9,-97,56,41,24,204,204,156,136,107
73,58,-14,-65,43,21,19,161,156,117,107,87
58,39,-19,-48,39,9,19,122,112,82,78,63
43,19,-24,-31,34,-2,19,92,78,58,53,43
29,9,-19,-19,24,-4,19,63,39,34,39,29
19,-14,-34,-2,26,-24,19,43,9,14,19,14
-4,-29,-24,17,9,-26,24,24,-14,0,0,4
-14,-34,-19,24,2,-26,19,4,-24,-14,-14,-14
-24,-43,-19,34,-2,-31,24,-4,-34,-19,-19,-19
-19,-43,-24,31,2,-34,24,-19,-53,-48,-34,-29
-24,-53,-29,39,2,-41,24,-34,-63,-58,-39,-34
-34,-58,-24,46,-4,-41,24,-39,-73,-63,-43,-43
-39,-68,-29,53,-4,-48,29,-43,-78,-63,-53,-43
-39,-68,-29,53,-4,-48,29,-43,-82,-73,-58,-48
-34,-73,-39,53,2,-56,29,-48,-87,-78,-63,-58
-39,-78,-39,58,0,-58,29,-53,-92,-68,-58,-58
-48,-78,-29,63,-9,-53,29,-58,-92,-68,-53,-58
-48,-73,-24,61,-12,-48,29,-58,-102,-73,-58,-58
-48,-68,-19,58,-14,-43,29,-63,-107,-73,-63,-58
-53,-73,-19,63,-17,-46,29,-63,-107,-73,-68,-58
-48,-73,-24,61,-12,-48,34,-58,-102,-78,-73,-58
-48,-73,-24,61,-12,-48,34,-58,-102,-78,-73,-63
-48,-73,-24,61,-12,-48,34,-58,-102,-78,-73,-63
-48,-73,-24,61,-12,-48,39,-58,-102,-78,-68,-58
-53,-68,-14,61,-19,-41,48,-58,-102,-82,-63,-53
-53,-73,-19,63,-17,-46,48,-68,-107,-82,-63,-58
-58,-73,-14,65,-21,-43,48,-73,-107,-78,-63,-58
-58,-73,-14,65,-21,-43,48,-68,-102,-78,-63,-63
-53,-73,-19,63,-17,-46,48,-68,-102,-82,-68,-68
-53,-73,-19,63,-17,-46,53,-68,-102,-87,-68,-73
-58,-73,-14,65,-21,-43,53,-68,-107,-92,-73,-73
-63,-73,-9,68,-26,-41,53,-68,-112,-97,-73,-73
-63,-73,-9,68,-26,-41,58,-68,-117,-97,-73,-73
-63,-73,-9,68,-26,-41,58,-73,-117,-97,-73,-82
-63,-73,-9,68,-26,-41,58,-78,-117,-97,-82,-82
-63,-78,-14,70,-24,-46,58,-73,-117,-97,-82,-78
-73,-78,-4,75,-34,-41,63,-73,-117,-102,-82,-78
-73,-73,0,73,-36,-36,63,-73,-122,-102,-82,-78
-73,-73,0,73,-36,-36,63,-73,-122,-102,-78,-78
-73,-73,0,73,-36,-36,63,-68,-122,-97,-78,-82
-73,-73,0,73,-36,-36,63,-63,-122,-97,-87,-82
-73,-73,0,73,-36,-36,63,-68,-122,-97,-92,-87
-73,-73,0,73,-36,-36,68,-68,-117,-97,-92,-87
-68,-73,-4,70,-31,-39,68,-68,-122,-102,-92,-87
-68,-73,-4,70,-31,-39,63,-68,-122,-102,-92,-92
-68,-73,-4,70,-31,-39,63,-68,-122,-102,-92,-92
-68,-73,-4,70,-31,-39,63,-63,-122,-102,-92,-92
-68,-78,-9,73,-29,-43,68,-63,-117,-102,-92,-87
-68,-82,-14,75,-26,-48,68,-63,-112,-102,-92,-87
-73,-78,-4,75,-34,-41,68,-58,-112,-102,-92,-87
-78,-78,0,78,-39,-39,68,-58,-107,-102,-92,-87
-73,-73,0,73,-36,-36,68,-58,-107,-102,-92,-87
-73,-68,4,70,-39,-31,68,-58,-107,-97,-92,-87
-78,-82,-4,80,-36,-43,63,-63,-112,-97,-92,-87
-78,-82,-4,80,-36,-43,63,-63,-112,-97,-92,-87
-78,-78,0,78,-39,-39,63,-63,-112,-107,-92,-87
-78,-78,0,78,-39,-39,58,-68,-117,-107,-92,-87
-73,-73,0,73,-36,-36,53,-73,-122,-102,-92,-87
-73,-73,0,73,-36,-36,48,-73,-122,-102,-92,-92
-78,-73,4,75,-41,-34,48,-73,-122,-107,-92,-92
-78,-73,4,75,-41,-34,48,-73,-122,-107,-97,-92
-78,-73,4,75,-41,-34,48,-78,-122,-107,-97,-92
-73,-73,0,73,-36,-36,48,-82,-126,-107,-97,-97
-73,-78,-4,75,-34,-41,48,-82,-126,-107,-97,-97
-73,-78,-4,75,-34,-41,48,-82,-126,-107,-97,-92
-73,-73,0,73,-36,-36,39,-82,-126,-107,-102,-92
-73,-73,0,73,-36,-36,39,-87,-126,-107,-102,-92
-73,-73,0,73,-36,-36,43,-87,-131,-107,-102,-87
-78,-73,4,75,-41,-34,43,-87,-131,-107,-97,-87
-78,-68,9,73,-43,-29,43,-92,-131,-112,-102,-92
-78,-63,14,70,-46,-24,43,-92,-136,-112,-107,-92
-78,-63,14,70,-46,-24,39,-97,-136,-112,-107,-92
-78,-63,14,70,-46,-24,39,-102,-136,-112,-107,-92
-78,-68,9,73,-43,-29,39,-97,-136,-117,-102,-92
-82,-68,14,75,-48,-26,39,-97,-136,-117,-97,-92
-82,-63,19,73,-51,-21,39,-97,-136,-117,-102,-92
-78,-63,14,70,-46,-24,39,-107,-136,-112,-102,-92
-78,-63,14,70,-46,-24,34,-107,-136,-112,-97,-92
-78,-63,14,70,-46,-24,29,-102,-136,-117,-92,-92
-78,-68,9,73,-43,-29,29,-107,-141,-117,-97,-92
-78,-68,9,73,-43,-29,29,-107,-146,-112,-102,-92
-78,-68,9,73,-43,-29,29,-107,-146,-117,-102,-92
-82,-68,14,75,-48,-26,29,-107,-141,-117,-102,-92
-87,-63,24,75,-56,-19,29,-107,-141,-117,-102,-92
-87,-63,24,75,-56,-19,29,-107,-146,-117,-102,-92
-73,-63,9,68,-41,-26,29,-117,-151,-126,-107,-92
-63,-68,-4,65,-29,-36,29,-122,-151,-126,-107,-92
-73,-63,9,68,-41,-26,29,-122,-151,-126,-107,-92
-73,-63,9,68,-41,-26,24,-122,-156,-122,-107,-92
-73,-58,14,65,-43,-21,29,-117,-146,-117,-107,-92
-78,-58,19,68,-48,-19,34,-112,-136,-117,-107,-92
-73,-58,14,65,-43,-21,29,-112,-141,-117,-102,-87
-68,-58,9,63,-39,-24,29,-117,-146,-117,-97,-87
-68,-58,9,63,-39,-24,29,-117,-146,-117,-97,-87
-68,-58,9,63,-39,-24,29,-117,-146,-117,-97,-87
-68,-53,14,61,-41,-19,29,-117,-146,-117,-102,-92
-68,-48,19,58,-43,-14,29,-117,-146,-117,-107,-97
-73,-48,24,61,-48,-12,29,-117,-146,-117,-107,-97
-78,-48,29,63,-53,-9,29,-117,-146,-117,-107,-97
-78,-48,29,63,-53,-9,29,-117,-146,-117,-107,-97
-78,-48,29,63,-53,-9,29,-117,-146,-117,-107,-97
-73,-48,24,61,-48,-12,29,-117,-146,-117,-112,-97
-68,-48,19,58,-43,-14,29,-117,-146,-117,-117,-97
-68,-48,19,58,-43,-14,29,-117,-151,-122,-117,-97
-68,-48,19,58,-43,-14,29,-117,-156,-126,-117,-97
-68,-43,24,56,-46,-9,29,-117,-156,-126,-117,-97
-68,-39,29,53,-48,-4,29,-117,-156,-126,-117,-97
-68,-39,29,53,-48,-4,29,-122,-156,-126,-117,-102
-68,-39,29,53,-48,-4,29,-126,-156,-126,-117,-107
-68,-39,29,53,-48,-4,34,-126,-156,-126,-117,-107
-68,-39,29,53,-48,-4,39,-126,-156,-126,-117,-107
-73,-39,34,56,-53,-2,39,-126,-156,-126,-117,-107
-78,-39,39,58,-58,0,39,-126,-156,-126,-117,-107
-78,-39,39,58,-58,0,34,-126,-156,-126,-117,-107
-78,-39,39,58,-58,0,29,-126,-156,-126,-117,-107
-78,-39,39,58,-58,0,29,-126,-156,-126,-117,-107
-78,-39,39,58,-58,0,29,-126,-156,-126,-117,-107
-78,-39,39,58,-58,0,29,-126,-156,-126,-117,-107
-78,-39,39,58,-58,0,29,-126,-156,-126,-117,-107
-78,-39,39,58,-58,0,29,-126,-156,-126,-117,-107
-78,-39,39,58,-58,0,29,-126,-156,-126,-117,-107
-82,-39,43,61,-63,2,34,-126,-156,-126,-117,-107
-87,-39,48,63,-68,4,39,-126,-156,-126,-117,-107
-87,-34,53,61,-70,9,39,-126,-156,-126,-117,-107
-87,-29,58,58,-73,14,39,-126,-156,-126,-117,-107
-78,-29,48,53,-63,9,39,-126,-156,-126,-117,-107
-68,-29,39,48,-53,4,39,-126,-156,-126,-117,-107
-68,-9,58,39,-63,24,43,-122,-146,-117,-112,-102
-68,9,78,29,-73,43,48,-117,-136,-107,-107,-97
-68,29,97,19,-82,63,53,-107,-131,-102,-97,-87
-68,48,117,9,-92,82,58,-97,-126,-97,-87,-78
-53,48,102,2,-78,75,58,-97,-126,-97,-87,-78
-43,48,92,-2,-68,70,63,-92,-117,-92,-82,-78
-34,48,82,-7,-58,65,68,-87,-112,-92,-82,-78
-19,43,63,-12,-41,53,68,-82,-112,-87,-78,-78
-19,48,68,-14,-43,58,63,-82,-107,-87,-73,-68
-19,48,68,-14,-43,58,53,-87,-107,-82,-68,-63
4,63,58,-34,-26,61,34,-82,-102,-73,-63,-58
24,63,39,-43,-7,51,14,-73,-97,-63,-53,-53
39,58,19,-48,9,39,9,-68,-97,-63,-53,-48
43,58,14,-51,14,36,0,-68,-97,-63,-53,-48
43,58,14,-51,14,36,-14,-82,-112,-68,-53,-48
29,53,24,-41,2,39,-24,-97,-117,-73,-58,-48
24,53,29,-39,-2,41,-24,-102,-126,-87,-68,-48
14,53,39,-34,-12,46,-24,-102,-131,-87,-78,-53
14,43,29,-29,-7,36,-19,-102,-131,-87,-78,-58
19,29,9,-24,4,19,-14,-102,-131,-87,-73,-63
19,34,14,-26,2,24,-19,-112,-141,-92,-73,-63
24,39,14,-31,4,26,-34,-117,-146,-97,-78,-63
24,34,9,-29,7,21,-39,-117,-146,-97,-82,-63
14,34,19,-24,-2,26,-34,-117,-146,-97,-82,-63
-9,9,19,0,-14,14,-14,-117,-156,-102,-92,-78
-43,-9,34,26,-39,12,4,-126,-170,-122,-112,-92
-68,-24,43,46,-56,9,9,-146,-195,-141,-122,-112
-73,-34,39,53,-56,2,9,-156,-204,-151,-131,-122
-78,-43,34,61,-56,-4,9,-156,-204,-151,-136,-126
-78,-43,34,61,-56,-4,9,-151,-204,-151,-136,-126
-78,-43,34,61,-56,-4,19,-151,-204,-161,-141,-131
-78,-48,29,63,-53,-9,19,-156,-209,-165,-146,-131
-87,-48,39,68,-63,-4,19,-161,-214,-165,-146,-131
-87,-48,39,68,-63,-4,19,-165,-219,-165,-151,-131
-87,-48,39,68,-63,-4,24,-165,-219,-165,-151,-131
-97,-48,48,73,-73,0,24,-165,-219,-165,-151,-131
-97,-48,48,73,-73,0,29,-165,-219,-165,-146,-131
-97,-48,48,73,-73,0,29,-165,-219,-170,-141,-131
-102,-43,58,73,-80,7,24,-170,-229,-180,-141,-126
-107,-39,68,73,-87,14,19,-175,-234,-185,-146,-126
-107,-24,82,65,-95,29,14,-185,-234,-185,-146,-122
-107,-9,97,58,-102,43,9,-190,-239,-190,-146,-117
-102,-9,92,56,-97,41,4,-190,-239,-195,-151,-117
-97,-9,87,53,-92,39,4,-190,-239,-200,-156,-117
-107,-14,92,61,-100,39,24,-170,-239,-200,-165,-131
-107,-34,73,70,-90,19,48,-151,-234,-200,-185,-146
-117,-48,68,82,-92,9,92,-87,-180,-190,-185,-156
-126,-82,43,104,-85,-19,165,9,-97,-161,-175,-165
-107,-73,34,90,-70,-19,112,19,-4,-82,-126,-151
-43,-43,0,43,-21,-21,-24,78,136,48,-39,-102
53,34,-19,-43,36,7,-209,214,375,263,122,0
234,170,-63,-202,148,53,-507,395,683,551,375,175
531,370,-161,-451,346,104,-829,761,1249,1073,800,478
893,639,-253,-766,573,192,-1132,1327,2049,1756,1356,868
1205,902,-302,-1054,753,300,-1381,1766,2664,2249,1766,1171
1356,1098,-258,-1227,807,419,-1625,1712,2840,2435,1961,1361
1371,1185,-185,-1278,778,500,-1844,990,2215,2010,1751,1376
1205,1107,-97,-1156,651,505,-1917,73,1405,1429,1381,1185
922,873,-48,-897,485,412,-1878,-897,268,561,756,834
688,771,82,-729,302,427,-1815,-1742,-917,-229,283,624
590,785,195,-688,197,490,-1644,-1859,-1298,-478,146,585
522,766,244,-644,139,505,-1385,-1498,-1068,-385,136,546
439,712,273,-575,82,492,-1078,-1190,-839,-312,117,458
346,610,263,-478,41,436,-824,-927,-644,-239,102,366
268,483,214,-375,26,348,-619,-702,-488,-175,73,287
195,346,151,-270,21,248,-424,-512,-380,-141,19,185
102,229,126,-165,-12,178,-258,-390,-312,-151,-43,68
19,146,126,-82,-53,136,-131,-297,-268,-165,-87,-29
-34,53,87,-9,-61,70,-53,-209,-224,-156,-122,-87
-58,19,78,19,-68,48,-9,-151,-200,-146,-131,-107
-68,9,78,29,-73,43,29,-136,-195,-156,-141,-117
-82,0,82,41,-82,41,53,-131,-185,-156,-151,-131
-82,-14,68,48,-75,26,63,-112,-175,-156,-156,-141
-82,-43,39,63,-61,-2,73,-92,-170,-156,-161,-151
-87,-43,43,65,-65,0,82,-87,-170,-156,-161,-161
-97,-43,53,70,-75,4,92,-82,-165,-156,-161,-165
-107,-48,58,78,-82,4,102,-78,-161,-156,-165,-170
-112,-48,63,80,-87,7,102,-68,-156,-156,-165,-170
-112,-48,63,80,-87,7,102,-68,-151,-161,-165,-175
-112,-43,68,78,-90,12,107,-63,-151,-165,-165,-175
-112,-39,73,75,-92,17,112,-58,-156,-165,-165,-175
-112,-39,73,75,-92,17,112,-58,-156,-161,-165,-175
-122,-39,82,80,-102,21,117,-43,-151,-156,-165,-170
-122,-34,87,78,-104,26,122,-43,-146,-156,-170,-170
-117,-34,82,75,-100,24,117,-43,-141,-161,-175,-170
-117,-29,87,73,-102,29,112,-43,-141,-165,-180,-170
-117,-29,87,73,-102,29,117,-39,-141,-165,-175,-170
-117,-29,87,73,-102,29,117,-34,-136,-161,-175,-170
-122,-29,92,75,-107,31,117,-34,-136,-156,-175,-170
-126,-24,102,75,-114,39,122,-29,-131,-156,-175,-175
-126,-19,107,73,-117,43,122,-29,-126,-156,-175,-175
-126,-19,107,73,-117,43,122,-29,-122,-151,-170,-170
-117,-19,97,68,-107,39,122,-24,-122,-151,-170,-170
-112,-19,92,65,-102,36,122,-19,-117,-151,-165,-165
-107,-14,92,61,-100,39,131,-19,-122,-146,-165,-165
-107,-14,92,61,-100,39,136,-14,-117,-146,-165,-165
-107,-9,97,58,-102,43,136,-9,-117,-141,-165,-161
-107,-9,97,58,-102,43,136,0,-112,-141,-165,-161
-107,-4,102,56,-104,48,141,4,-102,-141,-161,-161
-102,0,102,51,-102,51,141,14,-92,-136,-156,-156
-97,0,97,48,-97,48,151,14,-87,-131,-151,-156
-97,4,102,46,-100,53,156,29,-78,-131,-141,-156
-97,9,107,43,-102,58,156,34,-73,-122,-141,-151
-92,14,107,39,-100,61,156,39,-68,-112,-136,-151
-92,24,117,34,-104,70,156,43,-68,-102,-126,-146
-92,24,117,34,-104,70,161,48,-58,-97,-117,-141
-92,34,126,29,-109,80,165,58,-39,-92,-112,-141
-82,43,126,19,-104,85,165,73,-34,-87,-107,-136
-73,53,126,9,-100,90,170,78,-29,-82,-107,-131
-73,58,131,7,-102,95,170,87,-19,-78,-107,-131
-73,68,141,2,-107,104,170,97,-9,-73,-102,-122
-68,78,146,-4,-107,112,175,117,0,-63,-97,-112
-68,92,161,-12,-114,126,180,126,9,-53,-87,-102
-63,107,170,-21,-117,139,185,146,29,-39,-78,-92
-63,126,190,-31,-126,158,190,151,48,-24,-68,-87
-58,131,190,-36,-124,161,190,170,68,-9,-58,-78
-43,151,195,-53,-119,173,190,195,87,0,-43,-68
-39,175,214,-68,-126,195,190,214,107,19,-29,-63
-34,190,224,-78,-129,207,190,234,131,34,-14,-39
-24,209,234,-92,-129,222,190,258,151,43,-9,-34
-9,229,239,-109,-124,234,195,278,180,68,14,-9
0,244,244,-122,-122,244,200,307,209,92,39,14
14,263,248,-139,-117,256,195,336,239,117,58,29
24,292,268,-158,-122,280,185,366,263,136,78,43
34,312,278,-173,-122,295,175,390,297,151,97,63
53,322,268,-187,-107,295,170,414,326,170,117,82
68,341,273,-204,-102,307,165,434,351,200,136,97
92,356,263,-224,-85,309,156,458,375,219,156,112
92,390,297,-241,-102,344,146,483,405,244,180,136
102,409,307,-256,-102,358,141,497,434,268,200,156
122,419,297,-270,-87,358,131,507,453,287,219,180
141,429,287,-285,-73,358,126,527,478,302,234,200
165,439,273,-302,-53,356,112,541,502,312,244,204
175,439,263,-307,-43,351,92,551,517,322,253,214
190,429,239,-309,-24,334,78,556,527,336,263,219
195,424,229,-309,-17,326,58,551,527,341,268,224
209,424,214,-317,-2,319,48,527,507,331,263,224
224,414,190,-319,17,302,29,483,473,312,253,209
214,395,180,-305,17,287,24,448,434,292,239,200
180,370,190,-275,-4,280,14,414,390,273,219,185
175,341,165,-258,4,253,-4,361,341,244,195,161
161,317,156,-239,2,236,-19,312,292,200,175,131
146,283,136,-214,4,209,-19,258,239,161,141,102
126,258,131,-192,-2,195,-19,200,185,126,102,73
107,229,122,-168,-7,175,-19,156,136,97,78,48
82,195,112,-139,-14,153,-24,112,87,58,48,24
68,175,107,-122,-19,141,-19,73,43,24,19,0
53,151,97,-102,-21,124,-19,39,9,0,-9,-19
39,141,102,-90,-31,122,-24,4,-29,-24,-29,-39
29,117,87,-73,-29,102,-29,-19,-58,-48,-48,-53
4,97,92,-51,-43,95,-24,-43,-87,-68,-68,-63
-4,92,97,-43,-51,95,-24,-63,-107,-82,-82,-82
-14,82,97,-34,-56,90,-14,-78,-122,-87,-87,-87
-14,82,97,-34,-56,90,-14,-97,-141,-112,-102,-97
-24,73,97,-24,-61,85,-14,-117,-151,-117,-107,-102
-34,68,102,-17,-68,85,-14,-122,-161,-122,-112,-112
-43,63,107,-9,-75,85,-9,-126,-170,-122,-122,-112
-48,68,117,-9,-82,92,-9,-131,-180,-131,-126,-117
-43,63,107,-9,-75,85,-14,-136,-185,-136,-131,-126
-43,58,102,-7,-73,80,-19,-141,-190,-136,-131,-126
-48,58,107,-4,-78,82,-19,-146,-190,-146,-131,-126
-48,58,107,-4,-78,82,-19,-146,-200,-151,-136,-126
-43,58,102,-7,-73,80,-19,-151,-204,-156,-141,-126
-48,53,102,-2,-75,78,-19,-151,-204,-156,-141,-126
-48,53,102,-2,-75,78,-14,-146,-200,-156,-146,-126
-48,53,102,-2,-75,78,-14,-146,-200,-156,-151,-131
-48,53,102,-2,-75,78,-14,-146,-200,-156,-151,-131
-48,48,97,0,-73,73,-14,-146,-200,-156,-151,-131
-53,48,102,2,-78,75,-9,-146,-200,-161,-151,-131
-53,43,97,4,-75,70,-9,-151,-204,-161,-151,-136
-58,43,102,7,-80,73,-9,-156,-209,-161,-151,-136
-58,43,102,7,-80,73,-9,-156,-209,-165,-151,-136
-53,43,97,4,-75,70,-9,-156,-214,-170,-156,-136
-53,43,97,4,-75,70,-4,-156,-219,-175,-156,-141
