I, II, III, aVR, aVL, aVF, V1, V2, V3, V4, V5, V6
-68,-87,-19,78,-24,-53,29,-9,-68,-87,-97,-87
-68,-92,-24,80,-21,-58,34,-9,-68,-87,-97,-87
-68,-97,-29,82,-19,-63,39,-9,-68,-87,-97,-87
-68,-97,-29,82,-19,-63,39,-9,-68,-87,-97,-87
-68,-97,-29,82,-19,-63,39,-9,-68,-87,-97,-87
-63,-92,-29,78,-17,-61,43,-9,-68,-87,-97,-87
-58,-87,-29,73,-14,-58,48,-9,-68,-87,-97,-87
-58,-87,-29,73,-14,-58,48,-9,-68,-87,-97,-87
-58,-87,-29,73,-14,-58,48,-9,-68,-87,-97,-87
-58,-87,-29,73,-14,-58,48,-9,-68,-87,-97,-87
-58,-87,-29,73,-14,-58,48,-9,-68,-87,-97,-87
-58,-87,-29,73,-14,-58,43,-9,-68,-92,-97,-87
-58,-87,-29,73,-14,-58,39,-9,-68,-97,-97,-87
-58,-87,-29,73,-14,-58,39,-9,-68,-97,-92,-82
-58,-87,-29,73,-14,-58,39,-9,-68,-97,-87,-78
-58,-87,-29,73,-14,-58,39,-9,-68,-97,-87,-78
-58,-87,-29,73,-14,-58,39,-9,-68,-97,-87,-78
-58,-92,-34,75,-12,-63,39,-9,-68,-97,-87,-82
-58,-97,-39,78,-9,-68,39,-9,-68,-97,-87,-87
-58,-97,-39,78,-9,-68,39,-9,-73,-97,-92,-87
-58,-97,-39,78,-9,-68,39,-9,-78,-97,-97,-87
-58,-97,-39,78,-9,-68,39,-9,-78,-92,-97,-87
-58,-97,-39,78,-9,-68,39,-9,-78,-87,-97,-87
-48,-92,-43,70,-2,-68,39,-4,-68,-82,-92,-82
-39,-87,-48,63,4,-68,39,0,-58,-78,-87,-78
-39,-82,-43,61,2,-63,34,4,-58,-78,-87,-78
-39,-78,-39,58,0,-58,29,9,-58,-78,-87,-78
-34,-78,-43,56,4,-61,29,9,-58,-78,-82,-78
-29,-78,-48,53,9,-63,29,9,-58,-78,-78,-78
-19,-73,-53,46,17,-63,19,19,-58,-78,-78,-73
-9,-68,-58,39,24,-63,9,29,-58,-78,-78,-68
-9,-68,-58,39,24,-63,9,34,-53,-73,-73,-63
-9,-68,-58,39,24,-63,9,39,-48,-68,-68,-58
0,-63,-63,31,31,-63,4,48,-48,-58,-58,-53
9,-58,-68,24,39,-63,0,58,-48,-48,-48,-48
24,-43,-68,9,46,-56,-4,68,-39,-39,-34,-34
39,-29,-68,-4,53,-48,-9,78,-29,-29,-19,-19
48,-19,-68,-14,58,-43,-9,92,-24,-19,-9,-9
58,-9,-68,-24,63,-39,-9,107,-19,-9,0,0
68,0,-68,-34,68,-34,-24,117,-9,0,9,9
78,9,-68,-43,73,-29,-39,126,0,9,19,19
97,24,-73,-61,85,-24,-48,146,9,24,39,34
117,39,-78,-78,97,-19,-58,165,19,39,58,48
131,53,-78,-92,104,-12,-63,185,29,58,82,78
146,68,-78,-107,112,-4,-68,204,39,78,107,107
170,97,-73,-134,122,12,-82,224,53,97,126,131
195,126,-68,-161,131,29,-97,244,68,117,146,156
209,146,-63,-178,136,41,-107,263,82,141,180,180
224,165,-58,-195,141,53,-117,283,97,165,214,204
239,180,-58,-209,148,61,-122,302,112,190,239,234
253,195,-58,-224,156,68,-126,322,126,214,263,263
268,219,-48,-244,158,85,-136,331,146,234,287,287
283,244,-39,-263,161,102,-146,341,165,253,312,312
283,263,-19,-273,151,122,-146,356,175,273,326,326
283,283,0,-283,141,141,-146,370,185,292,341,341
283,292,9,-287,136,151,-146,370,200,302,351,346
283,302,19,-292,131,161,-146,370,214,312,361,351
273,302,29,-287,122,165,-141,366,214,312,361,351
263,302,39,-283,112,170,-136,361,214,312,361,351
244,297,53,-270,95,175,-117,341,214,297,341,331
224,292,68,-258,78,180,-97,322,214,283,322,312
204,273,68,-239,68,170,-82,297,204,263,297,287
185,253,68,-219,58,161,-68,273,195,244,273,263
161,229,68,-195,46,148,-58,244,170,214,239,229
136,204,68,-170,34,136,-48,214,146,185,204,195
107,170,63,-139,21,117,-39,185,131,156,170,170
78,136,58,-107,9,97,-29,156,117,126,136,146
58,112,53,-85,2,82,-14,126,92,97,107,112
39,87,48,-63,-4,68,0,97,68,68,78,78
19,63,43,-41,-12,53,4,73,48,43,53,58
0,39,39,-19,-19,39,9,48,29,19,29,39
-14,19,34,-2,-24,26,14,29,14,4,9,19
-29,0,29,14,-29,14,19,9,0,-9,-9,0
-39,-19,19,29,-29,0,24,-4,-14,-24,-24,-19
-48,-39,9,43,-29,-14,29,-19,-29,-39,-39,-39
-53,-43,9,48,-31,-17,29,-24,-34,-48,-48,-43
-58,-48,9,53,-34,-19,29,-29,-39,-58,-58,-48
-63,-53,9,58,-36,-21,34,-34,-43,-63,-68,-58
-68,-58,9,63,-39,-24,39,-39,-48,-68,-78,-68
-73,-68,4,70,-39,-31,39,-48,-53,-73,-82,-73
-78,-78,0,78,-39,-39,39,-58,-58,-78,-87,-78
-78,-78,0,78,-39,-39,39,-58,-63,-82,-87,-82
-78,-78,0,78,-39,-39,39,-58,-68,-87,-87,-87
-78,-78,0,78,-39,-39,39,-58,-68,-87,-92,-87
-78,-78,0,78,-39,-39,39,-58,-68,-87,-97,-87
-78,-82,-4,80,-36,-43,39,-58,-68,-92,-97,-87
-78,-87,-9,82,-34,-48,39,-58,-68,-97,-97,-87
-78,-92,-14,85,-31,-53,39,-63,-73,-97,-102,-92
-78,-97,-19,87,-29,-58,39,-68,-78,-97,-107,-97
-87,-102,-14,95,-36,-58,39,-73,-78,-97,-107,-102
-97,-107,-9,102,-43,-58,39,-78,-78,-97,-107,-107
-97,-107,-9,102,-43,-58,39,-78,-78,-97,-107,-107
-97,-107,-9,102,-43,-58,39,-78,-78,-97,-107,-107
-92,-102,-9,97,-41,-56,39,-78,-78,-97,-112,-107
-87,-97,-9,92,-39,-53,39,-78,-78,-97,-117,-107
-87,-97,-9,92,-39,-53,39,-78,-78,-102,-117,-107
-87,-97,-9,92,-39,-53,39,-78,-78,-107,-117,-107
-92,-97,-4,95,-43,-51,39,-78,-78,-107,-112,-107
-97,-97,0,97,-48,-48,39,-78,-78,-107,-107,-107
-97,-97,0,97,-48,-48,39,-78,-78,-102,-107,-107
-97,-97,0,97,-48,-48,39,-78,-78,-97,-107,-107
-97,-97,0,97,-48,-48,39,-78,-78,-97,-112,-107
-97,-97,0,97,-48,-48,39,-78,-78,-97,-117,-107
-97,-97,0,97,-48,-48,39,-78,-78,-97,-117,-107
-97,-97,0,97,-48,-48,39,-78,-78,-97,-117,-107
-92,-92,0,92,-46,-46,39,-78,-78,-97,-112,-107
-87,-87,0,87,-43,-43,39,-78,-78,-97,-107,-107
-87,-87,0,87,-43,-43,43,-73,-78,-92,-107,-102
-87,-87,0,87,-43,-43,48,-68,-78,-87,-107,-97
-82,-82,0,82,-41,-41,48,-48,-63,-82,-97,-92
-78,-78,0,78,-39,-39,48,-29,-48,-78,-87,-87
-68,-43,24,56,-46,-9,53,19,-29,-58,-68,-68
-58,-9,48,34,-53,19,58,68,-9,-39,-48,-48
-43,9,53,17,-48,31,63,87,14,-24,-34,-34
-29,29,58,0,-43,43,68,107,39,-9,-19,-19
-29,63,92,-17,-61,78,73,151,68,24,9,4
-29,97,126,-34,-78,112,78,195,97,58,39,29
-34,112,146,-39,-90,129,92,239,117,68,48,39
-39,126,165,-43,-102,146,107,283,136,78,58,48
-43,146,190,-51,-117,168,107,297,170,107,82,73
-48,165,214,-58,-131,190,107,312,204,136,107,97
-48,214,263,-82,-156,239,107,331,253,180,146,131
-48,263,312,-107,-180,287,107,351,302,224,185,165
-73,326,400,-126,-236,363,97,292,380,292,253,234
-97,390,488,-146,-292,439,87,234,458,361,322,302
-136,502,639,-183,-387,570,39,-48,517,458,434,419
-175,614,790,-219,-483,702,-9,-331,575,556,546,536
-224,746,971,-261,-597,858,-78,-536,673,692,697,692
-273,878,1151,-302,-712,1015,-146,-741,771,829,849,849
-287,966,1254,-339,-771,1110,-234,-966,756,907,956,966
-302,1054,1356,-375,-829,1205,-322,-1190,741,985,1063,1083
-268,1058,1327,-395,-797,1193,-444,-1395,605,985,1102,1141
-234,1063,1298,-414,-766,1180,-566,-1600,468,985,1141,1200
-258,1093,1351,-417,-805,1222,-595,-1644,390,1000,1210,1293
-283,1122,1405,-419,-844,1263,-624,-1688,312,1015,1278,1385
-341,1122,1464,-390,-902,1293,-595,-1688,244,1000,1312,1439
-400,1122,1522,-361,-961,1322,-566,-1688,175,985,1346,1493
-409,1005,1415,-297,-912,1210,-522,-1586,92,893,1307,1493
-419,888,1307,-234,-863,1098,-478,-1483,9,800,1268,1493
-356,785,1141,-214,-749,963,-463,-1322,-19,761,1263,1483
-292,683,976,-195,-634,829,-448,-1161,-48,722,1259,1473
-239,629,868,-195,-553,749,-409,-951,-9,741,1259,1464
-185,575,761,-195,-473,668,-370,-741,29,761,1259,1454
-131,502,634,-185,-383,568,-317,-575,58,692,1146,1302
-78,429,507,-175,-292,468,-263,-409,87,624,1034,1151
-53,307,361,-126,-207,334,-204,-317,29,434,756,863
-29,185,214,-78,-122,200,-146,-224,-29,244,478,575
-29,97,126,-34,-78,112,-92,-156,-48,131,287,361
-29,9,39,9,-34,24,-39,-87,-68,19,97,146
-29,-39,-9,34,-9,-24,-9,-48,-82,-39,9,43
-29,-87,-58,58,14,-73,19,-9,-97,-97,-78,-58
-29,-107,-78,68,24,-92,29,4,-102,-117,-107,-92
-29,-126,-97,78,34,-112,39,19,-107,-136,-136,-126
-34,-136,-102,85,34,-119,43,24,-112,-146,-156,-146
-39,-146,-107,92,34,-126,48,29,-117,-156,-175,-165
-39,-156,-117,97,39,-136,53,34,-117,-165,-180,-180
-39,-165,-126,102,43,-146,58,39,-117,-175,-185,-195
-29,-165,-136,97,53,-151,58,43,-117,-175,-195,-200
-19,-165,-146,92,63,-156,58,48,-117,-175,-204,-204
-19,-170,-151,95,65,-161,58,53,-122,-175,-204,-204
-19,-175,-156,97,68,-165,58,58,-126,-175,-204,-204
-19,-180,-161,100,70,-170,58,58,-131,-180,-209,-214
-19,-185,-165,102,73,-175,58,58,-136,-185,-214,-224
-19,-185,-165,102,73,-175,58,63,-136,-190,-219,-224
-19,-185,-165,102,73,-175,58,68,-136,-195,-224,-224
-9,-190,-180,100,85,-185,58,73,-141,-195,-224,-229
0,-195,-195,97,97,-195,58,78,-146,-195,-224,-234
4,-200,-204,97,104,-202,58,82,-146,-204,-234,-239
9,-204,-214,97,112,-209,58,87,-146,-214,-244,-244
14,-214,-229,100,122,-222,53,92,-151,-219,-248,-253
19,-224,-244,102,131,-234,48,97,-156,-224,-253,-263
29,-224,-253,97,141,-239,48,107,-161,-224,-263,-268
39,-224,-263,92,151,-244,48,117,-165,-224,-273,-273
43,-229,-273,92,158,-251,48,122,-165,-229,-273,-278
48,-234,-283,92,165,-258,48,126,-165,-234,-273,-283
48,-244,-292,97,170,-268,43,131,-170,-248,-287,-297
48,-253,-302,102,175,-278,39,136,-175,-263,-302,-312
53,-258,-312,102,183,-285,39,151,-185,-268,-312,-317
58,-263,-322,102,190,-292,39,165,-195,-273,-322,-322
73,-268,-341,97,207,-305,39,180,-200,-278,-326,-331
87,-273,-361,92,224,-317,39,195,-204,-283,-331,-341
102,-283,-385,90,244,-334,39,214,-204,-292,-341,-351
117,-292,-409,87,263,-351,39,234,-204,-302,-351,-361
117,-302,-419,92,268,-361,39,248,-209,-312,-361,-375
117,-312,-429,97,273,-370,39,263,-214,-322,-370,-390
131,-317,-448,92,290,-383,39,283,-219,-331,-390,-409
146,-322,-468,87,307,-395,39,302,-224,-341,-409,-429
156,-331,-488,87,322,-409,43,322,-224,-346,-409,-429
165,-341,-507,87,336,-424,48,341,-224,-351,-409,-429
175,-351,-527,87,351,-439,48,366,-224,-356,-424,-448
185,-361,-546,87,366,-453,48,390,-224,-361,-439,-468
195,-366,-561,85,378,-463,48,419,-224,-366,-453,-483
204,-370,-575,82,390,-473,48,448,-224,-370,-468,-497
224,-370,-595,73,409,-483,48,483,-219,-375,-473,-507
244,-370,-614,63,429,-492,48,517,-214,-380,-478,-517
258,-370,-629,56,444,-500,58,551,-204,-380,-483,-527
273,-370,-644,48,458,-507,68,585,-195,-380,-488,-536
283,-370,-653,43,468,-512,73,614,-185,-380,-492,-546
292,-370,-663,39,478,-517,78,644,-175,-380,-497,-556
302,-370,-673,34,488,-522,78,683,-156,-375,-507,-566
312,-370,-683,29,497,-527,78,722,-136,-370,-517,-575
336,-361,-697,12,517,-529,78,746,-126,-366,-517,-580
361,-351,-712,-4,536,-531,78,771,-117,-361,-517,-585
366,-346,-712,-9,539,-529,78,800,-97,-351,-512,-585
370,-341,-712,-14,541,-527,78,829,-78,-341,-507,-585
375,-326,-702,-24,539,-514,78,834,-58,-322,-497,-575
380,-312,-692,-34,536,-502,78,839,-39,-302,-488,-566
385,-292,-678,-46,531,-485,78,839,-14,-283,-458,-541
390,-273,-663,-58,527,-468,78,839,9,-263,-429,-517
390,-244,-634,-73,512,-439,73,814,19,-239,-409,-492
390,-214,-605,-87,497,-409,68,790,29,-214,-390,-468
380,-185,-566,-97,473,-375,58,751,43,-185,-351,-429
370,-156,-527,-107,448,-341,48,712,58,-156,-312,-390
361,-131,-492,-114,427,-312,39,658,68,-131,-278,-356
351,-107,-458,-122,405,-283,29,605,78,-107,-244,-322
331,-78,-409,-126,370,-244,24,556,87,-82,-204,-268
312,-48,-361,-131,336,-204,19,507,97,-58,-165,-214
292,-19,-312,-136,302,-165,19,453,97,-29,-122,-170
273,9,-263,-141,268,-126,19,400,97,0,-78,-126
253,53,-200,-153,226,-73,19,356,107,29,-34,-73
234,97,-136,-165,185,-19,19,312,117,58,9,-19
209,117,-92,-163,151,12,29,278,126,73,39,9
185,136,-48,-161,117,43,39,244,136,87,68,39
161,146,-14,-153,87,65,39,219,136,102,82,63
136,156,19,-146,58,87,39,195,136,117,97,87
126,170,43,-148,41,107,19,170,136,122,112,102
117,185,68,-151,24,126,0,146,136,126,126,117
97,185,87,-141,4,136,-4,126,136,126,126,122
78,185,107,-131,-14,146,-9,107,136,126,126,126
63,185,122,-124,-29,153,-14,73,131,126,126,126
48,185,136,-117,-43,161,-19,39,126,126,126,126
43,170,126,-107,-41,148,-48,29,107,112,112,117
39,156,117,-97,-39,136,-78,19,87,97,97,107
39,141,102,-90,-31,122,-82,9,73,82,87,97
39,126,87,-82,-24,107,-87,0,58,68,78,87
34,107,73,-70,-19,90,-82,-4,48,63,73,78
24,87,63,-56,-19,75,-68,-14,34,48,58,63
19,73,53,-46,-17,63,-53,-24,24,34,48,53
0,39,39,-19,-19,39,-43,-39,9,14,19,34
-19,19,39,0,-29,29,-39,-48,-9,0,4,14
-39,0,39,19,-39,19,-14,-63,-24,-19,-14,0
-53,-29,24,41,-39,-2,-4,-58,-34,-29,-29,-19
-73,-43,29,58,-51,-7,0,-63,-43,-43,-43,-34
-68,-53,14,61,-41,-19,9,-63,-53,-53,-53,-48
-73,-53,19,63,-46,-17,9,-73,-63,-53,-53,-53
-73,-53,19,63,-46,-17,4,-87,-58,-53,-58,-48
-73,-58,14,65,-43,-21,9,-87,-58,-63,-58,-53
-68,-58,9,63,-39,-24,9,-87,-53,-53,-63,-58
-63,-58,4,61,-34,-26,4,-87,-53,-58,-63,-53
-63,-48,14,56,-39,-17,4,-78,-48,-58,-63,-53
-63,-58,4,61,-34,-26,4,-68,-58,-63,-68,-53
-58,-58,0,58,-29,-29,-4,-78,-53,-63,-68,-58
-53,-48,4,51,-29,-21,-4,-78,-48,-63,-68,-58
-53,-48,4,51,-29,-21,-4,-78,-58,-63,-58,-53
-53,-43,9,48,-31,-17,-4,-78,-63,-63,-58,-53
-68,-68,0,68,-34,-34,0,-82,-68,-68,-68,-68
-78,-73,4,75,-41,-34,4,-82,-73,-68,-78,-73
-78,-73,4,75,-41,-34,9,-82,-78,-73,-78,-68
-78,-78,0,78,-39,-39,14,-82,-82,-73,-82,-73
-68,-68,0,68,-34,-34,14,-87,-82,-78,-82,-73
-63,-63,0,63,-31,-31,14,-82,-78,-78,-78,-68
-68,-68,0,68,-34,-34,14,-87,-78,-82,-82,-73
-68,-68,0,68,-34,-34,14,-87,-82,-82,-82,-73
-63,-68,-4,65,-29,-36,14,-92,-82,-82,-82,-73
-63,-68,-4,65,-29,-36,9,-97,-82,-82,-82,-73
-63,-63,0,63,-31,-31,9,-97,-78,-82,-82,-73
-63,-58,4,61,-34,-26,9,-97,-73,-87,-82,-73
-63,-58,4,61,-34,-26,14,-97,-73,-87,-82,-73
-63,-58,4,61,-34,-26,14,-97,-73,-87,-82,-73
-63,-58,4,61,-34,-26,14,-97,-73,-87,-82,-68
-63,-53,9,58,-36,-21,14,-97,-78,-87,-78,-68
-63,-48,14,56,-39,-17,14,-97,-78,-87,-78,-73
-63,-43,19,53,-41,-12,9,-97,-78,-92,-78,-73
-63,-48,14,56,-39,-17,9,-97,-78,-87,-78,-73
-63,-48,14,56,-39,-17,9,-97,-73,-82,-78,-73
-63,-53,9,58,-36,-21,14,-97,-73,-73,-73,-63
-63,-58,4,61,-34,-26,14,-92,-73,-68,-73,-58
-63,-58,4,61,-34,-26,14,-92,-68,-78,-68,-63
-53,-78,-24,65,-14,-51,29,-73,-78,-97,-92,-87
-63,-112,-48,87,-7,-80,48,-39,-78,-122,-141,-136
-73,-97,-24,85,-24,-61,68,14,-48,-102,-136,-136
-58,-14,43,36,-51,14,63,73,29,-24,-48,-63
14,117,102,-65,-43,109,39,161,136,122,122,97
165,263,97,-214,34,180,-9,317,248,297,317,292
336,424,87,-380,124,256,-68,463,370,502,556,531
527,590,63,-558,231,326,-204,502,468,692,814,795
663,707,43,-685,309,375,-331,414,507,839,1039,1029
624,727,102,-675,261,414,-331,253,507,849,1058,1078
468,712,244,-590,112,478,-312,102,468,736,917,971
224,712,488,-468,-131,600,-278,-58,478,624,756,814
9,649,639,-329,-314,644,-190,-336,400,483,561,590
-92,497,590,-202,-341,544,-146,-551,248,317,326,380
-87,326,414,-119,-251,370,-165,-634,92,180,170,209
-87,190,278,-51,-183,234,-190,-644,-53,53,48,73
-87,87,175,0,-131,131,-175,-556,-136,-39,-39,-14
-82,68,151,7,-117,109,-126,-395,-122,-53,-58,-29
-48,29,78,9,-63,53,-68,-248,-122,-68,-68,-39
-14,0,14,7,-14,7,-39,-170,-107,-73,-68,-48
-14,-14,0,14,-7,-7,-19,-122,-82,-68,-53,-53
-19,-14,4,17,-12,-4,0,-92,-63,-58,-58,-43
-24,-4,19,14,-21,7,14,-68,-53,-48,-48,-34
-19,4,24,7,-21,14,29,-53,-34,-43,-39,-29
-19,4,24,7,-21,14,34,-48,-29,-43,-39,-34
-24,4,29,9,-26,17,39,-53,-29,-39,-39,-34
-39,0,39,19,-39,19,39,-48,-24,-34,-34,-29
-39,-4,34,21,-36,14,43,-48,-24,-34,-34,-29
-34,-9,24,21,-29,7,48,-48,-29,-34,-34,-34
-34,-14,19,24,-26,2,48,-48,-34,-39,-34,-34
-34,-14,19,24,-26,2,48,-43,-39,-43,-34,-34
-34,-14,19,24,-26,2,48,-43,-34,-43,-39,-34
-29,-19,9,24,-19,-4,48,-43,-34,-43,-43,-34
-29,-19,9,24,-19,-4,48,-43,-34,-43,-43,-34
-29,-19,9,24,-19,-4,48,-43,-34,-39,-43,-29
-29,-14,14,21,-21,0,48,-39,-34,-39,-43,-29
-29,-9,19,19,-24,4,48,-39,-34,-39,-43,-29
-29,-9,19,19,-24,4,48,-39,-34,-39,-48,-34
-34,-9,24,21,-29,7,48,-39,-34,-43,-48,-39
-34,-19,14,26,-24,-2,48,-39,-34,-43,-48,-39
-29,-24,4,26,-17,-9,53,-39,-34,-43,-43,-39
-24,-19,4,21,-14,-7,53,-39,-34,-43,-43,-39
-24,-19,4,21,-14,-7,53,-39,-34,-43,-43,-39
-24,-19,4,21,-14,-7,48,-34,-34,-43,-43,-39
-24,-24,0,24,-12,-12,43,-34,-34,-43,-43,-39
-19,-24,-4,21,-7,-14,43,-34,-34,-43,-43,-39
-14,-19,-4,17,-4,-12,39,-34,-34,-43,-43,-39
-14,-19,-4,17,-4,-12,43,-34,-29,-43,-43,-34
-14,-19,-4,17,-4,-12,48,-34,-29,-43,-43,-34
-9,-19,-9,14,0,-14,48,-34,-29,-43,-43,-29
-9,-19,-9,14,0,-14,48,-29,-34,-43,-39,-24
-9,-14,-4,12,-2,-9,43,-29,-34,-39,-39,-24
-4,-14,-9,9,2,-12,34,-29,-34,-39,-39,-24
0,-14,-14,7,7,-14,34,-24,-34,-39,-39,-24
4,-9,-14,2,9,-12,34,-24,-29,-39,-39,-19
14,-4,-19,-4,17,-12,34,-19,-29,-34,-39,-19
24,0,-24,-12,24,-12,29,-14,-29,-34,-34,-19
24,0,-24,-12,24,-12,29,-9,-29,-34,-29,-9
24,0,-24,-12,24,-12,29,-9,-24,-34,-19,-4
24,0,-24,-12,24,-12,24,-4,-24,-24,-14,0
34,4,-29,-19,31,-12,14,0,-24,-14,-9,0
43,14,-29,-29,36,-7,9,4,-19,-9,-4,4
48,19,-29,-34,39,-4,4,14,-9,0,0,9
53,24,-29,-39,41,-2,-4,14,-9,9,9,24
58,24,-34,-41,46,-4,-9,19,-4,14,19,39
63,34,-29,-48,46,2,-14,29,0,19,34,39
73,53,-19,-63,46,17,-19,34,9,24,43,48
97,78,-19,-87,58,29,-29,43,14,43,63,63
126,97,-29,-112,78,34,-39,58,19,58,82,78
131,102,-29,-117,80,36,-43,73,19,68,97,102
141,107,-34,-124,87,36,-48,87,29,73,117,126
151,117,-34,-134,92,41,-58,97,48,97,136,146
165,131,-34,-148,100,48,-73,112,63,107,151,165
185,156,-29,-170,107,63,-87,126,73,131,175,180
209,170,-39,-190,124,65,-102,146,82,156,195,195
224,195,-29,-209,126,82,-107,161,97,170,209,229
244,219,-24,-231,134,97,-117,170,112,190,239,258
253,234,-19,-244,136,107,-122,185,122,209,268,278
268,248,-19,-258,143,114,-131,204,131,229,283,297
292,268,-24,-280,158,122,-141,214,146,244,307,322
302,297,-4,-300,153,146,-151,234,170,268,336,346
302,307,4,-305,148,156,-146,248,180,287,351,361
307,322,14,-314,146,168,-146,258,200,302,366,375
317,326,9,-322,153,168,-146,268,209,312,380,380
322,326,4,-324,158,165,-146,278,214,322,395,380
317,341,24,-329,146,183,-141,287,219,326,385,375
302,336,34,-319,134,185,-131,287,224,331,375,366
283,326,43,-305,119,185,-122,273,224,307,351,336
263,322,58,-292,102,190,-112,263,224,287,331,317
258,302,43,-280,107,173,-97,258,224,278,307,297
239,278,39,-258,100,158,-82,248,209,258,283,273
214,253,39,-234,87,146,-68,214,195,239,253,239
180,229,48,-204,65,139,-48,190,175,214,219,214
156,209,53,-183,51,131,-39,170,165,195,200,190
131,195,63,-163,34,129,-19,151,146,165,175,165
117,170,53,-143,31,112,-14,122,126,141,146,136
97,146,48,-122,24,97,0,97,112,117,117,112
82,136,53,-109,14,95,4,78,97,92,78,82
68,112,43,-90,12,78,14,58,82,78,63,63
53,92,39,-73,7,65,19,43,73,68,48,53
43,82,39,-63,2,61,24,24,63,53,34,34
29,73,43,-51,-7,58,34,4,43,24,14,14
4,48,43,-26,-19,46,43,0,34,14,0,9
-9,29,39,-9,-24,34,39,-14,24,4,-19,-19
-14,19,34,-2,-24,26,39,-24,14,-4,-29,-29
-19,4,24,7,-21,14,39,-29,9,-19,-34,-39
-19,0,19,9,-19,9,39,-48,0,-29,-48,-48
-19,0,19,9,-19,9,43,-39,0,-29,-48,-48
-14,0,14,7,-14,7,48,-39,0,-29,-48,-48
-14,0,14,7,-14,7,48,-48,-4,-34,-48,-58
-14,0,14,7,-14,7,48,-58,0,-39,-48,-63
-14,-4,9,9,-12,2,53,-53,0,-29,-53,-58
-24,-9,14,17,-19,2,58,-48,0,-19,-53,-53
-24,-9,14,17,-19,2,53,-58,-4,-29,-53,-58
-24,-9,14,17,-19,2,48,-58,-4,-34,-53,-58
-24,-9,14,17,-19,2,48,-53,-9,-34,-48,-53
-24,-4,19,14,-21,7,48,-58,-9,-34,-53,-48
-24,-4,19,14,-21,7,48,-58,-4,-34,-53,-48
-24,-4,19,14,-21,7,48,-58,-4,-29,-53,-48
-9,0,9,4,-9,4,48,-53,0,-24,-43,-43
-4,0,4,2,-4,2,48,-48,4,-19,-34,-39
-4,0,4,2,-4,2,48,-48,0,-24,-34,-39
-9,4,14,2,-12,9,48,-48,0,-24,-34,-39
-9,0,9,4,-9,4,48,-53,0,-24,-34,-39
-9,0,9,4,-9,4,48,-53,-4,-29,-39,-43
-9,0,9,4,-9,4,53,-53,0,-24,-39,-39
-4,4,9,0,-7,7,53,-53,4,-19,-39,-34
-4,4,9,0,-7,7,53,-53,4,-19,-39,-34
-4,4,9,0,-7,7,53,-48,4,-19,-39,-34
-4,0,4,2,-4,2,53,-43,4,-24,-39,-34
-4,0,4,2,-4,2,53,-43,4,-29,-39,-34
-4,0,4,2,-4,2,53,-43,4,-29,-39,-39
0,4,4,-2,-2,4,53,-43,4,-29,-43,-39
0,4,4,-2,-2,4,58,-43,0,-29,-43,-39
4,0,-4,-2,4,-2,58,-43,0,-29,-39,-43
4,0,-4,-2,4,-2,58,-39,0,-29,-39,-43
4,0,-4,-2,4,-2,58,-39,0,-29,-39,-43
9,0,-9,-4,9,-4,58,-39,0,-24,-43,-43
14,0,-14,-7,14,-7,58,-39,0,-24,-48,-43
14,9,-4,-12,9,2,58,-39,0,-29,-43,-39
14,14,0,-14,7,7,58,-39,0,-34,-43,-39
14,14,0,-14,7,7,58,-39,4,-34,-48,-43
14,14,0,-14,7,7,58,-39,4,-34,-58,-48
9,4,-4,-7,7,0,58,-39,0,-39,-58,-53
0,-9,-9,4,4,-9,58,-39,-4,-39,-58,-58
0,-9,-9,4,4,-9,58,-39,-4,-39,-58,-63
4,-4,-9,0,7,-7,58,-39,-4,-39,-63,-68
4,0,-4,-2,4,-2,58,-39,-4,-39,-58,-63
0,0,0,0,0,0,58,-34,-4,-39,-58,-63
0,-4,-4,2,2,-4,58,-39,-4,-39,-58,-63
4,-9,-14,2,9,-12,58,-43,-4,-39,-58,-63
4,-4,-9,0,7,-7,58,-43,-4,-43,-58,-68
0,-4,-4,2,2,-4,58,-39,-4,-48,-58,-68
0,-4,-4,2,2,-4,53,-39,-9,-48,-63,-63
0,0,0,0,0,0,53,-43,-14,-53,-68,-63
0,0,0,0,0,0,53,-43,-14,-48,-68,-63
0,0,0,0,0,0,58,-43,-14,-43,-68,-63
0,0,0,0,0,0,63,-43,-14,-39,-68,-63
0,-9,-9,4,4,-9,68,-43,-14,-39,-68,-63
4,-14,-19,4,12,-17,68,-48,-14,-43,-68,-73
4,-14,-19,4,12,-17,68,-48,-19,-48,-68,-78
9,-9,-19,0,14,-14,68,-48,-19,-48,-68,-78
9,-9,-19,0,14,-14,68,-53,-19,-48,-68,-78
9,0,-9,-4,9,-4,68,-53,-14,-48,-68,-78
9,4,-4,-7,7,0,68,-53,-14,-48,-73,-78
4,-4,-9,0,7,-7,63,-48,-14,-48,-73,-78
0,-14,-14,7,7,-14,58,-48,-14,-48,-73,-82
0,-14,-14,7,7,-14,58,-53,-19,-53,-73,-82
-9,-19,-9,14,0,-14,58,-53,-19,-53,-73,-82
-9,-19,-9,14,0,-14,53,-53,-24,-53,-78,-82
-9,-19,-9,14,0,-14,53,-58,-24,-53,-78,-82
-9,-19,-9,14,0,-14,58,-58,-24,-58,-82,-82
-4,-19,-14,12,4,-17,58,-63,-24,-58,-87,-82
0,-19,-19,9,9,-19,53,-63,-24,-58,-87,-82
0,-19,-19,9,9,-19,53,-58,-19,-58,-87,-82
0,-19,-19,9,9,-19,58,-58,-19,-58,-82,-82
0,-19,-19,9,9,-19,58,-58,-19,-58,-78,-82
0,-19,-19,9,9,-19,58,-58,-24,-58,-78,-82
0,-19,-19,9,9,-19,58,-58,-24,-58,-78,-87
0,-24,-24,12,12,-24,58,-53,-24,-58,-78,-87
0,-24,-24,12,12,-24,58,-48,-24,-58,-78,-87
-4,-24,-19,14,7,-21,58,-53,-29,-58,-78,-87
-4,-24,-19,14,7,-21,58,-53,-34,-58,-78,-87
-4,-19,-14,12,4,-17,58,-53,-39,-58,-82,-87
-4,-19,-14,12,4,-17,58,-53,-39,-58,-82,-87
0,-19,-19,9,9,-19,58,-53,-39,-58,-82,-87
4,-24,-29,9,17,-26,58,-53,-39,-58,-82,-92
0,-24,-24,12,12,-24,58,-48,-34,-63,-82,-92
0,-29,-29,14,14,-29,58,-48,-29,-68,-87,-97
0,-29,-29,14,14,-29,58,-48,-29,-68,-87,-97
0,-29,-29,14,14,-29,58,-48,-29,-68,-87,-97
0,-29,-29,14,14,-29,58,-53,-34,-68,-87,-97
0,-29,-29,14,14,-29,58,-58,-39,-68,-87,-97
0,-24,-24,12,12,-24,58,-58,-39,-68,-87,-97
0,-19,-19,9,9,-19,58,-58,-39,-68,-87,-97
0,-19,-19,9,9,-19,58,-58,-39,-68,-87,-97
0,-19,-19,9,9,-19,58,-58,-39,-68,-87,-97
0,-24,-24,12,12,-24,53,-58,-39,-68,-87,-97
0,-29,-29,14,14,-29,48,-58,-39,-68,-87,-97
-9,-34,-24,21,7,-29,48,-58,-39,-68,-87,-97
-19,-39,-19,29,0,-29,48,-58,-39,-68,-87,-97
-19,-39,-19,29,0,-29,48,-58,-39,-68,-87,-97
-19,-39,-19,29,0,-29,48,-58,-39,-68,-87,-97
-9,-34,-24,21,7,-29,48,-58,-39,-68,-92,-97
0,-29,-29,14,14,-29,48,-58,-39,-68,-97,-97
0,-29,-29,14,14,-29,48,-58,-39,-68,-97,-97
0,-29,-29,14,14,-29,48,-58,-39,-68,-97,-97
-4,-29,-24,17,9,-26,48,-58,-39,-68,-92,-97
-9,-29,-19,19,4,-24,48,-58,-39,-68,-87,-97
-9,-34,-24,21,7,-29,48,-58,-39,-63,-87,-97
-9,-39,-29,24,9,-34,48,-58,-39,-58,-87,-97
-9,-39,-29,24,9,-34,48,-58,-39,-58,-87,-97
-9,-39,-29,24,9,-34,48,-58,-39,-58,-87,-97
-4,-39,-34,21,14,-36,48,-58,-39,-58,-87,-97
0,-39,-39,19,19,-39,48,-58,-39,-58,-87,-97
0,-29,-29,14,14,-29,48,-58,-39,-63,-92,-97
0,-19,-19,9,9,-19,48,-58,-39,-68,-97,-97
-14,-29,-14,21,0,-21,48,-58,-43,-68,-97,-97
-29,-39,-9,34,-9,-24,48,-58,-48,-68,-97,-97
-19,-39,-19,29,0,-29,48,-58,-48,-68,-97,-97
-9,-39,-29,24,9,-34,48,-58,-48,-68,-97,-97
-9,-29,-19,19,4,-24,48,-53,-48,-68,-97,-97
-9,-19,-9,14,0,-14,48,-48,-48,-68,-97,-97
-9,-29,-19,19,4,-24,48,-48,-48,-68,-97,-97
-9,-39,-29,24,9,-34,48,-48,-48,-68,-97,-97
-9,-39,-29,24,9,-34,48,-53,-48,-68,-97,-97
-9,-39,-29,24,9,-34,48,-58,-48,-68,-97,-97
-9,-39,-29,24,9,-34,48,-58,-48,-68,-97,-102
-9,-39,-29,24,9,-34,48,-58,-48,-68,-97,-107
-14,-43,-29,29,7,-36,43,-58,-48,-68,-97,-107
-19,-48,-29,34,4,-39,39,-58,-48,-68,-97,-107
-19,-48,-29,34,4,-39,39,-58,-48,-68,-97,-107
-19,-48,-29,34,4,-39,39,-58,-48,-68,-97,-107
-19,-43,-24,31,2,-34,39,-58,-48,-68,-97,-107
-19,-39,-19,29,0,-29,39,-58,-48,-68,-97,-107
-14,-29,-14,21,0,-21,48,-48,-43,-68,-92,-97
-9,-19,-9,14,0,-14,58,-39,-39,-68,-87,-87
0,-9,-9,4,4,-9,63,-29,-39,-63,-87,-92
9,4,-4,-7,7,0,78,-19,-34,-58,-78,-87
19,24,4,-21,7,14,92,-14,-29,-53,-73,-87
19,29,9,-24,4,19,102,-9,-19,-43,-68,-82
19,39,19,-29,0,29,97,4,-9,-34,-58,-78
19,48,29,-34,-4,39,112,14,4,-29,-53,-68
24,53,29,-39,-2,41,107,29,14,-9,-43,-53
24,73,48,-48,-12,61,97,34,24,4,-34,-34
34,78,43,-56,-4,61,87,34,29,4,-29,-34
34,92,58,-63,-12,75,68,24,34,14,-14,-24
34,102,68,-68,-17,85,39,9,39,24,-14,-14
34,107,73,-70,-19,90,19,9,39,24,-9,-14
39,97,58,-68,-9,78,-4,4,39,29,-14,-24
43,87,43,-65,0,65,-34,0,34,19,-14,-24
53,87,34,-70,9,61,-39,0,34,19,-14,-24
63,68,4,-65,29,36,-43,0,19,14,-19,-24
53,43,-9,-48,31,17,-39,-14,9,0,-29,-34
43,29,-14,-36,29,7,-24,-19,0,-14,-39,-39
34,14,-19,-24,26,-2,-19,-24,-14,-24,-43,-48
24,4,-19,-14,21,-7,-14,-29,-24,-34,-58,-63
4,-29,-34,12,19,-31,-4,-39,-34,-48,-73,-82
-9,-43,-34,26,12,-39,4,-43,-43,-58,-87,-92
-14,-53,-39,34,12,-46,0,-53,-53,-73,-92,-92
-19,-68,-48,43,14,-58,-4,-63,-63,-82,-102,-102
-19,-68,-48,43,14,-58,-4,-68,-68,-87,-107,-107
-24,-73,-48,48,12,-61,-4,-63,-68,-87,-107,-107
-29,-78,-48,53,9,-63,-4,-68,-68,-92,-112,-112
-29,-78,-48,53,9,-63,-4,-68,-73,-92,-112,-112
-29,-82,-53,56,12,-68,0,-68,-73,-92,-112,-112
-34,-87,-53,61,9,-70,0,-68,-73,-92,-112,-112
-34,-87,-53,61,9,-70,-4,-68,-78,-92,-112,-117
-34,-87,-53,61,9,-70,-9,-68,-82,-97,-112,-122
-34,-87,-53,61,9,-70,-4,-63,-82,-97,-112,-122
-34,-87,-53,61,9,-70,-4,-58,-82,-97,-112,-122
-34,-92,-58,63,12,-75,-4,-58,-78,-97,-117,-117
-34,-92,-58,63,12,-75,-4,-58,-78,-97,-117,-117
-34,-92,-58,63,12,-75,-4,-58,-78,-97,-117,-122
-34,-92,-58,63,12,-75,-9,-58,-78,-102,-117,-122
-34,-97,-63,65,14,-80,-9,-58,-78,-102,-117,-122
-34,-97,-63,65,14,-80,-9,-58,-73,-102,-117,-122
-34,-97,-63,65,14,-80,-4,-58,-73,-97,-112,-117
-34,-97,-63,65,14,-80,-4,-53,-73,-97,-112,-117
-34,-97,-63,65,14,-80,-9,-53,-73,-107,-117,-126
-24,-117,-92,70,34,-104,0,-34,-87,-126,-151,-156
-39,-156,-117,97,39,-136,24,0,-87,-156,-204,-214
-53,-146,-92,100,19,-119,48,53,-58,-141,-204,-224
-53,-73,-19,63,-17,-46,43,92,14,-63,-126,-151
4,48,43,-26,-19,46,19,161,117,82,34,9
122,195,73,-158,24,134,-29,297,229,273,263,229
258,356,97,-307,80,226,-87,424,351,492,536,492
439,541,102,-490,168,322,-219,448,463,727,844,805
566,678,112,-622,226,395,-341,346,517,917,1117,1088
566,712,146,-639,209,429,-380,200,527,941,1171,1161
448,712,263,-580,92,488,-400,63,497,844,1063,1078
244,683,439,-463,-97,561,-370,-63,478,678,829,858
68,590,522,-329,-226,556,-287,-307,370,483,561,570
-53,429,483,-187,-268,456,-244,-522,195,273,292,331
-68,248,317,-90,-192,283,-263,-605,14,92,102,131
-73,112,185,-19,-129,148,-278,-619,-117,-19,-19,-4
-78,9,87,34,-82,48,-253,-536,-185,-97,-107,-92
-78,-19,58,48,-68,19,-200,-375,-165,-112,-122,-107
-48,-68,-19,58,-14,-43,-136,-229,-161,-126,-126,-117
-14,-87,-73,51,29,-80,-102,-151,-141,-126,-131,-122
-14,-92,-78,53,31,-85,-78,-102,-112,-117,-122,-122
-14,-87,-73,51,29,-80,-53,-68,-87,-97,-117,-112
-14,-73,-58,43,21,-65,-34,-39,-73,-78,-97,-102
-9,-58,-48,34,19,-53,-19,-24,-58,-73,-82,-92
-9,-53,-43,31,17,-48,-14,-19,-58,-73,-78,-92
-14,-53,-39,34,12,-46,-9,-19,-58,-73,-78,-92
-29,-58,-29,43,0,-43,-9,-9,-53,-73,-73,-87
-29,-68,-39,48,4,-53,-4,-9,-53,-73,-78,-87
-24,-78,-53,51,14,-65,0,-9,-58,-73,-82,-92
-29,-78,-48,53,9,-63,4,-9,-58,-73,-82,-92
-34,-73,-39,53,2,-56,9,-4,-58,-73,-82,-92
-34,-68,-34,51,0,-51,9,-4,-48,-68,-82,-92
-29,-68,-39,48,4,-53,9,-4,-43,-63,-82,-92
-29,-68,-39,48,4,-53,14,-4,-43,-63,-78,-92
-29,-68,-39,48,4,-53,19,-4,-43,-58,-73,-87
-29,-68,-39,48,4,-53,19,0,-43,-58,-73,-82
-29,-68,-39,48,4,-53,19,0,-43,-58,-73,-78
-29,-68,-39,48,4,-53,19,0,-43,-58,-78,-78
-34,-68,-34,51,0,-51,19,0,-43,-63,-78,-78
-34,-73,-39,53,2,-56,19,0,-43,-63,-78,-78
-29,-73,-43,51,7,-58,24,0,-43,-63,-73,-78
-29,-68,-39,48,4,-53,29,0,-43,-63,-73,-78
-34,-68,-34,51,0,-51,34,0,-43,-63,-73,-78
-34,-68,-34,51,0,-51,34,4,-43,-63,-73,-78
-34,-73,-39,53,2,-56,34,4,-43,-63,-73,-78
-34,-78,-43,56,4,-61,29,4,-43,-63,-73,-78
-34,-78,-43,56,4,-61,19,4,-43,-63,-73,-78
-34,-78,-43,56,4,-61,19,4,-39,-63,-73,-73
-34,-78,-43,56,4,-61,19,4,-39,-63,-73,-73
-29,-78,-48,53,9,-63,19,0,-39,-68,-73,-73
-29,-78,-48,53,9,-63,19,0,-43,-73,-68,-73
-29,-73,-43,51,7,-58,24,0,-48,-68,-68,-73
-24,-73,-48,48,12,-61,24,0,-53,-68,-68,-73
-24,-73,-48,48,12,-61,24,4,-53,-63,-63,-68
-24,-68,-43,46,9,-56,24,4,-48,-58,-58,-58
-19,-68,-48,43,14,-58,24,4,-48,-53,-58,-58
-14,-68,-53,41,19,-61,19,4,-48,-53,-53,-58
-19,-73,-53,46,17,-63,19,9,-48,-53,-58,-58
-24,-78,-53,51,14,-65,19,9,-43,-53,-58,-63
-24,-78,-53,51,14,-65,14,14,-39,-48,-58,-58
-14,-73,-58,43,21,-65,4,19,-34,-43,-58,-58
-4,-63,-58,34,26,-61,4,24,-34,-43,-53,-53
0,-58,-58,29,29,-58,4,34,-29,-39,-48,-48
0,-53,-53,26,26,-53,-4,34,-29,-34,-39,-39
0,-53,-53,26,26,-53,-9,39,-24,-34,-29,-29
14,-48,-63,17,39,-56,-9,53,-24,-24,-19,-29
34,-34,-68,0,51,-51,-9,63,-19,-14,-14,-19
34,-24,-58,-4,46,-41,-19,68,-14,-4,-4,-9
39,-19,-58,-9,48,-39,-29,78,-9,0,4,0
39,-19,-58,-9,48,-39,-34,92,-9,9,9,9
43,-19,-63,-12,53,-41,-39,107,0,14,19,19
53,-9,-63,-21,58,-36,-43,117,14,39,39,34
68,4,-63,-36,65,-29,-53,131,24,48,53,48
87,29,-58,-58,73,-14,-63,146,29,63,73,63
112,43,-68,-78,90,-12,-73,165,34,78,87,78
126,63,-63,-95,95,0,-78,185,48,92,102,107
146,82,-63,-114,104,9,-87,200,63,112,131,131
156,97,-58,-126,107,19,-92,219,78,131,161,146
170,112,-58,-141,114,26,-102,244,92,151,175,161
195,126,-68,-161,131,29,-112,253,107,165,195,190
204,151,-53,-178,129,48,-122,273,131,190,219,219
214,170,-43,-192,129,63,-122,297,141,214,244,239
229,195,-34,-212,131,80,-126,317,161,234,268,258
244,209,-34,-226,139,87,-131,331,175,253,287,278
253,219,-34,-236,143,92,-136,346,185,273,307,292
263,248,-14,-256,139,117,-146,361,200,292,322,312
263,258,-4,-261,134,126,-151,366,214,312,336,326
263,268,4,-265,129,136,-151,366,224,317,346,331
263,283,19,-273,122,151,-151,370,234,326,361,346
263,283,19,-273,122,151,-141,375,244,331,361,351
248,278,29,-263,109,153,-131,375,239,326,361,351
239,268,29,-253,104,148,-122,351,244,326,356,336
219,258,39,-239,90,148,-107,336,244,322,346,331
195,244,48,-219,73,146,-102,317,244,307,326,307
170,234,63,-202,53,148,-87,297,234,283,302,283
151,214,63,-183,43,139,-82,268,209,258,273,253
126,195,68,-161,29,131,-68,244,190,234,244,229
107,180,73,-143,17,126,-58,214,175,200,204,195
87,151,63,-119,12,107,-43,185,161,175,190,170
63,117,53,-90,4,85,-34,161,136,156,156,151
43,92,48,-68,-2,70,-24,131,112,131,122,122
29,78,48,-53,-9,63,-19,102,87,97,97,87
4,48,43,-26,-19,46,-14,87,73,82,78,68
-9,29,39,-9,-24,34,-14,63,58,68,53,39
-14,19,34,-2,-24,26,-9,43,43,53,39,29
-24,0,24,12,-24,12,0,39,39,39,34,19
-29,-9,19,19,-24,4,9,19,29,29,19,9
-43,-19,24,31,-34,2,14,14,19,19,9,0
-53,-29,24,41,-39,-2,19,0,9,9,0,-9
-58,-39,19,48,-39,-9,14,-9,0,-4,-9,-19
-63,-48,14,56,-39,-17,9,-19,0,-19,-19,-24
-63,-53,9,58,-36,-21,14,-19,-4,-19,-29,-34
-73,-58,14,65,-43,-21,19,-19,-9,-19,-34,-43
-73,-63,9,68,-41,-26,19,-29,-14,-29,-39,-48
-73,-68,4,70,-39,-31,19,-29,-14,-34,-43,-48
-73,-78,-4,75,-34,-41,19,-29,-24,-34,-43,-53
-73,-82,-9,78,-31,-46,19,-39,-29,-34,-53,-58
-73,-82,-9,78,-31,-46,24,-39,-29,-39,-53,-58
-73,-82,-9,78,-31,-46,29,-39,-34,-39,-53,-58
-82,-78,4,80,-43,-36,29,-39,-34,-39,-53,-58
-102,-78,24,90,-63,-26,29,-39,-34,-39,-53,-58
-92,-82,9,87,-51,-36,29,-39,-39,-43,-53,-58
-87,-82,4,85,-46,-39,29,-39,-39,-43,-53,-58
-87,-87,0,87,-43,-43,29,-39,-34,-43,-53,-58
-87,-87,0,87,-43,-43,29,-34,-34,-48,-58,-63
-87,-92,-4,90,-41,-48,34,-34,-34,-48,-58,-63
-82,-92,-9,87,-36,-51,34,-34,-34,-48,-58,-63
-82,-87,-4,85,-39,-46,29,-43,-34,-48,-58,-63
-82,-82,0,82,-41,-41,24,-48,-34,-48,-58,-63
-82,-87,-4,85,-39,-46,24,-43,-34,-43,-58,-58
-82,-87,-4,85,-39,-46,24,-43,-34,-39,-58,-53
-82,-87,-4,85,-39,-46,24,-43,-29,-39,-58,-58
-78,-82,-4,80,-36,-43,24,-43,-24,-39,-63,-58
-78,-78,0,78,-39,-39,24,-43,-24,-39,-63,-48
-73,-78,-4,75,-34,-41,19,-43,-19,-39,-58,-43
-78,-78,0,78,-39,-39,14,-39,-19,-39,-53,-43
-82,-78,4,80,-43,-36,9,-39,-19,-39,-48,-43
-78,-78,0,78,-39,-39,9,-39,-19,-34,-43,-39
-73,-78,-4,75,-34,-41,9,-39,-19,-34,-39,-34
-73,-68,4,70,-39,-31,9,-34,-24,-29,-34,-29
-73,-63,9,68,-41,-26,9,-29,-29,-24,-34,-29
-68,-63,4,65,-36,-29,9,-29,-24,-24,-29,-29
-63,-63,0,63,-31,-31,9,-29,-24,-24,-29,-29
-58,-53,4,56,-31,-24,9,-29,-24,-24,-29,-29
-58,-48,9,53,-34,-19,9,-29,-24,-19,-29,-29
-58,-48,9,53,-34,-19,9,-29,-24,-19,-24,-24
-53,-43,9,48,-31,-17,9,-29,-24,-19,-24,-19
-48,-39,9,43,-29,-14,9,-29,-24,-19,-19,-14
-48,-39,9,43,-29,-14,9,-24,-24,-19,-19,-14
-53,-43,9,48,-31,-17,9,-24,-24,-19,-19,-14
-53,-48,4,51,-29,-21,9,-24,-24,-19,-19,-14
-53,-48,4,51,-29,-21,9,-29,-24,-19,-19,-19
-58,-53,4,56,-31,-24,9,-29,-24,-19,-19,-19
-58,-58,0,58,-29,-29,4,-29,-24,-19,-24,-19
-58,-58,0,58,-29,-29,4,-34,-24,-24,-29,-24
-58,-58,0,58,-29,-29,4,-34,-24,-24,-29,-24
-58,-58,0,58,-29,-29,9,-34,-24,-24,-29,-24
-58,-58,0,58,-29,-29,9,-34,-24,-19,-29,-24
-58,-68,-9,63,-24,-39,9,-34,-24,-19,-29,-24
-58,-73,-14,65,-21,-43,14,-34,-24,-19,-29,-29
-63,-73,-9,68,-26,-41,19,-29,-29,-19,-29,-29
-58,-68,-9,63,-24,-39,19,-29,-29,-19,-29,-29
-58,-68,-9,63,-24,-39,19,-34,-29,-19,-29,-29
-63,-68,-4,65,-29,-36,19,-34,-24,-19,-29,-29
-68,-73,-4,70,-31,-39,19,-34,-24,-19,-34,-29
-68,-73,-4,70,-31,-39,19,-29,-24,-24,-34,-29
-68,-73,-4,70,-31,-39,19,-29,-24,-29,-34,-34
-63,-73,-9,68,-26,-41,19,-34,-29,-34,-29,-34
-68,-78,-9,73,-29,-43,19,-34,-29,-34,-24,-34
-68,-78,-9,73,-29,-43,14,-34,-34,-34,-29,-34
-68,-78,-9,73,-29,-43,14,-39,-34,-34,-29,-34
-68,-78,-9,73,-29,-43,19,-39,-34,-39,-29,-34
-63,-78,-14,70,-24,-46,19,-43,-34,-39,-29,-34
-63,-78,-14,70,-24,-46,14,-48,-39,-39,-34,-34
-68,-78,-9,73,-29,-43,14,-48,-39,-39,-39,-34
-68,-78,-9,73,-29,-43,19,-48,-39,-39,-43,-34
-68,-78,-9,73,-29,-43,19,-48,-39,-39,-48,-34
-68,-78,-9,73,-29,-43,19,-43,-43,-39,-48,-34
-68,-78,-9,73,-29,-43,19,-39,-43,-39,-48,-39
-68,-82,-14,75,-26,-48,19,-39,-43,-39,-48,-39
-68,-82,-14,75,-26,-48,19,-39,-43,-39,-48,-39
-73,-82,-9,78,-31,-46,19,-43,-43,-39,-48,-39
-73,-82,-9,78,-31,-46,19,-43,-43,-39,-48,-39
-73,-78,-4,75,-34,-41,19,-43,-43,-39,-48,-39
-73,-78,-4,75,-34,-41,19,-43,-39,-39,-43,-39
-73,-78,-4,75,-34,-41,19,-43,-39,-39,-43,-39
-73,-82,-9,78,-31,-46,19,-43,-39,-39,-43,-43
-73,-82,-9,78,-31,-46,19,-43,-39,-39,-39,-39
-78,-87,-9,82,-34,-48,19,-48,-39,-39,-39,-39
-78,-87,-9,82,-34,-48,19,-48,-39,-39,-39,-39
-78,-87,-9,82,-34,-48,19,-48,-39,-39,-39,-39
-78,-87,-9,82,-34,-48,19,-48,-39,-39,-39,-39
-78,-87,-9,82,-34,-48,19,-48,-39,-39,-39,-39
-78,-87,-9,82,-34,-48,14,-48,-39,-39,-39,-39
-78,-87,-9,82,-34,-48,9,-48,-39,-39,-39,-39
-78,-87,-9,82,-34,-48,9,-48,-39,-39,-39,-39
-78,-87,-9,82,-34,-48,9,-48,-39,-39,-39,-39
-78,-87,-9,82,-34,-48,9,-48,-39,-39,-39,-39
-78,-87,-9,82,-34,-48,9,-48,-39,-39,-39,-39
-78,-87,-9,82,-34,-48,9,-48,-39,-39,-39,-39
-78,-87,-9,82,-34,-48,9,-48,-39,-39,-39,-39
-78,-87,-9,82,-34,-48,14,-48,-39,-39,-39,-39
-78,-87,-9,82,-34,-48,19,-48,-39,-39,-39,-39
-78,-87,-9,82,-34,-48,19,-48,-39,-39,-39,-39
-78,-87,-9,82,-34,-48,19,-48,-39,-39,-39,-39
-78,-87,-9,82,-34,-48,19,-48,-39,-43,-39,-39
-78,-87,-9,82,-34,-48,19,-48,-39,-48,-39,-39
-78,-87,-9,82,-34,-48,19,-48,-39,-48,-39,-39
-78,-87,-9,82,-34,-48,19,-48,-39,-48,-39,-39
-78,-87,-9,82,-34,-48,19,-48,-39,-48,-43,-39
-78,-87,-9,82,-34,-48,19,-48,-39,-48,-48,-39
-78,-87,-9,82,-34,-48,19,-48,-39,-48,-48,-39
-78,-87,-9,82,-34,-48,19,-48,-39,-48,-48,-39
-73,-87,-14,80,-29,-51,19,-48,-39,-48,-43,-39
-68,-87,-19,78,-24,-53,19,-48,-39,-48,-39,-39
-68,-87,-19,78,-24,-53,19,-48,-39,-48,-39,-39
-68,-87,-19,78,-24,-53,19,-48,-39,-48,-39,-39
-73,-87,-14,80,-29,-51,19,-53,-39,-48,-39,-39
-78,-87,-9,82,-34,-48,19,-58,-39,-48,-39,-39
-78,-87,-9,82,-34,-48,19,-58,-39,-48,-39,-39
-78,-87,-9,82,-34,-48,19,-58,-39,-48,-39,-39
-78,-87,-9,82,-34,-48,19,-58,-39,-48,-39,-39
-78,-87,-9,82,-34,-48,19,-58,-39,-48,-39,-39
-78,-87,-9,82,-34,-48,19,-53,-39,-48,-39,-39
-78,-87,-9,82,-34,-48,19,-48,-39,-48,-39,-39
-68,-87,-19,78,-24,-53,14,-48,-39,-48,-39,-39
-58,-87,-29,73,-14,-58,9,-48,-39,-48,-39,-39
-58,-82,-24,70,-17,-53,9,-48,-39,-48,-39,-39
-58,-78,-19,68,-19,-48,9,-48,-39,-48,-39,-39
-58,-78,-19,68,-19,-48,9,-53,-43,-48,-43,-39
-58,-78,-19,68,-19,-48,9,-58,-48,-48,-48,-39
-73,-87,-14,80,-29,-51,9,-58,-48,-48,-48,-39
-87,-97,-9,92,-39,-53,9,-58,-48,-48,-48,-39
-87,-97,-9,92,-39,-53,9,-58,-48,-48,-48,-39
-87,-97,-9,92,-39,-53,9,-58,-48,-48,-48,-39
-82,-97,-14,90,-34,-56,14,-53,-43,-48,-48,-39
-78,-97,-19,87,-29,-58,19,-48,-39,-48,-48,-39
-78,-87,-9,82,-34,-48,19,-48,-39,-48,-48,-39
-78,-78,0,78,-39,-39,19,-48,-39,-48,-48,-39
-78,-78,0,78,-39,-39,19,-53,-39,-48,-48,-39
-78,-78,0,78,-39,-39,19,-58,-39,-48,-48,-39
-78,-82,-4,80,-36,-43,19,-58,-43,-48,-48,-39
-78,-87,-9,82,-34,-48,19,-58,-48,-48,-48,-39
-78,-87,-9,82,-34,-48,19,-53,-48,-48,-48,-34
-78,-87,-9,82,-34,-48,19,-48,-48,-48,-48,-29
-78,-82,-4,80,-36,-43,19,-48,-48,-48,-48,-29
-78,-78,0,78,-39,-39,19,-48,-48,-48,-48,-29
-78,-78,0,78,-39,-39,19,-48,-48,-48,-48,-34
-78,-78,0,78,-39,-39,19,-48,-48,-48,-48,-39
-78,-78,0,78,-39,-39,14,-48,-43,-48,-48,-39
-78,-78,0,78,-39,-39,9,-48,-39,-48,-48,-39
-78,-78,0,78,-39,-39,9,-48,-39,-48,-48,-39
-78,-78,0,78,-39,-39,9,-48,-39,-48,-48,-39
-78,-78,0,78,-39,-39,9,-48,-39,-48,-48,-39
-78,-78,0,78,-39,-39,9,-48,-39,-48,-48,-39
-73,-78,-4,75,-34,-41,9,-48,-39,-48,-48,-34
-68,-78,-9,73,-29,-43,9,-48,-39,-48,-48,-29
-68,-78,-9,73,-29,-43,14,-48,-39,-43,-43,-29
-68,-78,-9,73,-29,-43,19,-48,-39,-39,-39,-29
-68,-78,-9,73,-29,-43,19,-48,-39,-39,-39,-34
-68,-78,-9,73,-29,-43,19,-48,-39,-39,-39,-39
-68,-78,-9,73,-29,-43,14,-48,-39,-39,-39,-39
-68,-78,-9,73,-29,-43,9,-48,-39,-39,-39,-39
-73,-78,-4,75,-34,-41,9,-48,-39,-39,-39,-34
-78,-78,0,78,-39,-39,9,-48,-39,-39,-39,-29
-78,-78,0,78,-39,-39,9,-48,-39,-39,-39,-29
-78,-78,0,78,-39,-39,9,-48,-39,-39,-39,-29
-73,-73,0,73,-36,-36,9,-53,-39,-43,-43,-34
-68,-68,0,68,-34,-34,9,-58,-39,-48,-48,-39
-68,-68,0,68,-34,-34,9,-58,-39,-48,-48,-39
-68,-68,0,68,-34,-34,9,-58,-39,-48,-48,-39
-68,-73,-4,70,-31,-39,9,-58,-43,-48,-48,-39
-68,-78,-9,73,-29,-43,9,-58,-48,-48,-48,-39
-68,-78,-9,73,-29,-43,9,-58,-48,-48,-48,-39
-68,-78,-9,73,-29,-43,9,-58,-48,-48,-48,-39
-68,-73,-4,70,-31,-39,14,-53,-43,-48,-48,-39
-68,-68,0,68,-34,-34,19,-48,-39,-48,-48,-39
-68,-68,0,68,-34,-34,19,-48,-39,-43,-43,-39
-68,-68,0,68,-34,-34,19,-48,-39,-39,-39,-39
-68,-73,-4,70,-31,-39,14,-53,-43,-39,-39,-39
-68,-78,-9,73,-29,-43,9,-58,-48,-39,-39,-39
-68,-78,-9,73,-29,-43,9,-58,-48,-43,-39,-39
-68,-78,-9,73,-29,-43,9,-58,-48,-48,-39,-39
-68,-78,-9,73,-29,-43,9,-58,-43,-48,-39,-39
-68,-78,-9,73,-29,-43,9,-58,-39,-48,-39,-39
-68,-68,0,68,-34,-34,14,-53,-39,-43,-39,-34
-68,-58,9,63,-39,-24,19,-48,-39,-39,-39,-29
-63,-48,14,56,-39,-17,29,-39,-34,-34,-39,-24
-53,-29,24,41,-39,-2,43,-29,-24,-29,-29,-14
-48,-14,34,31,-41,9,58,-19,-14,-24,-24,-9
-48,-9,39,29,-43,14,63,-9,0,-14,-19,-4
-43,4,48,19,-46,26,68,4,4,-9,-9,-4
-39,19,58,9,-48,39,92,14,14,-9,-4,0
-29,24,53,2,-41,39,102,29,24,4,0,9
-24,43,68,-9,-46,56,107,34,34,14,4,24
-14,53,68,-19,-41,61,97,34,39,14,14,24
-14,73,87,-29,-51,80,78,24,43,24,34,34
-14,82,97,-34,-56,90,43,9,48,34,39,43
-14,87,102,-36,-58,95,19,9,48,34,48,43
-9,78,87,-34,-48,82,-4,9,48,43,43,39
-4,68,73,-31,-39,70,-34,9,43,39,43,43
4,68,63,-36,-29,65,-43,9,43,39,43,43
14,48,34,-31,-9,41,-53,9,29,34,39,43
19,34,14,-26,2,24,-63,-4,19,24,34,34
24,29,4,-26,9,17,-63,-9,9,14,29,29
19,19,0,-19,9,9,-43,-14,0,9,24,29
14,14,0,-14,7,7,-24,-19,-4,4,9,24
-14,-19,-4,17,-4,-12,-29,-29,-14,-9,-4,4
-39,-34,4,36,-21,-14,-34,-34,-24,-19,-19,-4
-48,-48,0,48,-24,-24,-29,-43,-34,-34,-29,-14
-58,-68,-9,63,-24,-39,-24,-53,-43,-43,-43,-34
-58,-73,-14,65,-21,-43,-24,-63,-53,-48,-53,-39
-63,-82,-19,73,-21,-51,-24,-63,-58,-48,-58,-39
-68,-87,-19,78,-24,-53,-24,-68,-58,-53,-58,-39
-68,-87,-19,78,-24,-53,-24,-68,-63,-53,-53,-34
-58,-87,-29,73,-14,-58,-19,-68,-63,-53,-53,-34
-53,-87,-34,70,-9,-61,-19,-68,-63,-53,-53,-34
-63,-87,-24,75,-19,-56,-19,-68,-63,-53,-53,-39
-73,-87,-14,80,-29,-51,-19,-68,-63,-58,-53,-43
-73,-87,-14,80,-29,-51,-14,-68,-68,-63,-53,-53
-73,-87,-14,80,-29,-51,-14,-68,-73,-68,-53,-63
-73,-92,-19,82,-26,-56,-14,-68,-73,-68,-58,-58
-73,-92,-19,82,-26,-56,-14,-68,-78,-68,-58,-58
-68,-87,-19,78,-24,-53,-14,-68,-73,-68,-58,-58
-63,-82,-19,73,-21,-51,-19,-68,-68,-73,-58,-53
-63,-87,-24,75,-19,-56,-19,-68,-68,-73,-58,-53
-63,-87,-24,75,-19,-56,-19,-68,-63,-73,-58,-53
-63,-87,-24,75,-19,-56,-14,-68,-63,-68,-58,-48
-63,-87,-24,75,-19,-56,-14,-63,-63,-68,-63,-48
-63,-87,-24,75,-19,-56,-9,-63,-63,-78,-68,-58
-53,-107,-53,80,0,-80,9,-43,-78,-97,-102,-87
-68,-136,-68,102,0,-102,34,-9,-78,-126,-146,-141
-82,-117,-34,100,-24,-75,58,43,-48,-112,-136,-146
-78,-48,29,63,-53,-9,58,92,24,-34,-63,-78
-14,68,82,-26,-48,75,39,170,126,112,92,78
131,214,82,-173,24,148,-19,312,239,283,287,263
297,375,78,-336,109,226,-87,444,361,483,527,492
497,551,53,-524,222,302,-234,463,468,707,819,790
644,678,34,-661,305,356,-370,356,517,888,1078,1058
624,707,82,-666,270,395,-434,180,507,912,1146,1151
488,702,214,-595,136,458,-478,14,458,814,1054,1088
273,644,370,-458,-48,507,-448,-112,400,634,829,883
87,522,434,-305,-173,478,-366,-356,253,424,570,610
-29,346,375,-158,-202,361,-322,-551,78,209,292,361
-39,151,190,-56,-114,170,-341,-614,-102,24,92,151
-53,43,97,4,-75,70,-312,-600,-190,-63,-9,34
-68,-29,39,48,-53,4,-244,-488,-214,-117,-78,-34
-68,-24,43,46,-56,9,-180,-336,-170,-107,-82,-48
-39,-39,0,39,-19,-19,-107,-200,-141,-97,-78,-58
-9,-53,-43,31,17,-48,-73,-126,-122,-92,-78,-58
-14,-53,-39,34,12,-46,-48,-82,-92,-78,-63,-53
-14,-48,-34,31,9,-41,-29,-53,-68,-58,-58,-43
-14,-34,-19,24,2,-26,-14,-29,-53,-39,-39,-34
-9,-24,-14,17,2,-19,0,-19,-39,-34,-29,-24
-9,-24,-14,17,2,-19,4,-19,-39,-34,-29,-24
-14,-24,-9,19,-2,-17,9,-19,-39,-34,-29,-24
-29,-29,0,29,-14,-14,9,-9,-34,-34,-24,-19
-29,-34,-4,31,-12,-19,14,-4,-34,-34,-24,-19
-24,-39,-14,31,-4,-26,19,0,-39,-34,-24,-24
-24,-39,-14,31,-4,-26,24,0,-39,-34,-24,-24
-24,-34,-9,29,-7,-21,29,4,-39,-34,-24,-24
-24,-29,-4,26,-9,-17,29,4,-34,-39,-24,-24
-19,-29,-9,24,-4,-19,29,4,-34,-43,-24,-24
-19,-29,-9,24,-4,-19,34,4,-34,-43,-29,-24
-19,-29,-9,24,-4,-19,39,4,-34,-39,-34,-19
-19,-29,-9,24,-4,-19,43,9,-34,-39,-34,-19
-19,-29,-9,24,-4,-19,48,9,-34,-39,-34,-19
-19,-29,-9,24,-4,-19,48,9,-34,-39,-39,-24
-24,-29,-4,26,-9,-17,48,9,-34,-43,-39,-29
-24,-34,-9,29,-7,-21,48,9,-34,-43,-39,-29
-19,-34,-14,26,-2,-24,53,9,-34,-43,-34,-29
-9,-29,-19,19,4,-24,53,9,-34,-43,-34,-29
-4,-29,-24,17,9,-26,53,9,-34,-43,-34,-29
-4,-24,-19,14,7,-21,53,14,-34,-43,-34,-24
-4,-24,-19,14,7,-21,53,14,-34,-43,-34,-19
-4,-24,-19,14,7,-21,53,19,-34,-43,-34,-19
-4,-19,-14,12,4,-17,48,24,-34,-43,-34,-19
-4,-24,-19,14,7,-21,48,24,-29,-43,-34,-19
-4,-29,-24,17,9,-26,48,24,-29,-43,-34,-24
0,-29,-29,14,14,-29,48,19,-29,-48,-34,-24
0,-29,-29,14,14,-29,48,19,-34,-53,-29,-24
0,-24,-24,12,12,-24,48,19,-29,-48,-29,-24
4,-24,-29,9,17,-26,43,19,-24,-48,-29,-24
4,-24,-29,9,17,-26,43,24,-24,-43,-29,-24
4,-19,-24,7,14,-21,43,24,-19,-39,-29,-19
9,-19,-29,4,19,-24,43,29,-19,-34,-34,-19
14,-19,-34,2,24,-26,39,34,-19,-34,-34,-19
14,-14,-29,0,21,-21,39,39,-24,-34,-34,-14
14,-9,-24,-2,19,-17,39,39,-24,-34,-29,-14
14,-9,-24,-2,19,-17,39,43,-24,-29,-29,-9
24,-4,-29,-9,26,-17,34,48,-24,-24,-29,-9
34,0,-34,-17,34,-17,34,53,-24,-24,-24,-4
39,0,-39,-19,39,-19,34,63,-19,-19,-19,0
39,4,-34,-21,36,-14,24,63,-19,-14,-14,4
39,4,-34,-21,36,-14,19,68,-14,-14,-9,9
43,4,-39,-24,41,-17,19,78,-14,-9,0,4
53,14,-39,-34,46,-12,19,82,-9,-4,4,9
63,24,-39,-43,51,-7,9,87,-4,4,14,14
78,29,-48,-53,63,-9,0,97,0,9,24,19
82,34,-48,-58,65,-7,-4,112,4,19,29,29
92,39,-53,-65,73,-7,-9,126,19,24,39,39
112,48,-63,-80,87,-7,-14,141,34,48,58,53
136,63,-73,-100,104,-4,-24,161,43,58,73,68
156,87,-68,-122,112,9,-34,175,48,68,87,78
180,102,-78,-141,129,12,-43,195,53,78,97,87
190,122,-68,-156,129,26,-48,214,68,92,107,117
204,141,-63,-173,134,39,-58,229,82,112,131,141
214,156,-58,-185,136,48,-68,248,92,131,161,161
229,170,-58,-200,143,56,-82,273,102,151,175,180
258,190,-68,-224,163,61,-97,283,117,170,200,204
273,219,-53,-246,163,82,-112,302,141,200,229,229
283,239,-43,-261,163,97,-117,322,151,224,253,248
297,263,-34,-280,165,114,-126,336,170,244,278,268
312,278,-34,-295,173,122,-131,351,190,263,302,297
322,287,-34,-305,178,126,-136,366,204,283,326,322
331,317,-14,-324,173,151,-141,380,219,302,341,341
331,326,-4,-329,168,161,-141,385,234,322,356,356
331,336,4,-334,163,170,-141,390,248,331,370,366
331,351,19,-341,156,185,-141,400,263,346,390,385
331,356,24,-344,153,190,-136,405,278,361,390,390
317,356,39,-336,139,197,-131,405,278,366,390,390
312,356,43,-334,134,200,-122,380,273,356,390,380
297,356,58,-326,119,207,-107,366,263,341,385,380
273,341,68,-307,102,204,-97,346,263,326,366,356
248,331,82,-290,82,207,-78,326,253,302,341,331
229,307,78,-268,75,192,-73,292,234,278,307,302
204,283,78,-244,63,180,-58,263,219,253,273,278
170,253,82,-212,43,168,-48,234,200,219,234,239
136,209,73,-173,31,141,-34,204,180,195,219,209
117,185,68,-151,24,126,-24,175,156,175,185,185
102,170,68,-136,17,119,-14,141,131,151,151,151
87,156,68,-122,9,112,-4,112,112,117,131,117
63,126,63,-95,0,95,4,97,102,102,117,97
48,107,58,-78,-4,82,4,73,87,87,78,68
43,97,53,-70,-4,75,9,53,73,73,48,58
34,78,43,-56,-4,61,14,43,63,53,43,43
29,68,39,-48,-4,53,19,19,48,39,29,29
19,58,39,-39,-9,48,24,19,39,29,19,19
14,48,34,-31,-9,41,29,9,29,19,9,9
9,39,29,-24,-9,34,29,0,19,4,0,0
4,29,24,-17,-9,26,29,-9,19,-9,-9,-4
0,19,19,-9,-9,19,34,-9,14,-9,-14,-9
-14,9,24,2,-19,17,39,-9,9,-9,-14,-14
-19,4,24,7,-21,14,39,-19,0,-19,-24,-24
-24,0,24,12,-24,12,39,-19,-4,-24,-34,-29
-24,-4,19,14,-21,7,34,-19,-9,-24,-34,-34
-24,-4,19,14,-21,7,29,-29,-9,-24,-43,-39
-24,-4,19,14,-21,7,29,-34,-9,-29,-43,-39
-24,-4,19,14,-21,7,29,-39,-14,-29,-43,-39
-19,-4,14,12,-17,4,29,-39,-14,-29,-43,-39
-24,-9,14,17,-19,2,29,-39,-14,-29,-43,-39
-24,-14,9,19,-17,-2,29,-39,-19,-34,-48,-43
-29,-14,14,21,-21,0,29,-39,-19,-34,-53,-48
-29,-19,9,24,-19,-4,29,-43,-19,-34,-53,-48
-29,-19,9,24,-19,-4,29,-43,-24,-39,-58,-53
-29,-19,9,24,-19,-4,34,-43,-24,-39,-58,-53
-24,-14,9,19,-17,-2,34,-43,-24,-39,-58,-53
-24,-14,9,19,-17,-2,34,-48,-24,-39,-58,-53
-24,-14,9,19,-17,-2,34,-48,-24,-39,-58,-53
-29,-19,9,24,-19,-4,34,-43,-19,-39,-58,-53
-34,-19,14,26,-24,-2,34,-43,-14,-39,-58,-53
-34,-19,14,26,-24,-2,34,-43,-14,-39,-53,-58
-29,-14,14,21,-21,0,34,-43,-14,-39,-53,-58
-29,-9,19,19,-24,4,34,-39,-14,-39,-53,-53
-24,-9,14,17,-19,2,29,-34,-9,-39,-48,-53
-24,-14,9,19,-17,-2,29,-29,-9,-39,-48,-53
-24,-19,4,21,-14,-7,29,-29,-9,-39,-48,-53
-29,-24,4,26,-17,-9,29,-34,-9,-34,-53,-53
-34,-29,4,31,-19,-12,29,-39,-9,-34,-58,-53
-34,-24,9,29,-21,-7,34,-39,-9,-34,-53,-48
-34,-24,9,29,-21,-7,39,-39,-9,-34,-53,-48
-29,-24,4,26,-17,-9,39,-34,-9,-34,-53,-48
-24,-24,0,24,-12,-12,39,-29,-14,-34,-58,-48
-24,-24,0,24,-12,-12,39,-29,-14,-34,-58,-48
-29,-29,0,29,-14,-14,39,-29,-14,-29,-58,-48
-29,-29,0,29,-14,-14,39,-29,-9,-29,-53,-48
-24,-24,0,24,-12,-12,39,-29,-4,-29,-53,-48
-19,-19,0,19,-9,-9,39,-29,-4,-29,-48,-48
-19,-19,0,19,-9,-9,39,-24,-4,-29,-48,-53
-19,-19,0,19,-9,-9,39,-24,-4,-29,-48,-53
-14,-19,-4,17,-4,-12,39,-24,-4,-29,-48,-53
-9,-9,0,9,-4,-4,39,-24,-4,-29,-48,-58
-9,-4,4,7,-7,0,39,-19,-4,-29,-48,-58
-9,-9,0,9,-4,-4,34,-19,-4,-29,-48,-53
-9,-9,0,9,-4,-4,34,-24,-4,-34,-48,-53
-19,-24,-4,21,-7,-14,34,-24,-9,-39,-53,-53
-29,-39,-9,34,-9,-24,39,-24,-14,-43,-58,-53
-29,-29,0,29,-14,-14,39,-29,-14,-39,-58,-53
-29,-29,0,29,-14,-14,39,-34,-14,-39,-58,-53
-24,-29,-4,26,-9,-17,39,-34,-9,-39,-53,-58
-24,-24,0,24,-12,-12,39,-29,-9,-39,-48,-58
-19,-24,-4,21,-7,-14,39,-29,-9,-39,-48,-58
-19,-29,-9,24,-4,-19,39,-34,-9,-39,-48,-58
-19,-29,-9,24,-4,-19,39,-34,-4,-39,-48,-58
-19,-34,-14,26,-2,-24,39,-34,-4,-39,-53,-58
-19,-29,-9,24,-4,-19,39,-29,-4,-39,-53,-58
-19,-24,-4,21,-7,-14,39,-29,-4,-39,-53,-63
-19,-24,-4,21,-7,-14,34,-34,-9,-43,-53,-63
-29,-29,0,29,-14,-14,29,-34,-9,-43,-53,-63
-29,-29,0,29,-14,-14,24,-34,-19,-43,-58,-63
-29,-29,0,29,-14,-14,24,-39,-24,-43,-58,-63
-29,-29,0,29,-14,-14,34,-39,-24,-48,-58,-63
-24,-29,-4,26,-9,-17,39,-43,-24,-48,-58,-63
-24,-34,-9,29,-7,-21,34,-43,-24,-48,-58,-63
-29,-39,-9,34,-9,-24,34,-39,-19,-48,-58,-63
-29,-39,-9,34,-9,-24,39,-39,-19,-48,-58,-63
-29,-39,-9,34,-9,-24,39,-39,-19,-48,-58,-63
-34,-39,-4,36,-14,-21,39,-39,-24,-48,-63,-63
-39,-39,0,39,-19,-19,39,-39,-24,-48,-68,-68
-39,-43,-4,41,-17,-24,39,-39,-24,-48,-68,-73
-39,-43,-4,41,-17,-24,39,-39,-24,-48,-68,-78
-39,-43,-4,41,-17,-24,39,-43,-24,-48,-68,-78
-34,-43,-9,39,-12,-26,39,-43,-24,-48,-68,-78
-34,-39,-4,36,-14,-21,34,-43,-29,-48,-73,-78
-34,-39,-4,36,-14,-21,29,-43,-29,-48,-73,-78
-34,-39,-4,36,-14,-21,29,-48,-29,-48,-68,-78
-34,-43,-9,39,-12,-26,29,-53,-29,-48,-63,-82
-34,-43,-9,39,-12,-26,34,-48,-29,-48,-63,-78
-39,-48,-9,43,-14,-29,39,-48,-29,-48,-68,-78
-39,-53,-14,46,-12,-34,39,-48,-29,-48,-68,-78
-39,-58,-19,48,-9,-39,39,-48,-29,-48,-68,-78
-39,-58,-19,48,-9,-39,39,-48,-29,-53,-68,-78
-39,-58,-19,48,-9,-39,39,-48,-29,-58,-68,-78
-39,-53,-14,46,-12,-34,34,-48,-29,-58,-68,-78
-39,-48,-9,43,-14,-29,29,-48,-29,-58,-68,-78
-39,-48,-9,43,-14,-29,29,-48,-29,-58,-68,-78
-39,-48,-9,43,-14,-29,29,-48,-29,-58,-68,-78
-39,-53,-14,46,-12,-34,29,-48,-29,-58,-68,-78
-39,-58,-19,48,-9,-39,29,-48,-29,-58,-68,-78
-39,-58,-19,48,-9,-39,29,-48,-29,-58,-73,-78
-39,-58,-19,48,-9,-39,29,-48,-29,-58,-78,-78
-39,-58,-19,48,-9,-39,29,-48,-29,-58,-78,-78
-39,-58,-19,48,-9,-39,29,-48,-29,-58,-78,-78
-39,-58,-19,48,-9,-39,29,-48,-29,-58,-78,-78
-39,-58,-19,48,-9,-39,29,-48,-29,-58,-78,-78
-39,-58,-19,48,-9,-39,29,-48,-29,-58,-78,-78
-39,-58,-19,48,-9,-39,29,-48,-29,-58,-78,-78
-39,-58,-19,48,-9,-39,29,-48,-29,-58,-78,-78
-39,-58,-19,48,-9,-39,29,-48,-29,-58,-78,-78
-43,-58,-14,51,-14,-36,29,-53,-29,-58,-78,-78
-48,-58,-9,53,-19,-34,29,-58,-29,-58,-78,-78
-53,-63,-9,58,-21,-36,29,-58,-29,-58,-78,-82
-58,-68,-9,63,-24,-39,29,-58,-29,-58,-78,-87
-58,-68,-9,63,-24,-39,29,-58,-29,-58,-82,-87
-58,-68,-9,63,-24,-39,29,-58,-29,-58,-87,-87
-53,-68,-14,61,-19,-41,29,-58,-29,-63,-87,-87
-48,-68,-19,58,-14,-43,29,-58,-29,-68,-87,-87
-48,-68,-19,58,-14,-43,29,-58,-29,-68,-87,-87
-48,-68,-19,58,-14,-43,29,-58,-29,-68,-87,-87
-53,-73,-19,63,-17,-46,29,-58,-29,-68,-87,-87
-58,-78,-19,68,-19,-48,29,-58,-29,-68,-87,-87
-58,-78,-19,68,-19,-48,29,-58,-29,-68,-87,-87
-58,-78,-19,68,-19,-48,29,-58,-29,-68,-87,-87
-63,-78,-14,70,-24,-46,29,-58,-34,-68,-87,-87
-68,-78,-9,73,-29,-43,29,-58,-39,-68,-87,-87
-68,-78,-9,73,-29,-43,29,-58,-39,-68,-87,-92
-68,-78,-9,73,-29,-43,29,-58,-39,-68,-87,-97
-63,-78,-14,70,-24,-46,29,-58,-39,-68,-87,-97
-58,-78,-19,68,-19,-48,29,-58,-39,-68,-87,-97
-58,-82,-24,70,-17,-53,29,-58,-39,-68,-87,-97
-58,-87,-29,73,-14,-58,29,-58,-39,-68,-87,-97
-63,-87,-24,75,-19,-56,29,-58,-39,-68,-87,-97
-68,-87,-19,78,-24,-53,29,-58,-39,-68,-87,-97
-68,-87,-19,78,-24,-53,29,-58,-39,-68,-87,-97
-68,-87,-19,78,-24,-53,29,-58,-39,-68,-87,-97
-68,-87,-19,78,-24,-53,29,-58,-39,-68,-92,-97
-68,-87,-19,78,-24,-53,29,-58,-39,-68,-97,-97
-68,-87,-19,78,-24,-53,29,-58,-39,-68,-97,-97
-68,-87,-19,78,-24,-53,29,-58,-39,-68,-97,-97
-68,-87,-19,78,-24,-53,34,-58,-39,-68,-97,-97
-68,-87,-19,78,-24,-53,39,-58,-39,-68,-97,-97
-68,-87,-19,78,-24,-53,39,-58,-39,-68,-97,-97
-68,-87,-19,78,-24,-53,39,-58,-39,-68,-97,-97
-68,-87,-19,78,-24,-53,39,-58,-43,-68,-97,-102
-68,-87,-19,78,-24,-53,39,-58,-48,-68,-97,-107
-68,-87,-19,78,-24,-53,39,-58,-48,-73,-97,-107
-68,-87,-19,78,-24,-53,39,-58,-48,-78,-97,-107
-68,-87,-19,78,-24,-53,34,-58,-48,-78,-97,-107
-68,-87,-19,78,-24,-53,29,-58,-48,-78,-97,-107
-73,-97,-24,85,-24,-61,29,-63,-48,-78,-97,-107
-78,-107,-29,92,-24,-68,29,-68,-48,-78,-97,-107
-78,-107,-29,92,-24,-68,29,-68,-48,-78,-97,-107
-78,-107,-29,92,-24,-68,29,-68,-48,-78,-97,-107
-78,-102,-24,90,-26,-63,29,-63,-48,-78,-97,-107
-78,-97,-19,87,-29,-58,29,-58,-48,-78,-97,-107
-78,-97,-19,87,-29,-58,29,-58,-48,-78,-97,-107
-78,-97,-19,87,-29,-58,29,-58,-48,-78,-97,-107
-78,-102,-24,90,-26,-63,34,-58,-48,-78,-97,-107
-78,-107,-29,92,-24,-68,39,-58,-48,-78,-97,-107
-82,-112,-29,97,-26,-70,39,-58,-48,-78,-97,-107
-87,-117,-29,102,-29,-73,39,-58,-48,-78,-97,-107
-87,-117,-29,102,-29,-73,34,-58,-48,-78,-102,-107
-87,-117,-29,102,-29,-73,29,-58,-48,-78,-107,-107
-82,-117,-34,100,-24,-75,29,-58,-48,-82,-107,-107
-78,-117,-39,97,-19,-78,29,-58,-48,-87,-107,-107
-78,-117,-39,97,-19,-78,29,-58,-48,-87,-107,-107
-78,-117,-39,97,-19,-78,29,-58,-48,-87,-107,-107
-78,-107,-29,92,-24,-68,29,-58,-48,-82,-102,-107
-78,-97,-19,87,-29,-58,29,-58,-48,-78,-97,-107
-78,-107,-29,92,-24,-68,29,-63,-48,-78,-97,-107
-78,-117,-39,97,-19,-78,29,-68,-48,-78,-97,-107
-82,-117,-34,100,-24,-75,29,-68,-53,-78,-102,-107
-87,-117,-29,102,-29,-73,29,-68,-58,-78,-107,-107
-87,-117,-29,102,-29,-73,29,-68,-58,-78,-107,-107
-87,-117,-29,102,-29,-73,29,-68,-58,-78,-107,-107
-87,-117,-29,102,-29,-73,29,-63,-53,-82,-107,-112
-87,-117,-29,102,-29,-73,29,-58,-48,-87,-107,-117
-87,-117,-29,102,-29,-73,29,-58,-48,-87,-107,-117
-87,-117,-29,102,-29,-73,29,-58,-48,-87,-107,-117
-82,-112,-29,97,-26,-70,29,-58,-48,-87,-107,-112
-78,-107,-29,92,-24,-68,29,-58,-48,-87,-107,-107
-78,-107,-29,92,-24,-68,29,-58,-48,-87,-107,-107
-78,-107,-29,92,-24,-68,29,-58,-48,-87,-107,-107
-82,-112,-29,97,-26,-70,29,-58,-53,-87,-107,-112
-87,-117,-29,102,-29,-73,29,-58,-58,-87,-107,-117
-92,-117,-24,104,-34,-70,29,-58,-58,-87,-107,-117
-97,-117,-19,107,-39,-68,29,-58,-58,-87,-107,-117
-97,-117,-19,107,-39,-68,24,-63,-58,-87,-112,-117
-97,-117,-19,107,-39,-68,19,-68,-58,-87,-117,-117
-97,-117,-19,107,-39,-68,19,-68,-58,-87,-117,-117
-97,-117,-19,107,-39,-68,19,-68,-58,-87,-117,-117
-97,-117,-19,107,-39,-68,24,-68,-58,-87,-112,-117
-97,-117,-19,107,-39,-68,29,-68,-58,-87,-107,-117
-97,-117,-19,107,-39,-68,29,-68,-58,-87,-107,-117
-97,-117,-19,107,-39,-68,29,-68,-58,-87,-107,-117
-97,-122,-24,109,-36,-73,24,-68,-58,-87,-112,-117
-97,-126,-29,112,-34,-78,19,-68,-58,-87,-117,-117
-97,-126,-29,112,-34,-78,19,-68,-58,-87,-117,-117
-97,-126,-29,112,-34,-78,19,-68,-58,-87,-117,-117
-92,-126,-34,109,-29,-80,19,-68,-58,-87,-117,-117
-87,-126,-39,107,-24,-82,19,-68,-58,-87,-117,-117
-87,-117,-29,102,-29,-73,19,-68,-58,-87,-112,-117
-87,-107,-19,97,-34,-63,19,-68,-58,-87,-107,-117
-92,-117,-24,104,-34,-70,14,-68,-58,-87,-107,-117
-97,-126,-29,112,-34,-78,9,-68,-58,-87,-107,-117
-97,-126,-29,112,-34,-78,9,-68,-63,-92,-112,-122
-97,-126,-29,112,-34,-78,9,-68,-68,-97,-117,-126
-97,-126,-29,112,-34,-78,14,-68,-68,-97,-117,-126
-97,-126,-29,112,-34,-78,19,-68,-68,-97,-117,-126
-97,-117,-19,107,-39,-68,24,-58,-63,-92,-117,-122
-87,-97,-9,92,-39,-53,34,-48,-53,-87,-107,-112
-78,-78,0,78,-39,-39,43,-43,-48,-82,-97,-107
-68,-68,0,68,-34,-34,43,-39,-39,-73,-87,-102
-68,-58,9,63,-39,-24,48,-29,-34,-63,-82,-102
-68,-48,19,58,-43,-14,73,-24,-24,-58,-82,-97
-63,-43,19,53,-41,-12,73,-4,-9,-48,-73,-87
-63,-24,39,43,-51,7,68,4,4,-43,-63,-73
-53,-14,39,34,-46,12,58,4,9,-43,-58,-73
-53,4,58,24,-56,31,39,-4,14,-34,-43,-63
-53,14,68,19,-61,41,9,-19,19,-24,-39,-48
-53,19,73,17,-63,46,-9,-19,19,-24,-29,-43
-48,24,73,12,-61,48,-14,-19,24,-9,-29,-43
-43,29,73,7,-58,51,-24,-19,24,-9,-24,-34
-48,29,78,9,-63,53,-39,-19,24,-9,-24,-34
-53,9,63,21,-58,36,-53,-19,9,-14,-29,-34
-48,-9,39,29,-43,14,-73,-34,0,-24,-34,-43
-43,-19,24,31,-34,2,-82,-39,-9,-34,-39,-48
-34,-24,9,29,-21,-7,-78,-39,-14,-34,-34,-43
-24,-24,0,24,-12,-12,-73,-39,-14,-34,-39,-43
-43,-58,-14,51,-14,-36,-58,-43,-24,-48,-53,-63
-58,-73,-14,65,-21,-43,-43,-43,-34,-58,-68,-73
-68,-87,-19,78,-24,-53,-39,-43,-43,-73,-68,-82
-78,-107,-29,92,-24,-68,-34,-43,-53,-82,-73,-102
-78,-117,-39,97,-19,-78,-34,-63,-68,-92,-92,-107
-82,-131,-48,107,-17,-90,-34,-73,-78,-97,-107,-107
-97,-146,-48,122,-24,-97,-34,-78,-82,-107,-117,-117
-107,-156,-48,131,-29,-102,-34,-78,-92,-112,-122,-122
-107,-156,-48,131,-29,-102,-24,-78,-92,-112,-122,-122
-112,-156,-43,134,-34,-100,-19,-78,-92,-112,-122,-122
-112,-156,-43,134,-34,-100,-19,-78,-92,-112,-122,-126
-112,-156,-43,134,-34,-100,-19,-78,-92,-117,-122,-131
-112,-156,-43,134,-34,-100,-14,-78,-92,-117,-122,-131
-112,-156,-43,134,-34,-100,-14,-78,-92,-117,-122,-131
-112,-161,-48,136,-31,-104,-14,-78,-92,-117,-126,-126
-112,-161,-48,136,-31,-104,-14,-78,-97,-117,-126,-126
-112,-156,-43,134,-34,-100,-14,-78,-97,-117,-126,-131
-112,-151,-39,131,-36,-95,-19,-78,-97,-122,-126,-131
-112,-156,-43,134,-34,-100,-24,-78,-97,-122,-126,-131
-112,-156,-43,134,-34,-100,-29,-78,-92,-122,-126,-131
-112,-156,-43,134,-34,-100,-24,-78,-92,-117,-122,-126
-112,-156,-43,134,-34,-100,-24,-73,-92,-117,-122,-126
-112,-156,-43,134,-34,-100,-24,-82,-92,-117,-112,-122
-102,-175,-73,139,-14,-124,-9,-73,-107,-126,-131,-136
-117,-229,-112,173,-2,-170,14,-39,-126,-190,-219,-229
-131,-234,-102,183,-14,-168,39,14,-117,-209,-253,-273
-161,-195,-34,178,-63,-114,53,19,-63,-165,-219,-244
-131,-107,24,119,-78,-41,48,53,19,-53,-102,-126
-43,29,73,7,-58,51,19,204,141,122,87,53
63,180,117,-122,-26,148,-19,346,273,326,322,278
292,409,117,-351,87,263,-161,439,424,624,697,653
468,590,122,-529,173,356,-292,405,517,878,1039,1000
536,658,122,-597,207,390,-370,248,536,985,1220,1195
488,692,204,-590,141,448,-429,102,517,971,1239,1234
283,683,400,-483,-58,541,-414,14,517,805,1005,1029
107,610,502,-358,-197,556,-346,-190,429,610,736,756
-53,458,512,-202,-283,485,-278,-463,253,366,419,473
-107,287,395,-90,-251,341,-273,-605,73,151,180,229
-122,107,229,7,-175,168,-297,-673,-107,-4,14,43
-136,-39,97,87,-117,29,-283,-644,-224,-126,-117,-92
-156,-68,87,112,-122,9,-224,-473,-200,-136,-136,-117
-146,-117,29,131,-87,-43,-156,-317,-190,-146,-146,-136
-97,-131,-34,114,-31,-82,-117,-219,-170,-151,-151,-141
-82,-131,-48,107,-17,-90,-87,-151,-141,-146,-141,-141
-82,-126,-43,104,-19,-85,-63,-107,-112,-126,-136,-131
-82,-112,-29,97,-26,-70,-43,-68,-92,-107,-117,-122
-73,-102,-29,87,-21,-65,-24,-48,-73,-97,-102,-107
-68,-102,-34,85,-17,-68,-14,-39,-68,-92,-97,-102
-73,-102,-29,87,-21,-65,-9,-39,-68,-87,-97,-102
-87,-107,-19,97,-34,-63,-9,-29,-63,-82,-92,-97
-87,-112,-24,100,-31,-68,-4,-29,-63,-82,-92,-97
-82,-117,-34,100,-24,-75,0,-29,-68,-82,-92,-102
-82,-117,-34,100,-24,-75,4,-29,-63,-87,-92,-102
-82,-112,-29,97,-26,-70,9,-24,-58,-92,-92,-102
-82,-107,-24,95,-29,-65,9,-19,-53,-92,-92,-102
-78,-107,-29,92,-24,-68,9,-14,-53,-92,-92,-102
-78,-107,-29,92,-24,-68,14,-14,-53,-92,-92,-102
-78,-107,-29,92,-24,-68,19,-14,-53,-87,-92,-97
-78,-107,-29,92,-24,-68,19,-9,-58,-87,-92,-97
-78,-107,-29,92,-24,-68,19,-9,-63,-87,-92,-97
-78,-107,-29,92,-24,-68,19,-14,-63,-87,-97,-97
-82,-107,-24,95,-29,-65,19,-19,-63,-92,-97,-97
-82,-112,-29,97,-26,-70,19,-19,-63,-92,-97,-97
-78,-112,-34,95,-21,-73,24,-19,-63,-92,-92,-97
-73,-102,-29,87,-21,-65,19,-19,-63,-92,-92,-97
-73,-97,-24,85,-24,-61,14,-19,-63,-92,-92,-97
-78,-97,-19,87,-29,-58,14,-14,-63,-92,-92,-92
-82,-102,-19,92,-31,-61,14,-14,-63,-92,-92,-87
-82,-107,-24,95,-29,-65,19,-14,-63,-92,-92,-87
-82,-107,-24,95,-29,-65,19,-14,-63,-92,-92,-87
-78,-107,-29,92,-24,-68,19,-14,-58,-92,-92,-82
-73,-107,-34,90,-19,-70,19,-14,-58,-92,-92,-82
-68,-102,-34,85,-17,-68,19,-9,-58,-92,-87,-82
-68,-97,-29,82,-19,-63,19,0,-63,-92,-78,-82
-68,-92,-24,80,-21,-58,19,0,-63,-87,-78,-82
-63,-92,-29,78,-17,-61,14,0,-63,-87,-78,-82
-68,-102,-34,85,-17,-68,14,4,-63,-87,-82,-87
-73,-107,-34,90,-19,-70,14,4,-58,-87,-87,-87
-68,-107,-39,87,-14,-73,14,4,-58,-82,-87,-87
-63,-107,-43,85,-9,-75,9,4,-58,-82,-82,-87
-58,-102,-43,80,-7,-73,9,9,-58,-82,-78,-78
-53,-97,-43,75,-4,-70,9,9,-53,-82,-68,-73
-53,-92,-39,73,-7,-65,9,9,-53,-73,-68,-68
-43,-82,-39,63,-2,-61,4,9,-53,-63,-68,-68
-34,-78,-43,56,4,-61,4,14,-53,-63,-63,-63
-29,-78,-48,53,9,-63,4,24,-48,-58,-58,-58
-34,-78,-43,56,4,-61,-4,24,-48,-53,-53,-58
-39,-82,-43,61,2,-63,-9,29,-43,-53,-48,-58
-39,-78,-39,58,0,-58,-9,39,-43,-53,-43,-58
-34,-63,-29,48,-2,-46,-9,43,-39,-53,-43,-48
-24,-53,-29,39,2,-41,-19,48,-34,-43,-34,-39
-9,-48,-39,29,14,-43,-29,58,-29,-39,-24,-29
-4,-43,-39,24,17,-41,-34,68,-34,-29,-19,-19
4,-39,-43,17,24,-41,-39,78,-29,-24,-9,-9
14,-29,-43,7,29,-36,-43,87,-14,0,9,4
29,-14,-43,-7,36,-29,-53,102,-4,9,24,19
43,0,-43,-21,43,-21,-63,117,0,14,39,29
63,4,-58,-34,61,-26,-73,136,4,19,48,39
78,24,-53,-51,65,-14,-78,156,19,34,63,68
97,43,-53,-70,75,-4,-87,170,34,53,92,92
107,58,-48,-82,78,4,-92,190,43,73,122,112
122,73,-48,-97,85,12,-102,214,53,92,136,131
151,87,-63,-119,107,12,-112,224,68,112,161,161
165,112,-53,-139,109,29,-122,244,92,141,190,190
175,122,-53,-148,114,34,-126,263,102,165,214,209
190,136,-53,-163,122,41,-136,278,122,185,239,229
209,161,-48,-185,129,56,-146,297,136,209,263,253
224,180,-43,-202,134,68,-156,317,146,234,287,273
239,219,-19,-229,129,100,-161,331,161,253,307,297
244,239,-4,-241,124,117,-161,336,175,273,326,317
248,248,0,-248,124,124,-170,341,185,283,341,331
253,263,9,-258,122,136,-180,351,195,297,361,356
263,278,14,-270,124,146,-175,366,219,317,370,370
258,287,29,-273,114,158,-170,375,229,326,380,380
253,297,43,-275,104,170,-161,356,239,331,385,375
239,307,68,-273,85,187,-146,346,244,331,385,380
214,283,68,-248,73,175,-136,331,244,322,366,356
190,263,73,-226,58,168,-117,317,234,302,341,331
170,239,68,-204,51,153,-112,292,214,283,317,302
146,214,68,-180,39,141,-97,273,200,263,292,278
126,204,78,-165,24,141,-87,244,185,229,253,244
107,180,73,-143,17,126,-73,214,170,204,239,219
78,146,68,-112,4,107,-63,185,146,185,204,195
53,122,68,-87,-7,95,-53,151,122,161,170,161
39,102,63,-70,-12,82,-39,122,102,122,141,126
14,68,53,-41,-19,61,-24,107,92,102,117,107
-4,43,48,-19,-26,46,-24,82,78,82,87,78
-14,29,43,-7,-29,36,-19,63,63,63,68,68
-29,9,39,9,-34,24,-14,53,48,43,53,48
-39,0,39,19,-39,19,-9,29,29,29,29,29
-48,-9,39,29,-43,14,-4,19,19,14,14,14
-53,-19,34,36,-43,7,0,0,9,0,0,0
-58,-29,29,43,-43,0,0,-9,-4,-9,-9,-14
-63,-39,24,51,-43,-7,0,-19,-9,-19,-19,-24
-63,-48,14,56,-39,-17,4,-19,-14,-24,-29,-29
-73,-58,14,65,-43,-21,9,-19,-19,-29,-34,-34
-73,-58,14,65,-43,-21,9,-29,-29,-39,-39,-39
-73,-58,14,65,-43,-21,9,-29,-34,-43,-43,-39
-73,-63,9,68,-41,-26,9,-29,-39,-43,-39,-43
-73,-63,9,68,-41,-26,9,-39,-39,-43,-43,-48
-73,-63,9,68,-41,-26,9,-39,-39,-48,-43,-48
-73,-63,9,68,-41,-26,9,-39,-43,-48,-43,-48
-73,-63,9,68,-41,-26,9,-43,-43,-48,-48,-48
-82,-68,14,75,-48,-26,9,-48,-43,-48,-53,-48
-82,-78,4,80,-43,-36,9,-48,-48,-53,-53,-48
-87,-82,4,85,-46,-39,9,-48,-48,-53,-53,-48
-87,-87,0,87,-43,-43,4,-53,-48,-53,-53,-48
-87,-87,0,87,-43,-43,0,-53,-53,-58,-58,-53
-87,-92,-4,90,-41,-48,4,-53,-53,-58,-58,-53
-82,-92,-9,87,-36,-51,4,-53,-53,-58,-58,-53
-82,-82,0,82,-41,-41,9,-58,-53,-58,-58,-53
-82,-73,9,78,-46,-31,14,-58,-53,-58,-58,-53
-87,-87,0,87,-43,-43,14,-53,-53,-58,-58,-53
-92,-97,-4,95,-43,-51,14,-53,-53,-58,-58,-53
-97,-97,0,97,-48,-48,14,-53,-53,-58,-58,-58
-97,-92,4,95,-51,-43,14,-53,-53,-58,-63,-58
-97,-87,9,92,-53,-39,14,-53,-53,-58,-63,-53
-92,-87,4,90,-48,-41,9,-53,-48,-58,-58,-53
-92,-82,9,87,-51,-36,9,-48,-48,-58,-58,-53
-92,-78,14,85,-53,-31,9,-48,-48,-58,-58,-53
-82,-78,4,80,-43,-36,9,-48,-48,-53,-58,-53
-73,-78,-4,75,-34,-41,9,-48,-48,-53,-58,-53
-73,-73,0,73,-36,-36,9,-48,-48,-53,-53,-48
-73,-73,0,73,-36,-36,9,-48,-48,-53,-53,-48
-73,-73,0,73,-36,-36,9,-48,-43,-53,-53,-48
-73,-73,0,73,-36,-36,9,-48,-43,-53,-58,-48
-73,-68,4,70,-39,-31,9,-48,-43,-53,-53,-48
-78,-68,9,73,-43,-29,9,-48,-43,-48,-48,-48
-78,-68,9,73,-43,-29,9,-48,-39,-48,-43,-43
-73,-63,9,68,-41,-26,9,-48,-34,-48,-43,-39
-68,-58,9,63,-39,-24,4,-48,-34,-48,-39,-34
-68,-58,9,63,-39,-24,0,-43,-34,-48,-39,-34
-68,-63,4,65,-36,-29,0,-43,-34,-48,-39,-34
-63,-68,-4,65,-29,-36,0,-43,-34,-48,-39,-34
-63,-63,0,63,-31,-31,0,-43,-34,-43,-39,-39
-68,-63,4,65,-36,-29,0,-39,-34,-39,-39,-39
-68,-63,4,65,-36,-29,-4,-39,-29,-39,-39,-34
-68,-58,9,63,-39,-24,-4,-43,-24,-43,-39,-34
-58,-58,0,58,-29,-29,-4,-39,-24,-43,-34,-34
-48,-58,-9,53,-19,-34,0,-34,-24,-43,-29,-34
-58,-58,0,58,-29,-29,0,-34,-29,-39,-29,-29
-68,-68,0,68,-34,-34,0,-34,-34,-39,-29,-24
-63,-68,-4,65,-29,-36,0,-34,-34,-39,-29,-29
-63,-63,0,63,-31,-31,0,-29,-39,-39,-29,-29
-58,-58,0,58,-29,-29,0,-29,-39,-39,-29,-29
-58,-58,0,58,-29,-29,0,-34,-39,-39,-29,-29
-58,-58,0,58,-29,-29,0,-34,-34,-39,-34,-29
-58,-63,-4,61,-26,-34,0,-34,-34,-39,-43,-29
-58,-63,-4,61,-26,-34,4,-29,-29,-39,-43,-29
-58,-63,-4,61,-26,-34,9,-29,-24,-39,-43,-34
-58,-63,-4,61,-26,-34,9,-34,-29,-43,-39,-34
-68,-68,0,68,-34,-34,9,-34,-29,-43,-34,-34
-68,-68,0,68,-34,-34,4,-34,-34,-43,-39,-34
-68,-68,0,68,-34,-34,4,-39,-34,-43,-39,-34
-68,-68,0,68,-34,-34,9,-39,-34,-48,-39,-34
-63,-68,-4,65,-29,-36,9,-43,-34,-48,-39,-34
-58,-63,-4,61,-26,-34,0,-48,-34,-43,-39,-34
-58,-58,0,58,-29,-29,-4,-48,-29,-39,-39,-34
-58,-58,0,58,-29,-29,0,-48,-29,-39,-39,-34
-58,-58,0,58,-29,-29,0,-48,-29,-39,-39,-34
-58,-58,0,58,-29,-29,4,-43,-34,-43,-39,-34
-58,-58,0,58,-29,-29,9,-39,-34,-48,-39,-39
-58,-63,-4,61,-26,-34,9,-39,-34,-48,-39,-39
-58,-63,-4,61,-26,-34,9,-39,-34,-48,-39,-39
-63,-63,0,63,-31,-31,9,-43,-34,-48,-39,-39
-63,-63,0,63,-31,-31,9,-43,-34,-48,-39,-39
-63,-63,0,63,-31,-31,9,-43,-39,-48,-43,-39
-63,-68,-4,65,-29,-36,9,-43,-39,-48,-43,-39
-63,-68,-4,65,-29,-36,9,-48,-39,-48,-43,-39
-63,-73,-9,68,-26,-41,9,-53,-39,-48,-43,-43
-58,-63,-4,61,-26,-34,9,-48,-39,-48,-43,-43
-58,-58,0,58,-29,-29,9,-48,-39,-48,-48,-48
-58,-58,0,58,-29,-29,9,-48,-39,-48,-48,-43
-58,-58,0,58,-29,-29,9,-48,-39,-48,-48,-39
-58,-58,0,58,-29,-29,9,-48,-39,-53,-48,-39
-58,-58,0,58,-29,-29,9,-48,-39,-58,-48,-39
-58,-58,0,58,-29,-29,9,-48,-39,-58,-43,-39
-58,-58,0,58,-29,-29,9,-48,-39,-58,-39,-39
-58,-58,0,58,-29,-29,9,-48,-39,-58,-39,-39
-58,-58,0,58,-29,-29,9,-48,-39,-58,-39,-39
-68,-63,4,65,-36,-29,9,-53,-39,-58,-43,-39
-78,-68,9,73,-43,-29,9,-58,-39,-58,-48,-39
-68,-68,0,68,-34,-34,9,-58,-39,-58,-48,-39
-58,-68,-9,63,-24,-39,9,-58,-39,-58,-48,-39
-58,-58,0,58,-29,-29,9,-58,-39,-53,-48,-39
-58,-48,9,53,-34,-19,9,-58,-39,-48,-48,-39
-58,-48,9,53,-34,-19,9,-58,-39,-48,-48,-39
-58,-48,9,53,-34,-19,9,-58,-39,-48,-48,-39
-58,-53,4,56,-31,-24,9,-53,-39,-48,-43,-39
-58,-58,0,58,-29,-29,9,-48,-39,-48,-39,-39
-58,-58,0,58,-29,-29,9,-48,-39,-48,-39,-39
-58,-58,0,58,-29,-29,9,-48,-39,-48,-39,-39
-58,-58,0,58,-29,-29,9,-48,-39,-48,-43,-39
-58,-58,0,58,-29,-29,9,-48,-39,-48,-48,-39
-53,-53,0,53,-26,-26,9,-48,-39,-48,-48,-39
-48,-48,0,48,-24,-24,9,-48,-39,-48,-48,-39
-48,-48,0,48,-24,-24,9,-48,-39,-48,-48,-39
-48,-48,0,48,-24,-24,9,-48,-39,-48,-48,-39
-53,-53,0,53,-26,-26,9,-48,-39,-48,-48,-39
-58,-58,0,58,-29,-29,9,-48,-39,-48,-48,-39
-58,-58,0,58,-29,-29,9,-48,-39,-53,-48,-39
-58,-58,0,58,-29,-29,9,-48,-39,-58,-48,-39
-63,-58,4,61,-34,-26,4,-48,-39,-58,-48,-39
-68,-58,9,63,-39,-24,0,-48,-39,-58,-48,-39
-68,-58,9,63,-39,-24,0,-48,-39,-58,-48,-39
-68,-58,9,63,-39,-24,0,-48,-39,-58,-48,-39
-68,-58,9,63,-39,-24,0,-48,-39,-58,-48,-39
-68,-58,9,63,-39,-24,0,-48,-39,-58,-48,-39
-63,-58,4,61,-34,-26,0,-48,-39,-58,-48,-39
-58,-58,0,58,-29,-29,0,-48,-39,-58,-48,-39
-58,-58,0,58,-29,-29,0,-48,-39,-53,-48,-39
-58,-58,0,58,-29,-29,0,-48,-39,-48,-48,-39
-58,-58,0,58,-29,-29,0,-48,-39,-48,-48,-39
-58,-58,0,58,-29,-29,0,-48,-39,-48,-48,-39
-58,-53,4,56,-31,-24,0,-48,-39,-48,-48,-39
-58,-48,9,53,-34,-19,0,-48,-39,-48,-48,-39
-58,-48,9,53,-34,-19,0,-48,-39,-48,-48,-39
-58,-48,9,53,-34,-19,0,-48,-39,-48,-48,-39
-53,-53,0,53,-26,-26,0,-53,-39,-48,-48,-43
-48,-58,-9,53,-19,-34,0,-58,-39,-48,-48,-48
-48,-58,-9,53,-19,-34,0,-58,-39,-48,-48,-48
-48,-58,-9,53,-19,-34,0,-58,-39,-48,-48,-48
-48,-58,-9,53,-19,-34,0,-58,-39,-48,-48,-43
-48,-58,-9,53,-19,-34,0,-58,-39,-48,-48,-39
-48,-58,-9,53,-19,-34,0,-58,-39,-48,-48,-39
-48,-58,-9,53,-19,-34,0,-58,-39,-48,-48,-39
-53,-58,-4,56,-24,-31,0,-53,-39,-48,-48,-39
-58,-58,0,58,-29,-29,0,-48,-39,-48,-48,-39
-58,-58,0,58,-29,-29,0,-48,-39,-48,-48,-39
-58,-58,0,58,-29,-29,0,-48,-39,-48,-48,-39
-58,-48,9,53,-34,-19,0,-53,-39,-48,-48,-39
-58,-39,19,48,-39,-9,0,-58,-39,-48,-48,-39
-58,-39,19,48,-39,-9,0,-58,-39,-48,-48,-43
-58,-39,19,48,-39,-9,0,-58,-39,-48,-48,-48
-58,-43,14,51,-36,-14,0,-58,-39,-48,-48,-48
-58,-48,9,53,-34,-19,0,-58,-39,-48,-48,-48
-53,-48,4,51,-29,-21,0,-58,-39,-48,-43,-43
-48,-48,0,48,-24,-24,0,-58,-39,-48,-39,-39
-48,-48,0,48,-24,-24,0,-58,-39,-48,-39,-39
-48,-48,0,48,-24,-24,0,-58,-39,-48,-39,-39
-48,-48,0,48,-24,-24,0,-58,-39,-53,-43,-39
-48,-48,0,48,-24,-24,0,-58,-39,-58,-48,-39
-48,-48,0,48,-24,-24,0,-58,-39,-58,-48,-39
-48,-48,0,48,-24,-24,0,-58,-39,-58,-48,-39
-48,-48,0,48,-24,-24,0,-58,-39,-53,-48,-39
-48,-48,0,48,-24,-24,0,-58,-39,-48,-48,-39
-48,-48,0,48,-24,-24,0,-58,-39,-48,-48,-39
-48,-48,0,48,-24,-24,0,-58,-39,-48,-48,-39
-48,-48,0,48,-24,-24,0,-58,-39,-48,-48,-39
-48,-48,0,48,-24,-24,0,-58,-39,-48,-48,-39
-48,-48,0,48,-24,-24,0,-58,-39,-48,-48,-39
-48,-48,0,48,-24,-24,0,-58,-39,-48,-48,-39
-48,-48,0,48,-24,-24,0,-58,-39,-48,-48,-39
-48,-48,0,48,-24,-24,0,-58,-39,-48,-48,-39
-48,-48,0,48,-24,-24,0,-58,-43,-48,-48,-39
-48,-48,0,48,-24,-24,0,-58,-48,-48,-48,-39
-48,-48,0,48,-24,-24,4,-58,-48,-48,-48,-39
-48,-48,0,48,-24,-24,9,-58,-48,-48,-48,-39
-48,-48,0,48,-24,-24,9,-58,-43,-48,-48,-39
-48,-48,0,48,-24,-24,9,-58,-39,-48,-48,-39
-48,-48,0,48,-24,-24,9,-58,-39,-48,-48,-39
-48,-48,0,48,-24,-24,9,-58,-39,-48,-48,-39
-48,-48,0,48,-24,-24,9,-53,-39,-48,-48,-39
-48,-48,0,48,-24,-24,9,-48,-39,-48,-48,-39
-43,-43,0,43,-21,-21,14,-43,-34,-48,-43,-39
-39,-39,0,39,-19,-19,19,-39,-29,-48,-39,-39
-39,-29,9,34,-24,-9,24,-34,-29,-43,-39,-34
-34,-9,24,21,-29,7,34,-29,-24,-39,-29,-24
-29,4,34,12,-31,19,43,-24,-24,-34,-24,-19
-29,9,39,9,-34,24,43,-19,-19,-24,-19,-14
-34,14,48,9,-41,31,48,-9,-14,-19,-14,-14
-39,19,58,9,-48,39,73,-4,-4,-19,-14,-9
-34,24,58,4,-46,41,78,9,4,-9,-9,-4
-34,43,78,-4,-56,61,78,14,14,-4,-4,4
-14,63,78,-24,-46,70,68,19,29,0,0,4
-4,92,97,-43,-51,95,48,14,43,14,14,14
-4,102,107,-48,-56,104,19,0,48,24,19,29
-4,107,112,-51,-58,109,0,0,48,24,29,34
0,107,107,-53,-53,107,-14,0,53,43,34,34
4,107,102,-56,-48,104,-34,0,53,48,43,43
4,126,122,-65,-58,124,-39,9,58,48,43,43
4,126,122,-65,-58,124,-43,19,48,43,39,43
9,97,87,-53,-39,92,-63,-4,39,34,34,34
14,78,63,-46,-24,70,-73,-19,29,24,29,29
19,68,48,-43,-14,58,-68,-19,19,24,34,34
24,63,39,-43,-7,51,-63,-19,14,24,29,34
24,43,19,-34,2,31,-53,-19,4,9,14,19
29,43,14,-36,7,29,-43,-14,-4,0,0,14
0,9,9,-4,-4,9,-34,-24,-14,-14,-9,4
-29,-29,0,29,-14,-14,-24,-34,-24,-24,-24,-14
-39,-39,0,39,-19,-19,-24,-48,-39,-39,-39,-29
-53,-53,0,53,-26,-26,-24,-53,-48,-48,-48,-39
-58,-58,0,58,-29,-29,-24,-58,-48,-53,-53,-43
-58,-58,0,58,-29,-29,-24,-58,-53,-53,-53,-43
-53,-58,-4,56,-24,-31,-19,-58,-53,-53,-53,-43
-53,-58,-4,56,-24,-31,-19,-58,-53,-53,-53,-43
-53,-63,-9,58,-21,-36,-19,-58,-53,-53,-53,-48
-53,-68,-14,61,-19,-41,-19,-58,-53,-58,-53,-53
-53,-68,-14,61,-19,-41,-14,-58,-53,-58,-58,-53
-53,-68,-14,61,-19,-41,-14,-58,-53,-58,-63,-53
-53,-68,-14,61,-19,-41,-9,-58,-53,-63,-68,-48
-53,-63,-9,58,-21,-36,-4,-58,-58,-68,-68,-48
-53,-63,-9,58,-21,-36,-4,-58,-58,-68,-68,-53
-53,-63,-9,58,-21,-36,-9,-58,-58,-73,-68,-53
-58,-73,-14,65,-21,-43,-9,-58,-58,-73,-68,-53
-63,-78,-14,70,-24,-46,-9,-58,-53,-73,-68,-53
-63,-78,-14,70,-24,-46,-4,-58,-53,-68,-63,-48
-63,-78,-14,70,-24,-46,-4,-53,-53,-68,-63,-48
-53,-63,-9,58,-21,-36,-9,-63,-53,-63,-48,-39
-34,-68,-34,51,0,-51,0,-53,-68,-68,-63,-48
-48,-131,-82,90,17,-107,24,-34,-92,-136,-151,-146
-63,-146,-82,104,9,-114,48,4,-87,-161,-185,-195
-112,-117,-4,114,-53,-61,73,24,-34,-126,-170,-180
-102,-39,63,70,-82,12,78,73,48,-24,-73,-78
4,82,78,-43,-36,80,48,239,151,117,78,58
131,219,87,-175,21,153,9,395,263,287,273,239
390,444,53,-417,168,248,-141,502,409,570,624,590
595,619,24,-607,285,322,-283,483,497,810,941,912
702,697,-4,-700,353,346,-385,322,522,936,1156,1141
692,741,48,-717,322,395,-468,170,507,941,1210,1215
444,736,292,-590,75,514,-458,63,502,800,1019,1063
224,668,444,-446,-109,556,-395,-161,409,629,795,844
53,488,434,-270,-190,461,-336,-439,219,375,468,546
-9,287,297,-139,-153,292,-341,-585,24,151,219,287
-39,122,161,-41,-100,141,-341,-649,-136,4,58,112
-68,-9,58,39,-63,24,-302,-614,-234,-107,-68,-14
-78,-19,58,48,-68,19,-229,-434,-195,-107,-78,-39
-58,-48,9,53,-34,-19,-146,-268,-170,-107,-78,-58
-24,-63,-39,43,7,-51,-107,-180,-151,-107,-82,-63
-24,-63,-39,43,7,-51,-78,-122,-122,-97,-73,-63
-24,-58,-34,41,4,-46,-48,-73,-92,-78,-68,-53
-24,-43,-19,34,-2,-31,-24,-29,-73,-58,-48,-43
-14,-34,-19,24,2,-26,-4,-14,-53,-48,-39,-34
-9,-34,-24,21,7,-29,4,-9,-48,-43,-39,-34
-14,-34,-19,24,2,-26,9,-9,-48,-43,-39,-34
-29,-39,-9,34,-9,-24,9,0,-43,-43,-34,-29
-29,-39,-9,34,-9,-24,14,0,-39,-43,-34,-29
-24,-39,-14,31,-4,-26,19,0,-39,-43,-34,-34
-19,-39,-19,29,0,-29,19,0,-39,-43,-34,-34
-14,-34,-19,24,2,-26,19,4,-39,-43,-34,-34
-14,-24,-9,19,-2,-17,19,4,-34,-43,-34,-34
-9,-19,-9,14,0,-14,19,4,-34,-43,-34,-34
-14,-19,-4,17,-4,-12,24,4,-34,-43,-34,-34
-19,-19,0,19,-9,-9,29,4,-34,-39,-34,-29
-19,-19,0,19,-9,-9,29,9,-34,-39,-34,-29
-19,-19,0,19,-9,-9,29,9,-34,-39,-34,-29
-19,-19,0,19,-9,-9,29,9,-34,-39,-39,-29
-24,-19,4,21,-14,-7,29,9,-34,-43,-39,-29
-24,-24,0,24,-12,-12,34,9,-34,-43,-39,-29
-19,-24,-4,21,-7,-14,43,9,-34,-43,-34,-29
-14,-19,-4,17,-4,-12,43,9,-34,-43,-34,-29
-14,-19,-4,17,-4,-12,43,9,-34,-43,-34,-29
-14,-24,-9,19,-2,-17,43,14,-34,-43,-34,-29
-14,-34,-19,24,2,-26,43,14,-34,-43,-34,-29
-14,-34,-19,24,2,-26,43,14,-34,-43,-34,-29
-14,-29,-14,21,0,-21,39,14,-34,-43,-34,-29
-4,-19,-14,12,4,-17,39,14,-29,-43,-34,-24
4,-9,-14,2,9,-12,39,14,-29,-43,-34,-24
0,-19,-19,9,9,-19,39,14,-29,-43,-34,-24
-9,-29,-19,19,4,-24,39,19,-34,-43,-29,-24
-9,-24,-14,17,2,-19,39,24,-34,-39,-29,-24
-4,-24,-19,14,7,-21,34,29,-34,-39,-29,-24
-4,-19,-14,12,4,-17,34,34,-34,-43,-34,-29
-4,-9,-4,7,0,-7,34,34,-29,-48,-39,-29
0,-9,-9,4,4,-9,34,34,-29,-43,-39,-29
4,-9,-14,2,9,-12,29,34,-29,-43,-34,-29
4,-14,-19,4,12,-17,29,39,-29,-43,-34,-24
4,-19,-24,7,14,-21,29,39,-24,-43,-29,-24
4,-19,-24,7,14,-21,29,43,-19,-39,-29,-19
14,-14,-29,0,21,-21,24,48,-14,-34,-29,-19
24,-4,-29,-9,26,-17,24,53,-14,-34,-24,-14
29,0,-29,-14,29,-14,24,63,-9,-29,-19,-9
34,4,-29,-19,31,-12,14,58,-9,-24,-14,-9
39,4,-34,-21,36,-14,9,58,-4,-24,-9,-9
43,9,-34,-26,39,-12,9,68,-4,-19,-4,-9
53,24,-29,-39,41,-2,9,73,0,-14,-4,0
63,29,-34,-46,48,-2,4,78,4,-4,4,9
78,29,-48,-53,63,-9,0,87,9,0,14,19
82,29,-53,-56,68,-12,-4,102,0,9,19,24
92,29,-63,-61,78,-17,-9,117,0,14,29,29
97,39,-58,-68,78,-9,-14,126,14,34,39,43
107,53,-53,-80,80,0,-24,141,24,39,43,58
126,73,-53,-100,90,9,-34,156,29,43,58,63
151,82,-68,-117,109,7,-43,175,34,48,68,68
175,102,-73,-139,124,14,-48,195,48,63,82,92
204,122,-82,-163,143,19,-58,209,63,82,112,112
214,136,-78,-175,146,29,-68,229,73,102,141,131
229,151,-78,-190,153,36,-82,253,82,122,156,151
258,170,-87,-214,173,41,-92,263,97,141,180,180
273,200,-73,-236,173,63,-102,283,122,170,209,209
287,224,-63,-256,175,80,-107,302,131,195,234,234
307,253,-53,-280,180,100,-117,317,151,214,258,258
326,268,-58,-297,192,104,-126,336,165,234,283,283
341,278,-63,-309,202,107,-136,356,175,253,307,302
356,312,-43,-334,200,134,-146,375,195,278,326,326
361,326,-34,-344,197,146,-151,385,214,302,346,346
361,341,-19,-351,190,161,-156,390,224,307,361,356
361,361,0,-361,180,180,-161,400,234,317,380,375
370,370,0,-370,185,185,-161,409,253,341,390,395
366,375,9,-370,178,192,-161,414,258,356,400,409
361,380,19,-370,170,200,-151,400,268,366,409,405
346,385,39,-366,153,212,-136,395,273,370,414,409
322,370,48,-346,136,209,-126,380,278,356,395,385
297,361,63,-329,117,212,-107,366,273,331,370,361
278,341,63,-309,107,202,-102,336,258,317,351,341
253,322,68,-287,92,195,-87,312,248,302,331,326
234,312,78,-273,78,195,-73,278,234,268,283,283
214,287,73,-251,70,180,-53,244,219,244,258,248
175,244,68,-209,53,156,-43,214,195,219,224,224
141,209,68,-175,36,139,-34,180,170,190,190,190
126,190,63,-158,31,126,-24,151,141,151,161,156
102,156,53,-129,24,104,-14,136,122,131,136,136
82,136,53,-109,14,95,-9,107,107,112,112,107
73,126,53,-100,9,90,0,82,92,92,97,97
63,107,43,-85,9,75,4,73,82,73,78,78
58,97,39,-78,9,68,9,48,68,58,48,58
43,82,39,-63,2,61,14,39,48,43,34,39
34,68,34,-51,0,51,19,19,29,29,19,19
24,48,24,-36,0,36,19,9,19,19,9,9
14,29,14,-21,0,21,19,0,19,9,0,4
14,24,9,-19,2,17,24,-4,14,4,-9,0
4,19,14,-12,-4,17,29,-9,9,0,-14,-4
0,14,14,-7,-7,14,29,-19,4,-9,-19,-14
-4,9,14,-2,-9,12,29,-19,4,-14,-24,-19
-4,4,9,0,-7,7,29,-19,0,-14,-24,-24
-4,4,9,0,-7,7,29,-29,0,-14,-34,-29
0,4,4,-2,-2,4,29,-29,0,-19,-34,-29
4,4,0,-4,2,2,29,-29,-4,-19,-34,-29
4,4,0,-4,2,2,29,-29,-4,-19,-34,-29
-4,0,4,2,-4,2,29,-29,-4,-19,-34,-29
-4,-4,0,4,-2,-2,29,-29,-9,-24,-34,-29
-9,-4,4,7,-7,0,29,-29,-9,-24,-34,-29
-9,-9,0,9,-4,-4,34,-34,-9,-24,-34,-34
-9,-9,0,9,-4,-4,39,-34,-14,-29,-39,-43
-19,-14,4,17,-12,-4,43,-39,-19,-34,-43,-43
-24,-14,9,19,-17,-2,43,-43,-24,-39,-48,-43
-24,-14,9,19,-17,-2,43,-53,-24,-39,-48,-48
-24,-14,9,19,-17,-2,43,-58,-24,-39,-48,-53
-24,-19,4,21,-14,-7,39,-53,-24,-39,-48,-53
-24,-19,4,21,-14,-7,34,-53,-24,-39,-48,-53
-24,-19,4,21,-14,-7,34,-48,-24,-43,-48,-53
-19,-14,4,17,-12,-4,34,-43,-24,-48,-53,-48
-19,-14,4,17,-12,-4,39,-43,-24,-48,-53,-43
-14,-19,-4,17,-4,-12,39,-43,-19,-48,-48,-43
-14,-19,-4,17,-4,-12,39,-39,-19,-43,-48,-43
-14,-19,-4,17,-4,-12,39,-39,-19,-39,-48,-43
-9,-19,-9,14,0,-14,39,-39,-19,-34,-48,-43
-4,-19,-14,12,4,-17,39,-39,-19,-34,-48,-43
-9,-14,-4,12,-2,-9,39,-39,-19,-34,-43,-39
-14,-14,0,14,-7,-7,39,-39,-19,-34,-43,-39
-14,-14,0,14,-7,-7,39,-39,-14,-34,-43,-39
-14,-14,0,14,-7,-7,39,-39,-14,-34,-48,-39
-14,-14,0,14,-7,-7,39,-39,-14,-34,-48,-39
-19,-19,0,19,-9,-9,39,-39,-14,-29,-48,-39
-19,-19,0,19,-9,-9,39,-39,-14,-29,-43,-43
-14,-14,0,14,-7,-7,39,-39,-14,-29,-43,-48
-9,-9,0,9,-4,-4,39,-39,-14,-29,-43,-43
-9,-9,0,9,-4,-4,39,-34,-14,-29,-48,-43
-9,-4,4,7,-7,0,39,-34,-14,-29,-48,-43
-4,0,4,2,-4,2,39,-34,-14,-29,-48,-43
0,4,4,-2,-2,4,39,-34,-14,-29,-48,-48
0,4,4,-2,-2,4,39,-29,-14,-29,-48,-48
0,-4,-4,2,2,-4,34,-24,-14,-29,-48,-43
0,-9,-9,4,4,-9,34,-24,-14,-34,-48,-43
0,-9,-9,4,4,-9,34,-24,-14,-34,-48,-43
0,-9,-9,4,4,-9,39,-24,-14,-34,-48,-43
0,-4,-4,2,2,-4,39,-24,-14,-29,-43,-43
0,-9,-9,4,4,-9,39,-24,-14,-29,-39,-43
4,-9,-14,2,9,-12,39,-24,-14,-29,-39,-48
4,-4,-9,0,7,-7,39,-19,-19,-29,-39,-48
0,-4,-4,2,2,-4,39,-19,-19,-29,-43,-48
-9,-9,0,9,-4,-4,39,-24,-19,-29,-48,-48
-9,-9,0,9,-4,-4,39,-24,-14,-29,-48,-48
-9,-14,-4,12,-2,-9,39,-24,-14,-29,-53,-48
-4,-14,-9,9,2,-12,39,-19,-14,-29,-53,-48
0,-14,-14,7,7,-14,39,-19,-14,-29,-53,-53
0,-14,-14,7,7,-14,39,-24,-19,-39,-53,-53
-9,-19,-9,14,0,-14,39,-24,-19,-43,-53,-53
-9,-19,-9,14,0,-14,34,-24,-24,-43,-53,-53
-9,-19,-9,14,0,-14,34,-29,-24,-43,-48,-53
-9,-14,-4,12,-2,-9,39,-29,-24,-39,-48,-53
-4,-9,-4,7,0,-7,39,-34,-24,-29,-48,-53
0,-9,-9,4,4,-9,34,-34,-24,-29,-48,-53
0,-9,-9,4,4,-9,34,-29,-19,-29,-48,-53
0,-14,-14,7,7,-14,39,-34,-19,-34,-48,-53
0,-19,-19,9,9,-19,39,-39,-19,-39,-48,-53
-9,-19,-9,14,0,-14,39,-39,-24,-39,-48,-53
-19,-19,0,19,-9,-9,39,-39,-24,-39,-48,-58
-19,-24,-4,21,-7,-14,39,-34,-24,-39,-48,-58
-19,-24,-4,21,-7,-14,39,-29,-24,-39,-48,-58
-19,-24,-4,21,-7,-14,39,-34,-24,-39,-48,-58
-14,-24,-9,19,-2,-17,39,-34,-24,-39,-48,-58
-14,-19,-4,17,-4,-12,39,-34,-29,-39,-53,-58
-14,-19,-4,17,-4,-12,39,-34,-29,-39,-53,-58
-14,-19,-4,17,-4,-12,39,-34,-29,-39,-53,-58
-14,-24,-9,19,-2,-17,39,-34,-29,-39,-53,-63
-14,-19,-4,17,-4,-12,39,-34,-29,-43,-53,-58
-19,-19,0,19,-9,-9,39,-39,-29,-48,-58,-58
-19,-19,0,19,-9,-9,39,-39,-29,-43,-58,-58
-19,-19,0,19,-9,-9,39,-39,-29,-39,-58,-58
-14,-19,-4,17,-4,-12,39,-39,-29,-39,-58,-58
-9,-19,-9,14,0,-14,39,-39,-29,-39,-58,-58
-9,-19,-9,14,0,-14,39,-39,-29,-43,-58,-58
-9,-19,-9,14,0,-14,39,-39,-29,-48,-58,-58
-14,-24,-9,19,-2,-17,39,-39,-29,-48,-58,-63
-19,-29,-9,24,-4,-19,39,-39,-29,-48,-58,-68
-19,-29,-9,24,-4,-19,39,-39,-29,-48,-58,-68
-19,-29,-9,24,-4,-19,39,-39,-29,-48,-58,-68
-19,-29,-9,24,-4,-19,39,-39,-29,-48,-58,-68
-19,-29,-9,24,-4,-19,39,-39,-29,-48,-58,-68
-19,-29,-9,24,-4,-19,39,-39,-29,-48,-63,-68
-19,-29,-9,24,-4,-19,39,-39,-29,-48,-68,-68
-19,-29,-9,24,-4,-19,39,-39,-29,-48,-68,-68
-19,-29,-9,24,-4,-19,39,-39,-29,-48,-68,-68
-19,-29,-9,24,-4,-19,39,-39,-29,-48,-63,-68
-19,-29,-9,24,-4,-19,39,-39,-29,-48,-58,-68
-24,-34,-9,29,-7,-21,39,-39,-29,-48,-58,-68
-29,-39,-9,34,-9,-24,39,-39,-29,-48,-58,-68
-29,-39,-9,34,-9,-24,39,-39,-29,-48,-63,-73
-29,-39,-9,34,-9,-24,39,-39,-29,-48,-68,-78
-29,-39,-9,34,-9,-24,39,-39,-29,-48,-68,-78
-29,-39,-9,34,-9,-24,39,-39,-29,-48,-68,-78
-29,-39,-9,34,-9,-24,39,-39,-29,-48,-68,-78
-29,-39,-9,34,-9,-24,39,-39,-29,-48,-68,-78
-29,-39,-9,34,-9,-24,39,-39,-29,-48,-68,-78
-29,-39,-9,34,-9,-24,39,-39,-29,-48,-68,-78
-24,-39,-14,31,-4,-26,39,-39,-29,-48,-63,-73
-19,-39,-19,29,0,-29,39,-39,-29,-48,-58,-68
-19,-43,-24,31,2,-34,39,-39,-29,-48,-58,-68
-19,-48,-29,34,4,-39,39,-39,-29,-48,-58,-68
-29,-48,-19,39,-4,-34,39,-39,-29,-53,-68,-68
-39,-48,-9,43,-14,-29,39,-39,-29,-58,-78,-68
-39,-48,-9,43,-14,-29,39,-43,-29,-58,-78,-73
-39,-48,-9,43,-14,-29,39,-48,-29,-58,-78,-78
-34,-48,-14,41,-9,-31,39,-48,-29,-58,-73,-78
-29,-48,-19,39,-4,-34,39,-48,-29,-58,-68,-78
-29,-53,-24,41,-2,-39,39,-48,-34,-58,-68,-78
-29,-58,-29,43,0,-43,39,-48,-39,-58,-68,-78
-29,-58,-29,43,0,-43,39,-48,-39,-58,-73,-78
-29,-58,-29,43,0,-43,39,-48,-39,-58,-78,-78
-34,-58,-24,46,-4,-41,39,-48,-39,-58,-78,-78
-39,-58,-19,48,-9,-39,39,-48,-39,-58,-78,-78
-39,-58,-19,48,-9,-39,34,-48,-39,-58,-78,-78
-39,-58,-19,48,-9,-39,29,-48,-39,-58,-78,-78
-39,-53,-14,46,-12,-34,29,-48,-39,-58,-78,-78
-39,-48,-9,43,-14,-29,29,-48,-39,-58,-78,-78
-34,-48,-14,41,-9,-31,29,-48,-39,-58,-78,-78
-29,-48,-19,39,-4,-34,29,-48,-39,-58,-78,-78
-29,-48,-19,39,-4,-34,34,-48,-39,-58,-78,-78
-29,-48,-19,39,-4,-34,39,-48,-39,-58,-78,-78
-39,-58,-19,48,-9,-39,39,-48,-39,-53,-78,-78
-48,-68,-19,58,-14,-43,39,-48,-39,-48,-78,-78
-48,-68,-19,58,-14,-43,39,-48,-39,-48,-78,-78
-48,-68,-19,58,-14,-43,39,-48,-39,-48,-78,-78
-48,-68,-19,58,-14,-43,39,-48,-39,-53,-78,-78
-48,-68,-19,58,-14,-43,39,-48,-39,-58,-78,-78
-48,-68,-19,58,-14,-43,39,-43,-39,-58,-78,-78
-48,-68,-19,58,-14,-43,39,-39,-39,-58,-78,-78
-39,-63,-24,51,-7,-43,39,-39,-34,-58,-78,-78
-29,-58,-29,43,0,-43,39,-39,-29,-58,-78,-78
-29,-58,-29,43,0,-43,39,-39,-29,-58,-78,-82
-29,-58,-29,43,0,-43,39,-39,-29,-58,-78,-87
-34,-58,-24,46,-4,-41,39,-43,-34,-58,-78,-87
-39,-58,-19,48,-9,-39,39,-48,-39,-58,-78,-87
-43,-63,-19,53,-12,-41,39,-48,-39,-58,-78,-92
-48,-68,-19,58,-14,-43,39,-48,-39,-58,-78,-97
-48,-68,-19,58,-14,-43,39,-48,-39,-58,-82,-97
-48,-68,-19,58,-14,-43,39,-48,-39,-58,-87,-97
-48,-68,-19,58,-14,-43,39,-48,-39,-58,-87,-97
-48,-68,-19,58,-14,-43,39,-48,-39,-58,-87,-97
-43,-68,-24,56,-9,-46,39,-48,-39,-58,-87,-97
-39,-68,-29,53,-4,-48,39,-48,-39,-58,-87,-97
-39,-68,-29,53,-4,-48,39,-48,-39,-58,-87,-97
-39,-68,-29,53,-4,-48,39,-48,-39,-58,-87,-97
-43,-73,-29,58,-7,-51,39,-48,-39,-58,-82,-92
-48,-78,-29,63,-9,-53,39,-48,-39,-58,-78,-87
-48,-78,-29,63,-9,-53,39,-48,-39,-58,-78,-87
-48,-78,-29,63,-9,-53,39,-48,-39,-58,-78,-87
-53,-78,-24,65,-14,-51,39,-53,-39,-58,-78,-87
-58,-78,-19,68,-19,-48,39,-58,-39,-58,-78,-87
-58,-78,-19,68,-19,-48,39,-58,-39,-58,-78,-87
-58,-78,-19,68,-19,-48,39,-58,-39,-58,-78,-87
-58,-82,-24,70,-17,-53,39,-53,-39,-63,-82,-92
-58,-87,-29,73,-14,-58,39,-48,-39,-68,-87,-97
-58,-87,-29,73,-14,-58,39,-48,-39,-68,-92,-102
-53,-78,-24,65,-14,-51,43,-43,-34,-58,-92,-97
-53,-68,-14,61,-19,-41,53,-39,-34,-53,-92,-92
-48,-43,4,46,-26,-19,63,-34,-29,-53,-82,-87
-43,-34,9,39,-26,-12,68,-29,-19,-43,-73,-82
-39,-24,14,31,-26,-4,78,-19,-14,-39,-63,-82
-39,-19,19,29,-29,0,102,-9,0,-39,-63,-73
-34,-14,19,24,-26,2,102,9,14,-29,-58,-63
-34,4,39,14,-36,21,102,19,24,-19,-53,-53
-24,14,39,4,-31,26,97,24,29,-14,-48,-53
-24,39,63,-7,-43,51,82,14,39,-4,-29,-39
-24,53,78,-14,-51,65,58,0,48,4,-19,-24
-29,68,97,-19,-63,82,39,-4,53,4,-9,-24
-29,78,107,-24,-68,92,24,-9,63,19,-9,-24
-24,82,107,-29,-65,95,0,-9,63,24,-4,-14
-24,87,112,-31,-68,100,-9,-9,63,29,-4,-14
-19,78,97,-29,-58,87,-14,-9,48,29,-4,-9
-9,68,78,-29,-43,73,-24,-24,39,24,-4,-14
-4,48,53,-21,-29,51,-29,-29,29,14,-9,-19
-4,29,34,-12,-19,31,-29,-29,19,9,-9,-19
0,24,24,-12,-12,24,-34,-29,14,4,-19,-24
-14,-9,4,12,-9,-2,-34,-34,4,-9,-34,-43
-29,-24,4,26,-17,-9,-14,-34,-4,-24,-48,-53
-39,-39,0,39,-19,-19,0,-43,-14,-43,-58,-63
-53,-68,-14,61,-19,-41,9,-53,-29,-58,-78,-92
-58,-82,-24,70,-17,-53,14,-63,-43,-73,-92,-107
-63,-107,-43,85,-9,-75,14,-63,-53,-82,-102,-107
-68,-126,-58,97,-4,-92,14,-68,-58,-92,-112,-112
-68,-126,-58,97,-4,-92,14,-68,-63,-92,-112,-112
-68,-126,-58,97,-4,-92,19,-68,-63,-92,-112,-112
-73,-122,-48,97,-12,-85,19,-68,-63,-92,-112,-112
-73,-117,-43,95,-14,-80,19,-68,-63,-92,-112,-117
-73,-117,-43,95,-14,-80,19,-68,-68,-97,-117,-126
-73,-117,-43,95,-14,-80,24,-68,-73,-97,-122,-131
-73,-117,-43,95,-14,-80,24,-68,-73,-97,-122,-131
-73,-122,-48,97,-12,-85,24,-68,-73,-97,-126,-126
-73,-126,-53,100,-9,-90,24,-68,-73,-97,-126,-126
-73,-131,-58,102,-7,-95,24,-68,-68,-97,-126,-131
-78,-131,-53,104,-12,-92,19,-68,-68,-102,-126,-136
-82,-136,-53,109,-14,-95,19,-68,-68,-102,-126,-141
-82,-136,-53,109,-14,-95,19,-68,-63,-102,-126,-141
-82,-136,-53,109,-14,-95,24,-68,-63,-97,-122,-136
-73,-122,-48,97,-12,-85,24,-63,-63,-87,-117,-126
-63,-107,-43,85,-9,-75,24,-63,-63,-87,-117,-126
-53,-146,-92,100,19,-119,29,-58,-87,-117,-151,-156
-68,-204,-136,136,34,-170,43,-39,-97,-161,-204,-214
-107,-229,-122,168,7,-175,82,9,-97,-204,-263,-283
-131,-195,-63,163,-34,-129,97,43,-53,-180,-248,-273
-107,-97,9,102,-58,-43,92,73,48,-48,-117,-136
-14,29,43,-7,-29,36,58,175,161,112,63,39
102,200,97,-151,2,148,29,366,297,331,322,278
273,395,122,-334,75,258,-82,458,424,580,639,590
502,595,92,-549,204,344,-244,400,527,888,1054,1010
585,692,107,-639,239,400,-322,273,575,1039,1268,1239
522,712,190,-617,165,451,-385,151,551,980,1224,1229
361,697,336,-529,12,517,-390,53,536,844,1044,1078
141,649,507,-395,-183,578,-283,-204,468,649,761,775
-14,531,546,-258,-280,539,-214,-434,341,434,458,497
-53,326,380,-136,-217,353,-244,-590,112,195,200,234
-92,170,263,-39,-178,217,-253,-673,-58,29,19,43
-122,24,146,48,-134,85,-239,-629,-165,-87,-102,-82
-136,-29,107,82,-122,39,-204,-512,-185,-126,-146,-136
-97,-78,19,87,-58,-29,-126,-326,-175,-131,-151,-151
-53,-112,-58,82,2,-85,-82,-209,-161,-136,-156,-156
-48,-117,-68,82,9,-92,-53,-146,-131,-126,-141,-151
-43,-117,-73,80,14,-95,-24,-97,-107,-107,-136,-141
-34,-102,-68,68,17,-85,-4,-58,-87,-87,-117,-126
-19,-92,-73,56,26,-82,9,-34,-63,-82,-107,-112
-29,-92,-63,61,17,-78,14,-29,-53,-82,-107,-112
-43,-92,-48,68,2,-70,19,-29,-48,-82,-107,-112
-58,-97,-39,78,-9,-68,19,-19,-43,-78,-102,-107
-58,-102,-43,80,-7,-73,24,-19,-43,-73,-102,-107
-53,-107,-53,80,0,-80,29,-14,-48,-73,-97,-112
-53,-107,-53,80,0,-80,29,-9,-48,-73,-92,-112
-53,-102,-48,78,-2,-75,34,-4,-48,-73,-92,-107
-53,-97,-43,75,-4,-70,39,-4,-43,-73,-92,-102
-48,-97,-48,73,0,-73,39,-9,-43,-73,-92,-102
-48,-97,-48,73,0,-73,43,-14,-43,-73,-92,-102
-48,-97,-48,73,0,-73,43,-14,-43,-68,-92,-97
-48,-97,-48,73,0,-73,39,-9,-43,-68,-92,-97
-48,-97,-48,73,0,-73,39,-9,-43,-68,-92,-97
-48,-97,-48,73,0,-73,39,-9,-43,-68,-97,-97
-53,-97,-43,75,-4,-70,39,-9,-43,-73,-97,-97
-53,-102,-48,78,-2,-75,39,-9,-43,-73,-97,-97
-48,-102,-53,75,2,-78,43,-9,-43,-73,-92,-97
-43,-97,-53,70,4,-75,43,-9,-43,-73,-92,-97
-43,-97,-53,70,4,-75,39,-9,-43,-73,-92,-97
-43,-97,-53,70,4,-75,34,-4,-43,-73,-92,-97
-43,-102,-58,73,7,-80,34,-4,-48,-73,-92,-97
-43,-102,-58,73,7,-80,34,-4,-53,-73,-92,-97
-43,-97,-53,70,4,-75,29,-4,-53,-78,-92,-97
-43,-97,-53,70,4,-75,29,-4,-48,-82,-92,-92
-43,-97,-53,70,4,-75,29,-4,-43,-82,-92,-92
-39,-97,-58,68,9,-78,29,-4,-39,-82,-92,-92
-39,-97,-58,68,9,-78,34,0,-43,-78,-87,-92
-39,-92,-53,65,7,-73,39,0,-43,-68,-87,-92
-34,-87,-53,61,9,-70,34,0,-43,-68,-82,-87
-34,-82,-48,58,7,-65,34,4,-43,-68,-78,-82
-34,-78,-43,56,4,-61,29,4,-39,-68,-78,-78
-29,-78,-48,53,9,-63,24,4,-39,-63,-78,-78
-24,-82,-58,53,17,-70,19,4,-43,-63,-73,-82
-24,-87,-63,56,19,-75,19,9,-48,-63,-73,-82
-29,-87,-58,58,14,-73,19,9,-43,-63,-68,-82
-34,-87,-53,61,9,-70,14,14,-43,-58,-68,-78
-24,-82,-58,53,17,-70,4,19,-43,-53,-68,-78
-14,-78,-63,46,24,-70,4,24,-43,-53,-63,-73
-9,-78,-68,43,29,-73,4,34,-39,-48,-63,-68
-9,-73,-63,41,26,-68,-4,34,-39,-43,-63,-63
-14,-78,-63,46,24,-70,-9,34,-34,-43,-58,-63
-14,-78,-63,46,24,-70,-9,39,-34,-39,-48,-68
-9,-68,-58,39,24,-63,-4,43,-34,-34,-43,-58
-4,-63,-58,34,26,-61,-9,48,-34,-24,-34,-48
9,-58,-68,24,39,-63,-19,58,-29,-24,-24,-39
14,-53,-68,19,41,-61,-24,73,-29,-19,-19,-29
24,-48,-73,12,48,-61,-29,87,-19,-14,-9,-19
34,-39,-73,2,53,-56,-34,97,-4,9,9,-4
48,-24,-73,-12,61,-48,-39,107,4,19,24,9
68,-4,-73,-31,70,-39,-43,117,9,29,39,19
82,0,-82,-41,82,-41,-53,131,9,39,48,29
87,14,-73,-51,80,-29,-58,146,19,53,63,58
107,34,-73,-70,90,-19,-73,161,34,68,87,82
117,48,-68,-82,92,-9,-87,180,43,82,112,102
131,68,-63,-100,97,2,-102,204,48,102,126,122
161,92,-68,-126,114,12,-112,214,58,122,151,151
175,122,-53,-148,114,34,-122,234,82,151,180,180
185,141,-43,-163,114,48,-126,253,92,175,204,200
209,170,-39,-190,124,65,-141,273,122,200,239,229
234,190,-43,-212,139,73,-151,292,146,224,273,263
244,200,-43,-222,143,78,-156,307,156,248,302,292
253,229,-24,-241,139,102,-161,322,170,273,322,322
263,248,-14,-256,139,117,-170,331,185,302,341,341
273,268,-4,-270,139,131,-180,341,195,317,356,351
273,283,9,-278,131,146,-180,351,209,326,380,375
273,287,14,-280,129,151,-175,356,229,341,390,390
263,292,29,-278,117,161,-180,366,229,351,395,390
258,297,39,-278,109,168,-180,356,234,356,400,380
248,302,53,-275,97,178,-165,351,244,356,395,385
234,292,58,-263,87,175,-156,341,253,346,375,366
209,283,73,-246,68,178,-131,326,244,322,356,341
190,258,68,-224,61,163,-122,297,224,297,331,312
165,234,68,-200,48,151,-107,278,209,283,302,287
146,214,68,-180,39,141,-97,253,195,258,263,253
126,180,53,-153,36,117,-78,224,180,224,244,224
97,146,48,-122,24,97,-63,195,156,195,204,195
68,122,53,-95,7,87,-53,161,131,170,170,161
48,102,53,-75,-2,78,-43,131,107,131,141,126
19,68,48,-43,-14,58,-29,112,87,107,107,102
0,48,48,-24,-24,48,-24,82,68,87,73,68
-4,34,39,-14,-21,36,-19,63,53,68,58,53
-14,9,24,2,-19,17,-14,53,43,43,43,29
-19,0,19,9,-19,9,-9,29,24,29,14,4
-29,-9,19,19,-24,4,-4,24,9,19,0,-9
-34,-19,14,26,-24,-2,0,4,0,4,-9,-19
-39,-29,9,34,-24,-9,0,-9,-9,-9,-19,-29
-53,-43,9,48,-31,-17,0,-19,-9,-24,-29,-34
-63,-53,9,58,-36,-21,4,-19,-14,-29,-34,-39
-73,-63,9,68,-41,-26,9,-19,-24,-29,-39,-48
-73,-68,4,70,-39,-31,9,-29,-34,-39,-48,-58
-73,-73,0,73,-36,-36,9,-34,-34,-43,-53,-58
-73,-82,-9,78,-31,-46,9,-39,-39,-43,-53,-63
-73,-82,-9,78,-31,-46,9,-48,-39,-43,-63,-68
-73,-82,-9,78,-31,-46,9,-48,-39,-48,-63,-68
-73,-82,-9,78,-31,-46,9,-48,-43,-48,-63,-68
-73,-82,-9,78,-31,-46,9,-48,-43,-48,-63,-68
-82,-87,-4,85,-39,-46,9,-48,-43,-48,-68,-68
-82,-92,-9,87,-36,-51,9,-48,-48,-53,-73,-68
-87,-87,0,87,-43,-43,9,-48,-48,-53,-73,-73
-87,-87,0,87,-43,-43,9,-53,-48,-53,-73,-78
-92,-87,4,90,-48,-41,9,-53,-53,-58,-78,-82
-97,-92,4,95,-51,-43,14,-53,-53,-58,-78,-82
-92,-97,-4,95,-43,-51,14,-53,-58,-63,-82,-87
-92,-102,-9,97,-41,-56,14,-58,-63,-68,-87,-92
-92,-102,-9,97,-41,-56,14,-58,-63,-68,-87,-92
-97,-107,-9,102,-43,-58,14,-53,-63,-68,-87,-92
-102,-112,-9,107,-46,-61,14,-53,-63,-68,-87,-92
-102,-117,-14,109,-43,-65,14,-53,-63,-68,-87,-97
-97,-112,-14,104,-41,-63,14,-53,-63,-68,-92,-97
-97,-107,-9,102,-43,-58,14,-53,-63,-68,-92,-92
-92,-102,-9,97,-41,-56,9,-53,-58,-68,-87,-92
-92,-97,-4,95,-43,-51,9,-48,-58,-68,-87,-92
-92,-97,-4,95,-43,-51,9,-48,-58,-68,-87,-87
-87,-97,-9,92,-39,-53,9,-48,-58,-63,-87,-82
-82,-97,-14,90,-34,-56,9,-48,-58,-63,-87,-82
-82,-92,-9,87,-36,-51,9,-48,-58,-63,-82,-78
-87,-92,-4,90,-41,-48,4,-53,-58,-63,-82,-78
-92,-92,0,92,-46,-46,0,-58,-53,-63,-82,-78
-92,-92,0,92,-46,-46,0,-58,-58,-63,-82,-78
-92,-92,0,92,-46,-46,0,-58,-63,-63,-78,-78
-92,-97,-4,95,-43,-51,0,-58,-63,-58,-78,-78
-87,-97,-9,92,-39,-53,0,-58,-63,-58,-73,-78
-82,-92,-9,87,-36,-51,0,-58,-63,-58,-73,-78
-78,-87,-9,82,-34,-48,0,-58,-63,-58,-68,-73
-78,-87,-9,82,-34,-48,0,-53,-63,-58,-68,-73
-78,-87,-9,82,-34,-48,0,-53,-63,-58,-68,-73
-73,-87,-14,80,-29,-51,0,-53,-58,-58,-68,-68
-73,-82,-9,78,-31,-46,0,-53,-53,-58,-68,-68
-78,-78,0,78,-39,-39,0,-43,-53,-53,-68,-68
-78,-78,0,78,-39,-39,-4,-39,-53,-48,-68,-63
-73,-73,0,73,-36,-36,-4,-43,-53,-48,-63,-58
-68,-68,0,68,-34,-34,-4,-43,-53,-43,-58,-53
-68,-68,0,68,-34,-34,0,-43,-53,-43,-58,-53
-68,-68,0,68,-34,-34,0,-43,-53,-39,-58,-53
-78,-87,-9,82,-34,-48,0,-48,-48,-39,-58,-53
-82,-97,-14,90,-34,-56,0,-53,-43,-39,-58,-58
-82,-92,-9,87,-36,-51,0,-48,-48,-43,-58,-58
-78,-87,-9,82,-34,-48,0,-48,-48,-48,-58,-58
-78,-82,-4,80,-36,-43,0,-48,-48,-48,-58,-58
-78,-78,0,78,-39,-39,0,-43,-43,-48,-58,-58
-78,-82,-4,80,-36,-43,0,-43,-43,-48,-63,-53
-78,-82,-4,80,-36,-43,0,-39,-43,-48,-63,-48
-73,-82,-9,78,-31,-46,0,-39,-43,-48,-63,-53
-68,-82,-14,75,-26,-48,0,-43,-48,-53,-63,-53
-78,-87,-9,82,-34,-48,0,-43,-48,-53,-63,-53
-78,-87,-9,82,-34,-48,-4,-43,-53,-53,-68,-53
-78,-82,-4,80,-36,-43,-4,-48,-53,-48,-63,-53
-78,-78,0,78,-39,-39,0,-48,-53,-48,-58,-53
-73,-78,-4,75,-34,-41,0,-53,-53,-48,-53,-53
-73,-78,-4,75,-34,-41,-4,-53,-53,-48,-48,-53
-78,-78,0,78,-39,-39,-4,-48,-48,-48,-48,-53
-78,-78,0,78,-39,-39,0,-48,-48,-48,-48,-53
-78,-78,0,78,-39,-39,0,-48,-48,-48,-53,-53
-78,-78,0,78,-39,-39,0,-48,-53,-48,-58,-53
-78,-73,4,75,-41,-34,0,-48,-53,-48,-58,-58
-78,-73,4,75,-41,-34,0,-48,-53,-48,-58,-58
-73,-73,0,73,-36,-36,0,-48,-53,-48,-58,-58
-73,-73,0,73,-36,-36,0,-53,-53,-48,-58,-58
-73,-73,0,73,-36,-36,0,-53,-48,-48,-53,-58
-73,-68,4,70,-39,-31,0,-53,-48,-48,-53,-58
-68,-68,0,68,-34,-34,0,-53,-48,-48,-53,-58
-63,-68,-4,65,-29,-36,0,-53,-48,-48,-53,-58
-63,-73,-9,68,-26,-41,0,-48,-48,-48,-53,-58
-68,-78,-9,73,-29,-43,4,-48,-48,-53,-58,-58
-68,-78,-9,73,-29,-43,4,-48,-48,-53,-58,-58
-68,-78,-9,73,-29,-43,9,-48,-48,-58,-58,-58
-68,-78,-9,73,-29,-43,9,-48,-48,-58,-58,-58
-68,-78,-9,73,-29,-43,9,-48,-48,-58,-58,-58
-68,-78,-9,73,-29,-43,9,-48,-48,-53,-58,-58
-68,-78,-9,73,-29,-43,9,-48,-48,-48,-58,-58
-68,-78,-9,73,-29,-43,9,-48,-48,-48,-58,-58
-68,-78,-9,73,-29,-43,9,-48,-48,-48,-58,-58
-68,-73,-4,70,-31,-39,9,-48,-48,-48,-53,-53
-68,-68,0,68,-34,-34,9,-48,-48,-48,-48,-48
-68,-68,0,68,-34,-34,9,-48,-48,-48,-48,-48
-68,-68,0,68,-34,-34,9,-48,-48,-48,-48,-48
-68,-73,-4,70,-31,-39,9,-48,-48,-48,-53,-48
-68,-78,-9,73,-29,-43,9,-48,-48,-48,-58,-48
-73,-82,-9,78,-31,-46,9,-48,-48,-48,-58,-48
-78,-87,-9,82,-34,-48,9,-48,-48,-48,-58,-48
-78,-87,-9,82,-34,-48,9,-48,-48,-48,-58,-48
-78,-87,-9,82,-34,-48,9,-48,-48,-48,-58,-48
-78,-82,-4,80,-36,-43,9,-48,-48,-48,-58,-48
-78,-78,0,78,-39,-39,9,-48,-48,-48,-58,-48
-73,-78,-4,75,-34,-41,9,-48,-48,-48,-58,-48
-68,-78,-9,73,-29,-43,9,-48,-48,-48,-58,-48
-68,-78,-9,73,-29,-43,9,-48,-48,-48,-53,-48
-68,-78,-9,73,-29,-43,9,-48,-48,-48,-48,-48
-68,-78,-9,73,-29,-43,9,-48,-48,-48,-48,-48
-68,-78,-9,73,-29,-43,9,-48,-48,-48,-48,-48
-68,-78,-9,73,-29,-43,9,-48,-48,-48,-48,-48
-68,-78,-9,73,-29,-43,9,-48,-48,-48,-48,-48
-68,-78,-9,73,-29,-43,9,-48,-48,-48,-48,-48
-68,-78,-9,73,-29,-43,9,-48,-48,-48,-48,-48
-63,-73,-9,68,-26,-41,9,-48,-48,-48,-48,-48
-58,-68,-9,63,-24,-39,9,-48,-48,-48,-48,-48
-58,-68,-9,63,-24,-39,9,-48,-48,-48,-48,-48
-58,-68,-9,63,-24,-39,9,-48,-48,-48,-48,-48
-58,-68,-9,63,-24,-39,4,-48,-48,-48,-48,-48
-58,-68,-9,63,-24,-39,0,-48,-48,-48,-48,-48
-58,-68,-9,63,-24,-39,0,-48,-48,-48,-48,-48
-58,-68,-9,63,-24,-39,0,-48,-48,-48,-48,-48
-58,-68,-9,63,-24,-39,0,-48,-48,-53,-48,-48
-58,-68,-9,63,-24,-39,0,-48,-48,-58,-48,-48
-58,-68,-9,63,-24,-39,0,-48,-48,-58,-48,-48
-58,-68,-9,63,-24,-39,0,-48,-48,-58,-48,-48
-58,-68,-9,63,-24,-39,4,-48,-48,-58,-48,-48
-58,-68,-9,63,-24,-39,9,-48,-48,-58,-48,-48
-58,-68,-9,63,-24,-39,9,-48,-53,-58,-48,-48
-58,-68,-9,63,-24,-39,9,-48,-58,-58,-48,-48
-58,-68,-9,63,-24,-39,9,-48,-58,-53,-48,-48
-58,-68,-9,63,-24,-39,9,-48,-58,-48,-48,-48
-58,-68,-9,63,-24,-39,9,-48,-58,-48,-48,-48
-58,-68,-9,63,-24,-39,9,-48,-58,-48,-48,-48
-63,-68,-4,65,-29,-36,9,-53,-58,-48,-53,-48
-68,-68,0,68,-34,-34,9,-58,-58,-48,-58,-48
-68,-73,-4,70,-31,-39,9,-58,-58,-48,-58,-48
-68,-78,-9,73,-29,-43,9,-58,-58,-48,-58,-48
-63,-78,-14,70,-24,-46,9,-53,-58,-48,-58,-48
-58,-78,-19,68,-19,-48,9,-48,-58,-48,-58,-48
-58,-73,-14,65,-21,-43,9,-48,-53,-53,-58,-48
-58,-68,-9,63,-24,-39,9,-48,-48,-58,-58,-48
-58,-68,-9,63,-24,-39,9,-48,-48,-58,-53,-48
-58,-68,-9,63,-24,-39,9,-48,-48,-58,-48,-48
-58,-68,-9,63,-24,-39,9,-48,-48,-58,-48,-48
-58,-68,-9,63,-24,-39,9,-48,-48,-58,-48,-48
-58,-68,-9,63,-24,-39,9,-48,-48,-53,-48,-48
-58,-68,-9,63,-24,-39,9,-48,-48,-48,-48,-48
-63,-68,-4,65,-29,-36,9,-48,-48,-48,-48,-48
-68,-68,0,68,-34,-34,9,-48,-48,-48,-48,-48
-68,-68,0,68,-34,-34,9,-48,-48,-48,-48,-48
-68,-68,0,68,-34,-34,9,-48,-48,-48,-48,-48
-68,-73,-4,70,-31,-39,9,-48,-48,-48,-48,-48
-68,-78,-9,73,-29,-43,9,-48,-48,-48,-48,-48
-68,-78,-9,73,-29,-43,9,-48,-48,-48,-48,-48
-68,-78,-9,73,-29,-43,9,-48,-48,-48,-48,-48
-68,-73,-4,70,-31,-39,9,-48,-48,-53,-48,-48
-68,-68,0,68,-34,-34,9,-48,-48,-58,-48,-48
-68,-68,0,68,-34,-34,9,-48,-48,-58,-53,-48
-68,-68,0,68,-34,-34,9,-48,-48,-58,-58,-48
-68,-68,0,68,-34,-34,9,-53,-48,-53,-58,-43
-68,-68,0,68,-34,-34,9,-58,-48,-48,-58,-39
-68,-68,0,68,-34,-34,9,-58,-48,-48,-53,-39
-68,-68,0,68,-34,-34,9,-58,-48,-48,-48,-39
-68,-68,0,68,-34,-34,9,-58,-48,-53,-48,-43
-68,-68,0,68,-34,-34,9,-58,-48,-58,-48,-48
-63,-68,-4,65,-29,-36,9,-58,-48,-58,-48,-48
-58,-68,-9,63,-24,-39,9,-58,-48,-58,-48,-48
-58,-68,-9,63,-24,-39,9,-53,-48,-58,-48,-48
-58,-68,-9,63,-24,-39,9,-48,-48,-58,-48,-48
-63,-68,-4,65,-29,-36,9,-48,-48,-58,-48,-48
-68,-68,0,68,-34,-34,9,-48,-48,-58,-48,-48
-68,-68,0,68,-34,-34,9,-48,-48,-58,-48,-48
-68,-68,0,68,-34,-34,9,-48,-48,-58,-48,-48
-63,-53,9,58,-36,-21,24,-39,-39,-48,-43,-43
-53,-34,19,43,-36,-7,39,-29,-29,-39,-34,-34
-43,-14,29,29,-36,7,53,-24,-19,-34,-24,-24
-39,-9,29,24,-34,9,53,-19,-9,-24,-19,-14
-39,0,39,19,-39,19,58,-4,-4,-19,-14,-14
-39,9,48,14,-43,29,82,4,4,-19,-14,-9
-34,14,48,9,-41,31,78,19,14,-9,-9,-4
-34,34,68,0,-51,51,68,24,24,-4,-4,4
-24,43,68,-9,-46,56,53,19,29,0,0,4
-24,63,87,-19,-56,75,29,4,34,14,14,14
-24,78,102,-26,-63,90,0,-9,39,24,19,29
-24,87,112,-31,-68,100,-19,-9,39,24,29,34
-14,87,102,-36,-58,95,-29,-9,43,39,29,34
-4,87,92,-41,-48,90,-43,-9,43,39,34,43
-4,92,97,-43,-51,95,-48,-9,43,39,34,43
-4,78,82,-36,-43,80,-53,-9,29,34,29,43
0,58,58,-29,-29,58,-63,-24,19,24,24,34
4,48,43,-26,-19,46,-63,-29,9,14,19,29
9,39,29,-24,-9,34,-58,-24,0,9,24,29
14,34,19,-24,-2,26,-53,-19,-4,4,19,24
-4,0,4,2,-4,2,-39,-24,-14,-9,4,4
-19,-14,4,17,-12,-4,-24,-24,-24,-19,-9,-4
-34,-34,0,34,-17,-17,-19,-39,-34,-34,-19,-19
-48,-58,-9,53,-19,-34,-14,-53,-43,-43,-34,-43
-48,-63,-14,56,-17,-39,-14,-63,-53,-53,-43,-48
-53,-73,-19,63,-17,-46,-14,-63,-58,-58,-48,-48
-63,-82,-19,73,-21,-51,-14,-68,-58,-68,-58,-53
-68,-87,-19,78,-24,-53,-14,-68,-63,-73,-63,-53
-68,-92,-24,80,-21,-58,-9,-68,-63,-73,-68,-53
-73,-97,-24,85,-24,-61,-9,-68,-63,-73,-73,-53
-73,-97,-24,85,-24,-61,-9,-68,-63,-73,-73,-58
-73,-97,-24,85,-24,-61,-9,-68,-63,-78,-73,-63
-73,-97,-24,85,-24,-61,-4,-68,-63,-78,-68,-63
-73,-97,-24,85,-24,-61,-4,-68,-63,-78,-63,-63
-73,-97,-24,85,-24,-61,-9,-73,-63,-78,-68,-63
-73,-92,-19,82,-26,-56,-14,-78,-68,-78,-68,-68
-73,-92,-19,82,-26,-56,-14,-78,-68,-78,-73,-73
-73,-92,-19,82,-26,-56,-19,-78,-68,-82,-78,-73
-68,-97,-29,82,-19,-63,-14,-73,-68,-82,-78,-73
-63,-97,-34,80,-14,-65,-9,-68,-63,-82,-78,-73
-63,-97,-34,80,-14,-65,-4,-68,-68,-78,-73,-68
-63,-97,-34,80,-14,-65,-4,-63,-73,-78,-73,-68
-73,-102,-29,87,-21,-65,-4,-68,-73,-92,-78,-78
-73,-126,-53,100,-9,-90,9,-53,-87,-117,-112,-107
-87,-165,-78,126,-4,-122,39,-19,-87,-151,-165,-165
-102,-156,-53,129,-24,-104,68,34,-58,-141,-165,-175
-102,-92,9,97,-56,-41,68,73,9,-73,-107,-122
-43,19,63,12,-53,41,48,141,107,63,34,19
87,156,68,-122,9,112,0,297,219,239,224,195
239,307,68,-273,85,187,-58,444,341,444,458,414
468,502,34,-485,217,268,-209,478,453,683,775,741
644,649,4,-646,319,326,-351,385,507,878,1058,1039
649,683,34,-666,307,358,-419,219,502,927,1161,1161
536,683,146,-610,195,414,-468,63,458,854,1102,1127
322,649,326,-485,-2,488,-439,-68,419,673,868,922
136,551,414,-344,-139,483,-356,-317,292,463,600,649
-4,361,366,-178,-185,363,-312,-531,102,234,307,385
-39,151,190,-56,-114,170,-331,-614,-92,34,92,161
-63,24,87,19,-75,56,-312,-619,-195,-68,-14,24
-87,-68,19,78,-53,-24,-253,-527,-234,-136,-87,-63
-87,-63,24,75,-56,-19,-190,-366,-195,-126,-97,-78
-58,-78,-19,68,-19,-48,-117,-219,-170,-117,-97,-87
-24,-82,-58,53,17,-70,-78,-141,-146,-112,-97,-82
-24,-73,-48,48,12,-61,-48,-92,-112,-97,-82,-73
-24,-68,-43,46,9,-56,-24,-58,-87,-78,-78,-63
-24,-53,-29,39,2,-41,-4,-29,-73,-58,-58,-53
-19,-43,-24,31,2,-34,9,-14,-53,-53,-53,-43
-19,-43,-24,31,2,-34,14,-9,-48,-53,-58,-43
-24,-43,-19,34,-2,-31,19,-9,-48,-53,-58,-48
-39,-48,-9,43,-14,-29,19,0,-43,-53,-53,-48
-43,-53,-9,48,-17,-31,24,0,-43,-53,-53,-48
-43,-58,-14,51,-14,-36,29,0,-48,-53,-53,-53
-43,-68,-24,56,-9,-46,29,0,-48,-53,-53,-53
-43,-73,-29,58,-7,-51,29,4,-48,-53,-53,-53
-39,-58,-19,48,-9,-39,29,4,-43,-53,-48,-48
-29,-48,-19,39,-4,-34,29,4,-43,-53,-43,-43
-29,-39,-9,34,-9,-24,34,4,-43,-53,-43,-43
-29,-29,0,29,-14,-14,39,4,-43,-48,-43,-39
-29,-43,-14,36,-7,-29,39,4,-43,-48,-43,-43
-29,-58,-29,43,0,-43,39,0,-43,-48,-43,-48
-39,-58,-19,48,-9,-39,39,0,-43,-53,-48,-48
-53,-58,-4,56,-24,-31,39,0,-43,-63,-48,-48
-43,-58,-14,51,-14,-36,34,0,-43,-63,-48,-48
-29,-53,-24,41,-2,-39,34,0,-43,-63,-43,-48
-24,-48,-24,36,0,-36,34,4,-39,-58,-43,-43
-24,-48,-24,36,0,-36,34,9,-34,-53,-43,-39
-24,-48,-24,36,0,-36,34,14,-34,-53,-48,-39
-24,-53,-29,39,2,-41,34,14,-34,-53,-53,-39
-29,-58,-29,43,0,-43,34,14,-39,-53,-53,-39
-34,-58,-24,46,-4,-41,29,14,-43,-53,-53,-39
-34,-58,-24,46,-4,-41,29,14,-39,-53,-48,-34
-34,-58,-24,46,-4,-41,29,14,-39,-53,-43,-34
-24,-53,-29,39,2,-41,29,14,-34,-53,-43,-34
-19,-48,-29,34,4,-39,29,19,-34,-53,-39,-34
-19,-43,-24,31,2,-34,29,19,-34,-48,-39,-34
-14,-43,-29,29,7,-36,24,19,-34,-48,-39,-34
-19,-43,-24,31,2,-34,24,24,-34,-48,-39,-34
-24,-39,-14,31,-4,-26,24,24,-29,-48,-39,-29
-19,-39,-19,29,0,-29,24,24,-29,-43,-39,-29
-14,-39,-24,26,4,-31,19,24,-29,-43,-34,-29
-14,-39,-24,26,4,-31,19,29,-29,-43,-39,-24
-14,-39,-24,26,4,-31,19,29,-24,-43,-39,-24
-14,-39,-24,26,4,-31,14,34,-24,-39,-39,-19
-4,-34,-29,19,12,-31,4,39,-24,-34,-39,-19
4,-29,-34,12,19,-31,4,39,-24,-34,-34,-19
9,-29,-39,9,24,-34,4,43,-19,-29,-29,-19
9,-24,-34,7,21,-29,-4,43,-19,-24,-29,-14
9,-24,-34,7,21,-29,-9,48,-14,-24,-29,-9
14,-24,-39,4,26,-31,-9,63,-19,-24,-19,-9
24,-14,-39,-4,31,-26,-9,73,-19,-24,-14,0
34,-4,-39,-14,36,-21,-19,78,-14,-14,-4,9
48,0,-48,-24,48,-24,-29,87,-9,-9,4,19
48,4,-43,-26,46,-19,-34,102,-9,0,9,29
53,9,-43,-31,48,-17,-39,117,0,4,19,39
63,19,-43,-41,53,-12,-43,126,14,29,39,48
78,34,-43,-56,61,-4,-53,141,24,39,53,58
102,53,-48,-78,75,2,-63,156,29,48,68,68
131,63,-68,-97,100,-2,-73,175,34,58,78,78
146,82,-63,-114,104,9,-78,195,48,73,87,97
165,102,-63,-134,114,19,-87,209,63,92,112,112
175,117,-58,-146,117,29,-97,229,73,107,141,131
190,131,-58,-161,124,36,-112,253,82,122,156,151
224,156,-68,-190,146,43,-122,263,92,141,180,185
244,190,-53,-217,148,68,-131,283,112,170,209,219
258,209,-48,-234,153,80,-141,307,122,195,234,239
278,234,-43,-256,161,95,-156,326,141,214,258,258
292,248,-43,-270,168,102,-165,341,156,234,287,287
302,258,-43,-280,173,107,-175,356,165,253,317,312
317,292,-24,-305,170,134,-185,370,185,278,331,336
322,307,-14,-314,168,146,-190,375,204,302,346,356
331,326,-4,-329,168,161,-190,385,219,317,366,370
341,351,9,-346,165,180,-190,400,234,336,390,395
341,361,19,-351,161,190,-185,405,248,351,395,405
326,366,39,-346,143,202,-180,405,248,356,400,409
317,366,48,-341,134,207,-170,385,253,356,405,400
297,366,68,-331,114,217,-156,375,253,351,405,400
273,351,78,-312,97,214,-146,361,258,341,385,380
248,341,92,-295,78,217,-126,346,253,322,361,361
229,322,92,-275,68,207,-122,312,234,297,331,331
204,302,97,-253,53,200,-107,283,219,273,302,307
180,283,102,-231,39,192,-97,253,200,239,263,273
156,248,92,-202,31,170,-82,224,180,214,248,248
117,200,82,-158,17,141,-73,190,156,185,209,219
82,161,78,-122,2,119,-63,151,131,151,170,180
68,141,73,-104,-2,107,-48,122,107,112,141,146
43,107,63,-75,-9,85,-34,107,92,92,117,126
29,87,58,-58,-14,73,-34,82,78,82,92,92
24,78,53,-51,-14,65,-29,63,63,73,78,78
14,58,43,-36,-14,51,-24,53,53,53,63,58
9,48,39,-29,-14,43,-19,29,39,39,39,39
0,39,39,-19,-19,39,-14,24,24,24,29,29
-4,29,34,-12,-19,31,-9,9,9,9,19,19
-14,14,29,0,-21,21,-9,-4,0,0,9,9
-24,0,24,12,-24,12,-9,-19,0,-9,0,4
-24,-4,19,14,-21,7,-4,-19,-4,-9,-4,0
-34,-9,24,21,-29,7,0,-19,-9,-9,-4,-4
-34,-9,24,21,-29,7,0,-29,-14,-19,-9,-9
-34,-9,24,21,-29,7,0,-29,-14,-24,-14,-9
-39,-14,24,26,-31,4,0,-29,-19,-24,-14,-14
-43,-14,29,29,-36,7,0,-39,-19,-24,-24,-19
-43,-19,24,31,-34,2,0,-43,-19,-29,-29,-19
-43,-24,19,34,-31,-2,0,-48,-24,-29,-34,-19
-43,-24,19,34,-31,-2,0,-48,-24,-34,-34,-24
-53,-29,24,41,-39,-2,0,-48,-24,-39,-34,-29
-53,-29,24,41,-39,-2,0,-48,-29,-43,-34,-29
-58,-24,34,41,-46,4,0,-48,-29,-43,-34,-29
-53,-29,24,41,-39,-2,4,-53,-29,-39,-34,-29
-48,-29,19,39,-34,-4,9,-53,-34,-39,-39,-34
-48,-34,14,41,-31,-9,14,-48,-34,-39,-39,-34
-43,-34,9,39,-26,-12,14,-43,-34,-39,-39,-34
-53,-34,19,43,-36,-7,14,-48,-39,-43,-39,-34
-63,-34,29,48,-46,-2,14,-48,-43,-48,-39,-34
-58,-39,19,48,-39,-9,14,-43,-43,-48,-39,-34
-53,-39,14,46,-34,-12,14,-43,-43,-48,-39,-34
-53,-39,14,46,-34,-12,14,-43,-39,-43,-39,-39
-48,-34,14,41,-31,-9,14,-43,-34,-39,-43,-39
-53,-29,24,41,-39,-2,14,-48,-34,-39,-43,-34
-53,-29,24,41,-39,-2,9,-53,-29,-39,-39,-34
-53,-29,24,41,-39,-2,9,-48,-29,-43,-39,-39
-53,-29,24,41,-39,-2,9,-48,-29,-48,-39,-43
-48,-29,19,39,-34,-4,9,-48,-29,-43,-39,-43
-43,-29,14,36,-29,-7,9,-48,-29,-43,-39,-43
-43,-24,19,34,-31,-2,9,-48,-29,-43,-34,-39
-43,-24,19,34,-31,-2,9,-48,-29,-43,-34,-39
-43,-29,14,36,-29,-7,9,-48,-24,-43,-34,-39
-43,-34,9,39,-26,-12,9,-48,-24,-43,-39,-39
-43,-34,9,39,-26,-12,9,-48,-24,-43,-39,-39
-48,-39,9,43,-29,-14,9,-48,-24,-39,-39,-39
-48,-39,9,43,-29,-14,9,-48,-24,-39,-39,-39
-43,-34,9,39,-26,-12,9,-48,-24,-39,-43,-39
-39,-24,14,31,-26,-4,9,-48,-24,-39,-39,-34
-39,-19,19,29,-29,0,9,-43,-24,-39,-39,-34
-39,-19,19,29,-29,0,9,-43,-24,-39,-34,-34
-34,-19,14,26,-24,-2,9,-43,-24,-39,-29,-34
-34,-19,14,26,-24,-2,9,-43,-24,-39,-29,-39
-39,-24,14,31,-26,-4,9,-39,-24,-39,-29,-39
-39,-29,9,34,-24,-9,4,-39,-24,-39,-34,-34
-39,-29,9,34,-24,-9,4,-43,-24,-43,-39,-34
-39,-29,9,34,-24,-9,4,-43,-24,-43,-39,-34
-39,-29,9,34,-24,-9,9,-43,-24,-43,-39,-34
-39,-24,14,31,-26,-4,4,-43,-24,-39,-39,-34
-39,-29,9,34,-24,-9,0,-43,-24,-39,-39,-34
-34,-29,4,31,-19,-12,0,-43,-24,-34,-39,-39
-34,-24,9,29,-21,-7,0,-39,-29,-29,-39,-39
-29,-19,9,24,-19,-4,0,-39,-24,-29,-39,-39
-29,-19,9,24,-19,-4,0,-43,-19,-29,-39,-39
-29,-19,9,24,-19,-4,0,-43,-14,-29,-39,-39
-29,-24,4,26,-17,-9,0,-43,-14,-29,-43,-39
-29,-24,4,26,-17,-9,0,-39,-19,-29,-39,-34
-29,-24,4,26,-17,-9,0,-39,-24,-29,-34,-34
-29,-24,4,26,-17,-9,0,-43,-29,-34,-34,-34
-39,-29,9,34,-24,-9,0,-43,-29,-34,-34,-34
-39,-34,4,36,-21,-14,-4,-43,-34,-34,-39,-39
-39,-39,0,39,-19,-19,-4,-48,-34,-34,-39,-43
-39,-39,0,39,-19,-19,0,-48,-34,-39,-39,-43
-34,-39,-4,36,-14,-21,0,-53,-34,-39,-39,-43
-34,-39,-4,36,-14,-21,-4,-48,-34,-34,-39,-43
-39,-39,0,39,-19,-19,-4,-39,-29,-29,-39,-43
-39,-34,4,36,-21,-14,0,-39,-24,-29,-39,-43
-39,-29,9,34,-24,-9,0,-39,-19,-29,-39,-43
-39,-29,9,34,-24,-9,0,-39,-24,-34,-39,-43
-39,-29,9,34,-24,-9,0,-39,-24,-39,-39,-48
-39,-34,4,36,-21,-14,0,-39,-24,-39,-43,-48
-39,-34,4,36,-21,-14,0,-39,-24,-39,-48,-48
-43,-39,4,41,-24,-17,0,-43,-24,-39,-48,-48
-43,-43,0,43,-21,-21,0,-43,-24,-39,-48,-48
-43,-39,4,41,-24,-17,0,-43,-29,-39,-53,-48
-43,-39,4,41,-24,-17,0,-43,-29,-39,-53,-48
-43,-34,9,39,-26,-12,0,-43,-29,-39,-48,-48
-43,-34,9,39,-26,-12,0,-43,-29,-39,-43,-53
-43,-34,9,39,-26,-12,0,-43,-29,-39,-43,-53
-48,-39,9,43,-29,-14,0,-48,-29,-39,-48,-58
-48,-39,9,43,-29,-14,0,-48,-29,-39,-48,-53
-48,-39,9,43,-29,-14,0,-48,-29,-39,-48,-48
-48,-39,9,43,-29,-14,0,-48,-29,-39,-48,-48
-48,-39,9,43,-29,-14,0,-48,-29,-39,-48,-48
-48,-39,9,43,-29,-14,0,-48,-29,-39,-48,-48
-48,-39,9,43,-29,-14,0,-48,-29,-39,-48,-48
-48,-39,9,43,-29,-14,0,-53,-29,-39,-53,-48
-48,-39,9,43,-29,-14,0,-58,-29,-39,-58,-48
-48,-39,9,43,-29,-14,-4,-58,-29,-39,-58,-53
-48,-39,9,43,-29,-14,-9,-58,-29,-39,-58,-58
-48,-39,9,43,-29,-14,-9,-58,-29,-39,-58,-58
-48,-39,9,43,-29,-14,-9,-58,-29,-39,-58,-58
-48,-39,9,43,-29,-14,-4,-58,-29,-39,-58,-58
-48,-39,9,43,-29,-14,0,-58,-29,-39,-58,-58
-48,-39,9,43,-29,-14,0,-58,-29,-39,-58,-58
-48,-39,9,43,-29,-14,0,-58,-29,-39,-58,-58
-48,-43,4,46,-26,-19,-4,-58,-34,-43,-58,-58
-48,-48,0,48,-24,-24,-9,-58,-39,-48,-58,-58
-48,-48,0,48,-24,-24,-9,-58,-39,-48,-58,-58
-48,-48,0,48,-24,-24,-9,-58,-39,-48,-58,-58
-48,-48,0,48,-24,-24,-4,-53,-39,-48,-58,-58
-48,-48,0,48,-24,-24,0,-48,-39,-48,-58,-58
-48,-48,0,48,-24,-24,0,-48,-39,-48,-58,-58
-48,-48,0,48,-24,-24,0,-48,-39,-48,-58,-58
-48,-48,0,48,-24,-24,0,-48,-34,-48,-58,-63
-48,-48,0,48,-24,-24,0,-48,-29,-48,-58,-68
-53,-53,0,53,-26,-26,0,-48,-29,-43,-58,-68
-58,-58,0,58,-29,-29,0,-48,-29,-39,-58,-68
-58,-58,0,58,-29,-29,0,-53,-34,-39,-58,-68
-58,-58,0,58,-29,-29,0,-58,-39,-39,-58,-68
-58,-58,0,58,-29,-29,0,-58,-39,-43,-58,-68
-58,-58,0,58,-29,-29,0,-58,-39,-48,-58,-68
-58,-58,0,58,-29,-29,0,-58,-39,-48,-63,-68
-58,-58,0,58,-29,-29,0,-58,-39,-48,-68,-68
-58,-58,0,58,-29,-29,0,-58,-39,-48,-68,-68
-58,-58,0,58,-29,-29,0,-58,-39,-48,-68,-68
-58,-58,0,58,-29,-29,-4,-58,-39,-48,-68,-68
-58,-58,0,58,-29,-29,-9,-58,-39,-48,-68,-68
-58,-63,-4,61,-26,-34,-9,-58,-39,-48,-68,-68
-58,-68,-9,63,-24,-39,-9,-58,-39,-48,-68,-68
-58,-68,-9,63,-24,-39,-9,-58,-39,-48,-68,-73
-58,-68,-9,63,-24,-39,-9,-58,-39,-48,-68,-78
-63,-68,-4,65,-29,-36,-9,-58,-39,-48,-68,-78
-68,-68,0,68,-34,-34,-9,-58,-39,-48,-68,-78
-68,-73,-4,70,-31,-39,-9,-58,-39,-53,-68,-78
-68,-78,-9,73,-29,-43,-9,-58,-39,-58,-68,-78
-68,-78,-9,73,-29,-43,-9,-58,-39,-58,-68,-73
-68,-78,-9,73,-29,-43,-9,-58,-39,-58,-68,-68
-68,-78,-9,73,-29,-43,-9,-58,-39,-58,-68,-68
-68,-78,-9,73,-29,-43,-9,-58,-39,-58,-68,-68
-68,-78,-9,73,-29,-43,-9,-58,-39,-58,-68,-73
-68,-78,-9,73,-29,-43,-9,-58,-39,-58,-68,-78
-68,-78,-9,73,-29,-43,-9,-63,-39,-58,-68,-78
-68,-78,-9,73,-29,-43,-9,-68,-39,-58,-68,-78
-68,-78,-9,73,-29,-43,-14,-68,-39,-58,-68,-78
-68,-78,-9,73,-29,-43,-19,-68,-39,-58,-68,-78
-73,-82,-9,78,-31,-46,-19,-68,-39,-58,-73,-78
-78,-87,-9,82,-34,-48,-19,-68,-39,-58,-78,-78
-78,-87,-9,82,-34,-48,-19,-68,-39,-58,-78,-78
-78,-87,-9,82,-34,-48,-19,-68,-39,-58,-78,-78
-73,-82,-9,78,-31,-46,-19,-63,-39,-58,-73,-78
-68,-78,-9,73,-29,-43,-19,-58,-39,-58,-68,-78
-68,-78,-9,73,-29,-43,-19,-58,-39,-58,-68,-78
-68,-78,-9,73,-29,-43,-19,-58,-39,-58,-68,-78
-73,-82,-9,78,-31,-46,-19,-58,-39,-58,-68,-78
-78,-87,-9,82,-34,-48,-19,-58,-39,-58,-68,-78
-78,-92,-14,85,-31,-53,-19,-63,-39,-58,-73,-82
-78,-97,-19,87,-29,-58,-19,-68,-39,-58,-78,-87
-78,-97,-19,87,-29,-58,-19,-68,-39,-58,-78,-87
-78,-97,-19,87,-29,-58,-19,-68,-39,-58,-78,-87
-82,-97,-14,90,-34,-56,-19,-68,-39,-58,-78,-87
-87,-97,-9,92,-39,-53,-19,-68,-39,-58,-78,-87
-87,-107,-19,97,-34,-63,-19,-68,-43,-63,-82,-87
-87,-117,-29,102,-29,-73,-19,-68,-48,-68,-87,-87
-87,-107,-19,97,-34,-63,-19,-68,-48,-68,-87,-87
-87,-97,-9,92,-39,-53,-19,-68,-48,-68,-87,-87
-87,-97,-9,92,-39,-53,-19,-68,-48,-68,-82,-87
-87,-97,-9,92,-39,-53,-19,-68,-48,-68,-78,-87
-92,-102,-9,97,-41,-56,-19,-68,-48,-68,-78,-87
-97,-107,-9,102,-43,-58,-19,-68,-48,-68,-78,-87
-97,-112,-14,104,-41,-63,-19,-68,-48,-68,-78,-87
-97,-117,-19,107,-39,-68,-19,-68,-48,-68,-78,-87
-97,-117,-19,107,-39,-68,-19,-68,-48,-68,-82,-87
-97,-117,-19,107,-39,-68,-19,-68,-48,-68,-87,-87
-97,-117,-19,107,-39,-68,-19,-68,-48,-68,-87,-87
-97,-117,-19,107,-39,-68,-19,-68,-48,-68,-87,-87
-97,-107,-9,102,-43,-58,-14,-68,-48,-68,-87,-87
-97,-97,0,97,-48,-48,-9,-68,-48,-68,-87,-87
-87,-87,0,87,-43,-43,-4,-63,-43,-63,-82,-82
-78,-78,0,78,-39,-39,0,-58,-39,-58,-78,-78
-78,-78,0,78,-39,-39,4,-48,-34,-53,-73,-78
-78,-78,0,78,-39,-39,9,-39,-29,-48,-68,-78
-78,-73,4,75,-41,-34,14,-34,-24,-48,-68,-78
-78,-68,9,73,-43,-29,19,-29,-19,-48,-68,-78
-78,-48,29,63,-53,-9,29,-19,-19,-43,-63,-73
-78,-29,48,53,-63,9,39,-9,-19,-39,-58,-68
-78,-14,63,46,-70,24,29,-9,-4,-29,-48,-58
-78,0,78,39,-78,39,19,-9,9,-19,-39,-48
-73,24,97,24,-85,61,0,-14,19,0,-24,-34
-68,48,117,9,-92,82,-19,-19,29,19,-9,-19
-68,48,117,9,-92,82,-39,-19,29,19,-9,-19
-68,48,117,9,-92,82,-58,-19,29,19,-9,-19
-68,39,107,14,-87,73,-73,-24,29,19,-9,-14
-68,29,97,19,-82,63,-87,-29,29,19,-9,-9
-68,29,97,19,-82,63,-87,-29,29,19,-9,-9
