I, II, III, aVR, aVL, aVF, V1, V2, V3, V4, V5, V6
0,29,29,-14,-14,29,185,165,117,68,39,9
9,34,24,-21,-7,29,195,180,122,73,43,14
19,39,19,-29,0,29,204,195,126,78,48,19
24,39,14,-31,4,26,204,209,131,87,53,24
29,39,9,-34,9,24,204,224,136,97,58,29
34,53,19,-43,7,36,156,204,136,97,58,29
39,68,29,-53,4,48,107,185,136,97,58,29
39,68,29,-53,4,48,24,122,97,78,53,24
39,68,29,-53,4,48,-58,58,58,58,48,19
34,68,34,-51,0,51,-73,34,39,39,34,19
29,58,29,-43,0,43,-82,4,14,19,19,9
24,53,29,-39,-2,41,-97,-24,-4,0,4,4
24,48,24,-36,0,36,-102,-43,-19,-9,0,0
29,48,19,-39,4,34,-97,-43,-19,-9,0,0
39,48,9,-43,14,29,-87,-29,-9,0,9,4
53,58,4,-56,24,31,-78,-9,4,14,24,14
58,68,9,-63,24,39,-87,-9,4,19,24,24
63,78,14,-70,24,46,-102,-29,-4,19,24,24
63,87,24,-75,19,56,-112,-39,-9,19,19,24
68,82,14,-75,26,48,-117,-39,-9,14,14,24
63,78,14,-70,24,46,-117,-34,-9,9,19,24
53,53,0,-53,26,26,-102,-24,-4,9,14,4
24,9,-14,-17,19,-2,-78,-9,-4,-4,0,-9
-4,-14,-9,9,2,-12,-58,-14,-14,-14,-24,-29
-19,-14,4,17,-12,-4,-53,-19,-19,-19,-29,-29
-19,-14,4,17,-12,-4,-58,-24,-24,-19,-24,-29
-19,-14,4,17,-12,-4,-58,-24,-24,-19,-24,-29
-24,-14,9,19,-17,-2,-58,-24,-24,-19,-24,-29
-29,-14,14,21,-21,0,-58,-24,-24,-19,-24,-29
-29,-24,4,26,-17,-9,-53,-24,-24,-19,-29,-34
-29,-24,4,26,-17,-9,-48,-19,-24,-19,-29,-34
-29,-24,4,26,-17,-9,-53,-14,-24,-19,-34,-34
-29,-24,4,26,-17,-9,-53,-14,-19,-19,-34,-34
-34,-24,9,29,-21,-7,-53,-9,-19,-19,-29,-39
-34,-24,9,29,-21,-7,-48,-9,-14,-19,-24,-43
-34,-24,9,29,-21,-7,-48,-4,-14,-19,-24,-43
-34,-24,9,29,-21,-7,-48,0,-14,-14,-24,-43
-34,-24,9,29,-21,-7,-43,0,-9,-14,-24,-43
-34,-24,9,29,-21,-7,-43,0,-9,-14,-29,-43
-34,-24,9,29,-21,-7,-43,4,-9,-14,-29,-43
-34,-19,14,26,-24,-2,-43,4,-9,-14,-29,-43
-34,-19,14,26,-24,-2,-43,4,-4,-14,-29,-39
-34,-19,14,26,-24,-2,-43,4,-4,-14,-24,-34
-34,-14,19,24,-26,2,-43,4,-4,-9,-24,-29
-34,-9,24,21,-29,7,-43,0,0,-9,-24,-29
-29,-9,19,19,-24,4,-43,4,-4,-9,-24,-29
-29,-9,19,19,-24,4,-43,19,0,0,-24,-34
-39,-14,24,26,-31,4,-4,63,29,14,-19,-39
-39,-39,0,39,-19,-19,48,126,78,34,-14,-58
-48,-82,-34,65,-7,-58,68,122,78,29,-24,-82
-53,-97,-43,75,-4,-70,131,209,161,82,0,-87
-43,-126,-82,85,19,-104,302,556,400,229,78,-73
34,-97,-131,31,82,-114,468,902,658,429,234,24
190,-19,-209,-85,200,-114,522,1137,810,614,439,190
326,131,-195,-229,261,-31,444,1137,766,668,546,312
453,439,-14,-446,234,212,375,1107,653,678,570,390
644,956,312,-800,165,634,307,795,463,707,697,590
1005,1259,253,-1132,375,756,175,151,68,619,839,834
1293,1180,-112,-1237,702,534,-512,-1239,-727,283,805,990
1322,1049,-273,-1185,797,387,-1830,-3010,-1864,-229,844,1342
1327,878,-448,-1102,888,214,-2488,-3489,-2152,-317,1049,1693
1137,990,-146,-1063,641,422,-2249,-2869,-1503,375,1737,2103
990,917,-73,-954,531,422,-1873,-2283,-980,761,1917,2020
834,580,-253,-707,544,163,-1527,-1766,-727,546,1127,1063
590,302,-287,-446,439,7,-1141,-1371,-727,63,312,346
414,131,-283,-273,348,-75,-785,-995,-707,-292,-24,165
234,34,-200,-134,217,-82,-419,-566,-448,-287,-82,63
58,-48,-107,-4,82,-78,-161,-278,-209,-146,-82,-29
-34,-107,-73,70,19,-90,-53,-151,-126,-107,-87,-92
-68,-126,-58,97,-4,-92,-34,-122,-112,-107,-102,-102
-78,-126,-48,102,-14,-87,-24,-102,-107,-107,-107,-102
-78,-112,-34,95,-21,-73,-14,-97,-102,-107,-107,-102
-68,-102,-34,85,-17,-68,-14,-87,-102,-102,-112,-102
-63,-102,-39,82,-12,-70,-14,-78,-87,-102,-107,-102
-63,-97,-34,80,-14,-65,-14,-68,-82,-102,-102,-102
-63,-92,-29,78,-17,-61,-14,-68,-82,-102,-102,-107
-63,-87,-24,75,-19,-56,-9,-73,-78,-102,-102,-112
-58,-82,-24,70,-17,-53,-9,-68,-78,-97,-102,-112
-58,-82,-24,70,-17,-53,-4,-68,-78,-97,-102,-112
-58,-82,-24,70,-17,-53,-4,-58,-73,-97,-102,-107
-58,-82,-24,70,-17,-53,-4,-53,-68,-97,-102,-102
-58,-87,-29,73,-14,-58,0,-48,-68,-97,-102,-102
-53,-92,-39,73,-7,-65,0,-48,-68,-102,-102,-102
-53,-92,-39,73,-7,-65,0,-53,-68,-102,-102,-102
-53,-92,-39,73,-7,-65,4,-58,-68,-102,-102,-102
-53,-87,-34,70,-9,-61,4,-58,-73,-107,-102,-102
-53,-82,-29,68,-12,-56,4,-58,-78,-112,-107,-102
-53,-82,-29,68,-12,-56,4,-58,-78,-112,-107,-102
-53,-82,-29,68,-12,-56,4,-53,-78,-112,-107,-102
-53,-87,-34,70,-9,-61,4,-53,-73,-112,-107,-107
-53,-92,-39,73,-7,-65,9,-53,-73,-112,-107,-107
-53,-92,-39,73,-7,-65,9,-58,-73,-107,-107,-107
-53,-92,-39,73,-7,-65,9,-58,-73,-102,-112,-107
-53,-92,-39,73,-7,-65,9,-58,-73,-102,-112,-107
-48,-87,-39,68,-4,-63,9,-58,-73,-102,-112,-107
-48,-87,-39,68,-4,-63,9,-58,-73,-107,-112,-107
-48,-87,-39,68,-4,-63,14,-58,-78,-112,-112,-107
-53,-87,-34,70,-9,-61,14,-63,-78,-112,-112,-107
-58,-87,-29,73,-14,-58,14,-63,-78,-112,-117,-107
-58,-87,-29,73,-14,-58,14,-63,-78,-112,-117,-112
-63,-87,-24,75,-19,-56,14,-63,-78,-112,-117,-117
-63,-87,-24,75,-19,-56,19,-63,-78,-117,-122,-117
-58,-87,-29,73,-14,-58,19,-63,-78,-117,-122,-117
-58,-92,-34,75,-12,-63,24,-63,-73,-117,-122,-122
-63,-97,-34,80,-14,-65,34,-58,-68,-117,-126,-122
-58,-97,-39,78,-9,-68,34,-58,-68,-117,-131,-122
-53,-97,-43,75,-4,-70,39,-58,-68,-122,-131,-126
-68,-102,-34,85,-17,-68,43,-63,-63,-122,-131,-131
-68,-107,-39,87,-14,-73,43,-63,-63,-122,-136,-136
-73,-107,-34,90,-19,-70,48,-58,-63,-122,-141,-141
-78,-112,-34,95,-21,-73,48,-58,-58,-126,-146,-146
-82,-112,-29,97,-26,-70,58,-53,-58,-126,-151,-151
-87,-122,-34,104,-26,-78,63,-43,-58,-126,-156,-156
-92,-126,-34,109,-29,-80,73,-43,-53,-131,-161,-165
-97,-126,-29,112,-34,-78,78,-34,-48,-131,-165,-170
-97,-136,-39,117,-29,-87,87,-24,-48,-136,-175,-180
-112,-141,-29,126,-41,-85,97,-9,-43,-141,-180,-190
-117,-151,-34,134,-41,-92,107,-4,-39,-141,-185,-204
-126,-156,-29,141,-48,-92,117,4,-34,-146,-200,-219
-136,-165,-29,151,-53,-97,131,14,-39,-156,-214,-229
-146,-175,-29,161,-58,-102,141,24,-29,-156,-229,-239
-156,-180,-24,168,-65,-102,165,34,-24,-161,-239,-248
-165,-195,-29,180,-68,-112,185,43,-24,-165,-248,-263
-180,-209,-29,195,-75,-119,200,58,-14,-180,-268,-283
-195,-229,-34,212,-80,-131,219,73,-9,-190,-278,-297
-204,-244,-39,224,-82,-141,234,87,0,-190,-297,-317
-219,-258,-39,239,-90,-148,253,112,9,-195,-307,-331
-234,-268,-34,251,-100,-151,273,131,14,-200,-322,-346
-248,-287,-39,268,-104,-163,292,146,24,-204,-331,-361
-258,-302,-43,280,-107,-173,312,161,34,-204,-346,-375
-273,-312,-39,292,-117,-175,326,185,43,-209,-361,-390
-287,-322,-34,305,-126,-178,336,204,48,-209,-370,-405
-302,-331,-29,317,-136,-180,356,224,58,-214,-380,-424
-312,-341,-29,326,-141,-185,375,244,68,-214,-385,-434
-322,-351,-29,336,-146,-190,395,263,78,-209,-385,-434
-326,-351,-24,339,-151,-187,405,287,87,-209,-390,-434
-326,-361,-34,344,-146,-197,414,312,102,-200,-390,-434
-331,-361,-29,346,-151,-195,424,336,112,-195,-390,-439
-331,-361,-29,346,-151,-195,429,356,122,-185,-375,-439
-331,-351,-19,341,-156,-185,429,366,131,-170,-361,-424
-326,-346,-19,336,-153,-183,419,375,146,-146,-336,-400
-307,-326,-19,317,-143,-173,409,380,151,-126,-307,-375
-297,-302,-4,300,-146,-153,390,380,161,-107,-278,-346
-283,-278,4,280,-143,-136,370,370,170,-82,-244,-317
-258,-248,9,253,-134,-119,341,361,170,-63,-214,-283
-234,-224,9,229,-122,-107,317,346,170,-39,-175,-244
-209,-195,14,202,-112,-90,287,326,170,-14,-141,-209
-190,-170,19,180,-104,-75,258,307,165,-4,-117,-180
-170,-141,29,156,-100,-56,234,283,161,4,-92,-161
-151,-122,29,136,-90,-46,200,258,156,14,-73,-131
-136,-102,34,119,-85,-34,165,244,146,29,-53,-112
-122,-78,43,100,-82,-17,151,219,136,34,-29,-87
-102,-53,48,78,-75,-2,131,200,131,43,-14,-63
-82,-39,43,61,-63,2,107,180,122,48,-4,-53
-63,-29,34,46,-48,2,87,165,112,58,4,-43
-53,-19,34,36,-43,7,73,151,107,58,14,-29
-43,-9,34,26,-39,12,58,131,97,58,19,-19
-39,0,39,19,-39,19,48,126,87,63,24,-14
-34,9,43,12,-39,26,39,112,82,68,29,-14
-29,14,43,7,-36,29,29,102,78,68,34,-9
-29,19,48,4,-39,34,19,92,73,68,43,-4
-24,19,43,2,-34,31,14,82,63,63,43,-4
-24,24,48,0,-36,36,14,82,63,63,43,0
-19,24,43,-2,-31,34,14,78,58,63,39,0
-14,24,39,-4,-26,31,9,68,58,63,39,0
-14,29,43,-7,-29,36,4,68,58,63,39,0
-9,29,39,-9,-24,34,-4,68,53,58,39,-4
-9,29,39,-9,-24,34,-4,63,53,48,39,-4
-9,29,39,-9,-24,34,-4,58,48,43,34,-4
-14,29,43,-7,-29,36,-4,53,48,43,34,0
-14,29,43,-7,-29,36,0,53,43,39,34,0
-9,24,34,-7,-21,29,4,53,39,39,34,0
-4,19,24,-7,-14,21,4,48,39,39,29,0
-9,14,24,-2,-17,19,0,48,39,39,29,-4
-9,14,24,-2,-17,19,-4,48,39,34,24,-4
-9,9,19,0,-14,14,-4,48,34,34,24,-4
-9,9,19,0,-14,14,-4,48,34,29,24,-4
-14,4,19,4,-17,12,-4,43,29,29,19,-9
-14,4,19,4,-17,12,-4,34,29,29,19,-9
-14,0,14,7,-14,7,-9,34,29,24,19,-9
-14,0,14,7,-14,7,-9,34,29,24,14,-14
-19,-4,14,12,-17,4,-9,34,24,24,14,-14
-19,-4,14,12,-17,4,-9,34,24,19,14,-19
-19,0,19,9,-19,9,0,34,24,19,14,-19
-19,0,19,9,-19,9,4,34,24,19,14,-24
-24,-4,19,14,-21,7,4,34,24,19,14,-19
-24,-9,14,17,-19,2,9,34,24,14,14,-19
-24,-9,14,17,-19,2,4,34,19,14,14,-19
-24,-9,14,17,-19,2,0,34,19,9,4,-19
-24,-14,9,19,-17,-2,0,34,19,9,4,-29
-24,-14,9,19,-17,-2,0,34,19,9,4,-34
-19,-14,4,17,-12,-4,-4,29,19,9,4,-34
-14,-9,4,12,-9,-2,-4,24,14,14,4,-34
-14,-9,4,12,-9,-2,-9,29,14,9,4,-34
-14,-9,4,12,-9,-2,-14,24,19,9,0,-34
-19,-4,14,12,-17,4,-9,24,19,9,-4,-29
-14,0,14,7,-14,7,-9,29,19,9,-4,-24
-14,0,14,7,-14,7,-9,29,14,9,-4,-24
-14,-4,9,9,-12,2,-9,29,9,9,-4,-24
-9,-4,4,7,-7,0,-9,24,14,9,-4,-24
-9,0,9,4,-9,4,-9,24,14,9,-4,-24
-9,0,9,4,-9,4,-9,24,9,9,-4,-24
-9,0,9,4,-9,4,-14,24,9,9,-4,-24
-9,-4,4,7,-7,0,-19,24,4,4,-4,-29
-9,-4,4,7,-7,0,-19,29,4,0,-4,-29
-14,-4,9,9,-12,2,-14,29,4,0,-4,-29
-14,-4,9,9,-12,2,-14,29,4,0,-4,-24
-9,0,9,4,-9,4,-9,29,9,4,-4,-24
-9,0,9,4,-9,4,-9,29,14,4,-9,-24
-14,0,14,7,-14,7,-19,29,14,4,-4,-29
-14,0,14,7,-14,7,-19,29,14,9,-4,-29
-14,4,19,4,-17,12,-24,19,9,9,-4,-29
-14,9,24,2,-19,17,-24,19,9,9,-4,-29
-14,9,24,2,-19,17,-24,19,9,9,-4,-29
-9,9,19,0,-14,14,-24,24,9,9,0,-24
-9,4,14,2,-12,9,-19,24,9,14,4,-19
-9,4,14,2,-12,9,-19,19,9,14,4,-19
-9,4,14,2,-12,9,-19,24,9,14,4,-14
-9,4,14,2,-12,9,-19,29,9,9,4,-14
-4,4,9,0,-7,7,-24,24,14,9,4,-14
-4,4,9,0,-7,7,-24,24,9,9,4,-14
-4,9,14,-2,-9,12,-24,24,9,4,0,-14
-4,9,14,-2,-9,12,-24,24,9,4,0,-9
-4,9,14,-2,-9,12,-24,24,9,4,0,-9
-4,4,9,0,-7,7,-29,24,9,9,4,-9
-4,4,9,0,-7,7,-29,29,9,4,4,-14
-4,9,14,-2,-9,12,-29,29,9,4,0,-14
-4,9,14,-2,-9,12,-29,29,14,4,0,-14
-4,9,14,-2,-9,12,-29,29,19,9,4,-14
-4,14,19,-4,-12,17,-29,29,19,9,4,-14
-4,19,24,-7,-14,21,-29,29,19,9,4,-14
-4,19,24,-7,-14,21,-29,29,24,19,4,-14
-4,19,24,-7,-14,21,-29,29,24,19,4,-9
-4,19,24,-7,-14,21,-24,34,29,14,4,-9
-4,19,24,-7,-14,21,-24,39,34,14,4,-9
0,19,19,-9,-9,19,-14,43,39,19,9,-9
4,19,14,-12,-4,17,0,58,43,24,19,-4
4,34,29,-19,-12,31,19,68,53,39,29,0
9,48,39,-29,-14,43,53,92,68,53,34,4
14,58,43,-36,-14,51,53,97,78,53,39,9
19,68,48,-43,-14,58,58,102,92,58,48,19
29,68,39,-48,-4,53,82,117,97,63,53,24
39,68,29,-53,4,48,107,136,107,68,58,29
39,68,29,-53,4,48,117,151,117,78,63,34
39,68,29,-53,4,48,126,165,126,87,68,39
48,68,19,-58,14,43,136,175,126,87,68,39
58,68,9,-63,24,39,146,185,126,87,68,39
63,73,9,-68,26,41,112,175,126,87,68,43
68,78,9,-73,29,43,78,165,126,87,68,48
68,92,24,-80,21,58,-4,112,97,73,68,48
68,107,39,-87,14,73,-87,58,68,58,68,48
63,107,43,-85,9,75,-97,34,39,48,53,43
58,107,48,-82,4,78,-107,9,9,39,39,39
58,102,43,-80,7,73,-107,-4,9,29,34,34
58,92,34,-75,12,63,-107,-9,9,19,24,29
58,87,29,-73,14,58,-112,-19,9,9,19,29
68,87,19,-78,24,53,-107,-4,19,9,19,29
78,87,9,-82,34,48,-102,-4,14,19,29,34
92,97,4,-95,43,51,-97,0,14,29,43,43
87,97,9,-92,39,53,-107,0,14,24,43,48
78,87,9,-82,34,48,-122,-19,4,19,43,43
68,82,14,-75,26,48,-117,-24,4,19,39,43
63,73,9,-68,26,41,-102,-19,9,14,29,39
39,58,19,-48,9,39,-97,-14,9,14,19,24
14,29,14,-21,0,21,-82,-4,14,19,4,-4
4,14,9,-9,-2,12,-68,9,14,4,0,-9
0,14,14,-7,-7,14,-63,9,9,0,-9,-19
-9,14,24,-2,-17,19,-63,9,9,0,-9,-19
-9,14,24,-2,-17,19,-68,4,4,0,-4,-19
-9,9,19,0,-14,14,-68,4,4,-4,-4,-19
-14,4,19,4,-17,12,-68,4,4,-9,-4,-19
-19,4,24,7,-21,14,-63,9,4,-9,-4,-19
-19,-4,14,12,-17,4,-53,14,4,-9,-9,-24
-19,-4,14,12,-17,4,-48,19,4,-9,-9,-24
-19,-4,14,12,-17,4,-48,24,4,-9,-14,-24
-19,-4,14,12,-17,4,-43,24,9,-9,-14,-24
-24,-4,19,14,-21,7,-43,29,9,-9,-14,-24
-24,-4,19,14,-21,7,-39,29,14,-4,-14,-24
-24,-4,19,14,-21,7,-39,34,14,0,-14,-24
-24,-4,19,14,-21,7,-39,34,14,4,-14,-24
-24,-4,19,14,-21,7,-34,29,19,4,-9,-24
-24,-4,19,14,-21,7,-39,29,19,4,-9,-19
-24,-4,19,14,-21,7,-43,34,19,4,-9,-14
-24,0,24,12,-24,12,-43,39,19,9,-9,-14
-24,0,24,12,-24,12,-43,43,24,14,-9,-14
-24,0,24,12,-24,12,-43,43,24,14,-4,-14
-24,0,24,12,-24,12,-43,48,24,19,-4,-9
-24,-4,19,14,-21,7,-34,53,39,19,-4,-9
-24,-9,14,17,-19,2,-19,63,48,19,-4,-9
-29,-29,0,29,-14,-14,-4,92,63,29,-4,-19
-39,-53,-14,46,-12,-34,43,151,97,43,0,-29
-34,-78,-43,56,4,-61,117,263,185,87,14,-48
-34,-122,-87,78,26,-104,175,356,253,131,24,-68
4,-107,-112,51,58,-109,258,517,385,244,107,-24
63,-92,-156,14,109,-124,409,854,624,424,244,48
151,14,-136,-82,143,-61,488,1039,756,575,385,165
307,185,-122,-246,214,31,463,1112,771,697,566,341
483,483,0,-483,241,241,375,932,683,785,751,556
649,907,258,-778,195,583,297,688,536,858,888,751
810,1273,463,-1041,173,868,-29,-34,185,849,1088,1058
1127,1385,258,-1256,434,822,-527,-1068,-380,712,1288,1410
1312,1307,-4,-1310,658,651,-1122,-1942,-854,619,1434,1649
1249,1234,-14,-1241,631,610,-2064,-2898,-1464,434,1678,2054
1224,1005,-219,-1115,722,392,-2361,-2991,-1546,317,1629,2059
995,995,0,-995,497,497,-1927,-2283,-941,780,1859,1981
800,839,39,-819,380,439,-1551,-1810,-653,814,1703,1717
605,473,-131,-539,368,170,-1205,-1385,-590,331,761,775
380,229,-151,-305,265,39,-824,-1005,-536,-24,146,224
229,82,-146,-156,187,-31,-483,-629,-434,-190,0,156
97,-4,-102,-46,100,-53,-219,-326,-268,-195,-58,53
-9,-68,-58,39,24,-63,-78,-180,-131,-112,-73,-34
-63,-102,-39,82,-12,-70,-19,-97,-73,-92,-78,-78
-73,-107,-34,90,-19,-70,-24,-82,-73,-97,-87,-73
-78,-107,-29,92,-24,-68,-19,-73,-68,-97,-87,-73
-78,-92,-14,85,-31,-53,-14,-78,-63,-97,-87,-73
-68,-82,-14,75,-26,-48,-14,-68,-68,-92,-92,-78
-63,-82,-19,73,-21,-51,-14,-58,-58,-92,-92,-82
-63,-78,-14,70,-24,-46,-14,-48,-53,-92,-92,-82
-63,-78,-14,70,-24,-46,-14,-43,-53,-92,-92,-82
-63,-82,-19,73,-21,-51,-9,-43,-48,-92,-92,-78
-58,-82,-24,70,-17,-53,-9,-39,-48,-87,-92,-73
-58,-82,-24,70,-17,-53,-4,-39,-48,-87,-92,-73
-58,-82,-24,70,-17,-53,-4,-34,-48,-87,-92,-73
-58,-78,-19,68,-19,-48,-4,-34,-48,-87,-92,-73
-58,-73,-14,65,-21,-43,0,-29,-48,-87,-92,-73
-53,-73,-19,63,-17,-46,0,-29,-48,-92,-92,-78
-53,-73,-19,63,-17,-46,0,-29,-48,-92,-92,-82
-53,-73,-19,63,-17,-46,4,-29,-48,-92,-92,-82
-53,-73,-19,63,-17,-46,4,-29,-48,-92,-92,-82
-48,-68,-19,58,-14,-43,4,-29,-48,-92,-97,-82
-43,-63,-19,53,-12,-41,4,-34,-48,-92,-97,-82
-43,-63,-19,53,-12,-41,4,-34,-48,-92,-97,-78
-43,-63,-19,53,-12,-41,4,-34,-48,-92,-97,-78
-43,-68,-24,56,-9,-46,9,-39,-53,-92,-97,-78
-43,-73,-29,58,-7,-51,9,-48,-53,-92,-97,-78
-43,-73,-29,58,-7,-51,9,-48,-53,-92,-102,-78
-43,-73,-29,58,-7,-51,9,-48,-53,-92,-102,-78
-39,-68,-29,53,-4,-48,9,-48,-53,-92,-102,-78
-39,-68,-29,53,-4,-48,9,-48,-48,-92,-102,-78
-39,-68,-29,53,-4,-48,14,-43,-48,-92,-102,-78
-39,-68,-29,53,-4,-48,14,-43,-48,-92,-102,-78
-43,-68,-24,56,-9,-46,14,-43,-48,-92,-107,-78
-48,-68,-19,58,-14,-43,14,-43,-48,-92,-107,-82
-53,-68,-14,61,-19,-41,9,-43,-48,-92,-107,-87
-53,-68,-14,61,-19,-41,9,-43,-48,-97,-112,-87
-48,-68,-19,58,-14,-43,9,-43,-48,-97,-112,-92
-48,-73,-24,61,-12,-48,9,-43,-48,-97,-112,-102
-53,-78,-24,65,-14,-51,14,-39,-48,-97,-122,-102
-53,-78,-24,65,-14,-51,14,-39,-48,-97,-131,-102
-53,-73,-19,63,-17,-46,19,-39,-48,-107,-131,-107
-68,-73,-4,70,-31,-39,24,-39,-43,-112,-131,-112
-68,-78,-9,73,-29,-43,29,-34,-43,-112,-136,-112
-68,-78,-9,73,-29,-43,43,-29,-43,-112,-141,-112
-68,-87,-19,78,-24,-53,48,-29,-34,-117,-146,-117
-73,-92,-19,82,-26,-56,58,-24,-29,-117,-151,-122
-73,-102,-29,87,-21,-65,63,-14,-29,-117,-156,-126
-73,-107,-34,90,-19,-70,73,-14,-24,-122,-161,-136
-78,-102,-24,90,-26,-63,78,-4,-19,-117,-165,-141
-78,-107,-29,92,-24,-68,87,0,-19,-117,-175,-151
-92,-112,-19,102,-36,-65,97,9,-14,-122,-180,-161
-97,-122,-24,109,-36,-73,107,14,-9,-122,-185,-170
-107,-126,-19,117,-43,-73,117,29,-4,-126,-200,-180
-117,-136,-19,126,-48,-78,131,43,-4,-136,-209,-190
-126,-146,-19,136,-53,-82,141,53,9,-136,-219,-200
-136,-151,-14,143,-61,-82,161,63,14,-141,-229,-209
-146,-165,-19,156,-63,-92,175,73,14,-146,-239,-224
-156,-175,-19,165,-68,-97,190,87,24,-156,-258,-244
-161,-190,-29,175,-65,-109,204,97,29,-161,-268,-258
-165,-204,-39,185,-63,-122,214,107,39,-161,-287,-278
-180,-219,-39,200,-70,-129,234,131,48,-165,-297,-292
-195,-229,-34,212,-80,-131,253,151,53,-170,-312,-307
-209,-248,-39,229,-85,-143,273,165,63,-175,-317,-322
-219,-263,-43,241,-87,-153,292,180,73,-175,-326,-336
-234,-273,-39,253,-97,-156,307,204,87,-175,-341,-346
-244,-283,-39,263,-102,-161,317,224,97,-170,-351,-351
-248,-292,-43,270,-102,-168,331,244,107,-175,-356,-366
-253,-302,-48,278,-102,-175,341,263,117,-175,-356,-375
-263,-307,-43,285,-109,-175,356,278,126,-165,-356,-375
-268,-302,-34,285,-117,-168,366,297,136,-161,-356,-375
-268,-307,-39,287,-114,-173,370,317,146,-151,-341,-366
-273,-302,-29,287,-122,-165,375,331,151,-146,-331,-356
-273,-297,-24,285,-124,-161,375,346,161,-131,-317,-351
-273,-283,-9,278,-131,-146,370,356,170,-112,-302,-336
-268,-278,-9,273,-129,-143,361,361,185,-87,-273,-307
-248,-258,-9,253,-119,-134,351,361,190,-68,-239,-278
-239,-234,4,236,-122,-114,331,361,195,-48,-209,-248
-229,-209,19,219,-124,-95,312,351,200,-24,-175,-219
-209,-180,29,195,-119,-75,283,336,195,-9,-151,-185
-190,-156,34,173,-112,-61,258,317,190,9,-117,-151
-175,-131,43,153,-109,-43,229,297,190,29,-87,-126
-161,-112,48,136,-104,-31,200,278,180,34,-68,-102
-146,-87,58,117,-102,-14,180,253,170,39,-48,-87
-131,-73,58,102,-95,-7,156,229,165,43,-34,-63
-117,-58,58,87,-87,0,126,214,156,58,-14,-48
-102,-43,58,73,-80,7,112,190,146,63,4,-34
-82,-24,58,53,-70,17,97,170,141,73,14,-14
-73,-9,63,41,-68,26,78,151,131,73,24,-4
-68,0,68,34,-68,34,58,141,122,73,34,-4
-63,9,73,26,-68,41,43,131,117,68,43,0
-53,14,68,19,-61,41,29,112,107,68,43,9
-43,19,63,12,-53,41,19,107,97,68,43,14
-34,29,63,2,-48,46,9,92,92,68,43,14
-29,34,63,-2,-46,48,0,82,87,68,39,19
-34,39,73,-2,-53,56,-9,73,82,68,43,24
-34,39,73,-2,-53,56,-14,63,73,63,43,24
-34,43,78,-4,-56,61,-14,63,68,58,39,29
-29,43,73,-7,-51,58,-14,58,58,53,34,29
-24,43,68,-9,-46,56,-19,48,58,53,39,24
-24,48,73,-12,-48,61,-19,48,58,53,39,24
-19,48,68,-14,-43,58,-19,48,53,48,39,24
-19,48,68,-14,-43,58,-14,43,53,43,39,24
-19,48,68,-14,-43,58,-14,39,48,43,34,24
-24,48,73,-12,-48,61,-19,34,48,43,34,24
-24,48,73,-12,-48,61,-19,34,43,39,34,19
-24,48,73,-12,-48,61,-14,34,39,39,34,19
-24,48,73,-12,-48,61,-14,29,39,39,29,19
-29,43,73,-7,-51,58,-14,29,39,39,29,14
-29,43,73,-7,-51,58,-14,34,39,34,24,14
-29,39,68,-4,-48,53,-14,39,34,34,24,14
-29,39,68,-4,-48,53,-9,39,34,29,24,14
-34,34,68,0,-51,51,-4,39,29,29,19,9
-34,34,68,0,-51,51,-4,34,29,29,19,9
-34,29,63,2,-48,46,-4,34,29,24,19,9
-34,29,63,2,-48,46,0,34,34,24,14,4
-39,24,63,7,-51,43,0,34,34,24,14,4
-39,19,58,9,-48,39,0,34,34,19,14,0
-39,14,53,12,-46,34,4,34,34,19,9,0
-39,9,48,14,-43,29,4,39,34,19,0,-9
-43,4,48,19,-46,26,4,43,34,19,-4,-14
-43,-4,39,24,-41,17,9,43,34,9,-4,-19
-43,-9,34,26,-39,12,9,43,29,4,-4,-19
-43,-9,34,26,-39,12,14,43,29,0,-14,-19
-43,-14,29,29,-36,7,19,43,29,0,-14,-24
-43,-14,29,29,-36,7,19,43,29,0,-14,-24
-43,-19,24,31,-34,2,19,43,29,-4,-14,-24
-43,-19,24,31,-34,2,24,39,29,-4,-14,-24
-43,-19,24,31,-34,2,24,43,24,-9,-14,-24
-48,-19,29,34,-39,4,24,43,19,-9,-19,-24
-53,-19,34,36,-43,7,29,43,19,-9,-24,-24
-48,-24,24,36,-36,0,29,48,19,-9,-24,-29
-53,-29,24,41,-39,-2,29,48,19,-9,-24,-34
-53,-34,19,43,-36,-7,29,53,19,-9,-24,-34
-48,-34,14,41,-31,-9,29,53,24,-9,-24,-34
-48,-29,19,39,-34,-4,29,53,24,-9,-24,-34
-48,-29,19,39,-34,-4,29,53,19,-9,-24,-34
-43,-24,19,34,-31,-2,29,58,24,-4,-24,-24
-39,-19,19,29,-29,0,29,63,29,0,-24,-14
-34,0,34,17,-34,17,48,82,43,9,-9,-4
-29,14,43,7,-36,29,73,97,53,19,4,0
-19,24,43,-2,-31,34,117,122,73,34,14,9
-9,39,48,-14,-29,43,156,146,97,53,29,14
-9,39,48,-14,-29,43,165,156,107,58,29,19
-9,43,53,-17,-31,48,175,165,112,63,34,24
0,48,48,-24,-24,48,185,175,117,73,34,29
4,53,48,-29,-21,51,190,175,117,78,34,29
4,68,63,-36,-29,65,200,185,122,78,34,29
9,78,68,-43,-29,73,209,190,126,78,39,34
24,87,63,-56,-19,75,161,170,126,82,48,39
39,97,58,-68,-9,78,117,156,126,87,58,48
39,112,73,-75,-17,92,34,112,107,78,53,48
39,126,87,-82,-24,107,-48,68,87,68,48,48
43,131,87,-87,-21,109,-82,39,63,58,43,48
43,126,82,-85,-19,104,-102,9,39,39,34,43
43,122,78,-82,-17,100,-122,-19,14,24,24,39
43,117,73,-80,-14,95,-122,-34,0,9,19,39
48,117,68,-82,-9,92,-117,-43,-9,4,14,39
58,117,58,-87,0,87,-107,-39,-9,9,19,43
68,122,53,-95,7,87,-107,-29,-4,9,29,43
68,126,58,-97,4,92,-126,-39,-14,0,24,43
68,117,48,-92,9,82,-122,-43,-14,0,24,43
63,107,43,-85,9,75,-112,-39,-9,0,19,43
53,87,34,-70,9,61,-112,-39,-9,-4,4,34
34,68,34,-51,0,51,-107,-34,-9,-9,0,24
34,58,24,-46,4,41,-102,-29,-9,-9,-4,4
14,29,14,-21,0,21,-87,-19,-14,-24,-19,-9
-9,4,14,2,-12,9,-73,-19,-19,-29,-39,-29
-19,4,24,7,-21,14,-73,-19,-19,-29,-39,-29
-19,4,24,7,-21,14,-78,-24,-24,-29,-34,-29
-19,4,24,7,-21,14,-78,-24,-24,-29,-34,-29
-19,4,24,7,-21,14,-78,-24,-24,-29,-34,-29
-19,4,24,7,-21,14,-78,-24,-24,-29,-34,-29
-19,-4,14,12,-17,4,-73,-24,-24,-29,-39,-29
-19,-4,14,12,-17,4,-68,-19,-24,-29,-39,-24
-24,-4,19,14,-21,7,-68,-14,-24,-24,-39,-24
-29,-4,24,17,-26,9,-63,-14,-19,-19,-34,-24
-34,-4,29,19,-31,12,-63,-9,-19,-19,-34,-24
-34,-4,29,19,-31,12,-58,-9,-14,-19,-34,-24
-34,-4,29,19,-31,12,-58,-4,-14,-24,-34,-24
-34,-4,29,19,-31,12,-58,0,-14,-24,-34,-24
-29,-4,24,17,-26,9,-53,0,-9,-24,-29,-24
-24,-4,19,14,-21,7,-53,0,-9,-24,-29,-24
-24,-4,19,14,-21,7,-53,4,-4,-24,-29,-24
-24,0,24,12,-24,12,-53,4,0,-24,-29,-24
-24,0,24,12,-24,12,-53,4,4,-24,-29,-24
-24,0,24,12,-24,12,-53,4,4,-24,-24,-24
-24,0,24,12,-24,12,-53,9,0,-19,-24,-19
-24,0,24,12,-24,12,-53,9,0,-19,-24,-19
-24,4,29,9,-26,17,-48,14,0,-14,-24,-19
-29,9,39,9,-34,24,-43,29,9,0,-24,-24
-43,4,48,19,-46,26,-4,73,39,14,-19,-29
-48,-19,29,34,-39,4,48,136,87,34,-14,-48
-58,-63,-4,61,-26,-34,73,146,97,39,-24,-73
-63,-78,-14,70,-24,-46,141,248,190,102,0,-78
-48,-107,-58,78,4,-82,307,585,424,248,87,-53
34,-78,-112,21,73,-95,468,922,678,448,253,53
190,9,-180,-100,185,-85,517,1151,819,624,458,224
326,170,-156,-248,241,7,434,1146,766,668,566,351
439,468,29,-453,204,248,400,1151,683,697,600,434
614,976,361,-795,126,668,366,873,522,746,736,639
995,1249,253,-1122,370,751,224,283,131,663,897,902
1302,1141,-161,-1222,732,490,-473,-1054,-658,331,883,1078
1346,1029,-317,-1188,832,356,-1800,-2820,-1771,-141,956,1449
1366,878,-488,-1122,927,195,-2469,-3294,-2034,-190,1195,1820
1161,980,-180,-1071,671,400,-2230,-2703,-1415,468,1820,2166
1000,897,-102,-949,551,397,-1854,-2147,-922,819,1937,2020
834,570,-263,-702,549,153,-1507,-1668,-697,566,1132,1073
580,302,-278,-441,429,12,-1122,-1312,-727,43,302,366
400,131,-268,-265,334,-68,-775,-951,-707,-302,-34,180
214,34,-180,-124,197,-73,-419,-536,-448,-287,-92,73
48,-48,-97,0,73,-73,-165,-268,-209,-151,-92,-19
-34,-107,-73,70,19,-90,-63,-161,-126,-117,-97,-82
-68,-126,-58,97,-4,-92,-43,-131,-112,-117,-107,-92
-78,-126,-48,102,-14,-87,-34,-112,-107,-117,-107,-92
-78,-112,-34,95,-21,-73,-24,-107,-102,-117,-107,-92
-68,-102,-34,85,-17,-68,-24,-97,-102,-112,-112,-92
-63,-102,-39,82,-12,-70,-24,-87,-87,-112,-112,-92
-63,-97,-34,80,-14,-65,-24,-78,-82,-112,-112,-92
-63,-97,-34,80,-14,-65,-24,-73,-82,-112,-112,-92
-63,-97,-34,80,-14,-65,-19,-73,-78,-112,-112,-92
-58,-92,-34,75,-12,-63,-19,-68,-78,-107,-112,-87
-58,-92,-34,75,-12,-63,-14,-68,-78,-107,-112,-82
-58,-92,-34,75,-12,-63,-14,-63,-73,-107,-112,-82
-58,-92,-34,75,-12,-63,-14,-63,-68,-107,-112,-82
-58,-87,-29,73,-14,-58,-9,-58,-68,-107,-112,-82
-53,-82,-29,68,-12,-56,-9,-58,-68,-112,-112,-82
-53,-82,-29,68,-12,-56,-9,-58,-68,-112,-112,-82
-53,-82,-29,68,-12,-56,-4,-58,-68,-112,-112,-82
-53,-82,-29,68,-12,-56,-4,-58,-68,-112,-112,-82
-53,-82,-29,68,-12,-56,-4,-58,-68,-112,-117,-82
-53,-87,-34,70,-9,-61,-4,-63,-68,-112,-117,-82
-53,-92,-39,73,-7,-65,-4,-63,-68,-112,-117,-82
-53,-92,-39,73,-7,-65,-4,-63,-68,-112,-117,-87
-53,-92,-39,73,-7,-65,0,-63,-73,-112,-117,-87
-53,-87,-34,70,-9,-61,0,-68,-73,-112,-112,-87
-53,-82,-29,68,-12,-56,0,-68,-73,-112,-112,-87
-58,-82,-24,70,-17,-53,0,-68,-73,-112,-112,-87
-58,-78,-19,68,-19,-48,0,-68,-73,-112,-112,-87
-58,-78,-19,68,-19,-48,0,-73,-73,-112,-112,-87
-58,-78,-19,68,-19,-48,4,-78,-78,-112,-112,-87
-58,-78,-19,68,-19,-48,4,-82,-78,-112,-112,-87
-58,-78,-19,68,-19,-48,4,-82,-78,-112,-117,-87
-58,-78,-19,68,-19,-48,4,-82,-78,-112,-117,-92
-63,-78,-14,70,-24,-46,4,-82,-78,-112,-117,-97
-63,-82,-19,73,-21,-51,9,-82,-78,-117,-122,-97
-58,-87,-29,73,-14,-58,9,-82,-78,-117,-122,-97
-58,-92,-34,75,-12,-63,9,-82,-78,-117,-126,-102
-63,-97,-34,80,-14,-65,14,-78,-78,-117,-136,-102
-63,-97,-34,80,-14,-65,14,-78,-78,-117,-141,-107
-63,-97,-34,80,-14,-65,19,-78,-78,-122,-141,-117
-78,-102,-24,90,-26,-63,24,-78,-73,-122,-141,-122
-78,-107,-29,92,-24,-68,24,-73,-73,-122,-146,-126
-82,-107,-24,95,-29,-65,34,-68,-73,-122,-151,-131
-87,-112,-24,100,-31,-68,39,-68,-68,-126,-156,-136
-92,-112,-19,102,-36,-65,48,-63,-68,-126,-161,-141
-97,-122,-24,109,-36,-73,53,-53,-68,-126,-165,-146
-102,-126,-24,114,-39,-75,63,-53,-63,-131,-170,-156
-107,-126,-19,117,-43,-73,68,-43,-58,-131,-175,-161
-107,-136,-29,122,-39,-82,78,-43,-63,-136,-190,-170
-122,-141,-19,131,-51,-80,87,-39,-63,-141,-200,-180
-126,-151,-24,139,-51,-87,97,-34,-58,-146,-204,-190
-136,-156,-19,146,-58,-87,107,-24,-53,-156,-219,-200
-146,-165,-19,156,-63,-92,122,-14,-53,-165,-229,-209
-156,-175,-19,165,-68,-97,131,-4,-39,-165,-239,-219
-165,-180,-14,173,-75,-97,151,4,-34,-170,-248,-229
-175,-195,-19,185,-78,-107,165,14,-34,-175,-258,-244
-185,-204,-19,195,-82,-112,180,24,-29,-185,-278,-263
-195,-219,-24,207,-85,-122,200,34,-29,-190,-287,-278
-204,-234,-29,219,-87,-131,214,48,-19,-190,-307,-297
-219,-248,-29,234,-95,-139,234,73,-9,-195,-317,-312
-234,-258,-24,246,-104,-141,253,92,-4,-200,-331,-326
-248,-278,-29,263,-109,-153,273,107,4,-204,-341,-341
-258,-292,-34,275,-112,-163,292,117,14,-204,-356,-361
-273,-302,-29,287,-122,-165,307,136,24,-209,-370,-380
-283,-312,-29,297,-126,-170,317,156,29,-209,-380,-390
-292,-322,-29,307,-131,-175,336,175,39,-214,-390,-405
-307,-331,-24,319,-141,-178,351,200,48,-214,-395,-414
-322,-341,-19,331,-151,-180,366,224,58,-209,-395,-414
-326,-341,-14,334,-156,-178,375,248,68,-209,-395,-414
-326,-351,-24,339,-151,-187,385,273,82,-200,-390,-414
-331,-351,-19,341,-156,-185,395,292,97,-195,-390,-414
-331,-351,-19,341,-156,-185,400,307,112,-185,-375,-409
-331,-341,-9,336,-161,-175,405,322,122,-170,-361,-395
-326,-336,-9,331,-158,-173,400,336,136,-146,-336,-370
-302,-317,-14,309,-143,-165,390,341,141,-126,-307,-346
-287,-292,-4,290,-141,-148,370,341,151,-107,-278,-317
-278,-268,9,273,-143,-129,351,331,165,-82,-239,-283
-258,-239,19,248,-139,-109,322,322,170,-63,-204,-244
-239,-214,24,226,-131,-95,297,307,170,-39,-165,-209
-219,-185,34,202,-126,-75,268,287,170,-14,-131,-180
-200,-161,39,180,-119,-61,239,273,161,-4,-107,-151
-180,-131,48,156,-114,-41,214,253,151,4,-82,-131
-156,-112,43,134,-100,-34,185,229,146,14,-63,-102
-136,-92,43,114,-90,-24,156,214,136,29,-43,-82
-122,-73,48,97,-85,-12,141,190,126,39,-24,-63
-102,-53,48,78,-75,-2,122,170,122,53,-14,-43
-92,-34,58,63,-75,12,97,151,117,53,-4,-34
-82,-19,63,51,-73,21,78,136,112,58,4,-24
-73,-9,63,41,-68,26,58,122,107,58,14,-9
-63,0,63,31,-63,31,39,102,97,58,19,0
-48,9,58,19,-53,34,29,97,87,58,24,4
-34,19,53,7,-43,36,19,82,82,58,29,4
-29,24,53,2,-41,39,14,78,78,58,29,9
-29,29,58,0,-43,43,9,73,73,58,34,14
-24,24,48,0,-36,36,4,63,63,53,34,14
-24,24,48,0,-36,36,4,63,63,53,34,19
-19,24,43,-2,-31,34,4,58,53,53,34,19
-14,24,39,-4,-26,31,0,48,48,53,39,19
-19,29,48,-4,-34,39,0,48,48,53,39,24
-19,29,48,-4,-34,39,-4,48,43,48,39,24
-19,29,48,-4,-34,39,-4,43,43,43,39,24
-19,29,48,-4,-34,39,-4,39,39,43,34,24
-24,29,53,-2,-39,41,-9,34,39,43,34,24
-24,29,53,-2,-39,41,-9,34,34,39,34,19
-24,29,53,-2,-39,41,-4,34,29,39,34,19
-24,29,53,-2,-39,41,-4,29,29,39,29,19
-24,24,48,0,-36,36,-4,29,29,39,29,14
-19,24,43,-2,-31,34,-4,29,29,34,24,14
-19,19,39,0,-29,29,-4,24,24,34,24,14
-19,19,39,0,-29,29,-4,19,24,29,24,14
-24,14,39,4,-31,26,-4,19,19,29,19,9
-24,14,39,4,-31,26,-4,14,19,29,19,9
-24,14,39,4,-31,26,-4,19,19,24,19,9
-24,19,43,2,-34,31,0,24,19,24,14,4
-29,14,43,7,-36,29,0,24,14,19,14,4
-29,14,43,7,-36,29,0,24,14,9,14,0
-29,14,43,7,-36,29,4,24,14,9,9,0
-29,9,39,9,-34,24,4,24,14,9,4,-4
-34,4,39,14,-36,21,0,24,14,9,4,-4
-34,0,34,17,-34,17,0,24,14,4,4,-9
-34,0,34,17,-34,17,0,19,9,9,4,-4
-34,0,34,17,-34,17,0,14,9,9,-4,0
-34,-4,29,19,-31,12,0,14,9,9,-4,-4
-34,-4,29,19,-31,12,0,14,9,9,-4,-4
-29,-4,24,17,-26,9,-4,14,14,4,-4,-4
-24,0,24,12,-24,12,-4,14,14,4,-4,-4
-24,0,24,12,-24,12,-4,19,4,0,0,-4
-24,0,24,12,-24,12,-4,14,0,0,0,-4
-29,0,29,14,-29,14,-4,9,0,0,-4,-4
-24,0,24,12,-24,12,-9,9,0,0,-4,-4
-24,0,24,12,-24,12,-9,9,0,0,-4,-4
-24,-4,19,14,-21,7,-9,9,0,0,-4,-4
-19,-4,14,12,-17,4,-9,4,4,0,-4,-4
-19,0,19,9,-19,9,-9,4,4,0,-4,-4
-19,0,19,9,-19,9,-9,4,0,0,-4,-4
-19,0,19,9,-19,9,-14,4,0,0,-4,-4
-19,0,19,9,-19,9,-19,4,0,0,-4,-4
-19,4,24,7,-21,14,-19,9,4,0,-4,0
-19,4,24,7,-21,14,-14,9,4,0,-4,-4
-14,4,19,4,-17,12,-14,9,4,0,-4,-4
-9,9,19,0,-14,14,-14,9,4,0,0,-4
-9,9,19,0,-14,14,-19,9,4,-4,0,-4
-14,9,24,2,-19,17,-29,9,4,-4,0,-4
-14,9,24,2,-19,17,-29,9,4,0,-4,0
-14,14,29,0,-21,21,-29,0,0,0,-4,-4
-14,19,34,-2,-24,26,-24,0,0,0,-4,-9
-14,14,29,0,-21,21,-24,0,0,0,-4,-9
-9,9,19,0,-14,14,-24,4,0,0,0,-4
-9,9,19,0,-14,14,-24,4,0,4,4,0
-9,14,24,-2,-17,19,-29,0,0,4,4,0
-9,14,24,-2,-17,19,-29,0,0,4,4,4
-9,14,24,-2,-17,19,-29,0,0,0,4,4
-4,19,24,-7,-14,21,-34,0,4,0,4,4
-4,24,29,-9,-17,26,-34,4,0,0,4,4
-4,29,34,-12,-19,31,-34,4,0,0,0,0
-4,29,34,-12,-19,31,-34,4,0,4,0,0
-4,29,34,-12,-19,31,-34,4,0,0,-4,0
-4,24,29,-9,-17,26,-39,4,0,0,-4,0
-4,19,24,-7,-14,21,-39,4,0,-4,-4,-4
-4,19,24,-7,-14,21,-39,0,0,-4,-9,-4
-4,19,24,-7,-14,21,-39,0,0,-4,-9,-4
-4,19,24,-7,-14,21,-39,0,0,0,-4,-4
-4,19,24,-7,-14,21,-39,0,0,0,-4,-4
-4,19,24,-7,-14,21,-39,0,0,0,-4,-4
-4,19,24,-7,-14,21,-39,0,0,9,-4,-4
-4,19,24,-7,-14,21,-39,0,-4,9,-4,0
-4,19,24,-7,-14,21,-34,0,-4,4,0,0
-4,19,24,-7,-14,21,-34,0,-4,4,4,0
-4,19,24,-7,-14,21,-39,-4,-4,0,0,-4
-4,19,24,-7,-14,21,-39,0,-4,-4,0,-4
-4,19,24,-7,-14,21,-43,-9,-4,0,4,-4
0,19,19,-9,-9,19,-34,-4,0,4,4,-4
0,19,19,-9,-9,19,-34,0,0,4,0,-4
0,19,19,-9,-9,19,-39,4,4,9,0,-9
0,24,24,-12,-12,24,-39,0,0,4,0,-4
0,29,29,-14,-14,29,-39,0,0,0,0,0
0,29,29,-14,-14,29,-39,0,0,0,0,0
0,29,29,-14,-14,29,-39,0,0,0,0,0
0,29,29,-14,-14,29,-39,0,0,0,0,0
0,29,29,-14,-14,29,-39,0,0,0,0,0
0,29,29,-14,-14,29,-39,4,0,0,0,-4
0,29,29,-14,-14,29,-39,9,0,0,0,-9
0,29,29,-14,-14,29,-39,9,4,0,0,-9
0,29,29,-14,-14,29,-39,9,9,0,0,-9
0,29,29,-14,-14,29,-39,14,9,4,0,-4
0,29,29,-14,-14,29,-39,19,9,9,0,0
4,29,24,-17,-9,26,-29,24,19,9,4,0
9,29,19,-19,-4,24,-19,29,29,9,9,0
14,39,24,-26,-4,31,4,48,39,24,19,4
19,48,29,-34,-4,39,29,68,48,39,29,9
29,58,29,-43,0,43,43,82,63,48,34,19
39,68,29,-53,4,48,58,97,78,58,39,29
39,78,39,-58,0,58,78,112,87,63,48,34
39,87,48,-63,-4,68,97,126,97,68,58,39
43,87,43,-65,0,65,112,141,107,78,63,43
48,87,39,-68,4,63,126,156,117,87,68,48
58,87,29,-73,14,58,136,161,117,87,68,48
68,87,19,-78,24,53,146,165,117,87,68,48
73,97,24,-85,24,61,122,165,117,87,68,48
78,107,29,-92,24,68,97,165,117,87,68,48
78,107,29,-92,24,68,14,107,87,73,63,43
78,107,29,-92,24,68,-68,48,58,58,58,39
68,112,43,-90,12,78,-92,19,34,43,43,34
58,102,43,-80,7,73,-112,-14,9,24,29,24
48,97,48,-73,0,73,-136,-48,-14,4,14,19
48,87,39,-68,4,63,-146,-73,-29,-9,9,9
58,82,24,-70,17,53,-126,-58,-19,0,9,14
73,87,14,-80,29,51,-107,-39,-4,9,14,24
82,97,14,-90,34,56,-102,-14,9,14,24,39
87,97,9,-92,39,53,-102,-9,14,19,34,43
87,112,24,-100,31,68,-126,-39,-4,19,29,43
92,122,29,-107,31,75,-141,-58,-19,14,19,39
92,126,34,-109,29,80,-141,-53,-19,14,24,48
92,117,24,-104,34,70,-131,-43,-14,19,24,43
63,68,4,-65,29,36,-107,-24,-9,4,9,19
39,34,-4,-36,21,14,-92,-19,-9,0,-9,-9
19,24,4,-21,7,14,-82,-19,-9,-4,-19,-14
9,14,4,-12,2,9,-78,-24,-14,-9,-24,-19
9,14,4,-12,2,9,-78,-24,-14,-9,-24,-19
4,14,9,-9,-2,12,-78,-24,-14,-9,-24,-19
-4,14,19,-4,-12,17,-78,-24,-14,-14,-24,-19
-9,4,14,2,-12,9,-73,-24,-14,-19,-29,-24
-9,4,14,2,-12,9,-68,-19,-14,-19,-24,-29
-9,4,14,2,-12,9,-68,-14,-14,-19,-24,-34
-9,4,14,2,-12,9,-63,-14,-9,-19,-24,-34
-14,4,19,4,-17,12,-63,-9,-9,-19,-24,-34
-14,4,19,4,-17,12,-58,-9,-4,-19,-24,-34
-14,4,19,4,-17,12,-58,-4,-4,-19,-24,-34
-14,4,19,4,-17,12,-58,0,-4,-14,-24,-34
-14,4,19,4,-17,12,-53,0,0,-14,-19,-34
-19,4,24,7,-21,14,-53,0,0,-14,-19,-34
-24,4,29,9,-26,17,-53,4,0,-14,-19,-34
-24,9,34,7,-29,21,-53,4,-4,-14,-19,-34
-24,9,34,7,-29,21,-53,4,-4,-14,-19,-34
-24,9,34,7,-29,21,-53,4,-4,-14,-14,-34
-24,9,34,7,-29,21,-53,9,-4,-9,-14,-29
-24,9,34,7,-29,21,-58,4,0,-9,-14,-29
-24,9,34,7,-29,21,-58,4,0,-9,-14,-29
-24,19,43,2,-34,31,-73,-9,-9,-9,-19,-29
-29,24,53,2,-41,39,-53,4,0,-4,-19,-29
-29,9,39,9,-34,24,-4,53,29,0,-24,-48
-34,-24,9,29,-21,-7,29,82,39,4,-34,-68
-68,-58,9,63,-39,-24,63,97,68,19,-53,-107
-82,-92,-9,87,-36,-51,165,287,204,102,-19,-117
-43,-117,-73,80,14,-95,409,732,561,331,131,-48
63,-78,-141,7,102,-109,551,1063,800,531,322,78
200,-58,-258,-70,229,-158,483,1190,819,600,444,185
326,87,-239,-207,283,-75,424,1254,780,653,517,273
448,771,322,-610,63,546,570,1307,800,795,663,444
727,1200,473,-963,126,836,546,1049,605,810,810,658
1151,1171,19,-1161,566,595,-117,-546,-336,409,688,746
1327,1146,-180,-1237,753,483,-1127,-2225,-1415,-82,663,1000
1434,932,-502,-1183,968,214,-2225,-3211,-2074,-395,868,1522
1337,936,-400,-1137,868,268,-2591,-3396,-2044,-126,1351,1961
1195,980,-214,-1088,705,383,-2225,-2757,-1322,629,1995,2220
1054,814,-239,-934,646,287,-1888,-2166,-824,868,1854,1800
790,468,-322,-629,556,73,-1493,-1771,-878,224,722,775
600,219,-380,-409,490,-80,-1137,-1381,-883,-229,58,234
370,102,-268,-236,319,-82,-668,-849,-610,-278,-39,126
165,9,-156,-87,161,-73,-322,-473,-366,-239,-92,34
34,-63,-97,14,65,-80,-156,-283,-214,-165,-97,-63
-53,-107,-53,80,0,-80,-53,-161,-122,-117,-107,-112
-68,-112,-43,90,-12,-78,-43,-131,-117,-117,-107,-112
-78,-102,-24,90,-26,-63,-34,-117,-112,-117,-107,-112
-68,-92,-24,80,-21,-58,-34,-107,-112,-112,-112,-112
-63,-92,-29,78,-17,-61,-34,-97,-97,-112,-112,-112
-63,-87,-24,75,-19,-56,-29,-87,-92,-112,-112,-112
-63,-87,-24,75,-19,-56,-24,-82,-92,-112,-112,-112
-63,-87,-24,75,-19,-56,-19,-82,-87,-112,-112,-112
-58,-82,-24,70,-17,-53,-19,-78,-87,-107,-112,-112
-58,-82,-24,70,-17,-53,-14,-73,-82,-107,-112,-112
-58,-82,-24,70,-17,-53,-14,-63,-78,-107,-112,-112
-58,-82,-24,70,-17,-53,-14,-63,-78,-112,-117,-112
-58,-82,-24,70,-17,-53,-9,-58,-78,-117,-122,-112
-53,-82,-29,68,-12,-56,-9,-58,-78,-122,-122,-112
-53,-82,-29,68,-12,-56,-9,-58,-78,-122,-122,-112
-53,-82,-29,68,-12,-56,-4,-58,-78,-122,-122,-117
-53,-82,-29,68,-12,-56,-4,-58,-78,-122,-122,-122
-53,-82,-29,68,-12,-56,-4,-58,-78,-122,-126,-122
-53,-82,-29,68,-12,-56,-4,-63,-78,-122,-126,-122
-53,-82,-29,68,-12,-56,-4,-63,-78,-122,-126,-117
-53,-82,-29,68,-12,-56,-4,-63,-78,-122,-126,-117
-53,-82,-29,68,-12,-56,0,-63,-82,-117,-122,-117
-53,-82,-29,68,-12,-56,0,-68,-82,-112,-117,-117
-53,-82,-29,68,-12,-56,0,-68,-82,-112,-122,-117
-53,-82,-29,68,-12,-56,0,-68,-82,-112,-122,-117
-48,-78,-29,63,-9,-53,0,-63,-82,-112,-122,-117
-48,-78,-29,63,-9,-53,0,-58,-78,-112,-122,-117
-48,-78,-29,63,-9,-53,4,-58,-78,-112,-122,-117
-48,-78,-29,63,-9,-53,4,-63,-78,-112,-122,-117
-48,-78,-29,63,-9,-53,4,-63,-73,-112,-126,-117
-48,-78,-29,63,-9,-53,4,-63,-68,-112,-126,-122
-48,-78,-29,63,-9,-53,4,-63,-68,-112,-126,-126
-43,-78,-34,61,-4,-56,9,-63,-68,-117,-131,-126
-39,-78,-39,58,0,-58,9,-63,-68,-117,-131,-126
-39,-82,-43,61,2,-63,9,-63,-68,-117,-131,-131
-43,-87,-43,65,0,-65,14,-58,-68,-117,-136,-131
-43,-87,-43,65,0,-65,14,-58,-68,-117,-141,-131
-43,-87,-43,65,0,-65,24,-53,-68,-122,-141,-136
-58,-92,-34,75,-12,-63,34,-48,-63,-122,-141,-141
-58,-97,-39,78,-9,-68,34,-43,-63,-117,-136,-141
-58,-97,-39,78,-9,-68,43,-39,-63,-112,-131,-141
-58,-102,-43,80,-7,-73,48,-39,-53,-117,-136,-146
-63,-102,-39,82,-12,-70,58,-34,-48,-117,-141,-151
-63,-112,-48,87,-7,-80,63,-19,-48,-117,-146,-156
-63,-117,-53,90,-4,-85,73,-14,-43,-122,-151,-165
-68,-112,-43,90,-12,-78,73,-4,-43,-122,-156,-170
-68,-117,-48,92,-9,-82,78,0,-48,-126,-165,-180
-82,-117,-34,100,-24,-75,87,9,-43,-126,-170,-185
-87,-122,-34,104,-26,-78,97,14,-39,-122,-175,-190
-92,-126,-34,109,-29,-80,107,24,-29,-126,-185,-200
-97,-136,-39,117,-29,-87,122,34,-24,-136,-190,-209
-107,-146,-39,126,-34,-92,131,48,-9,-136,-200,-214
-117,-151,-34,134,-41,-92,151,63,-4,-141,-209,-219
-126,-165,-39,146,-43,-102,165,73,-4,-141,-219,-234
-136,-175,-39,156,-48,-107,180,87,4,-146,-239,-253
-146,-185,-39,165,-53,-112,200,102,9,-151,-244,-263
-156,-195,-39,175,-58,-117,214,117,19,-151,-258,-278
-170,-209,-39,190,-65,-124,234,146,34,-156,-263,-292
-185,-219,-34,202,-75,-126,253,170,43,-161,-273,-307
-195,-234,-39,214,-78,-136,273,185,53,-165,-283,-322
-200,-244,-43,222,-78,-143,292,200,63,-165,-297,-336
-214,-253,-39,234,-87,-146,307,224,73,-170,-312,-351
-224,-263,-39,244,-92,-151,317,244,78,-170,-322,-361
-239,-278,-39,258,-100,-158,336,263,87,-175,-336,-375
-253,-292,-39,273,-107,-165,351,283,97,-175,-346,-385
-268,-302,-34,285,-117,-168,375,302,112,-170,-346,-390
-278,-302,-24,290,-126,-163,395,326,126,-170,-346,-395
-278,-317,-39,297,-119,-178,405,351,141,-161,-346,-400
-283,-322,-39,302,-122,-180,414,370,151,-156,-351,-405
-283,-326,-43,305,-119,-185,419,390,161,-156,-346,-405
-283,-322,-39,302,-122,-180,419,405,170,-151,-341,-395
-287,-322,-34,305,-126,-178,419,414,180,-131,-326,-380
-278,-307,-29,292,-124,-168,419,419,180,-117,-307,-366
-273,-287,-14,280,-129,-151,405,424,190,-97,-278,-341
-268,-268,0,268,-134,-134,390,419,200,-73,-244,-317
-253,-248,4,251,-129,-122,366,409,200,-53,-219,-283
-239,-234,4,236,-122,-114,346,395,200,-29,-185,-248
-219,-204,14,212,-117,-95,317,375,204,-4,-151,-219
-200,-180,19,190,-109,-80,287,356,200,4,-126,-190
-180,-151,29,165,-104,-61,258,326,190,14,-97,-170
-161,-131,29,146,-95,-51,224,297,185,24,-73,-141
-146,-107,39,126,-92,-34,185,283,170,39,-53,-122
-131,-82,48,107,-90,-17,161,258,156,43,-34,-102
-102,-63,39,82,-70,-12,141,234,151,53,-19,-82
-82,-48,34,65,-58,-7,117,209,141,53,-4,-73
-73,-39,34,56,-53,-2,97,195,131,58,4,-63
-63,-29,34,46,-48,2,82,180,126,58,14,-48
-53,-14,39,34,-46,12,63,151,117,58,19,-34
-43,0,43,21,-43,21,48,136,107,58,24,-24
-34,9,43,12,-39,26,39,122,97,58,29,-24
-29,14,43,7,-36,29,29,112,87,58,29,-19
-29,24,53,2,-41,39,14,97,82,58,34,-14
-24,29,53,-2,-39,41,4,82,73,53,34,-14
-24,34,58,-4,-41,46,4,82,68,48,34,-9
-19,34,53,-7,-36,43,4,78,58,43,34,-9
-14,34,48,-9,-31,41,-4,68,58,43,39,-9
-14,39,53,-12,-34,46,-9,68,58,43,39,-4
-9,39,48,-14,-29,43,-14,68,53,43,39,-4
-9,39,48,-14,-29,43,-14,63,53,43,39,-4
-9,39,48,-14,-29,43,-14,58,48,43,34,-4
-14,39,53,-12,-34,46,-19,53,48,43,34,-4
-14,39,53,-12,-34,46,-19,53,43,34,34,-4
-14,39,53,-12,-34,46,-14,53,39,29,34,0
-14,39,53,-12,-34,46,-14,48,39,29,29,4
-19,34,53,-7,-36,43,-14,48,39,29,29,4
-19,34,53,-7,-36,43,-14,48,39,29,24,4
-19,29,48,-4,-34,39,-14,48,34,34,24,4
-19,29,48,-4,-34,39,-9,48,34,29,24,4
-24,24,48,0,-36,36,-4,48,29,29,19,0
-24,24,48,0,-36,36,-4,43,34,29,24,-4
-24,19,43,2,-34,31,-4,43,39,24,29,-9
-24,19,43,2,-34,31,0,43,39,24,24,-14
-29,14,43,7,-36,29,0,43,34,24,24,-14
-29,14,43,7,-36,29,0,43,29,24,24,-19
-29,14,43,7,-36,29,4,43,24,29,19,-19
-29,9,39,9,-34,24,4,43,24,29,14,-24
-34,4,39,14,-36,21,4,43,24,29,14,-24
-39,-4,34,21,-36,14,14,43,24,19,9,-29
-43,-9,34,26,-39,12,19,43,19,14,4,-29
-43,-9,34,26,-39,12,24,48,24,9,-4,-29
-43,-14,29,29,-36,7,29,53,29,9,-4,-34
-43,-14,29,29,-36,7,29,53,29,9,-4,-39
-43,-19,24,31,-34,2,29,53,29,4,-4,-43
-48,-19,29,34,-39,4,29,43,29,4,-4,-43
-53,-19,34,36,-43,7,24,43,24,0,-4,-43
-53,-19,34,36,-43,7,24,43,19,-4,-9,-48
-53,-19,34,36,-43,7,29,43,19,-9,-14,-53
-48,-24,24,36,-36,0,29,48,19,-9,-14,-53
-53,-29,24,41,-39,-2,29,48,19,-9,-14,-53
-58,-39,19,48,-39,-9,29,53,19,-9,-14,-53
-58,-43,14,51,-36,-14,29,53,24,-9,-14,-53
-58,-39,19,48,-39,-9,34,53,24,-9,-14,-53
-58,-39,19,48,-39,-9,39,53,19,-9,-14,-53
-53,-39,14,46,-34,-12,34,53,14,-9,-14,-53
-48,-39,9,43,-29,-14,29,53,9,-9,-14,-53
-48,-34,14,41,-31,-9,29,58,14,-9,-14,-53
-48,-34,14,41,-31,-9,34,58,14,-9,-14,-58
-43,-34,9,39,-26,-12,39,58,14,-9,-19,-53
-39,-29,9,34,-24,-9,39,58,19,-4,-19,-53
-39,-29,9,34,-24,-9,43,58,29,0,-19,-48
-39,-24,14,31,-26,-4,48,58,34,4,-14,-43
-29,-14,14,21,-21,0,68,87,48,14,-9,-34
-24,-4,19,14,-21,7,82,107,58,19,-4,-29
-14,9,24,2,-19,17,92,117,73,29,4,-24
-4,19,24,-7,-14,21,102,122,87,39,14,-19
0,29,29,-14,-14,29,122,136,92,43,24,-9
0,39,39,-19,-19,39,141,151,97,53,34,0
4,43,39,-24,-17,41,156,156,107,58,39,0
9,43,34,-26,-12,39,175,165,117,63,43,4
14,43,29,-29,-7,36,185,180,122,63,48,9
24,43,19,-34,2,31,190,190,126,68,53,14
34,43,9,-39,12,26,175,190,117,68,53,14
43,48,4,-46,19,26,161,190,117,63,48,9
43,68,24,-56,9,46,82,151,97,58,48,14
48,87,39,-68,4,63,9,117,78,58,48,19
48,87,39,-68,4,63,-43,68,53,39,39,19
48,87,39,-68,4,63,-97,19,29,19,29,19
48,87,39,-68,4,63,-97,0,9,9,29,19
43,78,34,-61,4,56,-97,-14,0,0,24,14
43,73,29,-58,7,51,-102,-29,-14,-4,19,9
43,68,24,-56,9,46,-102,-24,-9,0,19,9
48,73,24,-61,12,48,-97,-24,-9,0,19,9
58,78,19,-68,19,48,-87,-9,0,9,29,14
68,87,19,-78,24,53,-87,-4,9,9,34,19
68,97,29,-82,19,63,-107,-19,4,0,24,24
68,97,29,-82,19,63,-112,-29,-4,0,24,24
63,97,34,-80,14,65,-112,-29,-9,0,19,24
53,73,19,-63,17,46,-102,-29,-9,-4,9,19
34,48,14,-41,9,31,-87,-24,-9,-9,9,14
24,39,14,-31,4,26,-82,-14,-4,-9,4,-4
-4,9,14,-2,-9,12,-68,0,-4,-24,-9,-19
-24,-9,14,17,-19,2,-53,0,-9,-29,-24,-39
-29,-4,24,17,-26,9,-53,0,-9,-29,-19,-39
-29,-4,24,17,-26,9,-58,-4,-14,-29,-14,-39
-29,-4,24,17,-26,9,-58,-4,-14,-29,-14,-39
-29,-4,24,17,-26,9,-58,-4,-14,-29,-14,-39
-29,-4,24,17,-26,9,-58,-4,-14,-29,-14,-39
-29,-14,14,21,-21,0,-53,0,-14,-24,-19,-39
-29,-14,14,21,-21,0,-48,9,-14,-19,-19,-34
-29,-14,14,21,-21,0,-48,14,-9,-19,-24,-34
-29,-14,14,21,-21,0,-43,14,0,-19,-24,-34
-29,-14,14,21,-21,0,-43,19,0,-19,-19,-34
-24,-14,9,19,-17,-2,-39,19,4,-19,-14,-34
-24,-9,14,17,-19,2,-39,19,4,-19,-14,-34
-24,-4,19,14,-21,7,-39,19,4,-14,-14,-34
-24,-4,19,14,-21,7,-39,19,9,-14,-9,-34
-24,-4,19,14,-21,7,-43,19,9,-14,-9,-34
-24,-4,19,14,-21,7,-43,29,9,-9,-9,-29
-24,0,24,12,-24,12,-43,34,9,-4,-9,-24
-24,4,29,9,-26,17,-39,34,14,-4,-14,-24
-24,9,34,7,-29,21,-34,34,14,-4,-14,-24
-24,9,34,7,-29,21,-34,39,14,0,-14,-24
-24,9,34,7,-29,21,-34,39,19,0,-14,-29
-24,4,29,9,-26,17,-24,48,24,0,-14,-29
-29,0,29,14,-29,14,-14,68,39,9,-14,-34
-39,-24,14,31,-26,-4,24,117,68,24,-9,-39
-39,-68,-29,53,-4,-48,78,185,117,43,-4,-58
-34,-112,-78,73,21,-95,136,278,180,78,0,-78
-24,-126,-102,75,39,-114,239,463,326,170,39,-78
9,-126,-136,58,73,-131,361,727,517,317,146,-29
112,-68,-180,-21,146,-124,478,990,727,517,331,102
268,122,-146,-195,207,-12,488,1093,810,692,551,307
405,385,-19,-395,212,183,366,961,697,736,673,468
575,697,122,-636,226,409,263,732,566,814,810,649
810,1220,409,-1015,200,814,161,219,356,912,1049,951
1083,1483,400,-1283,341,941,-195,-512,-53,868,1298,1337
1283,1366,82,-1324,600,724,-1107,-1991,-863,575,1371,1634
1259,1298,39,-1278,610,668,-2025,-3128,-1586,317,1527,1932
1210,1190,-19,-1200,614,585,-2283,-2971,-1459,483,1849,2230
1005,1146,141,-1076,431,644,-2030,-2430,-1015,814,2025,2210
844,917,73,-880,385,495,-1639,-1922,-697,839,1693,1698
683,585,-97,-634,390,244,-1283,-1444,-502,561,1005,922
434,312,-122,-373,278,95,-888,-1088,-561,14,292,385
273,131,-141,-202,207,-4,-575,-756,-541,-258,-9,185
107,24,-82,-65,95,-29,-253,-370,-283,-170,-34,63
-19,-48,-29,34,4,-39,-73,-161,-107,-87,-53,-24
-63,-97,-34,80,-14,-65,-43,-112,-87,-107,-78,-82
-82,-117,-34,100,-24,-75,-24,-87,-78,-107,-87,-87
-78,-117,-39,97,-19,-78,-14,-73,-78,-107,-87,-82
-78,-102,-24,90,-26,-63,-4,-68,-73,-107,-87,-82
-68,-92,-24,80,-21,-58,-4,-58,-73,-102,-92,-82
-63,-92,-29,78,-17,-61,-4,-48,-58,-102,-92,-82
-63,-87,-24,75,-19,-56,-4,-39,-53,-102,-92,-82
-63,-87,-24,75,-19,-56,-4,-34,-53,-102,-92,-82
-63,-87,-24,75,-19,-56,0,-34,-48,-102,-92,-82
-58,-82,-24,70,-17,-53,0,-34,-48,-97,-92,-82
-58,-82,-24,70,-17,-53,4,-39,-48,-97,-92,-82
-58,-82,-24,70,-17,-53,4,-34,-48,-97,-92,-82
-58,-82,-24,70,-17,-53,4,-34,-48,-97,-92,-82
-58,-82,-24,70,-17,-53,9,-29,-48,-97,-92,-82
-53,-82,-29,68,-12,-56,9,-29,-48,-102,-92,-82
-53,-82,-29,68,-12,-56,9,-29,-48,-102,-92,-82
-53,-82,-29,68,-12,-56,14,-29,-48,-102,-92,-82
-53,-82,-29,68,-12,-56,14,-24,-48,-97,-92,-78
-53,-82,-29,68,-12,-56,14,-19,-48,-92,-97,-73
-53,-82,-29,68,-12,-56,14,-24,-48,-92,-92,-73
-53,-82,-29,68,-12,-56,14,-24,-48,-92,-87,-73
-53,-82,-29,68,-12,-56,14,-24,-48,-92,-87,-78
-53,-82,-29,68,-12,-56,19,-24,-53,-92,-87,-78
-53,-82,-29,68,-12,-56,19,-29,-53,-97,-92,-78
-53,-82,-29,68,-12,-56,19,-29,-53,-102,-102,-78
-53,-82,-29,68,-12,-56,19,-34,-58,-102,-102,-78
-48,-78,-29,63,-9,-53,19,-39,-63,-102,-102,-78
-48,-78,-29,63,-9,-53,19,-39,-58,-102,-102,-82
-48,-78,-29,63,-9,-53,24,-39,-58,-102,-102,-87
-48,-78,-29,63,-9,-53,24,-43,-53,-102,-102,-87
-48,-78,-29,63,-9,-53,24,-43,-48,-102,-107,-87
-48,-78,-29,63,-9,-53,24,-43,-48,-107,-107,-92
-53,-78,-24,65,-14,-51,24,-43,-48,-112,-107,-97
-53,-78,-24,65,-14,-51,29,-43,-48,-117,-112,-97
-48,-78,-29,63,-9,-53,29,-43,-48,-117,-112,-97
-48,-82,-34,65,-7,-58,29,-43,-48,-117,-112,-102
-53,-87,-34,70,-9,-61,34,-39,-48,-117,-117,-102
-53,-92,-39,73,-7,-65,34,-39,-48,-117,-126,-102
-53,-97,-43,75,-4,-70,39,-39,-48,-122,-131,-107
-68,-102,-34,85,-17,-68,43,-39,-48,-122,-131,-112
-68,-107,-39,87,-14,-73,43,-34,-53,-122,-136,-117
-68,-102,-34,85,-17,-68,53,-29,-53,-122,-141,-122
-68,-102,-34,85,-17,-68,58,-29,-48,-126,-146,-126
-73,-102,-29,87,-21,-65,63,-29,-48,-126,-151,-131
-78,-112,-34,95,-21,-73,63,-24,-48,-126,-156,-136
-87,-117,-29,102,-29,-73,73,-24,-43,-131,-161,-146
-97,-117,-19,107,-39,-68,78,-14,-39,-131,-165,-151
-97,-126,-29,112,-34,-78,87,-14,-39,-136,-175,-161
-112,-131,-19,122,-46,-75,97,-9,-34,-141,-180,-170
-117,-146,-29,131,-43,-87,107,-4,-29,-141,-185,-185
-126,-156,-29,141,-48,-92,117,4,-24,-146,-200,-200
-136,-165,-29,151,-53,-97,131,14,-24,-156,-214,-209
-146,-175,-29,161,-58,-102,141,24,-9,-156,-229,-219
-156,-180,-24,168,-65,-102,161,29,-4,-165,-239,-229
-165,-195,-29,180,-68,-112,175,34,-4,-175,-248,-244
-175,-204,-29,190,-73,-117,190,48,0,-185,-273,-263
-185,-219,-34,202,-75,-126,209,63,0,-190,-287,-278
-195,-239,-43,217,-75,-141,224,73,4,-195,-312,-302
-209,-258,-48,234,-80,-153,244,92,9,-204,-326,-322
-224,-268,-43,246,-90,-156,263,112,14,-209,-341,-341
-239,-287,-48,263,-95,-168,283,126,24,-214,-351,-361
-248,-307,-58,278,-95,-183,302,141,34,-214,-366,-375
-263,-322,-58,292,-102,-190,317,165,43,-219,-380,-390
-268,-331,-63,300,-102,-197,326,185,48,-219,-390,-400
-273,-341,-68,307,-102,-204,346,204,58,-224,-400,-414
-283,-351,-68,317,-107,-209,361,219,68,-229,-405,-424
-292,-361,-68,326,-112,-214,375,234,78,-229,-405,-424
-297,-356,-58,326,-119,-207,385,258,87,-229,-405,-424
-297,-361,-63,329,-117,-212,395,283,102,-219,-400,-424
-302,-361,-58,331,-122,-209,400,302,112,-209,-395,-419
-302,-361,-58,331,-122,-209,400,317,122,-195,-375,-409
-302,-346,-43,324,-129,-195,400,326,131,-175,-361,-395
-297,-336,-39,317,-129,-187,390,336,146,-146,-336,-370
-273,-317,-43,295,-114,-180,375,341,151,-126,-307,-336
-258,-292,-34,275,-112,-163,351,341,161,-107,-278,-297
-248,-268,-19,258,-114,-143,331,336,170,-82,-239,-268
-229,-239,-9,234,-109,-124,302,331,170,-63,-204,-234
-209,-209,0,209,-104,-104,278,317,170,-39,-165,-200
-190,-175,14,183,-102,-80,248,297,170,-14,-131,-170
-170,-151,19,161,-95,-65,224,283,170,0,-102,-136
-151,-122,29,136,-90,-46,204,263,170,14,-73,-112
-131,-102,29,117,-80,-36,175,239,165,24,-53,-82
-117,-82,34,100,-75,-24,146,224,156,39,-34,-63
-107,-63,43,85,-75,-9,131,204,146,43,-14,-48
-92,-43,48,68,-70,2,112,190,141,53,-4,-34
-82,-29,53,56,-68,12,92,170,131,53,4,-24
-73,-19,53,46,-63,17,78,156,122,58,14,-14
-63,-9,53,36,-58,21,63,141,117,58,24,0
-53,0,53,26,-53,26,48,122,107,58,29,9
-43,4,48,19,-46,26,39,122,102,58,34,14
-34,9,43,12,-39,26,29,112,102,58,39,14
-29,14,43,7,-36,29,19,102,97,63,39,19
-29,19,48,4,-39,34,9,92,92,68,43,24
-24,19,43,2,-34,31,4,82,82,63,43,24
-24,24,48,0,-36,36,4,82,82,63,43,29
-19,24,43,-2,-31,34,4,78,78,63,43,29
-14,24,39,-4,-26,31,0,68,78,63,48,29
-19,29,48,-4,-34,39,0,68,78,63,48,34
-19,29,48,-4,-34,39,-4,68,73,58,48,34
-19,24,43,-2,-31,34,-4,63,73,53,48,34
-19,19,39,0,-29,29,-4,58,68,53,43,34
-24,19,43,2,-34,31,-9,53,68,53,43,34
-24,19,43,2,-34,31,-9,53,63,48,43,29
-24,19,43,2,-34,31,-4,53,58,48,43,29
-24,19,43,2,-34,31,-4,48,58,48,39,29
-29,14,43,7,-36,29,-4,48,58,48,39,24
-29,14,43,7,-36,29,-4,48,58,43,34,24
-29,9,39,9,-34,24,-4,48,53,43,34,24
-29,9,39,9,-34,24,-4,48,53,39,34,24
-29,4,34,12,-31,19,-4,48,48,39,29,19
-24,4,29,9,-26,17,-4,43,48,39,29,19
-24,0,24,12,-24,12,-4,43,48,34,29,19
-24,0,24,12,-24,12,0,43,48,34,24,14
-29,-4,24,17,-26,9,0,43,43,34,24,19
-29,-4,24,17,-26,9,0,43,43,29,24,19
-29,-4,24,17,-26,9,4,43,43,29,19,19
-29,-9,19,19,-24,4,4,43,43,29,14,14
-34,-9,24,21,-29,7,4,43,43,29,14,14
-34,-9,24,21,-29,7,9,43,43,24,14,9
-29,-9,19,19,-24,4,4,43,34,29,14,9
-24,-9,14,17,-19,2,0,43,29,29,4,9
-24,-14,9,19,-17,-2,0,43,29,29,4,4
-24,-14,9,19,-17,-2,0,43,29,29,4,4
-24,-14,9,19,-17,-2,-4,39,34,24,4,4
-24,-9,14,17,-19,2,-4,34,34,24,4,4
-24,-9,14,17,-19,2,-4,43,29,19,9,4
-24,-9,14,17,-19,2,-4,43,29,19,9,4
-29,-9,19,19,-24,4,0,39,29,19,4,4
-24,-9,14,17,-19,2,0,39,29,19,4,4
-24,-9,14,17,-19,2,0,39,24,19,4,4
-24,-14,9,19,-17,-2,0,39,19,19,4,4
-19,-14,4,17,-12,-4,0,34,24,19,4,4
-19,-9,9,14,-14,0,0,34,24,19,4,4
-19,-9,9,14,-14,0,0,34,19,14,4,4
-19,-9,9,14,-14,0,-4,34,19,9,4,4
-19,-9,9,14,-14,0,-9,34,19,9,0,4
-19,-4,14,12,-17,4,-9,39,24,9,-4,9
-19,-4,14,12,-17,4,-4,39,24,9,-4,4
-14,-4,9,9,-12,2,-4,39,24,9,-4,4
-9,0,9,4,-9,4,-4,39,24,14,0,4
-9,0,9,4,-9,4,-9,39,24,14,0,4
-14,0,14,7,-14,7,-19,39,24,9,4,4
-14,0,14,7,-14,7,-19,39,24,9,4,9
-14,0,14,7,-14,7,-24,29,19,9,4,9
-14,0,14,7,-14,7,-24,29,19,9,4,9
-14,0,14,7,-14,7,-24,24,19,9,0,4
-9,0,9,4,-9,4,-24,24,19,9,0,4
-9,0,9,4,-9,4,-19,29,19,14,0,4
-9,4,14,2,-12,9,-19,29,19,14,-4,0
-9,4,14,2,-12,9,-19,34,19,19,-4,4
-9,4,14,2,-12,9,-19,39,19,19,-4,4
-4,0,4,2,-4,2,-24,34,24,19,0,9
-4,-4,0,4,-2,-2,-24,34,19,19,4,14
-9,0,9,4,-9,4,-24,34,19,14,0,9
-14,0,14,7,-14,7,-24,34,19,14,0,9
-14,4,19,4,-17,12,-24,29,19,9,-4,9
-14,4,19,4,-17,12,-29,24,19,9,-4,9
-9,4,14,2,-12,9,-24,24,19,9,-4,9
-4,9,14,-2,-9,12,-19,19,19,14,-9,14
-4,9,14,-2,-9,12,-19,19,19,14,-9,14
-4,9,14,-2,-9,12,-19,19,19,19,-4,14
-4,9,14,-2,-9,12,-19,24,19,14,-4,14
-4,9,14,-2,-9,12,-19,29,19,9,-4,14
-4,9,14,-2,-9,12,-19,29,24,19,0,14
-4,9,14,-2,-9,12,-19,29,24,19,4,19
-4,9,14,-2,-9,12,-4,39,29,24,9,19
-4,9,14,-2,-9,12,4,48,34,34,14,19
0,19,19,-9,-9,19,19,63,48,39,19,24
4,29,24,-17,-9,26,39,87,63,43,29,34
14,39,24,-26,-4,31,43,87,73,58,39,39
29,48,19,-39,4,34,63,102,87,73,43,43
29,58,29,-43,0,43,73,112,97,73,48,48
29,68,39,-48,-4,53,87,122,112,78,58,58
39,73,34,-56,2,53,107,136,112,87,63,63
48,78,29,-63,9,53,126,156,117,97,68,68
53,78,24,-65,14,51,136,170,126,97,68,68
58,78,19,-68,19,48,146,185,136,97,68,68
63,78,14,-70,24,46,131,185,136,97,68,68
68,78,9,-73,29,43,117,185,136,97,68,68
68,82,14,-75,26,48,43,141,112,82,63,68
68,87,19,-78,24,53,-29,97,87,68,58,68
63,92,29,-78,17,61,-73,48,58,53,48,63
58,97,39,-78,9,68,-117,0,29,39,39,58
58,92,34,-75,12,63,-117,-14,14,29,34,53
53,82,29,-68,12,56,-117,-24,0,19,24,48
53,78,24,-65,14,51,-122,-39,-9,9,19,48
58,78,19,-68,19,48,-117,-34,-9,9,19,48
68,78,9,-73,29,43,-102,-19,0,19,29,53
82,87,4,-85,39,46,-87,0,14,29,43,63
87,97,9,-92,39,53,-97,0,14,29,43,68
87,97,9,-92,39,53,-112,-19,4,29,43,63
78,92,14,-85,31,53,-122,-29,4,29,39,63
73,82,9,-78,31,46,-122,-29,9,24,29,58
63,78,14,-70,24,46,-117,-24,9,19,29,53
53,58,4,-56,24,31,-102,-14,14,19,24,34
24,24,0,-24,12,12,-78,0,9,4,9,19
0,4,4,-2,-2,4,-63,0,0,0,-9,0
-9,4,14,2,-12,9,-63,0,0,-4,-14,0
-9,4,14,2,-12,9,-68,-4,-4,-9,-14,0
-9,4,14,2,-12,9,-68,-4,-4,-9,-14,0
-14,4,19,4,-17,12,-68,-4,-4,-9,-14,0
-19,0,19,9,-19,9,-68,-4,-4,-9,-14,0
-19,-14,4,17,-12,-4,-63,-4,-4,-9,-19,-4
-19,-14,4,17,-12,-4,-58,0,-4,-9,-19,-4
-19,-14,4,17,-12,-4,-58,4,-4,-9,-24,-4
-19,-14,4,17,-12,-4,-53,4,0,-9,-24,-9
-24,-14,9,19,-17,-2,-53,9,0,-9,-24,-14
-24,-14,9,19,-17,-2,-43,9,9,-4,-24,-14
-24,-14,9,19,-17,-2,-39,14,14,0,-24,-14
-24,-14,9,19,-17,-2,-39,19,14,4,-24,-14
-24,-14,9,19,-17,-2,-34,19,19,4,-19,-14
-24,-14,9,19,-17,-2,-34,19,14,0,-19,-14
-24,-14,9,19,-17,-2,-34,24,9,-4,-19,-14
-24,-9,14,17,-19,2,-34,24,9,-4,-19,-14
-24,-9,14,17,-19,2,-34,24,14,-4,-19,-14
-24,-9,14,17,-19,2,-34,24,14,-4,-14,-14
-24,-9,14,17,-19,2,-34,29,14,0,-14,-9
-24,-9,14,17,-19,2,-34,29,19,0,-14,-9
-24,-9,14,17,-19,2,-29,34,19,0,-14,-9
-29,-9,19,19,-24,4,-19,53,29,9,-14,-14
-39,-14,24,26,-31,4,24,102,58,24,-9,-19
-39,-39,0,39,-19,-19,78,170,117,48,0,-34
-43,-82,-39,63,-2,-61,117,219,156,73,4,-48
-39,-92,-53,65,7,-73,209,375,283,161,48,-43
-14,-102,-87,58,36,-95,370,707,517,317,146,-9
73,-48,-122,-12,97,-85,502,1005,732,517,312,107
229,68,-161,-148,195,-46,531,1190,829,688,517,283
375,278,-97,-326,236,90,458,1137,751,712,619,414
512,614,102,-563,204,358,395,1019,614,722,673,527
702,1088,385,-895,158,736,258,566,351,732,824,761
1049,1307,258,-1178,395,783,-48,-200,-126,614,976,1039
1312,1190,-122,-1251,717,534,-888,-1576,-927,322,995,1249
1327,1078,-248,-1202,788,414,-2074,-3035,-1864,-63,1112,1625
1312,922,-390,-1117,851,265,-2469,-3181,-1898,-24,1361,1932
1093,985,-107,-1039,600,439,-2132,-2527,-1244,595,1888,2156
927,854,-73,-890,500,390,-1756,-2025,-849,790,1805,1869
761,512,-248,-636,505,131,-1410,-1571,-678,468,936,902
512,258,-253,-385,383,2,-1024,-1210,-678,-14,204,292
336,102,-234,-219,285,-65,-678,-854,-629,-307,-58,165
165,9,-156,-87,161,-73,-336,-458,-390,-263,-97,63
19,-58,-78,19,48,-68,-117,-219,-180,-131,-92,-24
-48,-107,-58,78,4,-82,-43,-136,-107,-107,-97,-78
-73,-126,-53,100,-9,-90,-34,-122,-92,-107,-107,-82
-73,-122,-48,97,-12,-85,-24,-102,-92,-107,-107,-82
-68,-102,-34,85,-17,-68,-14,-97,-92,-107,-107,-82
-58,-92,-34,75,-12,-63,-14,-87,-92,-102,-112,-82
-53,-92,-39,73,-7,-65,-14,-78,-78,-102,-112,-82
-58,-87,-29,73,-14,-58,-14,-68,-73,-107,-112,-82
-63,-87,-24,75,-19,-56,-14,-63,-73,-112,-112,-82
-63,-87,-24,75,-19,-56,-9,-63,-68,-112,-112,-82
-58,-82,-24,70,-17,-53,-9,-58,-68,-107,-112,-82
-58,-82,-24,70,-17,-53,-4,-58,-68,-107,-112,-82
-58,-82,-24,70,-17,-53,-4,-53,-68,-107,-112,-82
-58,-82,-24,70,-17,-53,-4,-53,-68,-107,-112,-82
-58,-82,-24,70,-17,-53,0,-48,-68,-107,-112,-82
-53,-82,-29,68,-12,-56,0,-53,-68,-112,-112,-82
-53,-82,-29,68,-12,-56,0,-58,-68,-112,-112,-82
-53,-82,-29,68,-12,-56,4,-58,-68,-112,-112,-82
-53,-82,-29,68,-12,-56,4,-58,-68,-112,-112,-82
-48,-82,-34,65,-7,-58,4,-58,-68,-112,-117,-82
-43,-82,-39,63,-2,-61,4,-63,-68,-112,-117,-82
-43,-82,-39,63,-2,-61,4,-63,-68,-112,-117,-82
-43,-82,-39,63,-2,-61,4,-63,-68,-112,-117,-87
-43,-82,-39,63,-2,-61,9,-58,-73,-112,-117,-87
-43,-82,-39,63,-2,-61,9,-58,-73,-112,-117,-87
-43,-78,-34,61,-4,-56,9,-58,-73,-112,-122,-87
-43,-73,-29,58,-7,-51,9,-58,-73,-112,-122,-87
-39,-68,-29,53,-4,-48,9,-58,-73,-112,-122,-87
-39,-68,-29,53,-4,-48,9,-58,-68,-112,-122,-87
-39,-68,-29,53,-4,-48,14,-58,-68,-112,-122,-87
-39,-68,-29,53,-4,-48,14,-63,-68,-112,-122,-87
-39,-73,-34,56,-2,-53,14,-63,-68,-112,-122,-87
-39,-78,-39,58,0,-58,14,-63,-68,-112,-117,-92
-48,-78,-29,63,-9,-53,14,-63,-68,-112,-117,-97
-53,-78,-24,65,-14,-51,19,-63,-68,-117,-122,-97
-48,-73,-24,61,-12,-48,19,-63,-68,-117,-122,-97
-48,-73,-24,61,-12,-48,19,-63,-68,-117,-122,-102
-53,-78,-24,65,-14,-51,24,-58,-68,-117,-126,-102
-53,-78,-24,65,-14,-51,24,-58,-68,-117,-131,-102
-48,-82,-34,65,-7,-58,29,-53,-63,-122,-136,-107
-58,-92,-34,75,-12,-63,34,-48,-53,-122,-141,-112
-58,-97,-39,78,-9,-68,34,-43,-53,-122,-146,-117
-58,-97,-39,78,-9,-68,43,-39,-53,-122,-151,-122
-58,-102,-43,80,-7,-73,48,-39,-48,-126,-156,-126
-63,-102,-39,82,-12,-70,58,-34,-48,-126,-161,-131
-68,-112,-43,90,-12,-78,63,-24,-48,-126,-161,-136
-73,-117,-43,95,-14,-80,73,-24,-43,-131,-161,-146
-78,-112,-34,95,-21,-73,78,-19,-39,-131,-165,-151
-78,-117,-39,97,-19,-78,87,-19,-39,-136,-175,-161
-92,-122,-29,107,-31,-75,97,-9,-39,-141,-180,-170
-97,-131,-34,114,-31,-82,107,-4,-39,-141,-185,-180
-102,-136,-34,119,-34,-85,117,9,-34,-146,-200,-185
-107,-146,-39,126,-34,-92,131,24,-34,-156,-209,-190
-117,-156,-39,136,-39,-97,141,34,-19,-151,-219,-200
-126,-161,-34,143,-46,-97,161,43,-14,-151,-229,-209
-136,-175,-39,156,-48,-107,175,53,-14,-156,-234,-224
-146,-185,-39,165,-53,-112,190,68,-4,-165,-248,-244
-161,-200,-39,180,-61,-119,209,82,4,-170,-258,-258
-175,-214,-39,195,-68,-126,224,97,19,-170,-278,-278
-190,-229,-39,209,-75,-134,244,122,29,-175,-287,-292
-204,-239,-34,222,-85,-136,263,141,34,-180,-302,-307
-214,-258,-43,236,-85,-151,278,156,48,-185,-312,-317
-219,-273,-53,246,-82,-163,292,170,63,-185,-326,-326
-234,-278,-43,256,-95,-161,307,195,73,-190,-336,-341
-244,-283,-39,263,-102,-161,317,214,78,-190,-341,-351
-253,-292,-39,273,-107,-165,336,234,87,-190,-351,-366
-263,-302,-39,283,-112,-170,351,253,97,-185,-356,-375
-273,-312,-39,292,-117,-175,366,273,107,-180,-356,-375
-278,-312,-34,295,-122,-173,375,297,117,-180,-356,-375
-278,-322,-43,300,-117,-183,385,322,131,-165,-351,-375
-283,-322,-39,302,-122,-180,395,341,141,-156,-351,-375
-283,-322,-39,302,-122,-180,400,356,151,-146,-336,-370
-283,-312,-29,297,-126,-170,400,366,161,-131,-322,-356
-278,-307,-29,292,-124,-168,390,370,175,-107,-297,-331
-258,-287,-29,273,-114,-158,380,370,180,-87,-268,-307
-248,-263,-14,256,-117,-139,361,370,190,-73,-239,-278
-239,-239,0,239,-119,-119,341,361,200,-53,-204,-248
-224,-209,14,217,-119,-97,312,351,195,-34,-175,-214
-209,-185,24,197,-117,-80,287,336,190,-9,-136,-180
-190,-161,29,175,-109,-65,263,317,190,14,-102,-151
-170,-141,29,156,-100,-56,239,297,180,24,-78,-122
-151,-112,39,131,-95,-36,214,273,170,34,-53,-102
-131,-92,39,112,-85,-26,185,248,165,43,-34,-73
-117,-73,43,95,-80,-14,156,234,156,53,-19,-58
-102,-53,48,78,-75,-2,141,209,146,53,-4,-43
-82,-34,48,58,-65,7,122,190,141,63,4,-24
-73,-19,53,46,-63,17,97,170,131,63,14,-14
-63,-9,53,36,-58,21,78,156,117,68,24,-4
-53,0,53,26,-53,26,63,141,107,68,34,9
-48,9,58,19,-53,34,48,122,97,68,39,19
-43,19,63,12,-53,41,39,117,87,68,43,24
-34,29,63,2,-48,46,29,102,82,68,43,24
-29,34,63,-2,-46,48,19,92,78,68,39,29
-24,39,63,-7,-43,51,9,82,73,68,43,29
-14,39,53,-12,-34,46,4,73,63,63,43,24
-14,43,58,-14,-36,51,0,73,63,63,43,29
-9,43,53,-17,-31,48,-4,68,58,63,43,29
-4,43,48,-19,-26,46,-9,53,58,63,48,29
-4,48,53,-21,-29,51,-9,48,58,63,48,34
0,48,48,-24,-24,48,-14,48,48,58,48,34
0,48,48,-24,-24,48,-14,43,43,53,48,34
-4,48,53,-21,-29,51,-14,43,39,53,43,34
-14,48,63,-17,-39,56,-19,43,39,53,43,34
-14,48,63,-17,-39,56,-19,43,39,48,43,29
-14,48,63,-17,-39,56,-14,43,39,48,43,29
-14,48,63,-17,-39,56,-14,39,39,43,39,29
-19,43,63,-12,-41,53,-14,39,39,39,39,24
-19,39,58,-9,-39,48,-14,39,39,34,34,24
-19,29,48,-4,-34,39,-14,39,34,34,34,24
-19,29,48,-4,-34,39,-9,39,34,29,34,24
-24,24,48,0,-36,36,-4,39,29,29,29,19
-29,24,53,2,-41,39,-4,34,29,24,29,19
-34,19,53,7,-43,36,-4,34,29,14,29,19
-34,19,53,7,-43,36,0,34,29,14,24,14
-39,14,53,12,-46,34,0,34,24,14,24,14
-39,14,53,12,-46,34,0,34,24,9,24,9
-39,14,53,12,-46,34,4,34,24,9,19,9
-39,9,48,14,-43,29,9,34,24,14,9,4
-43,4,48,19,-46,26,14,34,24,19,4,4
-43,0,43,21,-43,21,19,39,24,14,4,0
-43,0,43,21,-43,21,19,43,19,14,4,0
-43,0,43,21,-43,21,19,43,19,9,-4,0
-43,-4,39,24,-41,17,19,43,19,9,-4,-4
-43,-9,34,26,-39,12,19,43,19,9,-9,-9
-43,-19,24,31,-34,2,19,43,19,4,-14,-14
-43,-19,24,31,-34,2,24,39,24,4,-14,-14
-43,-19,24,31,-34,2,24,43,24,0,-14,-14
-48,-19,29,34,-39,4,24,43,19,0,-14,-14
-53,-19,34,36,-43,7,29,43,19,0,-14,-14
-43,-19,24,31,-34,2,29,48,19,0,-14,-14
-43,-19,24,31,-34,2,29,48,19,0,-14,-14
-48,-29,19,39,-34,-4,29,48,14,0,-14,-14
-48,-34,14,41,-31,-9,29,43,14,0,-14,-14
-48,-29,19,39,-34,-4,24,43,14,-4,-19,-19
-48,-29,19,39,-34,-4,19,43,9,-9,-24,-24
-43,-29,14,36,-29,-7,14,43,9,-9,-24,-24
-39,-29,9,34,-24,-9,9,43,9,-9,-24,-24
-39,-24,14,31,-26,-4,9,43,9,-9,-24,-24
-39,-24,14,31,-26,-4,14,39,4,-9,-24,-29
-39,-24,14,31,-26,-4,14,39,0,-9,-24,-24
-39,-19,19,29,-29,0,9,39,0,-4,-19,-24
-39,-24,14,31,-26,-4,9,39,4,-9,-19,-24
-39,-24,14,31,-26,-4,9,39,4,-14,-14,-24
-34,-19,14,26,-24,-2,9,43,9,-9,-14,-19
-34,-14,19,24,-26,2,4,39,9,-9,-14,-19
-34,-9,24,21,-29,7,0,39,9,-9,-14,-19
-34,-9,24,21,-29,7,-4,34,9,-9,-14,-19
-29,-9,19,19,-24,4,-4,29,9,-9,-9,-14
-29,-9,19,19,-24,4,-4,24,9,-4,-4,-9
-29,-4,24,17,-26,9,-9,19,9,-4,-4,-14
-29,-4,24,17,-26,9,-9,19,9,-4,-4,-14
-29,-4,24,17,-26,9,-9,24,9,-4,-4,-14
-24,-4,19,14,-21,7,-14,24,9,0,-4,-14
-19,-4,14,12,-17,4,-14,24,4,0,-4,-9
-14,0,14,7,-14,7,-14,24,9,-4,-9,-9
-14,4,19,4,-17,12,-14,24,9,-4,-4,-9
-14,9,24,2,-19,17,-14,24,4,-9,-4,-9
-9,9,19,0,-14,14,-14,24,0,-4,-4,-9
-4,14,19,-4,-12,17,-9,24,0,-4,-4,-14
-4,19,24,-7,-14,21,-9,24,4,4,-4,-9
-4,19,24,-7,-14,21,-9,29,9,14,0,-4
0,24,24,-12,-12,24,4,43,24,19,9,0
4,29,24,-17,-9,26,19,58,39,19,14,4
9,43,34,-26,-12,39,43,73,48,29,19,14
14,58,43,-36,-14,51,68,87,63,48,24,24
24,68,43,-46,-9,56,78,102,73,58,34,34
34,78,43,-56,-4,61,87,117,82,63,43,39
34,82,48,-58,-7,65,112,126,92,68,53,43
34,87,53,-61,-9,70,136,136,102,73,58,43
39,87,48,-63,-4,68,136,156,107,78,58,43
43,87,43,-65,0,65,146,170,122,87,63,43
53,87,34,-70,9,61,146,175,122,92,68,48
68,92,24,-80,21,58,146,180,126,97,78,58
68,97,29,-82,19,63,82,151,112,87,73,58
68,107,39,-87,14,73,19,126,97,78,68,58
68,107,39,-87,14,73,-48,68,58,58,53,53
68,107,39,-87,14,73,-117,9,19,39,39,48
58,102,43,-80,7,73,-117,-9,4,19,29,39
48,92,43,-70,2,68,-117,-29,-9,4,19,34
43,87,43,-65,0,65,-122,-48,-29,-9,9,29
48,87,39,-68,4,63,-117,-53,-39,-9,9,29
63,87,24,-75,19,56,-107,-39,-19,4,19,34
82,97,14,-90,34,56,-97,-19,4,19,34,43
87,107,19,-97,34,63,-107,-19,4,19,34,53
87,107,19,-97,34,63,-122,-39,-4,19,34,53
82,107,24,-95,29,65,-136,-48,-9,19,29,53
82,102,19,-92,31,61,-141,-48,-9,14,19,48
73,107,34,-90,19,70,-136,-43,-9,9,19,53
63,97,34,-80,14,65,-122,-34,-4,9,14,43
34,48,14,-41,9,31,-92,-19,-4,-4,0,19
9,14,4,-12,2,9,-73,-19,-9,-9,-19,-9
0,14,14,-7,-7,14,-73,-19,-9,-9,-24,-9
0,14,14,-7,-7,14,-78,-24,-14,-9,-24,-9
0,14,14,-7,-7,14,-78,-19,-14,-9,-24,-9
-4,14,19,-4,-12,17,-78,-14,-14,-9,-24,-9
-14,14,29,0,-21,21,-78,-14,-14,-9,-19,-9
-19,4,24,7,-21,14,-73,-14,-14,-9,-19,-14
-19,0,19,9,-19,9,-63,-9,-14,-9,-19,-19
-19,-4,14,12,-17,4,-58,-4,-14,-9,-24,-24
-19,-4,14,12,-17,4,-53,-9,-9,-9,-24,-24
-24,-4,19,14,-21,7,-53,-9,-9,-9,-24,-24
-24,-4,19,14,-21,7,-48,-9,-4,-9,-24,-19
-24,-4,19,14,-21,7,-48,-4,-4,-9,-24,-14
-24,-4,19,14,-21,7,-53,0,-4,-4,-24,-14
-24,-4,19,14,-21,7,-53,0,0,-4,-19,-14
-24,-4,19,14,-21,7,-53,0,0,-4,-19,-14
-24,-4,19,14,-21,7,-53,4,0,-4,-19,-14
-24,0,24,12,-24,12,-53,4,0,-4,-24,-14
-24,0,24,12,-24,12,-53,4,4,-4,-29,-14
-24,4,29,9,-26,17,-53,4,0,-9,-24,-14
-24,9,34,7,-29,21,-53,9,-4,-9,-24,-9
-24,9,34,7,-29,21,-53,9,0,-9,-19,-9
-24,9,34,7,-29,21,-48,14,0,-9,-14,-9
-29,14,43,7,-36,29,-43,24,9,0,-14,-14
-39,14,53,12,-46,34,-4,63,39,14,-9,-19
-43,-9,34,26,-39,12,43,117,78,34,-9,-39
-53,-53,0,53,-26,-26,78,151,97,53,-14,-58
-53,-68,-14,61,-19,-41,161,278,209,117,14,-68
-34,-82,-48,58,7,-65,312,580,429,248,97,-48
53,-58,-112,2,82,-85,468,927,683,463,263,63
209,29,-180,-119,195,-75,522,1161,819,649,468,234
346,175,-170,-261,258,2,434,1146,751,658,551,336
473,448,-24,-461,248,212,356,1068,624,653,585,419
663,995,331,-829,165,663,322,746,424,678,707,619
1010,1288,278,-1149,366,783,117,112,9,575,829,863
1293,1156,-136,-1224,714,509,-756,-1478,-946,175,766,1024
1327,1029,-297,-1178,812,366,-1976,-3152,-2039,-317,800,1351
1342,888,-453,-1115,897,217,-2483,-3381,-2117,-268,1132,1781
1151,966,-185,-1058,668,390,-2259,-2810,-1507,361,1742,2127
995,868,-126,-932,561,370,-1883,-2244,-1005,722,1830,1927
839,561,-278,-700,558,141,-1537,-1727,-727,566,1132,1049
590,297,-292,-444,441,2,-1146,-1361,-756,9,287,356
414,131,-283,-273,348,-75,-795,-1000,-736,-356,-87,146
214,34,-180,-124,197,-73,-414,-551,-458,-292,-107,53
39,-39,-78,0,58,-58,-156,-258,-209,-141,-82,-24
-43,-92,-48,68,2,-70,-68,-161,-126,-117,-87,-82
-82,-117,-34,100,-24,-75,-43,-131,-102,-117,-97,-92
-87,-117,-29,102,-29,-73,-34,-112,-97,-117,-97,-92
-87,-102,-14,95,-36,-58,-24,-107,-92,-117,-97,-92
-78,-92,-14,85,-31,-53,-24,-97,-97,-112,-107,-92
-73,-92,-19,82,-26,-56,-24,-87,-87,-112,-112,-92
-73,-87,-14,80,-29,-51,-19,-78,-82,-112,-112,-92
-73,-87,-14,80,-29,-51,-14,-73,-82,-112,-112,-92
-73,-87,-14,80,-29,-51,-9,-73,-73,-112,-112,-92
-68,-82,-14,75,-26,-48,-9,-68,-68,-107,-112,-92
-68,-82,-14,75,-26,-48,-4,-68,-68,-107,-112,-92
-68,-82,-14,75,-26,-48,-4,-63,-68,-107,-112,-92
-68,-82,-14,75,-26,-48,-4,-63,-68,-107,-112,-92
-68,-82,-14,75,-26,-48,0,-58,-68,-107,-112,-92
-63,-82,-19,73,-21,-51,0,-58,-73,-112,-112,-92
-63,-82,-19,73,-21,-51,0,-58,-78,-112,-112,-92
-63,-82,-19,73,-21,-51,4,-58,-78,-112,-112,-92
-63,-82,-19,73,-21,-51,4,-58,-78,-112,-112,-92
-63,-82,-19,73,-21,-51,4,-58,-78,-112,-117,-92
-63,-82,-19,73,-21,-51,4,-63,-78,-112,-117,-92
-58,-82,-24,70,-17,-53,4,-63,-73,-112,-117,-92
-53,-82,-29,68,-12,-56,4,-63,-68,-112,-117,-97
-53,-82,-29,68,-12,-56,9,-63,-73,-112,-117,-97
-53,-82,-29,68,-12,-56,9,-68,-73,-112,-117,-97
-53,-82,-29,68,-12,-56,9,-68,-73,-117,-122,-97
-53,-82,-29,68,-12,-56,9,-68,-73,-122,-122,-97
-48,-78,-29,63,-9,-53,9,-68,-78,-122,-122,-97
-48,-78,-29,63,-9,-53,9,-68,-78,-122,-122,-97
-48,-78,-29,63,-9,-53,14,-68,-78,-122,-122,-97
-48,-78,-29,63,-9,-53,14,-73,-78,-122,-122,-97
-53,-78,-24,65,-14,-51,14,-73,-78,-122,-126,-97
-58,-78,-19,68,-19,-48,14,-73,-78,-122,-126,-102
-63,-78,-14,70,-24,-46,14,-73,-78,-117,-126,-107
-63,-78,-14,70,-24,-46,19,-73,-78,-117,-131,-107
-58,-78,-19,68,-19,-48,19,-73,-73,-117,-131,-107
-58,-82,-24,70,-17,-53,19,-73,-68,-117,-131,-112
-63,-82,-19,73,-21,-51,24,-68,-68,-117,-136,-112
-63,-78,-14,70,-24,-46,24,-68,-68,-117,-141,-112
-58,-78,-19,68,-19,-48,29,-68,-68,-122,-141,-117
-68,-82,-14,75,-26,-48,34,-68,-63,-122,-141,-122
-68,-92,-24,80,-21,-58,34,-63,-63,-122,-146,-126
-68,-97,-29,82,-19,-63,43,-58,-63,-122,-151,-131
-68,-102,-34,85,-17,-68,48,-58,-58,-126,-151,-136
-73,-102,-29,87,-21,-65,58,-53,-58,-126,-151,-141
-78,-112,-34,95,-21,-73,63,-43,-63,-126,-156,-146
-82,-117,-34,100,-24,-75,73,-43,-63,-131,-161,-156
-87,-117,-29,102,-29,-73,78,-34,-58,-131,-165,-161
-87,-126,-39,107,-24,-82,87,-29,-58,-136,-175,-170
-102,-131,-29,117,-36,-80,97,-19,-53,-141,-180,-180
-107,-141,-34,124,-36,-87,107,-14,-48,-141,-185,-190
-117,-146,-29,131,-43,-87,117,-4,-43,-146,-200,-200
-126,-156,-29,141,-48,-92,131,4,-43,-156,-209,-209
-136,-165,-29,151,-53,-97,141,14,-29,-156,-219,-219
-146,-170,-24,158,-61,-97,161,24,-24,-161,-229,-229
-156,-185,-29,170,-63,-107,175,34,-19,-161,-239,-244
-165,-195,-29,180,-68,-112,190,48,-4,-165,-258,-263
-175,-209,-34,192,-70,-122,209,68,0,-170,-268,-273
-185,-224,-39,204,-73,-131,224,87,9,-170,-287,-287
-200,-239,-39,219,-80,-139,244,112,19,-175,-297,-302
-214,-248,-34,231,-90,-141,263,131,24,-180,-312,-317
-229,-263,-34,246,-97,-148,283,146,34,-185,-317,-336
-239,-273,-34,256,-102,-153,302,161,43,-185,-326,-356
-253,-283,-29,268,-112,-156,322,185,53,-190,-341,-370
-263,-292,-29,278,-117,-161,336,204,58,-190,-351,-380
-273,-302,-29,287,-122,-165,356,224,68,-195,-361,-395
-283,-312,-29,297,-126,-170,370,244,78,-195,-366,-405
-292,-326,-34,309,-129,-180,385,263,87,-190,-375,-409
-297,-331,-34,314,-131,-183,395,287,97,-190,-385,-414
-302,-341,-39,322,-131,-190,405,312,112,-180,-380,-414
-312,-341,-29,326,-141,-185,414,331,122,-175,-380,-414
-312,-341,-29,326,-141,-185,424,351,131,-170,-366,-409
-312,-331,-19,322,-146,-175,429,366,141,-161,-351,-395
-307,-331,-24,319,-141,-178,419,375,156,-136,-326,-375
-287,-317,-29,302,-129,-173,409,380,161,-117,-297,-356
-278,-292,-14,285,-131,-153,390,380,170,-97,-273,-326
-268,-268,0,268,-134,-134,370,370,180,-73,-244,-297
-248,-239,9,244,-129,-114,341,361,180,-53,-214,-263
-229,-214,14,222,-122,-100,317,346,180,-29,-175,-229
-209,-185,24,197,-117,-80,287,326,180,-4,-136,-200
-190,-161,29,175,-109,-65,258,307,170,4,-107,-170
-170,-131,39,151,-104,-46,234,278,161,14,-82,-151
-151,-112,39,131,-95,-36,204,248,156,24,-63,-122
-136,-92,43,114,-90,-24,170,234,146,39,-43,-97
-122,-73,48,97,-85,-12,151,209,136,43,-24,-73
-97,-48,48,73,-73,0,131,190,131,53,-9,-53
-82,-29,53,56,-68,12,107,170,122,53,4,-43
-73,-19,53,46,-63,17,87,156,112,58,14,-34
-63,-9,53,36,-58,21,73,141,107,58,24,-19
-53,0,53,26,-53,26,53,122,97,58,24,-9
-43,9,53,17,-48,31,39,117,87,58,24,-4
-29,19,48,4,-39,34,29,97,82,58,29,-4
-19,24,43,-2,-31,34,19,82,78,58,29,0
-19,29,48,-4,-34,39,9,73,73,58,34,4
-14,29,43,-7,-29,36,4,63,63,53,34,4
-14,34,48,-9,-31,41,0,63,58,53,34,9
-9,34,43,-12,-26,39,-4,58,48,53,34,9
-4,34,39,-14,-21,36,-9,48,48,48,39,9
-4,39,43,-17,-24,41,-9,48,48,43,39,14
0,39,39,-19,-19,39,-14,48,43,39,39,14
0,39,39,-19,-19,39,-14,43,43,34,39,14
0,39,39,-19,-19,39,-14,39,39,39,34,14
-4,39,43,-17,-24,41,-19,34,39,43,34,14
-9,39,48,-14,-29,43,-19,34,34,39,34,9
-14,39,53,-12,-34,46,-14,34,29,39,34,9
-14,39,53,-12,-34,46,-9,29,29,39,29,9
-19,34,53,-7,-36,43,-4,29,29,39,29,4
-14,34,48,-9,-31,41,-4,29,29,34,24,0
-9,29,39,-9,-24,34,-4,29,24,34,24,-4
-9,29,39,-9,-24,34,-4,29,24,29,24,-4
-14,24,39,-4,-26,31,-4,29,19,29,19,-9
-14,24,39,-4,-26,31,-4,24,19,29,19,-9
-14,19,34,-2,-24,26,-4,24,19,24,19,-9
-19,19,39,0,-29,29,0,19,19,24,14,-14
-29,14,43,7,-36,29,0,14,14,24,14,-14
-29,14,43,7,-36,29,0,14,14,19,14,-19
-29,14,43,7,-36,29,4,14,14,19,9,-19
-29,9,39,9,-34,24,0,14,14,14,4,-24
-34,4,39,14,-36,21,-4,14,14,9,4,-24
-34,0,34,17,-34,17,0,14,14,4,4,-29
-34,0,34,17,-34,17,0,14,9,4,4,-29
-29,0,29,14,-29,14,0,14,9,0,-4,-29
-24,-4,19,14,-21,7,0,14,9,0,-4,-34
-24,-4,19,14,-21,7,0,14,9,4,-4,-34
-24,-9,14,17,-19,2,0,14,9,4,-4,-34
-24,-9,14,17,-19,2,4,9,9,4,-4,-34
-24,-9,14,17,-19,2,4,14,4,0,-4,-34
-24,-9,14,17,-19,2,0,14,0,-4,-9,-34
-24,-9,14,17,-19,2,0,14,0,-9,-14,-34
-19,-9,9,14,-14,0,0,14,0,-9,-14,-34
-24,-9,14,17,-19,2,0,9,0,-9,-14,-34
-24,-14,9,19,-17,-2,-4,9,0,-9,-14,-34
-19,-14,4,17,-12,-4,-9,4,4,-9,-14,-34
-19,-9,9,14,-14,0,-9,4,4,-9,-14,-39
-19,-9,9,14,-14,0,-9,4,0,-9,-14,-43
-19,-9,9,14,-14,0,-14,4,0,-9,-14,-43
-19,-9,9,14,-14,0,-19,4,0,-9,-14,-43
-19,-4,14,12,-17,4,-19,9,0,-9,-14,-39
-19,-4,14,12,-17,4,-14,9,-4,-9,-14,-39
-14,-4,9,9,-12,2,-9,9,-4,-9,-14,-34
-9,0,9,4,-9,4,-9,9,0,-4,-9,-34
-9,-4,4,7,-7,0,-14,9,4,-9,-14,-34
-9,-4,4,7,-7,0,-19,9,4,-14,-14,-34
-4,0,4,2,-4,2,-19,9,4,-9,-14,-29
-4,4,9,0,-7,7,-24,0,0,-9,-14,-29
-4,4,9,0,-7,7,-24,4,0,-9,-14,-29
-4,0,4,2,-4,2,-24,4,0,-9,-14,-29
0,0,0,0,0,0,-24,4,0,-9,-14,-29
0,0,0,0,0,0,-24,4,0,-4,-14,-29
0,4,4,-2,-2,4,-29,0,0,-4,-14,-29
0,4,4,-2,-2,4,-29,0,0,-4,-14,-24
-4,4,9,0,-7,7,-29,0,0,-9,-14,-24
-4,4,9,0,-7,7,-34,-4,0,-9,-14,-24
-4,4,9,0,-7,7,-34,-4,-9,-4,-9,-24
-4,9,14,-2,-9,12,-34,-4,-9,-4,-9,-29
0,9,9,-4,-4,9,-34,-4,-4,0,-4,-29
4,9,4,-7,0,7,-34,-4,-4,0,-4,-29
4,4,0,-4,2,2,-34,0,-9,0,-4,-29
4,4,0,-4,2,2,-29,4,-9,-4,-4,-34
4,9,4,-7,0,7,-29,0,-9,-4,-9,-34
4,9,4,-7,0,7,-29,0,-9,-4,-9,-34
4,9,4,-7,0,7,-34,0,-9,-4,-9,-29
4,9,4,-7,0,7,-39,0,-9,-9,-14,-24
4,9,4,-7,0,7,-39,0,-9,-9,-14,-24
4,9,4,-7,0,7,-39,0,-4,0,-14,-24
4,9,4,-7,0,7,-39,4,-4,0,-14,-19
4,9,4,-7,0,7,-39,9,-4,-4,-14,-19
4,9,4,-7,0,7,-39,9,0,-4,-9,-19
4,9,4,-7,0,7,-39,9,4,-4,-9,-24
9,14,4,-12,2,9,-34,19,4,0,-9,-24
14,19,4,-17,4,12,-24,19,9,9,-4,-24
14,19,4,-17,4,12,9,48,24,14,4,-19
19,24,4,-21,7,14,39,68,43,29,19,-9
29,39,9,-34,9,24,48,82,53,39,29,0
39,58,19,-48,9,39,58,97,68,48,39,9
39,68,29,-53,4,48,78,112,82,53,43,19
39,78,39,-58,0,58,97,126,97,58,48,29
48,78,29,-63,9,53,112,136,102,68,58,29
58,78,19,-68,19,48,126,146,107,78,68,29
63,78,14,-70,24,46,136,161,112,82,68,29
68,78,9,-73,29,43,146,175,117,87,68,29
73,78,4,-75,34,41,131,175,117,87,68,29
78,78,0,-78,39,39,117,175,117,87,68,29
78,87,9,-82,34,48,34,126,92,73,63,29
78,97,19,-87,29,58,-48,78,68,58,58,29
78,107,29,-92,24,68,-87,43,43,48,48,24
73,97,24,-85,24,61,-107,4,19,29,34,14
68,92,24,-80,21,58,-131,-29,-4,9,19,4
63,78,14,-70,24,46,-131,-53,-19,-9,9,0
68,68,0,-68,34,34,-126,-53,-19,-9,9,0
78,58,-19,-68,48,19,-117,-39,-9,0,19,4
92,78,-14,-85,53,31,-102,-14,4,14,34,14
97,97,0,-97,48,48,-107,-9,4,19,34,24
97,97,0,-97,48,48,-122,-29,-4,19,34,24
92,97,4,-95,43,51,-131,-39,-9,19,29,24
92,92,0,-92,46,46,-136,-43,-14,14,19,24
82,87,4,-85,39,46,-136,-43,-19,9,19,24
73,78,4,-75,34,41,-122,-34,-14,9,14,4
43,48,4,-46,19,26,-97,-19,-14,-4,0,-9
19,14,-4,-17,12,4,-78,-14,-19,-9,-19,-29
9,4,-4,-7,7,0,-73,-9,-19,-9,-19,-29
9,4,-4,-7,7,0,-78,-14,-19,-9,-14,-29
9,4,-4,-7,7,0,-78,-14,-14,-9,-14,-29
4,4,0,-4,2,2,-78,-14,-14,-9,-14,-29
0,4,4,-2,-2,4,-78,-14,-14,-9,-14,-29
-4,-4,0,4,-2,-2,-73,-14,-14,-14,-19,-43
-9,-4,4,7,-7,0,-68,-9,-14,-19,-19,-53
-9,-9,0,9,-4,-4,-68,-4,-14,-19,-24,-53
-9,-14,-4,12,-2,-9,-63,-4,-9,-19,-24,-53
-14,-14,0,14,-7,-7,-63,0,-9,-19,-24,-48
-14,-14,0,14,-7,-7,-58,0,-4,-19,-24,-43
-14,-14,0,14,-7,-7,-58,4,-4,-19,-24,-43
-14,-14,0,14,-7,-7,-58,9,-4,-14,-24,-43
-19,-14,4,17,-12,-4,-53,9,0,-14,-19,-43
-24,-14,9,19,-17,-2,-53,9,0,-14,-19,-43
-24,-19,4,21,-14,-7,-48,19,0,-14,-19,-43
-24,-19,4,21,-14,-7,-43,24,0,-14,-19,-43
-24,-19,4,21,-14,-7,-43,24,4,-14,-19,-43
-24,-19,4,21,-14,-7,-43,24,4,-14,-14,-43
-19,-19,0,19,-9,-9,-43,24,4,-9,-14,-39
-14,-19,-4,17,-4,-12,-43,19,9,-9,-14,-39
-14,-19,-4,17,-4,-12,-48,19,4,-9,-14,-34
-19,-19,0,19,-9,-9,-53,29,9,0,-14,-34
-34,-9,24,21,-29,7,-14,68,34,9,-9,-39
-39,-19,19,29,-29,0,39,126,78,24,-4,-58
-53,-73,-19,63,-17,-46,48,102,58,9,-29,-87
-63,-97,-34,80,-14,-65,102,170,122,53,-19,-97
-68,-141,-73,104,2,-107,278,492,356,185,34,-107
-4,-126,-122,65,58,-124,448,814,610,370,165,-34
151,-82,-234,-34,192,-158,522,1098,810,590,409,151
287,34,-253,-161,270,-109,463,1146,814,678,556,292
370,326,-43,-348,207,141,424,1195,775,736,595,366
517,829,312,-673,102,570,385,961,658,814,736,561
932,1234,302,-1083,314,768,400,507,414,834,932,824
1273,1259,-14,-1266,644,622,-141,-692,-229,605,951,1000
1371,1117,-253,-1244,812,431,-1654,-2776,-1600,-43,932,1366
1444,936,-507,-1190,976,214,-2508,-3567,-2122,-268,1078,1732
1254,1088,-165,-1171,710,461,-2352,-3010,-1503,463,1912,2308
1107,1054,-53,-1080,580,500,-2059,-2488,-1010,888,2239,2391
946,702,-244,-824,595,229,-1712,-1952,-712,717,1424,1351
697,409,-287,-553,492,61,-1327,-1537,-668,278,585,551
507,200,-307,-353,407,-53,-941,-1141,-727,-200,122,297
312,63,-248,-187,280,-92,-546,-692,-546,-317,-63,122
107,-29,-136,-39,122,-82,-229,-346,-258,-165,-73,4
-14,-97,-82,56,34,-90,-63,-161,-126,-117,-87,-82
-58,-131,-73,95,7,-102,-39,-126,-107,-117,-97,-102
-78,-146,-68,112,-4,-107,-24,-102,-97,-117,-97,-112
-78,-131,-53,104,-12,-92,-9,-97,-92,-117,-97,-112
-68,-122,-53,95,-7,-87,-4,-87,-92,-112,-102,-112
-63,-122,-58,92,-2,-90,-4,-73,-78,-112,-107,-112
-63,-117,-53,90,-4,-85,-4,-58,-73,-112,-112,-112
-63,-117,-53,90,-4,-85,-4,-48,-73,-112,-112,-112
-63,-117,-53,90,-4,-85,0,-43,-68,-112,-112,-112
-58,-107,-48,82,-4,-78,0,-39,-68,-107,-112,-117
-58,-102,-43,80,-7,-73,4,-39,-68,-107,-112,-122
-58,-102,-43,80,-7,-73,4,-34,-68,-107,-112,-122
-58,-102,-43,80,-7,-73,4,-34,-68,-107,-112,-122
-58,-102,-43,80,-7,-73,9,-34,-68,-107,-112,-122
-53,-102,-48,78,-2,-75,9,-39,-68,-112,-112,-122
-53,-102,-48,78,-2,-75,9,-39,-68,-112,-112,-122
-53,-102,-48,78,-2,-75,14,-39,-68,-112,-112,-122
-53,-102,-48,78,-2,-75,14,-39,-68,-112,-112,-117
-53,-102,-48,78,-2,-75,14,-39,-68,-112,-117,-112
-53,-102,-48,78,-2,-75,14,-43,-68,-112,-117,-112
-53,-102,-48,78,-2,-75,14,-43,-68,-112,-117,-112
-53,-102,-48,78,-2,-75,14,-39,-63,-107,-112,-117
-53,-102,-48,78,-2,-75,19,-34,-63,-102,-107,-117
-58,-102,-43,80,-7,-73,19,-39,-63,-102,-107,-117
-63,-102,-39,82,-12,-70,19,-39,-63,-102,-112,-117
-63,-102,-39,82,-12,-70,19,-39,-63,-102,-112,-122
-58,-97,-39,78,-9,-68,19,-39,-63,-102,-112,-126
-58,-97,-39,78,-9,-68,19,-39,-58,-102,-112,-126
-58,-97,-39,78,-9,-68,24,-39,-58,-102,-112,-126
-58,-97,-39,78,-9,-68,24,-43,-58,-102,-112,-122
-58,-97,-39,78,-9,-68,24,-43,-58,-102,-117,-117
-58,-97,-39,78,-9,-68,29,-43,-58,-102,-117,-122
-63,-97,-34,80,-14,-65,34,-43,-58,-102,-117,-126
-63,-97,-34,80,-14,-65,39,-43,-58,-107,-122,-126
-58,-97,-39,78,-9,-68,39,-43,-58,-107,-122,-126
-58,-102,-43,80,-7,-73,34,-43,-58,-112,-122,-131
-63,-107,-43,85,-9,-75,34,-39,-58,-117,-126,-131
-58,-107,-48,82,-4,-78,34,-39,-58,-117,-131,-131
-53,-107,-53,80,0,-80,39,-39,-58,-122,-131,-136
-68,-112,-43,90,-12,-78,43,-39,-48,-117,-131,-136
-68,-117,-48,92,-9,-82,43,-34,-43,-112,-136,-136
-68,-117,-48,92,-9,-82,53,-24,-43,-112,-141,-141
-68,-122,-53,95,-7,-87,58,-19,-39,-117,-146,-146
-73,-122,-48,97,-12,-85,68,-14,-39,-117,-151,-151
-78,-131,-53,104,-12,-92,73,-4,-39,-117,-156,-156
-82,-136,-53,109,-14,-95,82,-4,-34,-122,-161,-165
-87,-136,-48,112,-19,-92,87,4,-29,-122,-165,-170
-87,-141,-53,114,-17,-97,97,9,-24,-122,-175,-175
-102,-141,-39,122,-31,-90,107,19,-14,-122,-180,-180
-107,-151,-43,129,-31,-97,117,24,-9,-122,-180,-190
-117,-156,-39,136,-39,-97,126,34,-4,-126,-190,-200
-126,-165,-39,146,-43,-102,141,43,-4,-136,-200,-209
-136,-175,-39,156,-48,-107,151,53,9,-136,-209,-219
-141,-175,-34,158,-53,-104,165,68,14,-141,-219,-229
-146,-185,-39,165,-53,-112,175,82,14,-146,-229,-244
-156,-195,-39,175,-58,-117,190,97,24,-156,-248,-263
-165,-209,-43,187,-61,-126,209,112,29,-161,-258,-278
-175,-224,-48,200,-63,-136,224,122,39,-161,-278,-297
-190,-239,-48,214,-70,-143,244,141,48,-165,-287,-312
-204,-248,-43,226,-80,-146,263,161,48,-170,-302,-326
-219,-268,-48,244,-85,-158,283,175,53,-175,-312,-341
-229,-283,-53,256,-87,-168,307,190,63,-175,-326,-356
-244,-292,-48,268,-97,-170,326,214,73,-180,-341,-370
-253,-302,-48,278,-102,-175,336,234,82,-180,-351,-385
-263,-312,-48,287,-107,-180,356,253,97,-185,-361,-405
-273,-331,-58,302,-107,-195,375,273,107,-185,-366,-414
-283,-351,-68,317,-107,-209,395,292,117,-180,-366,-414
-292,-351,-58,322,-117,-204,405,317,122,-185,-366,-414
-297,-361,-63,329,-117,-212,414,341,131,-180,-361,-414
-302,-361,-58,331,-122,-209,424,366,141,-175,-366,-419
-302,-361,-58,331,-122,-209,429,385,151,-165,-356,-419
-302,-356,-53,329,-124,-204,429,400,161,-161,-351,-409
-297,-356,-58,326,-119,-207,419,414,175,-146,-336,-390
-283,-341,-58,312,-112,-200,414,419,180,-126,-307,-370
-278,-322,-43,300,-117,-183,400,419,190,-107,-278,-346
-268,-297,-29,283,-119,-163,385,409,200,-78,-244,-317
-248,-268,-19,258,-114,-143,361,400,200,-53,-214,-283
-234,-239,-4,236,-114,-122,336,385,200,-29,-175,-248
-219,-204,14,212,-117,-95,307,366,200,-4,-141,-219
-200,-180,19,190,-109,-80,273,346,190,4,-117,-185
-180,-151,29,165,-104,-61,244,322,180,14,-92,-161
-161,-131,29,146,-95,-51,214,297,175,24,-73,-131
-146,-112,34,129,-90,-39,185,283,165,39,-53,-112
-131,-92,39,112,-85,-26,170,253,156,48,-29,-92
-112,-73,39,92,-75,-17,151,229,151,63,-14,-73
-97,-53,43,75,-70,-4,126,209,146,63,-4,-58
-82,-39,43,61,-63,2,107,195,141,68,4,-43
-73,-29,43,51,-58,7,92,180,136,68,14,-29
-63,-19,43,41,-53,12,78,161,126,68,19,-19
-53,-4,48,29,-51,21,63,156,117,68,29,-9
-43,9,53,17,-48,31,48,141,112,68,39,-4
-39,14,53,12,-46,34,39,131,107,68,39,0
-39,19,58,9,-48,39,29,122,102,68,43,4
-34,19,53,7,-43,36,19,102,87,63,43,4
-34,24,58,4,-46,41,14,92,82,63,43,9
-29,24,53,2,-41,39,14,87,73,68,48,14
-24,24,48,0,-36,36,9,78,68,73,58,19
-24,29,53,-2,-39,41,9,78,68,73,58,24
-19,29,48,-4,-34,39,4,78,63,68,58,24
-19,29,48,-4,-34,39,4,73,63,63,53,19
-19,29,48,-4,-34,39,4,68,58,63,43,14
-24,29,53,-2,-39,41,0,63,58,63,43,14
-24,29,53,-2,-39,41,0,63,53,58,43,9
-24,29,53,-2,-39,41,4,63,53,58,43,9
-24,29,53,-2,-39,41,4,58,58,58,39,9
-29,24,53,2,-41,39,4,63,58,58,43,4
-29,24,53,2,-41,39,4,68,58,53,43,4
-29,19,48,4,-39,34,4,68,53,53,43,9
-29,19,48,4,-39,34,4,68,53,48,43,14
-34,19,53,7,-43,36,4,68,48,48,39,9
-34,24,58,4,-46,41,4,63,48,48,39,9
-34,19,53,7,-43,36,4,63,48,43,39,9
-34,19,53,7,-43,36,9,63,48,43,34,4
-34,14,48,9,-41,31,9,63,43,43,34,4
-29,14,43,7,-36,29,9,63,43,39,34,0
-29,14,43,7,-36,29,14,63,43,34,29,0
-29,9,39,9,-34,24,14,63,43,29,24,-4
-39,0,39,19,-39,19,19,63,43,29,24,-4
-43,-9,34,26,-39,12,29,63,43,24,24,-9
-43,-9,34,26,-39,12,29,63,39,24,24,-14
-43,-9,34,26,-39,12,29,63,39,19,14,-19
-43,-14,29,29,-36,7,29,63,43,24,9,-24
-43,-14,29,29,-36,7,29,63,48,29,4,-24
-43,-14,29,29,-36,7,34,68,53,24,4,-19
-43,-9,34,26,-39,12,43,73,53,24,4,-14
-39,-9,29,24,-34,9,63,92,58,29,14,-9
-34,-9,24,21,-29,7,82,102,68,39,19,-4
-29,-4,24,17,-26,9,102,112,78,48,19,0
-14,0,14,7,-14,7,117,126,87,58,24,4
-9,9,19,0,-14,14,122,141,92,58,29,4
-4,14,19,-4,-12,17,126,156,97,58,34,4
4,14,9,-9,-2,12,141,165,117,63,39,14
9,19,9,-14,0,14,156,180,131,68,43,24
14,19,4,-17,4,12,175,195,131,73,48,24
19,19,0,-19,9,9,190,209,136,78,53,24
19,19,0,-19,9,9,190,214,136,78,53,24
19,24,4,-21,7,14,195,224,141,78,53,29
29,19,-9,-24,19,4,146,200,117,68,48,29
39,19,-19,-29,29,0,97,175,97,58,48,29
39,34,-4,-36,21,14,39,136,78,43,39,24
39,48,9,-43,14,29,-19,97,58,29,29,19
39,63,24,-51,7,43,-43,68,48,29,29,19
34,58,24,-46,4,41,-58,39,29,14,19,14
34,53,19,-43,7,36,-73,9,14,4,9,9
34,39,4,-36,14,21,-73,-4,0,-9,0,9
34,39,4,-36,14,21,-68,-4,0,-9,0,9
39,39,0,-39,19,19,-58,9,9,0,9,14
53,58,4,-56,24,31,-48,29,24,9,29,29
58,78,19,-68,19,48,-58,29,24,9,34,43
63,78,14,-70,24,46,-82,4,9,9,34,43
63,78,14,-70,24,46,-102,-9,0,9,29,43
63,78,14,-70,24,46,-107,-14,0,4,19,43
53,78,24,-65,14,51,-107,-14,0,0,19,43
43,63,19,-53,12,41,-92,-4,4,0,14,24
14,29,14,-21,0,21,-68,9,4,-14,0,9
-9,4,14,2,-12,9,-53,9,0,-19,-19,-9
-19,4,24,7,-21,14,-53,9,0,-19,-19,-9
-19,4,24,7,-21,14,-58,4,-4,-14,-14,-9
-19,4,24,7,-21,14,-58,4,-4,-9,-14,-9
-24,4,29,9,-26,17,-58,4,-4,-9,-14,-14
-29,4,34,12,-31,19,-58,4,-4,-9,-14,-19
-29,-4,24,17,-26,9,-53,4,-4,-9,-19,-24
-29,-4,24,17,-26,9,-48,9,-4,-9,-19,-24
-29,-4,24,17,-26,9,-48,14,-4,-9,-19,-24
-29,-4,24,17,-26,9,-43,14,0,-9,-14,-24
-34,0,34,17,-34,17,-48,19,0,-9,-14,-24
-34,4,39,14,-36,21,-48,19,4,-9,-14,-24
-34,4,39,14,-36,21,-48,24,4,-9,-14,-24
-34,4,39,14,-36,21,-48,29,4,-4,-14,-24
-34,4,39,14,-36,21,-43,29,9,-4,-9,-19
-34,4,39,14,-36,21,-43,29,9,-4,-9,-14
-29,4,34,12,-31,19,-43,34,9,-4,-9,-14
-24,9,34,7,-29,21,-43,34,9,-4,-9,-14
-24,9,34,7,-29,21,-43,34,14,-4,-9,-14
-24,9,34,7,-29,21,-43,34,14,-4,-4,-14
-24,9,34,7,-29,21,-43,39,14,0,-4,-9
-24,9,34,7,-29,21,-43,39,19,0,-4,-9
-24,0,24,12,-24,12,-24,63,34,4,-4,-19
-29,-9,19,19,-24,4,-4,97,58,19,-4,-34
-39,-24,14,31,-26,-4,34,151,97,43,4,-39
-39,-58,-19,48,-9,-39,87,224,156,73,14,-58
-14,-102,-87,58,36,-95,170,375,258,141,48,-53
14,-117,-131,51,73,-124,297,619,444,268,117,-29
58,-78,-136,9,97,-107,380,834,585,405,224,43
170,19,-151,-95,161,-65,458,1049,746,595,409,200
326,283,-43,-305,185,119,473,1098,800,766,639,409
463,619,156,-541,153,387,356,912,658,805,771,575
649,854,204,-751,222,529,165,531,434,834,907,790
897,1298,400,-1098,248,849,-24,-131,131,883,1146,1127
1107,1527,419,-1317,344,973,-429,-785,-268,849,1429,1537
1244,1376,131,-1310,556,753,-1390,-2186,-1068,566,1537,1859
1166,1317,151,-1241,507,734,-2078,-3079,-1600,390,1654,2030
1063,1220,156,-1141,453,688,-2108,-2679,-1283,639,1937,2200
858,1102,244,-980,307,673,-1854,-2186,-927,795,1883,2010
697,800,102,-749,297,451,-1464,-1727,-697,644,1322,1327
561,497,-63,-529,312,217,-1117,-1244,-473,439,780,697
336,253,-82,-295,209,85,-732,-883,-502,-34,214,307
204,87,-117,-146,161,-14,-473,-624,-492,-278,-68,126
68,-4,-73,-31,70,-39,-204,-312,-244,-161,-73,24
-43,-63,-19,53,-12,-41,-39,-126,-87,-78,-73,-34
-73,-97,-24,85,-24,-61,-24,-102,-87,-97,-78,-63
-87,-112,-24,100,-31,-68,-14,-82,-73,-97,-87,-73
-78,-107,-29,92,-24,-68,-14,-73,-68,-97,-87,-73
-78,-92,-14,85,-31,-53,-4,-68,-63,-102,-87,-73
-68,-82,-14,75,-26,-48,-4,-58,-63,-102,-92,-73
-63,-82,-19,73,-21,-51,-4,-53,-58,-102,-92,-68
-63,-78,-14,70,-24,-46,-4,-48,-63,-102,-92,-63
-63,-78,-14,70,-24,-46,-4,-43,-63,-102,-92,-63
-63,-78,-14,70,-24,-46,0,-43,-58,-102,-92,-63
-58,-73,-14,65,-21,-43,0,-39,-58,-97,-92,-63
-58,-73,-14,65,-21,-43,4,-39,-58,-97,-92,-63
-58,-73,-14,65,-21,-43,4,-39,-58,-97,-92,-68
-58,-73,-14,65,-21,-43,4,-43,-58,-97,-92,-73
-58,-73,-14,65,-21,-43,4,-39,-58,-97,-92,-73
-53,-73,-19,63,-17,-46,0,-39,-58,-102,-92,-73
-53,-73,-19,63,-17,-46,0,-39,-58,-102,-92,-73
-53,-73,-19,63,-17,-46,4,-39,-58,-102,-92,-73
-53,-73,-19,63,-17,-46,4,-39,-58,-102,-92,-73
-53,-73,-19,63,-17,-46,4,-39,-58,-102,-97,-73
-53,-73,-19,63,-17,-46,4,-43,-58,-102,-97,-73
-53,-73,-19,63,-17,-46,4,-43,-58,-102,-97,-73
-53,-73,-19,63,-17,-46,0,-43,-58,-102,-97,-78
-53,-73,-19,63,-17,-46,0,-43,-63,-102,-97,-78
-53,-73,-19,63,-17,-46,0,-48,-63,-102,-102,-78
-53,-73,-19,63,-17,-46,0,-48,-63,-102,-112,-78
-53,-78,-24,65,-14,-51,4,-48,-63,-102,-112,-78
-48,-78,-29,63,-9,-53,9,-48,-63,-102,-112,-78
-48,-78,-29,63,-9,-53,9,-48,-58,-107,-112,-78
-48,-78,-29,63,-9,-53,14,-48,-58,-112,-112,-78
-48,-82,-34,65,-7,-58,14,-53,-58,-112,-112,-78
-48,-87,-39,68,-4,-63,14,-53,-58,-112,-117,-78
-48,-87,-39,68,-4,-63,14,-53,-58,-112,-117,-82
-53,-87,-34,70,-9,-61,14,-53,-58,-112,-117,-87
-53,-87,-34,70,-9,-61,19,-53,-58,-117,-122,-92
-48,-87,-39,68,-4,-63,19,-53,-58,-117,-122,-97
-48,-92,-43,70,-2,-68,19,-58,-58,-117,-122,-102
-53,-97,-43,75,-4,-70,24,-58,-58,-117,-126,-102
-53,-97,-43,75,-4,-70,24,-58,-58,-117,-131,-102
-53,-97,-43,75,-4,-70,29,-58,-58,-122,-131,-107
-68,-102,-34,85,-17,-68,34,-63,-53,-122,-136,-112
-68,-107,-39,87,-14,-73,34,-63,-53,-122,-146,-117
-68,-107,-39,87,-14,-73,43,-58,-58,-122,-151,-122
-68,-112,-43,90,-12,-78,48,-58,-58,-126,-156,-126
-78,-112,-34,95,-21,-73,53,-53,-58,-131,-161,-131
-87,-122,-34,104,-26,-78,53,-43,-58,-136,-165,-136
-92,-126,-34,109,-29,-80,63,-43,-53,-141,-170,-146
-97,-126,-29,112,-34,-78,68,-34,-48,-141,-175,-151
-97,-136,-39,117,-29,-87,78,-34,-48,-146,-190,-165
-112,-141,-29,126,-41,-85,87,-29,-43,-151,-200,-180
-117,-156,-39,136,-39,-97,102,-24,-39,-151,-204,-190
-126,-165,-39,146,-43,-102,117,-14,-34,-156,-219,-200
-136,-175,-39,156,-48,-107,131,-4,-39,-170,-234,-214
-146,-185,-39,165,-53,-112,141,4,-29,-175,-248,-229
-161,-195,-34,178,-63,-114,161,9,-24,-185,-263,-244
-175,-214,-39,195,-68,-126,175,14,-24,-195,-278,-263
-185,-224,-39,204,-73,-131,190,24,-19,-204,-297,-283
-195,-239,-43,217,-75,-141,209,34,-19,-209,-307,-297
-204,-258,-53,231,-75,-156,224,43,-9,-214,-331,-317
-219,-278,-58,248,-80,-168,244,63,0,-224,-346,-331
-239,-287,-48,263,-95,-168,258,82,4,-229,-361,-351
-258,-307,-48,283,-104,-178,273,97,14,-234,-370,-370
-268,-322,-53,295,-107,-187,292,112,19,-234,-385,-385
-283,-331,-48,307,-117,-190,307,136,24,-239,-400,-400
-287,-341,-53,314,-117,-197,317,156,29,-239,-409,-405
-292,-351,-58,322,-117,-204,336,175,39,-244,-419,-414
-302,-361,-58,331,-122,-209,351,195,48,-244,-419,-424
-312,-370,-58,341,-126,-214,366,214,58,-239,-414,-424
-317,-366,-48,341,-134,-207,375,239,73,-234,-409,-419
-317,-370,-53,344,-131,-212,385,263,92,-219,-400,-414
-317,-366,-48,341,-134,-207,385,283,102,-204,-390,-405
-312,-361,-48,336,-131,-204,380,297,112,-185,-366,-390
-307,-336,-29,322,-139,-183,375,302,122,-170,-341,-370
-297,-317,-19,307,-139,-168,361,307,136,-146,-307,-341
-268,-297,-29,283,-119,-163,346,312,141,-117,-278,-307
-248,-273,-24,261,-112,-148,322,312,151,-87,-248,-268
-239,-244,-4,241,-117,-124,302,302,161,-63,-209,-239
-219,-209,9,214,-114,-100,273,292,161,-43,-175,-204
-200,-185,14,192,-107,-85,248,283,165,-19,-136,-170
-180,-156,24,168,-102,-65,219,268,170,4,-102,-141
-161,-131,29,146,-95,-51,190,253,161,14,-82,-112
-141,-102,39,122,-90,-31,165,234,151,24,-63,-92
-122,-82,39,102,-80,-21,146,214,146,34,-43,-68
-107,-63,43,85,-75,-9,126,204,136,48,-24,-53
-92,-48,43,70,-68,-2,112,180,131,48,-9,-39
-73,-34,39,53,-56,2,92,161,131,53,-4,-24
-68,-19,48,43,-58,14,73,146,122,53,4,-14
-63,-9,53,36,-58,21,58,136,112,58,14,-4
-58,0,58,29,-58,29,48,126,107,58,24,9
-53,9,63,21,-58,36,39,112,97,58,29,19
-43,14,58,14,-51,36,29,107,87,58,34,19
-34,19,53,7,-43,36,19,92,82,58,39,14
-29,24,53,2,-41,39,14,82,82,58,39,19
-29,29,58,0,-43,43,9,73,82,58,43,24
-24,29,53,-2,-39,41,4,63,73,53,43,24
-24,34,58,-4,-41,46,4,63,73,53,43,29
-19,34,53,-7,-36,43,4,63,68,53,43,29
-14,34,48,-9,-31,41,0,58,68,53,48,29
-19,39,58,-9,-39,48,0,58,68,53,43,34
-19,39,58,-9,-39,48,-4,58,63,48,39,34
-19,34,53,-7,-36,43,-4,53,63,43,39,34
-19,29,48,-4,-34,39,-4,48,58,43,34,34
-24,29,53,-2,-39,41,-9,43,58,43,34,34
-24,29,53,-2,-39,41,-9,43,53,39,34,29
-19,29,48,-4,-34,39,-4,43,48,39,39,29
-14,29,43,-7,-29,36,-4,39,48,39,39,29
-19,24,43,-2,-31,34,-4,39,48,43,39,24
-19,24,43,-2,-31,34,-4,39,48,43,34,24
-19,19,39,0,-29,29,-4,43,43,43,34,24
-19,19,39,0,-29,29,-4,48,43,39,34,24
-24,14,39,4,-31,26,-4,48,39,34,29,19
-24,14,39,4,-31,26,-4,43,39,29,29,19
-24,9,34,7,-29,21,-4,43,39,24,24,19
-24,9,34,7,-29,21,0,43,39,24,14,14
-29,4,34,12,-31,19,0,43,34,24,14,14
-29,4,34,12,-31,19,0,43,34,19,14,9
-29,4,34,12,-31,19,0,39,34,19,9,9
-29,0,29,14,-29,14,-4,34,34,19,4,4
-29,0,29,14,-29,14,-4,34,34,24,4,9
-24,0,24,12,-24,12,0,34,34,24,4,9
-24,0,24,12,-24,12,0,34,24,24,9,9
-24,0,24,12,-24,12,0,34,19,19,4,9
-19,-4,14,12,-17,4,-4,34,19,19,4,4
-14,-4,9,9,-12,2,-9,34,19,19,4,4
-14,-4,9,9,-12,2,-9,34,24,14,4,4
-14,0,14,7,-14,7,-4,34,24,14,4,4
-19,0,19,9,-19,9,-9,39,19,9,4,4
-24,0,24,12,-24,12,-14,34,19,9,0,4
-29,0,29,14,-29,14,-9,34,19,9,-4,4
-24,0,24,12,-24,12,-9,39,19,9,-4,4
-24,0,24,12,-24,12,-9,34,14,9,-4,4
-24,-4,19,14,-21,7,-9,29,9,9,-4,4
-19,-4,14,12,-17,4,-9,24,14,9,-4,4
-19,0,19,9,-19,9,-9,24,14,9,-4,4
-19,0,19,9,-19,9,-9,19,9,9,0,4
-19,0,19,9,-19,9,-14,14,9,9,4,4
-19,0,19,9,-19,9,-19,14,9,9,4,0
-19,4,24,7,-21,14,-19,19,14,9,4,0
-24,4,29,9,-26,17,-14,19,14,4,0,0
-24,4,29,9,-26,17,-14,19,14,0,-4,4
-19,4,24,7,-21,14,-14,19,14,0,0,4
-19,0,19,9,-19,9,-19,19,14,-4,0,4
-19,0,19,9,-19,9,-24,24,14,-4,0,4
-14,0,14,7,-14,7,-19,29,14,0,-4,9
-14,4,19,4,-17,12,-24,24,14,4,-4,9
-14,9,24,2,-19,17,-24,29,19,9,-4,9
-14,9,24,2,-19,17,-24,24,19,9,-9,4
-9,9,19,0,-14,14,-24,24,19,9,-9,4
-9,9,19,0,-14,14,-24,24,19,9,-4,9
-9,14,24,-2,-17,19,-29,19,19,4,-4,9
-9,14,24,-2,-17,19,-29,19,19,4,-4,14
-9,14,24,-2,-17,19,-29,19,19,0,-4,14
-4,9,14,-2,-9,12,-34,14,24,4,0,14
-4,4,9,0,-7,7,-34,14,19,9,4,14
-4,9,14,-2,-9,12,-34,14,19,4,0,9
-4,9,14,-2,-9,12,-34,14,19,4,0,9
-4,14,19,-4,-12,17,-29,14,19,4,0,14
-4,14,19,-4,-12,17,-29,14,19,9,4,19
-4,14,19,-4,-12,17,-29,19,19,4,4,14
-4,19,24,-7,-14,21,-29,19,19,4,0,14
-4,19,24,-7,-14,21,-29,19,19,4,0,14
-4,19,24,-7,-14,21,-29,19,19,9,4,14
-4,19,24,-7,-14,21,-29,19,14,9,4,14
-4,19,24,-7,-14,21,-29,19,9,9,4,14
-4,19,24,-7,-14,21,-29,19,14,19,4,14
-4,19,24,-7,-14,21,-29,19,14,19,4,19
-4,19,24,-7,-14,21,-29,14,14,14,4,19
-4,19,24,-7,-14,21,-34,9,14,14,4,19
-4,19,24,-7,-14,21,-39,9,14,14,0,14
-4,19,24,-7,-14,21,-39,19,14,14,0,14
-4,19,24,-7,-14,21,-43,9,14,19,4,14
0,19,19,-9,-9,19,-34,14,19,24,4,14
0,29,29,-14,-14,29,-34,14,19,24,4,14
0,39,39,-19,-19,39,-39,14,24,29,9,19
0,43,43,-21,-21,43,-29,24,24,29,14,24
0,48,48,-24,-24,48,-19,39,29,29,19,29
9,48,39,-29,-14,43,0,53,43,39,24,29
19,48,29,-34,-4,39,19,68,58,48,29,29
24,58,34,-41,-4,46,34,82,68,58,39,34
29,68,39,-48,-4,53,48,97,78,68,48,39
29,73,43,-51,-7,58,68,112,92,73,53,48
29,78,48,-53,-9,63,87,126,107,78,58,58
34,82,48,-58,-7,65,102,141,112,82,63,58
39,87,48,-63,-4,68,117,156,117,87,68,58
48,87,39,-68,4,63,131,165,126,97,73,63
58,87,29,-73,14,58,146,175,136,107,78,68
63,87,24,-75,19,56,131,175,136,107,78,68
68,87,19,-78,24,53,117,175,136,107,78,68
68,97,29,-82,19,63,39,131,112,92,68,68
68,107,39,-87,14,73,-39,87,87,78,58,68
63,107,43,-85,9,75,-82,43,53,58,48,63
58,107,48,-82,4,78,-126,0,19,39,39,58
58,102,43,-80,7,73,-126,-14,9,29,34,53
53,92,39,-73,7,65,-126,-29,0,19,24,48
53,87,34,-70,9,61,-126,-43,-9,9,19,48
58,87,29,-73,14,58,-117,-43,-9,9,19,48
68,87,19,-78,24,53,-107,-29,0,19,29,53
82,97,14,-90,34,56,-97,-9,14,29,43,63
87,107,19,-97,34,63,-107,-9,14,29,43,68
87,107,19,-97,34,63,-122,-29,4,29,43,63
82,107,24,-95,29,65,-131,-39,0,29,39,63
82,102,19,-92,31,61,-131,-39,0,24,29,58
73,97,24,-85,24,61,-126,-34,0,19,29,53
63,78,14,-70,24,46,-112,-24,4,19,24,34
34,39,4,-36,14,21,-87,-9,4,4,9,19
9,14,4,-12,2,9,-73,-9,0,0,-9,0
0,14,14,-7,-7,14,-73,-9,0,0,-9,0
0,14,14,-7,-7,14,-78,-14,-4,0,-4,0
0,14,14,-7,-7,14,-78,-14,-4,-4,-9,0
-4,14,19,-4,-12,17,-78,-14,-4,-9,-14,0
-9,14,24,-2,-17,19,-78,-14,-4,-9,-14,0
-9,4,14,2,-12,9,-73,-14,-4,-9,-19,-4
-9,4,14,2,-12,9,-68,-9,-4,-4,-19,-4
-9,4,14,2,-12,9,-68,-4,-4,0,-24,-4
-9,4,14,2,-12,9,-63,-4,0,0,-24,-4
-14,4,19,4,-17,12,-63,0,0,0,-24,-4
-19,4,24,7,-21,14,-53,0,4,0,-19,-4
-24,4,29,9,-26,17,-48,4,4,0,-14,-4
-24,4,29,9,-26,17,-48,9,4,4,-14,-4
-24,4,29,9,-26,17,-43,9,9,4,-9,-4
-24,4,29,9,-26,17,-43,9,9,4,-9,-4
-24,4,29,9,-26,17,-43,14,9,4,-9,-4
-24,9,34,7,-29,21,-43,14,9,4,-9,-4
-24,9,34,7,-29,21,-43,14,14,4,-9,-4
-24,9,34,7,-29,21,-43,14,14,4,-4,-4
-24,9,34,7,-29,21,-43,19,14,9,-4,0
-24,14,39,4,-31,26,-43,19,19,9,-4,0
-24,19,43,2,-34,31,-39,24,19,9,-4,0
-29,19,48,4,-39,34,-34,39,29,19,-4,-4
-39,14,53,12,-46,34,4,82,58,34,0,-9
-39,-4,34,21,-36,14,58,146,107,58,4,-24
-43,-43,0,43,-21,-21,97,190,136,82,4,-39
-39,-58,-19,48,-9,-39,185,341,253,161,39,-39
-14,-73,-58,43,21,-65,341,668,478,307,126,-9
73,-34,-107,-19,90,-70,488,990,717,507,292,97
229,68,-161,-148,195,-46,531,1200,839,678,497,263
366,248,-117,-307,241,65,453,1166,761,692,585,375
492,556,63,-524,214,309,385,1068,624,692,624,468
683,1058,375,-871,153,717,283,658,366,697,761,692
1029,1307,278,-1168,375,793,9,-63,-107,575,897,961
1302,1180,-122,-1241,712,529,-844,-1546,-995,219,883,1146
1327,1058,-268,-1193,797,395,-2044,-3113,-2020,-229,966,1498
1322,907,-414,-1115,868,246,-2469,-3274,-2049,-161,1259,1864
1112,976,-136,-1044,624,419,-2161,-2635,-1390,488,1830,2147
951,858,-92,-905,522,383,-1795,-2117,-941,736,1795,1878
790,531,-258,-661,524,136,-1459,-1649,-717,468,976,932
541,273,-268,-407,405,2,-1073,-1283,-727,-34,209,307
366,112,-253,-239,309,-70,-727,-922,-688,-346,-87,165
185,24,-161,-104,173,-68,-370,-507,-424,-283,-107,68
29,-39,-68,4,48,-53,-136,-248,-190,-131,-82,-14
-43,-87,-43,65,0,-65,-58,-151,-117,-107,-87,-73
-73,-107,-34,90,-19,-70,-43,-122,-102,-107,-97,-82
-78,-107,-29,92,-24,-68,-34,-107,-97,-107,-97,-78
-78,-92,-14,85,-31,-53,-24,-107,-92,-107,-97,-73
-68,-82,-14,75,-26,-48,-24,-97,-92,-102,-102,-73
-63,-82,-19,73,-21,-51,-24,-87,-78,-102,-102,-73
-63,-78,-14,70,-24,-46,-24,-78,-73,-102,-102,-73
-63,-78,-14,70,-24,-46,-24,-73,-73,-102,-102,-73
-63,-78,-14,70,-24,-46,-19,-68,-68,-102,-102,-73
-58,-73,-14,65,-21,-43,-19,-58,-68,-97,-102,-73
-58,-73,-14,65,-21,-43,-14,-58,-68,-97,-102,-73
-58,-73,-14,65,-21,-43,-14,-53,-68,-97,-102,-73
-58,-73,-14,65,-21,-43,-14,-53,-68,-97,-102,-73
-58,-73,-14,65,-21,-43,-9,-48,-68,-97,-102,-73
-53,-73,-19,63,-17,-46,-9,-53,-68,-102,-102,-78
-53,-73,-19,63,-17,-46,-9,-58,-68,-102,-102,-82
-53,-73,-19,63,-17,-46,-4,-58,-68,-102,-102,-82
-53,-73,-19,63,-17,-46,-4,-58,-68,-102,-102,-82
-53,-73,-19,63,-17,-46,-4,-58,-68,-102,-107,-82
-53,-73,-19,63,-17,-46,-4,-63,-68,-102,-107,-82
-53,-73,-19,63,-17,-46,-4,-63,-68,-102,-107,-82
-53,-73,-19,63,-17,-46,-4,-63,-68,-102,-107,-87
-53,-73,-19,63,-17,-46,0,-58,-73,-102,-107,-87
-53,-73,-19,63,-17,-46,0,-58,-73,-102,-107,-87
-53,-68,-14,61,-19,-41,0,-58,-73,-102,-112,-87
-53,-63,-9,58,-21,-36,0,-58,-73,-102,-112,-87
-48,-58,-9,53,-19,-34,0,-58,-73,-102,-112,-87
-48,-58,-9,53,-19,-34,0,-58,-68,-102,-112,-87
-48,-58,-9,53,-19,-34,4,-58,-68,-102,-112,-87
-48,-58,-9,53,-19,-34,4,-63,-68,-102,-112,-87
-48,-58,-9,53,-19,-34,4,-63,-68,-102,-117,-82
-48,-58,-9,53,-19,-34,4,-63,-68,-102,-117,-82
-53,-58,-4,56,-24,-31,4,-63,-68,-102,-117,-87
-53,-58,-4,56,-24,-31,9,-63,-68,-107,-122,-87
-48,-58,-9,53,-19,-34,9,-63,-68,-107,-122,-92
-48,-63,-14,56,-17,-39,9,-63,-68,-107,-122,-102
-53,-68,-14,61,-19,-41,14,-58,-63,-107,-126,-102
-53,-68,-14,61,-19,-41,14,-58,-58,-107,-131,-102
-48,-68,-19,58,-14,-43,19,-58,-58,-112,-131,-102
-58,-73,-14,65,-21,-43,24,-58,-53,-112,-131,-102
-58,-78,-19,68,-19,-48,24,-48,-53,-112,-136,-107
-58,-78,-19,68,-19,-48,34,-39,-53,-112,-141,-112
-58,-82,-24,70,-17,-53,39,-39,-48,-117,-146,-117
-63,-82,-19,73,-21,-51,48,-34,-48,-117,-151,-122
-68,-92,-24,80,-21,-58,53,-29,-48,-117,-156,-126
-73,-97,-24,85,-24,-61,63,-34,-43,-122,-161,-136
-78,-97,-19,87,-29,-58,68,-24,-39,-122,-165,-136
-78,-107,-29,92,-24,-68,78,-19,-39,-126,-175,-141
-87,-112,-24,100,-31,-68,87,-4,-34,-131,-175,-151
-87,-122,-34,104,-26,-78,97,4,-29,-131,-175,-161
-97,-122,-24,109,-36,-73,107,14,-24,-131,-190,-170
-107,-126,-19,117,-43,-73,122,24,-24,-136,-200,-180
-117,-136,-19,126,-48,-78,131,34,-9,-136,-209,-190
-126,-141,-14,134,-56,-78,151,43,-4,-141,-219,-200
-136,-156,-19,146,-58,-87,165,58,-4,-141,-224,-214
-146,-165,-19,156,-63,-92,180,78,4,-146,-239,-234
-156,-175,-19,165,-68,-97,200,92,9,-151,-244,-244
-165,-185,-19,175,-73,-102,214,107,19,-151,-258,-258
-175,-200,-24,187,-75,-112,234,131,34,-156,-268,-273
-185,-209,-24,197,-80,-117,253,151,43,-161,-283,-287
-200,-224,-24,212,-87,-124,273,165,58,-165,-292,-302
-209,-234,-24,222,-92,-129,292,180,73,-165,-307,-317
-224,-244,-19,234,-102,-131,307,204,82,-165,-322,-331
-234,-253,-19,244,-107,-136,317,224,87,-161,-331,-341
-244,-263,-19,253,-112,-141,336,244,102,-165,-336,-356
-253,-273,-19,263,-117,-146,351,263,117,-165,-336,-366
-263,-283,-19,273,-122,-151,366,283,126,-161,-336,-366
-268,-283,-14,275,-126,-148,375,307,136,-161,-336,-366
-268,-292,-24,280,-122,-158,385,331,151,-151,-331,-361
-273,-292,-19,283,-126,-156,395,351,161,-146,-331,-356
-273,-297,-24,285,-124,-161,400,366,170,-136,-317,-351
-273,-292,-19,283,-126,-156,400,375,180,-122,-302,-336
-273,-287,-14,280,-129,-151,390,380,195,-97,-278,-312
-258,-268,-9,263,-124,-139,380,380,200,-78,-248,-287
-248,-244,4,246,-126,-119,361,380,204,-58,-219,-263
-239,-219,19,229,-129,-100,341,370,209,-34,-185,-239
-219,-190,29,204,-124,-80,312,361,204,-19,-161,-204
-200,-165,34,183,-117,-65,287,346,200,0,-126,-170
-185,-141,43,163,-114,-48,258,322,200,24,-92,-146
-170,-122,48,146,-109,-36,229,297,190,34,-68,-122
-151,-92,58,122,-104,-17,204,273,180,43,-48,-102
-131,-73,58,102,-95,-7,175,248,175,53,-34,-73
-117,-53,63,85,-90,4,146,234,165,63,-14,-53
-102,-34,68,68,-85,17,131,209,156,63,4,-34
-82,-14,68,48,-75,26,112,190,146,73,14,-14
-73,0,73,36,-73,36,87,170,131,73,24,-4
-63,9,73,26,-68,41,68,156,122,78,29,4
-53,19,73,17,-63,46,53,141,117,78,34,19
-43,29,73,7,-58,51,39,117,107,78,39,24
-34,39,73,-2,-53,56,29,107,97,78,43,24
-24,48,73,-12,-48,61,19,92,92,73,48,24
-19,53,73,-17,-46,63,9,82,87,68,48,29
-19,58,78,-19,-48,68,-4,73,82,68,53,34
-14,58,73,-21,-43,65,-14,63,73,63,53,34
-14,63,78,-24,-46,70,-14,63,68,63,53,39
-9,63,73,-26,-41,68,-14,58,58,63,53,39
-4,63,68,-29,-36,65,-19,48,58,63,53,39
-4,68,73,-31,-39,70,-19,48,58,63,48,43
-4,68,73,-31,-39,70,-24,48,53,58,48,43
-9,68,78,-29,-43,73,-24,43,53,53,48,43
-9,68,78,-29,-43,73,-24,39,48,53,48,43
-14,68,82,-26,-48,75,-29,34,48,53,53,43
-9,68,78,-29,-43,73,-29,34,43,48,53,39
-4,68,73,-31,-39,70,-24,34,39,48,53,39
-4,68,73,-31,-39,70,-24,29,39,48,48,39
-9,63,73,-26,-41,68,-24,29,39,48,48,34
-14,58,73,-21,-43,65,-24,29,39,43,43,34
-19,48,68,-14,-43,58,-24,29,34,43,43,34
-19,48,68,-14,-43,58,-19,29,34,39,43,34
-24,43,68,-9,-46,56,-14,29,29,39,39,29
-24,43,68,-9,-46,56,-14,24,29,39,34,24
-24,39,63,-7,-43,51,-14,24,29,34,29,19
-24,34,58,-4,-41,46,-9,24,29,34,24,14
-29,24,53,2,-41,39,-9,24,24,34,24,14
-34,24,58,4,-46,41,-9,24,24,29,24,9
-39,24,63,7,-51,43,-4,24,24,29,19,9
-39,19,58,9,-48,39,-4,24,24,29,14,4
-43,14,58,14,-51,36,-4,24,24,29,14,4
-43,9,53,17,-48,31,4,24,24,24,14,0
-43,9,53,17,-48,31,9,24,19,24,14,0
-43,9,53,17,-48,31,9,29,19,19,4,0
-43,4,48,19,-46,26,9,34,19,19,4,-4
-43,0,43,21,-43,21,9,34,19,19,4,-4
-43,-9,34,26,-39,12,9,34,19,14,4,-4
-43,-9,34,26,-39,12,14,29,19,9,0,-9
-43,-9,34,26,-39,12,14,34,14,0,-4,-14
-48,-9,39,29,-43,14,14,34,9,0,-9,-19
-53,-9,43,31,-48,17,19,34,9,0,-14,-24
-48,-9,39,29,-43,14,19,39,9,0,-14,-24
-53,-9,43,31,-48,17,19,39,9,0,-14,-24
-53,-19,34,36,-43,7,19,39,9,0,-14,-24
-48,-24,24,36,-36,0,19,34,14,0,-14,-24
-48,-24,24,36,-36,0,19,34,14,0,-9,-24
-48,-29,19,39,-34,-4,19,34,9,0,-4,-24
-48,-29,19,39,-34,-4,19,34,9,0,-4,-24
-48,-29,19,39,-34,-4,19,34,9,0,-4,-24
-48,-19,29,34,-39,4,19,43,14,0,-4,-19
-48,-14,34,31,-41,9,24,48,14,0,-4,-19
-34,-9,24,21,-29,7,53,68,24,9,-4,-9
-19,0,19,9,-19,9,78,87,39,24,0,-4
-9,9,19,0,-14,14,82,97,58,34,14,4
0,24,24,-12,-12,24,87,107,73,43,34,14
4,34,29,-19,-12,31,112,126,82,53,39,19
4,43,39,-24,-17,41,131,136,87,58,43,19
9,53,43,-31,-17,48,146,151,102,68,48,24
14,58,43,-36,-14,51,161,161,117,78,53,29
29,58,29,-43,0,43,175,180,122,82,58,34
39,63,24,-51,7,43,185,195,126,92,63,39
48,68,19,-58,14,43,161,195,126,92,68,43
63,73,9,-68,26,41,141,200,126,97,73,53
63,82,19,-73,21,51,73,165,112,87,68,53
68,97,29,-82,19,63,9,136,97,78,68,58
63,97,34,-80,14,65,-48,78,63,58,58,48
58,97,39,-78,9,68,-107,19,29,39,48,39
53,92,39,-73,7,65,-107,-9,4,19,34,29
48,82,34,-65,7,58,-112,-29,-14,4,19,24
43,78,34,-61,4,56,-117,-53,-34,-9,4,19
48,78,29,-63,9,53,-117,-53,-39,-9,0,19
58,78,19,-68,19,48,-107,-39,-29,0,9,24
73,87,14,-80,29,51,-97,-19,-14,9,24,34
78,97,19,-87,29,58,-107,-19,-9,9,29,48
78,97,19,-87,29,58,-122,-39,-14,9,34,53
78,102,24,-90,26,63,-136,-53,-19,9,34,53
82,102,19,-92,31,61,-141,-58,-19,4,29,48
73,112,39,-92,17,75,-136,-53,-19,4,29,53
63,107,43,-85,9,75,-122,-43,-14,9,24,43
29,48,19,-39,4,34,-97,-29,-14,-4,9,19
0,4,4,-2,-2,4,-82,-29,-19,-9,-9,-9
-9,4,14,2,-12,9,-82,-29,-19,-9,-14,-9
-9,4,14,2,-12,9,-87,-34,-24,-9,-14,-9
-9,9,19,0,-14,14,-82,-34,-24,-9,-14,-9
-14,14,29,0,-21,21,-78,-34,-24,-9,-14,-9
-19,14,34,2,-26,24,-78,-34,-24,-14,-14,-9
-19,4,24,7,-21,14,-73,-34,-24,-19,-19,-14
-19,4,24,7,-21,14,-68,-29,-24,-19,-19,-14
-19,4,24,7,-21,14,-68,-24,-24,-19,-24,-14
-19,4,24,7,-21,14,-68,-24,-19,-19,-24,-14
-24,4,29,9,-26,17,-73,-19,-19,-19,-24,-14
-24,4,29,9,-26,17,-68,-19,-19,-19,-24,-14
-24,4,29,9,-26,17,-68,-14,-24,-19,-24,-14
-24,4,29,9,-26,17,-68,-9,-24,-14,-24,-14
-24,4,29,9,-26,17,-63,-9,-19,-14,-19,-14
-24,4,29,9,-26,17,-63,-9,-19,-14,-19,-14
-24,4,29,9,-26,17,-63,-4,-19,-14,-19,-14
-24,4,29,9,-26,17,-63,-4,-19,-9,-19,-14
-24,0,24,12,-24,12,-63,-4,-14,-4,-19,-14
-24,0,24,12,-24,12,-63,-4,-14,-4,-14,-14
-24,0,24,12,-24,12,-63,0,-14,0,-14,-9
-24,4,29,9,-26,17,-68,-4,-9,-4,-14,-9
-24,9,34,7,-29,21,-68,-4,-9,-9,-14,-9
-29,14,43,7,-36,29,-68,-4,-9,0,-14,-9
-39,14,53,12,-46,34,-34,24,9,14,-9,-9
-39,-9,29,24,-34,9,9,73,48,24,-4,-29
-43,-53,-9,48,-17,-31,39,102,68,34,-4,-48
-63,-73,-9,68,-26,-41,102,180,141,73,0,-78
-63,-92,-29,78,-17,-61,234,434,322,180,58,-78
9,-92,-102,41,56,-97,439,849,634,414,224,24
151,-29,-180,-61,165,-104,541,1151,829,619,429,185
278,63,-214,-170,246,-75,453,1190,780,639,512,278
395,283,-112,-339,253,85,375,1166,673,644,546,351
570,917,346,-744,112,631,434,1024,570,722,683,546
902,1298,395,-1100,253,846,322,570,253,673,819,785
1229,1180,-48,-1205,639,566,-483,-1122,-761,229,712,907
1307,1068,-239,-1188,773,414,-1634,-2898,-1912,-307,702,1195
1346,917,-429,-1132,888,244,-2376,-3391,-2186,-370,1015,1683
1180,985,-195,-1083,688,395,-2386,-3084,-1771,146,1605,2088
1044,932,-112,-988,578,409,-2010,-2469,-1161,683,1908,2044
907,668,-239,-788,573,214,-1664,-1903,-775,702,1424,1322
658,370,-287,-514,473,41,-1273,-1522,-824,92,463,517
483,170,-312,-326,397,-70,-922,-1146,-824,-326,-29,195
273,68,-204,-170,239,-68,-502,-653,-527,-287,-73,92
87,-9,-97,-39,92,-53,-204,-317,-258,-161,-73,4
-9,-73,-63,41,26,-68,-97,-195,-151,-122,-78,-63
-63,-107,-43,85,-9,-75,-53,-141,-102,-107,-87,-82
-68,-117,-48,92,-9,-82,-43,-122,-97,-107,-87,-82
-68,-112,-43,90,-12,-78,-34,-117,-92,-107,-87,-82
-58,-92,-34,75,-12,-63,-34,-107,-97,-102,-92,-82
-53,-82,-29,68,-12,-56,-34,-97,-87,-102,-92,-82
-53,-78,-24,65,-14,-51,-34,-87,-82,-102,-92,-82
-53,-78,-24,65,-14,-51,-34,-82,-82,-102,-92,-82
-53,-78,-24,65,-14,-51,-29,-82,-78,-102,-92,-82
-48,-73,-24,61,-12,-48,-29,-78,-78,-97,-92,-82
-48,-73,-24,61,-12,-48,-24,-78,-78,-97,-92,-82
-48,-73,-24,61,-12,-48,-24,-73,-78,-97,-92,-82
-53,-73,-19,63,-17,-46,-24,-73,-73,-97,-92,-82
-58,-73,-14,65,-21,-43,-19,-68,-68,-97,-92,-82
-53,-73,-19,63,-17,-46,-19,-68,-68,-102,-92,-82
-53,-73,-19,63,-17,-46,-19,-68,-68,-102,-92,-82
-48,-73,-24,61,-12,-48,-14,-68,-73,-102,-92,-82
-43,-73,-29,58,-7,-51,-14,-68,-78,-102,-92,-82
-43,-78,-34,61,-4,-56,-14,-68,-78,-102,-97,-82
-43,-82,-39,63,-2,-61,-14,-73,-78,-102,-97,-82
-43,-82,-39,63,-2,-61,-14,-73,-78,-107,-97,-82
-43,-82,-39,63,-2,-61,-14,-73,-78,-112,-97,-87
-43,-78,-34,61,-4,-56,-9,-73,-82,-112,-97,-87
-43,-73,-29,58,-7,-51,-9,-78,-82,-112,-97,-87
-43,-73,-29,58,-7,-51,-9,-78,-82,-112,-102,-87
-43,-73,-29,58,-7,-51,-9,-78,-82,-112,-102,-87
-39,-68,-29,53,-4,-48,-9,-78,-82,-112,-102,-87
-39,-68,-29,53,-4,-48,-9,-78,-78,-112,-102,-87
-43,-73,-29,58,-7,-51,-4,-78,-78,-112,-102,-87
-48,-78,-29,63,-9,-53,-4,-82,-78,-112,-102,-87
-48,-78,-29,63,-9,-53,-4,-82,-78,-112,-107,-87
-48,-78,-29,63,-9,-53,-4,-82,-78,-112,-107,-92
-48,-78,-29,63,-9,-53,-4,-82,-78,-107,-107,-97
-43,-78,-34,61,-4,-56,0,-82,-78,-107,-112,-97
-39,-73,-34,56,-2,-53,4,-82,-78,-107,-112,-97
-39,-73,-34,56,-2,-53,9,-82,-78,-107,-112,-102
-43,-78,-34,61,-4,-56,14,-78,-78,-107,-117,-102
-43,-78,-34,61,-4,-56,14,-78,-78,-107,-122,-102
-43,-78,-34,61,-4,-56,14,-78,-78,-112,-122,-107
-58,-82,-24,70,-17,-53,14,-78,-73,-112,-122,-112
-58,-92,-34,75,-12,-63,14,-73,-73,-112,-126,-117
-58,-97,-39,78,-9,-68,24,-68,-73,-112,-131,-122
-58,-102,-43,80,-7,-73,29,-68,-68,-117,-136,-126
-63,-102,-39,82,-12,-70,39,-63,-68,-117,-141,-131
-68,-107,-39,87,-14,-73,43,-53,-68,-117,-146,-136
-73,-107,-34,90,-19,-70,53,-53,-63,-122,-151,-146
-78,-107,-29,92,-24,-68,58,-48,-58,-122,-156,-151
-78,-117,-39,97,-19,-78,68,-48,-58,-126,-165,-161
-92,-122,-29,107,-31,-75,78,-39,-53,-131,-170,-170
-97,-131,-34,114,-31,-82,87,-34,-48,-131,-175,-180
-107,-136,-29,122,-39,-82,97,-24,-43,-131,-185,-190
-117,-146,-29,131,-43,-87,112,-14,-43,-136,-190,-200
-131,-161,-29,146,-51,-95,126,0,-29,-136,-200,-209
-146,-170,-24,158,-61,-97,151,14,-24,-141,-209,-219
-156,-185,-29,170,-63,-107,165,24,-24,-146,-219,-229
-165,-195,-29,180,-68,-112,180,39,-14,-156,-239,-244
-175,-209,-34,192,-70,-122,195,53,-9,-161,-248,-258
-185,-224,-39,204,-73,-131,204,68,0,-161,-268,-278
-200,-234,-34,217,-82,-134,224,92,4,-165,-278,-297
-214,-239,-24,226,-95,-131,244,112,4,-170,-292,-317
-234,-258,-24,246,-104,-141,263,126,14,-180,-307,-336
-248,-273,-24,261,-112,-148,283,141,24,-185,-326,-356
-263,-287,-24,275,-119,-156,302,165,34,-190,-341,-370
-273,-302,-29,287,-122,-165,317,185,39,-190,-351,-380
-283,-317,-34,300,-124,-175,341,209,48,-195,-366,-395
-292,-331,-39,312,-126,-185,361,234,58,-195,-375,-405
-307,-341,-34,324,-136,-187,375,253,68,-190,-375,-409
-317,-341,-24,329,-146,-183,385,278,78,-190,-375,-414
-317,-351,-34,334,-141,-192,395,307,92,-185,-375,-419
-322,-351,-29,336,-146,-190,405,331,102,-185,-380,-424
-322,-356,-34,339,-143,-195,414,346,112,-175,-366,-424
-322,-351,-29,336,-146,-190,419,356,122,-161,-351,-414
-317,-346,-29,331,-143,-187,409,370,136,-136,-331,-390
-297,-326,-29,312,-134,-178,400,380,141,-117,-307,-366
-287,-302,-14,295,-136,-158,380,380,151,-97,-278,-331
-278,-278,0,278,-139,-139,361,370,161,-73,-244,-297
-258,-248,9,253,-134,-119,331,361,161,-53,-214,-263
-239,-224,14,231,-126,-104,307,346,161,-29,-175,-229
-214,-195,19,204,-117,-87,278,331,161,0,-136,-200
-190,-170,19,180,-104,-75,248,317,151,14,-107,-170
-170,-136,34,153,-102,-51,219,292,141,24,-78,-141
-151,-112,39,131,-95,-36,185,268,136,34,-53,-102
-131,-92,39,112,-85,-26,156,248,131,53,-34,-82
-112,-73,39,92,-75,-17,141,219,126,63,-14,-63
-92,-53,39,73,-65,-7,122,200,122,73,4,-39
-82,-39,43,61,-63,2,97,180,112,73,24,-24
-68,-24,43,46,-56,9,73,165,102,78,34,-14
-53,-9,43,31,-48,17,53,151,97,78,43,0
-43,0,43,21,-43,21,39,126,87,78,48,9
-34,9,43,12,-39,26,29,117,78,78,53,14
-24,24,48,0,-36,36,19,102,73,78,58,14
-19,34,53,-7,-36,43,9,92,68,78,58,19
-19,39,58,-9,-39,48,-4,87,63,78,63,24
-14,39,53,-12,-34,46,-14,82,53,73,63,24
-14,43,58,-14,-36,51,-14,82,53,78,63,34
-9,43,53,-17,-31,48,-14,78,48,82,63,39
-4,43,48,-19,-26,46,-24,63,48,82,68,39
-4,48,53,-21,-29,51,-29,58,48,82,68,43
0,43,43,-21,-21,43,-34,58,43,78,73,43
0,39,39,-19,-19,39,-34,53,43,73,78,43
0,39,39,-19,-19,39,-34,48,39,73,73,43
-4,39,43,-17,-24,41,-39,43,39,73,73,43
-4,39,43,-17,-24,41,-39,43,34,68,73,39
-4,39,43,-17,-24,41,-34,43,29,68,73,39
-4,43,48,-19,-26,46,-34,39,29,68,68,39
-9,43,53,-17,-31,48,-34,39,29,68,68,34
-9,43,53,-17,-31,48,-34,39,29,63,63,34
-9,39,48,-14,-29,43,-34,39,24,63,63,34
-9,39,48,-14,-29,43,-34,39,24,58,63,34
-14,34,48,-9,-31,41,-34,39,19,58,58,29
-9,34,43,-12,-26,39,-34,34,19,58,58,29
-4,29,34,-12,-19,31,-34,34,19,53,58,29
-4,29,34,-12,-19,31,-29,29,19,53,53,24
-9,24,34,-7,-21,29,-29,24,14,53,53,24
-9,24,34,-7,-21,29,-34,24,14,48,53,19
-9,24,34,-7,-21,29,-34,24,14,48,48,19
-9,19,29,-4,-19,24,-34,24,9,48,43,19
-14,14,29,0,-21,21,-34,24,4,48,43,24
-14,9,24,2,-19,17,-29,24,4,43,43,19
-14,9,24,2,-19,17,-29,24,0,43,43,19
-9,14,24,-2,-17,19,-29,19,0,39,34,19
-4,14,19,-4,-12,17,-29,14,0,39,34,14
-4,14,19,-4,-12,17,-34,14,0,43,39,14
-4,9,14,-2,-9,12,-39,14,-4,43,43,14
-4,9,14,-2,-9,12,-39,14,-4,43,43,14
