I, II, III, aVR, aVL, aVF, V1, V2, V3, V4, V5, V6
-78,-156,-78,117,0,-117,146,146,-19,-78,-97,-87
-78,-156,-78,117,0,-117,146,146,-9,-78,-97,-87
-78,-156,-78,117,0,-117,146,146,0,-78,-97,-87
-78,-151,-73,114,-2,-112,146,156,9,-68,-87,-82
-78,-146,-68,112,-4,-107,146,165,19,-58,-78,-78
-73,-141,-68,107,-2,-104,146,170,29,-58,-78,-78
-68,-136,-68,102,0,-102,146,175,39,-58,-78,-78
-63,-131,-68,97,2,-100,146,180,39,-58,-78,-78
-58,-126,-68,92,4,-97,146,185,39,-58,-78,-78
-58,-122,-63,90,2,-92,141,190,48,-48,-78,-78
-58,-117,-58,87,0,-87,136,195,58,-39,-78,-78
-53,-117,-63,85,4,-90,136,209,68,-34,-73,-73
-48,-117,-68,82,9,-92,136,224,78,-29,-68,-68
-43,-107,-63,75,9,-85,136,229,92,-24,-63,-63
-39,-97,-58,68,9,-78,136,234,107,-19,-58,-58
-24,-82,-58,53,17,-70,136,253,126,-4,-53,-53
-9,-68,-58,39,24,-63,136,273,146,9,-48,-48
-9,-68,-58,39,24,-63,131,287,156,14,-39,-48
-9,-68,-58,39,24,-63,126,302,165,19,-29,-48
0,-68,-68,34,34,-68,122,322,175,24,-19,-43
9,-68,-78,29,43,-73,117,341,185,29,-9,-39
34,-43,-78,4,56,-61,117,370,200,43,0,-24
58,-19,-78,-19,68,-48,117,400,214,58,9,-9
73,-9,-82,-31,78,-46,107,419,229,73,24,-4
87,0,-87,-43,87,-43,97,439,244,87,39,0
97,4,-92,-51,95,-43,92,458,253,92,39,9
107,9,-97,-58,102,-43,87,478,263,97,39,19
146,43,-102,-95,124,-29,82,497,278,117,63,39
185,78,-107,-131,146,-14,78,517,292,136,87,58
195,87,-107,-141,151,-9,68,517,292,136,87,63
204,97,-107,-151,156,-4,58,517,292,136,87,68
209,107,-102,-158,156,2,24,497,287,141,107,78
214,117,-97,-165,156,9,-9,478,283,146,126,87
214,136,-78,-175,146,29,-24,434,278,156,136,107
214,156,-58,-185,136,48,-39,390,273,165,146,126
224,180,-43,-202,134,68,-53,341,263,170,161,141
234,204,-29,-219,131,87,-68,292,253,175,175,156
219,204,-14,-212,117,95,-73,239,234,175,175,156
204,204,0,-204,102,102,-78,185,214,175,175,156
175,185,9,-180,82,97,-82,141,185,161,161,146
146,165,19,-156,63,92,-87,97,156,146,146,136
122,146,24,-134,48,85,-87,63,136,126,126,122
97,126,29,-112,34,78,-87,29,117,107,107,107
82,107,24,-95,29,65,-82,4,92,87,87,92
68,87,19,-78,24,53,-78,-19,68,68,68,78
43,58,14,-51,14,36,-63,-29,48,53,58,68
19,29,9,-24,4,19,-48,-39,29,39,48,58
9,19,9,-14,0,14,-39,-48,14,29,34,43
0,9,9,-4,-4,9,-29,-58,0,19,19,29
-14,-14,0,14,-7,-7,-19,-58,-14,9,9,19
-29,-39,-9,34,-9,-24,-9,-58,-29,0,0,9
-29,-43,-14,36,-7,-29,0,-58,-34,-4,-4,4
-29,-48,-19,39,-4,-34,9,-58,-39,-9,-9,0
-53,-68,-14,61,-19,-41,9,-58,-48,-24,-24,-14
-78,-87,-9,82,-34,-48,9,-58,-58,-39,-39,-29
-78,-97,-19,87,-29,-58,9,-63,-63,-43,-43,-29
-78,-107,-29,92,-24,-68,9,-68,-68,-48,-48,-29
-73,-97,-24,85,-24,-61,14,-68,-68,-48,-48,-29
-68,-87,-19,78,-24,-53,19,-68,-68,-48,-48,-29
-63,-87,-24,75,-19,-56,19,-68,-68,-48,-48,-29
-58,-87,-29,73,-14,-58,19,-68,-68,-48,-48,-29
-58,-87,-29,73,-14,-58,19,-68,-68,-48,-48,-29
-58,-87,-29,73,-14,-58,19,-68,-68,-48,-48,-29
-63,-92,-29,78,-17,-61,19,-68,-73,-48,-48,-34
-68,-97,-29,82,-19,-63,19,-68,-78,-48,-48,-39
-68,-97,-29,82,-19,-63,19,-68,-78,-53,-48,-39
-68,-97,-29,82,-19,-63,19,-68,-78,-58,-48,-39
-68,-97,-29,82,-19,-63,19,-68,-78,-58,-53,-39
-68,-97,-29,82,-19,-63,19,-68,-78,-58,-58,-39
-68,-97,-29,82,-19,-63,19,-63,-78,-58,-58,-43
-68,-97,-29,82,-19,-63,19,-58,-78,-58,-58,-48
-63,-97,-34,80,-14,-65,19,-58,-78,-58,-63,-48
-58,-97,-39,78,-9,-68,19,-58,-78,-58,-68,-48
-58,-97,-39,78,-9,-68,19,-58,-78,-58,-68,-48
-58,-97,-39,78,-9,-68,19,-58,-78,-58,-68,-48
-58,-92,-34,75,-12,-63,24,-58,-78,-58,-68,-48
-58,-87,-29,73,-14,-58,29,-58,-78,-58,-68,-48
-63,-87,-24,75,-19,-56,29,-58,-78,-63,-68,-48
-68,-87,-19,78,-24,-53,29,-58,-78,-68,-68,-48
-78,-92,-14,85,-31,-53,29,-58,-78,-68,-63,-48
-87,-97,-9,92,-39,-53,29,-58,-78,-68,-58,-48
-87,-97,-9,92,-39,-53,29,-58,-73,-63,-58,-48
-87,-97,-9,92,-39,-53,29,-58,-68,-58,-58,-48
-87,-97,-9,92,-39,-53,29,-58,-68,-58,-63,-48
-87,-97,-9,92,-39,-53,29,-58,-68,-58,-68,-48
-87,-87,0,87,-43,-43,29,-58,-68,-58,-68,-48
-87,-78,9,82,-48,-34,29,-58,-68,-58,-68,-48
-87,-78,9,82,-48,-34,29,-63,-73,-63,-68,-48
-87,-78,9,82,-48,-34,29,-68,-78,-68,-68,-48
-87,-78,9,82,-48,-34,29,-68,-82,-68,-68,-53
-87,-78,9,82,-48,-34,29,-68,-87,-68,-68,-58
-92,-82,9,87,-51,-36,29,-68,-87,-73,-73,-58
-97,-87,9,92,-53,-39,29,-68,-87,-78,-78,-58
-97,-87,9,92,-53,-39,29,-68,-87,-78,-78,-58
-97,-87,9,92,-53,-39,29,-68,-87,-78,-78,-58
-82,-73,9,78,-46,-31,29,-68,-82,-73,-73,-58
-68,-58,9,63,-39,-24,29,-68,-78,-68,-68,-58
-68,-58,9,63,-39,-24,29,-68,-78,-68,-68,-58
-68,-58,9,63,-39,-24,29,-68,-78,-68,-68,-58
-78,-73,4,75,-41,-34,24,-68,-82,-68,-68,-58
-87,-87,0,87,-43,-43,19,-68,-87,-68,-68,-58
-87,-87,0,87,-43,-43,19,-68,-87,-78,-78,-53
-87,-87,0,87,-43,-43,19,-68,-87,-87,-87,-48
-68,-68,0,68,-34,-34,19,-68,-78,-68,-73,-43
-63,-53,9,58,-36,-21,14,-73,-68,-53,-63,-39
-58,-39,19,48,-39,-9,9,-78,-63,-43,-53,-34
-68,-34,34,51,-51,0,4,-82,-58,-43,-48,-34
-78,-43,34,61,-56,-4,0,-82,-63,-48,-48,-34
-87,-53,34,70,-61,-9,-4,-82,-68,-48,-53,-39
-78,-53,24,65,-51,-14,-14,-78,-58,-39,-43,-43
-73,-39,34,56,-53,-2,-29,-87,-53,-39,-39,-43
-68,-24,43,46,-56,9,-43,-112,-48,-29,-34,-34
-53,0,53,26,-53,26,-63,-131,-39,-24,-29,-24
-24,29,53,-2,-39,41,-92,-151,-29,-9,-14,-4
9,63,53,-36,-21,58,-126,-170,-24,-4,0,4
9,63,53,-36,-21,58,-136,-170,-24,-4,0,9
0,53,53,-26,-26,53,-136,-175,-43,-14,-14,9
-9,43,53,-17,-31,48,-141,-185,-58,-24,-19,9
0,34,34,-17,-17,34,-151,-190,-73,-24,-24,9
39,53,14,-46,12,34,-165,-190,-73,-24,-19,14
78,92,14,-85,31,53,-170,-185,-58,-4,0,29
92,107,14,-100,39,61,-165,-180,-48,0,9,39
102,117,14,-109,43,65,-165,-180,-43,9,24,53
87,136,48,-112,19,92,-156,-161,-29,19,39,63
78,131,53,-104,12,92,-146,-151,-34,24,48,63
19,82,63,-51,-21,73,-87,-136,-48,-4,14,34
-24,29,53,-2,-39,41,-34,-122,-68,-29,-14,9
-39,-9,29,24,-34,9,-19,-117,-82,-43,-29,-9
-53,-48,4,51,-29,-21,-4,-107,-92,-58,-48,-29
-63,-73,-9,68,-26,-41,0,-97,-102,-68,-63,-43
-73,-97,-24,85,-24,-61,19,-87,-107,-78,-78,-58
-102,-126,-24,114,-39,-75,34,-78,-117,-92,-92,-73
-112,-136,-24,124,-43,-80,48,-78,-117,-92,-92,-73
-112,-136,-24,124,-43,-80,48,-78,-122,-92,-92,-73
-107,-136,-29,122,-39,-82,48,-78,-122,-97,-92,-78
-92,-131,-39,112,-26,-85,48,-73,-126,-92,-92,-78
-82,-126,-43,104,-19,-85,53,-68,-131,-92,-102,-78
-92,-126,-34,109,-29,-80,53,-68,-131,-97,-102,-82
-102,-126,-24,114,-39,-75,53,-68,-126,-97,-102,-87
-112,-141,-29,126,-41,-85,48,-68,-126,-102,-97,-87
-122,-156,-34,139,-43,-95,48,-73,-126,-112,-97,-92
-107,-151,-43,129,-31,-97,48,-73,-126,-112,-102,-92
-97,-136,-39,117,-29,-87,48,-78,-131,-117,-112,-92
-97,-141,-43,119,-26,-92,53,-78,-136,-122,-117,-92
-112,-141,-29,126,-41,-85,63,-78,-141,-122,-122,-92
-126,-146,-19,136,-53,-82,73,-68,-141,-126,-126,-107
-131,-151,-19,141,-56,-85,78,-43,-136,-122,-126,-112
-117,-156,-39,136,-39,-97,82,-24,-126,-122,-117,-117
-107,-146,-39,126,-34,-92,97,0,-63,-73,-87,-102
-92,-82,9,87,-51,-36,92,19,112,92,24,-34
-43,68,112,-12,-78,90,29,-19,351,341,219,92
78,273,195,-175,-58,234,-87,-34,653,673,492,283
283,483,200,-383,41,341,-244,14,956,1019,785,478
492,707,214,-600,139,461,-439,9,1166,1293,1034,678
668,951,283,-810,192,617,-702,-195,1317,1542,1273,878
834,1244,409,-1039,212,827,-1068,-605,1415,1810,1566,1137
824,1376,551,-1100,136,963,-1283,-1063,1268,1776,1615,1254
595,1161,566,-878,14,863,-1263,-1429,590,1171,1224,1068
292,668,375,-480,-41,522,-956,-1381,-190,326,570,634
-39,43,82,-2,-61,63,-531,-1137,-932,-448,-78,170
-180,-312,-131,246,-24,-222,-204,-800,-1112,-722,-390,-107
-209,-331,-122,270,-43,-226,-39,-488,-858,-629,-414,-180
-185,-292,-107,239,-39,-200,78,-190,-600,-468,-336,-175
-165,-234,-68,200,-48,-151,131,-29,-405,-331,-258,-161
-131,-175,-43,153,-43,-109,151,34,-248,-219,-200,-131
-97,-126,-29,112,-34,-78,146,43,-175,-161,-151,-97
-97,-102,-4,100,-46,-53,126,68,-131,-131,-131,-82
-112,-107,4,109,-58,-51,107,53,-122,-126,-122,-97
-126,-117,9,122,-68,-53,102,34,-112,-126,-122,-102
-107,-107,0,107,-53,-53,112,39,-102,-117,-117,-97
-92,-102,-9,97,-41,-56,122,48,-102,-112,-112,-97
-92,-102,-9,97,-41,-56,126,58,-87,-107,-112,-97
-92,-102,-9,97,-41,-56,126,58,-78,-107,-112,-97
-102,-102,0,102,-51,-51,126,58,-73,-102,-112,-97
-112,-102,9,107,-61,-46,126,58,-73,-102,-117,-97
-102,-102,0,102,-51,-51,126,73,-68,-97,-117,-97
-92,-97,-4,95,-43,-51,122,78,-68,-92,-117,-92
-87,-97,-9,92,-39,-53,122,78,-63,-92,-112,-92
-87,-97,-9,92,-39,-53,126,87,-58,-92,-112,-97
-107,-112,-4,109,-51,-58,131,97,-53,-92,-117,-97
-117,-126,-9,122,-53,-68,131,97,-48,-92,-117,-97
-102,-117,-14,109,-43,-65,126,102,-43,-92,-112,-97
-92,-107,-14,100,-39,-61,126,107,-39,-87,-107,-97
-87,-97,-9,92,-39,-53,136,107,-34,-87,-107,-97
-82,-87,-4,85,-39,-46,141,122,-24,-87,-107,-97
-78,-78,0,78,-39,-39,141,126,-9,-78,-102,-92
-73,-73,0,73,-36,-36,141,126,4,-73,-97,-92
-78,-78,0,78,-39,-39,141,136,9,-68,-102,-92
-82,-82,0,82,-41,-41,136,146,14,-68,-102,-92
-87,-87,0,87,-43,-43,131,151,19,-68,-102,-92
-87,-92,-4,90,-41,-48,126,156,24,-63,-97,-87
-78,-82,-4,80,-36,-43,131,165,39,-58,-97,-87
-63,-73,-9,68,-26,-41,131,175,58,-48,-82,-82
-53,-63,-9,58,-21,-36,131,185,68,-34,-78,-78
-48,-53,-4,51,-21,-29,136,195,78,-24,-68,-78
-43,-48,-4,46,-19,-26,136,200,92,-14,-68,-78
-39,-43,-4,41,-17,-24,131,214,107,-4,-63,-73
-39,-34,4,36,-21,-14,126,239,117,0,-58,-63
-34,-19,14,26,-24,-2,117,253,126,0,-53,-63
-19,-14,4,17,-12,-4,117,278,141,4,-43,-63
-9,0,9,4,-9,4,117,297,165,19,-39,-53
19,19,0,-19,9,9,122,317,175,34,-29,-43
39,34,-4,-36,21,14,122,351,185,39,-14,-34
53,43,-9,-48,31,17,122,385,195,43,-4,-29
63,58,-4,-61,34,26,122,409,204,53,-4,-24
78,58,-19,-68,48,19,107,434,214,58,4,-24
97,68,-29,-82,63,19,102,458,224,63,14,-19
117,78,-39,-97,78,19,97,478,234,73,24,-9
126,92,-34,-109,80,29,92,492,244,87,39,4
151,107,-43,-129,97,31,82,522,253,97,48,14
175,126,-48,-151,112,39,68,531,258,102,58,24
190,136,-53,-163,122,41,48,531,253,112,68,29
200,151,-48,-175,124,51,39,527,248,122,78,43
214,165,-48,-190,131,58,19,497,248,126,87,58
219,180,-39,-200,129,70,0,458,239,136,102,73
219,200,-19,-209,119,90,-19,419,244,146,117,92
219,214,-4,-217,112,104,-39,370,234,156,131,112
224,229,4,-226,109,117,-58,322,224,156,141,122
219,239,19,-229,100,129,-68,268,204,156,141,131
214,253,39,-234,87,146,-78,214,190,161,151,131
200,253,53,-226,73,153,-82,165,170,161,151,126
165,214,48,-190,58,131,-87,117,146,126,131,122
131,180,48,-156,41,114,-92,63,117,102,112,102
97,156,58,-126,19,107,-97,34,92,92,97,92
73,131,58,-102,7,95,-107,4,78,68,82,78
53,107,53,-80,0,80,-92,-14,48,53,58,58
43,102,58,-73,-7,80,-73,-39,29,39,39,48
34,82,48,-58,-7,65,-58,-48,9,24,24,34
19,63,43,-41,-12,53,-43,-53,-4,14,14,19
4,43,39,-24,-17,41,-34,-63,-14,0,-4,4
-9,19,29,-4,-19,24,-24,-78,-34,-19,-19,-14
-19,0,19,9,-19,9,-14,-78,-43,-19,-29,-24
-34,-14,19,24,-26,2,-9,-78,-53,-29,-43,-34
-48,-24,24,36,-36,0,0,-78,-53,-43,-53,-39
-63,-34,29,48,-46,-2,0,-78,-58,-48,-58,-48
-63,-43,19,53,-41,-12,0,-78,-78,-58,-68,-48
-73,-48,24,61,-48,-12,-4,-82,-82,-63,-68,-53
-78,-58,19,68,-48,-19,0,-92,-87,-63,-68,-53
-78,-58,19,68,-48,-19,0,-97,-92,-73,-73,-48
-73,-58,14,65,-43,-21,0,-97,-92,-73,-73,-48
-73,-58,14,65,-43,-21,4,-87,-92,-73,-68,-43
-63,-53,9,58,-36,-21,14,-82,-87,-68,-58,-43
-53,-48,4,51,-29,-21,19,-78,-87,-63,-53,-39
-48,-48,0,48,-24,-24,19,-78,-87,-63,-63,-43
-48,-48,0,48,-24,-24,19,-78,-92,-63,-73,-53
-73,-58,14,65,-43,-21,9,-78,-97,-73,-73,-63
-107,-73,34,90,-70,-19,0,-78,-97,-78,-78,-68
-97,-78,19,87,-58,-29,4,-78,-97,-82,-82,-73
-82,-78,4,80,-43,-36,14,-78,-97,-82,-82,-73
-68,-68,0,68,-34,-34,14,-73,-97,-82,-82,-68
-58,-58,0,58,-29,-29,19,-63,-97,-82,-82,-63
-58,-68,-9,63,-24,-39,19,-63,-97,-87,-82,-63
-58,-78,-19,68,-19,-48,19,-63,-97,-87,-82,-63
-73,-82,-9,78,-31,-46,19,-68,-97,-87,-82,-73
-87,-87,0,87,-43,-43,24,-68,-92,-87,-82,-78
-87,-87,0,87,-43,-43,34,-63,-92,-87,-82,-78
-87,-87,0,87,-43,-43,34,-63,-92,-82,-82,-78
-87,-82,4,85,-46,-39,24,-73,-92,-78,-78,-68
-78,-78,0,78,-39,-39,24,-73,-92,-73,-73,-58
-82,-82,0,82,-41,-41,29,-73,-92,-73,-73,-58
-82,-82,0,82,-41,-41,29,-63,-92,-73,-73,-58
-82,-82,0,82,-41,-41,29,-63,-92,-73,-78,-63
-87,-78,9,82,-48,-34,29,-63,-92,-78,-78,-68
-87,-78,9,82,-48,-34,29,-68,-92,-82,-82,-68
-92,-78,14,85,-53,-31,29,-68,-92,-87,-87,-68
-87,-73,14,80,-51,-29,29,-68,-92,-87,-87,-68
-82,-68,14,75,-48,-26,34,-63,-92,-87,-87,-68
-82,-68,14,75,-48,-26,39,-58,-92,-87,-87,-73
-82,-68,14,75,-48,-26,43,-53,-92,-82,-87,-73
-92,-78,14,85,-53,-31,43,-53,-87,-82,-92,-68
-102,-87,14,95,-58,-36,43,-53,-87,-82,-97,-68
-102,-87,14,95,-58,-36,39,-58,-92,-92,-102,-73
-102,-92,9,97,-56,-41,34,-63,-97,-97,-102,-73
-97,-87,9,92,-53,-39,34,-63,-102,-97,-97,-73
-87,-78,9,82,-48,-34,34,-63,-102,-97,-97,-73
-87,-73,14,80,-51,-29,39,-63,-102,-92,-97,-73
-82,-68,14,75,-48,-26,43,-63,-97,-92,-92,-78
-87,-78,9,82,-48,-34,39,-63,-97,-87,-87,-73
-92,-87,4,90,-48,-41,34,-68,-97,-82,-87,-73
-87,-82,4,85,-46,-39,34,-63,-97,-78,-87,-68
-87,-78,9,82,-48,-34,39,-58,-97,-78,-87,-68
-82,-68,14,75,-48,-26,39,-58,-87,-78,-87,-63
-78,-58,19,68,-48,-19,39,-58,-78,-78,-87,-58
-78,-53,24,65,-51,-14,29,-63,-78,-73,-87,-58
-78,-48,29,63,-53,-9,19,-68,-73,-63,-78,-53
-78,-43,34,61,-56,-4,14,-73,-68,-58,-73,-53
-78,-39,39,58,-58,0,9,-73,-68,-53,-63,-48
-68,-34,34,51,-51,0,14,-63,-68,-48,-63,-48
-48,-34,14,41,-31,-9,14,-53,-58,-39,-53,-48
-58,-29,29,43,-43,0,0,-68,-53,-43,-48,-48
-68,-29,39,48,-53,4,-19,-92,-48,-39,-43,-43
-53,-9,43,31,-48,17,-43,-112,-39,-34,-39,-34
-34,14,48,9,-41,31,-73,-131,-34,-19,-24,-14
4,63,58,-34,-26,61,-112,-156,-29,-14,-9,0
19,82,63,-51,-21,73,-126,-161,-24,-14,-9,4
0,63,63,-31,-31,63,-126,-165,-43,-29,-34,0
-9,53,63,-21,-36,58,-131,-175,-53,-43,-43,0
9,53,43,-31,-17,48,-141,-180,-68,-43,-34,0
34,63,29,-48,2,46,-151,-180,-73,-43,-19,4
58,92,34,-75,12,63,-156,-180,-58,-19,0,19
73,107,34,-90,19,70,-151,-175,-48,-9,4,29
102,131,29,-117,36,80,-151,-170,-43,0,14,48
97,146,48,-122,24,97,-131,-151,-34,4,19,53
78,122,43,-100,17,82,-112,-146,-39,14,29,48
19,73,53,-46,-17,63,-73,-136,-48,-4,4,24
-39,14,53,12,-46,34,-34,-122,-68,-29,-24,0
-58,-14,43,36,-51,14,-19,-117,-82,-43,-34,-14
-63,-39,24,51,-43,-7,4,-102,-92,-58,-48,-29
-73,-63,9,68,-41,-26,19,-87,-102,-68,-63,-43
-73,-87,-14,80,-29,-51,39,-73,-107,-82,-78,-63
-82,-112,-29,97,-26,-70,48,-58,-117,-102,-92,-82
-107,-146,-39,126,-34,-92,58,-58,-117,-112,-102,-92
-131,-175,-43,153,-43,-109,58,-58,-122,-122,-112,-102
-126,-151,-24,139,-51,-87,58,-73,-122,-117,-112,-107
-126,-131,-4,129,-61,-68,58,-87,-126,-107,-112,-107
-122,-136,-14,129,-53,-75,63,-78,-131,-112,-122,-102
-112,-136,-24,124,-43,-80,63,-68,-131,-117,-122,-97
-107,-136,-29,122,-39,-82,63,-68,-126,-122,-122,-97
-102,-136,-34,119,-34,-85,63,-63,-126,-122,-117,-97
-102,-136,-34,119,-34,-85,68,-63,-126,-122,-117,-102
-102,-146,-43,124,-29,-95,68,-63,-126,-122,-117,-102
-112,-146,-34,129,-39,-90,68,-68,-131,-126,-122,-102
-117,-151,-34,134,-41,-92,68,-68,-131,-131,-126,-102
-131,-161,-29,146,-51,-95,73,-68,-131,-131,-131,-102
-131,-170,-39,151,-46,-104,82,-58,-126,-131,-131,-112
-122,-175,-53,148,-34,-114,87,-34,-141,-141,-141,-117
-107,-175,-68,141,-19,-122,87,-14,-122,-122,-122,-112
-107,-195,-87,151,-9,-141,126,29,-87,-107,-117,-117
-73,-126,-53,100,-9,-90,122,48,43,24,-9,-48
-43,34,78,4,-61,56,53,-24,263,263,185,78
53,214,161,-134,-53,187,-63,-68,502,531,414,248
302,434,131,-368,85,283,-214,43,814,878,707,448
507,658,151,-583,178,405,-400,39,1015,1137,946,639
732,961,229,-846,251,595,-697,-175,1254,1468,1259,888
873,1205,331,-1039,270,768,-980,-478,1342,1673,1483,1088
839,1424,585,-1132,126,1005,-1263,-1078,1259,1722,1595,1259
649,1298,649,-973,0,973,-1322,-1473,785,1342,1356,1161
239,639,400,-439,-80,519,-941,-1390,-146,317,531,600
-92,68,161,12,-126,114,-575,-1244,-834,-419,-92,156
-214,-312,-97,263,-58,-204,-204,-854,-971,-644,-375,-131
-278,-448,-170,363,-53,-309,14,-541,-893,-678,-478,-258
-234,-390,-156,312,-39,-273,136,-180,-629,-507,-375,-224
-214,-331,-117,273,-48,-224,209,43,-439,-385,-297,-204
-161,-263,-102,212,-29,-183,209,102,-283,-263,-224,-161
-107,-204,-97,156,-4,-151,204,131,-195,-185,-161,-117
-107,-175,-68,141,-19,-122,180,161,-146,-151,-141,-102
-107,-161,-53,134,-26,-107,156,156,-122,-136,-131,-112
-102,-151,-48,126,-26,-100,146,122,-107,-136,-131,-112
-92,-146,-53,119,-19,-100,141,112,-92,-131,-131,-107
-82,-146,-63,114,-9,-104,141,117,-87,-126,-126,-107
-73,-141,-68,107,-2,-104,146,126,-73,-117,-122,-107
-82,-141,-58,112,-12,-100,146,122,-68,-112,-122,-107
-87,-136,-48,112,-19,-92,146,117,-63,-102,-117,-107
-82,-131,-48,107,-17,-90,146,117,-63,-102,-112,-107
-82,-131,-48,107,-17,-90,146,126,-58,-97,-107,-107
-82,-131,-48,107,-17,-90,136,126,-58,-92,-107,-97
-78,-136,-58,107,-9,-97,131,126,-53,-92,-102,-92
-78,-136,-58,107,-9,-97,136,136,-48,-92,-102,-97
-78,-136,-58,107,-9,-97,141,146,-43,-92,-107,-97
-68,-136,-68,102,0,-102,141,151,-39,-92,-107,-97
-68,-136,-68,102,0,-102,136,161,-34,-92,-107,-97
-73,-136,-63,104,-4,-100,136,165,-39,-92,-107,-97
-73,-136,-63,104,-4,-100,141,165,-43,-97,-107,-97
-68,-131,-63,100,-2,-97,146,180,-34,-102,-112,-102
-58,-117,-58,87,0,-87,151,185,-24,-97,-112,-102
-53,-112,-58,82,2,-85,151,185,-14,-92,-117,-102
-53,-112,-58,82,2,-85,151,195,-9,-87,-126,-102
-53,-126,-73,90,9,-100,146,204,-4,-87,-112,-97
-53,-136,-82,95,14,-109,146,214,4,-82,-102,-92
-53,-131,-78,92,12,-104,141,224,9,-68,-92,-87
-48,-122,-73,85,12,-97,141,234,19,-58,-87,-87
-34,-107,-73,70,19,-90,141,244,34,-48,-73,-82
-29,-102,-73,65,21,-87,136,253,39,-43,-73,-78
-29,-102,-73,65,21,-87,136,268,48,-53,-73,-78
-24,-97,-73,61,24,-85,136,278,58,-53,-78,-78
-19,-92,-73,56,26,-82,131,292,68,-43,-73,-78
-14,-82,-68,48,26,-75,131,317,78,-34,-68,-73
0,-68,-68,34,34,-68,126,322,82,-29,-68,-73
19,-63,-82,21,51,-73,126,336,92,-24,-63,-73
29,-48,-78,9,53,-63,126,366,117,-9,-58,-63
48,-34,-82,-7,65,-58,126,390,122,0,-53,-58
58,-24,-82,-17,70,-53,126,419,126,0,-43,-58
73,-14,-87,-29,80,-51,126,448,136,4,-34,-58
82,-4,-87,-39,85,-46,122,468,146,14,-34,-53
102,-4,-107,-48,104,-56,107,488,156,19,-24,-48
117,9,-107,-63,112,-48,102,507,165,24,-14,-39
126,19,-107,-73,117,-43,97,522,175,34,-4,-29
156,43,-112,-100,134,-34,92,536,185,48,9,-14
195,68,-126,-131,161,-29,82,561,195,58,19,-4
204,73,-131,-139,168,-29,68,561,200,58,19,0
209,73,-136,-141,173,-31,48,561,200,63,24,4
219,92,-126,-156,173,-17,34,566,200,68,39,24
229,107,-122,-168,175,-7,9,546,200,68,48,39
234,126,-107,-180,170,9,-9,507,195,78,68,58
239,151,-87,-195,163,31,-29,458,200,87,87,78
239,170,-68,-204,153,51,-48,400,195,107,102,92
239,190,-48,-214,143,70,-68,351,195,117,112,102
239,204,-34,-222,136,85,-78,297,185,122,117,122
234,209,-24,-222,129,92,-87,244,180,122,122,131
209,204,-4,-207,107,100,-92,185,165,122,126,131
185,195,9,-190,87,102,-92,141,151,117,131,131
161,185,24,-173,68,104,-102,97,126,117,126,112
136,165,29,-151,53,97,-102,63,102,112,117,102
117,141,24,-129,46,82,-97,24,92,87,102,87
82,107,24,-95,29,65,-92,0,68,68,78,68
63,92,29,-78,17,61,-78,-19,48,48,53,63
53,73,19,-63,17,46,-63,-29,29,34,34,53
39,63,24,-51,7,43,-53,-34,14,24,24,39
24,53,29,-39,-2,41,-43,-39,4,9,9,29
9,19,9,-14,0,14,-34,-53,-14,-9,0,14
0,-4,-4,2,2,-4,-24,-58,-24,-9,-9,4
-29,-24,4,26,-17,-9,-19,-58,-39,-19,-24,-4
-48,-43,4,46,-26,-19,-9,-58,-43,-34,-34,-9
-39,-53,-14,46,-12,-34,-9,-58,-48,-43,-39,-24
-24,-63,-39,43,7,-51,-4,-58,-63,-53,-48,-29
-43,-68,-24,56,-9,-46,-4,-68,-63,-53,-48,-34
-58,-78,-19,68,-19,-48,0,-78,-68,-53,-48,-39
-58,-78,-19,68,-19,-48,0,-78,-73,-63,-53,-39
-53,-78,-24,65,-14,-51,0,-78,-73,-63,-53,-39
-53,-78,-24,65,-14,-51,4,-68,-73,-63,-48,-34
-53,-78,-24,65,-14,-51,9,-68,-68,-63,-48,-34
-53,-73,-19,63,-17,-46,9,-73,-68,-63,-58,-34
-48,-68,-19,58,-14,-43,9,-78,-68,-63,-63,-39
-48,-68,-19,58,-14,-43,9,-78,-78,-73,-78,-43
-48,-68,-19,58,-14,-43,9,-78,-87,-87,-92,-48
-53,-68,-14,61,-19,-41,14,-73,-87,-78,-82,-48
-53,-68,-14,61,-19,-41,14,-68,-87,-73,-73,-53
-43,-58,-14,51,-14,-36,14,-68,-78,-73,-63,-53
-29,-48,-19,39,-4,-34,14,-68,-68,-73,-53,-53
-43,-68,-24,56,-9,-46,14,-63,-78,-78,-68,-53
-58,-87,-29,73,-14,-58,9,-63,-87,-87,-82,-53
-58,-87,-29,73,-14,-58,9,-63,-87,-87,-82,-53
-58,-87,-29,73,-14,-58,9,-63,-87,-87,-82,-58
-43,-68,-24,56,-9,-46,14,-58,-82,-82,-73,-48
-29,-48,-19,39,-4,-34,24,-53,-82,-78,-63,-39
-39,-63,-24,51,-7,-43,24,-53,-82,-73,-63,-48
-58,-78,-19,68,-19,-48,14,-63,-82,-73,-63,-58
-63,-78,-14,70,-24,-46,14,-63,-82,-73,-68,-58
-73,-82,-9,78,-31,-46,19,-63,-82,-73,-73,-58
-73,-78,-4,75,-34,-41,19,-53,-82,-78,-73,-58
-68,-73,-4,70,-31,-39,19,-53,-82,-82,-78,-58
-58,-63,-4,61,-26,-34,19,-53,-87,-87,-78,-53
-48,-58,-9,53,-19,-34,19,-58,-92,-87,-78,-48
-53,-58,-4,56,-24,-31,19,-58,-92,-87,-82,-48
-53,-58,-4,56,-24,-31,19,-58,-92,-87,-87,-48
-58,-58,0,58,-29,-29,24,-53,-92,-87,-87,-53
-63,-58,4,61,-34,-26,24,-53,-92,-87,-87,-63
-63,-53,9,58,-36,-21,24,-53,-87,-82,-87,-68
-63,-48,14,56,-39,-17,24,-53,-78,-82,-87,-68
-63,-48,14,56,-39,-17,24,-53,-78,-87,-87,-68
-63,-48,14,56,-39,-17,24,-53,-82,-97,-92,-73
-63,-53,9,58,-36,-21,19,-53,-92,-97,-92,-73
-68,-58,9,63,-39,-24,14,-53,-97,-97,-87,-73
-68,-68,0,68,-34,-34,14,-58,-92,-97,-87,-73
-68,-73,-4,70,-31,-39,14,-63,-92,-92,-87,-68
-63,-68,-4,65,-29,-36,14,-63,-87,-92,-82,-68
-63,-63,0,63,-31,-31,14,-63,-82,-87,-78,-68
-53,-53,0,53,-26,-26,9,-63,-82,-82,-78,-63
-48,-48,0,48,-24,-24,9,-68,-87,-78,-78,-58
-58,-48,9,53,-34,-19,9,-68,-87,-78,-78,-58
-68,-48,19,58,-43,-14,9,-68,-87,-78,-78,-58
-53,-39,14,46,-34,-12,9,-68,-78,-78,-73,-58
-43,-29,14,36,-29,-7,4,-68,-68,-73,-68,-53
-39,-19,19,29,-29,0,4,-68,-63,-73,-63,-48
-39,-14,24,26,-31,4,4,-63,-58,-73,-58,-43
-43,-9,34,26,-39,12,0,-63,-58,-73,-58,-39
-48,-4,43,26,-46,19,-4,-63,-58,-68,-63,-39
-39,-4,34,21,-36,14,-14,-63,-48,-58,-53,-39
-34,9,43,12,-39,26,-29,-78,-43,-58,-48,-34
-24,24,48,0,-36,36,-48,-102,-39,-43,-39,-24
-4,48,53,-21,-29,51,-73,-122,-29,-34,-29,-14
24,78,53,-51,-14,65,-102,-141,-19,-14,-14,4
58,112,53,-85,2,82,-136,-161,-14,-4,0,14
48,112,63,-80,-7,87,-146,-165,-14,-4,0,14
29,102,73,-65,-21,87,-146,-175,-34,-14,-14,9
24,97,73,-61,-24,85,-156,-190,-53,-29,-19,9
39,92,53,-65,-7,73,-170,-200,-73,-34,-24,9
63,102,39,-82,12,70,-180,-200,-73,-34,-19,14
87,131,43,-109,21,87,-180,-195,-58,-14,0,29
102,146,43,-124,29,95,-170,-185,-48,-14,4,39
112,156,43,-134,34,100,-165,-180,-43,-9,14,53
78,156,78,-117,0,117,-141,-156,-34,-4,24,53
48,131,82,-90,-17,107,-117,-141,-43,-4,29,43
0,82,82,-41,-41,82,-73,-126,-58,-34,-4,14
-34,29,63,2,-48,46,-34,-112,-78,-58,-34,-9
-39,0,39,19,-39,19,-19,-107,-92,-73,-43,-24
-43,-29,14,36,-29,-7,-4,-97,-102,-87,-58,-39
-48,-53,-4,51,-21,-29,0,-87,-112,-92,-68,-53
-53,-78,-24,65,-14,-51,19,-78,-117,-97,-78,-68
-63,-82,-19,73,-21,-51,39,-68,-126,-112,-92,-82
-53,-68,-14,61,-19,-41,58,-68,-126,-112,-92,-82
-78,-87,-9,82,-34,-48,43,-78,-136,-126,-112,-92
-97,-107,-9,102,-43,-58,29,-87,-141,-146,-131,-107
-97,-112,-14,104,-41,-63,29,-87,-146,-136,-122,-107
-102,-117,-14,109,-43,-65,34,-87,-151,-131,-122,-107
-97,-107,-9,102,-43,-58,34,-87,-151,-136,-122,-107
-92,-97,-4,95,-43,-51,34,-87,-146,-136,-122,-107
-87,-97,-9,92,-39,-53,34,-78,-146,-131,-117,-102
-82,-97,-14,90,-34,-56,39,-73,-146,-131,-117,-102
-73,-107,-34,90,-19,-70,48,-73,-146,-131,-112,-102
-68,-107,-39,87,-14,-73,58,-78,-151,-136,-112,-102
-78,-126,-48,102,-14,-87,43,-78,-151,-141,-117,-112
-102,-141,-39,122,-31,-90,34,-78,-151,-141,-122,-122
-102,-126,-24,114,-39,-75,53,-63,-131,-131,-117,-122
-92,-112,-19,102,-36,-65,68,-34,-107,-112,-107,-112
-68,-97,-29,82,-19,-63,68,-14,-63,-73,-68,-92
-48,-68,-19,58,-14,-43,78,9,34,14,-9,-53
4,43,39,-24,-17,41,29,4,219,219,146,48
92,244,151,-168,-29,197,-78,-58,468,507,385,209
253,483,229,-368,12,356,-219,-87,746,824,663,424
497,727,229,-612,134,478,-400,-53,1024,1156,961,644
653,936,283,-795,185,610,-605,-136,1190,1400,1200,834
775,1166,390,-971,192,778,-878,-419,1298,1620,1429,1024
839,1342,502,-1090,168,922,-1132,-785,1234,1688,1551,1161
727,1356,629,-1041,48,993,-1234,-1200,927,1454,1429,1156
424,1000,575,-712,-75,788,-1122,-1415,258,814,941,868
48,366,317,-207,-134,341,-722,-1215,-512,-63,190,331
-190,-146,43,168,-117,-51,-341,-951,-1034,-649,-307,-48
-239,-390,-151,314,-43,-270,-58,-595,-995,-732,-468,-244
-234,-390,-156,312,-39,-273,73,-312,-766,-629,-468,-283
-175,-331,-156,253,-9,-244,156,-43,-531,-458,-366,-244
-151,-253,-102,202,-24,-178,180,82,-366,-336,-273,-214
-112,-175,-63,143,-24,-119,170,112,-239,-239,-200,-170
-78,-126,-48,102,-14,-87,165,112,-175,-175,-151,-131
-78,-102,-24,90,-26,-63,146,126,-141,-141,-131,-112
-73,-92,-19,82,-26,-56,122,102,-126,-136,-122,-122
-68,-87,-19,78,-24,-53,112,73,-112,-136,-122,-122
-63,-87,-24,75,-19,-56,112,73,-102,-131,-122,-117
-63,-92,-29,78,-17,-61,112,78,-102,-131,-122,-117
-63,-92,-29,78,-17,-61,117,87,-92,-126,-122,-117
-63,-92,-29,78,-17,-61,117,87,-87,-126,-122,-117
-58,-87,-29,73,-14,-58,117,87,-82,-122,-117,-117
-53,-82,-29,68,-12,-56,117,87,-82,-122,-117,-117
-53,-73,-19,63,-17,-46,112,97,-78,-126,-117,-117
-53,-58,-4,56,-24,-31,102,97,-78,-131,-117,-112
-63,-68,-4,65,-29,-36,102,97,-73,-122,-112,-112
-78,-78,0,78,-39,-39,107,107,-68,-112,-112,-117
-68,-78,-9,73,-29,-43,112,117,-63,-112,-117,-117
-48,-78,-29,63,-9,-53,112,117,-58,-112,-117,-117
-43,-78,-34,61,-4,-56,112,122,-53,-117,-122,-117
-43,-78,-34,61,-4,-56,117,126,-48,-117,-126,-117
-43,-82,-39,63,-2,-61,122,126,-48,-117,-126,-122
-43,-87,-43,65,0,-65,122,141,-43,-117,-126,-126
-39,-78,-39,58,0,-58,122,146,-34,-107,-122,-122
-34,-73,-39,53,2,-56,122,146,-24,-102,-117,-122
-34,-73,-39,53,2,-56,122,156,-14,-97,-117,-122
-34,-73,-39,53,2,-56,117,165,-4,-97,-112,-122
-29,-63,-34,46,2,-48,117,175,4,-92,-107,-117
-19,-53,-34,36,7,-43,117,185,14,-82,-97,-107
-9,-43,-34,26,12,-39,122,195,24,-78,-97,-107
4,-34,-39,14,21,-36,122,204,39,-68,-82,-102
4,-34,-39,14,21,-36,117,214,43,-63,-87,-97
0,-34,-34,17,17,-34,117,224,48,-63,-87,-97
4,-29,-34,12,19,-31,117,229,58,-58,-87,-97
9,-24,-34,7,21,-29,112,244,68,-53,-82,-92
14,-14,-29,0,21,-21,112,268,73,-43,-78,-82
24,0,-24,-12,24,-12,107,283,78,-39,-73,-82
34,4,-29,-19,31,-12,102,307,92,-34,-63,-87
39,19,-19,-29,29,0,97,326,117,-19,-58,-82
58,29,-29,-43,43,0,97,341,122,-9,-53,-78
68,34,-34,-51,51,0,92,370,126,-9,-43,-73
87,43,-43,-65,65,0,92,400,141,-4,-34,-68
102,58,-43,-80,73,7,92,419,156,4,-34,-63
122,63,-58,-92,90,2,78,439,165,9,-24,-58
146,78,-68,-112,107,4,73,458,175,14,-14,-48
165,87,-78,-126,122,4,68,473,185,29,-4,-39
175,102,-73,-139,124,14,63,483,195,48,9,-24
195,117,-78,-156,136,19,58,502,209,58,19,-14
214,136,-78,-175,146,29,48,502,219,63,29,-4
229,151,-78,-190,153,36,29,497,219,73,43,9
239,170,-68,-204,153,51,19,488,219,82,58,34
248,185,-63,-217,156,61,0,458,224,87,73,48
248,200,-48,-224,148,75,-19,419,219,97,92,63
248,219,-29,-234,139,95,-39,380,219,107,107,78
248,234,-14,-241,131,109,-58,331,204,117,122,92
248,248,0,-248,124,124,-82,273,195,117,131,102
239,258,19,-248,109,139,-97,209,175,117,131,112
209,248,39,-229,85,143,-107,156,161,112,131,112
170,224,53,-197,58,139,-112,107,141,102,122,107
146,204,58,-175,43,131,-112,73,122,87,112,102
122,190,68,-156,26,129,-112,34,97,82,102,82
107,175,68,-141,19,122,-97,4,78,73,87,73
102,161,58,-131,21,109,-87,-24,68,48,73,58
73,126,53,-100,9,90,-82,-39,39,29,48,39
53,112,58,-82,-2,85,-73,-58,19,9,29,29
39,92,53,-65,-7,73,-63,-68,-4,-9,14,14
19,73,53,-46,-17,63,-53,-73,-24,-24,4,0
4,53,48,-29,-21,51,-43,-73,-34,-39,-9,-9
-9,29,39,-9,-24,34,-34,-78,-53,-58,-19,-24
-9,14,24,-2,-17,19,-24,-78,-63,-53,-29,-34
-14,4,19,4,-17,12,-19,-78,-73,-58,-43,-43
-19,-4,14,12,-17,4,-9,-78,-73,-73,-53,-48
-24,-14,9,19,-17,-2,-9,-78,-78,-78,-58,-58
-29,-24,4,26,-17,-9,-4,-82,-92,-82,-68,-58
-43,-29,14,36,-29,-7,-4,-92,-92,-82,-68,-63
-48,-39,9,43,-29,-14,0,-97,-97,-82,-68,-68
-48,-39,9,43,-29,-14,0,-97,-102,-92,-73,-68
-43,-39,4,41,-24,-17,-4,-97,-102,-92,-78,-73
-43,-39,4,41,-24,-17,-4,-87,-102,-92,-78,-73
-48,-53,-4,51,-21,-29,0,-87,-97,-92,-78,-73
-53,-68,-14,61,-19,-41,0,-87,-97,-92,-82,-68
-48,-53,-4,51,-21,-29,0,-87,-97,-92,-82,-68
-48,-39,9,43,-29,-14,0,-87,-102,-92,-82,-73
-48,-39,9,43,-29,-14,4,-87,-107,-97,-82,-78
-58,-43,14,51,-36,-14,9,-87,-107,-97,-87,-78
-63,-48,14,56,-39,-17,4,-82,-107,-102,-92,-82
-63,-48,14,56,-39,-17,4,-78,-107,-102,-92,-82
-58,-48,9,53,-34,-19,4,-78,-107,-102,-92,-82
-58,-48,9,53,-34,-19,9,-73,-107,-102,-92,-82
-53,-48,4,51,-29,-21,9,-73,-107,-107,-92,-82
-48,-48,0,48,-24,-24,9,-73,-107,-107,-92,-82
-48,-48,0,48,-24,-24,9,-73,-107,-107,-92,-87
-48,-48,0,48,-24,-24,14,-68,-102,-107,-92,-87
-48,-58,-9,53,-19,-34,24,-63,-107,-107,-92,-87
-48,-68,-19,58,-14,-43,24,-63,-112,-102,-92,-87
-58,-58,0,58,-29,-29,14,-73,-112,-102,-92,-87
-58,-48,9,53,-34,-19,14,-73,-112,-102,-92,-87
-63,-53,9,58,-36,-21,19,-73,-107,-102,-92,-87
-63,-53,9,58,-36,-21,19,-63,-102,-102,-92,-87
-63,-58,4,61,-34,-26,19,-63,-102,-102,-97,-87
-68,-58,9,63,-39,-24,19,-63,-102,-107,-97,-87
-68,-58,9,63,-39,-24,14,-73,-107,-107,-102,-87
-73,-58,14,65,-43,-21,9,-78,-112,-107,-107,-87
-73,-58,14,65,-43,-21,9,-78,-112,-107,-107,-87
-73,-58,14,65,-43,-21,14,-73,-112,-107,-107,-87
-73,-58,14,65,-43,-21,14,-68,-107,-107,-107,-92
-73,-58,14,65,-43,-21,14,-63,-102,-102,-107,-92
-73,-58,14,65,-43,-21,19,-63,-97,-102,-97,-87
-73,-58,14,65,-43,-21,24,-63,-97,-102,-87,-87
-73,-58,14,65,-43,-21,24,-63,-102,-107,-92,-92
-73,-63,9,68,-41,-26,24,-63,-107,-107,-92,-92
-78,-68,9,73,-43,-29,24,-63,-107,-107,-92,-92
-78,-68,9,73,-43,-29,24,-63,-102,-107,-97,-92
-78,-68,9,73,-43,-29,24,-63,-107,-107,-97,-87
-73,-68,4,70,-39,-31,24,-63,-107,-112,-92,-87
-68,-68,0,68,-34,-34,29,-58,-102,-107,-92,-82
-63,-68,-4,65,-29,-36,34,-58,-97,-102,-97,-82
-63,-63,0,63,-31,-31,29,-58,-97,-97,-97,-82
-68,-58,9,63,-39,-24,29,-58,-97,-97,-97,-87
-78,-58,19,68,-48,-19,24,-63,-97,-92,-92,-87
-87,-58,29,73,-58,-14,19,-68,-97,-87,-87,-87
-87,-48,39,68,-63,-4,19,-68,-92,-87,-87,-87
-78,-39,39,58,-58,0,14,-68,-82,-82,-82,-82
-73,-29,43,51,-58,7,14,-68,-78,-82,-82,-78
-58,-19,39,39,-48,9,9,-63,-78,-82,-82,-68
-58,-14,43,36,-51,14,4,-63,-78,-82,-82,-68
-48,-14,34,31,-41,9,-4,-63,-68,-78,-73,-68
-43,0,43,21,-43,21,-19,-78,-63,-78,-68,-63
-39,9,48,14,-43,29,-39,-102,-58,-68,-63,-53
-29,29,58,0,-43,43,-63,-122,-48,-63,-58,-43
-14,53,68,-19,-41,61,-92,-141,-43,-48,-43,-24
9,82,73,-46,-31,78,-126,-165,-43,-43,-29,-14
9,82,73,-46,-31,78,-136,-170,-43,-43,-29,-14
0,73,73,-36,-36,73,-136,-175,-63,-48,-43,-19
0,73,73,-36,-36,73,-141,-185,-73,-53,-43,-19
29,82,53,-56,-12,68,-151,-190,-82,-53,-43,-19
63,102,39,-82,12,70,-161,-190,-82,-53,-39,-14
73,122,48,-97,12,85,-165,-185,-68,-34,-19,0
73,126,53,-100,9,90,-161,-175,-58,-29,-14,9
82,136,53,-109,14,95,-165,-175,-53,-19,-4,29
58,136,78,-97,-9,107,-151,-161,-43,-14,0,34
43,117,73,-80,-14,95,-126,-151,-53,-14,4,24
-9,73,82,-31,-46,78,-82,-136,-68,-43,-24,-4
-53,19,73,17,-63,46,-34,-117,-82,-58,-53,-29
-58,-4,53,31,-56,24,-9,-107,-92,-63,-63,-43
-53,-29,24,41,-39,-2,4,-97,-102,-78,-68,-58
-53,-53,0,53,-26,-26,9,-87,-112,-87,-73,-73
-73,-97,-24,85,-24,-61,29,-78,-122,-102,-97,-92
-102,-141,-39,122,-31,-90,39,-68,-136,-122,-122,-112
-102,-136,-34,119,-34,-85,48,-68,-136,-122,-122,-112
-102,-126,-24,114,-39,-75,48,-68,-141,-122,-122,-112
-97,-122,-24,109,-36,-73,48,-68,-141,-126,-122,-117
-97,-122,-24,109,-36,-73,48,-68,-146,-126,-122,-117
-102,-126,-24,114,-39,-75,53,-63,-151,-131,-131,-117
-102,-126,-24,114,-39,-75,53,-58,-151,-136,-131,-117
-92,-126,-34,109,-29,-80,63,-58,-146,-136,-131,-117
-82,-126,-43,104,-19,-85,73,-53,-146,-131,-126,-117
-92,-136,-43,114,-24,-90,63,-58,-146,-136,-126,-122
-102,-156,-53,129,-24,-104,48,-63,-146,-141,-126,-122
-107,-156,-48,131,-29,-102,48,-68,-151,-146,-131,-122
-107,-161,-53,134,-26,-107,48,-68,-151,-151,-136,-122
-126,-161,-34,143,-46,-97,53,-68,-151,-151,-146,-122
-131,-161,-29,146,-51,-95,63,-58,-146,-151,-151,-131
-122,-161,-39,141,-41,-100,78,-34,-146,-151,-151,-136
-107,-156,-48,131,-29,-102,87,-14,-112,-122,-122,-131
-102,-146,-43,124,-29,-95,102,19,-39,-58,-87,-117
-63,-48,14,56,-39,-17,73,29,131,122,48,-29
4,146,141,-75,-68,143,-4,-43,390,409,283,131
141,361,219,-251,-39,290,-131,-87,668,727,551,336
370,570,200,-470,85,385,-307,-19,971,1073,844,546
556,785,229,-671,163,507,-517,-68,1161,1332,1083,746
727,1058,331,-893,197,695,-800,-317,1327,1629,1376,976
814,1273,458,-1044,178,866,-1068,-653,1342,1800,1581,1156
761,1390,629,-1076,65,1010,-1259,-1151,1117,1678,1566,1244
551,1161,610,-856,-29,885,-1224,-1444,502,1127,1200,1063
170,512,341,-341,-85,427,-819,-1278,-380,126,390,502
-131,-48,82,90,-107,17,-429,-1049,-1019,-585,-219,58
-209,-341,-131,275,-39,-236,-117,-678,-1044,-722,-434,-180
-229,-390,-161,309,-34,-275,43,-385,-854,-668,-468,-258
-185,-331,-146,258,-19,-239,131,-87,-590,-488,-366,-224
-165,-273,-107,219,-29,-190,170,73,-400,-356,-287,-204
-136,-219,-82,178,-26,-151,170,102,-253,-253,-224,-170
-107,-175,-68,141,-19,-122,165,102,-175,-195,-170,-136
-107,-151,-43,129,-31,-97,146,117,-131,-156,-151,-117
-107,-141,-34,124,-36,-87,126,97,-112,-136,-141,-122
-102,-131,-29,117,-36,-80,122,73,-102,-136,-141,-122
-92,-126,-34,109,-29,-80,122,73,-92,-131,-141,-117
-92,-131,-39,112,-26,-85,122,78,-92,-131,-141,-117
-92,-131,-39,112,-26,-85,126,87,-82,-126,-141,-117
-92,-131,-39,112,-26,-85,126,87,-78,-126,-141,-117
-87,-126,-39,107,-24,-82,126,87,-73,-122,-136,-117
-82,-122,-39,102,-21,-80,126,87,-73,-122,-131,-117
-82,-122,-39,102,-21,-80,126,97,-68,-117,-126,-117
-82,-117,-34,100,-24,-75,122,97,-63,-112,-126,-112
-78,-117,-39,97,-19,-78,122,97,-53,-112,-122,-112
-73,-107,-34,90,-19,-70,131,112,-43,-102,-117,-112
-68,-97,-29,82,-19,-63,141,126,-34,-92,-117,-107
-58,-87,-29,73,-14,-58,141,126,-29,-92,-117,-107
-58,-78,-19,68,-19,-48,136,131,-24,-92,-117,-107
-63,-97,-34,80,-14,-65,131,131,-24,-97,-126,-107
-63,-117,-53,90,-4,-85,131,126,-24,-107,-136,-107
-78,-126,-48,102,-14,-87,131,141,-14,-107,-136,-112
-87,-126,-39,107,-24,-82,131,146,-4,-97,-131,-112
-73,-112,-39,92,-17,-75,131,146,4,-87,-112,-112
-63,-102,-39,82,-12,-70,131,156,9,-78,-97,-112
-63,-102,-39,82,-12,-70,126,161,14,-78,-102,-112
-63,-97,-34,80,-14,-65,126,165,24,-73,-112,-112
-58,-92,-34,75,-12,-63,126,165,29,-73,-107,-107
-48,-82,-34,65,-7,-58,131,165,39,-78,-107,-107
-34,-63,-29,48,-2,-46,131,185,58,-58,-92,-97
-29,-53,-24,41,-2,-39,126,204,68,-43,-92,-87
-29,-53,-24,41,-2,-39,126,214,82,-39,-82,-87
-24,-48,-24,36,0,-36,126,219,97,-24,-78,-87
-19,-53,-34,36,7,-43,126,234,107,-14,-73,-82
-14,-53,-39,34,12,-46,131,258,117,-4,-68,-73
-4,-39,-34,21,14,-36,126,273,131,0,-58,-73
9,-34,-43,12,26,-39,126,297,151,4,-43,-73
19,-19,-39,0,29,-29,122,317,175,19,-39,-63
39,-4,-43,-17,41,-24,117,331,180,29,-34,-58
48,4,-43,-26,46,-19,112,356,185,34,-24,-48
63,14,-48,-39,56,-17,107,380,195,43,-14,-39
73,39,-34,-56,53,2,102,400,209,53,-14,-34
92,53,-39,-73,65,7,87,419,224,58,-4,-29
122,68,-53,-95,87,7,82,444,234,63,4,-19
146,78,-68,-112,107,4,78,463,244,73,14,-9
156,82,-73,-119,114,4,73,473,253,82,29,4
175,87,-87,-131,131,0,63,492,263,87,39,14
180,97,-82,-139,131,7,53,492,268,92,48,19
180,102,-78,-141,129,12,39,492,268,102,63,24
204,131,-73,-168,139,29,29,497,273,117,82,43
229,156,-73,-192,151,41,9,478,278,126,97,58
229,170,-58,-200,143,56,-9,439,268,136,112,78
229,190,-39,-209,134,75,-29,390,268,146,126,97
229,209,-19,-219,124,95,-48,331,253,156,141,112
229,229,0,-229,114,114,-68,283,244,156,151,122
219,239,19,-229,100,129,-78,229,224,156,151,136
204,239,34,-222,85,136,-87,175,209,151,151,141
185,224,39,-204,73,131,-92,126,185,141,141,136
165,204,39,-185,63,122,-92,92,161,126,131,131
141,190,48,-165,46,119,-92,53,136,122,122,112
117,165,48,-141,34,107,-82,24,112,112,107,102
102,141,39,-122,31,90,-78,-9,97,87,87,87
73,107,34,-90,19,70,-73,-29,68,68,58,68
43,87,43,-65,0,65,-63,-48,48,48,39,53
24,63,39,-43,-7,51,-53,-58,29,34,24,34
9,43,34,-26,-12,39,-39,-63,9,24,14,19
-4,24,29,-9,-17,26,-24,-68,-4,9,0,9
-4,9,14,-2,-9,12,-14,-73,-24,-9,-4,0
0,4,4,-2,-2,4,-4,-68,-34,-9,-9,-4
-14,-4,9,9,-12,2,0,-68,-48,-19,-24,-14
-19,-14,4,17,-12,-4,9,-68,-53,-34,-34,-19
-48,-39,9,43,-29,-14,4,-73,-58,-48,-43,-34
-73,-63,9,68,-41,-26,4,-78,-73,-63,-58,-39
-73,-68,4,70,-39,-31,4,-82,-73,-63,-63,-43
-68,-78,-9,73,-29,-43,9,-87,-78,-63,-68,-48
-68,-78,-9,73,-29,-43,9,-82,-82,-73,-73,-53
-63,-78,-14,70,-24,-46,9,-78,-82,-73,-73,-58
-63,-78,-14,70,-24,-46,14,-68,-82,-68,-68,-53
-63,-78,-14,70,-24,-46,19,-68,-78,-63,-68,-53
-63,-78,-14,70,-24,-46,19,-68,-78,-63,-73,-48
-58,-78,-19,68,-19,-48,19,-68,-78,-63,-73,-48
-53,-78,-24,65,-14,-51,19,-68,-82,-63,-73,-53
-48,-78,-29,63,-9,-53,19,-68,-87,-68,-73,-58
-53,-78,-24,65,-14,-51,24,-68,-87,-68,-73,-48
-53,-78,-24,65,-14,-51,24,-68,-87,-73,-73,-43
-53,-78,-24,65,-14,-51,24,-68,-87,-73,-73,-43
-48,-78,-29,63,-9,-53,24,-68,-87,-73,-73,-43
-63,-92,-29,78,-17,-61,29,-63,-87,-73,-78,-48
-78,-107,-29,92,-24,-68,29,-63,-87,-78,-82,-53
-78,-107,-29,92,-24,-68,24,-63,-87,-78,-82,-53
-78,-107,-29,92,-24,-68,19,-63,-87,-78,-82,-58
-68,-97,-29,82,-19,-63,24,-53,-82,-78,-78,-58
-58,-87,-29,73,-14,-58,34,-43,-82,-78,-73,-58
-53,-87,-34,70,-9,-61,34,-43,-82,-73,-73,-53
-58,-87,-29,73,-14,-58,24,-53,-82,-73,-73,-48
-58,-87,-29,73,-14,-58,24,-58,-82,-73,-73,-48
-63,-92,-29,78,-17,-61,29,-63,-82,-73,-73,-48
-63,-92,-29,78,-17,-61,34,-53,-78,-73,-73,-48
-58,-92,-34,75,-12,-63,39,-53,-73,-73,-78,-48
-63,-87,-24,75,-19,-56,39,-53,-73,-78,-82,-53
-68,-87,-19,78,-24,-53,39,-58,-73,-78,-87,-58
-87,-97,-9,92,-39,-53,39,-58,-78,-78,-87,-58
-102,-107,-4,104,-48,-56,39,-58,-82,-78,-87,-58
-92,-107,-14,100,-39,-61,39,-53,-82,-87,-87,-58
-82,-107,-24,95,-29,-65,34,-53,-82,-97,-87,-63
-78,-97,-19,87,-29,-58,34,-53,-82,-82,-87,-63
-73,-87,-14,80,-29,-51,34,-53,-78,-73,-87,-58
-73,-87,-14,80,-29,-51,34,-53,-73,-73,-78,-58
-73,-87,-14,80,-29,-51,34,-53,-73,-78,-73,-63
-87,-102,-14,95,-36,-58,34,-53,-78,-78,-73,-63
-107,-117,-9,112,-48,-63,34,-53,-78,-78,-68,-63
-97,-117,-19,107,-39,-68,39,-53,-78,-82,-78,-63
-87,-112,-24,100,-31,-68,43,-53,-82,-82,-87,-58
-82,-107,-24,95,-29,-65,43,-53,-82,-82,-82,-58
-82,-102,-19,92,-31,-61,43,-53,-82,-78,-78,-58
-82,-102,-19,92,-31,-61,39,-53,-78,-73,-78,-58
-82,-107,-24,95,-29,-65,39,-58,-78,-73,-78,-58
-78,-102,-24,90,-26,-63,39,-58,-78,-68,-78,-58
-78,-97,-19,87,-29,-58,39,-58,-78,-68,-78,-58
-73,-87,-14,80,-29,-51,34,-58,-73,-68,-78,-53
-68,-78,-9,73,-29,-43,29,-58,-68,-68,-78,-48
-63,-73,-9,68,-26,-41,29,-58,-68,-63,-73,-43
-58,-68,-9,63,-24,-39,24,-58,-63,-58,-63,-39
-58,-63,-4,61,-26,-34,24,-63,-58,-53,-58,-34
-58,-58,0,58,-29,-29,19,-63,-58,-53,-53,-29
-58,-53,4,56,-31,-24,14,-63,-58,-53,-58,-29
-48,-53,-4,51,-21,-29,4,-63,-48,-48,-53,-29
-58,-43,14,51,-36,-14,-9,-78,-43,-48,-48,-29
-68,-39,29,53,-48,-4,-29,-102,-39,-39,-43,-24
-53,-19,34,36,-43,7,-53,-117,-29,-34,-39,-14
-34,4,39,14,-36,21,-82,-131,-24,-19,-24,4
0,43,43,-21,-21,43,-117,-151,-19,-14,-4,14
9,53,43,-31,-17,48,-126,-151,-14,-14,0,14
9,43,34,-26,-12,39,-122,-156,-34,-14,-14,9
19,43,24,-31,-2,34,-122,-165,-43,-14,-14,9
29,24,-4,-26,17,9,-131,-170,-58,-29,-14,9
43,14,-29,-29,36,-7,-141,-170,-63,-43,-9,14
68,43,-24,-56,46,9,-151,-170,-48,-14,9,29
82,58,-24,-70,53,17,-151,-165,-39,0,14,39
97,82,-14,-90,56,34,-146,-161,-34,14,29,58
78,97,19,-87,29,58,-122,-141,-24,24,39,63
63,82,19,-73,21,51,-97,-126,-24,24,39,58
9,43,34,-26,-12,39,-53,-107,-29,-4,4,34
-34,-9,24,21,-29,7,-9,-92,-48,-29,-24,9
-39,-34,4,36,-21,-14,9,-87,-63,-43,-34,-4
-43,-58,-14,51,-14,-36,24,-78,-73,-58,-48,-19
-53,-82,-29,68,-12,-56,29,-68,-82,-68,-63,-34
-68,-112,-43,90,-12,-78,48,-58,-102,-82,-78,-53
-92,-141,-48,117,-21,-95,58,-48,-126,-102,-92,-73
-92,-146,-53,119,-19,-100,68,-48,-117,-102,-92,-73
-92,-146,-53,119,-19,-100,68,-48,-112,-102,-92,-73
-92,-151,-58,122,-17,-104,68,-48,-112,-107,-97,-78
-97,-161,-63,129,-17,-112,68,-48,-117,-107,-102,-78
-102,-165,-63,134,-19,-114,73,-53,-126,-112,-112,-78
-102,-165,-63,134,-19,-114,73,-58,-131,-117,-112,-78
-92,-165,-73,129,-9,-119,73,-58,-126,-117,-112,-78
-82,-165,-82,124,0,-124,73,-53,-126,-112,-107,-78
-92,-165,-73,129,-9,-119,73,-53,-126,-112,-107,-82
-102,-175,-73,139,-14,-124,68,-53,-126,-112,-107,-82
-107,-175,-68,141,-19,-122,68,-58,-131,-117,-112,-82
-107,-180,-73,143,-17,-126,68,-58,-131,-122,-117,-82
-122,-180,-58,151,-31,-119,78,-58,-131,-122,-126,-82
-122,-180,-58,151,-31,-119,92,-48,-126,-122,-131,-92
-112,-180,-68,146,-21,-124,97,-19,-131,-122,-131,-97
-97,-175,-78,136,-9,-126,97,4,-102,-92,-102,-92
-102,-190,-87,146,-7,-139,126,29,-29,-39,-73,-82
-73,-117,-43,95,-14,-80,112,29,141,131,58,0
-14,73,87,-29,-51,80,29,-29,400,409,283,146
112,283,170,-197,-29,226,-102,-58,678,717,541,336
356,502,146,-429,104,324,-248,29,990,1073,844,546
556,727,170,-641,192,448,-429,0,1190,1342,1093,746
736,980,244,-858,246,612,-732,-253,1346,1629,1371,971
834,1176,341,-1005,246,758,-1019,-595,1351,1790,1561,1146
766,1293,527,-1029,119,910,-1239,-1127,1137,1688,1566,1249
541,1063,522,-802,9,793,-1234,-1454,531,1156,1220,1083
185,439,253,-312,-34,346,-824,-1283,-361,151,409,531
-92,-97,-4,95,-43,-51,-429,-1049,-1010,-566,-200,97
-180,-380,-200,280,9,-290,-117,-683,-1039,-707,-419,-146
-209,-419,-209,314,0,-314,43,-395,-854,-658,-458,-229
-170,-361,-190,265,9,-275,136,-97,-585,-473,-356,-195
-156,-302,-146,229,-4,-224,180,63,-390,-336,-278,-175
-122,-244,-122,183,0,-183,185,97,-239,-224,-204,-136
-87,-195,-107,141,9,-151,185,102,-156,-156,-141,-97
-87,-170,-82,129,-2,-126,165,126,-112,-126,-122,-73
-87,-161,-73,124,-7,-117,146,117,-92,-117,-112,-73
-92,-161,-68,126,-12,-114,136,82,-82,-117,-112,-82
-92,-165,-73,129,-9,-119,131,73,-73,-112,-112,-87
-92,-170,-78,131,-7,-124,131,78,-73,-112,-112,-87
-92,-170,-78,131,-7,-124,136,87,-63,-107,-112,-87
-87,-161,-73,124,-7,-117,136,92,-58,-102,-112,-87
-78,-146,-68,112,-4,-107,136,97,-53,-92,-107,-87
-73,-141,-68,107,-2,-104,141,97,-53,-92,-107,-87
-73,-141,-68,107,-2,-104,146,107,-48,-87,-107,-87
-73,-136,-63,104,-4,-100,141,107,-48,-87,-117,-82
-68,-136,-68,102,0,-102,141,107,-43,-92,-122,-82
-78,-136,-58,107,-9,-97,146,117,-39,-92,-112,-87
-87,-136,-48,112,-19,-92,151,126,-34,-92,-107,-87
-78,-141,-63,109,-7,-102,151,126,-29,-87,-107,-82
-78,-146,-68,112,-4,-107,146,131,-24,-82,-107,-78
-82,-146,-63,114,-9,-104,141,136,-19,-78,-107,-78
-82,-146,-63,114,-9,-104,141,136,-14,-78,-107,-78
-82,-141,-58,112,-12,-100,141,146,-4,-73,-107,-82
-78,-126,-48,102,-14,-87,141,146,4,-58,-102,-82
-68,-122,-53,95,-7,-87,141,146,14,-53,-97,-82
-63,-122,-58,92,-2,-90,141,156,19,-48,-97,-82
-63,-122,-58,92,-2,-90,136,165,24,-53,-92,-82
-63,-117,-53,90,-4,-85,136,175,34,-53,-92,-82
-63,-112,-48,87,-7,-80,136,180,43,-43,-87,-78
-58,-102,-43,80,-7,-73,141,185,58,-39,-87,-78
-43,-92,-48,68,2,-70,141,195,78,-29,-73,-68
-39,-92,-53,65,7,-73,136,204,87,-24,-73,-58
-43,-97,-53,70,4,-75,136,214,97,-24,-68,-58
-43,-97,-53,70,4,-75,136,219,107,-14,-68,-58
-39,-92,-53,65,7,-73,131,234,117,-4,-63,-53
-34,-82,-48,58,7,-65,131,258,126,4,-58,-43
-24,-63,-39,43,7,-51,126,268,136,9,-53,-43
-9,-53,-43,31,17,-48,126,287,151,14,-43,-43
4,-39,-43,17,24,-41,126,307,180,34,-34,-34
29,-24,-53,-2,41,-39,126,322,190,48,-24,-29
43,-4,-48,-19,46,-26,122,351,209,58,-4,-19
63,14,-48,-39,56,-17,117,380,234,73,14,-9
73,29,-43,-51,58,-7,112,400,244,82,14,-4
92,34,-58,-63,75,-12,97,419,253,87,24,0
117,48,-68,-82,92,-9,92,439,263,92,34,9
136,58,-78,-97,107,-9,87,453,273,102,43,19
136,73,-63,-104,100,4,82,463,283,117,58,34
146,87,-58,-117,102,14,73,483,292,126,68,43
175,112,-63,-143,119,24,58,483,297,131,82,53
200,131,-68,-165,134,31,39,483,297,141,102,63
214,151,-63,-183,139,43,39,488,297,151,117,82
229,165,-63,-197,146,51,29,468,297,156,126,97
229,180,-48,-204,139,65,0,429,283,161,136,112
229,200,-29,-214,129,85,-29,380,278,165,146,126
209,200,-9,-204,109,95,-53,322,258,175,161,136
190,200,9,-195,90,104,-78,273,244,175,170,141
195,219,24,-207,85,122,-87,219,219,175,170,151
195,229,34,-212,80,131,-97,165,200,170,170,151
175,219,43,-197,65,131,-102,126,180,161,161,151
156,204,48,-180,53,126,-102,102,161,146,151,151
131,190,58,-161,36,124,-102,53,136,136,141,131
107,165,58,-136,24,112,-92,14,112,122,126,122
92,136,43,-114,24,90,-82,-14,97,97,112,107
63,97,34,-80,14,65,-73,-29,68,78,87,87
39,82,43,-61,-2,63,-63,-48,43,58,63,78
24,63,39,-43,-7,51,-53,-58,19,43,43,63
9,43,34,-26,-12,39,-43,-63,4,29,34,48
-4,24,29,-9,-17,26,-34,-68,-4,9,19,39
-19,-9,9,14,-14,0,-24,-78,-29,-9,9,24
-29,-34,-4,31,-12,-19,-14,-78,-43,-9,0,14
-34,-29,4,31,-19,-12,-9,-78,-53,-19,-14,4
-29,-24,4,26,-17,-9,0,-78,-53,-34,-24,0
-34,-34,0,34,-17,-17,0,-78,-58,-39,-29,-9
-34,-43,-9,39,-12,-26,4,-78,-73,-43,-39,-9
-58,-53,4,56,-31,-24,0,-87,-73,-43,-39,-19
-78,-68,9,73,-43,-29,0,-97,-78,-43,-39,-29
-78,-68,9,73,-43,-29,0,-97,-82,-53,-43,-29
-73,-68,4,70,-39,-31,0,-97,-82,-53,-43,-29
-68,-68,0,68,-34,-34,4,-87,-82,-53,-39,-24
-63,-68,-4,65,-29,-36,9,-87,-78,-53,-39,-24
-63,-73,-9,68,-26,-41,9,-87,-78,-58,-48,-24
-58,-78,-19,68,-19,-48,9,-87,-78,-63,-53,-29
-58,-78,-19,68,-19,-48,14,-82,-78,-63,-53,-34
-58,-78,-19,68,-19,-48,19,-78,-78,-68,-53,-39
-63,-73,-9,68,-26,-41,19,-78,-78,-63,-53,-24
-63,-68,-4,65,-29,-36,14,-78,-78,-63,-53,-14
-63,-68,-4,65,-29,-36,14,-78,-78,-63,-53,-24
-58,-68,-9,63,-24,-39,14,-78,-78,-63,-53,-34
-58,-68,-9,63,-24,-39,19,-73,-78,-63,-53,-34
-58,-68,-9,63,-24,-39,19,-73,-78,-68,-53,-34
-68,-73,-4,70,-31,-39,9,-78,-82,-68,-53,-39
-78,-78,0,78,-39,-39,0,-82,-87,-68,-53,-48
-78,-78,0,78,-39,-39,4,-78,-82,-68,-53,-48
-78,-78,0,78,-39,-39,14,-73,-82,-68,-53,-48
-78,-73,4,75,-41,-34,24,-68,-82,-63,-53,-48
-87,-68,19,78,-53,-24,24,-73,-82,-63,-53,-48
-73,-68,4,70,-39,-31,24,-73,-78,-58,-48,-43
-63,-73,-9,68,-26,-41,29,-73,-73,-53,-43,-39
-73,-73,0,73,-36,-36,29,-63,-73,-53,-43,-39
-78,-73,4,75,-41,-34,29,-63,-73,-53,-48,-39
-82,-78,4,80,-43,-36,29,-63,-73,-58,-48,-39
-87,-87,0,87,-43,-43,29,-68,-73,-58,-48,-39
-92,-87,4,90,-48,-41,29,-68,-78,-58,-48,-39
-92,-87,4,90,-48,-41,29,-68,-82,-58,-48,-39
-92,-82,9,87,-51,-36,34,-63,-82,-58,-48,-39
-92,-78,14,85,-53,-31,34,-63,-82,-58,-48,-43
-87,-73,14,80,-51,-29,34,-63,-82,-53,-48,-43
-82,-68,14,75,-48,-26,34,-63,-78,-53,-48,-39
-82,-68,14,75,-48,-26,34,-63,-73,-58,-48,-39
-82,-68,14,75,-48,-26,34,-63,-73,-68,-53,-43
-82,-78,4,80,-43,-36,34,-63,-78,-68,-58,-43
-87,-87,0,87,-43,-43,34,-63,-78,-68,-58,-43
-87,-87,0,87,-43,-43,34,-63,-78,-68,-58,-48
-87,-82,4,85,-46,-39,34,-63,-82,-63,-58,-48
-82,-78,4,80,-43,-36,34,-63,-82,-68,-58,-48
-82,-78,4,80,-43,-36,34,-63,-87,-73,-63,-48
-87,-82,4,85,-46,-39,39,-63,-82,-73,-58,-53
-87,-87,0,87,-43,-43,34,-63,-82,-78,-58,-53
-92,-92,0,92,-46,-46,29,-63,-82,-73,-58,-48
-97,-97,0,97,-48,-48,29,-68,-87,-68,-58,-48
-87,-87,0,87,-43,-43,29,-68,-87,-63,-53,-43
-78,-78,0,78,-39,-39,29,-68,-87,-58,-48,-39
-78,-63,14,70,-46,-24,29,-68,-82,-58,-48,-39
-78,-53,24,65,-51,-14,24,-68,-78,-53,-43,-34
-78,-48,29,63,-53,-9,24,-73,-73,-53,-43,-34
-78,-53,24,65,-51,-14,24,-73,-68,-53,-39,-34
-78,-48,29,63,-53,-9,19,-68,-68,-53,-34,-34
-78,-43,34,61,-56,-4,14,-63,-68,-48,-34,-39
-68,-43,24,56,-46,-9,9,-53,-58,-39,-24,-39
-63,-29,34,46,-48,2,0,-58,-53,-39,-19,-34
-63,-19,43,41,-53,12,-19,-82,-48,-34,-19,-24
-53,0,53,26,-53,26,-43,-102,-39,-34,-19,-14
-34,24,58,4,-46,41,-78,-126,-34,-19,-4,4
-9,53,63,-21,-36,58,-117,-151,-34,-14,9,14
-9,63,73,-26,-41,68,-126,-151,-29,-4,14,19
-19,63,82,-21,-51,73,-126,-156,-43,-4,4,19
-19,48,68,-14,-43,58,-131,-170,-53,-14,4,19
0,34,34,-17,-17,34,-141,-180,-63,-14,4,19
24,43,19,-34,2,31,-156,-180,-73,-24,0,19
48,73,24,-61,12,48,-161,-175,-68,-14,9,29
73,87,14,-80,29,51,-161,-175,-58,-9,14,39
92,97,4,-95,43,51,-165,-180,-53,0,24,53
82,126,43,-104,19,85,-151,-161,-29,19,43,68
78,131,53,-104,12,92,-136,-151,-24,34,58,73
9,82,73,-46,-31,78,-78,-136,-39,4,34,43
-43,29,73,7,-58,51,-24,-122,-58,-19,14,19
-58,4,63,26,-61,34,-9,-117,-78,-39,-4,0
-73,-19,53,46,-63,17,4,-107,-92,-58,-29,-19
-82,-43,39,63,-61,-2,9,-97,-102,-68,-43,-34
-92,-68,24,80,-58,-21,29,-87,-107,-78,-58,-48
-97,-102,-4,100,-46,-53,48,-68,-117,-97,-78,-68
-82,-117,-34,100,-24,-75,68,-58,-117,-102,-82,-73
-102,-131,-29,117,-36,-80,68,-58,-122,-102,-87,-73
-117,-146,-29,131,-43,-87,68,-58,-122,-107,-92,-78
-117,-151,-34,134,-41,-92,58,-58,-126,-107,-92,-78
-122,-156,-34,139,-43,-95,53,-58,-131,-112,-102,-78
-122,-151,-29,136,-46,-90,68,-58,-131,-117,-102,-78
-122,-146,-24,134,-48,-85,82,-58,-126,-117,-102,-78
-122,-146,-24,134,-48,-85,73,-53,-131,-112,-97,-78
-122,-146,-24,134,-48,-85,68,-53,-136,-112,-97,-82
-117,-156,-39,136,-39,-97,68,-53,-136,-107,-92,-82
-117,-156,-39,136,-39,-97,68,-58,-141,-107,-92,-82
-117,-146,-29,131,-43,-87,63,-63,-141,-112,-97,-82
-131,-131,0,131,-65,-65,63,-68,-141,-112,-102,-82
-141,-146,-4,143,-68,-75,73,-58,-146,-126,-117,-97
-141,-161,-19,151,-61,-90,78,-34,-146,-131,-126,-102
-136,-180,-43,158,-46,-112,87,-14,-146,-141,-126,-112
-136,-185,-48,161,-43,-117,107,9,-92,-102,-107,-102
-112,-122,-9,117,-51,-65,112,29,48,43,0,-43
-53,29,82,12,-68,56,58,-9,253,273,190,73
78,244,165,-161,-43,204,-58,-19,541,580,448,268
292,463,170,-378,61,317,-214,34,829,902,727,468
517,678,161,-597,178,419,-400,58,1049,1176,985,668
707,912,204,-810,251,558,-653,-117,1210,1424,1234,868
873,1220,346,-1046,263,783,-1034,-527,1366,1747,1556,1141
863,1366,502,-1115,180,934,-1263,-985,1278,1766,1634,1273
629,1190,561,-910,34,875,-1298,-1444,653,1224,1283,1117
322,736,414,-529,-46,575,-1044,-1488,-73,444,668,712
-48,58,107,-4,-78,82,-575,-1224,-858,-390,-34,200
-229,-351,-122,290,-53,-236,-204,-868,-1083,-722,-400,-126
-258,-395,-136,326,-61,-265,-24,-536,-863,-649,-439,-209
-234,-380,-146,307,-43,-263,107,-219,-639,-507,-375,-214
-224,-322,-97,273,-63,-209,165,-14,-439,-370,-287,-195
-200,-263,-63,231,-68,-163,190,92,-278,-258,-219,-161
-141,-200,-58,170,-41,-129,185,107,-195,-185,-156,-122
-117,-161,-43,139,-36,-102,165,136,-141,-141,-122,-102
-117,-146,-29,131,-43,-87,146,122,-117,-122,-107,-102
-117,-136,-19,126,-48,-78,141,102,-92,-107,-102,-92
-97,-136,-39,117,-29,-87,141,102,-82,-102,-97,-82
-82,-141,-58,112,-12,-100,141,107,-82,-102,-92,-78
-92,-141,-48,117,-21,-95,146,117,-78,-97,-92,-78
-102,-141,-39,122,-31,-90,146,117,-78,-97,-92,-78
-97,-136,-39,117,-29,-87,151,117,-73,-97,-87,-78
-92,-131,-39,112,-26,-85,156,117,-73,-102,-87,-78
-92,-131,-39,112,-26,-85,156,126,-63,-97,-87,-78
-92,-126,-34,109,-29,-80,151,126,-58,-92,-87,-73
-87,-126,-39,107,-24,-82,151,126,-53,-92,-82,-78
-87,-126,-39,107,-24,-82,156,136,-48,-92,-82,-87
-87,-126,-39,107,-24,-82,161,151,-43,-92,-92,-87
-78,-126,-48,102,-14,-87,161,156,-39,-92,-97,-87
-78,-126,-48,102,-14,-87,156,161,-34,-92,-97,-87
-82,-126,-43,104,-19,-85,156,165,-29,-87,-97,-87
-82,-141,-58,112,-12,-100,161,165,-29,-82,-97,-87
-82,-156,-73,119,-4,-114,161,180,-24,-78,-97,-87
-78,-136,-58,107,-9,-97,161,185,-14,-68,-92,-82
-73,-122,-48,97,-12,-85,161,185,-4,-63,-87,-82
-73,-122,-48,97,-12,-85,161,195,0,-63,-87,-82
-73,-122,-48,97,-12,-85,156,204,4,-68,-82,-82
-73,-117,-43,95,-14,-80,156,214,9,-63,-82,-82
-68,-112,-43,90,-12,-78,156,224,14,-53,-78,-78
-58,-102,-43,80,-7,-73,161,239,24,-48,-78,-78
-43,-92,-48,68,2,-70,161,253,39,-39,-63,-73
-39,-92,-53,65,7,-73,156,268,48,-34,-63,-68
-39,-92,-53,65,7,-73,156,283,58,-34,-58,-68
-34,-78,-43,56,4,-61,156,287,68,-29,-58,-68
-29,-63,-34,46,2,-48,151,302,78,-24,-53,-63
-24,-68,-43,46,9,-56,146,322,82,-14,-48,-53
-14,-68,-53,41,19,-61,136,331,87,-9,-43,-53
0,-63,-63,31,31,-63,136,356,102,-4,-34,-53
9,-48,-58,19,34,-53,136,375,126,9,-29,-43
29,-34,-63,2,46,-48,141,395,136,19,-24,-39
39,-24,-63,-7,51,-43,141,429,146,19,-14,-34
53,-29,-82,-12,68,-56,136,463,156,19,-9,-29
63,-29,-92,-17,78,-61,131,488,165,24,-14,-24
82,-14,-97,-34,90,-56,117,507,170,29,-14,-24
107,9,-97,-58,102,-43,112,527,175,34,-14,-19
126,19,-107,-73,117,-43,107,551,185,43,-4,-9
136,34,-102,-85,119,-34,102,570,195,58,9,4
161,53,-107,-107,134,-26,102,595,209,73,29,14
185,78,-107,-131,146,-14,97,600,219,82,48,24
204,92,-112,-148,158,-9,78,605,224,92,63,34
219,112,-107,-165,163,2,68,605,229,102,78,53
229,112,-117,-170,173,-2,43,575,229,102,78,63
229,112,-117,-170,173,-2,19,536,219,107,82,73
229,141,-87,-185,158,26,0,497,219,117,97,87
229,165,-63,-197,146,51,-19,448,204,126,112,102
234,190,-43,-212,139,73,-48,390,204,131,136,122
229,209,-19,-219,124,95,-68,326,195,136,151,141
219,214,-4,-217,112,104,-78,263,185,141,156,146
200,204,4,-202,97,104,-82,204,170,141,151,146
175,190,14,-183,80,102,-82,165,161,126,146,146
151,180,29,-165,61,104,-82,122,146,122,141,131
126,161,34,-143,46,97,-73,82,122,117,126,122
112,141,29,-126,41,85,-68,43,107,97,112,107
82,107,24,-95,29,65,-63,24,78,78,87,87
63,92,29,-78,17,61,-53,0,58,58,68,78
43,58,14,-51,14,36,-43,-14,39,43,53,63
19,24,4,-21,7,14,-34,-24,24,34,43,48
4,19,14,-12,-4,17,-24,-29,14,29,29,48
-9,9,19,0,-14,14,-14,-39,-4,19,19,43
-29,-19,9,24,-19,-4,-4,-43,-19,4,4,19
-53,-43,9,48,-31,-17,0,-48,-34,-19,-14,-4
-58,-53,4,56,-31,-24,9,-53,-39,-34,-24,-9
-63,-63,0,63,-31,-31,9,-58,-48,-39,-29,-19
-58,-73,-14,65,-21,-43,19,-58,-63,-43,-39,-19
-63,-78,-14,70,-24,-46,24,-63,-63,-43,-39,-24
-68,-87,-19,78,-24,-53,29,-68,-63,-43,-39,-19
-68,-87,-19,78,-24,-53,29,-68,-63,-53,-43,-9
-63,-87,-24,75,-19,-56,29,-68,-63,-53,-43,-9
-63,-87,-24,75,-19,-56,34,-58,-63,-53,-39,-4
-73,-102,-29,87,-21,-65,39,-58,-63,-58,-43,-19
-82,-117,-34,100,-24,-75,39,-58,-68,-63,-53,-29
-78,-107,-29,92,-24,-68,39,-58,-68,-63,-53,-29
-78,-97,-19,87,-29,-58,39,-58,-73,-63,-53,-34
-68,-92,-24,80,-21,-58,39,-53,-78,-68,-53,-29
-68,-92,-24,80,-21,-58,39,-48,-78,-68,-58,-19
-73,-97,-24,85,-24,-61,34,-48,-78,-73,-68,-34
-73,-97,-24,85,-24,-61,34,-48,-78,-73,-73,-43
-73,-97,-24,85,-24,-61,34,-48,-78,-73,-73,-43
-78,-97,-19,87,-29,-58,39,-43,-78,-73,-73,-43
-78,-97,-19,87,-29,-58,48,-48,-78,-78,-68,-43
-78,-97,-19,87,-29,-58,58,-53,-78,-78,-63,-43
-78,-97,-19,87,-29,-58,48,-53,-78,-73,-58,-48
-78,-97,-19,87,-29,-58,43,-48,-73,-68,-53,-48
-78,-97,-19,87,-29,-58,53,-43,-73,-68,-53,-48
-78,-97,-19,87,-29,-58,53,-43,-73,-63,-53,-48
-87,-102,-14,95,-36,-58,43,-48,-73,-63,-58,-48
-87,-107,-19,97,-34,-63,43,-43,-73,-63,-63,-48
-92,-112,-19,102,-36,-65,48,-43,-73,-63,-63,-43
-92,-112,-19,102,-36,-65,48,-34,-73,-63,-63,-39
-87,-107,-19,97,-34,-63,48,-34,-68,-63,-63,-39
-87,-97,-9,92,-39,-53,48,-34,-63,-68,-58,-39
-68,-97,-29,82,-19,-63,48,-34,-63,-68,-58,-39
-53,-97,-43,75,-4,-70,48,-29,-63,-68,-58,-39
-73,-97,-24,85,-24,-61,48,-29,-68,-73,-68,-48
-92,-97,-4,95,-43,-51,53,-24,-73,-78,-78,-58
-97,-102,-4,100,-46,-53,53,-29,-73,-78,-78,-63
-102,-107,-4,104,-48,-56,53,-34,-73,-73,-78,-63
-102,-107,-4,104,-48,-56,48,-34,-68,-73,-73,-53
-102,-107,-4,104,-48,-56,43,-34,-68,-73,-68,-48
-102,-107,-4,104,-48,-56,43,-34,-73,-78,-73,-53
-102,-112,-9,107,-46,-61,43,-34,-78,-78,-73,-53
-102,-117,-14,109,-43,-65,48,-34,-78,-78,-68,-53
-97,-117,-19,107,-39,-68,53,-34,-73,-78,-68,-53
-97,-112,-14,104,-41,-63,58,-29,-73,-73,-68,-48
-92,-107,-14,100,-39,-61,63,-24,-68,-73,-63,-48
-97,-107,-9,102,-43,-58,53,-24,-68,-68,-63,-53
-107,-107,0,107,-53,-53,48,-29,-68,-68,-68,-58
-97,-107,-9,102,-43,-58,48,-29,-68,-68,-68,-58
-87,-107,-19,97,-34,-63,48,-29,-68,-68,-68,-58
-82,-92,-9,87,-36,-51,48,-29,-63,-63,-63,-48
-78,-78,0,78,-39,-39,43,-29,-58,-58,-58,-39
-73,-68,4,70,-39,-31,43,-34,-53,-53,-53,-34
-68,-63,4,65,-36,-29,43,-34,-48,-53,-48,-34
-68,-68,0,68,-34,-34,43,-29,-48,-53,-43,-24
-68,-73,-4,70,-31,-39,43,-24,-48,-48,-43,-19
-68,-73,-4,70,-31,-39,34,-24,-39,-39,-34,-19
-73,-58,14,65,-43,-21,19,-39,-34,-39,-29,-14
-68,-43,24,56,-46,-9,0,-63,-29,-29,-24,-9
-53,-19,34,36,-43,7,-24,-82,-19,-24,-19,-4
-29,29,58,0,-43,43,-58,-102,-9,-9,-4,14
0,82,82,-41,-41,82,-97,-122,-4,-4,9,24
0,68,68,-34,-34,68,-112,-122,-4,-4,4,24
-9,43,53,-17,-31,48,-117,-126,-24,-14,-14,19
-19,39,58,-9,-39,48,-126,-146,-39,-24,-14,14
-9,34,43,-12,-26,39,-141,-161,-53,-24,-14,9
14,43,29,-29,-7,36,-151,-161,-58,-24,-9,9
39,73,34,-56,2,53,-151,-156,-48,-4,9,19
68,97,29,-82,19,63,-141,-146,-39,0,14,29
92,117,24,-104,34,70,-136,-141,-34,9,24,43
73,131,58,-102,7,95,-117,-122,-9,19,29,53
58,122,63,-90,-2,92,-97,-112,-4,24,29,53
0,73,73,-36,-36,73,-53,-102,-29,-4,-4,24
-43,19,63,12,-53,41,-14,-92,-58,-29,-34,0
-53,-9,43,31,-48,17,0,-87,-78,-48,-43,-14
-63,-39,24,51,-43,-7,14,-78,-92,-68,-58,-29
-73,-68,4,70,-39,-31,19,-68,-102,-78,-73,-43
-82,-97,-14,90,-34,-56,39,-58,-107,-87,-87,-58
-107,-126,-19,117,-43,-73,48,-48,-122,-107,-107,-78
-112,-136,-24,124,-43,-80,58,-48,-126,-112,-112,-82
-112,-136,-24,124,-43,-80,58,-53,-131,-112,-117,-82
-107,-136,-29,122,-39,-82,58,-58,-131,-117,-122,-87
-102,-136,-34,119,-34,-85,58,-58,-136,-126,-122,-92
-102,-136,-34,119,-34,-85,63,-58,-141,-141,-131,-97
-102,-136,-34,119,-34,-85,63,-58,-141,-131,-126,-97
-102,-136,-34,119,-34,-85,63,-58,-136,-117,-122,-97
-107,-136,-29,122,-39,-82,63,-58,-136,-112,-112,-92
-112,-136,-24,124,-43,-80,68,-63,-136,-112,-107,-92
-112,-151,-39,131,-36,-95,68,-63,-136,-112,-107,-92
-117,-156,-39,136,-39,-97,68,-68,-141,-117,-112,-92
-107,-161,-53,134,-26,-107,68,-68,-141,-122,-117,-92
-112,-161,-48,136,-31,-104,73,-68,-141,-122,-122,-92
-122,-161,-39,141,-41,-100,82,-58,-146,-136,-126,-107
-122,-161,-39,141,-41,-100,87,-34,-146,-141,-126,-112
-112,-185,-73,148,-19,-129,97,-9,-156,-151,-131,-122
-107,-195,-87,151,-9,-141,117,19,-112,-112,-117,-112
-92,-131,-39,112,-26,-85,112,29,34,34,-19,-53
-43,19,63,12,-53,41,48,-19,244,263,161,63
82,234,151,-158,-34,192,-68,-43,531,580,434,258
292,453,161,-373,65,307,-224,-4,819,912,727,458
502,702,200,-602,151,451,-409,14,1068,1205,995,673
678,971,292,-824,192,631,-663,-165,1259,1473,1254,888
849,1273,424,-1061,212,849,-1034,-546,1420,1800,1576,1156
844,1415,570,-1129,136,993,-1254,-976,1337,1825,1654,1283
605,1234,629,-919,-12,932,-1273,-1395,707,1263,1283,1117
292,775,483,-534,-95,629,-1005,-1400,-24,463,649,702
-58,97,156,-19,-107,126,-551,-1161,-849,-390,-58,185
-219,-312,-92,265,-63,-202,-195,-829,-1112,-741,-429,-146
-239,-375,-136,307,-51,-256,-19,-512,-902,-688,-488,-234
-204,-380,-175,292,-14,-278,107,-209,-688,-566,-444,-244
-200,-331,-131,265,-34,-231,161,0,-483,-424,-346,-224
-180,-283,-102,231,-39,-192,180,112,-317,-307,-268,-190
-131,-209,-78,170,-26,-143,185,112,-224,-214,-190,-141
-117,-161,-43,139,-36,-102,175,126,-161,-151,-141,-112
-102,-131,-29,117,-36,-80,141,107,-141,-136,-126,-107
-87,-107,-19,97,-34,-63,122,82,-122,-126,-122,-92
-82,-107,-24,95,-29,-65,117,78,-112,-122,-122,-87
-82,-112,-29,97,-26,-70,112,78,-112,-122,-122,-87
-92,-117,-24,104,-34,-70,117,87,-102,-122,-122,-92
-102,-122,-19,112,-41,-70,117,87,-97,-126,-122,-97
-97,-117,-19,107,-39,-68,117,87,-92,-122,-117,-97
-92,-112,-19,102,-36,-65,117,87,-92,-122,-117,-97
-87,-112,-24,100,-31,-68,117,97,-87,-117,-117,-97
-82,-107,-24,95,-29,-65,112,97,-87,-112,-117,-92
-78,-107,-29,92,-24,-68,112,92,-82,-112,-112,-92
-78,-107,-29,92,-24,-68,117,97,-78,-112,-112,-97
-78,-107,-29,92,-24,-68,117,107,-73,-117,-126,-107
-68,-107,-39,87,-14,-73,112,107,-68,-122,-136,-117
-58,-87,-29,73,-14,-58,107,112,-63,-122,-136,-117
-53,-68,-14,61,-19,-41,107,117,-58,-117,-136,-117
-53,-68,-14,61,-19,-41,112,117,-58,-117,-136,-112
-53,-68,-14,61,-19,-41,112,131,-53,-117,-136,-107
-58,-63,-4,61,-26,-34,112,136,-43,-107,-131,-102
-63,-63,0,63,-31,-31,112,136,-34,-102,-126,-102
-63,-63,0,63,-31,-31,112,146,-29,-97,-126,-102
-63,-63,0,63,-31,-31,107,156,-24,-97,-122,-102
-53,-53,0,53,-26,-26,107,165,-14,-92,-117,-102
-39,-43,-4,41,-17,-24,107,175,-4,-82,-107,-97
-43,-34,9,39,-26,-12,107,185,4,-78,-107,-102
-43,-24,19,34,-31,-2,102,195,19,-68,-92,-102
-39,-24,14,31,-26,-4,97,204,29,-63,-92,-97
-39,-24,14,31,-26,-4,97,214,39,-63,-87,-97
-24,-14,9,19,-17,-2,102,219,53,-53,-87,-97
-9,-4,4,7,-7,0,102,234,68,-43,-82,-92
-4,4,9,0,-7,7,102,253,78,-34,-78,-82
4,19,14,-12,-4,17,97,263,87,-29,-73,-82
14,14,0,-14,7,7,92,287,92,-34,-63,-82
19,19,0,-19,9,9,87,307,107,-29,-58,-73
39,24,-14,-31,26,4,87,322,122,-4,-53,-63
48,24,-24,-36,36,0,82,351,136,9,-43,-53
68,43,-24,-56,46,9,87,380,146,14,-24,-48
82,68,-14,-75,48,26,92,400,156,24,-14,-43
102,73,-29,-87,65,21,78,419,165,24,-19,-39
126,87,-39,-107,82,24,73,439,175,24,-24,-29
146,97,-48,-122,97,24,68,463,185,24,-14,-19
156,112,-43,-134,100,34,63,483,195,29,0,-4
170,117,-53,-143,112,31,53,502,204,48,9,4
185,126,-58,-156,122,34,39,502,209,63,19,14
200,131,-68,-165,134,31,19,507,209,73,34,19
209,141,-68,-175,139,36,9,507,209,82,48,34
229,180,-48,-204,139,65,-9,492,224,97,63,48
239,219,-19,-229,129,100,-29,468,229,117,82,63
239,239,0,-239,119,119,-48,419,229,126,97,78
239,253,14,-246,112,134,-68,361,214,136,112,92
239,268,29,-253,104,148,-87,312,204,136,122,102
229,278,48,-253,90,163,-97,258,185,136,122,112
234,297,63,-265,85,180,-107,204,170,131,122,117
229,302,73,-265,78,187,-112,156,151,122,112,117
185,263,78,-224,53,170,-117,102,131,102,102,112
141,229,87,-185,26,158,-122,43,107,92,92,92
117,204,87,-161,14,146,-122,14,82,82,78,82
102,180,78,-141,12,129,-126,-14,68,58,63,68
73,151,78,-112,-2,114,-122,-34,39,39,39,48
53,141,87,-97,-17,114,-112,-58,19,19,19,39
43,122,78,-82,-17,100,-92,-68,0,4,4,24
29,102,73,-65,-21,87,-73,-73,-14,-4,-4,9
14,82,68,-48,-26,75,-63,-78,-24,-19,-19,0
0,58,58,-29,-29,58,-53,-87,-43,-39,-29,-14
-14,39,53,-12,-34,46,-43,-87,-58,-39,-39,-24
-34,24,58,4,-46,41,-39,-87,-73,-48,-53,-34
-39,9,48,14,-43,29,-29,-87,-78,-68,-68,-39
-43,-4,39,24,-41,17,-29,-87,-87,-78,-78,-48
-43,-14,29,29,-36,7,-19,-87,-102,-82,-87,-48
-53,-19,34,36,-43,7,-14,-92,-102,-82,-87,-53
-58,-29,29,43,-43,0,-9,-97,-102,-82,-87,-58
-58,-29,29,43,-43,0,-9,-97,-102,-92,-92,-58
-58,-34,24,46,-41,-4,-9,-102,-102,-92,-82,-63
-63,-39,24,51,-43,-7,-4,-97,-102,-92,-68,-63
-63,-39,24,51,-43,-7,0,-97,-97,-92,-78,-63
-63,-39,24,51,-43,-7,0,-97,-97,-92,-92,-58
-58,-39,19,48,-39,-9,0,-92,-97,-92,-92,-58
-58,-39,19,48,-39,-9,0,-87,-102,-92,-92,-63
-48,-29,19,39,-34,-4,0,-87,-107,-97,-92,-68
-48,-24,24,36,-36,0,0,-87,-107,-97,-97,-68
-63,-39,24,51,-43,-7,-9,-97,-112,-102,-102,-78
-73,-48,24,61,-48,-12,-14,-107,-117,-102,-102,-82
-68,-48,19,58,-43,-14,-14,-107,-117,-102,-102,-82
-68,-48,19,58,-43,-14,-9,-102,-117,-102,-102,-82
-68,-48,19,58,-43,-14,-4,-97,-112,-102,-102,-78
-68,-48,19,58,-43,-14,0,-92,-107,-97,-102,-73
-68,-48,19,58,-43,-14,0,-87,-107,-97,-102,-78
-68,-48,19,58,-43,-14,4,-78,-102,-97,-102,-78
-68,-48,19,58,-43,-14,14,-73,-102,-102,-102,-78
-68,-48,19,58,-43,-14,14,-73,-102,-102,-102,-78
-78,-48,29,63,-53,-9,4,-82,-102,-102,-102,-78
-78,-48,29,63,-53,-9,4,-82,-102,-102,-102,-78
-82,-48,34,65,-58,-7,9,-87,-102,-97,-102,-78
-82,-43,39,63,-61,-2,9,-82,-102,-92,-102,-78
-78,-43,34,61,-56,-4,9,-82,-102,-92,-102,-78
-78,-39,39,58,-58,0,9,-82,-102,-97,-97,-78
-73,-39,34,56,-53,-2,9,-82,-102,-97,-97,-73
-73,-39,34,56,-53,-2,9,-78,-102,-97,-97,-68
-73,-39,34,56,-53,-2,9,-78,-102,-97,-97,-68
-73,-39,34,56,-53,-2,14,-73,-102,-97,-97,-68
-73,-39,34,56,-53,-2,14,-73,-102,-102,-102,-73
-73,-39,34,56,-53,-2,14,-73,-102,-102,-107,-73
-78,-39,39,58,-58,0,14,-73,-97,-102,-107,-73
-82,-39,43,61,-63,2,14,-73,-97,-102,-107,-78
-82,-39,43,61,-63,2,14,-73,-97,-107,-107,-82
-82,-43,39,63,-61,-2,14,-73,-97,-107,-102,-82
-87,-58,29,73,-58,-14,14,-73,-97,-107,-87,-82
-87,-68,19,78,-53,-24,14,-73,-92,-107,-78,-82
-87,-68,19,78,-53,-24,14,-73,-97,-102,-87,-82
-82,-68,14,75,-48,-26,14,-73,-97,-102,-92,-87
-82,-63,19,73,-51,-21,14,-73,-97,-102,-87,-82
-82,-58,24,70,-53,-17,14,-78,-97,-102,-87,-82
-78,-53,24,65,-51,-14,9,-78,-97,-97,-87,-78
-78,-48,29,63,-53,-9,9,-78,-97,-97,-87,-78
-78,-48,29,63,-53,-9,9,-78,-97,-97,-87,-78
-78,-48,29,63,-53,-9,9,-78,-97,-97,-87,-78
-73,-34,39,53,-56,2,9,-78,-92,-97,-92,-78
-68,-19,48,43,-58,14,4,-78,-82,-92,-87,-73
-68,-9,58,39,-63,24,4,-82,-78,-87,-87,-68
-68,0,68,34,-68,34,0,-82,-78,-82,-82,-58
-63,4,68,29,-65,36,0,-78,-78,-78,-82,-58
-48,4,53,21,-51,29,-4,-73,-68,-68,-73,-58
-34,29,63,2,-48,46,-19,-87,-63,-68,-68,-53
-19,48,68,-14,-43,58,-39,-112,-58,-58,-63,-43
-19,58,78,-19,-48,68,-68,-131,-48,-53,-58,-34
-14,73,87,-29,-51,80,-102,-151,-43,-39,-43,-14
4,92,87,-48,-41,90,-141,-175,-43,-34,-29,-4
0,82,82,-41,-41,82,-156,-180,-43,-34,-29,-4
-9,73,82,-31,-46,78,-156,-185,-63,-43,-39,-9
-9,73,82,-31,-46,78,-161,-195,-73,-53,-34,-9
14,73,58,-43,-21,65,-170,-200,-82,-48,-34,-9
43,82,39,-63,2,61,-180,-200,-82,-43,-29,-4
68,117,48,-92,9,82,-180,-195,-68,-24,-9,14
82,136,53,-109,14,95,-170,-185,-58,-19,-4,29
92,146,53,-119,19,100,-165,-180,-53,-9,4,43
68,146,78,-107,-4,112,-141,-161,-43,-4,9,43
63,131,68,-97,-2,100,-112,-146,-48,-4,9,34
19,92,73,-56,-26,82,-63,-126,-58,-34,-24,4
-34,29,63,2,-48,46,-24,-112,-78,-58,-53,-19
-48,-4,43,26,-46,19,-9,-107,-92,-73,-63,-34
-53,-29,24,41,-39,-2,0,-97,-102,-87,-78,-48
-63,-53,9,58,-36,-21,0,-87,-112,-97,-92,-63
-73,-78,-4,75,-34,-41,19,-78,-117,-107,-107,-82
-92,-102,-9,97,-41,-56,29,-68,-126,-122,-122,-102
-92,-107,-14,100,-39,-61,39,-68,-126,-122,-117,-102
-92,-107,-14,100,-39,-61,39,-68,-131,-122,-112,-102
-78,-92,-14,85,-31,-53,39,-68,-131,-126,-112,-107
-68,-82,-14,75,-26,-48,39,-68,-136,-126,-112,-107
-87,-102,-14,95,-36,-58,43,-73,-146,-136,-131,-107
-102,-117,-14,109,-43,-65,43,-78,-151,-146,-141,-107
-102,-117,-14,109,-43,-65,43,-78,-146,-146,-141,-107
-102,-117,-14,109,-43,-65,43,-73,-146,-141,-136,-107
-92,-107,-14,100,-39,-61,48,-73,-146,-136,-122,-112
-82,-107,-24,95,-29,-65,48,-73,-146,-131,-107,-112
-102,-131,-29,117,-36,-80,48,-78,-151,-136,-122,-117
-117,-161,-43,139,-36,-102,48,-78,-151,-141,-136,-122
-131,-146,-14,139,-58,-80,53,-78,-151,-141,-141,-122
-131,-131,0,131,-65,-65,63,-68,-146,-141,-141,-131
-117,-131,-14,124,-51,-73,68,-39,-136,-131,-136,-131
-97,-126,-29,112,-34,-78,68,-14,-92,-92,-102,-122
-87,-117,-29,102,-29,-73,87,9,-14,-24,-58,-97
-43,-19,24,31,-34,2,63,9,161,161,87,0
29,175,146,-102,-58,161,-29,-58,409,434,317,156
170,390,219,-280,-24,305,-170,-97,678,736,580,356
400,610,209,-505,95,409,-341,-29,971,1078,873,566
585,834,248,-710,168,541,-546,-78,1151,1332,1112,766
761,1088,326,-924,217,707,-829,-346,1298,1595,1376,980
854,1283,429,-1068,212,856,-1098,-702,1293,1732,1551,1146
761,1346,585,-1054,87,966,-1254,-1180,1044,1576,1488,1195
512,1063,551,-788,-19,807,-1185,-1454,405,990,1073,976
146,434,287,-290,-70,361,-780,-1268,-429,39,302,434
-141,-107,34,124,-87,-36,-390,-1019,-1019,-624,-268,9
-224,-380,-156,302,-34,-268,-97,-663,-1029,-727,-463,-209
-248,-409,-161,329,-43,-285,43,-385,-824,-639,-478,-268
-190,-341,-151,265,-19,-246,136,-82,-570,-468,-366,-224
-156,-273,-117,214,-19,-195,180,82,-390,-346,-278,-195
-122,-214,-92,168,-14,-153,180,112,-248,-234,-209,-161
-87,-165,-78,126,-4,-122,175,112,-175,-165,-151,-126
-92,-136,-43,114,-24,-90,156,126,-136,-141,-131,-112
-97,-122,-24,109,-36,-73,136,107,-122,-136,-122,-122
-97,-117,-19,107,-39,-68,126,82,-112,-136,-122,-122
-92,-117,-24,104,-34,-70,122,82,-102,-131,-122,-117
-92,-122,-29,107,-31,-75,122,87,-97,-126,-122,-112
-92,-122,-29,107,-31,-75,126,97,-82,-117,-122,-107
-87,-122,-34,104,-26,-78,126,97,-78,-117,-122,-107
-78,-117,-39,97,-19,-78,126,97,-73,-112,-117,-107
-73,-117,-43,95,-14,-80,126,97,-73,-117,-117,-107
-73,-122,-48,97,-12,-85,126,107,-68,-117,-117,-107
-73,-117,-43,95,-14,-80,122,107,-68,-112,-117,-102
-68,-117,-48,92,-9,-82,122,107,-63,-112,-112,-102
-68,-112,-43,90,-12,-78,126,117,-58,-112,-112,-102
-68,-107,-39,87,-14,-73,131,126,-53,-112,-117,-97
-58,-107,-48,82,-4,-78,131,126,-48,-112,-117,-97
-58,-107,-48,82,-4,-78,126,131,-43,-112,-117,-97
-58,-102,-43,80,-7,-73,126,136,-39,-97,-107,-97
-53,-97,-43,75,-4,-70,131,136,-34,-87,-97,-97
-53,-97,-43,75,-4,-70,131,146,-24,-87,-97,-97
-48,-87,-39,68,-4,-63,131,146,-14,-78,-92,-92
-48,-82,-34,65,-7,-58,131,146,-4,-78,-97,-92
-53,-82,-29,68,-12,-56,131,156,0,-78,-107,-92
-53,-87,-34,70,-9,-61,126,165,4,-78,-92,-92
-53,-87,-34,70,-9,-61,126,175,14,-73,-82,-92
-48,-82,-34,65,-7,-58,126,185,24,-63,-78,-82
-39,-73,-34,56,-2,-53,131,195,39,-58,-78,-78
-24,-63,-39,43,7,-51,131,204,58,-48,-68,-73
-19,-63,-43,41,12,-53,126,214,68,-43,-73,-68
-24,-68,-43,46,9,-56,122,224,78,-43,-68,-73
-24,-68,-43,46,9,-56,117,229,87,-34,-68,-78
-19,-63,-43,41,12,-53,112,244,97,-24,-63,-73
-14,-53,-39,34,12,-46,112,268,107,-14,-58,-63
-4,-34,-29,19,12,-31,107,283,117,-9,-53,-63
9,-24,-34,7,21,-29,107,307,131,-4,-43,-63
19,-9,-29,-4,24,-19,107,326,161,9,-34,-53
39,4,-34,-21,36,-14,107,341,170,19,-24,-48
58,14,-43,-36,51,-14,102,370,180,24,-9,-43
82,24,-58,-53,70,-17,97,400,195,34,4,-39
92,39,-53,-65,73,-7,97,419,204,48,4,-24
112,43,-68,-78,90,-12,87,439,214,58,14,-9
136,53,-82,-95,109,-14,82,463,224,63,24,0
156,58,-97,-107,126,-19,78,483,234,73,34,9
165,73,-92,-119,129,-9,73,492,244,87,48,24
185,87,-97,-136,141,-4,63,512,253,97,58,34
209,117,-92,-163,151,12,48,512,263,102,63,43
229,141,-87,-185,158,26,29,512,268,112,73,53
239,151,-87,-195,163,31,19,507,268,122,87,73
248,156,-92,-202,170,31,0,478,268,126,97,87
244,170,-73,-207,158,48,-24,439,258,136,112,102
239,190,-48,-214,143,70,-48,390,258,146,126,117
239,204,-34,-222,136,85,-68,331,244,156,146,131
239,219,-19,-229,129,100,-87,283,234,156,161,141
224,224,0,-224,112,112,-97,224,209,156,161,146
204,219,14,-212,95,117,-107,165,190,151,161,141
180,204,24,-192,78,114,-112,117,165,136,146,136
156,185,29,-170,63,107,-112,82,141,117,131,131
136,175,39,-156,48,107,-112,43,117,112,122,117
117,156,39,-136,39,97,-102,14,92,102,107,112
102,131,29,-117,36,80,-92,-9,82,82,97,97
73,97,24,-85,24,61,-82,-19,58,68,78,78
53,82,29,-68,12,56,-73,-39,39,48,58,68
43,63,19,-53,12,41,-63,-48,19,34,43,53
29,43,14,-36,7,29,-58,-63,0,19,34,34
14,24,9,-19,2,17,-53,-78,-14,0,19,19
-9,0,9,4,-9,4,-43,-87,-34,-19,9,4
-29,-14,14,21,-21,0,-34,-87,-43,-19,0,-4
-34,-24,9,29,-21,-7,-29,-87,-53,-29,-14,-14
-29,-34,-4,31,-12,-19,-19,-87,-53,-43,-24,-19
-34,-43,-9,39,-12,-26,-14,-82,-58,-53,-29,-29
-34,-53,-19,43,-7,-36,-4,-78,-73,-63,-39,-29
-48,-63,-14,56,-17,-39,-4,-82,-78,-63,-43,-34
-58,-78,-19,68,-19,-48,0,-87,-87,-63,-48,-39
-58,-78,-19,68,-19,-48,0,-87,-92,-73,-53,-39
-53,-78,-24,65,-14,-51,0,-87,-92,-73,-53,-39
-53,-73,-19,63,-17,-46,4,-78,-92,-73,-48,-34
-53,-68,-14,61,-19,-41,9,-78,-87,-73,-48,-34
-43,-68,-24,56,-9,-46,9,-78,-87,-68,-53,-29
-29,-68,-39,48,4,-53,9,-78,-87,-63,-53,-29
-39,-73,-34,56,-2,-53,9,-78,-92,-63,-48,-34
-48,-78,-29,63,-9,-53,9,-78,-97,-68,-43,-39
-63,-87,-24,75,-19,-56,0,-82,-97,-68,-48,-39
-73,-97,-24,85,-24,-61,-14,-87,-97,-73,-53,-43
-73,-97,-24,85,-24,-61,-4,-87,-97,-73,-58,-43
-68,-97,-29,82,-19,-63,4,-87,-97,-73,-63,-43
-63,-92,-29,78,-17,-61,9,-78,-97,-73,-63,-43
-58,-87,-29,73,-14,-58,9,-73,-97,-78,-63,-43
-58,-87,-29,73,-14,-58,9,-73,-92,-73,-63,-39
-58,-87,-29,73,-14,-58,9,-73,-87,-68,-63,-39
-58,-87,-29,73,-14,-58,14,-68,-82,-68,-58,-39
-58,-87,-29,73,-14,-58,24,-63,-82,-68,-53,-39
-53,-87,-34,70,-9,-61,24,-58,-82,-63,-53,-43
-58,-87,-29,73,-14,-58,14,-63,-82,-63,-53,-48
-58,-92,-34,75,-12,-63,14,-63,-82,-68,-58,-48
-63,-102,-39,82,-12,-70,19,-63,-82,-73,-63,-48
-73,-102,-29,87,-21,-65,19,-53,-82,-73,-63,-43
-78,-102,-24,90,-26,-63,19,-53,-82,-73,-68,-39
-68,-92,-24,80,-21,-58,19,-53,-82,-73,-63,-39
-58,-87,-29,73,-14,-58,19,-58,-82,-68,-58,-39
-63,-87,-24,75,-19,-56,19,-58,-82,-68,-58,-39
-63,-87,-24,75,-19,-56,19,-58,-82,-68,-58,-39
-68,-97,-29,82,-19,-63,19,-58,-82,-68,-58,-39
-73,-107,-34,90,-19,-70,14,-63,-82,-68,-58,-43
-73,-97,-24,85,-24,-61,14,-63,-82,-63,-58,-43
-73,-87,-14,80,-29,-51,14,-63,-78,-63,-58,-39
-53,-78,-24,65,-14,-51,19,-63,-73,-63,-53,-39
-34,-68,-34,51,0,-51,24,-63,-73,-68,-53,-43
-53,-82,-29,68,-12,-56,24,-63,-78,-68,-53,-43
-78,-97,-19,87,-29,-58,24,-63,-78,-68,-48,-43
-87,-112,-24,100,-31,-68,14,-73,-82,-73,-58,-48
-92,-117,-24,104,-34,-70,4,-82,-87,-73,-63,-48
-82,-102,-19,92,-31,-61,14,-73,-82,-68,-58,-43
-78,-87,-9,82,-34,-48,29,-68,-78,-68,-58,-39
-73,-87,-14,80,-29,-51,19,-68,-78,-68,-53,-39
-68,-87,-19,78,-24,-53,9,-68,-78,-68,-48,-39
-63,-73,-9,68,-26,-41,9,-68,-73,-58,-48,-29
-58,-58,0,58,-29,-29,9,-68,-68,-48,-43,-19
-58,-48,9,53,-34,-19,9,-73,-63,-43,-43,-14
-58,-43,14,51,-36,-14,14,-73,-58,-43,-39,-14
-58,-39,19,48,-39,-9,9,-73,-58,-43,-34,-9
-58,-34,24,46,-41,-4,4,-73,-58,-39,-34,-9
-53,-48,4,51,-29,-21,-4,-73,-53,-29,-24,-9
-53,-48,4,51,-29,-21,-19,-87,-53,-29,-19,-4
-48,-48,0,48,-24,-24,-39,-112,-48,-19,-14,0
-34,-39,-4,36,-14,-21,-63,-131,-39,-14,-9,4
-14,-4,9,9,-12,2,-92,-151,-29,4,4,24
9,34,24,-21,-7,29,-126,-170,-24,14,19,34
9,39,29,-24,-9,34,-141,-175,-24,14,19,34
0,34,34,-17,-17,34,-146,-185,-43,4,4,29
0,34,34,-17,-17,34,-151,-195,-53,-9,0,29
19,34,14,-26,2,24,-161,-200,-63,-14,-4,29
48,43,-4,-46,26,19,-170,-195,-63,-14,0,34
78,73,-4,-75,41,34,-170,-185,-48,4,19,48
107,102,-4,-104,56,48,-161,-175,-39,9,34,68
131,126,-4,-129,68,61,-156,-170,-34,19,53,92
107,126,19,-117,43,73,-136,-151,-24,24,58,92
87,102,14,-95,36,58,-117,-141,-34,24,58,82
14,39,24,-26,-4,31,-73,-126,-48,-4,19,53
-43,-29,14,36,-29,-7,-34,-112,-68,-29,-14,29
-48,-53,-4,51,-21,-29,-14,-107,-82,-43,-24,14
-53,-78,-24,65,-14,-51,4,-97,-92,-58,-39,0
-58,-92,-34,75,-12,-63,9,-87,-102,-68,-48,-14
-63,-107,-43,85,-9,-75,29,-78,-107,-78,-58,-29
-82,-131,-48,107,-17,-90,43,-68,-117,-92,-73,-43
-82,-136,-53,109,-14,-95,58,-68,-117,-92,-73,-43
-82,-141,-58,112,-12,-100,58,-68,-122,-92,-73,-43
-78,-146,-68,112,-4,-107,58,-68,-122,-97,-73,-48
-82,-151,-68,117,-7,-109,58,-68,-126,-97,-73,-53
-92,-156,-63,124,-14,-109,63,-68,-131,-102,-82,-58
-92,-161,-68,126,-12,-114,63,-68,-136,-107,-87,-58
-92,-165,-73,129,-9,-119,63,-68,-136,-107,-92,-58
-92,-165,-73,129,-9,-119,63,-63,-136,-102,-87,-58
-92,-165,-73,129,-9,-119,68,-63,-136,-102,-87,-63
-92,-170,-78,131,-7,-124,68,-63,-131,-97,-82,-63
-97,-165,-68,131,-14,-117,68,-68,-131,-97,-82,-63
-92,-165,-73,129,-9,-119,73,-68,-131,-102,-87,-58
-102,-161,-58,131,-21,-109,82,-68,-131,-102,-92,-53
-102,-161,-58,131,-21,-109,92,-58,-136,-112,-102,-63
-92,-161,-68,126,-12,-114,97,-34,-136,-112,-107,-63
-97,-180,-82,139,-7,-131,97,-14,-117,-102,-92,-78
-107,-185,-78,146,-14,-131,107,9,-43,-43,-58,-73
-82,-102,-19,92,-31,-61,92,19,151,151,78,9
-24,68,92,-21,-58,80,19,-29,409,429,297,151
131,307,175,-219,-21,241,-102,-43,732,761,570,356
370,551,180,-461,95,366,-263,4,1054,1107,863,566
561,761,200,-661,180,480,-478,-29,1249,1385,1117,771
717,990,273,-854,222,631,-761,-263,1385,1639,1361,976
839,1244,405,-1041,217,824,-1102,-673,1429,1849,1605,1190
785,1337,551,-1061,117,944,-1293,-1132,1229,1756,1605,1263
546,1058,512,-802,17,785,-1224,-1424,507,1107,1176,1054
234,502,268,-368,-17,385,-868,-1302,-317,219,483,595
-53,-48,4,51,-29,-21,-468,-1049,-980,-488,-112,156
-151,-331,-180,241,14,-256,-165,-702,-1083,-692,-370,-97
-180,-346,-165,263,-7,-256,-9,-405,-824,-590,-385,-151
-156,-302,-146,229,-4,-224,97,-122,-561,-419,-297,-126
-146,-253,-107,200,-19,-180,136,14,-375,-297,-219,-122
-122,-204,-82,163,-19,-143,141,53,-229,-200,-161,-102
-87,-165,-78,126,-4,-122,151,53,-156,-141,-112,-68
-87,-151,-63,119,-12,-107,146,68,-112,-112,-92,-53
-87,-141,-53,114,-17,-97,126,63,-102,-107,-82,-68
-87,-136,-48,112,-19,-92,122,53,-92,-107,-82,-73
-82,-136,-53,109,-14,-95,126,53,-82,-102,-82,-68
-82,-141,-58,112,-12,-100,131,58,-82,-102,-82,-68
-82,-136,-53,109,-14,-95,136,73,-73,-92,-82,-68
-82,-131,-48,107,-17,-90,136,78,-68,-87,-82,-68
-78,-126,-48,102,-14,-87,136,78,-63,-82,-78,-68
-73,-122,-48,97,-12,-85,136,78,-63,-82,-78,-68
-87,-141,-53,114,-17,-97,136,87,-58,-82,-87,-73
-102,-156,-53,129,-24,-104,131,87,-58,-82,-97,-73
-87,-141,-53,114,-17,-97,131,87,-53,-82,-92,-73
-78,-126,-48,102,-14,-87,136,97,-48,-82,-92,-78
-78,-126,-48,102,-14,-87,141,107,-43,-82,-97,-78
-68,-126,-58,97,-4,-92,141,107,-39,-82,-97,-78
-73,-141,-68,107,-2,-104,136,112,-34,-87,-107,-78
-82,-156,-73,119,-4,-114,136,117,-29,-87,-117,-78
-82,-146,-63,114,-9,-104,141,117,-24,-87,-102,-78
-82,-136,-53,109,-14,-95,141,131,-14,-87,-87,-78
-78,-126,-48,102,-14,-87,141,131,-4,-73,-82,-73
-73,-122,-48,97,-12,-85,141,126,4,-63,-78,-73
-73,-122,-48,97,-12,-85,141,131,9,-58,-78,-73
-73,-122,-48,97,-12,-85,136,136,14,-58,-73,-73
-73,-117,-43,95,-14,-80,136,146,24,-53,-73,-73
-68,-112,-43,90,-12,-78,136,156,34,-43,-68,-68
-63,-102,-39,82,-12,-70,141,165,48,-39,-68,-63
-53,-92,-39,73,-7,-65,141,175,68,-29,-53,-53
-48,-92,-43,70,-2,-68,141,190,78,-24,-53,-43
-48,-92,-43,70,-2,-68,146,204,87,-24,-48,-39
-43,-87,-43,65,0,-65,146,209,107,-9,-43,-39
-39,-82,-43,61,2,-63,141,224,126,4,-34,-34
-34,-73,-39,53,2,-56,141,248,136,14,-29,-29
-24,-58,-34,41,4,-46,136,263,146,19,-24,-34
-9,-63,-53,36,21,-58,136,287,161,24,-19,-39
0,-58,-58,29,29,-58,136,307,185,39,-19,-34
19,-34,-53,7,36,-43,136,317,200,53,-14,-29
29,-14,-43,-7,36,-29,131,341,214,58,-4,-24
43,-4,-48,-19,46,-26,131,370,229,63,14,-14
53,9,-43,-31,48,-17,131,390,244,73,24,-4
73,14,-58,-43,65,-21,117,409,253,78,34,0
97,29,-68,-63,82,-19,112,429,263,82,43,9
117,39,-78,-78,97,-19,107,453,273,97,53,19
126,53,-73,-90,100,-9,102,473,283,117,68,34
151,63,-87,-107,119,-12,97,502,292,126,78,48
175,78,-97,-126,136,-9,87,512,297,131,87,63
190,87,-102,-139,146,-7,68,512,297,141,102,73
200,102,-97,-151,148,2,58,507,297,151,117,92
209,112,-97,-161,153,7,39,488,292,156,126,102
209,122,-87,-165,148,17,19,458,278,165,141,112
209,136,-73,-173,141,31,-4,409,278,170,151,126
209,146,-63,-178,136,41,-29,351,263,175,161,141
209,151,-58,-180,134,46,-48,302,244,175,170,151
200,151,-48,-175,124,51,-58,248,214,175,170,161
195,151,-43,-173,119,53,-63,204,200,170,170,161
180,136,-43,-158,112,46,-63,165,180,161,161,156
156,122,-34,-139,95,43,-63,131,161,141,151,151
131,112,-19,-122,75,46,-63,92,136,131,141,131
107,97,-9,-102,58,43,-53,53,112,122,126,117
92,82,-9,-87,51,36,-48,14,97,97,112,97
58,29,-29,-43,43,0,-48,0,68,78,87,78
34,-4,-39,-14,36,-21,-43,-19,48,58,68,68
24,-9,-34,-7,29,-21,-34,-29,29,48,53,58
9,-14,-24,2,17,-19,-24,-34,14,43,43,48
4,-34,-39,14,21,-36,-14,-39,4,29,29,39
0,-58,-58,29,29,-58,-4,-48,-14,9,19,24
-9,-78,-68,43,29,-73,4,-48,-24,4,9,14
-24,-92,-68,58,21,-80,9,-48,-34,-9,-4,4
-34,-102,-68,68,17,-85,19,-53,-39,-29,-14,0
-43,-112,-68,78,12,-90,19,-58,-48,-39,-19,-9
-48,-122,-73,85,12,-97,24,-58,-63,-43,-29,-9
-63,-126,-63,95,0,-95,24,-63,-63,-43,-29,-14
-68,-136,-68,102,0,-102,29,-63,-68,-43,-34,-24
-68,-136,-68,102,0,-102,29,-58,-73,-53,-43,-29
-63,-136,-73,100,4,-104,29,-58,-73,-53,-48,-29
-63,-136,-73,100,4,-104,34,-48,-73,-53,-48,-24
-63,-136,-73,100,4,-104,39,-48,-68,-53,-48,-24
-63,-136,-73,100,4,-104,39,-48,-68,-53,-53,-19
-58,-136,-78,97,9,-107,39,-48,-68,-48,-43,-19
-58,-136,-78,97,9,-107,39,-48,-73,-43,-34,-24
-58,-136,-78,97,9,-107,39,-58,-78,-48,-34,-29
-68,-141,-73,104,2,-107,39,-68,-78,-48,-39,-29
-73,-161,-87,117,7,-124,34,-58,-78,-53,-43,-34
-73,-175,-102,124,14,-139,34,-48,-78,-53,-43,-34
-68,-165,-97,117,14,-131,34,-48,-78,-53,-43,-34
-68,-156,-87,112,9,-122,39,-43,-78,-53,-43,-34
-68,-156,-87,112,9,-122,39,-43,-78,-58,-43,-29
-68,-156,-87,112,9,-122,39,-43,-78,-58,-43,-24
-68,-156,-87,112,9,-122,39,-43,-78,-58,-48,-29
-68,-156,-87,112,9,-122,43,-39,-73,-58,-53,-29
-68,-156,-87,112,9,-122,53,-34,-73,-58,-53,-29
-68,-156,-87,112,9,-122,53,-34,-73,-53,-53,-29
-78,-156,-78,117,0,-117,48,-43,-68,-48,-48,-29
-78,-156,-78,117,0,-117,53,-43,-63,-43,-43,-29
-73,-151,-78,112,2,-114,58,-43,-63,-43,-43,-34
-63,-141,-78,102,7,-109,58,-34,-63,-43,-43,-39
-68,-141,-73,104,2,-107,58,-34,-68,-48,-53,-39
-78,-136,-58,107,-9,-97,58,-34,-73,-58,-58,-39
-82,-151,-68,117,-7,-109,58,-39,-73,-63,-58,-39
-92,-165,-73,129,-9,-119,58,-39,-73,-68,-58,-39
-92,-165,-73,129,-9,-119,58,-39,-73,-68,-58,-39
-92,-165,-73,129,-9,-119,63,-34,-73,-68,-58,-39
-87,-161,-73,124,-7,-117,63,-34,-68,-58,-48,-39
-82,-156,-73,119,-4,-114,63,-34,-63,-43,-39,-34
-82,-156,-73,119,-4,-114,63,-34,-58,-43,-39,-29
-82,-156,-73,119,-4,-114,63,-34,-58,-43,-39,-29
-92,-165,-73,129,-9,-119,63,-34,-63,-48,-48,-39
-102,-180,-78,141,-12,-129,63,-34,-68,-48,-48,-43
-97,-170,-73,134,-12,-122,58,-34,-68,-53,-53,-43
-97,-165,-68,131,-14,-117,53,-39,-73,-58,-63,-43
-92,-156,-63,124,-14,-109,58,-39,-68,-68,-58,-39
-87,-146,-58,117,-14,-102,68,-39,-68,-78,-58,-39
-87,-146,-58,117,-14,-102,68,-39,-58,-63,-53,-34
-87,-146,-58,117,-14,-102,68,-39,-48,-48,-48,-29
-87,-141,-53,114,-17,-97,58,-39,-48,-43,-48,-29
-82,-131,-48,107,-17,-90,48,-39,-43,-39,-39,-24
-82,-126,-43,104,-19,-85,43,-43,-39,-34,-34,-24
-78,-117,-39,97,-19,-78,39,-43,-39,-34,-24,-19
-73,-112,-39,92,-17,-75,39,-39,-39,-24,-19,-19
-58,-112,-53,85,-2,-82,34,-34,-29,-9,-4,-19
-53,-97,-43,75,-4,-70,19,-43,-24,-9,0,-14
-48,-87,-39,68,-4,-63,0,-63,-19,0,4,-4
-34,-68,-34,51,0,-51,-29,-82,-4,4,9,4
-14,-43,-29,29,7,-36,-63,-102,4,19,24,24
19,-4,-24,-7,21,-14,-97,-122,4,24,39,34
29,4,-24,-17,26,-9,-107,-122,4,24,39,34
19,-4,-24,-7,21,-14,-107,-126,-14,9,14,29
19,-4,-24,-7,21,-14,-112,-136,-24,-4,4,29
19,-19,-39,0,29,-29,-122,-151,-39,-9,4,24
24,-24,-48,0,36,-36,-131,-161,-43,-14,9,24
58,4,-53,-31,56,-24,-141,-156,-29,4,29,39
82,19,-63,-51,73,-21,-141,-146,-19,9,34,48
102,43,-58,-73,80,-7,-136,-141,-14,24,48,68
87,58,-29,-73,58,14,-112,-122,-4,34,58,73
68,34,-34,-51,51,0,-87,-117,-14,34,58,63
9,-14,-24,2,17,-19,-43,-107,-29,4,24,34
-43,-68,-24,56,-9,-46,0,-92,-43,-19,-4,9
-58,-92,-34,75,-12,-63,19,-87,-53,-34,-14,-4
-63,-117,-53,90,-4,-85,34,-78,-63,-48,-29,-19
-73,-141,-68,107,-2,-104,39,-68,-73,-58,-43,-34
-87,-175,-87,131,0,-131,58,-58,-87,-73,-68,-53
-112,-209,-97,161,-7,-153,68,-48,-107,-92,-92,-73
-112,-214,-102,163,-4,-158,78,-48,-107,-92,-92,-73
-112,-214,-102,163,-4,-158,78,-48,-112,-92,-92,-73
-107,-214,-107,161,0,-161,82,-48,-107,-97,-87,-73
-107,-219,-112,163,2,-165,87,-48,-107,-97,-82,-68
-112,-224,-112,168,0,-168,92,-48,-112,-97,-92,-68
-112,-224,-112,168,0,-168,92,-48,-112,-97,-92,-68
-107,-219,-112,163,2,-165,92,-43,-107,-97,-87,-68
-102,-214,-112,158,4,-163,92,-34,-107,-92,-78,-68
-102,-204,-102,153,0,-153,97,-34,-107,-92,-78,-73
-102,-204,-102,153,0,-153,97,-34,-107,-92,-78,-73
-107,-214,-107,161,0,-161,92,-39,-112,-97,-82,-73
-107,-229,-122,168,7,-175,87,-39,-112,-102,-87,-73
-126,-239,-112,183,-7,-175,92,-39,-112,-102,-92,-73
-131,-248,-117,190,-7,-183,102,-29,-107,-102,-92,-82
-122,-248,-126,185,2,-187,112,-4,-112,-102,-102,-82
-107,-244,-136,175,14,-190,117,14,-82,-73,-82,-73
-97,-239,-141,168,21,-190,136,39,-19,-29,-48,-68
-53,-146,-92,100,19,-119,112,39,141,131,87,9
9,48,39,-29,-14,43,19,-19,385,400,302,156
141,263,122,-202,9,192,-122,-48,649,697,551,346
395,497,102,-446,146,300,-302,19,936,1029,844,556
605,736,131,-671,236,434,-517,-29,1112,1273,1083,756
790,990,200,-890,295,595,-810,-283,1278,1542,1346,980
893,1185,292,-1039,300,739,-1088,-624,1293,1683,1522,1156
800,1268,468,-1034,165,868,-1268,-1166,1073,1566,1503,1224
551,1005,453,-778,48,729,-1224,-1503,463,1019,1132,1024
165,366,200,-265,-17,283,-814,-1327,-361,107,375,488
-141,-185,-43,163,-48,-114,-419,-1088,-941,-517,-180,68
-219,-448,-229,334,4,-339,-97,-702,-956,-639,-375,-146
-239,-468,-229,353,-4,-348,73,-395,-756,-570,-390,-200
-195,-409,-214,302,9,-312,161,-87,-522,-409,-302,-175
-175,-351,-175,263,0,-263,200,82,-361,-297,-239,-165
-136,-287,-151,212,7,-219,214,131,-214,-200,-180,-131
-97,-234,-136,165,19,-185,224,151,-136,-146,-131,-97
-97,-209,-112,153,7,-161,195,165,-102,-117,-112,-82
-97,-200,-102,148,2,-151,165,146,-92,-107,-102,-92
-102,-200,-97,151,-2,-148,161,122,-82,-102,-97,-92
-102,-204,-102,153,0,-153,161,122,-73,-92,-92,-87
-102,-214,-112,158,4,-163,161,126,-73,-92,-87,-82
-102,-219,-117,161,7,-168,165,136,-63,-87,-82,-78
-102,-219,-117,161,7,-168,165,136,-53,-87,-82,-78
-97,-214,-117,156,9,-165,165,136,-43,-82,-78,-78
-92,-204,-112,148,9,-158,165,136,-43,-87,-78,-82
-92,-200,-107,146,7,-153,165,146,-39,-87,-78,-87
-92,-195,-102,143,4,-148,161,146,-43,-82,-78,-82
-87,-195,-107,141,9,-151,161,146,-43,-82,-73,-82
-82,-190,-107,136,12,-148,165,156,-39,-78,-73,-82
-78,-185,-107,131,14,-146,170,165,-34,-73,-78,-78
-68,-175,-107,122,19,-141,170,165,-29,-73,-78,-78
-68,-165,-97,117,14,-131,165,170,-24,-73,-78,-78
-78,-185,-107,131,14,-146,161,175,-29,-78,-82,-87
-82,-204,-122,143,19,-163,161,175,-34,-87,-87,-97
-82,-204,-122,143,19,-163,161,190,-24,-87,-87,-97
-78,-195,-117,136,19,-156,161,195,-14,-78,-82,-92
-63,-180,-117,122,26,-148,170,204,0,-68,-78,-87
-53,-170,-117,112,31,-143,180,224,9,-58,-78,-82
-53,-170,-117,112,31,-143,175,234,14,-58,-68,-82
-53,-165,-112,109,29,-139,175,244,24,-53,-63,-82
-53,-165,-112,109,29,-139,170,248,29,-43,-58,-78
-48,-161,-112,104,31,-136,170,253,39,-39,-58,-78
-43,-151,-107,97,31,-129,170,263,53,-34,-43,-78
-48,-151,-102,100,26,-126,165,273,58,-34,-43,-78
-48,-151,-102,100,26,-126,165,287,68,-43,-48,-78
-43,-146,-102,95,29,-124,165,297,78,-43,-58,-78
-29,-141,-112,85,41,-126,161,312,87,-34,-53,-68
-14,-131,-117,73,51,-124,161,336,97,-24,-48,-53
0,-102,-102,51,51,-102,151,351,102,-14,-39,-53
19,-82,-102,31,61,-92,146,375,112,-4,-24,-53
29,-78,-107,24,68,-92,146,400,136,9,-19,-48
48,-73,-122,12,85,-97,146,419,141,19,-14,-48
53,-68,-122,7,87,-95,146,448,146,19,-4,-48
63,-63,-126,0,95,-95,146,478,156,24,4,-48
73,-48,-122,-12,97,-85,141,497,165,34,-4,-43
92,-43,-136,-24,114,-90,126,517,175,39,-4,-39
122,-24,-146,-48,134,-85,122,546,185,43,4,-29
146,-9,-156,-68,151,-82,117,570,195,53,14,-19
156,4,-151,-80,153,-73,112,580,204,68,39,0
175,19,-156,-97,165,-68,102,600,214,78,58,14
190,34,-156,-112,173,-61,87,600,219,78,58,24
200,43,-156,-122,178,-56,68,600,219,82,63,34
209,63,-146,-136,178,-41,58,595,224,92,78,48
219,78,-141,-148,180,-31,39,566,229,97,87,58
219,97,-122,-158,170,-12,14,522,219,112,107,73
219,122,-97,-170,158,12,-9,468,219,126,126,87
219,136,-82,-178,151,26,-29,405,209,136,141,107
219,151,-68,-185,143,41,-48,351,204,136,151,122
219,161,-58,-190,139,51,-63,292,185,136,151,131
214,161,-53,-187,134,53,-78,234,170,131,151,131
195,165,-29,-180,112,68,-82,180,151,122,141,126
175,165,-9,-170,92,78,-82,141,131,107,131,122
151,151,0,-151,75,75,-82,102,122,102,122,107
126,126,0,-126,63,63,-73,73,112,92,107,102
102,92,-9,-97,56,41,-68,34,97,78,97,87
63,48,-14,-56,39,17,-63,9,68,68,78,68
43,34,-9,-39,26,12,-53,-9,48,48,58,58
34,14,-19,-24,26,-2,-43,-19,29,34,43,43
14,-4,-19,-4,17,-12,-34,-29,14,29,34,29
-4,-24,-19,14,7,-21,-24,-39,4,19,19,19
-19,-43,-24,31,2,-34,-14,-48,-14,0,19,9
-29,-53,-24,41,-2,-39,-4,-48,-24,0,19,4
-39,-58,-19,48,-9,-39,0,-48,-34,0,14,-4
-39,-63,-24,51,-7,-43,9,-48,-34,-4,14,-9
-43,-73,-29,58,-7,-51,19,-53,-39,-24,0,-19
-43,-82,-39,63,-2,-61,34,-58,-53,-43,-19,-19
-58,-97,-39,78,-9,-68,24,-63,-53,-53,-34,-29
-68,-117,-48,92,-9,-82,19,-68,-58,-63,-48,-39
-68,-126,-58,97,-4,-92,19,-68,-63,-63,-43,-39
-63,-136,-73,100,4,-104,19,-68,-63,-53,-34,-39
-63,-126,-63,95,0,-95,24,-58,-63,-53,-29,-29
-63,-117,-53,90,-4,-85,29,-58,-58,-53,-29,-24
-63,-112,-48,87,-7,-80,29,-58,-58,-53,-34,-19
-58,-107,-48,82,-4,-78,29,-58,-58,-53,-34,-19
-58,-107,-48,82,-4,-78,29,-58,-63,-53,-34,-29
-58,-107,-48,82,-4,-78,29,-58,-68,-58,-34,-39
-68,-107,-39,87,-14,-73,29,-58,-68,-58,-39,-39
-73,-107,-34,90,-19,-70,24,-58,-68,-63,-43,-43
-68,-107,-39,87,-14,-73,24,-58,-73,-63,-43,-43
-58,-107,-48,82,-4,-78,24,-58,-78,-63,-43,-43
-58,-107,-48,82,-4,-78,29,-53,-78,-63,-43,-43
-58,-107,-48,82,-4,-78,29,-53,-78,-68,-43,-43
-68,-107,-39,87,-14,-73,24,-58,-78,-73,-53,-48
-78,-107,-29,92,-24,-68,19,-63,-78,-78,-63,-58
-78,-107,-29,92,-24,-68,24,-58,-73,-78,-63,-58
-78,-107,-29,92,-24,-68,34,-53,-73,-78,-63,-58
-73,-97,-24,85,-24,-61,39,-53,-73,-68,-58,-53
-78,-87,-9,82,-34,-48,34,-63,-73,-63,-53,-48
-78,-87,-9,82,-34,-48,34,-63,-73,-63,-53,-48
-82,-92,-9,87,-36,-51,39,-63,-73,-63,-53,-48
-82,-102,-19,92,-31,-61,34,-53,-73,-63,-53,-53
-78,-112,-34,95,-21,-73,29,-53,-73,-63,-58,-58
-78,-97,-19,87,-29,-58,29,-53,-73,-68,-53,-58
-78,-87,-9,82,-34,-48,29,-58,-73,-68,-48,-58
-78,-87,-9,82,-34,-48,39,-58,-73,-63,-48,-53
-73,-87,-14,80,-29,-51,48,-58,-73,-58,-48,-48
-73,-87,-14,80,-29,-51,43,-53,-73,-58,-48,-48
-73,-87,-14,80,-29,-51,34,-53,-73,-58,-48,-53
-82,-97,-14,90,-34,-56,34,-58,-78,-63,-53,-58
-92,-107,-14,100,-39,-61,34,-63,-78,-73,-58,-58
-87,-97,-9,92,-39,-53,29,-63,-73,-73,-63,-58
-82,-92,-9,87,-36,-51,24,-68,-73,-78,-73,-63
-78,-82,-4,80,-36,-43,24,-58,-68,-73,-68,-58
-78,-78,0,78,-39,-39,29,-48,-68,-68,-68,-58
-73,-68,4,70,-39,-31,29,-48,-63,-63,-53,-48
-68,-58,9,63,-39,-24,29,-48,-58,-58,-39,-39
-68,-43,24,56,-46,-9,24,-48,-53,-48,-39,-39
-68,-39,29,53,-48,-4,19,-48,-43,-39,-34,-34
-68,-34,34,51,-51,0,14,-53,-39,-34,-34,-34
-68,-39,29,53,-48,-4,9,-53,-39,-34,-34,-29
-63,-34,29,48,-46,-2,4,-53,-43,-39,-34,-29
-48,-34,14,41,-31,-9,-4,-53,-39,-39,-24,-29
-43,-4,39,24,-41,17,-24,-73,-34,-39,-24,-24
-39,19,58,9,-48,39,-48,-102,-29,-29,-24,-14
-24,29,53,-2,-39,41,-73,-122,-19,-24,-19,-4
-4,43,48,-19,-26,46,-102,-141,-14,-9,-4,14
19,73,53,-46,-17,63,-131,-161,-14,0,24,24
19,73,53,-46,-17,63,-136,-161,-14,4,39,24
9,63,53,-36,-21,58,-136,-165,-34,-4,14,19
9,63,53,-36,-21,58,-141,-175,-43,-14,4,19
29,73,43,-51,-7,58,-151,-180,-53,-14,4,19
53,92,39,-73,7,65,-161,-180,-53,-14,9,24
78,122,43,-100,17,82,-151,-165,-39,4,34,43
92,136,43,-114,24,90,-131,-146,-29,9,43,58
97,136,39,-117,29,87,-136,-151,-24,19,53,73
68,126,58,-97,4,92,-122,-141,-14,24,58,73
39,97,58,-68,-9,78,-102,-136,-24,19,53,58
-29,43,73,-7,-51,58,-63,-126,-39,-14,14,24
-63,-9,53,36,-58,21,-24,-112,-63,-43,-29,-9
-58,-34,24,46,-41,-4,-9,-107,-82,-63,-53,-34
-58,-48,9,53,-34,-19,4,-97,-92,-78,-68,-48
-63,-63,0,63,-31,-31,9,-87,-102,-87,-82,-63
-73,-82,-9,78,-31,-46,29,-78,-107,-92,-82,-78
-92,-102,-9,97,-41,-56,39,-68,-117,-102,-82,-92
-97,-107,-9,102,-43,-58,48,-68,-117,-102,-82,-87
-102,-107,-4,104,-48,-56,48,-68,-122,-102,-82,-82
-97,-107,-9,102,-43,-58,48,-63,-122,-107,-87,-87
-97,-112,-14,104,-41,-63,48,-58,-126,-107,-92,-87
-102,-122,-19,112,-41,-70,53,-58,-131,-112,-102,-87
-102,-126,-24,114,-39,-75,53,-58,-131,-117,-102,-87
-102,-141,-39,122,-31,-90,53,-58,-126,-122,-97,-87
-102,-156,-53,129,-24,-104,53,-53,-126,-122,-87,-87
-102,-146,-43,124,-29,-95,58,-53,-126,-122,-87,-92
-102,-146,-43,124,-29,-95,58,-53,-126,-122,-87,-92
-107,-141,-34,124,-36,-87,58,-58,-131,-122,-92,-92
-107,-141,-34,124,-36,-87,58,-58,-131,-122,-97,-92
-117,-136,-19,126,-48,-78,63,-58,-131,-122,-102,-92
-112,-131,-19,122,-46,-75,73,-48,-126,-122,-102,-102
-102,-131,-29,117,-36,-80,73,-24,-122,-122,-107,-102
-87,-126,-39,107,-24,-82,68,-4,-82,-92,-82,-92
-78,-122,-43,100,-17,-82,73,19,9,-4,-29,-68
-34,-29,4,31,-19,-12,34,19,200,200,126,29
73,204,131,-139,-29,168,-63,-48,458,488,366,190
248,458,209,-353,19,334,-209,-87,736,805,639,395
453,683,229,-568,112,456,-390,-63,1039,1161,961,624
614,912,297,-763,158,605,-605,-156,1229,1429,1229,844
766,1156,390,-961,187,773,-888,-429,1351,1649,1459,1044
834,1342,507,-1088,163,924,-1156,-790,1322,1742,1600,1195
707,1366,658,-1037,24,1012,-1268,-1200,1019,1532,1488,1200
424,1044,619,-734,-97,832,-1156,-1405,326,893,1024,936
87,429,341,-258,-126,385,-746,-1205,-453,0,283,405
-170,-97,73,134,-122,-12,-351,-941,-990,-605,-258,-9
-239,-366,-126,302,-56,-246,-68,-580,-980,-702,-439,-214
-248,-390,-141,319,-53,-265,63,-297,-756,-610,-439,-258
-200,-331,-131,265,-34,-231,146,-34,-522,-448,-336,-224
-175,-273,-97,224,-39,-185,180,92,-361,-336,-258,-204
-131,-200,-68,165,-31,-134,180,122,-229,-229,-195,-170
-87,-136,-48,112,-19,-92,175,122,-165,-165,-141,-136
-87,-112,-24,100,-31,-68,151,131,-131,-141,-122,-117
-87,-102,-14,95,-36,-58,126,107,-122,-136,-112,-122
-92,-97,-4,95,-43,-51,122,82,-112,-136,-112,-122
-92,-97,-4,95,-43,-51,122,82,-102,-131,-112,-117
-92,-107,-14,100,-39,-61,117,87,-102,-136,-112,-117
-92,-112,-19,102,-36,-65,117,97,-92,-136,-112,-117
-92,-112,-19,102,-36,-65,117,97,-87,-136,-112,-117
-87,-107,-19,97,-34,-63,117,97,-82,-131,-107,-117
-82,-102,-19,92,-31,-61,117,97,-78,-126,-97,-112
-82,-102,-19,92,-31,-61,117,107,-68,-117,-87,-107
-78,-87,-9,82,-34,-48,112,107,-68,-112,-97,-102
-68,-78,-9,73,-29,-43,112,107,-63,-112,-102,-102
-68,-78,-9,73,-29,-43,117,117,-63,-117,-107,-112
-68,-78,-9,73,-29,-43,122,126,-63,-122,-117,-117
-58,-82,-24,70,-17,-53,122,117,-58,-122,-117,-117
-58,-87,-29,73,-14,-58,117,112,-53,-122,-117,-117
-58,-87,-29,73,-14,-58,122,131,-48,-117,-117,-117
-53,-87,-34,70,-9,-61,131,146,-43,-117,-117,-117
-53,-92,-39,73,-7,-65,131,161,-34,-117,-112,-117
-48,-87,-39,68,-4,-63,131,165,-24,-107,-102,-112
-43,-82,-39,63,-2,-61,126,161,-19,-102,-97,-112
-43,-82,-39,63,-2,-61,122,165,-19,-97,-97,-112
-48,-87,-39,68,-4,-63,117,175,-14,-97,-92,-112
-53,-87,-34,70,-9,-61,117,185,-4,-92,-92,-112
-48,-82,-34,65,-7,-58,117,195,0,-82,-87,-112
-39,-73,-34,56,-2,-53,122,204,9,-78,-87,-117
-19,-48,-29,34,4,-39,122,214,29,-68,-73,-112
-9,-34,-24,21,7,-29,117,224,39,-63,-73,-107
-9,-34,-24,21,7,-29,117,234,43,-68,-73,-107
-4,-29,-24,17,9,-26,117,239,48,-63,-78,-107
0,-29,-29,14,14,-29,112,248,53,-58,-82,-107
4,-24,-29,9,17,-26,112,268,58,-53,-87,-102
9,-9,-19,0,14,-14,107,283,68,-53,-82,-102
19,-4,-24,-7,21,-14,107,307,82,-53,-73,-102
29,9,-19,-19,24,-4,112,326,112,-39,-68,-92
48,24,-24,-36,36,0,117,341,122,-29,-63,-87
53,19,-34,-36,43,-7,117,370,126,-39,-53,-82
63,14,-48,-39,56,-17,117,400,136,-43,-43,-78
73,39,-34,-56,53,2,112,419,151,-19,-39,-68
92,53,-39,-73,65,7,97,439,165,0,-24,-58
117,68,-48,-92,82,9,92,458,175,4,-4,-48
136,78,-58,-107,97,9,87,473,185,14,14,-39
136,87,-48,-112,92,19,82,473,195,24,19,-29
146,97,-48,-122,97,24,73,483,204,29,19,-24
165,117,-48,-141,107,34,58,483,209,34,24,-14
180,131,-48,-156,114,41,39,483,209,43,34,-4
200,165,-34,-183,117,65,29,478,209,53,48,14
219,195,-24,-207,122,85,9,448,209,58,58,29
219,209,-9,-214,114,100,-9,409,204,68,78,48
219,229,9,-224,104,119,-29,361,209,78,97,68
219,239,19,-229,100,129,-48,302,195,87,112,82
219,248,29,-234,95,139,-68,253,185,87,122,92
200,253,53,-226,73,153,-82,200,165,92,117,97
175,248,73,-212,51,161,-97,146,151,92,112,92
151,234,82,-192,34,158,-102,102,131,82,102,87
126,214,87,-170,19,151,-102,73,112,68,92,82
117,214,97,-165,9,156,-102,34,87,63,97,68
107,204,97,-156,4,151,-92,4,63,53,97,63
92,185,92,-139,0,139,-87,-19,48,29,82,58
63,156,92,-109,-14,124,-82,-29,19,9,58,48
43,146,102,-95,-29,124,-73,-48,4,-4,39,29
34,131,97,-82,-31,114,-63,-58,-9,-14,24,4
19,112,92,-65,-36,102,-53,-63,-24,-24,14,-9
4,92,87,-48,-41,90,-43,-68,-34,-39,0,-19
-9,63,73,-26,-41,68,-34,-78,-58,-58,-9,-34
-19,43,63,-12,-41,53,-24,-78,-73,-58,-19,-43
-34,34,68,0,-51,51,-19,-78,-82,-68,-34,-53
-39,24,63,7,-51,43,-9,-78,-82,-82,-43,-58
-43,14,58,14,-51,36,-9,-78,-87,-87,-53,-68
-43,4,48,19,-46,26,-4,-78,-102,-92,-68,-68
-53,0,53,26,-53,26,-9,-87,-102,-92,-68,-73
-58,-9,48,34,-53,19,-9,-97,-107,-92,-68,-78
-58,-4,53,31,-56,24,-9,-97,-112,-102,-73,-78
-53,0,53,26,-53,26,-9,-97,-112,-102,-73,-78
-53,0,53,26,-53,26,0,-87,-112,-107,-68,-73
-53,0,53,26,-53,26,9,-87,-107,-112,-68,-73
-53,0,53,26,-53,26,9,-92,-107,-112,-73,-68
-48,0,48,24,-48,24,9,-97,-107,-112,-73,-68
-53,-4,48,29,-51,21,4,-97,-112,-107,-68,-73
-58,-9,48,34,-53,19,0,-97,-117,-107,-63,-78
-68,-14,53,41,-61,19,0,-92,-117,-107,-68,-87
-73,-19,53,46,-63,17,-4,-87,-117,-112,-73,-102
-68,-9,58,39,-63,24,-4,-87,-117,-107,-73,-87
-58,0,58,29,-58,29,-4,-87,-117,-102,-73,-73
-53,0,53,26,-53,26,0,-82,-112,-102,-73,-73
-48,0,48,24,-48,24,0,-82,-107,-107,-73,-73
-48,0,48,24,-48,24,-4,-82,-107,-107,-73,-73
-48,0,48,24,-48,24,-9,-82,-107,-107,-73,-78
-48,0,48,24,-48,24,-4,-78,-102,-112,-73,-78
-48,0,48,24,-48,24,4,-73,-102,-117,-73,-78
-48,0,48,24,-48,24,4,-78,-107,-112,-78,-82
-58,0,58,29,-58,29,-4,-92,-112,-112,-82,-87
-58,0,58,29,-58,29,-4,-92,-112,-112,-82,-87
-63,-4,58,34,-61,26,0,-92,-112,-112,-82,-87
-63,0,63,31,-63,31,0,-82,-112,-112,-82,-92
-58,4,63,26,-61,34,0,-82,-112,-112,-87,-97
-58,9,68,24,-63,39,0,-82,-112,-122,-102,-97
-58,9,68,24,-63,39,0,-87,-112,-126,-117,-97
-63,9,73,26,-68,41,0,-87,-112,-126,-107,-97
-63,9,73,26,-68,41,0,-87,-112,-126,-97,-97
-68,4,73,31,-70,39,4,-82,-112,-117,-87,-92
-73,0,73,36,-73,36,4,-82,-112,-107,-78,-92
-73,0,73,36,-73,36,4,-82,-112,-102,-78,-92
-73,0,73,36,-73,36,4,-82,-107,-102,-78,-87
-73,0,73,36,-73,36,4,-82,-107,-107,-82,-87
-73,0,73,36,-73,36,4,-82,-112,-117,-92,-92
-63,4,68,29,-65,36,0,-78,-102,-112,-92,-87
-58,9,68,24,-63,39,0,-78,-97,-107,-97,-87
-58,9,68,24,-63,39,0,-78,-97,-107,-87,-87
-58,9,68,24,-63,39,0,-78,-97,-107,-78,-87
-58,19,78,19,-68,48,-4,-78,-92,-102,-78,-87
-53,34,87,9,-70,61,-9,-78,-87,-97,-73,-82
-53,48,102,2,-78,75,-14,-82,-82,-92,-73,-82
-48,63,112,-7,-80,87,-14,-82,-78,-92,-68,-82
-48,58,107,-4,-78,82,-19,-87,-78,-92,-63,-78
-48,53,102,-2,-75,78,-24,-92,-78,-87,-63,-78
-39,53,92,-7,-65,73,-39,-92,-68,-68,-53,-78
-34,68,102,-17,-68,85,-58,-107,-63,-58,-48,-73
-29,87,117,-29,-73,102,-78,-131,-58,-48,-43,-58
-14,117,131,-51,-73,124,-102,-151,-48,-43,-39,-43
4,141,136,-73,-65,139,-122,-170,-48,-39,-29,-24
29,170,141,-100,-56,156,-146,-190,-53,-43,-19,-14
29,170,141,-100,-56,156,-156,-190,-53,-43,-29,-14
19,161,141,-90,-61,151,-156,-195,-73,-53,-53,-19
19,161,141,-90,-61,151,-161,-204,-78,-58,-34,-14
39,161,122,-100,-41,141,-170,-209,-82,-53,-14,-9
58,165,107,-112,-24,136,-180,-204,-82,-53,-9,-4
78,190,112,-134,-17,151,-180,-195,-68,-34,9,9
78,190,112,-134,-17,151,-161,-180,-58,-29,14,14
73,185,112,-129,-19,148,-146,-170,-53,-19,24,24
48,170,122,-109,-36,146,-122,-151,-53,-34,9,9
29,131,102,-80,-36,117,-97,-141,-73,-53,-9,-14
-19,97,117,-39,-68,107,-63,-126,-87,-73,-43,-43
-53,58,112,-2,-82,85,-34,-112,-107,-87,-73,-68
-53,39,92,7,-73,65,-19,-107,-122,-102,-78,-82
-53,19,73,17,-63,46,-4,-97,-131,-117,-87,-97
-63,0,63,31,-63,31,0,-97,-141,-122,-102,-102
-73,-19,53,46,-63,17,19,-97,-146,-126,-117,-107
-87,-43,43,65,-65,0,24,-87,-156,-141,-131,-117
-82,-48,34,65,-58,-7,29,-87,-156,-141,-131,-112
-82,-48,34,65,-58,-7,29,-82,-161,-141,-131,-112
-78,-48,29,63,-53,-9,29,-78,-161,-146,-131,-117
-78,-53,24,65,-51,-14,29,-73,-165,-146,-126,-122
-82,-58,24,70,-53,-17,34,-68,-170,-151,-131,-126
-82,-58,24,70,-53,-17,34,-68,-170,-156,-131,-126
-82,-58,24,70,-53,-17,34,-68,-165,-156,-131,-126
-78,-53,24,65,-51,-14,34,-68,-165,-156,-131,-126
-73,-48,24,61,-48,-12,39,-73,-165,-161,-136,-131
-73,-58,14,65,-43,-21,34,-82,-165,-161,-136,-131
-78,-58,19,68,-48,-19,29,-97,-170,-165,-141,-131
-78,-68,9,73,-43,-29,29,-87,-170,-165,-146,-131
-92,-73,19,82,-56,-26,34,-78,-170,-161,-151,-131
-92,-73,19,82,-56,-26,43,-68,-141,-136,-131,-136
-82,-73,9,78,-46,-31,48,-43,-107,-102,-107,-131
-48,-19,29,34,-39,4,34,-34,-14,-4,-19,-78
-19,48,68,-14,-43,58,29,-19,131,141,87,-4
68,190,122,-129,-26,156,-48,-19,366,390,283,126
190,419,229,-305,-19,324,-185,-78,663,722,561,317
317,663,346,-490,-14,505,-351,-161,922,1039,834,531
527,912,385,-719,70,649,-556,-180,1180,1371,1127,751
663,1122,458,-893,102,790,-761,-331,1283,1561,1327,936
766,1351,585,-1058,90,968,-1034,-683,1327,1727,1517,1122
736,1356,619,-1046,58,988,-1176,-932,1049,1566,1464,1127
531,1200,668,-866,-68,934,-1166,-1229,527,1102,1166,990
292,839,546,-566,-126,692,-990,-1317,-53,517,712,702
-19,200,219,-90,-119,209,-527,-990,-736,-307,-4,165
-204,-185,19,195,-112,-82,-219,-736,-1088,-736,-390,-131
-200,-302,-102,251,-48,-202,-9,-390,-878,-663,-439,-244
-200,-278,-78,239,-61,-178,87,-180,-658,-561,-424,-273
-146,-195,-48,170,-48,-122,136,14,-434,-390,-307,-224
-126,-146,-19,136,-53,-82,156,97,-302,-292,-244,-204
-92,-97,-4,95,-43,-51,141,82,-209,-219,-200,-170
-58,-58,0,58,-29,-29,136,82,-156,-170,-151,-136
-58,-43,14,51,-36,-14,117,97,-131,-151,-131,-122
-58,-39,19,48,-39,-9,97,78,-122,-151,-131,-131
-58,-39,19,48,-39,-9,92,53,-112,-156,-141,-131
-63,-43,19,53,-41,-12,92,53,-112,-151,-141,-131
-73,-53,19,63,-46,-17,92,58,-122,-151,-141,-136
-73,-53,19,63,-46,-17,97,68,-112,-151,-146,-136
-73,-53,19,63,-46,-17,97,68,-107,-156,-151,-136
-68,-43,24,56,-46,-9,97,73,-102,-151,-146,-136
-63,-34,29,48,-46,-2,97,78,-102,-151,-146,-136
-63,-34,29,48,-46,-2,97,87,-92,-141,-136,-131
-63,-29,34,46,-48,2,92,87,-87,-131,-126,-122
-63,-34,29,48,-46,-2,92,82,-82,-131,-122,-122
-68,-39,29,53,-48,-4,97,87,-78,-131,-122,-126
-68,-39,29,53,-48,-4,102,97,-73,-131,-126,-131
-58,-39,19,48,-39,-9,102,97,-68,-131,-126,-136
-48,-34,14,41,-31,-9,102,102,-63,-126,-126,-136
-43,-29,14,36,-29,-7,107,107,-58,-117,-126,-136
-43,-29,14,36,-29,-7,112,107,-53,-117,-126,-131
-43,-29,14,36,-29,-7,112,122,-43,-117,-126,-126
-43,-24,19,34,-31,-2,112,126,-34,-107,-117,-117
-43,-24,19,34,-31,-2,112,126,-24,-102,-107,-112
-43,-24,19,34,-31,-2,112,136,-14,-97,-107,-112
-43,-24,19,34,-31,-2,107,146,-4,-97,-102,-112
-43,-14,29,29,-36,7,107,156,4,-97,-102,-117
-39,-4,34,21,-36,14,107,165,14,-92,-97,-117
-29,9,39,9,-34,24,112,175,19,-87,-102,-122
-14,24,39,-4,-26,31,112,185,29,-78,-92,-122
0,34,34,-17,-17,34,107,195,53,-73,-92,-117
9,43,34,-26,-12,39,107,204,78,-73,-87,-117
4,39,34,-21,-14,36,102,204,78,-63,-92,-117
0,34,34,-17,-17,34,92,214,78,-53,-92,-112
-4,29,34,-12,-19,31,92,239,87,-48,-87,-102
-4,29,34,-12,-19,31,87,253,97,-48,-82,-102
19,48,29,-34,-4,39,92,278,112,-43,-73,-97
39,78,39,-58,0,58,97,297,136,-29,-68,-82
68,92,24,-80,21,58,97,307,146,-14,-63,-78
87,102,14,-95,36,58,92,331,156,-9,-53,-73
87,97,9,-92,39,53,87,356,165,-4,-43,-68
82,97,14,-90,34,56,82,370,175,4,-43,-63
102,112,9,-107,46,61,68,390,190,14,-29,-58
126,136,9,-131,58,73,63,409,204,24,-14,-48
146,146,0,-146,73,73,58,419,214,34,-4,-39
156,161,4,-158,75,82,53,424,224,48,9,-24
170,175,4,-173,82,90,43,434,224,58,19,-14
185,195,9,-190,87,102,29,424,219,63,29,-4
200,209,9,-204,95,109,9,419,219,73,43,9
209,229,19,-219,95,124,0,409,219,82,58,34
219,244,24,-231,97,134,-19,380,219,82,68,48
219,258,39,-239,90,148,-39,341,209,87,82,63
214,278,63,-246,75,170,-53,297,209,97,97,73
209,292,82,-251,63,187,-68,244,195,107,112,82
209,307,97,-258,56,202,-87,200,180,107,122,92
200,317,117,-258,41,217,-97,151,156,107,122,102
185,317,131,-251,26,224,-107,102,136,102,117,102
161,302,141,-231,9,222,-112,58,112,92,102,97
136,278,141,-207,-2,209,-112,29,92,78,92,92
112,258,146,-185,-17,202,-112,-4,68,73,82,73
87,234,146,-161,-29,190,-102,-24,43,63,68,63
73,209,136,-141,-31,173,-97,-43,29,39,53,48
58,180,122,-119,-31,151,-82,-53,0,19,29,29
53,170,117,-112,-31,143,-63,-68,-19,0,9,19
43,151,107,-97,-31,129,-53,-78,-39,-14,-4,4
29,131,102,-80,-36,117,-43,-82,-53,-24,-14,-9
4,97,92,-51,-43,95,-48,-87,-63,-43,-34,-24
-19,58,78,-19,-48,68,-53,-97,-82,-68,-48,-43
-29,43,73,-7,-51,58,-43,-97,-92,-68,-58,-53
-43,34,78,4,-61,56,-39,-97,-102,-78,-73,-63
-43,39,82,2,-63,61,-29,-97,-102,-87,-78,-68
-43,43,87,0,-65,65,-29,-97,-107,-87,-78,-78
-43,34,78,4,-61,56,-24,-92,-112,-87,-82,-68
-53,29,82,12,-68,56,-24,-92,-102,-82,-78,-63
-58,14,73,21,-65,43,-19,-97,-107,-82,-78,-68
-58,9,68,24,-63,39,-19,-97,-112,-92,-82,-68
-53,9,63,21,-58,36,-19,-102,-117,-97,-87,-73
-53,9,63,21,-58,36,-14,-97,-122,-102,-87,-73
-53,14,68,19,-61,41,-9,-97,-117,-102,-87,-73
-53,19,73,17,-63,46,-9,-97,-117,-102,-92,-68
-39,24,63,7,-51,43,-9,-97,-117,-102,-92,-68
-29,29,58,0,-43,43,-9,-97,-122,-102,-92,-73
-39,29,68,4,-53,48,-9,-97,-126,-107,-102,-78
-58,24,82,17,-70,53,-9,-97,-126,-107,-117,-78
-73,9,82,31,-78,46,-14,-92,-126,-112,-112,-82
-82,0,82,41,-82,41,-14,-87,-126,-112,-102,-82
-68,0,68,34,-68,34,-14,-87,-126,-112,-102,-82
-58,0,58,29,-58,29,-9,-82,-126,-112,-102,-82
-53,9,63,21,-58,36,-9,-82,-122,-112,-97,-78
-48,19,68,14,-58,43,-9,-82,-117,-107,-92,-73
-39,34,73,2,-56,53,-9,-82,-117,-107,-92,-78
-29,48,78,-9,-53,63,-4,-78,-112,-107,-92,-78
-43,29,73,7,-58,51,4,-73,-117,-117,-102,-82
-58,9,68,24,-63,39,4,-73,-122,-122,-112,-87
-73,-4,68,39,-70,31,-14,-92,-122,-122,-112,-87
-78,-19,58,48,-68,19,-24,-102,-122,-122,-112,-87
-82,-14,68,48,-75,26,-9,-92,-122,-117,-107,-82
-82,-4,78,43,-80,36,0,-73,-122,-112,-102,-78
-73,-4,68,39,-70,31,0,-73,-122,-112,-107,-78
-68,0,68,34,-68,34,0,-73,-122,-117,-107,-78
-68,4,73,31,-70,39,0,-82,-117,-112,-107,-78
-73,9,82,31,-78,46,0,-87,-112,-107,-107,-78
-73,9,82,31,-78,46,0,-87,-112,-107,-107,-87
-73,9,82,31,-78,46,4,-82,-112,-107,-107,-97
-73,4,78,34,-75,41,4,-82,-117,-112,-107,-102
-73,0,73,36,-73,36,4,-82,-122,-112,-107,-102
-73,0,73,36,-73,36,4,-82,-117,-112,-107,-92
-73,0,73,36,-73,36,4,-82,-117,-112,-107,-87
-63,9,73,26,-68,41,4,-78,-122,-102,-102,-82
-58,19,78,19,-68,48,9,-78,-126,-97,-97,-78
-58,19,78,19,-68,48,9,-78,-117,-97,-97,-78
-58,19,78,19,-68,48,9,-78,-107,-97,-97,-78
-63,14,78,24,-70,46,4,-78,-107,-97,-102,-78
-63,14,78,24,-70,46,0,-78,-102,-92,-102,-73
-68,19,87,24,-78,53,-4,-82,-102,-92,-102,-68
-68,24,92,21,-80,58,-4,-82,-97,-92,-97,-63
-58,34,92,12,-75,63,-4,-82,-97,-92,-87,-58
-48,43,92,2,-70,68,-4,-82,-97,-87,-82,-58
-39,48,87,-4,-63,68,-9,-73,-82,-73,-73,-53
-34,68,102,-17,-68,85,-19,-78,-73,-68,-68,-43
-19,92,112,-36,-65,102,-39,-102,-68,-58,-63,-34
4,126,122,-65,-58,124,-63,-122,-58,-53,-58,-24
-9,117,126,-53,-68,122,-102,-151,-53,-43,-43,-14
-19,112,131,-46,-75,122,-146,-180,-53,-43,-29,-14
-9,122,131,-56,-70,126,-156,-180,-53,-43,-29,-14
-9,122,131,-56,-70,126,-156,-185,-73,-53,-43,-19
-9,122,131,-56,-70,126,-161,-190,-82,-58,-43,-14
9,122,112,-65,-51,117,-170,-190,-92,-53,-43,-9
34,131,97,-82,-31,114,-180,-190,-92,-53,-39,0
58,161,102,-109,-21,131,-180,-185,-78,-34,-19,19
92,185,92,-139,0,139,-161,-175,-63,-24,-14,29
122,204,82,-163,19,143,-146,-170,-53,-9,-4,43
97,214,117,-156,-9,165,-131,-156,-43,-4,0,43
78,200,122,-139,-21,161,-117,-151,-53,-4,0,34
4,131,126,-68,-61,129,-87,-146,-73,-39,-34,0
-53,58,112,-2,-82,85,-63,-141,-97,-68,-63,-29
-58,34,92,12,-75,63,-34,-126,-112,-82,-73,-43
-63,9,73,26,-68,41,-4,-107,-122,-97,-87,-58
-73,-14,58,43,-65,21,0,-92,-131,-107,-102,-73
-82,-39,43,61,-63,2,19,-78,-136,-117,-117,-87
-102,-68,34,85,-68,-17,34,-68,-146,-136,-131,-107
-102,-78,24,90,-63,-26,48,-68,-146,-141,-131,-112
-97,-78,19,87,-58,-29,48,-68,-151,-141,-131,-112
-87,-78,9,82,-48,-34,48,-68,-151,-146,-131,-117
-87,-82,4,85,-46,-39,48,-68,-156,-146,-131,-117
-92,-87,4,90,-48,-41,53,-68,-161,-151,-141,-117
-92,-87,4,90,-48,-41,53,-68,-161,-156,-141,-112
-92,-87,4,90,-48,-41,53,-68,-156,-156,-141,-107
-92,-87,4,90,-48,-41,53,-63,-156,-151,-136,-107
-92,-87,4,90,-48,-41,58,-63,-156,-151,-136,-112
-92,-97,-4,95,-43,-51,58,-58,-161,-151,-141,-117
-97,-97,0,97,-48,-48,58,-58,-170,-156,-151,-122
-97,-102,-4,100,-46,-53,58,-58,-170,-161,-156,-122
-112,-102,9,107,-61,-46,63,-58,-170,-161,-161,-122
-112,-102,9,107,-61,-46,73,-53,-170,-165,-165,-136
-102,-102,0,102,-51,-51,78,-34,-165,-161,-165,-141
-102,-126,-24,114,-39,-75,82,-14,-165,-161,-161,-151
-107,-136,-29,122,-39,-82,97,9,-112,-112,-136,-141
-82,-53,29,68,-56,-12,87,19,73,63,-4,-63
-24,117,141,-46,-82,129,19,-29,322,322,209,73
92,331,239,-212,-73,285,-102,-58,624,653,483,278
292,551,258,-422,17,405,-263,-24,927,1000,775,488
492,780,287,-636,102,534,-463,-34,1151,1293,1044,702
658,1029,370,-844,143,700,-732,-244,1317,1561,1302,917
824,1342,517,-1083,153,929,-1088,-629,1429,1849,1605,1176
814,1493,678,-1154,68,1085,-1293,-1063,1298,1834,1664,1293
566,1234,668,-900,-51,951,-1273,-1400,595,1195,1249,1093
244,697,453,-470,-104,575,-966,-1322,-209,317,570,644
-73,68,141,2,-107,104,-512,-1058,-951,-468,-107,151
-200,-292,-92,246,-53,-192,-156,-702,-1132,-751,-448,-156
-224,-331,-107,278,-58,-219,4,-395,-883,-668,-478,-234
-195,-312,-117,253,-39,-214,117,-102,-629,-517,-405,-234
-175,-253,-78,214,-48,-165,161,43,-424,-375,-312,-214
-141,-195,-53,168,-43,-124,170,92,-258,-258,-239,-180
-97,-141,-43,119,-26,-92,165,92,-185,-200,-190,-136
-87,-112,-24,100,-31,-68,146,107,-141,-170,-170,-112
-87,-97,-9,92,-39,-53,126,92,-126,-156,-151,-122
-87,-87,0,87,-43,-43,122,73,-112,-146,-141,-122
-82,-87,-4,85,-39,-46,122,73,-102,-141,-141,-117
-82,-92,-9,87,-36,-51,122,78,-102,-141,-141,-117
-87,-97,-9,92,-39,-53,126,87,-92,-126,-141,-117
-92,-102,-9,97,-41,-56,126,87,-87,-117,-141,-117
-87,-97,-9,92,-39,-53,126,87,-82,-122,-136,-122
-82,-92,-9,87,-36,-51,126,87,-82,-131,-136,-126
-82,-102,-19,92,-31,-61,126,97,-78,-126,-136,-126
-82,-107,-24,95,-29,-65,122,97,-78,-122,-136,-122
-87,-107,-19,97,-34,-63,122,97,-73,-122,-131,-122
-97,-107,-9,102,-43,-58,126,107,-68,-122,-131,-126
-97,-107,-9,102,-43,-58,131,117,-63,-122,-136,-126
-87,-107,-19,97,-34,-63,131,117,-58,-122,-136,-126
-82,-97,-14,90,-34,-56,126,122,-53,-122,-136,-126
-82,-87,-4,85,-39,-46,126,126,-48,-117,-136,-126
-82,-87,-4,85,-39,-46,131,126,-43,-117,-136,-126
-82,-87,-4,85,-39,-46,131,141,-34,-117,-136,-126
-78,-78,0,78,-39,-39,131,146,-24,-107,-131,-122
-73,-73,0,73,-36,-36,131,146,-14,-102,-126,-122
-73,-73,0,73,-36,-36,131,151,-4,-97,-126,-122
-73,-73,0,73,-36,-36,126,156,4,-97,-122,-122
-73,-68,4,70,-39,-31,126,165,14,-92,-122,-122
-68,-63,4,65,-36,-29,126,175,24,-82,-117,-117
-58,-58,0,58,-29,-29,131,185,34,-78,-122,-117
-43,-53,-9,48,-17,-31,131,195,48,-68,-112,-112
-39,-53,-14,46,-12,-34,126,204,58,-63,-112,-107
-39,-53,-14,46,-12,-34,126,214,68,-63,-107,-107
-29,-48,-19,39,-4,-34,126,219,78,-53,-102,-107
-19,-43,-24,31,2,-34,122,234,87,-43,-92,-102
-14,-34,-19,24,2,-26,126,258,102,-29,-82,-82
-4,-19,-14,12,4,-17,126,273,117,-19,-73,-73
9,-14,-24,2,17,-19,126,297,131,-14,-63,-73
19,0,-19,-9,19,-9,126,317,156,0,-58,-63
29,9,-19,-19,24,-4,122,312,161,9,-53,-63
29,14,-14,-21,21,0,112,322,165,9,-43,-63
39,14,-24,-26,31,-4,107,351,175,14,-34,-58
43,19,-24,-31,34,-2,102,370,185,24,-34,-53
63,24,-39,-43,51,-7,92,395,200,29,-24,-48
87,39,-48,-63,68,-4,92,419,214,34,-14,-39
107,48,-58,-78,82,-4,87,434,224,43,-4,-24
117,63,-53,-90,85,4,82,444,234,58,9,-4
141,82,-58,-112,100,12,78,473,244,68,24,4
165,107,-58,-136,112,24,68,483,248,73,39,14
185,126,-58,-156,122,34,48,483,253,92,53,24
200,151,-48,-175,124,51,39,478,258,112,68,43
209,165,-43,-187,126,61,19,453,263,117,87,58
209,180,-29,-195,119,75,0,419,258,126,112,73
200,200,0,-200,100,100,-19,375,258,136,117,87
190,214,24,-202,82,119,-39,322,244,146,122,102
200,229,29,-214,85,129,-58,278,234,146,131,117
200,239,39,-219,80,139,-68,229,214,146,131,131
195,248,53,-222,70,151,-78,175,195,141,131,131
180,244,63,-212,58,153,-82,126,170,131,122,126
156,224,68,-190,43,146,-82,97,151,117,112,122
131,209,78,-170,26,143,-82,63,126,112,102,102
97,185,87,-141,4,136,-73,34,102,102,92,92
73,161,87,-117,-7,124,-68,4,87,78,82,78
43,122,78,-82,-17,100,-63,-9,58,58,58,58
24,102,78,-63,-26,90,-53,-29,39,39,39,48
9,73,63,-41,-26,68,-48,-39,14,24,14,34
-9,43,53,-17,-31,48,-43,-43,-4,14,-4,19
-24,24,48,0,-36,36,-34,-48,-14,-4,-19,9
-39,0,39,19,-39,19,-24,-58,-34,-29,-29,-4
-48,-14,34,31,-41,9,-9,-58,-43,-29,-39,-14
-63,-24,39,43,-51,7,0,-58,-53,-39,-53,-24
-68,-39,29,53,-48,-4,9,-58,-53,-58,-63,-29
-73,-53,19,63,-46,-17,9,-58,-58,-68,-68,-39
-68,-63,4,65,-36,-29,14,-53,-73,-73,-78,-39
-73,-68,4,70,-39,-31,14,-53,-73,-73,-78,-43
-78,-78,0,78,-39,-39,19,-58,-78,-73,-78,-53
-78,-78,0,78,-39,-39,19,-58,-82,-82,-82,-58
-73,-78,-4,75,-34,-41,19,-63,-87,-78,-82,-58
-73,-78,-4,75,-34,-41,24,-58,-92,-73,-78,-53
-73,-78,-4,75,-34,-41,29,-58,-87,-73,-73,-48
-73,-78,-4,75,-34,-41,29,-58,-87,-73,-73,-39
-68,-78,-9,73,-29,-43,29,-58,-87,-73,-73,-39
-68,-78,-9,73,-29,-43,29,-58,-92,-73,-73,-43
-63,-73,-9,68,-26,-41,29,-58,-97,-78,-73,-48
-68,-73,-4,70,-31,-39,29,-58,-97,-78,-78,-48
-73,-78,-4,75,-34,-41,34,-53,-97,-73,-82,-53
-73,-78,-4,75,-34,-41,43,-48,-97,-63,-82,-53
-82,-92,-9,87,-36,-51,34,-48,-97,-73,-82,-53
-97,-107,-9,102,-43,-58,29,-43,-97,-82,-82,-53
-82,-97,-14,90,-34,-56,29,-43,-97,-87,-82,-53
-68,-87,-19,78,-24,-53,29,-43,-97,-87,-82,-53
-68,-87,-19,78,-24,-53,29,-48,-97,-87,-82,-53
-68,-87,-19,78,-24,-53,34,-48,-92,-87,-82,-48
-73,-97,-24,85,-24,-61,43,-43,-92,-87,-82,-48
-78,-107,-29,92,-24,-68,43,-43,-92,-82,-82,-48
-87,-107,-19,97,-34,-63,34,-53,-87,-82,-82,-53
-87,-107,-19,97,-34,-63,34,-53,-82,-82,-82,-58
-97,-112,-14,104,-41,-63,43,-53,-82,-82,-82,-58
-102,-112,-9,107,-46,-61,48,-43,-82,-82,-82,-58
-97,-112,-14,104,-41,-63,48,-39,-82,-78,-87,-58
-97,-107,-9,102,-43,-58,48,-34,-82,-78,-87,-58
-87,-107,-19,97,-34,-63,48,-39,-82,-78,-87,-58
-82,-107,-24,95,-29,-65,48,-39,-82,-78,-87,-58
-82,-107,-24,95,-29,-65,48,-39,-82,-78,-87,-58
-82,-107,-24,95,-29,-65,53,-34,-82,-78,-87,-58
-82,-107,-24,95,-29,-65,58,-34,-82,-78,-87,-63
-82,-107,-24,95,-29,-65,63,-34,-82,-73,-87,-63
-82,-107,-24,95,-29,-65,63,-29,-78,-73,-82,-58
-82,-107,-24,95,-29,-65,63,-24,-78,-73,-78,-58
-87,-112,-24,100,-31,-68,63,-24,-82,-78,-82,-63
-92,-122,-29,107,-31,-75,63,-24,-87,-78,-78,-63
-97,-122,-24,109,-36,-73,53,-34,-87,-73,-73,-53
-107,-126,-19,117,-43,-73,48,-48,-87,-68,-68,-48
-97,-112,-14,104,-41,-63,48,-39,-78,-68,-68,-43
-87,-97,-9,92,-39,-53,48,-29,-68,-68,-68,-39
-82,-92,-9,87,-36,-51,48,-29,-63,-63,-68,-34
-78,-82,-4,80,-36,-43,43,-29,-58,-53,-63,-29
-78,-78,0,78,-39,-39,43,-34,-53,-48,-63,-24
-78,-73,4,75,-41,-34,43,-34,-48,-43,-58,-24
-87,-78,9,82,-48,-34,39,-34,-48,-43,-53,-19
-97,-82,14,90,-56,-34,34,-34,-48,-39,-53,-19
-87,-92,-4,90,-41,-48,24,-34,-39,-29,-43,-24
-82,-87,-4,85,-39,-46,9,-48,-34,-29,-39,-24
-68,-68,0,68,-34,-34,-9,-73,-29,-19,-34,-14
-43,-39,4,41,-24,-17,-34,-92,-19,-14,-29,-4
-24,-14,9,19,-17,-2,-63,-112,-9,4,-9,14
0,14,14,-7,-7,14,-97,-131,-4,14,9,24
9,24,14,-17,-2,19,-107,-126,-4,14,9,29
9,24,14,-17,-2,19,-107,-126,-24,4,-4,29
0,14,14,-7,-7,14,-112,-136,-39,-4,-9,29
9,4,-4,-7,7,0,-122,-141,-53,-4,-14,29
29,4,-24,-17,26,-9,-131,-141,-53,-14,-9,34
48,24,-24,-36,36,0,-131,-136,-39,-4,9,48
63,39,-24,-51,43,7,-117,-126,-24,9,19,58
73,48,-24,-61,48,12,-107,-122,-14,29,34,73
53,63,9,-58,21,36,-82,-102,-4,34,39,73
39,53,14,-46,12,34,-58,-92,-14,34,39,63
-19,-4,14,12,-17,4,-14,-78,-29,4,4,34
-63,-68,-4,65,-29,-36,24,-63,-48,-19,-24,9
-68,-92,-24,80,-21,-58,39,-53,-63,-34,-34,0
-73,-117,-43,95,-14,-80,53,-39,-73,-48,-48,-9
-87,-146,-58,117,-14,-102,53,-29,-82,-58,-63,-24
-102,-175,-73,139,-14,-124,68,-19,-87,-68,-78,-39
-122,-200,-78,161,-21,-139,78,-9,-97,-82,-92,-53
-122,-204,-82,163,-19,-143,87,-9,-97,-82,-92,-53
-122,-209,-87,165,-17,-148,92,-9,-102,-82,-92,-53
-117,-214,-97,165,-9,-156,97,-9,-102,-87,-92,-58
-117,-219,-102,168,-7,-161,97,-9,-107,-87,-87,-58
-122,-224,-102,173,-9,-163,102,-9,-112,-92,-92,-58
-117,-214,-97,165,-9,-156,107,-9,-112,-97,-92,-58
-112,-204,-92,158,-9,-148,112,-9,-107,-97,-92,-58
-112,-214,-102,163,-4,-158,112,-4,-107,-92,-92,-58
-112,-224,-112,168,0,-168,117,-4,-107,-92,-97,-63
-112,-239,-126,175,7,-183,112,-4,-107,-92,-97,-63
-117,-244,-126,180,4,-185,107,-9,-112,-97,-102,-63
-117,-248,-131,183,7,-190,107,-9,-112,-102,-107,-63
-131,-248,-117,190,-7,-183,112,-9,-112,-102,-112,-63
-131,-248,-117,190,-7,-183,126,0,-107,-102,-102,-73
-122,-248,-126,185,2,-187,136,24,-97,-92,-87,-73
-112,-248,-136,180,12,-192,141,43,-73,-63,-68,-68
-107,-234,-126,170,9,-180,156,68,4,14,-29,-43
-78,-151,-73,114,-2,-112,122,68,200,195,112,43
-14,19,34,-2,-24,26,29,9,458,458,336,190
131,248,117,-190,7,183,-102,-14,741,790,610,395
361,483,122,-422,119,302,-273,24,1024,1137,902,605
546,707,161,-627,192,434,-463,-34,1205,1395,1156,814
697,951,253,-824,222,602,-722,-292,1327,1629,1400,1024
790,1156,366,-973,212,761,-1024,-673,1312,1776,1586,1205
707,1200,492,-954,107,846,-1176,-1102,1054,1620,1527,1244
444,878,434,-661,4,656,-1078,-1327,361,966,1063,985
107,278,170,-192,-31,224,-692,-1137,-434,73,336,478
-156,-244,-87,200,-34,-165,-312,-878,-1010,-561,-214,73
-229,-497,-268,363,19,-383,-29,-527,-1024,-692,-429,-146
-239,-497,-258,368,9,-378,122,-248,-766,-580,-419,-190
-195,-439,-244,317,24,-341,224,14,-502,-400,-307,-156
-175,-380,-204,278,14,-292,244,136,-322,-278,-229,-131
-141,-322,-180,231,19,-251,229,161,-180,-180,-170,-92
-107,-273,-165,190,29,-219,224,161,-112,-122,-122,-58
-107,-248,-141,178,17,-195,204,175,-73,-92,-102,-43
-112,-244,-131,178,9,-187,185,156,-63,-82,-92,-53
-117,-244,-126,180,4,-185,180,131,-53,-78,-92,-53
-112,-244,-131,178,9,-187,180,131,-43,-68,-82,-48
-112,-248,-136,180,12,-192,180,136,-43,-63,-73,-48
-112,-248,-136,180,12,-192,190,151,-34,-58,-73,-48
-112,-248,-136,180,12,-192,195,156,-29,-58,-73,-48
-107,-239,-131,173,12,-185,195,156,-19,-53,-68,-43
-102,-229,-126,165,12,-178,195,156,-14,-53,-68,-39
-92,-229,-136,161,21,-183,195,165,-9,-48,-68,-39
-82,-224,-141,153,29,-183,190,165,-9,-43,-68,-34
-87,-234,-146,161,29,-190,190,165,-4,-43,-63,-34
-97,-244,-146,170,24,-195,195,175,0,-43,-63,-39
-97,-244,-146,170,24,-195,200,185,4,-43,-73,-39
-87,-244,-156,165,34,-200,200,185,9,-43,-78,-39
-82,-244,-161,163,39,-202,195,190,19,-43,-78,-39
-82,-244,-161,163,39,-202,195,195,29,-39,-78,-39
-82,-239,-156,161,36,-197,200,195,34,-34,-73,-39
-82,-234,-151,158,34,-192,200,209,43,-29,-68,-39
-78,-224,-146,151,34,-185,200,214,53,-19,-63,-34
-73,-219,-146,146,36,-183,200,214,63,-14,-58,-34
-73,-234,-161,153,43,-197,200,219,68,-14,-58,-34
-73,-248,-175,161,51,-212,195,224,73,-19,-53,-34
-73,-244,-170,158,48,-207,195,234,82,-14,-53,-34
-68,-239,-170,153,51,-204,195,244,92,-4,-48,-29
-63,-224,-161,143,48,-192,200,253,107,0,-48,-24
-53,-209,-156,131,51,-183,200,263,126,9,-34,-14
-48,-209,-161,129,56,-185,195,273,136,19,-24,-9
-48,-209,-161,129,56,-185,195,283,146,24,-9,-9
-43,-195,-151,119,53,-173,195,287,161,34,-9,-9
-39,-180,-141,109,51,-161,190,302,175,43,-4,-4
-34,-180,-146,107,56,-163,190,326,185,58,0,4
-24,-175,-151,100,63,-163,185,341,195,68,4,4
-9,-180,-170,95,80,-175,185,366,204,73,14,4
9,-170,-180,80,95,-175,185,390,224,92,19,19
9,-170,-180,80,95,-175,185,390,224,92,19,19
