I, II, III, aVR, aVL, aVF, V1, V2, V3, V4, V5, V6
24,-107,-131,41,78,-119,34,58,43,29,39,34
24,-107,-131,41,78,-119,39,58,48,34,34,34
24,-107,-131,41,78,-119,39,58,48,39,29,34
24,-112,-136,43,80,-124,39,58,48,39,29,34
24,-112,-136,43,80,-124,39,63,48,39,29,34
24,-112,-136,43,80,-124,43,68,48,43,34,34
24,-112,-136,43,80,-124,43,73,53,43,39,34
24,-112,-136,43,80,-124,43,73,58,48,39,34
24,-112,-136,43,80,-124,43,73,63,53,39,34
24,-112,-136,43,80,-124,39,78,63,53,39,34
19,-122,-141,51,80,-131,43,87,68,48,34,24
9,-151,-161,70,85,-156,73,117,68,43,24,14
9,-165,-175,78,92,-170,117,170,78,39,24,4
0,-180,-180,90,90,-180,161,204,117,58,19,0
-4,-156,-151,80,73,-153,165,219,190,122,68,34
53,-53,-107,0,80,-80,102,185,326,273,204,151
180,102,-78,-141,129,12,29,214,497,473,400,322
444,268,-175,-356,309,46,-53,326,697,707,619,536
736,527,-209,-631,473,158,-190,400,966,1015,922,824
995,819,-175,-907,585,322,-317,395,1259,1317,1244,1127
1249,1102,-146,-1176,697,478,-556,204,1390,1546,1522,1410
1654,1468,-185,-1561,919,641,-927,-156,1468,1864,1888,1795
2020,1790,-229,-1905,1124,780,-1268,-473,1551,2166,2244,2166
2161,1971,-190,-2066,1176,890,-1459,-727,1551,2318,2449,2405
2108,2015,-92,-2061,1100,961,-1546,-995,1459,2361,2552,2518
1864,1810,-53,-1837,958,878,-1424,-1063,1366,2352,2571,2532
1659,1537,-122,-1598,890,707,-1298,-1034,1151,2196,2440,2410
1439,1273,-165,-1356,802,553,-1185,-985,932,1908,2161,2152
1112,995,-117,-1054,614,439,-1000,-917,722,1561,1805,1820
595,619,24,-607,285,322,-722,-849,146,810,1117,1239
200,317,117,-258,41,217,-473,-702,-219,292,585,741
82,131,48,-107,17,90,-244,-375,-117,151,317,419
-24,0,24,12,-24,12,-73,-185,-73,39,117,180
-63,-73,-9,68,-26,-41,9,-68,-43,-24,-4,34
-87,-126,-39,107,-24,-82,63,14,-39,-58,-63,-34
-97,-170,-73,134,-12,-122,87,39,-34,-58,-73,-58
-97,-180,-82,139,-7,-131,102,48,-29,-58,-73,-63
-97,-180,-82,139,-7,-131,102,58,-19,-58,-73,-63
-97,-190,-92,143,-2,-141,102,82,-14,-63,-87,-78
-97,-204,-107,151,4,-156,122,102,-9,-73,-92,-87
-102,-204,-102,153,0,-153,131,107,-9,-78,-92,-92
-102,-200,-97,151,-2,-148,131,107,-14,-78,-92,-92
-102,-200,-97,151,-2,-148,136,122,-19,-82,-97,-97
-112,-204,-92,158,-9,-148,136,122,-19,-82,-102,-102
-117,-209,-92,163,-12,-151,141,126,-19,-87,-107,-107
-117,-214,-97,165,-9,-156,146,131,-19,-87,-107,-107
-117,-219,-102,168,-7,-161,146,136,-24,-92,-107,-107
-117,-219,-102,168,-7,-161,146,136,-24,-92,-112,-112
-117,-219,-102,168,-7,-161,151,136,-24,-97,-117,-112
-117,-224,-107,170,-4,-165,151,136,-24,-92,-117,-117
-122,-224,-102,173,-9,-163,151,136,-24,-92,-122,-122
-126,-224,-97,175,-14,-161,156,136,-24,-92,-126,-131
-131,-224,-92,178,-19,-158,156,141,-24,-102,-131,-136
-136,-229,-92,183,-21,-161,151,141,-24,-107,-131,-141
-141,-229,-87,185,-26,-158,146,141,-24,-112,-136,-146
-141,-229,-87,185,-26,-158,146,141,-34,-112,-136,-146
-146,-229,-82,187,-31,-156,151,141,-39,-117,-136,-151
-151,-229,-78,190,-36,-153,156,141,-39,-122,-136,-161
-161,-229,-68,195,-46,-148,161,141,-39,-122,-141,-161
-165,-229,-63,197,-51,-146,165,141,-43,-126,-156,-156
-170,-229,-58,200,-56,-143,165,141,-43,-126,-156,-165
-180,-234,-53,207,-63,-143,165,141,-43,-131,-156,-165
-180,-239,-58,209,-61,-148,170,141,-43,-136,-170,-170
-190,-239,-48,214,-70,-143,175,136,-48,-141,-170,-180
-200,-239,-39,219,-80,-139,180,136,-48,-151,-175,-185
-209,-234,-24,222,-92,-129,180,136,-58,-151,-190,-195
-214,-224,-9,219,-102,-117,180,136,-63,-156,-195,-204
-224,-224,0,224,-112,-112,185,146,-58,-165,-204,-209
-234,-224,9,229,-122,-107,195,151,-63,-175,-214,-214
-248,-229,19,239,-134,-104,195,151,-73,-185,-224,-229
-268,-234,34,251,-151,-100,200,151,-82,-200,-239,-244
-278,-234,43,256,-161,-95,204,146,-102,-214,-253,-263
-292,-239,53,265,-173,-92,209,146,-122,-239,-268,-283
-312,-239,73,275,-192,-82,219,141,-146,-258,-297,-307
-336,-239,97,287,-217,-70,224,136,-170,-287,-326,-336
-366,-244,122,305,-244,-61,229,126,-204,-322,-361,-366
-400,-253,146,326,-273,-53,234,107,-239,-366,-405,-390
-429,-253,175,341,-302,-39,229,87,-278,-405,-439,-429
-458,-248,209,353,-334,-19,229,63,-317,-444,-488,-473
-488,-263,224,375,-356,-19,239,43,-370,-497,-527,-512
-527,-268,258,397,-392,-4,244,19,-419,-556,-580,-556
-556,-283,273,419,-414,-4,244,4,-478,-610,-634,-595
-595,-297,297,446,-446,0,248,-9,-527,-663,-673,-644
-634,-302,331,468,-483,14,248,-48,-585,-722,-722,-702
-668,-307,361,488,-514,26,248,-73,-644,-780,-785,-751
-697,-322,375,509,-536,26,253,-97,-702,-844,-839,-790
-722,-336,385,529,-553,24,258,-112,-751,-897,-878,-834
-751,-346,405,549,-578,29,258,-141,-810,-936,-922,-868
-766,-356,409,561,-588,26,258,-161,-849,-980,-956,-902
-766,-375,390,570,-578,7,263,-170,-873,-1015,-976,-927
-766,-385,380,575,-573,-2,263,-180,-893,-1034,-990,-936
-761,-400,361,580,-561,-19,258,-180,-897,-1034,-995,-941
-751,-405,346,578,-549,-29,258,-180,-897,-1024,-995,-941
-717,-400,317,558,-517,-41,244,-175,-873,-1005,-961,-917
-688,-390,297,539,-492,-46,239,-161,-844,-976,-927,-888
-649,-375,273,512,-461,-51,229,-141,-805,-936,-897,-858
-595,-351,244,473,-419,-53,219,-126,-766,-893,-863,-819
-556,-331,224,444,-390,-53,200,-107,-717,-834,-800,-766
-497,-302,195,400,-346,-53,190,-92,-649,-761,-732,-707
-439,-278,161,358,-300,-58,185,-63,-590,-692,-668,-649
-385,-253,131,319,-258,-61,165,-43,-522,-624,-595,-585
-331,-224,107,278,-219,-58,146,-24,-458,-551,-536,-517
-278,-195,82,236,-180,-56,136,-4,-380,-468,-463,-448
-229,-170,58,200,-143,-56,122,19,-317,-400,-390,-390
-180,-141,39,161,-109,-51,102,29,-263,-336,-322,-331
-136,-112,24,124,-80,-43,82,34,-209,-278,-263,-273
-102,-87,14,95,-58,-36,68,48,-156,-214,-204,-219
-68,-68,0,68,-34,-34,58,58,-122,-165,-161,-170
-39,-48,-9,43,-14,-29,53,63,-82,-122,-122,-131
-19,-34,-14,26,-2,-24,34,58,-53,-87,-92,-102
0,-29,-29,14,14,-29,24,58,-34,-53,-63,-68
14,-19,-34,2,24,-26,24,63,-4,-24,-29,-43
19,-4,-24,-7,21,-14,19,63,14,0,-9,-19
34,4,-29,-19,31,-12,19,68,29,14,4,-9
43,14,-29,-29,36,-7,14,68,43,34,19,4
48,19,-29,-34,39,-4,14,68,58,48,39,14
53,29,-24,-41,39,2,9,68,68,53,48,24
53,29,-24,-41,39,2,9,68,68,58,53,29
58,29,-29,-43,43,0,4,68,68,63,63,39
58,34,-24,-46,41,4,4,63,73,73,63,39
58,34,-24,-46,41,4,4,63,78,73,68,39
58,39,-19,-48,39,9,4,63,78,73,68,43
58,39,-19,-48,39,9,0,58,73,78,68,43
58,34,-24,-46,41,4,0,58,73,78,68,43
53,39,-14,-46,34,12,0,58,73,78,68,43
53,39,-14,-46,34,12,0,58,73,73,68,43
53,39,-14,-46,34,12,0,58,73,68,63,43
48,34,-14,-41,31,9,0,58,73,63,63,43
48,34,-14,-41,31,9,4,53,73,63,63,39
43,34,-9,-39,26,12,4,53,73,58,58,34
39,34,-4,-36,21,14,9,48,68,53,53,29
34,29,-4,-31,19,12,9,48,58,48,48,24
34,24,-9,-29,21,7,9,48,58,48,48,19
24,24,0,-24,12,12,9,48,53,48,34,24
19,19,0,-19,9,9,9,48,48,48,29,14
19,19,0,-19,9,9,4,43,43,34,29,14
14,14,0,-14,7,7,4,43,34,34,19,9
14,9,-4,-12,9,2,4,39,29,29,9,4
9,4,-4,-7,7,0,4,34,29,24,4,4
4,4,0,-4,2,2,9,34,19,14,4,-4
4,0,-4,-2,4,-2,9,29,14,9,0,-9
0,0,0,0,0,0,9,29,14,4,-4,-14
0,0,0,0,0,0,9,29,14,0,-4,-24
-4,-4,0,4,-2,-2,9,29,9,0,-9,-24
-9,-4,4,7,-7,0,9,29,9,0,-19,-24
-9,-9,0,9,-4,-4,14,29,9,-4,-24,-24
-9,-14,-4,12,-2,-9,14,29,4,-9,-29,-29
-9,-14,-4,12,-2,-9,19,29,4,-9,-29,-29
-9,-14,-4,12,-2,-9,19,29,0,-9,-29,-34
-9,-9,0,9,-4,-4,19,29,0,-14,-29,-34
-9,-4,4,7,-7,0,19,29,-4,-14,-34,-34
-9,-4,4,7,-7,0,9,29,-4,-19,-34,-34
-9,-4,4,7,-7,0,4,29,-4,-24,-34,-39
-9,0,9,4,-9,4,4,24,-9,-24,-34,-39
-9,4,14,2,-12,9,0,19,-9,-24,-34,-39
-9,9,19,0,-14,14,0,19,-14,-24,-34,-39
-9,9,19,0,-14,14,0,19,-14,-24,-34,-34
-4,9,14,-2,-9,12,0,19,-14,-29,-34,-34
-4,9,14,-2,-9,12,0,19,-14,-34,-34,-34
0,9,9,-4,-4,9,0,19,-14,-34,-34,-34
0,4,4,-2,-2,4,0,19,-14,-29,-29,-34
0,4,4,-2,-2,4,0,19,-14,-24,-29,-29
4,4,0,-4,2,2,0,19,-14,-19,-24,-29
4,4,0,-4,2,2,0,19,-9,-14,-24,-24
4,4,0,-4,2,2,0,19,-4,-14,-24,-24
9,4,-4,-7,7,0,-4,19,-4,-14,-19,-29
9,4,-4,-7,7,0,-4,19,-4,-14,-19,-34
9,4,-4,-7,7,0,-4,19,0,-14,-19,-29
14,4,-9,-9,12,-2,-4,24,0,-14,-19,-29
14,4,-9,-9,12,-2,-4,24,0,-14,-19,-19
14,4,-9,-9,12,-2,-4,24,0,-14,-14,-14
14,4,-9,-9,12,-2,-4,24,0,-14,-9,-14
14,4,-9,-9,12,-2,-4,24,0,-14,-9,-14
14,14,0,-14,7,7,-4,24,4,-9,-4,-14
14,19,4,-17,4,12,-4,24,4,-9,0,-9
19,19,0,-19,9,9,-9,24,4,-4,0,-9
19,24,4,-21,7,14,-9,19,4,0,4,-4
19,19,0,-19,9,9,-4,19,4,0,4,-4
19,14,-4,-17,12,4,0,24,9,4,4,-4
19,19,0,-19,9,9,0,24,9,9,4,0
19,24,4,-21,7,14,-4,29,14,14,4,4
24,34,9,-29,7,21,-4,24,19,14,4,4
29,48,19,-39,4,34,-9,19,29,19,9,9
34,53,19,-43,7,36,-14,19,39,24,14,14
39,58,19,-48,9,39,-19,19,48,29,19,19
39,63,24,-51,7,43,-19,19,48,29,24,19
39,63,24,-51,7,43,-19,14,48,34,29,19
43,68,24,-56,9,46,-19,14,53,39,39,24
48,68,19,-58,14,43,-14,19,53,39,39,24
53,68,14,-61,19,41,-9,34,58,43,39,29
58,68,9,-63,24,39,0,48,63,48,43,34
58,68,9,-63,24,39,0,48,63,53,43,34
58,68,9,-63,24,39,-9,43,63,53,43,34
68,78,9,-73,29,43,-24,29,63,53,43,39
73,92,19,-82,26,56,-43,14,63,53,53,43
78,97,19,-87,29,58,-68,0,53,53,53,48
92,102,9,-97,41,56,-87,-14,53,53,53,48
102,102,0,-102,51,51,-92,-19,43,43,53,48
102,112,9,-107,46,61,-92,-19,43,43,53,48
117,112,-4,-114,61,53,-78,-4,43,48,53,48
117,97,-19,-107,68,39,-63,4,43,48,53,48
117,82,-34,-100,75,24,-53,14,43,48,53,48
112,63,-48,-87,80,7,-39,19,43,39,39,43
112,58,-53,-85,82,2,-39,14,39,39,39,39
112,58,-53,-85,82,2,-43,9,34,39,39,39
102,58,-43,-80,73,7,-43,0,34,34,34,39
92,58,-34,-75,63,12,-43,0,34,34,34,39
82,43,-39,-63,61,2,-29,9,34,34,34,34
63,29,-34,-46,48,-2,-14,14,34,24,24,19
53,14,-39,-34,46,-12,-4,19,34,24,24,19
43,4,-39,-24,41,-17,0,19,19,19,19,14
34,-4,-39,-14,36,-21,0,19,19,9,4,4
24,-9,-34,-7,29,-21,4,19,24,9,0,4
24,-9,-34,-7,29,-21,4,19,24,9,0,4
24,-9,-34,-7,29,-21,0,19,19,9,0,4
24,-14,-39,-4,31,-26,0,19,19,9,0,4
24,-14,-39,-4,31,-26,0,24,19,9,0,4
24,-14,-39,-4,31,-26,4,24,19,14,0,4
24,-14,-39,-4,31,-26,4,24,24,14,0,4
24,-14,-39,-4,31,-26,4,29,24,14,-4,0
24,-14,-39,-4,31,-26,4,34,24,14,-9,-4
24,-14,-39,-4,31,-26,9,39,24,14,-9,-4
19,-24,-43,2,31,-34,24,48,29,9,-14,-14
9,-48,-58,19,34,-53,53,78,34,9,-19,-19
9,-58,-68,24,39,-63,97,131,48,9,-14,-24
14,-48,-63,17,39,-56,117,151,122,68,19,4
24,0,-24,-12,24,-12,97,151,229,170,107,73
131,136,4,-134,63,70,19,141,400,366,292,234
307,326,19,-317,143,173,-68,195,605,610,536,448
575,531,-43,-553,309,244,-180,258,849,893,800,702
873,829,-43,-851,458,392,-346,283,1161,1249,1146,1029
1141,1137,-4,-1139,573,566,-522,175,1385,1566,1493,1361
1405,1434,29,-1420,688,732,-810,-117,1449,1810,1795,1673
1717,1742,24,-1729,846,883,-1122,-424,1507,2098,2142,2025
1991,2005,14,-1998,988,1010,-1405,-688,1571,2371,2479,2361
2000,2093,92,-2047,954,1093,-1507,-888,1522,2454,2601,2518
1815,2044,229,-1930,793,1137,-1507,-1102,1381,2430,2620,2547
1561,1795,234,-1678,663,1015,-1371,-1127,1239,2303,2527,2459
1346,1478,131,-1412,607,805,-1229,-1054,976,2030,2283,2235
1093,1195,102,-1144,495,649,-1078,-971,688,1620,1893,1888
732,897,165,-814,283,531,-854,-868,409,1151,1424,1468
361,566,204,-463,78,385,-595,-741,-29,527,824,941
112,307,195,-209,-41,251,-366,-536,-258,136,380,497
29,151,122,-90,-46,136,-180,-273,-156,29,151,234
-43,48,92,-2,-68,70,-53,-146,-112,-48,-9,53
-73,-9,63,41,-68,26,4,-58,-82,-102,-97,-53
-87,-48,39,68,-63,-4,34,-4,-78,-126,-122,-82
-97,-82,14,90,-56,-34,53,14,-73,-126,-131,-107
-97,-82,14,90,-56,-34,63,19,-68,-126,-131,-112
-97,-82,14,90,-56,-34,63,29,-68,-122,-131,-112
-97,-92,4,95,-51,-43,63,53,-73,-122,-146,-126
-92,-107,-14,100,-39,-61,78,68,-68,-126,-151,-136
-92,-107,-14,100,-39,-61,82,68,-68,-126,-151,-141
-92,-107,-14,100,-39,-61,82,68,-63,-126,-151,-141
-92,-112,-19,102,-36,-65,87,82,-58,-131,-156,-146
-102,-117,-14,109,-43,-65,87,82,-58,-131,-161,-151
-107,-122,-14,114,-46,-68,92,87,-58,-136,-165,-156
-107,-122,-14,114,-46,-68,97,87,-63,-136,-165,-161
-107,-122,-14,114,-46,-68,97,87,-73,-141,-165,-165
-112,-122,-9,117,-51,-65,97,87,-73,-141,-170,-170
-117,-122,-4,119,-56,-63,102,87,-73,-146,-175,-170
-112,-122,-9,117,-51,-65,102,87,-73,-146,-175,-170
-112,-117,-4,114,-53,-61,102,87,-73,-151,-180,-170
-117,-117,0,117,-58,-58,107,82,-73,-151,-185,-175
-122,-117,4,119,-63,-56,107,82,-73,-161,-190,-175
-126,-122,4,124,-65,-58,102,82,-73,-161,-190,-180
-131,-122,9,126,-70,-56,97,82,-73,-161,-195,-185
-131,-122,9,126,-70,-56,97,82,-82,-165,-195,-185
-136,-122,14,129,-75,-53,102,82,-87,-175,-195,-190
-141,-122,19,131,-80,-51,102,82,-87,-180,-195,-200
-151,-122,29,136,-90,-46,102,82,-87,-180,-200,-200
-156,-122,34,139,-95,-43,107,87,-92,-185,-214,-200
-161,-122,39,141,-100,-41,107,92,-92,-185,-214,-214
-170,-122,48,146,-109,-36,107,92,-92,-190,-214,-214
-170,-122,48,146,-109,-36,112,92,-92,-195,-229,-219
-180,-122,58,151,-119,-31,117,92,-97,-200,-229,-229
-190,-122,68,156,-129,-26,122,97,-97,-209,-234,-234
-200,-122,78,161,-139,-21,122,97,-107,-214,-248,-244
-204,-117,87,161,-146,-14,122,97,-112,-224,-253,-253
-214,-117,97,165,-156,-9,126,97,-117,-234,-268,-263
-224,-117,107,170,-165,-4,136,92,-131,-244,-283,-273
-239,-117,122,178,-180,2,136,92,-141,-253,-297,-287
-258,-117,141,187,-200,12,141,92,-151,-268,-317,-302
-273,-117,156,195,-214,19,151,87,-170,-287,-336,-326
-292,-122,170,207,-231,24,161,87,-190,-317,-356,-351
-312,-131,180,222,-246,24,170,78,-219,-341,-385,-375
-336,-141,195,239,-265,26,175,68,-248,-375,-414,-405
-366,-146,219,256,-292,36,180,63,-283,-409,-448,-439
-400,-156,244,278,-322,43,185,48,-317,-453,-492,-468
-429,-175,253,302,-341,39,190,39,-366,-502,-527,-507
-458,-190,268,324,-363,39,200,24,-414,-551,-575,-551
-488,-209,278,348,-383,34,209,9,-468,-605,-614,-590
-527,-219,307,373,-417,43,214,-9,-517,-663,-668,-634
-556,-239,317,397,-436,39,214,-29,-575,-717,-722,-673
-595,-258,336,427,-466,39,219,-48,-624,-771,-761,-722
-629,-278,351,453,-490,36,229,-82,-683,-829,-810,-771
-658,-297,361,478,-509,31,239,-102,-741,-888,-873,-810
-688,-322,366,505,-527,21,244,-126,-795,-946,-922,-849
-712,-346,366,529,-539,9,248,-141,-839,-995,-956,-893
-736,-366,370,551,-553,2,248,-161,-888,-1024,-995,-922
-746,-385,361,566,-553,-12,248,-170,-917,-1058,-1024,-951
-746,-405,341,575,-544,-31,253,-180,-936,-1083,-1039,-966
-746,-414,331,580,-539,-41,253,-190,-951,-1093,-1049,-966
-732,-424,307,578,-519,-58,248,-190,-951,-1088,-1039,-961
-712,-424,287,568,-500,-68,248,-190,-946,-1073,-1024,-951
-678,-414,263,546,-470,-75,229,-185,-912,-1044,-985,-922
-649,-400,248,524,-448,-75,219,-170,-873,-1005,-946,-888
-605,-385,219,495,-412,-82,209,-151,-829,-956,-902,-849
-546,-361,185,453,-366,-87,200,-136,-785,-902,-854,-800
-507,-336,170,422,-339,-82,180,-112,-732,-839,-790,-741
-448,-302,146,375,-297,-78,170,-92,-658,-761,-722,-678
-390,-278,112,334,-251,-82,161,-68,-595,-688,-653,-619
-336,-253,82,295,-209,-85,136,-53,-522,-614,-575,-556
-287,-219,68,253,-178,-75,117,-39,-458,-541,-517,-488
-239,-185,53,212,-146,-65,107,-24,-380,-458,-444,-419
-195,-161,34,178,-114,-63,92,0,-317,-390,-380,-361
-151,-131,19,141,-85,-56,73,9,-263,-326,-322,-302
-112,-107,4,109,-58,-51,53,9,-209,-268,-263,-248
-82,-87,-4,85,-39,-46,39,19,-156,-204,-204,-200
-48,-68,-19,58,-14,-43,29,29,-122,-161,-161,-156
-19,-48,-29,34,4,-39,24,34,-82,-122,-122,-122
-4,-34,-29,19,12,-31,9,34,-53,-87,-92,-92
9,-29,-39,9,24,-34,4,39,-34,-53,-63,-58
24,-19,-43,-2,34,-31,4,43,-4,-29,-34,-39
29,-4,-34,-12,31,-19,0,43,14,-9,-19,-19
43,0,-43,-21,43,-21,0,43,24,4,-4,-9
53,4,-48,-29,51,-21,-4,39,34,24,9,4
58,9,-48,-34,53,-19,-4,39,48,39,24,14
63,19,-43,-41,53,-12,-9,39,58,43,29,24
63,19,-43,-41,53,-12,-9,43,58,48,34,29
68,19,-48,-43,58,-14,-14,48,58,53,43,39
63,19,-43,-41,53,-12,-14,43,63,63,43,39
58,14,-43,-36,51,-14,-14,43,68,63,48,39
58,19,-39,-39,48,-9,-14,43,73,58,48,43
58,19,-39,-39,48,-9,-19,39,73,58,48,43
58,9,-48,-34,53,-19,-19,39,73,58,48,43
53,9,-43,-31,48,-17,-19,39,73,58,48,43
53,9,-43,-31,48,-17,-19,39,68,58,48,43
53,9,-43,-31,48,-17,-19,39,63,58,43,43
48,4,-43,-26,46,-19,-19,39,63,53,43,43
48,4,-43,-26,46,-19,-14,34,63,53,43,39
43,4,-39,-24,41,-17,-14,34,63,48,39,39
39,4,-34,-21,36,-14,-9,29,58,43,34,39
34,0,-34,-17,34,-17,-9,29,48,39,29,34
34,-4,-39,-14,36,-21,-9,29,48,39,29,29
24,-4,-29,-9,26,-17,-4,34,43,34,19,29
19,-9,-29,-4,24,-19,0,39,39,29,19,14
19,-9,-29,-4,24,-19,0,34,39,14,19,14
14,-14,-29,0,21,-21,4,34,34,14,9,9
14,-19,-34,2,24,-26,4,29,29,9,0,4
9,-24,-34,7,21,-29,4,24,29,4,-4,4
4,-24,-29,9,17,-26,9,24,19,0,-4,-4
4,-29,-34,12,19,-31,9,19,14,0,-9,-9
4,-29,-34,12,19,-31,9,19,14,-4,-14,-9
9,-29,-39,9,24,-34,9,19,14,-9,-14,-14
4,-34,-39,14,21,-36,9,19,9,-9,-14,-14
0,-34,-34,17,17,-34,9,19,9,-9,-19,-14
0,-39,-39,19,19,-39,14,19,9,-14,-24,-14
0,-43,-43,21,21,-43,14,19,4,-19,-29,-19
0,-43,-43,21,21,-43,14,19,4,-19,-29,-19
0,-43,-43,21,21,-43,9,19,0,-19,-29,-24
0,-43,-43,21,21,-43,9,19,4,-24,-29,-24
0,-43,-43,21,21,-43,9,19,4,-24,-34,-24
0,-43,-43,21,21,-43,4,19,4,-24,-34,-24
0,-43,-43,21,21,-43,4,19,4,-24,-34,-29
0,-43,-43,21,21,-43,9,24,0,-24,-34,-29
0,-43,-43,21,21,-43,9,29,0,-24,-34,-29
0,-43,-43,21,21,-43,9,29,0,-19,-34,-29
0,-48,-48,24,24,-48,9,29,4,-14,-34,-24
4,-48,-53,21,29,-51,9,24,4,-14,-29,-24
4,-48,-53,21,29,-51,9,19,4,-14,-24,-24
9,-43,-53,17,31,-48,9,19,4,-14,-24,-24
9,-43,-53,17,31,-48,9,19,4,-9,-19,-24
9,-43,-53,17,31,-48,9,19,4,-9,-19,-19
14,-43,-58,14,36,-51,9,19,4,-9,-14,-19
14,-43,-58,14,36,-51,9,19,9,-4,-14,-14
14,-43,-58,14,36,-51,9,19,14,-4,-14,-14
19,-39,-58,9,39,-48,4,19,14,-4,-9,-14
19,-34,-53,7,36,-43,4,19,14,-4,-9,-14
19,-34,-53,7,36,-43,4,19,19,0,-9,-9
24,-34,-58,4,41,-46,4,24,19,4,-9,-9
24,-34,-58,4,41,-46,0,24,19,4,-9,-4
24,-34,-58,4,41,-46,-4,24,19,4,-4,-4
24,-34,-58,4,41,-46,-4,24,19,4,0,-4
24,-34,-58,4,41,-46,-4,24,19,4,0,-4
24,-29,-53,2,39,-41,-4,24,24,9,0,-4
24,-29,-53,2,39,-41,-4,24,24,9,0,0
29,-34,-63,2,46,-48,-4,24,24,9,0,0
29,-34,-63,2,46,-48,0,19,24,9,4,4
24,-34,-58,4,41,-46,0,19,19,9,4,4
19,-34,-53,7,36,-43,0,19,19,14,4,4
19,-34,-53,7,36,-43,0,24,19,14,0,4
24,-34,-58,4,41,-46,0,24,19,14,-4,9
29,-29,-58,0,43,-43,0,24,24,14,0,4
34,-24,-58,-4,46,-41,-4,29,29,14,4,4
34,-19,-53,-7,43,-36,-4,29,34,14,4,4
39,-19,-58,-9,48,-39,-9,29,39,19,9,9
43,-9,-53,-17,48,-31,-9,29,43,24,14,14
48,0,-48,-24,48,-24,-9,29,48,29,19,19
48,9,-39,-29,43,-14,-9,29,53,34,19,24
48,14,-34,-31,41,-9,-9,24,58,39,24,29
53,24,-29,-39,41,-2,-14,24,63,48,29,34
58,29,-29,-43,43,0,-14,29,63,48,29,34
68,29,-39,-48,53,-4,-14,39,68,48,29,34
78,29,-48,-53,63,-9,-9,48,73,48,34,34
78,24,-53,-51,65,-14,-4,53,73,53,34,34
78,19,-58,-48,68,-19,-9,53,73,53,34,34
82,29,-53,-56,68,-12,-24,39,73,53,34,39
82,43,-39,-63,61,2,-43,24,73,53,43,43
82,53,-29,-68,56,12,-63,4,63,53,43,48
92,63,-29,-78,61,17,-78,-14,63,53,43,48
102,63,-39,-82,70,12,-92,-24,48,43,43,48
102,73,-29,-87,65,21,-102,-29,43,43,43,48
122,78,-43,-100,82,17,-92,-14,43,48,43,48
126,68,-58,-97,92,4,-82,-4,43,48,43,48
126,53,-73,-90,100,-9,-68,9,48,53,43,53
122,34,-87,-78,104,-26,-48,19,53,48,29,53
122,29,-92,-75,107,-31,-43,19,48,48,29,48
122,29,-92,-75,107,-31,-43,19,43,48,29,48
112,29,-82,-70,97,-26,-48,9,39,43,24,48
102,29,-73,-65,87,-21,-53,9,34,43,24,48
97,14,-82,-56,90,-34,-43,19,34,43,29,43
82,0,-82,-41,82,-41,-34,24,34,34,24,29
73,-9,-82,-31,78,-46,-24,29,34,29,24,24
63,-14,-78,-24,70,-46,-19,29,19,19,19,14
48,-24,-73,-12,61,-48,-19,29,19,9,4,4
34,-29,-63,-2,48,-46,-14,29,24,9,0,4
29,-29,-58,0,43,-43,-9,29,24,9,0,4
24,-29,-53,2,39,-41,-9,29,19,9,0,4
24,-34,-58,4,41,-46,-9,29,19,9,0,4
24,-34,-58,4,41,-46,-9,34,19,9,0,4
24,-39,-63,7,43,-51,0,34,19,14,4,4
24,-43,-68,9,46,-56,4,34,24,14,9,4
24,-43,-68,9,46,-56,4,34,24,14,9,4
24,-43,-68,9,46,-56,4,34,24,14,9,4
24,-39,-63,7,43,-51,-4,29,19,14,9,4
19,-43,-63,12,41,-53,-4,29,19,9,4,-4
9,-73,-82,31,46,-78,24,48,9,-4,-14,-19
9,-87,-97,39,53,-92,68,92,9,-19,-24,-34
-14,-122,-107,68,46,-114,117,126,29,-24,-48,-58
-34,-117,-82,75,24,-100,126,141,82,14,-19,-43
0,-19,-19,9,9,-19,73,107,229,175,112,68
102,131,29,-117,36,80,9,136,409,385,302,234
361,297,-63,-329,212,117,-68,248,619,619,531,448
649,556,-92,-602,370,231,-200,322,897,927,844,736
907,854,-53,-880,480,400,-336,283,1185,1254,1166,1049
1161,1141,-19,-1151,590,561,-585,58,1312,1507,1444,1342
1566,1507,-58,-1537,812,724,-951,-268,1381,1815,1820,1727
1932,1830,-102,-1881,1017,863,-1288,-551,1454,2108,2186,2098
2078,2039,-39,-2059,1058,1000,-1503,-829,1439,2259,2396,2342
2030,2113,82,-2071,973,1098,-1615,-1122,1332,2303,2503,2459
1786,1922,136,-1854,824,1029,-1512,-1185,1263,2298,2527,2483
1581,1664,82,-1622,749,873,-1405,-1151,1073,2147,2400,2371
1405,1385,-19,-1395,712,683,-1268,-1049,907,1883,2142,2127
1122,1093,-29,-1107,575,531,-1058,-927,751,1561,1805,1810
644,736,92,-690,275,414,-790,-854,165,814,1132,1254
287,453,165,-370,61,309,-551,-702,-209,302,614,780
146,239,92,-192,26,165,-302,-390,-126,146,322,429
14,78,63,-46,-24,70,-112,-214,-102,19,97,161
-39,4,43,17,-41,24,-39,-102,-78,-53,-34,14
-78,-48,29,63,-53,-9,4,-24,-78,-97,-102,-53
-92,-92,0,92,-46,-46,39,0,-68,-102,-112,-82
-97,-102,-4,100,-46,-53,63,9,-58,-107,-112,-92
-97,-102,-4,100,-46,-53,63,19,-53,-107,-112,-92
-97,-112,-14,104,-41,-63,63,43,-53,-112,-126,-107
-97,-131,-34,114,-31,-82,82,63,-48,-117,-131,-122
-102,-136,-34,119,-34,-85,92,68,-48,-117,-131,-131
-102,-136,-34,119,-34,-85,92,68,-48,-117,-131,-131
-102,-141,-39,122,-31,-90,97,82,-48,-122,-136,-136
-107,-141,-34,124,-36,-87,97,82,-48,-122,-146,-141
-107,-141,-34,124,-36,-87,102,87,-48,-126,-156,-146
-107,-141,-34,124,-36,-87,107,87,-48,-122,-156,-146
-107,-141,-34,124,-36,-87,107,87,-53,-122,-156,-146
-112,-141,-29,126,-41,-85,102,87,-53,-122,-161,-151
-117,-141,-24,129,-46,-82,102,87,-53,-126,-165,-151
-117,-141,-24,129,-46,-82,102,87,-53,-126,-165,-156
-122,-136,-14,129,-53,-75,102,87,-53,-131,-170,-161
-126,-136,-9,131,-58,-73,112,87,-58,-131,-170,-165
-131,-136,-4,134,-63,-70,117,92,-63,-141,-170,-165
-136,-141,-4,139,-65,-73,117,92,-58,-141,-170,-165
-141,-141,0,141,-70,-70,117,92,-53,-141,-175,-165
-141,-141,0,141,-70,-70,117,92,-58,-141,-175,-165
-146,-141,4,143,-75,-68,122,92,-58,-146,-175,-170
-146,-141,4,143,-75,-68,122,92,-58,-151,-175,-180
-151,-141,9,146,-80,-65,122,92,-58,-151,-180,-180
-156,-141,14,148,-85,-63,126,97,-63,-156,-195,-175
-161,-141,19,151,-90,-61,126,102,-63,-156,-195,-185
-170,-141,29,156,-100,-56,126,102,-63,-156,-190,-185
-170,-141,29,156,-100,-56,131,102,-63,-156,-200,-190
-180,-141,39,161,-109,-51,136,102,-68,-161,-200,-200
-190,-141,48,165,-119,-46,141,107,-68,-170,-204,-204
-200,-141,58,170,-129,-41,141,107,-78,-175,-219,-214
-204,-136,68,170,-136,-34,141,107,-82,-185,-224,-224
-214,-136,78,175,-146,-29,146,112,-82,-195,-229,-234
-224,-136,87,180,-156,-24,156,112,-92,-204,-234,-244
-239,-136,102,187,-170,-17,156,112,-97,-209,-248,-258
-258,-136,122,197,-190,-7,161,112,-102,-219,-268,-273
-273,-131,141,202,-207,4,165,107,-117,-234,-283,-287
-292,-131,161,212,-226,14,170,107,-131,-258,-297,-302
-307,-136,170,222,-239,17,175,97,-156,-283,-326,-326
-326,-141,185,234,-256,21,175,87,-180,-317,-356,-356
-351,-146,204,248,-278,29,180,82,-214,-346,-380,-385
-380,-156,224,268,-302,34,185,68,-248,-385,-414,-409
-409,-170,239,290,-324,34,190,58,-287,-424,-448,-444
-439,-180,258,309,-348,39,200,43,-326,-463,-497,-483
-473,-200,273,336,-373,36,209,29,-375,-512,-531,-522
-517,-209,307,363,-412,48,214,9,-419,-566,-580,-566
-546,-229,317,387,-431,43,214,-9,-478,-614,-634,-600
-585,-248,336,417,-461,43,219,-29,-527,-663,-673,-644
-619,-268,351,444,-485,41,224,-68,-580,-722,-717,-692
-649,-287,361,468,-505,36,229,-92,-634,-780,-775,-732
-683,-307,375,495,-529,34,234,-117,-692,-839,-824,-771
-712,-326,385,519,-549,29,239,-131,-741,-888,-858,-814
-746,-346,400,546,-573,26,239,-156,-800,-922,-902,-849
-766,-366,400,566,-583,17,239,-170,-839,-961,-936,-883
-771,-385,385,578,-578,0,244,-185,-863,-990,-956,-907
-775,-395,380,585,-578,-7,244,-200,-883,-1005,-971,-917
-771,-409,361,590,-566,-24,239,-204,-893,-1015,-980,-927
-761,-414,346,588,-553,-34,239,-209,-897,-1015,-985,-932
-727,-414,312,570,-519,-51,224,-204,-878,-995,-956,-907
-697,-409,287,553,-492,-61,219,-190,-854,-966,-927,-878
-663,-395,268,529,-466,-63,209,-175,-810,-927,-893,-849
-614,-370,244,492,-429,-63,200,-165,-766,-883,-854,-810
-575,-351,224,463,-400,-63,180,-141,-722,-829,-790,-756
-517,-322,195,419,-356,-63,170,-122,-658,-761,-722,-697
-458,-297,161,378,-309,-68,165,-92,-600,-697,-663,-644
-405,-273,131,339,-268,-70,146,-73,-531,-634,-595,-585
-351,-244,107,297,-229,-68,126,-53,-468,-561,-536,-522
-297,-214,82,256,-190,-65,117,-34,-390,-478,-463,-458
-248,-190,58,219,-153,-65,102,-14,-326,-409,-400,-400
-200,-161,39,180,-119,-61,82,-9,-273,-346,-341,-341
-151,-136,14,143,-82,-61,68,-4,-219,-287,-278,-283
-112,-117,-4,114,-53,-61,58,9,-165,-224,-214,-229
-78,-92,-14,85,-31,-53,48,24,-126,-180,-170,-180
-48,-68,-19,58,-14,-43,43,34,-82,-141,-131,-141
-24,-53,-29,39,2,-41,24,34,-53,-97,-97,-112
0,-48,-48,24,24,-48,14,39,-34,-53,-63,-78
14,-39,-53,12,34,-46,14,43,-4,-29,-34,-53
19,-24,-43,2,31,-34,9,43,14,-9,-19,-29
34,-14,-48,-9,41,-31,4,43,24,4,-4,-14
43,-4,-48,-19,46,-26,-4,39,34,24,9,4
48,0,-48,-24,48,-24,-4,39,48,39,24,14
53,9,-43,-31,48,-17,-9,39,58,43,29,24
58,14,-43,-36,51,-14,-9,39,63,48,34,29
68,19,-48,-43,58,-14,-14,39,68,53,43,39
68,24,-43,-46,56,-9,-14,34,73,63,43,39
68,24,-43,-46,56,-9,-14,34,78,63,48,39
68,29,-39,-48,53,-4,-14,34,82,63,48,43
68,29,-39,-48,53,-4,-19,29,82,68,48,43
68,24,-43,-46,56,-9,-19,34,82,68,53,43
63,29,-34,-46,48,-2,-19,39,82,68,58,43
63,29,-34,-46,48,-2,-19,39,78,68,58,43
63,29,-34,-46,48,-2,-19,39,73,68,53,43
58,19,-39,-39,48,-9,-19,39,73,63,53,43
58,14,-43,-36,51,-14,-14,34,73,63,53,39
53,14,-39,-34,46,-12,-14,34,78,58,48,39
48,14,-34,-31,41,-9,-9,29,78,53,43,39
43,9,-34,-26,39,-12,-9,29,68,48,39,34
43,4,-39,-24,41,-17,-9,29,68,48,39,29
34,4,-29,-19,31,-12,-9,29,58,48,29,29
29,0,-29,-14,29,-14,-9,29,48,48,29,14
29,4,-24,-17,26,-9,-9,19,48,34,29,14
24,4,-19,-14,21,-7,-4,14,43,34,19,9
24,0,-24,-12,24,-12,-4,14,39,29,9,4
19,-4,-24,-7,21,-14,-4,14,39,24,4,4
14,-4,-19,-4,17,-12,0,19,29,14,4,-4
14,-9,-24,-2,19,-17,0,19,24,9,0,-9
9,-9,-19,0,14,-14,-4,19,24,4,-4,-9
9,-9,-19,0,14,-14,-9,19,24,0,-4,-14
4,-14,-19,4,12,-17,-9,19,19,0,-4,-14
0,-14,-14,7,7,-14,-9,19,19,0,-9,-14
0,-19,-19,9,9,-19,-4,19,19,-4,-14,-14
0,-24,-24,12,12,-24,-4,19,14,-9,-19,-19
0,-29,-29,14,14,-29,0,19,14,-9,-19,-19
0,-34,-34,17,17,-34,0,19,9,-9,-19,-24
0,-34,-34,17,17,-34,4,19,14,-14,-19,-24
0,-34,-34,17,17,-34,9,19,14,-14,-24,-24
0,-34,-34,17,17,-34,4,19,14,-14,-24,-24
0,-34,-34,17,17,-34,4,19,14,-14,-24,-29
0,-34,-34,17,17,-34,4,19,9,-14,-24,-29
0,-34,-34,17,17,-34,0,19,9,-14,-24,-29
0,-34,-34,17,17,-34,0,19,4,-14,-24,-29
0,-39,-39,19,19,-39,0,19,4,-14,-24,-24
4,-39,-43,17,24,-41,0,19,4,-14,-24,-24
4,-39,-43,17,24,-41,0,19,4,-14,-24,-24
9,-39,-48,14,29,-43,0,19,4,-14,-24,-24
9,-43,-53,17,31,-48,0,19,4,-9,-19,-24
9,-43,-53,17,31,-48,0,19,4,-9,-19,-19
14,-43,-58,14,36,-51,0,19,4,-9,-14,-19
14,-43,-58,14,36,-51,0,19,9,0,-14,-14
14,-43,-58,14,36,-51,0,19,14,4,-14,-14
19,-39,-58,9,39,-48,-4,19,14,4,-9,-14
19,-34,-53,7,36,-43,-4,19,14,4,-9,-14
19,-34,-53,7,36,-43,-4,19,19,4,-9,-9
24,-34,-58,4,41,-46,-4,24,19,4,-9,-9
24,-34,-58,4,41,-46,-4,24,19,4,-9,-4
24,-34,-58,4,41,-46,-4,24,19,4,-4,-4
24,-34,-58,4,41,-46,-4,24,19,4,0,-4
24,-34,-58,4,41,-46,-4,24,19,4,0,-4
24,-24,-48,0,36,-36,-4,24,24,9,0,-4
24,-19,-43,-2,34,-31,-4,24,24,9,0,0
29,-19,-48,-4,39,-34,-9,24,24,9,0,0
29,-14,-43,-7,36,-29,-9,19,24,9,4,4
29,-14,-43,-7,36,-29,-14,19,24,9,4,4
29,-14,-43,-7,36,-29,-19,19,29,14,4,4
29,-14,-43,-7,36,-29,-19,19,29,14,4,4
29,-14,-43,-7,36,-29,-19,14,29,14,4,4
34,-14,-48,-9,41,-31,-19,14,29,14,4,9
34,-14,-48,-9,41,-31,-19,14,34,19,9,9
34,-14,-48,-9,41,-31,-19,14,34,19,9,9
39,-9,-48,-14,43,-29,-19,14,39,24,14,14
39,-14,-53,-12,46,-34,-19,14,43,24,14,14
39,-19,-58,-9,48,-39,-19,19,48,29,19,19
39,-9,-48,-14,43,-29,-19,19,48,34,19,19
39,0,-39,-19,39,-19,-19,19,48,39,19,19
43,14,-29,-29,36,-7,-19,19,58,43,24,24
48,24,-24,-36,36,0,-19,14,63,48,24,29
53,39,-14,-46,34,12,-24,14,68,53,29,34
53,39,-14,-46,34,12,-29,14,73,58,39,34
58,39,-19,-48,39,9,-24,19,68,53,39,34
68,39,-29,-53,48,4,-24,29,68,53,39,39
78,34,-43,-56,61,-4,-19,43,73,58,43,43
78,29,-48,-53,63,-9,-19,48,73,63,43,43
78,29,-48,-53,63,-9,-19,48,78,63,43,43
82,39,-43,-61,63,-2,-24,39,82,63,43,48
82,53,-29,-68,56,12,-43,24,82,63,53,53
87,58,-29,-73,58,14,-63,9,73,63,53,58
102,63,-39,-82,70,12,-82,-9,73,63,48,58
112,63,-48,-87,80,7,-92,-19,63,53,43,58
112,78,-34,-95,73,21,-92,-19,63,53,43,58
126,82,-43,-104,85,19,-82,-4,63,58,43,58
126,68,-58,-97,92,4,-73,4,63,63,48,58
126,53,-73,-90,100,-9,-63,14,63,68,53,58
122,29,-92,-75,107,-31,-48,19,63,58,39,53
122,19,-102,-70,112,-41,-43,19,58,58,39,48
122,19,-102,-70,112,-41,-43,19,53,53,43,48
112,19,-92,-65,102,-36,-43,9,53,43,43,48
102,24,-78,-63,90,-26,-43,9,53,43,43,48
92,14,-78,-53,85,-31,-34,19,53,43,43,43
73,0,-73,-36,73,-36,-24,19,53,34,34,29
63,-9,-73,-26,68,-41,-14,19,53,34,34,29
53,-19,-73,-17,63,-46,-9,19,39,29,29,24
43,-34,-78,-4,61,-56,-9,19,39,19,19,14
29,-43,-73,7,51,-58,-4,24,39,19,14,14
24,-48,-73,12,48,-61,0,29,34,19,9,14
24,-48,-73,12,48,-61,0,29,29,19,9,14
24,-53,-78,14,51,-65,0,29,29,19,9,14
24,-53,-78,14,51,-65,0,34,29,19,9,14
24,-53,-78,14,51,-65,4,34,29,24,9,14
24,-53,-78,14,51,-65,4,34,34,24,9,9
24,-53,-78,14,51,-65,4,34,34,24,9,4
24,-48,-73,12,48,-61,4,29,34,24,9,4
24,-43,-68,9,46,-56,4,29,34,24,9,4
19,-43,-63,12,41,-53,0,24,34,19,4,-4
9,-63,-73,26,41,-68,14,39,34,19,-4,-14
4,-97,-102,46,53,-100,68,107,19,-9,-24,-34
0,-117,-117,58,58,-117,102,141,48,4,-24,-29
-43,-122,-78,82,17,-100,117,131,92,34,-9,-34
0,-39,-39,19,19,-39,78,112,214,165,102,58
117,107,-9,-112,63,48,24,165,385,356,283,224
341,268,-73,-305,207,97,-53,244,580,570,492,429
653,536,-117,-595,385,209,-180,351,902,907,814,717
936,824,-112,-880,524,356,-326,326,1166,1210,1117,1010
1200,1122,-78,-1161,639,522,-605,58,1249,1415,1371,1298
1542,1439,-102,-1490,822,668,-917,-239,1317,1678,1693,1634
2000,1800,-200,-1900,1100,800,-1298,-527,1410,2010,2103,2039
2196,1995,-200,-2095,1198,897,-1512,-771,1400,2166,2318,2283
2083,2059,-24,-2071,1054,1017,-1605,-1088,1302,2215,2420,2400
1883,1917,34,-1900,924,976,-1542,-1195,1200,2186,2420,2410
1717,1620,-97,-1668,907,761,-1424,-1122,1019,2049,2308,2308
1512,1346,-165,-1429,839,590,-1293,-1044,839,1781,2059,2078
1161,1063,-97,-1112,629,483,-1068,-951,668,1444,1708,1751
746,741,-4,-744,375,368,-810,-849,258,883,1176,1293
346,439,92,-392,126,265,-551,-683,-146,351,634,775
146,229,82,-187,31,156,-322,-429,-175,117,312,419
24,87,63,-56,-19,75,-126,-248,-112,19,112,175
-48,-4,43,26,-46,19,-14,-112,-68,-43,-19,19
-78,-58,19,68,-48,-19,14,-34,-68,-82,-73,-39
-97,-102,-4,100,-46,-53,39,4,-63,-97,-102,-87
-97,-102,-4,100,-46,-53,58,9,-58,-97,-102,-92
-97,-102,-4,100,-46,-53,63,19,-53,-97,-102,-92
-97,-112,-14,104,-41,-63,63,43,-53,-102,-117,-107
-97,-126,-29,112,-34,-78,78,58,-48,-107,-122,-117
-107,-126,-19,117,-43,-73,82,58,-48,-102,-122,-122
-112,-126,-14,119,-48,-70,82,58,-48,-97,-122,-122
-112,-131,-19,122,-46,-75,87,78,-48,-102,-126,-126
-117,-136,-19,126,-48,-78,87,82,-48,-102,-131,-131
-117,-141,-24,129,-46,-82,92,87,-48,-112,-136,-141
-117,-141,-24,129,-46,-82,97,87,-48,-117,-136,-146
-117,-141,-24,129,-46,-82,97,87,-48,-122,-136,-146
-122,-141,-19,131,-51,-80,97,87,-43,-122,-141,-151
-126,-141,-14,134,-56,-78,107,92,-43,-122,-146,-151
-126,-141,-14,134,-56,-78,112,97,-43,-117,-146,-156
-131,-141,-9,136,-61,-75,112,97,-43,-122,-151,-161
-136,-146,-9,141,-63,-78,117,97,-48,-122,-156,-165
-136,-146,-9,141,-63,-78,117,102,-53,-131,-161,-161
-136,-151,-14,143,-61,-82,117,102,-53,-131,-161,-161
-141,-146,-4,143,-68,-75,117,102,-53,-131,-165,-165
-141,-141,0,141,-70,-70,117,102,-58,-131,-165,-165
-146,-141,4,143,-75,-68,122,102,-58,-136,-165,-170
-151,-141,9,146,-80,-65,122,102,-58,-141,-165,-180
-165,-141,24,153,-95,-58,126,102,-58,-141,-170,-180
-175,-141,34,158,-104,-53,136,102,-63,-146,-185,-180
-180,-141,39,161,-109,-51,136,107,-63,-141,-185,-195
-190,-141,48,165,-119,-46,136,112,-63,-141,-185,-195
-185,-141,43,163,-114,-48,136,112,-58,-146,-195,-195
-190,-141,48,165,-119,-46,136,112,-58,-151,-190,-200
-200,-141,58,170,-129,-41,141,117,-58,-161,-195,-204
-209,-141,68,175,-139,-36,141,117,-68,-165,-209,-214
-214,-136,78,175,-146,-29,141,117,-73,-170,-209,-219
-224,-136,87,180,-156,-24,146,122,-78,-175,-214,-224
-234,-131,102,183,-168,-14,156,122,-87,-180,-219,-234
-248,-126,122,187,-185,-2,156,122,-92,-185,-229,-248
-268,-126,141,197,-204,7,161,122,-97,-200,-244,-263
-283,-126,156,204,-219,14,165,117,-112,-219,-258,-283
-302,-131,170,217,-236,19,170,117,-122,-239,-273,-292
-322,-136,185,229,-253,24,180,107,-141,-253,-297,-307
-346,-141,204,244,-275,31,185,97,-161,-278,-322,-336
-375,-146,229,261,-302,41,190,87,-185,-302,-346,-366
-409,-156,253,283,-331,48,195,68,-219,-341,-380,-380
-439,-170,268,305,-353,48,200,58,-263,-380,-409,-409
-468,-175,292,322,-380,58,209,43,-297,-414,-448,-448
-502,-190,312,346,-407,61,219,24,-341,-458,-478,-483
-546,-200,346,373,-446,73,229,0,-375,-502,-522,-522
-575,-219,356,397,-466,68,234,-19,-424,-541,-566,-556
-619,-239,380,429,-500,70,239,-39,-468,-590,-605,-605
-658,-258,400,458,-529,70,244,-78,-517,-644,-653,-653
-692,-273,419,483,-556,73,248,-102,-575,-692,-717,-692
-727,-287,439,507,-583,75,253,-126,-634,-741,-766,-732
-756,-307,448,531,-602,70,258,-146,-683,-800,-800,-780
-785,-326,458,556,-622,65,258,-175,-732,-844,-839,-814
-810,-351,458,580,-634,53,258,-190,-766,-883,-873,-844
-824,-375,448,600,-636,36,263,-200,-790,-907,-893,-863
-829,-390,439,610,-634,24,268,-214,-810,-927,-907,-878
-824,-405,419,614,-622,7,268,-219,-814,-936,-912,-888
-814,-409,405,612,-610,-2,268,-224,-834,-941,-927,-897
-785,-409,375,597,-580,-17,253,-224,-824,-927,-907,-883
-761,-400,361,580,-561,-19,248,-209,-795,-902,-878,-854
-722,-385,336,553,-529,-24,239,-190,-761,-868,-844,-824
-663,-361,302,512,-483,-29,229,-180,-727,-829,-805,-790
-624,-341,283,483,-453,-29,209,-161,-683,-780,-751,-741
-561,-312,248,436,-405,-31,200,-141,-624,-712,-692,-688
-497,-287,209,392,-353,-39,190,-112,-575,-653,-639,-639
-434,-273,161,353,-297,-56,165,-92,-512,-595,-570,-575
-375,-248,126,312,-251,-61,146,-73,-458,-531,-517,-512
-326,-214,112,270,-219,-51,136,-48,-380,-453,-444,-448
-278,-190,87,234,-183,-51,122,-19,-317,-390,-380,-390
-219,-156,63,187,-141,-46,102,-4,-263,-326,-326,-331
-170,-126,43,148,-107,-41,87,4,-209,-268,-273,-278
-131,-107,24,119,-78,-41,73,19,-156,-204,-214,-229
-87,-87,0,87,-43,-43,58,29,-122,-161,-170,-185
-53,-68,-14,61,-19,-41,48,34,-82,-122,-126,-151
-29,-53,-24,41,-2,-39,29,34,-53,-87,-92,-122
-4,-48,-43,26,19,-46,24,39,-34,-53,-63,-87
14,-39,-53,12,34,-46,24,43,-4,-29,-34,-63
19,-24,-43,2,31,-34,19,43,14,-9,-14,-29
34,-14,-48,-9,41,-31,14,48,24,4,4,-9
43,-4,-48,-19,46,-26,4,48,34,24,19,4
48,0,-48,-24,48,-24,4,48,48,39,34,14
53,9,-43,-31,48,-17,0,48,58,43,39,24
53,9,-43,-31,48,-17,0,48,58,48,43,29
63,9,-53,-36,58,-21,-4,53,58,53,53,39
68,14,-53,-41,61,-19,-4,53,63,63,53,39
68,14,-53,-41,61,-19,-4,53,73,63,58,39
68,19,-48,-43,58,-14,-4,53,82,63,58,43
68,24,-43,-46,56,-9,-9,48,82,68,58,43
68,19,-48,-43,58,-14,-9,48,82,68,63,43
58,19,-39,-39,48,-9,-9,48,82,68,63,43
53,19,-34,-36,43,-7,-9,48,78,68,58,43
53,19,-34,-36,43,-7,-9,48,73,68,53,43
48,14,-34,-31,41,-9,-9,48,73,63,53,43
48,14,-34,-31,41,-9,-4,43,73,63,53,39
43,14,-29,-29,36,-7,-4,43,73,58,48,39
43,14,-29,-29,36,-7,0,39,73,53,43,43
43,9,-34,-26,39,-12,0,39,68,48,39,43
43,0,-43,-21,43,-21,0,43,68,53,39,39
34,-4,-39,-14,36,-21,0,48,63,53,29,39
29,-9,-39,-9,34,-24,0,48,58,53,29,24
29,-9,-39,-9,34,-24,0,43,58,43,29,24
19,-14,-34,-2,26,-24,4,39,53,43,19,19
14,-19,-34,2,24,-26,4,34,48,39,9,14
9,-19,-29,4,19,-24,4,34,48,29,4,9
4,-14,-19,4,12,-17,9,34,39,19,4,-4
4,-19,-24,7,14,-21,9,29,34,19,0,-9
0,-19,-19,9,9,-19,9,29,34,14,-4,-9
0,-19,-19,9,9,-19,14,34,34,9,-4,-14
-4,-24,-19,14,7,-21,19,39,29,9,-4,-14
-9,-24,-14,17,2,-19,19,39,29,9,-9,-14
-9,-29,-19,19,4,-24,24,39,29,4,-14,-14
-9,-34,-24,21,7,-29,19,39,24,0,-19,-19
-9,-34,-24,21,7,-29,19,39,24,0,-19,-19
-9,-34,-24,21,7,-29,19,39,19,0,-14,-24
-9,-34,-24,21,7,-29,19,39,19,-4,-9,-24
-9,-34,-24,21,7,-29,24,39,14,-4,-14,-24
-9,-34,-24,21,7,-29,24,39,14,-4,-14,-24
-9,-34,-24,21,7,-29,24,34,14,-4,-19,-29
-9,-34,-24,21,7,-29,24,29,9,-4,-24,-29
-9,-34,-24,21,7,-29,19,29,9,-4,-24,-29
-9,-34,-24,21,7,-29,19,29,9,-4,-24,-29
-9,-39,-29,24,9,-34,19,34,14,-4,-24,-24
-4,-39,-34,21,14,-36,19,39,14,-4,-24,-24
-4,-39,-34,21,14,-36,19,39,14,-9,-24,-24
0,-34,-34,17,17,-34,19,39,14,-14,-24,-24
0,-34,-34,17,17,-34,19,39,14,-9,-19,-24
0,-34,-34,17,17,-34,19,39,14,-9,-19,-19
4,-39,-43,17,24,-41,19,39,14,-4,-14,-19
4,-43,-48,19,26,-46,19,39,19,4,-14,-14
4,-43,-48,19,26,-46,24,39,24,4,-14,-14
9,-43,-53,17,31,-48,24,39,24,4,-9,-14
9,-43,-53,17,31,-48,24,39,24,4,-9,-14
9,-43,-53,17,31,-48,24,39,29,9,-9,-9
14,-39,-53,12,34,-46,19,43,24,9,-9,-9
14,-34,-48,9,31,-41,14,43,19,4,-9,-4
14,-34,-48,9,31,-41,14,43,19,4,-4,-4
14,-34,-48,9,31,-41,14,43,19,4,0,-4
14,-34,-48,9,31,-41,14,43,19,4,0,-4
14,-29,-43,7,29,-36,14,43,24,9,0,-4
14,-29,-43,7,29,-36,14,43,24,9,0,0
19,-29,-48,4,34,-39,9,43,24,9,0,0
19,-29,-48,4,34,-39,9,39,24,9,4,4
19,-34,-53,7,36,-43,9,39,24,9,4,4
24,-34,-58,4,41,-46,9,39,29,19,9,9
29,-34,-63,2,46,-48,9,43,29,24,14,14
29,-34,-63,2,46,-48,9,43,29,24,14,14
34,-34,-68,0,51,-51,9,43,34,29,19,19
34,-24,-58,-4,46,-41,9,43,39,29,14,14
34,-14,-48,-9,41,-31,14,48,48,34,14,14
34,-9,-43,-12,39,-26,9,48,53,34,14,14
39,-9,-48,-14,43,-29,9,48,58,39,19,19
39,4,-34,-21,36,-14,9,48,58,43,29,24
39,19,-19,-29,29,0,9,48,58,48,39,29
39,24,-14,-31,26,4,9,53,63,48,39,29
43,24,-19,-34,31,2,9,53,68,53,43,29
48,24,-24,-36,36,0,9,53,73,58,48,34
58,19,-39,-39,48,-9,14,58,73,58,48,34
68,19,-48,-43,58,-14,14,68,78,58,48,39
78,19,-58,-48,68,-19,19,78,82,58,53,43
78,24,-53,-51,65,-14,19,78,82,63,53,43
78,29,-48,-53,63,-9,9,73,82,63,53,43
82,39,-43,-61,63,-2,-4,63,87,73,58,53
82,53,-29,-68,56,12,-24,53,92,82,73,63
87,58,-29,-73,58,14,-43,39,82,82,73,68
102,63,-39,-82,70,12,-58,24,82,82,73,68
112,63,-48,-87,80,7,-73,9,73,73,68,63
112,73,-39,-92,75,17,-82,0,73,73,63,58
131,73,-58,-102,95,7,-73,14,73,78,63,58
136,58,-78,-97,107,-9,-63,24,73,78,63,58
136,43,-92,-90,114,-24,-48,34,68,73,63,58
131,24,-107,-78,119,-41,-29,39,63,58,48,53
126,19,-107,-73,117,-43,-24,39,58,58,48,48
122,19,-102,-70,112,-41,-24,39,53,58,48,48
112,19,-92,-65,102,-36,-24,29,58,53,43,48
102,19,-82,-61,92,-31,-24,29,63,53,43,48
92,4,-87,-48,90,-41,-14,43,63,53,43,48
73,-9,-82,-31,78,-46,-4,53,63,43,34,39
68,-19,-87,-24,78,-53,4,58,63,43,34,39
63,-24,-87,-19,75,-56,9,58,48,39,29,34
53,-39,-92,-7,73,-65,9,58,43,29,19,19
43,-48,-92,2,68,-70,14,58,43,29,19,14
43,-48,-92,2,68,-70,19,58,43,29,19,14
43,-48,-92,2,68,-70,19,58,39,29,19,14
43,-53,-97,4,70,-75,19,58,39,29,19,14
43,-53,-97,4,70,-75,19,63,39,29,19,14
39,-53,-92,7,65,-73,24,63,39,34,19,14
34,-53,-87,9,61,-70,24,63,43,34,19,14
34,-53,-87,9,61,-70,24,63,48,34,19,14
34,-53,-87,9,61,-70,24,63,53,34,19,14
39,-58,-97,9,68,-78,24,68,53,34,19,14
39,-73,-112,17,75,-92,34,78,58,29,14,4
29,-102,-131,36,80,-117,63,117,63,29,4,-4
29,-117,-146,43,87,-131,107,180,78,29,4,-14
19,-131,-151,56,85,-141,146,200,126,58,9,-9
14,-107,-122,46,68,-114,146,200,209,131,68,34
78,4,-73,-41,75,-34,82,175,366,297,219,165
209,170,-39,-190,124,65,9,214,556,512,429,351
468,346,-122,-407,295,112,-78,326,775,766,668,575
756,614,-141,-685,448,236,-219,400,1063,1093,990,873
1005,922,-82,-963,544,419,-351,385,1356,1420,1327,1195
1249,1220,-29,-1234,639,595,-595,185,1488,1673,1620,1498
1634,1581,-53,-1607,844,763,-956,-161,1586,2005,2005,1888
1981,1898,-82,-1939,1032,907,-1288,-463,1688,2322,2381,2264
2083,2064,-19,-2074,1051,1022,-1459,-707,1688,2488,2591,2498
1991,2093,102,-2042,944,1098,-1527,-966,1595,2547,2698,2605
1756,1883,126,-1820,814,1005,-1405,-1024,1478,2498,2684,2591
1561,1605,43,-1583,758,824,-1278,-985,1239,2303,2518,2440
1317,1327,9,-1322,653,668,-1156,-941,976,1961,2196,2147
966,1034,68,-1000,448,551,-961,-878,722,1561,1795,1781
507,653,146,-580,180,400,-692,-805,131,790,1093,1190
170,346,175,-258,-2,261,-453,-653,-248,253,546,683
73,170,97,-122,-12,134,-239,-351,-146,122,283,366
-14,48,63,-17,-39,56,-82,-185,-102,19,87,131
-48,-24,24,36,-36,0,-9,-68,-68,-43,-29,0
-68,-78,-9,73,-29,-43,34,14,-58,-78,-82,-53
-78,-117,-39,97,-19,-78,63,34,-53,-78,-92,-78
-78,-122,-43,100,-17,-82,82,39,-48,-78,-92,-82
-78,-122,-43,100,-17,-82,82,48,-43,-78,-92,-82
-78,-131,-53,104,-12,-92,82,73,-43,-82,-107,-97
-82,-151,-68,117,-7,-109,102,92,-34,-87,-112,-107
-92,-156,-63,124,-14,-109,112,97,-29,-87,-112,-112
-92,-156,-63,124,-14,-109,112,97,-29,-87,-117,-112
-92,-161,-68,126,-12,-114,117,112,-29,-92,-126,-117
-97,-165,-68,131,-14,-117,117,112,-29,-92,-131,-122
-97,-170,-73,134,-12,-122,122,117,-29,-97,-136,-126
-97,-170,-73,134,-12,-122,126,117,-29,-97,-136,-126
-97,-170,-73,134,-12,-122,126,117,-34,-102,-136,-126
-102,-175,-73,139,-14,-124,126,117,-34,-107,-136,-131
-107,-180,-73,143,-17,-126,131,117,-34,-117,-136,-131
-107,-180,-73,143,-17,-126,131,117,-39,-117,-136,-136
-112,-175,-63,143,-24,-119,131,117,-43,-122,-141,-141
-112,-175,-63,143,-24,-119,136,112,-48,-122,-151,-151
-112,-175,-63,143,-24,-119,136,112,-53,-131,-161,-156
-117,-180,-63,148,-26,-122,136,112,-53,-131,-161,-161
-122,-180,-58,151,-31,-119,136,112,-53,-131,-165,-165
-122,-180,-58,151,-31,-119,136,112,-63,-131,-165,-165
-126,-180,-53,153,-36,-117,141,112,-68,-136,-165,-170
-131,-180,-48,156,-41,-114,136,112,-68,-146,-165,-180
-141,-180,-39,161,-51,-109,131,112,-68,-151,-170,-180
-146,-180,-34,163,-56,-107,136,112,-78,-156,-185,-180
-151,-180,-29,165,-61,-104,136,112,-82,-156,-185,-195
-161,-180,-19,170,-70,-100,136,112,-82,-161,-185,-195
-161,-180,-19,170,-70,-100,141,112,-82,-165,-200,-200
-170,-180,-9,175,-80,-95,146,107,-87,-170,-200,-209
-180,-180,0,180,-90,-90,151,107,-87,-180,-204,-214
-190,-185,4,187,-97,-90,151,107,-97,-185,-219,-224
-195,-185,9,190,-102,-87,151,107,-102,-195,-224,-234
-204,-185,19,195,-112,-82,156,112,-107,-204,-234,-244
-214,-185,29,200,-122,-78,165,112,-122,-214,-244,-253
-229,-185,43,207,-136,-70,165,112,-131,-224,-258,-268
-248,-185,63,217,-156,-61,170,112,-141,-239,-278,-283
-263,-185,78,224,-170,-53,175,102,-161,-258,-297,-302
-283,-190,92,236,-187,-48,180,97,-180,-287,-317,-322
-302,-195,107,248,-204,-43,190,87,-209,-312,-346,-346
-326,-200,126,263,-226,-36,195,78,-239,-346,-375,-375
-356,-204,151,280,-253,-26,200,68,-273,-380,-405,-405
-390,-214,175,302,-283,-19,204,48,-307,-424,-444,-429
-419,-234,185,326,-302,-24,204,39,-351,-468,-478,-468
-448,-248,200,348,-324,-24,209,24,-395,-512,-527,-512
-478,-268,209,373,-344,-29,219,4,-448,-566,-566,-551
-517,-278,239,397,-378,-19,224,-19,-497,-624,-619,-595
-546,-292,253,419,-400,-19,224,-39,-561,-678,-673,-634
-585,-307,278,446,-431,-14,229,-58,-614,-732,-712,-683
-619,-326,292,473,-456,-17,234,-92,-668,-790,-761,-732
-649,-346,302,497,-475,-21,239,-112,-722,-849,-824,-771
-678,-366,312,522,-495,-26,244,-136,-780,-907,-873,-810
-702,-385,317,544,-509,-34,248,-151,-829,-956,-907,-854
-732,-409,322,570,-527,-43,253,-170,-878,-990,-946,-883
-746,-434,312,590,-529,-61,258,-180,-907,-1029,-976,-912
-751,-453,297,602,-524,-78,263,-185,-932,-1058,-995,-936
-756,-463,292,610,-524,-85,263,-190,-951,-1073,-1010,-946
-746,-473,273,610,-509,-100,258,-190,-956,-1073,-1010,-946
-732,-473,258,602,-495,-107,258,-190,-956,-1063,-1005,-941
-697,-468,229,583,-463,-119,244,-185,-927,-1039,-971,-912
-668,-458,209,563,-439,-124,239,-170,-893,-1005,-936,-878
-624,-444,180,534,-402,-131,229,-151,-849,-956,-893,-849
-566,-419,146,492,-356,-136,219,-136,-805,-902,-844,-810
-527,-400,126,463,-326,-136,200,-112,-751,-839,-780,-751
-468,-370,97,419,-283,-136,190,-92,-678,-761,-712,-688
-409,-346,63,378,-236,-141,185,-63,-610,-692,-649,-629
-356,-322,34,339,-195,-143,165,-43,-531,-624,-575,-566
-307,-287,19,297,-163,-134,146,-24,-468,-551,-512,-492
-258,-253,4,256,-131,-124,136,-4,-390,-468,-434,-419
-209,-229,-19,219,-95,-124,122,19,-322,-395,-366,-361
-161,-200,-39,180,-61,-119,102,29,-263,-326,-302,-302
-122,-175,-53,148,-34,-114,87,34,-200,-263,-244,-244
-92,-156,-63,124,-14,-109,78,48,-136,-195,-185,-190
-58,-136,-78,97,9,-107,68,58,-102,-146,-136,-146
-29,-117,-87,73,29,-102,63,63,-63,-102,-92,-112
-9,-102,-92,56,41,-97,48,63,-29,-68,-63,-82
9,-97,-107,43,58,-102,43,68,-4,-34,-34,-48
24,-87,-112,31,68,-100,43,73,24,-4,-4,-24
29,-73,-102,21,65,-87,39,73,43,19,9,0
43,-63,-107,9,75,-85,34,78,53,34,29,14
53,-53,-107,0,80,-80,24,78,63,53,48,34
58,-48,-107,-4,82,-78,24,78,78,68,63,43
63,-39,-102,-12,82,-70,19,78,87,73,68,53
58,-39,-97,-9,78,-68,19,78,92,82,73,58
58,-39,-97,-9,78,-68,14,78,97,92,82,68
58,-34,-92,-12,75,-63,14,73,102,102,82,68
58,-34,-92,-12,75,-63,14,73,107,102,87,68
63,-29,-92,-17,78,-61,14,73,112,102,87,68
68,-29,-97,-19,82,-63,9,68,112,107,87,63
68,-39,-107,-14,87,-73,9,68,112,102,87,63
63,-39,-102,-12,82,-70,9,68,112,97,87,63
63,-34,-97,-14,80,-65,9,68,107,97,87,63
63,-29,-92,-17,78,-61,9,68,102,97,82,63
58,-34,-92,-12,75,-63,9,63,97,92,82,63
58,-34,-92,-12,75,-63,14,53,92,92,82,58
53,-34,-87,-9,70,-61,14,53,92,87,78,58
48,-34,-82,-7,65,-58,19,48,87,82,73,58
43,-39,-82,-2,63,-61,19,48,78,78,68,53
43,-43,-87,0,65,-65,19,48,78,78,68,48
34,-43,-78,4,56,-61,19,48,73,73,58,53
29,-48,-78,9,53,-63,19,48,68,68,58,43
29,-48,-78,9,53,-63,14,43,68,53,58,43
24,-53,-78,14,51,-65,14,43,63,53,48,39
24,-58,-82,17,53,-70,14,43,58,48,39,34
19,-63,-82,21,51,-73,14,43,58,43,34,34
14,-63,-78,24,46,-70,19,43,48,39,34,24
14,-68,-82,26,48,-75,19,39,43,39,29,19
9,-68,-78,29,43,-73,19,39,43,34,19,14
9,-68,-78,29,43,-73,19,39,43,29,14,4
9,-68,-78,29,43,-73,19,39,39,24,14,4
9,-63,-73,26,41,-68,19,39,39,19,9,4
9,-68,-78,29,43,-73,19,39,34,14,4,4
9,-73,-82,31,46,-78,14,39,24,9,0,0
4,-73,-78,34,41,-75,19,39,24,9,0,0
0,-73,-73,36,36,-73,19,39,19,9,0,-4
0,-73,-73,36,36,-73,19,39,19,4,0,-4
0,-73,-73,36,36,-73,19,39,14,4,-4,-4
4,-73,-78,34,41,-75,19,39,14,4,-4,-4
9,-73,-82,31,46,-78,24,39,14,4,-4,-9
9,-73,-82,31,46,-78,24,39,14,4,0,-9
9,-73,-82,31,46,-78,19,39,19,4,4,-9
4,-73,-78,34,41,-75,19,39,19,4,4,-9
0,-78,-78,39,39,-78,19,39,24,4,4,-4
4,-78,-82,36,43,-80,19,39,24,4,4,-4
4,-78,-82,36,43,-80,19,39,24,4,4,-4
9,-73,-82,31,46,-78,19,39,24,4,4,-4
9,-73,-82,31,46,-78,19,39,24,9,9,-4
9,-73,-82,31,46,-78,19,39,24,9,4,0
14,-73,-87,29,51,-80,19,39,24,9,4,0
14,-73,-87,29,51,-80,19,39,29,14,4,4
14,-73,-87,29,51,-80,19,39,34,14,4,4
19,-73,-92,26,56,-82,14,39,34,14,9,4
19,-73,-92,26,56,-82,14,39,34,14,9,4
19,-73,-92,26,56,-82,14,39,39,19,9,9
24,-73,-97,24,61,-85,14,43,39,24,9,9
24,-68,-92,21,58,-80,14,43,39,24,9,14
24,-63,-87,19,56,-75,14,43,39,24,14,14
24,-63,-87,19,56,-75,14,43,39,24,19,14
24,-63,-87,19,56,-75,14,43,39,24,19,14
24,-58,-82,17,53,-70,14,43,43,29,19,14
24,-58,-82,17,53,-70,14,43,43,29,19,19
29,-63,-92,17,61,-78,9,43,43,29,19,19
29,-63,-92,17,61,-78,9,39,43,29,24,24
29,-63,-92,17,61,-78,9,39,43,29,24,24
29,-63,-92,17,61,-78,9,39,48,34,24,24
29,-63,-92,17,61,-78,9,43,48,34,24,24
29,-63,-92,17,61,-78,9,43,48,34,24,24
34,-63,-97,14,65,-80,9,43,43,34,24,24
34,-63,-97,14,65,-80,9,43,43,39,29,19
29,-53,-82,12,56,-68,4,39,48,43,34,24
29,-48,-78,9,53,-63,0,39,58,48,39,29
39,-39,-78,0,58,-58,0,39,58,48,43,34
48,-29,-78,-9,63,-53,0,39,58,48,48,39
48,-19,-68,-14,58,-43,0,39,68,53,48,43
48,-9,-58,-19,53,-34,0,34,73,58,48,48
53,0,-53,-26,53,-26,-4,34,78,63,48,53
53,0,-53,-26,53,-26,-9,34,82,68,58,53
58,4,-53,-31,56,-24,-4,39,82,68,58,53
68,9,-58,-39,63,-24,-4,48,87,73,58,58
78,9,-68,-43,73,-29,4,63,97,78,63,63
78,9,-68,-43,73,-29,9,68,102,82,63,63
78,4,-73,-41,75,-34,0,63,102,82,63,63
82,9,-73,-46,78,-31,-14,48,102,82,63,68
82,24,-58,-53,70,-17,-34,34,97,82,73,73
87,29,-58,-58,73,-14,-53,19,82,82,73,78
102,39,-63,-70,82,-12,-73,0,82,82,73,78
112,43,-68,-78,90,-12,-82,-9,73,73,73,78
112,53,-58,-82,85,-2,-82,-9,73,73,73,78
126,53,-73,-90,100,-9,-73,4,73,78,73,78
126,39,-87,-82,107,-24,-63,14,73,78,73,78
126,24,-102,-75,114,-39,-53,24,73,78,73,78
122,0,-122,-61,122,-61,-39,29,73,68,58,73
122,-9,-131,-56,126,-70,-34,29,68,68,58,68
126,-9,-136,-58,131,-73,-34,29,63,68,58,68
122,-9,-131,-56,126,-70,-34,19,63,63,53,68
112,-4,-117,-53,114,-61,-34,19,63,63,58,68
102,-14,-117,-43,109,-65,-24,29,63,63,63,63
82,-29,-112,-26,97,-70,-14,34,63,53,53,48
73,-39,-112,-17,92,-75,-4,39,63,53,53,48
58,-43,-102,-7,80,-73,0,43,48,48,48,43
43,-53,-97,4,70,-75,0,48,48,39,39,34
34,-58,-92,12,63,-75,4,48,53,39,34,29
34,-58,-92,12,63,-75,9,48,53,39,29,24
34,-58,-92,12,63,-75,9,43,48,39,29,24
34,-63,-97,14,65,-80,9,39,48,39,29,24
34,-68,-102,17,68,-85,9,43,48,39,29,24
34,-73,-107,19,70,-90,14,43,48,43,29,24
34,-73,-107,19,70,-90,14,43,53,43,29,24
34,-73,-107,19,70,-90,14,43,53,43,29,24
34,-68,-102,17,68,-85,14,39,53,43,29,24
34,-63,-97,14,65,-80,14,39,53,43,29,24
29,-73,-102,21,65,-87,14,48,53,39,24,14
19,-102,-122,41,70,-112,34,78,53,39,14,4
14,-126,-141,56,78,-134,92,131,48,14,0,-19
9,-136,-146,63,78,-141,131,151,87,34,4,-19
-24,-126,-102,75,39,-114,131,141,151,87,34,0
29,-29,-58,0,43,-43,78,122,292,244,161,117
161,136,-24,-148,92,56,19,175,497,468,380,302
400,317,-82,-358,241,117,-63,253,727,717,629,527
697,595,-102,-646,400,246,-204,336,1058,1083,971,844
966,893,-73,-929,519,409,-366,287,1332,1415,1293,1166
1215,1205,-9,-1210,612,597,-644,29,1429,1654,1590,1473
1542,1537,-4,-1539,773,766,-956,-258,1512,1952,1956,1830
1942,1878,-63,-1910,1002,907,-1307,-536,1615,2298,2361,2230
2078,2054,-24,-2066,1051,1015,-1493,-771,1615,2469,2571,2469
1937,2093,156,-2015,890,1124,-1561,-1063,1517,2498,2659,2566
1708,1927,219,-1817,744,1073,-1473,-1146,1415,2449,2644,2557
1537,1625,87,-1581,724,856,-1351,-1073,1185,2264,2479,2415
1327,1346,19,-1337,653,683,-1215,-995,956,1947,2176,2147
976,1039,63,-1007,456,551,-990,-912,702,1512,1756,1766
561,692,131,-627,214,412,-732,-819,209,854,1156,1254
234,395,161,-314,36,278,-483,-634,-156,346,619,751
107,190,82,-148,12,136,-263,-361,-146,136,302,409
4,53,48,-29,-21,51,-92,-195,-87,34,107,170
-48,-34,14,41,-31,-9,-4,-73,-48,-34,-19,19
-68,-82,-14,75,-26,-48,24,-9,-48,-68,-68,-34
-78,-122,-43,100,-17,-82,48,14,-43,-78,-92,-78
-82,-122,-39,102,-21,-80,68,24,-39,-78,-92,-82
-87,-122,-34,104,-26,-78,73,39,-34,-78,-92,-82
-87,-131,-43,109,-21,-87,73,63,-34,-82,-107,-92
-87,-146,-58,117,-14,-102,87,78,-29,-87,-112,-97
-92,-146,-53,119,-19,-100,92,78,-29,-87,-112,-102
-92,-146,-53,119,-19,-100,92,78,-29,-87,-112,-102
-92,-151,-58,122,-17,-104,97,92,-29,-92,-117,-107
-97,-156,-58,126,-19,-107,97,92,-29,-92,-122,-112
-97,-161,-63,129,-17,-112,102,97,-29,-97,-126,-117
-97,-161,-63,129,-17,-112,107,97,-29,-97,-126,-117
-97,-161,-63,129,-17,-112,112,97,-34,-102,-126,-122
-102,-161,-58,131,-21,-109,117,97,-34,-102,-131,-131
-107,-165,-58,136,-24,-112,122,97,-34,-107,-136,-131
-107,-170,-63,139,-21,-117,122,97,-34,-107,-136,-136
-112,-165,-53,139,-29,-109,117,97,-34,-112,-141,-141
-117,-165,-48,141,-34,-107,117,97,-39,-112,-146,-146
-122,-165,-43,143,-39,-104,117,102,-43,-122,-151,-141
-126,-170,-43,148,-41,-107,117,102,-43,-122,-151,-141
-131,-170,-39,151,-46,-104,117,102,-43,-122,-156,-146
-131,-170,-39,151,-46,-104,117,102,-48,-122,-156,-146
-136,-170,-34,153,-51,-102,122,102,-48,-126,-156,-151
-141,-170,-29,156,-56,-100,122,102,-48,-131,-156,-161
-146,-170,-24,158,-61,-97,122,102,-48,-131,-161,-161
-146,-170,-24,158,-61,-97,126,102,-53,-136,-175,-161
-151,-170,-19,161,-65,-95,131,102,-53,-136,-175,-175
-161,-170,-9,165,-75,-90,136,102,-53,-141,-175,-175
-161,-170,-9,165,-75,-90,141,107,-53,-141,-190,-180
-170,-170,0,170,-85,-85,146,112,-58,-141,-190,-190
-180,-170,9,175,-95,-80,146,117,-58,-151,-195,-195
-190,-170,19,180,-104,-75,141,117,-68,-156,-209,-204
-195,-165,29,180,-112,-68,141,117,-68,-165,-214,-214
-204,-165,39,185,-122,-63,146,122,-68,-175,-224,-224
-214,-165,48,190,-131,-58,161,122,-82,-185,-229,-234
-229,-165,63,197,-146,-51,165,122,-92,-195,-239,-248
-248,-161,87,204,-168,-36,170,122,-102,-209,-258,-263
-263,-156,107,209,-185,-24,175,117,-122,-229,-278,-283
-283,-161,122,222,-202,-19,175,117,-141,-258,-297,-297
-302,-165,136,234,-219,-14,180,107,-170,-283,-326,-317
-322,-170,151,246,-236,-9,185,102,-195,-317,-356,-346
-346,-175,170,261,-258,-2,190,97,-224,-351,-385,-375
-380,-185,195,283,-287,4,195,78,-258,-390,-419,-400
-409,-200,209,305,-309,4,200,68,-302,-429,-448,-439
-439,-209,229,324,-334,9,209,48,-346,-473,-497,-483
-473,-229,244,351,-358,7,219,24,-400,-527,-536,-522
-517,-239,278,378,-397,19,224,0,-448,-580,-590,-566
-546,-258,287,402,-417,14,224,-19,-512,-629,-644,-605
-585,-283,302,434,-444,9,229,-34,-561,-683,-683,-653
-619,-307,312,463,-466,2,234,-68,-614,-741,-732,-702
-649,-326,322,488,-485,-2,239,-92,-673,-800,-795,-741
-678,-346,331,512,-505,-7,244,-117,-732,-858,-844,-780
-702,-366,336,534,-519,-14,248,-131,-785,-912,-878,-829
-727,-385,341,556,-534,-21,248,-156,-839,-951,-917,-863
-746,-405,341,575,-544,-31,248,-170,-878,-995,-951,-893
-756,-424,331,590,-544,-46,253,-180,-907,-1024,-971,-912
-761,-439,322,600,-541,-58,253,-200,-932,-1044,-990,-927
-756,-453,302,605,-529,-75,248,-209,-941,-1054,-1000,-936
-746,-453,292,600,-519,-80,248,-209,-946,-1049,-1005,-936
-717,-448,268,583,-492,-90,234,-204,-922,-1024,-976,-912
-688,-439,248,563,-468,-95,234,-190,-883,-985,-936,-878
-644,-424,219,534,-431,-102,229,-170,-839,-936,-893,-844
-590,-400,190,495,-390,-104,219,-156,-795,-893,-849,-805
-556,-380,175,468,-366,-102,200,-131,-741,-839,-790,-751
-497,-351,146,424,-322,-102,190,-112,-668,-761,-722,-688
-439,-326,112,383,-275,-107,180,-82,-605,-692,-658,-629
-385,-302,82,344,-234,-109,156,-68,-531,-624,-585,-566
-336,-268,68,302,-202,-100,136,-53,-468,-551,-527,-502
-287,-234,53,261,-170,-90,126,-34,-385,-468,-448,-439
-239,-209,29,224,-134,-90,112,-9,-317,-400,-380,-380
-185,-180,4,183,-95,-87,92,0,-263,-336,-322,-317
-141,-156,-14,148,-63,-85,78,4,-209,-278,-263,-258
-107,-131,-24,119,-41,-78,63,19,-151,-204,-200,-204
-68,-107,-39,87,-14,-73,48,29,-112,-151,-151,-156
-39,-82,-43,61,2,-63,43,34,-68,-112,-107,-117
-19,-63,-43,41,12,-53,29,34,-34,-78,-73,-82
4,-58,-63,26,34,-61,24,43,-14,-39,-39,-48
24,-48,-73,12,48,-61,24,53,14,-9,-4,-24
29,-39,-68,4,48,-53,19,53,39,9,9,0
43,-34,-78,-4,61,-56,14,58,53,24,24,9
53,-24,-78,-14,65,-51,4,53,63,48,39,24
58,-19,-78,-19,68,-48,4,48,78,68,53,34
63,-4,-68,-29,65,-36,0,48,87,73,58,43
63,0,-63,-31,63,-31,0,48,87,78,63,48
68,0,-68,-34,68,-34,-9,53,87,82,73,63
68,4,-63,-36,65,-29,-14,53,92,92,73,68
68,4,-63,-36,65,-29,-14,53,97,92,78,68
68,9,-58,-39,63,-24,-14,53,102,92,78,73
68,9,-58,-39,63,-24,-14,48,107,97,78,73
68,0,-68,-34,68,-34,-9,48,112,97,82,73
63,0,-63,-31,63,-31,-9,48,112,97,87,73
63,0,-63,-31,63,-31,-9,48,107,97,87,73
63,0,-63,-31,63,-31,-14,48,102,97,82,73
58,-4,-63,-26,61,-34,-19,48,102,92,82,73
58,-4,-63,-26,61,-34,-14,43,102,92,82,68
53,-4,-58,-24,56,-31,-14,43,102,87,78,68
48,-4,-53,-21,51,-29,-4,39,97,82,73,68
43,-9,-53,-17,48,-31,0,39,87,78,68,63
43,-14,-58,-14,51,-36,0,39,87,78,68,58
34,-14,-48,-9,41,-31,0,39,82,73,58,58
29,-19,-48,-4,39,-34,0,39,78,73,58,43
29,-19,-48,-4,39,-34,0,34,78,63,58,43
24,-24,-48,0,36,-36,4,34,73,63,48,39
24,-29,-53,2,39,-41,4,34,68,58,39,34
19,-34,-53,7,36,-43,4,34,68,53,34,34
14,-34,-48,9,31,-41,9,34,58,48,34,24
14,-39,-53,12,34,-46,9,29,53,48,29,19
9,-39,-48,14,29,-43,9,29,53,43,24,19
9,-39,-48,14,29,-43,9,29,53,39,24,14
4,-43,-48,19,26,-46,9,29,48,39,24,14
0,-43,-43,21,21,-43,9,29,48,34,19,14
0,-48,-48,24,24,-48,14,29,48,24,14,14
0,-53,-53,26,26,-53,14,29,39,19,9,9
0,-53,-53,26,26,-53,19,29,34,19,9,9
0,-53,-53,26,26,-53,19,29,29,19,4,4
0,-53,-53,26,26,-53,19,29,29,14,0,4
0,-53,-53,26,26,-53,19,29,24,14,-4,4
0,-53,-53,26,26,-53,14,29,24,14,-4,4
0,-53,-53,26,26,-53,14,29,29,14,-4,0
0,-53,-53,26,26,-53,14,29,29,14,-4,0
0,-53,-53,26,26,-53,9,29,29,14,-4,0
0,-53,-53,26,26,-53,9,29,29,14,-4,0
0,-58,-58,29,29,-58,9,29,34,14,-4,4
4,-58,-63,26,34,-61,9,29,34,14,-4,4
4,-58,-63,26,34,-61,9,29,34,14,-4,4
9,-53,-63,21,36,-58,9,29,34,14,-4,4
9,-53,-63,21,36,-58,9,29,34,19,4,4
9,-53,-63,21,36,-58,9,29,34,19,9,9
14,-48,-63,17,39,-56,9,29,34,19,14,9
14,-43,-58,14,36,-51,9,29,39,24,14,14
14,-43,-58,14,36,-51,9,29,39,24,14,14
19,-43,-63,12,41,-53,4,29,34,24,19,14
19,-48,-68,14,43,-58,4,29,34,24,19,14
19,-53,-73,17,46,-63,4,29,39,29,19,19
24,-53,-78,14,51,-65,4,34,43,34,19,19
24,-53,-78,14,51,-65,4,34,48,34,19,24
24,-53,-78,14,51,-65,4,34,48,34,19,24
24,-53,-78,14,51,-65,4,34,48,34,19,24
24,-48,-73,12,48,-61,4,34,48,34,19,24
24,-39,-63,7,43,-51,4,34,53,39,19,24
24,-39,-63,7,43,-51,4,34,48,39,19,29
29,-39,-68,4,48,-53,0,34,43,39,19,29
29,-43,-73,7,51,-58,0,29,43,39,24,34
29,-53,-82,12,56,-68,0,29,43,39,24,34
29,-53,-82,12,56,-68,0,29,48,43,29,34
29,-53,-82,12,56,-68,0,34,48,43,34,34
24,-53,-78,14,51,-65,0,34,48,43,34,34
24,-53,-78,14,51,-65,0,34,48,43,34,39
24,-53,-78,14,51,-65,0,34,53,48,39,39
24,-48,-73,12,48,-61,0,34,53,48,39,39
29,-43,-73,7,51,-58,0,34,53,53,43,39
34,-43,-78,4,56,-61,-4,39,58,58,48,39
39,-29,-68,-4,53,-48,-4,39,63,58,48,39
48,-19,-68,-14,58,-43,-9,39,68,58,48,39
48,-9,-58,-19,53,-34,-9,39,78,63,53,43
48,0,-48,-24,48,-24,-9,39,87,68,58,48
53,9,-43,-31,48,-17,-9,39,87,68,58,48
58,14,-43,-36,51,-14,-9,34,87,73,63,48
63,19,-43,-41,53,-12,-9,34,92,78,68,53
68,19,-48,-43,58,-14,-4,39,92,78,68,53
73,14,-58,-43,65,-21,-4,48,97,82,68,63
78,9,-68,-43,73,-29,0,58,102,87,73,73
78,9,-68,-43,73,-29,0,58,102,92,73,73
78,9,-68,-43,73,-29,-9,53,102,92,73,73
82,19,-63,-51,73,-21,-24,39,102,92,73,73
82,34,-48,-58,65,-7,-43,24,102,92,82,73
87,39,-48,-63,68,-4,-63,9,87,92,82,78
102,43,-58,-73,80,-7,-78,-4,82,92,82,78
112,43,-68,-78,90,-12,-82,-9,73,82,82,78
112,53,-58,-82,85,-2,-82,-9,73,82,82,78
126,53,-73,-90,100,-9,-73,4,78,87,82,78
126,39,-87,-82,107,-24,-63,14,82,87,82,78
131,24,-107,-78,119,-41,-53,24,82,87,82,78
131,4,-126,-68,129,-61,-39,29,82,78,68,73
131,0,-131,-65,131,-65,-34,29,78,78,68,68
131,0,-131,-65,131,-65,-34,29,73,78,68,68
122,0,-122,-61,122,-61,-34,19,73,73,63,68
112,0,-112,-56,112,-56,-34,19,73,73,63,68
102,-14,-117,-43,109,-65,-24,29,73,73,63,63
82,-29,-112,-26,97,-70,-14,34,73,63,53,48
68,-39,-107,-14,87,-73,-4,39,73,58,53,48
53,-43,-97,-4,75,-70,0,39,58,48,48,43
43,-58,-102,7,73,-80,-4,39,53,39,34,34
34,-68,-102,17,68,-85,-4,39,53,39,29,34
34,-68,-102,17,68,-85,0,39,53,39,29,34
34,-68,-102,17,68,-85,0,39,48,39,29,34
29,-68,-97,19,63,-82,0,39,48,39,29,29
24,-63,-87,19,56,-75,0,43,48,39,29,24
24,-63,-87,19,56,-75,4,43,48,43,29,24
24,-63,-87,19,56,-75,4,43,53,43,29,24
29,-63,-92,17,61,-78,4,43,53,43,29,24
34,-63,-97,14,65,-80,4,43,53,43,29,24
34,-63,-97,14,65,-80,4,39,53,43,29,24
29,-73,-102,21,65,-87,14,39,58,39,24,14
14,-102,-117,43,65,-109,43,68,53,29,14,4
9,-117,-126,53,68,-122,87,122,58,19,14,-4
0,-126,-126,63,63,-126,117,141,97,43,9,-9
-4,-97,-92,51,43,-95,107,141,170,112,58,24
68,14,-53,-41,61,-19,48,131,326,278,209,156
209,180,-29,-195,119,75,-19,185,517,492,419,341
478,361,-117,-419,297,122,-117,273,741,741,653,566
775,634,-141,-705,458,246,-268,322,1034,1063,971,863
1044,941,-102,-993,573,419,-429,239,1273,1366,1293,1176
1307,1239,-68,-1273,688,585,-702,-29,1351,1595,1571,1468
1683,1571,-112,-1627,897,729,-1044,-336,1415,1888,1922,1830
2020,1859,-161,-1939,1090,849,-1356,-600,1483,2166,2264,2176
2098,2000,-97,-2049,1098,951,-1522,-849,1439,2264,2420,2366
1981,2005,24,-1993,978,1015,-1586,-1112,1302,2254,2474,2430
1742,1781,39,-1761,851,910,-1459,-1137,1229,2210,2444,2410
1542,1488,-53,-1515,797,717,-1327,-1063,1034,2020,2264,2254
1327,1215,-112,-1271,719,551,-1176,-961,829,1708,1956,1971
1005,927,-78,-966,541,424,-951,-839,634,1337,1571,1615
556,595,39,-575,258,317,-688,-756,112,668,961,1088
229,336,107,-283,61,222,-453,-595,-200,234,507,644
102,146,43,-124,29,95,-234,-312,-107,107,253,346
-14,9,24,2,-19,17,-73,-165,-73,9,68,131
-53,-58,-4,56,-24,-31,-9,-63,-48,-48,-39,0
-78,-107,-29,92,-24,-68,24,4,-48,-78,-82,-53
-87,-141,-53,114,-17,-97,48,24,-43,-78,-92,-78
-87,-141,-53,114,-17,-97,63,29,-39,-78,-92,-82
-87,-141,-53,114,-17,-97,68,39,-34,-78,-92,-82
-87,-151,-63,119,-12,-107,73,63,-34,-82,-107,-97
-87,-165,-78,126,-4,-122,92,78,-29,-92,-112,-102
-92,-165,-73,129,-9,-119,102,78,-29,-97,-112,-102
-97,-165,-68,131,-14,-117,102,78,-29,-97,-112,-102
-102,-170,-68,136,-17,-119,107,92,-29,-102,-117,-107
-107,-170,-63,139,-21,-117,107,92,-29,-97,-122,-112
-107,-170,-63,139,-21,-117,112,97,-29,-97,-126,-117
-107,-170,-63,139,-21,-117,117,102,-29,-97,-126,-122
-107,-170,-63,139,-21,-117,117,107,-34,-102,-126,-126
-112,-175,-63,143,-24,-119,117,107,-34,-102,-131,-131
-117,-180,-63,148,-26,-122,122,107,-34,-107,-136,-131
-117,-180,-63,148,-26,-122,122,107,-34,-107,-136,-136
-122,-175,-53,148,-34,-114,122,107,-34,-112,-141,-141
-126,-175,-48,151,-39,-112,126,107,-39,-112,-146,-146
-131,-175,-43,153,-43,-109,126,112,-43,-122,-151,-146
-136,-180,-43,158,-46,-112,126,112,-43,-122,-151,-151
-141,-180,-39,161,-51,-109,126,112,-43,-122,-156,-156
-141,-180,-39,161,-51,-109,126,112,-48,-122,-156,-151
-146,-180,-34,163,-56,-107,131,112,-48,-126,-156,-151
-151,-180,-29,165,-61,-104,136,112,-48,-131,-151,-161
-161,-180,-19,170,-70,-100,141,112,-48,-131,-151,-161
-165,-175,-9,170,-78,-92,146,112,-53,-136,-165,-161
-170,-170,0,170,-85,-85,146,112,-53,-136,-165,-175
-180,-170,9,175,-95,-80,146,112,-53,-136,-165,-175
-180,-170,9,175,-95,-80,151,112,-53,-136,-180,-180
-190,-170,19,180,-104,-75,151,112,-53,-141,-180,-190
-200,-170,29,185,-114,-70,151,117,-48,-151,-185,-195
-214,-170,43,192,-129,-63,151,117,-58,-156,-200,-204
-224,-165,58,195,-141,-53,151,117,-63,-165,-204,-214
-234,-165,68,200,-151,-48,156,122,-68,-175,-209,-219
-244,-165,78,204,-161,-43,165,122,-82,-185,-214,-224
-258,-165,92,212,-175,-36,170,122,-92,-195,-229,-239
-278,-165,112,222,-195,-26,180,122,-102,-209,-248,-253
-297,-165,131,231,-214,-17,185,117,-117,-224,-263,-273
-322,-170,151,246,-236,-9,190,117,-131,-248,-278,-292
-341,-175,165,258,-253,-4,195,107,-151,-263,-307,-317
-366,-180,185,273,-275,2,195,97,-170,-287,-336,-346
-390,-180,209,285,-300,14,200,87,-204,-322,-366,-375
-419,-185,234,302,-326,24,204,68,-239,-366,-405,-400
-448,-200,248,324,-348,24,209,58,-278,-400,-429,-429
-478,-209,268,344,-373,29,219,43,-317,-434,-468,-463
-512,-229,283,370,-397,26,229,19,-361,-478,-497,-497
-556,-239,317,397,-436,39,234,-9,-400,-527,-541,-536
-590,-258,331,424,-461,36,234,-29,-453,-580,-595,-575
-634,-278,356,456,-495,39,239,-48,-497,-634,-634,-624
-673,-297,375,485,-524,39,244,-87,-556,-688,-678,-673
-707,-317,390,512,-549,36,248,-112,-614,-741,-736,-712
-741,-336,405,539,-573,34,253,-141,-673,-795,-785,-751
-771,-356,414,563,-592,29,258,-161,-722,-839,-819,-795
-800,-370,429,585,-614,29,258,-190,-771,-873,-858,-824
-814,-385,429,600,-622,21,258,-209,-800,-912,-888,-854
-819,-405,414,612,-617,4,263,-219,-824,-941,-912,-883
-824,-414,409,619,-617,-2,263,-229,-844,-956,-932,-897
-814,-429,385,622,-600,-21,258,-229,-849,-956,-932,-897
-800,-434,366,617,-583,-34,258,-229,-849,-946,-927,-893
-771,-429,341,600,-556,-43,244,-229,-824,-927,-897,-868
-746,-419,326,583,-536,-46,239,-219,-795,-897,-868,-839
-702,-405,297,553,-500,-53,229,-200,-756,-863,-829,-805
-644,-380,263,512,-453,-58,219,-185,-717,-824,-785,-761
-605,-366,239,485,-422,-63,200,-161,-678,-771,-732,-712
-546,-341,204,444,-375,-68,190,-141,-619,-702,-673,-658
-483,-317,165,400,-324,-75,180,-107,-561,-639,-610,-600
-424,-292,131,358,-278,-80,156,-82,-492,-575,-536,-536
-366,-258,107,312,-236,-75,136,-63,-434,-512,-483,-478
-307,-224,82,265,-195,-70,126,-43,-361,-439,-414,-419
-253,-200,53,226,-153,-73,117,-9,-297,-370,-351,-361
-200,-170,29,185,-114,-70,102,9,-244,-307,-292,-302
-156,-146,9,151,-82,-68,87,14,-195,-253,-244,-248
-122,-126,-4,124,-58,-65,78,29,-146,-195,-195,-200
-87,-107,-19,97,-34,-63,63,39,-112,-151,-151,-156
-58,-87,-29,73,-14,-58,53,43,-73,-112,-112,-122
-34,-73,-39,53,2,-56,39,43,-43,-78,-73,-92
-9,-68,-58,39,24,-63,34,48,-24,-43,-34,-58
9,-58,-68,24,39,-63,34,53,4,-19,-14,-34
19,-43,-63,12,41,-53,29,53,24,0,-9,-9
34,-34,-68,0,51,-51,19,58,34,14,4,0
43,-24,-68,-9,56,-46,4,58,43,34,19,14
53,-19,-73,-17,63,-46,4,58,58,48,34,24
63,-9,-73,-26,68,-41,0,58,68,53,39,34
63,-9,-73,-26,68,-41,0,58,68,58,43,39
68,-9,-78,-29,73,-43,-4,58,68,63,53,48
68,-4,-73,-31,70,-39,-4,58,73,73,58,48
68,-4,-73,-31,70,-39,-4,63,78,73,68,48
68,0,-68,-34,68,-34,0,63,87,73,68,53
68,0,-68,-34,68,-34,0,58,92,78,68,53
68,-9,-78,-29,73,-43,4,58,92,78,68,53
63,-9,-73,-26,68,-41,9,58,92,78,68,53
58,-9,-68,-24,63,-39,9,58,87,78,68,53
53,-9,-63,-21,58,-36,9,58,82,78,63,53
48,-9,-58,-19,53,-34,0,58,82,73,58,53
48,-4,-53,-21,51,-29,-4,53,82,73,53,48
48,-4,-53,-21,51,-29,-4,53,82,68,48,48
48,-4,-53,-21,51,-29,0,48,78,63,43,48
43,-9,-53,-17,48,-31,4,48,68,58,39,43
43,-14,-58,-14,51,-36,9,48,68,58,39,39
34,-14,-48,-9,41,-31,9,48,63,58,34,43
29,-19,-48,-4,39,-34,9,48,58,58,39,34
29,-19,-48,-4,39,-34,9,43,58,43,39,34
24,-24,-48,0,36,-36,14,43,53,43,29,29
24,-29,-53,2,39,-41,14,43,48,39,19,24
19,-34,-53,7,36,-43,14,43,48,34,14,24
14,-34,-48,9,31,-41,19,43,39,29,14,14
14,-39,-53,12,34,-46,19,39,34,29,9,9
9,-39,-48,14,29,-43,19,39,34,24,4,4
9,-39,-48,14,29,-43,19,39,34,19,4,-4
4,-43,-48,19,26,-46,19,39,29,19,4,-4
0,-43,-43,21,21,-43,19,39,29,19,0,-4
-4,-48,-43,26,19,-46,24,34,29,14,-4,-4
-9,-53,-43,31,17,-48,24,29,24,9,-9,-9
-9,-53,-43,31,17,-48,29,29,24,4,-9,-9
-9,-53,-43,31,17,-48,29,29,19,0,-9,-14
-9,-53,-43,31,17,-48,29,34,19,-4,-9,-14
-9,-53,-43,31,17,-48,29,39,14,-4,-14,-14
-9,-53,-43,31,17,-48,24,39,14,-4,-9,-9
-9,-53,-43,31,17,-48,24,39,14,-4,-4,-9
-9,-53,-43,31,17,-48,29,39,9,-4,-4,-9
-9,-53,-43,31,17,-48,29,39,9,-4,-4,-9
-9,-58,-48,34,19,-53,29,39,9,-4,-9,-14
-9,-68,-58,39,24,-63,29,39,14,-4,-14,-14
-4,-68,-63,36,29,-65,29,39,19,-4,-14,-14
-4,-68,-63,36,29,-65,29,39,24,-4,-14,-14
4,-63,-68,29,36,-65,29,39,24,-4,-14,-14
9,-63,-73,26,41,-68,29,39,24,0,-9,-14
9,-58,-68,24,39,-63,29,39,24,0,-9,-9
14,-53,-68,19,41,-61,29,39,24,0,-4,-9
14,-53,-68,19,41,-61,24,39,24,9,-4,-4
14,-53,-68,19,41,-61,19,39,24,14,-4,-4
19,-53,-73,17,46,-63,14,39,24,14,0,-4
19,-53,-73,17,46,-63,14,39,24,14,0,-4
19,-53,-73,17,46,-63,14,39,34,14,0,0
24,-53,-78,14,51,-65,14,43,39,14,0,0
24,-53,-78,14,51,-65,14,43,39,14,0,4
24,-53,-78,14,51,-65,14,43,39,14,4,4
24,-48,-73,12,48,-61,14,43,34,14,9,4
24,-43,-68,9,46,-56,14,43,29,14,9,4
24,-39,-63,7,43,-51,14,43,34,19,9,4
24,-39,-63,7,43,-51,14,43,34,19,9,9
29,-43,-73,7,51,-58,9,43,34,19,9,9
29,-43,-73,7,51,-58,9,39,34,19,14,14
29,-43,-73,7,51,-58,9,39,34,19,14,14
29,-43,-73,7,51,-58,9,39,39,24,14,14
29,-39,-68,4,48,-53,9,43,39,24,14,14
29,-34,-63,2,46,-48,9,43,39,24,14,14
34,-34,-68,0,51,-51,14,43,39,24,14,19
34,-34,-68,0,51,-51,19,43,43,29,19,19
39,-34,-73,-2,56,-53,14,43,43,29,24,19
43,-34,-78,-4,61,-56,14,48,48,34,34,24
43,-19,-63,-12,53,-41,9,48,53,43,39,29
48,-9,-58,-19,53,-34,9,48,58,58,48,39
48,-9,-58,-19,53,-34,9,48,68,58,48,39
48,-9,-58,-19,53,-34,9,48,78,58,48,39
48,-4,-53,-21,51,-29,9,53,78,58,48,39
48,0,-48,-24,48,-24,9,53,78,63,53,39
53,4,-48,-29,51,-21,9,53,82,68,58,43
58,9,-48,-34,53,-19,14,58,82,68,58,43
68,14,-53,-41,61,-19,14,68,87,73,58,48
78,19,-58,-48,68,-19,19,78,92,78,63,53
78,24,-53,-51,65,-14,19,78,92,82,63,53
78,29,-48,-53,63,-9,9,73,92,82,63,53
87,39,-48,-63,68,-4,-4,58,92,82,68,63
92,53,-39,-73,65,7,-24,43,92,82,82,73
97,58,-39,-78,68,9,-43,29,82,82,82,78
112,63,-48,-87,80,7,-58,14,82,82,82,78
122,63,-58,-92,90,2,-63,9,73,73,78,78
122,73,-48,-97,85,12,-63,9,73,73,73,78
136,73,-63,-104,100,4,-53,24,73,78,73,73
136,58,-78,-97,107,-9,-43,34,73,78,73,68
131,39,-92,-85,112,-26,-34,43,73,78,73,68
122,14,-107,-68,114,-46,-19,48,73,68,58,63
122,9,-112,-65,117,-51,-14,48,68,58,58,58
122,9,-112,-65,117,-51,-14,48,63,48,58,58
112,9,-102,-61,107,-46,-14,39,63,53,53,58
102,9,-92,-56,97,-41,-14,39,63,63,53,58
92,0,-92,-46,92,-46,-9,48,63,63,53,53
73,-9,-82,-31,78,-46,-4,53,63,53,43,39
63,-19,-82,-21,73,-51,4,53,63,53,43,39
53,-24,-78,-14,65,-51,9,48,48,48,39,34
48,-34,-82,-7,65,-58,9,48,48,39,29,24
43,-39,-82,-2,63,-61,14,48,53,39,29,24
43,-39,-82,-2,63,-61,19,48,53,34,29,24
43,-39,-82,-2,63,-61,19,48,48,29,29,24
43,-39,-82,-2,63,-61,19,48,48,29,29,24
43,-34,-78,-4,61,-56,19,53,48,29,29,24
43,-34,-78,-4,61,-56,24,58,48,34,29,24
43,-34,-78,-4,61,-56,24,63,53,34,29,24
43,-34,-78,-4,61,-56,24,63,53,34,29,24
43,-34,-78,-4,61,-56,24,63,53,34,29,24
43,-34,-78,-4,61,-56,29,68,53,39,29,24
39,-43,-82,2,61,-63,43,78,58,39,24,14
29,-73,-102,21,65,-87,73,117,73,48,24,14
29,-87,-117,29,73,-102,117,180,97,58,34,14
39,-78,-117,19,78,-97,131,204,175,117,68,43
53,-29,-82,-12,68,-56,107,209,287,219,156,112
170,107,-63,-139,117,21,34,200,458,409,331,273
356,297,-58,-326,207,119,-48,253,663,649,566,488
624,502,-122,-563,373,190,-151,336,893,917,824,732
922,800,-122,-861,522,339,-307,380,1190,1259,1166,1049
1190,1107,-82,-1149,636,512,-483,287,1429,1566,1498,1371
1454,1405,-48,-1429,751,678,-771,9,1507,1800,1786,1673
1771,1712,-58,-1742,915,827,-1083,-317,1581,2093,2132,2025
2049,1976,-73,-2013,1061,951,-1366,-600,1659,2371,2469,2361
2078,2049,-29,-2064,1054,1010,-1464,-775,1625,2469,2605,2522
1912,1986,73,-1949,919,1029,-1459,-966,1498,2459,2640,2557
1654,1751,97,-1703,778,924,-1327,-1005,1342,2332,2537,2469
1434,1449,14,-1442,710,732,-1190,-946,1063,2059,2283,2244
1156,1171,14,-1163,570,592,-1054,-897,756,1654,1903,1908
771,878,107,-824,331,492,-844,-829,458,1190,1444,1498
380,546,165,-463,107,356,-585,-722,9,561,844,971
112,287,175,-200,-31,231,-356,-536,-229,165,400,527
34,136,102,-85,-34,119,-170,-263,-126,58,185,263
-34,39,73,-2,-53,56,-43,-126,-82,-19,39,82
-63,-24,39,43,-51,7,14,-39,-58,-68,-53,-24
-78,-68,9,73,-43,-29,43,14,-58,-87,-82,-53
-87,-97,-9,92,-39,-53,68,29,-53,-87,-92,-78
-87,-92,-4,90,-41,-48,82,29,-48,-87,-92,-82
-87,-92,-4,90,-41,-48,82,39,-43,-87,-92,-82
-87,-102,-14,95,-36,-58,82,63,-43,-92,-107,-97
-87,-112,-24,100,-31,-68,92,82,-39,-97,-112,-107
-92,-107,-14,100,-39,-61,92,87,-39,-97,-112,-112
-87,-107,-19,97,-34,-63,92,87,-39,-97,-112,-112
-82,-112,-29,97,-26,-70,97,102,-39,-102,-117,-117
-87,-117,-29,102,-29,-73,102,97,-39,-102,-122,-122
-87,-122,-34,104,-26,-78,112,97,-39,-107,-126,-126
-87,-126,-39,107,-24,-82,117,97,-39,-107,-131,-131
-87,-131,-43,109,-21,-87,117,97,-43,-112,-136,-136
-92,-131,-39,112,-26,-85,117,102,-48,-112,-141,-141
-97,-131,-34,114,-31,-82,122,107,-53,-117,-146,-141
-97,-136,-39,117,-29,-87,122,107,-53,-122,-146,-146
-102,-136,-34,119,-34,-85,122,107,-53,-131,-151,-151
-107,-136,-29,122,-39,-82,126,102,-58,-131,-156,-156
-112,-136,-24,124,-43,-80,126,102,-63,-141,-161,-156
-117,-141,-24,129,-46,-82,126,102,-63,-141,-161,-161
-122,-141,-19,131,-51,-80,126,102,-63,-141,-165,-165
-122,-136,-14,129,-53,-75,126,102,-73,-141,-170,-165
-126,-131,-4,129,-61,-68,131,102,-78,-146,-175,-170
-131,-131,0,131,-65,-65,131,102,-78,-156,-175,-180
-141,-131,9,136,-75,-61,131,102,-78,-161,-180,-180
-146,-131,14,139,-80,-58,136,102,-87,-165,-195,-185
-151,-131,19,141,-85,-56,136,102,-92,-165,-195,-204
-161,-126,34,143,-97,-46,131,97,-92,-170,-195,-204
-161,-122,39,141,-100,-41,131,92,-92,-175,-209,-209
-170,-117,53,143,-112,-31,136,92,-102,-180,-209,-219
-180,-112,68,146,-124,-21,141,97,-107,-190,-214,-224
-195,-112,82,153,-139,-14,141,92,-117,-200,-229,-234
-204,-107,97,156,-151,-4,141,87,-122,-214,-234,-244
-214,-112,102,163,-158,-4,146,87,-126,-224,-244,-253
-224,-117,107,170,-165,-4,156,82,-141,-234,-253,-263
-239,-117,122,178,-180,2,156,82,-151,-244,-268,-283
-258,-117,141,187,-200,12,161,82,-161,-258,-287,-302
-273,-117,156,195,-214,19,165,78,-185,-283,-307,-322
-292,-122,170,207,-231,24,170,78,-209,-317,-326,-341
-312,-122,190,217,-251,34,175,63,-239,-341,-361,-366
-336,-122,214,229,-275,46,175,48,-268,-375,-395,-395
-366,-126,239,246,-302,56,180,39,-307,-409,-424,-429
-400,-136,263,268,-331,63,185,19,-346,-453,-463,-458
-429,-151,278,290,-353,63,185,4,-390,-502,-502,-497
-458,-161,297,309,-378,68,190,-14,-434,-551,-556,-541
-492,-185,307,339,-400,61,200,-34,-488,-605,-595,-580
-536,-200,336,368,-436,68,204,-58,-536,-663,-649,-624
-566,-219,346,392,-456,63,204,-78,-605,-717,-702,-663
-605,-239,366,422,-485,63,209,-97,-663,-771,-741,-712
-639,-253,385,446,-512,65,214,-136,-722,-829,-790,-761
-668,-268,400,468,-534,65,219,-161,-780,-888,-854,-800
-692,-287,405,490,-549,58,224,-185,-839,-946,-902,-839
-712,-307,405,509,-558,48,229,-200,-888,-995,-936,-883
-736,-326,409,531,-573,41,229,-219,-936,-1029,-976,-912
-746,-346,400,546,-573,26,229,-229,-966,-1068,-1005,-941
-746,-366,380,556,-563,7,234,-234,-985,-1093,-1015,-961
-746,-375,370,561,-558,-2,234,-239,-1000,-1102,-1019,-966
-732,-375,356,553,-544,-9,229,-234,-1000,-1102,-1019,-961
-712,-366,346,539,-529,-9,229,-229,-995,-1093,-1015,-951
-678,-361,317,519,-497,-21,214,-224,-951,-1054,-976,-917
-649,-351,297,500,-473,-26,209,-209,-902,-1005,-936,-878
-605,-336,268,470,-436,-34,200,-185,-854,-956,-893,-844
-546,-312,234,429,-390,-39,190,-165,-805,-902,-844,-800
-507,-292,214,400,-361,-39,175,-141,-751,-839,-775,-741
-448,-263,185,356,-317,-39,170,-122,-678,-761,-702,-678
-390,-239,151,314,-270,-43,161,-87,-610,-688,-639,-614
-336,-214,122,275,-229,-46,136,-63,-531,-614,-566,-546
-287,-185,102,236,-195,-41,117,-43,-468,-541,-502,-483
-239,-156,82,197,-161,-36,107,-24,-390,-458,-424,-419
-190,-131,58,161,-124,-36,97,0,-322,-390,-361,-361
-141,-102,39,122,-90,-31,82,9,-263,-326,-302,-302
-107,-78,29,92,-68,-24,68,9,-209,-268,-244,-248
-82,-58,24,70,-53,-17,58,19,-156,-204,-185,-200
-48,-39,9,43,-29,-14,43,29,-122,-161,-141,-156
-19,-19,0,19,-9,-9,34,34,-82,-122,-102,-122
-4,-4,0,4,-2,-2,14,34,-53,-82,-68,-92
9,0,-9,-4,9,-4,4,39,-34,-43,-34,-58
24,9,-14,-17,19,-2,4,43,-4,-19,-4,-34
29,24,-4,-26,17,9,0,43,14,0,9,-9
43,34,-9,-39,26,12,0,48,29,14,24,0
53,43,-9,-48,31,17,-4,48,43,34,39,14
58,48,-9,-53,34,19,-4,48,58,48,48,24
63,58,-4,-61,34,26,-9,48,68,53,48,34
63,58,-4,-61,34,26,-9,48,63,58,53,39
68,58,-9,-63,39,24,-14,48,58,63,63,48
68,63,-4,-65,36,29,-14,43,63,73,63,48
68,63,-4,-65,36,29,-14,43,68,73,68,48
68,68,0,-68,34,34,-14,43,73,68,68,48
68,68,0,-68,34,34,-19,39,73,68,68,43
68,58,-9,-63,39,24,-19,39,73,68,68,43
63,58,-4,-61,34,26,-19,39,73,68,68,43
63,58,-4,-61,34,26,-19,39,68,68,68,43
63,58,-4,-61,34,26,-19,39,63,68,63,43
53,53,0,-53,26,26,-19,39,63,63,58,43
48,53,4,-51,21,29,-14,34,63,63,53,39
43,53,9,-48,17,31,-14,34,63,58,48,39
39,53,14,-46,12,34,-9,29,58,53,43,39
34,48,14,-41,9,31,-9,29,48,48,39,34
34,43,9,-39,12,26,-9,29,48,48,39,29
29,43,14,-36,7,29,-9,29,43,43,29,34
29,39,9,-34,9,24,-9,29,39,39,29,24
29,39,9,-34,9,24,-9,24,39,24,29,24
24,34,9,-29,7,21,-4,24,34,24,19,19
24,24,0,-24,12,12,-4,24,29,19,14,14
19,14,-4,-17,12,4,-4,24,29,14,14,14
14,14,0,-14,7,7,0,24,19,9,14,4
14,9,-4,-12,9,2,0,19,14,9,9,0
9,9,0,-9,4,4,0,19,9,4,0,-4
9,9,0,-9,4,4,0,19,4,0,-4,-14
4,4,0,-4,2,2,0,19,0,0,-4,-14
0,4,4,-2,-2,4,0,19,0,0,-9,-14
4,0,-4,-2,4,-2,4,19,0,-4,-14,-14
9,-4,-14,-2,12,-9,4,19,-4,-9,-19,-19
9,-4,-14,-2,12,-9,9,14,0,-9,-19,-19
9,-4,-14,-2,12,-9,9,9,0,-9,-19,-24
4,-9,-14,2,9,-12,9,9,0,-14,-19,-24
0,-14,-14,7,7,-14,9,9,-4,-14,-24,-24
0,-14,-14,7,7,-14,4,14,-4,-19,-24,-24
0,-14,-14,7,7,-14,4,19,-4,-24,-24,-29
0,-14,-14,7,7,-14,4,19,-9,-24,-19,-24
0,-14,-14,7,7,-14,0,19,-9,-24,-14,-19
0,-9,-9,4,4,-9,0,19,-9,-24,-14,-19
0,-9,-9,4,4,-9,0,19,-4,-24,-14,-14
4,-9,-14,2,9,-12,0,19,-4,-19,-19,-14
4,-9,-14,2,9,-12,0,19,-4,-14,-24,-14
9,-9,-19,0,14,-14,0,19,-4,-14,-24,-14
9,-14,-24,2,17,-19,0,19,-4,-9,-19,-14
9,-14,-24,2,17,-19,0,19,-4,-9,-19,-9
14,-14,-29,0,21,-21,0,19,-4,-9,-14,-9
14,-14,-29,0,21,-21,0,19,0,-4,-14,-4
14,-14,-29,0,21,-21,0,19,4,-4,-14,-4
19,-14,-34,-2,26,-24,-4,19,4,-4,-9,-4
19,-14,-34,-2,26,-24,-4,19,4,-4,-9,-4
19,-14,-34,-2,26,-24,-4,19,14,0,-4,0
24,-14,-39,-4,31,-26,-4,24,19,4,0,0
24,-14,-39,-4,31,-26,-4,24,19,4,0,4
24,-14,-39,-4,31,-26,-4,24,19,4,4,4
24,-14,-39,-4,31,-26,-4,24,14,4,9,4
24,-14,-39,-4,31,-26,-4,24,9,4,9,4
24,-9,-34,-7,29,-21,-4,24,14,9,9,4
24,-9,-34,-7,29,-21,-4,24,14,9,9,9
29,-14,-43,-7,36,-29,-9,24,19,9,9,9
29,-14,-43,-7,36,-29,-9,19,24,9,14,14
29,-14,-43,-7,36,-29,-9,19,24,9,14,14
29,-14,-43,-7,36,-29,-9,19,29,14,14,14
29,-14,-43,-7,36,-29,-9,24,29,14,14,14
29,-14,-43,-7,36,-29,-9,24,29,14,14,14
34,-14,-48,-9,41,-31,-9,24,29,14,9,19
34,-14,-48,-9,41,-31,-9,24,34,19,9,19
34,-4,-39,-14,36,-21,-9,24,39,24,14,24
39,0,-39,-19,39,-19,-9,29,48,29,19,29
39,9,-29,-24,34,-9,-9,29,48,34,24,29
39,19,-19,-29,29,0,-9,29,48,39,29,29
39,24,-14,-31,26,4,-14,29,53,39,29,29
43,29,-14,-36,29,7,-14,24,53,39,29,29
48,39,-9,-43,29,14,-19,24,58,43,29,34
53,39,-14,-46,34,12,-19,24,63,48,39,34
58,39,-19,-48,39,9,-14,29,63,48,43,34
68,39,-29,-53,48,4,-14,39,68,53,48,39
73,39,-34,-56,53,2,-9,48,73,58,53,48
68,39,-29,-53,48,4,-9,48,73,63,53,53
68,39,-29,-53,48,4,-19,43,78,63,53,53
73,48,-24,-61,48,12,-34,29,82,63,53,58
73,63,-9,-68,41,26,-53,14,82,63,63,63
78,68,-9,-73,43,29,-73,0,73,63,63,68
92,73,-19,-82,56,26,-87,-14,68,63,58,68
102,73,-29,-87,65,21,-92,-19,53,53,53,68
102,82,-19,-92,61,31,-92,-19,53,53,53,68
117,82,-34,-100,75,24,-82,-4,53,58,53,68
122,73,-48,-97,85,12,-73,4,53,58,58,68
126,63,-63,-95,95,0,-63,14,53,58,63,68
122,43,-78,-82,100,-17,-48,19,53,48,48,58
122,39,-82,-80,102,-21,-43,19,48,48,48,48
122,39,-82,-80,102,-21,-43,19,43,48,48,48
112,39,-73,-75,92,-17,-43,9,43,43,43,48
102,39,-63,-70,82,-12,-43,9,43,43,43,48
92,24,-68,-58,80,-21,-34,19,43,43,43,43
73,9,-63,-41,68,-26,-24,24,43,34,34,29
63,0,-63,-31,63,-31,-14,29,43,34,34,29
48,-9,-58,-19,53,-34,-9,29,29,29,29,24
34,-24,-58,-4,46,-41,-9,29,29,19,19,14
24,-29,-53,2,39,-41,-4,29,34,19,14,14
24,-29,-53,2,39,-41,0,29,34,19,9,14
24,-29,-53,2,39,-41,0,29,29,19,9,14
24,-34,-58,4,41,-46,0,29,29,19,9,14
24,-34,-58,4,41,-46,0,34,29,19,9,14
24,-34,-58,4,41,-46,4,34,29,24,9,14
24,-34,-58,4,41,-46,4,34,29,24,9,14
24,-34,-58,4,41,-46,4,34,24,24,9,14
24,-34,-58,4,41,-46,4,29,24,19,9,14
24,-34,-58,4,41,-46,4,29,24,14,9,14
19,-43,-63,12,41,-53,4,39,29,9,4,4
9,-73,-82,31,46,-78,24,68,34,9,-4,-4
9,-92,-102,41,56,-97,78,122,29,-9,-19,-29
9,-97,-107,43,58,-102,112,141,68,14,-14,-29
-14,-78,-63,46,24,-70,107,131,146,82,34,0
48,29,-19,-39,34,4,48,112,302,253,180,126
185,204,19,-195,82,112,-19,165,507,483,395,326
429,395,-34,-412,231,180,-112,244,736,736,639,566
722,683,-39,-702,380,322,-253,307,1063,1107,1000,883
985,990,4,-988,490,497,-414,239,1332,1444,1342,1205
1249,1298,48,-1273,600,673,-702,-24,1429,1693,1634,1522
1590,1625,34,-1607,778,829,-1024,-317,1512,2000,1995,1888
1942,1942,0,-1942,971,971,-1342,-580,1600,2318,2386,2264
2030,2093,63,-2061,983,1078,-1493,-800,1586,2459,2581,2479
1873,2108,234,-1991,819,1171,-1546,-1068,1483,2474,2649,2562
1629,1917,287,-1773,671,1102,-1444,-1127,1376,2410,2615,2537
1449,1615,165,-1532,641,890,-1317,-1058,1122,2200,2425,2366
1229,1337,107,-1283,561,722,-1176,-985,868,1859,2098,2069
897,1039,141,-968,378,590,-961,-897,610,1405,1659,1673
502,702,200,-602,151,451,-712,-800,112,727,1039,1146
190,414,224,-302,-17,319,-468,-614,-209,258,536,668
78,219,141,-148,-31,180,-253,-341,-156,87,253,351
-9,87,97,-39,-53,92,-97,-190,-112,-14,58,122
-48,4,53,21,-51,29,-24,-82,-87,-82,-68,-19
-73,-39,34,56,-53,-2,4,-19,-87,-107,-102,-58
-87,-73,14,80,-51,-29,29,4,-82,-107,-112,-87
-87,-78,9,82,-48,-34,48,9,-73,-107,-112,-92
-87,-82,4,85,-46,-39,53,19,-63,-107,-112,-92
-87,-92,-4,90,-41,-48,53,43,-63,-117,-131,-107
-87,-107,-19,97,-34,-63,68,58,-58,-126,-141,-117
-92,-107,-14,100,-39,-61,73,58,-58,-126,-141,-122
-92,-107,-14,100,-39,-61,73,58,-58,-126,-141,-122
-92,-112,-19,102,-36,-65,78,73,-58,-126,-146,-126
-97,-117,-19,107,-39,-68,78,73,-58,-122,-151,-131
-97,-122,-24,109,-36,-73,82,78,-58,-126,-156,-136
-97,-122,-24,109,-36,-73,87,78,-58,-126,-156,-136
-97,-122,-24,109,-36,-73,87,78,-63,-131,-156,-136
-102,-122,-19,112,-41,-70,87,78,-63,-131,-161,-141
-107,-122,-14,114,-46,-68,92,78,-63,-136,-165,-141
-107,-122,-14,114,-46,-68,92,78,-63,-136,-165,-146
-112,-117,-4,114,-53,-61,92,78,-63,-141,-170,-151
-117,-117,0,117,-58,-58,97,78,-68,-141,-175,-156
-117,-112,4,114,-61,-53,97,82,-73,-151,-180,-156
-117,-112,4,114,-61,-53,97,82,-73,-151,-180,-161
-122,-112,9,117,-65,-51,97,82,-73,-151,-185,-165
-122,-112,9,117,-65,-51,97,82,-78,-151,-185,-165
-126,-112,14,119,-70,-48,102,82,-78,-156,-185,-170
-131,-112,19,122,-75,-46,102,82,-78,-161,-185,-180
-146,-117,29,131,-87,-43,102,82,-82,-161,-190,-185
-156,-122,34,139,-95,-43,107,82,-92,-165,-204,-190
-161,-122,39,141,-100,-41,107,82,-92,-165,-204,-204
-170,-122,48,146,-109,-36,107,82,-92,-170,-204,-204
-165,-122,43,143,-104,-39,112,82,-87,-175,-219,-204
-170,-122,48,146,-109,-36,117,82,-87,-180,-219,-209
-180,-122,58,151,-119,-31,122,87,-87,-190,-224,-214
-190,-122,68,156,-129,-26,122,87,-97,-195,-239,-224
-195,-117,78,156,-136,-19,122,87,-102,-204,-244,-234
-204,-117,87,161,-146,-14,126,92,-107,-214,-253,-244
-214,-112,102,163,-158,-4,136,92,-122,-224,-263,-253
-229,-107,122,168,-175,7,136,92,-131,-234,-278,-268
-248,-107,141,178,-195,17,141,92,-141,-248,-292,-283
-263,-107,156,185,-209,24,146,87,-161,-268,-307,-302
-283,-112,170,197,-226,29,151,87,-175,-297,-326,-322
-302,-117,185,209,-244,34,161,78,-200,-322,-356,-346
-326,-122,204,224,-265,41,165,73,-229,-356,-385,-375
-356,-126,229,241,-292,51,170,68,-263,-390,-414,-405
-385,-136,248,261,-317,56,170,48,-297,-434,-453,-429
-409,-151,258,280,-334,53,170,39,-341,-478,-488,-468
-439,-161,278,300,-358,58,180,24,-385,-522,-536,-512
-473,-180,292,326,-383,56,190,4,-439,-575,-575,-551
-512,-190,322,351,-417,65,195,-19,-488,-634,-629,-595
-536,-209,326,373,-431,58,195,-39,-551,-688,-683,-634
-575,-234,341,405,-458,53,200,-58,-605,-741,-722,-683
-610,-258,351,434,-480,46,204,-97,-663,-800,-771,-732
-639,-278,361,458,-500,41,209,-122,-727,-858,-834,-775
-668,-297,370,483,-519,36,214,-146,-790,-917,-883,-819
-697,-317,380,507,-539,31,224,-161,-844,-971,-922,-863
-727,-336,390,531,-558,26,229,-185,-897,-1010,-966,-893
-746,-361,385,553,-566,12,229,-200,-932,-1049,-995,-922
-756,-385,370,570,-563,-7,234,-209,-956,-1073,-1010,-941
-756,-395,361,575,-558,-17,234,-219,-980,-1093,-1029,-951
-746,-405,341,575,-544,-31,229,-219,-990,-1102,-1039,-956
-736,-409,326,573,-531,-41,229,-219,-985,-1093,-1034,-956
-707,-409,297,558,-502,-56,214,-214,-951,-1063,-995,-932
-683,-400,283,541,-483,-58,209,-204,-917,-1029,-961,-897
-644,-385,258,514,-451,-63,200,-190,-878,-985,-922,-863
-585,-361,224,473,-405,-68,190,-175,-834,-936,-878,-819
-546,-341,204,444,-375,-68,170,-151,-780,-878,-819,-761
-488,-312,175,400,-331,-68,161,-131,-707,-800,-751,-702
-429,-287,141,358,-285,-73,151,-102,-644,-732,-688,-649
-375,-263,112,319,-244,-75,131,-82,-570,-663,-610,-585
-326,-229,97,278,-212,-65,117,-63,-507,-590,-546,-522
-278,-195,82,236,-180,-56,107,-43,-429,-502,-468,-453
-229,-170,58,200,-143,-56,92,-19,-366,-429,-400,-390
-180,-136,43,158,-112,-46,68,-9,-307,-361,-341,-331
-141,-107,34,124,-87,-36,48,-4,-248,-297,-283,-278
-112,-87,24,100,-68,-31,39,4,-185,-234,-219,-224
-78,-68,9,73,-43,-29,29,9,-141,-190,-170,-175
-48,-48,0,48,-24,-24,24,14,-102,-146,-126,-141
-29,-34,-4,31,-12,-19,9,14,-73,-107,-92,-112
-9,-29,-19,19,4,-24,4,19,-48,-68,-63,-73
4,-19,-24,7,14,-21,4,24,-14,-39,-34,-43
9,-4,-14,-2,12,-9,0,24,4,-19,-19,-19
24,4,-19,-14,21,-7,-4,29,14,-4,-4,-9
39,14,-24,-26,31,-4,-14,29,29,19,14,4
48,19,-29,-34,39,-4,-14,29,48,39,34,14
53,29,-24,-41,39,2,-19,29,58,43,39,24
53,29,-24,-41,39,2,-19,29,58,48,43,29
58,29,-29,-43,43,0,-24,34,58,53,53,43
58,34,-24,-46,41,4,-24,34,63,63,53,48
58,34,-24,-46,41,4,-24,34,68,63,58,48
58,39,-19,-48,39,9,-24,34,73,63,58,53
58,43,-14,-51,36,14,-24,34,73,68,58,53
58,39,-19,-48,39,9,-19,39,73,68,63,53
53,39,-14,-46,34,12,-19,39,78,68,68,53
53,39,-14,-46,34,12,-19,39,78,68,68,53
53,34,-19,-43,36,7,-19,39,73,68,58,53
48,24,-24,-36,36,0,-19,39,73,63,53,53
48,24,-24,-36,36,0,-14,34,73,63,53,48
43,24,-19,-34,31,2,-14,34,73,58,48,48
39,24,-14,-31,26,4,-9,29,68,53,48,48
34,19,-14,-26,24,2,-9,29,58,48,48,43
34,14,-19,-24,26,-2,-9,29,58,53,48,39
24,14,-9,-19,17,2,-9,29,53,53,39,39
19,9,-9,-14,14,0,-9,29,48,48,39,24
19,9,-9,-14,14,0,-9,24,48,34,39,24
14,4,-9,-9,12,-2,-4,24,43,34,29,19
14,0,-14,-7,14,-7,-4,24,39,29,19,14
9,-9,-19,0,14,-14,-4,24,39,24,14,19
4,-14,-19,4,12,-17,0,24,29,19,14,14
4,-19,-24,7,14,-21,0,19,24,19,9,9
0,-19,-19,9,9,-19,0,19,24,14,4,9
0,-19,-19,9,9,-19,0,19,24,4,4,0
-4,-24,-19,14,7,-21,0,19,19,0,4,-4
-9,-24,-14,17,2,-19,0,19,19,0,0,-4
-9,-29,-19,19,4,-24,4,19,19,-4,-4,-4
-9,-34,-24,21,7,-29,4,19,14,-9,-9,-9
-9,-34,-24,21,7,-29,9,19,14,-9,-9,-9
-9,-34,-24,21,7,-29,9,19,9,-9,-9,-14
-9,-34,-24,21,7,-29,9,19,9,-14,-9,-14
-4,-34,-29,19,12,-31,9,19,4,-14,-14,-14
0,-34,-34,17,17,-34,4,19,4,-14,-14,-14
0,-29,-29,14,14,-29,4,19,4,-14,-14,-19
0,-24,-24,12,12,-24,4,19,0,-14,-14,-19
0,-24,-24,12,12,-24,0,19,0,-9,-14,-19
0,-24,-24,12,12,-24,0,19,0,-4,-14,-19
0,-34,-34,17,17,-34,0,19,4,-4,-14,-14
4,-39,-43,17,24,-41,0,19,4,-4,-14,-14
4,-39,-43,17,24,-41,0,19,4,-4,-14,-14
9,-34,-43,12,26,-39,0,19,4,-4,-14,-14
9,-34,-43,12,26,-39,0,19,9,0,-9,-9
9,-34,-43,12,26,-39,0,19,14,0,-9,0
14,-34,-48,9,31,-41,0,19,14,0,-4,0
14,-34,-48,9,31,-41,0,19,19,4,-4,4
14,-34,-48,9,31,-41,0,19,24,4,-4,4
19,-34,-53,7,36,-43,-4,19,24,4,0,4
19,-34,-53,7,36,-43,0,19,24,4,0,4
19,-34,-53,7,36,-43,4,19,29,9,0,9
24,-34,-58,4,41,-46,4,24,29,14,0,9
24,-34,-58,4,41,-46,4,24,29,14,0,14
24,-34,-58,4,41,-46,4,24,29,14,4,14
24,-34,-58,4,41,-46,4,24,29,14,9,14
24,-34,-58,4,41,-46,4,24,24,14,9,14
24,-29,-53,2,39,-41,4,24,24,19,9,14
24,-29,-53,2,39,-41,4,29,24,19,9,14
29,-29,-58,0,43,-43,0,34,24,19,9,9
29,-24,-53,-2,41,-39,0,29,24,19,14,14
29,-24,-53,-2,41,-39,0,29,24,19,14,14
29,-24,-53,-2,41,-39,0,24,29,19,14,14
29,-24,-53,-2,41,-39,0,24,29,14,14,14
29,-24,-53,-2,41,-39,0,24,29,14,14,14
34,-24,-58,-4,46,-41,0,24,29,14,14,19
34,-29,-63,-2,48,-46,0,24,34,19,19,19
34,-34,-68,0,51,-51,0,24,34,19,19,19
34,-34,-68,0,51,-51,4,24,34,19,14,19
39,-34,-73,-2,56,-53,4,24,39,29,19,24
43,-19,-63,-12,53,-41,0,24,43,29,19,24
48,-9,-58,-19,53,-34,0,29,48,29,19,29
48,-9,-58,-19,53,-34,0,29,48,34,24,34
48,-9,-58,-19,53,-34,0,29,48,39,29,39
48,-4,-53,-21,51,-29,-4,34,58,43,34,39
48,0,-48,-24,48,-24,-4,34,63,48,34,39
53,9,-43,-31,48,-17,-9,34,68,53,39,43
53,9,-43,-31,48,-17,-9,34,73,58,48,43
58,9,-48,-34,53,-19,-4,39,73,58,48,43
68,9,-58,-39,63,-24,-4,48,78,63,48,48
78,9,-68,-43,73,-29,4,58,82,68,53,53
78,9,-68,-43,73,-29,9,58,82,73,53,53
78,9,-68,-43,73,-29,0,58,82,73,53,53
82,19,-63,-51,73,-21,-14,48,82,73,53,58
82,34,-48,-58,65,-7,-43,34,82,73,63,63
87,39,-48,-63,68,-4,-73,19,73,73,63,68
102,43,-58,-73,80,-7,-87,0,73,73,63,68
112,43,-68,-78,90,-12,-92,-9,63,63,63,68
112,53,-58,-82,85,-2,-87,-9,63,63,63,68
126,53,-73,-90,100,-9,-73,4,63,68,63,68
126,39,-87,-82,107,-24,-63,14,63,68,63,68
126,24,-102,-75,114,-39,-53,24,63,68,63,68
122,4,-117,-63,119,-56,-39,34,63,58,48,63
122,0,-122,-61,122,-61,-34,39,58,58,48,58
126,0,-126,-63,126,-63,-39,39,53,58,48,58
122,0,-122,-61,122,-61,-43,29,53,53,43,58
112,9,-102,-61,107,-46,-43,29,53,53,43,58
102,4,-97,-53,100,-46,-34,39,53,53,43,53
82,-19,-102,-31,92,-61,-19,43,53,43,34,39
73,-39,-112,-17,92,-75,-4,48,53,43,34,39
58,-43,-102,-7,80,-73,0,43,39,39,29,34
43,-53,-97,4,70,-75,0,39,39,29,19,24
34,-58,-92,12,63,-75,4,39,43,29,19,24
34,-58,-92,12,63,-75,9,39,43,29,19,24
34,-58,-92,12,63,-75,9,39,39,29,19,24
34,-63,-97,14,65,-80,9,39,39,29,19,24
34,-63,-97,14,65,-80,9,43,39,24,19,24
34,-63,-97,14,65,-80,14,43,39,24,19,24
34,-63,-97,14,65,-80,14,43,43,24,19,24
34,-63,-97,14,65,-80,14,43,43,24,19,24
34,-63,-97,14,65,-80,14,43,43,24,19,24
34,-63,-97,14,65,-80,14,48,43,24,19,24
29,-63,-92,17,61,-78,9,48,43,19,14,14
19,-82,-102,31,61,-92,24,68,43,19,4,4
14,-117,-131,51,73,-124,78,122,29,-9,-19,-24
9,-136,-146,63,78,-141,112,141,58,4,-24,-29
-39,-141,-102,90,31,-122,126,136,112,39,-4,-29
0,-58,-58,29,29,-58,87,122,244,175,112,68
122,92,-29,-107,75,31,34,175,429,385,307,239
351,258,-92,-305,222,82,-43,253,639,619,531,448
649,536,-112,-592,380,212,-180,351,961,966,868,756
917,834,-82,-875,500,375,-336,317,1224,1278,1185,1068
1180,1132,-48,-1156,614,541,-605,53,1322,1507,1464,1361
1522,1449,-73,-1485,797,688,-907,-239,1405,1795,1810,1703
1937,1795,-141,-1866,1039,827,-1268,-502,1498,2122,2205,2098
2088,1976,-112,-2032,1100,932,-1464,-722,1488,2274,2405,2332
1966,2039,73,-2003,946,1056,-1556,-1044,1395,2313,2508,2449
1756,1898,141,-1827,807,1019,-1493,-1156,1298,2274,2508,2459
1590,1605,14,-1598,788,810,-1371,-1068,1112,2137,2381,2347
1385,1337,-48,-1361,717,644,-1234,-976,927,1869,2117,2108
1058,1044,-14,-1051,536,514,-1024,-893,717,1483,1737,1761
668,712,43,-690,312,378,-780,-800,268,873,1176,1283
302,409,107,-356,97,258,-522,-629,-126,361,639,775
136,200,63,-168,36,131,-292,-370,-146,146,322,429
24,58,34,-41,-4,46,-112,-204,-87,39,122,185
-39,-34,4,36,-21,-14,-14,-82,-48,-34,-9,29
-68,-87,-19,78,-24,-53,19,-9,-48,-68,-63,-24
-87,-131,-43,109,-21,-87,48,24,-43,-78,-92,-68
-87,-131,-43,109,-21,-87,68,29,-39,-78,-92,-78
-87,-131,-43,109,-21,-87,73,39,-34,-78,-92,-82
-87,-141,-53,114,-17,-97,73,63,-34,-82,-107,-97
-87,-156,-68,122,-9,-112,87,78,-29,-87,-112,-107
-92,-161,-68,126,-12,-114,92,78,-24,-87,-112,-112
-92,-165,-73,129,-9,-119,92,78,-19,-87,-112,-112
-92,-170,-78,131,-7,-124,97,92,-19,-92,-122,-117
-97,-175,-78,136,-9,-126,97,92,-19,-92,-131,-122
-102,-180,-78,141,-12,-129,102,102,-24,-97,-136,-126
-107,-180,-73,143,-17,-126,107,107,-29,-97,-136,-126
-107,-180,-73,143,-17,-126,107,107,-34,-107,-136,-126
-112,-180,-68,146,-21,-124,107,107,-34,-112,-141,-131
-112,-180,-68,146,-21,-124,112,102,-34,-117,-146,-131
-107,-180,-73,143,-17,-126,112,97,-34,-117,-146,-136
-112,-175,-63,143,-24,-119,112,97,-34,-117,-146,-141
-117,-175,-58,146,-29,-117,117,97,-39,-112,-146,-146
-122,-175,-53,148,-34,-114,117,102,-43,-122,-151,-146
-126,-180,-53,153,-36,-117,117,102,-43,-122,-151,-151
-131,-180,-48,156,-41,-114,117,102,-39,-122,-156,-156
-131,-180,-48,156,-41,-114,117,102,-39,-122,-156,-156
-136,-180,-43,158,-46,-112,122,102,-39,-126,-156,-156
-141,-180,-39,161,-51,-109,122,102,-39,-131,-156,-161
-151,-180,-29,165,-61,-104,126,102,-39,-131,-156,-161
-156,-180,-24,168,-65,-102,136,102,-43,-136,-165,-161
-161,-180,-19,170,-70,-100,136,102,-43,-136,-165,-175
-170,-180,-9,175,-80,-95,136,102,-43,-141,-165,-175
-170,-180,-9,175,-80,-95,141,107,-43,-141,-180,-180
-180,-180,0,180,-90,-90,146,112,-48,-141,-180,-190
-190,-180,9,185,-100,-85,151,117,-48,-151,-185,-195
-200,-180,19,190,-109,-80,151,117,-58,-156,-200,-204
-204,-175,29,190,-117,-73,151,117,-58,-165,-200,-214
-214,-175,39,195,-126,-68,156,122,-58,-175,-204,-224
-224,-175,48,200,-136,-63,165,122,-73,-185,-214,-229
-239,-175,63,207,-151,-56,165,122,-82,-195,-229,-239
-258,-175,82,217,-170,-46,170,122,-87,-204,-248,-253
-273,-175,97,224,-185,-39,175,117,-102,-219,-268,-273
-292,-180,112,236,-202,-34,180,122,-122,-244,-278,-287
-312,-185,126,248,-219,-29,190,117,-151,-263,-297,-307
-331,-190,141,261,-236,-24,195,107,-175,-292,-326,-336
-356,-195,161,275,-258,-17,200,97,-204,-322,-356,-366
-390,-204,185,297,-287,-9,204,78,-239,-361,-395,-385
-419,-219,200,319,-309,-9,209,68,-283,-400,-429,-419
-448,-229,219,339,-334,-4,219,53,-322,-444,-473,-463
-483,-248,234,366,-358,-7,229,34,-370,-497,-507,-502
-527,-263,263,395,-395,0,234,9,-414,-551,-561,-546
-556,-287,268,422,-412,-9,234,-9,-473,-600,-614,-585
-595,-307,287,451,-441,-9,239,-29,-522,-644,-649,-629
-629,-326,302,478,-466,-12,244,-68,-575,-692,-692,-673
-668,-346,322,507,-495,-12,248,-97,-634,-751,-756,-712
-707,-366,341,536,-524,-12,253,-126,-692,-810,-805,-751
-736,-390,346,563,-541,-21,258,-141,-741,-863,-839,-800
-766,-414,351,590,-558,-31,258,-165,-790,-902,-878,-834
-780,-439,341,610,-561,-48,258,-185,-829,-941,-912,-863
-785,-463,322,624,-553,-70,263,-200,-858,-966,-932,-883
-795,-473,322,634,-558,-75,263,-214,-878,-985,-946,-897
-795,-483,312,639,-553,-85,258,-219,-883,-995,-951,-907
-785,-483,302,634,-544,-90,263,-219,-897,-1000,-961,-912
-756,-478,278,617,-517,-100,253,-214,-883,-985,-936,-893
-732,-473,258,602,-495,-107,248,-200,-849,-946,-897,-858
-692,-463,229,578,-461,-117,239,-180,-810,-897,-854,-824
-634,-439,195,536,-414,-122,229,-170,-771,-858,-819,-790
-595,-419,175,507,-385,-122,209,-151,-722,-810,-771,-741
-536,-390,146,463,-341,-122,204,-131,-649,-732,-707,-678
-478,-366,112,422,-295,-126,200,-102,-585,-663,-649,-619
-424,-351,73,387,-248,-139,175,-82,-517,-605,-575,-566
-375,-326,48,351,-212,-139,156,-63,-458,-541,-517,-512
-322,-292,29,307,-175,-131,146,-39,-380,-458,-444,-448
-268,-268,0,268,-134,-134,131,-9,-317,-390,-380,-390
-209,-234,-24,222,-92,-129,112,0,-263,-326,-322,-331
-161,-204,-43,183,-58,-124,97,4,-209,-268,-263,-278
-126,-185,-58,156,-34,-122,87,29,-151,-200,-200,-219
-87,-165,-78,126,-4,-122,78,48,-112,-151,-151,-165
-53,-141,-87,97,17,-114,73,53,-68,-112,-107,-131
-29,-122,-92,75,31,-107,58,53,-34,-78,-73,-102
-4,-117,-112,61,53,-114,48,58,-9,-39,-43,-63
14,-107,-122,46,68,-114,43,63,24,-9,-14,-34
19,-92,-112,36,65,-102,39,63,43,9,0,-9
34,-82,-117,24,75,-100,34,68,53,24,14,0
43,-73,-117,14,80,-95,24,68,63,48,29,14
48,-68,-117,9,82,-92,24,68,78,68,43,24
53,-58,-112,2,82,-85,19,73,87,73,53,34
53,-58,-112,2,82,-85,19,78,87,78,63,39
58,-58,-117,0,87,-87,14,78,92,82,73,53
58,-53,-112,-2,85,-82,14,73,102,92,73,58
58,-53,-112,-2,85,-82,19,78,107,97,78,58
58,-48,-107,-4,82,-78,24,82,112,102,78,63
63,-48,-112,-7,87,-80,19,78,112,107,78,63
68,-58,-126,-4,97,-92,19,78,112,107,82,63
63,-58,-122,-2,92,-90,19,78,112,102,82,63
63,-58,-122,-2,92,-90,19,78,107,97,78,63
63,-58,-122,-2,92,-90,19,78,102,97,73,63
58,-63,-122,2,90,-92,19,78,102,92,73,63
58,-63,-122,2,90,-92,24,73,102,92,78,63
53,-63,-117,4,85,-90,24,73,102,87,78,68
48,-58,-107,4,78,-82,29,73,107,87,73,68
43,-58,-102,7,73,-80,29,78,107,87,68,63
43,-63,-107,9,75,-85,29,78,107,87,68,58
34,-63,-97,14,65,-80,29,78,102,82,58,58
24,-68,-92,21,58,-80,29,73,92,82,58,43
19,-68,-87,24,53,-78,29,63,87,73,58,43
14,-73,-87,29,51,-80,34,63,82,73,48,39
14,-78,-92,31,53,-85,34,63,78,68,39,34
9,-82,-92,36,51,-87,34,68,78,63,34,34
4,-82,-87,39,46,-85,39,73,68,58,34,24
4,-92,-97,43,51,-95,39,68,63,53,29,19
0,-97,-97,48,48,-97,39,68,63,43,24,19
0,-97,-97,48,48,-97,39,68,63,39,24,14
-4,-102,-97,53,46,-100,39,68,58,39,24,14
-9,-102,-92,56,41,-97,39,68,58,39,19,14
-9,-107,-97,58,43,-102,43,68,58,34,14,14
-9,-112,-102,61,46,-107,43,68,53,29,9,9
-9,-112,-102,61,46,-107,48,68,53,29,9,9
-9,-112,-102,61,46,-107,48,68,48,29,9,4
-9,-112,-102,61,46,-107,48,68,48,24,9,4
-9,-112,-102,61,46,-107,48,68,43,24,4,4
-9,-112,-102,61,46,-107,43,68,43,24,4,4
-9,-112,-102,61,46,-107,43,63,43,24,4,0
-9,-112,-102,61,46,-107,43,58,39,24,4,0
-9,-112,-102,61,46,-107,39,58,43,24,4,0
-9,-112,-102,61,46,-107,39,58,48,24,4,0
-9,-117,-107,63,48,-112,43,63,53,24,4,4
-4,-117,-112,61,53,-114,48,68,53,24,4,4
-9,-122,-112,65,51,-117,48,68,53,24,4,4
-9,-122,-112,65,51,-117,48,68,53,24,4,4
-9,-122,-112,65,51,-117,48,68,53,29,4,4
-9,-122,-112,65,51,-117,48,68,53,29,0,9
0,-122,-122,61,61,-122,48,68,48,29,4,9
4,-122,-126,58,65,-124,48,68,48,34,4,14
4,-122,-126,58,65,-124,48,68,53,34,4,14
9,-122,-131,56,70,-126,43,68,53,34,9,14
9,-122,-131,56,70,-126,43,68,53,34,14,14
9,-122,-131,56,70,-126,43,68,58,39,19,19
14,-126,-141,56,78,-134,43,73,58,43,19,19
14,-131,-146,58,80,-139,43,73,58,43,19,24
19,-131,-151,56,85,-141,43,73,58,43,24,19
24,-131,-156,53,90,-143,43,73,58,43,29,14
24,-136,-161,56,92,-148,43,73,58,43,29,14
24,-136,-161,56,92,-148,43,73,63,48,29,14
19,-136,-156,58,87,-146,43,73,63,48,29,24
19,-136,-156,58,87,-146,39,73,63,48,29,29
19,-126,-146,53,82,-136,39,68,63,48,34,34
19,-122,-141,51,80,-131,39,68,63,48,34,34
19,-122,-141,51,80,-131,39,68,68,53,34,34
19,-122,-141,51,80,-131,39,73,68,53,34,34
19,-122,-141,51,80,-131,39,78,68,53,34,29
24,-122,-146,48,85,-134,39,82,68,53,34,29
24,-126,-151,51,87,-139,39,82,73,53,34,29
24,-131,-156,53,90,-143,39,82,73,48,29,29
24,-126,-151,51,87,-139,43,82,68,43,29,29
29,-122,-151,46,90,-136,43,82,68,48,39,34
34,-117,-151,41,92,-134,39,82,73,48,39,34
39,-112,-151,36,95,-131,39,87,82,53,39,39
39,-102,-141,31,90,-122,39,87,82,63,48,43
39,-97,-136,29,87,-117,39,87,87,78,58,48
39,-92,-131,26,85,-112,39,87,97,78,58,53
39,-87,-126,24,82,-107,39,87,107,78,58,58
39,-82,-122,21,80,-102,39,87,107,78,58,58
43,-78,-122,17,82,-100,39,82,107,82,63,58
48,-73,-122,12,85,-97,39,82,112,87,73,63
58,-68,-126,4,92,-97,43,87,112,87,78,63
68,-63,-131,-2,100,-97,39,97,112,92,78,68
78,-58,-136,-9,107,-97,39,107,112,97,82,73
78,-58,-136,-9,107,-97,39,107,112,102,82,73
78,-58,-136,-9,107,-97,29,102,112,102,82,73
82,-48,-131,-17,107,-90,14,87,122,107,82,78
82,-34,-117,-24,100,-75,-4,73,131,112,92,82
87,-29,-117,-29,102,-73,-24,63,122,112,92,87
102,-24,-126,-39,114,-75,-39,53,122,112,92,87
112,-24,-136,-43,124,-80,-43,48,112,97,92,87
112,-14,-126,-48,119,-70,-43,48,112,92,92,87
126,-14,-141,-56,134,-78,-34,58,107,97,92,87
126,-29,-156,-48,141,-92,-24,63,102,97,92,87
126,-43,-170,-41,148,-107,-14,73,102,97,92,87
122,-63,-185,-29,153,-124,0,78,102,87,78,82
117,-68,-185,-24,151,-126,4,78,97,87,78,73
112,-68,-180,-21,146,-124,4,78,92,87,78,68
102,-68,-170,-17,136,-119,4,68,92,82,73,68
92,-68,-161,-12,126,-114,4,68,92,82,73,68
82,-82,-165,0,124,-124,14,78,92,82,73,68
63,-97,-161,17,112,-129,24,82,92,73,63,58
58,-107,-165,24,112,-136,39,87,92,78,63,58
53,-112,-165,29,109,-139,48,87,78,78,58,53
43,-122,-165,39,104,-143,48,87,78,68,48,43
34,-126,-161,46,97,-143,53,87,82,68,48,43
29,-126,-156,48,92,-141,53,87,82,63,43,39
24,-126,-151,51,87,-139,48,87,78,58,39,34
24,-131,-156,53,90,-143,48,87,78,58,39,34
24,-131,-156,53,90,-143,48,92,78,58,39,34
24,-131,-156,53,90,-143,53,92,78,63,39,34
24,-131,-156,53,90,-143,53,92,82,63,39,34
24,-131,-156,53,90,-143,53,92,82,63,39,39
24,-131,-156,53,90,-143,53,92,82,63,39,43
29,-131,-161,51,95,-146,53,97,82,63,43,43
29,-141,-170,56,100,-156,63,107,87,58,43,34
19,-170,-190,75,104,-180,92,141,92,58,34,24
19,-185,-204,82,112,-195,136,200,107,58,34,14
19,-190,-209,85,114,-200,165,229,165,102,53,24
24,-156,-180,65,102,-168,156,239,258,190,126,73
112,-34,-146,-39,129,-90,87,214,414,351,273,209
268,141,-126,-204,197,7,9,253,605,561,478,400
536,326,-209,-431,373,58,-82,366,829,814,712,629
834,605,-229,-719,531,187,-229,439,1122,1141,1029,932
1102,902,-200,-1002,651,351,-385,380,1361,1444,1351,1244
1366,1190,-175,-1278,771,507,-653,136,1439,1673,1629,1537
1737,1532,-204,-1634,971,663,-1000,-200,1522,1971,1991,1908
2069,1830,-239,-1949,1154,795,-1317,-492,1610,2254,2342,2264
2142,1952,-190,-2047,1166,880,-1454,-712,1595,2376,2508,2459
2020,1937,-82,-1978,1051,927,-1488,-946,1488,2391,2571,2527
1776,1708,-68,-1742,922,819,-1361,-990,1356,2318,2522,2483
1571,1410,-161,-1490,866,624,-1229,-936,1102,2098,2322,2303
1312,1156,-156,-1234,734,500,-1102,-897,849,1756,1995,2005
946,888,-58,-917,502,414,-902,-839,605,1356,1590,1634
488,536,48,-512,219,292,-634,-751,92,673,956,1083
151,258,107,-204,21,183,-395,-585,-209,224,478,614
58,92,34,-75,12,63,-185,-292,-107,107,239,326
-24,-19,4,21,-14,-7,-34,-136,-63,19,68,122
-63,-82,-19,73,-21,-51,29,-34,-34,-34,-29,4
-87,-126,-39,107,-24,-82,63,34,-29,-58,-63,-34
-97,-161,-63,129,-17,-112,87,53,-24,-58,-78,-63
-97,-161,-63,129,-17,-112,102,58,-19,-58,-82,-73
-97,-165,-68,131,-14,-117,102,68,-14,-58,-82,-73
-97,-180,-82,139,-7,-131,102,92,-14,-63,-97,-87
-97,-195,-97,146,0,-146,117,107,-9,-68,-102,-97
-102,-195,-92,148,-4,-143,122,107,-9,-68,-102,-102
-102,-190,-87,146,-7,-139,122,107,-9,-73,-102,-102
-102,-190,-87,146,-7,-139,126,122,-9,-82,-107,-107
-107,-195,-87,151,-9,-141,126,122,-9,-82,-112,-112
-107,-200,-92,153,-7,-146,131,126,-9,-87,-117,-117
-107,-200,-92,153,-7,-146,136,126,-9,-87,-117,-117
-107,-200,-92,153,-7,-146,136,126,-14,-92,-117,-117
-112,-200,-87,156,-12,-143,136,126,-19,-92,-122,-122
-117,-200,-82,158,-17,-141,141,126,-24,-97,-126,-122
-117,-200,-82,158,-17,-141,141,126,-24,-97,-126,-126
-122,-195,-73,158,-24,-134,141,126,-24,-102,-131,-131
-126,-195,-68,161,-29,-131,146,126,-29,-102,-136,-136
-131,-195,-63,163,-34,-129,146,131,-34,-112,-141,-136
-136,-200,-63,168,-36,-131,146,126,-34,-117,-141,-141
-141,-200,-58,170,-41,-129,146,122,-34,-122,-146,-146
-141,-204,-63,173,-39,-134,146,122,-39,-122,-151,-146
-146,-209,-63,178,-41,-136,151,122,-39,-126,-156,-151
-151,-209,-58,180,-46,-134,146,122,-43,-131,-156,-161
-161,-209,-48,185,-56,-129,141,122,-48,-131,-161,-161
-165,-200,-34,183,-65,-117,146,117,-58,-136,-175,-161
-170,-190,-19,180,-75,-104,146,112,-63,-136,-175,-175
-180,-185,-4,183,-87,-95,141,112,-63,-141,-175,-180
-180,-180,0,180,-90,-90,141,112,-63,-146,-190,-190
-190,-180,9,185,-100,-85,146,112,-68,-151,-190,-200
-200,-180,19,190,-109,-80,151,117,-68,-161,-195,-204
-204,-180,24,192,-114,-78,151,117,-78,-165,-209,-214
-204,-175,29,190,-117,-73,151,117,-82,-175,-214,-224
-214,-175,39,195,-126,-68,156,122,-87,-190,-224,-234
-224,-175,48,200,-136,-63,165,122,-102,-204,-234,-244
-239,-175,63,207,-151,-56,165,117,-112,-214,-248,-258
-258,-175,82,217,-170,-46,170,112,-122,-229,-268,-273
-283,-175,107,229,-195,-34,175,102,-141,-248,-287,-292
-312,-180,131,246,-222,-24,180,97,-161,-278,-307,-312
-331,-180,151,256,-241,-14,190,87,-190,-302,-336,-336
-356,-180,175,268,-265,-2,195,78,-219,-336,-366,-366
-385,-180,204,283,-295,12,195,63,-253,-366,-395,-395
-419,-185,234,302,-326,24,195,39,-287,-405,-434,-419
-448,-200,248,324,-348,24,200,29,-326,-448,-468,-458
-478,-209,268,344,-373,29,209,14,-366,-492,-517,-502
-507,-229,278,368,-392,24,219,-4,-419,-546,-556,-541
-546,-239,307,392,-427,34,224,-29,-468,-605,-610,-585
-575,-258,317,417,-446,29,224,-48,-527,-653,-663,-624
-614,-278,336,446,-475,29,229,-68,-575,-702,-702,-673
-653,-297,356,475,-505,29,234,-107,-634,-761,-746,-722
-688,-317,370,502,-529,26,239,-131,-692,-819,-805,-761
-722,-331,390,527,-556,29,244,-156,-751,-878,-854,-800
-751,-346,405,549,-578,29,248,-170,-800,-927,-888,-844
-775,-366,409,570,-592,21,248,-195,-858,-966,-932,-873
-785,-385,400,585,-592,7,248,-209,-897,-1010,-966,-902
-785,-395,390,590,-588,-2,253,-219,-917,-1034,-980,-932
-785,-395,390,590,-588,-2,253,-229,-932,-1044,-990,-946
-775,-405,370,590,-573,-17,248,-229,-936,-1044,-990,-946
-761,-405,356,583,-558,-24,248,-229,-936,-1034,-985,-941
-727,-400,326,563,-527,-36,234,-219,-902,-1015,-956,-912
-697,-390,307,544,-502,-41,229,-200,-863,-985,-927,-878
-653,-380,273,517,-463,-53,219,-180,-824,-936,-883,-844
-595,-361,234,478,-414,-63,209,-165,-785,-883,-834,-800
-556,-341,214,448,-385,-63,195,-136,-732,-824,-771,-741
-497,-312,185,405,-341,-63,190,-112,-658,-751,-702,-678
-434,-287,146,361,-290,-70,185,-82,-600,-683,-639,-624
-375,-263,112,319,-244,-75,165,-63,-531,-614,-566,-566
-326,-234,92,280,-209,-70,146,-39,-468,-541,-507,-502
-278,-204,73,241,-175,-65,136,-14,-390,-458,-434,-439
-229,-180,48,204,-139,-65,122,9,-322,-390,-370,-380
-180,-151,29,165,-104,-61,102,19,-263,-326,-312,-322
-136,-126,9,131,-73,-58,87,29,-204,-268,-253,-258
-102,-107,-4,104,-48,-56,78,48,-146,-204,-195,-200
-63,-82,-19,73,-21,-51,63,58,-107,-156,-151,-156
-29,-58,-29,43,0,-43,53,63,-63,-112,-112,-122
-9,-43,-34,26,12,-39,39,63,-34,-78,-78,-92
9,-39,-48,14,29,-43,34,68,-14,-43,-43,-58
24,-29,-53,2,39,-41,34,73,14,-14,-14,-34
29,-14,-43,-7,36,-29,29,73,34,9,0,-9
43,-4,-48,-19,46,-26,24,78,48,24,19,4
53,4,-48,-29,51,-21,14,78,63,43,39,24
58,9,-48,-34,53,-19,14,78,78,58,53,34
63,19,-43,-41,53,-12,9,78,87,63,58,43
63,19,-43,-41,53,-12,9,78,87,68,63,48
68,19,-48,-43,58,-14,4,78,87,73,73,58
68,29,-39,-48,53,-4,4,73,92,82,73,58
68,34,-34,-51,51,0,4,73,97,82,78,58
68,39,-29,-53,48,4,4,68,97,82,78,63
68,39,-29,-53,48,4,0,58,92,87,78,63
68,29,-39,-48,53,-4,0,58,92,87,82,58
63,29,-34,-46,48,-2,0,58,92,87,87,53
63,34,-29,-48,46,2,0,63,87,87,82,53
63,39,-24,-51,43,7,0,68,82,87,73,53
58,34,-24,-46,41,4,0,68,82,82,73,53
58,34,-24,-46,41,4,4,63,82,82,73,48
58,34,-24,-46,41,4,0,58,82,78,68,48
58,34,-24,-46,41,4,0,48,78,73,63,48
53,34,-19,-43,36,7,0,48,68,68,63,43
53,34,-19,-43,36,7,0,48,68,68,68,39
43,34,-9,-39,26,12,0,48,63,63,58,43
39,29,-9,-34,24,9,0,48,58,58,58,34
34,29,-4,-31,19,12,0,43,58,48,53,34
24,24,0,-24,12,12,4,43,53,53,39,29
24,19,-4,-21,14,7,4,43,48,48,29,19
19,14,-4,-17,12,4,4,43,48,43,24,14
14,14,0,-14,7,7,9,43,39,34,24,4
14,9,-4,-12,9,2,9,39,34,29,19,0
9,9,0,-9,4,4,9,39,34,19,9,0
9,9,0,-9,4,4,9,39,34,9,4,-4
9,4,-4,-7,7,0,9,39,29,9,4,-4
9,4,-4,-7,7,0,9,39,29,9,0,-4
9,0,-9,-4,9,-4,9,39,29,9,0,0
9,-4,-14,-2,12,-9,4,39,24,9,0,0
9,-4,-14,-2,12,-9,9,39,24,9,0,0
9,-4,-14,-2,12,-9,9,39,19,9,0,-4
9,0,-9,-4,9,-4,9,39,19,4,0,-4
9,4,-4,-7,7,0,9,39,14,4,-4,-4
9,4,-4,-7,7,0,4,39,14,4,-4,-4
9,4,-4,-7,7,0,4,39,14,4,-4,-9
9,0,-9,-4,9,-4,9,39,9,4,-4,-9
9,-4,-14,-2,12,-9,9,39,9,4,-4,-9
9,-4,-14,-2,12,-9,9,39,9,4,-4,-9
9,-9,-19,0,14,-14,9,39,14,4,-4,-4
14,-4,-19,-4,17,-12,9,39,14,4,-4,-4
14,0,-14,-7,14,-7,9,39,14,4,-4,-4
19,4,-14,-12,17,-4,9,39,14,4,-4,-4
19,4,-14,-12,17,-4,9,39,14,9,0,-4
19,4,-14,-12,17,-4,9,39,14,9,0,0
24,4,-19,-14,21,-7,9,39,14,9,4,0
24,4,-19,-14,21,-7,4,39,19,14,4,4
24,4,-19,-14,21,-7,0,39,24,14,4,4
29,4,-24,-17,26,-9,-4,39,24,14,14,4
29,4,-24,-17,26,-9,-4,39,24,14,19,4
29,9,-19,-19,24,-4,-4,39,29,19,19,9
34,14,-19,-24,26,-2,-4,43,29,24,19,9
34,14,-19,-24,26,-2,-4,43,29,24,19,14
34,14,-19,-24,26,-2,-4,43,29,24,24,14
34,14,-19,-24,26,-2,-4,43,29,24,29,14
34,14,-19,-24,26,-2,-4,43,29,24,29,14
34,14,-19,-24,26,-2,-4,43,39,34,29,14
34,9,-24,-21,29,-7,-4,43,43,39,29,19
39,9,-29,-24,34,-9,-9,43,43,39,29,19
39,14,-24,-26,31,-4,-9,39,43,39,34,24
39,14,-24,-26,31,-4,-9,34,43,39,34,24
39,14,-24,-26,31,-4,-9,29,48,43,34,24
39,14,-24,-26,31,-4,-4,34,48,43,34,24
39,14,-24,-26,31,-4,0,34,48,43,34,24
43,14,-29,-29,36,-7,0,34,48,43,34,29
43,14,-29,-29,36,-7,0,34,53,48,39,29
39,9,-29,-24,34,-9,0,34,53,48,39,29
39,9,-29,-24,34,-9,0,34,58,53,43,34
39,14,-24,-26,31,-4,-4,34,58,53,43,34
43,19,-24,-31,34,-2,-9,39,58,58,48,39
43,29,-14,-36,29,7,-9,39,63,63,48,39
48,39,-9,-43,29,14,-9,39,68,68,48,39
53,43,-9,-48,31,17,-14,39,73,68,58,43
58,48,-9,-53,34,19,-19,39,78,68,68,48
58,53,-4,-56,31,24,-19,39,78,68,68,48
58,53,-4,-56,31,24,-19,34,82,73,73,53
63,58,-4,-61,34,26,-19,34,87,82,78,58
68,58,-9,-63,39,24,-14,39,92,87,78,63
78,58,-19,-68,48,19,-14,48,97,92,78,68
87,58,-29,-73,58,14,-9,58,102,97,82,73
87,58,-29,-73,58,14,-4,58,102,102,82,73
87,58,-29,-73,58,14,-9,53,102,102,82,73
92,68,-24,-80,58,21,-24,43,102,102,82,78
92,82,-9,-87,51,36,-43,34,102,102,92,82
97,87,-9,-92,53,39,-68,19,92,102,92,87
112,92,-19,-102,65,36,-87,4,92,102,92,87
122,92,-29,-107,75,31,-92,-4,82,92,92,87
122,102,-19,-112,70,41,-92,-9,82,92,92,87
136,107,-29,-122,82,39,-82,4,82,97,92,87
136,97,-39,-117,87,29,-73,14,82,97,92,87
136,82,-53,-109,95,14,-63,24,82,97,92,87
131,63,-68,-97,100,-2,-48,29,82,87,78,82
136,58,-78,-97,107,-9,-48,29,78,87,78,78
141,58,-82,-100,112,-12,-53,29,73,87,78,78
131,58,-73,-95,102,-7,-53,19,73,82,73,78
122,58,-63,-90,92,-2,-53,19,73,82,73,78
112,43,-68,-78,90,-12,-43,29,73,87,73,73
92,29,-63,-61,78,-17,-34,34,73,82,63,58
82,19,-63,-51,73,-21,-24,39,73,82,63,63
73,14,-58,-43,65,-21,-19,39,58,78,58,63
63,4,-58,-34,61,-26,-19,39,58,68,53,53
53,0,-53,-26,53,-26,-14,39,63,68,58,53
53,0,-53,-26,53,-26,-9,39,68,68,58,53
53,0,-53,-26,53,-26,-9,39,68,68,58,53
53,-4,-58,-24,56,-31,-9,39,68,68,58,53
53,-4,-58,-24,56,-31,-9,43,68,68,58,53
48,-4,-53,-21,51,-29,-4,43,68,68,58,53
43,-4,-48,-19,46,-26,-4,43,73,63,58,53
43,-4,-48,-19,46,-26,-4,43,73,63,58,53
43,-4,-48,-19,46,-26,-4,43,73,63,58,53
48,-4,-53,-21,51,-29,-4,48,73,63,58,53
48,-14,-63,-17,56,-39,4,58,78,58,53,43
39,-43,-82,2,61,-63,24,87,73,58,43,29
39,-58,-97,9,68,-78,58,141,78,58,43,14
24,-82,-107,29,65,-95,102,161,112,73,34,9
14,-68,-82,26,48,-75,107,161,180,131,78,43
68,48,-19,-58,43,14,48,136,351,312,234,175
190,219,29,-204,80,124,-19,175,556,541,448,361
448,400,-48,-424,248,175,-102,287,785,805,692,595
736,673,-63,-705,400,305,-239,361,1083,1141,1019,902
995,980,-14,-988,505,483,-385,322,1371,1473,1366,1224
1249,1278,29,-1263,610,653,-644,97,1498,1732,1668,1527
1634,1625,-9,-1629,822,807,-985,-219,1595,2069,2064,1922
1981,1927,-53,-1954,1017,936,-1298,-492,1698,2391,2449,2303
2069,2098,29,-2083,1019,1063,-1473,-732,1693,2542,2644,2532
1961,2132,170,-2047,895,1151,-1546,-985,1595,2586,2737,2635
1717,1917,200,-1817,758,1058,-1420,-1044,1478,2527,2713,2615
1512,1634,122,-1573,695,878,-1288,-1005,1239,2322,2537,2459
1298,1371,73,-1334,612,722,-1171,-956,985,1976,2215,2166
976,1093,117,-1034,429,605,-980,-888,741,1571,1815,1800
527,722,195,-624,165,458,-722,-810,165,819,1127,1220
200,424,224,-312,-12,324,-492,-653,-200,302,595,722
102,234,131,-168,-14,183,-268,-351,-97,165,326,405
14,97,82,-56,-34,90,-102,-185,-53,58,126,170
-24,29,53,-2,-39,41,-34,-82,-24,-4,9,39
-48,-19,29,34,-39,4,4,-14,-19,-39,-43,-14
-58,-53,4,56,-31,-24,29,9,-14,-39,-53,-39
-58,-53,4,56,-31,-24,43,19,-9,-39,-53,-43
-58,-53,4,56,-31,-24,43,29,-4,-39,-53,-43
-58,-63,-4,61,-26,-34,43,53,-4,-43,-68,-58
-58,-82,-24,70,-17,-53,63,73,0,-48,-73,-68
-63,-87,-24,75,-19,-56,73,78,0,-48,-73,-73
-63,-87,-24,75,-19,-56,73,78,0,-48,-73,-73
-63,-92,-29,78,-17,-61,78,92,0,-53,-78,-78
-68,-97,-29,82,-19,-63,78,92,0,-53,-82,-82
-68,-102,-34,85,-17,-68,82,97,0,-58,-87,-87
-68,-102,-34,85,-17,-68,87,97,0,-58,-87,-87
-68,-102,-34,85,-17,-68,87,97,-4,-63,-87,-87
-73,-107,-34,90,-19,-70,82,97,-4,-63,-92,-92
-78,-112,-34,95,-21,-73,82,97,-4,-68,-97,-92
-73,-112,-39,92,-17,-75,82,97,-4,-68,-92,-97
-73,-107,-34,90,-19,-70,82,97,-4,-73,-92,-102
-78,-107,-29,92,-24,-68,92,92,-9,-73,-97,-107
-82,-107,-24,95,-29,-65,97,92,-14,-82,-102,-107
-87,-112,-24,100,-31,-68,97,92,-14,-82,-102,-112
-92,-112,-19,102,-36,-65,97,92,-14,-82,-107,-117
-92,-112,-19,102,-36,-65,92,92,-19,-82,-107,-117
-97,-112,-14,104,-41,-63,92,92,-19,-87,-107,-122
-102,-112,-9,107,-46,-61,92,97,-19,-92,-107,-131
-112,-112,0,112,-56,-56,92,102,-19,-92,-112,-131
-117,-112,4,114,-61,-53,102,102,-24,-97,-126,-126
-122,-112,9,117,-65,-51,107,102,-24,-97,-126,-136
-131,-112,19,122,-75,-46,107,102,-24,-102,-126,-136
-131,-112,19,122,-75,-46,112,102,-24,-107,-141,-141
-141,-112,29,126,-85,-41,112,97,-29,-112,-141,-151
-151,-112,39,131,-95,-36,112,97,-29,-122,-146,-156
-161,-117,43,139,-102,-36,112,97,-39,-126,-161,-165
-165,-117,48,141,-107,-34,112,97,-43,-136,-165,-175
-175,-117,58,146,-117,-29,117,102,-43,-146,-175,-185
-185,-117,68,151,-126,-24,126,102,-53,-156,-185,-195
-195,-117,78,156,-136,-19,126,102,-63,-165,-200,-209
-209,-117,92,163,-151,-12,131,102,-73,-180,-219,-224
-224,-117,107,170,-165,-4,136,97,-92,-200,-239,-244
-244,-122,122,183,-183,0,141,97,-112,-229,-258,-263
-263,-126,136,195,-200,4,151,92,-141,-253,-287,-287
-287,-131,156,209,-222,12,156,87,-170,-287,-317,-317
-312,-136,175,224,-244,19,161,78,-204,-322,-346,-346
-341,-146,195,244,-268,24,165,58,-239,-366,-385,-370
-370,-161,209,265,-290,24,170,48,-283,-405,-419,-409
-400,-170,229,285,-314,29,180,34,-326,-444,-468,-453
-434,-190,244,312,-339,26,190,14,-380,-497,-507,-492
-478,-200,278,339,-378,39,195,-9,-429,-556,-561,-536
-507,-219,287,363,-397,34,195,-24,-492,-610,-614,-575
-546,-239,307,392,-427,34,200,-39,-546,-663,-653,-624
-580,-263,317,422,-448,26,204,-78,-605,-722,-702,-678
-610,-287,322,448,-466,17,209,-102,-663,-780,-766,-722
-639,-307,331,473,-485,12,214,-126,-722,-844,-814,-761
-663,-326,336,495,-500,4,219,-141,-771,-897,-849,-805
-692,-351,341,522,-517,-4,224,-165,-829,-936,-893,-839
-707,-375,331,541,-519,-21,229,-180,-868,-980,-927,-873
-717,-400,317,558,-517,-41,234,-190,-897,-1010,-946,-897
-727,-414,312,570,-519,-51,234,-200,-922,-1024,-961,-907
-717,-424,292,570,-505,-65,234,-200,-927,-1034,-971,-907
-702,-424,278,563,-490,-73,239,-200,-927,-1034,-976,-902
-673,-419,253,546,-463,-82,229,-195,-897,-1005,-941,-878
-649,-409,239,529,-444,-85,229,-180,-863,-966,-907,-849
-610,-400,209,505,-409,-95,219,-165,-819,-922,-863,-819
-556,-380,175,468,-366,-102,209,-156,-775,-873,-814,-780
-517,-361,156,439,-336,-102,190,-131,-722,-810,-751,-722
-458,-331,126,395,-292,-102,180,-112,-649,-732,-683,-658
-400,-307,92,353,-246,-107,170,-78,-585,-663,-619,-600
-346,-283,63,314,-204,-109,146,-53,-512,-595,-546,-536
-297,-253,43,275,-170,-104,126,-34,-448,-522,-483,-468
-248,-224,24,236,-136,-100,117,-14,-370,-439,-405,-400
-200,-200,0,200,-100,-100,102,9,-297,-361,-336,-336
-151,-170,-19,161,-65,-95,82,19,-234,-287,-273,-273
-107,-141,-34,124,-36,-87,63,24,-170,-224,-209,-219
-73,-117,-43,95,-14,-80,48,39,-107,-156,-146,-170
-39,-92,-53,65,7,-73,39,48,-68,-102,-92,-117
-9,-68,-58,39,24,-63,34,53,-24,-53,-43,-73
14,-53,-68,19,41,-61,19,53,9,-14,-9,-43
39,-48,-87,4,63,-68,14,58,34,24,24,-9
53,-39,-92,-7,73,-65,14,63,68,53,53,19
58,-24,-82,-17,70,-53,9,63,92,78,68,48
78,-14,-92,-31,85,-53,0,68,102,92,82,63
92,-4,-97,-43,95,-51,-14,68,112,112,97,82
97,0,-97,-48,97,-48,-14,68,131,131,117,97
102,9,-92,-56,97,-41,-19,68,146,141,126,112
102,9,-92,-56,97,-41,-14,68,146,146,131,117
107,9,-97,-58,102,-43,-14,68,146,151,141,126
107,14,-92,-61,100,-39,-14,63,151,165,146,126
107,14,-92,-61,100,-39,-14,63,156,170,156,126
107,19,-87,-63,97,-34,-14,63,165,170,156,131
107,14,-92,-61,100,-39,-19,58,170,175,156,131
107,14,-92,-61,100,-39,-19,58,170,175,156,131
