I, II, III, aVR, aVL, aVF, V1, V2, V3, V4, V5, V6
-29,-78,-48,53,9,-63,9,-39,-97,-107,-68,-68
-34,-87,-53,61,9,-70,9,-39,-102,-117,-78,-68
-39,-97,-58,68,9,-78,9,-39,-107,-126,-87,-68
-39,-97,-58,68,9,-78,9,-39,-112,-126,-87,-68
-39,-97,-58,68,9,-78,9,-39,-117,-126,-87,-68
-39,-97,-58,68,9,-78,9,-39,-122,-131,-92,-73
-39,-97,-58,68,9,-78,9,-39,-126,-136,-97,-78
-39,-97,-58,68,9,-78,14,-39,-126,-141,-97,-82
-39,-97,-58,68,9,-78,19,-39,-126,-146,-97,-87
-39,-102,-63,70,12,-82,19,-39,-131,-146,-102,-87
-39,-107,-68,73,14,-87,19,-39,-136,-146,-107,-87
-39,-107,-68,73,14,-87,19,-39,-136,-146,-107,-87
-39,-107,-68,73,14,-87,19,-39,-136,-146,-107,-87
-39,-107,-68,73,14,-87,19,-39,-136,-146,-107,-87
-39,-107,-68,73,14,-87,19,-39,-136,-146,-107,-87
-39,-112,-73,75,17,-92,19,-39,-136,-151,-112,-87
-39,-117,-78,78,19,-97,19,-39,-136,-156,-117,-87
-43,-117,-73,80,14,-95,19,-39,-136,-156,-117,-87
-48,-117,-68,82,9,-92,19,-39,-136,-156,-117,-87
-48,-117,-68,82,9,-92,19,-39,-136,-156,-117,-87
-48,-117,-68,82,9,-92,19,-39,-136,-156,-117,-87
-48,-117,-68,82,9,-92,19,-39,-131,-156,-117,-87
-48,-117,-68,82,9,-92,19,-39,-126,-156,-117,-87
-48,-117,-68,82,9,-92,19,-39,-126,-151,-117,-87
-48,-117,-68,82,9,-92,19,-39,-126,-146,-117,-87
-48,-117,-68,82,9,-92,24,-39,-126,-146,-117,-87
-48,-117,-68,82,9,-92,29,-39,-126,-146,-117,-87
-48,-117,-68,82,9,-92,29,-39,-126,-146,-112,-87
-48,-117,-68,82,9,-92,29,-39,-126,-146,-107,-87
-48,-117,-68,82,9,-92,24,-39,-126,-146,-107,-92
-48,-117,-68,82,9,-92,19,-39,-126,-146,-107,-97
-48,-117,-68,82,9,-92,19,-39,-122,-141,-107,-97
-48,-117,-68,82,9,-92,19,-39,-117,-136,-107,-97
-48,-122,-73,85,12,-97,19,-34,-117,-136,-107,-97
-48,-126,-78,87,14,-102,19,-29,-117,-136,-107,-97
-48,-126,-78,87,14,-102,19,-29,-117,-136,-112,-97
-48,-126,-78,87,14,-102,19,-29,-117,-136,-117,-97
-48,-126,-78,87,14,-102,19,-29,-117,-141,-117,-102
-48,-126,-78,87,14,-102,19,-29,-117,-146,-117,-107
-48,-126,-78,87,14,-102,24,-29,-117,-146,-117,-107
-48,-126,-78,87,14,-102,29,-29,-117,-146,-117,-107
-48,-126,-78,87,14,-102,29,-29,-117,-146,-117,-107
-48,-126,-78,87,14,-102,29,-29,-117,-146,-117,-107
-48,-131,-82,90,17,-107,29,-34,-122,-146,-117,-107
-48,-136,-87,92,19,-112,29,-39,-126,-146,-117,-107
-48,-136,-87,92,19,-112,24,-39,-126,-146,-117,-107
-48,-136,-87,92,19,-112,19,-39,-126,-146,-117,-107
-48,-136,-87,92,19,-112,19,-39,-126,-146,-117,-107
-48,-136,-87,92,19,-112,19,-39,-126,-146,-117,-107
-48,-136,-87,92,19,-112,19,-39,-126,-146,-117,-107
-48,-136,-87,92,19,-112,19,-39,-126,-146,-117,-107
-48,-136,-87,92,19,-112,19,-39,-131,-146,-117,-107
-48,-136,-87,92,19,-112,19,-39,-136,-146,-117,-107
-48,-136,-87,92,19,-112,19,-39,-136,-146,-122,-107
-48,-136,-87,92,19,-112,19,-39,-136,-146,-126,-107
-48,-136,-87,92,19,-112,19,-39,-136,-151,-126,-107
-48,-136,-87,92,19,-112,19,-39,-136,-156,-126,-107
-48,-141,-92,95,21,-117,19,-39,-136,-156,-126,-107
-48,-146,-97,97,24,-122,19,-39,-136,-156,-126,-107
-48,-146,-97,97,24,-122,19,-39,-131,-156,-126,-107
-48,-146,-97,97,24,-122,19,-39,-126,-156,-126,-107
-48,-136,-87,92,19,-112,19,-39,-126,-151,-122,-107
-48,-126,-78,87,14,-102,19,-39,-122,-141,-112,-102
-48,-117,-68,82,9,-92,24,-39,-117,-136,-107,-97
-43,-92,-48,68,2,-70,29,-29,-97,-126,-92,-87
-39,-82,-43,61,2,-63,39,-24,-87,-117,-82,-78
-34,-78,-43,56,4,-61,39,-14,-82,-112,-82,-78
-24,-73,-48,48,12,-61,43,-9,-78,-112,-82,-73
-19,-63,-43,41,12,-53,63,0,-68,-107,-73,-73
-19,-53,-34,36,7,-43,63,0,-63,-102,-73,-63
-19,-48,-29,34,4,-39,63,0,-48,-92,-78,-63
-19,-24,-4,21,-7,-14,63,-9,-43,-82,-68,-48
-14,-4,9,9,-12,2,9,-48,-43,-78,-58,-39
0,4,4,-2,-2,4,-39,-68,-43,-68,-39,-24
19,39,19,-29,0,29,-39,-68,-29,-48,-14,-4
19,53,34,-36,-7,43,-34,-58,-19,-43,-14,-4
24,53,29,-39,-2,41,-14,-43,-19,-43,-14,-4
24,34,9,-29,7,21,0,-34,-19,-48,-24,-9
29,14,-14,-21,21,0,0,-34,-39,-58,-39,-19
34,-24,-58,-4,46,-41,-4,-29,-68,-78,-48,-34
39,-73,-112,17,75,-92,-19,-29,-112,-112,-82,-58
14,-102,-117,43,65,-109,-9,-29,-122,-131,-97,-78
-19,-122,-102,70,41,-112,9,-29,-126,-136,-107,-87
-43,-156,-112,100,34,-134,19,-34,-126,-146,-117,-107
-53,-156,-102,104,24,-129,29,-34,-122,-146,-112,-107
-53,-156,-102,104,24,-129,34,-29,-117,-146,-112,-107
-53,-156,-102,104,24,-129,34,-29,-122,-156,-122,-112
-53,-170,-117,112,31,-143,34,-34,-131,-161,-131,-117
-53,-175,-122,114,34,-148,29,-34,-136,-165,-136,-122
-53,-185,-131,119,39,-158,29,-34,-141,-170,-141,-131
-58,-195,-136,126,39,-165,29,-29,-141,-170,-141,-131
-58,-195,-136,126,39,-165,29,-29,-141,-170,-141,-131
-63,-195,-131,129,34,-163,34,-29,-141,-170,-141,-131
-63,-195,-131,129,34,-163,39,-24,-141,-170,-146,-131
-63,-195,-131,129,34,-163,43,-24,-141,-170,-151,-136
-73,-195,-122,134,24,-158,48,-24,-141,-170,-156,-136
-78,-195,-117,136,19,-156,48,-19,-141,-170,-156,-136
-78,-200,-122,139,21,-161,48,-19,-141,-170,-151,-136
-78,-204,-126,141,24,-165,53,-19,-141,-170,-146,-136
-78,-204,-126,141,24,-165,53,-19,-136,-170,-146,-136
-73,-204,-131,139,29,-168,58,-24,-136,-170,-146,-136
-73,-209,-136,141,31,-173,58,-19,-141,-170,-151,-136
-82,-224,-141,153,29,-183,78,-4,-141,-190,-165,-151
-117,-297,-180,207,31,-239,146,39,-141,-248,-234,-214
-165,-366,-200,265,17,-283,244,102,-126,-317,-312,-283
-180,-390,-209,285,14,-300,273,126,-117,-351,-341,-312
-175,-366,-190,270,7,-278,248,131,-78,-326,-322,-297
-87,-248,-161,168,36,-204,146,141,82,-146,-195,-204
97,24,-73,-61,85,-24,-58,151,385,287,141,39
322,331,9,-326,156,170,-317,102,717,883,590,356
497,580,82,-539,207,331,-517,48,1005,1429,976,614
639,780,141,-710,248,461,-644,-43,1127,1912,1322,834
717,1049,331,-883,192,690,-858,-234,1034,2039,1488,1024
649,1210,561,-929,43,885,-1054,-619,439,1507,1317,1058
390,1058,668,-724,-139,863,-1102,-1107,-492,385,780,839
53,580,527,-317,-236,553,-995,-1288,-1376,-732,53,414
4,161,156,-82,-75,158,-736,-868,-1268,-741,-156,151
-4,-58,-53,31,24,-56,-575,-605,-1137,-673,-244,4
-14,-146,-131,80,58,-139,-356,-346,-897,-570,-273,-92
-24,-126,-102,75,39,-114,-175,-180,-634,-439,-214,-78
-34,-87,-53,61,9,-70,-117,-131,-424,-322,-156,-58
-34,-82,-48,58,7,-65,-82,-102,-292,-248,-117,-48
-34,-73,-39,53,2,-56,-29,-63,-204,-190,-87,-48
-39,-73,-34,56,-2,-53,-4,-53,-151,-165,-87,-48
-53,-87,-34,70,-9,-61,14,-48,-136,-165,-92,-68
-53,-97,-43,75,-4,-70,14,-48,-122,-161,-92,-73
-53,-102,-48,78,-2,-75,19,-43,-117,-161,-97,-73
-53,-112,-58,82,2,-85,34,-24,-112,-161,-112,-87
-53,-117,-63,85,4,-90,43,-9,-102,-156,-117,-97
-53,-117,-63,85,4,-90,48,-9,-87,-146,-117,-97
-53,-117,-63,85,4,-90,48,-4,-78,-141,-112,-97
-53,-117,-63,85,4,-90,53,0,-73,-136,-107,-97
-53,-117,-63,85,4,-90,58,4,-63,-136,-107,-97
-53,-122,-68,87,7,-95,58,4,-53,-131,-102,-97
-53,-122,-68,87,7,-95,58,9,-48,-122,-97,-92
-53,-122,-68,87,7,-95,58,14,-39,-117,-92,-87
-53,-122,-68,87,7,-95,58,14,-34,-112,-92,-87
-48,-117,-68,82,9,-92,63,24,-29,-107,-87,-82
-48,-112,-63,80,7,-87,63,29,-19,-102,-82,-82
-48,-107,-58,78,4,-82,63,34,-9,-97,-82,-82
-43,-107,-63,75,9,-85,63,34,-4,-92,-78,-82
-43,-102,-58,73,7,-80,63,34,-4,-87,-78,-78
-39,-102,-63,70,12,-82,63,34,4,-87,-73,-78
-39,-102,-63,70,12,-82,63,34,19,-78,-68,-73
-39,-97,-58,68,9,-78,68,39,29,-73,-68,-73
-39,-92,-53,65,7,-73,68,43,34,-68,-63,-68
-34,-92,-58,63,12,-75,68,43,39,-68,-58,-68
-34,-82,-48,58,7,-65,63,48,48,-58,-58,-63
-34,-82,-48,58,7,-65,63,48,58,-48,-53,-63
-34,-78,-43,56,4,-61,68,53,63,-48,-39,-58
-24,-68,-43,46,9,-56,68,63,73,-48,-34,-53
-24,-63,-39,43,7,-51,68,73,82,-39,-29,-43
-24,-53,-29,39,2,-41,68,73,92,-29,-24,-39
-19,-43,-24,31,2,-34,68,73,102,-19,-14,-34
-9,-34,-24,21,7,-29,63,78,122,-9,-4,-29
-4,-19,-14,12,4,-17,63,87,141,4,4,-19
9,-4,-14,-2,12,-9,63,102,146,14,14,-9
14,9,-4,-12,9,2,63,112,165,29,29,0
14,24,9,-19,2,17,63,117,185,48,43,9
19,48,29,-34,-4,39,63,122,204,63,53,24
19,68,48,-43,-14,58,63,131,224,87,78,39
29,92,63,-61,-17,78,63,141,248,107,97,53
34,112,78,-73,-21,95,58,151,273,126,117,73
43,136,92,-90,-24,114,53,156,292,156,136,97
53,170,117,-112,-31,143,48,165,322,180,156,126
58,195,136,-126,-39,165,48,175,356,209,185,146
78,239,161,-158,-41,200,43,190,385,239,214,170
87,263,175,-175,-43,219,29,195,405,268,244,195
102,302,200,-202,-48,251,19,200,429,302,273,219
117,341,224,-229,-53,283,9,204,458,336,307,248
136,385,248,-261,-56,317,0,204,483,366,341,278
146,419,273,-283,-63,346,0,209,517,405,375,312
161,453,292,-307,-65,373,-9,214,531,439,409,341
175,497,322,-336,-73,409,-19,209,551,468,439,370
185,531,346,-358,-80,439,-34,204,566,502,468,395
195,556,361,-375,-82,458,-48,195,575,527,492,414
200,580,380,-390,-90,480,-63,190,580,546,517,439
209,600,390,-405,-90,495,-73,175,585,561,536,448
214,614,400,-414,-92,507,-82,161,590,570,546,458
224,624,400,-424,-87,512,-92,146,575,575,551,468
224,614,390,-419,-82,502,-102,122,551,561,541,463
214,585,370,-400,-78,478,-107,112,507,536,517,444
204,541,336,-373,-65,439,-102,97,473,502,483,414
185,497,312,-341,-63,405,-92,78,429,448,439,380
165,444,278,-305,-56,361,-82,63,380,390,390,341
146,380,234,-263,-43,307,-78,48,326,341,341,297
122,322,200,-222,-39,261,-68,39,278,287,297,253
107,268,161,-187,-26,214,-58,29,229,229,244,209
92,219,126,-156,-17,173,-53,19,180,180,195,175
78,170,92,-124,-7,131,-43,4,131,141,151,136
58,122,63,-90,-2,92,-34,-4,97,97,117,102
34,73,39,-53,-2,56,-24,-14,58,43,78,68
19,39,19,-29,0,29,-19,-24,34,9,48,39
9,9,0,-9,4,4,-14,-24,0,-14,24,14
0,-14,-14,7,7,-14,-4,-24,-24,-39,4,-4
-4,-39,-34,21,14,-36,-4,-29,-43,-58,-19,-19
-9,-53,-43,31,17,-48,-4,-34,-58,-87,-39,-29
-19,-68,-48,43,14,-58,-4,-34,-78,-97,-43,-39
-24,-82,-58,53,17,-70,0,-39,-92,-107,-58,-53
-29,-97,-68,63,19,-82,0,-39,-97,-117,-73,-63
-29,-107,-78,68,24,-92,0,-39,-102,-126,-78,-73
-29,-112,-82,70,26,-97,0,-39,-117,-136,-87,-73
-29,-112,-82,70,26,-97,4,-39,-122,-136,-92,-78
-34,-107,-73,70,19,-90,4,-39,-122,-141,-92,-78
-29,-112,-82,70,26,-97,4,-43,-122,-151,-97,-78
-29,-117,-87,73,29,-102,9,-43,-126,-156,-102,-78
-29,-122,-92,75,31,-107,9,-39,-131,-156,-107,-82
-29,-122,-92,75,31,-107,9,-39,-131,-161,-107,-87
-29,-122,-92,75,31,-107,9,-39,-131,-165,-107,-87
-34,-126,-92,80,29,-109,14,-39,-131,-161,-107,-87
-39,-131,-92,85,26,-112,19,-39,-131,-156,-107,-87
-43,-131,-87,87,21,-109,19,-39,-131,-161,-107,-87
-48,-131,-82,90,17,-107,19,-39,-136,-161,-107,-87
-53,-136,-82,95,14,-109,19,-39,-136,-156,-112,-87
-53,-136,-82,95,14,-109,19,-39,-136,-156,-112,-87
-48,-131,-82,90,17,-107,19,-39,-136,-161,-112,-92
-48,-126,-78,87,14,-102,19,-39,-136,-161,-112,-92
-43,-126,-82,85,19,-104,19,-39,-136,-161,-117,-92
-43,-126,-82,85,19,-104,19,-39,-136,-161,-117,-92
-43,-126,-82,85,19,-104,19,-39,-136,-161,-117,-92
-43,-126,-82,85,19,-104,19,-39,-136,-156,-117,-92
-43,-126,-82,85,19,-104,19,-34,-136,-156,-117,-92
-43,-126,-82,85,19,-104,19,-34,-131,-156,-117,-92
-43,-131,-87,87,21,-109,24,-34,-131,-151,-112,-92
-43,-141,-97,92,26,-119,24,-34,-126,-151,-112,-92
-39,-141,-102,90,31,-122,24,-29,-126,-151,-112,-92
-39,-141,-102,90,31,-122,24,-24,-126,-151,-112,-92
-43,-141,-97,92,26,-119,24,-24,-126,-151,-112,-97
-48,-141,-92,95,21,-117,24,-24,-126,-151,-112,-97
-48,-136,-87,92,19,-112,24,-24,-122,-151,-112,-97
-48,-136,-87,92,19,-112,24,-24,-122,-151,-117,-97
-43,-136,-92,90,24,-114,24,-24,-122,-151,-117,-97
-39,-141,-102,90,31,-122,24,-24,-122,-151,-117,-97
-39,-141,-102,90,31,-122,24,-24,-122,-146,-117,-102
-39,-141,-102,90,31,-122,24,-19,-122,-146,-117,-102
-39,-141,-102,90,31,-122,24,-19,-122,-146,-117,-102
-39,-146,-107,92,34,-126,24,-19,-122,-141,-117,-102
-39,-151,-112,95,36,-131,29,-24,-122,-141,-122,-102
-39,-151,-112,95,36,-131,34,-24,-122,-141,-122,-102
-39,-146,-107,92,34,-126,34,-24,-126,-136,-122,-102
-39,-146,-107,92,34,-126,34,-24,-126,-136,-122,-107
-39,-146,-107,92,34,-126,29,-24,-126,-141,-126,-107
-39,-146,-107,92,34,-126,24,-24,-126,-141,-126,-107
-39,-146,-107,92,34,-126,24,-24,-126,-146,-126,-107
-39,-146,-107,92,34,-126,24,-24,-126,-146,-126,-107
-39,-141,-102,90,31,-122,24,-29,-122,-146,-126,-107
-39,-141,-102,90,31,-122,24,-29,-117,-146,-126,-107
-39,-141,-102,90,31,-122,24,-24,-122,-146,-122,-107
-39,-141,-102,90,31,-122,24,-24,-122,-146,-122,-107
-43,-146,-102,95,29,-124,24,-24,-122,-146,-126,-107
-48,-151,-102,100,26,-126,24,-24,-122,-146,-126,-112
-48,-151,-102,100,26,-126,19,-19,-117,-141,-126,-112
-48,-156,-107,102,29,-131,19,-19,-112,-141,-131,-112
-48,-151,-102,100,26,-126,24,-24,-117,-141,-126,-107
-48,-146,-97,97,24,-122,29,-29,-126,-146,-126,-107
-48,-141,-92,95,21,-117,29,-29,-126,-146,-126,-107
-48,-136,-87,92,19,-112,29,-29,-126,-146,-126,-107
-48,-131,-82,90,17,-107,29,-24,-117,-141,-122,-107
-43,-117,-73,80,14,-95,34,-14,-102,-131,-112,-102
-43,-102,-58,73,7,-80,39,-9,-87,-126,-107,-97
-39,-92,-53,65,7,-73,48,-9,-78,-117,-102,-87
-34,-87,-53,61,9,-70,53,-4,-78,-107,-102,-87
-24,-82,-58,53,17,-70,58,0,-78,-102,-102,-82
-19,-78,-58,48,19,-68,73,14,-68,-97,-92,-82
-19,-73,-53,46,17,-63,73,19,-63,-92,-87,-73
-24,-68,-43,46,9,-56,78,19,-48,-87,-92,-78
-29,-43,-14,36,-7,-29,82,9,-43,-82,-87,-68
-24,-24,0,24,-12,-12,29,-34,-39,-78,-78,-58
-9,-9,0,9,-4,-4,-19,-58,-34,-68,-63,-43
14,39,24,-26,-4,31,-24,-58,-19,-48,-39,-19
19,63,43,-41,-12,53,-24,-48,-9,-43,-34,-14
24,68,43,-46,-9,56,-4,-34,-4,-39,-29,-14
24,53,29,-39,-2,41,9,-24,0,-39,-29,-19
29,34,4,-31,12,19,9,-24,-19,-48,-39,-29
29,-4,-34,-12,31,-19,4,-19,-48,-68,-48,-43
29,-63,-92,17,61,-78,-9,-19,-97,-102,-82,-68
4,-102,-107,48,56,-104,0,-19,-112,-122,-97,-87
-29,-122,-92,75,31,-107,19,-19,-117,-126,-107,-97
-48,-156,-107,102,29,-131,29,-24,-117,-136,-122,-117
-53,-156,-102,104,24,-129,39,-24,-112,-136,-122,-117
-53,-156,-102,104,24,-129,43,-19,-112,-136,-122,-117
-53,-151,-97,102,21,-124,43,-19,-122,-146,-131,-122
-53,-161,-107,107,26,-134,43,-24,-131,-151,-141,-126
-53,-165,-112,109,29,-139,39,-24,-136,-156,-156,-131
-53,-175,-122,114,34,-148,39,-24,-141,-161,-170,-141
-63,-185,-122,124,29,-153,34,-24,-146,-165,-170,-151
-68,-185,-117,126,24,-151,29,-29,-151,-170,-170,-161
-73,-190,-117,131,21,-153,34,-29,-151,-170,-170,-161
-73,-195,-122,134,24,-158,39,-24,-151,-170,-170,-161
-73,-200,-126,136,26,-163,48,-19,-146,-170,-165,-161
-78,-204,-126,141,24,-165,58,-14,-141,-170,-165,-156
-78,-204,-126,141,24,-165,58,-9,-141,-170,-165,-156
-78,-209,-131,143,26,-170,58,-9,-141,-170,-165,-156
-78,-204,-126,141,24,-165,63,-9,-141,-165,-165,-156
-82,-195,-112,139,14,-153,63,-4,-136,-161,-165,-156
-78,-190,-112,134,17,-151,68,-9,-136,-161,-161,-146
-73,-190,-117,131,21,-153,68,-9,-136,-161,-161,-141
-68,-185,-117,126,24,-151,68,4,-131,-156,-156,-146
-82,-239,-156,161,36,-197,117,48,-131,-190,-204,-195
-141,-336,-195,239,26,-265,248,131,-117,-278,-302,-287
-165,-380,-214,273,24,-297,307,170,-87,-307,-336,-326
-200,-405,-204,302,2,-305,317,161,-92,-366,-385,-356
-156,-326,-170,241,7,-248,244,151,14,-258,-312,-302
29,-34,-63,2,46,-48,29,151,287,156,24,-48
244,273,29,-258,107,151,-219,102,566,712,453,258
439,522,82,-480,178,302,-414,87,956,1405,932,551
585,717,131,-651,226,424,-546,14,1137,1932,1317,790
707,1093,385,-900,161,739,-790,-156,1190,2254,1600,1063
697,1307,610,-1002,43,958,-985,-458,780,1937,1527,1151
380,1185,805,-783,-212,995,-1063,-1068,-326,531,858,902
19,824,805,-422,-392,814,-1015,-1400,-1298,-727,102,502
-29,346,375,-158,-202,361,-766,-951,-1234,-746,-146,185
-58,39,97,9,-78,68,-619,-692,-1215,-756,-302,-14
-53,-117,-63,85,4,-90,-385,-409,-1005,-658,-346,-131
-48,-165,-117,107,34,-141,-200,-204,-780,-536,-312,-146
-53,-126,-73,90,9,-100,-136,-141,-546,-405,-239,-126
-53,-122,-68,87,7,-95,-82,-92,-380,-312,-185,-112
-48,-92,-43,70,-2,-68,-19,-43,-258,-219,-141,-92
-48,-73,-24,61,-12,-48,9,-24,-170,-165,-126,-78
-63,-82,-19,73,-21,-51,24,-19,-151,-161,-126,-97
-63,-87,-24,75,-19,-56,24,-19,-131,-151,-122,-102
-63,-92,-29,78,-17,-61,29,-14,-126,-151,-126,-102
-63,-102,-39,82,-12,-70,43,0,-122,-151,-136,-112
-63,-107,-43,85,-9,-75,53,9,-112,-146,-136,-117
-63,-107,-43,85,-9,-75,58,9,-97,-136,-136,-117
-63,-107,-43,85,-9,-75,58,14,-87,-131,-136,-117
-63,-107,-43,85,-9,-75,63,19,-82,-126,-136,-117
-63,-107,-43,85,-9,-75,68,24,-73,-126,-136,-117
-63,-107,-43,85,-9,-75,68,24,-63,-122,-131,-117
-58,-102,-43,80,-7,-73,68,24,-58,-112,-126,-112
-53,-102,-48,78,-2,-75,68,24,-48,-107,-122,-107
-53,-102,-48,78,-2,-75,63,24,-43,-107,-122,-112
-48,-97,-48,73,0,-73,63,29,-39,-107,-117,-112
-53,-92,-39,73,-7,-65,63,29,-29,-102,-112,-112
-58,-87,-29,73,-14,-58,63,34,-19,-97,-112,-112
-53,-87,-34,70,-9,-61,63,34,-14,-87,-107,-107
-53,-82,-29,68,-12,-56,63,39,-14,-78,-107,-97
-48,-82,-34,65,-7,-58,63,48,-4,-73,-97,-97
-48,-82,-34,65,-7,-58,63,53,4,-58,-87,-92
-48,-78,-29,63,-9,-53,68,58,9,-53,-87,-92
-48,-73,-24,61,-12,-48,68,63,14,-48,-82,-87
-39,-73,-34,56,-2,-53,68,58,19,-53,-82,-87
-34,-63,-29,48,-2,-46,63,58,29,-48,-87,-82
-34,-63,-29,48,-2,-46,63,58,34,-39,-82,-82
-34,-58,-24,46,-4,-41,68,63,39,-34,-68,-78
-24,-48,-24,36,0,-36,68,73,53,-29,-63,-73
-24,-43,-19,34,-2,-31,68,82,63,-19,-58,-63
-29,-39,-9,34,-9,-24,68,82,68,-9,-53,-58
-29,-34,-4,31,-12,-19,68,82,73,0,-43,-53
-19,-29,-9,24,-4,-19,63,87,92,14,-34,-48
-19,-24,-4,21,-7,-14,63,92,112,34,-24,-39
-9,-14,-4,12,-2,-9,58,102,117,43,-14,-29
-4,0,4,2,-4,2,53,112,136,58,0,-19
-4,14,19,-4,-12,17,53,112,151,73,9,-14
4,39,34,-21,-14,36,53,112,165,82,14,-4
9,58,48,-34,-19,53,48,117,185,107,39,9
19,82,63,-51,-21,73,43,122,209,126,58,24
24,97,73,-61,-24,85,34,131,234,146,78,43
34,122,87,-78,-26,104,24,136,253,175,102,68
43,156,112,-100,-34,134,19,151,278,200,131,97
48,175,126,-112,-39,151,19,161,307,234,165,117
68,219,151,-143,-41,185,14,170,336,268,195,141
78,248,170,-163,-46,209,0,175,356,297,229,170
92,292,200,-192,-53,246,-9,175,380,331,263,200
102,331,229,-217,-63,280,-19,175,409,370,297,229
117,380,263,-248,-73,322,-34,175,434,409,331,258
126,419,292,-273,-82,356,-43,175,468,453,366,292
141,453,312,-297,-85,383,-58,180,488,488,400,322
156,492,336,-324,-90,414,-68,180,512,517,429,351
165,522,356,-344,-95,439,-82,175,527,551,458,380
175,546,370,-361,-97,458,-97,165,536,575,483,405
180,575,395,-378,-107,485,-112,161,541,600,507,429
190,595,405,-392,-107,500,-122,146,541,614,522,439
200,619,419,-409,-109,519,-131,126,546,624,531,448
204,634,429,-419,-112,531,-136,112,536,629,536,448
195,619,424,-407,-114,522,-141,92,517,614,536,448
185,590,405,-387,-109,497,-141,82,478,590,522,439
175,546,370,-361,-97,458,-126,78,458,561,488,405
156,507,351,-331,-97,429,-112,73,429,517,448,370
136,453,317,-295,-90,385,-97,63,380,458,400,331
117,390,273,-253,-78,331,-87,48,326,405,346,283
92,331,239,-212,-73,285,-78,39,278,341,292,229
78,278,200,-178,-61,239,-63,29,229,278,234,180
63,229,165,-146,-51,197,-48,19,180,229,185,146
48,180,131,-114,-41,156,-34,9,131,185,141,107
29,131,102,-80,-36,117,-24,4,97,136,97,73
9,87,78,-48,-34,82,-14,-4,58,78,48,39
0,58,58,-29,-29,58,-4,-14,29,34,14,4
-9,29,39,-9,-24,34,4,-14,-9,4,-14,-19
-24,4,29,9,-26,17,14,-14,-34,-19,-34,-39
-34,-19,14,26,-24,-2,14,-19,-53,-34,-53,-58
-39,-39,0,39,-19,-19,14,-24,-73,-63,-78,-68
-43,-53,-9,48,-17,-31,14,-24,-92,-78,-92,-78
-43,-68,-24,56,-9,-46,19,-29,-102,-87,-107,-92
-48,-82,-34,65,-7,-58,19,-29,-107,-97,-117,-97
-48,-87,-39,68,-4,-63,24,-29,-112,-107,-117,-102
-48,-92,-43,70,-2,-68,29,-29,-126,-117,-126,-102
-48,-97,-48,73,0,-73,34,-19,-131,-117,-126,-112
-58,-102,-43,80,-7,-73,34,-9,-131,-117,-122,-117
-63,-112,-48,87,-7,-80,34,-14,-131,-122,-126,-117
-68,-117,-48,92,-9,-82,39,-14,-136,-126,-131,-117
-68,-122,-53,95,-7,-87,39,-14,-141,-131,-141,-122
-68,-122,-53,95,-7,-87,39,-19,-141,-141,-146,-126
-68,-122,-53,95,-7,-87,39,-19,-141,-146,-146,-131
-68,-122,-53,95,-7,-87,39,-19,-141,-146,-146,-136
-68,-117,-48,92,-9,-82,39,-19,-141,-146,-146,-136
-68,-112,-43,90,-12,-78,39,-19,-141,-151,-146,-136
-63,-112,-48,87,-7,-80,39,-14,-146,-146,-146,-131
-63,-117,-53,90,-4,-85,39,-9,-146,-136,-151,-126
-63,-122,-58,92,-2,-90,39,-9,-146,-136,-151,-126
-58,-126,-68,92,4,-97,39,-9,-146,-141,-151,-131
-63,-126,-63,95,0,-95,39,-14,-146,-141,-151,-136
-68,-126,-58,97,-4,-92,39,-19,-146,-141,-156,-141
-73,-117,-43,95,-14,-80,39,-19,-146,-146,-156,-141
-73,-107,-34,90,-19,-70,39,-19,-146,-151,-156,-141
-68,-107,-39,87,-14,-73,39,-24,-141,-146,-156,-141
-63,-107,-43,85,-9,-75,39,-24,-136,-146,-156,-141
-63,-112,-48,87,-7,-80,39,-24,-131,-141,-151,-136
-63,-117,-53,90,-4,-85,43,-24,-131,-131,-141,-131
-63,-122,-58,92,-2,-90,43,-19,-126,-131,-141,-131
-58,-122,-63,90,2,-92,43,-14,-126,-131,-141,-131
-58,-122,-63,90,2,-92,43,-14,-126,-131,-141,-131
-58,-122,-63,90,2,-92,43,-14,-126,-131,-141,-136
-58,-122,-63,90,2,-92,43,-14,-126,-131,-146,-141
-58,-117,-58,87,0,-87,43,-14,-122,-131,-151,-146
-58,-117,-58,87,0,-87,43,-14,-126,-131,-156,-146
-58,-117,-58,87,0,-87,43,-14,-131,-131,-156,-146
-58,-122,-63,90,2,-92,43,-14,-131,-131,-151,-136
-58,-122,-63,90,2,-92,43,-14,-131,-126,-146,-131
-58,-122,-63,90,2,-92,39,-9,-131,-126,-146,-131
-58,-122,-63,90,2,-92,34,-9,-131,-131,-146,-131
-58,-126,-68,92,4,-97,34,-9,-131,-131,-151,-136
-58,-131,-73,95,7,-102,34,-14,-131,-131,-161,-141
-58,-131,-73,95,7,-102,34,-14,-131,-136,-161,-141
-58,-126,-68,92,4,-97,34,-14,-136,-136,-161,-141
-58,-126,-68,92,4,-97,34,-14,-131,-136,-161,-146
-58,-126,-68,92,4,-97,34,-14,-126,-141,-165,-146
-63,-126,-63,95,0,-95,39,-14,-126,-136,-165,-146
-68,-126,-58,97,-4,-92,43,-14,-126,-136,-165,-146
-68,-126,-58,97,-4,-92,43,-14,-126,-136,-165,-146
-68,-126,-58,97,-4,-92,43,-19,-126,-136,-165,-146
-68,-131,-63,100,-2,-97,43,-19,-126,-136,-165,-146
-68,-131,-63,100,-2,-97,43,-14,-131,-136,-161,-146
-68,-131,-63,100,-2,-97,43,-14,-131,-136,-161,-146
-68,-131,-63,100,-2,-97,43,-14,-131,-136,-165,-146
-68,-126,-58,97,-4,-92,39,-9,-131,-136,-170,-151
-68,-126,-58,97,-4,-92,39,-9,-136,-136,-175,-156
-68,-131,-63,100,-2,-97,39,-9,-136,-136,-175,-156
-68,-136,-68,102,0,-102,39,-9,-136,-136,-175,-156
-68,-136,-68,102,0,-102,39,-9,-136,-136,-175,-156
-68,-126,-58,97,-4,-92,39,-9,-131,-131,-170,-151
-68,-117,-48,92,-9,-82,43,-9,-126,-131,-165,-146
-63,-82,-19,73,-21,-51,48,0,-107,-126,-151,-136
-58,-73,-14,65,-21,-43,58,0,-97,-117,-141,-126
-53,-68,-14,61,-19,-41,58,4,-92,-112,-141,-126
-43,-63,-19,53,-12,-41,58,9,-87,-107,-136,-122
-39,-53,-14,46,-12,-34,73,19,-78,-97,-122,-122
-43,-48,-4,46,-19,-26,73,19,-73,-92,-117,-112
-48,-48,0,48,-24,-24,73,19,-58,-82,-117,-112
-48,-24,24,36,-36,0,82,9,-48,-73,-107,-97
-43,-4,39,24,-41,17,39,-29,-43,-68,-97,-87
-29,14,43,7,-36,29,-19,-48,-43,-58,-82,-73
-9,58,68,-24,-39,63,-29,-48,-29,-39,-63,-53
-9,78,87,-34,-48,82,-24,-39,-19,-34,-63,-48
-4,82,87,-39,-46,85,-4,-24,-19,-34,-63,-43
-4,68,73,-31,-39,70,9,-14,-14,-39,-63,-48
0,53,53,-26,-26,53,9,-14,-29,-48,-68,-58
0,14,14,-7,-7,14,4,-9,-58,-63,-78,-73
0,-34,-34,17,17,-34,-9,-9,-102,-92,-112,-97
-24,-73,-48,48,12,-61,0,-9,-117,-112,-131,-117
-58,-102,-43,80,-7,-73,19,-9,-126,-117,-146,-126
-78,-136,-58,107,-9,-97,29,-14,-126,-126,-161,-146
-82,-136,-53,109,-14,-95,39,-14,-122,-126,-161,-146
-78,-136,-58,107,-9,-97,43,-9,-117,-126,-161,-146
-73,-136,-63,104,-4,-100,43,-9,-122,-136,-170,-151
-73,-146,-73,109,0,-109,43,-14,-131,-141,-180,-156
-73,-146,-73,109,0,-109,39,-14,-136,-146,-185,-161
-73,-156,-82,114,4,-119,39,-14,-146,-151,-190,-170
-78,-165,-87,122,4,-126,39,-9,-151,-151,-190,-170
-78,-170,-92,124,7,-131,39,-9,-151,-151,-190,-170
-82,-175,-92,129,4,-134,43,-9,-151,-151,-190,-170
-82,-175,-92,129,4,-134,48,-4,-151,-156,-185,-170
-82,-175,-92,129,4,-134,53,-4,-151,-161,-180,-175
-92,-175,-82,134,-4,-129,58,-9,-151,-161,-185,-175
-97,-175,-78,136,-9,-126,58,-9,-151,-161,-185,-175
-97,-180,-82,139,-7,-131,58,-14,-151,-161,-185,-175
-97,-185,-87,141,-4,-136,63,-19,-151,-161,-185,-175
-97,-185,-87,141,-4,-136,58,-14,-146,-156,-185,-175
-92,-185,-92,139,0,-139,58,-14,-146,-151,-185,-175
-87,-185,-97,136,4,-141,53,-9,-146,-141,-185,-175
-92,-195,-102,143,4,-148,68,4,-141,-151,-195,-190
-122,-268,-146,195,12,-207,136,48,-141,-219,-263,-253
-165,-336,-170,251,2,-253,234,112,-126,-297,-341,-322
-195,-385,-190,290,-2,-287,287,131,-126,-356,-400,-366
-204,-385,-180,295,-12,-283,287,131,-97,-356,-409,-366
-151,-278,-126,214,-12,-202,204,131,39,-214,-302,-283
0,-14,-14,7,7,-14,19,131,317,180,14,-48
214,322,107,-268,53,214,-239,87,692,873,536,302
380,600,219,-490,80,409,-439,39,1024,1517,995,595
522,819,297,-671,112,558,-566,-29,1234,2137,1420,849
600,1107,507,-854,46,807,-780,-195,1229,2400,1664,1073
575,1312,736,-944,-80,1024,-976,-527,624,1849,1473,1127
361,1205,844,-783,-241,1024,-1024,-961,-317,707,917,927
-14,712,727,-348,-370,719,-941,-1229,-1337,-629,78,444
-102,278,380,-87,-241,329,-707,-897,-1366,-858,-244,122
-87,-14,73,51,-80,29,-566,-634,-1249,-771,-341,-48
-73,-175,-102,124,14,-139,-366,-375,-1024,-649,-380,-170
-78,-156,-78,117,0,-117,-175,-185,-741,-502,-312,-156
-82,-117,-34,100,-24,-75,-107,-112,-512,-370,-244,-136
-73,-97,-24,85,-24,-61,-68,-82,-361,-278,-195,-117
-63,-73,-9,68,-26,-41,-9,-43,-253,-200,-156,-107
-68,-73,-4,70,-31,-39,9,-34,-180,-170,-151,-102
-82,-87,-4,85,-39,-46,24,-29,-146,-165,-151,-117
-82,-97,-14,90,-34,-56,19,-29,-131,-156,-146,-122
-82,-102,-19,92,-31,-61,19,-24,-126,-151,-146,-122
-82,-112,-29,97,-26,-70,34,-9,-122,-151,-156,-126
-82,-117,-34,100,-24,-75,43,0,-112,-146,-156,-126
-82,-117,-34,100,-24,-75,53,0,-97,-136,-156,-126
-82,-117,-34,100,-24,-75,58,4,-87,-131,-151,-126
-82,-117,-34,100,-24,-75,63,14,-82,-126,-146,-126
-82,-117,-34,100,-24,-75,68,24,-73,-126,-146,-126
-82,-122,-39,102,-21,-80,68,24,-63,-122,-141,-126
-82,-122,-39,102,-21,-80,68,29,-58,-112,-136,-122
-82,-122,-39,102,-21,-80,68,34,-48,-107,-131,-117
-82,-122,-39,102,-21,-80,68,34,-43,-102,-131,-117
-78,-117,-39,97,-19,-78,73,39,-39,-92,-126,-112
-78,-112,-34,95,-21,-73,73,39,-29,-82,-122,-112
-78,-107,-29,92,-24,-68,73,43,-14,-78,-122,-112
-73,-107,-34,90,-19,-70,73,43,-4,-73,-117,-112
-73,-102,-29,87,-21,-65,73,48,-4,-68,-117,-107
-68,-102,-34,85,-17,-68,73,53,4,-68,-112,-107
-68,-112,-43,90,-12,-78,73,53,14,-63,-107,-102
-68,-117,-48,92,-9,-82,78,58,19,-63,-107,-102
-68,-102,-34,85,-17,-68,78,63,24,-58,-102,-97
-63,-92,-29,78,-17,-61,78,63,29,-58,-97,-97
-63,-82,-19,73,-21,-51,73,68,34,-48,-97,-92
-63,-82,-19,73,-21,-51,73,68,39,-39,-92,-92
-63,-78,-14,70,-24,-46,78,68,48,-34,-78,-87
-53,-68,-14,61,-19,-41,78,73,63,-29,-73,-82
-48,-73,-24,61,-12,-48,78,82,73,-19,-68,-73
-43,-73,-29,58,-7,-51,78,82,82,-9,-63,-68
-39,-63,-24,51,-7,-43,78,82,92,0,-53,-63
-29,-53,-24,41,-2,-39,73,87,112,9,-43,-58
-34,-43,-9,39,-12,-26,73,92,131,24,-34,-48
-29,-34,-4,31,-12,-19,73,102,136,34,-24,-39
-24,-19,4,21,-14,-7,73,112,156,48,-9,-29
-24,-4,19,14,-21,7,73,117,175,68,4,-19
-14,19,34,-2,-24,26,73,122,195,73,14,-4
-9,39,48,-14,-29,43,73,131,214,87,39,9
0,63,63,-31,-31,63,73,141,239,117,58,24
4,82,78,-43,-36,80,68,151,263,146,78,43
14,107,92,-61,-39,100,63,156,283,175,102,68
24,141,117,-82,-46,129,58,165,312,200,126,97
29,165,136,-97,-53,151,58,165,346,234,151,117
48,209,161,-129,-56,185,53,170,375,268,175,141
58,239,180,-148,-61,209,39,175,395,292,209,170
73,283,209,-178,-68,246,29,180,419,322,244,200
82,322,239,-202,-78,280,19,185,448,361,278,229
97,366,268,-231,-85,317,9,185,473,395,312,258
107,400,292,-253,-92,346,4,185,507,434,351,292
122,434,312,-278,-95,373,-9,185,522,468,390,322
136,473,336,-305,-100,405,-14,180,541,497,419,351
146,502,356,-324,-104,429,-24,175,556,531,448,375
156,536,380,-346,-112,458,-39,165,566,561,478,400
161,570,409,-366,-124,490,-53,161,570,585,507,429
170,585,414,-378,-122,500,-63,151,575,600,527,444
175,595,419,-385,-122,507,-73,141,580,610,536,458
180,610,429,-395,-124,519,-82,131,570,619,541,468
175,605,429,-390,-126,517,-92,112,551,610,531,463
165,575,409,-370,-122,492,-92,102,512,580,507,439
156,531,375,-344,-109,453,-82,87,483,541,473,405
141,488,346,-314,-102,417,-73,73,439,488,429,370
126,434,307,-280,-90,370,-63,63,390,429,380,331
107,366,258,-236,-75,312,-58,53,336,375,326,283
82,302,219,-192,-68,261,-48,48,287,317,278,234
68,248,180,-158,-56,214,-34,39,239,258,224,190
53,200,146,-126,-46,173,-24,29,190,209,175,156
39,151,112,-95,-36,131,-14,24,136,165,126,117
19,102,82,-61,-31,92,-4,24,97,117,87,82
0,58,58,-29,-29,58,4,14,58,58,48,48
-9,29,39,-9,-24,34,9,4,34,19,19,19
-19,0,19,9,-19,9,14,0,0,-4,-9,-4
-29,-24,4,26,-17,-9,24,-4,-24,-29,-34,-24
-34,-53,-19,43,-7,-36,24,-9,-43,-43,-53,-39
-39,-73,-34,56,-2,-53,24,-14,-58,-68,-68,-48
-48,-87,-39,68,-4,-63,24,-14,-73,-82,-73,-63
-53,-102,-48,78,-2,-75,29,-19,-82,-97,-87,-82
-58,-117,-58,87,0,-87,29,-19,-87,-107,-102,-87
-58,-126,-68,92,4,-97,29,-19,-92,-117,-107,-92
-53,-131,-78,92,12,-104,29,-14,-107,-126,-117,-92
-48,-131,-82,90,17,-107,34,-9,-112,-126,-122,-97
-58,-126,-68,92,4,-97,34,-9,-112,-122,-117,-97
-58,-131,-73,95,7,-102,34,-14,-112,-122,-117,-97
-58,-136,-78,97,9,-107,39,-14,-117,-126,-122,-97
-58,-141,-82,100,12,-112,39,-9,-122,-126,-126,-102
-58,-151,-92,104,17,-122,39,-9,-126,-131,-126,-102
-58,-161,-102,109,21,-131,39,-9,-131,-136,-126,-97
-58,-161,-102,109,21,-131,39,-14,-131,-136,-131,-97
-58,-161,-102,109,21,-131,39,-19,-131,-136,-136,-97
-58,-156,-97,107,19,-126,39,-19,-131,-141,-136,-102
-58,-151,-92,104,17,-122,39,-19,-136,-141,-136,-107
-63,-151,-87,107,12,-119,39,-19,-136,-141,-136,-107
-63,-146,-82,104,9,-114,39,-19,-136,-146,-131,-107
-58,-146,-87,102,14,-117,39,-19,-136,-151,-131,-107
-58,-146,-87,102,14,-117,39,-19,-136,-151,-131,-102
-58,-146,-87,102,14,-117,39,-19,-131,-151,-136,-102
-63,-146,-82,104,9,-114,39,-19,-126,-151,-136,-102
-63,-146,-82,104,9,-114,39,-19,-126,-151,-136,-102
-63,-146,-82,104,9,-114,39,-19,-126,-146,-136,-102
-63,-146,-82,104,9,-114,39,-14,-131,-146,-136,-102
-63,-146,-82,104,9,-114,39,-14,-131,-146,-136,-102
-63,-146,-82,104,9,-114,43,-14,-131,-141,-131,-102
-63,-151,-87,107,12,-119,43,-14,-126,-141,-131,-102
-63,-151,-87,107,12,-119,43,-9,-122,-141,-131,-102
-68,-151,-82,109,7,-117,43,-4,-117,-141,-131,-102
-68,-151,-82,109,7,-117,43,-4,-117,-141,-131,-107
-68,-151,-82,109,7,-117,43,-4,-117,-141,-131,-107
-68,-151,-82,109,7,-117,43,-4,-117,-141,-131,-107
-68,-156,-87,112,9,-122,43,-4,-122,-141,-136,-107
-63,-156,-92,109,14,-124,39,-9,-122,-141,-136,-107
-58,-161,-102,109,21,-131,34,-14,-122,-141,-136,-107
-58,-156,-97,107,19,-126,34,-14,-117,-136,-136,-107
-58,-151,-92,104,17,-122,34,-9,-112,-136,-136,-102
-58,-151,-92,104,17,-122,39,-9,-112,-141,-136,-102
-58,-156,-97,107,19,-126,43,-9,-112,-141,-136,-102
-58,-161,-102,109,21,-131,43,-14,-112,-141,-141,-102
-58,-161,-102,109,21,-131,43,-14,-112,-141,-141,-102
-58,-156,-97,107,19,-126,43,-9,-117,-136,-136,-102
-58,-156,-97,107,19,-126,43,-4,-117,-136,-131,-107
-58,-161,-102,109,21,-131,43,-4,-117,-141,-136,-107
-58,-165,-107,112,24,-136,43,-4,-117,-141,-136,-107
-58,-165,-107,112,24,-136,43,-4,-117,-146,-136,-107
-58,-165,-107,112,24,-136,43,-4,-117,-146,-136,-107
-58,-165,-107,112,24,-136,43,-9,-117,-146,-136,-107
-58,-170,-112,114,26,-141,43,-9,-117,-146,-136,-107
-58,-170,-112,114,26,-141,43,-4,-122,-146,-131,-107
-58,-170,-112,114,26,-141,43,-4,-122,-146,-131,-107
-58,-165,-107,112,24,-136,39,-4,-117,-141,-131,-107
-58,-165,-107,112,24,-136,39,-9,-112,-141,-131,-112
-58,-165,-107,112,24,-136,43,-9,-112,-136,-131,-107
-58,-165,-107,112,24,-136,48,-9,-117,-136,-136,-107
-58,-165,-107,112,24,-136,48,-9,-117,-136,-136,-107
-58,-165,-107,112,24,-136,48,-9,-117,-136,-136,-107
-58,-161,-102,109,21,-131,48,-9,-112,-131,-131,-102
-58,-146,-87,102,14,-117,53,-4,-97,-122,-122,-92
-58,-131,-73,95,7,-102,58,0,-87,-117,-112,-87
-58,-122,-63,90,2,-92,68,0,-78,-107,-102,-78
-53,-112,-58,82,2,-85,68,4,-68,-102,-102,-78
-43,-102,-58,73,7,-80,68,9,-58,-102,-102,-73
-34,-92,-58,63,12,-75,82,19,-48,-97,-92,-73
-29,-82,-53,56,12,-68,82,19,-43,-92,-87,-63
-29,-78,-48,53,9,-63,82,24,-29,-82,-87,-63
-29,-53,-24,41,-2,-39,82,19,-24,-73,-78,-48
-24,-39,-14,31,-4,-26,29,-19,-24,-73,-68,-39
-9,-29,-19,19,4,-24,-19,-39,-24,-68,-53,-24
9,9,0,-9,4,4,-19,-39,-9,-48,-29,-4
9,24,14,-17,-2,19,-14,-29,0,-43,-24,-4
14,29,14,-21,0,21,4,-14,0,-39,-24,-4
14,14,0,-14,7,7,19,-4,0,-39,-29,-9
19,-4,-24,-7,21,-14,19,-4,-14,-48,-39,-19
19,-43,-63,12,41,-53,14,0,-39,-68,-48,-34
19,-97,-117,39,68,-107,0,0,-82,-102,-82,-58
-4,-131,-126,68,61,-129,9,0,-92,-122,-97,-78
-39,-151,-112,95,36,-131,29,0,-102,-126,-112,-87
-58,-185,-126,122,34,-156,39,-4,-107,-136,-131,-107
-63,-185,-122,124,29,-153,48,-4,-102,-136,-131,-107
-63,-185,-122,124,29,-153,53,0,-102,-136,-131,-107
-63,-185,-122,124,29,-153,53,0,-112,-146,-136,-112
-63,-200,-136,131,36,-168,53,-4,-122,-151,-141,-117
-63,-204,-141,134,39,-173,48,-4,-126,-156,-146,-122
-63,-214,-151,139,43,-183,48,-4,-131,-161,-151,-131
-68,-224,-156,146,43,-190,48,0,-131,-161,-151,-131
-68,-224,-156,146,43,-190,48,0,-131,-161,-151,-131
-73,-224,-151,148,39,-187,53,0,-126,-161,-151,-131
-73,-224,-151,148,39,-187,58,4,-122,-161,-151,-131
-73,-224,-151,148,39,-187,63,4,-122,-161,-151,-136
-78,-224,-146,151,34,-185,68,4,-122,-161,-156,-136
-78,-224,-146,151,34,-185,68,4,-126,-161,-156,-136
-78,-229,-151,153,36,-190,68,0,-131,-161,-156,-136
-78,-234,-156,156,39,-195,73,0,-131,-161,-156,-136
-82,-234,-151,158,34,-192,73,4,-126,-161,-156,-136
-82,-234,-151,158,34,-192,82,4,-126,-161,-156,-136
-82,-239,-156,161,36,-197,87,9,-126,-161,-161,-141
-92,-253,-161,173,34,-207,107,24,-126,-185,-180,-161
-122,-326,-204,224,41,-265,175,68,-131,-248,-253,-224
-165,-395,-229,280,31,-312,268,131,-126,-326,-331,-292
-175,-409,-234,292,29,-322,287,151,-107,-346,-346,-307
-156,-375,-219,265,31,-297,258,156,-24,-283,-307,-278
-58,-239,-180,148,61,-209,146,161,170,-53,-146,-165
117,58,-58,-87,87,0,-73,161,502,419,219,102
322,370,48,-346,136,209,-326,112,839,1034,678,424
488,619,131,-553,178,375,-517,58,1112,1610,1083,688
605,814,209,-710,197,512,-644,-53,1176,2020,1395,897
663,1073,409,-868,126,741,-858,-258,1000,2083,1517,1073
590,1171,580,-880,4,875,-1024,-595,361,1507,1283,1063
322,951,629,-636,-153,790,-1039,-1039,-629,292,683,800
9,492,483,-251,-236,488,-927,-1205,-1483,-775,-4,385
-14,122,136,-53,-75,129,-668,-771,-1273,-717,-175,131
-19,-78,-58,48,19,-68,-512,-527,-1107,-649,-253,-4
-24,-161,-136,92,56,-148,-297,-297,-858,-541,-273,-92
-29,-136,-107,82,39,-122,-131,-146,-595,-409,-214,-78
-39,-97,-58,68,9,-78,-87,-102,-405,-302,-161,-58
-43,-92,-48,68,2,-70,-53,-73,-283,-234,-126,-43
-43,-92,-48,68,2,-70,0,-34,-195,-170,-102,-48
-48,-102,-53,75,2,-78,19,-24,-141,-146,-107,-58
-63,-117,-53,90,-4,-85,34,-19,-126,-151,-112,-78
-63,-126,-63,95,0,-95,34,-19,-112,-151,-112,-82
-63,-131,-68,97,2,-100,39,-14,-107,-151,-117,-82
-63,-141,-78,102,7,-109,53,0,-102,-151,-126,-92
-63,-151,-87,107,12,-119,63,9,-92,-146,-126,-97
-63,-156,-92,109,14,-124,68,9,-78,-136,-126,-97
-63,-156,-92,109,14,-124,68,14,-68,-131,-122,-97
-63,-156,-92,109,14,-124,73,19,-63,-126,-117,-97
-63,-156,-92,109,14,-124,78,24,-53,-126,-117,-97
-63,-156,-92,109,14,-124,78,24,-43,-122,-112,-97
-63,-146,-82,104,9,-114,78,29,-39,-112,-107,-92
-63,-141,-78,102,7,-109,78,34,-29,-107,-102,-87
-63,-141,-78,102,7,-109,78,34,-24,-102,-102,-87
-58,-136,-78,97,9,-107,82,39,-19,-97,-97,-82
-58,-131,-73,95,7,-102,82,39,-9,-92,-92,-82
-58,-126,-68,92,4,-97,82,43,0,-87,-92,-82
-53,-126,-73,90,9,-100,82,43,4,-82,-87,-82
-53,-122,-68,87,7,-95,82,48,4,-78,-87,-78
-48,-122,-73,85,12,-97,82,53,14,-78,-82,-78
-48,-122,-73,85,12,-97,82,53,24,-68,-78,-73
-48,-112,-63,80,7,-87,87,58,29,-63,-78,-73
-48,-102,-53,75,2,-78,87,63,34,-58,-73,-68
-39,-102,-63,70,12,-82,92,63,39,-58,-68,-68
-34,-92,-58,63,12,-75,92,68,48,-48,-68,-63
-34,-97,-63,65,14,-80,92,68,58,-39,-63,-63
-34,-97,-63,65,14,-80,97,73,68,-34,-48,-58
-29,-87,-58,58,14,-73,97,82,82,-29,-43,-53
-34,-82,-48,58,7,-65,97,92,92,-19,-39,-43
-34,-73,-39,53,2,-56,97,92,107,-9,-34,-39
-29,-63,-34,46,2,-48,97,92,122,0,-24,-34
-19,-53,-34,36,7,-43,92,97,141,9,-14,-29
-19,-43,-24,31,2,-34,92,102,161,24,-4,-19
-14,-34,-19,24,2,-26,92,112,165,34,4,-4
-14,-19,-4,17,-4,-12,92,122,185,48,19,9
-14,-4,9,9,-12,2,92,126,204,68,34,19
-4,19,24,-7,-14,21,92,131,224,82,43,34
4,39,34,-21,-14,36,97,141,244,107,68,43
19,63,43,-41,-12,53,102,151,268,126,87,53
24,82,58,-53,-17,70,97,161,292,146,107,73
34,112,78,-73,-21,95,92,165,312,175,131,97
43,151,107,-97,-31,129,87,175,341,200,156,126
48,175,126,-112,-39,151,87,180,375,234,185,146
68,219,151,-143,-41,185,82,195,405,268,214,170
78,248,170,-163,-46,209,68,204,424,297,248,200
92,292,200,-192,-53,246,63,209,448,331,283,229
102,331,229,-217,-63,280,58,214,478,370,317,258
117,380,263,-248,-73,322,48,214,502,405,356,287
126,419,292,-273,-82,356,43,214,536,444,395,322
141,453,312,-297,-85,383,29,214,551,478,429,351
156,492,336,-324,-90,414,19,209,570,507,458,380
165,522,356,-344,-95,439,4,200,585,541,488,405
175,546,370,-361,-97,458,-9,185,595,566,512,424
180,570,390,-375,-104,480,-29,180,600,590,536,448
190,585,395,-387,-102,490,-43,165,600,605,551,458
195,595,400,-395,-102,497,-53,151,605,610,561,473
195,595,400,-395,-102,497,-58,141,595,610,566,478
185,580,395,-383,-104,488,-68,122,570,590,551,468
175,551,375,-363,-100,463,-73,112,527,561,522,448
170,502,331,-336,-80,417,-63,97,488,522,483,414
156,458,302,-307,-73,380,-53,82,439,468,439,380
136,405,268,-270,-65,336,-43,73,385,405,385,336
117,341,224,-229,-53,283,-39,58,326,346,326,283
92,283,190,-187,-48,236,-39,48,278,287,278,234
78,229,151,-153,-36,190,-34,39,229,229,224,190
63,180,117,-122,-26,148,-24,29,180,185,175,156
48,131,82,-90,-17,107,-14,19,131,146,131,117
29,82,53,-56,-12,68,-4,14,97,107,97,87
9,39,29,-24,-9,34,4,4,58,58,58,58
0,9,9,-4,-4,9,9,-4,34,19,29,29
-9,-19,-9,14,0,-14,14,-4,0,-4,4,9
-19,-39,-19,29,0,-29,24,-4,-24,-29,-9,-4
-24,-58,-34,41,4,-46,24,-9,-43,-43,-24,-19
-29,-73,-43,51,7,-58,24,-14,-58,-68,-39,-29
-34,-82,-48,58,7,-65,24,-14,-73,-78,-43,-39
-34,-97,-63,65,14,-80,29,-19,-82,-87,-58,-53
-39,-112,-73,75,17,-92,29,-19,-87,-97,-68,-58
-39,-117,-78,78,19,-97,24,-19,-92,-107,-68,-63
-39,-122,-82,80,21,-102,19,-19,-107,-117,-78,-63
-39,-122,-82,80,21,-102,24,-24,-112,-117,-82,-73
-48,-122,-73,85,12,-97,24,-29,-112,-117,-82,-78
-48,-122,-73,85,12,-97,24,-34,-112,-122,-87,-78
-48,-117,-68,82,9,-92,29,-34,-117,-126,-92,-78
-48,-122,-73,85,12,-97,29,-29,-122,-126,-97,-78
-48,-122,-73,85,12,-97,29,-29,-122,-131,-97,-78
-53,-131,-78,92,12,-104,29,-29,-122,-136,-97,-78
-58,-141,-82,100,12,-112,29,-29,-122,-136,-97,-78
-58,-141,-82,100,12,-112,29,-29,-122,-136,-97,-78
-58,-141,-82,100,12,-112,29,-29,-122,-141,-97,-78
-53,-136,-82,95,14,-109,29,-29,-126,-141,-97,-78
-53,-136,-82,95,14,-109,29,-29,-126,-136,-102,-78
-53,-136,-82,95,14,-109,29,-29,-126,-136,-102,-78
-48,-136,-87,92,19,-112,29,-29,-126,-141,-102,-82
-48,-136,-87,92,19,-112,29,-29,-126,-141,-102,-82
-48,-136,-87,92,19,-112,29,-29,-126,-141,-107,-82
-53,-136,-82,95,14,-109,29,-29,-126,-141,-107,-82
-53,-136,-82,95,14,-109,29,-29,-126,-141,-107,-82
-53,-136,-82,95,14,-109,29,-29,-126,-136,-107,-82
-53,-136,-82,95,14,-109,29,-24,-126,-136,-107,-82
-53,-136,-82,95,14,-109,29,-24,-122,-141,-112,-82
-53,-136,-82,95,14,-109,34,-24,-122,-141,-112,-82
-53,-141,-87,97,17,-114,34,-24,-117,-141,-112,-82
-48,-141,-92,95,21,-117,34,-24,-117,-141,-112,-82
-48,-141,-92,95,21,-117,34,-24,-117,-136,-107,-82
-48,-141,-92,95,21,-117,34,-24,-117,-131,-102,-87
-48,-141,-92,95,21,-117,34,-19,-112,-131,-102,-87
-48,-136,-87,92,19,-112,34,-14,-102,-131,-102,-87
-48,-136,-87,92,19,-112,34,-14,-102,-131,-107,-87
-48,-136,-87,92,19,-112,34,-14,-102,-131,-107,-87
-48,-141,-92,95,21,-117,34,-19,-107,-131,-107,-87
-48,-141,-92,95,21,-117,34,-24,-112,-126,-107,-92
-53,-141,-87,97,17,-114,34,-19,-112,-126,-107,-92
-58,-141,-82,100,12,-112,34,-19,-112,-131,-107,-92
-58,-146,-87,102,14,-117,34,-19,-112,-131,-107,-92
-58,-151,-92,104,17,-122,34,-24,-112,-131,-112,-92
-53,-146,-92,100,19,-119,34,-24,-112,-136,-112,-92
-48,-136,-87,92,19,-112,34,-24,-117,-136,-112,-92
-48,-136,-87,92,19,-112,34,-29,-117,-136,-112,-97
-48,-136,-87,92,19,-112,34,-34,-117,-141,-117,-97
-48,-141,-92,95,21,-117,34,-34,-117,-136,-117,-97
-48,-146,-97,97,24,-122,34,-34,-117,-136,-117,-97
-48,-146,-97,97,24,-122,34,-29,-117,-136,-117,-97
-48,-146,-97,97,24,-122,34,-29,-117,-136,-117,-97
-48,-151,-102,100,26,-126,34,-29,-117,-136,-117,-97
-48,-151,-102,100,26,-126,34,-24,-122,-136,-112,-97
-53,-151,-97,102,21,-124,29,-19,-122,-136,-112,-92
-58,-156,-97,107,19,-126,29,-19,-122,-141,-112,-92
-58,-151,-92,104,17,-122,29,-24,-117,-136,-112,-92
-58,-146,-87,102,14,-117,29,-29,-117,-136,-117,-97
-53,-146,-92,100,19,-119,29,-29,-117,-136,-117,-97
-48,-146,-97,97,24,-122,29,-29,-117,-136,-117,-97
-48,-141,-92,95,21,-117,29,-29,-112,-131,-112,-92
-43,-122,-78,82,17,-100,34,-24,-97,-122,-102,-82
-43,-107,-63,75,9,-85,39,-19,-87,-117,-92,-78
-39,-92,-53,65,7,-73,48,-19,-78,-107,-82,-68
-39,-87,-48,63,4,-68,48,-14,-73,-102,-82,-68
-34,-82,-48,58,7,-65,48,-9,-68,-102,-82,-63
-29,-73,-43,51,7,-58,68,4,-58,-97,-73,-63
-29,-63,-34,46,2,-48,73,9,-53,-92,-68,-53
-29,-58,-29,43,0,-43,73,9,-39,-82,-68,-53
-29,-34,-4,31,-12,-19,73,0,-34,-73,-58,-39
-24,-9,14,17,-19,2,14,-39,-34,-68,-48,-29
-9,9,19,0,-14,14,-39,-58,-34,-58,-34,-14
9,48,39,-29,-14,43,-39,-58,-14,-39,-9,9
9,63,53,-36,-21,58,-34,-48,0,-34,-4,14
14,63,48,-39,-17,56,-14,-34,0,-34,-4,14
14,43,29,-29,-7,36,0,-24,0,-39,-9,9
29,34,4,-31,12,19,0,-29,-9,-43,-19,0
39,4,-34,-21,36,-14,-4,-29,-29,-58,-29,-14
39,-43,-82,2,61,-63,-19,-29,-82,-92,-63,-39
14,-73,-87,29,51,-80,-9,-29,-102,-112,-78,-58
-24,-107,-82,65,29,-95,9,-29,-107,-117,-87,-68
-48,-156,-107,102,29,-131,19,-34,-107,-126,-102,-87
-53,-156,-102,104,24,-129,29,-34,-102,-126,-102,-87
-53,-156,-102,104,24,-129,34,-29,-102,-126,-102,-87
-53,-151,-97,102,21,-124,34,-29,-112,-136,-112,-92
-53,-161,-107,107,26,-134,34,-34,-122,-141,-122,-97
-58,-165,-107,112,24,-136,29,-34,-126,-151,-126,-102
-63,-175,-112,119,24,-143,29,-34,-131,-161,-131,-112
-68,-190,-122,129,26,-156,29,-29,-136,-161,-136,-117
-68,-195,-126,131,29,-161,29,-29,-141,-161,-141,-122
-68,-195,-126,131,29,-161,34,-29,-141,-161,-141,-122
-63,-195,-131,129,34,-163,39,-24,-141,-161,-141,-122
-63,-195,-131,129,34,-163,43,-24,-141,-161,-141,-126
-68,-195,-126,131,29,-161,48,-24,-141,-161,-146,-126
-73,-195,-122,134,24,-158,48,-19,-136,-161,-141,-126
-78,-200,-122,139,21,-161,48,-19,-131,-161,-136,-126
-78,-204,-126,141,24,-165,53,-19,-131,-156,-136,-126
-82,-204,-122,143,19,-163,53,-14,-126,-151,-136,-126
-78,-200,-122,139,21,-161,58,-14,-131,-151,-136,-122
-73,-200,-126,136,26,-163,58,-9,-136,-151,-141,-122
-82,-214,-131,148,24,-173,68,4,-136,-170,-156,-141
-112,-287,-175,200,31,-231,126,48,-141,-229,-224,-204
-161,-361,-200,261,19,-280,239,112,-136,-307,-312,-278
-175,-380,-204,278,14,-292,278,131,-117,-326,-336,-297
-180,-375,-195,278,7,-285,268,136,-78,-326,-336,-297
-107,-268,-161,187,26,-214,175,141,73,-161,-214,-214
78,19,-58,-48,68,-19,-39,151,395,278,131,43
292,322,29,-307,131,175,-287,112,722,858,570,356
473,570,97,-522,187,334,-478,82,1049,1468,985,614
605,766,161,-685,222,463,-605,-4,1166,1912,1307,819
707,1073,366,-890,170,719,-844,-185,1122,2142,1542,1054
678,1220,541,-949,68,880,-1034,-497,614,1732,1420,1102
390,1034,644,-712,-126,839,-1078,-1054,-473,429,795,849
58,610,551,-334,-246,580,-995,-1332,-1424,-727,82,444
24,195,170,-109,-73,183,-736,-873,-1268,-702,-117,175
9,-48,-58,19,34,-53,-580,-605,-1156,-668,-224,24
-4,-141,-136,73,65,-139,-346,-361,-907,-561,-253,-73
-19,-126,-107,73,43,-117,-161,-195,-644,-429,-204,-68
-29,-87,-58,58,14,-73,-117,-141,-434,-312,-146,-48
-34,-82,-48,58,7,-65,-82,-102,-292,-234,-107,-34
-34,-73,-39,53,2,-56,-24,-63,-200,-170,-78,-34
-39,-73,-34,56,-2,-53,0,-53,-141,-146,-78,-39
-53,-92,-39,73,-7,-65,14,-48,-126,-146,-87,-63
-53,-107,-53,80,0,-80,14,-48,-112,-141,-92,-73
-53,-112,-58,82,2,-85,19,-43,-107,-141,-97,-73
-53,-122,-68,87,7,-95,34,-29,-102,-141,-107,-82
-53,-122,-68,87,7,-95,43,-14,-92,-136,-107,-87
-53,-117,-63,85,4,-90,48,-9,-78,-126,-107,-87
-53,-117,-63,85,4,-90,48,-4,-68,-122,-102,-87
-53,-117,-63,85,4,-90,53,0,-63,-117,-97,-87
-53,-117,-63,85,4,-90,58,4,-53,-117,-97,-87
-53,-117,-63,85,4,-90,58,4,-43,-112,-92,-87
-53,-112,-58,82,2,-85,58,9,-39,-102,-87,-82
-53,-112,-58,82,2,-85,58,14,-29,-97,-82,-78
-58,-117,-58,87,0,-87,58,14,-24,-92,-82,-73
-58,-117,-58,87,0,-87,63,19,-19,-87,-78,-63
-58,-112,-53,85,-2,-82,63,19,-9,-82,-73,-63
-58,-107,-48,82,-4,-78,63,24,0,-78,-73,-63
-53,-107,-53,80,0,-80,63,24,4,-73,-68,-68
-53,-102,-48,78,-2,-75,63,29,4,-68,-68,-68
-48,-97,-48,73,0,-73,63,34,14,-68,-63,-68
-48,-92,-43,70,-2,-68,63,34,24,-58,-58,-63
-43,-87,-43,65,0,-65,68,39,29,-53,-58,-58
-39,-82,-43,61,2,-63,68,43,34,-48,-53,-48
-34,-82,-48,58,7,-65,68,43,39,-48,-48,-48
-34,-73,-39,53,2,-56,63,48,48,-39,-48,-43
-34,-78,-43,56,4,-61,63,48,58,-29,-43,-48
-34,-78,-43,56,4,-61,68,53,68,-24,-29,-48
-24,-68,-43,46,9,-56,68,63,82,-19,-24,-43
-24,-63,-39,43,7,-51,68,73,92,-9,-19,-34
-24,-53,-29,39,2,-41,73,73,102,0,-19,-29
-19,-43,-24,31,2,-34,78,73,112,9,-14,-24
-9,-29,-19,19,4,-24,78,78,131,14,-4,-19
-9,-14,-4,12,-2,-9,82,82,151,24,4,-9
-4,-4,0,4,-2,-2,82,92,156,34,14,0
-4,9,14,-2,-9,12,82,102,175,48,29,9
-4,24,29,-9,-17,26,82,112,195,68,43,19
4,48,43,-26,-19,46,82,122,214,82,53,34
9,68,58,-39,-24,63,82,131,234,107,78,48
19,92,73,-56,-26,82,82,141,258,126,97,63
24,107,82,-65,-29,95,78,151,283,146,117,78
34,131,97,-82,-31,114,73,156,302,175,141,97
43,170,126,-107,-41,148,68,165,331,200,165,126
48,195,146,-122,-48,170,68,170,366,234,195,146
68,244,175,-156,-53,209,68,185,395,268,224,170
78,278,200,-178,-61,239,58,195,414,297,258,200
92,322,229,-207,-68,275,48,200,439,331,292,229
102,361,258,-231,-78,309,39,204,468,370,326,258
117,405,287,-261,-85,346,29,204,492,405,361,287
126,439,312,-283,-92,375,24,204,527,444,395,322
141,473,331,-307,-95,402,9,204,546,473,429,351
156,512,356,-334,-100,434,0,200,570,497,458,380
165,541,375,-353,-104,458,-14,200,590,531,488,405
175,566,390,-370,-107,478,-29,195,605,556,512,424
185,595,409,-390,-112,502,-48,190,610,580,541,453
200,614,414,-407,-107,514,-63,175,610,595,561,468
204,624,419,-414,-107,522,-73,161,610,600,566,478
204,624,419,-414,-107,522,-78,151,595,600,566,478
200,614,414,-407,-107,514,-87,122,570,585,556,468
195,590,395,-392,-100,492,-92,102,527,561,531,448
185,541,356,-363,-85,448,-87,87,488,527,492,414
165,497,331,-331,-82,414,-82,73,439,478,448,380
146,444,297,-295,-75,370,-73,63,390,419,400,346
126,380,253,-253,-63,317,-68,48,336,366,346,302
102,322,219,-212,-58,270,-58,39,287,307,297,253
87,268,180,-178,-46,224,-43,29,239,248,244,209
73,219,146,-146,-36,183,-39,19,190,200,195,175
58,170,112,-114,-26,141,-34,9,141,156,151,136
39,122,82,-80,-21,102,-24,4,107,112,117,102
19,78,58,-48,-19,68,-14,-4,68,58,78,68
4,48,43,-26,-19,46,-9,-19,43,19,48,34
-9,19,29,-4,-19,24,-4,-24,9,-4,24,9
-19,-4,14,12,-17,4,4,-24,-14,-29,4,-4
-24,-29,-4,26,-9,-17,4,-29,-34,-43,-14,-19
-29,-48,-19,39,-4,-34,4,-34,-48,-68,-29,-29
-34,-63,-29,48,-2,-46,4,-34,-63,-78,-34,-39
-34,-78,-43,56,4,-61,9,-39,-73,-87,-48,-43
-39,-92,-53,65,7,-73,9,-39,-78,-97,-58,-39
-39,-97,-58,68,9,-78,9,-39,-82,-107,-63,-53
-39,-102,-63,70,12,-82,9,-39,-97,-117,-78,-63
-39,-102,-63,70,12,-82,14,-39,-102,-117,-82,-68
-48,-102,-53,75,2,-78,14,-39,-102,-117,-82,-68
-39,-107,-68,73,14,-87,14,-43,-102,-122,-82,-68
-29,-107,-78,68,24,-92,19,-43,-107,-126,-82,-68
-39,-112,-73,75,17,-92,19,-39,-112,-126,-87,-73
-48,-112,-63,80,7,-87,19,-39,-112,-131,-87,-78
-48,-112,-63,80,7,-87,19,-39,-112,-136,-87,-78
-48,-112,-63,80,7,-87,19,-39,-112,-136,-87,-78
-43,-112,-68,78,12,-90,19,-39,-112,-136,-87,-78
-39,-112,-73,75,17,-92,19,-39,-112,-141,-87,-78
-39,-112,-73,75,17,-92,19,-39,-117,-141,-87,-78
-43,-117,-73,80,14,-95,19,-39,-117,-136,-92,-78
-43,-117,-73,80,14,-95,19,-39,-117,-136,-97,-78
-39,-117,-78,78,19,-97,19,-39,-117,-141,-102,-82
-43,-122,-78,82,17,-100,19,-39,-117,-141,-102,-82
-48,-126,-78,87,14,-102,19,-39,-117,-141,-107,-82
-53,-126,-73,90,9,-100,19,-39,-122,-141,-102,-78
-53,-126,-73,90,9,-100,19,-39,-126,-141,-97,-73
-48,-126,-78,87,14,-102,19,-39,-126,-136,-97,-73
-43,-126,-82,85,19,-104,19,-34,-126,-136,-97,-73
-43,-122,-78,82,17,-100,19,-34,-117,-136,-97,-73
-43,-117,-73,80,14,-95,24,-34,-112,-131,-92,-73
-43,-122,-78,82,17,-100,24,-34,-107,-131,-92,-73
-39,-122,-82,80,21,-102,24,-34,-107,-131,-92,-73
-39,-122,-82,80,21,-102,24,-34,-107,-131,-92,-73
-39,-122,-82,80,21,-102,24,-34,-107,-131,-92,-78
-39,-126,-87,82,24,-107,24,-34,-107,-131,-92,-78
-39,-126,-87,82,24,-107,24,-34,-102,-131,-92,-78
-39,-126,-87,82,24,-107,24,-34,-107,-131,-97,-78
-39,-126,-87,82,24,-107,24,-34,-112,-131,-97,-78
-39,-131,-92,85,26,-112,24,-34,-112,-131,-97,-78
-39,-131,-92,85,26,-112,24,-34,-112,-126,-97,-82
-39,-131,-92,85,26,-112,24,-29,-112,-126,-97,-82
-39,-131,-92,85,26,-112,24,-29,-112,-131,-97,-82
-39,-136,-97,87,29,-117,24,-29,-112,-131,-97,-82
-39,-141,-102,90,31,-122,24,-34,-112,-131,-102,-82
-39,-141,-102,90,31,-122,24,-34,-107,-136,-102,-82
-39,-136,-97,87,29,-117,24,-34,-107,-136,-102,-82
-43,-136,-92,90,24,-114,24,-34,-107,-136,-102,-87
-48,-136,-87,92,19,-112,24,-34,-107,-141,-107,-87
-48,-136,-87,92,19,-112,24,-34,-107,-136,-107,-87
-48,-136,-87,92,19,-112,24,-34,-107,-136,-107,-87
-48,-136,-87,92,19,-112,24,-34,-107,-136,-107,-87
-48,-136,-87,92,19,-112,24,-39,-107,-136,-107,-87
-48,-141,-92,95,21,-117,19,-39,-107,-136,-112,-92
-48,-141,-92,95,21,-117,14,-34,-112,-136,-112,-97
-43,-131,-87,87,21,-109,9,-29,-117,-136,-112,-92
-39,-126,-87,82,24,-107,9,-29,-122,-141,-112,-92
-39,-126,-87,82,24,-107,14,-29,-117,-136,-107,-87
-39,-126,-87,82,24,-107,19,-29,-117,-136,-107,-87
-43,-131,-87,87,21,-109,19,-29,-117,-136,-107,-87
-48,-136,-87,92,19,-112,19,-29,-117,-136,-107,-87
-48,-131,-82,90,17,-107,19,-34,-112,-136,-112,-82
-43,-112,-68,78,12,-90,24,-29,-97,-131,-102,-73
-43,-97,-53,70,4,-75,29,-29,-87,-126,-92,-68
-39,-82,-43,61,2,-63,39,-29,-78,-117,-73,-58
-34,-78,-43,56,4,-61,39,-24,-73,-112,-73,-58
-24,-73,-48,48,12,-61,39,-19,-68,-112,-73,-53
-19,-68,-48,43,14,-58,53,-9,-58,-107,-68,-58
-19,-63,-43,41,12,-53,53,-9,-53,-102,-68,-53
-19,-63,-43,41,12,-53,63,4,-39,-92,-68,-53
-19,-43,-24,31,2,-34,73,9,-34,-82,-58,-39
-14,-24,-9,19,-2,-17,19,-39,-34,-78,-48,-29
0,-9,-9,4,4,-9,-29,-68,-34,-68,-34,-14
19,34,14,-26,2,24,-48,-68,-19,-43,-9,9
19,53,34,-36,-7,43,-63,-58,-9,-34,-4,14
24,63,39,-43,-7,51,-29,-43,0,-29,0,19
24,53,29,-39,-2,41,0,-34,9,-29,0,19
39,48,9,-43,14,29,0,-34,0,-39,-9,9
48,24,-24,-36,36,0,-4,-29,-19,-58,-19,-4
48,-34,-82,-7,65,-58,-24,-34,-78,-92,-58,-29
24,-73,-97,24,61,-85,-19,-39,-102,-112,-78,-48
-14,-102,-87,58,36,-95,0,-39,-107,-122,-87,-63
-39,-146,-107,92,34,-126,9,-43,-107,-136,-102,-87
-48,-146,-97,97,24,-122,19,-43,-102,-136,-102,-87
-53,-146,-92,100,19,-119,24,-39,-102,-136,-102,-87
-53,-146,-92,100,19,-119,24,-39,-112,-146,-112,-92
-53,-161,-107,107,26,-134,24,-43,-122,-151,-122,-97
-48,-170,-122,109,36,-146,19,-43,-126,-156,-131,-102
-43,-185,-141,114,48,-163,19,-43,-131,-161,-141,-112
-48,-195,-146,122,48,-170,19,-39,-136,-161,-141,-112
-48,-195,-146,122,48,-170,19,-39,-141,-161,-141,-112
-58,-195,-136,126,39,-165,24,-39,-141,-161,-136,-112
-63,-195,-131,129,34,-163,29,-34,-141,-161,-131,-112
-63,-195,-131,129,34,-163,39,-34,-141,-161,-131,-117
-68,-195,-126,131,29,-161,48,-34,-141,-161,-136,-117
-68,-195,-126,131,29,-161,48,-29,-141,-165,-136,-117
-68,-200,-131,134,31,-165,48,-29,-141,-170,-136,-117
-68,-204,-136,136,34,-170,53,-29,-141,-170,-136,-117
-73,-204,-131,139,29,-168,53,-24,-136,-170,-136,-117
-73,-204,-131,139,29,-168,53,-24,-136,-165,-136,-117
-73,-209,-136,141,31,-173,48,-19,-136,-161,-141,-122
-68,-195,-126,131,29,-161,39,-24,-136,-156,-126,-117
-82,-239,-156,161,36,-197,78,0,-141,-190,-165,-156
-141,-341,-200,241,29,-270,214,82,-141,-297,-283,-253
-165,-390,-224,278,29,-307,278,122,-126,-346,-336,-297
-209,-439,-229,324,9,-334,312,131,-146,-424,-400,-341
-175,-385,-209,280,17,-297,263,141,-53,-336,-341,-302
0,-112,-112,56,56,-112,58,165,239,24,-48,-82
204,175,-29,-190,117,73,-180,141,536,527,336,190
414,424,9,-419,202,217,-390,131,936,1215,800,473
575,619,43,-597,265,331,-536,63,1127,1737,1171,702
741,1010,268,-875,236,639,-785,-58,1273,2215,1542,1015
775,1239,463,-1007,156,851,-985,-312,956,2054,1556,1141
478,1146,668,-812,-95,907,-1107,-1005,-214,692,956,951
136,814,678,-475,-270,746,-1102,-1420,-1249,-522,268,610
68,331,263,-200,-97,297,-844,-985,-1224,-629,-19,283
19,19,0,-19,9,9,-688,-741,-1244,-727,-214,73
4,-122,-126,58,65,-124,-434,-453,-1015,-634,-263,-53
-9,-156,-146,82,68,-151,-229,-244,-771,-517,-234,-78
-19,-102,-82,61,31,-92,-165,-175,-527,-380,-175,-58
-24,-82,-58,53,17,-70,-112,-122,-351,-283,-136,-43
-24,-73,-48,48,12,-61,-48,-73,-244,-204,-102,-39
-29,-73,-43,51,7,-58,-19,-53,-170,-165,-97,-39
-48,-92,-43,70,-2,-68,0,-48,-146,-165,-102,-63
-53,-107,-53,80,0,-80,4,-48,-122,-161,-102,-73
-53,-112,-58,82,2,-85,9,-43,-117,-165,-107,-73
-53,-122,-68,87,7,-95,24,-29,-112,-170,-117,-82
-53,-131,-78,92,12,-104,34,-14,-102,-165,-117,-87
-53,-136,-82,95,14,-109,39,-9,-87,-156,-117,-87
-53,-136,-82,95,14,-109,39,-4,-78,-146,-112,-87
-53,-136,-82,95,14,-109,43,0,-73,-136,-107,-87
-53,-136,-82,95,14,-109,53,4,-63,-136,-107,-87
-53,-136,-82,95,14,-109,58,4,-53,-131,-102,-87
-53,-131,-78,92,12,-104,58,9,-48,-122,-97,-87
-53,-131,-78,92,12,-104,58,14,-39,-117,-92,-87
-53,-131,-78,92,12,-104,58,14,-39,-112,-92,-87
-48,-126,-78,87,14,-102,63,19,-39,-107,-87,-82
-48,-126,-78,87,14,-102,63,19,-29,-102,-82,-78
-48,-126,-78,87,14,-102,63,24,-19,-97,-82,-73
-43,-126,-82,85,19,-104,63,24,-14,-92,-78,-73
-43,-122,-78,82,17,-100,63,29,-14,-87,-78,-68
-39,-122,-82,80,21,-102,63,34,-4,-87,-73,-68
-39,-122,-82,80,21,-102,63,34,4,-78,-68,-63
-39,-117,-78,78,19,-97,68,39,14,-73,-68,-63
-39,-112,-73,75,17,-92,68,43,24,-68,-63,-58
-34,-112,-78,73,21,-95,68,43,29,-68,-58,-63
-34,-102,-68,68,17,-85,63,48,39,-58,-58,-63
-34,-107,-73,70,19,-90,63,48,48,-48,-53,-63
-34,-107,-73,70,19,-90,68,53,58,-43,-39,-58
-24,-97,-73,61,24,-85,68,63,73,-39,-34,-53
-24,-92,-68,58,21,-80,68,73,82,-29,-29,-43
-24,-82,-58,53,17,-70,73,73,87,-19,-29,-39
-19,-73,-53,46,17,-63,78,73,92,-9,-24,-34
-4,-63,-58,34,26,-61,73,78,112,0,-14,-29
0,-53,-53,26,26,-53,73,82,131,14,-4,-19
9,-43,-53,17,31,-48,73,97,136,19,4,-9
14,-29,-43,7,29,-36,73,112,156,29,19,0
9,-19,-29,4,19,-24,73,117,175,48,34,9
14,0,-14,-7,14,-7,73,122,195,63,43,24
19,14,-4,-17,12,4,73,136,214,87,68,39
29,34,4,-31,12,19,73,151,239,107,87,53
34,53,19,-43,7,36,73,161,258,122,102,68
43,82,39,-63,2,61,73,165,273,146,122,87
53,122,68,-87,-7,95,68,175,302,170,146,117
58,146,87,-102,-14,117,68,180,336,204,175,136
78,185,107,-131,-14,146,68,190,366,239,200,156
87,209,122,-148,-17,165,58,195,385,268,229,180
102,253,151,-178,-24,202,48,204,409,302,263,209
112,292,180,-202,-34,236,39,214,439,341,297,239
126,336,209,-231,-41,273,29,219,468,370,331,268
136,370,234,-253,-48,302,24,224,507,405,366,302
151,409,258,-280,-53,334,9,224,522,439,400,331
165,453,287,-309,-61,370,0,219,541,468,429,361
180,483,302,-331,-61,392,-14,214,561,502,458,385
195,507,312,-351,-58,409,-29,204,575,527,483,405
200,536,336,-368,-68,436,-43,204,585,551,512,429
209,556,346,-383,-68,451,-53,195,590,566,531,439
219,566,346,-392,-63,456,-73,180,595,580,546,458
224,566,341,-395,-58,453,-87,170,585,590,556,468
219,566,346,-392,-63,456,-92,146,570,580,551,463
214,551,336,-383,-61,444,-92,131,536,561,531,448
204,512,307,-358,-51,409,-87,117,502,527,492,419
185,478,292,-331,-53,385,-82,102,458,478,448,390
165,424,258,-295,-46,341,-73,87,409,424,400,351
146,361,214,-253,-34,287,-68,68,356,375,346,302
122,297,175,-209,-26,236,-58,58,307,317,297,253
107,239,131,-173,-12,185,-43,48,258,258,244,209
87,190,102,-139,-7,146,-34,34,204,209,195,170
68,141,73,-104,-2,107,-24,19,151,165,151,126
48,87,39,-68,4,63,-14,14,112,117,117,92
29,39,9,-34,9,24,-4,4,68,58,78,58
19,4,-14,-12,17,-4,0,-9,43,14,39,29
9,-29,-39,9,24,-34,4,-14,9,-14,4,9
0,-53,-53,26,26,-53,14,-14,-14,-39,-14,-9
-4,-78,-73,41,34,-75,14,-19,-34,-53,-34,-29
-9,-92,-82,51,36,-87,19,-24,-48,-78,-53,-43
-14,-102,-87,58,36,-95,24,-24,-63,-87,-63,-58
-19,-112,-92,65,36,-102,29,-29,-78,-97,-78,-73
-29,-122,-92,75,31,-107,29,-29,-87,-107,-87,-78
-29,-131,-102,80,36,-117,24,-29,-92,-117,-82,-82
-29,-141,-112,85,41,-126,19,-29,-107,-126,-87,-82
-29,-146,-117,87,43,-131,24,-24,-112,-126,-92,-87
-39,-151,-112,95,36,-131,24,-19,-112,-126,-92,-87
-39,-161,-122,100,41,-141,24,-24,-112,-131,-97,-87
-39,-165,-126,102,43,-146,29,-24,-117,-136,-102,-87
-39,-170,-131,104,46,-151,29,-19,-126,-141,-112,-92
-39,-170,-131,104,46,-151,29,-19,-131,-151,-117,-97
-43,-170,-126,107,41,-148,29,-19,-131,-156,-117,-97
-48,-170,-122,109,36,-146,29,-19,-131,-156,-117,-97
-48,-170,-122,109,36,-146,29,-19,-131,-151,-117,-97
-48,-170,-122,109,36,-146,29,-19,-131,-151,-117,-97
-48,-170,-122,109,36,-146,34,-19,-136,-151,-117,-97
-53,-175,-122,114,34,-148,39,-19,-136,-146,-122,-97
-53,-175,-122,114,34,-148,39,-14,-136,-146,-122,-97
-48,-175,-126,112,39,-151,39,-9,-136,-151,-122,-102
-43,-170,-126,107,41,-148,39,-9,-136,-156,-122,-102
-39,-165,-126,102,43,-146,39,-9,-136,-161,-126,-102
-43,-165,-122,104,39,-143,39,-14,-136,-161,-126,-102
-43,-165,-122,104,39,-143,39,-19,-136,-161,-126,-102
-43,-165,-122,104,39,-143,39,-19,-131,-156,-126,-102
-43,-165,-122,104,39,-143,39,-14,-126,-156,-126,-102
-43,-165,-122,104,39,-143,39,-14,-122,-156,-126,-102
-43,-165,-122,104,39,-143,43,-14,-122,-151,-122,-102
-43,-170,-126,107,41,-148,43,-14,-117,-151,-122,-102
-39,-170,-131,104,46,-151,43,-14,-117,-151,-122,-102
-39,-170,-131,104,46,-151,43,-9,-117,-151,-122,-102
-39,-170,-131,104,46,-151,43,-4,-117,-151,-122,-107
-39,-170,-131,104,46,-151,43,-4,-122,-151,-122,-107
-39,-165,-126,102,43,-146,43,-4,-122,-151,-122,-107
-39,-165,-126,102,43,-146,43,-4,-122,-151,-126,-112
-39,-165,-126,102,43,-146,43,-4,-122,-151,-126,-117
-39,-170,-131,104,46,-151,43,-4,-122,-151,-126,-117
-39,-170,-131,104,46,-151,43,-4,-122,-146,-126,-122
-39,-170,-131,104,46,-151,43,0,-122,-146,-126,-117
-39,-170,-131,104,46,-151,43,0,-122,-151,-126,-112
-39,-175,-136,107,48,-156,43,0,-122,-146,-126,-112
-39,-180,-141,109,51,-161,43,-4,-122,-141,-131,-112
-39,-180,-141,109,51,-161,43,-4,-122,-141,-131,-112
-39,-175,-136,107,48,-156,43,-4,-126,-136,-131,-112
-39,-175,-136,107,48,-156,43,-4,-122,-136,-131,-117
-39,-175,-136,107,48,-156,43,-4,-117,-141,-136,-117
-39,-175,-136,107,48,-156,43,-4,-117,-141,-136,-117
-39,-175,-136,107,48,-156,43,-4,-117,-146,-136,-117
-39,-170,-131,104,46,-151,43,-4,-122,-146,-136,-122
-39,-165,-126,102,43,-146,43,-9,-126,-146,-136,-126
-39,-170,-131,104,46,-151,43,-9,-126,-151,-141,-126
-39,-170,-131,104,46,-151,43,-4,-131,-156,-141,-126
-39,-175,-136,107,48,-156,39,-4,-126,-151,-141,-122
-39,-185,-146,112,53,-165,39,-9,-122,-151,-141,-122
-43,-180,-136,112,46,-158,39,-9,-117,-146,-136,-122
-48,-175,-126,112,39,-151,39,-9,-117,-146,-136,-126
-48,-175,-126,112,39,-151,43,-9,-117,-146,-136,-126
-48,-175,-126,112,39,-151,48,-9,-117,-146,-136,-126
-48,-170,-122,109,36,-146,48,-4,-112,-141,-131,-122
-43,-156,-112,100,34,-134,53,0,-97,-131,-122,-112
-43,-141,-97,92,26,-119,58,9,-87,-126,-117,-107
-39,-131,-92,85,26,-112,68,9,-78,-117,-112,-97
-34,-126,-92,80,29,-109,68,14,-73,-107,-112,-97
-24,-122,-97,73,36,-109,68,19,-68,-102,-112,-92
-19,-112,-92,65,36,-102,87,29,-58,-97,-102,-92
-19,-102,-82,61,31,-92,92,29,-53,-92,-97,-82
-19,-97,-78,58,29,-87,92,39,-39,-82,-97,-82
-19,-73,-53,46,17,-63,92,39,-34,-73,-87,-68
-14,-53,-39,34,12,-46,39,-9,-34,-73,-78,-58
0,-39,-39,19,19,-39,-9,-39,-34,-68,-63,-43
19,9,-9,-14,14,0,-14,-39,-19,-48,-43,-24
19,34,14,-26,2,24,-14,-29,-9,-43,-43,-24
24,39,14,-31,4,26,4,-14,-4,-39,-39,-24
24,24,0,-24,12,12,19,-4,0,-39,-39,-29
29,4,-24,-17,26,-9,19,-9,-19,-48,-48,-39
29,-34,-63,2,46,-48,14,-9,-48,-68,-58,-53
29,-87,-117,29,73,-102,0,-9,-97,-102,-97,-78
4,-122,-126,58,65,-124,9,-9,-112,-122,-117,-97
-29,-141,-112,85,41,-126,29,-9,-117,-126,-126,-107
-48,-175,-126,112,39,-151,39,-14,-117,-136,-141,-126
-53,-175,-122,114,34,-148,48,-9,-112,-136,-141,-126
-53,-175,-122,114,34,-148,53,0,-112,-136,-141,-126
-53,-175,-122,114,34,-148,53,0,-122,-146,-146,-131
-53,-190,-136,122,41,-163,53,-4,-131,-151,-151,-136
-53,-195,-141,124,43,-168,48,-9,-136,-161,-156,-141
-53,-204,-151,129,48,-178,48,-14,-141,-170,-161,-151
-58,-214,-156,136,48,-185,48,-9,-141,-170,-161,-156
-58,-214,-156,136,48,-185,48,-9,-141,-170,-161,-161
-63,-219,-156,141,46,-187,53,-4,-141,-170,-161,-161
-63,-224,-161,143,48,-192,58,4,-141,-170,-161,-161
-63,-224,-161,143,48,-192,63,4,-141,-170,-165,-165
-68,-224,-156,146,43,-190,68,4,-141,-170,-175,-165
-68,-224,-156,146,43,-190,73,9,-141,-175,-175,-165
-68,-229,-161,148,46,-195,78,9,-141,-180,-175,-165
-68,-234,-165,151,48,-200,82,9,-141,-180,-175,-165
-73,-234,-161,153,43,-197,82,14,-136,-180,-175,-165
-73,-224,-151,148,39,-187,82,9,-136,-170,-170,-161
-73,-219,-146,146,36,-183,78,9,-136,-161,-170,-161
-73,-224,-151,148,39,-187,82,24,-126,-165,-175,-170
-92,-287,-195,190,51,-241,136,68,-122,-209,-234,-224
-146,-375,-229,261,41,-302,263,141,-107,-287,-326,-302
-165,-409,-244,287,39,-326,317,170,-78,-307,-356,-326
-185,-414,-229,300,21,-322,312,170,-68,-331,-370,-336
-126,-317,-190,222,31,-253,224,170,53,-190,-263,-263
58,-24,-82,-17,70,-53,9,170,346,258,92,0
273,283,9,-278,131,146,-239,122,644,849,541,317
463,541,78,-502,192,309,-429,92,1000,1503,995,600
605,746,141,-675,231,444,-556,4,1146,1991,1356,829
697,1088,390,-893,153,739,-790,-180,1127,2196,1576,1063
658,1268,610,-963,24,939,-976,-497,644,1761,1439,1112
351,1117,766,-734,-207,941,-1024,-1054,-419,409,780,849
0,727,727,-363,-363,727,-946,-1332,-1346,-795,34,434
-29,263,292,-117,-161,278,-707,-888,-1239,-771,-180,141
-39,-29,9,34,-24,-9,-570,-634,-1176,-736,-302,-34
-43,-161,-117,102,36,-139,-336,-356,-956,-639,-341,-141
-48,-185,-136,117,43,-161,-151,-156,-722,-517,-302,-146
-48,-146,-97,97,24,-122,-102,-112,-497,-380,-234,-126
-43,-141,-97,92,26,-119,-63,-82,-341,-283,-185,-112
-39,-117,-78,78,19,-97,0,-34,-239,-209,-146,-102
-39,-102,-63,70,12,-82,29,-14,-170,-175,-136,-97
-53,-117,-63,85,4,-90,43,-9,-146,-165,-136,-112
-53,-126,-73,90,9,-100,43,-9,-122,-151,-131,-112
-53,-131,-78,92,12,-104,43,-4,-117,-151,-131,-107
-53,-141,-87,97,17,-114,53,9,-112,-151,-136,-112
-53,-151,-97,102,21,-124,63,19,-102,-146,-136,-117
-53,-156,-102,104,24,-129,68,19,-87,-136,-136,-117
-53,-156,-102,104,24,-129,68,24,-78,-131,-136,-122
-53,-156,-102,104,24,-129,73,29,-73,-126,-136,-126
-53,-151,-97,102,21,-124,78,34,-63,-126,-136,-126
-53,-146,-92,100,19,-119,78,34,-53,-122,-131,-126
-53,-136,-82,95,14,-109,78,39,-48,-112,-126,-122
-53,-131,-78,92,12,-104,78,43,-39,-107,-122,-117
-53,-131,-78,92,12,-104,78,43,-34,-102,-122,-117
-48,-126,-78,87,14,-102,82,48,-29,-97,-117,-112
-48,-126,-78,87,14,-102,82,48,-19,-92,-112,-112
-48,-126,-78,87,14,-102,82,53,-9,-87,-112,-112
-43,-126,-82,85,19,-104,82,53,-4,-82,-107,-112
-43,-122,-78,82,17,-100,82,58,-4,-78,-107,-107
-39,-122,-82,80,21,-102,82,63,4,-78,-102,-102
-39,-122,-82,80,21,-102,82,63,14,-68,-97,-92
-39,-122,-82,80,21,-102,87,68,19,-58,-92,-92
-39,-122,-82,80,21,-102,87,73,24,-48,-82,-87
-34,-122,-87,78,26,-104,87,73,24,-48,-78,-87
-34,-112,-78,73,21,-95,82,78,29,-39,-78,-82
-34,-112,-78,73,21,-95,82,73,39,-29,-73,-82
-34,-107,-73,70,19,-90,87,73,48,-24,-58,-78
-24,-97,-73,61,24,-85,82,82,63,-19,-53,-73
-24,-92,-68,58,21,-80,78,92,73,-9,-48,-63
-24,-82,-58,53,17,-70,78,92,78,0,-48,-58
-19,-73,-53,46,17,-63,78,92,82,9,-43,-53
-9,-63,-53,36,21,-58,73,97,97,19,-34,-53
-9,-53,-43,31,17,-48,73,102,112,34,-24,-48
0,-43,-43,21,21,-43,68,112,117,43,-14,-39
4,-29,-34,12,19,-31,63,122,136,58,0,-29
4,-14,-19,4,12,-17,63,126,156,78,24,-14
14,9,-4,-12,9,2,63,131,175,92,43,4
19,29,9,-24,4,19,63,136,195,117,58,19
29,53,24,-41,2,39,63,141,219,136,68,34
34,73,39,-53,-2,56,58,151,244,156,87,53
43,102,58,-73,-7,80,53,156,263,185,112,78
53,141,87,-97,-17,114,43,165,292,209,136,107
58,165,107,-112,-24,136,39,170,326,244,165,126
78,209,131,-143,-26,170,34,180,356,278,200,146
87,239,151,-163,-31,195,19,185,375,307,239,170
102,283,180,-192,-39,231,9,185,395,341,273,200
112,322,209,-217,-48,265,0,185,419,380,307,229
126,366,239,-246,-56,302,-14,185,444,414,341,258
136,400,263,-268,-63,331,-24,185,478,453,375,292
151,429,278,-290,-63,353,-39,185,497,492,409,322
165,463,297,-314,-65,380,-48,180,522,527,439,351
175,492,317,-334,-70,405,-63,175,536,561,468,375
185,517,331,-351,-73,424,-78,165,546,585,492,395
190,551,361,-370,-85,456,-92,165,556,610,517,424
200,575,375,-387,-87,475,-102,156,561,624,531,439
204,590,385,-397,-90,488,-112,141,561,629,541,448
204,595,390,-400,-92,492,-117,131,546,629,546,448
190,575,385,-383,-97,480,-122,112,527,610,536,439
175,541,366,-358,-95,453,-122,102,488,580,512,419
165,492,326,-329,-80,409,-107,92,458,546,473,385
146,448,302,-297,-78,375,-92,82,419,497,429,351
126,395,268,-261,-70,331,-73,73,370,439,380,312
107,331,224,-219,-58,278,-58,58,317,385,326,263
82,273,190,-178,-53,231,-48,48,268,322,273,214
68,219,151,-143,-41,185,-34,39,219,258,214,170
53,175,122,-114,-34,148,-24,29,170,209,161,131
39,131,92,-85,-26,112,-14,19,122,165,112,87
19,82,63,-51,-21,73,-4,19,87,122,78,53
0,39,39,-19,-19,39,4,14,48,68,39,19
-9,9,19,0,-14,14,9,4,24,29,9,-9
-19,-19,0,19,-9,-9,14,4,-9,4,-14,-29
-29,-48,-19,39,-4,-34,24,4,-34,-19,-39,-48
-34,-78,-43,56,4,-61,24,0,-53,-34,-63,-68
-43,-92,-48,68,2,-70,29,-4,-68,-63,-82,-78
-53,-102,-48,78,-2,-75,34,-4,-82,-78,-92,-87
-53,-112,-58,82,2,-85,39,-4,-92,-87,-107,-97
-58,-122,-63,90,2,-92,39,0,-97,-97,-117,-97
-58,-126,-68,92,4,-97,39,0,-102,-102,-112,-102
-58,-131,-73,95,7,-102,39,0,-117,-107,-117,-102
-53,-131,-78,92,12,-104,43,0,-122,-107,-122,-107
-58,-131,-73,95,7,-102,43,0,-122,-107,-122,-107
-58,-141,-82,100,12,-112,43,-4,-122,-112,-126,-112
-58,-146,-87,102,14,-117,48,-4,-126,-117,-131,-117
-63,-151,-87,107,12,-119,48,0,-131,-117,-141,-122
-68,-151,-82,109,7,-117,48,0,-131,-122,-146,-126
-68,-151,-82,109,7,-117,48,0,-131,-131,-146,-126
-68,-151,-82,109,7,-117,48,0,-131,-136,-146,-126
-68,-151,-82,109,7,-117,48,0,-131,-136,-146,-126
-68,-151,-82,109,7,-117,48,0,-131,-141,-146,-126
-68,-146,-78,107,4,-112,48,0,-136,-141,-141,-126
-73,-146,-73,109,0,-109,48,0,-136,-136,-141,-126
-73,-146,-73,109,0,-109,48,0,-131,-131,-141,-126
-68,-146,-78,107,4,-112,48,0,-126,-131,-141,-131
-68,-146,-78,107,4,-112,48,0,-126,-131,-141,-131
-68,-146,-78,107,4,-112,48,0,-126,-131,-146,-131
-73,-146,-73,109,0,-109,48,-4,-126,-136,-146,-131
-73,-146,-73,109,0,-109,48,-9,-126,-141,-146,-131
-73,-146,-73,109,0,-109,48,-9,-126,-136,-146,-131
-73,-146,-73,109,0,-109,48,-4,-126,-136,-146,-131
-73,-141,-68,107,-2,-104,48,-4,-126,-136,-151,-131
-73,-136,-63,104,-4,-100,53,-4,-131,-131,-151,-131
-73,-141,-68,107,-2,-104,48,-4,-126,-131,-151,-131
-68,-141,-73,104,2,-107,43,-4,-126,-131,-151,-131
-68,-141,-73,104,2,-107,43,-4,-126,-131,-151,-126
-68,-141,-73,104,2,-107,43,-4,-126,-131,-151,-126
-68,-141,-73,104,2,-107,43,-4,-126,-131,-151,-126
-68,-136,-68,102,0,-102,43,-4,-122,-131,-151,-126
-68,-136,-68,102,0,-102,43,-4,-122,-131,-156,-126
-68,-136,-68,102,0,-102,43,-4,-122,-131,-156,-126
-68,-141,-73,104,2,-107,43,-4,-122,-131,-156,-126
-68,-141,-73,104,2,-107,43,-4,-122,-126,-156,-131
-68,-141,-73,104,2,-107,43,0,-122,-122,-151,-131
-68,-141,-73,104,2,-107,43,0,-122,-122,-146,-131
-68,-146,-78,107,4,-112,43,0,-122,-122,-146,-131
-68,-151,-82,109,7,-117,43,-4,-122,-122,-151,-131
-68,-146,-78,107,4,-112,43,-4,-122,-122,-151,-131
-68,-136,-68,102,0,-102,43,-4,-126,-117,-151,-131
-68,-136,-68,102,0,-102,43,-4,-126,-117,-151,-136
-68,-136,-68,102,0,-102,43,-4,-126,-122,-156,-136
-73,-136,-63,104,-4,-100,43,-4,-126,-122,-156,-136
-78,-136,-58,107,-9,-97,43,-4,-126,-126,-156,-136
-78,-136,-58,107,-9,-97,43,-4,-126,-131,-156,-136
-78,-136,-58,107,-9,-97,43,-9,-126,-136,-156,-136
-78,-141,-63,109,-7,-102,43,-9,-122,-126,-151,-131
-78,-146,-68,112,-4,-107,48,-9,-122,-122,-146,-131
-78,-146,-68,112,-4,-107,48,-9,-122,-126,-151,-136
-78,-146,-68,112,-4,-107,48,-9,-126,-136,-156,-146
-78,-146,-68,112,-4,-107,48,-9,-126,-136,-156,-146
-78,-146,-68,112,-4,-107,48,-9,-126,-136,-156,-146
-78,-136,-58,107,-9,-97,43,-9,-122,-126,-151,-141
-73,-117,-43,95,-14,-80,43,-4,-107,-117,-141,-131
-73,-102,-29,87,-21,-65,48,0,-97,-107,-131,-122
-68,-92,-24,80,-21,-58,58,0,-87,-97,-122,-107
-63,-87,-24,75,-19,-56,58,4,-82,-92,-122,-107
-53,-82,-29,68,-12,-56,58,9,-78,-92,-122,-102
-48,-73,-24,61,-12,-48,73,19,-68,-87,-112,-102
-48,-63,-14,56,-17,-39,73,19,-63,-82,-107,-92
-48,-58,-9,53,-19,-34,73,19,-48,-73,-107,-97
-48,-34,14,41,-31,-9,73,9,-43,-63,-97,-87
-48,-14,34,31,-41,9,19,-29,-43,-58,-87,-78
-39,0,39,19,-39,19,-29,-48,-43,-48,-73,-63
-19,43,63,-12,-41,53,-29,-48,-24,-29,-53,-39
-19,63,82,-21,-51,73,-24,-39,-9,-24,-53,-34
-14,63,78,-24,-46,70,0,-24,-9,-24,-53,-34
-14,43,58,-14,-36,51,19,-14,-9,-29,-58,-39
-4,29,34,-12,-19,31,19,-19,-29,-39,-68,-48
0,-4,-4,2,2,-4,14,-19,-58,-58,-78,-63
0,-53,-53,26,26,-53,0,-19,-102,-92,-112,-87
-24,-82,-58,53,17,-70,9,-19,-112,-112,-126,-107
-58,-102,-43,80,-7,-73,29,-14,-117,-117,-136,-117
-78,-136,-58,107,-9,-97,39,-14,-117,-126,-151,-136
-82,-136,-53,109,-14,-95,48,-14,-112,-126,-151,-136
-82,-136,-53,109,-14,-95,53,-9,-112,-126,-151,-136
-82,-136,-53,109,-14,-95,48,-9,-122,-136,-161,-141
-82,-151,-68,117,-7,-109,43,-14,-131,-141,-170,-146
-82,-156,-73,119,-4,-114,39,-19,-136,-146,-175,-151
-82,-165,-82,124,0,-124,39,-24,-141,-151,-180,-161
-82,-175,-92,129,4,-134,39,-19,-141,-151,-180,-161
-78,-175,-97,126,9,-136,39,-19,-141,-151,-180,-161
-82,-175,-92,129,4,-134,43,-19,-141,-151,-175,-156
-82,-175,-92,129,4,-134,48,-14,-141,-151,-170,-151
-82,-175,-92,129,4,-134,53,-14,-141,-151,-170,-156
-87,-175,-87,131,0,-131,58,-14,-141,-151,-175,-156
-87,-180,-92,134,2,-136,58,-9,-146,-156,-180,-161
-87,-190,-102,139,7,-146,58,-9,-151,-161,-185,-165
-87,-195,-107,141,9,-151,58,-9,-151,-161,-185,-165
-92,-195,-102,143,4,-148,53,-4,-146,-161,-185,-165
-92,-185,-92,139,0,-139,58,-4,-141,-156,-180,-161
-92,-180,-87,136,-2,-134,58,0,-136,-151,-180,-161
-97,-195,-97,146,0,-146,78,14,-131,-170,-195,-180
-122,-268,-146,195,12,-207,146,58,-131,-229,-263,-244
-165,-351,-185,258,9,-268,248,122,-126,-317,-356,-322
-175,-380,-204,278,14,-292,278,141,-107,-346,-385,-346
-195,-370,-175,283,-9,-273,273,136,-73,-336,-380,-331
-136,-258,-122,197,-7,-190,185,131,73,-161,-253,-234
39,43,4,-41,17,24,-29,131,405,317,126,29
244,361,117,-302,63,239,-278,82,741,936,600,346
419,624,204,-522,107,414,-468,48,1088,1605,1058,634
546,834,287,-690,129,561,-595,-43,1224,2108,1424,868
634,1141,507,-888,63,824,-819,-209,1137,2269,1605,1083
590,1288,697,-939,-53,993,-995,-507,585,1790,1429,1112
302,1093,790,-697,-244,941,-1029,-1019,-507,429,756,829
-29,658,688,-314,-358,673,-936,-1254,-1464,-785,-4,395
-53,214,268,-80,-161,241,-692,-819,-1312,-766,-204,112
-58,-58,0,58,-29,-29,-551,-575,-1205,-736,-312,-53
-58,-146,-87,102,14,-117,-322,-326,-956,-614,-341,-141
-58,-126,-68,92,4,-97,-141,-156,-692,-468,-292,-126
-63,-87,-24,75,-19,-56,-97,-107,-478,-346,-219,-107
-63,-82,-19,73,-21,-51,-63,-73,-331,-263,-165,-92
-63,-73,-9,68,-26,-41,-9,-34,-229,-195,-136,-87
-68,-73,-4,70,-31,-39,9,-24,-161,-165,-136,-87
-82,-87,-4,85,-39,-46,24,-19,-146,-165,-136,-107
-82,-97,-14,90,-34,-56,24,-19,-131,-161,-131,-112
-78,-102,-24,90,-26,-63,29,-14,-122,-156,-136,-107
-73,-112,-39,92,-17,-75,43,0,-112,-151,-146,-112
-73,-117,-43,95,-14,-80,53,9,-102,-146,-146,-117
-73,-117,-43,95,-14,-80,58,9,-87,-136,-146,-117
-73,-117,-43,95,-14,-80,58,9,-78,-131,-141,-117
-73,-117,-43,95,-14,-80,63,9,-73,-126,-136,-117
-73,-117,-43,95,-14,-80,68,14,-68,-126,-136,-117
-73,-117,-43,95,-14,-80,68,14,-63,-122,-131,-117
-73,-112,-39,92,-17,-75,68,19,-58,-112,-131,-112
-73,-112,-39,92,-17,-75,68,24,-48,-107,-131,-107
-73,-112,-39,92,-17,-75,68,24,-43,-102,-131,-107
-68,-107,-39,87,-14,-73,73,29,-39,-97,-126,-102
-68,-102,-34,85,-17,-68,73,34,-29,-92,-122,-102
-68,-97,-29,82,-19,-63,73,43,-19,-87,-122,-102
-63,-97,-34,80,-14,-65,73,43,-14,-82,-117,-102
-63,-92,-29,78,-17,-61,73,48,-14,-78,-117,-97
-58,-92,-34,75,-12,-63,73,48,-4,-78,-112,-97
-58,-92,-34,75,-12,-63,73,43,4,-68,-107,-92
-58,-82,-24,70,-17,-53,78,48,14,-63,-102,-92
-58,-73,-14,65,-21,-43,78,53,24,-58,-92,-87
-53,-73,-19,63,-17,-46,78,53,29,-63,-87,-87
-53,-63,-9,58,-21,-36,73,58,39,-58,-87,-82
-53,-68,-14,61,-19,-41,73,58,43,-48,-87,-82
-53,-68,-14,61,-19,-41,78,63,48,-43,-78,-78
-43,-63,-19,53,-12,-41,78,73,63,-39,-73,-78
-43,-63,-19,53,-12,-41,78,82,73,-29,-68,-73
-43,-53,-9,48,-17,-31,78,82,82,-19,-63,-68
-39,-43,-4,41,-17,-24,78,82,92,-9,-53,-63
-29,-34,-4,31,-12,-19,73,87,112,0,-39,-53
-29,-24,4,26,-17,-9,73,92,131,14,-24,-39
-19,-14,4,17,-12,-4,73,102,131,24,-14,-29
-14,0,14,7,-14,7,73,112,146,39,0,-19
-14,14,29,0,-21,21,73,117,165,58,9,-9
-4,39,43,-17,-24,41,73,122,185,73,14,4
0,58,58,-29,-29,58,73,131,209,97,39,19
9,82,73,-46,-31,78,73,141,239,117,58,34
14,102,87,-58,-36,95,68,151,263,136,78,53
24,131,107,-78,-41,119,63,156,283,165,102,78
34,170,136,-102,-51,153,58,165,312,190,126,107
39,195,156,-117,-58,175,58,170,346,224,156,126
53,239,185,-146,-65,212,53,175,375,258,185,151
58,268,209,-163,-75,239,39,175,395,287,219,180
73,317,244,-195,-85,280,29,180,419,322,253,209
82,361,278,-222,-97,319,19,185,448,361,287,239
97,405,307,-251,-104,356,9,185,473,395,322,268
107,439,331,-273,-112,385,4,185,507,434,356,302
122,473,351,-297,-114,412,-9,185,522,468,390,331
136,512,375,-324,-119,444,-19,180,541,497,419,361
146,541,395,-344,-124,468,-29,175,561,536,448,385
156,566,409,-361,-126,488,-39,165,575,566,473,405
161,590,429,-375,-134,509,-53,161,580,585,502,429
170,605,434,-387,-131,519,-63,146,580,595,522,439
180,614,434,-397,-126,524,-73,136,580,605,527,453
185,614,429,-400,-122,522,-78,131,566,610,527,458
175,600,424,-387,-124,512,-87,112,541,590,512,444
165,570,405,-368,-119,488,-92,102,497,561,483,419
156,522,366,-339,-104,444,-82,87,463,522,448,385
136,478,341,-307,-102,409,-73,73,419,468,409,351
117,424,307,-270,-95,366,-63,63,370,405,361,312
97,361,263,-229,-82,312,-58,48,317,346,307,263
73,302,229,-187,-78,265,-48,39,268,287,258,214
58,248,190,-153,-65,219,-34,29,219,229,204,170
43,200,156,-122,-56,178,-24,24,170,180,156,136
29,151,122,-90,-46,136,-14,19,122,136,112,97
9,102,92,-56,-41,97,-4,14,87,97,73,63
-9,58,68,-24,-39,63,4,4,48,48,29,29
-14,29,43,-7,-29,36,9,-4,24,9,0,0
-19,0,19,9,-19,9,14,-4,-9,-14,-24,-19
-29,-24,4,26,-17,-9,24,-4,-34,-39,-43,-34
-34,-48,-14,41,-9,-31,24,-9,-53,-53,-63,-48
-39,-63,-24,51,-7,-43,24,-14,-68,-78,-78,-58
-43,-73,-29,58,-7,-51,24,-14,-82,-87,-82,-68
-48,-82,-34,65,-7,-58,29,-19,-97,-97,-97,-82
-58,-92,-34,75,-12,-63,29,-19,-107,-107,-107,-87
-58,-97,-39,78,-9,-68,24,-19,-112,-117,-107,-92
-58,-102,-43,80,-7,-73,19,-19,-126,-126,-117,-92
-53,-102,-48,78,-2,-75,24,-19,-131,-126,-122,-97
-58,-102,-43,80,-7,-73,24,-19,-131,-126,-122,-97
-58,-112,-53,85,-2,-82,24,-29,-131,-131,-126,-97
-58,-117,-58,87,0,-87,29,-34,-136,-136,-131,-97
-58,-122,-63,90,2,-92,29,-29,-141,-136,-136,-102
-58,-122,-63,90,2,-92,29,-29,-141,-141,-136,-107
-58,-122,-63,90,2,-92,34,-24,-136,-146,-136,-102
-58,-122,-63,90,2,-92,39,-19,-131,-146,-136,-97
-58,-122,-63,90,2,-92,39,-19,-131,-146,-136,-97
-58,-122,-63,90,2,-92,39,-19,-131,-151,-136,-97
-58,-122,-63,90,2,-92,34,-19,-141,-156,-136,-102
-63,-126,-63,95,0,-95,29,-19,-146,-156,-141,-107
-63,-126,-63,95,0,-95,29,-19,-146,-156,-141,-107
-58,-126,-68,92,4,-97,29,-19,-146,-161,-141,-112
-58,-126,-68,92,4,-97,29,-24,-146,-161,-136,-112
-58,-126,-68,92,4,-97,29,-29,-146,-161,-136,-112
-63,-126,-63,95,0,-95,29,-29,-141,-161,-136,-112
-63,-126,-63,95,0,-95,29,-29,-136,-161,-136,-112
-63,-126,-63,95,0,-95,29,-29,-136,-156,-141,-112
-63,-126,-63,95,0,-95,29,-24,-136,-156,-146,-112
-63,-126,-63,95,0,-95,24,-24,-136,-156,-146,-112
-63,-126,-63,95,0,-95,24,-24,-141,-151,-141,-112
-68,-131,-63,100,-2,-97,24,-24,-136,-151,-141,-112
-68,-131,-63,100,-2,-97,24,-24,-136,-151,-141,-112
-68,-136,-68,102,0,-102,29,-24,-136,-151,-141,-112
-68,-141,-73,104,2,-107,34,-24,-136,-151,-141,-117
-68,-141,-73,104,2,-107,34,-24,-136,-151,-141,-112
-68,-136,-68,102,0,-102,34,-24,-131,-151,-141,-107
-63,-131,-68,97,2,-100,29,-24,-131,-151,-146,-107
-58,-126,-68,92,4,-97,24,-24,-131,-151,-146,-107
-58,-131,-73,95,7,-102,24,-24,-131,-151,-146,-107
-58,-131,-73,95,7,-102,24,-24,-131,-146,-146,-112
-58,-131,-73,95,7,-102,29,-19,-131,-141,-146,-112
-58,-131,-73,95,7,-102,34,-19,-131,-141,-146,-112
-58,-136,-78,97,9,-107,34,-19,-131,-141,-146,-112
-58,-141,-82,100,12,-112,34,-24,-131,-141,-151,-112
-58,-141,-82,100,12,-112,34,-24,-131,-146,-151,-112
-58,-136,-78,97,9,-107,34,-24,-136,-146,-151,-112
-58,-136,-78,97,9,-107,34,-24,-136,-146,-146,-117
-58,-136,-78,97,9,-107,34,-24,-136,-151,-146,-117
-58,-141,-82,100,12,-112,29,-24,-136,-151,-146,-117
-58,-146,-87,102,14,-117,24,-24,-136,-156,-146,-117
-58,-146,-87,102,14,-117,24,-24,-136,-156,-146,-117
-58,-146,-87,102,14,-117,24,-29,-136,-156,-146,-117
-58,-151,-92,104,17,-122,29,-29,-136,-156,-146,-117
-58,-151,-92,104,17,-122,34,-24,-141,-156,-141,-117
-58,-146,-87,102,14,-117,29,-24,-136,-156,-141,-117
-58,-146,-87,102,14,-117,29,-29,-136,-156,-146,-117
-58,-146,-87,102,14,-117,29,-29,-136,-156,-146,-117
-58,-146,-87,102,14,-117,29,-29,-136,-156,-146,-117
-58,-141,-82,100,12,-112,34,-29,-136,-151,-146,-117
-58,-131,-73,95,7,-102,39,-29,-131,-141,-141,-112
-63,-126,-63,95,0,-95,43,-29,-126,-136,-136,-107
-63,-102,-39,82,-12,-70,48,-19,-107,-126,-122,-97
-58,-87,-29,73,-14,-58,53,-19,-97,-117,-112,-87
-53,-78,-24,65,-14,-51,48,-14,-92,-112,-112,-87
-39,-73,-34,56,-2,-53,48,-9,-87,-112,-112,-82
-29,-63,-34,46,2,-48,63,0,-78,-107,-102,-82
-29,-53,-24,41,-2,-39,68,4,-73,-107,-97,-73
-29,-48,-19,39,-4,-34,73,9,-58,-102,-97,-73
-29,-29,0,29,-14,-14,73,0,-53,-92,-87,-58
-24,-14,9,19,-17,-2,19,-39,-53,-87,-78,-48
-9,0,9,4,-9,4,-34,-63,-53,-78,-63,-34
9,39,29,-24,-9,34,-39,-68,-39,-58,-43,-14
4,58,53,-31,-24,56,-34,-58,-29,-53,-43,-14
4,63,58,-34,-26,61,-14,-43,-29,-53,-43,-14
4,43,39,-24,-17,41,0,-34,-29,-58,-48,-19
9,24,14,-17,-2,19,0,-34,-48,-68,-58,-29
14,-14,-29,0,21,-21,-4,-29,-78,-82,-68,-43
19,-63,-82,21,51,-73,-19,-29,-122,-112,-102,-68
-4,-92,-87,48,41,-90,-9,-29,-126,-131,-117,-87
-39,-112,-73,75,17,-92,9,-29,-126,-136,-126,-97
-58,-146,-87,102,14,-117,19,-34,-126,-146,-136,-117
-63,-146,-82,104,9,-114,29,-34,-122,-146,-131,-117
-63,-146,-82,104,9,-114,34,-29,-122,-146,-131,-117
-63,-146,-82,104,9,-114,34,-29,-131,-156,-141,-122
-63,-161,-97,112,17,-129,34,-34,-146,-165,-151,-126
-63,-165,-102,114,19,-134,29,-34,-156,-175,-156,-131
-63,-175,-112,119,24,-143,29,-34,-161,-180,-165,-141
-68,-185,-117,126,24,-151,29,-29,-161,-180,-170,-141
-68,-185,-117,126,24,-151,29,-29,-156,-175,-170,-141
-73,-185,-112,129,19,-148,34,-29,-151,-170,-170,-141
-73,-185,-112,129,19,-148,43,-24,-151,-170,-170,-141
-73,-185,-112,129,19,-148,53,-24,-151,-170,-170,-146
-78,-185,-107,131,14,-146,58,-24,-151,-170,-170,-146
-78,-185,-107,131,14,-146,58,-19,-151,-170,-165,-146
-78,-190,-112,134,17,-151,58,-19,-151,-170,-165,-146
-78,-195,-117,136,19,-156,63,-19,-151,-170,-165,-146
-82,-195,-112,139,14,-153,63,-14,-146,-170,-165,-146
-82,-195,-112,139,14,-153,68,-14,-146,-170,-165,-146
-82,-200,-117,141,17,-158,68,-9,-151,-175,-175,-151
-92,-214,-122,153,14,-168,87,4,-151,-200,-195,-170
-122,-297,-175,209,26,-236,151,48,-156,-263,-263,-234
-165,-375,-209,270,21,-292,244,112,-146,-336,-341,-302
-175,-380,-204,278,14,-292,268,131,-117,-346,-356,-317
-165,-336,-170,251,2,-253,239,131,-58,-297,-322,-287
-78,-200,-122,139,21,-161,131,141,141,-73,-165,-175
107,92,-14,-100,61,39,-78,151,483,405,200,87
322,400,78,-361,122,239,-326,102,810,1015,658,405
488,649,161,-568,163,405,-517,48,1093,1576,1054,663
605,844,239,-724,183,541,-653,-58,1156,1995,1361,868
658,1107,448,-883,104,778,-878,-263,1005,2059,1488,1044
590,1210,619,-900,-14,915,-1044,-605,351,1473,1273,1044
331,1000,668,-666,-168,834,-1063,-1049,-639,297,692,790
19,551,531,-285,-256,541,-956,-1220,-1464,-775,-4,375
-4,161,165,-78,-85,163,-697,-790,-1298,-741,-185,122
-9,-48,-39,29,14,-43,-531,-551,-1141,-668,-263,-14
-14,-126,-112,70,48,-119,-307,-317,-878,-561,-283,-102
-24,-107,-82,65,29,-95,-141,-156,-624,-429,-229,-87
-34,-68,-34,51,0,-51,-97,-112,-424,-312,-175,-68
-39,-73,-34,56,-2,-53,-68,-87,-297,-244,-141,-58
-43,-73,-29,58,-7,-51,-19,-53,-214,-190,-117,-58
-48,-73,-24,61,-12,-48,0,-43,-161,-165,-117,-58
-63,-87,-24,75,-19,-56,14,-39,-146,-165,-122,-78
-63,-97,-34,80,-14,-65,14,-34,-131,-161,-122,-87
-63,-102,-39,82,-12,-70,19,-24,-126,-161,-126,-92
-63,-112,-48,87,-7,-80,34,-9,-122,-161,-136,-102
-63,-117,-53,90,-4,-85,43,0,-112,-156,-136,-107
-63,-117,-53,90,-4,-85,48,0,-97,-146,-136,-107
-63,-117,-53,90,-4,-85,48,4,-87,-141,-131,-107
-63,-117,-53,90,-4,-85,53,9,-82,-136,-126,-107
-63,-117,-53,90,-4,-85,58,14,-73,-136,-126,-107
-63,-117,-53,90,-4,-85,58,14,-63,-136,-122,-107
-63,-112,-48,87,-7,-80,58,19,-58,-131,-117,-102
-63,-112,-48,87,-7,-80,58,24,-48,-126,-112,-97
-63,-112,-48,87,-7,-80,58,24,-43,-122,-112,-97
-58,-107,-48,82,-4,-78,68,29,-39,-117,-107,-92
-58,-102,-43,80,-7,-73,73,29,-29,-112,-102,-92
-58,-97,-39,78,-9,-68,73,34,-19,-107,-102,-87
-53,-97,-43,75,-4,-70,73,34,-14,-102,-97,-82
-53,-92,-39,73,-7,-65,68,39,-14,-92,-97,-78
-48,-92,-43,70,-2,-68,63,43,-4,-87,-92,-78
-48,-92,-43,70,-2,-68,63,43,4,-78,-87,-73
-48,-87,-39,68,-4,-63,68,48,9,-73,-87,-73
-48,-78,-29,63,-9,-53,73,53,14,-68,-82,-68
-43,-73,-29,58,-7,-51,78,53,19,-68,-78,-68
-43,-63,-19,53,-12,-41,73,58,29,-58,-78,-63
-43,-63,-19,53,-12,-41,73,58,39,-48,-73,-63
-43,-58,-14,51,-14,-36,78,58,48,-43,-58,-58
-34,-48,-14,41,-9,-31,78,63,63,-39,-53,-53
-34,-48,-14,41,-9,-31,78,73,73,-29,-48,-43
-34,-43,-9,39,-12,-26,78,73,82,-19,-43,-39
-29,-34,-4,31,-12,-19,78,78,92,-9,-34,-34
-19,-24,-4,21,-7,-14,73,87,112,0,-24,-29
-19,-9,9,14,-14,0,73,92,136,14,-14,-19
-9,4,14,2,-12,9,73,102,146,24,-4,-9
-4,19,24,-7,-14,21,73,112,165,34,9,0
-4,34,39,-14,-21,36,73,117,185,48,24,9
4,58,53,-31,-24,56,73,122,204,63,34,24
9,78,68,-43,-29,73,73,131,224,87,58,39
19,102,82,-61,-31,92,78,141,248,107,78,53
24,122,97,-73,-36,109,78,151,273,126,97,73
34,151,117,-92,-41,134,78,156,292,156,122,97
43,190,146,-117,-51,168,78,165,322,180,146,126
48,214,165,-131,-58,190,78,170,356,214,175,146
68,258,190,-163,-61,224,73,180,385,248,204,170
78,287,209,-183,-65,248,58,185,405,278,239,200
92,331,239,-212,-73,285,48,190,429,312,273,229
102,370,268,-236,-82,319,39,195,458,351,307,258
117,414,297,-265,-90,356,29,195,483,385,341,287
122,448,326,-285,-102,387,29,195,522,424,375,322
131,483,351,-307,-109,417,19,195,541,458,409,351
146,522,375,-334,-114,448,9,195,561,488,444,380
156,551,395,-353,-119,473,-4,195,575,522,478,405
170,575,405,-373,-117,490,-19,185,585,551,502,424
180,600,419,-390,-119,509,-34,180,590,575,527,448
190,610,419,-400,-114,514,-48,165,590,585,541,458
195,614,419,-405,-112,517,-63,151,590,590,546,468
195,614,419,-405,-112,517,-68,136,570,585,541,468
185,595,409,-390,-112,502,-73,112,541,561,522,453
175,561,385,-368,-104,473,-78,102,497,531,492,429
165,512,346,-339,-90,429,-73,87,463,492,453,395
146,468,322,-307,-87,395,-63,73,414,439,409,361
126,414,287,-270,-80,351,-53,63,361,380,361,322
107,351,244,-229,-68,297,-48,48,307,326,312,273
82,292,209,-187,-63,251,-39,39,258,268,268,224
68,239,170,-153,-51,204,-29,29,209,209,214,180
53,190,136,-122,-41,163,-24,19,161,161,165,146
39,141,102,-90,-31,122,-14,9,112,122,122,112
19,92,73,-56,-26,82,-4,4,78,78,87,82
0,48,48,-24,-24,48,0,-4,43,29,48,48
-9,19,29,-4,-19,24,0,-14,24,0,19,19
-19,-9,9,14,-14,0,4,-14,-9,-24,-4,0
-29,-34,-4,31,-12,-19,14,-14,-34,-48,-24,-14
-34,-53,-19,43,-7,-36,9,-24,-53,-63,-43,-29
-39,-63,-24,51,-7,-43,4,-34,-68,-87,-58,-39
-43,-73,-29,58,-7,-51,4,-34,-82,-97,-63,-48
-43,-82,-39,63,-2,-61,9,-39,-92,-107,-78,-63
-48,-92,-43,70,-2,-68,9,-39,-97,-112,-82,-68
-48,-97,-48,73,0,-73,9,-39,-102,-117,-78,-73
-48,-102,-53,75,2,-78,9,-39,-117,-126,-87,-73
-48,-102,-53,75,2,-78,14,-39,-122,-126,-92,-78
-58,-102,-43,80,-7,-73,14,-39,-122,-126,-92,-78
-58,-112,-53,85,-2,-82,14,-43,-122,-131,-97,-78
-58,-117,-58,87,0,-87,19,-43,-126,-136,-102,-78
-58,-122,-63,90,2,-92,19,-39,-131,-136,-107,-82
-58,-117,-58,87,0,-87,19,-39,-131,-141,-107,-87
-58,-112,-53,85,-2,-82,19,-39,-131,-146,-107,-87
-58,-112,-53,85,-2,-82,19,-39,-131,-146,-107,-87
-58,-112,-53,85,-2,-82,19,-39,-131,-146,-107,-87
-53,-112,-58,82,2,-85,19,-39,-131,-151,-107,-87
-48,-112,-63,80,7,-87,19,-39,-136,-151,-107,-87
-53,-117,-63,85,4,-90,19,-39,-136,-146,-112,-87
-53,-117,-63,85,4,-90,19,-39,-136,-146,-112,-87
-48,-117,-68,82,9,-92,19,-39,-136,-151,-112,-92
-48,-117,-68,82,9,-92,19,-39,-136,-151,-112,-92
-48,-117,-68,82,9,-92,19,-39,-136,-151,-117,-92
-53,-117,-63,85,4,-90,19,-39,-136,-151,-117,-92
-58,-117,-58,87,0,-87,19,-39,-136,-156,-117,-92
-63,-117,-53,90,-4,-85,19,-39,-136,-156,-117,-92
-63,-117,-53,90,-4,-85,19,-34,-136,-156,-122,-92
-63,-117,-53,90,-4,-85,19,-34,-131,-156,-126,-92
-63,-117,-53,90,-4,-85,24,-34,-131,-151,-122,-92
-63,-122,-58,92,-2,-90,24,-34,-126,-151,-122,-92
-58,-122,-63,90,2,-92,24,-34,-126,-151,-117,-92
-58,-122,-63,90,2,-92,24,-34,-126,-151,-112,-92
-58,-122,-63,90,2,-92,24,-34,-126,-151,-112,-97
-58,-122,-63,90,2,-92,24,-34,-126,-151,-112,-97
-58,-122,-63,90,2,-92,24,-29,-122,-146,-112,-97
-58,-126,-68,92,4,-97,24,-24,-122,-141,-117,-97
-58,-126,-68,92,4,-97,24,-24,-122,-141,-117,-97
-58,-131,-73,95,7,-102,24,-24,-122,-141,-117,-97
-58,-131,-73,95,7,-102,24,-29,-122,-136,-117,-102
-58,-131,-73,95,7,-102,24,-29,-122,-136,-117,-102
-58,-126,-68,92,4,-97,24,-29,-122,-141,-117,-102
-58,-126,-68,92,4,-97,24,-29,-122,-141,-117,-102
-53,-131,-78,92,12,-104,24,-34,-122,-141,-122,-102
-48,-131,-82,90,17,-107,24,-34,-122,-141,-122,-102
-48,-126,-78,87,14,-102,24,-34,-126,-136,-122,-102
-48,-126,-78,87,14,-102,24,-34,-126,-136,-122,-107
-48,-131,-82,90,17,-107,24,-34,-126,-141,-126,-107
-48,-136,-87,92,19,-112,24,-34,-126,-141,-126,-107
-53,-136,-82,95,14,-109,24,-34,-126,-146,-126,-107
-58,-136,-78,97,9,-107,24,-34,-126,-146,-126,-107
-58,-136,-78,97,9,-107,24,-39,-126,-141,-126,-107
-58,-141,-82,100,12,-112,24,-39,-126,-136,-126,-107
-58,-141,-82,100,12,-112,24,-34,-131,-136,-122,-107
-58,-141,-82,100,12,-112,24,-34,-131,-136,-122,-107
-58,-131,-73,95,7,-102,19,-34,-131,-141,-117,-107
-58,-126,-68,92,4,-97,19,-39,-136,-146,-117,-107
-58,-131,-73,95,7,-102,19,-39,-136,-146,-117,-107
-58,-136,-78,97,9,-107,19,-39,-136,-146,-117,-107
-58,-136,-78,97,9,-107,19,-34,-136,-146,-122,-107
-58,-126,-68,92,4,-97,19,-29,-131,-141,-117,-102
-58,-122,-63,90,2,-92,24,-29,-126,-136,-117,-97
-53,-92,-39,73,-7,-65,29,-19,-107,-126,-102,-87
-48,-82,-34,65,-7,-58,39,-24,-97,-117,-92,-78
-43,-78,-34,61,-4,-56,39,-24,-92,-112,-92,-78
-34,-73,-39,53,2,-56,39,-19,-82,-112,-92,-73
-29,-63,-34,46,2,-48,53,-9,-68,-107,-82,-73
-29,-58,-29,43,0,-43,58,-4,-63,-102,-78,-63
-29,-58,-29,43,0,-43,63,0,-48,-92,-78,-63
-29,-34,-4,31,-12,-19,82,0,-43,-82,-68,-48
-24,-14,9,19,-17,-2,48,-29,-43,-78,-58,-39
-9,4,14,2,-12,9,-24,-58,-43,-68,-39,-19
9,48,39,-29,-14,43,-48,-68,-29,-48,-14,4
9,68,58,-39,-24,63,-43,-58,-19,-39,-14,4
14,73,58,-43,-21,65,-24,-43,-19,-34,-14,4
14,53,39,-34,-12,46,-4,-34,-14,-39,-14,0
19,34,14,-26,2,24,0,-34,-29,-48,-19,-9
24,0,-24,-12,24,-12,-4,-29,-58,-63,-29,-24
29,-43,-73,7,51,-58,-19,-29,-102,-92,-63,-48
19,-73,-92,26,56,-82,-9,-29,-112,-112,-78,-68
0,-92,-92,46,46,-92,9,-29,-117,-117,-87,-78
-39,-131,-92,85,26,-112,19,-34,-117,-131,-107,-102
-63,-136,-73,100,4,-104,29,-34,-112,-136,-112,-107
-63,-136,-73,100,4,-104,34,-29,-112,-136,-112,-107
-63,-136,-73,100,4,-104,34,-29,-122,-146,-122,-112
-58,-151,-92,104,17,-122,34,-39,-136,-151,-131,-117
-53,-156,-102,104,24,-129,29,-43,-146,-156,-136,-122
-53,-165,-112,109,29,-139,29,-43,-151,-165,-141,-131
-58,-175,-117,117,29,-146,29,-39,-151,-170,-141,-131
-63,-175,-112,119,24,-143,29,-34,-151,-170,-146,-131
-73,-175,-102,124,14,-139,34,-29,-151,-170,-151,-131
-73,-175,-102,124,14,-139,39,-24,-151,-170,-151,-131
-73,-175,-102,124,14,-139,43,-24,-151,-170,-151,-136
-78,-180,-102,129,12,-141,48,-29,-151,-170,-156,-136
-78,-185,-107,131,14,-146,48,-29,-151,-170,-156,-136
-78,-190,-112,134,17,-151,48,-29,-151,-170,-156,-136
-78,-195,-117,136,19,-156,53,-29,-151,-170,-156,-136
-78,-195,-117,136,19,-156,53,-24,-146,-170,-151,-136
-73,-195,-122,134,24,-158,58,-24,-146,-170,-146,-136
-73,-190,-117,131,21,-153,48,-29,-146,-156,-141,-131
-82,-195,-112,139,14,-153,58,-24,-141,-161,-146,-141
-112,-268,-156,190,21,-212,126,19,-161,-229,-224,-204
-156,-336,-180,246,12,-258,224,82,-165,-307,-312,-273
-190,-385,-195,287,2,-290,283,112,-161,-370,-361,-317
-204,-385,-180,295,-12,-283,287,122,-126,-375,-361,-317
-141,-307,-165,224,12,-236,214,141,4,-268,-292,-268
19,-73,-92,26,56,-82,39,161,278,92,-14,-68
253,248,-4,-251,129,122,-229,131,644,712,453,258
439,512,73,-475,183,292,-439,97,966,1283,858,527
600,717,117,-658,241,417,-566,43,1190,1903,1273,775
697,990,292,-844,202,641,-780,-107,1200,2166,1507,995
692,1234,541,-963,75,888,-1019,-473,688,1786,1444,1102
497,1166,668,-832,-85,917,-1112,-941,-161,814,1015,956
107,688,580,-397,-236,634,-1034,-1263,-1263,-536,185,502
4,268,263,-136,-129,265,-805,-985,-1376,-780,-126,209
0,-4,-4,2,2,-4,-634,-697,-1234,-707,-229,39
-4,-146,-141,75,68,-143,-405,-414,-985,-600,-273,-82
-19,-126,-107,73,43,-117,-209,-224,-712,-468,-229,-73
-34,-87,-53,61,9,-70,-136,-151,-492,-351,-185,-58
-34,-78,-43,56,4,-61,-92,-117,-336,-263,-136,-43
-34,-63,-29,48,-2,-46,-29,-73,-224,-190,-97,-39
-39,-63,-24,51,-7,-43,-9,-58,-165,-165,-97,-43
-53,-78,-24,65,-14,-51,4,-48,-146,-165,-102,-68
-53,-87,-34,70,-9,-61,4,-48,-131,-161,-102,-73
-53,-92,-39,73,-7,-65,9,-43,-126,-161,-107,-73
-53,-107,-53,80,0,-80,29,-24,-122,-161,-117,-82
-53,-117,-63,85,4,-90,43,-9,-112,-156,-117,-87
-58,-122,-63,90,2,-92,48,-9,-97,-146,-117,-92
-63,-126,-63,95,0,-95,48,-4,-87,-141,-112,-97
-63,-126,-63,95,0,-95,53,0,-82,-136,-107,-97
-63,-126,-63,95,0,-95,58,4,-73,-136,-107,-97
-63,-122,-58,92,-2,-90,58,4,-63,-131,-102,-97
-63,-112,-48,87,-7,-80,58,9,-58,-122,-97,-92
-63,-112,-48,87,-7,-80,58,14,-48,-117,-92,-87
-63,-112,-48,87,-7,-80,58,14,-43,-112,-92,-87
-58,-112,-53,85,-2,-82,63,19,-39,-107,-92,-82
-58,-112,-53,85,-2,-82,63,19,-29,-102,-92,-82
-58,-107,-48,82,-4,-78,63,24,-19,-97,-92,-82
-53,-107,-53,80,0,-80,63,24,-14,-92,-87,-82
-53,-102,-48,78,-2,-75,63,29,-14,-87,-87,-78
-48,-102,-53,75,2,-78,63,34,-4,-87,-82,-78
-48,-102,-53,75,2,-78,63,34,4,-78,-78,-73
-48,-97,-48,73,0,-73,68,39,9,-73,-78,-73
-48,-92,-43,70,-2,-68,68,43,19,-68,-73,-68
-43,-92,-48,68,2,-70,68,43,29,-68,-68,-68
-43,-82,-39,63,-2,-61,63,48,39,-58,-68,-63
-43,-82,-39,63,-2,-61,63,48,48,-48,-63,-63
-43,-82,-39,63,-2,-61,68,53,53,-43,-48,-58
-34,-78,-43,56,4,-61,68,63,63,-39,-43,-53
-34,-73,-39,53,2,-56,68,73,73,-29,-39,-43
-34,-63,-29,48,-2,-46,68,73,82,-19,-34,-39
-29,-53,-24,41,-2,-39,73,73,92,-9,-24,-34
-19,-43,-24,31,2,-34,73,78,112,0,-14,-29
-19,-34,-14,26,-2,-24,73,82,131,14,-4,-19
-9,-24,-14,17,2,-19,73,92,136,24,4,-9
-4,-9,-4,7,0,-7,73,102,156,34,19,0
-4,4,9,0,-7,7,73,107,175,48,34,9
4,29,24,-17,-9,26,78,122,195,63,39,24
9,48,39,-29,-14,43,82,141,214,87,58,39
14,68,53,-41,-19,61,87,151,239,107,78,48
14,82,68,-48,-26,75,87,161,263,126,97,63
24,107,82,-65,-29,95,82,165,283,151,122,82
34,141,107,-87,-36,124,78,175,312,170,146,107
39,165,126,-102,-43,146,78,180,346,204,175,126
58,209,151,-134,-46,180,73,190,375,239,204,151
68,239,170,-153,-51,204,63,195,400,268,239,180
82,283,200,-183,-58,241,58,200,429,302,273,209
92,322,229,-207,-68,275,48,209,458,341,307,239
107,366,258,-236,-75,312,39,214,483,375,341,268
117,400,283,-258,-82,341,34,214,517,414,375,302
131,434,302,-283,-85,368,19,214,531,448,409,331
146,478,331,-312,-92,405,9,214,556,478,439,361
156,512,356,-334,-100,434,-4,214,575,512,468,385
170,541,370,-356,-100,456,-19,204,585,541,492,409
180,570,390,-375,-104,480,-34,200,590,566,517,439
190,585,395,-387,-102,490,-43,185,595,580,536,453
195,595,400,-395,-102,497,-53,170,600,590,546,468
200,605,405,-402,-102,505,-63,161,595,600,556,473
195,595,400,-395,-102,497,-73,141,580,590,551,463
185,566,380,-375,-97,473,-78,131,536,561,527,444
175,522,346,-348,-85,434,-73,117,502,522,492,414
156,478,322,-317,-82,400,-63,97,458,478,448,380
136,424,287,-280,-75,356,-53,82,409,429,400,341
117,361,244,-239,-63,302,-53,68,351,375,346,297
92,302,209,-197,-58,256,-48,58,297,317,297,253
78,248,170,-163,-46,209,-39,43,248,258,244,209
63,200,136,-131,-36,168,-34,29,200,209,195,175
48,151,102,-100,-26,126,-24,19,151,165,151,136
29,102,73,-65,-21,87,-14,14,117,117,117,102
9,58,48,-34,-19,53,-4,0,78,58,78,63
0,29,29,-14,-14,29,0,-14,53,19,48,29
-9,0,9,4,-9,4,4,-14,19,-4,24,9
-19,-24,-4,21,-7,-14,14,-14,-4,-29,4,-4
-29,-53,-24,41,-2,-39,14,-19,-29,-43,-19,-19
-39,-73,-34,56,-2,-53,14,-24,-48,-68,-39,-29
-43,-82,-39,63,-2,-61,14,-24,-68,-78,-43,-39
-43,-92,-48,68,2,-70,19,-29,-82,-87,-58,-53
-48,-102,-53,75,2,-78,19,-29,-87,-102,-68,-63
-48,-107,-58,78,4,-82,19,-29,-92,-117,-68,-73
-48,-112,-63,80,7,-87,19,-29,-107,-126,-78,-73
-48,-112,-63,80,7,-87,24,-29,-112,-126,-82,-78
-58,-112,-53,85,-2,-82,24,-29,-112,-126,-82,-78
-58,-122,-63,90,2,-92,24,-34,-112,-131,-87,-78
-58,-126,-68,92,4,-97,29,-34,-112,-136,-92,-78
-58,-131,-73,95,7,-102,29,-29,-112,-136,-97,-82
-58,-136,-78,97,9,-107,29,-29,-112,-141,-97,-87
-58,-141,-82,100,12,-112,29,-29,-112,-146,-97,-87
-58,-141,-82,100,12,-112,29,-29,-117,-146,-97,-87
-58,-141,-82,100,12,-112,29,-29,-122,-146,-97,-87
-58,-141,-82,100,12,-112,29,-29,-122,-151,-97,-87
-58,-141,-82,100,12,-112,29,-29,-126,-151,-97,-87
-63,-141,-78,102,7,-109,29,-29,-126,-146,-102,-87
-63,-136,-73,100,4,-104,29,-29,-126,-146,-102,-87
-58,-136,-78,97,9,-107,29,-29,-126,-151,-102,-92
-58,-136,-78,97,9,-107,29,-29,-126,-151,-102,-92
-53,-136,-82,95,14,-109,29,-29,-122,-151,-107,-92
-53,-136,-82,95,14,-109,29,-29,-117,-151,-107,-92
-53,-136,-82,95,14,-109,29,-29,-117,-151,-107,-92
-53,-136,-82,95,14,-109,29,-29,-117,-146,-107,-92
-53,-136,-82,95,14,-109,29,-24,-117,-146,-107,-92
-53,-136,-82,95,14,-109,29,-24,-112,-146,-107,-92
-58,-136,-78,97,9,-107,34,-24,-117,-141,-102,-92
-63,-141,-78,102,7,-109,34,-24,-117,-141,-102,-92
-58,-146,-87,102,14,-117,34,-24,-117,-141,-107,-92
-58,-151,-92,104,17,-122,34,-24,-117,-141,-112,-92
-58,-151,-92,104,17,-122,34,-24,-117,-141,-112,-97
-58,-151,-92,104,17,-122,34,-24,-117,-141,-112,-97
-53,-141,-87,97,17,-114,29,-24,-107,-141,-107,-97
-48,-136,-87,92,19,-112,24,-24,-102,-141,-107,-97
-48,-136,-87,92,19,-112,24,-24,-102,-141,-107,-97
-48,-141,-92,95,21,-117,24,-24,-102,-141,-107,-97
-53,-146,-92,100,19,-119,24,-29,-102,-136,-107,-102
-58,-151,-92,104,17,-122,24,-29,-102,-136,-107,-102
-58,-151,-92,104,17,-122,24,-29,-107,-141,-107,-102
-58,-156,-97,107,19,-126,24,-29,-112,-141,-107,-102
-58,-156,-97,107,19,-126,29,-29,-112,-141,-112,-102
-58,-151,-92,104,17,-122,34,-24,-112,-141,-112,-102
-58,-146,-87,102,14,-117,34,-24,-117,-136,-112,-102
-58,-146,-87,102,14,-117,34,-24,-117,-136,-112,-107
-58,-146,-87,102,14,-117,34,-24,-117,-141,-117,-107
-58,-146,-87,102,14,-117,34,-24,-117,-141,-117,-107
-58,-151,-92,104,17,-122,34,-24,-117,-146,-117,-107
-58,-156,-97,107,19,-126,34,-24,-117,-146,-117,-107
-58,-156,-97,107,19,-126,29,-29,-117,-146,-117,-107
-58,-161,-102,109,21,-131,24,-29,-117,-146,-117,-107
-58,-161,-102,109,21,-131,24,-24,-122,-146,-112,-107
-58,-161,-102,109,21,-131,24,-24,-122,-146,-112,-107
-58,-151,-92,104,17,-122,24,-19,-122,-146,-117,-102
-58,-146,-87,102,14,-117,29,-19,-122,-151,-122,-102
-58,-151,-92,104,17,-122,29,-19,-117,-146,-117,-97
-58,-156,-97,107,19,-126,29,-19,-117,-146,-117,-97
-58,-156,-97,107,19,-126,29,-19,-117,-146,-117,-97
-58,-156,-97,107,19,-126,29,-19,-117,-146,-117,-97
-53,-141,-87,97,17,-114,29,-19,-107,-136,-112,-92
-48,-122,-73,85,12,-97,34,-14,-92,-126,-102,-82
-43,-102,-58,73,7,-80,43,-9,-78,-117,-92,-78
-39,-92,-53,65,7,-73,58,-9,-68,-107,-82,-68
-39,-92,-53,65,7,-73,58,-4,-63,-102,-82,-68
-34,-92,-58,63,12,-75,58,0,-58,-102,-82,-63
-29,-82,-53,56,12,-68,68,9,-48,-97,-73,-63
-29,-73,-43,51,7,-58,63,9,-43,-92,-68,-53
-24,-68,-43,46,9,-56,63,9,-34,-82,-68,-53
-19,-43,-24,31,2,-34,63,0,-34,-73,-58,-39
-14,-24,-9,19,-2,-17,9,-39,-34,-68,-48,-34
0,-9,-9,4,4,-9,-39,-58,-34,-58,-34,-24
19,24,4,-21,7,14,-39,-58,-14,-39,-14,-4
19,34,14,-26,2,24,-34,-48,0,-34,-14,-4
24,34,9,-29,7,21,-14,-34,0,-34,-14,0
24,14,-9,-19,17,2,0,-24,0,-39,-19,0
29,-4,-34,-12,31,-19,0,-24,-19,-43,-29,-9
29,-43,-73,7,51,-58,-4,-19,-48,-58,-39,-24
29,-92,-122,31,75,-107,-19,-19,-92,-92,-73,-48
4,-122,-126,58,65,-124,-9,-19,-102,-112,-87,-68
-29,-141,-112,85,41,-126,9,-19,-107,-117,-97,-78
-48,-175,-126,112,39,-151,19,-24,-107,-126,-112,-97
-53,-175,-122,114,34,-148,29,-24,-102,-131,-112,-102
-53,-175,-122,114,34,-148,34,-19,-102,-136,-112,-107
-58,-175,-117,117,29,-146,39,-19,-112,-146,-122,-112
-63,-190,-126,126,31,-158,43,-24,-122,-151,-131,-117
-63,-200,-136,131,36,-168,39,-24,-131,-156,-136,-122
-63,-214,-151,139,43,-183,39,-24,-141,-161,-141,-131
-68,-224,-156,146,43,-190,39,-19,-141,-161,-141,-131
-68,-224,-156,146,43,-190,39,-19,-141,-161,-141,-131
-73,-224,-151,148,39,-187,43,-19,-136,-161,-141,-131
-73,-224,-151,148,39,-187,48,-14,-131,-161,-141,-131
-73,-224,-151,148,39,-187,53,-14,-131,-161,-141,-131
-78,-224,-146,151,34,-185,58,-14,-131,-161,-146,-126
-78,-224,-146,151,34,-185,58,-9,-131,-161,-146,-126
-78,-229,-151,153,36,-190,58,-9,-131,-161,-146,-126
-78,-234,-156,156,39,-195,63,-9,-131,-161,-146,-126
-82,-234,-151,158,34,-192,63,-4,-126,-161,-146,-126
-82,-234,-151,158,34,-192,68,-4,-131,-161,-146,-126
-82,-239,-156,161,36,-197,68,0,-136,-161,-151,-131
-92,-248,-156,170,31,-202,87,14,-131,-180,-165,-151
-122,-317,-195,219,36,-256,156,58,-131,-239,-234,-214
-165,-385,-219,275,26,-302,253,122,-117,-307,-312,-283
-175,-400,-224,287,24,-312,278,141,-87,-317,-326,-297
-161,-370,-209,265,24,-290,248,151,-29,-268,-292,-268
-68,-239,-170,153,51,-204,136,161,141,-53,-136,-156
126,48,-78,-87,102,-14,-78,165,448,390,209,97
351,351,0,-351,175,175,-326,122,761,976,649,405
517,585,68,-551,224,326,-517,68,1034,1503,1019,644
634,766,131,-700,251,448,-644,-43,1098,1864,1298,829
688,1029,341,-858,173,685,-863,-273,951,1922,1434,1015
610,1132,522,-871,43,827,-1034,-634,341,1342,1215,1015
341,927,585,-634,-122,756,-1054,-1088,-600,204,649,766
29,483,453,-256,-212,468,-946,-1263,-1405,-785,-4,366
4,112,107,-58,-51,109,-688,-814,-1224,-722,-170,126
0,-87,-87,43,43,-87,-531,-556,-1088,-649,-244,4
-9,-175,-165,92,78,-170,-312,-317,-849,-541,-263,-82
-19,-156,-136,87,58,-146,-141,-156,-595,-409,-204,-68
-24,-117,-92,70,34,-104,-97,-112,-395,-297,-146,-53
-24,-112,-87,68,31,-100,-63,-82,-263,-224,-107,-43
-24,-102,-78,63,26,-90,-9,-39,-180,-165,-87,-43
-29,-102,-73,65,21,-87,9,-24,-131,-146,-97,-48
-48,-117,-68,82,9,-92,24,-19,-117,-146,-102,-68
-53,-126,-73,90,9,-100,24,-19,-102,-141,-102,-73
-53,-136,-82,95,14,-109,29,-14,-97,-141,-102,-73
-53,-151,-97,102,21,-124,43,0,-92,-141,-107,-82
-58,-156,-97,107,19,-126,53,9,-87,-136,-107,-87
-63,-156,-92,109,14,-124,58,9,-78,-126,-107,-87
-63,-156,-92,109,14,-124,58,9,-68,-122,-102,-87
-63,-156,-92,109,14,-124,63,9,-63,-117,-97,-87
-58,-151,-92,104,17,-122,68,14,-53,-117,-97,-87
-53,-146,-92,100,19,-119,68,14,-43,-112,-92,-87
-53,-141,-87,97,17,-114,68,19,-39,-107,-92,-82
-53,-141,-87,97,17,-114,68,24,-29,-107,-92,-78
-53,-146,-92,100,19,-119,68,24,-24,-102,-92,-82
-48,-146,-97,97,24,-122,73,29,-19,-97,-87,-82
-48,-141,-92,95,21,-117,73,29,-14,-92,-82,-82
-48,-136,-87,92,19,-112,73,34,-9,-87,-82,-82
-43,-131,-87,87,21,-109,73,34,-4,-82,-78,-82
-43,-122,-78,82,17,-100,73,39,-4,-78,-78,-78
-39,-122,-82,80,21,-102,73,48,4,-78,-73,-78
-39,-122,-82,80,21,-102,73,53,14,-68,-68,-73
-39,-122,-82,80,21,-102,78,58,19,-63,-68,-73
-39,-122,-82,80,21,-102,78,63,24,-58,-63,-68
-34,-122,-87,78,26,-104,78,63,34,-58,-58,-68
-34,-112,-78,73,21,-95,73,68,48,-48,-58,-63
-34,-112,-78,73,21,-95,73,68,58,-39,-53,-63
-34,-107,-73,70,19,-90,78,73,68,-34,-39,-58
-24,-97,-73,61,24,-85,78,82,82,-29,-34,-53
-24,-92,-68,58,21,-80,78,92,92,-19,-29,-43
-24,-82,-58,53,17,-70,78,92,102,-9,-24,-34
-19,-73,-53,46,17,-63,78,92,112,0,-14,-24
-9,-58,-48,34,19,-53,73,97,131,9,-4,-19
-9,-43,-34,26,12,-39,73,102,151,24,4,-9
0,-34,-34,17,17,-34,73,112,156,34,14,0
4,-19,-24,7,14,-21,73,122,175,48,29,9
4,-4,-9,0,7,-7,78,131,195,68,43,19
14,19,4,-17,4,12,82,141,214,82,53,34
19,39,19,-29,0,29,82,151,234,107,78,48
29,63,34,-46,-2,48,82,161,258,126,97,63
34,82,48,-58,-7,65,78,170,283,146,117,78
43,112,68,-78,-12,90,73,175,302,175,141,97
53,151,97,-102,-21,124,68,185,331,200,165,126
58,175,117,-117,-29,146,68,190,366,234,195,146
78,219,141,-148,-31,180,63,200,400,268,224,175
87,248,161,-168,-36,204,48,204,424,297,258,209
102,292,190,-197,-43,241,43,209,448,331,292,239
112,331,219,-222,-53,275,39,214,478,370,326,268
126,375,248,-251,-61,312,29,219,502,405,356,292
136,409,273,-273,-68,341,24,224,536,444,385,322
151,444,292,-297,-70,368,9,224,551,473,419,351
165,483,317,-324,-75,400,0,219,570,497,448,380
175,512,336,-344,-80,424,-19,214,585,531,478,405
185,536,351,-361,-82,444,-39,204,595,556,502,424
190,561,370,-375,-90,466,-53,200,600,575,527,448
200,575,375,-387,-87,475,-63,185,600,585,541,458
209,585,375,-397,-82,480,-73,170,600,590,546,468
214,585,370,-400,-78,478,-78,161,585,590,546,468
204,566,361,-385,-78,463,-82,141,561,570,531,453
195,531,336,-363,-70,434,-82,131,517,541,502,429
180,483,302,-331,-61,392,-73,107,478,502,463,390
156,439,283,-297,-63,361,-63,82,429,448,419,351
136,385,248,-261,-56,317,-53,73,380,390,370,312
117,322,204,-219,-43,263,-48,58,326,336,317,263
92,268,175,-180,-41,222,-43,48,278,278,268,219
78,219,141,-148,-31,180,-34,39,229,219,214,180
58,170,112,-114,-26,141,-24,29,180,170,165,146
39,122,82,-80,-21,102,-14,19,131,126,122,107
19,73,53,-46,-17,63,-4,14,97,92,87,78
0,29,29,-14,-14,29,4,4,58,48,48,48
-9,0,9,4,-9,4,4,-9,39,9,24,19
-19,-29,-9,24,-4,-19,4,-14,9,-14,4,0
-29,-53,-24,41,-2,-39,14,-14,-14,-43,-14,-14
-34,-78,-43,56,4,-61,14,-19,-34,-63,-34,-29
-34,-92,-58,63,12,-75,14,-24,-48,-87,-48,-43
-34,-102,-68,68,17,-85,14,-24,-63,-97,-53,-58
-34,-107,-73,70,19,-90,19,-29,-73,-107,-68,-73
-39,-112,-73,75,17,-92,19,-29,-78,-117,-78,-78
-43,-117,-73,80,14,-95,19,-29,-82,-126,-78,-82
-48,-122,-73,85,12,-97,19,-29,-97,-136,-87,-82
-48,-126,-78,87,14,-102,24,-29,-102,-136,-92,-87
-58,-131,-73,95,7,-102,24,-29,-102,-136,-92,-87
-58,-141,-82,100,12,-112,24,-34,-102,-141,-97,-82
-58,-146,-87,102,14,-117,29,-34,-107,-146,-102,-78
-58,-151,-92,104,17,-122,29,-29,-117,-146,-107,-82
-58,-151,-92,104,17,-122,29,-29,-122,-151,-107,-87
-53,-151,-97,102,21,-124,29,-29,-122,-156,-112,-92
-48,-151,-102,100,26,-126,29,-29,-122,-156,-117,-97
-48,-151,-102,100,26,-126,29,-29,-122,-156,-117,-97
-48,-151,-102,100,26,-126,29,-29,-122,-161,-117,-97
-48,-151,-102,100,26,-126,29,-29,-122,-161,-117,-97
-53,-156,-102,104,24,-129,29,-29,-117,-156,-122,-97
-58,-156,-97,107,19,-126,29,-29,-117,-156,-122,-97
-58,-156,-97,107,19,-126,29,-29,-117,-161,-122,-102
-58,-156,-97,107,19,-126,34,-24,-117,-161,-117,-102
-58,-156,-97,107,19,-126,39,-19,-117,-161,-117,-102
-58,-161,-102,109,21,-131,39,-19,-117,-161,-117,-97
-53,-165,-112,109,29,-139,39,-19,-117,-161,-117,-92
-53,-165,-112,109,29,-139,39,-24,-122,-156,-117,-92
-53,-165,-112,109,29,-139,39,-24,-126,-156,-117,-92
-53,-165,-112,109,29,-139,39,-24,-122,-156,-122,-97
-53,-165,-112,109,29,-139,43,-24,-122,-151,-122,-102
-53,-170,-117,112,31,-143,39,-24,-117,-151,-122,-102
-48,-170,-122,109,36,-146,34,-24,-117,-151,-122,-102
-48,-170,-122,109,36,-146,34,-24,-117,-151,-122,-102
-48,-170,-122,109,36,-146,34,-24,-117,-151,-122,-107
-53,-170,-117,112,31,-143,34,-24,-117,-146,-122,-107
-58,-165,-107,112,24,-136,34,-24,-112,-141,-122,-107
-58,-165,-107,112,24,-136,39,-24,-112,-141,-126,-107
-58,-165,-107,112,24,-136,43,-24,-112,-141,-126,-107
-53,-170,-117,112,31,-143,43,-24,-112,-141,-126,-107
-48,-170,-122,109,36,-146,43,-24,-112,-136,-126,-112
-48,-170,-122,109,36,-146,43,-19,-112,-136,-126,-112
-48,-170,-122,109,36,-146,43,-19,-112,-141,-126,-112
-48,-175,-126,112,39,-151,43,-19,-112,-146,-126,-112
-48,-180,-131,114,41,-156,43,-24,-112,-151,-131,-112
-48,-180,-131,114,41,-156,43,-24,-112,-151,-131,-112
-48,-175,-126,112,39,-151,43,-24,-117,-146,-131,-112
-53,-175,-122,114,34,-148,43,-24,-117,-146,-131,-117
-58,-175,-117,117,29,-146,43,-24,-117,-151,-136,-117
-58,-175,-117,117,29,-146,43,-24,-122,-151,-136,-117
-58,-175,-117,117,29,-146,43,-24,-126,-156,-136,-117
-58,-175,-117,117,29,-146,43,-19,-126,-156,-136,-117
-58,-175,-117,117,29,-146,43,-19,-126,-156,-136,-117
-58,-180,-122,119,31,-151,43,-19,-122,-156,-136,-117
-58,-180,-122,119,31,-151,43,-14,-122,-156,-131,-117
-58,-180,-122,119,31,-151,43,-19,-122,-156,-131,-117
-58,-180,-122,119,31,-151,43,-24,-122,-156,-136,-117
-58,-175,-117,117,29,-146,39,-19,-122,-156,-131,-117
-58,-175,-117,117,29,-146,39,-19,-126,-156,-126,-117
-58,-175,-117,117,29,-146,39,-19,-126,-156,-126,-117
-58,-175,-117,117,29,-146,39,-19,-126,-156,-126,-117
-53,-175,-122,114,34,-148,39,-19,-122,-156,-131,-117
-48,-170,-122,109,36,-146,39,-19,-112,-151,-126,-112
-48,-165,-117,107,34,-141,43,-19,-107,-146,-126,-107
-43,-141,-97,92,26,-119,48,-9,-87,-136,-112,-97
-39,-131,-92,85,26,-112,58,-14,-78,-126,-102,-92
-34,-126,-92,80,29,-109,58,-14,-73,-122,-102,-97
-24,-122,-97,73,36,-109,58,-9,-68,-122,-102,-92
-19,-112,-92,65,36,-102,73,0,-58,-117,-92,-92
-19,-102,-82,61,31,-92,78,9,-53,-112,-87,-82
-19,-97,-78,58,29,-87,82,19,-39,-102,-87,-82
-19,-73,-53,46,17,-63,92,9,-34,-92,-78,-68
-14,-53,-39,34,12,-46,48,-29,-34,-87,-68,-58
0,-34,-34,17,17,-34,-9,-58,-34,-78,-53,-43
19,9,-9,-14,14,0,-19,-68,-19,-58,-34,-24
19,29,9,-24,4,19,-14,-58,-9,-48,-34,-24
24,34,9,-29,7,21,4,-43,-9,-43,-34,-24
24,14,-9,-19,17,2,19,-34,-4,-48,-39,-24
29,-4,-34,-12,31,-19,19,-34,-19,-58,-48,-29
34,-43,-78,4,56,-61,14,-29,-48,-78,-58,-43
39,-92,-131,26,85,-112,0,-29,-92,-112,-92,-68
14,-122,-136,53,75,-129,9,-29,-107,-131,-107,-87
-19,-141,-122,80,51,-131,29,-29,-117,-136,-117,-97
-48,-175,-126,112,39,-151,39,-34,-117,-151,-131,-117
-63,-175,-112,119,24,-143,48,-34,-112,-156,-131,-117
-63,-175,-112,119,24,-143,48,-29,-112,-156,-131,-117
-63,-175,-112,119,24,-143,43,-29,-122,-165,-141,-122
-63,-190,-126,126,31,-158,43,-34,-131,-170,-151,-131
-63,-195,-131,129,34,-163,39,-34,-136,-175,-156,-141
-63,-204,-141,134,39,-173,39,-34,-141,-180,-161,-151
-68,-214,-146,141,39,-180,39,-29,-141,-180,-161,-151
-68,-219,-151,143,41,-185,39,-24,-141,-180,-161,-151
-73,-224,-151,148,39,-187,43,-19,-141,-180,-161,-151
-73,-224,-151,148,39,-187,48,-14,-141,-180,-161,-151
-73,-224,-151,148,39,-187,53,-14,-141,-180,-161,-156
-73,-224,-151,148,39,-187,58,-14,-141,-180,-165,-156
-68,-224,-156,146,43,-190,58,-9,-141,-180,-165,-156
-68,-229,-161,148,46,-195,58,-14,-146,-180,-170,-156
-68,-234,-165,151,48,-200,63,-19,-151,-180,-175,-156
-73,-234,-161,153,43,-197,63,-14,-146,-180,-175,-156
-73,-234,-161,153,43,-197,68,-14,-146,-180,-175,-156
-68,-219,-151,143,41,-185,63,-9,-146,-165,-165,-146
-73,-214,-141,143,34,-178,78,4,-141,-170,-165,-151
-102,-287,-185,195,41,-236,146,48,-131,-219,-224,-214
-146,-356,-209,251,31,-283,244,112,-107,-278,-292,-283
-185,-419,-234,302,24,-326,307,141,-112,-346,-356,-331
-204,-434,-229,319,12,-331,317,151,-87,-356,-370,-336
-151,-351,-200,251,24,-275,244,151,9,-268,-307,-292
0,-112,-112,56,56,-112,68,151,248,73,-34,-97
244,214,-29,-229,136,92,-204,122,600,702,444,244
439,483,43,-461,197,263,-419,87,907,1283,858,527
600,707,107,-653,246,407,-546,29,1151,1908,1288,780
697,1000,302,-849,197,651,-761,-126,1180,2176,1537,1005
678,1249,570,-963,53,910,-995,-502,688,1756,1444,1112
468,1185,717,-827,-124,951,-1083,-980,-141,746,985,966
78,736,658,-407,-290,697,-1010,-1298,-1220,-595,151,502
-24,346,370,-161,-197,358,-785,-1015,-1307,-829,-165,200
-29,24,53,2,-41,39,-639,-727,-1224,-761,-287,9
-34,-165,-131,100,48,-148,-434,-444,-1034,-658,-351,-131
-39,-156,-117,97,39,-136,-214,-224,-751,-527,-292,-117
-43,-126,-82,85,19,-104,-117,-122,-522,-409,-234,-97
-43,-122,-78,82,17,-100,-78,-92,-366,-307,-180,-82
-43,-112,-68,78,12,-90,-19,-53,-253,-219,-136,-78
-43,-102,-58,73,7,-80,4,-39,-180,-190,-131,-78
-53,-107,-53,80,0,-80,24,-29,-146,-185,-131,-97
-53,-117,-63,85,4,-90,24,-29,-131,-175,-131,-102
-53,-122,-68,87,7,-95,29,-24,-126,-170,-136,-102
-53,-131,-78,92,12,-104,43,-9,-122,-170,-146,-112
-53,-136,-82,95,14,-109,53,0,-112,-165,-146,-117
-53,-136,-82,95,14,-109,58,0,-97,-156,-146,-117
-53,-136,-82,95,14,-109,58,4,-87,-151,-141,-117
-53,-136,-82,95,14,-109,63,9,-82,-146,-136,-117
-53,-136,-82,95,14,-109,68,14,-73,-146,-136,-117
-53,-136,-82,95,14,-109,68,14,-63,-141,-131,-117
-53,-131,-78,92,12,-104,68,19,-58,-131,-126,-112
-53,-131,-78,92,12,-104,68,24,-53,-126,-122,-107
-53,-131,-78,92,12,-104,68,24,-53,-122,-122,-107
-48,-126,-78,87,14,-102,73,29,-48,-117,-117,-102
-48,-122,-73,85,12,-97,73,29,-39,-112,-112,-102
-48,-112,-63,80,7,-87,73,34,-34,-107,-117,-107
-43,-107,-63,75,9,-85,73,34,-34,-102,-117,-112
-43,-102,-58,73,7,-80,73,39,-34,-97,-117,-107
-39,-102,-63,70,12,-82,73,43,-24,-97,-112,-107
-39,-107,-68,73,14,-87,73,43,-14,-87,-107,-97
-39,-107,-68,73,14,-87,78,48,-9,-82,-107,-92
-39,-102,-63,70,12,-82,73,53,-4,-78,-102,-87
-34,-102,-68,68,17,-85,68,53,0,-78,-97,-87
-34,-92,-58,63,12,-75,63,58,9,-68,-97,-82
-34,-92,-58,63,12,-75,63,58,19,-58,-92,-82
-34,-87,-53,61,9,-70,68,63,29,-53,-78,-78
-24,-78,-53,51,14,-65,68,73,43,-48,-73,-73
-24,-73,-48,48,12,-61,68,82,53,-39,-68,-68
-24,-63,-39,43,7,-51,68,82,63,-29,-63,-68
-19,-53,-34,36,7,-43,68,82,68,-19,-53,-63
-9,-43,-34,26,12,-39,63,87,82,-9,-43,-58
-9,-39,-29,24,9,-34,63,92,102,4,-29,-48
0,-34,-34,17,17,-34,63,102,107,14,-14,-39
4,-19,-24,7,14,-21,63,112,122,29,0,-29
4,-4,-9,0,7,-7,63,117,136,48,14,-19
14,19,4,-17,4,12,63,122,156,58,19,-4
19,39,19,-29,0,29,63,131,175,78,39,9
29,63,34,-46,-2,48,58,141,200,97,58,19
34,82,48,-58,-7,65,48,151,224,117,78,34
39,107,68,-73,-14,87,43,151,244,146,97,58
43,141,97,-92,-26,119,39,156,273,170,117,87
48,165,117,-107,-34,141,39,161,307,204,146,107
68,209,141,-139,-36,175,34,170,336,239,175,131
78,234,156,-156,-39,195,19,175,356,268,209,161
92,273,180,-183,-43,226,9,180,380,302,244,190
107,312,204,-209,-48,258,0,185,409,341,278,219
126,356,229,-241,-51,292,-9,185,434,375,312,248
136,390,253,-263,-58,322,-14,190,473,414,346,287
151,424,273,-287,-61,348,-29,195,492,448,380,322
161,463,302,-312,-70,383,-39,190,512,478,414,351
165,492,326,-329,-80,409,-53,185,527,512,448,375
175,522,346,-348,-85,434,-68,175,536,541,478,395
180,551,370,-366,-95,461,-82,170,541,566,507,419
195,570,375,-383,-90,473,-97,156,541,580,522,429
204,585,380,-395,-87,483,-112,141,541,590,527,439
209,600,390,-405,-90,495,-117,136,541,600,531,448
204,595,390,-400,-92,492,-122,122,531,590,522,444
195,566,370,-380,-87,468,-122,112,488,561,497,419
185,522,336,-353,-75,429,-112,97,453,522,463,385
165,478,312,-322,-73,395,-97,82,414,468,419,356
146,424,278,-285,-65,351,-82,73,370,409,370,322
122,361,239,-241,-58,300,-73,58,317,361,317,273
92,302,209,-197,-58,256,-58,48,268,307,268,224
78,248,170,-163,-46,209,-43,39,219,248,214,180
63,200,136,-131,-36,168,-34,29,170,200,165,146
53,151,97,-102,-21,124,-24,19,122,161,122,107
39,102,63,-70,-12,82,-14,14,87,117,87,73
19,58,39,-39,-9,48,0,4,48,58,48,39
9,29,19,-19,-4,24,9,-4,24,19,19,9
-4,0,4,2,-4,2,14,-4,-14,-9,-14,-14
-19,-24,-4,21,-7,-14,24,-4,-43,-39,-43,-34
-24,-48,-24,36,0,-36,24,-9,-63,-58,-63,-48
-29,-63,-34,46,2,-48,24,-14,-78,-87,-78,-58
-34,-73,-39,53,2,-56,29,-14,-92,-97,-82,-68
-34,-82,-48,58,7,-65,39,-19,-102,-107,-97,-82
-39,-97,-58,68,9,-78,39,-19,-107,-117,-107,-92
-39,-107,-68,73,14,-87,39,-19,-112,-126,-107,-102
-39,-112,-73,75,17,-92,34,-19,-126,-136,-117,-102
-39,-112,-73,75,17,-92,34,-19,-131,-136,-122,-107
-48,-112,-63,80,7,-87,34,-14,-131,-136,-122,-107
-48,-122,-73,85,12,-97,34,-14,-131,-141,-126,-107
-48,-126,-78,87,14,-102,39,-14,-136,-146,-131,-107
-48,-131,-82,90,17,-107,39,-9,-141,-146,-136,-112
-53,-131,-78,92,12,-104,43,-9,-141,-151,-141,-117
-58,-131,-73,95,7,-102,48,-9,-141,-156,-146,-117
-58,-131,-73,95,7,-102,48,-9,-141,-156,-146,-122
-58,-131,-73,95,7,-102,48,-9,-141,-156,-146,-126
-58,-131,-73,95,7,-102,48,-9,-141,-161,-146,-126
-58,-131,-73,95,7,-102,48,-9,-146,-161,-146,-126
-58,-136,-78,97,9,-107,48,-9,-146,-156,-151,-122
-53,-136,-82,95,14,-109,48,-9,-146,-156,-151,-117
-48,-131,-82,90,17,-107,43,-9,-146,-161,-151,-122
-48,-126,-78,87,14,-102,39,-9,-146,-161,-151,-122
-53,-126,-73,90,9,-100,39,-9,-146,-161,-156,-126
-63,-126,-63,95,0,-95,39,-9,-146,-161,-156,-131
-63,-131,-68,97,2,-100,39,-9,-141,-161,-156,-131
-63,-136,-73,100,4,-104,39,-9,-136,-156,-156,-131
-58,-136,-78,97,9,-107,39,-4,-136,-156,-151,-126
-53,-136,-82,95,14,-109,39,-4,-131,-156,-146,-122
-53,-136,-82,95,14,-109,43,-9,-136,-151,-141,-122
-53,-141,-87,97,17,-114,43,-14,-136,-151,-141,-122
-48,-136,-87,92,19,-112,43,-14,-136,-151,-141,-122
-48,-131,-82,90,17,-107,43,-14,-136,-151,-141,-122
-48,-131,-82,90,17,-107,43,-14,-136,-151,-141,-126
-48,-131,-82,90,17,-107,43,-14,-136,-151,-141,-126
-48,-131,-82,90,17,-107,43,-14,-131,-146,-141,-126
-48,-136,-87,92,19,-112,43,-14,-131,-141,-146,-126
-48,-136,-87,92,19,-112,43,-14,-131,-141,-146,-126
-48,-141,-92,95,21,-117,43,-14,-131,-141,-146,-126
-53,-141,-87,97,17,-114,43,-14,-131,-141,-146,-131
-58,-141,-82,100,12,-112,43,-9,-131,-146,-146,-131
-58,-136,-78,97,9,-107,43,-9,-131,-151,-146,-126
-58,-136,-78,97,9,-107,43,-9,-131,-151,-146,-122
-53,-141,-87,97,17,-114,43,-14,-136,-151,-151,-122
-48,-141,-92,95,21,-117,43,-14,-141,-151,-151,-122
-48,-136,-87,92,19,-112,43,-14,-146,-146,-151,-126
-48,-136,-87,92,19,-112,43,-14,-146,-146,-151,-136
-53,-136,-82,95,14,-109,43,-14,-146,-151,-156,-136
-58,-136,-78,97,9,-107,43,-14,-146,-151,-156,-136
-58,-136,-78,97,9,-107,39,-14,-146,-156,-161,-136
-58,-136,-78,97,9,-107,34,-14,-146,-156,-165,-136
-63,-136,-73,100,4,-104,34,-19,-146,-156,-165,-136
-68,-141,-73,104,2,-107,34,-19,-146,-156,-165,-136
-68,-146,-78,107,4,-112,34,-14,-151,-156,-161,-136
-68,-151,-82,109,7,-117,34,-14,-151,-156,-161,-136
-63,-146,-82,104,9,-114,34,-9,-146,-156,-165,-131
-58,-146,-87,102,14,-117,39,-9,-141,-161,-170,-131
-58,-141,-82,100,12,-112,39,-9,-136,-151,-165,-131
-58,-136,-78,97,9,-107,39,-9,-136,-146,-165,-136
-58,-136,-78,97,9,-107,43,-9,-136,-146,-165,-136
-58,-136,-78,97,9,-107,48,-9,-136,-146,-165,-136
-58,-131,-73,95,7,-102,48,-9,-131,-141,-151,-131
-53,-117,-63,85,4,-90,53,-4,-122,-136,-141,-126
-53,-107,-53,80,0,-80,58,0,-112,-131,-131,-122
-48,-102,-53,75,2,-78,68,0,-107,-126,-131,-117
-48,-97,-48,73,0,-73,68,0,-102,-122,-131,-117
-43,-92,-48,68,2,-70,68,0,-97,-122,-131,-112
-39,-78,-39,58,0,-58,82,9,-87,-117,-122,-107
-39,-63,-24,51,-7,-43,82,9,-82,-112,-117,-92
-39,-58,-19,48,-9,-39,73,9,-68,-102,-117,-92
-39,-34,4,36,-21,-14,63,0,-63,-92,-107,-78
-34,-14,19,24,-26,2,19,-34,-63,-87,-97,-68
-19,0,19,9,-19,9,-19,-48,-63,-78,-82,-53
0,39,39,-19,-19,39,-14,-48,-48,-58,-63,-39
0,53,53,-26,-26,53,-4,-39,-39,-53,-63,-43
4,48,43,-26,-19,46,14,-24,-43,-58,-63,-43
4,24,19,-14,-7,21,29,-14,-48,-68,-68,-48
9,0,-9,-4,9,-4,24,-19,-68,-78,-82,-63
9,-43,-53,17,31,-48,14,-19,-97,-97,-97,-82
9,-92,-102,41,56,-97,0,-19,-136,-131,-131,-107
-14,-122,-107,68,46,-114,9,-19,-141,-151,-146,-126
-48,-136,-87,92,19,-112,29,-14,-146,-156,-156,-131
-68,-165,-97,117,14,-131,39,-14,-146,-165,-170,-146
-73,-165,-92,119,9,-129,48,-14,-146,-165,-170,-146
-73,-165,-92,119,9,-129,53,-9,-151,-165,-170,-146
-73,-165,-92,119,9,-129,53,-14,-161,-175,-180,-156
-73,-180,-107,126,17,-143,53,-24,-170,-180,-190,-165
-73,-185,-112,129,19,-148,48,-24,-175,-180,-195,-170
-73,-195,-122,134,24,-158,48,-24,-180,-180,-200,-180
-78,-204,-126,141,24,-165,48,-19,-175,-180,-195,-175
-78,-204,-126,141,24,-165,48,-19,-170,-180,-190,-170
-82,-204,-122,143,19,-163,53,-19,-170,-180,-190,-170
-82,-204,-122,143,19,-163,58,-14,-170,-180,-190,-170
-82,-204,-122,143,19,-163,63,-14,-170,-180,-195,-180
-87,-204,-117,146,14,-161,68,-14,-170,-180,-204,-185
-87,-204,-117,146,14,-161,68,-9,-170,-180,-204,-185
-87,-209,-122,148,17,-165,68,-9,-170,-180,-204,-185
-87,-214,-126,151,19,-170,73,-9,-170,-180,-204,-185
-92,-214,-122,153,14,-168,73,-4,-165,-180,-204,-185
-92,-214,-122,153,14,-168,82,0,-165,-185,-204,-185
-92,-219,-126,156,17,-173,87,9,-165,-190,-209,-190
-112,-248,-136,180,12,-192,117,34,-151,-209,-239,-209
-151,-336,-185,244,17,-261,195,87,-141,-268,-322,-273
-180,-380,-200,280,9,-290,273,141,-117,-317,-375,-336
-175,-370,-195,273,9,-283,278,151,-78,-307,-366,-346
-136,-283,-146,209,4,-214,219,136,19,-170,-258,-258
-19,-92,-73,56,26,-82,78,122,229,131,-29,-87
146,200,53,-173,46,126,-136,107,541,653,375,190
341,507,165,-424,87,336,-385,43,858,1317,873,522
483,756,273,-619,104,514,-575,-48,1039,1766,1210,766
575,951,375,-763,100,663,-702,-200,1010,2049,1454,956
546,1122,575,-834,-14,849,-858,-409,683,1805,1390,1019
385,1132,746,-758,-180,939,-966,-751,-107,922,971,897
180,897,717,-539,-268,807,-936,-1049,-834,-53,434,624
-68,424,492,-178,-280,458,-780,-1068,-1424,-883,-190,200
-78,68,146,4,-112,107,-551,-668,-1229,-790,-322,-24
-68,-117,-48,92,-9,-82,-424,-458,-1078,-688,-361,-131
-73,-195,-122,134,24,-158,-239,-253,-854,-580,-366,-195
-78,-165,-87,122,4,-126,-102,-126,-614,-448,-292,-156
-78,-117,-39,97,-19,-78,-58,-92,-424,-336,-234,-136
-73,-102,-29,87,-21,-65,-24,-73,-302,-263,-195,-122
-73,-92,-19,82,-26,-56,19,-34,-229,-204,-165,-117
-78,-92,-14,85,-31,-53,29,-24,-190,-185,-165,-117
-92,-102,-9,97,-41,-56,39,-24,-175,-185,-170,-131
-92,-107,-14,100,-39,-61,34,-29,-161,-180,-170,-131
-87,-112,-24,100,-31,-68,39,-24,-151,-180,-170,-131
-82,-122,-39,102,-21,-80,53,-9,-141,-180,-175,-141
-78,-126,-48,102,-14,-87,63,0,-131,-175,-175,-146
-73,-126,-53,100,-9,-90,68,0,-117,-165,-175,-146
-73,-126,-53,100,-9,-90,68,4,-112,-156,-170,-141
-73,-126,-53,100,-9,-90,73,9,-112,-146,-165,-136
-78,-126,-48,102,-14,-87,78,14,-102,-146,-165,-136
-82,-126,-43,104,-19,-85,78,14,-92,-141,-161,-136
-82,-122,-39,102,-21,-80,78,14,-87,-131,-156,-131
-82,-122,-39,102,-21,-80,78,14,-78,-126,-151,-126
-82,-122,-39,102,-21,-80,73,14,-73,-122,-151,-126
-78,-117,-39,97,-19,-78,73,19,-68,-117,-146,-122
-78,-112,-34,95,-21,-73,73,19,-58,-112,-141,-122
-78,-107,-29,92,-24,-68,73,24,-48,-107,-141,-122
-73,-107,-34,90,-19,-70,73,24,-43,-102,-136,-122
-73,-102,-29,87,-21,-65,73,29,-43,-97,-136,-117
-68,-102,-34,85,-17,-68,73,39,-34,-97,-131,-117
-68,-102,-34,85,-17,-68,73,43,-24,-87,-126,-112
-68,-102,-34,85,-17,-68,78,48,-19,-82,-126,-117
-68,-102,-34,85,-17,-68,78,53,-14,-78,-122,-117
-63,-102,-39,82,-12,-70,78,48,-9,-78,-117,-117
-63,-92,-29,78,-17,-61,73,48,0,-68,-117,-112
-58,-82,-24,70,-17,-53,73,43,9,-58,-112,-112
-53,-68,-14,61,-19,-41,78,43,19,-53,-97,-107
-43,-58,-14,51,-14,-36,78,53,29,-48,-92,-97
-43,-53,-9,48,-17,-31,78,63,34,-39,-87,-82
-48,-48,0,48,-24,-24,78,63,43,-34,-78,-78
-48,-43,4,46,-26,-19,78,63,53,-29,-63,-73
-39,-34,4,36,-21,-14,73,68,73,-19,-53,-68
-39,-24,14,31,-26,-4,73,73,92,-4,-43,-58
-29,-14,14,21,-21,0,73,82,97,9,-34,-48
-24,0,24,12,-24,12,73,92,117,29,-19,-39
-24,14,39,4,-31,26,73,97,136,48,-4,-29
-14,39,53,-12,-34,46,73,102,156,63,4,-14
-9,53,63,-21,-36,58,68,112,175,87,29,0
0,73,73,-36,-36,73,63,122,200,107,48,14
4,92,87,-48,-41,90,58,126,224,126,68,34
14,122,107,-68,-46,114,53,126,244,156,92,58
24,165,141,-95,-58,153,48,136,273,185,122,92
29,195,165,-112,-68,180,48,141,307,224,156,117
48,239,190,-143,-70,214,43,151,336,258,185,146
58,268,209,-163,-75,239,29,156,356,287,219,180
78,312,234,-195,-78,273,19,156,380,322,253,209
92,351,258,-222,-82,305,9,156,409,361,287,239
107,395,287,-251,-90,341,0,151,429,395,322,263
117,429,312,-273,-97,370,-4,146,458,434,356,292
126,458,331,-292,-102,395,-19,146,473,463,385,322
136,492,356,-314,-109,424,-29,141,492,488,409,351
146,522,375,-334,-114,448,-43,136,507,522,439,375
156,546,390,-351,-117,468,-58,126,517,546,463,395
161,570,409,-366,-124,490,-73,122,517,566,488,414
170,585,414,-378,-122,500,-82,107,512,575,502,419
165,585,419,-375,-126,502,-87,92,507,570,502,429
156,575,419,-366,-131,497,-87,82,488,561,497,429
146,551,405,-348,-129,478,-87,68,463,531,473,405
136,512,375,-324,-119,444,-82,63,419,492,434,370
131,463,331,-297,-100,397,-68,48,385,453,395,331
117,419,302,-268,-92,361,-53,34,341,400,351,292
97,361,263,-229,-82,312,-43,29,292,336,297,253
78,292,214,-185,-68,253,-39,19,239,278,239,204
48,234,185,-141,-68,209,-29,14,190,219,190,156
29,180,151,-104,-61,165,-14,9,141,161,136,112
