I, II, III, aVR, aVL, aVF, V1, V2, V3, V4, V5, V6
-19,-68,-48,43,14,-58,0,-29,-29,-29,-29,-19
-19,-63,-43,41,12,-53,0,-29,-29,-34,-29,-24
-19,-58,-39,39,9,-48,0,-29,-29,-39,-29,-29
-19,-58,-39,39,9,-48,0,-29,-29,-39,-29,-29
-19,-58,-39,39,9,-48,0,-29,-29,-39,-29,-29
-19,-48,-29,34,4,-39,0,-29,-24,-34,-24,-24
-19,-39,-19,29,0,-29,0,-29,-19,-29,-19,-19
-19,-39,-19,29,0,-29,0,-29,-19,-29,-19,-19
-19,-39,-19,29,0,-29,0,-29,-19,-29,-19,-19
-19,-43,-24,31,2,-34,0,-24,-14,-29,-19,-19
-19,-48,-29,34,4,-39,0,-19,-9,-29,-19,-19
-19,-48,-29,34,4,-39,0,-19,-9,-29,-19,-19
-19,-48,-29,34,4,-39,0,-19,-9,-29,-19,-19
-24,-43,-19,34,-2,-31,4,-19,-4,-24,-19,-14
-29,-39,-9,34,-9,-24,9,-19,0,-19,-19,-9
-29,-39,-9,34,-9,-24,9,-19,0,-19,-19,-9
-29,-39,-9,34,-9,-24,9,-19,0,-19,-19,-9
-29,-34,-4,31,-12,-19,4,-19,0,-19,-19,-14
-29,-29,0,29,-14,-14,0,-19,0,-19,-19,-19
-29,-29,0,29,-14,-14,0,-19,4,-19,-19,-19
-29,-29,0,29,-14,-14,0,-19,9,-19,-19,-19
-29,-29,0,29,-14,-14,0,-24,9,-19,-19,-19
-29,-29,0,29,-14,-14,0,-29,9,-19,-19,-19
-24,-29,-4,26,-9,-17,0,-29,9,-19,-19,-19
-19,-29,-9,24,-4,-19,0,-29,9,-19,-19,-19
-9,-29,-19,19,4,-24,0,-29,9,-19,-19,-19
0,-29,-29,14,14,-29,0,-29,9,-19,-19,-19
-9,-29,-19,19,4,-24,0,-29,9,-19,-19,-19
-19,-29,-9,24,-4,-19,0,-29,9,-19,-19,-19
-19,-34,-14,26,-2,-24,0,-29,0,-19,-19,-19
-19,-39,-19,29,0,-29,0,-29,-9,-19,-19,-19
-29,-39,-9,34,-9,-24,4,-24,0,-14,-14,-14
-39,-39,0,39,-19,-19,9,-19,9,-9,-9,-9
-29,-34,-4,31,-12,-19,9,-19,9,-9,-9,-9
-19,-29,-9,24,-4,-19,9,-19,9,-9,-9,-9
-19,-29,-9,24,-4,-19,4,-24,4,-14,-14,-14
-19,-29,-9,24,-4,-19,0,-29,0,-19,-19,-19
-19,-29,-9,24,-4,-19,-4,-29,-9,-24,-19,-19
-19,-29,-9,24,-4,-19,-9,-29,-19,-29,-19,-19
-19,-34,-14,26,-2,-24,-9,-29,-24,-29,-24,-19
-19,-39,-19,29,0,-29,-9,-29,-29,-29,-29,-19
-19,-43,-24,31,2,-34,-9,-34,-29,-29,-29,-19
-19,-48,-29,34,4,-39,-9,-39,-29,-29,-29,-19
-19,-48,-29,34,4,-39,-9,-39,-39,-34,-34,-24
-19,-48,-29,34,4,-39,-9,-39,-48,-39,-39,-29
-9,-43,-34,26,12,-39,-9,-43,-48,-43,-39,-34
0,-39,-39,19,19,-39,-9,-48,-48,-48,-39,-39
-14,-39,-24,26,4,-31,-14,-53,-68,-48,-48,-43
-29,-39,-9,34,-9,-24,-19,-58,-87,-48,-58,-48
-29,-14,14,21,-21,0,-19,-58,-78,-48,-68,-63
-29,9,39,9,-34,24,-19,-58,-68,-48,-78,-78
-29,0,29,14,-29,14,-19,-58,-68,-63,-92,-92
-29,-9,19,19,-24,4,-19,-58,-68,-78,-107,-107
-24,-19,4,21,-14,-7,-19,-58,-68,-87,-107,-107
-19,-29,-9,24,-4,-19,-19,-58,-68,-97,-107,-107
-19,-34,-14,26,-2,-24,-14,-48,-73,-73,-73,-68
-19,-39,-19,29,0,-29,-9,-39,-78,-48,-39,-29
-34,-58,-24,46,-4,-41,-4,-39,-78,-48,-39,-29
-48,-78,-29,63,-9,-53,0,-39,-78,-48,-39,-29
-29,-78,-48,53,9,-63,0,-34,-73,-53,-39,-24
-9,-78,-68,43,29,-73,0,-29,-68,-58,-39,-19
-9,-73,-63,41,26,-68,0,-29,-68,-58,-39,-9
-9,-68,-58,39,24,-63,0,-29,-68,-58,-39,0
-14,-68,-53,41,19,-61,0,-34,-68,-58,-39,-14
-19,-68,-48,43,14,-58,0,-39,-68,-58,-39,-29
-19,-63,-43,41,12,-53,0,-39,-68,-63,-48,-43
-19,-58,-39,39,9,-48,0,-39,-68,-68,-58,-58
-19,-58,-39,39,9,-48,0,-39,-68,-78,-58,-58
-19,-58,-39,39,9,-48,0,-39,-68,-87,-58,-58
-19,-58,-39,39,9,-48,0,-34,-68,-78,-58,-48
-19,-58,-39,39,9,-48,0,-29,-68,-68,-58,-39
-24,-58,-34,41,4,-46,0,-29,-73,-68,-58,-39
-29,-58,-29,43,0,-43,0,-29,-78,-68,-58,-39
-34,-73,-39,53,2,-56,0,-29,-78,-73,-63,-48
-39,-87,-48,63,4,-68,0,-29,-78,-78,-68,-58
-39,-78,-39,58,0,-58,0,-29,-78,-78,-68,-58
-39,-68,-29,53,-4,-48,0,-29,-78,-78,-68,-58
-48,-68,-19,58,-14,-43,0,-29,-73,-78,-68,-58
-58,-68,-9,63,-24,-39,0,-29,-68,-78,-68,-58
-39,-63,-24,51,-7,-43,0,-29,-68,-78,-68,-58
-19,-58,-39,39,9,-48,0,-29,-68,-78,-68,-58
-19,-58,-39,39,9,-48,-4,-43,-73,-82,-73,-63
-19,-58,-39,39,9,-48,-9,-58,-78,-87,-78,-68
-24,-58,-34,41,4,-46,-9,-48,-78,-87,-78,-68
-29,-58,-29,43,0,-43,-9,-39,-78,-87,-78,-68
-29,-53,-24,41,-2,-39,-4,-39,-73,-87,-73,-68
-29,-48,-19,39,-4,-34,0,-39,-68,-87,-68,-68
-34,-48,-14,41,-9,-31,0,-39,-68,-82,-68,-68
-39,-48,-9,43,-14,-29,0,-39,-68,-78,-68,-68
-39,-48,-9,43,-14,-29,0,-39,-68,-78,-68,-68
-39,-48,-9,43,-14,-29,0,-39,-68,-78,-68,-68
-29,-29,0,29,-14,-14,0,-34,-53,-68,-58,-58
-19,-9,9,14,-14,0,0,-29,-39,-58,-48,-48
-39,0,39,19,-39,19,0,-29,-34,-53,-48,-48
-58,9,68,24,-63,39,0,-29,-29,-48,-48,-48
-48,9,58,19,-53,34,-9,-34,-29,-48,-48,-43
-39,9,48,14,-43,29,-19,-39,-29,-48,-48,-39
-39,14,53,12,-46,34,-19,-39,-29,-48,-43,-34
-34,14,48,9,-41,31,-29,-39,-29,-48,-39,-29
-34,19,53,7,-43,36,-39,-39,-29,-48,-39,-29
-34,19,53,7,-43,36,-73,-63,-34,-53,-39,-34
-19,39,58,-9,-39,48,-97,-92,-39,-53,-34,-34
-4,43,48,-19,-26,46,-97,-97,-39,-53,-34,-24
0,43,43,-21,-21,43,-97,-102,-53,-53,-34,-19
24,43,19,-34,2,31,-107,-102,-53,-58,-34,-14
24,53,29,-39,-2,41,-107,-102,-58,-53,-34,-14
19,63,43,-41,-12,53,-102,-97,-58,-48,-34,-9
19,68,48,-43,-14,58,-82,-78,-53,-34,-14,4
34,73,39,-53,-2,56,-63,-48,-43,-24,0,14
34,68,34,-51,0,51,-58,-39,-39,-19,4,19
39,63,24,-51,7,43,-63,-48,-39,-14,4,24
53,58,4,-56,24,31,-63,-53,-43,-14,0,19
34,29,-4,-31,19,12,-53,-63,-58,-29,-19,0
-4,-4,0,4,-2,-2,-34,-63,-68,-48,-39,-19
-39,-24,14,31,-26,-4,-4,-48,-68,-53,-48,-29
-48,-39,9,43,-29,-14,0,-48,-73,-63,-53,-34
-53,-39,14,46,-34,-12,4,-43,-87,-68,-63,-39
-53,-53,0,53,-26,-26,4,-39,-92,-78,-68,-48
-53,-58,-4,56,-24,-31,9,-34,-102,-97,-78,-63
-53,-82,-29,68,-12,-56,19,-29,-107,-102,-82,-73
-39,-92,-53,65,7,-73,19,-24,-107,-102,-82,-73
-48,-97,-48,73,0,-73,19,-19,-122,-112,-92,-78
-53,-97,-43,75,-4,-70,19,-19,-122,-112,-92,-78
-53,-97,-43,75,-4,-70,19,-19,-122,-112,-97,-82
-58,-92,-34,75,-12,-63,19,-19,-122,-112,-102,-82
-78,-112,-34,95,-21,-73,24,-24,-126,-112,-102,-82
-102,-126,-24,114,-39,-75,24,-29,-131,-117,-102,-87
-82,-102,-19,92,-31,-61,24,-29,-136,-117,-102,-87
-63,-78,-14,70,-24,-46,24,-29,-136,-117,-102,-87
-58,-97,-39,78,-9,-68,19,-29,-136,-122,-102,-82
-58,-117,-58,87,0,-87,19,-29,-136,-122,-102,-82
-53,-107,-53,80,0,-80,19,-29,-136,-117,-102,-82
-48,-102,-53,75,2,-78,14,-29,-136,-117,-102,-87
-48,-102,-53,75,2,-78,19,-29,-131,-107,-97,-82
-48,-97,-48,73,0,-73,24,-29,-126,-97,-92,-82
-53,-102,-48,78,-2,-75,24,-29,-126,-97,-92,-82
-63,-107,-43,85,-9,-75,24,-29,-126,-97,-92,-78
-63,-112,-48,87,-7,-80,34,-24,-136,-112,-102,-82
-63,-122,-58,92,-2,-90,39,-9,-151,-131,-126,-102
-73,-117,-43,95,-14,-80,43,-19,-180,-175,-161,-136
-97,-97,0,97,-48,-48,63,-24,-185,-214,-195,-151
-117,-58,58,87,-87,0,92,-24,-180,-219,-204,-156
-117,9,126,53,-122,68,112,-19,-107,-126,-107,-78
-53,165,219,-56,-136,192,87,-14,-4,82,102,107
34,390,356,-212,-161,373,24,4,180,414,409,366
229,673,444,-451,-107,558,-112,39,375,888,883,766
488,980,492,-734,-2,736,-356,-19,463,1405,1424,1229
761,1254,492,-1007,134,873,-736,-239,424,1878,1932,1693
1010,1327,317,-1168,346,822,-1054,-409,429,2278,2322,2010
1117,1156,39,-1137,539,597,-1176,-497,448,2342,2371,2049
971,971,0,-971,485,485,-1117,-634,346,2020,2074,1820
751,644,-107,-697,429,268,-902,-566,175,1385,1473,1366
522,356,-165,-439,344,95,-614,-341,14,727,805,819
351,209,-141,-280,246,34,-409,-185,-136,326,385,444
234,117,-117,-175,175,0,-234,-107,-224,73,151,239
131,82,-48,-107,90,17,-146,-78,-200,0,63,141
73,39,-34,-56,53,2,-92,-39,-146,-29,14,63
29,-9,-39,-9,34,-24,-34,0,-107,-48,-24,4
0,-43,-43,21,21,-43,4,4,-73,-63,-53,-34
-34,-78,-43,56,4,-61,53,9,-63,-82,-78,-58
-43,-107,-63,75,9,-85,68,19,-78,-102,-97,-78
-53,-107,-53,80,0,-80,68,19,-82,-122,-112,-92
-63,-97,-34,80,-14,-65,68,19,-82,-131,-122,-97
-63,-117,-53,90,-4,-85,78,19,-87,-131,-126,-107
-68,-122,-53,95,-7,-87,82,24,-97,-136,-131,-112
-73,-117,-43,95,-14,-80,82,24,-102,-136,-146,-126
-73,-107,-34,90,-19,-70,82,19,-102,-141,-146,-131
-78,-117,-39,97,-19,-78,82,19,-107,-146,-151,-131
-78,-117,-39,97,-19,-78,87,24,-107,-151,-151,-131
-78,-126,-48,102,-14,-87,87,24,-107,-151,-156,-131
-82,-141,-58,112,-12,-100,87,24,-107,-156,-156,-136
-82,-136,-53,109,-14,-95,87,24,-107,-156,-156,-136
-78,-122,-43,100,-17,-82,92,29,-107,-161,-161,-141
-78,-122,-43,100,-17,-82,87,24,-107,-161,-161,-146
-78,-122,-43,100,-17,-82,82,19,-107,-165,-165,-151
-82,-122,-39,102,-21,-80,87,19,-107,-165,-165,-156
-87,-126,-39,107,-24,-82,92,24,-102,-165,-170,-156
-92,-122,-29,107,-31,-75,92,29,-102,-170,-175,-151
-97,-117,-19,107,-39,-68,92,34,-102,-175,-180,-151
-97,-126,-29,112,-34,-78,92,39,-102,-175,-180,-151
-92,-126,-34,109,-29,-80,97,43,-107,-175,-180,-156
-82,-131,-48,107,-17,-90,97,43,-107,-180,-185,-161
-92,-131,-39,112,-26,-85,102,48,-102,-180,-185,-161
-92,-126,-34,109,-29,-80,97,39,-107,-190,-200,-165
-102,-141,-39,122,-31,-90,102,34,-107,-195,-204,-165
-97,-141,-43,119,-26,-92,107,43,-97,-195,-204,-165
-87,-141,-53,114,-17,-97,107,48,-97,-200,-204,-170
-87,-126,-39,107,-24,-82,107,53,-87,-200,-204,-170
-82,-117,-34,100,-24,-75,117,58,-82,-195,-209,-170
-87,-126,-39,107,-24,-82,126,63,-73,-195,-209,-170
-97,-136,-39,117,-29,-87,131,73,-63,-190,-209,-170
-107,-136,-29,122,-39,-82,136,82,-53,-190,-204,-175
-112,-122,-9,117,-51,-65,146,92,-43,-190,-200,-175
-112,-131,-19,122,-46,-75,146,97,-34,-185,-200,-175
-112,-131,-19,122,-46,-75,151,112,-19,-185,-200,-185
-107,-126,-19,117,-43,-73,165,122,4,-180,-195,-175
-102,-122,-19,112,-41,-70,170,131,29,-175,-190,-170
-102,-117,-14,109,-43,-65,175,146,43,-170,-185,-165
-92,-107,-14,100,-39,-61,175,156,58,-161,-180,-165
-97,-87,9,92,-53,-39,180,170,78,-156,-175,-156
-92,-78,14,85,-53,-31,185,170,97,-146,-165,-151
-87,-68,19,78,-53,-24,190,185,122,-131,-156,-151
-78,-53,24,65,-51,-14,190,195,146,-117,-151,-146
-78,-43,34,61,-56,-4,190,204,161,-112,-141,-141
-78,-29,48,53,-63,9,190,219,185,-102,-136,-136
-73,-9,63,41,-68,26,195,224,200,-87,-122,-122
-68,9,78,29,-73,43,195,234,229,-63,-112,-112
-63,24,87,19,-75,56,195,244,248,-53,-102,-92
-53,43,97,4,-75,70,185,253,268,-39,-92,-82
-43,43,87,0,-65,65,185,253,283,-39,-78,-73
-24,53,78,-14,-51,65,185,258,297,-29,-73,-68
-9,63,73,-26,-41,68,165,263,302,-24,-68,-53
-4,68,73,-31,-39,70,161,263,312,-19,-63,-43
0,73,73,-36,-36,73,156,263,322,-9,-53,-39
0,82,82,-41,-41,82,151,263,331,14,-39,-24
0,87,87,-43,-43,87,146,263,331,14,-29,-19
14,97,82,-56,-34,90,136,258,341,14,-29,-14
24,102,78,-63,-26,90,126,244,331,14,-24,-14
34,107,73,-70,-19,90,122,234,326,14,-19,-9
39,112,73,-75,-17,92,107,224,307,4,-19,-9
43,112,68,-78,-12,90,97,219,292,4,-19,-4
39,97,58,-68,-9,78,78,204,273,4,-14,-4
39,97,58,-68,-9,78,68,190,244,-4,-14,-4
39,82,43,-61,-2,63,48,165,209,-9,-19,-4
34,78,43,-56,-4,61,43,146,185,-9,-19,0
39,78,39,-58,0,58,29,112,156,-9,-9,4
43,68,24,-56,9,46,14,92,126,-9,-9,4
48,68,19,-58,14,43,0,78,102,-14,-9,9
43,73,29,-58,7,51,-9,58,78,-14,-9,9
43,53,9,-48,17,31,-19,34,53,-14,0,9
48,53,4,-51,21,29,-24,19,29,-14,0,4
43,48,4,-46,19,26,-39,0,4,-19,-4,4
39,48,9,-43,14,29,-43,-14,-14,-14,-9,9
24,39,14,-31,4,26,-43,-29,-29,-14,-9,4
9,34,24,-21,-7,29,-58,-34,-48,-24,-9,0
19,34,14,-26,2,24,-58,-43,-58,-24,-14,0
29,24,-4,-26,17,9,-53,-43,-63,-24,-14,0
19,24,4,-21,7,14,-53,-43,-63,-24,-14,-4
4,19,14,-12,-4,17,-53,-48,-78,-24,-14,-9
0,14,14,-7,-7,14,-53,-48,-87,-29,-19,-14
4,9,4,-7,0,7,-53,-48,-87,-29,-29,-14
-4,4,9,0,-7,7,-53,-58,-97,-34,-29,-24
-4,0,4,2,-4,2,-48,-63,-97,-34,-29,-29
-9,-4,4,7,-7,0,-48,-63,-97,-39,-29,-29
-14,-9,4,12,-9,-2,-48,-63,-97,-39,-34,-29
-34,-19,14,26,-24,-2,-48,-63,-97,-39,-34,-29
-43,-19,24,31,-34,2,-48,-63,-97,-34,-24,-24
-34,-19,14,26,-24,-2,-43,-63,-97,-34,-24,-24
-24,-19,4,21,-14,-7,-43,-63,-97,-34,-34,-29
-19,-9,9,14,-14,0,-43,-63,-97,-34,-34,-24
-9,-9,0,9,-4,-4,-43,-63,-97,-34,-34,-24
-9,-9,0,9,-4,-4,-39,-58,-97,-34,-34,-24
-14,-9,4,12,-9,-2,-39,-58,-92,-34,-29,-24
-24,-14,9,19,-17,-2,-34,-53,-87,-29,-24,-19
-29,-9,19,19,-24,4,-29,-48,-82,-24,-19,-19
-29,-9,19,19,-24,4,-29,-48,-82,-24,-19,-19
-29,-9,19,19,-24,4,-29,-48,-78,-19,-19,-19
-29,-4,24,17,-26,9,-24,-48,-73,-19,-14,-14
-29,9,39,9,-34,24,-24,-48,-73,-19,-14,-14
-29,0,29,14,-29,14,-34,-43,-73,-14,-9,-14
-29,-9,19,19,-24,4,-39,-43,-73,-14,-9,-14
-14,0,14,7,-14,7,-39,-43,-68,-14,-19,-14
4,-4,-9,0,7,-7,-39,-48,-68,-19,-24,-19
-4,-9,-4,7,0,-7,-39,-63,-63,-19,-24,-19
-19,-14,4,17,-12,-4,-39,-58,-63,-9,-24,-14
-34,-14,19,24,-26,2,-34,-53,-53,-4,-19,-9
-48,0,48,24,-48,24,-34,-43,-43,4,-14,-4
-39,4,43,17,-41,24,-34,-43,-39,4,-14,-4
-24,9,34,7,-29,21,-34,-48,-39,4,-14,-4
-14,9,24,2,-19,17,-34,-48,-39,4,-9,-4
-14,19,34,-2,-24,26,-34,-48,-34,4,-4,-4
-19,19,39,0,-29,29,-29,-43,-34,4,-4,-4
-19,14,34,2,-26,24,-29,-43,-29,9,-4,-4
-19,9,29,4,-24,19,-29,-43,-29,4,-4,-4
-19,9,29,4,-24,19,-29,-43,-29,0,-4,-9
-14,9,24,2,-19,17,-29,-43,-29,0,0,-9
-9,9,19,0,-14,14,-29,-43,-29,0,-4,-4
0,19,19,-9,-9,19,-29,-43,-34,4,-4,-4
-9,9,19,0,-14,14,-34,-43,-39,4,0,-4
-19,9,29,4,-24,19,-34,-48,-43,4,-4,-9
-24,14,39,4,-31,26,-29,-48,-43,9,-9,-9
-24,14,39,4,-31,26,-29,-43,-43,9,-9,-9
-29,14,43,7,-36,29,-29,-43,-43,9,-9,-4
-19,14,34,2,-26,24,-29,-39,-39,9,-4,-4
-9,34,43,-12,-26,39,-29,-43,-34,4,0,-4
-9,14,24,-2,-17,19,-34,-43,-43,4,0,-4
-4,14,19,-4,-12,17,-34,-43,-48,4,0,-9
-9,19,29,-4,-19,24,-34,-39,-53,4,0,-9
-4,19,24,-7,-14,21,-39,-39,-58,0,0,-9
-14,9,24,2,-19,17,-39,-43,-58,0,0,-4
-14,9,24,2,-19,17,-43,-48,-58,-4,-9,0
-19,14,34,2,-26,24,-39,-48,-58,-9,-9,0
-29,14,43,7,-36,29,-29,-48,-58,-14,-9,-4
-29,9,39,9,-34,24,-29,-43,-58,-19,-14,-9
-34,9,43,12,-39,26,-29,-43,-58,-19,-14,-9
-29,4,34,12,-31,19,-29,-43,-63,-24,-14,-9
-29,4,34,12,-31,19,-29,-43,-68,-24,-19,-9
-29,4,34,12,-31,19,-29,-43,-68,-29,-19,-9
-24,4,29,9,-26,17,-29,-48,-73,-29,-19,-9
-29,-9,19,19,-24,4,-29,-48,-78,-29,-14,-14
-34,-14,19,24,-26,2,-29,-48,-78,-29,-14,-14
-34,-14,19,24,-26,2,-29,-48,-78,-34,-19,-19
-34,-14,19,24,-26,2,-29,-53,-78,-34,-24,-24
-24,-14,9,19,-17,-2,-29,-53,-78,-29,-24,-24
-14,-14,0,14,-7,-7,-29,-48,-82,-29,-29,-24
-29,-19,9,24,-19,-4,-29,-48,-82,-29,-29,-24
-39,-19,19,29,-29,0,-29,-48,-82,-29,-29,-24
-34,-19,14,26,-24,-2,-24,-53,-87,-39,-34,-29
-34,-24,9,29,-21,-7,-24,-53,-92,-43,-34,-34
-34,-29,4,31,-19,-12,-24,-53,-97,-43,-39,-34
-39,-29,9,34,-24,-9,-29,-53,-97,-43,-43,-34
-34,-29,4,31,-19,-12,-29,-63,-92,-48,-43,-34
-34,-24,9,29,-21,-7,-29,-63,-87,-48,-48,-34
-34,-24,9,29,-21,-7,-24,-53,-87,-43,-43,-34
-14,-24,-9,19,-2,-17,-19,-48,-92,-43,-39,-34
-24,-19,4,21,-14,-7,-24,-48,-102,-48,-48,-39
-24,-9,14,17,-19,2,-24,-48,-92,-48,-48,-39
-19,-9,9,14,-14,0,-19,-48,-92,-43,-43,-34
-4,-9,-4,7,0,-7,-19,-43,-87,-43,-43,-34
-14,-9,4,12,-9,-2,-19,-43,-87,-48,-43,-34
-24,-9,14,17,-19,2,-24,-43,-92,-53,-43,-34
-29,-9,19,19,-24,4,-24,-48,-97,-53,-43,-34
-34,-14,19,24,-26,2,-24,-53,-97,-58,-53,-39
-34,-14,19,24,-26,2,-19,-53,-97,-63,-53,-39
-34,-14,19,24,-26,2,-19,-48,-97,-63,-48,-39
-29,-14,14,21,-21,0,-24,-53,-97,-58,-48,-43
-29,-14,14,21,-21,0,-29,-58,-97,-58,-48,-48
-24,-19,4,21,-14,-7,-34,-58,-102,-58,-58,-48
-24,-29,-4,26,-9,-17,-39,-58,-112,-63,-68,-53
-24,-34,-9,29,-7,-21,-34,-58,-102,-58,-58,-48
-29,-39,-9,34,-9,-24,-29,-58,-97,-58,-48,-48
-29,-29,0,29,-14,-14,-29,-53,-97,-58,-48,-48
-29,-19,9,24,-19,-4,-29,-48,-97,-58,-48,-48
-34,-19,14,26,-24,-2,-29,-48,-97,-58,-48,-48
-39,-19,19,29,-29,0,-29,-48,-97,-58,-48,-48
-39,-19,19,29,-29,0,-29,-48,-97,-58,-48,-48
-39,-19,19,29,-29,0,-29,-48,-97,-58,-48,-48
-39,-14,24,26,-31,4,-24,-48,-87,-53,-43,-39
-39,-9,29,24,-34,9,-19,-48,-78,-48,-39,-29
-19,9,29,4,-24,19,-19,-48,-68,-29,-29,-24
0,29,29,-14,-14,29,-19,-48,-58,-9,-19,-19
-9,39,48,-14,-29,43,-19,-48,-43,-9,-14,-14
-19,48,68,-14,-43,58,-19,-48,-29,-9,-9,-9
-19,48,68,-14,-43,58,-24,-48,-24,-9,-9,-9
-19,48,68,-14,-43,58,-29,-48,-19,-9,-9,-9
-19,48,68,-14,-43,58,-29,-48,-14,-4,-9,-9
-14,48,63,-17,-39,56,-34,-48,-9,0,-9,-4
-14,48,63,-17,-39,56,-43,-48,-9,0,-9,-4
-14,48,63,-17,-39,56,-73,-73,-14,-4,-9,-4
-4,58,63,-26,-34,61,-97,-97,-24,-4,-9,-4
4,53,48,-29,-21,51,-97,-97,-29,-4,-14,4
9,53,43,-31,-17,48,-102,-102,-48,-9,-19,0
34,53,19,-43,7,36,-117,-102,-53,-19,-24,-4
29,63,34,-46,-2,48,-117,-107,-53,-19,-24,-4
19,73,53,-46,-17,63,-112,-107,-48,-19,-24,0
19,78,58,-48,-19,68,-92,-87,-43,-4,0,14
34,82,48,-58,-7,65,-73,-58,-34,4,19,24
43,82,39,-63,2,61,-68,-48,-29,14,29,29
58,82,24,-70,17,53,-73,-58,-29,24,34,34
43,82,39,-63,2,61,-73,-58,-29,24,34,39
-4,58,63,-26,-34,61,-63,-63,-39,9,19,29
-19,19,39,0,-29,29,-43,-63,-48,-9,0,9
-29,-4,24,17,-26,9,-14,-48,-48,-14,-9,0
-39,-24,14,31,-26,-4,-9,-53,-58,-24,-19,-14
-43,-29,14,36,-29,-7,-4,-53,-78,-29,-34,-29
-43,-53,-9,48,-17,-31,-4,-48,-82,-39,-43,-39
-43,-68,-24,56,-9,-46,0,-43,-92,-58,-58,-53
-58,-82,-24,70,-17,-53,14,-39,-92,-68,-63,-63
-58,-82,-24,70,-17,-53,19,-34,-87,-73,-63,-63
-58,-82,-24,70,-17,-53,19,-29,-102,-82,-68,-68
-53,-78,-24,65,-14,-51,19,-29,-102,-82,-63,-68
-48,-73,-24,61,-12,-48,19,-29,-102,-82,-68,-73
-48,-63,-14,56,-17,-39,19,-29,-102,-82,-73,-73
-48,-78,-29,63,-9,-53,24,-29,-102,-82,-78,-73
-53,-87,-34,70,-9,-61,24,-29,-102,-87,-82,-78
-58,-87,-29,73,-14,-58,24,-29,-107,-87,-82,-78
-63,-87,-24,75,-19,-56,24,-29,-107,-87,-82,-78
-58,-87,-29,73,-14,-58,24,-24,-107,-92,-82,-73
-58,-87,-29,73,-14,-58,29,-19,-107,-92,-82,-73
-53,-78,-24,65,-14,-51,29,-19,-107,-87,-82,-73
-48,-73,-24,61,-12,-48,24,-19,-107,-87,-82,-78
-48,-92,-43,70,-2,-68,24,-24,-112,-87,-87,-78
-48,-107,-58,78,4,-82,24,-29,-117,-87,-92,-82
-48,-92,-43,70,-2,-68,24,-29,-117,-87,-92,-82
-53,-78,-24,65,-14,-51,24,-29,-117,-87,-92,-78
-58,-82,-24,70,-17,-53,34,-29,-126,-102,-97,-78
-63,-92,-29,78,-17,-61,39,-19,-141,-122,-117,-92
-78,-92,-14,85,-31,-53,43,-29,-170,-165,-151,-126
-107,-78,29,92,-68,-24,63,-34,-175,-204,-185,-141
-126,-39,87,82,-107,24,87,-34,-170,-209,-200,-151
-126,29,156,48,-141,92,102,-29,-97,-117,-107,-78
-39,190,229,-75,-134,209,68,-24,4,107,117,117
73,419,346,-246,-136,383,-4,-4,190,453,439,385
248,712,463,-480,-107,588,-161,4,385,936,922,800
488,1029,541,-758,-26,785,-424,-78,473,1464,1473,1278
761,1268,507,-1015,126,888,-780,-273,434,1922,1976,1732
1010,1307,297,-1159,356,802,-1073,-419,439,2308,2361,2039
1112,1137,24,-1124,544,580,-1180,-512,458,2347,2381,2074
961,951,-9,-956,485,470,-1107,-653,356,2000,2054,1839
741,619,-122,-680,431,248,-902,-590,185,1366,1464,1376
512,326,-185,-419,348,70,-624,-370,24,707,805,819
341,185,-156,-263,248,14,-434,-229,-117,312,390,448
224,97,-126,-161,175,-14,-273,-165,-195,63,161,248
126,63,-63,-95,95,0,-170,-112,-170,-4,73,151
73,19,-53,-46,63,-17,-102,-48,-117,-29,24,73
29,-19,-48,-4,39,-34,-39,-4,-78,-48,-19,14
0,-43,-43,21,21,-43,4,4,-43,-63,-53,-24
-39,-78,-39,58,0,-58,53,9,-34,-82,-82,-58
-53,-107,-53,80,0,-80,68,19,-48,-102,-107,-87
-63,-107,-43,85,-9,-75,68,19,-58,-122,-122,-102
-73,-97,-24,85,-24,-61,68,19,-63,-131,-131,-107
-73,-117,-43,95,-14,-80,82,19,-63,-136,-136,-117
-78,-122,-43,100,-17,-82,92,24,-68,-146,-141,-122
-82,-126,-43,104,-19,-85,92,24,-73,-146,-156,-136
-82,-126,-43,104,-19,-85,92,19,-73,-151,-156,-141
-87,-141,-53,114,-17,-97,92,19,-78,-161,-161,-146
-87,-146,-58,117,-14,-102,97,24,-78,-170,-161,-151
-87,-141,-53,114,-17,-97,97,24,-78,-170,-165,-151
-92,-141,-48,117,-21,-95,97,24,-78,-175,-165,-156
-107,-146,-39,126,-34,-92,102,24,-73,-175,-165,-151
-117,-141,-24,129,-46,-82,112,29,-68,-180,-170,-151
-107,-131,-24,119,-41,-78,112,29,-68,-180,-170,-151
-97,-122,-24,109,-36,-73,112,29,-68,-185,-175,-151
-87,-122,-34,104,-26,-78,117,29,-73,-185,-175,-161
-78,-126,-48,102,-14,-87,122,34,-73,-185,-180,-165
-82,-131,-48,107,-17,-90,122,34,-73,-190,-185,-165
-87,-136,-48,112,-19,-92,122,34,-73,-195,-190,-170
-97,-146,-48,122,-24,-97,117,34,-73,-195,-190,-170
-102,-146,-43,124,-29,-95,117,34,-78,-195,-190,-175
-92,-151,-58,122,-17,-104,117,34,-78,-200,-195,-180
-102,-151,-48,126,-26,-100,122,39,-73,-200,-195,-180
-97,-141,-43,119,-26,-92,122,39,-73,-204,-204,-185
-102,-151,-48,126,-26,-100,131,43,-68,-204,-204,-185
-107,-156,-48,131,-29,-102,136,53,-58,-204,-204,-185
-107,-161,-53,134,-26,-107,136,58,-58,-209,-204,-190
-107,-156,-48,131,-29,-102,136,63,-48,-209,-204,-190
-102,-156,-53,129,-24,-104,146,68,-43,-204,-209,-190
-102,-156,-53,129,-24,-104,156,78,-34,-204,-209,-190
-107,-156,-48,131,-29,-102,161,92,-24,-200,-209,-190
-112,-156,-43,134,-34,-100,165,102,-14,-195,-209,-190
-112,-141,-29,126,-41,-85,175,112,-4,-190,-209,-185
-112,-151,-39,131,-36,-95,175,117,4,-185,-209,-185
-112,-151,-39,131,-36,-95,180,131,19,-185,-209,-195
-112,-146,-34,129,-39,-90,195,141,39,-180,-204,-185
-112,-141,-29,126,-41,-85,200,151,58,-175,-200,-180
-112,-136,-24,124,-43,-80,204,165,78,-170,-185,-175
-102,-126,-24,114,-39,-75,204,175,97,-161,-170,-175
-102,-112,-9,107,-46,-61,209,195,117,-156,-175,-165
-92,-107,-14,100,-39,-61,214,200,136,-146,-175,-161
-87,-97,-9,92,-39,-53,219,214,161,-131,-165,-156
-78,-82,-4,80,-36,-43,219,224,185,-117,-161,-146
-87,-73,14,80,-51,-29,219,234,200,-112,-151,-141
-97,-58,39,78,-68,-9,219,248,224,-102,-146,-136
-92,-43,48,68,-70,2,219,253,239,-92,-131,-122
-87,-29,58,58,-73,14,214,263,268,-73,-122,-112
-82,-14,68,48,-75,26,219,273,292,-58,-112,-97
-73,4,78,34,-75,41,214,283,317,-39,-102,-92
-68,14,82,26,-75,48,214,283,331,-34,-82,-82
-53,34,87,9,-70,61,214,287,346,-19,-73,-78
-39,43,82,-2,-61,63,195,287,351,-14,-68,-63
-34,48,82,-7,-58,65,190,283,361,-9,-63,-53
-19,53,73,-17,-46,63,180,283,366,-9,-53,-48
-9,63,73,-26,-41,68,170,283,370,4,-39,-34
-4,63,68,-29,-36,65,165,287,370,9,-29,-24
14,68,53,-41,-19,61,156,287,380,14,-29,-14
24,68,43,-46,-9,56,146,273,370,9,-29,-14
34,68,34,-51,0,51,141,263,366,4,-29,-9
39,73,34,-56,2,53,126,253,346,-4,-29,-9
43,73,29,-58,7,51,117,248,331,-4,-29,-4
39,53,14,-46,12,34,97,229,312,-4,-24,-4
39,48,9,-43,14,29,87,209,283,-14,-24,-4
39,39,0,-39,19,19,68,185,248,-19,-29,-4
34,39,4,-36,14,21,63,165,224,-19,-29,0
34,34,0,-34,17,17,48,131,195,-19,-19,0
34,19,-14,-26,24,2,34,112,165,-19,-19,-4
34,14,-19,-24,26,-2,24,97,141,-19,-19,0
24,14,-9,-19,17,2,19,78,117,-14,-19,0
19,0,-19,-9,19,-9,9,58,97,-14,-9,4
19,4,-14,-12,17,-4,4,48,78,-14,-9,4
24,-4,-29,-9,26,-17,-14,24,53,-24,-14,0
29,-9,-39,-9,34,-24,-24,4,34,-24,-19,0
24,-19,-43,-2,34,-31,-24,-14,14,-24,-19,-4
19,-24,-43,2,31,-34,-39,-24,-9,-34,-19,-9
4,-24,-29,9,17,-26,-39,-34,-19,-34,-24,-9
-9,-34,-24,21,7,-29,-34,-34,-24,-34,-24,-9
-19,-39,-19,29,0,-29,-29,-34,-24,-34,-24,-14
-34,-48,-14,41,-9,-31,-24,-39,-39,-34,-24,-19
-24,-48,-24,36,0,-36,-24,-39,-43,-39,-29,-24
-4,-48,-43,26,19,-46,-24,-39,-39,-39,-39,-24
-14,-53,-39,34,12,-46,-24,-43,-48,-43,-39,-29
-14,-58,-43,36,14,-51,-19,-43,-48,-43,-39,-29
-14,-63,-48,39,17,-56,-19,-43,-48,-43,-39,-29
-14,-68,-53,41,19,-61,-19,-43,-48,-39,-43,-29
-24,-78,-53,51,14,-65,-24,-43,-48,-39,-43,-34
-24,-78,-53,51,14,-65,-29,-43,-48,-34,-34,-34
-24,-78,-53,51,14,-65,-24,-43,-48,-39,-34,-34
-24,-78,-53,51,14,-65,-24,-43,-48,-43,-43,-39
-19,-63,-43,41,12,-53,-24,-43,-48,-43,-43,-39
-9,-58,-48,34,19,-53,-24,-43,-48,-43,-43,-43
-9,-58,-48,34,19,-53,-19,-43,-48,-39,-43,-43
-14,-58,-43,36,14,-51,-19,-48,-43,-34,-39,-43
-24,-73,-48,48,12,-61,-19,-48,-43,-34,-39,-39
-29,-78,-48,53,9,-63,-19,-48,-43,-34,-39,-39
-29,-78,-48,53,9,-63,-19,-43,-43,-34,-39,-34
-29,-78,-48,53,9,-63,-19,-39,-39,-29,-39,-29
-29,-68,-39,48,4,-53,-14,-39,-34,-29,-34,-24
-29,-48,-19,39,-4,-34,-14,-39,-34,-29,-34,-24
-29,-58,-29,43,0,-43,-19,-34,-34,-24,-24,-24
-29,-68,-39,48,4,-53,-19,-34,-34,-24,-19,-24
-29,-53,-24,41,-2,-39,-19,-34,-29,-24,-24,-24
-24,-53,-29,39,2,-41,-19,-39,-29,-29,-24,-29
-14,-53,-39,34,12,-46,-19,-48,-19,-29,-19,-29
-9,-53,-43,31,17,-48,-19,-39,-14,-19,-14,-24
-19,-63,-43,41,12,-53,-19,-39,-14,-19,-14,-24
-29,-58,-29,43,0,-43,-24,-34,-14,-14,-14,-24
-34,-58,-24,46,-4,-41,-24,-34,-9,-14,-14,-24
-34,-58,-24,46,-4,-41,-24,-39,-9,-14,-14,-24
-24,-58,-34,41,4,-46,-19,-39,-9,-14,-14,-24
-24,-48,-24,36,0,-36,-14,-39,-4,-14,-14,-24
-19,-43,-24,31,2,-34,-9,-34,-9,-14,-14,-24
-9,-43,-34,26,12,-39,-9,-34,-9,-9,-14,-24
-19,-48,-29,34,4,-39,-9,-34,-9,-9,-14,-14
-29,-48,-19,39,-4,-34,-9,-34,-9,-9,-14,-9
-29,-48,-19,39,-4,-34,-9,-34,-9,-9,-4,-9
-29,-48,-19,39,-4,-34,-9,-34,-9,-9,-4,-4
-19,-39,-19,29,0,-29,-9,-34,-9,-4,-9,-4
-29,-48,-19,39,-4,-34,-14,-34,-9,-4,-9,-4
-43,-48,-4,46,-19,-26,-14,-34,-9,-4,-9,-4
-53,-43,9,48,-31,-17,-9,-29,-4,0,-9,0
-39,-43,-4,41,-17,-24,-14,-24,-4,0,-9,0
-29,-43,-14,36,-7,-29,-19,-24,-4,0,-9,4
-43,-58,-14,51,-14,-36,-19,-24,-4,0,-4,4
-58,-53,4,56,-31,-24,-19,-34,-4,-4,0,4
-48,-63,-14,56,-17,-39,-24,-34,-9,-4,0,4
-34,-53,-19,43,-7,-36,-24,-34,-9,-4,0,0
-34,-48,-14,41,-9,-31,-19,-29,-9,-4,-4,-4
-24,-48,-24,36,0,-36,-19,-29,-9,-9,-9,-9
-24,-58,-34,41,4,-46,-19,-34,-14,-9,-9,-9
-14,-58,-43,36,14,-51,-24,-39,-19,-14,-19,-9
-19,-53,-34,36,7,-43,-24,-39,-24,-14,-19,-9
-29,-53,-24,41,-2,-39,-19,-39,-29,-14,-19,-14
-29,-53,-24,41,-2,-39,-19,-34,-29,-19,-24,-19
-34,-48,-14,41,-9,-31,-19,-34,-29,-19,-24,-19
-34,-53,-19,43,-7,-36,-19,-34,-34,-24,-24,-19
-39,-53,-14,46,-12,-34,-19,-34,-39,-24,-29,-19
-39,-53,-14,46,-12,-34,-19,-34,-39,-29,-29,-19
-34,-53,-19,43,-7,-36,-19,-39,-43,-29,-29,-19
-39,-63,-24,51,-7,-43,-19,-39,-48,-29,-29,-24
-43,-63,-19,53,-12,-41,-19,-39,-48,-29,-34,-24
-43,-63,-19,53,-12,-41,-19,-39,-48,-34,-39,-29
-43,-63,-19,53,-12,-41,-19,-43,-48,-34,-43,-34
-43,-63,-19,53,-12,-41,-19,-43,-48,-34,-39,-34
-43,-63,-19,53,-12,-41,-19,-39,-53,-39,-39,-34
-48,-68,-19,58,-14,-43,-19,-39,-58,-39,-39,-29
-48,-68,-19,58,-14,-43,-19,-39,-63,-39,-39,-24
-43,-58,-14,51,-14,-36,-14,-43,-68,-43,-43,-29
-43,-53,-9,48,-17,-31,-14,-43,-73,-43,-43,-34
-43,-58,-14,51,-14,-36,-14,-48,-78,-48,-43,-34
-48,-58,-9,53,-19,-34,-19,-53,-78,-53,-43,-34
-34,-68,-34,51,0,-51,-19,-63,-78,-58,-43,-39
-24,-73,-48,48,12,-61,-19,-63,-78,-58,-48,-43
-34,-73,-39,53,2,-56,-19,-53,-73,-53,-48,-43
-24,-73,-48,48,12,-61,-19,-48,-73,-53,-48,-43
-34,-73,-39,53,2,-56,-19,-48,-82,-58,-58,-48
-34,-68,-34,51,0,-51,-14,-48,-73,-58,-58,-48
-34,-68,-34,51,0,-51,-9,-53,-78,-53,-53,-43
-24,-68,-43,46,9,-56,-9,-53,-78,-53,-53,-43
-34,-68,-34,51,0,-51,-9,-53,-78,-53,-53,-43
-43,-68,-24,56,-9,-46,-14,-53,-82,-53,-53,-43
-43,-68,-24,56,-9,-46,-14,-58,-87,-53,-53,-43
-43,-73,-29,58,-7,-51,-14,-63,-87,-58,-63,-48
-39,-73,-34,56,-2,-53,-14,-63,-87,-63,-63,-48
-34,-73,-39,53,2,-56,-19,-58,-87,-63,-58,-48
-29,-73,-43,51,7,-58,-19,-58,-87,-58,-63,-48
-29,-73,-43,51,7,-58,-19,-58,-87,-58,-68,-48
-24,-63,-39,43,7,-51,-19,-58,-82,-53,-63,-43
-24,-58,-34,41,4,-46,-19,-58,-82,-53,-58,-43
-24,-63,-39,43,7,-51,-19,-58,-82,-58,-58,-43
-29,-68,-39,48,4,-53,-19,-58,-87,-68,-58,-48
-29,-68,-39,48,4,-53,-19,-53,-87,-68,-58,-48
-29,-68,-39,48,4,-53,-19,-48,-87,-68,-58,-48
-43,-68,-24,56,-9,-46,-19,-48,-87,-68,-58,-48
-58,-68,-9,63,-24,-39,-19,-48,-87,-68,-58,-48
-43,-63,-19,53,-12,-41,-24,-53,-87,-68,-58,-53
-29,-58,-29,43,0,-43,-29,-58,-87,-68,-58,-58
-29,-58,-29,43,0,-43,-29,-58,-87,-68,-58,-58
-29,-58,-29,43,0,-43,-29,-58,-87,-68,-58,-58
-29,-58,-29,43,0,-43,-24,-58,-87,-63,-58,-53
-29,-58,-29,43,0,-43,-19,-58,-87,-58,-58,-48
-29,-48,-19,39,-4,-34,-19,-58,-82,-58,-53,-48
-29,-39,-9,34,-9,-24,-19,-58,-78,-58,-48,-48
-24,-29,-4,26,-9,-17,-19,-58,-68,-53,-48,-43
-19,-19,0,19,-9,-9,-19,-58,-58,-48,-48,-39
-19,-14,4,17,-12,-4,-19,-58,-53,-39,-39,-34
-19,-9,9,14,-14,0,-19,-58,-48,-29,-29,-29
-19,0,19,9,-19,9,-19,-58,-48,-29,-24,-29
-19,9,29,4,-24,19,-19,-58,-48,-29,-19,-29
-19,14,34,2,-26,24,-19,-58,-34,-19,-14,-19
-19,14,34,2,-26,24,-29,-53,-24,-14,-9,-14
-19,19,39,0,-29,29,-39,-53,-19,-9,-9,-9
-24,19,43,2,-34,31,-73,-73,-24,-14,-9,-14
-14,29,43,-7,-29,36,-102,-97,-29,-19,-9,-19
-4,24,29,-9,-17,26,-107,-97,-29,-24,-14,-14
0,24,24,-12,-12,24,-112,-107,-48,-24,-19,-14
24,24,0,-24,12,12,-126,-112,-53,-29,-24,-14
14,34,19,-24,-2,26,-126,-117,-58,-24,-24,-14
0,43,43,-21,-21,43,-122,-117,-58,-19,-24,-9
9,48,39,-29,-14,43,-102,-97,-53,-4,-4,4
34,53,19,-43,7,36,-82,-68,-43,4,9,14
48,63,14,-56,17,39,-82,-58,-34,9,19,19
68,73,4,-70,31,39,-92,-68,-29,14,24,24
68,73,4,-70,31,39,-92,-73,-29,14,29,29
34,48,14,-41,9,31,-82,-82,-39,0,19,19
4,14,9,-9,-2,12,-63,-82,-48,-14,0,0
-19,-4,14,12,-17,4,-34,-68,-48,-14,-9,-9
-34,-24,9,29,-21,-7,-29,-68,-53,-24,-19,-19
-43,-29,14,36,-29,-7,-24,-63,-68,-29,-34,-29
-43,-43,0,43,-21,-21,-24,-58,-73,-39,-43,-39
-43,-48,-4,46,-19,-26,-19,-53,-82,-58,-58,-53
-53,-63,-9,58,-21,-36,-4,-48,-87,-53,-63,-63
-48,-63,-14,56,-17,-39,0,-43,-87,-43,-63,-63
-48,-78,-29,63,-9,-53,0,-39,-107,-63,-73,-68
-43,-87,-43,65,0,-65,0,-39,-112,-73,-73,-68
-43,-82,-39,63,-2,-61,0,-39,-112,-73,-73,-73
-48,-73,-24,61,-12,-48,0,-39,-112,-73,-73,-73
-48,-82,-34,65,-7,-58,4,-39,-112,-73,-73,-73
-53,-87,-34,70,-9,-61,4,-39,-112,-78,-73,-78
-73,-87,-14,80,-29,-51,9,-39,-112,-68,-73,-78
-92,-87,4,90,-48,-41,14,-39,-107,-58,-73,-78
-78,-87,-9,82,-34,-48,14,-39,-107,-63,-73,-73
-68,-87,-19,78,-24,-53,19,-39,-107,-63,-73,-73
-48,-87,-39,68,-4,-63,9,-39,-117,-68,-73,-73
-29,-92,-63,61,17,-78,-4,-39,-126,-78,-73,-78
-43,-92,-48,68,2,-70,4,-34,-112,-68,-68,-73
-58,-87,-29,73,-14,-58,14,-29,-97,-58,-63,-73
-58,-87,-29,73,-14,-58,14,-29,-97,-58,-63,-73
-63,-87,-24,75,-19,-56,14,-29,-97,-58,-63,-68
-63,-92,-29,78,-17,-61,19,-34,-107,-68,-68,-68
-63,-102,-39,82,-12,-70,19,-29,-122,-82,-87,-82
-73,-107,-34,90,-19,-70,19,-39,-156,-126,-122,-122
-97,-97,0,97,-48,-48,34,-43,-165,-165,-156,-141
-117,-78,39,97,-78,-19,68,-48,-180,-209,-219,-185
-117,-29,87,73,-102,29,92,-48,-126,-156,-175,-146
-73,107,180,-17,-126,143,92,-39,-48,-9,-9,0
-4,312,317,-153,-161,314,53,-14,112,258,253,219
161,566,405,-363,-122,485,-58,48,341,702,683,585
390,844,453,-617,-31,649,-278,19,463,1190,1180,1015
717,1195,478,-956,119,836,-688,-200,419,1688,1751,1542
1019,1346,326,-1183,346,836,-1034,-370,419,2113,2205,1922
1190,1190,0,-1190,595,595,-1229,-502,448,2298,2366,2059
1107,1019,-87,-1063,597,466,-1244,-683,356,2098,2181,1927
863,688,-175,-775,519,256,-1029,-644,185,1478,1600,1488
610,395,-214,-502,412,90,-741,-448,24,834,951,956
424,244,-180,-334,302,31,-531,-278,-131,409,492,541
292,146,-146,-219,219,0,-351,-185,-224,131,219,297
175,102,-73,-139,124,14,-239,-141,-204,43,112,190
102,48,-53,-75,78,-2,-161,-87,-156,0,43,102
58,4,-53,-31,56,-24,-92,-29,-112,-19,0,34
29,-24,-53,-2,41,-39,-43,-4,-73,-34,-34,-14
-4,-48,-43,26,19,-46,14,0,-58,-53,-68,-53
-14,-68,-53,41,19,-61,39,9,-68,-73,-97,-87
-48,-78,-29,63,-9,-53,39,14,-73,-92,-112,-102
-82,-78,4,80,-43,-36,39,19,-73,-102,-122,-107
-82,-97,-14,90,-34,-56,58,19,-73,-107,-126,-117
-87,-102,-14,95,-36,-58,73,24,-78,-117,-131,-122
-78,-107,-29,92,-24,-68,73,24,-82,-117,-146,-136
-63,-107,-43,85,-9,-75,73,19,-82,-122,-146,-141
-68,-117,-48,92,-9,-82,73,19,-87,-126,-151,-141
-68,-117,-48,92,-9,-82,78,24,-87,-131,-151,-141
-73,-112,-39,92,-17,-75,82,24,-87,-136,-156,-146
-82,-112,-29,97,-26,-70,87,24,-87,-146,-156,-156
-92,-122,-29,107,-31,-75,87,24,-87,-146,-156,-156
-97,-122,-24,109,-36,-73,92,29,-87,-151,-161,-161
-97,-126,-29,112,-34,-78,87,29,-87,-146,-156,-161
-97,-131,-34,114,-31,-82,82,29,-87,-146,-156,-161
-97,-131,-34,114,-31,-82,87,29,-92,-146,-156,-165
-97,-136,-39,117,-29,-87,92,34,-92,-146,-161,-165
-102,-136,-34,119,-34,-85,92,29,-92,-151,-170,-165
-107,-136,-29,122,-39,-82,92,24,-92,-156,-180,-170
-107,-146,-39,126,-34,-92,92,24,-92,-156,-180,-170
-102,-146,-43,124,-29,-95,97,24,-97,-156,-180,-175
-82,-151,-68,117,-7,-109,97,24,-97,-170,-185,-180
-82,-151,-68,117,-7,-109,102,29,-92,-180,-185,-180
-97,-141,-43,119,-26,-92,102,39,-92,-175,-195,-185
-122,-151,-29,136,-46,-90,112,53,-87,-165,-195,-185
-126,-151,-24,139,-51,-87,117,53,-78,-165,-195,-185
-126,-151,-24,139,-51,-87,117,48,-78,-170,-195,-190
-126,-146,-19,136,-53,-82,117,53,-68,-175,-195,-190
-122,-146,-24,134,-48,-85,126,58,-63,-175,-200,-190
-122,-146,-24,134,-48,-85,131,63,-53,-175,-200,-190
-126,-146,-19,136,-53,-82,131,73,-43,-170,-200,-190
-126,-146,-19,136,-53,-82,136,82,-34,-170,-200,-195
-122,-131,-9,126,-56,-70,146,92,-24,-170,-200,-195
-117,-141,-24,129,-46,-82,146,97,-14,-165,-200,-195
-112,-141,-29,126,-41,-85,151,112,0,-165,-200,-204
-112,-146,-34,129,-39,-90,165,122,9,-170,-195,-195
-112,-151,-39,131,-36,-95,170,131,19,-175,-190,-190
-107,-136,-29,122,-39,-82,180,146,43,-161,-185,-185
-92,-117,-24,104,-34,-70,185,156,68,-141,-180,-185
-102,-102,0,102,-51,-51,195,180,87,-136,-175,-175
-102,-97,4,100,-53,-46,204,190,107,-126,-165,-170
-107,-87,19,97,-63,-34,209,204,131,-117,-161,-161
-107,-73,34,90,-70,-19,209,214,156,-107,-161,-146
-97,-63,34,80,-65,-14,209,224,170,-102,-151,-141
-87,-48,39,68,-63,-4,209,239,195,-92,-146,-136
-78,-39,39,58,-58,0,209,244,204,-82,-131,-126
-68,-29,39,48,-53,4,204,253,229,-63,-122,-122
-68,-14,53,41,-61,19,209,268,248,-53,-112,-107
-63,4,68,29,-65,36,204,283,268,-39,-102,-102
-58,14,73,21,-65,43,204,283,283,-34,-82,-92
-43,34,78,4,-61,56,204,287,297,-19,-73,-87
-29,43,73,-7,-51,58,185,292,302,-14,-68,-73
-24,48,73,-12,-48,61,180,292,312,-9,-63,-63
-14,53,68,-19,-41,61,180,297,317,-14,-58,-58
-9,63,73,-26,-41,68,180,302,322,-4,-48,-43
-4,68,73,-31,-39,70,175,302,322,4,-43,-39
14,78,63,-46,-24,70,165,297,331,14,-48,-34
24,78,53,-51,-14,65,151,283,322,14,-43,-34
34,78,43,-56,-4,61,141,273,317,14,-39,-29
29,78,48,-53,-9,63,126,258,302,4,-39,-29
24,73,48,-48,-12,61,117,248,292,4,-39,-24
24,58,34,-41,-4,46,97,229,278,9,-34,-19
29,58,29,-43,0,43,87,209,253,4,-34,-14
39,63,24,-51,7,43,68,185,229,0,-34,-14
43,78,34,-61,4,56,63,165,214,0,-29,-9
43,78,34,-61,4,56,48,131,190,0,-19,-4
43,68,24,-56,9,46,34,112,165,0,-19,-4
43,58,14,-51,14,36,19,92,141,-4,-19,0
34,53,19,-43,7,36,9,68,117,-4,-19,0
29,34,4,-31,12,19,0,43,92,-4,-9,0
29,34,4,-31,12,19,-4,29,68,-4,-9,-4
34,24,-9,-29,21,7,-19,4,43,-14,-14,-9
39,19,-19,-29,29,0,-24,-14,24,-14,-19,-9
14,9,-4,-12,9,2,-24,-29,9,-14,-19,-14
-9,4,14,2,-12,9,-39,-34,-9,-24,-19,-19
-9,4,14,2,-12,9,-43,-43,-19,-24,-24,-19
-9,-4,4,7,-7,0,-43,-43,-24,-24,-24,-19
-9,-4,4,7,-7,0,-43,-48,-24,-24,-19,-24
-14,-9,4,12,-9,-2,-43,-58,-39,-24,-14,-29
-19,-14,4,17,-12,-4,-43,-58,-48,-29,-19,-34
-14,-19,-4,17,-4,-12,-43,-58,-48,-29,-29,-34
-24,-24,0,24,-12,-12,-39,-63,-58,-34,-29,-39
-24,-29,-4,26,-9,-17,-29,-63,-58,-34,-29,-39
-19,-34,-14,26,-2,-24,-29,-63,-58,-39,-29,-39
-14,-39,-24,26,4,-31,-29,-63,-58,-39,-34,-39
-24,-48,-24,36,0,-36,-29,-68,-58,-43,-48,-48
-24,-48,-24,36,0,-36,-29,-73,-58,-43,-53,-53
-24,-48,-24,36,0,-36,-24,-73,-58,-43,-43,-43
-24,-48,-24,36,0,-36,-24,-73,-58,-43,-43,-39
-14,-39,-24,26,4,-31,-24,-73,-58,-43,-43,-39
0,-39,-39,19,19,-39,-24,-73,-58,-43,-43,-43
-9,-39,-29,24,9,-34,-19,-68,-58,-43,-43,-43
-24,-39,-14,31,-4,-26,-19,-68,-53,-43,-39,-43
-39,-48,-9,43,-14,-29,-19,-68,-53,-43,-39,-34
-48,-48,0,48,-24,-24,-19,-68,-53,-43,-39,-29
-29,-43,-14,36,-7,-29,-29,-73,-53,-43,-39,-29
-9,-39,-29,24,9,-34,-39,-78,-48,-39,-39,-29
-19,-34,-14,26,-2,-24,-34,-78,-43,-39,-34,-29
-29,-19,9,24,-19,-4,-34,-78,-43,-39,-34,-34
-34,-29,4,31,-19,-12,-34,-68,-39,-29,-29,-34
-39,-39,0,39,-19,-19,-29,-63,-34,-24,-29,-34
-39,-24,14,31,-26,-4,-29,-63,-29,-24,-34,-29
-34,-24,9,29,-21,-7,-29,-68,-29,-29,-34,-29
-43,-29,14,36,-29,-7,-29,-78,-29,-34,-34,-29
-58,-34,24,46,-41,-4,-29,-68,-34,-29,-34,-24
-39,-34,4,36,-21,-14,-29,-68,-34,-29,-34,-29
-19,-19,0,19,-9,-9,-34,-63,-34,-24,-34,-34
-24,-19,4,21,-14,-7,-34,-63,-29,-24,-34,-34
-24,-19,4,21,-14,-7,-34,-68,-29,-24,-34,-34
-14,-14,0,14,-7,-7,-34,-68,-29,-24,-34,-34
-14,0,14,7,-14,7,-34,-68,-24,-24,-34,-34
-19,0,19,9,-19,9,-29,-63,-24,-24,-34,-34
-19,-4,14,12,-17,4,-29,-63,-19,-19,-34,-34
-19,-14,4,17,-12,-4,-29,-63,-19,-19,-34,-24
-19,-19,0,19,-9,-9,-29,-63,-19,-19,-34,-19
-24,-19,4,21,-14,-7,-24,-63,-19,-14,-19,-19
-29,-19,9,24,-19,-4,-19,-63,-19,-9,-14,-14
-19,0,19,9,-19,9,-19,-63,-19,-4,-14,-14
-29,0,29,14,-29,14,-24,-63,-19,-4,-9,-14
-29,0,29,14,-29,14,-24,-63,-19,-4,-9,-14
-24,4,29,9,-26,17,-19,-58,-14,0,-9,-9
-24,0,24,12,-24,12,-24,-53,-14,0,-9,-14
-29,-4,24,17,-26,9,-29,-53,-14,0,-9,-14
-29,-9,19,19,-24,4,-29,-53,-14,-4,-14,-19
-29,4,34,12,-31,19,-29,-63,-14,-14,-19,-24
-24,-14,9,19,-17,-2,-34,-68,-24,-14,-19,-24
-14,-14,0,14,-7,-7,-34,-73,-29,-14,-19,-29
-14,-4,9,9,-12,2,-29,-68,-29,-14,-19,-29
-4,0,4,2,-4,2,-29,-68,-29,-19,-19,-29
-19,-9,9,14,-14,0,-29,-73,-29,-19,-19,-29
-24,-9,14,17,-19,2,-34,-78,-29,-24,-29,-29
-19,-4,14,12,-17,4,-34,-78,-39,-24,-29,-29
-19,-4,14,12,-17,4,-29,-78,-48,-24,-29,-34
-19,-9,9,14,-14,0,-29,-73,-48,-29,-34,-39
-24,-9,14,17,-19,2,-29,-73,-48,-29,-34,-39
-29,-14,14,21,-21,0,-29,-73,-48,-34,-34,-39
-39,-14,24,26,-31,4,-29,-73,-48,-34,-39,-39
-34,-14,19,24,-26,2,-29,-73,-48,-39,-43,-39
-24,-14,9,19,-17,-2,-29,-78,-53,-39,-48,-39
-24,-24,0,24,-12,-12,-29,-78,-63,-39,-43,-43
-24,-24,0,24,-12,-12,-29,-78,-68,-39,-43,-43
-24,-24,0,24,-12,-12,-29,-78,-68,-43,-43,-48
-24,-24,0,24,-12,-12,-29,-82,-68,-43,-43,-53
-29,-24,4,26,-17,-9,-29,-82,-68,-43,-43,-48
-34,-24,9,29,-21,-7,-29,-78,-73,-48,-48,-43
-39,-29,9,34,-24,-9,-29,-78,-73,-48,-48,-43
-39,-29,9,34,-24,-9,-29,-78,-73,-48,-48,-43
-34,-24,9,29,-21,-7,-24,-82,-73,-53,-53,-48
-34,-24,9,29,-21,-7,-24,-82,-73,-53,-53,-53
-34,-29,4,31,-19,-12,-24,-82,-73,-48,-53,-53
-39,-29,9,34,-24,-9,-29,-82,-68,-43,-53,-53
-39,-29,9,34,-24,-9,-24,-92,-68,-48,-53,-53
-43,-24,19,34,-31,-2,-19,-92,-68,-48,-58,-53
-48,-24,24,36,-36,0,-19,-87,-68,-48,-58,-58
-34,-24,9,29,-21,-7,-19,-87,-73,-53,-58,-63
-43,-34,9,39,-26,-12,-29,-87,-92,-63,-68,-68
-43,-39,4,41,-24,-17,-34,-87,-92,-68,-68,-68
-39,-29,9,34,-24,-9,-29,-87,-92,-63,-63,-63
-24,-19,4,21,-14,-7,-29,-82,-87,-63,-63,-63
-24,-14,9,19,-17,-2,-29,-87,-82,-63,-63,-63
-24,-9,14,17,-19,2,-34,-92,-82,-63,-63,-63
-34,-9,24,21,-29,7,-34,-97,-87,-63,-68,-63
-43,-14,29,29,-36,7,-34,-102,-87,-68,-82,-68
-39,-14,24,26,-31,4,-29,-102,-87,-73,-82,-68
-34,-14,19,24,-26,2,-29,-97,-87,-73,-78,-68
-29,-14,14,21,-21,0,-24,-92,-87,-58,-63,-68
-29,-14,14,21,-21,0,-19,-87,-87,-48,-48,-68
-24,-9,14,17,-19,2,-24,-87,-82,-48,-53,-58
-24,-9,14,17,-19,2,-29,-87,-82,-53,-58,-53
-24,-19,4,21,-14,-7,-29,-87,-82,-58,-58,-48
-29,-29,0,29,-14,-14,-29,-87,-87,-68,-58,-48
-29,-29,0,29,-14,-14,-24,-87,-87,-68,-58,-48
-29,-29,0,29,-14,-14,-19,-87,-87,-68,-58,-48
-24,-29,-4,26,-9,-17,-19,-92,-87,-68,-68,-53
-19,-29,-9,24,-4,-19,-19,-97,-87,-68,-78,-58
-19,-24,-4,21,-7,-14,-19,-97,-87,-68,-68,-58
-19,-19,0,19,-9,-9,-19,-97,-87,-68,-58,-58
-39,-14,24,26,-31,4,-14,-97,-82,-68,-58,-58
-58,-9,48,34,-53,19,-9,-97,-78,-68,-58,-58
-48,-9,39,29,-43,14,-9,-97,-78,-68,-63,-58
-39,-9,29,24,-34,9,-9,-97,-78,-68,-68,-58
-29,-4,24,17,-26,9,-14,-97,-78,-68,-68,-58
-19,0,19,9,-19,9,-19,-97,-78,-68,-68,-58
-19,9,29,4,-24,19,-19,-97,-78,-63,-63,-58
-19,19,39,0,-29,29,-19,-97,-78,-58,-58,-58
-19,39,58,-9,-39,48,-19,-102,-73,-58,-58,-58
-19,58,78,-19,-48,68,-19,-107,-68,-58,-58,-58
-19,63,82,-21,-51,73,-19,-107,-53,-53,-58,-58
-19,68,87,-24,-53,78,-19,-107,-39,-48,-58,-58
-14,68,82,-26,-48,75,-19,-107,-29,-48,-53,-53
-9,68,78,-29,-43,73,-24,-102,-19,-43,-43,-43
-4,68,73,-31,-39,70,-29,-97,-14,-39,-39,-34
-4,68,73,-31,-39,70,-53,-112,-14,-34,-29,-24
4,82,78,-43,-36,80,-87,-136,-19,-34,-19,-19
14,82,68,-48,-26,75,-97,-136,-19,-34,-14,-4
24,82,58,-53,-17,70,-97,-141,-39,-29,-14,0
53,82,29,-68,12,56,-107,-141,-43,-29,-14,4
53,92,39,-73,7,65,-107,-151,-48,-29,-9,4
48,102,53,-75,-2,78,-102,-156,-48,-29,-4,9
39,102,63,-70,-12,82,-82,-136,-43,-14,14,24
43,102,58,-73,-7,80,-63,-107,-34,-4,29,34
53,102,48,-78,2,75,-63,-97,-39,-9,19,29
68,102,34,-85,17,68,-73,-107,-48,-14,4,24
82,107,24,-95,29,65,-82,-112,-48,-14,4,24
63,87,24,-75,19,56,-82,-122,-58,-29,-9,9
34,53,19,-43,7,36,-63,-122,-58,-48,-29,-9
9,34,24,-21,-7,29,-34,-107,-48,-53,-39,-19
-14,14,29,0,-21,21,-24,-102,-53,-48,-29,-19
-34,9,43,12,-39,26,-14,-92,-68,-39,-24,-19
-34,4,39,14,-36,21,-14,-87,-68,-48,-34,-29
-34,9,43,12,-39,26,-9,-82,-73,-68,-48,-43
-39,-24,14,31,-26,-4,4,-78,-78,-78,-58,-53
-29,-43,-14,36,-7,-29,9,-73,-78,-82,-63,-53
-29,-48,-19,39,-4,-34,9,-68,-92,-92,-73,-58
-24,-48,-24,36,0,-36,9,-68,-92,-92,-73,-58
-29,-34,-4,31,-12,-19,9,-68,-97,-92,-92,-68
-39,-14,24,26,-31,4,9,-68,-102,-92,-112,-73
-48,-24,24,36,-36,0,14,-68,-102,-92,-102,-73
-63,-29,34,46,-48,2,14,-68,-102,-97,-92,-78
-53,-39,14,46,-34,-12,14,-68,-107,-97,-92,-78
-43,-48,-4,46,-19,-26,14,-68,-107,-97,-92,-78
-39,-58,-19,48,-9,-39,14,-63,-102,-102,-82,-68
-39,-68,-29,53,-4,-48,19,-58,-97,-102,-73,-63
-43,-68,-24,56,-9,-46,19,-58,-97,-92,-63,-63
-48,-73,-24,61,-12,-48,14,-58,-97,-87,-53,-68
-48,-63,-14,56,-17,-39,14,-58,-97,-87,-68,-73
-48,-48,0,48,-24,-24,14,-58,-97,-87,-82,-82
-39,-48,-9,43,-14,-29,14,-58,-92,-87,-82,-82
-34,-48,-14,41,-9,-31,14,-58,-87,-87,-82,-78
-29,-58,-29,43,0,-43,19,-58,-92,-87,-78,-68
-24,-73,-48,48,12,-61,19,-48,-102,-92,-87,-73
-24,-73,-48,48,12,-61,24,-58,-122,-126,-97,-87
-39,-58,-19,48,-9,-39,43,-63,-117,-156,-107,-82
-92,-78,14,85,-53,-31,92,-58,-131,-209,-180,-141
-126,-68,58,97,-92,-4,131,-48,-78,-165,-146,-117
-107,34,141,36,-124,87,161,-34,-14,-82,-63,-39
-63,204,268,-70,-165,236,151,-4,131,122,117,112
122,448,326,-285,-102,387,92,126,370,478,488,444
370,717,346,-544,12,531,-73,165,502,878,927,839
746,1132,385,-939,180,758,-517,-63,414,1390,1522,1381
1098,1346,248,-1222,424,797,-897,-244,370,1830,2000,1776
1351,1254,-97,-1302,724,578,-1210,-429,429,2186,2322,2044
1351,1146,-204,-1249,778,470,-1342,-663,366,2156,2298,2044
1083,785,-297,-934,690,244,-1141,-668,180,1546,1708,1590
805,463,-341,-634,573,61,-868,-517,4,912,1049,1044
566,263,-302,-414,434,-19,-595,-292,-141,444,541,585
380,117,-263,-248,322,-73,-351,-146,-224,122,219,297
244,82,-161,-163,202,-39,-219,-87,-200,39,131,200
151,39,-112,-95,131,-36,-122,-19,-146,0,82,122
107,0,-107,-53,107,-53,-58,24,-97,-19,24,53
78,-24,-102,-26,90,-63,-14,34,-53,-34,-24,4
14,-58,-73,21,43,-65,53,39,-34,-53,-53,-29
-24,-87,-63,56,19,-75,87,48,-39,-73,-78,-58
-34,-87,-53,61,9,-70,73,43,-43,-112,-112,-92
-43,-78,-34,61,-4,-56,58,39,-43,-141,-141,-117
-43,-102,-58,73,7,-80,82,39,-39,-131,-122,-112
-48,-112,-63,80,7,-87,102,43,-39,-126,-102,-102
-58,-117,-58,87,0,-87,102,43,-43,-117,-117,-112
-63,-117,-53,90,-4,-85,102,39,-43,-112,-117,-112
-68,-126,-58,97,-4,-92,102,39,-48,-126,-122,-112
-68,-126,-58,97,-4,-92,107,43,-48,-141,-122,-112
-68,-122,-53,95,-7,-87,112,48,-43,-141,-126,-107
-73,-122,-48,97,-12,-85,117,53,-39,-146,-126,-107
-87,-136,-48,112,-19,-92,117,53,-39,-141,-126,-107
-97,-141,-43,119,-26,-92,122,58,-39,-141,-131,-112
-97,-146,-48,122,-24,-97,117,58,-39,-141,-131,-112
-97,-151,-53,124,-21,-102,112,58,-39,-146,-136,-112
-78,-151,-73,114,-2,-112,117,58,-48,-146,-136,-122
-58,-156,-97,107,19,-126,122,63,-53,-146,-141,-126
-73,-151,-78,112,2,-114,126,68,-43,-151,-141,-126
-87,-146,-58,117,-14,-102,131,73,-34,-156,-141,-131
-87,-146,-58,117,-14,-102,131,73,-34,-156,-141,-122
-82,-136,-53,109,-14,-95,136,73,-39,-156,-141,-117
-73,-161,-87,117,7,-124,136,73,-39,-161,-136,-122
-82,-180,-97,131,7,-139,141,78,-34,-161,-126,-122
-82,-170,-87,126,2,-129,141,78,-34,-170,-156,-136
-92,-180,-87,136,-2,-134,151,82,-29,-175,-175,-146
-97,-180,-82,139,-7,-131,156,97,-14,-175,-165,-136
-97,-180,-82,139,-7,-131,156,107,-9,-180,-156,-131
-97,-175,-78,136,-9,-126,156,112,0,-170,-156,-131
-92,-175,-82,134,-4,-129,165,117,4,-156,-161,-131
-82,-175,-92,129,4,-134,170,122,9,-170,-170,-136
-78,-175,-97,126,9,-136,170,131,14,-180,-180,-141
-102,-175,-73,139,-14,-124,175,141,19,-180,-180,-146
-122,-161,-39,141,-41,-100,185,151,24,-180,-180,-146
-107,-170,-63,139,-21,-117,180,151,34,-175,-180,-146
-92,-170,-78,131,-7,-124,180,161,48,-175,-180,-156
-92,-156,-63,124,-14,-109,195,170,63,-175,-180,-151
-92,-141,-48,117,-21,-95,200,180,78,-175,-180,-151
-92,-151,-58,122,-17,-104,200,195,92,-170,-175,-146
-82,-156,-73,119,-4,-114,195,204,107,-161,-170,-146
-92,-131,-39,112,-26,-85,204,234,131,-151,-165,-136
-92,-117,-24,104,-34,-70,214,248,156,-136,-156,-131
-92,-107,-14,100,-39,-61,219,263,180,-122,-146,-126
-87,-92,-4,90,-41,-48,219,273,204,-107,-141,-117
-87,-87,0,87,-43,-43,219,283,209,-102,-136,-117
-87,-78,9,82,-48,-34,219,297,224,-92,-136,-117
-73,-63,9,68,-41,-26,219,307,239,-87,-122,-102
-58,-48,9,53,-34,-19,214,322,268,-73,-112,-92
-53,-34,19,43,-36,-7,214,336,287,-63,-102,-73
-43,-14,29,29,-36,7,204,351,307,-48,-92,-63
-39,-14,24,26,-31,4,204,356,326,-43,-78,-53
-24,-4,19,14,-21,7,204,366,346,-29,-73,-48
-19,4,24,7,-21,14,190,375,351,-24,-58,-39
-24,9,34,7,-29,21,190,380,361,-19,-43,-34
14,19,4,-17,4,12,185,380,366,-24,-43,-34
48,34,-14,-41,31,9,180,380,370,-14,-39,-24
29,39,9,-34,9,24,175,385,370,-4,-29,-14
24,48,24,-36,0,36,165,385,380,4,-29,-4
19,48,29,-34,-4,39,156,370,370,4,-24,-4
14,48,34,-31,-9,41,151,361,366,4,-19,0
29,53,24,-41,2,39,136,351,356,-4,-19,4
43,53,9,-48,17,31,126,346,351,-4,-19,14
43,39,-4,-41,24,17,107,326,336,0,-14,14
48,39,-9,-43,29,14,97,307,312,-4,-14,14
48,29,-19,-39,34,4,73,283,278,-9,-19,9
43,29,-14,-36,29,7,63,263,253,-9,-19,9
43,29,-14,-36,29,7,48,219,224,-9,-9,14
43,19,-24,-31,34,-2,34,190,195,-9,-9,14
53,14,-39,-34,46,-12,19,170,170,-14,-9,24
53,14,-39,-34,46,-12,9,146,146,-14,-9,29
48,-4,-53,-21,51,-29,-4,117,122,-14,0,29
48,-4,-53,-21,51,-29,-14,97,97,-14,0,24
34,-14,-48,-9,41,-31,-29,73,73,-14,-4,19
19,-19,-39,0,29,-29,-34,53,53,-4,-9,19
14,-29,-43,7,29,-36,-34,29,39,-4,-4,14
9,-34,-43,12,26,-39,-48,14,19,-14,0,9
14,-19,-34,2,24,-26,-48,4,4,-14,-4,9
19,-14,-34,-2,26,-24,-43,4,-4,-14,-4,9
4,-24,-29,9,17,-26,-43,0,-4,-14,-4,4
-14,-39,-24,26,4,-31,-43,-9,-19,-14,-4,0
-14,-39,-24,26,4,-31,-48,-9,-29,-19,-9,-4
-4,-39,-34,21,14,-36,-53,-9,-29,-19,-19,-4
-14,-39,-24,26,4,-31,-53,-19,-39,-24,-19,-9
-14,-39,-24,26,4,-31,-48,-24,-39,-24,-19,-9
-14,-43,-29,29,7,-36,-48,-24,-39,-29,-19,-9
-14,-48,-34,31,9,-41,-48,-24,-39,-29,-24,-9
-24,-58,-34,41,4,-46,-48,-29,-39,-24,-24,-9
-24,-58,-34,41,4,-46,-48,-34,-39,-14,-14,-4
-24,-68,-43,46,9,-56,-43,-34,-43,-14,-14,-4
-24,-78,-53,51,14,-65,-43,-34,-48,-14,-24,-9
-24,-68,-43,46,9,-56,-43,-34,-48,-14,-24,-9
-19,-68,-48,43,14,-58,-43,-34,-48,-14,-24,-14
-24,-68,-43,46,9,-56,-39,-29,-48,-19,-24,-14
-34,-68,-34,51,0,-51,-39,-29,-43,-24,-19,-14
-39,-78,-39,58,0,-58,-39,-29,-43,-24,-19,-9
-39,-78,-39,58,0,-58,-39,-29,-43,-24,-19,-9
-39,-78,-39,58,0,-58,-39,-29,-43,-24,-19,-9
-39,-78,-39,58,0,-58,-39,-29,-39,-19,-19,-9
-29,-73,-43,51,7,-58,-39,-34,-34,-19,-24,-9
-19,-58,-39,39,9,-48,-43,-39,-34,-19,-34,-14
-29,-63,-34,46,2,-48,-48,-34,-43,-24,-29,-14
-39,-68,-29,53,-4,-48,-48,-34,-53,-34,-29,-14
-39,-53,-14,46,-12,-34,-48,-29,-39,-24,-19,-9
-34,-53,-19,43,-7,-36,-48,-29,-29,-19,-4,-9
-29,-53,-24,41,-2,-39,-48,-39,-24,-19,-4,-9
-29,-53,-24,41,-2,-39,-48,-29,-24,-9,-4,-4
-29,-53,-24,41,-2,-39,-43,-29,-24,-9,-9,-4
-29,-39,-9,34,-9,-24,-43,-24,-24,-4,-14,-4
-39,-39,0,39,-19,-19,-43,-24,-24,-4,-14,-9
-43,-39,4,41,-24,-17,-43,-29,-29,-4,-14,-14
-34,-43,-9,39,-12,-26,-43,-29,-29,-4,-14,-14
-34,-39,-4,36,-14,-21,-43,-29,-24,-4,-14,-14
-34,-39,-4,36,-14,-21,-39,-24,-24,-9,-14,-14
-29,-43,-14,36,-7,-29,-39,-24,-19,-9,-14,-14
-29,-39,-9,34,-9,-24,-34,-24,-14,-9,-14,-9
-29,-29,0,29,-14,-14,-29,-24,-9,-9,-14,-9
-29,-29,0,29,-14,-14,-29,-24,-9,-4,-4,-9
-29,-29,0,29,-14,-14,-29,-24,-9,0,-4,-4
-24,-19,4,21,-14,-7,-29,-24,-9,4,-4,4
-39,-29,9,34,-24,-9,-34,-24,-9,4,0,14
-39,-29,9,34,-24,-9,-34,-24,-4,0,0,14
-34,-24,9,29,-21,-7,-29,-19,4,0,0,19
-34,-24,9,29,-21,-7,-24,-9,4,0,0,14
-39,-24,14,31,-26,-4,-19,-4,4,0,0,14
-39,-24,14,31,-26,-4,-19,-4,0,9,0,14
-39,-4,34,21,-36,14,-19,-14,-4,14,0,14
-39,-24,14,31,-26,-4,-24,-19,-14,14,0,9
-34,-24,9,29,-21,-7,-24,-24,-19,14,0,0
-39,-19,19,29,-29,0,-19,-19,-19,9,0,0
-34,-19,14,26,-24,-2,-19,-19,-19,0,0,0
-43,-29,14,36,-29,-7,-19,-19,-14,0,0,0
-43,-29,14,36,-29,-7,-24,-19,-9,-4,-9,0
-34,-9,24,21,-29,7,-24,-19,-14,-4,-9,0
-29,4,34,12,-31,19,-19,-19,-19,-4,-9,-4
-29,-14,14,21,-21,0,-24,-19,-24,-9,-14,-9
-34,-29,4,31,-19,-12,-29,-24,-29,-9,-14,-9
-39,-34,4,36,-21,-14,-29,-24,-34,-14,-14,-9
-48,-34,14,41,-31,-9,-29,-24,-39,-14,-19,-9
-43,-34,9,39,-26,-12,-29,-19,-39,-19,-24,-9
-34,-34,0,34,-17,-17,-29,-19,-43,-19,-29,-9
-34,-43,-9,39,-12,-26,-24,-19,-48,-24,-24,-14
-34,-43,-9,39,-12,-26,-19,-19,-48,-29,-24,-14
-39,-43,-4,41,-17,-24,-19,-19,-48,-34,-29,-19
-43,-43,0,43,-21,-21,-19,-24,-48,-34,-34,-24
-43,-43,0,43,-21,-21,-19,-24,-53,-34,-34,-24
-43,-43,0,43,-21,-21,-19,-19,-63,-39,-39,-24
-43,-48,-4,46,-19,-26,-19,-19,-63,-39,-39,-24
-39,-48,-9,43,-14,-29,-19,-19,-63,-39,-39,-24
-34,-39,-4,36,-14,-21,-14,-24,-63,-43,-43,-29
-34,-34,0,34,-17,-17,-14,-24,-63,-43,-43,-34
-34,-39,-4,36,-14,-21,-14,-24,-63,-39,-39,-34
-39,-39,0,39,-19,-19,-19,-24,-58,-34,-34,-34
-39,-43,-4,41,-17,-24,-19,-34,-58,-39,-34,-34
-43,-43,0,43,-21,-21,-19,-34,-58,-39,-39,-34
-43,-48,-4,46,-19,-26,-19,-29,-63,-39,-43,-34
-24,-53,-29,39,2,-41,-19,-29,-73,-43,-48,-34
-34,-53,-19,43,-7,-36,-24,-29,-87,-48,-58,-39
-34,-48,-14,41,-9,-31,-24,-29,-82,-48,-58,-39
-34,-39,-4,36,-14,-21,-19,-29,-82,-48,-48,-34
-24,-29,-4,26,-9,-17,-19,-24,-78,-53,-43,-34
-34,-43,-9,39,-12,-26,-19,-24,-78,-53,-43,-34
-43,-58,-14,51,-14,-36,-24,-24,-82,-53,-43,-34
-43,-48,-4,46,-19,-26,-24,-29,-87,-48,-43,-34
-43,-43,0,43,-21,-21,-24,-34,-87,-48,-53,-39
-48,-43,4,46,-26,-19,-19,-34,-78,-53,-53,-39
-53,-43,9,48,-31,-17,-19,-29,-68,-53,-48,-39
-34,-48,-14,41,-9,-31,-19,-29,-68,-48,-48,-39
-19,-53,-34,36,7,-43,-19,-29,-68,-48,-48,-39
-29,-48,-19,39,-4,-34,-19,-29,-73,-43,-48,-39
-43,-48,-4,46,-19,-26,-19,-29,-82,-43,-48,-43
-39,-43,-4,41,-17,-24,-19,-34,-82,-43,-48,-43
-39,-39,0,39,-19,-19,-19,-39,-87,-48,-48,-48
-39,-39,0,39,-19,-19,-19,-39,-87,-48,-48,-48
-39,-39,0,39,-19,-19,-19,-39,-87,-48,-48,-48
-39,-48,-9,43,-14,-29,-19,-34,-82,-53,-53,-48
-39,-58,-19,48,-9,-39,-19,-29,-78,-58,-58,-48
-34,-48,-14,41,-9,-31,-19,-29,-78,-58,-58,-48
-29,-39,-9,34,-9,-24,-19,-29,-78,-58,-58,-48
-29,-39,-9,34,-9,-24,-19,-29,-78,-53,-58,-48
-29,-39,-9,34,-9,-24,-19,-29,-78,-48,-58,-48
-29,-29,0,29,-14,-14,-19,-34,-78,-48,-58,-48
-29,-19,9,24,-19,-4,-19,-39,-78,-48,-58,-48
-29,-4,24,17,-26,9,-19,-39,-63,-39,-43,-34
-29,9,39,9,-34,24,-19,-39,-48,-29,-29,-19
-29,14,43,7,-36,29,-19,-39,-43,-24,-29,-19
-29,19,48,4,-39,34,-19,-39,-39,-19,-29,-19
-24,24,48,0,-36,36,-19,-39,-29,-19,-29,-19
-19,29,48,-4,-34,39,-19,-39,-19,-19,-29,-19
-19,29,48,-4,-34,39,-24,-39,-19,-19,-29,-14
-19,29,48,-4,-34,39,-34,-39,-19,-19,-29,-9
-19,29,48,-4,-34,39,-48,-39,-19,-19,-29,-9
-24,29,53,-2,-39,41,-82,-63,-24,-24,-29,-14
-14,48,63,-17,-39,56,-107,-87,-29,-19,-19,-9
-4,53,58,-24,-31,56,-107,-87,-29,-14,-14,4
0,53,53,-26,-26,53,-107,-92,-48,-9,-14,4
24,53,29,-39,-2,41,-117,-92,-53,-9,-14,4
24,63,39,-43,-7,51,-117,-97,-48,-9,-14,4
19,73,53,-46,-17,63,-112,-97,-39,-9,-14,9
19,78,58,-48,-19,68,-92,-82,-43,0,4,24
34,82,48,-58,-7,65,-73,-58,-43,4,19,34
43,82,39,-63,2,61,-73,-48,-39,9,24,34
58,82,24,-70,17,53,-82,-58,-39,14,24,34
58,78,19,-68,19,48,-78,-58,-39,14,24,34
24,48,24,-36,0,36,-63,-63,-48,0,9,19
-4,14,19,-4,-12,17,-43,-63,-58,-19,-9,0
-29,-4,24,17,-26,9,-14,-48,-58,-24,-19,-9
-39,-19,19,29,-29,0,-9,-48,-63,-34,-24,-19
-43,-19,24,31,-34,2,-4,-43,-78,-39,-34,-29
-39,-34,4,36,-21,-14,-4,-39,-82,-48,-48,-39
-34,-39,-4,36,-14,-21,0,-34,-92,-68,-68,-53
-48,-68,-19,58,-14,-43,14,-29,-97,-73,-73,-63
-48,-82,-34,65,-7,-58,19,-24,-97,-73,-73,-63
-68,-87,-19,78,-24,-53,19,-19,-112,-82,-78,-68
-82,-87,-4,85,-39,-46,19,-19,-112,-82,-73,-68
-73,-82,-9,78,-31,-46,14,-19,-112,-82,-78,-73
-68,-73,-4,70,-31,-39,9,-19,-112,-82,-82,-73
-58,-73,-14,65,-21,-43,14,-24,-112,-87,-82,-73
-53,-68,-14,61,-19,-41,14,-29,-112,-97,-82,-78
-53,-78,-24,65,-14,-51,14,-29,-117,-97,-87,-78
-53,-87,-34,70,-9,-61,14,-29,-117,-97,-92,-78
-58,-87,-29,73,-14,-58,14,-29,-117,-102,-92,-73
-68,-87,-19,78,-24,-53,19,-29,-117,-102,-92,-73
-68,-82,-14,75,-26,-48,19,-29,-122,-97,-92,-73
-68,-82,-14,75,-26,-48,14,-29,-126,-97,-92,-78
-68,-82,-14,75,-26,-48,14,-29,-126,-97,-97,-78
-68,-78,-9,73,-29,-43,14,-29,-126,-97,-102,-82
-58,-78,-19,68,-19,-48,14,-29,-126,-97,-102,-87
-53,-78,-24,65,-14,-51,14,-29,-126,-97,-102,-87
-63,-82,-19,73,-21,-51,24,-29,-136,-107,-107,-87
-73,-92,-19,82,-26,-56,29,-19,-151,-122,-126,-102
-82,-87,-4,85,-39,-46,34,-29,-175,-165,-156,-131
-107,-68,39,87,-73,-14,53,-34,-175,-204,-185,-141
-112,-39,73,75,-92,17,73,-34,-165,-200,-190,-141
-97,19,117,39,-107,68,82,-29,-87,-97,-87,-58
-29,209,239,-90,-134,224,58,-19,24,136,151,151
63,468,405,-265,-170,436,-4,4,219,492,488,434
258,736,478,-497,-109,607,-165,19,409,976,961,839
517,1029,512,-773,2,771,-434,-58,492,1503,1503,1307
790,1288,497,-1039,146,893,-790,-268,458,1937,1981,1742
1039,1346,307,-1193,366,827,-1083,-429,468,2298,2342,2030
1102,1146,43,-1124,529,595,-1195,-507,468,2313,2342,2039
912,932,19,-922,446,475,-1127,-634,346,1942,1995,1781
707,619,-87,-663,397,265,-912,-570,161,1307,1395,1317
492,346,-146,-419,319,100,-624,-351,-14,649,727,761
326,204,-122,-265,224,41,-424,-200,-146,283,341,405
214,117,-97,-165,156,9,-253,-126,-214,63,141,219
122,82,-39,-102,80,21,-161,-82,-190,-4,58,126
73,39,-34,-56,53,2,-102,-29,-136,-29,14,53
29,-4,-34,-12,31,-19,-39,14,-92,-48,-24,0
0,-34,-34,17,17,-34,4,24,-53,-63,-53,-34
-43,-68,-24,56,-9,-46,43,24,-48,-82,-82,-68
-63,-97,-34,80,-14,-65,48,29,-68,-102,-107,-97
-73,-97,-24,85,-24,-61,63,29,-73,-112,-122,-107
-82,-87,-4,85,-39,-46,78,29,-73,-112,-131,-107
-82,-107,-24,95,-29,-65,82,29,-78,-126,-136,-117
-87,-112,-24,100,-31,-68,82,34,-87,-146,-141,-122
-87,-117,-29,102,-29,-73,78,29,-92,-146,-156,-136
-82,-117,-34,100,-24,-75,73,19,-92,-151,-156,-141
-87,-126,-39,107,-24,-82,73,19,-97,-156,-161,-146
-87,-126,-39,107,-24,-82,78,24,-97,-161,-161,-151
-87,-117,-29,102,-29,-73,78,24,-87,-161,-165,-151
-92,-112,-19,102,-36,-65,78,24,-78,-165,-165,-156
-82,-122,-39,102,-21,-80,78,24,-87,-165,-170,-156
-68,-122,-53,95,-7,-87,82,29,-97,-170,-180,-161
-87,-122,-34,104,-26,-78,82,29,-97,-170,-180,-161
-107,-122,-14,114,-46,-68,82,29,-97,-175,-185,-161
-117,-122,-4,119,-56,-63,97,29,-97,-175,-170,-156
-126,-126,0,126,-63,-63,112,34,-92,-175,-161,-146
-117,-126,-9,122,-53,-68,102,34,-92,-180,-175,-156
-107,-126,-19,117,-43,-73,92,34,-92,-185,-190,-170
-107,-136,-29,122,-39,-82,92,34,-92,-190,-195,-175
-102,-136,-34,119,-34,-85,97,34,-97,-195,-200,-185
-92,-146,-53,119,-19,-100,97,34,-97,-200,-204,-190
-102,-151,-48,126,-26,-100,102,39,-92,-200,-204,-190
-112,-141,-29,126,-41,-85,102,39,-92,-204,-214,-190
-131,-151,-19,141,-56,-85,112,43,-87,-204,-214,-185
-117,-151,-34,134,-41,-92,117,53,-78,-204,-214,-185
-97,-151,-53,124,-21,-102,117,58,-78,-209,-214,-190
-112,-146,-34,129,-39,-90,117,63,-68,-209,-214,-190
-122,-146,-24,134,-48,-85,126,68,-63,-204,-219,-190
-107,-141,-34,124,-36,-87,131,73,-53,-204,-219,-190
-97,-136,-39,117,-29,-87,131,82,-43,-200,-219,-190
-97,-136,-39,117,-29,-87,136,92,-34,-200,-219,-195
-92,-122,-29,107,-31,-75,146,102,-24,-200,-219,-195
-97,-131,-34,114,-31,-82,146,107,-14,-204,-219,-195
-102,-131,-29,117,-36,-80,151,122,0,-214,-219,-204
-102,-126,-24,114,-39,-75,175,131,24,-195,-209,-195
-102,-122,-19,112,-41,-70,190,141,48,-175,-200,-190
-107,-117,-9,112,-48,-63,195,156,63,-170,-195,-185
-102,-107,-4,104,-48,-56,195,165,78,-161,-190,-185
-112,-92,19,102,-65,-36,204,190,97,-156,-185,-170
-112,-87,24,100,-68,-31,214,200,117,-146,-175,-161
-107,-82,24,95,-65,-29,214,214,141,-131,-165,-156
-97,-73,24,85,-61,-24,209,224,165,-117,-161,-146
-97,-63,34,80,-65,-14,209,234,180,-112,-151,-141
-97,-48,48,73,-73,0,209,248,204,-102,-146,-136
-82,-34,48,58,-65,7,209,253,219,-92,-131,-122
-68,-19,48,43,-58,14,204,263,248,-73,-122,-112
-63,-4,58,34,-61,26,204,273,268,-63,-107,-92
-53,14,68,19,-61,41,195,283,287,-48,-92,-82
-63,19,82,21,-73,51,195,283,297,-43,-78,-73
-63,34,97,14,-80,65,195,287,307,-29,-73,-68
-39,48,87,-4,-63,68,175,292,312,-24,-68,-58
-24,58,82,-17,-53,70,170,292,322,-19,-63,-53
-19,63,82,-21,-51,73,165,292,331,-19,-53,-48
-19,73,92,-26,-56,82,161,292,341,-4,-39,-34
-4,78,82,-36,-43,80,151,292,341,-4,-34,-34
24,87,63,-56,-19,75,136,287,351,-4,-39,-34
34,87,53,-61,-9,70,126,273,341,4,-34,-24
43,87,43,-65,0,65,122,263,336,14,-29,-9
34,92,58,-63,-12,75,117,253,322,4,-29,-9
24,92,68,-58,-21,80,117,248,312,4,-29,-4
39,78,39,-58,0,58,87,224,292,4,-24,-4
58,78,19,-68,19,48,68,200,263,-4,-24,-4
43,58,14,-51,14,36,48,175,229,-9,-29,-4
24,48,24,-36,0,36,43,156,204,-9,-29,0
24,58,34,-41,-4,46,29,122,185,-9,-14,4
24,58,34,-41,-4,46,14,102,165,-9,-9,4
24,53,29,-39,-2,41,4,87,141,-14,-9,14
14,53,39,-34,-12,46,0,68,117,-14,-9,19
9,34,24,-21,-7,29,-9,43,92,-14,0,19
9,34,24,-21,-7,29,-14,29,68,-14,0,14
19,24,4,-21,7,14,-29,4,43,-24,-4,4
29,19,-9,-24,19,4,-34,-14,24,-24,-9,0
14,4,-9,-9,12,-2,-34,-29,9,-19,-9,-4
0,-4,-4,2,2,-4,-48,-34,-9,-24,-9,-9
-9,-4,4,7,-7,0,-48,-39,-19,-24,-14,-9
-19,-14,4,17,-12,-4,-43,-34,-24,-24,-14,-9
-19,-14,4,17,-12,-4,-43,-39,-24,-24,-14,-14
-24,-19,4,21,-14,-7,-43,-48,-39,-24,-14,-19
-24,-19,4,21,-14,-7,-43,-43,-43,-29,-19,-24
-14,-19,-4,17,-4,-12,-43,-39,-39,-29,-29,-24
-24,-19,4,21,-14,-7,-43,-43,-48,-34,-29,-29
-24,-19,4,21,-14,-7,-39,-43,-48,-34,-29,-29
-24,-24,0,24,-12,-12,-39,-48,-48,-39,-34,-34
-24,-29,-4,26,-9,-17,-39,-53,-48,-39,-43,-39
-34,-34,0,34,-17,-17,-29,-53,-43,-39,-43,-39
-34,-29,4,31,-19,-12,-19,-53,-39,-34,-34,-34
-29,-29,0,29,-14,-14,-24,-53,-39,-34,-34,-29
-24,-29,-4,26,-9,-17,-34,-53,-39,-34,-43,-29
-24,-24,0,24,-12,-12,-34,-53,-43,-34,-43,-29
-19,-29,-9,24,-4,-19,-34,-53,-48,-34,-43,-34
-24,-29,-4,26,-9,-17,-29,-48,-48,-34,-43,-34
-34,-29,4,31,-19,-12,-29,-48,-43,-34,-39,-34
-43,-39,4,41,-24,-17,-29,-48,-43,-34,-34,-29
-48,-39,9,43,-29,-14,-29,-48,-43,-34,-29,-29
-48,-39,9,43,-29,-14,-29,-48,-43,-34,-29,-29
-48,-39,9,43,-29,-14,-29,-48,-39,-29,-29,-29
-48,-34,14,41,-31,-9,-24,-48,-34,-29,-24,-24
-48,-19,29,34,-39,4,-24,-48,-34,-29,-24,-24
-29,-29,0,29,-14,-14,-29,-43,-34,-24,-19,-29
-9,-39,-29,24,9,-34,-29,-43,-34,-24,-19,-34
-24,-24,0,24,-12,-12,-29,-43,-29,-24,-29,-34
-34,-24,9,29,-21,-7,-29,-48,-29,-29,-34,-39
-43,-24,19,34,-31,-2,-29,-58,-24,-29,-34,-39
-58,-24,34,41,-46,4,-29,-48,-24,-19,-34,-34
-43,-24,19,34,-31,-2,-24,-43,-24,-19,-34,-29
-29,-9,19,19,-24,4,-24,-34,-24,-14,-34,-24
-29,-9,19,19,-24,4,-24,-34,-14,-14,-24,-24
-24,-9,14,17,-19,2,-24,-39,-9,-14,-14,-24
-14,-9,4,12,-9,-2,-24,-39,-9,-9,-14,-24
-14,0,14,7,-14,7,-24,-39,-4,-4,-14,-24
-24,0,24,12,-24,12,-19,-34,-4,-4,-14,-24
-29,-4,24,17,-26,9,-19,-34,0,0,-14,-24
-29,-14,14,21,-21,0,-19,-39,-4,-4,-19,-19
-29,-19,9,24,-19,-4,-19,-43,-9,-9,-24,-19
-29,-19,9,24,-19,-4,-19,-43,-9,-9,-14,-19
-29,-19,9,24,-19,-4,-19,-43,-9,-9,-14,-14
-19,-9,9,14,-14,0,-19,-43,-9,-4,-14,-14
-29,-19,9,24,-19,-4,-24,-43,-9,-4,-9,-14
-29,-19,9,24,-19,-4,-24,-43,-9,-4,-9,-14
-24,-14,9,19,-17,-2,-19,-39,-4,0,-9,-9
-19,-4,14,12,-17,4,-19,-34,-4,0,-9,-9
-19,4,24,7,-21,14,-19,-34,-4,0,-9,-4
-19,-4,14,12,-17,4,-19,-34,-4,0,-9,-9
-19,4,24,7,-21,14,-19,-43,-4,-4,-9,-14
-19,-14,4,17,-12,-4,-24,-43,-14,-4,-9,-14
-14,-14,0,14,-7,-7,-24,-43,-19,-4,-9,-19
-19,-9,9,14,-14,0,-19,-39,-24,-4,-9,-19
-14,-9,4,12,-9,-2,-19,-39,-29,-9,-9,-19
-24,-9,14,17,-19,2,-19,-43,-29,-9,-9,-19
-24,0,24,12,-24,12,-24,-48,-29,-14,-19,-19
-19,-9,9,14,-14,0,-24,-48,-34,-14,-19,-14
-19,-24,-4,21,-7,-14,-19,-48,-39,-14,-19,-14
-19,-29,-9,24,-4,-19,-19,-43,-39,-19,-24,-19
-24,-29,-4,26,-9,-17,-19,-43,-39,-19,-24,-19
-14,-34,-19,24,2,-26,-19,-43,-43,-24,-24,-19
-9,-34,-24,21,7,-29,-19,-43,-48,-24,-29,-19
-29,-29,0,29,-14,-14,-19,-43,-43,-29,-29,-19
-43,-24,19,34,-31,-2,-19,-48,-43,-29,-29,-19
-43,-34,9,39,-26,-12,-19,-48,-48,-29,-24,-24
-43,-34,9,39,-26,-12,-19,-48,-48,-29,-24,-24
-39,-34,4,36,-21,-14,-19,-48,-48,-34,-29,-29
-34,-34,0,34,-17,-17,-19,-53,-48,-34,-34,-34
-34,-34,0,34,-17,-17,-19,-53,-53,-34,-34,-34
-34,-34,0,34,-17,-17,-19,-48,-63,-39,-39,-34
-39,-39,0,39,-19,-19,-19,-48,-63,-39,-39,-34
-39,-39,0,39,-19,-19,-19,-48,-63,-39,-39,-34
-34,-34,0,34,-17,-17,-14,-53,-68,-43,-48,-39
-34,-34,0,34,-17,-17,-14,-53,-73,-43,-53,-43
-19,-39,-19,29,0,-29,-14,-53,-78,-43,-53,-48
-9,-39,-29,24,9,-34,-19,-53,-78,-43,-53,-53
-29,-43,-14,36,-7,-29,-19,-58,-73,-48,-48,-53
-53,-43,9,48,-31,-17,-19,-53,-68,-48,-48,-53
-43,-43,0,43,-21,-21,-19,-48,-68,-48,-48,-53
-14,-43,-29,29,7,-36,-19,-48,-73,-53,-48,-53
-24,-43,-19,34,-2,-31,-24,-53,-82,-58,-58,-58
-24,-39,-14,31,-4,-26,-24,-58,-73,-58,-58,-58
-29,-39,-9,34,-9,-24,-19,-58,-78,-53,-53,-53
-24,-39,-14,31,-4,-26,-19,-53,-78,-53,-53,-53
-34,-39,-4,36,-14,-21,-19,-53,-78,-53,-53,-53
-43,-39,4,41,-24,-17,-24,-53,-82,-53,-53,-53
-43,-34,9,39,-26,-12,-24,-53,-87,-53,-53,-48
-43,-34,9,39,-26,-12,-24,-53,-87,-58,-63,-48
-39,-34,4,36,-21,-14,-19,-53,-87,-63,-63,-48
-34,-34,0,34,-17,-17,-19,-48,-87,-63,-58,-48
-29,-43,-14,36,-7,-29,-19,-48,-87,-58,-58,-48
-29,-53,-24,41,-2,-39,-19,-48,-87,-58,-58,-48
-24,-48,-24,36,0,-36,-24,-48,-87,-58,-58,-53
-24,-48,-24,36,0,-36,-29,-48,-92,-63,-58,-63
-24,-43,-19,34,-2,-31,-24,-48,-87,-53,-58,-58
-29,-39,-9,34,-9,-24,-19,-48,-87,-48,-58,-58
-39,-43,-4,41,-17,-24,-19,-53,-87,-58,-63,-63
-48,-48,0,48,-24,-24,-19,-58,-87,-68,-68,-68
-29,-48,-19,39,-4,-34,-19,-58,-87,-68,-68,-68
-9,-48,-39,29,14,-43,-19,-58,-87,-68,-68,-68
-9,-34,-24,21,7,-29,-19,-58,-87,-68,-63,-63
-9,-19,-9,14,0,-14,-19,-58,-87,-68,-58,-58
-9,-9,0,9,-4,-4,-19,-58,-78,-63,-53,-53
-9,0,9,4,-9,4,-19,-58,-68,-58,-48,-48
-9,0,9,4,-9,4,-19,-58,-58,-48,-43,-43
-9,0,9,4,-9,4,-19,-58,-48,-39,-39,-39
-19,4,24,7,-21,14,-19,-53,-39,-34,-34,-34
-29,9,39,9,-34,24,-19,-48,-29,-29,-29,-29
-29,19,48,4,-39,34,-19,-48,-24,-24,-24,-24
-29,29,58,0,-43,43,-19,-48,-19,-19,-19,-19
-24,29,53,-2,-39,41,-29,-48,-19,-9,-19,-19
-19,24,43,-2,-31,34,-48,-58,-19,-9,-19,-19
-14,24,39,-4,-26,31,-73,-73,-24,-14,-24,-24
-4,34,39,-14,-21,36,-97,-97,-29,-24,-24,-24
0,34,34,-17,-17,34,-97,-97,-29,-24,-24,-14
0,34,34,-17,-17,34,-97,-102,-48,-24,-24,-14
24,34,9,-29,7,21,-112,-107,-58,-29,-24,-19
24,43,19,-34,2,31,-117,-117,-68,-29,-24,-24
34,58,24,-46,4,41,-112,-117,-68,-24,-24,-19
48,68,19,-58,14,43,-92,-97,-63,-4,-4,-4
53,73,19,-63,17,46,-73,-68,-48,4,9,9
53,73,19,-63,17,46,-73,-58,-39,9,14,19
68,73,4,-70,31,39,-82,-68,-39,14,19,24
68,73,4,-70,31,39,-82,-73,-39,14,24,24
39,48,9,-43,14,29,-73,-82,-48,0,9,9
14,14,0,-14,7,7,-53,-82,-58,-19,-9,-9
-9,9,19,0,-14,14,-24,-68,-58,-29,-24,-19
-19,4,24,7,-21,14,-19,-68,-63,-43,-34,-29
-29,-14,14,21,-21,0,-14,-63,-82,-48,-48,-43
-34,-43,-9,39,-12,-26,-14,-58,-92,-58,-63,-58
-39,-53,-14,46,-12,-34,-9,-48,-102,-78,-78,-73
-58,-82,-24,70,-17,-53,4,-39,-107,-82,-82,-82
-58,-92,-34,75,-12,-63,9,-34,-97,-82,-78,-78
-58,-97,-39,78,-9,-68,9,-29,-102,-92,-82,-78
-53,-92,-39,73,-7,-65,9,-34,-112,-92,-82,-78
-53,-82,-29,68,-12,-56,9,-39,-122,-92,-87,-82
-58,-73,-14,65,-21,-43,9,-39,-122,-92,-92,-82
-58,-82,-24,70,-17,-53,14,-39,-122,-92,-92,-82
-63,-87,-24,75,-19,-56,24,-39,-122,-97,-92,-87
-63,-87,-24,75,-19,-56,34,-39,-126,-97,-92,-87
-53,-73,-19,63,-17,-46,24,-39,-126,-97,-97,-87
-39,-58,-19,48,-9,-39,14,-39,-126,-102,-102,-82
-39,-73,-34,56,-2,-53,19,-39,-126,-107,-102,-82
-39,-87,-48,63,4,-68,19,-39,-126,-107,-102,-82
-48,-92,-43,70,-2,-68,14,-39,-126,-107,-102,-87
-58,-92,-34,75,-12,-63,14,-39,-126,-107,-102,-87
-58,-87,-29,73,-14,-58,14,-39,-126,-107,-102,-92
-58,-87,-29,73,-14,-58,14,-39,-126,-107,-102,-92
-63,-87,-24,75,-19,-56,14,-39,-126,-107,-102,-87
-63,-92,-29,78,-17,-61,19,-39,-136,-117,-107,-87
-58,-102,-43,80,-7,-73,19,-29,-151,-131,-126,-107
-63,-102,-39,82,-12,-70,24,-39,-180,-175,-161,-146
-87,-87,0,87,-43,-43,43,-43,-185,-219,-195,-161
-107,-63,43,85,-75,-9,78,-43,-185,-239,-219,-175
-112,-9,102,61,-107,46,102,-39,-117,-165,-141,-117
-58,146,204,-43,-131,175,87,-29,-14,14,48,43
24,370,346,-197,-161,358,39,-4,170,341,341,297
219,639,419,-429,-100,529,-92,29,361,800,790,692
478,932,453,-705,12,692,-336,-29,448,1293,1312,1141
766,1234,468,-1000,148,851,-722,-248,409,1781,1849,1625
1039,1342,302,-1190,368,822,-1044,-419,409,2191,2274,1966
1171,1176,4,-1173,583,590,-1195,-522,429,2288,2361,2044
1039,990,-48,-1015,544,470,-1171,-678,322,2005,2093,1849
810,658,-151,-734,480,253,-961,-619,146,1376,1493,1385
570,366,-204,-468,387,80,-673,-400,-14,717,819,829
390,219,-170,-305,280,24,-463,-244,-156,322,395,448
253,122,-131,-187,192,-4,-283,-165,-234,68,156,239
141,82,-58,-112,100,12,-180,-122,-209,-4,63,141
92,39,-53,-65,73,-7,-112,-68,-156,-29,14,63
58,-4,-63,-26,61,-34,-48,-24,-112,-48,-29,4
29,-34,-63,2,46,-48,-4,-9,-73,-63,-63,-34
-14,-68,-53,41,19,-61,43,0,-63,-82,-92,-68
-43,-97,-53,70,4,-75,58,9,-78,-102,-117,-97
-63,-97,-34,80,-14,-65,58,9,-82,-122,-131,-112
-73,-87,-14,80,-29,-51,58,9,-82,-136,-141,-117
-73,-107,-34,90,-19,-70,73,9,-82,-146,-146,-126
-63,-112,-48,87,-7,-80,82,14,-87,-156,-151,-131
-53,-117,-63,85,4,-90,82,14,-92,-156,-165,-146
-73,-126,-53,100,-9,-90,82,9,-92,-161,-165,-156
-97,-146,-48,122,-24,-97,82,9,-97,-165,-170,-161
-78,-136,-58,107,-9,-97,87,14,-97,-170,-170,-161
-58,-122,-63,90,2,-92,87,14,-97,-170,-175,-161
-73,-122,-48,97,-12,-85,92,14,-97,-170,-175,-165
-87,-131,-43,109,-21,-87,97,14,-97,-165,-175,-165
-97,-131,-34,114,-31,-82,102,9,-97,-170,-180,-170
-107,-131,-24,119,-41,-78,102,0,-97,-170,-180,-170
-97,-131,-34,114,-31,-82,102,14,-97,-175,-185,-161
-87,-131,-43,109,-21,-87,107,29,-97,-175,-185,-156
-87,-136,-48,112,-19,-92,107,19,-102,-180,-190,-165
-92,-136,-43,114,-24,-90,102,4,-112,-190,-195,-175
-92,-136,-43,114,-24,-90,102,14,-102,-195,-200,-180
-87,-146,-58,117,-14,-102,102,24,-92,-195,-200,-180
-82,-146,-63,114,-9,-104,107,24,-97,-195,-200,-185
-73,-151,-78,112,2,-114,107,24,-97,-200,-204,-190
-82,-151,-68,117,-7,-109,112,29,-92,-200,-204,-190
-82,-141,-58,112,-12,-100,112,29,-92,-204,-214,-195
-92,-151,-58,122,-17,-104,126,34,-87,-204,-214,-195
-97,-151,-53,124,-21,-102,136,43,-78,-204,-214,-195
-97,-156,-58,126,-19,-107,136,48,-78,-209,-214,-200
-97,-156,-58,126,-19,-107,136,53,-68,-209,-214,-200
-107,-156,-48,131,-29,-102,146,58,-63,-200,-219,-195
-122,-156,-34,139,-43,-95,151,63,-53,-195,-219,-190
-117,-156,-39,136,-39,-97,151,73,-43,-190,-214,-190
-107,-156,-48,131,-29,-102,156,82,-34,-190,-209,-195
-102,-141,-39,122,-31,-90,165,92,-24,-190,-209,-195
-102,-151,-48,126,-26,-100,165,97,-14,-185,-209,-195
-112,-146,-34,129,-39,-90,170,112,0,-185,-209,-204
-122,-136,-14,129,-53,-75,185,122,19,-180,-204,-195
-112,-131,-19,122,-46,-75,190,131,39,-175,-200,-195
-102,-126,-24,114,-39,-75,195,146,53,-170,-195,-195
-92,-117,-24,104,-34,-70,195,156,68,-161,-190,-195
-102,-102,0,102,-51,-51,204,180,87,-156,-185,-185
-102,-92,9,97,-56,-41,214,185,102,-146,-180,-180
-97,-78,19,87,-58,-29,219,195,122,-131,-175,-175
-78,-63,14,70,-46,-24,214,200,141,-117,-175,-170
-68,-53,14,61,-41,-19,209,204,151,-112,-170,-170
-68,-24,43,46,-56,9,209,219,175,-102,-165,-165
-58,4,63,26,-61,34,209,224,190,-92,-151,-151
-58,19,78,19,-68,48,204,234,224,-73,-151,-156
-63,34,97,14,-80,65,204,244,248,-63,-151,-156
-53,53,107,0,-80,80,195,253,268,-48,-146,-161
-48,58,107,-4,-78,82,195,253,283,-43,-136,-161
-34,73,107,-19,-70,90,195,258,297,-43,-131,-156
-19,82,102,-31,-61,92,175,263,302,-53,-126,-141
-19,53,73,-17,-46,63,170,268,312,-48,-117,-107
-19,24,43,-2,-31,34,165,273,322,-48,-102,-78
-19,34,53,-7,-36,43,175,287,346,-9,-39,-24
-14,39,53,-12,-34,46,185,302,361,24,19,24
14,43,29,-29,-7,36,175,297,370,34,9,19
34,39,4,-36,14,21,165,283,361,34,4,4
43,39,-4,-41,24,17,156,268,356,29,0,4
48,43,-4,-46,26,19,136,253,341,14,-9,0
53,53,0,-53,26,26,126,248,331,14,-14,0
53,48,-4,-51,29,21,107,229,312,14,-14,-4
58,48,-9,-53,34,19,97,209,283,4,-14,-4
58,39,-19,-48,39,9,78,185,248,0,-19,-4
53,39,-14,-46,34,12,73,165,224,0,-19,0
53,39,-14,-46,34,12,58,131,200,0,-9,4
39,29,-9,-34,24,9,43,112,175,-4,-9,4
24,24,0,-24,12,12,29,97,151,-14,-9,9
24,24,0,-24,12,12,24,78,131,-14,-9,9
29,4,-24,-17,26,-9,19,53,112,-14,0,9
29,4,-24,-17,26,-9,14,39,87,-9,0,0
24,-4,-29,-9,26,-17,0,14,63,-14,-4,-9
19,0,-19,-9,19,-9,-4,-4,43,-14,-9,-9
14,0,-14,-7,14,-7,-4,-19,29,-14,-9,-14
9,-4,-14,-2,12,-9,-24,-29,9,-24,-9,-19
0,-4,-4,2,2,-4,-29,-43,0,-24,-14,-19
-4,4,9,0,-7,7,-29,-48,-9,-24,-19,-19
0,24,24,-12,-12,24,-34,-58,-14,-24,-24,-24
-4,24,29,-9,-17,26,-34,-68,-29,-24,-29,-43
-4,29,34,-12,-19,31,-34,-68,-39,-29,-39,-63
4,29,24,-17,-9,26,-34,-68,-34,-39,-58,-68
-4,24,29,-9,-17,26,-34,-73,-39,-53,-68,-78
-9,14,24,-2,-17,19,-24,-68,-29,-53,-82,-87
-14,4,19,4,-17,12,-19,-63,-19,-58,-97,-97
-14,-24,-9,19,-2,-17,-14,-58,-19,-43,-58,-53
-24,-58,-34,41,4,-46,-9,-53,-19,-29,-14,-9
-14,-58,-43,36,14,-51,-9,-53,-24,-24,-4,4
-4,-58,-53,31,24,-56,-4,-53,-29,-24,-4,14
9,-43,-53,17,31,-48,-14,-63,-34,-29,-24,-9
24,-19,-43,-2,34,-31,-24,-73,-39,-34,-34,-29
0,-29,-29,14,14,-29,-9,-63,-39,-34,-39,-39
-29,-39,-9,34,-9,-24,9,-48,-39,-34,-43,-43
-34,-39,-4,36,-14,-21,9,-48,-34,-43,-48,-43
-39,-48,-9,43,-14,-29,9,-48,-34,-53,-58,-39
-24,-48,-24,36,0,-36,4,-48,-29,-53,-48,-34
-9,-48,-39,29,14,-43,0,-48,-24,-53,-39,-29
-9,-48,-39,29,14,-43,0,-48,-19,-48,-34,-29
-9,-43,-34,26,12,-39,4,-48,-14,-48,-24,-24
-9,-34,-24,21,7,-29,9,-43,-19,-34,-14,-9
-9,-48,-39,29,14,-43,9,-34,-24,-14,0,4
-14,-58,-43,36,14,-51,9,-34,-24,-29,-14,-9
-19,-43,-24,31,2,-34,9,-34,-19,-43,-34,-24
-14,-43,-29,29,7,-36,4,-43,-19,-48,-34,-29
-14,-43,-29,29,7,-36,0,-58,-14,-48,-34,-29
-19,-48,-29,34,4,-39,0,-48,-9,-19,-14,-19
-19,-53,-34,36,7,-43,4,-43,-4,0,4,-9
-14,-39,-24,26,4,-31,4,-34,-4,-9,-4,-4
-14,-39,-24,26,4,-31,4,-34,0,-24,-14,-4
0,-39,-39,19,19,-39,4,-39,0,-24,-19,-4
24,-39,-63,7,43,-51,4,-39,0,-24,-24,-4
-4,-43,-39,24,17,-41,4,-39,4,-24,-24,-19
-39,-58,-19,48,-9,-39,9,-34,4,-24,-24,-34
-29,-53,-24,41,-2,-39,14,-29,14,-19,-4,-9
-19,-48,-29,34,4,-39,19,-24,19,-19,14,19
-19,-48,-29,34,4,-39,19,-24,19,0,14,19
-19,-48,-29,34,4,-39,19,-24,19,19,24,19
-4,-48,-43,26,19,-46,19,-24,19,0,9,9
19,-39,-58,9,39,-48,19,-24,19,-14,-4,-4
-4,-48,-43,26,19,-46,14,-19,19,-4,9,4
-19,-48,-29,34,4,-39,14,-14,19,4,19,14
-14,-43,-29,29,7,-36,19,-9,14,9,19,19
-14,-43,-29,29,7,-36,19,-4,4,9,19,19
-19,-43,-24,31,2,-34,19,0,19,9,19,24
-19,-43,-24,31,2,-34,19,4,34,9,19,24
-19,-29,-9,24,-4,-19,19,-4,34,0,14,19
-19,-53,-34,36,7,-43,14,-4,24,-4,9,14
-14,-53,-39,34,12,-46,9,-4,19,-4,9,9
-14,-48,-34,31,9,-41,9,0,19,-4,9,9
0,-34,-34,17,17,-34,9,4,19,-4,14,19
-4,-29,-24,17,9,-26,9,4,19,0,19,29
-4,-43,-39,24,17,-41,4,0,14,-4,9,29
0,-53,-53,26,26,-53,4,0,4,-4,9,29
0,-53,-53,26,26,-53,9,-4,0,-4,9,14
0,-58,-58,29,29,-58,9,-4,0,-9,4,0
4,-39,-43,17,24,-41,9,-4,4,-19,-4,0
9,-24,-34,7,21,-29,9,-4,4,-34,-14,0
-9,-43,-34,26,12,-39,9,-4,0,-24,-9,9
-19,-63,-43,41,12,-53,9,-4,0,-19,0,19
-14,-63,-48,39,17,-56,9,-4,-4,-19,0,24
-14,-73,-58,43,21,-65,9,0,-9,-19,4,24
-9,-73,-63,41,26,-68,9,0,-14,-24,0,24
-4,-73,-68,39,31,-70,9,0,-19,-34,-9,19
-4,-73,-68,39,31,-70,9,-4,-19,-34,-14,0
-4,-73,-68,39,31,-70,9,-4,-19,-34,-14,-14
-4,-73,-68,39,31,-70,9,0,-24,-34,-9,0
-9,-78,-68,43,29,-73,9,0,-24,-29,0,14
-9,-73,-63,41,26,-68,4,0,-19,-29,0,14
-4,-63,-58,34,26,-61,4,-4,-19,-34,-4,9
-9,-63,-53,36,21,-58,4,0,-24,-34,-9,4
-14,-68,-53,41,19,-61,4,4,-29,-34,-14,4
-19,-68,-48,43,14,-58,0,4,-34,-34,-14,0
-19,-73,-53,46,17,-63,0,-4,-39,-39,-14,-4
-24,-82,-58,53,17,-70,0,-4,-39,-39,-19,-4
-24,-92,-68,58,21,-80,0,0,-39,-39,-19,-4
0,-82,-82,41,41,-82,0,0,-43,-43,-19,-4
-4,-73,-68,39,31,-70,-4,0,-53,-48,-29,-9
-4,-68,-63,36,29,-65,-4,0,-43,-48,-29,-9
-4,-68,-63,36,29,-65,0,0,-43,-43,-24,-4
0,-73,-73,36,36,-73,0,4,-39,-43,-24,-4
-14,-78,-63,46,24,-70,0,4,-39,-43,-24,-4
-24,-78,-53,51,14,-65,-4,4,-43,-43,-24,-4
-24,-78,-53,51,14,-65,-4,0,-48,-43,-24,-4
-24,-78,-53,51,14,-65,-9,-4,-53,-48,-39,-14
-19,-73,-53,46,17,-63,-9,-4,-58,-53,-43,-19
-14,-73,-58,43,21,-65,-9,0,-58,-58,-39,-19
-9,-73,-63,41,26,-68,-9,0,-58,-58,-39,-19
-9,-73,-63,41,26,-68,-9,0,-63,-58,-39,-24
-9,-73,-63,41,26,-68,-14,0,-68,-58,-39,-29
-9,-63,-53,36,21,-58,-14,0,-63,-53,-39,-24
-9,-58,-48,34,19,-53,-19,0,-58,-48,-39,-19
-9,-63,-53,36,21,-58,-19,-4,-63,-53,-43,-24
-9,-68,-58,39,24,-63,-19,-9,-68,-58,-48,-29
-19,-68,-48,43,14,-58,-14,-9,-68,-58,-48,-29
-29,-68,-39,48,4,-53,-9,-9,-68,-58,-48,-29
-34,-73,-39,53,2,-56,-9,-9,-68,-58,-48,-29
-39,-78,-39,58,0,-58,-9,-9,-68,-58,-48,-29
-39,-78,-39,58,0,-58,-9,-9,-68,-58,-48,-29
-39,-78,-39,58,0,-58,-9,-9,-68,-58,-48,-29
-39,-68,-29,53,-4,-48,-9,-9,-63,-48,-39,-24
-39,-58,-19,48,-9,-39,-9,-9,-58,-39,-29,-19
-39,-53,-14,46,-12,-34,-4,0,-48,-34,-24,-19
-39,-48,-9,43,-14,-29,0,9,-39,-29,-19,-19
-29,-34,-4,31,-12,-19,0,0,-34,-24,-19,-19
-19,-19,0,19,-9,-9,0,-9,-29,-19,-19,-19
-14,-14,0,14,-7,-7,-4,-9,-24,-14,-14,-14
-9,-9,0,9,-4,-4,-9,-9,-19,-9,-9,-9
-9,-9,0,9,-4,-4,-14,-9,-14,-4,-9,-4
-4,-4,0,4,-2,-2,-24,-9,-9,0,-9,0
-4,0,4,2,-4,2,-39,-9,-9,0,-9,0
-4,9,14,-2,-9,12,-73,-34,-14,-4,-9,-4
4,24,19,-14,-7,21,-97,-58,-19,-4,0,-4
14,24,9,-19,2,17,-97,-58,-19,-4,4,4
19,34,14,-26,2,24,-97,-63,-39,-4,4,4
43,43,0,-43,21,21,-107,-63,-43,-9,4,4
43,43,0,-43,21,21,-107,-68,-43,-4,4,9
39,43,4,-41,17,24,-102,-68,-39,0,4,19
34,48,14,-41,9,31,-82,-53,-34,14,19,34
43,53,9,-48,17,31,-63,-29,-24,24,29,43
53,53,0,-53,26,26,-63,-19,-29,24,34,48
68,53,-14,-61,41,19,-73,-29,-39,24,34,53
68,53,-14,-61,41,19,-73,-34,-39,24,34,53
34,29,-4,-31,19,12,-63,-43,-48,9,19,39
4,-4,-9,0,7,-7,-43,-43,-58,-9,0,19
-19,-24,-4,21,-7,-14,-14,-29,-58,-14,-9,9
-19,-43,-24,31,2,-34,-9,-29,-63,-24,-14,0
-14,-48,-34,31,9,-41,-4,-24,-78,-29,-24,-9
-24,-68,-43,46,9,-56,-4,-19,-82,-39,-34,-19
-34,-78,-43,56,4,-61,0,-14,-92,-58,-48,-34
-48,-102,-53,75,2,-78,24,-9,-97,-63,-53,-43
-48,-112,-63,80,7,-87,39,-4,-97,-63,-53,-43
-48,-117,-68,82,9,-92,29,-4,-117,-78,-73,-58
-43,-117,-73,80,14,-95,19,-9,-122,-82,-82,-68
-43,-112,-68,78,12,-90,19,-9,-122,-82,-87,-73
-48,-102,-53,75,2,-78,19,-9,-122,-82,-92,-73
-48,-102,-53,75,2,-78,24,-14,-122,-82,-92,-68
-53,-97,-43,75,-4,-70,24,-19,-122,-87,-92,-68
-53,-97,-43,75,-4,-70,24,-19,-131,-87,-92,-68
-53,-97,-43,75,-4,-70,24,-19,-136,-87,-92,-68
-53,-97,-43,75,-4,-70,24,-19,-136,-92,-92,-68
-58,-97,-39,78,-9,-68,29,-19,-136,-92,-92,-73
-58,-97,-39,78,-9,-68,29,-19,-136,-87,-97,-78
-58,-102,-43,80,-7,-73,24,-19,-136,-87,-102,-87
-58,-102,-43,80,-7,-73,24,-19,-136,-97,-112,-87
-58,-97,-39,78,-9,-68,24,-19,-136,-107,-122,-92
-43,-102,-58,73,7,-80,24,-19,-131,-97,-97,-82
-34,-107,-73,70,19,-90,24,-19,-126,-87,-73,-68
-34,-117,-82,75,24,-100,29,-19,-136,-97,-78,-68
-34,-131,-97,82,31,-114,29,-9,-151,-112,-97,-82
-48,-131,-82,90,17,-107,34,-14,-180,-156,-136,-117
-78,-117,-39,97,-19,-78,53,-14,-185,-195,-175,-131
-112,-122,-9,117,-51,-65,87,-14,-195,-253,-239,-175
-126,-97,29,112,-78,-34,112,-9,-136,-214,-195,-136
-78,48,126,14,-102,87,126,0,-48,-43,-24,9
-4,263,268,-129,-136,265,102,24,122,248,244,229
165,531,366,-348,-100,448,4,87,351,692,678,600
400,824,424,-612,-12,624,-200,58,473,1180,1180,1034
688,1205,517,-946,85,861,-619,-195,409,1732,1800,1590
951,1385,434,-1168,258,910,-976,-400,390,2210,2303,2000
1117,1254,136,-1185,490,695,-1176,-512,453,2435,2488,2156
1029,1107,78,-1068,475,592,-1195,-673,395,2274,2327,2044
810,741,-68,-775,439,336,-980,-610,209,1605,1698,1561
580,414,-165,-497,373,124,-692,-390,34,912,1000,985
390,239,-151,-314,270,43,-473,-224,-136,434,497,541
253,117,-136,-185,195,-9,-283,-136,-244,102,180,268
151,82,-68,-117,109,7,-180,-92,-219,24,92,170
92,39,-53,-65,73,-7,-112,-39,-165,-9,43,92
58,-4,-63,-26,61,-34,-48,4,-117,-29,0,34
39,-34,-73,-2,56,-53,-4,14,-73,-43,-34,-4
-19,-73,-53,46,17,-63,43,19,-63,-63,-63,-39
-53,-107,-53,80,0,-80,58,29,-78,-82,-87,-68
-53,-107,-53,80,0,-80,58,19,-82,-107,-107,-87
-53,-97,-43,75,-4,-70,58,9,-82,-122,-122,-97
-53,-117,-63,85,4,-90,73,9,-82,-126,-126,-107
-58,-122,-63,90,2,-92,82,14,-87,-136,-131,-112
-68,-126,-58,97,-4,-92,87,19,-87,-136,-146,-126
-73,-126,-53,100,-9,-90,92,19,-82,-141,-146,-131
-78,-136,-58,107,-9,-97,92,19,-87,-146,-156,-136
-78,-136,-58,107,-9,-97,97,24,-87,-151,-161,-141
-78,-136,-58,107,-9,-97,97,24,-87,-151,-165,-141
-82,-141,-58,112,-12,-100,97,24,-87,-156,-165,-146
-87,-151,-63,119,-12,-107,97,19,-92,-161,-165,-146
-87,-151,-63,119,-12,-107,102,19,-97,-170,-170,-151
-78,-151,-73,114,-2,-112,92,14,-97,-170,-170,-156
-68,-151,-82,109,7,-117,82,9,-97,-175,-175,-161
-78,-151,-73,114,-2,-112,87,9,-97,-175,-175,-165
-87,-156,-68,122,-9,-112,92,14,-92,-175,-180,-165
-102,-156,-53,129,-24,-104,97,19,-87,-175,-180,-161
-117,-156,-39,136,-39,-97,102,24,-82,-175,-180,-161
-126,-165,-39,146,-43,-102,102,24,-82,-175,-180,-161
-131,-165,-34,148,-48,-100,107,24,-87,-175,-180,-165
-102,-170,-68,136,-17,-119,107,24,-92,-185,-190,-170
-92,-170,-78,131,-7,-124,112,29,-92,-190,-195,-170
-92,-161,-68,126,-12,-114,107,24,-92,-195,-209,-185
-102,-170,-68,136,-17,-119,112,24,-87,-195,-214,-195
-112,-165,-53,139,-29,-109,117,34,-78,-195,-214,-195
-117,-161,-43,139,-36,-102,117,39,-78,-200,-214,-200
-117,-156,-39,136,-39,-97,117,43,-68,-200,-214,-195
-112,-156,-43,134,-34,-100,126,48,-63,-195,-219,-190
-122,-161,-39,141,-41,-100,136,58,-53,-190,-214,-190
-136,-165,-29,151,-53,-97,141,73,-43,-180,-209,-190
-126,-165,-39,146,-43,-102,146,82,-29,-180,-209,-195
-112,-151,-39,131,-36,-95,156,92,-14,-180,-209,-195
-112,-161,-48,136,-31,-104,151,97,-4,-175,-209,-195
-112,-161,-48,136,-31,-104,151,112,9,-175,-209,-204
-107,-156,-48,131,-29,-102,165,122,29,-170,-204,-185
-102,-151,-48,126,-26,-100,170,131,48,-165,-200,-170
-102,-146,-43,124,-29,-95,175,141,58,-165,-195,-165
-92,-136,-43,114,-24,-90,175,146,68,-161,-190,-165
-102,-122,-19,112,-41,-70,185,170,87,-156,-185,-161
-102,-117,-14,109,-43,-65,195,180,107,-146,-175,-161
-107,-112,-4,109,-51,-58,200,195,136,-131,-165,-156
-107,-102,4,104,-56,-48,200,204,165,-117,-161,-146
-97,-92,4,95,-51,-43,200,214,180,-112,-151,-146
-87,-78,9,82,-48,-34,200,229,204,-102,-146,-146
-78,-63,14,70,-46,-24,200,234,219,-92,-131,-131
-68,-48,19,58,-43,-14,195,244,248,-73,-122,-122
-63,-34,29,48,-46,-2,195,253,268,-58,-112,-97
-53,-14,39,34,-46,12,185,263,287,-39,-102,-82
-39,-9,29,24,-34,9,185,263,302,-34,-87,-82
-14,4,19,4,-17,12,185,268,317,-19,-82,-87
-9,14,24,-2,-17,19,165,273,322,-19,-78,-73
-14,19,34,-2,-24,26,161,273,331,-19,-73,-63
-9,29,39,-9,-24,34,156,273,351,-19,-63,-53
-9,43,53,-17,-31,48,151,273,370,-4,-48,-34
-4,53,58,-24,-31,56,141,273,361,9,-39,-24
14,68,53,-41,-19,61,126,268,361,24,-39,-14
9,68,58,-39,-24,63,117,253,351,24,-34,-14
4,68,63,-36,-29,65,112,244,346,24,-29,-9
19,73,53,-46,-17,63,102,234,336,14,-29,-9
34,73,39,-53,-2,56,97,229,331,14,-29,-4
39,58,19,-48,9,39,78,214,312,14,-24,-4
48,58,9,-53,19,34,68,200,283,4,-24,-4
48,48,0,-48,24,24,48,175,248,0,-29,-4
43,48,4,-46,19,26,43,156,224,0,-29,0
29,43,14,-36,7,29,34,126,200,0,-19,4
14,29,14,-21,0,21,24,112,175,0,-19,4
14,24,9,-19,2,17,9,97,151,-4,-19,9
4,24,19,-14,-7,21,0,78,126,-4,-19,9
4,14,9,-9,-2,12,-9,53,102,-4,-9,9
9,24,14,-17,-2,19,-14,39,78,-4,-9,4
14,14,0,-14,7,7,-29,14,48,-14,-14,0
19,9,-9,-14,14,0,-34,-4,24,-14,-19,0
14,0,-14,-7,14,-7,-34,-19,9,-14,-19,-4
9,-4,-14,-2,12,-9,-48,-24,-9,-24,-19,-9
-4,-4,0,4,-2,-2,-48,-34,-19,-24,-24,-9
-19,-14,4,17,-12,-4,-43,-34,-24,-24,-24,-9
-24,-19,4,21,-14,-7,-39,-34,-24,-24,-19,-9
-34,-29,4,31,-19,-12,-34,-39,-39,-24,-14,-9
-34,-34,0,34,-17,-17,-34,-39,-48,-29,-19,-14
-24,-39,-14,31,-4,-26,-34,-39,-48,-29,-29,-14
-29,-43,-14,36,-7,-29,-39,-43,-63,-34,-29,-24
-24,-48,-24,36,0,-36,-39,-43,-68,-34,-29,-29
-24,-53,-29,39,2,-41,-39,-43,-68,-39,-29,-29
-24,-58,-34,41,4,-46,-39,-43,-68,-39,-34,-29
-34,-58,-24,46,-4,-41,-39,-43,-68,-39,-39,-29
-34,-48,-14,41,-9,-31,-39,-43,-68,-34,-34,-24
-34,-48,-14,41,-9,-31,-34,-43,-68,-34,-34,-24
-34,-48,-14,41,-9,-31,-34,-43,-68,-34,-43,-29
-34,-43,-9,39,-12,-26,-34,-43,-68,-34,-43,-29
-29,-48,-19,39,-4,-34,-34,-43,-68,-34,-43,-34
-24,-48,-24,36,0,-36,-29,-39,-68,-34,-43,-34
-24,-48,-24,36,0,-36,-29,-39,-63,-34,-39,-34
-29,-58,-29,43,0,-43,-29,-39,-63,-34,-39,-34
-29,-58,-29,43,0,-43,-29,-39,-63,-34,-39,-39
-34,-58,-24,46,-4,-41,-29,-39,-63,-34,-39,-39
-39,-58,-19,48,-9,-39,-29,-39,-58,-29,-39,-39
-48,-53,-4,51,-21,-29,-24,-39,-53,-29,-34,-34
-58,-39,19,48,-39,-9,-24,-39,-53,-29,-34,-34
-48,-43,4,46,-26,-19,-24,-34,-53,-24,-29,-34
-39,-48,-9,43,-14,-29,-19,-34,-53,-24,-29,-34
-34,-34,0,34,-17,-17,-19,-34,-48,-24,-34,-34
-24,-34,-9,29,-7,-21,-19,-39,-48,-29,-34,-39
-24,-24,0,24,-12,-12,-24,-53,-39,-29,-34,-39
-29,-14,14,21,-21,0,-29,-48,-34,-19,-34,-34
-29,-29,0,29,-14,-14,-24,-43,-34,-19,-29,-29
-29,-29,0,29,-14,-14,-24,-34,-34,-14,-24,-24
-34,-29,4,31,-19,-12,-24,-34,-29,-14,-24,-24
-34,-29,4,31,-19,-12,-24,-39,-29,-14,-24,-24
-24,-29,-4,26,-9,-17,-24,-39,-29,-14,-24,-24
-24,-19,4,21,-14,-7,-24,-39,-24,-14,-24,-24
-29,-14,14,21,-21,0,-24,-34,-24,-14,-24,-29
-29,-14,14,21,-21,0,-29,-34,-19,-9,-24,-34
-29,-14,14,21,-21,0,-29,-34,-19,-9,-29,-29
-29,-9,19,19,-24,4,-29,-34,-19,-9,-34,-29
-24,-9,14,17,-19,2,-29,-39,-19,-9,-24,-29
-19,-9,9,14,-14,0,-29,-43,-19,-9,-24,-24
-9,0,9,4,-9,4,-29,-43,-19,0,-24,-24
-19,-9,9,14,-14,0,-34,-43,-19,4,-19,-24
-19,-9,9,14,-14,0,-34,-43,-19,4,-19,-24
-14,-4,9,9,-12,2,-29,-39,-14,9,-19,-19
-14,-4,9,9,-12,2,-29,-34,-14,0,-19,-19
-19,-4,14,12,-17,4,-29,-34,-14,-9,-19,-14
-34,-14,19,24,-26,2,-24,-34,-9,0,-9,-9
-48,-4,43,26,-46,19,-19,-43,-4,4,0,-4
-39,-24,14,31,-26,-4,-24,-43,-14,4,0,0
-24,-24,0,24,-12,-12,-24,-43,-19,4,0,0
-24,-19,4,21,-14,-7,-19,-34,-19,4,0,0
-14,-19,-4,17,-4,-12,-19,-29,-19,0,0,0
-34,-29,4,31,-19,-12,-19,-34,-19,0,0,0
-43,-29,14,36,-29,-7,-24,-39,-19,-4,-9,0
-29,-19,9,24,-19,-4,-24,-39,-24,-4,-14,0
-19,-14,4,17,-12,-4,-19,-39,-29,-4,-19,-4
0,-14,-14,7,7,-14,-19,-34,-29,-9,-24,-9
14,-9,-24,-2,19,-17,-19,-34,-29,-9,-24,-9
-9,-14,-4,12,-2,-9,-14,-34,-29,-14,-19,-9
-39,-14,24,26,-31,4,-9,-34,-29,-14,-19,-9
-39,-19,19,29,-29,0,-9,-34,-29,-19,-19,-9
-34,-24,9,29,-21,-7,-9,-39,-34,-19,-19,-9
-29,-34,-4,31,-12,-19,-9,-39,-43,-19,-14,-14
-24,-34,-9,29,-7,-21,-9,-39,-48,-19,-14,-14
-24,-34,-9,29,-7,-21,-14,-39,-48,-24,-24,-24
-24,-34,-9,29,-7,-21,-19,-43,-48,-24,-34,-34
-29,-34,-4,31,-12,-19,-19,-43,-48,-24,-34,-34
-34,-34,0,34,-17,-17,-19,-39,-53,-29,-39,-34
-39,-39,0,39,-19,-19,-19,-39,-53,-34,-39,-34
-39,-39,0,39,-19,-19,-19,-39,-53,-39,-39,-34
-34,-34,0,34,-17,-17,-14,-43,-58,-43,-43,-39
-34,-34,0,34,-17,-17,-14,-43,-63,-43,-43,-43
-34,-39,-4,36,-14,-21,-14,-39,-63,-43,-43,-43
-39,-39,0,39,-19,-19,-19,-34,-58,-43,-43,-43
-39,-43,-4,41,-17,-24,-19,-43,-58,-48,-43,-43
-43,-43,0,43,-21,-21,-19,-43,-58,-48,-48,-43
-43,-43,0,43,-21,-21,-19,-39,-63,-48,-48,-43
-24,-43,-19,34,-2,-31,-19,-39,-73,-53,-48,-43
-34,-43,-9,39,-12,-26,-24,-43,-82,-58,-58,-48
-34,-39,-4,36,-14,-21,-24,-48,-73,-58,-58,-48
-34,-39,-4,36,-14,-21,-14,-48,-68,-53,-48,-39
-24,-39,-14,31,-4,-26,-9,-43,-58,-53,-43,-34
-34,-39,-4,36,-14,-21,-9,-43,-58,-53,-39,-29
-43,-39,4,41,-24,-17,-14,-43,-63,-53,-34,-24
-34,-39,-4,36,-14,-21,-14,-43,-68,-48,-34,-24
-24,-43,-19,34,-2,-31,-14,-43,-68,-48,-43,-29
-34,-43,-9,39,-12,-26,-9,-43,-68,-53,-43,-29
-43,-43,0,43,-21,-21,-9,-39,-68,-53,-39,-29
-43,-58,-14,51,-14,-36,-9,-39,-73,-58,-48,-34
-48,-73,-24,61,-12,-48,-9,-39,-78,-68,-58,-39
-43,-63,-19,53,-12,-41,-9,-39,-73,-63,-58,-43
-43,-58,-14,51,-14,-36,-9,-39,-73,-63,-58,-53
-39,-58,-19,48,-9,-39,-9,-43,-73,-58,-58,-48
-39,-58,-19,48,-9,-39,-9,-48,-78,-58,-58,-48
-39,-43,-4,41,-17,-24,-9,-48,-78,-58,-58,-48
-39,-29,9,34,-24,-9,-9,-48,-78,-58,-58,-48
-34,-29,4,31,-19,-12,-9,-48,-73,-53,-53,-43
-29,-29,0,29,-14,-14,-9,-48,-68,-48,-48,-39
-14,-9,4,12,-9,-2,-9,-48,-63,-48,-48,-39
0,9,9,-4,-4,9,-9,-48,-58,-48,-48,-39
-24,9,34,7,-29,21,-9,-48,-39,-34,-34,-24
-48,9,58,19,-53,34,-9,-48,-19,-19,-19,-9
-48,19,68,14,-58,43,-9,-48,-19,-19,-19,-9
-48,29,78,9,-63,53,-9,-48,-19,-19,-19,-9
-39,29,68,4,-53,48,-14,-48,-14,-9,-19,-9
-29,29,58,0,-43,43,-24,-48,-9,-9,-19,-9
-19,29,48,-4,-34,39,-39,-53,-9,-9,-19,-9
-14,29,43,-7,-29,36,-73,-82,-14,-24,-19,-14
-4,43,48,-19,-26,46,-97,-107,-24,-24,-14,-14
4,43,39,-24,-17,41,-97,-107,-29,-24,-14,-4
0,43,43,-21,-21,43,-97,-112,-48,-19,-14,-4
14,43,29,-29,-7,36,-107,-112,-53,-19,-14,-4
14,53,39,-34,-12,46,-107,-117,-53,-19,-14,0
9,63,53,-36,-21,58,-102,-117,-48,-19,-14,9
24,68,43,-46,-9,56,-82,-97,-43,-4,4,24
53,73,19,-63,17,46,-63,-68,-34,4,19,34
53,78,24,-65,14,51,-63,-58,-29,9,24,39
58,82,24,-70,17,53,-73,-68,-29,14,24,43
58,82,24,-70,17,53,-73,-73,-29,14,24,43
24,58,34,-41,-4,46,-63,-82,-39,0,9,29
-4,24,29,-9,-17,26,-43,-82,-48,-19,-9,4
-29,4,34,12,-31,19,-14,-68,-48,-24,-19,-9
-39,-24,14,31,-26,-4,-9,-68,-53,-34,-29,-19
-43,-39,4,41,-24,-17,-4,-63,-68,-39,-43,-29
-43,-39,4,41,-24,-17,-4,-58,-78,-53,-53,-39
-43,-29,14,36,-29,-7,0,-53,-92,-78,-68,-53
-58,-63,-4,61,-26,-34,14,-48,-97,-82,-73,-63
-58,-82,-24,70,-17,-53,19,-43,-97,-82,-73,-63
-58,-87,-29,73,-14,-58,19,-39,-117,-92,-87,-73
-53,-87,-34,70,-9,-61,19,-39,-122,-92,-92,-78
-53,-78,-24,65,-14,-51,19,-39,-122,-92,-97,-82
-58,-63,-4,61,-26,-34,19,-39,-122,-92,-102,-82
-58,-73,-14,65,-21,-43,24,-39,-112,-92,-102,-82
-63,-78,-14,70,-24,-46,24,-39,-102,-97,-102,-87
-48,-78,-29,63,-9,-53,24,-34,-107,-97,-92,-78
-34,-78,-43,56,4,-61,24,-29,-107,-97,-82,-68
-29,-78,-48,53,9,-63,24,-24,-107,-97,-78,-58
-29,-78,-48,53,9,-63,29,-19,-107,-92,-73,-53
-48,-82,-34,65,-7,-58,29,-19,-107,-87,-73,-53
-68,-92,-24,80,-21,-58,24,-19,-107,-87,-73,-58
-68,-92,-24,80,-21,-58,24,-24,-107,-87,-78,-63
-68,-87,-19,78,-24,-53,24,-29,-107,-87,-82,-73
-63,-82,-19,73,-21,-51,24,-29,-107,-87,-82,-73
-63,-78,-14,70,-24,-46,24,-29,-107,-87,-82,-68
-63,-82,-19,73,-21,-51,29,-29,-117,-97,-87,-68
-63,-92,-29,78,-17,-61,29,-19,-131,-112,-107,-82
-73,-92,-19,82,-26,-56,34,-29,-161,-165,-141,-117
-97,-78,19,87,-58,-29,53,-34,-165,-214,-175,-131
-117,-39,78,78,-97,19,82,-34,-161,-214,-190,-146
-117,29,146,43,-131,87,102,-29,-87,-117,-97,-78
-58,185,244,-63,-151,214,82,-19,14,92,117,117
24,409,385,-217,-180,397,24,4,200,424,429,385
229,688,458,-458,-114,573,-117,19,380,888,897,780
497,990,492,-744,2,741,-366,-58,453,1395,1434,1239
785,1263,478,-1024,153,871,-751,-278,409,1864,1947,1712
1049,1337,287,-1193,380,812,-1073,-448,409,2259,2342,2039
1141,1156,14,-1149,563,585,-1195,-536,409,2313,2371,2069
980,961,-19,-971,500,470,-1137,-673,287,1981,2054,1830
751,629,-122,-690,436,253,-912,-590,126,1346,1454,1366
512,336,-175,-424,344,80,-614,-351,-24,688,785,810
341,200,-141,-270,241,29,-424,-204,-165,297,370,429
224,117,-107,-170,165,4,-263,-136,-244,53,141,219
122,68,-53,-95,87,7,-161,-92,-209,-14,58,131
63,9,-53,-36,58,-21,-92,-39,-146,-39,14,63
29,-14,-43,-7,36,-29,-34,4,-102,-53,-19,4
9,-24,-34,7,21,-29,4,14,-63,-63,-43,-34
-29,-58,-29,43,0,-43,53,19,-53,-82,-73,-68
-43,-87,-43,65,0,-65,68,29,-68,-102,-97,-97
-53,-87,-34,70,-9,-61,63,24,-73,-122,-117,-112
-63,-78,-14,70,-24,-46,58,19,-73,-131,-131,-117
-58,-92,-34,75,-12,-63,73,19,-68,-136,-136,-126
-58,-92,-34,75,-12,-63,82,24,-68,-146,-141,-131
-63,-97,-34,80,-14,-65,82,24,-73,-146,-156,-146
-63,-97,-34,80,-14,-65,82,19,-73,-151,-156,-151
-68,-112,-43,90,-12,-78,82,19,-78,-161,-161,-151
-68,-117,-48,92,-9,-82,87,24,-78,-170,-161,-151
-58,-112,-53,85,-2,-82,87,24,-78,-170,-165,-151
-53,-112,-58,82,2,-85,87,24,-78,-175,-165,-156
-73,-126,-53,100,-9,-90,92,29,-78,-165,-161,-146
-87,-131,-43,109,-21,-87,102,39,-78,-161,-161,-141
-87,-131,-43,109,-21,-87,102,39,-78,-161,-161,-141
-87,-131,-43,109,-21,-87,102,39,-78,-165,-165,-141
-87,-131,-43,109,-21,-87,107,39,-78,-165,-165,-146
-87,-136,-48,112,-19,-92,112,43,-73,-165,-170,-146
-92,-136,-43,114,-24,-90,112,43,-68,-170,-170,-146
-97,-136,-39,117,-29,-87,112,43,-63,-175,-170,-151
-82,-141,-58,112,-12,-100,112,43,-58,-175,-170,-151
-63,-136,-73,100,4,-104,117,43,-58,-175,-170,-156
-73,-141,-68,107,-2,-104,117,43,-58,-180,-175,-161
-102,-141,-39,122,-31,-90,122,48,-53,-180,-175,-161
-92,-122,-29,107,-31,-75,122,48,-58,-185,-190,-165
-92,-122,-29,107,-31,-75,131,53,-58,-185,-195,-165
-97,-131,-34,114,-31,-82,136,63,-48,-185,-195,-165
-97,-141,-43,119,-26,-92,136,68,-48,-190,-195,-170
-107,-146,-39,126,-34,-92,136,73,-39,-190,-195,-170
-112,-156,-43,134,-34,-100,146,78,-34,-185,-200,-170
-112,-146,-34,129,-39,-90,151,82,-24,-185,-200,-170
-117,-136,-19,126,-48,-78,151,92,-14,-180,-200,-170
-107,-136,-29,122,-39,-82,156,102,-4,-180,-200,-180
-92,-122,-29,107,-31,-75,165,112,4,-180,-200,-185
-92,-126,-34,109,-29,-80,165,117,14,-175,-200,-185
-92,-122,-29,107,-31,-75,170,131,29,-175,-200,-195
-92,-117,-24,104,-34,-70,185,141,48,-170,-195,-180
-92,-112,-19,102,-36,-65,190,151,68,-165,-190,-170
-92,-112,-19,102,-36,-65,195,165,82,-156,-185,-165
-82,-107,-24,95,-29,-65,195,175,97,-141,-180,-165
-102,-92,9,97,-56,-41,204,200,122,-136,-170,-156
-112,-87,24,100,-68,-31,214,209,146,-126,-156,-151
-97,-78,19,87,-58,-29,219,224,170,-112,-146,-146
-78,-63,14,70,-46,-24,219,234,195,-97,-141,-136
-78,-53,24,65,-51,-14,219,244,209,-92,-131,-131
-78,-39,39,58,-58,0,219,258,234,-82,-126,-126
-68,-24,43,46,-56,9,214,263,244,-73,-117,-112
-58,-9,48,34,-53,19,204,273,268,-53,-112,-102
-53,4,58,24,-56,31,204,278,287,-43,-102,-87
-43,24,68,9,-56,46,195,283,307,-29,-92,-82
-39,29,68,4,-53,48,195,283,322,-24,-73,-73
-24,43,68,-9,-46,56,195,287,336,-9,-63,-68
-9,53,63,-21,-36,58,170,292,341,-4,-58,-53
-4,58,63,-26,-34,61,161,292,351,0,-53,-43
4,63,58,-34,-26,61,151,287,361,0,-43,-43
9,73,63,-41,-26,68,141,283,370,14,-29,-34
14,82,68,-48,-26,75,136,283,370,24,-19,-24
34,97,63,-65,-14,80,126,278,380,34,-19,-14
43,97,53,-70,-4,75,122,263,370,34,-14,-14
53,97,43,-75,4,70,122,253,366,34,-9,-9
53,97,43,-75,4,70,107,244,351,24,-9,-9
53,92,39,-73,7,65,97,239,341,24,-9,-4
39,78,39,-58,0,58,78,219,322,24,-4,-4
29,78,48,-53,-9,63,68,200,292,14,-4,-4
39,68,29,-53,4,48,48,175,253,4,-14,-4
43,68,24,-56,9,46,43,156,224,0,-19,0
43,68,24,-56,9,46,29,122,200,0,-9,4
43,58,14,-51,14,36,14,102,175,0,-9,4
39,53,14,-46,12,34,4,87,146,-4,-9,9
24,53,29,-39,-2,41,0,68,117,-4,-9,9
14,43,29,-29,-7,36,-9,43,92,-9,-4,9
9,53,43,-31,-17,48,-14,29,68,-14,-9,4
4,19,14,-12,-4,17,-29,4,43,-24,-14,0
0,-9,-9,4,4,-9,-34,-14,24,-24,-19,0
0,0,0,0,0,0,-29,-29,14,-19,-19,-4
0,14,14,-7,-7,14,-39,-34,0,-24,-19,-9
-9,4,14,2,-12,9,-39,-43,-9,-24,-24,-9
-19,-14,4,17,-12,-4,-34,-43,-14,-24,-24,-9
-19,-14,4,17,-12,-4,-34,-43,-14,-24,-24,-14
-24,-19,4,21,-14,-7,-34,-48,-29,-24,-24,-19
-24,-19,4,21,-14,-7,-34,-48,-43,-29,-29,-29
-14,-19,-4,17,-4,-12,-34,-48,-48,-29,-39,-34
-29,-24,4,26,-17,-9,-34,-53,-58,-34,-39,-39
-34,-29,4,31,-19,-12,-29,-53,-58,-34,-39,-39
-34,-29,4,31,-19,-12,-34,-53,-58,-39,-39,-34
-34,-29,4,31,-19,-12,-39,-53,-58,-39,-43,-29
-29,-39,-9,34,-9,-24,-39,-53,-58,-39,-43,-29
-14,-39,-24,26,4,-31,-39,-53,-58,-34,-34,-24
-29,-53,-24,41,-2,-39,-29,-53,-58,-34,-29,-24
-43,-68,-24,56,-9,-46,-24,-53,-58,-34,-34,-29
-34,-48,-14,41,-9,-31,-24,-48,-53,-34,-34,-24
-19,-39,-19,29,0,-29,-24,-43,-48,-34,-34,-24
-19,-34,-14,26,-2,-24,-19,-39,-48,-34,-34,-24
-24,-29,-4,26,-9,-17,-19,-39,-43,-34,-29,-24
-34,-39,-4,36,-14,-21,-14,-39,-43,-34,-29,-24
-39,-39,0,39,-19,-19,-9,-39,-43,-34,-29,-29
-39,-39,0,39,-19,-19,-9,-39,-48,-34,-29,-29
-39,-39,0,39,-19,-19,-9,-39,-48,-29,-29,-29
-39,-39,0,39,-19,-19,-4,-39,-43,-29,-29,-24
-39,-29,9,34,-24,-9,-4,-39,-43,-29,-34,-24
-39,-39,0,39,-19,-19,-9,-34,-43,-24,-29,-24
-39,-48,-9,43,-14,-29,-9,-34,-43,-24,-29,-24
-39,-34,4,36,-21,-14,-14,-34,-39,-24,-34,-24
-34,-34,0,34,-17,-17,-19,-39,-39,-29,-34,-29
-29,-34,-4,31,-12,-19,-19,-48,-34,-29,-29,-29
-29,-34,-4,31,-12,-19,-19,-39,-34,-19,-24,-24
-29,-34,-4,31,-12,-19,-14,-43,-34,-19,-24,-19
-29,-19,9,24,-19,-4,-14,-43,-34,-14,-24,-14
-34,-19,14,26,-24,-2,-14,-34,-24,-14,-24,-14
-34,-19,14,26,-24,-2,-14,-29,-19,-14,-24,-14
-24,-19,4,21,-14,-7,-14,-29,-19,-14,-24,-9
-24,-9,14,17,-19,2,-14,-29,-14,-14,-24,-4
-39,-14,24,26,-31,4,-9,-24,-14,-14,-14,-4
-48,-24,24,36,-36,0,-9,-24,-9,-9,-4,-4
-39,-29,9,34,-24,-9,-14,-29,-14,-14,-14,-9
-29,-29,0,29,-14,-14,-19,-34,-19,-19,-24,-19
-29,-29,0,29,-14,-14,-19,-34,-19,-19,-14,-19
-29,-29,0,29,-14,-14,-19,-34,-19,-19,-14,-14
-19,-19,0,19,-9,-9,-19,-34,-19,-14,-14,-14
-29,-29,0,29,-14,-14,-24,-34,-19,-14,-9,-14
-19,-19,0,19,-9,-9,-24,-34,-19,-14,-9,-14
-4,-4,0,4,-2,-2,-19,-29,-14,-9,-9,-9
-29,-4,24,17,-26,9,-19,-24,-14,-9,-9,-9
-58,-4,53,31,-56,24,-19,-24,-14,-9,-9,-4
-24,-4,19,14,-21,7,-19,-24,-14,-9,-9,-4
9,14,4,-12,2,9,-19,-34,-14,-14,-9,-4
-9,-4,4,7,-7,0,-24,-34,-24,-14,-9,-4
-24,-4,19,14,-21,7,-24,-34,-29,-14,-9,-9
-24,-4,19,14,-21,7,-19,-29,-29,-14,-9,-9
-14,-9,4,12,-9,-2,-19,-29,-29,-19,-9,-9
-24,-19,4,21,-14,-7,-19,-34,-29,-19,-4,-9
-24,-19,4,21,-14,-7,-24,-39,-29,-24,-9,-9
-14,-14,0,14,-7,-7,-24,-39,-34,-29,-9,-9
-9,-14,-4,12,-2,-9,-19,-39,-39,-34,-9,-14
-9,-24,-14,17,2,-19,-19,-34,-39,-39,-14,-19
-14,-29,-14,21,0,-21,-19,-34,-39,-39,-14,-19
-24,-34,-9,29,-7,-21,-14,-34,-43,-39,-14,-19
-39,-34,4,36,-21,-14,-9,-34,-48,-34,-19,-19
-39,-29,9,34,-24,-9,-9,-34,-48,-39,-24,-14
-34,-24,9,29,-21,-7,-9,-39,-53,-39,-29,-9
-34,-24,9,29,-21,-7,-9,-34,-58,-39,-24,-14
-34,-14,19,24,-26,2,-9,-29,-58,-39,-24,-14
-34,-29,4,31,-19,-12,-9,-29,-58,-43,-29,-19
-34,-43,-9,39,-12,-26,-9,-34,-58,-43,-34,-24
-43,-43,0,43,-21,-21,-9,-34,-58,-43,-34,-24
-53,-43,9,48,-31,-17,-9,-29,-63,-48,-39,-24
-39,-39,0,39,-19,-19,-14,-34,-63,-48,-39,-29
-19,-29,-9,24,-4,-19,-19,-39,-63,-48,-39,-34
-24,-24,0,24,-12,-12,-14,-43,-63,-53,-43,-39
-34,-24,9,29,-21,-7,-14,-43,-63,-53,-43,-43
-34,-34,0,34,-17,-17,-14,-43,-68,-53,-43,-43
-39,-39,0,39,-19,-19,-19,-43,-68,-53,-43,-43
-29,-43,-14,36,-7,-29,-19,-53,-68,-58,-43,-43
-24,-43,-19,34,-2,-31,-19,-53,-68,-58,-48,-43
-34,-48,-14,41,-9,-31,-14,-48,-68,-53,-43,-39
-24,-53,-29,39,2,-41,-9,-48,-73,-53,-39,-34
-34,-53,-19,43,-7,-36,-14,-48,-82,-58,-48,-39
-34,-48,-14,41,-9,-31,-14,-48,-73,-58,-48,-39
-39,-48,-9,43,-14,-29,-9,-48,-73,-53,-48,-39
-34,-48,-14,41,-9,-31,-9,-43,-68,-53,-53,-43
-48,-53,-4,51,-21,-29,-14,-43,-68,-53,-53,-43
-63,-58,4,61,-34,-26,-24,-43,-73,-53,-53,-43
-63,-68,-4,65,-29,-36,-24,-53,-82,-58,-53,-43
-63,-82,-19,73,-21,-51,-24,-63,-87,-68,-63,-48
-43,-63,-19,53,-12,-41,-19,-63,-87,-73,-63,-48
-24,-43,-19,34,-2,-31,-19,-58,-87,-73,-58,-48
-19,-43,-24,31,2,-34,-14,-53,-87,-68,-58,-39
-19,-43,-24,31,2,-34,-9,-48,-87,-68,-58,-29
-14,-48,-34,31,9,-41,-14,-48,-82,-63,-53,-34
-14,-58,-43,36,14,-51,-19,-48,-82,-63,-48,-43
-14,-53,-39,34,12,-46,-14,-48,-78,-58,-53,-43
-19,-48,-29,34,4,-39,-9,-48,-78,-58,-58,-48
-19,-48,-29,34,4,-39,-9,-53,-82,-63,-58,-48
-19,-48,-29,34,4,-39,-9,-58,-87,-68,-58,-48
-24,-48,-24,36,0,-36,-9,-58,-87,-68,-58,-48
-29,-48,-19,39,-4,-34,-9,-58,-87,-68,-58,-48
-29,-39,-9,34,-9,-24,-9,-58,-82,-63,-53,-43
-29,-29,0,29,-14,-14,-9,-58,-78,-58,-48,-39
-14,-9,4,12,-9,-2,-9,-53,-68,-53,-43,-34
0,9,9,-4,-4,9,-9,-48,-58,-48,-39,-29
0,14,14,-7,-7,14,-9,-48,-53,-39,-34,-24
0,19,19,-9,-9,19,-9,-48,-48,-29,-29,-19
-14,19,34,-2,-24,26,-14,-48,-43,-24,-24,-19
-29,19,48,4,-39,34,-19,-48,-39,-19,-19,-19
-29,24,53,2,-41,39,-19,-48,-39,-19,-19,-19
-19,29,48,-4,-34,39,-24,-43,-34,-19,-19,-14
-14,34,48,-9,-31,41,-34,-43,-34,-19,-19,-14
-4,39,43,-17,-24,41,-63,-63,-34,-24,-19,-14
-14,53,68,-19,-41,61,-87,-87,-39,-24,-14,-14
-24,53,78,-14,-51,65,-87,-87,-39,-24,-14,-4
-9,48,58,-19,-34,53,-92,-97,-58,-24,-19,-9
24,43,19,-34,2,31,-107,-102,-63,-29,-24,-14
39,53,14,-46,12,34,-112,-112,-68,-29,-24,-14
48,63,14,-56,17,39,-112,-117,-68,-29,-24,-9
39,68,29,-53,4,48,-92,-97,-58,-14,-4,9
43,73,29,-58,7,51,-73,-68,-43,-4,9,24
53,73,19,-63,17,46,-73,-53,-39,0,14,29
68,73,4,-70,31,39,-82,-58,-39,4,14,34
87,87,0,-87,43,43,-87,-63,-39,9,24,34
73,78,4,-75,34,41,-82,-73,-48,0,19,19
24,34,9,-29,7,21,-63,-73,-58,-19,0,0
-19,4,24,7,-21,14,-34,-58,-58,-24,-9,-9
-39,-19,19,29,-29,0,-29,-58,-68,-39,-24,-19
-53,-29,24,41,-39,-2,-24,-53,-87,-48,-43,-29
-39,-43,-4,41,-17,-24,-24,-53,-92,-58,-53,-39
-24,-48,-24,36,0,-36,-19,-53,-102,-78,-68,-53
-39,-73,-34,56,-2,-53,-4,-48,-107,-82,-73,-68
-39,-82,-43,61,2,-63,0,-43,-107,-82,-73,-73
-58,-87,-29,73,-14,-58,4,-34,-117,-92,-82,-78
-73,-87,-14,80,-29,-51,9,-29,-112,-92,-82,-78
-63,-82,-19,73,-21,-51,9,-29,-112,-92,-82,-78
-58,-73,-14,65,-21,-43,9,-29,-112,-92,-82,-73
-48,-82,-34,65,-7,-58,14,-29,-112,-92,-82,-73
-43,-87,-43,65,0,-65,14,-29,-112,-97,-82,-78
-43,-87,-43,65,0,-65,9,-29,-122,-97,-87,-78
-43,-87,-43,65,0,-65,4,-29,-126,-97,-92,-78
-43,-87,-43,65,0,-65,4,-29,-126,-102,-92,-78
-48,-87,-39,68,-4,-63,9,-29,-126,-102,-92,-82
-48,-87,-39,68,-4,-63,9,-29,-126,-97,-92,-82
-48,-92,-43,70,-2,-68,4,-29,-126,-97,-92,-87
-34,-82,-48,58,7,-65,19,-29,-122,-97,-87,-82
-19,-68,-48,43,14,-58,34,-29,-117,-97,-82,-82
-39,-78,-39,58,0,-58,24,-29,-117,-97,-82,-82
-63,-87,-24,75,-19,-56,14,-29,-117,-97,-82,-78
-53,-92,-39,73,-7,-65,19,-29,-126,-97,-82,-78
-43,-102,-58,73,7,-80,19,-19,-141,-102,-97,-92
-53,-102,-48,78,-2,-75,24,-29,-175,-146,-131,-126
-78,-87,-9,82,-34,-48,43,-34,-185,-185,-165,-141
-112,-92,19,102,-65,-36,78,-43,-219,-268,-258,-214
-126,-68,58,97,-92,-4,102,-48,-185,-253,-244,-204
-112,29,141,41,-126,85,126,-39,-122,-151,-136,-102
-73,195,268,-61,-170,231,112,-14,24,73,68,73
78,444,366,-261,-143,405,53,82,273,488,478,414
292,717,424,-505,-65,570,-112,87,414,946,956,819
629,1156,527,-893,51,841,-541,-141,370,1517,1600,1410
941,1395,453,-1168,244,924,-907,-322,370,2015,2127,1854
1171,1283,112,-1227,529,697,-1185,-463,444,2357,2440,2113
1146,1156,9,-1151,568,583,-1283,-653,395,2313,2405,2103
932,824,-107,-878,519,358,-1088,-653,234,1698,1825,1673
707,531,-175,-619,441,178,-819,-497,82,1058,1176,1151
478,322,-156,-400,317,82,-575,-307,-97,536,634,673
302,165,-136,-234,219,14,-361,-195,-214,161,278,366
195,131,-63,-163,129,34,-244,-151,-219,48,146,234
131,87,-43,-109,87,21,-161,-97,-195,-19,53,122
82,29,-53,-56,68,-12,-92,-34,-136,-39,4,43
48,-14,-63,-17,56,-39,-43,-4,-82,-53,-34,-14
-14,-53,-39,34,12,-46,24,0,-63,-73,-63,-48
-53,-87,-34,70,-9,-61,58,9,-68,-92,-87,-78
-48,-87,-39,68,-4,-63,63,14,-73,-112,-107,-92
-43,-78,-34,61,-4,-56,68,19,-73,-122,-122,-97
-43,-92,-48,68,2,-70,82,19,-73,-131,-126,-107
-48,-92,-43,70,-2,-68,92,24,-78,-146,-131,-112
-58,-97,-39,78,-9,-68,92,24,-82,-146,-151,-131
-63,-97,-34,80,-14,-65,92,19,-82,-151,-156,-141
-68,-112,-43,90,-12,-78,92,19,-87,-156,-161,-141
-68,-117,-48,92,-9,-82,97,24,-87,-161,-161,-141
-68,-117,-48,92,-9,-82,97,24,-87,-161,-165,-141
-73,-122,-48,97,-12,-85,97,24,-87,-165,-165,-146
-78,-131,-53,104,-12,-92,97,24,-87,-165,-165,-146
-78,-131,-53,104,-12,-92,102,29,-87,-170,-170,-151
-68,-126,-58,97,-4,-92,102,29,-87,-170,-170,-151
-58,-122,-63,90,2,-92,102,29,-87,-175,-175,-151
-78,-122,-43,100,-17,-82,107,29,-82,-175,-175,-156
-97,-126,-29,112,-34,-78,112,34,-73,-175,-180,-156
-102,-126,-24,114,-39,-75,112,34,-73,-180,-185,-156
-107,-126,-19,117,-43,-73,112,34,-73,-185,-190,-161
-97,-136,-39,117,-29,-87,112,34,-73,-185,-190,-161
-82,-136,-53,109,-14,-95,117,34,-78,-185,-190,-165
-92,-146,-53,119,-19,-100,117,34,-78,-190,-195,-170
-122,-151,-29,136,-46,-90,122,39,-73,-190,-195,-170
-112,-141,-29,126,-41,-85,117,39,-73,-195,-204,-175
-112,-151,-39,131,-36,-95,122,43,-68,-195,-204,-175
-117,-151,-34,134,-41,-92,126,53,-58,-195,-204,-175
-117,-151,-34,134,-41,-92,126,58,-58,-200,-204,-180
-117,-146,-29,131,-43,-87,126,63,-48,-200,-204,-180
-112,-146,-34,129,-39,-90,136,68,-43,-195,-209,-180
-112,-146,-34,129,-39,-90,141,73,-39,-195,-209,-180
-117,-146,-29,131,-43,-87,141,82,-34,-190,-209,-180
-117,-141,-24,129,-46,-82,146,92,-24,-190,-209,-185
-112,-122,-9,117,-51,-65,156,102,-14,-190,-209,-185
-97,-122,-24,109,-36,-73,151,97,-9,-185,-209,-190
-82,-112,-29,97,-26,-70,151,102,0,-185,-209,-204
-102,-117,-14,109,-43,-65,165,126,19,-180,-204,-195
-122,-122,0,122,-61,-61,170,151,39,-175,-200,-190
-112,-122,-9,117,-51,-65,175,156,53,-170,-195,-185
-92,-117,-24,104,-34,-70,175,156,68,-161,-190,-185
-102,-102,0,102,-51,-51,190,180,87,-156,-185,-175
-102,-97,4,100,-53,-46,204,190,107,-146,-175,-170
-97,-82,14,90,-56,-34,209,209,131,-131,-165,-165
-87,-63,24,75,-56,-19,209,224,156,-117,-161,-156
-92,-53,39,73,-65,-7,209,234,170,-112,-151,-151
-97,-39,58,68,-78,9,209,248,195,-102,-146,-146
-102,-43,58,73,-80,7,214,258,214,-92,-131,-131
-107,-48,58,78,-82,4,214,273,248,-73,-122,-122
-82,-9,73,46,-78,31,214,283,268,-63,-112,-107
-53,34,87,9,-70,61,204,292,287,-48,-102,-102
-48,39,87,4,-68,63,204,287,302,-43,-87,-92
-34,53,87,-9,-61,70,204,287,317,-29,-82,-87
-19,58,78,-19,-48,68,185,292,322,-19,-73,-73
-14,58,73,-21,-43,65,180,292,331,-9,-63,-63
-9,63,73,-26,-41,68,175,292,341,-9,-53,-58
-9,73,82,-31,-46,78,170,292,351,4,-39,-43
-9,78,87,-34,-48,82,165,297,356,14,-29,-34
4,87,82,-46,-39,85,156,297,370,24,-29,-24
14,87,73,-51,-29,80,146,283,361,24,-24,-24
24,87,63,-56,-19,75,141,273,356,24,-19,-19
29,92,63,-61,-17,78,126,263,341,14,-19,-19
34,92,58,-63,-12,75,117,258,331,14,-19,-14
43,87,43,-65,0,65,97,244,322,14,-14,-9
58,97,39,-78,9,68,87,229,302,4,-14,-4
58,87,29,-73,14,58,68,204,268,0,-19,-4
53,87,34,-70,9,61,63,185,244,0,-19,0
43,78,34,-61,4,56,48,146,214,0,-9,4
34,58,24,-46,4,41,34,122,185,0,-9,4
48,53,4,-51,21,29,19,107,161,-4,-14,9
53,53,0,-53,26,26,9,87,136,-4,-19,9
39,29,-9,-34,24,9,0,63,107,-9,-9,4
29,24,-4,-26,17,9,-4,48,78,-14,-9,-4
24,14,-9,-19,17,2,-19,24,53,-24,-14,-9
19,9,-9,-14,14,0,-24,4,34,-24,-19,-9
14,-4,-19,-4,17,-12,-24,-9,19,-24,-19,-9
9,-14,-24,2,17,-19,-39,-14,0,-34,-19,-9
0,-14,-14,7,7,-14,-39,-29,-14,-34,-24,-9
-9,-24,-14,17,2,-19,-34,-34,-24,-34,-24,-9
0,-14,-14,7,7,-14,-34,-39,-24,-34,-24,-14
4,-9,-14,2,9,-12,-34,-48,-39,-34,-24,-19
4,-9,-14,2,9,-12,-34,-48,-48,-39,-29,-24
14,-9,-24,-2,19,-17,-34,-48,-48,-39,-39,-24
-4,-14,-9,9,2,-12,-34,-53,-58,-43,-39,-29
-14,-19,-4,17,-4,-12,-29,-53,-58,-43,-39,-29
-14,-29,-14,21,0,-21,-34,-53,-63,-48,-39,-29
-14,-39,-24,26,4,-31,-39,-53,-68,-48,-43,-29
-19,-48,-29,34,4,-39,-39,-53,-68,-48,-43,-34
-14,-48,-34,31,9,-41,-39,-53,-68,-43,-34,-34
-14,-48,-34,31,9,-41,-34,-53,-63,-43,-34,-34
-14,-48,-34,31,9,-41,-34,-53,-58,-43,-43,-39
-29,-43,-14,36,-7,-29,-34,-53,-58,-43,-43,-39
-39,-48,-9,43,-14,-29,-34,-53,-58,-43,-43,-43
-29,-58,-29,43,0,-43,-29,-48,-58,-43,-43,-43
-24,-68,-43,46,9,-56,-29,-48,-53,-43,-39,-43
-29,-78,-48,53,9,-63,-24,-43,-53,-39,-34,-34
-29,-78,-48,53,9,-63,-19,-39,-53,-34,-29,-29
-29,-73,-43,51,7,-58,-19,-39,-53,-34,-29,-29
-29,-68,-39,48,4,-53,-19,-39,-48,-29,-29,-29
-39,-63,-24,51,-7,-43,-19,-39,-43,-34,-29,-24
-48,-48,0,48,-24,-24,-24,-39,-43,-39,-34,-24
-39,-53,-14,46,-12,-34,-29,-34,-43,-34,-29,-24
-29,-58,-29,43,0,-43,-29,-34,-43,-34,-29,-24
-29,-29,0,29,-14,-14,-29,-39,-43,-34,-39,-29
-24,-14,9,19,-17,-2,-29,-48,-48,-39,-43,-39
-24,-14,9,19,-17,-2,-29,-58,-43,-39,-43,-39
-29,-14,14,21,-21,0,-29,-48,-43,-29,-43,-34
-24,-14,9,19,-17,-2,-24,-48,-39,-29,-39,-29
-19,0,19,9,-19,9,-24,-43,-34,-24,-34,-24
-24,-4,19,14,-21,7,-24,-43,-29,-24,-34,-24
-24,-9,14,17,-19,2,-24,-48,-29,-24,-34,-24
-9,-19,-9,14,0,-14,-29,-48,-29,-24,-34,-24
-4,-19,-14,12,4,-17,-34,-48,-24,-24,-34,-24
0,-9,-9,4,4,-9,-29,-43,-24,-24,-34,-24
9,-4,-14,-2,12,-9,-29,-43,-19,-19,-34,-24
0,-9,-9,4,4,-9,-29,-43,-14,-19,-29,-19
-9,-9,0,9,-4,-4,-29,-43,-9,-19,-24,-19
-19,-9,9,14,-14,0,-24,-39,-9,-19,-14,-24
-29,-9,19,19,-24,4,-19,-34,-9,-19,-14,-24
-29,-9,19,19,-24,4,-19,-34,-9,-14,-14,-24
-48,-29,19,39,-34,-4,-24,-34,-9,-14,-9,-24
-34,-14,19,24,-26,2,-24,-39,-9,-14,-9,-24
-14,4,19,4,-17,12,-19,-39,-4,-9,-9,-19
0,4,4,-2,-2,4,-24,-34,-9,-9,-9,-19
9,4,-4,-7,7,0,-29,-34,-14,-9,-9,-14
0,4,4,-2,-2,4,-29,-34,-14,-9,-9,-14
-9,24,34,-7,-21,29,-29,-43,-14,-14,-9,-14
-9,4,14,2,-12,9,-29,-43,-19,-9,-9,-9
-4,4,9,0,-7,7,-24,-43,-19,-4,-9,-9
-9,0,9,4,-9,4,-19,-39,-19,-4,-9,-9
-4,-9,-4,7,0,-7,-19,-39,-19,-9,-9,-9
-14,-9,4,12,-9,-2,-19,-43,-19,-9,-9,-9
-14,0,14,7,-14,7,-24,-48,-19,-14,-19,-9
-19,4,24,7,-21,14,-24,-48,-24,-14,-14,-4
-29,4,34,12,-31,19,-19,-48,-29,-14,-9,-4
-19,-4,14,12,-17,4,-19,-43,-29,-19,-14,-9
-14,-9,4,12,-9,-2,-19,-43,-29,-19,-14,-9
-14,-14,0,14,-7,-7,-24,-43,-34,-29,-19,-14
-19,-14,4,17,-12,-4,-29,-43,-39,-34,-29,-19
-19,-14,4,17,-12,-4,-29,-48,-39,-39,-29,-19
-14,-14,0,14,-7,-7,-29,-58,-43,-39,-29,-19
-19,-24,-4,21,-7,-14,-29,-58,-48,-34,-24,-24
-24,-24,0,24,-12,-12,-29,-58,-48,-29,-24,-24
-24,-4,19,14,-21,7,-29,-58,-48,-34,-29,-29
-24,14,39,4,-31,26,-29,-63,-48,-34,-34,-34
-24,4,29,9,-26,17,-29,-63,-48,-34,-34,-34
-24,-4,19,14,-21,7,-29,-58,-53,-39,-39,-34
-29,-19,9,24,-19,-4,-29,-58,-53,-39,-39,-34
-29,-29,0,29,-14,-14,-29,-58,-53,-39,-39,-34
-29,-24,4,26,-17,-9,-24,-58,-58,-43,-43,-39
-34,-24,9,29,-21,-7,-24,-53,-63,-43,-43,-43
-34,-39,-4,36,-14,-21,-24,-53,-68,-43,-43,-43
-39,-48,-9,43,-14,-29,-29,-53,-68,-43,-43,-43
-39,-43,-4,41,-17,-24,-29,-63,-68,-48,-43,-43
-43,-34,9,39,-26,-12,-29,-63,-68,-48,-48,-43
-39,-34,4,36,-21,-14,-29,-58,-68,-48,-48,-43
-14,-34,-19,24,2,-26,-29,-58,-73,-53,-48,-43
-24,-34,-9,29,-7,-21,-34,-58,-87,-58,-58,-48
-24,-29,-4,26,-9,-17,-34,-58,-82,-58,-58,-48
-24,-29,-4,26,-9,-17,-29,-58,-82,-53,-53,-48
-14,-29,-14,21,0,-21,-29,-53,-78,-53,-53,-53
-14,-29,-14,21,0,-21,-29,-53,-73,-53,-53,-53
-14,-29,-14,21,0,-21,-34,-53,-73,-53,-53,-53
-14,-14,0,14,-7,-7,-34,-58,-78,-53,-53,-53
-14,-4,9,9,-12,2,-34,-63,-78,-58,-63,-58
-24,-34,-9,29,-7,-21,-29,-63,-78,-63,-63,-58
-34,-63,-29,48,-2,-46,-29,-58,-78,-63,-58,-58
-29,-29,0,29,-14,-14,-39,-63,-87,-63,-63,-58
-29,4,34,12,-31,19,-48,-68,-97,-68,-68,-58
-19,-9,9,14,-14,0,-39,-68,-87,-58,-58,-48
-14,-29,-14,21,0,-21,-29,-68,-82,-53,-48,-43
0,-24,-24,12,12,-24,-29,-68,-78,-48,-53,-48
9,-19,-29,4,19,-24,-29,-68,-78,-48,-58,-58
-4,-4,0,4,-2,-2,-29,-68,-87,-53,-58,-58
-19,9,29,4,-24,19,-29,-68,-97,-58,-58,-58
-29,-14,14,21,-21,0,-29,-68,-87,-58,-58,-58
-39,-39,0,39,-19,-19,-29,-68,-78,-58,-58,-58
-29,-19,9,24,-19,-4,-34,-68,-78,-58,-58,-58
-19,0,19,9,-19,9,-39,-68,-78,-58,-58,-58
0,14,14,-7,-7,14,-39,-68,-68,-53,-53,-53
19,29,9,-24,4,19,-39,-68,-58,-48,-48,-48
0,29,29,-14,-14,29,-34,-68,-48,-39,-34,-39
-19,29,48,-4,-34,39,-29,-68,-39,-29,-19,-29
-19,43,63,-12,-41,53,-29,-63,-34,-19,-19,-19
-19,58,78,-19,-48,68,-29,-58,-29,-9,-19,-9
-9,58,68,-24,-39,63,-24,-58,-24,-4,-19,-9
-4,48,53,-21,-29,51,-29,-58,-19,0,-19,-9
-4,39,43,-17,-24,41,-39,-58,-19,0,-24,-9
-14,19,34,-2,-24,26,-73,-82,-24,-4,-29,-14
-4,58,63,-26,-34,61,-107,-112,-29,-9,-24,-29
4,82,78,-43,-36,80,-117,-117,-29,-14,-24,-34
14,68,53,-41,-19,61,-117,-122,-48,-14,-24,-24
43,53,9,-48,17,31,-126,-122,-53,-19,-24,-14
43,63,19,-53,12,41,-131,-131,-58,-24,-24,-14
39,73,34,-56,2,53,-131,-136,-58,-29,-24,-9
29,78,48,-53,-9,63,-112,-117,-53,-14,-4,4
34,82,48,-58,-7,65,-92,-87,-43,-4,9,14
43,82,39,-63,2,61,-92,-73,-39,4,14,19
58,82,24,-70,17,53,-102,-78,-39,14,14,24
73,92,19,-82,26,56,-107,-82,-39,19,24,34
53,78,24,-65,14,51,-102,-92,-48,9,19,29
24,43,19,-34,2,31,-82,-92,-58,-9,0,9
0,24,24,-12,-12,24,-53,-78,-58,-14,-9,0
-9,4,14,2,-12,9,-43,-78,-58,-24,-14,-9
-14,0,14,7,-14,7,-34,-73,-68,-29,-24,-19
-24,-14,9,19,-17,-2,-34,-68,-73,-39,-34,-29
-34,-19,14,26,-24,-2,-29,-63,-82,-58,-48,-43
-48,-43,4,46,-26,-19,-14,-58,-87,-63,-53,-53
-48,-53,-4,51,-21,-29,-9,-53,-87,-63,-53,-53
-48,-58,-9,53,-19,-34,-9,-53,-107,-78,-68,-63
-43,-58,-14,51,-14,-36,-9,-58,-112,-82,-73,-68
-48,-68,-19,58,-14,-43,-9,-58,-112,-82,-78,-73
-58,-73,-14,65,-21,-43,-9,-58,-112,-82,-82,-73
-58,-82,-24,70,-17,-53,0,-53,-112,-78,-82,-73
-63,-87,-24,75,-19,-56,4,-48,-112,-78,-82,-78
-63,-82,-19,73,-21,-51,4,-48,-117,-78,-82,-78
-63,-78,-14,70,-24,-46,4,-48,-117,-78,-82,-78
-58,-78,-19,68,-19,-48,4,-48,-117,-87,-82,-73
-58,-78,-19,68,-19,-48,9,-48,-117,-92,-82,-73
-53,-78,-24,65,-14,-51,9,-48,-117,-87,-82,-68
-48,-82,-34,65,-7,-58,4,-48,-117,-87,-82,-68
-48,-82,-34,65,-7,-58,4,-48,-117,-87,-82,-68
-48,-78,-29,63,-9,-53,4,-48,-117,-87,-82,-73
-58,-78,-19,68,-19,-48,4,-48,-117,-82,-82,-73
-73,-78,-4,75,-34,-41,4,-48,-117,-78,-82,-68
-53,-82,-29,68,-12,-56,9,-48,-112,-73,-73,-58
-34,-92,-58,63,12,-75,9,-39,-112,-73,-78,-63
-43,-107,-63,75,9,-85,4,-53,-156,-126,-122,-107
-68,-107,-39,87,-14,-73,14,-63,-175,-175,-165,-131
-122,-117,4,119,-63,-56,63,-63,-219,-263,-258,-204
-156,-97,58,126,-107,-19,102,-58,-195,-253,-244,-195
-122,9,131,56,-126,70,122,-58,-136,-165,-151,-107
-63,185,248,-61,-156,217,102,-43,4,43,39,53
68,424,356,-246,-143,390,43,68,258,453,444,390
263,688,424,-475,-80,556,-122,87,405,907,917,790
590,1122,531,-856,29,827,-566,-146,361,1478,1556,1381
893,1356,463,-1124,214,910,-946,-331,361,1976,2078,1825
1180,1263,82,-1222,549,673,-1220,-473,429,2332,2410,2098
1215,1156,-58,-1185,636,549,-1312,-663,375,2303,2396,2103
966,800,-165,-883,566,317,-1132,-697,234,1703,1834,1693
707,483,-224,-595,466,129,-878,-575,102,1078,1205,1190
497,302,-195,-400,346,53,-639,-380,-92,556,653,697
341,175,-165,-258,253,4,-429,-263,-224,180,287,375
214,136,-78,-175,146,29,-292,-204,-214,73,165,248
131,87,-43,-109,87,21,-190,-136,-175,9,82,141
78,34,-43,-56,61,-4,-112,-68,-122,-14,29,68
39,-4,-43,-17,41,-24,-53,-34,-73,-34,-14,14
-19,-48,-29,34,4,-39,14,-29,-63,-58,-48,-29
-53,-87,-34,70,-9,-61,48,-19,-78,-82,-78,-68
-68,-87,-19,78,-24,-53,48,-14,-82,-102,-97,-87
-82,-78,4,80,-43,-36,48,-9,-82,-112,-112,-97
-82,-117,-34,100,-24,-75,63,-9,-82,-117,-117,-107
-87,-141,-53,114,-17,-97,73,-4,-87,-126,-122,-112
-87,-131,-43,109,-21,-87,73,-4,-92,-131,-136,-126
-82,-117,-34,100,-24,-75,73,-9,-92,-141,-136,-131
-87,-126,-39,107,-24,-82,78,-4,-97,-146,-141,-136
-87,-126,-39,107,-24,-82,87,4,-97,-151,-141,-141
-87,-122,-34,104,-26,-78,87,4,-97,-146,-151,-141
-92,-122,-29,107,-31,-75,87,4,-97,-146,-156,-146
-97,-131,-34,114,-31,-82,82,0,-97,-146,-156,-146
-97,-131,-34,114,-31,-82,82,0,-97,-151,-161,-151
-97,-131,-34,114,-31,-82,82,0,-97,-156,-161,-151
-97,-131,-34,114,-31,-82,82,0,-97,-165,-165,-151
-97,-131,-34,114,-31,-82,87,0,-97,-165,-165,-156
-97,-136,-39,117,-29,-87,92,4,-92,-165,-170,-156
-102,-136,-34,119,-34,-85,92,4,-87,-170,-175,-156
-107,-136,-29,122,-39,-82,92,4,-82,-175,-180,-161
-112,-151,-39,131,-36,-95,92,4,-82,-175,-180,-161
-112,-156,-43,134,-34,-100,97,4,-87,-175,-180,-165
-102,-161,-58,131,-21,-109,97,4,-87,-180,-185,-170
-112,-161,-48,136,-31,-104,102,9,-82,-180,-185,-170
-102,-146,-43,124,-29,-95,102,14,-82,-180,-195,-170
-102,-151,-48,126,-26,-100,112,24,-78,-175,-195,-165
-117,-151,-34,134,-41,-92,117,34,-68,-175,-195,-165
-126,-151,-24,139,-51,-87,117,39,-68,-180,-195,-170
-126,-151,-24,139,-51,-87,117,39,-63,-185,-195,-175
-122,-156,-34,139,-43,-95,126,39,-63,-185,-200,-180
-117,-156,-39,136,-39,-97,136,43,-53,-185,-200,-180
-117,-156,-39,136,-39,-97,141,53,-43,-180,-200,-180
-117,-146,-29,131,-43,-87,146,63,-34,-180,-200,-185
-112,-122,-9,117,-51,-65,156,73,-24,-180,-200,-185
-117,-141,-24,129,-46,-82,156,78,-19,-175,-200,-185
-122,-151,-29,136,-46,-90,161,92,-9,-175,-200,-195
-122,-146,-24,134,-48,-85,175,102,9,-170,-195,-185
-122,-141,-19,131,-51,-80,180,112,29,-165,-190,-180
-122,-131,-9,126,-56,-70,185,126,43,-161,-190,-175
-112,-117,-4,114,-53,-61,185,136,58,-151,-190,-175
-117,-102,14,109,-65,-43,195,161,73,-151,-185,-170
-112,-97,14,104,-63,-41,204,170,87,-146,-175,-170
-107,-87,19,97,-63,-34,209,185,112,-131,-165,-165
-97,-73,24,85,-61,-24,209,195,136,-117,-161,-156
-107,-63,43,85,-75,-9,219,209,156,-107,-146,-151
-117,-48,68,82,-92,9,229,229,185,-92,-136,-146
-107,-19,87,63,-97,34,229,234,200,-82,-122,-131
-97,9,107,43,-102,58,224,244,229,-63,-112,-122
-87,9,97,39,-92,53,224,253,244,-58,-107,-107
-73,14,87,29,-80,51,214,263,258,-48,-102,-102
-68,19,87,24,-78,53,214,263,273,-43,-87,-92
-53,34,87,9,-70,61,214,268,287,-29,-82,-87
-39,43,82,-2,-61,63,195,278,297,-24,-78,-73
-34,48,82,-7,-58,65,190,283,312,-19,-73,-63
-43,53,97,-4,-70,75,185,287,326,-19,-63,-58
-58,63,122,-2,-90,92,180,292,341,-4,-48,-43
-43,68,112,-12,-78,90,175,292,341,4,-39,-39
-14,78,92,-31,-53,85,165,287,351,14,-39,-34
-4,78,82,-36,-43,80,156,273,346,14,-34,-34
4,78,73,-41,-34,75,151,263,346,14,-29,-29
19,92,73,-56,-26,82,136,253,331,4,-29,-24
34,102,68,-68,-17,85,126,248,322,4,-29,-14
34,87,53,-61,-9,70,102,229,307,4,-24,-14
39,87,48,-63,-4,68,87,209,283,-4,-24,-14
39,73,34,-56,2,53,68,195,248,-4,-29,-9
34,68,34,-51,0,51,63,185,224,0,-29,0
34,68,34,-51,0,51,48,141,195,0,-19,4
34,58,24,-46,4,41,34,112,165,0,-19,4
34,48,14,-41,9,31,19,92,141,-4,-19,9
24,43,19,-34,2,31,9,68,117,-4,-19,9
19,14,-4,-17,12,4,0,43,92,-4,-9,9
19,4,-14,-12,17,-4,-4,29,68,-4,-9,4
14,9,-4,-12,9,2,-24,4,43,-24,-14,0
9,19,9,-14,0,14,-34,-14,24,-34,-19,0
4,9,4,-7,0,7,-34,-39,4,-34,-24,-9
0,4,4,-2,-2,4,-48,-53,-19,-43,-29,-19
-9,-4,4,7,-7,0,-53,-63,-39,-43,-34,-19
-19,-24,-4,21,-7,-14,-53,-63,-53,-43,-34,-19
-19,-24,-4,21,-7,-14,-53,-63,-43,-39,-29,-19
-24,-29,-4,26,-9,-17,-53,-68,-48,-34,-24,-19
-24,-24,0,24,-12,-12,-53,-68,-58,-39,-29,-24
-14,-19,-4,17,-4,-12,-53,-68,-58,-39,-39,-24
-24,-24,0,24,-12,-12,-53,-78,-68,-43,-39,-29
-24,-29,-4,26,-9,-17,-48,-82,-68,-43,-39,-29
-24,-39,-14,31,-4,-26,-48,-82,-68,-48,-39,-29
-24,-48,-24,36,0,-36,-48,-82,-68,-48,-43,-29
-34,-58,-24,46,-4,-41,-48,-82,-68,-48,-43,-29
-34,-58,-24,46,-4,-41,-48,-82,-68,-43,-34,-24
-34,-58,-24,46,-4,-41,-43,-82,-68,-43,-34,-24
-34,-58,-24,46,-4,-41,-43,-82,-68,-43,-43,-29
-34,-48,-14,41,-9,-31,-43,-82,-68,-43,-43,-29
-29,-48,-19,39,-4,-34,-43,-82,-68,-43,-43,-34
-29,-43,-14,36,-7,-29,-39,-78,-68,-43,-43,-34
-34,-39,-4,36,-14,-21,-39,-78,-63,-43,-39,-34
-39,-48,-9,43,-14,-29,-39,-78,-63,-43,-39,-29
-39,-48,-9,43,-14,-29,-39,-78,-63,-43,-39,-29
-34,-53,-19,43,-7,-36,-39,-78,-63,-43,-39,-29
-29,-58,-29,43,0,-43,-39,-78,-58,-39,-39,-29
-29,-63,-34,46,2,-48,-34,-82,-58,-39,-34,-24
-29,-58,-29,43,0,-43,-34,-87,-63,-39,-34,-24
-39,-58,-19,48,-9,-39,-39,-82,-63,-34,-29,-24
-48,-58,-9,53,-19,-34,-39,-82,-63,-34,-29,-24
-48,-43,4,46,-26,-19,-39,-78,-53,-34,-34,-24
-43,-43,0,43,-21,-21,-39,-78,-48,-39,-34,-29
-43,-43,0,43,-21,-21,-39,-87,-43,-39,-34,-29
-48,-43,4,46,-26,-19,-39,-78,-43,-29,-34,-19
-48,-43,4,46,-26,-19,-39,-78,-43,-29,-34,-19
