I, II, III, aVR, aVL, aVF, V1, V2, V3, V4, V5, V6
-29,-58,-29,43,0,-43,117,165,9,0,-29,-78
-29,-58,-29,43,0,-43,117,170,14,0,-29,-78
-29,-58,-29,43,0,-43,117,175,19,0,-29,-78
-29,-58,-29,43,0,-43,122,180,19,0,-29,-78
-29,-58,-29,43,0,-43,126,185,19,0,-29,-78
-34,-58,-24,46,-4,-41,126,190,19,0,-29,-78
-39,-58,-19,48,-9,-39,126,195,19,0,-29,-78
-39,-63,-24,51,-7,-43,126,200,19,0,-29,-78
-39,-68,-29,53,-4,-48,126,204,19,0,-29,-78
-43,-68,-24,56,-9,-46,126,204,19,0,-29,-82
-48,-68,-19,58,-14,-43,126,204,19,0,-29,-87
-48,-68,-19,58,-14,-43,126,204,19,-9,-39,-92
-48,-68,-19,58,-14,-43,126,204,19,-19,-48,-97
-53,-63,-9,58,-21,-36,131,204,19,-19,-53,-102
-58,-58,0,58,-29,-29,136,204,19,-19,-58,-107
-58,-53,4,56,-31,-24,136,204,19,-24,-63,-112
-58,-48,9,53,-34,-19,136,204,19,-29,-68,-117
-58,-48,9,53,-34,-19,136,200,14,-34,-78,-126
-58,-48,9,53,-34,-19,136,195,9,-39,-87,-136
-63,-48,14,56,-39,-17,136,195,0,-48,-97,-146
-68,-48,19,58,-43,-14,136,195,-9,-58,-107,-156
-78,-53,24,65,-51,-14,141,195,-14,-73,-126,-170
-87,-58,29,73,-58,-14,146,195,-19,-87,-146,-185
-97,-63,34,80,-65,-14,146,190,-29,-107,-165,-204
-107,-68,39,87,-73,-14,146,185,-39,-126,-185,-224
-117,-78,39,97,-78,-19,151,180,-53,-151,-209,-244
-126,-87,39,107,-82,-24,156,175,-68,-175,-234,-263
-146,-107,39,126,-92,-34,165,165,-87,-200,-258,-292
-165,-126,39,146,-102,-43,175,156,-107,-224,-283,-322
-180,-146,34,163,-107,-56,175,141,-122,-258,-326,-361
-195,-165,29,180,-112,-68,175,126,-136,-292,-370,-400
-214,-185,29,200,-122,-78,180,102,-170,-331,-414,-439
-234,-204,29,219,-131,-87,185,78,-204,-370,-458,-478
-258,-234,24,246,-141,-104,190,63,-234,-419,-507,-522
-283,-263,19,273,-151,-122,195,48,-263,-468,-556,-566
-297,-292,4,295,-151,-143,195,14,-297,-507,-600,-610
-312,-322,-9,317,-151,-165,195,-19,-331,-546,-644,-653
-336,-346,-9,341,-163,-178,195,-39,-361,-595,-692,-692
-361,-370,-9,366,-175,-190,195,-58,-390,-644,-741,-732
-375,-390,-14,383,-180,-202,195,-82,-419,-673,-771,-766
-390,-409,-19,400,-185,-214,195,-107,-448,-702,-800,-800
-390,-424,-34,407,-178,-229,195,-126,-468,-727,-834,-824
-390,-439,-48,414,-170,-244,195,-146,-488,-751,-868,-849
-390,-448,-58,419,-165,-253,190,-161,-497,-761,-878,-858
-390,-458,-68,424,-161,-263,185,-175,-507,-771,-888,-868
-385,-458,-73,422,-156,-265,180,-175,-507,-771,-878,-858
-380,-458,-78,419,-151,-268,175,-175,-507,-771,-868,-849
-366,-448,-82,407,-141,-265,161,-175,-502,-751,-844,-829
-351,-439,-87,395,-131,-263,146,-175,-497,-732,-819,-810
-326,-429,-102,378,-112,-265,141,-175,-473,-702,-790,-775
-302,-419,-117,361,-92,-268,136,-175,-448,-673,-761,-741
-283,-400,-117,341,-82,-258,122,-165,-429,-629,-707,-692
-263,-380,-117,322,-73,-248,107,-156,-409,-585,-653,-644
-239,-351,-112,295,-63,-231,92,-141,-380,-541,-600,-590
-214,-322,-107,268,-53,-214,78,-126,-351,-497,-546,-536
-190,-292,-102,241,-43,-197,68,-117,-317,-444,-483,-478
-165,-263,-97,214,-34,-180,58,-107,-283,-390,-419,-419
-146,-234,-87,190,-29,-161,48,-92,-248,-341,-366,-366
-126,-204,-78,165,-24,-141,39,-78,-214,-292,-312,-312
-107,-180,-73,143,-17,-126,29,-68,-190,-248,-258,-263
-87,-156,-68,122,-9,-112,19,-58,-165,-204,-204,-214
-68,-136,-68,102,0,-102,9,-43,-146,-170,-165,-180
-48,-117,-68,82,9,-92,0,-29,-126,-136,-126,-146
-34,-97,-63,65,14,-80,-4,-19,-102,-102,-92,-107
-19,-78,-58,48,19,-68,-9,-9,-78,-68,-58,-68
-9,-58,-48,34,19,-53,-9,-4,-68,-48,-29,-43
0,-39,-39,19,19,-39,-9,0,-58,-29,0,-19
9,-29,-39,9,24,-34,-14,4,-39,-9,24,4
19,-19,-39,0,29,-29,-19,9,-19,9,48,29
19,-9,-29,-4,24,-19,-24,19,-14,29,63,43
19,0,-19,-9,19,-9,-29,29,-9,48,78,58
24,9,-14,-17,19,-2,-29,34,0,58,92,63
29,19,-9,-24,19,4,-29,39,9,68,107,68
29,29,0,-29,14,14,-24,43,14,78,117,78
29,39,9,-34,9,24,-19,48,19,87,126,87
29,39,9,-34,9,24,-19,48,24,87,126,92
29,39,9,-34,9,24,-19,48,29,87,126,97
29,43,14,-36,7,29,-19,53,34,92,131,102
29,48,19,-39,4,34,-19,58,39,97,136,107
29,48,19,-39,4,34,-14,58,39,97,136,107
29,48,19,-39,4,34,-9,58,39,97,136,107
29,48,19,-39,4,34,-9,63,39,97,131,102
29,48,19,-39,4,34,-9,68,39,97,126,97
29,48,19,-39,4,34,-9,68,39,92,126,92
29,48,19,-39,4,34,-9,68,39,87,126,87
29,43,14,-36,7,29,-4,68,39,87,126,87
29,39,9,-34,9,24,0,68,39,87,126,87
29,39,9,-34,9,24,0,68,34,87,122,87
29,39,9,-34,9,24,0,68,29,87,117,87
29,34,4,-31,12,19,0,73,29,82,112,78
29,29,0,-29,14,14,0,78,29,78,107,68
24,24,0,-24,12,12,0,78,24,73,102,63
19,19,0,-19,9,9,0,78,19,68,97,58
19,14,-4,-17,12,4,4,78,19,63,92,48
19,9,-9,-14,14,0,9,78,19,58,87,39
14,4,-9,-9,12,-2,9,73,19,53,82,39
9,0,-9,-4,9,-4,9,68,19,48,78,39
9,0,-9,-4,9,-4,4,68,14,43,68,29
9,0,-9,-4,9,-4,0,68,9,39,58,19
9,-4,-14,-2,12,-9,0,63,4,34,53,14
9,-9,-19,0,14,-14,0,58,0,29,48,9
9,-9,-19,0,14,-14,0,58,-4,24,43,9
9,-9,-19,0,14,-14,0,58,-9,19,39,9
9,-14,-24,2,17,-19,0,53,-14,19,34,9
9,-19,-29,4,19,-24,0,48,-19,19,29,9
9,-19,-29,4,19,-24,0,48,-19,14,29,4
9,-19,-29,4,19,-24,0,48,-19,9,29,0
9,-19,-29,4,19,-24,0,48,-24,4,24,0
9,-19,-29,4,19,-24,0,48,-29,0,19,0
9,-19,-29,4,19,-24,0,43,-34,-4,19,-4
9,-19,-29,4,19,-24,0,39,-39,-9,19,-9
9,-19,-29,4,19,-24,0,39,-39,-9,19,-9
9,-19,-29,4,19,-24,0,39,-39,-9,19,-9
9,-19,-29,4,19,-24,-4,34,-39,-4,19,-9
9,-19,-29,4,19,-24,-9,29,-39,0,19,-9
9,-24,-34,7,21,-29,-9,29,-39,0,19,-9
9,-29,-39,9,24,-34,-9,29,-39,0,19,-9
9,-29,-39,9,24,-34,-9,29,-39,0,19,-9
9,-29,-39,9,24,-34,-9,29,-39,0,19,-9
9,-29,-39,9,24,-34,-9,29,-39,0,24,-9
9,-29,-39,9,24,-34,-9,29,-39,0,29,-9
9,-29,-39,9,24,-34,-9,24,-39,0,29,-9
9,-29,-39,9,24,-34,-9,19,-39,0,29,-9
9,-24,-34,7,21,-29,-9,19,-39,0,29,-9
9,-19,-29,4,19,-24,-9,19,-39,0,29,-9
14,-19,-34,2,24,-26,-9,19,-39,0,29,-4
19,-19,-39,0,29,-29,-9,19,-39,0,29,0
19,-19,-39,0,29,-29,-9,19,-39,0,29,4
19,-19,-39,0,29,-29,-9,19,-39,0,29,9
19,-19,-39,0,29,-29,-14,19,-39,0,29,9
19,-19,-39,0,29,-29,-19,19,-39,0,29,9
19,-14,-34,-2,26,-24,-24,14,-39,4,34,9
19,-9,-29,-4,24,-19,-29,9,-39,9,39,9
19,-9,-29,-4,24,-19,-29,9,-39,9,39,14
19,-9,-29,-4,24,-19,-29,9,-39,9,39,19
19,-4,-24,-7,21,-14,-29,9,-39,9,39,19
19,0,-19,-9,19,-9,-29,9,-39,9,39,19
19,0,-19,-9,19,-9,-29,9,-39,9,39,19
19,0,-19,-9,19,-9,-29,9,-39,9,39,19
19,0,-19,-9,19,-9,-29,4,-39,9,39,19
19,0,-19,-9,19,-9,-29,0,-39,9,39,19
19,0,-19,-9,19,-9,-29,0,-39,9,39,19
19,0,-19,-9,19,-9,-29,0,-39,9,39,19
19,0,-19,-9,19,-9,-29,0,-39,9,39,19
19,0,-19,-9,19,-9,-29,0,-39,9,39,19
19,0,-19,-9,19,-9,-29,4,-39,9,43,19
19,0,-19,-9,19,-9,-29,9,-39,9,48,19
19,0,-19,-9,19,-9,-29,9,-39,9,48,24
19,0,-19,-9,19,-9,-29,9,-39,9,48,29
19,0,-19,-9,19,-9,-29,9,-39,9,48,29
19,0,-19,-9,19,-9,-29,9,-39,9,48,29
19,4,-14,-12,17,-4,-29,4,-39,14,48,29
19,9,-9,-14,14,0,-29,0,-39,19,48,29
19,9,-9,-14,14,0,-29,0,-39,19,53,34
19,9,-9,-14,14,0,-29,0,-39,19,58,39
19,9,-9,-14,14,0,-29,0,-39,19,58,39
19,9,-9,-14,14,0,-29,0,-39,19,58,39
19,4,-14,-12,17,-4,-29,0,-34,19,53,39
19,0,-19,-9,19,-9,-29,0,-29,19,48,39
19,0,-19,-9,19,-9,-29,0,-29,19,48,39
19,0,-19,-9,19,-9,-29,0,-29,19,48,39
19,0,-19,-9,19,-9,-29,0,-29,19,53,39
19,0,-19,-9,19,-9,-29,0,-29,19,58,39
19,0,-19,-9,19,-9,-29,0,-34,24,58,39
19,0,-19,-9,19,-9,-29,0,-39,29,58,39
19,4,-14,-12,17,-4,-29,0,-39,29,58,39
19,9,-9,-14,14,0,-29,0,-39,29,58,39
19,9,-9,-14,14,0,-29,0,-39,29,58,43
19,9,-9,-14,14,0,-29,0,-39,29,58,48
19,4,-14,-12,17,-4,-29,0,-34,29,58,48
19,0,-19,-9,19,-9,-29,0,-29,29,58,48
19,0,-19,-9,19,-9,-29,0,-29,29,58,48
19,0,-19,-9,19,-9,-29,0,-29,29,58,48
19,0,-19,-9,19,-9,-29,0,-29,24,58,43
19,0,-19,-9,19,-9,-29,0,-29,19,58,39
19,0,-19,-9,19,-9,-29,0,-29,19,58,39
19,0,-19,-9,19,-9,-29,0,-29,19,58,39
19,4,-14,-12,17,-4,-29,0,-29,19,58,39
19,9,-9,-14,14,0,-29,0,-29,19,58,39
19,9,-9,-14,14,0,-29,-4,-29,19,58,34
19,9,-9,-14,14,0,-29,-9,-29,19,58,29
19,9,-9,-14,14,0,-29,-9,-29,19,58,29
19,9,-9,-14,14,0,-29,-9,-29,19,58,29
19,9,-9,-14,14,0,-29,-9,-34,19,58,29
19,9,-9,-14,14,0,-29,-9,-39,19,58,29
19,9,-9,-14,14,0,-34,-9,-39,19,58,34
19,9,-9,-14,14,0,-39,-9,-39,19,58,39
19,9,-9,-14,14,0,-39,-9,-39,19,58,39
19,9,-9,-14,14,0,-39,-9,-39,19,58,39
19,9,-9,-14,14,0,-39,-14,-39,19,58,39
19,9,-9,-14,14,0,-39,-19,-39,19,58,39
19,9,-9,-14,14,0,-39,-19,-39,19,58,39
19,9,-9,-14,14,0,-39,-19,-39,19,58,39
19,9,-9,-14,14,0,-39,-19,-39,19,58,39
19,9,-9,-14,14,0,-39,-19,-39,19,58,39
19,9,-9,-14,14,0,-39,-14,-39,19,53,39
19,9,-9,-14,14,0,-39,-9,-39,19,48,39
19,9,-9,-14,14,0,-39,-9,-39,14,48,39
19,9,-9,-14,14,0,-39,-9,-39,9,48,39
24,9,-14,-17,19,-2,-39,-9,-39,9,48,39
29,9,-19,-19,24,-4,-39,-9,-39,9,48,39
29,9,-19,-19,24,-4,-39,-9,-39,14,48,39
29,9,-19,-19,24,-4,-39,-9,-39,19,48,39
29,9,-19,-19,24,-4,-39,-9,-39,19,48,39
29,9,-19,-19,24,-4,-39,-9,-39,19,48,39
29,9,-19,-19,24,-4,-39,-9,-39,19,48,39
29,9,-19,-19,24,-4,-39,-9,-39,19,48,39
29,14,-14,-21,21,0,-39,-14,-39,19,48,34
29,19,-9,-24,19,4,-39,-19,-39,19,48,29
29,19,-9,-24,19,4,-34,-19,-39,19,48,29
29,19,-9,-24,19,4,-29,-19,-39,19,48,29
29,19,-9,-24,19,4,-29,-14,-34,19,48,29
29,19,-9,-24,19,4,-29,-9,-29,19,48,29
29,19,-9,-24,19,4,-29,-9,-29,19,48,29
29,19,-9,-24,19,4,-29,-9,-29,19,48,29
29,19,-9,-24,19,4,-29,-9,-34,19,48,34
29,19,-9,-24,19,4,-29,-9,-39,19,48,39
29,19,-9,-24,19,4,-29,-9,-39,19,48,39
29,19,-9,-24,19,4,-29,-9,-39,19,48,39
29,19,-9,-24,19,4,-29,-9,-39,19,48,34
29,19,-9,-24,19,4,-29,-9,-39,19,48,29
29,19,-9,-24,19,4,-29,-9,-39,19,48,29
29,19,-9,-24,19,4,-29,-9,-39,19,48,29
29,19,-9,-24,19,4,-34,-9,-39,19,43,29
29,19,-9,-24,19,4,-39,-9,-39,19,39,29
29,19,-9,-24,19,4,-39,-9,-39,19,39,29
29,19,-9,-24,19,4,-39,-9,-39,19,39,29
29,19,-9,-24,19,4,-39,-9,-39,19,39,29
29,19,-9,-24,19,4,-39,-9,-39,19,39,29
24,19,-4,-21,14,7,-39,-9,-39,19,39,29
19,19,0,-19,9,9,-39,-9,-39,19,39,29
19,14,-4,-17,12,4,-39,-9,-39,19,39,29
24,14,-9,-19,17,2,-39,-4,-34,19,39,29
29,14,-14,-21,21,0,-39,-4,-34,24,43,34
34,29,-4,-31,19,12,-34,0,-24,29,48,34
39,34,-4,-36,21,14,-19,4,-19,39,58,43
39,48,9,-43,14,29,-4,19,-9,43,58,48
39,53,14,-46,12,34,0,29,-4,48,63,53
39,58,19,-48,9,39,4,29,0,53,68,53
39,58,19,-48,9,39,4,24,0,53,68,53
39,58,19,-48,9,39,0,14,0,53,68,53
39,58,19,-48,9,39,-14,4,0,48,68,53
43,58,14,-51,14,36,-29,-4,-4,48,68,53
53,63,9,-58,21,36,-48,-14,-14,43,73,58
58,78,19,-68,19,48,-63,-24,-14,43,78,63
73,97,24,-85,24,61,-73,-29,-14,53,82,63
63,102,39,-82,12,70,-82,-43,-29,43,82,73
58,102,43,-80,7,73,-92,-53,-34,39,73,63
53,97,43,-75,4,70,-92,-53,-34,39,68,63
63,97,34,-80,14,65,-92,-53,-29,39,68,73
82,102,19,-92,31,61,-92,-43,-29,48,73,82
92,102,9,-97,41,56,-97,-43,-34,39,73,73
97,102,4,-100,46,53,-97,-48,-39,29,68,73
97,87,-9,-92,53,39,-92,-53,-43,29,63,68
82,87,4,-85,39,46,-82,-53,-43,29,63,68
58,78,19,-68,19,48,-63,-43,-34,34,68,68
34,68,34,-51,0,51,-39,-19,-29,34,73,68
24,48,24,-36,0,36,-34,-29,-24,34,63,58
14,24,9,-19,2,17,-34,-29,-29,24,53,48
14,9,-4,-12,9,2,-34,-29,-39,9,39,39
14,0,-14,-7,14,-7,-39,-24,-48,4,24,34
14,-9,-24,-2,19,-17,-39,-34,-53,-4,19,29
9,-19,-29,4,19,-24,-43,-34,-53,-4,14,29
4,-19,-24,7,14,-21,-43,-34,-53,-4,14,24
4,-19,-24,7,14,-21,-39,-34,-53,-4,14,14
4,-14,-19,4,12,-17,-43,-34,-53,-4,19,14
0,-14,-14,7,7,-14,-48,-29,-48,0,19,14
0,-14,-14,7,7,-14,-43,-29,-43,0,19,19
0,-14,-14,7,7,-14,-43,-29,-43,0,24,19
0,-14,-14,7,7,-14,-39,-34,-43,0,24,24
0,-14,-14,7,7,-14,-34,-39,-43,4,24,29
0,-14,-14,7,7,-14,-29,-34,-43,4,24,29
0,-29,-29,14,14,-29,-14,-14,-39,4,19,24
9,-53,-63,21,36,-58,0,14,-39,4,9,9
48,-58,-107,4,78,-82,14,78,-14,29,34,14
117,-14,-131,-51,124,-73,39,190,78,131,126,92
287,112,-175,-200,231,-31,-4,292,204,331,351,302
566,439,-126,-502,346,156,-141,302,429,697,790,732
917,922,4,-919,456,463,-283,395,785,1249,1434,1346
1224,1439,214,-1332,505,827,-488,307,1049,1751,2059,1986
1444,2049,605,-1747,419,1327,-727,19,1215,2152,2605,2596
1517,2566,1049,-2042,234,1808,-897,-283,1327,2440,3035,3074
1229,2903,1673,-2066,-222,2288,-858,-541,1464,2659,3333,3391
1034,2825,1790,-1930,-378,2308,-951,-780,1298,2557,3284,3381
868,2249,1381,-1559,-256,1815,-1107,-1005,766,2030,2781,2928
605,1307,702,-956,-48,1005,-1073,-1161,73,1029,1629,1917
112,292,180,-202,-34,236,-790,-1200,-600,-161,185,473
-248,-200,48,224,-148,-75,-463,-956,-761,-629,-507,-322
-229,-268,-39,248,-95,-153,-273,-600,-580,-546,-507,-395
-185,-258,-73,222,-56,-165,-131,-356,-414,-405,-395,-326
-131,-209,-78,170,-26,-143,-63,-204,-297,-302,-302,-263
-112,-170,-58,141,-26,-114,-9,-107,-214,-224,-244,-229
-102,-126,-24,114,-39,-75,34,-48,-156,-170,-185,-190
-97,-97,0,97,-48,-48,58,-14,-122,-126,-151,-156
-82,-87,-4,85,-39,-46,63,9,-102,-112,-136,-141
-73,-82,-9,78,-31,-46,68,34,-82,-102,-126,-141
-73,-82,-9,78,-31,-46,73,48,-68,-92,-122,-141
-73,-82,-9,78,-31,-46,82,53,-58,-82,-117,-131
-63,-82,-19,73,-21,-51,82,63,-43,-78,-107,-122
-63,-82,-19,73,-21,-51,87,73,-39,-68,-97,-117
-63,-78,-14,70,-24,-46,92,82,-34,-63,-97,-117
-63,-73,-9,68,-26,-41,97,87,-29,-48,-87,-107
-63,-73,-9,68,-26,-41,97,92,-29,-43,-82,-107
-58,-73,-14,65,-21,-43,97,97,-19,-43,-82,-107
-58,-63,-4,61,-26,-34,97,102,-14,-39,-78,-107
-58,-63,-4,61,-26,-34,97,107,-14,-34,-73,-107
-58,-63,-4,61,-26,-34,102,112,-14,-34,-73,-102
-58,-68,-9,63,-24,-39,102,112,-4,-29,-68,-102
-53,-68,-14,61,-19,-41,107,117,-4,-24,-58,-102
-58,-63,-4,61,-26,-34,117,122,0,-19,-58,-107
-58,-58,0,58,-29,-29,122,131,4,-9,-53,-107
-58,-58,0,58,-29,-29,117,136,9,-4,-53,-107
-58,-53,4,56,-31,-24,117,136,9,-4,-53,-107
-53,-53,0,53,-26,-26,126,141,14,-9,-48,-107
-53,-48,4,51,-29,-21,126,146,14,-14,-48,-107
-48,-48,0,48,-24,-24,126,151,14,-9,-48,-102
-48,-43,4,46,-26,-19,126,151,14,-9,-48,-92
-48,-43,4,46,-26,-19,126,156,19,0,-48,-92
-43,-39,4,41,-24,-17,131,156,24,0,-48,-87
-43,-39,4,41,-24,-17,131,161,29,0,-39,-82
-39,-34,4,36,-21,-14,131,170,29,4,-39,-82
-39,-34,4,36,-21,-14,131,170,34,4,-39,-82
-34,-34,0,34,-17,-17,131,170,34,4,-39,-87
-34,-34,0,34,-17,-17,131,175,29,4,-39,-87
-39,-39,0,39,-19,-19,136,180,29,4,-39,-87
-39,-39,0,39,-19,-19,136,185,34,0,-39,-87
-39,-43,-4,41,-17,-24,136,185,34,0,-39,-82
-43,-39,4,41,-24,-17,141,185,34,0,-43,-87
-48,-34,14,41,-31,-9,141,185,29,0,-48,-87
-53,-29,24,41,-39,-2,141,180,29,0,-53,-97
-53,-29,24,41,-39,-2,141,175,29,-9,-58,-112
-53,-34,19,43,-36,-7,141,175,34,-9,-58,-112
-58,-39,19,48,-39,-9,136,175,34,-9,-63,-117
-63,-34,29,48,-46,-2,136,170,29,-9,-63,-117
-63,-34,29,48,-46,-2,136,170,29,-24,-78,-117
-68,-39,29,53,-48,-4,141,170,19,-34,-87,-122
-73,-43,29,58,-51,-7,146,170,14,-39,-92,-122
-82,-43,39,63,-61,-2,146,175,19,-39,-107,-131
-82,-43,39,63,-61,-2,146,180,19,-39,-117,-141
-82,-43,39,63,-61,-2,151,180,14,-53,-126,-156
-92,-48,43,70,-68,-2,156,185,9,-68,-141,-170
-102,-53,48,78,-75,-2,161,180,-4,-82,-156,-180
-107,-63,43,85,-75,-9,161,170,-14,-97,-170,-204
-117,-68,48,92,-82,-9,165,165,-29,-117,-190,-209
-126,-68,58,97,-92,-4,170,165,-43,-131,-209,-224
-141,-78,63,109,-102,-7,175,161,-53,-156,-234,-244
-156,-87,68,122,-112,-9,180,151,-63,-185,-263,-278
-175,-107,68,141,-122,-19,190,141,-87,-204,-297,-307
-190,-126,63,158,-126,-31,190,122,-107,-239,-331,-341
-204,-146,58,175,-131,-43,200,102,-126,-273,-370,-380
-224,-165,58,195,-141,-53,204,92,-151,-317,-405,-419
-244,-185,58,214,-151,-63,204,73,-185,-356,-439,-458
-263,-214,48,239,-156,-82,204,43,-214,-395,-483,-502
-287,-234,53,261,-170,-90,209,29,-244,-429,-531,-541
-307,-258,48,283,-178,-104,209,0,-273,-463,-575,-580
-336,-283,53,309,-195,-114,214,-29,-302,-512,-624,-619
-351,-317,34,334,-192,-141,214,-58,-336,-551,-663,-663
-366,-336,29,351,-197,-153,209,-82,-366,-595,-712,-697
-390,-366,24,378,-207,-170,209,-102,-395,-629,-746,-732
-400,-380,19,390,-209,-180,209,-131,-424,-663,-785,-761
-414,-405,9,409,-212,-197,209,-156,-448,-692,-819,-790
-414,-419,-4,417,-204,-212,204,-170,-458,-717,-834,-814
-414,-429,-14,422,-200,-222,200,-190,-473,-732,-849,-829
-414,-439,-24,427,-195,-231,195,-200,-483,-741,-863,-839
-409,-439,-29,424,-190,-234,190,-209,-488,-741,-863,-839
-400,-439,-39,419,-180,-239,180,-209,-488,-741,-863,-829
-385,-439,-53,412,-165,-246,175,-214,-483,-736,-849,-814
-366,-439,-73,402,-146,-256,161,-209,-478,-712,-824,-790
-346,-424,-78,385,-134,-251,151,-204,-463,-688,-800,-766
-326,-414,-87,370,-119,-251,141,-200,-444,-653,-761,-732
-307,-390,-82,348,-112,-236,131,-190,-414,-619,-717,-688
-283,-370,-87,326,-97,-229,117,-175,-395,-575,-673,-644
-258,-346,-87,302,-85,-217,102,-170,-366,-531,-614,-595
-229,-317,-87,273,-70,-202,92,-161,-331,-483,-561,-541
-204,-292,-87,248,-58,-190,82,-146,-307,-439,-507,-492
-175,-268,-92,222,-41,-180,68,-122,-278,-390,-448,-439
-151,-234,-82,192,-34,-158,53,-112,-244,-336,-395,-380
-126,-209,-82,168,-21,-146,39,-102,-219,-292,-346,-351
-102,-180,-78,141,-12,-129,29,-92,-195,-248,-287,-307
-82,-156,-73,119,-4,-114,19,-78,-165,-204,-234,-258
-63,-131,-68,97,2,-100,14,-63,-141,-161,-190,-219
-53,-112,-58,82,2,-85,9,-53,-122,-136,-161,-175
-34,-92,-58,63,12,-75,4,-43,-97,-107,-126,-141
-19,-78,-58,48,19,-68,-4,-34,-78,-73,-87,-107
-9,-58,-48,34,19,-53,-9,-24,-58,-48,-53,-73
0,-39,-39,19,19,-39,-4,-14,-43,-24,-29,-48
9,-19,-29,4,19,-24,-4,-4,-24,0,-4,-14
24,-14,-39,-4,31,-26,-9,0,-14,24,24,4
24,-4,-29,-9,26,-17,-9,4,-4,43,39,24
19,4,-14,-12,17,-4,-9,9,4,53,53,43
24,9,-14,-17,19,-2,-9,9,19,63,63,48
34,14,-19,-24,26,-2,-9,19,29,78,78,63
34,24,-9,-29,21,7,-9,19,39,82,82,63
34,29,-4,-31,19,12,-9,19,43,87,92,73
34,34,0,-34,17,17,-9,19,48,97,92,73
34,34,0,-34,17,17,-9,24,48,107,102,78
34,43,9,-39,12,26,-9,24,53,112,102,78
34,43,9,-39,12,26,-9,34,53,117,107,82
34,43,9,-39,12,26,-4,39,58,117,107,87
34,43,9,-39,12,26,-4,43,58,112,107,87
34,43,9,-39,12,26,0,43,58,107,112,87
29,43,14,-36,7,29,0,48,53,107,112,87
29,39,9,-34,9,24,0,53,53,107,102,78
29,39,9,-34,9,24,4,53,53,107,102,78
29,43,14,-36,7,29,4,53,53,107,102,78
24,43,19,-34,2,31,4,58,53,107,102,78
19,39,19,-29,0,29,9,58,53,107,97,73
19,19,0,-19,9,9,14,63,58,107,78,63
14,9,-4,-12,9,2,19,63,58,97,73,53
14,4,-9,-9,12,-2,24,63,58,92,68,48
9,4,-4,-7,7,0,24,63,58,87,68,48
9,9,0,-9,4,4,29,63,48,78,58,43
4,4,0,-4,2,2,29,63,43,78,58,39
4,0,-4,-2,4,-2,29,58,34,73,58,29
0,-4,-4,2,2,-4,29,53,34,73,43,24
0,-4,-4,2,2,-4,29,43,29,63,39,24
0,-4,-4,2,2,-4,29,39,29,58,34,9
0,-9,-9,4,4,-9,29,34,24,48,29,14
0,-19,-19,9,9,-19,29,34,19,43,24,9
0,-19,-19,9,9,-19,24,29,14,39,14,4
-4,-19,-14,12,4,-17,19,29,9,39,9,4
-4,-19,-14,12,4,-17,19,24,9,34,4,0
-4,-24,-19,14,7,-21,19,24,4,19,4,-4
-9,-29,-19,19,4,-24,14,19,-4,19,0,-14
-9,-39,-29,24,9,-34,14,14,-9,14,-4,-19
-14,-39,-24,26,4,-31,14,14,-14,9,-9,-24
-14,-39,-24,26,4,-31,14,14,-19,9,-14,-24
-14,-43,-29,29,7,-36,14,9,-19,0,-19,-34
-4,-48,-43,26,19,-46,9,9,-24,-9,-24,-39
-4,-48,-43,26,19,-46,9,9,-24,-9,-19,-39
-4,-48,-43,26,19,-46,9,9,-24,-9,-19,-39
-4,-48,-43,26,19,-46,9,4,-29,-9,-19,-39
-4,-53,-48,29,21,-51,9,0,-29,-9,-19,-39
-4,-53,-48,29,21,-51,9,0,-29,-9,-19,-39
-4,-53,-48,29,21,-51,9,0,-29,-9,-19,-39
-4,-53,-48,29,21,-51,4,4,-29,-9,-19,-39
-4,-48,-43,26,19,-46,4,4,-24,-9,-19,-39
-4,-43,-39,24,17,-41,4,4,-24,-14,-24,-34
-4,-43,-39,24,17,-41,4,4,-24,-14,-24,-29
-4,-48,-43,26,19,-46,4,4,-24,-14,-24,-29
0,-48,-48,24,24,-48,4,0,-24,-14,-24,-29
0,-43,-43,21,21,-43,0,0,-29,-9,-24,-29
0,-43,-43,21,21,-43,0,0,-29,-9,-19,-29
0,-43,-43,21,21,-43,0,0,-29,-9,-19,-29
0,-43,-43,21,21,-43,4,0,-29,-9,-14,-29
0,-48,-48,24,24,-48,4,0,-24,-4,-14,-24
0,-53,-53,26,26,-53,9,0,-24,-4,-14,-24
4,-53,-58,24,31,-56,9,0,-24,0,-14,-19
4,-48,-53,21,29,-51,4,0,-24,4,-14,-19
0,-43,-43,21,21,-43,4,0,-24,4,-9,-19
0,-43,-43,21,21,-43,4,0,-24,9,-9,-14
4,-48,-53,21,29,-51,4,0,-24,9,-9,-14
4,-48,-53,21,29,-51,4,-4,-24,9,-9,-14
4,-43,-48,19,26,-46,0,-4,-24,9,-4,-14
9,-43,-53,17,31,-48,0,-4,-24,9,-4,-14
9,-43,-53,17,31,-48,-4,-4,-24,9,0,-9
9,-43,-53,17,31,-48,-4,-4,-24,9,0,0
9,-48,-58,19,34,-53,-4,-4,-24,14,0,0
4,-48,-53,21,29,-51,-4,-4,-24,19,4,0
4,-48,-53,21,29,-51,-4,-4,-24,19,4,4
9,-48,-58,19,34,-53,0,0,-19,24,9,9
9,-43,-53,17,31,-48,0,0,-19,24,14,14
9,-39,-48,14,29,-43,0,0,-19,29,19,19
9,-39,-48,14,29,-43,0,0,-14,29,19,19
9,-39,-48,14,29,-43,0,0,-9,29,19,19
9,-43,-53,17,31,-48,0,0,-9,29,19,19
9,-48,-58,19,34,-53,0,0,-9,29,19,19
9,-48,-58,19,34,-53,-4,0,-9,29,19,19
9,-48,-58,19,34,-53,-9,0,-9,29,19,19
9,-48,-58,19,34,-53,-9,0,-9,29,19,19
9,-48,-58,19,34,-53,-9,0,-9,29,19,19
9,-48,-58,19,34,-53,-4,0,-9,29,14,19
9,-48,-58,19,34,-53,0,0,-9,29,9,19
9,-48,-58,19,34,-53,0,0,-9,29,9,19
9,-48,-58,19,34,-53,0,0,-9,29,9,19
9,-48,-58,19,34,-53,0,0,-9,29,9,19
9,-48,-58,19,34,-53,0,0,-9,29,9,19
9,-48,-58,19,34,-53,0,0,-9,29,9,19
9,-48,-58,19,34,-53,0,0,-9,29,9,19
9,-48,-58,19,34,-53,0,0,-9,34,14,19
9,-48,-58,19,34,-53,0,0,-9,39,19,19
9,-48,-58,19,34,-53,-4,0,-9,39,19,24
9,-48,-58,19,34,-53,-9,0,-9,39,19,29
9,-48,-58,19,34,-53,-9,0,-9,39,19,29
9,-48,-58,19,34,-53,-9,0,-9,39,19,29
9,-48,-58,19,34,-53,-9,0,-9,34,19,29
9,-48,-58,19,34,-53,-9,0,-9,29,19,29
9,-48,-58,19,34,-53,-4,0,-9,29,19,29
9,-48,-58,19,34,-53,0,0,-9,29,19,29
9,-48,-58,19,34,-53,0,0,-9,29,19,29
9,-48,-58,19,34,-53,0,0,-9,29,19,29
9,-43,-53,17,31,-48,0,0,-9,29,19,29
9,-39,-48,14,29,-43,0,0,-9,29,19,29
9,-39,-48,14,29,-43,0,0,-9,34,19,29
9,-39,-48,14,29,-43,0,0,-9,39,19,29
9,-39,-48,14,29,-43,0,0,-9,39,19,29
9,-39,-48,14,29,-43,0,0,-9,39,19,29
9,-39,-48,14,29,-43,-4,0,-9,39,19,29
9,-39,-48,14,29,-43,-9,0,-9,39,19,29
9,-39,-48,14,29,-43,-9,0,-9,39,19,29
9,-39,-48,14,29,-43,-9,0,-9,39,19,29
9,-34,-43,12,26,-39,-9,-4,-9,39,19,29
9,-29,-39,9,24,-34,-9,-9,-9,39,19,29
9,-29,-39,9,24,-34,-9,-9,-9,39,19,29
9,-29,-39,9,24,-34,-9,-9,-9,39,19,29
14,-29,-43,7,29,-36,-9,-4,-9,39,19,29
19,-29,-48,4,34,-39,-9,0,-9,39,19,29
19,-29,-48,4,34,-39,-9,0,-9,39,19,29
19,-29,-48,4,34,-39,-9,0,-9,39,19,29
19,-34,-53,7,36,-43,-9,0,-9,39,19,29
19,-39,-58,9,39,-48,-9,0,-9,39,19,29
14,-39,-53,12,34,-46,-9,0,-9,39,19,29
9,-39,-48,14,29,-43,-9,0,-9,39,19,29
9,-39,-48,14,29,-43,-9,0,-9,39,19,29
9,-39,-48,14,29,-43,-9,0,-9,39,19,29
9,-39,-48,14,29,-43,-9,0,-9,39,19,29
9,-39,-48,14,29,-43,-9,0,-9,39,19,29
9,-39,-48,14,29,-43,-4,0,-9,39,19,29
9,-39,-48,14,29,-43,0,0,-9,39,19,29
9,-39,-48,14,29,-43,0,0,-9,39,19,29
9,-39,-48,14,29,-43,0,0,-9,39,19,29
14,-43,-58,14,36,-51,0,0,-9,39,19,29
19,-48,-68,14,43,-58,0,0,-9,39,19,29
19,-48,-68,14,43,-58,0,0,-9,39,19,29
19,-48,-68,14,43,-58,0,0,-9,39,19,29
19,-48,-68,14,43,-58,0,0,-9,39,19,29
19,-48,-68,14,43,-58,0,0,-9,39,19,29
19,-48,-68,14,43,-58,0,0,-9,39,19,29
19,-48,-68,14,43,-58,0,0,-9,39,19,29
19,-43,-63,12,41,-53,0,0,-9,39,19,29
19,-39,-58,9,39,-48,0,0,-9,39,19,29
14,-39,-53,12,34,-46,0,0,-9,39,14,29
9,-39,-48,14,29,-43,0,0,-9,39,9,29
9,-39,-48,14,29,-43,0,0,-9,39,9,29
9,-34,-43,12,26,-39,0,0,-9,39,9,29
9,-34,-43,12,26,-39,0,0,-9,43,14,34
14,-34,-48,9,31,-41,0,4,-4,43,14,34
14,-19,-34,2,24,-26,4,9,4,48,19,34
19,-14,-34,-2,26,-24,14,14,9,58,29,43
19,0,-19,-9,19,-9,24,29,19,63,29,48
19,4,-14,-12,17,-4,29,39,24,68,34,53
19,9,-9,-14,14,0,34,39,29,73,39,53
19,9,-9,-14,14,0,34,34,29,73,39,53
19,9,-9,-14,14,0,29,29,29,73,39,53
19,9,-9,-14,14,0,14,24,29,68,39,53
24,9,-14,-17,19,-2,0,14,29,68,39,53
34,14,-19,-24,26,-2,-19,4,24,63,39,53
43,29,-14,-36,29,7,-34,-4,24,63,39,53
63,48,-14,-56,39,17,-43,-9,24,73,43,53
53,53,0,-53,26,26,-53,-24,9,63,43,63
53,53,0,-53,26,26,-63,-34,4,58,39,53
53,48,-4,-51,29,21,-63,-34,4,58,39,53
63,48,-14,-56,39,17,-63,-34,9,58,39,63
82,53,-29,-68,56,12,-63,-24,4,68,43,68
87,53,-34,-70,61,9,-68,-24,-4,58,43,53
87,58,-29,-73,58,14,-68,-29,-9,48,43,53
87,48,-39,-68,63,4,-63,-29,-14,48,43,48
73,48,-24,-61,48,12,-53,-24,-9,53,43,53
48,34,-14,-41,31,9,-34,-14,4,63,43,58
19,14,-4,-17,12,4,-9,9,9,63,43,58
4,-9,-14,2,9,-12,-4,0,9,63,34,43
-4,-34,-29,19,12,-31,-4,0,0,53,24,29
-4,-43,-39,24,17,-41,-4,-4,-9,39,14,19
-4,-43,-39,24,17,-41,-9,-4,-19,34,4,14
0,-48,-48,24,24,-48,-9,-14,-24,24,0,9
0,-58,-58,29,29,-58,-14,-14,-24,24,-9,9
-4,-58,-53,31,24,-56,-14,-14,-24,24,-14,9
-4,-63,-58,34,26,-61,-9,-14,-24,19,-14,4
-4,-63,-58,34,26,-61,-9,-14,-24,14,-9,4
-4,-68,-63,36,29,-65,-9,-9,-19,19,-9,4
0,-73,-73,36,36,-73,-4,-9,-14,19,-9,9
0,-73,-73,36,36,-73,-4,-9,-14,19,-4,9
0,-73,-73,36,36,-73,-4,-9,-14,19,-4,9
-4,-68,-63,36,29,-65,-4,-9,-14,24,-4,9
-9,-63,-53,36,21,-58,0,-4,-14,24,-4,9
-9,-78,-68,43,29,-73,14,14,-9,24,-9,4
0,-97,-97,48,48,-97,29,43,-4,24,-19,-4
43,-102,-146,29,95,-124,48,112,24,48,0,0
122,-63,-185,-29,153,-124,78,229,122,156,92,78
302,63,-239,-183,270,-87,34,341,253,361,317,287
585,390,-195,-488,390,97,-102,366,478,727,751,717
951,873,-78,-912,514,397,-244,463,839,1273,1381,1312
1273,1390,117,-1332,578,753,-448,375,1098,1766,1991,1927
1498,1995,497,-1747,500,1246,-688,87,1263,2161,2527,2522
1561,2493,932,-2027,314,1712,-844,-190,1385,2449,2937,2976
1259,2815,1556,-2037,-148,2186,-800,-424,1522,2674,3225,3298
1063,2727,1664,-1895,-300,2196,-893,-688,1356,2557,3167,3289
878,2156,1278,-1517,-200,1717,-1039,-951,819,2010,2688,2840
595,1239,644,-917,-24,941,-1019,-1122,122,1024,1571,1839
97,234,136,-165,-19,185,-751,-1161,-551,-136,141,409
-268,-248,19,258,-143,-114,-429,-922,-712,-585,-522,-341
-248,-302,-53,275,-97,-178,-244,-570,-536,-497,-507,-395
-204,-287,-82,246,-61,-185,-102,-326,-375,-356,-395,-326
-156,-239,-82,197,-36,-161,-34,-175,-263,-258,-307,-263
-141,-200,-58,170,-41,-129,19,-78,-180,-185,-253,-219
-131,-161,-29,146,-51,-95,68,-19,-117,-131,-195,-170
-122,-131,-9,126,-56,-70,92,14,-82,-87,-161,-136
-102,-122,-19,112,-41,-70,92,43,-63,-73,-146,-126
-92,-122,-29,107,-31,-75,97,73,-43,-58,-131,-126
-92,-122,-29,107,-31,-75,102,87,-29,-43,-126,-122
-92,-122,-29,107,-31,-75,112,92,-24,-34,-126,-112
-78,-122,-43,100,-17,-82,117,102,-9,-29,-117,-102
-73,-122,-48,97,-12,-85,126,112,0,-19,-107,-97
-73,-117,-43,95,-14,-80,131,122,4,-14,-107,-97
-73,-112,-39,92,-17,-75,136,126,9,-4,-97,-87
-73,-107,-34,90,-19,-70,136,131,9,-4,-92,-87
-68,-102,-34,85,-17,-68,136,136,19,-4,-92,-87
-68,-92,-24,80,-21,-58,136,141,24,-4,-87,-87
-68,-92,-24,80,-21,-58,136,146,24,-4,-82,-87
-68,-92,-24,80,-21,-58,141,156,19,-4,-82,-82
-68,-92,-24,80,-21,-58,141,161,24,0,-82,-82
-63,-87,-24,75,-19,-56,146,165,24,4,-78,-82
-63,-82,-19,73,-21,-51,151,165,24,4,-78,-87
-58,-78,-19,68,-19,-48,151,170,29,9,-78,-87
-58,-78,-19,68,-19,-48,146,175,39,14,-82,-87
-58,-73,-14,65,-21,-43,146,175,39,19,-82,-82
-53,-73,-19,63,-17,-46,156,180,48,24,-78,-78
-58,-68,-9,63,-24,-39,156,185,53,24,-78,-78
-58,-68,-9,63,-24,-39,156,190,53,29,-78,-78
-58,-63,-4,61,-26,-34,156,190,53,29,-78,-73
-58,-63,-4,61,-26,-34,156,195,53,39,-78,-73
-53,-58,-4,56,-24,-31,161,195,53,39,-73,-73
-53,-58,-4,56,-24,-31,161,200,58,39,-58,-73
-48,-53,-4,51,-21,-29,161,209,58,43,-58,-73
-48,-53,-4,51,-21,-29,161,209,63,43,-58,-68
-43,-53,-9,48,-17,-31,161,209,63,43,-58,-68
-43,-53,-9,48,-17,-31,161,214,63,43,-58,-68
-48,-53,-4,51,-21,-29,165,219,63,43,-58,-68
-48,-48,0,48,-24,-24,165,224,63,39,-58,-73
-48,-53,-4,51,-21,-29,165,224,63,39,-58,-73
-53,-53,0,53,-26,-26,170,224,63,39,-63,-78
-58,-58,0,58,-29,-29,170,219,58,34,-73,-78
-63,-58,4,61,-34,-26,170,214,58,29,-82,-82
-63,-58,4,61,-34,-26,170,214,58,19,-87,-92
-63,-58,4,61,-34,-26,175,214,63,19,-87,-92
-68,-58,9,63,-39,-24,175,214,63,19,-92,-97
-73,-53,19,63,-46,-17,175,209,58,19,-92,-102
-73,-53,19,63,-46,-17,175,209,58,4,-102,-107
-73,-53,19,63,-46,-17,175,209,48,-4,-107,-112
-73,-48,24,61,-48,-12,175,214,43,-9,-112,-112
-82,-43,39,63,-61,-2,175,219,43,-9,-122,-122
-82,-43,39,63,-61,-2,175,219,39,-4,-136,-126
-87,-43,43,65,-65,0,180,219,34,-14,-156,-131
-102,-48,53,75,-78,2,185,219,29,-29,-170,-141
-112,-53,58,82,-85,2,190,214,19,-43,-185,-151
-117,-58,58,87,-87,0,190,209,14,-58,-200,-175
-126,-63,63,95,-95,0,195,204,0,-78,-219,-185
-136,-68,68,102,-102,0,200,209,-14,-92,-239,-204
-151,-78,73,114,-112,-2,204,209,-24,-117,-263,-224
-165,-87,78,126,-122,-4,209,200,-34,-146,-292,-258
-185,-107,78,146,-131,-14,219,190,-58,-165,-326,-287
-204,-126,78,165,-141,-24,214,165,-78,-204,-361,-326
-224,-146,78,185,-151,-34,219,141,-97,-239,-400,-366
-244,-161,82,202,-163,-39,224,126,-122,-278,-429,-400
-263,-175,87,219,-175,-43,224,102,-156,-317,-463,-439
-283,-204,78,244,-180,-63,224,73,-185,-356,-512,-483
-307,-229,78,268,-192,-75,229,58,-214,-395,-561,-522
-326,-258,68,292,-197,-95,229,29,-239,-429,-605,-551
-356,-283,73,319,-214,-104,234,0,-263,-473,-653,-585
-370,-317,53,344,-212,-131,234,-29,-297,-512,-692,-634
-385,-331,53,358,-219,-139,229,-53,-326,-556,-741,-673
-409,-356,53,383,-231,-151,229,-73,-356,-590,-775,-712
-419,-370,48,395,-234,-161,229,-102,-385,-624,-814,-741
-434,-395,39,414,-236,-178,229,-126,-409,-653,-849,-771
-439,-409,29,424,-234,-190,224,-141,-424,-678,-863,-795
-444,-419,24,431,-234,-197,219,-161,-444,-697,-878,-814
-444,-434,9,439,-226,-212,214,-170,-453,-712,-897,-829
-439,-439,0,439,-219,-219,209,-180,-458,-712,-902,-829
-429,-439,-9,434,-209,-224,200,-180,-458,-712,-902,-824
-414,-439,-24,427,-195,-231,195,-185,-453,-707,-888,-814
-395,-439,-43,417,-175,-241,180,-185,-448,-688,-863,-790
-370,-424,-53,397,-158,-239,170,-185,-439,-668,-839,-766
-346,-414,-68,380,-139,-241,161,-180,-424,-639,-800,-732
-326,-390,-63,358,-131,-226,146,-170,-395,-610,-761,-692
-302,-370,-68,336,-117,-219,131,-156,-375,-566,-722,-653
-278,-346,-68,312,-104,-207,122,-151,-346,-522,-668,-605
-248,-317,-68,283,-90,-192,112,-141,-312,-473,-619,-551
-224,-292,-68,258,-78,-180,102,-131,-287,-429,-566,-502
-195,-268,-73,231,-61,-170,87,-112,-258,-380,-507,-448
-170,-234,-63,202,-53,-148,73,-102,-224,-331,-458,-390
-146,-209,-63,178,-41,-136,58,-92,-200,-292,-414,-346
-122,-180,-58,151,-31,-119,48,-82,-175,-248,-356,-292
-102,-156,-53,129,-24,-104,39,-68,-146,-204,-302,-248
-78,-131,-53,104,-12,-92,29,-53,-126,-161,-258,-209
-63,-107,-43,85,-9,-75,19,-43,-112,-131,-224,-165
-43,-82,-39,63,-2,-61,14,-34,-87,-102,-185,-136
-29,-68,-39,48,4,-53,4,-24,-68,-68,-146,-107
-19,-48,-29,34,4,-39,0,-14,-48,-43,-117,-78
-9,-29,-19,19,4,-24,0,-4,-34,-24,-97,-63
0,-9,-9,4,4,-9,-4,4,-14,0,-73,-34
14,-4,-19,-4,17,-12,-9,9,-4,19,-43,-14
14,4,-9,-9,12,-2,-9,14,4,39,-24,9
14,14,0,-14,7,7,-9,19,14,53,-4,34
24,19,-4,-21,14,7,-9,19,29,63,4,39
34,24,-9,-29,21,7,-9,29,34,78,19,58
34,34,0,-34,17,17,-9,29,39,78,19,63
34,39,4,-36,14,21,-9,34,43,78,24,73
34,39,4,-36,14,21,-9,39,48,87,24,73
34,34,0,-34,17,17,-9,43,48,92,34,78
34,43,9,-39,12,26,-9,43,53,92,34,73
34,43,9,-39,12,26,-9,48,58,97,39,73
34,43,9,-39,12,26,-4,48,68,97,39,78
34,43,9,-39,12,26,-4,53,68,97,39,78
34,39,4,-36,14,21,0,53,68,97,43,82
29,39,9,-34,9,24,0,58,63,97,43,87
29,39,9,-34,9,24,-4,58,63,97,34,78
29,39,9,-34,9,24,-4,53,63,97,34,78
29,43,14,-36,7,29,-4,53,63,92,34,78
29,43,14,-36,7,29,-4,58,63,87,34,78
29,39,9,-34,9,24,0,58,63,87,29,73
29,29,0,-29,14,14,0,63,63,87,14,63
24,29,4,-26,9,17,0,63,58,78,14,53
24,24,0,-24,12,12,4,63,58,78,9,48
19,24,4,-21,7,14,4,63,58,78,14,48
19,24,4,-21,7,14,9,63,53,68,9,43
14,14,0,-14,7,7,4,63,53,73,9,39
14,9,-4,-12,9,2,0,58,43,68,9,34
4,4,0,-4,2,2,0,53,43,63,-9,34
0,4,4,-2,-2,4,0,48,39,53,-19,34
0,4,4,-2,-2,4,0,48,39,48,-24,19
0,0,0,0,0,0,0,43,34,43,-29,19
0,-9,-9,4,4,-9,0,43,29,43,-34,9
0,-9,-9,4,4,-9,0,39,24,39,-43,4
-4,-9,-4,7,0,-7,0,39,19,39,-48,4
-4,-9,-4,7,0,-7,0,34,19,34,-53,0
0,-9,-9,4,4,-9,0,34,14,19,-53,-4
0,-9,-9,4,4,-9,-4,29,9,19,-53,-9
0,-19,-19,9,9,-19,-4,19,9,14,-53,-9
-4,-19,-14,12,4,-17,-4,14,4,9,-58,-14
-4,-19,-14,12,4,-17,-4,14,-4,9,-58,-14
-4,-19,-14,12,4,-17,-4,9,-9,4,-58,-19
4,-19,-24,7,14,-21,-9,9,-14,0,-63,-19
4,-19,-24,7,14,-21,-9,9,-14,0,-63,-19
4,-19,-24,7,14,-21,-9,9,-9,0,-68,-19
4,-19,-24,7,14,-21,-9,4,-9,0,-68,-19
4,-24,-29,9,17,-26,-9,0,-9,0,-68,-19
4,-24,-29,9,17,-26,-9,0,-9,0,-68,-19
4,-24,-29,9,17,-26,-9,0,-9,-4,-68,-19
4,-24,-29,9,17,-26,-14,0,-14,-9,-68,-19
4,-19,-24,7,14,-21,-19,-4,-19,-9,-68,-19
4,-19,-24,7,14,-21,-24,-4,-24,-14,-68,-19
4,-24,-29,9,17,-26,-24,-4,-24,-14,-63,-19
4,-29,-34,12,19,-31,-24,-4,-24,-14,-63,-19
9,-29,-39,9,24,-34,-24,-9,-19,-14,-63,-19
9,-24,-34,7,21,-29,-29,-9,-19,-9,-63,-19
9,-24,-34,7,21,-29,-29,-9,-19,-9,-58,-19
9,-24,-34,7,21,-29,-34,-9,-19,-9,-58,-19
9,-24,-34,7,21,-29,-34,-9,-19,-9,-53,-19
9,-24,-34,7,21,-29,-34,-9,-14,-4,-53,-14
9,-24,-34,7,21,-29,-29,-9,-14,-4,-53,-14
14,-24,-39,4,26,-31,-29,-9,-14,-4,-53,-9
14,-24,-39,4,26,-31,-34,-9,-14,-4,-53,-9
9,-24,-34,7,21,-29,-34,-9,-14,-4,-48,-9
9,-24,-34,7,21,-29,-39,-14,-14,0,-48,-4
14,-29,-43,7,29,-36,-43,-19,-14,0,-48,-4
14,-29,-43,7,29,-36,-43,-24,-19,0,-53,-4
14,-24,-39,4,26,-31,-48,-24,-24,0,-53,-4
19,-24,-43,2,31,-34,-48,-24,-24,0,-53,-4
19,-24,-43,2,31,-34,-48,-24,-24,0,-48,-4
19,-19,-39,0,29,-29,-43,-19,-19,0,-48,0
19,-19,-39,0,29,-29,-43,-14,-14,0,-48,0
14,-19,-34,2,24,-26,-43,-14,-14,0,-43,0
19,-19,-39,0,29,-29,-48,-19,-14,0,-43,4
19,-14,-34,-2,26,-24,-43,-19,-9,4,-39,4
19,-14,-34,-2,26,-24,-43,-19,-9,9,-34,4
19,-9,-29,-4,24,-19,-43,-19,-9,9,-34,4
19,-9,-29,-4,24,-19,-48,-19,-9,9,-39,9
19,-9,-29,-4,24,-19,-48,-19,-9,9,-39,9
19,-9,-29,-4,24,-19,-48,-19,-9,9,-39,9
19,-14,-34,-2,26,-24,-48,-19,-9,9,-39,9
19,-19,-39,0,29,-29,-48,-19,-9,9,-39,9
19,-19,-39,0,29,-29,-48,-19,-9,14,-34,9
19,-19,-39,0,29,-29,-48,-19,-9,19,-29,9
19,-19,-39,0,29,-29,-48,-19,-9,19,-29,9
19,-19,-39,0,29,-29,-48,-19,-9,19,-29,9
19,-19,-39,0,29,-29,-48,-19,-9,19,-29,14
19,-19,-39,0,29,-29,-48,-19,-9,19,-29,19
19,-19,-39,0,29,-29,-48,-19,-9,19,-29,19
19,-19,-39,0,29,-29,-48,-19,-9,19,-29,19
19,-19,-39,0,29,-29,-48,-19,-14,14,-29,19
19,-19,-39,0,29,-29,-48,-19,-19,9,-29,19
19,-14,-34,-2,26,-24,-53,-24,-19,9,-29,19
19,-9,-29,-4,24,-19,-58,-29,-19,9,-29,19
19,-9,-29,-4,24,-19,-58,-29,-19,19,-29,19
19,-9,-29,-4,24,-19,-58,-29,-19,29,-29,19
19,-9,-29,-4,24,-19,-53,-29,-19,14,-29,19
19,-9,-29,-4,24,-19,-48,-29,-19,0,-29,19
19,-14,-34,-2,26,-24,-48,-29,-14,9,-29,19
19,-19,-39,0,29,-29,-48,-29,-9,19,-29,19
24,-19,-43,-2,34,-31,-48,-29,-9,19,-29,19
29,-19,-48,-4,39,-34,-48,-29,-9,19,-29,19
29,-19,-48,-4,39,-34,-53,-34,-9,19,-29,19
29,-19,-48,-4,39,-34,-58,-39,-9,19,-29,19
29,-19,-48,-4,39,-34,-58,-39,-9,19,-24,24
29,-19,-48,-4,39,-34,-58,-39,-9,19,-19,29
29,-19,-48,-4,39,-34,-58,-39,-9,19,-19,29
29,-19,-48,-4,39,-34,-58,-39,-9,19,-19,29
24,-14,-39,-4,31,-26,-58,-39,-9,19,-19,29
19,-9,-29,-4,24,-19,-58,-39,-9,19,-19,29
19,-9,-29,-4,24,-19,-58,-39,-9,19,-19,24
19,-9,-29,-4,24,-19,-58,-39,-9,19,-19,19
19,-9,-29,-4,24,-19,-58,-39,-9,14,-24,19
19,-9,-29,-4,24,-19,-58,-39,-9,9,-29,19
19,-9,-29,-4,24,-19,-63,-39,-9,9,-29,19
19,-9,-29,-4,24,-19,-68,-39,-9,9,-29,19
19,-9,-29,-4,24,-19,-68,-39,-9,9,-29,19
19,-9,-29,-4,24,-19,-68,-39,-9,9,-29,19
19,-9,-29,-4,24,-19,-68,-39,-9,9,-29,19
19,-9,-29,-4,24,-19,-68,-39,-9,9,-29,19
19,-9,-29,-4,24,-19,-68,-39,-9,9,-29,19
19,-9,-29,-4,24,-19,-68,-39,-9,9,-29,19
19,-14,-34,-2,26,-24,-68,-39,-9,9,-29,19
19,-19,-39,0,29,-29,-68,-39,-9,9,-29,19
19,-19,-39,0,29,-29,-68,-39,-9,9,-24,19
19,-19,-39,0,29,-29,-68,-39,-9,9,-19,19
19,-19,-39,0,29,-29,-68,-39,-9,9,-19,19
19,-19,-39,0,29,-29,-68,-39,-9,9,-19,19
24,-19,-43,-2,34,-31,-68,-39,-9,9,-29,19
29,-19,-48,-4,39,-34,-68,-39,-9,9,-39,19
29,-14,-43,-7,36,-29,-68,-43,-14,9,-29,19
29,-9,-39,-9,34,-24,-68,-48,-19,9,-19,19
29,-9,-39,-9,34,-24,-68,-48,-19,9,-19,19
29,-9,-39,-9,34,-24,-68,-48,-19,9,-19,19
29,-9,-39,-9,34,-24,-68,-48,-19,9,-19,19
29,-4,-34,-12,31,-19,-68,-48,-19,9,-14,19
29,-4,-34,-12,31,-19,-68,-48,-19,14,-14,19
34,-4,-39,-14,36,-21,-68,-43,-14,14,-14,14
34,9,-24,-21,29,-7,-63,-39,-4,19,-14,14
39,14,-24,-26,31,-4,-53,-34,0,29,-9,24
39,29,-9,-34,24,9,-43,-19,9,34,-9,34
39,34,-4,-36,21,14,-39,-9,14,39,-4,43
39,39,0,-39,19,19,-34,-9,19,43,0,43
39,39,0,-39,19,19,-34,-14,19,43,0,43
39,39,0,-39,19,19,-39,-24,19,43,0,43
39,39,0,-39,19,19,-53,-34,19,39,0,43
43,39,-4,-41,24,17,-68,-43,14,39,0,43
53,43,-9,-48,31,17,-87,-53,4,34,0,43
53,63,9,-58,21,36,-102,-63,4,34,0,43
63,87,24,-75,19,56,-112,-68,4,43,4,43
53,92,39,-73,7,65,-122,-82,-9,34,4,53
53,92,39,-73,7,65,-131,-92,-14,29,0,43
53,87,34,-70,9,61,-131,-92,-14,29,0,43
63,87,24,-75,19,56,-131,-92,-9,29,0,53
82,87,4,-85,39,46,-136,-87,-9,39,4,63
87,82,-4,-85,46,39,-146,-92,-14,29,4,53
92,82,-9,-87,51,36,-146,-97,-19,14,0,53
97,68,-29,-82,63,19,-141,-97,-24,9,-4,48
82,68,-14,-75,48,26,-131,-92,-24,9,-4,48
58,53,-4,-56,31,24,-112,-82,-14,14,-4,48
34,43,9,-39,12,26,-87,-58,-9,14,-4,48
24,29,4,-26,9,17,-82,-68,-9,14,-14,34
14,4,-9,-9,12,-2,-82,-68,-19,4,-24,19
14,-4,-19,-4,17,-12,-82,-73,-29,-9,-34,9
14,-9,-24,-2,19,-17,-87,-73,-39,-14,-43,4
19,-19,-39,0,29,-29,-87,-82,-43,-24,-48,0
19,-29,-48,4,34,-39,-92,-82,-43,-24,-53,0
14,-29,-43,7,29,-36,-92,-82,-43,-24,-53,0
14,-29,-43,7,29,-36,-87,-78,-43,-24,-53,-4
14,-24,-39,4,26,-31,-87,-73,-43,-24,-48,-4
9,-29,-39,9,24,-34,-87,-68,-39,-19,-48,-4
9,-34,-43,12,26,-39,-82,-68,-34,-19,-48,0
9,-34,-43,12,26,-39,-82,-68,-34,-19,-43,0
9,-34,-43,12,26,-39,-82,-68,-34,-19,-43,0
9,-34,-43,12,26,-39,-82,-73,-34,-14,-43,0
9,-34,-43,12,26,-39,-78,-73,-34,-14,-43,0
4,-48,-53,21,29,-51,-63,-63,-29,-19,-53,-9
9,-68,-78,29,43,-73,-48,-43,-24,-24,-68,-24
19,-87,-107,34,63,-97,-34,19,-14,-29,-68,-43
63,-63,-126,0,95,-95,-9,131,63,48,4,9
224,14,-209,-119,217,-97,-34,234,161,219,185,185
488,292,-195,-390,341,48,-151,248,351,551,575,580
839,756,-82,-797,461,336,-278,405,727,1117,1234,1200
1146,1254,107,-1200,519,680,-468,375,1000,1629,1873,1839
1429,1898,468,-1664,480,1183,-741,92,1166,2049,2459,2503
1551,2435,883,-1993,334,1659,-932,-180,1288,2361,2918,3025
1249,2898,1649,-2074,-200,2274,-824,-400,1532,2703,3328,3445
1054,2952,1898,-2003,-422,2425,-854,-649,1473,2703,3391,3533
927,2440,1512,-1683,-292,1976,-1058,-951,941,2220,2996,3181
702,1581,878,-1141,-87,1229,-1098,-1161,248,1298,1961,2278
146,409,263,-278,-58,336,-829,-1259,-531,-53,302,619
-278,-239,39,258,-158,-100,-507,-1078,-800,-692,-590,-361
-258,-302,-43,280,-107,-173,-322,-707,-619,-605,-595,-434
-214,-297,-82,256,-65,-190,-180,-444,-453,-463,-502,-385
-156,-248,-92,202,-31,-170,-112,-278,-326,-356,-400,-322
-131,-209,-78,170,-26,-143,-58,-165,-229,-273,-331,-278
-122,-165,-43,143,-39,-104,-9,-102,-156,-209,-268,-224
-112,-131,-19,122,-46,-75,14,-63,-112,-156,-229,-185
-92,-112,-19,102,-36,-65,14,-39,-87,-136,-209,-165
-82,-102,-19,92,-31,-61,19,-14,-63,-117,-190,-156
-82,-102,-19,92,-31,-61,24,0,-48,-102,-180,-151
-82,-102,-19,92,-31,-61,34,4,-43,-92,-175,-141
-73,-102,-29,87,-21,-65,34,14,-34,-92,-165,-126
-73,-102,-29,87,-21,-65,39,24,-29,-87,-156,-117
-68,-97,-29,82,-19,-63,43,29,-24,-82,-156,-117
-63,-92,-29,78,-17,-61,48,29,-19,-73,-146,-107
-63,-92,-29,78,-17,-61,48,34,-19,-73,-136,-107
-58,-92,-34,75,-12,-63,48,39,-9,-73,-131,-107
-58,-82,-24,70,-17,-53,48,48,-4,-68,-126,-107
-58,-82,-24,70,-17,-53,48,58,-4,-63,-122,-107
-58,-78,-19,68,-19,-48,48,63,-4,-63,-122,-107
-58,-73,-14,65,-21,-43,43,63,4,-58,-122,-112
-53,-68,-14,61,-19,-41,48,68,0,-53,-117,-112
-53,-63,-9,58,-21,-36,53,68,-4,-53,-117,-117
-48,-58,-9,53,-19,-34,53,73,-4,-48,-112,-117
-48,-58,-9,53,-19,-34,48,78,0,-43,-112,-117
-43,-53,-9,48,-17,-31,48,78,4,-43,-112,-117
-34,-53,-19,43,-7,-36,58,82,19,-43,-107,-117
-34,-48,-14,41,-9,-31,58,87,24,-48,-107,-117
-29,-48,-19,39,-4,-34,58,92,24,-48,-107,-117
-29,-43,-14,36,-7,-29,58,92,24,-48,-107,-107
-29,-43,-14,36,-7,-29,58,97,24,-39,-107,-102
-29,-43,-14,36,-7,-29,63,97,24,-34,-107,-97
-34,-48,-14,41,-9,-31,63,102,29,-29,-97,-92
-34,-43,-9,39,-12,-26,63,112,29,-24,-97,-92
-39,-43,-4,41,-17,-24,63,112,34,-24,-97,-87
-34,-43,-9,39,-12,-26,63,112,34,-19,-97,-87
-34,-43,-9,39,-12,-26,63,117,34,-14,-97,-87
-39,-48,-9,43,-14,-29,68,122,39,-14,-97,-87
-39,-48,-9,43,-14,-29,68,126,43,-19,-97,-92
-34,-53,-19,43,-7,-36,68,126,43,-19,-97,-92
-34,-53,-19,43,-7,-36,73,126,43,-19,-102,-97
-39,-53,-14,46,-12,-34,73,126,39,-19,-107,-97
-43,-48,-4,46,-19,-26,73,126,39,-19,-112,-102
-43,-48,-4,46,-19,-26,68,131,39,-29,-117,-117
-43,-48,-4,46,-19,-26,68,136,43,-29,-117,-122
-48,-43,4,46,-26,-19,68,136,43,-29,-122,-126
-53,-34,19,43,-36,-7,68,131,39,-29,-122,-131
-53,-34,19,43,-36,-7,68,131,39,-43,-136,-136
-53,-34,19,43,-36,-7,68,131,29,-53,-146,-141
-53,-34,19,43,-36,-7,68,126,24,-63,-146,-146
-63,-34,29,48,-46,-2,68,122,24,-68,-151,-161
-63,-29,34,46,-48,2,68,122,19,-68,-156,-170
-68,-24,43,46,-56,9,73,122,14,-82,-165,-180
-78,-29,48,53,-63,9,78,122,9,-92,-180,-185
-82,-34,48,58,-65,7,82,117,0,-102,-195,-190
-87,-39,48,63,-68,4,82,112,-4,-117,-209,-214
-97,-43,53,70,-75,4,87,107,-19,-136,-229,-224
-107,-48,58,78,-82,4,92,112,-29,-151,-244,-244
-122,-58,63,90,-92,2,97,112,-34,-175,-263,-263
-136,-73,63,104,-100,-4,102,102,-43,-209,-292,-297
-156,-97,58,126,-107,-19,112,92,-68,-234,-326,-326
-170,-117,53,143,-112,-31,112,73,-87,-268,-361,-361
-185,-136,48,161,-117,-43,122,53,-107,-297,-400,-395
-204,-151,53,178,-129,-48,126,48,-131,-336,-434,-429
-224,-165,58,195,-141,-53,126,34,-165,-375,-473,-468
-239,-195,43,217,-141,-75,131,4,-195,-414,-531,-522
-258,-219,39,239,-148,-90,141,-9,-224,-453,-590,-570
-278,-248,29,263,-153,-109,141,-34,-253,-492,-634,-610
-307,-273,34,290,-170,-119,146,-58,-283,-541,-683,-653
-322,-312,9,317,-165,-151,146,-87,-317,-585,-722,-702
-336,-331,4,334,-170,-163,141,-112,-346,-634,-771,-741
-361,-356,4,358,-183,-175,141,-131,-375,-668,-810,-780
-370,-370,0,370,-185,-185,141,-161,-405,-702,-854,-810
-390,-395,-4,392,-192,-200,146,-185,-434,-741,-893,-849
-400,-409,-9,405,-195,-209,146,-200,-453,-775,-912,-883
-405,-419,-14,412,-195,-217,141,-219,-473,-790,-927,-897
-405,-434,-29,419,-187,-231,136,-229,-483,-800,-946,-907
-400,-439,-39,419,-180,-239,131,-244,-492,-800,-951,-907
-390,-439,-48,414,-170,-244,122,-248,-497,-800,-951,-902
-380,-439,-58,409,-161,-248,117,-253,-497,-795,-941,-897
-366,-439,-73,402,-146,-256,102,-253,-497,-775,-922,-878
-346,-424,-78,385,-134,-251,92,-253,-483,-756,-897,-854
-326,-414,-87,370,-119,-251,82,-248,-463,-727,-858,-819
-307,-390,-82,348,-112,-236,78,-239,-434,-697,-814,-775
-283,-370,-87,326,-97,-229,73,-224,-414,-653,-771,-732
-258,-346,-87,302,-85,-217,63,-214,-380,-605,-712,-678
-229,-317,-87,273,-70,-202,53,-200,-341,-551,-658,-619
-204,-292,-87,248,-58,-190,43,-185,-317,-507,-605,-570
-175,-268,-92,222,-41,-180,29,-161,-287,-458,-546,-517
-156,-234,-78,195,-39,-156,14,-151,-253,-405,-483,-453
-136,-209,-73,173,-31,-141,0,-141,-229,-361,-424,-405
-112,-180,-68,146,-21,-124,-9,-131,-204,-312,-361,-341
-92,-156,-63,124,-14,-109,-19,-117,-175,-263,-302,-287
-73,-131,-58,102,-7,-95,-24,-102,-151,-214,-253,-244
-63,-107,-43,85,-9,-75,-29,-92,-131,-180,-214,-195
-43,-82,-39,63,-2,-61,-34,-82,-102,-146,-170,-161
-29,-68,-39,48,4,-53,-43,-73,-78,-107,-126,-126
-19,-48,-29,34,4,-39,-48,-63,-58,-78,-92,-87
-9,-29,-19,19,4,-24,-48,-53,-43,-53,-68,-63
0,-9,-9,4,4,-9,-53,-43,-24,-29,-43,-34
14,-4,-19,-4,17,-12,-58,-39,-14,-9,-14,-14
14,4,-9,-9,12,-2,-58,-34,-4,4,0,4
14,14,0,-14,7,7,-58,-29,4,14,14,24
29,24,-4,-26,17,9,-58,-29,19,24,29,29
43,34,-9,-39,26,12,-58,-19,24,39,48,48
43,43,0,-43,21,21,-58,-19,29,43,53,53
43,48,4,-46,19,26,-58,-14,34,48,63,63
43,53,9,-48,17,31,-63,-9,39,58,63,68
43,53,9,-48,17,31,-68,-4,39,63,73,78
43,68,24,-56,9,46,-68,-4,43,68,78,78
43,73,29,-58,7,51,-68,0,48,78,87,82
43,73,29,-58,7,51,-58,0,58,78,87,87
43,73,29,-58,7,51,-53,4,58,78,87,87
43,68,24,-56,9,46,-48,4,58,78,92,87
39,68,29,-53,4,48,-48,9,53,78,92,87
39,68,29,-53,4,48,-48,14,53,78,82,78
39,68,29,-53,4,48,-43,14,53,78,82,78
39,68,29,-53,4,48,-43,19,53,78,82,78
39,63,24,-51,7,43,-43,29,53,78,82,78
39,58,19,-48,9,39,-34,29,58,78,82,78
39,48,9,-43,14,29,-29,34,63,78,73,73
34,48,14,-41,9,31,-29,34,58,68,73,63
34,43,9,-39,12,26,-24,34,58,68,68,58
29,43,14,-36,7,29,-29,34,58,68,68,58
29,43,14,-36,7,29,-29,34,53,58,58,53
24,29,4,-26,9,17,-29,39,53,58,58,48
24,19,-4,-21,14,7,-29,39,43,48,58,43
19,14,-4,-17,12,4,-29,34,43,43,43,43
19,14,-4,-17,12,4,-29,29,39,34,39,43
19,19,0,-19,9,9,-29,29,39,29,39,29
19,19,0,-19,9,9,-29,24,34,24,39,29
19,9,-9,-14,14,0,-24,24,29,24,34,19
19,9,-9,-14,14,0,-19,19,24,19,24,14
14,9,-4,-12,9,2,-19,19,19,19,19,14
14,9,-4,-12,9,2,-19,14,19,14,14,9
19,4,-14,-12,17,-4,-14,19,14,0,9,4
19,0,-19,-9,19,-9,-14,19,9,0,4,0
19,-14,-34,-2,26,-24,-14,14,9,-4,4,-4
14,-19,-34,2,24,-26,-14,14,4,-9,0,-14
9,-19,-29,4,19,-24,-14,14,0,-9,0,-14
4,-19,-24,7,14,-21,-14,9,0,-14,0,-19
14,-19,-34,2,24,-26,-24,9,-4,-19,-4,-14
14,-19,-34,2,24,-26,-29,9,-4,-19,-4,-9
14,-19,-34,2,24,-26,-29,9,-4,-19,-9,-9
14,-19,-34,2,24,-26,-29,4,-9,-19,-9,-9
14,-24,-39,4,26,-31,-29,0,-9,-19,-9,-9
14,-24,-39,4,26,-31,-29,0,-9,-19,-9,-9
14,-24,-39,4,26,-31,-29,0,-9,-19,-9,-9
14,-24,-39,4,26,-31,-34,0,-14,-19,-9,-9
14,-19,-34,2,24,-26,-29,-4,-14,-19,-9,-9
14,-19,-34,2,24,-26,-24,-4,-14,-24,-9,-9
14,-24,-39,4,26,-31,-24,-4,-14,-24,-4,-9
14,-29,-43,7,29,-36,-24,-4,-14,-24,-4,-9
19,-29,-48,4,34,-39,-24,-9,-14,-24,-4,-9
19,-24,-43,2,31,-34,-29,-9,-19,-19,-4,-9
19,-24,-43,2,31,-34,-29,-9,-19,-19,0,-9
19,-24,-43,2,31,-34,-34,-9,-19,-19,0,-9
19,-19,-39,0,29,-29,-39,-9,-19,-19,4,-9
19,-14,-34,-2,26,-24,-43,-9,-14,-14,4,-4
19,-14,-34,-2,26,-24,-39,-9,-14,-14,4,-4
24,-14,-39,-4,31,-26,-39,-9,-14,-14,4,0
24,-14,-39,-4,31,-26,-43,-9,-9,-9,9,0
19,-14,-34,-2,26,-24,-43,-9,-4,-4,19,0
19,-14,-34,-2,26,-24,-43,-9,-4,0,19,4
24,-19,-43,-2,34,-31,-43,-9,-4,0,19,4
24,-19,-43,-2,34,-31,-43,-14,-4,0,14,4
24,-14,-39,-4,31,-26,-48,-14,-4,0,14,4
29,-14,-43,-7,36,-29,-48,-14,-9,0,14,4
29,-14,-43,-7,36,-29,-48,-14,-14,0,19,4
24,-14,-39,-4,31,-26,-39,-14,-14,0,19,9
19,-19,-39,0,29,-29,-34,-14,-14,0,19,9
14,-19,-34,2,24,-26,-34,-14,-9,0,24,9
19,-19,-39,0,29,-29,-39,-19,-4,0,24,14
19,-14,-34,-2,26,-24,-34,-19,0,4,29,19
19,-14,-34,-2,26,-24,-34,-19,0,9,34,24
19,-9,-29,-4,24,-19,-34,-19,-4,9,34,24
19,-9,-29,-4,24,-19,-39,-19,-9,9,39,29
19,-9,-29,-4,24,-19,-39,-19,-9,9,39,29
19,-9,-29,-4,24,-19,-39,-19,-9,9,39,29
19,-9,-29,-4,24,-19,-39,-19,-9,9,39,29
19,-9,-29,-4,24,-19,-39,-19,-9,9,39,29
19,-14,-34,-2,26,-24,-39,-14,-9,9,39,29
19,-19,-39,0,29,-29,-39,-9,-9,9,39,29
19,-19,-39,0,29,-29,-39,-9,-9,9,39,29
19,-19,-39,0,29,-29,-39,-9,-9,9,39,29
24,-19,-43,-2,34,-31,-39,-9,-9,9,39,29
29,-19,-48,-4,39,-34,-39,-9,-9,9,39,29
29,-19,-48,-4,39,-34,-39,-9,-9,14,39,29
29,-19,-48,-4,39,-34,-39,-9,-9,19,39,29
29,-19,-48,-4,39,-34,-39,-9,-9,19,43,29
29,-19,-48,-4,39,-34,-39,-9,-9,19,48,29
29,-19,-48,-4,39,-34,-39,-9,-4,14,48,29
29,-19,-48,-4,39,-34,-39,-9,0,9,48,29
29,-14,-43,-7,36,-29,-39,-9,0,9,48,29
29,-9,-39,-9,34,-24,-39,-9,0,9,48,29
29,-9,-39,-9,34,-24,-39,-9,0,9,48,29
29,-9,-39,-9,34,-24,-39,-9,0,9,48,29
29,-9,-39,-9,34,-24,-39,-9,0,9,48,29
29,-9,-39,-9,34,-24,-39,-9,0,9,48,29
24,-14,-39,-4,31,-26,-39,-9,0,14,48,34
19,-19,-39,0,29,-29,-39,-9,0,19,48,39
19,-19,-39,0,29,-29,-43,-14,0,19,48,39
19,-19,-39,0,29,-29,-48,-19,0,19,48,39
19,-14,-34,-2,26,-24,-48,-19,0,19,48,39
19,-9,-29,-4,24,-19,-48,-19,0,19,48,39
19,-9,-29,-4,24,-19,-48,-19,0,19,48,39
19,-9,-29,-4,24,-19,-48,-19,0,19,48,39
19,-14,-34,-2,26,-24,-48,-19,0,19,48,39
19,-19,-39,0,29,-29,-48,-19,0,19,48,39
19,-19,-39,0,29,-29,-48,-19,0,19,48,39
19,-19,-39,0,29,-29,-48,-19,0,19,48,39
19,-19,-39,0,29,-29,-43,-19,0,19,53,39
19,-19,-39,0,29,-29,-39,-19,0,19,58,39
19,-19,-39,0,29,-29,-39,-14,0,19,58,39
19,-19,-39,0,29,-29,-39,-9,0,19,58,39
19,-19,-39,0,29,-29,-39,-9,0,19,53,39
19,-19,-39,0,29,-29,-39,-9,0,19,48,39
19,-19,-39,0,29,-29,-39,-9,0,19,48,39
19,-19,-39,0,29,-29,-39,-9,0,19,48,39
19,-19,-39,0,29,-29,-39,-9,0,14,48,39
19,-19,-39,0,29,-29,-39,-9,0,9,48,39
19,-19,-39,0,29,-29,-39,-9,0,9,48,39
19,-19,-39,0,29,-29,-39,-9,0,9,48,39
19,-19,-39,0,29,-29,-43,-9,0,14,53,39
19,-14,-34,-2,26,-24,-43,-9,0,19,58,39
19,-14,-34,-2,26,-24,-48,-14,0,24,63,43
24,-14,-39,-4,31,-26,-48,-14,4,24,63,43
24,0,-24,-12,24,-12,-39,-9,14,29,63,43
29,4,-24,-17,26,-9,-24,-4,19,39,68,53
29,19,-9,-24,19,4,-14,9,29,43,68,58
29,24,-4,-26,17,9,-9,19,34,48,73,63
29,29,0,-29,14,14,-4,24,39,53,78,63
29,29,0,-29,14,14,-4,24,39,53,78,63
29,29,0,-29,14,14,-4,14,39,53,78,63
29,29,0,-29,14,14,-14,4,39,48,78,63
34,29,-4,-31,19,12,-29,-4,34,48,78,63
43,34,-9,-39,26,12,-48,-14,24,43,78,63
48,48,0,-48,24,24,-63,-24,24,43,78,63
63,68,4,-65,29,36,-73,-29,24,53,82,63
53,68,14,-61,19,41,-87,-43,9,43,82,73
53,63,9,-58,21,36,-102,-53,4,39,78,63
53,58,4,-56,24,31,-102,-53,4,39,78,63
63,58,-4,-61,34,26,-102,-53,9,39,78,73
82,68,-14,-75,48,26,-102,-43,9,48,82,82
87,73,-14,-80,51,29,-107,-43,4,39,82,73
92,73,-19,-82,56,26,-107,-48,0,29,78,73
97,58,-39,-78,68,9,-102,-48,-4,29,73,68
82,63,-19,-73,51,21,-92,-43,-4,29,73,68
58,53,-4,-56,31,24,-73,-34,4,34,73,68
34,39,4,-36,14,21,-48,-9,14,34,78,68
24,19,-4,-21,14,7,-43,-19,19,34,73,53
9,-9,-19,0,14,-14,-43,-19,9,24,63,39
4,-24,-29,9,17,-26,-43,-24,0,9,53,29
4,-29,-34,12,19,-31,-48,-24,-14,4,43,24
9,-39,-48,14,29,-43,-48,-34,-24,-4,39,19
9,-48,-58,19,34,-53,-53,-34,-24,-4,34,19
4,-48,-53,21,29,-51,-53,-34,-24,-4,34,19
4,-48,-53,21,29,-51,-43,-34,-24,-4,34,14
4,-43,-48,19,26,-46,-39,-34,-24,-4,39,14
0,-48,-48,24,24,-48,-39,-24,-19,4,43,19
0,-53,-53,26,26,-53,-34,-19,-14,9,48,29
0,-53,-53,26,26,-53,-39,-19,-14,9,53,29
0,-53,-53,26,26,-53,-43,-19,-14,9,53,29
0,-48,-48,24,24,-48,-43,-29,-14,9,48,29
0,-43,-43,21,21,-43,-39,-34,-14,4,43,29
-9,-58,-48,34,19,-53,-24,-19,-19,4,39,24
-9,-78,-68,43,29,-73,-9,4,-24,4,29,14
0,-112,-112,56,56,-112,14,43,-19,-19,0,-24
43,-102,-146,29,95,-124,48,131,53,39,43,9
156,-73,-229,-41,192,-151,39,253,126,161,165,117
370,156,-214,-263,292,-29,-63,287,292,444,497,444
741,610,-131,-675,436,239,-180,458,692,1024,1161,1063
1068,1098,29,-1083,519,563,-361,444,990,1551,1805,1703
1410,1761,351,-1586,529,1056,-663,161,1161,1995,2420,2391
1590,2318,727,-1954,431,1522,-883,-112,1288,2332,2908,2937
1293,2888,1595,-2091,-151,2242,-790,-346,1586,2752,3411,3459
1102,3050,1947,-2076,-422,2498,-834,-610,1581,2830,3567,3650
1010,2625,1615,-1817,-302,2120,-1078,-902,1117,2479,3337,3455
819,1854,1034,-1337,-107,1444,-1156,-1102,492,1688,2469,2708
239,590,351,-414,-56,470,-888,-1259,-409,180,649,927
-209,-151,58,180,-134,-46,-566,-1137,-800,-614,-405,-175
-229,-273,-43,251,-92,-158,-346,-741,-629,-580,-478,-336
-224,-326,-102,275,-61,-214,-170,-453,-473,-492,-453,-375
-161,-278,-117,219,-21,-197,-87,-268,-331,-366,-341,-297
-131,-239,-107,185,-12,-173,-19,-136,-219,-263,-263,-239
-122,-190,-68,156,-26,-129,29,-68,-141,-200,-195,-185
-112,-151,-39,131,-36,-95,53,-24,-92,-146,-151,-146
-92,-126,-34,109,-29,-80,53,0,-73,-122,-131,-126
-82,-112,-29,97,-26,-70,58,24,-53,-97,-112,-117
-82,-112,-29,97,-26,-70,63,43,-34,-82,-102,-112
-82,-112,-29,97,-26,-70,73,53,-24,-73,-97,-102
-68,-107,-39,87,-14,-73,73,63,-14,-68,-87,-92
-63,-102,-39,82,-12,-70,78,73,-9,-58,-78,-87
-63,-97,-34,80,-14,-65,82,82,-4,-53,-78,-87
-63,-92,-29,78,-17,-61,87,87,0,-43,-68,-78
-63,-97,-34,80,-14,-65,87,92,0,-43,-63,-78
-58,-102,-43,80,-7,-73,87,97,9,-43,-63,-78
-58,-92,-34,75,-12,-63,87,102,14,-43,-58,-82
-58,-92,-34,75,-12,-63,87,107,14,-43,-53,-87
-58,-92,-34,75,-12,-63,92,112,14,-43,-53,-82
-58,-92,-34,75,-12,-63,92,112,24,-39,-53,-82
-53,-87,-34,70,-9,-61,97,117,24,-34,-48,-82
-53,-82,-29,68,-12,-56,102,117,24,-34,-48,-87
-48,-78,-29,63,-9,-53,102,126,24,-29,-43,-87
-48,-78,-29,63,-9,-53,97,136,29,-24,-43,-87
-48,-73,-24,61,-12,-48,97,136,29,-19,-43,-87
-43,-73,-29,58,-7,-51,107,141,39,-14,-39,-87
-43,-68,-24,56,-9,-46,112,146,48,-14,-34,-82
-39,-68,-29,53,-4,-48,117,151,53,-9,-29,-78
-39,-63,-24,51,-7,-43,117,146,53,-9,-29,-73
-39,-63,-24,51,-7,-43,117,146,53,0,-29,-73
-34,-58,-24,46,-4,-41,122,146,53,0,-29,-68
-34,-58,-24,46,-4,-41,122,151,58,0,-19,-63
-29,-53,-24,41,-2,-39,122,161,58,4,-19,-63
-29,-53,-24,41,-2,-39,122,161,63,4,-19,-58
-29,-58,-29,43,0,-43,122,161,63,4,-19,-58
-34,-63,-29,48,-2,-46,122,165,63,4,-19,-58
-39,-68,-29,53,-4,-48,126,170,68,4,-19,-58
-39,-68,-29,53,-4,-48,126,175,73,0,-19,-63
-39,-73,-34,56,-2,-53,126,180,73,0,-19,-63
-43,-73,-29,58,-7,-51,131,185,73,0,-24,-68
-48,-73,-24,61,-12,-48,126,185,68,0,-29,-68
-53,-68,-14,61,-19,-41,122,185,68,0,-34,-73
-53,-68,-14,61,-19,-41,122,185,68,-4,-39,-82
-53,-68,-14,61,-19,-41,126,185,73,0,-39,-82
-58,-68,-9,63,-24,-39,131,185,73,0,-43,-87
-63,-63,0,63,-31,-31,136,180,68,0,-43,-92
-63,-63,0,63,-31,-31,136,180,68,-14,-58,-97
-63,-63,0,63,-31,-31,136,180,58,-24,-68,-102
-63,-58,4,61,-34,-26,136,180,48,-29,-73,-102
-73,-53,19,63,-46,-17,136,180,43,-29,-82,-112
-68,-53,14,61,-41,-19,136,180,39,-29,-87,-122
-68,-53,14,61,-41,-19,141,180,34,-43,-97,-131
-82,-58,24,70,-53,-17,146,180,34,-58,-112,-141
-92,-63,29,78,-61,-17,151,175,29,-73,-126,-151
-97,-73,24,85,-61,-24,151,170,24,-87,-141,-175
-107,-82,24,95,-65,-29,156,165,9,-107,-161,-185
-117,-82,34,100,-75,-24,161,170,-4,-122,-175,-200
-131,-87,43,109,-87,-21,165,170,-14,-146,-195,-214
-141,-97,43,119,-92,-26,165,161,-24,-175,-224,-248
-156,-117,39,136,-97,-39,170,151,-48,-195,-258,-278
-170,-136,34,153,-102,-51,170,136,-68,-229,-292,-312
-185,-156,29,170,-107,-63,180,122,-87,-258,-331,-346
-204,-175,29,190,-117,-73,190,112,-107,-297,-366,-380
-224,-195,29,209,-126,-82,195,92,-136,-336,-405,-419
-244,-224,19,234,-131,-102,195,68,-165,-375,-453,-463
-268,-248,19,258,-143,-114,200,58,-195,-414,-502,-502
-287,-278,9,283,-148,-134,200,29,-224,-453,-546,-541
-317,-302,14,309,-165,-143,204,0,-253,-502,-595,-585
-331,-336,-4,334,-163,-170,209,-29,-287,-541,-634,-634
-346,-351,-4,348,-170,-178,209,-53,-317,-585,-683,-673
-375,-375,0,375,-187,-187,209,-78,-351,-624,-727,-717
-390,-390,0,390,-195,-195,209,-112,-385,-663,-775,-751
-405,-419,-14,412,-195,-217,209,-136,-414,-697,-819,-790
-409,-439,-29,424,-190,-234,204,-151,-434,-727,-844,-824
-419,-448,-29,434,-195,-239,200,-170,-453,-751,-858,-839
-424,-463,-39,444,-192,-251,195,-180,-463,-771,-878,-849
-419,-468,-48,444,-185,-258,190,-195,-478,-771,-888,-854
-409,-468,-58,439,-175,-263,180,-200,-488,-771,-893,-854
-395,-468,-73,431,-161,-270,175,-209,-483,-771,-878,-844
-375,-468,-92,422,-141,-280,161,-214,-478,-756,-854,-819
-361,-458,-97,409,-131,-278,151,-214,-468,-736,-829,-800
-346,-453,-107,400,-119,-280,141,-209,-453,-707,-790,-771
-326,-429,-102,378,-112,-265,131,-200,-424,-678,-746,-727
-302,-409,-107,356,-97,-258,122,-185,-405,-634,-702,-683
-278,-385,-107,331,-85,-246,112,-180,-375,-590,-658,-644
-248,-356,-107,302,-70,-231,102,-170,-341,-541,-619,-600
-224,-331,-107,278,-58,-219,92,-156,-317,-497,-556,-541
-195,-307,-112,251,-41,-209,78,-131,-287,-448,-488,-478
-170,-273,-102,222,-34,-187,63,-126,-253,-390,-434,-419
-146,-248,-102,197,-21,-175,48,-122,-229,-341,-385,-375
-122,-219,-97,170,-12,-158,39,-112,-200,-292,-322,-317
-102,-195,-92,148,-4,-143,29,-97,-165,-244,-263,-268
-82,-170,-87,126,2,-129,24,-78,-141,-200,-219,-229
-73,-146,-73,109,0,-109,19,-63,-122,-170,-185,-185
-53,-122,-68,87,7,-95,14,-53,-97,-136,-141,-146
-39,-107,-68,73,14,-87,4,-43,-78,-97,-97,-107
-29,-87,-58,58,14,-73,-4,-34,-58,-68,-63,-68
-19,-68,-48,43,14,-58,-9,-24,-43,-43,-39,-43
-9,-43,-34,26,12,-39,-14,-14,-24,-19,-9,-14
4,-34,-39,14,21,-36,-19,-9,-14,0,24,4
4,-24,-29,9,17,-26,-19,-4,-4,19,39,24
4,-14,-19,4,12,-17,-19,0,4,34,53,43
14,-9,-24,-2,19,-17,-14,0,24,43,63,48
24,-4,-29,-9,26,-17,-9,9,34,58,78,68
24,4,-19,-14,21,-7,-9,9,39,63,87,78
24,9,-14,-17,19,-2,-9,14,43,68,102,92
24,14,-9,-19,17,2,-9,19,48,78,102,92
24,14,-9,-19,17,2,-9,24,48,82,112,97
24,24,0,-24,12,12,-9,24,48,82,112,97
24,24,0,-24,12,12,-9,29,48,87,117,102
29,24,-4,-26,17,9,-9,29,58,87,117,107
34,24,-9,-29,21,7,-14,34,58,87,117,107
34,24,-9,-29,21,7,-9,34,63,87,122,107
29,29,0,-29,14,14,-9,39,63,87,122,107
29,29,0,-29,14,14,-9,43,63,87,112,97
29,29,0,-29,14,14,-4,43,63,87,112,97
29,34,4,-31,12,19,-4,43,63,87,112,97
29,34,4,-31,12,19,-4,48,63,87,112,97
29,34,4,-31,12,19,0,43,63,87,107,92
29,29,0,-29,14,14,0,43,63,87,92,82
24,29,4,-26,9,17,0,43,58,78,92,73
24,24,0,-24,12,12,4,43,58,78,87,68
19,19,0,-19,9,9,4,43,58,78,87,68
19,14,-4,-17,12,4,9,43,53,68,78,63
14,4,-9,-9,12,-2,14,43,53,68,78,58
14,0,-14,-7,14,-7,19,39,43,58,78,53
9,-4,-14,-2,12,-9,19,34,43,58,68,53
9,-4,-14,-2,12,-9,19,29,39,53,68,53
9,-4,-14,-2,12,-9,19,34,39,48,63,39
9,-9,-19,0,14,-14,19,34,34,43,58,39
9,-19,-29,4,19,-24,19,34,29,43,53,29
9,-19,-29,4,19,-24,19,29,24,39,43,24
4,-19,-24,7,14,-21,19,29,19,39,34,24
4,-19,-24,7,14,-21,19,24,19,34,24,19
4,-19,-24,7,14,-21,19,24,19,19,24,14
0,-19,-19,9,9,-19,14,19,19,19,24,9
0,-29,-29,14,14,-29,14,14,19,14,24,9
-4,-29,-24,17,9,-26,14,14,14,9,19,4
-4,-29,-24,17,9,-26,14,9,9,9,14,4
-4,-29,-24,17,9,-26,14,0,9,4,9,0
4,-29,-34,12,19,-31,9,0,4,0,4,0
4,-29,-34,12,19,-31,9,0,4,0,4,0
4,-29,-34,12,19,-31,9,0,4,0,0,0
4,-29,-34,12,19,-31,9,-4,0,0,0,0
4,-34,-39,14,21,-36,9,-9,0,0,0,0
4,-34,-39,14,21,-36,9,-9,0,0,0,0
4,-34,-39,14,21,-36,4,-9,0,-4,0,0
4,-34,-39,14,21,-36,-4,-9,-4,-9,0,0
4,-29,-34,12,19,-31,-4,-9,-4,-9,0,0
4,-29,-34,12,19,-31,-4,-4,-4,-14,0,0
4,-34,-39,14,21,-36,-4,-4,-4,-14,4,0
4,-39,-43,17,24,-41,-4,-4,-4,-14,4,0
9,-39,-48,14,29,-43,0,-9,-4,-14,4,4
9,-34,-43,12,26,-39,0,-9,-9,-9,4,9
9,-34,-43,12,26,-39,0,-9,-9,-9,9,9
9,-34,-43,12,26,-39,-4,-9,-9,-9,9,9
9,-34,-43,12,26,-39,-4,-9,-9,-9,14,4
9,-34,-43,12,26,-39,-4,-9,-4,-4,14,4
9,-34,-43,12,26,-39,-4,-14,-4,-4,14,4
14,-34,-48,9,31,-41,-9,-19,-4,-4,14,9
14,-29,-43,7,29,-36,-14,-19,-4,-4,14,9
9,-24,-34,7,21,-29,-14,-19,-4,-4,19,9
9,-24,-34,7,21,-29,-9,-19,-4,0,19,14
14,-29,-43,7,29,-36,-4,-19,-4,0,19,14
9,-34,-43,12,26,-39,-4,-24,-4,0,19,14
4,-34,-39,14,21,-36,-9,-24,-4,0,24,14
9,-34,-43,12,26,-39,-14,-24,-4,4,24,14
9,-34,-43,12,26,-39,-19,-24,-4,9,29,14
9,-29,-39,9,24,-34,-14,-19,-4,9,29,19
9,-29,-39,9,24,-34,-14,-14,-4,9,29,19
4,-29,-34,12,19,-31,-14,-14,-4,9,29,19
9,-29,-39,9,24,-34,-19,-19,-4,9,24,24
9,-24,-34,7,21,-29,-14,-19,0,14,24,24
9,-24,-34,7,21,-29,-14,-19,0,19,24,24
9,-19,-29,4,19,-24,-14,-19,0,19,24,24
9,-19,-29,4,19,-24,-19,-19,0,19,29,29
9,-24,-34,7,21,-29,-19,-19,0,19,34,29
9,-29,-39,9,24,-34,-19,-19,0,19,39,29
9,-29,-39,9,24,-34,-19,-19,0,19,39,34
9,-29,-39,9,24,-34,-19,-19,0,19,39,39
9,-29,-39,9,24,-34,-19,-19,0,19,39,39
9,-29,-39,9,24,-34,-19,-19,0,19,39,39
9,-29,-39,9,24,-34,-19,-19,0,19,39,39
9,-29,-39,9,24,-34,-19,-19,0,19,39,39
9,-29,-39,9,24,-34,-14,-19,0,19,39,39
9,-29,-39,9,24,-34,-9,-19,0,19,39,39
9,-29,-39,9,24,-34,-9,-19,4,24,39,39
9,-29,-39,9,24,-34,-9,-19,9,29,39,39
9,-29,-39,9,24,-34,-9,-19,9,29,39,39
9,-29,-39,9,24,-34,-9,-19,9,29,39,39
9,-29,-39,9,24,-34,-9,-19,9,29,39,39
9,-29,-39,9,24,-34,-9,-19,9,29,39,39
9,-24,-34,7,21,-29,-9,-19,9,24,39,39
9,-19,-29,4,19,-24,-9,-19,9,19,39,39
14,-19,-34,2,24,-26,-9,-24,9,19,39,39
19,-19,-39,0,29,-29,-9,-29,9,19,39,39
19,-19,-39,0,29,-29,-9,-29,9,19,39,39
19,-19,-39,0,29,-29,-9,-29,9,19,39,39
19,-19,-39,0,29,-29,-9,-29,9,19,39,39
19,-19,-39,0,29,-29,-9,-29,9,19,39,39
19,-24,-43,2,31,-34,-9,-29,9,19,39,39
19,-29,-48,4,34,-39,-9,-29,9,19,39,39
19,-29,-48,4,34,-39,-14,-29,9,24,39,39
19,-29,-48,4,34,-39,-19,-29,9,29,39,39
19,-29,-48,4,34,-39,-19,-29,9,29,43,39
19,-29,-48,4,34,-39,-19,-29,9,29,48,39
14,-29,-43,7,29,-36,-19,-29,9,29,48,39
9,-29,-39,9,24,-34,-19,-29,9,29,48,39
9,-24,-34,7,21,-29,-19,-34,4,29,48,39
9,-19,-29,4,19,-24,-19,-39,0,29,48,39
9,-19,-29,4,19,-24,-19,-39,0,29,48,39
9,-19,-29,4,19,-24,-19,-39,0,29,48,39
9,-19,-29,4,19,-24,-19,-34,0,29,48,39
9,-19,-29,4,19,-24,-19,-29,0,29,48,39
9,-24,-34,7,21,-29,-19,-29,0,29,43,39
9,-29,-39,9,24,-34,-19,-29,0,29,39,39
9,-29,-39,9,24,-34,-19,-29,0,29,39,39
9,-29,-39,9,24,-34,-19,-29,0,29,39,39
9,-29,-39,9,24,-34,-19,-24,4,24,39,39
9,-29,-39,9,24,-34,-19,-19,9,19,39,39
9,-29,-39,9,24,-34,-19,-19,9,19,39,39
9,-29,-39,9,24,-34,-19,-19,9,19,39,39
9,-29,-39,9,24,-34,-19,-24,9,24,39,39
9,-29,-39,9,24,-34,-19,-29,9,29,39,39
14,-24,-39,4,26,-31,-19,-29,9,29,39,39
19,-19,-39,0,29,-29,-19,-29,9,29,39,39
19,-19,-39,0,29,-29,-19,-29,9,29,39,43
19,-19,-39,0,29,-29,-19,-29,9,29,39,48
19,-19,-39,0,29,-29,-19,-29,9,29,39,48
19,-19,-39,0,29,-29,-19,-29,9,29,39,48
19,-19,-39,0,29,-29,-19,-29,9,29,39,43
19,-19,-39,0,29,-29,-19,-29,9,29,39,39
19,-19,-39,0,29,-29,-19,-29,9,29,39,39
19,-19,-39,0,29,-29,-19,-29,9,29,39,39
19,-14,-34,-2,26,-24,-19,-29,4,29,39,39
19,-9,-29,-4,24,-19,-19,-29,0,29,39,39
19,-9,-29,-4,24,-19,-19,-29,0,29,39,39
19,-9,-29,-4,24,-19,-19,-29,0,29,39,39
19,-14,-34,-2,26,-24,-19,-29,0,34,43,43
24,-24,-48,0,36,-36,-19,-24,4,34,43,43
24,-9,-34,-7,29,-21,-9,-19,19,39,48,43
29,-4,-34,-12,31,-19,4,-14,29,48,58,53
29,14,-14,-21,21,0,14,0,39,53,58,58
29,24,-4,-26,17,9,19,9,43,58,63,63
29,29,0,-29,14,14,24,14,48,63,68,63
29,29,0,-29,14,14,24,14,48,63,68,63
29,29,0,-29,14,14,19,4,48,63,68,63
29,29,0,-29,14,14,4,-4,48,58,68,63
34,29,-4,-31,19,12,-9,-14,43,58,68,63
43,34,-9,-39,26,12,-29,-24,34,53,68,63
48,43,-4,-46,26,19,-43,-34,34,53,68,68
63,58,-4,-61,34,26,-53,-39,34,63,73,73
53,63,9,-58,21,36,-63,-53,19,48,73,82
53,63,9,-58,21,36,-73,-63,14,39,68,73
53,63,9,-58,21,36,-73,-63,9,39,68,68
63,68,4,-65,29,36,-73,-63,9,39,68,73
82,73,-9,-78,46,31,-73,-53,9,53,73,82
87,73,-14,-80,51,29,-78,-53,4,48,73,73
92,68,-24,-80,58,21,-78,-58,4,39,68,73
97,48,-48,-73,73,0,-73,-58,4,39,63,68
82,48,-34,-65,58,7,-63,-53,4,39,63,68
58,34,-24,-46,41,4,-43,-43,14,43,63,68
29,19,-9,-24,19,4,-24,-19,19,43,63,73
14,0,-14,-7,14,-7,-24,-29,19,43,53,63
4,-24,-29,9,17,-26,-24,-29,9,34,43,48
4,-34,-39,14,21,-36,-24,-34,0,19,34,39
0,-39,-39,19,19,-39,-29,-34,-9,14,24,29
0,-48,-48,24,24,-48,-29,-43,-14,4,19,19
0,-58,-58,29,29,-58,-34,-43,-14,4,14,19
-4,-58,-53,31,24,-56,-34,-43,-14,4,14,19
0,-53,-53,26,26,-53,-29,-43,-19,4,9,14
4,-43,-48,19,26,-46,-29,-43,-24,4,9,14
0,-43,-43,21,21,-43,-29,-39,-19,9,9,14
0,-43,-43,21,21,-43,-24,-39,-14,9,9,19
0,-48,-48,24,24,-48,-24,-39,-14,9,14,19
0,-53,-53,26,26,-53,-24,-39,-14,9,14,19
-4,-53,-48,29,21,-51,-24,-43,-14,9,14,19
-9,-53,-43,31,17,-48,-19,-43,-14,4,14,19
-14,-68,-53,41,19,-61,-4,-29,-9,0,4,14
-9,-87,-78,48,34,-82,9,-4,-4,-4,-9,4
19,-102,-122,41,70,-112,29,58,9,-4,-9,-9
82,-73,-156,-4,119,-114,58,170,92,78,63,48
234,9,-224,-122,229,-107,34,283,200,244,239,204
488,292,-195,-390,341,48,-82,307,400,570,624,580
863,761,-102,-812,483,329,-209,448,780,1137,1268,1190
1195,1263,68,-1229,563,666,-400,405,1058,1649,1893,1820
1473,1908,434,-1690,519,1171,-668,117,1234,2064,2464,2454
1590,2444,854,-2017,368,1649,-854,-161,1366,2371,2908,2947
1288,2874,1586,-2081,-148,2230,-800,-405,1576,2688,3289,3357
1093,2893,1800,-1993,-353,2347,-883,-678,1483,2664,3323,3435
946,2376,1429,-1661,-241,1903,-1078,-951,971,2200,2957,3103
702,1512,810,-1107,-53,1161,-1107,-1132,297,1298,1952,2220
156,390,234,-273,-39,312,-829,-1234,-483,-19,346,629
-258,-209,48,234,-153,-80,-497,-1058,-751,-624,-492,-283
-248,-283,-34,265,-107,-158,-292,-678,-570,-546,-502,-370
-214,-287,-73,251,-70,-180,-131,-405,-405,-414,-414,-336
-161,-239,-78,200,-41,-158,-58,-244,-287,-312,-322,-273
-141,-200,-58,170,-41,-129,0,-136,-200,-234,-263,-229
-131,-156,-24,143,-53,-90,48,-68,-131,-175,-200,-185
-122,-122,0,122,-61,-61,73,-24,-92,-126,-161,-156
-102,-107,-4,104,-48,-56,73,0,-73,-112,-146,-141
-92,-102,-9,97,-41,-56,78,24,-53,-97,-131,-136
-92,-102,-9,97,-41,-56,82,43,-29,-78,-122,-126
-92,-102,-9,97,-41,-56,92,53,-14,-63,-117,-112
-82,-102,-19,92,-31,-61,92,63,-4,-58,-107,-102
-82,-102,-19,92,-31,-61,97,73,0,-48,-97,-97
-82,-92,-9,87,-36,-51,102,82,4,-43,-97,-97
-82,-82,0,82,-41,-41,107,87,9,-34,-87,-87
-82,-82,0,82,-41,-41,107,92,9,-29,-82,-87
-78,-82,-4,80,-36,-43,107,97,19,-24,-82,-87
-78,-73,4,75,-41,-34,107,102,24,-19,-73,-87
-78,-73,4,75,-41,-34,107,107,24,-14,-63,-87
-78,-73,4,75,-41,-34,112,112,24,-14,-63,-82
-78,-73,4,75,-41,-34,112,112,34,-9,-63,-82
-73,-73,0,73,-36,-36,117,117,34,-9,-58,-82
-73,-73,0,73,-36,-36,122,117,34,-14,-58,-87
-68,-68,0,68,-34,-34,122,122,34,-9,-53,-87
-68,-68,0,68,-34,-34,117,126,39,-4,-53,-87
-68,-63,4,65,-36,-29,117,126,39,-4,-53,-87
-63,-63,0,63,-31,-31,126,131,48,-4,-48,-87
-63,-58,4,61,-34,-26,126,136,53,-4,-48,-87
-58,-58,0,58,-29,-29,126,141,53,0,-48,-87
-53,-53,0,53,-26,-26,126,141,53,0,-53,-82
-48,-53,-4,51,-21,-29,126,146,53,9,-58,-82
-43,-48,-4,46,-19,-26,131,146,53,9,-58,-78
-43,-48,-4,46,-19,-26,131,151,58,9,-48,-73
-39,-43,-4,41,-17,-24,131,161,58,14,-48,-73
-39,-43,-4,41,-17,-24,131,161,63,14,-48,-68
-39,-43,-4,41,-17,-24,131,161,58,14,-48,-68
-43,-43,0,43,-21,-21,131,165,53,14,-48,-68
-48,-48,0,48,-24,-24,136,170,58,14,-48,-63
-48,-48,0,48,-24,-24,136,175,63,9,-48,-63
-48,-53,-4,51,-21,-29,136,175,63,9,-48,-63
-53,-53,0,53,-26,-26,141,175,63,9,-53,-68
-53,-53,0,53,-26,-26,141,175,58,9,-58,-68
-53,-48,4,51,-29,-21,141,175,58,9,-63,-73
-53,-48,4,51,-29,-21,141,175,58,0,-68,-82
-53,-48,4,51,-29,-21,146,175,63,0,-68,-82
-58,-48,9,53,-34,-19,146,175,63,0,-73,-87
-63,-43,19,53,-41,-12,146,170,58,0,-73,-92
-63,-43,19,53,-41,-12,146,165,58,-14,-87,-97
-63,-43,19,53,-41,-12,146,161,48,-24,-97,-102
-63,-39,24,51,-43,-7,146,161,43,-29,-97,-102
-73,-34,39,53,-56,2,146,161,43,-29,-102,-112
-73,-34,39,53,-56,2,146,161,43,-29,-107,-122
-78,-34,43,56,-61,4,151,161,43,-43,-117,-131
-92,-39,53,65,-73,7,156,170,39,-58,-131,-141
-102,-43,58,73,-80,7,161,175,29,-73,-146,-151
-107,-53,53,80,-80,0,161,170,24,-87,-161,-175
-117,-63,53,90,-85,-4,165,165,9,-107,-180,-185
-126,-68,58,97,-92,-4,170,165,-4,-122,-200,-204
-141,-78,63,109,-102,-7,175,161,-14,-146,-224,-224
-156,-82,73,119,-114,-4,180,151,-24,-170,-248,-258
-175,-97,78,136,-126,-9,190,141,-48,-185,-278,-287
-190,-117,73,153,-131,-21,190,122,-68,-219,-312,-317
-204,-136,68,170,-136,-34,200,102,-87,-248,-351,-346
-224,-156,68,190,-146,-43,204,92,-112,-283,-385,-380
-244,-175,68,209,-156,-53,204,73,-146,-317,-424,-419
-263,-200,63,231,-163,-68,204,43,-175,-356,-473,-463
-287,-219,68,253,-178,-75,209,29,-204,-395,-522,-502
-307,-248,58,278,-183,-95,209,0,-234,-434,-566,-536
-336,-273,63,305,-200,-104,214,-29,-263,-483,-614,-575
-356,-307,48,331,-202,-129,214,-63,-297,-522,-653,-624
-375,-322,53,348,-214,-134,209,-92,-326,-566,-702,-663
-400,-351,48,375,-224,-151,209,-112,-356,-600,-727,-702
-409,-370,39,390,-224,-165,209,-141,-385,-634,-756,-732
-424,-395,29,409,-226,-183,209,-170,-409,-668,-800,-761
-429,-409,19,419,-224,-195,204,-190,-424,-697,-824,-785
-434,-419,14,427,-224,-202,200,-209,-444,-717,-839,-805
-434,-434,0,434,-217,-217,195,-219,-453,-732,-858,-819
-429,-434,-4,431,-212,-219,190,-229,-458,-732,-863,-819
-419,-429,-9,424,-204,-219,180,-229,-458,-732,-863,-814
-405,-429,-24,417,-190,-226,175,-234,-453,-722,-854,-810
-385,-429,-43,407,-170,-236,161,-234,-448,-697,-834,-790
-366,-419,-53,392,-156,-236,151,-234,-439,-678,-810,-766
-346,-414,-68,380,-139,-241,141,-229,-424,-649,-771,-732
-326,-390,-63,358,-131,-226,131,-214,-395,-624,-732,-688
-302,-370,-68,336,-117,-219,122,-195,-375,-585,-692,-644
-278,-346,-68,312,-104,-207,112,-190,-351,-546,-644,-600
-248,-317,-68,283,-90,-192,102,-180,-322,-502,-600,-551
-224,-292,-68,258,-78,-180,92,-165,-297,-458,-546,-502
-195,-268,-73,231,-61,-170,78,-141,-268,-409,-488,-448
-170,-234,-63,202,-53,-148,63,-131,-234,-356,-434,-395
-146,-209,-63,178,-41,-136,48,-122,-209,-312,-385,-356
-122,-180,-58,151,-31,-119,39,-112,-185,-268,-326,-297
-102,-156,-53,129,-24,-104,29,-97,-156,-224,-273,-248
-82,-136,-53,109,-14,-95,24,-82,-126,-185,-229,-209
-73,-117,-43,95,-14,-80,19,-73,-102,-161,-195,-165
-53,-92,-39,73,-7,-65,14,-63,-78,-126,-156,-131
-39,-78,-39,58,0,-58,4,-53,-58,-87,-117,-97
-24,-58,-34,41,4,-46,0,-43,-39,-58,-82,-63
-9,-39,-29,24,9,-34,0,-34,-24,-34,-58,-43
0,-14,-14,7,7,-14,-4,-24,-4,-9,-34,-14
14,-4,-19,-4,17,-12,-9,-19,4,9,-4,4
14,4,-9,-9,12,-2,-9,-14,14,24,9,24
14,14,0,-14,7,7,-9,-9,24,34,24,43
24,24,0,-24,12,12,-9,-9,39,43,34,43
34,34,0,-34,17,17,-9,0,43,58,48,58
34,43,9,-39,12,26,-9,0,48,68,58,63
34,48,14,-41,9,31,-9,4,53,78,73,73
34,48,14,-41,9,31,-9,14,58,87,73,73
34,43,9,-39,12,26,-9,24,58,92,82,78
29,53,24,-41,2,39,-9,24,63,92,82,78
24,53,29,-39,-2,41,-9,29,68,97,87,82
24,53,29,-39,-2,41,-4,29,78,97,87,87
24,53,29,-39,-2,41,-4,34,78,97,87,87
24,53,29,-39,-2,41,0,34,78,97,92,87
19,58,39,-39,-9,48,0,39,73,97,92,87
19,58,39,-39,-9,48,0,39,68,97,82,78
19,58,39,-39,-9,48,4,34,63,97,82,78
19,63,43,-41,-12,53,4,34,63,97,82,78
19,63,43,-41,-12,53,4,39,63,97,82,78
24,58,34,-41,-4,46,9,39,63,97,78,73
29,48,19,-39,4,34,9,43,63,97,63,63
24,43,19,-34,2,31,9,43,58,82,63,53
24,34,9,-29,7,21,14,43,58,78,58,48
14,34,19,-24,-2,26,14,48,58,78,58,48
9,34,24,-21,-7,29,19,53,53,68,48,43
4,24,19,-14,-7,21,19,53,53,68,48,39
4,19,14,-12,-4,17,19,48,43,58,48,34
0,14,14,-7,-7,14,19,43,43,58,34,34
0,14,14,-7,-7,14,19,39,39,53,29,34
0,14,14,-7,-7,14,19,39,43,48,24,19
0,9,9,-4,-4,9,19,34,43,43,19,19
0,-4,-4,2,2,-4,19,34,39,43,14,9
0,-9,-9,4,4,-9,19,29,34,39,4,4
-4,-9,-4,7,0,-7,19,29,24,39,-4,4
-4,-9,-4,7,0,-7,19,24,19,34,-14,0
-4,-9,-4,7,0,-7,19,24,14,19,-14,-4
-9,-9,0,9,-4,-4,14,19,9,19,-14,-9
-9,-19,-9,14,0,-14,14,14,9,14,-14,-9
-14,-19,-4,17,-4,-12,14,14,4,9,-19,-14
-14,-19,-4,17,-4,-12,14,14,0,9,-24,-14
-14,-19,-4,17,-4,-12,14,9,0,4,-29,-19
-4,-19,-14,12,4,-17,9,9,-4,0,-34,-19
-4,-19,-14,12,4,-17,9,9,-4,0,-34,-19
-4,-14,-9,9,2,-12,9,9,-4,0,-34,-19
-4,-9,-4,7,0,-7,9,4,-9,0,-29,-19
-4,-14,-9,9,2,-12,9,0,-9,-4,-29,-19
-4,-14,-9,9,2,-12,9,0,-9,-9,-29,-19
-4,-14,-9,9,2,-12,9,0,-9,-9,-34,-19
-4,-14,-9,9,2,-12,4,0,-14,-9,-39,-19
-4,-9,-4,7,0,-7,4,-4,-14,-4,-39,-19
-4,-9,-4,7,0,-7,4,-4,-14,-4,-39,-19
-4,-14,-9,9,2,-12,4,-4,-14,-4,-29,-19
-4,-19,-14,12,4,-17,4,-4,-14,-4,-24,-19
0,-19,-19,9,9,-19,4,-9,-14,-9,-24,-19
0,-14,-14,7,7,-14,0,-9,-19,-9,-24,-19
0,-9,-9,4,4,-9,0,-9,-19,-9,-29,-24
0,-4,-4,2,2,-4,-4,-9,-19,-9,-39,-29
0,-4,-4,2,2,-4,-4,-9,-19,-9,-34,-29
0,-4,-4,2,2,-4,-4,-9,-14,-4,-34,-24
0,-9,-9,4,4,-9,0,-9,-14,0,-29,-24
4,-14,-19,4,12,-17,0,-9,-14,4,-24,-19
4,-9,-14,2,9,-12,-4,-9,-14,4,-24,-19
0,-4,-4,2,2,-4,-4,-9,-14,4,-19,-19
0,0,0,0,0,0,-4,-9,-14,9,-19,-14
4,0,-4,-2,4,-2,-4,-9,-14,9,-19,-14
4,0,-4,-2,4,-2,-4,-14,-14,9,-19,-14
4,4,0,-4,2,2,-9,-14,-14,9,-14,-14
9,4,-4,-7,7,0,-9,-14,-14,9,-14,-14
9,4,-4,-7,7,0,-9,-14,-14,9,-9,-14
9,9,0,-9,4,4,-4,-14,-9,14,-14,-9
9,9,0,-9,4,4,-4,-14,-4,19,-19,-9
4,9,4,-7,0,7,-4,-14,-4,19,-14,-9
9,9,0,-9,4,4,-9,-19,-4,19,-14,-4
9,9,0,-9,4,4,-9,-19,0,24,-9,0
9,14,4,-12,2,9,-14,-19,0,29,-4,4
9,9,0,-9,4,4,-9,-14,0,29,0,4
9,9,0,-9,4,4,-9,-9,0,29,0,9
9,9,0,-9,4,4,-4,-9,0,29,0,9
9,9,0,-9,4,4,0,-9,0,29,0,9
9,9,0,-9,4,4,0,-9,0,29,0,9
9,9,0,-9,4,4,0,-9,0,29,0,9
9,9,0,-9,4,4,0,-9,0,29,0,9
9,9,0,-9,4,4,0,-9,0,29,0,9
9,9,0,-9,4,4,-4,-9,0,29,0,9
9,9,0,-9,4,4,-9,-9,0,29,0,9
9,9,0,-9,4,4,-9,-9,0,29,0,9
9,9,0,-9,4,4,-9,-9,0,29,0,9
9,9,0,-9,4,4,-9,-9,0,24,0,9
9,9,0,-9,4,4,-9,-9,0,19,0,9
9,9,0,-9,4,4,-9,-14,0,19,0,9
9,9,0,-9,4,4,-9,-19,0,19,0,9
9,14,4,-12,2,9,-14,-19,-4,24,0,14
9,19,9,-14,0,14,-19,-19,-9,29,0,19
9,19,9,-14,0,14,-19,-19,-9,29,0,19
9,19,9,-14,0,14,-19,-19,-9,29,0,19
9,19,9,-14,0,14,-19,-19,-4,29,0,19
9,19,9,-14,0,14,-19,-19,0,29,0,19
9,19,9,-14,0,14,-19,-14,0,29,0,19
9,19,9,-14,0,14,-19,-9,0,29,0,19
9,24,14,-17,-2,19,-19,-9,0,29,0,19
9,29,19,-19,-4,24,-19,-9,0,29,0,19
9,29,19,-19,-4,24,-19,-9,0,29,-4,19
9,29,19,-19,-4,24,-19,-9,0,29,-9,19
9,29,19,-19,-4,24,-19,-9,0,24,-9,19
9,29,19,-19,-4,24,-19,-9,0,19,-9,19
9,34,24,-21,-7,29,-19,-14,0,19,-9,14
9,39,29,-24,-9,34,-19,-19,0,19,-9,9
9,39,29,-24,-9,34,-19,-19,0,19,-9,9
9,39,29,-24,-9,34,-19,-19,0,19,-9,9
9,34,24,-21,-7,29,-19,-19,0,19,-9,9
9,29,19,-19,-4,24,-19,-19,0,19,-9,9
9,29,19,-19,-4,24,-19,-19,0,24,-9,9
9,29,19,-19,-4,24,-19,-19,0,29,-9,9
9,34,24,-21,-7,29,-19,-19,0,29,-9,9
9,39,29,-24,-9,34,-19,-19,0,29,-9,9
9,39,29,-24,-9,34,-19,-14,0,24,-9,9
9,39,29,-24,-9,34,-19,-9,0,19,-9,9
9,39,29,-24,-9,34,-19,-9,0,19,-9,9
9,39,29,-24,-9,34,-19,-9,0,19,-9,9
9,39,29,-24,-9,34,-19,-14,0,19,-9,9
9,39,29,-24,-9,34,-19,-19,0,19,-9,9
9,39,29,-24,-9,34,-19,-19,0,19,-9,14
9,39,29,-24,-9,34,-19,-19,0,19,-9,19
9,39,29,-24,-9,34,-19,-19,0,19,-9,19
9,39,29,-24,-9,34,-19,-19,0,19,-9,19
9,39,29,-24,-9,34,-19,-19,0,19,-9,14
9,39,29,-24,-9,34,-19,-19,0,19,-9,9
9,39,29,-24,-9,34,-19,-19,0,19,-14,9
9,39,29,-24,-9,34,-19,-19,0,19,-19,9
14,39,24,-26,-4,31,-19,-19,0,14,-19,9
19,39,19,-29,0,29,-19,-19,0,9,-19,9
19,39,19,-29,0,29,-19,-19,0,9,-19,9
19,39,19,-29,0,29,-19,-19,0,9,-19,9
19,39,19,-29,0,29,-19,-19,0,9,-19,9
19,39,19,-29,0,29,-19,-19,0,9,-19,9
19,39,19,-29,0,29,-19,-19,0,9,-19,9
19,39,19,-29,0,29,-19,-19,0,9,-19,9
19,39,19,-29,0,29,-19,-19,0,9,-19,9
19,39,19,-29,0,29,-19,-14,0,9,-14,9
24,43,19,-34,2,31,-24,-14,0,14,-14,14
24,58,34,-41,-4,46,-24,-9,4,19,-9,14
29,63,34,-46,-2,48,-14,-9,9,29,0,24
29,78,48,-53,-9,63,-4,0,19,34,0,29
29,87,58,-58,-14,73,0,9,24,39,0,29
29,97,68,-63,-19,82,4,9,29,43,0,24
24,97,73,-61,-24,85,4,9,29,43,0,24
19,97,78,-58,-29,87,0,4,29,43,0,24
19,92,73,-56,-26,82,-9,-4,29,39,0,29
24,87,63,-56,-19,75,-19,-14,24,39,0,34
34,92,58,-63,-12,75,-39,-24,14,34,0,34
39,107,68,-73,-14,87,-53,-34,14,34,0,34
58,131,73,-95,-7,102,-68,-43,14,43,4,34
53,141,87,-97,-17,114,-82,-63,0,34,4,43
53,141,87,-97,-17,114,-92,-73,-4,29,0,34
53,136,82,-95,-14,109,-92,-73,-4,29,0,34
63,136,73,-100,-4,104,-92,-73,0,29,0,43
82,141,58,-112,12,100,-92,-63,0,39,4,53
87,141,53,-114,17,97,-102,-63,-4,29,4,43
87,141,53,-114,17,97,-107,-68,-9,19,0,43
92,126,34,-109,29,80,-107,-73,-19,14,-4,39
82,126,43,-104,19,85,-102,-73,-24,9,-4,39
58,117,58,-87,0,87,-82,-63,-14,14,-4,39
34,107,73,-70,-19,90,-58,-39,-9,14,-4,39
19,87,68,-53,-24,78,-48,-48,-4,14,-14,24
4,63,58,-34,-26,61,-43,-48,-9,4,-24,9
0,53,53,-26,-26,53,-43,-53,-19,-9,-34,0
-4,48,53,-21,-29,51,-48,-53,-29,-14,-43,-4
0,39,39,-19,-19,39,-48,-63,-39,-29,-48,-14
0,29,29,-14,-14,29,-53,-63,-43,-34,-53,-19
-4,29,34,-12,-19,31,-53,-63,-43,-34,-53,-19
-4,29,34,-12,-19,31,-48,-63,-43,-34,-53,-24
-4,34,39,-14,-21,36,-48,-63,-43,-29,-48,-24
-9,34,43,-12,-26,39,-48,-58,-39,-19,-48,-24
-4,39,43,-17,-24,41,-43,-58,-34,-19,-48,-19
0,43,43,-21,-21,43,-43,-58,-34,-19,-43,-19
0,43,43,-21,-21,43,-43,-58,-34,-19,-43,-19
0,43,43,-21,-21,43,-43,-58,-34,-14,-43,-19
-4,43,48,-19,-26,46,-48,-63,-34,-14,-43,-19
-9,29,39,-9,-24,34,-43,-53,-29,-14,-48,-24
-14,-4,9,9,-12,2,-29,-48,-48,-48,-87,-58
9,-19,-29,4,19,-24,-14,-9,-43,-58,-92,-73
24,-53,-78,14,51,-65,48,117,9,-29,-97,-87
141,-4,-146,-68,143,-75,43,234,97,97,29,29
405,244,-161,-324,283,41,-68,283,287,400,385,370
741,649,-92,-695,417,278,-185,414,610,888,946,897
1127,1151,24,-1139,551,588,-390,424,927,1439,1610,1561
1424,1747,322,-1586,551,1034,-629,234,1146,1888,2196,2196
1595,2400,805,-1998,395,1603,-819,-43,1327,2283,2747,2801
1405,2874,1468,-2139,-31,2171,-800,-278,1532,2610,3167,3245
1210,3084,1873,-2147,-331,2479,-883,-566,1571,2771,3430,3533
1044,2796,1751,-1920,-353,2274,-1029,-839,1244,2508,3240,3376
814,1815,1000,-1315,-92,1407,-1132,-1132,429,1473,2113,2425
356,761,405,-558,-24,583,-985,-1307,-366,248,692,1039
-161,58,219,51,-190,139,-610,-1117,-692,-483,-322,-73
-297,-219,78,258,-187,-70,-370,-814,-678,-663,-644,-463
-244,-209,34,226,-139,-87,-209,-522,-492,-502,-517,-395
-180,-161,19,170,-100,-70,-122,-322,-356,-380,-409,-331
-156,-131,24,143,-90,-53,-53,-195,-248,-287,-346,-283
-141,-97,43,119,-92,-26,4,-107,-165,-219,-283,-229
-131,-53,78,92,-104,12,29,-73,-126,-170,-244,-195
-112,-29,82,70,-97,26,34,-48,-102,-151,-224,-180
-97,-19,78,58,-87,29,39,-24,-82,-136,-209,-175
-92,-14,78,53,-85,31,43,-9,-68,-122,-200,-170
-87,-14,73,51,-80,29,53,-4,-63,-117,-195,-161
-73,-14,58,43,-65,21,53,4,-53,-117,-185,-151
-73,-9,63,41,-68,26,53,14,-43,-107,-175,-141
-73,0,73,36,-73,36,53,24,-34,-102,-175,-136
-73,4,78,34,-75,41,58,29,-29,-92,-165,-126
-73,4,78,34,-75,41,58,34,-29,-92,-161,-126
-68,4,73,31,-70,39,58,43,-24,-92,-161,-126
-68,14,82,26,-75,48,58,53,-24,-87,-156,-126
-68,14,82,26,-75,48,58,58,-24,-82,-151,-126
-68,14,82,26,-75,48,63,63,-24,-82,-151,-122
-68,14,82,26,-75,48,63,63,-14,-78,-146,-122
-63,19,82,21,-73,51,68,68,-14,-73,-136,-122
-63,24,87,19,-75,56,73,68,-14,-73,-136,-126
-58,29,87,14,-73,58,73,73,-14,-68,-131,-126
-58,29,87,14,-73,58,68,78,-9,-63,-131,-131
-58,34,92,12,-75,63,68,78,-9,-63,-131,-136
-53,39,92,7,-73,65,78,82,0,-63,-126,-136
-53,48,102,2,-78,75,78,87,4,-63,-126,-136
-48,48,97,0,-73,73,78,92,4,-58,-126,-136
-48,53,102,-2,-75,78,78,92,4,-58,-126,-131
-48,53,102,-2,-75,78,73,92,4,-48,-126,-131
-43,58,102,-7,-73,80,73,87,4,-48,-126,-126
-43,58,102,-7,-73,80,73,92,9,-48,-117,-122
-39,63,102,-12,-70,82,73,102,9,-43,-117,-122
-39,63,102,-12,-70,82,73,102,14,-39,-117,-117
-34,63,97,-14,-65,80,73,102,14,-34,-117,-117
-34,63,97,-14,-65,80,73,107,14,-34,-117,-117
-39,58,97,-9,-68,78,78,112,19,-34,-117,-117
-39,58,97,-9,-68,78,78,117,24,-43,-117,-122
-39,53,92,-7,-65,73,78,117,24,-48,-117,-122
-43,53,97,-4,-70,75,78,117,24,-48,-122,-126
-48,53,102,-2,-75,78,73,117,19,-48,-126,-126
-53,58,112,-2,-82,85,73,117,19,-48,-131,-131
-53,58,112,-2,-82,85,73,117,19,-58,-136,-141
-53,58,112,-2,-82,85,78,117,24,-58,-136,-141
-58,58,117,0,-87,87,78,117,24,-58,-141,-146
-68,53,122,7,-95,87,78,117,19,-53,-136,-151
-73,43,117,14,-95,80,78,122,19,-63,-146,-156
-73,39,112,17,-92,75,82,122,14,-73,-156,-161
-73,34,107,19,-90,70,87,122,14,-78,-161,-161
-82,29,112,26,-97,70,87,122,14,-78,-165,-161
-82,24,107,29,-95,65,87,122,9,-78,-165,-161
-82,24,107,29,-95,65,92,122,4,-82,-175,-170
-92,19,112,36,-102,65,97,126,0,-87,-190,-180
-102,14,117,43,-109,65,102,131,-4,-102,-200,-190
-107,4,112,51,-109,58,102,131,-4,-117,-209,-214
-117,-9,107,63,-112,48,107,126,-14,-136,-229,-224
-126,-19,107,73,-117,43,112,126,-24,-151,-248,-244
-141,-29,112,85,-126,41,117,122,-34,-170,-268,-258
-156,-39,117,97,-136,39,122,112,-43,-195,-292,-287
-175,-58,117,117,-146,29,136,112,-63,-209,-317,-312
-190,-78,112,134,-151,17,141,102,-78,-239,-341,-341
-200,-102,97,151,-148,-2,151,82,-97,-268,-380,-375
-214,-126,87,170,-151,-19,156,73,-122,-307,-414,-409
-234,-146,87,190,-161,-29,161,53,-151,-346,-453,-448
-253,-175,78,214,-165,-48,165,24,-175,-385,-502,-492
-278,-200,78,239,-178,-61,170,14,-204,-424,-551,-531
-297,-229,68,263,-183,-80,170,-9,-234,-463,-595,-570
-326,-253,73,290,-200,-90,175,-39,-258,-512,-644,-610
-341,-287,53,314,-197,-117,175,-68,-287,-551,-683,-653
-361,-312,48,336,-204,-131,170,-92,-317,-595,-736,-692
-390,-346,43,368,-217,-151,170,-112,-346,-629,-775,-732
-400,-366,34,383,-217,-165,175,-141,-380,-663,-814,-761
-414,-395,19,405,-217,-187,180,-165,-409,-692,-849,-790
-424,-409,14,417,-219,-197,175,-185,-424,-717,-868,-819
-434,-419,14,427,-224,-202,170,-209,-444,-732,-888,-839
-439,-444,-4,441,-217,-224,170,-219,-453,-751,-912,-858
-439,-458,-19,448,-209,-239,170,-229,-458,-761,-922,-868
-429,-463,-34,446,-197,-248,161,-229,-468,-766,-927,-868
-414,-468,-53,441,-180,-261,156,-234,-473,-766,-917,-863
-400,-468,-68,434,-165,-268,141,-234,-468,-746,-897,-839
-385,-453,-68,419,-158,-261,131,-234,-453,-727,-878,-814
-366,-448,-82,407,-141,-265,122,-229,-434,-702,-849,-790
-346,-429,-82,387,-131,-256,112,-219,-405,-678,-814,-756
-322,-414,-92,368,-114,-253,102,-209,-390,-634,-771,-712
-297,-395,-97,346,-100,-246,92,-209,-366,-590,-712,-663
-268,-366,-97,317,-85,-231,82,-200,-331,-546,-658,-610
-244,-341,-97,292,-73,-219,73,-185,-307,-507,-605,-561
-214,-326,-112,270,-51,-219,58,-161,-278,-458,-546,-507
-190,-302,-112,246,-39,-207,43,-151,-244,-405,-492,-448
-165,-278,-112,222,-26,-195,29,-141,-219,-356,-439,-400
-141,-248,-107,195,-17,-178,19,-131,-195,-307,-375,-336
-117,-224,-107,170,-4,-165,9,-117,-161,-263,-322,-287
-92,-200,-107,146,7,-153,4,-102,-131,-219,-278,-248
-82,-175,-92,129,4,-134,0,-92,-112,-190,-239,-204
-63,-151,-87,107,12,-119,-4,-82,-87,-156,-195,-170
-48,-136,-87,92,19,-112,-14,-68,-68,-112,-151,-126
-39,-117,-78,78,19,-97,-19,-53,-48,-78,-112,-82
-29,-97,-68,63,19,-82,-19,-43,-34,-53,-87,-63
-19,-78,-58,48,19,-68,-24,-34,-14,-29,-63,-34
0,-68,-68,34,34,-68,-34,-29,-4,-4,-29,-14
4,-53,-58,24,31,-56,-39,-24,4,14,-9,4
4,-43,-48,19,26,-46,-39,-19,14,24,4,29
14,-39,-53,12,34,-46,-39,-19,29,34,14,39
24,-34,-58,4,41,-46,-39,-9,39,48,29,58
24,-24,-48,0,36,-36,-39,-9,48,53,34,63
24,-19,-43,-2,34,-31,-39,-4,53,58,48,78
24,-14,-39,-4,31,-26,-39,0,58,68,53,82
29,-14,-43,-7,36,-29,-39,4,58,73,63,87
34,-4,-39,-14,36,-21,-39,4,63,73,63,87
34,-4,-39,-14,36,-21,-39,4,68,78,68,92
34,-4,-39,-14,36,-21,-34,0,78,78,68,97
34,-4,-39,-14,36,-21,-34,4,78,78,68,102
34,-4,-39,-14,36,-21,-29,4,78,78,73,107
29,0,-29,-14,29,-14,-29,9,73,78,73,107
29,0,-29,-14,29,-14,-29,14,73,78,63,97
24,0,-24,-12,24,-12,-24,14,73,78,63,92
19,4,-14,-12,17,-4,-24,14,73,78,63,87
19,4,-14,-12,17,-4,-29,19,73,78,68,87
19,0,-19,-9,19,-9,-29,19,73,78,68,82
24,-9,-34,-7,29,-21,-29,29,73,78,53,73
24,-9,-34,-7,29,-21,-29,34,68,68,53,63
24,-19,-43,-2,34,-31,-24,34,73,68,48,58
19,-24,-43,2,31,-34,-24,34,78,68,48,58
19,-24,-43,2,31,-34,-19,34,73,63,39,53
14,-34,-48,9,31,-41,-19,34,73,68,39,48
14,-34,-48,9,31,-41,-19,29,58,58,39,43
9,-34,-43,12,26,-39,-19,24,53,53,24,43
9,-34,-43,12,26,-39,-19,19,48,39,19,43
9,-34,-43,12,26,-39,-19,19,48,29,14,29
4,-39,-43,17,24,-41,-19,14,43,24,14,29
0,-48,-48,24,24,-48,-19,14,39,24,14,19
0,-48,-48,24,24,-48,-19,9,34,19,4,14
-4,-48,-43,26,19,-46,-19,9,29,19,0,14
0,-43,-43,21,21,-43,-19,4,29,14,-14,4
4,-43,-48,19,26,-46,-19,4,24,0,-24,-4
0,-48,-48,24,24,-48,-19,0,19,0,-24,-9
0,-58,-58,29,29,-58,-14,-4,19,-4,-24,-9
-4,-63,-58,34,26,-61,-14,-9,14,-9,-24,-14
-4,-68,-63,36,29,-65,-14,-14,9,-9,-24,-14
-4,-68,-63,36,29,-65,-19,-19,9,-14,-29,-19
4,-68,-73,31,39,-70,-29,-19,4,-19,-34,-19
4,-68,-73,31,39,-70,-29,-19,4,-19,-34,-19
4,-68,-73,31,39,-70,-29,-19,4,-19,-39,-19
4,-68,-73,31,39,-70,-29,-19,4,-19,-34,-19
4,-73,-78,34,41,-75,-29,-19,9,-19,-29,-19
4,-73,-78,34,41,-75,-29,-19,9,-19,-29,-19
4,-73,-78,34,41,-75,-29,-19,9,-19,-29,-19
4,-73,-78,34,41,-75,-34,-19,0,-19,-34,-24
4,-68,-73,31,39,-70,-34,-24,-4,-19,-39,-29
4,-68,-73,31,39,-70,-34,-24,-4,-24,-39,-29
4,-73,-78,34,41,-75,-34,-24,-4,-24,-34,-29
4,-78,-82,36,43,-80,-34,-24,-4,-24,-34,-29
9,-78,-87,34,48,-82,-34,-29,-4,-24,-34,-29
9,-73,-82,31,46,-78,-39,-29,-9,-19,-34,-29
9,-73,-82,31,46,-78,-39,-29,-9,-19,-29,-29
9,-73,-82,31,46,-78,-43,-34,-9,-19,-29,-29
9,-73,-82,31,46,-78,-43,-39,-9,-19,-24,-29
9,-63,-73,26,41,-68,-43,-39,-4,-14,-24,-24
9,-53,-63,21,36,-58,-39,-39,-4,-14,-24,-24
14,-63,-78,24,46,-70,-39,-39,-4,-14,-24,-19
14,-68,-82,26,48,-75,-43,-39,-4,-14,-24,-19
9,-63,-73,26,41,-68,-48,-39,-4,-9,-19,-19
9,-63,-73,26,41,-68,-53,-39,-4,0,-19,-14
9,-68,-78,29,43,-73,-53,-39,-4,0,-19,-14
4,-68,-73,31,39,-70,-53,-43,-4,0,-19,-14
4,-63,-68,29,36,-65,-58,-43,-4,0,-14,-14
9,-63,-73,26,41,-68,-58,-43,-4,0,-14,-14
9,-58,-68,24,39,-63,-58,-43,-4,0,-9,-14
9,-53,-63,21,36,-58,-53,-43,-4,0,-9,-9
9,-58,-68,24,39,-63,-53,-43,-4,0,-9,-9
4,-58,-63,26,34,-61,-53,-43,-4,0,-4,-9
4,-58,-63,26,34,-61,-58,-48,-4,0,-4,-4
9,-58,-68,24,39,-63,-58,-48,0,4,0,0
14,-63,-78,24,46,-70,-58,-48,0,4,0,0
19,-68,-87,24,53,-78,-58,-48,0,9,0,0
19,-58,-78,19,48,-68,-58,-48,0,9,0,0
19,-48,-68,14,43,-58,-58,-48,0,9,0,0
19,-48,-68,14,43,-58,-58,-48,0,9,0,4
19,-48,-68,14,43,-58,-58,-48,0,9,0,9
19,-53,-73,17,46,-63,-58,-43,0,4,0,9
19,-58,-78,19,48,-68,-58,-39,0,0,0,9
19,-58,-78,19,48,-68,-58,-39,0,0,0,9
19,-58,-78,19,48,-68,-58,-39,0,0,0,9
19,-58,-78,19,48,-68,-58,-43,0,4,0,9
19,-58,-78,19,48,-68,-58,-48,0,9,0,9
19,-58,-78,19,48,-68,-58,-48,0,9,0,9
19,-58,-78,19,48,-68,-58,-48,0,9,0,9
19,-58,-78,19,48,-68,-58,-48,0,9,4,9
19,-58,-78,19,48,-68,-58,-48,0,9,9,9
19,-58,-78,19,48,-68,-58,-48,0,9,9,9
19,-58,-78,19,48,-68,-58,-48,0,9,9,9
19,-53,-73,17,46,-63,-58,-48,0,9,9,9
19,-48,-68,14,43,-58,-58,-48,0,9,9,9
19,-48,-68,14,43,-58,-63,-48,0,9,9,9
19,-48,-68,14,43,-58,-68,-48,0,9,9,9
19,-48,-68,14,43,-58,-68,-48,0,9,9,9
19,-48,-68,14,43,-58,-68,-48,0,9,9,9
19,-48,-68,14,43,-58,-63,-48,0,9,9,9
19,-48,-68,14,43,-58,-58,-48,0,9,9,9
19,-48,-68,14,43,-58,-58,-48,0,9,9,9
19,-48,-68,14,43,-58,-58,-48,0,9,9,9
19,-48,-68,14,43,-58,-58,-48,0,9,9,14
19,-48,-68,14,43,-58,-58,-48,0,9,9,19
19,-48,-68,14,43,-58,-58,-48,0,14,9,19
19,-48,-68,14,43,-58,-58,-48,0,19,9,19
19,-48,-68,14,43,-58,-63,-48,0,19,9,19
19,-48,-68,14,43,-58,-68,-48,0,19,9,19
19,-48,-68,14,43,-58,-68,-53,0,14,9,19
19,-48,-68,14,43,-58,-68,-58,0,9,9,19
19,-48,-68,14,43,-58,-63,-58,0,9,9,19
19,-48,-68,14,43,-58,-58,-58,0,9,9,19
19,-48,-68,14,43,-58,-58,-58,0,9,9,19
19,-48,-68,14,43,-58,-58,-58,0,9,9,19
19,-48,-68,14,43,-58,-58,-58,0,9,9,19
19,-48,-68,14,43,-58,-58,-58,0,9,9,19
19,-48,-68,14,43,-58,-63,-58,0,9,9,19
19,-48,-68,14,43,-58,-68,-58,0,9,9,19
19,-48,-68,14,43,-58,-68,-58,0,9,9,19
19,-48,-68,14,43,-58,-68,-58,0,9,9,19
19,-53,-73,17,46,-63,-63,-53,0,9,14,19
19,-58,-78,19,48,-68,-58,-48,0,9,19,19
19,-58,-78,19,48,-68,-58,-48,0,9,19,19
19,-58,-78,19,48,-68,-58,-48,0,9,19,19
19,-53,-73,17,46,-63,-63,-48,0,9,19,19
19,-48,-68,14,43,-58,-68,-48,0,9,19,19
19,-48,-68,14,43,-58,-68,-53,0,9,19,19
19,-48,-68,14,43,-58,-68,-58,0,9,19,19
19,-48,-68,14,43,-58,-68,-58,0,9,19,14
19,-48,-68,14,43,-58,-68,-58,0,9,19,9
19,-53,-73,17,46,-63,-68,-58,0,4,14,9
19,-58,-78,19,48,-68,-68,-58,0,0,9,9
19,-58,-78,19,48,-68,-68,-58,0,0,9,9
19,-58,-78,19,48,-68,-68,-58,0,0,9,9
19,-53,-73,17,46,-63,-68,-53,0,4,14,14
19,-48,-68,14,43,-58,-68,-48,0,9,19,19
19,-43,-63,12,41,-53,-68,-48,0,14,24,24
24,-43,-68,9,46,-56,-68,-43,4,14,24,24
24,-29,-53,2,39,-41,-58,-39,14,19,29,24
29,-24,-53,-2,41,-39,-43,-34,19,29,39,34
29,-9,-39,-9,34,-24,-34,-19,29,34,34,39
29,-4,-34,-12,31,-19,-29,-9,34,39,34,43
29,0,-29,-14,29,-14,-29,-14,39,43,39,43
29,0,-29,-14,29,-14,-34,-24,39,43,39,43
29,4,-24,-17,26,-9,-39,-34,39,43,39,43
29,9,-19,-19,24,-4,-53,-43,39,39,39,43
34,9,-24,-21,29,-7,-68,-53,34,39,39,43
43,14,-29,-29,36,-7,-87,-63,24,34,39,43
48,29,-19,-39,34,4,-102,-68,24,34,39,43
63,48,-14,-56,39,17,-112,-68,24,43,43,43
53,53,0,-53,26,26,-122,-82,9,29,43,53
53,53,0,-53,26,26,-131,-92,4,19,39,43
53,48,-4,-51,29,21,-131,-92,0,19,43,43
63,48,-14,-56,39,17,-131,-92,0,19,48,53
82,53,-29,-68,56,12,-131,-82,0,34,53,63
87,53,-34,-70,61,9,-136,-82,-4,29,53,53
87,53,-34,-70,61,9,-136,-87,-4,19,48,53
87,39,-48,-63,68,-4,-131,-87,-4,19,43,48
73,39,-34,-56,53,2,-122,-82,-4,19,43,48
48,24,-24,-36,36,0,-102,-73,4,24,43,48
29,9,-19,-19,24,-4,-78,-48,9,24,48,48
24,-9,-34,-7,29,-21,-73,-58,9,24,43,34
14,-34,-48,9,31,-41,-73,-58,0,14,34,19
14,-43,-58,14,36,-51,-73,-63,-9,0,24,9
14,-53,-68,19,41,-61,-78,-63,-19,-4,14,4
19,-68,-87,24,53,-78,-78,-73,-24,-14,9,0
19,-78,-97,29,58,-87,-82,-68,-24,-14,4,0
14,-78,-92,31,53,-85,-82,-63,-24,-14,4,0
9,-78,-87,34,48,-82,-78,-63,-24,-14,4,-4
4,-73,-78,34,41,-75,-78,-63,-24,-14,9,-4
0,-68,-68,34,34,-68,-78,-58,-19,-9,9,-9
0,-63,-63,31,31,-63,-73,-58,-14,-9,9,-9
0,-63,-63,31,31,-63,-73,-58,-14,-9,14,-9
0,-63,-63,31,31,-63,-73,-58,-14,-9,14,-9
0,-63,-63,31,31,-63,-73,-58,-14,-4,14,-9
0,-63,-63,31,31,-63,-68,-53,-14,-4,14,-9
0,-78,-78,39,39,-78,-53,-29,-4,0,9,-14
9,-97,-107,43,58,-102,-39,4,4,4,0,-24
53,-97,-151,21,102,-124,-24,68,34,34,39,0
131,-53,-185,-39,158,-119,0,180,131,146,151,97
307,87,-219,-197,263,-65,-43,278,263,375,409,346
585,429,-156,-507,370,136,-180,287,488,766,878,814
917,912,-4,-915,461,453,-331,370,834,1307,1522,1434
1205,1429,224,-1317,490,827,-546,268,1078,1795,2147,2074
1420,2030,610,-1725,405,1320,-771,-4,1229,2171,2679,2684
1473,2522,1049,-1998,212,1786,-912,-268,1337,2440,3084,3152
1171,2840,1668,-2005,-248,2254,-844,-502,1459,2649,3352,3440
976,2747,1771,-1861,-397,2259,-912,-766,1278,2518,3274,3396
810,2142,1332,-1476,-261,1737,-1044,-1005,732,1932,2732,2884
546,1190,644,-868,-48,917,-1010,-1151,24,907,1551,1820
68,175,107,-122,-19,141,-741,-1176,-619,-248,107,366
-278,-317,-39,297,-119,-178,-419,-922,-751,-692,-570,-409
-248,-356,-107,302,-70,-231,-253,-580,-561,-585,-546,-453
-195,-326,-131,261,-31,-229,-131,-346,-385,-424,-424,-375
-141,-273,-131,207,-4,-202,-73,-200,-268,-317,-322,-307
-122,-229,-107,175,-7,-168,-29,-107,-180,-234,-253,-258
-112,-185,-73,148,-19,-129,14,-48,-117,-180,-195,-209
-102,-151,-48,126,-26,-100,34,-14,-82,-136,-161,-175
-82,-136,-53,109,-14,-95,39,9,-58,-122,-141,-156
-73,-131,-58,102,-7,-95,48,34,-34,-107,-122,-146
-73,-126,-53,100,-9,-90,53,48,-19,-87,-112,-136
-73,-122,-48,97,-12,-85,63,53,-14,-73,-107,-122
-63,-122,-58,92,-2,-90,63,63,-4,-68,-97,-112
-63,-122,-58,92,-2,-90,68,73,0,-58,-87,-107
-63,-117,-53,90,-4,-85,73,82,4,-53,-87,-107
-63,-112,-48,87,-7,-80,78,87,9,-43,-78,-97
-63,-112,-48,87,-7,-80,78,97,9,-43,-73,-97
-58,-112,-53,85,-2,-82,78,107,19,-43,-73,-97
-53,-107,-53,80,0,-80,78,112,24,-39,-68,-97
-48,-112,-63,80,7,-87,78,117,24,-34,-63,-97
-48,-112,-63,80,7,-87,82,122,24,-39,-63,-92
-48,-112,-63,80,7,-87,82,122,34,-39,-63,-92
-43,-107,-63,75,9,-85,87,126,34,-34,-58,-92
-43,-102,-58,73,7,-80,92,126,34,-34,-58,-97
-39,-97,-58,68,9,-78,92,131,34,-29,-48,-97
-39,-97,-58,68,9,-78,87,136,39,-24,-43,-97
-39,-92,-53,65,7,-73,87,136,34,-19,-43,-97
-34,-92,-58,63,12,-75,97,141,39,-14,-39,-97
-39,-87,-48,63,4,-68,97,141,43,-14,-34,-92
-39,-87,-48,63,4,-68,97,141,43,-9,-29,-87
-39,-82,-43,61,2,-63,97,141,48,-9,-29,-82
-39,-82,-43,61,2,-63,97,146,53,0,-29,-82
-34,-82,-48,58,7,-65,102,146,53,-4,-34,-82
-34,-87,-53,61,9,-70,102,151,58,-9,-29,-82
-29,-82,-53,56,12,-68,102,161,58,-4,-29,-82
-29,-82,-53,56,12,-68,102,161,63,-4,-29,-78
-24,-82,-58,53,17,-70,102,161,63,-4,-29,-78
-24,-82,-58,53,17,-70,102,165,63,-4,-29,-78
-29,-87,-58,58,14,-73,107,170,68,-4,-29,-78
-29,-87,-58,58,14,-73,107,175,73,-9,-29,-82
-29,-92,-63,61,17,-78,107,175,73,-9,-29,-82
-34,-92,-58,63,12,-75,112,175,73,-9,-34,-87
-39,-92,-53,65,7,-73,112,180,68,-9,-39,-87
-43,-87,-43,65,0,-65,112,185,68,-9,-43,-92
-43,-87,-43,65,0,-65,112,185,63,-19,-48,-102
-43,-87,-43,65,0,-65,117,185,63,-19,-48,-102
-48,-87,-39,68,-4,-63,117,185,63,-14,-53,-107
-53,-82,-29,68,-12,-56,117,180,58,-9,-53,-112
-53,-78,-24,65,-14,-51,117,180,63,-24,-68,-117
-53,-73,-19,63,-17,-46,117,180,58,-34,-78,-122
-53,-73,-19,63,-17,-46,117,180,53,-39,-82,-122
-63,-73,-9,68,-26,-41,117,180,53,-39,-92,-131
-58,-73,-14,65,-21,-43,117,180,48,-39,-97,-141
-58,-73,-14,65,-21,-43,122,180,43,-53,-107,-151
-73,-78,-4,75,-34,-41,126,185,39,-68,-122,-161
-82,-82,0,82,-41,-41,131,185,29,-82,-136,-170
-87,-87,0,87,-43,-43,131,175,19,-97,-151,-200
-97,-92,4,95,-51,-43,136,165,0,-117,-170,-214
-107,-97,9,102,-58,-43,141,165,-14,-131,-190,-234
-122,-107,14,114,-68,-46,146,161,-24,-156,-214,-253
-136,-117,19,126,-78,-48,151,156,-34,-190,-244,-287
-156,-136,19,146,-87,-58,161,151,-58,-214,-278,-317
-170,-156,14,163,-92,-70,161,136,-78,-248,-312,-351
-185,-175,9,180,-97,-82,170,122,-97,-278,-351,-385
-204,-195,9,200,-107,-92,175,112,-122,-317,-390,-424
-224,-214,9,219,-117,-102,175,92,-156,-356,-434,-468
-244,-248,-4,246,-119,-126,175,63,-185,-400,-483,-512
-268,-278,-9,273,-129,-143,180,48,-214,-444,-531,-551
-287,-307,-19,297,-134,-163,185,19,-244,-483,-575,-590
-317,-331,-14,324,-151,-173,195,-9,-273,-531,-624,-634
-331,-361,-29,346,-151,-195,195,-39,-307,-570,-663,-683
-346,-370,-24,358,-161,-197,190,-63,-336,-614,-712,-722
-370,-395,-24,383,-173,-209,190,-82,-366,-653,-751,-761
-380,-409,-29,395,-175,-219,190,-112,-395,-692,-795,-790
-395,-434,-39,414,-178,-236,190,-136,-419,-722,-834,-819
-400,-448,-48,424,-175,-248,185,-151,-434,-746,-854,-844
-405,-458,-53,431,-175,-256,180,-170,-453,-766,-868,-858
-405,-473,-68,439,-168,-270,175,-180,-463,-780,-888,-868
-400,-483,-82,441,-158,-283,170,-190,-468,-780,-893,-868
-390,-488,-97,439,-146,-292,161,-190,-468,-780,-893,-863
-375,-488,-112,431,-131,-300,161,-195,-468,-771,-873,-854
-356,-488,-131,422,-112,-309,151,-195,-468,-746,-844,-829
-341,-473,-131,407,-104,-302,141,-195,-453,-727,-819,-805
-326,-463,-136,395,-95,-300,131,-190,-434,-697,-780,-771
-307,-439,-131,373,-87,-285,117,-180,-405,-663,-736,-727
-283,-419,-136,351,-73,-278,102,-165,-385,-614,-692,-683
-258,-395,-136,326,-61,-265,92,-161,-356,-570,-634,-634
-229,-366,-136,297,-46,-251,82,-151,-322,-522,-580,-580
-204,-341,-136,273,-34,-239,78,-136,-297,-473,-522,-527
-175,-317,-141,246,-17,-229,68,-112,-268,-419,-458,-468
-151,-283,-131,217,-9,-207,53,-102,-234,-366,-405,-409
-126,-258,-131,192,2,-195,39,-92,-209,-322,-356,-366
-102,-229,-126,165,12,-178,29,-82,-180,-278,-297,-307
-82,-204,-122,143,19,-163,19,-68,-146,-234,-244,-258
-63,-180,-117,122,26,-148,14,-53,-122,-190,-195,-219
-53,-156,-102,104,24,-129,9,-43,-102,-161,-156,-175
-34,-126,-92,80,29,-109,4,-39,-78,-126,-112,-131
-19,-107,-87,63,34,-97,-4,-34,-58,-87,-68,-87
-9,-87,-78,48,34,-82,-9,-24,-39,-58,-34,-48
0,-68,-68,34,34,-68,-9,-14,-24,-34,-9,-24
9,-53,-63,21,36,-58,-14,-4,-4,-9,14,4
24,-53,-78,14,51,-65,-19,0,4,9,43,24
24,-43,-68,9,46,-56,-19,9,14,29,63,43
24,-34,-58,4,41,-46,-19,19,24,43,82,63
34,-24,-58,-4,46,-41,-19,19,39,53,92,68
43,-14,-58,-14,51,-36,-19,29,43,68,107,87
39,-4,-43,-17,41,-24,-19,29,48,73,112,92
34,0,-34,-17,34,-17,-19,34,53,78,122,102
34,4,-29,-19,31,-12,-19,39,63,87,126,102
34,4,-29,-19,31,-12,-19,43,68,92,141,107
34,14,-19,-24,26,-2,-19,43,73,92,141,107
34,14,-19,-24,26,-2,-19,48,78,97,146,112
34,14,-19,-24,26,-2,-14,48,82,97,141,117
34,14,-19,-24,26,-2,-14,53,78,97,136,117
34,9,-24,-21,29,-7,-9,53,78,97,141,117
29,9,-19,-19,24,-4,-9,58,73,97,141,117
29,9,-19,-19,24,-4,-9,63,73,97,131,107
29,9,-19,-19,24,-4,-4,63,73,97,131,107
29,14,-14,-21,21,0,-4,58,73,97,131,107
29,14,-14,-21,21,0,-4,58,73,97,131,107
29,14,-14,-21,21,0,0,58,73,97,131,102
29,9,-19,-19,24,-4,0,63,73,97,122,92
24,9,-14,-17,19,-2,0,63,68,87,122,82
24,4,-19,-14,21,-7,4,63,68,87,117,78
24,0,-24,-12,24,-12,4,63,68,87,117,73
29,-4,-34,-12,31,-19,9,63,63,78,107,63
24,-14,-39,-4,31,-26,9,68,63,78,107,58
24,-19,-43,-2,34,-31,9,68,53,68,107,53
19,-24,-43,2,31,-34,9,63,53,63,87,53
19,-24,-43,2,31,-34,9,58,48,53,78,53
14,-24,-39,4,26,-31,9,53,48,48,73,39
9,-29,-39,9,24,-34,9,43,43,43,68,39
9,-39,-48,14,29,-43,9,43,39,43,63,29
9,-39,-48,14,29,-43,9,39,34,39,53,24
4,-39,-43,17,24,-41,9,39,29,39,48,24
4,-39,-43,17,24,-41,9,34,29,34,43,19
9,-43,-53,17,31,-48,9,34,24,19,43,19
9,-48,-58,19,34,-53,4,29,19,19,43,19
9,-58,-68,24,39,-63,4,24,19,14,43,19
4,-58,-63,26,34,-61,4,24,14,9,39,14
4,-58,-63,26,34,-61,4,24,9,9,34,14
4,-58,-63,26,34,-61,4,19,9,4,29,9
9,-58,-68,24,39,-63,0,19,4,0,24,9
4,-58,-63,26,34,-61,0,19,4,0,24,9
4,-58,-63,26,34,-61,0,24,4,0,19,9
4,-58,-63,26,34,-61,0,24,0,0,19,9
4,-63,-68,29,36,-65,0,19,0,0,19,9
4,-63,-68,29,36,-65,0,19,0,0,19,9
4,-63,-68,29,36,-65,0,14,0,0,19,9
4,-63,-68,29,36,-65,-4,9,-4,0,19,9
4,-58,-63,26,34,-61,-4,4,-4,0,19,9
4,-58,-63,26,34,-61,-4,4,-4,-4,19,9
4,-63,-68,29,36,-65,-4,9,-4,-4,24,4
4,-68,-73,31,39,-70,-4,14,-4,-4,24,0
9,-68,-78,29,43,-73,-4,9,-4,-4,24,0
9,-63,-73,26,41,-68,-9,9,-9,0,24,0
9,-63,-73,26,41,-68,-9,9,-9,0,29,0
9,-63,-73,26,41,-68,-14,9,-9,0,29,0
9,-58,-68,24,39,-63,-14,9,-4,0,34,0
9,-53,-63,21,36,-58,-14,9,4,4,34,4
14,-53,-68,19,41,-61,-9,9,4,4,34,4
24,-53,-78,14,51,-65,-9,9,4,4,34,9
24,-48,-73,12,48,-61,-14,9,0,4,34,9
19,-43,-63,12,41,-53,-14,9,-4,4,39,9
14,-43,-58,14,36,-51,-14,9,-4,9,39,19
14,-48,-63,17,39,-56,-14,9,-4,9,39,24
14,-48,-63,17,39,-56,-14,4,-4,9,39,24
14,-43,-58,14,36,-51,-19,4,-4,9,43,24
19,-48,-68,14,43,-58,-19,4,-4,9,43,24
19,-53,-73,17,46,-63,-19,4,-4,9,48,24
19,-53,-73,17,46,-63,-9,4,-4,9,48,29
19,-58,-78,19,48,-68,-4,4,-4,9,48,29
14,-53,-68,19,41,-61,-4,4,-4,9,53,29
19,-48,-68,14,43,-58,-9,0,-4,9,53,34
14,-43,-58,14,36,-51,-9,0,0,14,53,34
9,-43,-53,17,31,-48,-14,0,0,19,53,34
9,-39,-48,14,29,-43,-14,4,0,19,53,34
9,-39,-48,14,29,-43,-19,9,0,19,58,39
14,-39,-53,12,34,-46,-19,9,4,19,58,39
19,-39,-58,9,39,-48,-19,9,9,19,58,39
19,-43,-63,12,41,-53,-19,9,9,19,58,39
19,-48,-68,14,43,-58,-19,9,9,19,58,39
19,-48,-68,14,43,-58,-19,9,9,19,58,39
19,-48,-68,14,43,-58,-19,9,9,19,58,39
19,-48,-68,14,43,-58,-19,4,9,24,58,39
19,-48,-68,14,43,-58,-19,0,9,29,58,39
19,-43,-63,12,41,-53,-19,0,4,29,58,39
19,-39,-58,9,39,-48,-19,0,0,29,58,39
19,-39,-58,9,39,-48,-19,0,0,29,63,43
19,-39,-58,9,39,-48,-19,0,0,29,68,48
19,-39,-58,9,39,-48,-19,0,4,29,68,48
19,-39,-58,9,39,-48,-19,0,9,29,68,48
24,-39,-63,7,43,-51,-19,0,9,29,68,48
29,-39,-68,4,48,-53,-19,0,9,29,68,48
29,-39,-68,4,48,-53,-19,0,4,29,68,48
29,-39,-68,4,48,-53,-19,0,0,29,68,48
24,-39,-63,7,43,-51,-19,0,0,29,63,48
19,-39,-58,9,39,-48,-19,0,0,29,58,48
19,-39,-58,9,39,-48,-19,0,0,29,58,48
19,-39,-58,9,39,-48,-19,0,0,29,58,48
19,-39,-58,9,39,-48,-19,0,0,29,58,48
19,-39,-58,9,39,-48,-19,0,0,29,58,48
19,-39,-58,9,39,-48,-19,0,4,29,63,48
19,-39,-58,9,39,-48,-19,0,9,29,68,48
19,-39,-58,9,39,-48,-19,-4,9,34,68,48
19,-39,-58,9,39,-48,-19,-9,9,39,68,48
19,-39,-58,9,39,-48,-19,-9,9,39,68,48
19,-39,-58,9,39,-48,-19,-9,9,39,68,48
19,-39,-58,9,39,-48,-19,-4,9,34,68,48
19,-39,-58,9,39,-48,-19,0,9,29,68,48
19,-39,-58,9,39,-48,-19,0,9,29,68,48
19,-39,-58,9,39,-48,-19,0,9,29,68,48
19,-39,-58,9,39,-48,-14,0,9,29,68,53
19,-39,-58,9,39,-48,-9,0,9,29,68,58
19,-39,-58,9,39,-48,-9,0,9,34,68,58
19,-39,-58,9,39,-48,-9,0,9,39,68,58
19,-39,-58,9,39,-48,-9,0,9,39,68,58
19,-39,-58,9,39,-48,-9,0,9,39,68,58
19,-39,-58,9,39,-48,-9,0,9,39,68,58
19,-39,-58,9,39,-48,-9,0,9,39,68,58
19,-39,-58,9,39,-48,-9,0,9,39,68,58
19,-39,-58,9,39,-48,-9,0,9,39,68,58
19,-39,-58,9,39,-48,-9,0,9,39,68,58
19,-39,-58,9,39,-48,-9,0,9,39,68,58
19,-39,-58,9,39,-48,-9,0,9,39,68,58
19,-39,-58,9,39,-48,-9,0,9,39,68,58
19,-39,-58,9,39,-48,-9,0,9,39,68,58
19,-39,-58,9,39,-48,-9,0,9,39,68,58
19,-39,-58,9,39,-48,-9,0,9,39,68,63
19,-39,-58,9,39,-48,-9,0,9,39,68,68
19,-39,-58,9,39,-48,-9,0,9,39,68,68
19,-39,-58,9,39,-48,-9,0,9,39,68,68
19,-39,-58,9,39,-48,-9,0,9,39,68,68
19,-39,-58,9,39,-48,-9,0,9,39,68,68
19,-43,-63,12,41,-53,-9,0,9,39,68,68
19,-48,-68,14,43,-58,-9,0,9,39,68,68
19,-48,-68,14,43,-58,-9,0,9,34,68,63
19,-48,-68,14,43,-58,-9,0,9,29,68,58
19,-48,-68,14,43,-58,-9,0,9,29,68,58
19,-48,-68,14,43,-58,-9,0,9,29,68,58
19,-43,-63,12,41,-53,-9,0,9,29,68,58
19,-39,-58,9,39,-48,-9,0,9,34,68,58
24,-34,-58,4,41,-46,-9,0,14,39,73,63
24,-19,-43,-2,34,-31,-4,0,24,48,78,63
29,-14,-43,-7,36,-29,4,4,29,58,87,73
29,0,-29,-14,29,-14,14,19,39,63,87,78
29,9,-19,-19,24,-4,19,34,43,68,92,82
29,19,-9,-24,19,4,24,39,48,73,97,82
29,19,-9,-24,19,4,24,34,48,73,97,82
29,19,-9,-24,19,4,19,24,48,73,97,82
29,14,-14,-21,21,0,9,14,48,68,97,82
34,9,-24,-21,29,-7,0,4,43,68,97,82
48,14,-34,-31,41,-9,-19,-4,34,63,97,82
58,29,-29,-43,43,0,-34,-14,34,63,97,82
73,48,-24,-61,48,12,-43,-19,34,73,102,82
63,53,-9,-58,36,21,-53,-34,19,63,102,92
58,53,-4,-56,31,24,-68,-43,14,58,97,87
53,48,-4,-51,29,21,-73,-43,14,58,97,92
63,48,-14,-56,39,17,-73,-43,19,58,97,102
82,53,-29,-68,56,12,-73,-34,19,68,102,112
87,53,-34,-70,61,9,-78,-34,14,58,102,102
87,53,-34,-70,61,9,-78,-39,9,48,97,102
87,39,-48,-63,68,-4,-73,-39,4,48,92,97
73,39,-34,-56,53,2,-63,-34,4,48,92,97
48,24,-24,-36,36,0,-43,-24,19,53,92,97
24,9,-14,-17,19,-2,-19,0,29,53,92,97
14,-9,-24,-2,19,-17,-14,-9,29,53,82,78
4,-34,-39,14,21,-36,-14,-9,19,43,73,58
4,-43,-48,19,26,-46,-14,-19,4,29,63,48
4,-48,-53,21,29,-51,-19,-24,-9,24,53,43
4,-58,-63,26,34,-61,-19,-34,-14,14,48,39
0,-68,-68,34,34,-68,-24,-34,-14,14,43,39
-4,-68,-63,36,29,-65,-24,-34,-14,14,39,39
-4,-68,-63,36,29,-65,-19,-34,-14,14,34,34
0,-63,-63,31,31,-63,-19,-34,-14,14,39,34
0,-63,-63,31,31,-63,-19,-29,-9,19,39,34
0,-63,-63,31,31,-63,-14,-24,-4,19,39,39
0,-63,-63,31,31,-63,-14,-19,-4,19,43,39
0,-63,-63,31,31,-63,-14,-19,-4,19,48,39
0,-63,-63,31,31,-63,-14,-19,-4,24,53,39
0,-58,-58,29,29,-58,-9,-14,-4,24,53,39
0,-68,-68,34,34,-68,4,4,0,24,48,34
9,-87,-97,39,53,-92,19,29,4,19,34,24
48,-87,-136,19,92,-112,34,87,34,39,53,34
122,-48,-170,-36,146,-109,58,200,126,146,151,117
297,73,-224,-185,261,-75,14,302,253,351,380,331
575,400,-175,-488,375,112,-122,317,478,717,819,766
927,883,-43,-905,485,419,-263,414,834,1268,1464,1385
1234,1400,165,-1317,534,783,-468,322,1088,1766,2088,2025
1454,2010,556,-1732,448,1283,-707,29,1244,2161,2635,2635
1517,2527,1010,-2022,253,1769,-873,-263,1356,2449,3059,3108
1220,2864,1644,-2042,-212,2254,-829,-512,1493,2669,3352,3420
1024,2786,1761,-1905,-368,2274,-912,-766,1332,2566,3308,3411
858,2210,1351,-1534,-246,1781,-1058,-1005,805,2039,2810,2957
595,1263,668,-929,-36,966,-1029,-1156,112,1044,1659,1937
102,244,141,-173,-19,192,-751,-1190,-561,-141,214,483
-263,-248,14,256,-139,-117,-429,-946,-722,-610,-478,-307
-248,-317,-68,283,-90,-192,-244,-590,-541,-527,-478,-375
-204,-307,-102,256,-51,-204,-102,-346,-375,-385,-366,-307
-151,-258,-107,204,-21,-183,-34,-195,-258,-283,-273,-244
-131,-219,-87,175,-21,-153,19,-92,-170,-204,-219,-200
-122,-175,-53,148,-34,-114,63,-29,-107,-151,-165,-151
-112,-141,-29,126,-41,-85,82,4,-73,-107,-131,-117
-92,-126,-34,109,-29,-80,82,29,-53,-92,-117,-102
-82,-122,-39,102,-21,-80,87,53,-34,-78,-102,-102
-82,-122,-39,102,-21,-80,92,68,-19,-63,-92,-102
-82,-122,-39,102,-21,-80,102,73,-14,-53,-87,-92
-73,-122,-48,97,-12,-85,102,82,-4,-48,-78,-82
-73,-122,-48,97,-12,-85,107,92,0,-39,-68,-78
-73,-117,-43,95,-14,-80,112,102,4,-34,-68,-78
-73,-112,-39,92,-17,-75,117,107,9,-24,-58,-68
-73,-112,-39,92,-17,-75,117,112,9,-24,-53,-68
-68,-112,-43,90,-12,-78,117,117,19,-24,-53,-68
-68,-102,-34,85,-17,-68,117,122,24,-19,-48,-68
-68,-102,-34,85,-17,-68,117,126,24,-14,-43,-68
-68,-102,-34,85,-17,-68,122,131,24,-14,-43,-63
-68,-102,-34,85,-17,-68,122,131,34,-9,-43,-63
-63,-97,-34,80,-14,-65,126,136,34,-4,-39,-63
-63,-87,-24,75,-19,-56,131,131,34,-4,-39,-68
-58,-78,-19,68,-19,-48,131,131,34,0,-34,-68
-58,-78,-19,68,-19,-48,126,136,39,4,-34,-68
-58,-73,-14,65,-21,-43,126,136,39,4,-34,-68
-53,-73,-19,63,-17,-46,136,141,48,4,-29,-68
-53,-68,-14,61,-19,-41,136,146,53,4,-29,-68
-48,-68,-19,58,-14,-43,136,151,53,9,-24,-68
-48,-63,-14,56,-17,-39,136,151,53,9,-19,-63
-43,-63,-19,53,-12,-41,136,156,53,19,-19,-63
-34,-58,-24,46,-4,-41,141,156,53,19,-19,-58
-34,-58,-24,46,-4,-41,141,161,58,19,-9,-53
-29,-53,-24,41,-2,-39,141,170,58,24,-9,-53
-29,-53,-24,41,-2,-39,141,170,63,24,-9,-48
-24,-53,-29,39,2,-41,141,170,63,24,-9,-48
-24,-53,-29,39,2,-41,141,175,63,24,-14,-48
-29,-58,-29,43,0,-43,146,180,68,24,-19,-48
-29,-58,-29,43,0,-43,146,190,73,19,-19,-53
-29,-63,-34,46,2,-48,146,195,73,19,-19,-53
-34,-63,-29,48,-2,-46,151,195,73,19,-24,-53
-39,-63,-24,51,-7,-43,151,195,68,19,-29,-48
-43,-53,-9,48,-17,-31,151,195,68,19,-34,-53
-43,-48,-4,46,-19,-26,151,195,68,9,-39,-63
-43,-48,-4,46,-19,-26,156,195,68,9,-39,-63
-48,-48,0,48,-24,-24,156,195,63,9,-43,-68
-53,-48,4,51,-29,-21,156,185,58,9,-43,-73
-53,-53,0,53,-26,-26,156,180,58,-4,-58,-78
-53,-53,0,53,-26,-26,156,180,53,-14,-68,-87
-53,-53,0,53,-26,-26,156,180,53,-19,-73,-92
-68,-53,14,61,-41,-19,156,180,53,-19,-82,-102
-73,-53,19,63,-46,-17,156,180,48,-19,-87,-112
-78,-48,29,63,-53,-9,161,180,43,-34,-97,-117
-92,-48,43,70,-68,-2,165,185,39,-48,-112,-122
-102,-53,48,78,-75,-2,170,185,29,-58,-126,-131
-107,-63,43,85,-75,-9,170,180,24,-68,-141,-156
-112,-73,39,92,-75,-17,175,175,9,-87,-161,-165
-117,-78,39,97,-78,-19,180,175,-4,-102,-180,-185
-131,-87,43,109,-87,-21,185,170,-14,-126,-204,-204
-146,-97,48,122,-97,-24,190,161,-24,-156,-234,-239
-165,-112,53,139,-109,-29,200,156,-48,-175,-263,-268
-180,-126,53,153,-117,-36,200,141,-68,-209,-292,-302
-195,-146,48,170,-122,-48,209,122,-87,-239,-331,-336
-214,-165,48,190,-131,-58,214,112,-112,-278,-366,-370
-234,-185,48,209,-141,-68,214,92,-146,-312,-405,-409
-253,-214,39,234,-146,-87,214,63,-175,-346,-453,-453
-278,-234,43,256,-161,-95,219,48,-204,-385,-502,-492
-297,-258,39,278,-168,-109,219,19,-234,-424,-546,-531
-326,-283,43,305,-185,-119,224,-9,-263,-473,-590,-566
-341,-317,24,329,-183,-146,224,-39,-297,-512,-624,-605
-356,-331,24,344,-190,-153,219,-63,-326,-556,-673,-644
-380,-356,24,368,-202,-165,219,-82,-356,-590,-707,-683
-390,-370,19,380,-204,-175,214,-117,-385,-629,-751,-712
-405,-395,9,400,-207,-192,209,-146,-409,-663,-790,-741
-409,-409,0,409,-204,-204,204,-161,-424,-688,-805,-766
-414,-419,-4,417,-204,-212,200,-180,-444,-702,-819,-780
-414,-434,-19,424,-197,-226,200,-190,-453,-717,-839,-795
-409,-439,-29,424,-190,-234,200,-200,-458,-722,-844,-800
-405,-444,-39,424,-183,-241,190,-200,-458,-722,-849,-795
-395,-448,-53,422,-170,-251,185,-204,-453,-717,-839,-785
-375,-448,-73,412,-151,-261,170,-209,-453,-697,-814,-761
-356,-434,-78,395,-139,-256,161,-214,-444,-678,-790,-736
-336,-424,-87,380,-124,-256,146,-209,-429,-649,-756,-707
-317,-400,-82,358,-117,-241,131,-200,-405,-619,-717,-668
-292,-380,-87,336,-102,-234,122,-185,-385,-575,-673,-624
-268,-356,-87,312,-90,-222,112,-180,-356,-531,-614,-575
-239,-326,-87,283,-75,-207,102,-170,-322,-483,-561,-522
-214,-302,-87,258,-63,-195,92,-156,-297,-439,-507,-473
-185,-278,-92,231,-46,-185,82,-126,-263,-390,-448,-419
-161,-244,-82,202,-39,-163,73,-112,-224,-336,-395,-361
-136,-219,-82,178,-26,-151,58,-102,-200,-292,-346,-317
-112,-190,-78,151,-17,-134,48,-92,-175,-248,-287,-258
-87,-165,-78,126,-4,-122,34,-82,-146,-204,-234,-209
-63,-141,-78,102,7,-109,24,-73,-122,-161,-190,-170
-53,-112,-58,82,2,-85,19,-63,-102,-131,-156,-126
-34,-82,-48,58,7,-65,14,-53,-78,-97,-117,-92
-19,-68,-48,43,14,-58,4,-43,-58,-58,-78,-58
-9,-48,-39,29,14,-43,0,-34,-39,-29,-43,-24
0,-29,-29,14,14,-29,0,-19,-24,-4,-19,-4
9,-9,-19,0,14,-14,-4,-4,-4,19,4,24
24,-4,-29,-9,26,-17,-9,0,4,39,34,43
24,4,-19,-14,21,-7,-9,4,14,53,48,63
24,19,-4,-21,14,7,-9,9,24,68,68,82
34,29,-4,-31,19,12,-9,9,39,82,82,87
43,34,-9,-39,26,12,-9,19,43,97,97,107
43,43,0,-43,21,21,-9,19,48,102,102,112
43,48,4,-46,19,26,-9,24,58,107,112,122
43,53,9,-48,17,31,-9,29,68,117,112,122
43,53,9,-48,17,31,-9,34,68,122,122,131
43,63,19,-53,12,41,-9,34,73,122,122,136
43,63,19,-53,12,41,-9,43,73,126,126,141
43,63,19,-53,12,41,-4,48,78,126,126,146
43,63,19,-53,12,41,-4,53,78,126,126,146
43,63,19,-53,12,41,0,53,78,126,131,146
39,68,29,-53,4,48,4,58,73,126,131,146
39,68,29,-53,4,48,9,63,73,126,122,136
39,63,24,-51,7,43,14,63,73,126,122,136
39,63,24,-51,7,43,14,63,73,126,122,136
39,63,24,-51,7,43,9,63,73,126,122,136
39,58,19,-48,9,39,9,58,73,126,117,131
39,48,9,-43,14,29,9,63,73,122,102,122
34,48,14,-41,9,31,9,63,68,107,102,112
34,43,9,-39,12,26,9,63,68,107,102,107
29,43,14,-36,7,29,4,63,68,107,107,107
29,43,14,-36,7,29,9,63,63,102,97,97
24,34,9,-29,7,21,9,63,63,107,97,87
24,29,4,-26,9,17,14,58,53,97,97,82
19,24,4,-21,7,14,19,53,53,92,82,82
19,24,4,-21,7,14,19,48,48,82,78,82
19,24,4,-21,7,14,19,48,48,78,73,68
19,19,0,-19,9,9,19,43,43,73,68,73
19,9,-9,-14,14,0,19,43,39,73,63,68
19,9,-9,-14,14,0,19,39,34,68,53,68
14,9,-4,-12,9,2,19,39,29,68,48,73
14,14,0,-14,7,7,14,34,29,68,43,68
14,14,0,-14,7,7,9,34,24,58,43,63
9,9,0,-9,4,4,4,29,19,58,43,58
9,0,-9,-4,9,-4,4,24,19,53,43,58
4,0,-4,-2,4,-2,4,24,14,48,39,53
4,0,-4,-2,4,-2,4,24,9,48,34,53
4,-4,-9,0,7,-7,4,19,9,43,29,48
14,-9,-24,-2,19,-17,0,19,4,39,24,48
14,-9,-24,-2,19,-17,0,19,4,39,24,48
14,-9,-24,-2,19,-17,0,19,4,39,19,48
14,-4,-19,-4,17,-12,0,14,0,39,19,48
14,-4,-19,-4,17,-12,0,9,0,39,19,48
14,-4,-19,-4,17,-12,0,9,0,39,19,48
14,-4,-19,-4,17,-12,0,9,0,39,19,48
14,-4,-19,-4,17,-12,-4,9,-4,39,19,53
14,0,-14,-7,14,-7,-4,4,-4,39,19,58
14,0,-14,-7,14,-7,-4,4,-4,34,19,58
14,-4,-19,-4,17,-12,-4,4,-4,34,24,58
14,-9,-24,-2,19,-17,-4,4,-9,34,24,53
19,-9,-29,-4,24,-19,-4,0,-14,34,24,48
19,-4,-24,-7,21,-14,-9,0,-19,39,19,48
19,-4,-24,-7,21,-14,-9,0,-19,39,19,48
19,0,-19,-9,19,-9,-14,-4,-19,43,19,48
19,4,-14,-12,17,-4,-14,-9,-19,48,24,48
19,4,-14,-12,17,-4,-14,-9,-14,53,29,58
19,4,-14,-12,17,-4,-9,-9,-14,53,34,63
24,4,-19,-14,21,-7,-9,-4,-9,58,34,68
24,9,-14,-17,19,-2,-14,0,-4,63,34,68
19,14,-4,-17,12,4,-14,0,-4,63,39,63
19,14,-4,-17,12,4,-14,0,-4,68,39,63
24,14,-9,-19,17,2,-9,0,-4,68,39,63
24,24,0,-24,12,12,-9,-4,-4,68,43,63
24,24,0,-24,12,12,-9,-4,-4,68,43,63
