I, II, III, aVR, aVL, aVF, V1, V2, V3, V4, V5, V6
-19,-39,-19,29,0,-29,0,19,0,0,0,-9
-19,-39,-19,29,0,-29,0,19,0,0,-4,-14
-19,-39,-19,29,0,-29,0,19,0,0,-9,-19
-19,-39,-19,29,0,-29,0,14,-4,0,-9,-19
-19,-39,-19,29,0,-29,0,9,-9,0,-9,-19
-19,-39,-19,29,0,-29,0,9,-9,0,-9,-19
-19,-39,-19,29,0,-29,0,9,-9,0,-9,-19
-19,-34,-14,26,-2,-24,-4,4,-14,-4,-9,-19
-19,-29,-9,24,-4,-19,-9,0,-19,-9,-9,-19
-19,-29,-9,24,-4,-19,-9,0,-19,-9,-9,-19
-19,-29,-9,24,-4,-19,-9,0,-19,-9,-9,-19
-19,-29,-9,24,-4,-19,-9,0,-19,-9,-9,-19
-19,-29,-9,24,-4,-19,-9,0,-19,-9,-9,-19
-19,-29,-9,24,-4,-19,-9,0,-19,-9,-9,-19
-19,-29,-9,24,-4,-19,-9,0,-19,-9,-9,-19
-19,-34,-14,26,-2,-24,-9,-4,-19,-9,-9,-14
-19,-39,-19,29,0,-29,-9,-9,-19,-9,-9,-9
-14,-39,-24,26,4,-31,-9,-14,-19,-9,-9,-9
-9,-39,-29,24,9,-34,-9,-19,-19,-9,-9,-9
-9,-34,-24,21,7,-29,-14,-19,-19,-9,-9,-9
-9,-29,-19,19,4,-24,-19,-19,-19,-9,-9,-9
-9,-29,-19,19,4,-24,-19,-24,-19,-9,-9,-9
-9,-29,-19,19,4,-24,-19,-29,-19,-9,-9,-9
-9,-29,-19,19,4,-24,-24,-29,-24,-9,-9,-9
-9,-29,-19,19,4,-24,-29,-29,-29,-9,-9,-9
-9,-29,-19,19,4,-24,-29,-34,-29,-9,-9,-9
-9,-29,-19,19,4,-24,-29,-39,-29,-9,-9,-9
-9,-29,-19,19,4,-24,-29,-39,-29,-9,-14,-14
-9,-29,-19,19,4,-24,-29,-39,-29,-9,-19,-19
-9,-29,-19,19,4,-24,-29,-39,-29,-14,-19,-19
-9,-29,-19,19,4,-24,-29,-39,-29,-19,-19,-19
-9,-24,-14,17,2,-19,-29,-39,-29,-19,-19,-19
-9,-19,-9,14,0,-14,-29,-39,-29,-19,-19,-19
-9,-19,-9,14,0,-14,-29,-39,-29,-19,-14,-19
-4,-19,-14,12,4,-17,-29,-39,-29,-19,-9,-19
-4,-19,-14,12,4,-17,-29,-39,-29,-19,-9,-19
0,-14,-14,7,7,-14,-29,-34,-29,-19,-9,-19
0,-14,-14,7,7,-14,-29,-29,-29,-14,-9,-14
9,-9,-19,0,14,-14,-29,-24,-29,-9,-9,-9
19,0,-19,-9,19,-9,-29,-14,-14,-4,-4,0
39,14,-24,-26,31,-4,-29,-4,-9,4,4,4
53,29,-24,-41,39,2,-39,0,0,9,9,9
68,34,-34,-51,51,0,-43,0,0,19,19,19
73,39,-34,-56,53,2,-73,0,4,24,29,19
97,39,-58,-68,78,-9,-122,0,9,29,39,29
131,53,-78,-92,104,-12,-141,0,19,48,48,43
156,73,-82,-114,119,-4,-151,-9,29,68,68,63
161,68,-92,-114,126,-12,-151,-19,29,68,68,63
161,58,-102,-109,131,-21,-131,-29,19,53,63,58
156,63,-92,-109,124,-14,-117,-29,9,48,63,58
156,73,-82,-114,119,-4,-97,-29,9,43,58,58
151,73,-78,-112,114,-2,-92,-29,9,43,58,58
141,68,-73,-104,107,-2,-92,-43,9,39,58,53
131,63,-68,-97,100,-2,-78,-48,-4,34,53,53
107,53,-53,-80,80,0,-63,-48,-14,24,43,43
82,43,-39,-63,61,2,-58,-58,-14,14,34,34
48,24,-24,-36,36,0,-43,-53,-14,4,29,24
29,0,-29,-14,29,-14,-29,-53,-29,4,9,9
14,-19,-34,2,24,-26,-24,-58,-39,-9,-4,4
-4,-24,-19,14,7,-21,-24,-68,-34,-9,-4,4
-4,-24,-19,14,7,-21,-19,-68,-29,-9,-4,0
-4,-24,-19,14,7,-21,-19,-63,-29,-9,-4,0
-9,-29,-19,19,4,-24,-9,-63,-34,-9,-9,-4
-19,-34,-14,26,-2,-24,-9,-58,-34,-14,-9,-4
-19,-34,-14,26,-2,-24,-4,-58,-34,-14,-9,-9
-24,-29,-4,26,-9,-17,-4,-58,-34,-14,-14,-9
-24,-29,-4,26,-9,-17,0,-58,-39,-19,-14,-9
-24,-29,-4,26,-9,-17,0,-53,-39,-9,-9,-9
-29,-34,-4,31,-12,-19,0,-53,-39,0,-4,-9
-29,-34,-4,31,-12,-19,0,-53,-39,0,-4,-9
-29,-34,-4,31,-12,-19,0,-53,-39,0,-4,-9
-29,-34,-4,31,-12,-19,0,-53,-39,0,0,-9
-29,-34,-4,31,-12,-19,0,-53,-39,0,4,-9
-24,-34,-9,29,-7,-21,0,-48,-39,-4,0,-9
-19,-29,-9,24,-4,-19,0,-43,-39,-4,0,-4
-14,-29,-14,21,0,-21,0,-34,-34,0,0,-4
14,-39,-53,12,34,-46,0,14,-24,0,0,-4
53,-48,-102,-2,78,-75,24,97,0,4,9,-4
107,-48,-156,-29,131,-102,87,248,63,29,19,-4
185,-19,-204,-82,195,-112,122,366,161,53,39,-4
297,14,-283,-156,290,-134,97,302,204,63,19,-24
488,239,-248,-363,368,-4,-53,53,297,195,161,112
712,639,-73,-675,392,283,-356,-390,429,522,531,507
932,1039,107,-985,412,573,-839,-951,346,854,976,1005
1263,1615,351,-1439,456,983,-1834,-1834,63,1327,1668,1800
917,1649,732,-1283,92,1190,-1912,-2113,-165,1298,1708,1869
-214,751,966,-268,-590,858,-1098,-2064,-546,190,463,712
-512,0,512,256,-512,256,-551,-1400,-775,-556,-405,-112
-292,-297,-4,295,-143,-151,-248,-717,-629,-483,-424,-244
-190,-268,-78,229,-56,-173,-87,-297,-375,-292,-273,-204
-141,-239,-97,190,-21,-168,29,-39,-161,-165,-204,-190
-122,-146,-24,134,-48,-85,97,68,-9,-58,-107,-131
-122,-73,48,97,-85,-12,156,122,63,9,-34,-73
-136,-63,73,100,-104,4,156,122,78,9,-24,-63
-126,-53,73,90,-100,9,141,131,68,4,-24,-58
-117,-48,68,82,-92,9,136,122,68,4,-24,-58
-112,-48,63,80,-87,7,136,117,73,4,-19,-58
-112,-48,63,80,-87,7,141,117,73,9,-14,-58
-107,-43,63,75,-85,9,141,122,78,9,-14,-53
-107,-39,68,73,-87,14,141,122,78,9,-9,-53
-107,-34,73,70,-90,19,141,122,78,14,-9,-48
-102,-39,63,70,-82,12,146,122,78,24,-4,-43
-102,-43,58,73,-80,7,146,122,82,29,0,-34
-102,-43,58,73,-80,7,146,122,87,29,4,-34
-97,-43,53,70,-75,4,141,122,87,34,4,-34
-97,-39,58,68,-78,9,141,122,92,29,0,-34
-97,-39,58,68,-78,9,141,122,92,24,-4,-34
-97,-39,58,68,-78,9,141,122,87,24,-4,-34
-97,-39,58,68,-78,9,141,122,82,24,-4,-34
-97,-39,58,68,-78,9,136,117,82,24,-4,-34
-97,-39,58,68,-78,9,136,117,82,24,-4,-34
-92,-39,53,65,-73,7,136,117,78,24,-4,-39
-92,-39,53,65,-73,7,131,117,78,24,-9,-43
-92,-39,53,65,-73,7,131,117,78,24,-9,-43
-87,-39,48,63,-68,4,131,112,73,24,-9,-43
-87,-43,43,65,-65,0,126,112,78,24,-4,-39
-87,-43,43,65,-65,0,122,112,82,24,0,-34
-82,-43,39,63,-61,-2,122,112,82,19,0,-34
-82,-43,39,63,-61,-2,122,112,82,19,0,-34
-82,-43,39,63,-61,-2,112,112,82,19,0,-34
-82,-43,39,63,-61,-2,112,107,82,19,-4,-34
-82,-43,39,63,-61,-2,112,102,82,19,-4,-39
-78,-43,34,61,-56,-4,107,102,82,19,-4,-39
-78,-39,39,58,-58,0,102,102,87,19,-4,-39
-73,-39,34,56,-53,-2,102,102,92,19,-4,-39
-73,-39,34,56,-53,-2,102,107,92,24,-4,-39
-73,-39,34,56,-53,-2,102,112,97,29,-4,-39
-68,-39,29,53,-48,-4,97,112,97,29,-4,-39
-68,-34,34,51,-51,0,97,112,97,29,-4,-39
-68,-34,34,51,-51,0,87,112,97,29,4,-34
-68,-34,34,51,-51,0,82,112,97,29,14,-29
-63,-34,29,48,-46,-2,82,117,97,29,14,-29
-63,-29,34,46,-48,2,78,122,97,34,14,-29
-58,-29,29,43,-43,0,73,117,102,34,14,-29
-58,-29,29,43,-43,0,73,112,102,34,19,-24
-58,-29,29,43,-43,0,68,117,102,29,19,-24
-58,-29,29,43,-43,0,68,117,102,24,19,-19
-53,-34,19,43,-36,-7,58,117,97,24,19,-19
-48,-34,14,41,-31,-9,58,122,97,24,19,-24
-48,-34,14,41,-31,-9,58,117,97,14,14,-24
-48,-34,14,41,-31,-9,58,112,92,4,9,-24
-48,-34,14,41,-31,-9,53,117,87,4,9,-24
-43,-39,4,41,-24,-17,48,117,82,0,9,-24
-39,-39,0,39,-19,-19,43,112,78,0,9,-29
-39,-39,0,39,-19,-19,39,107,68,-4,4,-29
-39,-39,0,39,-19,-19,39,107,58,-19,-4,-39
-39,-34,4,36,-21,-14,34,112,53,-29,-14,-39
-34,-43,-9,39,-12,-26,29,107,39,-34,-24,-48
-34,-43,-9,39,-12,-26,24,102,24,-43,-34,-53
-34,-53,-19,43,-7,-36,19,102,9,-48,-43,-63
-29,-58,-29,43,0,-43,14,102,0,-63,-53,-68
-29,-68,-39,48,4,-53,9,102,-24,-78,-68,-78
-29,-68,-39,48,4,-53,9,97,-34,-87,-78,-82
-29,-82,-53,56,12,-68,9,97,-48,-97,-87,-92
-29,-82,-53,56,12,-68,4,97,-58,-117,-97,-102
-29,-87,-58,58,14,-73,4,92,-78,-131,-107,-112
-29,-92,-63,61,17,-78,4,87,-87,-146,-122,-117
-29,-102,-73,65,21,-87,4,87,-102,-156,-131,-122
-34,-102,-68,68,17,-85,4,87,-112,-170,-141,-122
-34,-107,-73,70,19,-90,4,87,-126,-180,-151,-136
-34,-107,-73,70,19,-90,4,87,-136,-190,-156,-141
-34,-102,-68,68,17,-85,9,87,-141,-190,-156,-141
-39,-97,-58,68,9,-78,9,82,-141,-190,-165,-141
-39,-97,-58,68,9,-78,9,82,-136,-185,-161,-141
-43,-92,-48,68,2,-70,14,78,-131,-180,-156,-136
-43,-87,-43,65,0,-65,14,68,-126,-180,-156,-136
-43,-82,-39,63,-2,-61,14,63,-112,-170,-141,-126
-43,-73,-29,58,-7,-51,19,63,-102,-156,-136,-112
-43,-68,-24,56,-9,-46,24,58,-92,-131,-126,-102
-39,-58,-19,48,-9,-39,19,53,-73,-122,-107,-87
-39,-58,-19,48,-9,-39,19,43,-58,-102,-87,-73
-34,-48,-14,41,-9,-31,14,39,-39,-78,-73,-53
-29,-43,-14,36,-7,-29,9,34,-19,-63,-53,-43
-24,-43,-19,34,-2,-31,4,24,-4,-43,-34,-34
-19,-34,-14,26,-2,-24,0,14,9,-29,-9,-14
-24,-29,-4,26,-9,-17,0,4,24,-4,4,0
-14,-24,-9,19,-2,-17,0,-4,34,4,19,14
-14,-19,-4,17,-4,-12,-4,-4,43,14,29,19
-9,-14,-4,12,-2,-9,-9,-14,58,24,39,29
-4,-14,-9,9,2,-12,-14,-19,63,29,48,39
0,-9,-9,4,4,-9,-14,-24,73,39,58,43
0,-4,-4,2,2,-4,-19,-29,73,53,68,53
4,0,-4,-2,4,-2,-19,-24,82,63,78,53
4,0,-4,-2,4,-2,-19,-24,82,63,82,53
4,0,-4,-2,4,-2,-24,-24,82,68,87,63
9,0,-9,-4,9,-4,-24,-29,78,68,87,63
9,0,-9,-4,9,-4,-24,-29,78,68,82,68
4,0,-4,-2,4,-2,-19,-29,78,68,82,68
0,0,0,0,0,0,-14,-29,78,68,82,68
0,0,0,0,0,0,-14,-29,78,68,82,68
-4,0,4,2,-4,2,-14,-29,78,68,87,63
-4,0,4,2,-4,2,-9,-29,82,68,87,63
-4,0,4,2,-4,2,-4,-29,82,68,78,63
-4,0,4,2,-4,2,-4,-29,82,73,78,58
-4,0,4,2,-4,2,-4,-29,82,73,78,58
-9,0,9,4,-9,4,-4,-24,82,68,82,58
-9,0,9,4,-9,4,-4,-24,87,68,82,58
-9,-4,4,7,-7,0,0,-19,87,68,78,58
-4,-9,-4,7,0,-7,0,-19,82,68,78,58
-4,-9,-4,7,0,-7,0,-14,82,68,73,58
-4,-9,-4,7,0,-7,0,-9,82,63,68,53
-14,-9,4,12,-9,-2,0,-4,82,63,68,48
-19,-9,9,14,-14,0,0,0,82,63,68,43
-24,-9,14,17,-19,2,4,0,82,63,68,39
-24,-14,9,19,-17,-2,4,4,87,63,68,39
-24,-14,9,19,-17,-2,9,4,87,58,68,34
-24,-19,4,21,-14,-7,9,4,87,58,63,34
-29,-19,9,24,-19,-4,14,9,87,58,58,34
-29,-19,9,24,-19,-4,14,9,82,58,58,29
-29,-24,4,26,-17,-9,14,9,78,53,48,29
-34,-24,9,29,-21,-7,14,9,73,53,43,19
-34,-24,9,29,-21,-7,14,9,73,48,43,19
-34,-29,4,31,-19,-12,19,14,73,48,43,19
-24,-29,-4,26,-9,-17,19,14,68,48,43,19
-14,-29,-14,21,0,-21,19,14,63,43,43,19
-14,-29,-14,21,0,-21,19,14,63,39,43,19
-19,-29,-9,24,-4,-19,19,14,63,34,34,19
-24,-34,-9,29,-7,-21,19,19,63,34,34,9
-29,-34,-4,31,-12,-19,19,24,63,29,34,4
-29,-34,-4,31,-12,-19,19,24,53,29,29,4
-29,-39,-9,34,-9,-24,19,24,48,29,29,4
-24,-39,-14,31,-4,-26,19,19,43,29,29,4
-24,-39,-14,31,-4,-26,14,19,43,29,29,4
-24,-39,-14,31,-4,-26,14,14,39,29,29,4
-24,-39,-14,31,-4,-26,14,14,39,24,24,4
-24,-39,-14,31,-4,-26,14,9,34,24,19,0
-24,-39,-14,31,-4,-26,9,9,34,24,14,-4
-24,-39,-14,31,-4,-26,9,9,34,24,14,0
-24,-39,-14,31,-4,-26,9,4,34,24,14,0
-19,-39,-19,29,0,-29,9,4,34,24,9,0
-19,-43,-24,31,2,-34,4,0,24,24,4,0
-19,-39,-19,29,0,-29,0,-4,19,14,4,0
-19,-39,-19,29,0,-29,0,-9,19,9,9,0
-19,-39,-19,29,0,-29,0,-9,19,9,9,-4
-19,-39,-19,29,0,-29,0,-9,19,9,9,-9
-19,-39,-19,29,0,-29,0,-14,19,14,9,-9
-14,-39,-24,26,4,-31,0,-14,19,14,9,-4
-14,-39,-24,26,4,-31,0,-19,19,19,9,-4
-9,-34,-24,21,7,-29,0,-14,19,19,9,0
-4,-34,-29,19,12,-31,0,-14,19,19,9,0
9,-29,-39,9,24,-34,0,-14,19,19,9,0
19,-19,-39,0,29,-29,0,-4,29,19,14,9
39,-4,-43,-17,41,-24,0,4,29,24,24,14
43,4,-39,-24,41,-17,0,9,39,29,24,14
48,4,-43,-26,46,-19,4,9,39,39,29,19
53,9,-43,-31,48,-17,-24,9,39,39,34,19
78,9,-68,-43,73,-29,-73,9,39,39,39,29
112,34,-78,-73,95,-21,-107,9,48,58,48,48
136,63,-73,-100,104,-4,-131,0,58,78,68,73
141,68,-73,-104,107,-2,-131,-4,58,78,68,73
141,68,-73,-104,107,-2,-112,-9,48,63,63,68
136,63,-73,-100,104,-4,-97,-9,39,63,63,68
136,63,-73,-100,104,-4,-78,-9,39,63,58,68
136,63,-73,-100,104,-4,-73,-9,39,63,58,68
131,58,-73,-95,102,-7,-73,-24,39,58,58,63
131,58,-73,-95,102,-7,-73,-43,24,53,58,63
117,53,-63,-85,90,-4,-73,-58,14,43,53,53
92,43,-48,-68,70,-2,-58,-58,14,34,43,43
58,24,-34,-41,46,-4,-34,-43,14,24,39,34
34,-4,-39,-14,36,-21,-14,-43,-4,14,14,14
14,-29,-43,7,29,-36,-4,-48,-19,-9,-4,4
-4,-34,-29,19,12,-31,-4,-58,-19,-9,-4,4
-4,-34,-29,19,12,-31,0,-58,-19,-9,-4,0
-4,-34,-29,19,12,-31,0,-53,-19,-9,-4,0
-9,-39,-29,24,9,-34,9,-53,-24,-9,-9,-4
-19,-43,-24,31,2,-34,9,-48,-24,-14,-9,-4
-19,-43,-24,31,2,-34,14,-48,-24,-14,-9,-9
-24,-43,-19,34,-2,-31,14,-48,-24,-14,-19,-14
-24,-48,-24,36,0,-36,19,-48,-29,-19,-24,-19
-24,-48,-24,36,0,-36,19,-43,-29,-19,-24,-19
-29,-53,-24,41,-2,-39,19,-43,-29,-19,-24,-19
-34,-53,-19,43,-7,-36,19,-43,-34,-19,-24,-19
-39,-53,-14,46,-12,-34,19,-43,-39,-19,-24,-19
-39,-53,-14,46,-12,-34,19,-43,-39,-19,-24,-19
-39,-53,-14,46,-12,-34,19,-43,-39,-19,-24,-19
-39,-53,-14,46,-12,-34,19,-43,-39,-24,-24,-24
-39,-48,-9,43,-14,-29,19,-43,-39,-24,-19,-24
-43,-48,-4,46,-19,-26,19,-58,-39,-19,-19,-24
-24,-58,-34,41,4,-46,19,-34,-34,-19,-19,-24
-9,-73,-63,41,26,-68,24,0,-39,-24,-19,-24
19,-78,-97,29,58,-87,68,102,-4,-9,-19,-24
82,-107,-190,12,136,-148,151,361,73,-4,-9,-29
180,-131,-312,-24,246,-222,175,439,97,-14,-39,-53
229,-92,-322,-68,275,-207,258,405,219,-73,-151,-200
312,122,-190,-217,251,-34,190,175,380,63,-34,-87
917,649,-268,-783,592,190,-468,-409,380,551,566,546
1634,1351,-283,-1493,958,534,-1639,-1317,180,1180,1415,1478
1346,1961,614,-1654,366,1288,-2181,-2147,19,1668,2093,2200
273,1639,1366,-956,-546,1503,-1830,-2649,-292,1078,1488,1698
-322,488,810,-82,-566,649,-1039,-1961,-795,-204,48,390
-400,-209,190,305,-295,-9,-492,-1254,-922,-668,-541,-224
-258,-263,-4,261,-126,-134,-253,-644,-619,-458,-390,-214
-170,-317,-146,244,-12,-231,-58,-195,-356,-312,-322,-229
-141,-204,-63,173,-39,-134,58,-14,-126,-146,-190,-170
-131,-112,19,122,-75,-46,165,112,24,-19,-82,-112
-146,-92,53,119,-100,-19,170,117,43,-14,-68,-92
-136,-73,63,104,-100,-4,161,131,39,-14,-63,-78
-126,-68,58,97,-92,-4,156,122,39,-14,-63,-78
-122,-68,53,95,-87,-7,156,117,43,-14,-58,-78
-122,-73,48,97,-85,-12,161,117,43,-9,-53,-78
-117,-73,43,95,-80,-14,161,122,48,-9,-53,-73
-117,-68,48,92,-82,-9,161,122,48,-9,-48,-73
-117,-63,53,90,-85,-4,161,122,48,-4,-48,-68
-112,-63,48,87,-80,-7,165,122,48,0,-43,-68
-112,-63,48,87,-80,-7,165,122,53,0,-39,-63
-112,-63,48,87,-80,-7,165,122,58,0,-34,-63
-107,-63,43,85,-75,-9,161,122,58,4,-34,-63
-107,-53,53,80,-80,0,161,122,63,4,-34,-58
-107,-48,58,78,-82,4,161,122,63,4,-34,-53
-107,-48,58,78,-82,4,161,122,58,4,-34,-53
-107,-48,58,78,-82,4,161,122,53,4,-34,-53
-107,-48,58,78,-82,4,156,117,53,4,-34,-58
-107,-48,58,78,-82,4,156,117,53,4,-34,-63
-102,-48,53,75,-78,2,156,117,53,0,-34,-63
-102,-48,53,75,-78,2,151,117,58,-4,-39,-63
-102,-48,53,75,-78,2,151,117,63,-4,-39,-63
-97,-48,48,73,-73,0,151,112,63,-4,-39,-63
-97,-48,48,73,-73,0,146,112,63,-4,-39,-63
-97,-43,53,70,-75,4,141,112,63,-4,-39,-63
-92,-48,43,70,-68,-2,141,112,63,-9,-39,-63
-92,-53,39,73,-65,-7,141,112,63,-9,-39,-63
-92,-53,39,73,-65,-7,131,112,63,-9,-39,-63
-92,-53,39,73,-65,-7,131,107,63,-9,-43,-63
-92,-53,39,73,-65,-7,131,107,63,-9,-43,-68
-87,-53,34,70,-61,-9,126,112,63,-9,-43,-68
-87,-48,39,68,-63,-4,122,112,63,-4,-39,-63
-82,-48,34,65,-58,-7,122,112,63,0,-34,-58
-82,-43,39,63,-61,-2,122,112,63,0,-34,-58
-82,-39,43,61,-63,2,122,112,68,0,-34,-58
-78,-39,39,58,-58,0,117,112,68,0,-34,-58
-78,-34,43,56,-61,4,117,112,68,0,-34,-58
-78,-34,43,56,-61,4,112,117,68,0,-34,-58
-78,-34,43,56,-61,4,112,122,68,0,-34,-58
-73,-34,39,53,-56,2,112,126,68,0,-34,-58
-73,-29,43,51,-58,7,107,131,68,4,-34,-58
-68,-29,39,48,-53,4,102,131,73,4,-34,-58
-68,-29,39,48,-53,4,102,131,73,4,-29,-53
-68,-29,39,48,-53,4,97,136,73,4,-34,-58
-68,-29,39,48,-53,4,97,136,73,4,-39,-58
-63,-29,34,46,-48,2,87,136,68,4,-39,-58
-58,-24,34,41,-46,4,87,141,68,4,-39,-63
-58,-24,34,41,-46,4,87,141,63,0,-39,-58
-58,-24,34,41,-46,4,87,141,53,-4,-39,-53
-58,-24,34,41,-46,4,82,146,48,-4,-39,-53
-53,-29,24,41,-39,-2,78,146,43,-9,-39,-53
-48,-24,24,36,-36,0,78,146,43,-9,-39,-58
-48,-19,29,34,-39,4,78,146,39,-14,-43,-58
-48,-24,24,36,-36,0,78,146,29,-24,-48,-68
-48,-24,24,36,-36,0,73,151,24,-29,-53,-68
-43,-34,9,39,-26,-12,68,151,14,-34,-58,-78
-43,-34,9,39,-26,-12,63,151,4,-43,-63,-82
-43,-39,4,41,-24,-17,63,151,-9,-48,-73,-92
-39,-39,0,39,-19,-19,63,151,-19,-63,-82,-97
-39,-48,-9,43,-14,-29,58,151,-39,-78,-97,-107
-39,-48,-9,43,-14,-29,58,146,-43,-87,-107,-112
-39,-63,-24,51,-7,-43,58,146,-58,-97,-117,-122
-39,-63,-24,51,-7,-43,53,146,-68,-117,-126,-131
-39,-68,-29,53,-4,-48,53,146,-87,-126,-136,-141
-39,-73,-34,56,-2,-53,53,146,-97,-136,-151,-146
-39,-82,-43,61,2,-63,53,146,-112,-146,-161,-151
-43,-82,-39,63,-2,-61,53,146,-122,-161,-170,-151
-43,-87,-43,65,0,-65,53,146,-131,-170,-180,-165
-43,-87,-43,65,0,-65,53,146,-136,-180,-185,-170
-43,-92,-48,68,2,-70,58,146,-141,-185,-185,-170
-48,-97,-48,73,0,-73,58,141,-141,-190,-195,-170
-48,-97,-48,73,0,-73,58,136,-141,-190,-195,-175
-53,-92,-39,73,-7,-65,63,126,-141,-190,-195,-175
-53,-87,-34,70,-9,-61,63,122,-141,-185,-200,-175
-53,-82,-29,68,-12,-56,63,122,-131,-170,-190,-165
-53,-73,-19,63,-17,-46,63,117,-122,-161,-180,-151
-53,-68,-14,61,-19,-41,63,107,-112,-141,-165,-141
-48,-53,-4,51,-21,-29,53,102,-92,-131,-146,-126
-48,-48,0,48,-24,-24,48,92,-78,-112,-126,-112
-43,-39,4,41,-24,-17,43,82,-58,-87,-112,-92
-39,-34,4,36,-21,-14,39,73,-39,-73,-92,-82
-34,-34,0,34,-17,-17,34,63,-29,-63,-78,-73
-29,-24,4,26,-17,-9,29,53,-19,-58,-58,-53
-29,-19,9,24,-19,-4,24,43,-4,-34,-43,-39
-14,-14,0,14,-7,-7,19,34,4,-24,-29,-24
-9,-14,-4,12,-2,-9,14,29,9,-9,-19,-19
0,-14,-14,7,7,-14,9,14,19,4,-9,-9
4,-14,-19,4,12,-17,4,9,19,9,4,0
9,-9,-19,0,14,-14,4,4,24,19,19,4
4,-9,-14,2,9,-12,-4,-4,24,29,19,19
4,-9,-14,2,9,-12,-9,-4,34,34,19,24
4,-9,-14,2,9,-12,-9,-4,34,34,24,24
4,-9,-14,2,9,-12,-14,-4,34,39,29,34
9,-4,-14,-2,12,-9,-14,-9,29,39,34,29
9,0,-9,-4,9,-4,-14,-9,29,39,34,29
9,0,-9,-4,9,-4,-14,-9,29,39,34,29
9,0,-9,-4,9,-4,-14,-9,29,39,34,29
9,0,-9,-4,9,-4,-14,-9,29,39,34,29
4,0,-4,-2,4,-2,-14,-9,29,39,39,24
4,4,0,-4,2,2,-14,-9,34,34,39,24
4,9,4,-7,0,7,-14,-9,34,29,29,24
4,9,4,-7,0,7,-9,-9,34,34,29,24
4,9,4,-7,0,7,-4,-9,34,34,29,29
0,4,4,-2,-2,4,-4,0,34,34,34,29
0,0,0,0,0,0,-4,4,39,39,34,29
-4,0,4,2,-4,2,0,9,43,39,29,29
-4,0,4,2,-4,2,0,9,43,39,29,29
-4,0,4,2,-4,2,0,9,43,39,24,29
-4,0,4,2,-4,2,0,9,43,34,19,24
-9,0,9,4,-9,4,0,9,43,34,19,19
-9,0,9,4,-9,4,0,9,43,34,19,14
-14,0,14,7,-14,7,4,9,43,34,24,9
-14,-4,9,9,-12,2,4,14,48,34,29,9
-14,-4,9,9,-12,2,9,14,48,29,29,4
-14,-9,4,12,-9,-2,9,14,48,29,24,4
-19,-9,9,14,-14,0,14,19,48,29,19,4
-19,-9,9,14,-14,0,14,19,43,29,19,0
-19,-14,4,17,-12,-4,14,24,43,24,14,4
-24,-14,9,19,-17,-2,14,29,43,24,14,0
-24,-14,9,19,-17,-2,9,29,43,19,9,0
-24,-19,4,21,-14,-7,9,34,43,19,4,0
-19,-19,0,19,-9,-9,9,34,39,19,4,-4
-14,-19,-4,17,-4,-12,9,34,34,14,4,-9
-14,-19,-4,17,-4,-12,14,34,34,14,4,-9
-19,-19,0,19,-9,-9,19,34,34,14,-4,-9
-19,-24,-4,21,-7,-14,19,34,34,14,-4,-14
-19,-24,-4,21,-7,-14,19,34,34,9,-4,-14
-19,-24,-4,21,-7,-14,19,34,29,9,-4,-14
-19,-29,-9,24,-4,-19,19,34,29,9,0,-14
-14,-29,-14,21,0,-21,19,24,24,9,0,-14
-14,-29,-14,21,0,-21,14,19,24,9,0,-14
-14,-29,-14,21,0,-21,9,14,19,9,0,-14
-14,-29,-14,21,0,-21,4,14,19,4,-4,-14
-14,-29,-14,21,0,-21,4,9,9,4,-4,-14
-14,-29,-14,21,0,-21,0,9,4,4,-4,-14
-14,-29,-14,21,0,-21,4,9,4,4,-4,-9
-14,-29,-14,21,0,-21,9,4,4,4,-4,-9
-9,-24,-14,17,2,-19,9,4,4,4,-4,-9
-9,-24,-14,17,2,-19,9,0,0,4,-4,-9
-9,-24,-14,17,2,-19,4,0,-4,0,-4,-9
-9,-19,-9,14,0,-14,4,-4,-4,0,-4,-9
-9,-24,-14,17,2,-19,0,-4,-4,0,-4,-9
-9,-29,-19,19,4,-24,-4,-9,-4,0,-4,-9
-9,-29,-19,19,4,-24,-4,-9,-4,0,0,-9
-9,-24,-14,17,2,-19,-4,-9,-4,0,0,-4
-9,-24,-14,17,2,-19,-9,-9,-4,0,0,-4
-9,-24,-14,17,2,-19,-14,-14,-9,-4,-4,-4
-4,-24,-19,14,7,-21,-9,-19,-14,-4,0,0
-4,-29,-24,17,9,-26,-9,-29,-19,-4,0,0
0,-29,-29,14,14,-29,-9,-29,-19,0,0,-4
0,-29,-29,14,14,-29,-9,-29,-19,0,0,-9
0,-29,-29,14,14,-29,-9,-29,-19,0,0,-9
0,-29,-29,14,14,-29,-9,-29,-19,0,0,-9
0,-24,-24,12,12,-24,-9,-29,-19,-4,0,-4
0,-19,-19,9,9,-19,-9,-24,-19,-4,0,0
4,-14,-19,4,12,-17,-9,-24,-19,-9,0,0
0,-14,-14,7,7,-14,-9,-24,-19,-9,0,0
9,-9,-19,0,14,-14,-9,-24,-19,-9,0,0
19,0,-19,-9,19,-9,-9,-14,-9,-4,4,9
39,14,-24,-26,31,-4,-9,-4,-9,4,14,14
48,29,-19,-39,34,4,-14,0,0,9,19,19
58,34,-24,-46,41,4,-14,0,0,19,29,24
63,39,-24,-51,43,7,-43,0,4,19,34,19
87,39,-48,-63,68,-4,-92,0,9,19,39,29
122,53,-68,-87,95,-7,-122,0,19,39,48,43
151,73,-78,-112,114,-2,-141,-9,29,58,68,68
161,78,-82,-119,122,-2,-141,-19,29,58,68,73
161,73,-87,-117,124,-7,-122,-29,19,43,63,68
156,63,-92,-109,124,-14,-107,-29,9,43,63,68
156,63,-92,-109,124,-14,-87,-24,14,43,58,68
156,63,-92,-109,124,-14,-82,-19,19,43,58,68
151,58,-92,-104,122,-17,-82,-34,19,39,63,63
146,58,-87,-102,117,-14,-78,-48,4,34,63,63
131,58,-73,-95,102,-7,-78,-63,-4,29,53,53
112,53,-58,-82,85,-2,-68,-68,-4,24,43,43
78,34,-43,-56,61,-4,-43,-53,4,14,39,34
53,9,-43,-31,48,-17,-29,-53,0,9,19,14
24,-14,-39,-4,31,-26,-19,-58,-24,-14,0,0
-4,-24,-19,14,7,-21,-14,-68,-39,-19,-4,-4
-4,-24,-19,14,7,-21,-9,-68,-39,-19,-4,-9
-4,-24,-19,14,7,-21,-9,-63,-39,-19,-4,-9
-9,-29,-19,19,4,-24,0,-63,-43,-19,-9,-14
-19,-34,-14,26,-2,-24,0,-58,-43,-24,-9,-14
-19,-34,-14,26,-2,-24,4,-58,-43,-24,-9,-19
-24,-34,-9,29,-7,-21,4,-58,-43,-24,-14,-19
-24,-39,-14,31,-4,-26,9,-63,-48,-29,-14,-19
-24,-39,-14,31,-4,-26,9,-63,-48,-29,-14,-19
-29,-43,-14,36,-7,-29,9,-63,-48,-29,-19,-19
-29,-43,-14,36,-7,-29,9,-63,-48,-29,-24,-19
-29,-43,-14,36,-7,-29,9,-63,-48,-29,-24,-19
-29,-43,-14,36,-7,-29,9,-63,-48,-29,-24,-19
-29,-43,-14,36,-7,-29,9,-63,-48,-29,-24,-14
-29,-43,-14,36,-7,-29,9,-63,-48,-34,-29,-14
-34,-39,-4,36,-14,-21,9,-68,-53,-39,-29,-14
-39,-39,0,39,-19,-19,9,-73,-58,-39,-29,-14
-19,-48,-29,34,4,-39,9,-48,-53,-39,-29,-14
0,-58,-58,29,29,-58,24,0,-43,-39,-24,-14
34,-58,-92,12,63,-75,82,156,4,-19,-19,-14
107,-58,-165,-24,136,-112,146,361,82,-4,-9,-19
204,-112,-317,-46,261,-214,180,414,73,-53,-87,-97
317,-39,-356,-139,336,-197,161,312,141,-63,-117,-151
448,195,-253,-322,351,-29,82,24,322,82,4,-24
863,605,-258,-734,561,173,-409,-517,297,414,429,439
1708,1483,-224,-1595,966,629,-1849,-1581,68,1234,1546,1654
1610,1971,361,-1790,624,1166,-2396,-2254,-92,1659,2147,2313
209,1307,1098,-758,-444,1202,-1683,-2596,-488,663,1073,1371
-429,385,814,21,-622,600,-961,-2010,-858,-375,-102,278
-326,-170,156,248,-241,-7,-488,-1185,-829,-570,-434,-146
-219,-258,-39,239,-90,-148,-229,-585,-580,-429,-361,-200
-161,-263,-102,212,-29,-183,-43,-175,-322,-283,-292,-209
-141,-175,-34,158,-53,-104,73,24,-112,-141,-180,-161
-141,-102,39,122,-90,-31,165,117,4,-39,-82,-102
-156,-87,68,122,-112,-9,175,122,29,-29,-63,-87
-141,-68,73,104,-107,2,161,131,19,-34,-63,-78
-126,-58,68,92,-97,4,156,122,19,-34,-63,-78
-122,-58,63,90,-92,2,156,117,29,-34,-58,-78
-122,-63,58,92,-90,-2,161,117,34,-29,-53,-78
-117,-63,53,90,-85,-4,161,122,39,-29,-53,-73
-117,-58,58,87,-87,0,161,122,39,-29,-48,-73
-122,-53,68,87,-95,7,161,122,39,-24,-48,-68
-122,-53,68,87,-95,7,165,122,39,-19,-43,-68
-122,-53,68,87,-95,7,165,122,43,-19,-39,-63
-122,-53,68,87,-95,7,165,122,48,-19,-34,-63
-117,-53,63,85,-90,4,161,126,48,-14,-39,-63
-117,-48,68,82,-92,9,161,131,53,-14,-43,-63
-112,-48,63,80,-87,7,156,131,53,-14,-43,-63
-107,-48,58,78,-82,4,151,131,53,-14,-43,-63
-107,-48,58,78,-82,4,151,131,53,-14,-43,-63
-107,-48,58,78,-82,4,146,126,53,-14,-43,-63
-112,-48,63,80,-87,7,146,126,53,-14,-39,-63
-112,-48,63,80,-87,7,146,126,53,-14,-34,-63
-112,-48,63,80,-87,7,141,126,58,-14,-39,-63
-112,-48,63,80,-87,7,141,126,58,-14,-39,-63
-107,-48,58,78,-82,4,141,122,53,-14,-39,-63
-107,-48,58,78,-82,4,136,122,53,-14,-39,-63
-107,-43,63,75,-85,9,131,117,53,-14,-39,-63
-102,-43,58,73,-80,7,131,112,53,-19,-39,-63
-102,-43,58,73,-80,7,136,112,53,-19,-39,-63
-102,-43,58,73,-80,7,131,112,53,-19,-39,-63
-102,-43,58,73,-80,7,131,107,53,-19,-43,-63
-102,-43,58,73,-80,7,131,107,53,-19,-43,-68
-92,-43,48,68,-70,2,122,112,53,-19,-43,-68
-87,-39,48,63,-68,4,112,112,53,-19,-43,-68
-82,-39,43,61,-63,2,112,112,53,-14,-43,-68
-82,-39,43,61,-63,2,112,112,53,-9,-43,-68
-87,-39,48,63,-68,4,112,117,58,-9,-43,-68
-87,-39,48,63,-68,4,107,122,58,-9,-43,-68
-87,-34,53,61,-70,9,107,122,58,-9,-43,-68
-87,-34,53,61,-70,9,102,122,58,-9,-43,-68
-87,-34,53,61,-70,9,102,122,58,-9,-43,-68
-82,-34,48,58,-65,7,102,126,58,-9,-43,-68
-82,-29,53,56,-68,12,97,131,58,-4,-43,-68
-78,-29,48,53,-63,9,92,131,63,-4,-43,-68
-78,-29,48,53,-63,9,92,131,63,-4,-39,-68
-78,-29,48,53,-63,9,87,136,63,-4,-39,-73
-78,-29,48,53,-63,9,87,136,63,-4,-39,-68
-73,-29,43,51,-58,7,78,136,58,-4,-39,-68
-68,-24,43,46,-56,9,78,141,58,-4,-39,-73
-68,-24,43,46,-56,9,78,141,58,-9,-43,-73
-68,-24,43,46,-56,9,78,141,53,-14,-48,-73
-68,-24,43,46,-56,9,73,146,48,-14,-48,-73
-63,-29,34,46,-48,2,68,146,48,-19,-48,-68
-58,-29,29,43,-43,0,68,146,48,-19,-48,-68
-53,-29,24,41,-39,-2,68,146,39,-24,-48,-68
-48,-34,14,41,-31,-9,68,146,29,-39,-53,-78
-48,-29,19,39,-34,-4,63,151,24,-48,-63,-78
-43,-34,9,39,-26,-12,58,151,14,-53,-68,-87
-48,-34,14,41,-31,-9,53,156,4,-63,-73,-92
-53,-39,14,46,-34,-12,53,161,-9,-68,-82,-102
-48,-39,9,43,-29,-14,53,161,-19,-82,-92,-102
-48,-48,0,48,-24,-24,48,161,-39,-97,-107,-107
-48,-48,0,48,-24,-24,48,156,-43,-107,-117,-112
-48,-63,-14,56,-17,-39,48,156,-58,-117,-126,-122
-48,-68,-19,58,-14,-43,43,151,-68,-136,-136,-131
-48,-78,-29,63,-9,-53,43,146,-87,-146,-146,-141
-48,-82,-34,65,-7,-58,43,146,-102,-156,-161,-151
-48,-92,-43,70,-2,-68,43,146,-122,-165,-170,-161
-48,-92,-43,70,-2,-68,43,151,-131,-180,-180,-161
-43,-97,-53,70,4,-75,43,156,-141,-190,-190,-175
-43,-97,-53,70,4,-75,43,156,-141,-200,-195,-180
-43,-97,-53,70,4,-75,48,156,-141,-200,-195,-180
-53,-97,-43,75,-4,-70,48,151,-141,-200,-204,-175
-58,-97,-39,78,-9,-68,48,146,-141,-200,-204,-175
-63,-92,-29,78,-17,-61,53,141,-141,-200,-209,-175
-63,-87,-24,75,-19,-56,53,136,-141,-200,-214,-175
-63,-82,-19,73,-21,-51,53,131,-131,-190,-200,-170
-63,-73,-9,68,-26,-41,53,126,-122,-180,-190,-161
-63,-68,-4,65,-29,-36,53,112,-117,-165,-175,-151
-58,-58,0,58,-29,-29,43,102,-102,-161,-156,-136
-53,-58,-4,56,-24,-31,39,92,-87,-141,-141,-122
-43,-48,-4,46,-19,-26,34,82,-73,-117,-131,-102
-39,-43,-4,41,-17,-24,29,73,-58,-102,-112,-92
-34,-43,-9,39,-12,-26,24,63,-48,-87,-97,-82
-29,-34,-4,31,-12,-19,19,53,-39,-78,-78,-63
-29,-29,0,29,-14,-14,14,43,-24,-53,-63,-48
-14,-24,-9,19,-2,-17,9,29,-14,-43,-48,-34
-14,-19,-4,17,-4,-12,4,24,-9,-34,-39,-29
-9,-14,-4,12,-2,-9,0,9,0,-24,-29,-19
-4,-14,-9,9,2,-12,-4,0,0,-19,-19,-9
0,-9,-9,4,4,-9,-9,-4,0,-9,-4,-4
0,-4,-4,2,2,-4,-19,-14,-4,0,0,4
4,0,-4,-2,4,-2,-19,-19,4,4,0,4
4,0,-4,-2,4,-2,-19,-24,4,4,4,4
4,0,-4,-2,4,-2,-24,-24,14,9,9,14
9,0,-9,-4,9,-4,-24,-29,19,9,14,14
9,0,-9,-4,9,-4,-24,-29,19,9,14,19
9,0,-9,-4,9,-4,-24,-29,19,9,14,19
9,0,-9,-4,9,-4,-24,-29,19,9,14,19
9,0,-9,-4,9,-4,-24,-29,19,9,14,19
4,0,-4,-2,4,-2,-24,-24,14,9,19,14
4,0,-4,-2,4,-2,-24,-19,14,9,19,14
4,0,-4,-2,4,-2,-24,-19,14,9,9,19
4,0,-4,-2,4,-2,-24,-19,14,14,9,19
4,0,-4,-2,4,-2,-24,-19,14,14,9,19
0,0,0,0,0,0,-24,-14,14,9,14,19
0,0,0,0,0,0,-19,-14,19,9,14,14
-4,0,4,2,-4,2,-9,-9,24,9,9,9
-4,0,4,2,-4,2,-9,-9,24,9,9,9
-4,0,4,2,-4,2,-9,-9,24,9,9,9
-4,0,4,2,-4,2,-9,-9,24,4,9,4
-9,0,9,4,-9,4,-9,-4,24,4,9,4
-9,0,9,4,-9,4,-9,0,24,4,9,4
-14,0,14,7,-14,7,-4,0,24,4,9,0
-14,-4,9,9,-12,2,-4,9,29,4,9,0
-14,-4,9,9,-12,2,0,14,29,0,9,-4
-14,-9,4,12,-9,-2,0,14,29,0,4,-4
-19,-9,9,14,-14,0,4,19,29,0,0,-4
-19,-14,4,17,-12,-4,4,19,24,0,0,-9
-19,-24,-4,21,-7,-14,4,19,24,-4,-4,-9
-24,-24,0,24,-12,-12,4,19,24,-4,-4,-19
-24,-24,0,24,-12,-12,4,19,24,-9,-4,-19
-24,-29,-4,26,-9,-17,9,29,24,-9,-4,-19
-24,-29,-4,26,-9,-17,9,34,19,-9,-4,-19
-24,-29,-4,26,-9,-17,14,34,14,-9,-4,-19
-24,-29,-4,26,-9,-17,19,34,14,-4,-4,-19
-29,-29,0,29,-14,-14,19,34,14,-4,-14,-14
-29,-34,-4,31,-12,-19,19,34,14,-4,-14,-14
-29,-34,-4,31,-12,-19,14,34,14,-9,-14,-14
-29,-34,-4,31,-12,-19,9,34,9,-9,-14,-14
-29,-39,-9,34,-9,-24,9,34,9,-9,-9,-14
-24,-39,-14,31,-4,-26,9,29,4,-9,-9,-14
-24,-39,-14,31,-4,-26,9,29,4,-14,-9,-19
-24,-39,-14,31,-4,-26,14,24,0,-19,-9,-24
-24,-39,-14,31,-4,-26,14,24,0,-24,-14,-24
-24,-39,-14,31,-4,-26,14,19,-4,-24,-14,-24
-24,-39,-14,31,-4,-26,9,19,-4,-24,-14,-24
-24,-39,-14,31,-4,-26,9,19,-4,-24,-14,-19
-24,-39,-14,31,-4,-26,9,14,-4,-19,-14,-19
-19,-39,-19,29,0,-29,9,14,-4,-14,-14,-19
-19,-43,-24,31,2,-34,9,9,-9,-14,-14,-19
-19,-43,-24,31,2,-34,4,9,-14,-19,-14,-19
-19,-39,-19,29,0,-29,0,4,-19,-19,-14,-19
-19,-39,-19,29,0,-29,-4,4,-24,-19,-14,-19
-19,-39,-19,29,0,-29,-4,-4,-24,-19,-19,-19
-14,-39,-24,26,4,-31,-4,-9,-24,-19,-19,-19
-9,-34,-24,21,7,-29,-4,-9,-24,-19,-19,-14
-9,-34,-24,21,7,-29,-9,-9,-24,-19,-19,-14
-14,-34,-19,24,2,-26,-14,-14,-29,-24,-24,-14
-14,-34,-19,24,2,-26,-14,-14,-29,-24,-24,-14
-14,-43,-29,29,7,-36,-9,-14,-29,-24,-24,-14
-19,-48,-29,34,4,-39,-4,-14,-29,-24,-19,-14
-19,-43,-24,31,2,-34,-9,-19,-34,-24,-19,-9
-19,-39,-19,29,0,-29,-9,-24,-34,-24,-19,-9
-14,-39,-24,26,4,-31,-14,-24,-29,-19,-19,-9
-9,-39,-29,24,9,-34,-24,-29,-29,-14,-19,-9
-9,-43,-34,26,12,-39,-19,-29,-29,-14,-14,-9
-9,-48,-39,29,14,-43,-19,-29,-29,-19,-9,-9
-9,-48,-39,29,14,-43,-19,-29,-34,-19,-9,-9
-9,-48,-39,29,14,-43,-19,-29,-39,-19,-9,-9
-9,-43,-34,26,12,-39,-19,-29,-39,-19,-9,-9
-4,-39,-34,21,14,-36,-19,-24,-34,-19,-9,-9
0,-34,-34,17,17,-34,-19,-24,-34,-19,-9,-9
0,-34,-34,17,17,-34,-19,-24,-29,-19,-9,-9
9,-29,-39,9,24,-34,-14,-24,-29,-19,-9,-9
19,-19,-39,0,29,-29,-9,-14,-19,-14,-4,0
39,-4,-43,-17,41,-24,-9,-4,-19,-4,4,4
48,9,-39,-29,43,-14,-14,0,-9,0,9,9
58,14,-43,-36,51,-14,-9,0,-9,9,14,19
63,19,-43,-41,53,-12,-34,0,-4,9,14,19
87,19,-68,-53,78,-24,-82,4,0,9,19,29
122,34,-87,-78,104,-26,-112,9,9,29,29,43
146,53,-92,-100,119,-19,-141,0,24,48,53,63
151,58,-92,-104,122,-17,-151,-9,29,48,58,63
151,58,-92,-104,122,-17,-131,-19,19,34,53,58
146,53,-92,-100,119,-19,-117,-19,9,34,53,58
151,53,-97,-102,124,-21,-97,-19,9,34,48,58
156,53,-102,-104,129,-24,-92,-19,9,34,48,58
151,48,-102,-100,126,-26,-92,-39,4,34,48,53
146,48,-97,-97,122,-24,-87,-58,-14,34,43,53
131,43,-87,-87,109,-21,-82,-68,-24,24,34,48
112,34,-78,-73,95,-21,-68,-68,-24,14,24,43
78,14,-63,-46,70,-24,-43,-48,-24,4,19,34
53,-9,-63,-21,58,-36,-29,-43,-39,0,0,14
29,-34,-63,2,46,-48,-19,-48,-48,-24,-14,0
4,-43,-48,19,26,-46,-14,-58,-48,-29,-14,-4
4,-43,-48,19,26,-46,-9,-58,-48,-29,-14,-9
4,-43,-48,19,26,-46,-9,-53,-48,-29,-14,-9
-4,-48,-43,26,19,-46,0,-53,-48,-29,-19,-9
-19,-53,-34,36,7,-43,0,-48,-43,-34,-19,-4
-19,-53,-34,36,7,-43,4,-53,-43,-34,-19,-9
-24,-53,-29,39,2,-41,4,-58,-43,-34,-24,-9
-24,-58,-34,41,4,-46,9,-58,-48,-39,-24,-9
-24,-58,-34,41,4,-46,9,-53,-48,-39,-24,-9
-29,-63,-34,46,2,-48,9,-53,-48,-39,-24,-9
-29,-63,-34,46,2,-48,9,-53,-48,-39,-24,-9
-29,-63,-34,46,2,-48,9,-53,-53,-39,-24,-14
-29,-63,-34,46,2,-48,9,-53,-58,-39,-24,-19
-29,-63,-34,46,2,-48,9,-53,-58,-39,-24,-19
-29,-63,-34,46,2,-48,9,-53,-58,-43,-29,-24
-39,-58,-19,48,-9,-39,9,-58,-58,-43,-29,-24
-48,-58,-9,53,-19,-34,9,-63,-58,-39,-29,-24
-29,-68,-39,48,4,-53,0,-48,-63,-39,-29,-24
-9,-78,-68,43,29,-73,4,-9,-63,-39,-24,-24
9,-78,-87,34,48,-82,68,141,-14,-19,-19,-24
68,-78,-146,4,107,-112,136,341,63,-4,-9,-29
165,-161,-326,-2,246,-244,195,439,43,-73,-107,-122
278,-117,-395,-80,336,-256,200,380,102,-102,-156,-190
336,48,-287,-192,312,-119,258,180,331,-14,-122,-170
678,390,-287,-534,483,51,-97,-273,356,258,214,185
1766,1385,-380,-1576,1073,502,-1737,-1429,126,1190,1468,1546
1912,1991,78,-1952,917,1034,-2483,-2196,-34,1727,2205,2352
375,1420,1044,-897,-334,1232,-1805,-2703,-424,790,1215,1498
-400,590,990,-95,-695,790,-1117,-2283,-790,-190,122,492
-331,-73,258,202,-295,92,-590,-1390,-829,-497,-336,-39
-258,-268,-9,263,-124,-139,-278,-722,-649,-468,-390,-200
-180,-287,-107,234,-36,-197,-78,-258,-380,-322,-322,-229
-141,-214,-73,178,-34,-143,53,-4,-161,-180,-209,-200
-141,-126,14,134,-78,-56,156,107,-14,-53,-97,-126
-156,-97,58,126,-107,-19,175,131,39,-19,-63,-97
-146,-78,68,112,-107,-4,161,141,29,-24,-63,-82
-136,-68,68,102,-102,0,156,131,29,-24,-63,-78
-126,-68,58,97,-92,-4,156,126,34,-24,-58,-78
-122,-73,48,97,-85,-12,161,126,34,-19,-53,-78
-117,-73,43,95,-80,-14,161,131,39,-19,-53,-73
-117,-68,48,92,-82,-9,161,131,39,-19,-48,-73
-122,-63,58,92,-90,-2,156,131,39,-14,-48,-68
-122,-63,58,92,-90,-2,156,131,39,-9,-43,-68
-122,-63,58,92,-90,-2,156,131,43,-9,-39,-63
-122,-63,58,92,-90,-2,156,131,48,-9,-34,-63
-117,-68,48,92,-82,-9,156,131,48,-4,-34,-63
-117,-68,48,92,-82,-9,161,131,53,-4,-34,-63
-112,-68,43,90,-78,-12,161,131,53,-4,-34,-68
-107,-68,39,87,-73,-14,161,131,53,-4,-34,-73
-107,-63,43,85,-75,-9,161,131,53,-4,-34,-73
-107,-58,48,82,-78,-4,156,126,53,-4,-34,-73
-107,-58,48,82,-78,-4,156,126,53,-4,-29,-68
-102,-58,43,80,-73,-7,156,126,53,-4,-24,-63
-102,-58,43,80,-73,-7,151,126,58,-4,-29,-63
-102,-58,43,80,-73,-7,151,126,58,-4,-29,-63
-97,-58,39,78,-68,-9,151,122,53,-4,-29,-63
-97,-58,39,78,-68,-9,146,122,53,-4,-29,-63
-97,-53,43,75,-70,-4,141,122,53,-4,-29,-63
-92,-53,39,73,-65,-7,141,122,53,-9,-29,-63
-92,-53,39,73,-65,-7,141,122,53,-9,-29,-63
-92,-53,39,73,-65,-7,131,122,53,-9,-29,-63
-92,-53,39,73,-65,-7,131,117,53,-9,-34,-63
-92,-53,39,73,-65,-7,131,117,53,-9,-34,-68
-87,-53,34,70,-61,-9,126,122,53,-9,-34,-68
-87,-48,39,68,-63,-4,122,122,53,-9,-34,-68
-82,-48,34,65,-58,-7,117,122,53,-9,-34,-68
-82,-48,34,65,-58,-7,112,122,53,-9,-34,-68
-82,-48,34,65,-58,-7,112,122,58,-9,-34,-68
-78,-48,29,63,-53,-9,107,122,58,-9,-34,-68
-78,-43,34,61,-56,-4,107,122,63,-9,-34,-68
-78,-43,34,61,-56,-4,102,122,68,-9,-34,-68
-78,-43,34,61,-56,-4,102,122,68,-9,-34,-68
-73,-43,29,58,-51,-7,102,126,68,-9,-34,-68
-73,-39,34,56,-53,-2,102,131,68,-4,-34,-68
-68,-39,29,53,-48,-4,102,131,73,-4,-34,-68
-68,-39,29,53,-48,-4,102,131,68,-4,-29,-58
-68,-39,29,53,-48,-4,97,136,63,-4,-29,-53
-68,-39,29,53,-48,-4,97,136,63,-4,-29,-48
-63,-39,24,51,-43,-7,87,136,58,-4,-29,-48
-58,-34,24,46,-41,-4,87,141,58,-4,-29,-53
-58,-34,24,46,-41,-4,87,141,58,-9,-34,-53
-58,-34,24,46,-41,-4,87,141,58,-14,-39,-53
-58,-34,24,46,-41,-4,82,146,58,-14,-39,-53
-53,-39,14,46,-34,-12,73,146,53,-19,-39,-58
-48,-39,9,43,-29,-14,68,146,48,-19,-39,-68
-48,-39,9,43,-29,-14,68,146,39,-19,-43,-68
-48,-43,4,46,-26,-19,68,146,29,-29,-53,-78
-48,-43,4,46,-26,-19,63,151,24,-39,-63,-73
-43,-53,-9,48,-17,-31,58,151,14,-43,-68,-78
-43,-53,-9,48,-17,-31,53,151,4,-53,-73,-82
-43,-58,-14,51,-14,-36,53,151,-9,-58,-82,-92
-39,-58,-19,48,-9,-39,53,156,-19,-73,-92,-97
-39,-68,-29,53,-4,-48,48,161,-39,-87,-107,-107
-39,-68,-29,53,-4,-48,48,156,-43,-102,-117,-112
-39,-82,-43,61,2,-63,48,156,-58,-117,-126,-122
-39,-82,-43,61,2,-63,48,156,-68,-136,-136,-131
-39,-87,-48,63,4,-68,53,156,-87,-146,-146,-141
-39,-92,-53,65,7,-73,58,156,-97,-151,-161,-146
-39,-102,-63,70,12,-82,63,156,-112,-156,-170,-151
-43,-102,-58,73,7,-80,63,156,-126,-170,-180,-151
-43,-107,-63,75,9,-85,63,156,-141,-180,-190,-165
-43,-107,-63,75,9,-85,58,156,-146,-200,-200,-175
-43,-107,-63,75,9,-85,58,156,-151,-209,-204,-180
-48,-107,-58,78,4,-82,58,156,-151,-209,-214,-180
-48,-107,-58,78,4,-82,58,156,-151,-209,-214,-185
-53,-102,-48,78,-2,-75,63,146,-151,-209,-214,-185
-53,-97,-43,75,-4,-70,63,136,-151,-209,-214,-185
-53,-97,-43,75,-4,-70,63,131,-146,-204,-209,-180
-53,-92,-39,73,-7,-65,63,126,-141,-200,-209,-170
-53,-87,-34,70,-9,-61,63,117,-131,-180,-200,-165
-48,-78,-29,63,-9,-53,53,112,-112,-170,-185,-156
-48,-73,-24,61,-12,-48,48,97,-97,-161,-165,-141
-43,-58,-14,51,-14,-36,43,82,-82,-146,-151,-122
-39,-53,-14,46,-12,-34,39,73,-68,-122,-131,-112
-34,-53,-19,43,-7,-36,34,63,-58,-97,-117,-102
-24,-43,-19,34,-2,-31,29,53,-48,-87,-92,-78
-19,-39,-19,29,0,-29,24,43,-34,-63,-73,-58
-4,-34,-29,19,12,-31,19,34,-24,-53,-58,-39
-4,-29,-24,17,9,-26,14,34,-19,-43,-48,-29
0,-24,-24,12,12,-24,4,19,-9,-34,-39,-19
4,-24,-29,9,17,-26,-4,9,-9,-29,-29,-9
9,-19,-29,4,19,-24,-4,4,-4,-19,-14,-4
9,-14,-24,2,17,-19,-9,-4,-4,-9,-9,4
14,-9,-24,-2,19,-17,-14,-4,4,-4,-9,4
14,-9,-24,-2,19,-17,-19,-4,4,-4,-4,4
14,-9,-24,-2,19,-17,-24,-4,4,0,0,14
19,-9,-29,-4,24,-19,-24,-9,0,0,4,14
19,-9,-29,-4,24,-19,-24,-9,0,4,4,19
19,-9,-29,-4,24,-19,-24,-9,0,9,4,19
19,-9,-29,-4,24,-19,-24,-14,0,9,4,19
19,-9,-29,-4,24,-19,-24,-19,0,9,4,19
14,-9,-24,-2,19,-17,-24,-19,-4,4,9,14
14,-9,-24,-2,19,-17,-24,-19,-4,0,9,14
14,-9,-24,-2,19,-17,-24,-14,-4,0,0,14
14,-9,-24,-2,19,-17,-24,-9,-4,4,0,9
14,-9,-24,-2,19,-17,-24,-9,-4,9,0,9
9,-9,-19,0,14,-14,-24,-4,-4,9,4,9
9,-9,-19,0,14,-14,-19,-4,0,9,4,9
4,-9,-14,2,9,-12,-9,0,4,9,0,9
4,-9,-14,2,9,-12,-9,0,4,9,0,9
4,-9,-14,2,9,-12,-9,0,4,9,0,9
4,-9,-14,2,9,-12,-9,0,4,4,0,4
0,-9,-9,4,4,-9,-9,4,4,4,0,4
0,-9,-9,4,4,-9,-9,9,4,4,0,4
-4,-9,-4,7,0,-7,-4,9,4,4,0,0
-4,-14,-9,9,2,-12,-4,14,9,4,0,0
-4,-14,-9,9,2,-12,0,14,9,0,0,-4
-4,-19,-14,12,4,-17,0,14,9,0,-4,-4
-9,-19,-9,14,0,-14,4,19,9,0,-9,-4
-9,-19,-9,14,0,-14,4,19,9,0,-9,-9
-9,-24,-14,17,2,-19,4,19,14,-4,-14,-9
-14,-24,-9,19,-2,-17,4,19,14,-4,-14,-19
-14,-24,-9,19,-2,-17,4,19,14,-9,-14,-19
-14,-34,-19,24,2,-26,9,24,14,-9,-9,-19
-14,-39,-24,26,4,-31,9,24,9,-9,-4,-19
-14,-39,-24,26,4,-31,9,24,4,-14,-4,-19
-14,-39,-24,26,4,-31,9,24,4,-14,-4,-19
-19,-34,-14,26,-2,-24,9,24,4,-14,-19,-19
-19,-34,-14,26,-2,-24,9,24,4,-14,-24,-24
-24,-34,-9,29,-7,-21,9,24,4,-14,-24,-24
-29,-34,-4,31,-12,-19,9,24,0,-9,-24,-24
-29,-39,-9,34,-9,-24,9,24,0,-9,-19,-24
-24,-39,-14,31,-4,-26,9,19,-4,-9,-19,-24
-24,-39,-14,31,-4,-26,4,19,-4,-14,-19,-24
-24,-39,-14,31,-4,-26,4,14,-9,-19,-19,-24
-19,-39,-19,29,0,-29,4,14,-9,-24,-24,-24
-14,-39,-24,26,4,-31,4,9,-14,-24,-24,-24
-14,-43,-29,29,7,-36,0,9,-9,-19,-24,-19
-14,-48,-34,31,9,-41,0,9,-4,-14,-24,-9
-14,-48,-34,31,9,-41,0,4,-4,-14,-19,-9
-9,-48,-39,29,14,-43,0,4,-4,-14,-14,-9
-9,-48,-39,29,14,-43,0,0,-9,-14,-14,-9
-9,-43,-34,26,12,-39,-4,0,-14,-19,-14,-9
-9,-39,-29,24,9,-34,-4,-4,-14,-19,-14,-9
-9,-39,-29,24,9,-34,-4,-4,-14,-19,-14,-9
-14,-39,-24,26,4,-31,-4,-9,-14,-19,-14,-9
-14,-39,-24,26,4,-31,-4,-9,-14,-19,-9,-9
-9,-34,-24,21,7,-29,-4,-14,-14,-19,-9,-4
-9,-34,-24,21,7,-29,-9,-19,-14,-19,-9,-4
-9,-39,-29,24,9,-34,-14,-24,-19,-24,-14,-4
-4,-43,-39,24,17,-41,-14,-24,-19,-24,-14,-4
0,-43,-43,21,21,-43,-14,-24,-24,-24,-14,-4
0,-39,-39,19,19,-39,-14,-24,-29,-24,-9,-4
-4,-39,-34,21,14,-36,-19,-24,-34,-29,-9,-4
-9,-39,-29,24,9,-34,-19,-24,-34,-34,-9,-9
-14,-39,-24,26,4,-31,-24,-24,-34,-34,-14,-9
-14,-39,-24,26,4,-31,-29,-29,-34,-34,-14,-9
-4,-34,-29,19,12,-31,-29,-34,-34,-24,-9,-4
0,-29,-29,14,14,-29,-29,-39,-39,-19,-9,0
0,-29,-29,14,14,-29,-29,-39,-39,-19,-9,4
0,-29,-29,14,14,-29,-29,-39,-39,-19,-9,9
0,-29,-29,14,14,-29,-24,-39,-34,-19,-9,9
0,-29,-29,14,14,-29,-19,-39,-29,-19,-9,4
4,-29,-34,12,19,-31,-19,-39,-29,-19,-9,4
9,-24,-34,7,21,-29,-19,-34,-29,-19,-9,0
9,-24,-34,7,21,-29,-19,-34,-29,-19,-4,0
19,-19,-39,0,29,-29,-19,-34,-29,-19,0,0
29,-9,-39,-9,34,-24,-19,-24,-19,-9,4,9
48,4,-43,-26,46,-19,-19,-14,-19,4,14,14
58,19,-39,-39,48,-9,-29,-9,-4,9,19,19
68,24,-43,-46,56,-9,-34,-9,0,19,29,29
78,34,-43,-56,61,-4,-63,-9,4,19,34,34
107,39,-68,-73,87,-14,-112,-9,9,19,39,48
141,53,-87,-97,114,-17,-141,-9,19,39,48,63
165,73,-92,-119,129,-9,-161,-19,29,58,68,82
170,73,-97,-122,134,-12,-156,-29,24,53,63,78
170,68,-102,-119,136,-17,-131,-39,9,34,53,68
165,63,-102,-114,134,-19,-117,-39,0,34,53,68
165,63,-102,-114,134,-19,-97,-39,0,34,48,68
161,63,-97,-112,129,-17,-92,-39,0,34,48,68
151,58,-92,-104,122,-17,-92,-53,0,29,48,63
146,58,-87,-102,117,-14,-82,-63,-9,24,48,63
126,53,-73,-90,100,-9,-73,-68,-14,14,43,53
102,39,-63,-70,82,-12,-58,-68,-14,4,34,43
68,14,-53,-41,61,-19,-34,-53,-14,-4,29,34
43,-9,-53,-17,48,-31,-19,-53,-29,-4,9,14
24,-29,-53,2,39,-41,-14,-58,-39,-19,-4,4
4,-34,-39,14,21,-36,-19,-68,-39,-19,-4,4
4,-34,-39,14,21,-36,-19,-68,-39,-19,-4,0
4,-34,-39,14,21,-36,-19,-63,-39,-19,-4,0
0,-39,-39,19,19,-39,-9,-63,-43,-19,-9,-4
-14,-43,-29,29,7,-36,-9,-58,-43,-24,-9,-4
-19,-43,-24,31,2,-34,-4,-58,-43,-24,-9,-9
-24,-39,-14,31,-4,-26,-4,-58,-43,-24,-14,-9
-24,-39,-14,31,-4,-26,0,-58,-48,-29,-14,-9
-19,-39,-19,29,0,-29,0,-58,-48,-34,-14,-9
-19,-43,-24,31,2,-34,0,-63,-48,-39,-14,-9
-19,-43,-24,31,2,-34,0,-63,-48,-39,-14,-9
-19,-43,-24,31,2,-34,0,-63,-48,-39,-14,-9
-19,-43,-24,31,2,-34,-4,-63,-48,-29,-4,-4
-19,-43,-24,31,2,-34,-9,-63,-48,-19,4,0
-19,-43,-24,31,2,-34,-9,-58,-48,-24,0,-4
-19,-39,-19,29,0,-29,-9,-53,-48,-24,0,-4
-14,-39,-24,26,4,-31,-4,-53,-48,-19,-4,-9
14,-48,-63,17,39,-56,0,-14,-43,-19,-9,-14
48,-58,-107,4,78,-82,24,73,-24,-19,-4,-14
97,-58,-156,-19,126,-107,87,229,34,0,0,-14
175,-43,-219,-65,197,-131,126,366,122,14,14,-19
287,-24,-312,-131,300,-168,107,322,156,14,-9,-43
448,161,-287,-305,368,-63,9,112,268,112,82,39
644,522,-122,-583,383,200,-239,-292,419,405,405,380
980,980,0,-980,490,490,-814,-897,341,795,922,956
1429,1615,185,-1522,622,900,-1903,-1825,63,1327,1688,1830
1019,1717,697,-1368,161,1207,-2000,-2181,-156,1351,1786,1956
-175,888,1063,-356,-619,976,-1205,-2210,-527,297,600,858
-502,68,570,217,-536,319,-624,-1517,-795,-522,-346,-39
-312,-297,14,305,-163,-141,-287,-805,-688,-522,-444,-244
-200,-273,-73,236,-63,-173,-112,-351,-424,-331,-292,-209
-141,-248,-107,195,-17,-178,19,-58,-200,-204,-224,-200
-122,-156,-34,139,-43,-95,97,58,-39,-87,-117,-136
-122,-82,39,102,-80,-21,165,122,43,-9,-34,-73
-136,-68,68,102,-102,0,161,122,58,-9,-24,-58
-126,-53,73,90,-100,9,141,131,48,-14,-24,-48
-117,-48,68,82,-92,9,136,122,48,-14,-24,-48
-112,-48,63,80,-87,7,136,117,53,-14,-19,-48
-112,-53,58,82,-85,2,141,117,53,-9,-19,-48
-107,-53,53,80,-80,0,141,122,58,-9,-24,-43
-107,-48,58,78,-82,4,141,122,58,-9,-19,-43
-107,-43,63,75,-85,9,141,122,58,-4,-19,-39
-102,-48,53,75,-78,2,146,122,58,4,-9,-34
-102,-53,48,78,-75,-2,146,122,63,9,0,-24
-102,-53,48,78,-75,-2,146,117,68,9,4,-24
-97,-53,43,75,-70,-4,141,112,68,14,4,-24
-97,-48,48,73,-73,0,141,112,68,14,0,-24
-97,-48,48,73,-73,0,141,112,63,14,-4,-24
-97,-48,48,73,-73,0,141,112,63,14,-4,-24
-97,-48,48,73,-73,0,141,112,63,14,-4,-24
-97,-48,48,73,-73,0,136,107,63,9,-4,-24
-97,-48,48,73,-73,0,136,107,63,4,-4,-24
-92,-48,43,70,-68,-2,136,107,63,0,-4,-29
-92,-48,43,70,-68,-2,131,107,68,-4,-9,-34
-92,-48,43,70,-68,-2,131,107,68,-4,-9,-34
-87,-48,39,68,-63,-4,131,102,63,-4,-9,-34
-87,-53,34,70,-61,-9,126,102,63,0,-9,-34
-87,-53,34,70,-61,-9,122,102,63,4,-9,-34
-82,-53,29,68,-56,-12,122,102,63,0,-9,-34
-82,-53,29,68,-56,-12,122,102,63,0,-9,-34
-82,-48,34,65,-58,-7,112,102,63,0,-9,-34
-82,-43,39,63,-61,-2,112,97,63,0,-14,-34
-82,-43,39,63,-61,-2,112,97,68,0,-14,-39
-78,-43,34,61,-56,-4,107,102,73,0,-14,-39
-78,-43,34,61,-56,-4,102,102,73,0,-9,-39
-73,-48,24,61,-48,-12,102,102,73,0,-4,-39
-73,-48,24,61,-48,-12,102,107,73,4,-4,-39
-73,-48,24,61,-48,-12,102,112,78,9,-4,-39
-68,-48,19,58,-43,-14,97,112,78,9,-4,-43
-68,-43,24,56,-46,-9,97,112,78,9,-4,-48
-68,-39,29,53,-48,-4,87,107,78,9,-4,-48
-68,-34,34,51,-51,0,82,102,78,9,-4,-48
-63,-34,29,48,-46,-2,82,102,78,9,-4,-48
-63,-29,34,46,-48,2,78,102,78,14,-4,-48
-58,-29,29,43,-43,0,73,102,87,19,0,-43
-58,-29,29,43,-43,0,73,102,92,24,9,-34
-58,-29,29,43,-43,0,68,107,92,24,9,-34
-58,-29,29,43,-43,0,68,107,92,24,9,-29
-53,-29,24,41,-39,-2,58,102,82,24,9,-29
-48,-24,24,36,-36,0,58,102,78,24,9,-34
-48,-24,24,36,-36,0,58,102,78,19,4,-39
-48,-24,24,36,-36,0,58,102,73,14,0,-43
-48,-24,24,36,-36,0,53,102,68,14,0,-43
-43,-29,14,36,-29,-7,48,97,63,9,0,-43
-39,-29,9,34,-24,-9,43,97,58,4,0,-48
-39,-29,9,34,-24,-9,39,97,48,-4,-4,-48
-39,-34,4,36,-21,-14,39,92,39,-19,-14,-58
-39,-34,4,36,-21,-14,34,92,34,-29,-24,-58
-34,-43,-9,39,-12,-26,29,87,24,-34,-29,-68
-34,-43,-9,39,-12,-26,24,82,14,-43,-34,-73
-34,-48,-14,41,-9,-31,24,82,-4,-48,-43,-82
-29,-48,-19,39,-4,-34,24,82,-19,-63,-53,-87
-29,-58,-29,43,0,-43,19,82,-43,-78,-73,-97
-29,-58,-29,43,0,-43,19,78,-53,-87,-87,-102
-29,-73,-43,51,7,-58,19,78,-68,-97,-97,-107
-29,-73,-43,51,7,-58,14,78,-78,-117,-107,-112
-29,-78,-48,53,9,-63,14,78,-97,-126,-117,-122
-29,-82,-53,56,12,-68,14,78,-107,-136,-131,-126
-34,-92,-58,63,12,-75,14,78,-122,-146,-141,-141
-43,-92,-48,68,2,-70,14,78,-131,-161,-151,-151
-43,-92,-48,68,2,-70,14,78,-141,-170,-161,-156
-43,-87,-43,65,0,-65,14,78,-146,-180,-165,-151
-43,-87,-43,65,0,-65,19,78,-151,-180,-161,-146
-48,-87,-39,68,-4,-63,19,73,-151,-180,-165,-141
-48,-92,-43,70,-2,-68,19,73,-146,-175,-165,-146
-53,-92,-39,73,-7,-65,24,68,-141,-170,-165,-146
-53,-87,-34,70,-9,-61,24,58,-141,-170,-170,-151
-53,-82,-29,68,-12,-56,24,53,-131,-161,-161,-146
-48,-73,-24,61,-12,-48,29,53,-122,-151,-151,-131
-43,-68,-24,56,-9,-46,34,48,-112,-131,-136,-122
-39,-53,-14,46,-12,-34,29,48,-87,-122,-117,-107
-39,-48,-9,43,-14,-29,29,43,-68,-102,-97,-92
-34,-39,-4,36,-14,-21,24,39,-48,-73,-78,-73
-29,-34,-4,31,-12,-19,19,34,-29,-53,-53,-63
-29,-34,-4,31,-12,-19,19,24,-14,-39,-39,-53
-29,-24,4,26,-17,-9,19,14,0,-29,-19,-34
-29,-19,9,24,-19,-4,14,4,14,-4,-4,-19
-14,-14,0,14,-7,-7,9,-4,24,4,9,-4
-14,-9,4,12,-9,-2,4,-4,29,14,19,4
-9,-4,4,7,-7,0,0,-14,39,24,29,19
-9,-4,4,7,-7,0,-4,-19,39,34,43,29
-9,0,9,4,-9,4,-4,-24,43,48,58,34
-9,4,14,2,-12,9,-14,-34,43,58,58,43
-4,9,14,-2,-9,12,-19,-34,53,63,58,43
-4,9,14,-2,-9,12,-19,-34,58,63,63,43
-4,9,14,-2,-9,12,-24,-34,63,68,68,53
0,9,9,-4,-4,9,-24,-39,58,68,73,48
0,9,9,-4,-4,9,-24,-39,58,68,73,48
0,9,9,-4,-4,9,-24,-39,58,68,73,48
0,9,9,-4,-4,9,-24,-39,58,68,73,48
0,9,9,-4,-4,9,-24,-39,58,68,73,53
-4,9,14,-2,-9,12,-24,-39,58,68,78,53
-4,9,14,-2,-9,12,-24,-34,63,68,78,53
-4,9,14,-2,-9,12,-24,-29,63,68,68,53
-4,9,14,-2,-9,12,-24,-29,63,68,68,43
-4,9,14,-2,-9,12,-24,-29,63,63,68,39
-9,9,19,0,-14,14,-24,-24,63,58,73,39
-9,9,19,0,-14,14,-24,-24,68,58,73,39
-14,9,24,2,-19,17,-19,-19,68,63,68,39
-14,9,24,2,-19,17,-19,-19,63,68,68,39
-14,9,24,2,-19,17,-14,-14,63,68,68,39
-14,9,24,2,-19,17,-9,-9,63,63,68,34
-19,9,29,4,-24,19,-9,-4,63,63,68,34
-19,9,29,4,-24,19,-9,0,63,63,68,34
-24,9,34,7,-29,21,-4,-4,63,63,63,29
-24,4,29,9,-26,17,-4,-4,68,63,58,29
-24,4,29,9,-26,17,0,-4,68,58,58,24
-24,0,24,12,-24,12,0,-4,68,58,53,24
-24,0,24,12,-24,12,0,0,68,58,48,24
-19,0,19,9,-19,9,-4,0,63,58,48,19
-19,0,19,9,-19,9,-4,4,63,53,43,19
-24,4,29,9,-26,17,-4,9,63,53,43,9
-24,4,29,9,-26,17,-4,9,63,48,43,9
-24,0,24,12,-24,12,0,14,63,48,43,9
-24,-4,19,14,-21,7,0,14,58,48,43,14
-24,-9,14,17,-19,2,0,14,53,43,43,19
-24,-9,14,17,-19,2,0,14,53,43,43,19
-29,-9,19,19,-24,4,0,14,53,43,34,19
-29,-14,14,21,-21,0,0,9,53,43,34,9
-29,-14,14,21,-21,0,0,4,53,39,34,4
-29,-14,14,21,-21,0,0,4,48,39,29,4
-29,-19,9,24,-19,-4,0,4,48,39,29,4
-19,-19,0,19,-9,-9,0,0,43,39,29,4
-14,-19,-4,17,-4,-12,-4,0,43,39,29,4
-14,-19,-4,17,-4,-12,-4,0,39,39,29,4
-14,-19,-4,17,-4,-12,-4,4,39,34,24,4
-19,-19,0,19,-9,-9,0,0,34,34,29,4
-24,-19,4,21,-14,-7,0,0,34,34,34,4
-24,-19,4,21,-14,-7,0,0,34,34,34,4
-24,-19,4,21,-14,-7,0,-4,34,34,34,0
-19,-19,0,19,-9,-9,0,-4,34,29,29,0
-19,-24,-4,21,-7,-14,-4,-9,24,24,24,0
-14,-19,-4,17,-4,-12,-4,-14,19,24,24,4
-9,-19,-9,14,0,-14,-9,-19,19,29,29,9
-9,-14,-4,12,-2,-9,-4,-19,19,29,29,9
-9,-9,0,9,-4,-4,0,-19,19,29,29,9
-9,-9,0,9,-4,-4,0,-19,19,29,29,9
-4,-9,-4,7,0,-7,0,-19,14,29,29,9
0,-9,-9,4,4,-9,-4,-19,14,29,29,9
9,-4,-14,-2,12,-9,-9,-14,9,29,29,9
9,-4,-14,-2,12,-9,-9,-14,9,29,29,9
19,0,-19,-9,19,-9,-9,-14,9,29,29,9
29,9,-19,-19,24,-4,-9,-4,19,34,34,19
48,24,-24,-36,36,0,-9,4,19,43,43,24
58,29,-29,-43,43,0,-34,9,29,48,48,29
68,24,-43,-46,56,-9,-53,9,29,58,58,39
73,39,-34,-56,53,2,-73,9,34,58,63,39
97,48,-48,-73,73,0,-112,9,39,58,68,48
122,63,-58,-92,90,2,-126,0,48,73,73,63
136,82,-53,-109,95,14,-131,-19,58,87,87,82
141,82,-58,-112,100,12,-131,-19,58,87,87,82
141,78,-63,-109,102,7,-112,-19,48,73,82,78
136,73,-63,-104,100,4,-97,-19,34,73,82,78
136,73,-63,-104,100,4,-78,-19,29,73,78,78
131,73,-58,-102,95,7,-73,-19,24,68,73,78
122,68,-53,-95,87,7,-73,-34,19,58,68,73
112,58,-53,-85,82,2,-58,-39,4,53,58,63
87,43,-43,-65,65,0,-43,-39,-4,43,43,43
63,34,-29,-48,46,2,-39,-48,-4,34,34,34
29,14,-14,-21,21,0,-24,-43,-4,24,29,24
19,-4,-24,-7,21,-14,-9,-43,-19,19,9,4
14,-19,-34,2,24,-26,-4,-48,-29,0,-4,-4
-4,-24,-19,14,7,-21,-4,-58,-29,0,-4,-4
-4,-24,-19,14,7,-21,0,-58,-29,0,-4,-9
-4,-24,-19,14,7,-21,-4,-53,-29,0,-4,-9
-9,-29,-19,19,4,-24,0,-53,-34,0,-9,-14
-19,-34,-14,26,-2,-24,0,-48,-34,-4,-9,-14
-19,-34,-14,26,-2,-24,4,-48,-34,-4,-9,-19
-24,-34,-9,29,-7,-21,4,-48,-34,-4,-14,-19
-24,-39,-14,31,-4,-26,9,-48,-39,-9,-14,-19
-24,-34,-9,29,-7,-21,9,-48,-39,-9,-14,-19
-29,-34,-4,31,-12,-19,9,-53,-39,-9,-14,-19
-29,-34,-4,31,-12,-19,9,-53,-39,-14,-14,-19
-29,-34,-4,31,-12,-19,9,-53,-39,-19,-14,-19
-29,-34,-4,31,-12,-19,9,-53,-39,-19,-14,-19
-29,-34,-4,31,-12,-19,9,-53,-39,-19,-14,-19
-24,-34,-9,29,-7,-21,9,-48,-39,-24,-19,-24
-19,-29,-9,24,-4,-19,9,-43,-39,-24,-19,-24
-14,-34,-19,24,2,-26,14,-24,-34,-19,-19,-24
14,-48,-63,17,39,-56,19,34,-24,-19,-19,-24
68,-58,-126,-4,97,-92,34,117,0,-19,-14,-24
136,-58,-195,-39,165,-126,87,268,63,0,-9,-24
214,-9,-224,-102,219,-117,112,346,156,39,29,-4
326,43,-283,-185,305,-119,78,244,195,63,29,-4
566,297,-268,-431,417,14,-175,-63,244,234,224,190
839,727,-112,-783,475,307,-580,-566,331,600,649,644
902,1078,175,-990,363,627,-966,-1093,258,858,1000,1034
1078,1605,527,-1342,275,1066,-1864,-1942,-14,1259,1600,1722
824,1600,775,-1212,24,1188,-1917,-2127,-248,1205,1605,1776
-214,663,878,-224,-546,771,-1078,-1986,-634,73,326,605
-492,-19,473,256,-483,226,-546,-1342,-814,-605,-473,-161
-253,-248,4,251,-129,-122,-258,-678,-619,-463,-424,-234
-165,-224,-58,195,-53,-141,-82,-273,-366,-278,-273,-195
-131,-200,-68,165,-31,-134,48,-29,-151,-156,-204,-180
-112,-122,-9,117,-51,-65,107,68,-19,-63,-117,-136
-112,-63,48,87,-80,-7,156,112,34,-9,-53,-92
-126,-58,68,92,-97,4,156,112,48,-9,-43,-78
-117,-53,63,85,-90,4,141,122,39,-14,-43,-68
-112,-48,63,80,-87,7,136,112,39,-14,-48,-68
-112,-48,63,80,-87,7,136,107,43,-14,-48,-68
-112,-53,58,82,-85,2,141,107,43,-9,-43,-68
-107,-53,53,80,-80,0,141,112,48,-9,-43,-63
-107,-48,58,78,-82,4,141,117,48,-9,-39,-68
-107,-43,63,75,-85,9,141,122,48,-4,-39,-68
-102,-43,58,73,-80,7,146,122,48,0,-34,-68
-102,-43,58,73,-80,7,146,122,53,0,-29,-63
-102,-43,58,73,-80,7,146,117,58,0,-24,-63
-97,-43,53,70,-75,4,141,112,58,4,-24,-63
-97,-39,58,68,-78,9,141,112,58,4,-24,-63
-97,-39,58,68,-78,9,141,112,53,4,-24,-63
-97,-39,58,68,-78,9,141,112,53,4,-29,-63
-97,-39,58,68,-78,9,141,112,53,4,-34,-63
-97,-43,53,70,-75,4,136,107,53,4,-34,-63
-97,-48,48,73,-73,0,136,107,53,4,-34,-63
-92,-48,43,70,-68,-2,136,107,53,4,-29,-63
-92,-48,43,70,-68,-2,131,107,58,4,-29,-63
-92,-48,43,70,-68,-2,131,107,58,4,-29,-63
-87,-48,39,68,-63,-4,131,102,53,4,-29,-63
-87,-48,39,68,-63,-4,126,102,53,4,-29,-63
-87,-43,43,65,-65,0,122,102,53,4,-29,-63
-82,-43,39,63,-61,-2,122,102,53,0,-29,-63
-82,-43,39,63,-61,-2,122,102,53,0,-29,-63
-82,-39,43,61,-63,2,112,102,53,0,-29,-63
-82,-34,48,58,-65,7,112,97,53,0,-34,-63
-82,-34,48,58,-65,7,112,97,53,0,-34,-68
-78,-34,43,56,-61,4,107,102,53,0,-34,-68
-78,-29,48,53,-63,9,102,107,53,0,-34,-68
-73,-29,43,51,-58,7,102,112,53,0,-34,-68
-73,-29,43,51,-58,7,102,112,53,0,-34,-63
-73,-29,43,51,-58,7,102,112,58,0,-34,-58
-68,-34,34,51,-51,0,102,112,58,0,-34,-58
-68,-34,34,51,-51,0,107,112,58,0,-34,-58
-68,-34,34,51,-51,0,102,112,58,-4,-34,-58
-68,-34,34,51,-51,0,102,112,58,-9,-34,-58
-68,-34,34,51,-51,0,102,117,53,-9,-34,-58
-73,-29,43,51,-58,7,97,122,48,-4,-34,-58
-68,-29,39,48,-53,4,92,122,53,-4,-34,-58
-68,-29,39,48,-53,4,92,122,53,-4,-29,-53
-68,-29,39,48,-53,4,87,126,53,-4,-34,-53
-68,-29,39,48,-53,4,87,126,53,-4,-39,-48
-63,-29,34,46,-48,2,78,126,48,-4,-39,-48
-58,-24,34,41,-46,4,78,131,48,-4,-39,-53
-53,-24,29,39,-41,2,78,131,48,-9,-43,-53
-48,-24,24,36,-36,0,78,131,43,-14,-48,-53
-48,-24,24,36,-36,0,73,136,39,-14,-48,-58
-43,-29,14,36,-29,-7,68,136,34,-19,-48,-63
-39,-29,9,34,-24,-9,68,136,29,-19,-48,-68
-39,-29,9,34,-24,-9,68,136,19,-24,-53,-68
-39,-34,4,36,-21,-14,68,136,4,-39,-63,-78
-39,-34,4,36,-21,-14,63,141,-4,-48,-73,-78
-34,-43,-9,39,-12,-26,58,141,-14,-58,-78,-87
-34,-43,-9,39,-12,-26,53,141,-24,-73,-82,-92
-39,-48,-9,43,-14,-29,53,141,-39,-78,-92,-102
-39,-48,-9,43,-14,-29,53,141,-48,-92,-102,-107
-39,-58,-19,48,-9,-39,48,146,-68,-107,-117,-117
-39,-58,-19,48,-9,-39,48,146,-73,-117,-126,-122
-34,-73,-39,53,2,-56,48,146,-87,-122,-136,-131
-29,-73,-43,51,7,-58,43,146,-97,-136,-146,-141
-29,-78,-48,53,9,-63,43,141,-117,-146,-156,-151
-29,-82,-53,56,12,-68,43,136,-126,-156,-170,-156
-29,-92,-63,61,17,-78,43,136,-141,-165,-180,-161
-34,-92,-58,63,12,-75,43,136,-151,-180,-190,-161
-34,-97,-63,65,14,-80,43,136,-161,-190,-200,-175
-34,-97,-63,65,14,-80,43,136,-165,-200,-204,-180
-34,-97,-63,65,14,-80,48,136,-165,-195,-200,-180
-39,-97,-58,68,9,-78,48,131,-161,-190,-204,-180
-39,-97,-58,68,9,-78,48,131,-156,-190,-200,-175
-43,-92,-48,68,2,-70,53,126,-151,-190,-195,-165
-43,-87,-43,65,0,-65,53,117,-146,-185,-195,-165
-43,-82,-39,63,-2,-61,53,112,-131,-170,-180,-156
-43,-73,-29,58,-7,-51,53,107,-122,-161,-170,-141
-43,-68,-24,56,-9,-46,53,97,-112,-141,-156,-131
-39,-53,-14,46,-12,-34,43,92,-92,-131,-136,-117
-39,-48,-9,43,-14,-29,39,82,-78,-112,-117,-102
-34,-39,-4,36,-14,-21,34,68,-63,-87,-102,-87
-29,-34,-4,31,-12,-19,29,53,-48,-73,-82,-82
-24,-39,-14,31,-4,-26,24,43,-39,-58,-68,-73
-19,-34,-14,26,-2,-24,19,34,-29,-48,-48,-53
-19,-29,-9,24,-4,-19,14,29,-14,-24,-34,-39
-4,-24,-19,14,7,-21,9,24,-4,-14,-19,-24
-4,-14,-9,9,2,-12,4,24,0,-4,-9,-19
0,-4,-4,2,2,-4,0,14,9,4,0,-9
4,-4,-9,0,7,-7,-4,9,9,9,9,0
9,0,-9,-4,9,-4,-4,4,14,19,19,4
9,0,-9,-4,9,-4,-9,-4,14,29,19,14
14,0,-14,-7,14,-7,-9,-4,24,34,19,14
9,0,-9,-4,9,-4,-9,-4,24,29,24,14
4,0,-4,-2,4,-2,-14,-4,24,29,29,24
9,0,-9,-4,9,-4,-14,-9,19,29,34,19
9,0,-9,-4,9,-4,-14,-9,19,29,34,19
9,0,-9,-4,9,-4,-14,-9,19,29,34,19
9,0,-9,-4,9,-4,-14,-9,19,29,34,19
9,0,-9,-4,9,-4,-14,-9,19,29,29,24
4,0,-4,-2,4,-2,-14,-9,19,29,29,24
4,0,-4,-2,4,-2,-14,-9,24,29,29,24
4,0,-4,-2,4,-2,-14,-9,24,29,19,24
4,0,-4,-2,4,-2,-14,-4,24,34,19,19
4,0,-4,-2,4,-2,-14,0,24,34,19,19
0,0,0,0,0,0,-14,4,24,29,24,19
0,0,0,0,0,0,-14,4,29,29,24,19
0,0,0,0,0,0,-4,9,34,29,19,19
4,0,-4,-2,4,-2,0,9,34,29,19,19
4,0,-4,-2,4,-2,0,9,34,29,14,19
4,0,-4,-2,4,-2,0,9,34,24,9,14
-4,0,4,2,-4,2,0,14,34,24,9,14
-9,0,9,4,-9,4,0,19,34,24,9,14
-14,0,14,7,-14,7,4,19,34,24,9,9
-14,-4,9,9,-12,2,4,24,39,24,9,9
-14,-9,4,12,-9,-2,9,24,39,19,14,4
-14,-19,-4,17,-4,-12,9,24,39,19,14,4
-19,-19,0,19,-9,-9,14,29,34,19,9,4
-19,-19,0,19,-9,-9,14,29,24,19,9,0
-19,-24,-4,21,-7,-14,14,29,24,14,4,0
-24,-24,0,24,-12,-12,14,29,24,14,4,-9
-24,-24,0,24,-12,-12,14,29,24,9,4,-9
-24,-29,-4,26,-9,-17,19,34,24,9,4,-9
-19,-29,-9,24,-4,-19,19,29,19,9,4,-9
-14,-29,-14,21,0,-21,19,24,14,4,4,-9
-14,-29,-14,21,0,-21,14,24,14,4,4,-9
-19,-29,-9,24,-4,-19,9,24,14,4,-4,-9
-19,-34,-14,26,-2,-24,9,24,14,4,-4,-14
-19,-34,-14,26,-2,-24,9,24,14,0,-4,-14
-19,-34,-14,26,-2,-24,9,24,9,0,-9,-14
-19,-39,-19,29,0,-29,9,24,9,0,-9,-14
-14,-39,-24,26,4,-31,9,19,4,0,-9,-14
-14,-39,-24,26,4,-31,4,19,4,0,-9,-14
-14,-39,-24,26,4,-31,4,14,0,0,-4,-14
-14,-39,-24,26,4,-31,4,14,0,-4,-4,-14
-14,-39,-24,26,4,-31,4,9,0,-4,-4,-14
-14,-39,-24,26,4,-31,0,9,4,-4,-4,-14
-14,-39,-24,26,4,-31,0,9,4,-4,-4,-9
-14,-39,-24,26,4,-31,0,4,4,-4,-4,-9
-9,-34,-24,21,7,-29,0,4,4,-4,-9,-9
-9,-34,-24,21,7,-29,0,0,0,-4,-14,-9
-9,-34,-24,21,7,-29,-4,0,-4,-9,-14,-9
-9,-29,-19,19,4,-24,-4,-4,-4,-9,-14,-9
-14,-29,-14,21,0,-21,-9,-4,-4,-9,-14,-9
-19,-29,-9,24,-4,-19,-14,-9,-4,-9,-14,-9
-14,-29,-14,21,0,-21,-14,-14,-9,-9,-9,-9
-9,-24,-14,17,2,-19,-14,-19,-14,-9,-9,-4
-9,-24,-14,17,2,-19,-19,-19,-14,-9,-9,-4
-9,-24,-14,17,2,-19,-24,-24,-19,-14,-14,-4
-4,-24,-19,14,7,-21,-19,-24,-19,-14,-9,0
-4,-29,-24,17,9,-26,-19,-29,-19,-14,-9,0
-4,-29,-24,17,9,-26,-19,-29,-19,-9,-9,0
-9,-29,-19,19,4,-24,-19,-29,-19,-9,-9,0
-9,-29,-19,19,4,-24,-19,-34,-19,-9,-9,0
-9,-29,-19,19,4,-24,-19,-39,-19,-9,-9,0
-9,-29,-19,19,4,-24,-19,-39,-19,-9,-9,0
-4,-24,-19,14,7,-21,-19,-34,-19,-9,-9,0
0,-24,-24,12,12,-24,-19,-34,-24,-9,-9,0
0,-24,-24,12,12,-24,-19,-34,-29,-9,-9,0
4,-24,-29,9,17,-26,-19,-34,-29,-9,-14,0
9,-19,-29,4,19,-24,-19,-24,-19,-4,-14,9
29,-4,-34,-12,31,-19,-14,-14,-19,4,-4,14
39,9,-29,-24,34,-9,-14,-9,-9,9,0,19
48,24,-24,-36,36,0,4,-4,-9,19,9,29
53,39,-14,-46,34,12,-4,0,-4,19,14,29
68,29,-39,-48,53,-4,-63,0,0,9,19,29
92,34,-58,-63,75,-12,-102,0,9,19,29,34
131,53,-78,-92,104,-12,-136,-9,24,48,53,63
151,58,-92,-104,122,-17,-151,-19,29,58,58,73
156,63,-92,-109,124,-14,-131,-29,19,43,53,68
156,63,-92,-109,124,-14,-117,-29,9,43,53,68
156,63,-92,-109,124,-14,-92,-24,9,43,53,73
156,63,-92,-109,124,-14,-82,-19,9,43,58,78
151,58,-92,-104,122,-17,-82,-34,9,39,58,73
146,58,-87,-102,117,-14,-78,-48,-4,34,53,73
141,58,-82,-100,112,-12,-82,-63,-14,29,48,68
131,53,-78,-92,104,-12,-78,-68,-14,24,43,63
97,48,-48,-73,73,0,-53,-53,-14,14,39,53
73,39,-34,-56,53,2,-39,-53,-29,9,19,34
43,0,-43,-21,43,-21,-24,-58,-39,-14,0,19
14,-24,-39,4,26,-31,-14,-68,-39,-19,-4,14
9,-24,-34,7,21,-29,-9,-73,-39,-19,-9,4
4,-24,-29,9,17,-26,-9,-73,-39,-19,-14,0
0,-24,-24,12,12,-24,0,-73,-43,-19,-19,-4
-9,-24,-14,17,2,-19,0,-68,-43,-24,-19,-4
-9,-24,-14,17,2,-19,4,-68,-43,-24,-19,-9
-14,-24,-9,19,-2,-17,4,-68,-43,-24,-24,-9
-14,-29,-14,21,0,-21,9,-68,-48,-29,-24,-9
-14,-29,-14,21,0,-21,9,-63,-48,-29,-24,-9
-19,-39,-19,29,0,-29,9,-63,-48,-29,-24,-9
-19,-43,-24,31,2,-34,9,-63,-48,-29,-24,-9
-19,-43,-24,31,2,-34,9,-63,-48,-29,-24,-9
-19,-43,-24,31,2,-34,9,-63,-48,-29,-24,-9
-24,-43,-19,34,-2,-31,9,-63,-48,-29,-24,-4
-29,-43,-14,36,-7,-29,9,-63,-48,-34,-29,-4
-39,-39,0,39,-19,-19,9,-73,-48,-34,-29,-4
-48,-39,9,43,-29,-14,9,-82,-48,-29,-29,-4
-34,-43,-9,39,-12,-26,-4,-78,-58,-29,-29,-4
-19,-48,-29,34,4,-39,-4,-48,-63,-29,-24,-4
-14,-48,-34,31,9,-41,58,82,-19,-9,-19,-4
29,-48,-78,9,53,-63,126,263,53,4,-9,-9
117,-165,-283,24,200,-224,204,439,24,-78,-112,-112
219,-156,-375,-31,297,-265,229,458,73,-122,-165,-190
195,-58,-253,-68,224,-156,434,385,356,-107,-239,-287
453,214,-239,-334,346,-12,224,58,434,92,-9,-48
1761,1278,-483,-1520,1122,397,-1551,-1127,200,1112,1346,1405
2127,1952,-175,-2039,1151,888,-2435,-1922,34,1737,2186,2303
566,1586,1019,-1076,-226,1302,-1927,-2708,-346,961,1405,1673
-234,961,1195,-363,-714,1078,-1410,-2566,-702,141,522,893
-268,112,380,78,-324,246,-780,-1634,-854,-380,-165,161
-297,-268,29,283,-163,-119,-366,-927,-785,-566,-448,-200
-204,-307,-102,256,-51,-204,-151,-405,-483,-400,-380,-239
-151,-253,-102,202,-24,-178,-4,-92,-229,-239,-268,-219
-151,-146,4,148,-78,-70,126,58,-48,-87,-126,-131
-165,-97,68,131,-117,-14,175,122,39,-29,-63,-87
-151,-73,78,112,-114,2,161,131,29,-34,-63,-78
-136,-58,78,97,-107,9,156,122,29,-34,-63,-78
-131,-58,73,95,-102,7,156,117,34,-34,-58,-78
-131,-63,68,97,-100,2,161,117,34,-29,-53,-78
-126,-63,63,95,-95,0,161,122,39,-29,-53,-73
-126,-58,68,92,-97,4,161,122,39,-29,-48,-73
-122,-53,68,87,-95,7,156,122,39,-24,-48,-68
-112,-53,58,82,-85,2,156,122,39,-19,-43,-68
-112,-53,58,82,-85,2,156,122,43,-19,-39,-63
-112,-53,58,82,-85,2,156,122,48,-19,-34,-63
-112,-53,58,82,-85,2,151,122,48,-9,-34,-58
-117,-48,68,82,-92,9,151,122,53,-4,-34,-53
-117,-48,68,82,-92,9,151,122,58,-4,-34,-53
-117,-48,68,82,-92,9,151,122,63,-4,-34,-53
-117,-48,68,82,-92,9,151,122,63,-4,-29,-53
-117,-48,68,82,-92,9,146,117,63,-4,-24,-53
-112,-48,63,80,-87,7,146,117,58,-4,-24,-53
-102,-48,53,75,-78,2,146,117,53,-4,-24,-53
-102,-48,53,75,-78,2,141,122,58,-4,-34,-53
-102,-48,53,75,-78,2,141,126,58,-4,-39,-53
-97,-48,48,73,-73,0,141,122,53,-4,-39,-53
-97,-48,48,73,-73,0,136,122,53,-4,-39,-53
-97,-43,53,70,-75,4,131,122,53,-4,-39,-58
-92,-43,48,68,-70,2,131,122,53,-9,-39,-63
-92,-43,48,68,-70,2,131,122,53,-9,-39,-63
-92,-43,48,68,-70,2,122,122,53,-9,-39,-63
-92,-43,48,68,-70,2,122,117,53,-9,-43,-63
-92,-43,48,68,-70,2,122,117,53,-9,-43,-68
-87,-43,43,65,-65,0,117,122,53,-9,-43,-68
-87,-39,48,63,-68,4,112,122,53,-9,-43,-68
-82,-39,43,61,-63,2,112,122,53,-9,-43,-68
-82,-39,43,61,-63,2,112,122,53,-9,-43,-68
-82,-39,43,61,-63,2,112,122,58,-9,-43,-68
-78,-39,39,58,-58,0,107,122,58,-9,-43,-68
-78,-34,43,56,-61,4,107,122,58,-9,-43,-63
-78,-34,43,56,-61,4,102,122,58,-9,-43,-58
-78,-34,43,56,-61,4,102,122,58,-9,-43,-58
-73,-34,39,53,-56,2,102,126,58,-9,-43,-58
-73,-29,43,51,-58,7,97,131,58,-4,-43,-58
-68,-29,39,48,-53,4,92,131,63,-4,-43,-58
-68,-29,39,48,-53,4,92,131,63,-4,-39,-53
-68,-29,39,48,-53,4,87,136,63,-4,-39,-53
-68,-29,39,48,-53,4,87,136,63,-4,-39,-53
-63,-29,34,46,-48,2,78,136,58,-4,-39,-58
-58,-24,34,41,-46,4,78,141,58,-4,-39,-63
-58,-24,34,41,-46,4,78,141,58,-9,-43,-63
-58,-24,34,41,-46,4,78,141,53,-14,-48,-63
-58,-24,34,41,-46,4,73,146,48,-14,-48,-63
-53,-29,24,41,-39,-2,68,146,48,-19,-48,-63
-48,-29,19,39,-34,-4,68,146,48,-19,-48,-68
-48,-29,19,39,-34,-4,68,146,43,-19,-53,-63
-48,-34,14,41,-31,-9,68,146,39,-29,-63,-68
-48,-29,19,39,-34,-4,63,151,34,-39,-73,-68
-43,-34,9,39,-26,-12,58,151,24,-43,-78,-78
-43,-34,9,39,-26,-12,53,151,14,-53,-78,-82
-43,-39,4,41,-24,-17,53,151,0,-58,-82,-92
-39,-39,0,39,-19,-19,53,156,-9,-73,-92,-97
-39,-48,-9,43,-14,-29,48,161,-29,-87,-107,-107
-39,-48,-9,43,-14,-29,48,156,-34,-97,-117,-112
-39,-63,-24,51,-7,-43,48,156,-48,-107,-126,-122
-39,-63,-24,51,-7,-43,48,156,-63,-126,-136,-131
-39,-68,-29,53,-4,-48,53,156,-87,-136,-146,-141
-39,-78,-39,58,0,-58,53,156,-97,-146,-161,-146
-39,-92,-53,65,7,-73,53,156,-112,-156,-170,-151
-43,-92,-48,68,2,-70,53,156,-122,-170,-180,-151
-43,-97,-53,70,4,-75,53,156,-131,-180,-190,-165
-43,-97,-53,70,4,-75,53,161,-136,-190,-195,-170
-43,-97,-53,70,4,-75,58,165,-141,-190,-195,-170
-48,-97,-48,73,0,-73,58,165,-141,-190,-204,-170
-48,-97,-48,73,0,-73,58,165,-141,-190,-204,-175
-48,-92,-43,70,-2,-68,63,156,-146,-200,-209,-180
-43,-87,-43,65,0,-65,63,146,-151,-209,-214,-185
-43,-82,-39,63,-2,-61,63,141,-146,-200,-209,-180
-43,-73,-29,58,-7,-51,63,136,-141,-190,-209,-170
-43,-68,-24,56,-9,-46,63,126,-131,-175,-195,-165
-39,-58,-19,48,-9,-39,53,122,-112,-170,-175,-156
-43,-58,-14,51,-14,-36,48,107,-97,-151,-156,-141
-43,-48,-4,46,-19,-26,43,92,-82,-126,-141,-122
-39,-43,-4,41,-17,-24,39,82,-68,-112,-122,-107
-34,-43,-9,39,-12,-26,34,73,-58,-97,-107,-92
-29,-39,-9,34,-9,-24,29,63,-48,-87,-87,-73
-29,-39,-9,34,-9,-24,24,53,-34,-63,-73,-58
-9,-34,-24,21,7,-29,19,43,-19,-48,-58,-39
-4,-29,-24,17,9,-26,14,43,-9,-34,-48,-29
0,-24,-24,12,12,-24,9,29,0,-24,-34,-19
4,-24,-29,9,17,-26,4,19,0,-19,-19,-9
9,-19,-29,4,19,-24,0,14,4,-4,-4,0
9,-14,-24,2,17,-19,-9,4,4,9,0,14
14,-9,-24,-2,19,-17,-9,4,14,14,4,14
14,-9,-24,-2,19,-17,-9,4,14,14,14,14
14,-9,-24,-2,19,-17,-14,4,19,19,19,24
19,-9,-29,-4,24,-19,-14,0,19,19,24,24
19,-9,-29,-4,24,-19,-14,0,19,19,24,29
19,-9,-29,-4,24,-19,-14,0,19,19,24,29
19,-9,-29,-4,24,-19,-14,-4,14,24,24,29
19,-9,-29,-4,24,-19,-14,-9,9,29,24,29
14,-4,-19,-4,17,-12,-14,-9,9,29,29,24
14,0,-14,-7,14,-7,-14,-9,14,29,29,24
14,0,-14,-7,14,-7,-14,-9,14,29,19,24
14,0,-14,-7,14,-7,-14,-9,14,34,19,19
14,0,-14,-7,14,-7,-14,-9,14,34,19,19
9,0,-9,-4,9,-4,-14,-4,14,29,24,19
9,0,-9,-4,9,-4,-14,0,19,29,24,19
4,0,-4,-2,4,-2,-9,9,24,29,19,19
4,0,-4,-2,4,-2,-9,9,24,29,19,19
4,0,-4,-2,4,-2,-9,9,24,29,19,19
4,-4,-9,0,7,-7,-9,9,24,24,19,14
0,-9,-9,4,4,-9,-9,14,24,24,19,14
0,-9,-9,4,4,-9,-4,19,24,24,19,14
-4,-9,-4,7,0,-7,4,19,24,24,19,9
-4,-14,-9,9,2,-12,4,24,29,24,19,9
-4,-14,-9,9,2,-12,9,24,29,19,19,4
-4,-19,-14,12,4,-17,9,24,29,19,14,4
-9,-19,-9,14,0,-14,14,29,29,19,9,4
-9,-19,-9,14,0,-14,14,34,24,19,9,0
-9,-24,-14,17,2,-19,14,39,24,14,4,0
-14,-24,-9,19,-2,-17,19,39,29,14,4,-9
-14,-24,-9,19,-2,-17,24,39,34,9,4,-9
-14,-29,-14,21,0,-21,29,39,34,9,0,-9
-14,-29,-14,21,0,-21,29,34,29,9,-4,-9
-14,-29,-14,21,0,-21,29,34,24,4,-4,-9
-14,-29,-14,21,0,-21,29,34,24,4,-4,-9
-19,-29,-9,24,-4,-19,29,39,24,4,-14,-9
-19,-34,-14,26,-2,-24,29,43,24,4,-14,-14
-19,-34,-14,26,-2,-24,29,43,24,0,-14,-14
-19,-34,-14,26,-2,-24,29,43,19,0,-14,-14
-19,-39,-19,29,0,-29,29,43,14,0,-9,-14
-14,-39,-24,26,4,-31,29,39,4,0,-9,-14
-19,-43,-24,31,2,-34,24,39,4,0,-9,-14
-24,-48,-24,36,0,-36,24,34,0,0,-9,-14
-24,-48,-24,36,0,-36,19,34,0,-4,-14,-14
-24,-48,-24,36,0,-36,14,29,-4,-4,-14,-14
-19,-39,-19,29,0,-29,9,24,-4,-4,-14,-14
-14,-29,-14,21,0,-21,9,19,-4,-4,-14,-9
-14,-29,-14,21,0,-21,9,14,-4,-4,-9,-14
-9,-29,-19,19,4,-24,9,14,-4,-4,-4,-19
-9,-39,-29,24,9,-34,9,9,-4,-4,-4,-19
-9,-43,-34,26,12,-39,4,9,-4,-9,-4,-19
-9,-39,-29,24,9,-34,4,4,-4,-9,-9,-19
-9,-39,-29,24,9,-34,4,4,-4,-9,-14,-19
-9,-39,-29,24,9,-34,4,0,-9,-9,-14,-19
-4,-39,-34,21,14,-36,4,0,-14,-9,-9,-19
0,-34,-34,17,17,-34,4,0,-14,-9,-9,-14
0,-34,-34,17,17,-34,0,0,-14,-9,-9,-14
-4,-34,-29,19,12,-31,-4,-9,-19,-14,-14,-14
-4,-34,-29,19,12,-31,-4,-14,-19,-14,-14,-14
-4,-39,-34,21,14,-36,0,-14,-19,-14,-14,-14
-9,-39,-29,24,9,-34,4,-14,-19,-14,-9,-14
-9,-34,-24,21,7,-29,0,-14,-24,-14,-9,-9
-9,-29,-19,19,4,-24,0,-14,-24,-14,-9,-9
-9,-39,-29,24,9,-34,0,-19,-19,-14,-9,-9
-9,-48,-39,29,14,-43,0,-29,-19,-19,-9,-9
-4,-48,-43,26,19,-46,-4,-29,-24,-19,-14,-9
0,-48,-48,24,24,-48,-9,-29,-29,-19,-19,-9
0,-43,-43,21,21,-43,-9,-29,-29,-19,-19,-9
0,-39,-39,19,19,-39,-9,-29,-29,-19,-19,-9
4,-39,-43,17,24,-41,-9,-29,-29,-19,-19,-9
9,-34,-43,12,26,-39,-9,-24,-29,-19,-19,-9
4,-34,-39,14,21,-36,-9,-24,-29,-19,-19,-9
9,-29,-39,9,24,-34,-9,-24,-29,-19,-19,-9
19,-19,-39,0,29,-29,-4,-9,-14,-14,-14,0
39,-4,-43,-17,41,-24,0,4,-9,-4,-4,4
48,9,-39,-29,43,-14,0,9,0,0,0,9
58,14,-43,-36,51,-14,4,9,0,9,9,19
63,19,-43,-41,53,-12,-24,9,4,9,14,19
87,19,-68,-53,78,-24,-73,9,9,9,19,29
122,34,-87,-78,104,-26,-107,9,19,29,29,43
146,53,-92,-100,119,-19,-131,0,29,48,48,63
156,58,-97,-107,126,-19,-141,-9,29,48,48,63
161,58,-102,-109,131,-21,-131,-19,19,34,43,58
156,53,-102,-104,129,-24,-117,-19,9,34,43,58
156,53,-102,-104,129,-24,-97,-19,9,34,39,58
156,53,-102,-104,129,-24,-92,-9,9,34,43,63
151,48,-102,-100,126,-26,-92,-14,9,29,48,63
161,48,-112,-104,136,-31,-87,-39,-9,24,43,63
156,43,-112,-100,134,-34,-82,-58,-24,14,34,53
131,43,-87,-87,109,-21,-68,-58,-24,4,24,43
97,34,-63,-65,80,-14,-43,-43,-24,-4,19,34
63,0,-63,-31,63,-31,-24,-43,-39,-9,0,14
34,-29,-63,-2,48,-46,-14,-48,-48,-29,-14,4
4,-34,-39,14,21,-36,-14,-58,-48,-29,-19,0
-4,-34,-29,19,12,-31,-9,-58,-48,-29,-24,-9
-4,-34,-29,19,12,-31,-9,-58,-48,-29,-24,-9
-9,-39,-29,24,9,-34,0,-63,-53,-29,-29,-14
-14,-43,-29,29,7,-36,0,-58,-53,-39,-29,-14
-9,-43,-34,26,12,-39,4,-58,-53,-43,-29,-19
-14,-43,-29,29,7,-36,4,-58,-53,-43,-34,-19
-14,-48,-34,31,9,-41,9,-58,-58,-48,-34,-19
-19,-48,-29,34,4,-39,14,-48,-53,-43,-34,-19
-29,-53,-24,41,-2,-39,19,-43,-48,-39,-34,-19
-29,-53,-24,41,-2,-39,19,-43,-48,-39,-34,-19
-29,-53,-24,41,-2,-39,19,-43,-48,-39,-34,-19
-24,-53,-29,39,2,-41,19,-48,-53,-39,-34,-19
-19,-53,-34,36,7,-43,19,-53,-58,-39,-34,-19
-19,-53,-34,36,7,-43,19,-53,-58,-48,-39,-24
-19,-48,-29,34,4,-39,19,-53,-58,-53,-39,-24
-34,-48,-14,41,-9,-31,14,-78,-58,-48,-39,-24
-24,-58,-34,41,4,-46,9,-63,-53,-48,-39,-24
-14,-73,-58,43,21,-65,0,-43,-73,-53,-39,-24
9,-78,-87,34,48,-82,29,43,-53,-39,-39,-24
58,-107,-165,24,112,-136,131,336,24,-24,-29,-29
141,-131,-273,-4,207,-202,175,448,48,-24,-58,-53
185,-175,-361,-4,273,-268,317,478,151,-156,-248,-283
263,-43,-307,-109,285,-175,307,312,292,-92,-209,-253
883,405,-478,-644,680,-36,-248,-248,317,283,258,248
1615,1029,-585,-1322,1100,222,-1317,-1132,141,800,976,1049
1595,1912,317,-1754,639,1115,-2186,-2137,39,1625,2064,2186
790,1864,1073,-1327,-141,1468,-2161,-2815,-214,1371,1869,2098
-73,658,732,-292,-402,695,-1278,-2191,-771,-53,273,649
-419,-92,326,256,-373,117,-639,-1546,-951,-658,-473,-107
-278,-204,73,241,-175,-65,-356,-854,-678,-488,-375,-161
-190,-317,-126,253,-31,-222,-117,-322,-444,-380,-361,-239
-156,-214,-58,185,-48,-136,19,-82,-195,-209,-234,-180
-141,-131,9,136,-75,-61,146,102,-24,-78,-131,-122
-156,-107,48,131,-102,-29,161,122,9,-53,-102,-102
-146,-82,63,114,-104,-9,161,151,19,-34,-82,-87
-136,-78,58,107,-97,-9,156,141,19,-34,-82,-82
-131,-78,53,104,-92,-12,156,136,24,-34,-78,-78
-131,-82,48,107,-90,-17,161,131,24,-34,-68,-78
-126,-82,43,104,-85,-19,161,131,29,-39,-63,-73
-122,-73,48,97,-85,-12,161,131,29,-39,-58,-78
-117,-63,53,90,-85,-4,161,131,29,-34,-58,-78
-112,-63,48,87,-80,-7,165,131,29,-29,-58,-78
-112,-63,48,87,-80,-7,165,131,34,-29,-58,-73
-112,-63,48,87,-80,-7,165,131,39,-29,-53,-73
-107,-63,43,85,-75,-9,161,131,39,-24,-53,-73
-107,-58,48,82,-78,-4,161,131,43,-24,-53,-73
-107,-58,48,82,-78,-4,161,131,43,-24,-53,-73
-107,-58,48,82,-78,-4,161,136,43,-24,-53,-73
-107,-58,48,82,-78,-4,161,141,43,-24,-53,-73
-107,-58,48,82,-78,-4,156,136,43,-24,-48,-73
-107,-58,48,82,-78,-4,156,136,43,-24,-43,-73
-102,-58,43,80,-73,-7,156,136,43,-24,-43,-73
-102,-58,43,80,-73,-7,151,136,48,-24,-48,-73
-102,-58,43,80,-73,-7,146,136,48,-24,-48,-73
-97,-58,39,78,-68,-9,141,131,43,-24,-48,-73
-97,-58,39,78,-68,-9,136,126,43,-24,-48,-73
-97,-53,43,75,-70,-4,131,122,43,-24,-48,-73
-92,-53,39,73,-65,-7,131,122,43,-29,-48,-73
-92,-53,39,73,-65,-7,131,122,43,-29,-48,-73
-92,-53,39,73,-65,-7,126,126,43,-29,-48,-73
-92,-53,39,73,-65,-7,131,126,43,-29,-53,-73
-92,-53,39,73,-65,-7,131,126,43,-29,-53,-78
-87,-53,34,70,-61,-9,126,131,43,-29,-53,-78
-87,-48,39,68,-63,-4,117,131,43,-29,-58,-78
-82,-48,34,65,-58,-7,112,131,43,-29,-63,-78
-82,-48,34,65,-58,-7,112,131,43,-29,-63,-78
-82,-48,34,65,-58,-7,112,131,48,-29,-63,-78
-78,-48,29,63,-53,-9,107,131,48,-29,-63,-78
-78,-43,34,61,-56,-4,107,131,48,-29,-63,-78
-78,-43,34,61,-56,-4,102,131,48,-29,-63,-78
-78,-43,34,61,-56,-4,102,131,48,-29,-63,-78
-73,-43,29,58,-51,-7,102,136,48,-29,-63,-78
-73,-39,34,56,-53,-2,97,141,48,-24,-63,-78
-68,-39,29,53,-48,-4,92,141,53,-24,-63,-78
-68,-39,29,53,-48,-4,92,141,53,-24,-58,-73
-68,-39,29,53,-48,-4,87,146,53,-24,-58,-73
-68,-39,29,53,-48,-4,87,146,53,-24,-58,-68
-63,-39,24,51,-43,-7,78,146,48,-24,-53,-68
-58,-34,24,46,-41,-4,78,151,48,-24,-48,-73
-58,-34,24,46,-41,-4,78,151,48,-29,-53,-73
-58,-34,24,46,-41,-4,78,151,43,-34,-58,-73
-58,-29,29,43,-43,0,73,156,39,-34,-58,-73
-53,-29,24,41,-39,-2,68,156,34,-39,-58,-73
-48,-29,19,39,-34,-4,68,156,34,-39,-58,-78
-48,-29,19,39,-34,-4,68,156,29,-43,-63,-78
-48,-34,14,41,-31,-9,68,156,19,-58,-73,-87
-48,-34,14,41,-31,-9,63,161,14,-68,-82,-87
-43,-43,0,43,-21,-21,58,161,4,-73,-87,-97
-43,-43,0,43,-21,-21,53,161,-4,-82,-92,-102
-48,-48,0,48,-24,-24,53,161,-19,-82,-102,-112
-48,-48,0,48,-24,-24,53,161,-29,-92,-112,-117
-48,-58,-9,53,-19,-34,48,161,-48,-107,-126,-122
-48,-58,-9,53,-19,-34,48,156,-53,-117,-136,-122
-43,-73,-29,58,-7,-51,53,156,-68,-126,-146,-131
-39,-73,-34,56,-2,-53,53,156,-78,-146,-156,-141
-39,-78,-39,58,0,-58,53,156,-97,-156,-165,-156
-39,-82,-43,61,2,-63,53,156,-107,-165,-180,-165
-39,-92,-53,65,7,-73,53,156,-122,-175,-190,-170
-43,-92,-48,68,2,-70,53,156,-131,-190,-200,-170
-43,-97,-53,70,4,-75,48,156,-146,-204,-209,-185
-43,-97,-53,70,4,-75,43,156,-156,-219,-214,-190
-43,-97,-53,70,4,-75,48,156,-161,-224,-219,-195
-48,-97,-48,73,0,-73,48,151,-161,-229,-234,-200
-48,-102,-53,75,2,-78,48,146,-161,-229,-234,-204
-53,-102,-48,78,-2,-75,53,136,-161,-229,-234,-204
-53,-97,-43,75,-4,-70,53,126,-165,-229,-244,-209
-53,-92,-39,73,-7,-65,53,122,-161,-219,-239,-204
-53,-82,-29,68,-12,-56,53,117,-151,-214,-229,-190
-53,-78,-24,65,-14,-51,53,107,-141,-200,-214,-180
-53,-68,-14,61,-19,-41,48,102,-122,-190,-195,-165
-58,-68,-9,63,-24,-39,48,92,-107,-170,-175,-151
-53,-58,-4,56,-24,-31,43,78,-92,-146,-161,-131
-48,-53,-4,51,-21,-29,39,63,-78,-131,-141,-122
-43,-53,-9,48,-17,-31,34,53,-68,-117,-136,-112
-39,-43,-4,41,-17,-24,29,43,-58,-107,-126,-92
-39,-39,0,39,-19,-19,19,34,-43,-82,-102,-78
-24,-34,-9,29,-7,-21,9,24,-34,-73,-78,-63
-19,-24,-4,21,-7,-14,4,24,-29,-63,-68,-58
-9,-14,-4,12,-2,-9,0,14,-19,-53,-58,-48
0,-14,-14,7,7,-14,-4,9,-19,-48,-43,-39
9,-9,-19,0,14,-14,-4,4,-14,-39,-29,-34
9,-4,-14,-2,12,-9,-14,-9,-14,-29,-29,-19
14,0,-14,-7,14,-7,-19,-14,-4,-24,-29,-14
14,0,-14,-7,14,-7,-24,-19,-4,-19,-24,-14
14,0,-14,-7,14,-7,-34,-24,-4,-9,-19,-4
19,4,-14,-12,17,-4,-34,-29,-9,-4,-9,-4
19,9,-9,-14,14,0,-34,-29,-9,0,-4,0
19,9,-9,-14,14,0,-34,-29,-9,0,-4,0
19,9,-9,-14,14,0,-34,-29,-9,0,-4,0
19,9,-9,-14,14,0,-34,-29,-9,0,-4,0
14,9,-4,-12,9,2,-34,-29,-9,0,0,-4
14,9,-4,-12,9,2,-29,-29,-4,-4,0,-4
14,9,-4,-12,9,2,-24,-29,-4,-9,-9,-4
14,9,-4,-12,9,2,-24,-29,-4,-4,-14,-9
14,9,-4,-12,9,2,-24,-29,-4,-4,-19,-9
9,9,0,-9,4,4,-24,-24,-4,-9,-14,-9
9,9,0,-9,4,4,-24,-24,0,-9,-14,-9
4,9,4,-7,0,7,-19,-14,4,-4,-14,-9
4,9,4,-7,0,7,-19,-9,4,0,-9,-9
4,9,4,-7,0,7,-19,-9,4,0,-9,-9
4,9,4,-7,0,7,-19,-9,4,-4,-9,-14
0,9,9,-4,-4,9,-19,-9,0,-9,-9,-14
0,9,9,-4,-4,9,-19,-9,-4,-14,-9,-14
-4,9,14,-2,-9,12,-14,-9,-4,-14,-14,-19
-4,4,9,0,-7,7,-14,-4,0,-14,-19,-19
-4,4,9,0,-7,7,-9,-4,0,-14,-19,-19
-4,0,4,2,-4,2,-9,-4,0,-9,-24,-14
-9,0,9,4,-9,4,-4,0,0,-9,-24,-14
-9,0,9,4,-9,4,-4,0,-4,-9,-19,-19
-9,-4,4,7,-7,0,-4,4,-4,-14,-24,-19
-14,-4,9,9,-12,2,-4,9,-4,-14,-24,-29
-19,-4,14,12,-17,4,-4,9,-4,-19,-29,-29
-24,-9,14,17,-19,2,0,14,-4,-19,-34,-29
-24,-9,14,17,-19,2,0,14,-9,-24,-34,-34
-24,-9,14,17,-19,2,0,14,-14,-34,-34,-39
-24,-9,14,17,-19,2,0,14,-14,-34,-34,-39
-29,-9,19,19,-24,4,0,14,-14,-34,-43,-39
-29,-14,14,21,-21,0,0,14,-9,-29,-43,-43
-29,-14,14,21,-21,0,0,14,-4,-29,-43,-43
-29,-14,14,21,-21,0,0,14,-9,-29,-43,-43
-29,-19,9,24,-19,-4,0,14,-9,-29,-39,-43
-24,-19,4,21,-14,-7,0,9,-14,-29,-34,-43
-24,-19,4,21,-14,-7,-4,9,-14,-29,-29,-43
-24,-19,4,21,-14,-7,-4,4,-19,-29,-29,-43
-24,-19,4,21,-14,-7,-4,4,-19,-34,-34,-43
-24,-19,4,21,-14,-7,-4,0,-24,-34,-34,-43
-24,-19,4,21,-14,-7,-9,0,-24,-34,-34,-43
-24,-19,4,21,-14,-7,-9,0,-24,-34,-34,-39
-24,-19,4,21,-14,-7,-9,-4,-24,-34,-34,-39
-19,-19,0,19,-9,-9,-9,-4,-24,-34,-34,-39
-19,-24,-4,21,-7,-14,-9,-9,-29,-34,-34,-39
-19,-24,-4,21,-7,-14,-19,-9,-34,-39,-34,-39
-19,-19,0,19,-9,-9,-24,-14,-34,-39,-34,-39
-19,-19,0,19,-9,-9,-24,-14,-34,-39,-34,-39
-19,-19,0,19,-9,-9,-24,-19,-34,-39,-34,-39
-14,-19,-4,17,-4,-12,-24,-24,-34,-39,-29,-39
-9,-14,-4,12,-2,-9,-24,-29,-34,-39,-29,-34
-9,-14,-4,12,-2,-9,-29,-29,-34,-39,-29,-34
-9,-14,-4,12,-2,-9,-34,-34,-39,-43,-34,-34
-9,-19,-9,14,0,-14,-29,-39,-39,-43,-39,-34
-9,-24,-14,17,2,-19,-24,-43,-39,-43,-43,-34
-9,-19,-9,14,0,-14,-24,-43,-39,-43,-39,-34
-9,-14,-4,12,-2,-9,-29,-43,-43,-43,-39,-29
-9,-9,0,9,-4,-4,-29,-43,-43,-43,-34,-29
-4,-9,-4,7,0,-7,-34,-43,-43,-43,-34,-29
-19,-19,0,19,-9,-9,-34,-48,-43,-43,-34,-29
-19,-24,-4,21,-7,-14,-43,-48,-43,-43,-29,-24
-14,-14,0,14,-7,-7,-34,-48,-43,-39,-29,-24
-9,-9,0,9,-4,-4,-29,-48,-48,-39,-29,-29
-4,-4,0,4,-2,-2,-34,-53,-48,-43,-39,-29
0,0,0,0,0,0,-39,-58,-48,-48,-48,-29
0,0,0,0,0,0,-39,-58,-48,-48,-48,-29
0,0,0,0,0,0,-39,-58,-48,-43,-43,-29
0,0,0,0,0,0,-39,-58,-48,-43,-43,-29
0,4,4,-2,-2,4,-39,-53,-48,-39,-39,-29
0,0,0,0,0,0,-39,-53,-48,-39,-39,-29
9,0,-9,-4,9,-4,-39,-53,-48,-39,-39,-29
19,9,-9,-14,14,0,-39,-43,-34,-34,-34,-24
39,24,-14,-31,26,4,-39,-34,-29,-24,-24,-24
48,39,-9,-43,29,14,-39,-29,-19,-19,-19,-19
58,43,-14,-51,36,14,-34,-29,-19,-9,-9,-9
63,48,-14,-56,39,17,-63,-29,-14,-9,-4,-9
87,48,-39,-68,63,4,-112,-29,-9,-9,0,0
126,63,-63,-95,95,0,-146,-24,0,14,14,19
156,82,-73,-119,114,4,-170,-29,9,39,39,43
161,87,-73,-124,117,7,-170,-39,9,39,39,43
161,87,-73,-124,117,7,-151,-48,0,24,34,39
156,82,-73,-119,114,4,-136,-48,-9,19,34,39
156,82,-73,-119,114,4,-117,-48,-9,14,29,39
156,87,-68,-122,112,9,-112,-48,-9,14,29,39
151,87,-63,-119,107,12,-112,-63,-9,9,29,34
151,87,-63,-119,107,12,-107,-78,-24,4,29,34
136,82,-53,-109,95,14,-102,-87,-34,-4,24,24
112,73,-39,-92,75,17,-87,-82,-34,-9,14,14
78,53,-24,-65,51,14,-63,-63,-34,-14,9,4
43,29,-14,-36,29,7,-48,-63,-48,-19,-9,-14
14,9,-4,-12,9,2,-43,-68,-58,-39,-24,-24
-4,4,9,0,-7,7,-43,-78,-58,-39,-24,-24
-4,4,9,0,-7,7,-39,-78,-58,-39,-24,-29
-4,0,4,2,-4,2,-39,-73,-58,-48,-29,-29
-9,-9,0,9,-4,-4,-29,-73,-63,-58,-39,-34
-19,-14,4,17,-12,-4,-29,-68,-63,-53,-39,-34
-19,-14,4,17,-12,-4,-24,-68,-63,-43,-39,-39
-24,-14,9,19,-17,-2,-24,-68,-58,-43,-43,-39
-24,-19,4,21,-14,-7,-19,-68,-58,-48,-43,-39
-24,-19,4,21,-14,-7,-19,-63,-58,-48,-43,-39
-29,-24,4,26,-17,-9,-19,-63,-58,-48,-43,-39
-29,-24,4,26,-17,-9,-19,-68,-58,-48,-39,-39
-29,-24,4,26,-17,-9,-19,-73,-58,-48,-34,-39
-29,-24,4,26,-17,-9,-14,-73,-58,-48,-34,-39
-29,-24,4,26,-17,-9,-9,-73,-58,-48,-34,-39
-29,-24,4,26,-17,-9,-9,-73,-58,-53,-39,-43
-29,-19,9,24,-19,-4,-9,-73,-58,-53,-39,-43
-29,-19,9,24,-19,-4,-14,-78,-58,-48,-34,-39
-4,-29,-24,17,9,-26,-19,-43,-53,-48,-29,-34
14,-39,-53,12,34,-46,-4,4,-48,-48,-24,-34
48,-39,-87,-4,68,-63,48,122,-4,-29,-19,-34
122,-58,-180,-31,151,-119,122,361,73,-19,-19,-48
229,-73,-302,-78,265,-187,136,419,97,-24,-58,-82
292,4,-287,-148,290,-141,190,331,244,-34,-107,-165
390,258,-131,-324,261,63,92,48,429,151,73,9
985,790,-195,-888,590,297,-590,-556,390,624,683,678
1693,1498,-195,-1595,944,651,-1786,-1483,151,1239,1542,1644
1283,1908,624,-1595,329,1266,-2137,-2171,-34,1542,1995,2142
87,1385,1298,-736,-605,1342,-1595,-2532,-370,766,1166,1415
-405,331,736,36,-570,534,-878,-1815,-790,-346,-107,229
-380,-268,112,324,-246,-78,-405,-1078,-834,-639,-531,-263
-248,-268,-19,258,-114,-143,-200,-531,-551,-439,-380,-248
-170,-268,-97,219,-36,-183,-39,-146,-307,-302,-312,-258
-141,-165,-24,153,-58,-95,58,9,-97,-146,-180,-185
-131,-82,48,107,-90,-17,146,112,34,-29,-73,-112
-146,-68,78,107,-112,4,146,112,48,-19,-53,-92
-136,-53,82,95,-109,14,131,122,39,-14,-43,-78
-126,-48,78,87,-102,14,126,112,39,-14,-43,-73
-122,-48,73,85,-97,12,126,107,43,-14,-39,-68
-122,-53,68,87,-95,7,131,107,43,-9,-39,-68
-117,-53,63,85,-90,4,131,112,48,-9,-43,-63
-117,-48,68,82,-92,9,131,112,53,-14,-39,-68
-117,-43,73,80,-95,14,131,112,58,-14,-39,-68
-112,-39,73,75,-92,17,136,112,58,-9,-34,-68
-112,-34,78,73,-95,21,136,112,63,-9,-29,-63
-112,-34,78,73,-95,21,136,112,68,-9,-24,-63
-107,-34,73,70,-90,19,131,112,68,-4,-24,-63
-107,-29,78,68,-92,24,131,112,68,-4,-24,-63
-107,-29,78,68,-92,24,131,112,63,-4,-24,-63
-107,-34,73,70,-90,19,131,112,63,-4,-24,-63
-107,-39,68,73,-87,14,131,112,63,-4,-24,-63
-107,-39,68,73,-87,14,126,107,63,-9,-24,-63
-107,-39,68,73,-87,14,126,107,63,-14,-24,-63
-102,-39,63,70,-82,12,126,107,63,-14,-24,-63
-102,-39,63,70,-82,12,122,107,68,-14,-29,-63
-102,-39,63,70,-82,12,122,107,68,-14,-29,-63
-97,-39,58,68,-78,9,122,102,63,-14,-29,-63
-97,-39,58,68,-78,9,122,102,63,-9,-24,-63
-97,-34,63,65,-80,14,122,102,63,-4,-19,-63
-92,-39,53,65,-73,7,122,102,63,-9,-19,-63
-92,-43,48,68,-70,2,122,102,63,-9,-19,-63
-92,-43,48,68,-70,2,112,102,63,-9,-19,-63
-92,-43,48,68,-70,2,112,97,63,-9,-24,-63
-92,-39,53,65,-73,7,112,97,63,-9,-34,-73
-87,-34,53,61,-70,9,107,102,63,-9,-43,-78
-87,-29,58,58,-73,14,102,102,63,-9,-34,-78
-82,-29,53,56,-68,12,102,102,63,-9,-24,-78
-82,-29,53,56,-68,12,102,107,63,-9,-24,-73
-82,-29,53,56,-68,12,102,112,68,-9,-24,-68
-78,-34,43,56,-61,4,97,112,73,-9,-24,-68
-78,-34,43,56,-61,4,97,112,78,-9,-24,-68
-78,-34,43,56,-61,4,92,112,78,-4,-19,-63
-78,-34,43,56,-61,4,92,112,78,0,-14,-58
-73,-34,39,53,-56,2,92,117,78,0,-14,-58
-73,-29,43,51,-58,7,87,122,78,4,-14,-58
-68,-29,39,48,-53,4,82,117,82,4,-14,-58
-68,-29,39,48,-53,4,82,112,82,4,-9,-53
-68,-29,39,48,-53,4,78,117,82,9,-4,-53
-68,-29,39,48,-53,4,78,117,82,14,0,-48
-63,-29,34,46,-48,2,63,117,78,14,0,-48
-58,-24,34,41,-46,4,58,122,78,14,0,-53
-58,-24,34,41,-46,4,58,117,78,4,-9,-53
-58,-24,34,41,-46,4,58,112,73,-4,-19,-53
-58,-24,34,41,-46,4,53,117,68,-4,-19,-53
-53,-29,24,41,-39,-2,48,117,63,-9,-19,-53
-48,-29,19,39,-34,-4,48,117,63,-4,-14,-53
-48,-29,19,39,-34,-4,48,117,58,-4,-14,-48
-48,-34,14,41,-31,-9,48,112,48,-19,-24,-58
-48,-34,14,41,-31,-9,43,112,43,-29,-34,-58
-43,-43,0,43,-21,-21,34,112,34,-34,-39,-63
-43,-43,0,43,-21,-21,24,112,24,-43,-43,-63
-43,-48,-4,46,-19,-26,24,112,4,-48,-53,-73
-39,-48,-9,43,-14,-29,24,112,-9,-63,-63,-78
-39,-58,-19,48,-9,-39,19,107,-34,-82,-82,-92
-39,-58,-19,48,-9,-39,19,97,-43,-97,-97,-102
-39,-73,-34,56,-2,-53,19,97,-58,-107,-112,-112
-39,-73,-34,56,-2,-53,14,97,-68,-126,-126,-122
-39,-78,-39,58,0,-58,14,97,-87,-136,-136,-131
-39,-82,-43,61,2,-63,14,97,-97,-146,-151,-136
-39,-92,-53,65,7,-73,14,92,-112,-156,-151,-136
-43,-92,-48,68,2,-70,14,87,-122,-170,-151,-131
-43,-97,-53,70,4,-75,14,87,-136,-180,-161,-146
-43,-97,-53,70,4,-75,14,87,-146,-190,-165,-151
-43,-102,-58,73,7,-80,19,92,-151,-195,-170,-151
-48,-107,-58,78,4,-82,19,92,-151,-200,-185,-151
-43,-107,-63,75,9,-85,19,92,-151,-200,-185,-156
-43,-102,-58,73,7,-80,24,87,-151,-200,-185,-156
-43,-97,-53,70,4,-75,24,78,-151,-200,-190,-161
-43,-92,-48,68,2,-70,24,73,-141,-190,-180,-156
-48,-82,-34,65,-7,-58,29,68,-131,-180,-170,-146
-53,-78,-24,65,-14,-51,34,58,-122,-161,-156,-141
-48,-68,-19,58,-14,-43,29,58,-97,-151,-136,-126
-48,-68,-19,58,-14,-43,29,53,-78,-131,-117,-112
-43,-58,-14,51,-14,-36,24,48,-63,-107,-107,-92
-39,-53,-14,46,-12,-34,19,43,-48,-92,-92,-82
-34,-53,-19,43,-7,-36,19,34,-39,-78,-78,-73
-29,-43,-14,36,-7,-29,19,24,-29,-68,-58,-53
-29,-34,-4,31,-12,-19,14,14,-9,-34,-34,-34
-14,-24,-9,19,-2,-17,9,4,4,-14,-9,-14
-14,-19,-4,17,-4,-12,4,4,14,-4,0,-4
-9,-14,-4,12,-2,-9,0,-4,29,4,9,9
-9,-19,-9,14,0,-14,-4,-9,29,9,19,19
-9,-19,-9,14,0,-14,-4,-14,34,19,29,24
-9,-14,-4,12,-2,-9,-9,-24,34,29,34,39
-4,-9,-4,7,0,-7,-9,-24,43,34,39,43
-4,-4,0,4,-2,-2,-9,-24,48,34,43,43
-4,0,4,2,-4,2,-14,-24,53,39,48,53
4,0,-4,-2,4,-2,-14,-29,53,43,58,53
9,0,-9,-4,9,-4,-14,-29,58,48,63,58
9,0,-9,-4,9,-4,-14,-29,58,48,63,58
9,0,-9,-4,9,-4,-14,-29,58,48,63,58
9,-4,-14,-2,12,-9,-14,-29,58,48,63,63
4,-9,-14,2,9,-12,-14,-29,58,48,68,63
4,-9,-14,2,9,-12,-9,-29,63,48,73,63
4,-9,-14,2,9,-12,-4,-29,63,48,68,63
4,-9,-14,2,9,-12,-4,-29,63,53,68,58
4,-9,-14,2,9,-12,-4,-29,63,53,68,58
0,-9,-9,4,4,-9,-4,-24,63,53,68,58
0,-9,-9,4,4,-9,-4,-24,68,58,63,58
-4,-9,-4,7,0,-7,0,-19,73,58,58,58
-4,-9,-4,7,0,-7,0,-19,73,58,58,58
-4,-9,-4,7,0,-7,-4,-19,73,58,58,58
-4,-9,-4,7,0,-7,-9,-19,73,53,58,53
-9,-9,0,9,-4,-4,-9,-14,73,53,58,53
-9,-9,0,9,-4,-4,-9,-9,73,53,58,53
-14,-9,4,12,-9,-2,0,-4,73,58,63,53
-14,-14,0,14,-7,-7,4,4,78,63,68,58
-14,-14,0,14,-7,-7,9,4,78,58,68,53
-14,-19,-4,17,-4,-12,9,4,78,58,63,53
-19,-19,0,19,-9,-9,14,9,78,58,58,53
-19,-19,0,19,-9,-9,14,9,73,58,58,48
-19,-24,-4,21,-7,-14,14,9,73,53,53,48
-24,-24,0,24,-12,-12,14,9,73,53,53,39
-24,-24,0,24,-12,-12,9,9,78,48,53,43
-24,-29,-4,26,-9,-17,9,14,82,48,53,48
-24,-29,-4,26,-9,-17,9,14,78,48,53,48
-24,-29,-4,26,-9,-17,9,14,73,43,53,48
-24,-29,-4,26,-9,-17,9,14,68,43,53,43
-29,-29,0,29,-14,-14,9,14,63,43,43,39
-29,-34,-4,31,-12,-19,9,9,63,43,43,34
-29,-34,-4,31,-12,-19,9,4,63,39,43,34
-29,-34,-4,31,-12,-19,9,4,58,39,43,34
-29,-39,-9,34,-9,-24,9,4,58,39,48,34
-24,-39,-14,31,-4,-26,14,4,53,43,48,34
-24,-39,-14,31,-4,-26,14,9,53,48,48,34
-24,-39,-14,31,-4,-26,14,4,48,48,48,34
-24,-39,-14,31,-4,-26,14,0,43,43,43,34
-24,-39,-14,31,-4,-26,14,0,43,39,39,34
-24,-39,-14,31,-4,-26,14,-4,43,39,39,34
-19,-39,-19,29,0,-29,9,-4,39,39,39,34
-19,-39,-19,29,0,-29,9,-9,39,39,39,39
-19,-39,-19,29,0,-29,9,-9,39,39,39,39
-19,-39,-19,29,0,-29,9,-9,39,39,39,39
-14,-39,-24,26,4,-31,0,-9,39,39,39,34
-4,-34,-29,19,12,-31,-4,-4,39,39,39,29
0,-29,-29,14,14,-29,-9,-4,39,39,39,29
0,-24,-24,12,12,-24,-9,-4,39,39,39,29
9,-19,-29,4,19,-24,-9,-4,39,39,39,29
19,-9,-29,-4,24,-19,-9,4,48,43,43,39
39,-14,-53,-12,46,-34,-24,14,39,53,53,43
48,-19,-68,-14,58,-43,-43,19,39,58,58,48
68,-4,-73,-31,70,-39,-34,19,48,68,73,68
82,9,-73,-46,78,-31,-53,19,63,68,82,78
107,19,-87,-63,97,-34,-87,29,68,68,87,87
141,43,-97,-92,119,-26,-102,39,78,87,97,102
156,53,-102,-104,129,-24,-122,19,78,97,107,112
151,48,-102,-100,126,-26,-122,0,68,87,97,102
151,48,-102,-100,126,-26,-107,-9,58,73,92,97
146,43,-102,-95,124,-29,-97,-9,48,73,92,97
136,39,-97,-87,117,-29,-78,-19,48,73,78,92
126,34,-92,-80,109,-29,-73,-29,48,73,68,87
117,29,-87,-73,102,-29,-73,-34,48,68,78,82
107,29,-78,-68,92,-24,-68,-39,34,63,82,82
87,24,-63,-56,75,-19,-63,-48,24,53,73,73
63,14,-48,-39,56,-17,-48,-48,24,43,63,63
34,0,-34,-17,34,-17,-29,-39,29,34,58,58
14,-19,-34,2,24,-26,-19,-43,19,29,39,43
4,-34,-39,14,21,-36,-14,-48,9,9,24,34
-4,-34,-29,19,12,-31,-14,-58,9,9,24,34
-4,-34,-29,19,12,-31,-4,-58,9,9,24,29
-4,-34,-29,19,12,-31,0,-53,9,9,24,29
-9,-34,-24,21,7,-29,9,-53,4,9,19,24
-19,-34,-14,26,-2,-24,9,-48,4,4,19,24
-19,-34,-14,26,-2,-24,14,-48,4,9,24,19
-24,-34,-9,29,-7,-21,14,-48,4,14,24,19
-24,-39,-14,31,-4,-26,14,-48,0,9,24,19
-24,-39,-14,31,-4,-26,9,-43,0,9,24,19
-29,-43,-14,36,-7,-29,9,-48,0,9,24,19
-29,-43,-14,36,-7,-29,9,-53,0,9,24,19
-29,-43,-14,36,-7,-29,9,-53,0,9,24,19
-29,-43,-14,36,-7,-29,9,-53,0,9,24,19
-29,-43,-14,36,-7,-29,9,-53,0,9,24,19
-29,-43,-14,36,-7,-29,9,-53,0,4,19,14
-19,-43,-24,31,2,-34,9,-34,0,4,19,14
-9,-48,-39,29,14,-43,9,-14,0,9,19,14
34,-58,-92,12,63,-75,24,53,24,24,19,14
78,-68,-146,-4,112,-107,53,146,53,39,24,14
151,-53,-204,-48,178,-129,78,229,102,39,29,4
263,-39,-302,-112,283,-170,107,361,180,34,39,-9
390,102,-287,-246,339,-92,14,229,244,165,151,126
531,370,-161,-451,346,104,-131,-58,385,336,312,287
634,795,161,-714,236,478,-483,-478,458,692,727,707
1019,1395,375,-1207,322,885,-1249,-1151,326,1234,1444,1464
1146,1527,380,-1337,383,954,-1830,-1761,-29,1195,1512,1639
331,1268,936,-800,-302,1102,-1517,-1981,-317,761,1063,1259
-409,751,1161,-170,-785,956,-1015,-2025,-512,185,429,673
-390,-24,366,207,-378,170,-502,-1141,-683,-434,-307,-63
-283,-366,-82,324,-100,-224,-175,-575,-595,-512,-488,-317
-170,-239,-68,204,-51,-153,-63,-234,-287,-253,-263,-200
-131,-229,-97,180,-17,-163,53,24,-107,-146,-195,-180
-131,-126,4,129,-68,-61,102,73,24,-43,-82,-102
-112,-63,48,87,-80,-7,170,141,102,34,-14,-58
-107,-58,48,82,-78,-4,156,122,87,19,-24,-58
-107,-48,58,78,-82,4,141,131,78,9,-24,-48
-107,-48,58,78,-82,4,136,122,78,4,-24,-48
-102,-48,53,75,-78,2,136,117,78,4,-24,-53
-102,-53,48,78,-75,-2,141,117,73,9,-24,-58
-97,-53,43,75,-70,-4,136,122,78,9,-24,-53
-97,-48,48,73,-73,0,131,122,78,9,-19,-53
-97,-43,53,70,-75,4,131,122,78,14,-19,-48
-92,-43,48,68,-70,2,136,122,78,19,-14,-48
-92,-48,43,70,-68,-2,136,122,82,19,-9,-43
-92,-53,39,73,-65,-7,136,122,87,19,-4,-43
-87,-53,34,70,-61,-9,131,117,82,19,-9,-43
-87,-48,39,68,-63,-4,131,112,82,14,-14,-43
-92,-48,43,70,-68,-2,131,112,82,14,-14,-43
-97,-48,48,73,-73,0,131,112,82,14,-14,-43
-97,-48,48,73,-73,0,131,117,82,14,-14,-43
-97,-48,48,73,-73,0,126,117,82,14,-14,-43
-92,-48,43,70,-68,-2,126,117,78,14,-14,-43
-82,-48,34,65,-58,-7,126,117,73,14,-14,-43
-82,-53,29,68,-56,-12,122,117,78,14,-19,-48
-82,-58,24,70,-53,-17,122,117,78,14,-19,-53
-78,-58,19,68,-48,-19,122,112,78,14,-19,-53
-78,-58,19,68,-48,-19,117,112,82,14,-19,-53
-82,-53,29,68,-56,-12,112,107,82,14,-24,-53
-82,-53,29,68,-56,-12,112,102,82,9,-29,-53
-82,-53,29,68,-56,-12,112,102,78,9,-29,-53
-82,-53,29,68,-56,-12,102,102,73,9,-29,-53
-82,-53,29,68,-56,-12,102,97,73,9,-34,-53
-82,-53,29,68,-56,-12,102,97,73,9,-34,-58
-78,-53,24,65,-51,-14,107,107,73,9,-34,-58
-78,-48,29,63,-53,-9,112,112,73,9,-34,-58
-73,-48,24,61,-48,-12,102,112,73,9,-34,-58
-73,-48,24,61,-48,-12,92,112,73,9,-34,-58
-73,-48,24,61,-48,-12,92,112,78,14,-34,-53
-68,-48,19,58,-43,-14,87,112,78,19,-34,-48
-68,-43,24,56,-46,-9,92,112,78,19,-29,-48
-68,-43,24,56,-46,-9,92,112,78,19,-24,-48
-68,-43,24,56,-46,-9,92,112,78,19,-24,-48
-63,-43,19,53,-41,-12,92,117,78,19,-24,-48
-63,-39,24,51,-43,-7,87,122,78,19,-24,-48
-58,-39,19,48,-39,-9,82,122,82,14,-24,-48
-58,-39,19,48,-39,-9,82,122,82,14,-24,-43
-58,-39,19,48,-39,-9,78,126,82,14,-29,-43
-58,-39,19,48,-39,-9,78,126,82,14,-29,-43
-53,-39,14,46,-34,-12,68,126,78,14,-29,-48
-48,-34,14,41,-31,-9,68,131,78,14,-29,-53
-48,-34,14,41,-31,-9,68,131,78,9,-34,-53
-48,-34,14,41,-31,-9,68,131,68,0,-39,-53
-48,-34,14,41,-31,-9,63,136,58,-4,-39,-53
-48,-43,4,46,-26,-19,58,136,48,-9,-39,-53
-48,-48,0,48,-24,-24,58,136,39,-9,-39,-58
-48,-48,0,48,-24,-24,58,136,29,-14,-43,-58
-48,-53,-4,51,-21,-29,58,136,19,-29,-53,-68
-48,-53,-4,51,-21,-29,58,141,14,-39,-63,-68
-43,-63,-19,53,-12,-41,58,141,4,-43,-68,-78
-43,-63,-19,53,-12,-41,53,141,-9,-53,-73,-82
-43,-68,-24,56,-9,-46,53,141,-29,-58,-82,-92
-39,-68,-29,53,-4,-48,48,141,-39,-73,-92,-92
-39,-78,-39,58,0,-58,39,141,-58,-87,-107,-97
-34,-78,-43,56,4,-61,39,136,-63,-97,-117,-102
-29,-92,-63,61,17,-78,39,136,-78,-107,-126,-112
-29,-92,-63,61,17,-78,34,131,-87,-126,-136,-122
-29,-97,-68,63,19,-82,34,126,-107,-136,-146,-131
-29,-102,-73,65,21,-87,34,126,-117,-146,-156,-136
-29,-112,-82,70,26,-97,34,126,-131,-156,-161,-141
-34,-112,-78,73,21,-95,34,122,-141,-165,-170,-141
-34,-117,-82,75,24,-100,34,117,-151,-170,-180,-156
-34,-112,-78,73,21,-95,34,117,-151,-175,-185,-161
-34,-107,-73,70,19,-90,39,117,-151,-170,-185,-161
-34,-107,-73,70,19,-90,39,117,-146,-165,-190,-156
-29,-107,-78,68,24,-92,39,117,-141,-161,-185,-156
-34,-102,-68,68,17,-85,43,112,-131,-156,-180,-151
-34,-97,-63,65,14,-80,43,107,-122,-151,-175,-146
-34,-92,-58,63,12,-75,43,102,-107,-141,-156,-136
-34,-82,-48,58,7,-65,43,97,-92,-131,-141,-122
-29,-73,-43,51,7,-58,43,87,-82,-112,-126,-112
-19,-58,-39,39,9,-48,34,82,-63,-102,-107,-97
-19,-58,-39,39,9,-48,34,73,-48,-82,-87,-82
-14,-48,-34,31,9,-41,34,63,-34,-58,-73,-63
-9,-43,-34,26,12,-39,29,58,-19,-43,-58,-53
-4,-43,-39,24,17,-41,24,53,-9,-29,-48,-43
0,-34,-34,17,17,-34,19,43,0,-19,-29,-24
0,-29,-29,14,14,-29,14,34,14,4,-14,-9
14,-24,-39,4,26,-31,9,24,24,14,0,4
14,-19,-34,2,24,-26,4,24,29,24,9,9
14,-19,-34,2,24,-26,0,14,39,34,19,14
14,-24,-39,4,26,-31,-4,9,39,39,29,19
19,-19,-39,0,29,-29,-4,9,39,43,39,24
19,-14,-34,-2,26,-24,-9,4,34,48,39,34
24,-9,-34,-7,29,-21,-4,4,43,53,39,29
24,-9,-34,-7,29,-21,0,4,43,53,43,24
19,-9,-29,-4,24,-19,-4,4,48,53,43,34
19,-9,-29,-4,24,-19,-4,0,48,48,43,34
19,-4,-24,-7,21,-14,-4,0,48,48,43,39
19,0,-19,-9,19,-9,-4,0,48,48,43,39
19,0,-19,-9,19,-9,-4,0,48,53,43,39
19,0,-19,-9,19,-9,-4,0,48,58,43,39
9,0,-9,-4,9,-4,-4,0,48,58,48,34
4,0,-4,-2,4,-2,-4,0,53,58,48,34
4,0,-4,-2,4,-2,0,0,53,53,39,34
4,0,-4,-2,4,-2,4,0,53,53,39,29
9,-4,-14,-2,12,-9,4,4,53,53,39,29
9,-9,-19,0,14,-14,4,14,53,48,43,29
9,-9,-19,0,14,-14,4,14,58,48,43,29
4,-9,-14,2,9,-12,9,19,63,48,39,29
4,-9,-14,2,9,-12,9,19,63,53,39,29
4,-9,-14,2,9,-12,9,19,63,58,39,29
4,-9,-14,2,9,-12,9,19,63,53,39,24
0,-9,-9,4,4,-9,9,24,63,53,39,24
4,-9,-14,2,9,-12,9,29,63,53,39,24
4,-9,-14,2,9,-12,14,29,63,53,39,19
4,-14,-19,4,12,-17,14,29,68,53,39,19
4,-14,-19,4,12,-17,19,24,68,48,39,14
4,-19,-24,7,14,-21,19,14,68,48,34,14
0,-19,-19,9,9,-19,24,9,68,48,29,14
0,-19,-19,9,9,-19,24,9,63,48,29,9
0,-24,-24,12,12,-24,24,9,63,43,24,9
-4,-19,-14,12,4,-17,19,9,63,43,24,4
-4,-14,-9,9,2,-12,14,9,63,39,24,9
-4,-19,-14,12,4,-17,19,14,63,39,24,9
-4,-19,-14,12,4,-17,19,14,58,39,24,9
0,-24,-24,12,12,-24,19,14,53,34,24,9
4,-29,-34,12,19,-31,19,14,53,34,24,9
0,-29,-29,14,14,-29,19,14,53,34,14,9
0,-34,-34,17,17,-34,19,14,53,34,14,4
0,-34,-34,17,17,-34,19,9,53,29,19,4
0,-34,-34,17,17,-34,19,4,48,29,24,4
4,-29,-34,12,19,-31,19,4,48,29,29,4
14,-19,-34,2,24,-26,19,0,43,29,29,4
14,-19,-34,2,24,-26,14,0,43,29,29,4
14,-19,-34,2,24,-26,14,-4,39,29,29,4
9,-19,-29,4,19,-24,14,-4,34,24,24,4
4,-19,-24,7,14,-21,14,-9,24,24,24,4
4,-19,-24,7,14,-21,9,-9,24,24,24,4
4,-19,-24,7,14,-21,9,-9,24,24,24,9
4,-19,-24,7,14,-21,9,-19,24,24,24,9
9,-19,-29,4,19,-24,9,-24,24,24,24,9
4,-29,-34,12,19,-31,9,-29,19,24,19,4
0,-34,-34,17,17,-34,4,-29,14,19,14,0
-4,-34,-29,19,12,-31,4,-34,9,14,14,0
-9,-39,-29,24,9,-34,4,-34,4,9,14,0
-9,-39,-29,24,9,-34,4,-39,4,9,9,0
0,-39,-39,19,19,-39,4,-39,4,9,9,4
0,-39,-39,19,19,-39,0,-43,0,9,9,4
0,-39,-39,19,19,-39,0,-48,0,9,9,9
4,-39,-43,17,24,-41,0,-48,0,9,9,9
9,-39,-48,14,29,-43,0,-48,0,9,9,9
9,-34,-43,12,26,-39,0,-48,0,9,9,9
9,-29,-39,9,24,-34,0,-48,0,9,9,4
9,-29,-39,9,24,-34,0,-48,0,9,9,4
9,-24,-34,7,21,-29,0,-43,0,9,9,0
9,-24,-34,7,21,-29,0,-43,0,9,9,0
19,-19,-39,0,29,-29,0,-43,0,9,9,0
29,-9,-39,-9,34,-24,4,-34,9,14,9,9
48,4,-43,-26,46,-19,9,-24,9,24,14,14
58,19,-39,-39,48,-9,4,-19,19,24,19,14
68,24,-43,-46,56,-9,4,-19,19,29,29,19
73,29,-43,-51,58,-7,-24,-19,24,29,34,19
97,29,-68,-63,82,-19,-73,-19,29,29,39,29
126,43,-82,-85,104,-19,-102,-19,39,48,48,43
146,63,-82,-104,114,-9,-122,-29,48,68,68,63
151,68,-82,-109,117,-7,-122,-39,48,68,68,63
151,68,-82,-109,117,-7,-102,-48,39,53,63,58
151,63,-87,-107,119,-12,-87,-43,29,53,68,63
156,63,-92,-109,124,-14,-68,-39,29,53,68,68
156,63,-92,-109,124,-14,-68,-39,29,53,68,68
151,58,-92,-104,122,-17,-73,-53,29,48,68,63
146,58,-87,-102,117,-14,-68,-68,14,48,68,73
126,53,-73,-90,100,-9,-63,-78,4,43,63,73
102,43,-58,-73,80,-7,-48,-78,4,34,53,63
68,24,-43,-46,56,-9,-24,-63,4,24,48,53
43,0,-43,-21,43,-21,-14,-63,-9,19,29,29
24,-19,-43,-2,34,-31,-14,-68,-19,0,14,14
4,-24,-29,9,17,-26,-14,-78,-19,0,14,14
4,-24,-29,9,17,-26,-9,-78,-19,0,14,9
4,-24,-29,9,17,-26,-9,-73,-19,0,14,9
0,-29,-29,14,14,-29,0,-73,-24,0,9,4
-9,-34,-24,21,7,-29,0,-68,-24,-4,9,4
-9,-34,-24,21,7,-29,4,-68,-24,-4,9,0
-14,-34,-19,24,2,-26,4,-68,-24,-4,4,0
-14,-39,-24,26,4,-31,9,-68,-29,-9,4,0
-14,-39,-24,26,4,-31,14,-63,-29,-9,4,0
-19,-43,-24,31,2,-34,19,-63,-29,-9,4,0
-19,-43,-24,31,2,-34,19,-63,-29,-4,4,0
-19,-43,-24,31,2,-34,19,-63,-29,0,4,0
-19,-43,-24,31,2,-34,19,-63,-29,0,4,0
-19,-43,-24,31,2,-34,19,-63,-29,0,4,0
-19,-43,-24,31,2,-34,19,-63,-29,-4,0,-4
-19,-39,-19,29,0,-29,19,-63,-29,-4,0,-4
-19,-39,-19,29,0,-29,19,-58,-29,0,0,-4
4,-48,-53,21,29,-51,19,-14,-24,0,0,-4
29,-58,-87,14,58,-73,34,48,-9,0,4,-4
68,-58,-126,-4,97,-92,87,180,43,19,9,-4
146,-53,-200,-46,173,-126,141,356,122,34,19,-9
258,-43,-302,-107,280,-173,136,351,146,34,-9,-34
385,92,-292,-239,339,-100,73,180,239,78,19,-24
546,405,-141,-475,344,131,-141,-185,370,317,278,244
1010,907,-102,-958,556,402,-805,-814,273,766,868,888
1586,1586,0,-1586,793,793,-1981,-1766,-24,1356,1708,1830
1156,1795,639,-1476,258,1217,-2147,-2244,-219,1444,1898,2069
-58,1073,1132,-507,-595,1102,-1420,-2396,-566,453,805,1083
-444,170,614,136,-529,392,-766,-1664,-854,-458,-253,87
-312,-278,34,295,-173,-122,-356,-912,-766,-551,-463,-214
-200,-268,-68,234,-65,-168,-156,-414,-488,-351,-312,-190
-141,-258,-117,200,-12,-187,0,-78,-248,-214,-244,-190
-122,-165,-43,143,-39,-104,92,48,-63,-82,-131,-131
-122,-92,29,107,-75,-31,175,122,43,9,-43,-73
-136,-78,58,107,-97,-9,175,122,58,9,-29,-58
-126,-63,63,95,-95,0,161,131,48,4,-24,-48
-117,-58,58,87,-87,0,156,122,48,4,-24,-48
-112,-58,53,85,-82,-2,156,117,53,4,-19,-48
-112,-63,48,87,-80,-7,156,117,53,9,-14,-53
-107,-63,43,85,-75,-9,151,122,58,9,-14,-53
-107,-63,43,85,-75,-9,151,122,58,9,-9,-53
-107,-63,43,85,-75,-9,151,122,58,14,-9,-48
-102,-63,39,82,-70,-12,156,122,53,19,-4,-48
-102,-63,39,82,-70,-12,156,122,53,19,0,-43
-107,-63,43,85,-75,-9,156,122,58,19,0,-39
-107,-63,43,85,-75,-9,151,122,58,24,-4,-34
-107,-58,48,82,-78,-4,156,122,63,24,-4,-34
-107,-58,48,82,-78,-4,161,122,63,24,-4,-34
-107,-58,48,82,-78,-4,161,122,63,24,-4,-34
-107,-58,48,82,-78,-4,161,122,63,24,-4,-34
-107,-53,53,80,-80,0,156,117,63,24,-4,-34
-107,-48,58,78,-82,4,156,117,63,24,-4,-34
-102,-48,53,75,-78,2,156,117,63,19,-4,-34
-102,-48,53,75,-78,2,151,117,68,14,-9,-34
-102,-48,53,75,-78,2,146,117,68,14,-9,-34
-97,-48,48,73,-73,0,141,112,63,14,-9,-34
-97,-48,48,73,-73,0,136,112,63,14,-9,-34
-97,-43,53,70,-75,4,131,112,63,14,-9,-34
-92,-43,48,68,-70,2,131,112,63,9,-9,-34
-92,-43,48,68,-70,2,131,112,63,9,-9,-34
-92,-43,48,68,-70,2,126,117,63,9,-9,-34
-92,-43,48,68,-70,2,131,117,63,9,-14,-34
-92,-43,48,68,-70,2,131,117,63,9,-14,-39
-87,-43,43,65,-65,0,126,122,63,9,-14,-39
-87,-39,48,63,-68,4,122,122,63,9,-14,-39
-82,-39,43,61,-63,2,122,122,63,9,-14,-39
-82,-39,43,61,-63,2,122,122,63,9,-19,-39
-82,-39,43,61,-63,2,122,122,68,9,-24,-39
-78,-39,39,58,-58,0,117,122,68,9,-24,-39
-78,-34,43,56,-61,4,117,122,68,9,-24,-39
-78,-34,43,56,-61,4,112,122,68,9,-19,-39
-78,-34,43,56,-61,4,112,122,68,9,-14,-39
-73,-34,39,53,-56,2,112,126,68,4,-14,-39
-73,-29,43,51,-58,7,107,131,68,4,-14,-39
-68,-29,39,48,-53,4,102,131,73,4,-19,-43
-68,-29,39,48,-53,4,102,131,73,4,-19,-43
-68,-29,39,48,-53,4,97,136,73,4,-19,-43
-68,-29,39,48,-53,4,97,136,73,4,-19,-39
-63,-34,29,48,-46,-2,87,136,68,4,-19,-39
-58,-34,24,46,-41,-4,87,141,68,4,-19,-43
-58,-34,24,46,-41,-4,87,141,68,0,-24,-43
-58,-34,24,46,-41,-4,87,141,63,-4,-29,-43
-63,-29,34,46,-48,2,82,146,53,-4,-29,-43
-63,-29,34,46,-48,2,78,146,43,-9,-29,-43
-58,-29,29,43,-43,0,78,146,39,-9,-29,-48
-58,-29,29,43,-43,0,78,146,29,-14,-34,-48
-53,-34,19,43,-36,-7,78,146,19,-29,-43,-58
-48,-34,14,41,-31,-9,73,151,14,-39,-53,-58
-43,-43,0,43,-21,-21,68,151,4,-43,-58,-68
-43,-43,0,43,-21,-21,63,151,-4,-53,-63,-73
-43,-48,-4,46,-19,-26,63,151,-19,-58,-73,-82
-39,-48,-9,43,-14,-29,63,151,-29,-73,-82,-87
-39,-58,-19,48,-9,-39,58,151,-53,-87,-97,-97
-39,-58,-19,48,-9,-39,58,146,-63,-97,-107,-102
-39,-73,-34,56,-2,-53,58,146,-78,-107,-122,-112
-39,-73,-34,56,-2,-53,53,146,-87,-126,-136,-122
-39,-78,-39,58,0,-58,53,146,-107,-136,-146,-131
-39,-82,-43,61,2,-63,53,146,-117,-146,-161,-136
-39,-92,-53,65,7,-73,53,146,-131,-156,-170,-141
-43,-92,-48,68,2,-70,53,146,-141,-170,-180,-141
-43,-97,-53,70,4,-75,53,146,-151,-180,-190,-156
-43,-97,-53,70,4,-75,53,146,-156,-190,-195,-161
-48,-97,-48,73,0,-73,58,146,-161,-190,-190,-161
-58,-97,-39,78,-9,-68,58,141,-161,-190,-195,-161
-58,-102,-43,80,-7,-73,58,136,-156,-190,-195,-165
-63,-102,-39,82,-12,-70,63,126,-151,-190,-195,-165
-63,-97,-34,80,-14,-65,58,117,-151,-190,-200,-165
-63,-92,-29,78,-17,-61,53,112,-141,-180,-190,-156
-63,-82,-19,73,-21,-51,53,107,-131,-170,-180,-141
-63,-78,-14,70,-24,-46,53,97,-122,-151,-165,-131
-58,-68,-9,63,-24,-39,43,87,-102,-141,-146,-117
-58,-68,-9,63,-24,-39,39,73,-87,-122,-126,-102
-53,-58,-4,56,-24,-31,34,63,-73,-97,-112,-82
-48,-53,-4,51,-21,-29,29,53,-58,-82,-92,-73
-39,-53,-14,46,-12,-34,24,43,-48,-68,-78,-63
-29,-43,-14,36,-7,-29,19,34,-39,-58,-58,-43
-29,-39,-9,34,-9,-24,14,19,-29,-34,-43,-29
-14,-34,-19,24,2,-26,9,4,-24,-24,-29,-14
-14,-29,-14,21,0,-21,4,4,-19,-9,-19,-9
-9,-24,-14,17,2,-19,0,-4,-9,4,-9,0
0,-24,-24,12,12,-24,-4,-4,-9,9,4,9
9,-19,-29,4,19,-24,-4,-4,-4,19,19,14
9,-14,-24,2,17,-19,-9,-14,-4,24,19,24
14,-9,-24,-2,19,-17,-9,-14,4,24,19,24
9,-9,-19,0,14,-14,-9,-19,4,24,24,19
4,-9,-14,2,9,-12,-14,-24,4,29,29,24
4,-9,-14,2,9,-12,-19,-29,0,29,34,24
0,-9,-9,4,4,-9,-24,-29,0,29,34,29
0,-9,-9,4,4,-9,-24,-29,0,29,29,29
0,-9,-9,4,4,-9,-24,-29,0,29,24,29
0,-9,-9,4,4,-9,-24,-29,4,34,24,34
-4,-9,-4,7,0,-7,-24,-29,9,39,29,34
-4,-9,-4,7,0,-7,-24,-29,14,39,34,34
-4,-9,-4,7,0,-7,-24,-29,14,39,29,34
-4,-9,-4,7,0,-7,-24,-29,14,39,29,29
-4,-9,-4,7,0,-7,-24,-29,14,34,29,29
-9,-9,0,9,-4,-4,-24,-24,14,29,34,29
-9,-9,0,9,-4,-4,-24,-24,19,29,34,29
-14,-9,4,12,-9,-2,-19,-14,24,29,29,29
-14,-9,4,12,-9,-2,-19,-9,24,29,29,29
-9,-9,0,9,-4,-4,-14,-9,24,34,29,29
-4,-9,-4,7,0,-7,-9,-9,24,34,29,24
-9,-14,-4,12,-2,-9,-9,-4,24,34,29,24
-9,-19,-9,14,0,-14,-9,0,24,34,29,24
-14,-19,-4,17,-4,-12,-4,0,24,34,29,19
-14,-24,-9,19,-2,-17,-4,4,29,34,29,19
-14,-24,-9,19,-2,-17,0,4,29,29,29,14
-14,-29,-14,21,0,-21,0,4,29,29,24,14
-24,-29,-4,26,-9,-17,4,9,29,29,14,14
-29,-29,0,29,-14,-14,4,9,24,29,9,9
-29,-34,-4,31,-12,-19,4,9,19,24,4,9
-34,-34,0,34,-17,-17,4,9,14,24,4,0
-34,-29,4,31,-19,-12,4,14,14,19,4,0
-34,-29,4,31,-19,-12,9,24,14,19,4,0
-34,-29,4,31,-19,-12,9,24,14,19,4,0
-34,-29,4,31,-19,-12,9,24,14,14,4,0
-34,-29,4,31,-19,-12,9,24,14,14,9,0
-39,-29,9,34,-24,-9,9,24,14,14,4,0
-39,-34,4,36,-21,-14,9,24,14,14,4,-4
-39,-34,4,36,-21,-14,9,24,14,9,4,-4
-34,-34,0,34,-17,-17,9,24,9,9,-4,-4
-29,-39,-9,34,-9,-24,9,24,9,9,-9,-4
-24,-43,-19,34,-2,-31,4,14,4,4,-9,-4
-24,-48,-24,36,0,-36,-4,9,4,0,-9,-4
-29,-48,-19,39,-4,-34,-4,4,0,0,-9,-4
-34,-48,-14,41,-9,-31,-4,4,0,-4,-14,-4
-34,-43,-9,39,-12,-26,0,0,-4,-4,-9,-4
-34,-39,-4,36,-14,-21,0,0,-4,-4,-4,-4
-34,-39,-4,36,-14,-21,0,0,-4,-4,-4,0
-34,-39,-4,36,-14,-21,0,-4,-4,-4,-4,0
-29,-39,-9,34,-9,-24,0,-4,-4,-4,-4,0
-29,-43,-14,36,-7,-29,0,-9,-9,-4,-4,0
-29,-43,-14,36,-7,-29,-4,-9,-14,-9,-4,0
-29,-39,-9,34,-9,-24,-4,-14,-14,-9,-4,0
-24,-39,-14,31,-4,-26,-4,-14,-14,-4,0,0
-24,-39,-14,31,-4,-26,-9,-14,-19,-4,0,4
-19,-34,-14,26,-2,-24,-9,-14,-24,0,-4,0
-19,-29,-9,24,-4,-19,-9,-19,-29,0,-9,0
-19,-29,-9,24,-4,-19,-9,-19,-29,-4,-9,0
-19,-29,-9,24,-4,-19,-9,-19,-29,-9,-9,0
-19,-29,-9,24,-4,-19,-9,-19,-29,-9,-9,4
-14,-24,-9,19,-2,-17,-9,-14,-29,-4,-9,4
-9,-24,-14,17,2,-19,-9,-14,-29,-4,-9,9
-9,-24,-14,17,2,-19,-9,-14,-29,0,-9,9
0,-19,-19,9,9,-19,-9,-14,-29,0,-4,9
9,-9,-19,0,14,-14,-9,-4,-19,4,4,19
29,4,-24,-17,26,-9,-9,0,-9,14,14,24
39,19,-19,-29,29,0,-14,0,9,19,19,29
48,24,-24,-36,36,0,-14,0,9,29,29,39
53,29,-24,-41,39,2,-43,0,14,29,34,39
78,29,-48,-53,63,-9,-92,0,19,29,39,43
112,43,-68,-78,90,-12,-122,0,29,48,48,53
136,63,-73,-100,104,-4,-141,-9,34,68,68,73
141,68,-73,-104,107,-2,-141,-19,29,68,68,73
146,63,-82,-104,114,-9,-122,-29,19,48,63,68
146,53,-92,-100,119,-19,-107,-29,9,43,63,68
146,53,-92,-100,119,-19,-87,-29,9,43,58,68
146,53,-92,-100,119,-19,-82,-29,9,43,58,68
146,48,-97,-97,122,-24,-87,-43,9,39,58,63
146,48,-97,-97,122,-24,-87,-58,-4,34,53,63
126,48,-78,-87,102,-14,-82,-68,-19,24,43,53
102,43,-58,-73,80,-7,-68,-68,-24,14,34,43
63,24,-39,-43,51,-7,-43,-53,-24,4,29,34
34,0,-34,-17,34,-17,-29,-53,-39,0,9,14
14,-24,-39,4,26,-31,-24,-58,-48,-19,-4,0
-4,-34,-29,19,12,-31,-24,-68,-48,-19,-4,-4
-4,-34,-29,19,12,-31,-19,-68,-48,-19,-9,-9
-4,-34,-29,19,12,-31,-19,-63,-48,-19,-14,-9
-9,-39,-29,24,9,-34,-9,-63,-53,-19,-19,-14
-19,-43,-24,31,2,-34,-9,-58,-53,-24,-19,-14
-19,-39,-19,29,0,-29,-4,-58,-53,-24,-19,-19
-24,-34,-9,29,-7,-21,-4,-58,-53,-24,-24,-19
-24,-39,-14,31,-4,-26,0,-58,-53,-29,-24,-19
-24,-39,-14,31,-4,-26,0,-53,-48,-29,-24,-19
-29,-43,-14,36,-7,-29,0,-53,-48,-34,-24,-19
-29,-43,-14,36,-7,-29,0,-53,-48,-39,-24,-19
-29,-43,-14,36,-7,-29,0,-53,-48,-39,-24,-19
-29,-43,-14,36,-7,-29,0,-53,-48,-39,-24,-19
-29,-43,-14,36,-7,-29,0,-53,-48,-34,-24,-14
-29,-43,-14,36,-7,-29,0,-53,-48,-34,-29,-14
-34,-43,-9,39,-12,-26,0,-58,-53,-34,-29,-14
-39,-48,-9,43,-14,-29,0,-63,-58,-29,-29,-14
-19,-58,-39,39,9,-48,0,-39,-53,-29,-29,-14
0,-68,-68,34,34,-68,14,9,-43,-29,-24,-14
34,-68,-102,17,68,-85,68,161,4,-9,-19,-14
107,-68,-175,-19,141,-122,126,361,82,4,-9,-19
214,-126,-341,-43,278,-234,161,400,68,-48,-82,-92
336,-58,-395,-139,366,-226,141,283,131,-63,-107,-141
468,180,-287,-324,378,-53,48,-9,302,87,19,-4
883,595,-287,-739,585,153,-458,-556,268,424,448,468
1712,1473,-239,-1593,976,617,-1873,-1620,43,1244,1566,1683
1600,1961,361,-1781,619,1161,-2396,-2293,-112,1668,2166,2342
204,1298,1093,-751,-444,1195,-1678,-2605,-497,673,1088,1390
-429,375,805,26,-617,590,-951,-1991,-858,-366,-92,287
-322,-175,146,248,-234,-14,-483,-1171,-824,-556,-424,-131
-209,-258,-48,234,-80,-153,-229,-575,-570,-409,-351,-180
-151,-258,-107,204,-21,-183,-48,-170,-317,-273,-283,-195
-131,-165,-34,148,-48,-100,63,24,-112,-141,-170,-151
-131,-92,39,112,-85,-26,151,112,4,-34,-78,-92
-146,-78,68,112,-107,-4,156,112,29,-19,-63,-78
-136,-63,73,100,-104,4,141,126,19,-24,-63,-68
-126,-58,68,92,-97,4,136,122,19,-24,-63,-68
-122,-58,63,90,-92,2,136,117,24,-24,-58,-68
-122,-63,58,92,-90,-2,141,117,24,-19,-53,-68
-117,-63,53,90,-85,-4,141,117,34,-19,-53,-63
-117,-58,58,87,-87,0,141,112,39,-19,-48,-63
-117,-53,63,85,-90,4,141,112,39,-19,-48,-58
-112,-53,58,82,-85,2,146,112,39,-19,-43,-58
-112,-53,58,82,-85,2,146,117,43,-19,-39,-53
-112,-53,58,82,-85,2,146,122,48,-19,-34,-53
-107,-53,53,80,-80,0,141,122,48,-9,-34,-53
-107,-48,58,78,-82,4,141,122,53,-4,-34,-53
-107,-48,58,78,-82,4,141,117,48,-4,-34,-53
-107,-48,58,78,-82,4,141,112,43,-4,-34,-53
-107,-48,58,78,-82,4,141,112,43,-4,-34,-53
-107,-48,58,78,-82,4,136,107,43,-4,-34,-53
-107,-48,58,78,-82,4,136,107,43,-4,-34,-53
-102,-48,53,75,-78,2,136,107,43,-4,-34,-53
-102,-48,53,75,-78,2,131,112,48,-4,-39,-53
-102,-48,53,75,-78,2,131,117,48,-4,-39,-53
-97,-48,48,73,-73,0,131,112,43,-4,-39,-53
-97,-48,48,73,-73,0,126,112,43,-4,-39,-53
-97,-43,53,70,-75,4,122,112,43,-4,-39,-53
-92,-43,48,68,-70,2,122,112,43,-9,-39,-53
-87,-39,48,63,-68,4,122,112,48,-9,-39,-53
-82,-34,48,58,-65,7,112,112,53,-9,-39,-53
-82,-34,48,58,-65,7,112,107,53,-14,-43,-53
-82,-34,48,58,-65,7,112,107,53,-19,-43,-58
-78,-34,43,56,-61,4,107,107,53,-19,-43,-63
-78,-29,48,53,-63,9,102,102,53,-19,-43,-68
-73,-29,43,51,-58,7,102,102,53,-19,-43,-68
-73,-29,43,51,-58,7,102,102,53,-19,-43,-68
-73,-29,43,51,-58,7,97,102,53,-19,-43,-68
-68,-29,39,48,-53,4,87,102,48,-19,-43,-68
-68,-24,43,46,-56,9,87,102,48,-19,-43,-68
-68,-24,43,46,-56,9,82,102,48,-19,-43,-68
-68,-24,43,46,-56,9,82,102,48,-19,-43,-63
-63,-24,39,43,-51,7,82,107,48,-19,-43,-58
-63,-19,43,41,-53,12,82,112,48,-14,-43,-58
-58,-19,39,39,-48,9,82,112,53,-14,-43,-58
-58,-19,39,39,-48,9,82,112,53,-14,-39,-58
-58,-19,39,39,-48,9,78,117,53,-14,-39,-63
-58,-19,39,39,-48,9,78,117,58,-14,-39,-58
-53,-19,34,36,-43,7,68,117,58,-14,-39,-58
-48,-14,34,31,-41,9,68,122,58,-14,-39,-63
-48,-14,34,31,-41,9,68,122,58,-19,-43,-63
-48,-14,34,31,-41,9,68,126,53,-24,-48,-58
-48,-14,34,31,-41,9,63,136,48,-24,-48,-53
-48,-19,29,34,-39,4,58,136,43,-29,-48,-53
-48,-19,29,34,-39,4,58,136,39,-29,-48,-58
-48,-14,34,31,-41,9,58,136,29,-29,-48,-58
-48,-14,34,31,-41,9,58,136,19,-39,-53,-68
-43,-14,29,29,-36,7,53,141,19,-48,-63,-68
-34,-24,9,29,-21,-7,48,141,14,-53,-68,-78
-34,-24,9,29,-21,-7,43,141,4,-63,-73,-82
-34,-29,4,31,-19,-12,43,141,-9,-68,-82,-92
-34,-29,4,31,-19,-12,43,141,-24,-82,-97,-97
-39,-39,0,39,-19,-19,39,141,-48,-97,-117,-107
-39,-39,0,39,-19,-19,39,136,-53,-107,-126,-112
-39,-53,-14,46,-12,-34,39,136,-68,-117,-136,-122
-39,-53,-14,46,-12,-34,34,136,-73,-136,-146,-131
-39,-58,-19,48,-9,-39,34,136,-87,-146,-156,-141
-39,-63,-24,51,-7,-43,39,136,-97,-156,-170,-151
-39,-73,-34,56,-2,-53,43,136,-112,-165,-180,-161
-43,-73,-29,58,-7,-51,43,136,-122,-180,-190,-161
-43,-78,-34,61,-4,-56,43,136,-131,-190,-200,-175
-43,-78,-34,61,-4,-56,43,136,-136,-200,-204,-180
-43,-78,-34,61,-4,-56,48,136,-141,-200,-204,-180
-48,-78,-29,63,-9,-53,48,131,-141,-200,-214,-180
-48,-78,-29,63,-9,-53,48,126,-141,-200,-214,-185
-53,-73,-19,63,-17,-46,48,117,-136,-200,-214,-185
-53,-68,-14,61,-19,-41,43,107,-131,-200,-214,-185
-53,-63,-9,58,-21,-36,43,102,-122,-190,-200,-175
-53,-53,0,53,-26,-26,43,97,-112,-180,-190,-161
-53,-48,4,51,-29,-21,43,82,-107,-161,-175,-151
-48,-39,9,43,-29,-14,34,73,-92,-151,-156,-136
-43,-39,4,41,-24,-17,29,63,-78,-136,-141,-122
-34,-29,4,31,-19,-12,24,53,-63,-117,-131,-102
-29,-24,4,26,-17,-9,14,43,-53,-102,-112,-92
-24,-24,0,24,-12,-12,4,34,-48,-87,-97,-82
-19,-14,4,17,-12,-4,0,19,-39,-82,-78,-68
-19,-9,9,14,-14,0,-4,4,-24,-63,-63,-58
-4,-4,0,4,-2,-2,-9,-4,-14,-53,-48,-43
-4,0,4,2,-4,2,-14,-4,-9,-43,-39,-39
0,4,4,-2,-2,4,-19,-14,0,-29,-29,-24
4,4,0,-4,2,2,-24,-19,0,-19,-19,-9
14,9,-4,-12,9,2,-24,-24,4,-9,-4,-4
19,14,-4,-17,12,4,-29,-34,4,0,0,4
24,19,-4,-21,14,7,-29,-39,14,4,0,4
24,19,-4,-21,14,7,-29,-43,14,4,4,4
24,19,-4,-21,14,7,-34,-43,14,9,9,14
29,19,-9,-24,19,4,-34,-48,9,9,14,14
29,19,-9,-24,19,4,-34,-48,9,9,14,19
29,19,-9,-24,19,4,-34,-48,9,9,14,19
29,19,-9,-24,19,4,-34,-48,9,9,14,19
29,19,-9,-24,19,4,-34,-48,9,9,14,19
24,19,-4,-21,14,7,-34,-48,9,9,19,9
24,19,-4,-21,14,7,-34,-48,14,9,19,4
19,19,0,-19,9,9,-34,-48,14,4,9,0
14,19,4,-17,4,12,-34,-48,14,4,9,-9
14,19,4,-17,4,12,-34,-48,14,4,9,-14
9,19,9,-14,0,14,-34,-43,14,0,14,-19
9,19,9,-14,0,14,-34,-43,14,4,14,-24
4,19,14,-12,-4,17,-29,-39,14,9,9,-29
4,19,14,-12,-4,17,-29,-39,14,9,9,-29
