I, II, III, aVR, aVL, aVF, V1, V2, V3, V4, V5, V6
9,48,39,-29,-14,43,-19,0,19,0,-9,0
9,53,43,-31,-17,48,-19,0,14,-4,-9,0
9,58,48,-34,-19,53,-19,0,9,-9,-9,0
9,58,48,-34,-19,53,-14,0,4,-9,-14,0
9,58,48,-34,-19,53,-9,0,0,-9,-19,0
4,53,48,-29,-21,51,4,-4,0,-14,-19,-4
0,48,48,-24,-24,48,19,-9,0,-19,-19,-9
0,48,48,-24,-24,48,9,-9,-4,-19,-19,-9
0,48,48,-24,-24,48,0,-9,-9,-19,-19,-9
0,48,48,-24,-24,48,0,-9,-9,-19,-19,-9
0,48,48,-24,-24,48,0,-9,-9,-19,-19,-9
0,48,48,-24,-24,48,0,-9,-4,-19,-19,-9
0,48,48,-24,-24,48,0,-9,0,-19,-19,-9
0,48,48,-24,-24,48,0,-9,0,-19,-19,-9
0,48,48,-24,-24,48,0,-9,0,-19,-19,-9
-4,43,48,-19,-26,46,0,-9,-4,-19,-24,-9
-9,39,48,-14,-29,43,0,-9,-9,-19,-29,-9
-9,34,43,-12,-26,39,9,-9,-9,-19,-29,-9
-9,29,39,-9,-24,34,19,-9,-9,-19,-29,-9
-9,29,39,-9,-24,34,9,-4,-9,-19,-29,-9
-9,29,39,-9,-24,34,0,0,-9,-19,-29,-9
-4,29,34,-12,-19,31,0,0,-9,-19,-24,-9
0,29,29,-14,-14,29,0,0,-9,-19,-19,-9
0,34,34,-17,-17,34,0,0,-4,-19,-19,-9
0,39,39,-19,-19,39,0,0,0,-19,-19,-9
0,39,39,-19,-19,39,0,0,0,-19,-19,-9
0,39,39,-19,-19,39,0,0,0,-19,-19,-9
0,29,29,-14,-14,29,4,0,-4,-19,-19,-9
0,19,19,-9,-9,19,9,0,-9,-19,-19,-9
0,19,19,-9,-9,19,9,0,-9,-19,-19,-9
0,19,19,-9,-9,19,9,0,-9,-19,-19,-9
0,19,19,-9,-9,19,9,4,-4,-19,-19,-9
0,19,19,-9,-9,19,9,9,0,-19,-19,-9
4,19,14,-12,-4,17,9,9,0,-19,-19,-9
9,19,9,-14,0,14,9,9,0,-19,-19,-9
9,19,9,-14,0,14,4,9,0,-19,-19,-9
9,19,9,-14,0,14,0,9,0,-19,-19,-9
9,19,9,-14,0,14,0,9,0,-19,-14,-9
9,19,9,-14,0,14,0,9,0,-19,-9,-9
9,19,9,-14,0,14,0,9,0,-14,-9,-9
9,19,9,-14,0,14,0,9,0,-9,-9,-9
9,19,9,-14,0,14,0,9,0,-9,-9,-9
9,19,9,-14,0,14,0,9,0,-9,-9,-9
9,19,9,-14,0,14,0,9,0,-9,-9,-9
9,19,9,-14,0,14,0,9,0,-9,-9,-9
4,14,9,-9,-2,12,-4,9,0,-9,-9,-9
0,9,9,-4,-4,9,-9,9,0,-9,-9,-9
0,9,9,-4,-4,9,-9,9,0,-9,-9,-9
0,9,9,-4,-4,9,-9,9,0,-9,-9,-9
0,9,9,-4,-4,9,-9,4,0,-9,-9,-4
0,9,9,-4,-4,9,-9,0,0,-9,-9,0
0,9,9,-4,-4,9,-14,0,0,-9,-9,0
0,9,9,-4,-4,9,-19,0,0,-9,-9,0
0,9,9,-4,-4,9,-19,0,0,-14,-9,0
0,9,9,-4,-4,9,-19,0,0,-19,-9,0
0,9,9,-4,-4,9,-14,0,0,-19,-9,0
0,9,9,-4,-4,9,-9,0,0,-19,-9,0
0,9,9,-4,-4,9,-9,-4,0,-19,-9,0
0,9,9,-4,-4,9,-9,-9,0,-19,-9,0
0,9,9,-4,-4,9,-4,-9,-4,-19,-9,0
0,9,9,-4,-4,9,0,-9,-9,-19,-9,0
0,14,14,-7,-7,14,0,-9,-9,-19,-9,0
0,19,19,-9,-9,19,0,-9,-9,-19,-9,0
-4,19,24,-7,-14,21,-4,-9,-4,-14,-9,0
-4,19,24,-7,-14,21,-4,-9,0,-9,-9,0
-9,19,29,-4,-19,24,-9,-9,0,-9,-9,0
-9,19,29,-4,-19,24,-4,-9,0,-9,-9,0
-9,24,34,-7,-21,29,4,-9,0,-9,-4,0
-9,24,34,-7,-21,29,9,-9,0,-9,-4,0
-9,29,39,-9,-24,34,4,-4,0,-9,-4,0
-9,34,43,-12,-26,39,4,0,0,-9,0,0
-9,34,43,-12,-26,39,9,0,4,-9,4,4
-4,58,63,-26,-34,61,19,4,9,4,4,9
0,58,58,-29,-29,58,34,4,14,4,9,9
4,68,63,-36,-29,65,43,9,24,14,14,19
9,68,58,-39,-24,63,43,14,24,19,19,24
9,82,73,-46,-31,78,58,19,29,24,24,24
4,92,87,-48,-41,90,58,19,29,24,29,24
9,107,97,-58,-43,102,53,24,39,34,34,34
14,112,97,-63,-41,104,48,24,43,34,34,34
19,112,92,-65,-36,102,48,29,53,39,43,39
39,141,102,-90,-31,122,29,34,53,43,48,48
63,161,97,-112,-17,129,-9,29,53,43,48,53
63,151,87,-107,-12,119,-63,14,48,43,48,53
63,151,87,-107,-12,119,-78,4,34,39,43,48
63,146,82,-104,-9,114,-92,-4,29,29,39,48
63,146,82,-104,-9,114,-92,-9,19,29,39,48
68,146,78,-107,-4,112,-87,-9,19,29,39,48
78,151,73,-114,2,112,-78,-4,19,29,43,58
82,151,68,-117,7,109,-87,0,19,29,43,63
92,151,58,-122,17,104,-97,9,19,34,39,63
92,151,58,-122,17,104,-87,9,19,34,43,58
92,146,53,-119,19,100,-82,9,14,29,43,53
78,126,48,-102,14,87,-68,9,4,24,34,48
53,107,53,-80,0,80,-39,9,4,14,24,39
24,92,68,-58,-21,80,-29,4,4,4,19,29
14,82,68,-48,-26,75,-9,4,4,0,14,14
0,68,68,-34,-34,68,-9,-4,-4,-4,0,9
-4,63,68,-29,-36,65,-4,-4,-9,-9,0,0
-14,39,53,-12,-34,46,-4,-9,-19,-24,-14,-4
-14,39,53,-12,-34,46,-4,-14,-19,-29,-19,-9
-19,29,48,-4,-34,39,-4,-14,-19,-29,-24,-14
-19,29,48,-4,-34,39,0,-4,-19,-24,-24,-19
-9,29,39,-9,-24,34,9,53,-9,-24,-24,-19
0,48,48,-24,-24,48,39,180,63,29,-14,-14
14,92,78,-53,-31,85,97,361,175,112,34,0
48,185,136,-117,-43,161,165,595,322,234,92,29
102,268,165,-185,-31,217,244,849,458,361,175,78
219,409,190,-314,14,300,287,1229,678,541,287,165
380,580,200,-480,90,390,253,1561,883,746,429,287
580,810,229,-695,175,519,48,1610,1019,932,600,453
814,1093,278,-954,268,685,-331,1537,1132,1112,800,668
1015,1439,424,-1227,295,932,-819,1473,1268,1322,1034,912
1146,1668,522,-1407,312,1095,-1332,1239,1283,1376,1176,1112
1317,1810,492,-1564,412,1151,-1883,1156,1166,1376,1268,1273
1405,1751,346,-1578,529,1049,-2108,1239,936,1254,1254,1332
1322,1722,400,-1522,461,1061,-1927,1498,819,1166,1249,1356
1254,1605,351,-1429,451,978,-1659,1576,702,1005,1161,1337
1010,1366,356,-1188,326,861,-1302,1039,473,780,1015,1229
580,976,395,-778,92,685,-961,14,63,429,751,956
331,610,278,-470,26,444,-712,-585,-200,131,483,658
214,336,122,-275,46,229,-488,-551,-224,-29,253,434
82,185,102,-134,-9,143,-278,-424,-200,-53,131,268
9,126,117,-68,-53,122,-161,-287,-185,-53,63,146
-19,73,92,-26,-56,82,-82,-214,-141,-68,0,29
-43,0,43,21,-43,21,-39,-200,-107,-87,-43,-4
-63,-24,39,43,-51,7,0,-190,-102,-82,-53,-9
-82,-9,73,46,-78,31,14,-156,-102,-78,-53,-24
-73,0,73,36,-73,36,4,-151,-97,-73,-48,-24
-68,-14,53,41,-61,19,0,-151,-92,-73,-48,-29
-68,-14,53,41,-61,19,0,-146,-87,-73,-48,-34
-68,-14,53,41,-61,19,-4,-136,-87,-68,-48,-34
-68,-14,53,41,-61,19,-14,-131,-87,-68,-48,-39
-63,-14,48,39,-56,17,0,-131,-82,-63,-48,-39
-58,-14,43,36,-51,14,19,-126,-82,-63,-53,-34
-53,-14,39,34,-46,12,29,-126,-82,-68,-53,-34
-53,-9,43,31,-48,17,34,-126,-87,-73,-53,-34
-53,-9,43,31,-48,17,34,-126,-87,-68,-48,-34
-53,-9,43,31,-48,17,34,-122,-82,-63,-48,-29
-53,-9,43,31,-48,17,34,-122,-82,-63,-43,-34
-53,-9,43,31,-48,17,24,-117,-82,-63,-43,-34
-48,-9,39,29,-43,14,39,-117,-82,-63,-48,-34
-48,-4,43,26,-46,19,29,-117,-78,-58,-48,-29
-43,4,48,19,-46,26,24,-117,-78,-53,-48,-29
-39,4,43,17,-41,24,19,-117,-73,-53,-43,-29
-39,4,43,17,-41,24,19,-117,-73,-58,-43,-29
-39,4,43,17,-41,24,19,-117,-73,-63,-43,-24
-34,4,39,14,-36,21,19,-117,-73,-58,-39,-19
-29,4,34,12,-31,19,19,-117,-68,-58,-39,-9
-24,24,48,0,-36,36,24,-117,-68,-53,-34,-9
-24,29,53,-2,-39,41,29,-117,-68,-48,-34,-4
-29,34,63,-2,-46,48,29,-117,-63,-48,-34,-9
-29,34,63,-2,-46,48,24,-112,-63,-48,-29,-9
-29,34,63,-2,-46,48,14,-117,-68,-43,-24,-9
-24,39,63,-7,-43,51,4,-122,-68,-43,-24,-4
-24,39,63,-7,-43,51,4,-122,-68,-43,-24,-4
-24,43,68,-9,-46,56,4,-126,-68,-43,-24,-4
-24,43,68,-9,-46,56,19,-126,-68,-43,-24,-4
-24,43,68,-9,-46,56,34,-131,-63,-43,-24,0
-19,53,73,-17,-46,63,39,-131,-63,-39,-19,0
-14,58,73,-21,-43,65,39,-141,-58,-39,-19,0
-14,63,78,-24,-46,70,34,-141,-58,-39,-14,0
-19,68,87,-24,-53,78,34,-146,-58,-39,-9,0
-19,73,92,-26,-56,82,34,-151,-58,-39,-9,4
-14,87,102,-36,-58,95,34,-156,-63,-39,-9,14
-19,87,107,-34,-63,97,34,-161,-63,-34,-4,14
-19,92,112,-36,-65,102,39,-165,-63,-29,-4,14
-19,92,112,-36,-65,102,43,-180,-63,-34,-4,14
-29,92,122,-31,-75,107,58,-190,-63,-39,-4,9
-39,92,131,-26,-85,112,58,-209,-73,-43,-4,9
-43,87,131,-21,-87,109,63,-229,-78,-48,-14,9
-63,87,151,-12,-107,119,73,-253,-82,-53,-19,9
-68,87,156,-9,-112,122,78,-278,-87,-58,-24,4
-73,87,161,-7,-117,124,87,-302,-87,-58,-19,4
-78,82,161,-2,-119,122,87,-331,-107,-68,-24,-4
-92,82,175,4,-134,129,87,-366,-112,-87,-29,-9
-97,87,185,4,-141,136,92,-395,-126,-92,-43,-14
-117,73,190,21,-153,131,92,-434,-141,-102,-48,-24
-126,68,195,29,-161,131,97,-483,-161,-122,-58,-29
-141,53,195,43,-168,124,97,-512,-170,-131,-63,-39
-156,48,204,53,-180,126,97,-551,-180,-141,-73,-48
-180,29,209,75,-195,119,102,-595,-204,-161,-78,-53
-190,14,204,87,-197,109,107,-634,-219,-175,-92,-63
-200,4,204,97,-202,104,107,-663,-239,-200,-107,-68
-204,-14,190,109,-197,87,107,-697,-248,-214,-122,-78
-224,-24,200,124,-212,87,102,-722,-273,-234,-126,-87
-224,-34,190,129,-207,78,102,-751,-287,-248,-146,-102
-229,-53,175,141,-202,61,97,-756,-297,-258,-161,-112
-234,-73,161,153,-197,43,92,-766,-312,-278,-170,-122
-234,-82,151,158,-192,34,97,-766,-326,-287,-180,-131
-234,-97,136,165,-185,19,102,-756,-331,-292,-190,-141
-234,-102,131,168,-183,14,97,-746,-331,-297,-200,-141
-219,-112,107,165,-163,-2,87,-727,-331,-292,-200,-151
-214,-112,102,163,-158,-4,82,-683,-322,-292,-200,-151
-195,-107,87,151,-141,-9,78,-634,-312,-283,-200,-151
-170,-107,63,139,-117,-21,73,-590,-297,-273,-190,-146
-156,-97,58,126,-107,-19,58,-546,-287,-258,-190,-146
-122,-78,43,100,-82,-17,53,-473,-244,-239,-170,-131
-102,-63,39,82,-70,-12,43,-414,-234,-224,-170,-117
-87,-53,34,70,-61,-9,39,-366,-209,-209,-156,-112
-63,-34,29,48,-46,-2,34,-312,-185,-185,-146,-97
-48,-19,29,34,-39,4,24,-253,-161,-161,-126,-92
-34,-9,24,21,-29,7,24,-219,-141,-146,-122,-87
-19,4,24,7,-21,14,-4,-185,-122,-131,-112,-82
4,29,24,-17,-9,26,-19,-161,-102,-117,-102,-68
19,43,24,-31,-2,34,-24,-117,-82,-97,-87,-63
29,58,29,-43,0,43,-29,-92,-73,-87,-82,-58
34,58,24,-46,4,41,-19,-82,-63,-73,-68,-48
43,68,24,-56,9,46,-9,-68,-43,-58,-68,-39
39,68,29,-53,4,48,-9,-48,-39,-48,-58,-29
43,78,34,-61,4,56,-14,-39,-29,-39,-53,-19
48,82,34,-65,7,58,-19,-34,-29,-39,-48,-19
53,87,34,-70,9,61,-24,-24,-24,-29,-43,-14
63,97,34,-80,14,65,-34,-9,-14,-24,-39,-14
63,97,34,-80,14,65,-39,-9,-4,-19,-29,-14
63,102,39,-82,12,70,-39,-4,0,-14,-24,-9
58,107,48,-82,4,78,-34,0,0,-9,-24,-9
58,112,53,-85,2,82,-34,0,0,-9,-19,4
58,117,58,-87,0,87,-39,0,4,-4,-14,4
63,122,58,-92,2,90,-39,9,9,0,-14,4
68,122,53,-95,7,87,-39,9,9,4,-14,9
68,126,58,-97,4,92,-39,9,9,9,-9,9
78,126,48,-102,14,87,-39,9,9,9,-9,9
68,131,63,-100,2,97,-43,9,9,9,-9,9
68,131,63,-100,2,97,-43,9,9,9,-9,9
68,131,63,-100,2,97,-43,4,9,9,-9,9
68,131,63,-100,2,97,-48,0,9,9,-4,9
73,141,68,-107,2,104,-53,-4,9,9,-4,9
73,141,68,-107,2,104,-58,-4,9,9,-4,9
68,141,73,-104,-2,107,-58,-4,9,14,0,9
68,141,73,-104,-2,107,-58,-4,9,14,0,9
68,141,73,-104,-2,107,-58,-4,9,14,0,14
68,141,73,-104,-2,107,-53,-4,9,14,0,14
68,141,73,-104,-2,107,-53,-4,9,9,0,14
68,141,73,-104,-2,107,-53,0,9,4,-4,14
68,141,73,-104,-2,107,-48,-4,9,4,-9,9
63,141,78,-102,-7,109,-43,-9,4,4,-9,0
63,136,73,-100,-4,104,-39,-14,4,4,-9,0
63,131,68,-97,-2,100,-39,-14,4,4,-9,0
63,131,68,-97,-2,100,-34,-14,4,4,-9,4
53,131,78,-92,-12,104,-29,-19,0,4,-9,4
48,136,87,-92,-19,112,-29,-19,0,4,-14,4
48,136,87,-92,-19,112,-29,-19,0,0,-14,4
53,136,82,-95,-14,109,-24,-24,-4,0,-14,4
53,131,78,-92,-12,104,-24,-24,-4,-4,-14,4
43,131,87,-87,-21,109,-24,-24,-4,-9,-19,0
43,131,87,-87,-21,109,-24,-24,-9,-19,-19,0
39,131,92,-85,-26,112,-19,-24,-9,-19,-19,0
34,131,97,-82,-31,114,-19,-24,-9,-19,-19,0
34,131,97,-82,-31,114,-19,-24,-9,-19,-24,0
34,126,92,-80,-29,109,-19,-24,-14,-19,-29,0
34,122,87,-78,-26,104,-24,-24,-14,-24,-29,-4
24,117,92,-70,-34,104,-24,-19,-14,-29,-29,-4
24,117,92,-70,-34,104,-19,-19,-19,-29,-29,-9
29,112,82,-70,-26,97,-19,-19,-19,-29,-29,-9
24,112,87,-68,-31,100,-14,-19,-19,-29,-29,-9
19,112,92,-65,-36,102,-14,-19,-24,-29,-29,-9
19,102,82,-61,-31,92,-9,-19,-24,-34,-29,-9
19,97,78,-58,-29,87,0,-19,-24,-34,-29,-4
14,97,82,-56,-34,90,4,-14,-24,-34,-29,-9
14,97,82,-56,-34,90,4,-14,-24,-34,-29,-14
14,97,82,-56,-34,90,0,-9,-24,-34,-34,-14
14,97,82,-56,-34,90,-4,-9,-24,-34,-34,-14
9,97,87,-53,-39,92,-9,-9,-24,-34,-34,-14
0,92,92,-46,-46,92,-9,-9,-24,-34,-34,-19
0,87,87,-43,-43,87,-4,-4,-29,-39,-39,-19
0,82,82,-41,-41,82,4,-4,-34,-43,-43,-19
0,82,82,-41,-41,82,9,0,-34,-43,-39,-14
0,82,82,-41,-41,82,14,4,-34,-39,-39,-14
-9,78,87,-34,-48,82,19,9,-34,-39,-39,-19
-19,68,87,-24,-53,78,19,9,-34,-39,-39,-24
-19,68,87,-24,-53,78,19,9,-29,-43,-39,-24
-19,63,82,-21,-51,73,19,9,-29,-48,-39,-24
-14,63,78,-24,-46,70,24,14,-29,-48,-43,-24
-9,63,73,-26,-41,68,29,14,-29,-53,-48,-24
-9,58,68,-24,-39,63,29,14,-34,-53,-48,-29
-9,48,58,-19,-34,53,29,19,-34,-53,-48,-34
-19,43,63,-12,-41,53,29,19,-34,-53,-48,-34
-24,39,63,-7,-43,51,29,19,-34,-53,-48,-34
-19,34,53,-7,-36,43,24,19,-34,-53,-53,-34
-19,29,48,-4,-34,39,29,19,-29,-53,-58,-34
-19,29,48,-4,-34,39,29,24,-29,-53,-58,-34
-19,29,48,-4,-34,39,29,29,-29,-53,-58,-34
-14,29,43,-7,-29,36,24,29,-29,-58,-53,-34
-9,29,39,-9,-24,34,19,29,-29,-58,-53,-34
-4,34,39,-14,-21,36,19,29,-29,-58,-58,-39
0,34,34,-17,-17,34,19,29,-29,-58,-58,-43
0,29,29,-14,-14,29,19,24,-29,-63,-58,-43
0,29,29,-14,-14,29,14,24,-29,-63,-58,-43
-9,24,34,-7,-21,29,14,24,-29,-63,-58,-39
-14,19,34,-2,-24,26,19,24,-29,-63,-58,-39
-14,19,34,-2,-24,26,24,24,-29,-63,-53,-43
-9,19,29,-4,-19,24,34,24,-24,-58,-53,-39
-4,29,34,-12,-19,31,24,24,-24,-58,-53,-39
0,39,39,-19,-19,39,19,29,-29,-58,-58,-39
0,29,29,-14,-14,29,14,29,-29,-58,-58,-39
0,19,19,-9,-9,19,9,29,-29,-58,-58,-39
0,19,19,-9,-9,19,4,24,-29,-58,-58,-39
0,19,19,-9,-9,19,0,19,-29,-58,-58,-39
4,19,14,-12,-4,17,0,19,-24,-53,-53,-39
9,19,9,-14,0,14,0,19,-19,-48,-48,-39
9,14,4,-12,2,9,4,19,-19,-48,-48,-39
9,9,0,-9,4,4,9,19,-19,-48,-48,-39
9,9,0,-9,4,4,9,14,-19,-48,-48,-39
9,9,0,-9,4,4,4,9,-19,-48,-48,-39
9,9,0,-9,4,4,4,9,-19,-48,-48,-39
9,9,0,-9,4,4,0,9,-19,-48,-48,-39
14,9,-4,-12,9,2,4,9,-19,-48,-48,-39
19,14,-4,-17,12,4,9,9,-19,-48,-43,-39
19,14,-4,-17,12,4,9,9,-14,-43,-43,-34
19,14,-4,-17,12,4,4,9,-9,-39,-43,-29
19,14,-4,-17,12,4,0,4,-9,-39,-34,-29
19,14,-4,-17,12,4,0,0,-4,-39,-24,-24
24,39,14,-31,4,26,9,4,4,-19,-24,-19
24,39,14,-31,4,26,24,4,14,-14,-19,-19
29,53,24,-41,2,39,34,9,24,-4,-14,-4
39,58,19,-48,9,39,34,14,29,0,-9,4
39,73,34,-56,2,53,48,19,39,4,-4,4
39,82,43,-61,-2,63,48,19,39,4,0,4
48,102,53,-75,-2,78,48,19,48,14,9,14
53,112,58,-82,-2,85,43,14,48,14,14,14
53,112,58,-82,-2,85,39,19,58,29,29,24
63,131,68,-97,-2,100,19,19,63,43,39,39
82,146,63,-114,9,104,-24,9,63,43,39,43
82,141,58,-112,12,100,-73,-4,63,43,39,43
82,141,58,-112,12,100,-78,-14,53,39,39,43
82,136,53,-109,14,95,-92,-24,48,29,39,48
82,136,53,-109,14,95,-92,-34,39,29,39,48
87,136,48,-112,19,92,-102,-39,39,29,39,48
97,141,43,-119,26,92,-102,-34,39,29,43,58
102,141,39,-122,31,90,-97,-29,39,29,48,63
112,141,29,-126,41,85,-97,-19,43,34,53,68
112,141,29,-126,41,85,-87,-19,48,34,63,73
112,146,34,-129,39,90,-92,-19,43,29,63,73
97,136,39,-117,29,87,-92,-19,34,24,53,68
73,107,34,-90,19,70,-73,-19,34,14,43,58
43,82,39,-63,2,61,-68,-24,34,9,39,48
34,73,39,-53,-2,56,-48,-24,34,9,34,34
19,58,39,-39,-9,48,-43,-34,24,4,19,29
14,53,39,-34,-12,46,-34,-34,19,0,19,19
4,29,24,-17,-9,26,-34,-39,9,-14,4,14
4,24,19,-14,-7,21,-29,-43,0,-19,0,9
0,9,9,-4,-4,9,-24,-43,-9,-19,-4,4
0,9,9,-4,-4,9,-19,-53,-14,-19,-9,0
9,9,0,-9,4,4,-4,-14,-9,-24,-9,0
19,19,0,-19,9,9,29,97,58,24,4,4
34,58,24,-46,4,41,87,263,165,107,53,19
48,146,97,-97,-24,122,156,468,297,219,102,34
92,224,131,-158,-19,178,214,692,419,331,175,68
204,366,161,-285,21,263,273,1117,663,522,287,146
351,531,180,-441,85,356,268,1478,893,736,429,258
536,732,195,-634,170,463,92,1542,1034,927,590,424
751,985,234,-868,258,610,-253,1488,1146,1107,775,639
961,1390,429,-1176,265,910,-717,1415,1327,1361,1034,897
1102,1668,566,-1385,268,1117,-1190,1180,1390,1464,1205,1107
1293,1825,531,-1559,380,1178,-1834,1058,1278,1473,1312,1283
1405,1790,385,-1598,509,1088,-2152,1102,1054,1346,1312,1361
1361,1795,434,-1578,463,1115,-1991,1464,936,1263,1337,1400
1332,1712,380,-1522,475,1046,-1747,1644,819,1132,1278,1395
1088,1488,400,-1288,344,944,-1381,1141,590,917,1132,1327
658,1117,458,-888,100,788,-1049,170,185,566,868,1093
395,732,336,-563,29,534,-775,-512,-122,229,600,775
263,434,170,-348,46,302,-517,-580,-195,34,370,531
122,258,136,-190,-7,197,-297,-478,-170,0,219,351
43,180,136,-112,-46,158,-185,-366,-156,-14,131,219
19,126,107,-73,-43,117,-122,-273,-112,-29,78,87
-4,53,58,-24,-31,56,-78,-239,-73,-43,34,39
-34,24,58,4,-46,41,-29,-229,-63,-39,14,39
-63,29,92,17,-78,61,-4,-200,-63,-39,4,24
-53,39,92,7,-73,65,-24,-200,-58,-34,9,24
-48,24,73,12,-61,48,-34,-200,-53,-34,9,19
-48,24,73,12,-61,48,-29,-195,-48,-34,9,14
-48,24,73,12,-61,48,-19,-185,-48,-29,9,14
-48,24,73,12,-61,48,-14,-180,-48,-29,9,4
-48,24,73,12,-61,48,-14,-180,-43,-24,9,0
-48,24,73,12,-61,48,-4,-175,-43,-24,4,4
-43,24,68,9,-56,46,4,-175,-39,-24,4,4
-39,34,73,2,-56,53,4,-175,-39,-24,4,4
-34,39,73,-2,-53,56,4,-175,-39,-19,9,4
-34,39,73,-2,-53,56,4,-170,-39,-14,9,9
-34,39,73,-2,-53,56,4,-170,-43,-14,14,9
-39,34,73,2,-56,53,-9,-165,-43,-14,14,14
-39,34,73,2,-56,53,0,-165,-43,-14,14,14
-39,43,82,-2,-61,63,-14,-165,-34,-9,19,24
-34,53,87,-9,-61,70,-19,-165,-29,-4,19,29
-29,53,82,-12,-56,68,-19,-165,-24,-4,24,29
-29,53,82,-12,-56,68,-19,-165,-24,-4,24,29
-29,53,82,-12,-56,68,-9,-165,-24,-4,24,29
-29,53,82,-12,-56,68,0,-165,-24,0,29,24
-29,53,82,-12,-56,68,0,-165,-19,0,29,29
-24,68,92,-21,-58,80,0,-165,-19,4,34,29
-24,63,87,-19,-56,75,0,-165,-24,9,34,34
-24,63,87,-19,-56,75,0,-165,-24,9,34,34
-19,63,82,-21,-51,73,-4,-161,-24,9,34,34
-19,63,82,-21,-51,73,-4,-161,-24,14,34,29
-19,68,87,-24,-53,78,-4,-161,-19,14,34,34
-24,68,92,-21,-58,80,-4,-161,-19,14,34,34
-24,73,97,-24,-61,85,-4,-165,-19,9,34,34
-24,73,97,-24,-61,85,-4,-165,-19,4,34,34
-24,73,97,-24,-61,85,-4,-170,-19,4,34,39
-24,82,107,-29,-65,95,0,-170,-24,9,39,39
-24,82,107,-29,-65,95,0,-180,-19,4,34,39
-24,78,102,-26,-63,90,0,-180,-19,0,29,39
-29,78,107,-24,-68,92,4,-185,-19,0,29,34
-34,78,112,-21,-73,95,4,-190,-19,0,29,29
-34,82,117,-24,-75,100,9,-195,-24,0,29,34
-39,78,117,-19,-78,97,19,-200,-24,0,34,34
-39,82,122,-21,-80,102,34,-200,-24,0,29,34
-39,82,122,-21,-80,102,43,-209,-24,-4,24,34
-48,82,131,-17,-90,107,58,-219,-24,-9,24,24
-53,82,136,-14,-95,109,58,-239,-34,-14,24,19
-53,78,131,-12,-92,104,58,-258,-39,-24,14,19
-73,78,151,-2,-112,114,63,-278,-43,-34,9,19
-87,68,156,9,-122,112,68,-297,-48,-39,4,14
-107,58,165,24,-136,112,78,-322,-48,-43,4,14
-117,48,165,34,-141,107,82,-351,-73,-58,-4,0
-136,39,175,48,-156,107,87,-385,-82,-78,-9,-9
-146,39,185,53,-165,112,92,-414,-97,-87,-29,-14
-165,24,190,70,-178,107,97,-453,-112,-102,-39,-24
-175,19,195,78,-185,107,107,-502,-131,-122,-53,-34
-190,4,195,92,-192,100,107,-531,-146,-136,-63,-48
-200,0,200,100,-200,100,117,-561,-161,-151,-73,-58
-219,-19,200,119,-209,90,126,-595,-185,-170,-82,-63
-229,-43,185,136,-207,70,126,-634,-204,-190,-102,-73
-244,-63,180,153,-212,58,126,-663,-229,-219,-117,-82
-253,-82,170,168,-212,43,126,-702,-239,-234,-136,-97
-273,-97,175,185,-224,39,122,-732,-263,-253,-146,-107
-273,-112,161,192,-217,24,122,-761,-278,-273,-165,-126
-278,-131,146,204,-212,7,117,-766,-287,-287,-180,-141
-287,-151,136,219,-212,-7,112,-780,-302,-307,-195,-151
-292,-161,131,226,-212,-14,112,-785,-317,-317,-209,-161
-292,-175,117,234,-204,-29,112,-775,-322,-322,-219,-170
-292,-180,112,236,-202,-34,107,-766,-322,-331,-229,-170
-278,-190,87,234,-183,-51,97,-746,-326,-331,-229,-185
-273,-195,78,234,-175,-58,92,-702,-322,-331,-229,-190
-253,-190,63,222,-158,-63,87,-658,-312,-322,-229,-190
-229,-185,43,207,-136,-70,82,-619,-297,-312,-219,-185
-214,-175,39,195,-126,-68,68,-575,-287,-297,-219,-185
-180,-161,19,170,-100,-70,68,-502,-244,-278,-200,-175
-151,-146,4,148,-78,-70,63,-444,-234,-263,-200,-165
-126,-131,-4,129,-61,-68,58,-395,-209,-248,-185,-161
-112,-112,0,112,-56,-56,53,-341,-180,-224,-175,-146
-102,-92,9,97,-56,-41,43,-283,-151,-200,-156,-136
-82,-82,0,82,-41,-41,43,-248,-131,-185,-151,-126
-68,-73,-4,70,-31,-39,24,-214,-112,-170,-141,-122
-43,-48,-4,46,-19,-26,19,-185,-87,-151,-126,-97
-29,-34,-4,31,-12,-19,14,-136,-63,-126,-107,-82
-14,-14,0,14,-7,-7,9,-112,-53,-117,-102,-78
-4,-9,-4,7,0,-7,4,-97,-43,-107,-87,-73
4,0,-4,-2,4,-2,0,-78,-24,-97,-92,-73
4,0,-4,-2,4,-2,0,-58,-19,-87,-87,-68
9,9,0,-9,4,4,-4,-48,-9,-78,-82,-58
9,14,4,-12,2,9,-4,-43,-9,-78,-78,-58
14,24,9,-19,2,17,-4,-34,0,-68,-68,-48
24,39,14,-31,4,26,-14,-19,9,-63,-63,-43
29,39,9,-34,9,24,-19,-19,14,-58,-58,-43
34,43,9,-39,12,26,-19,-14,19,-53,-53,-39
29,48,19,-39,4,34,-14,-9,19,-48,-53,-43
29,48,19,-39,4,34,-14,-9,19,-48,-48,-34
24,48,24,-36,0,36,-19,-9,24,-43,-43,-34
24,53,29,-39,-2,41,-19,0,29,-43,-43,-34
29,53,24,-41,2,39,-19,0,24,-43,-43,-24
29,58,29,-43,0,43,-19,0,19,-39,-39,-19
39,58,19,-48,9,39,-19,0,19,-39,-39,-19
29,63,34,-46,-2,48,-24,0,19,-39,-39,-19
29,63,34,-46,-2,48,-24,0,19,-34,-39,-14
29,63,34,-46,-2,48,-24,0,19,-29,-39,-9
29,63,34,-46,-2,48,-34,0,19,-29,-34,-9
34,73,39,-53,-2,56,-39,-4,19,-29,-34,-9
39,73,34,-56,2,53,-39,-4,19,-29,-34,-9
39,73,34,-56,2,53,-39,-4,19,-24,-29,-9
39,73,34,-56,2,53,-34,-4,19,-24,-29,-14
39,73,34,-56,2,53,-29,-4,19,-24,-29,-14
29,68,39,-48,-4,53,-19,-4,19,-24,-29,-14
19,63,43,-41,-12,53,-14,-9,19,-24,-24,-14
19,63,43,-41,-12,53,-14,-9,19,-19,-24,-14
19,63,43,-41,-12,53,-14,-14,19,-14,-29,-14
14,63,48,-39,-17,56,-19,-14,14,-14,-24,-14
14,63,48,-39,-17,56,-19,-14,14,-14,-19,-9
19,63,43,-41,-12,53,-19,-14,14,-14,-19,-9
24,63,39,-43,-7,51,-14,-14,14,-14,-19,-9
14,63,48,-39,-17,56,0,-19,9,-14,-19,-14
9,63,53,-36,-21,58,9,-19,9,-14,-24,-14
9,58,48,-34,-19,53,0,-19,9,-19,-24,-14
9,58,48,-34,-19,53,-4,-24,4,-19,-24,-14
4,58,53,-31,-24,56,-4,-24,4,-19,-19,-14
-4,63,68,-29,-36,65,-4,-24,4,-14,-19,-19
-4,63,68,-29,-36,65,-4,-29,-4,-14,-14,-19
-4,63,68,-29,-36,65,0,-34,-9,-9,-9,-19
-4,63,68,-29,-36,65,-4,-34,-9,-9,-9,-19
-4,63,68,-29,-36,65,-9,-34,-9,-9,-9,-19
0,63,63,-31,-31,63,-9,-34,-14,-9,-9,-19
4,68,63,-36,-29,65,-9,-39,-14,-9,-9,-24
-4,68,73,-31,-39,70,-4,-43,-14,-14,-14,-24
-4,68,73,-31,-39,70,0,-48,-19,-19,-19,-29
0,63,63,-31,-31,63,-4,-48,-14,-19,-19,-29
0,63,63,-31,-31,63,-4,-48,-9,-19,-19,-29
4,68,63,-36,-29,65,-4,-48,-14,-14,-19,-29
9,68,58,-39,-24,63,-4,-48,-14,-14,-19,-29
9,68,58,-39,-24,63,-4,-48,-14,-14,-19,-24
4,68,63,-36,-29,65,-4,-43,-14,-14,-19,-24
4,68,63,-36,-29,65,-4,-43,-14,-14,-19,-24
4,68,63,-36,-29,65,-9,-39,-14,-14,-24,-24
4,68,63,-36,-29,65,-14,-39,-14,-14,-19,-19
4,68,63,-36,-29,65,-19,-39,-14,-14,-14,-14
0,68,68,-34,-34,68,-19,-39,-14,-14,-14,-19
0,73,73,-36,-36,73,-19,-34,-14,-14,-14,-19
4,73,68,-39,-31,70,-14,-39,-14,-14,-14,-19
9,73,63,-41,-26,68,-9,-43,-14,-14,-9,-14
9,73,63,-41,-26,68,-4,-43,-14,-9,-9,-14
9,73,63,-41,-26,68,0,-39,-14,-9,-9,-14
4,68,63,-36,-29,65,0,-39,-14,-9,-9,-14
0,68,68,-34,-34,68,0,-39,-9,-9,-9,-14
0,63,63,-31,-31,63,0,-39,-9,-9,-9,-14
0,63,63,-31,-31,63,0,-34,-9,-4,-9,-14
0,63,63,-31,-31,63,-4,-29,-4,-4,-9,-14
0,63,63,-31,-31,63,-9,-24,-4,-4,-9,-14
-4,58,63,-26,-34,61,-9,-19,-4,-4,-9,-14
-14,58,73,-21,-43,65,-9,-19,-4,-4,-9,-14
-14,58,73,-21,-43,65,-4,-19,-9,-9,-9,-14
-9,58,68,-24,-39,63,-9,-19,-14,-14,-9,-14
-9,58,68,-24,-39,63,-9,-14,-9,-14,-9,-14
-9,58,68,-24,-39,63,-9,-9,-9,-14,-9,-14
-9,58,68,-24,-39,63,-9,-9,-9,-14,-9,-14
-9,58,68,-24,-39,63,-9,-9,-9,-14,-4,-14
-9,58,68,-24,-39,63,-9,-9,-9,-9,-4,-14
-9,58,68,-24,-39,63,-4,-9,-9,-9,-9,-14
-14,48,63,-17,-39,56,-4,-9,-9,-9,-9,-14
-19,39,58,-9,-39,48,-9,-9,-9,-14,-9,-14
-19,39,58,-9,-39,48,-14,-4,-9,-14,-14,-14
-24,39,63,-7,-43,51,-14,-4,-9,-14,-19,-9
-9,43,53,-17,-31,48,0,-4,-14,-19,-24,-9
9,48,39,-29,-14,43,9,-4,-19,-19,-24,-14
0,43,43,-21,-21,43,4,-4,-19,-19,-24,-14
-9,43,53,-17,-31,48,4,-9,-19,-19,-29,-19
-14,29,43,-7,-29,36,0,-9,-19,-24,-29,-19
-19,19,39,0,-29,29,0,-9,-19,-29,-29,-19
-19,19,39,0,-29,29,0,-4,-19,-29,-29,-19
-19,19,39,0,-29,29,0,0,-19,-29,-29,-19
-19,14,34,2,-26,24,4,4,-19,-29,-29,-19
-19,9,29,4,-24,19,9,9,-19,-29,-29,-19
-29,0,29,14,-29,14,9,9,-24,-34,-34,-24
-39,-9,29,24,-34,9,9,9,-29,-39,-39,-29
-39,-9,29,24,-34,9,14,9,-29,-43,-43,-34
-39,-9,29,24,-34,9,19,9,-29,-48,-48,-39
-39,-14,24,26,-31,4,19,14,-34,-48,-53,-39
-39,-19,19,29,-29,0,19,19,-39,-48,-58,-39
-39,-19,19,29,-29,0,19,19,-39,-53,-58,-39
-39,-19,19,29,-29,0,19,19,-39,-58,-58,-39
-34,-19,14,26,-24,-2,19,24,-39,-58,-58,-39
-29,-19,9,24,-19,-4,19,24,-39,-58,-58,-39
-29,-24,4,26,-17,-9,19,29,-39,-58,-63,-43
-29,-29,0,29,-14,-14,24,29,-39,-58,-68,-48
-34,-24,9,29,-21,-7,29,29,-39,-58,-68,-48
-39,-24,14,31,-26,-4,29,29,-39,-58,-73,-48
-39,-24,14,31,-26,-4,29,29,-39,-63,-73,-48
-39,-24,14,31,-26,-4,34,29,-39,-68,-68,-48
-39,-24,14,31,-26,-4,39,29,-34,-68,-63,-48
-34,0,34,17,-34,17,48,34,-29,-53,-63,-48
-34,0,34,17,-34,17,58,34,-29,-53,-63,-48
-34,9,43,12,-39,26,63,39,-24,-43,-63,-39
-24,9,34,7,-29,21,63,43,-19,-39,-58,-34
-19,24,43,-2,-31,34,78,48,-9,-34,-53,-34
-19,34,53,-7,-36,43,78,48,-4,-34,-48,-34
-9,48,58,-19,-34,53,73,53,9,-24,-43,-24
-4,53,58,-24,-31,56,63,53,9,-24,-48,-24
0,53,53,-26,-26,53,58,58,14,-19,-43,-19
14,68,53,-41,-19,61,24,58,9,-19,-39,-14
34,73,39,-53,-2,56,-29,48,4,-24,-39,-14
34,63,29,-48,2,46,-53,34,4,-24,-39,-14
34,63,29,-48,2,46,-39,24,-4,-29,-43,-19
34,58,24,-46,4,41,-53,14,-9,-34,-48,-14
34,58,24,-46,4,41,-53,9,-19,-29,-48,-9
39,58,19,-48,9,39,-63,9,-19,-29,-48,-9
48,63,14,-56,17,39,-68,14,-19,-29,-43,0
53,63,9,-58,21,36,-68,19,-19,-29,-39,0
63,63,0,-63,31,31,-68,29,-19,-24,-39,-4
63,63,0,-63,31,31,-58,29,-14,-19,-34,-4
63,58,-4,-61,34,26,-53,29,-14,-19,-34,-4
48,39,-9,-43,29,14,-43,24,-24,-24,-39,-4
24,19,-4,-21,14,7,-19,19,-24,-34,-43,-9
-4,9,14,-2,-9,12,-14,14,-24,-39,-48,-19
-14,4,19,4,-17,12,0,14,-24,-39,-53,-34
-29,-9,19,19,-24,4,4,4,-34,-43,-68,-39
-34,-14,19,24,-26,2,14,4,-39,-48,-68,-48
-43,-39,4,41,-24,-17,19,0,-48,-63,-82,-58
-43,-39,4,41,-24,-17,24,-4,-48,-68,-87,-68
-48,-48,0,48,-24,-24,24,-4,-48,-68,-92,-73
-48,-48,0,48,-24,-24,29,4,-48,-63,-92,-78
-34,-39,-4,36,-14,-21,48,68,-29,-48,-82,-68
-19,-9,9,14,-14,0,87,200,53,19,-63,-53
-4,43,48,-19,-26,46,146,380,170,107,-9,-39
29,146,117,-87,-43,131,214,614,322,234,53,-9
102,239,136,-170,-17,187,248,868,458,366,141,43
239,390,151,-314,43,270,248,1249,678,551,258,136
400,570,170,-485,114,370,195,1546,883,756,409,263
600,810,209,-705,195,509,-29,1561,1019,941,590,434
829,1078,248,-954,290,663,-419,1464,1112,1112,775,649
1024,1410,385,-1217,319,897,-917,1376,1229,1312,995,893
1146,1620,473,-1383,336,1046,-1390,1156,1234,1346,1127,1078
1307,1742,434,-1525,436,1088,-1903,1088,1107,1327,1210,1224
1390,1683,292,-1537,549,988,-2074,1190,878,1190,1190,1283
1302,1654,351,-1478,475,1002,-1839,1468,761,1088,1180,1307
1210,1522,312,-1366,448,917,-1576,1493,629,917,1083,1278
941,1268,326,-1105,307,797,-1224,902,385,683,927,1161
531,883,351,-707,90,617,-893,-58,-4,341,663,888
302,522,219,-412,41,370,-653,-595,-248,53,395,590
185,258,73,-222,56,165,-429,-556,-263,-92,175,366
53,117,63,-85,-4,90,-219,-424,-229,-102,63,200
-9,63,73,-26,-41,68,-126,-287,-204,-92,4,87
-29,14,43,7,-36,29,-73,-214,-151,-97,-48,-19
-53,-43,9,48,-31,-17,-29,-200,-112,-107,-87,-48
-73,-53,19,63,-46,-17,9,-190,-102,-92,-92,-48
-92,-39,53,65,-73,7,29,-161,-107,-87,-87,-58
-82,-29,53,56,-68,12,24,-161,-107,-82,-78,-53
-78,-43,34,61,-56,-4,24,-161,-102,-82,-78,-58
-78,-43,34,61,-56,-4,29,-156,-97,-82,-78,-63
-78,-39,39,58,-58,0,39,-146,-97,-78,-78,-63
-78,-34,43,56,-61,4,43,-141,-97,-78,-78,-68
-78,-34,43,56,-61,4,43,-141,-92,-73,-78,-68
-78,-34,43,56,-61,4,48,-136,-92,-73,-82,-63
-73,-34,39,53,-56,2,53,-136,-82,-68,-82,-58
-73,-29,43,51,-58,7,53,-136,-78,-63,-82,-53
-68,-24,43,46,-56,9,43,-136,-78,-58,-78,-53
-63,-19,43,41,-53,12,34,-131,-73,-53,-78,-48
-63,-19,43,41,-53,12,24,-131,-73,-53,-68,-48
-63,-19,43,41,-53,12,4,-126,-73,-53,-63,-43
-58,-14,43,36,-51,14,34,-126,-68,-53,-63,-43
-58,-4,53,31,-56,24,39,-126,-58,-48,-58,-39
-53,9,63,21,-58,36,48,-126,-58,-43,-53,-34
-48,14,63,17,-56,39,58,-126,-53,-43,-43,-29
-43,14,58,14,-51,36,48,-126,-53,-43,-43,-24
-39,14,53,12,-46,34,39,-126,-53,-43,-43,-14
-39,14,53,12,-46,34,34,-126,-53,-34,-39,-14
-39,14,53,12,-46,34,29,-126,-48,-29,-39,-9
-39,29,68,4,-53,48,29,-126,-48,-24,-34,-9
-43,29,73,7,-58,51,29,-126,-48,-19,-34,-4
-43,34,78,4,-61,56,29,-131,-43,-24,-34,-4
-39,34,73,2,-56,53,24,-131,-43,-29,-29,0
-39,34,73,2,-56,53,24,-131,-43,-24,-24,0
-34,39,73,-2,-53,56,24,-131,-39,-24,-24,4
-34,39,73,-2,-53,56,29,-131,-39,-19,-14,4
-34,43,78,-4,-56,61,34,-136,-39,-14,-4,4
-34,53,87,-9,-61,70,34,-136,-39,-14,-4,9
-34,63,97,-14,-65,80,34,-141,-34,-14,-4,19
-34,73,107,-19,-70,90,39,-141,-34,-9,0,19
-34,78,112,-21,-73,95,39,-151,-29,-9,0,19
-34,78,112,-21,-73,95,39,-151,-29,-9,0,19
-39,78,117,-19,-78,97,43,-156,-29,-9,0,19
-48,78,126,-14,-87,102,43,-165,-24,-9,0,19
-53,87,141,-17,-97,114,43,-175,-24,-9,0,24
-58,87,146,-14,-102,117,48,-180,-24,-9,4,24
-58,92,151,-17,-104,122,58,-185,-24,-9,4,24
-53,92,146,-19,-100,119,63,-200,-24,-9,4,24
-58,92,151,-17,-104,122,78,-209,-24,-9,4,19
-63,97,161,-17,-112,129,68,-229,-34,-14,4,19
-63,97,161,-17,-112,129,63,-248,-39,-19,-4,19
-82,97,180,-7,-131,139,73,-273,-43,-24,-4,19
-87,97,185,-4,-136,141,78,-297,-48,-29,-4,14
-97,97,195,0,-146,146,87,-322,-48,-34,-4,19
-107,92,200,7,-153,146,87,-351,-68,-48,-14,14
-126,87,214,19,-170,151,87,-385,-73,-68,-19,9
-136,87,224,24,-180,156,92,-414,-87,-73,-34,4
-156,73,229,41,-192,151,102,-453,-102,-82,-39,-4
-165,68,234,48,-200,151,117,-502,-122,-102,-48,-9
-180,53,234,63,-207,143,117,-531,-131,-117,-53,-19
-195,48,244,73,-219,146,117,-570,-141,-131,-63,-29
-219,29,248,95,-234,139,117,-619,-165,-151,-73,-34
-229,14,244,107,-236,129,117,-663,-180,-165,-92,-43
-244,0,244,122,-244,122,117,-692,-204,-190,-107,-58
-253,-24,229,139,-241,102,117,-727,-219,-204,-122,-78
-278,-39,239,158,-258,100,112,-746,-244,-224,-126,-87
-283,-53,229,168,-256,87,112,-771,-258,-239,-146,-102
-287,-73,214,180,-251,70,107,-775,-268,-248,-161,-107
-292,-92,200,192,-246,53,102,-785,-283,-268,-170,-112
-287,-102,185,195,-236,41,97,-785,-297,-283,-180,-122
-283,-117,165,200,-224,24,92,-775,-302,-292,-190,-131
-283,-122,161,202,-222,19,87,-761,-302,-302,-204,-131
-268,-131,136,200,-202,2,78,-736,-302,-302,-209,-141
-263,-136,126,200,-195,-4,73,-692,-292,-297,-209,-141
-244,-136,107,190,-175,-14,68,-644,-283,-283,-209,-141
-219,-131,87,175,-153,-21,63,-590,-268,-273,-195,-136
-204,-117,87,161,-146,-14,48,-536,-258,-258,-190,-136
-170,-102,68,136,-119,-17,48,-473,-214,-239,-170,-126
-151,-92,58,122,-104,-17,43,-424,-204,-224,-170,-117
-136,-82,53,109,-95,-14,29,-375,-180,-209,-156,-112
-112,-63,48,87,-80,-7,14,-322,-156,-185,-146,-97
-87,-43,43,65,-65,0,4,-263,-131,-161,-126,-87
-63,-29,34,46,-48,2,4,-229,-112,-146,-122,-78
-48,-4,43,26,-46,19,-4,-180,-87,-131,-112,-63
-24,29,53,-2,-39,41,0,-141,-63,-117,-102,-39
-9,34,43,-12,-26,39,-4,-112,-43,-97,-87,-34
0,39,39,-19,-19,39,-9,-102,-34,-87,-82,-29
0,39,39,-19,-19,39,-14,-87,-24,-78,-63,-24
4,48,43,-26,-19,46,-19,-68,-4,-68,-58,-19
4,48,43,-26,-19,46,-19,-48,0,-58,-48,-9
14,58,43,-36,-14,51,-24,-39,9,-48,-43,0
19,68,48,-43,-14,58,-24,-34,9,-43,-34,0
24,78,53,-51,-14,65,-24,-24,14,-29,-24,4
34,87,53,-61,-9,70,-29,-9,19,-24,-24,4
34,87,53,-61,-9,70,-29,-9,24,-19,-19,4
39,87,48,-63,-4,68,-29,-4,29,-14,-14,9
39,87,48,-63,-4,68,-24,0,29,-9,-14,9
39,87,48,-63,-4,68,-24,0,29,-9,-9,24
39,87,48,-63,-4,68,-29,0,34,-4,-4,24
43,102,58,-73,-7,80,-29,9,39,0,-4,24
48,112,63,-80,-7,87,-29,9,39,4,-4,29
48,117,68,-82,-9,92,-39,9,43,9,0,29
58,117,58,-87,0,87,-48,9,48,9,0,29
48,122,73,-85,-12,97,-53,4,48,9,0,29
48,122,73,-85,-12,97,-53,0,48,9,0,29
48,122,73,-85,-12,97,-48,0,48,9,0,29
48,122,73,-85,-12,97,-48,0,48,9,4,29
53,136,82,-95,-14,109,-48,-9,48,9,9,29
53,141,87,-97,-17,114,-48,-14,48,9,14,29
48,141,92,-95,-21,117,-53,-14,48,19,19,34
48,141,92,-95,-21,117,-58,-14,48,24,19,39
48,141,92,-95,-21,117,-58,-14,48,24,19,43
48,141,92,-95,-21,117,-53,-14,48,24,19,43
48,141,92,-95,-21,117,-48,-19,48,19,24,43
48,141,92,-95,-21,117,-43,-19,48,14,24,43
48,141,92,-95,-21,117,-34,-24,48,14,19,43
43,141,97,-92,-26,119,-24,-29,43,14,19,39
43,141,97,-92,-26,119,-29,-34,43,14,19,39
43,141,97,-92,-26,119,-39,-34,43,14,19,39
48,141,92,-95,-21,117,-39,-34,43,14,19,39
43,141,97,-92,-26,119,-39,-39,39,14,19,34
43,146,102,-95,-29,124,-39,-39,39,19,14,39
48,146,97,-97,-24,122,-39,-39,39,19,14,43
48,146,97,-97,-24,122,-34,-43,34,19,19,43
43,141,97,-92,-26,119,-34,-43,34,14,24,43
34,141,107,-87,-36,124,-34,-43,34,14,19,39
34,141,107,-87,-36,124,-34,-43,29,9,19,39
29,141,112,-85,-41,126,-29,-48,29,9,14,34
24,141,117,-82,-46,129,-29,-53,29,9,9,29
24,146,122,-85,-48,134,-29,-53,29,9,9,29
24,146,122,-85,-48,134,-29,-53,24,9,9,29
24,146,122,-85,-48,134,-24,-58,24,9,9,29
14,146,131,-80,-58,139,-14,-58,24,9,9,34
14,146,131,-80,-58,139,-9,-58,19,9,14,29
19,141,122,-80,-51,131,-9,-58,19,9,19,29
19,141,122,-80,-51,131,-4,-58,19,9,19,24
19,141,122,-80,-51,131,-4,-58,14,9,19,19
19,141,122,-80,-51,131,-4,-58,19,4,19,19
19,146,126,-82,-53,136,0,-58,24,4,19,24
9,146,136,-78,-63,141,0,-53,24,4,14,24
4,146,141,-75,-68,143,-4,-53,24,4,9,24
4,146,141,-75,-68,143,-9,-48,19,4,4,24
4,146,141,-75,-68,143,-14,-48,14,4,4,24
9,146,136,-78,-63,141,-19,-48,14,4,4,24
9,141,131,-75,-61,136,-19,-48,14,4,4,19
9,141,131,-75,-61,136,-19,-43,9,0,4,19
9,141,131,-75,-61,136,-14,-43,4,-4,4,19
9,141,131,-75,-61,136,-14,-43,4,-4,9,24
9,141,131,-75,-61,136,-14,-43,4,0,9,24
9,141,131,-75,-61,136,-9,-34,4,0,9,24
9,136,126,-73,-58,131,-9,-29,4,0,9,24
9,136,126,-73,-58,131,-14,-29,9,0,9,24
9,131,122,-70,-56,126,-19,-29,9,0,9,24
9,131,122,-70,-56,126,-24,-29,9,4,4,19
9,131,122,-70,-56,126,-29,-34,9,4,0,14
4,131,126,-68,-61,129,-29,-34,4,4,0,14
0,126,126,-63,-63,126,-29,-29,4,4,0,14
-4,126,131,-61,-68,129,-24,-24,4,9,0,14
-4,126,131,-61,-68,129,-19,-19,4,14,0,14
0,126,126,-63,-63,126,-29,-19,0,14,0,14
0,126,126,-63,-63,126,-29,-19,0,14,0,14
0,126,126,-63,-63,126,-24,-19,0,14,0,14
0,126,126,-63,-63,126,-19,-19,0,14,0,14
0,126,126,-63,-63,126,-9,-14,0,14,4,14
0,126,126,-63,-63,126,0,-9,0,19,4,14
0,126,126,-63,-63,126,-4,-9,0,19,0,14
0,122,122,-61,-61,122,-9,-9,0,19,0,14
4,117,112,-61,-53,114,-9,-9,0,14,0,14
9,117,107,-63,-48,112,-14,-4,0,14,0,14
4,117,112,-61,-53,114,-14,-4,0,14,0,14
4,117,112,-61,-53,114,-9,-4,0,14,0,9
4,122,117,-63,-56,119,-9,-4,0,14,4,4
9,126,117,-68,-53,122,-4,-4,4,19,4,9
9,122,112,-65,-51,117,-9,-4,0,19,4,4
9,117,107,-63,-48,112,-19,-9,0,19,9,0
4,112,107,-58,-51,109,-19,-9,0,19,9,0
0,107,107,-53,-53,107,-19,-9,0,19,9,0
0,107,107,-53,-53,107,-14,-9,4,19,9,4
0,107,107,-53,-53,107,-9,-9,9,19,9,9
0,107,107,-53,-53,107,-9,-4,9,19,14,9
0,107,107,-53,-53,107,-9,0,9,19,19,9
0,107,107,-53,-53,107,-9,0,9,19,19,9
0,107,107,-53,-53,107,-9,0,9,19,19,9
0,107,107,-53,-53,107,-19,-4,9,19,19,9
0,107,107,-53,-53,107,-29,-9,9,19,19,9
0,107,107,-53,-53,107,-29,-9,9,19,19,9
0,107,107,-53,-53,107,-29,-9,9,19,19,9
0,107,107,-53,-53,107,-24,-9,9,19,19,14
0,107,107,-53,-53,107,-19,-9,9,19,19,14
0,107,107,-53,-53,107,-19,-14,14,19,19,19
0,107,107,-53,-53,107,-14,-19,19,19,19,19
0,112,112,-56,-56,112,-14,-19,19,19,24,19
0,112,112,-56,-56,112,-19,-19,19,19,24,19
0,112,112,-56,-56,112,-24,-19,19,24,24,19
0,112,112,-56,-56,112,-24,-19,19,29,29,19
0,112,112,-56,-56,112,-14,-9,24,29,34,24
4,136,131,-70,-63,134,0,4,29,43,34,29
9,141,131,-75,-61,136,14,-4,34,39,39,29
14,156,141,-85,-63,148,24,-9,43,43,43,39
19,156,136,-87,-58,146,14,-4,48,48,48,43
19,170,151,-95,-65,161,19,0,58,53,53,43
19,175,156,-97,-68,165,19,0,58,53,58,43
29,185,156,-107,-63,170,14,4,68,63,63,53
34,190,156,-112,-61,173,4,4,68,68,68,58
39,190,151,-114,-56,170,0,9,73,78,82,68
48,209,161,-129,-56,185,-14,9,73,82,87,78
63,219,156,-141,-46,187,-48,0,73,82,87,82
63,209,146,-136,-41,178,-92,-14,73,82,87,82
63,209,146,-136,-41,178,-97,-24,63,78,82,78
63,204,141,-134,-39,173,-117,-34,58,68,82,78
63,204,141,-134,-39,173,-122,-39,48,68,87,78
68,204,136,-136,-34,170,-131,-34,48,68,87,87
78,209,131,-143,-26,170,-136,-24,48,68,92,107
82,209,126,-146,-21,168,-136,-19,48,63,97,112
92,209,117,-151,-12,163,-136,-9,48,63,97,112
92,209,117,-151,-12,163,-126,-14,48,63,102,112
92,204,112,-148,-9,158,-122,-19,43,58,102,112
78,185,107,-131,-14,146,-112,-19,34,53,92,102
53,165,112,-109,-29,139,-87,-19,34,43,82,87
19,151,131,-85,-56,141,-78,-24,34,39,78,78
4,141,136,-73,-65,139,-58,-24,34,39,73,63
-9,122,131,-56,-70,126,-53,-34,24,34,58,58
-14,112,126,-48,-70,119,-43,-34,19,29,58,48
-24,87,112,-31,-68,100,-48,-39,9,14,43,43
-24,87,112,-31,-68,100,-53,-43,9,9,39,39
-24,82,107,-29,-65,95,-53,-34,14,14,39,34
-19,87,107,-34,-63,97,-48,-14,19,24,43,29
-9,92,102,-41,-56,97,-24,43,34,29,48,29
0,117,117,-58,-58,117,19,170,112,87,63,34
19,170,151,-95,-65,161,78,361,229,185,122,63
58,273,214,-165,-78,244,146,605,380,322,190,107
126,370,244,-248,-58,307,195,858,527,448,278,161
258,527,268,-392,-4,397,209,1239,756,629,395,253
429,697,268,-563,80,483,122,1527,941,834,536,385
639,927,287,-783,175,607,-136,1532,1058,1019,707,561
858,1195,336,-1027,261,766,-551,1420,1137,1171,897,766
1044,1527,483,-1285,280,1005,-1073,1317,1239,1351,1122,1000
1171,1722,551,-1446,309,1137,-1512,1122,1244,1385,1239,1180
1337,1830,492,-1583,422,1161,-1991,1078,1117,1366,1307,1322
1400,1766,366,-1583,517,1066,-2147,1161,888,1220,1288,1366
1293,1732,439,-1512,427,1085,-1898,1420,771,1107,1278,1376
1195,1581,385,-1388,405,983,-1620,1405,634,936,1171,1342
922,1307,385,-1115,268,846,-1254,775,385,702,1005,1220
517,936,419,-727,48,678,-922,-141,9,370,741,946
292,590,297,-441,-2,444,-683,-634,-219,92,473,649
185,331,146,-258,19,239,-468,-585,-219,-43,268,434
63,195,131,-129,-34,163,-268,-444,-170,-43,170,278
-4,156,161,-75,-82,158,-170,-317,-156,-34,112,165
-29,122,151,-46,-90,136,-112,-253,-112,-39,58,58
-48,53,102,-2,-75,78,-78,-239,-78,-53,19,29
-63,34,97,14,-80,65,-48,-229,-73,-43,14,29
-82,39,122,21,-102,80,-43,-200,-73,-39,14,14
-73,39,112,17,-92,75,-63,-200,-68,-34,19,14
-68,24,92,21,-80,58,-48,-200,-63,-34,14,14
-68,24,92,21,-80,58,-29,-195,-58,-34,9,14
-68,24,92,21,-80,58,-19,-190,-58,-29,9,14
-68,24,92,21,-80,58,-14,-190,-58,-29,9,9
-68,24,92,21,-80,58,-19,-190,-53,-24,9,4
-68,24,92,21,-80,58,-19,-185,-53,-24,4,4
-63,19,82,21,-73,51,-19,-185,-48,-24,4,0
-63,19,82,21,-73,51,-24,-185,-48,-24,4,-4
-63,19,82,21,-73,51,-24,-185,-48,-19,9,-4
-63,19,82,21,-73,51,-24,-180,-43,-14,9,0
-63,19,82,21,-73,51,-19,-180,-43,-14,14,0
-63,19,82,21,-73,51,-24,-175,-43,-14,14,4
-63,14,78,24,-70,46,-9,-180,-43,-14,14,4
-68,14,82,26,-75,48,-19,-185,-39,-9,19,9
-63,24,87,19,-75,56,-29,-185,-34,0,19,9
-58,24,82,17,-70,53,-39,-185,-24,4,24,9
-53,24,78,14,-65,51,-39,-185,-24,4,19,9
-48,24,73,12,-61,48,-39,-185,-24,4,14,14
-48,19,68,14,-58,43,-29,-185,-24,9,19,14
-48,14,63,17,-56,39,-19,-185,-19,9,19,19
-43,29,73,7,-58,51,-19,-180,-14,14,24,19
-43,29,73,7,-58,51,-19,-175,-9,19,24,24
-43,34,78,4,-61,56,-19,-175,-4,19,24,24
-39,34,73,2,-56,53,-24,-170,-4,19,29,29
-39,29,68,4,-53,48,-24,-170,-9,24,29,24
-34,29,63,2,-48,46,-24,-170,-9,24,24,24
-34,29,63,2,-48,46,-24,-170,-9,24,24,19
-34,34,68,0,-51,51,-24,-175,-9,24,24,14
-39,34,73,2,-56,53,-14,-175,-9,24,19,14
-43,34,78,4,-61,56,-4,-180,-4,24,14,19
-43,34,78,4,-61,56,0,-180,-4,29,19,19
-43,29,73,7,-58,51,0,-190,0,29,19,19
-43,29,73,7,-58,51,0,-195,0,29,24,19
-48,29,78,9,-63,53,4,-204,0,29,29,19
-53,29,82,12,-68,56,4,-209,0,29,29,19
-53,39,92,7,-73,65,4,-214,-4,29,29,24
-63,34,97,14,-80,65,9,-219,-4,29,24,19
-68,34,102,17,-85,68,19,-224,-4,29,14,14
-73,29,102,21,-87,65,19,-244,-4,24,14,14
-87,24,112,31,-100,68,29,-258,-4,19,14,9
-92,24,117,34,-104,70,24,-278,-14,14,14,9
-92,19,112,36,-102,65,24,-297,-19,9,4,9
-112,14,126,48,-119,70,34,-322,-24,4,0,9
-117,9,126,53,-122,68,39,-346,-29,0,-4,4
-126,4,131,61,-129,68,53,-370,-29,-4,-4,0
-136,-4,131,70,-134,63,58,-400,-48,-19,-14,-14
-156,-9,146,82,-151,68,58,-434,-53,-39,-19,-19
-165,-9,156,87,-161,73,63,-463,-68,-43,-34,-24
-185,-24,161,104,-173,68,68,-502,-82,-53,-39,-34
-195,-29,165,112,-180,68,78,-551,-102,-73,-48,-39
-209,-43,165,126,-187,61,78,-580,-117,-87,-53,-48
-224,-48,175,136,-200,63,78,-619,-131,-102,-63,-58
-248,-68,180,158,-214,56,73,-663,-156,-122,-73,-63
-258,-82,175,170,-217,46,68,-702,-170,-136,-92,-73
-273,-97,175,185,-224,39,68,-727,-190,-156,-107,-82
-283,-122,161,202,-222,19,68,-756,-200,-165,-122,-97
-302,-136,165,219,-234,14,73,-780,-224,-185,-122,-102
-302,-151,151,226,-226,0,82,-810,-239,-200,-136,-112
-307,-170,136,239,-222,-17,68,-814,-248,-209,-151,-122
-312,-190,122,251,-217,-34,53,-824,-263,-229,-161,-131
-307,-200,107,253,-207,-46,53,-824,-278,-239,-175,-141
-302,-214,87,258,-195,-63,53,-814,-283,-244,-190,-151
-302,-219,82,261,-192,-68,58,-790,-283,-253,-200,-151
-287,-229,58,258,-173,-85,58,-756,-283,-253,-200,-161
-287,-229,58,258,-173,-85,53,-727,-278,-253,-200,-161
-273,-224,48,248,-161,-87,48,-692,-273,-244,-200,-161
-248,-224,24,236,-136,-100,39,-634,-258,-234,-190,-151
-234,-214,19,224,-126,-97,19,-575,-248,-219,-190,-146
-195,-195,0,195,-97,-97,19,-502,-204,-200,-165,-136
-170,-180,-9,175,-80,-95,14,-444,-195,-185,-161,-126
-156,-165,-9,161,-73,-87,9,-395,-170,-170,-146,-122
-131,-141,-9,136,-61,-75,4,-341,-146,-146,-136,-107
-112,-122,-9,117,-51,-65,0,-292,-122,-122,-117,-97
-92,-107,-14,100,-39,-61,4,-268,-102,-107,-112,-87
-82,-107,-24,95,-29,-65,-14,-219,-87,-92,-97,-82
-63,-97,-34,80,-14,-65,-19,-180,-73,-78,-82,-68
-48,-73,-24,61,-12,-48,-24,-146,-53,-53,-68,-63
-39,-48,-9,43,-14,-29,-29,-131,-43,-39,-63,-58
-34,-48,-14,41,-9,-31,-39,-117,-34,-29,-48,-53
-24,-39,-14,31,-4,-26,-48,-97,-14,-19,-48,-48
-24,-39,-14,31,-4,-26,-48,-78,-9,-14,-43,-39
-14,-29,-14,21,0,-21,-53,-68,0,-9,-43,-29
-9,-24,-14,17,2,-19,-48,-63,0,-9,-39,-24
-4,-19,-14,12,4,-17,-43,-53,4,0,-34,-14
9,-9,-19,0,14,-14,-53,-39,9,4,-29,-14
14,-9,-24,-2,19,-17,-58,-39,14,9,-19,-14
14,-4,-19,-4,17,-12,-58,-29,19,14,-14,-9
9,0,-9,-4,9,-4,-53,-19,19,19,-14,-9
9,0,-9,-4,9,-4,-53,-19,19,19,-9,0
9,0,-9,-4,9,-4,-58,-19,24,24,-4,-4
4,4,0,-4,2,2,-58,-9,29,24,-4,-4
0,4,4,-2,-2,4,-58,-9,29,24,-4,0
0,14,14,-7,-7,14,-58,-9,29,24,-4,0
9,19,9,-14,0,14,-58,-9,29,19,-9,0
4,24,19,-14,-7,21,-63,-9,29,19,-9,0
9,24,14,-17,-2,19,-63,-9,29,19,-9,0
9,19,9,-14,0,14,-63,-9,29,19,-9,0
9,14,4,-12,2,9,-68,-9,29,19,-4,0
14,24,9,-19,2,17,-63,-14,29,19,-4,0
14,24,9,-19,2,17,-58,-14,29,19,-4,0
9,29,19,-19,-4,24,-58,-14,29,24,0,0
9,34,24,-21,-7,29,-58,-14,29,24,0,0
9,34,24,-21,-7,29,-53,-14,24,24,0,4
9,34,24,-21,-7,29,-43,-14,19,24,0,4
4,34,29,-19,-12,31,-43,-19,19,24,4,4
0,34,34,-17,-17,34,-43,-19,19,24,4,4
0,34,34,-17,-17,34,-43,-19,24,19,-4,4
-4,34,39,-14,-21,36,-43,-19,24,14,-9,0
-4,29,34,-12,-19,31,-39,-24,24,14,-9,0
-4,24,29,-9,-17,26,-39,-24,24,14,-9,0
0,24,24,-12,-12,24,-34,-24,24,19,-4,0
-4,24,29,-9,-17,26,-29,-29,19,24,0,-4
-9,29,39,-9,-24,34,-29,-29,19,24,-4,-4
-9,29,39,-9,-24,34,-29,-29,19,19,-4,-4
-9,29,39,-9,-24,34,-24,-34,14,14,-4,-4
-14,24,39,-4,-26,31,-24,-34,14,4,-4,-4
-19,19,39,0,-29,29,-29,-34,14,4,-9,-9
-14,14,29,0,-21,21,-34,-34,9,0,-9,-9
-14,14,29,0,-21,21,-29,-34,4,0,-9,-9
-14,14,29,0,-21,21,-29,-34,0,0,-9,-9
-14,14,29,0,-21,21,-29,-34,0,-4,-14,-9
-14,9,24,2,-19,17,-29,-34,-4,-9,-19,-9
-14,9,24,2,-19,17,-29,-39,-4,-9,-19,-9
-24,9,34,7,-29,21,-24,-39,-4,-9,-19,-4
-24,14,39,4,-31,26,-19,-39,-4,-4,-14,-9
-19,14,34,2,-26,24,-19,-39,0,0,-9,-9
-19,14,34,2,-26,24,-14,-39,0,0,-9,-9
-19,14,34,2,-26,24,-14,-39,-4,0,-9,-9
-19,9,29,4,-24,19,-14,-39,-4,-9,-14,-14
-19,9,29,4,-24,19,-9,-39,-4,-14,-19,-14
-24,4,29,9,-26,17,-4,-34,-4,-14,-19,-14
-24,0,24,12,-24,12,-4,-34,-4,-14,-19,-14
-24,0,24,12,-24,12,0,-29,-4,-9,-19,-14
-24,0,24,12,-24,12,4,-29,-4,-4,-14,-14
-24,0,24,12,-24,12,0,-29,-4,-4,-14,-9
-29,-4,24,17,-26,9,0,-29,-4,-4,-14,-9
-29,-4,24,17,-26,9,-4,-24,-4,-4,-14,-9
-29,-4,24,17,-26,9,-4,-24,-4,-4,-14,-9
-24,-4,19,14,-21,7,-4,-19,-4,-4,-9,-4
-19,-4,14,12,-17,4,-4,-14,-4,0,-9,-4
-14,4,19,4,-17,12,0,-9,-4,0,-9,-4
-9,9,19,0,-14,14,0,-9,-4,0,-9,-4
-9,14,24,-2,-17,19,0,-9,0,0,-9,-4
-9,14,24,-2,-17,19,0,-9,0,0,-9,-4
-9,14,24,-2,-17,19,-4,-4,4,4,-9,-4
-9,14,24,-2,-17,19,-9,-4,9,4,-9,-4
-14,14,29,0,-21,21,-9,-9,4,0,-14,-4
-19,9,29,4,-24,19,-9,-9,4,-4,-19,-4
-24,9,34,7,-29,21,-4,-9,0,-4,-19,-9
-24,9,34,7,-29,21,0,-9,-4,-4,-19,-14
-19,9,29,4,-24,19,-9,-9,-4,-4,-19,-14
-19,9,29,4,-24,19,-9,-9,0,-4,-19,-14
-19,14,34,2,-26,24,-9,-9,0,-4,-19,-9
-19,19,39,0,-29,29,-9,-9,0,-4,-19,-4
-14,19,34,-2,-24,26,-14,-9,0,-9,-14,-4
-9,19,29,-4,-19,24,-19,-9,0,-9,-14,-4
-9,24,34,-7,-21,29,-24,-9,0,-9,-19,-9
-9,24,34,-7,-21,29,-29,-9,0,-9,-19,-14
-9,19,29,-4,-19,24,-14,-9,0,-14,-19,-14
-9,19,29,-4,-19,24,-4,-4,0,-14,-19,-14
-14,19,34,-2,-24,26,-4,-4,0,-14,-24,-9
-14,19,34,-2,-24,26,0,-4,0,-14,-29,-9
-14,19,34,-2,-24,26,-9,-4,0,-14,-24,-14
-9,19,29,-4,-19,24,-14,-4,4,-9,-24,-9
-9,19,29,-4,-19,24,-9,0,0,-9,-14,-9
-9,19,29,-4,-19,24,-9,0,0,-9,-9,-9
-4,24,29,-9,-17,26,-9,0,4,-4,-9,-4
0,29,29,-14,-14,29,-9,0,9,0,-9,0
0,29,29,-14,-14,29,-9,0,9,0,-9,0
0,29,29,-14,-14,29,-9,0,9,0,-9,0
-4,24,29,-9,-17,26,-9,4,9,0,-9,0
-9,19,29,-4,-19,24,-9,9,9,0,-9,0
-9,19,29,-4,-19,24,-4,9,9,0,-9,0
-9,19,29,-4,-19,24,0,9,9,0,-9,0
-9,19,29,-4,-19,24,0,4,9,0,-9,0
-9,19,29,-4,-19,24,0,0,9,0,-9,0
-9,19,29,-4,-19,24,-4,0,9,0,-4,0
-9,19,29,-4,-19,24,-4,0,9,0,0,0
-9,19,29,-4,-19,24,-9,0,9,0,0,0
-9,19,29,-4,-19,24,-9,0,9,0,0,0
-9,14,24,-2,-17,19,-4,0,9,0,-4,0
-9,14,24,-2,-17,19,0,0,9,0,-4,0
-9,14,24,-2,-17,19,-4,0,9,0,-4,0
-9,14,24,-2,-17,19,-14,0,9,0,-4,0
-9,14,24,-2,-17,19,-14,0,9,0,0,0
-9,14,24,-2,-17,19,-9,0,14,0,4,4
-4,39,43,-17,-24,41,0,9,19,14,4,9
-4,39,43,-17,-24,41,14,14,24,14,9,9
-4,48,53,-21,-29,51,34,19,34,24,14,19
0,48,48,-24,-24,48,43,24,39,29,19,24
0,68,68,-34,-34,68,58,29,48,34,24,24
0,82,82,-41,-41,82,58,29,48,34,29,24
9,97,87,-53,-39,92,43,34,58,43,34,34
14,102,87,-58,-36,95,24,34,58,43,34,34
24,102,78,-63,-26,90,9,39,63,48,43,39
43,122,78,-82,-17,100,-19,39,63,53,48,48
68,131,63,-100,2,97,-58,34,63,53,48,53
73,122,48,-97,12,85,-102,24,63,53,48,53
73,122,48,-97,12,85,-97,14,48,48,43,48
73,117,43,-95,14,80,-102,4,39,39,39,48
68,112,43,-90,12,78,-126,-4,29,39,39,48
68,107,39,-87,14,73,-161,-9,29,39,39,48
78,112,34,-95,21,73,-151,-9,29,39,43,58
82,112,29,-97,26,70,-136,-9,29,39,48,63
92,112,19,-102,36,65,-117,0,29,43,48,63
92,112,19,-102,36,65,-87,0,29,43,53,63
92,107,14,-100,39,61,-97,4,24,39,53,63
78,87,9,-82,34,48,-102,9,14,34,43,58
48,68,19,-58,14,43,-78,9,14,24,34,48
14,53,39,-34,-12,46,-68,4,14,19,29,39
4,43,39,-24,-17,41,-39,4,14,19,24,24
-9,29,39,-9,-24,34,-24,-4,4,14,9,19
-14,29,43,-7,-29,36,-29,-4,0,9,9,9
-24,9,34,7,-29,21,-43,-9,-9,-4,-4,4
-24,9,34,7,-29,21,-43,-14,-9,-14,-14,0
-29,0,29,14,-29,14,-43,-14,-9,-19,-24,-4
-24,0,24,12,-24,12,-24,-4,-14,-14,-24,-9
-9,0,9,4,-9,4,4,53,-9,-14,-19,-9
0,19,19,-9,-9,19,19,180,63,39,0,-4
14,68,53,-41,-19,61,58,361,175,126,53,9
43,165,122,-104,-39,143,141,595,322,253,112,39
102,253,151,-178,-24,202,214,849,458,380,195,87
229,395,165,-312,31,280,239,1234,668,551,297,170
390,561,170,-475,109,366,200,1556,863,746,429,287
610,790,180,-700,214,485,-9,1610,995,932,600,453
858,1073,214,-966,322,644,-390,1546,1098,1107,795,668
1058,1415,356,-1237,351,885,-893,1473,1224,1302,1019,907
1190,1629,439,-1410,375,1034,-1405,1239,1234,1346,1156,1098
1356,1761,405,-1559,475,1083,-1942,1156,1117,1346,1249,1254
1444,1703,258,-1573,592,980,-2152,1239,888,1210,1234,1312
1361,1688,326,-1525,517,1007,-1947,1507,785,1112,1234,1342
1293,1586,292,-1439,500,939,-1659,1595,683,966,1151,1327
1039,1337,297,-1188,370,817,-1293,1024,453,751,1005,1224
600,941,341,-771,129,641,-961,-14,48,400,741,956
351,580,229,-466,61,405,-722,-595,-204,112,473,658
234,307,73,-270,80,190,-497,-561,-224,-34,244,434
97,156,58,-126,19,107,-307,-434,-195,-53,126,268
24,102,78,-63,-26,90,-224,-297,-175,-53,73,151
-14,53,68,-19,-41,61,-126,-224,-131,-58,24,39
-53,-14,39,34,-46,12,-48,-209,-92,-63,-14,9
-73,-34,39,53,-56,2,-9,-195,-82,-53,-24,9
-92,-19,73,56,-82,26,4,-161,-82,-48,-24,-4
-78,-9,68,43,-73,29,-9,-161,-78,-43,-19,-4
-68,-24,43,46,-56,9,-14,-161,-73,-43,-19,-9
-68,-24,43,46,-56,9,-14,-156,-63,-43,-19,-14
-68,-24,43,46,-56,9,-9,-146,-58,-39,-19,-14
-68,-24,43,46,-56,9,-4,-141,-58,-34,-14,-14
-68,-24,43,46,-56,9,-4,-141,-53,-24,-9,-9
-73,-24,48,48,-61,12,0,-136,-53,-24,-14,-4
-73,-24,48,48,-61,12,4,-136,-48,-24,-14,-4
-73,-19,53,46,-63,17,4,-136,-48,-29,-19,-4
-73,-19,53,46,-63,17,4,-136,-48,-29,-19,-4
-68,-19,48,43,-58,14,4,-131,-48,-24,-19,-4
-63,-19,43,41,-53,12,4,-131,-53,-24,-14,-9
-63,-19,43,41,-53,12,-9,-126,-53,-24,-14,-4
-58,-14,43,36,-51,14,0,-126,-53,-24,-14,-4
-63,-4,58,34,-61,26,-29,-122,-43,-19,-9,4
-63,4,68,29,-65,36,-48,-117,-39,-14,-9,9
-58,4,63,26,-61,34,-29,-117,-34,-9,-4,9
-58,4,63,26,-61,34,-9,-117,-34,-4,-4,9
-58,4,63,26,-61,34,0,-117,-34,-4,-4,9
-58,4,63,26,-61,34,9,-117,-34,0,0,4
-58,4,63,26,-61,34,9,-122,-29,-4,0,9
-53,19,73,17,-63,46,9,-126,-29,-4,4,9
-53,19,73,17,-63,46,9,-126,-34,0,4,14
-53,24,78,14,-65,51,9,-126,-34,0,4,14
-48,29,78,9,-63,53,4,-117,-34,0,9,19
-48,34,82,7,-65,58,4,-112,-34,4,14,19
-43,39,82,2,-63,61,0,-112,-24,4,14,24
-43,39,82,2,-63,61,-4,-112,-19,4,14,24
-43,43,87,0,-65,65,-9,-112,-19,4,14,24
-43,43,87,0,-65,65,-14,-107,-19,4,14,24
-43,43,87,0,-65,65,-14,-112,-19,4,14,34
-43,53,97,-4,-70,75,-9,-112,-24,9,19,39
-39,58,97,-9,-68,78,-9,-122,-19,9,19,39
-34,58,92,-12,-63,75,-9,-122,-19,9,19,39
-39,58,97,-9,-68,78,-14,-126,-19,4,14,34
-43,58,102,-7,-73,80,-24,-131,-19,0,9,29
-43,68,112,-12,-78,90,-24,-136,-19,0,9,34
-48,68,117,-9,-82,92,-19,-141,-14,0,14,34
-48,73,122,-12,-85,97,-9,-146,-14,4,19,34
-48,73,122,-12,-85,97,-4,-161,-14,4,24,34
-63,78,141,-7,-102,109,9,-170,-14,0,24,29
-73,82,156,-4,-114,119,9,-190,-24,-4,24,29
-73,78,151,-2,-112,114,19,-209,-29,-14,14,29
-92,78,170,7,-131,124,34,-229,-34,-24,9,29
-97,78,175,9,-136,126,39,-248,-39,-29,4,24
-107,78,185,14,-146,131,48,-273,-39,-34,4,24
-112,73,185,19,-148,129,48,-297,-58,-43,0,14
-126,68,195,29,-161,131,48,-326,-63,-58,0,9
-136,68,204,34,-170,136,53,-356,-78,-63,-14,4
-156,53,209,51,-183,131,58,-395,-92,-73,-19,-4
-170,43,214,63,-192,129,63,-444,-112,-92,-34,-9
-190,24,214,82,-202,119,58,-473,-126,-107,-43,-19
-204,19,224,92,-214,122,58,-507,-141,-122,-53,-29
-229,0,229,114,-229,114,58,-546,-165,-141,-63,-34
-239,-14,224,126,-231,104,58,-585,-180,-156,-78,-43
-253,-24,229,139,-241,102,58,-614,-200,-180,-87,-53
-258,-43,214,151,-236,85,43,-644,-204,-190,-102,-63
-273,-58,214,165,-244,78,24,-663,-224,-204,-107,-68
-273,-73,200,173,-236,63,48,-692,-239,-219,-126,-82
-278,-92,185,185,-231,46,68,-697,-248,-229,-141,-92
-287,-117,170,202,-229,26,63,-707,-263,-253,-151,-102
-292,-131,161,212,-226,14,63,-707,-278,-268,-161,-112
-292,-146,146,219,-219,0,58,-697,-283,-273,-170,-126
-292,-151,141,222,-217,-4,48,-688,-283,-283,-180,-131
-278,-156,122,217,-200,-17,39,-663,-287,-287,-185,-141
-273,-156,117,214,-195,-19,34,-614,-283,-292,-190,-141
-253,-156,97,204,-175,-29,24,-566,-273,-283,-190,-141
-229,-156,73,192,-151,-41,14,-522,-258,-273,-180,-136
-214,-146,68,180,-141,-39,0,-478,-248,-258,-185,-136
-180,-131,48,156,-114,-41,0,-405,-204,-239,-170,-126
-156,-117,39,136,-97,-39,-4,-346,-200,-224,-170,-117
-136,-102,34,119,-85,-34,-9,-297,-180,-209,-156,-112
-112,-82,29,97,-70,-26,-19,-234,-156,-190,-141,-97
-92,-63,29,78,-61,-17,-34,-165,-131,-170,-117,-87
-73,-48,24,61,-48,-12,-34,-126,-112,-156,-112,-78
-58,-34,24,46,-41,-4,-53,-87,-92,-141,-102,-73
-34,-14,19,24,-26,2,-58,-63,-73,-126,-97,-58
-19,-4,14,12,-17,4,-63,-19,-53,-107,-87,-53
-9,9,19,0,-14,14,-68,4,-43,-97,-82,-48
-4,9,14,-2,-9,12,-73,19,-34,-87,-68,-43
4,24,19,-14,-7,21,-97,39,-14,-78,-68,-39
4,29,24,-17,-9,26,-117,58,-9,-68,-58,-29
14,39,24,-26,-4,31,-102,68,0,-58,-53,-19
19,43,24,-31,-2,34,-82,73,0,-58,-48,-19
19,48,29,-34,-4,39,-78,78,0,-53,-43,-14
24,58,34,-41,-4,46,-82,87,0,-53,-43,-14
24,58,34,-41,-4,46,-87,87,4,-48,-39,-14
24,63,39,-43,-7,51,-87,92,9,-43,-34,-9
24,68,43,-46,-9,56,-92,97,9,-34,-29,-9
29,68,39,-48,-4,53,-102,97,9,-29,-19,4
29,73,43,-51,-7,58,-107,97,14,-24,-14,4
34,82,48,-58,-7,65,-107,107,19,-24,-14,4
39,82,43,-61,-2,63,-107,107,19,-24,-14,9
39,87,48,-63,-4,68,-107,107,19,-19,-9,9
48,78,29,-63,9,53,-107,107,19,-19,-14,9
39,73,34,-56,2,53,-112,107,19,-19,-19,9
39,73,34,-56,2,53,-107,107,19,-19,-19,9
39,73,34,-56,2,53,-102,107,19,-19,-19,9
39,73,34,-56,2,53,-107,112,19,-19,-14,9
43,82,39,-63,2,61,-107,112,19,-19,-14,9
43,82,39,-63,2,61,-112,112,19,-19,-14,9
39,82,43,-61,-2,63,-117,112,19,-14,-9,9
39,82,43,-61,-2,63,-117,112,19,-14,-9,9
39,82,43,-61,-2,63,-117,112,19,-14,-9,14
39,82,43,-61,-2,63,-112,112,19,-9,-9,14
39,82,43,-61,-2,63,-112,107,19,-4,-4,14
39,82,43,-61,-2,63,-112,107,19,-4,-4,9
39,82,43,-61,-2,63,-112,102,19,-4,-9,4
34,82,48,-58,-7,65,-102,97,14,-9,-9,0
34,82,48,-58,-7,65,-87,92,14,-14,-9,0
34,82,48,-58,-7,65,-87,92,14,-14,-4,4
34,82,48,-58,-7,65,-82,92,14,-14,0,9
24,82,58,-53,-17,70,-78,87,9,-14,0,4
19,82,63,-51,-21,73,-78,87,9,-14,-4,4
19,78,58,-48,-19,68,-78,87,9,-19,-9,4
19,78,58,-48,-19,68,-73,82,4,-19,-14,4
14,73,58,-43,-21,65,-82,87,4,-24,-14,4
4,73,68,-39,-31,70,-92,92,4,-24,-19,0
4,73,68,-39,-31,70,-82,92,0,-24,-19,0
4,73,68,-39,-31,70,-68,92,0,-19,-19,0
4,73,68,-39,-31,70,-68,87,0,-19,-19,-4
4,73,68,-39,-31,70,-68,82,0,-19,-19,-9
4,68,63,-36,-29,65,-68,82,-4,-19,-19,-9
4,68,63,-36,-29,65,-68,78,-4,-19,-19,-14
-4,68,73,-31,-39,70,-63,82,0,-19,-19,-9
-4,68,73,-31,-39,70,-58,87,0,-19,-19,-9
0,63,63,-31,-31,63,-58,87,0,-19,-19,-9
0,63,63,-31,-31,63,-53,87,0,-19,-19,-9
0,63,63,-31,-31,63,-68,87,-4,-19,-19,-9
0,58,58,-29,-29,58,-82,87,-4,-24,-19,-9
0,53,53,-26,-26,53,-78,82,-4,-24,-19,-4
-4,48,53,-21,-29,51,-73,82,-4,-24,-19,-4
-4,48,53,-21,-29,51,-48,82,-4,-24,-19,-4
-4,48,53,-21,-29,51,-29,87,-4,-24,-24,-4
-4,48,53,-21,-29,51,-34,87,-4,-29,-24,-4
-4,48,53,-21,-29,51,-39,87,-4,-34,-24,-4
-9,43,53,-17,-31,48,-43,87,-4,-34,-24,-9
-9,43,53,-17,-31,48,-48,92,-4,-34,-24,-9
-9,43,53,-17,-31,48,-53,92,0,-29,-24,-9
-9,43,53,-17,-31,48,-58,92,4,-24,-19,-4
-9,43,53,-17,-31,48,-53,92,4,-19,-19,-4
-9,43,53,-17,-31,48,-48,97,4,-19,-19,-4
-4,39,43,-17,-24,41,-48,97,0,-19,-19,-4
0,39,39,-19,-19,39,-48,97,0,-19,-19,-4
0,34,34,-17,-17,34,-48,92,0,-19,-14,-4
0,34,34,-17,-17,34,-48,92,0,-14,-9,-4
-4,34,39,-14,-21,36,-48,87,0,-14,-9,-4
-9,34,43,-12,-26,39,-48,82,-4,-14,-9,-4
-9,29,39,-9,-24,34,-48,87,-4,-14,-9,-4
-14,29,43,-7,-29,36,-48,87,-4,-14,-9,-4
-14,24,39,-4,-26,31,-43,87,-4,-14,-14,-4
-9,19,29,-4,-19,24,-48,87,-4,-14,-19,-4
-9,19,29,-4,-19,24,-43,82,0,-14,-19,-4
-9,19,29,-4,-19,24,-39,78,0,-14,-19,-4
-4,19,24,-7,-14,21,-39,78,0,-14,-14,-4
0,19,19,-9,-9,19,-39,78,0,-14,-4,-4
0,24,24,-12,-12,24,-48,82,4,-9,-4,-4
0,29,29,-14,-14,29,-53,87,9,-9,-9,-4
4,24,19,-14,-7,21,-34,87,9,-9,-9,-4
9,19,9,-14,0,14,-19,87,9,-14,-9,-4
9,19,9,-14,0,14,-19,87,9,-14,-9,-4
4,19,14,-12,-4,17,-14,82,9,-14,-9,0
0,14,14,-7,-7,14,-9,82,9,-9,-9,4
0,9,9,-4,-4,9,-9,82,9,0,-4,4
0,4,4,-2,-2,4,-9,78,9,0,-4,4
0,4,4,-2,-2,4,-14,78,9,0,-9,9
0,4,4,-2,-2,4,-9,78,9,0,-4,9
0,9,9,-4,-4,9,-9,78,9,0,0,9
0,9,9,-4,-4,9,-9,78,9,0,0,9
0,9,9,-4,-4,9,-9,78,9,0,0,9
0,9,9,-4,-4,9,-9,78,9,-4,0,9
0,9,9,-4,-4,9,-9,78,9,-9,0,9
0,9,9,-4,-4,9,-9,73,9,-9,0,9
0,9,9,-4,-4,9,-9,68,9,-9,0,9
0,14,14,-7,-7,14,-9,68,9,-4,0,9
0,19,19,-9,-9,19,-9,68,9,0,0,9
0,19,19,-9,-9,19,-9,68,9,0,0,4
0,19,19,-9,-9,19,-9,68,9,0,0,0
0,14,14,-7,-7,14,-9,63,4,-4,0,0
0,9,9,-4,-4,9,-9,58,0,-4,0,0
0,9,9,-4,-4,9,-9,58,0,-9,-4,0
0,9,9,-4,-4,9,-4,58,0,-9,-9,0
0,14,14,-7,-7,14,-4,58,0,-9,-4,0
0,14,14,-7,-7,14,-9,58,0,-9,-4,0
0,14,14,-7,-7,14,-14,53,0,-9,-4,0
0,14,14,-7,-7,14,-14,48,0,-9,0,0
0,14,14,-7,-7,14,-4,48,4,-9,4,4
4,39,34,-21,-14,36,9,53,9,4,4,9
9,48,39,-29,-14,43,24,53,14,4,9,9
14,68,53,-41,-19,61,34,58,24,14,14,19
19,68,48,-43,-14,58,29,58,29,19,19,24
19,82,63,-51,-21,73,39,58,39,24,24,24
14,92,78,-53,-31,85,39,58,39,24,29,24
19,107,87,-63,-34,97,34,63,48,34,34,34
24,112,87,-68,-31,100,24,58,48,34,34,29
29,112,82,-70,-26,97,19,58,53,39,43,29
43,131,87,-87,-21,109,0,58,53,43,48,39
63,141,78,-102,-7,109,-39,48,53,43,48,43
63,131,68,-97,-2,100,-82,34,53,43,48,48
63,131,68,-97,-2,100,-87,24,43,39,43,48
63,126,63,-95,0,95,-107,14,39,24,39,48
63,126,63,-95,0,95,-112,9,29,19,39,48
68,126,58,-97,4,92,-122,4,29,19,39,48
78,131,53,-104,12,92,-126,4,29,19,43,58
82,131,48,-107,17,90,-122,9,29,19,48,63
92,131,39,-112,26,85,-117,19,29,24,48,63
92,136,43,-114,24,90,-107,19,29,29,53,63
92,136,43,-114,24,90,-102,19,24,29,53,63
78,117,39,-97,19,78,-92,14,14,24,43,58
53,97,43,-75,4,70,-68,9,14,14,34,48
24,82,58,-53,-17,70,-58,4,14,4,29,34
14,73,58,-43,-21,65,-39,4,14,0,24,14
0,58,58,-29,-29,58,-34,-4,4,-4,9,9
-4,53,58,-24,-31,56,-24,-4,0,-9,9,0
-14,29,43,-7,-29,36,-19,-14,-9,-24,-4,-4
-14,29,43,-7,-29,36,-14,-24,-9,-29,-9,-9
-19,19,39,0,-29,29,-14,-29,-9,-29,-14,-14
-19,19,39,0,-29,29,-9,-24,-9,-24,-14,-19
-9,14,24,-2,-17,19,4,34,-4,-24,-14,-19
0,29,29,-14,-14,29,39,161,63,29,-4,-14
14,73,58,-43,-21,65,102,331,170,107,39,-4
48,165,117,-107,-34,141,175,556,312,224,92,19
102,244,141,-173,-19,192,234,819,448,351,170,68
219,380,161,-300,29,270,258,1210,668,531,278,156
380,551,170,-466,104,361,234,1542,873,736,419,273
580,780,200,-680,190,490,39,1590,1010,922,590,434
819,1068,248,-944,285,658,-341,1527,1132,1112,790,649
1024,1420,395,-1222,314,907,-829,1473,1278,1332,1024,893
1156,1654,497,-1405,329,1076,-1327,1220,1293,1385,1171,1098
1327,1800,473,-1564,427,1137,-1864,1117,1176,1385,1268,1263
1424,1742,317,-1583,553,1029,-2108,1210,946,1254,1259,1327
1351,1712,361,-1532,495,1037,-1947,1478,829,1156,1259,1356
1283,1600,317,-1442,483,958,-1673,1571,712,1005,1176,1342
1039,1366,326,-1202,356,846,-1312,1049,483,790,1034,1239
610,980,370,-795,119,675,-980,14,73,439,771,966
361,619,258,-490,51,439,-741,-595,-190,141,502,668
239,336,97,-287,70,217,-507,-575,-214,-24,273,444
102,175,73,-139,14,124,-287,-463,-190,-53,151,278
29,117,87,-73,-29,102,-185,-317,-175,-53,82,151
0,63,63,-31,-31,63,-122,-234,-131,-68,19,29
-24,-4,19,14,-21,7,-73,-219,-97,-82,-24,-4
-43,-24,19,34,-31,-2,-29,-209,-92,-73,-34,-9
-63,-9,53,36,-58,21,-14,-175,-92,-68,-34,-24
-53,0,53,26,-53,26,-24,-170,-87,-63,-29,-24
-48,-14,34,31,-41,9,-24,-170,-82,-63,-29,-24
-48,-14,34,31,-41,9,-19,-165,-78,-63,-29,-24
-48,-14,34,31,-41,9,-9,-156,-73,-53,-29,-24
-48,-14,34,31,-41,9,-4,-151,-68,-48,-29,-29
-53,-14,39,34,-46,12,-4,-151,-63,-43,-29,-29
-58,-14,43,36,-51,14,0,-146,-63,-43,-34,-24
-53,-14,39,34,-46,12,4,-141,-58,-48,-34,-19
-53,-9,43,31,-48,17,4,-136,-58,-53,-34,-14
-48,-9,39,29,-43,14,4,-136,-58,-48,-24,-14
-43,-9,34,26,-39,12,4,-131,-53,-43,-19,-9
-43,-9,34,26,-39,12,4,-131,-53,-43,-14,-14
-43,-9,34,26,-39,12,-4,-126,-53,-43,-14,-14
-39,-4,34,21,-36,14,9,-131,-53,-43,-14,-14
-39,4,43,17,-41,24,0,-136,-48,-39,-9,-9
-34,14,48,9,-41,31,0,-136,-48,-34,-9,-9
-29,14,43,7,-36,29,0,-136,-43,-34,-4,-9
-29,14,43,7,-36,29,4,-136,-43,-34,-4,-9
-29,14,43,7,-36,29,9,-136,-43,-34,-4,-4
-29,14,43,7,-36,29,9,-136,-43,-29,0,-4
-29,14,43,7,-36,29,9,-136,-39,-29,0,0
-19,29,48,-4,-34,39,9,-136,-39,-24,4,0
-14,29,43,-7,-29,36,9,-136,-39,-19,4,4
-14,34,48,-9,-31,41,9,-136,-34,-19,4,4
-9,34,43,-12,-26,39,4,-131,-34,-19,9,9
-14,34,48,-9,-31,41,0,-131,-34,-14,14,9
-14,39,53,-12,-34,46,-4,-131,-29,-14,14,14
-14,43,58,-14,-36,51,-4,-131,-29,-14,14,14
-14,53,68,-19,-41,61,-4,-136,-29,-14,14,14
-14,53,68,-19,-41,61,-4,-136,-29,-14,14,14
-14,53,68,-19,-41,61,-4,-141,-24,-14,14,19
-14,63,78,-24,-46,70,0,-141,-24,-9,19,19
-14,68,82,-26,-48,75,0,-151,-19,-9,19,19
-14,68,82,-26,-48,75,0,-151,-19,-9,19,19
-19,68,87,-24,-53,78,4,-156,-19,-9,19,19
-24,68,92,-21,-58,80,4,-156,-19,-9,19,19
-24,78,102,-26,-63,90,4,-156,-24,-9,19,24
-29,78,107,-24,-68,92,9,-161,-24,-9,24,29
-29,82,112,-26,-70,97,19,-165,-24,-9,24,34
-29,82,112,-26,-70,97,24,-180,-24,-9,24,34
-39,82,122,-21,-80,102,39,-190,-24,-9,24,29
-43,82,126,-19,-85,104,43,-209,-29,-14,29,29
-43,78,122,-17,-82,100,53,-229,-29,-19,24,29
-63,78,141,-7,-102,109,63,-248,-34,-24,19,29
-68,78,146,-4,-107,112,68,-268,-39,-29,14,24
-78,78,156,0,-117,117,82,-292,-39,-34,14,24
-87,73,161,7,-124,117,87,-322,-58,-48,4,14
-107,68,175,19,-141,122,87,-356,-63,-68,0,9
-117,68,185,24,-151,126,92,-385,-78,-73,-14,4
-136,53,190,41,-163,122,97,-424,-92,-82,-19,-4
-146,48,195,48,-170,122,107,-473,-112,-102,-29,-9
-161,34,195,63,-178,114,107,-502,-126,-112,-34,-19
-175,29,204,73,-190,117,107,-541,-141,-122,-43,-29
-200,9,209,95,-204,109,107,-585,-165,-141,-53,-34
-209,-4,204,107,-207,100,107,-624,-180,-156,-73,-43
-219,-14,204,117,-212,95,107,-653,-200,-185,-87,-53
-224,-34,190,129,-207,78,107,-688,-209,-204,-102,-68
-244,-48,195,146,-219,73,102,-712,-234,-224,-107,-78
-244,-63,180,153,-212,58,102,-741,-248,-239,-126,-92
-248,-82,165,165,-207,41,92,-746,-253,-248,-141,-102
-253,-102,151,178,-202,24,82,-756,-263,-268,-151,-112
-253,-112,141,183,-197,14,82,-756,-278,-278,-156,-122
-253,-126,126,190,-190,0,82,-746,-283,-283,-161,-131
-253,-131,122,192,-187,-4,87,-736,-287,-292,-170,-131
-239,-141,97,190,-168,-21,87,-717,-292,-292,-170,-141
-234,-146,87,190,-161,-29,82,-673,-283,-292,-175,-141
-214,-146,68,180,-141,-39,78,-624,-273,-283,-180,-141
-190,-146,43,168,-117,-51,73,-580,-258,-273,-170,-136
-175,-136,39,156,-107,-48,58,-536,-248,-258,-170,-136
-141,-117,24,129,-82,-46,53,-463,-204,-239,-151,-126
-122,-102,19,112,-70,-41,43,-405,-195,-224,-151,-117
-107,-92,14,100,-61,-39,39,-356,-170,-209,-136,-112
-82,-73,9,78,-46,-31,34,-302,-146,-185,-126,-97
-68,-58,9,63,-39,-24,29,-244,-122,-165,-107,-87
-53,-48,4,51,-29,-21,34,-209,-102,-156,-102,-78
-39,-39,0,39,-19,-19,14,-175,-82,-141,-92,-73
-14,-19,-4,17,-4,-12,9,-151,-63,-126,-82,-58
0,-4,-4,2,2,-4,-4,-107,-43,-107,-68,-53
9,9,0,-9,4,4,-19,-82,-34,-97,-63,-48
14,14,0,-14,7,7,-24,-68,-24,-87,-48,-43
24,29,4,-26,9,17,-29,-48,-4,-78,-48,-39
24,29,4,-26,9,17,-19,-29,0,-68,-39,-29
34,39,4,-36,14,21,-14,-19,9,-58,-34,-19
39,43,4,-41,17,24,-14,-14,9,-58,-29,-19
43,48,4,-46,19,26,-14,-4,14,-48,-24,-14
53,58,4,-56,24,31,-24,9,24,-43,-24,-14
53,58,4,-56,24,31,-29,9,34,-39,-19,-14
58,63,4,-61,26,34,-34,14,39,-29,-14,-9
58,68,9,-63,24,39,-34,19,39,-19,-14,-9
58,73,14,-65,21,43,-34,14,39,-19,-9,4
58,78,19,-68,19,48,-39,9,43,-14,-4,4
58,82,24,-70,17,53,-39,19,43,-14,-4,4
58,82,24,-70,17,53,-39,19,39,-14,-4,9
58,87,29,-73,14,58,-34,19,39,-9,0,9
68,87,19,-78,24,53,-29,19,39,-9,0,9
58,92,34,-75,12,63,-34,19,39,-9,0,9
58,92,34,-75,12,63,-34,19,39,-9,0,9
58,92,34,-75,12,63,-34,24,39,-9,0,9
58,92,34,-75,12,63,-39,29,39,-9,4,9
63,97,34,-80,14,65,-43,24,39,-9,4,9
63,92,29,-78,17,61,-48,24,39,-9,4,9
58,92,34,-75,12,63,-53,19,39,-4,9,9
58,92,34,-75,12,63,-58,14,39,-4,9,9
58,92,34,-75,12,63,-58,14,39,-4,9,9
58,92,34,-75,12,63,-53,14,39,-4,9,4
58,92,34,-75,12,63,-48,9,39,-4,14,4
58,92,34,-75,12,63,-43,9,39,-4,14,4
63,97,34,-80,14,65,-43,4,39,-4,9,4
63,102,39,-82,12,70,-43,0,34,-4,9,0
63,102,39,-82,12,70,-39,-4,34,-4,4,0
63,102,39,-82,12,70,-39,-4,34,-4,0,0
63,92,29,-78,17,61,-29,-4,34,-9,0,0
53,82,29,-68,12,56,-19,-9,29,-14,0,-4
48,82,34,-65,7,58,-19,-9,29,-14,-4,-4
48,78,29,-63,9,53,-19,-9,29,-19,-4,-4
48,82,34,-65,7,58,-14,-14,19,-19,-4,-4
43,82,39,-63,2,61,-14,-14,14,-24,-4,-4
34,82,48,-58,-7,65,-14,-14,14,-19,-9,-9
34,82,48,-58,-7,65,-14,-14,9,-19,-9,-9
39,82,43,-61,-2,63,-4,-14,9,-19,-9,-9
43,82,39,-63,2,61,0,-14,9,-19,-9,-9
43,82,39,-63,2,61,0,-14,9,-24,-9,-9
43,78,34,-61,4,56,0,-14,4,-29,-9,-9
43,78,34,-61,4,56,0,-19,4,-29,-9,-14
34,78,43,-56,-4,61,4,-19,4,-29,-9,-14
29,78,48,-53,-9,63,9,-19,0,-29,-9,-19
29,73,43,-51,-7,58,9,-19,0,-29,-9,-19
29,73,43,-51,-7,58,4,-19,0,-24,-9,-19
29,73,43,-51,-7,58,-4,-19,-4,-19,-9,-19
29,68,39,-48,-4,53,-4,-19,-4,-24,-9,-24
29,68,39,-48,-4,53,0,-19,-4,-24,-9,-24
24,68,43,-46,-9,56,9,-14,-4,-29,-9,-24
24,68,43,-46,-9,56,14,-14,-4,-34,-9,-24
24,68,43,-46,-9,56,14,-9,-4,-34,-14,-19
24,68,43,-46,-9,56,14,-9,-4,-34,-14,-14
24,68,43,-46,-9,56,9,-9,-4,-29,-14,-14
19,63,43,-41,-12,53,9,-9,-4,-24,-14,-19
19,63,43,-41,-12,53,0,-4,-4,-24,-14,-19
19,63,43,-41,-12,53,-4,-4,-4,-24,-14,-19
19,63,43,-41,-12,53,-4,-4,-4,-24,-9,-14
19,63,43,-41,-12,53,-4,-4,-4,-19,-9,-14
19,63,43,-41,-12,53,0,0,-4,-19,-9,-14
19,58,39,-39,-9,48,0,0,-4,-19,-9,-14
19,63,43,-41,-12,53,4,0,0,-19,-9,-14
19,63,43,-41,-12,53,9,0,0,-19,-9,-14
19,63,43,-41,-12,53,19,4,0,-19,-9,-14
19,63,43,-41,-12,53,29,4,0,-24,-9,-14
14,58,43,-36,-14,51,14,0,-4,-24,-14,-14
9,48,39,-29,-14,43,0,0,-4,-24,-19,-14
4,48,43,-26,-19,46,0,0,-4,-24,-19,-14
4,48,43,-26,-19,46,0,0,-4,-24,-19,-14
9,48,39,-29,-14,43,-9,0,-4,-19,-14,-14
9,48,39,-29,-14,43,-9,0,0,-14,-9,-14
9,53,43,-31,-17,48,-4,0,0,-14,-9,-9
9,58,48,-34,-19,53,0,0,0,-14,-9,-4
4,58,53,-31,-24,56,0,-4,0,-14,-4,-4
0,58,58,-29,-29,58,0,-9,0,-9,-4,-4
0,58,58,-29,-29,58,4,-9,0,-9,-14,-9
0,53,53,-26,-26,53,9,-9,0,-9,-19,-14
0,43,43,-21,-21,43,9,-9,0,-19,-19,-14
0,39,39,-19,-19,39,4,-4,0,-24,-19,-14
-4,39,43,-17,-24,41,4,0,0,-24,-19,-9
-4,39,43,-17,-24,41,9,4,0,-24,-19,-9
-4,39,43,-17,-24,41,4,4,0,-24,-14,-14
0,39,39,-19,-19,39,4,4,4,-19,-14,-9
0,39,39,-19,-19,39,0,0,0,-14,-9,-9
0,39,39,-19,-19,39,-9,0,0,-9,-9,-9
4,39,34,-21,-14,36,-4,0,4,-9,-9,-9
9,39,29,-24,-9,34,0,0,9,-9,-9,-9
9,39,29,-24,-9,34,0,0,9,-9,-9,-9
9,39,29,-24,-9,34,0,0,9,-9,-9,-9
4,39,34,-21,-14,36,0,0,4,-14,-9,-9
0,39,39,-19,-19,39,0,0,0,-19,-9,-9
0,39,39,-19,-19,39,0,0,0,-19,-9,-9
0,39,39,-19,-19,39,0,0,0,-19,-9,-9
0,39,39,-19,-19,39,0,0,0,-19,-9,-9
0,34,34,-17,-17,34,0,0,0,-14,-9,-9
0,34,34,-17,-17,34,0,0,0,-14,-9,-9
0,29,29,-14,-14,29,0,0,0,-9,-9,-9
-4,24,29,-9,-17,26,4,-4,0,-9,-9,-9
-9,24,34,-7,-21,29,9,-9,0,-9,-4,-9
-9,24,34,-7,-21,29,9,-9,0,-9,-9,-9
-9,24,34,-7,-21,29,4,-9,0,-9,-14,-9
-9,24,34,-7,-21,29,4,-4,0,-9,-9,-9
-9,24,34,-7,-21,29,9,0,4,-9,-4,-4
0,48,48,-24,-24,48,24,4,9,4,0,0
4,48,43,-26,-19,46,43,4,14,4,9,0
4,58,53,-31,-24,56,53,9,24,14,14,9
9,58,48,-34,-19,53,53,14,29,19,19,14
9,73,63,-41,-26,68,68,19,39,24,19,14
9,82,73,-46,-31,78,68,19,39,24,19,14
19,92,73,-56,-26,82,63,24,48,34,24,24
24,92,68,-58,-21,80,53,24,48,34,24,24
29,92,63,-61,-17,78,48,29,53,39,39,29
43,112,68,-78,-12,90,29,29,53,43,48,39
63,122,58,-92,2,90,-9,19,53,43,48,43
63,112,48,-87,7,80,-53,4,53,43,48,43
63,112,48,-87,7,80,-58,-4,43,39,43,39
63,107,43,-85,9,75,-73,-14,39,29,39,39
63,107,43,-85,9,75,-73,-19,29,29,39,39
68,107,39,-87,14,73,-82,-19,29,29,39,39
78,112,34,-95,21,73,-82,-14,29,34,43,48
82,112,29,-97,26,70,-78,-9,29,39,48,53
87,112,24,-100,31,68,-78,0,29,43,48,53
82,112,29,-97,26,70,-68,0,29,43,53,53
82,102,19,-92,31,61,-68,-4,19,34,53,53
68,78,9,-73,29,43,-63,-9,4,24,43,48
43,53,9,-48,17,31,-39,-9,4,14,34,39
14,34,19,-24,-2,26,-29,-14,4,9,29,29
4,24,19,-14,-7,21,-9,-14,9,9,24,14
-9,9,19,0,-14,14,-4,-24,4,4,9,9
-14,4,19,4,-17,12,4,-24,0,0,9,-4
-24,-19,4,21,-14,-7,4,-29,-9,-14,-4,-14
-24,-19,4,21,-14,-7,4,-34,-9,-19,-9,-19
-29,-29,0,29,-14,-14,4,-34,-9,-19,-14,-24
-24,-19,4,21,-14,-7,9,-19,0,-9,-14,-24
-9,-9,0,9,-4,-4,24,43,19,-4,-9,-19
4,9,4,-7,0,7,58,175,92,48,4,-14
24,58,34,-41,-4,46,117,361,204,136,53,0
58,156,97,-107,-19,126,180,595,361,278,117,29
122,244,122,-183,0,183,234,849,507,419,204,78
248,400,151,-324,48,275,258,1210,727,600,322,180
409,580,170,-495,119,375,219,1507,932,805,468,317
595,810,214,-702,190,512,-19,1542,1098,1010,653,488
810,1093,283,-951,263,688,-429,1459,1234,1205,863,707
1005,1449,444,-1227,280,946,-888,1376,1351,1410,1093,951
1132,1678,546,-1405,292,1112,-1356,1132,1351,1464,1234,1146
1278,1800,522,-1539,378,1161,-1873,1073,1234,1464,1327,1302
1346,1732,385,-1539,480,1058,-2064,1180,1005,1327,1312,1361
1263,1688,424,-1476,419,1056,-1869,1371,863,1200,1298,1371
1195,1556,361,-1376,417,958,-1590,1381,722,1024,1200,1337
951,1317,366,-1134,292,841,-1224,888,492,810,1044,1224
522,932,409,-727,56,671,-893,-73,87,458,771,946
292,575,283,-434,4,429,-653,-629,-170,156,502,649
195,307,112,-251,41,209,-429,-570,-195,-4,273,424
63,156,92,-109,-14,124,-229,-444,-170,-29,146,258
-4,102,107,-48,-56,104,-136,-307,-156,-34,82,141
-24,53,78,-14,-51,65,-73,-234,-122,-53,29,29
-43,-14,29,29,-36,7,-29,-219,-92,-73,-14,0
-58,-34,24,46,-41,-4,9,-209,-82,-63,-24,0
-73,-19,53,46,-63,17,24,-180,-82,-58,-24,-14
-63,-9,53,36,-58,21,14,-185,-78,-48,-19,-14
-58,-24,34,41,-46,4,14,-190,-73,-43,-19,-19
-63,-24,39,43,-51,7,19,-190,-68,-43,-19,-24
-68,-24,43,46,-56,9,29,-185,-68,-39,-19,-24
-68,-29,39,48,-53,4,29,-180,-68,-43,-19,-29
-68,-34,34,51,-51,0,24,-180,-63,-43,-19,-29
-63,-34,29,48,-46,-2,24,-175,-63,-43,-24,-24
-53,-34,19,43,-36,-7,24,-175,-58,-43,-24,-24
-53,-24,29,39,-41,2,24,-175,-58,-43,-24,-24
-53,-19,34,36,-43,7,24,-175,-58,-39,-19,-24
-53,-19,34,36,-43,7,29,-170,-53,-29,-19,-19
-53,-19,34,36,-43,7,34,-170,-53,-24,-14,-19
-53,-19,34,36,-43,7,24,-170,-53,-24,-14,-14
-48,-14,34,31,-41,9,39,-175,-53,-24,-14,-14
-48,-4,43,26,-46,19,24,-175,-53,-24,-9,-9
-43,4,48,19,-46,26,19,-175,-58,-24,-9,-9
-39,4,43,17,-41,24,19,-170,-53,-24,-4,-4
-39,4,43,17,-41,24,19,-165,-53,-24,-4,0
-39,4,43,17,-41,24,19,-165,-53,-24,-4,4
-39,4,43,17,-41,24,19,-165,-53,-19,0,4
-39,4,43,17,-41,24,19,-165,-43,-14,0,9
-34,19,53,7,-43,36,19,-165,-39,-4,4,9
-34,24,58,4,-46,41,19,-170,-39,0,9,14
-34,34,68,0,-51,51,19,-175,-34,0,14,14
-29,34,63,-2,-46,48,14,-175,-34,0,19,19
-29,34,63,-2,-46,48,14,-180,-34,4,24,19
-29,39,68,-4,-48,53,14,-180,-34,0,19,19
-34,39,73,-2,-53,56,14,-180,-39,-4,14,14
-34,43,78,-4,-56,61,14,-185,-39,-4,14,14
-34,43,78,-4,-56,61,14,-185,-39,-4,14,14
-29,43,73,-7,-51,58,14,-190,-34,-4,14,19
-24,53,78,-14,-51,65,19,-190,-34,0,19,19
-24,58,82,-17,-53,70,19,-200,-29,0,19,19
-24,58,82,-17,-53,70,19,-200,-29,0,19,19
-29,63,92,-17,-61,78,24,-204,-29,0,19,19
-34,68,102,-17,-68,85,24,-209,-29,0,19,19
-34,78,112,-21,-73,95,24,-214,-34,0,19,24
-39,78,117,-19,-78,97,29,-219,-34,0,24,24
-39,82,122,-21,-80,102,48,-224,-34,0,24,29
-39,82,122,-21,-80,102,63,-239,-34,-4,24,34
-48,82,131,-17,-90,107,78,-248,-34,-9,24,29
-53,82,136,-14,-95,109,78,-268,-43,-14,24,29
-53,78,131,-12,-92,104,78,-287,-48,-19,14,29
-73,78,151,-2,-112,114,82,-307,-53,-24,9,29
-78,78,156,0,-117,117,82,-331,-58,-29,4,24
-87,78,165,4,-126,122,87,-361,-58,-34,4,24
-102,68,170,17,-136,119,82,-390,-78,-48,-4,14
-126,58,185,34,-156,122,78,-424,-82,-68,-9,9
-136,58,195,39,-165,126,82,-453,-97,-73,-24,4
-156,43,200,56,-178,122,87,-492,-112,-82,-29,-4
-165,39,204,63,-185,122,102,-541,-131,-107,-39,-14
-180,24,204,78,-192,114,107,-570,-146,-126,-43,-29
-190,19,209,85,-200,114,107,-610,-161,-141,-53,-39
-209,0,209,104,-209,104,107,-653,-185,-161,-63,-43
-219,-14,204,117,-212,95,107,-692,-200,-175,-82,-53
-234,-24,209,129,-222,92,107,-722,-219,-200,-97,-63
-244,-43,200,143,-222,78,102,-751,-229,-214,-112,-78
-263,-58,204,161,-234,73,92,-771,-253,-234,-117,-87
-263,-73,190,168,-226,58,92,-800,-273,-253,-136,-102
-268,-92,175,180,-222,41,87,-805,-287,-268,-151,-112
-273,-117,156,195,-214,19,87,-819,-302,-287,-161,-122
-273,-131,141,202,-207,4,92,-824,-317,-297,-170,-131
-273,-146,126,209,-200,-9,92,-814,-322,-302,-180,-141
-273,-151,122,212,-197,-14,87,-805,-322,-312,-190,-141
-263,-156,107,209,-185,-24,82,-780,-317,-302,-190,-151
-263,-156,107,209,-185,-24,82,-732,-302,-292,-190,-151
-244,-156,87,200,-165,-34,78,-683,-292,-283,-190,-151
-219,-156,63,187,-141,-46,73,-639,-278,-273,-180,-146
-200,-141,58,170,-129,-41,53,-595,-263,-258,-180,-141
-161,-122,39,141,-100,-41,48,-522,-214,-239,-161,-126
-141,-112,29,126,-85,-41,43,-463,-204,-224,-161,-117
-126,-102,24,114,-75,-39,39,-414,-180,-209,-146,-112
-107,-82,24,95,-65,-29,34,-366,-156,-185,-136,-102
-92,-63,29,78,-61,-17,24,-312,-131,-161,-117,-97
-78,-48,29,63,-53,-9,24,-278,-112,-146,-112,-87
-68,-34,34,51,-51,0,4,-244,-92,-131,-102,-82
-43,-9,34,26,-39,12,0,-219,-68,-117,-87,-63
-29,4,34,12,-31,19,-4,-175,-43,-97,-68,-53
-19,14,34,2,-26,24,-9,-156,-34,-87,-63,-48
-14,9,24,2,-19,17,-14,-146,-24,-78,-48,-43
-4,19,24,-7,-14,21,-19,-126,-4,-73,-53,-43
-4,19,24,-7,-14,21,-19,-107,0,-68,-48,-39
4,29,24,-17,-9,26,-29,-97,9,-58,-43,-29
9,34,24,-21,-7,29,-34,-92,9,-58,-39,-29
14,39,24,-26,-4,31,-34,-82,14,-48,-34,-24
24,48,24,-36,0,36,-43,-68,19,-43,-34,-24
24,48,24,-36,0,36,-48,-68,24,-39,-29,-24
24,53,29,-39,-2,41,-48,-63,29,-34,-24,-19
19,58,39,-39,-9,48,-43,-53,29,-24,-24,-19
19,58,39,-39,-9,48,-43,-48,29,-19,-19,-4
19,58,39,-39,-9,48,-48,-48,29,-14,-14,-4
24,63,39,-43,-7,51,-48,-39,29,-14,-14,-4
29,63,34,-46,-2,48,-43,-39,29,-14,-14,0
29,68,39,-48,-4,53,-39,-39,29,-9,-9,0
39,68,29,-53,4,48,-39,-39,29,-9,-9,0
29,73,43,-51,-7,58,-43,-39,29,-9,-9,0
29,73,43,-51,-7,58,-43,-34,29,-9,-9,0
29,73,43,-51,-7,58,-43,-29,29,-9,-9,0
29,73,43,-51,-7,58,-48,-29,29,-9,-4,0
34,82,48,-58,-7,65,-48,-34,29,-9,-4,0
34,82,48,-58,-7,65,-48,-34,29,-9,-9,0
29,82,53,-56,-12,68,-48,-34,29,-4,-9,0
24,82,58,-53,-17,70,-53,-34,29,-4,-9,0
19,82,63,-51,-21,73,-58,-34,29,-4,-9,4
19,78,58,-48,-19,68,-53,-29,29,-9,-9,4
19,73,53,-46,-17,63,-53,-29,29,-14,-4,4
19,73,53,-46,-17,63,-53,-24,29,-14,-4,4
19,73,53,-46,-17,63,-53,-24,29,-14,-9,4
14,73,58,-43,-21,65,-53,-29,24,-14,-9,0
14,73,58,-43,-21,65,-48,-34,24,-14,-9,0
14,73,58,-43,-21,65,-34,-34,24,-14,-9,0
14,73,58,-43,-21,65,-14,-34,24,-14,-9,0
9,73,63,-41,-26,68,-19,-34,19,-14,-9,-4
9,73,63,-41,-26,68,-29,-29,19,-14,-14,-4
9,68,58,-39,-24,63,-34,-29,19,-19,-14,-9
9,68,58,-39,-24,63,-34,-34,14,-19,-14,-14
4,63,58,-34,-26,61,-34,-29,14,-19,-14,-14
-4,63,68,-29,-36,65,-34,-24,14,-14,-19,-19
-9,63,73,-26,-41,68,-24,-24,9,-19,-19,-14
-14,63,78,-24,-46,70,-9,-24,9,-19,-19,-9
-14,63,78,-24,-46,70,-9,-24,9,-19,-19,-9
-14,63,78,-24,-46,70,-9,-24,9,-19,-19,-9
-9,58,68,-24,-39,63,-9,-19,4,-19,-19,-9
-4,58,63,-26,-34,61,-9,-19,4,-19,-19,-14
-14,58,73,-21,-43,65,-4,-19,0,-24,-19,-14
-14,58,73,-21,-43,65,0,-19,-9,-29,-19,-19
-14,48,63,-17,-39,56,0,-19,-9,-29,-24,-19
-19,43,63,-12,-41,53,4,-19,-9,-29,-29,-19
-19,43,63,-12,-41,53,0,-14,-14,-24,-29,-19
-19,39,58,-9,-39,48,-4,-9,-14,-24,-29,-19
-14,43,58,-14,-36,51,-9,-9,-14,-24,-29,-14
-14,48,63,-17,-39,56,-14,-4,-14,-24,-29,-14
-14,48,63,-17,-39,56,-4,-4,-14,-24,-24,-14
-14,48,63,-17,-39,56,0,0,-14,-24,-24,-14
-9,48,58,-19,-34,53,-4,0,-14,-24,-24,-14
-4,48,53,-21,-29,51,-9,0,-14,-24,-24,-14
-9,43,53,-17,-31,48,-9,-4,-14,-24,-24,-19
-9,43,53,-17,-31,48,-9,-4,-14,-24,-24,-19
-9,43,53,-17,-31,48,-4,-4,-14,-24,-24,-19
-9,43,53,-17,-31,48,0,-4,-14,-24,-19,-14
-9,43,53,-17,-31,48,-4,-4,-14,-19,-24,-14
-9,43,53,-17,-31,48,-9,0,-14,-19,-29,-14
-9,43,53,-17,-31,48,-9,0,-14,-19,-29,-14
-9,48,58,-19,-34,53,-9,0,-9,-19,-29,-14
-9,43,53,-17,-31,48,-4,0,-4,-19,-29,-14
-9,43,53,-17,-31,48,0,4,0,-14,-29,-14
-9,43,53,-17,-31,48,0,4,0,-14,-24,-14
-9,43,53,-17,-31,48,0,4,-4,-14,-19,-14
-9,39,48,-14,-29,43,0,9,-4,-14,-19,-14
-14,39,53,-12,-34,46,0,9,-4,-14,-19,-14
-14,39,53,-12,-34,46,0,9,-4,-14,-19,-14
-9,39,48,-14,-29,43,-9,9,-4,-14,-19,-14
-9,39,48,-14,-29,43,-9,4,-4,-14,-19,-14
-9,39,48,-14,-29,43,-9,0,-9,-14,-19,-14
-9,39,48,-14,-29,43,-9,0,-9,-14,-19,-14
-9,39,48,-14,-29,43,-9,0,-9,-14,-14,-14
-9,39,48,-14,-29,43,-9,0,-9,-9,-14,-14
-9,39,48,-14,-29,43,-4,0,-9,-9,-19,-14
-9,34,43,-12,-26,39,0,4,-4,-4,-14,-9
-9,29,39,-9,-24,34,0,9,0,-4,-9,-4
-9,29,39,-9,-24,34,-4,14,0,-4,-9,-4
-14,29,43,-7,-29,36,-4,14,0,-4,-9,0
-14,29,43,-7,-29,36,0,9,0,-4,-9,0
-9,29,39,-9,-24,34,0,4,0,0,-4,-4
-4,24,29,-9,-17,26,0,0,0,0,-4,-4
0,24,24,-12,-12,24,-4,0,0,0,-9,-9
0,24,24,-12,-12,24,0,0,0,0,-9,-9
0,29,29,-14,-14,29,0,0,0,0,-9,-9
-4,29,34,-12,-19,31,0,0,0,0,-9,-9
-9,29,39,-9,-24,34,0,0,0,0,-9,-9
-9,29,39,-9,-24,34,-4,0,0,0,-9,-9
-9,29,39,-9,-24,34,-9,0,0,0,-9,-9
-9,29,39,-9,-24,34,-9,0,0,0,-9,-9
-9,29,39,-9,-24,34,-9,0,0,0,-9,-9
-9,29,39,-9,-24,34,-9,0,0,0,-9,-4
-9,29,39,-9,-24,34,-9,0,0,0,-9,0
-9,29,39,-9,-24,34,-9,0,0,0,-9,0
-9,29,39,-9,-24,34,-9,0,0,0,-9,0
-9,24,34,-7,-21,29,-14,-4,-4,-4,-9,0
-9,19,29,-4,-19,24,-14,-4,-4,-4,-9,0
-9,19,29,-4,-19,24,-19,-9,-9,-9,-9,-4
-9,19,29,-4,-19,24,-19,-9,-9,-9,-9,-9
-9,19,29,-4,-19,24,-14,-4,-9,-9,-9,-9
-9,24,34,-7,-21,29,-9,0,-9,-9,-4,-9
-4,24,29,-9,-17,26,-4,0,-9,-9,-4,-4
0,24,24,-12,-12,24,-4,0,-9,-9,-4,0
0,24,24,-12,-12,24,-4,0,-9,-9,0,0
0,24,24,-12,-12,24,0,0,-4,-9,4,4
4,48,43,-26,-19,46,4,4,0,4,4,9
4,48,43,-26,-19,46,14,4,4,4,9,9
4,58,53,-31,-24,56,24,9,14,19,14,19
9,58,48,-34,-19,53,24,14,19,29,19,24
9,68,58,-39,-24,63,43,19,29,34,24,24
9,73,63,-41,-26,68,48,19,29,34,29,24
19,82,63,-51,-21,73,43,19,39,43,34,34
24,82,58,-53,-17,70,34,14,39,43,34,34
29,82,53,-56,-12,68,24,19,43,48,43,39
43,102,58,-73,-7,80,0,19,43,53,48,48
63,112,48,-87,7,80,-39,9,43,53,48,53
63,102,39,-82,12,70,-82,-4,43,53,48,53
63,97,34,-80,14,65,-87,-14,34,48,43,43
63,87,24,-75,19,56,-102,-24,29,39,39,39
63,87,24,-75,19,56,-97,-24,19,39,39,39
68,87,19,-78,24,53,-102,-19,19,39,39,39
78,92,14,-85,31,53,-102,-14,19,39,43,53
82,92,9,-87,36,51,-97,-9,19,39,48,63
87,92,4,-90,41,48,-97,0,19,43,43,63
82,92,9,-87,36,51,-87,0,19,43,43,63
82,87,4,-85,39,46,-82,0,14,39,43,63
68,68,0,-68,34,34,-73,0,4,34,34,58
43,43,0,-43,21,21,-48,0,4,24,24,48
14,24,9,-19,2,17,-39,-4,4,19,19,39
4,4,0,-4,2,2,-19,-4,9,19,14,24
-9,-19,-9,14,0,-14,-14,-14,4,14,0,19
-9,-14,-4,12,-2,-9,-4,-14,0,9,4,9
-14,-29,-14,21,0,-21,-4,-19,-9,-4,-4,4
-14,-29,-14,21,0,-21,-4,-24,-9,-9,-9,0
-19,-39,-19,29,0,-29,-4,-24,-9,-9,-14,-4
-24,-34,-9,29,-7,-21,0,-9,-4,0,-14,-9
-19,-29,-9,24,-4,-19,14,53,9,4,-9,-9
-9,-4,4,7,-7,0,58,180,87,68,9,0
4,48,43,-26,-19,46,126,361,204,165,63,19
43,156,112,-100,-34,134,185,595,366,292,122,48
112,253,141,-183,-14,197,234,849,517,419,204,97
239,405,165,-322,36,285,248,1210,736,614,331,195
400,580,180,-490,109,380,200,1507,941,834,488,326
600,810,209,-705,195,509,-43,1517,1073,1019,658,502
829,1093,263,-961,283,678,-458,1410,1176,1195,854,727
1019,1424,405,-1222,307,915,-946,1322,1278,1381,1073,961
1141,1629,488,-1385,326,1058,-1444,1073,1263,1415,1205,1146
1298,1756,458,-1527,419,1107,-1922,1024,1146,1405,1293,1293
1376,1693,317,-1534,529,1005,-2074,1141,917,1259,1273,1342
1273,1649,375,-1461,448,1012,-1859,1356,790,1141,1259,1361
1185,1517,331,-1351,427,924,-1561,1390,663,976,1161,1337
951,1259,307,-1105,322,783,-1215,883,424,741,995,1215
531,854,322,-692,104,588,-902,-92,9,370,712,927
297,512,214,-405,41,363,-663,-629,-229,97,453,629
195,258,63,-226,65,161,-439,-551,-234,-34,234,405
63,112,48,-87,7,80,-234,-424,-200,-53,117,239
-4,63,68,-29,-36,65,-136,-287,-175,-53,63,122
-29,19,48,4,-39,34,-78,-214,-131,-58,14,24
-53,-43,9,48,-31,-17,-39,-200,-92,-63,-24,9
-68,-63,4,65,-36,-29,0,-190,-82,-48,-29,9
-82,-48,34,65,-58,-7,14,-161,-82,-39,-24,-4
-73,-39,34,56,-53,-2,4,-165,-78,-34,-19,-4
-68,-53,14,61,-41,-19,4,-170,-73,-34,-19,-9
-68,-53,14,61,-41,-19,9,-165,-68,-39,-19,-14
-68,-53,14,61,-41,-19,19,-156,-68,-39,-19,-14
-68,-53,14,61,-41,-19,24,-151,-68,-39,-19,-19
-68,-53,14,61,-41,-19,24,-151,-63,-34,-19,-19
-58,-53,4,56,-31,-24,29,-146,-63,-34,-24,-14
-43,-53,-9,48,-17,-31,34,-146,-58,-34,-24,-14
-53,-48,4,51,-29,-21,34,-146,-58,-34,-24,-14
-63,-48,14,56,-39,-17,34,-146,-58,-29,-19,-14
-63,-43,19,53,-41,-12,34,-141,-53,-24,-19,-9
-63,-39,24,51,-43,-7,34,-141,-53,-24,-14,-9
-58,-39,19,48,-39,-9,19,-136,-53,-19,-14,-4
-48,-34,14,41,-31,-9,29,-136,-53,-14,-14,-4
-48,-24,24,36,-36,0,19,-136,-43,-9,-9,0
-43,-14,29,29,-36,7,19,-136,-39,-4,-9,0
-39,-14,24,26,-31,4,14,-136,-34,-4,-4,0
-39,-14,24,26,-31,4,9,-136,-34,-4,-4,0
-39,-14,24,26,-31,4,9,-136,-34,-4,-4,4
-39,-14,24,26,-31,4,9,-136,-34,0,0,4
-39,-14,24,26,-31,4,14,-136,-29,0,4,14
-34,0,34,17,-34,17,19,-136,-29,4,14,19
-34,0,34,17,-34,17,24,-136,-29,9,14,24
-34,4,39,14,-36,21,29,-136,-24,9,14,24
-29,4,34,12,-31,19,24,-131,-24,9,19,29
-29,4,34,12,-31,19,24,-131,-24,14,24,29
-24,9,34,7,-29,21,24,-131,-19,14,24,34
-24,9,34,7,-29,21,24,-131,-19,14,24,34
-24,14,39,4,-31,26,19,-136,-19,14,24,34
-24,14,39,4,-31,26,14,-136,-19,14,24,34
-29,14,43,7,-36,29,14,-141,-14,14,24,39
-34,24,58,4,-46,41,19,-141,-14,19,29,39
-34,29,63,2,-48,46,24,-151,-9,19,29,39
-34,29,63,2,-48,46,29,-151,-9,19,29,39
-39,29,68,4,-53,48,34,-156,-9,14,29,39
-43,29,73,7,-58,51,34,-161,-9,9,29,39
-43,43,87,0,-65,65,34,-170,-14,9,29,43
-48,48,97,0,-73,73,39,-180,-14,9,34,43
-48,53,102,-2,-75,78,39,-185,-14,14,34,43
-48,53,102,-2,-75,78,34,-200,-14,14,34,43
-68,53,122,7,-95,87,48,-209,-14,9,34,39
-82,53,136,14,-109,95,48,-229,-24,4,34,39
-73,48,122,12,-97,85,58,-258,-29,-4,24,34
-82,48,131,17,-107,90,73,-287,-34,-14,19,29
-87,48,136,19,-112,92,78,-297,-39,-19,14,24
-97,48,146,24,-122,97,87,-312,-39,-24,14,24
-107,43,151,31,-129,97,82,-341,-58,-34,4,19
-126,39,165,43,-146,102,78,-375,-63,-48,0,19
-141,34,175,53,-158,104,82,-405,-78,-53,-14,14
-165,14,180,75,-173,97,87,-444,-92,-63,-19,4
-175,9,185,82,-180,97,97,-492,-112,-87,-34,0
-190,-4,185,97,-187,90,97,-522,-126,-107,-43,-9
-200,-9,190,104,-195,90,97,-561,-141,-122,-53,-24
-219,-29,190,124,-204,80,97,-605,-165,-141,-63,-34
-229,-43,185,136,-207,70,97,-644,-180,-156,-82,-43
-244,-53,190,148,-217,68,97,-673,-200,-180,-97,-53
-253,-78,175,165,-214,48,97,-707,-209,-195,-112,-68
-273,-97,175,185,-224,39,92,-732,-234,-214,-117,-78
-273,-112,161,192,-217,24,87,-761,-248,-229,-131,-92
-278,-131,146,204,-212,7,78,-766,-258,-239,-141,-102
-283,-151,131,217,-207,-9,73,-775,-273,-258,-151,-107
-283,-161,122,222,-202,-19,73,-775,-287,-268,-161,-112
-283,-175,107,229,-195,-34,73,-761,-292,-273,-170,-122
-283,-180,102,231,-192,-39,68,-746,-292,-283,-180,-122
-268,-190,78,229,-173,-56,48,-722,-292,-283,-180,-131
-263,-195,68,229,-165,-63,34,-673,-283,-283,-180,-131
-244,-190,53,217,-148,-68,39,-624,-268,-273,-180,-131
-219,-185,34,202,-126,-75,43,-580,-248,-263,-170,-126
-204,-175,29,190,-117,-73,39,-536,-239,-248,-170,-126
-170,-161,9,165,-90,-75,48,-463,-195,-229,-151,-117
-151,-151,0,151,-75,-75,34,-405,-185,-214,-151,-107
-136,-141,-4,139,-65,-73,19,-356,-161,-200,-136,-102
-117,-122,-4,119,-56,-63,9,-302,-136,-175,-126,-87
-102,-102,0,102,-51,-51,-4,-244,-112,-151,-107,-78
-82,-92,-9,87,-36,-51,-4,-209,-92,-136,-102,-63
-68,-82,-14,75,-26,-48,-24,-175,-73,-122,-92,-53
-43,-58,-14,51,-14,-36,-19,-151,-53,-107,-82,-39
-29,-43,-14,36,-7,-29,-14,-107,-34,-87,-68,-34
-19,-24,-4,21,-7,-14,-19,-82,-24,-78,-63,-29
-14,-19,-4,17,-4,-12,-24,-68,-14,-68,-48,-24
-4,-9,-4,7,0,-7,-29,-48,4,-58,-48,-24
-4,-9,-4,7,0,-7,-29,-29,9,-48,-39,-19
4,0,-4,-2,4,-2,-34,-19,19,-39,-34,-9
9,4,-4,-7,7,0,-34,-14,19,-39,-29,-9
14,4,-9,-9,12,-2,-34,-9,24,-29,-24,-4
24,9,-14,-17,19,-2,-43,0,29,-24,-24,-4
29,9,-19,-19,24,-4,-48,0,34,-19,-19,-4
34,14,-19,-24,26,-2,-48,4,39,-14,-14,0
29,24,-4,-26,17,9,-43,9,39,-9,-14,0
29,29,0,-29,14,14,-43,9,39,-9,-9,14
24,29,4,-26,9,17,-48,9,39,-4,-4,9
24,34,9,-29,7,21,-48,19,39,-4,-4,4
29,34,4,-31,12,19,-48,19,39,-4,-4,9
29,39,9,-34,9,24,-48,19,39,0,0,9
39,39,0,-39,19,19,-48,19,43,0,0,14
29,43,14,-36,7,29,-53,19,48,0,0,19
29,39,9,-34,9,24,-53,19,48,0,0,19
29,34,4,-31,12,19,-53,19,48,0,0,19
29,34,4,-31,12,19,-58,19,43,0,0,19
34,43,9,-39,12,26,-58,14,39,0,-4,19
34,43,9,-39,12,26,-53,9,39,0,-4,19
29,43,14,-36,7,29,-48,4,39,4,0,19
29,43,14,-36,7,29,-48,4,39,4,0,14
29,43,14,-36,7,29,-48,4,39,4,0,14
29,43,14,-36,7,29,-43,4,39,4,0,14
29,43,14,-36,7,29,-43,0,39,4,4,14
29,43,14,-36,7,29,-43,0,39,4,4,14
29,43,14,-36,7,29,-43,-4,39,4,0,14
19,43,24,-31,-2,34,-43,-4,34,4,0,9
14,43,29,-29,-7,36,-39,-4,34,4,0,9
14,43,29,-29,-7,36,-43,-4,34,0,0,9
14,43,29,-29,-7,36,-43,-4,34,-4,0,9
4,43,39,-24,-17,41,-39,-14,29,-4,0,4
0,43,43,-21,-21,43,-39,-19,29,-4,-4,4
0,39,39,-19,-19,39,-29,-19,29,-4,-4,4
0,39,39,-19,-19,39,-14,-24,24,0,-4,4
0,34,34,-17,-17,34,-14,-24,24,-4,-4,4
-4,34,39,-14,-21,36,-14,-24,24,-4,-9,0
-4,34,39,-14,-21,36,-14,-24,19,-9,-9,0
-4,34,39,-14,-21,36,-9,-24,19,-9,-9,0
-4,34,39,-14,-21,36,-9,-24,19,-9,-9,-4
-4,34,39,-14,-21,36,-9,-24,19,-9,-9,-9
-4,24,29,-9,-17,26,-14,-24,14,-9,-9,-9
-4,19,24,-7,-14,21,-19,-29,14,-9,-9,-14
-14,19,34,-2,-24,26,-14,-29,14,-9,-9,-9
-14,19,34,-2,-24,26,-9,-29,9,-9,-9,-9
-14,19,34,-2,-24,26,-4,-29,9,-9,-9,-9
-19,24,43,-2,-31,34,4,-29,9,-9,-9,-9
-19,24,43,-2,-31,34,4,-29,4,-9,-9,-9
-19,19,39,0,-29,29,4,-29,4,-14,-9,-9
-14,14,29,0,-21,21,4,-29,4,-14,-9,-9
-14,9,24,2,-19,17,4,-24,4,-14,-9,-14
-14,9,24,2,-19,17,0,-24,0,-14,-9,-14
-14,9,24,2,-19,17,-9,-19,-4,-14,-14,-14
-14,14,29,0,-21,21,-14,-19,-4,-14,-14,-14
-14,19,34,-2,-24,26,-19,-19,-4,-14,-14,-14
-14,14,29,0,-21,21,-14,-19,-4,-14,-14,-14
-9,14,24,-2,-17,19,-9,-14,-4,-14,-14,-9
-9,14,24,-2,-17,19,-4,-14,0,-14,-14,-9
-9,14,24,-2,-17,19,0,-14,4,-14,-9,-4
-9,14,24,-2,-17,19,4,-14,4,-9,-9,-4
-9,14,24,-2,-17,19,9,-9,4,-9,-9,-4
-9,9,19,0,-14,14,9,-9,0,-9,-9,-4
-9,9,19,0,-14,14,9,-9,0,-9,-9,-4
-9,4,14,2,-12,9,4,-9,0,-14,-9,-4
-9,4,14,2,-12,9,0,-4,0,-14,-9,-4
-9,4,14,2,-12,9,0,-9,0,-14,-9,-9
-9,4,14,2,-12,9,0,-14,-4,-14,-9,-14
-4,0,4,2,-4,2,0,-9,0,-14,-9,-14
-4,0,4,2,-4,2,0,-9,4,-14,-9,-14
-4,0,4,2,-4,2,0,-9,4,-14,-9,-14
0,0,0,0,0,0,-9,-9,4,-14,-9,-14
0,0,0,0,0,0,-9,-9,4,-14,-9,-14
0,0,0,0,0,0,-9,-9,0,-14,-9,-14
0,0,0,0,0,0,-24,-9,0,-14,-9,-14
0,0,0,0,0,0,-39,-9,0,-14,-4,-14
0,0,0,0,0,0,-39,-9,0,-9,-4,-14
0,0,0,0,0,0,-34,-9,0,-9,-9,-14
0,-4,-4,2,2,-4,-19,-9,0,-9,-9,-14
0,-9,-9,4,4,-9,-9,-9,0,-14,-9,-14
0,-4,-4,2,2,-4,-14,-4,0,-14,-9,-9
-4,0,4,2,-4,2,-14,-4,0,-14,-9,0
-4,4,9,0,-7,7,-9,0,0,-14,-9,0
0,9,9,-4,-4,9,-9,4,0,-9,-4,-4
0,4,4,-2,-2,4,-9,0,0,-9,-4,-4
0,4,4,-2,-2,4,-14,0,0,-9,-9,-9
0,0,0,0,0,0,-14,0,0,-9,-9,-9
0,0,0,0,0,0,-19,0,0,-9,-9,-9
0,0,0,0,0,0,-14,-4,0,-9,-9,-9
0,0,0,0,0,0,-9,-9,0,-9,-9,-9
0,0,0,0,0,0,-9,-9,-4,-9,-9,-9
0,0,0,0,0,0,-9,-9,-9,-9,-9,-9
0,0,0,0,0,0,-14,-9,-9,-9,-9,-9
0,0,0,0,0,0,-19,-9,-9,-9,-9,-9
0,0,0,0,0,0,-24,-9,-9,-9,-9,-9
0,0,0,0,0,0,-29,-9,-9,-9,-9,-9
0,0,0,0,0,0,-29,-9,-9,-9,-14,-9
0,0,0,0,0,0,-29,-9,-9,-9,-19,-9
0,4,4,-2,-2,4,-24,-9,-4,-9,-19,-9
0,4,4,-2,-2,4,-19,-9,0,-9,-14,-9
0,9,9,-4,-4,9,-14,-9,0,-9,-14,-9
0,9,9,-4,-4,9,-9,-9,0,-9,-9,-9
0,9,9,-4,-4,9,-4,-4,0,-9,-9,-9
0,14,14,-7,-7,14,0,0,0,-9,-4,-9
0,14,14,-7,-7,14,-4,0,0,-9,-4,-9
0,14,14,-7,-7,14,-14,0,0,-9,-4,-9
0,14,14,-7,-7,14,-14,0,0,-9,0,-9
0,14,14,-7,-7,14,-9,0,4,-9,4,-4
4,39,34,-21,-14,36,0,4,9,4,4,0
4,39,34,-21,-14,36,14,4,14,4,9,0
4,43,39,-24,-17,41,24,9,24,14,14,9
9,39,29,-24,-9,34,24,14,29,19,19,14
4,53,48,-29,-21,51,39,19,39,24,19,14
0,63,63,-31,-31,63,39,19,39,24,19,14
9,78,68,-43,-29,73,34,24,48,34,24,24
14,82,68,-48,-26,75,24,24,48,34,24,24
19,82,63,-51,-21,73,29,34,53,39,34,29
34,102,68,-68,-17,85,19,39,53,43,39,39
58,112,53,-85,2,82,-19,29,53,43,39,43
63,102,39,-82,12,70,-63,14,53,43,39,43
63,102,39,-82,12,70,-73,0,39,34,34,39
63,97,34,-80,14,65,-92,-14,29,19,29,39
63,97,34,-80,14,65,-92,-19,19,19,34,39
68,97,29,-82,19,63,-102,-19,19,19,39,39
73,102,29,-87,21,65,-107,-9,19,24,43,48
73,102,29,-87,21,65,-107,0,19,29,48,53
82,102,19,-92,31,61,-112,9,19,34,48,53
82,102,19,-92,31,61,-107,9,19,34,53,53
92,107,14,-100,39,61,-102,9,19,29,53,58
87,97,9,-92,39,53,-92,9,14,24,43,58
63,78,14,-70,24,46,-68,14,14,14,34,48
34,63,29,-48,2,46,-58,14,14,9,29,39
19,53,34,-36,-7,43,-39,14,14,9,24,24
0,39,39,-19,-19,39,-34,4,4,4,9,19
-4,34,39,-14,-21,36,-19,0,0,0,4,4
-14,9,24,2,-19,17,-14,-9,-9,-14,-14,-4
-14,0,14,7,-14,7,-14,-14,-14,-24,-19,-9
-19,-19,0,19,-9,-9,-14,-14,-19,-29,-24,-14
-19,-19,0,19,-9,-9,-19,-34,-34,-34,-29,-24
-9,-19,-9,14,0,-14,-14,-4,-39,-43,-29,-29
-14,-14,0,14,-7,-7,19,92,19,-4,-19,-24
-14,19,34,-2,-24,26,78,244,117,68,24,-9
0,102,102,-51,-51,102,146,439,239,175,63,9
43,175,131,-109,-43,153,204,653,351,283,126,48
156,312,156,-234,0,234,283,1107,580,458,229,112
302,473,170,-387,65,322,297,1498,795,658,361,209
502,658,156,-580,173,407,151,1590,932,829,512,356
732,897,165,-814,283,531,-165,1566,1039,990,688,551
951,1288,336,-1119,307,812,-653,1493,1215,1244,941,810
1102,1551,448,-1327,326,1000,-1151,1259,1273,1346,1107,1019
1317,1722,405,-1520,456,1063,-1825,1098,1180,1366,1215,1200
1454,1703,248,-1578,602,976,-2171,1102,976,1249,1215,1283
1405,1737,331,-1571,536,1034,-2020,1527,883,1185,1254,1337
1371,1683,312,-1527,529,997,-1786,1771,790,1073,1210,1346
1151,1478,326,-1315,412,902,-1410,1288,590,883,1098,1307
746,1127,380,-936,183,753,-1068,336,214,556,868,1102
453,722,268,-588,92,495,-829,-444,-122,204,575,771
292,405,112,-348,90,258,-605,-610,-224,-4,322,512
141,219,78,-180,31,148,-336,-483,-200,-34,180,336
53,131,78,-92,-12,104,-175,-346,-185,-43,102,209
19,82,63,-51,-21,73,-112,-253,-136,-58,39,68
-14,14,29,0,-21,21,-68,-219,-92,-73,-14,9
-43,-19,24,31,-34,2,-24,-209,-82,-63,-29,9
-73,-19,53,46,-63,17,-4,-180,-82,-58,-34,-4
-63,-9,53,36,-58,21,-14,-175,-78,-53,-29,-4
-58,-24,34,41,-46,4,-14,-170,-73,-53,-29,-9
-58,-24,34,41,-46,4,-9,-165,-68,-53,-29,-14
-58,-24,34,41,-46,4,0,-156,-68,-48,-29,-14
-53,-24,29,39,-41,2,9,-146,-68,-53,-29,-24
-48,-24,24,36,-36,0,14,-141,-63,-53,-29,-29
-48,-24,24,36,-36,0,19,-136,-63,-53,-34,-24
-43,-24,19,34,-31,-2,24,-136,-58,-53,-34,-24
-43,-19,24,31,-34,2,14,-136,-58,-53,-34,-24
-43,-19,24,31,-34,2,4,-136,-58,-48,-29,-24
-48,-19,29,34,-39,4,4,-131,-53,-43,-29,-19
-53,-19,34,36,-43,7,4,-131,-53,-43,-24,-19
-53,-19,34,36,-43,7,-4,-126,-53,-39,-24,-14
-48,-14,34,31,-41,9,9,-126,-53,-34,-24,-14
-48,-4,43,26,-46,19,4,-126,-43,-29,-14,-9
-43,4,48,19,-46,26,9,-126,-39,-24,-9,-9
-39,4,43,17,-41,24,9,-131,-34,-24,-4,-9
-39,4,43,17,-41,24,9,-136,-34,-24,-4,-9
-39,4,43,17,-41,24,9,-136,-39,-24,-9,-4
-39,4,43,17,-41,24,9,-136,-43,-19,-9,-4
-39,4,43,17,-41,24,9,-136,-39,-19,-9,0
-34,19,53,7,-43,36,9,-136,-39,-14,-4,0
-34,19,53,7,-43,36,4,-136,-39,-9,0,4
-34,24,58,4,-46,41,0,-136,-34,-9,4,4
-29,24,53,2,-41,39,-4,-131,-34,-9,9,9
-29,24,53,2,-41,39,-4,-131,-34,-4,14,9
-24,29,53,-2,-39,41,0,-136,-29,-4,14,14
-24,29,53,-2,-39,41,4,-141,-29,-4,14,14
-24,34,58,-4,-41,46,4,-146,-29,-4,14,14
-24,34,58,-4,-41,46,4,-146,-29,-4,14,14
-24,34,58,-4,-41,46,4,-146,-19,-4,14,19
-24,43,68,-9,-46,56,9,-141,-14,0,19,19
-24,48,73,-12,-48,61,9,-151,-9,0,24,19
-24,48,73,-12,-48,61,9,-151,-9,0,29,19
-24,53,78,-14,-51,65,14,-156,-9,0,29,24
-24,58,82,-17,-53,70,14,-161,-9,0,29,29
-24,68,92,-21,-58,80,14,-165,-14,0,24,34
-29,68,97,-19,-63,82,19,-170,-14,0,24,34
-34,73,107,-19,-70,90,24,-180,-14,0,24,34
-39,73,112,-17,-75,92,24,-200,-14,-4,24,34
-48,78,126,-14,-87,102,39,-209,-14,-4,29,29
-53,82,136,-14,-95,109,39,-229,-24,-4,34,29
-48,78,126,-14,-87,102,43,-244,-24,-9,24,24
-63,78,141,-7,-102,109,53,-258,-24,-14,19,19
-68,78,146,-4,-107,112,58,-278,-29,-19,14,14
-78,78,156,0,-117,117,68,-302,-29,-24,14,14
-87,73,161,7,-124,117,73,-331,-53,-39,4,4
-107,68,175,19,-141,122,78,-366,-63,-58,0,0
-117,68,185,24,-151,126,82,-395,-78,-63,-14,-4
-136,53,190,41,-163,122,87,-434,-92,-73,-19,-14
-146,48,195,48,-170,122,102,-483,-102,-92,-29,-14
-161,34,195,63,-178,114,107,-512,-107,-107,-34,-19
-175,24,200,75,-187,112,107,-551,-122,-122,-43,-29
-200,0,200,100,-200,100,107,-595,-146,-141,-53,-34
-214,-19,195,117,-204,87,107,-634,-161,-156,-73,-43
-234,-34,200,134,-217,82,107,-663,-180,-180,-87,-53
-244,-53,190,148,-217,68,107,-697,-190,-195,-102,-68
-263,-68,195,165,-229,63,102,-722,-214,-214,-107,-78
-263,-82,180,173,-222,48,102,-756,-229,-229,-126,-92
-268,-102,165,185,-217,31,97,-766,-239,-239,-141,-102
-273,-122,151,197,-212,14,92,-780,-253,-258,-151,-112
-273,-131,141,202,-207,4,92,-785,-268,-268,-161,-122
-278,-146,131,212,-204,-7,92,-780,-278,-273,-170,-131
-283,-151,131,217,-207,-9,87,-775,-283,-283,-180,-131
-268,-161,107,214,-187,-26,78,-761,-287,-287,-180,-141
-263,-165,97,214,-180,-34,73,-722,-283,-292,-180,-141
-244,-165,78,204,-161,-43,68,-673,-273,-287,-185,-146
-219,-165,53,192,-136,-56,63,-629,-258,-283,-180,-146
-204,-156,48,180,-126,-53,43,-585,-253,-268,-180,-146
-170,-141,29,156,-100,-56,39,-512,-214,-248,-161,-136
-151,-131,19,141,-85,-56,34,-453,-204,-234,-161,-126
-136,-122,14,129,-75,-53,29,-405,-180,-219,-146,-122
-112,-102,9,107,-61,-46,24,-351,-156,-195,-136,-107
-92,-82,9,87,-51,-36,14,-292,-131,-170,-117,-97
-68,-68,0,68,-34,-34,14,-248,-112,-156,-112,-87
-48,-53,-4,51,-21,-29,-4,-204,-92,-141,-102,-82
-24,-29,-4,26,-9,-17,-4,-180,-73,-126,-92,-68
-9,-14,-4,12,-2,-9,-4,-136,-53,-107,-78,-63
0,0,0,0,0,0,-4,-112,-43,-97,-73,-58
4,0,-4,-2,4,-2,-4,-97,-34,-87,-58,-53
14,9,-4,-12,9,2,-9,-78,-14,-82,-58,-48
14,9,-4,-12,9,2,-9,-58,-9,-78,-48,-39
24,19,-4,-21,14,7,-19,-48,0,-68,-43,-29
29,24,-4,-26,17,9,-24,-43,0,-68,-39,-29
39,29,-9,-34,24,9,-24,-29,4,-58,-34,-24
53,39,-14,-46,34,12,-34,-9,9,-53,-34,-24
53,39,-14,-46,34,12,-39,-9,14,-48,-29,-24
53,43,-9,-48,31,17,-39,-4,19,-43,-24,-19
48,48,0,-48,24,24,-39,0,19,-34,-19,-19
48,48,0,-48,24,24,-43,0,19,-29,-9,-4
48,48,0,-48,24,24,-48,0,24,-24,-4,-4
53,53,0,-53,26,26,-48,9,29,-24,-4,-4
58,53,-4,-56,31,24,-43,9,29,-24,-9,0
58,58,0,-58,29,29,-39,9,29,-19,-9,0
68,58,-9,-63,39,24,-39,9,34,-19,-9,0
58,63,4,-61,26,34,-43,9,39,-19,-9,0
58,63,4,-61,26,34,-43,9,39,-14,-4,0
58,63,4,-61,26,34,-43,9,39,-9,0,0
53,58,4,-56,24,31,-48,9,39,-9,4,4
53,63,9,-58,21,36,-48,4,39,-9,4,9
53,58,4,-56,24,31,-43,4,39,-9,0,9
48,53,4,-51,21,29,-39,4,39,-4,0,9
48,53,4,-51,21,29,-39,4,39,-4,0,9
48,53,4,-51,21,29,-39,4,39,-4,0,14
48,53,4,-51,21,29,-34,4,39,-4,0,14
48,53,4,-51,21,29,-34,0,39,-4,4,14
48,53,4,-51,21,29,-34,0,39,-4,4,14
48,53,4,-51,21,29,-34,-4,39,-4,0,14
43,58,14,-51,14,36,-34,-4,34,-4,0,9
43,63,19,-53,12,41,-29,-4,34,-4,0,9
48,63,14,-56,17,39,-29,-4,34,-4,0,9
53,63,9,-58,21,36,-24,-4,34,-4,0,9
43,58,14,-51,14,36,-24,-14,29,-9,0,4
39,53,14,-46,12,34,-29,-19,29,-14,-4,4
24,48,24,-36,0,36,-29,-19,29,-19,-4,4
9,48,39,-29,-14,43,-24,-24,24,-19,-4,4
14,43,29,-29,-7,36,-24,-24,24,-24,-4,4
14,43,29,-29,-7,36,-24,-24,24,-24,-9,0
14,43,29,-29,-7,36,-24,-24,19,-29,-9,-4
14,43,29,-29,-7,36,-19,-24,19,-29,-9,-9
14,43,29,-29,-7,36,-24,-24,19,-29,-9,-9
14,43,29,-29,-7,36,-29,-24,19,-29,-9,-9
14,34,19,-24,-2,26,-29,-24,14,-29,-9,-9
14,29,14,-21,0,21,-29,-29,14,-29,-9,-14
0,29,29,-14,-14,29,-19,-29,14,-29,-9,-14
-4,29,34,-12,-19,31,-9,-29,9,-29,-9,-19
0,29,29,-14,-14,29,-9,-24,9,-29,-9,-14
0,34,34,-17,-17,34,-4,-19,9,-29,-9,-9
0,34,34,-17,-17,34,-4,-19,4,-24,-9,-9
0,29,29,-14,-14,29,-4,-19,4,-24,-9,-9
0,24,24,-12,-12,24,0,-19,4,-24,-9,-9
-4,19,24,-7,-14,21,4,-14,4,-24,-9,-14
-4,19,24,-7,-14,21,9,-14,4,-24,-9,-14
-4,19,24,-7,-14,21,9,-9,4,-24,-14,-14
0,19,19,-9,-9,19,4,-9,4,-24,-9,-14
4,19,14,-12,-4,17,0,-9,4,-24,-4,-14
0,14,14,-7,-7,14,-4,-9,0,-24,-4,-9
0,14,14,-7,-7,14,-9,-4,-4,-24,-4,0
-4,9,14,-2,-9,12,-4,-4,-4,-24,-9,-9
-9,4,14,2,-12,9,0,-4,-4,-24,-9,-14
-9,4,14,2,-12,9,0,-4,-4,-19,-9,-14
-9,4,14,2,-12,9,0,0,-4,-19,-9,-14
-9,0,9,4,-9,4,0,0,-4,-19,-9,-14
-9,0,9,4,-9,4,0,0,0,-19,-9,-14
-9,0,9,4,-9,4,0,0,0,-19,-9,-9
-9,4,14,2,-12,9,0,4,0,-14,-9,-4
-4,9,14,-2,-9,12,0,4,4,-9,-4,-4
0,14,14,-7,-7,14,0,4,4,-4,0,-4
0,9,9,-4,-4,9,4,9,4,-4,0,-4
-4,9,14,-2,-9,12,9,9,4,-4,0,-4
-9,9,19,0,-14,14,9,4,4,-4,0,-4
-9,9,19,0,-14,14,0,0,4,-4,0,-4
-9,9,19,0,-14,14,0,0,9,-4,0,-4
-9,9,19,0,-14,14,0,0,9,-4,0,-4
-9,9,19,0,-14,14,0,4,9,-9,0,0
-9,9,19,0,-14,14,0,9,9,-14,4,4
-9,9,19,0,-14,14,0,9,9,-9,4,4
-9,9,19,0,-14,14,4,9,9,-9,0,4
-4,9,14,-2,-9,12,9,9,9,-4,0,4
0,9,9,-4,-4,9,9,9,9,-4,0,4
0,9,9,-4,-4,9,0,14,9,-4,0,4
-4,9,14,-2,-9,12,-4,14,9,-4,0,9
-4,9,14,-2,-9,12,0,14,9,-4,0,9
0,9,9,-4,-4,9,0,14,9,0,4,4
0,9,9,-4,-4,9,0,9,9,0,0,0
0,14,14,-7,-7,14,4,9,9,0,0,0
0,9,9,-4,-4,9,0,9,9,0,0,0
0,9,9,-4,-4,9,0,9,9,0,0,0
0,9,9,-4,-4,9,0,9,9,0,0,0
0,9,9,-4,-4,9,0,9,9,0,0,0
0,9,9,-4,-4,9,0,9,9,0,0,0
0,9,9,-4,-4,9,0,9,9,0,0,0
0,9,9,-4,-4,9,4,9,9,0,0,0
0,9,9,-4,-4,9,9,9,9,0,0,0
0,9,9,-4,-4,9,9,4,9,0,0,0
0,9,9,-4,-4,9,9,0,9,0,0,0
0,9,9,-4,-4,9,4,0,4,-4,0,0
0,9,9,-4,-4,9,0,0,0,-9,0,0
0,9,9,-4,-4,9,-4,0,0,-9,0,0
0,9,9,-4,-4,9,-9,0,0,-9,0,0
0,14,14,-7,-7,14,-9,0,0,-9,0,0
0,14,14,-7,-7,14,-9,0,0,-9,0,0
0,19,19,-9,-9,19,-9,0,0,-9,0,0
0,19,19,-9,-9,19,-4,0,0,-9,0,0
0,24,24,-12,-12,24,0,0,0,-4,4,0
0,24,24,-12,-12,24,0,0,0,0,4,0
-4,24,29,-9,-17,26,-4,0,0,0,4,0
-9,24,34,-7,-21,29,-4,0,0,0,9,0
-9,24,34,-7,-21,29,-9,0,4,0,14,4
-4,48,53,-21,-29,51,-9,4,9,14,14,9
0,48,48,-24,-24,48,14,4,14,14,19,9
4,58,53,-31,-24,56,34,9,24,24,24,19
9,53,43,-31,-17,48,39,19,29,29,29,24
9,63,53,-36,-21,58,58,29,39,34,34,24
9,73,63,-41,-26,68,58,29,39,34,39,24
19,87,68,-53,-24,78,53,34,48,43,43,34
24,97,73,-61,-24,85,43,29,48,43,43,34
29,102,73,-65,-21,87,39,29,53,48,53,39
39,122,82,-80,-21,102,19,29,53,48,58,43
53,131,78,-92,-12,104,-19,19,53,43,58,43
53,117,63,-85,-4,90,-63,9,48,39,53,43
53,112,58,-82,-2,85,-68,4,34,29,43,39
53,107,53,-80,0,80,-87,0,29,19,39,43
53,107,53,-80,0,80,-92,0,19,19,39,48
58,107,48,-82,4,78,-102,0,24,24,43,48
68,112,43,-90,12,78,-107,4,29,29,53,58
73,112,39,-92,17,75,-107,9,29,29,58,63
82,112,29,-97,26,70,-107,19,29,34,58,63
82,112,29,-97,26,70,-97,19,29,34,63,63
82,107,24,-95,29,65,-92,19,24,29,63,63
68,87,19,-78,24,53,-87,19,19,24,53,58
43,68,24,-56,9,46,-68,19,24,14,43,48
14,53,39,-34,-12,46,-58,14,24,9,39,39
4,43,39,-24,-17,41,-39,14,24,9,34,24
-9,24,34,-7,-21,29,-34,4,14,4,19,19
-14,14,29,0,-21,21,-24,4,9,0,19,9
-24,-9,14,17,-19,2,-24,0,-4,-14,4,4
-24,-9,14,17,-19,2,-24,-4,-9,-19,0,0
-29,-19,9,24,-19,-4,-19,0,-9,-19,-4,-4
-29,-19,9,24,-19,-4,-9,14,-9,-14,-4,-9
-19,-19,0,19,-9,-9,19,82,14,-4,4,-4
-9,0,9,4,-9,4,68,219,102,58,24,4
19,58,39,-39,-9,48,117,405,214,146,78,19
68,165,97,-117,-14,131,175,644,361,273,141,48
131,258,126,-195,2,192,224,912,497,409,224,102
258,409,151,-334,53,280,239,1307,717,600,336,195
424,585,161,-505,131,373,180,1595,912,795,483,326
629,819,190,-724,219,505,-48,1600,1039,971,658,502
858,1102,244,-980,307,673,-429,1503,1146,1146,854,717
1054,1449,395,-1251,329,922,-917,1415,1278,1351,1083,961
1180,1659,478,-1420,351,1068,-1395,1210,1278,1390,1210,1146
1346,1781,434,-1564,456,1107,-1912,1156,1146,1376,1288,1293
1410,1703,292,-1556,558,997,-2083,1224,912,1229,1268,1342
1302,1654,351,-1478,475,1002,-1849,1468,790,1117,1259,1356
1215,1532,317,-1373,448,924,-1586,1464,658,956,1151,1327
951,1288,336,-1119,307,812,-1234,844,414,732,985,1210
541,902,361,-722,90,631,-902,-92,34,395,732,936
312,541,229,-427,41,385,-663,-605,-200,112,473,639
200,283,82,-241,58,183,-453,-556,-209,-29,253,419
73,146,73,-109,0,109,-258,-414,-170,-34,141,258
4,97,92,-51,-43,95,-161,-278,-156,-34,87,141
-19,53,73,-17,-46,63,-102,-204,-112,-48,39,29
-39,-14,24,26,-31,4,-58,-190,-82,-68,-4,0
-53,-34,19,43,-36,-7,-19,-180,-82,-63,-14,0
-73,-19,53,46,-63,17,-4,-151,-82,-58,-14,-14
-63,-9,53,36,-58,21,-14,-151,-78,-53,-9,-14
-58,-19,39,39,-48,9,-14,-151,-73,-48,-9,-14
-58,-14,43,36,-51,14,-9,-146,-68,-43,-9,-14
-58,-14,43,36,-51,14,0,-141,-68,-39,-9,-14
-58,-14,43,36,-51,14,4,-141,-68,-39,-9,-19
-58,-14,43,36,-51,14,4,-141,-58,-34,-9,-19
-58,-14,43,36,-51,14,9,-136,-53,-34,-14,-14
-53,-14,39,34,-46,12,14,-136,-48,-34,-14,-14
-53,-9,43,31,-48,17,14,-136,-48,-34,-14,-14
-53,-9,43,31,-48,17,14,-136,-53,-29,-9,-14
-53,-9,43,31,-48,17,14,-131,-53,-24,-9,-9
-53,-9,43,31,-48,17,14,-131,-53,-24,-4,-14
-53,-9,43,31,-48,17,4,-126,-53,-24,-4,-14
-48,-9,39,29,-43,14,19,-126,-53,-24,-4,-14
-48,-4,43,26,-46,19,9,-126,-48,-19,0,-9
-48,4,53,21,-51,29,9,-122,-48,-19,-4,-9
-48,4,53,21,-51,29,9,-117,-43,-24,-4,-9
-53,0,53,26,-53,26,9,-117,-43,-24,-4,-9
-58,-4,53,31,-56,24,9,-117,-43,-24,-4,-4
-58,-4,53,31,-56,24,9,-117,-43,-24,0,-4
-58,-4,53,31,-56,24,9,-117,-39,-29,0,0
-48,9,58,19,-53,34,9,-117,-39,-24,4,0
-43,9,53,17,-48,31,9,-117,-39,-19,4,4
-43,14,58,14,-51,36,4,-117,-34,-19,0,0
-39,14,53,12,-46,34,-4,-112,-34,-19,0,0
-39,14,53,12,-46,34,-4,-112,-39,-14,4,0
-34,19,53,7,-43,36,-4,-112,-39,-14,4,4
-34,19,53,7,-43,36,9,-107,-39,-14,4,4
-34,24,58,4,-46,41,24,-107,-39,-14,4,4
-39,24,63,7,-51,43,14,-107,-43,-19,0,4
-43,24,68,9,-56,46,4,-112,-43,-24,-4,9
-43,29,73,7,-58,51,9,-112,-43,-19,0,9
-43,29,73,7,-58,51,9,-122,-39,-19,0,9
-39,29,68,4,-53,48,14,-126,-39,-19,0,9
-39,29,68,4,-53,48,24,-136,-39,-19,0,9
-43,29,73,7,-58,51,24,-141,-39,-19,0,9
-43,39,82,2,-63,61,24,-146,-43,-19,0,14
-48,39,87,4,-68,63,29,-151,-43,-19,4,14
-48,43,92,2,-70,68,39,-156,-43,-19,4,14
-48,43,92,2,-70,68,43,-170,-43,-24,4,14
-58,43,102,7,-80,73,58,-180,-43,-29,4,9
-63,43,107,9,-85,75,58,-200,-53,-34,4,0
-63,39,102,12,-82,70,63,-219,-58,-39,-4,-9
-82,39,122,21,-102,80,73,-239,-63,-43,-9,-9
-87,39,126,24,-107,82,78,-258,-68,-48,-14,-14
-97,39,136,29,-117,87,82,-283,-68,-53,-14,-9
-107,34,141,36,-124,87,78,-312,-87,-68,-24,-14
-126,24,151,51,-139,87,78,-346,-92,-87,-29,-19
-136,19,156,58,-146,87,82,-375,-107,-92,-43,-24
-156,4,161,75,-158,82,92,-414,-122,-97,-48,-39
-165,0,165,82,-165,82,107,-463,-141,-112,-58,-48
-180,-19,161,100,-170,70,107,-492,-156,-126,-68,-58
-195,-29,165,112,-180,68,107,-531,-170,-141,-82,-68
-219,-48,170,134,-195,61,102,-570,-195,-161,-92,-73
-229,-63,165,146,-197,51,97,-605,-209,-175,-112,-82
-244,-73,170,158,-207,48,97,-634,-229,-200,-126,-92
-253,-92,161,173,-207,34,97,-668,-239,-214,-141,-107
-273,-107,165,190,-219,29,97,-692,-263,-234,-141,-117
-273,-122,151,197,-212,14,102,-722,-278,-248,-156,-131
-278,-141,136,209,-207,-2,97,-727,-287,-258,-170,-141
-283,-161,122,222,-202,-19,92,-736,-302,-278,-180,-151
-283,-165,117,224,-200,-24,78,-736,-317,-287,-190,-161
-283,-175,107,229,-195,-34,63,-727,-322,-292,-200,-170
-278,-180,97,229,-187,-41,58,-712,-322,-302,-209,-170
-258,-190,68,224,-163,-61,48,-688,-322,-302,-209,-180
-253,-195,58,224,-156,-68,43,-644,-307,-292,-209,-180
-234,-195,39,214,-136,-78,39,-595,-292,-273,-209,-180
-209,-190,19,200,-114,-85,43,-551,-278,-263,-200,-175
-195,-175,19,185,-107,-78,39,-507,-268,-248,-200,-175
-161,-161,0,161,-80,-80,39,-434,-224,-229,-180,-165
-141,-151,-9,146,-65,-80,34,-375,-214,-214,-180,-156
-126,-141,-14,134,-56,-78,29,-326,-190,-200,-165,-151
-102,-122,-19,112,-41,-70,24,-273,-165,-175,-156,-136
-82,-102,-19,92,-31,-61,14,-214,-141,-151,-136,-126
-63,-87,-24,75,-19,-56,14,-180,-122,-136,-131,-117
-53,-73,-19,63,-17,-46,0,-146,-102,-122,-122,-107
-34,-48,-14,41,-9,-31,0,-122,-82,-107,-112,-87
-19,-34,-14,26,-2,-24,-4,-87,-63,-87,-97,-82
-9,-19,-9,14,0,-14,-9,-73,-53,-78,-92,-78
-4,-19,-14,12,4,-17,-19,-58,-43,-68,-78,-78
4,-9,-14,2,9,-12,-29,-39,-24,-58,-78,-78
4,-9,-14,2,9,-12,-29,-19,-19,-48,-73,-68
14,0,-14,-7,14,-7,-34,-9,-9,-39,-73,-58
19,4,-14,-12,17,-4,-34,-4,-9,-39,-68,-58
24,9,-14,-17,19,-2,-34,4,-4,-29,-63,-53
34,19,-14,-26,24,2,-43,19,0,-24,-63,-53
34,19,-14,-26,24,2,-48,19,4,-19,-58,-53
39,29,-9,-34,24,9,-58,24,9,-14,-48,-48
39,39,0,-39,19,19,-63,29,9,-9,-43,-48
39,39,0,-39,19,19,-53,24,9,-9,-39,-34
39,39,0,-39,19,19,-48,19,14,-4,-34,-34
43,43,0,-43,21,21,-48,29,19,-4,-34,-34
48,43,-4,-46,26,19,-48,29,19,-4,-34,-29
48,53,4,-51,21,29,-53,29,19,4,-24,-24
58,58,0,-58,29,29,-58,29,19,9,-19,-19
48,63,14,-56,17,39,-63,29,19,9,-19,-19
48,63,14,-56,17,39,-63,29,19,9,-19,-19
48,63,14,-56,17,39,-58,29,19,9,-19,-14
48,63,14,-56,17,39,-58,29,19,9,-14,-9
53,73,19,-63,17,46,-58,24,19,9,-14,-9
53,73,19,-63,17,46,-58,24,19,9,-14,-9
48,73,24,-61,12,48,-58,24,19,9,-9,-9
48,73,24,-61,12,48,-58,24,19,4,-9,-9
48,78,29,-63,9,53,-58,24,19,4,-9,-4
48,82,34,-65,7,58,-53,24,19,4,-9,-4
48,82,34,-65,7,58,-53,19,19,4,-4,-4
48,82,34,-65,7,58,-53,19,19,4,-4,-4
48,78,29,-63,9,53,-53,14,19,4,-4,-4
43,73,29,-58,7,51,-53,9,14,4,0,-9
43,73,29,-58,7,51,-48,4,14,4,0,-9
43,73,29,-58,7,51,-48,4,14,4,0,-9
43,73,29,-58,7,51,-48,4,14,4,0,-9
34,73,39,-53,-2,56,-48,0,9,4,0,-14
34,82,48,-58,-7,65,-48,0,9,4,-4,-14
39,87,48,-63,-4,68,-48,0,9,0,-4,-14
39,87,48,-63,-4,68,-43,-14,4,4,-4,-14
34,82,48,-58,-7,65,-43,-24,4,4,-4,-14
24,82,58,-53,-17,70,-43,-29,4,4,-4,-19
24,82,58,-53,-17,70,-43,-34,0,0,0,-19
29,87,58,-58,-14,73,-43,-34,0,0,0,-14
34,92,58,-63,-12,75,-48,-34,0,0,0,-9
34,92,58,-63,-12,75,-48,-34,0,0,0,-9
34,87,53,-61,-9,70,-48,-34,-4,0,0,-9
34,92,58,-63,-12,75,-48,-34,0,4,4,-9
24,97,73,-61,-24,85,-43,-29,4,9,9,-4
14,97,82,-56,-34,90,-39,-29,0,9,9,-9
9,92,82,-51,-36,87,-39,-29,0,9,9,-9
9,92,82,-51,-36,87,-34,-29,0,9,9,-9
9,92,82,-51,-36,87,-34,-29,-4,9,9,-9
9,87,78,-48,-34,82,-34,-29,-4,4,9,-9
9,87,78,-48,-34,82,-29,-29,-4,4,9,-4
4,87,82,-46,-39,85,-24,-29,-4,4,9,-4
4,87,82,-46,-39,85,-24,-34,-4,4,9,-4
9,87,78,-48,-34,82,-24,-29,-4,4,4,-4
14,87,73,-51,-29,80,-24,-29,-4,4,4,-4
14,87,73,-51,-29,80,-24,-24,0,4,4,-4
9,82,73,-46,-31,78,-19,-19,4,4,4,-9
4,82,78,-43,-36,80,-19,-14,4,4,4,-9
0,82,82,-41,-41,82,-14,-14,4,4,4,-9
0,82,82,-41,-41,82,-9,-14,4,4,9,-4
0,82,82,-41,-41,82,-4,-14,4,9,9,-4
0,82,82,-41,-41,82,0,-9,4,9,9,-4
0,78,78,-39,-39,78,0,-9,4,9,9,-4
-4,78,82,-36,-43,80,0,-9,9,9,9,-4
-9,73,82,-31,-46,78,0,-9,9,9,9,-4
-9,78,87,-34,-48,82,0,-4,9,14,9,-4
-9,82,92,-36,-51,87,0,-4,9,14,9,-4
-9,82,92,-36,-51,87,0,-4,4,14,9,-4
-9,78,87,-34,-48,82,0,0,4,14,9,-4
-14,73,87,-29,-51,80,0,0,4,14,9,0
-14,68,82,-26,-48,75,0,0,4,14,9,4
-9,68,78,-29,-43,73,-9,0,4,14,9,4
-9,68,78,-29,-43,73,-9,0,9,14,9,4
-9,73,82,-31,-46,78,-9,0,9,14,9,4
-9,78,87,-34,-48,82,-9,0,9,14,9,4
-9,78,87,-34,-48,82,-9,0,9,9,14,4
-9,78,87,-34,-48,82,-9,0,9,9,14,4
-9,73,82,-31,-46,78,-4,0,9,9,9,4
-9,63,73,-26,-41,68,0,0,9,9,9,4
-9,58,68,-24,-39,63,0,0,9,4,9,0
-9,58,68,-24,-39,63,-4,4,9,4,9,-4
-14,58,73,-21,-43,65,-14,0,9,4,9,0
-14,58,73,-21,-43,65,-19,-4,9,4,9,0
-14,58,73,-21,-43,65,-19,-4,9,4,9,-4
-9,58,68,-24,-39,63,-14,-4,14,9,4,0
-4,63,68,-29,-36,65,-9,0,9,4,0,0
0,68,68,-34,-34,68,-9,0,9,0,0,0
0,68,68,-34,-34,68,-9,0,4,0,0,0
0,68,68,-34,-34,68,-9,0,0,0,0,0
0,63,63,-31,-31,63,-9,0,0,0,0,0
0,58,58,-29,-29,58,-9,0,0,0,0,0
-4,53,58,-24,-31,56,-24,0,0,0,0,0
-9,48,58,-19,-34,53,-39,0,0,0,0,0
-9,48,58,-19,-34,53,-24,0,-4,0,0,0
-9,48,58,-19,-34,53,-9,0,-9,0,0,0
-4,43,48,-19,-26,46,-9,-4,-9,-4,-4,0
0,39,39,-19,-19,39,-9,-9,-9,-9,-9,0
0,39,39,-19,-19,39,-9,-9,-9,-9,-9,0
0,39,39,-19,-19,39,-9,-9,-9,-9,-9,0
0,39,39,-19,-19,39,-4,-4,-4,-4,-4,0
0,39,39,-19,-19,39,0,0,0,0,0,0
0,39,39,-19,-19,39,0,0,0,0,0,0
