I, II, III, aVR, aVL, aVF, V1, V2, V3, V4, V5, V6
-48,-78,-29,63,-9,-53,19,-19,-9,-39,-39,9
-48,-78,-29,63,-9,-53,19,-19,-9,-39,-39,9
-48,-78,-29,63,-9,-53,19,-19,-9,-39,-39,9
-48,-78,-29,63,-9,-53,19,-19,-9,-39,-39,9
-58,-68,-9,63,-24,-39,19,-19,-9,-48,-48,9
-58,-68,-9,63,-24,-39,19,-19,-9,-48,-48,9
-58,-68,-9,63,-24,-39,19,-19,-9,-48,-48,9
-58,-68,-9,63,-24,-39,19,-19,-9,-48,-48,9
-48,-78,-29,63,-9,-53,19,-19,-9,-39,-39,9
-48,-78,-29,63,-9,-53,19,-19,-9,-39,-39,9
-48,-78,-29,63,-9,-53,19,-19,-9,-39,-39,9
-48,-78,-29,63,-9,-53,19,-19,-9,-39,-39,9
-58,-68,-9,63,-24,-39,19,-19,-9,-39,-29,9
-58,-68,-9,63,-24,-39,19,-19,-9,-39,-29,9
-58,-68,-9,63,-24,-39,19,-19,-9,-39,-29,9
-58,-68,-9,63,-24,-39,19,-19,-9,-39,-29,9
-48,-78,-29,63,-9,-53,29,-9,0,-29,-29,9
-48,-78,-29,63,-9,-53,29,-9,0,-29,-29,9
-48,-78,-29,63,-9,-53,29,-9,0,-29,-29,9
-48,-78,-29,63,-9,-53,29,-9,0,-29,-29,9
-58,-68,-9,63,-24,-39,39,0,0,-29,-39,9
-58,-68,-9,63,-24,-39,39,0,0,-29,-39,9
-58,-68,-9,63,-24,-39,39,0,0,-29,-39,9
-58,-68,-9,63,-24,-39,39,0,0,-29,-39,9
-58,-78,-19,68,-19,-48,39,0,0,-29,-29,9
-58,-78,-19,68,-19,-48,39,0,0,-29,-29,9
-58,-78,-19,68,-19,-48,39,0,0,-29,-29,9
-58,-78,-19,68,-19,-48,39,0,0,-29,-29,9
-58,-78,-19,68,-19,-48,39,0,0,-39,-39,0
-58,-78,-19,68,-19,-48,39,0,0,-39,-39,0
-58,-78,-19,68,-19,-48,39,0,0,-39,-39,0
-58,-78,-19,68,-19,-48,39,0,0,-39,-39,0
-48,-78,-29,63,-9,-53,29,0,0,-39,-39,0
-48,-78,-29,63,-9,-53,29,0,0,-39,-39,0
-48,-78,-29,63,-9,-53,29,0,0,-39,-39,0
-48,-78,-29,63,-9,-53,29,0,0,-39,-39,0
-58,-78,-19,68,-19,-48,39,0,9,-39,-39,0
-58,-78,-19,68,-19,-48,39,0,9,-39,-39,0
-58,-78,-19,68,-19,-48,39,0,9,-39,-39,0
-58,-78,-19,68,-19,-48,39,0,9,-39,-39,0
-58,-78,-19,68,-19,-48,39,0,0,-39,-48,-9
-58,-78,-19,68,-19,-48,39,0,0,-39,-48,-9
-58,-78,-19,68,-19,-48,39,0,0,-39,-48,-9
-58,-78,-19,68,-19,-48,39,0,0,-39,-48,-9
-68,-78,-9,73,-29,-43,29,-9,-9,-48,-58,-9
-68,-78,-9,73,-29,-43,29,-9,-9,-48,-58,-9
-68,-78,-9,73,-29,-43,29,-9,-9,-48,-58,-9
-68,-78,-9,73,-29,-43,29,-9,-9,-48,-58,-9
-68,-78,-9,73,-29,-43,29,-9,-9,-48,-58,-19
-68,-78,-9,73,-29,-43,29,-9,-9,-48,-58,-19
-68,-78,-9,73,-29,-43,29,-9,-9,-48,-58,-19
-68,-78,-9,73,-29,-43,29,-9,-9,-48,-58,-19
-68,-78,-9,73,-29,-43,29,-9,-9,-58,-58,-19
-68,-78,-9,73,-29,-43,29,-9,-9,-58,-58,-19
-68,-78,-9,73,-29,-43,29,-9,-9,-58,-58,-19
-68,-78,-9,73,-29,-43,29,-9,-9,-58,-58,-19
-58,-78,-19,68,-19,-48,19,-19,-9,-58,-58,-9
-58,-78,-19,68,-19,-48,19,-19,-9,-58,-58,-9
-58,-78,-19,68,-19,-48,19,-19,-9,-58,-58,-9
-58,-78,-19,68,-19,-48,19,-19,-9,-58,-58,-9
-68,-78,-9,73,-29,-43,29,-19,-9,-58,-58,-9
-68,-78,-9,73,-29,-43,29,-19,-9,-58,-58,-9
-68,-78,-9,73,-29,-43,29,-19,-9,-58,-58,-9
-68,-78,-9,73,-29,-43,29,-19,-9,-58,-58,-9
-58,-78,-19,68,-19,-48,29,-29,-19,-58,-58,-19
-58,-78,-19,68,-19,-48,29,-29,-19,-58,-58,-19
-58,-78,-19,68,-19,-48,29,-29,-19,-58,-58,-19
-58,-78,-19,68,-19,-48,29,-29,-19,-58,-58,-19
-58,-87,-29,73,-14,-58,19,-29,-19,-58,-58,-19
-58,-87,-29,73,-14,-58,19,-29,-19,-58,-58,-19
-58,-87,-29,73,-14,-58,19,-29,-19,-58,-58,-19
-58,-87,-29,73,-14,-58,19,-29,-19,-58,-58,-19
-58,-87,-29,73,-14,-58,19,-39,-19,-68,-68,-19
-58,-87,-29,73,-14,-58,19,-39,-19,-68,-68,-19
-58,-87,-29,73,-14,-58,19,-39,-19,-68,-68,-19
-58,-87,-29,73,-14,-58,19,-39,-19,-68,-68,-19
-58,-78,-19,68,-19,-48,19,-39,-19,-68,-58,-19
-58,-78,-19,68,-19,-48,19,-39,-19,-68,-58,-19
-58,-78,-19,68,-19,-48,19,-39,-19,-68,-58,-19
-58,-78,-19,68,-19,-48,19,-39,-19,-68,-58,-19
-48,-68,-19,58,-14,-43,19,-39,-9,-63,-48,-9
-48,-68,-19,58,-14,-43,19,-39,-9,-58,-48,-9
-48,-68,-19,58,-14,-43,19,-39,-9,-53,-48,-9
-48,-68,-19,58,-14,-43,19,-39,-9,-48,-48,-9
-48,-58,-9,53,-19,-34,29,-29,0,-48,-39,-4
-48,-58,-9,53,-19,-34,29,-29,0,-48,-39,0
-48,-58,-9,53,-19,-34,29,-29,0,-48,-39,4
-48,-58,-9,53,-19,-34,29,-29,0,-48,-39,9
-39,-53,-14,46,-12,-34,19,-39,9,-39,-29,19
-39,-48,-9,43,-14,-29,19,-39,9,-39,-29,19
-43,-43,0,43,-21,-21,14,-39,9,-34,-29,19
-43,-29,14,36,-29,-7,14,-43,14,-34,-29,19
-53,-29,24,41,-39,-2,4,-43,24,-34,-24,19
-53,-24,29,39,-41,2,4,-43,29,-34,-24,19
-53,-24,29,39,-41,2,9,-43,29,-34,-24,24
-48,-29,19,39,-34,-4,9,-43,29,-29,-24,24
-39,-19,19,29,-29,0,9,-34,24,-29,-19,24
-39,-19,19,29,-29,0,19,-29,34,-14,-19,29
-34,-19,14,26,-24,-2,19,-29,39,-14,-9,39
-34,-14,19,24,-26,2,19,-29,43,-9,-4,39
-29,-9,19,19,-24,4,19,-24,58,0,0,43
-29,-4,24,17,-26,9,14,-29,63,4,4,48
-24,0,24,12,-24,12,-9,-43,63,4,4,48
-19,0,19,9,-19,9,-24,-53,63,4,4,48
-19,0,19,9,-19,9,-43,-63,53,0,9,48
-19,0,19,9,-19,9,-48,-68,48,0,9,53
-19,4,24,7,-21,14,-48,-68,48,0,4,53
-14,4,19,4,-17,12,-48,-63,48,0,4,53
-19,-9,9,14,-14,0,-48,-63,39,-4,4,53
-19,-9,9,14,-14,0,-48,-68,29,-4,4,53
-19,-9,9,14,-14,0,-53,-78,29,-4,9,53
-19,-4,14,12,-17,4,-58,-82,24,-4,9,53
-24,-4,19,14,-21,7,-68,-102,14,-14,0,53
-24,4,29,9,-26,17,-73,-107,9,-19,0,53
-24,19,43,2,-34,31,-73,-107,9,-19,0,53
-24,19,43,2,-34,31,-73,-107,9,-19,4,58
-14,24,39,-4,-26,31,-78,-107,14,-19,4,58
-14,24,39,-4,-26,31,-78,-107,9,-19,0,58
-14,24,39,-4,-26,31,-78,-112,4,-24,0,58
-14,14,29,0,-21,21,-73,-112,0,-24,0,63
-4,9,14,-2,-9,12,-58,-97,-4,-24,0,63
0,-4,-4,2,2,-4,-58,-97,-4,-29,0,63
4,-9,-14,2,9,-12,-63,-97,-9,-29,4,68
4,-4,-9,0,7,-7,-63,-97,-9,-29,4,68
4,-4,-9,0,7,-7,-68,-107,-14,-29,4,68
4,-4,-9,0,7,-7,-68,-107,-14,-29,0,68
4,0,-4,-2,4,-2,-68,-107,-14,-29,0,68
0,0,0,0,0,0,-68,-112,-14,-29,0,63
-4,9,14,-2,-9,12,-73,-122,-14,-34,0,63
-4,9,14,-2,-9,12,-73,-122,-19,-34,0,63
-9,0,9,4,-9,4,-68,-117,-19,-39,-4,63
-9,-9,0,9,-4,-4,-58,-112,-19,-39,-9,53
-14,-14,0,14,-7,-7,-43,-97,-14,-29,-4,58
-29,-34,-4,31,-12,-19,-24,-87,-14,-39,-9,48
-43,-48,-4,46,-19,-26,-19,-87,-19,-43,-14,39
-48,-63,-14,56,-17,-39,-9,-82,-24,-48,-19,24
-63,-78,-14,70,-24,-46,-9,-82,-29,-63,-24,9
-63,-82,-19,73,-21,-51,-4,-82,-34,-68,-34,9
-63,-92,-29,78,-17,-61,0,-82,-34,-73,-43,4
-63,-102,-39,82,-12,-70,0,-82,-39,-78,-58,0
-73,-102,-29,87,-21,-65,0,-73,-34,-68,-48,-4
-73,-107,-34,90,-19,-70,0,-73,-34,-73,-48,-4
-68,-112,-43,90,-12,-78,0,-73,-39,-73,-53,-4
-68,-112,-43,90,-12,-78,0,-73,-39,-73,-58,-9
-82,-122,-39,102,-21,-80,9,-82,-43,-82,-68,-9
-82,-122,-39,102,-21,-80,9,-82,-43,-82,-63,-9
-82,-122,-39,102,-21,-80,14,-82,-43,-82,-63,-14
-82,-126,-43,104,-19,-85,14,-82,-48,-82,-68,-14
-73,-126,-53,100,-9,-90,4,-82,-48,-82,-68,-14
-82,-126,-43,104,-19,-85,4,-82,-48,-87,-68,-14
-73,-131,-58,102,-7,-95,4,-87,-48,-87,-68,-14
-73,-131,-58,102,-7,-95,4,-87,-48,-87,-68,-14
-87,-131,-43,109,-21,-87,4,-87,-48,-87,-73,-29
-87,-131,-43,109,-21,-87,4,-87,-53,-92,-73,-29
-87,-131,-43,109,-21,-87,4,-87,-53,-92,-73,-29
-87,-131,-43,109,-21,-87,4,-87,-53,-92,-73,-29
-78,-131,-53,104,-12,-92,4,-92,-53,-92,-73,-19
-78,-136,-58,107,-9,-97,4,-92,-53,-92,-73,-19
-78,-136,-58,107,-9,-97,9,-92,-53,-92,-73,-19
-82,-136,-53,109,-14,-95,9,-92,-53,-92,-73,-24
-82,-146,-63,114,-9,-104,9,-82,-53,-102,-73,-24
-82,-146,-63,114,-9,-104,9,-82,-53,-102,-73,-24
-82,-146,-63,114,-9,-104,9,-82,-53,-107,-78,-24
-82,-141,-58,112,-12,-100,9,-82,-53,-107,-78,-29
-87,-141,-53,114,-17,-97,9,-92,-63,-102,-78,-29
-87,-141,-53,114,-17,-97,9,-92,-63,-102,-78,-29
-92,-141,-48,117,-21,-95,9,-92,-63,-102,-78,-29
-92,-141,-48,117,-21,-95,14,-92,-63,-107,-78,-29
-92,-141,-48,117,-21,-95,14,-87,-53,-97,-73,-29
-92,-146,-53,119,-19,-100,14,-87,-53,-97,-73,-29
-92,-146,-53,119,-19,-100,14,-87,-53,-97,-73,-34
-92,-151,-58,122,-17,-104,24,-78,-53,-97,-73,-34
-92,-151,-58,122,-17,-104,29,-63,-43,-87,-73,-34
-92,-151,-58,122,-17,-104,34,-53,-39,-82,-73,-34
-92,-141,-48,117,-21,-95,34,-58,-24,-78,-73,-34
-87,-141,-53,114,-17,-97,29,-48,-24,-63,-68,-34
-82,-141,-58,112,-12,-100,29,-43,-19,-53,-43,-14
-87,-126,-39,107,-24,-82,29,-39,19,-14,-4,4
-68,-78,-9,73,-29,-43,39,0,87,68,68,58
-29,-24,4,26,-17,-9,58,63,175,185,185,146
24,43,19,-34,2,31,43,107,253,312,331,273
107,141,34,-124,36,87,-29,82,312,448,527,458
195,268,73,-231,61,170,-141,-29,322,556,741,673
287,405,117,-346,85,261,-273,-170,307,639,951,888
380,541,161,-461,109,351,-395,-317,273,697,1132,1102
488,702,214,-595,136,458,-546,-468,219,727,1307,1312
590,873,283,-732,153,578,-717,-658,146,741,1468,1532
673,1039,366,-856,153,702,-917,-893,82,761,1620,1747
746,1205,458,-976,143,832,-1112,-1137,-4,746,1727,1912
814,1298,483,-1056,165,890,-1254,-1327,-112,702,1810,2044
849,1298,448,-1073,200,873,-1317,-1429,-239,639,1854,2113
873,1180,307,-1027,283,744,-1322,-1468,-375,546,1815,2103
883,1039,156,-961,363,597,-1322,-1512,-541,400,1727,2049
863,912,48,-888,407,480,-1317,-1600,-692,273,1644,1986
795,766,-29,-780,412,368,-1288,-1673,-834,131,1512,1888
722,551,-170,-636,446,190,-1224,-1668,-980,-58,1273,1683
639,307,-331,-473,485,-12,-1132,-1581,-1141,-297,927,1351
541,107,-434,-324,488,-163,-1019,-1503,-1254,-536,531,995
444,-4,-448,-219,446,-226,-946,-1459,-1317,-717,175,688
341,-82,-424,-129,383,-253,-907,-1415,-1327,-873,-122,414
244,-180,-424,-31,334,-302,-829,-1332,-1312,-976,-400,117
156,-253,-409,48,283,-331,-732,-1210,-1229,-1005,-575,-141
97,-244,-341,73,219,-292,-653,-1112,-1093,-927,-595,-214
19,-224,-244,102,131,-234,-566,-985,-946,-844,-580,-224
-48,-244,-195,146,73,-219,-453,-849,-839,-824,-639,-283
-82,-253,-170,168,43,-212,-370,-702,-741,-785,-678,-336
-82,-239,-156,161,36,-197,-302,-585,-610,-644,-566,-292
-78,-209,-131,143,26,-170,-244,-468,-473,-497,-439,-239
-87,-204,-117,146,14,-161,-156,-331,-380,-414,-380,-224
-97,-204,-107,151,4,-156,-87,-239,-292,-341,-331,-209
-107,-190,-82,148,-12,-136,-53,-180,-234,-283,-278,-190
-102,-180,-78,141,-12,-129,-34,-131,-185,-239,-239,-161
-97,-156,-58,126,-19,-107,-9,-102,-136,-200,-209,-136
-97,-151,-53,124,-21,-102,9,-73,-107,-161,-180,-112
-97,-151,-53,124,-21,-102,34,-48,-87,-146,-156,-102
-97,-165,-68,131,-14,-117,48,-24,-78,-126,-146,-107
-92,-165,-73,129,-9,-119,68,-9,-63,-122,-146,-97
-92,-170,-78,131,-7,-124,73,0,-48,-112,-131,-92
-97,-180,-82,139,-7,-131,73,4,-43,-112,-131,-92
-102,-180,-78,141,-12,-129,78,14,-43,-107,-131,-92
-107,-180,-73,143,-17,-126,78,14,-39,-107,-126,-92
-112,-180,-68,146,-21,-124,78,14,-34,-102,-117,-92
-102,-170,-68,136,-17,-119,82,29,-24,-97,-117,-92
-102,-170,-68,136,-17,-119,82,34,-24,-97,-117,-87
-102,-170,-68,136,-17,-119,82,34,-19,-97,-117,-87
-107,-170,-63,139,-21,-117,87,34,-19,-92,-117,-87
-97,-170,-73,134,-12,-122,97,29,-29,-92,-112,-87
-97,-170,-73,134,-12,-122,97,34,-24,-87,-112,-87
-97,-170,-73,134,-12,-122,102,39,-24,-82,-112,-87
-97,-170,-73,134,-12,-122,102,39,-19,-78,-107,-87
-97,-170,-73,134,-12,-122,92,39,-14,-78,-117,-87
-97,-165,-68,131,-14,-117,97,43,-14,-78,-112,-82
-97,-165,-68,131,-14,-117,97,43,-14,-73,-112,-82
-97,-170,-73,134,-12,-122,97,43,-9,-73,-112,-82
-102,-170,-68,136,-17,-119,97,53,-9,-73,-112,-92
-102,-170,-68,136,-17,-119,97,53,-9,-73,-112,-92
-102,-165,-63,134,-19,-114,97,53,-4,-68,-112,-92
-102,-165,-63,134,-19,-114,97,53,-4,-68,-112,-92
-102,-161,-58,131,-21,-109,97,63,-4,-68,-107,-92
-102,-161,-58,131,-21,-109,102,73,0,-68,-107,-92
-102,-156,-53,129,-24,-104,102,73,0,-63,-107,-92
-102,-156,-53,129,-24,-104,102,73,0,-58,-107,-92
-97,-165,-68,131,-14,-117,102,73,0,-58,-92,-78
-97,-161,-63,129,-17,-112,102,78,0,-58,-92,-78
-97,-161,-63,129,-17,-112,102,78,0,-58,-92,-78
-97,-161,-63,129,-17,-112,107,82,4,-53,-87,-78
-97,-161,-63,129,-17,-112,107,82,4,-53,-87,-73
-97,-161,-63,129,-17,-112,107,82,9,-48,-82,-73
-97,-161,-63,129,-17,-112,107,87,9,-48,-82,-73
-97,-161,-63,129,-17,-112,107,97,9,-48,-82,-73
-97,-151,-53,124,-21,-102,97,87,9,-48,-92,-73
-92,-151,-58,122,-17,-104,97,92,9,-43,-92,-73
-92,-146,-53,119,-19,-100,97,92,14,-43,-92,-73
-92,-146,-53,119,-19,-100,97,97,14,-43,-87,-73
-87,-141,-53,114,-17,-97,97,97,14,-43,-78,-73
-87,-141,-53,114,-17,-97,97,102,14,-43,-78,-68
-87,-141,-53,114,-17,-97,102,107,19,-43,-78,-68
-87,-141,-53,114,-17,-97,102,107,19,-39,-78,-68
-78,-151,-73,114,-2,-112,112,126,19,-39,-78,-58
-78,-151,-73,114,-2,-112,112,126,19,-39,-78,-58
-78,-146,-68,112,-4,-107,112,131,24,-34,-73,-58
-78,-146,-68,112,-4,-107,117,136,24,-34,-73,-58
-82,-146,-63,114,-9,-104,117,141,24,-34,-73,-48
-82,-146,-63,114,-9,-104,117,151,29,-34,-73,-48
-82,-146,-63,114,-9,-104,122,156,29,-29,-73,-48
-82,-146,-63,114,-9,-104,126,161,29,-29,-73,-48
-82,-141,-58,112,-12,-100,126,165,34,-24,-73,-58
-78,-141,-63,109,-7,-102,126,170,34,-24,-73,-58
-78,-141,-63,109,-7,-102,126,175,34,-24,-68,-53
-78,-141,-63,109,-7,-102,126,185,39,-19,-68,-53
-73,-136,-63,104,-4,-100,141,190,39,-19,-68,-53
-73,-136,-63,104,-4,-100,146,200,48,-14,-68,-53
-68,-131,-63,100,-2,-97,146,214,53,-4,-68,-53
-68,-131,-63,100,-2,-97,146,219,53,-4,-63,-53
-68,-122,-53,95,-7,-87,141,239,58,-9,-63,-53
-63,-112,-48,87,-7,-80,141,248,63,-4,-63,-53
-63,-112,-48,87,-7,-80,146,258,68,0,-58,-53
-53,-112,-58,82,2,-85,156,268,73,4,-58,-48
-48,-112,-63,80,7,-87,156,287,78,19,-48,-48
-48,-107,-58,78,4,-82,156,292,82,29,-48,-48
-43,-102,-58,73,7,-80,156,312,87,34,-48,-43
-39,-97,-58,68,9,-78,161,326,92,34,-43,-43
-34,-92,-58,63,12,-75,175,351,102,43,-39,-34
-29,-87,-58,58,14,-73,175,366,107,43,-34,-34
-24,-82,-58,53,17,-70,175,380,117,58,-29,-29
-14,-73,-58,43,21,-65,180,395,126,63,-29,-29
-14,-68,-53,41,19,-61,185,414,136,73,-24,-39
-9,-53,-43,31,17,-48,185,439,146,82,-24,-29
0,-43,-43,21,21,-43,185,458,156,92,-14,-24
4,-34,-39,14,21,-36,185,488,165,107,-4,-19
19,-14,-34,-2,26,-24,190,507,170,117,0,-19
19,-4,-24,-7,21,-14,190,527,180,126,4,-14
34,4,-29,-19,31,-12,190,536,190,141,9,-9
43,19,-24,-31,34,-2,190,561,200,151,19,-4
48,19,-29,-34,39,-4,200,575,214,165,34,9
53,34,-19,-43,36,7,200,600,224,180,39,14
63,39,-24,-51,43,7,200,614,234,185,43,19
73,53,-19,-63,46,17,200,634,244,195,48,24
82,68,-14,-75,48,26,200,658,253,204,48,24
92,78,-14,-85,53,31,195,668,263,214,48,24
97,92,-4,-95,51,43,195,678,273,224,53,24
107,102,-4,-104,56,48,185,688,273,229,53,29
102,117,14,-109,43,65,180,692,292,229,53,29
112,126,14,-119,48,70,180,697,297,234,58,34
117,131,14,-124,51,73,175,702,297,239,58,34
122,141,19,-131,51,80,170,702,297,244,58,34
136,156,19,-146,58,87,165,702,292,239,58,39
136,161,24,-148,56,92,161,692,292,239,63,39
136,165,29,-151,53,97,146,688,297,239,63,39
141,175,34,-158,53,104,136,683,297,239,63,43
141,180,39,-161,51,109,146,673,297,244,63,43
141,180,39,-161,51,109,141,658,297,244,53,43
141,180,39,-161,51,109,136,644,292,234,48,43
141,180,39,-161,51,109,126,629,287,229,48,43
131,180,48,-156,41,114,112,600,268,219,43,43
131,180,48,-156,41,114,107,580,258,209,39,39
126,175,48,-151,39,112,102,561,248,204,34,39
122,170,48,-146,36,109,97,541,239,190,29,39
107,165,58,-136,24,112,92,517,229,180,24,48
97,161,63,-129,17,112,87,483,219,170,19,48
92,146,53,-119,19,100,82,453,209,161,19,43
87,136,48,-112,19,92,78,424,195,141,14,43
82,126,43,-104,19,85,73,395,185,136,14,34
73,112,39,-92,17,75,63,366,175,126,14,34
58,92,34,-75,12,63,53,331,161,117,14,34
53,82,29,-68,12,56,43,307,146,97,14,34
43,78,34,-61,4,56,39,273,131,92,14,34
43,68,24,-56,9,46,39,248,117,82,14,39
29,58,29,-43,0,43,34,219,107,73,14,39
29,48,19,-39,4,34,34,195,97,63,14,43
24,34,9,-29,7,21,24,165,92,53,14,48
14,24,9,-19,2,17,19,151,82,43,14,53
14,9,-4,-12,9,2,19,131,73,34,14,53
0,4,4,-2,-2,4,19,112,63,24,14,53
-9,-4,4,7,-7,0,14,82,43,14,14,53
-14,-19,-4,17,-4,-12,9,68,34,4,4,53
-14,-24,-9,19,-2,-17,9,58,24,-4,4,53
-19,-29,-9,24,-4,-19,9,43,19,-9,4,53
-19,-29,-9,24,-4,-19,0,19,9,-19,4,43
-24,-34,-9,29,-7,-21,0,9,4,-24,0,43
-29,-43,-14,36,-7,-29,0,4,-4,-34,-4,43
-34,-43,-9,39,-12,-26,0,-4,-4,-39,-9,43
-39,-48,-9,43,-14,-29,4,-14,-9,-43,-9,43
-39,-53,-14,46,-12,-34,4,-19,-14,-48,-9,43
-39,-58,-19,48,-9,-39,4,-29,-19,-48,-9,43
-43,-63,-19,53,-12,-41,4,-29,-24,-53,-9,43
-43,-68,-24,56,-9,-46,-4,-43,-39,-58,-14,43
-48,-68,-19,58,-14,-43,-4,-48,-39,-63,-14,39
-48,-73,-24,61,-12,-48,-4,-53,-39,-63,-14,39
-48,-78,-29,63,-9,-53,-4,-53,-43,-63,-19,39
-48,-78,-29,63,-9,-53,-4,-53,-34,-58,-19,48
-48,-78,-29,63,-9,-53,-4,-63,-43,-63,-24,43
-53,-78,-24,65,-14,-51,-4,-63,-43,-63,-24,43
-53,-78,-24,65,-14,-51,-4,-63,-43,-63,-24,39
-53,-78,-24,65,-14,-51,-4,-63,-48,-73,-24,39
-53,-82,-29,68,-12,-56,-4,-63,-53,-78,-24,39
-53,-82,-29,68,-12,-56,-4,-68,-53,-78,-24,39
-53,-82,-29,68,-12,-56,-4,-68,-48,-78,-24,39
-43,-73,-29,58,-7,-51,-4,-68,-48,-78,-34,39
-43,-73,-29,58,-7,-51,-4,-68,-48,-78,-34,39
-43,-68,-24,56,-9,-46,-4,-68,-48,-78,-34,39
-43,-68,-24,56,-9,-46,-4,-68,-48,-78,-34,39
-48,-68,-19,58,-14,-43,-4,-78,-48,-82,-34,39
-48,-78,-29,63,-9,-53,-4,-78,-53,-82,-34,39
-48,-78,-29,63,-9,-53,-4,-78,-53,-82,-34,39
-48,-78,-29,63,-9,-53,-4,-78,-53,-82,-34,39
-48,-87,-39,68,-4,-63,-4,-78,-63,-82,-29,48
-48,-87,-39,68,-4,-63,-4,-78,-63,-82,-29,48
-48,-87,-39,68,-4,-63,-4,-82,-63,-82,-29,48
-43,-87,-43,65,0,-65,-4,-82,-63,-82,-29,48
-43,-87,-43,65,0,-65,-4,-78,-63,-82,-39,34
-43,-87,-43,65,0,-65,-4,-78,-63,-82,-39,34
-43,-87,-43,65,0,-65,-4,-78,-63,-82,-39,39
-43,-87,-43,65,0,-65,-4,-78,-63,-82,-34,39
-43,-87,-43,65,0,-65,-4,-68,-53,-82,-24,48
-43,-87,-43,65,0,-65,-4,-68,-53,-78,-24,48
-43,-87,-43,65,0,-65,-4,-68,-53,-78,-24,48
-43,-87,-43,65,0,-65,-4,-63,-58,-78,-24,48
-53,-87,-34,70,-9,-61,-4,-73,-58,-78,-34,39
-53,-87,-34,70,-9,-61,0,-73,-53,-78,-34,39
-53,-87,-34,70,-9,-61,0,-73,-53,-78,-34,39
-53,-87,-34,70,-9,-61,0,-68,-53,-78,-29,39
-43,-78,-34,61,-4,-56,-9,-68,-63,-78,-29,34
-43,-78,-34,61,-4,-56,-9,-68,-63,-78,-29,34
-43,-78,-34,61,-4,-56,-9,-68,-63,-78,-29,29
-43,-78,-34,61,-4,-56,-9,-68,-58,-78,-29,29
-48,-87,-39,68,-4,-63,0,-68,-68,-78,-29,29
-48,-87,-39,68,-4,-63,0,-68,-68,-78,-34,29
-48,-87,-39,68,-4,-63,0,-68,-68,-78,-34,29
-43,-87,-43,65,0,-65,0,-63,-68,-78,-34,29
-43,-78,-34,61,-4,-56,4,-63,-58,-82,-24,39
-43,-78,-34,61,-4,-56,4,-63,-58,-82,-19,39
-48,-78,-29,63,-9,-53,4,-58,-58,-82,-19,34
-48,-78,-29,63,-9,-53,4,-58,-58,-82,-19,34
-48,-87,-39,68,-4,-63,4,-58,-53,-73,-19,34
-48,-87,-39,68,-4,-63,4,-58,-53,-73,-19,39
-48,-87,-39,68,-4,-63,4,-58,-53,-73,-19,39
-48,-87,-39,68,-4,-63,9,-53,-53,-73,-19,39
-48,-87,-39,68,-4,-63,9,-43,-53,-73,-19,39
-53,-87,-34,70,-9,-61,9,-43,-53,-73,-24,39
-53,-87,-34,70,-9,-61,9,-43,-53,-68,-24,39
-53,-87,-34,70,-9,-61,9,-43,-48,-68,-24,29
-63,-87,-24,75,-19,-56,9,-53,-48,-82,-34,29
-63,-87,-24,75,-19,-56,9,-53,-53,-82,-34,29
-63,-87,-24,75,-19,-56,9,-53,-53,-82,-34,29
-63,-87,-24,75,-19,-56,9,-53,-48,-82,-34,29
-63,-87,-24,75,-19,-56,4,-53,-48,-82,-29,19
-63,-87,-24,75,-19,-56,4,-53,-48,-82,-29,24
-63,-87,-24,75,-19,-56,4,-53,-48,-82,-29,24
-63,-87,-24,75,-19,-56,4,-53,-48,-82,-34,19
-63,-87,-24,75,-19,-56,14,-53,-53,-82,-43,19
-68,-87,-19,78,-24,-53,14,-53,-53,-82,-43,19
-68,-87,-19,78,-24,-53,14,-53,-53,-82,-43,19
-68,-87,-19,78,-24,-53,14,-53,-53,-82,-43,14
-68,-92,-24,80,-21,-58,14,-53,-53,-82,-43,24
-68,-92,-24,80,-21,-58,14,-53,-53,-82,-43,24
-68,-92,-24,80,-21,-58,14,-53,-53,-87,-43,24
-68,-92,-24,80,-21,-58,14,-53,-53,-87,-43,24
-68,-97,-29,82,-19,-63,14,-43,-53,-87,-39,14
-68,-97,-29,82,-19,-63,14,-48,-53,-87,-48,14
-68,-102,-34,85,-17,-68,14,-48,-53,-87,-48,14
-68,-102,-34,85,-17,-68,9,-48,-53,-92,-43,14
-58,-92,-34,75,-12,-63,9,-48,-58,-92,-53,4
-58,-92,-34,75,-12,-63,9,-48,-58,-92,-53,4
-58,-92,-34,75,-12,-63,14,-53,-58,-92,-53,4
-58,-92,-34,75,-12,-63,14,-53,-58,-92,-53,4
-68,-92,-24,80,-21,-58,14,-53,-48,-92,-43,9
-68,-92,-24,80,-21,-58,14,-53,-48,-92,-48,9
-68,-92,-24,80,-21,-58,9,-53,-48,-97,-48,9
-68,-92,-24,80,-21,-58,9,-58,-48,-97,-48,9
-68,-92,-24,80,-21,-58,9,-58,-48,-87,-48,9
-68,-97,-29,82,-19,-63,9,-58,-48,-87,-48,9
-68,-97,-29,82,-19,-63,9,-58,-48,-87,-48,9
-68,-97,-29,82,-19,-63,4,-58,-48,-87,-48,9
-73,-107,-34,90,-19,-70,4,-58,-58,-97,-58,9
-73,-107,-34,90,-19,-70,4,-58,-63,-102,-58,9
-73,-107,-34,90,-19,-70,4,-63,-63,-102,-58,9
-73,-107,-34,90,-19,-70,4,-63,-63,-102,-58,9
-63,-97,-34,80,-14,-65,4,-73,-63,-102,-48,9
-63,-97,-34,80,-14,-65,4,-73,-68,-102,-48,9
-63,-97,-34,80,-14,-65,4,-78,-68,-102,-53,9
-63,-97,-34,80,-14,-65,4,-78,-68,-102,-53,9
-63,-97,-34,80,-14,-65,0,-68,-68,-102,-63,9
-63,-97,-34,80,-14,-65,0,-68,-68,-107,-63,9
-63,-97,-34,80,-14,-65,0,-73,-68,-107,-63,9
-63,-97,-34,80,-14,-65,0,-73,-68,-107,-63,9
-73,-92,-19,82,-26,-56,0,-73,-73,-107,-63,9
-73,-92,-19,82,-26,-56,0,-73,-73,-107,-63,14
-73,-92,-19,82,-26,-56,0,-78,-73,-107,-63,14
-73,-92,-19,82,-26,-56,0,-78,-73,-107,-63,14
-68,-102,-34,85,-17,-68,0,-82,-68,-102,-63,14
-68,-97,-29,82,-19,-63,0,-82,-68,-102,-58,19
-68,-97,-29,82,-19,-63,0,-82,-68,-102,-58,19
-63,-92,-29,78,-17,-61,0,-82,-68,-102,-53,19
-63,-78,-14,70,-24,-46,9,-73,-53,-92,-43,29
-63,-73,-9,68,-26,-41,9,-73,-53,-82,-43,34
-53,-73,-19,63,-17,-46,14,-73,-43,-82,-34,34
-58,-78,-19,68,-19,-48,9,-68,-39,-78,-29,39
-48,-68,-19,58,-14,-43,9,-68,-39,-78,-29,39
-48,-68,-19,58,-14,-43,9,-68,-39,-78,-29,39
-48,-68,-19,58,-14,-43,9,-68,-39,-78,-29,39
-48,-68,-19,58,-14,-43,9,-68,-39,-78,-29,39
-43,-58,-14,51,-14,-36,4,-68,-29,-63,-19,48
-43,-48,-4,46,-19,-26,4,-73,-24,-63,-19,48
-43,-48,-4,46,-19,-26,-4,-73,-24,-63,-14,48
-43,-43,0,43,-21,-21,-4,-73,-19,-63,-14,48
-43,-34,9,39,-26,-12,0,-73,-19,-63,-14,63
-39,-39,0,39,-19,-19,0,-73,-19,-58,-14,63
-39,-39,0,39,-19,-19,0,-63,-14,-58,-9,63
-39,-39,0,39,-19,-19,9,-58,-4,-43,-9,68
-43,-48,-4,46,-19,-26,19,-48,-9,-53,-9,73
-43,-43,0,43,-21,-21,19,-48,-4,-48,-4,68
-39,-29,9,34,-24,-9,9,-53,0,-39,0,68
-39,-24,14,31,-26,-4,4,-58,4,-34,4,68
-24,-9,14,17,-19,2,-9,-63,14,-24,14,78
-19,-9,9,14,-14,0,-24,-73,14,-24,14,78
-19,-9,9,14,-14,0,-34,-82,4,-29,19,78
-19,-9,9,14,-14,0,-39,-87,0,-29,19,82
-19,-4,14,12,-17,4,-53,-92,0,-29,14,82
-14,-4,9,9,-12,2,-58,-92,0,-29,14,82
-9,-9,0,9,-4,-4,-63,-97,0,-34,14,82
-9,-9,0,9,-4,-4,-68,-107,-9,-34,14,82
-9,-9,0,9,-4,-4,-63,-107,0,-34,19,92
-9,-4,4,7,-7,0,-68,-112,-4,-34,19,92
-14,-4,9,9,-12,2,-78,-122,-14,-43,9,92
-14,4,19,4,-17,12,-82,-126,-19,-48,9,92
-14,9,24,2,-19,17,-92,-136,-19,-48,9,82
-14,9,24,2,-19,17,-92,-136,-19,-48,14,87
-14,4,19,4,-17,12,-97,-136,-24,-48,14,87
-14,4,19,4,-17,12,-97,-136,-29,-48,9,87
-14,14,29,0,-21,21,-97,-141,-43,-53,0,87
-14,4,19,4,-17,12,-92,-141,-48,-53,0,92
-4,4,9,0,-7,7,-87,-136,-53,-53,0,92
0,-4,-4,2,2,-4,-87,-136,-53,-58,0,92
4,-4,-9,0,7,-7,-82,-136,-58,-68,4,87
4,4,0,-4,2,2,-82,-136,-58,-68,4,87
4,4,0,-4,2,2,-78,-136,-53,-68,4,87
4,4,0,-4,2,2,-78,-136,-53,-68,0,87
4,0,-4,-2,4,-2,-78,-136,-53,-68,0,87
0,0,0,0,0,0,-78,-141,-53,-68,0,82
-4,0,4,2,-4,2,-82,-151,-53,-73,0,82
-4,0,4,2,-4,2,-82,-151,-58,-73,0,82
0,-4,-4,2,2,-4,-87,-156,-58,-68,4,92
0,-9,-9,4,4,-9,-78,-151,-58,-68,0,82
-14,-19,-4,17,-4,-12,-63,-136,-53,-68,0,78
-29,-34,-4,31,-12,-19,-43,-126,-53,-78,-9,68
-43,-58,-14,51,-14,-36,-39,-117,-48,-73,-9,68
-48,-73,-24,61,-12,-48,-29,-112,-53,-78,-19,53
-53,-78,-24,65,-14,-51,-29,-112,-58,-82,-19,48
-53,-82,-29,68,-12,-56,-24,-112,-63,-87,-24,48
-63,-92,-29,78,-17,-61,-19,-122,-73,-102,-39,34
-63,-102,-39,82,-12,-70,-19,-122,-78,-107,-48,29
-73,-102,-29,87,-21,-65,-19,-122,-82,-107,-48,24
-73,-107,-34,90,-19,-70,-19,-122,-82,-112,-48,24
-78,-102,-24,90,-26,-63,-9,-112,-97,-112,-53,14
-78,-102,-24,90,-26,-63,-9,-112,-97,-112,-58,9
-82,-102,-19,92,-31,-61,-9,-112,-92,-112,-58,9
-82,-102,-19,92,-31,-61,-9,-112,-92,-112,-53,9
-82,-112,-29,97,-26,-70,-4,-112,-87,-112,-63,14
-82,-117,-34,100,-24,-75,-4,-112,-87,-112,-68,14
-82,-117,-34,100,-24,-75,-4,-112,-82,-112,-68,14
-92,-117,-24,104,-34,-70,-4,-112,-78,-117,-68,14
-73,-131,-58,102,-7,-95,4,-107,-78,-107,-58,14
-73,-131,-58,102,-7,-95,4,-107,-78,-107,-58,14
-78,-131,-53,104,-12,-92,4,-107,-78,-107,-63,9
-78,-131,-53,104,-12,-92,4,-107,-82,-112,-63,9
-87,-141,-53,114,-17,-97,4,-117,-82,-122,-63,9
-87,-141,-53,114,-17,-97,4,-117,-82,-122,-63,9
-87,-141,-53,114,-17,-97,4,-112,-82,-122,-63,9
-87,-146,-58,117,-14,-102,4,-112,-82,-122,-63,9
-78,-136,-58,107,-9,-97,0,-112,-92,-122,-63,9
-82,-136,-53,109,-14,-95,0,-112,-92,-122,-63,4
-82,-146,-63,114,-9,-104,0,-112,-92,-122,-63,4
-82,-146,-63,114,-9,-104,0,-112,-92,-122,-63,4
-92,-146,-53,119,-19,-100,0,-112,-82,-126,-68,4
-92,-141,-48,117,-21,-95,0,-112,-82,-126,-68,0
-87,-141,-53,114,-17,-97,0,-112,-82,-122,-68,0
-87,-141,-53,114,-17,-97,0,-112,-82,-122,-68,0
-92,-141,-48,117,-21,-95,0,-102,-92,-112,-78,0
-92,-141,-48,117,-21,-95,4,-102,-92,-117,-78,0
-92,-141,-48,117,-21,-95,4,-107,-92,-117,-82,0
-92,-146,-53,119,-19,-100,4,-107,-92,-117,-82,0
-82,-146,-63,114,-9,-104,14,-97,-92,-117,-73,-4
-82,-151,-68,117,-7,-109,14,-97,-82,-117,-82,-4
-82,-151,-68,117,-7,-109,19,-92,-73,-107,-73,-4
-92,-151,-58,122,-17,-104,24,-82,-68,-112,-82,-4
-102,-151,-48,126,-26,-100,24,-78,-63,-107,-82,-4
-107,-141,-34,124,-36,-87,29,-87,-63,-102,-68,-4
-92,-131,-39,112,-26,-85,29,-82,-58,-82,-53,-4
-78,-126,-48,102,-14,-87,19,-87,-39,-63,-34,14
-78,-97,-19,87,-29,-58,19,-68,-9,-9,19,48
-48,-53,-4,51,-21,-29,39,-14,68,78,107,117
-4,4,9,0,-7,7,53,68,165,204,224,214
48,73,24,-61,12,48,39,102,263,341,390,341
146,170,24,-158,61,97,-53,48,302,468,585,527
258,307,48,-283,104,178,-185,-82,307,570,795,751
341,434,92,-387,124,263,-317,-229,302,649,985,966
439,575,136,-507,151,356,-448,-380,278,697,1161,1166
551,736,185,-644,183,461,-610,-561,214,722,1312,1376
653,912,258,-783,197,585,-800,-775,141,741,1464,1581
736,1098,361,-917,187,729,-1005,-1029,73,746,1600,1766
805,1239,434,-1022,185,836,-1195,-1268,4,741,1703,1927
868,1317,448,-1093,209,883,-1317,-1449,-102,697,1776,2044
902,1259,356,-1080,273,807,-1361,-1527,-239,614,1776,2083
912,1127,214,-1019,348,671,-1361,-1571,-395,478,1708,2039
912,990,78,-951,417,534,-1356,-1620,-556,341,1615,1976
883,873,-9,-878,446,431,-1346,-1712,-707,209,1522,1917
819,717,-102,-768,461,307,-1322,-1776,-854,58,1361,1781
746,483,-263,-614,505,109,-1249,-1737,-1015,-151,1093,1537
658,244,-414,-451,536,-85,-1137,-1649,-1166,-400,727,1200
541,43,-497,-292,519,-226,-1024,-1566,-1278,-629,322,844
429,-53,-483,-187,456,-268,-966,-1532,-1327,-814,-4,551
331,-122,-453,-104,392,-287,-907,-1468,-1322,-927,-273,292
234,-204,-439,-14,336,-322,-819,-1356,-1278,-1005,-507,14
156,-253,-409,48,283,-331,-722,-1220,-1180,-995,-624,-175
87,-244,-331,78,209,-287,-644,-1122,-1044,-902,-610,-214
9,-234,-244,112,126,-239,-541,-995,-907,-834,-590,-224
-53,-253,-200,153,73,-226,-429,-829,-819,-814,-639,-278
-73,-268,-195,170,61,-231,-351,-692,-707,-741,-614,-292
-68,-239,-170,153,51,-204,-292,-575,-570,-595,-497,-239
-78,-224,-146,151,34,-185,-214,-439,-448,-473,-400,-204
-97,-214,-117,156,9,-165,-136,-307,-361,-400,-351,-200
-97,-209,-112,153,7,-161,-73,-229,-292,-331,-297,-180
-82,-190,-107,136,12,-148,-43,-180,-234,-268,-248,-151
-78,-165,-87,122,4,-126,-19,-131,-185,-239,-219,-136
-78,-161,-82,119,2,-122,9,-92,-146,-200,-190,-112
-97,-161,-63,129,-17,-112,34,-68,-117,-175,-165,-102
-107,-165,-58,136,-24,-112,48,-43,-97,-156,-156,-97
-102,-175,-73,139,-14,-124,68,-19,-82,-141,-136,-87
-102,-180,-78,141,-12,-129,73,0,-68,-131,-131,-82
-102,-170,-68,136,-17,-119,73,4,-63,-131,-131,-82
-102,-170,-68,136,-17,-119,78,14,-63,-126,-131,-82
-102,-170,-68,136,-17,-119,78,14,-58,-126,-126,-82
-102,-170,-68,136,-17,-119,78,14,-53,-122,-117,-82
-92,-170,-78,131,-7,-124,92,29,-43,-107,-117,-82
-92,-170,-78,131,-7,-124,92,34,-43,-107,-117,-78
-92,-170,-78,131,-7,-124,92,34,-39,-107,-117,-78
-97,-170,-73,134,-12,-122,97,34,-39,-102,-117,-78
-97,-170,-73,134,-12,-122,107,39,-39,-102,-112,-78
-97,-170,-73,134,-12,-122,107,43,-34,-97,-112,-78
-97,-170,-73,134,-12,-122,112,48,-34,-92,-112,-78
-97,-170,-73,134,-12,-122,112,48,-29,-87,-107,-78
-97,-180,-82,139,-7,-131,112,58,-24,-87,-107,-68
-97,-175,-78,136,-9,-126,117,63,-24,-87,-102,-63
-97,-175,-78,136,-9,-126,117,63,-24,-82,-102,-63
-97,-180,-82,139,-7,-131,117,63,-19,-82,-102,-63
-102,-170,-68,136,-17,-119,117,63,-19,-82,-92,-63
-102,-170,-68,136,-17,-119,117,63,-19,-82,-92,-63
-102,-165,-63,134,-19,-114,117,63,-14,-78,-92,-63
-102,-165,-63,134,-19,-114,117,63,-14,-78,-92,-63
-92,-170,-78,131,-7,-124,117,63,-4,-78,-97,-63
-92,-170,-78,131,-7,-124,122,73,0,-78,-97,-63
-92,-165,-73,129,-9,-119,122,73,0,-73,-97,-63
-92,-165,-73,129,-9,-119,122,73,0,-68,-97,-63
-87,-165,-78,126,-4,-122,122,82,-9,-68,-92,-68
-87,-161,-73,124,-7,-117,122,87,-9,-68,-92,-68
-87,-161,-73,124,-7,-117,122,87,-9,-68,-92,-68
-87,-161,-73,124,-7,-117,126,92,-4,-63,-87,-68
-87,-170,-82,129,-2,-126,126,92,4,-63,-87,-63
-87,-170,-82,129,-2,-126,126,92,9,-58,-82,-63
-87,-170,-82,129,-2,-126,126,97,9,-58,-82,-63
-87,-170,-82,129,-2,-126,126,107,9,-58,-82,-63
-87,-161,-73,124,-7,-117,126,97,9,-58,-82,-63
-82,-161,-78,122,-2,-119,126,102,9,-53,-82,-63
-82,-156,-73,119,-4,-114,126,102,14,-53,-82,-63
-82,-156,-73,119,-4,-114,126,107,14,-53,-78,-63
-78,-151,-73,114,-2,-112,126,117,4,-53,-78,-73
-78,-151,-73,114,-2,-112,126,122,4,-53,-78,-68
-78,-151,-73,114,-2,-112,131,126,9,-53,-78,-68
-78,-151,-73,114,-2,-112,131,126,9,-48,-78,-68
-87,-151,-63,119,-12,-107,131,136,19,-48,-78,-68
-87,-151,-63,119,-12,-107,131,136,19,-48,-78,-68
-87,-146,-58,117,-14,-102,131,141,24,-43,-73,-68
-87,-146,-58,117,-14,-102,136,146,24,-43,-73,-68
-73,-146,-73,109,0,-109,136,141,14,-43,-73,-58
-73,-146,-73,109,0,-109,136,151,19,-43,-73,-58
-73,-146,-73,109,0,-109,141,156,19,-39,-73,-58
-73,-146,-73,109,0,-109,146,161,19,-39,-73,-58
-73,-131,-58,102,-7,-95,146,170,34,-34,-63,-48
-68,-131,-63,100,-2,-97,146,180,34,-34,-63,-48
-68,-131,-63,100,-2,-97,146,190,34,-34,-58,-43
-68,-131,-63,100,-2,-97,146,204,39,-29,-58,-43
-63,-136,-73,100,4,-104,161,209,29,-19,-48,-43
-63,-136,-73,100,4,-104,165,219,39,-14,-48,-43
-58,-131,-73,95,7,-102,165,234,43,-4,-48,-43
-58,-131,-73,95,7,-102,165,239,43,-4,-43,-43
-58,-131,-73,95,7,-102,161,239,48,-4,-48,-48
-53,-122,-68,87,7,-95,161,248,53,-4,-53,-53
-53,-122,-68,87,7,-95,165,258,58,-4,-53,-58
-43,-122,-78,82,17,-100,175,268,63,-4,-58,-58
-39,-112,-73,75,17,-92,185,297,68,0,-58,-48
-39,-107,-68,73,14,-87,185,302,73,9,-58,-48
-34,-102,-68,68,17,-85,185,322,78,14,-58,-43
-29,-97,-68,63,19,-82,190,336,82,14,-53,-43
-24,-92,-68,58,21,-80,185,351,92,34,-48,-43
-19,-87,-68,53,24,-78,185,366,97,34,-43,-43
-14,-82,-68,48,26,-75,185,380,107,48,-39,-39
-4,-73,-68,39,31,-70,190,395,117,53,-39,-39
-4,-78,-73,41,34,-75,204,409,126,63,-34,-39
0,-63,-63,31,31,-63,204,429,136,73,-34,-29
9,-53,-63,21,36,-58,204,444,146,82,-24,-24
14,-43,-58,14,36,-51,204,468,156,97,-14,-19
19,-34,-53,7,36,-43,209,497,161,107,-9,-19
19,-24,-43,2,31,-34,209,517,170,117,-4,-14
34,-14,-48,-9,41,-31,209,527,180,131,0,-9
43,0,-43,-21,43,-21,209,551,190,141,9,-4
58,9,-48,-34,53,-19,219,570,214,156,14,-9
63,24,-39,-43,51,-7,219,590,224,170,19,-4
73,29,-43,-51,58,-7,219,600,234,175,24,0
82,43,-39,-63,61,2,219,614,244,185,29,4
82,58,-24,-70,53,17,209,629,253,195,29,-4
92,68,-24,-80,58,21,204,639,263,204,29,-4
97,82,-14,-90,56,34,204,649,273,214,34,-4
107,92,-14,-100,61,39,195,658,273,219,34,0
112,117,4,-114,53,61,200,673,292,229,39,9
122,126,4,-124,58,65,200,678,297,234,48,14
126,131,4,-129,61,68,195,683,297,239,53,14
131,141,9,-136,61,75,190,683,297,244,58,14
146,146,0,-146,73,73,185,692,302,248,58,29
146,151,4,-148,70,78,180,683,302,248,63,29
146,156,9,-151,68,82,165,678,307,248,63,29
151,165,14,-158,68,90,156,673,307,248,63,34
151,180,29,-165,61,104,146,663,297,248,73,34
151,180,29,-165,61,104,141,649,297,253,63,34
151,180,29,-165,61,104,136,634,292,248,58,34
151,180,29,-165,61,104,126,619,287,248,58,34
141,180,39,-161,51,109,122,600,287,229,43,29
141,180,39,-161,51,109,117,580,278,219,39,19
136,175,39,-156,48,107,112,561,268,214,34,14
131,170,39,-151,46,104,107,541,258,200,29,9
126,165,39,-146,43,102,102,512,239,200,14,0
117,161,43,-139,36,102,97,483,229,190,9,0
112,146,34,-129,39,90,92,458,219,180,9,-4
107,136,29,-122,39,82,87,434,204,161,4,-4
102,136,34,-119,34,85,97,400,204,156,14,0
92,122,29,-107,31,75,92,375,195,146,14,4
78,102,24,-90,26,63,87,346,180,136,14,9
73,92,19,-82,26,56,82,326,165,117,14,14
73,87,14,-80,29,51,68,302,161,112,4,4
73,78,4,-75,34,41,68,278,146,102,4,9
58,68,9,-63,24,39,63,248,136,92,4,9
58,58,0,-58,29,29,63,224,126,82,4,14
43,53,9,-48,17,31,63,195,112,73,4,9
34,43,9,-39,12,26,58,180,102,63,4,14
34,29,-4,-31,19,12,58,161,92,53,4,14
19,24,4,-21,7,14,58,141,82,43,4,14
9,14,4,-12,2,9,53,112,73,34,4,24
4,0,-4,-2,4,-2,48,97,63,24,-4,24
4,-4,-9,0,7,-7,48,87,53,14,-4,24
0,-9,-9,4,4,-9,48,73,48,9,-4,24
0,-29,-29,14,14,-29,48,58,39,9,4,24
-4,-34,-29,19,12,-31,48,48,34,4,0,24
-9,-43,-34,26,12,-39,48,43,24,-4,-4,24
-14,-43,-29,29,7,-36,48,34,24,-9,-9,24
-19,-48,-29,34,4,-39,43,14,19,-14,-9,14
-19,-53,-34,36,7,-43,43,9,14,-19,-9,14
-19,-58,-39,39,9,-48,43,0,9,-19,-9,14
-24,-63,-39,43,7,-51,43,0,4,-24,-9,14
-34,-58,-24,46,-4,-41,43,-4,-9,-39,-24,14
-39,-58,-19,48,-9,-39,43,-9,-9,-43,-24,9
-39,-63,-24,51,-7,-43,43,-14,-9,-43,-24,9
-39,-68,-29,53,-4,-48,43,-14,-14,-43,-29,9
-39,-68,-29,53,-4,-48,43,-14,-4,-39,-19,14
-39,-68,-29,53,-4,-48,43,-24,-14,-43,-24,14
-43,-68,-24,56,-9,-46,43,-24,-14,-43,-24,19
-43,-68,-24,56,-9,-46,43,-24,-14,-43,-24,19
-43,-78,-34,61,-4,-56,43,-24,-19,-53,-34,9
-43,-82,-39,63,-2,-61,43,-24,-24,-58,-34,9
-43,-82,-39,63,-2,-61,43,-29,-24,-58,-34,9
-43,-82,-39,63,-2,-61,43,-29,-19,-58,-34,9
-43,-82,-39,63,-2,-61,43,-29,-19,-48,-34,0
-43,-82,-39,63,-2,-61,43,-29,-19,-48,-34,0
-43,-78,-34,61,-4,-56,43,-29,-19,-48,-34,0
-43,-78,-34,61,-4,-56,43,-29,-19,-48,-34,0
-48,-78,-29,63,-9,-53,43,-29,-19,-53,-34,0
-48,-87,-39,68,-4,-63,43,-29,-24,-53,-34,0
-48,-87,-39,68,-4,-63,43,-29,-24,-53,-34,0
-48,-87,-39,68,-4,-63,43,-29,-24,-53,-34,0
-48,-87,-39,68,-4,-63,43,-29,-34,-53,-29,0
-48,-87,-39,68,-4,-63,43,-29,-34,-53,-29,0
-48,-87,-39,68,-4,-63,43,-34,-34,-53,-29,0
-43,-87,-43,65,0,-65,43,-34,-34,-53,-29,0
-43,-87,-43,65,0,-65,53,-29,-24,-53,-29,-4
-43,-87,-43,65,0,-65,53,-29,-24,-53,-29,-4
-43,-87,-43,65,0,-65,53,-29,-24,-53,-29,0
-43,-87,-43,65,0,-65,53,-29,-24,-53,-24,0
-53,-87,-34,70,-9,-61,53,-29,-24,-63,-34,0
-53,-87,-34,70,-9,-61,53,-29,-24,-58,-34,0
-53,-87,-34,70,-9,-61,53,-29,-24,-58,-34,0
-53,-87,-34,70,-9,-61,53,-24,-29,-58,-34,0
-43,-97,-53,70,4,-75,43,-24,-29,-48,-34,0
-43,-97,-53,70,4,-75,48,-24,-24,-48,-34,0
-43,-97,-53,70,4,-75,48,-24,-24,-48,-34,0
-43,-97,-53,70,4,-75,48,-19,-24,-48,-29,0
-43,-87,-43,65,0,-65,48,-19,-24,-48,-29,-4
-43,-87,-43,65,0,-65,48,-19,-24,-48,-29,-4
-43,-87,-43,65,0,-65,48,-19,-24,-48,-29,-9
-43,-87,-43,65,0,-65,48,-19,-19,-48,-29,-9
-39,-87,-48,63,4,-68,48,-19,-19,-48,-29,0
-39,-87,-48,63,4,-68,48,-19,-19,-48,-34,0
-39,-87,-48,63,4,-68,48,-19,-19,-48,-34,0
-34,-87,-53,61,9,-70,48,-14,-19,-48,-34,0
-43,-97,-53,70,4,-75,53,-14,-19,-43,-24,0
-43,-97,-53,70,4,-75,53,-14,-19,-43,-19,0
-48,-97,-48,73,0,-73,53,-9,-19,-43,-19,-4
-48,-97,-48,73,0,-73,53,-9,-19,-43,-19,-4
-48,-97,-48,73,0,-73,53,0,-14,-43,-19,-4
-48,-97,-48,73,0,-73,53,0,-14,-43,-19,0
-48,-97,-48,73,0,-73,53,0,-14,-43,-19,0
-48,-97,-48,73,0,-73,58,4,-14,-43,-19,0
-48,-107,-58,78,4,-82,58,-4,-14,-43,-29,0
-53,-107,-53,80,0,-80,58,-4,-14,-43,-34,0
-53,-107,-53,80,0,-80,58,-4,-14,-39,-34,0
-53,-107,-53,80,0,-80,58,-4,-9,-39,-34,-9
-43,-102,-58,73,7,-80,58,-4,-9,-43,-34,-9
-43,-97,-53,70,4,-75,58,-4,-14,-43,-34,-9
-43,-92,-48,68,2,-70,58,-4,-14,-43,-34,-9
-43,-87,-43,65,0,-65,58,-4,-9,-43,-34,-9
-43,-97,-53,70,4,-75,63,4,0,-34,-29,-14
-43,-97,-53,70,4,-75,63,4,0,-34,-29,-14
-43,-97,-53,70,4,-75,63,4,0,-34,-29,-19
-43,-97,-53,70,4,-75,63,4,0,-34,-34,-29
-53,-97,-43,75,-4,-70,63,4,-4,-43,-34,-19
-58,-97,-39,78,-9,-68,63,4,-4,-43,-34,-19
-58,-97,-39,78,-9,-68,63,4,-4,-43,-34,-19
-58,-97,-39,78,-9,-68,63,4,-4,-43,-34,-24
-58,-102,-43,80,-7,-73,63,-4,-4,-43,-43,-14
-58,-102,-43,80,-7,-73,63,-4,-4,-43,-43,-14
-58,-102,-43,80,-7,-73,63,-4,-4,-48,-43,-14
-58,-102,-43,80,-7,-73,63,-4,-4,-48,-43,-14
-58,-97,-39,78,-9,-68,63,4,-4,-48,-39,-24
-58,-97,-39,78,-9,-68,63,0,-4,-48,-48,-24
-58,-102,-43,80,-7,-73,63,0,-4,-48,-48,-24
-58,-102,-43,80,-7,-73,58,0,-4,-53,-43,-24
-68,-102,-34,85,-17,-68,58,-9,-19,-53,-53,-24
-68,-102,-34,85,-17,-68,58,-9,-19,-53,-53,-24
-68,-102,-34,85,-17,-68,63,-14,-19,-53,-53,-24
-68,-102,-34,85,-17,-68,63,-14,-19,-53,-53,-24
-58,-102,-43,80,-7,-73,63,-4,-9,-53,-43,-19
-58,-102,-43,80,-7,-73,63,-4,-9,-53,-48,-19
-58,-102,-43,80,-7,-73,58,-4,-9,-58,-48,-19
-58,-102,-43,80,-7,-73,58,-9,-9,-58,-48,-19
-68,-102,-34,85,-17,-68,58,-9,-19,-58,-58,-29
-68,-107,-39,87,-14,-73,58,-9,-19,-58,-58,-29
-68,-107,-39,87,-14,-73,58,-9,-19,-58,-58,-29
-68,-107,-39,87,-14,-73,53,-9,-19,-58,-58,-29
-68,-97,-29,82,-19,-63,53,-19,-19,-58,-48,-29
-63,-97,-34,80,-14,-65,53,-19,-24,-63,-48,-29
-58,-97,-39,78,-9,-68,53,-24,-24,-63,-48,-29
-53,-97,-43,75,-4,-70,53,-24,-24,-63,-48,-29
-63,-107,-43,85,-9,-75,53,-24,-24,-73,-58,-39
-63,-107,-43,85,-9,-75,53,-24,-29,-73,-58,-39
-63,-107,-43,85,-9,-75,53,-29,-29,-73,-63,-39
-63,-107,-43,85,-9,-75,53,-29,-29,-73,-63,-39
-63,-97,-34,80,-14,-65,48,-19,-19,-68,-53,-39
-63,-97,-34,80,-14,-65,48,-19,-19,-68,-53,-39
-63,-97,-34,80,-14,-65,48,-24,-19,-63,-53,-39
-63,-97,-34,80,-14,-65,48,-24,-19,-58,-53,-39
-63,-102,-39,82,-12,-70,58,-24,-24,-68,-63,-39
-63,-102,-39,82,-12,-70,58,-24,-24,-68,-63,-34
-63,-102,-39,82,-12,-70,58,-29,-24,-68,-63,-34
-63,-102,-39,82,-12,-70,58,-29,-24,-68,-63,-34
-58,-112,-53,85,-2,-82,48,-24,-29,-63,-63,-24
-58,-107,-48,82,-4,-78,48,-24,-29,-63,-58,-19
-58,-107,-48,82,-4,-78,48,-24,-29,-63,-58,-19
-53,-102,-48,78,-2,-75,48,-24,-29,-63,-53,-19
-53,-97,-43,75,-4,-70,58,-24,-24,-53,-53,-29
-43,-92,-48,68,2,-70,58,-14,-14,-53,-43,-24
-53,-82,-29,68,-12,-56,63,-14,-4,-43,-43,-24
-53,-73,-19,63,-17,-46,63,-14,-9,-43,-43,-14
-48,-68,-19,58,-14,-43,58,-19,0,-39,-39,-19
-48,-68,-19,58,-14,-43,48,-19,9,-29,-29,-14
-48,-68,-19,58,-14,-43,48,-19,9,-29,-29,-9
-48,-68,-19,58,-14,-43,48,-19,9,-29,-29,-4
-48,-68,-19,58,-14,-43,48,-19,9,-29,-29,0
-53,-68,-14,61,-19,-41,53,-19,9,-24,-29,0
-53,-58,-4,56,-24,-31,53,-24,14,-24,-29,0
-53,-58,-4,56,-24,-31,43,-24,14,-24,-24,0
-53,-53,0,53,-26,-26,43,-24,19,-24,-24,0
-43,-53,-9,48,-17,-31,48,-24,19,-24,-24,-4
-39,-58,-19,48,-9,-39,48,-24,19,-19,-24,-4
-39,-58,-19,48,-9,-39,48,-14,24,-19,-19,-4
-39,-58,-19,48,-9,-39,58,-9,34,-4,-19,0
-43,-48,-4,46,-19,-26,48,-9,39,-4,0,14
-43,-43,0,43,-21,-21,48,-9,43,0,4,19
-39,-29,9,34,-24,-9,39,-14,48,9,9,29
-39,-24,14,31,-26,-4,34,-19,53,14,14,39
-24,-19,4,21,-14,-7,9,-34,63,14,4,29
-19,-19,0,19,-9,-9,-4,-43,63,14,4,29
-19,-19,0,19,-9,-9,-14,-53,53,9,9,29
-19,-19,0,19,-9,-9,-19,-58,48,9,9,34
-19,-14,4,17,-12,-4,-19,-48,39,0,4,24
-14,-14,0,14,-7,-7,-19,-43,39,0,4,24
-9,-19,-9,14,0,-14,-19,-43,39,-4,4,24
-9,-19,-9,14,0,-14,-19,-48,29,-4,4,24
-19,-19,0,19,-9,-9,-34,-63,29,-4,9,34
-19,-14,4,17,-12,-4,-39,-73,24,-4,9,34
-24,-14,9,19,-17,-2,-48,-87,14,-14,0,34
-24,-4,19,14,-21,7,-53,-97,9,-19,0,34
-24,9,34,7,-29,21,-43,-97,19,-9,0,34
-24,9,34,7,-29,21,-43,-97,19,-9,4,39
-24,4,29,9,-26,17,-48,-97,14,-9,4,39
-24,4,29,9,-26,17,-48,-97,9,-9,0,39
-19,4,24,7,-21,14,-39,-97,4,-14,4,39
-14,-4,9,9,-12,2,-34,-92,0,-14,9,43
0,-4,-4,2,2,-4,-29,-82,-4,-14,14,43
9,-14,-24,2,17,-19,-29,-78,-4,-19,19,43
4,-14,-19,4,12,-17,-34,-87,-9,-19,14,48
4,-4,-9,0,7,-7,-34,-87,-9,-19,14,48
4,-4,-9,0,7,-7,-29,-87,-4,-19,14,48
4,-4,-9,0,7,-7,-29,-87,-4,-19,9,48
-4,-9,-4,7,0,-7,-29,-87,-14,-19,0,48
-9,-9,0,9,-4,-4,-29,-92,-14,-19,0,43
-14,-9,4,12,-9,-2,-34,-102,-14,-24,0,43
-14,-9,4,12,-9,-2,-34,-102,-19,-24,0,43
-29,-29,0,29,-14,-14,-19,-87,-9,-29,-4,39
-29,-39,-9,34,-9,-24,-9,-82,-9,-29,-9,24
-43,-53,-9,48,-17,-31,4,-68,-4,-29,-9,14
-58,-73,-14,65,-21,-43,24,-58,-4,-39,-19,0
-73,-78,-4,75,-34,-41,19,-68,-9,-43,-29,-9
-78,-92,-14,85,-31,-53,29,-63,-14,-48,-39,-24
-82,-97,-14,90,-34,-56,29,-63,-19,-53,-39,-29
-82,-102,-19,92,-31,-61,34,-63,-24,-58,-43,-29
-73,-112,-39,92,-17,-75,39,-53,-24,-63,-48,-34
-73,-122,-48,97,-12,-85,39,-53,-29,-68,-58,-39
-82,-122,-39,102,-21,-80,39,-53,-34,-68,-58,-43
-82,-126,-43,104,-19,-85,39,-53,-34,-73,-58,-43
-68,-131,-63,100,-2,-97,39,-53,-39,-63,-53,-34
-68,-131,-63,100,-2,-97,39,-53,-39,-63,-58,-39
-73,-131,-58,102,-7,-95,39,-53,-34,-63,-58,-39
-73,-131,-58,102,-7,-95,39,-53,-34,-63,-53,-39
-82,-122,-39,102,-21,-80,43,-63,-34,-73,-63,-43
-82,-126,-43,104,-19,-85,43,-63,-39,-73,-68,-43
-82,-126,-43,104,-19,-85,43,-63,-39,-73,-68,-43
-92,-126,-34,109,-29,-80,43,-63,-39,-78,-68,-43
-82,-131,-48,107,-17,-90,34,-68,-39,-78,-68,-53
-82,-131,-48,107,-17,-90,34,-68,-39,-78,-68,-53
-87,-131,-43,109,-21,-87,34,-68,-39,-78,-73,-58
-87,-131,-43,109,-21,-87,34,-68,-43,-82,-73,-58
-87,-141,-53,114,-17,-97,43,-68,-43,-82,-73,-48
-87,-141,-53,114,-17,-97,43,-68,-43,-82,-73,-48
-87,-141,-53,114,-17,-97,43,-63,-43,-82,-73,-48
-87,-146,-58,117,-14,-102,43,-63,-43,-82,-73,-48
-87,-146,-58,117,-14,-102,48,-53,-43,-73,-63,-48
-92,-146,-53,119,-19,-100,48,-53,-43,-73,-63,-53
-92,-156,-63,124,-14,-109,48,-53,-43,-73,-63,-53
-92,-156,-63,124,-14,-109,48,-53,-43,-73,-63,-53
-102,-165,-63,134,-19,-114,58,-53,-43,-78,-68,-53
-102,-161,-58,131,-21,-109,58,-53,-43,-78,-68,-58
-97,-161,-63,129,-17,-112,58,-53,-43,-73,-68,-58
-97,-161,-63,129,-17,-112,58,-53,-43,-73,-68,-58
-102,-161,-58,131,-21,-109,58,-43,-43,-73,-68,-58
-102,-161,-58,131,-21,-109,63,-43,-43,-78,-68,-58
-102,-161,-58,131,-21,-109,63,-48,-43,-78,-73,-58
-102,-165,-63,134,-19,-114,63,-48,-43,-78,-73,-58
-92,-156,-63,124,-14,-109,63,-39,-43,-87,-82,-73
-73,-151,-78,112,2,-114,63,-29,-34,-78,-82,-82
-82,-161,-78,122,-2,-119,68,-34,-24,-68,-82,-82
-102,-161,-58,131,-21,-109,73,-34,-9,-53,-73,-82
-102,-161,-58,131,-21,-109,82,-29,-14,-48,-63,-82
-97,-161,-63,129,-17,-112,87,-19,-4,-34,-48,-63
-92,-141,-48,117,-21,-95,78,-4,39,14,-4,-24
-78,-97,-19,87,-29,-58,78,29,107,112,92,34
-39,-39,0,39,-19,-19,97,97,204,234,204,136
19,34,14,-26,2,24,107,151,302,370,361,263
92,122,29,-107,31,75,43,156,370,517,566,448
185,248,63,-217,61,156,-68,63,390,653,800,673
283,405,122,-344,80,263,-200,-78,390,751,1024,907
366,541,175,-453,95,358,-331,-209,366,805,1215,1132
468,688,219,-578,124,453,-463,-346,312,844,1405,1356
575,858,283,-717,146,570,-634,-536,248,873,1590,1586
658,1049,390,-854,134,719,-834,-775,175,888,1751,1805
722,1224,502,-973,109,863,-1024,-1019,102,888,1883,1991
775,1342,566,-1058,104,954,-1171,-1215,4,854,1971,2137
814,1356,541,-1085,136,949,-1234,-1327,-131,780,2005,2220
829,1249,419,-1039,204,834,-1249,-1371,-287,658,1961,2210
824,1093,268,-958,278,680,-1244,-1410,-463,507,1873,2152
814,971,156,-893,329,563,-1254,-1493,-610,370,1786,2088
756,824,68,-790,344,446,-1210,-1522,-741,244,1644,1976
678,600,-78,-639,378,261,-1122,-1488,-893,53,1405,1751
605,336,-268,-470,436,34,-1010,-1405,-1049,-195,1049,1420
512,131,-380,-322,446,-124,-907,-1337,-1190,-444,644,1049
405,9,-395,-207,400,-192,-824,-1288,-1254,-644,287,741
297,-82,-380,-107,339,-231,-771,-1263,-1278,-805,-19,453
195,-190,-385,-2,290,-287,-702,-1190,-1268,-932,-326,131
107,-258,-366,75,236,-312,-595,-1058,-1195,-966,-517,-136
39,-263,-302,112,170,-283,-517,-956,-1054,-878,-536,-219
-29,-263,-234,146,102,-248,-439,-858,-917,-800,-536,-253
-78,-283,-204,180,63,-244,-341,-732,-829,-824,-668,-380
-107,-292,-185,200,39,-239,-258,-605,-732,-785,-717,-439
-112,-283,-170,197,29,-226,-204,-497,-595,-639,-590,-385
-112,-278,-165,195,26,-222,-156,-390,-463,-497,-478,-341
-117,-268,-151,192,17,-209,-87,-273,-375,-419,-429,-336
-126,-244,-117,185,-4,-180,-29,-185,-292,-346,-361,-302
-126,-224,-97,175,-14,-161,9,-122,-214,-273,-302,-258
-117,-209,-92,163,-12,-151,24,-92,-175,-234,-258,-219
-102,-180,-78,141,-12,-129,43,-63,-136,-190,-219,-200
-97,-175,-78,136,-9,-126,58,-34,-97,-151,-190,-175
-97,-180,-82,139,-7,-131,78,-4,-68,-122,-161,-170
-97,-180,-82,139,-7,-131,102,19,-48,-107,-146,-161
-97,-175,-78,136,-9,-126,117,34,-39,-97,-146,-156
-102,-175,-73,139,-14,-124,117,39,-14,-82,-136,-146
-102,-170,-68,136,-17,-119,122,58,0,-63,-122,-151
-112,-180,-68,146,-21,-124,122,53,-4,-73,-126,-161
-112,-180,-68,146,-21,-124,126,63,-4,-68,-131,-161
-112,-180,-68,146,-21,-124,126,63,0,-68,-131,-161
-112,-180,-68,146,-21,-124,126,63,4,-63,-126,-161
-112,-190,-78,151,-17,-134,131,68,14,-58,-126,-161
-112,-190,-78,151,-17,-134,131,73,14,-58,-126,-156
-112,-190,-78,151,-17,-134,131,73,19,-58,-126,-156
-117,-190,-73,153,-21,-131,136,73,19,-53,-126,-156
-107,-180,-73,143,-17,-126,126,73,9,-63,-122,-156
-107,-180,-73,143,-17,-126,126,73,14,-58,-122,-156
-107,-180,-73,143,-17,-126,131,73,14,-53,-122,-156
-107,-180,-73,143,-17,-126,131,68,19,-48,-117,-156
-107,-180,-73,143,-17,-126,141,82,29,-43,-107,-146
-107,-175,-68,141,-19,-122,146,92,34,-39,-102,-141
-107,-175,-68,141,-19,-122,146,97,39,-29,-102,-141
-107,-180,-73,143,-17,-126,146,102,48,-24,-102,-141
-112,-190,-78,151,-17,-134,146,102,39,-34,-102,-141
-112,-190,-78,151,-17,-134,146,102,39,-34,-102,-141
-112,-185,-73,148,-19,-129,146,102,43,-29,-102,-141
-112,-185,-73,148,-19,-129,146,102,43,-29,-102,-141
-112,-190,-78,151,-17,-134,146,102,43,-39,-107,-146
-112,-190,-78,151,-17,-134,151,112,48,-39,-107,-151
-112,-185,-73,148,-19,-129,151,112,48,-34,-107,-156
-112,-185,-73,148,-19,-129,151,112,48,-29,-107,-161
-97,-175,-78,136,-9,-126,141,102,39,-29,-102,-165
-97,-170,-73,134,-12,-122,141,107,39,-29,-102,-165
-97,-170,-73,134,-12,-122,141,107,39,-29,-102,-165
-97,-170,-73,134,-12,-122,146,112,43,-24,-97,-165
-97,-180,-82,139,-7,-131,151,122,48,-19,-97,-151
-97,-180,-82,139,-7,-131,156,122,58,-9,-92,-151
-97,-180,-82,139,-7,-131,161,126,63,-4,-92,-151
-97,-180,-82,139,-7,-131,165,136,68,0,-92,-151
-107,-190,-82,148,-12,-136,165,146,58,-9,-82,-141
-102,-190,-87,146,-7,-139,165,151,58,-4,-82,-141
-102,-185,-82,143,-9,-134,165,151,63,-4,-82,-141
-102,-185,-82,143,-9,-134,165,156,63,-4,-78,-141
-87,-180,-92,134,2,-136,156,146,73,-4,-82,-151
-87,-180,-92,134,2,-136,156,151,73,-4,-87,-146
-87,-180,-92,134,2,-136,161,156,78,-4,-92,-146
-87,-180,-92,134,2,-136,161,156,78,0,-97,-146
-87,-175,-87,131,0,-131,161,165,87,9,-87,-146
-87,-170,-82,129,-2,-126,161,165,87,9,-87,-146
-87,-161,-73,124,-7,-117,161,170,92,14,-82,-146
-87,-156,-68,122,-9,-112,165,175,92,14,-82,-146
-73,-165,-92,119,9,-129,170,180,92,14,-73,-146
-73,-165,-92,119,9,-129,175,190,97,14,-73,-146
-73,-165,-92,119,9,-129,185,195,97,19,-73,-146
-73,-165,-92,119,9,-129,195,200,97,19,-73,-146
-82,-170,-87,126,2,-129,195,214,102,24,-82,-156
-78,-170,-92,124,7,-131,195,219,102,24,-82,-156
-78,-170,-92,124,7,-131,195,224,102,24,-78,-151
-78,-170,-92,124,7,-131,195,234,107,29,-78,-151
-63,-161,-97,112,17,-129,195,229,107,39,-78,-141
-63,-156,-92,109,14,-124,195,239,117,43,-78,-141
-58,-146,-87,102,14,-117,190,253,122,53,-78,-141
-58,-141,-82,100,12,-112,185,258,122,53,-73,-141
-68,-141,-73,104,2,-107,190,268,117,48,-73,-141
-63,-131,-68,97,2,-100,190,278,122,53,-73,-141
-63,-131,-68,97,2,-100,195,287,126,58,-68,-141
-53,-131,-78,92,12,-104,204,297,131,63,-68,-136
-48,-122,-73,85,12,-97,204,307,141,73,-48,-136
-48,-117,-68,82,9,-92,204,312,151,87,-48,-136
-43,-112,-68,78,12,-90,204,331,161,97,-48,-131
-39,-107,-68,73,14,-87,209,346,170,102,-43,-131
-34,-102,-68,68,17,-85,204,351,180,122,-48,-141
-29,-97,-68,63,19,-82,204,366,185,122,-43,-141
-24,-92,-68,58,21,-80,204,380,195,136,-39,-136
-14,-82,-68,48,26,-75,209,395,204,141,-39,-136
-4,-78,-73,41,34,-75,214,400,204,141,-34,-136
0,-63,-63,31,31,-63,214,419,214,151,-34,-126
9,-53,-63,21,36,-58,214,434,224,161,-24,-122
14,-43,-58,14,36,-51,214,458,234,175,-14,-117
29,-29,-58,0,43,-43,219,468,253,190,-9,-117
29,-14,-43,-7,36,-29,219,488,268,204,-4,-112
43,0,-43,-21,43,-21,219,497,283,224,0,-107
53,19,-34,-36,43,-7,219,522,297,239,9,-102
48,19,-29,-34,39,-4,209,522,302,253,14,-97
53,34,-19,-43,36,7,209,541,312,268,19,-92
63,39,-24,-51,43,7,209,551,322,273,24,-87
73,53,-19,-63,46,17,209,566,331,283,29,-82
73,78,4,-75,34,41,200,575,341,292,48,-73
82,87,4,-85,39,46,195,580,351,302,48,-73
87,102,14,-95,36,58,195,585,361,312,53,-73
97,112,14,-104,41,63,185,590,361,317,53,-68
102,126,24,-114,39,75,180,585,370,326,53,-78
112,136,24,-124,43,80,180,590,375,331,58,-73
117,141,24,-129,46,82,175,595,375,336,58,-73
122,151,29,-136,46,90,170,595,375,341,58,-73
126,165,39,-146,43,102,175,595,380,346,58,-78
126,170,43,-148,41,107,170,585,380,346,63,-78
126,175,48,-151,39,112,156,580,385,346,63,-78
131,185,53,-158,39,119,146,575,385,346,63,-73
122,180,58,-151,31,119,146,556,366,331,53,-63
122,180,58,-151,31,119,141,541,366,331,43,-63
122,180,58,-151,31,119,136,527,361,322,39,-63
122,180,58,-151,31,119,126,512,356,317,39,-63
122,180,58,-151,31,119,112,492,356,317,43,-63
122,180,58,-151,31,119,107,473,346,307,39,-68
117,175,58,-146,29,117,102,453,336,302,34,-68
112,170,58,-141,26,114,97,434,326,287,29,-68
107,165,58,-136,24,112,102,424,317,278,24,-78
97,161,63,-129,17,112,97,395,307,268,19,-78
92,146,53,-119,19,100,92,370,297,258,19,-82
87,136,48,-112,19,92,87,346,283,239,14,-82
82,126,43,-104,19,85,97,326,273,234,24,-78
73,112,39,-92,17,75,92,307,263,224,24,-73
58,92,34,-75,12,63,87,283,248,214,24,-68
53,82,29,-68,12,56,82,268,234,195,24,-63
34,73,39,-53,-2,56,87,248,229,190,14,-73
34,58,24,-46,4,41,87,229,214,180,14,-68
19,43,24,-31,-2,34,82,204,204,170,14,-68
19,29,9,-24,4,19,82,185,195,161,14,-63
19,34,14,-26,2,24,82,170,190,141,14,-58
14,24,9,-19,2,17,78,161,180,131,14,-53
19,9,-9,-14,14,0,78,146,170,122,14,-53
9,4,-4,-7,7,0,78,131,161,112,14,-53
0,-4,-4,2,2,-4,82,122,161,112,14,-63
-4,-19,-14,12,4,-17,78,107,151,102,4,-63
-4,-24,-19,14,7,-21,78,97,141,92,4,-63
-9,-29,-19,19,4,-24,78,82,136,87,4,-63
-9,-29,-19,19,4,-24,78,73,126,78,4,-63
-14,-34,-19,24,2,-26,78,68,122,73,0,-63
-19,-43,-24,31,2,-34,78,68,112,63,-4,-63
-24,-43,-19,34,-2,-31,78,63,112,58,-9,-63
-39,-48,-9,43,-14,-29,82,63,97,53,-9,-73
-39,-53,-14,46,-12,-34,82,58,92,48,-9,-73
-39,-58,-19,48,-9,-39,82,48,87,48,-9,-73
-43,-63,-19,53,-12,-41,82,48,82,43,-9,-73
-34,-68,-34,51,0,-51,82,43,87,29,-24,-82
-39,-68,-29,53,-4,-48,82,39,87,24,-24,-87
-39,-73,-34,56,-2,-53,82,34,87,24,-24,-87
-39,-78,-39,58,0,-58,82,34,82,24,-29,-87
-39,-68,-29,53,-4,-48,92,34,92,29,-19,-82
-39,-68,-29,53,-4,-48,92,24,82,24,-24,-82
-43,-68,-24,56,-9,-46,92,24,82,24,-24,-78
-43,-68,-24,56,-9,-46,92,24,82,24,-24,-78
-34,-58,-24,46,-4,-41,87,24,68,14,-24,-68
-34,-63,-29,48,-2,-46,82,24,63,9,-24,-68
-34,-63,-29,48,-2,-46,78,19,63,9,-24,-68
-34,-63,-29,48,-2,-46,73,19,68,9,-24,-68
-39,-68,-29,53,-4,-48,78,29,78,9,-24,-78
-43,-73,-29,58,-7,-51,82,29,78,9,-24,-78
-48,-73,-24,61,-12,-48,87,29,78,9,-24,-78
-53,-78,-24,65,-14,-51,92,29,78,9,-24,-78
-48,-68,-19,58,-14,-43,82,29,78,4,-34,-78
-48,-78,-29,63,-9,-53,82,29,73,4,-34,-78
-48,-78,-29,63,-9,-53,82,29,73,4,-34,-78
-48,-78,-29,63,-9,-53,82,29,73,4,-34,-78
-58,-78,-19,68,-19,-48,82,29,63,14,-39,-87
-58,-78,-19,68,-19,-48,82,29,63,14,-39,-87
-58,-78,-19,68,-19,-48,82,24,63,14,-39,-87
-53,-78,-24,65,-14,-51,82,24,63,14,-39,-87
-43,-68,-24,56,-9,-46,82,19,63,14,-29,-82
-43,-68,-24,56,-9,-46,82,19,63,14,-29,-82
-43,-68,-24,56,-9,-46,82,19,63,14,-29,-78
-43,-68,-24,56,-9,-46,82,19,63,14,-24,-78
-53,-68,-14,61,-19,-41,82,29,63,14,-34,-87
-53,-68,-14,61,-19,-41,82,29,63,19,-34,-87
-53,-68,-14,61,-19,-41,82,29,63,19,-34,-87
-53,-68,-14,61,-19,-41,82,34,58,19,-34,-87
-53,-68,-14,61,-19,-41,82,24,58,9,-24,-87
-53,-68,-14,61,-19,-41,87,24,63,9,-24,-87
-53,-68,-14,61,-19,-41,87,24,63,9,-24,-87
-53,-68,-14,61,-19,-41,87,29,63,9,-19,-87
-53,-78,-24,65,-14,-51,97,39,73,14,-19,-73
-53,-78,-24,65,-14,-51,97,39,73,19,-19,-73
-53,-78,-24,65,-14,-51,97,39,73,24,-19,-78
-53,-78,-24,65,-14,-51,97,39,78,29,-19,-78
-48,-78,-29,63,-9,-53,87,39,78,19,-19,-87
-48,-78,-29,63,-9,-53,87,39,78,19,-24,-87
-48,-78,-29,63,-9,-53,87,39,78,19,-24,-87
-43,-78,-34,61,-4,-56,87,43,78,19,-24,-87
-53,-68,-14,61,-19,-41,92,43,78,24,-24,-78
-53,-68,-14,61,-19,-41,92,43,78,24,-19,-78
-58,-68,-9,63,-24,-39,92,48,78,24,-19,-82
-58,-68,-9,63,-24,-39,92,48,78,24,-19,-82
-48,-68,-19,58,-14,-43,92,48,73,34,-29,-92
-48,-68,-19,58,-14,-43,92,48,73,34,-29,-87
-48,-68,-19,58,-14,-43,92,48,73,34,-29,-87
-48,-68,-19,58,-14,-43,97,53,73,34,-29,-87
-48,-78,-29,63,-9,-53,97,63,82,34,-19,-78
-53,-78,-24,65,-14,-51,97,63,82,34,-24,-78
-53,-78,-24,65,-14,-51,97,63,82,39,-24,-78
-53,-78,-24,65,-14,-51,97,63,87,39,-24,-87
-53,-78,-24,65,-14,-51,97,53,78,24,-34,-97
-53,-78,-24,65,-14,-51,97,53,73,24,-34,-97
-53,-78,-24,65,-14,-51,97,53,73,24,-34,-97
-53,-78,-24,65,-14,-51,97,53,78,24,-34,-97
-53,-68,-14,61,-19,-41,92,53,78,14,-39,-107
-53,-68,-14,61,-19,-41,92,53,78,14,-39,-102
-53,-68,-14,61,-19,-41,92,53,78,14,-39,-102
-53,-68,-14,61,-19,-41,92,53,78,14,-43,-107
-53,-78,-24,65,-14,-51,102,53,82,24,-34,-97
-58,-78,-19,68,-19,-48,102,53,82,24,-34,-97
-58,-78,-19,68,-19,-48,102,53,82,24,-34,-97
-58,-78,-19,68,-19,-48,102,53,82,24,-34,-102
-58,-73,-14,65,-21,-43,92,53,82,24,-43,-102
-58,-73,-14,65,-21,-43,92,53,82,24,-43,-102
-58,-73,-14,65,-21,-43,92,53,82,19,-43,-102
-58,-73,-14,65,-21,-43,92,53,82,19,-43,-102
-58,-68,-9,63,-24,-39,92,53,73,19,-48,-102
-58,-68,-9,63,-24,-39,92,48,73,19,-58,-102
-58,-73,-14,65,-21,-43,92,48,73,19,-58,-102
-58,-73,-14,65,-21,-43,87,48,73,14,-53,-102
-68,-82,-14,75,-26,-48,87,48,68,14,-53,-112
-68,-82,-14,75,-26,-48,87,48,68,14,-53,-112
-68,-82,-14,75,-26,-48,92,43,68,14,-53,-112
-68,-82,-14,75,-26,-48,92,43,68,14,-53,-112
-58,-73,-14,65,-21,-43,92,43,68,14,-53,-107
-58,-73,-14,65,-21,-43,92,43,68,14,-58,-107
-58,-73,-14,65,-21,-43,87,43,68,9,-58,-107
-58,-73,-14,65,-21,-43,87,39,68,9,-58,-107
-58,-63,-4,61,-26,-34,87,39,68,9,-48,-97
-58,-68,-9,63,-24,-39,87,39,68,9,-48,-97
-58,-68,-9,63,-24,-39,87,39,68,9,-48,-97
-58,-68,-9,63,-24,-39,82,39,68,9,-48,-97
-53,-68,-14,61,-19,-41,82,39,68,9,-48,-107
-53,-68,-14,61,-19,-41,82,39,63,4,-48,-107
-53,-68,-14,61,-19,-41,82,34,63,4,-48,-107
-53,-68,-14,61,-19,-41,82,34,63,4,-48,-107
-63,-78,-14,70,-24,-46,82,34,63,-4,-58,-117
-63,-78,-14,70,-24,-46,82,34,58,-4,-58,-117
-63,-78,-14,70,-24,-46,82,29,58,-4,-63,-117
-63,-78,-14,70,-24,-46,82,29,58,-4,-63,-117
-63,-78,-14,70,-24,-46,87,29,58,4,-53,-107
-63,-78,-14,70,-24,-46,87,29,58,0,-53,-107
-63,-78,-14,70,-24,-46,87,24,58,0,-53,-107
-63,-78,-14,70,-24,-46,87,24,58,0,-53,-107
-53,-68,-14,61,-19,-41,87,34,58,4,-43,-102
-53,-63,-9,58,-21,-36,87,34,63,9,-43,-92
-53,-58,-4,56,-24,-31,87,29,68,14,-43,-87
-53,-53,0,53,-26,-26,87,29,73,19,-43,-82
-48,-53,-4,51,-21,-29,87,34,87,24,-43,-82
-48,-39,9,43,-29,-14,87,43,87,34,-29,-78
-39,-29,9,34,-24,-9,87,48,87,29,-19,-78
-39,-19,19,29,-29,0,78,39,97,39,-19,-78
-39,-19,19,29,-29,0,78,39,97,39,-19,-78
-39,-19,19,29,-29,0,78,39,97,39,-19,-78
-39,-19,19,29,-29,0,78,39,97,39,-19,-78
-43,-29,14,36,-29,-7,82,29,97,34,-19,-68
-43,-19,24,31,-34,2,82,24,102,34,-19,-68
-43,-19,24,31,-34,2,73,24,102,34,-14,-68
-43,-14,29,29,-36,7,73,24,107,34,-14,-68
-43,-24,19,34,-31,-2,78,24,97,34,-14,-73
-39,-29,9,34,-24,-9,78,24,97,39,-14,-73
-39,-29,9,34,-24,-9,78,34,102,39,-9,-73
-39,-29,9,34,-24,-9,87,39,112,53,-9,-68
-34,-24,9,29,-21,-7,82,29,117,63,0,-48
-34,-14,19,24,-26,2,78,29,122,68,4,-48
-29,4,34,12,-31,19,63,24,126,78,9,-43
-29,14,43,7,-36,29,53,19,131,82,14,-39
-24,9,34,7,-29,21,39,4,122,73,14,-39
-19,9,29,4,-24,19,24,-4,122,73,14,-39
-19,9,29,4,-24,19,14,-14,112,68,19,-39
-19,9,29,4,-24,19,9,-19,107,68,19,-34
-19,14,34,2,-26,24,9,-9,107,68,14,-34
-14,14,29,0,-21,21,9,-4,107,68,14,-34
-9,9,19,0,-14,14,9,-4,107,63,14,-34
-9,9,19,0,-14,14,9,-9,97,63,14,-34
-19,19,39,0,-29,29,4,-19,97,53,9,-43
-19,24,43,-2,-31,34,0,-24,92,53,9,-43
-24,24,48,0,-36,36,-9,-34,82,43,0,-43
-24,34,58,-4,-41,46,-14,-39,78,39,0,-43
-24,39,63,-7,-43,51,-4,-39,78,48,9,-34
-24,39,63,-7,-43,51,-4,-39,78,48,14,-29
-24,34,58,-4,-41,46,-9,-39,73,48,14,-29
-24,34,58,-4,-41,46,-9,-39,68,48,9,-29
-14,34,48,-9,-31,41,-9,-34,53,34,9,-29
-14,24,39,-4,-26,31,-4,-34,48,34,9,-24
-4,24,29,-9,-17,26,0,-29,43,34,9,-24
0,14,14,-7,-7,14,0,-29,43,29,9,-24
-4,19,24,-7,-14,21,-4,-39,43,39,14,-19
-4,34,39,-14,-21,36,-4,-39,48,39,14,-19
-4,39,43,-17,-24,41,0,-39,58,39,14,-19
-4,43,48,-19,-26,46,0,-39,63,39,9,-19
-4,39,43,-17,-24,41,-9,-29,53,29,9,-19
-9,39,48,-14,-29,43,-9,-34,53,29,9,-24
-14,39,53,-12,-34,46,-14,-43,53,24,9,-24
-14,39,53,-12,-34,46,-14,-43,48,24,9,-24
-29,14,43,7,-36,29,-4,-29,48,19,-4,-34
-29,0,29,14,-29,14,9,-24,48,19,-9,-43
-43,-19,24,31,-34,2,29,-9,53,19,-9,-48
-58,-43,14,51,-36,-14,53,0,53,9,-19,-58
-68,-53,14,61,-41,-19,53,-9,39,4,-29,-68
-68,-63,4,65,-36,-29,58,-4,34,0,-39,-82
-68,-63,4,65,-36,-29,53,-4,29,-4,-39,-87
-63,-63,0,63,-31,-31,53,-4,24,-9,-43,-87
-63,-73,-9,68,-26,-41,48,-14,34,-14,-48,-92
-63,-82,-19,73,-21,-51,48,-14,29,-19,-58,-97
-73,-82,-9,78,-31,-46,48,-14,24,-19,-58,-102
-73,-87,-14,80,-29,-51,48,-14,24,-24,-58,-102
-68,-82,-14,75,-26,-48,58,-14,19,-24,-63,-102
-68,-82,-14,75,-26,-48,58,-14,19,-24,-68,-107
-73,-82,-9,78,-31,-46,58,-14,24,-24,-68,-107
-73,-82,-9,78,-31,-46,58,-14,24,-24,-63,-107
-63,-73,-9,68,-26,-41,53,-14,24,-24,-63,-112
-63,-78,-14,70,-24,-46,53,-14,19,-24,-68,-112
-63,-78,-14,70,-24,-46,53,-14,19,-24,-68,-112
-73,-78,-4,75,-34,-41,53,-14,19,-29,-68,-112
-73,-92,-19,82,-26,-56,63,-19,9,-29,-68,-102
-73,-92,-19,82,-26,-56,63,-19,9,-29,-68,-102
-78,-92,-14,85,-31,-53,63,-19,9,-29,-73,-107
-78,-92,-14,85,-31,-53,63,-19,4,-34,-73,-107
-73,-82,-9,78,-31,-46,63,-19,9,-24,-73,-107
-68,-82,-14,75,-26,-48,63,-19,14,-24,-73,-107
-63,-82,-19,73,-21,-51,63,-14,19,-24,-73,-107
-58,-87,-29,73,-14,-58,63,-14,24,-24,-73,-107
-63,-97,-34,80,-14,-65,68,-14,14,-34,-82,-117
-73,-97,-24,85,-24,-61,68,-14,14,-34,-82,-122
-78,-107,-29,92,-24,-68,68,-14,14,-34,-82,-122
-82,-107,-24,95,-29,-65,68,-14,14,-34,-82,-122
-82,-107,-24,95,-29,-65,68,-14,14,-39,-87,-122
-82,-102,-19,92,-31,-61,68,-14,14,-39,-87,-126
-78,-102,-24,90,-26,-63,68,-14,14,-34,-87,-126
-78,-102,-24,90,-26,-63,68,-14,14,-34,-87,-126
-82,-102,-19,92,-31,-61,58,-14,14,-34,-78,-117
-82,-102,-19,92,-31,-61,63,-14,14,-39,-78,-117
-82,-102,-19,92,-31,-61,63,-19,14,-39,-82,-117
-82,-107,-24,95,-29,-65,63,-19,14,-39,-82,-117
-82,-107,-24,95,-29,-65,63,-9,14,-39,-82,-122
-82,-112,-29,97,-26,-70,82,0,24,-29,-82,-131
-82,-102,-19,92,-31,-61,87,14,43,-19,-82,-122
-73,-102,-29,87,-21,-65,82,14,39,-14,-73,-131
-73,-92,-19,82,-26,-56,82,9,53,0,-63,-131
-68,-82,-14,75,-26,-48,78,19,82,43,-19,-102
-53,-43,9,48,-31,-17,87,43,136,112,43,-53
-29,9,39,9,-34,24,97,87,214,219,151,34
9,68,58,-39,-24,63,97,156,322,361,292,146
78,161,82,-119,-2,122,68,180,409,517,507,322
151,268,117,-209,17,192,-24,126,448,673,741,556
234,405,170,-319,31,287,-136,14,439,780,995,800
322,551,229,-436,46,390,-258,-107,409,849,1220,1044
414,707,292,-561,61,500,-380,-239,366,902,1429,1278
507,873,366,-690,70,619,-531,-405,283,922,1620,1522
585,1063,478,-824,53,771,-712,-605,200,941,1795,1751
649,1244,595,-946,26,919,-912,-824,117,946,1947,1961
702,1390,688,-1046,7,1039,-1073,-1029,14,927,2069,2127
746,1439,692,-1093,26,1066,-1171,-1166,-112,863,2137,2235
766,1366,600,-1066,82,983,-1185,-1210,-268,771,2142,2269
780,1229,448,-1005,165,839,-1180,-1215,-434,639,2069,2230
775,1102,326,-939,224,714,-1176,-1273,-580,497,1981,2171
727,971,244,-849,241,607,-1156,-1327,-707,380,1883,2098
668,766,97,-717,285,431,-1083,-1307,-829,224,1693,1927
600,512,-87,-556,344,212,-966,-1234,-971,4,1385,1634
517,278,-239,-397,378,19,-873,-1171,-1117,-244,990,1283
424,131,-292,-278,358,-80,-790,-1122,-1200,-463,595,941
336,48,-287,-192,312,-119,-736,-1102,-1244,-644,258,653
248,-43,-292,-102,270,-168,-683,-1058,-1249,-805,-68,336
165,-141,-307,-12,236,-224,-595,-956,-1200,-883,-336,4
97,-190,-287,46,192,-239,-507,-854,-1078,-858,-458,-185
19,-185,-204,82,112,-195,-439,-771,-936,-790,-497,-239
-58,-214,-156,136,48,-185,-351,-663,-839,-800,-624,-351
-97,-253,-156,175,29,-204,-253,-546,-751,-805,-746,-468
-97,-244,-146,170,24,-195,-200,-458,-624,-688,-668,-448
-92,-214,-122,153,14,-168,-165,-361,-488,-531,-522,-375
-102,-209,-107,156,2,-158,-107,-263,-375,-419,-448,-361
-97,-190,-92,143,-2,-141,-48,-165,-278,-331,-390,-336
-97,-165,-68,131,-14,-117,-9,-107,-204,-258,-312,-292
-97,-146,-48,122,-24,-97,9,-73,-146,-204,-273,-278
-87,-122,-34,104,-26,-78,34,-34,-107,-165,-239,-258
-73,-102,-29,87,-21,-65,53,-4,-58,-122,-200,-229
-78,-97,-19,87,-29,-58,68,14,-19,-92,-170,-214
-78,-112,-34,95,-21,-73,87,43,0,-63,-151,-200
-78,-112,-34,95,-21,-73,102,58,9,-48,-146,-190
-78,-117,-39,97,-19,-78,117,63,19,-39,-146,-185
-82,-117,-34,100,-24,-75,117,68,34,-34,-136,-185
-82,-112,-29,97,-26,-70,112,68,29,-34,-141,-190
-82,-112,-29,97,-26,-70,112,63,34,-43,-141,-190
-82,-112,-29,97,-26,-70,117,73,34,-39,-141,-190
-82,-112,-29,97,-26,-70,117,73,39,-39,-136,-190
-82,-112,-29,97,-26,-70,117,73,43,-34,-126,-190
-92,-122,-29,107,-31,-75,122,87,53,-19,-126,-200
-92,-122,-29,107,-31,-75,122,92,53,-19,-126,-195
-92,-122,-29,107,-31,-75,122,92,58,-19,-126,-195
-97,-122,-24,109,-36,-73,126,92,58,-14,-126,-195
-87,-112,-24,100,-31,-68,126,97,58,-24,-122,-195
-87,-112,-24,100,-31,-68,126,102,63,-19,-122,-195
-87,-112,-24,100,-31,-68,131,107,63,-14,-122,-195
-87,-112,-24,100,-31,-68,131,107,68,-9,-117,-195
-87,-122,-34,104,-26,-78,122,107,73,-9,-126,-185
-87,-117,-29,102,-29,-73,126,112,73,-9,-122,-180
-87,-117,-29,102,-29,-73,126,112,73,-4,-122,-180
-87,-122,-34,104,-26,-78,126,112,78,-4,-122,-180
-82,-122,-39,102,-21,-80,136,112,78,-4,-112,-170
-82,-122,-39,102,-21,-80,136,112,78,-4,-112,-170
-82,-117,-34,100,-24,-75,136,112,82,0,-112,-170
-82,-117,-34,100,-24,-75,136,112,82,0,-112,-170
-73,-112,-39,92,-17,-75,126,112,82,0,-107,-180
-73,-112,-39,92,-17,-75,131,122,87,0,-107,-180
-73,-107,-34,90,-19,-70,131,122,87,4,-107,-180
-73,-107,-34,90,-19,-70,131,122,87,9,-107,-180
-73,-117,-43,95,-14,-80,122,112,87,9,-112,-175
-78,-112,-34,95,-21,-73,122,117,87,9,-112,-175
-82,-112,-29,97,-26,-70,122,117,87,9,-112,-175
-87,-112,-24,100,-31,-68,126,122,92,14,-107,-175
-78,-112,-34,95,-21,-73,126,131,82,14,-107,-170
-78,-112,-34,95,-21,-73,126,131,87,19,-102,-170
-78,-112,-34,95,-21,-73,126,136,87,19,-102,-170
-78,-112,-34,95,-21,-73,126,146,87,19,-102,-170
-68,-102,-34,85,-17,-68,136,146,97,9,-102,-170
-63,-102,-39,82,-12,-70,136,151,97,14,-102,-170
-63,-97,-34,80,-14,-65,136,151,102,14,-102,-170
-63,-97,-34,80,-14,-65,136,156,102,14,-97,-170
-63,-102,-39,82,-12,-70,136,146,92,24,-97,-170
-68,-102,-34,85,-17,-68,136,151,92,24,-97,-165
-73,-102,-29,87,-21,-65,141,156,97,24,-97,-165
-78,-102,-24,90,-26,-63,141,156,97,29,-97,-165
-68,-102,-34,85,-17,-68,141,165,97,19,-107,-165
-68,-102,-34,85,-17,-68,141,165,97,19,-107,-165
-68,-97,-29,82,-19,-63,141,170,102,24,-102,-165
-68,-97,-29,82,-19,-63,146,175,102,24,-102,-165
-63,-87,-24,75,-19,-56,136,170,112,34,-102,-165
-63,-87,-24,75,-19,-56,136,180,117,34,-102,-165
-63,-87,-24,75,-19,-56,141,185,117,39,-102,-165
-63,-87,-24,75,-19,-56,146,190,117,39,-102,-165
-73,-82,-9,78,-31,-46,156,204,112,43,-102,-165
-68,-82,-14,75,-26,-48,156,209,112,43,-102,-165
-68,-82,-14,75,-26,-48,156,214,112,43,-97,-161
-68,-82,-14,75,-26,-48,156,224,117,48,-97,-161
-53,-78,-24,65,-14,-51,151,219,117,48,-97,-161
-53,-78,-24,65,-14,-51,156,229,126,53,-97,-161
-48,-73,-24,61,-12,-48,156,244,131,63,-97,-161
-48,-73,-24,61,-12,-48,156,248,131,63,-92,-161
-48,-73,-24,61,-12,-48,161,258,146,68,-92,-161
-43,-63,-19,53,-12,-41,161,268,151,73,-92,-161
-43,-63,-19,53,-12,-41,165,278,156,78,-87,-161
-34,-63,-29,48,-2,-46,175,287,161,82,-87,-156
-19,-53,-34,36,7,-43,175,307,165,87,-68,-146
-19,-48,-29,34,4,-39,175,312,170,97,-68,-146
-14,-43,-29,29,7,-36,175,331,175,102,-68,-141
-9,-39,-29,24,9,-34,180,346,180,102,-63,-141
-14,-34,-19,24,2,-26,175,361,200,131,-58,-141
-9,-29,-19,19,4,-24,175,375,204,131,-53,-141
-4,-24,-19,14,7,-21,175,390,214,146,-48,-136
4,-14,-19,4,12,-17,180,405,224,151,-48,-136
4,-9,-14,2,9,-12,195,414,224,170,-43,-146
9,4,-4,-7,7,0,195,429,234,180,-43,-136
19,14,-4,-17,12,4,195,439,244,190,-34,-131
24,24,0,-24,12,12,195,458,253,204,-24,-126
39,34,-4,-36,21,14,190,478,278,214,-9,-117
39,43,4,-41,17,24,190,497,287,224,-4,-112
53,53,0,-53,26,26,190,507,297,239,0,-107
63,68,4,-65,29,36,190,531,307,248,9,-102
78,82,4,-80,36,43,180,531,312,263,14,-97
82,102,19,-92,31,61,180,551,322,278,19,-92
92,112,19,-102,36,65,180,561,331,283,24,-87
102,131,29,-117,36,80,180,575,341,292,29,-82
92,146,53,-119,19,100,180,585,351,302,29,-82
102,156,53,-129,24,104,175,590,361,312,29,-82
107,170,63,-139,21,117,175,595,370,322,34,-82
117,180,63,-148,26,122,165,600,370,326,34,-78
117,185,68,-151,24,126,161,595,380,336,34,-68
122,195,73,-158,24,134,161,600,385,341,39,-63
122,200,78,-161,21,139,156,605,385,346,39,-63
122,209,87,-165,17,148,151,605,385,351,39,-63
136,224,87,-180,24,156,146,595,380,346,29,-58
136,229,92,-183,21,161,141,585,380,346,34,-58
136,234,97,-185,19,165,126,580,385,346,34,-58
141,244,102,-192,19,173,117,575,385,346,34,-53
131,248,117,-190,7,183,117,556,366,331,34,-58
131,248,117,-190,7,183,112,541,366,331,24,-63
131,248,117,-190,7,183,107,527,361,322,19,-68
131,248,117,-190,7,183,97,512,356,317,19,-73
112,239,126,-175,-7,183,92,492,336,297,4,-73
112,239,126,-175,-7,183,87,473,326,287,0,-78
107,234,126,-170,-9,180,82,453,317,283,-4,-78
102,229,126,-165,-12,178,78,434,307,268,-9,-78
97,219,122,-158,-12,170,73,414,297,248,-4,-78
87,209,122,-148,-17,165,68,385,287,239,-9,-78
82,190,107,-136,-12,148,63,361,278,229,-9,-82
78,175,97,-126,-9,136,58,336,263,209,-14,-82
82,165,82,-124,0,124,68,317,253,204,-14,-73
73,151,78,-112,-2,114,63,297,244,195,-14,-73
58,131,73,-95,-7,102,58,273,229,185,-14,-73
53,122,68,-87,-7,95,53,258,214,165,-14,-73
53,126,73,-90,-9,100,48,244,200,161,-14,-63
53,117,63,-85,-4,90,48,219,185,151,-14,-58
39,107,68,-73,-14,87,43,190,175,141,-14,-58
39,97,58,-68,-9,78,43,165,165,131,-14,-53
24,82,58,-53,-17,70,43,156,151,112,-14,-58
14,73,58,-43,-21,65,39,141,141,102,-14,-53
14,58,43,-36,-14,51,39,122,131,92,-14,-53
0,53,53,-26,-26,53,39,102,122,82,-14,-53
0,43,43,-21,-21,43,34,97,122,73,-14,-53
-4,29,34,-12,-19,31,29,87,112,63,-24,-53
-4,24,29,-9,-17,26,29,82,102,53,-24,-53
-9,19,29,-4,-19,24,29,73,97,48,-24,-53
-9,9,19,0,-14,14,29,68,87,39,-24,-53
-14,4,19,4,-17,12,29,58,82,34,-29,-53
-19,-4,14,12,-17,4,29,53,73,24,-34,-53
-24,-4,19,14,-21,7,29,43,73,19,-39,-53
-29,-9,19,19,-24,4,34,43,58,14,-48,-53
-29,-14,14,21,-21,0,34,39,53,9,-48,-53
-29,-19,9,24,-19,-4,34,29,48,9,-48,-53
-34,-24,9,29,-21,-7,34,29,43,4,-48,-53
-34,-19,14,26,-24,-2,34,34,48,0,-43,-53
-39,-19,19,29,-29,0,34,29,48,-4,-43,-58
-39,-24,14,31,-26,-4,34,24,48,-4,-43,-58
-39,-29,9,34,-24,-9,34,24,43,-4,-48,-58
-39,-29,9,34,-24,-9,24,14,43,-9,-58,-68
-39,-29,9,34,-24,-9,24,4,34,-14,-63,-73
-43,-29,14,36,-29,-7,24,4,34,-14,-63,-73
-43,-29,14,36,-29,-7,24,4,34,-14,-63,-78
-43,-29,14,36,-29,-7,34,4,29,-14,-63,-78
-43,-34,9,39,-26,-12,34,4,24,-19,-63,-78
-43,-34,9,39,-26,-12,34,0,24,-19,-63,-78
-43,-34,9,39,-26,-12,34,0,29,-19,-63,-78
-43,-34,9,39,-26,-12,34,9,29,-19,-63,-68
-43,-34,9,39,-26,-12,34,9,29,-19,-63,-68
-43,-29,14,36,-29,-7,34,9,29,-19,-63,-68
-43,-29,14,36,-29,-7,34,9,29,-19,-63,-68
-39,-29,9,34,-24,-9,34,0,29,-24,-63,-78
-39,-39,0,39,-19,-19,34,0,24,-24,-63,-78
-39,-39,0,39,-19,-19,34,0,24,-24,-63,-78
-39,-39,0,39,-19,-19,34,0,24,-24,-63,-78
-48,-39,9,43,-29,-14,34,9,24,-14,-58,-78
-48,-39,9,43,-29,-14,34,9,24,-14,-58,-78
-48,-39,9,43,-29,-14,34,4,24,-14,-58,-78
-43,-39,4,41,-24,-17,34,4,24,-14,-58,-78
-43,-39,4,41,-24,-17,34,9,24,-14,-68,-73
-43,-39,4,41,-24,-17,34,9,24,-14,-68,-73
-43,-39,4,41,-24,-17,34,9,24,-14,-68,-68
-43,-39,4,41,-24,-17,34,9,24,-14,-63,-68
-43,-39,4,41,-24,-17,34,9,24,-24,-63,-68
-43,-39,4,41,-24,-17,34,9,24,-19,-63,-68
-43,-39,4,41,-24,-17,34,9,24,-19,-63,-68
-43,-39,4,41,-24,-17,34,14,19,-19,-63,-68
-43,-39,4,41,-24,-17,24,14,19,-9,-53,-68
-43,-39,4,41,-24,-17,29,14,24,-9,-53,-68
-43,-39,4,41,-24,-17,29,14,24,-9,-53,-68
-43,-39,4,41,-24,-17,29,19,24,-9,-48,-68
-43,-39,4,41,-24,-17,39,19,34,-9,-48,-63
-43,-39,4,41,-24,-17,39,19,34,-9,-48,-63
-43,-39,4,41,-24,-17,39,19,34,-9,-48,-68
-43,-39,4,41,-24,-17,39,19,39,-9,-48,-68
-39,-39,0,39,-19,-19,39,19,29,-19,-48,-68
-39,-39,0,39,-19,-19,39,19,29,-19,-53,-68
-39,-39,0,39,-19,-19,39,19,29,-19,-53,-68
-34,-39,-4,36,-14,-21,39,24,29,-19,-53,-68
-43,-39,4,41,-24,-17,43,24,39,-14,-53,-58
-43,-39,4,41,-24,-17,43,24,39,-14,-48,-58
-48,-39,9,43,-29,-14,43,29,39,-14,-48,-63
-48,-39,9,43,-29,-14,43,29,39,-14,-48,-63
-48,-48,0,48,-24,-24,43,29,34,-14,-48,-73
-48,-48,0,48,-24,-24,43,29,34,-14,-48,-68
-48,-48,0,48,-24,-24,43,29,34,-14,-48,-68
-48,-48,0,48,-24,-24,48,34,34,-14,-48,-68
-39,-48,-9,43,-14,-29,48,34,34,-14,-48,-68
-43,-48,-4,46,-19,-26,48,34,34,-14,-53,-68
-43,-48,-4,46,-19,-26,48,34,34,-9,-53,-68
-43,-48,-4,46,-19,-26,48,34,39,-9,-53,-78
-34,-39,-4,36,-14,-21,39,24,39,-14,-53,-68
-34,-39,-4,36,-14,-21,39,24,34,-14,-53,-68
-34,-39,-4,36,-14,-21,39,24,34,-14,-53,-68
-34,-39,-4,36,-14,-21,39,24,39,-14,-53,-68
-43,-39,4,41,-24,-17,43,34,39,-14,-68,-78
-43,-39,4,41,-24,-17,43,34,39,-14,-68,-73
-43,-39,4,41,-24,-17,43,34,39,-14,-68,-73
-43,-39,4,41,-24,-17,43,34,39,-14,-73,-78
-43,-48,-4,46,-19,-26,43,24,34,-24,-73,-78
-48,-48,0,48,-24,-24,43,24,34,-24,-73,-78
-48,-48,0,48,-24,-24,43,24,34,-24,-73,-78
-48,-48,0,48,-24,-24,43,24,34,-24,-73,-82
-48,-43,4,46,-26,-19,43,24,34,-24,-73,-82
-48,-43,4,46,-26,-19,43,24,34,-24,-73,-82
-48,-43,4,46,-26,-19,43,24,34,-29,-73,-82
-48,-43,4,46,-26,-19,43,24,34,-29,-73,-82
-58,-39,19,48,-39,-9,43,24,34,-29,-68,-82
-58,-39,19,48,-39,-9,43,19,34,-29,-78,-82
-58,-43,14,51,-36,-14,43,19,34,-29,-78,-82
-58,-43,14,51,-36,-14,39,19,34,-34,-73,-82
-48,-43,4,46,-26,-19,39,29,19,-34,-82,-92
-48,-43,4,46,-26,-19,39,29,19,-34,-82,-92
-48,-43,4,46,-26,-19,43,24,19,-34,-82,-92
-48,-43,4,46,-26,-19,43,24,19,-34,-82,-92
-48,-43,4,46,-26,-19,34,14,19,-34,-82,-87
-48,-43,4,46,-26,-19,34,14,19,-34,-87,-87
-48,-43,4,46,-26,-19,29,14,19,-39,-87,-87
-48,-43,4,46,-26,-19,29,9,19,-39,-87,-87
-58,-43,14,51,-36,-14,39,9,9,-48,-87,-87
-58,-48,9,53,-34,-19,39,9,9,-48,-87,-87
-58,-48,9,53,-34,-19,39,9,9,-48,-87,-87
-58,-48,9,53,-34,-19,34,9,9,-48,-87,-87
-53,-39,14,46,-34,-12,34,9,9,-39,-87,-87
-53,-39,14,46,-34,-12,34,9,4,-43,-87,-87
-53,-39,14,46,-34,-12,34,4,4,-43,-87,-87
-53,-39,14,46,-34,-12,34,4,4,-43,-87,-87
-43,-39,4,41,-24,-17,34,4,14,-43,-87,-78
-43,-39,4,41,-24,-17,34,4,9,-43,-87,-78
-43,-39,4,41,-24,-17,34,0,9,-43,-92,-78
-43,-39,4,41,-24,-17,34,0,9,-43,-92,-78
-53,-39,14,46,-34,-12,29,0,0,-43,-92,-87
-53,-39,14,46,-34,-12,29,0,0,-48,-92,-87
-53,-39,14,46,-34,-12,29,-4,0,-48,-92,-87
-53,-39,14,46,-34,-12,29,-4,0,-48,-92,-87
-53,-43,9,48,-31,-17,29,-4,4,-39,-82,-87
-53,-43,9,48,-31,-17,29,-4,4,-39,-82,-82
-53,-43,9,48,-31,-17,29,-9,4,-39,-82,-82
-53,-43,9,48,-31,-17,29,-9,4,-39,-82,-82
-48,-24,24,36,-36,0,29,4,19,-34,-73,-73
-39,-19,19,29,-29,0,29,4,19,-24,-68,-68
-39,-9,29,24,-34,9,39,4,29,-24,-68,-68
-29,-9,19,19,-24,4,39,9,29,-29,-68,-68
-29,0,29,14,-29,14,34,9,29,-19,-63,-58
-29,0,29,14,-29,14,29,9,29,-19,-58,-58
-29,0,29,14,-29,14,24,9,29,-19,-53,-58
-29,0,29,14,-29,14,19,9,29,-19,-48,-58
-34,9,43,12,-39,26,24,0,39,-14,-48,-48
-34,19,53,7,-43,36,24,-4,43,-14,-48,-48
-34,19,53,7,-43,36,14,-4,43,-14,-43,-48
-34,24,58,4,-46,41,14,-4,48,-14,-43,-48
-34,24,58,4,-46,41,9,-14,48,-14,-53,-53
-29,19,48,4,-39,34,9,-14,48,-9,-53,-53
-29,19,48,4,-39,34,9,-4,53,-9,-48,-53
-29,19,48,4,-39,34,19,0,63,4,-48,-48
-24,9,34,7,-29,21,29,9,68,-4,-39,-39
-24,14,39,4,-31,26,29,9,73,0,-34,-39
-19,29,48,-4,-34,39,19,4,78,9,-29,-34
-19,34,53,-7,-36,43,14,0,82,14,-24,-29
-14,48,63,-17,-39,56,-19,-14,73,24,-14,-29
-9,48,58,-19,-34,53,-34,-24,73,24,-14,-29
-9,48,58,-19,-34,53,-43,-34,63,19,-9,-29
-9,48,58,-19,-34,53,-48,-39,58,19,-9,-24
-9,48,58,-19,-34,53,-39,-39,58,9,-24,-24
-4,43,48,-19,-26,46,-39,-34,58,9,-24,-24
0,34,34,-17,-17,34,-39,-34,58,4,-24,-24
0,29,29,-14,-14,29,-39,-39,48,4,-24,-24
-9,39,48,-14,-29,43,-43,-48,48,4,-19,-24
-9,43,53,-17,-31,48,-48,-53,43,4,-19,-24
-14,43,58,-14,-36,51,-58,-63,34,-4,-29,-24
-14,53,68,-19,-41,61,-63,-68,29,-9,-29,-24
-14,68,82,-26,-48,75,-63,-68,29,0,-19,-14
-14,68,82,-26,-48,75,-63,-68,29,0,-14,-9
-14,63,78,-24,-46,70,-68,-68,24,0,-14,-9
-14,63,78,-24,-46,70,-68,-68,19,0,-19,-9
-14,73,87,-29,-51,80,-68,-73,24,-4,-19,-19
-14,63,78,-24,-46,70,-63,-73,19,-4,-19,-14
-4,63,68,-29,-36,65,-58,-68,14,-4,-19,-14
0,53,53,-26,-26,53,-58,-68,14,-9,-19,-14
4,43,39,-24,-17,41,-63,-68,0,-19,-24,-9
4,53,48,-29,-21,51,-63,-68,0,-19,-24,-9
4,53,48,-29,-21,51,-58,-68,4,-19,-24,-9
4,53,48,-29,-21,51,-58,-68,4,-19,-29,-9
14,68,53,-41,-19,61,-58,-68,4,-19,-29,-9
9,68,58,-39,-24,63,-58,-73,4,-19,-29,-14
4,68,63,-36,-29,65,-63,-82,4,-24,-29,-14
4,68,63,-36,-29,65,-63,-82,0,-24,-29,-14
0,58,58,-29,-29,58,-68,-78,0,-29,-34,-4
0,48,48,-24,-24,48,-58,-73,0,-29,-39,-14
-14,34,48,-9,-31,41,-43,-58,4,-29,-39,-19
-29,14,43,7,-36,29,-24,-48,4,-39,-48,-29
-53,0,53,26,-53,26,-19,-48,0,-43,-58,-48
-58,-14,43,36,-51,14,-9,-43,-4,-48,-68,-63
-63,-19,43,41,-53,12,-9,-43,-9,-53,-68,-68
-63,-24,39,43,-51,7,-4,-43,-14,-58,-73,-68
-63,-34,29,48,-46,-2,0,-53,-14,-53,-78,-73
-63,-43,19,53,-41,-12,0,-53,-19,-58,-87,-78
-73,-43,29,58,-51,-7,0,-53,-24,-58,-87,-82
-73,-48,24,61,-48,-12,0,-53,-24,-63,-87,-82
-58,-53,4,56,-31,-24,0,-53,-29,-73,-92,-82
-58,-53,4,56,-31,-24,0,-53,-29,-73,-97,-87
-63,-53,9,58,-36,-21,0,-53,-24,-73,-97,-87
-63,-53,9,58,-36,-21,0,-53,-24,-73,-92,-87
-63,-53,9,58,-36,-21,-4,-53,-34,-82,-92,-92
-63,-58,4,61,-34,-26,-4,-53,-39,-82,-97,-92
-63,-58,4,61,-34,-26,-4,-53,-39,-82,-97,-92
-73,-58,14,65,-43,-21,-4,-53,-39,-87,-97,-92
-63,-63,0,63,-31,-31,-4,-48,-39,-87,-97,-92
-63,-63,0,63,-31,-31,-4,-48,-39,-87,-97,-92
-68,-63,4,65,-36,-29,-4,-48,-39,-87,-102,-97
-68,-63,4,65,-36,-29,-4,-48,-43,-92,-102,-97
-78,-63,14,70,-46,-24,4,-58,-43,-82,-102,-97
-78,-63,14,70,-46,-24,4,-58,-43,-82,-102,-97
-78,-63,14,70,-46,-24,4,-53,-43,-82,-102,-97
-78,-68,9,73,-43,-29,4,-53,-43,-82,-102,-97
-68,-68,0,68,-34,-34,9,-53,-43,-82,-107,-107
-73,-68,4,70,-39,-31,9,-53,-43,-82,-112,-112
-73,-78,-4,75,-34,-41,9,-53,-43,-82,-117,-112
-73,-78,-4,75,-34,-41,9,-53,-43,-82,-122,-112
-73,-78,-4,75,-34,-41,9,-53,-43,-87,-117,-102
-73,-73,0,73,-36,-36,9,-53,-43,-87,-117,-107
-68,-73,-4,70,-31,-39,9,-53,-43,-82,-117,-107
-68,-73,-4,70,-31,-39,9,-53,-43,-82,-117,-107
-73,-73,0,73,-36,-36,0,-53,-53,-92,-117,-107
-73,-73,0,73,-36,-36,4,-53,-53,-97,-117,-107
-73,-73,0,73,-36,-36,4,-58,-53,-97,-122,-107
-73,-78,-4,75,-34,-41,4,-58,-53,-97,-122,-107
-73,-68,4,70,-39,-31,14,-58,-53,-87,-112,-102
-73,-73,0,73,-36,-36,4,-58,-43,-87,-112,-112
-73,-63,9,68,-41,-26,9,-43,-34,-78,-112,-112
-82,-73,9,78,-46,-31,34,-34,-19,-73,-112,-112
-82,-73,9,78,-46,-31,34,-29,-14,-68,-112,-112
-87,-73,14,80,-51,-29,29,-39,-14,-63,-107,-112
-73,-63,9,68,-41,-26,19,-24,0,-24,-73,-92
-58,-39,19,48,-39,-9,29,-9,48,34,-14,-53
-39,9,48,14,-43,29,39,39,136,136,78,19
0,63,63,-31,-31,63,48,92,234,263,214,117
63,151,87,-107,-12,119,24,126,312,409,400,273
156,268,112,-212,21,190,-68,73,351,546,634,488
234,395,161,-314,36,278,-190,-39,341,653,868,722
317,522,204,-419,56,363,-312,-170,317,727,1078,956
409,678,268,-544,70,473,-434,-297,273,766,1268,1180
507,849,341,-678,82,595,-595,-458,190,795,1454,1420
600,1029,429,-814,85,729,-766,-658,107,819,1634,1639
683,1205,522,-944,80,863,-966,-893,24,819,1786,1844
736,1342,605,-1039,65,973,-1132,-1098,-73,795,1893,2020
785,1405,619,-1095,82,1012,-1234,-1239,-200,751,1976,2142
810,1346,536,-1078,136,941,-1259,-1293,-336,678,2000,2181
814,1210,395,-1012,209,802,-1254,-1312,-483,566,1952,2142
814,1068,253,-941,280,661,-1254,-1346,-639,419,1864,2088
775,951,175,-863,300,563,-1249,-1434,-780,292,1771,2025
727,785,58,-756,334,422,-1200,-1468,-912,151,1610,1888
663,531,-131,-597,397,200,-1117,-1415,-1058,-48,1332,1625
580,287,-292,-434,436,-2,-1005,-1327,-1200,-287,956,1283
483,126,-356,-305,419,-114,-912,-1278,-1283,-507,570,936
395,34,-361,-214,378,-163,-868,-1244,-1317,-688,224,658
292,-43,-336,-124,314,-190,-810,-1210,-1317,-844,-82,366
204,-131,-336,-36,270,-234,-732,-1117,-1283,-927,-351,48
146,-175,-322,14,234,-248,-644,-1015,-1161,-907,-488,-161
78,-165,-244,43,161,-204,-575,-917,-1024,-839,-517,-214
0,-165,-165,82,82,-165,-468,-800,-897,-805,-580,-273
-58,-185,-126,122,34,-156,-366,-663,-800,-814,-717,-390
-73,-195,-122,134,24,-158,-302,-546,-692,-746,-707,-414
-73,-170,-97,122,12,-134,-244,-439,-541,-575,-556,-351
-78,-151,-73,114,-2,-112,-175,-331,-414,-448,-448,-317
-78,-136,-58,107,-9,-97,-107,-224,-322,-375,-409,-312
-87,-126,-39,107,-24,-82,-58,-151,-253,-302,-351,-287
-87,-122,-34,104,-26,-78,-34,-112,-195,-244,-297,-258
-73,-92,-19,82,-26,-56,-14,-73,-146,-200,-268,-229
-68,-78,-9,73,-29,-43,0,-53,-107,-161,-239,-214
-78,-82,-4,80,-36,-43,19,-24,-68,-141,-209,-200
-78,-82,-4,80,-36,-43,34,0,-48,-126,-195,-190
-87,-87,0,87,-43,-43,58,14,-39,-117,-195,-185
-92,-97,-4,95,-43,-51,68,19,-34,-102,-185,-185
-92,-102,-9,97,-41,-56,63,29,-19,-102,-180,-180
-82,-102,-19,92,-31,-61,63,34,-24,-102,-180,-180
-82,-102,-19,92,-31,-61,68,43,-24,-97,-180,-180
-82,-102,-19,92,-31,-61,68,43,-19,-97,-175,-180
-82,-102,-19,92,-31,-61,68,43,-14,-92,-165,-180
-92,-92,0,92,-46,-46,73,48,-4,-87,-165,-180
-92,-92,0,92,-46,-46,73,53,-4,-87,-165,-175
-92,-92,0,92,-46,-46,73,53,0,-87,-165,-175
-97,-92,4,95,-51,-43,78,53,0,-82,-165,-175
-87,-102,-14,95,-36,-58,68,58,0,-82,-161,-175
-87,-102,-14,95,-36,-58,68,63,4,-78,-161,-175
-87,-102,-14,95,-36,-58,73,68,4,-73,-161,-175
-87,-102,-14,95,-36,-58,73,68,9,-68,-156,-175
-87,-102,-14,95,-36,-58,82,68,14,-68,-156,-185
-87,-97,-9,92,-39,-53,87,73,14,-68,-151,-180
-87,-97,-9,92,-39,-53,87,73,14,-63,-151,-180
-87,-102,-14,95,-36,-58,87,73,19,-63,-151,-180
-82,-92,-9,87,-36,-51,87,73,29,-53,-151,-170
-82,-92,-9,87,-36,-51,87,73,29,-53,-151,-170
-82,-87,-4,85,-39,-46,87,73,34,-48,-151,-170
-82,-87,-4,85,-39,-46,87,73,34,-48,-151,-170
-82,-102,-19,92,-31,-61,78,73,34,-48,-146,-170
-82,-102,-19,92,-31,-61,82,82,39,-48,-146,-170
-82,-97,-14,90,-34,-56,82,82,39,-43,-146,-170
-82,-97,-14,90,-34,-56,82,82,39,-39,-146,-170
-78,-97,-19,87,-29,-58,82,82,29,-39,-141,-175
-78,-92,-14,85,-31,-53,82,87,29,-39,-141,-175
-78,-92,-14,85,-31,-53,82,87,29,-39,-141,-175
-78,-92,-14,85,-31,-53,87,92,34,-34,-136,-175
-78,-92,-14,85,-31,-53,87,82,34,-43,-146,-170
-78,-92,-14,85,-31,-53,87,82,39,-39,-141,-170
-78,-92,-14,85,-31,-53,87,87,39,-39,-141,-170
-78,-92,-14,85,-31,-53,87,97,39,-39,-141,-170
-87,-82,4,85,-46,-39,87,107,48,-39,-131,-161
-82,-82,0,82,-41,-41,87,112,48,-34,-131,-161
-82,-78,4,80,-43,-36,87,112,53,-34,-131,-161
-82,-78,4,80,-43,-36,87,117,53,-34,-126,-161
-78,-82,-4,80,-36,-43,87,117,53,-24,-126,-170
-78,-82,-4,80,-36,-43,87,122,53,-24,-126,-165
-78,-82,-4,80,-36,-43,92,126,58,-24,-126,-165
-78,-82,-4,80,-36,-43,92,126,58,-19,-126,-165
-68,-73,-4,70,-31,-39,92,136,58,-29,-126,-165
-68,-73,-4,70,-31,-39,92,136,58,-29,-126,-165
-68,-68,0,68,-34,-34,92,141,63,-24,-122,-165
-68,-68,0,68,-34,-34,97,146,63,-24,-122,-165
-73,-68,4,70,-39,-31,97,151,63,-24,-131,-165
-73,-68,4,70,-39,-31,97,161,68,-24,-131,-165
-73,-68,4,70,-39,-31,102,165,68,-19,-131,-165
-73,-68,4,70,-39,-31,107,170,68,-19,-131,-165
-63,-63,0,63,-31,-31,107,175,63,-14,-131,-165
-58,-63,-4,61,-26,-34,107,180,63,-14,-131,-165
-58,-63,-4,61,-26,-34,107,185,63,-14,-126,-161
-58,-63,-4,61,-26,-34,107,195,68,-9,-126,-161
-63,-68,-4,65,-29,-36,112,200,68,-9,-126,-161
-63,-68,-4,65,-29,-36,117,209,78,-4,-126,-161
-58,-63,-4,61,-26,-34,117,224,82,4,-126,-161
-58,-63,-4,61,-26,-34,117,229,82,4,-122,-161
-48,-53,-4,51,-21,-29,112,229,97,9,-112,-161
-43,-43,0,43,-21,-21,112,239,102,14,-112,-161
-43,-43,0,43,-21,-21,117,248,107,19,-107,-161
-34,-43,-9,39,-12,-26,126,258,112,24,-107,-156
-29,-34,-4,31,-12,-19,126,278,117,29,-107,-156
-29,-29,0,29,-14,-14,126,283,122,39,-107,-156
-24,-24,0,24,-12,-12,126,302,126,43,-107,-151
-19,-19,0,19,-9,-9,131,317,131,43,-102,-151
-24,-14,9,19,-17,-2,146,331,141,73,-87,-141
-19,-9,9,14,-14,0,146,346,146,73,-82,-141
-14,-4,9,9,-12,2,146,361,156,87,-78,-136
-4,4,9,0,-7,7,151,375,165,92,-78,-136
4,9,4,-7,0,7,165,400,185,112,-63,-126
9,24,14,-17,-2,19,165,419,195,122,-63,-117
19,34,14,-26,2,24,165,434,204,131,-53,-112
24,43,19,-34,2,31,165,458,214,146,-43,-107
29,53,24,-41,2,39,170,478,239,156,-48,-112
29,63,34,-46,-2,48,170,497,248,165,-43,-112
43,73,29,-58,7,51,170,507,258,180,-39,-112
53,87,34,-70,9,61,170,531,268,190,-29,-112
58,107,48,-82,4,78,161,541,273,204,-24,-107
63,122,58,-92,2,90,161,561,283,219,-19,-102
73,126,53,-100,9,90,161,570,292,224,-14,-97
82,141,58,-112,12,100,161,585,302,234,-9,-92
82,146,63,-114,9,104,170,600,322,253,0,-92
92,156,63,-124,14,109,165,610,331,263,0,-92
97,170,73,-134,12,122,165,619,341,273,4,-92
107,180,73,-143,17,126,156,629,341,278,4,-87
112,195,82,-153,14,139,151,624,351,278,4,-78
122,204,82,-163,19,143,151,629,356,283,9,-73
126,209,82,-168,21,146,146,634,356,287,9,-73
131,219,87,-175,21,153,141,634,356,292,9,-73
136,234,97,-185,19,165,136,634,361,297,0,-68
136,239,102,-187,17,170,131,624,361,297,4,-68
136,244,107,-190,14,175,117,619,366,297,4,-68
141,253,112,-197,14,183,107,614,366,297,4,-63
141,258,117,-200,12,187,97,605,346,292,14,-63
141,258,117,-200,12,187,92,590,346,292,4,-63
141,258,117,-200,12,187,87,575,341,283,0,-63
141,258,117,-200,12,187,78,561,336,278,0,-63
131,248,117,-190,7,183,73,531,326,258,-14,-73
131,248,117,-190,7,183,68,512,317,248,-19,-78
126,244,117,-185,4,180,63,492,307,244,-24,-78
122,239,117,-180,2,178,58,473,297,229,-29,-78
107,234,126,-170,-9,180,53,453,278,219,-34,-78
97,229,131,-163,-17,180,48,424,268,209,-39,-78
92,214,122,-153,-14,168,43,400,258,200,-39,-82
87,204,117,-146,-14,161,39,375,244,180,-43,-82
82,195,112,-139,-14,153,39,351,224,165,-53,-82
73,180,107,-126,-17,143,34,326,214,156,-53,-82
58,161,102,-109,-21,131,29,297,200,146,-53,-82
53,151,97,-102,-21,124,24,278,185,126,-53,-82
53,146,92,-100,-19,119,9,244,170,112,-43,-73
53,136,82,-95,-14,109,9,219,156,102,-43,-68
39,126,87,-82,-24,107,4,190,146,92,-43,-68
39,117,78,-78,-19,97,4,165,136,82,-43,-63
34,112,78,-73,-21,95,4,146,122,73,-43,-68
24,102,78,-63,-26,90,0,131,112,63,-43,-63
24,87,63,-56,-19,75,0,112,102,53,-43,-63
9,82,73,-46,-31,78,0,92,92,43,-43,-63
0,73,73,-36,-36,73,-4,82,73,34,-53,-63
-4,58,63,-26,-34,61,-9,68,63,24,-63,-63
-4,53,58,-24,-31,56,-9,58,53,14,-63,-63
-9,48,58,-19,-34,53,-9,43,48,9,-63,-63
-9,39,48,-14,-29,43,-9,29,48,0,-53,-53
-14,34,48,-9,-31,41,-9,19,43,-4,-58,-53
-19,24,43,-2,-31,34,-9,14,34,-14,-63,-53
-24,24,48,0,-36,36,-9,4,34,-19,-68,-53
-19,29,48,-4,-34,39,-14,4,19,-24,-68,-63
-19,24,43,-2,-31,34,-14,0,14,-29,-68,-63
-19,19,39,0,-29,29,-14,-9,9,-29,-68,-63
-24,14,39,4,-31,26,-14,-9,4,-34,-68,-63
-34,9,43,12,-39,26,-14,-24,0,-48,-73,-53
-39,9,48,14,-43,29,-14,-29,0,-53,-73,-58
-39,4,43,17,-41,24,-14,-34,0,-53,-73,-58
-39,0,39,19,-39,19,-14,-34,-4,-53,-78,-58
-39,-9,29,24,-34,9,-14,-34,-14,-68,-78,-58
-39,-9,29,24,-34,9,-14,-43,-24,-73,-82,-63
-43,-9,34,26,-39,12,-14,-43,-24,-73,-82,-63
-43,-9,34,26,-39,12,-14,-43,-24,-73,-82,-68
-43,0,43,21,-43,21,-14,-43,-19,-63,-82,-68
-43,-4,39,24,-41,17,-14,-43,-24,-68,-82,-68
-43,-4,39,24,-41,17,-14,-48,-24,-68,-82,-68
-43,-4,39,24,-41,17,-14,-48,-19,-68,-82,-68
-43,-14,29,29,-36,7,-24,-48,-29,-68,-82,-68
-43,-14,29,29,-36,7,-24,-48,-29,-68,-82,-68
-43,-9,34,26,-39,12,-24,-48,-29,-68,-82,-68
-43,-9,34,26,-39,12,-24,-48,-29,-68,-82,-68
-39,-9,29,24,-34,9,-14,-48,-19,-73,-82,-68
-39,-19,19,29,-29,0,-14,-48,-24,-73,-82,-68
-39,-19,19,29,-29,0,-14,-48,-24,-73,-82,-68
-39,-19,19,29,-29,0,-14,-48,-24,-73,-82,-68
-48,-19,29,34,-39,4,-14,-48,-34,-73,-87,-78
-48,-19,29,34,-39,4,-14,-48,-34,-73,-87,-78
-48,-19,29,34,-39,4,-14,-53,-34,-73,-87,-78
-43,-19,24,31,-34,2,-14,-53,-34,-73,-87,-78
-34,-19,14,26,-24,-2,-14,-48,-34,-73,-87,-73
-34,-19,14,26,-24,-2,-14,-48,-34,-73,-87,-73
-34,-19,14,26,-24,-2,-14,-48,-34,-73,-87,-68
-34,-19,14,26,-24,-2,-14,-48,-34,-73,-82,-68
-43,-19,24,31,-34,2,-4,-48,-34,-73,-82,-68
-43,-19,24,31,-34,2,-4,-48,-34,-68,-82,-68
-43,-19,24,31,-34,2,-4,-48,-34,-68,-82,-68
-43,-19,24,31,-34,2,-4,-43,-39,-68,-82,-68
-43,-29,14,36,-29,-7,-4,-43,-29,-68,-82,-68
-43,-29,14,36,-29,-7,0,-43,-24,-68,-82,-68
-43,-29,14,36,-29,-7,0,-43,-24,-68,-82,-68
-43,-29,14,36,-29,-7,0,-39,-24,-68,-78,-68
-43,-19,24,31,-34,2,-4,-39,-34,-68,-78,-63
-43,-19,24,31,-34,2,-9,-39,-34,-68,-78,-63
-43,-19,24,31,-34,2,-14,-39,-34,-68,-78,-68
-43,-19,24,31,-34,2,-19,-39,-29,-68,-78,-68
-39,-9,29,24,-34,9,-9,-39,-29,-68,-68,-58
-39,-9,29,24,-34,9,-9,-39,-29,-68,-73,-58
-39,-9,29,24,-34,9,-9,-39,-29,-68,-73,-58
-34,-9,24,21,-29,7,-9,-34,-29,-68,-73,-58
-43,-19,24,31,-34,2,-4,-34,-19,-63,-82,-68
-43,-19,24,31,-34,2,-4,-34,-19,-63,-78,-68
-48,-19,29,34,-39,4,-4,-29,-19,-63,-78,-73
-48,-19,29,34,-39,4,-4,-29,-19,-63,-78,-73
-39,-19,19,29,-29,0,-4,-29,-24,-63,-78,-73
-39,-19,19,29,-29,0,-4,-29,-24,-63,-78,-68
-39,-19,19,29,-29,0,-4,-29,-24,-63,-78,-68
-39,-19,19,29,-29,0,0,-24,-24,-63,-78,-68
-48,-19,29,34,-39,4,0,-24,-24,-63,-78,-68
-53,-19,34,36,-43,7,0,-24,-24,-63,-82,-68
-53,-19,34,36,-43,7,0,-24,-24,-58,-82,-68
-53,-19,34,36,-43,7,0,-24,-19,-58,-82,-78
-53,-19,34,36,-43,7,0,-24,-19,-63,-82,-78
-53,-19,34,36,-43,7,0,-24,-24,-63,-82,-78
-53,-19,34,36,-43,7,0,-24,-24,-63,-82,-78
-53,-19,34,36,-43,7,0,-24,-19,-63,-82,-78
-63,-19,43,41,-53,12,4,-24,-19,-63,-87,-78
-63,-19,43,41,-53,12,4,-24,-19,-63,-87,-73
-63,-19,43,41,-53,12,4,-24,-19,-63,-87,-73
-63,-19,43,41,-53,12,4,-24,-19,-63,-92,-78
-53,-29,24,41,-39,-2,4,-24,-24,-63,-82,-78
-58,-29,29,43,-43,0,4,-24,-24,-63,-82,-78
-58,-29,29,43,-43,0,4,-24,-24,-63,-82,-78
-58,-29,29,43,-43,0,4,-24,-24,-63,-82,-82
-58,-24,34,41,-46,4,-4,-34,-24,-73,-92,-82
-58,-24,34,41,-46,4,-4,-34,-24,-73,-92,-82
-58,-24,34,41,-46,4,-4,-34,-24,-78,-92,-82
-58,-24,34,41,-46,4,-4,-34,-24,-78,-92,-82
-58,-9,48,34,-53,19,-4,-34,-34,-78,-97,-92
-58,-9,48,34,-53,19,-4,-39,-34,-78,-107,-92
-58,-14,43,36,-51,14,-4,-39,-34,-78,-107,-92
-58,-14,43,36,-51,14,-9,-39,-34,-82,-102,-92
-68,-24,43,46,-56,9,-9,-39,-29,-82,-102,-82
-68,-24,43,46,-56,9,-9,-39,-29,-82,-102,-82
-68,-24,43,46,-56,9,-4,-43,-29,-82,-102,-82
-68,-24,43,46,-56,9,-4,-43,-29,-82,-102,-82
-58,-24,34,41,-46,4,4,-43,-29,-82,-102,-87
-58,-24,34,41,-46,4,4,-43,-29,-82,-107,-87
-58,-24,34,41,-46,4,0,-43,-29,-87,-107,-87
-58,-24,34,41,-46,4,0,-48,-29,-87,-107,-87
-58,-14,43,36,-51,14,0,-48,-29,-87,-97,-78
-58,-19,39,39,-48,9,0,-48,-29,-87,-97,-78
-58,-19,39,39,-48,9,0,-48,-29,-87,-97,-78
-58,-19,39,39,-48,9,-4,-48,-29,-87,-97,-78
-63,-29,34,46,-48,2,-4,-58,-39,-87,-107,-87
-63,-29,34,46,-48,2,-4,-58,-43,-92,-107,-87
-63,-29,34,46,-48,2,-4,-63,-43,-92,-107,-87
-63,-29,34,46,-48,2,-4,-63,-43,-92,-107,-87
-63,-29,34,46,-48,2,-14,-63,-34,-92,-107,-87
-63,-29,34,46,-48,2,-14,-63,-39,-92,-107,-87
-63,-29,34,46,-48,2,-14,-68,-39,-92,-112,-87
-63,-29,34,46,-48,2,-14,-68,-39,-92,-112,-87
-63,-19,43,41,-53,12,-19,-68,-48,-92,-112,-87
-63,-19,43,41,-53,12,-19,-68,-48,-97,-112,-87
-63,-19,43,41,-53,12,-19,-73,-48,-97,-112,-87
-63,-19,43,41,-53,12,-19,-73,-48,-97,-112,-87
-63,-24,39,43,-51,7,-19,-63,-43,-87,-102,-87
-63,-24,39,43,-51,7,-19,-63,-43,-87,-102,-82
-63,-24,39,43,-51,7,-19,-68,-43,-87,-102,-82
-63,-24,39,43,-51,7,-19,-68,-43,-87,-102,-82
-48,-14,34,31,-41,9,-9,-53,-39,-82,-102,-73
-48,-9,39,29,-43,14,-9,-53,-39,-82,-97,-68
-48,-9,39,29,-43,14,-9,-53,-39,-82,-97,-68
-43,-4,39,24,-41,17,-9,-53,-39,-82,-92,-68
-53,9,63,21,-58,36,-9,-53,-24,-73,-82,-68
-58,9,68,24,-63,39,0,-48,-19,-68,-78,-68
-48,19,68,14,-58,43,-4,-58,-19,-58,-78,-58
-48,19,68,14,-58,43,-9,-58,-19,-58,-78,-58
-48,19,68,14,-58,43,-14,-58,-19,-58,-78,-58
-48,19,68,14,-58,43,-19,-58,-19,-58,-78,-58
-43,19,63,12,-53,41,-14,-68,-9,-53,-68,-48
-43,29,73,7,-58,51,-14,-73,-4,-53,-68,-48
-43,29,73,7,-58,51,-24,-73,-4,-53,-63,-48
-43,34,78,4,-61,56,-24,-73,0,-53,-63,-48
-53,34,87,9,-70,61,-29,-73,0,-63,-63,-43
-48,29,78,9,-63,53,-29,-73,0,-58,-63,-43
-48,29,78,9,-63,53,-29,-63,4,-58,-58,-43
-48,29,78,9,-63,53,-19,-58,14,-43,-58,-39
-34,39,73,-2,-53,56,-19,-58,9,-43,-58,-39
-34,43,78,-4,-56,61,-19,-58,14,-39,-53,-39
-29,58,87,-14,-58,73,-29,-63,19,-29,-48,-34
-29,63,92,-17,-61,78,-34,-68,24,-24,-43,-29
-24,58,82,-17,-53,70,-48,-73,34,-14,-34,-19
-19,58,78,-19,-48,68,-63,-82,34,-14,-34,-19
-19,58,78,-19,-48,68,-73,-92,24,-19,-29,-19
-19,58,78,-19,-48,68,-78,-97,19,-19,-29,-14
-19,63,82,-21,-51,73,-78,-97,19,-29,-34,-14
-14,63,78,-24,-46,70,-78,-92,19,-29,-34,-14
-9,58,68,-24,-39,63,-78,-92,19,-34,-34,-14
-9,58,68,-24,-39,63,-78,-97,9,-34,-34,-14
-19,58,78,-19,-48,68,-82,-107,0,-34,-39,-24
-19,63,82,-21,-51,73,-87,-112,-4,-34,-39,-24
-24,63,87,-19,-56,75,-97,-122,-14,-43,-48,-24
-24,73,97,-24,-61,85,-102,-126,-19,-48,-48,-24
-14,87,102,-36,-58,95,-112,-136,-19,-48,-39,-24
-14,87,102,-36,-58,95,-112,-136,-19,-48,-34,-19
-14,82,97,-34,-56,90,-117,-136,-24,-48,-34,-19
-14,82,97,-34,-56,90,-117,-136,-29,-48,-39,-19
-14,82,97,-34,-56,90,-107,-131,-34,-53,-39,-9
-14,73,87,-29,-51,80,-102,-131,-39,-53,-39,-4
-4,73,78,-34,-41,75,-97,-126,-43,-53,-39,-4
0,63,63,-31,-31,63,-97,-126,-43,-58,-39,-4
4,63,58,-34,-26,61,-112,-126,-48,-58,-43,-9
4,73,68,-39,-31,70,-112,-126,-48,-58,-43,-9
4,73,68,-39,-31,70,-107,-126,-43,-58,-43,-9
4,73,68,-39,-31,70,-107,-126,-43,-58,-48,-9
4,68,63,-36,-29,65,-97,-136,-43,-58,-48,-9
0,68,68,-34,-34,68,-97,-141,-43,-58,-48,-14
-4,68,73,-31,-39,70,-102,-151,-43,-63,-48,-14
-4,68,73,-31,-39,70,-102,-151,-48,-63,-48,-14
0,68,68,-34,-34,68,-107,-146,-48,-68,-43,-4
0,58,58,-29,-29,58,-97,-141,-48,-68,-48,-14
-14,43,58,-14,-36,51,-82,-126,-43,-68,-48,-19
-29,24,53,2,-41,39,-63,-117,-43,-78,-58,-29
-43,9,53,17,-48,31,-48,-117,-48,-73,-68,-39
-48,-4,43,26,-46,19,-39,-112,-53,-78,-78,-53
-53,-9,43,31,-48,17,-39,-112,-58,-82,-78,-58
-53,-14,39,34,-46,12,-34,-112,-63,-87,-82,-58
-63,-24,39,43,-51,7,-29,-112,-53,-92,-87,-63
-63,-34,29,48,-46,-2,-29,-112,-58,-97,-97,-68
-73,-34,39,53,-56,2,-29,-112,-63,-97,-97,-73
-73,-39,34,56,-53,-2,-29,-112,-63,-102,-97,-73
-68,-43,24,56,-46,-9,-29,-112,-68,-112,-102,-73
-68,-43,24,56,-46,-9,-29,-112,-68,-112,-107,-78
-73,-43,29,58,-51,-7,-29,-112,-63,-112,-107,-78
-73,-43,29,58,-51,-7,-29,-112,-63,-112,-102,-78
-73,-43,29,58,-51,-7,-24,-112,-73,-112,-112,-82
-73,-48,24,61,-48,-12,-24,-112,-78,-112,-117,-82
-73,-48,24,61,-48,-12,-24,-112,-78,-112,-117,-82
-82,-48,34,65,-58,-7,-24,-112,-78,-117,-117,-82
-73,-53,19,63,-46,-17,-24,-117,-78,-117,-117,-92
-73,-53,19,63,-46,-17,-24,-117,-78,-117,-117,-92
-78,-53,24,65,-51,-14,-24,-117,-78,-117,-122,-97
-78,-53,24,65,-51,-14,-24,-117,-82,-122,-122,-97
-78,-53,24,65,-51,-14,-24,-107,-73,-122,-112,-87
-78,-53,24,65,-51,-14,-24,-107,-73,-122,-112,-87
-78,-53,24,65,-51,-14,-24,-102,-73,-122,-112,-87
-78,-58,19,68,-48,-19,-24,-102,-73,-122,-112,-87
-78,-58,19,68,-48,-19,-19,-102,-82,-122,-112,-78
-82,-58,24,70,-53,-17,-19,-102,-82,-122,-112,-82
-82,-68,14,75,-48,-26,-19,-102,-82,-122,-112,-82
-82,-68,14,75,-48,-26,-19,-102,-82,-122,-112,-82
-92,-68,24,80,-58,-21,-19,-112,-82,-117,-117,-92
-92,-63,29,78,-61,-17,-19,-112,-82,-117,-117,-97
-87,-63,24,75,-56,-19,-19,-112,-82,-112,-117,-97
-87,-63,24,75,-56,-19,-19,-112,-82,-112,-117,-97
-92,-73,19,82,-56,-26,-19,-112,-82,-122,-117,-97
-92,-73,19,82,-56,-26,-14,-112,-82,-126,-117,-97
-92,-73,19,82,-56,-26,-14,-117,-82,-126,-122,-97
-92,-78,14,85,-53,-31,-14,-117,-82,-126,-122,-97
-82,-78,4,80,-43,-36,-14,-107,-82,-126,-112,-92
-92,-73,19,82,-56,-26,-4,-107,-82,-126,-122,-92
-92,-82,9,87,-51,-36,0,-102,-73,-117,-122,-102
-92,-82,9,87,-51,-36,4,-92,-68,-112,-122,-102
-92,-82,9,87,-51,-36,4,-87,-53,-97,-122,-102
-87,-73,14,80,-51,-29,0,-87,-53,-102,-117,-102
-82,-73,9,78,-46,-31,0,-82,-48,-82,-102,-92
-68,-58,9,63,-39,-24,0,-68,-9,-34,-53,-53
-58,-9,48,34,-53,19,9,-19,68,58,29,9
-19,43,63,-12,-41,53,29,43,156,175,146,107
34,112,78,-73,-21,95,14,87,244,302,302,224
126,209,82,-168,21,146,-58,63,292,439,507,400
214,336,122,-275,46,229,-180,-48,292,546,722,624
297,483,185,-390,56,334,-302,-190,287,639,922,849
390,619,229,-505,80,424,-424,-326,253,688,1102,1054
497,771,273,-634,112,522,-575,-488,200,717,1278,1273
590,941,351,-766,119,646,-756,-688,126,741,1449,1483
673,1117,444,-895,114,780,-956,-932,43,741,1590,1688
746,1273,527,-1010,109,900,-1141,-1166,-43,717,1688,1854
805,1366,561,-1085,122,963,-1283,-1337,-151,683,1781,1976
849,1346,497,-1098,175,922,-1337,-1420,-278,619,1815,2034
854,1220,366,-1037,244,793,-1342,-1459,-424,517,1766,2015
863,1068,204,-966,329,636,-1342,-1503,-590,380,1678,1952
844,951,107,-897,368,529,-1337,-1590,-741,244,1595,1898
785,814,29,-800,378,422,-1307,-1673,-873,112,1464,1800
722,590,-131,-656,427,229,-1244,-1659,-1039,-87,1224,1576
639,326,-312,-483,475,7,-1132,-1571,-1190,-326,868,1254
541,136,-405,-339,473,-134,-1029,-1493,-1293,-556,483,897
434,34,-400,-234,417,-183,-966,-1449,-1346,-736,126,590
341,-24,-366,-158,353,-195,-917,-1415,-1366,-883,-180,317
244,-122,-366,-61,305,-244,-839,-1332,-1342,-995,-448,29
165,-195,-361,14,263,-278,-741,-1210,-1249,-1005,-614,-209
97,-195,-292,48,195,-244,-663,-1093,-1102,-927,-624,-283
29,-156,-185,63,107,-170,-575,-976,-966,-854,-619,-283
-39,-165,-126,102,43,-146,-463,-839,-868,-854,-688,-341
-63,-185,-122,124,29,-153,-390,-702,-761,-805,-707,-385
-63,-170,-107,117,21,-139,-331,-585,-619,-653,-585,-331
-78,-151,-73,114,-2,-112,-263,-468,-492,-507,-468,-287
-87,-146,-58,117,-14,-102,-175,-341,-390,-434,-419,-283
-87,-136,-48,112,-19,-92,-107,-239,-312,-351,-361,-258
-87,-122,-34,104,-26,-78,-73,-180,-244,-292,-307,-239
-82,-102,-19,92,-31,-61,-43,-141,-204,-258,-278,-209
-87,-87,0,87,-43,-43,-29,-112,-156,-219,-248,-195
-87,-82,4,85,-46,-39,-9,-92,-126,-180,-219,-180
-87,-82,4,85,-46,-39,14,-58,-107,-165,-204,-180
-87,-97,-9,92,-39,-53,29,-34,-97,-156,-195,-175
-92,-97,-4,95,-43,-51,48,-19,-82,-141,-185,-165
-92,-92,0,92,-46,-46,53,-9,-68,-131,-180,-161
-102,-92,9,97,-56,-41,53,-14,-63,-131,-180,-161
-102,-92,9,97,-56,-41,58,-4,-63,-126,-180,-161
-102,-92,9,97,-56,-41,58,-4,-58,-126,-175,-161
-102,-92,9,97,-56,-41,58,-4,-53,-122,-165,-161
-92,-92,0,92,-46,-46,53,0,-53,-117,-165,-161
-92,-92,0,92,-46,-46,53,4,-53,-117,-165,-156
-92,-92,0,92,-46,-46,53,4,-48,-117,-165,-156
-97,-92,4,95,-51,-43,58,4,-48,-112,-165,-156
-97,-92,4,95,-51,-43,58,9,-48,-112,-161,-156
-97,-92,4,95,-51,-43,58,14,-43,-107,-161,-156
-97,-92,4,95,-51,-43,63,19,-43,-102,-161,-156
-97,-92,4,95,-51,-43,63,19,-39,-97,-156,-156
-97,-102,-4,100,-46,-53,63,29,-34,-97,-156,-156
-97,-97,0,97,-48,-48,68,34,-34,-97,-151,-151
-97,-97,0,97,-48,-48,68,34,-34,-92,-151,-151
-97,-102,-4,100,-46,-53,68,34,-29,-92,-151,-151
-92,-92,0,92,-46,-46,68,34,-29,-92,-161,-151
-92,-92,0,92,-46,-46,68,34,-29,-92,-161,-151
-92,-87,4,90,-48,-41,68,34,-24,-87,-161,-151
-92,-87,4,90,-48,-41,68,34,-24,-87,-161,-151
-92,-92,0,92,-46,-46,68,43,-24,-87,-151,-151
-92,-92,0,92,-46,-46,73,53,-19,-87,-146,-151
-92,-87,4,90,-48,-41,73,53,-19,-82,-141,-151
-92,-87,4,90,-48,-41,73,53,-19,-78,-136,-151
-87,-97,-9,92,-39,-53,73,53,-19,-78,-131,-146
-87,-92,-4,90,-41,-48,73,58,-19,-78,-131,-146
-87,-92,-4,90,-41,-48,73,58,-19,-78,-131,-146
-87,-92,-4,90,-41,-48,78,63,-14,-73,-126,-146
-97,-92,4,95,-51,-43,78,63,-14,-73,-136,-141
-97,-92,4,95,-51,-43,78,63,-9,-68,-131,-141
-97,-92,4,95,-51,-43,78,68,-9,-68,-131,-141
-97,-92,4,95,-51,-43,78,78,-9,-68,-131,-141
-87,-92,-4,90,-41,-48,87,78,0,-68,-131,-141
-82,-92,-9,87,-36,-51,87,82,0,-63,-131,-141
-82,-87,-4,85,-39,-46,87,82,4,-63,-131,-141
-82,-87,-4,85,-39,-46,87,87,4,-63,-126,-141
-78,-82,-4,80,-36,-43,87,78,-4,-63,-126,-141
-78,-82,-4,80,-36,-43,87,82,-4,-63,-126,-136
-78,-82,-4,80,-36,-43,92,87,0,-63,-126,-136
-78,-82,-4,80,-36,-43,92,87,0,-58,-126,-136
-78,-82,-4,80,-36,-43,92,107,0,-58,-126,-126
-78,-82,-4,80,-36,-43,92,107,0,-58,-126,-126
-78,-78,0,78,-39,-39,92,112,4,-53,-122,-126
-78,-78,0,78,-39,-39,97,117,4,-53,-122,-126
-73,-78,-4,75,-34,-41,87,122,4,-53,-122,-126
-73,-78,-4,75,-34,-41,87,131,9,-53,-122,-126
-73,-78,-4,75,-34,-41,92,136,9,-48,-122,-126
-73,-78,-4,75,-34,-41,97,141,9,-48,-122,-126
-73,-73,0,73,-36,-36,107,146,14,-43,-122,-126
-68,-73,-4,70,-31,-39,107,151,14,-43,-122,-126
-68,-73,-4,70,-31,-39,107,156,14,-43,-117,-122
-68,-73,-4,70,-31,-39,107,165,19,-39,-117,-122
-73,-68,4,70,-39,-31,112,170,19,-39,-117,-122
-73,-68,4,70,-39,-31,117,180,29,-34,-117,-122
-68,-63,4,65,-36,-29,117,195,34,-24,-117,-122
-68,-63,4,65,-36,-29,117,200,34,-24,-112,-122
-68,-63,4,65,-36,-29,122,219,39,-19,-102,-112
-63,-53,9,58,-36,-21,122,229,43,-14,-102,-112
-63,-53,9,58,-36,-21,126,239,48,-9,-97,-112
-53,-53,0,53,-26,-26,136,248,53,-4,-97,-107
-48,-34,14,41,-31,-9,146,278,58,0,-97,-117
-48,-29,19,39,-34,-4,146,283,63,9,-97,-117
-43,-24,19,34,-31,-2,146,302,68,14,-97,-112
-39,-19,19,29,-29,0,151,317,73,14,-92,-112
-24,-14,9,19,-17,-2,146,331,82,34,-87,-102
-19,-9,9,14,-14,0,146,346,87,34,-82,-102
-14,-4,9,9,-12,2,146,361,97,48,-78,-97
-4,4,9,0,-7,7,151,375,107,53,-78,-97
-14,4,19,4,-17,12,161,400,117,63,-73,-107
-9,14,24,-2,-17,19,165,419,126,73,-73,-97
0,19,19,-9,-9,19,170,434,136,82,-63,-92
4,24,19,-14,-7,21,175,458,146,97,-53,-87
29,43,14,-36,7,29,180,488,161,107,-48,-78
29,53,24,-41,2,39,180,507,170,117,-43,-73
43,63,19,-53,12,41,180,517,180,131,-39,-68
53,78,24,-65,14,51,180,541,190,141,-29,-63
48,87,39,-68,4,63,180,556,204,156,-14,-68
53,102,48,-78,2,75,180,580,214,170,-9,-63
63,107,43,-85,9,75,180,595,224,175,-4,-58
73,122,48,-97,12,85,180,614,234,185,0,-53
82,136,53,-109,14,95,180,629,244,195,0,-43
92,146,53,-119,19,100,175,639,253,204,0,-43
97,161,63,-129,17,112,175,649,263,214,4,-43
107,170,63,-139,21,117,165,658,263,219,4,-39
112,175,63,-143,24,119,170,673,283,219,4,-39
122,185,63,-153,29,124,170,678,287,224,9,-34
126,190,63,-158,31,126,165,683,287,229,9,-34
131,200,68,-165,31,134,161,683,287,234,9,-34
136,224,87,-180,24,156,156,673,283,239,9,-29
136,229,92,-183,21,161,151,663,283,239,14,-29
136,234,97,-185,19,165,136,658,287,239,14,-29
141,244,102,-192,19,173,126,653,287,239,14,-24
141,248,107,-195,17,178,117,644,278,234,14,-34
141,248,107,-195,17,178,112,629,278,234,4,-34
141,248,107,-195,17,178,107,614,273,224,0,-34
141,248,107,-195,17,178,97,600,268,219,0,-34
131,248,117,-190,7,183,82,570,258,200,-4,-24
131,248,117,-190,7,183,78,551,248,190,-9,-29
126,244,117,-185,4,180,73,531,239,185,-14,-29
122,239,117,-180,2,178,68,512,229,170,-19,-29
117,224,107,-170,4,165,63,483,209,170,-24,-39
107,219,112,-163,-2,165,58,453,200,161,-29,-39
102,204,102,-153,0,153,53,429,190,151,-29,-43
97,195,97,-146,0,146,48,405,175,131,-34,-43
82,195,112,-139,-14,153,39,375,165,117,-43,-43
73,180,107,-126,-17,143,34,346,156,107,-43,-43
58,161,102,-109,-21,131,29,312,141,97,-43,-43
53,151,97,-102,-21,124,24,287,126,78,-43,-43
53,136,82,-95,-14,109,19,253,122,73,-34,-34
53,126,73,-90,-9,100,19,229,107,63,-34,-29
39,117,78,-78,-19,97,14,200,97,53,-34,-29
39,107,68,-73,-14,87,14,175,87,43,-34,-24
24,102,78,-63,-26,90,14,146,63,34,-34,-29
14,92,78,-53,-31,85,9,131,53,24,-34,-24
14,78,63,-46,-24,70,9,112,43,14,-34,-24
0,73,73,-36,-36,73,9,92,34,4,-34,-24
0,63,63,-31,-31,63,4,63,24,-4,-34,-14
-4,48,53,-21,-29,51,0,48,14,-14,-43,-14
-4,43,48,-19,-26,46,0,39,4,-24,-43,-14
-9,39,48,-14,-29,43,0,24,0,-29,-43,-14
-19,29,48,-4,-34,39,-9,0,-9,-29,-43,-14
-24,24,48,0,-36,36,-9,-9,-14,-34,-48,-14
-29,14,43,7,-36,29,-9,-14,-24,-43,-53,-14
-34,14,48,9,-41,31,-9,-24,-24,-48,-58,-14
-29,19,48,4,-39,34,-14,-34,-29,-53,-58,-24
-29,14,43,7,-36,29,-14,-39,-34,-58,-58,-24
-29,9,39,9,-34,24,-14,-48,-39,-58,-58,-24
-34,4,39,14,-36,21,-14,-48,-43,-63,-58,-24
-34,0,34,17,-34,17,-14,-63,-58,-68,-73,-24
-39,0,39,19,-39,19,-14,-68,-58,-73,-73,-29
-39,-4,34,21,-36,14,-14,-73,-58,-73,-73,-29
-39,-9,29,24,-34,9,-14,-73,-63,-73,-78,-29
-39,-9,29,24,-34,9,-14,-63,-53,-78,-68,-19
-39,-9,29,24,-34,9,-14,-73,-63,-82,-73,-24
-43,-9,34,26,-39,12,-14,-73,-63,-82,-73,-24
-43,-9,34,26,-39,12,-14,-73,-63,-82,-73,-29
-53,-19,34,36,-43,7,-14,-73,-68,-82,-73,-29
-53,-24,29,39,-41,2,-14,-73,-73,-87,-73,-29
-53,-24,29,39,-41,2,-14,-78,-73,-87,-73,-29
-53,-24,29,39,-41,2,-14,-78,-68,-87,-73,-29
-43,-24,19,34,-31,-2,-14,-78,-68,-97,-73,-29
-43,-24,19,34,-31,-2,-14,-78,-68,-97,-73,-29
-43,-19,24,31,-34,2,-14,-78,-68,-97,-73,-29
-43,-19,24,31,-34,2,-14,-78,-68,-97,-73,-29
-48,-19,29,34,-39,4,-24,-87,-68,-102,-73,-29
-48,-29,19,39,-34,-4,-24,-87,-73,-102,-73,-29
-48,-29,19,39,-34,-4,-24,-87,-73,-102,-73,-29
-48,-29,19,39,-34,-4,-24,-87,-73,-102,-73,-29
-48,-19,29,34,-39,4,-24,-87,-73,-92,-78,-29
-48,-19,29,34,-39,4,-24,-87,-73,-92,-78,-29
-48,-19,29,34,-39,4,-24,-92,-73,-92,-78,-29
-43,-19,24,31,-34,2,-24,-92,-73,-92,-78,-29
-53,-29,24,41,-39,-2,-14,-78,-73,-92,-68,-24
-53,-29,24,41,-39,-2,-14,-78,-73,-92,-68,-24
-53,-29,24,41,-39,-2,-14,-78,-73,-92,-68,-19
-53,-29,24,41,-39,-2,-14,-78,-73,-92,-63,-19
-43,-29,14,36,-29,-7,-24,-87,-82,-102,-63,-19
-43,-29,14,36,-29,-7,-24,-87,-82,-97,-63,-19
-43,-29,14,36,-29,-7,-24,-87,-82,-97,-63,-19
-43,-29,14,36,-29,-7,-24,-82,-87,-97,-63,-19
-43,-29,14,36,-29,-7,-24,-73,-87,-87,-63,-19
-43,-29,14,36,-29,-7,-19,-73,-82,-87,-63,-19
-43,-29,14,36,-29,-7,-19,-73,-82,-87,-63,-19
-43,-29,14,36,-29,-7,-19,-68,-82,-87,-58,-19
-43,-29,14,36,-29,-7,-19,-78,-82,-87,-68,-14
-43,-29,14,36,-29,-7,-19,-78,-82,-87,-68,-14
-43,-29,14,36,-29,-7,-19,-78,-82,-87,-68,-19
-43,-29,14,36,-29,-7,-19,-78,-78,-87,-68,-19
-58,-29,29,43,-43,0,-9,-78,-87,-97,-68,-19
-58,-29,29,43,-43,0,-9,-78,-87,-97,-73,-19
-58,-29,29,43,-43,0,-9,-78,-87,-97,-73,-19
-53,-29,24,41,-39,-2,-9,-73,-87,-97,-73,-19
-53,-29,24,41,-39,-2,-4,-73,-87,-92,-73,-19
-53,-29,24,41,-39,-2,-4,-73,-87,-92,-68,-19
-58,-29,29,43,-43,0,-4,-68,-87,-92,-68,-24
-58,-29,29,43,-43,0,-4,-68,-87,-92,-68,-24
-48,-29,19,39,-34,-4,-4,-58,-73,-92,-68,-24
-48,-29,19,39,-34,-4,-4,-58,-73,-92,-68,-19
-48,-29,19,39,-34,-4,-4,-58,-73,-92,-68,-19
-48,-29,19,39,-34,-4,0,-53,-73,-92,-68,-19
-58,-29,29,43,-43,0,-9,-63,-73,-92,-68,-19
-63,-29,34,46,-48,2,-9,-63,-73,-92,-73,-19
-63,-29,34,46,-48,2,-9,-63,-73,-87,-73,-19
-63,-29,34,46,-48,2,-9,-63,-68,-87,-73,-29
-63,-29,34,46,-48,2,-9,-63,-68,-92,-73,-29
-63,-29,34,46,-48,2,-9,-63,-73,-92,-73,-29
-63,-29,34,46,-48,2,-9,-63,-73,-92,-73,-29
-63,-29,34,46,-48,2,-9,-63,-68,-92,-73,-29
-63,-29,34,46,-48,2,-4,-63,-68,-92,-68,-29
-63,-29,34,46,-48,2,-4,-63,-68,-92,-68,-24
-63,-29,34,46,-48,2,-4,-63,-68,-92,-68,-24
-63,-29,34,46,-48,2,-4,-63,-68,-92,-73,-29
-63,-29,34,46,-48,2,-4,-63,-73,-92,-73,-29
-68,-29,39,48,-53,4,-4,-63,-73,-92,-73,-29
-68,-29,39,48,-53,4,-4,-63,-73,-92,-73,-29
-68,-29,39,48,-53,4,-4,-63,-73,-92,-73,-34
-68,-34,34,51,-51,0,-4,-63,-82,-92,-82,-34
-68,-34,34,51,-51,0,-4,-63,-82,-92,-82,-34
-68,-34,34,51,-51,0,-4,-63,-82,-97,-82,-34
-68,-34,34,51,-51,0,-4,-63,-82,-97,-82,-34
-68,-29,39,48,-53,4,-4,-63,-82,-97,-78,-34
-68,-29,39,48,-53,4,-4,-68,-82,-97,-87,-34
-68,-34,34,51,-51,0,-4,-68,-82,-97,-87,-34
-68,-34,34,51,-51,0,-9,-68,-82,-102,-82,-34
-68,-34,34,51,-51,0,-9,-68,-87,-102,-92,-34
-68,-34,34,51,-51,0,-9,-68,-87,-102,-92,-34
-68,-34,34,51,-51,0,-4,-73,-87,-102,-92,-34
-68,-34,34,51,-51,0,-4,-73,-87,-102,-92,-34
-58,-34,24,46,-41,-4,-4,-73,-78,-102,-82,-29
-58,-34,24,46,-41,-4,-4,-73,-78,-102,-87,-29
-58,-34,24,46,-41,-4,-9,-73,-78,-107,-87,-29
-58,-34,24,46,-41,-4,-9,-78,-78,-107,-87,-29
-68,-43,24,56,-46,-9,-9,-78,-78,-107,-97,-39
-68,-48,19,58,-43,-14,-9,-78,-78,-107,-97,-39
-68,-48,19,58,-43,-14,-9,-78,-78,-107,-97,-39
-68,-48,19,58,-43,-14,-14,-78,-78,-107,-97,-39
-63,-48,14,56,-39,-17,-14,-78,-78,-107,-87,-39
-63,-48,14,56,-39,-17,-14,-78,-82,-112,-87,-39
-63,-48,14,56,-39,-17,-14,-82,-82,-112,-87,-39
-63,-48,14,56,-39,-17,-14,-82,-82,-112,-87,-39
-73,-48,24,61,-48,-12,-14,-82,-82,-112,-87,-39
-73,-48,24,61,-48,-12,-14,-82,-87,-112,-87,-39
-73,-48,24,61,-48,-12,-14,-87,-87,-112,-92,-39
-73,-48,24,61,-48,-12,-14,-87,-87,-112,-92,-39
-73,-48,24,61,-48,-12,-19,-97,-87,-112,-92,-29
-73,-48,24,61,-48,-12,-19,-97,-87,-117,-92,-29
-73,-48,24,61,-48,-12,-19,-102,-87,-117,-92,-29
-73,-48,24,61,-48,-12,-19,-102,-87,-117,-92,-29
-73,-43,29,58,-51,-7,-19,-92,-92,-117,-92,-39
-73,-43,29,58,-51,-7,-19,-92,-92,-117,-92,-34
-73,-43,29,58,-51,-7,-19,-97,-92,-117,-92,-34
-73,-43,29,58,-51,-7,-19,-97,-92,-117,-92,-34
-58,-43,14,51,-36,-14,-9,-102,-87,-112,-102,-34
-58,-39,19,48,-39,-9,-9,-102,-87,-112,-97,-29
-58,-39,19,48,-39,-9,-9,-102,-87,-112,-97,-29
-53,-34,19,43,-36,-7,-9,-102,-87,-112,-92,-29
-63,-39,24,51,-43,-7,-19,-92,-92,-112,-92,-29
-63,-24,39,43,-51,7,-9,-92,-82,-112,-82,-24
-63,-24,39,43,-51,7,-4,-92,-63,-92,-73,-14
-63,-24,39,43,-51,7,-4,-92,-58,-82,-73,-4
-48,-19,29,34,-39,4,-9,-97,-68,-87,-68,-9
-48,-14,34,31,-41,9,-19,-87,-58,-87,-68,-9
-48,-9,39,29,-43,14,-19,-87,-58,-87,-68,-9
-48,-4,43,26,-46,19,-19,-87,-58,-87,-68,-9
-48,0,48,24,-48,24,-19,-87,-58,-87,-68,-9
-43,0,43,21,-43,21,-14,-87,-58,-82,-58,-4
-43,9,53,17,-48,31,-14,-92,-53,-82,-58,0
-43,9,53,17,-48,31,-24,-92,-53,-82,-53,4
-43,14,58,14,-51,36,-24,-92,-48,-82,-53,9
-53,14,68,19,-61,41,-29,-102,-48,-73,-43,14
-48,9,58,19,-53,34,-29,-102,-48,-68,-43,14
-48,9,58,19,-53,34,-29,-92,-43,-68,-39,14
-48,9,58,19,-53,34,-19,-87,-34,-53,-39,19
-34,9,43,12,-39,26,-19,-78,-29,-63,-39,29
-34,14,48,9,-41,31,-19,-78,-24,-58,-34,29
-29,29,58,0,-43,43,-29,-82,-19,-48,-29,34
-29,34,63,-2,-46,48,-34,-87,-14,-43,-24,39
-24,48,73,-12,-48,61,-48,-102,-4,-43,-24,39
-19,48,68,-14,-43,58,-63,-112,-4,-43,-24,39
-19,48,68,-14,-43,58,-73,-122,-14,-48,-19,39
-19,48,68,-14,-43,58,-78,-126,-19,-48,-19,43
-19,43,63,-12,-41,53,-87,-126,-19,-48,-24,53
-14,43,58,-14,-36,51,-87,-122,-19,-48,-24,53
-9,39,48,-14,-29,43,-87,-122,-19,-53,-24,53
-9,39,48,-14,-29,43,-87,-126,-29,-53,-24,53
-9,39,48,-14,-29,43,-92,-126,-29,-43,-19,53
-9,43,53,-17,-31,48,-97,-131,-34,-43,-19,53
-14,43,58,-14,-36,51,-107,-141,-43,-53,-29,53
-14,53,68,-19,-41,61,-112,-146,-48,-58,-29,53
-24,58,82,-17,-53,70,-112,-151,-48,-68,-39,43
-24,58,82,-17,-53,70,-112,-156,-48,-68,-34,48
-24,53,78,-14,-51,65,-117,-161,-53,-68,-34,48
-24,53,78,-14,-51,65,-117,-165,-58,-68,-39,48
-14,58,73,-21,-43,65,-126,-170,-63,-73,-29,48
-14,53,68,-19,-41,61,-122,-170,-68,-73,-29,53
-4,58,63,-26,-34,61,-117,-165,-73,-73,-29,53
0,53,53,-26,-26,53,-117,-165,-73,-78,-29,53
4,48,43,-26,-19,46,-112,-156,-87,-78,-34,48
4,53,48,-29,-21,51,-112,-156,-87,-78,-34,48
4,48,43,-26,-19,46,-107,-156,-82,-78,-34,48
4,43,39,-24,-17,41,-107,-156,-82,-78,-39,48
4,58,53,-31,-24,56,-107,-156,-82,-78,-39,58
0,58,58,-29,-29,58,-107,-161,-82,-78,-39,53
-4,58,63,-26,-34,61,-112,-170,-82,-82,-39,53
-4,58,63,-26,-34,61,-112,-170,-87,-82,-39,53
0,58,58,-29,-29,58,-117,-170,-87,-87,-43,63
0,48,48,-24,-24,48,-107,-170,-87,-87,-48,53
-14,34,48,-9,-31,41,-92,-161,-82,-87,-48,48
-29,14,43,7,-36,29,-73,-156,-82,-97,-58,39
-53,0,53,26,-53,26,-58,-146,-78,-92,-58,29
-58,-14,43,36,-51,14,-48,-141,-82,-97,-68,14
-63,-19,43,41,-53,12,-48,-141,-87,-102,-68,9
-63,-24,39,43,-51,7,-43,-141,-92,-107,-73,9
-73,-43,29,58,-51,-7,-39,-131,-92,-112,-78,-4
-73,-53,19,63,-46,-17,-39,-131,-97,-117,-87,-9
-82,-53,29,68,-56,-12,-39,-131,-102,-117,-87,-14
-82,-58,24,70,-53,-17,-39,-131,-102,-122,-87,-14
-87,-73,14,80,-51,-29,-29,-141,-117,-131,-92,-4
-87,-73,14,80,-51,-29,-29,-141,-117,-131,-97,-9
-92,-73,19,82,-56,-26,-29,-141,-112,-131,-97,-9
-92,-73,19,82,-56,-26,-29,-141,-112,-131,-92,-9
-92,-73,19,82,-56,-26,-29,-141,-112,-131,-92,-14
-92,-78,14,85,-53,-31,-34,-141,-117,-131,-97,-14
-92,-78,14,85,-53,-31,-39,-141,-117,-131,-97,-14
-102,-78,24,90,-63,-26,-43,-141,-117,-136,-97,-14
-82,-82,0,82,-41,-41,-34,-146,-117,-136,-97,-14
-82,-82,0,82,-41,-41,-34,-146,-117,-136,-97,-14
-87,-82,4,85,-46,-39,-34,-146,-117,-136,-102,-19
-87,-82,4,85,-46,-39,-34,-146,-122,-141,-102,-19
-87,-82,4,85,-46,-39,-24,-136,-122,-141,-102,-19
-87,-82,4,85,-46,-39,-24,-136,-122,-141,-102,-19
-87,-82,4,85,-46,-39,-24,-131,-122,-141,-102,-19
-87,-87,0,87,-43,-43,-24,-131,-122,-141,-102,-19
-87,-87,0,87,-43,-43,-29,-141,-122,-141,-102,-29
-92,-87,4,90,-48,-41,-29,-141,-122,-141,-102,-34
-92,-97,-4,95,-43,-51,-29,-141,-122,-141,-102,-34
-92,-97,-4,95,-43,-51,-29,-141,-122,-141,-102,-34
-92,-97,-4,95,-43,-51,-29,-131,-112,-146,-117,-34
-92,-92,0,92,-46,-46,-29,-131,-112,-146,-117,-39
-87,-92,-4,90,-41,-48,-29,-131,-112,-141,-117,-39
-87,-92,-4,90,-41,-48,-29,-131,-112,-141,-117,-39
-92,-92,0,92,-46,-46,-29,-131,-112,-141,-117,-39
-92,-92,0,92,-46,-46,-24,-131,-112,-146,-117,-39
-92,-92,0,92,-46,-46,-24,-136,-112,-146,-122,-39
-92,-97,-4,95,-43,-51,-24,-136,-112,-146,-122,-39
-102,-97,4,100,-53,-46,-24,-146,-112,-136,-112,-34
-102,-102,0,102,-51,-51,-24,-136,-112,-146,-112,-34
-102,-102,0,102,-51,-51,-19,-131,-122,-146,-122,-43
-112,-102,9,107,-61,-46,-14,-122,-117,-141,-122,-43
-112,-102,9,107,-61,-46,-4,-107,-102,-136,-112,-34
-107,-92,14,100,-61,-39,0,-107,-82,-112,-97,-34
-102,-92,9,97,-56,-41,0,-112,-68,-102,-82,-34
-97,-87,9,92,-53,-39,-9,-107,-68,-92,-73,-24
-87,-68,19,78,-53,-24,-9,-97,-48,-58,-39,9
-68,-34,34,51,-51,0,0,-53,19,29,39,68
-34,24,58,4,-46,41,14,19,126,156,156,165
29,92,63,-61,-17,78,0,63,204,283,302,283
117,190,73,-153,21,131,-73,29,253,409,497,458
209,326,117,-268,46,222,-204,-102,268,512,697,673
302,473,170,-387,65,322,-336,-258,253,590,897,897
409,614,204,-512,102,409,-468,-409,239,649,1073,1098
522,766,244,-644,139,505,-619,-580,195,692,1234,1298
624,932,307,-778,158,619,-800,-795,122,712,1395,1512
697,1107,409,-902,143,758,-1005,-1049,63,727,1532,1717
775,1259,483,-1017,146,871,-1195,-1298,-4,712,1644,1878
839,1346,507,-1093,165,927,-1337,-1478,-102,678,1708,1995
883,1327,444,-1105,219,885,-1390,-1586,-229,595,1717,2044
902,1205,302,-1054,300,753,-1400,-1629,-395,468,1659,2010
893,1058,165,-976,363,612,-1395,-1668,-566,322,1566,1947
863,932,68,-897,397,500,-1395,-1751,-717,190,1483,1888
819,795,-24,-807,422,385,-1371,-1815,-844,58,1351,1790
746,570,-175,-658,461,197,-1288,-1786,-1005,-141,1102,1566
649,312,-336,-480,492,-12,-1176,-1698,-1176,-390,736,1229
531,112,-419,-322,475,-153,-1063,-1615,-1298,-629,331,854
439,4,-434,-222,436,-214,-995,-1571,-1346,-814,-14,551
331,-63,-395,-134,363,-229,-936,-1517,-1361,-946,-283,292
224,-156,-380,-34,302,-268,-858,-1415,-1327,-1044,-527,14
156,-224,-380,34,268,-302,-761,-1288,-1239,-1044,-673,-204
87,-214,-302,63,195,-258,-683,-1180,-1083,-941,-668,-253
9,-195,-204,92,107,-200,-590,-1054,-956,-863,-639,-253
-53,-214,-161,134,53,-187,-478,-897,-858,-854,-688,-307
-73,-209,-136,141,31,-173,-400,-751,-756,-790,-692,-341
-78,-190,-112,134,17,-151,-331,-634,-619,-644,-575,-287
-78,-165,-87,122,4,-126,-263,-507,-497,-512,-468,-244
-97,-165,-68,131,-14,-117,-185,-375,-409,-429,-409,-239
-107,-161,-53,134,-26,-107,-122,-268,-341,-370,-356,-219
-102,-151,-48,126,-26,-100,-82,-209,-283,-317,-307,-200
-97,-126,-29,112,-34,-78,-58,-170,-234,-268,-268,-165
-97,-112,-14,104,-41,-63,-29,-131,-185,-229,-239,-131
-97,-112,-14,104,-41,-63,-4,-97,-156,-195,-214,-112
-97,-117,-19,107,-39,-68,19,-73,-126,-175,-195,-107
-102,-107,-4,104,-48,-56,29,-48,-112,-161,-185,-107
-102,-112,-9,107,-46,-61,43,-39,-97,-141,-170,-102
-112,-117,-4,114,-53,-61,53,-34,-102,-151,-170,-102
-112,-122,-9,117,-51,-65,58,-24,-102,-146,-170,-102
-112,-126,-14,119,-48,-70,58,-24,-97,-146,-165,-102
-112,-131,-19,122,-46,-75,58,-24,-92,-141,-156,-102
-112,-122,-9,117,-51,-65,63,-9,-82,-136,-156,-92
-112,-122,-9,117,-51,-65,63,-4,-82,-136,-156,-87
-112,-122,-9,117,-51,-65,63,-4,-78,-136,-156,-87
-117,-122,-4,119,-56,-63,68,-4,-78,-131,-156,-87
-107,-122,-14,114,-46,-68,68,0,-78,-122,-141,-97
-107,-122,-14,114,-46,-68,68,4,-73,-117,-141,-97
-107,-122,-14,114,-46,-68,73,9,-73,-112,-141,-97
-107,-122,-14,114,-46,-68,73,9,-68,-107,-136,-97
-117,-131,-14,124,-51,-73,73,9,-53,-107,-146,-97
-117,-126,-9,122,-53,-68,78,14,-53,-107,-141,-92
-117,-126,-9,122,-53,-68,78,14,-53,-102,-141,-92
-117,-131,-14,124,-51,-73,78,14,-48,-102,-141,-92
-102,-131,-29,117,-36,-80,78,24,-58,-102,-141,-92
-102,-131,-29,117,-36,-80,78,24,-58,-102,-141,-92
-102,-126,-24,114,-39,-75,78,24,-53,-97,-141,-92
-102,-126,-24,114,-39,-75,78,24,-53,-97,-141,-92
-112,-122,-9,117,-51,-65,78,34,-53,-97,-136,-92
-112,-122,-9,117,-51,-65,82,43,-48,-97,-136,-92
-112,-117,-4,114,-53,-61,82,43,-48,-92,-136,-92
-112,-117,-4,114,-53,-61,82,43,-48,-87,-136,-92
-97,-117,-19,107,-39,-68,82,43,-39,-97,-131,-87
-97,-112,-14,104,-41,-63,82,48,-39,-97,-131,-87
-97,-112,-14,104,-41,-63,82,48,-39,-97,-131,-87
-97,-112,-14,104,-41,-63,87,53,-34,-92,-126,-87
-107,-112,-4,109,-51,-58,87,53,-34,-82,-126,-82
-107,-112,-4,109,-51,-58,87,53,-29,-78,-122,-82
-107,-112,-4,109,-51,-58,87,58,-29,-78,-122,-82
-107,-112,-4,109,-51,-58,87,68,-29,-78,-122,-82
-97,-112,-14,104,-41,-63,87,58,-29,-78,-122,-92
-92,-112,-19,102,-36,-65,87,63,-29,-73,-122,-92
-92,-107,-14,100,-39,-61,87,63,-24,-73,-122,-92
-92,-107,-14,100,-39,-61,87,68,-24,-73,-117,-92
-97,-112,-14,104,-41,-63,87,78,-34,-73,-126,-82
-97,-112,-14,104,-41,-63,87,82,-34,-73,-126,-78
-97,-112,-14,104,-41,-63,92,87,-29,-73,-126,-78
-97,-112,-14,104,-41,-63,92,87,-29,-68,-126,-78
-92,-102,-9,97,-41,-56,92,97,-19,-68,-117,-78
-87,-102,-14,95,-36,-58,92,97,-19,-68,-117,-78
-82,-97,-14,90,-34,-56,92,102,-14,-63,-112,-78
-78,-97,-19,87,-29,-58,97,107,-14,-63,-112,-78
-82,-97,-14,90,-34,-56,97,112,-14,-63,-102,-78
-82,-97,-14,90,-34,-56,97,122,-9,-63,-102,-78
-82,-97,-14,90,-34,-56,102,126,-9,-58,-102,-78
-82,-97,-14,90,-34,-56,107,131,-9,-58,-102,-78
-82,-82,0,82,-41,-41,107,136,-14,-53,-112,-78
-78,-82,-4,80,-36,-43,107,141,-14,-53,-112,-78
-78,-82,-4,80,-36,-43,107,146,-14,-53,-107,-73
-78,-82,-4,80,-36,-43,107,156,-9,-48,-107,-73
-82,-87,-4,85,-39,-46,112,161,-9,-58,-107,-73
-82,-87,-4,85,-39,-46,117,170,0,-53,-107,-73
-78,-82,-4,80,-36,-43,117,185,4,-43,-107,-73
-78,-82,-4,80,-36,-43,117,190,4,-43,-102,-73
-68,-82,-14,75,-26,-48,122,200,9,-39,-102,-73
-63,-73,-9,68,-26,-41,122,209,14,-34,-102,-73
-63,-73,-9,68,-26,-41,126,219,19,-29,-97,-73
-53,-73,-19,63,-17,-46,136,229,24,-24,-97,-68
-58,-73,-14,65,-21,-43,136,248,29,-19,-87,-78
-58,-68,-9,63,-24,-39,136,253,34,-9,-87,-78
-53,-63,-9,58,-21,-36,136,273,39,-4,-87,-73
-48,-58,-9,53,-19,-34,141,287,43,-4,-82,-73
-43,-43,0,43,-21,-21,156,302,53,4,-87,-73
-39,-39,0,39,-19,-19,156,317,58,4,-82,-73
-34,-34,0,34,-17,-17,156,331,68,19,-78,-68
-24,-24,0,24,-12,-12,161,346,78,24,-78,-68
-24,-29,-4,26,-9,-17,165,370,87,43,-73,-68
-19,-14,4,17,-12,-4,165,390,97,53,-73,-58
-9,-4,4,7,-7,0,165,405,107,63,-63,-53
-4,4,9,0,-7,7,165,429,117,78,-53,-48
9,4,-4,-7,7,0,170,448,122,78,-48,-48
9,14,4,-12,2,9,170,468,131,87,-43,-43
24,24,0,-24,12,12,170,478,141,102,-39,-39
34,39,4,-36,14,21,170,502,151,112,-29,-34
48,58,9,-53,19,34,170,522,175,126,-14,-29
53,73,19,-63,17,46,170,541,185,141,-9,-24
63,78,14,-70,24,46,170,551,195,146,-4,-19
73,92,19,-82,26,56,170,566,204,156,0,-14
63,97,34,-80,14,65,180,590,204,165,4,-14
73,107,34,-90,19,70,175,600,214,175,0,-14
78,122,43,-100,17,82,175,610,224,185,0,-14
87,131,43,-109,21,87,165,619,224,190,-4,-9
102,156,53,-129,24,104,161,634,244,209,0,0
112,165,53,-139,29,109,161,639,248,214,9,4
117,170,53,-143,31,112,156,644,248,219,14,4
122,180,58,-151,31,119,151,644,248,224,19,4
126,185,58,-156,34,122,156,649,253,219,9,0
126,190,63,-158,31,126,151,644,253,219,14,0
126,195,68,-161,29,131,136,644,258,219,14,0
131,204,73,-168,29,139,126,644,258,219,14,4
141,219,78,-180,31,148,126,644,253,219,24,4
141,219,78,-180,31,148,122,629,258,224,14,4
141,219,78,-180,31,148,117,614,258,219,9,4
141,219,78,-180,31,148,107,600,258,219,9,4
131,229,97,-180,17,163,102,580,248,219,4,-4
131,229,97,-180,17,163,97,561,239,209,0,-9
126,224,97,-175,14,161,92,541,229,204,-4,-9
122,219,97,-170,12,158,87,522,219,190,-9,-9
117,214,97,-165,9,156,73,502,219,180,-14,0
107,209,102,-158,2,156,68,473,209,170,-19,0
102,195,92,-148,4,143,63,448,200,161,-19,-4
97,185,87,-141,4,136,58,424,185,141,-24,-4
82,175,92,-129,-4,134,58,390,165,126,-34,-14
73,161,87,-117,-7,124,53,366,156,117,-34,-14
58,141,82,-100,-12,112,48,336,141,107,-34,-14
53,131,78,-92,-12,104,43,317,126,87,-34,-14
53,126,73,-90,-9,100,39,283,122,92,-34,-4
53,117,63,-85,-4,90,39,258,107,82,-34,0
39,107,68,-73,-14,87,34,229,97,73,-34,0
39,97,58,-68,-9,78,34,204,87,63,-34,4
24,92,68,-58,-21,80,24,175,82,53,-34,0
14,82,68,-48,-26,75,19,161,73,43,-34,4
14,68,53,-41,-19,61,19,141,63,34,-34,4
0,63,63,-31,-31,63,19,122,53,24,-34,4
0,53,53,-26,-26,53,24,92,43,24,-24,4
-4,39,43,-17,-24,41,19,78,34,14,-34,4
-4,34,39,-14,-21,36,19,68,24,4,-34,4
-9,29,39,-9,-24,34,19,53,19,0,-34,4
-19,19,39,0,-29,29,9,29,0,-19,-43,4
-24,14,39,4,-31,26,9,19,-4,-24,-48,4
-29,4,34,12,-31,19,9,14,-14,-34,-53,4
-34,4,39,14,-36,21,9,4,-14,-39,-58,4
-29,9,39,9,-34,24,4,-14,-19,-43,-58,4
-29,4,34,12,-31,19,4,-19,-24,-48,-58,4
-29,0,29,14,-29,14,4,-29,-29,-48,-58,4
-34,-4,29,19,-31,12,4,-29,-34,-53,-58,4
-39,-19,19,29,-29,0,4,-34,-39,-58,-63,4
-48,-19,29,34,-39,4,4,-39,-39,-63,-63,0
-53,-24,29,39,-41,2,4,-43,-39,-63,-63,0
-58,-29,29,43,-43,0,4,-43,-43,-63,-68,0
-48,-29,19,39,-34,-4,4,-53,-43,-58,-58,0
-48,-29,19,39,-34,-4,4,-63,-53,-63,-63,-4
-53,-29,24,41,-39,-2,4,-63,-53,-63,-63,-4
-53,-29,24,41,-39,-2,4,-63,-53,-63,-63,-9
-63,-39,24,51,-43,-7,4,-63,-58,-73,-73,-9
-63,-43,19,53,-41,-12,4,-63,-63,-78,-73,-9
-63,-43,19,53,-41,-12,4,-68,-63,-78,-73,-9
-63,-43,19,53,-41,-12,4,-68,-58,-78,-73,-9
-63,-43,19,53,-41,-12,4,-68,-58,-87,-73,-9
-63,-43,19,53,-41,-12,4,-68,-58,-87,-73,-9
-63,-39,24,51,-43,-7,4,-68,-58,-87,-73,-9
-63,-39,24,51,-43,-7,4,-68,-58,-87,-73,-9
-58,-39,19,48,-39,-9,14,-68,-58,-87,-63,-9
-58,-48,9,53,-34,-19,14,-68,-63,-82,-63,-9
-58,-48,9,53,-34,-19,14,-68,-63,-78,-63,-9
-58,-48,9,53,-34,-19,14,-68,-63,-73,-63,-9
-58,-48,9,53,-34,-19,4,-58,-63,-82,-78,-19
-58,-48,9,53,-34,-19,4,-58,-63,-82,-78,-19
-58,-48,9,53,-34,-19,4,-63,-63,-82,-78,-19
-53,-48,4,51,-29,-21,4,-63,-63,-82,-78,-19
-53,-48,4,51,-29,-21,14,-58,-63,-82,-78,-24
-53,-48,4,51,-29,-21,14,-58,-63,-82,-78,-24
-53,-48,4,51,-29,-21,14,-58,-63,-82,-78,-19
-53,-48,4,51,-29,-21,14,-58,-63,-82,-73,-19
-53,-39,14,46,-34,-12,4,-58,-53,-73,-63,-9
-53,-39,14,46,-34,-12,4,-58,-53,-68,-63,-9
-53,-39,14,46,-34,-12,4,-58,-53,-68,-63,-9
-53,-39,14,46,-34,-12,4,-53,-58,-68,-63,-9
-63,-48,14,56,-39,-17,4,-53,-58,-78,-73,-14
-63,-48,14,56,-39,-17,9,-53,-53,-78,-73,-19
-63,-48,14,56,-39,-17,9,-53,-53,-78,-73,-24
-63,-48,14,56,-39,-17,9,-48,-53,-78,-68,-29
-63,-39,24,51,-43,-7,19,-48,-63,-78,-68,-24
-63,-39,24,51,-43,-7,19,-48,-63,-78,-68,-24
-63,-39,24,51,-43,-7,19,-48,-63,-78,-68,-29
-63,-39,24,51,-43,-7,19,-48,-58,-78,-68,-29
-63,-39,24,51,-43,-7,19,-39,-48,-68,-58,-24
-58,-39,19,48,-39,-9,19,-39,-48,-68,-63,-19
-53,-39,14,46,-34,-12,19,-39,-48,-68,-63,-14
-43,-39,4,41,-24,-17,19,-34,-48,-68,-63,-9
-53,-39,14,46,-34,-12,24,-43,-48,-63,-73,-9
-53,-39,14,46,-34,-12,24,-43,-48,-63,-68,-9
-58,-39,19,48,-39,-9,24,-39,-48,-63,-68,-14
-58,-39,19,48,-39,-9,24,-39,-48,-63,-68,-14
-58,-39,19,48,-39,-9,24,-39,-43,-73,-68,-24
-58,-39,19,48,-39,-9,24,-39,-43,-73,-68,-19
-58,-39,19,48,-39,-9,24,-39,-43,-73,-68,-19
-58,-39,19,48,-39,-9,29,-34,-43,-73,-68,-19
-58,-48,9,53,-34,-19,29,-24,-43,-73,-68,-29
-63,-48,14,56,-39,-17,29,-24,-43,-73,-73,-29
-63,-48,14,56,-39,-17,29,-24,-43,-68,-73,-29
-63,-48,14,56,-39,-17,29,-24,-39,-68,-73,-39
-63,-39,24,51,-43,-7,39,-24,-39,-63,-73,-39
-63,-39,24,51,-43,-7,39,-24,-43,-63,-73,-39
-63,-39,24,51,-43,-7,39,-24,-43,-63,-73,-39
-63,-39,24,51,-43,-7,39,-24,-39,-63,-73,-39
-73,-48,24,61,-48,-12,34,-34,-48,-63,-78,-48
-73,-48,24,61,-48,-12,34,-34,-48,-63,-78,-43
-73,-48,24,61,-48,-12,34,-34,-48,-63,-78,-43
-73,-48,24,61,-48,-12,34,-34,-48,-63,-82,-48
-63,-48,14,56,-39,-17,34,-34,-53,-73,-82,-39
-68,-48,19,58,-43,-14,34,-34,-53,-73,-82,-39
-68,-48,19,58,-43,-14,34,-34,-53,-73,-82,-39
-68,-48,19,58,-43,-14,34,-34,-53,-73,-82,-43
-78,-53,24,65,-51,-14,24,-34,-43,-63,-73,-43
-78,-53,24,65,-51,-14,24,-34,-43,-63,-73,-43
-78,-53,24,65,-51,-14,24,-34,-43,-68,-73,-43
-78,-53,24,65,-51,-14,24,-34,-43,-68,-73,-43
-68,-58,9,63,-39,-24,34,-24,-43,-78,-78,-53
-68,-58,9,63,-39,-24,34,-29,-43,-78,-87,-53
-68,-63,4,65,-36,-29,34,-29,-43,-78,-87,-53
-68,-63,4,65,-36,-29,29,-29,-43,-82,-82,-53
-78,-53,24,65,-51,-14,29,-39,-48,-73,-92,-53
-78,-53,24,65,-51,-14,29,-39,-48,-73,-92,-53
-78,-53,24,65,-51,-14,34,-43,-48,-73,-92,-53
-78,-53,24,65,-51,-14,34,-43,-48,-73,-92,-53
-68,-53,14,61,-41,-19,34,-43,-48,-82,-92,-58
-68,-53,14,61,-41,-19,34,-43,-48,-82,-97,-58
-68,-53,14,61,-41,-19,29,-43,-48,-87,-97,-58
-68,-53,14,61,-41,-19,29,-48,-48,-87,-97,-58
-78,-43,34,61,-56,-4,29,-48,-58,-78,-97,-58
-78,-48,29,63,-53,-9,29,-48,-58,-78,-97,-58
-78,-48,29,63,-53,-9,29,-48,-58,-78,-97,-58
-78,-48,29,63,-53,-9,24,-48,-58,-78,-97,-58
-73,-58,14,65,-43,-21,24,-39,-48,-78,-97,-58
-73,-58,14,65,-43,-21,24,-39,-53,-82,-97,-58
-73,-58,14,65,-43,-21,24,-43,-53,-82,-97,-58
-73,-58,14,65,-43,-21,24,-43,-53,-82,-97,-58
-73,-48,24,61,-48,-12,24,-43,-43,-82,-97,-58
-73,-48,24,61,-48,-12,24,-43,-48,-82,-97,-58
-73,-48,24,61,-48,-12,24,-48,-48,-82,-102,-58
-73,-48,24,61,-48,-12,24,-48,-48,-82,-102,-58
-73,-48,24,61,-48,-12,19,-48,-58,-82,-92,-58
-73,-48,24,61,-48,-12,19,-48,-58,-87,-92,-58
-73,-48,24,61,-48,-12,19,-53,-58,-87,-92,-58
-73,-48,24,61,-48,-12,19,-53,-58,-87,-92,-58
-82,-53,29,68,-56,-12,19,-63,-63,-87,-102,-63
