I, II, III, aVR, aVL, aVF, V1, V2, V3, V4, V5, V6
-68,-39,29,53,-48,-4,-9,-97,-78,-97,-87,-87
-78,-63,14,70,-46,-24,-9,-63,-58,-87,-82,-87
-87,-87,0,87,-43,-43,-9,-29,-39,-78,-78,-87
-87,-92,-4,90,-41,-48,-9,-24,-34,-73,-73,-82
-87,-97,-9,92,-39,-53,-9,-19,-29,-68,-68,-78
-92,-97,-4,95,-43,-51,-9,-9,-24,-68,-68,-78
-97,-97,0,97,-48,-48,-9,0,-19,-68,-68,-78
-97,-97,0,97,-48,-48,-9,0,-9,-63,-63,-73
-97,-97,0,97,-48,-48,-9,0,0,-58,-58,-68
-97,-97,0,97,-48,-48,-9,4,0,-58,-58,-68
-97,-97,0,97,-48,-48,-9,9,0,-58,-58,-68
-92,-97,-4,95,-43,-51,-9,9,0,-58,-58,-68
-87,-97,-9,92,-39,-53,-9,9,0,-58,-58,-68
-87,-97,-9,92,-39,-53,-9,14,0,-58,-58,-68
-87,-97,-9,92,-39,-53,-9,19,0,-58,-58,-68
-87,-97,-9,92,-39,-53,-9,24,0,-53,-53,-68
-87,-97,-9,92,-39,-53,-9,29,0,-48,-48,-68
-87,-102,-14,95,-36,-58,-9,29,0,-48,-48,-68
-87,-107,-19,97,-34,-63,-9,29,0,-48,-48,-68
-87,-107,-19,97,-34,-63,-9,34,0,-48,-48,-63
-87,-107,-19,97,-34,-63,-9,39,0,-48,-48,-58
-82,-92,-9,87,-36,-51,-9,39,0,-48,-48,-58
-78,-78,0,78,-39,-39,-9,39,0,-48,-48,-58
-78,-78,0,78,-39,-39,-9,43,0,-48,-48,-63
-78,-78,0,78,-39,-39,-9,48,0,-48,-48,-68
-78,-87,-9,82,-34,-48,-9,48,0,-48,-48,-68
-78,-97,-19,87,-29,-58,-9,48,0,-48,-48,-68
-68,-87,-19,78,-24,-53,-9,53,0,-48,-48,-63
-58,-78,-19,68,-19,-48,-9,58,0,-48,-48,-58
-53,-78,-24,65,-14,-51,-9,73,9,-43,-43,-53
-48,-78,-29,63,-9,-53,-9,87,19,-39,-39,-48
-48,-78,-29,63,-9,-53,-9,102,24,-29,-34,-43
-48,-78,-29,63,-9,-53,-9,117,29,-19,-29,-39
-34,-63,-29,48,-2,-46,-9,117,29,-19,-24,-34
-19,-48,-29,34,4,-39,-9,117,29,-19,-19,-29
-19,-43,-24,31,2,-34,-9,136,39,-4,-4,-14
-19,-39,-19,29,0,-29,-9,156,48,9,9,0
-4,-24,-19,14,7,-21,-9,170,58,14,19,4
9,-9,-19,0,14,-14,-9,185,68,19,29,9
24,-4,-29,-9,26,-17,-9,195,73,19,29,14
39,0,-39,-19,39,-19,-9,204,78,19,29,19
58,19,-39,-39,48,-9,-9,224,87,34,48,34
78,39,-39,-58,58,0,-9,244,97,48,68,48
102,58,-43,-80,73,7,-9,258,107,58,78,68
126,78,-48,-102,87,14,-9,273,117,68,87,87
141,87,-53,-114,97,17,-9,283,126,82,107,97
156,97,-58,-126,107,19,-9,292,136,97,126,107
165,112,-53,-139,109,29,-9,292,136,107,131,122
175,126,-48,-151,112,39,-9,292,136,117,136,136
190,131,-58,-161,124,36,-9,292,136,117,146,141
204,136,-68,-170,136,34,-9,292,136,117,156,146
204,151,-53,-178,129,48,-9,283,146,126,161,161
204,165,-39,-185,122,63,-9,273,156,136,165,175
204,165,-39,-185,122,63,-9,263,156,136,165,175
204,165,-39,-185,122,63,-9,253,156,136,165,175
195,161,-34,-178,114,63,-9,234,151,131,165,170
185,156,-29,-170,107,63,-9,214,146,126,165,165
170,146,-24,-158,97,61,-9,195,141,117,151,151
156,136,-19,-146,87,58,-9,175,136,107,136,136
126,122,-4,-124,65,58,-9,141,122,92,117,117
97,107,9,-102,43,58,-9,107,107,78,97,97
68,73,4,-70,31,39,-9,92,102,68,82,82
39,39,0,-39,19,19,-9,78,97,58,68,68
24,29,4,-26,9,17,-9,63,87,48,58,53
9,19,9,-14,0,14,-9,48,78,39,48,39
-4,9,14,-2,-9,12,-9,29,63,29,34,24
-19,0,19,9,-19,9,-9,9,48,19,19,9
-29,-9,19,19,-24,4,-9,0,39,9,14,4
-39,-19,19,29,-29,0,-9,-9,29,0,9,0
-43,-24,19,34,-31,-2,-9,-9,29,-4,0,-9
-48,-29,19,39,-34,-4,-9,-9,29,-9,-9,-19
-53,-39,14,46,-34,-12,-9,-9,29,-9,-9,-19
-58,-48,9,53,-34,-19,-9,-9,29,-9,-9,-19
-58,-48,9,53,-34,-19,-9,-9,24,-14,-14,-24
-58,-48,9,53,-34,-19,-9,-9,19,-19,-19,-29
-63,-48,14,56,-39,-17,-9,-9,19,-19,-19,-29
-68,-48,19,58,-43,-14,-9,-9,19,-19,-19,-29
-68,-48,19,58,-43,-14,-9,-9,19,-19,-19,-29
-68,-48,19,58,-43,-14,-9,-9,19,-19,-19,-29
-82,-53,29,68,-56,-12,-9,-9,19,-19,-19,-29
-97,-58,39,78,-68,-9,-9,-9,19,-19,-19,-29
-112,-63,48,87,-80,-7,-9,-9,19,-19,-19,-29
-126,-68,58,97,-92,-4,-9,-9,19,-19,-19,-29
-126,-68,58,97,-92,-4,-9,-14,19,-14,-19,-29
-126,-68,58,97,-92,-4,-9,-19,19,-9,-19,-29
-146,-68,78,107,-112,4,-9,-19,19,-9,-19,-24
-165,-68,97,117,-131,14,-9,-19,19,-9,-19,-19
-170,-63,107,117,-139,21,-9,-14,24,-4,-14,-14
-175,-58,117,117,-146,29,-9,-9,29,0,-9,-9
-180,-58,122,119,-151,31,-9,-9,29,0,-4,-9
-185,-58,126,122,-156,34,-9,-9,29,0,0,-9
-195,-68,126,131,-161,29,-9,-4,34,4,4,-9
-204,-78,126,141,-165,24,-9,0,39,9,9,-9
-209,-68,141,139,-175,36,-9,0,39,9,9,-9
-214,-58,156,136,-185,48,-9,0,39,9,9,-9
-219,-58,161,139,-190,51,-9,4,39,9,9,-4
-224,-58,165,141,-195,53,-9,9,39,9,9,0
-224,-68,156,146,-190,43,-9,14,39,9,9,0
-224,-78,146,151,-185,34,-9,19,39,9,9,0
-229,-78,151,153,-190,36,-9,19,39,14,14,4
-234,-78,156,156,-195,39,-9,19,39,19,19,9
-234,-73,161,153,-197,43,-9,19,39,24,19,9
-234,-68,165,151,-200,48,-9,19,39,29,19,9
-219,-68,151,143,-185,41,-9,19,39,29,19,9
-204,-68,136,136,-170,34,-9,19,39,29,19,9
-214,-63,151,139,-183,43,-9,24,48,34,24,9
-224,-58,165,141,-195,53,-9,29,58,39,29,9
-224,-58,165,141,-195,53,-9,29,63,39,34,19
-224,-58,165,141,-195,53,-9,29,68,39,39,29
-219,-43,175,131,-197,65,-9,29,68,39,39,29
-214,-29,185,122,-200,78,-9,29,68,39,39,29
-209,-29,180,119,-195,75,-9,29,68,39,39,24
-204,-29,175,117,-190,73,-9,29,68,39,39,19
-204,-43,161,124,-183,58,-9,29,68,39,39,19
-204,-58,146,131,-175,43,-9,29,68,39,39,19
-204,-58,146,131,-175,43,-9,29,68,39,39,19
-204,-58,146,131,-175,43,-9,29,68,39,39,19
-195,-48,146,122,-170,48,-9,29,63,39,39,19
-185,-39,146,112,-165,53,-9,29,58,39,39,19
-180,-39,141,109,-161,51,-9,29,58,34,34,14
-175,-39,136,107,-156,48,-9,29,58,29,29,9
-175,-48,126,112,-151,39,-9,29,58,29,29,9
-175,-58,117,117,-146,29,-9,29,58,29,29,9
-175,-58,117,117,-146,29,-9,29,53,29,24,4
-175,-58,117,117,-146,29,-9,29,48,29,19,0
-175,-58,117,117,-146,29,-9,29,48,29,19,0
-175,-58,117,117,-146,29,-9,29,48,29,19,0
-175,-58,117,117,-146,29,-9,24,48,29,19,0
-175,-58,117,117,-146,29,-9,19,48,29,19,0
-175,-58,117,117,-146,29,-9,19,48,29,19,0
-175,-58,117,117,-146,29,-9,19,48,29,19,0
-175,-58,117,117,-146,29,-9,19,43,29,19,0
-175,-58,117,117,-146,29,-9,19,39,29,19,0
-175,-58,117,117,-146,29,-9,19,39,29,19,0
-175,-58,117,117,-146,29,-9,19,39,29,19,0
-175,-53,122,114,-148,34,-9,19,43,29,19,0
-175,-48,126,112,-151,39,-9,19,48,29,19,0
-175,-48,126,112,-151,39,-9,14,48,24,19,0
-175,-48,126,112,-151,39,-9,9,48,19,19,0
-170,-58,112,114,-141,26,-9,9,43,14,14,0
-165,-68,97,117,-131,14,-9,9,39,9,9,0
-165,-68,97,117,-131,14,-9,0,29,9,9,-9
-165,-68,97,117,-131,14,-9,-9,19,9,9,-19
-175,-48,126,112,-151,39,-9,9,29,19,14,-4
-185,-29,156,107,-170,63,-9,29,39,29,19,9
-165,-24,141,95,-153,58,-9,29,43,34,24,9
-146,-19,126,82,-136,53,-9,29,48,39,29,9
-136,0,136,68,-136,68,-9,39,63,53,43,19
-126,19,146,53,-136,82,-9,48,78,68,58,29
-112,19,131,46,-122,75,-9,48,78,68,58,29
-97,19,117,39,-107,68,-9,48,78,68,58,29
-87,19,107,34,-97,63,-9,48,78,63,53,29
-78,19,97,29,-87,58,-9,48,78,58,48,29
-58,24,82,17,-70,53,-9,29,68,58,48,34
-39,29,68,4,-53,48,-9,9,58,58,48,39
-29,34,63,-2,-46,48,-9,0,58,58,58,39
-19,39,58,-9,-39,48,-9,-9,58,58,68,39
-19,39,58,-9,-39,48,-9,-14,48,53,53,34
-19,39,58,-9,-39,48,-9,-19,39,48,39,29
-14,24,39,-4,-26,31,-9,-24,29,39,34,24
-9,9,19,0,-14,14,-9,-29,19,29,29,19
-9,4,14,2,-12,9,-9,-29,14,24,19,9
-9,0,9,4,-9,4,-9,-29,9,19,9,0
-14,-9,4,12,-9,-2,-9,-24,9,14,9,-4
-19,-19,0,19,-9,-9,-9,-19,9,9,9,-9
-39,-24,14,31,-26,-4,-9,-19,9,9,4,-14
-58,-29,29,43,-43,0,-9,-19,9,9,0,-19
-82,-39,43,61,-63,2,-9,-19,4,4,-9,-29
-107,-48,58,78,-82,4,-9,-19,0,0,-19,-39
-107,-63,43,85,-75,-9,-9,-29,-9,-9,-29,-48
-107,-78,29,92,-68,-24,-9,-39,-19,-19,-39,-58
-107,-78,29,92,-68,-24,-9,-39,-19,-24,-39,-58
-107,-78,29,92,-68,-24,-9,-39,-19,-29,-39,-58
-107,-78,29,92,-68,-24,-9,-39,-19,-29,-39,-58
-107,-78,29,92,-68,-24,-9,-39,-19,-29,-39,-58
-117,-78,39,97,-78,-19,-9,-39,-19,-29,-39,-58
-126,-78,48,102,-87,-14,-9,-39,-19,-29,-39,-58
-126,-78,48,102,-87,-14,-9,-39,-19,-29,-43,-58
-126,-78,48,102,-87,-14,-9,-39,-19,-29,-48,-58
-131,-78,53,104,-92,-12,-9,-39,-19,-29,-48,-63
-136,-78,58,107,-97,-9,-9,-39,-19,-29,-48,-68
-175,-117,58,146,-117,-29,-9,-19,-19,-53,-82,-107
-214,-156,58,185,-136,-48,-9,0,-19,-78,-117,-146
-258,-175,82,217,-170,-46,-9,53,9,-63,-117,-156
-302,-195,107,248,-204,-43,-9,107,39,-48,-117,-165
-175,-107,68,141,-122,-19,-9,273,185,107,53,-9
-48,-19,29,34,-39,4,-9,439,331,263,224,146
229,165,-63,-197,146,51,-9,346,356,419,468,414
507,351,-156,-429,331,97,-9,253,380,575,712,683
639,507,-131,-573,385,187,-9,-68,278,575,761,775
771,663,-107,-717,439,278,-9,-390,175,575,810,868
561,502,-58,-531,309,222,-14,-653,-82,263,458,556
351,341,-9,-346,180,165,-19,-917,-341,-48,107,244
136,204,68,-170,34,136,-19,-1024,-517,-234,-97,43
-78,68,146,4,-112,107,-19,-1132,-692,-419,-302,-156
-87,-14,73,51,-80,29,-19,-897,-629,-419,-331,-209
-97,-97,0,97,-48,-48,-19,-663,-566,-419,-361,-263
-112,-87,24,100,-68,-31,-19,-458,-414,-312,-283,-219
-126,-78,48,102,-87,-14,-19,-253,-263,-204,-204,-175
-131,-63,68,97,-100,2,-19,-165,-156,-122,-126,-107
-136,-48,87,92,-112,19,-19,-78,-48,-39,-48,-39
-151,-68,82,109,-117,7,-19,-34,-34,-39,-48,-48
-165,-87,78,126,-122,-4,-19,9,-19,-39,-48,-58
-141,-78,63,109,-102,-7,-19,0,-19,-39,-48,-58
-117,-68,48,92,-82,-9,-19,-9,-19,-39,-48,-58
-102,-68,34,85,-68,-17,-19,-9,-24,-43,-58,-68
-87,-68,19,78,-53,-24,-19,-9,-29,-48,-68,-78
-58,-68,-9,63,-24,-39,-19,-19,-34,-53,-73,-82
-29,-68,-39,48,4,-53,-19,-29,-39,-58,-78,-87
4,-78,-82,36,43,-80,-19,-29,-48,-68,-87,-97
39,-87,-126,24,82,-107,-19,-29,-58,-78,-97,-107
58,-78,-136,9,97,-107,-19,-39,-58,-82,-97,-112
78,-68,-146,-4,112,-107,-19,-48,-58,-87,-97,-117
102,-68,-170,-17,136,-119,-19,-53,-68,-92,-112,-126
126,-68,-195,-29,161,-131,-19,-58,-78,-97,-126,-136
146,-73,-219,-36,183,-146,-19,-63,-82,-102,-126,-141
165,-78,-244,-43,204,-161,-19,-68,-87,-107,-126,-146
185,-78,-263,-53,224,-170,-19,-78,-97,-117,-136,-151
204,-78,-283,-63,244,-180,-19,-87,-107,-126,-146,-156
229,-78,-307,-75,268,-192,-19,-92,-112,-136,-156,-165
253,-78,-331,-87,292,-204,-19,-97,-117,-146,-165,-175
268,-73,-341,-97,305,-207,-19,-97,-117,-146,-165,-175
283,-68,-351,-107,317,-209,-19,-97,-117,-146,-165,-175
283,-68,-351,-107,317,-209,-19,-97,-117,-146,-165,-175
283,-68,-351,-107,317,-209,-19,-97,-117,-146,-165,-175
283,-63,-346,-109,314,-204,-19,-87,-117,-141,-156,-170
283,-58,-341,-112,312,-200,-19,-78,-117,-136,-146,-165
273,-53,-326,-109,300,-190,-19,-78,-117,-136,-146,-165
263,-48,-312,-107,287,-180,-19,-78,-117,-136,-146,-165
263,-48,-312,-107,287,-180,-19,-63,-107,-126,-141,-151
263,-48,-312,-107,287,-180,-19,-48,-97,-117,-136,-136
263,-48,-312,-107,287,-180,-19,-43,-92,-112,-126,-131
263,-48,-312,-107,287,-180,-19,-39,-87,-107,-117,-126
263,-43,-307,-109,285,-175,-19,-29,-87,-102,-112,-122
263,-39,-302,-112,283,-170,-19,-19,-87,-97,-107,-117
278,-19,-297,-129,287,-158,-19,-9,-82,-92,-97,-112
292,0,-292,-146,292,-146,-19,0,-78,-87,-87,-107
297,9,-287,-153,292,-139,-19,9,-73,-78,-82,-97
302,19,-283,-161,292,-131,-19,19,-68,-68,-78,-87
312,24,-287,-168,300,-131,-19,39,-53,-58,-63,-73
322,29,-292,-175,307,-131,-19,58,-39,-48,-48,-58
331,48,-283,-190,307,-117,-19,73,-34,-39,-39,-43
341,68,-273,-204,307,-102,-19,87,-29,-29,-29,-29
361,82,-278,-222,319,-97,-19,102,-19,-14,-9,-14
380,97,-283,-239,331,-92,-19,117,-9,0,9,0
385,117,-268,-251,326,-75,-19,126,0,14,29,19
390,136,-253,-263,322,-58,-19,136,9,29,48,39
390,151,-239,-270,314,-43,-19,146,19,43,63,58
390,165,-224,-278,307,-29,-19,156,29,58,78,78
405,175,-229,-290,317,-26,-19,156,29,63,82,82
419,185,-234,-302,326,-24,-19,156,29,68,87,87
429,195,-234,-312,331,-19,-19,151,29,68,92,97
439,204,-234,-322,336,-14,-19,146,29,68,97,107
429,204,-224,-317,326,-9,-19,136,34,78,107,112
419,204,-214,-312,317,-4,-19,126,39,87,117,117
409,204,-204,-307,307,0,-19,107,39,87,117,117
400,204,-195,-302,297,4,-19,87,39,87,117,117
385,195,-190,-290,287,2,-19,68,34,78,102,102
370,185,-185,-278,278,0,-19,48,29,68,87,87
336,156,-180,-246,258,-12,-19,24,19,53,73,73
302,126,-175,-214,239,-24,-19,0,9,39,58,58
278,112,-165,-195,222,-26,-19,-19,-4,24,34,34
253,97,-156,-175,204,-29,-19,-39,-19,9,9,9
239,82,-156,-161,197,-36,-19,-53,-29,0,-4,-4
224,68,-156,-146,190,-43,-19,-68,-39,-9,-19,-19
219,58,-161,-139,190,-51,-24,-82,-43,-24,-34,-29
214,48,-165,-131,190,-58,-29,-97,-48,-39,-48,-39
200,34,-165,-117,183,-65,-29,-107,-63,-48,-63,-58
185,19,-165,-102,175,-73,-29,-117,-78,-58,-78,-78
185,9,-175,-97,180,-82,-29,-122,-78,-63,-78,-78
185,0,-185,-92,185,-92,-29,-126,-78,-68,-78,-78
190,0,-190,-95,190,-95,-29,-131,-87,-73,-87,-87
195,0,-195,-97,195,-97,-29,-136,-97,-78,-97,-97
200,0,-200,-100,200,-100,-29,-141,-102,-82,-102,-97
204,0,-204,-102,204,-102,-29,-146,-107,-87,-107,-97
204,0,-204,-102,204,-102,-29,-146,-107,-87,-107,-102
204,0,-204,-102,204,-102,-29,-146,-107,-87,-107,-107
200,0,-200,-100,200,-100,-29,-146,-107,-87,-107,-107
195,0,-195,-97,195,-97,-29,-146,-107,-87,-107,-107
190,0,-190,-95,190,-95,-29,-146,-107,-87,-107,-107
185,0,-185,-92,185,-92,-29,-146,-107,-87,-107,-107
165,-4,-170,-80,168,-87,-29,-141,-107,-87,-107,-107
146,-9,-156,-68,151,-82,-29,-136,-107,-87,-107,-107
112,-14,-126,-48,119,-70,-29,-126,-92,-73,-92,-87
78,-19,-97,-29,87,-58,-29,-117,-78,-58,-78,-68
58,-24,-82,-17,70,-53,-29,-112,-78,-53,-73,-68
39,-29,-68,-4,53,-48,-29,-107,-78,-48,-68,-68
34,-29,-63,-2,48,-46,-29,-107,-78,-48,-68,-68
29,-29,-58,0,43,-43,-29,-107,-78,-48,-68,-68
29,-29,-58,0,43,-43,-29,-102,-73,-48,-68,-68
29,-29,-58,0,43,-43,-29,-97,-68,-48,-68,-68
29,-29,-58,0,43,-43,-29,-97,-68,-48,-68,-68
29,-29,-58,0,43,-43,-29,-97,-68,-48,-68,-68
29,-29,-58,0,43,-43,-29,-97,-68,-48,-68,-68
29,-29,-58,0,43,-43,-29,-97,-68,-48,-68,-68
29,-29,-58,0,43,-43,-29,-92,-68,-48,-68,-68
29,-29,-58,0,43,-43,-29,-87,-68,-48,-68,-68
24,-24,-48,0,36,-36,-29,-82,-63,-48,-63,-63
19,-19,-39,0,29,-29,-29,-78,-58,-48,-58,-58
19,-19,-39,0,29,-29,-29,-78,-58,-48,-58,-58
19,-19,-39,0,29,-29,-29,-78,-58,-48,-58,-58
19,-14,-34,-2,26,-24,-29,-78,-58,-43,-58,-58
19,-9,-29,-4,24,-19,-29,-78,-58,-39,-58,-58
19,-9,-29,-4,24,-19,-29,-73,-53,-34,-58,-58
19,-9,-29,-4,24,-19,-29,-68,-48,-29,-58,-58
19,-9,-29,-4,24,-19,-29,-63,-39,-24,-48,-48
19,-9,-29,-4,24,-19,-29,-58,-29,-19,-39,-39
19,-4,-24,-7,21,-14,-29,-58,-29,-19,-39,-39
19,0,-19,-9,19,-9,-29,-58,-29,-19,-39,-39
19,0,-19,-9,19,-9,-29,-58,-29,-19,-39,-39
19,0,-19,-9,19,-9,-29,-58,-29,-19,-39,-39
19,4,-14,-12,17,-4,-34,-58,-29,-19,-39,-39
19,9,-9,-14,14,0,-39,-58,-29,-19,-39,-39
19,9,-9,-14,14,0,-39,-58,-29,-19,-39,-39
19,9,-9,-14,14,0,-39,-58,-29,-19,-39,-39
19,4,-14,-12,17,-4,-39,-58,-29,-19,-39,-39
19,0,-19,-9,19,-9,-39,-58,-29,-19,-39,-39
14,0,-14,-7,14,-7,-39,-58,-29,-19,-39,-39
9,0,-9,-4,9,-4,-39,-58,-29,-19,-39,-39
9,0,-9,-4,9,-4,-39,-53,-24,-14,-34,-34
9,0,-9,-4,9,-4,-39,-48,-19,-9,-29,-29
4,0,-4,-2,4,-2,-39,-48,-19,-9,-24,-29
0,0,0,0,0,0,-39,-48,-19,-9,-19,-29
-9,-4,4,7,-7,0,-39,-48,-19,-9,-19,-24
-19,-9,9,14,-14,0,-39,-48,-19,-9,-19,-19
-24,-9,14,17,-19,2,-39,-43,-14,-9,-19,-19
-29,-9,19,19,-24,4,-39,-39,-9,-9,-19,-19
-29,-4,24,17,-26,9,-39,-39,-9,-9,-24,-19
-29,0,29,14,-29,14,-39,-39,-9,-9,-29,-19
-29,0,29,14,-29,14,-39,-39,-14,-9,-29,-19
-29,0,29,14,-29,14,-39,-39,-19,-9,-29,-19
-24,-4,19,14,-21,7,-39,-39,-19,-14,-29,-19
-19,-9,9,14,-14,0,-39,-39,-19,-19,-29,-19
-9,-9,0,9,-4,-4,-39,-43,-19,-19,-34,-24
0,-9,-9,4,4,-9,-39,-48,-19,-19,-39,-29
0,-9,-9,4,4,-9,-39,-48,-19,-19,-39,-29
0,-9,-9,4,4,-9,-39,-48,-19,-19,-39,-29
-4,-9,-4,7,0,-7,-39,-48,-19,-19,-39,-34
-9,-9,0,9,-4,-4,-39,-48,-19,-19,-39,-39
-9,-9,0,9,-4,-4,-39,-48,-19,-19,-39,-39
-9,-9,0,9,-4,-4,-39,-48,-19,-19,-39,-39
-9,-9,0,9,-4,-4,-34,-48,-19,-19,-39,-39
-9,-9,0,9,-4,-4,-29,-48,-19,-19,-39,-39
-9,-9,0,9,-4,-4,-24,-53,-24,-19,-39,-39
-4,-9,-4,7,0,-7,-19,-53,-29,-19,-39,-39
-4,-9,-4,7,0,-7,-19,-58,-34,-19,-43,-43
0,-9,-9,4,4,-9,-19,-53,-34,-19,-43,-43
4,-4,-9,0,7,-7,-19,-53,-29,-14,-43,-43
14,9,-4,-12,9,2,-19,-48,-24,-14,-39,-34
19,19,0,-19,9,9,-14,-39,-19,-9,-29,-24
29,43,14,-36,7,29,-14,-29,0,9,-14,-14
39,58,19,-48,9,39,0,-24,19,19,-4,0
48,58,9,-53,19,34,9,-14,34,24,4,4
58,58,0,-58,29,29,19,0,34,34,9,9
63,43,-19,-53,41,12,19,0,29,34,4,9
63,43,-19,-53,41,12,0,-9,24,24,0,4
73,48,-24,-61,48,12,-43,-29,9,19,0,4
82,68,-14,-75,48,26,-63,-43,9,19,0,9
97,82,-14,-90,56,34,-82,-48,9,24,4,19
87,78,-9,-82,48,34,-82,-43,14,24,9,19
73,73,0,-73,36,36,-78,-48,19,24,9,19
53,48,-4,-51,29,21,-73,-58,0,9,0,9
39,43,4,-41,17,24,-73,-63,-9,0,-14,0
24,34,9,-29,7,21,-63,-58,-14,0,-4,9
9,29,19,-19,-4,24,-48,-48,-14,9,9,19
4,29,24,-17,-9,26,-39,-39,-4,14,14,24
-4,24,29,-9,-17,26,-34,-34,4,19,9,24
-29,9,39,9,-34,24,-19,-29,4,14,9,14
-48,4,53,21,-51,29,-9,-24,4,14,9,14
-87,-4,82,46,-85,39,4,-14,9,14,9,14
-136,-14,122,75,-129,53,19,-14,9,14,9,9
-161,-34,126,97,-143,46,24,-9,14,14,9,4
-175,-39,136,107,-156,48,29,-9,4,9,-4,-4
-195,-48,146,122,-170,48,34,-14,4,4,-9,0
-214,-53,161,134,-187,53,39,-9,9,9,-9,0
-219,-48,170,134,-195,61,39,-14,9,9,-9,-4
-229,-48,180,139,-204,65,39,-14,9,9,-9,-4
-239,-48,190,143,-214,70,43,-9,9,9,-4,-4
-248,-48,200,148,-224,75,48,-4,9,14,0,0
-268,-53,214,161,-241,80,48,0,9,19,0,0
-287,-58,229,173,-258,85,48,4,4,19,-4,0
-297,-63,234,180,-265,85,63,9,9,24,4,4
-312,-63,248,187,-280,92,73,14,14,29,14,9
-322,-68,253,195,-287,92,78,14,14,24,9,4
-356,-78,278,217,-317,100,97,24,14,14,-4,-9
-424,-117,307,270,-366,95,156,58,9,-19,-53,-63
-502,-175,326,339,-414,75,209,78,9,-48,-117,-122
-546,-185,361,366,-453,87,268,126,48,-29,-107,-117
-502,-156,346,329,-424,95,336,307,185,87,4,-24
-356,-48,307,202,-331,129,331,439,322,253,204,146
-97,146,244,-24,-170,195,180,405,400,439,463,405
200,370,170,-285,14,270,-43,268,409,610,732,707
463,600,136,-531,163,368,-356,4,385,771,980,980
580,771,190,-675,195,480,-634,-336,268,732,1000,1054
453,678,224,-566,114,451,-697,-649,19,414,649,751
219,448,229,-334,-4,339,-678,-893,-273,63,244,400
-87,297,385,-104,-236,341,-668,-1132,-570,-214,-58,141
-287,141,429,73,-358,285,-639,-1185,-707,-380,-234,-39
-307,-19,287,163,-297,134,-492,-917,-663,-409,-283,-122
-326,-63,263,195,-295,100,-278,-570,-483,-317,-239,-126
-331,-78,253,204,-292,87,-122,-297,-317,-209,-170,-102
-346,-68,278,207,-312,104,-29,-131,-165,-112,-92,-58
-356,-43,312,200,-334,134,24,-48,-39,-14,-14,-4
-356,-29,326,192,-341,148,68,-4,14,29,29,29
-356,-58,297,207,-326,119,112,43,24,34,24,29
-346,-68,278,207,-312,104,122,73,39,29,19,19
-336,-68,268,202,-302,100,117,78,48,34,19,9
-336,-68,268,202,-302,100,117,73,48,34,14,9
-336,-63,273,200,-305,104,117,73,43,34,9,9
-322,-78,244,200,-283,82,122,87,43,29,4,4
-307,-68,239,187,-273,85,126,92,48,29,4,4
-292,-63,229,178,-261,82,117,92,48,29,4,4
-278,-63,214,170,-246,75,117,92,48,24,4,4
-273,-68,204,170,-239,68,122,92,48,24,4,0
-268,-68,200,168,-234,65,117,92,48,24,4,-4
-258,-63,195,161,-226,65,112,82,48,24,0,-9
-244,-58,185,151,-214,63,107,73,43,19,-4,-9
-234,-58,175,146,-204,58,107,73,39,19,-4,-9
-224,-58,165,141,-195,53,107,73,34,19,-9,-9
-224,-63,161,143,-192,48,107,73,39,19,-4,-14
-224,-63,161,143,-192,48,107,78,39,19,0,-14
-219,-63,156,141,-187,46,107,82,43,19,0,-9
-219,-63,156,141,-187,46,107,82,48,19,0,-9
-224,-73,151,148,-187,39,107,82,48,19,-4,-4
-224,-82,141,153,-183,29,107,87,53,19,-4,0
-224,-68,156,146,-190,43,107,87,53,24,-4,0
-224,-58,165,141,-195,53,107,92,53,24,-4,0
-219,-58,161,139,-190,51,102,97,58,29,4,-4
-214,-58,156,136,-185,48,97,97,58,29,4,-4
-200,-63,136,131,-168,36,92,102,53,24,0,-9
-185,-58,126,122,-156,34,87,102,48,24,-4,-9
-175,-58,117,117,-146,29,87,107,48,19,-4,-4
-165,-58,107,112,-136,24,87,112,43,14,-4,-9
-141,-53,87,97,-114,17,87,122,43,19,0,-9
-126,-53,73,90,-100,9,87,126,43,24,4,-4
-112,-48,63,80,-87,7,87,131,53,24,4,0
-92,-43,48,68,-70,2,87,136,58,29,14,4
-78,-29,48,53,-63,9,82,141,58,29,14,4
-68,-14,53,41,-61,19,78,146,53,29,14,4
-48,-4,43,26,-46,19,78,161,63,39,24,9
-24,0,24,12,-24,12,78,170,73,48,29,19
-19,14,34,2,-26,24,78,180,82,53,39,24
-4,34,39,-14,-21,36,78,204,87,63,48,34
19,48,29,-34,-4,39,68,219,107,73,58,48
34,63,29,-48,2,46,63,239,117,87,68,63
48,78,29,-63,9,53,53,253,126,97,87,73
58,87,29,-73,14,58,53,263,136,112,102,92
92,112,19,-102,36,65,53,278,141,122,107,107
117,122,4,-119,56,63,53,287,146,136,126,126
126,146,19,-136,53,82,39,287,151,141,131,136
141,165,24,-153,58,95,34,297,161,151,146,146
161,180,19,-170,70,100,14,297,165,161,156,161
175,214,39,-195,68,126,0,297,165,170,161,170
185,209,24,-197,80,117,4,297,180,180,180,195
190,204,14,-197,87,109,4,297,185,185,195,200
195,214,19,-204,87,117,0,292,185,185,200,204
200,224,24,-212,87,124,0,287,185,190,204,209
200,229,29,-214,85,129,-9,263,175,195,204,209
200,229,29,-214,85,129,-9,244,170,195,200,209
190,219,29,-204,80,124,-14,219,170,190,195,209
175,204,29,-190,73,117,-14,195,170,190,190,200
161,195,34,-178,63,114,-24,170,151,165,175,180
141,180,39,-161,51,109,-24,146,141,146,161,161
126,165,39,-146,43,102,-24,126,126,131,141,136
102,146,43,-124,29,95,-24,102,117,112,126,117
82,122,39,-102,21,80,-24,63,102,92,102,97
68,102,34,-85,17,68,-24,39,82,78,82,78
58,78,19,-68,19,48,-19,19,68,63,73,63
48,58,9,-53,19,34,-14,4,53,53,53,43
29,39,9,-34,9,24,-14,0,43,43,39,34
19,29,9,-24,4,19,-14,-19,34,29,24,24
9,24,14,-17,-2,19,-9,-14,29,29,19,9
-4,14,19,-4,-12,17,-4,-14,19,19,9,4
-9,4,14,2,-12,9,0,-19,19,9,0,-4
-14,0,14,7,-14,7,0,-19,24,4,0,-9
-14,-9,4,12,-9,-2,0,-29,14,0,-14,-9
-14,-14,0,14,-7,-7,-4,-34,4,-4,-19,-14
-14,-14,0,14,-7,-7,-9,-39,0,-9,-19,-19
-9,-14,-4,12,-2,-9,-9,-39,-4,-9,-19,-19
-14,-19,-4,17,-4,-12,-4,-39,-4,-14,-19,-19
-14,-14,0,14,-7,-7,-4,-39,-4,-19,-24,-24
-9,-14,-4,12,-2,-9,-9,-39,-4,-19,-29,-29
-4,-14,-9,9,2,-12,-14,-43,-9,-19,-29,-29
-4,-9,-4,7,0,-7,-14,-43,-9,-24,-34,-34
-4,-9,-4,7,0,-7,-14,-43,-9,-24,-34,-39
0,-9,-9,4,4,-9,-14,-43,-9,-24,-34,-34
4,-9,-14,2,9,-12,-14,-43,-9,-24,-34,-34
4,-9,-14,2,9,-12,-14,-43,-9,-24,-34,-34
4,-9,-14,2,9,-12,-14,-48,-9,-24,-34,-39
4,-9,-14,2,9,-12,-14,-48,-4,-29,-34,-39
4,-14,-19,4,12,-17,-14,-43,-4,-34,-34,-39
9,-14,-24,2,17,-19,-14,-43,-9,-34,-34,-39
9,-9,-19,0,14,-14,-14,-43,-14,-34,-34,-43
9,-9,-19,0,14,-14,-14,-43,-14,-34,-39,-43
14,-9,-24,-2,19,-17,-14,-43,-9,-29,-39,-39
19,-14,-34,-2,26,-24,-9,-39,-4,-29,-39,-39
24,-14,-39,-4,31,-26,-9,-34,-4,-34,-39,-39
19,-14,-34,-2,26,-24,-9,-34,-4,-34,-39,-39
14,-14,-29,0,21,-21,-9,-34,-4,-34,-39,-39
14,-14,-29,0,21,-21,-9,-34,-9,-29,-39,-39
14,-9,-24,-2,19,-17,-9,-24,-14,-29,-39,-39
14,-14,-29,0,21,-21,-9,-24,-4,-24,-39,-39
9,-19,-29,4,19,-24,-9,-24,-4,-19,-39,-39
9,-19,-29,4,19,-24,-9,-29,-4,-19,-39,-39
9,-19,-29,4,19,-24,-9,-29,-4,-19,-39,-39
4,-19,-24,7,14,-21,-4,-29,-4,-24,-39,-39
0,-19,-19,9,9,-19,0,-29,-4,-24,-39,-39
0,-24,-24,12,12,-24,0,-19,0,-24,-39,-39
-4,-24,-19,14,7,-21,0,-19,0,-24,-34,-39
-4,-19,-14,12,4,-17,0,-24,4,-24,-34,-39
0,-14,-14,7,7,-14,0,-24,4,-24,-34,-39
-4,-14,-9,9,2,-12,0,-19,4,-19,-34,-39
-9,-14,-4,12,-2,-9,4,-9,4,-14,-29,-34
-14,-19,-4,17,-4,-12,4,-9,4,-14,-34,-39
-14,-19,-4,17,-4,-12,4,-9,4,-19,-43,-43
-9,-19,-9,14,0,-14,4,-9,9,-19,-43,-43
-4,-19,-14,12,4,-17,4,-9,9,-19,-43,-43
-4,-24,-19,14,7,-21,9,-9,9,-14,-39,-43
-4,-29,-24,17,9,-26,9,-9,9,-14,-39,-43
-9,-24,-14,17,2,-19,9,-9,9,-14,-39,-39
-19,-19,0,19,-9,-9,9,-9,9,-14,-39,-34
-19,-19,0,19,-9,-9,4,-9,9,-14,-39,-34
-19,-24,-4,21,-7,-14,0,-9,9,-14,-39,-34
-14,-19,-4,17,-4,-12,0,-9,9,-9,-39,-34
-9,-9,0,9,-4,-4,0,-9,9,-9,-39,-29
-9,-9,0,9,-4,-4,-4,-14,9,-9,-39,-29
-9,-4,4,7,-7,0,-4,-19,4,-9,-39,-29
-9,-4,4,7,-7,0,-4,-19,0,-14,-39,-34
-9,-4,4,7,-7,0,0,-19,-4,-19,-39,-39
-9,0,9,4,-9,4,0,-19,-4,-19,-39,-39
-9,0,9,4,-9,4,0,-19,-4,-19,-39,-39
-9,-9,0,9,-4,-4,0,-19,-4,-19,-39,-39
-9,-19,-9,14,0,-14,-4,-19,-9,-24,-39,-43
-9,-29,-19,19,4,-24,-4,-19,-9,-24,-39,-43
-14,-29,-14,21,0,-21,-4,-19,-9,-24,-39,-43
-14,-24,-9,19,-2,-17,-9,-24,-9,-29,-39,-48
-14,-19,-4,17,-4,-12,-9,-24,-9,-29,-39,-48
-14,-14,0,14,-7,-7,-9,-29,-14,-34,-48,-48
-14,-9,4,12,-9,-2,-4,-29,-14,-34,-48,-48
-14,-9,4,12,-9,-2,-4,-29,-14,-29,-48,-48
-14,-9,4,12,-9,-2,-4,-34,-14,-34,-48,-48
-14,-14,0,14,-7,-7,-4,-29,-14,-29,-43,-48
-19,-19,0,19,-9,-9,-9,-29,-19,-29,-39,-48
-19,-19,0,19,-9,-9,-9,-29,-19,-29,-43,-48
-19,-19,0,19,-9,-9,-9,-29,-19,-29,-48,-48
-14,-19,-4,17,-4,-12,-9,-34,-24,-29,-48,-48
-9,-19,-9,14,0,-14,-9,-34,-29,-29,-48,-48
-9,-24,-14,17,2,-19,-9,-39,-34,-34,-53,-53
-9,-29,-19,19,4,-24,-9,-34,-34,-39,-53,-53
-9,-24,-14,17,2,-19,-9,-39,-29,-34,-53,-58
-4,-9,-4,7,0,-7,-9,-39,-24,-34,-48,-53
0,9,9,-4,-4,9,-9,-29,-24,-29,-39,-43
9,43,34,-26,-12,39,-14,-19,-9,-9,-24,-34
14,58,43,-36,-14,51,0,-9,9,9,-14,-14
19,58,39,-39,-9,48,9,4,24,24,-4,-4
29,58,29,-43,0,43,29,29,34,34,4,0
34,43,9,-39,12,26,39,39,39,34,4,0
39,43,4,-41,17,24,24,29,34,24,0,-4
53,48,-4,-51,29,21,-14,9,19,19,0,-4
63,68,4,-65,29,36,-39,-14,19,19,0,0
78,82,4,-80,36,43,-63,-29,19,24,4,9
82,82,0,-82,41,41,-73,-29,14,24,4,9
82,82,0,-82,41,41,-78,-39,9,24,0,9
68,53,-14,-61,41,19,-73,-48,-9,4,-9,0
58,43,-14,-51,36,14,-73,-53,-19,-9,-24,-9
58,34,-24,-46,41,4,-73,-53,-29,-19,-24,-9
58,29,-29,-43,43,0,-68,-48,-34,-19,-19,-9
63,34,-29,-48,46,2,-63,-48,-34,-19,-19,-9
63,34,-29,-48,46,2,-63,-53,-34,-19,-29,-14
53,19,-34,-36,43,-7,-53,-53,-34,-24,-29,-24
48,14,-34,-31,41,-9,-48,-53,-34,-24,-29,-24
24,0,-24,-12,24,-12,-34,-39,-29,-24,-34,-29
-9,-14,-4,12,-2,-9,-19,-34,-29,-24,-39,-39
-34,-34,0,34,-17,-17,-14,-39,-34,-34,-43,-48
-48,-39,9,43,-29,-14,-9,-48,-53,-48,-63,-63
-53,-48,4,51,-29,-21,-9,-58,-58,-58,-73,-63
-58,-53,4,56,-31,-24,-9,-58,-58,-58,-78,-68
-63,-53,9,58,-36,-21,-9,-63,-58,-63,-78,-73
-73,-58,14,65,-43,-21,-9,-63,-58,-68,-78,-73
-73,-58,14,65,-43,-21,-9,-63,-58,-68,-78,-78
-73,-58,14,65,-43,-21,-9,-63,-58,-63,-78,-78
-68,-58,9,63,-39,-24,-9,-63,-58,-63,-78,-78
-63,-58,4,61,-34,-26,-9,-63,-63,-68,-82,-78
-58,-58,0,58,-29,-29,-9,-68,-68,-68,-82,-78
-58,-53,4,56,-31,-24,-14,-73,-73,-68,-82,-78
-39,-58,-19,48,-9,-39,-24,-78,-73,-73,-78,-68
-43,-68,-24,56,-9,-46,-19,-73,-73,-82,-82,-68
-97,-107,-9,102,-43,-58,24,-48,-87,-126,-136,-131
-161,-165,-4,163,-78,-85,63,-39,-97,-165,-204,-200
-268,-204,63,236,-165,-70,136,-34,-117,-200,-268,-263
-287,-204,82,246,-185,-61,219,102,-39,-136,-229,-239
-190,-156,34,173,-112,-61,297,326,131,9,-78,-126
19,-19,-39,0,29,-29,229,385,244,175,131,73
375,214,-161,-295,268,26,29,317,283,380,439,405
697,453,-244,-575,470,104,-258,122,287,575,727,707
966,746,-219,-856,592,263,-649,-244,244,673,927,956
990,775,-214,-883,602,280,-824,-580,68,492,756,829
771,556,-214,-663,492,170,-824,-888,-239,97,297,434
478,414,-63,-446,270,175,-834,-1190,-551,-224,-58,131
190,224,34,-207,78,129,-863,-1410,-814,-478,-317,-107
82,29,-53,-56,68,-12,-775,-1307,-897,-595,-448,-248
63,-34,-97,-14,80,-65,-536,-902,-717,-512,-409,-268
58,-68,-126,4,92,-97,-356,-570,-551,-414,-346,-258
29,-68,-97,19,63,-82,-224,-346,-375,-302,-263,-204
4,-53,-58,24,31,-56,-131,-204,-224,-190,-180,-141
0,-19,-19,9,9,-19,-87,-146,-151,-126,-117,-107
-4,-29,-24,17,9,-26,-43,-82,-122,-102,-102,-107
-14,-39,-24,26,4,-31,-4,-43,-97,-102,-102,-107
-24,-39,-14,31,-4,-26,19,-29,-78,-92,-97,-107
-29,-43,-14,36,-7,-29,19,-29,-73,-92,-102,-107
-34,-43,-9,39,-12,-26,19,-24,-73,-92,-107,-107
-34,-63,-29,48,-2,-46,29,-4,-68,-92,-107,-107
-34,-58,-24,46,-4,-41,39,4,-58,-87,-102,-102
-39,-53,-14,46,-12,-34,29,4,-58,-82,-102,-97
-43,-53,-9,48,-17,-31,29,4,-58,-82,-102,-92
-43,-58,-14,51,-14,-36,39,9,-58,-82,-102,-92
-43,-58,-14,51,-14,-36,39,14,-58,-82,-102,-92
-43,-63,-19,53,-12,-41,39,19,-48,-73,-97,-92
-39,-68,-29,53,-4,-48,39,24,-43,-68,-92,-87
-39,-68,-29,53,-4,-48,39,24,-43,-68,-87,-87
-39,-68,-29,53,-4,-48,39,24,-43,-68,-87,-87
-39,-58,-19,48,-9,-39,39,24,-39,-68,-87,-92
-39,-43,-4,41,-17,-24,39,29,-39,-68,-87,-92
-34,-43,-9,39,-12,-26,39,34,-39,-63,-87,-82
-34,-43,-9,39,-12,-26,39,34,-39,-58,-87,-78
-34,-48,-14,41,-9,-31,43,39,-39,-58,-87,-78
-29,-53,-24,41,-2,-39,48,48,-34,-58,-82,-78
-29,-48,-19,39,-4,-34,48,48,-34,-58,-82,-82
-29,-48,-19,39,-4,-34,48,53,-34,-63,-82,-87
-29,-48,-19,39,-4,-34,43,53,-29,-58,-78,-87
-29,-48,-19,39,-4,-34,39,48,-29,-58,-82,-82
-24,-48,-24,36,0,-36,39,58,-29,-58,-82,-82
-19,-39,-19,29,0,-29,39,63,-29,-53,-82,-78
-24,-39,-14,31,-4,-26,43,68,-24,-53,-78,-68
-29,-39,-9,34,-9,-24,48,73,-24,-53,-73,-68
-19,-34,-14,26,-2,-24,48,87,-24,-48,-68,-68
-19,-34,-14,26,-2,-24,48,97,-24,-43,-63,-63
-19,-34,-14,26,-2,-24,48,107,-14,-43,-63,-58
-14,-34,-19,24,2,-26,48,117,-9,-39,-53,-53
-4,-24,-19,14,7,-21,48,126,-4,-43,-48,-48
0,-14,-14,7,7,-14,48,136,-4,-48,-43,-43
4,4,0,-4,2,2,48,151,9,-29,-34,-39
14,19,4,-17,4,12,48,161,24,-9,-29,-29
19,14,-4,-17,12,4,58,175,34,-4,-14,-19
34,14,-19,-24,26,-2,68,204,39,4,0,-4
53,29,-24,-41,39,2,63,219,53,14,4,4
63,43,-19,-53,41,12,63,239,58,29,9,14
78,68,-9,-73,43,29,53,253,68,39,29,19
87,87,0,-87,43,43,53,263,78,53,43,34
112,112,0,-112,56,56,48,283,87,63,53,48
126,122,-4,-124,65,58,43,297,97,78,78,68
126,136,9,-131,58,73,34,302,107,82,87,82
131,146,14,-139,58,80,34,317,122,92,107,97
151,151,0,-151,75,75,24,317,126,102,117,112
165,175,9,-170,78,92,19,317,126,112,122,122
185,185,0,-185,92,92,14,317,136,122,136,141
200,195,-4,-197,102,95,4,317,136,126,146,141
209,204,-4,-207,107,100,-4,317,136,126,151,146
219,214,-4,-217,112,104,-9,317,136,131,156,151
219,219,0,-219,109,109,-19,297,136,141,165,161
219,219,0,-219,109,109,-19,283,141,146,170,170
209,209,0,-209,104,104,-24,258,141,141,165,175
195,195,0,-195,97,97,-24,234,141,141,161,170
175,180,4,-178,85,92,-29,209,126,126,146,156
151,161,9,-156,70,85,-24,185,122,117,131,141
136,151,14,-143,61,82,-24,165,107,107,117,122
112,136,24,-124,43,80,-24,141,97,92,107,107
82,126,43,-104,19,85,-19,112,82,73,82,87
58,122,63,-90,-2,92,-14,97,63,58,63,68
43,82,39,-63,2,61,-9,73,53,39,53,53
29,48,19,-39,4,34,-4,53,43,24,34,34
9,29,19,-19,-4,24,-4,48,34,14,19,24
0,19,19,-9,-9,19,-4,29,24,0,4,14
-4,14,19,-4,-12,17,-4,19,19,0,0,-4
-14,4,19,4,-17,12,-4,4,9,-9,-9,-14
-24,-4,19,14,-21,7,0,0,0,-24,-24,-29
-34,-9,24,21,-29,7,0,0,-4,-34,-29,-39
-34,-24,9,29,-21,-7,9,0,-4,-34,-39,-39
-34,-34,0,34,-17,-17,14,4,-4,-34,-39,-43
-43,-39,4,41,-24,-17,9,0,-9,-39,-39,-43
-48,-43,4,46,-26,-19,9,0,-14,-39,-39,-39
-53,-53,0,53,-26,-26,9,0,-14,-39,-39,-39
-53,-53,0,53,-26,-26,4,0,-14,-39,-43,-43
-53,-43,9,48,-31,-17,4,0,-14,-39,-43,-43
-53,-34,19,43,-36,-7,4,-4,-19,-39,-39,-39
-53,-39,14,46,-34,-12,9,-4,-19,-43,-43,-39
-53,-48,4,51,-29,-21,14,-4,-19,-43,-43,-39
-53,-48,4,51,-29,-21,14,-9,-24,-43,-43,-39
-53,-48,4,51,-29,-21,14,-14,-29,-43,-43,-43
-48,-39,9,43,-29,-14,14,-14,-29,-43,-43,-43
-43,-29,14,36,-29,-7,14,-19,-29,-43,-43,-48
-43,-29,14,36,-29,-7,14,-19,-24,-48,-48,-48
-43,-34,9,39,-26,-12,14,-14,-24,-53,-53,-48
-43,-34,9,39,-26,-12,14,-9,-29,-53,-53,-53
-48,-29,19,39,-34,-4,14,-4,-34,-53,-53,-63
-53,-29,24,41,-39,-2,14,-4,-34,-53,-53,-63
-53,-29,24,41,-39,-2,14,-4,-29,-48,-48,-58
-48,-39,9,43,-29,-14,24,0,-24,-48,-48,-53
-43,-43,0,43,-21,-21,29,4,-24,-53,-48,-48
-43,-53,-9,48,-17,-31,29,4,-24,-53,-48,-48
-43,-63,-19,53,-12,-41,29,4,-24,-53,-48,-48
-43,-63,-19,53,-12,-41,29,0,-24,-48,-48,-48
-43,-58,-14,51,-14,-36,29,4,-24,-48,-48,-48
-43,-53,-9,48,-17,-31,29,4,-14,-48,-48,-48
-48,-48,0,48,-24,-24,29,4,-14,-48,-48,-48
-53,-43,9,48,-31,-17,29,9,-14,-43,-48,-48
-58,-39,19,48,-39,-9,29,19,-14,-39,-48,-48
-58,-39,19,48,-39,-9,34,19,-14,-39,-43,-48
-58,-39,19,48,-39,-9,39,19,-14,-34,-39,-48
-53,-48,4,51,-29,-21,43,34,-4,-39,-39,-48
-53,-53,0,53,-26,-26,48,39,0,-43,-34,-48
-53,-53,0,53,-26,-26,48,34,4,-43,-34,-48
-48,-53,-4,51,-21,-29,48,34,4,-43,-34,-48
-58,-53,4,56,-31,-24,48,29,4,-34,-34,-48
-68,-53,14,61,-41,-19,53,29,4,-24,-29,-43
-63,-58,4,61,-34,-26,53,29,4,-24,-29,-43
-53,-58,-4,56,-24,-31,53,29,4,-29,-34,-43
-48,-53,-4,51,-21,-29,53,29,4,-29,-39,-43
-43,-48,-4,46,-19,-26,53,29,0,-29,-43,-43
-43,-48,-4,46,-19,-26,53,29,0,-24,-39,-43
-43,-48,-4,46,-19,-26,48,29,0,-24,-39,-43
-39,-43,-4,41,-17,-24,48,29,4,-24,-39,-43
-39,-39,0,39,-19,-19,48,29,9,-24,-39,-43
-39,-39,0,39,-19,-19,48,34,9,-24,-39,-43
-39,-43,-4,41,-17,-24,48,39,9,-24,-39,-43
-39,-43,-4,41,-17,-24,48,39,9,-19,-34,-43
-39,-39,0,39,-19,-19,48,39,9,-19,-29,-39
-39,-39,0,39,-19,-19,39,24,4,-19,-29,-39
-39,-34,4,36,-21,-14,34,9,-4,-19,-29,-39
-39,-48,-9,43,-14,-29,34,9,-9,-24,-29,-43
-39,-63,-24,51,-7,-43,39,9,-14,-29,-29,-48
-39,-43,-4,41,-17,-24,39,9,-14,-29,-29,-48
-39,-29,9,34,-24,-9,39,9,-14,-29,-29,-48
-39,-29,9,34,-24,-9,43,14,-9,-24,-29,-48
-39,-29,9,34,-24,-9,43,19,-9,-24,-29,-53
-34,-39,-4,36,-14,-21,43,19,-9,-24,-24,-48
-34,-39,-4,36,-14,-21,43,19,-9,-24,-19,-43
-34,-39,-4,36,-14,-21,39,14,-9,-29,-19,-48
-34,-39,-4,36,-14,-21,39,14,-9,-29,-19,-48
-34,-39,-4,36,-14,-21,39,9,-14,-34,-29,-48
-34,-39,-4,36,-14,-21,43,9,-14,-34,-29,-48
-29,-48,-19,39,-4,-34,43,9,-14,-34,-34,-48
-29,-58,-29,43,0,-43,48,9,-19,-39,-39,-48
-29,-58,-29,43,0,-43,48,4,-19,-39,-39,-48
-29,-58,-29,43,0,-43,48,0,-19,-39,-39,-48
-29,-48,-19,39,-4,-34,39,-4,-29,-39,-39,-48
-29,-43,-14,36,-7,-29,34,-4,-34,-39,-39,-48
-29,-39,-9,34,-9,-24,29,-9,-43,-39,-43,-53
-29,-39,-9,34,-9,-24,29,-4,-43,-39,-43,-53
-24,-43,-19,34,-2,-31,29,-4,-34,-29,-43,-53
-14,-39,-24,26,4,-31,29,0,-24,-24,-39,-43
-9,-24,-14,17,2,-19,39,14,-19,-19,-19,-29
0,4,4,-2,-2,4,43,29,0,0,4,-14
4,19,14,-12,-4,17,58,34,14,14,14,0
9,19,9,-14,0,14,68,43,24,24,24,4
19,29,9,-24,4,19,68,58,29,29,24,0
24,24,0,-24,12,12,58,58,29,24,14,-9
24,19,-4,-21,14,7,53,48,29,14,9,-14
34,19,-14,-26,24,2,24,29,19,9,9,-14
43,24,-19,-34,31,2,4,19,24,14,19,0
58,24,-34,-41,46,-4,-14,19,29,24,34,19
58,34,-24,-46,41,4,-19,19,24,24,34,19
53,43,-9,-48,31,17,-19,9,19,24,29,19
43,19,-24,-31,34,-2,-19,-9,-4,9,14,9
39,14,-24,-26,31,-4,-24,-24,-19,0,-4,0
39,0,-39,-19,39,-19,-24,-24,-24,-9,-4,0
39,-9,-48,-14,43,-29,-19,-19,-24,-9,0,0
39,-9,-48,-14,43,-29,-4,-14,-24,-9,0,0
34,-14,-48,-9,41,-31,4,-14,-24,-9,-9,-4
24,-19,-43,-2,34,-31,14,-9,-24,-19,-9,-14
19,-14,-34,-2,26,-24,19,-4,-24,-24,-9,-14
-4,-24,-19,14,7,-21,34,4,-19,-24,-14,-19
-39,-34,4,36,-21,-14,48,4,-19,-24,-19,-29
-58,-53,4,56,-31,-24,39,-9,-24,-34,-24,-48
-68,-58,9,63,-39,-24,29,-29,-43,-48,-43,-73
-68,-73,-4,70,-31,-39,39,-29,-48,-58,-53,-73
-68,-82,-14,75,-26,-48,48,-19,-48,-58,-58,-78
-63,-87,-24,75,-19,-56,48,-24,-48,-63,-58,-82
-63,-97,-34,80,-14,-65,48,-24,-48,-68,-58,-82
-63,-97,-34,80,-14,-65,48,-19,-48,-68,-58,-82
-63,-97,-34,80,-14,-65,48,-14,-48,-63,-58,-78
-63,-97,-34,80,-14,-65,43,-19,-48,-63,-58,-78
-63,-97,-34,80,-14,-65,39,-24,-53,-68,-63,-78
-58,-102,-43,80,-7,-73,43,-24,-53,-68,-68,-78
-58,-102,-43,80,-7,-73,43,-24,-53,-68,-73,-78
-68,-112,-43,90,-12,-78,53,-19,-48,-68,-78,-82
-102,-126,-24,114,-39,-75,78,-4,-43,-73,-92,-97
-156,-161,-4,158,-75,-82,131,34,-43,-102,-122,-146
-219,-214,4,217,-112,-104,180,58,-39,-126,-165,-200
-244,-204,39,224,-141,-82,239,117,4,-97,-151,-190
-180,-156,24,168,-102,-65,307,307,146,29,-34,-92
-19,-68,-48,43,14,-58,317,468,283,190,165,92
253,107,-146,-180,200,-19,180,463,361,370,424,366
531,307,-224,-419,378,41,-24,302,341,507,653,629
775,512,-263,-644,519,124,-317,14,287,634,863,863
868,610,-258,-739,563,175,-566,-297,161,566,844,888
717,444,-273,-580,495,85,-600,-580,-97,219,453,536
478,253,-224,-366,351,14,-580,-800,-356,-112,58,185
165,141,-24,-153,95,58,-570,-1015,-619,-370,-234,-73
-29,19,48,4,-39,34,-580,-1132,-795,-536,-409,-248
-43,-107,-63,75,9,-85,-473,-927,-790,-566,-458,-326
-53,-131,-78,92,12,-104,-292,-619,-614,-468,-395,-312
-48,-126,-78,87,14,-102,-170,-385,-453,-356,-307,-268
-53,-107,-53,80,0,-80,-78,-219,-302,-253,-219,-204
-53,-73,-19,63,-17,-46,-24,-136,-175,-151,-131,-131
-58,-68,-9,63,-24,-39,19,-78,-107,-97,-78,-92
-63,-107,-43,85,-9,-75,63,-14,-82,-82,-73,-87
-68,-107,-39,87,-14,-73,78,14,-63,-82,-73,-87
-73,-97,-24,85,-24,-61,78,19,-48,-73,-68,-87
-73,-102,-29,87,-21,-65,78,19,-43,-68,-68,-87
-73,-102,-29,87,-21,-65,78,24,-43,-63,-68,-87
-68,-112,-43,90,-12,-78,87,39,-39,-63,-63,-87
-63,-97,-34,80,-14,-65,97,43,-29,-58,-53,-82
-63,-92,-29,78,-17,-61,87,43,-29,-53,-53,-82
-63,-92,-29,78,-17,-61,87,43,-29,-53,-53,-82
-63,-102,-39,82,-12,-70,97,48,-29,-48,-53,-78
-63,-107,-43,85,-9,-75,97,53,-29,-43,-53,-73
-63,-107,-43,85,-9,-75,97,53,-24,-39,-48,-73
-58,-107,-48,82,-4,-78,97,53,-24,-39,-43,-68
-58,-107,-48,82,-4,-78,97,53,-24,-39,-43,-68
-58,-107,-48,82,-4,-78,97,53,-24,-39,-48,-68
-58,-107,-48,82,-4,-78,97,53,-24,-43,-48,-73
-58,-102,-43,80,-7,-73,97,58,-29,-48,-48,-73
-53,-107,-53,80,0,-80,97,63,-29,-48,-48,-68
-53,-112,-58,82,2,-85,97,63,-29,-48,-48,-68
-53,-112,-58,82,2,-85,97,63,-29,-48,-53,-68
-48,-112,-63,80,7,-87,97,68,-24,-48,-53,-68
-43,-102,-58,73,7,-80,97,63,-29,-48,-53,-68
-39,-97,-58,68,9,-78,97,63,-34,-53,-53,-68
-29,-97,-68,63,19,-82,97,68,-29,-48,-53,-78
-19,-97,-78,58,29,-87,97,68,-29,-48,-63,-82
-29,-107,-78,68,24,-92,97,78,-19,-39,-43,-68
-39,-107,-68,73,14,-87,97,82,-9,-24,-24,-48
-39,-97,-58,68,9,-78,97,87,-4,-24,-24,-39
-39,-87,-48,63,4,-68,97,92,-4,-24,-24,-39
-29,-82,-53,56,12,-68,97,102,-9,-19,-24,-43
-29,-82,-53,56,12,-68,97,107,-14,-14,-24,-43
-24,-78,-53,51,14,-65,97,112,-4,-14,-24,-39
-14,-73,-58,43,21,-65,97,117,0,-9,-14,-34
0,-63,-63,31,31,-63,97,122,4,-9,-9,-29
9,-53,-63,21,36,-58,97,126,4,-9,-4,-24
19,-58,-78,19,48,-68,97,141,14,0,4,-19
34,-68,-102,17,68,-85,97,151,24,9,9,-9
39,-58,-97,9,68,-78,92,156,34,14,24,0
53,-43,-97,-4,75,-70,87,175,39,24,39,14
73,-29,-102,-21,87,-65,82,185,53,34,58,39
82,-14,-97,-34,90,-56,82,200,58,48,78,63
97,29,-68,-63,82,-19,73,214,63,58,87,63
107,68,-39,-87,73,14,73,224,68,73,92,73
131,68,-63,-100,97,2,68,239,78,82,102,87
146,53,-92,-100,119,-19,63,248,87,97,126,107
156,87,-68,-122,112,9,48,244,87,102,136,122
170,117,-53,-143,112,31,43,248,92,112,156,136
190,122,-68,-156,129,26,34,248,97,122,165,151
204,146,-58,-175,131,43,29,248,97,131,170,161
214,136,-78,-175,146,29,24,248,112,141,185,185
219,126,-92,-173,156,17,14,248,117,146,195,190
219,136,-82,-178,151,26,9,244,117,146,200,195
219,146,-73,-183,146,36,9,239,117,151,204,200
219,151,-68,-185,143,41,4,224,117,156,209,200
219,151,-68,-185,143,41,9,214,122,156,209,200
204,141,-63,-173,134,39,9,200,126,151,204,200
185,126,-58,-156,122,34,14,185,131,151,200,190
156,107,-48,-131,102,29,19,165,117,136,180,165
122,82,-39,-102,80,21,34,146,112,126,161,141
117,68,-48,-92,82,9,39,131,97,117,141,126
102,48,-53,-75,78,-2,43,112,87,102,126,117
78,34,-43,-56,61,-4,43,82,78,82,102,97
58,24,-34,-41,46,-4,43,68,63,68,82,78
43,9,-34,-26,39,-12,48,53,53,58,82,68
29,0,-29,-14,29,-14,53,43,43,53,73,53
9,-14,-24,2,17,-19,53,39,34,43,58,43
0,-19,-19,9,9,-19,53,19,24,29,43,34
0,-24,-24,12,12,-24,58,19,24,24,29,9
-4,-34,-29,19,12,-31,63,14,19,9,9,-4
-9,-43,-34,26,12,-39,68,9,9,0,0,-14
-14,-48,-34,31,9,-41,68,9,4,-4,0,-19
-24,-63,-39,43,7,-51,73,4,4,-4,-9,-19
-34,-73,-39,53,2,-56,73,4,4,-4,-9,-24
-39,-73,-34,56,-2,-53,68,0,0,-4,-9,-29
-39,-73,-34,56,-2,-53,68,0,-4,0,-9,-29
-39,-73,-34,56,-2,-53,73,0,-4,-4,-9,-29
-34,-63,-29,48,-2,-46,73,0,-4,-9,-14,-34
-34,-73,-39,53,2,-56,73,0,-4,-9,-19,-39
-34,-82,-48,58,7,-65,73,-4,-9,-9,-19,-39
-39,-78,-39,58,0,-58,73,-4,-9,-14,-19,-39
-43,-78,-34,61,-4,-56,73,-4,-9,-14,-14,-39
-43,-73,-29,58,-7,-51,73,-4,-9,-14,-14,-34
-43,-68,-24,56,-9,-46,73,-4,-9,-14,-14,-34
-43,-68,-24,56,-9,-46,73,-4,-9,-19,-19,-34
-43,-68,-24,56,-9,-46,73,-9,-9,-24,-24,-39
-43,-78,-34,61,-4,-56,73,-9,-4,-29,-29,-43
-43,-92,-48,68,2,-70,73,-4,-4,-34,-34,-48
-43,-92,-48,68,2,-70,73,-4,-9,-34,-34,-48
-48,-87,-39,68,-4,-63,73,-4,-14,-34,-34,-53
-53,-82,-29,68,-12,-56,73,0,-9,-29,-34,-48
-53,-78,-24,65,-14,-51,73,4,0,-19,-29,-39
-48,-82,-34,65,-7,-58,78,4,0,-19,-29,-39
-43,-82,-39,63,-2,-61,78,4,-4,-24,-29,-39
-39,-78,-39,58,0,-58,78,4,-4,-24,-29,-39
-34,-73,-39,53,2,-56,78,4,-4,-24,-29,-39
-34,-73,-39,53,2,-56,78,4,-4,-9,-19,-34
-34,-68,-34,51,0,-51,78,14,-4,0,-9,-29
-39,-58,-19,48,-9,-39,78,14,4,0,-9,-29
-48,-48,0,48,-24,-24,78,14,4,0,-9,-29
-48,-48,0,48,-24,-24,78,9,4,0,-9,-29
-48,-48,0,48,-24,-24,78,9,4,0,-9,-29
-43,-58,-14,51,-14,-36,82,9,9,0,-4,-19
-39,-68,-29,53,-4,-48,87,9,14,4,0,-9
-29,-73,-43,51,7,-58,82,19,19,4,0,-9
-24,-73,-48,48,12,-61,78,19,19,4,4,-9
-34,-58,-24,46,-4,-41,78,14,19,4,4,-9
-39,-43,-4,41,-17,-24,78,14,14,4,4,-9
-39,-43,-4,41,-17,-24,78,14,14,9,-4,-9
-39,-43,-4,41,-17,-24,82,19,14,14,-9,-4
-34,-48,-14,41,-9,-31,82,19,19,14,0,-4
-24,-48,-24,36,0,-36,82,19,24,9,4,-4
-24,-48,-24,36,0,-36,82,19,29,9,4,-9
-24,-48,-24,36,0,-36,82,19,29,9,4,-14
-29,-48,-19,39,-4,-34,82,19,29,14,9,-14
-34,-48,-14,41,-9,-31,78,19,29,14,9,-14
-29,-34,-4,31,-12,-19,73,14,24,14,9,-14
-29,-19,9,24,-19,-4,68,9,19,14,9,-14
-29,-29,0,29,-14,-14,68,9,19,14,9,-14
-29,-43,-14,36,-7,-29,68,9,19,14,9,-14
-34,-48,-14,41,-9,-31,68,9,14,14,4,-14
-39,-48,-9,43,-14,-29,68,9,9,9,0,-9
-39,-53,-14,46,-12,-34,63,4,9,9,0,-9
-39,-53,-14,46,-12,-34,63,0,4,9,0,-9
-39,-53,-14,46,-12,-34,63,0,4,9,0,-9
-39,-53,-14,46,-12,-34,68,0,4,9,0,-9
-39,-43,-4,41,-17,-24,68,0,4,9,0,-9
-39,-39,0,39,-19,-19,68,0,4,9,0,-9
-39,-39,0,39,-19,-19,68,0,4,9,0,-9
-39,-39,0,39,-19,-19,63,0,0,4,0,-14
-39,-48,-9,43,-14,-29,63,0,0,4,0,-14
-43,-48,-4,46,-19,-26,63,0,0,4,0,-14
-48,-48,0,48,-24,-24,58,-4,0,0,0,-19
-53,-48,4,51,-29,-21,58,-9,-4,-4,-4,-19
-48,-58,-9,53,-19,-34,63,-9,0,0,-4,-19
-48,-68,-19,58,-14,-43,68,-9,0,0,-9,-19
-48,-68,-19,58,-14,-43,68,-9,0,0,-9,-19
-48,-68,-19,58,-14,-43,68,-9,0,0,-9,-19
-48,-58,-9,53,-19,-34,58,-14,-9,-4,-14,-24
-48,-53,-4,51,-21,-29,53,-14,-14,-4,-19,-29
-53,-48,4,51,-29,-21,48,-19,-24,-9,-24,-34
-58,-48,9,53,-34,-19,48,-14,-24,-9,-24,-34
-53,-43,9,48,-31,-17,53,-14,-19,-4,-24,-34
-43,-29,14,36,-29,-7,58,-9,-14,-4,-19,-24
-39,-24,14,31,-26,-4,63,0,-9,0,-9,-14
-29,-4,24,17,-26,9,63,9,9,19,4,-4
-29,9,39,9,-34,24,78,14,29,34,14,9
-29,9,39,9,-34,24,87,24,43,43,24,14
-19,9,29,4,-24,19,97,39,48,53,34,19
-14,-4,9,9,-12,2,97,39,48,53,34,19
-14,0,14,7,-14,7,78,24,43,43,29,14
-4,9,14,-2,-9,12,34,0,29,39,29,14
4,19,14,-12,-4,17,14,-14,29,39,29,19
19,24,4,-21,7,14,-4,-19,29,43,34,29
29,24,-4,-26,17,9,-9,-19,24,43,34,29
34,24,-9,-29,21,7,-9,-29,19,43,29,29
24,9,-14,-17,19,-2,-4,-39,0,29,14,19
19,14,-4,-17,12,4,-4,-43,-9,19,-4,9
19,4,-14,-12,17,-4,-4,-43,-14,9,-4,9
19,0,-19,-9,19,-9,0,-39,-14,9,0,9
14,0,-14,-7,14,-7,4,-34,-9,9,0,9
4,-4,-9,0,7,-7,4,-34,-4,9,-9,4
-9,-24,-14,17,2,-19,19,-29,-4,4,-4,-4
-19,-34,-14,26,-2,-24,29,-24,-4,4,0,-4
-39,-43,-4,41,-17,-24,43,-14,0,4,-4,-9
-68,-53,14,61,-41,-19,58,-14,0,4,-9,-19
-87,-68,19,78,-53,-24,58,-19,-4,-4,-14,-29
-97,-68,29,82,-63,-19,58,-29,-24,-19,-34,-43
-97,-78,19,87,-58,-29,53,-39,-29,-29,-43,-43
-97,-82,14,90,-56,-34,48,-39,-29,-29,-48,-48
-97,-87,9,92,-53,-39,48,-48,-29,-34,-48,-53
-102,-97,4,100,-53,-46,48,-53,-29,-39,-48,-53
-97,-97,0,97,-48,-48,48,-53,-34,-43,-53,-63
-92,-97,-4,95,-43,-51,48,-53,-39,-43,-58,-68
-92,-97,-4,95,-43,-51,48,-53,-39,-43,-58,-68
-92,-97,-4,95,-43,-51,48,-53,-43,-48,-63,-68
-87,-102,-14,95,-36,-58,53,-53,-43,-43,-63,-68
-87,-102,-14,95,-36,-58,53,-53,-43,-39,-63,-68
-107,-112,-4,109,-51,-58,63,-39,-39,-39,-63,-73
-151,-126,24,139,-87,-51,87,-14,-34,-43,-73,-87
-195,-165,29,180,-112,-68,141,14,-39,-78,-117,-141
-248,-224,24,236,-136,-100,190,29,-39,-107,-175,-200
-287,-219,68,253,-178,-75,239,78,0,-82,-161,-190
-239,-175,63,207,-151,-56,297,258,136,39,-43,-92
-82,-78,4,80,-43,-36,307,409,278,219,170,102
185,107,-78,-146,131,14,170,395,361,419,444,385
468,326,-141,-397,305,92,-39,258,361,575,702,678
717,551,-165,-634,441,192,-336,-4,326,722,941,941
834,683,-151,-758,492,265,-610,-326,195,653,917,976
707,551,-156,-629,431,197,-668,-619,-68,307,522,634
473,331,-141,-402,307,95,-649,-849,-356,-53,107,263
165,190,24,-178,70,107,-639,-1073,-649,-341,-204,-14
-34,43,78,-4,-56,61,-634,-1176,-810,-512,-385,-195
-53,-107,-53,80,0,-80,-512,-956,-790,-546,-439,-278
-68,-126,-58,97,-4,-92,-317,-644,-610,-453,-390,-278
-68,-117,-48,92,-9,-82,-180,-405,-444,-346,-317,-248
-82,-102,-19,92,-31,-61,-87,-239,-283,-234,-224,-185
-92,-73,19,82,-56,-26,-34,-156,-146,-122,-131,-112
-82,-53,29,68,-56,-12,9,-102,-87,-73,-82,-78
-73,-78,-4,75,-34,-41,53,-43,-73,-63,-82,-78
-92,-102,-9,97,-41,-56,78,-9,-48,-58,-73,-73
-112,-117,-4,114,-53,-61,87,0,-29,-43,-58,-68
-112,-112,0,112,-56,-56,87,0,-24,-43,-58,-68
-112,-102,9,107,-61,-46,87,4,-24,-43,-58,-68
-112,-117,-4,114,-53,-61,92,14,-19,-43,-58,-68
-112,-107,4,109,-58,-51,97,14,-9,-39,-53,-63
-107,-102,4,104,-56,-48,87,14,-9,-34,-53,-63
-102,-102,0,102,-51,-51,87,14,-9,-34,-53,-63
-102,-107,-4,104,-48,-56,92,19,-9,-34,-53,-63
-102,-107,-4,104,-48,-56,87,24,-9,-34,-53,-63
-102,-102,0,102,-51,-51,87,24,0,-24,-48,-63
-97,-97,0,97,-48,-48,87,24,4,-19,-43,-58
-97,-97,0,97,-48,-48,87,24,4,-19,-43,-58
-97,-97,0,97,-48,-48,87,24,4,-19,-48,-58
-97,-102,-4,100,-46,-53,87,24,9,-19,-48,-58
-97,-102,-4,100,-46,-53,87,29,9,-19,-48,-53
-92,-102,-9,97,-41,-56,87,34,9,-19,-48,-48
-92,-102,-9,97,-41,-56,87,34,9,-19,-48,-48
-97,-97,0,97,-48,-48,82,29,4,-19,-53,-48
-97,-92,4,95,-51,-43,78,29,4,-19,-53,-48
-97,-87,9,92,-53,-39,78,29,0,-19,-53,-53
-97,-87,9,92,-53,-39,78,34,-4,-24,-53,-58
-92,-87,4,90,-48,-41,78,39,0,-19,-43,-58
-87,-87,0,87,-43,-43,78,39,0,-19,-43,-53
-82,-92,-9,87,-36,-51,78,48,4,-19,-43,-53
-78,-87,-9,82,-34,-48,78,53,9,-14,-43,-48
-78,-87,-9,82,-34,-48,87,58,14,-9,-43,-34
-78,-87,-9,82,-34,-48,97,63,14,-4,-43,-29
-68,-73,-4,70,-31,-39,87,73,14,0,-39,-29
-68,-63,4,65,-36,-29,78,78,14,4,-34,-24
-63,-58,4,61,-34,-26,78,82,24,0,-34,-19
-53,-53,0,53,-26,-26,78,87,29,0,-24,-14
-43,-43,0,43,-21,-21,73,92,34,4,-19,-9
-39,-34,4,36,-21,-14,68,97,34,9,-14,-4
-29,-24,4,26,-17,-9,63,112,43,19,-4,0
-14,-19,-4,17,-4,-12,58,122,53,29,0,9
-9,-9,0,9,-4,-4,58,131,63,34,14,19
4,4,0,-4,2,2,58,156,68,43,29,34
24,19,-4,-21,14,7,53,165,82,53,39,48
34,34,0,-34,17,17,53,180,87,68,48,63
43,43,0,-43,21,21,48,195,97,82,73,73
48,48,0,-48,24,24,53,204,107,102,92,92
73,82,9,-78,31,46,48,219,117,112,102,107
87,102,14,-95,36,58,43,229,126,126,126,126
97,122,24,-109,36,73,29,229,126,126,131,136
112,136,24,-124,43,80,24,239,131,131,146,146
131,136,4,-134,63,70,14,239,136,141,156,161
146,156,9,-151,68,82,9,239,136,151,161,170
151,165,14,-158,68,90,4,239,146,161,175,195
151,175,24,-163,63,100,-4,239,146,165,185,200
156,185,29,-170,63,107,-9,234,146,165,190,204
161,195,34,-178,63,114,-9,229,146,170,195,209
161,200,39,-180,61,119,-19,209,141,175,195,209
161,200,39,-180,61,119,-19,195,141,175,190,209
151,190,39,-170,56,114,-24,170,141,165,185,204
136,175,39,-156,48,107,-24,146,141,161,180,190
122,161,39,-141,41,100,-24,122,122,146,161,175
102,141,39,-122,31,90,-14,97,112,136,141,161
92,126,34,-109,29,80,-14,82,97,122,122,136
73,107,34,-90,19,70,-14,63,87,102,107,117
48,87,39,-68,4,63,-9,34,78,82,82,97
29,73,43,-51,-7,58,-4,19,63,68,63,78
14,48,34,-31,-9,41,0,4,53,53,53,63
0,29,29,-14,-14,29,4,-4,43,43,34,43
-19,9,29,4,-24,19,4,-4,34,34,19,34
-29,0,29,14,-29,14,4,-19,24,19,4,24
-34,-4,29,19,-31,12,4,-24,19,19,0,9
-43,-14,29,29,-36,7,4,-34,9,9,-9,4
-48,-24,24,36,-36,0,4,-39,0,0,-19,-4
-53,-29,24,41,-39,-2,0,-39,-4,-4,-19,-9
-53,-39,14,46,-34,-12,4,-43,-4,-4,-29,-9
-53,-43,9,48,-31,-17,4,-43,-4,-4,-29,-14
-58,-43,14,51,-36,-14,4,-48,-9,-9,-29,-19
-58,-43,14,51,-36,-14,9,-48,-14,-9,-29,-19
-63,-48,14,56,-39,-17,14,-48,-14,-14,-29,-19
-63,-43,19,53,-41,-12,14,-48,-14,-19,-34,-24
-63,-43,19,53,-41,-12,14,-43,-14,-19,-34,-29
-63,-43,19,53,-41,-12,14,-43,-19,-19,-29,-29
-63,-43,19,53,-41,-12,14,-43,-19,-24,-34,-29
-63,-48,14,56,-39,-17,14,-43,-19,-24,-34,-29
-63,-48,14,56,-39,-17,14,-43,-19,-24,-39,-24
-63,-48,14,56,-39,-17,14,-43,-19,-24,-43,-24
-63,-48,14,56,-39,-17,14,-43,-19,-24,-43,-24
-63,-48,14,56,-39,-17,14,-48,-19,-24,-43,-29
-63,-43,19,53,-41,-12,14,-53,-19,-29,-43,-34
-63,-43,19,53,-41,-12,14,-53,-24,-34,-43,-39
-58,-43,14,51,-36,-14,9,-53,-29,-34,-43,-39
-58,-39,19,48,-39,-9,4,-53,-34,-34,-43,-43
-58,-39,19,48,-39,-9,4,-53,-34,-34,-48,-43
-53,-39,14,46,-34,-12,4,-53,-29,-29,-48,-39
-48,-43,4,46,-26,-19,9,-53,-29,-29,-48,-39
-43,-43,0,43,-21,-21,9,-53,-34,-34,-48,-39
-43,-48,-4,46,-19,-26,9,-48,-29,-29,-48,-39
-43,-53,-9,48,-17,-31,9,-43,-24,-24,-48,-39
-43,-53,-9,48,-17,-31,19,-43,-24,-19,-48,-39
-43,-48,-4,46,-19,-26,29,-34,-24,-19,-48,-39
-43,-43,0,43,-21,-21,19,-39,-14,-19,-48,-39
-48,-39,9,43,-29,-14,9,-43,-14,-19,-48,-39
-48,-39,9,43,-29,-14,9,-43,-14,-19,-48,-39
-48,-39,9,43,-29,-14,9,-39,-14,-19,-48,-39
-48,-39,9,43,-29,-14,14,-39,-14,-19,-43,-39
-48,-39,9,43,-29,-14,19,-39,-14,-14,-39,-39
-48,-43,4,46,-26,-19,19,-29,-9,-14,-39,-34
-53,-43,9,48,-31,-17,19,-29,-9,-14,-34,-29
-53,-39,14,46,-34,-12,19,-29,0,-9,-29,-24
-48,-34,14,41,-31,-9,19,-24,4,-4,-24,-19
-48,-34,14,41,-31,-9,19,-24,4,0,-24,-19
-48,-34,14,41,-31,-9,24,-19,4,4,-19,-14
-53,-34,19,43,-36,-7,24,-19,4,4,-19,-14
-53,-29,24,41,-39,-2,24,-19,4,0,-24,-14
-53,-29,24,41,-39,-2,24,-19,9,0,-24,-14
-53,-29,24,41,-39,-2,24,-19,9,0,-24,-14
-53,-29,24,41,-39,-2,19,-19,4,4,-19,-14
-53,-29,24,41,-39,-2,9,-19,0,4,-19,-14
-48,-24,24,36,-36,0,9,-19,0,4,-19,-14
-48,-19,29,34,-39,4,9,-19,0,4,-19,-14
-48,-19,29,34,-39,4,9,-19,0,4,-19,-14
-48,-24,24,36,-36,0,9,-19,0,4,-19,-14
-48,-29,19,39,-34,-4,9,-19,0,4,-19,-19
-48,-29,19,39,-34,-4,9,-19,0,0,-19,-19
-48,-29,19,39,-34,-4,4,-24,0,-4,-19,-19
-48,-24,24,36,-36,0,4,-29,-4,-9,-19,-19
-48,-24,24,36,-36,0,4,-29,-4,-9,-19,-19
-48,-24,24,36,-36,0,9,-29,-4,-9,-19,-19
-48,-24,24,36,-36,0,9,-29,-4,-4,-19,-19
-48,-29,19,39,-34,-4,9,-29,-4,0,-19,-19
-48,-29,19,39,-34,-4,9,-29,-4,0,-24,-19
-48,-29,19,39,-34,-4,4,-29,-9,-4,-29,-24
-48,-39,9,43,-29,-14,4,-29,-9,-4,-29,-19
-53,-39,14,46,-34,-12,4,-29,-9,-4,-29,-14
-53,-39,14,46,-34,-12,0,-34,-9,-9,-29,-19
-53,-39,14,46,-34,-12,0,-34,-9,-9,-29,-19
-53,-39,14,46,-34,-12,4,-39,-14,-14,-39,-19
-53,-39,14,46,-34,-12,14,-39,-14,-14,-39,-19
-48,-39,9,43,-29,-14,9,-39,-14,-14,-34,-19
-48,-39,9,43,-29,-14,9,-39,-19,-19,-29,-19
-48,-39,9,43,-29,-14,9,-39,-19,-19,-34,-24
-48,-39,9,43,-29,-14,9,-39,-19,-19,-39,-29
-48,-48,0,48,-24,-24,4,-43,-19,-19,-39,-29
-48,-43,4,46,-26,-19,0,-43,-19,-19,-39,-29
-48,-43,4,46,-26,-19,0,-48,-24,-19,-43,-34
-48,-29,19,39,-34,-4,0,-43,-24,-19,-43,-34
-53,-34,19,43,-36,-7,0,-43,-19,-9,-39,-34
-53,-29,24,41,-39,-2,0,-39,-14,-4,-29,-24
-48,-14,34,31,-41,9,4,-29,-9,0,-19,-14
-39,14,53,12,-46,34,4,-19,9,19,-4,-4
-34,29,63,2,-48,46,19,-9,29,34,4,9
-29,29,58,0,-43,43,29,4,43,43,14,14
-14,48,63,-17,-39,56,39,19,48,48,24,19
-4,53,58,-24,-31,56,39,19,48,43,24,19
-4,34,39,-14,-21,36,29,19,43,34,19,14
4,19,14,-12,-4,17,-4,9,29,29,19,14
14,39,24,-26,-4,31,-24,-14,29,29,19,19
29,53,24,-41,2,39,-43,-29,29,34,24,29
39,63,24,-51,7,43,-53,-29,24,34,24,29
43,73,29,-58,7,51,-58,-39,19,34,19,29
34,39,4,-36,14,21,-53,-53,0,19,9,19
29,24,-4,-26,17,9,-53,-63,-9,9,-4,9
29,14,-14,-21,21,0,-53,-63,-14,0,-4,9
29,9,-19,-19,24,-4,-48,-58,-14,0,0,9
34,34,0,-34,17,17,-43,-53,-14,-4,0,9
34,53,19,-43,7,36,-43,-53,-14,-9,-9,4
19,14,-4,-17,12,4,-34,-48,-14,-14,-9,-4
9,-14,-24,2,17,-19,-29,-43,-14,-14,-9,-4
-4,-24,-19,14,7,-21,-14,-34,-4,-14,-14,-9
-29,-34,-4,31,-12,-19,0,-34,0,-14,-19,-19
-58,-53,4,56,-31,-24,0,-39,-4,-24,-24,-29
-78,-58,19,68,-48,-19,0,-48,-24,-39,-43,-43
-78,-68,9,73,-43,-29,0,-58,-29,-48,-53,-48
-78,-73,4,75,-41,-34,0,-58,-29,-48,-58,-58
-78,-63,14,70,-46,-24,0,-63,-34,-53,-63,-63
-82,-58,24,70,-53,-17,0,-63,-39,-58,-68,-63
-87,-68,19,78,-53,-24,0,-58,-39,-58,-68,-68
-92,-78,14,85,-53,-31,0,-53,-39,-53,-68,-68
-92,-78,14,85,-53,-31,0,-53,-39,-53,-68,-68
-92,-78,14,85,-53,-31,0,-53,-43,-58,-73,-68
-87,-78,9,82,-48,-34,4,-53,-43,-53,-68,-68
-87,-73,14,80,-51,-29,4,-53,-43,-48,-63,-68
-73,-73,0,73,-36,-36,0,-63,-43,-53,-68,-63
-82,-78,4,80,-43,-36,9,-63,-43,-63,-82,-68
-136,-131,4,134,-70,-63,63,-43,-58,-107,-136,-136
-200,-204,-4,202,-97,-104,112,-39,-68,-146,-204,-209
-287,-229,58,258,-173,-85,175,-14,-63,-161,-244,-248
-287,-214,73,251,-180,-70,248,141,39,-78,-180,-200
-170,-141,29,156,-100,-56,292,331,195,82,0,-58
58,19,-39,-39,48,-9,190,356,292,263,239,170
390,273,-117,-331,253,78,-14,273,331,473,556,517
688,531,-156,-610,422,187,-307,63,336,673,854,834
902,771,-131,-836,517,319,-658,-278,268,722,990,1024
873,746,-126,-810,500,309,-795,-590,68,492,756,839
644,502,-141,-573,392,180,-780,-868,-253,82,287,429
341,336,-4,-339,173,165,-775,-1141,-580,-253,-78,112
97,156,58,-126,19,107,-790,-1312,-810,-483,-317,-112
34,-29,-63,-2,48,-46,-688,-1161,-858,-575,-429,-239
4,-73,-78,34,41,-75,-453,-790,-668,-483,-385,-248
-9,-87,-78,48,34,-82,-278,-492,-492,-375,-317,-229
-34,-82,-48,58,7,-65,-161,-292,-317,-263,-234,-175
-53,-63,-9,58,-21,-36,-82,-175,-165,-151,-151,-112
-58,-43,14,51,-36,-14,-39,-122,-97,-87,-92,-78
-63,-68,-4,65,-29,-36,4,-63,-73,-63,-82,-78
-78,-78,0,78,-39,-39,34,-24,-48,-63,-82,-78
-92,-78,14,85,-53,-31,48,-9,-29,-53,-78,-78
-92,-82,9,87,-51,-36,48,-9,-24,-53,-78,-78
-92,-82,9,87,-51,-36,48,-4,-24,-53,-78,-78
-92,-97,-4,95,-43,-51,58,9,-19,-58,-78,-78
-92,-87,4,90,-48,-41,68,14,-9,-58,-73,-73
-92,-82,9,87,-51,-36,58,14,-9,-53,-73,-73
-92,-82,9,87,-51,-36,58,14,-9,-53,-73,-73
-92,-87,4,90,-48,-41,68,19,-9,-48,-73,-73
-92,-87,4,90,-48,-41,68,24,-9,-43,-73,-73
-92,-87,4,90,-48,-41,68,24,-4,-39,-63,-73
-87,-87,0,87,-43,-43,68,24,-4,-39,-53,-68
-87,-87,0,87,-43,-43,68,24,-4,-39,-53,-68
-87,-87,0,87,-43,-43,68,24,-4,-39,-58,-68
-82,-87,-4,85,-39,-46,68,24,0,-39,-58,-73
-78,-82,-4,80,-36,-43,68,29,0,-39,-58,-73
-73,-78,-4,75,-34,-41,68,34,0,-39,-58,-68
-73,-73,0,73,-36,-36,68,34,0,-39,-58,-68
-78,-63,14,70,-46,-24,68,39,0,-39,-58,-68
-78,-53,24,65,-51,-14,68,48,4,-39,-53,-68
-78,-58,19,68,-48,-19,68,48,4,-34,-53,-63
-78,-68,9,73,-43,-29,68,53,4,-34,-53,-58
-78,-68,9,73,-43,-29,68,58,9,-29,-43,-58
-78,-68,9,73,-43,-29,68,58,9,-29,-43,-53
-73,-68,4,70,-39,-31,68,68,14,-29,-43,-53
-68,-58,9,63,-39,-24,68,73,19,-24,-43,-48
-68,-53,14,61,-41,-19,68,78,24,-19,-43,-39
-68,-48,19,58,-43,-14,68,82,24,-14,-43,-39
-58,-43,14,51,-36,-14,68,97,24,-9,-34,-39
-58,-43,14,51,-36,-14,68,107,24,-4,-24,-34
-53,-43,9,48,-31,-17,73,112,34,-4,-24,-29
-43,-43,0,43,-21,-21,78,117,39,0,-14,-24
-39,-34,4,36,-21,-14,78,126,43,4,-9,-19
-39,-24,14,31,-26,-4,78,136,43,9,-4,-14
-29,-9,19,19,-24,4,78,151,53,19,4,-9
-14,0,14,7,-14,7,78,161,63,29,9,0
-9,9,19,0,-14,14,78,165,73,34,24,9
4,24,19,-14,-7,21,78,185,78,43,39,24
24,39,14,-31,4,26,73,200,97,58,48,34
34,53,19,-43,7,36,73,219,107,78,58,43
43,73,29,-58,7,51,68,239,117,87,78,53
48,87,39,-68,4,63,73,253,126,102,92,73
73,112,39,-92,17,75,68,268,136,112,102,92
87,122,34,-104,26,78,63,278,146,126,126,117
92,151,58,-122,17,104,48,278,151,131,131,126
102,175,73,-139,14,124,43,287,161,141,146,136
122,170,48,-146,36,109,34,292,170,151,156,151
136,185,48,-161,43,117,29,297,175,161,161,161
146,195,48,-170,48,122,24,297,185,175,175,185
151,204,53,-178,48,129,14,297,185,185,185,190
161,224,63,-192,48,143,4,292,185,185,190,195
170,244,73,-207,48,158,0,287,185,190,195,200
175,253,78,-214,48,165,-9,263,175,195,204,204
180,258,78,-219,51,168,-9,244,170,195,209,209
175,248,73,-212,51,161,-14,219,170,190,204,209
165,234,68,-200,48,151,-14,195,170,190,200,200
151,219,68,-185,41,143,-19,170,151,175,185,185
131,200,68,-165,31,134,-14,146,141,165,170,170
117,170,53,-143,31,112,-14,126,126,151,151,146
92,136,43,-114,24,90,-14,102,117,131,136,126
68,126,58,-97,4,92,-19,68,97,107,107,107
48,122,73,-85,-12,97,-24,48,73,87,82,87
34,97,63,-65,-14,80,-19,34,63,73,73,73
19,78,58,-48,-19,68,-14,24,53,63,53,53
0,48,48,-24,-24,48,-14,19,39,48,39,43
-9,29,39,-9,-24,34,-14,0,24,29,24,34
-4,24,29,-9,-17,26,-14,-4,19,29,19,14
-4,14,19,-4,-12,17,-14,-14,9,19,9,4
-19,4,24,7,-21,14,-9,-19,0,9,0,-4
-34,0,34,17,-34,17,-9,-19,-4,4,0,-9
-34,-9,24,21,-29,7,-4,-24,-4,4,-9,-9
-34,-14,19,24,-26,2,-4,-24,-4,4,-9,-14
-39,-4,34,21,-36,14,-9,-34,-9,0,-14,-19
-39,4,43,17,-41,24,-9,-39,-14,0,-19,-19
-43,-4,39,24,-41,17,-4,-39,-14,-4,-19,-19
-43,-4,39,24,-41,17,-4,-39,-14,-9,-24,-24
-43,-9,34,26,-39,12,-4,-39,-14,-9,-29,-29
-43,-14,29,29,-36,7,-4,-43,-19,-9,-29,-29
-39,-9,29,24,-34,9,-4,-43,-19,-14,-34,-29
-34,-9,24,21,-29,7,-4,-43,-19,-14,-34,-29
-34,-9,24,21,-29,7,-4,-43,-19,-14,-34,-24
-34,-9,24,21,-29,7,-4,-43,-19,-14,-34,-24
-39,-9,29,24,-34,9,-4,-39,-19,-14,-34,-19
-43,-9,34,26,-39,12,-4,-39,-19,-14,-34,-19
-43,-9,34,26,-39,12,-4,-39,-14,-14,-34,-19
-43,-14,29,29,-36,7,-4,-34,-14,-14,-34,-19
-39,-14,24,26,-31,4,-4,-34,-19,-19,-29,-19
-39,-9,29,24,-34,9,-4,-34,-24,-24,-24,-24
-43,-9,34,26,-39,12,-4,-34,-24,-24,-29,-29
-43,-9,34,26,-39,12,-4,-34,-19,-19,-29,-29
-39,-14,24,26,-31,4,0,-34,-19,-19,-29,-29
-34,-14,19,24,-26,2,0,-34,-24,-24,-29,-29
-34,-14,19,24,-26,2,0,-34,-19,-24,-29,-24
-34,-14,19,24,-26,2,0,-34,-14,-24,-29,-19
-34,-24,9,29,-21,-7,0,-34,-14,-19,-29,-19
-34,-29,4,31,-19,-12,0,-24,-14,-19,-29,-19
-34,-14,19,24,-26,2,0,-24,-4,-19,-29,-24
-39,0,39,19,-39,19,0,-24,-4,-19,-29,-29
-39,-9,29,24,-34,9,0,-24,-4,-19,-29,-29
-39,-19,19,29,-29,0,0,-19,-4,-19,-29,-29
-39,-19,19,29,-29,0,4,-19,-9,-19,-29,-29
-39,-19,19,29,-29,0,9,-19,-14,-14,-29,-29
-39,-24,14,31,-26,-4,9,-9,-9,-14,-29,-29
-43,-24,19,34,-31,-2,9,-9,-9,-14,-24,-29
-43,-19,24,31,-34,2,9,-14,-4,-14,-24,-29
-39,-14,24,26,-31,4,9,-14,-4,-14,-24,-29
-39,-14,24,26,-31,4,9,-14,-4,-9,-29,-29
-39,-14,24,26,-31,4,14,-9,-4,-4,-29,-24
-43,-19,24,31,-34,2,14,-9,-4,-4,-29,-29
-43,-19,24,31,-34,2,14,-9,-4,-9,-34,-34
-43,-19,24,31,-34,2,14,-9,0,-9,-34,-34
-43,-19,24,31,-34,2,14,-9,0,-9,-34,-34
-48,-14,34,31,-41,9,14,-9,0,-9,-29,-34
-53,-9,43,31,-48,17,9,-9,0,-14,-29,-34
-48,-4,43,26,-46,19,9,-9,0,-14,-29,-34
-48,0,48,24,-48,24,9,-9,0,-14,-29,-34
-43,0,43,21,-43,21,9,-9,0,-14,-29,-34
-39,-4,34,21,-36,14,9,-9,0,-14,-29,-34
-39,-9,29,24,-34,9,9,-9,0,-9,-29,-34
-39,-9,29,24,-34,9,9,-9,0,-9,-29,-29
-39,-14,24,26,-31,4,4,-14,0,-9,-29,-29
-39,-14,24,26,-31,4,4,-19,-4,-9,-29,-29
-39,-14,24,26,-31,4,4,-19,-4,-9,-29,-29
-39,-14,24,26,-31,4,9,-19,-4,-9,-29,-29
-39,-9,29,24,-34,9,9,-19,-9,-9,-29,-29
-39,-9,29,24,-34,9,9,-19,-14,-9,-29,-29
-43,-14,29,29,-36,7,9,-19,-14,-9,-29,-29
-48,-19,29,34,-39,4,4,-19,-19,-14,-29,-34
-48,-29,19,39,-34,-4,4,-19,-19,-9,-29,-34
-53,-29,24,41,-39,-2,4,-19,-19,-4,-29,-34
-48,-19,29,34,-39,4,0,-24,-19,-9,-29,-39
-43,-9,34,26,-39,12,0,-24,-19,-9,-29,-39
-43,-19,24,31,-34,2,0,-29,-24,-14,-39,-39
-43,-29,14,36,-29,-7,4,-29,-24,-14,-39,-39
-39,-29,9,34,-24,-9,0,-29,-19,-14,-34,-39
-39,-29,9,34,-24,-9,0,-29,-19,-14,-34,-39
-39,-29,9,34,-24,-9,0,-29,-19,-14,-29,-34
-39,-29,9,34,-24,-9,0,-29,-19,-19,-29,-29
-39,-39,0,39,-19,-19,0,-29,-19,-19,-29,-29
-39,-48,-9,43,-14,-29,0,-29,-19,-19,-29,-29
-39,-34,4,36,-21,-14,-4,-34,-24,-24,-29,-34
-39,-24,14,31,-26,-4,-4,-34,-29,-24,-29,-39
-39,-19,19,29,-29,0,-9,-34,-34,-29,-34,-43
-34,-14,19,24,-26,2,-9,-34,-29,-24,-34,-43
-24,0,24,12,-24,12,-9,-29,-24,-19,-29,-29
-19,14,34,2,-26,24,-4,-19,-19,-9,-19,-14
-9,43,53,-17,-31,48,-4,-4,0,9,-4,-4
-4,58,63,-26,-34,61,9,4,19,24,4,9
0,58,58,-29,-29,58,19,14,34,34,14,14
9,58,48,-34,-19,53,29,29,39,43,24,19
14,34,19,-24,-2,26,29,29,39,43,19,19
14,19,4,-17,4,12,14,19,34,34,9,14
24,19,-4,-21,14,7,-24,-4,14,24,9,9
34,39,4,-36,14,21,-43,-24,9,19,9,9
48,63,14,-56,17,39,-63,-29,9,24,14,19
53,73,19,-63,17,46,-68,-29,4,24,14,19
48,63,14,-56,17,39,-68,-39,4,24,9,19
34,29,-4,-31,19,12,-63,-48,-9,9,0,9
29,24,-4,-26,17,9,-63,-53,-19,0,-14,0
29,14,-14,-21,21,0,-63,-53,-24,-9,-14,0
39,9,-29,-24,34,-9,-58,-48,-24,-9,-9,0
48,9,-39,-29,43,-14,-53,-43,-24,-9,-9,0
43,9,-34,-26,39,-12,-53,-43,-29,-9,-19,-4
29,0,-29,-14,29,-14,-43,-43,-34,-14,-19,-14
14,-4,-19,-4,17,-12,-34,-39,-34,-14,-19,-14
-14,-14,0,14,-7,-7,-14,-24,-29,-14,-24,-19
-48,-24,24,36,-36,0,0,-24,-24,-14,-29,-29
-68,-43,24,56,-46,-9,0,-29,-24,-24,-34,-39
-78,-48,29,63,-53,-9,0,-43,-43,-39,-53,-53
-78,-58,19,68,-48,-19,0,-58,-48,-48,-63,-53
-78,-63,14,70,-46,-24,-4,-58,-53,-48,-68,-58
-78,-63,14,70,-46,-24,-9,-63,-58,-53,-68,-63
-82,-68,14,75,-48,-26,-9,-63,-58,-58,-68,-63
-82,-68,14,75,-48,-26,-9,-58,-58,-58,-68,-68
-82,-68,14,75,-48,-26,-4,-53,-58,-53,-68,-68
-82,-68,14,75,-48,-26,0,-53,-58,-53,-68,-68
-92,-73,19,82,-56,-26,0,-53,-63,-58,-73,-68
-97,-82,14,90,-56,-34,4,-53,-63,-58,-73,-68
-87,-82,4,85,-46,-39,4,-53,-63,-58,-73,-68
-82,-92,-9,87,-36,-51,9,-53,-63,-63,-78,-73
-112,-107,4,109,-58,-51,29,-43,-63,-78,-97,-92
-165,-146,19,156,-92,-63,82,-14,-68,-117,-146,-151
-229,-204,24,217,-126,-90,131,0,-68,-151,-204,-209
-268,-204,63,236,-165,-70,190,48,-39,-136,-195,-209
-219,-156,63,187,-141,-46,239,204,78,-19,-92,-122
-58,-48,9,53,-34,-19,219,326,204,141,87,48
214,141,-73,-178,143,34,68,302,283,326,351,312
512,366,-146,-439,329,109,-156,161,283,488,614,600
780,595,-185,-688,483,204,-468,-102,248,644,844,854
902,746,-156,-824,529,295,-751,-444,131,605,854,917
775,629,-146,-702,461,241,-814,-766,-122,268,492,605
536,409,-126,-473,331,141,-795,-1019,-405,-82,97,253
229,253,24,-241,102,139,-771,-1234,-688,-351,-195,-4
34,92,58,-63,-12,75,-741,-1288,-844,-517,-370,-180
14,-58,-73,21,43,-65,-600,-1019,-790,-531,-405,-253
-4,-87,-82,46,39,-85,-380,-653,-580,-424,-341,-248
-19,-97,-78,58,29,-87,-224,-385,-414,-317,-278,-219
-43,-97,-53,70,4,-75,-126,-219,-263,-214,-204,-165
-53,-73,-19,63,-17,-46,-73,-136,-146,-117,-122,-107
-58,-53,4,56,-31,-24,-29,-82,-97,-73,-73,-78
-63,-78,-14,70,-24,-46,14,-29,-82,-63,-73,-78
-73,-87,-14,80,-29,-51,34,-4,-63,-63,-73,-78
-82,-78,4,80,-43,-36,39,-4,-53,-53,-73,-78
-82,-73,9,78,-46,-31,39,-9,-53,-53,-78,-78
-82,-73,9,78,-46,-31,39,-4,-53,-53,-78,-78
-82,-87,-4,85,-39,-46,48,9,-48,-53,-78,-78
-82,-82,0,82,-41,-41,58,19,-34,-48,-73,-73
-82,-82,0,82,-41,-41,48,24,-29,-43,-73,-73
-87,-82,4,85,-46,-39,48,24,-29,-43,-73,-73
-92,-87,4,90,-48,-41,58,29,-29,-43,-73,-73
-92,-87,4,90,-48,-41,58,34,-29,-43,-73,-73
-92,-87,4,90,-48,-41,58,34,-24,-39,-68,-73
-87,-87,0,87,-43,-43,58,39,-24,-39,-58,-68
-87,-87,0,87,-43,-43,58,43,-24,-39,-53,-68
-87,-87,0,87,-43,-43,58,43,-24,-39,-58,-63
-87,-87,0,87,-43,-43,58,43,-19,-39,-58,-63
-87,-78,9,82,-48,-34,58,43,-19,-39,-58,-63
-82,-73,9,78,-46,-31,58,43,-19,-39,-58,-58
-78,-73,4,75,-41,-34,58,43,-19,-39,-58,-58
-73,-73,0,73,-36,-36,58,43,-19,-39,-58,-58
-68,-73,-4,70,-31,-39,58,53,-14,-39,-53,-58
-68,-68,0,68,-34,-34,58,58,-14,-34,-53,-58
-68,-68,0,68,-34,-34,63,63,-14,-34,-53,-58
-68,-68,0,68,-34,-34,68,68,-9,-29,-43,-58
-78,-63,14,70,-46,-24,68,68,-4,-29,-43,-58
-82,-58,24,70,-53,-17,68,78,0,-29,-43,-63
-68,-48,19,58,-43,-14,68,82,0,-24,-43,-58
-58,-48,9,53,-34,-19,68,87,4,-24,-43,-48
-58,-53,4,56,-31,-24,68,92,4,-24,-43,-48
-48,-53,-4,51,-21,-29,68,102,4,-19,-39,-48
-53,-53,0,53,-26,-26,68,107,4,-14,-34,-43
-53,-48,4,51,-29,-21,68,112,14,-14,-34,-39
-43,-48,-4,46,-19,-26,68,122,24,-4,-19,-34
-34,-43,-9,39,-12,-26,68,136,34,4,-9,-29
-34,-34,0,34,-17,-17,73,146,34,14,-4,-19
-29,-24,4,26,-17,-9,78,161,43,29,4,-9
-14,-14,0,14,-7,-7,78,170,53,39,9,0
-9,0,9,4,-9,4,78,180,63,43,24,9
4,14,9,-9,-2,12,78,204,68,53,39,24
24,29,4,-26,9,17,73,219,82,63,48,39
34,43,9,-39,12,26,73,244,92,78,58,53
48,63,14,-56,17,39,63,263,107,87,78,63
58,78,19,-68,19,48,63,273,117,102,92,82
82,102,19,-92,31,61,58,287,126,112,102,97
92,112,19,-102,36,65,58,297,141,126,126,117
97,131,34,-114,31,82,48,297,151,131,131,126
112,146,34,-129,39,90,43,307,161,141,146,136
131,151,19,-141,56,85,34,307,165,151,156,151
146,175,29,-161,58,102,29,307,165,161,161,161
156,185,29,-170,63,107,24,307,175,170,175,185
170,200,29,-185,70,114,9,302,175,175,185,190
185,214,29,-200,78,122,0,292,175,175,190,195
190,224,34,-207,78,129,0,287,175,180,195,200
190,229,39,-209,75,134,-9,268,170,185,200,200
190,224,34,-207,78,129,-9,253,165,185,200,200
180,209,29,-195,75,119,-14,229,161,180,195,200
165,195,29,-180,68,112,-19,200,161,175,190,190
151,180,29,-165,61,104,-24,170,146,156,175,175
131,161,29,-146,51,95,-14,146,136,146,161,161
117,146,29,-131,43,87,-14,126,117,131,141,136
92,122,29,-107,31,75,-14,102,107,112,122,112
68,97,29,-82,19,63,-14,73,92,92,92,87
43,78,34,-61,4,56,-14,53,73,73,73,68
24,48,24,-36,0,36,-9,34,63,53,63,53
9,29,19,-19,-4,24,-4,24,48,43,43,34
-9,9,19,0,-14,14,-4,19,34,34,29,24
-19,0,19,9,-19,9,-4,0,24,19,14,14
-24,-4,19,14,-21,7,-4,-4,19,19,9,0
-29,-4,24,17,-26,9,-4,-14,9,9,0,-4
-29,-4,24,17,-26,9,0,-19,0,0,-9,-14
-34,-9,24,21,-29,7,0,-19,-4,-4,-9,-19
-34,-19,14,26,-24,-2,4,-24,-4,-4,-19,-19
-34,-24,9,29,-21,-7,4,-24,-4,-4,-19,-24
-39,-24,14,31,-26,-4,0,-29,-9,-9,-19,-29
-39,-29,9,34,-24,-9,0,-24,-14,-9,-19,-29
-43,-43,0,43,-21,-21,4,-19,-14,-14,-19,-29
-43,-43,0,43,-21,-21,4,-19,-14,-19,-24,-34
-43,-43,0,43,-21,-21,4,-19,-14,-19,-29,-39
-39,-43,-4,41,-17,-24,4,-29,-19,-19,-29,-39
-34,-39,-4,36,-14,-21,4,-34,-19,-24,-34,-39
-34,-29,4,31,-19,-12,4,-34,-19,-24,-34,-39
-34,-19,14,26,-24,-2,4,-34,-19,-24,-34,-34
-39,-29,9,34,-24,-9,4,-29,-19,-24,-29,-34
-43,-39,4,41,-24,-17,4,-24,-19,-24,-24,-34
-43,-39,4,41,-24,-17,4,-29,-19,-24,-24,-39
-43,-39,4,41,-24,-17,4,-29,-14,-24,-24,-39
-43,-48,-4,46,-19,-26,4,-24,-14,-24,-24,-39
-43,-53,-9,48,-17,-31,4,-24,-19,-24,-24,-39
-48,-48,0,48,-24,-24,4,-19,-24,-24,-19,-43
-53,-48,4,51,-29,-21,4,-14,-24,-24,-19,-43
-53,-48,4,51,-29,-21,4,-14,-19,-19,-19,-39
-48,-53,-4,51,-21,-29,9,-14,-19,-19,-19,-39
-48,-53,-4,51,-21,-29,9,-14,-19,-24,-19,-39
-53,-53,0,53,-26,-26,9,-14,-14,-24,-19,-39
-53,-48,4,51,-29,-21,9,-14,-14,-24,-24,-39
-53,-43,9,48,-31,-17,9,-14,-14,-19,-29,-39
-48,-39,9,43,-29,-14,9,-9,-19,-19,-29,-39
-43,-39,4,41,-24,-17,9,-14,-14,-19,-29,-39
-48,-39,9,43,-29,-14,9,-14,-14,-19,-29,-39
-48,-39,9,43,-29,-14,9,-14,-14,-19,-29,-39
-53,-48,4,51,-29,-21,9,-9,-9,-19,-29,-39
-58,-58,0,58,-29,-29,14,-9,-4,-19,-29,-39
-58,-58,0,58,-29,-29,19,-4,-4,-14,-29,-39
-58,-63,-4,61,-26,-34,19,9,0,-14,-29,-39
-63,-58,4,61,-34,-26,19,9,-4,-14,-24,-39
-63,-48,14,56,-39,-17,19,4,-4,-14,-24,-39
-58,-43,14,51,-36,-14,19,4,-4,-19,-29,-43
-58,-43,14,51,-36,-14,19,4,-4,-19,-34,-48
-58,-43,14,51,-36,-14,24,9,-4,-14,-29,-43
-63,-48,14,56,-39,-17,24,9,-4,-14,-29,-43
-63,-48,14,56,-39,-17,34,9,0,-14,-29,-39
-63,-48,14,56,-39,-17,43,9,9,-9,-24,-34
-63,-53,9,58,-36,-21,43,9,9,-9,-24,-34
-63,-58,4,61,-34,-26,43,9,9,-4,-19,-34
-63,-58,4,61,-34,-26,29,4,4,-9,-24,-34
-58,-53,4,56,-31,-24,19,0,0,-14,-29,-34
-58,-43,14,51,-36,-14,19,0,0,-14,-29,-34
-58,-39,19,48,-39,-9,19,0,0,-14,-29,-34
-58,-43,14,51,-36,-14,19,0,0,-14,-29,-34
-58,-48,9,53,-34,-19,19,0,0,-9,-29,-34
-58,-48,9,53,-34,-19,19,0,0,-9,-29,-29
-58,-48,9,53,-34,-19,14,-4,0,-9,-29,-29
-63,-43,19,53,-41,-12,14,-4,-4,-9,-29,-29
-68,-43,24,56,-46,-9,14,0,-4,-9,-29,-29
-68,-43,24,56,-46,-9,19,0,-4,-9,-29,-29
-68,-39,29,53,-48,-4,19,0,-4,-9,-29,-29
-63,-39,24,51,-43,-7,19,0,-4,-9,-29,-29
-58,-39,19,48,-39,-9,19,0,-4,-9,-29,-29
-58,-39,19,48,-39,-9,14,0,-9,-14,-29,-34
-58,-48,9,53,-34,-19,14,0,-9,-14,-29,-34
-63,-39,24,51,-43,-7,14,0,-9,-14,-29,-34
-63,-29,34,46,-48,2,9,-4,-9,-19,-29,-39
-63,-39,24,51,-43,-7,9,-4,-9,-19,-24,-39
-63,-48,14,56,-39,-17,9,-9,-14,-24,-29,-39
-63,-48,14,56,-39,-17,14,-9,-14,-24,-29,-39
-63,-48,14,56,-39,-17,14,-9,-14,-19,-29,-39
-58,-48,9,53,-34,-19,9,-14,-14,-24,-34,-39
-58,-48,9,53,-34,-19,9,-19,-19,-29,-39,-39
-58,-43,14,51,-36,-14,9,-19,-19,-29,-39,-39
-58,-39,19,48,-39,-9,9,-19,-19,-29,-39,-39
-58,-39,19,48,-39,-9,9,-19,-19,-29,-34,-39
-58,-43,14,51,-36,-14,9,-19,-19,-29,-34,-39
-58,-48,9,53,-34,-19,9,-19,-24,-29,-34,-43
-58,-58,0,58,-29,-29,9,-14,-24,-29,-34,-43
-53,-53,0,53,-26,-26,9,-14,-19,-24,-34,-48
-43,-39,4,41,-24,-17,9,-9,-14,-24,-29,-43
-39,-24,14,31,-26,-4,14,0,-9,-19,-19,-34
-29,4,34,12,-31,19,14,9,9,0,-4,-24
-24,24,48,0,-36,36,29,14,29,14,4,-9
-19,29,48,-4,-34,39,39,24,43,24,14,-4
-4,29,34,-12,-19,31,48,39,48,34,24,4
4,14,9,-9,-2,12,48,39,48,34,24,9
4,4,0,-4,2,2,29,29,43,24,14,4
14,0,-14,-7,14,-7,-14,9,29,19,9,4
24,19,-4,-21,14,7,-34,-4,29,19,9,9
39,34,-4,-36,21,14,-53,-9,29,24,14,19
43,39,-4,-41,24,17,-58,-9,24,24,19,19
43,43,0,-43,21,21,-58,-19,19,24,19,19
34,19,-14,-26,24,2,-53,-34,0,9,9,4
29,14,-14,-21,21,0,-53,-43,-9,0,-4,-9
29,4,-24,-17,26,-9,-53,-43,-19,-9,-9,-9
29,0,-29,-14,29,-14,-48,-39,-24,-9,-9,-9
29,0,-29,-14,29,-14,-43,-34,-24,-14,-9,-9
24,-4,-29,-9,26,-17,-43,-34,-24,-19,-19,-14
9,-19,-29,4,19,-24,-34,-34,-24,-24,-19,-24
0,-24,-24,12,12,-24,-29,-34,-24,-24,-19,-24
-24,-34,-9,29,-7,-21,-9,-24,-19,-24,-24,-29
-58,-43,14,51,-36,-14,9,-24,-19,-24,-29,-39
-78,-63,14,70,-46,-24,9,-29,-24,-34,-34,-48
-87,-68,19,78,-53,-24,9,-39,-43,-48,-53,-63
-87,-78,9,82,-48,-34,4,-48,-48,-58,-63,-63
-87,-82,4,85,-46,-39,0,-48,-48,-58,-68,-68
-87,-82,4,85,-46,-39,0,-53,-48,-63,-68,-73
-92,-87,4,90,-48,-41,0,-53,-48,-68,-68,-73
-92,-97,-4,95,-43,-51,4,-48,-48,-68,-68,-78
-92,-107,-14,100,-39,-61,9,-43,-48,-63,-68,-78
-92,-97,-4,95,-43,-51,9,-43,-48,-63,-68,-78
-92,-87,4,90,-48,-41,9,-43,-53,-68,-73,-78
-87,-92,-4,90,-41,-48,14,-43,-53,-63,-68,-78
-87,-92,-4,90,-41,-48,14,-43,-53,-58,-63,-78
-87,-102,-14,95,-36,-58,9,-48,-53,-63,-68,-82
-112,-117,-4,114,-53,-61,19,-43,-53,-73,-82,-97
-165,-161,4,163,-85,-78,63,-24,-68,-112,-131,-151
-229,-224,4,226,-117,-109,102,-19,-78,-146,-195,-209
-297,-234,63,265,-180,-85,170,19,-68,-156,-219,-239
-278,-204,73,241,-175,-65,248,190,39,-68,-141,-180
-126,-122,4,124,-65,-58,278,361,190,92,29,-34
136,48,-87,-92,112,-19,161,366,283,273,258,200
458,278,-180,-368,319,48,-58,258,302,444,531,507
746,512,-234,-629,490,139,-366,24,287,605,785,785
907,717,-190,-812,549,263,-683,-331,200,619,868,917
824,658,-165,-741,495,246,-785,-658,-19,356,580,673
585,419,-165,-502,375,126,-775,-941,-317,-14,161,302
273,258,-14,-265,143,122,-775,-1220,-619,-312,-156,24
53,102,48,-78,2,75,-771,-1337,-800,-502,-356,-165
14,-58,-73,21,43,-65,-649,-1132,-800,-556,-429,-258
-9,-92,-82,51,36,-87,-419,-756,-619,-463,-380,-263
-19,-97,-78,58,29,-87,-248,-453,-453,-356,-307,-239
-39,-87,-48,63,4,-68,-146,-268,-297,-253,-224,-185
-53,-63,-9,58,-21,-36,-82,-165,-165,-151,-141,-122
-63,-43,19,53,-41,-12,-34,-107,-102,-97,-92,-87
-73,-68,4,70,-39,-31,14,-43,-82,-82,-92,-87
-82,-78,4,80,-43,-36,34,-14,-63,-82,-92,-87
-92,-78,14,85,-53,-31,39,-9,-48,-73,-87,-87
-92,-82,9,87,-51,-36,39,-9,-43,-73,-82,-87
-92,-82,9,87,-51,-36,39,-4,-43,-73,-78,-87
-92,-97,-4,95,-43,-51,48,14,-39,-68,-78,-87
-92,-87,4,90,-48,-41,58,24,-29,-58,-73,-82
-97,-87,9,92,-53,-39,53,24,-29,-53,-73,-78
-102,-92,9,97,-56,-41,58,24,-29,-53,-73,-73
-102,-97,4,100,-53,-46,68,29,-24,-53,-73,-73
-102,-97,4,100,-53,-46,68,34,-19,-53,-73,-73
-97,-97,0,97,-48,-48,68,34,-14,-48,-68,-73
-87,-97,-9,92,-39,-53,68,34,-14,-48,-63,-68
-87,-97,-9,92,-39,-53,63,34,-19,-48,-63,-68
-87,-97,-9,92,-39,-53,58,34,-24,-48,-68,-68
-87,-92,-4,90,-41,-48,58,34,-19,-48,-68,-73
-87,-82,4,85,-46,-39,58,39,-19,-48,-68,-73
-82,-78,4,80,-43,-36,58,43,-19,-48,-68,-68
-82,-73,9,78,-46,-31,58,43,-19,-48,-68,-68
-82,-73,9,78,-46,-31,58,43,-19,-48,-68,-68
-78,-73,4,75,-41,-34,58,48,-14,-48,-63,-68
-78,-73,4,75,-41,-34,63,48,-14,-43,-63,-68
-78,-78,0,78,-39,-39,68,53,-14,-43,-63,-68
-73,-78,-4,75,-34,-41,68,58,-9,-39,-53,-68
-68,-78,-9,73,-29,-43,68,58,-9,-39,-53,-63
-53,-63,-9,58,-21,-36,68,68,-9,-39,-53,-63
-39,-39,0,39,-19,-19,68,73,-9,-34,-53,-58
-63,-63,0,63,-31,-31,63,73,-4,-34,-53,-53
-87,-87,0,87,-43,-43,58,73,-4,-34,-53,-58
-68,-68,0,68,-34,-34,58,82,-4,-29,-48,-58
-58,-53,4,56,-31,-24,58,87,-4,-24,-43,-53
-53,-48,4,51,-29,-21,58,97,9,-24,-43,-48
-43,-43,0,43,-21,-21,58,107,19,-19,-34,-43
-34,-39,-4,36,-14,-21,58,117,24,-14,-29,-34
-29,-34,-4,31,-12,-19,58,126,24,-9,-24,-24
-24,-24,0,24,-12,-12,58,141,34,0,-14,-19
-14,-19,-4,17,-4,-12,58,151,43,9,-9,-9
-9,-9,0,9,-4,-4,58,161,53,19,4,0
4,4,0,-4,2,2,58,185,58,34,19,14
24,29,4,-26,9,17,58,200,78,43,29,29
34,53,19,-43,7,36,63,219,87,58,39,43
48,73,24,-61,12,48,53,239,97,68,58,53
58,87,29,-73,14,58,53,253,107,82,73,73
82,112,29,-97,26,70,48,268,117,92,82,87
97,122,24,-109,36,73,43,278,126,107,107,107
107,141,34,-124,36,87,29,278,131,112,117,117
122,156,34,-139,43,95,24,287,141,122,136,126
141,161,19,-151,61,90,14,287,146,136,146,141
156,185,29,-170,63,107,9,287,146,151,151,151
170,195,24,-183,73,109,4,287,156,161,165,175
180,204,24,-192,78,114,-4,287,156,165,175,180
185,214,29,-200,78,122,-9,283,156,165,185,185
190,224,34,-207,78,129,-9,278,156,170,195,190
190,229,39,-209,75,134,-24,258,151,175,200,190
190,229,39,-209,75,134,-29,244,151,175,200,190
185,219,34,-202,75,126,-34,219,151,170,195,195
175,204,29,-190,73,117,-34,195,151,170,190,190
161,190,29,-175,65,109,-34,170,136,156,175,175
141,170,29,-156,56,100,-24,146,131,146,161,161
126,156,29,-141,48,92,-24,126,112,131,141,136
102,136,34,-119,34,85,-24,102,97,112,126,117
78,117,39,-97,19,78,-24,73,82,92,102,97
58,102,43,-80,7,73,-24,58,63,78,82,78
43,78,34,-61,4,56,-19,39,53,58,68,63
29,58,29,-43,0,43,-14,24,43,43,43,43
9,39,29,-24,-9,34,-14,19,34,34,29,29
0,29,29,-14,-14,29,-14,0,24,19,14,14
-4,14,19,-4,-12,17,-14,-4,19,19,9,0
-14,-4,9,9,-12,2,-14,-14,9,9,0,-4
-19,0,19,9,-19,9,-9,-24,-4,-4,-9,-14
-24,9,34,7,-29,21,-9,-29,-14,-14,-9,-19
-24,0,24,12,-24,12,-4,-34,-14,-14,-19,-19
-24,-4,19,14,-21,7,-4,-34,-14,-14,-19,-24
-34,-4,29,19,-31,12,-9,-34,-14,-14,-19,-24
-39,-4,34,21,-36,14,-9,-29,-14,-9,-19,-19
-43,-14,29,29,-36,7,-4,-29,-14,-14,-19,-19
-43,-14,29,29,-36,7,-4,-29,-14,-19,-24,-24
-43,-14,29,29,-36,7,-4,-29,-19,-19,-29,-34
-43,-14,29,29,-36,7,-4,-34,-29,-19,-29,-39
-43,-14,29,29,-36,7,-4,-34,-29,-24,-34,-39
-43,-19,24,31,-34,2,-4,-34,-29,-24,-34,-39
-43,-24,19,34,-31,-2,-4,-34,-29,-24,-34,-34
-43,-29,14,36,-29,-7,-4,-34,-29,-24,-34,-34
-43,-29,14,36,-29,-7,-9,-34,-29,-24,-34,-29
-43,-29,14,36,-29,-7,-14,-39,-29,-24,-34,-29
-39,-24,14,31,-26,-4,-14,-34,-19,-24,-34,-29
-34,-24,9,29,-21,-7,-14,-24,-14,-24,-34,-29
-34,-24,9,29,-21,-7,-14,-24,-19,-24,-34,-29
-39,-19,19,29,-29,0,-14,-24,-24,-24,-34,-34
-43,-19,24,31,-34,2,-14,-29,-24,-24,-39,-34
-43,-19,24,31,-34,2,-14,-34,-19,-19,-39,-29
-43,-24,19,34,-31,-2,-9,-34,-19,-19,-39,-29
-43,-24,19,34,-31,-2,-9,-34,-24,-24,-39,-29
-43,-24,19,34,-31,-2,-9,-34,-24,-24,-39,-29
-43,-24,19,34,-31,-2,-9,-34,-24,-24,-39,-29
-43,-29,14,36,-29,-7,-9,-29,-24,-19,-34,-29
-43,-29,14,36,-29,-7,-9,-14,-24,-19,-29,-29
-43,-29,14,36,-29,-7,-9,-14,-14,-19,-29,-29
-48,-29,19,39,-34,-4,-9,-14,-14,-19,-29,-29
-48,-29,19,39,-34,-4,-9,-14,-14,-19,-29,-29
-48,-29,19,39,-34,-4,-9,-9,-14,-19,-29,-29
-48,-29,19,39,-34,-4,-4,-9,-14,-19,-29,-29
-48,-29,19,39,-34,-4,0,-9,-14,-14,-29,-29
-48,-34,14,41,-31,-9,0,0,-9,-19,-29,-34
-53,-34,19,43,-36,-7,0,0,-9,-24,-24,-39
-58,-34,24,46,-41,-4,0,-4,-4,-24,-29,-39
-58,-34,24,46,-41,-4,0,-4,-4,-24,-34,-39
-58,-34,24,46,-41,-4,0,-4,-4,-19,-34,-39
-58,-34,24,46,-41,-4,4,0,-4,-14,-29,-34
-63,-24,39,43,-51,7,4,0,-4,-14,-24,-34
-63,-9,53,36,-58,21,4,0,-4,-19,-24,-34
-63,-19,43,41,-53,12,4,0,0,-19,-24,-34
-63,-29,34,46,-48,2,4,0,0,-19,-24,-34
-63,-29,34,46,-48,2,4,0,0,-14,-19,-34
-63,-29,34,46,-48,2,0,0,0,-14,-19,-34
-58,-24,34,41,-46,4,0,0,0,-14,-19,-34
-58,-19,39,39,-48,9,0,0,0,-14,-19,-34
-58,-19,39,39,-48,9,0,0,0,-14,-19,-34
-58,-24,34,41,-46,4,0,0,0,-14,-19,-34
-53,-24,29,39,-41,2,0,0,0,-9,-19,-34
-48,-19,29,34,-39,4,0,0,0,-9,-19,-29
-48,-19,29,34,-39,4,-4,-4,0,-9,-19,-29
-48,-14,34,31,-41,9,-4,-9,-4,-9,-19,-29
-48,-14,34,31,-41,9,-4,-9,-9,-9,-19,-29
-48,-14,34,31,-41,9,0,-9,-14,-9,-19,-29
-48,-19,29,34,-39,4,0,-9,-14,-9,-19,-29
-48,-29,19,39,-34,-4,0,-9,-14,-9,-19,-29
-48,-29,19,39,-34,-4,0,-14,-14,-9,-24,-29
-48,-29,19,39,-34,-4,-4,-19,-19,-14,-29,-34
-48,-34,14,41,-31,-9,-4,-19,-19,-14,-29,-34
-53,-29,24,41,-39,-2,-4,-19,-19,-14,-29,-34
-53,-29,24,41,-39,-2,-9,-24,-19,-19,-24,-39
-53,-29,24,41,-39,-2,-9,-24,-19,-19,-19,-39
-53,-24,29,39,-41,2,-9,-24,-24,-24,-29,-39
-53,-19,34,36,-43,7,-4,-19,-24,-24,-29,-39
-53,-19,34,36,-43,7,-4,-19,-24,-19,-29,-39
-53,-19,34,36,-43,7,-4,-24,-24,-24,-29,-39
-48,-24,24,36,-36,0,-4,-19,-24,-24,-29,-39
-48,-29,19,39,-34,-4,-9,-19,-29,-29,-29,-39
-48,-29,19,39,-34,-4,-9,-19,-29,-29,-29,-39
-48,-29,19,39,-34,-4,-9,-19,-29,-29,-29,-39
-53,-34,19,43,-36,-7,-9,-24,-29,-29,-34,-39
-53,-34,19,43,-36,-7,-9,-24,-29,-29,-39,-39
-58,-39,19,48,-39,-9,-14,-29,-34,-29,-43,-43
-58,-39,19,48,-39,-9,-19,-24,-34,-29,-43,-43
-53,-34,19,43,-36,-7,-19,-24,-29,-24,-39,-43
-43,-19,24,31,-34,2,-19,-19,-24,-24,-29,-34
-39,-4,34,21,-36,14,-9,-9,-24,-19,-19,-24
-29,24,53,2,-41,39,-4,0,-9,0,-4,-14
-24,43,68,-9,-46,56,9,4,9,14,4,0
-19,48,68,-14,-43,58,19,14,24,24,14,4
-4,48,53,-21,-29,51,29,34,29,34,24,14
4,34,29,-19,-12,31,29,39,29,34,24,19
9,29,19,-19,-4,24,14,29,24,24,14,14
24,29,4,-26,9,17,-24,9,9,19,9,14
34,39,4,-36,14,21,-43,-4,9,19,9,19
48,43,-4,-46,26,19,-63,-9,9,24,14,29
53,53,0,-53,26,26,-68,-9,9,24,19,34
53,63,9,-58,21,36,-68,-19,9,24,19,39
39,39,0,-39,19,19,-63,-29,-9,9,9,29
29,34,4,-31,12,19,-63,-34,-19,0,-4,19
29,24,-4,-26,17,9,-63,-39,-29,-9,-9,19
29,19,-9,-24,19,4,-58,-39,-34,-9,-9,19
29,19,-9,-24,19,4,-53,-34,-34,-9,-9,19
24,14,-9,-19,17,2,-53,-34,-34,-9,-19,14
9,0,-9,-4,9,-4,-43,-34,-34,-14,-19,4
0,-4,-4,2,2,-4,-39,-34,-34,-14,-19,4
-24,-14,9,19,-17,-2,-24,-24,-29,-14,-24,0
-58,-24,34,41,-46,4,-9,-24,-29,-14,-29,-9
-78,-43,34,61,-56,-4,-9,-29,-29,-19,-29,-19
-87,-48,39,68,-63,-4,-9,-39,-43,-29,-43,-34
-87,-58,29,73,-58,-14,-9,-48,-48,-39,-53,-34
-87,-63,24,75,-56,-19,-9,-48,-48,-39,-58,-39
-87,-63,24,75,-56,-19,-9,-53,-53,-48,-63,-48
-92,-68,24,80,-58,-21,-9,-53,-58,-58,-68,-53
-92,-68,24,80,-58,-21,-4,-48,-58,-58,-68,-58
-92,-68,24,80,-58,-21,0,-43,-58,-53,-68,-58
-92,-73,19,82,-56,-26,0,-43,-58,-53,-68,-58
-92,-78,14,85,-53,-31,0,-43,-63,-58,-73,-58
-87,-82,4,85,-46,-39,4,-43,-63,-58,-73,-58
-87,-82,4,85,-46,-39,4,-43,-63,-58,-73,-58
-87,-82,4,85,-46,-39,-4,-53,-63,-53,-63,-58
-112,-87,24,100,-68,-31,0,-53,-63,-53,-63,-68
-165,-126,39,146,-102,-43,53,-29,-73,-97,-117,-122
-229,-185,43,207,-136,-70,102,-19,-78,-136,-185,-180
-307,-219,87,263,-197,-65,165,9,-78,-151,-214,-214
-297,-214,82,256,-190,-65,239,170,19,-68,-141,-161
-156,-146,9,151,-82,-68,292,385,180,73,9,-34
97,9,-87,-53,92,-39,200,434,283,234,219,180
448,244,-204,-346,326,19,0,356,317,414,492,478
766,483,-283,-624,524,100,-287,151,317,585,746,746
956,688,-268,-822,612,209,-629,-209,239,610,849,897
902,629,-273,-766,588,178,-756,-541,29,356,580,673
663,400,-263,-531,463,68,-751,-844,-248,14,185,322
351,248,-102,-300,226,73,-756,-1141,-531,-253,-107,63
97,87,-9,-92,53,39,-780,-1322,-771,-473,-331,-146
24,-78,-102,26,63,-90,-688,-1180,-829,-556,-429,-258
-4,-112,-107,58,51,-109,-453,-800,-649,-473,-390,-268
-19,-117,-97,68,39,-107,-278,-492,-483,-375,-326,-248
-43,-107,-63,75,9,-85,-170,-287,-326,-263,-234,-185
-63,-82,-19,73,-21,-51,-102,-165,-195,-151,-141,-112
-68,-63,4,65,-36,-29,-53,-107,-122,-92,-87,-73
-73,-87,-14,80,-29,-51,-4,-43,-92,-73,-82,-68
-82,-97,-14,90,-34,-56,29,-4,-68,-73,-78,-63
-92,-97,-4,95,-43,-51,48,9,-48,-63,-68,-58
-92,-97,-4,95,-43,-51,48,9,-43,-63,-68,-58
-92,-92,0,92,-46,-46,48,14,-43,-63,-68,-58
-92,-107,-14,100,-39,-61,53,29,-39,-63,-68,-58
-92,-97,-4,95,-43,-51,58,34,-29,-58,-63,-53
-92,-92,0,92,-46,-46,48,34,-24,-53,-63,-58
-92,-92,0,92,-46,-46,48,34,-19,-53,-63,-63
-92,-97,-4,95,-43,-51,58,39,-19,-53,-63,-63
-92,-97,-4,95,-43,-51,58,43,-19,-53,-63,-63
-92,-97,-4,95,-43,-51,58,43,-14,-48,-58,-58
-87,-97,-9,92,-39,-53,58,43,-14,-48,-53,-48
-87,-97,-9,92,-39,-53,58,48,-14,-48,-53,-48
-87,-97,-9,92,-39,-53,58,53,-14,-48,-58,-48
-87,-97,-9,92,-39,-53,58,53,-9,-48,-58,-58
-87,-92,-4,90,-41,-48,58,58,-9,-48,-58,-63
-82,-102,-19,92,-31,-61,58,63,-14,-48,-58,-58
-82,-112,-29,97,-26,-70,58,63,-19,-48,-58,-58
-82,-102,-19,92,-31,-61,58,63,-19,-48,-58,-58
-78,-92,-14,85,-31,-53,58,68,-14,-48,-53,-58
-78,-87,-9,82,-34,-48,63,68,-14,-43,-53,-53
-78,-87,-9,82,-34,-48,68,73,-14,-43,-53,-48
-78,-87,-9,82,-34,-48,68,78,-9,-39,-43,-48
-78,-87,-9,82,-34,-48,68,78,-9,-39,-43,-43
-73,-87,-14,80,-29,-51,68,82,-14,-43,-48,-48
-68,-78,-9,73,-29,-43,68,82,-19,-43,-53,-48
-68,-73,-4,70,-31,-39,68,87,-14,-43,-53,-43
-68,-68,0,68,-34,-34,68,92,-14,-43,-53,-48
-58,-63,-4,61,-26,-34,63,102,-14,-39,-48,-48
-58,-63,-4,61,-26,-34,58,107,-14,-34,-43,-43
-53,-63,-9,58,-21,-36,58,117,-4,-34,-43,-39
-43,-63,-19,53,-12,-41,58,126,0,-29,-34,-34
-34,-58,-24,46,-4,-41,58,136,4,-24,-29,-29
-29,-53,-24,41,-2,-39,58,146,4,-19,-24,-24
-19,-43,-24,31,2,-34,58,161,14,-9,-14,-19
-4,-39,-34,21,14,-36,58,170,24,0,-9,-9
0,-29,-29,14,14,-29,58,180,34,4,0,-4
14,-14,-29,0,21,-21,58,204,39,14,9,4
34,-4,-39,-14,36,-21,58,219,53,19,19,19
43,4,-39,-24,41,-17,63,239,58,29,29,34
58,19,-39,-39,48,-9,58,253,63,39,43,39
68,29,-39,-48,53,-4,63,263,68,53,53,53
97,53,-43,-75,70,4,58,278,78,58,63,68
117,63,-53,-90,85,4,53,287,87,68,87,87
126,78,-48,-102,87,14,39,292,92,73,97,97
141,87,-53,-114,97,17,34,307,102,82,117,107
161,92,-68,-126,114,12,24,307,107,92,126,122
175,117,-58,-146,117,29,19,307,107,102,131,131
190,131,-58,-161,124,36,9,307,117,112,146,156
200,146,-53,-173,126,46,-4,307,117,117,156,161
204,161,-43,-183,124,58,-9,302,117,117,161,165
209,175,-34,-192,122,70,-9,297,117,122,165,170
219,180,-39,-200,129,70,-19,283,112,131,170,175
229,180,-48,-204,139,65,-19,273,112,136,170,180
209,170,-39,-190,124,65,-24,248,112,131,165,180
185,156,-29,-170,107,63,-24,224,112,131,161,170
170,141,-29,-156,100,56,-24,200,107,117,151,161
151,122,-29,-136,90,46,-14,175,112,107,141,151
136,112,-24,-124,80,43,-14,156,97,97,122,126
112,97,-14,-104,63,41,-14,131,87,82,107,107
87,78,-9,-82,48,34,-14,97,73,63,82,87
68,63,-4,-65,36,29,-14,78,53,48,63,68
53,39,-14,-46,34,12,-9,53,43,39,53,58
39,19,-19,-29,29,0,-4,34,34,34,34,43
9,0,-9,-4,9,-4,4,39,29,24,29,39
-9,-9,0,9,-4,-4,14,29,24,9,24,34
-19,-14,4,17,-12,-4,14,24,19,9,19,19
-34,-24,9,29,-21,-7,14,14,9,0,9,14
-39,-34,4,36,-21,-14,19,9,0,-9,-4,0
-43,-39,4,41,-24,-17,19,9,-4,-14,-9,-9
-39,-48,-9,43,-14,-29,24,4,-4,-14,-19,-9
-34,-53,-19,43,-7,-36,24,4,-4,-14,-19,-14
-39,-43,-4,41,-17,-24,14,-4,-14,-19,-19,-19
-39,-34,4,36,-21,-14,9,-9,-24,-19,-19,-19
-43,-43,0,43,-21,-21,14,-9,-24,-24,-24,-24
-43,-43,0,43,-21,-21,14,-9,-24,-29,-34,-34
-43,-53,-9,48,-17,-31,14,-9,-24,-29,-39,-39
-43,-63,-19,53,-12,-41,14,-14,-29,-29,-39,-39
-43,-48,-4,46,-19,-26,14,-19,-29,-34,-43,-39
-43,-39,4,41,-24,-17,14,-24,-29,-34,-43,-39
-43,-39,4,41,-24,-17,14,-24,-29,-34,-43,-34
-43,-39,4,41,-24,-17,14,-24,-29,-34,-43,-34
-43,-43,0,43,-21,-21,14,-19,-29,-34,-43,-34
-43,-48,-4,46,-19,-26,14,-19,-29,-34,-43,-39
-43,-48,-4,46,-19,-26,14,-19,-24,-34,-43,-39
-43,-53,-9,48,-17,-31,14,-14,-24,-34,-43,-39
-43,-53,-9,48,-17,-31,19,-9,-24,-34,-34,-34
-48,-48,0,48,-24,-24,24,-4,-24,-34,-24,-34
-53,-53,0,53,-26,-26,24,-4,-24,-34,-29,-34
-53,-58,-4,56,-24,-31,24,-4,-19,-29,-29,-29
-53,-63,-9,58,-21,-36,29,-4,-19,-29,-29,-29
-53,-63,-9,58,-21,-36,29,-4,-24,-34,-29,-29
-53,-63,-9,58,-21,-36,29,-4,-24,-34,-29,-29
-53,-63,-9,58,-21,-36,29,-4,-24,-34,-29,-29
-53,-58,-4,56,-24,-31,24,-9,-24,-29,-34,-34
-53,-48,4,51,-29,-21,19,-4,-24,-29,-39,-39
-53,-48,4,51,-29,-21,19,-4,-14,-29,-39,-39
-58,-48,9,53,-34,-19,19,-4,-14,-29,-39,-39
-53,-48,4,51,-29,-21,19,-4,-14,-29,-39,-39
-48,-48,0,48,-24,-24,19,0,-14,-29,-39,-39
-48,-48,0,48,-24,-24,24,0,-14,-29,-39,-39
-48,-48,0,48,-24,-24,29,0,-14,-24,-39,-39
-48,-58,-9,53,-19,-34,29,9,-9,-24,-39,-39
-53,-63,-9,58,-21,-36,29,9,-9,-24,-34,-39
-53,-58,-4,56,-24,-31,24,4,-4,-24,-29,-34
-48,-53,-4,51,-21,-29,19,4,-4,-24,-24,-29
-43,-48,-4,46,-19,-26,19,9,-4,-19,-24,-29
-39,-43,-4,41,-17,-24,24,19,-4,-14,-19,-24
-43,-48,-4,46,-19,-26,29,19,-4,-14,-19,-24
-43,-48,-4,46,-19,-26,34,19,-4,-19,-24,-24
-43,-48,-4,46,-19,-26,34,19,0,-19,-24,-24
-43,-48,-4,46,-19,-26,34,19,0,-19,-24,-24
-43,-43,0,43,-21,-21,34,19,0,-9,-14,-19
-43,-39,4,41,-24,-17,29,19,0,-4,-9,-14
-39,-34,4,36,-21,-14,29,19,0,-4,-9,-14
-39,-29,9,34,-24,-9,29,19,0,-4,-9,-14
-43,-29,14,36,-29,-7,29,19,0,-4,-9,-14
-48,-34,14,41,-31,-9,29,19,0,-4,-9,-14
-48,-39,9,43,-29,-14,29,19,0,0,-9,-14
-48,-39,9,43,-29,-14,29,19,0,0,-9,-9
-48,-39,9,43,-29,-14,19,9,0,-4,-9,-14
-48,-34,14,41,-31,-9,14,0,-4,-9,-9,-19
-43,-34,9,39,-26,-12,14,0,-4,-14,-14,-19
-39,-34,4,36,-21,-14,19,0,-4,-19,-19,-19
-39,-34,4,36,-21,-14,24,0,-4,-19,-19,-19
-39,-39,0,39,-19,-19,29,0,-4,-19,-19,-19
-39,-39,0,39,-19,-19,29,0,-4,-14,-19,-19
-39,-39,0,39,-19,-19,24,0,-9,-14,-19,-24
-39,-43,-4,41,-17,-24,24,0,-9,-14,-19,-24
-43,-39,4,41,-24,-17,24,0,-9,-14,-19,-24
-43,-39,4,41,-24,-17,19,-4,-9,-19,-19,-29
-43,-39,4,41,-24,-17,19,-9,-14,-24,-24,-29
-39,-39,0,39,-19,-19,19,-9,-14,-24,-24,-29
-39,-39,0,39,-19,-19,19,-9,-19,-29,-24,-29
-39,-43,-4,41,-17,-24,19,-9,-19,-29,-24,-29
-39,-48,-9,43,-14,-29,19,-9,-19,-29,-29,-29
-39,-48,-9,43,-14,-29,9,-9,-19,-29,-29,-29
-39,-48,-9,43,-14,-29,0,-9,-19,-29,-29,-29
-39,-48,-9,43,-14,-29,9,-9,-19,-29,-29,-29
-39,-48,-9,43,-14,-29,14,-4,-24,-29,-29,-34
-43,-48,-4,46,-19,-26,19,-4,-29,-29,-34,-39
-43,-43,0,43,-21,-21,19,-4,-29,-24,-34,-43
-39,-34,4,36,-21,-14,19,0,-24,-24,-29,-34
-39,-24,14,31,-26,-4,24,9,-19,-19,-19,-24
-29,4,34,12,-31,19,24,19,4,9,4,-14
-24,19,43,2,-34,31,39,24,29,34,24,0
-14,34,48,-9,-31,41,48,34,43,29,19,4
0,48,48,-24,-24,48,58,48,48,24,14,9
4,19,14,-12,-4,17,63,58,48,34,24,14
4,0,-4,-2,4,-2,53,58,43,34,29,14
14,0,-14,-7,14,-7,14,29,29,29,29,14
24,19,-4,-21,14,7,-4,4,29,29,29,19
43,48,4,-46,19,26,-29,0,29,34,34,29
53,63,9,-58,21,36,-39,0,24,34,34,29
53,63,9,-58,21,36,-43,0,29,34,39,29
43,39,-4,-41,24,17,-43,0,19,19,39,19
39,34,-4,-36,21,14,-43,-19,0,9,14,9
39,24,-14,-31,26,4,-43,-34,-14,0,4,9
39,9,-29,-24,34,-9,-34,-29,-14,0,9,9
39,0,-39,-19,39,-19,-24,-24,-14,0,9,9
34,-4,-39,-14,36,-21,-24,-24,-14,0,0,4
19,-19,-39,0,29,-29,-14,-24,-14,-4,0,-4
9,-19,-29,4,19,-24,-9,-24,-14,-9,0,-4
-14,-24,-9,19,-2,-17,4,-14,-9,-14,-4,-9
-48,-34,14,41,-31,-9,19,-14,-9,-14,-9,-19
-68,-53,14,61,-41,-19,19,-19,-14,-24,-14,-29
-78,-58,19,68,-48,-19,19,-29,-34,-39,-39,-48
-78,-68,9,73,-43,-29,19,-39,-39,-48,-53,-53
-78,-73,4,75,-41,-34,19,-39,-39,-48,-58,-58
-78,-73,4,75,-41,-34,19,-43,-39,-53,-58,-63
-82,-78,4,80,-43,-36,19,-43,-39,-58,-58,-63
-82,-78,4,80,-43,-36,19,-39,-39,-58,-58,-68
-87,-78,9,82,-48,-34,19,-34,-39,-53,-58,-68
-92,-78,14,85,-53,-31,19,-34,-39,-53,-58,-68
-92,-78,14,85,-53,-31,19,-34,-43,-58,-63,-68
-87,-82,4,85,-46,-39,24,-34,-43,-58,-63,-68
-78,-78,0,78,-39,-39,19,-34,-43,-53,-58,-68
-73,-82,-9,78,-31,-46,19,-34,-43,-53,-58,-73
-87,-97,-9,92,-39,-53,29,-24,-43,-63,-63,-73
-126,-136,-9,131,-58,-73,73,4,-48,-97,-97,-112
-219,-209,9,214,-114,-100,122,-4,-68,-141,-180,-195
-287,-224,63,256,-175,-80,180,19,-58,-136,-195,-219
-287,-219,68,253,-178,-75,302,253,82,-34,-117,-170
-175,-156,19,165,-97,-68,356,453,234,112,39,-39
97,-9,-107,-43,102,-58,273,512,341,292,278,209
395,170,-224,-283,309,-26,117,453,370,448,517,483
741,468,-273,-605,507,97,-229,190,370,678,858,839
941,688,-253,-814,597,217,-546,-151,287,712,980,1005
854,570,-283,-712,568,143,-629,-463,63,395,629,702
653,351,-302,-502,478,24,-629,-707,-190,63,244,361
283,239,-43,-261,163,97,-644,-1049,-512,-229,-87,73
24,122,97,-73,-36,109,-653,-1229,-707,-419,-302,-131
-14,-53,-39,34,12,-46,-580,-1073,-785,-531,-414,-258
-53,-107,-53,80,0,-80,-429,-819,-707,-522,-429,-307
-58,-107,-48,82,-4,-78,-263,-512,-541,-414,-356,-278
-73,-97,-24,85,-24,-61,-156,-307,-390,-312,-273,-224
-63,-73,-9,68,-26,-41,-92,-195,-219,-180,-165,-141
-48,-53,-4,51,-21,-29,-39,-112,-117,-102,-92,-87
-53,-78,-24,65,-14,-51,14,-48,-97,-87,-87,-87
-63,-87,-24,75,-19,-56,43,-14,-73,-82,-82,-87
-73,-87,-14,80,-29,-51,48,-9,-53,-73,-73,-87
-73,-92,-19,82,-26,-56,48,-9,-43,-73,-68,-87
-78,-92,-14,85,-31,-53,53,4,-43,-68,-68,-82
-82,-107,-24,95,-29,-65,68,29,-39,-63,-68,-78
-82,-102,-19,92,-31,-61,78,34,-29,-58,-58,-73
-82,-102,-19,92,-31,-61,68,34,-29,-53,-53,-73
-82,-102,-19,92,-31,-61,63,29,-29,-53,-53,-73
-82,-107,-24,95,-29,-65,68,29,-29,-53,-53,-73
-82,-97,-14,90,-34,-56,68,34,-29,-53,-58,-78
-82,-87,-4,85,-39,-46,68,34,-24,-48,-58,-82
-78,-87,-9,82,-34,-48,73,39,-24,-48,-53,-87
-78,-87,-9,82,-34,-48,78,43,-24,-48,-53,-97
-73,-97,-24,85,-24,-61,78,43,-24,-48,-58,-97
-68,-107,-39,87,-14,-73,78,43,-19,-48,-58,-102
-68,-102,-34,85,-17,-68,78,43,-19,-48,-58,-102
-63,-102,-39,82,-12,-70,78,43,-19,-48,-58,-97
-73,-102,-29,87,-21,-65,78,43,-24,-48,-58,-97
-82,-102,-19,92,-31,-61,78,43,-29,-48,-58,-97
-68,-97,-29,82,-19,-63,78,43,-24,-53,-58,-97
-58,-87,-29,73,-14,-58,78,39,-24,-53,-63,-97
-58,-87,-29,73,-14,-58,78,43,-24,-53,-63,-92
-58,-87,-29,73,-14,-58,78,48,-19,-48,-53,-87
-58,-92,-34,75,-12,-63,78,48,-19,-39,-43,-73
-53,-97,-43,75,-4,-70,78,58,-19,-29,-34,-63
-48,-97,-48,73,0,-73,78,58,-24,-39,-43,-78
-48,-107,-58,78,4,-82,78,58,-24,-53,-53,-87
-48,-87,-39,68,-4,-63,73,53,-24,-53,-63,-87
-39,-63,-24,51,-7,-43,68,53,-24,-48,-68,-87
-39,-73,-34,56,-2,-53,68,68,-24,-43,-53,-78
-34,-78,-43,56,4,-61,68,82,-14,-43,-43,-68
-24,-73,-48,48,12,-61,68,87,-9,-39,-34,-63
-14,-63,-48,39,17,-56,68,97,-4,-34,-29,-58
-14,-53,-39,34,12,-46,68,107,-4,-24,-24,-48
-9,-43,-34,26,12,-39,68,122,4,-9,-14,-39
4,-43,-48,19,26,-46,68,131,14,0,-4,-29
9,-39,-48,14,29,-43,68,141,24,4,14,-19
29,-24,-53,-2,41,-39,68,161,29,14,29,-4
53,-9,-63,-21,58,-36,63,170,43,24,39,9
68,4,-63,-36,65,-29,63,190,48,39,48,24
87,24,-63,-56,75,-19,53,204,58,48,68,34
97,39,-58,-68,78,-9,48,209,63,63,78,53
122,63,-58,-92,90,2,39,219,68,73,82,68
131,73,-58,-102,95,7,34,229,78,87,107,87
136,92,-43,-114,90,24,19,229,82,92,112,97
151,102,-48,-126,100,26,14,239,92,102,126,117
170,102,-68,-136,119,17,4,239,97,112,136,141
190,126,-63,-158,126,31,0,239,92,112,136,141
204,136,-68,-170,136,34,-4,239,97,112,146,156
209,146,-63,-178,136,41,-14,239,97,117,156,161
214,156,-58,-185,136,48,-19,234,97,117,161,165
219,165,-53,-192,136,56,-19,239,97,126,170,170
219,170,-48,-195,134,61,-29,229,92,136,180,170
219,175,-43,-197,131,65,-29,214,92,136,180,170
209,170,-39,-190,124,65,-34,190,92,131,175,170
195,156,-39,-175,117,58,-29,175,102,141,175,170
180,141,-39,-161,109,51,-24,161,97,136,165,165
151,122,-29,-136,90,46,-9,136,92,126,151,151
126,107,-19,-117,73,43,-4,117,78,112,131,126
117,97,-19,-107,68,39,-4,92,73,97,117,107
107,87,-19,-97,63,34,-4,63,63,82,92,87
78,73,-4,-75,41,34,-4,48,43,68,73,68
53,48,-4,-51,29,21,0,34,34,53,63,53
34,29,-4,-31,19,12,9,24,29,43,43,34
9,9,0,-9,4,4,14,19,24,34,29,24
0,0,0,0,0,0,14,0,14,19,14,14
-4,-4,0,4,-2,-2,14,-4,9,19,9,0
-14,-14,0,14,-7,-7,14,-14,0,9,0,-4
-19,-24,-4,21,-7,-14,19,-19,-9,0,-9,-14
-24,-29,-4,26,-9,-17,24,-19,-14,-4,-9,-19
-24,-39,-14,31,-4,-26,34,-24,-14,-4,-19,-19
-24,-43,-19,34,-2,-31,34,-24,-14,-9,-24,-29
-29,-43,-14,36,-7,-29,29,-29,-19,-19,-29,-39
-29,-43,-14,36,-7,-29,29,-29,-24,-19,-29,-39
-34,-53,-19,43,-7,-36,34,-29,-24,-24,-29,-39
-39,-58,-19,48,-9,-39,34,-29,-24,-29,-34,-43
-43,-63,-19,53,-12,-41,34,-29,-24,-29,-39,-48
-43,-63,-19,53,-12,-41,34,-34,-29,-29,-39,-48
-43,-58,-14,51,-14,-36,34,-34,-29,-34,-43,-48
-43,-63,-19,53,-12,-41,34,-34,-29,-34,-43,-48
-43,-68,-24,56,-9,-46,34,-34,-29,-34,-43,-43
-43,-68,-24,56,-9,-46,34,-34,-29,-34,-43,-48
-43,-68,-24,56,-9,-46,34,-34,-29,-34,-43,-53
-43,-68,-24,56,-9,-46,34,-39,-29,-34,-43,-58
-43,-68,-24,56,-9,-46,34,-39,-24,-34,-43,-58
-43,-73,-29,58,-7,-51,39,-34,-24,-34,-43,-58
-43,-73,-29,58,-7,-51,43,-34,-29,-34,-43,-58
-48,-68,-19,58,-14,-43,43,-34,-34,-34,-43,-63
-53,-68,-14,61,-19,-41,43,-34,-34,-34,-48,-63
-58,-68,-9,63,-24,-39,39,-29,-24,-29,-48,-58
-58,-73,-14,65,-21,-43,39,-24,-19,-29,-48,-58
-53,-73,-19,63,-17,-46,39,-24,-24,-34,-48,-58
-53,-73,-19,63,-17,-46,39,-24,-24,-34,-48,-58
-53,-58,-4,56,-24,-31,39,-29,-24,-34,-48,-58
-53,-43,9,48,-31,-17,39,-34,-24,-29,-48,-58
-53,-48,4,51,-29,-21,39,-24,-24,-29,-43,-53
-53,-58,-4,56,-24,-31,39,-24,-14,-29,-39,-48
-58,-58,0,58,-29,-29,39,-24,-14,-29,-39,-48
-58,-58,0,58,-29,-29,39,-24,-14,-29,-39,-48
-53,-53,0,53,-26,-26,34,-19,-14,-29,-39,-48
-48,-48,0,48,-24,-24,34,-19,-14,-29,-39,-48
-43,-39,4,41,-24,-17,39,-19,-14,-24,-39,-48
-39,-34,4,36,-21,-14,39,-9,-9,-24,-39,-48
-43,-43,0,43,-21,-21,39,-9,-9,-24,-29,-43
-43,-48,-4,46,-19,-26,39,-14,-4,-24,-24,-39
-39,-43,-4,41,-17,-24,39,-14,-4,-19,-24,-39
-39,-43,-4,41,-17,-24,39,-14,-4,-9,-24,-39
-39,-48,-9,43,-14,-29,43,-9,-4,-4,-19,-34
-43,-58,-14,51,-14,-36,43,-9,-4,-4,-19,-34
-43,-58,-14,51,-14,-36,43,-9,-4,-9,-24,-34
-43,-58,-14,51,-14,-36,43,-9,0,-9,-24,-34
-39,-53,-14,46,-12,-34,39,-9,0,-9,-24,-34
-34,-48,-14,41,-9,-31,34,-9,0,-4,-19,-34
-34,-43,-9,39,-12,-26,29,-9,0,-4,-19,-34
-29,-34,-4,31,-12,-19,29,-9,0,-4,-19,-34
-29,-29,0,29,-14,-14,29,-9,0,-4,-19,-34
-29,-29,0,29,-14,-14,29,-9,0,-4,-19,-34
-34,-39,-4,36,-14,-21,34,-9,4,-4,-19,-29
-39,-48,-9,43,-14,-29,39,-9,9,0,-19,-24
-43,-63,-19,53,-12,-41,39,-9,9,-4,-19,-19
-48,-78,-29,63,-9,-53,34,-14,9,-9,-19,-19
-48,-58,-9,53,-19,-34,29,-19,-4,-14,-19,-24
-48,-43,4,46,-26,-19,24,-19,-14,-19,-19,-29
-48,-43,4,46,-26,-19,29,-19,-14,-19,-19,-29
-48,-39,9,43,-29,-14,29,-19,-14,-19,-19,-29
-48,-39,9,43,-29,-14,29,-19,-9,-14,-19,-29
-48,-39,9,43,-29,-14,29,-19,-4,-9,-19,-29
-48,-39,9,43,-29,-14,24,-19,-9,-14,-19,-34
-48,-48,0,48,-24,-24,24,-19,-9,-14,-19,-34
-53,-53,0,53,-26,-26,24,-19,-9,-14,-19,-34
-53,-58,-4,56,-24,-31,19,-24,-9,-19,-19,-39
-48,-58,-9,53,-19,-34,19,-24,-9,-19,-19,-39
-43,-58,-14,51,-14,-36,19,-29,-14,-24,-29,-39
-43,-58,-14,51,-14,-36,24,-29,-14,-24,-29,-39
-43,-58,-14,51,-14,-36,24,-29,-14,-19,-29,-39
-43,-58,-14,51,-14,-36,24,-34,-14,-19,-29,-39
-48,-58,-9,53,-19,-34,29,-39,-19,-19,-29,-39
-48,-58,-9,53,-19,-34,29,-43,-24,-19,-29,-39
-48,-58,-9,53,-19,-34,29,-48,-29,-19,-29,-39
-48,-58,-9,53,-19,-34,24,-48,-29,-24,-34,-39
-48,-58,-9,53,-19,-34,19,-48,-29,-24,-39,-39
-48,-58,-9,53,-19,-34,19,-48,-34,-29,-43,-43
-48,-58,-9,53,-19,-34,19,-43,-34,-29,-43,-43
-48,-53,-4,51,-21,-29,19,-43,-24,-19,-43,-43
-43,-39,4,41,-24,-17,19,-39,-14,-14,-39,-34
-39,-14,24,26,-31,4,24,-29,-9,-9,-29,-24
-29,24,53,2,-41,39,24,-19,9,9,-14,-14
-19,29,48,-4,-34,39,39,-14,29,24,-4,0
-9,19,29,-4,-19,24,48,-4,43,34,4,4
0,19,19,-9,-9,19,58,9,48,43,14,9
4,4,0,-4,2,2,58,9,48,43,14,9
0,0,0,0,0,0,43,0,39,34,14,4
4,0,-4,-2,4,-2,4,-19,19,29,19,4
14,19,4,-17,4,12,-19,-34,19,24,19,9
29,34,4,-31,12,19,-43,-39,19,24,24,19
43,43,0,-43,21,21,-48,-39,14,24,24,19
53,53,0,-53,26,26,-48,-48,9,24,19,19
34,19,-14,-26,24,2,-39,-58,-9,9,9,9
19,4,-14,-12,17,-4,-34,-63,-19,0,-4,0
14,-4,-19,-4,17,-12,-34,-68,-24,-9,-4,0
9,-9,-19,0,14,-14,-29,-68,-24,-9,0,0
9,-9,-19,0,14,-14,-24,-63,-19,-9,0,0
4,-14,-19,4,12,-17,-24,-63,-14,-9,-9,-4
-4,-29,-24,17,9,-26,-14,-63,-14,-14,-14,-19
-9,-34,-24,21,7,-29,-9,-63,-14,-14,-19,-24
-34,-43,-9,39,-12,-26,4,-53,-9,-14,-24,-29
-68,-53,14,61,-41,-19,19,-53,-9,-14,-29,-39
-87,-73,14,80,-51,-29,14,-58,-14,-24,-34,-48
-97,-78,19,87,-58,-29,9,-68,-34,-39,-53,-63
-92,-87,4,90,-48,-41,9,-78,-43,-48,-63,-63
-87,-92,-4,90,-41,-48,9,-78,-48,-48,-68,-68
-87,-82,4,85,-46,-39,9,-82,-48,-48,-68,-68
-92,-78,14,85,-53,-31,9,-82,-48,-48,-68,-63
-92,-92,0,92,-46,-46,9,-78,-48,-48,-68,-68
-92,-107,-14,100,-39,-61,9,-73,-48,-43,-68,-68
-92,-97,-4,95,-43,-51,9,-73,-48,-43,-68,-68
-92,-87,4,90,-48,-41,9,-73,-53,-48,-73,-68
-97,-92,4,95,-51,-43,14,-73,-53,-48,-73,-68
-107,-92,14,100,-61,-39,14,-73,-53,-48,-73,-68
-102,-112,-9,107,-46,-61,24,-73,-53,-58,-78,-78
-122,-136,-14,129,-53,-75,48,-63,-53,-73,-92,-97
-170,-161,9,165,-90,-75,102,-34,-58,-107,-136,-151
-229,-204,24,217,-126,-90,151,-19,-58,-136,-195,-209
-253,-195,58,224,-156,-68,209,53,-4,-97,-161,-185
-190,-146,43,168,-117,-51,278,258,146,39,-24,-73
-29,-48,-19,39,-4,-34,258,380,263,200,165,107
244,136,-107,-190,175,14,92,336,322,380,414,375
541,336,-204,-439,373,65,-126,195,317,517,644,634
805,541,-263,-673,534,139,-434,-73,278,644,854,863
897,663,-234,-780,566,214,-697,-414,131,561,819,883
746,522,-224,-634,485,148,-746,-727,-146,200,414,527
507,322,-185,-414,346,68,-727,-956,-400,-112,48,204
195,200,4,-197,95,102,-717,-1180,-658,-351,-214,-24
0,58,58,-29,-29,58,-688,-1244,-800,-507,-380,-195
-14,-87,-73,51,29,-80,-541,-985,-761,-527,-419,-268
-34,-107,-73,70,19,-90,-346,-668,-590,-434,-370,-268
-39,-97,-58,68,9,-78,-209,-424,-434,-326,-297,-239
-53,-87,-34,70,-9,-61,-117,-258,-283,-224,-214,-180
-63,-63,0,63,-31,-31,-63,-175,-156,-122,-131,-112
-73,-48,24,61,-48,-12,-19,-122,-92,-73,-82,-78
-82,-78,4,80,-43,-36,24,-63,-73,-63,-82,-78
-92,-87,4,90,-48,-41,43,-34,-53,-63,-82,-73
-102,-87,14,95,-58,-36,48,-29,-39,-53,-78,-68
-102,-97,4,100,-53,-46,48,-29,-34,-53,-78,-68
-102,-102,0,102,-51,-51,48,-24,-34,-53,-78,-68
-102,-117,-14,109,-43,-65,58,-9,-34,-53,-78,-73
-102,-107,-4,104,-48,-56,68,-4,-29,-48,-73,-73
-102,-97,4,100,-53,-46,58,-9,-29,-43,-73,-73
-102,-92,9,97,-56,-41,58,-14,-29,-43,-73,-73
-97,-97,0,97,-48,-48,68,-9,-29,-43,-73,-73
-92,-97,-4,95,-43,-51,68,-4,-29,-43,-73,-73
-92,-97,-4,95,-43,-51,63,-4,-24,-39,-68,-73
-87,-97,-9,92,-39,-53,58,-4,-24,-39,-63,-68
-87,-97,-9,92,-39,-53,58,-4,-24,-39,-58,-63
-87,-97,-9,92,-39,-53,58,-4,-24,-39,-58,-58
-87,-82,4,85,-46,-39,58,-4,-19,-39,-58,-63
-87,-63,24,75,-56,-19,58,0,-19,-39,-58,-63
-87,-73,14,80,-51,-29,63,9,-19,-34,-58,-58
-92,-82,9,87,-51,-36,68,14,-19,-29,-58,-58
-92,-82,9,87,-51,-36,68,14,-19,-29,-58,-58
-87,-82,4,85,-46,-39,68,19,-14,-29,-53,-58
-87,-78,9,82,-48,-34,63,14,-14,-29,-58,-58
-87,-78,9,82,-48,-34,58,14,-14,-34,-63,-58
-82,-78,4,80,-43,-36,58,19,-9,-29,-53,-58
-78,-78,0,78,-39,-39,58,19,-9,-29,-53,-53
-73,-78,-4,75,-34,-41,58,29,-9,-29,-53,-53
-68,-68,0,68,-34,-34,58,34,-9,-24,-53,-48
-68,-68,0,68,-34,-34,58,34,-4,-24,-53,-43
-68,-68,0,68,-34,-34,58,34,-4,-24,-53,-48
-58,-58,0,58,-29,-29,58,43,-4,-19,-43,-48
-58,-53,4,56,-31,-24,58,48,-4,-14,-34,-43
-53,-43,9,48,-31,-17,58,63,4,-14,-34,-34
-43,-34,9,39,-26,-12,58,78,9,-9,-24,-24
-34,-24,9,29,-21,-7,53,87,14,-4,-19,-19
-29,-14,14,21,-21,0,48,97,14,0,-14,-14
-19,-4,14,12,-17,4,48,112,24,9,-4,-9
-4,0,4,2,-4,2,48,122,34,19,0,0
0,9,9,-4,-4,9,53,131,43,24,14,9
14,24,9,-19,2,17,58,156,48,34,29,24
34,34,0,-34,17,17,53,170,63,43,39,39
43,43,0,-43,21,21,53,190,68,58,48,53
58,63,4,-61,26,34,43,204,78,73,68,63
68,78,9,-73,29,43,43,214,87,92,82,82
87,107,19,-97,34,63,39,229,97,102,92,97
97,122,24,-109,36,73,34,239,107,117,117,117
107,141,34,-124,36,87,19,239,112,122,122,126
122,156,34,-139,43,95,14,248,122,131,136,136
146,151,4,-148,70,78,4,248,126,136,146,151
165,165,0,-165,82,82,0,248,126,141,151,161
175,185,9,-180,82,97,-4,248,131,151,165,180
180,204,24,-192,78,114,-14,248,126,156,175,180
185,214,29,-200,78,122,-19,244,126,156,180,185
190,224,34,-207,78,129,-19,239,126,161,185,190
190,224,34,-207,78,129,-29,219,122,165,190,190
190,219,29,-204,80,124,-29,204,122,165,190,190
180,209,29,-195,75,119,-34,175,122,156,180,190
165,195,29,-180,68,112,-34,146,122,151,170,180
151,180,29,-165,61,104,-34,122,107,136,156,165
131,161,29,-146,51,95,-24,97,102,126,141,151
112,146,34,-129,39,90,-24,78,87,117,122,126
82,126,43,-104,19,85,-24,53,78,102,107,107
48,112,63,-80,-7,87,-24,24,68,82,82,87
19,102,82,-61,-31,92,-24,9,53,68,63,68
14,78,63,-46,-24,70,-19,-4,43,53,53,53
9,58,48,-34,-19,53,-14,-14,34,43,34,34
-9,39,48,-14,-29,43,-14,-19,14,34,19,24
-19,29,48,-4,-34,39,-14,-39,-4,19,4,14
-24,24,48,0,-36,36,-14,-43,0,19,0,4
-34,14,48,9,-41,31,-14,-53,0,9,-9,4
-39,-4,34,21,-36,14,-9,-58,-9,0,-19,-4
-43,-19,24,31,-34,2,-9,-58,-14,-4,-19,-9
-43,-19,24,31,-34,2,-4,-68,-14,-4,-29,-9
-43,-14,29,29,-36,7,-4,-73,-14,-4,-29,-14
-43,-14,29,29,-36,7,-9,-78,-19,-9,-29,-19
-39,-14,24,26,-31,4,-9,-78,-24,-9,-29,-19
-43,-24,19,34,-31,-2,-4,-73,-24,-14,-29,-19
-43,-24,19,34,-31,-2,-4,-68,-24,-19,-34,-24
-43,-19,24,31,-34,2,-4,-68,-24,-19,-39,-34
-43,-14,29,29,-36,7,-4,-73,-29,-19,-39,-39
-48,-9,39,29,-43,14,-9,-73,-29,-24,-43,-39
-53,-9,43,31,-48,17,-14,-73,-29,-24,-43,-39
-53,-19,34,36,-43,7,-14,-73,-34,-24,-43,-34
-53,-29,24,41,-39,-2,-14,-73,-39,-24,-43,-34
-53,-29,24,41,-39,-2,-14,-73,-39,-24,-43,-34
-53,-29,24,41,-39,-2,-14,-78,-39,-24,-43,-39
-48,-29,19,39,-34,-4,-14,-78,-34,-24,-43,-34
-43,-34,9,39,-26,-12,-14,-73,-34,-24,-43,-29
-43,-34,9,39,-26,-12,-14,-73,-39,-24,-43,-29
-48,-29,19,39,-34,-4,-14,-73,-43,-24,-43,-34
-53,-24,29,39,-41,2,-14,-73,-43,-24,-48,-39
-53,-19,34,36,-43,7,-14,-73,-39,-19,-48,-39
-53,-24,29,39,-41,2,-9,-73,-39,-19,-48,-39
-53,-24,29,39,-41,2,-9,-73,-43,-24,-48,-39
-53,-24,29,39,-41,2,-9,-63,-39,-24,-48,-39
-53,-24,29,39,-41,2,-9,-53,-34,-24,-48,-39
-53,-24,29,39,-41,2,-9,-63,-34,-19,-48,-39
-53,-19,34,36,-43,7,-9,-63,-34,-19,-48,-39
-53,-19,34,36,-43,7,-4,-63,-24,-19,-43,-39
-58,-19,39,39,-48,9,0,-63,-24,-19,-39,-39
-58,-29,29,43,-43,0,0,-63,-19,-19,-39,-39
-58,-39,19,48,-39,-9,0,-58,-14,-19,-39,-39
-58,-29,29,43,-43,0,0,-58,-14,-19,-39,-39
-58,-19,39,39,-48,9,0,-58,-14,-14,-39,-39
-58,-24,34,41,-46,4,0,-43,-14,-14,-39,-39
-63,-24,39,43,-51,7,0,-39,-19,-14,-34,-39
-63,-19,43,41,-53,12,0,-43,-14,-14,-34,-39
-58,-14,43,36,-51,14,0,-43,-14,-14,-34,-39
-53,-14,39,34,-46,12,0,-43,-14,-9,-34,-39
-48,-14,34,31,-41,9,4,-39,-14,-4,-29,-34
-53,-19,34,36,-43,7,4,-39,-9,-4,-29,-34
-53,-19,34,36,-43,7,4,-39,-4,-9,-34,-34
-53,-19,34,36,-43,7,4,-39,0,-9,-34,-34
-53,-19,34,36,-43,7,4,-39,0,-9,-34,-34
-53,-19,34,36,-43,7,4,-39,-4,-4,-29,-34
-53,-19,34,36,-43,7,0,-39,-9,-4,-29,-34
-48,-19,29,34,-39,4,0,-39,-9,-4,-29,-34
-48,-19,29,34,-39,4,0,-39,-9,-4,-29,-34
-48,-19,29,34,-39,4,0,-39,-9,-9,-29,-34
-48,-24,24,36,-36,0,0,-39,-9,-14,-29,-34
-48,-24,24,36,-36,0,0,-39,-9,-9,-34,-34
-48,-19,29,34,-39,4,0,-39,-9,-9,-39,-29
-53,-19,34,36,-43,7,-4,-43,-9,-9,-39,-29
-58,-14,43,36,-51,14,-4,-48,-14,-9,-39,-29
-58,-14,43,36,-51,14,-4,-48,-14,-9,-39,-29
-58,-14,43,36,-51,14,0,-48,-14,-9,-39,-29
-53,-9,43,31,-48,17,0,-48,-14,-9,-39,-29
-48,-9,39,29,-43,14,0,-48,-14,-9,-39,-29
-48,-14,34,31,-41,9,0,-48,-14,-9,-39,-29
-48,-19,29,34,-39,4,-4,-48,-19,-14,-39,-34
-48,-29,19,39,-34,-4,-4,-48,-19,-14,-39,-34
-53,-29,24,41,-39,-2,-4,-48,-19,-14,-39,-34
-53,-29,24,41,-39,-2,-9,-53,-19,-19,-34,-39
-53,-29,24,41,-39,-2,-9,-53,-19,-19,-29,-39
-53,-24,29,39,-41,2,-9,-58,-24,-24,-39,-39
-53,-19,34,36,-43,7,-4,-58,-24,-24,-39,-39
-53,-19,34,36,-43,7,-4,-58,-24,-19,-43,-43
-53,-19,34,36,-43,7,-4,-63,-24,-24,-48,-48
-48,-19,29,34,-39,4,-4,-58,-24,-24,-43,-48
-48,-19,29,34,-39,4,-9,-58,-29,-29,-43,-48
-48,-19,29,34,-39,4,-9,-58,-29,-29,-43,-48
-48,-19,29,34,-39,4,-9,-58,-29,-29,-48,-48
-53,-29,24,41,-39,-2,-9,-58,-29,-29,-48,-48
-58,-39,19,48,-39,-9,-9,-58,-29,-29,-48,-48
-58,-48,9,53,-34,-19,-9,-58,-29,-29,-43,-43
-58,-48,9,53,-34,-19,-9,-53,-29,-29,-43,-43
-58,-48,9,53,-34,-19,-9,-53,-34,-29,-43,-43
-53,-34,19,43,-36,-7,-9,-53,-29,-24,-43,-43
-43,-14,29,29,-36,7,-14,-48,-24,-24,-39,-34
-39,4,43,17,-41,24,-14,-39,-19,-19,-29,-24
-29,34,63,-2,-46,48,-14,-29,0,0,-19,-14
-24,48,73,-12,-48,61,0,-24,19,14,-14,0
-19,48,68,-14,-43,58,9,-14,34,24,-4,0
-9,48,58,-19,-34,53,19,0,39,34,4,0
0,34,34,-17,-17,34,19,0,34,34,4,0
4,29,24,-17,-9,26,4,-9,24,24,0,-4
14,24,9,-19,2,17,-34,-29,9,19,0,-4
24,39,14,-31,4,26,-53,-43,9,19,0,0
39,53,14,-46,12,34,-73,-53,9,24,4,4
43,53,9,-48,17,31,-78,-58,4,24,4,0
39,53,14,-46,12,34,-78,-68,0,19,0,0
24,29,4,-26,9,17,-73,-78,-19,0,-9,-9
19,24,4,-21,7,14,-73,-82,-29,-9,-24,-19
19,14,-4,-17,12,4,-73,-82,-34,-19,-24,-19
24,9,-14,-17,19,-2,-63,-78,-34,-14,-19,-14
29,9,-19,-19,24,-4,-53,-73,-34,-9,-19,-9
24,4,-19,-14,21,-7,-53,-73,-34,-9,-29,-14
9,-9,-19,0,14,-14,-43,-73,-34,-14,-29,-24
0,-19,-19,9,9,-19,-39,-73,-34,-14,-29,-24
-24,-34,-9,29,-7,-21,-24,-63,-29,-14,-34,-29
-58,-43,14,51,-36,-14,-9,-63,-29,-14,-39,-39
-78,-63,14,70,-46,-24,-9,-68,-34,-24,-43,-48
-87,-68,19,78,-53,-24,-9,-78,-53,-43,-63,-63
-87,-78,9,82,-48,-34,-9,-87,-58,-58,-73,-63
-87,-82,4,85,-46,-39,-14,-82,-58,-58,-78,-68
-87,-82,4,85,-46,-39,-19,-82,-58,-63,-78,-73
-92,-87,4,90,-48,-41,-19,-82,-58,-68,-78,-73
-92,-87,4,90,-48,-41,-19,-78,-58,-68,-78,-78
-92,-87,4,90,-48,-41,-19,-82,-58,-63,-82,-82
-92,-87,4,90,-48,-41,-19,-92,-58,-63,-87,-87
-92,-87,4,90,-48,-41,-14,-92,-63,-68,-92,-87
-87,-92,-4,90,-41,-48,-4,-92,-63,-68,-92,-87
-92,-92,0,92,-46,-46,-4,-87,-63,-68,-92,-87
-102,-102,0,102,-51,-51,0,-82,-63,-73,-97,-92
-141,-117,24,129,-82,-46,19,-68,-63,-82,-112,-107
-204,-156,48,180,-126,-53,73,-34,-68,-117,-156,-161
-258,-214,43,236,-151,-85,122,-4,-58,-136,-204,-209
-287,-214,73,251,-180,-70,180,58,-19,-107,-185,-200
-214,-151,63,183,-139,-43,224,200,92,9,-73,-107
-29,-29,0,29,-14,-14,200,307,214,170,117,68
253,170,-82,-212,168,43,29,268,287,351,375,336
561,405,-156,-483,358,124,-214,112,283,507,634,629
805,610,-195,-707,500,207,-512,-151,234,629,829,844
902,736,-165,-819,534,285,-780,-492,102,556,805,868
756,605,-151,-680,453,226,-839,-805,-156,229,444,566
497,370,-126,-434,312,122,-814,-1049,-444,-112,48,224
209,229,19,-219,95,124,-785,-1244,-692,-366,-219,-19
34,82,48,-58,-7,65,-751,-1278,-814,-517,-370,-180
4,-68,-73,31,39,-70,-605,-1015,-766,-522,-405,-244
-24,-97,-73,61,24,-85,-380,-653,-561,-405,-341,-229
-34,-97,-63,65,14,-80,-229,-400,-405,-307,-278,-209
-53,-87,-34,70,-9,-61,-136,-248,-263,-214,-204,-165
-63,-68,-4,65,-29,-36,-82,-170,-146,-122,-136,-112
-68,-53,14,61,-41,-19,-39,-122,-97,-82,-102,-87
-78,-78,0,78,-39,-39,4,-63,-82,-73,-102,-87
-92,-87,4,90,-48,-41,24,-34,-63,-73,-102,-87
-107,-87,19,97,-63,-34,29,-29,-48,-63,-92,-87
-112,-92,19,102,-65,-36,29,-29,-43,-63,-87,-87
-112,-92,19,102,-65,-36,29,-24,-43,-63,-87,-82
-112,-107,4,109,-58,-51,39,-9,-39,-63,-87,-78
-112,-97,14,104,-63,-41,48,-4,-29,-58,-82,-73
-112,-92,19,102,-65,-36,39,-4,-29,-53,-82,-73
-112,-87,24,100,-68,-31,39,-4,-29,-53,-82,-73
-112,-87,24,100,-68,-31,48,0,-29,-53,-82,-73
-112,-87,24,100,-68,-31,48,4,-29,-53,-82,-73
-112,-87,24,100,-68,-31,48,4,-24,-48,-78,-73
-107,-92,14,100,-61,-39,48,4,-29,-48,-73,-68
-107,-97,9,102,-58,-43,48,4,-34,-48,-73,-68
-107,-97,9,102,-58,-43,48,4,-34,-48,-78,-68
-107,-97,9,102,-58,-43,48,4,-29,-48,-78,-73
-102,-87,14,95,-58,-36,48,9,-29,-48,-78,-73
-92,-82,9,87,-51,-36,48,14,-29,-48,-78,-68
-92,-73,19,82,-56,-26,48,14,-29,-48,-78,-68
-92,-63,29,78,-61,-17,48,14,-29,-48,-78,-68
-87,-87,0,87,-43,-43,48,19,-19,-48,-73,-68
-87,-107,-19,97,-34,-63,48,19,-14,-43,-73,-68
-87,-97,-9,92,-39,-53,48,24,-14,-43,-73,-68
-87,-87,0,87,-43,-43,48,29,-9,-39,-63,-68
-87,-82,4,85,-46,-39,48,29,-9,-39,-63,-63
-82,-78,4,80,-43,-36,48,39,-9,-39,-63,-63
-78,-68,9,73,-43,-29,48,48,-9,-34,-63,-58
-78,-68,9,73,-43,-29,48,58,-4,-34,-63,-48
-78,-73,4,75,-41,-34,48,63,0,-29,-58,-48
-68,-73,-4,70,-31,-39,48,73,4,-19,-48,-48
-68,-73,-4,70,-31,-39,48,78,4,-14,-43,-43
-63,-68,-4,65,-29,-36,48,82,14,-14,-43,-39
-53,-58,-4,56,-24,-31,48,87,14,-9,-39,-39
-43,-43,0,43,-21,-21,48,97,14,-4,-39,-39
-39,-34,4,36,-21,-14,48,112,14,0,-34,-34
-29,-24,4,26,-17,-9,48,131,24,9,-24,-29
-19,-24,-4,21,-7,-14,53,146,39,24,-14,-14
-19,-19,0,19,-9,-9,58,161,53,34,4,0
-9,-4,4,7,-7,0,58,185,58,43,19,14
4,9,4,-7,0,7,53,200,73,53,29,29
14,24,9,-19,2,17,53,219,78,68,39,43
29,43,14,-36,7,29,43,234,87,78,58,53
39,63,24,-51,7,43,43,244,97,92,73,73
63,92,29,-78,17,61,39,258,107,102,82,87
78,102,24,-90,26,63,34,268,117,117,107,107
87,122,34,-104,26,78,19,268,122,122,112,117
102,131,29,-117,36,80,14,278,131,131,126,126
122,131,9,-126,56,70,4,278,136,141,136,141
136,156,19,-146,58,87,-4,278,136,151,141,146
146,165,19,-156,63,92,-14,278,146,161,156,165
156,180,24,-168,65,102,-24,268,146,165,165,170
165,195,29,-180,68,112,-29,253,146,165,170,175
170,204,34,-187,68,119,-29,248,146,170,175,180
170,209,39,-190,65,124,-39,229,141,175,180,180
165,204,39,-185,63,122,-39,219,141,175,180,180
151,190,39,-170,56,114,-43,200,141,170,175,180
136,175,39,-156,48,107,-43,175,141,170,165,170
122,161,39,-141,41,100,-43,151,126,156,146,156
107,141,34,-124,36,87,-39,117,117,141,131,141
97,126,29,-112,34,78,-43,87,97,122,112,117
78,107,29,-92,24,68,-43,63,87,102,97,97
58,87,29,-73,14,58,-43,34,73,82,73,78
39,73,34,-56,2,53,-43,19,53,68,53,58
24,48,24,-36,0,36,-39,4,43,53,43,43
9,29,19,-19,-4,24,-34,-4,29,43,24,24
-9,9,19,0,-14,14,-34,-9,14,34,9,14
-19,0,19,9,-19,9,-34,-34,4,14,-4,4
-24,-4,19,14,-21,7,-34,-43,0,9,-9,-9
-39,-14,24,26,-31,4,-39,-53,-9,0,-19,-14
-48,-24,24,36,-36,0,-39,-58,-19,-9,-29,-24
-53,-34,19,43,-36,-7,-39,-58,-24,-14,-29,-29
-53,-48,4,51,-29,-21,-34,-63,-24,-14,-39,-29
-53,-53,0,53,-26,-26,-34,-63,-24,-14,-39,-34
-58,-53,4,56,-31,-24,-39,-68,-29,-19,-39,-39
-58,-48,9,53,-34,-19,-39,-68,-34,-19,-39,-39
-63,-53,9,58,-36,-21,-34,-68,-34,-24,-39,-39
-63,-53,9,58,-36,-21,-34,-68,-34,-29,-43,-43
-63,-53,9,58,-36,-21,-34,-68,-34,-29,-48,-48
-63,-53,9,58,-36,-21,-34,-73,-39,-29,-48,-48
-63,-48,14,56,-39,-17,-34,-73,-39,-34,-53,-48
-58,-58,0,58,-29,-29,-34,-68,-39,-34,-53,-43
-53,-68,-14,61,-19,-41,-34,-63,-39,-34,-53,-34
-53,-58,-4,56,-24,-31,-34,-63,-39,-34,-53,-34
-53,-48,4,51,-29,-21,-34,-63,-39,-34,-53,-34
-58,-48,9,53,-34,-19,-34,-68,-39,-29,-53,-39
-63,-48,14,56,-39,-17,-34,-68,-34,-24,-53,-39
-63,-58,4,61,-34,-26,-34,-68,-34,-24,-53,-39
-68,-58,9,63,-39,-24,-34,-73,-39,-24,-53,-39
-68,-58,9,63,-39,-24,-34,-73,-39,-24,-53,-39
