I, II, III, aVR, aVL, aVF, V1, V2, V3, V4, V5, V6
-48,-87,-39,68,-4,-63,29,0,-39,-58,-58,-107
-48,-87,-39,68,-4,-63,29,-4,-43,-63,-63,-112
-48,-87,-39,68,-4,-63,29,-9,-48,-68,-68,-117
-48,-92,-43,70,-2,-68,29,-9,-53,-73,-73,-122
-48,-97,-48,73,0,-73,29,-9,-58,-78,-78,-126
-48,-97,-48,73,0,-73,29,-14,-63,-82,-82,-131
-48,-97,-48,73,0,-73,29,-19,-68,-87,-87,-136
-53,-97,-43,75,-4,-70,29,-19,-68,-87,-87,-136
-58,-97,-39,78,-9,-68,29,-19,-68,-87,-87,-136
-58,-97,-39,78,-9,-68,29,-19,-63,-87,-87,-131
-58,-97,-39,78,-9,-68,29,-19,-58,-87,-87,-126
-63,-97,-34,80,-14,-65,29,-19,-58,-92,-87,-126
-68,-97,-29,82,-19,-63,29,-19,-58,-97,-87,-126
-68,-97,-29,82,-19,-63,29,-19,-63,-97,-92,-136
-68,-97,-29,82,-19,-63,29,-19,-68,-97,-97,-146
-58,-102,-43,80,-7,-73,29,-19,-68,-97,-97,-146
-48,-107,-58,78,4,-82,29,-19,-68,-97,-97,-146
-73,-107,-34,90,-19,-70,39,-14,-63,-92,-87,-136
-97,-107,-9,102,-43,-58,48,-9,-58,-87,-78,-126
-117,-107,9,112,-63,-48,48,-9,-58,-87,-78,-126
-136,-107,29,122,-82,-39,48,-9,-58,-87,-78,-126
-73,-107,-34,90,-19,-70,29,-29,-78,-107,-102,-146
-9,-107,-97,58,43,-102,9,-48,-97,-126,-126,-165
4,-107,-112,51,58,-109,9,-48,-97,-126,-126,-175
19,-107,-126,43,73,-117,9,-48,-97,-126,-126,-185
-4,-107,-102,56,48,-104,14,-43,-92,-122,-122,-165
-29,-107,-78,68,24,-92,19,-39,-87,-117,-117,-146
-39,-117,-78,78,19,-97,19,-39,-87,-117,-117,-156
-48,-126,-78,87,14,-102,19,-39,-87,-117,-117,-165
-48,-117,-68,82,9,-92,19,-39,-87,-117,-117,-165
-48,-107,-58,78,4,-82,19,-39,-87,-117,-117,-165
-48,-107,-58,78,4,-82,24,-34,-87,-112,-112,-161
-48,-107,-58,78,4,-82,29,-29,-87,-107,-107,-156
-58,-107,-48,82,-4,-78,29,-29,-87,-107,-107,-156
-68,-107,-39,87,-14,-73,29,-29,-87,-107,-107,-156
-68,-107,-39,87,-14,-73,29,-29,-87,-107,-112,-161
-68,-107,-39,87,-14,-73,29,-29,-87,-107,-117,-165
-63,-107,-43,85,-9,-75,29,-29,-87,-107,-117,-165
-58,-107,-48,82,-4,-78,29,-29,-87,-107,-117,-165
-58,-107,-48,82,-4,-78,29,-29,-87,-112,-117,-170
-58,-107,-48,82,-4,-78,29,-29,-87,-117,-117,-175
-58,-102,-43,80,-7,-73,29,-29,-87,-117,-117,-175
-58,-97,-39,78,-9,-68,29,-29,-87,-117,-117,-175
-73,-87,-14,80,-29,-51,29,-24,-78,-102,-107,-165
-78,-78,0,78,-39,-39,29,-19,-63,-92,-97,-156
-82,-68,14,75,-48,-26,34,-14,-53,-82,-87,-151
-78,-48,29,63,-53,-9,29,-9,-39,-73,-78,-136
-68,-34,34,51,-51,0,29,-9,-34,-73,-78,-131
-53,-29,24,41,-39,-2,24,-9,-39,-73,-78,-131
-68,-19,48,43,-58,14,24,-9,-34,-68,-73,-126
-82,-9,73,46,-78,31,29,0,-24,-58,-68,-126
-53,-4,48,29,-51,21,14,-9,-29,-68,-68,-131
-24,-4,19,14,-21,7,9,-14,-29,-68,-73,-136
-19,-9,9,14,-14,0,0,-14,-39,-68,-73,-136
-14,-19,-4,17,-4,-12,-19,-24,-48,-68,-73,-136
-39,-39,0,39,-19,-19,-34,-39,-58,-78,-82,-141
-68,-48,19,58,-43,-14,-34,-43,-73,-97,-82,-151
-43,-68,-24,56,-9,-46,-39,-63,-92,-117,-102,-165
-19,-73,-53,46,17,-63,-43,-73,-112,-136,-122,-180
9,-68,-78,29,43,-73,-63,-97,-136,-136,-126,-180
39,-48,-87,4,63,-68,-78,-117,-151,-136,-131,-175
29,-29,-58,0,43,-43,-87,-117,-136,-136,-122,-170
24,-29,-53,2,39,-41,-87,-107,-131,-146,-122,-165
19,-29,-48,4,34,-39,-68,-87,-126,-141,-117,-156
4,-29,-34,12,19,-31,-58,-82,-126,-131,-117,-151
0,-24,-24,12,12,-24,-58,-82,-122,-126,-102,-141
0,-24,-24,12,12,-24,-58,-87,-117,-126,-87,-131
29,-19,-48,-4,39,-34,-63,-87,-117,-126,-82,-122
58,-24,-82,-17,70,-53,-63,-82,-107,-112,-73,-107
53,-24,-78,-14,65,-51,-48,-73,-97,-107,-73,-112
24,-43,-68,9,46,-56,-24,-58,-92,-112,-97,-126
-29,-63,-34,46,2,-48,-4,-39,-87,-117,-97,-136
-78,-87,-9,82,-34,-48,14,-34,-87,-122,-107,-146
-87,-97,-9,92,-39,-53,24,-29,-92,-131,-117,-170
-92,-117,-24,104,-34,-70,34,-24,-97,-131,-117,-185
-78,-122,-43,100,-17,-82,34,-29,-107,-141,-141,-190
-58,-126,-68,92,4,-97,34,-34,-117,-151,-156,-200
-58,-136,-78,97,9,-107,34,-34,-117,-151,-156,-204
-63,-136,-73,100,4,-104,39,-34,-122,-161,-161,-209
-68,-141,-73,104,2,-107,43,-29,-112,-151,-146,-204
-78,-146,-68,112,-4,-107,48,-24,-102,-141,-136,-200
-78,-146,-68,112,-4,-107,43,-19,-97,-136,-131,-200
-63,-146,-82,104,9,-114,43,-19,-82,-112,-112,-185
-53,-141,-87,97,17,-114,34,-14,-53,-68,-82,-156
-39,-141,-102,90,31,-122,29,-9,-9,-14,-39,-126
-19,-126,-107,73,43,-117,-14,-43,-19,29,24,-78
29,-97,-126,34,78,-112,-87,-136,-92,53,102,9
82,-39,-122,-21,102,-80,-214,-317,-297,9,175,117
151,14,-136,-82,143,-61,-434,-639,-683,-131,219,224
224,107,-117,-165,170,-4,-649,-932,-976,-209,326,395
297,224,-73,-261,185,75,-805,-1141,-1166,-234,502,624
385,375,-9,-380,197,183,-956,-1307,-1302,-161,746,941
492,566,73,-529,209,319,-1122,-1444,-1376,-24,1063,1312
649,702,53,-675,297,378,-1283,-1532,-1429,92,1322,1629
839,722,-117,-780,478,302,-1376,-1546,-1454,146,1532,1898
976,736,-239,-856,607,248,-1420,-1542,-1459,43,1420,1859
1000,727,-273,-863,636,226,-1405,-1454,-1449,-131,1107,1586
936,663,-273,-800,605,195,-1342,-1366,-1424,-380,658,1132
756,488,-268,-622,512,109,-1137,-1195,-1342,-688,29,444
595,346,-248,-470,422,48,-932,-1054,-1239,-858,-385,-34
463,248,-214,-356,339,17,-766,-883,-1063,-824,-478,-214
375,195,-180,-285,278,7,-619,-741,-912,-751,-507,-307
297,122,-175,-209,236,-26,-473,-580,-717,-644,-483,-346
180,87,-92,-134,136,-2,-326,-409,-502,-492,-390,-331
92,73,-19,-82,56,26,-200,-253,-326,-331,-278,-268
39,48,9,-43,14,29,-107,-151,-200,-209,-180,-224
0,0,0,0,0,0,-48,-78,-112,-151,-161,-209
-34,-39,-4,36,-14,-21,19,0,-24,-92,-126,-195
-68,-78,-9,73,-29,-43,82,78,43,-34,-97,-185
-82,-97,-14,90,-34,-56,122,126,82,9,-63,-180
-82,-102,-19,92,-31,-61,131,131,92,14,-58,-180
-87,-102,-14,95,-36,-58,131,136,97,9,-63,-185
-97,-102,-4,100,-46,-53,141,165,112,14,-58,-185
-73,-112,-39,92,-17,-75,141,161,117,19,-53,-185
-43,-117,-73,80,14,-95,141,156,117,19,-53,-190
-53,-117,-63,85,4,-90,141,161,126,29,-53,-185
-63,-117,-53,90,-4,-85,151,170,141,34,-53,-180
-73,-117,-43,95,-14,-80,161,185,156,43,-48,-175
-78,-117,-39,97,-19,-78,165,195,170,53,-39,-170
-78,-112,-34,95,-21,-73,165,200,180,63,-29,-170
-78,-112,-34,95,-21,-73,170,209,195,78,-19,-165
-78,-107,-29,92,-24,-68,180,219,204,82,-14,-165
-78,-107,-29,92,-24,-68,190,224,214,92,-4,-161
-82,-107,-24,95,-29,-65,190,229,224,102,0,-156
-87,-107,-19,97,-34,-63,200,244,244,112,-4,-156
-87,-97,-9,92,-39,-53,200,244,253,122,0,-156
-87,-92,-4,90,-41,-48,204,258,263,131,9,-156
-78,-87,-9,82,-34,-48,209,268,278,141,9,-151
-73,-82,-9,78,-31,-46,209,273,297,156,9,-151
-73,-82,-9,78,-31,-46,214,283,312,165,24,-146
-73,-82,-9,78,-31,-46,219,292,322,180,29,-146
-78,-78,0,78,-39,-39,219,302,336,190,39,-141
-78,-82,-4,80,-36,-43,224,317,366,204,53,-141
-87,-78,9,82,-48,-34,229,341,385,224,63,-126
-97,-68,29,82,-63,-19,239,366,414,248,82,-117
-97,-63,34,80,-65,-14,248,370,434,268,92,-112
-92,-63,29,78,-61,-17,258,385,453,287,102,-107
-92,-48,43,70,-68,-2,258,400,478,307,112,-102
-92,-43,48,68,-70,2,268,414,502,331,122,-92
-92,-34,58,63,-75,12,273,434,531,356,131,-87
-87,-24,63,56,-75,19,283,458,561,375,146,-87
-87,-19,68,53,-78,24,292,483,590,395,156,-87
-87,-9,78,48,-82,34,297,507,619,419,165,-92
-82,-14,68,48,-75,26,312,536,649,453,175,-87
-82,-14,68,48,-75,26,322,551,683,478,190,-78
-82,-9,73,46,-78,31,331,575,712,502,204,-68
-78,4,82,36,-80,43,341,590,741,517,219,-63
-82,14,97,34,-90,56,351,619,775,541,229,-63
-82,14,97,34,-90,56,361,644,810,561,244,-63
-82,19,102,31,-92,61,375,663,839,585,253,-58
-82,24,107,29,-95,65,390,692,868,610,258,-58
-82,39,122,21,-102,80,395,707,883,624,258,-58
-82,39,122,21,-102,80,405,722,907,639,263,-68
-78,48,126,14,-102,87,400,727,927,649,263,-73
-78,48,126,14,-102,87,400,736,927,658,263,-78
-78,48,126,14,-102,87,400,741,927,658,263,-82
-82,48,131,17,-107,90,400,741,922,658,258,-92
-82,53,136,14,-109,95,390,727,902,644,248,-92
-87,53,141,17,-114,97,380,702,878,619,239,-97
-92,58,151,17,-122,104,370,668,834,595,219,-107
-92,58,151,17,-122,104,346,629,785,561,204,-112
-92,58,151,17,-122,104,322,590,732,522,185,-112
-97,48,146,24,-122,97,292,546,678,478,161,-112
-97,39,136,29,-117,87,263,483,605,429,141,-117
-92,34,126,29,-109,80,234,429,536,375,126,-122
-82,34,117,24,-100,75,204,370,458,322,107,-131
-73,34,107,19,-90,70,175,317,390,268,73,-131
-58,29,87,14,-73,58,146,253,317,214,58,-131
-43,24,68,9,-56,46,122,204,253,165,39,-136
-43,19,63,12,-53,41,97,165,200,131,29,-126
-43,9,53,17,-48,31,82,136,151,97,14,-126
-53,9,63,21,-58,36,68,107,112,68,9,-117
-63,4,68,29,-65,36,48,87,82,43,4,-107
-68,-4,63,36,-65,29,43,58,53,24,0,-107
-68,-4,63,36,-65,29,34,34,29,4,-9,-107
-68,-19,48,43,-58,14,29,24,4,-14,-19,-102
-68,-24,43,46,-56,9,24,9,-14,-34,-24,-102
-63,-29,34,46,-48,2,19,0,-19,-43,-39,-107
-68,-34,34,51,-51,0,19,-4,-29,-53,-43,-112
-68,-43,24,56,-46,-9,14,-9,-43,-63,-48,-112
-68,-53,14,61,-41,-19,14,-19,-53,-68,-58,-117
-68,-39,29,53,-48,-4,14,-24,-58,-78,-58,-122
-73,-29,43,51,-58,7,14,-24,-63,-78,-63,-122
-73,-34,39,53,-56,2,14,-24,-63,-78,-68,-126
-73,-34,39,53,-56,2,14,-29,-63,-82,-68,-122
-78,-39,39,58,-58,0,14,-34,-68,-82,-68,-122
-78,-43,34,61,-56,-4,14,-34,-68,-82,-73,-122
-78,-39,39,58,-58,0,14,-34,-68,-82,-73,-126
-78,-39,39,58,-58,0,9,-34,-73,-87,-73,-126
-82,-39,43,61,-63,2,9,-29,-68,-87,-73,-126
-87,-39,48,63,-68,4,14,-24,-58,-87,-73,-126
-87,-39,48,63,-68,4,14,-19,-58,-87,-73,-122
-87,-39,48,63,-68,4,14,-19,-58,-87,-73,-122
-87,-43,43,65,-65,0,14,-19,-58,-82,-73,-131
-87,-48,39,68,-63,-4,14,-19,-53,-82,-73,-131
-92,-48,43,70,-68,-2,14,-19,-48,-78,-68,-126
-92,-48,43,70,-68,-2,19,-19,-43,-68,-58,-126
-92,-43,48,68,-70,2,19,-14,-43,-63,-58,-122
-97,-39,58,68,-78,9,19,-9,-43,-63,-53,-122
-97,-39,58,68,-78,9,24,-9,-39,-58,-53,-122
-102,-39,63,70,-82,12,24,-4,-34,-53,-53,-122
-102,-39,63,70,-82,12,24,0,-34,-53,-53,-117
-102,-39,63,70,-82,12,24,0,-29,-53,-58,-117
-102,-39,63,70,-82,12,24,0,-29,-48,-53,-117
-102,-39,63,70,-82,12,29,0,-24,-48,-53,-117
-87,-39,48,63,-68,4,29,0,-24,-48,-53,-122
-78,-43,34,61,-56,-4,34,-4,-29,-53,-53,-122
-78,-48,29,63,-53,-9,34,-4,-29,-53,-53,-122
-73,-48,24,61,-48,-12,34,0,-29,-58,-53,-126
-73,-48,24,61,-48,-12,34,0,-29,-58,-48,-131
-73,-48,24,61,-48,-12,34,0,-29,-58,-48,-131
-73,-53,19,63,-46,-17,34,4,-29,-58,-48,-131
-78,-53,24,65,-51,-14,39,9,-29,-58,-48,-131
-78,-48,29,63,-53,-9,39,9,-29,-58,-53,-136
-82,-48,34,65,-58,-7,34,4,-29,-58,-58,-136
-82,-48,34,65,-58,-7,34,4,-24,-53,-63,-136
-82,-48,34,65,-58,-7,34,4,-24,-53,-63,-136
-87,-53,34,70,-61,-9,34,4,-24,-53,-63,-136
-87,-58,29,73,-58,-14,39,0,-24,-53,-63,-136
-82,-58,24,70,-53,-17,39,-4,-29,-58,-63,-136
-82,-63,19,73,-51,-21,34,-9,-29,-63,-63,-131
-78,-68,9,73,-43,-29,34,-9,-34,-73,-63,-136
-73,-73,0,73,-36,-36,34,-14,-39,-78,-68,-146
-78,-73,4,75,-41,-34,34,-9,-43,-82,-68,-146
-78,-73,4,75,-41,-34,34,-9,-48,-82,-68,-146
-82,-73,9,78,-46,-31,34,-9,-48,-82,-78,-146
-82,-73,9,78,-46,-31,34,-9,-48,-87,-82,-146
-78,-73,4,75,-41,-34,34,-14,-53,-92,-82,-146
-78,-68,9,73,-43,-29,34,-19,-58,-97,-87,-141
-78,-68,9,73,-43,-29,24,-19,-63,-97,-87,-146
-78,-68,9,73,-43,-29,19,-24,-63,-102,-97,-146
-78,-68,9,73,-43,-29,19,-29,-63,-97,-97,-151
-78,-73,4,75,-41,-34,19,-29,-68,-97,-97,-156
-78,-73,4,75,-41,-34,24,-24,-68,-97,-97,-156
-82,-73,9,78,-46,-31,29,-19,-73,-97,-97,-156
-87,-78,9,82,-48,-34,29,-19,-73,-97,-92,-156
-92,-78,14,85,-53,-31,29,-24,-73,-97,-87,-161
-92,-73,19,82,-56,-26,29,-24,-73,-102,-92,-161
-92,-73,19,82,-56,-26,29,-24,-73,-102,-92,-161
-97,-73,24,85,-61,-24,29,-24,-73,-102,-102,-161
-102,-73,29,87,-65,-21,29,-24,-78,-102,-107,-165
-102,-73,29,87,-65,-21,29,-24,-78,-102,-107,-165
-102,-73,29,87,-65,-21,29,-24,-78,-102,-102,-161
-102,-73,29,87,-65,-21,29,-24,-78,-102,-102,-165
-102,-73,29,87,-65,-21,29,-24,-78,-102,-107,-165
-102,-68,34,85,-68,-17,24,-29,-73,-107,-107,-161
-102,-68,34,85,-68,-17,29,-29,-73,-112,-102,-156
-102,-68,34,85,-68,-17,24,-29,-73,-112,-102,-161
-107,-68,39,87,-73,-14,19,-29,-78,-117,-107,-165
-107,-68,39,87,-73,-14,19,-29,-78,-117,-107,-165
-107,-68,39,87,-73,-14,19,-29,-78,-117,-107,-165
-107,-63,43,85,-75,-9,19,-29,-78,-117,-107,-165
-102,-53,48,78,-75,-2,19,-29,-73,-112,-102,-165
-97,-43,53,70,-75,4,24,-29,-73,-107,-102,-165
-92,-29,63,61,-78,17,24,-24,-63,-102,-97,-161
-87,-9,78,48,-82,34,19,-19,-48,-92,-82,-146
-87,4,92,41,-90,48,19,-19,-39,-87,-73,-141
-82,4,87,39,-85,46,14,-24,-39,-78,-68,-141
-82,4,87,39,-85,46,14,-29,-34,-68,-63,-136
-82,9,92,36,-87,51,19,-19,-24,-58,-58,-136
-78,14,92,31,-85,53,19,-14,-19,-58,-48,-126
-73,14,87,29,-80,51,29,-4,-9,-53,-43,-117
-68,14,82,26,-75,48,19,-4,-9,-58,-43,-117
-63,9,73,26,-68,41,0,-14,-9,-58,-43,-117
-58,-4,53,31,-56,24,-34,-43,-34,-68,-58,-122
-58,-9,48,34,-53,19,-53,-58,-63,-87,-63,-131
-58,-29,29,43,-43,0,-58,-73,-82,-107,-82,-146
-58,-34,24,46,-41,-4,-58,-82,-102,-126,-102,-161
-53,-34,19,43,-36,-7,-68,-92,-112,-126,-102,-161
-48,-24,24,36,-36,0,-78,-97,-112,-126,-107,-156
-39,-9,29,24,-34,9,-87,-107,-112,-126,-102,-151
-24,-9,14,17,-19,2,-87,-107,-122,-136,-102,-141
-9,-9,0,9,-4,-4,-73,-92,-122,-136,-102,-136
-4,-9,-4,7,0,-7,-63,-92,-126,-131,-102,-141
0,-4,-4,2,2,-4,-58,-92,-126,-131,-97,-141
9,0,-9,-4,9,-4,-58,-92,-122,-131,-92,-136
9,14,4,-12,2,9,-58,-87,-117,-126,-82,-122
9,14,4,-12,2,9,-58,-82,-107,-112,-73,-107
4,14,9,-9,-2,12,-48,-73,-97,-102,-63,-107
-24,-4,19,14,-21,7,-24,-58,-97,-102,-82,-122
-53,-24,29,39,-41,2,-4,-43,-97,-107,-87,-136
-78,-53,24,65,-51,-14,14,-43,-97,-112,-97,-146
-97,-68,29,82,-63,-19,24,-39,-97,-122,-107,-161
-112,-87,24,100,-68,-31,34,-34,-97,-122,-107,-165
-117,-97,19,107,-68,-39,43,-29,-97,-126,-122,-170
-117,-107,9,112,-63,-48,53,-29,-97,-131,-126,-180
-117,-117,0,117,-58,-58,53,-34,-97,-131,-126,-185
-117,-117,0,117,-58,-58,58,-34,-102,-141,-131,-190
-112,-117,-4,114,-53,-61,58,-34,-102,-141,-131,-190
-117,-117,0,117,-58,-58,53,-34,-102,-141,-136,-190
-117,-117,0,117,-58,-58,43,-29,-102,-141,-136,-190
-102,-117,-14,109,-43,-65,43,-29,-92,-122,-122,-170
-92,-112,-19,102,-36,-65,34,-19,-73,-92,-97,-146
-78,-112,-34,95,-21,-73,29,-9,-39,-43,-53,-126
-58,-107,-48,82,-4,-78,14,9,34,48,14,-87
-14,-87,-73,51,29,-80,-29,-39,4,82,92,-9
34,-53,-87,9,61,-70,-136,-229,-190,9,126,58
92,-14,-107,-39,100,-61,-331,-527,-527,-112,151,151
161,58,-102,-109,131,-21,-561,-844,-878,-234,204,283
239,151,-87,-195,163,31,-732,-1078,-1112,-297,341,483
326,307,-19,-317,173,143,-912,-1283,-1283,-263,551,751
434,497,63,-466,185,280,-1093,-1454,-1381,-165,829,1068
610,663,53,-636,278,358,-1249,-1561,-1439,4,1151,1454
805,717,-87,-761,446,314,-1351,-1605,-1464,102,1424,1786
990,722,-268,-856,629,226,-1439,-1595,-1493,29,1420,1849
1063,722,-341,-893,702,190,-1464,-1551,-1522,-131,1171,1654
1010,673,-336,-841,673,168,-1410,-1468,-1493,-366,727,1220
863,497,-366,-680,614,65,-1249,-1302,-1434,-678,82,522
653,366,-287,-509,470,39,-1019,-1156,-1337,-902,-385,-4
488,258,-229,-373,358,14,-814,-966,-1156,-917,-531,-239
400,195,-204,-297,302,-4,-673,-824,-1010,-839,-580,-346
297,112,-185,-204,241,-36,-527,-653,-819,-722,-556,-385
175,82,-92,-129,134,-4,-366,-463,-570,-556,-448,-356
82,73,-9,-78,46,31,-229,-297,-370,-385,-326,-278
29,63,34,-46,-2,48,-146,-195,-248,-253,-224,-224
-4,34,39,-14,-21,36,-87,-107,-151,-175,-180,-185
-34,0,34,17,-34,17,-14,-29,-53,-122,-141,-175
-68,-43,24,56,-46,-9,53,43,19,-63,-107,-165
-82,-78,4,80,-43,-36,92,92,53,-14,-73,-156
-82,-82,0,82,-41,-41,102,102,63,-4,-73,-156
-87,-82,4,85,-46,-39,107,107,82,0,-78,-161
-102,-82,19,92,-61,-31,122,136,112,14,-68,-156
-107,-87,19,97,-63,-34,126,141,117,24,-58,-151
-102,-87,14,95,-58,-36,131,146,117,24,-53,-156
-102,-87,14,95,-58,-36,131,151,126,29,-48,-156
-102,-87,14,95,-58,-36,146,161,136,34,-43,-151
-107,-87,19,97,-63,-34,156,175,141,43,-39,-146
-102,-87,14,95,-58,-36,156,185,151,53,-29,-136
-97,-82,14,90,-56,-34,156,190,161,63,-24,-131
-97,-82,14,90,-56,-34,161,200,175,78,-19,-126
-97,-78,19,87,-58,-29,165,209,185,82,-14,-126
-97,-78,19,87,-58,-29,170,214,195,92,-9,-126
-97,-78,19,87,-58,-29,170,219,204,102,-4,-126
-97,-78,19,87,-58,-29,180,234,224,107,-4,-126
-97,-68,29,82,-63,-19,180,234,234,112,0,-126
-97,-63,34,80,-65,-14,185,248,244,122,9,-126
-92,-63,29,78,-61,-17,190,258,258,131,14,-117
-92,-58,34,75,-63,-12,190,263,278,146,14,-112
-92,-53,39,73,-65,-7,195,278,292,161,24,-107
-92,-53,39,73,-65,-7,200,287,302,180,29,-107
-92,-43,48,68,-70,2,200,292,317,190,39,-102
-92,-43,48,68,-70,2,204,307,346,204,53,-102
-97,-39,58,68,-78,9,209,322,361,219,58,-92
-97,-29,68,63,-82,19,219,336,385,239,73,-87
-97,-24,73,61,-85,24,229,351,405,258,82,-82
-92,-24,68,58,-80,21,239,375,424,278,92,-78
-92,-9,82,51,-87,36,239,390,448,292,102,-73
-92,-4,87,48,-90,41,248,400,478,312,112,-63
-92,0,92,46,-92,46,253,414,507,336,122,-58
-87,4,92,41,-90,48,263,439,531,356,136,-63
-87,9,97,39,-92,53,273,463,561,375,151,-58
-87,19,107,34,-97,63,278,488,590,400,165,-53
-82,19,102,31,-92,61,292,517,619,434,175,-48
-82,24,107,29,-95,65,302,531,653,458,190,-34
-82,29,112,26,-97,70,312,561,683,483,200,-24
-82,43,126,19,-104,85,322,575,712,502,214,-24
-87,53,141,17,-114,97,331,605,741,531,229,-24
-82,53,136,14,-109,95,341,634,771,551,244,-24
-82,58,141,12,-112,100,356,653,800,575,253,-19
-82,58,141,12,-112,100,370,683,829,600,258,-14
-82,68,151,7,-117,109,375,702,844,614,258,-9
-82,68,151,7,-117,109,390,722,868,629,258,-19
-78,78,156,0,-117,117,395,732,893,639,253,-24
-78,82,161,-2,-119,122,400,741,902,649,253,-29
-73,87,161,-7,-117,124,400,741,912,649,253,-34
-73,87,161,-7,-117,124,400,741,912,649,248,-43
-73,92,165,-9,-119,129,390,727,893,634,234,-48
-73,87,161,-7,-117,124,380,707,863,610,219,-63
-68,82,151,-7,-109,117,370,678,819,585,200,-78
-63,78,141,-7,-102,109,346,639,775,551,185,-82
-58,78,136,-9,-97,107,322,595,722,507,161,-92
-58,73,131,-7,-95,102,292,551,663,458,131,-97
-58,68,126,-4,-92,97,263,488,585,409,112,-97
-53,63,117,-4,-85,90,234,429,517,356,97,-102
-53,63,117,-4,-85,90,204,370,444,307,78,-112
-53,63,117,-4,-85,90,175,322,380,258,53,-107
-53,53,107,0,-80,80,146,263,312,209,48,-97
-48,48,97,0,-73,73,122,214,253,165,29,-97
-43,48,92,-2,-68,70,97,165,200,131,19,-87
-43,39,82,2,-63,61,82,131,151,97,4,-87
-43,39,82,2,-63,61,68,97,107,63,-4,-82
-43,34,78,4,-61,56,39,68,73,34,-14,-78
-48,24,73,12,-61,48,24,39,43,14,-19,-78
-48,24,73,12,-61,48,14,14,19,-4,-29,-78
-48,9,58,19,-53,34,9,4,-4,-24,-39,-73
-43,4,48,19,-46,26,4,-9,-29,-43,-43,-68
-39,0,39,19,-39,19,0,-24,-39,-53,-53,-68
-48,-4,43,26,-46,19,0,-34,-48,-63,-53,-73
-48,-4,43,26,-46,19,-4,-39,-63,-73,-58,-73
-53,-4,48,29,-51,21,-4,-48,-73,-78,-68,-78
-58,-9,48,34,-53,19,-4,-48,-78,-87,-68,-82
-63,-19,43,41,-53,12,-4,-43,-82,-87,-73,-82
-63,-24,39,43,-51,7,-4,-43,-82,-87,-78,-92
-58,-24,34,41,-46,4,-4,-48,-82,-92,-78,-87
-58,-24,34,41,-46,4,-4,-53,-87,-92,-78,-82
-58,-24,34,41,-46,4,-4,-53,-87,-97,-82,-82
-58,-19,39,39,-48,9,-4,-53,-87,-102,-82,-87
-63,-19,43,41,-53,12,-9,-53,-92,-107,-82,-92
-68,-19,48,43,-58,14,-9,-53,-92,-107,-82,-97
-68,-19,48,43,-58,14,-4,-53,-87,-107,-82,-97
-68,-19,48,43,-58,14,-4,-48,-87,-107,-82,-92
-68,-24,43,46,-56,9,-4,-48,-87,-107,-82,-92
-68,-29,39,48,-53,4,-4,-48,-87,-102,-82,-102
-68,-29,39,48,-53,4,-4,-48,-82,-102,-82,-102
-68,-29,39,48,-53,4,-4,-48,-78,-102,-82,-97
-63,-29,34,46,-48,2,0,-48,-68,-92,-78,-92
-63,-29,34,46,-48,2,0,-43,-63,-82,-78,-82
-63,-24,39,43,-51,7,0,-39,-63,-82,-73,-82
-58,-19,39,39,-48,9,4,-39,-58,-78,-73,-82
-63,-19,43,41,-53,12,4,-34,-53,-73,-73,-82
-63,-19,43,41,-53,12,4,-29,-53,-73,-68,-78
-63,-19,43,41,-53,12,4,-29,-53,-73,-68,-78
-63,-19,43,41,-53,12,4,-29,-58,-68,-63,-78
-68,-24,43,46,-56,9,9,-29,-53,-68,-58,-78
-73,-24,48,48,-61,12,9,-24,-48,-63,-53,-82
-78,-24,53,51,-65,14,14,-24,-48,-63,-53,-82
-78,-29,48,53,-63,9,14,-24,-48,-58,-53,-78
-68,-29,39,48,-53,4,14,-19,-48,-58,-58,-78
-63,-29,34,46,-48,2,14,-19,-48,-58,-58,-82
-63,-29,34,46,-48,2,14,-19,-43,-58,-58,-82
-63,-34,29,48,-46,-2,14,-19,-39,-58,-58,-82
-73,-34,39,53,-56,2,19,-19,-39,-58,-58,-82
-78,-34,43,56,-61,4,19,-19,-39,-58,-58,-82
-82,-34,48,58,-65,7,14,-24,-39,-58,-58,-78
-82,-29,53,56,-68,12,14,-24,-39,-58,-63,-78
-78,-24,53,51,-65,14,14,-24,-48,-68,-63,-78
-78,-19,58,48,-68,19,14,-24,-53,-73,-63,-78
-78,-19,58,48,-68,19,19,-29,-53,-73,-63,-78
-73,-19,53,46,-63,17,19,-29,-58,-78,-68,-82
-73,-34,39,53,-56,2,14,-29,-53,-78,-73,-82
-73,-43,29,58,-51,-7,14,-29,-53,-78,-73,-87
-73,-53,19,63,-46,-17,14,-34,-58,-78,-78,-97
-78,-63,14,70,-46,-24,14,-34,-58,-82,-78,-97
-78,-39,39,58,-58,0,4,-43,-68,-87,-82,-97
-82,-14,68,48,-75,26,-4,-48,-78,-92,-92,-97
-82,-14,68,48,-75,26,-4,-48,-78,-97,-92,-97
-78,-19,58,48,-68,19,-4,-48,-82,-102,-92,-102
-78,-24,53,51,-65,14,0,-48,-87,-107,-92,-97
-78,-29,48,53,-63,9,0,-48,-92,-107,-87,-97
-78,-29,48,53,-63,9,0,-53,-92,-112,-97,-97
-78,-29,48,53,-63,9,0,-58,-92,-112,-97,-97
-78,-34,43,56,-61,4,0,-58,-97,-117,-102,-102
-78,-34,43,56,-61,4,0,-58,-97,-117,-107,-107
-82,-34,48,58,-65,7,0,-53,-102,-117,-107,-107
-82,-39,43,61,-63,2,0,-48,-102,-117,-107,-107
-82,-39,43,61,-63,2,0,-53,-102,-117,-102,-112
-82,-34,48,58,-65,7,0,-53,-102,-122,-102,-112
-82,-34,48,58,-65,7,4,-53,-97,-122,-102,-107
-82,-34,48,58,-65,7,9,-53,-92,-122,-107,-102
-82,-39,43,61,-63,2,9,-53,-97,-122,-107,-107
-82,-43,39,63,-61,-2,9,-53,-97,-122,-107,-107
-78,-39,39,58,-58,0,4,-53,-102,-126,-112,-112
-78,-39,39,58,-58,0,0,-58,-107,-136,-117,-117
-78,-39,39,58,-58,0,0,-58,-107,-136,-117,-117
-78,-39,39,58,-58,0,0,-58,-107,-136,-117,-117
-78,-39,39,58,-58,0,0,-53,-102,-136,-117,-112
-78,-39,39,58,-58,0,0,-48,-97,-136,-117,-107
-78,-34,43,56,-61,4,0,-48,-97,-131,-117,-107
-73,-24,48,48,-61,12,0,-43,-87,-122,-107,-102
-73,-19,53,46,-63,17,4,-43,-82,-117,-102,-102
-68,0,68,34,-68,34,0,-39,-68,-102,-87,-87
-73,14,87,29,-80,51,0,-39,-58,-97,-82,-82
-73,19,92,26,-82,56,-4,-39,-58,-92,-78,-82
-73,19,92,26,-82,56,-4,-39,-48,-82,-73,-73
-73,19,92,26,-82,56,0,-29,-34,-68,-68,-68
-68,24,92,21,-80,58,0,-24,-29,-68,-58,-58
-63,24,87,19,-75,56,9,-14,-19,-58,-53,-48
-58,24,82,17,-70,53,0,-14,-19,-58,-53,-48
-53,19,73,17,-63,46,-19,-24,-19,-58,-53,-48
-48,0,48,24,-48,24,-48,-53,-43,-68,-63,-48
-48,-9,39,29,-43,14,-63,-73,-73,-87,-63,-53
-48,-29,19,39,-34,-4,-63,-92,-92,-107,-82,-68
-48,-34,14,41,-31,-9,-63,-102,-112,-126,-102,-82
-43,-34,9,39,-26,-12,-78,-112,-122,-126,-107,-82
-39,-19,19,29,-29,0,-87,-117,-122,-126,-112,-78
-29,-4,24,17,-26,9,-97,-122,-122,-126,-102,-78
-14,-9,4,12,-9,-2,-97,-117,-131,-136,-102,-78
4,-9,-14,2,9,-12,-82,-102,-131,-136,-102,-78
14,-9,-24,-2,19,-17,-78,-102,-136,-131,-107,-82
19,-4,-24,-7,21,-14,-78,-102,-136,-131,-97,-78
29,-4,-34,-12,31,-19,-78,-107,-136,-136,-87,-73
29,4,-24,-17,26,-9,-78,-97,-126,-136,-82,-63
29,4,-24,-17,26,-9,-73,-82,-107,-122,-73,-48
24,0,-24,-12,24,-12,-58,-82,-107,-112,-68,-48
-4,-24,-19,14,7,-21,-34,-78,-112,-112,-87,-58
-34,-43,-9,39,-12,-26,-14,-63,-107,-117,-87,-73
-58,-68,-9,63,-24,-39,4,-63,-107,-122,-97,-87
-78,-78,0,78,-39,-39,14,-58,-107,-131,-107,-102
-92,-97,-4,95,-43,-51,24,-53,-107,-131,-107,-107
-97,-107,-9,102,-43,-58,34,-48,-107,-136,-122,-112
-97,-117,-19,107,-39,-68,43,-43,-107,-141,-126,-122
-97,-126,-29,112,-34,-78,43,-43,-107,-141,-126,-126
-102,-126,-24,114,-39,-75,48,-43,-112,-151,-131,-131
-102,-126,-24,114,-39,-75,43,-43,-112,-151,-131,-131
-107,-126,-19,117,-43,-73,39,-43,-112,-151,-136,-131
-107,-126,-19,117,-43,-73,34,-39,-107,-146,-126,-122
-92,-126,-34,109,-29,-80,34,-39,-92,-122,-102,-97
-73,-122,-48,97,-12,-85,24,-29,-73,-82,-78,-78
-48,-122,-73,85,12,-97,19,-19,-39,-34,-39,-58
-29,-117,-87,73,29,-102,0,-19,9,29,19,-19
19,-97,-117,39,68,-107,-48,-78,-4,73,92,58
68,-63,-131,-2,100,-97,-165,-258,-204,4,126,131
131,-34,-165,-48,148,-100,-375,-580,-585,-161,131,204
209,43,-165,-126,187,-61,-600,-897,-907,-268,195,341
287,146,-141,-217,214,2,-766,-1132,-1127,-322,326,536
385,297,-87,-341,236,104,-936,-1332,-1278,-283,536,810
502,488,-14,-495,258,236,-1122,-1503,-1366,-180,819,1137
668,644,-24,-656,346,309,-1288,-1615,-1444,-43,1088,1459
868,683,-185,-775,527,248,-1385,-1654,-1493,29,1307,1732
1044,683,-361,-863,702,161,-1459,-1654,-1522,-73,1239,1737
1107,658,-448,-883,778,104,-1473,-1571,-1537,-248,971,1507
1039,585,-453,-812,746,65,-1410,-1483,-1522,-483,527,1058
854,400,-453,-627,653,-26,-1205,-1312,-1449,-775,-97,375
663,268,-395,-466,529,-63,-980,-1146,-1337,-961,-507,-97
502,180,-322,-341,412,-70,-795,-951,-1151,-941,-595,-273
395,126,-268,-261,331,-70,-644,-805,-990,-849,-610,-346
297,53,-244,-175,270,-95,-492,-639,-785,-722,-570,-366
185,34,-151,-109,168,-58,-341,-453,-561,-556,-448,-317
102,34,-68,-68,85,-17,-209,-283,-375,-380,-307,-219
53,29,-24,-41,39,2,-122,-175,-239,-248,-200,-156
19,0,-19,-9,19,-9,-68,-97,-141,-180,-170,-122
-14,-34,-19,24,2,-26,0,-19,-53,-122,-131,-107
-48,-68,-19,58,-14,-43,63,58,14,-63,-97,-97
-63,-87,-24,75,-19,-56,102,107,53,-19,-68,-97
-63,-92,-29,78,-17,-61,112,112,63,-14,-68,-102
-68,-92,-24,80,-21,-58,117,117,82,-9,-68,-102
-78,-92,-14,85,-31,-53,131,146,112,4,-58,-97
-78,-97,-19,87,-29,-58,136,146,117,14,-48,-92
-73,-97,-24,85,-24,-61,141,146,117,19,-43,-92
-73,-102,-29,87,-21,-65,141,151,126,29,-39,-87
-73,-107,-34,90,-19,-70,151,161,141,34,-34,-82
-78,-107,-29,92,-24,-68,156,175,151,43,-34,-78
-78,-107,-29,92,-24,-68,156,185,161,53,-29,-73
-78,-92,-14,85,-31,-53,156,190,170,58,-24,-78
-78,-82,-4,80,-36,-43,161,200,185,68,-19,-78
-78,-78,0,78,-39,-39,165,209,195,73,-19,-78
-78,-78,0,78,-39,-39,170,214,204,82,-14,-73
-78,-68,9,73,-43,-29,170,214,209,92,-4,-63
-78,-58,19,68,-48,-19,180,224,224,102,-4,-58
-78,-58,19,68,-48,-19,180,224,234,112,0,-58
-78,-63,14,70,-46,-24,185,239,244,122,9,-58
-73,-63,9,68,-41,-26,190,248,258,126,14,-53
-73,-63,9,68,-41,-26,190,253,278,136,19,-53
-73,-63,9,68,-41,-26,195,268,292,151,34,-48
-73,-63,9,68,-41,-26,200,283,302,170,39,-48
-73,-53,19,63,-46,-17,200,292,317,180,43,-43
-68,-53,14,61,-41,-19,204,307,346,195,53,-43
-73,-53,19,63,-46,-17,209,322,361,209,58,-34
-78,-48,29,63,-53,-9,219,336,385,229,73,-29
-78,-43,34,61,-56,-4,229,351,405,248,87,-24
-73,-43,29,58,-51,-7,239,375,424,268,102,-19
-68,-24,43,46,-56,9,239,390,448,283,112,-14
-63,-14,48,39,-56,17,248,405,473,302,122,-4
-63,-9,53,36,-58,21,253,424,502,326,131,0
-58,-4,53,31,-56,24,263,448,531,346,146,0
-58,0,58,29,-58,29,273,473,561,366,161,9
-58,9,68,24,-63,39,278,497,590,390,175,14
-53,9,63,21,-58,36,292,527,619,424,185,19
-53,14,68,19,-61,41,302,541,653,448,200,29
-53,19,73,17,-63,46,312,570,683,478,209,39
-48,34,82,7,-65,58,322,590,712,497,219,43
-48,43,92,2,-70,68,331,624,741,522,229,43
-43,43,87,0,-65,65,341,653,771,541,244,43
-43,48,92,-2,-68,70,356,673,800,566,253,48
-43,53,97,-4,-70,75,370,702,829,590,258,48
-43,68,112,-12,-78,90,375,722,844,600,258,48
-43,68,112,-12,-78,90,385,741,868,610,263,39
-39,73,112,-17,-75,92,385,746,893,619,263,34
-39,68,107,-14,-73,87,390,756,897,629,263,29
-34,63,97,-14,-65,80,390,761,897,629,258,24
-34,58,92,-12,-63,75,390,761,893,629,248,14
-39,63,102,-12,-70,82,380,746,873,610,234,9
-48,63,112,-7,-80,87,370,722,849,580,219,0
-48,63,112,-7,-80,87,361,688,805,556,200,-9
-43,58,102,-7,-73,80,336,649,756,522,185,-14
-34,58,92,-12,-63,75,312,605,697,478,161,-24
-29,48,78,-9,-53,63,283,556,639,429,131,-34
-29,39,68,-4,-48,53,253,488,566,380,112,-39
-24,34,58,-4,-41,46,224,429,497,326,97,-43
-19,34,53,-7,-36,43,195,370,424,278,82,-53
-14,34,48,-9,-31,41,165,317,361,229,53,-53
-14,24,39,-4,-26,31,136,258,297,190,48,-43
-14,14,29,0,-21,21,112,214,244,156,39,-39
-19,9,29,4,-24,19,87,170,195,122,29,-29
-24,0,24,12,-24,12,73,136,151,87,14,-29
-24,0,24,12,-24,12,58,97,107,53,4,-24
-24,-4,19,14,-21,7,39,68,73,24,-4,-19
-24,-14,9,19,-17,-2,34,39,43,4,-9,-19
-19,-14,4,17,-12,-4,24,14,19,-14,-19,-19
-19,-24,-4,21,-7,-14,19,4,-4,-29,-29,-14
-19,-24,-4,21,-7,-14,14,-9,-24,-43,-34,-14
-19,-29,-9,24,-4,-19,9,-19,-29,-53,-43,-24
-29,-34,-4,31,-12,-19,9,-24,-39,-63,-43,-34
-29,-34,-4,31,-12,-19,4,-29,-53,-73,-48,-34
-29,-34,-4,31,-12,-19,4,-39,-63,-78,-58,-39
-29,-39,-9,34,-9,-24,4,-43,-68,-87,-58,-39
-34,-48,-14,41,-9,-31,4,-43,-73,-87,-63,-34
-34,-58,-24,46,-4,-41,4,-43,-73,-87,-73,-43
-34,-63,-29,48,-2,-46,4,-48,-73,-92,-78,-43
-39,-63,-24,51,-7,-43,0,-53,-78,-97,-78,-43
-39,-63,-24,51,-7,-43,-4,-53,-78,-102,-82,-43
-39,-58,-19,48,-9,-39,-4,-53,-78,-102,-82,-48
-39,-58,-19,48,-9,-39,-9,-53,-82,-107,-82,-48
-39,-58,-19,48,-9,-39,-4,-53,-82,-102,-78,-48
-39,-58,-19,48,-9,-39,4,-53,-78,-97,-73,-48
-39,-53,-14,46,-12,-34,4,-48,-78,-97,-73,-43
-39,-48,-9,43,-14,-29,4,-48,-78,-97,-73,-43
-39,-48,-9,43,-14,-29,4,-48,-78,-92,-73,-53
-39,-48,-9,43,-14,-29,4,-48,-73,-92,-73,-53
-39,-48,-9,43,-14,-29,0,-48,-68,-92,-73,-53
-34,-48,-14,41,-9,-31,0,-48,-63,-87,-68,-58
-34,-48,-14,41,-9,-31,0,-43,-63,-82,-68,-53
-39,-48,-9,43,-14,-29,0,-39,-63,-82,-63,-53
-39,-48,-9,43,-14,-29,9,-39,-58,-78,-63,-53
-43,-48,-4,46,-19,-26,14,-34,-53,-73,-63,-53
-43,-48,-4,46,-19,-26,14,-29,-53,-73,-58,-48
-43,-48,-4,46,-19,-26,14,-29,-48,-73,-58,-48
-43,-48,-4,46,-19,-26,9,-29,-48,-68,-53,-48
-43,-48,-4,46,-19,-26,9,-29,-43,-68,-53,-48
-43,-43,0,43,-21,-21,9,-24,-39,-63,-53,-48
-48,-43,4,46,-26,-19,14,-24,-39,-63,-53,-43
-53,-48,4,51,-29,-21,14,-29,-39,-58,-53,-39
-53,-48,4,51,-29,-21,14,-29,-39,-58,-53,-39
-53,-48,4,51,-29,-21,14,-29,-39,-58,-48,-43
-53,-48,4,51,-29,-21,14,-29,-39,-58,-48,-43
-48,-53,-4,51,-21,-29,14,-24,-39,-58,-48,-43
-48,-53,-4,51,-21,-29,19,-19,-39,-58,-48,-43
-48,-53,-4,51,-21,-29,19,-19,-39,-58,-48,-43
-53,-58,-4,56,-24,-31,14,-24,-39,-58,-48,-39
-53,-58,-4,56,-24,-31,14,-24,-39,-58,-58,-39
-53,-58,-4,56,-24,-31,14,-24,-43,-63,-63,-39
-58,-53,4,56,-31,-24,14,-24,-48,-63,-63,-43
-58,-48,9,53,-34,-19,19,-29,-53,-63,-63,-48
-53,-48,4,51,-29,-21,19,-29,-58,-68,-63,-53
-53,-53,0,53,-26,-26,14,-29,-58,-73,-63,-53
-53,-53,0,53,-26,-26,14,-29,-63,-78,-63,-53
-53,-53,0,53,-26,-26,14,-34,-68,-78,-68,-58
-58,-58,0,58,-29,-29,14,-34,-68,-82,-73,-58
-58,-63,-4,61,-26,-34,14,-39,-68,-82,-78,-58
-63,-68,-4,65,-29,-36,14,-39,-68,-82,-82,-58
-63,-73,-9,68,-26,-41,14,-39,-68,-87,-82,-58
-58,-78,-19,68,-19,-48,14,-43,-73,-92,-82,-58
-58,-78,-19,68,-19,-48,14,-48,-78,-97,-87,-53
-58,-73,-14,65,-21,-43,9,-48,-82,-97,-87,-58
-58,-68,-9,63,-24,-39,9,-53,-82,-102,-97,-58
-58,-68,-9,63,-24,-39,9,-58,-82,-102,-97,-63
-58,-73,-14,65,-21,-43,9,-58,-87,-107,-97,-68
-58,-73,-14,65,-21,-43,9,-58,-87,-112,-97,-73
-63,-73,-9,68,-26,-41,9,-58,-92,-117,-97,-78
-63,-78,-14,70,-24,-46,9,-58,-92,-117,-97,-78
-63,-78,-14,70,-24,-46,9,-63,-92,-117,-97,-82
-63,-73,-9,68,-26,-41,9,-63,-92,-117,-97,-78
-63,-73,-9,68,-26,-41,9,-63,-92,-112,-92,-73
-63,-73,-9,68,-26,-41,9,-63,-92,-112,-97,-73
-63,-73,-9,68,-26,-41,9,-63,-97,-112,-97,-78
-63,-68,-4,65,-29,-36,9,-58,-97,-112,-97,-78
-68,-68,0,68,-34,-34,9,-58,-97,-117,-97,-78
-68,-68,0,68,-34,-34,9,-58,-97,-117,-97,-78
-68,-68,0,68,-34,-34,9,-58,-97,-117,-97,-78
-68,-68,0,68,-34,-34,9,-58,-97,-117,-97,-73
-63,-63,0,63,-31,-31,9,-58,-92,-112,-92,-68
-63,-58,4,61,-34,-26,14,-58,-92,-107,-87,-68
-63,-48,14,56,-39,-17,14,-53,-82,-102,-78,-63
-58,-29,29,43,-43,0,9,-48,-68,-92,-68,-48
-58,-14,43,36,-51,14,9,-48,-58,-87,-63,-43
-53,-9,43,31,-48,17,4,-48,-58,-82,-63,-43
-53,-4,48,29,-51,21,4,-48,-53,-78,-63,-39
-53,4,58,24,-56,31,9,-39,-43,-68,-58,-43
-48,14,63,17,-56,39,9,-34,-39,-68,-48,-39
-43,14,58,14,-51,36,19,-24,-29,-63,-43,-29
-39,14,53,12,-46,34,9,-24,-29,-68,-43,-29
-34,4,39,14,-36,21,-9,-34,-29,-68,-43,-29
-29,-14,14,21,-21,0,-43,-63,-53,-78,-58,-34
-29,-19,9,24,-19,-4,-63,-82,-82,-92,-63,-43
-29,-39,-9,34,-9,-24,-68,-102,-102,-107,-82,-58
-29,-43,-14,36,-7,-29,-73,-112,-122,-126,-102,-73
-24,-43,-19,34,-2,-31,-87,-122,-131,-126,-102,-73
-19,-29,-9,24,-4,-19,-97,-126,-131,-126,-102,-68
-9,-9,0,9,-4,-4,-107,-136,-131,-126,-92,-63
4,-9,-14,2,9,-12,-107,-136,-141,-136,-92,-58
19,-9,-29,-4,24,-19,-92,-122,-141,-136,-92,-58
34,-4,-39,-14,36,-21,-87,-122,-146,-131,-97,-58
48,4,-43,-26,46,-19,-87,-122,-146,-131,-97,-53
48,4,-43,-26,46,-19,-87,-122,-146,-136,-97,-53
39,14,-24,-26,31,-4,-87,-117,-146,-136,-92,-43
34,9,-24,-21,29,-7,-78,-112,-136,-122,-82,-34
24,4,-19,-14,21,-7,-58,-102,-126,-112,-73,-39
-4,-14,-9,9,2,-12,-34,-87,-122,-112,-87,-48
-34,-34,0,34,-17,-17,-14,-73,-117,-117,-87,-58
-58,-63,-4,61,-26,-34,4,-73,-117,-122,-97,-68
-78,-78,0,78,-39,-39,14,-68,-117,-131,-107,-82
-92,-97,-4,95,-43,-51,24,-63,-117,-131,-107,-87
-97,-107,-9,102,-43,-58,34,-58,-117,-136,-122,-92
-97,-117,-19,107,-39,-68,43,-53,-117,-141,-126,-102
-97,-126,-29,112,-34,-78,43,-53,-117,-141,-126,-107
-102,-126,-24,114,-39,-75,43,-53,-117,-151,-131,-112
-102,-126,-24,114,-39,-75,39,-53,-112,-151,-131,-112
-102,-122,-19,112,-41,-70,39,-53,-112,-146,-136,-112
-97,-117,-19,107,-39,-68,34,-48,-112,-141,-136,-112
-82,-117,-34,100,-24,-75,34,-53,-102,-122,-122,-97
-73,-112,-39,92,-17,-75,24,-48,-82,-92,-97,-78
-53,-117,-63,85,4,-90,14,-39,-53,-53,-58,-58
-29,-117,-87,73,29,-102,-4,-19,14,29,4,-19
19,-97,-117,39,68,-107,-58,-82,-9,68,73,58
73,-63,-136,-4,104,-100,-175,-287,-200,0,97,126
141,-34,-175,-53,158,-104,-366,-590,-536,-141,102,195
219,29,-190,-124,204,-80,-590,-912,-888,-283,136,302
307,136,-170,-222,239,-17,-766,-1161,-1112,-356,253,488
405,307,-97,-356,251,104,-951,-1381,-1273,-331,444,741
512,473,-39,-492,275,217,-1141,-1556,-1385,-258,683,1019
688,614,-73,-651,380,270,-1307,-1668,-1459,-112,966,1366
883,658,-224,-771,553,217,-1405,-1727,-1512,-58,1161,1610
1068,653,-414,-861,741,119,-1488,-1732,-1571,-175,1078,1586
1122,619,-502,-871,812,58,-1493,-1659,-1605,-346,810,1351
1049,536,-512,-793,780,12,-1420,-1546,-1581,-590,346,878
893,366,-527,-629,710,-80,-1244,-1356,-1493,-844,-204,268
673,239,-434,-456,553,-97,-1000,-1185,-1366,-1010,-580,-170
492,151,-341,-322,417,-95,-795,-980,-1171,-990,-663,-346
390,107,-283,-248,336,-87,-653,-824,-1010,-878,-649,-395
297,34,-263,-165,280,-114,-507,-653,-814,-736,-595,-390
185,14,-170,-100,178,-78,-346,-463,-561,-546,-458,-317
97,14,-82,-56,90,-34,-214,-297,-366,-380,-326,-229
48,14,-34,-31,41,-9,-136,-195,-248,-253,-214,-165
9,-9,-19,0,14,-14,-78,-107,-151,-170,-175,-126
-24,-39,-14,31,-4,-26,-4,-29,-53,-112,-141,-117
-53,-68,-14,61,-19,-41,63,39,14,-63,-107,-107
-63,-87,-24,75,-19,-56,102,82,43,-24,-73,-97
-63,-92,-29,78,-17,-61,107,92,53,-14,-68,-92
-68,-92,-24,80,-21,-58,107,97,73,-9,-68,-92
-78,-92,-14,85,-31,-53,122,126,102,4,-58,-87
-78,-97,-19,87,-29,-58,126,131,107,14,-48,-82
-73,-97,-24,85,-24,-61,131,136,107,19,-48,-82
-73,-97,-24,85,-24,-61,131,141,117,29,-48,-78
-73,-97,-24,85,-24,-61,146,151,131,34,-43,-73
-78,-97,-19,87,-29,-58,156,165,141,43,-39,-68
-78,-97,-19,87,-29,-58,156,175,151,53,-29,-63
-78,-92,-14,85,-31,-53,156,180,161,63,-24,-63
-78,-92,-14,85,-31,-53,161,190,175,78,-19,-58
-78,-87,-9,82,-34,-48,165,200,185,82,-14,-58
-78,-82,-4,80,-36,-43,170,209,195,92,-4,-53
-78,-78,0,78,-39,-39,170,219,204,102,4,-48
-78,-78,0,78,-39,-39,180,234,224,112,4,-48
-78,-68,9,73,-43,-29,180,234,234,122,9,-48
-78,-63,14,70,-46,-24,185,248,244,131,19,-48
-73,-63,9,68,-41,-26,190,258,258,141,24,-39
-73,-63,9,68,-41,-26,190,263,278,156,29,-34
-73,-63,9,68,-41,-26,195,278,292,170,43,-29
-78,-68,9,73,-43,-29,204,292,302,190,48,-29
-82,-63,19,73,-51,-21,209,302,317,200,58,-24
-78,-63,14,70,-46,-24,214,317,346,209,68,-24
-78,-58,19,68,-48,-19,219,331,361,219,68,-14
-78,-48,29,63,-53,-9,224,346,385,239,82,-9
-78,-43,34,61,-56,-4,229,361,405,258,92,-4
-68,-43,24,56,-46,-9,239,390,424,283,107,0
-63,-29,34,46,-48,2,239,409,448,302,122,4
-63,-24,39,43,-51,7,253,424,473,322,131,14
-63,-19,43,41,-53,12,263,444,497,346,141,19
-58,-14,43,36,-51,14,273,468,522,366,156,24
-58,-9,48,34,-53,19,283,492,551,385,170,39
-58,0,58,29,-58,29,287,517,585,409,185,43
-53,0,53,26,-53,26,302,546,619,444,195,48
-53,9,63,21,-58,36,312,561,653,463,209,53
-53,19,73,17,-63,46,322,590,683,483,219,53
-48,34,82,7,-65,58,331,605,707,497,229,53
-48,43,92,2,-70,68,341,634,732,522,239,53
-43,43,87,0,-65,65,351,663,761,541,253,53
-43,48,92,-2,-68,70,366,683,790,566,263,58
-43,53,97,-4,-70,75,380,712,819,585,263,58
-43,68,112,-12,-78,90,385,732,834,595,258,58
-43,68,112,-12,-78,90,395,751,854,610,263,48
-39,78,117,-19,-78,97,395,761,873,619,263,43
-39,78,117,-19,-78,97,400,775,878,629,263,43
-34,78,112,-21,-73,95,400,780,883,629,263,43
-34,73,107,-19,-70,90,400,780,883,629,258,34
-34,73,107,-19,-70,90,390,766,863,614,244,29
-39,73,112,-17,-75,92,375,741,839,585,229,14
-39,73,112,-17,-75,92,361,707,800,556,209,0
-34,73,107,-19,-70,90,336,663,751,517,190,-4
-29,78,107,-24,-68,92,312,614,692,468,161,-14
-29,68,97,-19,-63,82,283,566,639,419,131,-24
-29,58,87,-14,-58,73,253,497,566,370,112,-29
-24,53,78,-14,-51,65,224,439,497,322,97,-29
-24,53,78,-14,-51,65,195,380,424,278,78,-34
-24,53,78,-14,-51,65,165,326,361,229,48,-34
-24,43,68,-9,-46,56,136,263,292,180,39,-29
-19,29,48,-4,-34,39,112,214,239,141,24,-29
-14,19,34,-2,-24,26,87,165,190,112,19,-19
-14,9,24,2,-19,17,73,131,141,82,4,-19
-14,9,24,2,-19,17,58,97,97,53,-4,-14
-14,4,19,4,-17,12,39,68,63,24,-14,-9
-19,-4,14,12,-17,4,34,39,34,4,-19,-9
-19,-4,14,12,-17,4,24,14,14,-14,-24,-14
-19,-19,0,19,-9,-9,19,4,-4,-34,-29,-14
-19,-24,-4,21,-7,-14,14,-4,-24,-48,-34,-14
-19,-29,-9,24,-4,-19,9,-14,-29,-53,-43,-19
-29,-39,-9,34,-9,-24,9,-24,-39,-63,-43,-24
-29,-43,-14,36,-7,-29,4,-29,-53,-73,-48,-24
-29,-43,-14,36,-7,-29,4,-39,-58,-78,-58,-24
-29,-48,-19,39,-4,-34,4,-39,-58,-87,-58,-24
-39,-58,-19,48,-9,-39,4,-34,-63,-87,-63,-24
-43,-63,-19,53,-12,-41,4,-34,-63,-87,-68,-34
-43,-63,-19,53,-12,-41,4,-39,-63,-92,-68,-34
-48,-63,-14,56,-17,-39,4,-43,-68,-92,-68,-34
-43,-68,-24,56,-9,-46,9,-43,-68,-92,-73,-29
-39,-68,-29,53,-4,-48,14,-43,-68,-92,-73,-29
-39,-68,-29,53,-4,-48,9,-43,-73,-97,-73,-29
-39,-68,-29,53,-4,-48,9,-43,-73,-97,-73,-29
-39,-68,-29,53,-4,-48,14,-43,-68,-97,-73,-29
-39,-68,-29,53,-4,-48,14,-39,-68,-97,-73,-24
-39,-68,-29,53,-4,-48,14,-39,-68,-92,-73,-24
-39,-68,-29,53,-4,-48,14,-39,-68,-82,-73,-34
-39,-68,-29,53,-4,-48,14,-34,-63,-82,-73,-34
-39,-68,-29,53,-4,-48,14,-29,-58,-82,-73,-29
-39,-68,-29,53,-4,-48,19,-29,-53,-78,-68,-29
-43,-68,-24,56,-9,-46,19,-24,-53,-73,-68,-24
-48,-68,-19,58,-14,-43,19,-19,-53,-78,-63,-24
-48,-68,-19,58,-14,-43,24,-19,-48,-78,-63,-24
-53,-73,-19,63,-17,-46,24,-14,-43,-73,-63,-24
-53,-78,-24,65,-14,-51,24,-9,-43,-73,-58,-19
-53,-78,-24,65,-14,-51,24,-9,-29,-63,-58,-19
-53,-78,-24,65,-14,-51,24,-9,-19,-48,-53,-19
-48,-73,-24,61,-12,-48,29,-14,-24,-58,-53,-19
-43,-63,-19,53,-12,-41,29,-14,-29,-63,-53,-24
-48,-63,-14,56,-17,-39,34,-14,-29,-63,-53,-24
-48,-68,-19,58,-14,-43,34,-14,-29,-58,-53,-19
-48,-68,-19,58,-14,-43,34,-4,-24,-58,-53,-14
-53,-68,-14,61,-19,-41,34,0,-19,-58,-48,-14
-53,-68,-14,61,-19,-41,34,0,-19,-58,-48,-14
-53,-73,-19,63,-17,-46,34,0,-19,-58,-48,-14
-58,-73,-14,65,-21,-43,39,0,-24,-58,-48,-19
-58,-73,-14,65,-21,-43,39,0,-29,-58,-48,-24
-63,-78,-14,70,-24,-46,39,-4,-29,-58,-48,-19
-63,-78,-14,70,-24,-46,43,-4,-29,-58,-53,-19
-63,-78,-14,70,-24,-46,43,-4,-34,-63,-53,-19
-68,-78,-9,73,-29,-43,43,-4,-34,-63,-53,-19
-68,-78,-9,73,-29,-43,43,-14,-34,-68,-58,-19
-63,-78,-14,70,-24,-46,39,-19,-39,-78,-68,-24
-63,-82,-19,73,-21,-51,34,-19,-39,-82,-73,-24
-63,-82,-19,73,-21,-51,34,-19,-43,-87,-73,-29
-63,-82,-19,73,-21,-51,34,-24,-48,-87,-78,-34
-68,-82,-14,75,-26,-48,34,-24,-48,-92,-78,-29
-68,-82,-14,75,-26,-48,34,-29,-53,-92,-78,-29
-73,-82,-9,78,-31,-46,34,-29,-58,-92,-82,-29
-73,-78,-4,75,-34,-41,34,-29,-58,-97,-82,-29
-68,-78,-9,73,-29,-43,34,-29,-63,-102,-82,-34
-68,-78,-9,73,-29,-43,34,-29,-68,-102,-87,-34
-68,-78,-9,73,-29,-43,29,-29,-73,-97,-87,-39
-68,-78,-9,73,-29,-43,29,-34,-73,-102,-97,-43
-68,-78,-9,73,-29,-43,29,-39,-73,-102,-97,-48
-68,-82,-14,75,-26,-48,29,-39,-73,-107,-97,-48
-68,-82,-14,75,-26,-48,29,-39,-68,-107,-97,-48
-73,-82,-9,78,-31,-46,29,-39,-73,-107,-97,-48
-73,-87,-14,80,-29,-51,29,-39,-73,-107,-97,-53
-73,-87,-14,80,-29,-51,29,-39,-73,-112,-97,-48
-78,-87,-9,82,-34,-48,29,-39,-78,-117,-97,-48
-78,-87,-9,82,-34,-48,29,-39,-78,-112,-97,-43
-78,-87,-9,82,-34,-48,29,-39,-78,-107,-97,-39
-78,-87,-9,82,-34,-48,29,-39,-78,-107,-97,-39
-78,-87,-9,82,-34,-48,29,-39,-78,-107,-97,-39
-78,-82,-4,80,-36,-43,29,-39,-78,-107,-97,-39
-73,-73,0,73,-36,-36,29,-34,-68,-102,-92,-34
-73,-68,4,70,-39,-31,34,-34,-63,-102,-87,-34
-68,-48,19,58,-43,-14,29,-29,-48,-92,-78,-19
-68,-29,39,48,-53,4,29,-29,-39,-87,-78,-14
-63,-19,43,41,-53,12,24,-29,-39,-82,-78,-14
-63,-14,48,39,-56,17,24,-29,-34,-78,-73,-9
-63,-9,53,36,-58,21,29,-19,-24,-68,-68,-9
-58,-9,48,34,-53,19,29,-14,-19,-63,-48,0
-53,-14,39,34,-46,12,39,-4,-9,-48,-34,9
-48,-14,34,31,-41,9,29,-4,-9,-48,-34,9
-43,-19,24,31,-34,2,9,-14,-9,-48,-34,9
-39,-34,4,36,-21,-14,-24,-43,-29,-58,-48,9
-39,-39,0,39,-19,-19,-43,-63,-53,-78,-53,4
-39,-58,-19,48,-9,-39,-48,-82,-73,-97,-73,-9
-39,-63,-24,51,-7,-43,-53,-92,-92,-117,-92,-24
-34,-63,-29,48,-2,-46,-68,-102,-107,-122,-97,-29
-29,-48,-19,39,-4,-34,-78,-107,-112,-126,-102,-29
-19,-24,-4,21,-7,-14,-87,-117,-112,-126,-92,-24
-4,-19,-14,12,4,-17,-87,-117,-122,-136,-92,-19
9,-19,-29,4,19,-24,-73,-102,-122,-136,-92,-19
14,-19,-34,2,24,-26,-68,-102,-126,-131,-97,-24
24,-14,-39,-4,31,-26,-73,-107,-131,-131,-97,-24
39,-14,-53,-12,46,-34,-78,-117,-136,-136,-97,-24
39,-4,-43,-17,41,-24,-78,-117,-136,-136,-92,-14
39,-4,-43,-17,41,-24,-73,-112,-126,-122,-82,0
34,-4,-39,-14,36,-21,-58,-102,-112,-112,-73,4
4,-24,-29,9,17,-26,-34,-87,-102,-112,-87,0
-24,-43,-19,34,-2,-31,-14,-73,-97,-117,-87,-9
-48,-68,-19,58,-14,-43,4,-73,-97,-122,-97,-19
-68,-78,-9,73,-29,-43,14,-68,-97,-131,-107,-34
-82,-97,-14,90,-34,-56,24,-63,-97,-131,-107,-39
-97,-107,-9,102,-43,-58,34,-58,-97,-136,-122,-43
-107,-117,-9,112,-48,-63,43,-53,-97,-141,-126,-53
-107,-126,-19,117,-43,-73,43,-53,-97,-141,-131,-63
-112,-126,-14,119,-48,-70,48,-53,-102,-151,-141,-73
-112,-126,-14,119,-48,-70,48,-53,-102,-151,-141,-73
-117,-126,-9,122,-53,-68,48,-53,-102,-151,-146,-73
-117,-122,-4,119,-56,-63,48,-48,-102,-156,-146,-73
-102,-117,-14,109,-43,-65,53,-48,-92,-141,-131,-58
-92,-112,-19,102,-36,-65,43,-39,-82,-112,-112,-43
-78,-112,-34,95,-21,-73,39,-29,-58,-73,-78,-29
-58,-112,-53,85,-2,-82,34,14,43,14,-14,4
-9,-97,-87,53,39,-92,0,0,82,82,63,78
43,-78,-122,17,82,-100,-97,-165,-43,39,78,126
112,-63,-175,-24,143,-119,-287,-473,-351,-102,63,175
185,-9,-195,-87,190,-102,-522,-834,-727,-263,58,248
258,68,-190,-163,224,-61,-697,-1112,-1000,-370,122,380
346,219,-126,-283,236,46,-893,-1371,-1195,-390,268,590
453,409,-43,-431,248,183,-1102,-1600,-1327,-346,488,854
629,590,-39,-610,334,275,-1293,-1747,-1424,-175,800,1210
839,653,-185,-746,512,234,-1415,-1820,-1493,-68,1063,1517
1083,653,-429,-868,756,112,-1527,-1844,-1561,-151,1063,1600
1215,629,-585,-922,900,21,-1581,-1786,-1615,-307,863,1449
1185,556,-629,-871,907,-36,-1537,-1673,-1615,-541,463,1044
1039,370,-668,-705,854,-148,-1351,-1478,-1556,-834,-117,405
795,214,-580,-505,688,-183,-1093,-1293,-1444,-1049,-575,-102
580,102,-478,-341,529,-187,-873,-1078,-1259,-1058,-712,-312
458,48,-409,-253,434,-180,-717,-917,-1107,-966,-727,-385
346,-24,-370,-161,358,-197,-561,-736,-912,-839,-688,-405
224,-34,-258,-95,241,-146,-395,-531,-649,-653,-556,-346
131,-24,-156,-53,143,-90,-248,-341,-424,-458,-405,-239
73,-14,-87,-29,80,-51,-146,-219,-283,-302,-268,-156
29,-29,-58,0,43,-43,-78,-126,-180,-209,-209,-102
-4,-58,-53,31,24,-56,-4,-43,-82,-151,-165,-78
-39,-87,-48,63,4,-68,63,39,-4,-92,-126,-58
-63,-107,-43,85,-9,-75,102,92,39,-39,-92,-48
-73,-112,-39,92,-17,-75,112,102,53,-24,-87,-43
-78,-112,-34,95,-21,-73,122,107,73,-19,-87,-43
-87,-112,-24,100,-31,-68,141,136,102,-4,-78,-39
-87,-117,-29,102,-29,-73,146,146,107,4,-63,-34
-82,-117,-34,100,-24,-75,151,156,107,9,-53,-34
-82,-112,-29,97,-26,-70,151,161,117,19,-48,-29
-82,-107,-24,95,-29,-65,161,170,131,24,-43,-24
-87,-107,-19,97,-34,-63,165,185,141,34,-39,-19
-87,-107,-19,97,-34,-63,165,195,151,43,-29,-14
-82,-102,-19,92,-31,-61,165,200,161,53,-24,-14
-78,-102,-24,90,-26,-63,170,209,175,68,-19,-9
-73,-97,-24,85,-24,-61,170,219,180,73,-14,-9
-68,-97,-29,82,-19,-63,170,224,185,82,-4,-4
-68,-97,-29,82,-19,-63,170,229,195,92,4,9
-68,-97,-29,82,-19,-63,180,244,214,102,4,19
-73,-87,-14,80,-29,-51,180,244,224,112,9,19
-78,-82,-4,80,-36,-43,185,258,234,122,19,19
-73,-82,-9,78,-31,-46,190,268,248,131,24,29
-73,-82,-9,78,-31,-46,190,273,268,146,29,34
-73,-82,-9,78,-31,-46,195,283,283,165,43,39
-73,-82,-9,78,-31,-46,200,292,292,190,48,39
-68,-73,-4,70,-31,-39,200,302,307,200,58,43
-58,-73,-14,65,-21,-43,204,317,336,214,73,43
-58,-68,-9,63,-24,-39,209,331,351,229,78,53
-58,-58,0,58,-29,-29,219,346,375,248,92,58
-58,-53,4,56,-31,-24,229,361,395,268,102,63
-53,-53,0,53,-26,-26,239,385,414,287,112,68
-53,-34,19,43,-36,-7,234,400,439,302,126,73
-53,-24,29,39,-41,2,239,414,463,322,141,82
-53,-19,34,36,-43,7,244,434,488,346,156,97
-48,-14,34,31,-41,9,253,458,512,366,175,107
-48,-14,34,31,-41,9,263,483,536,385,190,117
-48,-9,39,29,-43,14,268,507,561,409,204,122
-43,-9,34,26,-39,12,283,536,590,444,214,126
-43,-4,39,24,-41,17,292,551,624,468,229,136
-43,0,43,21,-43,21,302,580,653,492,239,141
-39,14,53,12,-46,34,312,600,683,507,248,141
-34,24,58,4,-46,41,322,634,712,531,258,141
-24,24,48,0,-36,36,331,663,741,551,273,141
-24,29,53,-2,-39,41,341,683,766,575,287,146
-24,34,58,-4,-41,46,351,712,790,600,297,146
-19,48,68,-14,-43,58,356,732,805,614,297,151
-14,48,63,-17,-39,56,366,751,829,629,302,146
-9,58,68,-24,-39,63,366,766,854,639,302,141
-9,58,68,-24,-39,63,370,785,858,649,302,136
-4,58,63,-26,-34,61,370,790,868,649,302,131
-4,58,63,-26,-34,61,370,790,873,649,297,122
4,63,58,-34,-26,61,366,780,858,644,283,117
9,63,53,-36,-21,58,361,761,839,629,268,107
0,63,63,-31,-31,63,351,727,805,605,248,92
-4,58,63,-26,-34,61,326,688,766,570,234,82
0,58,58,-29,-29,58,302,644,712,527,209,68
0,48,48,-24,-24,48,273,595,658,478,180,53
-4,39,43,-17,-24,41,244,527,585,429,151,43
-4,34,39,-14,-21,36,214,468,517,375,126,34
-9,34,43,-12,-26,39,190,405,444,317,107,24
-14,34,48,-9,-31,41,165,346,380,258,73,24
-14,24,39,-4,-26,31,136,283,312,209,58,24
-14,14,29,0,-21,21,112,234,253,165,39,19
-14,9,24,2,-19,17,87,180,200,131,24,24
-14,0,14,7,-14,7,73,136,151,97,4,19
-14,0,14,7,-14,7,58,97,107,63,-4,24
-14,-4,9,9,-12,2,39,68,73,34,-14,29
-24,-9,14,17,-19,2,34,39,43,14,-19,29
-29,-4,24,17,-26,9,24,14,19,-4,-29,29
-34,-19,14,26,-24,-2,19,4,-4,-24,-39,34
-39,-24,14,31,-26,-4,14,-9,-24,-43,-43,34
-39,-34,4,36,-21,-14,9,-24,-29,-53,-53,24
-48,-43,4,46,-26,-19,9,-34,-39,-63,-53,14
-48,-43,4,46,-26,-19,0,-39,-53,-73,-58,14
-48,-43,4,46,-26,-19,-4,-48,-63,-78,-68,9
-43,-48,-4,46,-19,-26,-4,-53,-73,-92,-73,4
-43,-58,-14,51,-14,-36,-4,-53,-82,-97,-82,4
-43,-63,-19,53,-12,-41,-4,-53,-82,-97,-87,-4
-43,-63,-19,53,-12,-41,-4,-58,-82,-102,-87,-4
-48,-63,-14,56,-17,-39,0,-63,-87,-97,-87,-4
-48,-63,-14,56,-17,-39,4,-63,-87,-92,-92,-4
-53,-58,-4,56,-24,-31,4,-63,-87,-92,-92,-9
-58,-58,0,58,-29,-29,0,-63,-92,-97,-92,-9
-58,-58,0,58,-29,-29,0,-63,-92,-102,-92,-9
-58,-58,0,58,-29,-29,4,-63,-87,-107,-92,-9
-58,-58,0,58,-29,-29,4,-58,-87,-107,-92,-4
-58,-58,0,58,-29,-29,4,-58,-87,-107,-92,-4
-58,-58,0,58,-29,-29,4,-58,-87,-102,-92,-14
-58,-58,0,58,-29,-29,4,-58,-82,-102,-92,-14
-58,-58,0,58,-29,-29,4,-58,-78,-97,-92,-9
-53,-58,-4,56,-24,-31,9,-58,-73,-87,-87,-9
-53,-58,-4,56,-24,-31,9,-53,-73,-82,-87,-4
-58,-58,0,58,-29,-29,9,-48,-73,-82,-82,-4
-58,-58,0,58,-29,-29,14,-53,-68,-78,-82,-4
-63,-58,4,61,-34,-26,14,-53,-63,-73,-82,-4
-63,-58,4,61,-34,-26,14,-48,-58,-73,-78,0
-63,-58,4,61,-34,-26,14,-48,-48,-73,-78,0
-63,-63,0,63,-31,-31,14,-43,-48,-68,-73,0
-63,-68,-4,65,-29,-36,19,-39,-43,-68,-73,0
-63,-63,0,63,-31,-31,19,-34,-39,-68,-73,-4
-68,-63,4,65,-36,-29,24,-34,-39,-73,-73,-4
-68,-63,4,65,-36,-29,24,-39,-39,-68,-73,0
-63,-58,4,61,-34,-26,24,-39,-39,-68,-73,0
-68,-58,9,63,-39,-24,24,-39,-39,-63,-68,-4
-73,-58,14,65,-43,-21,24,-39,-39,-58,-68,-4
-73,-63,9,68,-41,-26,24,-39,-43,-58,-68,-4
-78,-63,14,70,-46,-24,29,-39,-48,-58,-68,-4
-73,-63,9,68,-41,-26,29,-39,-48,-58,-68,-4
-73,-68,4,70,-39,-31,24,-43,-48,-58,-68,0
-73,-68,4,70,-39,-31,24,-43,-48,-58,-73,0
-73,-68,4,70,-39,-31,24,-43,-53,-63,-73,0
-78,-68,9,73,-43,-29,24,-43,-53,-63,-73,0
-78,-68,9,73,-43,-29,29,-48,-53,-63,-73,0
-73,-68,4,70,-39,-31,29,-48,-58,-68,-78,-4
-73,-73,0,73,-36,-36,24,-48,-58,-73,-82,-4
-73,-73,0,73,-36,-36,24,-48,-63,-78,-82,-9
-73,-73,0,73,-36,-36,24,-53,-68,-78,-87,-19
-78,-73,4,75,-41,-34,24,-53,-68,-87,-87,-19
-78,-73,4,75,-41,-34,24,-58,-68,-92,-87,-19
-82,-73,9,78,-46,-31,24,-58,-73,-92,-92,-19
-82,-73,9,78,-46,-31,24,-58,-78,-97,-92,-19
-78,-78,0,78,-39,-39,24,-58,-82,-97,-92,-24
-78,-78,0,78,-39,-39,24,-58,-87,-97,-97,-24
-78,-78,0,78,-39,-39,19,-58,-87,-97,-92,-24
-78,-78,0,78,-39,-39,19,-68,-82,-102,-97,-19
-78,-78,0,78,-39,-39,19,-68,-82,-107,-97,-19
-82,-78,4,80,-43,-36,19,-68,-82,-112,-102,-24
-82,-78,4,80,-43,-36,19,-68,-82,-112,-102,-24
-87,-78,9,82,-48,-34,19,-68,-87,-117,-107,-29
-82,-78,4,80,-43,-36,14,-73,-92,-117,-112,-29
-78,-78,0,78,-39,-39,9,-78,-97,-117,-117,-29
-78,-73,4,75,-41,-34,9,-78,-97,-112,-117,-29
-73,-63,9,68,-41,-26,9,-73,-87,-107,-112,-24
-73,-58,14,65,-43,-21,14,-73,-82,-102,-107,-24
-68,-39,29,53,-48,-4,9,-68,-68,-92,-97,-9
-68,-24,43,46,-56,9,9,-68,-58,-87,-92,-4
-63,-19,43,41,-53,12,4,-68,-58,-82,-87,-4
-68,-14,53,41,-61,19,4,-68,-53,-78,-82,0
-73,-9,63,41,-68,26,9,-58,-43,-68,-78,0
-68,-4,63,36,-65,29,9,-48,-34,-68,-63,9
-63,-4,58,34,-61,26,19,-34,-19,-58,-53,19
-58,4,63,26,-61,34,9,-34,-19,-58,-53,19
-53,9,63,21,-58,36,-9,-43,-19,-58,-53,19
-48,-4,43,26,-46,19,-43,-73,-43,-68,-68,14
-48,-9,39,29,-43,14,-63,-92,-73,-87,-73,4
-53,-34,19,43,-36,-7,-68,-117,-97,-112,-92,-14
-58,-43,14,51,-36,-14,-73,-131,-122,-136,-112,-34
-53,-43,9,48,-31,-17,-87,-141,-131,-136,-117,-34
-48,-29,19,39,-34,-4,-97,-146,-131,-136,-122,-29
-39,-9,29,24,-34,9,-107,-156,-131,-136,-112,-24
-24,-9,14,17,-19,2,-107,-156,-141,-146,-112,-19
0,-9,-9,4,4,-9,-92,-141,-141,-146,-112,-19
14,-9,-24,-2,19,-17,-87,-141,-146,-141,-117,-24
19,-4,-24,-7,21,-14,-87,-141,-146,-141,-117,-24
29,-4,-34,-12,31,-19,-87,-146,-146,-146,-117,-24
29,4,-24,-17,26,-9,-92,-146,-146,-146,-112,-14
29,4,-24,-17,26,-9,-92,-141,-136,-131,-102,0
24,4,-19,-14,21,-7,-78,-131,-126,-122,-92,0
-4,-14,-9,9,2,-12,-53,-117,-122,-122,-107,-9
-34,-34,0,34,-17,-17,-34,-102,-117,-126,-107,-19
-58,-58,0,58,-29,-29,-14,-102,-117,-131,-117,-29
-78,-58,19,68,-48,-19,-4,-97,-117,-141,-126,-43
-92,-68,24,80,-58,-21,4,-92,-117,-141,-126,-48
-97,-78,19,87,-58,-29,19,-87,-117,-146,-141,-48
-97,-87,9,92,-53,-39,34,-82,-117,-151,-146,-53
-97,-112,-14,104,-41,-63,34,-82,-117,-151,-146,-58
-102,-126,-24,114,-39,-75,39,-82,-122,-161,-151,-63
-102,-117,-14,109,-43,-65,39,-82,-126,-161,-151,-73
-107,-107,0,107,-53,-53,39,-82,-131,-161,-156,-82
-112,-107,4,109,-58,-51,34,-78,-131,-165,-156,-82
-102,-107,-4,104,-48,-56,34,-78,-122,-151,-141,-68
-97,-107,-9,102,-43,-58,24,-68,-112,-131,-122,-48
-87,-112,-24,100,-31,-68,19,-58,-87,-102,-87,-29
-73,-112,-39,92,-17,-75,29,0,39,9,-24,0
-29,-97,-68,63,19,-82,9,0,102,102,53,68
19,-68,-87,24,53,-78,-53,-107,24,92,97,131
82,-43,-126,-19,104,-85,-209,-356,-234,-14,112,195
161,-4,-165,-78,163,-85,-444,-717,-629,-190,107,268
239,58,-180,-148,209,-61,-619,-995,-922,-312,170,400
297,209,-87,-253,192,61,-805,-1254,-1137,-346,312,614
375,400,24,-387,175,212,-1005,-1483,-1288,-317,527,883
527,600,73,-563,226,336,-1200,-1654,-1395,-136,878,1293
712,683,-29,-697,370,326,-1327,-1751,-1473,-19,1180,1654
956,707,-248,-832,602,229,-1459,-1820,-1566,-87,1239,1805
1088,707,-380,-897,734,163,-1532,-1805,-1644,-229,1098,1722
1117,644,-473,-880,795,85,-1546,-1708,-1664,-448,702,1327
1029,468,-561,-749,795,-46,-1420,-1527,-1625,-727,126,697
790,312,-478,-551,634,-82,-1156,-1351,-1517,-1005,-434,78
580,200,-380,-390,480,-90,-932,-1146,-1337,-1078,-673,-244
468,141,-326,-305,397,-92,-780,-985,-1185,-985,-702,-341
366,63,-302,-214,334,-119,-629,-805,-990,-858,-678,-385
234,34,-200,-134,217,-82,-448,-600,-712,-673,-556,-336
131,24,-107,-78,119,-41,-287,-409,-473,-478,-414,-239
73,24,-48,-48,61,-12,-185,-278,-331,-317,-268,-146
29,0,-29,-14,29,-14,-117,-175,-229,-219,-200,-82
-4,-29,-24,17,9,-26,-43,-92,-112,-156,-156,-68
-39,-58,-19,48,-9,-39,24,-9,-14,-92,-117,-58
-53,-82,-29,68,-12,-56,73,53,24,-39,-78,-48
-53,-92,-39,73,-7,-65,92,73,34,-24,-68,-43
-58,-92,-34,75,-12,-63,97,78,58,-19,-68,-43
-68,-92,-24,80,-21,-58,112,107,92,-4,-58,-39
-78,-97,-19,87,-29,-58,117,112,97,9,-48,-34
-82,-97,-14,90,-34,-56,122,117,97,19,-43,-34
-82,-97,-14,90,-34,-56,122,122,107,29,-39,-29
-82,-97,-14,90,-34,-56,131,131,122,34,-34,-24
-82,-97,-14,90,-34,-56,136,146,131,43,-29,-19
-78,-97,-19,87,-29,-58,136,156,141,53,-19,-14
-78,-92,-14,85,-31,-53,136,161,151,63,-14,-14
-78,-92,-14,85,-31,-53,141,170,165,78,-9,-9
-78,-87,-9,82,-34,-48,146,185,175,82,-4,-9
-78,-87,-9,82,-34,-48,151,195,185,92,4,-4
-78,-87,-9,82,-34,-48,151,200,195,102,14,4
-78,-87,-9,82,-34,-48,161,214,214,112,14,9
-78,-78,0,78,-39,-39,161,214,224,122,19,9
-78,-73,4,75,-41,-34,165,229,234,131,29,9
-73,-73,0,73,-36,-36,170,239,248,141,34,14
-73,-73,0,73,-36,-36,170,244,268,156,39,14
-73,-73,0,73,-36,-36,175,253,283,170,48,19
-73,-73,0,73,-36,-36,180,263,292,190,48,19
-73,-63,9,68,-41,-26,180,273,302,200,58,24
-68,-63,4,65,-36,-29,185,287,326,214,73,24
-68,-63,4,65,-36,-29,190,302,341,229,78,34
-68,-58,9,63,-39,-24,200,317,366,248,92,39
-68,-53,14,61,-41,-19,209,331,390,268,107,48
-63,-53,9,58,-36,-21,219,356,414,287,122,58
-63,-39,24,51,-43,-7,219,370,439,302,131,63
-63,-34,29,48,-46,-2,229,385,463,322,141,73
-63,-29,34,46,-48,2,234,405,488,346,146,73
-58,-24,34,41,-46,4,244,429,512,366,156,68
-58,-19,39,39,-48,9,253,453,541,380,170,78
-58,-9,48,34,-53,19,258,478,570,400,185,82
-53,-9,43,31,-48,17,273,507,600,434,200,87
-53,-4,48,29,-51,21,283,522,634,458,219,97
-53,0,53,26,-53,26,292,551,663,483,229,102
-48,14,63,17,-56,39,302,570,692,497,239,102
-48,24,73,12,-61,48,312,600,722,522,248,102
-43,24,68,9,-56,46,322,624,751,541,263,102
-43,24,68,9,-56,46,336,644,780,570,273,107
-43,24,68,9,-56,46,351,673,810,600,278,107
-43,39,82,2,-63,61,356,692,824,614,278,107
-43,39,82,2,-63,61,366,712,849,629,283,97
-39,43,82,-2,-61,63,370,727,873,639,283,97
-39,39,78,0,-58,58,380,746,878,649,283,97
-34,39,73,-2,-53,56,380,751,888,649,287,92
-34,39,73,-2,-53,56,380,751,893,649,287,82
-34,43,78,-4,-56,61,370,746,878,639,273,73
-39,43,82,-2,-61,63,361,732,858,619,258,58
-39,43,82,-2,-61,63,356,697,819,595,239,48
-34,39,73,-2,-53,56,336,658,775,561,224,43
-34,48,82,-7,-58,65,312,619,722,517,200,34
-39,48,87,-4,-63,68,283,575,668,468,170,24
-39,39,78,0,-58,58,253,507,595,419,146,19
-34,34,68,0,-51,51,224,448,527,366,126,14
-34,39,73,-2,-53,56,195,390,453,317,107,0
-34,43,78,-4,-56,61,165,336,390,268,73,-4
-34,34,68,0,-51,51,136,273,322,219,63,0
-34,24,58,4,-46,41,112,224,263,175,48,0
-29,14,43,7,-36,29,87,175,209,141,39,9
-24,0,24,12,-24,12,73,136,161,107,24,9
-24,0,24,12,-24,12,58,97,117,73,14,19
-24,-4,19,14,-21,7,39,68,82,43,4,29
-29,-14,14,21,-21,0,29,39,53,24,0,29
-29,-14,14,21,-21,0,14,14,29,4,-9,29
-29,-24,4,26,-17,-9,9,4,0,-14,-19,29
-29,-24,4,26,-17,-9,4,-9,-24,-34,-24,24
-29,-29,0,29,-14,-14,0,-24,-29,-43,-34,19
-39,-34,4,36,-21,-14,0,-34,-39,-53,-34,14
-43,-34,9,39,-26,-12,-4,-39,-53,-63,-43,14
-48,-34,14,41,-31,-9,-4,-48,-63,-68,-58,9
-48,-39,9,43,-29,-14,-4,-48,-68,-78,-58,9
-53,-48,4,51,-29,-21,-4,-43,-73,-78,-63,14
-48,-58,-9,53,-19,-34,-4,-43,-78,-82,-68,4
-43,-63,-19,53,-12,-41,-4,-48,-82,-92,-68,4
-48,-63,-14,56,-17,-39,-4,-53,-87,-92,-68,4
-48,-63,-14,56,-17,-39,-4,-53,-87,-92,-73,4
-48,-58,-9,53,-19,-34,-4,-53,-82,-92,-73,0
-48,-58,-9,53,-19,-34,-9,-53,-82,-97,-73,0
-48,-58,-9,53,-19,-34,-9,-53,-82,-92,-68,0
-48,-58,-9,53,-19,-34,-4,-53,-78,-87,-63,0
-48,-53,-4,51,-21,-29,-4,-48,-78,-87,-63,0
-48,-48,0,48,-24,-24,-4,-48,-78,-87,-63,-4
-48,-48,0,48,-24,-24,-4,-48,-78,-87,-68,-14
-48,-48,0,48,-24,-24,-4,-48,-73,-92,-73,-14
-48,-48,0,48,-24,-24,-4,-48,-73,-92,-73,-9
-43,-48,-4,46,-19,-26,0,-48,-73,-87,-68,-9
-43,-48,-4,46,-19,-26,0,-43,-73,-78,-68,-4
-48,-48,0,48,-24,-24,0,-39,-73,-73,-63,-4
-48,-48,0,48,-24,-24,4,-43,-63,-68,-63,-4
-53,-48,4,51,-29,-21,4,-43,-53,-63,-63,-4
-53,-48,4,51,-29,-21,4,-39,-53,-63,-53,0
-53,-48,4,51,-29,-21,4,-39,-48,-63,-48,0
-53,-48,4,51,-29,-21,4,-34,-48,-63,-43,0
-53,-48,4,51,-29,-21,9,-29,-43,-68,-43,0
-53,-43,9,48,-31,-17,9,-24,-39,-63,-43,0
-58,-43,14,51,-36,-14,14,-24,-39,-63,-43,4
-58,-48,9,53,-34,-19,14,-24,-39,-53,-43,9
-53,-48,4,51,-29,-21,14,-19,-39,-48,-43,9
-58,-48,9,53,-34,-19,14,-19,-39,-48,-39,4
-63,-48,14,56,-39,-17,14,-19,-39,-48,-39,4
-63,-58,4,61,-34,-26,14,-19,-39,-48,-39,4
-68,-63,4,65,-36,-29,19,-19,-39,-48,-39,4
-63,-63,0,63,-31,-31,19,-19,-39,-48,-39,0
-63,-68,-4,65,-29,-36,14,-24,-39,-48,-39,0
-63,-68,-4,65,-29,-36,14,-24,-39,-53,-43,0
-63,-68,-4,65,-29,-36,14,-24,-43,-63,-43,0
-68,-63,4,65,-36,-29,14,-24,-43,-63,-48,0
-68,-58,9,63,-39,-24,19,-29,-43,-63,-53,0
-63,-58,4,61,-34,-26,24,-29,-48,-63,-58,-4
-63,-63,0,63,-31,-31,24,-29,-48,-63,-63,-4
-63,-73,-9,68,-26,-41,24,-29,-53,-68,-63,-9
-63,-82,-19,73,-21,-51,24,-34,-58,-68,-68,-19
-68,-73,-4,70,-31,-39,24,-34,-63,-78,-68,-19
-68,-63,4,65,-36,-29,24,-39,-68,-82,-68,-19
-73,-63,9,68,-41,-26,24,-39,-68,-82,-73,-19
-73,-63,9,68,-41,-26,24,-39,-68,-87,-73,-19
-73,-68,4,70,-39,-31,19,-39,-73,-92,-73,-24
-78,-68,9,73,-43,-29,14,-39,-78,-97,-78,-24
-78,-68,9,73,-43,-29,9,-34,-78,-97,-78,-29
-78,-68,9,73,-43,-29,9,-34,-73,-102,-87,-29
-78,-68,9,73,-43,-29,9,-39,-73,-102,-87,-29
-78,-73,4,75,-41,-34,9,-39,-78,-107,-87,-29
-78,-73,4,75,-41,-34,9,-43,-78,-107,-87,-29
-82,-73,9,78,-46,-31,9,-48,-82,-107,-87,-29
-78,-73,4,75,-41,-34,9,-48,-82,-107,-87,-34
-78,-73,4,75,-41,-34,9,-48,-87,-112,-92,-39
-78,-73,4,75,-41,-34,9,-48,-87,-112,-92,-39
-78,-78,0,78,-39,-39,9,-48,-87,-117,-97,-39
-78,-78,0,78,-39,-39,9,-48,-87,-117,-97,-39
-78,-78,0,78,-39,-39,9,-48,-87,-117,-97,-39
-78,-68,9,73,-43,-29,9,-48,-87,-112,-97,-39
-73,-58,14,65,-43,-21,9,-43,-78,-107,-92,-34
-73,-48,24,61,-48,-12,14,-43,-73,-102,-87,-34
-68,-29,39,48,-53,4,9,-39,-58,-92,-78,-19
-68,-19,48,43,-58,14,9,-34,-48,-87,-73,-14
-63,-19,43,41,-53,12,4,-29,-48,-82,-68,-14
-63,-14,48,39,-56,17,4,-29,-43,-78,-63,-9
-63,-9,53,36,-58,21,9,-19,-34,-68,-58,-9
-58,-4,53,31,-56,24,9,-14,-29,-63,-48,0
-53,-4,48,29,-51,21,19,-4,-19,-48,-43,9
-53,-4,48,29,-51,21,14,-4,-19,-48,-43,9
-53,-9,43,31,-48,17,0,-14,-19,-48,-43,9
-48,-24,24,36,-36,0,-34,-43,-43,-63,-58,4
-48,-29,19,39,-34,-4,-53,-63,-73,-87,-63,-4
-48,-48,0,48,-24,-24,-58,-82,-92,-107,-82,-19
-48,-53,-4,51,-21,-29,-63,-92,-112,-126,-102,-34
-43,-53,-9,48,-17,-31,-78,-102,-122,-126,-102,-34
-39,-39,0,39,-19,-19,-87,-107,-122,-126,-102,-29
-29,-19,9,24,-19,-4,-97,-117,-122,-126,-92,-24
-14,-19,-4,17,-4,-12,-97,-117,-131,-136,-92,-19
0,-19,-19,9,9,-19,-82,-102,-131,-136,-92,-19
4,-19,-24,7,14,-21,-78,-102,-136,-131,-97,-24
9,-14,-24,2,17,-19,-78,-102,-136,-131,-97,-24
19,-14,-34,-2,26,-24,-78,-107,-136,-136,-97,-24
24,-4,-29,-9,26,-17,-78,-107,-136,-136,-87,-14
29,-4,-34,-12,31,-19,-73,-102,-126,-122,-73,0
24,-4,-29,-9,26,-17,-58,-92,-117,-112,-63,0
-4,-24,-19,14,7,-21,-34,-78,-112,-112,-78,-9
-34,-43,-9,39,-12,-26,-14,-68,-107,-117,-82,-19
-58,-68,-9,63,-24,-39,4,-73,-107,-122,-97,-29
-78,-78,0,78,-39,-39,14,-68,-107,-131,-107,-43
-92,-97,-4,95,-43,-51,24,-63,-107,-131,-107,-48
-102,-107,-4,104,-48,-56,34,-58,-107,-136,-126,-58
-107,-117,-9,112,-48,-63,43,-53,-107,-141,-136,-73
-107,-126,-19,117,-43,-73,43,-48,-107,-141,-136,-78
-112,-126,-14,119,-48,-70,48,-43,-112,-151,-141,-82
-112,-126,-14,119,-48,-70,48,-43,-112,-151,-136,-82
-117,-126,-9,122,-53,-68,48,-43,-112,-151,-136,-82
-117,-126,-9,122,-53,-68,43,-39,-112,-151,-136,-82
-102,-126,-24,114,-39,-75,43,-39,-102,-131,-122,-68
-92,-122,-29,107,-31,-75,34,-34,-82,-107,-102,-53
-78,-122,-43,100,-17,-82,29,-29,-48,-73,-68,-39
-58,-117,-58,87,0,-87,14,-9,19,4,-14,-9
-9,-97,-87,53,39,-92,-29,-48,24,63,53,58
43,-68,-112,12,78,-90,-136,-229,-156,9,87,122
112,-43,-156,-34,134,-100,-336,-551,-517,-141,92,185
185,19,-165,-102,175,-73,-570,-893,-868,-283,126,292
258,107,-151,-183,204,-21,-746,-1151,-1117,-370,229,458
346,258,-87,-302,217,85,-932,-1381,-1302,-361,405,697
453,448,-4,-451,229,222,-1132,-1581,-1424,-287,653,990
639,619,-19,-629,329,300,-1317,-1712,-1498,-107,990,1385
858,673,-185,-766,522,244,-1434,-1771,-1542,9,1278,1732
1088,678,-409,-883,749,134,-1527,-1766,-1571,-39,1302,1820
1205,658,-546,-932,875,56,-1561,-1678,-1586,-161,1127,1673
1166,595,-570,-880,868,12,-1512,-1581,-1571,-405,683,1239
1010,419,-590,-714,800,-85,-1322,-1400,-1498,-707,58,570
780,268,-512,-524,646,-122,-1068,-1224,-1400,-951,-434,19
580,161,-419,-370,500,-129,-854,-1019,-1229,-990,-605,-234
468,102,-366,-285,417,-131,-702,-868,-1078,-907,-644,-331
366,24,-341,-195,353,-158,-551,-697,-883,-790,-629,-375
229,4,-224,-117,226,-109,-385,-502,-629,-614,-507,-326
122,4,-117,-63,119,-56,-239,-322,-414,-429,-366,-229
63,4,-58,-34,61,-26,-146,-214,-278,-283,-244,-156
19,-19,-39,0,29,-29,-87,-136,-180,-200,-200,-112
-19,-43,-24,31,2,-34,-14,-48,-78,-141,-156,-97
-58,-68,-9,63,-24,-39,53,39,4,-82,-117,-87
-73,-87,-14,80,-29,-51,97,92,43,-24,-78,-73
-73,-92,-19,82,-26,-56,112,102,53,-4,-68,-63
-78,-97,-19,87,-29,-58,117,112,78,0,-68,-63
-87,-102,-14,95,-36,-58,131,146,112,14,-58,-58
-87,-107,-19,97,-34,-63,136,151,117,24,-48,-53
-82,-107,-24,95,-29,-65,141,156,117,29,-43,-53
-82,-107,-24,95,-29,-65,146,161,126,34,-39,-48
-82,-107,-24,95,-29,-65,161,170,141,34,-34,-43
-87,-107,-19,97,-34,-63,165,185,151,43,-29,-39
-87,-107,-19,97,-34,-63,165,195,161,53,-19,-34
-87,-102,-14,95,-36,-58,165,200,170,68,-14,-34
-87,-102,-14,95,-36,-58,170,209,185,87,-9,-29
-87,-97,-9,92,-39,-53,175,219,200,92,-4,-29
-87,-97,-9,92,-39,-53,180,224,214,102,4,-24
-87,-97,-9,92,-39,-53,180,229,224,112,14,-19
-87,-97,-9,92,-39,-53,190,244,244,122,14,-19
-87,-87,0,87,-43,-43,190,248,253,131,19,-19
-87,-82,4,85,-46,-39,195,268,263,141,29,-19
-82,-82,0,82,-41,-41,200,278,278,151,34,-9
-82,-82,0,82,-41,-41,200,283,297,165,39,-4
-82,-82,0,82,-41,-41,209,297,312,180,53,4
-82,-82,0,82,-41,-41,219,312,322,200,58,9
-82,-73,9,78,-46,-31,219,322,336,209,68,14
-78,-73,4,75,-41,-34,224,336,366,224,82,14
-78,-68,9,73,-43,-29,229,346,380,239,87,19
-78,-58,19,68,-48,-19,239,356,405,258,102,19
-78,-53,24,65,-51,-14,248,370,424,278,112,24
-73,-53,19,63,-46,-17,258,395,444,297,122,29
-78,-39,39,58,-58,0,258,414,468,312,131,34
-82,-34,48,58,-65,7,268,434,492,331,141,43
-82,-29,53,56,-68,12,273,453,522,356,151,48
-78,-24,53,51,-65,14,283,478,551,375,165,48
-78,-19,58,48,-68,19,292,502,580,395,180,58
-78,-9,68,43,-73,29,297,527,610,419,195,63
-78,-9,68,43,-73,29,312,556,639,453,204,68
-82,-4,78,43,-80,36,322,570,673,478,219,78
-82,0,82,41,-82,41,331,600,702,502,229,82
-78,14,92,31,-85,53,341,619,732,517,239,82
-73,24,97,24,-85,61,351,653,761,541,248,82
-63,24,87,19,-75,56,361,683,790,561,263,82
-63,29,92,17,-78,61,375,702,819,585,273,87
-63,34,97,14,-80,65,390,732,849,610,278,87
-63,48,112,7,-87,80,395,751,863,624,278,87
-63,48,112,7,-87,80,405,771,888,639,283,78
-58,58,117,0,-87,87,405,780,912,644,278,68
-58,58,117,0,-87,87,409,795,917,649,273,58
-53,58,112,-2,-82,85,409,800,922,649,273,53
-53,58,112,-2,-82,85,409,800,922,649,268,43
-53,58,112,-2,-82,85,400,785,902,634,253,39
-58,53,112,2,-85,82,390,761,878,610,239,29
-58,53,112,2,-85,82,380,727,839,585,219,14
-53,48,102,2,-78,75,356,688,795,551,204,4
-48,48,97,0,-73,73,331,644,736,507,180,-4
-48,39,87,4,-68,63,302,595,678,458,151,-14
-48,29,78,9,-63,53,273,522,600,405,117,-24
-43,24,68,9,-56,46,244,458,527,346,87,-34
-43,24,68,9,-56,46,214,400,453,297,78,-43
-43,24,68,9,-56,46,185,346,390,248,53,-43
-43,19,63,12,-53,41,151,283,322,200,39,-39
-43,14,58,14,-51,36,122,234,263,156,19,-39
-39,14,53,12,-46,34,97,185,209,122,14,-29
-34,9,43,12,-39,26,82,146,161,87,4,-29
-34,9,43,12,-39,26,68,107,112,53,-4,-24
-34,4,39,14,-36,21,48,78,73,24,-14,-19
-39,-9,29,24,-34,9,43,48,43,9,-19,-19
-39,-14,24,26,-31,4,34,24,19,-4,-29,-19
-39,-29,9,34,-24,-9,29,14,-4,-19,-34,-9
-39,-34,4,36,-21,-14,24,0,-24,-34,-34,-4
-39,-39,0,39,-19,-19,19,-14,-29,-43,-43,-9
-48,-43,4,46,-26,-19,19,-24,-39,-53,-43,-14
-48,-43,4,46,-26,-19,9,-29,-53,-63,-48,-9
-48,-43,4,46,-26,-19,4,-39,-63,-68,-58,-9
-48,-48,0,48,-24,-24,4,-39,-68,-78,-58,-14
-53,-58,-4,56,-24,-31,4,-34,-73,-78,-63,-14
-53,-63,-9,58,-21,-36,4,-34,-73,-78,-68,-24
-53,-63,-9,58,-21,-36,4,-39,-73,-82,-68,-24
-58,-63,-4,61,-26,-34,4,-43,-78,-82,-68,-24
-58,-63,-4,61,-26,-34,4,-43,-78,-82,-73,-24
-58,-58,0,58,-29,-29,4,-43,-73,-82,-73,-34
-58,-58,0,58,-29,-29,0,-43,-73,-87,-73,-39
-58,-58,0,58,-29,-29,4,-43,-73,-87,-73,-39
-58,-58,0,58,-29,-29,14,-43,-68,-87,-73,-39
-58,-58,0,58,-29,-29,14,-39,-68,-87,-73,-34
-58,-58,0,58,-29,-29,14,-39,-68,-87,-73,-34
-58,-58,0,58,-29,-29,14,-39,-68,-82,-73,-43
-58,-58,0,58,-29,-29,14,-39,-63,-82,-73,-43
-58,-58,0,58,-29,-29,9,-39,-63,-87,-73,-39
-53,-58,-4,56,-24,-31,9,-39,-63,-87,-68,-39
-53,-63,-9,58,-21,-36,9,-34,-63,-82,-68,-34
-58,-68,-9,63,-24,-39,9,-29,-63,-82,-63,-34
-58,-68,-9,63,-24,-39,14,-29,-58,-78,-63,-34
-63,-68,-4,65,-29,-36,14,-24,-53,-73,-63,-34
-63,-63,0,63,-31,-31,14,-19,-53,-73,-58,-29
-63,-58,4,61,-34,-26,14,-19,-48,-73,-58,-29
-63,-58,4,61,-34,-26,19,-19,-48,-68,-53,-29
-63,-58,4,61,-34,-26,29,-19,-43,-68,-53,-29
-63,-53,9,58,-36,-21,29,-14,-39,-63,-53,-29
-68,-53,14,61,-41,-19,34,-14,-39,-63,-53,-24
-68,-58,9,63,-39,-24,34,-14,-34,-58,-53,-19
-63,-58,4,61,-34,-26,34,-9,-29,-58,-53,-19
-63,-58,4,61,-34,-26,34,-9,-29,-58,-48,-29
-63,-58,4,61,-34,-26,34,-9,-29,-58,-48,-34
-63,-63,0,63,-31,-31,34,-9,-34,-58,-48,-34
-68,-63,4,65,-36,-29,39,-9,-39,-58,-48,-34
-68,-63,4,65,-36,-29,39,-9,-39,-58,-43,-34
-73,-68,4,70,-39,-31,34,-14,-39,-58,-39,-29
-73,-68,4,70,-39,-31,29,-14,-39,-58,-43,-34
-73,-68,4,70,-39,-31,24,-14,-43,-63,-43,-39
-78,-68,9,73,-43,-29,24,-14,-43,-63,-43,-39
-78,-68,9,73,-43,-29,29,-19,-43,-63,-43,-39
-73,-63,9,68,-41,-26,29,-24,-48,-68,-53,-43
-73,-63,9,68,-41,-26,24,-29,-48,-73,-63,-43
-73,-63,9,68,-41,-26,29,-29,-53,-78,-63,-43
-73,-63,9,68,-41,-26,34,-34,-58,-78,-68,-48
-78,-68,9,73,-43,-29,34,-29,-58,-82,-68,-48
-78,-73,4,75,-41,-34,34,-29,-58,-82,-68,-48
-78,-73,4,75,-41,-34,29,-29,-58,-82,-73,-48
-73,-73,0,73,-36,-36,24,-29,-58,-87,-73,-48
-68,-78,-9,73,-29,-43,24,-29,-63,-92,-73,-53
-68,-78,-9,73,-29,-43,24,-29,-68,-97,-78,-53
-68,-78,-9,73,-29,-43,19,-29,-73,-97,-78,-58
-68,-78,-9,73,-29,-43,19,-34,-73,-102,-87,-58
-73,-78,-4,75,-34,-41,24,-39,-73,-102,-87,-58
-78,-82,-4,80,-36,-43,29,-39,-78,-107,-87,-58
-78,-82,-4,80,-36,-43,29,-39,-73,-107,-87,-58
-82,-82,0,82,-41,-41,29,-39,-73,-107,-87,-58
-82,-87,-4,85,-39,-46,24,-39,-73,-107,-87,-58
-82,-87,-4,85,-39,-46,19,-43,-73,-107,-87,-63
-82,-82,0,82,-41,-41,19,-43,-78,-112,-92,-63
-82,-82,0,82,-41,-41,19,-43,-82,-112,-97,-63
-78,-82,-4,80,-36,-43,19,-39,-82,-112,-97,-63
-78,-87,-9,82,-34,-48,19,-39,-87,-117,-97,-68
-78,-87,-9,82,-34,-48,19,-39,-87,-117,-97,-68
-78,-87,-9,82,-34,-48,19,-39,-87,-117,-97,-68
-78,-82,-4,80,-36,-43,19,-39,-87,-117,-97,-68
-78,-78,0,78,-39,-39,19,-39,-87,-117,-97,-68
-78,-73,4,75,-41,-34,19,-39,-87,-112,-97,-68
-73,-63,9,68,-41,-26,19,-39,-78,-107,-92,-68
-73,-53,19,63,-46,-17,24,-39,-73,-102,-87,-68
-68,-29,39,48,-53,4,19,-39,-58,-92,-78,-58
-68,-14,53,41,-61,19,19,-39,-48,-87,-73,-53
-63,-9,53,36,-58,21,14,-39,-48,-82,-68,-53
-63,-4,58,34,-61,26,14,-39,-39,-78,-63,-39
-63,0,63,31,-63,31,19,-29,-24,-68,-58,-29
-58,4,63,26,-61,34,19,-24,-19,-68,-48,-29
-53,4,58,24,-56,31,29,-14,-9,-58,-43,-29
-53,4,58,24,-56,31,19,-14,-14,-58,-43,-29
-53,0,53,26,-53,26,0,-24,-19,-58,-43,-29
-48,-14,34,31,-41,9,-34,-53,-43,-68,-58,-34
-48,-19,29,34,-39,4,-53,-73,-73,-87,-63,-43
-48,-39,9,43,-29,-14,-58,-92,-92,-107,-82,-58
-48,-43,4,46,-26,-19,-63,-102,-112,-126,-102,-73
-43,-48,-4,46,-19,-26,-78,-107,-122,-122,-102,-73
-39,-39,0,39,-19,-19,-87,-107,-122,-117,-102,-68
-29,-19,9,24,-19,-4,-97,-117,-122,-117,-92,-63
-14,-19,-4,17,-4,-12,-97,-117,-131,-126,-92,-58
0,-19,-19,9,9,-19,-82,-102,-131,-131,-92,-58
4,-19,-24,7,14,-21,-78,-102,-136,-131,-97,-63
14,-14,-29,0,21,-21,-78,-107,-136,-131,-97,-63
29,-14,-43,-7,36,-29,-78,-117,-136,-136,-97,-63
29,-4,-34,-12,31,-19,-78,-117,-136,-136,-92,-53
29,-4,-34,-12,31,-19,-73,-112,-126,-122,-82,-39
24,-4,-29,-9,26,-17,-58,-102,-117,-112,-73,-39
-4,-24,-19,14,7,-21,-34,-87,-112,-112,-87,-48
-34,-43,-9,39,-12,-26,-14,-73,-107,-117,-87,-58
-58,-68,-9,63,-24,-39,4,-73,-107,-122,-97,-68
-78,-78,0,78,-39,-39,14,-63,-107,-131,-107,-82
-92,-97,-4,95,-43,-51,24,-53,-107,-131,-107,-87
-102,-107,-4,104,-48,-56,34,-48,-107,-136,-122,-92
-107,-117,-9,112,-48,-63,43,-43,-107,-141,-126,-102
-107,-126,-19,117,-43,-73,43,-48,-107,-136,-126,-112
-112,-126,-14,119,-48,-70,48,-53,-112,-141,-131,-122
-112,-126,-14,119,-48,-70,48,-53,-112,-141,-131,-122
-117,-126,-9,122,-53,-68,48,-53,-112,-141,-136,-122
-117,-126,-9,122,-53,-68,43,-48,-112,-141,-136,-122
-102,-126,-24,114,-39,-75,43,-48,-102,-122,-122,-107
-87,-122,-34,104,-26,-78,34,-39,-82,-92,-97,-87
-68,-122,-53,95,-7,-87,29,-29,-48,-53,-58,-68
-48,-117,-68,82,9,-92,14,-9,24,19,0,-34
0,-97,-97,48,48,-97,-29,-48,34,73,73,39
53,-63,-117,4,85,-90,-146,-248,-151,4,92,87
122,-34,-156,-43,139,-95,-356,-590,-517,-161,82,136
200,24,-175,-112,187,-75,-590,-932,-868,-302,97,244
278,107,-170,-192,224,-31,-766,-1190,-1117,-390,180,409
375,248,-126,-312,251,61,-956,-1420,-1302,-380,366,644
492,429,-63,-461,278,183,-1161,-1620,-1424,-307,624,932
673,595,-78,-634,375,258,-1337,-1747,-1503,-141,932,1298
888,644,-244,-766,566,200,-1444,-1800,-1551,-39,1190,1615
1107,649,-458,-878,783,95,-1537,-1795,-1581,-102,1185,1673
1215,629,-585,-922,900,21,-1571,-1708,-1595,-239,980,1498
1176,556,-619,-866,897,-31,-1512,-1595,-1581,-473,551,1063
1019,370,-649,-695,834,-139,-1312,-1400,-1507,-766,-58,395
790,229,-561,-509,675,-165,-1054,-1224,-1395,-976,-507,-112
590,131,-458,-361,524,-163,-834,-1019,-1210,-980,-634,-322
463,78,-385,-270,424,-153,-683,-863,-1058,-897,-653,-400
346,4,-341,-175,344,-168,-531,-688,-863,-780,-619,-424
219,-9,-229,-104,224,-119,-366,-497,-610,-605,-497,-375
122,-4,-126,-58,124,-65,-219,-322,-395,-419,-356,-278
63,0,-63,-31,63,-31,-126,-204,-258,-273,-234,-204
19,-19,-39,0,29,-29,-68,-117,-161,-190,-190,-161
-19,-48,-29,34,4,-39,0,-34,-63,-131,-151,-141
-58,-78,-19,68,-19,-48,63,48,14,-73,-117,-126
-73,-97,-24,85,-24,-61,102,102,53,-19,-78,-117
-73,-102,-29,87,-21,-65,112,112,63,-4,-68,-112
-78,-102,-24,90,-26,-63,117,117,82,0,-68,-112
-87,-102,-14,95,-36,-58,131,146,112,14,-58,-107
-87,-107,-19,97,-34,-63,136,151,122,24,-48,-102
-82,-107,-24,95,-29,-65,141,156,126,29,-43,-102
-82,-107,-24,95,-29,-65,146,161,136,39,-34,-97
-82,-107,-24,95,-29,-65,161,170,151,43,-24,-92
-87,-107,-19,97,-34,-63,165,185,161,53,-19,-87
-87,-107,-19,97,-34,-63,165,195,170,63,-9,-82
-87,-102,-14,95,-36,-58,165,200,180,73,-9,-82
-87,-102,-14,95,-36,-58,170,209,195,87,-9,-78
-87,-97,-9,92,-39,-53,175,219,204,92,-4,-73
-87,-97,-9,92,-39,-53,180,224,214,102,4,-63
-87,-92,-4,90,-41,-48,180,229,224,112,14,-58
-87,-87,0,87,-43,-43,190,244,244,122,14,-58
-87,-78,9,82,-48,-34,190,248,253,136,19,-58
-87,-73,14,80,-51,-29,195,268,263,151,29,-58
-82,-82,0,82,-41,-41,200,278,278,161,34,-53
-82,-92,-9,87,-36,-51,200,283,297,175,39,-53
-82,-82,0,82,-41,-41,204,292,312,185,53,-48
-82,-73,9,78,-46,-31,209,302,322,200,58,-48
-78,-63,14,70,-46,-24,209,312,336,209,68,-39
-68,-63,4,65,-36,-29,214,326,366,224,82,-34
-68,-58,9,63,-39,-24,219,341,380,239,87,-24
-68,-48,19,58,-43,-14,229,356,405,258,102,-19
-73,-43,29,58,-51,-7,239,370,424,283,117,-14
-73,-43,29,58,-51,-7,248,395,444,307,131,-9
-73,-29,43,51,-58,7,248,409,468,322,141,-4
-73,-24,48,48,-61,12,258,424,492,341,151,4
-73,-19,53,46,-63,17,263,444,517,366,161,9
-68,-14,53,41,-61,19,273,468,541,385,175,9
-68,-9,58,39,-63,24,287,492,570,405,190,19
-68,0,68,34,-68,34,297,517,600,429,204,24
-63,0,63,31,-63,31,312,551,629,463,214,24
-63,4,68,29,-65,36,322,570,663,488,229,29
-68,9,78,29,-73,43,331,600,692,512,239,34
-68,24,92,21,-80,58,341,619,722,527,248,34
-68,34,102,17,-85,68,351,653,756,551,258,34
-63,34,97,14,-80,65,361,683,790,570,273,34
-58,39,97,9,-78,68,375,702,819,590,283,39
-53,43,97,4,-75,70,390,732,849,610,287,39
-53,58,112,-2,-82,85,395,751,863,624,287,39
-53,58,112,-2,-82,85,405,771,888,639,292,29
-48,68,117,-9,-82,92,405,780,912,649,287,24
-48,68,117,-9,-82,92,409,795,917,658,283,19
-43,63,107,-9,-75,85,409,800,922,658,283,14
-43,58,102,-7,-73,80,409,800,922,658,278,4
-43,63,107,-9,-75,85,400,785,897,644,263,0
-48,63,112,-7,-80,87,390,761,868,619,248,-9
-48,68,117,-9,-82,92,375,727,829,590,224,-29
-43,68,112,-12,-78,90,346,688,785,551,204,-43
-39,68,107,-14,-73,87,322,644,732,507,180,-53
-39,58,97,-9,-68,78,292,595,678,458,151,-63
-39,48,87,-4,-63,68,263,527,605,409,131,-68
-34,43,78,-4,-56,61,234,468,536,356,117,-73
-34,43,78,-4,-56,61,204,405,458,307,97,-87
-34,43,78,-4,-56,61,175,346,390,258,63,-92
-34,34,68,0,-51,51,146,283,322,209,48,-87
-34,24,58,4,-46,41,122,234,263,165,29,-87
-34,19,53,7,-43,36,97,185,209,131,19,-78
-34,9,43,12,-39,26,82,146,161,97,4,-78
-29,9,39,9,-34,24,68,107,117,63,0,-73
-24,4,29,9,-26,17,48,78,82,34,-4,-68
-29,-4,24,17,-26,9,43,48,53,19,-9,-68
-29,-4,24,17,-26,9,34,24,29,4,-19,-68
-29,-19,9,24,-19,-4,24,14,4,-14,-29,-63
-29,-24,4,26,-17,-9,14,0,-14,-34,-34,-63
-34,-34,0,34,-17,-17,9,-14,-24,-43,-43,-68
-48,-43,4,46,-26,-19,9,-24,-39,-53,-43,-73
-48,-43,4,46,-26,-19,4,-34,-53,-63,-48,-73
-48,-43,4,46,-26,-19,4,-48,-63,-68,-58,-78
-48,-48,0,48,-24,-24,4,-48,-68,-78,-58,-82
-53,-58,-4,56,-24,-31,4,-43,-73,-78,-63,-82
-53,-63,-9,58,-21,-36,9,-43,-68,-78,-63,-92
-53,-63,-9,58,-21,-36,14,-48,-63,-82,-58,-92
-53,-58,-4,56,-24,-31,14,-53,-68,-82,-58,-92
-48,-53,-4,51,-21,-29,14,-53,-68,-82,-63,-92
-48,-48,0,48,-24,-24,14,-53,-68,-82,-63,-97
-48,-48,0,48,-24,-24,9,-53,-73,-87,-63,-97
-48,-48,0,48,-24,-24,9,-53,-73,-87,-63,-97
-48,-48,0,48,-24,-24,14,-53,-68,-87,-63,-97
-48,-48,0,48,-24,-24,14,-48,-68,-87,-68,-92
-48,-48,0,48,-24,-24,14,-48,-68,-87,-73,-92
-48,-53,-4,51,-21,-29,14,-48,-68,-82,-73,-102
-48,-58,-9,53,-19,-34,14,-48,-63,-82,-73,-102
-53,-58,-4,56,-24,-31,14,-48,-58,-82,-73,-102
-53,-58,-4,56,-24,-31,19,-48,-53,-78,-68,-107
-53,-53,0,53,-26,-26,14,-43,-53,-73,-68,-102
-58,-48,9,53,-34,-19,9,-39,-53,-73,-63,-102
-58,-48,9,53,-34,-19,14,-39,-48,-68,-63,-102
-63,-48,14,56,-39,-17,14,-34,-43,-63,-63,-102
-58,-48,9,53,-34,-19,14,-29,-43,-63,-58,-97
-53,-48,4,51,-29,-21,14,-29,-39,-63,-58,-97
-53,-48,4,51,-29,-21,14,-29,-39,-58,-53,-97
-53,-48,4,51,-29,-21,19,-29,-34,-58,-53,-97
-53,-43,9,48,-31,-17,19,-24,-29,-53,-53,-97
-58,-43,14,51,-36,-14,24,-24,-29,-53,-53,-92
-58,-48,9,53,-34,-19,24,-24,-29,-48,-53,-87
-53,-48,4,51,-29,-21,24,-19,-29,-48,-53,-87
-53,-48,4,51,-29,-21,24,-19,-29,-48,-48,-92
-53,-48,4,51,-29,-21,24,-19,-29,-48,-48,-92
-58,-53,4,56,-31,-24,24,-19,-29,-48,-48,-92
-68,-53,14,61,-41,-19,29,-19,-29,-48,-48,-92
-68,-53,14,61,-41,-19,29,-19,-29,-48,-48,-92
-73,-58,14,65,-43,-21,24,-24,-29,-48,-48,-87
-73,-58,14,65,-43,-21,24,-24,-29,-53,-53,-97
-73,-58,14,65,-43,-21,24,-24,-34,-63,-53,-107
-78,-58,19,68,-48,-19,24,-24,-34,-63,-48,-97
-78,-58,19,68,-48,-19,29,-29,-34,-63,-43,-87
-73,-58,14,65,-43,-21,29,-29,-39,-63,-48,-87
-73,-63,9,68,-41,-26,24,-29,-39,-63,-53,-82
-73,-63,9,68,-41,-26,24,-29,-43,-68,-53,-87
-73,-63,9,68,-41,-26,24,-34,-48,-68,-58,-97
-78,-63,14,70,-46,-24,24,-34,-53,-78,-63,-102
-78,-63,14,70,-46,-24,24,-39,-58,-82,-68,-107
-78,-63,14,70,-46,-24,24,-39,-58,-82,-73,-107
-73,-63,9,68,-41,-26,24,-39,-58,-87,-73,-107
-68,-68,0,68,-34,-34,29,-39,-58,-92,-68,-112
-68,-68,0,68,-34,-34,34,-39,-58,-97,-68,-112
-68,-68,0,68,-34,-34,29,-39,-63,-97,-68,-112
-68,-68,0,68,-34,-34,29,-43,-63,-102,-78,-107
-68,-68,0,68,-34,-34,29,-48,-63,-97,-78,-107
-68,-73,-4,70,-31,-39,29,-48,-68,-97,-78,-107
-73,-78,-4,75,-34,-41,29,-48,-68,-97,-78,-107
-82,-82,0,82,-41,-41,29,-48,-73,-97,-78,-107
-82,-87,-4,85,-39,-46,29,-48,-73,-97,-78,-107
-82,-87,-4,85,-39,-46,29,-53,-73,-97,-78,-112
-78,-82,-4,80,-36,-43,29,-53,-73,-102,-82,-112
-73,-82,-9,78,-31,-46,29,-53,-73,-102,-82,-112
-73,-82,-9,78,-31,-46,24,-53,-73,-102,-92,-112
-73,-82,-9,78,-31,-46,19,-53,-78,-102,-97,-117
-73,-82,-9,78,-31,-46,19,-53,-82,-107,-97,-122
-73,-82,-9,78,-31,-46,19,-53,-87,-112,-92,-122
-78,-82,-4,80,-36,-43,24,-53,-87,-112,-92,-122
-82,-82,0,82,-41,-41,29,-53,-87,-112,-97,-117
-82,-82,0,82,-41,-41,24,-53,-82,-112,-97,-112
-82,-87,-4,85,-39,-46,24,-48,-82,-112,-97,-107
-78,-92,-14,85,-31,-53,29,-48,-78,-112,-92,-117
-78,-87,-9,82,-34,-48,29,-48,-78,-107,-92,-117
-82,-82,0,82,-41,-41,29,-48,-82,-112,-97,-122
-87,-78,9,82,-48,-34,29,-48,-87,-117,-107,-126
-87,-78,9,82,-48,-34,29,-48,-82,-112,-102,-122
-87,-78,9,82,-48,-34,29,-48,-78,-107,-97,-117
-87,-78,9,82,-48,-34,29,-48,-78,-107,-97,-117
-78,-73,4,75,-41,-34,29,-48,-73,-102,-92,-117
-73,-68,4,70,-39,-31,34,-48,-73,-97,-92,-117
-63,-58,4,61,-34,-26,34,-43,-63,-92,-87,-112
-58,-39,19,48,-39,-9,29,-34,-48,-78,-73,-97
-58,-24,34,41,-46,4,29,-29,-39,-68,-63,-92
-58,-19,39,39,-48,9,24,-29,-39,-63,-58,-87
-63,-14,48,39,-56,17,24,-29,-34,-58,-53,-78
-63,-9,53,36,-58,21,29,-19,-24,-48,-48,-78
-58,-4,53,31,-56,24,29,-14,-19,-48,-39,-68
-53,-4,48,29,-51,21,39,-4,-9,-39,-34,-58
-48,-4,43,26,-46,19,29,-4,-9,-39,-34,-58
-43,0,43,21,-43,21,9,-14,-4,-39,-34,-58
-39,-4,34,21,-36,14,-24,-43,-24,-48,-48,-63
-39,-19,19,29,-29,0,-43,-63,-53,-68,-53,-73
-39,-48,-9,43,-14,-29,-48,-82,-73,-87,-73,-87
-39,-53,-14,46,-12,-34,-53,-92,-92,-107,-92,-102
-34,-53,-19,43,-7,-36,-68,-102,-102,-107,-92,-102
-29,-39,-9,34,-9,-24,-78,-107,-102,-107,-92,-97
-19,-19,0,19,-9,-9,-87,-117,-102,-107,-82,-92
-4,-19,-14,12,4,-17,-87,-117,-112,-122,-87,-87
9,-19,-29,4,19,-24,-73,-102,-112,-126,-92,-87
14,-19,-34,2,24,-26,-68,-102,-122,-122,-97,-97
19,-14,-34,-2,26,-24,-68,-102,-126,-122,-97,-102
29,-9,-39,-9,34,-24,-73,-107,-126,-126,-97,-102
29,4,-24,-17,26,-9,-78,-107,-126,-126,-92,-92
39,9,-29,-24,34,-9,-73,-102,-117,-107,-78,-73
43,14,-29,-29,36,-7,-58,-92,-107,-92,-63,-68
14,-4,-19,-4,17,-12,-34,-78,-102,-92,-78,-78
-14,-24,-9,19,-2,-17,-14,-63,-97,-97,-78,-87
-48,-48,0,48,-24,-24,4,-68,-97,-102,-87,-97
-78,-58,19,68,-48,-19,14,-68,-97,-112,-97,-112
-97,-78,19,87,-58,-29,24,-63,-97,-112,-97,-122
-107,-87,19,97,-63,-34,34,-58,-97,-117,-112,-131
-107,-102,4,104,-56,-48,43,-53,-97,-122,-117,-141
-107,-117,-9,112,-48,-63,43,-53,-97,-122,-117,-146
-112,-117,-4,114,-53,-61,48,-53,-102,-136,-122,-151
-112,-117,-4,114,-53,-61,48,-53,-102,-141,-122,-151
-117,-117,0,117,-58,-58,48,-53,-102,-141,-126,-146
-117,-117,0,117,-58,-58,43,-48,-102,-141,-126,-141
-102,-117,-14,109,-43,-65,48,-48,-92,-122,-112,-126
-92,-112,-19,102,-36,-65,43,-39,-73,-92,-87,-107
-78,-112,-34,95,-21,-73,43,-24,-39,-53,-58,-97
-58,-107,-48,82,-4,-78,34,0,34,29,-4,-68
-9,-92,-82,51,36,-87,-4,-9,82,92,73,0
43,-63,-107,9,75,-85,-107,-161,-34,48,107,58
112,-48,-161,-31,136,-104,-307,-507,-390,-97,78,97
190,0,-190,-95,190,-95,-541,-873,-761,-244,78,175
268,73,-195,-170,231,-61,-722,-1151,-1029,-366,146,307
356,209,-146,-283,251,31,-912,-1400,-1234,-390,287,507
468,400,-68,-434,268,165,-1132,-1615,-1356,-317,536,795
649,566,-82,-607,366,241,-1327,-1766,-1439,-170,829,1151
883,624,-258,-753,570,183,-1449,-1834,-1498,-43,1137,1503
1107,634,-473,-871,790,80,-1556,-1849,-1561,-87,1166,1586
1239,619,-619,-929,929,0,-1600,-1776,-1605,-219,995,1468
1244,556,-688,-900,966,-65,-1566,-1664,-1590,-424,629,1112
1073,370,-702,-722,888,-165,-1381,-1464,-1532,-756,-29,409
839,229,-610,-534,724,-190,-1127,-1283,-1434,-1000,-512,-122
629,131,-497,-380,563,-183,-893,-1073,-1249,-1010,-629,-331
497,78,-419,-287,458,-170,-722,-912,-1098,-927,-649,-414
385,4,-380,-195,383,-187,-570,-736,-912,-810,-629,-434
253,-14,-268,-119,261,-141,-405,-541,-668,-644,-527,-385
141,-4,-146,-68,143,-75,-244,-346,-439,-448,-370,-283
68,4,-63,-36,65,-29,-136,-214,-287,-292,-234,-204
29,-19,-48,-4,39,-34,-78,-126,-180,-204,-190,-156
-4,-48,-43,26,19,-46,-4,-48,-73,-141,-151,-136
-43,-78,-34,61,-4,-56,68,39,9,-78,-112,-122
-63,-97,-34,80,-14,-65,112,102,53,-24,-73,-107
-63,-97,-34,80,-14,-65,122,112,63,-9,-68,-102
-68,-92,-24,80,-21,-58,126,117,82,0,-68,-102
-82,-92,-9,87,-36,-51,146,151,117,14,-53,-92
-87,-97,-9,92,-39,-53,156,161,126,24,-39,-82
-82,-97,-14,90,-34,-56,161,165,126,34,-29,-82
-82,-97,-14,90,-34,-56,161,170,136,48,-19,-78
-82,-97,-14,90,-34,-56,170,180,151,53,-14,-73
-87,-97,-9,92,-39,-53,175,195,161,63,-9,-68
-87,-102,-14,95,-36,-58,180,204,170,73,0,-63
-87,-102,-14,95,-36,-58,185,209,180,82,4,-63
-87,-102,-14,95,-36,-58,190,219,195,97,4,-58
-87,-97,-9,92,-39,-53,195,229,204,102,4,-58
-87,-92,-4,90,-41,-48,195,234,214,112,14,-53
-87,-87,0,87,-43,-43,190,239,224,122,24,-48
-82,-87,-4,85,-39,-46,200,253,244,131,24,-48
-78,-78,0,78,-39,-39,200,253,253,141,29,-48
-78,-68,9,73,-43,-29,204,268,263,151,39,-48
-73,-63,9,68,-41,-26,209,278,278,161,43,-39
-78,-63,14,70,-46,-24,209,283,297,175,48,-29
-82,-63,19,73,-51,-21,214,297,312,190,63,-19
-82,-63,19,73,-51,-21,219,312,322,209,68,-19
-82,-53,29,68,-56,-12,219,322,336,219,78,-14
-78,-53,24,65,-51,-14,224,336,361,229,92,-14
-78,-48,29,63,-53,-9,229,351,370,239,97,-4
-78,-39,39,58,-58,0,239,366,395,258,112,0
-78,-34,43,56,-61,4,248,380,414,278,122,4
-73,-39,34,56,-53,-2,258,405,434,297,131,14
-73,-29,43,51,-58,7,258,419,458,312,141,24
-73,-24,48,48,-61,12,268,434,483,331,151,34
-73,-19,53,46,-63,17,273,453,507,356,161,39
-68,-14,53,41,-61,19,283,478,531,375,175,34
-68,-9,58,39,-63,24,292,502,561,395,190,39
-68,0,68,34,-68,34,297,527,585,414,204,43
-63,0,63,31,-63,31,312,556,610,444,214,48
-63,9,73,26,-68,41,322,575,644,468,229,58
-63,19,82,21,-73,51,331,610,673,492,239,63
-58,34,92,12,-75,63,341,629,702,507,248,68
-58,43,102,7,-80,73,351,663,732,531,258,73
-53,53,107,0,-80,80,361,692,761,546,273,73
-53,68,122,-7,-87,95,375,712,790,566,283,78
-48,63,112,-7,-80,87,390,746,819,590,287,78
-43,68,112,-12,-78,90,395,771,834,605,287,78
-43,68,112,-12,-78,90,409,795,858,619,287,68
-39,78,117,-19,-78,97,414,810,883,629,283,63
-39,78,117,-19,-78,97,419,824,893,639,283,63
-34,78,112,-21,-73,95,419,829,902,639,283,63
-34,78,112,-21,-73,95,419,839,912,644,283,53
-34,82,117,-24,-75,100,409,834,902,634,273,48
-39,87,126,-24,-82,107,400,810,883,610,258,39
-39,92,131,-26,-85,112,390,775,849,585,239,29
-34,87,122,-26,-78,104,366,736,805,556,224,19
-29,87,117,-29,-73,102,341,692,751,517,200,4
-24,78,102,-26,-63,90,317,644,697,468,170,-4
-19,68,87,-24,-53,78,292,575,624,419,151,-9
-14,63,78,-24,-46,70,263,512,556,366,136,-14
-14,63,78,-24,-46,70,234,448,483,317,117,-24
-19,63,82,-21,-51,73,204,390,419,268,82,-24
-24,53,78,-14,-51,65,175,322,351,219,68,-19
-24,39,63,-7,-43,51,151,273,292,175,48,-19
-24,29,53,-2,-39,41,126,224,239,141,39,-9
-24,19,43,2,-34,31,107,180,190,107,24,-9
-24,19,43,2,-34,31,87,136,146,73,14,-4
-24,14,39,4,-31,26,68,107,112,43,4,-4
-29,4,34,12,-31,19,63,78,82,24,0,-9
-29,4,34,12,-31,19,48,48,48,4,-9,-9
-29,-9,19,19,-24,4,39,34,14,-14,-19,-4
-29,-14,14,21,-21,0,34,19,-4,-34,-24,-4
-29,-19,9,24,-19,-4,29,4,-9,-43,-34,-9
-39,-24,14,31,-26,-4,29,-9,-19,-53,-34,-14
-39,-24,14,31,-26,-4,24,-19,-34,-63,-39,-14
-39,-29,9,34,-24,-9,24,-29,-43,-68,-48,-19
-39,-39,0,39,-19,-19,24,-29,-48,-78,-48,-24
-43,-48,-4,46,-19,-26,24,-24,-58,-82,-53,-24
-43,-53,-9,48,-17,-31,24,-24,-63,-87,-58,-34
-43,-53,-9,48,-17,-31,24,-29,-63,-92,-58,-34
-48,-53,-4,51,-21,-29,24,-34,-68,-92,-58,-34
-48,-48,0,48,-24,-24,24,-39,-68,-92,-68,-34
-48,-39,9,43,-29,-14,24,-43,-68,-92,-73,-39
-48,-39,9,43,-29,-14,19,-43,-73,-97,-73,-39
-48,-39,9,43,-29,-14,19,-43,-73,-97,-73,-39
-48,-39,9,43,-29,-14,24,-43,-68,-97,-73,-39
-48,-39,9,43,-29,-14,24,-39,-68,-97,-73,-34
-48,-39,9,43,-29,-14,24,-39,-68,-97,-73,-29
-48,-39,9,43,-29,-14,24,-39,-68,-92,-73,-34
-48,-39,9,43,-29,-14,24,-39,-63,-92,-73,-34
-48,-39,9,43,-29,-14,24,-39,-58,-92,-73,-29
-43,-39,4,41,-24,-17,24,-39,-53,-87,-68,-29
-43,-39,4,41,-24,-17,19,-34,-53,-82,-68,-24
-48,-39,9,43,-29,-14,19,-29,-53,-82,-63,-29
-48,-39,9,43,-29,-14,24,-29,-48,-78,-63,-34
-53,-39,14,46,-34,-12,29,-24,-43,-73,-63,-34
-53,-39,14,46,-34,-12,34,-19,-43,-73,-58,-29
-53,-39,14,46,-34,-12,34,-19,-39,-73,-58,-24
-53,-39,14,46,-34,-12,34,-19,-39,-68,-53,-19
-53,-39,14,46,-34,-12,39,-19,-34,-68,-53,-14
-53,-34,19,43,-36,-7,39,-14,-29,-63,-53,-14
-58,-34,24,46,-41,-4,43,-14,-29,-63,-53,-14
-58,-39,19,48,-39,-9,43,-14,-29,-58,-53,-9
-53,-39,14,46,-34,-12,39,-9,-29,-58,-53,-9
-53,-39,14,46,-34,-12,34,-9,-29,-58,-48,-14
-53,-39,14,46,-34,-12,34,-9,-29,-58,-48,-14
-53,-43,9,48,-31,-17,34,-9,-29,-58,-48,-14
-58,-43,14,51,-36,-14,39,-9,-29,-58,-48,-14
-58,-43,14,51,-36,-14,39,-9,-29,-58,-48,-14
-63,-48,14,56,-39,-17,34,-14,-29,-58,-48,-14
-63,-48,14,56,-39,-17,34,-14,-29,-58,-53,-19
-63,-48,14,56,-39,-17,34,-14,-34,-63,-53,-19
-68,-48,19,58,-43,-14,34,-14,-34,-63,-53,-19
-68,-48,19,58,-43,-14,43,-19,-34,-63,-48,-19
-63,-48,14,56,-39,-17,48,-19,-39,-68,-48,-24
-63,-53,9,58,-36,-21,43,-19,-39,-73,-53,-19
-63,-53,9,58,-36,-21,43,-19,-43,-78,-53,-19
-63,-53,9,58,-36,-21,39,-24,-48,-78,-58,-29
-68,-53,14,61,-41,-19,34,-24,-48,-82,-58,-29
-68,-53,14,61,-41,-19,34,-29,-48,-82,-58,-29
-73,-53,19,63,-46,-17,34,-29,-48,-82,-63,-29
-73,-53,19,63,-46,-17,34,-29,-48,-87,-63,-29
-68,-58,9,63,-39,-24,34,-29,-53,-92,-63,-34
-68,-58,9,63,-39,-24,34,-34,-58,-97,-68,-34
-68,-58,9,63,-39,-24,29,-39,-63,-97,-68,-39
-73,-58,14,65,-43,-21,29,-43,-63,-102,-78,-39
-78,-58,19,68,-48,-19,29,-48,-63,-102,-78,-39
-78,-63,14,70,-46,-24,29,-43,-68,-107,-78,-39
-78,-63,14,70,-46,-24,29,-39,-68,-107,-78,-39
-82,-63,19,73,-51,-21,29,-39,-73,-107,-82,-39
-82,-68,14,75,-48,-26,29,-39,-73,-107,-87,-39
-82,-68,14,75,-48,-26,34,-43,-73,-107,-87,-43
-82,-63,19,73,-51,-21,39,-43,-73,-112,-92,-43
-82,-63,19,73,-51,-21,39,-43,-73,-117,-92,-43
-82,-63,19,73,-51,-21,39,-43,-73,-122,-97,-43
-82,-63,19,73,-51,-21,34,-48,-78,-122,-102,-48
-82,-63,19,73,-51,-21,29,-53,-78,-122,-107,-48
-82,-68,14,75,-48,-26,29,-53,-82,-126,-102,-48
-82,-68,14,75,-48,-26,29,-53,-87,-131,-102,-53
-82,-63,19,73,-51,-21,29,-53,-87,-131,-107,-48
-82,-58,24,70,-53,-17,24,-48,-82,-131,-107,-43
-82,-58,24,70,-53,-17,24,-53,-82,-131,-102,-43
-82,-63,19,73,-51,-21,29,-58,-82,-136,-102,-48
-82,-63,19,73,-51,-21,29,-58,-82,-131,-102,-48
-87,-68,19,78,-53,-24,29,-58,-87,-126,-107,-48
-87,-68,19,78,-53,-24,29,-53,-87,-126,-107,-48
-87,-68,19,78,-53,-24,29,-48,-87,-126,-107,-48
-87,-63,24,75,-56,-19,29,-48,-87,-126,-107,-48
-82,-53,29,68,-56,-12,34,-43,-78,-122,-102,-43
-82,-48,34,65,-58,-7,39,-43,-73,-122,-97,-43
-78,-29,48,53,-63,9,39,-39,-58,-112,-87,-29
-78,-14,63,46,-70,24,39,-39,-48,-107,-82,-24
-73,-9,63,41,-68,26,34,-39,-48,-102,-78,-24
-73,-4,68,39,-70,31,34,-39,-43,-97,-73,-19
-73,0,73,36,-73,36,39,-29,-34,-87,-68,-19
-63,9,73,26,-68,41,39,-24,-29,-82,-58,-9
-53,14,68,19,-61,41,48,-14,-19,-68,-53,0
-48,19,68,14,-58,43,48,-4,-9,-63,-48,4
-43,19,63,12,-53,41,39,-4,0,-58,-43,9
-39,4,43,17,-41,24,-4,-34,-24,-68,-58,4
-39,0,39,19,-39,19,-34,-53,-53,-87,-63,-4
-39,-29,9,34,-24,-9,-39,-78,-73,-107,-82,-19
-39,-43,-4,41,-17,-24,-43,-92,-92,-126,-102,-34
-39,-43,-4,41,-17,-24,-58,-102,-107,-126,-102,-34
-39,-29,9,34,-24,-9,-68,-107,-112,-126,-102,-29
-29,0,29,14,-29,14,-82,-122,-112,-126,-97,-24
-14,9,24,2,-19,17,-87,-126,-122,-136,-102,-19
0,0,0,0,0,0,-73,-112,-122,-141,-102,-19
4,-9,-14,2,9,-12,-68,-112,-126,-141,-107,-24
14,-4,-19,-4,17,-12,-73,-112,-131,-146,-107,-29
29,-4,-34,-12,31,-19,-78,-117,-136,-156,-107,-34
34,4,-29,-19,31,-12,-78,-122,-136,-156,-112,-24
39,4,-34,-21,36,-14,-73,-122,-126,-141,-112,-9
43,19,-24,-31,34,-2,-63,-112,-117,-126,-92,-4
24,14,-9,-19,17,2,-43,-97,-112,-122,-97,-9
-14,-4,9,9,-12,2,-24,-82,-102,-122,-92,-14
-48,-29,19,39,-34,-4,-4,-82,-97,-122,-97,-19
-78,-43,34,61,-56,-4,9,-78,-97,-131,-107,-34
-102,-68,34,85,-68,-17,24,-73,-97,-131,-107,-39
-107,-78,29,92,-68,-24,34,-63,-97,-136,-122,-43
-107,-87,19,97,-63,-34,43,-53,-97,-141,-126,-53
-107,-102,4,104,-56,-48,43,-53,-97,-141,-131,-58
-112,-107,4,109,-58,-51,48,-53,-102,-151,-141,-63
-112,-107,4,109,-58,-51,53,-53,-102,-156,-141,-68
-117,-107,9,112,-63,-48,58,-53,-102,-161,-146,-73
-122,-107,14,114,-68,-46,53,-53,-112,-170,-151,-78
-112,-107,4,109,-58,-51,53,-58,-112,-161,-141,-68
-107,-102,4,104,-56,-48,48,-48,-107,-146,-131,-53
-97,-102,-4,100,-46,-53,48,-39,-87,-122,-107,-39
-87,-102,-14,95,-36,-58,58,29,53,-14,-43,-14
-48,-87,-39,68,-4,-63,39,39,131,73,34,48
4,-63,-68,29,36,-65,-24,-63,87,87,68,92
73,-43,-117,-14,95,-80,-180,-307,-136,4,73,136
151,-14,-165,-68,158,-90,-439,-717,-551,-195,29,170
229,39,-190,-134,209,-75,-639,-1044,-863,-341,53,263
302,161,-141,-231,222,9,-829,-1322,-1098,-400,156,429
395,322,-73,-358,234,124,-1034,-1571,-1268,-395,331,649
570,541,-29,-556,300,256,-1254,-1766,-1366,-204,683,1044
780,644,-136,-712,458,253,-1405,-1888,-1434,-78,985,1390
1068,658,-409,-863,739,124,-1551,-1947,-1537,-107,1098,1581
1244,649,-595,-946,919,26,-1639,-1922,-1625,-209,1010,1537
1293,605,-688,-949,990,-41,-1659,-1820,-1659,-434,644,1205
1224,448,-775,-836,1000,-163,-1537,-1634,-1634,-717,97,639
956,283,-673,-619,814,-195,-1254,-1439,-1542,-1010,-453,29
717,161,-556,-439,636,-197,-1010,-1215,-1376,-1098,-683,-283
570,97,-473,-334,522,-187,-839,-1054,-1239,-1039,-732,-380
434,14,-419,-224,427,-202,-668,-873,-1058,-946,-727,-424
283,-14,-297,-134,290,-156,-483,-649,-780,-756,-605,-375
161,-24,-185,-68,173,-104,-317,-439,-541,-556,-463,-278
97,0,-97,-48,97,-48,-200,-292,-370,-375,-307,-180
48,0,-48,-24,48,-24,-117,-175,-239,-258,-229,-112
9,-29,-39,9,24,-34,-39,-87,-122,-185,-180,-87
-29,-58,-29,43,0,-43,34,0,-24,-112,-136,-68
-53,-78,-24,65,-14,-51,87,73,24,-53,-92,-48
-63,-82,-19,73,-21,-51,112,102,43,-34,-78,-34
-73,-82,-9,78,-31,-46,117,107,63,-29,-78,-34
-87,-82,4,85,-46,-39,131,136,92,-14,-68,-29
-87,-87,0,87,-43,-43,141,146,102,0,-53,-24
-82,-87,-4,85,-39,-46,151,156,107,9,-43,-24
-82,-87,-4,85,-39,-46,151,161,117,19,-39,-19
-82,-87,-4,85,-39,-46,161,170,131,24,-34,-14
-82,-87,-4,85,-39,-46,165,180,141,34,-29,-9
-78,-87,-9,82,-34,-48,165,185,151,43,-19,-4
-78,-82,-4,80,-36,-43,165,190,161,53,-14,0
-78,-82,-4,80,-36,-43,170,200,175,68,-9,9
-78,-78,0,78,-39,-39,175,214,185,73,-4,9
-78,-78,0,78,-39,-39,180,224,195,82,4,14
-78,-78,0,78,-39,-39,180,229,204,92,14,19
-78,-78,0,78,-39,-39,190,244,224,102,14,19
-78,-68,9,73,-43,-29,190,244,234,112,19,24
-78,-63,14,70,-46,-24,195,258,244,122,29,29
-73,-63,9,68,-41,-26,200,268,258,131,34,39
-73,-63,9,68,-41,-26,200,273,278,146,39,43
-73,-53,19,63,-46,-17,204,287,292,156,53,48
-73,-43,29,58,-51,-7,209,302,302,170,58,48
-73,-34,39,53,-56,2,209,312,312,180,68,53
-68,-34,34,51,-51,0,214,326,336,195,82,53
-68,-39,29,53,-48,-4,219,341,351,209,87,68
-68,-39,29,53,-48,-4,229,356,375,229,102,78
-68,-34,34,51,-51,0,239,370,395,248,112,82
-63,-34,29,48,-46,-2,248,395,414,268,122,87
-63,-14,48,39,-56,17,248,409,439,283,131,92
-63,-4,58,34,-61,26,258,424,463,302,141,102
-63,0,63,31,-63,31,263,444,488,326,151,107
-58,4,63,26,-61,34,273,468,512,346,165,107
-58,9,68,24,-63,39,283,492,541,366,185,117
-58,19,78,19,-68,48,287,517,570,390,204,122
-53,19,73,17,-63,46,302,556,600,424,214,126
-53,24,78,14,-65,51,312,580,634,448,229,136
-53,29,82,12,-68,56,322,610,663,473,234,141
-48,43,92,2,-70,68,331,629,692,488,239,141
-43,53,97,-4,-70,75,341,663,722,512,248,141
-34,53,87,-9,-61,70,351,692,751,531,263,141
-34,58,92,-12,-63,75,366,712,780,556,278,146
-34,63,97,-14,-65,80,380,741,810,580,287,146
-34,78,112,-21,-73,95,385,771,824,595,287,156
-34,78,112,-21,-73,95,395,800,849,610,292,156
-29,92,122,-31,-75,107,395,810,878,619,292,151
-29,97,126,-34,-78,112,400,824,888,629,292,146
-24,97,122,-36,-73,109,405,839,902,639,297,141
-24,97,122,-36,-73,109,409,849,912,649,297,131
-24,102,126,-39,-75,114,405,844,907,639,283,126
-29,102,131,-36,-80,117,400,829,897,619,268,117
-29,102,131,-36,-80,117,395,805,868,605,253,107
-24,97,122,-36,-73,109,375,775,834,580,244,102
-19,97,117,-39,-68,107,351,732,780,541,219,82
-19,87,107,-34,-63,97,322,683,727,497,190,63
-24,78,102,-26,-63,90,292,610,658,448,161,53
-24,73,97,-24,-61,85,263,546,595,395,136,43
-24,73,97,-24,-61,85,234,483,522,346,117,34
-24,73,97,-24,-61,85,204,424,458,297,82,34
-24,58,82,-17,-53,70,175,346,385,244,68,34
-24,43,68,-9,-46,56,151,283,322,195,48,29
-24,39,63,-7,-43,51,122,229,263,156,39,34
-24,29,53,-2,-39,41,102,185,209,117,24,29
-24,29,53,-2,-39,41,82,141,156,78,9,34
-24,24,48,0,-36,36,58,107,112,43,-4,39
-29,14,43,7,-36,29,48,73,78,19,-9,39
-29,14,43,7,-36,29,34,43,48,-4,-19,39
-29,0,29,14,-29,14,24,24,14,-24,-34,43
-29,-4,24,17,-26,9,14,0,-14,-43,-43,43
-29,-9,19,19,-24,4,9,-14,-19,-53,-53,39
-39,-14,24,26,-31,4,9,-24,-29,-63,-53,34
-43,-14,29,29,-36,7,4,-34,-43,-73,-53,34
-48,-14,34,31,-41,9,4,-48,-53,-78,-58,29
-48,-19,29,34,-39,4,4,-48,-63,-87,-58,24
-53,-29,24,41,-39,-2,4,-43,-73,-87,-63,24
-53,-34,19,43,-36,-7,4,-43,-73,-92,-73,14
-53,-34,19,43,-36,-7,4,-48,-73,-102,-78,14
-58,-34,24,46,-41,-4,4,-58,-78,-102,-78,14
-58,-34,24,46,-41,-4,4,-63,-78,-102,-82,14
-58,-29,29,43,-43,0,4,-63,-78,-102,-82,9
-58,-29,29,43,-43,0,0,-63,-82,-107,-82,9
-58,-34,24,46,-41,-4,0,-63,-82,-107,-82,9
-58,-39,19,48,-39,-9,4,-63,-78,-107,-82,9
-58,-39,19,48,-39,-9,4,-58,-78,-107,-82,14
-58,-39,19,48,-39,-9,4,-58,-78,-107,-82,14
-63,-39,24,51,-43,-7,4,-58,-78,-102,-82,4
-68,-39,29,53,-48,-4,4,-58,-73,-102,-82,4
-68,-39,29,53,-48,-4,4,-53,-68,-102,-82,9
-63,-39,24,51,-43,-7,9,-48,-63,-97,-78,9
-58,-34,24,46,-41,-4,9,-43,-63,-92,-78,14
-58,-29,29,43,-43,0,9,-39,-63,-92,-73,14
-53,-29,24,41,-39,-2,14,-39,-58,-87,-73,14
-53,-29,24,41,-39,-2,14,-34,-53,-82,-73,14
-53,-29,24,41,-39,-2,14,-29,-53,-82,-68,19
-53,-29,24,41,-39,-2,14,-29,-48,-82,-68,19
-58,-34,24,46,-41,-4,14,-29,-48,-78,-63,19
-63,-39,24,51,-43,-7,19,-29,-43,-78,-63,19
-63,-34,29,48,-46,-2,19,-24,-39,-73,-63,14
-68,-34,34,51,-51,0,24,-24,-39,-73,-63,14
-68,-39,29,53,-48,-4,24,-24,-39,-68,-63,24
-63,-39,24,51,-43,-7,24,-19,-39,-68,-63,29
-63,-34,29,48,-46,-2,24,-19,-39,-68,-58,24
-63,-29,34,46,-48,2,24,-19,-39,-68,-58,24
-63,-34,29,48,-46,-2,24,-24,-39,-68,-58,24
-68,-34,34,51,-51,0,29,-29,-39,-68,-58,24
-68,-34,34,51,-51,0,29,-29,-39,-68,-58,24
-73,-39,34,56,-53,-2,24,-34,-39,-68,-58,29
-73,-39,34,56,-53,-2,24,-34,-39,-68,-63,29
-73,-39,34,56,-53,-2,24,-34,-43,-73,-63,29
-78,-39,39,58,-58,0,24,-29,-43,-73,-63,24
-78,-39,39,58,-58,0,29,-29,-43,-73,-63,19
-73,-34,39,53,-56,2,29,-29,-48,-78,-68,14
-73,-34,39,53,-56,2,24,-29,-48,-82,-73,14
-73,-34,39,53,-56,2,19,-29,-53,-87,-73,9
-73,-34,39,53,-56,2,14,-34,-58,-87,-78,0
-78,-39,39,58,-58,0,14,-34,-63,-92,-78,0
-78,-43,34,61,-56,-4,14,-39,-68,-92,-78,0
-82,-43,39,63,-61,-2,14,-39,-68,-92,-82,4
-82,-43,39,63,-61,-2,14,-39,-68,-97,-82,9
-78,-43,34,61,-56,-4,14,-39,-73,-102,-82,4
-78,-39,39,58,-58,0,14,-39,-78,-107,-87,4
-82,-39,43,61,-63,2,14,-39,-82,-107,-87,0
-87,-39,48,63,-68,4,19,-43,-82,-112,-97,0
-87,-43,43,65,-65,0,19,-53,-78,-112,-97,0
-87,-53,34,70,-61,-9,19,-58,-78,-117,-97,0
-82,-53,29,68,-56,-12,19,-58,-78,-117,-97,0
-82,-53,29,68,-56,-12,19,-58,-82,-117,-97,0
-82,-58,24,70,-53,-17,19,-58,-87,-117,-97,0
-82,-58,24,70,-53,-17,19,-63,-92,-117,-97,-4
-82,-53,29,68,-56,-12,19,-63,-92,-122,-102,-4
-82,-53,29,68,-56,-12,19,-63,-92,-122,-102,-4
-82,-53,29,68,-56,-12,19,-63,-87,-122,-107,-4
-82,-53,29,68,-56,-12,19,-63,-87,-122,-107,-9
-82,-58,24,70,-53,-17,19,-58,-87,-122,-107,-9
-87,-68,19,78,-53,-24,19,-58,-87,-126,-107,-9
-87,-58,29,73,-58,-14,19,-63,-87,-126,-112,-9
-87,-48,39,68,-63,-4,19,-68,-87,-126,-117,-9
-87,-48,39,68,-63,-4,19,-68,-87,-126,-117,-9
-87,-48,39,68,-63,-4,19,-68,-87,-126,-117,-9
-87,-43,43,65,-65,0,19,-63,-92,-122,-112,-9
-82,-34,48,58,-65,7,19,-58,-87,-117,-102,-4
-82,-29,53,56,-68,12,24,-53,-82,-112,-97,-4
-78,-9,68,43,-73,29,19,-48,-68,-102,-87,9
-78,4,82,36,-80,43,19,-48,-58,-97,-87,14
-73,9,82,31,-78,46,14,-48,-58,-92,-87,14
-73,14,87,29,-80,51,9,-48,-53,-87,-82,19
-73,19,92,26,-82,56,9,-39,-43,-78,-78,19
-68,19,87,24,-78,53,9,-34,-39,-78,-63,29
-63,14,78,24,-70,46,19,-24,-29,-68,-53,39
-58,14,73,21,-65,43,9,-24,-24,-63,-53,39
-53,9,63,21,-58,36,-9,-34,-19,-58,-53,39
-48,0,48,24,-48,24,-43,-63,-43,-68,-68,34
-48,0,48,24,-48,24,-63,-82,-73,-87,-73,24
-48,-14,34,31,-41,9,-68,-102,-92,-112,-92,9
-48,-14,34,31,-41,9,-73,-112,-112,-136,-112,-4
-43,-14,29,29,-36,7,-92,-122,-126,-136,-112,-4
-39,0,39,19,-39,19,-107,-126,-131,-136,-112,0
-29,19,48,4,-39,34,-117,-141,-131,-136,-102,4
-14,19,34,-2,-24,26,-117,-146,-141,-146,-102,9
0,19,19,-9,-9,19,-102,-131,-146,-151,-107,9
4,19,14,-12,-4,17,-97,-131,-156,-151,-117,4
9,14,4,-12,2,9,-97,-131,-156,-151,-117,-4
19,4,-14,-12,17,-4,-97,-136,-156,-156,-117,-14
14,14,0,-14,7,7,-97,-136,-161,-156,-117,-4
9,14,4,-12,2,9,-92,-131,-156,-141,-112,9
4,19,14,-12,-4,17,-73,-122,-146,-131,-102,9
-24,4,29,9,-26,17,-43,-107,-141,-131,-117,0
-48,-14,34,31,-41,9,-24,-87,-126,-131,-107,0
-68,-39,29,53,-48,-4,-4,-82,-117,-131,-107,0
-87,-48,39,68,-63,-4,4,-78,-117,-141,-117,-14
-102,-68,34,85,-68,-17,14,-73,-117,-141,-117,-19
-107,-78,29,92,-68,-24,24,-68,-117,-146,-131,-29
-107,-87,19,97,-63,-34,34,-63,-117,-151,-136,-43
-107,-97,9,102,-58,-43,29,-63,-117,-151,-136,-48
-112,-97,14,104,-63,-41,29,-63,-122,-161,-141,-53
-117,-97,19,107,-68,-39,29,-63,-122,-161,-141,-53
-126,-97,29,112,-78,-34,29,-63,-122,-161,-146,-53
-131,-97,34,114,-82,-31,34,-58,-126,-165,-146,-58
-122,-97,24,109,-73,-36,43,-58,-122,-151,-131,-48
-112,-87,24,100,-68,-31,34,-48,-102,-122,-117,-29
-97,-82,14,90,-56,-34,29,-39,-68,-82,-87,-9
-78,-73,4,75,-41,-34,24,9,63,34,-4,39
-29,-48,-19,39,-4,-34,-9,0,131,131,92,126
29,-14,-43,-7,36,-29,-107,-156,58,146,156,209
102,14,-87,-58,95,-36,-297,-453,-195,63,190,292
180,73,-107,-126,143,-17,-541,-839,-585,-112,185,366
258,156,-102,-207,180,26,-727,-1141,-873,-234,248,497
331,292,-39,-312,185,126,-912,-1405,-1093,-283,375,697
424,468,43,-446,190,256,-1112,-1639,-1249,-268,575,951
600,658,58,-629,270,358,-1307,-1805,-1371,-126,863,1298
810,732,-78,-771,444,326,-1434,-1898,-1464,-48,1102,1595
1029,717,-312,-873,671,202,-1546,-1952,-1586,-190,1044,1634
1137,678,-458,-907,797,109,-1600,-1922,-1693,-405,785,1439
1122,605,-517,-863,819,43,-1581,-1795,-1712,-624,390,1024
990,419,-570,-705,780,-75,-1420,-1586,-1673,-902,-185,375
751,268,-483,-509,617,-107,-1141,-1371,-1522,-1098,-610,-112
541,161,-380,-351,461,-109,-902,-1127,-1298,-1088,-712,-302
429,107,-322,-268,375,-107,-751,-956,-1146,-976,-712,-356
326,34,-292,-180,309,-129,-600,-766,-951,-829,-658,-356
200,14,-185,-107,192,-85,-414,-551,-673,-639,-522,-297
102,14,-87,-58,95,-36,-248,-351,-434,-439,-366,-190
48,24,-24,-36,36,0,-156,-224,-297,-292,-244,-117
9,9,0,-9,4,4,-97,-126,-200,-209,-200,-73
-19,-29,-9,24,-4,-19,-24,-48,-92,-151,-161,-58
-48,-68,-19,58,-14,-43,43,29,-4,-92,-126,-48
-63,-87,-24,75,-19,-56,82,82,24,-39,-92,-39
-63,-92,-29,78,-17,-61,92,92,24,-24,-87,-34
-68,-82,-14,75,-26,-48,97,97,43,-19,-82,-34
-78,-73,4,75,-41,-34,112,126,73,-4,-68,-29
-78,-78,0,78,-39,-39,117,131,82,4,-58,-24
-73,-78,-4,75,-34,-41,122,136,87,9,-53,-24
-73,-82,-9,78,-31,-46,122,141,97,24,-48,-14
-73,-87,-14,80,-29,-51,131,151,112,34,-43,-4
-78,-87,-9,82,-34,-48,136,165,122,43,-34,0
-78,-87,-9,82,-34,-48,136,175,131,53,-19,4
-73,-82,-9,78,-31,-46,136,180,136,63,-14,4
-68,-82,-14,75,-26,-48,141,190,146,78,-9,9
-68,-78,-9,73,-29,-43,146,200,156,82,-4,9
-68,-78,-9,73,-29,-43,151,204,165,92,4,14
-68,-78,-9,73,-29,-43,146,209,175,102,14,19
-68,-78,-9,73,-29,-43,151,224,195,112,14,19
-68,-68,0,68,-34,-34,151,224,204,122,19,19
-68,-63,4,65,-36,-29,156,239,214,131,29,19
-63,-63,0,63,-31,-31,161,248,229,141,34,34
-63,-63,0,63,-31,-31,161,253,248,156,39,43
-63,-63,0,63,-31,-31,165,268,263,170,53,48
-63,-63,0,63,-31,-31,170,283,273,190,58,48
-58,-53,4,56,-31,-24,170,292,283,200,68,53
-48,-53,-4,51,-21,-29,175,307,307,214,82,53
-48,-48,0,48,-24,-24,180,322,322,229,87,63
-48,-39,9,43,-29,-14,190,336,346,248,102,68
-48,-34,14,41,-31,-9,195,346,366,268,112,73
-43,-34,9,39,-26,-12,200,366,385,287,122,78
-43,-24,19,34,-31,-2,200,380,409,302,136,82
-43,-24,19,34,-31,-2,209,395,434,322,151,92
-43,-19,24,31,-34,2,214,414,458,346,161,97
-39,-14,24,26,-31,4,224,439,483,366,175,97
-34,-9,24,21,-29,7,234,463,507,380,185,107
-29,0,29,14,-29,14,239,488,531,400,195,112
-24,0,24,12,-24,12,253,517,561,434,204,117
-24,4,29,9,-26,17,263,531,595,458,219,126
-24,14,39,4,-31,26,268,561,624,483,229,131
-19,34,53,-7,-36,43,273,580,653,497,239,131
-19,43,63,-12,-41,53,283,610,683,527,253,131
-14,43,58,-14,-36,51,292,634,712,551,273,131
-9,43,53,-17,-31,48,302,653,741,575,283,136
-4,43,48,-19,-26,46,312,683,771,600,287,136
-4,58,63,-26,-34,61,317,702,775,614,287,141
-4,58,63,-26,-34,61,326,722,790,629,292,136
0,68,68,-34,-34,68,326,732,814,639,302,131
0,68,68,-34,-34,68,331,746,819,649,312,126
9,78,68,-43,-29,73,331,751,834,653,312,122
14,87,73,-51,-29,80,331,751,844,658,307,112
14,92,78,-53,-31,85,322,746,834,653,292,107
9,92,82,-51,-36,87,312,732,819,639,278,97
4,87,82,-46,-39,85,307,697,785,614,258,82
4,78,73,-41,-34,75,287,658,746,580,244,73
9,78,68,-43,-29,73,268,619,697,541,219,58
9,68,58,-39,-24,63,244,575,649,497,190,43
0,58,58,-29,-29,58,219,507,580,448,170,39
-4,53,58,-24,-31,56,195,448,517,395,156,34
-4,53,58,-24,-31,56,165,390,444,346,131,19
-4,53,58,-24,-31,56,136,336,380,297,92,14
-4,48,53,-21,-29,51,107,273,312,239,68,9
-4,43,48,-19,-26,46,82,224,253,185,39,0
-14,39,53,-12,-34,46,63,175,200,151,29,9
-24,29,53,-2,-39,41,53,136,151,117,14,9
-24,24,48,0,-36,36,39,97,107,82,4,19
-24,14,39,4,-31,26,19,68,73,53,-4,29
-34,4,39,14,-36,21,14,39,43,34,-9,29
-39,4,43,17,-41,24,4,14,19,14,-19,29
-39,-9,29,24,-34,9,0,0,-9,-14,-29,24
-39,-14,24,26,-31,4,-4,-19,-34,-43,-34,14
-39,-19,19,29,-29,0,-9,-34,-39,-53,-48,9
-48,-24,24,36,-36,0,-9,-43,-48,-63,-53,4
-48,-24,24,36,-36,0,-14,-48,-63,-73,-58,4
-48,-24,24,36,-36,0,-14,-58,-73,-78,-68,0
-48,-29,19,39,-34,-4,-14,-63,-78,-87,-73,-4
-53,-39,14,46,-34,-12,-14,-63,-82,-87,-82,-4
-53,-43,9,48,-31,-17,-14,-63,-87,-92,-87,-14
-53,-43,9,48,-31,-17,-14,-68,-92,-102,-87,-14
-58,-43,14,51,-36,-14,-14,-68,-97,-102,-87,-14
-58,-43,14,51,-36,-14,-14,-63,-97,-102,-92,-14
-58,-39,19,48,-39,-9,-14,-63,-92,-97,-92,-19
-58,-39,19,48,-39,-9,-19,-63,-92,-97,-92,-19
-58,-39,19,48,-39,-9,-19,-63,-92,-97,-87,-19
-58,-39,19,48,-39,-9,-14,-63,-87,-97,-82,-19
-58,-43,14,51,-36,-14,-14,-58,-87,-97,-82,-9
-58,-48,9,53,-34,-19,-14,-58,-87,-97,-82,-4
-58,-48,9,53,-34,-19,-14,-58,-87,-87,-78,-14
-58,-48,9,53,-34,-19,-14,-58,-82,-82,-73,-14
-58,-48,9,53,-34,-19,-9,-53,-78,-82,-73,-9
-53,-48,4,51,-29,-21,0,-48,-73,-78,-68,-9
-53,-48,4,51,-29,-21,0,-43,-68,-73,-68,-4
-58,-48,9,53,-34,-19,0,-39,-63,-73,-63,-4
-58,-48,9,53,-34,-19,0,-39,-58,-68,-63,-4
-63,-48,14,56,-39,-17,-4,-34,-53,-63,-63,-4
-63,-48,14,56,-39,-17,-4,-29,-53,-63,-58,0
-63,-48,14,56,-39,-17,-4,-29,-48,-63,-58,0
-58,-48,9,53,-34,-19,-4,-29,-48,-58,-53,0
-53,-48,4,51,-29,-21,0,-29,-43,-58,-53,0
-53,-43,9,48,-31,-17,0,-24,-39,-53,-53,-4
-58,-43,14,51,-36,-14,4,-24,-39,-53,-53,-4
-58,-48,9,53,-34,-19,4,-24,-39,-48,-58,-4
-53,-48,4,51,-29,-21,4,-19,-39,-48,-63,-9
-53,-48,4,51,-29,-21,4,-19,-43,-53,-58,-14
-53,-48,4,51,-29,-21,4,-19,-48,-58,-58,-14
-53,-48,4,51,-29,-21,4,-19,-48,-58,-58,-14
-58,-43,14,51,-36,-14,9,-19,-48,-58,-58,-14
-58,-43,14,51,-36,-14,14,-19,-48,-58,-58,-14
-63,-48,14,56,-39,-17,14,-24,-48,-58,-58,-9
-63,-53,9,58,-36,-21,14,-24,-48,-58,-63,-14
-63,-58,4,61,-34,-26,14,-24,-53,-63,-63,-19
-68,-58,9,63,-39,-24,9,-24,-53,-63,-63,-19
-68,-58,9,63,-39,-24,9,-29,-53,-63,-63,-19
-63,-58,4,61,-34,-26,9,-34,-58,-68,-68,-24
-63,-63,0,63,-31,-31,4,-39,-58,-73,-73,-24
-63,-63,0,63,-31,-31,4,-39,-63,-78,-73,-29
-63,-63,0,63,-31,-31,4,-43,-68,-78,-78,-39
-68,-68,0,68,-34,-34,4,-43,-73,-82,-78,-39
-68,-73,-4,70,-31,-39,4,-48,-78,-82,-78,-39
-73,-73,0,73,-36,-36,4,-48,-78,-82,-82,-39
-73,-73,0,73,-36,-36,4,-48,-78,-87,-82,-39
-68,-78,-9,73,-29,-43,4,-48,-82,-92,-87,-43
-68,-78,-9,73,-29,-43,4,-48,-87,-97,-97,-43
-73,-78,-4,75,-34,-41,4,-43,-87,-97,-97,-53
-78,-78,0,78,-39,-39,9,-43,-82,-102,-107,-58
-78,-78,0,78,-39,-39,9,-48,-82,-102,-107,-58
-78,-82,-4,80,-36,-43,9,-48,-87,-107,-107,-58
-73,-78,-4,75,-34,-41,9,-48,-87,-107,-107,-58
-73,-73,0,73,-36,-36,9,-48,-92,-107,-107,-58
-73,-78,-4,75,-34,-41,9,-48,-92,-107,-107,-58
-73,-78,-4,75,-34,-41,9,-53,-92,-107,-107,-63
-78,-73,4,75,-41,-34,9,-53,-92,-112,-107,-63
-82,-73,9,78,-46,-31,9,-53,-92,-112,-102,-63
-82,-73,9,78,-46,-31,9,-58,-92,-112,-107,-63
-82,-73,9,78,-46,-31,9,-63,-97,-112,-107,-68
-82,-78,4,80,-43,-36,9,-58,-97,-112,-107,-68
-87,-87,0,87,-43,-43,9,-58,-97,-117,-107,-68
-87,-87,0,87,-43,-43,4,-58,-97,-117,-107,-68
-87,-87,0,87,-43,-43,0,-58,-97,-117,-107,-68
-87,-82,4,85,-46,-39,0,-58,-97,-117,-112,-73
-82,-73,9,78,-46,-31,0,-58,-92,-112,-112,-73
-82,-68,14,75,-48,-26,4,-58,-92,-107,-112,-78
-82,-58,24,70,-53,-17,4,-53,-82,-102,-107,-73
-78,-39,39,58,-58,0,0,-48,-68,-92,-97,-53
-78,-24,53,51,-65,14,0,-48,-58,-87,-92,-43
-73,-19,53,46,-63,17,-4,-48,-63,-82,-87,-43
-73,-14,58,43,-65,21,-4,-48,-63,-78,-82,-39
-73,-9,63,41,-68,26,0,-39,-53,-68,-78,-43
-68,-4,63,36,-65,29,0,-34,-48,-68,-68,-39
-63,-4,58,34,-61,26,14,-24,-39,-58,-63,-29
-58,-4,53,31,-56,24,9,-24,-39,-58,-63,-29
-53,-4,48,29,-51,21,-9,-34,-34,-58,-58,-29
-48,-14,34,31,-41,9,-43,-63,-53,-68,-68,-34
-53,-19,34,36,-43,7,-63,-82,-82,-87,-73,-43
-58,-39,19,48,-39,-9,-68,-102,-102,-107,-92,-58
-58,-43,14,51,-36,-14,-73,-112,-117,-126,-112,-73
-53,-43,9,48,-31,-17,-87,-122,-122,-126,-112,-73
-48,-29,19,39,-34,-4,-97,-126,-122,-122,-112,-68
-39,-9,29,24,-34,9,-107,-136,-122,-117,-102,-63
-24,-9,14,17,-19,2,-112,-141,-136,-126,-102,-58
-9,-9,0,9,-4,-4,-102,-131,-141,-126,-102,-58
-4,-9,-4,7,0,-7,-97,-131,-151,-126,-107,-63
0,-4,-4,2,2,-4,-97,-131,-156,-131,-107,-63
9,-4,-14,-2,12,-9,-97,-136,-156,-141,-107,-68
9,4,-4,-7,7,0,-97,-136,-156,-146,-102,-63
14,9,-4,-12,9,2,-92,-131,-141,-131,-92,-48
14,14,0,-14,7,7,-78,-122,-126,-122,-82,-48
-9,-4,4,7,-7,0,-53,-102,-122,-117,-97,-48
-34,-24,9,29,-21,-7,-34,-82,-117,-117,-97,-48
-58,-48,9,53,-34,-19,-14,-82,-117,-122,-107,-58
-78,-58,19,68,-48,-19,-4,-78,-117,-131,-117,-73
-97,-78,19,87,-58,-29,4,-73,-117,-131,-117,-82
-107,-87,19,97,-63,-34,14,-68,-117,-136,-131,-92
-107,-102,4,104,-56,-48,24,-63,-117,-141,-136,-102
-107,-117,-9,112,-48,-63,24,-63,-117,-141,-136,-107
-112,-126,-14,119,-48,-70,34,-63,-122,-151,-141,-112
-112,-136,-24,124,-43,-80,39,-63,-122,-151,-141,-112
-117,-126,-9,122,-53,-68,39,-68,-126,-156,-151,-122
-117,-117,0,117,-58,-58,34,-68,-131,-161,-156,-131
-102,-117,-14,109,-43,-65,34,-68,-126,-151,-151,-122
-92,-112,-19,102,-36,-65,24,-58,-112,-131,-136,-107
-97,-117,-19,107,-39,-68,34,-34,-78,-102,-112,-97
-97,-117,-19,107,-39,-68,34,0,-4,-29,-63,-68
-48,-97,-48,73,0,-73,43,68,161,141,68,24
4,-63,-68,29,36,-65,-9,-4,161,204,156,107
58,-24,-82,-17,70,-53,-195,-312,-136,92,170,175
122,48,-73,-85,97,-12,-414,-639,-448,-19,214,283
185,92,-92,-139,139,0,-590,-927,-771,-185,248,400
258,200,-58,-229,158,70,-775,-1185,-1029,-253,356,585
317,429,112,-373,102,270,-1005,-1464,-1210,-239,575,854
444,634,190,-539,126,412,-1210,-1678,-1351,-151,839,1190
653,732,78,-692,287,405,-1342,-1790,-1444,14,1249,1664
854,780,-73,-817,463,353,-1459,-1849,-1542,9,1381,1869
1024,790,-234,-907,629,278,-1566,-1859,-1654,-136,1263,1839
1068,751,-317,-910,692,217,-1595,-1830,-1708,-356,951,1571
966,531,-434,-749,700,48,-1454,-1620,-1659,-702,219,775
800,356,-444,-578,622,-43,-1244,-1429,-1571,-961,-336,151
590,244,-346,-417,468,-51,-995,-1200,-1385,-1034,-556,-165
458,175,-283,-317,370,-53,-810,-1019,-1234,-1015,-678,-356
356,73,-283,-214,319,-104,-658,-844,-1039,-888,-663,-405
234,24,-209,-129,222,-92,-492,-649,-785,-712,-566,-385
131,24,-107,-78,119,-41,-317,-424,-527,-512,-414,-287
68,24,-43,-46,56,-9,-195,-263,-346,-351,-283,-214
29,-4,-34,-12,31,-19,-136,-170,-248,-248,-224,-165
-4,-39,-34,21,14,-36,-63,-87,-151,-170,-170,-146
-39,-68,-29,53,-4,-48,19,0,-53,-112,-136,-136
-53,-87,-34,70,-9,-61,73,63,4,-63,-102,-126
-53,-97,-43,75,-4,-70,82,73,14,-43,-92,-117
-58,-102,-43,80,-7,-73,87,78,34,-29,-87,-112
-68,-102,-34,85,-17,-68,102,112,68,-14,-78,-107
-68,-107,-39,87,-14,-73,107,122,78,-4,-68,-102
-63,-107,-43,85,-9,-75,112,126,78,4,-63,-102
-63,-107,-43,85,-9,-75,112,131,87,19,-58,-97
-63,-107,-43,85,-9,-75,122,136,102,24,-53,-97
-68,-107,-39,87,-14,-73,126,146,112,34,-48,-97
-63,-107,-43,85,-9,-75,126,156,122,43,-34,-92
-58,-102,-43,80,-7,-73,126,161,131,53,-24,-92
-58,-102,-43,80,-7,-73,131,170,146,68,-19,-87
-58,-97,-39,78,-9,-68,136,180,156,73,-14,-87
-58,-97,-39,78,-9,-68,141,185,165,82,-4,-82
-58,-97,-39,78,-9,-68,141,190,175,92,4,-78
-58,-97,-39,78,-9,-68,146,200,190,102,4,-78
-58,-87,-29,73,-14,-58,141,195,195,112,9,-78
-58,-82,-24,70,-17,-53,146,209,204,122,24,-78
-53,-82,-29,68,-12,-56,151,219,219,131,34,-68
-58,-82,-24,70,-17,-53,151,224,239,146,39,-58
-63,-82,-19,73,-21,-51,156,239,253,161,53,-48
-63,-92,-29,78,-17,-61,161,253,263,180,58,-48
-63,-92,-29,78,-17,-61,161,263,278,190,68,-43
-53,-82,-29,68,-12,-56,165,273,302,200,78,-48
-48,-68,-19,58,-14,-43,170,283,312,209,78,-43
-48,-58,-9,53,-19,-34,175,297,331,224,92,-39
-48,-53,-4,51,-21,-29,180,312,346,239,102,-34
-43,-53,-9,48,-17,-31,190,331,366,258,112,-29
-43,-39,4,41,-24,-17,190,341,390,273,122,-24
-43,-34,9,39,-26,-12,200,356,414,292,131,-14
-43,-29,14,36,-29,-7,204,375,439,317,141,-9
-39,-29,9,34,-24,-9,214,400,463,336,156,-14
-39,-29,9,34,-24,-9,224,424,492,356,170,-9
-39,-19,19,29,-29,0,229,448,522,380,185,-4
-34,-19,14,26,-24,-2,244,478,551,414,195,0
-29,-14,14,21,-21,0,253,492,585,439,209,9
-24,-9,14,17,-19,2,263,522,614,463,219,14
-19,4,24,7,-21,14,273,536,644,483,229,14
-19,14,34,2,-26,24,283,566,673,512,239,14
-14,14,29,0,-21,21,287,595,702,531,253,14
-14,19,34,-2,-24,26,297,614,732,556,263,19
-14,19,34,-2,-24,26,312,644,761,580,273,19
-14,29,43,-7,-29,36,317,663,775,595,278,19
-14,29,43,-7,-29,36,326,683,800,610,283,9
-9,39,48,-14,-29,43,326,692,824,619,283,4
-9,39,48,-14,-29,43,331,707,834,629,283,-4
-4,39,43,-17,-24,41,331,712,844,629,283,-14
-4,39,43,-17,-24,41,336,727,858,644,283,-24
-4,43,48,-19,-26,46,331,727,854,644,273,-29
-9,43,53,-17,-31,48,326,712,839,624,258,-34
-9,43,53,-17,-31,48,322,688,810,605,239,-39
-9,43,53,-17,-31,48,302,653,775,575,234,-43
-9,48,58,-19,-34,53,283,614,732,536,219,-53
-9,39,48,-14,-29,43,263,575,683,492,180,-68
-9,29,39,-9,-24,34,244,517,614,448,151,-78
-14,24,39,-4,-26,31,219,458,551,395,136,-87
-24,24,48,0,-36,36,195,400,483,346,117,-102
-24,34,58,-4,-41,46,165,346,419,292,82,-107
-24,34,58,-4,-41,46,136,283,351,239,68,-107
-24,24,48,0,-36,36,112,234,287,190,43,-107
-24,19,43,2,-34,31,87,185,229,151,29,-97
-24,9,34,7,-29,21,73,141,175,112,14,-97
-24,9,34,7,-29,21,58,97,126,73,4,-92
-24,4,29,9,-26,17,29,68,82,39,-4,-87
-29,-4,24,17,-26,9,14,39,43,14,-9,-87
-29,-4,24,17,-26,9,4,9,14,-9,-24,-87
-29,-19,9,24,-19,-4,0,-4,-14,-34,-39,-82
-29,-24,4,26,-17,-9,-4,-19,-39,-53,-43,-82
-29,-29,0,29,-14,-14,-9,-34,-48,-63,-53,-87
-39,-34,4,36,-21,-14,-9,-43,-58,-78,-53,-92
-39,-34,4,36,-21,-14,-14,-48,-73,-92,-58,-92
-43,-34,9,39,-26,-12,-14,-58,-82,-97,-68,-92
-48,-39,9,43,-29,-14,-14,-58,-87,-107,-68,-92
-53,-48,4,51,-29,-21,-14,-53,-92,-107,-68,-92
-53,-53,0,53,-26,-26,-14,-53,-92,-107,-68,-102
-48,-53,-4,51,-21,-29,-14,-58,-92,-112,-68,-102
-48,-53,-4,51,-21,-29,-14,-63,-97,-112,-68,-102
-48,-63,-14,56,-17,-39,-14,-63,-97,-112,-73,-102
-48,-68,-19,58,-14,-43,-14,-63,-97,-112,-73,-107
-48,-68,-19,58,-14,-43,-19,-63,-102,-117,-73,-107
-48,-68,-19,58,-14,-43,-19,-63,-102,-117,-73,-107
-48,-68,-19,58,-14,-43,-14,-63,-97,-117,-73,-112
-48,-68,-19,58,-14,-43,-14,-58,-97,-117,-73,-112
-48,-68,-19,58,-14,-43,-14,-58,-97,-112,-73,-112
-48,-68,-19,58,-14,-43,-14,-58,-97,-102,-73,-122
-48,-68,-19,58,-14,-43,-14,-58,-92,-102,-73,-122
-48,-68,-19,58,-14,-43,-14,-58,-87,-102,-73,-117
-43,-63,-19,53,-12,-41,-9,-63,-82,-97,-68,-117
-43,-58,-14,51,-14,-36,-9,-63,-82,-92,-68,-112
-43,-58,-14,51,-14,-36,-9,-58,-82,-92,-63,-112
-39,-58,-19,48,-9,-39,-4,-58,-78,-87,-63,-112
-43,-58,-14,51,-14,-36,-4,-53,-68,-82,-63,-112
-43,-58,-14,51,-14,-36,-4,-48,-63,-82,-58,-107
-43,-58,-14,51,-14,-36,-4,-43,-58,-82,-58,-107
-43,-58,-14,51,-14,-36,-4,-39,-58,-78,-53,-107
-43,-63,-19,53,-12,-41,0,-39,-53,-78,-48,-102
-43,-63,-19,53,-12,-41,0,-34,-48,-73,-43,-102
-48,-63,-14,56,-17,-39,4,-34,-48,-73,-43,-102
-48,-68,-19,58,-14,-43,4,-34,-48,-68,-43,-97
-43,-68,-24,56,-9,-46,4,-24,-48,-68,-43,-97
-43,-68,-24,56,-9,-46,4,-19,-48,-68,-39,-102
-43,-68,-24,56,-9,-46,4,-19,-48,-63,-34,-102
-43,-73,-29,58,-7,-51,4,-19,-48,-58,-29,-102
-48,-73,-24,61,-12,-48,9,-19,-48,-58,-29,-102
-48,-73,-24,61,-12,-48,9,-19,-48,-58,-29,-102
-53,-78,-24,65,-14,-51,4,-24,-48,-58,-29,-102
-53,-78,-24,65,-14,-51,4,-24,-48,-58,-34,-107
-53,-78,-24,65,-14,-51,4,-24,-53,-63,-34,-107
-58,-78,-19,68,-19,-48,4,-24,-53,-63,-34,-107
-58,-78,-19,68,-19,-48,9,-29,-48,-63,-34,-107
-53,-78,-24,65,-14,-51,9,-29,-48,-68,-39,-112
-53,-82,-29,68,-12,-56,9,-29,-48,-73,-43,-107
-53,-82,-29,68,-12,-56,14,-29,-53,-78,-43,-107
-53,-82,-29,68,-12,-56,14,-34,-63,-78,-48,-117
-58,-82,-24,70,-17,-53,14,-34,-68,-82,-48,-117
-58,-87,-29,73,-14,-58,14,-39,-68,-82,-48,-117
-63,-92,-29,78,-17,-61,14,-39,-68,-82,-53,-117
-63,-92,-29,78,-17,-61,14,-39,-68,-87,-53,-122
-58,-97,-39,78,-9,-68,14,-39,-73,-92,-53,-131
-58,-97,-39,78,-9,-68,9,-39,-78,-97,-63,-131
-58,-97,-39,78,-9,-68,0,-39,-82,-97,-68,-136
-58,-97,-39,78,-9,-68,0,-43,-82,-102,-78,-136
-58,-97,-39,78,-9,-68,0,-48,-82,-102,-78,-136
-58,-102,-43,80,-7,-73,4,-48,-87,-107,-73,-136
-58,-102,-43,80,-7,-73,9,-48,-87,-107,-68,-136
-63,-97,-34,80,-14,-65,9,-48,-92,-107,-68,-136
-63,-97,-34,80,-14,-65,9,-48,-92,-107,-68,-136
-63,-97,-34,80,-14,-65,4,-53,-92,-112,-68,-146
-63,-92,-29,78,-17,-61,0,-53,-92,-122,-73,-151
-63,-92,-29,78,-17,-61,-4,-53,-92,-122,-73,-151
-63,-92,-29,78,-17,-61,-9,-53,-92,-122,-78,-151
-63,-92,-29,78,-17,-61,-9,-53,-97,-122,-78,-156
-63,-92,-29,78,-17,-61,-9,-53,-97,-122,-78,-156
-63,-97,-34,80,-14,-65,-4,-53,-102,-122,-73,-156
-63,-97,-34,80,-14,-65,0,-53,-107,-122,-73,-161
-63,-102,-39,82,-12,-70,0,-58,-107,-122,-78,-161
-63,-107,-43,85,-9,-75,-4,-63,-102,-122,-78,-161
-68,-112,-43,90,-12,-78,-4,-58,-102,-122,-82,-161
-68,-112,-43,90,-12,-78,0,-58,-97,-122,-78,-165
-68,-107,-39,87,-14,-73,0,-58,-102,-126,-82,-165
-63,-102,-39,82,-12,-70,0,-58,-102,-131,-78,-175
-58,-97,-39,78,-9,-68,4,-58,-102,-122,-82,-151
-58,-107,-48,82,-4,-78,9,-58,-97,-122,-82,-151
-58,-97,-39,78,-9,-68,4,-53,-92,-117,-82,-161
-58,-92,-34,75,-12,-63,4,-48,-92,-112,-82,-156
-53,-82,-29,68,-12,-56,4,-43,-87,-102,-63,-151
-48,-63,-14,56,-17,-39,0,-43,-78,-97,-53,-146
-43,-53,-9,48,-17,-31,0,-34,-68,-92,-48,-141
-39,-43,-4,41,-17,-24,0,-29,-53,-87,-43,-136
-39,-39,0,39,-19,-19,9,-29,-39,-78,-34,-131
-39,-34,4,36,-21,-14,4,-29,-29,-73,-34,-126
-43,-29,14,36,-29,-7,0,-19,-19,-63,-24,-126
-43,-34,9,39,-26,-12,0,-19,-24,-58,-24,-122
-43,-34,9,39,-26,-12,0,-19,-24,-58,-24,-122
