I, II, III, aVR, aVL, aVF, V1, V2, V3, V4, V5, V6
0,0,0,0,0,0,-19,-39,-9,9,-29,-29
0,-9,-9,4,4,-9,-14,-39,-9,0,-34,-29
0,-19,-19,9,9,-19,-9,-39,-9,-9,-39,-29
0,-19,-19,9,9,-19,-9,-39,-4,-19,-53,-43
0,-19,-19,9,9,-19,-9,-39,0,-29,-68,-58
-4,-19,-14,12,4,-17,-4,-39,0,-29,-68,-58
-9,-19,-9,14,0,-14,0,-39,0,-29,-68,-58
-9,-19,-9,14,0,-14,0,-39,0,-29,-68,-58
-9,-19,-9,14,0,-14,0,-39,0,-29,-68,-58
-9,-24,-14,17,2,-19,0,-39,0,-29,-68,-63
-9,-29,-19,19,4,-24,0,-39,0,-29,-68,-68
-9,-29,-19,19,4,-24,0,-39,0,-34,-73,-73
-9,-29,-19,19,4,-24,0,-39,0,-39,-78,-78
-9,-29,-19,19,4,-24,0,-43,0,-39,-78,-78
-9,-29,-19,19,4,-24,0,-48,0,-39,-78,-78
-9,-29,-19,19,4,-24,0,-53,0,-39,-82,-82
-9,-29,-19,19,4,-24,0,-58,0,-39,-87,-87
-9,-29,-19,19,4,-24,-4,-58,0,-39,-87,-87
-9,-29,-19,19,4,-24,-9,-58,0,-39,-87,-87
-9,-29,-19,19,4,-24,-9,-58,0,-34,-82,-82
-9,-29,-19,19,4,-24,-9,-58,0,-29,-78,-78
-9,-29,-19,19,4,-24,-9,-58,-4,-29,-78,-78
-9,-29,-19,19,4,-24,-9,-58,-9,-29,-78,-78
-9,-24,-14,17,2,-19,-9,-63,-9,-29,-78,-78
-9,-19,-9,14,0,-14,-9,-68,-9,-29,-78,-78
-9,-19,-9,14,0,-14,-9,-68,-4,-29,-78,-78
-9,-19,-9,14,0,-14,-9,-68,0,-29,-78,-78
-9,-19,-9,14,0,-14,-14,-73,0,-29,-73,-73
-9,-19,-9,14,0,-14,-19,-78,0,-29,-68,-68
-9,-19,-9,14,0,-14,-19,-78,-4,-24,-68,-63
-9,-19,-9,14,0,-14,-19,-78,-9,-19,-68,-58
-4,-19,-14,12,4,-17,-19,-78,-9,-19,-63,-58
0,-19,-19,9,9,-19,-19,-78,-9,-19,-58,-58
0,-19,-19,9,9,-19,-19,-78,-9,-19,-58,-58
0,-19,-19,9,9,-19,-19,-78,-9,-19,-58,-58
0,-19,-19,9,9,-19,-19,-82,-9,-24,-58,-58
0,-19,-19,9,9,-19,-19,-87,-9,-29,-58,-58
-4,-14,-9,9,2,-12,-19,-87,-9,-29,-63,-68
-9,-9,0,9,-4,-4,-19,-87,-9,-29,-68,-78
-9,-9,0,9,-4,-4,-19,-87,-9,-24,-68,-68
-9,-9,0,9,-4,-4,-19,-87,-9,-19,-68,-58
-9,-9,0,9,-4,-4,-19,-87,-9,-19,-63,-53
-9,-9,0,9,-4,-4,-19,-87,-9,-19,-58,-48
-9,-9,0,9,-4,-4,-24,-87,-9,-19,-58,-48
-9,-9,0,9,-4,-4,-29,-87,-9,-19,-58,-48
-9,-4,4,7,-7,0,-29,-92,-9,-19,-58,-53
-9,0,9,4,-9,4,-29,-97,-9,-19,-58,-58
-9,0,9,4,-9,4,-29,-97,-9,-19,-58,-58
-9,0,9,4,-9,4,-29,-97,-9,-19,-58,-58
-9,0,9,4,-9,4,-29,-97,-9,-19,-58,-58
-9,0,9,4,-9,4,-29,-97,-9,-19,-58,-58
-9,0,9,4,-9,4,-29,-97,-9,-19,-58,-58
-9,0,9,4,-9,4,-29,-97,-9,-19,-58,-58
-9,0,9,4,-9,4,-29,-97,-9,-24,-58,-58
-9,0,9,4,-9,4,-29,-97,-9,-19,-58,-58
-9,0,9,4,-9,4,-29,-97,-9,-19,-58,-58
-9,9,19,0,-14,14,-29,-97,-9,-19,-58,-63
-9,14,24,-2,-17,19,-24,-92,-4,-19,-58,-63
-9,24,34,-7,-21,29,-14,-78,9,-4,-53,-58
-4,39,43,-17,-24,41,9,-68,19,4,-48,-53
-4,48,53,-21,-29,51,29,-58,29,9,-43,-43
0,58,58,-29,-29,58,24,-53,29,14,-39,-34
4,73,68,-39,-31,70,19,-48,29,19,-34,-29
9,82,73,-46,-31,78,14,-48,34,24,-29,-29
19,107,87,-63,-34,97,14,-53,43,34,-24,-24
29,117,87,-73,-29,102,-14,-68,53,43,-9,-9
34,141,107,-87,-36,124,-58,-87,68,48,4,4
48,161,112,-104,-31,136,-87,-107,68,48,9,9
53,170,117,-112,-31,143,-112,-117,63,48,14,9
63,180,117,-122,-26,148,-141,-122,68,48,14,19
82,209,126,-146,-21,168,-170,-126,68,58,29,34
102,224,122,-163,-9,173,-185,-136,58,68,43,43
112,234,122,-173,-4,178,-190,-136,48,73,48,53
126,239,112,-183,7,175,-195,-136,43,82,63,68
136,234,97,-185,19,165,-195,-136,34,92,78,87
136,229,92,-183,21,161,-185,-131,24,92,78,87
131,200,68,-165,31,134,-185,-141,9,63,58,73
117,180,63,-148,26,122,-175,-146,0,48,39,63
102,161,58,-131,21,109,-161,-141,-4,43,29,53
68,141,73,-104,-2,107,-131,-126,-4,43,29,43
53,122,68,-87,-7,95,-112,-112,0,53,29,34
29,92,63,-61,-17,78,-73,-92,0,48,24,29
4,48,43,-26,-19,46,-48,-97,-9,24,-4,-9
-19,-9,9,14,-14,0,-34,-107,-34,-19,-53,-53
-24,-24,0,24,-12,-12,-29,-107,-43,-29,-63,-58
-24,-29,-4,26,-9,-17,-29,-112,-43,-43,-78,-73
-19,-34,-14,26,-2,-24,-29,-112,-43,-43,-82,-78
-29,-39,-9,34,-9,-24,-29,-112,-43,-43,-82,-78
-29,-39,-9,34,-9,-24,-29,-112,-39,-43,-82,-73
-24,-43,-19,34,-2,-31,-29,-112,-39,-43,-78,-73
-24,-48,-24,36,0,-36,-29,-112,-43,-43,-78,-73
-34,-43,-9,39,-12,-26,-24,-92,-39,-29,-68,-68
-39,-34,4,36,-21,-14,-9,-68,-29,4,-53,-63
-39,4,43,17,-41,24,14,0,-19,122,14,-48
-29,63,92,-17,-61,78,53,146,0,336,146,4
-19,165,185,-73,-102,175,82,263,34,546,287,63
9,278,268,-143,-129,273,161,546,63,790,429,131
58,390,331,-224,-136,361,283,1034,92,1210,683,263
170,492,322,-331,-75,407,380,1424,78,1634,1010,453
341,634,292,-488,24,463,292,1468,34,2010,1439,746
546,893,346,-719,100,619,63,1122,0,2415,2074,1234
775,1166,390,-971,192,778,-278,566,-48,2737,2679,1747
1010,1488,478,-1249,265,983,-917,-297,-58,2864,3045,2156
1298,1756,458,-1527,419,1107,-1717,-1093,-107,2962,3313,2537
1659,1976,317,-1817,671,1146,-2464,-1771,-224,3323,3772,3040
1956,1986,29,-1971,963,1007,-2869,-2005,-375,3850,4201,3503
2117,1664,-453,-1891,1285,605,-2766,-1815,-610,4387,4548,3830
1942,1302,-639,-1622,1290,331,-2381,-1771,-688,3689,3996,3660
1459,1039,-419,-1249,939,309,-1922,-1888,-541,1629,2527,3006
961,668,-292,-814,627,187,-1390,-1830,-419,-605,795,2044
619,297,-322,-458,470,-12,-912,-1346,-346,-1283,-151,1137
366,4,-361,-185,363,-178,-492,-775,-283,-854,-263,527
97,-136,-234,19,165,-185,-141,-307,-156,-497,-312,4
-68,-165,-97,117,14,-131,43,-63,-82,-322,-312,-209
-87,-151,-63,119,-12,-107,73,-43,-53,-268,-283,-195
-92,-141,-48,117,-21,-95,78,-39,-48,-253,-268,-200
-92,-141,-48,117,-21,-95,82,-14,-53,-248,-248,-200
-92,-141,-48,117,-21,-95,107,24,-53,-234,-239,-190
-107,-141,-34,124,-36,-87,122,29,-53,-224,-239,-200
-107,-136,-29,122,-39,-82,122,29,-43,-214,-229,-200
-102,-131,-29,117,-36,-80,126,43,-43,-204,-209,-200
-102,-126,-24,114,-39,-75,136,58,-43,-200,-209,-195
-102,-126,-24,114,-39,-75,141,58,-39,-200,-214,-195
-107,-126,-19,117,-43,-73,141,58,-39,-195,-209,-195
-112,-126,-14,119,-48,-70,136,58,-43,-185,-204,-190
-112,-126,-14,119,-48,-70,141,73,-43,-185,-200,-190
-107,-126,-19,117,-43,-73,141,82,-39,-185,-200,-185
-107,-122,-14,114,-46,-68,141,82,-34,-175,-195,-185
-107,-122,-14,114,-46,-68,141,87,-29,-175,-185,-185
-102,-117,-14,109,-43,-65,141,92,-24,-165,-180,-180
-102,-112,-9,107,-46,-61,141,97,-24,-165,-175,-175
-102,-107,-4,104,-48,-56,141,102,-24,-161,-170,-165
-102,-102,0,102,-51,-51,141,102,-24,-156,-165,-151
-102,-102,0,102,-51,-51,141,107,-29,-151,-161,-151
-102,-102,0,102,-51,-51,146,117,-29,-151,-156,-151
-102,-102,0,102,-51,-51,146,122,-29,-151,-146,-151
-102,-102,0,102,-51,-51,156,126,-29,-146,-146,-151
-102,-92,9,97,-56,-41,156,126,-29,-141,-136,-146
-102,-92,9,97,-56,-41,156,136,-24,-136,-136,-146
-102,-87,14,95,-58,-36,156,146,-24,-131,-126,-141
-102,-82,19,92,-61,-31,161,151,-19,-122,-122,-136
-102,-78,24,90,-63,-26,161,161,-19,-122,-112,-136
-102,-73,29,87,-65,-21,161,170,-24,-122,-112,-141
-102,-73,29,87,-65,-21,161,185,-24,-122,-112,-141
-102,-68,34,85,-68,-17,165,195,-14,-117,-107,-136
-107,-63,43,85,-75,-9,170,204,-14,-122,-107,-136
-107,-63,43,85,-75,-9,175,214,-9,-122,-107,-136
-107,-63,43,85,-75,-9,180,224,-9,-122,-97,-131
-107,-63,43,85,-75,-9,185,239,-9,-122,-97,-131
-117,-58,58,87,-87,0,185,244,-4,-126,-112,-136
-117,-58,58,87,-87,0,190,253,0,-126,-117,-136
-117,-58,58,87,-87,0,195,268,0,-126,-117,-136
-122,-63,58,92,-90,-2,204,283,4,-131,-117,-141
-122,-63,58,92,-90,-2,209,297,4,-141,-126,-151
-131,-63,68,97,-100,2,219,307,14,-151,-136,-161
-141,-58,82,100,-112,12,229,326,19,-161,-151,-180
-146,-58,87,102,-117,14,244,341,29,-175,-165,-195
-156,-63,92,109,-124,14,248,356,34,-195,-180,-195
-161,-68,92,114,-126,12,253,366,39,-214,-200,-204
-165,-68,97,117,-131,14,268,375,48,-239,-214,-224
-175,-73,102,124,-139,14,283,380,53,-273,-244,-244
-185,-82,102,134,-143,9,302,390,63,-312,-273,-273
-200,-92,107,146,-153,7,322,395,68,-351,-307,-302
-224,-102,122,163,-173,9,336,395,78,-385,-351,-326
-239,-117,122,178,-180,2,356,390,87,-439,-400,-361
-253,-141,112,197,-183,-14,375,390,97,-492,-444,-395
-273,-151,122,212,-197,-14,390,380,102,-556,-497,-434
-297,-170,126,234,-212,-21,409,366,112,-624,-556,-473
-322,-195,126,258,-224,-34,429,346,117,-697,-624,-522
-356,-219,136,287,-246,-41,448,326,126,-761,-678,-570
-380,-244,136,312,-258,-53,468,307,131,-829,-736,-610
-390,-263,126,326,-258,-68,483,283,141,-902,-810,-658
-414,-292,122,353,-268,-85,497,253,141,-976,-873,-702
-424,-307,117,366,-270,-95,502,219,141,-1034,-927,-751
-439,-331,107,385,-273,-112,512,190,141,-1083,-976,-785
-453,-356,97,405,-275,-129,512,161,141,-1137,-1019,-819
-468,-370,97,419,-283,-136,502,122,136,-1171,-1058,-849
-468,-400,68,434,-268,-165,497,82,131,-1195,-1088,-868
-468,-414,53,441,-261,-180,488,53,131,-1205,-1102,-878
-463,-419,43,441,-253,-187,468,34,122,-1200,-1102,-878
-458,-419,39,439,-248,-190,448,14,107,-1185,-1093,-878
-434,-414,19,424,-226,-197,424,-14,97,-1137,-1073,-863
-414,-405,9,409,-212,-197,400,-29,87,-1078,-1029,-834
-395,-400,-4,397,-195,-202,366,-34,78,-1019,-985,-800
-366,-380,-14,373,-175,-197,336,-39,58,-941,-927,-756
-336,-366,-29,351,-153,-197,312,-39,48,-839,-844,-707
-307,-341,-34,324,-136,-187,283,-39,34,-727,-756,-644
-263,-307,-43,285,-109,-175,244,-29,19,-639,-683,-585
-234,-278,-43,256,-95,-161,214,-19,9,-556,-614,-527
-190,-248,-58,219,-65,-153,180,-14,4,-468,-531,-468
-165,-224,-58,195,-53,-141,156,-9,-9,-385,-453,-409
-136,-195,-58,165,-39,-126,126,-9,-14,-312,-390,-351
-112,-165,-53,139,-29,-109,102,-9,-19,-258,-331,-297
-82,-146,-63,114,-9,-104,82,-4,-29,-200,-278,-253
-63,-122,-58,92,-2,-90,63,0,-29,-141,-219,-209
-43,-87,-43,65,0,-65,43,0,-34,-92,-170,-165
-34,-63,-29,48,-2,-46,29,0,-34,-63,-141,-136
-19,-48,-29,34,4,-39,14,0,-34,-34,-107,-102
-9,-34,-24,21,7,-29,4,0,-39,0,-68,-82
4,-24,-29,9,17,-26,-4,0,-39,19,-39,-53
9,-19,-29,4,19,-24,-14,0,-43,34,-19,-34
19,-4,-24,-7,21,-14,-19,0,-43,43,-4,-19
24,0,-24,-12,24,-12,-24,0,-43,53,14,-9
24,9,-14,-17,19,-2,-29,0,-39,58,24,0
29,14,-14,-21,21,0,-34,0,-39,63,29,4
34,24,-9,-29,21,7,-39,0,-39,68,29,9
39,24,-14,-31,26,4,-39,0,-39,73,29,14
34,24,-9,-29,21,7,-39,0,-39,73,34,14
34,24,-9,-29,21,7,-43,0,-39,73,34,19
34,24,-9,-29,21,7,-39,4,-39,68,34,19
34,24,-9,-29,21,7,-29,9,-39,68,34,19
34,24,-9,-29,21,7,-29,4,-39,63,34,14
34,24,-9,-29,21,7,-29,9,-39,58,34,14
29,19,-9,-24,19,4,-34,4,-39,53,29,9
19,14,-4,-17,12,4,-39,4,-39,48,24,4
19,14,-4,-17,12,4,-34,0,-34,39,9,0
14,14,0,-14,7,7,-34,0,-34,34,4,4
14,9,-4,-12,9,2,-29,0,-34,29,4,0
14,9,-4,-12,9,2,-24,-4,-34,24,0,-9
14,9,-4,-12,9,2,-19,-4,-29,19,-9,-19
9,9,0,-9,4,4,-19,-4,-29,9,-14,-19
9,4,-4,-7,7,0,-9,-9,-29,9,-24,-24
4,0,-4,-2,4,-2,-9,-9,-29,0,-29,-24
0,-4,-4,2,2,-4,-4,-9,-29,-4,-29,-29
0,-4,-4,2,2,-4,-4,-9,-24,-4,-39,-39
-4,-9,-4,7,0,-7,-4,-9,-24,-9,-39,-43
-4,-14,-9,9,2,-12,-4,-14,-24,-14,-48,-58
-9,-14,-4,12,-2,-9,-4,-14,-24,-14,-53,-58
-9,-14,-4,12,-2,-9,0,-14,-24,-19,-53,-58
-14,-19,-4,17,-4,-12,-4,-19,-19,-19,-53,-58
-14,-19,-4,17,-4,-12,-9,-19,-14,-24,-53,-68
-14,-19,-4,17,-4,-12,-9,-19,-19,-24,-53,-68
-9,-19,-9,14,0,-14,-9,-19,-19,-24,-53,-68
-4,-19,-14,12,4,-17,-9,-24,-19,-24,-53,-68
-4,-24,-19,14,7,-21,-4,-24,-19,-24,-58,-73
-4,-29,-24,17,9,-26,-4,-24,-19,-19,-58,-73
-4,-34,-29,19,12,-31,-4,-29,-19,-19,-58,-73
-9,-29,-19,19,4,-24,-4,-29,-24,-19,-58,-68
-14,-29,-14,21,0,-21,-4,-29,-29,-19,-63,-63
-9,-29,-19,19,4,-24,0,-24,-29,-19,-63,-63
-9,-24,-14,17,2,-19,0,-24,-29,-14,-58,-58
-9,-24,-14,17,2,-19,0,-24,-24,-14,-53,-53
-9,-19,-9,14,0,-14,0,-24,-19,-14,-53,-53
-9,-24,-14,17,2,-19,0,-24,-19,-14,-48,-53
-9,-29,-19,19,4,-24,0,-29,-19,-14,-43,-53
-4,-29,-24,17,9,-26,0,-29,-24,-14,-43,-53
0,-29,-29,14,14,-29,-4,-29,-29,-14,-39,-48
0,-29,-29,14,14,-29,-9,-34,-29,-14,-43,-48
0,-29,-29,14,14,-29,-14,-43,-29,-14,-43,-48
0,-29,-29,14,14,-29,-14,-43,-29,-14,-43,-48
0,-29,-29,14,14,-29,-14,-43,-29,-14,-43,-43
0,-29,-29,14,14,-29,-14,-48,-29,-14,-43,-43
0,-29,-29,14,14,-29,-14,-48,-29,-4,-39,-43
-4,-29,-24,17,9,-26,-19,-48,-29,-4,-34,-39
-9,-29,-19,19,4,-24,-19,-48,-29,-4,-34,-39
-9,-29,-19,19,4,-24,-19,-48,-29,-4,-34,-39
-9,-29,-19,19,4,-24,-19,-48,-34,-4,-34,-39
-9,-29,-19,19,4,-24,-19,-43,-29,-4,-34,-43
-4,-29,-24,17,9,-26,-19,-43,-19,-4,-34,-48
-4,-29,-24,17,9,-26,-24,-43,-19,-4,-34,-43
-9,-24,-14,17,2,-19,-24,-43,-19,-4,-29,-43
-9,-24,-14,17,2,-19,-24,-48,-19,-4,-29,-43
-9,-24,-14,17,2,-19,-19,-48,-19,-4,-29,-43
-9,-24,-14,17,2,-19,-24,-48,-24,-4,-29,-43
-9,-24,-14,17,2,-19,-24,-48,-29,0,-29,-43
-9,-24,-14,17,2,-19,-29,-53,-29,0,-34,-39
-4,-24,-19,14,7,-21,-29,-53,-29,0,-34,-39
-4,-24,-19,14,7,-21,-29,-53,-34,-4,-34,-43
-4,-24,-19,14,7,-21,-29,-53,-34,-4,-39,-43
-4,-24,-19,14,7,-21,-24,-53,-29,-4,-39,-43
-4,-14,-9,9,2,-12,-24,-53,-29,-4,-39,-43
-4,-19,-14,12,4,-17,-24,-48,-29,-4,-34,-43
0,-24,-24,12,12,-24,-24,-48,-29,-4,-34,-43
0,-24,-24,12,12,-24,-24,-58,-29,-4,-34,-43
0,-24,-24,12,12,-24,-29,-58,-24,-4,-34,-43
-4,-19,-14,12,4,-17,-29,-58,-24,-4,-34,-43
-9,-19,-9,14,0,-14,-29,-58,-29,-9,-39,-48
-9,-19,-9,14,0,-14,-29,-58,-29,-9,-34,-43
-9,-19,-9,14,0,-14,-29,-58,-29,-9,-29,-39
-9,-19,-9,14,0,-14,-29,-58,-29,-9,-29,-39
-9,-19,-9,14,0,-14,-29,-53,-24,-4,-29,-34
-9,-19,-9,14,0,-14,-29,-53,-24,0,-29,-34
-9,-9,0,9,-4,-4,-29,-48,-19,0,-29,-34
-9,0,9,4,-9,4,-19,-48,-14,0,-24,-34
-9,14,24,-2,-17,19,-4,-39,0,14,-14,-29
-4,29,34,-12,-19,31,19,-29,9,24,-9,-24
-4,39,43,-17,-24,41,39,-19,19,29,-4,-14
0,39,39,-19,-19,39,39,-9,19,34,0,-9
4,43,39,-24,-17,41,39,0,19,39,4,-9
9,53,43,-31,-17,48,29,-4,24,43,9,-9
19,78,58,-48,-19,68,24,-14,34,53,14,-4
34,102,68,-68,-17,85,-4,-29,48,63,24,9
43,141,97,-92,-26,119,-48,-48,68,68,34,24
58,151,92,-104,-17,122,-73,-68,68,68,39,29
63,151,87,-107,-12,119,-92,-78,63,68,43,29
78,151,73,-114,2,112,-122,-78,63,73,43,39
102,170,68,-136,17,119,-151,-78,58,87,58,53
122,185,63,-153,29,124,-170,-87,48,97,73,63
131,195,63,-163,34,129,-180,-87,39,102,78,73
141,204,63,-173,39,134,-185,-87,34,112,92,87
146,204,58,-175,43,131,-185,-87,24,122,107,107
146,200,53,-173,46,126,-175,-87,9,117,102,107
141,170,29,-156,56,100,-175,-102,-9,82,78,92
131,146,14,-139,58,80,-165,-112,-14,63,58,82
122,122,0,-122,61,61,-151,-112,-14,53,48,73
87,107,19,-97,34,63,-122,-97,-9,53,48,63
73,92,19,-82,26,56,-102,-82,0,63,48,53
43,63,19,-53,12,41,-63,-58,0,63,43,43
14,19,4,-17,4,12,-39,-58,-9,43,14,0
-9,-39,-29,24,9,-34,-29,-68,-29,0,-34,-43
-14,-53,-39,34,12,-46,-29,-68,-34,-9,-43,-48
-14,-58,-43,36,14,-51,-29,-73,-34,-24,-58,-63
-9,-63,-53,36,21,-58,-29,-73,-34,-24,-63,-68
-19,-68,-48,43,14,-58,-29,-73,-39,-24,-63,-68
-19,-68,-48,43,14,-58,-29,-73,-39,-24,-63,-63
-14,-73,-58,43,21,-65,-29,-73,-34,-24,-58,-58
-14,-78,-63,46,24,-70,-29,-73,-34,-24,-58,-53
-24,-78,-53,51,14,-65,-19,-53,-34,-4,-43,-48
-29,-73,-43,51,7,-58,0,-29,-29,34,-24,-43
-29,-29,0,29,-14,-14,29,53,-19,151,43,-29
-19,34,53,-7,-36,43,73,214,0,366,175,24
-9,131,141,-61,-75,136,122,370,34,585,326,92
19,239,219,-129,-100,229,219,692,63,839,478,170
73,346,273,-209,-100,309,341,1122,82,1224,702,283
190,444,253,-317,-31,348,439,1454,58,1615,1000,453
366,580,214,-473,75,397,317,1424,14,1976,1410,732
575,834,258,-705,158,546,53,1005,-19,2366,2025,1205
839,1117,278,-978,280,697,-414,414,-78,2727,2644,1737
1107,1449,341,-1278,383,895,-1180,-483,-97,2893,3025,2166
1415,1708,292,-1561,561,1000,-1947,-1195,-161,2996,3294,2557
1795,1917,122,-1856,836,1019,-2659,-1790,-292,3362,3752,3069
2078,1922,-156,-2000,1117,883,-2996,-1981,-434,3791,4108,3479
2225,1595,-629,-1910,1427,483,-2825,-1747,-658,4230,4382,3752
2034,1249,-785,-1642,1410,231,-2420,-1751,-722,3581,3904,3635
1537,1000,-536,-1268,1037,231,-1942,-1917,-561,1571,2508,3035
1029,629,-400,-829,714,114,-1405,-1849,-429,-619,819,2093
678,258,-419,-468,549,-80,-922,-1356,-346,-1254,-82,1205
400,-19,-419,-190,409,-219,-492,-775,-278,-829,-209,575
107,-146,-253,19,180,-200,-131,-297,-146,-478,-273,34
-58,-190,-131,124,36,-161,58,-48,-73,-297,-273,-185
-78,-190,-112,134,17,-151,92,-24,-43,-239,-244,-175
-82,-180,-97,131,7,-139,102,-14,-34,-224,-234,-180
-82,-180,-97,131,7,-139,112,14,-34,-219,-219,-180
-82,-185,-102,134,9,-143,131,48,-34,-204,-209,-170
-97,-190,-92,143,-2,-141,141,48,-34,-195,-209,-180
-102,-185,-82,143,-9,-134,141,48,-24,-185,-209,-180
-102,-180,-78,141,-12,-129,146,63,-24,-175,-200,-180
-97,-170,-73,134,-12,-122,156,87,-24,-165,-190,-175
-92,-165,-73,129,-9,-119,161,97,-19,-161,-185,-175
-97,-165,-68,131,-14,-117,165,97,-19,-161,-180,-175
-102,-165,-63,134,-19,-114,165,97,-24,-156,-175,-170
-107,-161,-53,134,-26,-107,170,107,-24,-156,-170,-170
-107,-156,-48,131,-29,-102,170,112,-19,-156,-170,-165
-107,-151,-43,129,-31,-97,170,112,-19,-146,-165,-165
-107,-151,-43,129,-31,-97,170,117,-19,-146,-156,-165
-102,-151,-48,126,-26,-100,170,122,-14,-136,-151,-161
-102,-151,-48,126,-26,-100,170,126,-14,-136,-146,-156
-102,-146,-43,124,-29,-95,170,131,-14,-131,-146,-151
-102,-141,-39,122,-31,-90,170,131,-14,-126,-146,-141
-102,-141,-39,122,-31,-90,170,136,-14,-122,-141,-141
-102,-141,-39,122,-31,-90,175,146,-9,-122,-136,-141
-97,-136,-39,117,-29,-87,175,156,-9,-117,-126,-136
-92,-131,-39,112,-26,-85,185,165,-9,-107,-126,-131
-92,-122,-29,107,-31,-75,185,165,-9,-102,-117,-126
-92,-122,-29,107,-31,-75,185,175,-4,-97,-117,-126
-97,-117,-19,107,-39,-68,185,185,-4,-92,-107,-122
-102,-112,-9,107,-46,-61,190,190,0,-82,-102,-117
-102,-117,-14,109,-43,-65,195,200,0,-82,-92,-117
-102,-122,-19,112,-41,-70,200,209,-4,-82,-92,-122
-102,-122,-19,112,-41,-70,200,224,-4,-78,-87,-122
-102,-117,-14,109,-43,-65,204,234,4,-68,-78,-117
-107,-122,-14,114,-46,-68,214,244,9,-68,-73,-112
-107,-131,-24,119,-41,-78,224,253,19,-63,-68,-107
-107,-131,-24,119,-41,-78,229,263,19,-63,-58,-102
-107,-131,-24,119,-41,-78,234,278,19,-63,-58,-102
-117,-126,-9,122,-53,-68,239,287,24,-68,-68,-107
-117,-126,-9,122,-53,-68,248,302,29,-68,-68,-107
-112,-126,-14,119,-48,-70,258,317,29,-68,-68,-107
-112,-131,-19,122,-46,-75,273,331,34,-73,-68,-112
-112,-136,-24,124,-43,-80,278,346,34,-82,-78,-122
-122,-141,-19,131,-51,-80,287,356,43,-92,-87,-131
-131,-136,-4,134,-63,-70,302,375,48,-97,-97,-141
-136,-136,0,136,-68,-68,322,390,58,-107,-107,-146
-151,-141,9,146,-80,-65,331,409,63,-122,-122,-156
-161,-146,14,153,-87,-65,341,424,68,-136,-141,-175
-165,-151,14,158,-90,-68,356,434,78,-161,-161,-195
-175,-161,14,168,-95,-73,370,439,82,-195,-195,-214
-185,-165,19,175,-102,-73,390,444,92,-234,-224,-239
-200,-170,29,185,-114,-70,409,444,97,-273,-258,-263
-224,-180,43,202,-134,-68,424,444,107,-307,-297,-287
-239,-195,43,217,-141,-75,444,439,117,-361,-341,-322
-248,-219,29,234,-139,-95,463,439,126,-419,-390,-361
-263,-229,34,246,-148,-97,478,429,131,-488,-448,-405
-287,-244,43,265,-165,-100,492,414,141,-546,-502,-439
-312,-263,48,287,-180,-107,507,395,146,-610,-566,-483
-341,-283,58,312,-200,-112,522,370,151,-683,-629,-536
-361,-302,58,331,-209,-122,536,346,151,-761,-697,-580
-380,-322,58,351,-219,-131,546,317,161,-829,-766,-629
-414,-351,63,383,-239,-143,556,283,161,-897,-824,-673
-424,-366,58,395,-241,-153,561,248,161,-956,-878,-717
-439,-390,48,414,-244,-170,570,219,161,-1005,-927,-746
-453,-414,39,434,-246,-187,570,190,161,-1054,-961,-775
-468,-429,39,448,-253,-195,561,151,156,-1083,-990,-800
-468,-453,14,461,-241,-219,556,112,151,-1107,-1019,-819
-468,-463,4,466,-236,-229,546,82,151,-1117,-1034,-829
-458,-468,-9,463,-224,-239,527,58,141,-1112,-1044,-829
-448,-468,-19,458,-214,-244,507,34,126,-1098,-1044,-829
-424,-468,-43,446,-190,-256,478,4,117,-1058,-1024,-814
-405,-463,-58,434,-173,-261,448,-9,107,-1010,-980,-785
-380,-458,-78,419,-151,-268,414,-14,97,-941,-932,-756
-346,-439,-92,392,-126,-265,385,-19,78,-854,-868,-717
-317,-424,-107,370,-104,-265,356,-9,68,-766,-795,-668
-287,-400,-112,344,-87,-256,322,0,53,-668,-717,-605
-244,-370,-126,307,-58,-248,283,4,39,-570,-644,-546
-214,-346,-131,280,-41,-239,253,9,29,-478,-575,-488
-170,-307,-136,239,-17,-222,214,14,24,-409,-497,-434
-146,-273,-126,209,-9,-200,185,19,9,-346,-424,-380
-117,-244,-126,180,4,-185,156,19,4,-263,-361,-322
-92,-214,-122,153,14,-168,131,19,0,-200,-302,-268
-63,-195,-131,129,34,-163,117,24,-4,-141,-244,-219
-43,-170,-126,107,41,-148,102,29,0,-82,-180,-170
-19,-146,-126,82,53,-136,82,34,-4,-34,-131,-126
-4,-131,-126,68,61,-129,68,39,-4,-4,-102,-97
9,-122,-131,56,70,-126,53,39,-4,24,-68,-58
19,-112,-131,46,75,-122,43,39,-9,58,-29,-34
34,-97,-131,31,82,-114,34,39,-9,87,0,-4
39,-87,-126,24,82,-107,24,39,-14,112,19,14
48,-68,-117,9,82,-92,19,39,-14,112,24,24
53,-58,-112,2,82,-85,14,39,-14,112,34,29
48,-48,-97,0,73,-73,4,39,-9,117,43,34
48,-43,-92,-2,70,-68,-4,39,-9,122,48,34
48,-29,-78,-9,63,-53,-19,39,-4,122,48,34
48,-24,-73,-12,61,-48,-29,39,0,122,48,34
48,-24,-73,-12,61,-48,-19,39,0,122,53,34
53,-24,-78,-14,65,-51,-14,39,0,122,53,39
53,-24,-78,-14,65,-51,-14,39,-4,112,53,39
53,-24,-78,-14,65,-51,-9,39,-9,107,53,39
48,-24,-73,-12,61,-48,-9,29,-9,102,48,34
43,-24,-68,-9,56,-46,-9,29,-9,97,43,34
43,-24,-68,-9,56,-46,-9,24,-9,87,34,29
39,-24,-63,-7,51,-43,-9,24,-9,78,24,24
39,-29,-68,-4,53,-48,-4,19,-9,68,14,14
34,-34,-68,0,51,-51,-4,19,-14,63,14,14
29,-43,-73,7,51,-58,0,19,-14,58,14,19
24,-48,-73,12,48,-61,4,14,-14,53,9,19
24,-48,-73,12,48,-61,9,14,-4,48,0,9
19,-48,-68,14,43,-58,9,14,0,39,-4,9
19,-53,-73,17,46,-63,19,9,0,34,-14,4
14,-58,-73,21,43,-65,19,9,0,19,-19,4
9,-63,-73,26,41,-68,19,9,-4,14,-24,0
9,-63,-73,26,41,-68,14,9,-4,14,-39,-9
4,-63,-68,29,36,-65,14,9,-4,4,-39,-14
4,-63,-68,29,36,-65,14,4,-4,-4,-48,-29
0,-63,-63,31,31,-63,9,4,-4,-4,-53,-39
0,-63,-63,31,31,-63,9,4,-4,-9,-53,-48
-9,-73,-63,41,26,-68,9,0,-4,-9,-58,-48
-14,-78,-63,46,24,-70,9,0,-4,-14,-63,-58
-14,-78,-63,46,24,-70,14,0,-9,-14,-63,-58
-9,-78,-68,43,29,-73,19,0,-9,-14,-63,-58
-9,-73,-63,41,26,-68,19,-4,-4,-19,-68,-63
-14,-73,-58,43,21,-65,24,-4,0,-24,-78,-73
-14,-73,-58,43,21,-65,24,-4,0,-19,-78,-73
-14,-73,-58,43,21,-65,24,-9,0,-19,-78,-73
-14,-68,-53,41,19,-61,24,-9,0,-14,-63,-68
-14,-68,-53,41,19,-61,24,-9,0,-9,-53,-63
-9,-78,-68,43,29,-73,29,-9,-4,-9,-53,-58
-9,-82,-73,46,31,-78,29,-14,-9,-4,-48,-48
-4,-87,-82,46,39,-85,29,-14,-9,0,-43,-43
0,-87,-87,43,43,-87,29,-14,-9,4,-43,-43
0,-87,-87,43,43,-87,24,-14,-4,4,-43,-43
0,-87,-87,43,43,-87,19,-19,0,4,-43,-43
0,-87,-87,43,43,-87,19,-19,0,4,-43,-43
0,-87,-87,43,43,-87,14,-19,0,4,-39,-39
0,-82,-82,41,41,-82,14,-19,0,4,-43,-39
0,-78,-78,39,39,-78,14,-24,0,4,-43,-39
0,-78,-78,39,39,-78,14,-24,0,4,-43,-39
0,-78,-78,39,39,-78,14,-24,0,4,-43,-34
0,-78,-78,39,39,-78,14,-29,0,4,-43,-34
0,-78,-78,39,39,-78,14,-29,0,14,-39,-34
0,-78,-78,39,39,-78,9,-29,0,14,-34,-29
0,-78,-78,39,39,-78,9,-29,0,14,-34,-29
0,-78,-78,39,39,-78,9,-29,0,14,-29,-29
0,-78,-78,39,39,-78,9,-29,-4,14,-24,-29
0,-78,-78,39,39,-78,9,-29,-9,14,-24,-29
4,-78,-82,36,43,-80,9,-34,-9,14,-24,-29
4,-82,-87,39,46,-85,9,-34,-9,14,-24,-24
0,-82,-82,41,41,-82,14,-34,-9,14,-19,-24
0,-82,-82,41,41,-82,9,-39,-9,14,-19,-24
0,-82,-82,41,41,-82,9,-39,-9,14,-19,-24
0,-82,-82,41,41,-82,4,-43,-9,14,-19,-24
0,-82,-82,41,41,-82,4,-48,-9,19,-19,-24
0,-78,-78,39,39,-78,0,-48,-9,19,-19,-24
4,-73,-78,34,41,-75,0,-43,-9,19,-14,-29
4,-68,-73,31,39,-70,0,-43,-9,19,-14,-34
4,-63,-68,29,36,-65,0,-43,-4,24,-19,-34
4,-63,-68,29,36,-65,4,-43,0,24,-19,-34
4,-53,-58,24,31,-56,4,-43,0,24,-19,-34
0,-53,-53,26,26,-53,4,-43,0,19,-24,-34
0,-58,-58,29,29,-58,9,-48,0,19,-29,-39
0,-58,-58,29,29,-58,9,-48,0,19,-29,-39
0,-58,-58,29,29,-58,9,-48,0,19,-29,-39
0,-58,-58,29,29,-58,9,-48,0,19,-29,-39
0,-58,-58,29,29,-58,9,-48,0,24,-24,-34
0,-63,-63,31,31,-63,9,-48,4,29,-24,-29
0,-58,-58,29,29,-58,9,-48,9,29,-19,-24
0,-48,-48,24,24,-48,14,-43,14,29,-14,-24
0,-34,-34,17,17,-34,24,-29,29,43,-4,-19
4,-19,-24,7,14,-21,48,-19,39,53,0,-14
4,-9,-14,2,9,-12,68,-9,48,58,4,-4
9,-9,-19,0,14,-14,68,-4,43,63,9,0
14,-4,-19,-4,17,-12,68,0,39,68,14,0
19,4,-14,-12,17,-4,63,0,43,73,19,0
29,29,0,-29,14,14,63,-4,53,82,24,4
39,53,14,-46,12,34,34,-19,68,92,34,19
43,92,48,-68,-2,70,-9,-39,87,97,43,34
58,107,48,-82,4,78,-39,-58,87,97,48,39
63,112,48,-87,7,80,-63,-68,82,97,53,39
78,117,39,-97,19,78,-92,-73,82,97,53,48
102,141,39,-122,31,90,-122,-78,78,107,68,63
122,156,34,-139,43,95,-141,-87,68,117,82,73
131,165,34,-148,48,100,-151,-87,58,122,87,82
146,175,29,-161,58,102,-161,-87,53,131,102,97
156,175,19,-165,68,97,-165,-87,43,141,117,117
156,170,14,-163,70,92,-156,-87,34,136,112,112
151,141,-9,-146,80,65,-156,-102,19,102,87,92
141,122,-19,-131,80,51,-151,-112,9,82,68,82
131,102,-29,-117,80,36,-141,-112,4,73,58,73
97,82,-14,-90,56,34,-112,-97,4,73,58,63
82,63,-19,-73,51,21,-92,-82,9,82,58,53
53,34,-19,-43,36,7,-53,-58,9,82,53,48
24,-9,-34,-7,29,-21,-29,-58,0,63,24,9
0,-68,-68,34,34,-68,-14,-73,-19,19,-24,-34
-4,-82,-78,43,36,-80,-9,-78,-24,9,-34,-39
-9,-87,-78,48,34,-82,-9,-82,-24,-4,-48,-53
-9,-92,-82,51,36,-87,-9,-82,-24,-4,-53,-58
-19,-97,-78,58,29,-87,-9,-82,-29,-4,-53,-58
-19,-97,-78,58,29,-87,-9,-82,-29,-4,-53,-53
-14,-102,-87,58,36,-95,-9,-82,-29,-4,-48,-53
-14,-107,-92,61,39,-100,-9,-82,-34,-4,-48,-53
-24,-107,-82,65,29,-95,-4,-78,-34,-4,-48,-53
-29,-102,-73,65,21,-87,9,-68,-29,14,-43,-53
-29,-68,-39,48,4,-53,34,9,-19,126,24,-39
-19,-14,4,17,-12,-4,73,165,0,336,156,14
-19,82,102,-31,-61,92,102,283,34,527,283,68
0,190,190,-95,-95,190,180,566,63,751,409,131
43,297,253,-170,-104,275,336,1093,92,1137,614,224
151,395,244,-273,-46,319,468,1522,78,1527,893,375
322,512,190,-417,65,351,395,1586,34,1903,1273,629
527,746,219,-636,153,483,180,1259,0,2308,1859,1078
780,1019,239,-900,270,629,-185,697,-58,2688,2503,1605
1039,1342,302,-1190,368,822,-849,-170,-78,2874,2908,2030
1356,1659,302,-1507,527,980,-1737,-1044,-117,2869,3123,2410
1747,1927,180,-1837,783,1054,-2571,-1800,-224,3128,3528,2913
2103,1991,-112,-2047,1107,939,-3064,-2098,-385,3616,3967,3386
2322,1722,-600,-2022,1461,561,-3050,-1971,-629,4113,4323,3723
2152,1381,-771,-1766,1461,305,-2644,-1937,-712,3689,4001,3703
1673,1137,-536,-1405,1105,300,-2166,-2064,-570,1903,2762,3201
1132,766,-366,-949,749,200,-1610,-2034,-444,-492,976,2259
746,395,-351,-570,549,21,-1107,-1581,-366,-1332,-24,1371
448,78,-370,-263,409,-146,-634,-932,-292,-907,-200,673
136,-87,-224,-24,180,-156,-229,-385,-156,-556,-312,63
-53,-131,-78,92,12,-104,-24,-112,-82,-366,-322,-190
-97,-131,-34,114,-31,-82,24,-63,-53,-297,-302,-214
-102,-122,-19,112,-41,-70,34,-53,-43,-283,-292,-219
-102,-122,-19,112,-41,-70,43,-24,-43,-278,-278,-219
-107,-126,-19,117,-43,-73,68,14,-43,-263,-268,-209
-126,-131,-4,129,-61,-68,82,19,-43,-253,-268,-219
-131,-126,4,129,-68,-61,82,19,-34,-248,-268,-224
-131,-122,9,126,-70,-56,87,34,-34,-244,-258,-229
-131,-112,19,122,-75,-46,92,53,-34,-234,-248,-224
-131,-107,24,119,-78,-41,92,58,-29,-229,-244,-224
-136,-107,29,122,-82,-39,97,58,-24,-224,-239,-224
-141,-107,34,124,-87,-36,97,58,-24,-214,-234,-219
-141,-102,39,122,-90,-31,102,68,-24,-214,-229,-219
-136,-97,39,117,-87,-29,102,73,-19,-214,-229,-214
-136,-92,43,114,-90,-24,102,73,-24,-209,-229,-214
-136,-92,43,114,-90,-24,102,78,-29,-214,-224,-214
-136,-87,48,112,-92,-19,102,82,-24,-209,-219,-209
-141,-82,58,112,-100,-12,102,87,-24,-214,-214,-204
-141,-78,63,109,-102,-7,102,92,-24,-209,-209,-200
-141,-73,68,107,-104,-2,102,92,-24,-204,-204,-190
-141,-68,73,104,-107,2,97,97,-24,-200,-200,-190
-141,-63,78,102,-109,7,97,107,-19,-200,-195,-190
-141,-63,78,102,-109,7,97,112,-19,-195,-185,-190
-141,-63,78,102,-109,7,107,117,-19,-185,-185,-190
-141,-53,87,97,-114,17,112,117,-19,-180,-175,-185
-141,-53,87,97,-114,17,117,126,-14,-175,-175,-185
-141,-48,92,95,-117,21,117,136,-14,-170,-165,-175
-141,-43,97,92,-119,26,122,141,-9,-161,-161,-165
-141,-43,97,92,-119,26,122,151,-9,-161,-151,-165
-141,-43,97,92,-119,26,122,161,-14,-161,-151,-170
-141,-43,97,92,-119,26,117,175,-14,-161,-151,-170
-141,-39,102,90,-122,31,117,185,-4,-156,-146,-165
-146,-34,112,90,-129,39,122,195,-9,-161,-151,-165
-146,-34,112,90,-129,39,126,204,-9,-161,-156,-165
-146,-34,112,90,-129,39,131,214,-9,-161,-146,-165
-146,-34,112,90,-129,39,136,229,-9,-161,-146,-170
-156,-29,126,92,-141,48,141,239,-4,-165,-156,-175
-156,-29,126,92,-141,48,151,253,0,-165,-156,-175
-156,-24,131,90,-143,53,156,268,0,-165,-156,-175
-161,-24,136,92,-148,56,165,283,4,-170,-156,-180
-161,-19,141,90,-151,61,170,297,4,-180,-165,-190
-170,-14,156,92,-163,70,180,307,14,-190,-175,-200
-180,-9,170,95,-175,80,185,326,19,-200,-185,-209
-185,-9,175,97,-180,82,195,341,29,-214,-195,-214
-195,-9,185,102,-190,87,204,356,34,-234,-214,-224
-200,-9,190,104,-195,90,214,366,39,-253,-239,-244
-209,-9,200,109,-204,95,224,375,48,-283,-258,-268
-224,-14,209,119,-217,97,234,380,53,-322,-292,-292
-234,-19,214,126,-224,97,253,390,63,-361,-322,-317
-248,-24,224,136,-236,100,273,395,68,-400,-356,-341
-273,-34,239,153,-256,102,283,395,73,-439,-400,-370
-287,-48,239,168,-263,95,297,390,78,-497,-448,-409
-307,-73,234,190,-270,80,317,385,87,-551,-492,-444
-331,-82,248,207,-290,82,331,370,92,-614,-546,-483
-356,-92,263,224,-309,85,351,361,102,-678,-600,-517
-380,-107,273,244,-326,82,370,346,107,-746,-663,-561
-405,-131,273,268,-339,70,390,317,117,-814,-722,-610
-419,-156,263,287,-341,53,409,287,122,-888,-785,-649
-439,-175,263,307,-351,43,424,263,131,-956,-854,-697
-473,-204,268,339,-370,31,439,234,131,-1024,-912,-741
-483,-229,253,356,-368,12,448,200,131,-1083,-961,-785
-497,-263,234,380,-366,-14,463,170,131,-1132,-1005,-814
-512,-287,224,400,-368,-31,468,141,131,-1180,-1049,-849
-527,-302,224,414,-375,-39,463,102,126,-1210,-1088,-878
-527,-331,195,429,-361,-68,458,58,122,-1239,-1122,-902
-527,-346,180,436,-353,-82,448,24,122,-1254,-1141,-917
-522,-351,170,436,-346,-90,429,0,112,-1254,-1151,-917
-517,-351,165,434,-341,-92,409,-24,97,-1244,-1151,-917
-492,-351,141,422,-317,-104,385,-53,87,-1205,-1132,-902
-473,-346,126,409,-300,-109,361,-68,78,-1156,-1088,-873
-453,-341,112,397,-283,-114,326,-73,73,-1098,-1049,-844
-424,-322,102,373,-263,-109,297,-78,58,-1019,-995,-805
-390,-307,82,348,-236,-112,268,-78,48,-922,-922,-761
-356,-283,73,319,-214,-104,234,-78,34,-814,-844,-702
-312,-253,58,283,-185,-97,195,-68,19,-727,-766,-644
-283,-229,53,256,-168,-87,165,-58,9,-644,-692,-585
-239,-200,39,219,-139,-80,131,-53,4,-551,-610,-522
-214,-175,39,195,-126,-68,107,-48,-9,-463,-531,-458
-185,-146,39,165,-112,-53,82,-48,-14,-390,-458,-400
-161,-117,43,139,-102,-36,63,-48,-19,-336,-390,-346
-126,-97,29,112,-78,-34,43,-43,-29,-268,-336,-297
-102,-73,29,87,-65,-21,24,-39,-29,-200,-278,-248
-78,-48,29,63,-53,-9,4,-34,-34,-151,-229,-204
-63,-34,29,48,-46,-2,-9,-29,-34,-122,-200,-175
-48,-19,29,34,-39,4,-24,-29,-34,-87,-165,-136
-39,-4,34,21,-36,14,-34,-29,-39,-48,-126,-112
-24,9,34,7,-29,21,-43,-29,-39,-29,-92,-82
-19,19,39,0,-29,29,-53,-29,-43,-14,-68,-63
-9,34,43,-12,-26,39,-53,-29,-43,0,-53,-43
-4,39,43,-17,-24,41,-53,-29,-43,14,-34,-29
-4,48,53,-21,-29,51,-58,-29,-39,24,-19,-19
0,53,53,-26,-26,53,-63,-29,-39,34,-9,-14
4,58,53,-31,-24,56,-68,-29,-39,34,-9,-9
9,53,43,-31,-17,48,-68,-29,-39,34,-9,-4
4,53,48,-29,-21,51,-68,-29,-39,34,-4,-4
4,53,48,-29,-21,51,-73,-29,-39,34,-4,0
4,53,48,-29,-21,51,-73,-24,-39,29,-4,0
4,53,48,-29,-21,51,-68,-19,-39,29,-4,0
4,58,53,-31,-24,56,-68,-29,-34,24,-4,-4
4,63,58,-34,-26,61,-68,-29,-29,19,-4,-4
4,63,58,-34,-26,61,-68,-29,-29,14,-14,-9
0,63,63,-31,-31,63,-68,-24,-29,9,-24,-14
0,63,63,-31,-31,63,-63,-29,-24,0,-39,-24
-4,63,68,-29,-36,65,-63,-29,-24,-4,-43,-24
-9,48,58,-19,-34,53,-63,-29,-29,-14,-43,-24
-14,39,53,-12,-34,46,-63,-34,-34,-24,-48,-29
-14,39,53,-12,-34,46,-58,-34,-29,-29,-58,-39
-19,39,58,-9,-39,48,-58,-34,-29,-39,-63,-39
-19,34,53,-7,-36,43,-48,-39,-29,-39,-73,-48
-24,29,53,-2,-39,41,-48,-39,-29,-48,-78,-53
-29,29,58,0,-43,43,-43,-39,-29,-53,-78,-58
-29,34,63,-2,-46,48,-43,-39,-24,-53,-87,-68
-34,29,63,2,-48,46,-39,-39,-24,-58,-87,-68
-34,24,58,4,-46,41,-34,-43,-24,-63,-97,-78
-39,24,63,7,-51,43,-34,-43,-24,-63,-102,-78
-39,24,63,7,-51,43,-29,-43,-24,-68,-102,-78
-43,19,63,12,-53,41,-29,-48,-24,-68,-107,-78
-43,19,63,12,-53,41,-29,-48,-24,-73,-112,-87
-43,19,63,12,-53,41,-29,-48,-29,-73,-112,-87
-39,19,58,9,-48,39,-29,-48,-29,-73,-112,-87
-39,19,58,9,-48,39,-29,-53,-29,-73,-112,-87
-43,14,58,14,-51,36,-24,-53,-29,-73,-117,-92
-48,14,63,17,-56,39,-24,-53,-29,-68,-117,-92
-53,14,68,19,-61,41,-24,-58,-29,-68,-117,-92
-53,19,73,17,-63,46,-24,-58,-24,-68,-112,-97
-53,19,73,17,-63,46,-24,-58,-19,-68,-112,-102
-48,14,63,17,-56,39,-24,-58,-19,-68,-112,-102
-48,14,63,17,-56,39,-29,-63,-19,-63,-107,-97
-48,14,63,17,-56,39,-29,-63,-24,-63,-102,-92
-48,19,68,14,-58,43,-29,-63,-29,-63,-102,-92
-48,19,68,14,-58,43,-29,-63,-29,-63,-102,-92
-48,19,68,14,-58,43,-29,-68,-29,-63,-102,-92
-48,19,68,14,-58,43,-29,-68,-29,-63,-107,-92
-48,19,68,14,-58,43,-34,-68,-29,-63,-107,-87
-43,19,63,12,-53,41,-39,-68,-29,-63,-107,-87
-39,19,58,9,-48,39,-43,-73,-29,-63,-102,-87
-39,24,63,7,-51,43,-43,-73,-24,-63,-102,-92
-39,29,68,4,-53,48,-43,-73,-19,-63,-102,-92
-43,29,73,7,-58,51,-43,-78,-19,-63,-102,-92
-48,29,78,9,-63,53,-43,-78,-19,-53,-97,-92
-48,19,68,14,-58,43,-48,-78,-24,-53,-92,-82
-48,9,58,19,-53,34,-48,-78,-29,-53,-92,-78
-43,9,53,17,-48,31,-48,-78,-29,-53,-87,-78
-39,9,48,14,-43,29,-48,-78,-34,-53,-82,-78
-39,14,53,12,-46,34,-48,-82,-29,-53,-82,-73
-39,19,58,9,-48,39,-48,-87,-29,-58,-87,-68
-39,19,58,9,-48,39,-48,-87,-29,-58,-87,-68
-39,19,58,9,-48,39,-48,-87,-29,-58,-87,-68
-39,19,58,9,-48,39,-48,-87,-29,-58,-82,-68
-39,19,58,9,-48,39,-48,-87,-29,-53,-78,-63
-39,19,58,9,-48,39,-48,-87,-29,-48,-78,-63
-39,29,68,4,-53,48,-48,-87,-29,-48,-78,-63
-39,39,78,0,-58,58,-43,-87,-24,-48,-73,-63
-39,53,92,-7,-65,73,-34,-78,-9,-34,-63,-58
-34,73,107,-19,-70,90,-4,-63,4,-19,-58,-53
-34,87,122,-26,-78,104,19,-48,19,-9,-53,-43
-29,87,117,-29,-73,102,19,-39,19,-4,-48,-39
-24,92,117,-34,-70,104,19,-29,19,0,-43,-39
-19,97,117,-39,-68,107,19,-24,24,4,-34,-39
-9,117,126,-53,-68,122,24,-24,34,14,-24,-34
0,141,141,-70,-70,141,0,-39,48,24,-14,-19
4,180,175,-92,-85,178,-39,-58,68,29,-4,-4
19,190,170,-104,-75,180,-68,-82,68,29,0,0
24,190,165,-107,-70,178,-92,-97,63,29,4,0
29,190,161,-109,-65,175,-126,-102,58,29,4,9
43,209,165,-126,-61,187,-161,-107,48,39,19,24
73,224,151,-148,-39,187,-185,-117,39,48,34,34
92,234,141,-163,-24,187,-200,-117,29,53,39,43
107,244,136,-175,-14,190,-204,-117,29,68,53,58
117,244,126,-180,-4,185,-204,-117,24,82,68,78
122,239,117,-180,2,178,-195,-117,14,82,73,82
122,209,87,-165,17,148,-195,-131,0,53,58,73
117,190,73,-153,21,131,-190,-141,-4,34,39,63
112,170,58,-141,26,114,-180,-141,-4,24,29,53
78,156,78,-117,0,117,-151,-126,-4,24,29,43
63,141,78,-102,-7,109,-131,-112,0,34,29,34
34,122,87,-78,-26,104,-92,-87,0,43,34,39
4,87,82,-46,-39,85,-68,-87,-9,34,14,9
-24,19,43,2,-34,31,-48,-97,-29,-19,-43,-43
-34,-4,29,19,-31,12,-39,-97,-34,-39,-63,-58
-39,-14,24,26,-31,4,-39,-102,-34,-53,-78,-73
-39,-24,14,31,-26,-4,-39,-102,-34,-53,-82,-78
-48,-34,14,41,-31,-9,-39,-102,-39,-53,-82,-78
-48,-39,9,43,-29,-14,-39,-102,-39,-53,-82,-73
-43,-48,-4,46,-19,-26,-39,-102,-39,-53,-78,-73
-43,-58,-14,51,-14,-36,-39,-102,-43,-53,-78,-73
-48,-63,-14,56,-17,-39,-39,-112,-48,-73,-87,-73
-48,-63,-14,56,-17,-39,-29,-117,-48,-73,-92,-73
-48,-48,0,48,-24,-24,0,-53,-43,4,-48,-68
-39,-14,24,26,-31,4,43,87,-29,180,58,-24
-48,73,122,-12,-85,97,53,126,4,346,180,24
-39,170,209,-65,-124,190,112,331,34,546,302,82
-34,268,302,-117,-168,285,307,917,82,917,463,136
34,356,322,-195,-143,339,478,1405,87,1293,697,248
185,429,244,-307,-29,336,488,1605,43,1639,990,419
370,619,248,-495,61,434,356,1415,9,2015,1488,785
619,893,273,-756,173,583,43,917,-48,2498,2239,1356
873,1215,341,-1044,265,778,-566,112,-68,2786,2752,1825
1171,1571,400,-1371,385,985,-1503,-844,-82,2693,2937,2181
1542,1878,336,-1710,602,1107,-2386,-1683,-165,2864,3313,2659
2005,2039,34,-2022,985,1037,-3025,-2005,-336,3562,3904,3230
2332,1869,-463,-2100,1398,702,-3157,-1903,-590,4270,4411,3664
2303,1527,-775,-1915,1539,375,-2825,-1873,-741,4387,4509,3899
1966,1283,-683,-1625,1324,300,-2420,-2005,-668,3142,3689,3650
1376,907,-468,-1141,922,219,-1839,-2152,-527,117,1561,2698
941,531,-409,-736,675,61,-1312,-1873,-434,-1351,219,1800
610,146,-463,-378,536,-158,-790,-1180,-361,-980,-53,1005
263,-87,-351,-87,307,-219,-336,-590,-224,-683,-263,297
19,-146,-165,63,92,-156,-58,-219,-117,-414,-278,-53
-78,-161,-82,119,2,-122,63,-73,-53,-268,-263,-175
-87,-156,-68,122,-9,-112,73,-63,-43,-248,-248,-180
-92,-161,-68,126,-12,-114,82,-34,-43,-239,-229,-180
-92,-161,-68,126,-12,-114,107,14,-43,-219,-214,-170
-107,-161,-53,134,-26,-107,122,29,-43,-204,-209,-180
-112,-161,-48,136,-31,-104,126,29,-34,-195,-209,-180
-112,-161,-48,136,-31,-104,136,43,-34,-185,-200,-180
-112,-156,-43,134,-34,-100,151,63,-34,-175,-190,-175
-112,-156,-43,134,-34,-100,161,68,-29,-170,-185,-175
-117,-156,-39,136,-39,-97,165,68,-24,-165,-180,-175
-122,-156,-34,139,-43,-95,165,68,-24,-156,-175,-170
-122,-156,-34,139,-43,-95,170,82,-24,-156,-170,-170
-117,-156,-39,136,-39,-97,170,92,-19,-156,-170,-165
-117,-151,-34,134,-41,-92,170,92,-19,-141,-165,-161
-117,-151,-34,134,-41,-92,170,97,-19,-136,-156,-156
-112,-146,-34,129,-39,-90,170,102,-14,-126,-151,-151
-112,-141,-29,126,-41,-85,170,107,-14,-126,-146,-146
-112,-136,-24,124,-43,-80,170,112,-14,-122,-141,-146
-112,-131,-19,122,-46,-75,170,112,-14,-117,-136,-141
-112,-131,-19,122,-46,-75,170,117,-14,-112,-131,-141
-112,-131,-19,122,-46,-75,175,126,-9,-112,-126,-141
-112,-131,-19,122,-46,-75,175,136,-9,-107,-112,-136
-112,-131,-19,122,-46,-75,185,146,-9,-97,-107,-131
-112,-122,-9,117,-51,-65,185,146,-9,-92,-97,-126
-112,-122,-9,117,-51,-65,185,156,-4,-87,-97,-126
-112,-117,-4,114,-53,-61,185,165,-4,-82,-87,-122
-112,-112,0,112,-56,-56,190,170,0,-73,-82,-117
-112,-117,-4,114,-53,-61,190,180,4,-68,-73,-117
-112,-122,-9,117,-51,-65,190,190,4,-63,-73,-122
-112,-122,-9,117,-51,-65,190,204,4,-63,-73,-122
-112,-117,-4,114,-53,-61,195,214,14,-58,-68,-117
-117,-112,4,114,-61,-53,200,224,9,-63,-68,-117
-117,-112,4,114,-61,-53,204,234,9,-63,-68,-117
-117,-112,4,114,-61,-53,214,244,9,-63,-58,-112
-117,-112,4,114,-61,-53,224,258,9,-63,-58,-112
-126,-102,24,114,-75,-39,229,268,14,-63,-68,-117
-126,-97,29,112,-78,-34,239,283,19,-58,-68,-117
-126,-97,29,112,-78,-34,239,297,19,-58,-68,-117
-131,-102,29,117,-80,-36,244,312,24,-63,-68,-122
-131,-107,24,119,-78,-41,248,326,24,-73,-78,-126
-141,-112,29,126,-85,-41,258,336,34,-82,-87,-131
-151,-107,43,129,-97,-31,268,356,39,-87,-92,-141
-156,-107,48,131,-102,-29,283,370,48,-97,-97,-146
-165,-112,53,139,-109,-29,297,390,53,-117,-112,-156
-170,-117,53,143,-112,-31,312,405,58,-136,-131,-175
-175,-117,58,146,-117,-29,326,414,68,-156,-151,-195
-185,-122,63,153,-124,-29,341,419,73,-185,-185,-214
-195,-126,68,161,-131,-29,361,429,82,-224,-214,-239
-209,-131,78,170,-143,-26,380,434,87,-263,-248,-263
-234,-141,92,187,-163,-24,395,434,97,-297,-287,-287
-248,-156,92,202,-170,-31,414,429,107,-351,-331,-322
-263,-180,82,222,-173,-48,429,429,122,-405,-375,-356
-283,-190,92,236,-187,-48,439,419,131,-468,-429,-395
-307,-204,102,256,-204,-51,458,405,141,-531,-483,-434
-331,-224,107,278,-219,-58,478,385,146,-600,-546,-483
-356,-248,107,302,-231,-70,497,366,156,-663,-600,-531
-370,-273,97,322,-234,-87,517,346,161,-732,-658,-570
-390,-292,97,341,-244,-97,527,322,170,-810,-736,-624
-424,-322,102,373,-263,-109,536,292,170,-888,-805,-673
-439,-336,102,387,-270,-117,541,253,170,-946,-858,-717
-458,-361,97,409,-278,-131,551,219,170,-995,-907,-746
-473,-385,87,429,-280,-148,556,190,170,-1058,-961,-785
-488,-400,87,444,-287,-156,551,151,165,-1102,-1010,-819
-492,-424,68,458,-280,-178,546,107,161,-1137,-1039,-849
-497,-434,63,466,-280,-185,536,73,161,-1156,-1054,-868
-492,-439,53,466,-273,-192,517,48,151,-1161,-1073,-868
-488,-439,48,463,-268,-195,497,24,136,-1156,-1083,-868
-463,-439,24,451,-244,-207,473,-9,126,-1117,-1068,-858
-444,-434,9,439,-226,-212,448,-29,117,-1068,-1029,-834
-429,-434,-4,431,-212,-219,414,-34,107,-1015,-990,-810
-405,-419,-14,412,-195,-217,385,-39,87,-941,-936,-775
-375,-405,-29,390,-173,-217,356,-39,78,-854,-863,-732
-346,-380,-34,363,-156,-207,322,-39,63,-756,-785,-673
-302,-351,-48,326,-126,-200,283,-34,48,-663,-707,-610
-273,-326,-53,300,-109,-190,253,-29,39,-575,-634,-546
-224,-297,-73,261,-75,-185,219,-19,34,-483,-551,-488
-195,-273,-78,234,-58,-175,195,-9,19,-395,-473,-429
-165,-244,-78,204,-43,-161,161,-9,14,-317,-405,-370
-141,-214,-73,178,-34,-143,131,-9,9,-258,-341,-317
-107,-195,-87,151,-9,-141,112,0,0,-195,-283,-263
-82,-170,-87,126,2,-129,92,9,0,-131,-219,-209
-53,-146,-92,100,19,-119,73,9,-4,-78,-170,-165
-34,-131,-97,82,31,-114,58,9,-4,-43,-141,-136
-19,-117,-97,68,39,-107,43,9,-4,-14,-107,-97
-9,-102,-92,56,41,-97,34,9,-9,19,-68,-73
4,-87,-92,41,48,-90,19,9,-9,43,-34,-43
9,-78,-87,34,48,-82,4,9,-14,63,-9,-24
19,-63,-82,21,51,-73,0,14,-14,78,4,-9
24,-58,-82,17,53,-70,-4,19,-14,92,24,0
24,-43,-68,9,46,-56,-9,19,-9,97,39,14
29,-34,-63,2,46,-48,-14,19,-9,102,48,24
29,-24,-53,-2,41,-39,-19,19,-9,102,48,29
29,-24,-53,-2,41,-39,-19,19,-9,102,48,34
24,-24,-48,0,36,-36,-19,19,-14,102,53,34
24,-24,-48,0,36,-36,-24,19,-19,102,53,39
24,-24,-48,0,36,-36,-24,19,-19,97,53,39
24,-24,-48,0,36,-36,-19,19,-19,97,53,39
24,-24,-48,0,36,-36,-19,9,-14,92,53,34
24,-24,-48,0,36,-36,-19,9,-9,87,53,34
24,-24,-48,0,36,-36,-19,4,-9,78,43,29
19,-24,-43,2,31,-34,-19,4,-9,68,34,24
19,-29,-48,4,34,-39,-14,0,-4,58,19,14
14,-34,-48,9,31,-41,-14,0,-4,53,14,14
14,-39,-53,12,34,-46,-14,0,-4,43,14,14
14,-39,-53,12,34,-46,-14,-4,-4,34,9,9
14,-34,-48,9,31,-41,-9,-4,0,29,0,0
9,-29,-39,9,24,-34,-9,-4,0,19,-4,0
9,-34,-43,12,26,-39,4,-9,0,24,-14,-9
4,-39,-43,17,24,-41,9,-9,0,19,-19,-14
0,-43,-43,21,21,-43,14,-9,-4,14,-19,-19
0,-43,-43,21,21,-43,14,-9,-4,14,-29,-29
-4,-53,-48,29,21,-51,14,-9,-4,9,-29,-29
-4,-63,-58,34,26,-61,14,-14,-4,4,-39,-39
-9,-63,-53,36,21,-58,14,-14,-4,4,-39,-39
-9,-63,-53,36,21,-58,19,-14,-4,0,-34,-39
-14,-68,-53,41,19,-61,19,-19,-4,0,-39,-39
-14,-68,-53,41,19,-61,19,-19,-4,-4,-43,-48
-14,-68,-53,41,19,-61,19,-19,-9,-4,-43,-48
-9,-68,-58,39,24,-63,19,-19,-9,-4,-43,-48
-9,-68,-58,39,24,-63,14,-24,-9,-4,-43,-48
-14,-73,-58,43,21,-65,14,-24,-9,-4,-48,-53
-14,-73,-58,43,21,-65,14,-24,-9,0,-48,-53
-14,-73,-58,43,21,-65,14,-29,-9,0,-48,-53
-14,-68,-53,41,19,-61,14,-29,-9,0,-43,-53
-14,-68,-53,41,19,-61,14,-29,-9,0,-43,-53
-9,-73,-63,41,26,-68,14,-29,-9,0,-48,-58
-9,-73,-63,41,26,-68,9,-34,-9,4,-48,-58
-9,-73,-63,41,26,-68,9,-34,-9,4,-43,-53
-9,-68,-58,39,24,-63,9,-34,-9,4,-43,-53
-9,-68,-58,39,24,-63,9,-34,-9,4,-43,-48
-9,-68,-58,39,24,-63,9,-39,-9,4,-43,-43
-9,-68,-58,39,24,-63,9,-39,-9,4,-39,-43
-9,-68,-58,39,24,-63,4,-39,-9,4,-29,-39
-9,-63,-53,36,21,-58,4,-39,-4,4,-29,-39
-9,-58,-48,34,19,-53,4,-43,0,4,-24,-39
-9,-58,-48,34,19,-53,4,-43,0,4,-24,-39
-9,-58,-48,34,19,-53,4,-43,0,4,-24,-34
-9,-58,-48,34,19,-53,4,-48,0,4,-29,-34
-9,-58,-48,34,19,-53,4,-48,0,14,-29,-34
-9,-58,-48,34,19,-53,0,-48,0,14,-24,-29
-9,-58,-48,34,19,-53,0,-48,0,14,-24,-29
-9,-58,-48,34,19,-53,0,-48,0,9,-24,-29
-9,-58,-48,34,19,-53,0,-48,-4,4,-24,-29
-9,-58,-48,34,19,-53,0,-53,0,0,-24,-29
-9,-63,-53,36,21,-58,-4,-58,0,0,-29,-29
-9,-58,-48,34,19,-53,0,-58,0,4,-29,-29
-9,-58,-48,34,19,-53,0,-58,0,9,-29,-29
-9,-53,-43,31,17,-48,0,-53,0,9,-24,-29
-9,-48,-39,29,14,-43,0,-48,0,9,-19,-29
-9,-48,-39,29,14,-43,0,-48,4,14,-19,-29
-9,-43,-34,26,12,-39,0,-48,4,14,-19,-24
-9,-39,-29,24,9,-34,0,-48,9,19,-19,-19
-9,-29,-19,19,4,-24,4,-48,14,19,-14,-14
-9,-14,-4,12,-2,-9,14,-39,29,34,-4,-9
-4,0,4,2,-4,2,39,-29,39,43,0,-4
-4,9,14,-2,-9,12,58,-19,48,48,4,4
0,9,9,-4,-4,9,58,-9,48,53,9,9
4,14,9,-9,-2,12,58,0,48,58,14,9
9,24,14,-17,-2,19,53,0,53,63,19,9
24,48,24,-36,0,36,53,-4,63,73,24,14
39,73,34,-56,2,53,24,-19,78,82,34,29
43,112,68,-78,-12,90,-19,-39,92,87,43,43
58,122,63,-90,-2,92,-48,-58,87,87,48,48
58,117,58,-87,0,87,-73,-68,82,87,53,48
68,117,48,-92,9,82,-102,-73,82,87,53,58
92,141,48,-117,21,95,-131,-78,73,97,68,73
112,156,43,-134,34,100,-151,-87,58,107,82,82
126,165,39,-146,43,102,-161,-87,48,112,87,92
146,175,29,-161,58,102,-165,-87,43,122,102,107
156,175,19,-165,68,97,-165,-87,34,126,117,122
156,170,14,-163,70,92,-156,-87,24,122,117,117
146,141,-4,-143,75,68,-156,-102,9,92,97,102
131,122,-9,-126,70,56,-151,-112,4,73,78,92
122,102,-19,-112,70,41,-141,-112,4,63,63,82
87,87,0,-87,43,43,-112,-97,4,63,58,73
73,73,0,-73,36,36,-97,-87,9,73,58,63
43,43,0,-43,21,21,-63,-68,9,73,53,58
14,0,-14,-7,14,-7,-39,-68,0,53,24,19
-9,-58,-48,34,19,-53,-24,-78,-19,9,-24,-24
-14,-73,-58,43,21,-65,-19,-78,-24,0,-34,-29
-19,-82,-63,51,21,-73,-19,-82,-24,-14,-48,-43
-19,-92,-73,56,26,-82,-14,-82,-24,-14,-53,-48
-29,-97,-68,63,19,-82,-9,-82,-29,-14,-53,-48
-29,-92,-63,61,17,-78,-9,-82,-29,-14,-53,-43
-24,-92,-68,58,21,-80,-9,-82,-29,-14,-48,-43
-24,-97,-73,61,24,-85,-14,-82,-34,-9,-43,-43
-29,-97,-68,63,19,-82,-14,-78,-34,-4,-39,-43
-29,-97,-68,63,19,-82,0,-58,-29,14,-34,-43
-29,-68,-39,48,4,-53,29,29,-19,126,34,-29
-19,-14,4,17,-12,-4,82,195,0,336,165,24
-19,82,102,-31,-61,92,122,322,34,536,297,82
0,190,190,-95,-95,190,204,605,63,761,424,151
43,297,253,-170,-104,275,356,1107,92,1137,634,248
151,385,234,-268,-41,309,478,1483,78,1498,902,395
322,492,170,-407,75,331,400,1498,34,1830,1268,644
536,736,200,-636,168,468,136,1112,0,2239,1859,1098
800,1019,219,-910,290,619,-297,502,-58,2630,2503,1629
1073,1346,273,-1210,400,810,-1024,-375,-82,2796,2898,2059
1395,1644,248,-1520,573,946,-1903,-1200,-136,2810,3123,2440
1781,1888,107,-1834,836,997,-2654,-1869,-253,3069,3523,2923
2127,1932,-195,-2030,1161,868,-3059,-2069,-414,3577,3938,3372
2332,1639,-692,-1986,1512,473,-2976,-1883,-653,4084,4270,3703
2171,1293,-878,-1732,1525,207,-2576,-1869,-727,3572,3894,3664
1703,1049,-653,-1376,1178,197,-2103,-2010,-580,1830,2713,3172
1171,678,-492,-924,832,92,-1537,-1981,-448,-483,985,2249
780,307,-473,-544,627,-82,-1039,-1532,-361,-1332,-43,1351
473,0,-473,-236,473,-236,-580,-902,-283,-888,-185,678
151,-146,-297,-2,224,-222,-185,-370,-146,-512,-268,92
-43,-180,-136,112,46,-158,24,-92,-68,-312,-273,-151
-78,-190,-112,134,17,-151,73,-43,-34,-239,-248,-165
-82,-190,-107,136,12,-148,82,-34,-24,-224,-239,-170
-82,-190,-107,136,12,-148,92,-4,-24,-214,-219,-170
-82,-190,-107,136,12,-148,117,34,-24,-195,-209,-161
-97,-185,-87,141,-4,-136,131,39,-24,-185,-204,-170
-102,-175,-73,139,-14,-124,131,39,-14,-175,-200,-170
-102,-170,-68,136,-17,-119,136,53,-14,-165,-190,-170
-102,-165,-63,134,-19,-114,146,73,-14,-156,-180,-165
-102,-165,-63,134,-19,-114,151,78,-9,-151,-175,-165
-107,-165,-58,136,-24,-112,156,78,-9,-146,-170,-165
-112,-170,-58,141,-26,-114,156,78,-14,-136,-165,-161
-112,-175,-63,143,-24,-119,161,92,-14,-136,-161,-161
-107,-175,-68,141,-19,-122,161,102,-9,-136,-161,-156
-107,-170,-63,139,-21,-117,161,102,-9,-126,-156,-156
-107,-170,-63,139,-21,-117,165,112,-9,-126,-146,-156
-102,-165,-63,134,-19,-114,170,122,-4,-117,-141,-151
-102,-161,-58,131,-21,-109,170,126,-4,-117,-136,-146
-102,-156,-53,129,-24,-104,170,131,-4,-112,-131,-141
-102,-151,-48,126,-26,-100,165,131,-4,-107,-126,-131
-102,-151,-48,126,-26,-100,161,136,-4,-102,-122,-131
-102,-146,-43,124,-29,-95,165,146,0,-102,-117,-131
-102,-141,-39,122,-31,-90,165,156,0,-97,-107,-126
-102,-141,-39,122,-31,-90,175,165,0,-92,-107,-122
-102,-131,-29,117,-36,-80,175,165,0,-92,-97,-117
-102,-131,-29,117,-36,-80,175,175,4,-87,-97,-117
-102,-126,-24,114,-39,-75,175,185,4,-82,-87,-112
-107,-122,-14,114,-46,-68,180,190,9,-73,-82,-107
-112,-122,-9,117,-51,-65,180,200,9,-73,-73,-107
-112,-122,-9,117,-51,-65,185,209,4,-73,-73,-112
-112,-122,-9,117,-51,-65,190,219,4,-73,-73,-112
-112,-117,-4,114,-53,-61,195,224,14,-68,-68,-107
-117,-112,4,114,-61,-53,200,234,14,-68,-68,-107
-117,-117,0,117,-58,-58,204,244,19,-63,-68,-107
-117,-122,-4,119,-56,-63,209,253,19,-63,-58,-102
-117,-122,-4,119,-56,-63,214,268,19,-63,-58,-107
-126,-117,9,122,-68,-53,219,278,24,-68,-68,-117
-126,-117,9,122,-68,-53,229,292,34,-68,-68,-117
-126,-117,9,122,-68,-53,234,307,39,-68,-68,-117
-131,-122,9,126,-70,-56,244,322,43,-73,-68,-122
-131,-122,9,126,-70,-56,248,336,43,-82,-78,-131
-136,-122,14,129,-75,-53,258,346,53,-97,-92,-141
-141,-117,24,129,-82,-46,268,366,58,-107,-107,-151
-146,-112,34,129,-90,-39,283,380,68,-117,-117,-156
-156,-112,43,134,-100,-34,292,395,73,-136,-131,-165
-170,-117,53,143,-112,-31,302,405,78,-156,-151,-185
-185,-117,68,151,-126,-24,317,414,87,-180,-170,-204
-195,-126,68,161,-131,-29,331,419,92,-214,-204,-229
-204,-136,68,170,-136,-34,351,429,102,-253,-234,-258
-224,-141,82,183,-153,-29,370,429,107,-297,-268,-283
-253,-151,102,202,-178,-24,385,424,117,-336,-307,-307
-268,-165,102,217,-185,-31,405,414,126,-390,-356,-341
-283,-190,92,236,-187,-48,424,409,136,-444,-405,-375
-297,-200,97,248,-197,-51,434,400,141,-512,-463,-419
-317,-214,102,265,-209,-56,448,390,151,-575,-522,-458
-341,-229,112,285,-226,-58,468,370,156,-639,-585,-502
-366,-248,117,307,-241,-65,488,346,165,-702,-639,-551
-380,-273,107,326,-244,-82,507,326,170,-771,-697,-590
-400,-292,107,346,-253,-92,517,302,180,-839,-766,-639
-434,-326,107,380,-270,-109,527,268,180,-907,-824,-683
-444,-346,97,395,-270,-124,531,229,180,-966,-878,-727
-458,-370,87,414,-273,-141,541,200,175,-1015,-922,-756
-473,-395,78,434,-275,-158,541,170,170,-1063,-961,-790
-488,-405,82,446,-285,-161,527,131,165,-1093,-1000,-819
-488,-424,63,456,-275,-180,517,92,161,-1117,-1029,-839
-488,-434,53,461,-270,-190,507,63,161,-1122,-1039,-844
-483,-439,43,461,-263,-197,488,39,151,-1117,-1044,-839
-473,-434,39,453,-256,-197,463,14,136,-1102,-1044,-839
-444,-429,14,436,-229,-207,434,-14,126,-1058,-1024,-829
-424,-424,0,424,-212,-212,409,-29,117,-1005,-976,-800
-405,-419,-14,412,-195,-217,375,-34,107,-941,-927,-766
-366,-395,-29,380,-168,-212,346,-34,87,-863,-868,-722
-326,-375,-48,351,-139,-212,317,-29,78,-775,-795,-673
-297,-351,-53,324,-122,-202,283,-24,63,-678,-717,-614
-253,-322,-68,287,-92,-195,244,-14,48,-590,-644,-556
-229,-302,-73,265,-78,-187,219,-9,39,-507,-580,-497
-190,-278,-87,234,-51,-183,190,-4,34,-419,-502,-439
-165,-253,-87,209,-39,-170,165,0,19,-341,-424,-380
-136,-224,-87,180,-24,-156,136,0,14,-273,-361,-322
-112,-195,-82,153,-14,-139,112,0,9,-219,-302,-268
-82,-175,-92,129,4,-134,92,4,0,-161,-248,-224
-63,-151,-87,107,12,-119,68,9,0,-107,-195,-185
-39,-126,-87,82,24,-107,43,9,-4,-63,-151,-146
-24,-107,-82,65,29,-95,29,9,-4,-34,-122,-117
-9,-87,-78,48,34,-82,14,9,-4,-4,-87,-82
0,-73,-73,36,36,-73,9,9,-4,24,-53,-63
14,-58,-73,21,43,-65,4,9,0,39,-29,-34
14,-48,-63,17,39,-56,-4,9,-4,53,-9,-14
19,-34,-53,7,36,-43,-9,9,-4,63,0,0
24,-39,-63,7,43,-51,-14,9,-9,73,19,9
24,-39,-63,7,43,-51,-19,9,-9,78,34,19
29,-34,-63,2,46,-48,-24,9,-9,82,39,24
29,-24,-53,-2,41,-39,-29,9,-9,82,39,29
29,-24,-53,-2,41,-39,-24,9,-4,82,34,29
24,-24,-48,0,36,-36,-19,9,0,82,34,24
24,-24,-48,0,36,-36,-24,9,0,82,29,29
24,-24,-48,0,36,-36,-24,9,0,78,24,29
24,-24,-48,0,36,-36,-19,9,0,78,24,29
24,-24,-48,0,36,-36,-19,0,0,73,24,24
24,-24,-48,0,36,-36,-19,0,0,68,24,24
24,-24,-48,0,36,-36,-19,-4,0,58,14,19
19,-24,-43,2,31,-34,-14,-4,0,48,4,14
19,-24,-43,2,31,-34,-4,-9,4,39,-9,4
14,-24,-39,4,26,-31,-4,-9,4,29,-14,4
9,-29,-39,9,24,-34,-4,-9,4,14,-14,0
4,-29,-34,12,19,-31,-9,-14,4,4,-19,-9
4,-29,-34,12,19,-31,-9,-14,9,0,-29,-19
-4,-29,-24,17,9,-26,-9,-14,9,-9,-34,-24
-9,-34,-24,21,7,-29,0,-19,9,-9,-43,-34
-14,-39,-24,26,4,-31,0,-19,9,-19,-48,-34
-19,-43,-24,31,2,-34,4,-19,9,-24,-48,-39
-14,-43,-29,29,7,-36,4,-19,14,-24,-58,-43
-14,-48,-34,31,9,-41,4,-19,14,-29,-58,-43
-14,-53,-39,34,12,-46,4,-24,14,-29,-63,-58
-19,-53,-34,36,7,-43,4,-24,14,-24,-63,-58
-19,-53,-34,36,7,-43,9,-24,14,-29,-63,-58
-24,-58,-34,41,4,-46,9,-29,14,-29,-68,-58
-24,-58,-34,41,4,-46,9,-29,14,-34,-73,-68
-24,-58,-34,41,4,-46,9,-29,9,-34,-73,-68
-24,-58,-34,41,4,-46,9,-29,9,-34,-73,-68
-29,-58,-29,43,0,-43,9,-34,9,-34,-73,-68
-34,-63,-29,48,-2,-46,14,-34,9,-39,-78,-73
-34,-63,-29,48,-2,-46,14,-34,9,-39,-78,-73
-29,-63,-34,46,2,-48,9,-39,9,-39,-82,-73
-24,-58,-34,41,4,-46,4,-39,9,-39,-82,-73
-24,-53,-29,39,2,-41,4,-39,9,-39,-82,-73
-19,-53,-34,36,7,-43,4,-39,9,-39,-82,-73
-19,-53,-34,36,7,-43,0,-43,9,-34,-78,-68
-19,-53,-34,36,7,-43,0,-43,9,-34,-73,-63
-19,-53,-34,36,7,-43,0,-48,9,-29,-68,-58
-19,-58,-39,39,9,-48,0,-53,9,-24,-63,-53
-19,-58,-39,39,9,-48,0,-58,4,-24,-63,-53
-19,-58,-39,39,9,-48,0,-58,0,-24,-63,-53
-19,-58,-39,39,9,-48,-4,-58,0,-24,-58,-48
-19,-58,-39,39,9,-48,-4,-58,0,-24,-58,-48
-19,-58,-39,39,9,-48,-4,-63,0,-24,-53,-53
-19,-58,-39,39,9,-48,-4,-63,0,-24,-53,-58
-19,-53,-34,36,7,-43,-4,-63,4,-24,-53,-53
-19,-48,-29,34,4,-39,-4,-68,9,-24,-53,-53
-19,-48,-29,34,4,-39,-4,-68,9,-14,-48,-53
-19,-48,-29,34,4,-39,-9,-68,9,-14,-43,-48
-14,-48,-34,31,9,-41,-9,-68,9,-14,-43,-48
-9,-48,-39,29,14,-43,-9,-68,9,-14,-43,-48
-9,-48,-39,29,14,-43,-9,-68,4,-14,-43,-48
-9,-48,-39,29,14,-43,-9,-68,4,-14,-43,-48
-4,-48,-43,26,19,-46,-9,-73,9,-14,-48,-48
-4,-48,-43,26,19,-46,-14,-73,9,-14,-53,-43
-9,-43,-34,26,12,-39,-14,-73,9,-14,-48,-43
-9,-43,-34,26,12,-39,-19,-78,9,-14,-48,-43
-14,-48,-34,31,9,-41,-14,-78,4,-14,-48,-43
-19,-53,-34,36,7,-43,-14,-78,0,-14,-48,-43
-19,-53,-34,36,7,-43,-14,-78,0,-9,-48,-39
-19,-48,-29,34,4,-39,-14,-78,0,-9,-48,-29
-14,-48,-34,31,9,-41,-9,-78,0,-9,-43,-29
-14,-53,-39,34,12,-46,-9,-82,0,-9,-43,-34
-14,-53,-39,34,12,-46,-14,-82,4,-4,-48,-39
-14,-53,-39,34,12,-46,-14,-82,9,-4,-48,-43
-14,-43,-29,29,7,-36,-14,-82,9,-4,-48,-43
-14,-43,-29,29,7,-36,-14,-78,9,-4,-43,-39
-9,-43,-34,26,12,-39,-14,-78,9,-4,-43,-34
-9,-43,-34,26,12,-39,-14,-87,9,-4,-43,-34
-9,-43,-34,26,12,-39,-14,-87,4,-9,-48,-43
-14,-48,-34,31,9,-41,-19,-87,4,-14,-53,-53
-14,-43,-29,29,7,-36,-19,-87,0,-14,-53,-53
-19,-39,-19,29,0,-29,-19,-87,0,-19,-58,-58
-19,-39,-19,29,0,-29,-14,-87,0,-19,-48,-48
-19,-39,-19,29,0,-29,-9,-87,0,-19,-39,-39
-14,-43,-29,29,7,-36,-9,-87,0,-14,-39,-39
-9,-39,-29,24,9,-34,-9,-87,4,-9,-39,-34
-9,-39,-29,24,9,-34,-9,-87,9,-9,-43,-34
-9,-29,-19,19,4,-24,-4,-87,24,-9,-43,-34
-9,-9,0,9,-4,-4,4,-78,39,4,-34,-39
-4,9,14,-2,-9,12,29,-68,48,14,-29,-43
-4,19,24,-7,-14,21,48,-58,53,19,-24,-34
0,19,19,-9,-9,19,48,-48,48,24,-19,-29
0,24,24,-12,-12,24,48,-39,48,29,-9,-24
0,34,34,-17,-17,34,43,-39,53,34,0,-19
9,58,48,-34,-19,53,43,-43,63,43,4,-14
19,82,63,-51,-21,73,14,-58,78,53,14,0
24,122,97,-73,-36,109,-29,-78,97,58,24,14
39,131,92,-85,-26,112,-58,-97,97,58,29,19
43,131,87,-87,-21,109,-87,-107,92,58,29,19
58,136,78,-97,-9,107,-122,-112,92,58,24,29
82,165,82,-124,0,124,-151,-117,92,68,39,43
102,185,82,-143,9,134,-170,-126,87,78,53,53
117,195,78,-156,19,136,-180,-126,78,82,58,63
136,204,68,-170,34,136,-185,-126,73,92,73,78
146,200,53,-173,46,126,-185,-126,63,102,87,97
146,190,43,-168,51,117,-175,-126,53,102,87,97
136,161,24,-148,56,92,-175,-141,39,73,68,82
122,141,19,-131,51,80,-170,-151,34,53,48,73
112,122,9,-117,51,65,-161,-151,29,43,39,63
78,107,29,-92,24,68,-131,-136,24,43,39,53
63,97,34,-80,14,65,-112,-122,29,53,39,43
34,73,39,-53,-2,56,-73,-97,29,53,34,39
4,29,24,-17,-9,26,-48,-97,24,34,4,0
-19,-29,-9,24,-4,-19,-34,-107,9,-9,-43,-43
-24,-48,-24,36,0,-36,-29,-107,4,-19,-53,-48
-29,-63,-34,46,2,-48,-29,-112,4,-34,-68,-63
-29,-73,-43,51,7,-58,-29,-112,0,-34,-73,-68
-39,-78,-39,58,0,-58,-29,-112,-9,-34,-73,-68
-39,-73,-34,56,-2,-53,-29,-112,-9,-29,-73,-63
-34,-73,-39,53,2,-56,-29,-112,-9,-24,-68,-63
-34,-78,-43,56,4,-61,-29,-112,-14,-24,-68,-63
-39,-78,-39,58,0,-58,-24,-107,-14,-24,-68,-63
-39,-73,-34,56,-2,-53,-14,-102,-9,-9,-63,-63
-39,-39,0,39,-19,-19,9,-29,0,97,4,-48
-24,14,39,4,-31,26,53,122,24,307,136,4
-19,112,131,-46,-75,122,82,234,63,507,268,63
0,219,219,-109,-109,219,151,517,92,741,400,131
43,326,283,-185,-119,305,287,1019,122,1127,614,229
151,424,273,-287,-61,348,424,1459,102,1527,912,395
322,541,219,-431,51,380,361,1537,53,1898,1307,663
522,775,253,-649,134,514,175,1200,19,2274,1898,1117
771,1049,278,-910,246,663,-180,639,-39,2630,2542,1649
1019,1381,361,-1200,329,871,-834,-248,-39,2776,2923,2059
1317,1683,366,-1500,475,1024,-1639,-1083,-68,2771,3132,2420
1698,1927,229,-1812,734,1078,-2488,-1873,-185,3069,3557,2923
2039,1971,-68,-2005,1054,951,-2991,-2196,-346,3616,3996,3391
2244,1683,-561,-1964,1403,561,-2923,-1976,-600,4182,4348,3723
2083,1342,-741,-1712,1412,300,-2537,-1927,-688,3728,3991,3684
1600,1102,-497,-1351,1049,302,-2078,-2044,-527,1893,2693,3123
1054,736,-317,-895,685,209,-1527,-1991,-380,-512,849,2132
688,366,-322,-527,505,21,-1029,-1542,-307,-1356,-146,1254
405,58,-346,-231,375,-143,-570,-912,-244,-907,-253,600
112,-102,-214,-4,163,-158,-185,-385,-112,-536,-317,39
-53,-151,-97,102,21,-124,14,-112,-39,-341,-302,-180
-87,-151,-63,119,-12,-107,63,-63,-4,-268,-273,-190
-92,-141,-48,117,-21,-95,73,-53,4,-253,-258,-190
-92,-146,-53,119,-19,-100,78,-29,-4,-248,-244,-190
-92,-151,-58,122,-17,-104,97,4,-14,-234,-239,-180
-107,-151,-43,129,-31,-97,112,9,-14,-224,-239,-190
-112,-146,-34,129,-39,-90,112,9,-4,-214,-239,-190
-112,-136,-24,124,-43,-80,117,24,0,-209,-229,-190
-112,-126,-14,119,-48,-70,126,43,4,-204,-219,-185
-112,-126,-14,119,-48,-70,126,48,9,-200,-214,-190
-117,-126,-9,122,-53,-68,126,48,9,-195,-209,-195
-122,-122,0,122,-61,-61,126,43,4,-185,-209,-195
-122,-117,4,119,-63,-56,131,53,4,-185,-209,-200
-117,-117,0,117,-58,-58,131,63,9,-185,-209,-195
-117,-112,4,114,-61,-53,131,63,9,-175,-204,-195
-117,-117,0,117,-58,-58,131,68,9,-175,-190,-180
-112,-117,-4,114,-53,-61,131,73,14,-165,-180,-161
-112,-112,0,112,-56,-56,131,78,14,-165,-175,-165
-112,-107,4,109,-58,-51,131,82,14,-161,-170,-170
-112,-102,9,107,-61,-46,131,82,14,-161,-170,-161
-112,-102,9,107,-61,-46,131,87,14,-161,-170,-161
-112,-102,9,107,-61,-46,136,97,14,-161,-165,-156
-112,-102,9,107,-61,-46,136,107,9,-156,-156,-146
-107,-97,9,102,-58,-43,146,117,9,-146,-151,-141
-102,-82,19,92,-61,-31,146,117,9,-141,-136,-136
-102,-82,19,92,-61,-31,146,126,14,-136,-136,-136
-102,-78,24,90,-63,-26,146,136,14,-131,-126,-131
-102,-73,29,87,-65,-21,151,141,19,-122,-126,-131
-102,-73,29,87,-65,-21,151,151,19,-122,-122,-136
-102,-73,29,87,-65,-21,151,161,14,-126,-122,-141
-102,-73,29,87,-65,-21,151,170,14,-131,-122,-141
-102,-73,29,87,-65,-21,156,175,24,-126,-117,-136
-107,-73,34,90,-70,-19,161,185,24,-126,-117,-136
-107,-73,34,90,-70,-19,165,195,29,-122,-117,-131
-107,-73,34,90,-70,-19,170,204,29,-122,-107,-122
-107,-63,43,85,-75,-9,170,219,29,-122,-107,-122
-117,-48,68,82,-92,9,170,229,34,-126,-117,-126
-117,-48,68,82,-92,9,180,244,34,-126,-117,-126
-117,-48,68,82,-92,9,185,258,29,-126,-117,-126
-122,-58,63,90,-92,2,195,273,34,-131,-117,-131
-122,-63,58,92,-90,-2,200,287,34,-141,-126,-141
-131,-63,68,97,-100,2,204,292,43,-156,-136,-151
-141,-58,82,100,-112,12,209,307,48,-165,-146,-161
-146,-58,87,102,-117,14,224,322,58,-175,-156,-165
-156,-63,92,109,-124,14,234,336,63,-195,-170,-175
-161,-68,92,114,-126,12,244,346,68,-214,-190,-195
-165,-68,97,117,-131,14,258,356,78,-239,-209,-214
-175,-63,112,119,-143,24,268,366,82,-268,-244,-234
-185,-58,126,122,-156,34,283,380,92,-302,-273,-258
-200,-63,136,131,-168,36,297,385,97,-341,-312,-283
-224,-73,151,148,-187,39,307,385,107,-375,-356,-307
-239,-87,151,163,-195,31,326,380,117,-429,-400,-341
-253,-112,141,183,-197,14,346,380,126,-483,-444,-375
-268,-122,146,195,-207,12,361,375,131,-546,-497,-419
-287,-136,151,212,-219,7,380,370,141,-605,-551,-458
-312,-151,161,231,-236,4,400,361,146,-668,-614,-502
-336,-170,165,253,-251,-2,419,346,156,-732,-668,-551
-346,-195,151,270,-248,-21,444,336,161,-795,-722,-585
-361,-214,146,287,-253,-34,458,322,170,-858,-785,-629
-395,-244,151,319,-273,-46,468,297,170,-927,-844,-673
-405,-258,146,331,-275,-56,473,268,170,-985,-897,-717
-419,-283,136,351,-278,-73,483,239,170,-1034,-946,-746
-434,-307,126,370,-280,-90,483,209,170,-1083,-990,-780
-448,-322,126,385,-287,-97,478,175,165,-1112,-1029,-810
-448,-346,102,397,-275,-122,478,141,161,-1137,-1058,-829
-448,-356,92,402,-270,-131,468,112,161,-1146,-1073,-844
-444,-361,82,402,-263,-139,448,87,151,-1146,-1083,-849
-439,-361,78,400,-258,-141,434,63,136,-1137,-1083,-849
-414,-361,53,387,-234,-153,414,34,126,-1098,-1063,-839
-400,-361,39,380,-219,-161,390,14,117,-1049,-1019,-814
-385,-361,24,373,-204,-168,356,4,107,-990,-976,-785
-356,-341,14,348,-185,-163,326,-9,87,-907,-917,-746
-326,-326,0,326,-163,-163,297,-19,78,-814,-844,-702
-302,-302,0,302,-151,-151,268,-24,63,-717,-766,-644
-263,-273,-9,268,-126,-141,234,-24,48,-629,-692,-585
-234,-248,-14,241,-109,-131,204,-24,34,-546,-624,-527
-190,-219,-29,204,-80,-124,170,-24,24,-458,-541,-468
-165,-200,-34,183,-65,-117,146,-24,9,-375,-458,-409
-136,-175,-39,156,-48,-107,117,-29,4,-302,-390,-351
-117,-146,-29,131,-43,-87,92,-34,4,-248,-331,-297
-92,-126,-34,109,-29,-80,73,-34,0,-190,-278,-253
-73,-97,-24,85,-24,-61,53,-29,0,-131,-224,-214
-48,-68,-19,58,-14,-43,34,-29,-4,-82,-180,-175
-34,-53,-19,43,-7,-36,19,-29,-4,-53,-151,-146
-19,-39,-19,29,0,-29,4,-29,-4,-24,-117,-112
-14,-24,-9,19,-2,-17,-4,-34,-9,9,-78,-92
-4,-9,-4,7,0,-7,-14,-39,-9,29,-48,-63
0,0,0,0,0,0,-24,-39,-14,43,-29,-39
9,14,4,-12,2,9,-29,-39,-14,53,-19,-19
19,19,0,-19,9,9,-34,-39,-14,63,-4,-9
24,29,4,-26,9,17,-39,-39,-9,68,4,0
29,34,4,-31,12,19,-43,-39,-14,73,9,4
29,43,14,-36,7,29,-48,-39,-19,73,9,9
29,39,9,-34,9,24,-48,-39,-19,68,9,9
24,34,9,-29,7,21,-48,-39,-19,63,14,4
24,34,9,-29,7,21,-53,-34,-14,63,19,9
24,34,9,-29,7,21,-53,-29,-9,58,24,9
24,34,9,-29,7,21,-48,-24,-9,58,24,9
24,34,9,-29,7,21,-48,-29,-9,53,24,4
19,34,14,-26,2,24,-48,-29,-9,48,24,4
14,34,19,-24,-2,26,-48,-34,-9,39,14,0
9,34,24,-21,-7,29,-48,-34,-9,29,4,-4
9,34,24,-21,-7,29,-43,-39,-4,19,-9,-14
4,34,29,-19,-12,31,-43,-39,-4,14,-14,-14
0,29,29,-14,-14,29,-43,-39,-4,4,-14,-19
-4,29,34,-12,-19,31,-43,-43,-4,-4,-19,-29
-4,29,34,-12,-19,31,-39,-43,0,-9,-29,-39
-9,29,39,-9,-24,34,-39,-43,0,-24,-34,-43
-9,24,34,-7,-21,29,-29,-48,0,-29,-43,-53
-14,19,34,-2,-24,26,-29,-48,0,-39,-48,-53
-19,14,34,2,-26,24,-24,-48,0,-43,-48,-58
-19,14,34,2,-26,24,-24,-48,4,-43,-58,-68
-24,9,34,7,-29,21,-24,-48,4,-48,-58,-73
-24,4,29,9,-26,17,-24,-53,4,-53,-68,-87
-29,4,34,12,-31,19,-24,-53,4,-53,-73,-87
-29,4,34,12,-31,19,-19,-53,4,-58,-73,-87
-34,0,34,17,-34,17,-19,-58,4,-58,-78,-87
-34,0,34,17,-34,17,-19,-58,4,-63,-82,-97
-34,0,34,17,-34,17,-19,-58,0,-63,-82,-97
-29,0,29,14,-29,14,-19,-58,0,-63,-82,-97
-29,0,29,14,-29,14,-19,-63,0,-63,-82,-97
-34,-4,29,19,-31,12,-14,-63,0,-63,-87,-102
-34,-4,29,19,-31,12,-14,-63,0,-58,-87,-102
-34,-4,29,19,-31,12,-14,-68,0,-58,-87,-102
-34,0,34,17,-34,17,-14,-68,0,-58,-82,-102
-34,0,34,17,-34,17,-14,-68,0,-53,-82,-97
-29,-4,24,17,-26,9,-14,-68,0,-48,-82,-92
-29,-9,19,19,-24,4,-19,-73,0,-43,-78,-87
-29,-14,14,21,-21,0,-19,-73,0,-43,-73,-82
-29,-9,19,19,-24,4,-19,-73,0,-43,-73,-82
-29,-9,19,19,-24,4,-19,-73,0,-43,-73,-82
-29,-9,19,19,-24,4,-19,-78,0,-43,-73,-82
-29,-9,19,19,-24,4,-19,-78,0,-43,-73,-82
-29,-9,19,19,-24,4,-24,-78,0,-43,-68,-78
-29,-9,19,19,-24,4,-24,-78,0,-43,-68,-78
-29,-9,19,19,-24,4,-24,-82,0,-43,-63,-82
-29,-9,19,19,-24,4,-24,-82,0,-43,-63,-87
-29,-4,24,17,-26,9,-24,-82,0,-43,-68,-82
-29,0,29,14,-29,14,-24,-87,0,-43,-73,-82
-29,0,29,14,-29,14,-24,-87,0,-34,-68,-82
-29,0,29,14,-29,14,-29,-87,0,-34,-63,-78
-29,0,29,14,-29,14,-29,-87,0,-34,-63,-78
-29,0,29,14,-29,14,-29,-87,0,-34,-63,-78
-29,0,29,14,-29,14,-34,-87,-9,-39,-63,-78
-29,0,29,14,-29,14,-39,-87,-14,-43,-63,-78
-24,0,24,12,-24,12,-39,-92,-9,-43,-63,-78
-24,0,24,12,-24,12,-43,-92,-9,-43,-63,-73
-29,0,29,14,-29,14,-39,-87,-9,-43,-58,-73
-29,-4,24,17,-26,9,-39,-87,-9,-43,-58,-73
-24,0,24,12,-24,12,-39,-87,-9,-39,-53,-68
-19,0,19,9,-19,9,-39,-87,-9,-39,-53,-68
-19,4,24,7,-21,14,-39,-87,-9,-39,-53,-68
-19,9,29,4,-24,19,-39,-87,-9,-39,-58,-68
-19,9,29,4,-24,19,-39,-87,-4,-39,-58,-68
-19,9,29,4,-24,19,-39,-87,0,-39,-58,-68
-19,4,24,7,-21,14,-39,-87,0,-34,-58,-68
-19,4,24,7,-21,14,-39,-87,0,-29,-58,-63
-19,9,29,4,-24,19,-39,-87,0,-29,-58,-63
-19,19,39,0,-29,29,-34,-87,4,-29,-53,-63
-19,34,53,-7,-36,43,-24,-78,19,-14,-43,-58
-14,48,63,-17,-39,56,0,-68,29,-4,-39,-53
-19,58,78,-19,-48,68,19,-58,39,0,-34,-43
-19,58,78,-19,-48,68,19,-48,39,4,-29,-39
-14,63,78,-24,-46,70,14,-43,39,9,-24,-39
-9,73,82,-31,-46,78,4,-48,43,14,-19,-39
4,97,92,-51,-43,95,4,-53,53,24,-14,-34
19,122,102,-70,-41,112,-24,-68,68,34,-4,-19
24,161,136,-92,-56,148,-68,-87,87,39,4,-4
39,170,131,-104,-46,151,-97,-107,87,39,9,0
43,170,126,-107,-41,148,-122,-117,78,39,14,0
58,175,117,-117,-29,146,-151,-122,73,39,14,9
78,195,117,-136,-19,156,-180,-126,68,48,29,24
92,204,112,-148,-9,158,-200,-136,58,58,43,34
102,214,112,-158,-4,163,-209,-136,48,63,48,39
117,224,107,-170,4,165,-214,-136,43,73,63,48
126,224,97,-175,14,161,-214,-136,34,78,78,68
126,219,92,-173,17,156,-204,-136,24,73,78,68
122,190,68,-156,26,129,-200,-146,9,43,58,53
112,170,58,-141,26,114,-190,-151,4,24,39,43
102,151,48,-126,26,100,-180,-151,4,14,29,39
68,136,68,-102,0,102,-151,-136,4,14,29,34
53,122,68,-87,-7,95,-131,-122,9,24,24,24
24,92,68,-58,-21,80,-92,-97,9,24,14,19
-4,48,53,-21,-29,51,-68,-97,0,4,-14,-19
-29,-9,19,19,-24,4,-53,-107,-19,-39,-63,-63
-29,-24,4,26,-17,-9,-48,-107,-24,-48,-68,-73
-29,-34,-4,31,-12,-19,-48,-112,-24,-63,-78,-92
-29,-43,-14,36,-7,-29,-48,-112,-24,-63,-82,-97
-39,-48,-9,43,-14,-29,-48,-112,-29,-63,-82,-97
-43,-48,-4,46,-19,-26,-48,-112,-29,-63,-82,-92
-43,-53,-9,48,-17,-31,-48,-112,-29,-63,-78,-92
-43,-58,-14,51,-14,-36,-48,-112,-34,-58,-78,-87
-48,-58,-9,53,-19,-34,-43,-107,-34,-53,-78,-82
-48,-53,-4,51,-21,-29,-29,-92,-29,-29,-68,-82
-48,-19,29,34,-39,4,0,-9,-19,87,4,-68
-34,39,73,-2,-53,56,43,146,0,297,136,-14
-29,141,170,-56,-100,156,73,263,34,497,268,43
-9,253,263,-122,-136,258,146,536,63,741,405,112
34,366,331,-200,-148,348,287,1029,92,1137,624,209
141,468,326,-305,-92,397,400,1424,78,1537,927,380
312,590,278,-451,17,434,312,1459,34,1908,1327,653
512,824,312,-668,100,568,92,1122,0,2283,1917,1107
761,1098,336,-929,212,717,-297,561,-58,2640,2562,1639
1010,1420,409,-1215,300,915,-976,-312,-78,2825,2976,2078
1307,1712,405,-1510,451,1058,-1805,-1132,-126,2859,3220,2469
1678,1937,258,-1808,710,1098,-2552,-1800,-244,3215,3674,2971
2010,1961,-48,-1986,1029,956,-2952,-2000,-405,3821,4143,3440
2205,1673,-531,-1939,1368,570,-2884,-1815,-649,4338,4499,3782
2034,1332,-702,-1683,1368,314,-2498,-1800,-727,3835,4148,3752
1581,1083,-497,-1332,1039,292,-2044,-1947,-580,1947,2825,3186
1063,707,-356,-885,710,175,-1498,-1922,-448,-512,956,2191
692,336,-356,-514,524,-9,-1010,-1483,-366,-1361,-82,1283
405,29,-375,-217,390,-173,-561,-863,-292,-917,-234,600
112,-117,-229,2,170,-173,-180,-356,-156,-546,-312,29
-53,-151,-97,102,21,-124,14,-102,-78,-351,-312,-200
-87,-151,-63,119,-12,-107,53,-58,-43,-283,-283,-209
-92,-141,-48,117,-21,-95,53,-53,-34,-273,-268,-209
-92,-146,-53,119,-19,-100,63,-24,-34,-268,-248,-209
-92,-151,-58,122,-17,-104,87,14,-34,-253,-239,-200
-112,-151,-39,131,-36,-95,102,19,-34,-244,-239,-209
-122,-146,-24,134,-48,-85,102,19,-24,-234,-239,-209
-122,-141,-19,131,-51,-80,112,34,-24,-224,-229,-209
-122,-136,-14,129,-53,-75,126,53,-24,-214,-219,-204
-117,-136,-19,126,-48,-78,131,58,-19,-209,-214,-204
-117,-136,-19,126,-48,-78,136,58,-19,-204,-209,-204
-122,-136,-14,129,-53,-75,136,58,-24,-195,-204,-200
-122,-136,-14,129,-53,-75,141,73,-24,-195,-200,-200
-117,-136,-19,126,-48,-78,141,82,-19,-195,-200,-190
-117,-131,-14,124,-51,-73,141,82,-19,-185,-195,-185
-122,-131,-9,126,-56,-70,141,87,-19,-185,-185,-185
-122,-126,-4,124,-58,-65,141,92,-14,-175,-180,-180
-122,-126,-4,124,-58,-65,141,97,-14,-170,-175,-175
-122,-126,-4,124,-58,-65,141,102,-14,-161,-170,-170
-117,-122,-4,119,-56,-63,141,102,-14,-156,-165,-161
-112,-122,-9,117,-51,-65,141,107,-14,-151,-161,-161
-112,-117,-4,114,-53,-61,146,117,-9,-151,-156,-161
-112,-112,0,112,-56,-56,146,126,-9,-146,-146,-156
-112,-112,0,112,-56,-56,156,136,-9,-136,-146,-156
-112,-102,9,107,-61,-46,156,136,-9,-131,-136,-156
-112,-107,4,109,-58,-51,156,146,-4,-126,-136,-156
-112,-107,4,109,-58,-51,156,156,-4,-122,-126,-151
-112,-102,9,107,-61,-46,161,161,0,-112,-122,-141
-112,-102,9,107,-61,-46,161,170,0,-112,-112,-136
-112,-102,9,107,-61,-46,161,180,-4,-112,-112,-141
-112,-102,9,107,-61,-46,161,190,-4,-112,-112,-141
-112,-97,14,104,-63,-41,165,200,4,-107,-107,-141
-117,-92,24,104,-70,-34,170,214,4,-107,-107,-146
-117,-92,24,104,-70,-34,175,224,9,-102,-107,-146
-117,-92,24,104,-70,-34,180,234,9,-102,-97,-141
-117,-92,24,104,-70,-34,185,244,9,-102,-97,-141
-126,-87,39,107,-82,-24,190,248,14,-107,-107,-146
-126,-87,39,107,-82,-24,200,263,19,-107,-107,-146
-126,-87,39,107,-82,-24,204,278,19,-107,-107,-146
-131,-92,39,112,-85,-26,214,292,19,-112,-107,-151
-131,-92,39,112,-85,-26,219,307,14,-122,-117,-161
-141,-92,48,117,-95,-21,229,317,24,-136,-126,-170
-151,-87,63,119,-107,-12,239,336,29,-146,-136,-180
-156,-87,68,122,-112,-9,253,351,39,-156,-151,-185
-165,-92,73,129,-119,-9,263,366,43,-175,-170,-195
-175,-97,78,136,-126,-9,273,375,48,-195,-190,-214
-185,-97,87,141,-136,-4,287,385,58,-219,-209,-234
-195,-102,92,148,-143,-4,302,390,63,-258,-248,-253
-204,-107,97,156,-151,-4,322,400,73,-302,-283,-278
-219,-112,107,165,-163,-2,341,400,78,-341,-317,-302
-244,-122,122,183,-183,0,356,395,87,-375,-356,-326
-258,-136,122,197,-190,-7,375,390,97,-429,-400,-361
-273,-161,112,217,-192,-24,395,390,107,-483,-444,-395
-292,-175,117,234,-204,-29,414,380,112,-546,-497,-434
-317,-195,122,256,-219,-36,439,370,122,-605,-551,-468
-341,-214,126,278,-234,-43,458,356,126,-668,-614,-512
-366,-239,126,302,-246,-56,478,336,136,-732,-668,-561
-380,-268,112,324,-246,-78,502,317,141,-800,-722,-600
-400,-292,107,346,-253,-92,517,292,151,-868,-785,-649
-434,-322,112,378,-273,-104,527,258,151,-936,-844,-692
-444,-336,107,390,-275,-114,531,219,151,-995,-897,-736
-453,-361,92,407,-273,-134,541,190,156,-1039,-941,-766
-463,-385,78,424,-270,-153,541,161,161,-1083,-980,-800
-478,-400,78,439,-278,-161,531,126,156,-1112,-1019,-829
-478,-424,53,451,-265,-185,527,92,151,-1137,-1049,-849
-478,-439,39,458,-258,-200,517,63,151,-1146,-1058,-858
-473,-448,24,461,-248,-212,497,39,141,-1146,-1063,-858
-463,-448,14,456,-239,-217,478,19,126,-1127,-1058,-854
-434,-448,-14,441,-209,-231,453,-4,117,-1078,-1034,-839
-414,-444,-29,429,-192,-236,429,-19,107,-1019,-985,-800
-395,-439,-43,417,-175,-241,395,-24,97,-951,-936,-756
-366,-419,-53,392,-156,-236,366,-24,78,-873,-878,-717
-336,-405,-68,370,-134,-236,336,-19,68,-785,-805,-673
-307,-380,-73,344,-117,-226,302,-19,48,-683,-727,-614
-263,-351,-87,307,-87,-219,263,-14,29,-590,-653,-556
-234,-326,-92,280,-70,-209,239,-9,19,-507,-585,-497
-190,-297,-107,244,-41,-202,209,-4,14,-419,-502,-439
-165,-273,-107,219,-29,-190,185,4,0,-336,-424,-380
-136,-244,-107,190,-14,-175,156,9,-4,-263,-361,-322
-112,-214,-102,163,-4,-158,131,9,-9,-209,-302,-268
-82,-195,-112,139,14,-153,112,14,-19,-151,-248,-224
-63,-170,-107,117,21,-139,92,19,-19,-92,-190,-180
-39,-146,-107,92,34,-126,73,19,-24,-43,-141,-136
-24,-131,-107,78,41,-119,58,19,-24,-14,-112,-107
-9,-117,-107,63,48,-112,43,19,-24,14,-78,-73
-4,-102,-97,53,46,-100,34,19,-29,48,-39,-53
4,-87,-92,41,48,-90,24,19,-29,68,-9,-24
9,-78,-87,34,48,-82,14,19,-34,82,9,-4
19,-63,-82,21,51,-73,9,19,-34,92,19,9
29,-58,-87,14,58,-73,4,19,-34,102,39,19
34,-48,-82,7,58,-65,0,19,-29,107,53,29
39,-43,-82,2,61,-63,-4,19,-29,107,58,34
39,-34,-73,-2,56,-53,-9,19,-29,102,58,39
39,-34,-73,-2,56,-53,-9,19,-29,102,53,39
34,-34,-68,0,51,-51,-9,19,-29,102,53,34
34,-34,-68,0,51,-51,-19,19,-29,102,53,39
34,-34,-68,0,51,-51,-24,19,-29,97,53,39
29,-34,-63,2,46,-48,-19,19,-29,92,48,34
24,-34,-58,4,41,-46,-19,9,-29,82,43,24
19,-34,-53,7,36,-43,-19,9,-29,78,43,24
14,-34,-48,9,31,-41,-19,4,-29,68,34,19
9,-34,-43,12,26,-39,-19,4,-29,58,24,14
9,-34,-43,12,26,-39,-14,0,-24,48,9,4
9,-34,-43,12,26,-39,-14,0,-19,43,4,4
9,-39,-48,14,29,-43,-14,0,-14,34,4,0
4,-43,-48,19,26,-46,-14,-4,-14,24,0,-9
4,-48,-53,21,29,-51,-9,-4,-9,19,-9,-19
0,-48,-48,24,24,-48,-9,-4,-9,9,-14,-24
0,-53,-53,26,26,-53,0,-9,-9,9,-24,-34
-4,-53,-48,29,21,-51,0,-9,-9,0,-29,-34
-9,-53,-43,31,17,-48,4,-9,-9,-4,-29,-39
-9,-53,-43,31,17,-48,4,-9,-9,-4,-39,-39
-14,-58,-43,36,14,-51,4,-9,-14,-9,-39,-34
-14,-63,-48,39,17,-56,4,-14,-14,-14,-48,-48
-19,-63,-43,41,12,-53,4,-14,-14,-14,-53,-48
-19,-63,-43,41,12,-53,9,-14,-14,-19,-48,-48
-24,-68,-43,46,9,-56,9,-19,-14,-19,-48,-48
-29,-68,-39,48,4,-53,9,-19,-14,-24,-53,-58
-34,-68,-34,51,0,-51,9,-19,-19,-24,-53,-58
-29,-68,-39,48,4,-53,9,-19,-19,-24,-53,-58
-29,-68,-39,48,4,-53,9,-24,-19,-24,-53,-58
-29,-73,-43,51,7,-58,14,-24,-19,-24,-58,-63
-24,-73,-48,48,12,-61,14,-24,-19,-19,-58,-63
-24,-73,-48,48,12,-61,14,-29,-14,-19,-58,-63
-24,-68,-43,46,9,-56,14,-29,-9,-19,-53,-63
-24,-68,-43,46,9,-56,9,-29,-9,-19,-53,-63
-19,-73,-53,46,17,-63,4,-29,-9,-19,-53,-63
-19,-73,-53,46,17,-63,0,-34,-14,-14,-48,-58
-19,-73,-53,46,17,-63,0,-34,-19,-14,-43,-53
-19,-68,-48,43,14,-58,0,-34,-19,-14,-48,-53
-19,-68,-48,43,14,-58,0,-34,-19,-14,-53,-53
-19,-68,-48,43,14,-58,0,-39,-19,-14,-53,-53
-19,-68,-48,43,14,-58,0,-39,-19,-14,-53,-53
-19,-68,-48,43,14,-58,-4,-39,-19,-14,-48,-48
-19,-68,-48,43,14,-58,-4,-39,-19,-14,-48,-48
-19,-63,-43,41,12,-53,-4,-43,-19,-14,-43,-48
-19,-58,-39,39,9,-48,-4,-43,-19,-14,-43,-48
-19,-58,-39,39,9,-48,-4,-43,-19,-14,-43,-43
-19,-58,-39,39,9,-48,-4,-48,-19,-14,-43,-43
-19,-58,-39,39,9,-48,-4,-48,-19,-4,-39,-43
-19,-58,-39,39,9,-48,-9,-48,-19,-4,-34,-39
-19,-58,-39,39,9,-48,-9,-48,-19,-4,-34,-39
-19,-58,-39,39,9,-48,-9,-48,-19,-4,-34,-39
-19,-58,-39,39,9,-48,-9,-48,-24,-4,-34,-39
-19,-58,-39,39,9,-48,-9,-48,-24,-4,-34,-39
-14,-58,-43,36,14,-51,-9,-53,-19,-4,-34,-39
-14,-58,-43,36,14,-51,-14,-53,-19,-4,-34,-34
-19,-53,-34,36,7,-43,-14,-53,-19,-4,-29,-34
-19,-53,-34,36,7,-43,-19,-58,-19,-4,-29,-34
-19,-53,-34,36,7,-43,-14,-58,-19,-4,-29,-34
-19,-53,-34,36,7,-43,-14,-58,-19,-4,-29,-34
-19,-58,-39,39,9,-48,-14,-58,-19,0,-34,-34
-19,-58,-39,39,9,-48,-14,-58,-19,0,-39,-29
-14,-58,-43,36,14,-51,-14,-58,-24,-4,-34,-29
-14,-63,-48,39,17,-56,-19,-63,-29,-9,-34,-34
-14,-63,-48,39,17,-56,-19,-63,-24,-4,-39,-34
-14,-63,-48,39,17,-56,-14,-63,-19,-4,-39,-34
-14,-53,-39,34,12,-46,-14,-63,-19,-4,-39,-34
-14,-53,-39,34,12,-46,-14,-58,-19,-4,-34,-29
-14,-53,-39,34,12,-46,-14,-58,-24,-4,-34,-24
-19,-53,-34,36,7,-43,-14,-68,-29,-4,-34,-24
-19,-53,-34,36,7,-43,-14,-63,-24,-4,-29,-24
-19,-48,-29,34,4,-39,-19,-58,-24,-4,-24,-24
-19,-48,-29,34,4,-39,-19,-58,-19,-4,-24,-24
-19,-48,-29,34,4,-39,-19,-58,-19,-9,-29,-29
-19,-48,-29,34,4,-39,-19,-63,-19,-9,-29,-29
-19,-48,-29,34,4,-39,-19,-68,-19,-9,-29,-29
-19,-48,-29,34,4,-39,-19,-68,-24,-14,-29,-29
-19,-48,-29,34,4,-39,-19,-68,-24,-9,-29,-24
-19,-53,-34,36,7,-43,-19,-68,-29,-9,-34,-24
-19,-48,-29,34,4,-39,-19,-68,-29,-9,-39,-24
-14,-39,-24,26,4,-31,-19,-68,-19,-9,-34,-29
-9,-24,-14,17,2,-19,-14,-58,0,4,-24,-29
-4,-9,-4,7,0,-7,9,-43,9,14,-19,-24
-4,0,4,2,-4,2,29,-29,19,19,-14,-14
-4,0,4,2,-4,2,34,-19,19,24,-9,-9
-4,4,9,0,-7,7,39,-9,19,29,-4,-9
0,14,14,-7,-7,14,43,-4,24,39,0,-9
9,39,29,-24,-9,34,53,-4,34,53,4,-4
19,63,43,-41,-12,53,29,-9,48,63,14,9
24,102,78,-63,-26,90,-9,-19,68,68,24,24
39,112,73,-75,-17,92,-39,-48,68,68,29,29
43,112,68,-78,-12,90,-63,-68,63,68,34,29
53,117,63,-85,-4,90,-97,-73,63,68,34,39
73,141,68,-107,2,104,-131,-78,58,78,48,53
92,156,63,-124,14,109,-151,-87,48,87,63,63
102,165,63,-134,19,114,-161,-87,39,92,68,73
122,180,58,-151,31,119,-175,-87,34,102,82,87
136,185,48,-161,43,117,-185,-87,24,112,97,107
141,185,43,-163,48,114,-175,-87,14,112,102,112
141,161,19,-151,61,90,-175,-102,0,82,87,102
136,146,9,-141,63,78,-180,-122,-4,58,68,92
131,131,0,-131,65,65,-180,-131,-4,43,58,82
97,117,19,-107,39,68,-151,-117,-4,43,58,73
82,102,19,-92,31,61,-131,-102,0,53,58,63
53,82,29,-68,12,56,-92,-73,0,68,63,68
24,48,24,-36,0,36,-68,-68,-9,63,43,39
-9,-24,-14,17,2,-19,-43,-78,-29,9,-14,-14
-24,-53,-29,39,2,-41,-29,-78,-34,-9,-34,-29
-29,-63,-34,46,2,-48,-29,-82,-34,-29,-53,-43
-29,-73,-43,51,7,-58,-29,-82,-34,-34,-63,-48
-34,-78,-43,56,4,-61,-29,-82,-39,-34,-63,-48
-29,-78,-48,53,9,-63,-29,-82,-39,-34,-63,-43
-24,-82,-58,53,17,-70,-29,-82,-39,-34,-58,-43
-24,-87,-63,56,19,-75,-29,-82,-43,-34,-58,-43
-34,-97,-63,65,14,-80,-34,-97,-48,-63,-78,-53
-39,-102,-63,70,12,-82,-29,-107,-48,-73,-92,-63
-43,-97,-53,70,4,-75,-4,-58,-43,-9,-58,-68
-39,-73,-34,56,-2,-53,34,68,-29,151,39,-34
-43,14,58,14,-51,36,39,82,4,307,156,19
-29,112,141,-41,-85,126,92,263,34,497,273,82
-34,219,253,-92,-143,236,287,854,82,854,414,117
24,317,292,-170,-134,305,458,1346,87,1215,629,209
156,366,209,-261,-26,287,512,1639,53,1546,883,346
322,531,209,-427,56,370,424,1542,29,1908,1342,678
561,790,229,-675,165,509,175,1088,-43,2400,2117,1254
805,1098,292,-951,256,695,-370,326,-78,2698,2654,1727
1102,1468,366,-1285,368,917,-1307,-663,-87,2591,2845,2083
1473,1790,317,-1632,578,1054,-2191,-1537,-165,2747,3225,2562
1966,2005,39,-1986,963,1022,-2932,-1947,-326,3479,3855,3167
2322,1888,-434,-2105,1378,727,-3167,-1932,-570,4221,4401,3635
2361,1551,-810,-1956,1586,370,-2879,-1878,-756,4616,4689,3967
2093,1312,-780,-1703,1437,265,-2518,-1986,-717,3650,4060,3816
1488,941,-546,-1215,1017,197,-1947,-2196,-570,414,1820,2874
1039,570,-468,-805,753,51,-1429,-1981,-473,-1263,366,1986
692,170,-522,-431,607,-175,-888,-1278,-400,-976,24,1151
331,-78,-409,-126,370,-244,-414,-678,-263,-761,-253,405
58,-151,-209,46,134,-180,-102,-258,-141,-468,-278,4
-68,-180,-112,124,21,-146,53,-63,-63,-297,-273,-165
-78,-170,-92,124,7,-131,63,-53,-53,-268,-258,-170
-82,-170,-87,126,2,-129,73,-24,-53,-248,-239,-170
-82,-170,-87,126,2,-129,102,24,-53,-234,-224,-161
-97,-170,-73,134,-12,-122,122,39,-53,-224,-219,-170
-107,-165,-58,136,-24,-112,122,39,-39,-214,-219,-175
-112,-161,-48,136,-31,-104,126,53,-34,-204,-209,-180
-112,-156,-43,134,-34,-100,141,73,-34,-195,-200,-175
-112,-156,-43,134,-34,-100,151,78,-29,-190,-195,-175
-117,-156,-39,136,-39,-97,156,78,-29,-185,-190,-175
-122,-156,-34,139,-43,-95,156,78,-34,-175,-185,-170
-122,-156,-34,139,-43,-95,161,92,-34,-175,-180,-170
-117,-156,-39,136,-39,-97,161,102,-29,-175,-180,-165
-117,-151,-34,134,-41,-92,161,102,-29,-165,-175,-165
-117,-151,-34,134,-41,-92,161,107,-29,-165,-165,-165
-112,-146,-34,129,-39,-90,165,117,-24,-151,-161,-161
-112,-141,-29,126,-41,-85,170,126,-24,-146,-156,-156
-112,-136,-24,124,-43,-80,170,131,-24,-141,-151,-151
-112,-131,-19,122,-46,-75,170,131,-24,-136,-146,-141
-112,-131,-19,122,-46,-75,170,131,-24,-131,-141,-141
-112,-131,-19,122,-46,-75,175,136,-19,-131,-136,-141
-112,-131,-19,122,-46,-75,170,146,-14,-126,-122,-136
-112,-131,-19,122,-46,-75,175,156,-9,-117,-117,-131
-112,-122,-9,117,-51,-65,175,156,-9,-117,-107,-126
-112,-122,-9,117,-51,-65,175,165,-4,-117,-107,-126
-112,-117,-4,114,-53,-61,175,175,-4,-112,-102,-122
-112,-112,0,112,-56,-56,180,180,0,-102,-102,-117
-112,-112,0,112,-56,-56,185,190,0,-97,-92,-117
-112,-112,0,112,-56,-56,190,200,-4,-92,-92,-122
-112,-112,0,112,-56,-56,190,214,-4,-92,-87,-122
-112,-107,4,109,-58,-51,195,224,4,-87,-78,-117
-117,-102,14,109,-65,-43,200,234,4,-87,-78,-117
-117,-102,14,109,-65,-43,204,244,9,-82,-78,-117
-117,-102,14,109,-65,-43,204,253,9,-82,-68,-112
-117,-102,14,109,-65,-43,204,268,9,-82,-68,-112
-126,-97,29,112,-78,-34,209,278,14,-87,-78,-117
-126,-97,29,112,-78,-34,219,292,19,-87,-78,-117
-126,-97,29,112,-78,-34,224,307,19,-87,-78,-117
-131,-102,29,117,-80,-36,234,322,24,-92,-78,-122
-131,-102,29,117,-80,-36,234,336,24,-102,-87,-131
-141,-102,39,122,-90,-31,239,346,34,-112,-97,-141
-151,-97,53,124,-102,-21,248,366,34,-117,-107,-151
-156,-97,58,126,-107,-19,263,380,39,-126,-117,-156
-165,-102,63,134,-114,-19,273,395,43,-141,-126,-161
-170,-107,63,139,-117,-21,283,405,48,-156,-141,-175
-175,-107,68,141,-122,-19,297,414,58,-175,-156,-195
-185,-112,73,148,-129,-19,312,419,63,-204,-185,-214
-195,-117,78,156,-136,-19,331,429,73,-239,-209,-239
-209,-122,87,165,-148,-17,351,434,78,-273,-239,-263
-234,-122,112,178,-173,-4,366,434,92,-297,-278,-283
-248,-126,122,187,-185,-2,385,429,107,-341,-322,-312
-258,-151,107,204,-183,-21,405,434,117,-395,-361,-346
-273,-161,112,217,-192,-24,419,429,122,-458,-409,-385
-297,-170,126,234,-212,-21,439,424,131,-512,-458,-409
-322,-185,136,253,-229,-24,458,414,136,-570,-517,-444
-346,-209,136,278,-241,-36,478,400,146,-634,-566,-492
-361,-234,126,297,-244,-53,497,385,151,-702,-619,-531
-380,-253,126,317,-253,-63,512,361,161,-766,-688,-580
-414,-283,131,348,-273,-75,527,331,161,-829,-746,-624
-424,-297,126,361,-275,-85,531,302,161,-888,-800,-668
-439,-322,117,380,-278,-102,541,278,161,-936,-849,-697
-453,-346,107,400,-280,-119,546,248,161,-995,-897,-732
-468,-361,107,414,-287,-126,541,209,156,-1034,-941,-761
-478,-390,87,434,-283,-151,536,170,151,-1068,-976,-790
-488,-405,82,446,-285,-161,527,141,151,-1088,-995,-810
-483,-409,73,446,-278,-168,507,112,141,-1107,-1019,-824
-478,-409,68,444,-273,-170,488,82,126,-1117,-1034,-839
-458,-414,43,436,-251,-185,463,43,117,-1088,-1024,-834
-444,-414,29,429,-236,-192,439,19,107,-1049,-990,-814
-424,-409,14,417,-219,-197,405,9,102,-1005,-966,-790
-395,-390,4,392,-200,-192,375,0,87,-941,-927,-756
-366,-380,-14,373,-175,-197,351,0,78,-854,-854,-712
-336,-361,-24,348,-156,-192,322,0,63,-756,-775,-653
-292,-331,-39,312,-126,-185,283,4,43,-668,-702,-600
-263,-307,-43,285,-109,-175,253,9,29,-585,-634,-546
-219,-278,-58,248,-80,-168,214,14,24,-497,-551,-488
-195,-253,-58,224,-68,-156,185,19,9,-414,-473,-429
-165,-224,-58,195,-53,-141,156,19,4,-336,-409,-370
-141,-195,-53,168,-43,-124,131,19,0,-278,-351,-317
-112,-175,-63,143,-24,-119,112,24,-9,-219,-297,-268
-92,-151,-58,122,-17,-104,92,29,-9,-161,-239,-219
-63,-126,-63,95,0,-95,68,29,-19,-107,-185,-175
-43,-112,-68,78,12,-90,48,29,-24,-73,-151,-146
-29,-92,-63,61,17,-78,29,24,-24,-39,-117,-107
-19,-73,-53,46,17,-63,14,19,-29,0,-78,-82
-4,-58,-53,31,24,-56,4,19,-29,19,-48,-53
0,-48,-48,24,24,-48,-4,19,-34,34,-29,-34
9,-34,-43,12,26,-39,-9,19,-34,48,-14,-14
14,-29,-43,7,29,-36,-14,19,-34,63,4,0
14,-19,-34,2,24,-26,-19,19,-29,68,19,9
19,-14,-34,-2,26,-24,-24,19,-29,73,29,14
29,-4,-34,-12,31,-19,-29,14,-29,73,34,19
39,-4,-43,-17,41,-24,-29,9,-29,73,39,24
34,-4,-39,-14,36,-21,-29,9,-29,78,43,29
34,-4,-39,-14,36,-21,-34,9,-29,82,43,39
34,-4,-39,-14,36,-21,-34,14,-29,78,39,39
34,-4,-39,-14,36,-21,-29,19,-29,78,34,39
29,-4,-34,-12,31,-19,-34,9,-29,73,34,34
24,-4,-29,-9,26,-17,-39,9,-29,68,34,34
24,-4,-29,-9,26,-17,-39,4,-24,58,24,29
19,-4,-24,-7,21,-14,-39,4,-19,48,14,24
19,-4,-24,-7,21,-14,-29,0,-14,34,0,14
14,-4,-19,-4,17,-12,-24,0,-14,24,-4,14
9,-9,-19,0,14,-14,-24,0,-14,14,-4,9
4,-9,-14,2,9,-12,-24,-4,-14,4,-9,0
4,-14,-19,4,12,-17,-19,-4,-9,-4,-24,-14
0,-19,-19,9,9,-19,-19,-4,-9,-19,-34,-19
-4,-24,-19,14,7,-21,-9,-9,-9,-19,-43,-24
-14,-29,-14,21,0,-21,-9,-9,-9,-29,-48,-24
-19,-34,-14,26,-2,-24,-4,-9,-9,-34,-48,-29
-19,-34,-14,26,-2,-24,-4,-9,-4,-34,-58,-39
-24,-39,-14,31,-4,-26,-4,-9,-4,-39,-63,-43
-24,-43,-19,34,-2,-31,-4,-14,-4,-43,-78,-58
-24,-43,-19,34,-2,-31,-4,-19,-4,-43,-82,-58
-19,-43,-24,31,2,-34,0,-24,-4,-48,-82,-58
-24,-43,-19,34,-2,-31,0,-29,0,-48,-87,-58
-24,-39,-14,31,-4,-26,0,-29,4,-53,-92,-68
-29,-39,-9,34,-9,-24,4,-29,0,-53,-92,-73
-29,-39,-9,34,-9,-24,9,-29,0,-53,-92,-78
-29,-43,-14,36,-7,-29,9,-34,-4,-53,-92,-78
-34,-53,-19,43,-7,-36,14,-34,-9,-53,-97,-82
-34,-53,-19,43,-7,-36,9,-29,-9,-48,-97,-78
-34,-53,-19,43,-7,-36,4,-29,-9,-48,-97,-73
-34,-48,-14,41,-9,-31,4,-29,-9,-48,-92,-73
-34,-48,-14,41,-9,-31,4,-29,-9,-48,-92,-73
-29,-53,-24,41,-2,-39,4,-29,-4,-48,-92,-73
-29,-53,-24,41,-2,-39,0,-34,0,-43,-87,-68
-29,-53,-24,41,-2,-39,0,-34,0,-43,-82,-63
-29,-48,-19,39,-4,-34,0,-34,0,-43,-82,-63
-29,-48,-19,39,-4,-34,0,-34,-4,-39,-82,-63
-29,-48,-19,39,-4,-34,0,-39,-9,-34,-82,-63
-24,-48,-24,36,0,-36,0,-39,-9,-34,-82,-63
-19,-48,-29,34,4,-39,-4,-39,-9,-34,-78,-58
-19,-48,-29,34,4,-39,-4,-39,-4,-34,-78,-63
-19,-48,-29,34,4,-39,-4,-43,0,-34,-73,-68
-24,-48,-24,36,0,-36,-9,-48,0,-34,-78,-73
-29,-48,-19,39,-4,-34,-14,-53,0,-34,-82,-73
-29,-48,-19,39,-4,-34,-14,-58,0,-34,-82,-73
-29,-48,-19,39,-4,-34,-14,-58,0,-24,-78,-73
-24,-48,-24,36,0,-36,-19,-58,-4,-24,-63,-53
-19,-48,-29,34,4,-39,-19,-58,-9,-24,-53,-39
-19,-48,-29,34,4,-39,-19,-53,-9,-24,-53,-39
-19,-48,-29,34,4,-39,-19,-48,-14,-24,-53,-39
-19,-43,-24,31,2,-34,-19,-48,-14,-24,-53,-43
-14,-39,-24,26,4,-31,-19,-53,-9,-24,-53,-48
-14,-39,-24,26,4,-31,-24,-53,-4,-24,-53,-43
-19,-34,-14,26,-2,-24,-24,-53,0,-24,-48,-43
-19,-34,-14,26,-2,-24,-24,-58,0,-24,-48,-39
-19,-34,-14,26,-2,-24,-19,-58,0,-24,-48,-34
-19,-43,-24,31,2,-34,-24,-58,0,-24,-48,-34
-19,-53,-34,36,7,-43,-24,-58,0,-19,-48,-34
-19,-48,-29,34,4,-39,-24,-63,-4,-19,-48,-29
-14,-43,-29,29,7,-36,-19,-63,-9,-19,-43,-29
-14,-43,-29,29,7,-36,-19,-63,-9,-19,-43,-39
-14,-43,-29,29,7,-36,-19,-63,-4,-14,-48,-43
-14,-43,-29,29,7,-36,-19,-63,0,-14,-48,-43
-14,-34,-19,24,2,-26,-24,-63,0,-14,-48,-43
-14,-34,-19,24,2,-26,-24,-58,0,-14,-43,-39
-9,-34,-24,21,7,-29,-24,-58,0,-14,-43,-34
-9,-39,-29,24,9,-34,-19,-68,-4,-14,-43,-34
-9,-43,-34,26,12,-39,-14,-68,-4,-14,-43,-34
-14,-43,-29,29,7,-36,-19,-68,-4,-14,-43,-34
-14,-48,-34,31,9,-41,-19,-73,0,-9,-43,-34
-14,-43,-29,29,7,-36,-29,-73,0,-9,-43,-34
-9,-34,-24,21,7,-29,-34,-73,0,-4,-39,-29
-14,-34,-19,24,2,-26,-29,-68,0,-9,-39,-29
-19,-34,-14,26,-2,-24,-24,-68,0,-14,-43,-34
-19,-34,-14,26,-2,-24,-24,-68,0,-14,-48,-39
-19,-39,-19,29,0,-29,-29,-68,0,-19,-58,-48
-19,-39,-19,29,0,-29,-29,-68,0,-19,-53,-48
-19,-39,-19,29,0,-29,-29,-68,0,-19,-48,-48
-19,-43,-24,31,2,-34,-24,-68,0,-14,-43,-43
-19,-39,-19,29,0,-29,-19,-68,0,-9,-39,-39
-19,-39,-19,29,0,-29,-19,-68,0,-9,-39,-34
-19,-29,-9,24,-4,-19,-14,-68,4,-9,-34,-34
-19,-14,4,17,-12,-4,-4,-58,19,4,-29,-34
-14,0,14,7,-14,7,19,-48,29,14,-29,-34
-14,9,24,2,-19,17,43,-34,39,19,-24,-24
-9,9,19,0,-14,14,48,-19,39,24,-19,-19
-4,19,24,-7,-14,21,48,-9,39,29,-14,-19
0,34,34,-17,-17,34,43,-9,43,34,-9,-19
9,63,53,-36,-21,58,43,-14,53,39,-9,-14
19,92,73,-56,-26,82,14,-29,68,43,-4,0
24,131,107,-78,-41,119,-29,-48,87,48,4,14
39,141,102,-90,-31,122,-58,-68,87,48,9,19
48,136,87,-92,-19,112,-82,-78,82,53,24,24
68,136,68,-102,0,102,-112,-82,82,58,34,39
92,161,68,-126,12,114,-146,-87,78,68,48,53
112,175,63,-143,24,119,-170,-97,68,78,63,63
122,185,63,-153,29,124,-185,-97,58,82,68,73
136,195,58,-165,39,126,-195,-97,53,92,82,87
146,204,58,-175,43,131,-195,-102,43,102,87,102
146,209,63,-178,41,136,-185,-107,34,102,78,97
141,180,39,-161,51,109,-185,-126,19,68,58,78
131,161,29,-146,51,95,-180,-141,14,43,39,63
122,141,19,-131,51,80,-170,-141,19,34,29,53
87,126,39,-107,24,82,-141,-126,24,34,29,43
73,112,39,-92,17,75,-122,-112,29,43,29,34
43,82,39,-63,2,61,-82,-87,29,43,24,29
9,34,24,-21,-7,29,-58,-87,19,24,0,-9
-19,-29,-9,24,-4,-19,-43,-97,0,-19,-43,-53
-24,-48,-24,36,0,-36,-39,-97,-14,-29,-48,-48
-29,-63,-34,46,2,-48,-39,-102,-24,-43,-58,-53
-29,-73,-43,51,7,-58,-34,-102,-24,-43,-63,-58
-39,-78,-39,58,0,-58,-29,-102,-29,-43,-63,-58
-39,-78,-39,58,0,-58,-29,-102,-29,-43,-68,-58
-34,-82,-48,58,7,-65,-29,-102,-29,-43,-68,-63
-34,-82,-48,58,7,-65,-34,-102,-29,-43,-73,-68
-39,-78,-39,58,0,-58,-34,-97,-24,-43,-78,-73
-39,-68,-29,53,-4,-48,-19,-87,-14,-24,-73,-78
-39,-29,9,34,-24,-9,9,-9,0,87,-4,-68
-29,24,53,2,-41,39,53,146,19,297,126,-14
-29,122,151,-46,-90,136,82,263,53,497,258,43
-4,229,234,-112,-119,231,165,561,78,741,400,122
43,336,292,-190,-124,314,317,1078,102,1137,624,229
151,434,283,-292,-65,358,439,1488,82,1527,917,395
322,551,229,-436,46,390,361,1537,34,1888,1307,663
527,780,253,-653,136,517,156,1190,0,2274,1898,1117
780,1049,268,-915,256,658,-219,619,-58,2640,2542,1649
1044,1371,326,-1207,358,849,-897,-258,-73,2801,2932,2069
1356,1664,307,-1510,524,985,-1727,-1083,-117,2810,3152,2440
1747,1903,156,-1825,795,1029,-2552,-1839,-234,3098,3572,2942
2098,1942,-156,-2020,1127,893,-3030,-2127,-395,3635,4006,3411
2293,1654,-639,-1973,1466,507,-2952,-1942,-639,4143,4333,3728
2122,1312,-810,-1717,1466,251,-2557,-1927,-717,3630,3952,3674
1639,1083,-556,-1361,1098,263,-2098,-2054,-556,1830,2698,3152
1093,727,-366,-910,729,180,-1546,-2010,-409,-541,897,2200
717,356,-361,-536,539,-2,-1044,-1551,-336,-1371,-107,1307
424,48,-375,-236,400,-163,-580,-912,-273,-907,-224,639
117,-112,-229,-2,173,-170,-190,-385,-141,-536,-302,63
-63,-161,-97,112,17,-129,14,-112,-68,-341,-302,-170
-97,-161,-63,129,-17,-112,63,-63,-34,-273,-278,-195
-102,-151,-48,126,-26,-100,73,-53,-24,-263,-268,-209
-102,-151,-48,126,-26,-100,82,-24,-19,-258,-248,-209
-102,-151,-48,126,-26,-100,107,14,-14,-244,-239,-200
-117,-151,-34,134,-41,-92,122,19,-14,-234,-239,-204
-122,-146,-24,134,-48,-85,122,19,-4,-224,-239,-200
-122,-141,-19,131,-51,-80,122,34,-9,-214,-229,-200
-122,-136,-14,129,-53,-75,126,53,-14,-204,-219,-195
-117,-136,-19,126,-48,-78,131,58,-9,-200,-214,-190
-117,-136,-19,126,-48,-78,136,58,-9,-195,-209,-185
-122,-136,-14,129,-53,-75,136,58,-14,-185,-204,-180
-122,-136,-14,129,-53,-75,141,73,-14,-185,-200,-180
-117,-136,-19,126,-48,-78,141,82,-9,-185,-200,-180
-117,-131,-14,124,-51,-73,141,82,-9,-175,-195,-185
-117,-126,-9,122,-53,-68,141,87,-9,-175,-185,-185
-112,-117,-4,114,-53,-61,141,92,-4,-165,-180,-180
-117,-112,4,114,-61,-53,141,97,-4,-165,-175,-175
-122,-107,14,114,-68,-46,141,102,-4,-161,-170,-170
-122,-102,19,112,-70,-41,141,97,-4,-161,-170,-170
-122,-102,19,112,-70,-41,141,97,-4,-161,-170,-180
-117,-102,14,109,-65,-43,146,107,0,-161,-165,-180
-112,-102,9,107,-61,-46,146,117,0,-156,-156,-175
-112,-107,4,109,-58,-51,156,131,-4,-146,-151,-156
-112,-102,9,107,-61,-46,156,136,-9,-141,-136,-136
-112,-102,9,107,-61,-46,156,146,-4,-136,-131,-136
-112,-97,14,104,-63,-41,156,156,-4,-131,-117,-131
-112,-87,24,100,-68,-31,161,161,0,-122,-112,-126
-112,-82,29,97,-70,-26,161,170,0,-122,-102,-126
-112,-82,29,97,-70,-26,161,180,-4,-122,-102,-131
-112,-82,29,97,-70,-26,161,190,-4,-122,-102,-131
-112,-78,34,95,-73,-21,165,195,4,-117,-102,-131
-117,-73,43,95,-80,-14,170,204,4,-117,-107,-136
-117,-78,39,97,-78,-19,175,214,9,-112,-107,-136
-117,-82,34,100,-75,-24,180,224,9,-112,-97,-131
-117,-82,34,100,-75,-24,185,239,9,-112,-97,-131
-126,-78,48,102,-87,-14,190,248,14,-117,-107,-136
-126,-73,53,100,-90,-9,200,258,19,-117,-107,-136
-126,-68,58,97,-92,-4,204,268,19,-117,-107,-136
-126,-73,53,100,-90,-9,214,283,24,-122,-107,-136
-122,-73,48,97,-85,-12,219,297,24,-131,-117,-141
-131,-73,58,102,-95,-7,224,307,34,-141,-126,-151
-141,-68,73,104,-107,2,229,326,39,-146,-136,-161
-146,-68,78,107,-112,4,244,341,43,-156,-146,-165
-156,-73,82,114,-119,4,253,356,43,-175,-161,-175
-161,-78,82,119,-122,2,263,370,48,-190,-180,-195
-165,-78,87,122,-126,4,278,385,58,-209,-200,-214
-175,-82,92,129,-134,4,292,390,68,-244,-234,-234
-185,-87,97,136,-141,4,312,400,82,-283,-263,-258
-200,-92,107,146,-153,7,326,405,87,-322,-292,-283
-224,-102,122,163,-173,9,336,405,97,-356,-326,-307
-239,-112,126,175,-183,7,356,405,107,-409,-370,-341
-253,-131,122,192,-187,-4,375,409,117,-463,-414,-375
-273,-141,131,207,-202,-4,390,400,122,-527,-468,-414
-297,-156,141,226,-219,-7,409,390,131,-585,-522,-448
-322,-175,146,248,-234,-14,429,380,131,-644,-585,-492
-346,-200,146,273,-246,-26,448,366,136,-702,-639,-541
-356,-224,131,290,-244,-46,468,346,141,-771,-697,-580
-370,-244,126,307,-248,-58,478,322,151,-839,-766,-629
-405,-273,131,339,-268,-70,492,302,156,-902,-819,-668
-414,-287,126,351,-270,-80,502,278,161,-956,-868,-707
-429,-312,117,370,-273,-97,517,253,161,-1005,-917,-736
-444,-336,107,390,-275,-114,522,229,161,-1054,-961,-771
-458,-351,107,405,-283,-122,512,190,156,-1083,-1000,-800
-458,-375,82,417,-270,-146,507,151,151,-1107,-1029,-819
-458,-390,68,424,-263,-161,497,122,151,-1122,-1044,-839
-453,-400,53,427,-253,-173,478,97,141,-1127,-1054,-849
-453,-400,53,427,-253,-173,463,73,126,-1122,-1058,-849
-434,-400,34,417,-234,-183,444,43,117,-1088,-1044,-839
-414,-400,14,407,-214,-192,419,19,102,-1039,-1005,-814
-395,-400,-4,397,-195,-202,385,4,87,-980,-966,-785
-366,-380,-14,373,-175,-197,356,0,68,-902,-907,-746
-336,-366,-29,351,-153,-197,326,0,58,-814,-834,-702
-312,-341,-29,326,-141,-185,292,-9,48,-717,-756,-644
-273,-312,-39,292,-117,-175,253,-14,39,-629,-683,-585
-244,-287,-43,265,-100,-165,229,-14,29,-541,-614,-527
-200,-258,-58,229,-70,-158,200,-14,24,-448,-531,-468
-175,-244,-68,209,-53,-156,180,-9,4,-366,-448,-409
-146,-224,-78,185,-34,-151,156,-9,-4,-292,-380,-351
-117,-195,-78,156,-19,-136,131,-9,-9,-229,-317,-292
-82,-175,-92,129,4,-134,112,-4,-19,-161,-258,-244
-63,-151,-87,107,12,-119,92,-4,-19,-102,-200,-200
-39,-126,-87,82,24,-107,73,-9,-24,-53,-151,-156
-24,-112,-87,68,31,-100,58,-9,-24,-24,-122,-126
-9,-97,-87,53,39,-92,43,-9,-24,4,-87,-92
0,-82,-82,41,41,-82,34,-9,-24,39,-48,-68
14,-68,-82,26,48,-75,24,-9,-19,58,-19,-34
19,-58,-78,19,48,-68,14,-9,-24,73,0,-14
29,-43,-73,7,51,-58,9,-9,-24,82,9,0
29,-39,-68,4,48,-53,4,-14,-24,87,24,4
24,-29,-53,2,39,-41,0,-19,-19,87,34,9
29,-24,-53,-2,41,-39,-4,-19,-24,92,39,14
29,-14,-43,-7,36,-29,-9,-19,-29,92,39,19
34,-14,-48,-9,41,-31,-9,-19,-29,92,39,24
34,-14,-48,-9,41,-31,-9,-19,-29,92,43,24
34,-14,-48,-9,41,-31,-19,-19,-29,92,39,29
34,-14,-48,-9,41,-31,-24,-19,-29,87,34,29
34,-14,-48,-9,41,-31,-19,-14,-24,87,34,29
34,-14,-48,-9,41,-31,-19,-19,-19,82,34,24
34,-14,-48,-9,41,-31,-14,-14,-19,78,34,24
34,-14,-48,-9,41,-31,-9,-14,-19,68,24,19
29,-14,-43,-7,36,-29,-9,-14,-24,58,14,14
29,-14,-43,-7,36,-29,-4,-19,-24,48,0,4
24,-14,-39,-4,31,-26,-4,-24,-24,43,-4,4
19,-19,-39,0,29,-29,-4,-29,-24,34,-4,0
14,-24,-39,4,26,-31,-4,-34,-24,24,-9,-9
14,-29,-43,7,29,-36,0,-34,-19,19,-19,-19
9,-34,-43,12,26,-39,-4,-34,-19,9,-24,-24
9,-43,-53,17,31,-48,0,-39,-19,9,-34,-34
4,-48,-53,21,29,-51,0,-39,-19,0,-39,-34
0,-53,-53,26,26,-53,4,-39,-19,-4,-39,-39
0,-39,-39,19,19,-39,4,-39,-9,-4,-48,-48
-4,-29,-24,17,9,-26,4,-39,-4,-9,-48,-53
-9,-43,-34,26,12,-39,4,-39,-4,-19,-58,-68
-19,-53,-34,36,7,-43,4,-34,-4,-24,-63,-68
-19,-53,-34,36,7,-43,9,-34,-4,-29,-63,-68
-24,-58,-34,41,4,-46,9,-39,-4,-29,-68,-68
-19,-58,-39,39,9,-48,9,-39,-4,-29,-68,-78
-14,-58,-43,36,14,-51,9,-39,-9,-24,-63,-78
-9,-58,-48,34,19,-53,9,-39,-9,-24,-58,-78
-9,-58,-48,34,19,-53,9,-43,-9,-24,-53,-78
-19,-63,-43,41,12,-53,14,-43,-9,-24,-58,-82
-24,-63,-39,43,7,-51,14,-43,-9,-19,-58,-82
-24,-63,-39,43,7,-51,14,-48,-9,-19,-58,-82
-24,-58,-34,41,4,-46,14,-48,-9,-19,-53,-82
-24,-58,-34,41,4,-46,14,-48,-9,-19,-53,-82
-19,-63,-43,41,12,-53,14,-48,-9,-19,-53,-82
-19,-63,-43,41,12,-53,9,-53,-9,-14,-53,-78
-19,-63,-43,41,12,-53,9,-53,-9,-14,-53,-73
-19,-58,-39,39,9,-48,4,-53,-9,-14,-53,-73
-19,-58,-39,39,9,-48,0,-53,-9,-14,-53,-73
-19,-58,-39,39,9,-48,0,-58,-9,-14,-53,-73
-19,-58,-39,39,9,-48,0,-58,-9,-14,-53,-73
-19,-53,-34,36,7,-43,-4,-58,-9,-14,-43,-68
-19,-48,-29,34,4,-39,-4,-58,-9,-14,-39,-68
-19,-48,-29,34,4,-39,-4,-58,-9,-14,-34,-63
-19,-48,-29,34,4,-39,-4,-53,-9,-14,-34,-58
-14,-48,-34,31,9,-41,-4,-53,-9,-14,-39,-53
-9,-48,-39,29,14,-43,-4,-58,-9,-14,-43,-53
-9,-48,-39,29,14,-43,-4,-63,-9,-9,-43,-58
-9,-48,-39,29,14,-43,-9,-68,-9,-14,-43,-58
-9,-43,-34,26,12,-39,-14,-68,-14,-14,-43,-58
-9,-39,-29,24,9,-34,-19,-68,-19,-14,-43,-58
-9,-39,-29,24,9,-34,-19,-68,-24,-14,-43,-58
-9,-39,-29,24,9,-34,-19,-68,-24,-14,-43,-58
-9,-39,-29,24,9,-34,-19,-73,-19,-14,-48,-58
-14,-39,-24,26,4,-31,-24,-73,-19,-14,-53,-53
-19,-34,-14,26,-2,-24,-29,-73,-14,-19,-48,-58
-19,-34,-14,26,-2,-24,-39,-78,-9,-24,-48,-63
-19,-29,-9,24,-4,-19,-39,-78,-9,-29,-53,-63
-19,-24,-4,21,-7,-14,-43,-78,-9,-34,-58,-63
-24,-24,0,24,-12,-12,-43,-78,-9,-29,-58,-68
-29,-19,9,24,-19,-4,-43,-78,-9,-29,-58,-68
-24,-14,9,19,-17,-2,-43,-78,-14,-34,-53,-68
-24,-14,9,19,-17,-2,-48,-82,-19,-39,-53,-73
-24,-14,9,19,-17,-2,-53,-82,-14,-34,-58,-68
-24,-9,14,17,-19,2,-53,-82,-9,-34,-58,-63
-24,-9,14,17,-19,2,-53,-82,-14,-39,-63,-63
-29,-9,19,19,-24,4,-58,-87,-19,-48,-68,-68
-34,-9,24,21,-29,7,-58,-87,-19,-48,-68,-73
-39,-9,29,24,-34,9,-58,-87,-19,-48,-68,-78
-39,-9,29,24,-34,9,-58,-87,-19,-48,-68,-78
-39,-9,29,24,-34,9,-58,-82,-19,-43,-68,-73
-39,-9,29,24,-34,9,-58,-82,-19,-39,-68,-73
-39,0,39,19,-39,19,-58,-78,-19,-39,-68,-73
-39,9,48,14,-43,29,-53,-78,-14,-43,-63,-73
-39,24,63,7,-51,43,-43,-68,0,-34,-53,-68
-29,43,73,-7,-51,58,-19,-58,9,-24,-48,-63
-24,58,82,-17,-53,70,0,-48,19,-19,-43,-53
-19,63,82,-21,-51,73,-4,-43,19,-14,-39,-43
-14,73,87,-29,-51,80,-9,-39,19,-9,-34,-39
-14,82,97,-34,-56,90,-14,-39,24,-4,-29,-39
-9,107,117,-48,-63,112,-14,-43,34,4,-24,-34
0,131,131,-65,-65,131,-43,-63,48,14,-14,-19
4,170,165,-87,-80,168,-87,-87,68,19,-4,-4
24,180,156,-102,-65,168,-117,-107,68,19,0,0
34,180,146,-107,-56,163,-141,-117,63,19,4,0
48,190,141,-119,-46,165,-170,-122,63,14,4,9
73,219,146,-146,-36,183,-200,-126,58,19,19,24
87,234,146,-161,-29,190,-219,-136,48,29,34,34
92,244,151,-168,-29,197,-229,-136,39,34,39,43
107,248,141,-178,-17,195,-234,-131,29,43,53,58
117,244,126,-180,-4,185,-234,-126,14,53,68,78
117,239,122,-178,-2,180,-224,-126,4,53,68,78
112,209,97,-161,7,153,-224,-141,-9,24,48,63
102,190,87,-146,7,139,-214,-151,-14,4,29,48
92,170,78,-131,7,124,-200,-151,-14,-4,19,34
58,156,97,-107,-19,126,-170,-136,-14,-4,14,24
43,141,97,-92,-26,119,-151,-122,-9,4,9,14
14,107,92,-61,-39,100,-112,-97,-9,4,4,9
-14,58,73,-21,-43,65,-87,-97,-19,-14,-24,-29
-39,0,39,19,-39,19,-73,-107,-39,-58,-73,-73
-43,-14,29,29,-36,7,-68,-107,-43,-68,-82,-78
-48,-19,29,34,-39,4,-68,-112,-43,-82,-97,-92
-48,-24,24,36,-36,0,-68,-112,-43,-82,-102,-97
-58,-29,29,43,-43,0,-68,-112,-48,-82,-102,-97
-58,-29,29,43,-43,0,-68,-112,-48,-82,-102,-92
-53,-34,19,43,-36,-7,-63,-107,-48,-82,-97,-92
-53,-39,14,46,-34,-12,-58,-102,-53,-82,-97,-92
-58,-39,19,48,-39,-9,-53,-92,-53,-73,-87,-87
-58,-34,24,46,-41,-4,-39,-78,-48,-43,-73,-82
-58,4,63,26,-61,34,-9,0,-34,78,0,-68
-48,63,112,-7,-80,87,34,156,-9,297,136,-14
-43,161,204,-58,-124,183,63,287,24,512,268,43
-19,268,287,-124,-153,278,141,585,53,761,400,112
34,390,356,-212,-161,373,273,1058,82,1161,639,234
151,502,351,-326,-100,427,380,1434,68,1566,951,414
322,629,307,-475,7,468,283,1459,19,1927,1366,697
527,873,346,-700,90,610,43,1093,-19,2318,1986,1176
775,1137,361,-956,207,749,-346,512,-78,2659,2610,1708
1029,1449,419,-1239,305,934,-1034,-375,-97,2806,2996,2137
1332,1708,375,-1520,478,1041,-1844,-1161,-161,2903,3264,2522
1708,1917,209,-1812,749,1063,-2601,-1830,-292,3264,3723,3030
2010,1947,-63,-1978,1037,941,-2981,-2049,-444,3801,4177,3498
2176,1644,-531,-1910,1354,556,-2854,-1844,-678,4348,4548,3830
2005,1302,-702,-1654,1354,300,-2469,-1825,-741,3689,4055,3708
1527,1058,-468,-1293,997,295,-2010,-1966,-580,1668,2644,3103
1010,688,-322,-849,666,183,-1468,-1903,-448,-614,873,2137
649,317,-331,-483,490,-7,-980,-1415,-366,-1342,-112,1224
380,29,-351,-204,366,-161,-541,-824,-297,-907,-248,575
97,-107,-204,4,151,-156,-170,-336,-165,-546,-322,14
-78,-151,-73,114,-2,-112,14,-82,-87,-361,-322,-209
-107,-151,-43,129,-31,-97,43,-53,-53,-297,-292,-204
-112,-141,-29,126,-41,-85,53,-43,-48,-283,-278,-209
-112,-141,-29,126,-41,-85,63,-14,-53,-278,-258,-209
-112,-141,-29,126,-41,-85,87,19,-53,-263,-248,-200
-126,-141,-14,134,-56,-78,102,19,-53,-253,-248,-209
-131,-136,-4,134,-63,-70,102,19,-43,-244,-248,-209
-131,-131,0,131,-65,-65,107,34,-43,-234,-239,-209
-131,-126,4,129,-68,-61,117,53,-43,-224,-229,-204
-131,-126,4,129,-68,-61,122,58,-39,-219,-224,-204
-131,-126,4,129,-68,-61,126,58,-39,-214,-219,-204
-131,-126,4,129,-68,-61,126,58,-43,-204,-214,-200
-131,-126,4,129,-68,-61,136,73,-43,-204,-209,-200
-126,-126,0,126,-63,-63,141,82,-39,-204,-209,-195
-126,-122,4,124,-65,-58,141,82,-39,-190,-204,-190
-126,-122,4,124,-65,-58,141,87,-39,-185,-195,-185
-122,-117,4,119,-63,-56,141,97,-34,-175,-190,-180
-122,-112,9,117,-65,-51,141,107,-34,-175,-185,-175
-122,-107,14,114,-68,-46,141,112,-34,-170,-180,-170
-122,-102,19,112,-70,-41,141,112,-34,-165,-175,-161
-122,-102,19,112,-70,-41,141,117,-34,-161,-170,-161
-122,-102,19,112,-70,-41,146,126,-29,-161,-165,-161
-122,-102,19,112,-70,-41,146,136,-24,-156,-151,-156
-122,-102,19,112,-70,-41,156,146,-19,-146,-146,-151
-122,-97,24,109,-73,-36,156,146,-19,-141,-136,-146
-122,-102,19,112,-70,-41,156,156,-14,-136,-136,-146
-122,-97,24,109,-73,-36,156,165,-14,-131,-126,-141
-122,-92,29,107,-75,-31,161,170,-9,-122,-122,-136
-122,-92,29,107,-75,-31,161,180,-9,-117,-112,-131
-122,-92,29,107,-75,-31,161,190,-14,-112,-112,-131
-122,-92,29,107,-75,-31,165,200,-14,-112,-107,-131
-122,-87,34,104,-78,-26,175,204,-4,-107,-97,-126
-126,-82,43,104,-85,-19,180,214,-4,-107,-97,-126
-126,-82,43,104,-85,-19,185,224,0,-102,-97,-126
-126,-87,39,107,-82,-24,190,234,0,-97,-87,-122
-126,-92,34,109,-80,-29,195,248,0,-92,-87,-122
-136,-87,48,112,-92,-19,200,258,4,-97,-97,-126
-136,-87,48,112,-92,-19,209,273,9,-97,-97,-126
-136,-87,48,112,-92,-19,219,292,9,-97,-92,-126
-141,-92,48,117,-95,-21,234,312,14,-102,-87,-131
-141,-97,43,119,-92,-26,239,326,14,-107,-97,-141
-151,-102,48,126,-100,-26,248,336,24,-112,-107,-151
-161,-102,58,131,-109,-21,263,356,29,-117,-117,-161
-165,-107,58,136,-112,-24,283,370,39,-126,-126,-165
-175,-117,58,146,-117,-29,292,385,43,-141,-136,-165
-180,-126,53,153,-117,-36,302,395,48,-156,-151,-175
-185,-131,53,158,-119,-39,326,405,58,-175,-165,-195
-195,-141,53,168,-124,-43,351,409,63,-204,-195,-214
-200,-156,43,178,-122,-56,375,429,78,-239,-214,-234
-209,-170,39,190,-124,-65,400,444,87,-273,-239,-253
-234,-185,48,209,-141,-68,419,444,97,-302,-278,-273
-248,-204,43,226,-146,-80,444,439,107,-351,-322,-302
-263,-244,19,253,-141,-112,473,439,117,-390,-356,-331
-283,-268,14,275,-148,-126,497,429,122,-439,-400,-366
-302,-287,14,295,-158,-136,527,419,131,-492,-444,-390
-322,-312,9,317,-165,-151,556,405,136,-551,-497,-424
-341,-336,4,339,-173,-165,575,385,146,-614,-551,-473
-351,-361,-9,356,-170,-185,595,366,151,-683,-610,-512
-370,-370,0,370,-185,-185,595,341,161,-756,-692,-575
-405,-390,14,397,-209,-187,595,312,161,-829,-766,-634
-414,-390,24,402,-219,-183,585,278,161,-897,-829,-688
-429,-400,29,414,-229,-185,580,248,161,-956,-888,-727
-444,-419,24,431,-234,-197,575,214,156,-1015,-936,-766
-458,-429,29,444,-244,-200,561,170,146,-1054,-980,-800
-463,-453,9,458,-236,-222,546,131,141,-1083,-1010,-819
-468,-463,4,466,-236,-229,527,102,141,-1098,-1024,-829
-463,-468,-4,466,-229,-236,507,73,131,-1098,-1034,-829
-458,-468,-9,463,-224,-239,488,43,117,-1088,-1034,-829
-434,-458,-24,446,-204,-241,463,14,107,-1044,-1015,-819
-414,-444,-29,429,-192,-236,439,0,97,-990,-971,-795
-390,-434,-43,412,-173,-239,400,-4,87,-932,-932,-766
-356,-409,-53,383,-151,-231,366,-9,68,-854,-878,-727
-326,-390,-63,358,-131,-226,336,-9,58,-766,-805,-683
-297,-361,-63,329,-117,-212,302,-9,43,-668,-727,-624
-258,-331,-73,295,-92,-202,263,-4,29,-590,-658,-566
-234,-307,-73,270,-80,-190,234,0,19,-517,-595,-507
-190,-278,-87,234,-51,-183,195,0,14,-429,-512,-448
-165,-253,-87,209,-39,-170,165,0,0,-346,-434,-390
-141,-224,-82,183,-29,-153,136,0,0,-273,-370,-331
-122,-195,-73,158,-24,-134,112,0,0,-219,-312,-278
-92,-170,-78,131,-7,-124,87,4,-9,-165,-263,-239
-73,-141,-68,107,-2,-104,63,9,-9,-112,-209,-200
-48,-117,-68,82,9,-92,43,9,-14,-63,-161,-156
-34,-102,-68,68,17,-85,29,9,-14,-34,-131,-126
-19,-87,-68,53,24,-78,14,9,-14,-9,-97,-92
-9,-73,-63,41,26,-68,4,9,-19,19,-58,-73
4,-58,-63,26,34,-61,-4,9,-19,39,-29,-43
9,-48,-58,19,34,-53,-14,9,-24,53,-9,-24
19,-29,-48,4,34,-39,-19,9,-24,63,-4,-9
24,-19,-43,-2,34,-31,-24,9,-24,73,4,0
19,-9,-29,-4,24,-19,-29,9,-19,78,14,9
19,-4,-24,-7,21,-14,-34,9,-19,82,19,14
19,4,-14,-12,17,-4,-39,9,-19,78,19,19
19,4,-14,-12,17,-4,-39,9,-19,73,19,24
19,4,-14,-12,17,-4,-39,9,-24,73,24,24
24,4,-19,-14,21,-7,-43,9,-29,73,24,29
24,9,-14,-17,19,-2,-48,9,-29,68,24,29
24,14,-9,-19,17,2,-48,9,-29,68,24,29
24,14,-9,-19,17,2,-48,0,-29,63,24,24
24,14,-9,-19,17,2,-48,0,-29,58,24,24
19,14,-4,-17,12,4,-48,-4,-29,48,14,19
9,14,4,-12,2,9,-48,-4,-29,39,4,14
9,14,4,-12,2,9,-43,-9,-19,29,-9,4
4,14,9,-9,-2,12,-43,-9,-14,24,-14,4
0,9,9,-4,-4,9,-43,-9,-14,14,-14,0
-4,9,14,-2,-9,12,-43,-14,-14,4,-19,-9
-4,9,14,-2,-9,12,-39,-14,-9,0,-34,-19
-9,9,19,0,-14,14,-39,-14,-9,-9,-43,-19
-9,4,14,2,-12,9,-29,-19,-9,-9,-53,-29
-14,0,14,7,-14,7,-29,-19,-9,-19,-58,-34
-19,-4,14,12,-17,4,-24,-24,-9,-24,-58,-39
-19,-4,14,12,-17,4,-24,-29,-4,-24,-68,-48
-19,-9,9,14,-14,0,-24,-29,-4,-29,-68,-48
-14,-14,0,14,-7,-7,-24,-34,-4,-34,-78,-58
-19,-14,4,17,-12,-4,-24,-34,-4,-34,-82,-58
-19,-14,4,17,-12,-4,-19,-34,-4,-39,-82,-58
-24,-19,4,21,-14,-7,-19,-39,-4,-39,-82,-58
-24,-19,4,21,-14,-7,-19,-39,-4,-43,-82,-68
-24,-19,4,21,-14,-7,-19,-39,-9,-43,-82,-68
-19,-19,0,19,-9,-9,-19,-39,-9,-43,-82,-68
-19,-19,0,19,-9,-9,-24,-43,-9,-43,-82,-68
-24,-24,0,24,-12,-12,-24,-43,-9,-43,-87,-73
-29,-24,4,26,-17,-9,-24,-43,-4,-39,-87,-73
-34,-24,9,29,-21,-7,-24,-48,0,-39,-87,-73
-34,-14,19,24,-26,2,-24,-48,0,-39,-82,-73
-34,-9,24,21,-29,7,-24,-48,0,-39,-82,-73
-29,-14,14,21,-21,0,-24,-48,-4,-39,-82,-73
-29,-14,14,21,-21,0,-29,-53,-9,-34,-78,-68
-29,-14,14,21,-21,0,-29,-58,-9,-34,-73,-63
-29,-9,19,19,-24,4,-29,-63,-9,-34,-73,-63
-29,-9,19,19,-24,4,-29,-63,-9,-34,-73,-63
-29,-9,19,19,-24,4,-29,-68,-9,-34,-73,-63
-24,-9,14,17,-19,2,-29,-63,-9,-29,-73,-63
-19,-9,9,14,-14,0,-34,-58,-9,-24,-68,-58
-19,-9,9,14,-14,0,-34,-58,-9,-24,-68,-53
-19,-9,9,14,-14,0,-34,-63,-9,-24,-63,-48
-19,-9,9,14,-14,0,-34,-63,-9,-24,-63,-48
-19,-9,9,14,-14,0,-34,-63,-9,-24,-63,-43
-19,-9,9,14,-14,0,-34,-68,-9,-24,-63,-43
-19,-9,9,14,-14,0,-34,-68,-9,-14,-58,-43
-19,-9,9,14,-14,0,-39,-73,-9,-14,-53,-39
-19,-9,9,14,-14,0,-39,-78,-9,-14,-53,-39
-19,-9,9,14,-14,0,-39,-78,-9,-14,-53,-39
-19,-9,9,14,-14,0,-39,-78,-14,-14,-53,-39
-19,-9,9,14,-14,0,-39,-73,-14,-14,-53,-39
-14,-9,4,12,-9,-2,-39,-73,-9,-14,-53,-39
-9,-14,-4,12,-2,-9,-39,-73,-9,-14,-53,-34
-9,-14,-4,12,-2,-9,-34,-73,-9,-14,-48,-34
-9,-14,-4,12,-2,-9,-39,-78,-9,-14,-43,-34
-9,-14,-4,12,-2,-9,-39,-78,-9,-14,-39,-34
-9,-14,-4,12,-2,-9,-43,-78,-9,-14,-39,-34
-9,-14,-4,12,-2,-9,-43,-78,-9,-9,-39,-34
-14,-14,0,14,-7,-7,-43,-78,-9,-9,-39,-29
-14,-14,0,14,-7,-7,-39,-73,-9,-9,-34,-29
-14,-14,0,14,-7,-7,-39,-73,-9,-9,-34,-34
-14,-14,0,14,-7,-7,-39,-73,-4,-4,-39,-34
-9,-19,-9,14,0,-14,-34,-73,0,-4,-34,-34
-4,-14,-9,9,2,-12,-34,-73,0,-4,-29,-34
-4,-14,-9,9,2,-12,-34,-68,-4,-4,-24,-29
0,-14,-14,7,7,-14,-34,-68,-9,-4,-24,-24
-4,-19,-14,12,4,-17,-34,-78,-9,-4,-24,-24
-9,-24,-14,17,2,-19,-34,-78,-4,-4,-24,-24
-9,-19,-9,14,0,-14,-34,-73,-4,-4,-24,-24
-4,-19,-14,12,4,-17,-29,-73,0,0,-24,-24
-4,-19,-14,12,4,-17,-29,-73,0,0,-29,-24
0,-14,-14,7,7,-14,-24,-73,0,4,-29,-19
-4,-19,-14,12,4,-17,-29,-73,0,0,-29,-19
-9,-24,-14,17,2,-19,-34,-78,0,-4,-34,-24
-4,-19,-14,12,4,-17,-29,-78,0,0,-24,-19
0,-19,-19,9,9,-19,-29,-78,0,0,-19,-19
0,-19,-19,9,9,-19,-29,-73,0,0,-19,-19
0,-19,-19,9,9,-19,-29,-68,0,0,-19,-19
0,-19,-19,9,9,-19,-29,-68,0,4,-19,-24
0,-19,-19,9,9,-19,-29,-68,0,4,-19,-24
0,-19,-19,9,9,-19,-29,-68,0,9,-19,-24
0,-19,-19,9,9,-19,-24,-68,4,9,-14,-24
0,-4,-4,2,2,-4,-14,-58,19,24,-4,-19
4,9,4,-7,0,7,9,-48,29,34,0,-14
4,19,14,-12,-4,17,34,-39,39,39,4,-4
9,19,9,-14,0,14,39,-29,39,43,9,0
9,19,9,-14,0,14,43,-14,39,48,14,0
9,24,14,-17,-2,19,43,-9,43,53,19,0
19,48,29,-34,-4,39,53,-4,53,63,24,4
29,73,43,-51,-7,58,34,-9,68,73,34,19
34,122,87,-78,-26,104,-9,-29,92,82,43,34
48,141,92,-95,-21,117,-39,-48,97,87,48,39
48,131,82,-90,-17,107,-63,-63,92,87,53,39
58,126,68,-92,-4,97,-92,-73,92,87,53,48
82,151,68,-117,7,109,-126,-78,87,97,68,63
102,165,63,-134,19,114,-151,-87,78,107,82,73
122,180,58,-151,31,119,-165,-87,68,112,87,82
146,195,48,-170,48,122,-175,-87,63,122,102,97
161,200,39,-180,61,119,-180,-87,53,136,126,126
165,200,34,-183,65,117,-175,-87,43,141,136,136
161,170,9,-165,75,90,-175,-107,24,112,117,122
151,151,0,-151,75,75,-170,-122,14,92,97,112
146,131,-14,-139,80,58,-170,-122,14,82,87,102
117,117,0,-117,58,58,-151,-107,14,82,87,92
102,112,9,-107,46,61,-131,-92,19,92,92,87
73,92,19,-82,26,56,-92,-68,19,92,92,87
39,48,9,-43,14,29,-58,-63,19,73,63,48
9,-9,-19,0,14,-14,-34,-68,9,29,14,4
4,-34,-39,14,21,-36,-29,-68,-4,14,0,-4
0,-53,-53,26,26,-53,-29,-73,-14,-4,-19,-24
0,-68,-68,34,34,-68,-29,-78,-14,-4,-29,-34
-9,-78,-68,43,29,-73,-29,-82,-19,-4,-34,-39
-14,-78,-63,46,24,-70,-19,-82,-19,-4,-34,-34
-14,-82,-68,48,26,-75,-9,-82,-19,-4,-29,-34
-14,-92,-78,53,31,-85,-19,-82,-24,-9,-29,-34
-19,-97,-78,58,29,-87,-24,-78,-24,-14,-29,-34
-29,-107,-78,68,24,-92,-19,-107,-24,-48,-58,-48
-39,-87,-48,63,4,-68,0,-68,-19,9,-24,-48
-29,-48,-19,39,-4,-34,43,63,0,204,97,-4
-29,34,63,-2,-46,48,73,156,34,390,219,43
-29,141,170,-56,-100,156,131,380,68,575,312,92
-4,248,253,-122,-129,251,258,824,102,912,488,170
68,312,244,-190,-87,278,478,1429,97,1283,678,239
204,395,190,-300,7,292,497,1673,63,1625,966,409
390,580,190,-485,100,385,400,1478,29,2049,1556,829
624,805,180,-714,222,492,131,1058,-29,2454,2200,1327
868,1141,273,-1005,297,707,-527,165,-39,2664,2669,1771
1161,1449,287,-1305,436,868,-1337,-673,-78,2723,2967,2166
1586,1830,244,-1708,671,1037,-2332,-1615,-161,2898,3372,2688
1971,2010,39,-1991,966,1024,-2981,-2088,-287,3323,3791,3176
2381,1761,-619,-2071,1500,570,-3084,-1864,-619,4489,4587,3747
2425,1459,-966,-1942,1695,246,-2869,-1810,-785,4636,4675,3947
1976,1249,-727,-1612,1351,261,-2435,-2103,-649,2835,3542,3630
1464,912,-551,-1188,1007,180,-1908,-2225,-527,463,1864,2884
1039,497,-541,-768,790,-21,-1371,-1844,-444,-1005,429,1893
697,146,-551,-422,624,-202,-873,-1283,-370,-1180,-117,1127
302,-63,-366,-119,334,-214,-366,-605,-200,-697,-234,356
34,-161,-195,63,114,-178,-43,-180,-87,-390,-273,-73
-34,-170,-136,102,51,-153,29,-92,-39,-283,-244,-117
-73,-170,-97,122,12,-134,63,-43,-14,-234,-229,-151
-73,-170,-97,122,12,-134,73,-9,-14,-229,-209,-151
-73,-170,-97,122,12,-134,97,34,-14,-214,-200,-141
-87,-170,-82,129,-2,-126,117,39,-14,-204,-200,-156
-92,-165,-73,129,-9,-119,122,39,-4,-195,-200,-161
-97,-161,-63,129,-17,-112,126,58,-4,-185,-190,-161
-102,-156,-53,129,-24,-104,136,82,-4,-175,-180,-156
-102,-156,-53,129,-24,-104,141,87,4,-165,-175,-156
-107,-156,-48,131,-29,-102,146,87,9,-156,-170,-156
-107,-151,-43,129,-31,-97,146,87,4,-146,-161,-151
-102,-146,-43,124,-29,-95,151,102,4,-146,-151,-151
-97,-146,-48,122,-24,-97,156,112,9,-146,-151,-146
-97,-141,-43,119,-26,-92,161,112,9,-136,-146,-146
-102,-146,-43,124,-29,-95,161,117,9,-136,-136,-146
-102,-146,-43,124,-29,-95,161,122,14,-126,-131,-141
-102,-141,-39,122,-31,-90,161,126,14,-126,-126,-136
-102,-136,-34,119,-34,-85,161,131,14,-122,-122,-131
-102,-126,-24,114,-39,-75,156,131,9,-117,-117,-117
-102,-122,-19,112,-41,-70,151,136,4,-112,-112,-112
-102,-122,-19,112,-41,-70,156,146,9,-112,-107,-112
-102,-122,-19,112,-41,-70,156,156,9,-107,-97,-107
-97,-122,-24,109,-36,-73,165,165,9,-97,-92,-102
-92,-112,-19,102,-36,-65,165,165,9,-92,-78,-97
-92,-112,-19,102,-36,-65,165,175,14,-87,-78,-97
-92,-107,-14,100,-39,-61,165,185,14,-82,-68,-92
-92,-97,-4,95,-43,-51,170,190,24,-73,-68,-87
-92,-92,0,92,-46,-46,170,200,29,-73,-63,-87
-97,-92,4,95,-51,-43,170,209,24,-73,-63,-92
-102,-92,9,97,-56,-41,170,219,24,-73,-63,-92
-102,-87,14,95,-58,-36,175,224,34,-63,-58,-87
-107,-82,24,95,-65,-29,180,234,34,-58,-58,-87
-102,-82,19,92,-61,-31,185,244,39,-53,-58,-87
-97,-82,14,90,-56,-34,190,253,39,-53,-48,-82
-97,-82,14,90,-56,-34,190,268,39,-53,-43,-82
-107,-78,29,92,-68,-24,190,278,43,-58,-48,-87
-107,-78,29,92,-68,-24,200,292,48,-58,-48,-87
-107,-78,29,92,-68,-24,204,307,48,-58,-48,-87
-112,-78,34,95,-73,-21,214,322,53,-63,-43,-92
-112,-73,39,92,-75,-17,219,336,53,-73,-48,-102
-122,-73,48,97,-85,-12,229,346,63,-82,-58,-107
-131,-68,63,100,-97,-2,239,366,68,-87,-68,-112
-136,-63,73,100,-104,4,253,380,78,-92,-78,-117
-146,-63,82,104,-114,9,263,395,82,-107,-92,-126
-151,-68,82,109,-117,7,268,405,82,-122,-107,-141
-156,-68,87,112,-122,9,278,414,87,-141,-122,-156
-165,-73,92,119,-129,9,292,424,92,-170,-151,-175
-175,-78,97,126,-136,9,312,439,102,-204,-175,-200
-190,-82,107,136,-148,12,331,444,107,-239,-200,-219
-214,-92,122,153,-168,14,346,444,117,-268,-229,-239
-229,-102,126,165,-178,12,366,444,126,-317,-273,-268
-244,-122,122,183,-183,0,385,448,136,-366,-317,-297
-258,-131,126,195,-192,-2,400,439,141,-419,-361,-331
-278,-146,131,212,-204,-7,419,429,151,-468,-405,-361
-302,-161,141,231,-222,-9,439,414,156,-531,-468,-400
-326,-180,146,253,-236,-17,458,395,165,-595,-522,-444
-341,-200,141,270,-241,-29,478,380,170,-658,-575,-483
-361,-214,146,287,-253,-34,488,361,180,-722,-639,-531
-395,-244,151,319,-273,-46,502,331,185,-790,-697,-575
-405,-258,146,331,-275,-56,512,297,190,-849,-751,-619
-419,-283,136,351,-278,-73,527,273,190,-897,-800,-649
-434,-307,126,370,-280,-90,531,248,190,-946,-844,-683
-453,-322,131,387,-292,-95,522,209,185,-990,-888,-722
-458,-346,112,402,-285,-117,517,170,180,-1029,-922,-751
-463,-361,102,412,-283,-129,507,131,185,-1049,-946,-775
-463,-370,92,417,-278,-139,488,97,180,-1058,-966,-790
-463,-375,87,419,-275,-143,473,73,165,-1073,-980,-795
-444,-380,63,412,-253,-158,453,43,156,-1058,-976,-790
-424,-380,43,402,-234,-168,429,19,146,-1010,-936,-766
-405,-380,24,392,-214,-178,395,4,136,-951,-897,-736
-375,-366,9,370,-192,-178,366,0,117,-888,-854,-702
-346,-356,-9,351,-168,-183,336,0,107,-814,-795,-663
-317,-331,-14,324,-151,-173,302,-4,92,-722,-722,-614
-273,-302,-29,287,-122,-165,263,-4,78,-639,-653,-566
-244,-278,-34,261,-104,-156,234,0,68,-556,-590,-512
-200,-248,-48,224,-75,-148,200,4,63,-468,-512,-458
-170,-224,-53,197,-58,-139,170,9,48,-385,-434,-400
-136,-195,-58,165,-39,-126,136,9,43,-312,-370,-341
-112,-170,-58,141,-26,-114,112,9,34,-253,-312,-287
-82,-156,-73,119,-4,-114,92,14,19,-190,-258,-244
-63,-131,-68,97,2,-100,73,24,14,-126,-185,-190
-39,-107,-68,73,14,-87,53,29,4,-73,-122,-136
-19,-87,-68,53,24,-78,34,29,4,-39,-92,-107
0,-68,-68,34,34,-68,14,29,4,-4,-58,-73
9,-53,-63,21,36,-58,4,29,0,34,-19,-43
24,-39,-63,7,43,-51,-4,29,0,58,9,-4
34,-29,-63,-2,48,-46,-19,29,-4,73,29,14
48,-14,-63,-17,56,-39,-29,29,-4,82,39,29
53,-9,-63,-21,58,-36,-34,24,-4,92,53,39
53,0,-53,-26,53,-26,-39,19,0,97,63,48
58,9,-48,-34,53,-19,-48,19,0,102,68,53
58,24,-34,-41,46,-4,-58,19,0,102,68,58
58,24,-34,-41,46,-4,-58,19,0,107,78,63
53,24,-29,-39,41,-2,-58,19,0,112,92,63
53,24,-29,-39,41,-2,-63,19,0,112,92,73
53,24,-29,-39,41,-2,-63,19,0,107,92,78
58,24,-34,-41,46,-4,-58,19,0,107,87,78
63,24,-39,-43,51,-7,-58,9,0,102,82,73
63,24,-39,-43,51,-7,-58,9,4,97,82,68
63,24,-39,-43,51,-7,-58,4,9,87,73,58
53,29,-24,-41,39,2,-58,4,9,78,63,53
48,34,-14,-41,31,9,-53,0,14,68,48,43
43,34,-9,-39,26,12,-53,-4,14,63,43,43
39,29,-9,-34,24,9,-53,-9,14,53,43,39
34,29,-4,-31,19,12,-53,-14,14,43,39,29
34,29,-4,-31,19,12,-48,-14,19,39,29,19
29,29,0,-29,14,14,-48,-14,14,29,24,19
29,24,-4,-26,17,9,-39,-19,9,29,14,14
24,19,-4,-21,14,7,-39,-19,9,19,9,14
19,14,-4,-17,12,4,-34,-19,9,14,9,9
19,14,-4,-17,12,4,-34,-19,14,9,0,0
14,9,-4,-12,9,2,-34,-19,14,0,0,-4
14,4,-9,-9,12,-2,-34,-24,14,-4,-9,-19
9,4,-4,-7,7,0,-34,-24,14,-4,-14,-19
9,4,-4,-7,7,0,-29,-24,14,-9,-14,-19
4,0,-4,-2,4,-2,-29,-29,14,-9,-19,-19
4,0,-4,-2,4,-2,-29,-29,14,-14,-24,-29
4,0,-4,-2,4,-2,-29,-29,9,-14,-24,-29
9,0,-9,-4,9,-4,-29,-29,14,-14,-24,-29
9,0,-9,-4,9,-4,-29,-34,19,-14,-24,-29
4,-4,-9,0,7,-7,-24,-34,19,-19,-29,-34
4,-4,-9,0,7,-7,-24,-34,19,-19,-29,-34
4,-4,-9,0,7,-7,-29,-39,14,-19,-29,-34
4,0,-4,-2,4,-2,-34,-39,9,-19,-24,-34
4,0,-4,-2,4,-2,-34,-39,9,-19,-24,-34
9,-4,-14,-2,12,-9,-34,-39,9,-19,-24,-34
9,-14,-24,2,17,-19,-39,-43,9,-14,-24,-34
9,-24,-34,7,21,-29,-39,-43,9,-14,-24,-34
9,-4,-14,-2,12,-9,-39,-43,9,-14,-24,-34
9,9,0,-9,4,4,-39,-43,9,-14,-24,-34
9,9,0,-9,4,4,-39,-48,14,-9,-24,-34
9,9,0,-9,4,4,-39,-48,19,-4,-24,-34
14,14,0,-14,7,7,-43,-48,19,0,-14,-29
19,19,0,-19,9,9,-43,-48,19,4,-9,-29
19,19,0,-19,9,9,-43,-53,19,4,-4,-29
19,19,0,-19,9,9,-43,-53,19,4,-4,-29
19,14,-4,-17,12,4,-48,-53,19,4,-4,-24
19,9,-9,-14,14,0,-53,-58,19,4,-4,-24
19,9,-9,-14,14,0,-53,-63,19,14,0,-24
19,9,-9,-14,14,0,-58,-68,19,14,4,-19
19,14,-4,-17,12,4,-63,-68,19,4,0,-19
19,19,0,-19,9,9,-68,-68,19,-4,-4,-19
19,19,0,-19,9,9,-68,-68,14,-4,-4,-19
19,19,0,-19,9,9,-68,-68,14,-4,-4,-19
24,14,-9,-19,17,2,-63,-73,14,4,0,-19
24,9,-14,-17,19,-2,-63,-73,9,14,4,-14
19,14,-4,-17,12,4,-63,-73,9,14,9,-9
19,14,-4,-17,12,4,-68,-78,9,14,9,-4
24,19,-4,-21,14,7,-68,-78,14,14,9,-4
29,24,-4,-26,17,9,-73,-78,19,14,9,-4
29,24,-4,-26,17,9,-73,-78,19,19,14,-4
29,29,0,-29,14,14,-73,-78,19,19,19,0
34,34,0,-34,17,17,-68,-73,14,14,24,0
34,34,0,-34,17,17,-68,-73,9,9,24,-4
29,34,4,-31,12,19,-73,-78,9,14,14,-14
24,34,9,-29,7,21,-73,-82,9,14,9,-24
24,43,19,-34,2,31,-73,-82,9,14,9,-24
24,43,19,-34,2,31,-73,-78,9,14,14,-19
29,43,14,-36,7,29,-78,-78,4,14,14,-14
29,43,14,-36,7,29,-82,-87,0,14,14,-14
24,53,29,-39,-2,41,-87,-87,4,0,-4,-24
19,68,48,-43,-14,58,-97,-87,4,-14,-24,-34
19,68,48,-43,-14,58,-97,-92,9,-19,-29,-39
14,73,58,-43,-21,65,-107,-92,9,-29,-34,-43
19,82,63,-51,-21,73,-117,-97,9,-29,-34,-43
24,87,63,-56,-19,75,-122,-102,9,-29,-34,-34
19,82,63,-51,-21,73,-122,-102,9,-29,-34,-34
14,82,68,-48,-26,75,-122,-102,9,-34,-39,-34
9,87,78,-48,-34,82,-126,-107,4,-39,-34,-39
4,87,82,-46,-39,85,-126,-112,0,-48,-29,-48
4,87,82,-46,-39,85,-126,-112,0,-48,-29,-48
