I, II, III, aVR, aVL, aVF, V1, V2, V3, V4, V5, V6
-39,214,253,-87,-146,234,0,-97,-48,-39,0,-78
-29,214,244,-92,-136,229,-14,-102,-53,-39,-4,-82
-19,214,234,-97,-126,224,-29,-107,-58,-39,-9,-87
0,214,214,-107,-107,214,-43,-107,-63,-39,-14,-92
19,214,195,-117,-87,204,-58,-107,-68,-39,-19,-97
19,190,170,-104,-75,180,-58,-102,-68,-39,-19,-107
19,165,146,-92,-63,156,-58,-97,-68,-39,-19,-117
19,156,136,-87,-58,146,-63,-97,-68,-39,-29,-117
19,146,126,-82,-53,136,-68,-97,-68,-39,-39,-117
19,141,122,-80,-51,131,-68,-92,-63,-39,-39,-122
19,136,117,-78,-48,126,-68,-87,-58,-39,-39,-126
29,136,107,-82,-39,122,-73,-87,-58,-43,-53,-141
39,136,97,-87,-29,117,-78,-87,-58,-48,-68,-156
39,131,92,-85,-26,112,-78,-82,-58,-48,-68,-156
39,126,87,-82,-24,107,-78,-78,-58,-48,-68,-156
39,117,78,-78,-19,97,-78,-73,-53,-43,-63,-141
39,107,68,-73,-14,87,-78,-68,-48,-39,-58,-126
39,107,68,-73,-14,87,-78,-68,-48,-39,-58,-112
39,107,68,-73,-14,87,-78,-68,-48,-39,-58,-97
39,107,68,-73,-14,87,-73,-63,-48,-39,-58,-87
39,107,68,-73,-14,87,-68,-58,-48,-39,-58,-78
39,102,63,-70,-12,82,-68,-58,-43,-34,-53,-58
39,97,58,-68,-9,78,-68,-58,-39,-29,-48,-39
39,97,58,-68,-9,78,-68,-58,-39,-29,-43,-24
39,97,58,-68,-9,78,-68,-58,-39,-29,-39,-9
39,107,68,-73,-14,87,-68,-58,-39,-29,-34,19
39,117,78,-78,-19,97,-68,-58,-39,-29,-29,48
39,117,78,-78,-19,97,-68,-53,-34,-19,-24,68
39,117,78,-78,-19,97,-68,-48,-29,-9,-19,87
39,117,78,-78,-19,97,-63,-43,-29,-9,-19,117
39,117,78,-78,-19,97,-58,-39,-29,-9,-19,146
39,117,78,-78,-19,97,-58,-39,-29,-9,-19,170
39,117,78,-78,-19,97,-58,-39,-29,-9,-19,195
29,112,82,-70,-26,97,-58,-34,-24,-9,-19,244
19,107,87,-63,-34,97,-58,-29,-19,-9,-19,292
19,102,82,-61,-31,92,-58,-29,-19,-9,-19,346
19,97,78,-58,-29,87,-58,-29,-19,-9,-19,400
14,82,68,-48,-26,75,-48,-24,-9,-4,-19,453
9,68,58,-39,-24,63,-39,-19,0,0,-19,507
9,78,68,-43,-29,73,-39,-19,0,0,-19,507
9,87,78,-48,-34,82,-39,-19,0,0,-19,507
4,97,92,-51,-43,95,-39,-19,0,0,-24,541
0,107,107,-53,-53,107,-39,-19,0,0,-29,575
0,87,87,-43,-43,87,-39,-14,0,0,-29,629
0,68,68,-34,-34,68,-39,-9,0,0,-29,683
0,78,78,-39,-39,78,-39,-9,0,0,-29,727
0,87,87,-43,-43,87,-39,-9,0,0,-29,771
-4,87,92,-41,-48,90,-34,-9,0,4,-29,780
-9,87,97,-39,-53,92,-29,-9,0,9,-29,790
-9,87,97,-39,-53,92,-29,-9,0,9,-29,800
-9,87,97,-39,-53,92,-29,-9,0,9,-29,810
-9,82,92,-36,-51,87,-29,-9,0,4,-29,810
-9,78,87,-34,-48,82,-29,-9,0,0,-29,810
-9,78,87,-34,-48,82,-29,-9,0,0,-29,771
-9,78,87,-34,-48,82,-29,-9,0,0,-29,732
-9,73,82,-31,-46,78,-29,-9,0,0,-24,658
-9,68,78,-29,-43,73,-29,-9,0,0,-19,585
-14,68,82,-26,-48,75,-29,-14,0,0,-19,458
-19,68,87,-24,-53,78,-29,-19,0,0,-19,331
-19,68,87,-24,-53,78,-29,-19,0,0,-19,297
-19,68,87,-24,-53,78,-29,-19,0,0,-19,263
-19,53,73,-17,-46,63,-29,-19,0,0,-19,224
-19,39,58,-9,-39,48,-29,-19,0,0,-19,185
-19,58,78,-19,-48,68,-29,-19,0,0,-19,180
-19,78,97,-29,-58,87,-29,-19,0,0,-19,175
-19,78,97,-29,-58,87,-29,-19,0,0,-19,141
-19,78,97,-29,-58,87,-29,-19,0,0,-19,107
-19,68,87,-24,-53,78,-29,-19,0,0,-14,136
-19,58,78,-19,-48,68,-29,-19,0,0,-9,165
-19,58,78,-19,-48,68,-29,-19,0,-4,-9,131
-19,58,78,-19,-48,68,-29,-19,0,-9,-9,97
-19,58,78,-19,-48,68,-29,-19,0,-9,-9,122
-19,58,78,-19,-48,68,-29,-19,0,-9,-9,146
-9,53,63,-21,-36,58,-29,-19,0,-9,-9,131
0,48,48,-24,-24,48,-29,-19,0,-9,-9,117
-9,48,58,-19,-34,53,-29,-19,0,-9,-9,117
-19,48,68,-14,-43,58,-29,-19,0,-9,-9,117
-19,53,73,-17,-46,63,-29,-19,0,-9,-9,136
-19,58,78,-19,-48,68,-29,-19,0,-9,-9,156
-19,58,78,-19,-48,68,-29,-19,0,-4,-9,92
-19,58,78,-19,-48,68,-29,-19,0,0,-9,29
-19,58,78,-19,-48,68,-29,-19,-4,0,-9,63
-19,58,78,-19,-48,68,-29,-19,-9,0,-9,97
-19,63,82,-21,-51,73,-29,-19,-9,0,-9,58
-19,68,87,-24,-53,78,-29,-19,-9,0,-9,19
-19,68,87,-24,-53,78,-29,-19,-9,0,-9,19
-19,68,87,-24,-53,78,-29,-19,-9,0,-9,19
-19,63,82,-21,-51,73,-29,-19,-9,0,-9,9
-19,58,78,-19,-48,68,-29,-19,-9,0,-9,0
-19,58,78,-19,-48,68,-29,-19,-9,0,-14,0
-19,58,78,-19,-48,68,-29,-19,-9,0,-19,0
-19,58,78,-19,-48,68,-29,-19,-9,0,-19,-4
-19,58,78,-19,-48,68,-29,-19,-9,0,-19,-9
-19,58,78,-19,-48,68,-29,-19,-9,0,-19,-9
-19,58,78,-19,-48,68,-29,-19,-9,0,-19,-9
-19,63,82,-21,-51,73,-29,-19,-9,0,-19,-9
-19,68,87,-24,-53,78,-29,-19,-9,0,-19,-9
-19,68,87,-24,-53,78,-29,-19,-4,0,-19,-19
-19,68,87,-24,-53,78,-29,-19,0,0,-19,-29
-19,68,87,-24,-53,78,-29,-19,0,0,-19,-29
-19,68,87,-24,-53,78,-29,-19,0,0,-19,-29
-9,63,73,-26,-41,68,-24,-9,9,4,-14,-29
0,58,58,-29,-29,58,-19,0,19,9,-9,-29
9,58,48,-34,-19,53,-4,14,29,19,0,-29
19,58,39,-39,-9,48,9,29,39,29,9,-29
34,73,39,-53,-2,56,19,48,53,43,19,-24
48,87,39,-68,4,63,29,68,68,58,29,-19
63,97,34,-80,14,65,29,73,68,63,29,-14
78,107,29,-92,24,68,29,78,68,68,29,-9
68,107,39,-87,14,73,48,92,87,78,43,-9
58,107,48,-82,4,78,68,107,107,87,58,-9
58,117,58,-87,0,87,68,107,117,97,63,-4
58,126,68,-92,-4,97,68,107,126,107,68,0
63,131,68,-97,-2,100,43,102,117,107,68,0
68,136,68,-102,0,102,19,97,107,107,68,0
82,136,53,-109,14,95,-4,87,107,107,68,0
97,136,39,-117,29,87,-29,78,107,107,68,0
97,131,34,-114,31,82,-43,53,87,92,63,0
97,126,29,-112,34,78,-58,29,68,78,58,0
97,122,24,-109,36,73,-73,14,53,63,53,-4
97,117,19,-107,39,68,-87,0,39,48,48,-9
97,102,4,-100,46,53,-87,-4,34,43,43,-19
97,87,-9,-92,53,39,-87,-9,29,39,39,-29
92,87,-4,-90,48,41,-87,-9,24,39,34,-34
87,78,-9,-82,48,34,-78,-4,24,34,29,-39
82,73,-9,-78,46,31,-73,0,24,34,24,-48
78,73,-4,-75,41,34,-63,9,29,39,29,-53
73,63,-9,-68,41,26,-53,9,24,39,29,-53
53,63,9,-58,21,36,-53,0,14,24,14,-63
48,63,14,-56,17,39,-58,-9,4,19,9,-68
48,73,24,-61,12,48,-58,-14,4,19,9,-73
53,73,19,-63,17,46,-58,-9,4,19,4,-78
29,53,24,-41,2,39,-34,-9,4,9,0,-87
-4,43,48,-19,-26,46,-24,-9,-4,-4,-9,-102
-48,39,87,4,-68,63,-19,-14,-14,-19,-24,-122
-58,29,87,14,-73,58,-19,-24,-19,-29,-34,-122
-58,24,82,17,-70,53,-19,-34,-19,-29,-43,-122
-58,19,78,19,-68,48,-19,-34,-19,-29,-43,-122
-58,4,63,26,-61,34,-19,-29,-19,-29,-43,-126
-58,4,63,26,-61,34,-14,-29,-19,-29,-43,-126
-58,14,73,21,-65,43,-9,-29,-19,-34,-43,-126
-58,24,82,17,-70,53,-9,-34,-24,-34,-43,-126
-58,29,87,14,-73,58,-9,-34,-24,-34,-43,-126
-63,39,102,12,-82,70,-14,-34,-29,-29,-43,-126
-63,53,117,4,-90,85,-19,-34,-29,-29,-39,-122
-63,34,97,14,-80,65,-19,-34,-29,-19,-39,-122
-63,14,78,24,-70,46,-19,-29,-29,-9,-39,-122
-68,19,87,24,-78,53,-19,-29,-29,-24,-39,-131
-68,19,87,24,-78,53,-14,-29,-29,-34,-43,-136
-63,19,82,21,-73,51,-14,-29,-29,-29,-43,-136
-63,19,82,21,-73,51,-14,-29,-29,-29,-43,-136
-68,9,78,29,-73,43,-14,-29,-29,-34,-48,-136
-73,9,82,31,-78,46,-14,-29,-29,-39,-53,-141
-73,24,97,24,-85,61,-14,-29,-39,-39,-53,-146
-73,39,112,17,-92,75,-14,-29,-48,-39,-53,-151
-78,48,126,14,-102,87,-14,-29,-39,-39,-53,-151
-78,53,131,12,-104,92,-4,-29,-29,-39,-53,-146
-78,34,112,21,-95,73,-14,-29,-29,-39,-53,-146
-78,14,92,31,-85,53,-14,-29,-29,-39,-53,-146
-82,14,97,34,-90,56,-9,-39,-39,-39,-53,-146
-87,9,97,39,-92,53,0,-34,-39,-39,-53,-156
-97,14,112,41,-104,63,48,4,-24,-48,-68,-170
-97,29,126,34,-112,78,87,87,53,-19,-58,-175
-68,63,131,2,-100,97,131,268,268,161,39,-122
4,92,87,-48,-41,90,112,356,405,317,146,-53
53,122,68,-87,-7,95,92,370,463,385,195,-9
63,146,82,-104,-9,114,24,273,463,414,229,29
43,141,97,-92,-26,119,-185,-126,229,297,204,29
53,161,107,-107,-26,134,-429,-439,53,229,195,39
97,190,92,-143,2,141,-785,-775,-190,136,190,78
185,190,4,-187,90,97,-1112,-995,-414,29,170,92
307,185,-122,-246,214,31,-1327,-1015,-502,-24,146,82
312,200,-112,-256,212,43,-1439,-1293,-790,-244,58,58
263,200,-63,-231,163,68,-1351,-1551,-1156,-605,-122,0
263,224,-39,-244,151,92,-1263,-1590,-1293,-766,-209,-14
307,341,34,-324,136,187,-1166,-1507,-1220,-712,-141,58
375,405,29,-390,173,217,-1093,-1385,-1098,-605,-34,165
400,390,-9,-395,204,190,-1015,-1254,-990,-546,4,204
414,414,0,-414,207,207,-941,-1107,-834,-439,53,234
390,409,19,-400,185,214,-790,-941,-683,-336,87,229
331,390,58,-361,136,224,-653,-780,-551,-263,102,204
278,356,78,-317,100,217,-527,-600,-400,-175,126,190
195,302,107,-248,43,204,-400,-434,-283,-117,102,122
107,224,117,-165,-4,170,-273,-331,-219,-112,39,19
48,131,82,-90,-17,107,-165,-224,-165,-102,0,-53
9,92,82,-51,-36,87,-102,-122,-112,-97,-24,-87
-14,63,78,-24,-46,70,-48,-43,-63,-68,-34,-112
-43,48,92,-2,-68,70,-9,-14,-34,-53,-48,-146
-58,24,82,17,-70,53,14,4,-19,-39,-53,-151
-58,34,92,12,-75,63,24,24,-14,-39,-53,-151
-58,34,92,12,-75,63,29,43,-4,-39,-53,-156
-58,24,82,17,-70,53,43,48,0,-29,-53,-165
-58,24,82,17,-70,53,48,53,4,-24,-53,-170
-68,24,92,21,-80,58,53,63,14,-24,-58,-180
-78,14,92,31,-85,53,58,73,14,-19,-58,-185
-78,9,87,34,-82,48,68,87,29,-19,-58,-185
-78,4,82,36,-80,43,78,97,34,-14,-63,-190
-73,4,78,34,-75,41,87,107,39,-14,-63,-185
-78,0,78,39,-78,39,87,112,43,-14,-63,-180
-82,-9,73,46,-78,31,92,122,43,-9,-63,-180
-82,-14,68,48,-75,26,102,131,39,-9,-63,-180
-82,-14,68,48,-75,26,107,136,48,-9,-63,-180
-82,-14,68,48,-75,26,117,141,53,-4,-58,-180
-82,0,82,41,-82,41,122,151,58,-4,-58,-190
-82,14,97,34,-90,56,126,161,58,0,-58,-190
-87,-4,82,46,-85,39,141,170,73,0,-58,-195
-87,-24,63,56,-75,19,151,185,73,0,-63,-200
-87,-4,82,46,-85,39,161,195,82,4,-63,-200
-87,14,102,36,-95,58,170,214,87,4,-58,-200
-92,0,92,46,-92,46,190,224,102,14,-53,-195
-102,-24,78,63,-90,26,209,248,117,19,-48,-195
-107,-34,73,70,-90,19,229,263,136,24,-48,-195
-107,-43,63,75,-85,9,248,278,146,24,-48,-195
-112,-43,68,78,-90,12,263,297,146,19,-48,-195
-112,-39,73,75,-92,17,283,317,146,24,-48,-195
-112,-39,73,75,-92,17,302,331,161,34,-48,-195
-122,-39,82,80,-102,21,322,351,170,39,-48,-195
-122,-34,87,78,-104,26,341,370,180,53,-48,-185
-131,-24,107,78,-119,41,356,385,185,63,-43,-185
-141,-19,122,80,-131,51,366,395,190,53,-43,-195
-146,-9,136,78,-141,63,375,405,200,48,-43,-209
-151,4,156,73,-153,80,390,414,209,48,-48,-209
-156,9,165,73,-161,87,400,419,214,48,-48,-209
-161,9,170,75,-165,90,414,424,219,53,-39,-195
-161,14,175,73,-168,95,424,429,219,53,-34,-180
-165,29,195,68,-180,112,429,424,224,58,-34,-170
-161,29,190,65,-175,109,434,419,229,68,-29,-161
-156,48,204,53,-180,126,429,400,224,63,-29,-161
-156,63,219,46,-187,141,419,380,214,63,-19,-146
-161,78,239,41,-200,158,405,336,200,53,-19,-146
-161,78,239,41,-200,158,390,312,190,48,-14,-136
-161,97,258,31,-209,178,351,273,165,43,-14,-131
-161,117,278,21,-219,197,322,239,146,34,-4,-117
-151,126,278,12,-214,202,302,195,126,19,-14,-102
-136,151,287,-7,-212,219,263,146,107,0,-24,-92
-126,161,287,-17,-207,224,224,102,78,-9,-14,-92
-112,161,273,-24,-192,217,185,63,63,-9,-4,-78
-97,161,258,-31,-178,209,151,39,43,-19,-4,-73
-82,180,263,-48,-173,222,122,4,24,-29,0,-68
-73,170,244,-48,-158,207,92,-14,14,-39,0,-63
-63,161,224,-48,-143,192,53,-34,-4,-39,0,-58
-43,146,190,-51,-117,168,39,-53,-4,-39,0,-53
-24,141,165,-58,-95,153,24,-63,-14,-39,0,-53
-19,131,151,-56,-85,141,9,-63,-14,-34,0,-58
-14,122,136,-53,-75,129,-4,-63,-14,-34,0,-58
-9,107,117,-48,-63,112,-4,-58,-19,-34,0,-68
-9,87,97,-39,-53,92,-9,-53,-19,-34,-4,-68
-9,82,92,-36,-51,87,-14,-39,-19,-34,-4,-68
-9,82,92,-36,-51,87,-14,-29,-19,-34,-4,-78
-14,78,92,-31,-53,85,-19,-39,-19,-34,-14,-82
-14,68,82,-26,-48,75,-19,-39,-19,-34,-14,-87
-14,48,63,-17,-39,56,-19,-39,-19,-34,-14,-82
-14,29,43,-7,-29,36,-14,-29,-14,-34,-14,-78
-14,39,53,-12,-34,46,-14,-24,-14,-34,-19,-82
-14,43,58,-14,-36,51,-14,-19,-14,-29,-19,-82
-14,43,58,-14,-36,51,-14,-14,-9,-19,-14,-82
-14,29,43,-7,-29,36,-14,-9,-9,-14,-9,-82
-14,29,43,-7,-29,36,-14,-9,-14,-14,-14,-87
-14,34,48,-9,-31,41,-14,-9,-14,-14,-14,-92
-14,29,43,-7,-29,36,-14,-9,-9,-9,-9,-82
-14,19,34,-2,-24,26,-14,-4,-4,0,0,-68
-9,19,29,-4,-19,24,-14,0,-4,4,0,-68
-4,14,19,-4,-12,17,-14,4,-4,4,0,-68
-4,19,24,-7,-14,21,-9,4,4,4,-4,-73
-4,29,34,-12,-19,31,-9,4,4,0,-9,-78
-4,29,34,-12,-19,31,-9,9,4,0,-9,-73
-4,29,34,-12,-19,31,-9,14,9,0,-4,-73
-4,24,29,-9,-17,26,-4,19,14,4,0,-73
-4,24,29,-9,-17,26,-4,19,14,4,0,-78
-4,24,29,-9,-17,26,-9,19,14,4,0,-82
-4,24,29,-9,-17,26,-9,19,14,4,0,-82
-9,24,34,-7,-21,29,-4,19,9,0,0,-78
-14,14,29,0,-21,21,0,29,14,-4,0,-78
-19,14,34,2,-26,24,0,29,14,-9,0,-82
-19,14,34,2,-26,24,0,29,14,-14,0,-87
-14,9,24,2,-19,17,4,34,14,-9,0,-87
-14,4,19,4,-17,12,4,34,19,-9,4,-87
-14,4,19,4,-17,12,4,39,19,-4,4,-87
-14,4,19,4,-17,12,4,39,14,-4,4,-87
-19,4,24,7,-21,14,4,39,14,-9,4,-87
-24,9,34,7,-29,21,4,34,14,-9,0,-87
-34,4,39,14,-36,21,4,34,19,-9,0,-87
-43,-4,39,24,-41,17,9,34,19,-4,0,-92
-29,-4,24,17,-26,9,9,34,19,-4,0,-92
-19,-14,4,17,-12,-4,9,34,19,-4,0,-87
-19,-4,14,12,-17,4,9,34,19,-9,-4,-87
-14,0,14,7,-14,7,9,34,19,-14,-4,-82
-14,0,14,7,-14,7,9,34,19,-9,4,-82
-14,-4,9,9,-12,2,9,34,19,-14,4,-87
-14,-4,9,9,-12,2,0,34,19,-19,0,-87
-14,-4,9,9,-12,2,-4,34,14,-24,-4,-92
-14,-9,4,12,-9,-2,4,34,14,-19,-4,-92
-14,-9,4,12,-9,-2,14,34,14,-9,4,-87
-24,-4,19,14,-21,7,14,29,14,-9,4,-92
-34,-4,29,19,-31,12,14,29,9,-9,4,-97
-34,-4,29,19,-31,12,0,19,9,-14,0,-102
-29,4,34,12,-31,19,-4,14,9,-14,0,-102
-29,4,34,12,-31,19,-4,14,4,-19,-9,-102
-29,0,29,14,-29,14,-4,14,4,-19,-9,-102
-29,-9,19,19,-24,4,-4,14,0,-19,-4,-102
-29,-9,19,19,-24,4,-4,14,0,-19,-4,-107
-24,4,29,9,-26,17,-4,14,-4,-29,-4,-117
-29,4,34,12,-31,19,-4,14,-9,-34,-4,-122
-29,9,39,9,-34,24,0,14,-4,-34,-14,-136
-29,19,48,4,-39,34,0,14,-4,-34,-24,-151
-29,4,34,12,-31,19,-4,14,-4,-29,-14,-151
-24,0,24,12,-24,12,-4,9,-9,-24,-9,-151
-29,9,39,9,-34,24,-9,9,-9,-24,-9,-161
-34,19,53,7,-43,36,-9,9,-9,-34,-14,-175
-34,19,53,7,-43,36,-9,4,-14,-39,-14,-175
-34,4,39,14,-36,21,-9,0,-19,-39,-14,-175
-34,14,48,9,-41,31,-14,0,-19,-39,-14,-170
-34,14,48,9,-41,31,-14,0,-19,-43,-14,-165
-34,19,53,7,-43,36,-9,0,-19,-48,-14,-165
-34,29,63,2,-48,46,-9,0,-19,-53,-14,-165
-39,24,63,7,-51,43,-14,-4,-19,-53,-14,-165
-39,14,53,12,-46,34,-14,-4,-19,-53,-14,-165
-43,14,58,14,-51,36,-14,-4,-19,-53,-14,-165
-43,14,58,14,-51,36,-14,-4,-19,-53,-14,-165
-43,9,53,17,-48,31,-9,0,-14,-43,-19,-165
-43,4,48,19,-46,26,-9,4,-9,-39,-19,-165
-39,4,43,17,-41,24,-9,4,-9,-39,-14,-156
-34,4,39,14,-36,21,-14,0,-14,-39,-14,-151
-34,9,43,12,-39,26,-14,-4,-19,-39,-14,-151
-34,14,48,9,-41,31,-9,-4,-19,-39,-14,-151
-34,14,48,9,-41,31,-9,-4,-19,-29,-14,-146
-29,14,43,7,-36,29,-14,-4,-24,-24,-14,-141
-29,14,43,7,-36,29,-14,-4,-24,-19,-14,-141
-29,14,43,7,-36,29,-9,-4,-24,-14,-14,-141
-29,14,43,7,-36,29,-9,-4,-19,-14,-19,-136
-24,14,39,4,-31,26,-9,-4,-14,-14,-19,-131
-24,4,29,9,-26,17,-9,-4,-9,-4,-14,-126
-24,-4,19,14,-21,7,-9,-4,-9,0,-14,-122
-29,9,39,9,-34,24,-14,-9,-14,0,-19,-126
-34,19,53,7,-43,36,-14,-14,-19,0,-19,-126
-34,19,53,7,-43,36,-14,-14,-19,0,-19,-126
-34,19,53,7,-43,36,-14,-19,-24,-4,-19,-131
-43,19,63,12,-53,41,-14,-14,-24,-4,-24,-131
-34,14,48,9,-41,31,-14,-9,-19,-4,-24,-126
-24,14,39,4,-31,26,-4,0,-4,4,-19,-126
-14,14,29,0,-21,21,4,9,4,9,-19,-126
-14,14,29,0,-21,21,4,9,9,9,-24,-131
-9,14,24,-2,-17,19,4,9,9,9,-24,-131
-4,9,14,-2,-9,12,14,29,14,19,-14,-117
-4,9,14,-2,-9,12,29,43,19,29,-4,-117
19,19,0,-19,9,9,29,53,29,39,4,-102
34,34,0,-34,17,17,34,73,48,58,14,-87
39,53,14,-46,12,34,34,78,58,68,24,-87
48,68,19,-58,14,43,43,87,73,78,34,-87
53,68,14,-61,19,41,53,102,78,82,39,-78
53,73,19,-63,17,46,68,107,82,87,39,-78
53,68,14,-61,19,41,73,112,92,97,53,-68
53,82,29,-68,12,56,82,126,102,107,63,-58
53,78,24,-65,14,51,53,117,102,107,68,-58
58,78,19,-68,19,48,29,107,107,107,78,-58
58,78,19,-68,19,48,0,87,87,97,68,-63
58,78,19,-68,19,48,-29,68,68,87,58,-68
63,73,9,-68,26,41,-39,53,63,87,58,-68
68,68,0,-68,34,34,-48,39,58,87,58,-68
82,68,-14,-75,48,26,-58,29,43,78,53,-73
97,68,-29,-82,63,19,-68,19,29,68,48,-78
87,53,-34,-70,61,9,-68,14,19,53,39,-78
78,39,-39,-58,58,0,-68,9,9,39,29,-78
73,39,-34,-56,53,2,-73,0,4,34,24,-82
63,29,-34,-46,48,-2,-68,0,4,29,19,-87
58,24,-34,-41,46,-4,-63,0,4,24,14,-92
48,24,-24,-36,36,0,-53,9,9,29,19,-92
43,9,-34,-26,39,-12,-39,9,9,34,19,-87
24,4,-19,-14,21,-7,-34,0,4,24,4,-92
19,4,-14,-12,17,-4,-39,-4,-4,19,0,-97
19,14,-4,-17,12,4,-39,-4,-4,19,0,-102
24,24,0,-24,12,12,-39,0,-4,19,-4,-107
0,14,14,-7,-7,14,-14,0,-4,9,-9,-117
-19,-4,14,12,-17,4,-4,0,-14,0,-19,-126
-48,-19,29,34,-39,4,0,-4,-24,-9,-34,-141
-63,-29,34,46,-48,2,-4,-14,-29,-24,-43,-141
-68,-34,34,51,-51,0,-9,-24,-29,-29,-53,-141
-68,-34,34,51,-51,0,-9,-24,-29,-29,-53,-141
-68,-43,24,56,-46,-9,-9,-19,-29,-29,-53,-146
-63,-43,19,53,-41,-12,-4,-14,-24,-29,-53,-136
-58,-34,24,46,-41,-4,0,-9,-19,-34,-53,-126
-58,-29,29,43,-43,0,0,-14,-24,-34,-53,-136
-58,-29,29,43,-43,0,0,-14,-24,-34,-53,-146
-63,-34,29,48,-46,-2,0,-14,-24,-29,-53,-146
-63,-34,29,48,-46,-2,0,-14,-19,-29,-48,-141
-63,-34,29,48,-46,-2,0,-19,-19,-29,-48,-141
-63,-34,29,48,-46,-2,0,-19,-19,-29,-48,-141
-68,-34,34,51,-51,0,0,-19,-19,-34,-48,-141
-68,-39,29,53,-48,-4,4,-19,-19,-34,-53,-136
-63,-48,14,56,-39,-17,4,-19,-19,-24,-48,-126
-63,-58,4,61,-34,-26,4,-19,-19,-19,-43,-117
-58,-53,4,56,-31,-24,4,-19,-19,-19,-43,-112
-53,-39,14,46,-34,-12,4,-19,-19,-19,-43,-112
-53,-34,19,43,-36,-7,4,-19,-19,-24,-43,-112
-53,-29,24,41,-39,-2,4,-19,-19,-29,-43,-112
-58,-34,24,46,-41,-4,4,-19,-24,-29,-43,-112
-58,-43,14,51,-36,-14,14,-19,-29,-29,-43,-107
-58,-43,14,51,-36,-14,4,-19,-29,-29,-43,-107
-58,-43,14,51,-36,-14,4,-19,-29,-29,-43,-107
-58,-43,14,51,-36,-14,9,-24,-34,-29,-43,-107
-58,-48,9,53,-34,-19,19,-14,-29,-29,-43,-117
-78,-53,24,65,-51,-14,68,29,-9,-34,-63,-136
-87,-48,39,68,-63,-4,107,117,73,0,-58,-146
-58,-14,43,36,-51,14,151,297,292,190,48,-92
14,14,0,-14,7,7,131,385,434,356,165,-24
53,43,-9,-48,31,17,107,380,483,409,209,14
53,68,14,-61,19,41,34,263,473,424,239,48
39,58,19,-48,9,39,-175,-126,239,307,214,48
53,73,19,-63,17,46,-419,-429,63,239,204,58
97,112,14,-104,41,63,-780,-761,-180,146,200,102
185,122,-63,-153,124,29,-1112,-976,-405,39,180,122
326,126,-200,-226,263,-36,-1317,-1000,-497,-4,156,122
351,151,-200,-251,275,-24,-1420,-1283,-790,-214,68,107
283,151,-131,-217,207,9,-1332,-1532,-1156,-580,-107,48
263,175,-87,-219,175,43,-1244,-1561,-1293,-746,-190,34
317,283,-34,-300,175,124,-1146,-1478,-1215,-678,-122,107
395,336,-58,-366,226,139,-1073,-1356,-1088,-556,-14,214
409,322,-87,-366,248,117,-990,-1224,-976,-497,34,258
414,346,-68,-380,241,139,-912,-1078,-814,-390,92,292
385,331,-53,-358,219,139,-761,-922,-663,-292,117,292
322,302,-19,-312,170,141,-624,-771,-531,-224,122,273
287,273,-14,-280,151,129,-492,-575,-370,-136,151,258
224,224,0,-224,112,112,-361,-395,-244,-78,131,190
122,146,24,-134,48,85,-234,-302,-190,-78,58,78
48,53,4,-51,21,29,-126,-204,-146,-73,9,-4
4,14,9,-9,-2,12,-68,-97,-92,-68,-14,-43
-24,-14,9,19,-17,-2,-19,-14,-43,-39,-24,-73
-48,-29,19,39,-34,-4,24,9,-9,-24,-34,-102
-58,-53,4,56,-31,-24,53,24,9,-9,-34,-102
-58,-43,14,51,-36,-14,63,48,14,-4,-34,-102
-58,-43,14,51,-36,-14,68,73,24,0,-34,-107
-58,-73,-14,65,-21,-43,82,78,29,4,-34,-112
-58,-92,-34,75,-12,-63,87,82,34,4,-34,-112
-63,-82,-19,73,-21,-51,92,92,43,4,-39,-117
-68,-82,-14,75,-26,-48,97,102,43,9,-39,-117
-68,-87,-19,78,-24,-53,107,117,53,9,-34,-117
-68,-92,-24,80,-21,-58,117,126,53,14,-34,-122
-68,-97,-29,82,-19,-63,126,136,58,14,-34,-122
-78,-107,-29,92,-24,-68,126,141,63,14,-34,-122
-82,-112,-29,97,-26,-70,131,151,68,19,-34,-122
-82,-112,-29,97,-26,-70,141,161,68,19,-34,-122
-82,-117,-34,100,-24,-75,146,170,82,24,-34,-122
-82,-122,-39,102,-21,-80,156,180,92,34,-29,-122
-78,-122,-43,100,-17,-82,161,190,97,39,-29,-126
-73,-122,-48,97,-12,-85,165,200,97,48,-29,-122
-78,-122,-43,100,-17,-82,180,209,112,48,-24,-117
-78,-122,-43,100,-17,-82,190,224,112,48,-24,-112
-78,-136,-58,107,-9,-97,200,234,122,53,-24,-112
-78,-151,-73,114,-2,-112,209,253,126,53,-19,-112
-82,-141,-58,112,-12,-100,229,263,136,53,-19,-112
-92,-141,-48,117,-21,-95,248,287,146,48,-19,-117
-102,-141,-39,122,-31,-90,268,302,161,63,-19,-117
-107,-141,-34,124,-36,-87,287,317,165,73,-19,-117
-112,-146,-34,129,-39,-90,302,336,180,73,-19,-117
-112,-146,-34,129,-39,-90,322,356,195,82,-19,-117
-107,-146,-39,126,-34,-92,341,375,209,97,-19,-117
-112,-146,-34,129,-39,-90,361,400,219,107,-19,-117
-112,-146,-34,129,-39,-90,375,414,229,107,-19,-117
-122,-141,-19,131,-51,-80,385,424,234,102,-14,-126
-131,-141,-9,136,-61,-75,400,434,239,102,-14,-126
-136,-136,0,136,-68,-68,414,444,248,107,-14,-131
-136,-107,29,122,-82,-39,434,453,258,107,-14,-126
-136,-87,48,112,-92,-19,448,458,263,107,-9,-122
-141,-107,34,124,-87,-36,458,463,268,112,-4,-117
-141,-122,19,131,-80,-51,463,468,268,112,-4,-112
-151,-102,48,126,-100,-26,463,458,268,107,-4,-107
-151,-97,53,124,-102,-21,463,448,268,107,0,-102
-146,-78,68,112,-107,-4,458,434,263,102,0,-102
-146,-63,82,104,-114,9,448,419,253,102,9,-87
-146,-34,112,90,-129,39,434,370,239,92,14,-87
-141,-19,122,80,-131,51,419,341,229,87,24,-78
-136,-4,131,70,-134,63,380,302,204,82,24,-73
-131,9,141,61,-136,75,351,268,185,73,34,-58
-126,9,136,58,-131,73,326,224,165,68,34,-43
-117,24,141,46,-129,82,283,175,146,58,34,-34
-107,48,156,29,-131,102,244,122,107,43,39,-29
-92,63,156,14,-124,109,204,73,82,39,43,-9
-78,63,141,7,-109,102,165,43,63,29,43,-4
-63,82,146,-9,-104,114,131,4,43,19,48,0
-53,73,126,-9,-90,100,107,-14,34,9,48,0
-43,63,107,-9,-75,85,73,-34,14,9,48,0
-29,48,78,-9,-53,63,58,-43,14,9,48,4
-14,43,58,-14,-36,51,43,-43,4,9,48,4
-4,43,48,-19,-26,46,29,-43,4,14,48,4
4,43,39,-24,-17,41,14,-43,4,14,48,9
14,29,14,-21,0,21,14,-39,0,9,43,0
19,9,-9,-14,14,0,9,-34,0,4,34,0
19,0,-19,-9,19,-9,4,-29,0,4,34,0
19,-4,-24,-7,21,-14,4,-29,0,4,34,-9
9,-9,-19,0,14,-14,0,-29,0,4,24,-14
4,-19,-24,7,14,-21,0,-19,0,4,24,-19
4,-29,-34,12,19,-31,-4,-19,0,4,24,-19
4,-39,-43,17,24,-41,-4,-9,4,4,24,-19
4,-19,-24,7,14,-21,-4,-9,4,4,19,-29
4,-4,-9,0,7,-7,-4,-9,4,9,19,-34
4,-14,-19,4,12,-17,-4,-4,9,14,19,-34
4,-39,-43,17,24,-41,-4,0,9,14,19,-34
4,-39,-43,17,24,-41,-4,0,4,14,14,-34
4,-34,-39,14,21,-36,-4,0,4,14,14,-34
9,-34,-43,12,26,-39,-4,0,9,14,14,-29
14,-39,-53,12,34,-46,-4,4,14,19,19,-19
14,-39,-53,12,34,-46,-4,9,14,24,19,-19
14,-43,-58,14,36,-51,-4,14,14,24,19,-19
0,-48,-48,24,24,-48,0,14,24,29,19,-19
-14,-48,-34,31,9,-41,0,14,24,29,19,-19
-4,-48,-43,26,19,-46,0,19,24,34,24,-14
4,-48,-53,21,29,-51,0,24,29,39,34,-14
14,-48,-63,17,39,-56,9,29,43,43,39,-14
24,-43,-68,9,46,-56,14,29,53,43,39,-19
14,-43,-58,14,36,-51,9,29,43,39,34,-24
4,-43,-48,19,26,-46,9,29,34,34,29,-24
4,-43,-48,19,26,-46,14,29,34,34,29,-19
4,-53,-58,24,31,-56,19,39,43,34,29,-19
0,-43,-43,21,21,-43,19,39,43,34,24,-19
0,-34,-34,17,17,-34,19,39,43,34,19,-19
4,-53,-58,24,31,-56,24,43,43,39,19,-14
4,-73,-78,34,41,-75,24,43,48,39,24,-9
4,-73,-78,34,41,-75,29,53,53,48,24,-9
4,-73,-78,34,41,-75,34,58,53,53,24,-9
4,-73,-78,34,41,-75,34,58,53,48,29,-9
4,-68,-73,31,39,-70,34,53,53,48,29,-9
4,-73,-78,34,41,-75,29,53,58,48,34,-4
4,-82,-87,39,46,-85,29,53,58,53,39,-4
4,-82,-87,39,46,-85,29,53,53,53,43,-4
0,-92,-92,46,46,-92,29,53,48,53,48,0
0,-82,-82,41,41,-82,29,53,48,53,43,0
4,-78,-82,36,43,-80,29,53,48,53,43,4
4,-78,-82,36,43,-80,29,53,48,58,48,9
4,-82,-87,39,46,-85,29,53,48,53,43,9
4,-92,-97,43,51,-95,29,58,53,48,39,9
4,-102,-107,48,56,-104,34,63,53,43,34,4
4,-107,-112,51,58,-109,34,63,53,43,34,4
4,-107,-112,51,58,-109,34,63,53,48,43,9
4,-117,-122,56,63,-119,39,58,53,53,43,9
4,-131,-136,63,70,-134,43,58,48,58,43,9
0,-117,-117,58,58,-117,34,53,48,53,39,4
0,-92,-92,46,46,-92,34,53,48,53,39,4
0,-92,-92,46,46,-92,34,53,43,39,29,4
0,-97,-97,48,48,-97,34,53,43,29,29,4
0,-112,-112,56,56,-112,34,48,39,39,34,4
0,-117,-117,58,58,-117,34,43,39,48,34,0
0,-102,-102,51,51,-102,34,43,39,43,34,-4
-9,-102,-92,56,41,-97,34,43,39,43,34,-4
0,-107,-107,53,53,-107,39,48,43,43,34,0
9,-107,-117,48,63,-112,39,53,43,43,34,4
9,-122,-131,56,70,-126,34,53,48,39,34,14
14,-126,-141,56,78,-134,34,48,48,34,29,24
9,-117,-126,53,68,-122,29,48,39,34,29,14
4,-107,-112,51,58,-109,29,48,29,24,24,0
4,-107,-112,51,58,-109,29,48,29,24,29,0
4,-122,-126,58,65,-124,29,48,29,29,34,0
4,-112,-117,53,61,-114,24,48,29,29,34,0
4,-112,-117,53,61,-114,24,48,29,24,34,0
4,-117,-122,56,63,-119,29,43,29,24,34,0
4,-117,-122,56,63,-119,29,39,29,24,34,0
0,-112,-112,56,56,-112,24,34,29,24,34,0
0,-112,-112,56,56,-112,24,34,29,24,34,0
0,-112,-112,56,56,-112,24,39,29,24,34,0
4,-112,-117,53,61,-114,24,43,29,24,34,0
4,-112,-117,53,61,-114,29,43,29,29,29,0
4,-112,-117,53,61,-114,29,43,29,29,29,0
4,-107,-112,51,58,-109,29,48,29,29,34,4
4,-102,-107,48,56,-104,24,48,24,29,34,4
4,-102,-107,48,56,-104,24,48,24,29,29,4
4,-102,-107,48,56,-104,29,53,29,29,24,4
-4,-102,-97,53,46,-100,29,48,29,29,24,4
-9,-102,-92,56,41,-97,24,43,24,24,24,4
-9,-102,-92,56,41,-97,19,39,19,19,19,4
-9,-102,-92,56,41,-97,19,34,14,14,14,4
-4,-97,-92,51,43,-95,19,34,14,14,9,4
4,-92,-97,43,51,-95,19,34,14,14,9,4
4,-92,-97,43,51,-95,19,34,19,19,14,4
4,-92,-97,43,51,-95,19,34,19,19,14,4
0,-87,-87,43,43,-87,14,34,9,19,9,0
-4,-87,-82,46,39,-85,14,34,0,19,9,0
-4,-87,-82,46,39,-85,14,34,9,19,14,0
-4,-87,-82,46,39,-85,14,29,14,14,19,-4
-9,-82,-73,46,31,-78,19,34,9,14,14,-4
4,-82,-87,39,46,-85,24,39,9,14,14,0
4,-82,-87,39,46,-85,29,39,14,19,19,0
4,-82,-87,39,46,-85,34,39,14,19,19,0
0,-82,-82,41,41,-82,34,39,19,14,9,-4
0,-82,-82,41,41,-82,34,39,19,9,4,-4
4,-87,-92,41,48,-90,34,43,19,9,9,9
4,-87,-92,41,48,-90,39,43,19,9,14,9
19,-87,-107,34,63,-97,39,48,24,14,19,14
24,-82,-107,29,65,-95,43,63,39,29,24,19
29,-82,-112,26,70,-97,58,78,48,43,39,24
39,-87,-126,24,82,-107,82,97,63,58,53,29
53,-68,-122,7,87,-95,78,112,68,63,58,39
63,-43,-107,-9,85,-75,78,117,73,68,58,39
68,-34,-102,-17,85,-68,82,122,87,78,73,48
73,-4,-78,-34,75,-41,92,136,102,87,82,58
68,-4,-73,-31,70,-39,92,136,107,92,78,58
68,-9,-78,-29,73,-43,97,136,117,97,78,58
78,-9,-87,-34,82,-48,87,136,117,97,78,58
87,-9,-97,-39,92,-53,78,136,117,97,78,58
87,-9,-97,-39,92,-53,48,122,107,87,78,58
87,-9,-97,-39,92,-53,19,107,97,78,78,58
87,-14,-102,-36,95,-58,0,82,78,73,73,58
87,-19,-107,-34,97,-63,-19,58,58,68,68,58
97,-24,-122,-36,109,-73,-29,48,48,58,63,58
107,-29,-136,-39,122,-82,-39,39,39,48,58,58
107,-29,-136,-39,122,-82,-43,29,29,48,58,58
107,-29,-136,-39,122,-82,-48,19,19,48,58,58
102,-34,-136,-34,119,-85,-48,14,9,39,48,53
92,-39,-131,-26,112,-85,-43,9,4,29,39,43
87,-43,-131,-21,109,-87,-43,9,0,19,34,39
82,-53,-136,-14,109,-95,-34,19,4,14,34,34
73,-53,-126,-9,100,-90,-24,29,9,19,39,34
63,-63,-126,0,95,-95,-14,29,9,19,39,34
43,-63,-107,9,75,-85,-14,19,4,9,24,24
39,-63,-102,12,70,-82,-19,14,-4,9,19,19
39,-58,-97,9,68,-78,-19,14,-4,9,19,14
34,-63,-97,14,65,-80,-19,19,-4,9,14,9
0,-82,-82,41,41,-82,0,19,-4,0,9,0
-19,-92,-73,56,26,-82,4,19,-14,-9,0,-9
-48,-97,-48,73,0,-73,9,19,-24,-19,-14,-24
-58,-107,-48,82,-4,-78,9,14,-29,-29,-19,-24
-58,-112,-53,85,-2,-82,9,4,-29,-29,-24,-19
-58,-112,-53,85,-2,-82,9,4,-29,-29,-24,-14
-58,-117,-58,87,0,-87,9,4,-29,-29,-24,-19
-58,-112,-53,85,-2,-82,9,0,-29,-29,-24,-19
-58,-102,-43,80,-7,-73,9,0,-29,-34,-24,-19
-58,-97,-39,78,-9,-68,9,-4,-34,-34,-24,-19
-58,-102,-43,80,-7,-73,14,-4,-34,-34,-24,-19
-63,-112,-48,87,-7,-80,19,-4,-34,-29,-24,-19
-63,-112,-48,87,-7,-80,19,-4,-29,-29,-19,-14
-63,-112,-48,87,-7,-80,19,-4,-29,-29,-19,-14
-63,-102,-39,82,-12,-70,19,0,-29,-29,-29,-14
-68,-87,-19,78,-24,-53,19,0,-29,-34,-39,-19
-68,-97,-29,82,-19,-63,24,0,-29,-29,-34,-19
-63,-107,-43,85,-9,-75,24,0,-29,-19,-24,-19
-63,-107,-43,85,-9,-75,24,0,-29,-19,-24,-19
-63,-117,-53,90,-4,-85,24,0,-29,-19,-24,-19
-63,-112,-48,87,-7,-80,24,0,-24,-19,-24,-24
-63,-102,-39,82,-12,-70,24,0,-19,-19,-24,-24
-63,-97,-34,80,-14,-65,24,0,-19,-24,-24,-24
-68,-97,-29,82,-19,-63,24,0,-19,-29,-24,-24
-63,-92,-29,78,-17,-61,34,0,-19,-29,-24,-19
-58,-82,-24,70,-17,-53,24,0,-19,-29,-24,-19
-58,-107,-48,82,-4,-78,29,9,-9,-14,-19,-9
-58,-131,-73,95,7,-102,43,24,0,0,-14,0
-68,-136,-68,102,0,-102,58,43,9,0,-14,-24
-87,-136,-48,112,-19,-92,107,102,58,24,-14,-39
-78,-117,-39,97,-19,-78,141,200,170,87,9,-19
-39,-73,-34,56,-2,-53,161,341,361,253,107,43
34,-39,-73,2,53,-56,112,380,463,385,214,112
73,-4,-78,-34,75,-41,43,297,453,405,248,151
73,19,-53,-46,63,-17,-68,117,390,395,273,190
63,19,-43,-41,53,-12,-312,-263,151,287,253,195
97,43,-53,-70,75,-4,-585,-546,-24,229,244,214
175,73,-102,-124,139,-14,-912,-819,-248,136,239,263
268,73,-195,-170,231,-61,-1200,-1005,-473,9,209,268
351,78,-273,-214,312,-97,-1337,-1073,-619,-97,156,248
317,102,-214,-209,265,-56,-1376,-1371,-932,-336,48,224
253,112,-141,-183,197,-14,-1278,-1542,-1205,-619,-92,180
273,151,-122,-212,197,14,-1185,-1493,-1244,-702,-117,200
336,248,-87,-292,212,80,-1088,-1395,-1137,-614,-24,292
395,287,-107,-341,251,90,-1005,-1254,-995,-478,82,390
395,273,-122,-334,258,75,-902,-1107,-878,-409,122,409
390,297,-92,-344,241,102,-814,-961,-717,-302,165,419
356,278,-78,-317,217,100,-663,-795,-566,-209,185,400
292,234,-58,-263,175,87,-527,-634,-434,-156,170,351
239,180,-58,-209,148,61,-400,-458,-297,-92,161,307
161,112,-48,-136,104,31,-273,-302,-200,-48,122,239
82,29,-53,-56,68,-12,-156,-214,-151,-48,58,146
34,-63,-97,14,65,-80,-63,-117,-107,-43,19,73
0,-92,-92,46,46,-92,-14,-29,-58,-39,0,43
-24,-112,-87,68,31,-100,29,29,-19,-19,-4,24
-43,-126,-82,85,19,-104,63,48,4,-14,-14,-4
-53,-151,-97,102,21,-124,78,58,19,0,-14,-4
-58,-141,-82,100,12,-112,82,73,24,0,-14,-4
-58,-141,-82,100,12,-112,87,92,34,0,-14,-9
-58,-151,-92,104,17,-122,102,97,39,4,-14,-19
-53,-146,-92,100,19,-119,107,102,43,4,-9,-19
-53,-141,-87,97,17,-114,112,112,53,4,-9,-19
-58,-151,-92,104,17,-122,117,122,53,14,-9,-19
-58,-156,-97,107,19,-126,126,131,63,19,-9,-19
-58,-161,-102,109,21,-131,136,136,58,24,-14,-24
-58,-161,-102,109,21,-131,146,146,58,24,-14,-24
-73,-170,-97,122,12,-134,146,151,63,24,-14,-24
-82,-180,-97,131,7,-139,151,161,68,29,-14,-24
-82,-180,-97,131,7,-139,161,170,68,29,-19,-24
-82,-180,-97,131,7,-139,165,175,78,29,-24,-24
-82,-175,-92,129,4,-134,175,185,82,34,-19,-24
-82,-170,-87,126,2,-129,180,200,87,34,-19,-34
-82,-170,-87,126,2,-129,185,209,92,39,-19,-39
-87,-170,-82,129,-2,-126,200,219,112,39,-19,-43
-87,-165,-78,126,-4,-122,209,229,112,39,-24,-48
-87,-161,-73,124,-7,-117,219,234,122,43,-24,-53
-87,-161,-73,124,-7,-117,229,253,126,43,-19,-53
-92,-161,-68,126,-12,-114,248,263,136,53,-19,-53
-102,-185,-82,143,-9,-134,273,287,151,58,-19,-48
-107,-200,-92,153,-7,-146,292,302,165,63,-19,-39
-107,-200,-92,153,-7,-146,307,317,165,63,-19,-39
-112,-200,-87,156,-12,-143,322,336,175,63,-19,-39
-112,-180,-68,146,-21,-124,336,356,185,73,-19,-39
-112,-165,-53,139,-29,-109,351,370,200,82,-19,-39
-117,-180,-63,148,-26,-122,370,390,209,87,-14,-34
-112,-190,-78,151,-17,-134,390,405,219,87,-9,-29
-122,-170,-48,146,-36,-109,405,414,224,82,-4,-39
-131,-161,-29,146,-51,-95,419,424,229,82,-4,-39
-136,-156,-19,146,-58,-87,434,434,239,87,-4,-34
-136,-141,-4,139,-65,-73,448,444,248,87,-9,-24
-136,-136,0,136,-68,-68,458,448,248,87,-9,-34
-141,-136,4,139,-73,-65,468,448,248,92,-4,-39
-146,-131,14,139,-80,-58,468,444,244,92,-4,-39
-161,-112,48,136,-104,-31,463,429,239,87,-4,-39
-161,-97,63,129,-112,-17,463,419,239,87,0,-34
-156,-68,87,112,-122,9,458,400,234,82,0,-34
-156,-68,87,112,-122,9,448,385,224,82,9,-14
-161,-68,92,114,-126,12,429,341,209,73,9,-9
-156,-68,87,112,-122,9,409,312,204,68,14,0
-146,-43,102,95,-124,29,370,273,185,63,14,4
-141,-19,122,80,-131,51,341,234,165,48,19,19
-131,-9,122,70,-126,56,317,185,146,39,14,34
-122,14,136,53,-129,75,273,136,126,29,14,43
-117,24,141,46,-129,82,234,92,92,19,24,48
-102,29,131,36,-117,80,195,53,73,24,39,68
-87,34,122,26,-104,78,161,29,53,19,43,73
-68,53,122,7,-95,87,131,-4,34,14,48,78
-53,43,97,4,-75,70,107,-24,24,9,48,82
-43,29,73,7,-58,51,78,-39,4,9,48,82
-29,9,39,9,-34,24,68,-43,4,9,48,82
-14,4,19,4,-17,12,53,-43,-4,0,48,82
-9,0,9,4,-9,4,39,-43,-4,-4,48,78
-4,-4,0,4,-2,-2,24,-39,0,4,48,82
4,-19,-24,7,14,-21,24,-29,4,14,48,78
9,-39,-48,14,29,-43,19,-24,9,14,43,78
9,-43,-53,17,31,-48,14,-19,9,14,43,78
4,-43,-48,19,26,-46,14,-19,9,14,39,63
-4,-48,-43,26,19,-46,9,-19,9,14,24,53
-4,-58,-53,31,24,-56,9,-9,9,14,24,48
-4,-68,-63,36,29,-65,9,-9,9,14,24,48
-4,-78,-73,41,34,-75,19,0,14,14,29,53
-4,-78,-73,41,34,-75,24,4,14,14,29,53
-4,-78,-73,41,34,-75,24,9,14,19,29,53
-4,-73,-68,39,31,-70,24,14,19,24,29,53
0,-87,-87,43,43,-87,24,19,19,24,29,53
4,-87,-92,41,48,-90,24,19,14,24,24,48
4,-82,-87,39,46,-85,24,19,14,24,24,43
4,-82,-87,39,46,-85,24,19,19,24,24,43
0,-87,-87,43,43,-87,24,24,24,29,29,48
-4,-87,-82,46,39,-85,24,29,24,34,29,48
-9,-92,-82,51,36,-87,19,29,24,34,29,48
-14,-92,-78,53,31,-85,19,24,34,39,29,48
-14,-87,-73,51,29,-80,19,24,34,39,29,48
-14,-87,-73,51,29,-80,19,29,34,39,29,53
-9,-87,-78,48,34,-82,19,34,39,39,34,53
-4,-92,-87,48,41,-90,24,39,43,43,39,53
-4,-92,-87,48,41,-90,29,39,43,43,39,48
-4,-92,-87,48,41,-90,29,39,43,43,39,43
-4,-92,-87,48,41,-90,29,39,43,48,39,43
-4,-92,-87,48,41,-90,34,39,43,53,39,48
-4,-102,-97,53,46,-100,34,48,53,53,39,48
-9,-102,-92,56,41,-97,29,48,53,53,39,48
-9,-97,-87,53,39,-92,24,48,53,48,34,48
-4,-92,-87,48,41,-90,24,53,53,48,29,48
-4,-92,-87,48,41,-90,24,53,58,48,34,48
-4,-92,-87,48,41,-90,24,58,58,53,34,48
-4,-92,-87,48,41,-90,24,58,53,53,39,48
-4,-92,-87,48,41,-90,24,58,53,48,43,48
-4,-87,-82,46,39,-85,24,53,53,48,39,48
-4,-87,-82,46,39,-85,24,53,58,48,39,48
-4,-92,-87,48,41,-90,29,53,58,53,39,43
-4,-92,-87,48,41,-90,29,53,58,53,39,43
-9,-102,-92,56,41,-97,29,53,58,53,39,48
-9,-92,-82,51,36,-87,29,53,58,53,34,48
-4,-102,-97,53,46,-100,34,53,58,53,34,53
-4,-117,-112,61,53,-114,39,53,58,63,43,58
-4,-122,-117,63,56,-119,39,53,58,63,43,58
-4,-122,-117,63,56,-119,39,53,58,58,39,58
-4,-107,-102,56,48,-104,39,53,53,48,29,48
-4,-97,-92,51,43,-95,34,53,53,43,24,43
-4,-97,-92,51,43,-95,34,53,58,48,34,48
-4,-92,-87,48,41,-90,34,48,63,48,34,48
-4,-97,-92,51,43,-95,39,53,58,53,34,48
-4,-102,-97,53,46,-100,34,53,58,53,29,43
0,-92,-92,46,46,-92,34,53,58,53,29,43
0,-92,-92,46,46,-92,34,53,53,48,19,43
-4,-97,-92,51,43,-95,29,53,53,48,19,43
-9,-107,-97,58,43,-102,24,48,48,48,24,43
-9,-117,-107,63,48,-112,24,43,48,48,24,43
-9,-112,-102,61,46,-107,24,43,48,43,24,43
-14,-112,-97,63,41,-104,24,43,48,43,29,43
-9,-117,-107,63,48,-112,29,43,53,43,34,43
-9,-117,-107,63,48,-112,29,43,53,43,34,43
-9,-117,-107,63,48,-112,24,43,48,43,34,43
-4,-97,-92,51,43,-95,29,39,39,43,29,43
-4,-87,-82,46,39,-85,29,39,39,43,29,43
-4,-102,-97,53,46,-100,29,39,39,34,24,39
-4,-117,-112,61,53,-114,29,39,39,34,24,39
-4,-117,-112,61,53,-114,29,39,39,43,24,39
-4,-92,-87,48,41,-90,24,39,39,48,24,39
-4,-92,-87,48,41,-90,24,39,39,43,24,39
-4,-97,-92,51,43,-95,29,39,39,43,24,39
-4,-102,-97,53,46,-100,29,39,39,43,24,39
-9,-102,-92,56,41,-97,24,34,39,43,24,39
-9,-102,-92,56,41,-97,24,34,39,39,24,39
-9,-102,-92,56,41,-97,24,34,39,34,24,39
-4,-102,-97,53,46,-100,24,34,39,34,24,39
-4,-102,-97,53,46,-100,29,34,39,39,19,39
-4,-102,-97,53,46,-100,29,34,39,39,19,39
-4,-102,-97,53,46,-100,29,34,39,39,24,43
-4,-102,-97,53,46,-100,19,29,34,39,24,43
-4,-102,-97,53,46,-100,14,29,34,39,24,43
-4,-102,-97,53,46,-100,19,34,39,43,24,43
-9,-102,-92,56,41,-97,19,34,39,48,24,43
-9,-102,-92,56,41,-97,14,34,34,43,24,43
-9,-102,-92,56,41,-97,14,34,34,43,24,43
-9,-102,-92,56,41,-97,24,34,39,43,24,43
-9,-102,-92,56,41,-97,29,34,43,43,19,43
-4,-107,-102,56,48,-104,29,34,43,39,19,43
-4,-112,-107,58,51,-109,29,34,48,39,24,43
-4,-112,-107,58,51,-109,29,34,43,39,24,43
-4,-107,-102,56,48,-104,24,34,39,39,19,39
-4,-97,-92,51,43,-95,24,34,39,39,19,39
-4,-87,-82,46,39,-85,24,34,39,39,19,39
-4,-87,-82,46,39,-85,24,29,39,34,19,34
-14,-87,-73,51,29,-80,24,29,39,34,14,34
-4,-92,-87,48,41,-90,24,29,39,34,14,39
-4,-92,-87,48,41,-90,24,29,43,39,19,39
0,-92,-92,46,46,-92,24,29,43,39,19,39
0,-92,-92,46,46,-92,24,29,48,39,14,34
0,-92,-92,46,46,-92,24,34,48,43,14,29
4,-97,-102,46,53,-100,24,43,48,48,19,39
4,-92,-97,43,51,-95,29,43,48,48,24,39
14,-87,-102,36,58,-95,29,43,48,48,24,39
19,-73,-92,26,56,-82,43,63,63,63,29,43
29,-48,-78,9,53,-63,53,78,73,73,39,48
48,-29,-78,-9,63,-53,63,87,87,82,48,58
68,-19,-87,-24,78,-53,68,102,97,92,58,78
73,-14,-87,-29,80,-51,78,112,102,97,58,78
82,-4,-87,-39,85,-46,87,126,117,112,73,87
73,0,-73,-36,73,-36,92,131,131,117,78,87
68,4,-63,-36,65,-29,102,136,146,122,87,87
68,0,-68,-34,68,-34,97,131,146,122,87,87
68,0,-68,-34,68,-34,97,126,146,126,87,87
78,0,-78,-39,78,-39,73,126,146,136,97,92
87,0,-87,-43,87,-43,48,126,146,146,107,97
87,0,-87,-43,87,-43,19,107,131,131,97,97
87,0,-87,-43,87,-43,-9,87,117,117,87,97
87,-4,-92,-41,90,-48,-19,73,107,107,82,92
87,-9,-97,-39,92,-53,-29,58,97,97,78,87
97,-14,-112,-41,104,-63,-34,48,87,97,78,87
107,-19,-126,-43,117,-73,-39,39,78,97,78,87
107,-24,-131,-41,119,-78,-43,29,63,87,68,82
107,-29,-136,-39,122,-82,-48,19,48,78,58,78
97,-34,-131,-31,114,-82,-48,19,48,78,53,78
87,-53,-141,-17,114,-97,-39,24,48,73,48,73
82,-73,-156,-4,119,-114,-34,29,53,68,43,73
78,-92,-170,7,124,-131,-24,39,58,68,48,73
68,-87,-156,9,112,-122,-14,39,53,68,48,73
43,-73,-117,14,80,-95,-14,29,43,53,34,63
39,-73,-112,17,75,-92,-14,24,34,48,29,58
39,-63,-102,12,70,-82,-9,24,34,48,29,53
34,-63,-97,14,65,-80,-9,29,39,48,24,48
0,-82,-82,41,41,-82,14,29,43,39,19,39
-19,-92,-73,56,26,-82,24,24,34,24,9,29
-48,-97,-48,73,0,-73,29,14,24,9,-4,14
-58,-107,-48,82,-4,-78,19,4,14,0,-9,14
-58,-112,-53,85,-2,-82,9,-4,9,0,-14,14
-58,-112,-53,85,-2,-82,19,0,9,4,-14,14
-58,-122,-63,90,2,-92,29,9,9,9,-14,9
-58,-122,-63,90,2,-92,29,9,9,9,-14,9
-58,-112,-53,85,-2,-82,29,9,9,4,-14,9
-58,-107,-48,82,-4,-78,24,4,4,0,-14,4
-58,-107,-48,82,-4,-78,19,4,4,-4,-14,0
-63,-112,-48,87,-7,-80,19,4,4,0,-14,0
-63,-112,-48,87,-7,-80,19,4,9,0,-9,4
-53,-112,-58,82,2,-85,19,4,9,4,-9,4
-43,-112,-68,78,12,-90,19,9,9,9,-9,4
-58,-117,-58,87,0,-87,19,9,9,4,-9,0
-68,-126,-58,97,-4,-92,24,9,9,4,-14,0
-63,-112,-48,87,-7,-80,24,4,4,9,-19,0
-63,-97,-34,80,-14,-65,24,0,0,9,-24,0
-63,-107,-43,85,-9,-75,24,0,0,9,-24,4
-63,-107,-43,85,-9,-75,24,0,0,9,-24,4
-63,-107,-43,85,-9,-75,29,4,4,4,-24,4
-63,-107,-43,85,-9,-75,34,9,9,0,-24,4
-68,-112,-43,90,-12,-78,39,9,9,0,-24,4
-68,-122,-53,95,-7,-87,53,9,9,0,-24,9
-68,-122,-53,95,-7,-87,43,9,9,-4,-24,4
-68,-122,-53,95,-7,-87,43,9,9,-9,-24,0
-68,-102,-34,85,-17,-68,48,14,9,-9,-24,0
-68,-87,-19,78,-24,-53,58,34,19,-9,-24,-9
-78,-102,-24,90,-26,-63,107,92,68,19,-14,-4
-78,-107,-29,92,-24,-68,146,195,180,87,19,9
-48,-82,-34,65,-7,-58,170,341,366,253,107,63
24,-63,-87,19,56,-75,131,395,473,395,204,131
63,-34,-97,-14,80,-65,63,322,463,419,239,165
63,-9,-73,-26,68,-41,-53,136,395,405,258,195
58,-4,-63,-26,61,-34,-292,-244,161,297,229,195
82,24,-58,-53,70,-17,-566,-536,-14,239,214,204
146,53,-92,-100,119,-19,-893,-819,-239,146,209,244
253,53,-200,-153,226,-73,-1190,-985,-444,39,190,258
351,53,-297,-202,324,-122,-1327,-1034,-561,-48,146,248
331,73,-258,-202,295,-92,-1361,-1342,-878,-302,39,224
283,78,-204,-180,244,-63,-1268,-1522,-1166,-600,-102,180
283,107,-175,-195,229,-34,-1176,-1483,-1224,-697,-151,180
326,200,-126,-263,226,36,-1078,-1390,-1132,-629,-82,244
395,239,-156,-317,275,41,-1005,-1259,-990,-507,24,341
405,234,-170,-319,287,31,-912,-1127,-878,-448,63,370
405,268,-136,-336,270,65,-824,-980,-717,-341,112,390
375,248,-126,-312,251,61,-668,-805,-566,-244,136,380
312,214,-97,-263,204,58,-527,-634,-434,-175,141,351
253,170,-82,-212,168,43,-400,-468,-297,-92,151,336
165,107,-58,-136,112,24,-273,-317,-195,-39,112,268
82,29,-53,-56,68,-12,-156,-224,-136,-39,53,165
29,-63,-92,17,61,-78,-58,-126,-87,-34,19,92
-4,-82,-78,43,36,-80,-4,-39,-39,-29,4,68
-24,-92,-68,58,21,-80,39,24,4,0,4,53
-43,-107,-63,75,9,-85,73,48,29,9,-4,24
-48,-131,-82,90,17,-107,92,63,39,19,-4,24
-58,-131,-73,95,7,-102,102,87,43,19,-4,24
-68,-141,-73,104,2,-107,107,112,53,19,-4,19
-68,-151,-82,109,7,-117,122,117,58,24,-9,9
-68,-151,-82,109,7,-117,126,122,63,24,-14,4
-73,-151,-78,112,2,-114,131,131,73,19,-19,0
-78,-161,-82,119,2,-122,136,141,73,19,-19,0
-78,-165,-87,122,4,-126,141,146,82,19,-19,0
-78,-170,-92,124,7,-131,146,146,82,24,-24,-4
-73,-165,-92,119,9,-129,156,156,87,24,-24,-4
-78,-165,-87,122,4,-126,156,161,92,24,-24,-4
-82,-170,-87,126,2,-129,161,170,97,34,-24,-4
-82,-170,-87,126,2,-129,170,180,97,39,-24,-4
-87,-170,-82,129,-2,-126,175,190,107,39,-24,-4
-92,-170,-78,131,-7,-124,185,200,112,43,-19,-4
-92,-170,-78,131,-7,-124,190,209,117,43,-19,-9
-92,-170,-78,131,-7,-124,195,219,117,48,-19,-4
-92,-170,-78,131,-7,-124,214,229,131,48,-19,-4
-87,-170,-82,129,-2,-126,229,244,131,48,-24,-4
-87,-170,-82,129,-2,-126,239,253,136,48,-24,-14
-87,-170,-82,129,-2,-126,248,273,136,43,-19,-24
-92,-170,-78,131,-7,-124,268,283,146,53,-19,-24
-102,-180,-78,141,-12,-129,287,307,156,58,-19,-29
-107,-185,-78,146,-14,-131,302,322,170,68,-14,-24
-107,-190,-82,148,-12,-136,317,336,175,73,-9,-19
-112,-190,-78,151,-17,-134,331,356,185,73,-4,-19
-112,-185,-73,148,-19,-129,351,375,195,82,0,-19
-117,-175,-58,146,-29,-117,370,390,209,92,0,-19
-131,-165,-34,148,-48,-100,390,409,219,97,0,-19
-131,-170,-39,151,-46,-104,409,424,229,97,-4,-14
-141,-170,-29,156,-56,-100,424,434,234,92,-4,-19
-146,-170,-24,158,-61,-97,444,448,239,92,-4,-19
-146,-165,-19,156,-63,-92,463,463,248,97,-4,-24
-146,-156,-9,151,-68,-82,478,473,258,102,-4,-19
-146,-156,-9,151,-68,-82,488,478,263,107,0,-14
-151,-156,-4,153,-73,-80,492,478,268,112,4,-9
-151,-151,0,151,-75,-75,492,478,268,112,4,-4
-165,-112,53,139,-109,-29,492,463,263,102,0,-4
-170,-87,82,129,-126,-2,492,448,258,97,0,-4
-165,-78,87,122,-126,4,488,429,253,92,0,-4
-165,-73,92,119,-129,9,478,409,244,92,9,9
-165,-58,107,112,-136,24,458,361,234,82,14,9
-161,-58,102,109,-131,21,439,331,229,78,24,19
-151,-34,117,92,-134,41,395,292,204,78,24,24
-141,-9,131,75,-136,61,361,258,185,73,34,39
-131,0,131,65,-131,65,336,214,165,68,34,53
-117,24,141,46,-129,82,292,165,146,58,34,63
-112,34,146,39,-129,90,253,117,112,48,39,68
-102,34,136,34,-119,85,214,73,92,48,43,87
-87,34,122,26,-104,78,180,48,68,29,39,92
-73,53,126,9,-100,90,151,14,43,9,39,97
-63,43,107,9,-85,75,126,-4,34,0,39,97
-53,34,87,9,-70,61,92,-24,14,0,39,97
-39,19,58,9,-48,39,78,-34,14,0,39,102
-24,14,39,4,-31,26,63,-34,4,0,39,102
-19,9,29,4,-24,19,48,-34,4,4,34,97
-14,4,19,4,-17,12,34,-34,4,4,29,97
-4,-9,-4,7,0,-7,34,-24,4,4,29,87
0,-29,-29,14,14,-29,29,-14,9,4,24,87
4,-19,-24,7,14,-21,24,-9,9,4,24,87
9,-4,-14,-2,12,-9,24,-9,9,4,24,78
4,-24,-29,9,17,-26,19,-9,9,4,14,73
4,-48,-53,21,29,-51,19,0,9,4,14,68
4,-58,-63,26,34,-61,19,-4,9,4,14,63
4,-68,-73,31,39,-70,24,0,14,4,14,58
0,-68,-68,34,34,-68,24,4,9,0,9,53
-4,-73,-68,39,31,-70,24,9,4,0,9,53
-4,-73,-68,39,31,-70,24,14,9,4,9,53
-4,-87,-82,46,39,-85,24,19,9,4,9,53
-4,-82,-78,43,36,-80,24,19,4,4,4,48
-4,-73,-68,39,31,-70,24,19,4,4,4,43
-4,-73,-68,39,31,-70,24,24,9,4,4,48
-4,-78,-73,41,34,-75,24,34,14,9,9,58
-4,-78,-73,41,34,-75,24,39,14,9,9,58
-4,-82,-78,43,36,-80,24,43,14,4,9,58
-4,-78,-73,41,34,-75,24,39,19,4,4,53
-4,-68,-63,36,29,-65,19,34,14,0,0,48
0,-68,-68,34,34,-68,19,39,14,0,0,53
4,-68,-73,31,39,-70,19,43,19,0,4,53
4,-78,-82,36,43,-80,29,48,24,14,9,58
4,-82,-87,39,46,-85,34,48,24,24,9,58
4,-82,-87,39,46,-85,29,48,24,24,9,53
4,-82,-87,39,46,-85,29,48,24,24,9,53
4,-82,-87,39,46,-85,34,48,24,24,9,53
4,-92,-97,43,51,-95,39,58,34,24,9,48
0,-92,-92,46,46,-92,39,58,34,19,9,43
0,-92,-92,46,46,-92,39,58,34,14,9,39
4,-92,-97,43,51,-95,43,63,39,19,0,39
4,-92,-97,43,51,-95,43,63,48,19,-4,39
4,-97,-102,46,53,-100,43,68,48,24,4,43
4,-102,-107,48,56,-104,43,68,43,24,14,48
4,-102,-107,48,56,-104,43,68,39,19,14,48
4,-97,-102,46,53,-100,43,63,34,19,9,48
4,-92,-97,43,51,-95,39,63,39,19,9,48
4,-92,-97,43,51,-95,39,63,39,24,9,43
4,-92,-97,43,51,-95,39,63,39,24,9,39
0,-102,-102,51,51,-102,39,63,39,24,9,39
0,-97,-97,48,48,-97,39,68,43,24,4,39
4,-97,-102,46,53,-100,39,73,48,24,4,43
4,-97,-102,46,53,-100,39,73,48,34,14,43
4,-102,-107,48,56,-104,39,73,48,34,14,39
0,-102,-102,51,51,-102,39,68,48,29,4,39
-4,-102,-97,53,46,-100,43,63,43,24,-4,34
-4,-107,-102,56,48,-104,43,63,39,14,-4,34
-4,-107,-102,56,48,-104,43,63,34,9,4,39
-4,-107,-102,56,48,-104,43,58,34,9,4,39
-4,-112,-107,58,51,-109,43,58,29,9,4,39
-4,-112,-107,58,51,-109,34,53,29,9,0,34
0,-102,-102,51,51,-102,34,53,29,14,0,34
-4,-102,-97,53,46,-100,34,53,24,9,-9,34
-9,-107,-97,58,43,-102,34,53,24,9,-9,34
-9,-117,-107,63,48,-112,34,48,19,9,-4,34
-9,-117,-107,63,48,-112,34,43,19,9,-4,29
-9,-97,-87,53,39,-92,34,43,19,0,-9,24
-19,-92,-73,56,26,-82,34,43,19,-4,-14,24
-14,-97,-82,56,34,-90,39,48,24,-4,-14,29
-9,-97,-87,53,39,-92,39,53,24,-4,-14,34
-9,-102,-92,56,41,-97,34,53,19,0,-9,34
-4,-97,-92,51,43,-95,34,48,9,4,-9,34
-4,-97,-92,51,43,-95,29,43,9,4,-9,29
-4,-97,-92,51,43,-95,29,39,9,-4,-14,19
-9,-102,-92,56,41,-97,34,39,14,-4,-14,19
-14,-122,-107,68,46,-114,39,39,19,0,-14,19
-14,-112,-97,63,41,-104,34,39,19,0,-14,19
-14,-112,-97,63,41,-104,34,39,19,-4,-14,19
-14,-117,-102,65,43,-109,39,39,14,-4,-14,19
-14,-117,-102,65,43,-109,39,39,9,-4,-14,19
-19,-112,-92,65,36,-102,34,34,9,-4,-14,19
-19,-112,-92,65,36,-102,34,34,9,-4,-14,19
-14,-112,-97,63,41,-104,29,39,9,-4,-9,19
-4,-112,-107,58,51,-109,24,43,9,-4,-4,19
-4,-112,-107,58,51,-109,24,43,9,0,-9,19
-4,-112,-107,58,51,-109,19,43,9,0,-9,19
-4,-102,-97,53,46,-100,19,39,9,-9,-9,14
-4,-92,-87,48,41,-90,14,29,4,-19,-14,4
-4,-112,-107,58,51,-109,14,29,4,-9,-14,19
-4,-131,-126,68,61,-129,19,34,9,0,-14,34
-9,-112,-102,61,46,-107,19,34,9,0,-14,24
-9,-92,-82,51,36,-87,14,34,4,-4,-14,14
-9,-102,-92,56,41,-97,19,34,4,-4,-14,14
-9,-112,-102,61,46,-107,29,34,4,-4,-14,14
-9,-112,-102,61,46,-107,29,34,4,-4,-19,14
-4,-112,-107,58,51,-109,29,34,4,-4,-19,14
-4,-112,-107,58,51,-109,29,34,9,0,-14,19
-4,-112,-107,58,51,-109,29,34,9,0,-14,24
-4,-117,-112,61,53,-114,19,34,9,0,-19,19
-4,-126,-122,65,58,-124,14,34,9,0,-19,19
-4,-117,-112,61,53,-114,14,34,9,0,-19,19
-4,-107,-102,56,48,-104,14,29,4,-4,-19,14
-14,-102,-87,58,36,-95,19,29,0,-4,-24,14
-4,-102,-97,53,46,-100,24,29,0,-4,-24,19
-4,-102,-97,53,46,-100,24,34,4,0,-19,19
-4,-102,-97,53,46,-100,24,39,4,0,-19,19
-9,-102,-92,56,41,-97,24,39,9,0,-24,9
-9,-102,-92,56,41,-97,24,39,9,0,-24,4
0,-107,-107,53,53,-107,24,43,14,4,-19,19
4,-107,-112,51,58,-109,29,43,19,9,-14,19
19,-107,-126,43,73,-117,39,53,24,9,-4,24
24,-102,-126,39,75,-114,53,73,39,19,4,29
29,-82,-112,26,70,-97,53,78,43,29,9,29
39,-68,-107,14,73,-87,63,87,53,39,14,29
53,-68,-122,7,87,-95,68,107,73,48,24,48
63,-63,-126,0,95,-95,78,117,92,58,29,58
68,-53,-122,-7,95,-87,82,122,102,68,43,63
73,-24,-97,-24,85,-61,92,136,112,78,53,68
68,-19,-87,-24,78,-53,92,136,112,82,48,68
68,-19,-87,-24,78,-53,97,136,117,87,48,68
68,-19,-87,-24,78,-53,82,136,117,87,53,68
68,-19,-87,-24,78,-53,68,136,117,87,58,68
73,-29,-102,-21,87,-65,39,122,112,87,58,73
78,-39,-117,-19,97,-78,9,107,107,87,58,78
82,-39,-122,-21,102,-80,-4,87,92,78,53,78
87,-39,-126,-24,107,-82,-19,68,78,68,48,78
92,-39,-131,-26,112,-85,-29,58,63,63,48,78
97,-39,-136,-29,117,-87,-39,48,48,58,48,78
97,-39,-136,-29,117,-87,-43,39,39,48,43,73
97,-39,-136,-29,117,-87,-48,29,29,39,39,68
87,-53,-141,-17,114,-97,-48,29,24,39,34,68
78,-68,-146,-4,112,-107,-39,34,24,34,29,63
73,-87,-161,7,117,-124,-34,39,24,34,24,58
68,-92,-161,12,114,-126,-24,48,29,39,29,53
63,-102,-165,19,114,-134,-9,48,29,39,29,53
43,-102,-146,29,95,-124,-4,39,24,24,14,43
39,-102,-141,31,90,-122,-9,29,14,19,9,39
39,-92,-131,26,85,-112,-9,24,14,19,9,34
43,-92,-136,24,90,-114,-14,29,19,19,4,29
19,-112,-131,46,75,-122,4,29,24,9,0,19
0,-117,-117,58,58,-117,14,29,14,0,-9,9
-29,-117,-87,73,29,-102,19,24,4,-9,-24,-4
-39,-126,-87,82,24,-107,19,14,0,-19,-29,-4
-39,-131,-92,85,26,-112,19,4,0,-19,-34,-4
-39,-131,-92,85,26,-112,24,9,0,-19,-34,-4
-39,-141,-102,90,31,-122,29,19,0,-19,-34,-9
-48,-151,-102,100,26,-126,29,19,-4,-19,-34,-14
-58,-151,-92,104,17,-122,29,19,-9,-24,-34,-19
-58,-136,-78,97,9,-107,29,9,-14,-24,-34,-19
-58,-126,-68,92,4,-97,29,4,-14,-24,-34,-19
-63,-131,-68,97,2,-100,29,4,-14,-19,-39,-19
-63,-131,-68,97,2,-100,29,4,-9,-19,-39,-14
-63,-126,-63,95,0,-95,24,4,-9,-19,-39,-14
-63,-122,-58,92,-2,-90,19,9,-9,-19,-39,-14
-63,-117,-53,90,-4,-85,19,4,-9,-24,-39,-19
-58,-117,-58,87,0,-87,24,0,-9,-24,-43,-19
-53,-107,-53,80,0,-80,24,0,-9,-19,-43,-19
-53,-97,-43,75,-4,-70,24,0,-9,-19,-43,-19
-58,-122,-63,90,2,-92,24,4,-9,-19,-39,-19
-63,-136,-73,100,4,-104,24,9,-9,-19,-34,-24
-63,-131,-68,97,2,-100,24,9,-9,-19,-34,-24
-63,-126,-63,95,0,-95,24,9,-9,-19,-34,-24
-68,-122,-53,95,-7,-87,24,9,-9,-19,-34,-24
-68,-122,-53,95,-7,-87,34,9,-9,-19,-34,-19
-63,-117,-53,90,-4,-85,24,9,-9,-19,-34,-19
-58,-112,-53,85,-2,-82,24,9,-9,-19,-34,-19
-58,-112,-53,85,-2,-82,24,4,-14,-19,-34,-19
-58,-117,-58,87,0,-87,29,14,-9,-19,-34,-29
-82,-126,-43,104,-19,-85,78,48,4,-24,-53,-39
-97,-126,-29,112,-34,-78,117,126,82,9,-48,-39
-68,-92,-24,80,-21,-58,165,312,312,195,58,14
4,-63,-68,29,36,-65,151,405,463,356,175,82
58,-24,-82,-17,70,-53,126,400,507,409,219,126
73,9,-63,-41,68,-26,53,283,492,424,248,165
48,0,-48,-24,48,-24,-156,-97,258,317,224,165
53,14,-39,-34,46,-12,-400,-390,82,258,214,175
97,43,-53,-70,75,-4,-761,-717,-151,175,219,224
185,43,-141,-114,163,-48,-1093,-927,-366,78,209,248
322,58,-263,-190,292,-102,-1298,-946,-463,29,185,239
341,92,-248,-217,295,-78,-1400,-1224,-761,-185,97,214
278,87,-190,-183,234,-51,-1307,-1478,-1132,-561,-78,151
263,107,-156,-185,209,-24,-1215,-1512,-1273,-736,-161,131
307,209,-97,-258,202,56,-1117,-1429,-1190,-668,-92,214
375,258,-117,-317,246,70,-1044,-1307,-1058,-546,14,331
395,253,-141,-324,268,56,-966,-1190,-961,-488,58,375
405,287,-117,-346,261,85,-893,-1058,-814,-380,112,409
380,278,-102,-329,241,87,-741,-893,-653,-283,136,400
322,253,-68,-287,195,92,-605,-732,-512,-214,141,370
273,209,-63,-241,168,73,-478,-546,-366,-131,165,366
195,146,-48,-170,122,48,-351,-375,-253,-78,141,307
112,63,-48,-87,80,7,-219,-273,-190,-78,63,175
58,-34,-92,-12,75,-63,-107,-165,-136,-73,9,73
4,-68,-73,31,39,-70,-48,-68,-78,-68,-9,43
-34,-92,-58,63,12,-75,0,4,-24,-39,-14,24
-53,-112,-58,82,2,-85,39,34,4,-24,-29,-9
-58,-141,-82,100,12,-112,63,53,19,-9,-34,-14
-58,-131,-73,95,7,-102,73,73,24,-4,-34,-14
-58,-131,-73,95,7,-102,78,92,34,0,-34,-19
-58,-141,-82,100,12,-112,92,97,39,4,-34,-29
-58,-141,-82,100,12,-112,97,102,43,4,-34,-34
-63,-141,-78,102,7,-109,102,117,53,4,-39,-39
-68,-151,-82,109,7,-117,107,131,53,9,-39,-39
-68,-156,-87,112,9,-122,117,141,63,9,-39,-39
-68,-161,-92,114,12,-126,126,146,63,14,-43,-43
-68,-161,-92,114,12,-126,136,156,68,14,-39,-43
-78,-165,-87,122,4,-126,136,161,73,14,-34,-43
-82,-170,-87,126,2,-129,141,165,78,19,-34,-43
-82,-170,-87,126,2,-129,151,170,78,19,-34,-43
-82,-165,-82,124,0,-124,156,175,87,19,-39,-43
-82,-161,-78,122,-2,-119,165,180,92,24,-39,-43
-82,-161,-78,122,-2,-119,170,190,97,24,-39,-53
-82,-161,-78,122,-2,-119,175,200,97,29,-39,-53
-92,-161,-68,126,-12,-114,195,209,112,29,-39,-58
-97,-161,-63,129,-17,-112,209,224,112,29,-43,-63
-97,-161,-63,129,-17,-112,219,234,122,34,-43,-63
-97,-161,-63,129,-17,-112,229,253,126,34,-39,-63
-97,-161,-63,129,-17,-112,244,263,136,43,-34,-58
-102,-170,-68,136,-17,-119,258,287,146,48,-29,-58
-107,-170,-63,139,-21,-117,273,302,156,53,-29,-58
-107,-170,-63,139,-21,-117,287,317,156,53,-29,-58
-112,-165,-53,139,-29,-109,302,336,165,53,-29,-58
-112,-156,-43,134,-34,-100,322,356,175,63,-29,-58
-112,-156,-43,134,-34,-100,341,370,190,73,-29,-58
-122,-156,-34,139,-43,-95,361,390,200,78,-29,-58
-122,-151,-29,136,-46,-90,380,405,209,78,-34,-58
-131,-141,-9,136,-61,-75,395,414,214,73,-34,-68
-141,-141,0,141,-70,-70,409,424,219,73,-34,-68
-146,-136,9,141,-78,-63,424,434,229,78,-34,-73
-146,-122,24,134,-85,-48,439,448,239,78,-34,-73
-146,-117,29,131,-87,-43,448,458,244,78,-29,-73
-151,-117,34,134,-92,-41,458,458,248,82,-24,-68
-151,-112,39,131,-95,-36,463,458,248,82,-24,-63
-165,-92,73,129,-119,-9,468,448,248,78,-24,-63
-170,-87,82,129,-126,-2,473,439,248,78,-19,-63
-165,-63,102,114,-134,19,468,424,244,73,-19,-63
-165,-43,122,104,-143,39,458,409,234,73,-9,-48
-170,-29,141,100,-156,56,439,361,219,63,-9,-48
-170,-29,141,100,-156,56,419,331,209,58,-4,-39
-165,-4,161,85,-163,78,380,292,185,53,-9,-39
-161,19,180,70,-170,100,351,258,165,43,-4,-29
-151,29,180,61,-165,104,326,214,146,39,-4,-14
-136,53,190,41,-163,122,283,165,126,29,-4,-4
-126,53,180,36,-153,117,244,122,92,19,4,4
-112,43,156,34,-134,100,204,82,73,19,14,29
-97,53,151,21,-124,102,170,53,53,9,19,39
-82,82,165,0,-124,124,141,14,34,0,29,48
-73,78,151,-2,-112,114,117,-4,24,-9,29,53
-63,73,136,-4,-100,104,82,-24,4,-9,29,58
-48,58,107,-4,-78,82,63,-39,4,-9,29,58
-34,53,87,-9,-61,70,43,-43,-4,-9,29,53
-29,48,78,-9,-53,63,29,-43,-9,-4,24,48
-24,43,68,-9,-46,56,14,-43,-14,-4,19,48
-9,34,43,-12,-26,39,14,-39,-14,-4,19,39
0,19,19,-9,-9,19,9,-34,-9,-4,14,39
0,14,14,-7,-7,14,0,-29,-9,-4,14,39
0,14,14,-7,-7,14,-4,-29,-9,-4,14,29
-4,-9,-4,7,0,-7,-9,-24,-4,-4,4,24
-4,-39,-34,21,14,-36,-9,-9,0,-4,4,19
-4,-34,-29,19,12,-31,-9,-9,0,0,4,19
-4,-29,-24,17,9,-26,-4,0,4,4,4,19
-4,-29,-24,17,9,-26,0,4,4,4,4,14
-4,-34,-29,19,12,-31,4,9,4,9,9,14
-4,-24,-19,14,7,-21,4,9,9,14,9,14
-4,-29,-24,17,9,-26,4,9,9,14,9,14
-9,-39,-29,24,9,-34,4,9,4,14,4,9
-14,-43,-29,29,7,-36,4,9,4,14,4,4
-14,-43,-29,29,7,-36,4,9,9,9,4,4
-14,-48,-34,31,9,-41,4,14,14,9,9,9
-14,-48,-34,31,9,-41,4,19,14,14,9,9
-14,-53,-39,34,12,-46,4,24,14,14,9,9
-9,-53,-43,31,17,-48,4,24,24,19,9,14
-4,-48,-43,26,19,-46,0,24,24,19,9,19
-4,-53,-48,29,21,-51,0,29,24,24,9,24
-4,-58,-53,31,24,-56,0,34,29,29,14,24
-9,-63,-53,36,21,-58,9,39,34,34,19,24
-14,-63,-48,39,17,-56,14,39,34,34,19,19
-14,-63,-48,39,17,-56,9,43,34,34,19,14
-14,-63,-48,39,17,-56,9,48,34,34,19,14
-4,-63,-58,34,26,-61,14,48,39,39,29,24
4,-73,-78,34,41,-75,19,58,53,43,39,29
0,-63,-63,31,31,-63,19,58,53,43,29,29
0,-53,-53,26,26,-53,19,58,53,43,19,29
0,-53,-53,26,26,-53,19,63,53,48,19,29
-4,-53,-48,29,21,-51,14,63,58,48,24,29
-4,-58,-53,31,24,-56,14,63,58,53,24,29
-4,-63,-58,34,26,-61,14,58,53,53,24,29
-4,-63,-58,34,26,-61,14,58,53,48,29,29
-4,-58,-53,31,24,-56,14,53,53,48,29,29
-4,-58,-53,31,24,-56,14,39,58,48,29,29
-4,-63,-58,34,26,-61,19,24,58,53,29,24
-4,-73,-68,39,31,-70,19,24,58,53,29,24
-9,-92,-82,51,36,-87,19,24,58,53,29,29
-9,-82,-73,46,31,-78,19,24,58,53,24,24
-4,-78,-73,41,34,-75,19,24,58,53,24,24
-9,-73,-63,41,26,-68,19,24,58,58,34,19
-14,-73,-58,43,21,-65,19,24,58,53,34,9
-14,-73,-58,43,21,-65,19,24,58,48,24,9
-14,-73,-58,43,21,-65,24,24,53,43,14,4
-14,-78,-63,46,24,-70,24,24,53,39,14,9
-14,-78,-63,46,24,-70,24,24,53,39,24,19
-14,-73,-58,43,21,-65,24,19,48,39,24,19
-14,-73,-58,43,21,-65,24,19,39,39,24,19
-14,-82,-68,48,26,-75,14,14,39,39,19,14
-9,-82,-73,46,31,-78,14,14,39,43,19,14
-9,-73,-63,41,26,-68,9,14,34,39,9,14
-9,-68,-58,39,24,-63,4,14,34,39,9,14
-4,-78,-73,41,34,-75,4,9,34,39,14,19
0,-78,-78,39,39,-78,4,4,39,39,14,19
0,-68,-68,34,34,-68,9,4,39,34,14,14
-9,-73,-63,41,26,-68,14,4,39,34,14,14
-9,-82,-73,46,31,-78,19,9,43,34,14,14
-9,-87,-78,48,34,-82,19,14,43,34,14,14
-9,-87,-78,48,34,-82,14,14,39,34,14,14
-4,-78,-73,41,34,-75,14,9,29,34,9,14
-4,-78,-73,41,34,-75,9,9,29,34,9,19
-4,-78,-73,41,34,-75,9,9,29,24,4,19
-4,-68,-63,36,29,-65,9,4,24,24,4,19
-4,-73,-68,39,31,-70,9,0,19,29,4,19
-9,-63,-53,36,21,-58,4,0,19,29,4,14
-14,-63,-48,39,17,-56,4,0,19,24,4,9
-14,-68,-53,41,19,-61,9,0,19,19,4,9
-14,-68,-53,41,19,-61,9,0,19,14,4,9
-19,-63,-43,41,12,-53,4,-4,19,14,4,4
-19,-63,-43,41,12,-53,4,-4,19,14,4,0
-19,-53,-34,36,7,-43,4,-4,19,14,0,0
-14,-43,-29,29,7,-36,4,-4,19,14,-4,0
-9,-53,-43,31,17,-48,9,-4,24,24,-9,4
-4,-63,-58,34,26,-61,9,-4,29,29,-9,9
-4,-78,-73,41,34,-75,9,0,29,29,-4,14
-4,-92,-87,48,41,-90,4,0,24,29,-4,14
-4,-78,-73,41,34,-75,4,0,24,29,-4,14
-4,-63,-58,34,26,-61,9,4,29,29,-4,14
-9,-63,-53,36,21,-58,9,0,29,24,-4,14
-9,-63,-53,36,21,-58,4,-4,24,14,-4,14
-9,-63,-53,36,21,-58,4,-4,19,14,-4,9
-9,-63,-53,36,21,-58,9,-4,14,14,-4,4
-9,-63,-53,36,21,-58,9,-4,14,14,-9,4
-4,-63,-58,34,26,-61,9,-4,14,14,-9,4
-4,-63,-58,34,26,-61,9,-4,19,19,-4,4
-4,-63,-58,34,26,-61,9,-4,19,19,-4,4
-4,-53,-48,29,21,-51,4,-4,19,19,-9,0
-4,-48,-43,26,19,-46,4,-4,19,19,-9,0
-4,-48,-43,26,19,-46,4,0,19,19,-4,4
-4,-48,-43,26,19,-46,4,0,14,14,0,4
-14,-48,-34,31,9,-41,4,0,9,9,-4,4
-4,-53,-48,29,21,-51,4,0,9,4,-4,9
-4,-53,-48,29,21,-51,4,0,9,9,0,9
-4,-53,-48,29,21,-51,4,0,4,9,0,9
-9,-48,-39,29,14,-43,4,0,9,9,-4,0
-9,-43,-34,26,12,-39,4,0,9,9,-4,-4
-9,-48,-39,29,14,-43,0,0,9,9,-9,4
-14,-48,-34,31,9,-41,0,-4,9,9,-14,0
-4,-58,-53,31,24,-56,0,-9,4,4,-14,0
-4,-63,-58,34,26,-61,4,-4,9,9,-14,0
0,-53,-53,26,26,-53,0,0,14,14,-9,4
9,-48,-58,19,34,-53,4,9,24,19,-4,9
19,-58,-78,19,48,-68,9,24,34,24,0,19
24,-63,-87,19,56,-75,19,29,43,29,0,19
29,-48,-78,9,53,-63,34,43,53,39,14,29
34,-14,-48,-9,41,-31,53,68,63,48,24,39
53,0,-53,-26,53,-26,58,73,68,58,34,43
78,9,-68,-43,73,-29,68,78,78,68,48,48
78,14,-63,-46,70,-24,68,82,87,78,53,53
78,19,-58,-48,68,-19,68,87,97,87,58,58
78,39,-39,-58,58,0,82,107,107,92,63,63
78,58,-19,-68,48,19,97,126,117,97,68,68
78,48,-29,-63,53,9,87,117,117,97,68,68
78,39,-39,-58,58,0,78,107,117,97,68,68
82,29,-53,-56,68,-12,48,102,117,102,73,73
87,19,-68,-53,78,-24,19,97,117,107,78,78
87,19,-68,-53,78,-24,0,73,102,107,78,78
87,19,-68,-53,78,-24,-19,48,87,107,78,78
92,14,-78,-53,85,-31,-29,39,73,92,68,73
97,9,-87,-53,92,-39,-39,29,58,78,58,68
97,9,-87,-53,92,-39,-48,14,48,63,48,63
97,9,-87,-53,92,-39,-58,0,39,48,39,58
97,-4,-102,-46,100,-53,-58,0,29,43,29,48
92,-14,-107,-39,100,-61,-53,0,19,39,19,39
87,-24,-112,-31,100,-68,-53,-4,14,34,14,34
82,-34,-117,-24,100,-75,-43,0,14,34,14,34
78,-34,-112,-21,95,-73,-34,9,19,39,19,34
73,-43,-117,-14,95,-80,-24,9,19,39,19,34
53,-43,-97,-4,75,-70,-24,0,14,24,14,34
48,-43,-92,-2,70,-68,-29,-4,4,19,19,39
58,-34,-92,-12,75,-63,-29,0,9,24,19,39
63,-34,-97,-14,80,-65,-29,9,14,29,14,39
29,-53,-82,12,56,-68,-4,9,14,19,9,29
9,-63,-73,26,41,-68,4,9,4,9,0,19
-24,-58,-34,41,4,-46,9,4,-4,-4,-14,-4
-39,-58,-19,48,-9,-39,9,-4,-9,-19,-19,-14
-43,-73,-29,58,-7,-51,9,-14,-14,-19,-34,-14
-48,-82,-34,65,-7,-58,9,-14,-19,-19,-43,-14
-48,-92,-43,70,-2,-68,9,-9,-19,-19,-43,-19
-48,-92,-43,70,-2,-68,9,-9,-19,-19,-43,-19
-48,-73,-24,61,-12,-48,9,-19,-19,-24,-43,-19
-48,-58,-9,53,-19,-34,9,-34,-24,-24,-43,-19
-48,-68,-19,58,-14,-43,9,-24,-24,-19,-39,-19
-53,-82,-29,68,-12,-56,9,-14,-24,-9,-34,-19
-53,-82,-29,68,-12,-56,9,-14,-19,-9,-29,-14
-53,-82,-29,68,-12,-56,9,-14,-19,-9,-29,-14
-53,-82,-29,68,-12,-56,4,-14,-19,-14,-29,-14
-58,-78,-19,68,-19,-48,0,-19,-19,-24,-29,-19
-58,-78,-19,68,-19,-48,4,-19,-19,-24,-34,-19
-53,-78,-24,65,-14,-51,4,-19,-19,-19,-34,-19
-53,-73,-19,63,-17,-46,9,-19,-19,-19,-34,-19
-53,-78,-24,65,-14,-51,14,-19,-19,-19,-34,-19
-58,-78,-19,68,-19,-48,14,-19,-19,-19,-34,-24
-63,-73,-9,68,-26,-41,14,-19,-19,-19,-34,-24
-63,-82,-19,73,-21,-51,19,-14,-19,-19,-34,-24
-68,-97,-29,82,-19,-63,24,-9,-19,-19,-34,-24
-68,-102,-34,85,-17,-68,34,-9,-19,-19,-34,-19
-68,-102,-34,85,-17,-68,24,-9,-19,-19,-34,-19
-58,-82,-24,70,-17,-53,14,-14,-19,-19,-34,-19
-48,-63,-14,56,-17,-39,14,-14,-19,-19,-34,-19
-48,-78,-29,63,-9,-53,19,-14,-39,-34,-39,-29
-58,-87,-29,73,-14,-58,58,24,-19,-24,-43,-29
-78,-78,0,78,-39,-39,117,126,73,4,-43,-39
-68,-43,24,56,-46,-9,161,273,244,136,29,-4
14,-14,-29,0,21,-21,146,405,419,326,161,73
63,14,-48,-39,56,-17,112,414,483,405,219,122
63,29,-34,-46,48,-2,73,302,483,429,248,165
53,19,-34,-36,43,-7,-97,-9,307,356,234,175
53,53,0,-53,26,26,-351,-341,131,297,224,185
97,92,-4,-95,51,43,-658,-663,-92,204,219,224
229,92,-136,-161,183,-21,-1039,-829,-278,141,234,263
351,97,-253,-224,302,-78,-1268,-878,-385,97,224,278
331,107,-224,-219,278,-58,-1376,-1259,-756,-175,102,229
283,102,-180,-192,231,-39,-1346,-1512,-1088,-492,-53,161
258,122,-136,-190,197,-7,-1254,-1532,-1234,-683,-156,126
278,200,-78,-239,178,61,-1156,-1503,-1234,-702,-141,165
370,258,-112,-314,241,73,-1083,-1376,-1107,-575,-24,297
405,263,-141,-334,273,61,-990,-1244,-1005,-517,24,351
429,297,-131,-363,280,82,-912,-1098,-829,-395,92,390
424,287,-136,-356,280,75,-771,-932,-663,-287,136,400
366,283,-82,-324,224,100,-634,-771,-531,-224,156,385
317,268,-48,-292,183,109,-507,-595,-395,-151,180,375
234,204,-29,-219,131,87,-375,-414,-278,-92,141,297
151,126,-24,-139,87,51,-253,-302,-209,-78,78,195
73,4,-68,-39,70,-31,-136,-200,-165,-73,24,102
9,-53,-63,21,36,-58,-63,-107,-117,-68,-9,53
-19,-73,-53,46,17,-63,-14,-29,-68,-39,-14,29
-43,-87,-43,65,0,-65,24,9,-34,-24,-24,-4
-48,-112,-63,80,7,-87,43,24,-14,-9,-29,-9
-48,-102,-53,75,2,-78,53,43,-4,-9,-34,-14
-48,-97,-48,73,0,-73,58,68,4,-14,-39,-24
-48,-102,-53,75,2,-78,73,78,9,-14,-43,-39
-48,-102,-53,75,2,-78,82,82,14,-14,-43,-43
-53,-102,-48,78,-2,-75,92,92,24,-14,-48,-48
-58,-112,-53,85,-2,-82,97,102,24,-4,-43,-43
-58,-117,-58,87,0,-87,107,112,34,0,-39,-39
-58,-122,-63,90,2,-92,117,117,34,4,-43,-43
-58,-122,-63,90,2,-92,126,126,39,4,-43,-43
-68,-126,-58,97,-4,-92,126,131,43,4,-43,-43
-73,-131,-58,102,-7,-95,131,141,48,9,-43,-43
-68,-131,-63,100,-2,-97,141,151,48,4,-48,-43
-63,-131,-68,97,2,-100,146,156,58,0,-53,-43
-63,-126,-63,95,0,-95,156,161,63,4,-48,-43
-63,-122,-58,92,-2,-90,161,170,68,4,-48,-53
-63,-122,-58,92,-2,-90,165,180,63,9,-48,-53
-68,-122,-53,95,-7,-87,180,190,73,9,-48,-53
-73,-122,-48,97,-12,-85,190,204,73,4,-53,-58
-78,-122,-43,100,-17,-82,200,214,82,4,-53,-63
-78,-126,-48,102,-14,-87,209,229,87,4,-53,-68
-82,-131,-48,107,-17,-90,229,234,97,14,-58,-73
-92,-141,-48,117,-21,-95,248,258,107,19,-58,-78
-97,-141,-43,119,-26,-92,263,273,117,24,-58,-78
-97,-136,-39,117,-29,-87,278,287,117,24,-58,-78
-102,-131,-29,117,-36,-80,292,307,126,24,-58,-78
-102,-126,-24,114,-39,-75,307,326,131,34,-58,-78
-102,-126,-24,114,-39,-75,322,341,141,43,-58,-78
-112,-126,-14,119,-48,-70,341,361,151,48,-58,-78
-112,-122,-9,117,-51,-65,361,375,161,48,-58,-78
-122,-117,4,119,-63,-56,375,385,170,43,-53,-87
-131,-122,9,126,-70,-56,390,395,180,43,-53,-87
-141,-117,24,129,-82,-46,409,405,190,48,-53,-92
-146,-102,43,124,-95,-29,429,414,200,48,-58,-92
-146,-97,48,122,-97,-24,439,424,200,48,-58,-92
-151,-97,53,124,-102,-21,448,429,200,53,-53,-87
-146,-92,53,119,-100,-19,453,429,200,53,-53,-82
-151,-73,78,112,-114,2,453,419,200,48,-53,-78
-151,-68,82,109,-117,7,453,409,200,43,-53,-78
-146,-48,97,97,-122,24,448,390,195,34,-58,-82
-151,-39,112,95,-131,36,444,380,190,34,-48,-68
-161,-29,131,95,-146,51,429,341,180,24,-48,-68
-161,-29,131,95,-146,51,414,312,170,19,-43,-58
-156,-4,151,80,-153,73,380,273,146,14,-43,-53
-151,19,170,65,-161,95,356,239,126,4,-34,-39
-141,29,170,56,-156,100,336,195,107,0,-34,-24
-126,58,185,34,-156,122,292,146,92,-9,-34,-14
-117,73,190,21,-153,131,253,102,63,-19,-24,-9
-102,73,175,14,-139,124,214,63,43,-14,-9,14
-87,73,161,7,-124,117,180,39,24,-19,-4,24
-73,97,170,-12,-122,134,146,0,4,-29,0,29
-63,92,156,-14,-109,124,117,-24,-4,-39,0,34
-53,87,141,-17,-97,114,78,-48,-29,-39,0,39
-39,78,117,-19,-78,97,58,-63,-34,-39,0,43
-24,73,97,-24,-61,85,43,-63,-43,-39,0,43
-19,68,87,-24,-53,78,29,-63,-43,-34,0,39
-14,63,78,-24,-46,70,9,-63,-43,-34,0,39
-4,48,53,-21,-29,51,4,-58,-43,-34,0,29
0,24,24,-12,-12,24,0,-53,-39,-34,-4,29
0,14,14,-7,-7,14,-4,-48,-39,-34,-4,29
4,14,9,-9,-2,12,-4,-48,-34,-34,-4,19
4,9,4,-7,0,7,-9,-48,-29,-34,-14,14
4,0,-4,-2,4,-2,-14,-39,-29,-34,-14,4
4,-9,-14,2,9,-12,-19,-39,-29,-34,-14,0
0,-24,-24,12,12,-24,-14,-29,-24,-29,-14,0
-4,-29,-24,17,9,-26,-14,-24,-24,-24,-19,-4
-4,-34,-29,19,12,-31,-14,-19,-24,-19,-14,0
-4,-34,-29,19,12,-31,-14,-14,-19,-14,-9,4
-4,-48,-43,26,19,-46,-14,-9,-19,-14,-9,4
-4,-48,-43,26,19,-46,-14,-9,-24,-14,-14,0
-4,-43,-39,24,17,-41,-9,-4,-24,-14,-14,-4
-4,-43,-39,24,17,-41,-4,0,-19,-14,-14,-4
-4,-48,-43,26,19,-46,-4,4,-14,-9,-9,0
-4,-48,-43,26,19,-46,-4,9,-14,-4,-9,0
-4,-53,-48,29,21,-51,-4,14,-14,-4,-9,-4
-4,-53,-48,29,21,-51,0,14,-4,0,-9,-9
-4,-53,-48,29,21,-51,0,14,0,0,-9,-9
-4,-58,-53,31,24,-56,0,19,4,0,-9,-4
-4,-58,-53,31,24,-56,0,24,9,0,-4,0
-4,-63,-58,34,26,-61,4,29,14,4,0,4
0,-58,-58,29,29,-58,4,29,14,9,0,0
4,-53,-58,24,31,-56,0,29,14,14,0,-4
4,-53,-58,24,31,-56,0,29,14,14,0,-4
4,-53,-58,24,31,-56,4,29,14,14,0,0
0,-63,-63,31,31,-63,9,39,24,14,0,0
-9,-63,-53,36,21,-58,9,39,24,14,0,0
-9,-63,-53,36,21,-58,9,39,24,9,0,0
-4,-63,-58,34,26,-61,14,43,24,9,0,0
-4,-68,-63,36,29,-65,14,39,29,9,4,0
-4,-73,-68,39,31,-70,14,39,29,14,4,0
-4,-73,-68,39,31,-70,14,39,24,14,4,0
-4,-73,-68,39,31,-70,14,39,24,9,4,0
0,-68,-68,34,34,-68,19,39,24,14,0,4
4,-68,-73,31,39,-70,24,43,29,19,0,9
4,-73,-78,34,41,-75,29,43,29,24,0,4
4,-73,-78,34,41,-75,29,43,29,24,0,4
-4,-82,-78,43,36,-80,24,39,29,14,-4,-4
-9,-73,-63,41,26,-68,19,34,29,4,-14,-19
-4,-68,-63,36,29,-65,19,34,29,4,-14,-14
-4,-68,-63,36,29,-65,19,34,29,14,-4,-9
-4,-73,-68,39,31,-70,19,34,29,19,-4,-9
-4,-73,-68,39,31,-70,19,34,29,19,-9,-9
-14,-73,-58,43,21,-65,19,34,24,14,-14,-14
-24,-78,-53,51,14,-65,14,34,24,14,-14,-14
-14,-78,-63,46,24,-70,14,34,24,19,-4,-9
-4,-73,-68,39,31,-70,14,29,24,19,-4,-9
-4,-73,-68,39,31,-70,19,34,19,19,0,-4
-4,-73,-68,39,31,-70,14,34,19,14,0,-4
0,-63,-63,31,31,-63,14,34,19,14,0,-4
0,-63,-63,31,31,-63,14,34,14,9,-9,-4
0,-63,-63,31,31,-63,9,29,14,9,-14,-4
0,-68,-68,34,34,-68,4,19,9,9,-14,-4
0,-68,-68,34,34,-68,4,14,9,9,-14,-9
0,-53,-53,26,26,-53,4,14,9,4,-14,-14
-9,-53,-43,31,17,-48,4,14,9,4,-14,-14
-9,-58,-48,34,19,-53,9,14,14,4,-14,-14
-9,-58,-48,34,19,-53,9,14,14,4,-14,-14
-9,-58,-48,34,19,-53,4,14,9,4,-14,-14
0,-43,-43,21,21,-43,4,9,0,4,-19,-14
4,-39,-43,17,24,-41,0,9,0,4,-19,-14
4,-39,-43,17,24,-41,0,9,0,-4,-24,-19
4,-39,-43,17,24,-41,0,9,0,-4,-24,-19
4,-58,-63,26,34,-61,0,9,0,0,-24,-19
4,-53,-58,24,31,-56,-4,9,0,0,-24,-19
4,-63,-68,29,36,-65,-4,9,0,0,-24,-19
4,-78,-82,36,43,-80,0,9,0,4,-24,-19
4,-68,-73,31,39,-70,0,9,0,4,-24,-19
0,-53,-53,26,26,-53,-4,4,0,4,-24,-19
0,-53,-53,26,26,-53,-4,4,0,0,-24,-24
0,-53,-53,26,26,-53,-4,4,0,-4,-24,-29
0,-53,-53,26,26,-53,-4,4,0,-4,-24,-29
-4,-53,-48,29,21,-51,0,4,0,0,-29,-29
-4,-53,-48,29,21,-51,0,4,0,0,-29,-29
-4,-53,-48,29,21,-51,0,4,0,0,-24,-24
-4,-53,-48,29,21,-51,-4,0,-4,0,-24,-24
-4,-53,-48,29,21,-51,-4,0,-4,0,-24,-24
-4,-58,-53,31,24,-56,0,4,4,4,-24,-24
-9,-63,-53,36,21,-58,0,4,9,9,-24,-24
-9,-63,-53,36,21,-58,-4,4,4,4,-24,-24
-9,-63,-53,36,21,-58,-4,4,4,4,-24,-24
-9,-58,-48,34,19,-53,0,4,4,0,-24,-24
-9,-53,-43,31,17,-48,0,4,4,-4,-29,-24
-4,-53,-48,29,21,-51,0,4,4,-4,-29,-24
-4,-53,-48,29,21,-51,0,4,9,0,-24,-24
-4,-53,-48,29,21,-51,0,4,9,0,-19,-19
-4,-48,-43,26,19,-46,-4,4,9,0,-19,-19
-4,-48,-43,26,19,-46,-4,4,9,0,-19,-19
-4,-48,-43,26,19,-46,-4,4,9,0,-19,-19
-4,-39,-34,21,14,-36,-4,0,4,-4,-19,-24
-14,-29,-14,21,0,-21,-4,0,0,-4,-24,-24
-4,-48,-43,26,19,-46,-4,0,0,-4,-24,-19
-4,-63,-58,34,26,-61,-4,0,4,0,-19,-19
-9,-63,-53,36,21,-58,-4,0,0,0,-24,-24
-19,-63,-43,41,12,-53,-4,0,0,0,-34,-34
-19,-58,-39,39,9,-48,-4,-4,0,0,-34,-39
-14,-58,-43,36,14,-51,-4,-4,0,0,-29,-29
-14,-48,-34,31,9,-41,-4,-4,0,-4,-29,-29
-4,-39,-34,21,14,-36,-9,-4,0,-9,-34,-29
-4,-43,-39,24,17,-41,-4,0,4,0,-34,-29
0,-39,-39,19,19,-39,-4,0,4,4,-29,-29
4,-43,-48,19,26,-46,4,9,14,9,-24,-29
9,-58,-68,24,39,-63,9,24,19,14,-19,-19
14,-53,-68,19,41,-61,19,29,24,19,-19,-14
24,-43,-68,9,46,-56,29,39,39,34,-4,0
34,-19,-53,-7,43,-36,34,53,48,39,0,0
48,4,-43,-26,46,-19,43,68,58,43,9,0
58,4,-53,-31,56,-24,43,82,68,53,19,9
68,9,-58,-39,63,-24,48,97,78,68,29,19
68,24,-43,-46,56,-9,58,107,92,82,34,24
68,39,-29,-53,48,4,68,117,107,97,39,29
68,39,-29,-53,48,4,78,117,112,97,43,29
68,39,-29,-53,48,4,87,117,117,97,48,29
73,34,-39,-53,56,-2,63,117,117,97,53,34
78,29,-48,-53,63,-9,39,117,117,97,58,39
82,29,-53,-56,68,-12,9,97,107,92,58,39
87,29,-58,-58,73,-14,-19,78,97,87,58,39
87,19,-68,-53,78,-24,-29,63,87,82,58,39
87,9,-78,-48,82,-34,-39,48,78,78,58,39
92,9,-82,-51,87,-36,-48,39,63,68,48,39
97,9,-87,-53,92,-39,-58,29,48,58,39,39
97,4,-92,-51,95,-43,-63,14,39,53,34,29
97,0,-97,-48,97,-48,-68,0,29,48,29,19
92,0,-92,-46,92,-46,-68,-4,24,43,19,19
87,-4,-92,-41,90,-48,-58,0,24,39,14,14
82,-14,-97,-34,90,-56,-53,0,24,34,14,14
78,-14,-92,-31,85,-53,-43,9,29,39,29,14
73,-39,-112,-17,92,-75,-34,19,29,39,29,14
53,-53,-107,0,80,-80,-34,19,24,24,14,4
48,-39,-87,-4,68,-63,-39,4,14,19,4,0
48,-14,-63,-17,56,-39,-39,-4,14,19,0,-4
48,-14,-63,-17,56,-39,-39,0,14,24,-4,-9
19,-34,-53,7,36,-43,-14,0,14,19,-9,-19
0,-43,-43,21,21,-43,-4,4,4,9,-19,-29
-29,-48,-19,39,-4,-34,0,4,-4,0,-34,-43
-48,-63,-14,56,-17,-39,0,-4,-9,-9,-39,-43
-58,-73,-14,65,-21,-43,0,-14,-9,-9,-43,-43
-58,-73,-14,65,-21,-43,0,-19,-9,-9,-43,-48
-58,-82,-24,70,-17,-53,0,-19,-9,-9,-43,-58
-58,-87,-29,73,-14,-58,4,-19,-9,-9,-43,-58
-58,-82,-24,70,-17,-53,9,-19,-9,-14,-43,-58
-58,-78,-19,68,-19,-48,9,-24,-14,-14,-43,-58
-58,-78,-19,68,-19,-48,9,-24,-14,-14,-43,-58
-63,-73,-9,68,-26,-41,4,-24,-14,-9,-48,-58
-63,-63,0,63,-31,-31,0,-24,-9,-9,-48,-53
-63,-78,-14,70,-24,-46,0,-24,-9,-9,-48,-48
-63,-92,-29,78,-17,-61,0,-19,-9,-9,-48,-43
-63,-78,-14,70,-24,-46,4,-19,-9,-14,-39,-48
-58,-68,-9,63,-24,-39,14,-19,-9,-14,-34,-48
-53,-58,-4,56,-24,-31,14,-19,-9,-9,-34,-48
-53,-48,4,51,-29,-21,14,-19,-9,-9,-34,-48
-58,-68,-9,63,-24,-39,9,-19,-9,-9,-43,-48
-63,-78,-14,70,-24,-46,4,-19,-9,-9,-53,-53
-63,-73,-9,68,-26,-41,4,-19,-9,-9,-53,-53
-63,-68,-4,65,-29,-36,4,-19,-9,-9,-53,-53
-68,-63,4,65,-36,-29,4,-19,-9,-9,-48,-53
-68,-63,4,65,-36,-29,14,-19,-9,-9,-43,-48
-68,-63,4,65,-36,-29,4,-19,-9,-14,-43,-48
-68,-63,4,65,-36,-29,4,-19,-9,-19,-43,-48
-68,-63,4,65,-36,-29,4,-29,-19,-19,-43,-48
-68,-68,0,68,-34,-34,9,-24,-19,-19,-43,-58
-82,-68,14,75,-48,-26,58,9,-14,-29,-68,-73
-87,-58,29,73,-58,-14,97,87,53,0,-68,-78
-68,-24,43,46,-56,9,146,278,283,175,29,-24
-4,4,9,0,-7,7,131,375,434,326,136,43
48,34,-14,-41,31,9,122,395,497,400,195,87
63,58,-4,-61,34,26,63,302,502,434,239,126
34,43,9,-39,12,26,-126,-78,268,326,214,126
34,53,19,-43,7,36,-351,-370,92,268,204,136
87,92,4,-90,41,48,-717,-712,-131,190,209,185
185,102,-82,-143,134,9,-1054,-936,-336,97,200,209
326,107,-219,-217,273,-56,-1288,-932,-409,73,185,214
351,131,-219,-241,285,-43,-1420,-1185,-683,-117,107,204
283,126,-156,-204,219,-14,-1342,-1478,-1102,-522,-92,122
263,146,-117,-204,190,14,-1263,-1551,-1293,-727,-200,82
307,263,-43,-285,175,109,-1166,-1488,-1229,-678,-131,156
375,326,-48,-351,212,139,-1093,-1385,-1117,-575,-24,263
400,317,-82,-358,241,117,-1015,-1263,-1005,-517,14,307
414,346,-68,-380,241,139,-941,-1127,-844,-409,63,341
400,346,-53,-373,226,146,-790,-961,-688,-307,102,351
351,331,-19,-341,185,156,-653,-800,-551,-234,122,341
297,302,4,-300,146,153,-527,-614,-395,-146,146,326
214,253,39,-234,87,146,-400,-444,-273,-87,122,258
126,175,48,-151,39,112,-273,-341,-214,-87,48,141
68,82,14,-75,26,48,-165,-234,-165,-82,0,53
14,39,24,-26,-4,31,-97,-126,-107,-78,-19,19
-24,4,29,9,-26,17,-39,-43,-53,-48,-24,-4
-43,-9,34,26,-39,12,4,-9,-24,-29,-34,-34
-48,-34,14,41,-31,-9,34,14,-9,-9,-34,-34
-48,-29,19,39,-34,-4,43,34,0,-9,-34,-34
-48,-34,14,41,-31,-9,48,53,14,-9,-34,-39
-53,-43,9,48,-31,-17,63,63,19,-4,-39,-48
-58,-43,14,51,-36,-14,68,73,24,-4,-43,-53
-63,-43,19,53,-41,-12,73,82,34,-4,-48,-63
-68,-53,14,61,-41,-19,78,92,34,0,-48,-68
-68,-58,9,63,-39,-24,87,97,43,0,-48,-73
-68,-63,4,65,-36,-29,97,97,43,4,-53,-82
-63,-53,9,58,-36,-21,107,107,48,4,-53,-82
-68,-48,19,58,-43,-14,107,112,53,4,-53,-82
-73,-53,19,63,-46,-17,107,122,58,14,-53,-82
-73,-53,19,63,-46,-17,112,131,58,19,-53,-82
-73,-53,19,63,-46,-17,117,141,68,19,-53,-78
-73,-53,19,63,-46,-17,126,151,73,24,-48,-73
-73,-63,9,68,-41,-26,136,161,78,19,-48,-82
-73,-73,0,73,-36,-36,146,170,78,19,-48,-82
-82,-73,9,78,-46,-31,161,175,92,19,-53,-87
-87,-73,14,80,-51,-29,170,185,92,19,-63,-92
-87,-58,29,73,-58,-14,180,190,102,24,-63,-92
-87,-43,43,65,-65,0,190,204,107,24,-58,-92
-92,-43,48,68,-70,2,204,214,117,34,-58,-92
-102,-53,48,78,-75,-2,219,239,126,39,-58,-97
-107,-53,53,80,-80,0,234,253,136,43,-58,-97
-107,-53,53,80,-80,0,248,268,136,43,-58,-97
-112,-53,58,82,-85,2,263,292,151,43,-53,-97
-112,-48,63,80,-87,7,283,317,165,53,-48,-97
-112,-53,58,82,-85,2,302,331,180,63,-48,-97
-122,-58,63,90,-92,2,322,351,190,68,-48,-97
-117,-53,63,85,-90,4,341,370,200,73,-48,-97
-122,-43,78,82,-100,17,356,385,204,73,-43,-107
-131,-39,92,85,-112,26,370,395,209,73,-43,-107
-136,-29,107,82,-122,39,385,405,219,78,-43,-112
-136,-14,122,75,-129,53,400,419,234,78,-48,-112
-136,-9,126,73,-131,58,409,429,244,78,-48,-112
-141,-9,131,75,-136,61,419,429,248,82,-43,-107
-141,-4,136,73,-139,65,424,429,248,82,-43,-102
-156,14,170,70,-163,92,429,419,248,78,-43,-97
-161,19,180,70,-170,100,434,409,248,78,-39,-92
-156,39,195,58,-175,117,429,395,244,73,-39,-92
-156,53,209,51,-183,131,419,380,234,73,-29,-78
-161,68,229,46,-195,148,409,336,219,63,-29,-78
-161,68,229,46,-195,148,400,312,209,58,-24,-68
-156,82,239,36,-197,161,361,273,195,53,-24,-63
-151,97,248,26,-200,173,331,239,185,43,-14,-48
-141,107,248,17,-195,178,312,195,165,34,-14,-34
-126,131,258,-2,-192,195,273,146,146,19,-14,-24
-117,151,268,-17,-192,209,234,92,107,9,-4,-19
-102,161,263,-29,-183,212,195,43,82,9,4,0
-87,161,248,-36,-168,204,146,14,53,0,4,4
-73,180,253,-53,-163,217,102,-24,24,-9,9,9
-58,180,239,-61,-148,209,78,-48,14,-19,9,4
-43,180,224,-68,-134,202,43,-73,-4,-19,9,0
-29,165,195,-68,-112,180,29,-82,-9,-19,9,14
-14,161,175,-73,-95,168,14,-82,-24,-19,9,24
-9,156,165,-73,-87,161,-4,-87,-24,-24,9,19
-4,151,156,-73,-80,153,-24,-92,-24,-34,9,19
9,136,126,-73,-58,131,-24,-87,-24,-24,9,14
19,117,97,-68,-39,107,-29,-82,-19,-14,4,19
19,107,87,-63,-34,97,-34,-78,-19,-14,4,19
19,102,82,-61,-31,92,-34,-78,-19,-14,4,9
9,97,87,-53,-39,92,-39,-78,-19,-19,-9,0
4,87,82,-46,-39,85,-39,-68,-19,-24,-14,-9
4,78,73,-41,-34,75,-39,-68,-19,-24,-14,-9
4,68,63,-36,-29,65,-34,-58,-14,-24,-14,-9
4,73,68,-39,-31,70,-39,-53,-14,-24,-19,-14
4,73,68,-39,-31,70,-43,-48,-14,-19,-19,-14
4,78,73,-41,-34,75,-43,-43,-9,-14,-14,-14
4,68,63,-36,-29,65,-43,-39,-9,-14,-9,-14
4,68,63,-36,-29,65,-39,-39,-14,-14,-14,-19
4,73,68,-39,-31,70,-34,-39,-14,-14,-14,-24
4,73,68,-39,-31,70,-29,-39,-9,-14,-14,-24
4,68,63,-36,-29,65,-24,-34,-4,-9,-9,-19
4,58,53,-31,-24,56,-24,-29,-4,-4,-9,-19
4,43,39,-24,-17,41,-24,-24,-4,-4,-9,-19
4,43,39,-24,-17,41,-24,-24,4,-4,-14,-19
4,48,43,-26,-19,46,-29,-24,4,-9,-19,-19
4,58,53,-31,-24,56,-29,-19,4,-9,-19,-19
4,68,63,-36,-29,65,-29,-14,9,-9,-14,-24
4,63,58,-34,-26,61,-24,-9,14,-4,-9,-24
4,63,58,-34,-26,61,-24,-9,14,-4,-9,-29
-4,68,73,-31,-39,70,-29,-14,9,-4,-9,-34
-14,73,87,-29,-51,80,-29,-19,4,-4,-9,-34
-4,73,78,-34,-41,75,-24,-19,4,-4,-9,-29
4,63,58,-34,-26,61,-19,-9,14,-4,-9,-29
4,63,58,-34,-26,61,-24,-9,14,-4,-9,-24
9,63,53,-36,-21,58,-29,-9,14,-4,-9,-19
14,63,48,-39,-17,56,-29,-4,14,0,-14,-19
14,63,48,-39,-17,56,-34,-4,19,0,-14,-19
9,68,58,-39,-24,63,-34,0,19,4,-14,-19
4,73,68,-39,-31,70,-34,0,14,4,-14,-19
4,73,68,-39,-31,70,-29,4,14,0,-14,-19
4,78,73,-41,-34,75,-24,4,14,0,-19,-19
4,73,68,-39,-31,70,-24,4,14,-4,-19,-19
4,63,58,-34,-26,61,-19,4,9,-4,-19,-24
0,63,63,-31,-31,63,-19,0,4,-9,-29,-34
-9,53,63,-21,-36,58,-19,-4,0,-14,-39,-39
-9,68,78,-29,-43,73,-19,-4,0,-14,-34,-39
-4,78,82,-36,-43,80,-19,-4,0,-14,-24,-34
0,78,78,-39,-39,78,-19,-4,4,-4,-14,-29
4,73,68,-39,-31,70,-19,-4,9,-4,-14,-29
4,73,68,-39,-31,70,-19,-4,9,-9,-19,-34
4,73,68,-39,-31,70,-14,-4,4,-14,-24,-43
4,63,58,-34,-26,61,-14,-4,4,-14,-24,-43
4,58,53,-31,-24,56,-14,-4,4,-9,-14,-39
4,63,58,-34,-26,61,-14,-4,4,-9,-14,-29
4,63,58,-34,-26,61,-14,0,0,-9,-14,-19
0,63,63,-31,-31,63,-24,-4,0,-14,-19,-24
0,73,73,-36,-36,73,-24,-4,0,-14,-19,-24
0,78,78,-39,-39,78,-29,-4,-4,-24,-34,-24
0,78,78,-39,-39,78,-34,-4,-4,-29,-39,-24
0,68,68,-34,-34,68,-34,-9,-9,-29,-34,-24
0,68,68,-34,-34,68,-34,-14,-9,-29,-34,-29
0,82,82,-41,-41,82,-34,-19,-9,-34,-34,-39
-9,82,92,-36,-51,87,-34,-24,-9,-34,-34,-43
-4,78,82,-36,-43,80,-29,-24,-4,-34,-34,-43
0,78,78,-39,-39,78,-29,-24,-4,-34,-34,-43
0,78,78,-39,-39,78,-29,-19,-9,-34,-34,-43
4,87,82,-46,-39,85,-24,-19,-19,-34,-39,-43
0,82,82,-41,-41,82,-29,-19,-19,-34,-39,-43
-4,78,82,-36,-43,80,-29,-19,-19,-43,-43,-48
-4,78,82,-36,-43,80,-29,-19,-24,-43,-43,-48
-4,63,68,-29,-36,65,-29,-19,-29,-39,-43,-48
0,82,82,-41,-41,82,-34,-19,-29,-39,-43,-48
4,92,87,-48,-41,90,-34,-19,-29,-43,-43,-48
4,78,73,-41,-34,75,-29,-19,-29,-43,-43,-48
4,68,63,-36,-29,65,-29,-19,-29,-43,-43,-48
-4,73,78,-34,-41,75,-34,-24,-29,-43,-43,-48
-9,73,82,-31,-46,78,-34,-24,-29,-43,-43,-48
-9,73,82,-31,-46,78,-34,-24,-29,-43,-43,-48
-4,73,78,-34,-41,75,-34,-24,-29,-43,-43,-48
-4,78,82,-36,-43,80,-29,-24,-29,-39,-48,-53
-4,82,87,-39,-46,85,-29,-24,-29,-39,-48,-58
0,82,82,-41,-41,82,-34,-24,-29,-39,-43,-53
4,82,78,-43,-36,80,-43,-29,-34,-39,-43,-53
4,82,78,-43,-36,80,-43,-29,-34,-39,-43,-53
4,82,78,-43,-36,80,-39,-24,-29,-39,-43,-53
-4,82,87,-39,-46,85,-39,-24,-29,-43,-43,-53
-9,82,92,-36,-51,87,-43,-24,-34,-53,-43,-53
-9,73,82,-31,-46,78,-43,-24,-34,-53,-43,-53
-9,63,73,-26,-41,68,-39,-24,-34,-53,-43,-53
-9,73,82,-31,-46,78,-34,-24,-34,-53,-48,-53
-4,82,87,-39,-46,85,-29,-24,-34,-53,-48,-53
-4,82,87,-39,-46,85,-24,-24,-29,-48,-43,-53
-4,82,87,-39,-46,85,-19,-24,-29,-48,-43,-53
-4,73,78,-34,-41,75,-24,-24,-29,-43,-43,-58
-4,58,63,-26,-34,61,-24,-24,-29,-39,-39,-58
-4,58,63,-26,-34,61,-29,-24,-29,-39,-39,-53
-4,58,63,-26,-34,61,-34,-29,-34,-43,-39,-53
-9,73,82,-31,-46,78,-34,-29,-39,-43,-43,-53
4,82,78,-43,-36,80,-34,-29,-39,-43,-43,-48
4,82,78,-43,-36,80,-34,-29,-34,-39,-39,-48
4,82,78,-43,-36,80,-34,-29,-34,-39,-39,-48
-4,78,82,-36,-43,80,-34,-29,-29,-39,-48,-53
-9,73,82,-31,-46,78,-34,-29,-29,-39,-53,-53
-4,63,68,-29,-36,65,-34,-24,-29,-39,-48,-39
-4,58,63,-26,-34,61,-29,-24,-29,-39,-43,-39
0,48,48,-24,-24,48,-29,-24,-34,-48,-43,-43
-4,43,48,-19,-26,46,-24,-14,-29,-48,-43,-48
-4,58,63,-26,-34,61,-29,-14,-29,-43,-43,-48
0,68,68,-34,-34,68,-24,-9,-24,-39,-43,-48
9,63,53,-36,-21,58,-19,4,-19,-39,-43,-43
14,63,48,-39,-17,56,-9,9,-14,-39,-48,-48
19,63,43,-41,-12,53,0,19,0,-29,-34,-43
24,82,58,-53,-17,70,14,39,14,-19,-24,-39
43,87,43,-65,0,65,19,48,19,0,-9,-24
68,97,29,-82,19,63,29,58,29,19,0,-9
68,102,34,-85,17,68,34,68,39,29,9,0
68,107,39,-87,14,73,39,78,48,39,19,9
68,122,53,-95,7,87,43,87,58,39,19,9
68,136,68,-102,0,102,48,97,68,39,19,9
68,136,68,-102,0,102,48,97,68,39,19,9
68,136,68,-102,0,102,48,97,68,39,19,9
78,136,58,-107,9,97,29,87,68,39,19,14
87,136,48,-112,19,92,9,78,68,39,19,19
87,136,48,-112,19,92,-19,58,53,34,19,19
87,136,48,-112,19,92,-48,39,39,29,19,19
87,126,39,-107,24,82,-53,24,29,19,14,14
87,117,29,-102,29,73,-58,9,19,9,9,9
87,117,29,-102,29,73,-73,0,4,0,0,4
87,117,29,-102,29,73,-87,-9,-9,-9,-9,0
87,107,19,-97,34,63,-87,-19,-19,-14,-14,-4
87,97,9,-92,39,53,-87,-29,-29,-19,-19,-9
82,97,14,-90,34,56,-87,-29,-34,-24,-24,-9
78,92,14,-85,31,53,-78,-24,-34,-29,-29,-14
73,92,19,-82,26,56,-73,-19,-34,-34,-34,-19
68,102,34,-85,17,68,-63,-9,-29,-29,-29,-24
63,92,29,-78,17,61,-53,-9,-29,-34,-29,-29
43,92,48,-68,-2,70,-53,-19,-34,-53,-43,-43
39,78,39,-58,0,58,-58,-29,-43,-58,-48,-48
39,73,34,-56,2,53,-58,-34,-43,-58,-48,-53
34,73,39,-53,-2,56,-58,-29,-43,-53,-48,-53
0,53,53,-26,-26,53,-34,-29,-43,-58,-48,-58
-9,43,53,-17,-31,48,-24,-24,-53,-68,-58,-68
-29,39,68,-4,-48,53,-19,-24,-63,-78,-73,-82
-48,34,82,7,-65,58,-24,-34,-68,-87,-82,-82
-58,34,92,12,-75,63,-29,-43,-68,-87,-92,-82
-58,34,92,12,-75,63,-29,-43,-68,-87,-92,-82
-58,24,82,17,-70,53,-29,-39,-68,-87,-92,-87
-58,24,82,17,-70,53,-29,-39,-68,-87,-92,-87
-58,34,92,12,-75,63,-29,-39,-68,-92,-92,-87
-53,39,92,7,-73,65,-29,-43,-73,-92,-92,-87
-48,39,87,4,-68,63,-29,-43,-73,-92,-92,-87
-53,39,92,7,-73,65,-24,-43,-78,-87,-92,-92
-53,43,97,4,-75,70,-19,-43,-78,-87,-87,-92
-58,43,102,7,-80,73,-19,-48,-78,-92,-92,-92
-63,43,107,9,-85,75,-19,-48,-78,-97,-97,-92
-68,48,117,9,-92,82,-19,-48,-78,-102,-97,-97
-68,48,117,9,-92,82,-14,-48,-78,-102,-102,-97
-63,43,107,9,-85,75,-14,-48,-78,-97,-97,-97
-63,39,102,12,-82,70,-14,-48,-78,-97,-92,-97
-63,29,92,17,-78,61,-14,-48,-78,-97,-92,-97
-63,29,92,17,-78,61,-14,-48,-78,-97,-92,-102
-63,34,97,14,-80,65,-14,-43,-78,-97,-92,-97
-63,39,102,12,-82,70,-14,-39,-78,-97,-92,-92
-63,48,112,7,-87,80,-14,-39,-73,-92,-92,-92
-58,53,112,2,-85,82,-4,-39,-68,-87,-92,-87
-58,39,97,9,-78,68,-14,-39,-68,-87,-92,-87
-58,24,82,17,-70,53,-14,-39,-68,-87,-92,-87
-58,39,97,9,-78,68,-4,-34,-68,-87,-92,-87
-58,48,107,4,-82,78,9,-14,-58,-87,-92,-97
-68,39,107,14,-87,73,58,43,0,-53,-87,-92
-68,39,107,14,-87,73,97,146,122,19,-58,-78
-39,73,112,-17,-75,92,117,292,312,185,39,-24
34,102,68,-68,-17,85,73,346,424,326,146,43
73,141,68,-107,2,104,14,278,424,356,180,82
73,175,102,-124,-14,139,-92,97,366,346,200,117
63,175,112,-119,-24,143,-331,-273,131,244,180,122
82,200,117,-141,-17,158,-605,-556,-43,190,175,136
146,229,82,-187,31,156,-932,-839,-268,97,170,175
253,229,-24,-241,139,102,-1229,-1005,-473,-9,151,190
351,234,-117,-292,234,58,-1371,-1054,-610,-107,107,180
331,258,-73,-295,202,92,-1410,-1361,-946,-370,0,156
278,268,-9,-273,143,129,-1312,-1542,-1224,-658,-136,117
273,302,29,-287,122,165,-1215,-1503,-1273,-746,-180,122
317,390,73,-353,122,231,-1117,-1415,-1180,-668,-112,195
385,424,39,-405,173,231,-1044,-1288,-1039,-536,-4,302
395,409,14,-402,190,212,-951,-1151,-927,-478,34,326
395,434,39,-414,178,236,-863,-1000,-766,-370,82,341
361,409,48,-385,156,229,-712,-834,-619,-278,107,331
292,370,78,-331,107,224,-575,-673,-492,-214,112,302
239,326,87,-283,75,207,-448,-507,-361,-151,112,268
156,263,107,-209,24,185,-322,-356,-263,-117,63,180
78,170,92,-124,-7,131,-204,-263,-209,-117,0,78
29,63,34,-46,-2,48,-107,-165,-165,-112,-39,4
-9,34,43,-12,-26,39,-53,-78,-117,-112,-63,-29
-34,14,48,9,-41,31,-9,-14,-73,-87,-73,-53
-48,0,48,24,-48,24,24,9,-43,-73,-82,-82
-48,-24,24,36,-36,0,43,24,-29,-58,-82,-82
-48,-14,34,31,-41,9,48,39,-29,-58,-82,-82
-48,-14,34,31,-41,9,48,53,-24,-58,-82,-87
-48,-24,24,36,-36,0,63,58,-19,-53,-82,-97
-48,-24,24,36,-36,0,68,63,-14,-53,-82,-102
-58,-19,39,39,-48,9,73,73,-4,-58,-87,-107
-68,-24,43,46,-56,9,78,82,-4,-58,-87,-107
-68,-29,39,48,-53,4,78,92,4,-58,-87,-107
-68,-34,34,51,-51,0,78,97,4,-53,-92,-112
-63,-34,29,48,-46,-2,97,107,14,-43,-87,-112
-68,-39,29,53,-48,-4,107,112,24,-34,-82,-112
-73,-43,29,58,-51,-7,112,122,29,-29,-82,-112
-73,-43,29,58,-51,-7,122,131,29,-29,-82,-112
-78,-43,34,61,-56,-4,126,136,34,-34,-87,-112
-82,-43,39,63,-61,-2,136,141,34,-34,-87,-112
-82,-43,39,63,-61,-2,141,151,39,-34,-87,-122
-82,-43,39,63,-61,-2,146,161,39,-29,-87,-122
-87,-43,43,65,-65,0,161,165,53,-29,-87,-122
-87,-43,43,65,-65,0,170,175,53,-29,-92,-122
-87,-48,39,68,-63,-4,180,185,63,-24,-92,-122
-87,-53,34,70,-61,-9,190,204,68,-24,-87,-122
-92,-53,39,73,-65,-7,209,214,78,-14,-87,-122
-102,-63,39,82,-70,-12,229,239,87,-9,-87,-126
-107,-58,48,82,-78,-4,244,253,97,-4,-87,-126
-107,-53,53,80,-80,0,258,268,97,-4,-87,-126
-112,-53,58,82,-85,2,273,287,107,-9,-87,-126
-112,-48,63,80,-87,7,292,307,117,-4,-87,-126
-112,-48,63,80,-87,7,312,322,131,4,-87,-131
-122,-48,73,85,-97,12,331,341,141,9,-87,-136
-122,-48,73,85,-97,12,351,356,146,9,-92,-136
-131,-43,87,87,-109,21,366,366,146,4,-92,-146
-141,-43,97,92,-119,26,380,375,151,4,-92,-146
-146,-39,107,92,-126,34,395,385,161,9,-92,-151
-146,-19,126,82,-136,53,409,395,170,9,-97,-146
-146,-9,136,78,-141,63,419,400,175,9,-97,-141
-151,0,151,75,-151,75,429,400,180,14,-92,-136
-151,14,165,68,-158,90,434,400,180,14,-92,-131
-161,19,180,70,-170,100,434,395,185,14,-87,-126
-161,9,170,75,-165,90,434,390,190,19,-78,-122
-156,29,185,63,-170,107,429,370,185,14,-78,-122
-156,43,200,56,-178,122,419,351,175,14,-68,-107
-161,63,224,48,-192,143,395,292,156,0,-68,-107
-161,68,229,46,-195,148,370,253,141,-9,-63,-97
-156,92,248,31,-202,170,331,214,117,-14,-63,-92
-151,117,268,17,-209,192,302,180,97,-24,-53,-78
-141,126,268,7,-204,197,278,141,78,-29,-53,-63
-126,151,278,-12,-202,214,234,97,58,-39,-53,-53
-117,165,283,-24,-200,224,195,53,24,-48,-43,-48
-102,170,273,-34,-187,222,156,14,4,-48,-34,-29
-82,170,253,-43,-168,212,122,-9,-14,-53,-34,-24
-63,190,253,-63,-158,222,92,-43,-34,-58,-29,-19
-53,175,229,-61,-141,202,68,-63,-39,-68,-29,-14
-43,161,204,-58,-124,183,34,-82,-53,-68,-29,-9
-34,146,180,-56,-107,163,19,-92,-53,-68,-29,-4
-24,141,165,-58,-95,153,4,-92,-63,-68,-29,-4
-19,141,161,-61,-90,151,-9,-92,-63,-63,-29,-14
-14,141,156,-63,-85,148,-24,-92,-63,-63,-29,-19
-4,126,131,-61,-68,129,-24,-82,-63,-63,-29,-29
0,107,107,-53,-53,107,-29,-73,-58,-63,-34,-29
0,92,92,-46,-46,92,-34,-68,-58,-58,-34,-24
0,82,82,-41,-41,82,-34,-68,-58,-53,-34,-29
-4,78,82,-36,-43,80,-39,-68,-58,-53,-39,-34
-4,68,73,-31,-39,70,-39,-58,-58,-53,-34,-39
-4,58,63,-26,-34,61,-39,-58,-58,-53,-34,-39
-4,48,53,-21,-29,51,-34,-48,-53,-53,-34,-39
-4,48,53,-21,-29,51,-34,-43,-48,-53,-39,-39
-4,43,48,-19,-26,46,-34,-39,-43,-48,-39,-34
-4,48,53,-21,-29,51,-34,-34,-39,-43,-39,-34
-4,39,43,-17,-24,41,-34,-29,-39,-43,-39,-34
-4,39,43,-17,-24,41,-34,-34,-43,-43,-48,-43
-4,43,48,-19,-26,46,-34,-39,-43,-43,-53,-53
-9,39,48,-14,-29,43,-34,-39,-39,-43,-53,-53
-14,29,43,-7,-29,36,-34,-34,-34,-39,-48,-48
-14,29,43,-7,-29,36,-34,-24,-34,-34,-43,-48
-14,24,39,-4,-26,31,-34,-14,-34,-34,-39,-48
0,24,24,-12,-12,24,-29,-14,-24,-19,-39,-48
14,29,14,-21,0,21,-29,-14,-24,-9,-39,-48
4,29,24,-17,-9,26,-29,-9,-24,-9,-39,-43
-4,29,34,-12,-19,31,-29,-4,-19,-9,-34,-43
-4,29,34,-12,-19,31,-24,0,-14,-9,-34,-43
-4,34,39,-14,-21,36,-24,0,-14,-14,-39,-48
-4,34,39,-14,-21,36,-29,0,-9,-14,-39,-48
-4,34,39,-14,-21,36,-29,0,-4,-14,-39,-43
0,34,34,-17,-17,34,-24,0,-4,-14,-34,-39
4,24,19,-14,-7,21,-19,9,4,-14,-29,-39
0,39,39,-19,-19,39,-19,9,4,-14,-29,-39
0,53,53,-26,-26,53,-19,9,4,-14,-29,-39
0,43,43,-21,-21,43,-14,14,4,-9,-29,-39
-4,34,39,-14,-21,36,-14,14,9,-9,-24,-39
-4,34,39,-14,-21,36,-14,14,9,-4,-24,-43
-4,34,39,-14,-21,36,-14,9,4,-4,-24,-48
-9,34,43,-12,-26,39,-19,9,0,-14,-29,-48
-14,39,53,-12,-34,46,-24,4,-4,-19,-39,-48
-14,39,53,-12,-34,46,-29,4,0,-19,-39,-48
-14,34,48,-9,-31,41,-29,4,0,-14,-39,-53
-9,48,58,-19,-34,53,-29,4,0,-14,-39,-58
-9,53,63,-21,-36,58,-29,4,0,-14,-39,-58
-9,53,63,-21,-36,58,-24,4,0,-14,-43,-63
-4,48,53,-21,-29,51,-19,4,0,-14,-43,-63
-4,48,53,-21,-29,51,-19,4,0,-9,-34,-58
-4,43,48,-19,-26,46,-19,4,0,-14,-34,-58
-4,48,53,-21,-29,51,-29,0,-4,-19,-43,-58
-4,53,58,-24,-31,56,-34,-4,-14,-24,-53,-63
-4,48,53,-21,-29,51,-34,-4,-14,-24,-53,-68
-4,48,53,-21,-29,51,-34,-4,-14,-19,-43,-68
-4,53,58,-24,-31,56,-29,-4,-14,-19,-43,-68
-4,53,58,-24,-31,56,-24,0,-19,-19,-43,-68
-4,53,58,-24,-31,56,-34,-4,-19,-24,-48,-68
0,63,63,-31,-31,63,-34,-4,-19,-24,-48,-63
-4,63,68,-29,-36,65,-34,-4,-19,-29,-53,-63
-9,58,68,-24,-39,63,-34,-4,-14,-29,-48,-63
-9,53,63,-21,-36,58,-39,-9,-19,-29,-43,-63
-9,58,68,-24,-39,63,-43,-14,-19,-29,-43,-68
-9,73,82,-31,-46,78,-43,-19,-24,-34,-43,-73
-19,73,92,-26,-56,82,-43,-24,-29,-34,-43,-73
-14,68,82,-26,-48,75,-39,-24,-24,-34,-43,-73
-9,68,78,-29,-43,73,-39,-24,-24,-34,-43,-73
-9,68,78,-29,-43,73,-39,-24,-24,-34,-43,-73
-4,78,82,-36,-43,80,-34,-29,-29,-34,-48,-73
-9,78,87,-34,-48,82,-39,-24,-29,-29,-48,-73
-14,78,92,-31,-53,85,-39,-19,-29,-34,-53,-78
-14,68,82,-26,-48,75,-39,-19,-29,-34,-53,-78
-14,43,58,-14,-36,51,-39,-19,-29,-29,-53,-78
-14,63,78,-24,-46,70,-43,-24,-29,-29,-53,-78
-14,73,87,-29,-51,80,-43,-29,-29,-34,-53,-78
-9,68,78,-29,-43,73,-39,-29,-29,-34,-53,-78
-4,68,73,-31,-39,70,-39,-29,-29,-34,-53,-78
-9,68,78,-29,-43,73,-43,-34,-29,-34,-53,-78
-9,63,73,-26,-41,68,-43,-34,-29,-34,-53,-78
-14,63,78,-24,-46,70,-43,-34,-34,-39,-53,-78
-14,63,78,-24,-46,70,-43,-34,-39,-43,-53,-78
-14,73,87,-29,-51,80,-39,-34,-39,-39,-58,-78
-14,82,97,-34,-56,90,-39,-34,-39,-39,-58,-78
-14,73,87,-29,-51,80,-39,-34,-39,-39,-53,-73
-14,63,78,-24,-46,70,-43,-39,-43,-39,-53,-73
-14,63,78,-24,-46,70,-43,-39,-43,-39,-53,-73
-14,63,78,-24,-46,70,-39,-34,-39,-39,-53,-73
-19,63,82,-21,-51,73,-39,-34,-34,-29,-53,-73
-19,63,82,-21,-51,73,-43,-34,-34,-24,-53,-73
-19,53,73,-17,-46,63,-43,-34,-34,-24,-53,-73
-19,43,63,-12,-41,53,-39,-34,-34,-24,-53,-73
-19,53,73,-17,-46,63,-39,-34,-34,-29,-58,-73
-14,63,78,-24,-46,70,-39,-34,-34,-34,-58,-73
-9,63,73,-26,-41,68,-39,-34,-29,-29,-53,-68
-4,63,68,-29,-36,65,-39,-34,-29,-29,-53,-63
-4,68,73,-31,-39,70,-43,-34,-29,-29,-58,-68
-4,68,73,-31,-39,70,-43,-34,-29,-29,-58,-68
-9,63,73,-26,-41,68,-43,-34,-29,-34,-58,-68
-14,58,73,-21,-43,65,-43,-39,-34,-43,-58,-73
-24,58,82,-17,-53,70,-43,-39,-39,-43,-63,-73
-14,53,68,-19,-41,61,-43,-39,-39,-43,-63,-68
-9,53,63,-21,-36,58,-43,-39,-34,-39,-53,-68
-4,53,58,-24,-31,56,-43,-39,-34,-39,-48,-68
-9,53,63,-21,-36,58,-34,-29,-19,-34,-43,-73
-9,53,63,-21,-36,58,-24,-19,-9,-29,-34,-73
-9,48,58,-19,-34,53,-39,-24,-19,-29,-39,-63
-14,48,63,-17,-39,56,-48,-34,-29,-29,-43,-68
-14,48,63,-17,-39,56,-48,-39,-34,-39,-48,-68
-24,53,78,-14,-51,65,-43,-34,-29,-39,-53,-68
-24,63,87,-19,-56,75,-53,-39,-34,-39,-58,-73
-19,68,87,-24,-53,78,-53,-39,-34,-39,-63,-78
-9,68,78,-29,-43,73,-48,-24,-29,-34,-58,-68
-4,73,78,-34,-41,75,-39,-19,-24,-29,-58,-68
0,48,48,-24,-24,48,-29,-14,-14,-19,-43,-58
4,43,39,-24,-17,41,-14,0,-4,-9,-34,-48
9,48,39,-29,-14,43,-4,9,4,-4,-24,-43
19,58,39,-39,-9,48,0,19,19,0,-19,-39
39,78,39,-58,0,58,9,39,34,19,-4,-29
58,97,39,-78,9,68,19,58,48,39,9,-19
63,97,34,-80,14,65,24,68,58,43,14,-14
68,97,29,-82,19,63,29,78,68,48,19,-9
68,112,43,-90,12,78,43,82,78,58,24,0
68,126,58,-97,4,92,58,87,87,68,29,9
68,126,58,-97,4,92,58,87,92,73,34,9
68,126,58,-97,4,92,58,87,97,78,39,9
73,112,39,-92,17,75,34,87,97,78,43,14
78,97,19,-87,29,58,9,87,97,78,48,19
82,97,14,-90,34,56,-14,73,87,78,48,19
87,97,9,-92,39,53,-39,58,78,78,48,19
87,97,9,-92,39,53,-53,34,58,63,39,14
87,97,9,-92,39,53,-68,9,39,48,29,9
97,97,0,-97,48,48,-78,0,29,39,24,9
107,97,-9,-102,58,43,-87,-9,19,29,19,9
97,82,-14,-90,56,34,-87,-19,9,19,9,0
87,68,-19,-78,53,24,-87,-29,0,9,0,-9
82,63,-19,-73,51,21,-87,-29,-4,9,-4,-9
78,53,-24,-65,51,14,-78,-24,-4,9,-9,-9
78,43,-34,-61,56,4,-73,-19,-4,9,-14,-14
78,43,-34,-61,56,4,-63,-9,0,19,-9,-14
73,34,-39,-53,56,-2,-48,-4,0,19,0,-9
53,34,-19,-43,36,7,-43,-9,-4,4,-4,-14
48,34,-14,-41,31,9,-48,-14,-14,0,-9,-19
48,43,-4,-46,26,19,-48,-14,-14,0,-9,-24
43,43,0,-43,21,21,-53,-14,-14,0,-19,-34
9,24,14,-17,-2,19,-34,-19,-14,-9,-29,-48
-14,14,29,0,-21,21,-24,-19,-24,-19,-39,-58
-48,9,58,19,-53,34,-19,-24,-34,-29,-53,-73
-58,0,58,29,-58,29,-19,-34,-39,-39,-58,-73
-58,-4,53,31,-56,24,-19,-43,-39,-39,-63,-73
-53,-4,48,29,-51,21,-19,-43,-39,-39,-63,-73
-48,-14,34,31,-41,9,-19,-39,-39,-39,-63,-78
-48,-14,34,31,-41,9,-19,-39,-34,-39,-63,-78
-48,-4,43,26,-46,19,-19,-39,-29,-43,-63,-78
-48,0,48,24,-48,24,-19,-39,-34,-43,-63,-78
-48,0,48,24,-48,24,-19,-34,-34,-43,-63,-78
-53,-9,43,31,-48,17,-19,-34,-34,-39,-63,-78
-53,-14,39,34,-46,12,-19,-34,-29,-39,-58,-73
-53,-14,39,34,-46,12,-19,-34,-29,-39,-58,-68
-53,-14,39,34,-46,12,-19,-29,-29,-39,-58,-63
-58,-9,48,34,-53,19,-14,-29,-29,-39,-53,-68
-58,-9,48,34,-53,19,-4,-29,-29,-34,-53,-68
-53,-9,43,31,-48,17,-4,-29,-29,-29,-53,-68
-53,-9,43,31,-48,17,-4,-29,-29,-29,-53,-68
-58,-19,39,39,-48,9,-4,-29,-29,-34,-53,-68
-63,-19,43,41,-53,12,-4,-29,-29,-39,-53,-73
-63,-14,48,39,-56,17,-4,-29,-24,-39,-53,-73
-63,-9,53,36,-58,21,-4,-29,-19,-39,-53,-73
-68,-14,53,41,-61,19,-4,-29,-19,-39,-53,-73
-68,-24,43,46,-56,9,4,-29,-19,-39,-53,-68
-68,-24,43,46,-56,9,-4,-29,-19,-39,-53,-63
-68,-24,43,46,-56,9,-4,-29,-19,-39,-53,-58
-68,-29,39,48,-53,4,4,-24,-24,-39,-58,-58
-68,-39,29,53,-48,-4,19,-4,-19,-39,-63,-68
-78,-39,39,58,-58,0,68,39,14,-19,-63,-73
-78,-29,48,53,-63,9,107,126,112,39,-39,-68
-48,4,53,21,-51,29,141,297,322,204,58,-14
24,34,9,-29,7,21,112,375,453,346,165,53
63,58,-4,-61,34,26,68,331,468,390,204,92
63,78,14,-70,24,46,-24,175,424,395,229,126
53,68,14,-61,19,41,-248,-204,190,287,204,126
73,82,9,-78,31,46,-507,-497,14,229,195,136
136,126,-9,-131,73,58,-854,-800,-209,136,190,175
244,141,-102,-192,173,19,-1171,-985,-414,29,170,190
346,146,-200,-246,273,-26,-1342,-1019,-531,-34,126,180
331,170,-161,-251,246,4,-1410,-1312,-849,-263,19,156
283,165,-117,-224,200,24,-1317,-1522,-1171,-595,-126,102
283,185,-97,-234,190,43,-1224,-1512,-1263,-727,-180,92
326,287,-39,-307,183,124,-1127,-1429,-1176,-653,-112,175
395,336,-58,-366,226,139,-1054,-1307,-1039,-527,-4,292
409,331,-78,-370,244,126,-971,-1185,-932,-478,34,322
414,366,-48,-390,231,158,-893,-1049,-775,-380,82,341
385,346,-39,-366,212,153,-741,-883,-624,-278,112,336
322,312,-9,-317,165,151,-605,-722,-492,-204,122,312
268,283,14,-275,126,148,-478,-546,-351,-131,131,287
185,234,48,-209,68,141,-351,-385,-244,-87,92,209
97,146,48,-122,24,97,-224,-287,-185,-87,29,107
39,43,4,-41,17,24,-117,-185,-136,-82,-9,34
-4,14,19,-4,-12,17,-63,-87,-87,-78,-29,0
-34,-4,29,19,-31,12,-19,-14,-43,-48,-34,-24
-53,-19,34,36,-43,7,14,9,-14,-34,-43,-53
-58,-43,14,51,-36,-14,34,24,0,-19,-43,-53
-53,-34,19,43,-36,-7,48,43,9,-14,-39,-48
-48,-34,14,41,-31,-9,58,63,24,-9,-34,-48
-48,-43,4,46,-26,-19,78,73,29,-4,-34,-58
-48,-43,4,46,-26,-19,87,82,34,-4,-34,-63
-53,-48,4,51,-29,-21,92,92,43,-4,-39,-68
-58,-63,-4,61,-26,-34,97,102,43,0,-39,-68
-58,-68,-9,63,-24,-39,102,112,53,0,-39,-68
-58,-73,-14,65,-21,-43,107,117,53,4,-43,-73
-58,-73,-14,65,-21,-43,117,126,58,4,-48,-73
-68,-78,-9,73,-29,-43,117,131,63,4,-53,-73
-73,-82,-9,78,-31,-46,122,141,68,14,-53,-73
-73,-82,-9,78,-31,-46,131,151,68,19,-53,-73
-73,-82,-9,78,-31,-46,136,156,78,19,-53,-73
-73,-82,-9,78,-31,-46,146,161,82,24,-48,-73
-78,-82,-4,80,-36,-43,151,170,87,19,-48,-82
-82,-82,0,82,-41,-41,156,180,87,19,-48,-82
-87,-82,4,85,-46,-39,170,190,102,19,-48,-82
-87,-82,4,85,-46,-39,180,204,102,19,-53,-82
-82,-78,4,80,-43,-36,190,214,112,24,-53,-82
-78,-73,4,75,-41,-34,200,234,117,24,-48,-82
-82,-73,9,78,-46,-31,219,244,126,34,-48,-82
-92,-82,9,87,-51,-36,239,268,136,39,-48,-87
-97,-82,14,90,-56,-34,253,278,146,43,-48,-87
-97,-82,14,90,-56,-34,268,287,146,43,-48,-87
-102,-82,19,92,-61,-31,283,307,156,43,-43,-87
-102,-78,24,90,-63,-26,302,326,165,53,-39,-87
-102,-78,24,90,-63,-26,322,346,185,63,-39,-87
-112,-78,34,95,-73,-21,341,370,200,68,-39,-87
-112,-68,43,90,-78,-12,361,385,209,73,-39,-87
-122,-53,68,87,-95,7,375,395,214,73,-34,-97
-131,-53,78,92,-104,12,390,409,219,73,-34,-92
-136,-48,87,92,-112,19,405,424,229,78,-34,-92
-136,-34,102,85,-119,34,419,434,239,78,-39,-92
-136,-29,107,82,-122,39,429,439,244,78,-39,-92
-146,-34,112,90,-129,39,444,444,253,82,-34,-87
-151,-34,117,92,-134,41,453,448,258,82,-34,-82
-161,-14,146,87,-153,65,453,439,258,78,-34,-78
-161,-9,151,85,-156,70,453,429,258,78,-29,-73
-156,19,175,68,-165,97,448,409,248,73,-29,-78
-156,43,200,56,-178,122,439,390,234,73,-19,-68
-161,58,219,51,-190,139,419,341,219,63,-19,-68
-161,58,219,51,-190,139,400,312,209,58,-14,-58
-151,78,229,36,-190,153,366,273,190,53,-14,-53
-141,97,239,21,-190,168,341,239,175,43,-4,-39
-131,102,234,14,-183,168,317,195,156,39,0,-24
-117,122,239,-2,-178,180,273,146,136,29,4,-14
-107,131,239,-12,-173,185,229,97,102,19,14,-4
-92,131,224,-19,-158,178,185,53,82,19,24,19
-82,136,219,-26,-151,178,146,24,58,9,19,24
-73,161,234,-43,-153,197,112,-14,34,0,19,29
-63,151,214,-43,-139,183,87,-39,19,-14,19,29
-53,141,195,-43,-124,168,53,-63,-4,-19,19,29
-39,126,165,-43,-102,146,39,-73,-4,-24,19,34
-24,122,146,-48,-85,134,24,-73,-14,-29,19,34
-14,117,131,-51,-73,124,9,-73,-19,-24,14,29
-4,112,117,-53,-61,114,-4,-73,-24,-24,9,29
4,102,97,-53,-46,100,-4,-68,-24,-24,9,19
9,87,78,-48,-34,82,-9,-63,-19,-24,4,19
9,82,73,-46,-31,78,-19,-58,-19,-24,4,19
9,82,73,-46,-31,78,-24,-58,-19,-24,4,9
4,73,68,-39,-31,70,-29,-58,-19,-19,-4,4
4,58,53,-31,-24,56,-29,-48,-19,-14,-4,0
4,48,43,-26,-19,46,-29,-48,-19,-14,-4,0
4,39,34,-21,-14,36,-24,-39,-14,-14,-4,0
4,43,39,-24,-17,41,-24,-34,-14,-19,-14,-9
4,43,39,-24,-17,41,-24,-29,-14,-19,-19,-14
4,53,48,-29,-21,51,-19,-24,-9,-14,-19,-14
4,48,43,-26,-19,46,-14,-19,-9,-14,-19,-14
4,29,24,-17,-9,26,-14,-19,-14,-14,-19,-19
4,14,9,-9,-2,12,-14,-19,-14,-14,-14,-24
0,14,14,-7,-7,14,-14,-19,-9,-14,-14,-24
-4,9,14,-2,-9,12,-14,-14,-4,-9,-9,-19
-4,14,19,-4,-12,17,-14,-9,-4,-4,-9,-14
-4,14,19,-4,-12,17,-14,-4,-4,-4,-9,-9
0,14,14,-7,-7,14,-9,-4,4,0,-9,-9
4,19,14,-12,-4,17,-9,-4,4,0,-9,-9
4,14,9,-9,-2,12,-9,0,4,0,-9,-4
4,9,4,-7,0,7,-9,4,9,0,-4,-4
0,4,4,-2,-2,4,-4,9,14,4,0,-4
-4,4,9,0,-7,7,-4,9,14,4,0,-9
-4,4,9,0,-7,7,-9,9,14,0,-4,-14
-4,4,9,0,-7,7,-9,9,14,-4,-9,-14
-4,9,14,-2,-9,12,-14,9,4,-4,-9,-9
-4,4,9,0,-7,7,-19,19,4,-4,-9,-9
-9,4,14,2,-12,9,-9,19,14,0,0,-9
-9,4,14,2,-12,9,0,19,24,4,9,-9
-4,4,9,0,-7,7,4,24,24,9,0,-9
-4,4,9,0,-7,7,4,24,29,9,-4,-9
-4,9,14,-2,-9,12,0,24,24,14,-4,-14
-4,14,19,-4,-12,17,-4,19,14,14,-4,-19
-4,14,19,-4,-12,17,-9,19,14,9,-4,-19
-4,19,24,-7,-14,21,-14,14,14,9,-9,-19
-4,19,24,-7,-14,21,-14,14,19,4,-9,-19
-4,14,19,-4,-12,17,-9,14,19,4,-9,-24
-4,9,14,-2,-9,12,-9,19,19,4,-9,-24
-9,-4,4,7,-7,0,-9,24,19,4,-9,-19
-4,4,9,0,-7,7,-4,24,19,4,-14,-19
4,9,4,-7,0,7,0,24,19,4,-14,-14
4,19,14,-12,-4,17,0,24,19,14,-4,-9
4,24,19,-14,-7,21,0,24,19,14,-4,-9
0,14,14,-7,-7,14,0,24,19,9,-9,-9
-4,4,9,0,-7,7,4,24,14,4,-14,-14
-4,0,4,2,-4,2,4,24,14,0,-14,-14
-4,0,4,2,-4,2,4,24,14,0,-4,-9
-4,4,9,0,-7,7,4,19,14,0,-4,-14
-4,4,9,0,-7,7,4,19,9,0,-4,-19
-4,-4,0,4,-2,-2,-4,14,14,-4,-9,-24
0,-4,-4,2,2,-4,-4,14,19,-4,-9,-24
0,-4,-4,2,2,-4,-4,14,14,-14,-19,-19
0,-9,-9,4,4,-9,-4,14,14,-19,-19,-14
4,-14,-19,4,12,-17,-4,9,9,-19,-14,-14
9,-9,-19,0,14,-14,-4,4,9,-19,-14,-19
9,4,-4,-7,7,0,-4,9,9,-19,-14,-24
0,4,4,-2,-2,4,-4,14,9,-14,-14,-24
-4,0,4,2,-4,2,0,14,4,-14,-14,-24
-9,0,9,4,-9,4,0,14,-4,-14,-14,-24
-9,-4,4,7,-7,0,-4,14,0,-9,-9,-24
-4,0,4,2,-4,2,-4,9,0,-4,-9,-24
0,0,0,0,0,0,-9,9,0,-4,-9,-24
4,0,-4,-2,4,-2,-9,9,0,-14,-14,-29
4,14,9,-9,-2,12,-9,9,0,-19,-19,-29
4,14,9,-9,-2,12,-9,9,0,-19,-24,-29
4,9,4,-7,0,7,-9,9,0,-19,-24,-29
4,-4,-9,0,7,-7,-4,9,0,-24,-24,-29
4,-9,-14,2,9,-12,0,9,-4,-24,-24,-29
4,-9,-14,2,9,-12,0,9,-9,-24,-24,-29
0,-4,-4,2,2,-4,-4,4,-9,-24,-24,-29
0,-4,-4,2,2,-4,-4,4,-9,-24,-24,-29
0,-4,-4,2,2,-4,-4,4,-9,-24,-24,-29
4,-4,-9,0,7,-7,-4,4,-9,-24,-24,-29
0,-4,-4,2,2,-4,0,4,-9,-19,-29,-29
-4,-4,0,4,-2,-2,0,4,-9,-19,-29,-29
-4,-19,-14,12,4,-17,0,4,-4,-19,-24,-24
-4,-34,-29,19,12,-31,-4,0,-4,-19,-24,-24
-4,-19,-14,12,4,-17,-4,0,-4,-19,-24,-24
-4,-4,0,4,-2,-2,0,4,0,-19,-24,-24
-9,-4,4,7,-7,0,0,4,0,-19,-24,-24
-9,-4,4,7,-7,0,-4,4,-4,-24,-24,-24
0,-4,-4,2,2,-4,-9,4,-9,-24,-24,-24
9,-4,-14,-2,12,-9,-9,4,-14,-24,-24,-24
0,-4,-4,2,2,-4,-9,4,-14,-24,-29,-24
-4,-4,0,4,-2,-2,-9,4,-14,-24,-29,-24
-4,-24,-19,14,7,-21,-9,4,-9,-19,-24,-19
-4,-43,-39,24,17,-41,-9,4,-9,-19,-24,-14
-4,-19,-14,12,4,-17,-14,4,-9,-19,-29,-19
-4,0,4,2,-4,2,-14,4,-9,-19,-29,-19
-4,0,4,2,-4,2,-9,4,-4,-19,-24,-24
-4,0,4,2,-4,2,-4,0,-4,-24,-19,-34
-14,0,14,7,-14,7,-4,0,-9,-24,-24,-34
-4,-4,0,4,-2,-2,-4,0,-9,-24,-24,-29
-4,-29,-24,17,9,-26,-4,9,-4,-19,-9,-19
-4,-53,-48,29,21,-51,-4,19,-4,-19,0,-9
-9,-29,-19,19,4,-24,-4,9,-4,-29,-19,-29
-9,-4,4,7,-7,0,-4,0,-9,-39,-34,-43
-4,-9,-4,7,0,-7,-4,4,-9,-39,-34,-29
-4,-9,-4,7,0,-7,0,4,-9,-39,-34,-29
-4,-14,-9,9,2,-12,-4,-4,-14,-39,-34,-29
-14,-14,0,14,-7,-7,-4,-4,-9,-29,-34,-29
-9,0,9,4,-9,4,-14,-9,-14,-29,-34,-34
0,9,9,-4,-4,9,-14,-9,-14,-29,-34,-39
0,-4,-4,2,2,-4,-9,4,-14,-29,-29,-29
-4,-14,-9,9,2,-12,0,9,-14,-29,-29,-29
-9,-24,-14,17,2,-19,-4,0,-14,-29,-29,-24
-14,-14,0,14,-7,-7,-4,0,-14,-29,-34,-19
0,-29,-29,14,14,-29,0,9,-4,-24,-29,-19
9,-48,-58,19,34,-53,0,19,0,-19,-29,-19
9,-19,-29,4,19,-24,0,24,0,-19,-29,-19
9,9,0,-9,4,4,0,29,0,-19,-29,-19
34,24,-9,-29,21,7,24,48,24,-4,-14,-9
58,39,-19,-48,39,9,48,68,48,9,0,0
63,39,-24,-51,43,7,53,78,48,19,4,4
68,39,-29,-53,48,4,58,87,48,29,9,9
68,48,-19,-58,43,14,63,97,63,39,19,19
68,58,-9,-63,39,24,68,107,78,48,29,29
68,58,-9,-63,39,24,78,112,87,58,39,34
68,58,-9,-63,39,24,87,117,97,68,48,39
68,53,-14,-61,41,19,78,117,97,68,48,39
68,48,-19,-58,43,14,68,117,97,68,48,39
78,48,-29,-63,53,9,34,102,92,63,48,39
87,48,-39,-68,63,4,0,87,87,58,48,39
87,53,-34,-70,61,9,-19,63,68,48,43,34
87,58,-29,-73,58,14,-39,39,48,39,39,29
97,58,-39,-78,68,9,-48,34,43,34,34,29
107,58,-48,-82,78,4,-58,29,39,29,29,29
107,58,-48,-82,78,4,-58,19,29,24,29,29
107,58,-48,-82,78,4,-58,9,19,19,29,29
97,9,-87,-53,92,-39,-58,4,4,9,19,24
87,0,-87,-43,87,-43,-58,0,0,0,9,19
78,-14,-92,-31,85,-53,-58,-4,-9,-9,0,14
73,4,-68,-39,70,-31,-53,0,-4,-14,-4,14
73,4,-68,-39,70,-31,-43,9,0,-9,0,14
73,-4,-78,-34,75,-41,-34,9,0,-9,0,14
53,-4,-58,-24,56,-31,-34,0,-4,-24,-14,4
48,-4,-53,-21,51,-29,-39,-4,-14,-29,-19,0
48,4,-43,-26,46,-19,-39,-4,-14,-29,-19,-9
43,4,-39,-24,41,-17,-39,0,-14,-29,-24,-19
9,-24,-34,7,21,-29,-9,4,-14,-34,-29,-29
-9,-43,-34,26,12,-39,4,9,-24,-39,-39,-39
-39,-48,-9,43,-14,-29,9,4,-34,-48,-48,-53
-48,-58,-9,53,-19,-34,9,-4,-39,-58,-48,-53
-48,-58,-9,53,-19,-34,9,-14,-39,-58,-53,-53
-48,-53,-4,51,-21,-29,9,-14,-39,-58,-53,-53
-48,-63,-14,56,-17,-39,0,-9,-39,-58,-53,-58
-48,-63,-14,56,-17,-39,-9,-9,-39,-58,-53,-58
-48,-53,-4,51,-21,-29,0,-9,-39,-63,-53,-58
-48,-48,0,48,-24,-24,9,-14,-43,-63,-53,-58
-48,-48,0,48,-24,-24,9,-14,-43,-63,-58,-58
-53,-53,0,53,-26,-26,9,-14,-43,-58,-63,-58
-53,-53,0,53,-26,-26,9,-19,-39,-58,-58,-53
-53,-53,0,53,-26,-26,9,-24,-39,-58,-58,-53
-48,-48,0,48,-24,-24,9,-19,-39,-63,-58,-53
-48,-39,9,43,-29,-14,9,-19,-39,-73,-58,-58
-48,-39,9,43,-29,-14,14,-19,-39,-73,-63,-58
-43,-39,4,41,-24,-17,14,-19,-39,-68,-63,-58
-48,-48,0,48,-24,-24,14,-14,-34,-63,-63,-53
-53,-68,-14,61,-19,-41,14,-9,-29,-58,-63,-48
-53,-82,-29,68,-12,-56,14,-9,-29,-58,-63,-53
-53,-92,-39,73,-7,-65,14,-9,-29,-58,-63,-53
-53,-73,-19,63,-17,-46,14,-9,-39,-58,-63,-58
-58,-58,0,58,-29,-29,14,-9,-48,-58,-63,-63
-58,-63,-4,61,-26,-34,24,-9,-39,-58,-58,-58
-58,-63,-4,61,-26,-34,14,-9,-29,-58,-53,-58
-58,-63,-4,61,-26,-34,9,-14,-29,-58,-53,-58
-58,-63,-4,61,-26,-34,14,-14,-29,-58,-53,-58
-58,-73,-14,65,-21,-43,29,-4,-39,-68,-58,-73
-68,-78,-9,73,-29,-43,78,43,-9,-53,-63,-78
-82,-68,14,75,-48,-26,126,146,102,0,-48,-68
-68,-34,34,51,-51,0,161,292,292,156,39,-14
19,0,-19,-9,19,-9,136,390,444,322,161,58
73,34,-39,-53,56,-2,92,366,483,375,209,102
73,63,-9,-68,41,26,14,219,458,390,244,146
63,68,4,-65,29,36,-195,-126,258,307,234,156
68,92,24,-80,21,58,-453,-439,82,253,224,165
117,122,4,-119,56,63,-766,-741,-141,165,219,204
239,112,-126,-175,183,-7,-1112,-893,-331,87,219,234
351,107,-244,-229,297,-68,-1307,-927,-444,29,195,239
331,146,-185,-239,258,-19,-1376,-1283,-810,-244,73,204
283,170,-112,-226,197,29,-1307,-1512,-1137,-561,-82,151
268,185,-82,-226,175,51,-1215,-1498,-1229,-702,-146,141
297,258,-39,-278,168,109,-1117,-1434,-1176,-673,-92,204
375,307,-68,-341,222,119,-1044,-1307,-1044,-546,14,322
395,302,-92,-348,244,104,-951,-1176,-936,-488,53,361
405,331,-73,-368,239,129,-868,-1034,-775,-375,112,390
385,317,-68,-351,226,124,-722,-873,-624,-278,146,390
322,283,-39,-302,180,122,-585,-712,-488,-209,151,361
268,239,-29,-253,148,104,-458,-536,-346,-131,161,336
185,170,-14,-178,100,78,-331,-375,-244,-87,117,258
102,87,-14,-95,58,36,-214,-283,-190,-87,48,156
48,-9,-58,-19,53,-34,-107,-175,-146,-87,4,68
9,-43,-53,17,31,-48,-43,-78,-97,-87,-19,24
-19,-63,-43,41,12,-53,0,-14,-53,-58,-24,0
-43,-78,-34,61,-4,-56,34,9,-24,-43,-34,-34
-48,-112,-63,80,7,-87,58,29,-4,-29,-39,-34
-48,-112,-63,80,7,-87,73,53,4,-29,-43,-34
-48,-112,-63,80,7,-87,78,73,14,-29,-43,-39
-48,-122,-73,85,12,-97,92,78,19,-24,-43,-48
-48,-112,-63,80,7,-87,92,82,24,-24,-43,-53
-53,-102,-48,78,-2,-75,92,92,34,-24,-48,-58
-58,-112,-53,85,-2,-82,97,102,34,-19,-48,-58
-58,-117,-58,87,0,-87,107,112,43,-19,-48,-58
-58,-126,-68,92,4,-97,117,117,43,-14,-53,-68
-58,-131,-73,95,7,-102,126,126,48,-14,-53,-73
-68,-141,-73,104,2,-107,126,131,48,-14,-53,-73
-73,-151,-78,112,2,-114,131,141,48,-9,-53,-73
-73,-151,-78,112,2,-114,141,151,48,-9,-53,-73
-73,-151,-78,112,2,-114,146,156,58,-9,-53,-73
-73,-151,-78,112,2,-114,156,161,63,-4,-48,-73
-73,-151,-78,112,2,-114,161,170,68,-4,-48,-82
-73,-136,-63,104,-4,-100,165,180,68,0,-48,-82
-78,-122,-43,100,-17,-82,180,190,82,0,-48,-82
-78,-136,-58,107,-9,-97,195,204,87,4,-48,-73
-78,-151,-73,114,-2,-112,209,214,102,14,-43,-63
-78,-151,-73,114,-2,-112,219,229,107,14,-39,-63
-82,-151,-68,117,-7,-109,239,234,117,24,-39,-63
-92,-161,-68,126,-12,-114,253,258,126,19,-43,-73
-97,-161,-63,129,-17,-112,263,273,136,14,-48,-78
-97,-161,-63,129,-17,-112,278,287,136,14,-48,-82
-102,-161,-58,131,-21,-109,292,307,146,14,-48,-87
-102,-151,-48,126,-26,-100,312,326,151,24,-48,-87
-102,-146,-43,124,-29,-95,331,341,161,34,-48,-87
-112,-146,-34,129,-39,-90,351,361,170,39,-48,-87
-112,-141,-29,126,-41,-85,370,375,180,39,-48,-87
-122,-136,-14,129,-53,-75,385,385,185,34,-43,-97
-131,-141,-9,136,-61,-75,400,395,190,34,-43,-97
-141,-141,0,141,-70,-70,419,405,204,43,-43,-102
-146,-131,14,139,-80,-58,439,414,219,48,-48,-102
-146,-126,19,136,-82,-53,448,419,224,48,-48,-102
-151,-126,24,139,-87,-51,458,419,229,53,-43,-97
-146,-122,24,134,-85,-48,463,419,229,53,-43,-92
-151,-102,48,126,-100,-26,463,409,229,48,-43,-87
-151,-97,53,124,-102,-21,463,409,229,48,-39,-82
-146,-78,68,112,-107,-4,458,400,224,43,-39,-82
-146,-53,92,100,-119,19,448,385,214,43,-29,-68
-151,-29,122,90,-136,46,429,341,200,34,-29,-68
-151,-39,112,95,-131,36,419,312,195,29,-24,-58
-146,-24,122,85,-134,48,390,273,175,24,-24,-53
-141,0,141,70,-141,70,361,239,156,14,-14,-39
-131,9,141,61,-136,75,336,195,136,9,-14,-24
-117,34,151,41,-134,92,292,146,117,0,-14,-9
-107,43,151,31,-129,97,253,102,82,-9,-4,0
-92,29,122,31,-107,75,214,63,73,-4,19,29
-78,14,92,31,-85,53,180,39,63,-9,34,43
-68,58,126,4,-97,92,146,-4,34,-19,29,39
-63,73,136,-4,-100,104,117,-34,14,-29,19,34
-53,63,117,-4,-85,90,82,-53,-4,-34,19,39
-39,48,87,-4,-63,68,68,-63,-4,-39,19,43
-19,43,63,-12,-41,53,53,-68,-14,-39,19,48
-9,39,48,-14,-29,43,39,-73,-14,-34,19,48
-4,34,39,-14,-21,36,19,-73,-14,-29,19,48
4,19,14,-12,-4,17,14,-68,-14,-24,19,39
9,-14,-24,2,17,-19,9,-58,-9,-24,14,39
9,-34,-43,12,26,-39,4,-48,-9,-24,14,39
14,-24,-39,4,26,-31,4,-48,-4,-24,14,29
14,-19,-34,2,24,-26,0,-48,0,-24,4,24
14,-29,-43,7,29,-36,0,-39,0,-19,9,19
14,-39,-53,12,34,-46,0,-39,0,-14,14,19
14,-53,-68,19,41,-61,4,-29,4,-14,14,19
14,-58,-73,21,43,-65,4,-24,4,-14,9,14
14,-68,-82,26,48,-75,4,-19,4,-9,9,14
14,-73,-87,29,51,-80,4,-14,9,-4,9,14
14,-87,-102,36,58,-95,4,-9,14,-4,9,19
14,-87,-102,36,58,-95,4,-9,14,-4,4,19
14,-82,-97,34,56,-90,9,-9,14,-4,9,14
14,-82,-97,34,56,-90,14,-9,19,-4,14,14
14,-87,-102,36,58,-95,14,-4,24,0,19,19
14,-87,-102,36,58,-95,14,0,24,4,19,19
9,-92,-102,41,56,-97,9,4,19,4,19,14
4,-92,-97,43,51,-95,9,4,24,9,19,9
4,-92,-97,43,51,-95,9,4,24,9,14,9
4,-97,-102,46,53,-100,9,9,24,9,9,14
14,-97,-112,41,63,-104,9,14,34,9,14,19
24,-102,-126,39,75,-114,14,19,43,14,19,24
24,-107,-131,41,78,-119,14,19,43,14,19,19
24,-112,-136,43,80,-124,9,19,43,14,19,14
19,-112,-131,46,75,-122,9,19,43,14,19,14
14,-112,-126,48,70,-119,14,19,43,14,19,19
14,-122,-136,53,75,-129,24,29,58,24,24,19
9,-122,-131,56,70,-126,29,29,63,34,29,19
4,-126,-131,61,68,-129,29,34,63,34,29,19
4,-131,-136,63,70,-134,34,43,63,39,29,19
4,-136,-141,65,73,-139,34,43,73,39,34,24
4,-141,-146,68,75,-143,34,48,78,43,34,29
9,-141,-151,65,80,-146,34,48,73,43,39,29
14,-141,-156,63,85,-148,34,48,73,39,43,29
14,-136,-151,61,82,-143,34,43,73,39,39,29
14,-136,-151,61,82,-143,34,43,78,39,39,29
14,-131,-146,58,80,-139,39,43,78,43,39,24
14,-122,-136,53,75,-129,39,43,78,43,39,24
4,-151,-156,73,80,-153,39,48,78,39,39,24
4,-156,-161,75,82,-158,39,53,78,34,34,24
4,-156,-161,75,82,-158,39,53,78,34,34,24
