I, II, III, aVR, aVL, aVF, V1, V2, V3, V4, V5, V6
19,87,68,-53,-24,78,-107,-97,-58,-29,-97,0
4,63,58,-34,-26,61,-29,-43,-43,-24,-97,-9
-9,39,48,-14,-29,43,48,9,-29,-19,-97,-19
-14,29,43,-7,-29,36,53,39,-14,-4,-97,-29
-19,19,39,0,-29,29,58,68,0,9,-97,-39
-19,14,34,2,-26,24,58,68,0,0,-102,-43
-19,9,29,4,-24,19,58,68,0,-9,-107,-48
-19,4,24,7,-21,14,63,68,0,-9,-112,-48
-19,0,19,9,-19,9,68,68,0,-9,-117,-48
-19,0,19,9,-19,9,68,68,0,-9,-117,-48
-19,0,19,9,-19,9,68,68,0,-9,-117,-48
-19,0,19,9,-19,9,68,73,4,-4,-112,-48
-19,0,19,9,-19,9,68,78,9,0,-107,-48
-19,0,19,9,-19,9,68,78,14,0,-107,-48
-19,0,19,9,-19,9,68,78,19,0,-107,-48
-19,0,19,9,-19,9,68,82,24,4,-107,-43
-19,0,19,9,-19,9,68,87,29,9,-107,-39
-19,4,24,7,-21,14,68,87,34,9,-107,-39
-19,9,29,4,-24,19,68,87,39,9,-107,-39
-24,9,34,7,-29,21,68,82,39,9,-107,-39
-29,9,39,9,-34,24,68,78,39,9,-107,-39
-29,14,43,7,-36,29,68,78,43,9,-107,-39
-29,19,48,4,-39,34,68,78,48,9,-107,-39
-29,19,48,4,-39,34,68,78,53,9,-107,-34
-29,19,48,4,-39,34,68,78,58,9,-107,-29
-29,24,53,2,-41,39,68,78,63,9,-107,-29
-29,29,58,0,-43,43,68,78,68,9,-107,-29
-29,29,58,0,-43,43,73,78,73,14,-112,-29
-29,29,58,0,-43,43,78,78,78,19,-117,-29
-34,34,68,0,-51,51,78,78,78,19,-117,-34
-39,39,78,0,-58,58,78,78,78,19,-117,-39
-39,39,78,0,-58,58,78,78,82,19,-117,-39
-39,39,78,0,-58,58,78,78,87,19,-117,-39
-43,43,87,0,-65,65,78,82,92,19,-117,-39
-48,48,97,0,-73,73,78,87,97,19,-117,-39
-53,53,107,0,-80,80,82,87,102,19,-117,-39
-58,58,117,0,-87,87,87,87,107,19,-117,-39
-58,63,122,-2,-90,92,92,87,112,19,-117,-39
-58,68,126,-4,-92,97,97,87,117,19,-117,-39
-63,68,131,-2,-97,100,102,92,126,24,-117,-39
-68,68,136,0,-102,102,107,97,136,29,-117,-39
-73,73,146,0,-109,109,112,97,141,29,-117,-39
-78,78,156,0,-117,117,117,97,146,29,-117,-39
-87,82,170,2,-129,126,122,97,146,29,-122,-39
-97,87,185,4,-141,136,126,97,146,29,-126,-39
-107,92,200,7,-153,146,131,92,151,29,-131,-43
-117,97,214,9,-165,156,136,87,156,29,-136,-48
-131,97,229,17,-180,163,141,78,161,29,-146,-58
-146,97,244,24,-195,170,146,68,165,29,-156,-68
-156,97,253,29,-204,175,156,63,170,29,-161,-73
-165,97,263,34,-214,180,165,58,175,29,-165,-78
-185,97,283,43,-234,190,170,48,175,24,-165,-82
-204,97,302,53,-253,200,175,39,175,19,-165,-87
-214,92,307,61,-261,200,175,29,175,14,-175,-97
-224,87,312,68,-268,200,175,19,175,9,-185,-107
-234,78,312,78,-273,195,175,9,170,0,-200,-122
-244,68,312,87,-278,190,175,0,165,-9,-214,-136
-258,53,312,102,-285,183,175,-9,156,-19,-224,-146
-273,39,312,117,-292,175,175,-19,146,-29,-234,-156
-273,24,297,124,-285,161,170,-29,136,-43,-244,-170
-273,9,283,131,-278,146,165,-39,126,-58,-253,-185
-263,-14,248,139,-256,117,156,-39,117,-68,-268,-200
-253,-39,214,146,-234,87,146,-39,107,-78,-283,-214
-229,-48,180,139,-204,65,136,-39,92,-92,-292,-214
-204,-58,146,131,-175,43,126,-39,78,-107,-302,-214
-180,-63,117,122,-148,26,107,-29,73,-107,-302,-214
-156,-68,87,112,-122,9,87,-19,68,-107,-302,-214
-122,-68,53,95,-87,-7,73,-14,68,-107,-287,-195
-87,-68,19,78,-53,-24,58,-9,68,-107,-273,-175
-63,-53,9,58,-36,-21,39,-4,78,-97,-258,-156
-39,-39,0,39,-19,-19,19,0,87,-87,-244,-136
-9,-19,-9,14,0,-14,0,0,102,-68,-209,-97
19,0,-19,-9,19,-9,-19,0,117,-48,-175,-58
34,14,-19,-24,26,-2,-34,0,131,-34,-161,-39
48,29,-19,-39,34,4,-48,0,146,-19,-146,-19
63,39,-24,-51,43,7,-58,-4,156,-4,-122,4
78,48,-29,-63,53,9,-68,-9,165,9,-97,29
82,58,-24,-70,53,17,-73,-9,170,19,-92,39
87,68,-19,-78,53,24,-78,-9,175,29,-87,48
92,73,-19,-82,56,26,-82,-14,185,34,-73,58
97,78,-19,-87,58,29,-87,-19,195,39,-58,68
97,82,-14,-90,56,34,-92,-19,195,39,-58,68
97,87,-9,-92,53,39,-97,-19,195,39,-58,68
102,87,-14,-95,58,36,-97,-19,195,43,-53,73
107,87,-19,-97,63,34,-97,-19,195,48,-48,78
107,87,-19,-97,63,34,-97,-19,200,48,-48,78
107,87,-19,-97,63,34,-97,-19,204,48,-48,78
102,87,-14,-95,58,36,-97,-19,204,48,-43,82
97,87,-9,-92,53,39,-97,-19,204,48,-39,87
97,87,-9,-92,53,39,-97,-14,209,53,-34,87
97,87,-9,-92,53,39,-97,-9,214,58,-29,87
97,87,-9,-92,53,39,-92,-9,219,58,-24,87
97,87,-9,-92,53,39,-87,-9,224,58,-19,87
97,87,-9,-92,53,39,-87,-9,229,58,-19,92
97,87,-9,-92,53,39,-87,-9,234,58,-19,97
92,82,-9,-87,51,36,-87,-9,234,58,-19,97
87,78,-9,-82,48,34,-87,-9,234,58,-19,97
87,78,-9,-82,48,34,-82,-9,229,53,-14,97
87,78,-9,-82,48,34,-78,-9,224,48,-9,97
82,78,-4,-80,43,36,-78,-9,224,48,-9,97
78,78,0,-78,39,39,-78,-9,224,48,-9,97
78,73,-4,-75,41,34,-78,-9,224,48,-9,97
78,68,-9,-73,43,29,-78,-9,224,48,-9,97
73,63,-9,-68,41,26,-78,-9,224,43,-9,92
68,58,-9,-63,39,24,-78,-9,224,39,-9,87
68,58,-9,-63,39,24,-73,-9,229,39,-14,87
68,58,-9,-63,39,24,-68,-9,234,39,-19,87
63,58,-4,-61,34,26,-68,-4,234,39,-19,87
58,58,0,-58,29,29,-68,0,234,39,-19,87
58,53,-4,-56,31,24,-68,0,234,34,-19,87
58,48,-9,-53,34,19,-68,0,234,29,-19,87
58,48,-9,-53,34,19,-68,0,234,29,-19,87
58,48,-9,-53,34,19,-68,0,234,29,-19,87
53,43,-9,-48,31,17,-63,0,234,29,-19,87
48,39,-9,-43,29,14,-58,0,234,29,-19,87
48,34,-14,-41,31,9,-58,0,234,29,-24,87
48,29,-19,-39,34,4,-58,0,234,29,-29,87
48,29,-19,-39,34,4,-58,0,234,29,-29,87
48,29,-19,-39,34,4,-58,0,234,29,-29,87
48,24,-24,-36,36,0,-58,0,234,29,-29,82
48,24,-24,-36,36,0,-53,0,239,34,-24,82
48,29,-19,-39,34,4,-53,4,244,39,-19,82
53,43,-9,-48,31,17,-43,14,258,53,-14,92
58,53,-4,-56,31,24,-39,14,258,53,-14,92
58,73,14,-65,21,43,-29,19,273,58,-4,97
58,78,19,-68,19,48,-19,24,273,58,4,107
58,82,24,-70,17,53,-14,29,283,58,4,107
63,78,14,-70,24,46,-9,19,283,68,4,112
68,78,9,-73,29,43,-24,9,292,78,9,117
82,131,48,-107,17,90,-58,-9,312,87,24,131
82,156,73,-119,4,114,-78,-14,326,97,34,156
82,165,82,-124,0,124,-87,-24,326,97,48,156
82,165,82,-124,0,124,-97,-34,322,92,34,156
82,141,58,-112,12,100,-107,-43,297,82,29,151
82,131,48,-107,17,90,-112,-48,297,78,19,131
87,131,43,-109,21,87,-112,-48,302,78,19,131
87,131,43,-109,21,87,-107,-39,302,87,24,136
97,146,48,-122,24,97,-107,-34,297,82,29,146
97,146,48,-122,24,97,-102,-29,297,78,24,151
102,107,4,-104,48,56,-97,-24,297,63,9,136
87,53,-34,-70,61,9,-78,-19,283,39,-14,112
43,14,-29,-29,36,-7,-53,-14,268,19,-39,87
19,0,-19,-9,19,-9,-48,-14,258,4,-53,68
14,-19,-34,2,24,-26,-43,-14,244,-4,-68,48
14,-29,-43,7,29,-36,-43,-14,244,-4,-73,39
9,-34,-43,12,26,-39,-43,-14,234,-4,-78,39
4,-34,-39,14,21,-36,-43,-14,229,-9,-82,39
4,-34,-39,14,21,-36,-43,-19,229,-9,-82,34
4,-34,-39,14,21,-36,-43,-24,229,-9,-87,29
4,-29,-34,12,19,-31,-39,-24,229,-9,-87,29
4,-29,-34,12,19,-31,-39,-19,229,-14,-87,29
0,-29,-29,14,14,-29,-34,-14,234,-9,-87,29
-4,-29,-24,17,9,-26,-29,-9,229,-4,-92,24
-4,-29,-24,17,9,-26,-29,-9,229,-4,-92,19
-4,-29,-24,17,9,-26,-24,-9,234,-4,-92,14
-4,-29,-24,17,9,-26,-24,-9,234,-4,-92,14
-4,-29,-24,17,9,-26,-24,-4,234,-4,-92,14
-4,-24,-19,14,7,-21,-24,-4,234,-4,-92,9
-4,-19,-14,12,4,-17,-24,-4,244,-4,-92,9
-19,-9,9,14,-14,0,-19,-14,253,4,-82,19
-29,14,43,7,-36,29,4,-14,278,19,-68,19
-73,14,87,29,-80,51,34,-19,287,29,-78,0
-58,9,68,24,-63,39,53,19,287,34,-78,-4
82,-48,-131,-17,107,-90,73,204,248,-9,-87,4
283,-19,-302,-131,292,-161,87,405,258,43,-14,102
541,151,-390,-346,466,-119,82,600,346,156,136,268
727,366,-361,-546,544,2,39,673,453,287,292,448
844,561,-283,-702,563,139,-219,429,522,400,444,653
927,741,-185,-834,556,278,-561,14,551,497,600,858
829,907,78,-868,375,492,-912,-614,697,668,824,1132
634,1029,395,-832,119,712,-1029,-1005,824,810,956,1249
326,1146,819,-736,-246,983,-1044,-1180,912,897,1058,1346
175,995,819,-585,-322,907,-951,-1151,834,790,917,1166
131,561,429,-346,-148,495,-658,-839,439,322,385,610
82,244,161,-163,-39,202,-380,-497,214,29,19,214
19,82,63,-51,-21,73,-185,-190,204,0,-63,63
-29,9,39,9,-34,24,-63,-43,219,-4,-107,0
-34,-9,24,21,-29,7,9,-4,224,-4,-117,-34
-43,-24,19,34,-31,-2,78,43,239,-4,-117,-58
-53,-29,24,41,-39,-2,78,68,248,-9,-126,-58
-53,-39,14,46,-34,-12,68,58,253,-9,-126,-63
-48,-43,4,46,-26,-19,73,58,244,-9,-126,-68
-48,-43,4,46,-26,-19,73,63,244,-9,-131,-68
-48,-48,0,48,-24,-24,73,73,239,-9,-131,-73
-48,-48,0,48,-24,-24,78,78,239,-9,-131,-73
-48,-48,0,48,-24,-24,78,73,239,0,-131,-73
-43,-43,0,43,-21,-21,78,73,239,4,-131,-73
-43,-39,4,41,-24,-17,78,73,239,0,-131,-68
-43,-39,4,41,-24,-17,82,78,239,4,-131,-68
-43,-34,9,39,-26,-12,82,78,244,4,-136,-68
-43,-34,9,39,-26,-12,82,78,244,9,-136,-68
-48,-34,14,41,-31,-9,82,82,244,9,-131,-63
-48,-34,14,41,-31,-9,82,87,239,14,-131,-63
-48,-39,9,43,-29,-14,87,92,239,14,-126,-58
-48,-39,9,43,-29,-14,92,97,239,14,-126,-58
-48,-34,14,41,-31,-9,92,97,244,14,-126,-53
-48,-29,19,39,-34,-4,92,97,244,9,-126,-48
-53,-29,24,41,-39,-2,92,92,244,14,-136,-63
-53,-24,29,39,-41,2,92,87,244,14,-136,-63
-53,-19,34,36,-43,7,87,87,244,14,-136,-53
-53,-19,34,36,-43,7,87,87,244,14,-131,-53
-53,-14,39,34,-46,12,87,92,244,4,-126,-48
-58,-9,48,34,-53,19,92,92,244,9,-126,-43
-58,-9,48,34,-53,19,92,92,244,9,-126,-43
-58,0,58,29,-58,29,92,92,248,14,-126,-43
-58,0,58,29,-58,29,92,92,248,14,-126,-39
-63,0,63,31,-63,31,97,97,248,19,-126,-39
-68,4,73,31,-70,39,97,97,244,19,-136,-43
-73,4,78,34,-75,41,107,97,244,19,-131,-43
-78,0,78,39,-78,39,107,97,239,14,-131,-43
-78,0,78,39,-78,39,107,97,239,14,-131,-43
-82,0,82,41,-82,41,112,107,239,14,-131,-43
-82,9,92,36,-87,51,122,112,248,19,-131,-43
-92,14,107,39,-100,61,122,112,253,24,-136,-43
-102,24,126,39,-114,75,126,112,253,24,-136,-48
-107,24,131,41,-119,78,126,112,253,29,-141,-43
-112,29,141,41,-126,85,131,112,253,34,-141,-43
-117,29,146,43,-131,87,141,117,258,34,-136,-43
-122,39,161,41,-141,100,151,122,263,34,-136,-43
-126,43,170,41,-148,107,156,112,263,34,-131,-39
-131,48,180,41,-156,114,156,112,258,34,-136,-39
-151,48,200,51,-175,124,165,107,253,34,-131,-48
-165,48,214,58,-190,131,170,102,253,34,-131,-43
-175,53,229,61,-202,141,175,97,258,29,-141,-53
-185,48,234,68,-209,141,180,92,258,34,-146,-53
-200,53,253,73,-226,153,190,87,263,34,-151,-58
-214,53,268,80,-241,161,195,82,263,29,-151,-68
-229,53,283,87,-256,168,200,73,258,24,-161,-78
-244,48,292,97,-268,170,204,63,253,19,-170,-87
-253,48,302,102,-278,175,209,53,248,19,-165,-92
-268,43,312,112,-290,178,214,43,239,9,-170,-97
-283,34,317,124,-300,175,209,34,234,0,-185,-107
-297,19,317,139,-307,168,214,24,229,0,-190,-117
-297,9,307,143,-302,158,214,14,224,-4,-209,-126
-312,-4,307,158,-309,151,214,4,204,-24,-219,-146
-312,-19,292,165,-302,136,204,-9,195,-34,-229,-156
-312,-34,278,173,-295,122,204,-19,185,-48,-244,-165
-307,-58,248,183,-278,95,190,-19,165,-73,-268,-175
-302,-68,234,185,-268,82,180,-19,156,-87,-273,-175
-278,-87,190,183,-234,51,165,-29,136,-97,-283,-185
-253,-102,151,178,-202,24,156,-24,122,-107,-287,-185
-234,-102,131,168,-183,14,131,-19,117,-117,-297,-195
-200,-112,87,156,-143,-12,122,-9,107,-122,-292,-190
-165,-112,53,139,-109,-29,97,0,87,-117,-287,-185
-131,-112,19,122,-75,-46,82,9,92,-107,-273,-156
-102,-97,4,100,-53,-46,63,9,107,-92,-248,-126
-73,-78,-4,75,-34,-41,43,9,107,-87,-219,-97
-48,-58,-9,53,-19,-34,24,9,122,-73,-200,-68
-19,-43,-24,31,2,-34,9,9,136,-48,-175,-39
0,-24,-24,12,12,-24,-9,9,151,-29,-151,-14
9,-9,-19,0,14,-14,-19,9,161,-4,-136,9
24,0,-24,-12,24,-12,-29,0,156,9,-122,34
39,14,-24,-26,31,-4,-34,0,156,24,-107,58
48,24,-24,-36,36,0,-43,4,165,29,-92,63
48,34,-14,-41,31,9,-48,9,165,34,-78,68
58,34,-24,-46,41,4,-48,4,175,39,-73,82
63,39,-24,-51,43,7,-58,4,180,43,-73,82
73,43,-29,-58,51,7,-58,4,180,43,-58,92
78,48,-29,-63,53,9,-58,4,180,53,-48,97
78,48,-29,-63,53,9,-58,0,175,53,-53,97
78,48,-29,-63,53,9,-58,-4,170,58,-53,97
78,48,-29,-63,53,9,-58,-4,175,58,-43,102
82,53,-29,-68,56,12,-63,-4,175,58,-43,102
78,58,-19,-68,48,19,-63,-4,170,58,-43,107
73,63,-9,-68,41,26,-63,-4,165,68,-43,107
73,63,-9,-68,41,26,-63,-9,170,68,-39,107
73,63,-9,-68,41,26,-63,-14,170,68,-34,107
73,63,-9,-68,41,26,-53,0,170,68,-29,107
73,63,-9,-68,41,26,-48,0,170,68,-24,107
73,68,-4,-70,39,31,-43,0,165,73,-24,107
73,68,-4,-70,39,31,-43,0,165,73,-24,107
73,63,-9,-68,41,26,-48,0,161,73,-24,107
68,58,-9,-63,39,24,-53,4,156,73,-29,107
68,58,-9,-63,39,24,-48,4,156,73,-29,107
63,58,-4,-61,34,26,-48,0,156,73,-29,107
63,58,-4,-61,34,26,-48,0,156,73,-24,102
68,58,-9,-63,39,24,-43,4,156,68,-19,102
63,63,0,-63,31,31,-43,4,151,68,-19,102
63,68,4,-65,29,36,-39,4,146,73,-19,107
58,63,4,-61,26,34,-39,4,141,73,-24,102
58,63,4,-61,26,34,-34,4,146,73,-19,102
53,63,9,-58,21,36,-34,9,151,73,-19,102
48,58,9,-53,19,34,-29,9,146,73,-19,102
48,58,9,-53,19,34,-29,9,136,73,-14,102
48,53,4,-51,21,29,-29,4,136,73,-14,102
48,48,0,-48,24,24,-24,4,136,68,-14,97
48,43,-4,-46,26,19,-24,4,131,63,-14,97
48,48,0,-48,24,24,-19,4,126,63,-14,92
43,48,4,-46,19,26,-19,4,122,58,-14,87
43,48,4,-46,19,26,-14,4,126,53,-14,82
43,48,4,-46,19,26,-14,4,131,53,-14,82
39,43,4,-41,17,24,-9,0,117,53,-9,78
39,39,0,-39,19,19,-9,0,107,58,-9,78
39,39,0,-39,19,19,-9,0,107,58,-9,78
39,39,0,-39,19,19,-9,0,107,58,-9,78
39,34,-4,-36,21,14,-9,0,102,58,-9,78
34,29,-4,-31,19,12,-4,0,97,53,-9,78
34,29,-4,-31,19,12,-4,0,97,53,-9,78
29,29,0,-29,14,14,-4,4,92,58,0,82
34,43,9,-39,12,26,4,14,102,73,4,92
39,48,9,-43,14,29,9,14,102,73,4,92
43,73,29,-58,7,51,19,24,117,78,14,97
48,87,39,-68,4,63,24,29,117,82,24,107
53,82,29,-68,12,56,39,34,122,82,19,102
58,82,24,-70,17,53,43,29,117,87,19,102
58,87,29,-73,14,58,14,19,117,97,29,107
73,117,43,-95,14,80,-9,0,122,107,43,117
73,146,73,-109,0,109,-29,-4,141,126,63,141
73,175,102,-124,-14,139,-48,-14,151,136,87,146
73,175,102,-124,-14,139,-58,-29,146,131,73,146
73,156,82,-114,-4,119,-68,-39,122,122,68,146
68,141,73,-104,-2,107,-78,-43,107,107,53,131
68,131,63,-100,2,97,-82,-48,97,97,48,131
68,131,63,-100,2,97,-78,-39,97,107,53,136
78,131,53,-104,12,92,-73,-34,87,97,53,136
87,136,48,-112,19,92,-68,-29,87,97,53,141
92,117,24,-104,34,70,-68,-24,82,92,48,131
68,63,-4,-65,36,29,-48,-19,58,68,24,102
39,29,-9,-34,24,9,-29,-14,43,48,0,78
14,4,-9,-9,12,-2,-29,-14,29,34,-14,53
-4,-19,-14,12,4,-17,-24,-14,9,24,-24,39
-4,-24,-19,14,7,-21,-19,-14,4,19,-29,34
-4,-34,-29,19,12,-31,-14,-14,-4,14,-34,29
-4,-34,-29,19,12,-31,-14,-14,-4,9,-34,29
-4,-34,-29,19,12,-31,-14,-14,-4,9,-34,29
-4,-34,-29,19,12,-31,-14,-14,0,9,-43,24
-4,-29,-24,17,9,-26,-9,-14,4,9,-48,19
0,-29,-29,14,14,-29,-9,-9,9,4,-48,19
4,-29,-34,12,19,-31,-9,-9,14,4,-48,19
4,-34,-39,14,21,-36,-9,-4,9,4,-53,14
4,-39,-43,17,24,-41,-9,0,14,4,-53,14
4,-39,-43,17,24,-41,-4,0,19,4,-53,14
4,-39,-43,17,24,-41,-4,0,19,4,-53,14
4,-39,-43,17,24,-41,-4,0,19,4,-53,9
4,-34,-39,14,21,-36,-4,-4,19,4,-53,4
4,-29,-34,12,19,-31,-9,-4,19,0,-58,4
-4,-19,-14,12,4,-17,-9,-4,19,4,-53,9
-34,4,39,14,-36,21,14,-24,63,19,-39,4
-58,9,68,24,-63,39,39,-14,92,34,-29,14
-78,-24,53,51,-65,14,63,14,68,4,-73,-29
0,-34,-34,17,17,-34,78,117,63,-9,-68,-9
278,-48,-326,-114,302,-187,112,400,53,29,0,82
502,58,-444,-280,473,-192,92,590,102,102,122,219
688,336,-351,-512,519,-7,97,741,248,258,297,409
819,531,-287,-675,553,122,-63,610,341,366,434,580
946,727,-219,-836,583,253,-527,43,366,478,639,854
936,849,-87,-893,512,380,-883,-473,434,585,805,1073
644,1068,424,-856,109,746,-976,-917,673,839,1034,1283
385,1166,780,-775,-197,973,-1029,-1176,761,922,1117,1371
253,961,707,-607,-226,834,-956,-1137,605,736,922,1132
141,702,561,-422,-209,631,-775,-990,380,453,614,805
92,312,219,-202,-63,265,-424,-531,131,107,146,312
34,63,29,-48,2,46,-180,-204,9,-43,-68,29
-14,29,43,-7,-29,36,-82,-107,39,-34,-68,4
-39,0,39,19,-39,19,9,-4,53,-34,-78,-29
-43,-24,19,34,-31,-2,73,48,82,-24,-78,-48
-53,-29,24,41,-39,-2,97,82,102,-19,-87,-48
-53,-39,14,46,-34,-12,87,68,97,-19,-87,-53
-48,-43,4,46,-26,-19,82,68,87,-19,-87,-58
-48,-43,4,46,-26,-19,82,73,92,-19,-92,-58
-48,-48,0,48,-24,-24,82,78,92,-19,-97,-63
-48,-48,0,48,-24,-24,92,82,97,-19,-102,-63
-48,-53,-4,51,-21,-29,97,82,102,-14,-102,-63
-43,-53,-9,48,-17,-31,97,82,102,-9,-102,-63
-43,-48,-4,46,-19,-26,97,82,102,-14,-102,-63
-43,-53,-9,48,-17,-31,97,87,102,-14,-97,-73
-43,-53,-9,48,-17,-31,92,87,107,-19,-97,-78
-43,-53,-9,48,-17,-31,92,92,112,-14,-97,-78
-48,-53,-4,51,-21,-29,92,97,117,-9,-92,-73
-48,-48,0,48,-24,-24,97,97,117,-4,-97,-68
-48,-48,0,48,-24,-24,102,97,122,-4,-97,-58
-48,-48,0,48,-24,-24,102,97,126,-9,-97,-58
-48,-43,4,46,-26,-19,102,97,131,-9,-97,-58
-48,-39,9,43,-29,-14,102,97,126,-14,-92,-53
-53,-39,14,46,-34,-12,102,97,126,-9,-97,-63
-53,-34,19,43,-36,-7,107,97,131,-4,-97,-63
-53,-29,24,41,-39,-2,107,97,136,-4,-97,-53
-53,-29,24,41,-39,-2,107,102,141,4,-92,-53
-53,-29,24,41,-39,-2,107,107,146,0,-92,-53
-58,-29,29,43,-43,0,112,102,151,0,-97,-53
-58,-29,29,43,-43,0,112,102,156,0,-97,-53
-58,-19,39,39,-48,9,107,102,161,0,-97,-53
-58,-19,39,39,-48,9,102,102,161,-4,-97,-53
-58,-14,43,36,-51,14,107,107,170,0,-92,-58
-58,-4,53,31,-56,24,107,107,175,0,-102,-63
-63,-4,58,34,-61,26,117,107,175,0,-102,-63
-68,-4,63,36,-65,29,117,107,170,0,-102,-63
-68,-4,63,36,-65,29,117,107,175,4,-102,-63
-73,-9,63,41,-68,26,117,112,180,4,-102,-63
-73,0,73,36,-73,36,122,112,190,9,-97,-63
-78,0,78,39,-78,39,122,112,195,14,-97,-63
-82,9,92,36,-87,51,126,117,200,14,-97,-68
-87,14,102,36,-95,58,131,122,204,14,-102,-68
-92,19,112,36,-102,65,141,122,204,14,-102,-73
-97,19,117,39,-107,68,151,122,209,14,-97,-73
-107,34,141,36,-124,87,161,126,214,19,-97,-73
-117,39,156,39,-136,97,165,122,219,24,-97,-73
-126,39,165,43,-146,102,165,122,224,24,-102,-68
-146,39,185,53,-165,112,170,117,224,24,-97,-73
-156,39,195,58,-175,117,175,112,224,29,-102,-73
-165,48,214,58,-190,131,185,107,229,24,-112,-82
-180,43,224,68,-202,134,190,107,229,29,-117,-78
-195,43,239,75,-217,141,195,102,234,29,-122,-82
-204,43,248,80,-226,146,195,97,244,24,-117,-92
-219,43,263,87,-241,153,200,92,248,24,-122,-97
-239,39,278,100,-258,158,214,82,248,24,-126,-107
-248,39,287,104,-268,163,224,73,248,24,-131,-117
-258,34,292,112,-275,163,229,63,244,14,-141,-122
-268,29,297,119,-283,163,224,53,244,9,-151,-131
-283,19,302,131,-292,161,224,43,239,9,-161,-141
-287,9,297,139,-292,153,224,34,234,0,-180,-146
-302,-4,297,153,-300,146,224,14,214,-24,-190,-165
-302,-19,283,161,-292,131,214,0,204,-34,-200,-175
-302,-34,268,168,-285,117,214,-9,195,-53,-214,-190
-302,-58,244,180,-273,92,204,-19,180,-68,-234,-204
-302,-73,229,187,-265,78,195,-29,165,-82,-244,-219
-278,-92,185,185,-231,46,175,-34,151,-97,-253,-234
-253,-102,151,178,-202,24,161,-19,141,-107,-258,-234
-234,-102,131,168,-183,14,136,-19,131,-117,-268,-239
-200,-117,82,158,-141,-17,126,-9,117,-122,-278,-234
-175,-122,53,148,-114,-34,102,-4,107,-122,-278,-229
-141,-122,19,131,-80,-51,87,0,122,-112,-253,-200
-102,-107,-4,104,-48,-56,68,0,131,-102,-239,-185
-68,-87,-19,78,-24,-53,48,4,131,-97,-209,-156
-48,-68,-19,58,-14,-43,29,9,141,-82,-185,-122
-19,-53,-34,36,7,-43,19,9,156,-63,-156,-87
9,-34,-43,12,26,-39,4,9,170,-48,-131,-63
19,-19,-39,0,29,-29,-4,9,185,-24,-126,-39
29,-9,-39,-9,34,-24,-19,0,190,-9,-112,-14
39,4,-34,-21,36,-14,-29,0,200,4,-78,14
48,14,-34,-31,41,-9,-43,0,214,9,-63,24
48,29,-19,-39,34,4,-48,0,219,19,-58,29
58,34,-24,-46,41,4,-48,-4,229,29,-53,43
63,39,-24,-51,43,7,-58,0,234,34,-53,48
68,39,-29,-53,48,4,-58,4,239,34,-39,58
73,39,-34,-56,53,2,-58,4,239,43,-34,58
78,39,-39,-58,58,0,-58,4,239,43,-39,58
78,39,-39,-58,58,0,-58,4,234,48,-34,58
78,39,-39,-58,58,0,-58,4,244,48,-24,63
82,43,-39,-63,61,2,-63,0,248,48,-24,58
82,43,-39,-63,61,2,-63,-4,244,48,-24,58
82,43,-39,-63,61,2,-63,-4,244,53,-24,58
82,43,-39,-63,61,2,-63,0,248,48,-24,58
82,43,-39,-63,61,2,-63,-4,253,48,-24,58
82,43,-39,-63,61,2,-58,0,258,53,-19,58
82,43,-39,-63,61,2,-58,0,258,53,-14,58
82,48,-34,-65,58,7,-53,0,253,53,-14,58
78,48,-29,-63,53,9,-53,0,253,53,-14,58
73,48,-24,-61,48,12,-53,0,253,53,-14,58
68,53,-14,-61,41,19,-53,4,258,63,-9,63
68,58,-9,-63,39,24,-48,9,263,73,0,68
68,58,-9,-63,39,24,-48,9,263,73,0,68
68,58,-9,-63,39,24,-48,9,263,73,0,63
68,53,-14,-61,41,19,-39,14,253,58,-9,58
63,48,-14,-56,39,17,-34,14,244,48,-19,48
63,48,-14,-56,39,17,-29,14,244,53,-19,48
58,43,-14,-51,36,14,-29,14,244,53,-29,43
58,43,-14,-51,36,14,-24,14,248,53,-29,43
58,43,-14,-51,36,14,-24,19,253,53,-29,43
58,39,-19,-48,39,9,-19,19,244,43,-34,34
58,39,-19,-48,39,9,-19,24,234,34,-34,24
53,24,-29,-39,41,-2,-19,24,244,34,-34,24
48,14,-34,-31,41,-9,-14,24,244,34,-34,19
48,14,-34,-31,41,-9,-14,24,239,34,-34,19
48,19,-29,-34,39,-4,-9,24,239,34,-34,19
43,19,-24,-31,34,-2,-9,24,229,29,-39,14
43,19,-24,-31,34,-2,-4,24,224,24,-43,4
39,14,-24,-26,31,-4,-4,24,219,19,-48,0
39,9,-29,-24,34,-9,-9,24,219,19,-53,0
39,4,-34,-21,36,-14,-9,19,219,24,-48,4
39,0,-39,-19,39,-19,-9,19,224,29,-48,9
39,0,-39,-19,39,-19,-9,19,224,29,-48,9
39,0,-39,-19,39,-19,-9,19,224,29,-48,9
39,-4,-43,-17,41,-24,-9,19,219,29,-53,4
39,-4,-43,-17,41,-24,-4,19,214,29,-53,0
39,-4,-43,-17,41,-24,-4,24,214,34,-53,0
43,4,-39,-24,41,-17,4,34,219,43,-53,4
48,9,-39,-29,43,-14,14,43,219,43,-53,4
48,24,-24,-36,36,0,29,58,234,48,-43,9
48,29,-19,-39,34,4,39,63,234,53,-34,19
48,34,-14,-41,31,9,43,68,244,58,-34,19
48,34,-14,-41,31,9,43,58,244,63,-29,19
48,39,-9,-43,29,14,24,48,253,68,-19,19
63,87,24,-75,19,56,-9,29,268,78,-4,29
63,107,43,-85,9,75,-29,24,278,87,4,48
68,117,48,-92,9,82,-39,14,278,87,24,48
73,117,43,-95,14,80,-48,4,273,82,14,48
73,92,19,-82,26,56,-63,-4,244,73,9,48
73,82,9,-78,31,46,-73,-9,239,68,0,34
78,82,4,-80,36,43,-73,-9,244,58,0,34
78,82,4,-80,36,43,-68,0,244,58,4,39
87,97,9,-92,39,53,-68,4,234,58,4,43
87,97,9,-92,39,53,-63,9,229,58,-4,43
82,48,-34,-65,58,7,-58,14,219,43,-19,24
58,-14,-73,-21,65,-43,-39,19,195,19,-43,-4
19,-58,-78,19,48,-68,-14,29,175,0,-68,-29
0,-78,-78,39,39,-78,-9,34,161,-14,-82,-48
-4,-87,-82,46,39,-85,-4,34,146,-24,-92,-58
-4,-87,-82,46,39,-85,-4,34,146,-24,-92,-58
-4,-92,-87,48,41,-90,-9,34,146,-24,-92,-58
-4,-92,-87,48,41,-90,-14,34,151,-29,-92,-58
-4,-92,-87,48,41,-90,-14,34,151,-29,-92,-58
-4,-92,-87,48,41,-90,-14,34,151,-29,-97,-58
-4,-97,-92,51,43,-95,-4,34,146,-29,-102,-58
-4,-107,-102,56,48,-104,0,39,141,-34,-107,-58
-4,-107,-102,56,48,-104,4,43,141,-34,-107,-58
-4,-107,-102,56,48,-104,9,48,131,-34,-112,-63
-4,-107,-102,56,48,-104,9,48,131,-29,-112,-63
-4,-107,-102,56,48,-104,14,48,136,-24,-112,-63
-4,-107,-102,56,48,-104,14,48,136,-24,-112,-63
-4,-107,-102,56,48,-104,14,53,136,-24,-112,-63
-4,-112,-107,58,51,-109,14,53,126,-24,-117,-68
-4,-117,-112,61,53,-114,14,53,126,-24,-122,-68
-19,-112,-92,65,36,-102,19,43,136,-14,-112,-58
-29,-92,-63,61,17,-78,43,43,161,0,-97,-58
-63,-92,-29,78,-17,-61,68,53,165,9,-102,-68
-39,-97,-58,68,9,-78,82,107,161,14,-97,-63
117,-146,-263,14,190,-204,92,292,126,-29,-102,-48
331,-107,-439,-112,385,-273,97,492,141,24,-24,53
585,78,-507,-331,546,-214,87,688,234,146,136,239
766,307,-458,-536,612,-75,39,761,346,287,302,439
888,502,-385,-695,636,58,-219,492,419,405,458,644
976,683,-292,-829,634,195,-561,53,453,507,619,849
839,839,0,-839,419,419,-878,-566,610,688,844,1117
605,951,346,-778,129,649,-961,-946,746,839,976,1229
302,1063,761,-683,-229,912,-971,-1102,824,907,1049,1288
156,907,751,-531,-297,829,-873,-1054,736,780,878,1068
102,434,331,-268,-114,383,-575,-732,322,297,331,502
43,78,34,-61,4,56,-292,-380,78,-9,-48,97
0,-53,-53,26,26,-53,-117,-97,82,-24,-102,-19
-29,-97,-68,63,19,-82,-14,24,112,-14,-117,-48
-34,-117,-82,75,24,-100,39,53,112,-14,-126,-78
-43,-131,-87,87,21,-109,87,92,122,-14,-126,-97
-53,-131,-78,92,12,-104,92,117,131,-14,-131,-92
-53,-136,-82,95,14,-109,87,107,136,-9,-126,-92
-48,-136,-87,92,19,-112,92,107,126,-9,-126,-92
-48,-131,-82,90,17,-107,92,112,126,-9,-131,-87
-48,-136,-87,92,19,-112,87,117,122,-9,-131,-92
-48,-136,-87,92,19,-112,87,117,122,-9,-131,-92
-48,-136,-87,92,19,-112,87,112,122,-4,-131,-87
-43,-131,-87,87,21,-109,87,112,122,-4,-131,-82
-43,-126,-82,85,19,-104,87,112,122,-4,-131,-82
-43,-126,-82,85,19,-104,92,117,122,4,-131,-87
-43,-122,-78,82,17,-100,92,117,122,0,-136,-87
-43,-122,-78,82,17,-100,92,117,117,0,-136,-87
-48,-126,-78,87,14,-102,92,122,117,0,-131,-87
-48,-131,-82,90,17,-107,92,126,112,4,-131,-92
-48,-136,-87,92,19,-112,92,126,112,4,-131,-87
-48,-136,-87,92,19,-112,92,126,112,4,-136,-87
-48,-136,-87,92,19,-112,92,126,112,4,-136,-87
-48,-136,-87,92,19,-112,92,126,107,0,-136,-87
-53,-136,-82,95,14,-109,92,126,107,0,-146,-102
-53,-131,-78,92,12,-104,92,126,107,-4,-146,-102
-53,-126,-73,90,9,-100,87,126,107,4,-146,-87
-53,-126,-73,90,9,-100,87,126,107,14,-141,-82
-53,-122,-68,87,7,-95,87,126,107,4,-141,-82
-58,-117,-58,87,0,-87,92,122,107,9,-146,-82
-58,-117,-58,87,0,-87,92,122,107,9,-141,-82
-58,-107,-48,82,-4,-78,92,122,112,14,-136,-82
-58,-112,-53,85,-2,-82,92,122,112,9,-136,-82
-63,-117,-53,90,-4,-85,97,126,112,9,-136,-87
-68,-112,-43,90,-12,-78,97,126,107,9,-151,-97
-73,-112,-39,92,-17,-75,107,126,107,9,-151,-102
-78,-107,-29,92,-24,-68,107,126,102,9,-146,-102
-78,-97,-19,87,-29,-58,107,126,102,14,-141,-102
-82,-97,-14,90,-34,-56,107,131,107,14,-136,-92
-82,-87,-4,85,-39,-46,112,131,122,19,-131,-82
-92,-87,4,90,-48,-41,112,131,126,24,-136,-82
-102,-82,19,92,-61,-31,117,131,126,24,-136,-87
-107,-87,19,97,-63,-34,117,131,117,19,-146,-92
-112,-87,24,100,-68,-31,122,131,107,14,-151,-102
-117,-87,29,102,-73,-29,131,131,112,14,-146,-102
-122,-78,43,100,-82,-17,141,131,117,14,-146,-102
-126,-63,63,95,-95,0,146,122,126,24,-136,-92
-131,-48,82,90,-107,17,146,122,131,34,-136,-87
-146,-48,97,97,-122,24,151,117,126,39,-136,-97
-156,-48,107,102,-131,29,151,112,126,43,-141,-92
-165,-34,131,100,-148,48,161,112,131,39,-146,-97
-175,-29,146,102,-161,58,170,112,131,43,-146,-92
-185,-24,161,104,-173,68,175,107,131,43,-151,-97
-195,-24,170,109,-183,73,175,102,126,39,-151,-107
-214,-24,190,119,-202,82,180,92,122,34,-161,-117
-234,-29,204,131,-219,87,185,82,117,29,-170,-126
-239,-29,209,134,-224,90,190,73,112,29,-175,-136
-248,-34,214,141,-231,90,195,63,102,19,-190,-146
-258,-34,224,146,-241,95,190,53,102,9,-200,-156
-268,-39,229,153,-248,95,195,43,102,9,-200,-165
-278,-43,234,161,-256,95,195,34,97,9,-219,-175
-302,-53,248,178,-275,97,195,24,78,-4,-229,-195
-292,-68,224,180,-258,78,185,14,68,-24,-239,-204
-283,-82,200,183,-241,58,185,9,58,-48,-253,-214
-278,-117,161,197,-219,21,175,9,29,-68,-283,-234
-273,-136,136,204,-204,0,170,9,9,-78,-292,-244
-248,-141,107,195,-178,-17,156,4,0,-82,-297,-253
-224,-141,82,183,-153,-29,146,14,-4,-87,-297,-253
-200,-136,63,168,-131,-36,122,19,-4,-92,-302,-248
-161,-141,19,151,-90,-61,112,29,-9,-92,-292,-229
-136,-141,-4,139,-65,-73,87,34,-19,-87,-283,-229
-112,-141,-29,126,-41,-85,73,39,-4,-78,-263,-204
-82,-136,-53,109,-14,-95,58,39,4,-63,-248,-185
-53,-126,-73,90,9,-100,43,39,0,-58,-229,-165
-34,-97,-63,65,14,-80,24,34,24,-43,-204,-131
-9,-73,-63,41,26,-68,9,29,48,-19,-175,-97
14,-48,-63,17,39,-56,-9,29,63,-4,-151,-73
29,-29,-58,0,43,-43,-19,29,73,14,-136,-48
39,-19,-58,-9,48,-39,-29,19,78,29,-112,-24
48,-4,-53,-21,51,-29,-34,19,87,43,-87,0
63,4,-58,-34,61,-26,-43,19,107,53,-78,9
68,14,-53,-41,61,-19,-48,19,117,63,-68,19
78,14,-63,-46,70,-24,-48,14,122,68,-63,34
82,19,-63,-51,73,-21,-58,14,122,73,-63,34
87,19,-68,-53,78,-24,-58,9,122,68,-53,39
87,19,-68,-53,78,-24,-58,4,122,73,-48,39
87,19,-68,-53,78,-24,-63,4,122,73,-48,39
87,19,-68,-53,78,-24,-68,4,122,78,-43,39
87,24,-63,-56,75,-19,-68,0,136,78,-34,43
92,34,-58,-63,75,-12,-73,-4,146,78,-34,43
92,34,-58,-63,75,-12,-68,-4,146,78,-34,48
92,34,-58,-63,75,-12,-63,-4,146,87,-34,48
92,34,-58,-63,75,-12,-63,-4,151,82,-34,48
92,34,-58,-63,75,-12,-63,-4,151,78,-34,48
87,34,-53,-61,70,-9,-58,0,161,82,-24,53
82,34,-48,-58,65,-7,-58,-9,170,87,-14,58
82,39,-43,-61,63,-2,-53,-9,170,92,-14,58
82,39,-43,-61,63,-2,-53,-9,175,92,-14,58
87,39,-48,-63,68,-4,-53,-9,175,92,-14,53
87,39,-48,-63,68,-4,-53,-4,175,92,-19,48
92,34,-58,-63,75,-12,-48,0,180,92,-24,48
92,29,-63,-61,78,-17,-48,0,185,92,-29,48
87,29,-58,-58,73,-14,-48,0,185,92,-29,43
87,29,-58,-58,73,-14,-43,4,185,87,-29,43
82,29,-53,-56,68,-12,-43,4,185,82,-34,29
82,29,-53,-56,68,-12,-39,4,185,82,-39,19
73,24,-48,-48,61,-12,-43,-4,185,82,-48,14
68,24,-43,-46,56,-9,-43,-14,195,82,-48,14
68,29,-39,-48,53,-4,-43,-9,204,82,-43,19
68,29,-39,-48,53,-4,-39,-9,204,82,-39,24
68,34,-34,-51,51,0,-39,-4,204,87,-34,29
68,34,-34,-51,51,0,-34,-4,214,92,-34,29
63,34,-29,-48,46,2,-34,-9,209,87,-39,24
63,34,-29,-48,46,2,-39,-14,209,82,-43,24
58,29,-29,-43,43,0,-39,-9,209,78,-43,19
58,29,-29,-43,43,0,-39,-9,214,78,-48,19
63,29,-34,-46,48,-2,-39,-9,214,78,-48,19
68,29,-39,-48,53,-4,-39,-9,214,78,-48,19
68,29,-39,-48,53,-4,-39,-9,214,78,-48,14
68,34,-34,-51,51,0,-34,-4,219,78,-43,14
68,39,-29,-53,48,4,-34,-4,224,82,-39,14
73,53,-19,-63,46,17,-24,4,239,92,-34,24
78,58,-19,-68,48,19,-19,4,239,92,-39,19
78,73,-4,-75,41,34,-9,9,253,97,-34,19
78,78,0,-78,39,39,-9,4,258,102,-24,29
78,82,4,-80,36,43,-14,0,273,107,-24,29
78,107,29,-92,24,68,-24,-14,283,126,-9,43
78,136,58,-107,9,97,-53,-29,302,146,9,58
92,175,82,-134,4,129,-78,-48,317,156,24,68
92,185,92,-139,0,139,-87,-53,326,165,34,87
92,190,97,-141,-2,143,-97,-63,331,161,43,82
92,185,92,-139,0,139,-107,-73,331,151,24,78
92,165,73,-129,9,119,-117,-78,307,141,19,78
92,161,68,-126,12,114,-122,-78,307,136,9,63
97,161,63,-129,17,112,-122,-78,312,136,9,63
97,161,63,-129,17,112,-117,-68,312,146,14,68
107,161,53,-134,26,107,-112,-63,307,136,14,68
107,146,39,-126,34,92,-102,-58,307,126,4,63
102,102,0,-102,51,51,-97,-53,297,107,-14,39
78,43,-34,-61,56,4,-78,-48,273,78,-43,4
48,9,-39,-29,43,-14,-58,-43,258,58,-68,-19
39,0,-39,-19,39,-19,-58,-43,248,43,-82,-39
34,-9,-43,-12,39,-26,-53,-43,239,34,-87,-48
34,-9,-43,-12,39,-26,-53,-43,244,34,-82,-48
34,-9,-43,-12,39,-26,-53,-43,248,39,-78,-43
34,-4,-39,-14,36,-21,-53,-43,258,39,-73,-39
34,-4,-39,-14,36,-21,-53,-39,258,39,-73,-39
34,-4,-39,-14,36,-21,-53,-34,258,39,-78,-39
34,0,-34,-17,34,-17,-48,-34,258,34,-78,-39
34,0,-34,-17,34,-17,-48,-29,258,24,-78,-39
34,0,-34,-17,34,-17,-48,-29,258,24,-78,-39
34,0,-34,-17,34,-17,-48,-29,248,24,-82,-43
29,0,-29,-14,29,-14,-48,-29,253,24,-82,-43
24,0,-24,-12,24,-12,-43,-29,263,24,-82,-43
24,0,-24,-12,24,-12,-43,-34,263,24,-82,-43
24,0,-24,-12,24,-12,-43,-34,263,24,-82,-43
24,4,-19,-14,21,-7,-43,-34,263,24,-82,-48
24,9,-14,-17,19,-2,-43,-34,273,24,-82,-48
14,9,-4,-12,9,2,-34,-24,283,34,-73,-39
9,24,14,-17,-2,19,-4,-4,307,48,-58,-39
14,29,14,-21,0,21,19,39,317,63,-48,-19
78,29,-48,-53,63,-9,34,126,317,73,-29,14
239,73,-165,-156,202,-46,39,283,356,112,63,126
458,204,-253,-331,356,-24,39,453,444,248,239,326
619,453,-165,-536,392,143,-14,517,585,424,444,551
707,746,39,-727,334,392,-107,458,746,619,653,790
712,907,195,-810,258,551,-336,131,819,727,814,995
683,1054,370,-868,156,712,-649,-366,854,819,980,1200
522,1151,629,-836,-53,890,-858,-780,951,907,1078,1332
263,1205,941,-734,-339,1073,-834,-956,1029,966,1083,1307
78,1137,1058,-607,-490,1098,-785,-1005,936,849,971,1171
48,800,751,-424,-351,775,-629,-849,678,536,614,756
29,434,405,-231,-187,419,-409,-566,395,180,185,312
4,185,180,-95,-87,183,-204,-253,283,0,-78,29
-14,68,82,-26,-48,75,-73,-68,273,-14,-107,-58
-19,39,58,-9,-39,48,-14,-43,287,-4,-97,-58
-9,19,29,-4,-19,24,4,-14,292,0,-107,-82
-4,4,9,0,-7,7,19,24,307,4,-107,-97
-14,9,24,2,-19,17,29,34,312,0,-112,-92
-14,9,24,2,-19,17,29,9,312,0,-107,-92
-9,9,19,0,-14,14,29,4,307,0,-107,-97
-9,14,24,-2,-17,19,24,4,312,0,-112,-97
-9,9,19,0,-14,14,19,9,307,0,-117,-102
-9,9,19,0,-14,14,19,9,307,0,-122,-102
-14,4,19,4,-17,12,14,4,307,4,-122,-102
-14,4,19,4,-17,12,9,4,307,4,-122,-102
-14,4,19,4,-17,12,9,4,307,0,-122,-102
-14,0,14,7,-14,7,14,9,307,4,-122,-107
-14,-4,9,9,-12,2,19,9,312,0,-131,-112
-14,-14,0,14,-7,-7,24,9,312,0,-136,-117
-14,-4,9,9,-12,2,24,9,312,0,-131,-112
-9,4,14,2,-12,9,24,9,307,4,-131,-112
-9,14,24,-2,-17,19,19,9,317,14,-122,-102
-9,29,39,-9,-24,34,14,9,326,24,-117,-97
-9,34,43,-12,-26,39,14,4,326,19,-117,-97
-9,39,48,-14,-29,43,14,0,322,9,-117,-97
-14,24,39,-4,-26,31,19,0,322,9,-131,-117
-14,14,29,0,-21,21,24,0,322,4,-136,-122
-14,19,34,-2,-24,26,19,0,322,14,-136,-117
-14,19,34,-2,-24,26,19,0,322,24,-131,-122
-14,19,34,-2,-24,26,14,0,322,9,-131,-122
-19,19,39,0,-29,29,14,-4,322,9,-136,-122
-19,24,43,-2,-31,34,14,-9,326,14,-131,-117
-19,39,58,-9,-39,48,14,-14,336,24,-126,-112
-19,39,58,-9,-39,48,14,-14,341,24,-126,-112
-24,39,63,-7,-43,51,19,-9,346,29,-126,-117
-24,43,68,-9,-46,56,19,-4,341,24,-141,-126
-24,43,68,-9,-46,56,29,0,341,19,-141,-131
-29,43,73,-7,-51,58,29,0,336,14,-141,-131
-29,48,78,-9,-53,63,29,0,336,14,-141,-131
-39,39,78,0,-58,58,29,4,336,14,-141,-136
-43,39,82,2,-63,61,34,4,346,19,-141,-141
-48,39,87,4,-68,63,34,4,351,24,-146,-141
-53,43,97,4,-75,70,39,4,351,24,-146,-146
-58,48,107,4,-82,78,43,0,346,24,-151,-141
-63,58,122,2,-92,90,53,-4,341,24,-151,-141
-68,58,126,4,-97,92,58,-4,346,24,-146,-141
-73,68,141,2,-107,104,63,-4,351,24,-146,-141
-78,68,146,4,-112,107,68,-14,356,24,-146,-141
-82,68,151,7,-117,109,68,-14,356,24,-156,-146
-97,63,161,17,-129,112,78,-14,351,14,-165,-170
-107,58,165,24,-136,112,82,-14,351,4,-180,-180
-117,68,185,24,-151,126,87,-19,356,-4,-190,-190
-126,68,195,29,-161,131,92,-24,356,-4,-195,-190
-136,73,209,31,-173,141,92,-34,361,0,-200,-190
-146,73,219,36,-183,146,87,-43,361,0,-200,-195
-161,73,234,43,-197,153,92,-48,356,-4,-209,-204
-175,68,244,53,-209,156,97,-53,351,-9,-219,-214
-180,68,248,56,-214,158,97,-63,346,-14,-239,-248
-190,63,253,63,-222,158,97,-73,336,-29,-268,-283
-200,58,258,70,-229,158,87,-82,326,-34,-278,-287
-209,48,258,80,-234,153,87,-92,317,-29,-278,-292
-204,39,244,82,-224,141,87,-102,312,-29,-297,-302
-214,24,239,95,-226,131,87,-112,292,-43,-307,-322
-214,4,219,104,-217,112,78,-112,283,-63,-317,-331
-214,-14,200,114,-207,92,78,-107,273,-87,-331,-341
-200,-39,161,119,-180,61,68,-107,253,-102,-351,-356
-185,-48,136,117,-161,43,63,-107,244,-107,-351,-361
-161,-58,102,109,-131,21,48,-107,239,-107,-351,-361
-136,-63,73,100,-104,4,39,-92,239,-107,-346,-351
-122,-48,73,85,-97,12,19,-87,244,-107,-346,-346
-92,-43,48,68,-70,2,14,-78,244,-102,-331,-326
-68,-39,29,53,-48,-4,-4,-68,244,-82,-307,-302
-43,-34,9,39,-26,-12,-14,-58,268,-58,-273,-253
-24,-19,4,21,-14,-7,-29,-58,287,-39,-248,-224
-4,0,4,2,-4,2,-43,-58,292,-29,-219,-195
9,24,14,-17,-2,19,-58,-58,312,-4,-185,-151
29,43,14,-36,7,29,-68,-58,331,29,-146,-107
48,68,19,-58,14,43,-82,-63,346,48,-122,-82
58,87,29,-73,14,58,-87,-68,356,73,-107,-58
68,97,29,-82,19,63,-102,-78,361,87,-82,-34
78,112,34,-95,21,73,-112,-78,370,102,-58,-9
87,122,34,-104,26,78,-122,-78,380,107,-53,-9
87,131,43,-109,21,87,-126,-78,380,112,-48,-9
92,131,39,-112,26,85,-122,-82,390,117,-43,4
92,136,43,-114,24,90,-126,-82,395,122,-43,4
97,136,39,-117,29,87,-126,-82,395,117,-29,9
97,136,39,-117,29,87,-126,-82,395,122,-19,9
97,141,43,-119,26,92,-126,-82,390,122,-24,9
97,146,48,-122,24,97,-126,-82,385,126,-24,9
92,156,63,-124,14,109,-126,-82,395,126,-14,9
92,170,78,-131,7,124,-131,-82,400,126,-14,4
92,170,78,-131,7,124,-131,-87,400,126,-14,9
92,170,78,-131,7,124,-131,-92,400,136,-14,9
92,170,78,-131,7,124,-131,-97,405,136,-19,9
92,170,78,-131,7,124,-131,-102,405,136,-24,9
92,170,78,-131,7,124,-131,-87,405,141,-19,9
92,170,78,-131,7,124,-136,-87,405,146,-14,9
92,180,87,-136,2,134,-131,-87,400,151,-14,9
92,185,92,-139,0,139,-131,-87,400,151,-14,9
92,200,107,-146,-7,153,-136,-97,400,151,-4,9
87,214,126,-151,-19,170,-141,-102,400,151,0,9
87,204,117,-146,-14,161,-136,-97,400,151,-14,0
82,195,112,-139,-14,153,-136,-97,400,151,-29,-9
78,185,107,-131,-14,146,-136,-97,395,141,-34,-19
78,175,97,-126,-9,136,-131,-92,390,126,-39,-24
73,185,112,-129,-19,148,-136,-97,390,126,-39,-29
68,190,122,-129,-26,156,-136,-102,390,131,-43,-34
63,190,126,-126,-31,158,-131,-102,395,136,-39,-29
63,195,131,-129,-34,163,-131,-107,400,141,-34,-24
63,190,126,-126,-31,158,-126,-102,395,131,-43,-24
68,185,117,-126,-24,151,-126,-97,390,126,-58,-29
68,185,117,-126,-24,151,-126,-97,390,126,-58,-29
68,185,117,-126,-24,151,-126,-97,390,126,-58,-29
68,195,126,-131,-29,161,-126,-97,390,141,-48,-19
73,204,131,-139,-29,168,-122,-92,390,146,-43,-19
78,214,136,-146,-29,175,-117,-92,395,151,-39,-19
92,229,136,-161,-21,183,-102,-82,405,151,-43,-24
87,234,146,-161,-29,190,-97,-82,405,151,-48,-24
78,248,170,-163,-46,209,-87,-78,419,156,-43,-19
73,253,180,-163,-53,217,-82,-82,419,161,-34,-4
68,258,190,-163,-61,224,-82,-87,429,165,-34,0
63,263,200,-163,-68,231,-87,-102,429,175,-29,4
58,273,214,-165,-78,244,-112,-117,439,185,-19,9
73,312,239,-192,-82,275,-136,-136,453,195,-4,19
73,322,248,-197,-87,285,-146,-141,463,204,4,39
68,331,263,-200,-97,297,-156,-151,463,204,19,39
63,331,268,-197,-102,300,-165,-161,458,200,4,39
63,312,248,-187,-92,280,-170,-161,429,185,0,39
63,307,244,-185,-90,275,-170,-156,424,175,-9,24
73,312,239,-192,-82,275,-170,-156,429,175,-9,24
78,317,239,-197,-80,278,-165,-146,429,185,-4,29
87,326,239,-207,-75,283,-161,-141,424,180,-4,29
87,322,234,-204,-73,278,-151,-136,424,175,-14,24
87,283,195,-185,-53,239,-146,-126,414,161,-34,4
68,229,161,-148,-46,195,-126,-117,390,136,-63,-24
39,190,151,-114,-56,170,-107,-112,366,112,-87,-48
29,175,146,-102,-58,161,-107,-112,346,92,-102,-68
19,165,146,-92,-63,156,-102,-112,341,82,-112,-78
14,165,151,-90,-68,158,-102,-112,351,82,-112,-78
14,156,141,-85,-63,148,-97,-107,346,82,-117,-78
14,151,136,-82,-61,143,-92,-102,346,78,-122,-78
19,151,131,-85,-56,141,-92,-97,346,78,-122,-78
24,151,126,-87,-51,139,-92,-92,346,78,-126,-78
24,156,131,-90,-53,143,-87,-92,351,78,-126,-78
24,156,131,-90,-53,143,-87,-87,356,73,-126,-78
19,151,131,-85,-56,141,-87,-87,356,73,-126,-82
14,146,131,-80,-58,139,-87,-87,346,73,-131,-92
14,141,126,-78,-56,134,-87,-87,346,73,-131,-92
14,136,122,-75,-53,129,-82,-87,351,73,-131,-92
9,136,126,-73,-58,131,-78,-87,356,73,-131,-92
4,136,131,-70,-63,134,-73,-82,361,73,-131,-92
4,136,131,-70,-63,134,-68,-82,370,78,-131,-87
4,136,131,-70,-63,134,-63,-82,390,82,-131,-78
-4,146,151,-70,-78,148,-58,-82,400,92,-122,-68
-9,170,180,-80,-95,175,-34,-73,424,107,-107,-68
-4,175,180,-85,-92,178,-19,-43,434,126,-92,-43
58,175,117,-117,-29,146,-14,29,434,141,-68,-4
214,214,0,-214,107,107,-9,170,488,200,34,122
429,341,-87,-385,258,126,-9,326,590,356,219,336
551,575,24,-563,263,300,-58,385,717,522,439,580
600,854,253,-727,173,553,-146,322,863,707,663,839
644,1054,409,-849,117,732,-395,34,951,834,849,1073
653,1239,585,-946,34,912,-727,-424,1000,946,1039,1307
536,1346,810,-941,-136,1078,-946,-839,1088,1039,1146,1449
322,1410,1088,-866,-383,1249,-932,-1015,1156,1102,1161,1434
141,1351,1210,-746,-534,1281,-878,-1058,1068,976,1024,1283
117,1024,907,-570,-395,966,-717,-897,814,653,644,854
92,595,502,-344,-204,549,-463,-619,492,248,165,351
63,283,219,-173,-78,251,-224,-312,341,19,-146,9
39,180,141,-109,-51,161,-107,-126,331,4,-185,-87
29,165,136,-97,-53,151,-63,-102,346,14,-185,-97
29,136,107,-82,-39,122,-34,-82,346,14,-195,-122
24,112,87,-68,-31,100,-9,-53,356,14,-195,-136
24,122,97,-73,-36,109,-4,-34,351,4,-204,-136
34,126,92,-80,-29,109,-9,-48,341,0,-204,-141
39,112,73,-75,-17,92,-4,-53,331,-4,-204,-146
39,102,63,-70,-12,82,-4,-53,331,-9,-209,-146
34,92,58,-63,-12,75,-4,-48,322,-19,-219,-156
29,87,58,-58,-14,73,0,-48,317,-29,-229,-161
29,82,53,-56,-12,68,0,-53,317,-14,-229,-161
34,82,48,-58,-7,65,0,-53,317,-4,-229,-161
34,87,53,-61,-9,70,0,-53,312,-4,-229,-161
34,87,53,-61,-9,70,4,-48,307,4,-229,-165
34,92,58,-63,-12,75,4,-48,312,0,-234,-165
34,92,58,-63,-12,75,4,-48,312,0,-234,-165
29,97,68,-63,-19,82,9,-48,312,9,-224,-161
29,102,73,-65,-21,87,14,-48,307,24,-219,-161
34,97,63,-65,-14,80,19,-48,307,24,-214,-156
39,97,58,-68,-9,78,24,-48,307,24,-214,-156
39,102,63,-70,-12,82,24,-48,302,24,-219,-151
39,107,68,-73,-14,87,24,-48,292,19,-224,-146
34,102,68,-68,-17,85,29,-53,287,24,-234,-161
34,102,68,-68,-17,85,34,-58,283,24,-234,-161
34,97,63,-65,-14,80,29,-58,278,24,-239,-161
34,87,53,-61,-9,70,29,-58,273,24,-239,-170
29,87,58,-58,-14,73,29,-58,273,9,-239,-170
19,87,68,-53,-24,78,34,-63,273,9,-244,-170
9,78,68,-43,-29,73,39,-63,263,4,-248,-170
0,78,78,-39,-39,78,43,-63,258,4,-253,-170
0,78,78,-39,-39,78,43,-63,253,0,-253,-170
-4,78,82,-36,-43,80,48,-58,248,0,-253,-175
0,82,82,-41,-41,82,53,-58,244,-4,-263,-180
4,82,78,-43,-36,80,68,-58,244,-9,-258,-180
0,82,82,-41,-41,82,68,-58,234,-14,-258,-180
0,87,87,-43,-43,87,68,-58,229,-14,-258,-180
-9,82,92,-36,-51,87,63,-58,219,-24,-263,-180
-14,87,102,-36,-58,95,63,-63,219,-29,-268,-180
-19,87,107,-34,-63,97,58,-68,219,-29,-273,-180
-24,92,117,-34,-70,104,58,-73,214,-34,-273,-185
-39,82,122,-21,-80,102,58,-73,200,-43,-283,-190
-53,78,131,-12,-92,104,63,-73,185,-53,-287,-200
-63,68,131,-2,-97,100,68,-73,180,-58,-292,-204
-73,68,141,2,-107,104,73,-73,175,-63,-302,-209
-78,68,146,4,-112,107,78,-82,170,-68,-302,-209
-82,68,151,7,-117,109,78,-82,161,-73,-312,-214
-97,78,175,9,-136,126,82,-87,156,-73,-307,-219
-107,87,195,9,-151,141,82,-92,156,-73,-307,-209
-117,97,214,9,-165,156,82,-97,156,-73,-317,-219
-126,97,224,14,-175,161,82,-102,151,-63,-322,-219
-141,87,229,26,-185,158,87,-112,141,-78,-336,-234
-156,73,229,41,-192,151,87,-122,126,-97,-346,-253
-170,63,234,53,-202,148,87,-136,107,-102,-356,-273
-185,48,234,68,-209,141,87,-151,87,-107,-366,-292
-190,48,239,70,-214,143,87,-165,82,-112,-375,-302
-200,43,244,78,-222,143,87,-180,73,-126,-395,-312
-214,39,253,87,-234,146,82,-190,53,-136,-414,-326
-229,29,258,100,-244,143,87,-200,34,-136,-424,-341
-229,14,244,107,-236,129,87,-209,29,-146,-444,-351
-244,-4,239,124,-241,117,87,-219,9,-170,-453,-370
-248,-24,224,136,-236,100,82,-224,0,-180,-458,-380
-253,-43,209,148,-231,82,87,-224,-9,-195,-468,-390
-253,-68,185,161,-219,58,82,-224,-24,-204,-488,-400
-253,-78,175,165,-214,48,82,-224,-29,-204,-488,-400
-229,-82,146,156,-187,31,73,-229,-29,-195,-478,-385
-204,-82,122,143,-163,19,68,-219,-24,-185,-463,-361
-204,-73,131,139,-168,29,48,-214,-9,-175,-458,-356
-190,-73,117,131,-153,21,43,-204,0,-161,-439,-336
-170,-63,107,117,-139,21,24,-200,0,-136,-414,-317
-151,-53,97,102,-124,21,14,-195,24,-107,-380,-273
-122,-39,82,80,-102,21,4,-185,53,-82,-356,-239
-92,-19,73,56,-82,26,-4,-175,68,-68,-326,-204
-78,4,82,36,-80,43,-9,-175,87,-39,-292,-161
-58,24,82,17,-70,53,-9,-175,107,0,-253,-117
-39,53,92,-7,-65,73,-24,-175,131,19,-219,-92
-29,78,107,-24,-68,92,-29,-175,151,43,-195,-68
-24,87,112,-31,-68,100,-34,-180,165,63,-170,-39
-19,102,122,-41,-70,112,-34,-175,185,82,-146,-9
-19,102,122,-41,-70,112,-43,-175,200,92,-136,0
-29,102,131,-36,-80,117,-48,-175,204,102,-126,9
-29,97,126,-34,-78,112,-43,-180,214,107,-122,24
-34,97,131,-31,-82,114,-48,-180,219,112,-122,24
-29,97,126,-34,-78,112,-48,-175,234,112,-107,29
-29,97,126,-34,-78,112,-48,-170,248,122,-97,29
-29,92,122,-31,-75,107,-48,-165,248,122,-107,29
-29,87,117,-29,-73,102,-48,-161,248,126,-112,29
-29,87,117,-29,-73,102,-48,-151,263,126,-102,34
-24,92,117,-34,-70,104,-53,-141,273,126,-102,34
-14,92,107,-39,-61,100,-48,-126,273,126,-92,43
-4,92,97,-43,-51,95,-43,-112,273,136,-82,48
-19,87,107,-34,-63,97,-43,-102,287,136,-82,48
-34,82,117,-24,-75,100,-43,-92,297,136,-82,48
-34,82,117,-24,-75,100,-39,-68,307,141,-82,43
-34,82,117,-24,-75,100,-39,-58,317,146,-82,39
-29,78,107,-24,-68,92,-34,-58,317,151,-82,39
-24,68,92,-21,-58,80,-34,-58,322,151,-82,39
-24,63,87,-19,-56,75,-34,-58,326,151,-73,48
-29,58,87,-14,-58,73,-34,-53,331,151,-68,58
-29,53,82,-12,-56,68,-29,-43,331,151,-63,58
-34,48,82,-7,-58,65,-29,-39,331,151,-58,58
-39,43,82,-2,-61,63,-29,-29,341,156,-58,53
-43,39,82,2,-63,61,-24,-14,351,156,-58,48
-48,24,73,12,-61,48,-4,0,366,161,-53,53
-58,9,68,24,-63,39,9,9,380,165,-48,58
-58,9,68,24,-63,39,14,14,390,175,-39,73
-58,9,68,24,-63,39,19,19,400,185,-29,87
-53,9,63,21,-58,36,24,24,419,185,-24,87
-48,14,63,17,-56,39,29,29,444,190,-19,87
-48,24,73,12,-61,48,39,34,468,200,-14,92
-48,39,87,4,-68,63,43,43,492,224,0,102
-43,43,87,0,-65,65,53,58,517,244,4,117
-39,39,78,0,-58,58,58,63,531,248,4,122
-39,48,87,-4,-63,68,68,68,570,268,29,136
-39,48,87,-4,-63,68,73,68,595,287,53,156
-48,48,97,0,-73,73,58,53,605,292,53,156
-58,53,112,2,-85,82,34,29,605,302,58,161
-58,39,97,9,-78,68,4,19,614,302,48,146
-43,48,92,-2,-68,70,-19,0,629,302,43,136
-34,48,82,-7,-58,65,-14,4,653,312,53,156
-24,48,73,-12,-48,61,-9,4,668,312,68,156
-43,48,92,-2,-68,70,-9,4,673,312,58,156
-63,29,92,17,-78,61,-9,9,658,307,58,156
-48,24,73,12,-61,48,-14,14,658,307,58,151
-29,24,53,2,-41,39,-14,19,663,312,68,161
-29,24,53,2,-41,39,-4,29,668,331,82,165
-19,24,43,-2,-31,34,4,34,663,331,92,165
-14,9,24,2,-19,17,19,48,658,312,73,156
-14,-29,-14,21,0,-21,29,63,649,287,48,131
-24,-78,-53,51,14,-65,48,78,624,263,24,102
-39,-107,-68,73,14,-87,68,92,610,244,0,78
-48,-117,-68,82,9,-92,68,92,600,234,-14,63
-53,-126,-73,90,9,-100,73,92,585,229,-24,58
-53,-126,-73,90,9,-100,73,92,585,229,-24,58
-53,-131,-78,92,12,-104,73,92,580,229,-24,58
-53,-141,-87,97,17,-114,73,102,580,214,-29,48
-53,-151,-97,102,21,-124,73,112,580,204,-34,39
-53,-151,-97,102,21,-124,78,117,580,200,-39,34
-53,-146,-92,100,19,-119,87,122,580,195,-39,29
-24,-136,-112,80,43,-124,87,126,590,190,-39,29
4,-126,-131,61,68,-129,87,126,600,190,-39,29
-9,-122,-112,65,51,-117,87,126,590,190,-43,24
-24,-117,-92,70,34,-104,87,126,590,190,-43,24
-24,-117,-92,70,34,-104,92,136,595,185,-48,24
-24,-117,-92,70,34,-104,92,146,595,180,-53,24
-24,-117,-92,70,34,-104,92,141,590,180,-53,24
-24,-112,-87,68,31,-100,92,131,585,180,-53,24
-24,-102,-78,63,26,-90,87,131,595,180,-53,34
-34,-87,-53,61,9,-70,87,131,605,190,-43,48
-24,-58,-34,41,4,-46,107,141,624,204,-29,48
-9,-48,-39,29,14,-43,126,180,629,219,-19,63
78,-34,-112,-21,95,-73,141,283,629,244,39,131
263,4,-258,-134,261,-126,146,458,649,283,146,263
439,146,-292,-292,366,-73,161,590,756,444,331,483
561,409,-151,-485,356,129,122,629,922,639,570,746
619,688,68,-653,275,378,-24,507,1058,814,805,1010
624,883,258,-753,183,570,-336,102,1141,941,1000,1254
580,1044,463,-812,58,753,-644,-370,1166,1034,1146,1429
400,1132,732,-766,-165,932,-844,-795,1234,1122,1254,1551
214,1122,907,-668,-346,1015,-790,-907,1249,1107,1185,1454
63,990,927,-527,-431,958,-697,-834,1112,922,971,1234
34,673,639,-353,-302,656,-531,-653,873,634,624,824
24,302,278,-163,-126,290,-258,-366,566,248,165,326
9,78,68,-43,-29,73,-78,-107,458,63,-87,58
-14,-4,9,9,-12,2,-4,19,478,73,-87,0
-39,-24,14,31,-26,-4,43,39,492,82,-97,-19
-39,-39,0,39,-19,-19,87,63,492,82,-117,-48
-43,-63,-19,53,-12,-41,112,92,497,78,-122,-73
-53,-68,-14,61,-19,-41,97,102,492,68,-136,-78
-53,-87,-34,70,-9,-61,97,87,483,58,-141,-82
-48,-102,-53,75,2,-78,102,87,468,48,-146,-87
-43,-92,-48,68,2,-70,97,82,468,48,-151,-87
-39,-87,-48,63,4,-68,92,78,463,48,-156,-92
-39,-82,-43,61,2,-63,92,78,458,39,-161,-82
-39,-82,-43,61,2,-63,87,73,453,34,-161,-73
-34,-82,-48,58,7,-65,87,73,453,34,-161,-82
-34,-78,-43,56,4,-61,87,73,453,24,-161,-92
-39,-73,-34,56,-2,-53,87,78,453,24,-156,-97
-43,-63,-19,53,-12,-41,82,78,458,19,-156,-97
-43,-53,-9,48,-17,-31,82,78,453,19,-156,-92
-48,-43,4,46,-26,-19,82,78,448,19,-151,-82
-58,-39,19,48,-39,-9,78,78,444,19,-151,-78
-68,-39,29,53,-48,-4,73,78,444,14,-146,-68
-53,-24,29,39,-41,2,73,78,444,14,-146,-68
-39,-4,34,21,-36,14,73,78,444,19,-146,-68
-39,-14,24,26,-31,4,73,78,434,4,-151,-68
-43,-29,14,36,-29,-7,73,78,429,0,-165,-82
-53,-24,29,39,-41,2,73,82,429,4,-165,-82
-63,-19,43,41,-53,12,68,87,429,4,-165,-73
-53,-19,34,36,-43,7,68,87,429,9,-161,-78
-43,-19,24,31,-34,2,68,87,429,0,-161,-82
-43,-14,29,29,-36,7,78,87,424,0,-170,-82
-39,-9,29,24,-34,9,82,92,419,0,-175,-82
-39,0,39,19,-39,19,82,97,424,0,-175,-82
-39,0,39,19,-39,19,82,102,424,-4,-175,-82
-34,4,39,14,-36,21,87,107,424,-4,-175,-87
-29,14,43,7,-36,29,87,107,419,-9,-190,-92
-34,14,48,9,-41,31,97,107,419,-14,-190,-92
-39,14,53,12,-46,34,97,107,414,-19,-190,-92
-39,24,63,7,-51,43,97,107,409,-19,-190,-92
-43,29,73,7,-58,51,97,112,405,-24,-190,-92
-39,39,78,0,-58,58,97,112,409,-24,-190,-92
-39,39,78,0,-58,58,92,112,409,-24,-195,-92
-43,43,87,0,-65,65,97,112,405,-29,-204,-102
-48,43,92,2,-70,68,102,112,400,-34,-219,-107
-53,48,102,2,-78,75,107,112,390,-39,-234,-122
-58,48,107,4,-82,78,112,112,385,-43,-244,-131
-63,58,122,2,-92,90,122,112,380,-48,-244,-136
-68,58,126,4,-97,92,126,102,375,-53,-244,-141
-73,63,136,4,-104,100,126,92,370,-58,-253,-146
-87,68,156,9,-122,112,131,78,361,-63,-253,-161
-97,73,170,12,-134,122,131,73,356,-63,-258,-161
-107,87,195,9,-151,141,136,68,356,-73,-268,-170
-112,87,200,12,-156,143,136,63,341,-78,-283,-170
-117,92,209,12,-163,151,136,53,331,-87,-297,-180
-122,92,214,14,-168,153,131,39,322,-107,-307,-204
-131,92,224,19,-178,158,131,24,307,-122,-326,-224
-146,87,234,29,-190,161,131,14,302,-126,-336,-234
-151,87,239,31,-195,163,126,4,297,-131,-346,-244
-161,82,244,39,-202,163,122,-14,273,-161,-370,-263
-170,78,248,46,-209,163,107,-34,253,-185,-395,-287
-180,68,248,56,-214,158,102,-43,239,-190,-414,-317
-180,58,239,61,-209,148,97,-53,224,-204,-444,-341
-185,43,229,70,-207,136,92,-63,195,-234,-453,-361
-175,29,204,73,-190,117,78,-68,175,-248,-463,-370
-165,24,190,70,-178,107,73,-68,165,-263,-473,-375
-156,9,165,73,-161,87,58,-68,151,-273,-488,-380
-151,9,161,70,-156,85,48,-73,146,-283,-488,-380
-122,4,126,58,-124,65,29,-73,141,-292,-488,-380
-92,4,97,43,-95,51,19,-53,141,-283,-478,-366
-68,14,82,26,-75,48,0,-48,141,-273,-473,-356
-34,19,53,7,-43,36,-14,-39,136,-268,-458,-331
-9,34,43,-12,-26,39,-43,-34,136,-258,-434,-307
9,53,43,-31,-17,48,-53,-29,161,-229,-390,-258
34,87,53,-61,-9,70,-68,-29,180,-200,-356,-224
58,107,48,-82,4,78,-87,-29,180,-195,-326,-195
68,126,58,-97,4,92,-107,-29,190,-180,-302,-161
87,146,58,-117,14,102,-122,-34,204,-156,-273,-131
107,170,63,-139,21,117,-141,-39,219,-136,-248,-112
117,185,68,-151,24,126,-146,-39,229,-117,-234,-87
126,195,68,-161,29,131,-156,-48,229,-107,-209,-63
126,209,82,-168,21,146,-161,-48,234,-92,-185,-39
126,219,92,-173,17,156,-170,-48,244,-87,-180,-34
126,234,107,-180,9,170,-175,-48,244,-82,-175,-29
136,239,102,-187,17,170,-175,-53,248,-78,-170,-14
141,248,107,-195,17,178,-195,-63,244,-73,-180,-14
146,253,107,-200,19,180,-204,-73,239,-73,-175,-9
151,258,107,-204,21,183,-204,-73,234,-63,-170,-14
156,263,107,-209,24,185,-204,-73,229,-63,-175,-19
156,268,112,-212,21,190,-200,-68,224,-58,-170,-19
156,273,117,-214,19,195,-195,-63,234,-58,-161,-14
161,278,117,-219,21,197,-200,-63,244,-58,-161,-9
161,278,117,-219,21,197,-200,-63,244,-58,-161,0
165,283,117,-224,24,200,-204,-68,234,-53,-161,0
170,287,117,-229,26,202,-209,-68,229,-58,-161,0
170,287,117,-229,26,202,-209,-68,229,-58,-161,-9
170,287,117,-229,26,202,-204,-58,229,-53,-156,-19
165,287,122,-226,21,204,-204,-58,229,-53,-156,-19
161,292,131,-226,14,212,-200,-58,224,-53,-161,-19
161,292,131,-226,14,212,-204,-63,224,-53,-161,-19
161,292,131,-226,14,212,-209,-68,224,-53,-161,-19
165,302,136,-234,14,219,-209,-63,224,-53,-161,-14
175,312,136,-244,19,224,-204,-58,224,-53,-156,-9
170,312,141,-241,14,226,-204,-58,224,-53,-156,-9
165,312,146,-239,9,229,-204,-58,224,-53,-156,-14
165,312,146,-239,9,229,-200,-53,214,-58,-156,-14
161,312,151,-236,4,231,-195,-53,204,-58,-156,-19
156,302,146,-229,4,224,-200,-53,200,-63,-161,-24
151,292,141,-222,4,217,-204,-58,200,-73,-170,-34
146,297,151,-222,-2,224,-200,-53,195,-63,-165,-34
146,302,156,-224,-4,229,-195,-48,195,-58,-165,-39
151,307,156,-229,-2,231,-200,-48,195,-58,-165,-39
156,312,156,-234,0,234,-204,-48,195,-58,-165,-39
161,317,156,-239,2,236,-204,-48,195,-53,-161,-39
161,326,165,-244,-2,246,-200,-43,195,-43,-151,-29
165,336,170,-251,-2,253,-200,-43,200,-39,-141,-24
170,356,185,-263,-7,270,-190,-34,209,-24,-131,-4
175,361,185,-268,-4,273,-185,-34,209,-24,-131,-4
175,375,200,-275,-12,287,-175,-29,224,-19,-122,0
180,380,200,-280,-9,290,-180,-34,224,-14,-112,9
185,385,200,-285,-7,292,-190,-39,234,-9,-112,9
185,405,219,-295,-17,312,-200,-53,234,0,-107,14
185,429,244,-307,-29,336,-229,-68,244,9,-97,19
200,453,253,-326,-26,353,-253,-87,248,14,-92,19
200,448,248,-324,-24,348,-263,-92,248,19,-92,29
200,448,248,-324,-24,348,-268,-97,248,9,-78,19
200,439,239,-319,-19,339,-273,-102,244,-4,-92,9
200,434,234,-317,-17,334,-273,-102,224,0,-82,24
200,444,244,-322,-21,344,-268,-97,229,9,-78,24
204,444,239,-324,-17,341,-268,-97,234,9,-78,24
204,444,239,-324,-17,341,-263,-87,234,19,-73,29
209,444,234,-326,-12,339,-258,-78,224,4,-78,24
204,429,224,-317,-9,326,-248,-68,219,-9,-92,14
200,390,190,-295,4,290,-244,-63,204,-24,-107,-4
175,336,161,-256,7,248,-224,-58,175,-48,-131,-34
151,302,151,-226,0,226,-204,-53,161,-68,-156,-53
146,292,146,-219,0,219,-204,-53,151,-82,-170,-68
141,283,141,-212,0,212,-200,-48,136,-92,-180,-78
141,283,141,-212,0,212,-200,-43,136,-92,-180,-78
146,278,131,-212,7,204,-200,-39,131,-92,-180,-82
151,278,126,-214,12,202,-200,-34,131,-97,-180,-87
151,278,126,-214,12,202,-200,-34,131,-97,-175,-87
151,278,126,-214,12,202,-200,-34,131,-97,-175,-87
151,283,131,-217,9,207,-200,-34,131,-92,-170,-87
151,283,131,-217,9,207,-204,-29,131,-92,-165,-87
151,283,131,-217,9,207,-209,-29,131,-92,-161,-87
151,283,131,-217,9,207,-214,-29,122,-92,-161,-92
151,283,131,-217,9,207,-219,-29,117,-92,-161,-87
151,283,131,-217,9,207,-219,-29,117,-92,-161,-82
151,283,131,-217,9,207,-219,-29,117,-92,-156,-82
151,283,131,-217,9,207,-219,-24,117,-92,-151,-82
156,297,141,-226,7,219,-214,-19,122,-87,-146,-82
161,312,151,-236,4,231,-209,-14,136,-82,-141,-78
151,322,170,-236,-9,246,-204,-9,146,-68,-131,-63
146,346,200,-246,-26,273,-180,4,170,-48,-117,-58
185,351,165,-268,9,258,-161,92,180,-29,-82,-14
283,351,68,-317,107,209,-151,224,180,-14,-39,43
458,434,-24,-446,241,204,-146,390,244,58,78,180
692,605,-87,-649,390,258,-146,570,356,229,278,405
795,829,34,-812,380,431,-234,512,483,390,488,639
824,1098,273,-961,275,685,-361,331,629,570,702,888
780,1263,483,-1022,148,873,-653,-68,722,707,883,1107
702,1415,712,-1058,-4,1063,-1029,-639,775,829,1068,1327
575,1468,893,-1022,-158,1180,-1180,-956,819,858,1122,1410
351,1478,1127,-915,-387,1302,-1098,-1034,844,858,1083,1337
214,1356,1141,-785,-463,1249,-1010,-966,707,697,873,1112
234,966,732,-600,-248,849,-814,-692,405,341,419,610
209,629,419,-419,-104,524,-585,-444,161,24,43,204
180,409,229,-295,-24,319,-370,-165,87,-117,-165,-39
126,302,175,-214,-24,239,-273,-14,78,-131,-204,-136
87,283,195,-185,-53,239,-248,-24,92,-122,-204,-146
102,273,170,-187,-34,222,-224,4,92,-122,-214,-165
112,268,156,-190,-21,212,-204,43,102,-122,-214,-175
107,283,175,-195,-34,229,-204,58,97,-126,-224,-175
112,292,180,-202,-34,236,-214,39,87,-126,-224,-180
117,287,170,-202,-26,229,-209,39,78,-126,-224,-185
117,287,170,-202,-26,229,-209,43,78,-126,-229,-185
117,283,165,-200,-24,224,-214,43,68,-126,-234,-190
117,283,165,-200,-24,224,-214,39,63,-126,-239,-190
107,278,170,-192,-31,224,-214,29,58,-122,-244,-195
102,278,175,-190,-36,226,-214,24,53,-122,-248,-200
102,273,170,-187,-34,222,-214,24,48,-126,-248,-200
102,263,161,-183,-29,212,-209,29,43,-122,-248,-204
102,268,165,-185,-31,217,-209,29,39,-126,-253,-204
102,268,165,-185,-31,217,-209,29,29,-126,-253,-204
87,268,180,-178,-46,224,-209,29,24,-131,-253,-209
78,268,190,-173,-56,229,-209,29,14,-131,-258,-219
73,258,185,-165,-56,222,-209,29,4,-131,-253,-214
68,253,185,-161,-58,219,-209,29,-4,-131,-253,-214
68,258,190,-163,-61,224,-209,24,14,-126,-248,-209
68,263,195,-165,-63,229,-209,19,29,-126,-244,-204
63,263,200,-163,-68,231,-204,14,29,-117,-253,-219
63,268,204,-165,-70,236,-200,9,29,-112,-253,-219
53,263,209,-158,-78,236,-204,4,24,-117,-258,-219
43,253,209,-148,-82,231,-204,0,19,-122,-258,-229
29,248,219,-139,-95,234,-204,0,19,-136,-258,-229
9,244,234,-126,-112,239,-200,-4,19,-136,-263,-229
19,244,224,-131,-102,234,-190,0,19,-136,-263,-229
29,253,224,-141,-97,239,-180,4,24,-131,-263,-229
29,244,214,-136,-92,229,-175,4,29,-131,-263,-229
24,234,209,-129,-92,222,-165,9,34,-126,-263,-234
14,234,219,-124,-102,226,-161,9,43,-122,-268,-239
4,229,224,-117,-109,226,-146,9,58,-117,-258,-239
-4,229,234,-112,-119,231,-136,9,53,-117,-258,-229
-9,234,244,-112,-126,239,-126,9,53,-112,-258,-219
-24,224,248,-100,-136,236,-122,14,53,-112,-258,-219
-34,224,258,-95,-146,241,-112,14,63,-107,-258,-219
-39,214,253,-87,-146,234,-107,19,73,-102,-263,-219
-43,209,253,-82,-148,231,-97,24,78,-102,-263,-224
-48,204,253,-78,-151,229,-87,24,78,-107,-273,-229
-53,204,258,-75,-156,231,-73,24,78,-112,-278,-239
-58,190,248,-65,-153,219,-63,24,73,-112,-278,-244
-63,185,248,-61,-156,217,-53,24,68,-112,-283,-248
-78,180,258,-51,-168,219,-34,14,82,-112,-283,-248
-92,175,268,-41,-180,222,-19,14,92,-112,-292,-253
-107,170,278,-31,-192,224,-9,9,92,-112,-292,-263
-117,165,283,-24,-200,224,-4,4,97,-112,-297,-258
-131,156,287,-12,-209,222,0,-4,102,-122,-307,-268
-146,136,283,4,-214,209,4,-14,102,-122,-312,-268
-185,117,302,34,-244,209,14,-24,107,-126,-322,-278
-224,92,317,65,-270,204,19,-34,107,-136,-326,-292
-224,87,312,68,-268,200,24,-43,102,-141,-336,-302
-224,78,302,73,-263,190,29,-53,97,-146,-346,-312
-229,78,307,75,-268,192,39,-63,102,-136,-341,-312
-239,73,312,82,-275,192,48,-73,102,-136,-346,-312
-248,58,307,95,-278,183,43,-78,97,-156,-366,-326
-258,39,297,109,-278,168,48,-82,92,-165,-375,-341
-258,9,268,124,-263,139,53,-92,73,-185,-414,-361
-273,-24,248,148,-261,112,58,-102,39,-219,-444,-390
-258,-29,229,143,-244,100,48,-107,39,-219,-434,-390
-244,-34,209,139,-226,87,48,-107,39,-224,-429,-390
-234,-58,175,146,-204,58,43,-97,24,-234,-448,-395
-224,-68,156,146,-190,43,43,-87,19,-234,-448,-390
-200,-78,122,139,-161,21,39,-82,14,-234,-444,-385
-175,-82,92,129,-134,4,39,-63,14,-234,-434,-370
-170,-82,87,126,-129,2,19,-68,19,-229,-434,-361
-151,-92,58,122,-104,-17,14,-68,19,-219,-419,-336
-126,-82,43,104,-85,-19,-4,-63,24,-185,-385,-302
-102,-73,29,87,-65,-21,-14,-58,53,-146,-341,-244
-63,-39,24,51,-43,-7,-24,-58,78,-122,-307,-209
-24,0,24,12,-24,12,-34,-58,87,-107,-268,-175
-19,9,29,4,-24,19,-48,-58,107,-92,-244,-141
-9,14,24,-2,-17,19,-58,-58,126,-68,-214,-107
0,29,29,-14,-14,29,-73,-63,141,-48,-190,-82
0,39,39,-19,-19,39,-78,-68,151,-24,-175,-58
9,48,39,-29,-14,43,-78,-78,151,-9,-151,-34
19,63,43,-41,-12,53,-73,-78,156,4,-126,-9
29,63,34,-46,-2,48,-73,-73,165,4,-122,-9
29,63,34,-46,-2,48,-68,-68,165,4,-117,-9
29,58,29,-43,0,43,-63,-73,165,4,-112,4
24,58,34,-41,-4,46,-68,-73,161,4,-112,4
29,58,29,-43,0,43,-63,-73,161,4,-102,9
29,58,29,-43,0,43,-58,-73,161,14,-97,9
24,58,34,-41,-4,46,-58,-73,161,14,-97,14
19,58,39,-39,-9,48,-58,-73,161,19,-92,19
19,58,39,-39,-9,48,-53,-68,180,24,-73,29
24,63,39,-43,-7,51,-53,-63,195,29,-63,34
29,63,34,-46,-2,48,-48,-63,195,29,-63,39
34,63,29,-48,2,46,-43,-63,195,39,-63,39
34,63,29,-48,2,46,-43,-58,200,34,-63,39
34,63,29,-48,2,46,-43,-53,200,29,-63,39
39,63,24,-51,7,43,-39,-39,200,34,-58,39
43,63,19,-53,12,41,-39,-39,200,39,-53,39
43,68,24,-56,9,46,-34,-39,190,43,-53,39
43,68,24,-56,9,46,-34,-39,185,43,-53,39
43,63,19,-53,12,41,-29,-39,185,43,-43,39
39,58,19,-48,9,39,-24,-34,185,43,-39,39
43,58,14,-51,14,36,-14,-29,195,39,-39,43
43,58,14,-51,14,36,-9,-29,204,34,-39,48
39,48,9,-43,14,29,-9,-24,195,34,-39,43
39,39,0,-39,19,19,-4,-14,185,29,-39,43
34,39,4,-36,14,21,-4,-14,185,24,-34,39
34,39,4,-36,14,21,0,-14,185,24,-29,39
29,34,4,-31,12,19,0,-14,175,24,-39,34
29,34,4,-31,12,19,4,-14,175,24,-39,34
34,39,4,-36,14,21,0,-4,185,24,-39,34
39,39,0,-39,19,19,0,0,185,24,-39,34
34,39,4,-36,14,21,4,4,185,19,-29,34
29,39,9,-34,9,24,9,9,185,19,-19,39
29,39,9,-34,9,24,14,9,185,19,-19,39
29,39,9,-34,9,24,19,9,185,19,-19,39
29,39,9,-34,9,24,19,14,185,19,-19,34
34,39,4,-36,14,21,19,14,185,19,-19,29
39,43,4,-41,17,24,24,19,185,19,-19,29
48,48,0,-48,24,24,24,24,180,29,-9,34
53,63,9,-58,21,36,34,34,190,43,-4,43
58,68,9,-63,24,39,39,34,190,43,-4,43
58,78,19,-68,19,48,48,43,200,43,4,43
58,78,19,-68,19,48,53,48,195,43,14,48
63,82,19,-73,21,51,53,48,204,48,14,48
68,92,24,-80,21,58,43,39,204,58,19,53
68,107,39,-87,14,73,14,24,214,73,29,63
82,146,63,-114,9,104,-9,0,229,87,43,78
87,156,68,-122,9,112,-19,-4,239,97,53,97
92,165,73,-129,9,119,-29,-14,239,97,68,97
92,170,78,-131,7,124,-34,-24,234,92,58,97
92,156,63,-124,14,109,-39,-29,209,82,58,97
97,156,58,-126,19,107,-43,-29,200,73,48,82
107,161,53,-134,26,107,-43,-29,195,68,48,82
112,165,53,-139,29,109,-43,-19,190,73,53,87
126,170,43,-148,41,107,-43,-14,175,58,53,87
131,156,24,-143,53,90,-34,-9,156,43,39,78
131,117,-14,-124,73,51,-29,-4,131,24,19,53
112,63,-48,-87,80,7,-9,0,97,0,-4,24
87,29,-58,-58,73,-14,9,4,73,-19,-29,0
78,24,-53,-51,65,-14,4,0,63,-29,-39,-9
73,19,-53,-46,63,-17,4,-4,48,-34,-43,-9
82,34,-48,-58,65,-7,0,-4,43,-34,-43,-9
92,43,-48,-68,70,-2,-4,-4,34,-34,-43,-9
97,48,-48,-73,73,0,-14,-9,9,-43,-48,-14
102,53,-48,-78,75,2,-24,-14,-14,-48,-53,-19
112,53,-58,-82,85,-2,-29,-19,-24,-58,-58,-19
122,58,-63,-90,92,-2,-29,-24,-34,-68,-58,-19
126,68,-58,-97,92,4,-39,-19,-34,-73,-58,-19
131,78,-53,-104,92,12,-48,-19,-34,-73,-58,-19
141,87,-53,-114,97,17,-58,-19,-53,-73,-63,-24
151,97,-53,-124,102,21,-68,-19,-63,-73,-63,-24
156,102,-53,-129,104,24,-78,-19,-68,-82,-73,-34
161,107,-53,-134,107,26,-92,-19,-78,-92,-82,-43
165,122,-43,-143,104,39,-102,-9,-78,-92,-82,-43
170,141,-29,-156,100,56,-112,-4,-78,-92,-82,-43
175,165,-9,-170,92,78,-122,4,-63,-92,-78,-39
170,195,24,-183,73,109,-126,14,-48,-82,-63,-29
170,224,53,-197,58,139,-117,34,-24,-68,-48,-29
175,234,58,-204,58,146,-107,82,-14,-53,-39,-14
239,234,-4,-236,122,114,-92,204,-24,-53,-34,0
400,258,-141,-329,270,58,-87,400,-14,-39,19,78
649,366,-283,-507,466,41,-63,634,63,73,151,239
844,595,-248,-719,546,173,-92,775,200,219,336,444
917,873,-43,-895,480,414,-209,692,346,395,546,683
936,1068,131,-1002,402,600,-492,326,439,522,717,902
922,1254,331,-1088,295,793,-897,-244,492,639,902,1132
771,1366,595,-1068,87,980,-1195,-766,590,751,1049,1307
536,1464,927,-1000,-195,1195,-1195,-961,678,849,1107,1332
336,1439,1102,-888,-383,1271,-1156,-971,614,775,1019,1234
292,1083,790,-688,-248,936,-995,-741,346,463,653,810
268,673,405,-470,-68,539,-727,-405,9,53,175,297
224,448,224,-336,0,336,-488,-78,-97,-131,-102,4
170,366,195,-268,-12,280,-356,117,-78,-122,-126,-78
136,336,200,-236,-31,268,-307,156,-63,-112,-126,-97
126,312,185,-219,-29,248,-263,200,-63,-112,-136,-126
122,297,175,-209,-26,236,-229,239,-53,-112,-136,-151
112,302,190,-207,-39,246,-234,258,-53,-117,-146,-156
117,292,175,-204,-29,234,-244,244,-58,-122,-151,-165
126,287,161,-207,-17,224,-248,244,-68,-126,-156,-175
126,287,161,-207,-17,224,-248,248,-68,-126,-161,-175
126,283,156,-204,-14,219,-248,253,-73,-126,-165,-180
122,278,156,-200,-17,217,-239,258,-68,-126,-170,-180
117,268,151,-192,-17,209,-234,258,-63,-122,-170,-180
117,268,151,-192,-17,209,-224,263,-53,-117,-170,-180
112,273,161,-192,-24,217,-214,268,-43,-122,-170,-180
112,268,156,-190,-21,212,-200,273,-43,-117,-170,-190
112,268,156,-190,-21,212,-190,273,-39,-117,-175,-195
112,263,151,-187,-19,207,-185,268,-34,-117,-175,-200
107,258,151,-183,-21,204,-180,263,-29,-117,-170,-200
92,253,161,-173,-34,207,-170,258,-29,-112,-175,-204
78,244,165,-161,-43,204,-161,253,-24,-112,-175,-204
73,239,165,-156,-46,202,-151,248,-14,-107,-175,-204
68,239,170,-153,-51,204,-141,244,-4,-97,-175,-204
68,244,175,-156,-53,209,-136,234,-4,-97,-175,-200
63,244,180,-153,-58,212,-131,224,0,-87,-185,-209
48,244,195,-146,-73,219,-126,214,4,-78,-185,-209
34,244,209,-139,-87,226,-126,204,9,-73,-185,-200
34,234,200,-134,-82,217,-122,195,9,-68,-180,-204
34,224,190,-129,-78,207,-117,185,9,-78,-180,-209
29,219,190,-124,-80,204,-102,175,14,-78,-185,-209
29,214,185,-122,-78,200,-92,170,19,-78,-185,-209
29,219,190,-124,-80,204,-82,165,24,-73,-185,-209
29,214,185,-122,-78,200,-73,161,24,-73,-185,-209
14,204,190,-109,-87,197,-68,161,34,-68,-185,-214
0,200,200,-100,-100,200,-68,156,39,-68,-200,-219
-4,200,204,-97,-104,202,-48,151,53,-63,-195,-214
-9,200,209,-95,-109,204,-39,146,63,-58,-190,-209
-14,209,224,-97,-119,217,-34,141,68,-53,-185,-204
-24,214,239,-95,-131,226,-29,141,73,-53,-180,-200
-24,224,248,-100,-136,236,-19,131,87,-48,-175,-200
-29,224,253,-97,-141,239,-14,122,97,-43,-175,-200
-39,224,263,-92,-151,244,-4,122,102,-48,-175,-204
-48,219,268,-85,-158,244,4,122,107,-53,-180,-204
-58,219,278,-80,-168,248,14,117,112,-58,-185,-214
-68,214,283,-73,-175,248,24,112,122,-63,-185,-219
-73,224,297,-75,-185,261,39,112,131,-63,-185,-219
-78,224,302,-73,-190,263,48,102,141,-63,-185,-219
-87,229,317,-70,-202,273,53,92,146,-58,-195,-219
-107,234,341,-63,-224,287,63,78,146,-53,-195,-229
-122,234,356,-56,-239,295,63,68,151,-53,-200,-229
-136,244,380,-53,-258,312,68,58,161,-63,-209,-239
-151,239,390,-43,-270,314,73,48,161,-58,-214,-234
-165,239,405,-36,-285,322,78,34,165,-58,-219,-239
-175,239,414,-31,-295,326,78,19,180,-63,-214,-248
-190,239,429,-24,-309,334,82,4,190,-63,-219,-253
-209,234,444,-12,-326,339,87,-4,190,-68,-224,-263
-219,234,453,-7,-336,344,87,-14,190,-73,-229,-273
-234,219,453,7,-344,336,97,-19,180,-87,-248,-283
-248,204,453,21,-351,329,97,-24,175,-97,-268,-297
-258,185,444,36,-351,314,97,-34,170,-97,-273,-312
-258,165,424,46,-341,295,97,-43,165,-107,-287,-322
-273,146,419,63,-346,283,102,-58,151,-126,-297,-341
-273,126,400,73,-336,263,97,-68,146,-131,-307,-351
-268,102,370,82,-319,236,97,-73,136,-146,-322,-361
-263,68,331,97,-297,200,87,-78,122,-156,-341,-370
-263,58,322,102,-292,190,87,-78,117,-156,-341,-370
-239,43,283,97,-261,163,78,-73,112,-156,-341,-370
-214,29,244,92,-229,136,73,-48,112,-156,-336,-361
-195,24,219,85,-207,122,58,-39,112,-156,-336,-356
-165,14,180,75,-173,97,53,-24,112,-151,-322,-336
-146,14,161,65,-153,87,34,-14,117,-141,-297,-317
-122,9,131,56,-126,70,29,-4,146,-107,-258,-273
-92,19,112,36,-102,65,19,0,170,-73,-229,-244
-63,34,97,14,-80,65,9,4,175,-68,-200,-214
-48,48,97,0,-73,73,0,9,190,-53,-175,-180
-34,43,78,-4,-56,61,-4,14,209,-29,-146,-146
-19,43,63,-12,-41,53,-14,19,229,-9,-122,-122
-14,53,68,-19,-41,61,-14,24,248,9,-107,-97
-9,58,68,-24,-39,63,-19,19,258,19,-82,-73
0,58,58,-29,-29,58,-19,19,263,34,-58,-48
9,53,43,-31,-17,48,-24,19,273,39,-53,-43
9,53,43,-31,-17,48,-24,24,273,43,-48,-39
19,43,24,-31,-2,34,-19,24,278,48,-43,-24
24,43,19,-34,2,31,-24,24,292,58,-39,-9
29,39,9,-34,9,24,-19,24,307,63,-19,9
29,34,4,-31,12,19,-14,24,312,78,-4,19
29,29,0,-29,14,14,-9,24,317,82,0,29
24,24,0,-24,12,12,0,24,317,87,4,29
19,19,0,-19,9,9,9,24,331,87,14,34
24,4,-19,-14,21,-7,9,24,336,82,4,24
24,-14,-39,-4,31,-26,14,24,331,78,-4,19
19,-24,-43,2,31,-34,24,24,331,82,-4,19
14,-34,-48,9,31,-41,34,29,336,78,-4,19
14,-39,-53,12,34,-46,34,29,336,78,-4,24
14,-43,-58,14,36,-51,39,39,336,82,0,29
9,-48,-58,19,34,-53,39,39,346,87,9,34
4,-48,-53,21,29,-51,43,39,351,92,14,39
4,-48,-53,21,29,-51,48,39,356,92,14,39
4,-48,-53,21,29,-51,53,39,361,92,14,39
0,-63,-63,31,31,-63,58,43,361,92,9,39
0,-78,-78,39,39,-78,68,48,361,92,9,39
-4,-78,-73,41,34,-75,73,48,361,92,9,43
-9,-78,-68,43,29,-73,78,48,361,92,9,43
-9,-82,-73,46,31,-78,87,53,366,87,9,43
-14,-87,-73,51,29,-80,92,53,370,87,9,39
-14,-87,-73,51,29,-80,97,58,370,92,14,39
-19,-92,-73,56,26,-82,97,63,370,92,9,34
-19,-97,-78,58,29,-87,102,63,375,92,9,29
-19,-102,-82,61,31,-92,102,68,380,92,9,24
-19,-107,-87,63,34,-97,107,68,380,92,4,24
-19,-107,-87,63,34,-97,107,73,380,92,4,24
-19,-117,-97,68,39,-107,107,73,390,92,4,24
-19,-122,-102,70,41,-112,112,73,385,92,4,19
-24,-126,-102,75,39,-114,112,73,385,92,0,14
-29,-136,-107,82,39,-122,117,78,390,97,-9,9
-29,-136,-107,82,39,-122,122,78,395,97,-9,9
-29,-136,-107,82,39,-122,126,78,400,97,-9,9
-29,-136,-107,82,39,-122,126,78,405,97,-9,9
-29,-131,-102,80,36,-117,126,78,409,97,-9,9
-29,-131,-102,80,36,-117,131,78,414,97,-9,9
-29,-126,-97,78,34,-112,131,82,414,107,0,14
-24,-112,-87,68,31,-100,146,92,429,131,9,24
-19,-107,-87,63,34,-97,156,92,434,141,14,24
-14,-92,-78,53,31,-85,165,102,453,146,24,29
-9,-87,-78,48,34,-82,170,107,458,151,34,39
-4,-82,-78,43,36,-80,170,107,473,156,34,43
0,-73,-73,36,36,-73,161,97,478,165,39,53
0,-63,-63,31,31,-63,131,82,488,175,53,58
14,-29,-43,7,29,-36,107,58,502,185,73,68
19,-19,-39,0,29,-29,97,53,512,195,82,87
24,-9,-34,-7,29,-21,87,43,512,195,97,87
24,-9,-34,-7,29,-21,78,34,512,190,87,92
24,-29,-53,2,39,-41,68,29,492,180,87,97
24,-34,-58,4,41,-46,63,29,492,175,78,87
29,-34,-63,2,46,-48,63,29,497,175,78,92
29,-39,-68,4,48,-53,68,39,497,185,82,97
39,-43,-82,2,61,-63,73,43,488,175,82,97
34,-63,-97,14,65,-80,82,48,483,165,73,92
24,-107,-131,41,78,-119,87,53,473,151,58,73
0,-165,-165,82,82,-165,107,53,448,126,34,43
-29,-204,-175,117,73,-190,126,53,434,107,9,19
-39,-214,-175,126,68,-195,126,53,434,97,-4,0
-43,-224,-180,134,68,-202,131,53,429,92,-14,-9
-43,-219,-175,131,65,-197,126,53,429,92,-14,-4
-43,-219,-175,131,65,-197,122,53,424,92,-14,0
-43,-219,-175,131,65,-197,122,53,424,87,-9,0
-43,-219,-175,131,65,-197,122,53,424,87,-4,0
-43,-224,-180,134,68,-202,117,48,424,87,-9,0
-43,-224,-180,134,68,-202,117,43,424,87,-9,0
-43,-224,-180,134,68,-202,117,43,429,82,-9,0
-43,-224,-180,134,68,-202,117,39,434,82,-9,0
-43,-219,-175,131,65,-197,112,39,429,87,-14,0
-43,-214,-170,129,63,-192,107,39,434,92,-14,4
-39,-214,-175,126,68,-195,107,34,439,92,-14,4
-34,-214,-180,124,73,-197,102,29,439,92,-14,4
-34,-214,-180,124,73,-197,102,29,439,92,-14,4
-34,-209,-175,122,70,-192,102,24,439,92,-14,4
-34,-200,-165,117,65,-183,102,19,448,92,-14,4
-43,-185,-141,114,48,-163,107,14,458,102,-4,9
-48,-161,-112,104,31,-136,131,24,483,117,4,9
-48,-156,-107,102,29,-131,156,63,492,131,9,24
9,-170,-180,80,95,-175,170,161,478,122,9,34
165,-161,-326,-2,246,-244,175,331,483,126,58,107
409,-53,-463,-178,436,-258,165,502,546,244,200,278
600,175,-424,-387,512,-124,102,580,668,395,395,492
697,444,-253,-570,475,95,-19,507,795,551,595,732
741,629,-112,-685,427,258,-307,151,868,658,756,951
722,839,117,-780,302,478,-649,-409,946,805,971,1205
566,976,409,-771,78,692,-883,-922,1068,946,1146,1405
302,1083,780,-692,-239,932,-883,-1132,1190,1063,1224,1449
73,1068,995,-570,-461,1032,-844,-1156,1161,1010,1156,1371
29,722,692,-375,-331,707,-653,-951,912,702,795,951
4,322,317,-163,-156,319,-356,-639,595,297,322,444
-24,48,73,-12,-48,61,-117,-283,444,73,14,117
-63,-82,-19,73,-21,-51,14,-58,419,43,-39,0
-87,-107,-19,97,-34,-63,73,-34,434,48,-43,-19
-87,-126,-39,107,-24,-82,126,-4,434,43,-58,-48
-87,-141,-53,114,-17,-97,156,43,444,43,-58,-68
-92,-136,-43,114,-24,-90,146,73,444,39,-68,-68
-92,-141,-48,117,-21,-95,141,48,439,29,-73,-73
-87,-141,-53,114,-17,-97,141,39,429,19,-78,-78
-87,-136,-48,112,-19,-92,141,43,429,19,-82,-78
-87,-136,-48,112,-19,-92,141,48,424,19,-87,-82
-87,-131,-43,109,-21,-87,141,53,419,19,-92,-82
-87,-131,-43,109,-21,-87,136,53,414,24,-92,-82
-82,-126,-43,104,-19,-85,136,53,414,24,-92,-82
-82,-117,-34,100,-24,-75,136,53,414,14,-92,-82
-82,-117,-34,100,-24,-75,136,58,409,9,-92,-87
-82,-112,-29,97,-26,-70,131,58,409,0,-97,-87
-82,-112,-29,97,-26,-70,131,58,409,-4,-102,-92
-87,-112,-24,100,-31,-68,131,58,409,-9,-102,-92
-87,-97,-9,92,-39,-53,131,58,405,-4,-102,-92
-87,-87,0,87,-43,-43,131,58,405,-4,-97,-87
-87,-87,0,87,-43,-43,126,58,405,-4,-92,-87
-87,-82,4,85,-46,-39,122,58,405,0,-87,-87
-87,-78,9,82,-48,-34,122,58,400,0,-87,-78
-92,-78,14,85,-53,-31,122,58,400,9,-97,-82
-92,-73,19,82,-56,-26,122,58,400,14,-102,-92
-92,-68,24,80,-58,-21,117,58,400,14,-107,-92
-87,-63,24,75,-56,-19,117,58,400,19,-102,-92
-82,-58,24,70,-53,-17,117,58,400,9,-102,-92
-87,-53,34,70,-61,-9,122,53,400,14,-102,-87
-87,-48,39,68,-63,-4,122,53,400,19,-97,-82
-87,-39,48,63,-68,4,122,53,405,24,-97,-82
-87,-39,48,63,-68,4,122,53,405,24,-97,-82
-87,-39,48,63,-68,4,122,58,405,24,-97,-87
-87,-34,53,61,-70,9,117,58,400,19,-112,-92
-92,-39,53,65,-73,7,126,58,395,19,-112,-92
-97,-43,53,70,-75,4,126,58,385,19,-112,-92
-97,-39,58,68,-78,9,131,58,385,24,-107,-92
-102,-39,63,70,-82,12,136,63,385,24,-102,-92
-102,-29,73,65,-87,21,141,63,395,29,-97,-87
-107,-29,78,68,-92,24,141,63,400,34,-97,-82
-112,-19,92,65,-102,36,146,63,400,34,-97,-87
-117,-14,102,65,-109,43,151,63,400,34,-102,-87
-122,-9,112,65,-117,51,156,63,400,34,-102,-87
-126,-9,117,68,-122,53,161,63,405,34,-97,-82
-131,4,136,63,-134,70,170,63,409,34,-97,-82
-136,9,146,63,-141,78,175,53,414,34,-97,-82
-141,9,151,65,-146,80,180,48,419,34,-107,-82
-156,9,165,73,-161,87,190,39,419,34,-107,-92
-170,4,175,82,-173,90,190,34,419,39,-107,-92
-185,9,195,87,-190,102,195,29,424,34,-112,-102
-195,4,200,95,-197,102,200,24,424,39,-117,-97
-204,4,209,100,-207,107,204,14,429,39,-122,-102
-214,0,214,107,-214,107,209,4,434,34,-122,-117
-229,-4,224,117,-226,109,219,-4,434,34,-131,-126
-248,-9,239,129,-244,114,229,-14,434,29,-141,-131
-258,-9,248,134,-253,119,234,-24,434,24,-151,-136
-268,-24,244,146,-256,109,239,-34,424,9,-165,-146
-278,-39,239,158,-258,100,234,-43,419,0,-180,-161
-287,-48,239,168,-263,95,234,-53,414,0,-190,-175
-287,-58,229,173,-258,85,234,-63,409,-9,-209,-185
-297,-78,219,187,-258,70,234,-73,390,-34,-219,-204
-292,-97,195,195,-244,48,224,-78,380,-43,-229,-214
-287,-117,170,202,-229,26,224,-78,370,-58,-244,-229
-283,-146,136,214,-209,-4,214,-78,356,-68,-263,-244
-283,-156,126,219,-204,-14,209,-78,346,-78,-268,-248
-258,-170,87,214,-173,-41,195,-73,336,-87,-273,-253
-234,-180,53,207,-143,-63,185,-53,336,-87,-273,-248
-214,-180,34,197,-124,-73,165,-48,336,-87,-278,-248
-180,-180,0,180,-90,-90,161,-34,326,-82,-263,-229
-156,-170,-14,163,-70,-92,141,-24,322,-73,-239,-209
-131,-170,-39,151,-46,-104,126,-14,346,-53,-209,-170
-102,-156,-53,129,-24,-104,107,-9,366,-34,-190,-146
-73,-136,-63,104,-4,-100,92,0,370,-29,-161,-117
-58,-117,-58,87,0,-87,78,9,385,-14,-136,-82
-34,-102,-68,68,17,-85,68,9,400,9,-112,-48
-9,-82,-73,46,31,-78,53,9,414,29,-92,-24
0,-68,-68,34,34,-68,43,9,424,53,-78,0
9,-58,-68,24,39,-63,29,0,424,68,-53,24
19,-43,-63,12,41,-53,24,0,429,82,-29,48
29,-34,-63,2,46,-48,14,0,439,87,-24,53
29,-19,-48,-4,39,-34,4,0,434,87,-19,58
39,-14,-53,-12,46,-34,0,-4,434,87,-14,73
43,-9,-53,-17,48,-31,-9,-4,434,92,-19,68
48,-9,-58,-19,53,-34,-9,-4,434,92,-9,68
48,-9,-58,-19,53,-34,-9,-4,429,102,-4,68
48,-9,-58,-19,53,-34,-9,-4,424,102,-9,68
48,-9,-58,-19,53,-34,-9,-4,414,107,-9,68
48,-9,-58,-19,53,-34,-9,-4,419,107,-4,73
53,-4,-58,-24,56,-31,-14,-4,424,107,-4,73
53,-4,-58,-24,56,-31,-14,-4,419,107,-4,78
53,-4,-58,-24,56,-31,-14,-4,419,112,-4,78
53,-4,-58,-24,56,-31,-14,0,424,107,-4,78
53,-4,-58,-24,56,-31,-19,-4,424,107,-4,78
53,-4,-58,-24,56,-31,-19,0,424,112,0,78
53,-4,-58,-24,56,-31,-19,-4,424,112,4,78
53,0,-53,-26,53,-26,-14,-9,419,112,4,78
53,0,-53,-26,53,-26,-14,-9,414,112,4,78
53,0,-53,-26,53,-26,-14,-9,409,112,4,78
53,0,-53,-26,53,-26,-14,-4,409,112,0,78
58,0,-58,-29,58,-29,-9,0,409,112,0,78
53,0,-53,-26,53,-26,-9,-4,405,112,0,78
48,0,-48,-24,48,-24,-9,-9,400,112,0,73
48,0,-48,-24,48,-24,-4,-4,400,107,0,73
43,0,-43,-21,43,-21,-4,-4,400,107,0,68
43,0,-43,-21,43,-21,0,-4,390,107,0,68
39,-4,-43,-17,41,-24,0,-4,380,102,-9,63
39,-4,-43,-17,41,-24,4,-4,380,102,-14,58
39,-4,-43,-17,41,-24,4,0,380,102,-19,53
39,-9,-48,-14,43,-29,9,0,375,97,-19,53
39,-9,-48,-14,43,-29,9,4,370,92,-14,53
39,-14,-53,-12,46,-34,4,4,380,92,-14,53
39,-14,-53,-12,46,-34,4,4,375,92,-14,48
34,-14,-48,-9,41,-31,4,0,366,87,-19,43
29,-19,-48,-4,39,-34,9,0,361,87,-29,39
29,-19,-48,-4,39,-34,9,0,361,87,-29,39
29,-19,-48,-4,39,-34,9,0,361,87,-29,39
29,-24,-53,-2,41,-39,9,0,361,87,-29,39
29,-24,-53,-2,41,-39,9,0,361,82,-29,39
29,-24,-53,-2,41,-39,14,0,366,82,-29,39
29,-19,-48,-4,39,-34,14,4,366,87,-19,43
34,-4,-39,-14,36,-21,24,14,375,102,-14,53
39,0,-39,-19,39,-19,29,14,375,102,-14,53
43,14,-29,-29,36,-7,39,24,385,107,-4,58
48,19,-29,-34,39,-4,43,29,380,112,4,68
48,24,-24,-36,36,0,43,29,390,117,0,68
48,34,-14,-41,31,9,34,19,390,126,0,73
48,48,0,-48,24,24,4,9,400,136,9,78
63,87,24,-75,19,56,-19,-9,414,146,24,87
68,97,29,-82,19,63,-29,-14,424,161,34,107
73,107,34,-90,19,70,-39,-24,424,165,48,107
73,107,34,-90,19,70,-48,-34,419,161,34,102
73,87,14,-80,29,51,-58,-39,395,151,29,97
73,82,9,-78,31,46,-68,-43,390,146,19,82
78,82,4,-80,36,43,-73,-48,390,146,19,82
78,87,9,-82,34,48,-68,-39,390,161,29,97
87,92,4,-90,41,48,-63,-34,380,156,34,107
87,78,-9,-82,48,34,-53,-29,370,146,24,102
82,39,-43,-61,63,-2,-48,-24,356,131,9,82
58,-14,-73,-21,65,-43,-29,-14,326,107,-14,53
29,-48,-78,9,53,-63,-9,-4,307,87,-39,29
14,-63,-78,24,46,-70,-4,-4,297,73,-53,4
4,-78,-82,36,43,-80,4,-4,283,63,-63,-9
4,-78,-82,36,43,-80,4,-4,283,58,-68,-9
4,-82,-87,39,46,-85,4,-4,278,53,-73,-9
4,-82,-87,39,46,-85,4,-4,278,48,-73,-9
4,-82,-87,39,46,-85,4,-4,278,48,-73,-9
4,-82,-87,39,46,-85,4,-4,273,48,-78,-9
4,-78,-82,36,43,-80,9,-4,268,48,-78,-9
4,-78,-82,36,43,-80,9,0,263,43,-78,-9
4,-78,-82,36,43,-80,9,0,258,43,-78,-9
0,-78,-78,39,39,-78,9,0,244,43,-82,-14
-4,-78,-73,41,34,-75,9,0,239,43,-82,-14
-4,-78,-73,41,34,-75,14,0,244,43,-82,-9
-4,-78,-73,41,34,-75,14,0,244,43,-82,-4
-4,-78,-73,41,34,-75,14,4,239,43,-82,-4
-4,-73,-68,39,31,-70,14,4,234,43,-82,-4
-4,-68,-63,36,29,-65,9,4,244,43,-82,-4
-14,-58,-43,36,14,-51,9,4,253,53,-73,0
-34,-34,0,34,-17,-17,34,-9,278,68,-58,0
-48,-29,19,39,-34,-4,58,4,287,82,-48,14
-24,-63,-39,43,7,-51,82,87,258,58,-73,-9
97,-73,-170,-12,134,-122,97,244,248,48,-48,29
361,-29,-390,-165,375,-209,141,517,273,126,58,165
570,136,-434,-353,502,-148,131,697,356,239,219,346
688,434,-253,-561,470,90,146,766,531,429,429,575
751,649,-102,-700,427,273,-4,551,653,570,600,785
795,858,63,-827,366,461,-497,-107,683,697,819,1073
702,995,292,-849,204,644,-883,-717,756,819,1000,1307
414,1161,746,-788,-165,954,-936,-1058,936,1005,1156,1439
161,1205,1044,-683,-441,1124,-951,-1215,966,1019,1166,1449
112,902,790,-507,-339,846,-829,-1058,712,746,863,1098
82,546,463,-314,-190,505,-600,-795,390,375,448,658
53,219,165,-136,-56,192,-283,-370,214,92,58,239
14,34,19,-24,-2,26,-73,-78,165,4,-78,29
-14,0,14,7,-14,7,-9,-39,180,14,-78,9
-19,-29,-9,24,-4,-19,48,4,180,14,-87,-19
-24,-58,-34,41,4,-46,97,68,185,9,-97,-48
-34,-68,-34,51,0,-51,107,112,180,0,-117,-58
-39,-87,-48,63,4,-68,102,82,170,-9,-126,-68
-39,-102,-63,70,12,-82,102,68,156,-19,-136,-78
-39,-102,-63,70,12,-82,102,82,151,-19,-141,-78
-39,-107,-68,73,14,-87,102,97,141,-19,-146,-82
-43,-107,-63,75,9,-85,112,102,136,-19,-151,-82
-48,-112,-63,80,7,-87,117,102,131,-14,-151,-82
-43,-112,-68,78,12,-90,117,102,131,-4,-146,-78
-43,-107,-63,75,9,-85,117,102,131,-4,-141,-73
-43,-107,-63,75,9,-85,122,107,122,0,-141,-78
-43,-102,-58,73,7,-80,122,107,117,0,-146,-78
-39,-102,-63,70,12,-82,122,112,117,0,-146,-78
-39,-102,-63,70,12,-82,122,117,117,0,-141,-73
-39,-102,-63,70,12,-82,122,117,112,4,-141,-73
-39,-107,-68,73,14,-87,122,117,112,4,-136,-68
-39,-107,-68,73,14,-87,122,122,112,4,-131,-63
-39,-102,-63,70,12,-82,122,126,112,9,-126,-58
-39,-97,-58,68,9,-78,126,126,102,4,-126,-58
-43,-97,-53,70,4,-75,131,126,97,9,-136,-73
-43,-97,-53,70,4,-75,136,131,87,4,-141,-78
-43,-97,-53,70,4,-75,136,136,78,-4,-146,-73
-43,-97,-53,70,4,-75,136,136,78,9,-141,-73
-43,-97,-53,70,4,-75,136,136,78,9,-141,-73
-48,-87,-39,68,-4,-63,141,131,78,14,-136,-63
-48,-78,-29,63,-9,-53,141,131,78,19,-126,-53
-48,-68,-19,58,-14,-43,141,131,78,24,-126,-53
-48,-68,-19,58,-14,-43,141,131,73,24,-126,-53
-53,-78,-24,65,-14,-51,146,141,68,24,-126,-58
-58,-82,-24,70,-17,-53,146,146,58,19,-141,-63
-63,-82,-19,73,-21,-51,156,151,58,14,-141,-73
-68,-82,-14,75,-26,-48,156,156,53,9,-141,-82
-68,-78,-9,73,-29,-43,161,156,43,14,-141,-82
-73,-78,-4,75,-34,-41,165,161,34,14,-141,-82
-68,-68,0,68,-34,-34,170,165,43,19,-136,-78
-68,-68,0,68,-34,-34,170,170,48,24,-136,-73
-73,-63,9,68,-41,-26,170,170,48,29,-131,-73
-78,-63,14,70,-46,-24,170,170,48,34,-131,-68
-87,-53,34,70,-61,-9,175,170,43,34,-131,-73
-97,-48,48,73,-73,0,180,170,43,34,-126,-73
-107,-34,73,70,-90,19,190,175,43,34,-126,-73
-117,-29,87,73,-102,29,195,170,43,34,-126,-73
-122,-29,92,75,-107,31,200,170,43,34,-136,-73
-136,-29,107,82,-122,39,209,165,39,34,-136,-82
-146,-29,117,87,-131,43,214,161,39,48,-136,-78
-156,-19,136,87,-146,58,224,156,43,53,-141,-82
-165,-24,141,95,-153,58,229,151,34,53,-146,-82
-175,-24,151,100,-163,63,234,141,29,48,-151,-92
-185,-24,161,104,-173,68,234,131,24,39,-151,-107
-200,-24,175,112,-187,75,239,122,14,34,-161,-117
-214,-29,185,122,-200,78,244,112,9,39,-156,-117
-219,-29,190,124,-204,80,244,102,4,43,-151,-117
-229,-29,200,129,-214,85,244,92,-4,29,-170,-126
-239,-29,209,134,-224,90,234,82,-9,19,-190,-141
-248,-39,209,143,-229,85,234,73,-14,19,-200,-156
-248,-48,200,148,-224,75,234,63,-19,9,-219,-165
-263,-68,195,165,-229,63,239,53,-34,-14,-224,-185
-263,-87,175,175,-219,43,234,48,-39,-24,-229,-195
-263,-102,161,183,-212,29,234,43,-48,-39,-244,-209
-263,-126,136,195,-200,4,224,39,-63,-48,-263,-224
-263,-141,122,202,-192,-9,219,39,-78,-63,-273,-234
-239,-161,78,200,-158,-41,204,43,-92,-78,-283,-244
-214,-170,43,192,-129,-63,195,63,-97,-82,-287,-244
-195,-170,24,183,-109,-73,175,68,-102,-87,-297,-248
-161,-180,-19,170,-70,-100,170,82,-112,-92,-297,-239
-136,-180,-43,158,-46,-112,151,92,-117,-92,-287,-229
-107,-180,-73,143,-17,-126,136,102,-102,-78,-263,-190
-73,-165,-92,119,9,-129,117,107,-92,-63,-248,-165
-43,-146,-102,95,29,-124,102,107,-87,-53,-209,-136
-29,-126,-97,78,34,-112,87,107,-73,-34,-175,-102
-9,-112,-102,61,46,-107,73,107,-53,-9,-146,-68
9,-92,-102,41,56,-97,53,107,-34,9,-122,-43
24,-63,-87,19,56,-75,43,107,-4,43,-97,-4
39,-39,-78,0,58,-58,29,97,14,68,-63,34
53,-39,-92,-7,73,-65,24,97,9,73,-48,48
68,-43,-112,-12,90,-78,14,97,9,68,-53,43
68,-39,-107,-14,87,-73,9,102,9,73,-48,39
78,-43,-122,-17,100,-82,9,102,14,78,-43,43
82,-39,-122,-21,102,-80,0,102,24,82,-43,53
87,-39,-126,-24,107,-82,0,102,34,82,-29,68
87,-39,-126,-24,107,-82,0,102,34,87,-19,68
87,-39,-126,-24,107,-82,0,102,34,82,-19,68
87,-39,-126,-24,107,-82,0,97,24,87,-14,68
87,-39,-126,-24,107,-82,0,92,29,87,-4,73
92,-29,-122,-31,107,-75,-4,92,48,92,0,78
92,-24,-117,-34,104,-70,-4,92,58,97,4,87
97,-9,-107,-43,102,-58,-4,92,63,107,4,87
102,4,-97,-53,100,-46,-4,97,73,107,4,87
102,-9,-112,-46,107,-61,0,92,73,102,-4,78
102,-24,-126,-39,114,-75,9,97,73,102,-9,68
97,-24,-122,-36,109,-73,9,97,78,107,-4,68
92,-19,-112,-36,102,-65,14,97,78,112,-4,68
92,-14,-107,-39,100,-61,9,92,87,117,9,78
92,-9,-102,-41,97,-56,4,87,97,122,24,87
87,-9,-97,-39,92,-53,0,82,97,122,19,87
87,-9,-97,-39,92,-53,0,78,97,122,19,87
92,-9,-102,-41,97,-56,0,78,97,122,19,87
97,-9,-107,-43,102,-58,0,78,97,122,19,82
97,-9,-107,-43,102,-58,4,82,97,112,14,82
92,-9,-102,-41,97,-56,4,82,97,107,9,78
92,-9,-102,-41,97,-56,9,82,97,112,9,78
87,-14,-102,-36,95,-58,9,82,97,112,0,73
82,-14,-97,-34,90,-56,14,78,102,112,0,73
78,-14,-92,-31,85,-53,14,78,107,112,0,73
78,-19,-97,-29,87,-58,14,73,107,112,0,73
78,-19,-97,-29,87,-58,9,73,107,112,4,73
78,-19,-97,-29,87,-58,4,68,122,117,4,78
78,-14,-92,-31,85,-53,4,63,122,122,4,78
73,-14,-87,-29,80,-51,4,58,122,117,0,73
73,-19,-92,-26,82,-56,9,53,122,112,-4,73
68,-24,-92,-21,80,-58,4,48,117,102,-9,63
68,-29,-97,-19,82,-63,0,48,117,97,-19,58
68,-29,-97,-19,82,-63,0,48,117,97,-19,53
68,-29,-97,-19,82,-63,0,48,117,97,-19,48
68,-29,-97,-19,82,-63,-4,43,117,102,-19,48
68,-24,-92,-21,80,-58,-4,39,122,107,-9,53
68,-19,-87,-24,78,-53,-4,39,131,117,-4,58
73,-4,-78,-34,75,-41,4,43,151,131,4,73
82,4,-78,-43,80,-36,9,43,156,131,4,73
87,24,-63,-56,75,-19,19,48,175,136,14,78
87,29,-58,-58,73,-14,24,48,175,141,24,82
87,34,-53,-61,70,-9,24,48,185,146,24,78
87,34,-53,-61,70,-9,14,39,185,156,29,82
87,39,-48,-63,68,-4,-14,29,195,165,39,87
102,87,-14,-95,58,36,-43,0,214,185,58,107
102,107,4,-104,48,56,-58,-14,229,204,73,136
102,122,19,-112,41,70,-68,-24,239,214,92,136
102,126,24,-114,39,75,-78,-34,244,219,82,136
102,107,4,-104,48,56,-87,-39,219,200,78,136
102,102,0,-102,51,51,-92,-39,219,185,68,122
107,102,-4,-104,56,48,-92,-39,224,185,63,122
107,102,-4,-104,56,48,-87,-29,224,195,63,126
122,102,-19,-112,70,41,-82,-24,214,185,63,126
126,87,-39,-107,82,24,-73,-19,209,175,53,122
122,63,-58,-92,90,2,-68,-14,204,161,39,102
97,24,-73,-61,85,-24,-48,-9,185,136,14,73
68,-24,-92,-21,80,-58,-29,0,170,117,-9,43
58,-48,-107,-4,82,-78,-29,4,161,102,-24,19
48,-63,-112,7,80,-87,-24,4,146,87,-39,4
43,-68,-112,12,78,-90,-24,4,146,82,-43,0
43,-73,-117,14,80,-95,-24,4,141,82,-43,0
43,-73,-117,14,80,-95,-24,4,141,78,-43,0
43,-68,-112,12,78,-90,-24,4,151,82,-39,4
43,-63,-107,9,75,-85,-24,4,161,87,-39,9
43,-58,-102,7,73,-80,-19,0,161,87,-39,9
43,-58,-102,7,73,-80,-19,0,161,82,-39,9
43,-58,-102,7,73,-80,-19,0,161,78,-39,4
43,-58,-102,7,73,-80,-19,0,151,73,-43,-4
43,-58,-102,7,73,-80,-19,0,151,73,-43,-4
43,-58,-102,7,73,-80,-14,0,156,73,-43,-4
43,-53,-97,4,70,-75,-19,0,161,73,-43,0
43,-48,-92,2,68,-70,-24,4,165,73,-43,4
43,-43,-87,0,65,-65,-24,0,165,73,-43,4
43,-39,-82,-2,63,-61,-24,-4,175,73,-43,9
29,-39,-68,4,48,-53,-19,-9,185,82,-39,14
19,-24,-43,2,31,-34,4,-4,209,97,-29,9
-4,-29,-24,17,9,-26,34,24,214,107,-24,9
29,-39,-68,4,48,-53,53,97,209,112,-9,24
185,-43,-229,-70,207,-136,63,268,209,107,24,87
400,39,-361,-219,380,-161,68,453,258,200,141,239
595,283,-312,-439,453,-14,34,580,405,380,370,488
717,570,-146,-644,431,212,-39,585,570,580,605,751
761,785,24,-773,368,405,-287,278,663,712,785,985
771,985,214,-878,278,600,-619,-200,717,829,971,1220
619,1141,522,-880,48,832,-888,-736,863,985,1161,1439
370,1254,883,-812,-256,1068,-922,-1034,990,1112,1259,1503
122,1268,1146,-695,-512,1207,-907,-1122,971,1068,1200,1434
29,1015,985,-522,-478,1000,-785,-1005,785,829,897,1088
24,556,531,-290,-253,544,-507,-683,409,380,385,541
14,214,200,-114,-92,207,-244,-331,204,107,39,156
-9,78,87,-34,-48,82,-112,-107,190,78,-19,39
-19,29,48,-4,-34,39,-53,-43,200,73,-39,9
-14,0,14,7,-14,7,-4,-14,200,68,-53,-19
-14,-24,-9,19,-2,-17,39,24,209,63,-58,-39
-19,-29,-9,24,-4,-19,39,43,214,58,-68,-34
-14,-39,-24,26,4,-31,29,29,214,58,-68,-34
-9,-43,-34,26,12,-39,34,29,209,53,-68,-39
-9,-43,-34,26,12,-39,34,34,214,48,-73,-39
-9,-43,-34,26,12,-39,29,39,209,43,-78,-43
-9,-39,-29,24,9,-34,29,39,209,39,-82,-43
-9,-43,-34,26,12,-39,29,39,209,43,-82,-48
-4,-43,-39,24,17,-41,29,43,209,43,-82,-53
-4,-43,-39,24,17,-41,29,43,204,34,-87,-53
-4,-48,-43,26,19,-46,34,48,200,34,-92,-58
-4,-43,-39,24,17,-41,34,48,204,29,-97,-63
-4,-43,-39,24,17,-41,34,48,204,29,-97,-68
-14,-43,-29,29,7,-36,34,48,204,24,-92,-63
-19,-43,-24,31,2,-34,34,48,200,24,-92,-63
-19,-43,-24,31,2,-34,34,48,204,24,-87,-58
-19,-39,-19,29,0,-29,34,48,209,24,-87,-58
-19,-34,-14,26,-2,-24,34,43,214,24,-87,-58
-19,-29,-9,24,-4,-19,34,39,214,19,-87,-58
-19,-29,-9,24,-4,-19,34,39,214,24,-97,-73
-14,-24,-9,19,-2,-17,34,39,214,24,-97,-73
-14,-9,4,12,-9,-2,29,39,219,24,-97,-58
-14,0,14,7,-14,7,29,39,224,24,-92,-53
-14,0,14,7,-14,7,29,39,224,9,-87,-53
-19,0,19,9,-19,9,34,34,224,9,-87,-53
-19,-4,14,12,-17,4,34,34,224,9,-87,-53
-19,0,19,9,-19,9,34,34,229,14,-87,-53
-19,0,19,9,-19,9,29,29,229,4,-92,-53
-24,0,24,12,-24,12,29,29,229,0,-97,-58
-29,4,34,12,-31,19,29,29,224,0,-112,-63
-34,4,39,14,-36,21,39,29,224,0,-112,-63
-39,4,43,17,-41,24,43,29,224,0,-97,-63
-39,9,48,14,-43,29,48,29,229,4,-82,-63
-43,9,53,17,-48,31,48,34,229,4,-82,-63
-43,19,63,12,-53,41,53,34,239,9,-82,-63
-48,14,63,17,-56,39,53,34,239,9,-97,-73
-53,14,68,19,-61,41,58,34,234,4,-107,-87
-58,14,73,21,-65,43,58,34,234,4,-112,-87
-63,19,82,21,-73,51,63,34,234,4,-112,-92
-68,24,92,21,-80,58,68,34,239,4,-107,-92
-73,39,112,17,-92,75,73,34,244,4,-107,-92
-78,39,117,19,-97,78,78,24,248,4,-107,-92
-82,39,122,21,-102,80,78,24,248,4,-117,-97
-92,39,131,26,-112,85,82,19,244,4,-117,-107
-97,39,136,29,-117,87,82,14,244,4,-122,-102
-107,48,156,29,-131,102,87,9,248,0,-126,-107
-117,48,165,34,-141,107,92,4,248,4,-126,-102
-126,58,185,34,-156,122,97,0,253,4,-131,-107
-136,63,200,36,-168,131,97,-4,253,0,-131,-117
-151,63,214,43,-183,139,107,-14,248,-4,-146,-126
-165,58,224,53,-195,141,117,-24,244,-9,-161,-136
-165,48,214,58,-190,131,117,-29,234,-19,-170,-151
-170,34,204,68,-187,119,117,-34,219,-39,-190,-165
-180,29,209,75,-195,119,107,-43,214,-48,-204,-180
-190,19,209,85,-200,114,107,-53,209,-48,-209,-195
-190,9,200,90,-195,104,107,-63,204,-48,-229,-204
-204,-4,200,104,-202,97,107,-73,185,-63,-239,-224
-204,-19,185,112,-195,82,97,-78,170,-82,-253,-239
-204,-34,170,119,-187,68,97,-78,156,-107,-273,-253
-200,-53,146,126,-173,46,87,-78,141,-122,-292,-263
-195,-58,136,126,-165,39,82,-78,136,-126,-292,-263
-170,-73,97,122,-134,12,68,-78,126,-126,-292,-263
-146,-82,63,114,-104,-9,58,-63,122,-126,-287,-253
-131,-82,48,107,-90,-17,39,-58,122,-126,-297,-258
-102,-92,9,97,-56,-41,34,-48,117,-122,-292,-248
-78,-82,-4,80,-36,-43,9,-43,117,-107,-268,-229
-53,-73,-19,63,-17,-46,-4,-39,141,-87,-234,-185
-34,-53,-19,43,-7,-36,-19,-39,161,-58,-204,-146
-14,-29,-14,21,0,-21,-34,-39,165,-39,-170,-107
0,-9,-9,4,4,-9,-43,-39,180,-24,-146,-73
19,4,-14,-12,17,-4,-48,-39,195,0,-117,-39
39,29,-9,-34,24,9,-63,-39,209,14,-92,-14
48,48,0,-48,24,24,-68,-39,219,34,-78,9
58,58,0,-58,29,29,-82,-48,224,48,-48,34
68,73,4,-70,31,39,-92,-48,234,63,-19,58
78,87,9,-82,34,48,-102,-48,248,82,-4,73
78,102,24,-90,26,63,-107,-48,253,102,9,87
87,107,19,-97,34,63,-102,-53,258,107,14,102
92,117,24,-104,34,70,-107,-53,258,112,14,102
97,117,19,-107,39,68,-107,-53,258,107,19,102
97,117,19,-107,39,68,-107,-53,258,112,19,97
97,107,9,-102,43,58,-107,-48,248,107,4,92
97,97,0,-97,48,48,-107,-43,239,107,-4,87
92,97,4,-95,43,51,-107,-43,253,107,4,92
92,102,9,-97,41,56,-112,-43,263,107,4,92
92,117,24,-104,34,70,-112,-43,263,107,9,107
92,131,39,-112,26,85,-112,-43,263,117,14,117
92,131,39,-112,26,85,-112,-48,263,117,14,107
92,131,39,-112,26,85,-112,-53,258,117,14,97
92,131,39,-112,26,85,-107,-39,258,122,19,97
92,131,39,-112,26,85,-107,-39,258,126,24,97
92,131,39,-112,26,85,-102,-39,253,126,24,97
92,126,34,-109,29,80,-102,-39,253,122,24,97
92,126,34,-109,29,80,-102,-39,248,117,19,92
87,126,39,-107,24,82,-102,-34,244,112,9,87
92,126,34,-109,29,80,-102,-34,244,112,9,87
92,126,34,-109,29,80,-107,-39,244,112,9,87
87,126,39,-107,24,82,-107,-39,244,112,9,82
87,126,39,-107,24,82,-102,-34,244,107,9,82
82,126,43,-104,19,85,-102,-34,239,97,0,78
82,126,43,-104,19,85,-97,-34,234,92,-9,78
78,131,53,-104,12,92,-97,-34,229,102,-9,73
78,141,63,-109,7,102,-92,-34,234,112,0,73
78,141,63,-109,7,102,-97,-29,244,112,0,73
78,136,58,-107,9,97,-97,-29,244,112,0,73
78,126,48,-102,14,87,-92,-34,234,97,-9,63
78,117,39,-97,19,78,-87,-39,224,87,-19,58
78,112,34,-95,21,73,-82,-34,219,87,-24,48
78,107,29,-92,24,68,-78,-29,214,87,-29,39
78,107,29,-92,24,68,-78,-29,214,87,-29,39
78,112,34,-95,21,73,-73,-29,219,87,-24,39
78,122,43,-100,17,82,-73,-29,224,87,-24,43
78,136,58,-107,9,97,-73,-24,229,97,-9,53
82,156,73,-119,4,114,-63,-14,239,117,0,68
87,165,78,-126,4,122,-58,-14,239,122,4,73
87,180,92,-134,-2,136,-53,-9,253,126,14,78
87,185,97,-136,-4,141,-53,-9,253,131,24,87
82,190,107,-136,-12,148,-53,-19,258,131,19,82
78,200,122,-139,-21,161,-63,-39,253,136,19,82
78,214,136,-146,-29,175,-92,-53,258,141,19,87
92,253,161,-173,-34,207,-117,-78,268,146,24,97
92,258,165,-175,-36,212,-126,-82,278,156,34,117
92,263,170,-178,-39,217,-136,-92,278,156,48,117
92,263,170,-178,-39,217,-146,-102,273,156,43,117
92,244,151,-168,-29,197,-156,-107,248,151,48,117
92,244,151,-168,-29,197,-161,-107,248,146,39,102
97,248,151,-173,-26,200,-161,-107,253,146,39,102
97,248,151,-173,-26,200,-156,-97,253,156,34,102
107,248,141,-178,-17,195,-151,-92,244,146,24,97
107,239,131,-173,-12,185,-141,-87,234,136,14,92
102,204,102,-153,0,153,-136,-82,219,122,0,73
82,151,68,-117,7,109,-122,-78,190,92,-24,43
58,117,58,-87,0,87,-107,-73,170,68,-48,19
48,107,58,-78,-4,82,-107,-73,161,53,-63,0
43,97,53,-70,-4,75,-102,-73,146,43,-73,-9
43,97,53,-70,-4,75,-102,-73,146,48,-73,-9
43,92,48,-68,-2,70,-102,-73,141,53,-73,-9
43,92,48,-68,-2,70,-102,-73,141,48,-73,-9
43,92,48,-68,-2,70,-102,-73,141,48,-73,-9
43,92,48,-68,-2,70,-97,-73,136,48,-78,-9
43,97,53,-70,-4,75,-87,-73,131,48,-78,-9
43,97,53,-70,-4,75,-87,-73,131,43,-78,-4
43,97,53,-70,-4,75,-87,-78,131,43,-78,0
39,97,58,-68,-9,78,-87,-78,122,43,-82,-4
34,97,63,-65,-14,80,-87,-78,122,43,-82,-4
34,87,53,-61,-9,70,-78,-73,122,39,-82,-9
34,78,43,-56,-4,61,-73,-68,117,34,-82,-14
34,78,43,-56,-4,61,-73,-63,117,34,-82,-19
34,82,48,-58,-7,65,-73,-63,117,34,-82,-24
34,92,58,-63,-12,75,-73,-63,126,39,-82,-19
24,107,82,-65,-29,95,-68,-63,136,53,-73,-9
24,131,107,-78,-41,119,-48,-53,170,87,-29,29
29,136,107,-82,-39,122,-29,-14,190,122,9,82
97,156,58,-126,19,107,-14,68,195,141,43,126
263,200,-63,-231,163,68,-9,224,219,175,126,234
434,351,-82,-392,258,134,-29,326,341,351,341,483
551,624,73,-588,239,348,-102,336,522,561,610,775
614,902,287,-758,163,595,-209,268,653,736,824,1024
624,1098,473,-861,75,785,-483,-82,732,863,1000,1254
580,1298,717,-939,-68,1007,-766,-522,785,990,1176,1459
400,1424,1024,-912,-312,1224,-941,-912,883,1112,1312,1610
209,1405,1195,-807,-492,1300,-893,-1044,897,1083,1234,1488
53,1263,1210,-658,-578,1237,-805,-990,761,883,1010,1244
24,897,873,-461,-424,885,-644,-810,507,580,644,829
14,478,463,-246,-224,470,-375,-522,185,180,165,326
9,253,244,-131,-117,248,-190,-248,73,-4,-87,58
-4,170,175,-82,-90,173,-112,-107,87,4,-87,0
-24,122,146,-48,-85,134,-58,-82,92,14,-87,-19
-19,78,97,-29,-58,87,-9,-53,82,14,-97,-48
-19,53,73,-17,-46,63,14,-24,78,-4,-117,-73
-24,48,73,-12,-48,61,0,-14,63,-29,-146,-78
-24,39,63,-7,-43,51,0,-29,58,-29,-146,-82
-19,34,53,-7,-36,43,4,-29,48,-29,-146,-87
-14,39,53,-12,-34,46,4,-24,48,-29,-151,-87
-9,39,48,-14,-29,43,4,-19,43,-29,-156,-92
-9,39,48,-14,-29,43,9,-14,39,-29,-161,-97
-9,34,43,-12,-26,39,9,-14,34,-24,-161,-102
-9,19,29,-4,-19,24,9,-14,29,-24,-170,-102
-14,9,24,2,-19,17,9,-14,24,-34,-180,-102
-14,9,24,2,-19,17,9,-9,24,-24,-170,-102
-14,14,29,0,-21,21,4,-9,29,-19,-165,-97
-9,29,39,-9,-24,34,4,-9,29,-14,-161,-97
-9,43,53,-17,-31,48,4,-9,29,-9,-151,-92
-9,43,53,-17,-31,48,4,-9,24,-4,-151,-92
-9,39,48,-14,-29,43,4,-9,24,-4,-146,-87
-9,39,48,-14,-29,43,9,-9,24,-4,-151,-87
-9,43,53,-17,-31,48,14,-9,24,0,-156,-87
-9,39,48,-14,-29,43,14,-9,14,-14,-161,-92
-14,29,43,-7,-29,36,14,-9,9,-19,-175,-112
-14,34,48,-9,-31,41,19,-9,9,-14,-175,-112
-14,39,53,-12,-34,46,19,-9,9,-14,-175,-102
-14,43,58,-14,-36,51,19,-14,9,-4,-170,-102
-14,48,63,-17,-39,56,19,-19,9,-9,-170,-102
-19,48,68,-14,-43,58,19,-24,4,-9,-175,-107
-19,48,68,-14,-43,58,14,-24,0,-9,-175,-112
-19,53,73,-17,-46,63,14,-24,4,-9,-185,-112
-19,48,68,-14,-43,58,14,-24,4,-14,-195,-112
-24,48,73,-12,-48,61,19,-19,9,-9,-180,-117
-29,53,82,-12,-56,68,19,-19,9,-9,-180,-122
-34,53,87,-9,-61,70,29,-19,14,-9,-180,-122
-39,53,92,-7,-65,73,29,-19,14,-9,-180,-122
-39,58,97,-9,-68,78,29,-19,14,-4,-180,-122
-43,58,102,-7,-73,80,29,-14,14,-4,-180,-122
-43,63,107,-9,-75,85,39,-14,24,-4,-185,-126
-48,58,107,-4,-78,82,43,-14,29,-4,-195,-131
-53,63,117,-4,-85,90,48,-14,29,-4,-200,-136
-58,63,122,-2,-90,92,53,-14,29,-4,-209,-136
-63,68,131,-2,-97,100,53,-14,34,-4,-209,-141
-68,68,136,0,-102,102,53,-14,43,-4,-204,-141
-73,78,151,-2,-112,114,63,-14,48,-9,-204,-146
-78,78,156,0,-117,117,68,-24,53,-14,-204,-151
-78,73,151,2,-114,112,73,-24,53,-19,-224,-156
-87,68,156,9,-122,112,82,-29,48,-24,-234,-170
-97,63,161,17,-129,112,82,-34,43,-24,-239,-175
-107,68,175,19,-141,122,87,-39,43,-34,-248,-190
-117,68,185,24,-151,126,92,-39,39,-34,-263,-200
-126,73,200,26,-163,136,97,-43,39,-39,-278,-219
-136,63,200,36,-168,131,97,-53,39,-53,-287,-239
-151,53,204,48,-178,129,102,-63,34,-63,-307,-253
-165,48,214,58,-190,131,107,-73,29,-68,-317,-263
-170,48,219,61,-195,134,107,-82,24,-73,-326,-273
-175,43,219,65,-197,131,107,-92,14,-87,-346,-283
-180,39,219,70,-200,129,97,-102,9,-97,-366,-297
-190,29,219,80,-204,124,92,-112,4,-97,-375,-312
-190,19,209,85,-200,114,87,-122,0,-107,-395,-322
-200,-9,190,104,-195,90,87,-126,-19,-136,-405,-351
-195,-39,156,117,-175,58,78,-126,-29,-151,-414,-370
-190,-53,136,122,-163,41,78,-126,-39,-165,-429,-380
-185,-78,107,131,-146,14,68,-126,-53,-175,-448,-390
-185,-73,112,129,-148,19,68,-126,-53,-175,-439,-375
-161,-73,87,117,-124,7,58,-122,-53,-175,-429,-361
-141,-78,63,109,-102,-7,48,-102,-48,-170,-424,-351
-126,-73,53,100,-90,-9,29,-97,-43,-165,-424,-346
-92,-73,19,82,-56,-26,24,-87,-43,-156,-409,-322
-68,-63,4,65,-36,-29,4,-82,-39,-141,-385,-297
-53,-48,4,51,-29,-21,-9,-78,-9,-107,-336,-244
-34,-19,14,26,-24,-2,-29,-78,14,-73,-297,-204
-4,0,4,2,-4,2,-43,-78,24,-58,-263,-170
9,19,9,-14,0,14,-58,-78,43,-34,-234,-131
24,39,14,-31,4,26,-63,-73,68,-9,-204,-97
39,63,24,-51,7,43,-73,-68,92,9,-180,-73
43,78,34,-61,4,56,-78,-68,107,29,-165,-48
48,87,39,-68,4,63,-87,-78,112,39,-141,-24
58,102,43,-80,7,73,-92,-78,117,53,-117,0
68,112,43,-90,12,78,-102,-78,126,58,-112,4
68,122,53,-95,7,87,-102,-78,131,63,-107,4
78,122,43,-100,17,82,-97,-82,141,68,-102,14
78,126,48,-102,14,87,-107,-82,141,68,-107,14
78,126,48,-102,14,87,-107,-82,141,63,-97,19
78,131,53,-104,12,92,-112,-82,146,73,-87,24
78,136,58,-107,9,97,-117,-82,151,73,-87,29
78,141,63,-109,7,102,-117,-82,151,78,-78,29
78,146,68,-112,4,107,-117,-82,165,78,-63,34
82,151,68,-117,7,109,-122,-82,175,78,-63,34
82,151,68,-117,7,109,-122,-82,175,78,-63,39
82,151,68,-117,7,109,-117,-82,175,82,-68,34
82,151,68,-117,7,109,-112,-78,180,78,-73,29
78,151,73,-114,2,112,-112,-78,180,73,-73,29
73,151,78,-112,-2,114,-107,-68,180,73,-68,29
73,151,78,-112,-2,114,-112,-68,180,78,-63,29
73,156,82,-114,-4,119,-112,-68,175,82,-63,29
78,156,78,-117,0,117,-112,-68,180,82,-63,29
82,156,73,-119,4,114,-112,-68,185,82,-63,29
78,156,78,-117,0,117,-112,-63,185,78,-68,24
78,156,78,-117,0,117,-107,-58,185,73,-68,19
73,156,82,-114,-4,119,-107,-58,185,73,-68,19
68,156,87,-112,-9,122,-107,-58,185,73,-68,14
73,161,87,-117,-7,124,-102,-53,190,73,-63,19
73,165,92,-119,-9,129,-97,-53,195,78,-58,19
73,165,92,-119,-9,129,-97,-53,195,73,-53,9
73,165,92,-119,-9,129,-97,-58,200,73,-53,4
68,161,92,-114,-12,126,-92,-53,200,68,-53,0
68,156,87,-112,-9,122,-87,-48,204,68,-58,0
68,156,87,-112,-9,122,-82,-43,204,68,-58,0
68,156,87,-112,-9,122,-78,-39,204,68,-58,0
68,161,92,-114,-12,126,-78,-39,204,68,-58,0
68,165,97,-117,-14,131,-73,-34,209,73,-53,0
68,175,107,-122,-19,141,-73,-29,219,78,-48,4
73,190,117,-131,-21,153,-63,-14,239,92,-43,14
78,190,112,-134,-17,151,-58,-14,229,87,-43,9
78,200,122,-139,-21,161,-48,-9,234,87,-34,9
78,204,126,-141,-24,165,-48,-14,234,92,-24,19
78,209,131,-143,-26,170,-53,-19,244,97,-24,19
78,234,156,-156,-39,195,-63,-39,253,107,-9,34
78,263,185,-170,-53,224,-92,-58,273,117,9,48
92,292,200,-192,-53,246,-112,-78,287,126,14,48
92,292,200,-192,-53,246,-117,-82,297,136,14,58
87,287,200,-187,-56,244,-126,-87,297,131,29,48
82,273,190,-178,-53,231,-136,-92,292,122,14,39
82,263,180,-173,-48,222,-136,-92,268,112,9,48
82,268,185,-175,-51,226,-131,-87,268,107,0,43
87,268,180,-178,-46,224,-131,-87,273,102,-4,43
87,268,180,-178,-46,224,-126,-78,273,107,-4,48
92,263,170,-178,-39,217,-122,-73,263,92,-9,43
87,244,156,-165,-34,200,-112,-68,258,78,-24,34
82,204,122,-143,-19,163,-107,-63,248,63,-39,14
58,151,92,-104,-17,122,-87,-58,224,39,-63,-14
39,122,82,-80,-21,102,-73,-53,214,19,-87,-39
39,117,78,-78,-19,97,-78,-53,209,4,-102,-58
34,107,73,-70,-19,90,-73,-48,195,-4,-112,-68
34,107,73,-70,-19,90,-73,-43,195,-4,-112,-68
34,102,68,-68,-17,85,-68,-43,190,0,-112,-68
34,102,68,-68,-17,85,-63,-43,190,0,-112,-68
34,107,73,-70,-19,90,-63,-43,200,9,-97,-58
34,112,78,-73,-21,95,-63,-43,209,19,-87,-48
34,117,82,-75,-24,100,-58,-43,209,19,-87,-48
34,117,82,-75,-24,100,-58,-39,209,14,-87,-48
29,112,82,-70,-26,97,-58,-43,209,9,-92,-53
24,107,82,-65,-29,95,-58,-48,200,4,-102,-63
24,107,82,-65,-29,95,-58,-48,200,4,-102,-63
24,107,82,-65,-29,95,-53,-48,204,4,-102,-63
24,112,87,-68,-31,100,-53,-48,209,9,-102,-63
24,117,92,-70,-34,104,-53,-43,214,14,-102,-63
24,122,97,-73,-36,109,-48,-43,219,19,-97,-63
24,126,102,-75,-39,114,-43,-43,234,24,-92,-58
24,136,112,-80,-43,124,-39,-24,244,34,-82,-39
29,161,131,-95,-51,146,-14,4,268,48,-68,-29
73,185,112,-129,-19,148,4,78,292,102,-4,48
175,204,29,-190,73,117,14,195,307,151,68,141
297,317,19,-307,139,168,-9,273,400,248,209,312
478,517,39,-497,219,278,-39,366,541,444,434,570
580,741,161,-661,209,451,-195,258,639,585,649,819
610,1010,400,-810,104,705,-390,29,756,746,868,1083
561,1190,629,-875,-34,910,-570,-244,883,897,1039,1283
478,1356,878,-917,-200,1117,-834,-688,971,1034,1215,1483
375,1366,990,-871,-307,1178,-956,-936,976,1024,1215,1493
175,1332,1156,-753,-490,1244,-844,-946,961,985,1122,1346
29,1166,1137,-597,-553,1151,-712,-883,814,780,883,1093
39,732,692,-385,-326,712,-473,-614,502,380,400,561
19,424,405,-222,-192,414,-302,-409,278,102,68,204
-4,234,239,-114,-122,236,-146,-175,224,0,-97,9
-19,126,146,-53,-82,136,-39,-29,214,-14,-136,-82
-19,107,126,-43,-73,117,-4,-43,229,-4,-136,-87
-19,97,117,-39,-68,107,9,-19,229,-4,-146,-102
-24,92,117,-34,-70,104,19,14,239,-4,-146,-107
-34,87,122,-26,-78,104,24,29,239,-14,-156,-107
-34,78,112,-21,-73,95,19,9,234,-19,-156,-112
-29,73,102,-21,-65,87,24,9,229,-19,-151,-117
-29,73,102,-21,-65,87,24,14,234,-19,-151,-117
-29,68,97,-19,-63,82,24,19,229,-19,-156,-122
-29,68,97,-19,-63,82,29,19,229,-19,-161,-122
-29,53,82,-12,-56,68,29,19,229,-14,-165,-122
-24,43,68,-9,-46,56,29,24,229,-14,-170,-122
-24,48,73,-12,-48,61,29,24,229,-24,-170,-122
-24,48,73,-12,-48,61,34,29,229,-24,-170,-126
-24,58,82,-17,-53,70,34,29,234,-19,-170,-122
-24,63,87,-19,-56,75,34,29,234,-9,-165,-117
-29,63,92,-17,-61,78,34,29,239,-9,-161,-112
-29,63,92,-17,-61,78,34,29,239,-4,-161,-112
-29,58,87,-14,-58,73,34,29,239,-4,-156,-112
-29,58,87,-14,-58,73,34,29,239,-4,-156,-117
-29,58,87,-14,-58,73,39,29,239,-4,-156,-117
-29,58,87,-14,-58,73,43,29,234,-9,-156,-117
-29,58,87,-14,-58,73,48,29,239,0,-165,-131
-24,63,87,-19,-56,75,53,29,244,4,-165,-131
-24,63,87,-19,-56,75,48,29,244,4,-170,-122
-24,58,82,-17,-53,70,48,29,244,4,-170,-122
-24,58,82,-17,-53,70,48,34,244,-4,-170,-122
-29,58,87,-14,-58,73,53,34,244,0,-175,-122
-29,53,82,-12,-56,68,53,34,244,0,-175,-122
-29,58,87,-14,-58,73,53,34,248,4,-175,-122
-29,53,82,-12,-56,68,53,34,248,0,-175,-126
-34,48,82,-7,-58,65,58,39,248,0,-175,-136
-39,48,87,-4,-63,68,58,39,244,0,-190,-141
-43,43,87,0,-65,65,68,39,244,0,-190,-141
-48,43,92,2,-70,68,73,39,239,0,-190,-141
-48,48,97,0,-73,73,78,39,239,4,-190,-141
-53,48,102,2,-78,75,78,43,239,0,-190,-141
-53,58,112,-2,-82,85,82,43,248,0,-190,-141
-53,58,112,-2,-82,85,82,43,253,4,-190,-136
-53,63,117,-4,-85,90,87,43,253,4,-185,-136
-58,63,122,-2,-90,92,87,43,253,4,-190,-136
-63,68,131,-2,-97,100,92,43,253,4,-190,-141
-68,63,131,2,-100,97,102,43,258,4,-195,-151
-73,68,141,2,-107,104,112,43,263,4,-204,-161
-78,63,141,7,-109,102,117,34,263,0,-209,-161
-82,58,141,12,-112,100,117,34,258,-4,-224,-165
-97,53,151,21,-124,102,122,29,253,-9,-229,-185
-107,48,156,29,-131,102,122,24,253,-14,-239,-190
-117,53,170,31,-143,112,126,19,253,-24,-248,-200
-126,48,175,39,-151,112,131,14,248,-24,-253,-200
-136,43,180,46,-158,112,136,4,248,-29,-263,-209
-146,34,180,56,-163,107,136,-4,244,-39,-268,-224
-161,29,190,65,-175,109,136,-14,239,-43,-278,-234
-175,19,195,78,-185,107,136,-24,234,-48,-287,-244
-180,19,200,80,-190,109,136,-34,229,-53,-297,-253
-190,14,204,87,-197,109,136,-43,219,-68,-317,-263
-200,-4,195,102,-197,95,126,-53,204,-92,-341,-283
-209,-29,180,119,-195,75,126,-63,190,-107,-356,-302
-200,-39,161,119,-180,61,126,-68,185,-117,-375,-322
-204,-53,151,129,-178,48,126,-73,165,-141,-385,-351
-195,-63,131,129,-163,34,112,-78,156,-141,-385,-346
-185,-73,112,129,-148,19,107,-78,146,-146,-390,-341
-180,-87,92,134,-136,2,97,-78,131,-156,-400,-346
-175,-87,87,131,-131,0,92,-78,126,-156,-390,-341
-151,-97,53,124,-102,-21,78,-78,122,-156,-390,-336
-126,-102,24,114,-75,-39,68,-63,122,-156,-385,-322
-107,-92,14,100,-61,-39,48,-58,126,-146,-370,-302
-73,-92,-19,82,-26,-56,43,-48,126,-131,-341,-268
-48,-78,-29,63,-9,-53,24,-39,126,-107,-317,-244
-24,-63,-39,43,7,-51,14,-29,151,-78,-283,-195
-9,-48,-39,29,14,-43,0,-29,170,-53,-253,-161
4,-29,-34,12,19,-31,-14,-29,175,-39,-219,-126
14,-9,-24,-2,19,-17,-29,-29,190,-24,-195,-92
29,4,-24,-17,26,-9,-39,-29,204,0,-165,-58
43,24,-19,-34,31,2,-53,-29,219,19,-141,-34
48,39,-9,-43,29,14,-58,-29,229,43,-126,-9
58,48,-9,-53,34,19,-68,-39,229,58,-102,9
68,63,-4,-65,36,29,-73,-39,234,73,-78,29
73,68,-4,-70,39,31,-78,-39,244,78,-73,34
68,73,4,-70,31,39,-78,-39,244,82,-68,39
73,73,0,-73,36,36,-78,-43,248,82,-63,48
73,78,4,-75,34,41,-87,-43,248,82,-63,43
78,78,0,-78,39,39,-87,-43,244,78,-58,48
78,78,0,-78,39,39,-87,-43,239,82,-58,48
78,78,0,-78,39,39,-87,-39,234,82,-58,48
78,78,0,-78,39,39,-87,-34,229,87,-53,48
78,78,0,-78,39,39,-87,-34,239,87,-39,53
82,82,0,-82,41,41,-92,-34,244,87,-34,53
82,87,4,-85,39,46,-92,-34,244,87,-29,58
82,92,9,-87,36,51,-92,-34,244,97,-24,58
78,92,14,-85,31,53,-87,-34,244,92,-24,58
73,92,19,-82,26,56,-82,-34,239,87,-24,58
73,87,14,-80,29,51,-78,-19,239,87,-29,58
73,82,9,-78,31,46,-78,-19,239,87,-34,58
78,87,9,-82,34,48,-73,-19,234,87,-34,53
82,87,4,-85,39,46,-73,-19,234,82,-34,48
87,87,0,-87,43,43,-73,-19,234,82,-29,48
87,87,0,-87,43,43,-73,-14,234,82,-29,48
87,87,0,-87,43,43,-68,-14,234,87,-24,48
82,87,4,-85,39,46,-68,-19,234,92,-19,48
78,87,9,-82,34,48,-68,-19,229,92,-19,43
78,87,9,-82,34,48,-63,-14,224,87,-19,43
73,87,14,-80,29,51,-68,-14,219,87,-19,39
68,82,14,-75,26,48,-68,-14,214,92,-24,34
63,73,9,-68,26,41,-63,-9,214,78,-24,24
58,68,9,-63,24,39,-58,-9,214,68,-29,19
58,68,9,-63,24,39,-58,-9,214,68,-29,19
58,68,9,-63,24,39,-58,-9,214,68,-29,19
58,73,14,-65,21,43,-58,-4,214,68,-24,24
58,78,19,-68,19,48,-53,0,214,68,-19,24
58,82,24,-70,17,53,-48,0,219,68,-19,29
58,87,29,-73,14,58,-43,4,219,78,-9,34
63,102,39,-82,12,70,-34,14,224,92,-4,39
68,107,39,-87,14,73,-29,14,219,92,-4,34
68,122,53,-95,7,87,-29,9,234,97,4,39
68,126,58,-97,4,92,-34,0,234,102,14,48
68,131,63,-100,2,97,-34,-4,244,107,14,48
68,141,73,-104,-2,107,-43,-19,244,117,19,53
63,156,92,-109,-14,124,-73,-29,244,126,29,58
73,195,122,-134,-24,158,-97,-48,248,136,43,68
73,190,117,-131,-21,153,-102,-48,253,136,39,78
73,185,112,-129,-19,148,-107,-53,248,126,39,68
73,185,112,-129,-19,148,-112,-58,244,122,24,68
73,165,92,-119,-9,129,-117,-58,219,112,19,68
73,161,87,-117,-7,124,-117,-58,214,107,9,63
78,161,82,-119,-2,122,-112,-58,214,107,9,73
78,156,78,-117,0,117,-107,-48,209,112,14,68
87,151,63,-119,12,107,-102,-43,195,97,14,58
78,136,58,-107,9,97,-92,-34,185,87,4,53
63,97,34,-80,14,65,-87,-24,170,73,-9,34
48,48,0,-48,24,24,-68,-19,146,48,-34,9
29,19,-9,-24,19,4,-48,-14,131,29,-58,-9
24,9,-14,-17,19,-2,-48,-14,126,19,-68,-29
24,0,-24,-12,24,-12,-43,-14,117,14,-73,-39
24,4,-19,-14,21,-7,-43,-19,117,14,-73,-39
24,4,-19,-14,21,-7,-43,-24,112,14,-73,-39
19,4,-14,-12,17,-4,-43,-24,112,9,-73,-39
14,4,-9,-9,12,-2,-43,-24,112,9,-73,-39
14,0,-14,-7,14,-7,-43,-24,107,9,-78,-39
14,0,-14,-7,14,-7,-39,-24,102,9,-78,-39
14,-4,-19,-4,17,-12,-39,-14,102,0,-78,-39
14,-9,-24,-2,19,-17,-39,-9,102,-4,-78,-39
14,-9,-24,-2,19,-17,-39,-9,87,-4,-82,-39
14,-9,-24,-2,19,-17,-39,-9,82,-4,-82,-34
9,-4,-14,-2,12,-9,-34,-9,87,0,-82,-34
4,0,-4,-2,4,-2,-34,-9,87,4,-82,-34
4,0,-4,-2,4,-2,-34,-4,87,9,-73,-24
4,4,0,-4,2,2,-34,-4,87,14,-63,-14
4,19,14,-12,-4,17,-29,-4,107,19,-58,-9
-4,39,43,-17,-24,41,-19,-4,126,34,-43,0
19,48,29,-34,-4,39,4,39,136,48,-24,14
48,39,-9,-43,29,14,29,112,131,63,-9,43
131,92,-39,-112,85,26,39,204,170,131,73,141
312,170,-141,-241,226,14,39,370,229,214,204,302
468,322,-146,-395,307,87,-19,400,322,356,380,512
570,595,24,-583,273,309,-131,336,473,531,610,766
614,863,248,-739,183,556,-297,170,610,732,849,1044
605,1049,444,-827,80,746,-629,-278,692,883,1049,1302
541,1215,673,-878,-65,944,-829,-634,746,976,1190,1459
341,1307,966,-824,-312,1137,-922,-941,844,1063,1293,1561
180,1239,1058,-710,-439,1149,-844,-1015,814,1010,1176,1415
53,1049,995,-551,-470,1022,-727,-902,634,785,912,1146
24,722,697,-373,-336,710,-556,-688,414,517,580,746
14,341,326,-178,-156,334,-278,-366,126,151,136,258
9,122,112,-65,-51,117,-112,-131,14,-14,-107,14
-4,43,48,-19,-26,46,-53,-29,29,14,-97,-19
-29,24,53,2,-41,39,-4,-4,43,14,-97,-34
-29,9,39,9,-34,24,39,24,43,4,-107,-58
-29,-14,14,21,-21,0,58,48,43,0,-107,-78
-34,-19,14,26,-24,-2,39,53,34,-9,-117,-78
-34,-29,4,31,-19,-12,39,39,29,-9,-117,-78
-29,-34,-4,31,-12,-19,43,39,19,-9,-117,-78
-29,-29,0,29,-14,-14,43,43,19,-9,-122,-78
-29,-29,0,29,-14,-14,43,48,14,-9,-126,-82
-29,-29,0,29,-14,-14,48,53,9,-9,-131,-82
-29,-34,-4,31,-12,-19,48,53,4,-4,-131,-82
-24,-34,-9,29,-7,-21,48,58,4,-4,-131,-82
-24,-29,-4,26,-9,-17,48,63,4,-14,-131,-82
-24,-29,-4,26,-9,-17,53,68,4,-4,-126,-82
-24,-24,0,24,-12,-12,53,68,9,0,-126,-78
-24,-19,4,21,-14,-7,53,68,14,0,-126,-78
-29,-14,14,21,-21,0,53,68,19,0,-122,-73
-29,-14,14,21,-21,0,53,68,14,0,-126,-78
-29,-19,9,24,-19,-4,53,68,14,-4,-126,-78
-29,-19,9,24,-19,-4,53,68,19,-4,-126,-78
-29,-14,14,21,-21,0,53,68,24,0,-126,-78
-24,-9,14,17,-19,2,53,68,24,-4,-122,-68
-24,-9,14,17,-19,2,53,68,29,0,-126,-73
-24,-4,19,14,-21,7,58,68,34,4,-126,-82
-24,0,24,12,-24,12,58,68,39,4,-126,-82
-24,0,24,12,-24,12,58,68,39,9,-126,-82
-24,0,24,12,-24,12,58,68,39,0,-131,-82
-29,0,29,14,-29,14,63,68,39,0,-136,-82
-29,0,29,14,-29,14,63,73,39,0,-136,-82
-29,9,39,9,-34,24,63,73,43,4,-136,-82
-29,9,39,9,-34,24,63,73,43,4,-136,-82
-34,9,43,12,-39,26,68,78,53,9,-131,-87
-39,14,53,12,-46,34,68,78,58,9,-141,-92
-39,9,48,14,-43,29,78,78,58,4,-141,-92
-39,4,43,17,-41,24,78,78,53,0,-141,-92
-39,4,43,17,-41,24,78,78,53,0,-146,-92
-43,0,43,21,-43,21,78,82,53,-4,-151,-92
-48,9,58,19,-53,34,82,82,63,0,-151,-92
-58,9,68,24,-63,39,82,82,68,4,-156,-92
-63,14,78,24,-70,46,87,82,73,4,-156,-97
-68,14,82,26,-75,48,92,82,78,4,-161,-97
-73,24,97,24,-85,61,92,82,78,4,-161,-102
-78,29,107,24,-92,68,92,82,82,4,-156,-102
-82,39,122,21,-102,80,102,82,87,4,-156,-102
-87,39,126,24,-107,82,107,73,92,4,-156,-102
-92,39,131,26,-112,85,107,73,92,4,-165,-107
-107,39,146,34,-126,92,112,68,87,4,-165,-122
-117,34,151,41,-134,92,112,63,87,4,-170,-122
-126,39,165,43,-146,102,117,58,92,-4,-180,-131
-136,39,175,48,-156,107,122,53,92,-4,-190,-131
-146,43,190,51,-168,117,126,43,97,-9,-200,-141
-156,43,200,56,-178,122,126,34,97,-19,-200,-156
-170,43,214,63,-192,129,131,24,92,-24,-209,-165
-185,29,214,78,-200,122,131,9,87,-29,-219,-175
-190,19,209,85,-200,114,126,-4,82,-34,-229,-185
-200,9,209,95,-204,109,126,-14,68,-53,-248,-195
-209,0,209,104,-209,104,117,-24,58,-68,-268,-209
-214,-14,200,114,-207,92,117,-34,53,-68,-278,-224
-209,-29,180,119,-195,75,117,-43,48,-78,-297,-234
-219,-43,175,131,-197,65,117,-53,34,-102,-307,-253
-214,-58,156,136,-185,48,107,-58,29,-112,-317,-263
-204,-68,136,136,-170,34,102,-58,19,-126,-326,-268
-195,-87,107,141,-151,9,87,-58,4,-136,-341,-273
-195,-92,102,143,-148,4,82,-58,0,-136,-341,-273
-170,-102,68,136,-119,-17,68,-53,-4,-136,-341,-273
-146,-112,34,129,-90,-39,53,-34,-4,-136,-326,-253
-126,-112,14,119,-70,-48,29,-29,-4,-136,-317,-239
-92,-102,-9,97,-41,-56,24,-19,0,-122,-297,-209
-68,-82,-14,75,-26,-48,4,-14,9,-102,-268,-180
-48,-78,-29,63,-9,-53,-4,-9,34,-78,-234,-131
-24,-58,-34,41,4,-46,-19,-9,53,-53,-209,-97
0,-39,-39,19,19,-39,-34,-9,68,-39,-170,-68
9,-19,-29,4,19,-24,-48,-9,92,-14,-136,-34
24,0,-24,-12,24,-12,-53,-9,107,9,-107,0
39,24,-14,-31,26,4,-63,-9,122,29,-82,24
48,39,-9,-43,29,14,-68,-9,136,43,-78,43
58,48,-9,-53,34,19,-78,-19,141,48,-63,63
68,58,-9,-63,39,24,-82,-19,146,63,-39,87
78,63,-14,-70,46,24,-92,-19,156,68,-34,92
78,73,-4,-75,41,34,-97,-19,156,73,-29,92
87,73,-14,-80,51,29,-97,-24,161,78,-24,102
87,78,-9,-82,48,34,-107,-19,165,82,-24,102
87,78,-9,-82,48,34,-107,-14,170,82,-9,107
87,78,-9,-82,48,34,-107,-14,170,87,0,112
87,78,-9,-82,48,34,-107,-14,170,82,0,117
87,78,-9,-82,48,34,-107,-14,165,87,0,117
87,78,-9,-82,48,34,-107,-14,175,87,4,122
92,82,-9,-87,51,36,-107,-14,185,87,4,122
92,82,-9,-87,51,36,-102,-14,185,87,4,126
87,82,-4,-85,46,39,-102,-19,185,92,0,122
82,82,0,-82,41,41,-102,-19,190,87,-4,117
82,78,-4,-80,43,36,-102,-19,190,82,-9,117
82,73,-9,-78,46,31,-97,-9,190,82,-9,117
82,73,-9,-78,46,31,-97,-9,200,87,-4,122
82,78,-4,-80,43,36,-92,-9,204,92,-4,126
82,78,-4,-80,43,36,-92,-9,204,92,0,126
82,78,-4,-80,43,36,-92,-9,204,92,4,126
82,78,-4,-80,43,36,-92,-9,204,92,0,126
87,78,-9,-82,48,34,-87,-9,204,92,0,126
82,78,-4,-80,43,36,-87,-9,204,92,-4,126
78,78,0,-78,39,39,-87,-9,204,92,-9,122
78,78,0,-78,39,39,-82,-4,204,87,-9,122
73,78,4,-75,34,41,-82,-4,204,87,-9,117
73,78,4,-75,34,41,-78,-4,204,92,-9,117
68,73,4,-70,31,39,-78,-4,204,92,-19,112
68,73,4,-70,31,39,-73,-4,209,92,-19,112
68,73,4,-70,31,39,-73,0,214,92,-19,112
68,68,0,-68,34,34,-73,-4,214,87,-24,107
68,68,0,-68,34,34,-78,-4,214,82,-24,102
68,63,-4,-65,36,29,-78,-4,224,82,-24,102
68,63,-4,-65,36,29,-73,-4,224,82,-24,97
68,58,-9,-63,39,24,-73,-4,219,87,-24,97
68,58,-9,-63,39,24,-68,-4,219,92,-24,97
63,58,-4,-61,34,26,-68,-4,219,92,-24,102
63,58,-4,-61,34,26,-63,-4,224,92,-24,102
68,63,-4,-65,36,29,-58,0,229,92,-24,102
73,73,0,-73,36,36,-53,4,234,92,-24,102
73,82,9,-78,31,46,-43,14,244,92,-24,107
73,97,24,-85,24,61,-34,14,248,107,-14,112
73,97,24,-85,24,61,-34,14,248,107,-14,112
