I, II, III, aVR, aVL, aVF, V1, V2, V3, V4, V5, V6
-4,43,48,-19,-26,46,-68,-97,-34,-117,-82,-9
0,58,58,-29,-29,58,-78,-117,-43,-117,-82,-9
14,73,58,-43,-21,65,-87,-126,-48,-122,-82,-9
14,63,48,-39,-17,56,-97,-136,-58,-126,-92,-9
4,53,48,-29,-21,51,-97,-151,-63,-136,-102,-19
4,53,48,-29,-21,51,-107,-156,-78,-146,-102,-19
9,73,63,-41,-26,68,-107,-175,-97,-156,-102,-19
9,73,63,-41,-26,68,-117,-185,-112,-175,-107,-24
9,63,53,-36,-21,58,-107,-180,-102,-175,-107,-14
9,58,48,-34,-19,53,-107,-180,-107,-175,-107,-14
14,58,43,-36,-14,51,-107,-175,-107,-170,-97,-14
19,78,58,-48,-19,68,-117,-170,-107,-161,-97,-14
39,78,39,-58,0,58,-112,-170,-112,-170,-102,-4
53,78,24,-65,14,51,-112,-175,-117,-175,-102,0
53,78,24,-65,14,51,-112,-175,-122,-175,-97,4
48,73,24,-61,12,48,-107,-175,-122,-175,-97,4
39,53,14,-46,12,34,-102,-170,-141,-185,-112,-9
34,48,14,-41,9,31,-92,-170,-141,-190,-112,-14
19,29,9,-24,4,19,-78,-161,-141,-195,-112,-14
9,29,19,-19,-4,24,-73,-151,-131,-195,-112,-14
4,19,14,-12,-4,17,-53,-156,-122,-185,-112,-19
4,19,14,-12,-4,17,-48,-151,-117,-175,-112,-19
-4,14,19,-4,-12,17,-39,-136,-117,-175,-112,-19
-4,-4,0,4,-2,-2,-39,-126,-117,-175,-112,-19
-4,-29,-24,17,9,-26,-43,-122,-117,-180,-117,-24
-19,-48,-29,34,4,-39,-24,-112,-117,-180,-117,-39
-43,-82,-39,63,-2,-61,-4,-102,-122,-190,-131,-48
-68,-102,-34,85,-17,-68,9,-102,-122,-200,-141,-63
-87,-107,-19,97,-34,-63,19,-97,-126,-200,-151,-82
-102,-117,-14,109,-43,-65,34,-97,-131,-204,-161,-92
-102,-117,-14,109,-43,-65,39,-97,-131,-204,-165,-97
-102,-136,-34,119,-34,-85,43,-92,-131,-209,-165,-97
-117,-141,-24,129,-46,-82,34,-107,-141,-224,-180,-107
-136,-141,-4,139,-65,-73,39,-112,-146,-229,-185,-112
-141,-146,-4,143,-68,-75,39,-117,-146,-229,-185,-117
-146,-151,-4,148,-70,-78,43,-117,-146,-229,-185,-117
-136,-141,-4,139,-65,-73,43,-126,-156,-224,-185,-107
-136,-146,-9,141,-63,-78,43,-126,-156,-224,-190,-107
-136,-151,-14,143,-61,-82,43,-126,-161,-234,-195,-112
-136,-151,-14,143,-61,-82,43,-126,-161,-239,-195,-117
-136,-141,-4,139,-65,-73,43,-126,-151,-239,-195,-117
-141,-146,-4,143,-68,-75,48,-126,-151,-239,-195,-117
-141,-146,-4,143,-68,-75,48,-126,-151,-239,-195,-117
-141,-146,-4,143,-68,-75,48,-126,-151,-239,-200,-122
-151,-156,-4,153,-73,-80,48,-126,-161,-239,-200,-122
-151,-156,-4,153,-73,-80,48,-126,-165,-239,-200,-122
-146,-156,-9,151,-68,-82,48,-126,-165,-239,-200,-122
-146,-156,-9,151,-68,-82,48,-126,-165,-239,-200,-126
-136,-146,-9,141,-63,-78,53,-117,-156,-239,-209,-117
-136,-146,-9,141,-63,-78,53,-117,-156,-239,-209,-117
-136,-136,0,136,-68,-68,53,-117,-156,-239,-214,-117
-136,-146,-9,141,-63,-78,53,-117,-156,-239,-214,-112
-136,-156,-19,146,-58,-87,63,-107,-146,-229,-200,-112
-136,-156,-19,146,-58,-87,58,-107,-146,-229,-200,-112
-136,-165,-29,151,-53,-97,58,-102,-146,-229,-200,-112
-136,-165,-29,151,-53,-97,58,-102,-146,-229,-200,-112
-136,-151,-14,143,-61,-82,63,-107,-156,-248,-209,-122
-146,-156,-9,151,-68,-82,53,-117,-165,-239,-214,-126
-156,-156,0,156,-78,-78,53,-122,-165,-244,-204,-131
-156,-165,-9,161,-73,-87,73,-117,-146,-234,-204,-122
-161,-165,-4,163,-78,-85,82,-112,-131,-224,-195,-122
-185,-146,39,165,-112,-53,82,-122,-122,-229,-204,-126
-234,-136,97,185,-165,-19,102,-122,-112,-224,-204,-136
-287,-136,151,212,-219,7,136,-117,-68,-200,-204,-136
-366,-117,248,241,-307,65,180,-97,9,-180,-200,-146
-453,-78,375,265,-414,148,253,-53,97,-136,-200,-170
-551,-48,502,300,-527,226,326,34,219,-87,-185,-180
-639,-29,610,334,-624,290,395,107,312,-39,-170,-185
-717,-9,707,363,-712,348,453,136,370,-19,-180,-204
-771,34,805,368,-788,419,492,146,414,-9,-170,-214
-780,63,844,358,-812,453,502,141,424,24,-126,-185
-741,48,790,346,-766,419,483,126,405,68,-63,-131
-653,63,717,295,-685,390,419,82,385,141,43,-43
-527,112,639,207,-583,375,307,19,385,263,185,73
-312,175,488,68,-400,331,146,-43,351,409,356,234
-14,239,253,-112,-134,246,-58,-73,263,556,561,424
302,307,4,-305,148,156,-273,-87,200,746,800,649
624,429,-195,-527,409,117,-483,-102,229,1019,1088,907
897,575,-322,-736,610,126,-678,-136,292,1254,1322,1141
1127,658,-468,-893,797,95,-839,-229,253,1293,1390,1244
1283,644,-639,-963,961,2,-961,-356,63,1107,1268,1234
1415,546,-868,-980,1141,-161,-1063,-522,-234,732,1005,1117
1503,419,-1083,-961,1293,-331,-1132,-741,-629,209,614,897
1498,258,-1239,-878,1368,-490,-1151,-1034,-1122,-439,146,605
1390,78,-1312,-734,1351,-617,-1093,-1346,-1546,-1024,-273,312
1317,-19,-1337,-649,1327,-678,-1058,-1576,-1795,-1405,-566,97
1317,-68,-1385,-624,1351,-727,-1044,-1659,-1922,-1620,-785,-68
1327,-156,-1483,-585,1405,-819,-1019,-1634,-1966,-1727,-912,-185
1322,-278,-1600,-522,1461,-939,-961,-1493,-1912,-1712,-951,-244
1293,-380,-1673,-456,1483,-1027,-883,-1288,-1815,-1644,-971,-312
1224,-453,-1678,-385,1451,-1066,-780,-1141,-1722,-1595,-1000,-400
1137,-517,-1654,-309,1395,-1085,-683,-1024,-1605,-1517,-1005,-444
1049,-536,-1586,-256,1317,-1061,-610,-917,-1454,-1400,-951,-439
932,-497,-1429,-217,1180,-963,-541,-839,-1283,-1263,-878,-409
785,-434,-1220,-175,1002,-827,-463,-761,-1127,-1141,-805,-395
663,-385,-1049,-139,856,-717,-395,-697,-976,-1034,-761,-385
546,-351,-897,-97,722,-624,-336,-634,-854,-927,-692,-351
453,-322,-775,-65,614,-549,-278,-566,-746,-814,-614,-312
351,-287,-639,-31,495,-463,-224,-492,-653,-736,-561,-297
244,-278,-522,17,383,-400,-165,-429,-580,-683,-536,-297
170,-278,-448,53,309,-363,-107,-370,-512,-624,-507,-297
107,-292,-400,92,253,-346,-63,-322,-439,-570,-458,-263
39,-287,-326,124,183,-307,-29,-278,-375,-512,-419,-239
-24,-224,-200,124,87,-212,9,-229,-322,-463,-390,-229
-87,-165,-78,126,-4,-122,29,-195,-263,-409,-361,-219
-141,-156,-14,148,-63,-85,63,-151,-214,-351,-326,-200
-170,-170,0,170,-85,-85,82,-122,-170,-312,-292,-185
-185,-161,24,173,-104,-68,92,-97,-131,-287,-263,-175
-180,-141,39,161,-109,-51,107,-87,-126,-273,-258,-175
-185,-156,29,170,-107,-63,117,-82,-117,-253,-253,-161
-190,-161,29,175,-109,-65,122,-68,-102,-248,-244,-161
-190,-165,24,178,-107,-70,126,-58,-102,-244,-234,-161
-204,-165,39,185,-122,-63,126,-53,-102,-239,-244,-161
-209,-170,39,190,-124,-65,117,-53,-102,-239,-244,-161
-219,-175,43,197,-131,-65,126,-53,-92,-234,-248,-165
-229,-185,43,207,-136,-70,126,-48,-87,-234,-248,-165
-239,-190,48,214,-143,-70,126,-48,-82,-234,-248,-156
-244,-180,63,212,-153,-58,136,-29,-68,-224,-239,-146
-244,-180,63,212,-153,-58,136,-29,-68,-219,-234,-156
-244,-175,68,209,-156,-53,136,-29,-63,-219,-234,-161
-244,-175,68,209,-156,-53,136,-29,-63,-219,-234,-161
-244,-170,73,207,-158,-48,131,-34,-68,-219,-234,-161
-244,-165,78,204,-161,-43,131,-34,-68,-219,-234,-161
-248,-151,97,200,-173,-26,131,-34,-68,-214,-229,-165
-248,-156,92,202,-170,-31,131,-34,-68,-209,-229,-165
-239,-156,82,197,-161,-36,136,-19,-58,-200,-229,-151
-239,-156,82,197,-161,-36,141,-19,-53,-190,-224,-151
-239,-156,82,197,-161,-36,146,-14,-53,-190,-219,-151
-239,-156,82,197,-161,-36,151,-14,-53,-190,-214,-156
-239,-146,92,192,-165,-26,141,-14,-53,-200,-224,-161
-239,-131,107,185,-173,-12,141,-4,-43,-195,-229,-161
-239,-131,107,185,-173,-12,146,-4,-43,-190,-229,-151
-239,-136,102,187,-170,-17,146,-4,-43,-185,-229,-151
-248,-151,97,200,-173,-26,136,0,-34,-185,-229,-151
-253,-156,97,204,-175,-29,136,0,-29,-180,-224,-151
-253,-161,92,207,-173,-34,136,0,-29,-175,-219,-146
-253,-151,102,202,-178,-24,136,4,-29,-165,-219,-146
-253,-141,112,197,-183,-14,136,9,-29,-161,-219,-136
-253,-141,112,197,-183,-14,136,14,-24,-156,-219,-136
-248,-136,112,192,-180,-12,136,19,-19,-156,-219,-136
-244,-136,107,190,-175,-14,136,24,-14,-151,-214,-131
-244,-146,97,195,-170,-24,146,29,0,-156,-200,-136
-244,-156,87,200,-165,-34,146,34,0,-151,-200,-131
-244,-146,97,195,-170,-24,141,39,4,-141,-200,-126
-239,-146,92,192,-165,-26,141,43,9,-131,-200,-126
-229,-107,122,168,-175,7,131,39,9,-141,-204,-136
-229,-102,126,165,-178,12,131,43,9,-141,-204,-141
-229,-97,131,163,-180,17,131,48,9,-136,-204,-141
-224,-82,141,153,-183,29,131,53,9,-136,-195,-131
-234,-97,136,165,-185,19,136,73,24,-117,-190,-126
-234,-102,131,168,-183,14,136,78,29,-107,-185,-117
-234,-112,122,173,-178,4,141,82,34,-92,-175,-112
-234,-117,117,175,-175,0,146,92,39,-92,-175,-107
-229,-102,126,165,-178,12,141,87,39,-97,-175,-107
-219,-87,131,153,-175,21,136,92,43,-92,-175,-102
-214,-73,141,143,-178,34,131,102,48,-87,-165,-97
-209,-68,141,139,-175,36,126,117,58,-73,-156,-82
-200,-82,117,141,-158,17,141,141,78,-58,-136,-63
-200,-78,122,139,-161,21,146,151,87,-48,-126,-58
-190,-92,97,141,-143,2,151,161,102,-39,-122,-58
-190,-97,92,143,-141,-2,156,175,107,-24,-117,-53
-195,-92,102,143,-148,4,146,180,107,-19,-122,-58
-190,-87,102,139,-146,7,146,190,112,-9,-107,-53
-190,-82,107,136,-148,12,141,200,122,-4,-102,-48
-185,-78,107,131,-146,14,136,209,122,0,-102,-43
-180,-63,117,122,-148,26,126,209,122,0,-97,-48
-175,-58,117,117,-146,29,126,229,136,9,-97,-43
-170,-43,126,107,-148,41,126,239,141,19,-97,-39
-161,-34,126,97,-143,46,126,244,156,29,-82,-34
-146,-39,107,92,-126,34,136,273,170,53,-68,-14
-141,-34,107,87,-124,36,136,278,185,68,-53,-9
-131,-24,107,78,-119,41,136,297,190,78,-43,0
-122,-14,107,68,-114,46,131,307,200,87,-39,14
-122,-14,107,68,-114,46,122,317,200,87,-39,14
-126,-14,112,70,-119,48,117,331,204,97,-39,24
-122,-19,102,70,-112,41,117,346,219,112,-19,34
-117,-19,97,68,-107,39,117,361,229,136,-9,39
-97,4,102,46,-100,53,117,370,244,156,4,48
-87,14,102,36,-95,58,117,385,253,165,19,63
-82,4,87,39,-85,46,117,409,268,185,29,78
-73,4,78,34,-75,41,112,429,278,200,39,87
-53,34,87,9,-70,61,107,444,287,209,48,92
-39,43,82,-2,-61,63,107,458,297,224,58,102
-29,48,78,-9,-53,63,107,473,307,244,82,122
-19,53,73,-17,-46,63,107,483,317,268,97,126
0,63,63,-31,-31,63,92,507,326,278,107,136
9,68,58,-39,-24,63,92,512,336,292,117,146
19,78,58,-48,-19,68,87,531,346,302,136,161
29,87,58,-58,-14,73,82,546,356,317,136,170
29,97,68,-63,-19,82,68,561,366,331,146,165
39,92,53,-65,-7,73,68,570,375,351,170,185
53,92,39,-73,7,65,68,590,385,366,185,200
73,107,34,-90,19,70,63,590,395,370,190,209
82,136,53,-109,14,95,58,605,395,380,200,219
92,141,48,-117,21,95,53,614,395,395,204,234
97,141,43,-119,26,92,43,629,400,405,209,248
107,151,43,-129,31,97,43,639,400,414,219,263
136,136,0,-136,68,68,53,658,409,439,248,283
146,122,-24,-134,85,48,48,658,419,444,263,292
161,131,-29,-146,95,51,39,668,434,453,268,297
170,131,-39,-151,104,46,34,683,444,468,273,302
180,136,-43,-158,112,46,19,683,434,468,278,322
190,136,-53,-163,122,41,14,688,434,473,287,331
195,136,-58,-165,126,39,9,697,434,478,292,336
209,136,-73,-173,141,31,0,702,444,492,302,351
229,151,-78,-190,153,36,-9,702,448,502,302,346
239,161,-78,-200,158,41,-14,707,444,502,312,351
248,161,-87,-204,168,36,-14,702,439,517,317,361
258,151,-107,-204,183,21,-14,697,434,517,317,375
268,151,-117,-209,192,17,-19,707,434,527,322,380
278,165,-112,-222,195,26,-29,702,434,531,331,390
278,156,-122,-217,200,17,-34,697,434,531,341,395
292,156,-136,-224,214,9,-39,697,434,531,346,400
297,156,-141,-226,219,7,-43,688,419,531,351,409
302,151,-151,-226,226,0,-43,678,419,531,370,409
307,151,-156,-229,231,-2,-48,663,414,531,361,409
312,151,-161,-231,236,-4,-53,653,405,527,346,409
312,151,-161,-231,236,-4,-68,644,385,512,346,409
312,146,-165,-229,239,-9,-68,634,385,502,346,409
317,146,-170,-231,244,-12,-73,614,370,488,346,409
317,146,-170,-231,244,-12,-78,585,361,478,341,409
331,156,-175,-244,253,-9,-68,570,346,468,326,405
331,156,-175,-244,253,-9,-68,551,331,453,317,405
322,156,-165,-239,244,-4,-68,527,326,439,317,395
322,156,-165,-239,244,-4,-78,507,307,424,307,395
302,136,-165,-219,234,-14,-82,483,297,400,278,375
283,126,-156,-204,219,-14,-82,453,273,380,268,356
268,102,-165,-185,217,-31,-78,429,253,366,253,346
263,78,-185,-170,224,-53,-78,405,244,341,239,341
253,73,-180,-163,217,-53,-68,380,224,312,229,326
253,68,-185,-161,219,-58,-68,351,209,292,219,322
239,68,-170,-153,204,-51,-68,317,185,268,204,302
224,68,-156,-146,190,-43,-68,297,161,244,185,287
214,48,-165,-131,190,-58,-68,263,156,214,161,278
200,48,-151,-124,175,-51,-68,234,141,190,141,258
180,43,-136,-112,158,-46,-63,209,117,161,126,224
170,29,-141,-100,156,-56,-58,190,97,141,107,204
165,19,-146,-92,156,-63,-58,165,78,107,82,200
151,9,-141,-80,146,-65,-53,146,63,92,73,190
117,0,-117,-58,117,-58,-53,122,53,73,43,175
112,0,-112,-56,112,-56,-53,97,34,53,19,151
97,4,-92,-51,95,-43,-53,78,4,19,-4,131
82,4,-78,-43,80,-36,-48,53,-14,-9,-19,112
73,9,-63,-41,68,-26,-48,39,-19,-29,-34,92
63,9,-53,-36,58,-21,-48,19,-24,-39,-48,73
39,-9,-48,-14,43,-29,-34,19,-24,-48,-58,68
29,-24,-53,-2,41,-39,-24,0,-34,-68,-68,58
24,-34,-58,4,41,-46,-19,-4,-48,-78,-78,48
14,-53,-68,19,41,-61,-9,-9,-48,-82,-73,43
-4,-58,-53,31,24,-56,-19,-24,-58,-87,-97,39
-19,-58,-39,39,9,-48,-19,-43,-68,-107,-117,29
-34,-68,-34,51,0,-51,-19,-48,-68,-112,-122,14
-34,-82,-48,58,7,-65,-14,-53,-82,-117,-122,0
-24,-73,-48,48,12,-61,-4,-58,-73,-117,-131,0
-29,-78,-48,53,9,-63,4,-53,-78,-126,-136,0
-39,-78,-39,58,0,-58,4,-58,-82,-126,-141,-9
-43,-82,-39,63,-2,-61,9,-63,-87,-141,-151,-19
-48,-78,-29,63,-9,-53,0,-73,-92,-136,-151,-24
-48,-78,-29,63,-9,-53,0,-87,-97,-146,-161,-24
-63,-73,-9,68,-26,-41,4,-87,-97,-146,-161,-34
-73,-73,0,73,-36,-36,14,-87,-97,-151,-161,-34
-68,-82,-14,75,-26,-48,14,-82,-87,-141,-161,-24
-73,-82,-9,78,-31,-46,14,-78,-87,-146,-161,-24
-68,-82,-14,75,-26,-48,14,-78,-92,-146,-161,-29
-68,-87,-19,78,-24,-53,14,-73,-92,-146,-156,-34
-68,-97,-29,82,-19,-63,19,-78,-82,-136,-146,-39
-73,-92,-19,82,-26,-56,19,-78,-82,-141,-151,-39
-82,-92,-9,87,-36,-51,24,-73,-82,-141,-156,-34
-82,-102,-19,92,-31,-61,24,-73,-78,-141,-156,-39
-73,-97,-24,85,-24,-61,34,-68,-87,-136,-161,-39
-68,-92,-24,80,-21,-58,34,-68,-92,-136,-156,-34
-68,-92,-24,80,-21,-58,34,-68,-92,-131,-156,-29
-73,-87,-14,80,-29,-51,34,-68,-82,-131,-156,-29
-78,-87,-9,82,-34,-48,29,-73,-73,-131,-151,-39
-82,-92,-9,87,-36,-51,29,-73,-73,-131,-151,-34
-78,-97,-19,87,-29,-58,29,-73,-73,-131,-151,-29
-78,-102,-24,90,-26,-63,29,-68,-73,-131,-156,-29
-68,-97,-29,82,-19,-63,24,-68,-73,-131,-146,-34
-78,-97,-19,87,-29,-58,29,-68,-73,-131,-146,-34
-78,-92,-14,85,-31,-53,34,-58,-73,-131,-141,-39
-78,-87,-9,82,-34,-48,34,-58,-73,-126,-141,-43
-78,-82,-4,80,-36,-43,29,-58,-78,-126,-146,-43
-78,-82,-4,80,-36,-43,29,-53,-78,-122,-141,-39
-78,-82,-4,80,-36,-43,29,-58,-78,-122,-131,-34
-82,-82,0,82,-41,-41,29,-58,-73,-122,-126,-29
-92,-97,-4,95,-43,-51,29,-63,-73,-112,-131,-29
-92,-102,-9,97,-41,-56,39,-58,-68,-102,-131,-29
-87,-97,-9,92,-39,-53,39,-58,-68,-102,-131,-29
-87,-97,-9,92,-39,-53,39,-53,-68,-97,-131,-24
-92,-87,4,90,-48,-41,24,-63,-68,-102,-141,-24
-92,-82,9,87,-51,-36,19,-68,-73,-107,-141,-34
-87,-82,4,85,-46,-39,19,-68,-73,-112,-136,-39
-87,-78,9,82,-48,-34,24,-63,-73,-117,-136,-39
-78,-68,9,73,-43,-29,14,-63,-73,-117,-136,-34
-78,-73,4,75,-41,-34,9,-63,-73,-117,-136,-29
-78,-68,9,73,-43,-29,9,-63,-73,-117,-136,-29
-82,-63,19,73,-51,-21,14,-58,-73,-117,-131,-29
-82,-78,4,80,-43,-36,19,-48,-63,-107,-122,-24
-82,-82,0,82,-41,-41,19,-48,-68,-107,-126,-24
-82,-87,-4,85,-39,-46,19,-53,-68,-107,-131,-24
-82,-92,-9,87,-36,-51,24,-53,-68,-107,-131,-19
-92,-92,0,92,-46,-46,34,-63,-78,-112,-122,-24
-92,-92,0,92,-46,-46,34,-63,-78,-112,-122,-24
-87,-87,0,87,-43,-43,29,-63,-78,-117,-131,-24
-82,-78,4,80,-43,-36,29,-63,-78,-122,-141,-29
-92,-78,14,85,-53,-31,29,-63,-78,-126,-131,-39
-92,-78,14,85,-53,-31,34,-63,-78,-126,-131,-34
-97,-87,9,92,-53,-39,34,-68,-78,-126,-126,-34
-102,-87,14,95,-58,-36,34,-73,-78,-126,-126,-29
-92,-82,9,87,-51,-36,34,-73,-78,-126,-126,-29
-92,-82,9,87,-51,-36,34,-73,-78,-126,-126,-29
-87,-78,9,82,-48,-34,29,-73,-82,-126,-131,-29
-87,-78,9,82,-48,-34,29,-73,-87,-136,-136,-34
-87,-73,14,80,-51,-29,29,-87,-87,-151,-136,-43
-87,-68,19,78,-53,-24,19,-87,-92,-151,-136,-43
-87,-63,24,75,-56,-19,29,-87,-92,-151,-141,-43
-87,-58,29,73,-58,-14,39,-87,-92,-146,-146,-43
-78,-63,14,70,-46,-24,29,-87,-87,-136,-141,-43
-78,-73,4,75,-41,-34,29,-87,-92,-136,-141,-43
-82,-92,-9,87,-36,-51,29,-82,-92,-146,-141,-39
-87,-97,-9,92,-39,-53,29,-82,-92,-146,-141,-39
-87,-102,-14,95,-36,-58,29,-73,-87,-136,-131,-48
-87,-97,-9,92,-39,-53,39,-82,-87,-141,-136,-43
-87,-102,-14,95,-36,-58,39,-87,-87,-141,-136,-43
-87,-107,-19,97,-34,-63,34,-87,-92,-141,-141,-43
-92,-97,-4,95,-43,-51,24,-92,-102,-141,-141,-43
-87,-102,-14,95,-36,-58,29,-87,-102,-141,-141,-43
-82,-97,-14,90,-34,-56,29,-87,-97,-141,-141,-43
-78,-92,-14,85,-31,-53,29,-92,-97,-141,-141,-48
-78,-87,-9,82,-34,-48,34,-87,-107,-151,-141,-48
-78,-78,0,78,-39,-39,34,-92,-112,-151,-146,-58
-82,-78,4,80,-43,-36,29,-92,-112,-151,-146,-63
-92,-78,14,85,-53,-31,29,-87,-112,-151,-141,-63
-92,-97,-4,95,-43,-51,29,-97,-102,-151,-141,-63
-92,-107,-14,100,-39,-61,29,-97,-107,-161,-146,-63
-92,-112,-19,102,-36,-65,29,-97,-107,-161,-146,-63
-92,-112,-19,102,-36,-65,34,-102,-107,-161,-146,-63
-102,-97,4,100,-53,-46,24,-107,-117,-151,-146,-58
-97,-87,9,92,-53,-39,24,-107,-117,-151,-146,-58
-97,-82,14,90,-56,-34,24,-102,-112,-151,-146,-58
-97,-78,19,87,-58,-29,24,-102,-112,-146,-146,-58
-87,-87,0,87,-43,-43,29,-112,-102,-146,-151,-53
-78,-82,-4,80,-36,-43,24,-107,-97,-146,-141,-53
-78,-78,0,78,-39,-39,24,-107,-97,-141,-136,-53
-73,-73,0,73,-36,-36,34,-102,-82,-136,-126,-43
-58,-58,0,58,-29,-29,14,-102,-82,-122,-117,-39
-58,-39,19,48,-39,-9,4,-97,-82,-122,-117,-39
-48,-24,24,36,-36,0,4,-92,-82,-117,-117,-34
-39,-4,34,21,-36,14,0,-82,-73,-117,-117,-19
-29,4,34,12,-31,19,0,-73,-73,-107,-97,-14
-29,0,29,14,-29,14,0,-78,-58,-97,-97,-19
-19,4,24,7,-21,14,0,-78,-53,-87,-87,-9
-19,9,29,4,-24,19,0,-78,-48,-87,-87,-9
-19,14,34,2,-26,24,0,-78,-43,-87,-87,-9
-19,19,39,0,-29,29,0,-78,-39,-87,-87,-9
-24,34,58,-4,-41,46,-4,-73,-39,-87,-87,-9
-29,29,58,0,-43,43,-4,-82,-34,-87,-87,-4
-34,34,68,0,-51,51,-4,-82,-34,-87,-87,-4
-34,29,63,2,-48,46,-4,-78,-24,-87,-87,-4
-19,14,34,2,-26,24,-14,-63,-19,-82,-78,0
-14,14,29,0,-21,21,-14,-58,-19,-73,-73,4
-9,24,34,-7,-21,29,-19,-53,-19,-68,-68,9
-9,34,43,-12,-26,39,-29,-58,-19,-63,-63,14
-19,48,68,-14,-43,58,-39,-73,-29,-63,-63,4
-9,39,48,-14,-29,43,-39,-68,-24,-68,-63,9
-4,43,48,-19,-26,46,-43,-73,-24,-73,-53,14
-4,53,58,-24,-31,56,-48,-87,-24,-78,-53,19
9,68,58,-39,-24,63,-68,-122,-48,-92,-58,9
24,82,58,-53,-17,70,-78,-136,-58,-102,-63,9
24,73,48,-48,-12,61,-87,-151,-73,-112,-78,9
24,63,39,-43,-7,51,-87,-161,-78,-122,-82,9
19,53,34,-36,-7,43,-87,-161,-78,-117,-82,0
19,63,43,-41,-12,53,-87,-175,-92,-122,-82,0
14,53,39,-34,-12,46,-97,-180,-102,-136,-87,-4
9,43,34,-26,-12,39,-97,-180,-102,-141,-97,-4
19,48,29,-34,-4,39,-107,-190,-107,-156,-97,-4
24,58,34,-41,-4,46,-107,-185,-107,-156,-87,-4
29,87,58,-58,-14,73,-117,-180,-107,-151,-87,-4
39,97,58,-68,-9,78,-122,-180,-112,-151,-92,-4
53,78,24,-65,14,51,-117,-175,-107,-146,-82,9
53,68,14,-61,19,41,-112,-175,-112,-146,-78,14
48,53,4,-51,21,29,-102,-175,-112,-146,-78,14
43,24,-19,-34,31,2,-92,-170,-122,-146,-82,9
39,19,-19,-29,29,0,-73,-170,-122,-151,-92,-4
24,0,-24,-12,24,-12,-58,-161,-122,-156,-92,-4
14,0,-14,-7,14,-7,-53,-151,-112,-156,-92,-4
4,0,-4,-2,4,-2,-43,-146,-112,-156,-92,-9
14,0,-14,-7,14,-7,-39,-141,-117,-146,-92,-9
4,-4,-9,0,7,-7,-29,-126,-117,-146,-92,-9
4,-24,-29,9,17,-26,-29,-117,-117,-146,-92,-9
4,-43,-48,19,26,-46,-24,-112,-117,-141,-97,-14
-24,-68,-43,46,9,-56,-4,-102,-117,-151,-107,-39
-53,-97,-43,75,-4,-70,14,-92,-122,-161,-122,-48
-82,-112,-29,97,-26,-70,29,-92,-122,-170,-131,-63
-107,-117,-9,112,-48,-63,34,-92,-126,-180,-141,-73
-112,-117,-4,114,-53,-61,34,-107,-131,-185,-151,-82
-112,-117,-4,114,-53,-61,34,-112,-131,-185,-156,-87
-112,-136,-24,124,-43,-80,34,-112,-131,-190,-156,-87
-122,-141,-19,131,-51,-80,34,-117,-141,-195,-161,-87
-136,-151,-14,143,-61,-82,39,-112,-141,-190,-156,-82
-136,-156,-19,146,-58,-87,39,-117,-136,-190,-156,-87
-136,-161,-24,148,-56,-92,43,-117,-131,-190,-156,-87
-136,-161,-24,148,-56,-92,43,-117,-126,-185,-156,-87
-136,-161,-24,148,-56,-92,53,-117,-136,-175,-161,-87
-136,-161,-24,148,-56,-92,53,-117,-141,-185,-165,-92
-136,-156,-19,146,-58,-87,53,-117,-141,-190,-165,-97
-136,-151,-14,143,-61,-82,53,-117,-141,-190,-165,-97
-141,-161,-19,151,-61,-90,58,-117,-141,-190,-165,-97
-141,-165,-24,153,-58,-95,58,-117,-141,-190,-165,-97
-141,-170,-29,156,-56,-100,58,-117,-141,-190,-170,-102
-141,-175,-34,158,-53,-104,58,-117,-141,-190,-170,-102
-131,-161,-29,146,-51,-95,58,-117,-146,-200,-170,-102
-126,-156,-29,141,-48,-92,58,-117,-146,-200,-170,-102
-126,-151,-24,139,-51,-87,58,-117,-146,-200,-170,-107
-126,-146,-19,136,-53,-82,63,-117,-146,-200,-170,-107
-136,-161,-24,148,-56,-92,63,-117,-136,-190,-165,-97
-136,-156,-19,146,-58,-87,63,-117,-136,-190,-165,-97
-136,-170,-34,153,-51,-102,63,-117,-136,-190,-161,-92
-136,-175,-39,156,-48,-107,63,-117,-136,-190,-151,-92
-136,-165,-29,151,-53,-97,68,-107,-126,-190,-151,-92
-136,-175,-39,156,-48,-107,68,-102,-126,-190,-151,-92
-136,-175,-39,156,-48,-107,68,-102,-126,-190,-151,-92
-136,-170,-34,153,-51,-102,73,-97,-126,-190,-151,-92
-146,-136,9,141,-78,-63,63,-107,-136,-200,-165,-107
-146,-156,-9,151,-68,-82,73,-102,-126,-185,-156,-92
-156,-175,-19,165,-68,-97,82,-97,-117,-175,-146,-82
-170,-165,4,168,-87,-80,82,-102,-102,-165,-146,-92
-204,-126,78,165,-141,-24,92,-122,-82,-170,-156,-107
-253,-87,165,170,-209,39,112,-122,-63,-165,-165,-117
-317,-78,239,197,-278,80,156,-107,-9,-131,-156,-117
-414,-87,326,251,-370,119,239,-58,78,-92,-141,-126
-522,-68,453,295,-488,192,312,4,195,-48,-131,-141
-610,-48,561,329,-585,256,385,82,297,0,-117,-161
-688,-39,649,363,-668,305,463,156,380,48,-102,-156
-756,-19,736,387,-746,358,512,175,439,68,-92,-165
-810,24,834,392,-822,429,531,175,473,87,-73,-165
-790,43,834,373,-812,439,522,170,492,141,-19,-126
-712,48,761,331,-736,405,483,146,483,204,73,-53
-595,82,678,256,-636,380,390,102,473,307,200,53
-409,170,580,119,-495,375,258,39,453,439,361,200
-146,244,390,-48,-268,317,68,-24,390,566,541,361
170,297,126,-234,21,212,-156,-73,292,702,736,561
517,366,-151,-441,334,107,-380,-87,268,922,995,805
839,468,-370,-653,605,48,-590,-102,317,1185,1273,1073
1112,575,-536,-844,824,19,-746,-156,341,1332,1439,1259
1312,649,-663,-980,988,-7,-888,-268,224,1244,1390,1283
1459,653,-805,-1056,1132,-75,-1019,-444,-43,922,1171,1195
1542,517,-1024,-1029,1283,-253,-1112,-668,-400,458,810,1000
1571,331,-1239,-951,1405,-453,-1171,-985,-844,-122,370,741
1478,180,-1298,-829,1388,-558,-1171,-1376,-1307,-761,-87,439
1342,68,-1273,-705,1307,-602,-1122,-1688,-1654,-1249,-448,175
1288,-19,-1307,-634,1298,-663,-1078,-1810,-1805,-1493,-683,-9
1259,-78,-1337,-590,1298,-707,-1044,-1834,-1844,-1610,-824,-136
1249,-156,-1405,-546,1327,-780,-1000,-1771,-1859,-1649,-902,-234
1234,-258,-1493,-488,1363,-875,-932,-1590,-1815,-1625,-932,-302
1185,-390,-1576,-397,1381,-983,-824,-1366,-1708,-1576,-961,-380
1098,-492,-1590,-302,1344,-1041,-712,-1180,-1586,-1498,-961,-439
1019,-517,-1537,-251,1278,-1027,-624,-1063,-1468,-1400,-936,-463
932,-478,-1410,-226,1171,-944,-561,-956,-1317,-1273,-873,-439
795,-439,-1234,-178,1015,-836,-483,-839,-1146,-1127,-790,-409
658,-385,-1044,-136,851,-714,-395,-751,-990,-995,-717,-395
556,-326,-883,-114,719,-605,-346,-678,-868,-878,-653,-375
468,-283,-751,-92,610,-517,-297,-595,-746,-771,-575,-331
366,-253,-619,-56,492,-436,-239,-527,-629,-678,-507,-302
273,-248,-522,-12,397,-385,-185,-453,-546,-610,-463,-287
195,-258,-453,31,324,-356,-126,-390,-492,-546,-429,-287
131,-248,-380,58,256,-314,-78,-341,-424,-488,-409,-268
58,-253,-312,97,185,-283,-34,-292,-361,-444,-380,-253
0,-248,-248,124,124,-248,0,-248,-307,-385,-331,-229
-63,-224,-161,143,48,-192,29,-200,-234,-307,-273,-200
-117,-204,-87,161,-14,-146,68,-146,-175,-253,-224,-170
-161,-185,-24,173,-68,-104,82,-112,-136,-224,-209,-170
-190,-180,9,185,-100,-85,102,-92,-112,-204,-195,-156
-195,-180,14,187,-104,-82,112,-68,-82,-170,-175,-136
-190,-161,29,175,-109,-65,117,-58,-78,-175,-170,-146
-204,-151,53,178,-129,-48,107,-68,-87,-175,-170,-146
-209,-151,58,180,-134,-46,112,-58,-73,-170,-165,-151
-209,-151,58,180,-134,-46,117,-53,-73,-165,-161,-156
-224,-146,78,185,-151,-34,117,-53,-73,-161,-175,-161
-219,-156,63,187,-141,-46,126,-48,-68,-151,-170,-156
-219,-156,63,187,-141,-46,136,-43,-53,-146,-170,-156
-219,-161,58,190,-139,-51,136,-34,-43,-146,-165,-151
-219,-161,58,190,-139,-51,136,-29,-34,-146,-161,-136
-229,-161,68,195,-148,-46,146,-29,-39,-146,-151,-126
-234,-161,73,197,-153,-43,146,-29,-39,-141,-146,-136
-239,-156,82,197,-161,-36,146,-29,-34,-141,-146,-141
-244,-156,87,200,-165,-34,146,-29,-34,-141,-146,-141
-244,-165,78,204,-161,-43,141,-24,-29,-131,-146,-141
-244,-165,78,204,-161,-43,141,-24,-29,-131,-146,-141
-248,-156,92,202,-170,-31,141,-24,-29,-126,-141,-146
-248,-165,82,207,-165,-41,141,-24,-29,-122,-141,-146
-248,-156,92,202,-170,-31,131,-19,-29,-126,-146,-141
-248,-156,92,202,-170,-31,131,-19,-24,-122,-146,-141
-248,-156,92,202,-170,-31,131,-14,-24,-126,-146,-141
-248,-156,92,202,-170,-31,131,-14,-24,-131,-146,-146
-239,-136,102,187,-170,-17,141,-14,-24,-131,-136,-141
-239,-122,117,180,-178,-2,141,-4,-14,-126,-141,-141
-239,-122,117,180,-178,-2,146,-4,-14,-122,-141,-131
-239,-126,112,183,-175,-7,146,-4,-14,-117,-141,-131
-239,-136,102,187,-170,-17,136,0,-4,-107,-141,-131
-244,-136,107,190,-175,-14,136,0,0,-102,-136,-131
-244,-136,107,190,-175,-14,136,0,0,-97,-131,-126
-244,-122,122,183,-183,0,136,4,0,-87,-131,-126
-244,-122,122,183,-183,0,136,0,0,-82,-122,-126
-244,-122,122,183,-183,0,136,4,4,-78,-122,-126
-239,-117,122,178,-180,2,136,9,9,-78,-122,-126
-234,-117,117,175,-175,0,136,14,14,-73,-117,-122
-234,-126,107,180,-170,-9,156,29,29,-58,-102,-122
-234,-136,97,185,-165,-19,156,34,29,-53,-102,-122
-234,-126,107,180,-170,-9,151,39,34,-43,-102,-122
-229,-126,102,178,-165,-12,151,43,39,-34,-102,-126
-229,-102,126,165,-178,12,141,48,34,-34,-97,-117
-229,-102,126,165,-178,12,141,53,39,-34,-97,-122
-229,-102,126,165,-178,12,141,58,43,-29,-97,-122
-224,-92,131,158,-178,19,141,63,48,-29,-87,-112
-214,-97,117,156,-165,9,151,82,63,-9,-82,-102
-214,-102,112,158,-163,4,146,87,68,0,-78,-97
-214,-112,102,163,-158,-4,146,92,73,14,-68,-97
-214,-117,97,165,-156,-9,146,102,78,14,-68,-97
-209,-107,102,158,-156,-2,136,107,78,9,-68,-87
-200,-97,102,148,-151,2,136,112,82,14,-68,-82
-195,-87,107,141,-151,9,136,122,87,19,-58,-78
-190,-87,102,139,-146,7,136,136,97,34,-48,-63
-190,-87,102,139,-146,7,146,146,112,53,-39,-63
-190,-78,112,134,-151,17,146,151,117,58,-29,-58
-180,-87,92,134,-136,2,146,156,126,63,-24,-58
-180,-87,92,134,-136,2,146,165,126,73,-19,-53
-175,-82,92,129,-134,4,136,180,126,68,-24,-58
-170,-78,92,124,-131,7,136,190,131,78,-9,-53
-170,-73,97,122,-134,12,131,200,141,82,-4,-48
-165,-68,97,117,-131,14,126,209,141,87,-4,-43
-170,-68,102,119,-136,17,126,219,141,97,0,-39
-165,-68,97,117,-131,14,126,239,156,107,0,-34
-161,-58,102,109,-131,21,126,248,161,117,0,-29
-151,-53,97,102,-124,21,126,253,175,126,14,-24
-136,-43,92,90,-114,24,126,263,180,131,29,-14
-131,-34,97,82,-114,31,126,268,195,146,43,-9
-122,-19,102,70,-112,41,126,287,200,156,53,0
-112,-4,107,58,-109,51,122,297,209,165,58,14
-97,-4,92,51,-95,43,122,326,219,185,68,24
-97,-4,92,51,-95,43,117,341,224,195,68,34
-87,-9,78,48,-82,34,117,356,239,209,87,43
-78,-9,68,43,-73,29,117,370,248,234,97,48
-78,14,92,31,-85,53,107,375,244,234,112,48
-68,24,92,21,-80,58,107,385,253,244,126,63
-63,14,78,24,-70,46,107,405,268,263,136,78
-53,14,68,19,-61,41,102,419,278,278,146,87
-43,39,82,2,-63,61,92,434,297,292,156,92
-29,43,73,-7,-51,58,87,448,307,302,165,102
-19,43,63,-12,-41,53,82,463,317,317,190,122
-9,43,53,-17,-31,48,78,473,326,336,204,126
4,63,58,-34,-26,61,73,488,326,356,214,136
19,68,48,-43,-14,58,73,492,336,370,224,146
34,78,43,-56,-4,61,68,512,346,380,244,161
48,87,39,-68,4,63,63,527,356,395,244,170
58,78,19,-68,19,48,53,536,361,419,263,185
68,73,4,-70,31,39,58,551,375,439,287,204
82,73,-9,-78,46,31,63,575,390,453,302,219
102,87,-14,-95,58,36,63,580,405,458,307,229
122,107,-14,-114,68,46,53,590,400,458,317,239
131,112,-19,-122,75,46,43,595,405,473,322,253
136,112,-24,-124,80,43,29,605,414,483,326,268
146,122,-24,-134,85,48,24,610,419,492,336,283
175,122,-53,-148,114,34,14,629,414,517,356,283
185,112,-73,-148,129,19,9,629,419,522,370,292
200,126,-73,-163,136,26,0,639,429,531,375,297
209,131,-78,-170,143,26,-4,653,434,546,380,302
214,151,-63,-183,139,43,-9,644,434,556,395,322
229,156,-73,-192,151,41,-14,649,434,561,405,331
239,161,-78,-200,158,41,-19,658,434,566,409,336
258,165,-92,-212,175,36,-29,663,444,580,419,351
268,165,-102,-217,185,31,-34,668,453,600,439,366
278,170,-107,-224,192,31,-34,678,453,600,448,370
287,165,-122,-226,204,21,-29,678,453,614,453,380
297,151,-146,-224,222,2,-24,678,453,614,453,395
307,161,-146,-234,226,7,-29,688,444,614,458,400
317,175,-141,-246,229,17,-39,683,444,619,468,409
317,165,-151,-241,234,7,-43,678,444,619,478,414
331,165,-165,-248,248,0,-48,678,444,619,483,419
326,165,-161,-246,244,2,-63,673,439,610,492,419
331,161,-170,-246,251,-4,-63,658,439,610,507,419
336,161,-175,-248,256,-7,-68,639,434,610,492,419
341,161,-180,-251,261,-9,-73,624,424,605,473,419
351,165,-185,-258,268,-9,-87,619,414,610,483,429
351,165,-185,-258,268,-9,-87,614,414,600,483,429
356,170,-185,-263,270,-7,-92,600,400,585,483,429
356,175,-180,-265,268,-2,-97,575,390,575,478,429
351,170,-180,-261,265,-4,-87,561,385,575,473,424
351,165,-185,-258,268,-9,-87,541,370,561,463,424
341,161,-180,-251,261,-9,-87,517,366,546,463,414
341,156,-185,-248,263,-14,-97,497,346,531,453,414
331,146,-185,-239,258,-19,-92,478,336,497,434,395
312,146,-165,-229,239,-9,-92,444,312,478,424,375
297,131,-165,-214,231,-17,-87,414,292,463,409,366
292,117,-175,-204,234,-29,-87,385,283,439,395,361
278,117,-161,-197,219,-21,-97,351,273,419,380,336
273,117,-156,-195,214,-19,-97,322,258,400,366,331
253,122,-131,-187,192,-4,-97,287,234,375,346,312
234,126,-107,-180,170,9,-97,268,209,351,322,297
219,107,-112,-163,165,-2,-92,244,204,326,297,287
200,107,-92,-153,146,7,-87,214,190,297,278,268
175,102,-73,-139,124,14,-78,190,165,263,263,234
161,87,-73,-124,117,7,-68,170,146,239,244,214
156,63,-92,-109,124,-14,-58,156,136,224,229,200
141,48,-92,-95,117,-21,-53,136,122,209,219,190
107,34,-73,-70,90,-19,-53,112,112,190,190,175
102,29,-73,-65,87,-21,-53,87,92,170,165,151
87,29,-58,-58,73,-14,-43,63,82,146,151,136
73,24,-48,-48,61,-12,-39,43,63,117,136,122
63,24,-39,-43,51,-7,-39,34,58,97,122,107
53,19,-34,-36,43,-7,-39,19,53,87,107,92
39,9,-29,-24,34,-9,-19,19,43,78,102,82
29,4,-24,-17,26,-9,-14,0,34,58,87,68
24,4,-19,-14,21,-7,-14,-4,19,48,73,53
14,-4,-19,-4,17,-12,-9,-9,19,43,73,43
-4,-19,-14,12,4,-17,0,-24,0,29,48,39
-19,-19,0,19,-9,-9,0,-43,-9,9,29,29
-34,-29,4,31,-19,-12,0,-48,-9,4,24,14
-34,-43,-9,39,-12,-26,4,-53,-24,0,24,0
-43,-34,9,39,-26,-12,-4,-63,-14,-9,14,0
-48,-39,9,43,-29,-14,4,-63,-19,-19,9,0
-58,-39,19,48,-39,-9,4,-73,-24,-19,4,-9
-63,-43,19,53,-41,-12,9,-82,-29,-34,-4,-19
-58,-24,34,41,-46,4,9,-73,-34,-29,-4,-24
-68,-39,29,53,-48,-4,19,-78,-29,-29,-4,-24
-73,-48,24,61,-48,-12,14,-78,-29,-29,-4,-24
-73,-43,29,58,-51,-7,24,-78,-29,-34,-4,-34
-58,-48,9,53,-34,-19,29,-78,-19,-19,0,-29
-63,-48,14,56,-39,-17,29,-87,-29,-29,-9,-39
-68,-48,19,58,-43,-14,29,-87,-29,-29,-9,-39
-73,-48,24,61,-48,-12,29,-87,-29,-29,-9,-39
-78,-48,29,63,-53,-9,29,-87,-29,-29,-9,-39
-87,-43,43,65,-65,0,14,-102,-34,-39,-14,-53
-97,-48,48,73,-73,0,14,-112,-34,-39,-19,-53
-107,-43,63,75,-85,9,14,-112,-39,-39,-24,-58
-112,-48,63,80,-87,7,14,-107,-34,-39,-29,-63
-92,-48,43,70,-68,-2,4,-112,-29,-29,-14,-48
-82,-43,39,63,-61,-2,4,-117,-29,-24,-14,-43
-73,-29,43,51,-58,7,0,-122,-29,-24,-14,-39
-68,-14,53,41,-61,19,-9,-136,-29,-24,-14,-34
-73,-14,58,43,-65,21,-19,-146,-34,-29,-19,-43
-68,-29,39,48,-53,4,-19,-146,-34,-39,-24,-39
-68,-29,39,48,-53,4,-24,-156,-39,-48,-19,-34
-73,-24,48,48,-61,12,-29,-175,-43,-58,-24,-29
-87,-19,68,53,-78,24,-24,-175,-48,-53,-24,-43
-92,-4,87,48,-90,41,-19,-175,-48,-53,-24,-48
-112,-14,97,63,-104,41,-14,-175,-53,-53,-34,-53
-131,-24,107,78,-119,41,0,-170,-48,-53,-34,-58
-156,-9,146,82,-151,68,0,-170,-39,-43,-24,-58
-165,14,180,75,-173,97,9,-185,-43,-43,-24,-58
-180,19,200,80,-190,109,9,-190,-43,-53,-29,-63
-195,24,219,85,-207,122,19,-190,-34,-53,-39,-63
-190,9,200,90,-195,104,29,-180,-24,-48,-24,-58
-180,9,190,85,-185,100,29,-165,-19,-39,-9,-53
-170,29,200,70,-185,114,19,-151,-14,-24,-4,-48
-156,29,185,63,-170,107,14,-141,-14,-14,-4,-43
-141,19,161,61,-151,90,19,-126,0,-9,4,-34
-141,19,161,61,-151,90,24,-117,4,0,19,-24
-146,14,161,65,-153,87,34,-107,14,9,29,-19
-151,-4,146,78,-148,70,43,-92,14,19,34,-19
-141,-19,122,80,-131,51,48,-92,14,4,19,-29
-151,-39,112,95,-131,36,58,-82,14,0,14,-34
-156,-39,117,97,-136,39,58,-73,24,0,9,-39
-161,-39,122,100,-141,41,63,-68,24,0,4,-48
-156,-29,126,92,-141,48,78,-53,39,9,14,-48
-161,-24,136,92,-148,56,87,-39,39,9,14,-48
-156,-34,122,95,-139,43,87,-29,39,9,14,-48
-151,-43,107,97,-129,31,92,-24,39,14,9,-53
-146,-39,107,92,-126,34,97,-4,53,29,24,-53
-151,-58,92,104,-122,17,112,4,53,24,14,-48
-156,-63,92,109,-124,14,122,4,58,19,9,-48
-156,-58,97,107,-126,19,122,4,58,14,4,-43
-151,-53,97,102,-124,21,117,-4,43,19,0,-48
-141,-48,92,95,-117,21,102,-14,43,19,0,-48
-131,-63,68,97,-100,2,87,-19,43,14,4,-43
-131,-63,68,97,-100,2,73,-29,34,9,4,-39
-136,-53,82,95,-109,14,68,-48,14,-4,9,-34
-126,-58,68,92,-97,4,58,-58,9,-4,9,-39
-117,-63,53,90,-85,-4,53,-63,4,-4,9,-39
-107,-63,43,85,-75,-9,43,-68,0,0,9,-39
-107,-58,48,82,-78,-4,34,-78,-14,-14,0,-48
-107,-63,43,85,-75,-9,34,-78,-24,-29,-9,-53
-107,-63,43,85,-75,-9,34,-78,-29,-39,-14,-58
-107,-63,43,85,-75,-9,34,-78,-34,-43,-19,-58
-112,-73,39,92,-75,-17,29,-87,-43,-43,-19,-58
-112,-78,34,95,-73,-21,29,-87,-43,-43,-19,-58
-112,-82,29,97,-70,-26,29,-87,-43,-43,-24,-63
-112,-87,24,100,-68,-31,29,-87,-43,-43,-24,-63
-112,-97,14,104,-63,-41,39,-78,-39,-34,-24,-73
-107,-97,9,102,-58,-43,39,-78,-39,-34,-24,-73
-107,-97,9,102,-58,-43,39,-78,-39,-34,-24,-78
-107,-97,9,102,-58,-43,43,-78,-39,-34,-24,-78
-117,-87,29,102,-73,-29,34,-82,-48,-43,-34,-87
-117,-78,39,97,-78,-19,34,-87,-48,-43,-39,-87
-117,-87,29,102,-73,-29,34,-92,-48,-43,-39,-82
-117,-87,29,102,-73,-29,34,-97,-48,-43,-34,-82
-112,-78,34,95,-73,-21,29,-97,-48,-34,-34,-73
-107,-87,19,97,-63,-34,29,-92,-48,-34,-34,-73
-102,-87,14,95,-58,-36,29,-92,-48,-34,-34,-73
-97,-82,14,90,-56,-34,34,-87,-48,-34,-34,-73
-107,-107,0,107,-53,-53,34,-87,-48,-24,-19,-68
-117,-87,29,102,-73,-29,24,-102,-58,-39,-29,-82
-117,-68,48,92,-82,-9,14,-107,-58,-39,-29,-82
-131,-87,43,109,-87,-21,43,-102,-24,-9,-9,-63
-156,-87,68,122,-112,-9,73,-92,-4,4,-9,-68
-185,-68,117,126,-151,24,92,-82,14,0,-9,-87
-239,-78,161,158,-200,41,117,-78,48,4,-19,-97
-326,-87,239,207,-283,75,170,-58,107,14,-34,-117
-424,-78,346,251,-385,134,234,-4,204,48,-43,-151
-512,-39,473,275,-492,217,297,63,307,97,-29,-161
-580,-19,561,300,-570,270,356,126,400,165,4,-165
-649,-9,639,329,-644,314,424,175,488,204,24,-165
-712,4,717,353,-714,361,473,214,590,263,53,-156
-722,63,785,329,-753,424,483,219,649,326,107,-126
-673,136,810,268,-741,473,444,195,649,370,161,-92
-605,151,756,226,-680,453,380,151,658,453,268,4
-468,161,629,153,-549,395,297,97,649,556,419,161
-253,224,478,14,-366,351,146,4,527,634,570,302
34,297,263,-165,-114,280,-58,-92,351,692,727,453
370,366,-4,-368,187,180,-292,-185,229,834,946,678
722,488,-234,-605,478,126,-512,-229,229,1058,1215,946
1015,614,-400,-814,707,107,-707,-292,214,1234,1439,1180
1234,658,-575,-946,905,41,-878,-395,117,1224,1488,1283
1371,634,-736,-1002,1054,-51,-1000,-522,-92,1000,1327,1254
1464,556,-907,-1010,1185,-175,-1093,-707,-380,614,1015,1088
1522,439,-1083,-980,1302,-322,-1151,-917,-746,102,605,839
1488,317,-1171,-902,1329,-427,-1161,-1190,-1161,-488,146,546
1381,234,-1146,-807,1263,-456,-1141,-1473,-1498,-966,-204,302
1307,156,-1151,-732,1229,-497,-1107,-1654,-1659,-1239,-419,146
1259,78,-1180,-668,1220,-551,-1083,-1698,-1717,-1385,-580,9
1229,9,-1220,-619,1224,-605,-1029,-1634,-1722,-1434,-668,-87
1215,-73,-1288,-570,1251,-680,-951,-1454,-1649,-1390,-678,-146
1156,-204,-1361,-475,1259,-783,-844,-1259,-1551,-1342,-717,-214
1068,-336,-1405,-366,1237,-871,-722,-1112,-1459,-1302,-766,-312
980,-370,-1351,-305,1166,-861,-634,-976,-1332,-1205,-751,-356
883,-361,-1244,-261,1063,-802,-561,-849,-1161,-1058,-658,-331
756,-341,-1098,-207,927,-719,-492,-771,-990,-912,-595,-322
629,-297,-927,-165,778,-612,-414,-683,-854,-800,-531,-326
527,-258,-785,-134,656,-522,-346,-600,-712,-673,-439,-287
439,-224,-663,-107,551,-444,-297,-517,-590,-575,-370,-253
356,-204,-561,-75,458,-383,-248,-468,-522,-522,-341,-253
273,-200,-473,-36,373,-336,-185,-395,-458,-473,-326,-268
175,-229,-405,26,290,-317,-126,-331,-385,-419,-292,-248
112,-209,-322,48,217,-265,-87,-283,-326,-370,-263,-239
68,-175,-244,53,156,-209,-53,-244,-273,-317,-234,-224
9,-170,-180,80,95,-175,-9,-190,-200,-258,-185,-200
-53,-156,-102,104,24,-129,29,-141,-136,-190,-146,-170
-107,-146,-39,126,-34,-92,58,-107,-87,-146,-117,-161
-151,-146,4,148,-78,-70,63,-82,-58,-126,-92,-151
-151,-122,29,136,-90,-46,63,-63,-34,-107,-78,-146
-156,-82,73,119,-114,-4,73,-68,-24,-102,-78,-146
-161,-112,48,136,-104,-31,87,-58,-19,-97,-73,-136
-165,-122,43,143,-104,-39,87,-58,-9,-78,-68,-131
-170,-122,48,146,-109,-36,92,-48,4,-73,-58,-131
-170,-122,48,146,-109,-36,97,-43,4,-68,-48,-131
-185,-117,68,151,-126,-24,97,-43,4,-63,-58,-131
-175,-126,48,151,-112,-39,107,-43,4,-63,-48,-141
-180,-126,53,153,-117,-36,117,-43,14,-58,-53,-146
-185,-131,53,158,-119,-39,117,-39,19,-58,-53,-146
-190,-131,58,161,-124,-36,117,-39,24,-58,-53,-136
-185,-141,43,163,-114,-48,107,-19,29,-43,-43,-131
-185,-141,43,163,-114,-48,107,-19,29,-34,-39,-136
-185,-136,48,161,-117,-43,107,-19,34,-29,-39,-136
-185,-136,48,161,-117,-43,107,-19,34,-24,-39,-131
-185,-122,63,153,-124,-29,112,-24,29,-34,-48,-126
-185,-117,68,151,-126,-24,112,-24,29,-34,-48,-131
-190,-102,87,146,-139,-7,112,-24,29,-29,-43,-141
-190,-107,82,148,-136,-12,112,-24,29,-24,-43,-146
-200,-107,92,153,-146,-7,102,-29,29,-14,-43,-151
-200,-107,92,153,-146,-7,102,-29,34,-4,-39,-151
-200,-107,92,153,-146,-7,102,-24,34,-4,-34,-151
-200,-107,92,153,-146,-7,102,-24,34,-4,-29,-156
-209,-107,102,158,-156,-2,112,-19,43,0,-19,-156
-209,-102,107,156,-158,2,112,-4,53,9,-24,-151
-209,-112,97,161,-153,-7,117,0,53,19,-24,-136
-209,-126,82,168,-146,-21,117,4,53,29,-24,-131
-209,-131,78,170,-143,-26,117,0,53,29,-24,-141
-214,-126,87,170,-151,-19,117,0,58,34,-19,-141
-214,-122,92,168,-153,-14,117,0,58,39,-14,-136
-214,-102,112,158,-163,4,117,4,58,48,-14,-136
-209,-112,97,161,-153,-7,126,19,78,53,-14,-126
-204,-112,92,158,-148,-9,126,24,82,58,-14,-126
-195,-107,87,151,-141,-9,126,29,87,58,-14,-126
-185,-107,78,146,-131,-14,126,34,92,63,-9,-122
-195,-107,87,151,-141,-9,126,39,97,68,-4,-126
-195,-117,78,156,-136,-19,126,43,97,73,-4,-122
-195,-107,87,151,-141,-9,122,48,102,82,-4,-117
-190,-107,82,148,-136,-12,122,53,107,92,-4,-117
-200,-87,112,143,-156,12,131,68,112,102,9,-117
-200,-92,107,146,-153,7,131,73,117,102,9,-122
-200,-97,102,148,-151,2,131,78,122,107,9,-122
-195,-92,102,143,-148,4,131,82,126,107,19,-112
-195,-92,102,143,-148,4,131,82,122,107,19,-112
-195,-92,102,143,-148,4,126,87,126,117,19,-107
-195,-97,97,146,-146,0,126,92,131,131,24,-107
-195,-97,97,146,-146,0,126,102,136,131,19,-107
-190,-107,82,148,-136,-12,136,117,146,146,24,-97
-180,-97,82,139,-131,-7,136,122,151,151,29,-92
-175,-87,87,131,-131,0,136,131,156,156,43,-87
-170,-87,82,129,-126,-2,136,146,165,170,58,-73
-180,-78,102,129,-141,12,126,156,161,180,63,-68
-180,-68,112,124,-146,21,126,161,165,185,68,-68
-170,-78,92,124,-131,7,126,165,175,190,68,-73
-170,-78,92,124,-131,7,126,175,175,200,68,-73
-165,-68,97,117,-131,14,136,180,195,195,63,-68
-161,-58,102,109,-131,21,136,190,200,204,78,-63
-161,-48,112,104,-136,31,131,200,209,209,82,-58
-156,-39,117,97,-136,39,126,209,209,214,82,-53
-141,-43,97,92,-119,26,136,229,219,229,92,-39
-136,-48,87,92,-112,19,136,248,234,244,97,-34
-131,-43,87,87,-109,21,136,258,239,258,102,-29
-122,-43,78,82,-100,17,136,263,253,273,122,-24
-117,-29,87,73,-102,29,126,283,268,278,126,-14
-112,-24,87,68,-100,31,126,287,283,292,141,-9
-102,-14,87,58,-95,36,126,307,287,302,151,0
-92,-4,87,48,-90,41,122,317,297,312,156,14
-87,9,97,39,-92,53,122,326,297,312,156,9
-87,14,102,36,-95,58,117,341,302,322,156,14
-78,14,92,31,-85,53,117,356,317,336,175,19
-68,19,87,24,-78,53,117,370,326,361,185,19
-63,43,107,9,-85,75,107,366,322,366,190,19
-58,53,112,2,-85,82,107,375,331,370,204,34
-58,43,102,7,-80,73,107,395,346,385,214,48
-53,43,97,4,-75,70,102,409,356,395,224,58
-53,48,102,2,-78,75,112,429,375,409,244,73
-39,43,82,-2,-61,63,117,448,385,419,253,82
-29,34,63,-2,-46,48,122,468,395,434,278,102
-19,24,43,-2,-31,34,126,483,405,453,292,107
0,58,58,-29,-29,58,107,488,405,468,292,107
9,68,58,-39,-24,63,102,492,414,478,302,117
19,82,63,-51,-21,73,92,512,424,483,322,131
29,97,68,-63,-19,82,82,527,434,492,322,141
39,92,53,-65,-7,73,73,541,444,507,331,156
48,82,34,-65,7,58,78,551,453,527,356,175
63,78,14,-70,24,46,82,570,463,541,370,190
82,87,4,-85,39,46,82,570,473,546,375,200
82,97,14,-90,34,56,68,570,473,536,375,195
92,102,9,-97,41,56,63,575,473,551,380,204
97,102,4,-100,46,53,53,585,478,561,385,214
107,112,4,-109,51,58,53,590,478,570,395,224
126,112,-14,-119,70,48,53,610,483,585,405,224
136,102,-34,-119,85,34,48,610,488,590,419,234
151,117,-34,-134,92,41,39,619,497,600,424,239
161,122,-39,-141,100,41,34,634,502,614,429,244
170,126,-43,-148,107,41,39,629,492,614,434,253
180,126,-53,-153,117,36,34,629,492,619,444,263
185,126,-58,-156,122,34,29,634,492,624,448,268
200,126,-73,-163,136,26,19,634,502,639,458,283
195,122,-73,-158,134,24,19,629,502,649,468,297
200,122,-78,-161,139,21,14,639,502,649,478,302
204,112,-92,-158,148,9,14,639,502,663,483,312
209,92,-117,-151,163,-12,14,639,502,663,483,326
219,102,-117,-161,168,-7,0,629,488,653,478,317
229,117,-112,-173,170,2,-9,614,483,649,478,322
229,107,-122,-168,175,-7,-14,600,478,639,478,322
244,107,-136,-175,190,-14,-19,590,473,629,473,322
239,107,-131,-173,185,-12,-14,575,458,619,478,331
244,102,-141,-173,192,-19,-14,561,458,619,497,331
248,102,-146,-175,197,-21,-19,541,453,619,488,331
253,102,-151,-178,202,-24,-24,527,444,614,473,331
248,92,-156,-170,202,-31,-29,502,419,595,468,326
244,87,-156,-165,200,-34,-29,488,414,580,463,322
244,87,-156,-165,200,-34,-34,463,395,561,458,317
239,87,-151,-163,195,-31,-39,429,380,546,448,312
229,87,-141,-158,185,-26,-39,400,351,522,419,302
224,87,-136,-156,180,-24,-39,375,331,502,405,297
209,87,-122,-148,165,-17,-39,346,322,483,400,283
204,87,-117,-146,161,-14,-48,322,297,463,385,278
185,73,-112,-129,148,-19,-48,302,287,429,366,268
165,68,-97,-117,131,-14,-43,268,263,409,356,248
151,48,-102,-100,126,-26,-34,239,244,395,341,239
146,29,-117,-87,131,-43,-29,209,234,370,326,234
146,29,-117,-87,131,-43,-29,185,214,341,302,214
146,29,-117,-87,131,-43,-29,156,200,322,287,204
131,34,-97,-82,114,-31,-29,122,175,297,268,180
117,39,-78,-78,97,-19,-29,102,151,273,244,161
97,9,-87,-53,92,-39,-29,82,146,263,219,141
73,9,-63,-41,68,-26,-29,58,131,239,200,122
43,4,-39,-24,41,-17,-24,39,107,209,185,87
24,-9,-34,-7,29,-21,-19,24,87,190,165,68
24,-19,-43,-2,34,-31,-9,9,92,170,151,68
14,-29,-43,7,29,-36,-4,0,82,161,151,63
-14,-39,-24,26,4,-31,-4,-14,78,146,131,53
-14,-39,-24,26,4,-31,-4,-29,63,131,117,34
-14,-39,-24,26,4,-31,14,-29,48,126,112,39
-24,-43,-19,34,-2,-31,19,-43,34,107,107,24
-29,-43,-14,36,-7,-29,19,-48,34,97,102,9
-34,-48,-14,41,-9,-31,19,-58,34,97,97,-4
-39,-58,-19,48,-9,-39,19,-53,39,92,87,-9
-48,-63,-14,56,-17,-39,24,-68,34,78,78,-19
-53,-63,-9,58,-21,-36,24,-68,24,73,68,-29
-63,-73,-9,68,-26,-41,29,-68,29,73,73,-34
-63,-68,-4,65,-29,-36,19,-68,29,73,63,-24
-78,-68,9,73,-43,-29,19,-82,19,58,48,-29
-92,-78,14,85,-53,-31,19,-82,19,58,48,-39
-92,-92,0,92,-46,-46,24,-82,4,58,53,-48
-92,-87,4,90,-48,-41,24,-82,9,53,63,-43
-97,-87,9,92,-53,-39,34,-82,9,48,58,-39
-107,-82,24,95,-65,-29,34,-92,9,53,53,-43
-112,-82,29,97,-70,-26,39,-102,9,43,43,-48
-102,-78,24,90,-63,-26,29,-87,14,43,48,-48
-97,-78,19,87,-58,-29,29,-97,9,39,43,-43
-107,-73,34,90,-70,-19,34,-92,9,43,48,-48
-112,-73,39,92,-75,-17,43,-87,9,43,53,-43
-107,-82,24,95,-65,-29,43,-87,19,48,43,-43
-112,-82,29,97,-70,-26,43,-87,19,48,43,-43
-107,-82,24,95,-65,-29,43,-92,14,53,43,-48
-107,-87,19,97,-63,-34,43,-92,14,58,48,-53
-107,-87,19,97,-63,-34,29,-87,24,68,53,-58
-112,-82,29,97,-70,-26,29,-87,24,63,53,-58
-122,-82,39,102,-80,-21,34,-82,24,63,53,-53
-122,-92,29,107,-75,-31,34,-82,29,63,58,-58
-107,-78,29,92,-68,-24,34,-87,19,58,53,-68
-97,-63,34,80,-65,-14,34,-87,14,58,58,-63
-92,-53,39,73,-65,-7,34,-87,14,63,58,-58
-92,-39,53,65,-73,7,34,-87,24,63,58,-58
-92,-43,48,68,-70,2,43,-78,34,78,58,-48
-92,-53,39,73,-65,-7,48,-73,34,82,63,-43
-82,-63,19,73,-51,-21,53,-68,34,87,68,-39
-78,-73,4,75,-41,-34,58,-58,34,92,68,-39
-87,-68,19,78,-53,-24,58,-63,24,82,58,-53
-97,-68,29,82,-63,-19,58,-68,24,82,58,-53
-97,-63,34,80,-65,-14,58,-63,24,82,63,-58
-97,-58,39,78,-68,-9,53,-68,24,87,63,-63
-107,-73,34,90,-70,-19,48,-73,29,87,58,-63
-107,-73,34,90,-70,-19,48,-63,29,92,63,-58
-107,-73,34,90,-70,-19,48,-63,29,92,73,-53
-112,-73,39,92,-75,-17,48,-58,34,92,78,-48
-102,-82,19,92,-61,-31,53,-58,34,97,73,-39
-102,-82,19,92,-61,-31,58,-58,39,102,73,-39
-97,-73,24,85,-61,-24,53,-63,39,97,73,-39
-97,-68,29,82,-63,-19,48,-63,39,97,73,-34
-92,-53,39,73,-65,-7,43,-73,29,87,73,-34
-92,-53,39,73,-65,-7,39,-78,24,87,73,-43
-87,-58,29,73,-58,-14,39,-78,24,87,78,-48
-87,-58,29,73,-58,-14,43,-73,24,87,78,-48
-87,-53,34,70,-61,-9,53,-73,34,97,78,-43
-87,-63,24,75,-56,-19,48,-73,34,97,78,-39
-87,-63,24,75,-56,-19,48,-73,34,97,78,-39
-92,-63,29,78,-61,-17,53,-68,34,97,82,-39
-102,-63,39,82,-70,-12,53,-78,24,97,82,-53
-102,-63,39,82,-70,-12,48,-78,19,97,78,-53
-102,-63,39,82,-70,-12,43,-82,19,97,73,-53
-102,-63,39,82,-70,-12,43,-82,19,97,73,-48
-92,-63,29,78,-61,-17,53,-73,29,92,73,-58
-92,-63,29,78,-61,-17,53,-73,29,92,73,-53
-87,-58,29,73,-58,-14,48,-73,29,87,63,-48
-82,-48,34,65,-58,-7,48,-73,29,82,53,-48
-92,-58,34,75,-63,-12,39,-78,19,82,53,-53
-102,-58,43,80,-73,-7,43,-82,19,78,53,-53
-117,-68,48,92,-82,-9,43,-92,19,73,58,-58
-131,-68,63,100,-97,-2,43,-102,19,68,58,-58
-117,-68,48,92,-82,-9,43,-92,9,68,58,-58
-112,-63,48,87,-80,-7,43,-92,9,68,58,-58
-102,-53,48,78,-75,-2,39,-92,4,68,53,-58
-97,-48,48,73,-73,0,39,-92,0,58,48,-63
-92,-58,34,75,-63,-12,48,-97,9,63,58,-63
-97,-58,39,78,-68,-9,39,-97,4,63,58,-63
-102,-58,43,80,-73,-7,48,-97,4,63,53,-63
-107,-58,48,82,-78,-4,58,-97,4,68,48,-63
-107,-48,58,78,-82,4,53,-107,0,58,53,-63
-107,-53,53,80,-80,0,48,-107,-4,58,53,-63
-112,-68,43,90,-78,-12,43,-102,-4,48,53,-58
-117,-68,48,92,-82,-9,39,-102,-4,48,53,-58
-117,-68,48,92,-82,-9,29,-102,-9,39,43,-68
-117,-58,58,87,-87,0,39,-112,-9,34,39,-63
-117,-58,58,87,-87,0,39,-117,-9,34,39,-63
-117,-58,58,87,-87,0,34,-117,-14,34,34,-63
-126,-73,53,100,-90,-9,34,-112,-14,43,43,-63
-126,-82,43,104,-85,-19,39,-107,-14,43,43,-63
-126,-82,43,104,-85,-19,39,-107,-9,43,43,-63
-126,-82,43,104,-85,-19,39,-112,-9,43,43,-68
-122,-68,53,95,-87,-7,43,-117,-9,43,53,-58
-117,-58,58,87,-87,0,43,-122,-14,43,48,-68
-117,-58,58,87,-87,0,39,-122,-14,43,48,-73
-122,-58,63,90,-92,2,39,-117,-14,43,53,-73
-122,-73,48,97,-85,-12,43,-107,-4,53,53,-63
-122,-78,43,100,-82,-17,48,-107,-9,43,48,-63
-122,-78,43,100,-82,-17,53,-107,-9,43,48,-63
-122,-73,48,97,-85,-12,63,-112,-9,43,48,-63
-122,-53,68,87,-95,7,58,-117,-19,34,39,-73
-117,-48,68,82,-92,9,53,-117,-19,34,39,-78
-117,-48,68,82,-92,9,48,-112,-14,34,39,-82
-117,-48,68,82,-92,9,43,-112,-14,39,39,-87
-122,-58,63,90,-92,2,48,-122,-24,29,34,-73
-117,-63,53,90,-85,-4,43,-117,-19,29,43,-73
-122,-68,53,95,-87,-7,43,-117,-19,34,48,-73
-122,-73,48,97,-85,-12,53,-112,-4,39,58,-63
-126,-82,43,104,-85,-19,53,-117,-14,39,53,-63
-126,-68,58,97,-92,-4,43,-117,-14,34,48,-68
-117,-58,58,87,-87,0,43,-117,-14,34,43,-68
-107,-43,63,75,-85,9,39,-112,-4,29,39,-58
-117,-43,73,80,-95,14,39,-122,-9,24,39,-68
-122,-48,73,85,-97,12,39,-126,-14,19,39,-68
-131,-58,73,95,-102,7,39,-126,-14,19,39,-73
-141,-53,87,97,-114,17,39,-126,-9,19,39,-78
-136,-58,78,97,-107,9,43,-117,-9,19,39,-73
-131,-63,68,97,-100,2,43,-117,-9,19,39,-73
-131,-73,58,102,-95,-7,43,-112,-9,19,43,-73
-122,-78,43,100,-82,-17,43,-112,-9,19,43,-68
-126,-73,53,100,-90,-9,43,-126,-9,24,43,-68
-126,-73,53,100,-90,-9,34,-131,-9,24,43,-63
-126,-82,43,104,-85,-19,34,-126,-9,24,43,-63
-126,-82,43,104,-85,-19,34,-122,-9,29,48,-63
-131,-73,58,102,-95,-7,39,-112,-19,19,39,-73
-126,-68,58,97,-92,-4,39,-117,-19,19,39,-73
-126,-53,73,90,-100,9,34,-126,-24,9,39,-73
-131,-53,78,92,-104,12,29,-136,-24,0,39,-68
-122,-48,73,85,-97,12,39,-131,-19,-4,39,-78
-117,-48,68,82,-92,9,39,-131,-29,0,39,-78
-112,-48,63,80,-87,7,29,-141,-34,4,29,-78
-112,-63,48,87,-80,-7,29,-136,-48,9,29,-78
-117,-82,34,100,-75,-24,29,-131,-43,19,39,-73
-122,-58,63,90,-92,2,34,-126,-34,14,39,-78
-122,-73,48,97,-85,-12,39,-122,-24,9,39,-78
-117,-87,29,102,-73,-29,43,-126,-14,4,39,-78
-122,-58,63,90,-92,2,24,-136,-29,0,29,-87
-131,-43,87,87,-109,21,19,-136,-29,0,29,-92
-136,-48,87,92,-112,19,29,-131,-29,0,29,-82
-141,-53,87,97,-114,17,34,-131,-29,4,34,-82
-141,-53,87,97,-114,17,34,-122,-29,9,43,-73
-136,-63,73,100,-104,4,39,-117,-29,14,43,-73
-136,-68,68,102,-102,0,43,-117,-24,19,43,-73
-141,-73,68,107,-104,-2,48,-117,-19,14,39,-78
-136,-73,63,104,-100,-4,48,-126,-19,14,39,-82
-136,-73,63,104,-100,-4,43,-126,-29,4,24,-92
-146,-78,68,112,-107,-4,48,-126,-29,4,24,-92
-156,-73,82,114,-119,4,53,-112,-24,9,24,-87
-156,-73,82,114,-119,4,43,-117,-24,24,24,-82
-151,-63,87,107,-119,12,48,-122,-24,24,29,-78
-146,-63,82,104,-114,9,53,-117,-19,24,39,-73
-136,-73,63,104,-100,-4,53,-112,-19,24,43,-78
-126,-53,73,90,-100,9,39,-126,-24,29,34,-73
-131,-58,73,95,-102,7,34,-131,-24,24,29,-82
-141,-78,63,109,-102,-7,43,-126,-24,24,24,-92
-156,-82,73,119,-114,-4,43,-122,-24,24,19,-92
-165,-78,87,122,-126,4,43,-122,-29,24,24,-82
-161,-73,87,117,-124,7,39,-131,-29,14,19,-87
-156,-68,87,112,-122,9,34,-146,-29,4,14,-92
-146,-58,87,102,-117,14,34,-146,-34,0,14,-92
-131,-58,73,95,-102,7,39,-141,-34,4,24,-82
-136,-68,68,102,-102,0,39,-126,-29,9,24,-78
-146,-68,78,107,-112,4,34,-131,-29,14,24,-78
-151,-68,82,109,-117,7,34,-131,-24,19,19,-78
-136,-29,107,82,-122,39,29,-146,-39,9,9,-87
-136,-39,97,87,-117,29,29,-146,-29,19,19,-82
-126,-39,87,82,-107,24,29,-141,-29,29,29,-87
-126,-19,107,73,-117,43,29,-136,-29,29,29,-87
-131,-34,97,82,-114,31,39,-136,-29,29,29,-87
-136,-48,87,92,-112,19,39,-136,-29,29,29,-87
-141,-63,78,102,-109,7,39,-136,-29,29,29,-87
-146,-78,68,112,-107,-4,39,-136,-29,29,29,-87
-141,-63,78,102,-109,7,39,-126,-19,29,29,-87
-136,-58,78,97,-107,9,39,-126,-19,29,29,-87
-131,-53,78,92,-104,12,39,-126,-19,29,29,-87
-126,-48,78,87,-102,14,39,-126,-19,29,29,-87
-131,-53,78,92,-104,12,29,-136,-19,24,19,-87
-136,-58,78,97,-107,9,29,-136,-19,19,19,-87
-141,-63,78,102,-109,7,29,-136,-19,14,19,-87
-146,-68,78,107,-112,4,29,-136,-19,9,19,-87
-131,-58,73,95,-102,7,29,-126,-29,14,24,-78
-126,-48,78,87,-102,14,29,-126,-29,19,29,-78
-122,-39,82,80,-102,21,29,-126,-29,24,34,-78
-117,-29,87,73,-102,29,29,-126,-29,29,39,-78
-107,-24,82,65,-95,29,19,-117,-14,39,48,-73
-107,-19,87,63,-97,34,19,-117,-9,39,48,-68
-107,-14,92,61,-100,39,19,-117,-4,39,48,-63
-107,-9,97,58,-102,43,19,-117,0,39,48,-58
-92,-4,87,48,-90,41,9,-112,14,53,68,-43
-87,0,87,43,-87,43,9,-107,19,58,78,-39
-87,24,112,31,-100,68,4,-107,24,63,87,-34
-87,29,117,29,-102,73,4,-112,34,68,97,-24
-102,48,151,26,-126,100,4,-122,34,68,97,-24
-102,48,151,26,-126,100,4,-117,43,68,97,-24
-97,34,131,31,-114,82,4,-107,48,68,102,-24
-92,34,126,29,-109,80,4,-107,48,73,102,-24
-82,53,136,14,-109,95,9,-97,48,73,102,-14
-78,73,151,2,-114,112,0,-107,48,73,102,-14
-73,92,165,-9,-119,129,-9,-107,48,78,102,-14
-58,87,146,-14,-102,117,-9,-97,53,78,102,-9
-58,82,141,-12,-100,112,-9,-92,58,82,122,-4
-63,82,146,-9,-104,114,-9,-97,63,87,122,0
-63,92,156,-14,-109,124,-14,-112,58,92,122,0
-53,102,156,-24,-104,129,-19,-117,58,92,122,0
-43,107,151,-31,-97,129,-34,-126,58,87,112,0
-43,102,146,-29,-95,124,-39,-131,58,82,112,0
-43,107,151,-31,-97,129,-53,-136,48,78,112,0
-39,131,170,-46,-104,151,-58,-156,34,73,112,0
-39,122,161,-41,-100,141,-68,-156,24,58,117,-4
-39,112,151,-36,-95,131,-68,-161,24,53,107,-4
-39,97,136,-29,-87,117,-68,-161,19,48,107,-4
-34,87,122,-26,-78,104,-68,-156,19,48,117,-4
-39,112,151,-36,-95,131,-87,-170,4,39,112,-14
-29,117,146,-43,-87,131,-92,-180,-4,34,102,-14
-14,122,136,-53,-75,129,-92,-195,-14,24,97,-9
-14,126,141,-56,-78,134,-92,-204,-24,19,97,-4
-4,126,131,-61,-68,129,-92,-195,-14,29,102,4
-4,112,117,-53,-61,114,-92,-190,-24,29,102,0
0,112,112,-56,-56,112,-87,-190,-24,24,107,-4
-4,97,102,-46,-53,100,-78,-180,-24,19,112,-4
-9,97,107,-43,-58,102,-82,-180,-24,14,107,-14
-14,97,112,-41,-63,104,-73,-185,-34,9,102,-19
-14,97,112,-41,-63,104,-68,-190,-39,14,97,-19
-24,92,117,-34,-70,104,-58,-185,-48,9,92,-19
-24,82,107,-29,-65,95,-58,-175,-34,14,102,-4
-24,73,97,-24,-61,85,-53,-170,-29,24,97,-4
-39,68,107,-14,-73,87,-34,-161,-24,29,97,-14
-63,48,112,7,-87,80,-14,-151,-24,24,82,-19
-78,19,97,29,-87,58,0,-141,-14,24,78,-29
-87,9,97,39,-92,53,4,-131,-19,14,73,-34
-92,-4,87,48,-90,41,14,-126,-24,9,68,-39
-82,-9,73,46,-78,31,14,-122,-24,9,68,-39
-97,-39,58,68,-78,9,19,-117,-34,0,63,-53
-112,-43,68,78,-90,12,24,-117,-43,-9,53,-58
-131,-43,87,87,-109,21,34,-117,-48,-19,43,-68
-136,-48,87,92,-112,19,39,-117,-48,-24,39,-78
-151,-63,87,107,-119,12,34,-126,-58,-34,39,-82
-156,-63,92,109,-124,14,34,-126,-58,-29,39,-87
-161,-68,92,114,-126,12,34,-126,-58,-29,34,-92
-165,-73,92,119,-129,9,34,-126,-63,-39,29,-102
-151,-73,78,112,-114,2,39,-117,-58,-39,39,-97
-146,-73,73,109,-109,0,43,-117,-53,-34,39,-97
-146,-78,68,112,-107,-4,53,-117,-48,-29,39,-97
-141,-78,63,109,-102,-7,58,-117,-43,-24,39,-97
-146,-78,68,112,-107,-4,58,-126,-53,-29,29,-102
-151,-78,73,114,-112,-2,58,-126,-53,-34,24,-102
-156,-78,78,117,-117,0,58,-126,-58,-39,19,-102
-156,-78,78,117,-117,0,58,-126,-58,-43,14,-102
-146,-78,68,112,-107,-4,48,-126,-48,-43,24,-107
-146,-78,68,112,-107,-4,53,-126,-48,-43,24,-107
-146,-78,68,112,-107,-4,53,-126,-48,-43,24,-107
-146,-68,78,107,-112,4,53,-126,-48,-43,19,-107
-146,-92,53,119,-100,-19,63,-122,-48,-43,19,-102
-146,-97,48,122,-97,-24,63,-117,-48,-43,24,-102
-146,-102,43,124,-95,-29,58,-112,-48,-43,24,-102
-146,-117,29,131,-87,-43,58,-102,-48,-43,24,-102
-156,-102,53,129,-104,-24,58,-112,-48,-53,14,-112
-156,-92,63,124,-109,-14,63,-107,-48,-53,14,-112
-156,-82,73,119,-114,-4,63,-107,-48,-53,9,-117
-165,-78,87,122,-126,4,63,-112,-48,-58,9,-122
-175,-107,68,141,-122,-19,63,-107,-39,-48,19,-112
-200,-126,73,163,-136,-26,82,-112,-24,-39,29,-112
-224,-107,117,165,-170,4,92,-112,-14,-53,9,-117
-253,-78,175,165,-214,48,112,-122,4,-48,0,-126
-297,-68,229,183,-263,80,146,-117,39,-24,0,-136
-366,-58,307,212,-336,124,200,-87,107,-4,4,-156
-463,-39,424,251,-444,192,263,-53,185,9,-4,-200
-570,0,570,285,-570,285,326,-4,297,39,-19,-229
-629,19,649,305,-639,334,395,78,419,107,-4,-234
-688,0,688,344,-688,344,473,146,507,146,4,-244
-761,4,766,378,-763,385,522,165,551,156,14,-253
-780,73,854,353,-817,463,522,141,551,170,29,-244
-732,136,868,297,-800,502,483,97,502,195,82,-200
-644,161,805,241,-724,483,419,63,473,278,209,-102
-517,209,727,153,-622,468,326,19,483,419,380,34
-331,283,614,24,-473,448,185,-34,478,585,570,204
-63,326,390,-131,-226,358,-9,-73,419,751,795,424
263,385,122,-324,70,253,-234,-107,336,932,1054,658
585,497,-87,-541,336,204,-463,-122,336,1195,1342,917
858,614,-244,-736,551,185,-649,-136,390,1459,1615,1180
1058,688,-370,-873,714,158,-771,-200,380,1556,1732,1342
1215,702,-512,-958,863,95,-883,-307,229,1410,1659,1371
1346,653,-692,-1000,1019,-19,-995,-463,-58,1063,1424,1283
1424,556,-868,-990,1146,-156,-1083,-702,-444,551,1054,1102
1410,414,-995,-912,1202,-290,-1141,-1024,-897,-78,605,839
1302,292,-1010,-797,1156,-358,-1132,-1366,-1342,-692,165,556
1200,204,-995,-702,1098,-395,-1078,-1586,-1620,-1122,-175,322
1151,146,-1005,-649,1078,-429,-1034,-1659,-1737,-1337,-395,146
1122,78,-1044,-600,1083,-483,-1000,-1654,-1771,-1444,-531,9
1107,-24,-1132,-541,1119,-578,-951,-1561,-1747,-1449,-600,-68
1068,-146,-1215,-461,1141,-680,-873,-1395,-1678,-1410,-639,-165
1010,-258,-1268,-375,1139,-763,-761,-1210,-1586,-1371,-697,-283
941,-351,-1293,-295,1117,-822,-653,-1054,-1468,-1293,-722,-356
873,-390,-1263,-241,1068,-827,-580,-927,-1327,-1185,-678,-361
766,-390,-1156,-187,961,-773,-502,-839,-1166,-1058,-624,-361
649,-375,-1024,-136,836,-700,-414,-741,-1000,-927,-561,-356
546,-356,-902,-95,724,-629,-336,-649,-849,-810,-497,-336
458,-292,-751,-82,605,-522,-278,-575,-727,-702,-439,-322
366,-204,-570,-80,468,-387,-229,-527,-619,-600,-361,-292
283,-180,-463,-51,373,-322,-175,-463,-517,-502,-307,-278
195,-190,-385,-2,290,-287,-136,-400,-444,-448,-283,-278
122,-209,-331,43,226,-270,-97,-351,-395,-409,-263,-278
58,-214,-273,78,165,-244,-53,-302,-331,-356,-224,-263
0,-200,-200,100,100,-200,-19,-258,-278,-307,-195,-248
-53,-165,-112,109,29,-139,9,-219,-224,-268,-165,-239
-107,-165,-58,136,-24,-112,48,-175,-165,-214,-126,-219
-151,-156,-4,153,-73,-80,73,-141,-107,-165,-92,-200
-170,-141,29,156,-100,-56,92,-112,-73,-126,-68,-195
-195,-131,63,163,-129,-34,122,-78,-43,-92,-39,-175
-200,-112,87,156,-143,-12,126,-78,-29,-78,-24,-165
-195,-122,73,158,-134,-24,126,-78,-29,-73,-29,-170
-200,-122,78,161,-139,-21,131,-68,-14,-73,-19,-170
-200,-122,78,161,-139,-21,136,-63,-14,-73,-9,-170
-214,-117,97,165,-156,-9,136,-63,-14,-73,-19,-170
-224,-102,122,163,-173,9,131,-73,-24,-78,-29,-180
-229,-97,131,163,-180,17,136,-73,-14,-78,-34,-185
-234,-97,136,165,-185,19,131,-68,-9,-82,-34,-185
-239,-92,146,165,-192,26,126,-68,-4,-87,-34,-175
-244,-107,136,175,-190,14,131,-48,9,-68,-24,-165
-244,-112,131,178,-187,9,136,-48,9,-63,-19,-175
-244,-112,131,178,-187,9,141,-48,14,-63,-19,-180
-244,-117,126,180,-185,4,146,-48,14,-63,-19,-180
-253,-107,146,180,-200,19,141,-43,19,-73,-29,-180
-253,-107,146,180,-200,19,141,-43,19,-73,-29,-180
-258,-97,161,178,-209,31,141,-43,19,-68,-24,-185
-258,-107,151,183,-204,21,141,-43,19,-63,-24,-185
-248,-97,151,173,-200,26,141,-39,19,-73,-34,-190
-248,-97,151,173,-200,26,141,-39,24,-63,-29,-190
-248,-97,151,173,-200,26,141,-34,24,-63,-24,-190
-248,-97,151,173,-200,26,141,-34,24,-63,-19,-195
-248,-107,141,178,-195,17,151,-24,34,-53,-9,-190
-248,-102,146,175,-197,21,151,-14,43,-48,-14,-190
-248,-112,136,180,-192,12,156,-14,43,-43,-14,-180
-248,-126,122,187,-185,-2,156,-14,43,-39,-14,-180
-258,-117,141,187,-200,12,146,-14,34,-48,-24,-180
-263,-107,156,185,-209,24,146,-19,39,-43,-19,-180
-263,-97,165,180,-214,34,146,-24,39,-39,-14,-175
-263,-73,190,168,-226,58,146,-24,39,-29,-14,-175
-253,-73,180,163,-217,53,136,-19,48,-14,-4,-175
-253,-73,180,163,-217,53,136,-14,53,-9,-4,-175
-248,-68,180,158,-214,56,136,-9,58,-9,-4,-175
-244,-68,175,156,-209,53,136,-4,63,-4,0,-170
-253,-78,175,165,-214,48,146,9,68,9,4,-165
-253,-87,165,170,-209,39,146,14,68,14,4,-161
-253,-78,175,165,-214,48,141,19,73,24,4,-156
-248,-78,170,163,-209,46,141,24,78,34,4,-156
-244,-58,185,151,-214,63,141,19,82,34,9,-156
-239,-63,175,151,-207,56,141,24,87,34,9,-161
-234,-68,165,151,-200,48,141,29,92,39,9,-161
-224,-63,161,143,-192,48,141,34,97,39,19,-151
-224,-68,156,146,-190,43,146,53,102,48,24,-141
-224,-73,151,148,-187,39,146,58,107,58,29,-136
-224,-82,141,153,-183,29,151,63,112,73,39,-136
-224,-87,136,156,-180,24,156,73,117,73,39,-136
-229,-82,146,156,-187,31,146,68,117,73,39,-146
-219,-68,151,143,-185,41,146,73,122,73,39,-141
-214,-53,161,134,-187,53,146,82,126,73,48,-136
-209,-48,161,129,-185,56,146,97,136,82,58,-122
-204,-43,161,124,-183,58,136,107,131,92,68,-122
-200,-29,170,114,-185,70,136,112,136,97,78,-117
-185,-34,151,109,-168,58,136,117,146,102,82,-117
-180,-29,151,104,-165,61,136,126,146,112,87,-112
-180,-34,146,107,-163,56,126,131,146,117,82,-117
-180,-29,151,104,-165,61,126,141,151,126,97,-112
-185,-24,161,104,-173,68,122,151,161,131,102,-107
-185,-19,165,102,-175,73,117,161,161,136,102,-102
-170,-19,151,95,-161,65,126,180,180,156,112,-92
-165,-19,146,92,-156,63,126,200,195,165,117,-82
-161,-9,151,85,-156,70,126,209,200,175,122,-73
-151,-4,146,78,-148,70,126,214,214,185,141,-63
-146,0,146,73,-146,73,126,224,219,190,146,-43
-141,4,146,68,-143,75,126,229,234,204,161,-39
-131,14,146,58,-139,80,126,248,239,214,170,-29
-122,24,146,48,-134,85,122,258,248,224,175,-14
-107,24,131,41,-119,78,122,278,258,224,195,-4
-107,24,131,41,-119,78,117,292,263,234,195,4
-97,19,117,39,-107,68,117,307,278,248,214,14
-87,19,107,34,-97,63,117,322,287,273,224,19
-68,53,122,7,-95,87,117,326,292,273,229,19
-58,63,122,-2,-90,92,117,336,302,283,244,34
-53,53,107,0,-80,80,117,356,317,302,253,48
-43,53,97,-4,-70,75,112,370,326,317,263,58
-34,78,112,-21,-73,95,107,395,336,331,273,63
-19,82,102,-31,-61,92,107,409,346,341,283,73
-9,82,92,-36,-51,87,107,424,356,356,307,92
0,82,82,-41,-41,82,107,434,366,375,322,97
0,102,102,-51,-51,102,97,448,366,385,341,107
9,107,97,-58,-43,102,92,453,375,400,351,117
19,117,97,-68,-39,107,82,473,385,409,370,131
29,126,97,-78,-34,112,73,488,395,424,370,141
48,126,78,-87,-14,102,58,502,400,448,390,151
58,122,63,-90,-2,92,58,512,414,468,414,175
73,122,48,-97,12,85,58,531,429,483,429,195
92,136,43,-114,24,90,53,531,444,488,434,209
112,170,58,-141,26,114,39,546,448,502,453,219
122,180,58,-151,31,119,34,556,453,522,458,234
126,185,58,-156,34,122,24,570,463,536,463,248
136,200,63,-168,36,131,24,580,468,551,473,263
156,200,43,-178,56,122,24,600,478,575,497,278
165,190,24,-178,70,107,19,600,488,580,517,292
180,204,24,-192,78,114,9,610,502,590,527,302
190,209,19,-200,85,114,4,624,512,605,536,312
200,214,14,-207,92,114,0,624,512,619,546,331
209,214,4,-212,102,109,-4,629,512,629,561,341
214,214,0,-214,107,107,-9,639,512,639,570,346
229,214,-14,-222,122,100,-19,644,522,658,585,361
248,219,-29,-234,139,95,-29,653,531,678,600,375
258,229,-29,-244,143,100,-34,668,531,678,614,380
268,229,-39,-248,153,95,-34,673,531,692,624,390
278,219,-58,-248,168,80,-34,678,531,692,629,405
287,234,-53,-261,170,90,-48,688,527,697,634,419
297,253,-43,-275,170,104,-58,683,531,707,644,429
297,248,-48,-273,173,100,-63,678,536,712,653,434
312,253,-58,-283,185,97,-68,678,541,717,658,439
322,263,-58,-292,190,102,-63,692,541,722,673,458
331,258,-73,-295,202,92,-63,688,546,727,692,458
341,258,-82,-300,212,87,-68,678,546,732,683,458
351,258,-92,-305,222,82,-73,673,541,732,668,458
356,268,-87,-312,222,90,-78,678,541,732,683,463
361,263,-97,-312,229,82,-78,673,541,727,688,468
370,263,-107,-317,239,78,-82,658,527,717,692,473
375,263,-112,-319,244,75,-87,634,517,712,692,478
390,263,-126,-326,258,68,-87,629,517,717,683,478
390,263,-126,-326,258,68,-87,619,507,707,678,483
380,263,-117,-322,248,73,-87,605,507,697,683,478
380,263,-117,-322,248,73,-97,595,492,688,678,483
375,253,-122,-314,248,65,-102,585,478,668,668,483
361,253,-107,-307,234,73,-102,561,458,653,658,463
351,239,-112,-295,231,63,-97,541,444,644,644,453
351,224,-126,-287,239,48,-97,522,439,624,629,448
351,234,-117,-292,234,58,-107,507,429,605,619,444
351,234,-117,-292,234,58,-107,478,414,585,610,439
336,239,-97,-287,217,70,-107,444,390,561,595,419
322,244,-78,-283,200,82,-107,424,366,536,575,405
312,219,-92,-265,202,63,-107,409,361,517,561,405
297,214,-82,-256,190,65,-107,380,346,492,541,385
278,204,-73,-241,175,65,-102,356,322,463,527,351
268,185,-82,-226,175,51,-97,336,302,444,507,331
263,185,-78,-224,170,53,-87,302,283,409,483,317
248,175,-73,-212,161,51,-82,283,268,395,473,307
214,165,-48,-190,131,58,-82,258,258,375,444,292
209,165,-43,-187,126,61,-82,234,239,356,419,268
185,151,-34,-168,109,58,-73,214,209,326,400,258
170,141,-29,-156,100,56,-68,190,190,292,380,239
161,136,-24,-148,92,56,-68,175,185,268,361,219
151,126,-24,-139,87,51,-68,156,180,253,341,200
131,117,-14,-124,73,51,-48,131,165,229,312,185
117,102,-14,-109,65,43,-43,107,151,204,292,165
107,92,-14,-100,61,39,-43,97,131,190,273,146
92,73,-19,-82,56,26,-39,87,126,180,268,131
78,78,0,-78,39,39,-29,58,102,156,248,112
58,78,19,-68,19,48,-29,34,87,126,224,97
39,68,29,-53,4,48,-29,24,82,112,214,78
34,53,19,-43,7,36,-24,14,63,97,209,58
24,53,29,-39,-2,41,-24,0,48,73,200,53
19,48,29,-34,-4,39,-14,-4,39,58,185,48
9,48,39,-29,-14,43,-14,-19,29,53,170,34
4,43,39,-24,-17,41,-9,-34,19,34,151,19
-9,29,39,-9,-24,34,0,-34,14,29,131,4
-9,19,29,-4,-19,24,0,-48,9,19,122,4
-24,14,39,4,-31,26,4,-48,9,19,122,-4
-34,4,39,14,-36,21,14,-48,9,14,122,-4
-34,-4,29,19,-31,12,14,-48,0,9,107,-9
-43,-4,39,24,-41,17,14,-48,0,0,102,-14
-43,-4,39,24,-41,17,14,-53,-4,-4,97,-24
-48,-9,39,29,-43,14,14,-53,-4,-9,97,-34
-58,-4,53,31,-56,24,9,-63,-19,-24,82,-53
-63,4,68,29,-65,36,9,-68,-24,-34,73,-58
-73,9,82,31,-78,46,14,-68,-29,-39,63,-58
-73,4,78,34,-75,41,14,-73,-29,-43,58,-68
-82,0,82,41,-82,41,14,-87,-39,-48,53,-68
-78,-4,73,41,-75,34,14,-87,-43,-48,58,-63
-78,-14,63,46,-70,24,14,-87,-43,-43,58,-58
-82,-19,63,51,-73,21,14,-87,-34,-43,58,-58
-87,-19,68,53,-78,24,19,-82,-34,-53,63,-63
-92,-24,68,58,-80,21,19,-82,-34,-53,63,-63
-87,-29,58,58,-73,14,19,-82,-34,-53,63,-63
-87,-34,53,61,-70,9,19,-78,-34,-53,58,-68
-78,-29,48,53,-63,9,24,-78,-34,-43,58,-73
-87,-29,58,58,-73,14,29,-78,-34,-43,58,-73
-87,-24,63,56,-75,19,34,-68,-34,-43,63,-78
-87,-19,68,53,-78,24,34,-68,-34,-39,63,-82
-87,-19,68,53,-78,24,19,-73,-39,-53,53,-87
-87,-14,73,51,-80,29,19,-73,-39,-53,53,-87
-87,-9,78,48,-82,34,19,-82,-39,-58,58,-87
-92,-4,87,48,-90,41,19,-87,-34,-63,58,-87
-102,-9,92,56,-97,41,19,-82,-34,-63,53,-78
-102,-14,87,58,-95,36,29,-78,-29,-53,53,-78
-97,-9,87,53,-92,39,29,-78,-29,-53,53,-78
-97,-9,87,53,-92,39,29,-73,-29,-48,53,-73
-92,-14,78,53,-85,31,24,-73,-29,-58,53,-73
-92,-14,78,53,-85,31,19,-78,-34,-58,53,-82
-87,-19,68,53,-78,24,19,-78,-34,-58,58,-87
-87,-19,68,53,-78,24,24,-73,-34,-58,58,-87
-87,-19,68,53,-78,24,24,-73,-24,-68,58,-82
-87,-24,63,56,-75,19,19,-73,-24,-68,58,-78
-87,-19,68,53,-78,24,19,-73,-24,-68,58,-78
-92,-14,78,53,-85,31,24,-68,-24,-68,63,-78
-87,-24,63,56,-75,19,29,-63,-19,-58,68,-78
-82,-24,58,53,-70,17,29,-58,-19,-58,68,-73
-78,-24,53,51,-65,14,29,-58,-14,-58,68,-68
-73,-24,48,48,-61,12,34,-53,-9,-58,73,-58
-82,-19,63,51,-73,21,34,-53,-19,-63,73,-68
-82,-14,68,48,-75,26,34,-53,-19,-63,73,-63
-78,-4,73,41,-75,34,29,-53,-19,-68,63,-58
-73,9,82,31,-78,46,29,-53,-19,-73,53,-58
-73,0,73,36,-73,36,19,-43,-19,-68,63,-58
-73,0,73,36,-73,36,24,-43,-19,-68,63,-53
-78,-9,68,43,-73,29,24,-48,-19,-68,68,-53
-82,-9,73,46,-78,31,24,-53,-19,-68,68,-48
-92,-19,73,56,-82,26,24,-43,-9,-58,78,-58
-92,-24,68,58,-80,21,24,-43,-9,-58,78,-58
-87,-24,63,56,-75,19,19,-43,-14,-58,73,-58
-87,-29,58,58,-73,14,19,-43,-19,-68,68,-63
-78,-29,48,53,-63,9,19,-48,-9,-63,68,-53
-78,-29,48,53,-63,9,9,-48,-14,-63,68,-53
-78,-29,48,53,-63,9,19,-48,-14,-63,63,-53
-78,-29,48,53,-63,9,29,-48,-14,-58,58,-53
-87,-14,73,51,-80,29,24,-58,-19,-68,53,-63
-87,-14,73,51,-80,29,19,-58,-24,-68,53,-63
-92,-24,68,58,-80,21,14,-53,-24,-78,53,-58
-97,-19,78,58,-87,29,9,-53,-24,-78,53,-58
-92,-9,82,51,-87,36,19,-53,-29,-68,63,-58
-87,0,87,43,-87,43,29,-63,-29,-73,58,-53
-82,0,82,41,-82,41,29,-68,-29,-73,58,-53
-78,0,78,39,-78,39,24,-68,-34,-73,53,-53
-87,-19,68,53,-78,24,24,-63,-34,-82,53,-53
-87,-34,53,61,-70,9,29,-58,-34,-82,53,-53
-87,-39,48,63,-68,4,29,-58,-29,-82,53,-53
-87,-43,43,65,-65,0,29,-63,-29,-82,53,-58
-92,-29,63,61,-78,17,24,-78,-39,-82,43,-58
-87,-19,68,53,-78,24,24,-82,-43,-82,39,-68
-87,-19,68,53,-78,24,19,-82,-43,-82,39,-73
-92,-19,73,56,-82,26,19,-78,-43,-82,43,-73
-82,-34,48,58,-65,7,29,-68,-43,-82,43,-73
-82,-39,43,61,-63,2,29,-68,-48,-92,39,-73
-82,-39,43,61,-63,2,29,-68,-48,-92,39,-73
-82,-34,48,58,-65,7,34,-73,-48,-92,39,-73
-87,-9,78,48,-82,34,29,-82,-53,-107,34,-82
-87,0,87,43,-87,43,24,-87,-58,-112,29,-87
-92,4,97,43,-95,51,19,-87,-58,-117,24,-92
-97,9,107,43,-102,58,14,-92,-63,-117,19,-97
-87,-4,82,46,-85,39,19,-82,-53,-112,24,-87
-78,-4,73,41,-75,34,14,-78,-48,-107,34,-82
-78,-4,73,41,-75,34,14,-78,-48,-97,39,-78
-73,-4,68,39,-70,31,24,-73,-34,-87,48,-63
-68,4,73,31,-70,39,14,-73,-34,-82,48,-58
-48,29,78,9,-63,53,-4,-68,-34,-82,58,-58
-29,39,68,-4,-48,53,-14,-63,-24,-68,58,-53
-19,43,63,-12,-41,53,-9,-63,-14,-58,68,-39
-29,48,78,-9,-53,63,-9,-58,-9,-58,78,-29
-39,53,92,-7,-65,73,0,-68,0,-48,87,-29
-39,58,97,-9,-68,78,0,-68,0,-48,87,-29
-39,63,102,-12,-70,82,0,-68,0,-48,87,-29
-39,68,107,-14,-73,87,0,-68,0,-48,87,-29
-34,87,122,-26,-78,104,-14,-63,-9,-58,78,-39
-39,87,126,-24,-82,107,-14,-73,-4,-58,78,-34
-43,97,141,-26,-92,119,-14,-73,-4,-58,78,-34
-43,97,141,-26,-92,119,-14,-68,4,-58,78,-34
-29,87,117,-29,-73,102,-24,-68,9,-48,82,-34
-24,92,117,-34,-70,104,-24,-68,9,-43,82,-34
-19,107,126,-43,-73,117,-29,-68,9,-43,82,-34
-19,122,141,-51,-80,131,-39,-78,9,-43,82,-34
-9,141,151,-65,-80,146,-48,-82,9,-48,92,-24
0,126,126,-63,-63,126,-48,-78,14,-48,92,-19
4,126,122,-65,-58,124,-53,-82,14,-48,102,-14
4,131,126,-68,-61,129,-58,-97,14,-48,102,-9
4,136,131,-70,-63,134,-68,-117,-9,-58,97,-19
14,141,126,-78,-56,134,-78,-126,-19,-73,92,-19
9,122,112,-65,-51,117,-87,-136,-34,-87,78,-19
4,102,97,-53,-46,100,-87,-141,-39,-102,73,-19
-4,112,117,-53,-61,114,-97,-146,-48,-117,63,-29
0,131,131,-65,-65,131,-97,-165,-63,-122,63,-29
0,131,131,-65,-65,131,-107,-175,-73,-136,58,-34
0,131,131,-65,-65,131,-107,-180,-73,-141,48,-34
9,117,107,-63,-48,112,-107,-170,-68,-141,58,-29
14,117,102,-65,-43,109,-107,-165,-68,-136,68,-24
19,136,117,-78,-48,126,-117,-161,-68,-126,68,-19
29,136,107,-82,-39,122,-122,-161,-73,-122,63,-14
43,136,92,-90,-24,114,-122,-175,-87,-136,53,-14
43,136,92,-90,-24,114,-122,-175,-92,-136,58,-14
39,131,92,-85,-26,112,-117,-175,-92,-136,58,-19
34,112,78,-73,-21,95,-112,-170,-102,-136,53,-29
19,102,82,-61,-31,92,-92,-180,-92,-151,43,-34
4,78,73,-41,-34,75,-78,-170,-92,-156,43,-34
-4,73,78,-34,-41,75,-73,-161,-82,-156,43,-34
-14,68,82,-26,-48,75,-63,-156,-82,-156,43,-39
-9,73,82,-31,-46,78,-48,-141,-87,-136,53,-39
-14,73,87,-29,-51,80,-39,-126,-87,-136,53,-39
-9,58,68,-24,-39,63,-39,-117,-87,-136,53,-39
-4,43,48,-19,-26,46,-34,-112,-87,-131,48,-43
-29,14,43,7,-36,29,-4,-102,-97,-136,43,-68
-53,-19,34,36,-43,7,14,-92,-102,-151,24,-78
-78,-39,39,58,-58,0,29,-92,-102,-165,9,-92
-97,-48,48,73,-73,0,34,-92,-107,-180,-4,-102
-102,-48,53,75,-78,2,34,-107,-112,-185,-14,-112
-102,-39,63,70,-82,12,34,-112,-112,-185,-19,-117
-102,-48,53,75,-78,2,34,-112,-112,-190,-19,-117
-112,-43,68,78,-90,12,34,-117,-122,-195,-24,-117
-126,-48,78,87,-102,14,29,-131,-117,-200,-39,-122
-126,-58,68,92,-97,4,29,-136,-117,-200,-39,-126
-126,-68,58,97,-92,-4,34,-136,-117,-200,-39,-126
-126,-73,53,100,-90,-9,34,-136,-117,-195,-39,-126
-136,-87,48,112,-92,-19,34,-136,-117,-195,-43,-136
-136,-92,43,114,-90,-24,34,-136,-122,-204,-48,-141
-136,-92,43,114,-90,-24,34,-136,-122,-209,-48,-146
-136,-92,43,114,-90,-24,34,-136,-122,-209,-48,-146
-131,-82,48,107,-90,-17,39,-126,-122,-209,-48,-136
-131,-78,53,104,-92,-12,39,-126,-122,-209,-48,-136
-131,-73,58,102,-95,-7,39,-126,-122,-209,-53,-141
-131,-68,63,100,-97,-2,39,-126,-122,-209,-53,-141
-131,-82,48,107,-90,-17,48,-117,-126,-200,-43,-131
-126,-87,39,107,-82,-24,48,-117,-126,-200,-43,-131
-126,-92,34,109,-80,-29,48,-117,-126,-200,-43,-136
-126,-97,29,112,-78,-34,53,-117,-126,-200,-43,-136
-126,-87,39,107,-82,-24,43,-126,-126,-204,-53,-146
-126,-78,48,102,-87,-14,43,-126,-126,-209,-58,-146
-126,-87,39,107,-82,-24,43,-126,-126,-214,-58,-141
-126,-87,39,107,-82,-24,43,-126,-126,-219,-53,-141
-126,-78,48,102,-87,-14,48,-126,-117,-209,-53,-141
-126,-87,39,107,-82,-24,48,-122,-117,-209,-53,-141
-126,-87,39,107,-82,-24,48,-122,-117,-209,-53,-141
-126,-82,43,104,-85,-19,53,-117,-117,-209,-53,-141
-126,-97,29,112,-78,-34,53,-107,-117,-200,-48,-136
-136,-78,58,107,-97,-9,53,-131,-126,-204,-58,-141
-156,-58,97,107,-126,19,43,-136,-117,-204,-58,-151
-161,-48,112,104,-136,31,53,-131,-102,-204,-58,-151
-195,-29,165,112,-180,68,82,-141,-92,-209,-68,-156
-244,-39,204,141,-224,82,122,-131,-63,-195,-58,-165
-297,-39,258,168,-278,109,165,-107,0,-161,-58,-165
-385,-29,356,207,-370,163,229,-78,87,-131,-53,-185
-492,9,502,241,-497,256,292,-34,185,-97,-63,-209
-570,39,610,265,-590,324,356,43,297,-48,-48,-219
-639,48,688,295,-663,368,424,117,400,0,-34,-224
-707,58,766,324,-736,412,483,136,458,9,-34,-234
-751,92,844,329,-797,468,502,126,483,19,-24,-244
-751,131,883,309,-817,507,492,112,444,43,9,-224
-692,156,849,268,-771,502,424,68,385,87,82,-161
-585,200,785,192,-685,492,351,14,375,190,209,-53
-419,248,668,85,-544,458,239,-19,395,351,400,112
-165,283,448,-58,-307,366,68,-43,361,527,619,302
151,336,185,-244,-17,261,-146,-63,273,692,834,512
468,453,-14,-461,241,219,-370,-87,248,912,1093,746
771,614,-156,-692,463,229,-570,-102,297,1195,1371,1005
1024,712,-312,-868,668,200,-727,-136,331,1371,1566,1210
1205,697,-507,-951,856,95,-868,-219,234,1322,1566,1283
1342,634,-707,-988,1024,-36,-971,-346,4,1049,1385,1224
1454,566,-888,-1010,1171,-161,-1073,-551,-351,605,1054,1058
1512,448,-1063,-980,1288,-307,-1132,-819,-805,4,614,810
1449,268,-1180,-858,1315,-456,-1132,-1132,-1288,-653,156,527
1351,126,-1224,-739,1288,-549,-1073,-1434,-1654,-1171,-224,273
1288,68,-1220,-678,1254,-575,-1049,-1595,-1825,-1483,-488,78
1268,0,-1268,-634,1268,-634,-1034,-1649,-1912,-1649,-668,-78
1259,-87,-1346,-585,1302,-717,-1000,-1586,-1927,-1708,-775,-185
1263,-180,-1444,-541,1354,-812,-932,-1415,-1854,-1654,-795,-244
1224,-302,-1527,-461,1376,-915,-814,-1229,-1727,-1576,-805,-312
1137,-405,-1542,-366,1339,-973,-712,-1073,-1615,-1517,-834,-390
1049,-448,-1498,-300,1273,-973,-634,-966,-1498,-1429,-810,-424
961,-439,-1400,-261,1180,-919,-561,-868,-1337,-1302,-746,-390
834,-380,-1215,-226,1024,-797,-483,-780,-1166,-1166,-673,-380
697,-336,-1034,-180,866,-685,-414,-712,-1010,-1044,-619,-385
595,-297,-893,-148,744,-595,-356,-649,-888,-936,-566,-375
497,-234,-732,-131,614,-483,-307,-585,-775,-839,-497,-341
405,-185,-590,-109,497,-387,-258,-527,-658,-736,-429,-302
302,-180,-483,-61,392,-331,-195,-453,-575,-658,-385,-297
224,-180,-405,-21,314,-292,-146,-400,-502,-605,-361,-297
151,-180,-331,14,241,-256,-97,-341,-444,-556,-322,-287
87,-165,-253,39,170,-209,-43,-302,-370,-502,-283,-273
29,-141,-170,56,100,-156,-19,-248,-317,-444,-253,-258
-34,-117,-82,75,24,-100,9,-200,-253,-385,-214,-239
-97,-117,-19,107,-39,-68,39,-156,-195,-322,-165,-219
-141,-97,43,119,-92,-26,73,-131,-156,-283,-141,-209
-161,-82,78,122,-119,-2,92,-102,-122,-263,-126,-195
-156,-92,63,124,-109,-14,112,-78,-92,-239,-107,-175
-161,-92,68,126,-114,-12,107,-68,-87,-234,-112,-175
-170,-92,78,131,-124,-7,107,-78,-97,-229,-112,-180
-180,-92,87,136,-134,-2,112,-68,-82,-229,-107,-180
-185,-92,92,139,-139,0,117,-63,-82,-229,-102,-180
-204,-87,117,146,-161,14,117,-63,-82,-229,-117,-180
-204,-82,122,143,-163,19,117,-63,-73,-229,-112,-190
-209,-78,131,143,-170,26,126,-63,-63,-224,-112,-195
-214,-78,136,146,-175,29,126,-58,-58,-224,-107,-195
-219,-73,146,146,-183,36,126,-58,-53,-224,-102,-185
-214,-87,126,151,-170,19,136,-39,-39,-214,-92,-180
-214,-92,122,153,-168,14,136,-39,-39,-209,-87,-185
-214,-92,122,153,-168,14,136,-39,-34,-209,-87,-185
-214,-97,117,156,-165,9,136,-39,-34,-209,-87,-180
-224,-92,131,158,-178,19,136,-34,-39,-209,-92,-180
-224,-87,136,156,-180,24,131,-34,-39,-209,-97,-180
-229,-73,156,151,-192,41,126,-34,-39,-204,-97,-185
-229,-78,151,153,-190,36,122,-34,-39,-200,-102,-185
-229,-78,151,153,-190,36,131,-39,-29,-200,-102,-180
-229,-78,151,153,-190,36,131,-39,-24,-190,-97,-180
-229,-78,151,153,-190,36,131,-34,-24,-190,-92,-180
-229,-78,151,153,-190,36,131,-34,-24,-190,-87,-185
-229,-78,151,153,-190,36,122,-34,-24,-200,-87,-190
-229,-63,165,146,-197,51,122,-24,-14,-195,-92,-190
-229,-63,165,146,-197,51,126,-24,-14,-190,-92,-180
-229,-68,161,148,-195,46,126,-24,-14,-185,-92,-180
-229,-68,161,148,-195,46,136,-9,-4,-175,-92,-180
-234,-68,165,151,-200,48,136,-9,0,-170,-87,-180
-234,-68,165,151,-200,48,136,-9,0,-165,-82,-175
-234,-53,180,143,-207,63,136,-4,0,-156,-82,-175
-234,-58,175,146,-204,58,136,0,9,-151,-73,-165
-234,-63,170,148,-202,53,136,4,14,-146,-73,-165
-229,-63,165,146,-197,51,136,9,19,-146,-73,-165
-224,-68,156,146,-190,43,136,14,24,-141,-68,-161
-214,-68,146,141,-180,39,136,9,19,-136,-63,-156
-214,-68,146,141,-180,39,136,14,19,-131,-63,-151
-214,-48,165,131,-190,58,131,19,24,-122,-63,-146
-209,-39,170,124,-190,65,131,24,29,-112,-63,-146
-219,-29,190,124,-204,80,131,39,34,-122,-68,-146
-219,-34,185,126,-202,75,131,43,39,-122,-68,-151
-219,-39,180,129,-200,70,131,48,43,-117,-68,-151
-214,-34,180,124,-197,73,131,53,48,-117,-58,-141
-214,-24,190,119,-202,82,131,53,53,-107,-63,-151
-214,-24,190,119,-202,82,126,58,58,-97,-58,-146
-214,-29,185,122,-200,78,126,63,63,-82,-48,-146
-214,-29,185,122,-200,78,126,73,68,-82,-48,-146
-209,-39,170,124,-190,65,126,87,73,-68,-39,-136
-200,-29,170,114,-185,70,126,92,82,-63,-39,-131
-195,-19,175,107,-185,78,126,102,92,-58,-29,-126
-190,-19,170,104,-180,75,126,117,107,-43,-19,-112
-180,-9,170,95,-175,80,136,136,112,-34,-19,-102
-180,0,180,90,-180,90,136,141,117,-29,-9,-97
-170,-9,161,90,-165,75,136,146,126,-24,-4,-97
-170,-9,161,90,-165,75,136,156,126,-14,0,-92
-170,-14,156,92,-163,70,126,165,126,-9,-4,-97
-170,-9,161,90,-165,75,126,170,131,0,9,-92
-175,-4,170,90,-173,82,122,175,141,4,14,-87
-175,0,175,87,-175,87,117,180,141,9,14,-82
-170,9,180,80,-175,95,117,190,151,19,24,-78
-165,9,175,78,-170,92,117,209,165,29,29,-73
-161,19,180,70,-170,100,117,219,170,39,34,-68
-151,24,175,63,-163,100,117,224,185,48,53,-63
-146,29,175,58,-161,102,117,253,190,63,58,-43
-141,34,175,53,-158,104,117,258,204,78,73,-39
-131,43,175,43,-153,109,117,278,209,87,82,-29
-122,53,175,34,-148,114,112,287,219,97,87,-14
-107,63,170,21,-139,117,122,307,229,107,107,-14
-107,63,170,21,-139,117,117,322,234,117,107,-4
-97,58,156,19,-126,107,117,336,248,131,126,4
-87,58,146,14,-117,102,117,351,258,156,136,9
-68,87,156,-9,-112,122,107,366,273,165,141,19
-58,102,161,-21,-109,131,107,375,283,175,156,34
-53,97,151,-21,-102,124,107,395,297,195,165,48
-43,102,146,-29,-95,124,102,409,307,209,175,58
-43,136,180,-46,-112,158,87,424,307,214,180,68
-29,141,170,-56,-100,156,87,439,317,224,185,73
-19,141,161,-61,-90,151,87,453,326,239,204,87
-9,141,151,-65,-80,146,87,463,336,258,214,87
0,151,151,-75,-75,151,87,488,356,278,234,102
9,146,136,-78,-63,141,92,492,366,292,244,117
19,146,126,-82,-53,136,92,512,375,302,263,136
29,146,117,-87,-43,131,92,527,385,317,263,151
29,146,117,-87,-43,131,87,536,395,331,283,156
39,141,102,-90,-31,122,87,551,405,351,307,175
53,141,87,-97,-17,114,87,575,414,366,322,190
73,156,82,-114,-4,119,82,580,424,370,326,200
82,175,92,-129,-4,134,68,590,424,370,326,204
92,180,87,-136,2,134,63,595,424,385,331,214
97,180,82,-139,7,131,53,605,429,395,336,224
107,190,82,-148,12,136,53,610,429,405,346,234
136,204,68,-170,34,136,43,629,434,419,356,244
146,200,53,-173,46,126,39,629,439,424,370,253
161,219,58,-190,51,139,29,639,448,434,375,258
170,229,58,-200,56,143,24,653,453,448,380,263
165,224,58,-195,53,141,29,644,453,448,395,283
170,214,43,-192,63,129,24,649,453,453,405,292
170,204,34,-187,68,119,19,658,453,458,409,297
180,195,14,-187,82,104,9,663,463,473,419,312
195,204,9,-200,92,107,0,668,463,473,419,307
209,219,9,-214,100,114,-4,678,463,473,429,312
224,224,0,-224,112,112,-4,678,463,488,434,322
239,219,-19,-229,129,100,-4,678,463,488,434,336
239,224,-14,-231,126,104,0,678,463,497,444,341
248,234,-14,-241,131,109,-9,673,463,502,448,351
248,219,-29,-234,139,95,-14,668,463,502,453,356
263,214,-48,-239,156,82,-19,668,463,502,453,361
278,219,-58,-248,168,80,-34,663,453,492,463,361
283,219,-63,-251,173,78,-34,649,448,492,478,361
287,224,-63,-256,175,80,-39,629,439,492,463,361
292,229,-63,-261,178,82,-43,614,424,488,444,361
283,224,-58,-253,170,82,-48,600,414,483,453,361
283,214,-68,-248,175,73,-48,595,414,473,453,361
287,209,-78,-248,183,65,-53,580,400,458,453,361
287,204,-82,-246,185,61,-58,556,390,448,448,361
283,204,-78,-244,180,63,-58,541,375,439,424,356
283,204,-78,-244,180,63,-58,522,361,424,414,356
273,204,-68,-239,170,68,-58,497,356,409,414,346
273,204,-68,-239,170,68,-68,478,336,395,405,346
278,204,-73,-241,175,65,-73,458,307,366,375,336
263,204,-58,-234,161,73,-73,424,283,341,366,317
253,190,-63,-222,158,63,-68,395,263,322,351,307
253,175,-78,-214,165,48,-68,366,253,292,336,302
234,170,-63,-202,148,53,-78,341,234,263,317,278
234,165,-68,-200,151,48,-78,312,219,244,307,273
219,165,-53,-192,136,56,-78,278,195,219,292,253
204,165,-39,-185,122,63,-78,258,170,195,273,239
195,156,-39,-175,117,58,-78,229,156,165,239,229
180,156,-24,-168,102,65,-78,195,141,141,219,209
161,151,-9,-156,85,70,-73,165,117,112,204,175
151,136,-14,-143,82,61,-68,141,97,92,185,156
156,136,-19,-146,87,58,-58,126,78,68,170,151
141,126,-14,-134,78,56,-53,107,63,53,161,141
107,117,9,-112,48,63,-53,82,53,34,131,126
102,117,14,-109,43,65,-53,58,34,14,107,102
87,92,4,-90,41,48,-34,53,24,0,102,107
73,73,0,-73,36,36,-29,34,4,-29,87,92
63,58,-4,-61,34,26,-29,24,0,-48,73,78
53,39,-14,-46,34,12,-29,9,-4,-58,58,63
48,43,-4,-46,26,19,-24,-4,-24,-73,34,43
39,43,4,-41,17,24,-24,-29,-34,-97,19,29
34,48,14,-41,9,31,-29,-39,-48,-112,4,14
24,43,19,-34,2,31,-29,-48,-48,-122,4,4
24,48,24,-36,0,36,-19,-58,-48,-131,0,9
9,48,39,-29,-14,43,-19,-73,-58,-146,-19,0
-4,39,43,-17,-24,41,-19,-73,-58,-146,-24,-14
-4,24,29,-9,-17,26,-14,-73,-73,-146,-24,-29
-14,24,39,-4,-26,31,-14,-73,-63,-151,-24,-19
-19,19,39,0,-29,29,-4,-73,-68,-156,-29,-19
-29,19,48,4,-39,34,-4,-82,-73,-151,-34,-29
-34,14,48,9,-41,31,0,-92,-78,-161,-43,-39
-29,14,43,7,-36,29,-9,-82,-82,-156,-43,-43
-29,9,39,9,-34,24,-9,-97,-87,-165,-53,-43
-43,9,53,17,-48,31,-4,-97,-87,-165,-53,-53
-53,4,58,24,-56,31,4,-97,-87,-170,-53,-53
-43,4,48,19,-46,26,-4,-97,-87,-170,-63,-53
-53,4,58,24,-56,31,-4,-97,-87,-175,-63,-53
-53,4,58,24,-56,31,-4,-102,-92,-175,-63,-58
-58,0,58,29,-58,29,-4,-102,-92,-175,-58,-63
-48,0,48,24,-48,24,0,-97,-82,-165,-58,-68
-53,4,58,24,-56,31,0,-97,-82,-170,-63,-68
-63,4,68,29,-65,36,4,-92,-82,-170,-68,-63
-63,-4,58,34,-61,26,4,-92,-78,-170,-68,-68
-73,-4,68,39,-70,31,4,-87,-78,-165,-73,-68
-68,-4,63,36,-65,29,4,-87,-82,-165,-68,-63
-68,-9,58,39,-63,24,4,-87,-82,-161,-68,-58
-73,-9,63,41,-68,26,4,-87,-73,-161,-68,-58
-63,4,68,29,-65,36,9,-82,-73,-161,-68,-68
-63,4,68,29,-65,36,9,-82,-73,-161,-63,-63
-53,4,58,24,-56,31,9,-82,-73,-161,-58,-58
-48,4,53,21,-51,29,9,-78,-73,-161,-58,-58
-53,-4,48,29,-51,21,9,-87,-82,-161,-68,-63
-68,-9,58,39,-63,24,9,-87,-82,-161,-68,-63
-73,-9,63,41,-68,26,9,-78,-82,-161,-63,-68
-78,-9,68,43,-73,29,4,-78,-82,-156,-63,-73
-68,-14,53,41,-61,19,9,-78,-78,-156,-68,-73
-68,-14,53,41,-61,19,9,-73,-78,-151,-63,-68
-68,-14,53,41,-61,19,9,-78,-78,-151,-53,-63
-73,-14,58,43,-65,21,9,-78,-73,-151,-48,-58
-73,0,73,36,-73,36,9,-82,-68,-146,-48,-48
-73,4,78,34,-75,41,19,-78,-68,-141,-53,-48
-68,19,87,24,-78,53,19,-78,-73,-146,-58,-48
-68,29,97,19,-82,63,19,-73,-78,-146,-63,-43
-63,24,87,19,-75,56,4,-73,-68,-146,-63,-43
-63,24,87,19,-75,56,0,-78,-73,-146,-63,-53
-58,19,78,19,-68,48,0,-78,-73,-146,-58,-58
-58,19,78,19,-68,48,4,-73,-73,-146,-58,-58
-68,14,82,26,-75,48,4,-73,-73,-146,-68,-53
-68,4,73,31,-70,39,0,-73,-73,-146,-68,-48
-68,4,73,31,-70,39,0,-73,-73,-146,-68,-48
-73,4,78,34,-75,41,4,-68,-73,-146,-63,-48
-63,14,78,24,-70,46,4,-78,-73,-156,-63,-43
-63,14,78,24,-70,46,0,-78,-78,-156,-68,-43
-63,14,78,24,-70,46,-4,-82,-78,-156,-73,-43
-63,14,78,24,-70,46,-4,-82,-78,-156,-73,-39
-73,0,73,36,-73,36,4,-73,-78,-165,-73,-43
-73,-4,68,39,-70,31,4,-73,-78,-161,-73,-43
-68,-4,63,36,-65,29,0,-73,-78,-161,-82,-43
-63,0,63,31,-63,31,0,-73,-78,-161,-92,-48
-63,-4,58,34,-61,26,0,-82,-78,-156,-87,-58
-63,-9,53,36,-58,21,4,-82,-78,-156,-82,-53
-68,-24,43,46,-56,9,4,-87,-78,-156,-73,-53
-73,-29,43,51,-58,7,4,-92,-78,-156,-68,-48
-63,-24,39,43,-51,7,14,-82,-78,-165,-78,-48
-63,-14,48,39,-56,17,14,-82,-78,-165,-78,-48
-58,0,58,29,-58,29,9,-82,-82,-165,-82,-48
-58,9,68,24,-63,39,9,-82,-87,-175,-87,-53
-58,9,68,24,-63,39,0,-97,-87,-190,-87,-58
-58,9,68,24,-63,39,-9,-97,-92,-190,-87,-63
-58,9,68,24,-63,39,0,-97,-92,-190,-92,-68
-58,9,68,24,-63,39,9,-97,-92,-185,-97,-73
-68,9,78,29,-73,43,0,-107,-97,-175,-92,-73
-68,4,73,31,-70,39,0,-107,-102,-175,-92,-73
-73,-9,63,41,-68,26,0,-102,-102,-185,-92,-68
-78,-9,68,43,-73,29,0,-102,-102,-185,-92,-68
-78,-19,58,48,-68,19,-9,-102,-97,-195,-102,-78
-78,-9,68,43,-73,29,0,-112,-97,-200,-107,-73
-78,-9,68,43,-73,29,0,-117,-97,-200,-107,-73
-78,-9,68,43,-73,29,-4,-117,-102,-200,-112,-73
-87,-24,63,56,-75,19,4,-112,-102,-200,-112,-82
-87,-34,53,61,-70,9,9,-107,-102,-200,-112,-82
-87,-34,53,61,-70,9,9,-107,-97,-200,-112,-82
-87,-34,53,61,-70,9,9,-112,-97,-200,-112,-87
-82,-24,58,53,-70,17,4,-117,-107,-200,-122,-82
-78,-9,68,43,-73,29,4,-122,-112,-200,-126,-87
-78,-4,73,41,-75,34,0,-122,-112,-200,-126,-87
-82,0,82,41,-82,41,0,-117,-112,-200,-122,-82
-82,-9,73,46,-78,31,0,-117,-112,-190,-112,-73
-82,-19,63,51,-73,21,0,-117,-117,-200,-117,-73
-82,-24,58,53,-70,17,0,-117,-117,-200,-117,-73
-82,-24,58,53,-70,17,4,-122,-117,-200,-117,-73
-82,-24,58,53,-70,17,14,-117,-117,-200,-117,-78
-78,-19,58,48,-68,19,14,-117,-117,-200,-117,-78
-78,-19,58,48,-68,19,14,-112,-112,-200,-117,-78
-78,-19,58,48,-68,19,14,-112,-112,-195,-117,-78
-78,-9,68,43,-73,29,0,-122,-102,-195,-117,-73
-68,-4,63,36,-65,29,-4,-117,-97,-195,-112,-73
-68,0,68,34,-68,34,-4,-117,-97,-190,-112,-73
-63,4,68,29,-65,36,4,-112,-82,-185,-107,-63
-58,24,82,17,-70,53,4,-102,-82,-170,-97,-48
-39,19,58,9,-48,39,-4,-97,-82,-161,-97,-39
-19,48,68,-14,-43,58,-24,-92,-73,-156,-78,-34
-19,58,78,-19,-48,68,-19,-87,-58,-146,-78,-29
-19,68,87,-24,-53,78,-29,-97,-48,-146,-68,-29
-19,78,97,-29,-58,87,-29,-97,-48,-146,-68,-29
-19,87,107,-34,-63,97,-29,-97,-48,-146,-68,-29
-19,97,117,-39,-68,107,-29,-97,-48,-146,-68,-29
-24,107,131,-41,-78,119,-34,-92,-48,-136,-68,-39
-29,107,136,-39,-82,122,-34,-102,-43,-136,-68,-34
-34,117,151,-41,-92,134,-34,-102,-43,-136,-68,-34
-34,117,151,-41,-92,134,-34,-97,-34,-136,-68,-34
-24,102,126,-39,-75,114,-24,-78,-19,-126,-53,-29
-14,102,117,-43,-65,109,-24,-78,-19,-122,-53,-24
-4,112,117,-53,-61,114,-29,-78,-19,-122,-53,-19
0,122,122,-61,-61,122,-39,-87,-19,-122,-53,-14
-9,146,156,-68,-82,151,-53,-102,-24,-122,-58,-19
0,136,136,-68,-68,136,-58,-97,-24,-126,-63,-19
4,141,136,-73,-65,139,-68,-102,-29,-131,-58,-19
4,151,146,-78,-70,148,-78,-117,-34,-136,-63,-19
9,141,131,-75,-61,136,-78,-126,-43,-126,-53,-9
24,141,117,-82,-46,129,-87,-136,-48,-131,-53,-9
24,117,92,-70,-34,104,-97,-146,-58,-136,-63,-9
24,92,68,-58,-21,80,-97,-151,-58,-141,-63,-9
14,102,87,-58,-36,95,-107,-156,-73,-151,-73,-19
19,122,102,-70,-41,112,-107,-175,-92,-161,-73,-19
19,122,102,-70,-41,112,-117,-185,-107,-180,-78,-24
19,122,102,-70,-41,112,-117,-190,-112,-190,-87,-24
29,126,97,-78,-34,112,-117,-190,-107,-190,-87,-14
34,126,92,-80,-29,109,-117,-185,-107,-185,-78,-14
39,146,107,-92,-34,126,-126,-180,-107,-175,-78,-14
48,146,97,-97,-24,122,-131,-180,-112,-170,-82,-14
53,141,87,-97,-17,114,-131,-195,-126,-180,-82,-9
53,136,82,-95,-14,109,-131,-195,-131,-185,-78,-4
48,126,78,-87,-14,102,-126,-195,-131,-190,-78,-4
43,102,58,-73,-7,80,-122,-190,-141,-195,-82,-9
34,97,63,-65,-14,80,-102,-200,-141,-200,-92,-24
24,78,53,-51,-14,65,-87,-190,-141,-204,-92,-24
19,78,58,-48,-19,68,-82,-180,-131,-204,-92,-24
14,78,63,-46,-24,70,-73,-175,-131,-204,-92,-29
14,82,68,-48,-26,75,-68,-170,-126,-195,-102,-29
4,82,78,-43,-36,80,-58,-156,-126,-195,-102,-29
4,68,63,-36,-29,65,-58,-146,-126,-195,-102,-29
4,53,48,-29,-21,51,-53,-141,-126,-190,-107,-34
0,24,24,-12,-12,24,-34,-122,-126,-200,-117,-48
-24,-9,14,17,-19,2,-14,-112,-131,-209,-131,-58
-48,-29,19,39,-34,-4,0,-112,-131,-219,-141,-73
-68,-39,29,53,-48,-4,4,-112,-136,-229,-151,-82
-87,-48,39,68,-63,-4,24,-117,-151,-234,-161,-92
-92,-48,43,70,-68,-2,24,-122,-151,-234,-165,-97
-97,-68,29,82,-63,-19,24,-122,-151,-239,-165,-97
-112,-73,39,92,-75,-17,24,-126,-161,-244,-170,-97
-112,-68,43,90,-78,-12,19,-131,-156,-248,-165,-102
-107,-68,39,87,-73,-14,19,-136,-156,-248,-165,-107
-102,-68,34,85,-68,-17,24,-136,-156,-248,-165,-107
-97,-63,34,80,-65,-14,24,-136,-156,-244,-165,-107
-107,-68,39,87,-73,-14,34,-136,-146,-244,-180,-97
-107,-73,34,90,-70,-19,34,-136,-151,-253,-185,-102
-107,-73,34,90,-70,-19,34,-136,-151,-258,-185,-107
-107,-73,34,90,-70,-19,34,-136,-151,-258,-185,-107
-122,-87,34,104,-78,-26,39,-136,-161,-268,-185,-117
-122,-87,34,104,-78,-26,39,-136,-161,-268,-185,-117
-122,-87,34,104,-78,-26,39,-136,-161,-268,-190,-122
-122,-87,34,104,-78,-26,39,-136,-161,-268,-190,-122
-122,-97,24,109,-73,-36,29,-126,-156,-258,-190,-122
-117,-97,19,107,-68,-39,29,-126,-156,-258,-190,-122
-117,-97,19,107,-68,-39,29,-126,-156,-258,-190,-126
-117,-97,19,107,-68,-39,34,-126,-156,-258,-190,-126
-117,-92,24,104,-70,-34,34,-126,-165,-268,-190,-126
-117,-78,39,97,-78,-19,34,-126,-165,-268,-195,-126
-117,-82,34,100,-75,-24,34,-126,-165,-268,-195,-122
-117,-78,39,97,-78,-19,34,-126,-165,-268,-190,-122
-117,-68,48,92,-82,-9,39,-136,-165,-258,-190,-122
-117,-78,39,97,-78,-19,39,-131,-165,-258,-190,-122
-117,-78,39,97,-78,-19,39,-131,-165,-258,-190,-122
-117,-73,43,95,-80,-14,43,-126,-165,-258,-190,-122
-107,-87,19,97,-63,-34,53,-107,-146,-248,-195,-107
-107,-68,39,87,-73,-14,43,-112,-146,-263,-195,-112
-117,-68,48,92,-82,-9,53,-126,-146,-263,-195,-122
-141,-87,53,114,-97,-17,63,-122,-141,-253,-195,-122
-165,-107,58,136,-112,-24,73,-122,-131,-248,-185,-117
-195,-78,117,136,-156,19,92,-131,-102,-234,-185,-126
-239,-48,190,143,-214,70,126,-126,-68,-219,-185,-136
-317,-19,297,168,-307,139,151,-117,-29,-209,-200,-146
-414,19,434,197,-424,226,204,-92,48,-185,-209,-180
-512,29,541,241,-527,285,278,-24,170,-136,-204,-190
-580,48,629,265,-605,339,356,78,292,-68,-180,-185
-649,87,736,280,-692,412,405,117,361,-48,-180,-204
-722,112,834,305,-778,473,453,117,395,-39,-180,-224
-741,92,834,324,-788,463,492,122,414,-4,-146,-195
-722,126,849,297,-785,488,463,107,395,29,-82,-151
-644,151,795,246,-719,473,409,63,366,92,14,-73
-527,180,707,173,-617,444,317,0,385,224,156,53
-341,244,585,48,-463,414,165,-53,361,370,326,204
-73,317,390,-122,-231,353,-39,-82,273,507,512,366
253,385,131,-319,61,258,-253,-107,190,678,722,570
585,507,-78,-546,331,214,-453,-122,200,932,1000,839
878,653,-224,-766,551,214,-649,-146,283,1205,1283,1083
1107,746,-361,-927,734,192,-810,-200,273,1322,1410,1244
1263,712,-551,-988,907,80,-941,-317,131,1195,1346,1263
1385,614,-771,-1000,1078,-78,-1034,-463,-136,868,1112,1176
1503,517,-985,-1010,1244,-234,-1122,-663,-502,385,761,995
1537,346,-1190,-941,1363,-422,-1141,-907,-976,-234,322,722
1459,175,-1283,-817,1371,-553,-1112,-1239,-1439,-858,-126,429
1356,107,-1249,-732,1302,-570,-1088,-1527,-1747,-1317,-478,185
1346,58,-1288,-702,1317,-614,-1083,-1649,-1893,-1581,-717,0
1346,-39,-1385,-653,1366,-712,-1058,-1644,-1966,-1708,-873,-146
1351,-161,-1512,-595,1432,-836,-1010,-1532,-1942,-1712,-932,-224
1342,-283,-1625,-529,1483,-954,-922,-1337,-1844,-1644,-941,-283
1273,-405,-1678,-434,1476,-1041,-800,-1161,-1722,-1586,-971,-351
1176,-468,-1644,-353,1410,-1056,-712,-1044,-1615,-1527,-995,-424
1107,-458,-1566,-324,1337,-1012,-639,-936,-1503,-1439,-971,-439
1000,-409,-1410,-295,1205,-910,-570,-849,-1332,-1302,-897,-409
854,-375,-1229,-239,1041,-802,-492,-780,-1166,-1171,-824,-395
712,-346,-1058,-183,885,-702,-424,-727,-1034,-1063,-780,-405
605,-302,-907,-151,756,-605,-375,-663,-922,-976,-722,-380
502,-244,-746,-129,624,-495,-326,-605,-805,-873,-653,-341
409,-209,-619,-100,514,-414,-263,-531,-692,-775,-590,-317
322,-200,-522,-61,422,-361,-204,-458,-610,-692,-546,-307
239,-190,-429,-24,334,-309,-136,-390,-541,-624,-507,-297
165,-185,-351,9,258,-268,-92,-341,-468,-570,-478,-283
107,-170,-278,31,192,-224,-58,-307,-395,-522,-439,-258
24,-165,-190,70,107,-178,-39,-258,-341,-463,-400,-239
-48,-117,-68,82,9,-92,0,-204,-283,-409,-361,-219
-92,-78,14,85,-53,-31,43,-170,-224,-351,-326,-209
-122,-73,48,97,-85,-12,63,-131,-180,-322,-302,-185
-146,-92,53,119,-100,-19,82,-97,-141,-287,-273,-175
-141,-102,39,122,-90,-31,97,-78,-117,-263,-268,-165
-151,-102,48,126,-100,-26,97,-78,-117,-263,-263,-161
-161,-102,58,131,-109,-21,102,-68,-102,-258,-253,-161
-165,-102,63,134,-114,-19,107,-63,-102,-253,-244,-161
-185,-97,87,141,-136,-4,107,-63,-102,-248,-253,-161
-190,-107,82,148,-136,-12,107,-63,-102,-248,-248,-161
-200,-117,82,158,-141,-17,117,-63,-92,-244,-248,-165
-209,-131,78,170,-143,-26,117,-58,-87,-244,-244,-165
-219,-141,78,180,-148,-31,117,-58,-82,-244,-239,-156
-219,-97,122,158,-170,12,102,-58,-92,-244,-248,-170
-214,-63,151,139,-183,43,97,-68,-97,-248,-253,-185
-209,-24,185,117,-197,80,92,-78,-97,-258,-263,-195
-204,9,214,97,-209,112,87,-87,-102,-268,-273,-200
-204,-29,175,117,-190,73,112,-68,-78,-253,-253,-170
-204,-58,146,131,-175,43,122,-53,-68,-239,-244,-161
-209,-78,131,143,-170,26,131,-39,-58,-219,-229,-156
-209,-117,92,163,-151,-12,141,-24,-48,-200,-219,-146
-219,-97,122,158,-170,12,126,-24,-43,-214,-234,-146
-219,-87,131,153,-175,21,122,-29,-43,-209,-234,-151
-219,-78,141,148,-180,31,117,-29,-48,-214,-234,-156
-219,-68,151,143,-185,41,112,-34,-53,-219,-234,-165
-219,-63,156,141,-187,46,112,-34,-53,-219,-234,-161
-219,-53,165,136,-192,56,112,-24,-43,-214,-239,-161
-219,-58,161,139,-190,51,117,-24,-43,-209,-239,-151
-219,-68,151,143,-185,41,117,-24,-43,-204,-239,-151
-209,-78,131,143,-170,26,126,-9,-34,-195,-229,-151
-214,-78,136,146,-175,29,126,-9,-29,-190,-224,-151
-214,-78,136,146,-175,29,126,-9,-29,-185,-219,-146
-214,-63,151,139,-183,43,126,-4,-29,-175,-219,-146
-219,-63,156,141,-187,46,117,-9,-19,-170,-219,-146
-224,-63,161,143,-192,48,117,-4,-14,-165,-219,-146
-224,-58,165,141,-195,53,117,0,-9,-165,-219,-146
-224,-58,165,141,-195,53,117,4,-4,-161,-214,-141
-224,-58,165,141,-195,53,117,9,-9,-156,-219,-146
-224,-68,156,146,-190,43,117,14,-9,-151,-219,-141
-224,-58,165,141,-195,53,112,19,-4,-141,-219,-136
-219,-58,161,139,-190,51,112,24,0,-131,-219,-136
-214,-34,180,124,-197,73,122,39,4,-141,-214,-136
-209,-34,175,122,-192,70,122,43,9,-141,-214,-141
-204,-34,170,119,-187,68,122,48,14,-136,-214,-141
-195,-24,170,109,-183,73,122,53,19,-136,-204,-131
-204,-24,180,114,-192,78,122,53,24,-126,-209,-131
-204,-24,180,114,-192,78,117,58,29,-117,-204,-126
-204,-29,175,117,-190,73,117,63,34,-102,-195,-126
-204,-29,175,117,-190,73,117,73,39,-102,-195,-126
-200,-39,161,119,-180,61,117,87,48,-87,-185,-117
-190,-29,161,109,-175,65,117,92,53,-82,-185,-112
-185,-19,165,102,-175,73,117,102,58,-78,-175,-107
-180,-19,161,100,-170,70,117,117,68,-63,-165,-92
-190,-19,170,104,-180,75,117,117,63,-53,-165,-92
-190,-9,180,100,-185,85,117,122,68,-48,-156,-87
-180,-19,161,100,-170,70,117,126,78,-43,-151,-87
-180,-19,161,100,-170,70,117,136,78,-34,-146,-82
-175,-9,165,92,-170,78,107,151,87,-29,-141,-78
-170,0,170,85,-170,85,107,161,92,-19,-126,-73
-170,9,180,80,-175,95,102,170,102,-14,-122,-68
-165,19,185,73,-175,102,97,180,102,-9,-122,-63
-151,19,170,65,-161,95,107,190,112,0,-107,-58
-146,19,165,63,-156,92,107,209,126,9,-107,-53
-141,29,170,56,-156,100,107,219,131,19,-107,-48
-131,34,165,48,-148,100,107,224,146,29,-92,-43
-126,29,156,48,-141,92,97,253,161,43,-78,-24
-122,34,156,43,-139,95,97,258,175,58,-63,-19
-112,43,156,34,-134,100,97,278,180,68,-53,-9
-102,53,156,24,-129,104,92,287,190,78,-48,4
-97,68,165,14,-131,117,92,297,190,87,-39,4
-97,73,170,12,-134,122,87,312,195,97,-39,14
-87,73,161,7,-124,117,87,326,209,112,-19,24
-78,78,156,0,-117,117,87,341,219,136,-9,29
-78,102,180,-12,-129,141,78,356,224,146,-14,29
-68,112,180,-21,-124,146,78,366,234,156,0,43
-63,102,165,-19,-114,134,78,385,248,175,9,58
-53,102,156,-24,-104,129,73,400,258,190,19,68
-34,126,161,-46,-97,143,68,424,278,204,39,73
-19,131,151,-56,-85,141,68,439,287,214,48,82
-9,131,141,-61,-75,136,68,453,297,229,73,102
0,131,131,-65,-65,131,68,463,307,248,87,107
19,161,141,-90,-61,151,63,488,317,278,97,126
29,165,136,-97,-53,151,63,492,326,292,107,136
39,175,136,-107,-48,156,58,512,336,302,126,151
48,185,136,-117,-43,161,53,527,346,317,126,161
68,190,122,-129,-26,156,29,541,356,331,136,175
78,190,112,-134,-17,151,29,551,366,351,161,195
92,195,102,-143,-4,148,29,570,375,366,175,209
112,214,102,-163,4,158,24,570,385,370,180,219
131,219,87,-175,21,153,29,595,400,380,200,239
141,219,78,-180,31,148,24,605,405,405,214,253
146,214,68,-180,39,141,14,619,414,424,229,268
156,219,63,-187,46,141,14,629,419,444,248,283
170,214,43,-192,63,129,4,649,424,468,268,302
175,200,24,-187,75,112,0,649,429,473,283,312
185,209,24,-197,80,117,-9,658,439,483,287,317
190,209,19,-200,85,114,-14,673,444,497,292,322
195,229,34,-212,80,131,-19,673,444,507,297,322
209,234,24,-222,92,129,-24,678,444,512,307,331
219,239,19,-229,100,129,-29,688,444,517,312,336
239,244,4,-241,117,124,-39,692,453,531,322,351
253,253,0,-253,126,126,-48,697,453,551,341,366
268,268,0,-268,134,134,-53,707,453,551,351,370
283,273,-9,-278,146,131,-53,707,453,566,356,380
297,268,-29,-283,163,119,-53,707,453,566,356,395
307,268,-39,-287,173,114,-68,717,453,575,366,409
317,283,-34,-300,175,124,-78,712,453,580,370,419
317,273,-43,-295,180,114,-82,707,453,580,375,424
331,273,-58,-302,195,107,-87,707,453,580,375,429
336,273,-63,-305,200,104,-82,707,448,580,380,439
341,268,-73,-305,207,97,-82,697,448,580,400,439
346,268,-78,-307,212,95,-87,683,444,580,390,439
351,268,-82,-309,217,92,-92,673,434,575,375,439
361,278,-82,-319,222,97,-102,663,414,570,375,439
361,273,-87,-317,224,92,-107,653,414,561,375,439
366,273,-92,-319,229,90,-117,634,400,546,375,439
366,273,-92,-319,229,90,-126,605,390,536,370,439
370,273,-97,-322,234,87,-126,590,375,527,366,434
370,273,-97,-322,234,87,-126,570,361,512,356,434
361,273,-87,-317,224,92,-126,546,356,497,356,424
361,273,-87,-317,224,92,-136,527,336,483,346,424
356,268,-87,-312,222,90,-131,512,322,448,326,414
341,263,-78,-302,209,92,-131,483,302,429,317,395
331,244,-87,-287,209,78,-126,458,287,414,302,385
331,224,-107,-278,219,58,-126,434,283,390,287,380
307,229,-78,-268,192,75,-117,405,268,366,263,351
302,224,-78,-263,190,73,-117,370,248,341,248,341
283,224,-58,-253,170,82,-117,331,219,312,229,317
263,224,-39,-244,151,92,-117,307,190,283,204,297
253,204,-48,-229,151,78,-117,273,175,258,180,287
239,204,-34,-222,136,85,-117,244,161,229,161,268
219,200,-19,-209,119,90,-112,219,136,195,146,234
209,185,-24,-197,117,80,-107,200,117,170,126,214
195,165,-29,-180,112,68,-87,175,107,146,112,204
180,146,-34,-163,107,56,-82,156,92,131,102,200
146,126,-19,-136,82,53,-82,131,82,112,73,190
141,117,-24,-129,82,46,-82,107,63,92,48,170
126,112,-14,-119,70,48,-92,82,43,58,34,156
122,102,-19,-112,70,41,-87,63,34,39,29,141
112,107,-4,-109,58,51,-87,43,19,19,4,126
97,117,19,-107,39,68,-87,19,0,0,-9,107
82,112,29,-97,26,70,-78,9,-9,-19,-19,97
78,107,29,-92,24,68,-78,0,-19,-29,-29,87
73,102,29,-87,21,65,-78,-9,-29,-39,-39,78
68,97,29,-82,19,63,-78,-19,-39,-48,-48,68
63,102,39,-82,12,70,-73,-34,-48,-58,-58,53
58,97,39,-78,9,68,-73,-53,-53,-68,-68,53
53,102,48,-78,2,75,-73,-63,-63,-78,-78,48
53,97,43,-75,4,70,-73,-68,-63,-87,-87,43
43,97,53,-70,-4,75,-82,-87,-68,-107,-97,39
43,102,58,-73,-7,80,-82,-107,-78,-112,-102,34
43,117,73,-80,-14,95,-87,-126,-87,-122,-107,29
39,131,92,-85,-26,112,-97,-156,-97,-131,-112,24
14,117,102,-65,-43,109,-87,-161,-112,-146,-131,9
0,87,87,-43,-43,87,-78,-156,-112,-156,-141,0
-19,73,92,-26,-56,82,-73,-161,-117,-165,-141,-9
-43,63,107,-9,-75,85,-68,-175,-122,-175,-151,-19
-73,82,156,-4,-114,119,-63,-190,-126,-175,-161,-34
-82,102,185,-9,-134,143,-58,-195,-126,-180,-161,-39
-107,97,204,4,-156,151,-53,-200,-131,-185,-170,-43
-131,92,224,19,-178,158,-39,-200,-126,-190,-170,-48
-131,97,229,17,-180,163,-43,-195,-117,-185,-165,-39
-126,122,248,2,-187,185,-39,-204,-122,-180,-161,-39
-126,126,253,0,-190,190,-43,-204,-122,-185,-161,-43
-126,131,258,-2,-192,195,-39,-200,-112,-180,-165,-43
-126,112,239,7,-183,175,-24,-190,-107,-175,-156,-43
-122,107,229,7,-175,168,-19,-175,-97,-165,-146,-43
-117,122,239,-2,-178,180,-24,-161,-87,-151,-146,-43
-107,117,224,-4,-165,170,-24,-151,-82,-141,-151,-43
-102,102,204,0,-153,153,-14,-141,-78,-146,-161,-43
-102,97,200,2,-151,148,-14,-136,-82,-146,-156,-43
-107,87,195,9,-151,141,-9,-131,-82,-146,-156,-48
-112,63,175,24,-143,119,-4,-122,-92,-146,-161,-58
-107,68,175,19,-141,122,9,-112,-87,-146,-151,-53
-112,48,161,31,-136,104,29,-92,-82,-146,-151,-53
-112,48,161,31,-136,104,39,-73,-68,-141,-151,-53
-112,48,161,31,-136,104,53,-58,-63,-136,-151,-58
-97,53,151,21,-124,102,58,-48,-43,-112,-146,-53
-102,53,156,24,-129,104,68,-29,-39,-107,-141,-48
-97,39,136,29,-117,87,68,-14,-34,-102,-136,-43
-92,24,117,34,-104,70,73,-4,-29,-92,-136,-43
-82,29,112,26,-97,70,73,-4,-29,-82,-122,-43
-92,19,112,36,-102,65,73,-4,-34,-92,-131,-48
-102,24,126,39,-114,75,68,-14,-34,-102,-136,-58
-107,39,146,34,-126,92,53,-24,-39,-112,-141,-63
-107,43,151,31,-129,97,39,-43,-58,-117,-141,-63
-92,48,141,21,-117,95,24,-53,-63,-117,-146,-68
-78,34,112,21,-95,73,9,-58,-68,-122,-146,-68
-73,34,107,19,-90,70,-4,-68,-82,-126,-151,-68
-78,29,107,24,-92,68,0,-73,-87,-122,-146,-68
-78,19,97,29,-87,58,0,-78,-87,-122,-146,-68
-78,9,87,34,-82,48,4,-78,-87,-122,-146,-63
-78,4,82,36,-80,43,4,-78,-87,-117,-146,-58
-78,9,87,34,-82,48,-4,-68,-97,-117,-141,-58
-78,4,82,36,-80,43,-4,-68,-102,-126,-146,-63
-78,4,82,36,-80,43,-4,-68,-102,-131,-146,-68
-78,4,82,36,-80,43,-4,-68,-102,-131,-146,-68
-78,9,87,34,-82,48,0,-68,-102,-131,-136,-68
-73,9,82,31,-78,46,0,-68,-102,-131,-136,-68
-68,9,78,29,-73,43,0,-68,-102,-131,-141,-73
-63,9,73,26,-68,41,0,-68,-102,-131,-141,-73
-63,0,63,31,-63,31,0,-68,-107,-122,-151,-63
-58,0,58,29,-58,29,0,-68,-107,-122,-151,-63
-58,0,58,29,-58,29,0,-68,-107,-122,-151,-68
-58,0,58,29,-58,29,4,-68,-107,-122,-151,-68
-48,-14,34,31,-41,9,4,-58,-97,-122,-146,-63
-48,-9,39,29,-43,14,4,-58,-97,-122,-146,-58
-48,-24,24,36,-36,0,4,-58,-97,-122,-141,-48
-48,-29,19,39,-34,-4,4,-58,-97,-122,-131,-43
-58,-14,43,36,-51,14,-9,-73,-107,-131,-141,-48
-58,-19,39,39,-48,9,-9,-73,-107,-131,-141,-53
-58,-14,43,36,-51,14,-9,-78,-107,-131,-141,-58
-58,-4,53,31,-56,24,-4,-78,-107,-131,-141,-63
-58,9,68,24,-63,39,-4,-87,-117,-141,-146,-68
-48,0,48,24,-48,24,-4,-82,-117,-136,-146,-63
-58,-9,48,34,-53,19,-4,-78,-117,-126,-146,-63
-73,0,73,36,-73,36,4,-82,-102,-126,-146,-73
-107,9,117,48,-112,63,14,-82,-82,-122,-146,-78
-146,9,156,68,-151,82,34,-73,-63,-117,-156,-87
-200,9,209,95,-204,109,68,-58,-19,-92,-156,-97
-258,29,287,114,-273,158,112,-19,39,-73,-151,-117
-336,68,405,134,-370,236,165,34,126,-48,-161,-141
-424,97,522,163,-473,309,229,112,219,0,-156,-151
-502,68,570,217,-536,319,287,175,312,58,-122,-146
-570,68,639,251,-605,353,356,195,390,87,-112,-146
-634,102,736,265,-685,419,395,185,444,107,-102,-156
-634,131,766,251,-700,448,405,161,473,141,-68,-136
-595,156,751,219,-673,453,385,117,492,214,14,-73
-507,219,727,143,-617,473,322,34,502,307,131,24
-370,287,658,41,-514,473,190,-78,434,370,244,131
-185,312,497,-63,-341,405,39,-180,273,390,336,234
73,356,283,-214,-104,319,-146,-287,107,419,453,366
409,444,34,-427,187,239,-361,-380,43,570,673,580
771,566,-204,-668,488,180,-600,-444,34,805,951,858
1083,663,-419,-873,751,122,-814,-527,-29,941,1146,1073
1293,697,-595,-995,944,51,-976,-619,-146,893,1146,1146
1429,683,-746,-1056,1088,-31,-1088,-756,-317,678,995,1107
1532,624,-907,-1078,1220,-141,-1171,-893,-595,312,712,951
1581,517,-1063,-1049,1322,-273,-1190,-1054,-980,-229,273,673
1537,385,-1151,-961,1344,-383,-1180,-1327,-1376,-800,-175,370
1459,263,-1195,-861,1327,-466,-1161,-1600,-1615,-1161,-439,185
1424,185,-1239,-805,1332,-527,-1166,-1742,-1756,-1385,-634,39
1405,117,-1288,-761,1346,-585,-1141,-1727,-1825,-1532,-795,-107
1385,78,-1307,-732,1346,-614,-1098,-1605,-1800,-1551,-854,-195
1351,-14,-1366,-668,1359,-690,-1010,-1454,-1717,-1498,-863,-234
1273,-175,-1449,-549,1361,-812,-883,-1288,-1629,-1459,-883,-283
1176,-278,-1454,-448,1315,-866,-780,-1132,-1517,-1390,-893,-351
1078,-292,-1371,-392,1224,-832,-702,-985,-1361,-1263,-849,-366
1000,-244,-1244,-378,1122,-744,-639,-897,-1210,-1137,-785,-351
873,-195,-1068,-339,971,-631,-561,-810,-1068,-1019,-722,-351
717,-161,-878,-278,797,-519,-483,-702,-922,-897,-658,-336
595,-131,-727,-231,661,-429,-405,-610,-800,-800,-595,-317
497,-136,-634,-180,566,-385,-336,-546,-707,-732,-556,-302
385,-165,-551,-109,468,-358,-278,-468,-629,-658,-527,-302
263,-170,-434,-46,348,-302,-224,-405,-546,-590,-492,-297
175,-161,-336,-7,256,-248,-165,-351,-483,-536,-448,-287
131,-131,-263,0,197,-197,-136,-302,-414,-478,-409,-268
87,-97,-185,4,136,-141,-92,-253,-351,-414,-351,-234
9,-82,-92,36,51,-87,-48,-190,-278,-356,-302,-209
-53,-87,-34,70,-9,-61,0,-141,-214,-297,-253,-180
-97,-87,9,92,-53,-39,19,-107,-165,-263,-234,-170
-122,-87,34,104,-78,-26,34,-92,-146,-234,-219,-170
-131,-82,48,107,-90,-17,43,-73,-131,-214,-214,-165
-126,-82,43,104,-85,-19,43,-68,-122,-229,-204,-156
-131,-92,39,112,-85,-26,48,-58,-117,-224,-209,-156
-146,-82,63,114,-104,-9,43,-73,-122,-229,-219,-165
-151,-73,78,112,-114,2,43,-68,-112,-229,-214,-170
-151,-63,87,107,-119,12,43,-68,-117,-229,-209,-175
-165,-48,117,107,-141,34,39,-73,-122,-229,-224,-180
-175,-58,117,117,-146,29,48,-63,-112,-219,-219,-175
-180,-58,122,119,-151,31,58,-63,-102,-214,-219,-175
-185,-63,122,124,-153,29,58,-58,-97,-214,-214,-170
-190,-63,126,126,-158,31,58,-58,-92,-214,-209,-156
-190,-53,136,122,-163,41,68,-39,-78,-214,-200,-156
-185,-53,131,119,-158,39,68,-39,-78,-209,-195,-165
-180,-48,131,114,-156,41,68,-39,-73,-209,-195,-170
-175,-48,126,112,-151,39,68,-39,-73,-209,-195,-170
-175,-48,126,112,-151,39,73,-34,-68,-200,-195,-161
-175,-48,126,112,-151,39,73,-34,-68,-200,-195,-161
-180,-39,141,109,-161,51,73,-34,-68,-195,-190,-165
-180,-48,131,114,-156,41,73,-34,-68,-190,-190,-165
-180,-39,141,109,-161,51,73,-29,-68,-180,-180,-161
-180,-39,141,109,-161,51,73,-29,-63,-170,-175,-161
-180,-39,141,109,-161,51,73,-24,-63,-170,-170,-161
-180,-39,141,109,-161,51,73,-24,-63,-170,-165,-165
-185,-43,141,114,-163,48,73,-24,-63,-170,-175,-161
-190,-34,156,112,-173,61,73,-14,-53,-165,-180,-161
-195,-39,156,117,-175,58,78,-14,-53,-161,-180,-151
-200,-48,151,124,-175,51,78,-14,-53,-156,-180,-151
-200,-53,146,126,-173,46,87,0,-43,-146,-170,-161
-204,-48,156,126,-180,53,87,0,-39,-141,-165,-161
-204,-43,161,124,-183,58,87,0,-39,-136,-161,-156
-204,-24,180,114,-192,78,87,4,-39,-126,-161,-156
-204,-29,175,117,-190,73,78,0,-39,-122,-170,-156
-204,-34,170,119,-187,68,78,4,-34,-117,-170,-156
-200,-34,165,117,-183,65,78,9,-29,-117,-170,-156
-195,-39,156,117,-175,58,78,14,-24,-112,-165,-151
-195,-39,156,117,-175,58,97,29,-9,-107,-151,-156
-195,-48,146,122,-170,48,97,34,-9,-102,-151,-151
-195,-39,156,117,-175,58,92,39,-4,-92,-151,-146
-190,-39,151,114,-170,56,92,43,0,-82,-151,-146
-195,-29,165,112,-180,68,92,58,4,-78,-136,-136
-200,-34,165,117,-183,65,92,63,9,-73,-136,-141
-204,-39,165,122,-185,63,92,68,14,-63,-136,-141
-204,-34,170,119,-187,68,92,73,19,-58,-126,-131
-200,-24,175,112,-187,75,102,82,34,-48,-131,-131
-195,-24,170,109,-183,73,97,87,39,-39,-126,-126
-190,-29,161,109,-175,65,97,92,43,-24,-117,-126
-185,-29,156,107,-170,63,97,102,48,-24,-117,-126
-190,-19,170,104,-180,75,97,117,58,-9,-107,-126
-180,-9,170,95,-175,80,97,122,63,-4,-107,-122
-175,0,175,87,-175,87,97,131,68,0,-97,-117
-170,0,170,85,-170,85,97,146,78,14,-87,-102
-175,-14,161,95,-168,73,97,156,82,24,-87,-102
-180,-9,170,95,-175,80,97,161,87,29,-78,-97
-175,-24,151,100,-163,63,97,165,97,34,-73,-97
-180,-29,151,104,-165,61,97,175,97,43,-68,-92
-175,-14,161,95,-168,73,107,200,117,58,-73,-87
-170,-9,161,90,-165,75,107,209,122,68,-58,-82
-170,-4,165,87,-168,80,102,219,131,73,-53,-78
-165,0,165,82,-165,82,97,229,131,78,-53,-73
-156,24,180,65,-168,102,87,239,136,87,-43,-68
-146,29,175,58,-161,102,87,258,146,97,-39,-63
-136,43,180,46,-158,112,87,268,146,107,-34,-58
-122,53,175,34,-148,114,87,273,156,117,-14,-53
-126,43,170,41,-148,107,97,302,161,131,-9,-43
-122,43,165,39,-143,104,97,307,175,146,4,-39
-112,48,161,31,-136,104,97,326,180,156,14,-29
-102,53,156,24,-129,104,92,336,190,165,19,-14
-97,68,165,14,-131,117,92,346,200,165,29,-9
-97,73,170,12,-134,122,87,361,204,175,29,-4
-87,73,161,7,-124,117,87,375,219,190,48,0
-78,78,156,0,-117,117,87,390,229,214,58,0
-73,87,161,-7,-117,124,78,395,234,219,53,-9
-68,92,161,-12,-114,126,78,405,244,224,68,4
-68,78,146,-4,-107,112,78,424,258,239,78,19
-63,73,136,-4,-100,104,73,439,268,248,87,29
-53,92,146,-19,-100,119,68,453,268,253,87,34
-39,92,131,-26,-85,112,68,468,278,263,97,43
-29,87,117,-29,-73,102,68,483,287,278,122,63
-19,82,102,-31,-61,92,68,492,297,297,136,68
-9,102,112,-46,-61,107,63,507,297,312,136,68
0,107,107,-53,-53,107,63,512,307,322,146,78
9,117,107,-63,-48,112,58,531,317,326,165,92
19,126,107,-73,-43,117,53,546,326,336,165,102
39,126,87,-82,-24,107,48,541,322,336,165,102
48,122,73,-85,-12,97,48,551,326,351,190,117
63,122,58,-92,2,90,48,570,331,361,204,126
82,136,53,-109,14,95,43,570,336,361,209,131
82,151,68,-117,7,109,48,585,331,361,209,136
92,151,58,-122,17,104,43,595,336,375,214,146
97,146,48,-122,24,97,34,610,346,385,219,156
107,151,43,-129,31,97,34,619,351,395,229,165
126,156,29,-141,48,92,24,624,351,400,234,165
136,151,14,-143,61,82,19,619,351,395,244,175
151,170,19,-161,65,95,9,624,356,395,244,180
161,180,19,-170,70,100,4,634,356,400,244,185
151,165,14,-158,68,90,9,624,356,409,258,204
161,156,-4,-158,82,75,4,629,356,414,268,214
165,146,-19,-156,92,63,0,639,356,419,273,219
180,136,-43,-158,112,46,-9,644,366,434,283,234
180,131,-48,-156,114,41,-9,634,361,429,283,234
190,141,-48,-165,119,46,-14,639,356,424,292,234
200,141,-58,-170,129,41,-14,634,351,434,297,239
209,131,-78,-170,143,26,-14,629,346,429,297,248
219,146,-73,-183,146,36,-29,610,331,419,292,248
229,165,-63,-197,146,51,-39,595,326,414,292,253
229,161,-68,-195,148,46,-43,580,322,405,292,253
244,165,-78,-204,161,43,-48,570,317,395,287,253
244,161,-82,-202,163,39,-63,556,302,380,292,258
244,151,-92,-197,168,29,-63,531,292,375,302,253
244,146,-97,-195,170,24,-68,502,278,370,283,248
244,141,-102,-192,173,19,-73,478,258,361,258,244
239,131,-107,-185,173,12,-68,453,239,346,268,234
234,126,-107,-180,170,9,-68,439,239,336,268,234
234,126,-107,-180,170,9,-73,414,224,322,268,234
229,126,-102,-178,165,12,-78,380,214,312,263,234
229,122,-107,-175,168,7,-87,351,195,297,244,224
224,117,-107,-170,165,4,-87,326,175,278,229,219
209,112,-97,-161,153,7,-87,297,165,258,224,204
204,107,-97,-156,151,4,-97,273,141,239,209,200
190,107,-82,-148,136,12,-92,244,122,209,180,185
175,107,-68,-141,122,19,-92,209,97,185,170,161
165,92,-73,-129,119,9,-87,180,78,165,156,146
165,78,-87,-122,126,-4,-87,151,68,136,141,136
141,58,-82,-100,112,-12,-78,136,63,126,131,131
136,48,-87,-92,112,-19,-78,107,53,107,122,126
117,43,-73,-80,95,-14,-78,73,34,82,107,107
97,39,-58,-68,78,-9,-78,53,14,58,87,92
97,39,-58,-68,78,-9,-68,43,4,53,73,92
82,48,-34,-65,58,7,-68,19,-4,34,53,73
63,53,-9,-58,36,21,-63,0,-24,9,39,39
53,48,-4,-51,29,21,-58,-14,-39,-4,19,19
58,29,-29,-43,43,0,-48,-29,-34,-19,4,14
43,19,-24,-31,34,-2,-43,-39,-43,-24,4,14
9,9,0,-9,4,4,-43,-53,-48,-34,-14,9
4,9,4,-7,0,7,-43,-68,-63,-43,-29,-4
0,4,4,-2,-2,4,-34,-73,-73,-58,-24,-4
-14,-4,9,9,-12,2,-29,-82,-82,-78,-29,-14
-24,-9,14,17,-19,2,-29,-82,-78,-87,-34,-24
-34,-19,14,26,-24,-2,-29,-87,-73,-87,-39,-34
-43,-14,29,29,-36,7,-29,-82,-78,-87,-39,-39
-48,-14,34,31,-41,9,-24,-97,-82,-97,-48,-48
-48,-9,39,29,-43,14,-24,-97,-92,-97,-58,-58
-53,-14,39,34,-46,12,-19,-97,-87,-92,-53,-63
-48,0,48,24,-48,24,-19,-97,-82,-92,-63,-63
-58,9,68,24,-63,39,-19,-112,-87,-107,-78,-68
-68,9,78,29,-73,43,-19,-112,-82,-107,-78,-78
-63,4,68,29,-65,36,-14,-112,-92,-107,-73,-87
-63,9,73,26,-68,41,-24,-117,-82,-107,-63,-78
-68,9,78,29,-73,43,-14,-112,-87,-117,-68,-78
-78,14,92,31,-85,53,-14,-117,-92,-117,-73,-87
-82,14,97,34,-90,56,-9,-122,-97,-131,-82,-97
-78,9,87,34,-82,48,-19,-107,-97,-126,-78,-97
-78,0,78,39,-78,39,-19,-117,-97,-126,-82,-92
-92,-4,87,48,-90,41,-14,-112,-92,-117,-78,-97
-102,-14,87,58,-95,36,-4,-107,-87,-112,-73,-92
-87,-14,73,51,-80,29,-4,-97,-78,-107,-63,-82
-92,-14,78,53,-85,31,-4,-97,-78,-107,-63,-82
-87,-14,73,51,-80,29,-4,-102,-82,-102,-63,-87
-87,-19,68,53,-78,24,-4,-102,-82,-97,-58,-92
-78,-9,68,43,-73,29,-19,-107,-82,-97,-68,-87
-82,-4,78,43,-80,36,-19,-107,-82,-102,-73,-87
-92,-4,87,48,-90,41,-14,-102,-82,-102,-78,-82
-92,-14,78,53,-85,31,-14,-102,-78,-102,-78,-87
-92,-24,68,58,-80,21,-4,-97,-78,-92,-68,-78
-87,-24,63,56,-75,19,-4,-97,-82,-87,-58,-73
-87,-29,58,58,-73,14,-4,-97,-82,-78,-53,-68
-92,-29,63,61,-78,17,-4,-97,-73,-73,-48,-68
-92,-14,78,53,-85,31,0,-102,-82,-82,-63,-73
-92,-14,78,53,-85,31,0,-102,-82,-82,-63,-73
-82,-14,68,48,-75,26,0,-102,-82,-82,-63,-73
-78,-14,63,46,-70,24,0,-97,-82,-82,-68,-78
-78,-4,73,41,-75,34,-4,-107,-82,-82,-68,-82
-87,-9,78,48,-82,34,0,-107,-82,-82,-68,-82
-87,-9,78,48,-82,34,4,-97,-82,-82,-63,-87
-87,-9,78,48,-82,34,4,-97,-82,-78,-63,-92
-87,-24,63,56,-75,19,0,-102,-78,-87,-68,-92
-87,-24,63,56,-75,19,0,-92,-78,-82,-63,-87
-87,-24,63,56,-75,19,0,-92,-78,-82,-53,-82
-92,-24,68,58,-80,21,0,-87,-73,-82,-48,-78
-92,-14,78,53,-85,31,4,-87,-78,-78,-53,-87
-92,-14,78,53,-85,31,9,-87,-78,-73,-53,-87
-87,-4,82,46,-85,39,4,-92,-82,-78,-53,-87
-87,0,87,43,-87,43,0,-92,-87,-78,-53,-82
-92,-4,87,48,-90,41,-4,-97,-78,-87,-63,-78
-92,-4,87,48,-90,41,-9,-107,-82,-87,-63,-92
-87,-9,78,48,-82,34,-9,-112,-82,-87,-58,-102
-87,-9,78,48,-82,34,-4,-112,-82,-87,-58,-107
-87,-24,63,56,-75,19,4,-112,-73,-82,-48,-92
-87,-34,53,61,-70,9,0,-112,-73,-78,-48,-87
-87,-34,53,61,-70,9,0,-112,-73,-73,-48,-87
-92,-34,58,63,-75,12,4,-107,-73,-68,-43,-87
-92,-34,58,63,-75,12,-4,-117,-73,-78,-43,-82
-92,-34,58,63,-75,12,-9,-117,-78,-78,-48,-82
-92,-34,58,63,-75,12,-14,-122,-78,-78,-53,-82
-92,-34,58,63,-75,12,-14,-122,-78,-78,-53,-78
-82,-29,53,56,-68,12,-14,-122,-82,-92,-63,-82
-82,-24,58,53,-70,17,-14,-122,-87,-92,-63,-82
-78,-14,63,46,-70,24,-19,-122,-92,-97,-73,-82
-73,0,73,36,-73,36,-19,-122,-97,-102,-82,-87
-82,9,92,36,-87,51,-19,-122,-97,-97,-78,-97
-82,9,92,36,-87,51,-14,-122,-97,-97,-73,-92
-87,0,87,43,-87,43,-14,-126,-97,-97,-63,-92
-92,0,92,46,-92,46,-14,-131,-97,-97,-58,-87
-82,-19,63,51,-73,21,-9,-126,-87,-97,-48,-87
-82,-24,58,53,-70,17,-4,-122,-87,-97,-48,-87
-78,-24,53,51,-65,14,-4,-117,-92,-97,-53,-87
-78,-29,48,53,-63,9,0,-112,-97,-107,-58,-92
-78,-29,48,53,-63,9,-9,-122,-107,-117,-63,-107
-87,-29,58,58,-73,14,-19,-126,-112,-122,-68,-112
-97,-29,68,63,-82,19,-9,-131,-112,-126,-78,-117
-107,-29,78,68,-92,24,0,-136,-112,-126,-87,-122
-97,-39,58,68,-78,9,9,-126,-112,-122,-87,-122
-97,-43,53,70,-75,4,9,-126,-112,-117,-82,-122
-102,-58,43,80,-73,-7,9,-122,-107,-122,-78,-117
-107,-58,48,82,-78,-4,9,-122,-102,-117,-73,-117
-107,-39,68,73,-87,14,0,-131,-117,-126,-82,-122
-107,-19,87,63,-97,34,0,-141,-117,-131,-87,-122
-107,-9,97,58,-102,43,-9,-146,-117,-131,-87,-126
-107,0,107,53,-107,53,-24,-146,-122,-131,-92,-131
-107,-9,97,58,-102,43,-14,-141,-112,-122,-87,-126
-107,-24,82,65,-95,29,-9,-136,-112,-122,-82,-122
-107,-29,78,68,-92,24,-9,-136,-107,-122,-78,-117
-107,-34,73,70,-90,19,-9,-141,-107,-122,-73,-117
-102,-29,73,65,-87,21,-4,-146,-107,-122,-73,-107
-97,-19,78,58,-87,29,-4,-151,-112,-122,-78,-117
-97,-19,78,58,-87,29,-9,-151,-112,-122,-78,-122
-102,-19,82,61,-92,31,-9,-146,-112,-122,-73,-122
-102,-14,87,58,-95,36,0,-146,-112,-122,-73,-122
-102,-19,82,61,-92,31,0,-146,-117,-131,-78,-122
-102,-19,82,61,-92,31,0,-146,-117,-131,-78,-122
-102,-14,87,58,-95,36,4,-151,-117,-131,-78,-122
-112,-9,102,61,-107,46,-4,-146,-117,-131,-68,-117
-107,-9,97,58,-102,43,-4,-146,-117,-131,-68,-117
-107,-14,92,61,-100,39,-4,-141,-112,-131,-68,-117
-107,-19,87,63,-97,34,-4,-141,-112,-126,-68,-117
-107,-24,82,65,-95,29,0,-151,-122,-126,-68,-122
-97,-24,73,61,-85,24,-4,-146,-117,-126,-63,-122
-97,-24,73,61,-85,24,-4,-146,-117,-122,-63,-122
-92,-24,68,58,-80,21,4,-141,-102,-117,-58,-112
-102,-39,63,70,-82,12,4,-146,-112,-122,-63,-112
-107,-29,78,68,-92,24,-4,-146,-112,-122,-68,-117
-102,-24,78,63,-90,26,-4,-146,-112,-117,-73,-117
-97,-14,82,56,-90,34,-9,-141,-102,-117,-78,-107
-102,-9,92,56,-97,41,0,-151,-107,-131,-82,-112
-102,-9,92,56,-97,41,0,-156,-112,-136,-87,-117
-107,-14,92,61,-100,39,0,-156,-112,-136,-92,-126
-112,-4,107,58,-109,51,0,-156,-107,-136,-97,-136
-112,-14,97,63,-104,41,-4,-156,-117,-126,-87,-126
-112,-24,87,68,-100,31,-4,-156,-117,-126,-87,-131
-117,-39,78,78,-97,19,-4,-151,-117,-126,-82,-136
-112,-48,63,80,-87,7,-4,-151,-117,-126,-82,-136
-107,-29,78,68,-92,24,4,-156,-117,-131,-73,-136
-107,-24,82,65,-95,29,-4,-161,-117,-131,-73,-131
-107,-29,78,68,-92,24,-4,-156,-117,-131,-73,-131
-107,-24,82,65,-95,29,-4,-151,-117,-126,-68,-131
-107,-19,87,63,-97,34,0,-146,-107,-122,-68,-122
-107,-29,78,68,-92,24,0,-146,-107,-117,-68,-122
-112,-29,82,70,-97,26,-4,-151,-112,-122,-68,-122
-122,-43,78,82,-100,17,-9,-156,-112,-126,-68,-117
-131,-39,92,85,-112,26,0,-151,-107,-122,-68,-117
-126,-39,87,82,-107,24,0,-151,-117,-117,-68,-117
-122,-39,82,80,-102,21,-9,-161,-122,-112,-78,-117
-122,-53,68,87,-95,7,-9,-156,-136,-107,-78,-117
-131,-63,68,97,-100,2,-19,-146,-131,-107,-68,-112
-131,-39,92,85,-112,26,-14,-146,-122,-112,-68,-117
-126,-53,73,90,-100,9,-9,-146,-112,-117,-68,-117
-117,-68,48,92,-82,-9,-4,-156,-102,-122,-68,-117
-107,-34,73,70,-90,19,-9,-156,-117,-126,-87,-126
-112,-24,87,68,-100,31,-9,-156,-117,-126,-87,-131
-112,-34,78,73,-95,21,4,-151,-117,-126,-87,-122
-112,-43,68,78,-90,12,14,-151,-117,-122,-82,-122
-117,-34,82,75,-100,24,0,-161,-112,-122,-82,-126
-117,-34,82,75,-100,24,0,-156,-117,-122,-82,-131
-122,-29,92,75,-107,31,0,-156,-117,-122,-82,-136
-131,-24,107,78,-119,41,0,-156,-117,-131,-87,-146
-136,-24,112,80,-124,43,-9,-165,-107,-122,-78,-151
-136,-34,102,85,-119,34,-14,-165,-117,-131,-92,-161
-146,-48,97,97,-122,24,-9,-165,-117,-131,-92,-161
-156,-53,102,104,-129,24,-4,-151,-112,-126,-92,-156
-146,-43,102,95,-124,29,-4,-161,-112,-112,-92,-141
-141,-34,107,87,-124,36,0,-161,-112,-112,-87,-136
-136,-34,102,85,-119,34,4,-151,-107,-112,-78,-131
-126,-43,82,85,-104,19,4,-141,-107,-112,-73,-136
-122,-34,87,78,-104,26,-4,-146,-112,-107,-73,-136
-122,-48,73,85,-97,12,-4,-151,-112,-112,-78,-141
-126,-78,48,102,-87,-14,9,-146,-112,-112,-82,-146
-136,-92,43,114,-90,-24,14,-141,-112,-112,-87,-141
-146,-82,63,114,-104,-9,9,-131,-112,-117,-87,-131
-141,-73,68,107,-104,-2,9,-141,-107,-122,-87,-136
-136,-63,73,100,-104,4,9,-156,-102,-126,-87,-141
-126,-48,78,87,-102,14,14,-156,-102,-126,-82,-141
-112,-29,82,70,-97,26,9,-161,-112,-131,-87,-146
-117,-19,97,68,-107,39,0,-156,-117,-136,-92,-146
-126,0,126,63,-126,63,-14,-170,-126,-141,-97,-151
-131,19,151,56,-141,85,-24,-180,-131,-146,-107,-156
-126,-48,78,87,-102,14,0,-146,-107,-117,-68,-136
-136,-78,58,107,-97,-9,9,-136,-97,-107,-58,-122
-126,-68,58,97,-92,-4,19,-131,-97,-97,-58,-117
-117,-39,78,78,-97,19,19,-146,-97,-107,-58,-126
-117,-39,78,78,-97,19,14,-146,-97,-117,-58,-126
-117,-39,78,78,-97,19,9,-146,-97,-117,-58,-126
-117,-39,78,78,-97,19,4,-146,-97,-117,-58,-126
-117,-39,78,78,-97,19,0,-146,-97,-117,-58,-126
-126,-48,78,87,-102,14,0,-146,-107,-117,-58,-136
-126,-48,78,87,-102,14,0,-146,-107,-117,-58,-136
-126,-48,78,87,-102,14,0,-146,-107,-117,-58,-136
-126,-48,78,87,-102,14,0,-146,-107,-117,-58,-136
-122,-39,82,80,-102,21,0,-146,-97,-117,-58,-126
-117,-39,78,78,-97,19,0,-146,-97,-117,-58,-126
-112,-39,73,75,-92,17,0,-146,-97,-117,-58,-126
-107,-39,68,73,-87,14,0,-146,-97,-117,-58,-126
-117,-34,82,75,-100,24,0,-156,-97,-126,-68,-126
-117,-29,87,73,-102,29,0,-156,-97,-126,-68,-126
-117,-24,92,70,-104,34,0,-156,-97,-126,-68,-126
-117,-19,97,68,-107,39,0,-156,-97,-126,-68,-126
-117,-19,97,68,-107,39,-9,-156,-97,-126,-68,-131
-117,-19,97,68,-107,39,-9,-156,-97,-126,-68,-136
-117,-19,97,68,-107,39,-9,-156,-97,-126,-68,-141
-117,-19,97,68,-107,39,-9,-156,-97,-126,-68,-146
-126,-19,107,73,-117,43,0,-156,-97,-117,-68,-146
-126,-19,107,73,-117,43,0,-156,-97,-117,-68,-146
-126,-19,107,73,-117,43,0,-156,-97,-117,-68,-146
-126,-19,107,73,-117,43,0,-156,-97,-117,-68,-146
-126,-34,92,80,-109,29,0,-146,-97,-117,-68,-136
-126,-39,87,82,-107,24,0,-146,-97,-117,-68,-136
-126,-43,82,85,-104,19,0,-146,-97,-117,-68,-136
-126,-48,78,87,-102,14,0,-146,-97,-117,-68,-136
-122,-39,82,80,-102,21,0,-156,-97,-117,-58,-126
-117,-39,78,78,-97,19,0,-156,-97,-117,-58,-126
-112,-39,73,75,-92,17,0,-156,-97,-117,-58,-126
-107,-39,68,73,-87,14,0,-156,-97,-117,-58,-126
-117,-48,68,82,-92,9,9,-146,-87,-117,-58,-126
-117,-48,68,82,-92,9,9,-146,-87,-117,-58,-126
-117,-48,68,82,-92,9,9,-146,-87,-117,-58,-126
-117,-48,68,82,-92,9,9,-146,-87,-117,-58,-126
-126,-48,78,87,-102,14,0,-146,-97,-117,-58,-136
-126,-48,78,87,-102,14,0,-146,-97,-117,-58,-136
-126,-48,78,87,-102,14,0,-146,-97,-117,-58,-136
-126,-48,78,87,-102,14,0,-146,-97,-117,-58,-136
-126,-34,92,80,-109,29,0,-156,-107,-126,-63,-146
-126,-29,97,78,-112,34,0,-156,-107,-126,-68,-146
-126,-24,102,75,-114,39,0,-156,-107,-126,-73,-146
-126,-19,107,73,-117,43,0,-156,-107,-126,-78,-146
