I, II, III, aVR, aVL, aVF, V1, V2, V3, V4, V5, V6
107,156,48,-131,29,102,-78,-29,19,-19,97,-73
112,165,53,-139,29,109,-78,-29,24,-14,102,-63
112,175,63,-143,24,119,-87,-34,29,-9,107,-58
117,190,73,-153,21,131,-97,-39,34,4,117,-53
122,214,92,-168,14,153,-117,-48,43,9,126,-43
126,229,102,-178,12,165,-126,-53,48,19,136,-34
131,244,112,-187,9,178,-141,-63,48,24,141,-29
131,258,126,-195,2,192,-151,-68,53,34,151,-19
136,268,131,-202,2,200,-161,-68,58,39,156,-9
141,273,131,-207,4,202,-165,-68,63,43,161,0
146,273,126,-209,9,200,-170,-68,53,39,156,0
151,273,122,-212,14,197,-170,-68,53,34,156,0
151,268,117,-209,17,192,-175,-68,48,34,156,-9
156,263,107,-209,24,185,-175,-68,43,24,146,-14
156,253,97,-204,29,175,-175,-68,39,19,141,-19
156,244,87,-200,34,165,-175,-63,34,19,141,-19
156,239,82,-197,36,161,-180,-68,29,14,136,-19
156,234,78,-195,39,156,-180,-68,24,9,136,-24
151,229,78,-190,36,153,-180,-63,24,9,136,-19
151,224,73,-187,39,148,-180,-68,19,9,131,-24
146,224,78,-185,34,151,-180,-63,19,9,136,-19
141,219,78,-180,31,148,-180,-68,14,9,136,-19
136,214,78,-175,29,146,-175,-63,14,4,136,-24
131,204,73,-168,29,139,-175,-63,4,0,126,-29
122,185,63,-153,29,124,-165,-58,0,-9,126,-29
117,175,58,-146,29,117,-156,-58,-9,-19,117,-39
107,161,53,-134,26,107,-151,-58,-19,-24,107,-48
97,146,48,-122,24,97,-146,-63,-24,-34,92,-63
87,136,48,-112,19,92,-136,-58,-24,-39,92,-68
78,122,43,-100,17,82,-126,-53,-24,-43,82,-78
73,112,39,-92,17,75,-117,-48,-29,-48,78,-87
73,97,24,-85,24,61,-112,-43,-34,-53,68,-92
73,87,14,-80,29,51,-107,-39,-39,-58,63,-97
68,73,4,-70,31,39,-102,-34,-43,-68,58,-107
68,58,-9,-63,39,24,-102,-29,-53,-73,48,-112
63,48,-14,-56,39,17,-102,-29,-58,-82,43,-122
63,39,-24,-51,43,7,-102,-29,-68,-87,34,-126
58,29,-29,-43,43,0,-97,-24,-68,-92,34,-126
58,29,-29,-43,43,0,-102,-24,-73,-92,29,-136
53,24,-29,-39,41,-2,-97,-19,-73,-92,29,-131
53,24,-29,-39,41,-2,-92,-24,-73,-97,24,-136
53,19,-34,-36,43,-7,-92,-24,-78,-97,24,-141
48,14,-34,-31,41,-9,-87,-14,-82,-102,19,-141
48,4,-43,-26,46,-19,-82,-14,-92,-112,9,-151
43,-24,-68,-9,56,-46,-68,4,-102,-122,-9,-161
39,-48,-87,4,63,-68,-48,19,-112,-141,-24,-180
29,-78,-107,24,68,-92,-24,43,-122,-156,-43,-200
19,-112,-131,46,75,-122,19,63,-122,-165,-63,-229
4,-141,-146,68,75,-143,58,92,-117,-180,-87,-253
-14,-170,-156,92,70,-163,107,117,-102,-190,-102,-273
-24,-175,-151,100,63,-163,151,141,-78,-185,-117,-292
-24,-165,-141,95,58,-153,185,170,-39,-170,-117,-302
0,-131,-131,65,65,-131,209,195,14,-136,-102,-302
34,-78,-112,21,73,-95,209,224,68,-87,-73,-287
87,14,-73,-51,80,-29,170,239,117,-29,-24,-253
170,141,-29,-156,100,56,97,239,175,58,48,-195
278,307,29,-292,124,168,-19,219,244,161,146,-112
385,502,117,-444,134,309,-165,175,307,278,273,0
497,717,219,-607,139,468,-351,92,366,395,400,122
585,941,356,-763,114,649,-551,-24,424,522,546,263
673,1156,483,-915,95,819,-756,-151,463,639,688,400
727,1337,610,-1032,58,973,-946,-287,483,722,814,536
746,1454,707,-1100,19,1080,-1098,-429,448,751,897,649
727,1478,751,-1102,-12,1115,-1205,-551,351,717,927,717
692,1415,722,-1054,-14,1068,-1263,-644,204,629,912,751
634,1283,649,-958,-7,966,-1268,-697,24,492,854,746
556,1093,536,-824,9,814,-1234,-732,-170,331,756,707
458,868,409,-663,24,639,-1151,-741,-346,170,658,653
361,639,278,-500,41,458,-1058,-722,-502,24,541,575
283,429,146,-356,68,287,-951,-678,-614,-112,429,488
219,248,29,-234,95,139,-849,-619,-673,-209,326,395
161,122,-39,-141,100,41,-746,-556,-692,-273,248,317
122,29,-92,-75,107,-31,-653,-488,-678,-312,180,248
107,-48,-156,-29,131,-102,-566,-414,-658,-341,117,170
97,-97,-195,0,146,-146,-483,-336,-614,-346,73,112
87,-107,-195,9,141,-151,-405,-283,-551,-336,43,63
78,-107,-185,14,131,-146,-336,-229,-488,-312,34,34
68,-102,-170,17,119,-136,-273,-180,-429,-292,24,0
58,-97,-156,19,107,-126,-214,-141,-366,-273,9,-34
48,-82,-131,17,90,-107,-161,-117,-312,-244,9,-53
39,-68,-107,14,73,-87,-126,-92,-263,-219,9,-68
29,-58,-87,14,58,-73,-97,-78,-224,-195,14,-78
24,-53,-78,14,51,-65,-73,-63,-190,-180,9,-97
19,-53,-73,17,46,-63,-58,-53,-170,-170,0,-112
14,-58,-73,21,43,-65,-39,-34,-151,-165,0,-122
9,-63,-73,26,41,-68,-29,-24,-141,-161,-14,-136
4,-68,-73,31,39,-70,-14,-14,-126,-161,-19,-141
4,-73,-78,34,41,-75,-14,-9,-122,-161,-24,-156
0,-78,-78,39,39,-78,0,4,-107,-151,-19,-156
0,-73,-73,36,36,-73,4,4,-102,-146,-19,-156
4,-68,-73,31,39,-70,4,4,-97,-146,-24,-161
4,-63,-68,29,36,-65,4,4,-92,-136,-19,-161
4,-63,-68,29,36,-65,9,4,-87,-131,-14,-156
4,-58,-63,26,34,-61,4,0,-92,-136,-14,-161
4,-58,-63,26,34,-61,9,4,-87,-131,-14,-161
4,-58,-63,26,34,-61,9,9,-87,-131,-14,-161
4,-58,-63,26,34,-61,9,9,-82,-131,-14,-165
4,-58,-63,26,34,-61,9,14,-78,-131,-14,-165
4,-53,-58,24,31,-56,14,14,-73,-126,-14,-165
9,-48,-58,19,34,-53,9,9,-73,-126,-14,-165
9,-43,-53,17,31,-48,14,9,-68,-122,-9,-165
9,-43,-53,17,31,-48,14,9,-68,-122,-9,-161
9,-43,-53,17,31,-48,19,14,-68,-122,-9,-161
9,-43,-53,17,31,-48,19,19,-68,-126,-14,-161
9,-48,-58,19,34,-53,19,19,-68,-126,-19,-165
4,-53,-58,24,31,-56,29,24,-63,-126,-14,-165
4,-53,-58,24,31,-56,29,24,-63,-126,-14,-165
9,-53,-63,21,36,-58,29,24,-58,-122,-14,-165
4,-53,-58,24,31,-56,29,24,-63,-122,-14,-165
4,-53,-58,24,31,-56,29,24,-63,-122,-14,-165
4,-53,-58,24,31,-56,29,24,-63,-122,-9,-165
4,-53,-58,24,31,-56,29,29,-58,-122,-9,-161
4,-53,-58,24,31,-56,29,29,-58,-117,-9,-165
4,-48,-53,21,29,-51,29,29,-53,-117,-9,-165
4,-48,-53,21,29,-51,34,29,-48,-112,-9,-165
4,-43,-48,19,26,-46,29,24,-48,-117,-14,-165
4,-39,-43,17,24,-41,29,24,-48,-112,-9,-165
4,-39,-43,17,24,-41,34,24,-48,-112,-9,-161
4,-34,-39,14,21,-36,34,24,-43,-107,-9,-161
4,-34,-39,14,21,-36,34,24,-43,-107,0,-161
4,-34,-39,14,21,-36,34,29,-39,-102,0,-165
9,-29,-39,9,24,-34,34,24,-39,-107,-9,-170
9,-29,-39,9,24,-34,34,24,-34,-107,-9,-170
4,-29,-34,12,19,-31,34,24,-34,-102,-9,-170
4,-24,-29,9,17,-26,39,24,-34,-102,-9,-170
4,-24,-29,9,17,-26,39,24,-39,-102,0,-165
4,-29,-34,12,19,-31,43,29,-39,-107,-9,-165
4,-34,-39,14,21,-36,43,34,-39,-107,0,-161
4,-39,-43,17,24,-41,43,39,-43,-112,-9,-161
4,-43,-48,19,26,-46,43,39,-43,-117,-9,-165
4,-48,-53,21,29,-51,48,43,-39,-112,-9,-161
4,-53,-58,24,31,-56,48,39,-39,-117,-14,-165
4,-53,-58,24,31,-56,53,34,-39,-117,-14,-165
4,-53,-58,24,31,-56,53,34,-39,-117,-9,-161
4,-48,-53,21,29,-51,53,39,-39,-112,-9,-161
4,-48,-53,21,29,-51,58,39,-34,-112,-9,-161
4,-48,-53,21,29,-51,58,43,-34,-112,-9,-161
4,-48,-53,21,29,-51,58,43,-34,-112,-9,-161
4,-43,-48,19,26,-46,58,39,-34,-112,-14,-165
4,-39,-43,17,24,-41,58,39,-29,-107,-14,-165
4,-39,-43,17,24,-41,58,39,-24,-102,-9,-165
4,-34,-39,14,21,-36,63,39,-19,-97,0,-161
4,-29,-34,12,19,-31,58,39,-19,-97,0,-161
9,-24,-34,7,21,-29,63,39,-14,-97,4,-161
4,-19,-24,7,14,-21,63,43,-14,-92,9,-156
4,-19,-24,7,14,-21,63,48,-9,-92,4,-156
4,-19,-24,7,14,-21,68,48,0,-87,4,-161
4,-19,-24,7,14,-21,68,48,4,-87,4,-161
4,-14,-19,4,12,-17,63,43,4,-87,0,-165
4,-14,-19,4,12,-17,68,43,9,-82,0,-165
4,-9,-14,2,9,-12,68,43,9,-82,4,-165
4,0,-4,-2,4,-2,73,43,14,-78,9,-161
9,0,-9,-4,9,-4,68,43,14,-82,9,-161
9,4,-4,-7,7,0,73,43,14,-78,9,-156
9,9,0,-9,4,4,73,43,24,-73,9,-156
9,9,0,-9,4,4,78,43,29,-68,14,-151
9,19,9,-14,0,14,73,39,34,-68,14,-151
9,19,9,-14,0,14,78,39,39,-63,19,-146
9,29,19,-19,-4,24,73,34,39,-63,14,-146
9,34,24,-21,-7,29,78,34,48,-53,24,-141
9,39,29,-24,-9,34,82,34,58,-48,29,-136
9,43,34,-26,-12,39,78,29,58,-48,29,-136
9,48,39,-29,-14,43,82,34,63,-43,34,-131
9,53,43,-31,-17,48,82,39,73,-34,39,-126
9,58,48,-34,-19,53,82,34,82,-34,39,-126
9,68,58,-39,-24,63,87,34,92,-24,48,-122
9,73,63,-41,-26,68,82,29,92,-24,48,-122
14,78,63,-46,-24,70,87,29,102,-14,58,-117
14,87,73,-51,-29,80,82,24,107,-14,58,-117
9,92,82,-51,-36,87,87,24,112,-9,63,-107
14,97,82,-56,-34,90,87,19,112,-9,68,-107
14,102,87,-58,-36,95,87,24,122,4,73,-107
19,107,87,-63,-34,97,87,19,131,9,73,-107
19,117,97,-68,-39,107,92,19,141,19,78,-97
14,122,107,-68,-46,114,97,14,146,24,82,-97
14,126,112,-70,-48,119,92,9,146,24,82,-97
9,136,126,-73,-58,131,97,4,156,29,87,-92
4,141,136,-73,-65,139,102,4,161,29,92,-87
0,146,146,-73,-73,146,102,0,165,34,92,-87
0,146,146,-73,-73,146,102,0,175,39,97,-82
0,156,156,-78,-78,156,102,0,180,43,97,-78
0,170,170,-85,-85,170,102,-9,190,48,102,-73
4,180,175,-92,-85,178,97,-19,195,58,107,-68
4,190,185,-97,-90,187,102,-14,209,68,117,-58
4,204,200,-104,-97,202,102,-24,214,73,122,-53
4,209,204,-107,-100,207,102,-24,224,82,131,-43
4,219,214,-112,-104,217,102,-29,229,82,131,-39
0,224,224,-112,-112,224,102,-29,244,87,141,-34
0,234,234,-117,-117,234,102,-34,248,92,141,-29
-9,244,253,-117,-131,248,102,-39,258,102,151,-24
-9,253,263,-122,-136,258,97,-48,258,107,151,-19
-9,258,268,-124,-139,263,97,-53,268,112,161,-9
-14,268,283,-126,-148,275,102,-58,278,122,165,0
-14,278,292,-131,-153,285,97,-68,278,122,170,0
-14,283,297,-134,-156,290,97,-73,287,126,175,9
-19,292,312,-136,-165,302,92,-78,292,131,180,14
-19,302,322,-141,-170,312,92,-82,297,131,180,19
-19,307,326,-143,-173,317,92,-87,307,141,190,29
-24,312,336,-143,-180,324,87,-97,312,146,195,34
-29,317,346,-143,-187,331,87,-107,317,151,204,48
-29,322,351,-146,-190,336,87,-117,317,151,209,53
-34,322,356,-143,-195,339,82,-122,322,156,214,63
-39,326,366,-143,-202,346,73,-131,322,156,219,68
-43,326,370,-141,-207,348,68,-136,322,156,224,68
-43,326,370,-141,-207,348,63,-146,322,156,224,73
-43,331,375,-143,-209,353,58,-151,326,161,229,78
-43,336,380,-146,-212,358,48,-161,326,161,234,82
-48,341,390,-146,-219,366,43,-170,331,165,239,87
-48,346,395,-148,-222,370,34,-185,326,165,239,87
-48,346,395,-148,-222,370,24,-195,322,165,239,92
-53,346,400,-146,-226,373,19,-195,322,165,248,97
-53,346,400,-146,-226,373,9,-200,317,165,244,102
-53,346,400,-146,-226,373,0,-214,312,161,244,102
-58,341,400,-141,-229,370,-14,-219,307,156,239,102
-58,341,400,-141,-229,370,-24,-229,302,151,239,97
-58,336,395,-139,-226,366,-29,-224,302,151,239,102
-58,336,395,-139,-226,366,-34,-229,292,151,239,102
-53,331,385,-139,-219,358,-43,-234,287,146,234,102
-53,331,385,-139,-219,358,-53,-234,278,146,234,102
-53,322,375,-134,-214,348,-58,-234,268,136,229,97
-48,317,366,-134,-207,341,-63,-234,253,126,224,87
-48,307,356,-129,-202,331,-73,-239,239,117,214,82
-48,297,346,-124,-197,322,-73,-239,234,117,214,73
-53,287,341,-117,-197,314,-78,-234,224,112,209,68
-48,278,326,-114,-187,302,-82,-239,209,97,190,58
-48,268,317,-109,-183,292,-82,-234,195,92,185,53
-43,258,302,-107,-173,280,-87,-229,185,87,180,43
-43,253,297,-104,-170,275,-87,-224,175,82,175,43
-43,244,287,-100,-165,265,-92,-219,161,73,165,34
-39,234,273,-97,-156,253,-92,-209,161,68,165,34
-34,224,258,-95,-146,241,-97,-200,146,58,156,29
-29,214,244,-92,-136,229,-97,-195,136,53,151,19
-24,204,229,-90,-126,217,-92,-185,131,48,146,19
-19,190,209,-85,-114,200,-97,-180,122,43,141,14
-14,185,200,-85,-107,192,-97,-170,112,39,136,9
-9,175,185,-82,-97,180,-97,-161,102,34,136,4
0,170,170,-85,-85,170,-97,-151,92,29,131,0
4,161,156,-82,-75,158,-92,-136,87,29,131,0
9,156,146,-82,-68,151,-92,-131,82,24,126,-9
14,151,136,-82,-61,143,-92,-122,73,19,122,-14
19,146,126,-82,-53,136,-92,-122,68,9,117,-24
24,141,117,-82,-46,129,-92,-112,63,4,112,-29
29,136,107,-82,-39,122,-92,-107,53,4,107,-29
34,126,92,-80,-29,109,-92,-102,48,0,102,-34
34,122,87,-78,-26,104,-92,-92,39,-14,97,-39
39,112,73,-75,-17,92,-87,-78,39,-14,97,-39
43,107,63,-75,-9,85,-87,-68,29,-14,92,-39
43,102,58,-73,-7,80,-87,-63,29,-19,87,-43
48,97,48,-73,0,73,-87,-58,24,-24,87,-48
53,97,43,-75,4,70,-87,-53,24,-19,87,-48
58,97,39,-78,9,68,-87,-53,14,-29,82,-53
58,92,34,-75,12,63,-82,-43,19,-24,82,-53
58,92,34,-75,12,63,-82,-43,19,-24,82,-58
58,92,34,-75,12,63,-82,-43,19,-24,78,-63
58,92,34,-75,12,63,-82,-39,19,-24,78,-68
63,92,29,-78,17,61,-87,-43,14,-29,73,-78
63,97,34,-80,14,65,-87,-39,14,-29,68,-78
63,97,34,-80,14,65,-87,-39,14,-29,68,-82
63,97,34,-80,14,65,-87,-39,9,-29,68,-82
68,97,29,-82,19,63,-82,-34,9,-24,68,-78
68,97,29,-82,19,63,-82,-29,9,-29,68,-78
68,92,24,-80,21,58,-82,-29,9,-29,68,-78
68,92,24,-80,21,58,-82,-24,4,-34,63,-82
68,87,19,-78,24,53,-78,-19,0,-39,63,-82
73,87,14,-80,29,51,-78,-19,0,-39,63,-82
73,87,14,-80,29,51,-78,-14,0,-39,63,-82
73,82,9,-78,31,46,-78,-14,0,-39,63,-82
73,82,9,-78,31,46,-73,-14,0,-39,63,-82
78,78,0,-78,39,39,-73,-9,4,-39,63,-82
78,78,0,-78,39,39,-73,-9,4,-39,63,-82
78,78,0,-78,39,39,-73,0,4,-39,63,-87
78,73,-4,-75,41,34,-68,4,9,-34,63,-82
78,68,-9,-73,43,29,-63,4,9,-34,63,-87
73,68,-4,-70,39,31,-63,4,9,-34,63,-87
73,68,-4,-70,39,31,-63,0,4,-34,58,-92
68,68,0,-68,34,34,-58,4,9,-34,63,-87
68,73,4,-70,31,39,-63,0,9,-34,58,-92
68,73,4,-70,31,39,-63,0,9,-34,58,-92
68,73,4,-70,31,39,-63,0,9,-39,53,-97
68,73,4,-70,31,39,-63,0,9,-39,53,-97
68,73,4,-70,31,39,-63,0,9,-43,48,-97
68,73,4,-70,31,39,-63,0,4,-43,48,-97
68,73,4,-70,31,39,-63,0,4,-43,43,-102
63,73,9,-68,26,41,-58,0,9,-43,48,-97
63,73,9,-68,26,41,-58,4,9,-39,53,-92
63,73,9,-68,26,41,-58,4,9,-39,53,-92
63,73,9,-68,26,41,-58,4,9,-39,53,-92
63,73,9,-68,26,41,-58,4,9,-39,53,-92
68,73,4,-70,31,39,-63,4,9,-43,53,-92
68,68,0,-68,34,34,-53,9,14,-39,58,-87
73,68,-4,-70,39,31,-58,9,9,-43,53,-92
78,68,-9,-73,43,29,-58,9,9,-43,58,-92
82,68,-14,-75,48,26,-53,14,9,-43,58,-92
82,63,-19,-73,51,21,-53,14,4,-48,53,-92
78,58,-19,-68,48,19,-53,19,4,-48,53,-87
78,53,-24,-65,51,14,-53,19,0,-53,53,-92
73,53,-19,-63,46,17,-58,14,0,-53,48,-97
68,48,-19,-58,43,14,-53,19,4,-48,53,-92
68,53,-14,-61,41,19,-53,19,4,-48,53,-92
68,53,-14,-61,41,19,-53,19,4,-48,53,-87
68,58,-9,-63,39,24,-58,14,4,-48,48,-92
68,58,-9,-63,39,24,-58,14,4,-48,48,-92
73,63,-9,-68,41,26,-58,14,0,-48,48,-92
73,58,-14,-65,43,21,-58,19,0,-53,48,-92
73,58,-14,-65,43,21,-58,14,0,-53,48,-97
68,58,-9,-63,39,24,-58,14,-9,-58,48,-97
73,58,-14,-65,43,21,-58,14,-9,-53,48,-97
73,58,-14,-65,43,21,-58,14,0,-53,48,-97
68,58,-9,-63,39,24,-63,14,-9,-53,48,-97
68,58,-9,-63,39,24,-63,9,-9,-53,48,-97
68,63,-4,-65,36,29,-63,14,-9,-48,48,-97
68,63,-4,-65,36,29,-63,14,0,-43,48,-92
73,68,-4,-70,39,31,-68,9,-9,-48,43,-97
73,68,-4,-70,39,31,-68,9,-9,-48,43,-97
73,73,0,-73,36,36,-68,9,-9,-43,43,-97
73,73,0,-73,36,36,-68,9,0,-43,48,-97
78,78,0,-78,39,39,-73,4,-14,-48,43,-102
78,78,0,-78,39,39,-68,4,-14,-48,39,-102
78,73,-4,-75,41,34,-63,9,-9,-43,48,-92
78,73,-4,-75,41,34,-68,9,-14,-48,48,-92
78,68,-9,-73,43,29,-68,9,-14,-48,48,-92
78,63,-14,-70,46,24,-68,9,-19,-53,43,-97
78,63,-14,-70,46,24,-68,9,-19,-53,43,-97
78,63,-14,-70,46,24,-73,9,-24,-53,43,-102
78,63,-14,-70,46,24,-73,9,-24,-53,39,-102
78,63,-14,-70,46,24,-73,4,-24,-58,39,-107
78,63,-14,-70,46,24,-73,4,-29,-58,39,-107
78,63,-14,-70,46,24,-73,4,-29,-63,39,-107
78,58,-19,-68,48,19,-68,14,-29,-58,43,-102
78,53,-24,-65,51,14,-73,14,-29,-63,39,-107
78,53,-24,-65,51,14,-73,14,-29,-58,39,-107
78,53,-24,-65,51,14,-73,14,-24,-53,39,-102
78,58,-19,-68,48,19,-73,9,-24,-53,43,-97
78,63,-14,-70,46,24,-78,4,-24,-53,39,-102
78,63,-14,-70,46,24,-78,4,-24,-53,43,-97
78,68,-9,-73,43,29,-78,4,-29,-48,43,-97
73,68,-4,-70,39,31,-78,4,-29,-53,43,-97
73,63,-9,-68,41,26,-73,9,-29,-48,48,-97
73,63,-9,-68,41,26,-73,9,-34,-53,48,-102
73,63,-9,-68,41,26,-68,9,-34,-53,43,-102
73,58,-14,-65,43,21,-68,9,-34,-53,43,-107
73,58,-14,-65,43,21,-68,9,-34,-53,43,-107
73,58,-14,-65,43,21,-68,9,-39,-58,39,-107
73,58,-14,-65,43,21,-68,14,-39,-58,39,-107
73,53,-19,-63,46,17,-73,14,-43,-63,34,-107
73,48,-24,-61,48,12,-68,19,-39,-58,39,-102
73,48,-24,-61,48,12,-68,19,-39,-58,34,-107
73,48,-24,-61,48,12,-73,19,-39,-58,34,-107
78,48,-29,-63,53,9,-78,9,-43,-63,34,-112
78,48,-29,-63,53,9,-78,9,-43,-63,34,-107
78,48,-29,-63,53,9,-78,9,-43,-63,34,-107
78,53,-24,-65,51,14,-78,9,-43,-58,34,-102
82,53,-29,-68,56,12,-73,9,-43,-58,39,-102
78,48,-29,-63,53,9,-73,9,-43,-58,39,-102
78,48,-29,-63,53,9,-73,9,-43,-58,34,-107
82,48,-34,-65,58,7,-78,9,-43,-58,39,-107
82,48,-34,-65,58,7,-73,9,-39,-58,39,-107
82,48,-34,-65,58,7,-73,9,-39,-58,39,-107
82,53,-29,-68,56,12,-73,9,-43,-53,39,-107
82,53,-29,-68,56,12,-78,4,-43,-53,39,-102
82,53,-29,-68,56,12,-78,4,-43,-53,43,-102
82,53,-29,-68,56,12,-78,4,-43,-53,43,-107
82,58,-24,-70,53,17,-82,0,-48,-58,34,-112
82,58,-24,-70,53,17,-82,-9,-43,-58,34,-112
82,53,-29,-68,56,12,-78,0,-39,-53,39,-107
78,53,-24,-65,51,14,-78,0,-39,-58,39,-107
78,53,-24,-65,51,14,-78,0,-43,-58,39,-107
78,53,-24,-65,51,14,-78,-9,-43,-58,34,-107
78,53,-24,-65,51,14,-78,-9,-48,-58,34,-107
78,48,-29,-63,53,9,-78,0,-48,-63,34,-107
73,48,-24,-61,48,12,-73,4,-43,-58,34,-102
73,48,-24,-61,48,12,-73,4,-43,-58,34,-102
73,48,-24,-61,48,12,-73,4,-43,-58,34,-97
78,53,-24,-65,51,14,-78,0,-43,-63,34,-97
78,53,-24,-65,51,14,-78,0,-43,-58,39,-97
78,58,-19,-68,48,19,-78,0,-39,-53,39,-92
78,58,-19,-68,48,19,-78,0,-39,-53,43,-92
82,63,-19,-73,51,21,-82,0,-43,-58,39,-97
82,63,-19,-73,51,21,-82,0,-43,-53,39,-97
82,63,-19,-73,51,21,-82,0,-43,-53,39,-97
82,63,-19,-73,51,21,-82,0,-43,-53,39,-97
82,63,-19,-73,51,21,-82,0,-43,-58,34,-97
82,63,-19,-73,51,21,-82,0,-43,-53,39,-97
78,63,-14,-70,46,24,-82,0,-43,-53,39,-97
78,63,-14,-70,46,24,-87,0,-43,-58,34,-102
78,63,-14,-70,46,24,-87,0,-43,-58,34,-102
78,63,-14,-70,46,24,-82,0,-43,-58,34,-102
78,68,-9,-73,43,29,-82,0,-39,-53,39,-102
78,68,-9,-73,43,29,-87,-9,-39,-53,39,-102
78,68,-9,-73,43,29,-87,-9,-34,-48,39,-102
78,73,-4,-75,41,34,-87,-9,-34,-48,43,-102
78,73,-4,-75,41,34,-87,-9,-29,-43,43,-97
73,73,0,-73,36,36,-87,-14,-29,-43,48,-97
73,73,0,-73,36,36,-87,-14,-34,-39,48,-97
73,73,0,-73,36,36,-87,-9,-34,-43,48,-97
73,73,0,-73,36,36,-87,-14,-39,-43,43,-97
73,73,0,-73,36,36,-87,-14,-43,-48,39,-102
68,68,0,-68,34,34,-82,-9,-43,-48,43,-97
73,68,-4,-70,39,31,-87,-14,-48,-58,34,-102
73,63,-9,-68,41,26,-82,-9,-48,-53,39,-92
78,63,-14,-70,46,24,-87,-14,-53,-63,34,-97
78,58,-19,-68,48,19,-82,0,-48,-58,39,-92
82,58,-24,-70,53,17,-82,0,-58,-63,34,-97
82,53,-29,-68,56,12,-78,9,-53,-58,39,-92
82,48,-34,-65,58,7,-78,9,-53,-63,34,-92
82,48,-34,-65,58,7,-78,9,-58,-63,34,-97
82,43,-39,-63,61,2,-78,4,-58,-63,29,-102
82,43,-39,-63,61,2,-78,4,-63,-68,29,-102
82,43,-39,-63,61,2,-78,4,-63,-68,29,-102
82,48,-34,-65,58,7,-78,4,-63,-68,29,-107
82,48,-34,-65,58,7,-78,4,-63,-68,29,-102
82,48,-34,-65,58,7,-82,4,-63,-63,29,-102
82,53,-29,-68,56,12,-82,4,-58,-63,29,-102
82,53,-29,-68,56,12,-82,4,-53,-63,29,-102
82,53,-29,-68,56,12,-82,4,-53,-63,29,-102
82,53,-29,-68,56,12,-82,4,-58,-63,29,-102
82,48,-34,-65,58,7,-82,4,-58,-63,29,-102
82,48,-34,-65,58,7,-82,4,-63,-68,29,-102
82,43,-39,-63,61,2,-82,4,-63,-68,24,-102
82,39,-43,-61,63,-2,-78,9,-68,-68,29,-102
78,39,-39,-58,58,0,-78,9,-68,-73,24,-107
78,39,-39,-58,58,0,-82,9,-68,-73,24,-107
78,39,-39,-58,58,0,-82,9,-68,-73,24,-112
78,39,-39,-58,58,0,-82,4,-68,-73,24,-112
78,39,-39,-58,58,0,-78,4,-68,-73,24,-112
78,39,-39,-58,58,0,-82,4,-68,-73,24,-112
78,39,-39,-58,58,0,-82,4,-68,-68,24,-112
78,34,-43,-56,61,-4,-78,4,-68,-68,24,-107
78,34,-43,-56,61,-4,-78,4,-73,-73,24,-107
78,34,-43,-56,61,-4,-78,9,-68,-68,24,-102
78,34,-43,-56,61,-4,-78,4,-68,-68,29,-97
78,34,-43,-56,61,-4,-78,4,-68,-68,29,-97
78,34,-43,-56,61,-4,-78,4,-63,-68,29,-97
78,34,-43,-56,61,-4,-78,4,-63,-63,29,-97
82,39,-43,-61,63,-2,-82,4,-63,-63,34,-97
82,39,-43,-61,63,-2,-82,4,-63,-63,34,-97
78,39,-39,-58,58,0,-82,4,-63,-63,29,-97
78,39,-39,-58,58,0,-82,4,-63,-63,29,-102
78,39,-39,-58,58,0,-82,4,-63,-63,29,-102
78,43,-34,-61,56,4,-82,4,-63,-63,29,-102
78,43,-34,-61,56,4,-82,4,-63,-63,29,-102
82,48,-34,-65,58,7,-82,0,-68,-68,24,-107
82,48,-34,-65,58,7,-82,-9,-63,-63,24,-102
82,48,-34,-65,58,7,-82,0,-63,-63,29,-102
82,53,-29,-68,56,12,-78,0,-63,-63,29,-97
82,53,-29,-68,56,12,-78,0,-58,-58,34,-97
82,58,-24,-70,53,17,-78,0,-58,-58,34,-97
87,68,-19,-78,53,24,-78,0,-53,-53,34,-97
92,78,-14,-85,53,31,-78,0,-48,-48,39,-92
97,87,-9,-92,53,39,-78,0,-39,-43,43,-87
102,97,-4,-100,53,46,-78,-9,-34,-39,48,-82
107,107,0,-107,53,53,-82,-9,-34,-34,53,-82
107,112,4,-109,51,58,-78,-9,-24,-24,58,-73
107,122,14,-114,46,68,-82,-14,-24,-24,63,-73
112,126,14,-119,48,70,-82,-9,-19,-19,68,-68
112,136,24,-124,43,80,-82,-14,-14,-14,68,-63
112,146,34,-129,39,90,-87,-19,-9,-9,73,-63
112,151,39,-131,36,95,-87,-19,4,0,78,-53
117,161,43,-139,36,102,-87,-24,9,9,87,-48
117,165,48,-141,34,107,-92,-29,9,9,87,-48
117,165,48,-141,34,107,-87,-29,9,9,87,-48
112,165,53,-139,29,109,-82,-24,14,14,87,-48
112,161,48,-136,31,104,-78,-24,9,9,87,-53
112,156,43,-134,34,100,-73,-24,9,9,82,-53
112,156,43,-134,34,100,-68,-19,9,4,82,-53
117,161,43,-139,36,102,-68,-19,14,9,82,-53
117,170,53,-143,31,112,-73,-19,14,14,87,-48
126,180,53,-153,36,117,-82,-24,24,19,92,-39
131,204,73,-168,29,139,-92,-29,24,24,97,-34
136,219,82,-178,26,151,-107,-34,39,34,112,-19
146,234,87,-190,29,161,-122,-39,39,39,117,-14
151,248,97,-200,26,173,-136,-43,48,53,126,0
156,263,107,-209,24,185,-151,-53,48,53,131,4
161,273,112,-217,24,192,-161,-58,53,58,136,9
165,273,107,-219,29,190,-165,-58,48,58,141,14
170,278,107,-224,31,192,-175,-63,43,53,141,9
170,273,102,-222,34,187,-170,-58,43,58,141,14
170,268,97,-219,36,183,-170,-53,39,53,136,14
170,263,92,-217,39,178,-170,-58,29,43,131,4
170,253,82,-212,43,168,-170,-53,29,43,126,4
170,248,78,-209,46,163,-170,-48,24,39,122,4
170,248,78,-209,46,163,-170,-48,19,34,122,4
175,248,73,-212,51,161,-170,-48,14,34,122,4
175,244,68,-209,53,156,-175,-48,14,34,122,9
170,239,68,-204,51,153,-170,-43,14,34,126,9
170,239,68,-204,51,153,-170,-48,9,34,122,9
165,234,68,-200,48,151,-165,-43,9,29,122,9
161,224,63,-192,48,143,-161,-43,4,24,117,4
146,214,68,-180,39,141,-161,-43,-9,19,107,0
136,195,58,-165,39,126,-151,-43,-9,14,102,-14
126,180,53,-153,36,117,-146,-39,-14,9,97,-19
117,165,48,-141,34,107,-141,-39,-24,0,87,-29
107,156,48,-131,29,102,-136,-39,-29,-9,82,-34
102,141,39,-122,31,90,-131,-39,-39,-19,73,-48
92,126,34,-109,29,80,-117,-34,-39,-24,68,-53
87,117,29,-102,29,73,-112,-29,-43,-29,58,-63
87,102,14,-95,36,58,-102,-24,-48,-34,53,-73
82,87,4,-85,39,46,-97,-24,-53,-43,43,-82
78,78,0,-78,39,39,-92,-19,-58,-48,34,-92
73,68,-4,-70,39,31,-87,-19,-63,-53,29,-97
73,58,-14,-65,43,21,-87,-19,-68,-58,24,-102
68,48,-19,-58,43,14,-87,-14,-73,-63,19,-107
68,43,-24,-56,46,9,-87,-14,-78,-68,14,-112
68,39,-29,-53,48,4,-82,-9,-78,-68,9,-112
68,29,-39,-48,53,-4,-87,-9,-82,-73,4,-117
68,29,-39,-48,53,-4,-87,-14,-87,-78,4,-122
68,24,-43,-46,56,-9,-82,0,-82,-73,9,-122
68,19,-48,-43,58,-14,-82,0,-87,-78,4,-122
68,9,-58,-39,63,-24,-73,9,-97,-87,-9,-126
63,-14,-78,-24,70,-46,-68,14,-107,-102,-19,-141
58,-39,-97,-9,78,-68,-48,29,-117,-117,-39,-156
48,-68,-117,9,82,-92,-19,48,-126,-131,-53,-175
34,-102,-136,34,85,-119,14,68,-136,-151,-78,-200
19,-141,-161,61,90,-151,58,97,-131,-161,-97,-229
4,-170,-175,82,90,-173,107,122,-122,-170,-122,-258
-9,-185,-175,97,82,-180,156,151,-102,-170,-136,-278
-14,-185,-170,100,78,-178,195,180,-63,-156,-136,-292
0,-161,-161,80,80,-161,224,209,-19,-126,-126,-292
29,-107,-136,39,82,-122,224,229,29,-92,-107,-287
78,-29,-107,-24,92,-68,190,244,82,-34,-68,-258
156,92,-63,-124,109,14,126,248,136,43,0,-209
258,248,-9,-253,134,119,29,239,204,141,92,-122
370,439,68,-405,151,253,-122,190,258,248,204,-29
488,649,161,-568,163,405,-297,122,322,370,336,97
590,868,278,-729,156,573,-492,19,370,488,478,234
683,1083,400,-883,141,741,-697,-107,414,600,619,375
746,1268,522,-1007,112,895,-893,-248,429,688,741,512
775,1390,614,-1083,80,1002,-1054,-375,409,732,834,624
766,1439,673,-1102,46,1056,-1171,-512,322,712,873,697
732,1390,658,-1061,36,1024,-1244,-614,190,634,868,741
678,1268,590,-973,43,929,-1263,-683,19,512,819,736
595,1088,492,-841,51,790,-1234,-717,-170,356,732,707
502,878,375,-690,63,627,-1166,-741,-356,185,629,649
400,653,253,-527,73,453,-1078,-736,-517,39,517,575
317,434,117,-375,100,275,-971,-697,-639,-97,395,488
248,253,4,-251,122,129,-863,-639,-707,-200,297,395
185,117,-68,-151,126,24,-761,-575,-732,-268,214,317
141,19,-122,-80,131,-51,-668,-517,-727,-312,141,248
117,-58,-175,-29,146,-117,-580,-439,-697,-331,87,175
107,-107,-214,0,161,-161,-497,-361,-663,-346,43,117
97,-126,-224,14,161,-175,-419,-302,-600,-336,14,68
87,-126,-214,19,151,-170,-346,-248,-536,-312,0,34
82,-117,-200,17,141,-158,-278,-195,-473,-287,-14,4
73,-107,-180,17,126,-143,-219,-151,-414,-263,-19,-29
63,-92,-156,14,109,-124,-161,-117,-346,-234,-19,-43
53,-73,-126,9,90,-100,-126,-92,-292,-200,-19,-58
43,-53,-97,4,70,-75,-102,-78,-248,-175,-14,-73
39,-43,-82,2,61,-63,-73,-58,-200,-156,-9,-82
39,-39,-78,0,58,-58,-53,-43,-170,-136,-14,-97
34,-39,-73,2,53,-56,-39,-29,-151,-131,-14,-112
29,-43,-73,7,51,-58,-24,-14,-136,-122,-19,-122
19,-48,-68,14,43,-58,-9,0,-126,-117,-24,-131
19,-53,-73,17,46,-63,4,9,-126,-122,-34,-141
14,-58,-73,21,43,-65,9,19,-117,-117,-34,-146
14,-63,-78,24,46,-70,14,19,-117,-117,-39,-151
14,-63,-78,24,46,-70,14,19,-112,-117,-39,-156
19,-63,-82,21,51,-73,19,19,-107,-112,-34,-156
19,-58,-78,19,48,-68,19,19,-102,-112,-39,-161
19,-53,-73,17,46,-63,19,19,-102,-107,-39,-156
24,-53,-78,14,51,-65,19,19,-97,-102,-34,-156
24,-48,-73,12,48,-61,19,19,-97,-102,-39,-161
24,-48,-73,12,48,-61,19,19,-92,-102,-39,-161
19,-48,-68,14,43,-58,24,24,-82,-92,-34,-161
19,-43,-63,12,41,-53,24,24,-82,-97,-34,-165
19,-43,-63,12,41,-53,24,24,-78,-92,-34,-165
19,-39,-58,9,39,-48,29,24,-78,-92,-34,-165
19,-43,-63,12,41,-53,29,24,-78,-92,-34,-165
19,-43,-63,12,41,-53,29,24,-82,-97,-34,-165
19,-43,-63,12,41,-53,29,24,-82,-97,-39,-165
19,-48,-68,14,43,-58,34,34,-78,-92,-34,-165
24,-48,-73,12,48,-61,34,29,-78,-102,-43,-175
24,-48,-73,12,48,-61,34,34,-78,-102,-43,-175
29,-48,-78,9,53,-63,39,34,-73,-97,-43,-175
29,-43,-73,7,51,-58,43,34,-73,-97,-43,-175
29,-43,-73,7,51,-58,43,39,-78,-97,-43,-175
24,-48,-73,12,48,-61,43,39,-78,-102,-43,-175
24,-48,-73,12,48,-61,43,39,-82,-107,-48,-175
19,-53,-73,17,46,-63,48,43,-78,-107,-48,-170
19,-58,-78,19,48,-68,48,43,-78,-107,-48,-175
19,-58,-78,19,48,-68,48,43,-78,-102,-48,-175
24,-58,-82,17,53,-70,48,43,-73,-102,-43,-170
24,-53,-78,14,51,-65,48,39,-73,-97,-43,-170
19,-53,-73,17,46,-63,48,39,-73,-97,-39,-170
24,-48,-73,12,48,-61,43,34,-73,-97,-43,-170
24,-48,-73,12,48,-61,48,39,-78,-97,-43,-170
19,-53,-73,17,46,-63,53,43,-73,-92,-39,-170
19,-53,-73,17,46,-63,53,43,-73,-97,-43,-170
19,-58,-78,19,48,-68,58,43,-68,-97,-43,-175
19,-53,-73,17,46,-63,58,43,-68,-92,-43,-175
19,-53,-73,17,46,-63,58,43,-63,-92,-43,-175
19,-53,-73,17,46,-63,63,43,-63,-92,-39,-170
19,-48,-68,14,43,-58,63,43,-63,-87,-39,-170
19,-53,-73,17,46,-63,63,48,-63,-87,-39,-170
19,-53,-73,17,46,-63,63,48,-63,-87,-39,-170
19,-53,-73,17,46,-63,63,53,-58,-87,-39,-170
19,-48,-68,14,43,-58,68,53,-58,-82,-39,-170
19,-48,-68,14,43,-58,68,53,-53,-82,-39,-170
24,-43,-68,9,46,-56,63,48,-53,-82,-39,-175
24,-39,-63,7,43,-51,63,48,-48,-82,-39,-170
24,-34,-58,4,41,-46,58,43,-53,-82,-39,-175
24,-34,-58,4,41,-46,63,43,-48,-82,-39,-175
24,-34,-58,4,41,-46,63,43,-48,-82,-39,-175
24,-34,-58,4,41,-46,63,48,-48,-82,-39,-175
19,-34,-53,7,36,-43,68,53,-39,-78,-34,-175
19,-34,-53,7,36,-43,73,58,-34,-73,-34,-170
24,-29,-53,2,39,-41,68,53,-34,-73,-34,-175
24,-24,-48,0,36,-36,73,53,-29,-68,-34,-170
24,-24,-48,0,36,-36,73,53,-24,-68,-29,-165
24,-19,-43,-2,34,-31,73,48,-29,-68,-34,-170
24,-19,-43,-2,34,-31,73,48,-29,-68,-34,-165
24,-19,-43,-2,34,-31,73,48,-24,-73,-34,-170
24,-19,-43,-2,34,-31,73,48,-24,-68,-34,-170
24,-19,-43,-2,34,-31,73,48,-19,-68,-34,-170
19,-19,-39,0,29,-29,78,53,-9,-58,-29,-165
24,-14,-39,-4,31,-26,78,48,-9,-58,-29,-165
24,0,-24,-12,24,-12,73,43,-9,-58,-24,-165
24,4,-19,-14,21,-7,78,48,0,-48,-19,-161
24,9,-14,-17,19,-2,82,48,4,-48,-14,-156
24,14,-9,-19,17,2,78,48,4,-48,-19,-161
24,14,-9,-19,17,2,82,48,9,-43,-14,-161
24,19,-4,-21,14,7,82,53,14,-43,-14,-161
24,19,-4,-21,14,7,87,53,24,-39,-14,-161
24,29,4,-26,9,17,82,48,24,-39,-14,-161
24,29,4,-26,9,17,87,48,29,-34,-9,-156
24,34,9,-29,7,21,87,48,34,-29,0,-151
24,39,14,-31,4,26,92,48,34,-24,4,-146
24,43,19,-34,2,31,87,43,39,-24,0,-151
24,43,19,-34,2,31,87,48,43,-19,4,-146
24,48,24,-36,0,36,92,48,53,-14,9,-146
24,53,29,-39,-2,41,97,48,63,0,14,-141
24,63,39,-43,-7,51,92,43,68,0,14,-146
24,68,43,-46,-9,56,97,43,78,9,19,-141
24,73,48,-48,-12,61,97,39,78,9,19,-141
24,73,48,-48,-12,61,102,39,82,14,24,-136
24,82,58,-53,-17,70,102,39,87,14,29,-131
24,82,58,-53,-17,70,107,39,92,19,34,-126
19,87,68,-53,-24,78,107,39,97,24,39,-117
19,92,73,-56,-26,82,107,39,102,24,39,-117
19,102,82,-61,-31,92,112,39,117,34,43,-112
19,112,92,-65,-36,102,107,29,122,39,48,-107
19,122,102,-70,-41,112,107,24,126,39,48,-107
19,126,107,-73,-43,117,112,24,136,48,58,-102
19,136,117,-78,-48,126,107,14,136,48,58,-102
19,141,122,-80,-51,131,112,14,146,58,68,-92
19,151,131,-85,-56,141,112,9,151,63,68,-92
19,156,136,-87,-58,146,112,9,165,73,78,-82
24,165,141,-95,-58,153,112,4,170,73,78,-82
24,175,151,-100,-63,163,112,0,180,82,82,-82
24,185,161,-104,-68,173,117,0,190,92,92,-73
19,195,175,-107,-78,185,117,-14,195,92,92,-73
19,204,185,-112,-82,195,117,-14,204,97,97,-68
14,209,195,-112,-90,202,122,-14,209,107,102,-63
9,219,209,-114,-100,214,122,-19,214,112,102,-58
9,224,214,-117,-102,219,117,-24,219,107,102,-58
4,229,224,-117,-109,226,117,-29,229,117,107,-53
4,239,234,-122,-114,236,122,-34,239,122,117,-43
4,248,244,-126,-119,246,117,-43,244,126,122,-39
4,253,248,-129,-122,251,117,-48,253,136,131,-24
4,263,258,-134,-126,261,117,-53,258,141,136,-19
4,273,268,-139,-131,270,117,-58,268,151,146,-9
0,278,278,-139,-139,278,112,-63,273,156,151,4
-9,283,292,-136,-151,287,112,-73,278,161,156,9
-9,283,292,-136,-151,287,112,-78,283,165,161,14
-9,287,297,-139,-153,292,112,-82,287,165,165,19
-14,292,307,-139,-161,300,107,-92,292,170,170,24
-14,302,317,-143,-165,309,102,-107,292,170,170,24
-19,307,326,-143,-173,317,97,-112,297,175,180,29
-19,312,331,-146,-175,322,92,-117,302,180,185,34
-24,322,346,-148,-185,334,82,-131,302,180,185,39
-29,326,356,-148,-192,341,78,-136,307,180,185,43
-29,336,366,-153,-197,351,73,-141,307,185,190,48
-34,341,375,-153,-204,358,68,-151,312,190,195,53
-39,346,385,-153,-212,366,63,-161,312,190,204,58
-39,346,385,-153,-212,366,53,-170,312,190,204,58
-43,346,390,-151,-217,368,43,-180,307,190,204,63
-43,346,390,-151,-217,368,34,-190,302,185,204,68
-48,346,395,-148,-222,370,24,-200,297,185,204,68
-48,341,390,-146,-219,366,19,-200,292,185,209,73
-48,341,390,-146,-219,366,9,-214,283,180,204,73
-53,336,390,-141,-222,363,0,-219,278,175,204,73
-48,336,385,-143,-217,361,-14,-224,273,175,195,73
-48,331,380,-141,-214,356,-24,-229,258,170,195,68
-53,322,375,-134,-214,348,-29,-234,253,165,195,68
-53,312,366,-129,-209,339,-39,-239,239,156,185,63
-53,307,361,-126,-207,334,-39,-239,229,151,180,63
-53,292,346,-119,-200,319,-43,-234,219,141,175,58
-53,278,331,-112,-192,305,-48,-234,209,131,170,53
-53,268,322,-107,-187,295,-53,-234,190,117,161,43
-48,258,307,-104,-178,283,-53,-224,180,117,156,43
-48,248,297,-100,-173,273,-58,-224,165,107,151,34
-48,234,283,-92,-165,258,-58,-219,156,97,141,29
-43,229,273,-92,-158,251,-63,-224,141,87,136,19
-43,219,263,-87,-153,241,-63,-214,136,87,131,19
-39,209,248,-85,-143,229,-63,-209,126,78,126,9
-39,204,244,-82,-141,224,-63,-200,122,78,122,9
-34,190,224,-78,-129,207,-68,-190,112,73,117,4
-29,190,219,-80,-124,204,-68,-185,107,68,117,-9
-24,185,209,-80,-117,197,-68,-180,102,68,112,-14
-19,180,200,-80,-109,190,-68,-170,92,63,112,-19
-14,175,190,-80,-102,183,-68,-165,78,58,107,-24
0,170,170,-85,-85,170,-73,-161,68,48,97,-34
4,161,156,-82,-75,158,-73,-151,63,48,97,-39
9,151,141,-80,-65,146,-73,-141,48,39,87,-43
14,146,131,-80,-58,139,-78,-131,43,34,82,-53
19,141,122,-80,-51,131,-78,-126,39,29,78,-58
24,136,112,-80,-43,124,-73,-117,34,29,73,-63
34,136,102,-85,-34,119,-78,-112,24,24,68,-68
39,131,92,-85,-26,112,-78,-102,24,24,68,-68
43,126,82,-85,-19,104,-73,-97,19,24,68,-68
48,126,78,-87,-14,102,-73,-87,9,19,63,-73
53,117,63,-85,-4,90,-73,-78,4,14,58,-78
53,112,58,-82,-2,85,-73,-68,9,14,58,-78
58,107,48,-82,4,78,-73,-63,0,9,53,-82
58,102,43,-80,7,73,-73,-58,-9,9,48,-87
63,97,34,-80,14,65,-73,-53,-14,4,43,-92
63,92,29,-78,17,61,-73,-53,-14,0,43,-97
68,87,19,-78,24,53,-73,-48,-19,0,43,-97
68,82,14,-75,26,48,-68,-39,-19,0,43,-97
73,82,9,-78,31,46,-73,-43,-29,-14,34,-102
73,78,4,-75,34,41,-63,-34,-24,-9,39,-102
78,73,-4,-75,41,34,-58,-34,-24,-14,34,-107
78,73,-4,-75,41,34,-58,-29,-24,-14,29,-112
78,68,-9,-73,43,29,-58,-29,-29,-19,29,-112
82,68,-14,-75,48,26,-53,-24,-29,-19,29,-112
82,68,-14,-75,48,26,-53,-19,-29,-19,29,-112
82,68,-14,-75,48,26,-53,-14,-29,-19,29,-112
82,68,-14,-75,48,26,-53,-9,-29,-14,34,-112
82,68,-14,-75,48,26,-53,-9,-29,-14,34,-112
82,68,-14,-75,48,26,-53,0,-29,-14,29,-112
82,63,-19,-73,51,21,-53,0,-29,-14,29,-117
82,63,-19,-73,51,21,-53,0,-29,-14,24,-117
82,63,-19,-73,51,21,-53,0,-34,-14,24,-122
82,63,-19,-73,51,21,-48,0,-34,-14,24,-122
82,63,-19,-73,51,21,-48,0,-34,-14,19,-122
82,58,-24,-70,53,17,-48,0,-39,-14,19,-122
87,58,-29,-73,58,14,-48,0,-39,-19,19,-122
87,58,-29,-73,58,14,-43,4,-34,-19,19,-122
87,53,-34,-70,61,9,-43,4,-39,-19,14,-122
87,48,-39,-68,63,4,-39,9,-34,-19,19,-122
82,43,-39,-63,61,2,-34,9,-34,-19,14,-126
82,43,-39,-63,61,2,-34,9,-39,-24,14,-126
82,39,-43,-61,63,-2,-29,14,-39,-19,19,-126
87,39,-48,-63,68,-4,-34,14,-43,-24,9,-131
87,43,-43,-65,65,0,-34,14,-43,-24,9,-131
87,43,-43,-65,65,0,-34,19,-39,-24,14,-131
87,48,-39,-68,63,4,-34,19,-34,-19,14,-131
92,58,-34,-75,63,12,-34,14,-29,-19,14,-131
92,63,-29,-78,61,17,-39,9,-29,-19,14,-131
92,68,-24,-80,58,21,-39,9,-24,-9,14,-131
92,68,-24,-80,58,21,-39,9,-24,-9,14,-131
92,68,-24,-80,58,21,-39,9,-24,-9,14,-131
92,68,-24,-80,58,21,-39,9,-24,-9,14,-131
92,68,-24,-80,58,21,-43,9,-29,-9,14,-131
87,63,-24,-75,56,19,-39,14,-24,-9,14,-126
87,63,-24,-75,56,19,-43,14,-29,-14,14,-126
87,58,-29,-73,58,14,-39,14,-29,-14,14,-126
87,58,-29,-73,58,14,-39,14,-29,-14,14,-126
92,58,-34,-75,63,12,-39,14,-34,-19,14,-126
92,53,-39,-73,65,7,-39,14,-34,-19,14,-126
92,53,-39,-73,65,7,-39,14,-34,-19,14,-131
87,53,-34,-70,61,9,-39,14,-39,-24,9,-131
87,48,-39,-68,63,4,-34,19,-34,-19,14,-126
82,53,-29,-68,56,12,-34,19,-34,-19,14,-131
82,53,-29,-68,56,12,-34,19,-34,-19,14,-131
78,48,-29,-63,53,9,-39,14,-39,-19,9,-131
78,48,-29,-63,53,9,-39,14,-39,-24,9,-136
82,48,-34,-65,58,7,-34,14,-39,-24,9,-136
82,48,-34,-65,58,7,-34,14,-39,-24,4,-136
82,48,-34,-65,58,7,-34,19,-43,-29,0,-136
82,43,-39,-63,61,2,-39,19,-43,-29,0,-141
82,43,-39,-63,61,2,-39,14,-48,-34,-9,-141
82,43,-39,-63,61,2,-43,14,-48,-34,-9,-141
82,39,-43,-61,63,-2,-39,19,-43,-29,0,-136
82,39,-43,-61,63,-2,-39,14,-48,-34,0,-136
82,34,-48,-58,65,-7,-43,14,-48,-34,0,-136
82,34,-48,-58,65,-7,-43,14,-53,-34,0,-131
82,34,-48,-58,65,-7,-39,19,-53,-34,0,-131
87,34,-53,-61,70,-9,-39,19,-53,-34,0,-131
87,29,-58,-58,73,-14,-39,19,-53,-34,0,-131
82,29,-53,-56,68,-12,-43,19,-58,-34,-9,-131
82,29,-53,-56,68,-12,-43,19,-58,-34,-9,-136
82,29,-53,-56,68,-12,-43,14,-58,-34,-9,-136
82,29,-53,-56,68,-12,-43,14,-58,-39,-9,-141
82,29,-53,-56,68,-12,-43,9,-63,-39,-9,-141
78,29,-48,-53,63,-9,-39,14,-63,-34,-9,-136
78,29,-48,-53,63,-9,-43,19,-63,-34,-9,-136
78,29,-48,-53,63,-9,-43,14,-63,-39,-9,-136
78,29,-48,-53,63,-9,-43,14,-63,-39,-9,-136
78,29,-48,-53,63,-9,-43,19,-63,-34,-9,-131
82,29,-53,-56,68,-12,-43,14,-63,-39,-9,-131
82,29,-53,-56,68,-12,-43,14,-63,-39,0,-126
82,34,-48,-58,65,-7,-43,14,-63,-39,0,-122
87,34,-53,-61,70,-9,-43,14,-63,-34,4,-122
87,34,-53,-61,70,-9,-43,14,-63,-34,4,-122
87,34,-53,-61,70,-9,-48,19,-63,-34,4,-126
87,34,-53,-61,70,-9,-48,14,-58,-34,4,-126
82,34,-48,-58,65,-7,-48,14,-58,-29,0,-131
78,34,-43,-56,61,-4,-53,9,-58,-29,0,-131
78,39,-39,-58,58,0,-53,9,-58,-24,0,-131
78,39,-39,-58,58,0,-53,4,-63,-24,0,-131
78,34,-43,-56,61,-4,-53,4,-68,-29,0,-131
73,29,-43,-51,58,-7,-48,9,-68,-29,0,-131
78,29,-48,-53,63,-9,-48,9,-73,-34,-9,-131
78,24,-53,-51,65,-14,-48,14,-73,-39,-9,-131
78,19,-58,-48,68,-19,-48,9,-78,-39,-9,-136
78,19,-58,-48,68,-19,-48,9,-82,-43,-14,-136
78,19,-58,-48,68,-19,-48,14,-82,-43,-14,-141
78,19,-58,-48,68,-19,-48,9,-87,-48,-14,-141
78,14,-63,-46,70,-24,-43,14,-82,-43,-9,-136
78,14,-63,-46,70,-24,-43,14,-82,-48,-14,-136
78,14,-63,-46,70,-24,-48,14,-87,-48,-14,-136
73,14,-58,-43,65,-21,-48,14,-82,-48,-19,-136
73,14,-58,-43,65,-21,-48,9,-82,-43,-19,-136
73,19,-53,-46,63,-17,-48,14,-78,-39,-14,-136
78,29,-48,-53,63,-9,-53,9,-78,-39,-14,-136
78,34,-43,-56,61,-4,-58,4,-78,-34,-14,-136
78,39,-39,-58,58,0,-58,4,-73,-29,-9,-136
78,43,-34,-61,56,4,-58,4,-73,-24,0,-136
73,48,-24,-61,48,12,-58,4,-68,-24,0,-136
73,48,-24,-61,48,12,-63,4,-73,-24,0,-141
68,48,-19,-58,43,14,-63,0,-73,-24,0,-146
73,48,-24,-61,48,12,-63,0,-68,-24,0,-146
78,53,-24,-65,51,14,-68,-9,-73,-24,-9,-151
82,53,-29,-68,56,12,-68,-9,-68,-19,-9,-146
87,53,-34,-70,61,9,-68,-9,-73,-24,-14,-151
92,48,-43,-70,68,2,-68,-9,-73,-29,-14,-146
87,43,-43,-65,65,0,-58,4,-73,-29,-14,-141
87,34,-53,-61,70,-9,-53,9,-78,-34,-14,-136
82,24,-58,-53,70,-17,-53,14,-82,-39,-19,-136
82,14,-68,-48,75,-26,-53,14,-92,-48,-24,-136
78,4,-73,-41,75,-34,-48,19,-92,-48,-19,-136
78,0,-78,-39,78,-39,-43,19,-97,-53,-19,-131
73,-9,-82,-31,78,-46,-43,19,-102,-58,-24,-131
73,-14,-87,-29,80,-51,-39,19,-102,-58,-24,-131
73,-19,-92,-26,82,-56,-39,19,-107,-63,-24,-136
73,-24,-97,-24,85,-61,-43,19,-112,-68,-29,-136
68,-24,-92,-21,80,-58,-39,24,-107,-68,-29,-136
68,-24,-92,-21,80,-58,-39,24,-107,-63,-29,-136
73,-24,-97,-24,85,-61,-43,19,-107,-68,-29,-141
73,-24,-97,-24,85,-61,-43,14,-107,-68,-29,-141
73,-19,-92,-26,82,-56,-43,14,-107,-63,-29,-141
78,-19,-97,-29,87,-58,-43,14,-107,-63,-24,-141
78,-19,-97,-29,87,-58,-43,14,-107,-58,-24,-146
73,-24,-97,-24,85,-61,-43,14,-107,-58,-29,-146
78,-24,-102,-26,90,-63,-43,19,-107,-58,-24,-146
78,-19,-97,-29,87,-58,-43,24,-102,-53,-24,-146
78,-19,-97,-29,87,-58,-43,24,-102,-53,-29,-151
73,-19,-92,-26,82,-56,-43,19,-102,-53,-29,-151
73,-14,-87,-29,80,-51,-48,19,-102,-53,-29,-151
78,-14,-92,-31,85,-53,-48,14,-107,-58,-34,-156
78,-14,-92,-31,85,-53,-53,14,-107,-63,-39,-156
73,-19,-92,-26,82,-56,-48,19,-107,-68,-39,-151
78,-24,-102,-26,90,-63,-43,19,-112,-68,-39,-151
78,-29,-107,-24,92,-68,-43,24,-117,-73,-39,-151
78,-34,-112,-21,95,-73,-39,29,-112,-68,-34,-146
78,-34,-112,-21,95,-73,-39,29,-112,-73,-34,-146
78,-34,-112,-21,95,-73,-39,29,-112,-68,-29,-141
78,-29,-107,-24,92,-68,-43,19,-112,-73,-34,-146
73,-29,-102,-21,87,-65,-39,24,-107,-63,-24,-136
73,-24,-97,-24,85,-61,-48,19,-112,-68,-29,-146
68,-24,-92,-21,80,-58,-43,24,-107,-63,-24,-141
68,-24,-92,-21,80,-58,-43,19,-107,-58,-29,-141
68,-24,-92,-21,80,-58,-43,19,-102,-58,-29,-146
68,-19,-87,-24,78,-53,-48,14,-107,-58,-29,-151
68,-14,-82,-26,75,-48,-43,19,-102,-53,-29,-151
68,-14,-82,-26,75,-48,-43,19,-97,-48,-24,-151
73,0,-73,-36,73,-36,-43,14,-97,-48,-24,-156
73,4,-68,-39,70,-31,-43,19,-97,-43,-19,-156
78,9,-68,-43,73,-29,-48,14,-97,-48,-24,-161
78,9,-68,-43,73,-29,-53,14,-97,-48,-24,-161
78,9,-68,-43,73,-29,-53,14,-97,-48,-24,-161
78,14,-63,-46,70,-24,-53,14,-97,-43,-24,-161
73,14,-58,-43,65,-21,-53,9,-97,-43,-24,-161
73,14,-58,-43,65,-21,-58,9,-97,-43,-24,-161
73,14,-58,-43,65,-21,-58,9,-97,-43,-24,-161
73,19,-53,-46,63,-17,-53,9,-97,-39,-19,-156
73,19,-53,-46,63,-17,-53,9,-92,-39,-19,-156
73,14,-58,-43,65,-21,-53,9,-92,-39,-24,-156
73,14,-58,-43,65,-21,-53,14,-92,-39,-24,-156
73,19,-53,-46,63,-17,-53,14,-87,-34,-19,-156
73,19,-53,-46,63,-17,-53,14,-82,-29,-19,-151
78,19,-58,-48,68,-19,-63,4,-87,-34,-24,-156
78,24,-53,-51,65,-14,-63,4,-92,-34,-24,-156
73,19,-53,-46,63,-17,-58,9,-92,-34,-19,-146
73,14,-58,-43,65,-21,-58,9,-97,-43,-24,-151
68,4,-63,-36,65,-29,-58,9,-97,-43,-24,-146
68,0,-68,-34,68,-34,-53,9,-107,-53,-29,-151
68,-9,-78,-29,73,-43,-48,19,-102,-48,-24,-146
73,-9,-82,-31,78,-46,-53,14,-102,-48,-24,-151
78,0,-78,-39,78,-39,-48,19,-97,-43,-24,-146
82,0,-82,-41,82,-41,-48,14,-97,-48,-29,-156
82,-9,-92,-36,87,-51,-43,19,-97,-48,-24,-151
87,-14,-102,-36,95,-58,-43,19,-107,-53,-29,-156
82,-24,-107,-29,95,-65,-39,24,-112,-63,-39,-156
78,-34,-112,-21,95,-73,-34,29,-117,-68,-43,-161
73,-43,-117,-14,95,-80,-34,29,-122,-78,-48,-161
68,-48,-117,-9,92,-82,-34,29,-126,-82,-53,-165
68,-48,-117,-9,92,-82,-34,29,-126,-82,-53,-161
68,-48,-117,-9,92,-82,-34,29,-126,-78,-53,-161
63,-48,-112,-7,87,-80,-29,34,-122,-73,-48,-156
68,-43,-112,-12,90,-78,-34,29,-122,-73,-48,-156
68,-43,-112,-12,90,-78,-34,29,-122,-68,-43,-151
73,-43,-117,-14,95,-80,-34,34,-117,-68,-43,-146
73,-43,-117,-14,95,-80,-34,29,-117,-63,-39,-146
73,-43,-117,-14,95,-80,-34,29,-117,-63,-39,-146
73,-43,-117,-14,95,-80,-34,29,-117,-63,-39,-141
73,-43,-117,-14,95,-80,-34,29,-117,-63,-39,-141
73,-43,-117,-14,95,-80,-34,29,-117,-68,-39,-146
73,-43,-117,-14,95,-80,-34,29,-122,-63,-39,-141
73,-39,-112,-17,92,-75,-39,24,-122,-68,-43,-146
73,-39,-112,-17,92,-75,-34,29,-122,-68,-43,-146
73,-39,-112,-17,92,-75,-34,29,-122,-68,-43,-146
73,-34,-107,-19,90,-70,-34,29,-117,-68,-43,-146
78,-34,-112,-21,95,-73,-34,29,-112,-63,-39,-141
78,-24,-102,-26,90,-63,-39,24,-112,-58,-39,-141
78,-14,-92,-31,85,-53,-39,24,-107,-58,-34,-141
87,0,-87,-43,87,-43,-39,24,-102,-48,-24,-136
87,19,-68,-53,78,-24,-39,24,-92,-39,-19,-131
87,34,-53,-61,70,-9,-39,19,-78,-29,-9,-126
92,48,-43,-70,68,2,-43,14,-73,-24,-9,-126
97,58,-39,-78,68,9,-43,14,-63,-14,0,-126
102,68,-34,-85,68,17,-43,14,-63,-9,4,-126
97,73,-24,-85,61,24,-39,14,-58,0,4,-122
102,68,-34,-85,68,17,-39,9,-58,0,4,-122
107,68,-39,-87,73,14,-34,14,-58,0,4,-112
107,63,-43,-85,75,9,-34,14,-63,-9,4,-107
107,58,-48,-82,78,4,-29,14,-58,0,9,-102
107,58,-48,-82,78,4,-29,14,-53,0,14,-97
112,68,-43,-90,78,12,-29,14,-48,0,14,-92
112,73,-39,-92,75,17,-34,14,-43,4,19,-92
117,82,-34,-100,75,24,-34,9,-43,9,24,-92
117,92,-24,-104,70,34,-29,9,-34,14,29,-87
117,97,-19,-107,68,39,-29,9,-34,14,29,-92
117,102,-14,-109,65,43,-24,14,-39,14,29,-97
117,97,-19,-107,68,39,-24,14,-43,14,19,-97
117,97,-19,-107,68,39,-24,14,-43,9,19,-102
117,97,-19,-107,68,39,-24,19,-39,9,19,-97
122,107,-14,-114,68,46,-29,14,-34,14,19,-97
126,122,-4,-124,65,58,-39,14,-24,29,34,-82
136,141,4,-139,65,73,-53,9,-9,43,48,-68
141,156,14,-148,63,85,-68,0,0,48,53,-58
151,170,19,-161,65,95,-82,-9,9,63,68,-48
156,185,29,-170,63,107,-97,-19,9,63,73,-43
156,190,34,-173,61,112,-102,-19,14,68,82,-34
161,190,29,-175,65,109,-107,-24,9,63,82,-29
161,190,29,-175,65,109,-107,-24,4,58,78,-29
165,180,14,-173,75,97,-107,-19,-9,53,73,-29
165,175,9,-170,78,92,-112,-19,-14,48,68,-34
165,170,4,-168,80,87,-107,-14,-19,43,68,-34
170,161,-9,-165,90,75,-112,-14,-29,39,63,-34
170,156,-14,-163,92,70,-117,-9,-34,34,58,-39
175,151,-24,-163,100,63,-117,-9,-39,29,53,-39
175,146,-29,-161,102,58,-117,-9,-39,29,58,-39
175,146,-29,-161,102,58,-117,-9,-43,29,53,-39
175,146,-29,-161,102,58,-117,-9,-43,29,53,-39
170,151,-19,-161,95,65,-117,-9,-39,34,53,-39
165,151,-14,-158,90,68,-117,-14,-34,39,58,-39
161,156,-4,-158,82,75,-117,-14,-34,39,58,-39
151,151,0,-151,75,75,-112,-14,-34,43,58,-34
146,141,-4,-143,75,68,-107,-14,-39,39,58,-39
136,126,-9,-131,73,58,-107,-14,-48,34,48,-43
126,112,-14,-119,70,48,-97,-14,-53,24,43,-53
112,92,-19,-102,65,36,-92,-9,-63,14,34,-63
97,73,-24,-85,61,24,-82,-9,-68,9,24,-78
87,58,-29,-73,58,14,-73,0,-73,0,19,-87
78,43,-34,-61,56,4,-58,4,-78,-9,9,-102
73,29,-43,-51,58,-7,-53,9,-87,-19,0,-112
68,14,-53,-41,61,-19,-43,14,-97,-29,-19,-126
68,4,-63,-36,65,-29,-43,19,-107,-43,-29,-136
63,-19,-82,-21,73,-51,-34,24,-107,-48,-39,-141
63,-29,-92,-17,78,-61,-34,24,-122,-63,-53,-151
63,-43,-107,-9,85,-75,-34,24,-126,-68,-58,-156
63,-53,-117,-4,90,-85,-34,24,-126,-73,-63,-156
58,-58,-117,0,87,-87,-34,29,-126,-73,-58,-151
58,-68,-126,4,92,-97,-34,29,-131,-78,-63,-156
53,-73,-126,9,90,-100,-29,34,-136,-78,-63,-151
53,-78,-131,12,92,-104,-29,34,-141,-82,-63,-156
53,-78,-131,12,92,-104,-29,34,-141,-82,-63,-156
48,-87,-136,19,92,-112,-24,39,-141,-82,-68,-161
43,-102,-146,29,95,-124,-9,48,-146,-87,-73,-165
34,-122,-156,43,95,-139,9,58,-151,-97,-92,-185
24,-146,-170,61,97,-158,29,73,-161,-107,-112,-209
14,-175,-190,80,102,-183,63,92,-165,-126,-131,-229
-9,-214,-204,112,97,-209,97,112,-175,-146,-156,-258
-29,-248,-219,139,95,-234,151,141,-170,-161,-180,-283
-43,-273,-229,158,92,-251,209,175,-156,-165,-200,-302
-53,-283,-229,168,87,-256,253,209,-131,-161,-209,-317
-48,-263,-214,156,82,-239,283,239,-97,-146,-209,-331
-29,-229,-200,129,85,-214,302,268,-48,-112,-190,-326
19,-165,-185,73,102,-175,292,292,0,-68,-161,-307
92,-73,-165,-9,129,-119,244,307,39,-14,-117,-273
195,58,-136,-126,165,-39,151,317,87,63,-43,-214
317,224,-92,-270,204,65,19,297,136,151,48,-126
453,419,-34,-436,244,192,-151,248,190,258,161,-24
575,634,58,-605,258,346,-346,161,253,370,292,107
692,858,165,-775,263,512,-566,39,302,483,424,239
785,1063,278,-924,253,671,-780,-102,346,585,546,370
844,1224,380,-1034,231,802,-966,-244,370,663,658,492
858,1307,448,-1083,204,878,-1117,-395,336,683,717,575
834,1302,468,-1068,183,885,-1224,-527,244,639,732,629
780,1205,424,-993,178,814,-1268,-624,97,536,697,639
712,1039,326,-875,192,683,-1263,-683,-87,390,619,610
614,829,214,-722,200,522,-1210,-727,-278,234,512,551
502,610,107,-556,197,358,-1127,-746,-444,78,409,488
409,390,-19,-400,214,185,-1029,-722,-575,-63,297,414
326,195,-131,-261,229,31,-917,-673,-673,-170,190,326
258,53,-204,-156,231,-75,-800,-614,-707,-244,117,263
195,-39,-234,-78,214,-136,-707,-556,-707,-287,58,204
165,-107,-273,-29,219,-190,-619,-483,-688,-312,14,151
146,-161,-307,7,226,-234,-536,-400,-663,-322,-34,97
126,-190,-317,31,222,-253,-458,-331,-619,-322,-58,53
107,-190,-297,41,202,-244,-375,-278,-561,-302,-73,19
92,-180,-273,43,183,-226,-302,-219,-497,-273,-78,-9
78,-170,-248,46,163,-209,-234,-170,-439,-248,-82,-34
58,-161,-219,51,139,-190,-161,-126,-375,-224,-87,-53
39,-151,-190,56,114,-170,-112,-97,-331,-195,-87,-73
29,-141,-170,56,100,-156,-68,-73,-287,-175,-87,-87
19,-136,-156,58,87,-146,-34,-53,-253,-156,-82,-97
9,-141,-151,65,80,-146,0,-29,-229,-141,-87,-112
4,-151,-156,73,80,-153,29,-14,-209,-136,-92,-131
0,-161,-161,80,80,-161,48,9,-190,-131,-97,-146
-9,-165,-156,87,73,-161,58,19,-180,-131,-107,-161
-14,-165,-151,90,68,-158,73,34,-165,-122,-107,-170
-14,-161,-146,87,65,-153,73,34,-161,-117,-112,-185
-14,-156,-141,85,63,-148,73,39,-151,-112,-107,-185
-14,-146,-131,80,58,-139,68,39,-146,-107,-112,-190
-14,-136,-122,75,53,-129,73,39,-136,-97,-107,-185
-14,-131,-117,73,51,-124,73,39,-136,-102,-112,-190
-14,-131,-117,73,51,-124,73,39,-141,-102,-112,-190
-14,-136,-122,75,53,-129,78,43,-141,-102,-112,-190
-19,-141,-122,80,51,-131,82,48,-141,-107,-117,-195
-19,-141,-122,80,51,-131,82,48,-141,-107,-122,-200
-19,-136,-117,78,48,-126,87,53,-136,-107,-117,-200
-14,-131,-117,73,51,-124,82,48,-131,-102,-122,-200
-14,-126,-112,70,48,-119,87,53,-122,-97,-117,-195
-9,-122,-112,65,51,-117,82,48,-117,-92,-112,-195
-9,-112,-102,61,46,-107,87,48,-112,-87,-107,-190
0,-112,-112,56,56,-112,87,48,-112,-87,-107,-195
-9,-122,-112,65,51,-117,92,53,-117,-92,-112,-195
-14,-131,-117,73,51,-124,97,58,-122,-97,-117,-200
-14,-146,-131,80,58,-139,102,63,-126,-102,-122,-200
-14,-156,-141,85,63,-148,107,68,-131,-107,-126,-209
-19,-165,-146,92,63,-156,112,73,-136,-112,-131,-209
-19,-175,-156,97,68,-165,117,73,-141,-112,-131,-209
-24,-175,-151,100,63,-163,117,73,-141,-117,-136,-214
-24,-175,-151,100,63,-163,117,68,-141,-112,-131,-209
-24,-170,-146,97,61,-158,122,68,-136,-107,-131,-209
-24,-170,-146,97,61,-158,117,73,-131,-107,-126,-209
-29,-165,-136,97,53,-151,117,73,-126,-97,-122,-200
-24,-161,-136,92,56,-148,112,68,-122,-97,-126,-209
-24,-151,-126,87,51,-139,112,63,-117,-92,-122,-209
-24,-146,-122,85,48,-134,112,68,-112,-87,-117,-200
-19,-136,-117,78,48,-126,112,63,-117,-92,-117,-209
-19,-141,-122,80,51,-131,112,68,-122,-97,-122,-200
-14,-151,-136,82,61,-143,122,78,-122,-102,-122,-200
-14,-161,-146,87,65,-153,122,78,-126,-112,-126,-200
-14,-170,-156,92,70,-163,126,87,-131,-112,-126,-200
-19,-175,-156,97,68,-165,131,92,-126,-112,-126,-200
-19,-175,-156,97,68,-165,131,87,-122,-107,-126,-200
-19,-170,-151,95,65,-161,131,82,-117,-102,-122,-200
-19,-156,-136,87,58,-146,126,78,-112,-92,-122,-200
-19,-146,-126,82,53,-136,126,73,-102,-82,-112,-200
-19,-141,-122,80,51,-131,122,68,-102,-82,-117,-209
-19,-136,-117,78,48,-126,126,68,-102,-78,-117,-209
-19,-136,-117,78,48,-126,126,68,-102,-82,-117,-214
-24,-136,-112,80,43,-124,126,68,-107,-87,-122,-214
-24,-136,-112,80,43,-124,126,68,-112,-92,-126,-219
-24,-141,-117,82,46,-129,136,78,-107,-92,-122,-214
-19,-141,-122,80,51,-131,131,73,-107,-97,-126,-214
-19,-136,-117,78,48,-126,136,73,-107,-92,-122,-214
-19,-136,-117,78,48,-126,136,73,-102,-87,-122,-214
-24,-141,-117,82,46,-129,141,82,-97,-82,-117,-200
-24,-146,-122,85,48,-134,136,82,-92,-82,-117,-200
-29,-146,-117,87,43,-131,136,82,-92,-78,-117,-200
-29,-146,-117,87,43,-131,136,82,-92,-78,-117,-200
-29,-141,-112,85,41,-126,141,82,-87,-78,-112,-200
-24,-141,-117,82,46,-129,146,82,-87,-78,-112,-200
-19,-136,-117,78,48,-126,141,78,-92,-82,-117,-209
-19,-136,-117,78,48,-126,146,78,-92,-82,-117,-209
-19,-136,-117,78,48,-126,151,78,-92,-82,-117,-214
-19,-136,-117,78,48,-126,151,82,-87,-82,-117,-214
-19,-131,-112,75,46,-122,151,82,-82,-78,-117,-214
-19,-131,-112,75,46,-122,151,87,-78,-73,-117,-214
-19,-126,-107,73,43,-117,146,82,-78,-78,-122,-214
-24,-126,-102,75,39,-114,151,87,-73,-68,-112,-200
-19,-126,-107,73,43,-117,151,87,-73,-73,-117,-200
-24,-126,-102,75,39,-114,165,92,-68,-68,-112,-195
-24,-126,-102,75,39,-114,170,92,-68,-68,-112,-190
-24,-122,-97,73,36,-109,165,92,-68,-73,-112,-190
-24,-122,-97,73,36,-109,165,92,-63,-68,-112,-190
-19,-122,-102,70,41,-112,170,97,-53,-68,-107,-185
-19,-117,-97,68,39,-107,170,102,-48,-58,-102,-180
-14,-117,-102,65,43,-109,170,97,-43,-58,-102,-185
-14,-117,-102,65,43,-109,170,97,-43,-58,-102,-185
-14,-117,-102,65,43,-109,175,97,-39,-58,-102,-180
-14,-112,-97,63,41,-104,180,97,-34,-53,-97,-180
-14,-102,-87,58,36,-95,175,92,-29,-48,-97,-180
-19,-92,-73,56,26,-82,180,92,-24,-39,-87,-175
-19,-82,-63,51,21,-73,175,87,-14,-34,-87,-175
-19,-73,-53,46,17,-63,180,87,0,-24,-82,-175
-14,-63,-48,39,17,-56,175,87,0,-19,-78,-175
-14,-53,-39,34,12,-46,175,82,4,-19,-73,-180
-9,-48,-39,29,14,-43,175,78,0,-19,-78,-180
-9,-48,-39,29,14,-43,175,78,4,-14,-73,-175
-14,-43,-29,29,7,-36,180,78,9,-14,-68,-170
-14,-43,-29,29,7,-36,180,78,14,-9,-63,-165
-14,-39,-24,26,4,-31,185,78,24,0,-58,-156
-14,-29,-14,21,0,-21,185,73,29,4,-58,-156
-14,-19,-4,17,-4,-12,185,73,43,14,-48,-146
-14,-9,4,12,-9,-2,185,68,53,24,-43,-141
-14,9,24,2,-19,17,185,68,68,34,-34,-136
-9,19,29,-4,-19,24,190,63,73,39,-29,-131
-9,29,39,-9,-24,34,185,58,78,43,-29,-126
-9,39,48,-14,-29,43,190,58,87,48,-19,-122
-9,43,53,-17,-31,48,185,58,92,48,-19,-126
-9,53,63,-21,-36,58,190,58,102,58,-14,-122
-14,58,73,-21,-43,65,190,53,107,63,-14,-117
-19,68,87,-24,-53,78,185,48,112,63,-14,-117
-24,78,102,-26,-63,90,190,43,122,73,0,-112
-24,87,112,-31,-68,100,190,34,126,78,4,-107
-24,97,122,-36,-73,109,190,34,136,87,9,-102
-29,107,136,-39,-82,122,185,29,141,92,14,-102
-29,117,146,-43,-87,131,185,29,156,102,24,-97
-29,126,156,-48,-92,141,185,19,161,107,29,-92
-29,141,170,-56,-100,156,180,14,170,112,34,-82
-24,156,180,-65,-102,168,180,9,180,122,43,-73
-24,170,195,-73,-109,183,180,0,195,136,53,-63
-19,180,200,-80,-109,190,180,-9,204,141,63,-53
-19,190,209,-85,-114,200,175,-19,209,146,68,-39
-19,190,209,-85,-114,200,175,-24,214,151,73,-29
-19,190,209,-85,-114,200,175,-24,214,146,78,-24
-24,180,204,-78,-114,192,180,-24,214,146,78,-19
-29,175,204,-73,-117,190,185,-29,214,141,82,-9
-29,170,200,-70,-114,185,185,-34,214,141,78,-9
-34,175,209,-70,-122,192,180,-43,219,141,78,-9
-43,180,224,-68,-134,202,180,-53,224,146,82,-9
-48,190,239,-70,-143,214,175,-63,234,156,87,0
-53,209,263,-78,-158,236,165,-78,239,165,92,4
-58,229,287,-85,-173,258,156,-92,248,175,102,9
-58,244,302,-92,-180,273,146,-102,253,180,107,14
-63,253,317,-95,-190,285,141,-112,263,190,117,24
-58,263,322,-102,-190,292,131,-122,268,195,117,29
-58,268,326,-104,-192,297,126,-131,268,195,126,39
-58,268,326,-104,-192,297,122,-136,268,195,126,43
-58,268,326,-104,-192,297,112,-146,263,190,126,43
-58,258,317,-100,-187,287,107,-156,253,180,122,43
-63,248,312,-92,-187,280,102,-156,248,175,117,48
-68,244,312,-87,-190,278,97,-156,239,170,117,48
-68,234,302,-82,-185,268,97,-156,239,165,117,48
-68,229,297,-80,-183,263,87,-161,224,156,112,43
-68,219,287,-75,-178,253,82,-165,219,151,107,43
-73,214,287,-70,-180,251,78,-170,209,141,97,34
-73,209,283,-68,-178,246,73,-170,204,136,97,34
-73,204,278,-65,-175,241,63,-180,195,131,92,29
-73,195,268,-61,-170,231,53,-185,185,126,87,19
-73,195,268,-61,-170,231,43,-190,180,122,82,14
-78,190,268,-56,-173,229,39,-190,180,126,82,14
-78,185,263,-53,-170,224,29,-190,175,126,82,14
-73,175,248,-51,-161,212,29,-185,170,122,78,14
-73,165,239,-46,-156,202,24,-185,151,112,68,4
-73,151,224,-39,-148,187,24,-180,141,102,63,4
-73,136,209,-31,-141,173,24,-175,122,87,58,4
-68,122,190,-26,-129,156,29,-170,112,78,48,0
-68,107,175,-19,-122,141,29,-161,102,68,43,-9
-63,97,161,-17,-112,129,24,-161,87,58,39,-14
-58,92,151,-17,-104,122,19,-151,78,53,39,-19
-53,87,141,-17,-97,114,14,-146,78,53,39,-24
-53,87,141,-17,-97,114,9,-141,73,53,34,-29
-48,82,131,-17,-90,107,4,-136,68,53,34,-34
-43,82,126,-19,-85,104,4,-131,63,53,29,-39
-39,78,117,-19,-78,97,4,-122,53,53,24,-43
-34,68,102,-17,-68,85,0,-112,43,43,19,-53
-29,58,87,-14,-58,73,4,-97,34,39,9,-58
-19,48,68,-14,-43,58,4,-87,24,29,4,-63
-14,43,58,-14,-36,51,4,-78,14,19,-9,-73
0,39,39,-19,-19,39,0,-73,0,9,-19,-82
0,34,34,-17,-17,34,4,-63,0,9,-19,-82
4,29,24,-17,-9,26,9,-58,-9,9,-19,-87
14,29,14,-21,0,21,4,-53,-14,4,-24,-92
14,24,9,-19,2,17,0,-48,-19,4,-29,-97
14,19,4,-17,4,12,4,-39,-19,9,-24,-97
14,19,4,-17,4,12,4,-34,-19,9,-24,-102
14,9,-4,-12,9,2,4,-24,-29,4,-34,-107
14,4,-9,-9,12,-2,9,-19,-34,0,-34,-112
19,-9,-29,-4,24,-19,9,-9,-43,-14,-43,-117
24,-14,-39,-4,31,-26,14,0,-48,-19,-48,-122
29,-19,-48,-4,39,-34,19,9,-53,-24,-53,-126
34,-24,-58,-4,46,-41,19,14,-58,-29,-58,-126
43,-24,-68,-9,56,-46,14,19,-63,-34,-63,-131
48,-24,-73,-12,61,-48,14,24,-58,-34,-58,-126
48,-24,-73,-12,61,-48,14,24,-58,-34,-58,-126
48,-24,-73,-12,61,-48,14,24,-58,-34,-58,-131
48,-24,-73,-12,61,-48,14,24,-58,-29,-53,-131
48,-19,-68,-14,58,-43,14,24,-58,-29,-53,-136
48,-14,-63,-17,56,-39,9,19,-63,-34,-58,-146
48,-14,-63,-17,56,-39,14,24,-63,-34,-63,-146
48,-14,-63,-17,56,-39,14,24,-63,-34,-63,-151
53,-14,-68,-19,61,-41,14,29,-68,-39,-68,-151
53,-19,-73,-17,63,-46,14,34,-73,-43,-73,-151
53,-24,-78,-14,65,-51,19,39,-73,-43,-68,-146
53,-34,-87,-9,70,-61,19,39,-78,-48,-73,-146
53,-39,-92,-7,73,-65,24,43,-78,-53,-73,-141
48,-48,-97,0,73,-73,29,48,-78,-53,-73,-136
48,-48,-97,0,73,-73,29,48,-78,-53,-73,-136
43,-48,-92,2,68,-70,29,48,-73,-48,-68,-136
43,-43,-87,0,65,-65,29,48,-68,-43,-68,-136
43,-39,-82,-2,63,-61,24,48,-68,-39,-68,-141
43,-34,-78,-4,61,-56,24,48,-63,-39,-68,-141
43,-34,-78,-4,61,-56,29,48,-63,-34,-63,-141
43,-34,-78,-4,61,-56,29,48,-58,-34,-63,-141
48,-34,-82,-7,65,-58,29,53,-58,-34,-63,-146
53,-34,-87,-9,70,-61,29,48,-63,-39,-68,-151
53,-34,-87,-9,70,-61,29,48,-63,-34,-68,-156
48,-29,-78,-9,63,-53,29,48,-58,-29,-73,-156
48,-29,-78,-9,63,-53,29,48,-58,-29,-73,-156
48,-29,-78,-9,63,-53,29,48,-58,-29,-78,-161
48,-29,-78,-9,63,-53,29,48,-58,-29,-78,-161
48,-34,-82,-7,65,-58,34,53,-58,-29,-78,-156
53,-39,-92,-7,73,-65,34,58,-63,-39,-82,-156
48,-48,-97,0,73,-73,39,63,-68,-43,-82,-156
43,-53,-97,4,70,-75,39,63,-73,-53,-87,-156
43,-53,-97,4,70,-75,39,63,-73,-53,-82,-156
43,-53,-97,4,70,-75,39,63,-68,-48,-82,-156
43,-53,-97,4,70,-75,39,63,-68,-48,-78,-156
43,-48,-92,2,68,-70,39,63,-63,-43,-78,-151
43,-48,-92,2,68,-70,39,63,-63,-43,-73,-151
43,-43,-87,0,65,-65,39,63,-63,-39,-73,-156
48,-43,-92,-2,70,-68,34,58,-63,-43,-78,-156
48,-39,-87,-4,68,-63,34,53,-63,-43,-73,-156
48,-39,-87,-4,68,-63,34,53,-68,-43,-78,-161
48,-39,-87,-4,68,-63,34,53,-63,-43,-78,-161
48,-39,-87,-4,68,-63,39,53,-63,-43,-82,-156
48,-43,-92,-2,70,-68,34,58,-68,-53,-82,-161
43,-48,-92,2,68,-70,39,58,-73,-53,-87,-156
43,-53,-97,4,70,-75,39,58,-73,-58,-92,-161
39,-58,-97,9,68,-78,43,58,-73,-58,-87,-151
39,-58,-97,9,68,-78,39,58,-73,-53,-82,-151
34,-58,-92,12,63,-75,39,53,-73,-53,-82,-151
34,-53,-87,9,61,-70,34,53,-73,-53,-82,-146
34,-53,-87,9,61,-70,34,53,-68,-48,-78,-146
34,-53,-87,9,61,-70,29,53,-73,-48,-78,-151
34,-53,-87,9,61,-70,29,53,-78,-53,-82,-156
34,-53,-87,9,61,-70,29,53,-82,-53,-82,-156
34,-53,-87,9,61,-70,34,53,-82,-53,-82,-156
39,-53,-92,7,65,-73,34,53,-82,-53,-82,-156
39,-53,-92,7,65,-73,34,58,-87,-53,-82,-156
43,-53,-97,4,70,-75,29,53,-92,-58,-87,-156
43,-53,-97,4,70,-75,29,53,-92,-63,-82,-156
48,-58,-107,4,78,-82,29,58,-92,-63,-87,-156
43,-58,-102,7,73,-80,29,58,-87,-63,-82,-151
43,-58,-102,7,73,-80,29,58,-87,-58,-82,-151
43,-58,-102,7,73,-80,29,53,-87,-58,-82,-156
43,-58,-102,7,73,-80,29,48,-87,-53,-82,-156
39,-53,-92,7,65,-73,29,48,-82,-48,-78,-156
39,-43,-82,2,61,-63,24,43,-82,-48,-78,-161
43,-39,-82,-2,63,-61,19,39,-87,-48,-82,-165
43,-39,-82,-2,63,-61,19,39,-87,-48,-82,-165
43,-39,-82,-2,63,-61,14,43,-87,-48,-82,-161
39,-39,-78,0,58,-58,19,43,-87,-48,-82,-156
43,-43,-87,0,65,-65,19,43,-87,-53,-87,-161
43,-53,-97,4,70,-75,19,48,-92,-58,-92,-161
43,-58,-102,7,73,-80,24,53,-92,-58,-87,-151
43,-58,-102,7,73,-80,24,53,-92,-58,-87,-156
43,-63,-107,9,75,-85,24,53,-92,-63,-87,-156
43,-63,-107,9,75,-85,24,53,-97,-63,-87,-156
43,-68,-112,12,78,-90,24,53,-102,-68,-92,-161
39,-78,-117,19,78,-97,24,53,-102,-68,-97,-165
39,-78,-117,19,78,-97,24,53,-107,-73,-97,-165
39,-78,-117,19,78,-97,19,48,-107,-68,-97,-161
39,-73,-112,17,75,-92,19,48,-102,-68,-97,-156
39,-78,-117,19,78,-97,19,48,-107,-68,-97,-156
34,-78,-112,21,73,-95,24,48,-107,-68,-97,-151
34,-78,-112,21,73,-95,24,48,-107,-68,-97,-146
34,-78,-112,21,73,-95,24,48,-107,-73,-97,-151
34,-82,-117,24,75,-100,24,48,-112,-73,-97,-156
34,-82,-117,24,75,-100,24,48,-112,-73,-97,-156
39,-82,-122,21,80,-102,24,43,-112,-73,-97,-156
39,-78,-117,19,78,-97,19,39,-112,-68,-97,-156
39,-73,-112,17,75,-92,19,39,-107,-63,-92,-156
39,-68,-107,14,73,-87,19,39,-107,-58,-87,-151
34,-68,-102,17,68,-85,19,43,-107,-58,-87,-151
34,-68,-102,17,68,-85,19,43,-107,-63,-87,-151
34,-63,-97,14,65,-80,19,43,-107,-63,-87,-151
34,-68,-102,17,68,-85,19,43,-112,-68,-87,-151
34,-73,-107,19,70,-90,19,43,-117,-73,-92,-156
39,-78,-117,19,78,-97,14,43,-117,-78,-97,-156
39,-82,-122,21,80,-102,19,53,-112,-73,-92,-151
43,-87,-131,21,87,-109,19,48,-117,-73,-97,-151
39,-87,-126,24,82,-107,14,48,-117,-73,-97,-151
39,-82,-122,21,80,-102,14,48,-112,-68,-92,-151
43,-78,-122,17,82,-100,14,43,-112,-68,-92,-151
39,-73,-112,17,75,-92,14,43,-107,-63,-87,-151
39,-68,-107,14,73,-87,14,39,-107,-63,-87,-151
39,-68,-107,14,73,-87,19,39,-107,-63,-87,-151
39,-68,-107,14,73,-87,19,39,-112,-68,-87,-156
39,-73,-112,17,75,-92,19,39,-122,-78,-97,-161
39,-78,-117,19,78,-97,19,39,-126,-82,-102,-165
39,-82,-122,21,80,-102,24,48,-126,-82,-102,-165
34,-92,-126,29,80,-109,24,48,-122,-82,-107,-165
29,-97,-126,34,78,-112,24,48,-126,-82,-107,-165
29,-97,-126,34,78,-112,19,43,-126,-82,-112,-165
29,-97,-126,34,78,-112,19,43,-126,-82,-112,-165
29,-97,-126,34,78,-112,14,39,-126,-78,-107,-161
29,-92,-122,31,75,-107,14,39,-126,-78,-107,-161
34,-92,-126,29,80,-109,14,39,-126,-73,-102,-156
34,-87,-122,26,78,-104,9,39,-126,-73,-102,-156
34,-82,-117,24,75,-100,9,43,-122,-68,-97,-151
39,-78,-117,19,78,-97,4,39,-122,-68,-97,-156
39,-73,-112,17,75,-92,4,39,-117,-63,-92,-156
39,-68,-107,14,73,-87,4,43,-112,-58,-87,-156
39,-63,-102,12,70,-82,0,39,-117,-63,-92,-161
39,-63,-102,12,70,-82,0,39,-112,-58,-92,-161
39,-58,-97,9,68,-78,0,39,-112,-58,-87,-156
34,-58,-92,12,63,-75,0,39,-112,-58,-92,-156
34,-58,-92,12,63,-75,0,34,-117,-63,-92,-156
34,-58,-92,12,63,-75,0,34,-117,-63,-92,-156
29,-63,-92,17,61,-78,9,39,-112,-63,-92,-151
34,-63,-97,14,65,-80,9,39,-112,-63,-92,-151
34,-68,-102,17,68,-85,9,39,-112,-63,-92,-151
39,-73,-112,17,75,-92,9,39,-112,-68,-97,-156
39,-78,-117,19,78,-97,9,39,-122,-78,-102,-161
39,-82,-122,21,80,-102,14,43,-122,-78,-102,-161
39,-87,-126,24,82,-107,14,43,-122,-78,-102,-161
39,-87,-126,24,82,-107,9,43,-126,-78,-102,-161
34,-87,-122,26,78,-104,9,39,-131,-78,-102,-165
34,-82,-117,24,75,-100,4,34,-126,-73,-97,-161
34,-73,-107,19,70,-90,0,29,-126,-73,-97,-161
34,-68,-102,17,68,-85,0,29,-122,-68,-92,-156
34,-68,-102,17,68,-85,0,29,-126,-68,-92,-156
29,-68,-97,19,63,-82,0,29,-126,-68,-92,-156
29,-73,-102,21,65,-87,4,34,-122,-63,-92,-151
29,-73,-102,21,65,-87,4,34,-126,-68,-92,-156
34,-73,-107,19,70,-90,0,34,-131,-73,-97,-161
34,-73,-107,19,70,-90,0,34,-131,-73,-97,-161
34,-73,-107,19,70,-90,0,34,-126,-73,-92,-156
39,-73,-112,17,75,-92,0,34,-126,-73,-92,-156
39,-73,-112,17,75,-92,0,34,-126,-73,-92,-156
39,-78,-117,19,78,-97,0,34,-126,-73,-92,-151
34,-78,-112,21,73,-95,4,39,-122,-68,-87,-146
34,-82,-117,24,75,-100,4,39,-126,-73,-92,-151
34,-87,-122,26,78,-104,4,39,-131,-73,-92,-151
34,-82,-117,24,75,-100,4,39,-131,-73,-92,-151
34,-78,-112,21,73,-95,4,39,-126,-73,-87,-146
34,-78,-112,21,73,-95,4,39,-122,-68,-87,-146
39,-73,-112,17,75,-92,0,39,-122,-68,-87,-146
39,-68,-107,14,73,-87,0,39,-122,-63,-87,-146
39,-68,-107,14,73,-87,4,39,-122,-63,-87,-146
39,-73,-112,17,75,-92,4,34,-122,-68,-92,-146
34,-73,-107,19,70,-90,0,34,-122,-68,-92,-151
34,-73,-107,19,70,-90,0,34,-126,-73,-97,-156
29,-73,-102,21,65,-87,4,34,-122,-68,-92,-156
29,-73,-102,21,65,-87,4,34,-122,-68,-92,-156
29,-73,-102,21,65,-87,4,29,-122,-68,-92,-161
29,-68,-97,19,63,-82,-9,24,-126,-73,-97,-165
29,-68,-97,19,63,-82,-9,24,-131,-73,-97,-161
29,-68,-97,19,63,-82,-9,24,-131,-73,-97,-161
34,-68,-102,17,68,-85,-9,29,-126,-73,-97,-156
34,-68,-102,17,68,-85,-9,29,-126,-68,-92,-151
34,-68,-102,17,68,-85,-9,29,-122,-68,-92,-151
34,-68,-102,17,68,-85,-9,29,-122,-63,-92,-146
34,-63,-97,14,65,-80,-9,29,-117,-63,-87,-146
34,-63,-97,14,65,-80,-9,29,-117,-63,-87,-146
34,-68,-102,17,68,-85,-9,29,-117,-63,-87,-151
29,-68,-97,19,63,-82,-9,24,-122,-68,-92,-151
34,-73,-107,19,70,-90,-9,29,-122,-73,-97,-156
34,-73,-107,19,70,-90,-9,29,-126,-73,-97,-161
34,-78,-112,21,73,-95,4,34,-126,-73,-92,-156
34,-78,-112,21,73,-95,4,34,-126,-73,-92,-151
34,-78,-112,21,73,-95,4,39,-126,-73,-92,-151
34,-73,-107,19,70,-90,0,34,-131,-73,-92,-151
39,-68,-107,14,73,-87,0,39,-126,-68,-87,-146
39,-63,-102,12,70,-82,0,34,-122,-68,-87,-146
39,-53,-92,7,65,-73,0,34,-112,-58,-78,-141
39,-48,-87,4,63,-68,-9,29,-107,-53,-78,-146
43,-39,-82,-2,63,-61,-9,24,-102,-48,-73,-141
43,-24,-68,-9,56,-46,-9,19,-97,-39,-68,-141
48,-14,-63,-17,56,-39,-9,19,-92,-34,-63,-141
53,0,-53,-26,53,-26,-9,19,-87,-29,-58,-136
53,4,-48,-29,51,-21,-9,24,-78,-24,-48,-126
58,9,-48,-34,53,-19,-9,24,-78,-24,-48,-126
58,14,-43,-36,51,-14,-9,24,-73,-19,-43,-122
63,19,-43,-41,53,-12,-14,19,-73,-19,-43,-122
63,24,-39,-43,51,-7,-14,19,-68,-14,-39,-112
63,29,-34,-46,48,-2,-14,19,-63,-9,-34,-107
68,29,-39,-48,53,-4,-19,14,-63,-14,-39,-107
68,34,-34,-51,51,0,-19,9,-58,-9,-34,-102
73,39,-34,-56,53,2,-19,9,-63,-14,-34,-107
73,39,-34,-56,53,2,-19,9,-63,-14,-34,-102
68,39,-29,-53,48,4,-9,14,-58,-9,-29,-102
68,39,-29,-53,48,4,0,14,-58,-9,-34,-107
68,39,-29,-53,48,4,4,14,-53,-9,-34,-107
68,43,-24,-56,46,9,4,14,-53,0,-34,-107
73,53,-19,-63,46,17,0,14,-48,4,-29,-102
78,63,-14,-70,46,24,-9,9,-39,9,-24,-97
87,78,-9,-82,48,34,-19,9,-34,19,-14,-87
97,97,0,-97,48,48,-34,4,-24,29,0,-78
102,117,14,-109,43,65,-48,-9,-24,34,9,-68
107,126,19,-117,43,73,-63,-14,-14,39,19,-53
107,141,34,-124,36,87,-73,-19,-14,43,24,-48
112,146,34,-129,39,90,-87,-24,-14,48,29,-43
112,151,39,-131,36,95,-92,-29,-9,53,34,-39
117,156,39,-136,39,97,-97,-29,-9,53,39,-34
117,151,34,-134,41,92,-97,-24,-14,53,39,-29
122,146,24,-134,48,85,-97,-24,-19,48,34,-29
122,136,14,-129,53,75,-102,-19,-24,43,29,-34
126,126,0,-126,63,63,-102,-14,-34,34,24,-34
131,117,-14,-124,73,51,-102,-14,-43,24,14,-39
131,107,-24,-119,78,41,-102,-9,-53,19,9,-43
126,97,-29,-112,78,34,-97,-9,-53,14,9,-43
126,92,-34,-109,80,29,-102,-9,-63,9,4,-43
122,92,-29,-107,75,31,-102,-14,-63,9,4,-43
117,92,-24,-104,70,34,-97,-14,-63,14,4,-39
112,87,-24,-100,68,31,-97,-14,-68,14,4,-43
107,87,-19,-97,63,34,-92,-14,-68,14,4,-39
107,82,-24,-95,65,29,-92,-19,-73,9,0,-43
97,73,-24,-85,61,24,-87,-19,-73,4,-9,-48
92,63,-29,-78,61,17,-82,-19,-82,-9,-19,-58
82,48,-34,-65,58,7,-78,-14,-82,-9,-19,-63
68,34,-34,-51,51,0,-68,-14,-82,-14,-24,-73
58,19,-39,-39,48,-9,-58,-9,-87,-19,-29,-78
48,4,-43,-26,46,-19,-53,-9,-92,-24,-43,-92
43,-14,-58,-14,51,-36,-43,4,-97,-29,-48,-97
34,-29,-63,-2,48,-46,-39,4,-102,-39,-58,-107
29,-43,-73,7,51,-58,-29,14,-102,-39,-63,-112
29,-53,-82,12,56,-68,-29,14,-117,-53,-78,-126
29,-68,-97,19,63,-82,-24,19,-122,-58,-82,-131
24,-73,-97,24,61,-85,-24,24,-126,-63,-87,-136
24,-82,-107,29,65,-95,-19,24,-126,-63,-87,-136
24,-87,-112,31,68,-100,-19,24,-131,-68,-92,-146
19,-87,-107,34,63,-97,-24,19,-136,-73,-97,-151
19,-92,-112,36,65,-102,-19,19,-136,-73,-97,-146
19,-92,-112,36,65,-102,-19,19,-136,-78,-97,-151
14,-97,-112,41,63,-104,-19,19,-141,-78,-102,-151
19,-107,-126,43,73,-117,-14,24,-141,-78,-102,-151
19,-117,-136,48,78,-126,-14,24,-151,-87,-112,-161
19,-131,-151,56,85,-141,0,34,-161,-102,-122,-170
14,-161,-175,73,95,-168,19,53,-165,-112,-131,-180
4,-185,-190,90,97,-187,43,73,-175,-131,-151,-195
-9,-224,-214,117,102,-219,73,92,-180,-141,-170,-219
-29,-253,-224,141,97,-239,112,117,-180,-161,-190,-248
-48,-283,-234,165,92,-258,161,146,-170,-165,-214,-268
-63,-297,-234,180,85,-265,214,175,-146,-165,-229,-292
-73,-292,-219,183,73,-256,253,204,-117,-151,-229,-307
-68,-268,-200,168,65,-234,283,224,-78,-126,-224,-312
-43,-224,-180,134,68,-202,287,244,-34,-92,-209,-307
9,-151,-161,70,85,-156,268,263,14,-43,-170,-283
82,-48,-131,-17,107,-90,214,273,63,24,-117,-244
180,92,-87,-136,134,2,117,273,112,107,-34,-170
297,263,-34,-280,165,114,-19,244,165,209,63,-87
419,463,43,-441,187,253,-185,185,234,317,180,29
527,678,151,-602,187,414,-380,87,287,439,317,151
629,893,263,-761,183,578,-580,-34,336,546,453,292
702,1088,385,-895,158,736,-780,-165,375,649,575,429
736,1229,492,-983,122,861,-956,-312,375,702,678,541
736,1298,561,-1017,87,929,-1083,-448,331,707,736,634
707,1278,570,-993,68,924,-1171,-570,219,649,741,683
653,1171,517,-912,68,844,-1205,-653,68,541,702,692
575,1000,424,-788,75,712,-1190,-702,-112,395,624,663
478,800,322,-639,78,561,-1127,-727,-292,244,522,610
380,585,204,-483,87,395,-1039,-732,-448,92,424,546
297,380,82,-339,107,231,-936,-697,-570,-43,312,463
224,204,-19,-214,122,92,-829,-639,-653,-151,214,380
156,63,-92,-109,124,-14,-722,-580,-688,-224,126,302
107,-29,-136,-39,122,-82,-634,-522,-683,-263,68,239
82,-97,-180,7,131,-139,-546,-448,-663,-283,19,175
63,-146,-209,41,136,-178,-473,-375,-639,-302,-34,112
48,-175,-224,63,136,-200,-395,-312,-590,-297,-63,63
39,-175,-214,68,126,-195,-326,-253,-531,-278,-78,29
29,-170,-200,70,114,-185,-258,-200,-478,-253,-87,0
24,-170,-195,73,109,-183,-190,-151,-424,-234,-92,-24
9,-161,-170,75,90,-165,-136,-117,-370,-209,-97,-43
0,-151,-151,75,75,-151,-92,-92,-322,-175,-92,-58
-9,-136,-126,73,58,-131,-63,-73,-278,-156,-92,-73
-14,-131,-117,73,51,-124,-34,-58,-248,-141,-92,-87
-19,-131,-112,75,46,-122,-14,-39,-219,-126,-97,-97
-24,-131,-107,78,41,-119,9,-24,-200,-122,-102,-117
-29,-141,-112,85,41,-126,29,-9,-185,-117,-112,-126
-29,-156,-126,92,48,-141,43,4,-175,-122,-122,-141
-34,-170,-136,102,51,-153,48,14,-170,-122,-126,-151
-34,-175,-141,104,53,-158,58,29,-161,-122,-126,-156
-34,-175,-141,104,53,-158,63,34,-156,-117,-126,-156
-29,-180,-151,104,61,-165,68,34,-151,-117,-131,-161
-29,-175,-146,102,58,-161,63,29,-151,-117,-131,-165
-29,-170,-141,100,56,-156,68,34,-146,-112,-126,-161
-24,-165,-141,95,58,-153,68,34,-146,-112,-126,-165
-29,-165,-136,97,53,-151,73,39,-146,-112,-126,-165
-34,-170,-136,102,51,-153,73,39,-146,-117,-131,-170
-34,-175,-141,104,53,-158,78,43,-146,-112,-136,-170
-34,-180,-146,107,56,-163,78,43,-146,-117,-141,-175
-34,-185,-151,109,58,-168,82,48,-146,-117,-141,-180
-34,-185,-151,109,58,-168,82,48,-141,-117,-141,-180
-34,-180,-146,107,56,-163,87,48,-136,-112,-136,-175
-34,-175,-141,104,53,-158,87,53,-136,-107,-131,-170
-29,-170,-141,100,56,-156,82,48,-136,-107,-131,-170
-34,-165,-131,100,48,-148,82,53,-131,-107,-131,-165
-34,-165,-131,100,48,-148,82,53,-131,-102,-131,-165
-39,-170,-131,104,46,-151,87,53,-126,-97,-126,-165
-39,-170,-131,104,46,-151,87,53,-126,-102,-131,-170
-39,-170,-131,104,46,-151,92,53,-126,-97,-131,-170
-39,-170,-131,104,46,-151,92,53,-126,-97,-131,-170
-34,-170,-136,102,51,-153,87,48,-131,-102,-131,-175
-34,-170,-136,102,51,-153,87,53,-131,-102,-131,-175
-34,-170,-136,102,51,-153,87,53,-131,-102,-131,-175
-34,-170,-136,102,51,-153,87,53,-131,-102,-136,-175
-34,-175,-141,104,53,-158,92,58,-126,-102,-131,-175
-39,-175,-136,107,48,-156,97,63,-122,-102,-131,-175
-39,-175,-136,107,48,-156,97,58,-122,-97,-131,-175
-39,-175,-136,107,48,-156,102,58,-122,-97,-126,-175
-39,-170,-131,104,46,-151,102,58,-117,-92,-122,-170
-39,-165,-126,102,43,-146,97,58,-117,-97,-122,-170
-39,-165,-126,102,43,-146,97,58,-117,-92,-122,-170
-39,-165,-126,102,43,-146,97,58,-117,-97,-122,-170
-39,-165,-126,102,43,-146,97,58,-117,-97,-122,-170
-39,-165,-126,102,43,-146,97,58,-112,-97,-126,-170
-39,-165,-126,102,43,-146,97,58,-112,-97,-131,-175
-39,-165,-126,102,43,-146,97,58,-112,-97,-131,-175
-34,-161,-126,97,46,-143,102,58,-112,-92,-126,-175
-34,-156,-122,95,43,-139,97,53,-112,-97,-131,-175
-34,-156,-122,95,43,-139,97,53,-112,-97,-131,-175
-39,-156,-117,97,39,-136,102,63,-107,-92,-126,-170
-39,-151,-112,95,36,-131,102,58,-107,-92,-126,-175
-34,-151,-117,92,41,-134,102,63,-102,-87,-122,-175
-39,-151,-112,95,36,-131,102,63,-97,-87,-122,-170
-39,-151,-112,95,36,-131,102,58,-97,-87,-122,-175
-43,-156,-112,100,34,-134,107,63,-92,-82,-117,-170
-39,-156,-117,97,39,-136,107,58,-92,-82,-117,-165
-43,-156,-112,100,34,-134,107,58,-97,-82,-122,-165
-43,-161,-117,102,36,-139,107,58,-102,-92,-122,-165
-43,-165,-122,104,39,-143,117,68,-102,-92,-122,-165
-43,-165,-122,104,39,-143,117,73,-102,-97,-126,-165
-43,-165,-122,104,39,-143,122,73,-97,-97,-126,-165
-43,-165,-122,104,39,-143,122,73,-97,-92,-126,-165
-39,-161,-122,100,41,-141,122,68,-92,-92,-126,-170
-34,-156,-122,95,43,-139,117,68,-92,-87,-122,-170
-34,-146,-112,90,39,-129,117,68,-87,-82,-117,-165
-29,-141,-112,85,41,-126,117,68,-87,-82,-122,-165
-29,-141,-112,85,41,-126,122,73,-82,-78,-117,-161
-24,-136,-112,80,43,-124,122,73,-78,-78,-117,-161
-24,-131,-107,78,41,-119,122,78,-73,-73,-112,-161
-24,-131,-107,78,41,-119,126,78,-68,-68,-112,-161
-29,-126,-97,78,34,-112,126,78,-63,-63,-107,-161
-29,-126,-97,78,34,-112,131,78,-58,-58,-107,-156
-29,-122,-92,75,31,-107,131,73,-58,-53,-102,-156
-34,-122,-87,78,26,-104,131,73,-53,-53,-102,-156
-34,-117,-82,75,24,-100,131,68,-53,-53,-102,-156
-34,-117,-82,75,24,-100,131,68,-48,-53,-102,-156
-34,-112,-78,73,21,-95,126,63,-48,-53,-102,-161
-34,-107,-73,70,19,-90,131,63,-43,-48,-102,-156
-34,-102,-68,68,17,-85,131,63,-34,-43,-97,-151
-34,-97,-63,65,14,-80,131,58,-34,-43,-97,-151
-34,-92,-58,63,12,-75,131,63,-24,-34,-92,-141
-29,-87,-58,58,14,-73,131,63,-24,-34,-87,-141
-29,-82,-53,56,12,-68,136,68,-19,-29,-82,-136
-29,-78,-48,53,9,-63,136,68,-14,-29,-82,-131
-29,-78,-48,53,9,-63,141,73,-9,-24,-78,-126
-24,-78,-53,51,14,-65,136,73,0,-29,-78,-131
-29,-73,-43,51,7,-58,141,73,4,-24,-78,-126
-29,-68,-39,48,4,-53,146,73,9,-19,-73,-126
-29,-63,-34,46,2,-48,151,68,14,-9,-68,-122
-29,-58,-29,43,0,-43,146,63,19,-9,-63,-122
-29,-48,-19,39,-4,-34,151,63,24,0,-58,-112
-29,-43,-14,36,-7,-29,146,58,24,0,-58,-117
-29,-39,-9,34,-9,-24,151,63,34,4,-58,-112
-29,-34,-4,31,-12,-19,151,63,43,9,-53,-107
-29,-24,4,26,-17,-9,151,53,48,14,-48,-102
-29,-19,9,24,-19,-4,156,53,58,24,-43,-97
-29,-9,19,19,-24,4,151,48,68,29,-39,-92
-29,4,34,12,-31,19,151,43,73,34,-34,-87
-29,14,43,7,-36,29,156,43,82,43,-24,-82
-29,19,48,4,-39,34,151,43,87,48,-19,-78
-34,24,58,4,-46,41,156,39,97,53,-14,-73
-34,29,63,2,-48,46,156,39,102,58,-9,-73
-34,34,68,0,-51,51,161,39,112,63,0,-68
-34,43,78,-4,-56,61,161,34,117,68,4,-68
-34,53,87,-9,-61,70,161,24,122,78,9,-63
-34,63,97,-14,-65,80,161,19,136,87,19,-53
-39,78,117,-19,-78,97,161,14,141,92,19,-53
-39,92,131,-26,-85,112,156,9,151,97,24,-43
-39,102,141,-31,-90,122,151,4,156,107,34,-39
-43,117,161,-36,-102,139,151,0,165,112,39,-34
-43,126,170,-41,-107,148,151,-9,170,117,39,-34
-43,136,180,-46,-112,158,146,-19,175,117,43,-34
-43,146,190,-51,-117,168,151,-19,190,126,53,-24
-43,151,195,-53,-119,173,146,-29,190,131,58,-24
-43,156,200,-56,-122,178,146,-34,204,136,63,-14
-43,161,204,-58,-124,183,146,-34,209,141,68,0
-43,165,209,-61,-126,187,141,-43,209,141,68,4
-48,165,214,-58,-131,190,146,-39,219,146,73,14
-48,165,214,-58,-131,190,141,-43,219,146,73,19
-53,165,219,-56,-136,192,141,-48,224,151,78,24
-58,170,229,-56,-143,200,141,-58,229,151,82,29
-58,175,234,-58,-146,204,136,-63,234,156,87,39
-63,180,244,-58,-153,212,136,-68,239,161,97,48
-63,190,253,-63,-158,222,126,-82,239,161,102,53
-68,204,273,-68,-170,239,122,-92,244,170,107,63
-73,209,283,-68,-178,246,112,-102,248,170,112,68
-73,219,292,-73,-183,256,102,-117,253,175,112,68
-73,224,297,-75,-185,261,97,-122,253,180,117,73
-78,229,307,-75,-192,268,92,-136,253,180,122,78
-82,229,312,-73,-197,270,82,-146,248,175,117,78
-82,224,307,-70,-195,265,78,-151,244,170,117,82
-87,219,307,-65,-197,263,73,-156,239,170,117,87
-87,209,297,-61,-192,253,68,-156,229,165,117,92
-92,195,287,-51,-190,241,63,-161,224,156,117,92
-97,190,287,-46,-192,239,53,-165,214,151,107,87
-97,180,278,-41,-187,229,48,-170,209,146,107,87
-102,180,283,-39,-192,231,39,-175,195,141,107,82
-102,175,278,-36,-190,226,39,-180,195,146,107,87
-102,175,278,-36,-190,226,29,-185,190,141,107,87
-102,170,273,-34,-187,222,24,-190,180,136,102,82
-102,170,273,-34,-187,222,19,-190,175,131,97,78
-102,165,268,-31,-185,217,9,-195,165,126,92,78
-102,156,258,-26,-180,207,4,-190,161,122,92,73
-102,146,248,-21,-175,197,4,-190,151,122,87,68
-97,136,234,-19,-165,185,0,-190,136,107,78,58
-97,131,229,-17,-163,180,-14,-195,126,97,73,53
-92,122,214,-14,-153,168,-14,-190,117,92,68,48
-92,112,204,-9,-148,158,-19,-185,102,82,58,43
-87,102,190,-7,-139,146,-19,-175,92,78,58,39
-87,92,180,-2,-134,136,-19,-175,82,68,48,34
-87,82,170,2,-129,126,-24,-165,73,63,43,29
-82,68,151,7,-117,109,-24,-156,68,63,43,24
-82,63,146,9,-114,104,-24,-151,58,53,34,19
-78,53,131,12,-104,92,-29,-151,53,53,34,14
-73,53,126,9,-100,90,-29,-146,48,48,29,9
-68,48,117,9,-92,82,-29,-136,43,48,29,4
-63,48,112,7,-87,80,-24,-131,39,48,29,4
-53,48,102,2,-78,75,-29,-122,29,43,24,-9
-48,48,97,0,-73,73,-29,-112,24,39,19,-9
-43,39,82,2,-63,61,-29,-102,19,34,14,-14
-34,34,68,0,-51,51,-29,-97,9,29,9,-19
-29,29,58,0,-43,43,-29,-87,0,24,4,-24
-24,19,43,2,-34,31,-29,-82,-9,19,0,-34
-24,14,39,4,-31,26,-34,-78,-19,9,-9,-39
-19,9,29,4,-24,19,-34,-73,-29,4,-14,-43
-14,4,19,4,-17,12,-34,-68,-34,4,-14,-48
-19,4,24,7,-21,14,-29,-58,-29,9,-14,-43
-19,0,19,9,-19,9,-29,-53,-34,9,-14,-48
-14,4,19,4,-17,12,-34,-53,-34,9,-19,-53
0,9,9,-4,-4,9,-39,-48,-34,9,-19,-58
0,9,9,-4,-4,9,-34,-43,-34,14,-19,-63
4,9,4,-7,0,7,-34,-39,-34,14,-19,-63
9,9,0,-9,4,4,-34,-34,-39,9,-24,-63
14,0,-14,-7,14,-7,-34,-29,-43,4,-29,-68
9,-14,-24,2,17,-19,-29,-24,-48,0,-29,-68
9,-24,-34,7,21,-29,-24,-14,-53,0,-34,-68
9,-34,-43,12,26,-39,-24,-14,-58,-14,-39,-73
9,-43,-53,17,31,-48,-19,0,-58,-19,-39,-68
9,-48,-58,19,34,-53,-14,0,-63,-24,-43,-73
14,-53,-68,19,41,-61,-14,0,-63,-24,-43,-68
14,-53,-68,19,41,-61,-9,4,-63,-24,-43,-68
19,-53,-73,17,46,-63,-9,9,-63,-24,-39,-68
24,-48,-73,12,48,-61,-14,9,-68,-29,-43,-73
24,-48,-73,12,48,-61,-14,14,-68,-29,-43,-73
24,-48,-73,12,48,-61,-14,19,-68,-29,-48,-78
24,-48,-73,12,48,-61,-14,19,-68,-29,-48,-78
24,-48,-73,12,48,-61,-9,19,-68,-29,-48,-82
24,-48,-73,12,48,-61,-9,19,-68,-29,-53,-87
19,-48,-68,14,43,-58,0,24,-63,-24,-48,-82
19,-48,-68,14,43,-58,4,19,-58,-19,-48,-82
24,-48,-73,12,48,-61,0,19,-63,-24,-53,-87
24,-53,-78,14,51,-65,4,24,-63,-24,-48,-82
24,-58,-82,17,53,-70,0,24,-63,-29,-53,-87
24,-63,-87,19,56,-75,0,29,-68,-29,-53,-92
24,-63,-87,19,56,-75,0,29,-68,-34,-53,-92
24,-63,-87,19,56,-75,0,34,-68,-34,-53,-92
24,-63,-87,19,56,-75,4,34,-68,-29,-53,-92
24,-58,-82,17,53,-70,4,34,-63,-29,-48,-92
24,-53,-78,14,51,-65,4,34,-63,-24,-48,-92
24,-48,-73,12,48,-61,4,29,-63,-29,-53,-92
24,-48,-73,12,48,-61,4,29,-63,-29,-53,-92
24,-53,-78,14,51,-65,9,34,-53,-19,-48,-87
24,-48,-73,12,48,-61,4,29,-58,-24,-53,-92
24,-43,-68,9,46,-56,4,29,-53,-19,-48,-87
24,-43,-68,9,46,-56,4,29,-53,-14,-48,-87
24,-39,-63,7,43,-51,4,29,-53,-14,-48,-82
29,-34,-63,2,46,-48,0,24,-53,-14,-48,-82
29,-29,-58,0,43,-43,0,29,-48,-9,-43,-78
29,-29,-58,0,43,-43,0,29,-48,-9,-43,-82
29,-34,-63,2,46,-48,0,29,-48,-9,-43,-82
34,-34,-68,0,51,-51,0,34,-48,-14,-43,-87
34,-39,-73,2,53,-56,4,34,-48,-14,-43,-87
29,-43,-73,7,51,-58,9,39,-48,-14,-43,-87
29,-48,-78,9,53,-63,9,39,-58,-19,-48,-87
29,-53,-82,12,56,-68,9,39,-58,-24,-53,-87
29,-53,-82,12,56,-68,9,39,-63,-24,-53,-87
29,-58,-87,14,58,-73,9,43,-58,-24,-48,-82
24,-58,-82,17,53,-70,9,43,-63,-24,-53,-87
24,-58,-82,17,53,-70,9,43,-63,-24,-53,-87
29,-63,-92,17,61,-78,9,43,-63,-24,-53,-82
24,-63,-87,19,56,-75,4,39,-63,-29,-58,-87
24,-63,-87,19,56,-75,4,39,-68,-34,-58,-87
24,-68,-92,21,58,-80,9,39,-68,-34,-53,-82
24,-68,-92,21,58,-80,9,39,-68,-34,-53,-82
24,-68,-92,21,58,-80,9,43,-73,-39,-58,-87
19,-68,-87,24,53,-78,4,39,-73,-39,-58,-87
19,-68,-87,24,53,-78,4,39,-73,-34,-58,-87
19,-63,-82,21,51,-73,4,39,-73,-34,-53,-87
24,-63,-87,19,56,-75,4,34,-73,-34,-58,-87
24,-58,-82,17,53,-70,4,34,-73,-29,-53,-87
24,-53,-78,14,51,-65,0,29,-68,-24,-53,-82
24,-53,-78,14,51,-65,0,29,-68,-24,-48,-82
24,-48,-73,12,48,-61,-9,24,-73,-24,-53,-87
19,-48,-68,14,43,-58,0,29,-68,-24,-48,-82
19,-48,-68,14,43,-58,-9,29,-68,-19,-48,-87
24,-43,-68,9,46,-56,-14,24,-68,-24,-48,-87
24,-43,-68,9,46,-56,-14,24,-68,-24,-48,-87
24,-43,-68,9,46,-56,-14,24,-68,-24,-48,-87
24,-43,-68,9,46,-56,-14,24,-68,-24,-48,-92
24,-43,-68,9,46,-56,-14,24,-73,-29,-53,-92
19,-48,-68,14,43,-58,-9,24,-73,-24,-48,-87
14,-48,-63,17,39,-56,-9,24,-78,-29,-53,-87
14,-53,-68,19,41,-61,-14,24,-87,-34,-58,-87
9,-58,-68,24,39,-63,-9,29,-82,-34,-58,-82
14,-63,-78,24,46,-70,-9,29,-87,-34,-58,-82
14,-63,-78,24,46,-70,-9,29,-82,-34,-53,-82
14,-68,-82,26,48,-75,-9,29,-87,-34,-53,-82
14,-68,-82,26,48,-75,-9,29,-87,-39,-53,-82
14,-68,-82,26,48,-75,-9,29,-92,-39,-53,-82
19,-68,-87,24,53,-78,-9,29,-92,-39,-53,-78
19,-68,-87,24,53,-78,-9,29,-92,-39,-53,-78
19,-73,-92,26,56,-82,-9,29,-97,-39,-53,-78
19,-73,-92,26,56,-82,-9,29,-97,-43,-58,-82
19,-73,-92,26,56,-82,-14,24,-97,-43,-58,-78
19,-73,-92,26,56,-82,-14,24,-97,-43,-58,-82
19,-78,-97,29,58,-87,-9,29,-97,-43,-53,-78
19,-78,-97,29,58,-87,-9,29,-97,-43,-53,-78
19,-73,-92,26,56,-82,-14,24,-102,-48,-58,-78
19,-78,-97,29,58,-87,-14,29,-97,-43,-53,-73
14,-78,-92,31,53,-85,-14,29,-97,-43,-53,-78
19,-78,-97,29,58,-87,-14,29,-97,-43,-53,-73
19,-78,-97,29,58,-87,-14,29,-97,-43,-53,-73
19,-78,-97,29,58,-87,-14,29,-97,-43,-53,-73
19,-78,-97,29,58,-87,-14,29,-97,-43,-53,-73
24,-73,-97,24,61,-85,-19,24,-102,-48,-53,-73
24,-73,-97,24,61,-85,-19,29,-102,-48,-53,-73
19,-73,-92,26,56,-82,-19,24,-102,-48,-53,-78
14,-78,-92,31,53,-85,-14,29,-97,-43,-53,-78
14,-78,-92,31,53,-85,-14,24,-97,-43,-53,-78
9,-78,-87,34,48,-82,-14,24,-102,-48,-53,-82
9,-78,-87,34,48,-82,-14,24,-102,-48,-58,-87
9,-78,-87,34,48,-82,-14,24,-102,-48,-58,-87
9,-78,-87,34,48,-82,-14,24,-102,-48,-58,-87
9,-78,-87,34,48,-82,-14,29,-102,-48,-58,-87
9,-78,-87,34,48,-82,-14,29,-107,-48,-63,-87
4,-82,-87,39,46,-85,-14,29,-102,-43,-58,-82
4,-82,-87,39,46,-85,-9,34,-102,-48,-58,-78
4,-82,-87,39,46,-85,-9,34,-102,-48,-58,-78
9,-78,-87,34,48,-82,-14,29,-107,-48,-58,-82
14,-78,-92,31,53,-85,-14,29,-102,-48,-58,-78
14,-78,-92,31,53,-85,-9,34,-102,-48,-53,-73
19,-78,-97,29,58,-87,-9,34,-102,-48,-53,-73
19,-78,-97,29,58,-87,-9,34,-102,-48,-53,-73
19,-82,-102,31,61,-92,-9,34,-102,-48,-53,-73
19,-82,-102,31,61,-92,-9,34,-102,-48,-53,-73
19,-82,-102,31,61,-92,-14,29,-107,-53,-58,-78
19,-82,-102,31,61,-92,-14,29,-107,-53,-58,-78
24,-82,-107,29,65,-95,-19,29,-102,-53,-58,-78
24,-78,-102,26,63,-90,-24,24,-107,-58,-58,-82
19,-82,-102,31,61,-92,-19,29,-107,-53,-58,-78
19,-82,-102,31,61,-92,-24,29,-107,-53,-58,-78
19,-82,-102,31,61,-92,-19,29,-107,-58,-58,-78
19,-82,-102,31,61,-92,-19,34,-107,-58,-58,-78
19,-87,-107,34,63,-97,-19,34,-107,-53,-58,-78
14,-87,-102,36,58,-95,-14,39,-102,-48,-53,-68
14,-87,-102,36,58,-95,-14,39,-102,-48,-48,-68
19,-82,-102,31,61,-92,-19,34,-107,-48,-53,-73
19,-82,-102,31,61,-92,-19,34,-102,-48,-48,-68
24,-78,-102,26,63,-90,-24,29,-102,-48,-53,-73
24,-78,-102,26,63,-90,-24,34,-102,-48,-53,-73
24,-78,-102,26,63,-90,-19,34,-102,-48,-53,-73
24,-78,-102,26,63,-90,-19,34,-107,-48,-58,-78
19,-78,-97,29,58,-87,-14,34,-102,-48,-53,-73
19,-73,-92,26,56,-82,-19,29,-107,-53,-58,-78
19,-73,-92,26,56,-82,-14,24,-107,-53,-58,-82
14,-73,-87,29,51,-80,-9,29,-107,-53,-53,-78
14,-73,-87,29,51,-80,-14,29,-107,-53,-53,-78
14,-73,-87,29,51,-80,-14,29,-107,-48,-53,-78
9,-73,-82,31,46,-78,-14,29,-107,-48,-53,-82
9,-78,-87,34,48,-82,-19,29,-112,-53,-58,-82
9,-78,-87,34,48,-82,-19,29,-112,-53,-58,-82
9,-78,-87,34,48,-82,-19,29,-112,-53,-58,-82
9,-78,-87,34,48,-82,-19,24,-112,-53,-58,-78
9,-82,-92,36,51,-87,-14,29,-112,-48,-53,-78
14,-82,-97,34,56,-90,-19,24,-117,-53,-58,-78
14,-82,-97,34,56,-90,-19,24,-117,-58,-58,-78
14,-82,-97,34,56,-90,-19,24,-117,-58,-58,-78
14,-82,-97,34,56,-90,-19,24,-122,-58,-58,-82
14,-82,-97,34,56,-90,-19,29,-117,-58,-58,-78
14,-82,-97,34,56,-90,-19,29,-117,-58,-58,-78
14,-82,-97,34,56,-90,-19,29,-117,-58,-58,-78
14,-82,-97,34,56,-90,-19,24,-112,-58,-58,-78
14,-87,-102,36,58,-95,-14,29,-112,-53,-53,-68
14,-87,-102,36,58,-95,-14,29,-112,-53,-53,-68
14,-87,-102,36,58,-95,-14,34,-112,-53,-53,-68
14,-92,-107,39,61,-100,-19,34,-112,-58,-53,-68
14,-87,-102,36,58,-95,-19,34,-112,-58,-53,-68
14,-87,-102,36,58,-95,-14,34,-112,-53,-48,-68
14,-82,-97,34,56,-90,-19,29,-112,-53,-53,-73
14,-78,-92,31,53,-85,-19,29,-107,-53,-48,-73
14,-73,-87,29,51,-80,-19,29,-107,-48,-43,-68
14,-68,-82,26,48,-75,-24,24,-107,-48,-48,-73
19,-68,-87,24,53,-78,-19,29,-107,-48,-48,-68
24,-68,-92,21,58,-80,-19,29,-107,-48,-43,-68
24,-68,-92,21,58,-80,-19,29,-107,-48,-48,-63
24,-73,-97,24,61,-85,-19,29,-107,-48,-48,-63
24,-73,-97,24,61,-85,-19,24,-107,-48,-48,-63
24,-73,-97,24,61,-85,-24,24,-107,-48,-48,-63
24,-78,-102,26,63,-90,-24,24,-107,-53,-53,-63
14,-78,-92,31,53,-85,-19,24,-102,-48,-53,-63
9,-82,-92,36,51,-87,-19,24,-102,-48,-48,-63
9,-82,-92,36,51,-87,-19,24,-102,-48,-53,-68
9,-82,-92,36,51,-87,-19,29,-107,-48,-53,-68
9,-82,-92,36,51,-87,-19,29,-107,-48,-53,-73
9,-82,-92,36,51,-87,-19,29,-107,-48,-53,-73
9,-82,-92,36,51,-87,-19,34,-102,-48,-48,-73
14,-78,-92,31,53,-85,-19,29,-107,-53,-53,-78
9,-78,-87,34,48,-82,-19,29,-112,-53,-53,-78
9,-82,-92,36,51,-87,-14,34,-107,-53,-53,-78
9,-82,-92,36,51,-87,-14,34,-112,-53,-53,-78
9,-82,-92,36,51,-87,-14,34,-112,-53,-53,-78
9,-78,-87,34,48,-82,-19,29,-117,-58,-58,-78
9,-78,-87,34,48,-82,-19,29,-112,-58,-58,-78
14,-73,-87,29,51,-80,-19,29,-112,-58,-58,-73
14,-73,-87,29,51,-80,-19,29,-117,-58,-53,-73
14,-73,-87,29,51,-80,-19,29,-117,-58,-53,-68
14,-73,-87,29,51,-80,-19,29,-112,-58,-48,-63
14,-73,-87,29,51,-80,-14,29,-112,-53,-43,-58
19,-73,-92,26,56,-82,-19,24,-112,-53,-43,-63
19,-68,-87,24,53,-78,-19,24,-107,-43,-39,-58
19,-58,-78,19,48,-68,-24,19,-102,-39,-34,-58
24,-48,-73,12,48,-61,-29,19,-97,-34,-34,-58
29,-43,-73,7,51,-58,-24,24,-87,-29,-24,-48
34,-39,-73,2,53,-56,-24,19,-87,-29,-24,-48
34,-34,-68,0,51,-51,-19,24,-82,-24,-19,-43
34,-34,-68,0,51,-51,-14,29,-78,-24,-19,-43
39,-29,-68,-4,53,-48,-14,24,-82,-29,-24,-43
39,-29,-68,-4,53,-48,-9,29,-78,-29,-19,-39
43,-29,-73,-7,58,-51,-9,29,-78,-24,-19,-34
43,-24,-68,-9,56,-46,-14,24,-78,-29,-19,-34
43,-14,-58,-14,51,-36,-14,24,-73,-19,-14,-29
43,0,-43,-21,43,-21,-19,19,-68,-14,-9,-24
48,9,-39,-29,43,-14,-19,14,-58,-9,0,-19
48,24,-24,-36,36,0,-24,9,-53,4,9,-14
53,34,-19,-43,36,7,-29,9,-48,9,9,-14
53,34,-19,-43,36,7,-24,9,-43,9,14,-14
53,34,-19,-43,36,7,-19,14,-43,14,14,-14
53,34,-19,-43,36,7,-14,14,-43,14,14,-14
53,34,-19,-43,36,7,-14,14,-43,9,9,-14
48,29,-19,-39,34,4,0,19,-39,14,9,-14
53,34,-19,-43,36,7,0,14,-43,9,9,-19
53,39,-14,-46,34,12,-9,14,-39,14,14,-14
58,48,-9,-53,34,19,-14,4,-39,19,19,-9
58,58,0,-58,29,29,-24,0,-34,19,24,0
63,73,9,-68,26,41,-39,-9,-29,29,29,4
68,87,19,-78,24,53,-58,-19,-24,34,34,14
73,97,24,-85,24,61,-73,-29,-19,43,43,24
78,112,34,-95,21,73,-82,-34,-9,53,58,34
82,126,43,-104,19,85,-92,-34,4,58,68,43
87,141,53,-114,17,97,-102,-39,4,58,68,48
92,146,53,-119,19,100,-107,-39,4,63,68,53
92,146,53,-119,19,100,-107,-34,0,63,68,53
92,141,48,-117,21,95,-107,-34,-9,58,68,53
97,136,39,-117,29,87,-107,-29,-14,53,63,48
102,126,24,-114,39,75,-107,-29,-24,43,53,39
102,117,14,-109,43,65,-107,-24,-29,43,53,39
107,112,4,-109,51,58,-107,-24,-34,39,48,39
107,107,0,-107,53,53,-107,-24,-39,34,48,39
112,102,-9,-107,61,46,-112,-19,-43,29,48,39
107,102,-4,-104,56,48,-107,-19,-48,34,48,43
102,97,-4,-100,53,46,-107,-19,-53,29,48,43
92,92,0,-92,46,46,-107,-19,-53,24,48,43
87,87,0,-87,43,43,-102,-19,-53,24,48,43
82,82,0,-82,41,41,-102,-19,-58,24,43,39
78,73,-4,-75,41,34,-97,-19,-63,14,39,34
68,58,-9,-63,39,24,-92,-19,-73,4,29,24
63,43,-19,-53,41,12,-82,-14,-73,0,24,19
53,34,-19,-43,36,7,-78,-14,-82,-9,14,4
43,19,-24,-31,34,-2,-68,-9,-82,-14,9,0
34,4,-29,-19,31,-12,-63,-9,-87,-19,0,-14
24,-9,-34,-7,29,-21,-48,4,-92,-24,-14,-24
19,-24,-43,2,31,-34,-43,4,-97,-29,-19,-29
14,-34,-48,9,31,-41,-39,4,-97,-29,-24,-34
9,-43,-53,17,31,-48,-34,9,-102,-39,-29,-39
4,-63,-68,29,36,-65,-24,14,-107,-43,-34,-43
0,-78,-78,39,39,-78,-24,19,-117,-53,-43,-48
0,-92,-92,46,46,-92,-19,24,-122,-58,-48,-53
0,-102,-102,51,51,-102,-19,29,-126,-63,-53,-58
0,-107,-107,53,53,-107,-19,29,-131,-73,-63,-63
0,-117,-117,58,58,-117,-14,29,-131,-73,-63,-68
0,-117,-117,58,58,-117,-19,29,-136,-73,-63,-73
-9,-117,-107,63,48,-112,-19,24,-136,-73,-68,-78
-9,-117,-107,63,48,-112,-19,24,-136,-78,-68,-82
-9,-122,-112,65,51,-117,-19,24,-141,-82,-73,-87
-14,-131,-117,73,51,-124,0,34,-146,-92,-82,-102
-19,-151,-131,85,56,-141,14,48,-156,-102,-97,-117
-24,-180,-156,102,65,-168,34,68,-165,-117,-117,-131
-29,-214,-185,122,78,-200,68,92,-170,-131,-131,-151
-43,-248,-204,146,80,-226,102,112,-170,-151,-156,-175
-58,-283,-224,170,82,-253,146,141,-170,-165,-180,-209
-73,-307,-234,190,80,-270,204,170,-156,-165,-195,-229
-82,-312,-229,197,73,-270,248,204,-126,-161,-209,-244
-78,-297,-219,187,70,-258,278,229,-82,-136,-195,-248
-58,-253,-195,156,68,-224,287,248,-39,-102,-180,-244
-19,-180,-161,100,70,-170,273,268,19,-48,-141,-224
53,-78,-131,12,92,-104,224,273,73,19,-87,-180
141,63,-78,-102,109,-7,131,268,131,107,0,-112
253,244,-9,-248,131,117,0,239,195,214,102,-24
366,448,82,-407,141,265,-165,175,263,331,229,92
478,673,195,-575,141,434,-356,82,322,453,366,229
570,893,322,-732,124,607,-561,-34,375,575,507,366
649,1093,444,-871,102,768,-766,-165,409,673,639,502
692,1249,556,-971,68,902,-941,-307,414,736,741,629
697,1327,629,-1012,34,978,-1078,-448,361,746,800,717
673,1317,644,-995,14,980,-1166,-561,258,697,819,771
624,1224,600,-924,12,912,-1210,-649,97,585,775,780
551,1058,507,-805,21,783,-1195,-692,-82,448,707,756
463,854,390,-658,36,622,-1137,-717,-263,287,610,707
361,629,268,-495,46,448,-1058,-722,-439,126,492,639
278,400,122,-339,78,261,-956,-688,-575,-19,375,551
209,204,-4,-207,107,100,-849,-634,-673,-141,268,463
141,48,-92,-95,117,-21,-741,-570,-722,-229,170,375
92,-63,-156,-14,124,-109,-644,-507,-727,-278,107,307
68,-136,-204,34,136,-170,-561,-444,-717,-312,43,234
53,-195,-248,70,151,-222,-483,-366,-688,-331,-9,170
39,-224,-263,92,151,-244,-400,-302,-639,-326,-39,122
24,-224,-248,100,136,-236,-326,-244,-570,-302,-53,87
19,-214,-234,97,126,-224,-258,-190,-507,-278,-63,58
9,-209,-219,100,114,-214,-190,-146,-448,-248,-68,34
0,-190,-190,95,95,-190,-136,-112,-385,-224,-78,14
-19,-175,-156,97,68,-165,-92,-87,-326,-190,-73,0
-29,-161,-131,95,51,-146,-63,-73,-283,-165,-73,-19
-39,-156,-117,97,39,-136,-29,-53,-244,-141,-68,-29
-48,-156,-107,102,29,-131,-9,-39,-219,-131,-73,-43
-53,-161,-107,107,26,-134,19,-24,-190,-122,-78,-53
-53,-170,-117,112,31,-143,34,0,-180,-117,-82,-63
-58,-175,-117,117,29,-146,43,9,-175,-122,-92,-78
-53,-185,-131,119,39,-158,58,24,-170,-126,-97,-82
-53,-190,-136,122,41,-163,63,34,-165,-126,-102,-92
-53,-195,-141,124,43,-168,63,34,-161,-126,-102,-97
-48,-195,-146,122,48,-170,68,39,-156,-122,-102,-97
-53,-195,-141,124,43,-168,73,39,-151,-122,-102,-102
-53,-190,-136,122,41,-163,73,39,-151,-117,-102,-102
-53,-190,-136,122,41,-163,78,39,-146,-112,-102,-97
-53,-185,-131,119,39,-158,78,43,-146,-112,-97,-102
-58,-185,-126,122,34,-156,82,43,-141,-112,-102,-102
-58,-180,-122,119,31,-151,82,48,-136,-112,-102,-107
-58,-175,-117,117,29,-146,78,48,-131,-112,-107,-112
-58,-175,-117,117,29,-146,82,48,-126,-107,-102,-112
-58,-170,-112,114,26,-141,82,48,-122,-102,-102,-112
-58,-165,-107,112,24,-136,87,48,-122,-102,-97,-112
-58,-165,-107,112,24,-136,87,48,-122,-102,-97,-112
-58,-165,-107,112,24,-136,87,48,-126,-102,-102,-112
-58,-170,-112,114,26,-141,87,48,-126,-107,-102,-112
-58,-175,-117,117,29,-146,87,53,-131,-112,-107,-117
-58,-180,-122,119,31,-151,92,58,-126,-107,-107,-112
-58,-180,-122,119,31,-151,97,63,-126,-107,-107,-117
-58,-185,-126,122,34,-156,97,63,-122,-107,-107,-117
-58,-185,-126,122,34,-156,97,63,-122,-102,-107,-112
-58,-185,-126,122,34,-156,102,63,-117,-102,-102,-112
-58,-180,-122,119,31,-151,102,63,-117,-102,-102,-112
-58,-180,-122,119,31,-151,102,63,-117,-102,-102,-112
-63,-185,-122,124,29,-153,102,63,-122,-102,-107,-117
-68,-185,-117,126,24,-151,107,68,-112,-102,-102,-117
-68,-190,-122,129,26,-156,107,68,-112,-102,-107,-117
-68,-185,-117,126,24,-151,112,63,-112,-97,-102,-117
-68,-180,-112,124,21,-146,107,58,-112,-102,-107,-122
-68,-180,-112,124,21,-146,107,58,-112,-97,-102,-117
-68,-175,-107,122,19,-141,112,58,-112,-97,-102,-112
-63,-175,-112,119,24,-143,112,63,-112,-97,-97,-112
-63,-175,-112,119,24,-143,112,63,-112,-97,-102,-112
-63,-180,-117,122,26,-148,112,68,-112,-102,-102,-117
-63,-185,-122,124,29,-153,112,68,-112,-107,-107,-117
-63,-185,-122,124,29,-153,112,63,-107,-107,-107,-122
-63,-185,-122,124,29,-153,112,63,-107,-102,-107,-122
-63,-185,-122,124,29,-153,117,63,-102,-102,-107,-117
-63,-185,-122,124,29,-153,117,58,-107,-102,-107,-117
-63,-185,-122,124,29,-153,112,58,-107,-102,-107,-117
-63,-185,-122,124,29,-153,117,63,-107,-102,-107,-117
-63,-185,-122,124,29,-153,117,68,-107,-102,-107,-117
-63,-180,-117,122,26,-148,117,68,-102,-102,-102,-122
-63,-180,-117,122,26,-148,117,68,-97,-97,-102,-122
-63,-175,-112,119,24,-143,122,68,-92,-92,-97,-122
-63,-170,-107,117,21,-139,117,63,-87,-92,-97,-122
-63,-165,-102,114,19,-134,122,63,-87,-87,-97,-122
-63,-161,-97,112,17,-129,122,63,-82,-87,-97,-122
-63,-161,-97,112,17,-129,122,63,-87,-87,-97,-122
-63,-161,-97,112,17,-129,122,68,-87,-92,-97,-122
-63,-165,-102,114,19,-134,126,73,-82,-92,-97,-126
-63,-165,-102,114,19,-134,126,73,-82,-87,-97,-126
-63,-165,-102,114,19,-134,126,73,-78,-87,-97,-126
-58,-161,-102,109,21,-131,122,68,-82,-87,-97,-131
-63,-156,-92,109,14,-124,126,68,-78,-82,-97,-126
-63,-156,-92,109,14,-124,131,68,-73,-78,-92,-122
-63,-151,-87,107,12,-119,131,68,-73,-78,-92,-122
-63,-151,-87,107,12,-119,131,73,-68,-73,-87,-117
-63,-146,-82,104,9,-114,136,78,-58,-68,-82,-117
-63,-141,-78,102,7,-109,136,78,-58,-68,-87,-117
-58,-136,-78,97,9,-107,136,78,-48,-58,-82,-117
-53,-126,-73,90,9,-100,136,73,-43,-58,-78,-117
-53,-122,-68,87,7,-95,131,68,-39,-53,-78,-117
-53,-112,-58,82,2,-85,136,68,-29,-48,-68,-117
-53,-107,-53,80,0,-80,136,63,-29,-48,-73,-117
-53,-107,-53,80,0,-80,136,68,-29,-48,-73,-117
-53,-107,-53,80,0,-80,136,68,-29,-53,-73,-122
-58,-112,-53,85,-2,-82,141,73,-24,-48,-73,-117
-58,-112,-53,85,-2,-82,141,73,-24,-48,-73,-117
-63,-112,-48,87,-7,-80,146,73,-24,-48,-73,-117
-63,-112,-48,87,-7,-80,146,73,-24,-48,-73,-112
-63,-107,-43,85,-9,-75,146,73,-19,-48,-68,-102
-63,-107,-43,85,-9,-75,151,73,-14,-43,-63,-97
-63,-102,-39,82,-12,-70,156,78,-9,-39,-63,-92
-63,-102,-39,82,-12,-70,161,78,0,-34,-58,-87
-63,-97,-34,80,-14,-65,156,78,4,-34,-58,-87
-58,-87,-29,73,-14,-58,156,73,9,-29,-58,-87
-58,-82,-24,70,-17,-53,161,73,19,-19,-53,-87
-58,-73,-14,65,-21,-43,161,68,24,-14,-48,-87
-58,-68,-9,63,-24,-39,161,63,29,-9,-43,-82
-63,-63,0,63,-31,-31,161,63,39,0,-39,-82
-63,-53,9,58,-36,-21,161,58,39,0,-39,-82
-63,-48,14,56,-39,-17,161,63,48,4,-34,-82
-63,-43,19,53,-41,-12,165,63,53,9,-29,-78
-58,-34,24,46,-41,-4,165,63,58,14,-29,-78
-58,-24,34,41,-46,4,165,63,68,19,-24,-78
-53,-14,39,34,-46,12,165,58,73,24,-19,-73
-58,-9,48,34,-53,19,165,58,82,29,-9,-68
-58,0,58,29,-58,29,170,53,87,34,0,-63
-63,4,68,29,-65,36,170,53,92,39,0,-58
-63,4,68,29,-65,36,175,53,102,43,4,-53
-68,9,78,29,-73,43,175,53,107,48,4,-48
-68,19,87,24,-78,53,170,48,117,53,4,-43
-68,29,97,19,-82,63,170,39,122,63,9,-43
-63,43,107,9,-85,75,170,34,131,68,14,-34
-63,53,117,4,-90,85,170,29,141,78,24,-24
-58,63,122,-2,-90,92,170,24,146,82,29,-19
-58,68,126,-4,-92,97,170,24,151,87,39,-9
-63,73,136,-4,-100,104,175,24,161,97,48,0
-63,78,141,-7,-102,109,175,24,170,102,53,4
-63,87,151,-12,-107,119,170,14,170,102,53,4
-63,92,156,-14,-109,124,170,14,180,107,63,14
-63,107,170,-21,-117,139,170,4,190,117,68,14
-68,117,185,-24,-126,151,165,-9,195,122,68,19
-68,126,195,-29,-131,161,170,-14,209,131,78,29
-73,141,214,-34,-143,178,165,-24,214,136,82,34
-73,151,224,-39,-148,187,161,-34,219,136,87,39
-78,156,234,-39,-156,195,161,-39,229,141,92,43
-82,161,244,-39,-163,202,156,-43,234,146,97,43
-87,165,253,-39,-170,209,156,-53,234,151,97,43
-92,170,263,-39,-178,217,156,-58,244,156,102,48
-92,175,268,-41,-180,222,156,-63,248,161,107,58
-92,180,273,-43,-183,226,151,-68,253,165,112,63
-97,190,287,-46,-192,239,146,-82,253,161,112,68
-97,195,292,-48,-195,244,141,-87,253,165,117,78
-97,204,302,-53,-200,253,136,-92,258,170,122,82
-102,209,312,-53,-207,261,131,-102,263,170,126,92
-102,209,312,-53,-207,261,122,-107,268,170,131,97
-107,214,322,-53,-214,268,117,-117,268,175,136,102
-107,219,326,-56,-217,273,107,-131,268,175,136,107
-102,224,326,-61,-214,275,102,-136,273,180,141,112
-107,229,336,-61,-222,283,97,-146,268,180,146,117
-112,229,341,-58,-226,285,87,-156,263,175,146,117
-112,229,341,-58,-226,285,78,-161,258,175,141,122
-107,229,336,-61,-222,283,68,-165,248,170,141,122
-112,224,336,-56,-224,280,58,-175,239,161,136,117
-117,214,331,-48,-224,273,53,-180,234,161,136,122
-117,214,331,-48,-224,273,48,-185,229,156,136,122
-117,209,326,-46,-222,268,43,-185,224,161,136,122
-117,204,322,-43,-219,263,39,-195,214,151,131,122
-122,190,312,-34,-217,251,34,-195,209,146,131,122
-122,185,307,-31,-214,246,24,-195,190,136,126,117
-122,175,297,-26,-209,236,19,-195,185,136,122,112
-122,165,287,-21,-204,226,14,-190,180,126,117,107
-122,156,278,-17,-200,217,4,-195,165,122,112,97
-122,151,273,-14,-197,212,4,-190,161,117,107,92
-117,146,263,-14,-190,204,0,-195,151,112,102,87
-112,136,248,-12,-180,192,-14,-195,136,107,97,82
-112,131,244,-9,-178,187,-14,-190,122,97,92,78
-107,122,229,-7,-168,175,-14,-185,112,87,87,78
-102,112,214,-4,-158,163,-19,-180,102,82,82,68
-102,102,204,0,-153,153,-19,-170,97,78,78,68
-102,92,195,4,-148,143,-19,-165,82,68,68,58
-97,82,180,7,-139,131,-19,-156,78,63,68,53
-97,73,170,12,-134,122,-24,-151,68,58,63,48
-87,68,156,9,-122,112,-24,-146,63,58,63,43
-82,63,146,9,-114,104,-24,-136,53,53,58,39
-78,58,136,9,-107,97,-29,-131,48,48,53,39
-73,58,131,7,-102,95,-24,-122,43,43,53,39
-68,53,122,7,-95,87,-29,-112,39,39,48,34
-63,48,112,7,-87,80,-29,-107,34,34,43,24
-63,48,112,7,-87,80,-29,-102,29,34,39,19
-58,43,102,7,-80,73,-34,-97,24,34,39,14
-48,43,92,2,-70,68,-39,-92,14,29,29,9
-43,39,82,2,-63,61,-39,-87,9,29,29,4
-39,39,78,0,-58,58,-39,-78,4,24,29,4
-34,34,68,0,-51,51,-39,-73,-9,19,24,0
-29,29,58,0,-43,43,-39,-63,-14,14,19,-9
-29,19,48,4,-39,34,-34,-58,-19,9,14,-9
-24,14,39,4,-31,26,-34,-53,-24,4,9,-14
-19,9,29,4,-24,19,-34,-48,-29,4,4,-19
-14,9,24,2,-19,17,-34,-43,-29,4,4,-19
-9,4,14,2,-12,9,-29,-39,-34,0,4,-19
-9,0,9,4,-9,4,-29,-34,-39,0,4,-24
0,-9,-9,4,4,-9,-29,-29,-43,-14,0,-29
0,-14,-14,7,7,-14,-24,-24,-43,-14,0,-29
0,-14,-14,7,7,-14,-24,-19,-48,-14,0,-34
0,-19,-19,9,9,-19,-24,-14,-48,-14,-9,-34
0,-19,-19,9,9,-19,-24,-14,-43,-14,-9,-39
0,-19,-19,9,9,-19,-24,-9,-43,-9,0,-39
0,-14,-14,7,7,-14,-24,-9,-43,-9,0,-34
4,-14,-19,4,12,-17,-24,-9,-43,-9,-9,-39
4,-14,-19,4,12,-17,-24,-9,-48,-9,-9,-39
4,-19,-24,7,14,-21,-19,0,-48,-9,-9,-39
4,-24,-29,9,17,-26,-19,0,-53,-14,-14,-43
0,-29,-29,14,14,-29,-14,4,-53,-14,-14,-43
0,-34,-34,17,17,-34,-14,4,-58,-19,-19,-48
0,-34,-34,17,17,-34,-14,4,-58,-24,-19,-53
0,-34,-34,17,17,-34,-14,4,-58,-24,-19,-53
4,-34,-39,14,21,-36,-9,4,-58,-24,-19,-53
4,-34,-39,14,21,-36,-9,9,-58,-19,-19,-53
4,-34,-39,14,21,-36,-9,14,-58,-19,-19,-53
4,-34,-39,14,21,-36,0,14,-58,-24,-19,-53
4,-39,-43,17,24,-41,0,19,-58,-24,-24,-53
4,-43,-48,19,26,-46,0,24,-58,-29,-29,-58
4,-48,-53,21,29,-51,4,29,-53,-24,-29,-53
4,-48,-53,21,29,-51,9,29,-53,-24,-24,-48
9,-48,-58,19,34,-53,4,24,-58,-24,-29,-53
9,-48,-58,19,34,-53,4,24,-58,-24,-29,-53
9,-48,-58,19,34,-53,4,24,-53,-24,-24,-53
9,-43,-53,17,31,-48,4,24,-53,-19,-19,-48
9,-43,-53,17,31,-48,4,29,-48,-19,-19,-48
9,-39,-48,14,29,-43,4,29,-48,-14,-19,-48
9,-34,-43,12,26,-39,4,24,-48,-19,-19,-53
14,-29,-43,7,29,-36,4,29,-43,-14,-19,-48
14,-29,-43,7,29,-36,4,29,-43,-14,-19,-48
14,-29,-43,7,29,-36,4,29,-43,-14,-19,-48
14,-34,-48,9,31,-41,0,29,-43,-14,-19,-53
9,-34,-43,12,26,-39,0,24,-48,-19,-19,-53
9,-39,-48,14,29,-43,4,29,-43,-14,-19,-53
4,-39,-43,17,24,-41,0,29,-43,-14,-19,-53
0,-39,-39,19,19,-39,0,24,-43,-14,-19,-58
-9,-39,-29,24,9,-34,4,24,-39,-9,-19,-53
-9,-39,-29,24,9,-34,4,24,-39,-9,-14,-53
0,-34,-34,17,17,-34,0,19,-39,-9,-19,-58
0,-29,-29,14,14,-29,0,19,-39,-9,-14,-58
0,-29,-29,14,14,-29,0,19,-43,-9,-14,-53
0,-29,-29,14,14,-29,0,19,-43,-9,-14,-53
4,-29,-34,12,19,-31,-9,19,-48,-14,-19,-58
4,-29,-34,12,19,-31,-9,19,-48,-14,-19,-58
4,-29,-34,12,19,-31,-9,19,-48,-14,-19,-58
9,-29,-39,9,24,-34,0,19,-43,-14,-19,-58
9,-29,-39,9,24,-34,0,19,-48,-19,-19,-58
9,-34,-43,12,26,-39,-9,19,-53,-19,-24,-58
9,-39,-48,14,29,-43,0,19,-48,-19,-19,-53
4,-39,-43,17,24,-41,0,19,-53,-24,-29,-58
4,-43,-48,19,26,-46,0,19,-58,-29,-29,-58
0,-48,-48,24,24,-48,0,24,-53,-24,-29,-58
0,-48,-48,24,24,-48,0,19,-53,-24,-29,-58
0,-48,-48,24,24,-48,0,19,-53,-24,-29,-58
0,-43,-43,21,21,-43,0,19,-53,-19,-24,-53
0,-39,-39,19,19,-39,-9,14,-58,-24,-24,-58
4,-39,-43,17,24,-41,-9,19,-58,-29,-24,-58
4,-39,-43,17,24,-41,-9,19,-58,-29,-24,-58
4,-39,-43,17,24,-41,-9,24,-58,-29,-24,-58
4,-43,-48,19,26,-46,-9,24,-63,-29,-24,-58
4,-43,-48,19,26,-46,-14,19,-63,-34,-29,-63
4,-43,-48,19,26,-46,-14,19,-63,-29,-29,-63
0,-43,-43,21,21,-43,-9,19,-63,-29,-24,-58
0,-43,-43,21,21,-43,-9,19,-63,-34,-24,-58
0,-43,-43,21,21,-43,-9,19,-68,-34,-29,-58
0,-43,-43,21,21,-43,-9,19,-68,-34,-29,-58
0,-48,-48,24,24,-48,-9,19,-73,-39,-29,-58
0,-48,-48,24,24,-48,-9,19,-73,-39,-29,-58
0,-53,-53,26,26,-53,-14,19,-78,-39,-34,-58
0,-53,-53,26,26,-53,-14,19,-78,-39,-34,-58
0,-53,-53,26,26,-53,-14,19,-78,-39,-29,-58
0,-53,-53,26,26,-53,-14,19,-82,-39,-29,-58
0,-53,-53,26,26,-53,-19,19,-82,-39,-29,-53
0,-58,-58,29,29,-58,-14,29,-78,-39,-24,-48
0,-58,-58,29,29,-58,-14,29,-82,-39,-24,-48
4,-58,-63,26,34,-61,-14,24,-87,-43,-34,-53
4,-58,-63,26,34,-61,-19,24,-82,-43,-34,-53
4,-58,-63,26,34,-61,-19,24,-82,-43,-34,-53
4,-58,-63,26,34,-61,-19,19,-82,-43,-34,-53
4,-58,-63,26,34,-61,-19,19,-82,-43,-29,-53
4,-53,-58,24,31,-56,-19,19,-78,-39,-29,-48
4,-58,-63,26,34,-61,-24,14,-82,-43,-29,-48
4,-58,-63,26,34,-61,-24,14,-82,-43,-29,-48
4,-58,-63,26,34,-61,-19,14,-87,-43,-29,-53
0,-63,-63,31,31,-63,-19,19,-82,-43,-29,-48
0,-63,-63,31,31,-63,-19,19,-82,-43,-29,-48
0,-63,-63,31,31,-63,-19,19,-82,-43,-29,-48
0,-58,-58,29,29,-58,-19,19,-78,-43,-29,-48
0,-58,-58,29,29,-58,-19,19,-82,-43,-29,-48
0,-58,-58,29,29,-58,-24,19,-82,-43,-29,-53
0,-63,-63,31,31,-63,-24,19,-82,-43,-29,-53
0,-63,-63,31,31,-63,-19,19,-87,-43,-29,-53
0,-63,-63,31,31,-63,-19,19,-87,-48,-34,-53
-9,-63,-53,36,21,-58,-24,19,-87,-48,-34,-58
0,-63,-63,31,31,-63,-24,19,-87,-48,-34,-58
0,-63,-63,31,31,-63,-24,19,-82,-43,-34,-58
0,-58,-58,29,29,-58,-24,14,-82,-43,-34,-53
0,-58,-58,29,29,-58,-24,14,-82,-43,-29,-53
0,-53,-53,26,26,-53,-29,9,-87,-43,-34,-58
0,-53,-53,26,26,-53,-29,9,-87,-48,-34,-53
-9,-58,-48,34,19,-53,-24,14,-82,-43,-29,-53
-9,-58,-48,34,19,-53,-24,14,-87,-43,-29,-53
0,-58,-58,29,29,-58,-24,14,-87,-43,-29,-53
0,-58,-58,29,29,-58,-24,14,-87,-43,-29,-53
0,-63,-63,31,31,-63,-29,9,-87,-43,-29,-53
0,-63,-63,31,31,-63,-29,9,-92,-43,-34,-53
0,-63,-63,31,31,-63,-29,9,-92,-48,-34,-53
0,-63,-63,31,31,-63,-29,9,-92,-48,-34,-53
0,-63,-63,31,31,-63,-29,14,-92,-48,-34,-53
0,-63,-63,31,31,-63,-29,14,-92,-48,-34,-53
0,-63,-63,31,31,-63,-29,14,-92,-48,-34,-53
0,-63,-63,31,31,-63,-24,19,-87,-43,-29,-53
4,-58,-63,26,34,-61,-29,14,-87,-43,-29,-58
4,-58,-63,26,34,-61,-29,19,-87,-43,-29,-53
0,-58,-58,29,29,-58,-24,19,-87,-39,-24,-48
0,-58,-58,29,29,-58,-29,19,-87,-43,-29,-48
0,-58,-58,29,29,-58,-29,19,-92,-43,-29,-53
0,-63,-63,31,31,-63,-29,14,-92,-48,-34,-53
0,-63,-63,31,31,-63,-29,14,-92,-48,-34,-53
0,-63,-63,31,31,-63,-29,9,-92,-48,-34,-58
0,-63,-63,31,31,-63,-34,9,-92,-48,-34,-58
0,-63,-63,31,31,-63,-34,9,-87,-43,-29,-53
4,-58,-63,26,34,-61,-34,9,-92,-48,-34,-58
4,-58,-63,26,34,-61,-34,9,-92,-48,-34,-58
4,-58,-63,26,34,-61,-39,9,-92,-48,-34,-58
4,-58,-63,26,34,-61,-39,9,-92,-48,-34,-58
4,-53,-58,24,31,-56,-34,9,-92,-48,-34,-53
4,-58,-63,26,34,-61,-39,9,-92,-53,-34,-58
0,-58,-58,29,29,-58,-34,14,-92,-48,-29,-53
-9,-58,-48,34,19,-53,-34,14,-92,-53,-29,-53
-9,-63,-53,36,21,-58,-34,14,-92,-53,-34,-53
-9,-63,-53,36,21,-58,-34,14,-97,-53,-34,-53
-9,-68,-58,39,24,-63,-34,14,-97,-53,-34,-53
-14,-73,-58,43,21,-65,-34,14,-97,-53,-39,-53
-9,-73,-63,41,26,-68,-29,19,-97,-58,-39,-58
0,-78,-78,39,39,-78,-29,19,-97,-58,-39,-58
0,-78,-78,39,39,-78,-29,19,-97,-58,-39,-58
0,-78,-78,39,39,-78,-29,14,-97,-53,-34,-58
4,-73,-78,34,41,-75,-34,9,-102,-58,-39,-58
4,-73,-78,34,41,-75,-34,9,-97,-58,-39,-58
4,-73,-78,34,41,-75,-39,9,-97,-58,-34,-58
4,-68,-73,31,39,-70,-39,9,-97,-58,-34,-53
0,-68,-68,34,34,-68,-34,14,-97,-53,-34,-53
0,-68,-68,34,34,-68,-34,14,-97,-53,-34,-53
0,-63,-63,31,31,-63,-34,14,-92,-48,-29,-53
-9,-63,-53,36,21,-58,-34,14,-87,-48,-29,-53
-9,-58,-48,34,19,-53,-34,14,-87,-43,-29,-53
-9,-58,-48,34,19,-53,-34,14,-87,-43,-29,-53
-9,-58,-48,34,19,-53,-34,14,-87,-43,-29,-53
0,-58,-58,29,29,-58,-34,14,-87,-43,-29,-53
0,-58,-58,29,29,-58,-34,14,-87,-48,-29,-53
4,-63,-68,29,36,-65,-29,14,-92,-48,-29,-53
4,-63,-68,29,36,-65,-29,9,-92,-53,-29,-53
4,-63,-68,29,36,-65,-29,9,-92,-53,-29,-53
0,-68,-68,34,34,-68,-29,9,-97,-53,-34,-53
0,-68,-68,34,34,-68,-29,9,-102,-58,-34,-58
-9,-73,-63,41,26,-68,-29,14,-97,-53,-34,-53
-9,-73,-63,41,26,-68,-29,14,-97,-58,-34,-53
-14,-73,-58,43,21,-65,-29,14,-97,-58,-34,-53
-14,-78,-63,46,24,-70,-29,19,-92,-53,-29,-53
-9,-73,-63,41,26,-68,-34,14,-97,-58,-34,-53
0,-73,-73,36,36,-73,-34,14,-92,-53,-34,-53
0,-73,-73,36,36,-73,-39,14,-92,-53,-29,-53
0,-73,-73,36,36,-73,-39,9,-92,-53,-29,-48
0,-73,-73,36,36,-73,-39,14,-92,-53,-29,-48
4,-68,-73,31,39,-70,-43,9,-97,-53,-34,-53
0,-73,-73,36,36,-73,-39,14,-92,-53,-29,-48
-9,-73,-63,41,26,-68,-39,9,-92,-53,-29,-53
-9,-73,-63,41,26,-68,-39,14,-92,-53,-29,-53
-9,-73,-63,41,26,-68,-34,14,-92,-53,-29,-53
-14,-73,-58,43,21,-65,-34,14,-92,-53,-29,-53
-14,-73,-58,43,21,-65,-34,14,-92,-53,-29,-53
-14,-68,-53,41,19,-61,-34,14,-92,-53,-29,-53
-9,-68,-58,39,24,-63,-34,14,-92,-53,-29,-48
-9,-73,-63,41,26,-68,-34,14,-92,-53,-29,-48
-9,-73,-63,41,26,-68,-34,14,-92,-53,-29,-48
0,-73,-73,36,36,-73,-34,14,-92,-53,-29,-48
0,-68,-68,34,34,-68,-39,9,-97,-58,-34,-53
0,-68,-68,34,34,-68,-39,9,-97,-58,-34,-53
0,-68,-68,34,34,-68,-39,9,-97,-53,-29,-53
4,-63,-68,29,36,-65,-39,9,-92,-53,-29,-48
4,-63,-68,29,36,-65,-43,9,-92,-53,-24,-48
4,-63,-68,29,36,-65,-43,9,-92,-48,-24,-48
4,-63,-68,29,36,-65,-43,9,-92,-48,-24,-48
4,-63,-68,29,36,-65,-43,9,-92,-43,-24,-48
4,-63,-68,29,36,-65,-43,9,-92,-43,-24,-48
4,-58,-63,26,34,-61,-48,9,-92,-48,-29,-48
4,-58,-63,26,34,-61,-43,9,-92,-48,-24,-48
4,-58,-63,26,34,-61,-43,9,-92,-48,-24,-48
4,-53,-58,24,31,-56,-43,9,-92,-48,-24,-48
4,-53,-58,24,31,-56,-39,9,-92,-43,-24,-43
4,-53,-58,24,31,-56,-34,14,-87,-43,-24,-43
4,-48,-53,21,29,-51,-29,14,-82,-39,-19,-39
4,-43,-48,19,26,-46,-29,14,-78,-34,-14,-39
9,-34,-43,12,26,-39,-29,14,-73,-29,-14,-39
14,-29,-43,7,29,-36,-24,19,-63,-19,0,-29
14,-19,-34,2,24,-26,-24,14,-58,-19,4,-24
19,-9,-29,-4,24,-19,-29,14,-53,-14,9,-19
24,4,-19,-14,21,-7,-29,9,-53,-9,9,-19
29,9,-19,-19,24,-4,-34,9,-48,-9,14,-14
29,19,-9,-24,19,4,-34,9,-39,4,24,-9
34,34,0,-34,17,17,-43,0,-39,4,24,-9
34,43,9,-39,12,26,-43,0,-29,14,34,4
39,48,9,-43,14,29,-43,-14,-29,19,34,4
39,53,14,-46,12,34,-43,-14,-19,24,39,14
39,58,19,-48,9,39,-48,-19,-24,19,39,9
39,53,14,-46,12,34,-43,-14,-24,24,39,9
34,48,14,-41,9,31,-43,-14,-29,19,34,4
29,43,14,-36,7,29,-34,0,-29,14,34,4
24,34,9,-29,7,21,-29,4,-29,14,34,4
24,29,4,-26,9,17,-24,4,-34,9,24,-9
24,29,4,-26,9,17,-24,4,-29,14,29,0
24,39,14,-31,4,26,-24,4,-24,19,34,4
29,48,19,-39,4,34,-29,0,-19,24,39,9
34,63,29,-48,2,46,-43,-9,-14,29,43,14
43,82,39,-63,2,61,-58,-19,0,39,53,24
53,102,48,-78,2,75,-73,-24,4,43,63,34
58,117,58,-87,0,87,-87,-29,9,53,68,43
63,131,68,-97,-2,100,-97,-34,19,63,78,53
68,141,73,-104,-2,107,-112,-39,24,68,87,63
73,151,78,-112,-2,114,-122,-43,24,68,87,68
73,151,78,-112,-2,114,-122,-43,24,73,92,68
78,151,73,-114,2,112,-126,-48,19,68,87,68
82,151,68,-117,7,109,-126,-43,14,68,87,68
82,151,68,-117,7,109,-126,-43,9,63,82,68
87,141,53,-114,17,97,-126,-39,0,53,78,63
87,131,43,-109,21,87,-122,-34,-9,53,73,58
92,126,34,-109,29,80,-126,-29,-14,43,73,53
92,122,29,-107,31,75,-126,-29,-19,39,68,53
92,117,24,-104,34,70,-126,-24,-19,43,73,53
87,112,24,-100,31,68,-131,-29,-29,39,68,53
82,112,29,-97,26,70,-126,-29,-24,39,73,58
82,107,24,-95,29,65,-131,-29,-29,39,68,58
78,102,24,-90,26,63,-126,-29,-34,39,68,58
68,97,29,-82,19,63,-122,-29,-34,34,63,58
58,82,24,-70,17,53,-117,-34,-39,29,58,48
53,68,14,-61,19,41,-107,-29,-43,24,48,43
43,53,9,-48,17,31,-102,-29,-53,14,39,34
34,39,4,-36,14,21,-92,-24,-58,9,34,29
24,24,0,-24,12,12,-82,-14,-58,4,29,24
14,9,-4,-12,9,2,-78,-14,-68,-9,24,9
9,-9,-19,0,14,-14,-63,0,-68,-9,19,4
4,-19,-24,7,14,-21,-58,4,-73,-19,14,0
4,-34,-39,14,21,-36,-48,14,-78,-24,4,-14
0,-48,-48,24,24,-48,-43,19,-82,-29,-9,-24
-9,-63,-53,36,21,-58,-39,14,-92,-43,-19,-34
-14,-73,-58,43,21,-65,-39,14,-97,-53,-29,-43
-14,-87,-73,51,29,-80,-39,19,-107,-58,-39,-48
-19,-97,-78,58,29,-87,-39,19,-112,-63,-43,-58
-29,-107,-78,68,24,-92,-29,19,-112,-63,-43,-58
-34,-117,-82,75,24,-100,-29,19,-117,-68,-43,-58
-34,-122,-87,78,26,-104,-29,19,-117,-68,-48,-63
-34,-122,-87,78,26,-104,-29,19,-117,-68,-48,-63
-34,-126,-92,80,29,-109,-24,24,-122,-73,-53,-68
-34,-131,-97,82,31,-114,-19,29,-126,-78,-58,-73
-34,-151,-117,92,41,-134,-9,43,-131,-87,-68,-82
-34,-170,-136,102,51,-153,9,53,-141,-102,-87,-102
-43,-200,-156,122,56,-178,39,78,-146,-117,-102,-117
-53,-234,-180,143,63,-207,68,102,-151,-131,-122,-141
-68,-263,-195,165,63,-229,107,126,-151,-146,-141,-165
-82,-292,-209,187,63,-251,151,156,-141,-156,-161,-190
-97,-307,-209,202,56,-258,195,180,-117,-156,-175,-219
-102,-302,-200,202,48,-251,239,209,-82,-141,-175,-229
-92,-278,-185,185,46,-231,263,234,-39,-117,-170,-234
-63,-224,-161,143,48,-192,268,253,19,-73,-146,-224
-14,-136,-122,75,53,-129,244,268,78,-14,-102,-190
68,-19,-87,-24,78,-53,170,268,131,63,-43,-141
165,146,-19,-156,92,63,68,253,195,161,53,-68
278,336,58,-307,109,197,-73,214,263,278,165,39
390,551,161,-470,114,356,-253,141,326,395,297,156
497,775,278,-636,109,527,-448,43,385,522,439,292
580,990,409,-785,85,700,-653,-82,434,639,580,439
649,1180,531,-915,58,856,-849,-219,448,727,707,570
678,1312,634,-995,21,973,-1005,-351,434,771,800,692
668,1356,688,-1012,-9,1022,-1132,-483,351,751,849,771
639,1317,678,-978,-19,997,-1200,-585,214,678,844,814
580,1195,614,-888,-17,905,-1224,-649,43,556,790,819
512,1024,512,-768,0,768,-1195,-688,-146,400,707,780
419,805,385,-612,17,595,-1127,-707,-326,244,614,727
326,580,253,-453,36,417,-1039,-697,-488,87,497,653
248,361,112,-305,68,236,-936,-658,-605,-43,380,566
175,175,0,-175,87,87,-829,-595,-683,-151,278,478
112,34,-78,-73,95,-21,-727,-541,-712,-224,190,395
68,-68,-136,0,102,-102,-634,-478,-707,-268,122,322
43,-146,-190,51,117,-168,-541,-400,-688,-297,63,258
29,-200,-229,85,129,-214,-463,-331,-658,-312,14,185
14,-224,-239,104,126,-231,-375,-273,-595,-302,-19,141
4,-224,-229,109,117,-226,-307,-224,-536,-287,-34,107
-9,-219,-209,114,100,-214,-234,-165,-473,-263,-43,78
-19,-214,-195,117,87,-204,-170,-126,-419,-244,-53,48
-29,-200,-170,114,70,-185,-122,-92,-356,-219,-58,29
-39,-185,-146,112,53,-165,-78,-68,-307,-185,-58,14
-48,-175,-126,112,39,-151,-48,-48,-258,-161,-53,0
-58,-165,-107,112,24,-136,-24,-34,-224,-141,-53,-19
-63,-165,-102,114,19,-134,0,-19,-195,-131,-63,-39
-68,-165,-97,117,14,-131,14,-9,-175,-126,-68,-53
-73,-165,-92,119,9,-129,34,9,-156,-117,-68,-63
-73,-170,-97,122,12,-134,39,19,-151,-112,-73,-78
-73,-170,-97,122,12,-134,48,29,-141,-112,-82,-92
-73,-175,-102,124,14,-139,48,34,-131,-112,-82,-102
-73,-170,-97,122,12,-134,53,34,-126,-107,-82,-102
-73,-165,-92,119,9,-129,58,39,-117,-102,-82,-102
-73,-161,-87,117,7,-124,53,34,-117,-97,-82,-107
-73,-161,-87,117,7,-124,58,39,-107,-92,-78,-102
-73,-156,-82,114,4,-119,58,43,-107,-92,-78,-102
-73,-161,-87,117,7,-124,58,43,-107,-92,-78,-102
-73,-161,-87,117,7,-124,63,43,-107,-92,-82,-102
-73,-165,-92,119,9,-129,68,48,-102,-92,-78,-102
-78,-170,-92,124,7,-131,68,48,-102,-92,-82,-102
-78,-170,-92,124,7,-131,68,48,-102,-97,-87,-107
-78,-170,-92,124,7,-131,73,48,-97,-92,-82,-107
-78,-170,-92,124,7,-131,78,53,-97,-92,-82,-107
-78,-165,-87,122,4,-126,78,53,-97,-92,-82,-102
-78,-165,-87,122,4,-126,78,58,-97,-92,-78,-102
-78,-165,-87,122,4,-126,78,58,-97,-92,-78,-102
-78,-165,-87,122,4,-126,82,63,-97,-92,-78,-102
-78,-165,-87,122,4,-126,82,63,-92,-92,-78,-102
-73,-165,-92,119,9,-129,82,58,-92,-87,-78,-102
-73,-165,-92,119,9,-129,82,58,-87,-87,-78,-102
-78,-165,-87,122,4,-126,82,58,-87,-82,-78,-102
-78,-161,-82,119,2,-122,87,58,-82,-82,-73,-102
-78,-161,-82,119,2,-122,87,58,-82,-78,-73,-102
-78,-161,-82,119,2,-122,87,58,-78,-78,-73,-97
-78,-161,-82,119,2,-122,87,63,-78,-78,-73,-102
-78,-161,-82,119,2,-122,87,58,-78,-78,-78,-102
-78,-161,-82,119,2,-122,87,58,-73,-78,-78,-107
-78,-161,-82,119,2,-122,87,63,-73,-73,-78,-107
-78,-161,-82,119,2,-122,87,63,-73,-73,-73,-107
-78,-156,-78,117,0,-117,87,58,-78,-78,-78,-112
-78,-156,-78,117,0,-117,87,58,-78,-78,-78,-112
-78,-156,-78,117,0,-117,92,63,-82,-82,-78,-112
-73,-161,-87,117,7,-124,92,63,-82,-87,-82,-112
-73,-161,-87,117,7,-124,92,63,-87,-92,-82,-112
-73,-170,-97,122,12,-134,102,68,-82,-87,-82,-112
-73,-175,-102,124,14,-139,102,68,-82,-92,-87,-112
-73,-175,-102,124,14,-139,102,68,-82,-92,-87,-112
-73,-175,-102,124,14,-139,102,68,-82,-87,-87,-112
-78,-175,-97,126,9,-136,107,73,-78,-82,-78,-102
-78,-175,-97,126,9,-136,107,73,-73,-82,-78,-102
-78,-170,-92,124,7,-131,102,73,-78,-82,-82,-107
-78,-170,-92,124,7,-131,102,73,-73,-78,-78,-102
-78,-165,-87,122,4,-126,107,78,-68,-73,-78,-102
-78,-161,-82,119,2,-122,107,78,-63,-68,-78,-102
-78,-156,-78,117,0,-117,107,73,-58,-68,-78,-102
-73,-156,-82,114,4,-119,107,73,-58,-63,-78,-97
-73,-151,-78,112,2,-114,112,73,-58,-63,-78,-97
-78,-156,-78,117,0,-117,112,73,-63,-68,-78,-97
-78,-161,-82,119,2,-122,117,78,-58,-68,-73,-92
-82,-161,-78,122,-2,-119,117,82,-58,-73,-78,-97
-82,-165,-82,124,0,-124,117,78,-58,-78,-78,-97
-82,-170,-87,126,2,-129,122,82,-53,-73,-78,-97
-82,-170,-87,126,2,-129,122,82,-48,-73,-73,-97
-82,-165,-82,124,0,-124,122,78,-48,-73,-78,-97
-78,-161,-82,119,2,-122,126,82,-43,-68,-73,-92
-73,-156,-82,114,4,-119,122,78,-48,-68,-73,-97
-73,-151,-78,112,2,-114,126,82,-43,-68,-68,-92
-73,-146,-73,109,0,-109,122,78,-48,-68,-73,-92
-73,-146,-73,109,0,-109,126,78,-39,-63,-68,-92
-68,-136,-68,102,0,-102,122,78,-34,-63,-73,-97
-68,-131,-63,100,-2,-97,122,78,-29,-53,-68,-92
-73,-126,-53,100,-9,-90,126,78,-19,-48,-63,-92
-73,-122,-48,97,-12,-85,126,78,-14,-43,-58,-87
-73,-117,-43,95,-14,-80,126,73,-14,-43,-58,-87
-73,-112,-39,92,-17,-75,126,73,-9,-43,-58,-87
-78,-117,-39,97,-19,-78,131,78,0,-39,-53,-82
-78,-117,-39,97,-19,-78,136,82,0,-39,-53,-82
-78,-117,-39,97,-19,-78,141,82,4,-39,-53,-82
-78,-112,-34,95,-21,-73,136,78,4,-39,-58,-87
-78,-107,-29,92,-24,-68,141,78,9,-29,-53,-82
-78,-102,-24,90,-26,-63,146,78,19,-24,-48,-78
-73,-92,-19,82,-26,-56,146,78,19,-19,-43,-73
-73,-87,-14,80,-29,-51,141,73,24,-14,-43,-73
-73,-82,-9,78,-31,-46,146,73,29,-9,-39,-68
-73,-82,-9,78,-31,-46,146,78,34,-9,-34,-68
-73,-78,-4,75,-34,-41,146,78,43,0,-29,-63
-73,-78,-4,75,-34,-41,151,78,48,0,-29,-63
-73,-73,0,73,-36,-36,146,73,48,0,-29,-63
-73,-68,4,70,-39,-31,151,73,53,4,-29,-58
-73,-63,9,68,-41,-26,156,73,63,9,-24,-53
-73,-53,19,63,-46,-17,156,68,63,14,-19,-53
-73,-48,24,61,-48,-12,161,68,68,19,-14,-48
-73,-43,29,58,-51,-7,156,68,73,19,-14,-48
-73,-34,39,53,-56,2,161,68,82,24,-9,-48
-78,-29,48,53,-63,9,165,68,97,29,0,-43
-78,-19,58,48,-68,19,161,63,102,34,0,-43
-78,-9,68,43,-73,29,161,58,107,39,4,-43
-78,4,82,36,-80,43,165,58,117,48,9,-39
-78,9,87,34,-82,48,165,53,122,53,14,-34
-78,19,97,29,-87,58,170,53,136,63,19,-29
-82,24,107,29,-95,65,170,48,141,68,19,-24
-82,24,107,29,-95,65,170,48,146,73,24,-19
-87,29,117,29,-102,73,170,43,156,78,29,-14
-82,39,122,21,-102,80,170,39,161,82,29,-14
-82,43,126,19,-104,85,170,34,165,82,34,-9
-82,53,136,14,-109,95,175,34,170,92,43,4
-82,63,146,9,-114,104,170,34,180,97,53,14
-82,73,156,4,-119,114,170,29,185,102,58,19
-82,78,161,2,-122,119,175,29,195,107,63,29
-87,82,170,2,-129,126,175,29,209,112,73,34
-87,87,175,0,-131,131,180,24,214,117,73,39
-92,92,185,0,-139,139,180,19,224,126,78,48
-92,97,190,-2,-141,143,175,9,229,126,82,48
-97,107,204,-4,-151,156,180,4,234,136,92,53
-97,117,214,-9,-156,165,180,-9,239,136,92,58
-97,122,219,-12,-158,170,180,-14,244,146,97,68
-97,126,224,-14,-161,175,180,-14,253,151,107,73
-102,131,234,-14,-168,183,180,-19,258,156,112,82
-102,141,244,-19,-173,192,175,-24,263,151,112,82
-107,146,253,-19,-180,200,170,-34,268,156,112,82
-107,151,258,-21,-183,204,170,-39,278,165,117,92
-107,161,268,-26,-187,214,161,-48,283,170,122,97
-107,170,278,-31,-192,224,156,-63,283,170,126,102
-112,180,292,-34,-202,236,151,-73,287,175,136,107
-117,185,302,-34,-209,244,146,-82,292,180,141,117
-117,195,312,-39,-214,253,141,-92,292,185,141,117
-122,204,326,-41,-224,265,131,-97,297,185,146,122
-131,204,336,-36,-234,270,131,-107,302,190,151,131
-136,209,346,-36,-241,278,122,-117,302,185,151,131
-136,209,346,-36,-241,278,117,-122,302,190,151,141
-131,214,346,-41,-239,280,107,-136,292,185,151,141
-131,214,346,-41,-239,280,97,-141,287,180,151,141
-136,214,351,-39,-244,283,92,-146,287,185,156,151
-136,214,351,-39,-244,283,82,-151,283,180,156,151
-136,214,351,-39,-244,283,78,-151,278,180,156,156
-136,209,346,-36,-241,278,68,-156,273,180,151,156
-141,209,351,-34,-246,280,58,-165,263,175,151,151
-141,204,346,-31,-244,275,53,-165,263,175,151,156
-141,204,346,-31,-244,275,43,-170,258,175,151,151
-141,195,336,-26,-239,265,34,-175,248,165,151,151
-141,185,326,-21,-234,256,34,-175,239,165,146,156
-141,175,317,-17,-229,246,24,-180,224,156,141,151
-141,170,312,-14,-226,241,24,-175,219,151,136,146
-136,156,292,-9,-214,224,9,-180,204,141,126,141
-136,146,283,-4,-209,214,9,-175,190,136,122,136
-136,136,273,0,-204,204,9,-165,180,131,117,131
-136,126,263,4,-200,195,4,-165,165,117,112,122
-136,117,253,9,-195,185,0,-161,156,112,107,122
-131,107,239,12,-185,173,-9,-165,146,107,97,117
-131,97,229,17,-180,163,-9,-156,141,102,97,112
-131,92,224,19,-178,158,-14,-151,126,97,92,107
-126,82,209,21,-168,146,-14,-146,122,97,92,107
-122,78,200,21,-161,139,-19,-146,117,92,87,102
-117,73,190,21,-153,131,-19,-141,112,87,82,92
-107,68,175,19,-141,122,-24,-141,92,78,73,82
-102,63,165,19,-134,114,-29,-136,87,73,73,82
-97,58,156,19,-126,107,-29,-136,78,68,68,78
-87,48,136,19,-112,92,-34,-131,68,63,58,73
-87,43,131,21,-109,87,-29,-122,63,63,58,73
-82,39,122,21,-102,80,-29,-107,53,53,53,63
-78,29,107,24,-92,68,-29,-92,48,48,48,53
-78,24,102,26,-90,63,-29,-82,39,43,43,43
-73,19,92,26,-82,56,-24,-68,34,39,34,39
-68,14,82,26,-75,48,-24,-53,29,34,34,34
-58,9,68,24,-63,39,-24,-48,24,34,29,34
-53,4,58,24,-56,31,-24,-43,19,29,29,29
-43,4,48,19,-46,26,-29,-48,9,24,19,24
-39,4,43,17,-41,24,-29,-48,9,24,19,24
-29,0,29,14,-29,14,-34,-43,9,24,19,24
-24,0,24,12,-24,12,-39,-48,0,14,14,19
-24,-9,14,17,-19,2,-34,-39,4,19,14,19
-19,-14,4,17,-12,-4,-34,-34,0,19,14,19
-19,-19,0,19,-9,-9,-29,-34,-9,14,14,14
-14,-24,-9,19,-2,-17,-29,-29,-14,14,14,14
-14,-24,-9,19,-2,-17,-29,-24,-14,14,9,14
-14,-24,-9,19,-2,-17,-29,-19,-19,14,9,14
-9,-24,-14,17,2,-19,-24,-14,-14,14,14,14
-9,-19,-9,14,0,-14,-29,-14,-19,14,9,4
0,-19,-19,9,9,-19,-29,-9,-14,19,9,4
0,-19,-19,9,9,-19,-29,-9,-14,19,9,4
0,-19,-19,9,9,-19,-24,0,-14,19,9,0
0,-24,-24,12,12,-24,-24,0,-24,14,4,0
0,-34,-34,17,17,-34,-19,9,-29,9,0,-9
0,-39,-39,19,19,-39,-19,9,-34,0,-9,-14
-9,-48,-39,29,14,-43,-14,14,-39,-9,-14,-14
-9,-58,-48,34,19,-53,-9,24,-43,-14,-19,-14
-9,-63,-53,36,21,-58,-14,19,-48,-19,-24,-24
-9,-68,-58,39,24,-63,-9,29,-43,-19,-19,-19
-9,-68,-58,39,24,-63,-9,29,-43,-19,-24,-24
-9,-68,-58,39,24,-63,-9,29,-43,-19,-19,-24
-9,-68,-58,39,24,-63,0,34,-39,-14,-19,-24
-9,-68,-58,39,24,-63,0,34,-39,-14,-19,-24
-14,-68,-53,41,19,-61,0,34,-39,-9,-19,-19
-9,-63,-53,36,21,-58,-9,34,-39,-14,-24,-24
0,-63,-63,31,31,-63,0,39,-39,-9,-19,-24
0,-63,-63,31,31,-63,0,39,-34,-9,-19,-24
0,-63,-63,31,31,-63,4,43,-34,-9,-19,-24
0,-63,-63,31,31,-63,4,48,-34,-9,-19,-24
4,-63,-68,29,36,-65,9,48,-34,-9,-14,-24
4,-63,-68,29,36,-65,9,48,-34,-9,-19,-24
0,-63,-63,31,31,-63,9,43,-34,-9,-19,-24
-9,-63,-53,36,21,-58,4,43,-34,-9,-24,-29
-14,-63,-48,39,17,-56,9,43,-29,-9,-19,-24
-19,-68,-48,43,14,-58,4,43,-29,-9,-24,-24
-19,-68,-48,43,14,-58,4,39,-29,-9,-24,-29
-19,-73,-53,46,17,-63,9,43,-29,-9,-24,-29
-19,-73,-53,46,17,-63,9,43,-29,-9,-24,-29
-19,-73,-53,46,17,-63,14,43,-24,0,-24,-29
-14,-68,-53,41,19,-61,9,39,-29,-9,-24,-29
-14,-68,-53,41,19,-61,4,39,-29,-9,-24,-29
-9,-68,-58,39,24,-63,4,39,-24,-9,-24,-24
0,-63,-63,31,31,-63,0,39,-24,-9,-24,-24
0,-63,-63,31,31,-63,0,43,-24,-9,-19,-24
0,-63,-63,31,31,-63,0,39,-29,-9,-24,-24
-9,-68,-58,39,24,-63,0,43,-24,0,-19,-19
-9,-68,-58,39,24,-63,4,48,-29,0,-19,-19
-14,-68,-53,41,19,-61,4,48,-29,0,-19,-19
-19,-73,-53,46,17,-63,9,53,-29,0,-14,-19
-19,-73,-53,46,17,-63,4,48,-29,4,-14,-19
-19,-68,-48,43,14,-58,0,43,-34,0,-19,-24
-19,-68,-48,43,14,-58,0,43,-34,0,-24,-29
-19,-68,-48,43,14,-58,0,39,-34,0,-24,-29
-14,-73,-58,43,21,-65,0,34,-39,-9,-24,-29
-19,-73,-53,46,17,-63,4,39,-34,-9,-24,-24
-19,-78,-58,48,19,-68,4,39,-39,-14,-29,-24
-14,-82,-68,48,26,-75,4,39,-43,-19,-29,-24
-14,-87,-73,51,29,-80,4,39,-43,-24,-34,-24
-14,-92,-78,53,31,-85,4,43,-43,-19,-29,-24
-14,-97,-82,56,34,-90,4,43,-48,-24,-34,-24
-14,-97,-82,56,34,-90,4,48,-48,-24,-39,-24
-9,-102,-92,56,41,-97,4,48,-53,-29,-39,-24
-14,-102,-87,58,36,-95,4,53,-53,-29,-39,-29
-19,-102,-82,61,31,-92,9,58,-53,-24,-34,-24
-19,-102,-82,61,31,-92,9,58,-53,-24,-29,-24
-19,-97,-78,58,29,-87,4,53,-58,-29,-34,-29
-19,-97,-78,58,29,-87,4,48,-58,-29,-34,-29
-19,-97,-78,58,29,-87,4,43,-58,-29,-34,-24
-19,-97,-78,58,29,-87,4,39,-58,-24,-34,-24
-14,-97,-82,56,34,-90,0,39,-58,-24,-34,-24
-14,-97,-82,56,34,-90,0,39,-58,-29,-34,-24
-14,-97,-82,56,34,-90,0,39,-63,-29,-34,-24
-14,-97,-82,56,34,-90,-9,39,-63,-29,-39,-29
-14,-97,-82,56,34,-90,-9,43,-68,-34,-39,-29
-19,-102,-82,61,31,-92,0,48,-63,-29,-34,-24
-19,-102,-82,61,31,-92,0,48,-63,-34,-39,-24
-14,-102,-87,58,36,-95,-9,48,-68,-39,-43,-29
-14,-102,-87,58,36,-95,-9,48,-68,-39,-43,-29
-14,-102,-87,58,36,-95,0,48,-73,-39,-43,-29
-14,-102,-87,58,36,-95,0,48,-73,-39,-43,-34
-14,-107,-92,61,39,-100,0,48,-73,-34,-39,-29
-19,-107,-87,63,34,-97,0,48,-73,-39,-39,-29
-19,-102,-82,61,31,-92,0,48,-73,-39,-43,-29
-19,-102,-82,61,31,-92,0,48,-73,-39,-39,-29
-19,-102,-82,61,31,-92,0,48,-68,-34,-39,-29
-19,-97,-78,58,29,-87,-9,43,-68,-39,-43,-34
-19,-92,-73,56,26,-82,-9,43,-68,-34,-39,-29
-19,-92,-73,56,26,-82,-9,43,-63,-29,-34,-29
-19,-92,-73,56,26,-82,-9,43,-63,-29,-34,-29
-19,-92,-73,56,26,-82,-9,39,-68,-29,-34,-29
-19,-92,-73,56,26,-82,-9,39,-68,-29,-34,-29
-24,-92,-68,58,21,-80,-14,39,-68,-34,-34,-29
-24,-97,-73,61,24,-85,-9,43,-68,-29,-29,-29
-24,-97,-73,61,24,-85,-9,43,-73,-29,-34,-29
-19,-97,-78,58,29,-87,-19,34,-78,-34,-39,-34
-19,-97,-78,58,29,-87,-19,34,-78,-34,-39,-34
-14,-92,-78,53,31,-85,-19,34,-73,-34,-39,-29
-14,-92,-78,53,31,-85,-19,34,-73,-29,-39,-29
-14,-92,-78,53,31,-85,-19,34,-73,-29,-39,-24
-14,-92,-78,53,31,-85,-19,39,-68,-29,-34,-24
-14,-87,-73,51,29,-80,-24,39,-68,-34,-39,-24
-14,-87,-73,51,29,-80,-24,43,-73,-34,-39,-24
-14,-92,-78,53,31,-85,-14,53,-68,-29,-34,-24
-14,-92,-78,53,31,-85,-14,53,-73,-34,-34,-24
-14,-97,-82,56,34,-90,-14,48,-78,-34,-39,-24
-14,-97,-82,56,34,-90,-14,43,-78,-39,-39,-29
-19,-97,-78,58,29,-87,-19,39,-82,-39,-39,-29
-19,-102,-82,61,31,-92,-14,34,-78,-39,-39,-24
-19,-97,-78,58,29,-87,-24,29,-82,-39,-43,-29
-19,-97,-78,58,29,-87,-24,29,-82,-39,-43,-29
-19,-92,-73,56,26,-82,-19,29,-78,-39,-39,-29
-19,-92,-73,56,26,-82,-19,34,-78,-34,-39,-29
-14,-92,-78,53,31,-85,-19,39,-78,-34,-39,-29
