I, II, III, aVR, aVL, aVF, V1, V2, V3, V4, V5, V6
53,29,-24,-41,39,2,-48,-14,0,-9,14,0
53,29,-24,-41,39,2,-48,-19,-4,-14,4,0
53,29,-24,-41,39,2,-48,-34,-14,-24,4,0
53,34,-19,-43,36,7,-48,-39,-24,-29,4,0
43,34,-9,-39,26,12,-48,-39,-19,-29,14,14
53,39,-14,-46,34,12,-58,-39,-19,-24,19,19
68,43,-24,-56,46,9,-63,-39,-24,-19,19,24
68,48,-19,-58,43,14,-68,-39,-29,-19,24,29
82,58,-24,-70,53,17,-73,-29,-34,-29,24,34
82,58,-24,-70,53,17,-73,-34,-39,-29,24,34
82,53,-29,-68,56,12,-68,-34,-39,-29,24,34
82,53,-29,-68,56,12,-58,-29,-43,-29,19,29
78,39,-39,-58,58,0,-58,-29,-58,-29,14,14
73,19,-53,-46,63,-17,-58,-29,-58,-34,9,14
68,4,-63,-36,65,-29,-58,-29,-58,-39,9,14
63,-9,-73,-26,68,-41,-58,-29,-68,-43,0,9
63,-19,-82,-21,73,-51,-58,-29,-68,-43,0,4
63,-14,-78,-24,70,-46,-53,-29,-68,-48,0,4
58,-9,-68,-24,63,-39,-53,-34,-68,-48,0,0
48,-4,-53,-21,51,-29,-48,-34,-63,-48,-4,0
39,9,-29,-24,34,-9,-39,-29,-48,-43,-4,0
29,9,-19,-19,24,-4,-29,-29,-48,-43,-4,0
14,9,-4,-12,9,2,-9,-24,-34,-43,-9,-9
9,-4,-14,-2,12,-9,-9,-24,-34,-43,-9,-14
-4,-19,-14,12,4,-17,9,-19,-24,-39,-4,-19
-14,-19,-4,17,-4,-12,19,-19,-19,-34,-4,-19
-14,-24,-9,19,-2,-17,24,-19,-19,-34,-4,-24
-24,-29,-4,26,-9,-17,24,-19,-19,-39,-9,-29
-34,-34,0,34,-17,-17,24,-29,-24,-48,-24,-43
-34,-43,-9,39,-12,-26,19,-29,-29,-53,-34,-43
-34,-58,-24,46,-4,-41,24,-34,-34,-63,-39,-53
-43,-78,-34,61,-4,-56,19,-34,-43,-68,-43,-58
-48,-73,-24,61,-12,-48,29,-39,-34,-63,-39,-48
-43,-73,-29,58,-7,-51,29,-39,-34,-68,-39,-53
-39,-68,-29,53,-4,-48,29,-43,-34,-68,-43,-58
-39,-63,-24,51,-7,-43,34,-43,-39,-73,-53,-63
-48,-68,-19,58,-14,-43,34,-43,-48,-73,-63,-68
-48,-78,-29,63,-9,-53,34,-43,-53,-73,-63,-68
-48,-82,-34,65,-7,-58,39,-43,-53,-73,-63,-68
-48,-87,-39,68,-4,-63,39,-43,-53,-78,-63,-68
-39,-82,-43,61,2,-63,48,-43,-43,-78,-53,-68
-43,-87,-43,65,0,-65,48,-43,-43,-73,-53,-73
-43,-82,-39,63,-2,-61,48,-39,-39,-73,-58,-73
-43,-73,-29,58,-7,-51,48,-39,-39,-73,-58,-73
-48,-78,-29,63,-9,-53,39,-39,-48,-82,-58,-73
-48,-82,-34,65,-7,-58,39,-39,-48,-82,-58,-68
-48,-87,-39,68,-4,-63,39,-39,-48,-82,-58,-68
-48,-92,-43,70,-2,-68,39,-39,-48,-82,-58,-68
-34,-78,-43,56,4,-61,48,-29,-39,-78,-58,-58
-29,-73,-43,51,7,-58,48,-29,-39,-73,-58,-63
-24,-63,-39,43,7,-51,48,-29,-39,-68,-53,-63
-19,-58,-39,39,9,-48,48,-29,-39,-63,-53,-63
-34,-78,-43,56,4,-61,39,-34,-48,-68,-63,-73
-39,-82,-43,61,2,-63,39,-39,-48,-73,-63,-73
-43,-87,-43,65,0,-65,39,-43,-48,-78,-68,-73
-48,-92,-43,70,-2,-68,39,-48,-48,-87,-68,-73
-29,-78,-48,53,9,-63,53,-34,-39,-78,-78,-73
-48,-97,-48,73,0,-73,63,-19,-29,-82,-82,-82
-63,-126,-63,95,0,-95,73,-9,-29,-92,-102,-97
-63,-151,-87,107,12,-119,78,-9,-39,-107,-131,-122
-43,-156,-112,100,34,-134,68,-4,-48,-117,-136,-126
-39,-156,-117,97,39,-136,58,9,-39,-97,-126,-136
-39,-146,-107,92,34,-126,63,24,-14,-63,-107,-122
-19,-126,-107,73,43,-117,53,34,-4,-14,-63,-107
14,-92,-107,39,61,-100,29,43,14,43,0,-68
53,-53,-107,0,80,-80,4,48,19,102,63,-29
102,-19,-122,-41,112,-70,-14,53,39,156,141,19
122,24,-97,-73,109,-36,-39,63,68,229,229,73
131,63,-68,-97,100,-2,-53,53,102,307,336,146
151,117,-34,-134,92,41,-97,19,117,385,473,229
190,175,-14,-183,102,80,-136,-9,107,444,600,326
248,253,4,-251,122,129,-175,-19,87,502,746,434
351,356,4,-353,173,180,-234,-43,43,561,917,580
483,497,14,-490,234,256,-312,-87,-14,624,1127,761
590,614,24,-602,283,319,-414,-146,-82,683,1342,927
683,727,43,-705,319,385,-522,-200,-165,736,1522,1083
785,854,68,-819,358,461,-649,-292,-278,766,1712,1268
854,995,141,-924,356,568,-766,-444,-414,775,1888,1439
844,1107,263,-976,290,685,-849,-649,-541,722,1995,1571
810,1171,361,-990,224,766,-897,-873,-722,585,1986,1634
771,1151,380,-961,195,766,-922,-1073,-941,370,1864,1634
692,1073,380,-883,156,727,-922,-1268,-1146,78,1615,1576
605,922,317,-763,143,619,-868,-1395,-1317,-283,1220,1429
517,707,190,-612,163,448,-780,-1459,-1439,-644,727,1210
424,502,78,-463,173,290,-692,-1473,-1498,-946,278,995
346,361,14,-353,165,187,-614,-1454,-1498,-1156,-53,829
278,268,-9,-273,143,129,-556,-1410,-1459,-1298,-283,712
239,200,-39,-219,139,80,-497,-1312,-1400,-1366,-434,610
224,151,-73,-187,148,39,-444,-1166,-1283,-1288,-478,536
190,131,-58,-161,124,36,-380,-995,-1127,-1117,-434,473
107,112,4,-109,51,58,-307,-849,-941,-956,-400,385
53,92,39,-73,7,65,-244,-722,-780,-810,-380,273
34,82,48,-58,-7,65,-190,-605,-634,-678,-356,185
-4,58,63,-26,-34,61,-146,-492,-502,-556,-322,117
-43,19,63,12,-53,41,-102,-400,-390,-439,-268,68
-73,4,78,34,-75,41,-63,-302,-287,-331,-200,39
-68,4,73,31,-70,39,-34,-204,-195,-224,-136,19
-39,9,48,14,-43,29,-14,-131,-117,-151,-97,9
-19,4,24,7,-21,14,14,-73,-73,-92,-58,-9
-19,4,24,7,-21,14,29,-43,-39,-63,-43,-14
-19,0,19,9,-19,9,43,-24,-19,-48,-39,-14
-24,-29,-4,26,-9,-17,43,-14,-14,-48,-48,-34
-19,-53,-34,36,7,-43,39,-9,-24,-48,-58,-53
-34,-63,-29,48,-2,-46,39,-9,-19,-48,-63,-58
-39,-58,-19,48,-9,-39,53,0,-4,-43,-58,-63
-43,-63,-19,53,-12,-41,53,4,0,-43,-58,-68
-53,-63,-9,58,-21,-36,58,14,4,-39,-58,-68
-63,-68,-4,65,-29,-36,58,24,9,-39,-63,-73
-53,-68,-14,61,-19,-41,58,24,9,-34,-68,-68
-53,-68,-14,61,-19,-41,63,24,9,-34,-73,-68
-53,-68,-14,61,-19,-41,63,24,9,-34,-73,-73
-53,-68,-14,61,-19,-41,68,34,19,-24,-73,-73
-53,-73,-19,63,-17,-46,73,39,24,-24,-63,-87
-53,-73,-19,63,-17,-46,73,39,24,-24,-63,-87
-53,-73,-19,63,-17,-46,73,39,24,-19,-68,-92
-53,-82,-29,68,-12,-56,73,39,24,-19,-68,-92
-43,-73,-29,58,-7,-51,78,39,39,-19,-58,-82
-48,-73,-24,61,-12,-48,78,48,39,-19,-58,-82
-48,-73,-24,61,-12,-48,78,53,39,-19,-58,-87
-43,-73,-29,58,-7,-51,78,58,43,-9,-58,-87
-53,-78,-24,65,-14,-51,73,58,39,-9,-68,-92
-53,-82,-29,68,-12,-56,73,58,39,-9,-68,-92
-58,-87,-29,73,-14,-58,73,58,39,-9,-68,-97
-58,-92,-34,75,-12,-63,73,58,39,-9,-68,-97
-43,-87,-43,65,0,-65,73,63,53,-9,-68,-87
-43,-82,-39,63,-2,-61,73,63,53,-9,-68,-87
-43,-78,-34,61,-4,-56,73,63,53,0,-68,-87
-43,-73,-29,58,-7,-51,73,63,63,0,-68,-87
-43,-82,-39,63,-2,-61,73,53,43,0,-68,-97
-43,-82,-39,63,-2,-61,73,63,43,0,-68,-97
-43,-82,-39,63,-2,-61,73,63,48,0,-68,-97
-43,-82,-39,63,-2,-61,73,63,53,0,-68,-97
-53,-82,-29,68,-12,-56,82,68,53,9,-58,-97
-53,-82,-29,68,-12,-56,82,68,53,9,-58,-97
-53,-82,-29,68,-12,-56,82,78,53,14,-58,-97
-53,-78,-24,65,-14,-51,82,78,53,14,-58,-97
-63,-87,-24,75,-19,-56,73,73,58,14,-68,-107
-68,-92,-24,80,-21,-58,73,73,58,14,-68,-107
-68,-92,-24,80,-21,-58,73,73,58,9,-63,-107
-68,-87,-19,78,-24,-53,73,68,63,4,-63,-112
-53,-78,-24,65,-14,-51,82,78,73,14,-63,-112
-48,-78,-29,63,-9,-53,82,82,73,19,-63,-107
-43,-68,-24,56,-9,-46,82,87,73,19,-63,-102
-39,-53,-14,46,-12,-34,82,87,82,19,-63,-97
-43,-63,-19,53,-12,-41,73,87,82,14,-73,-97
-48,-68,-19,58,-14,-43,73,82,78,19,-73,-97
-53,-73,-19,63,-17,-46,73,78,73,19,-73,-102
-48,-78,-29,63,-9,-53,78,73,68,19,-73,-112
-48,-78,-29,63,-9,-53,87,78,78,24,-68,-102
-48,-73,-24,61,-12,-48,87,92,82,29,-63,-102
-48,-63,-14,56,-17,-39,87,97,97,39,-58,-102
-48,-58,-9,53,-19,-34,87,102,107,48,-53,-107
-53,-63,-9,58,-21,-36,78,107,97,43,-58,-117
-53,-68,-14,61,-19,-41,78,102,97,39,-63,-117
-48,-63,-14,56,-17,-39,78,97,97,39,-68,-122
-63,-68,-4,65,-29,-36,78,97,102,34,-73,-122
-48,-53,-4,51,-21,-29,87,102,117,43,-68,-117
-43,-53,-9,48,-17,-31,87,112,122,48,-63,-112
-48,-48,0,48,-24,-24,87,117,122,63,-58,-107
-43,-43,0,43,-21,-21,87,122,122,68,-48,-102
-53,-48,4,51,-29,-21,78,122,112,58,-53,-107
-48,-48,0,48,-24,-24,78,126,117,68,-58,-112
-48,-48,0,48,-24,-24,78,122,126,68,-63,-112
-53,-53,0,53,-26,-26,78,122,126,73,-63,-117
-48,-53,-4,51,-21,-29,87,131,141,82,-53,-107
-48,-48,0,48,-24,-24,87,136,146,82,-53,-107
-48,-43,4,46,-26,-19,87,141,151,92,-53,-107
-48,-39,9,43,-29,-14,87,141,156,92,-53,-107
-58,-53,4,56,-31,-24,78,146,151,87,-63,-117
-53,-53,0,53,-26,-26,78,151,151,92,-63,-117
-53,-53,0,53,-26,-26,78,156,151,97,-63,-117
-53,-58,-4,56,-24,-31,78,161,156,97,-63,-122
-39,-48,-9,43,-14,-29,78,175,161,112,-53,-117
-34,-43,-9,39,-12,-26,78,175,165,112,-48,-117
-29,-39,-9,34,-9,-24,78,180,180,117,-43,-112
-34,-29,4,31,-19,-12,78,185,185,122,-43,-107
-39,-34,4,36,-21,-14,78,180,190,122,-43,-117
-43,-39,4,41,-24,-17,78,190,185,122,-43,-117
-48,-39,9,43,-29,-14,82,195,190,131,-39,-112
-48,-34,14,41,-31,-9,82,204,190,136,-39,-112
-34,-29,4,31,-19,-12,87,209,195,151,-39,-112
-34,-29,4,31,-19,-12,87,214,200,156,-39,-112
-29,-24,4,26,-17,-9,87,214,204,156,-39,-112
-24,-19,4,21,-14,-7,87,224,214,165,-39,-112
-34,-14,19,24,-26,2,87,234,219,170,-39,-122
-39,-19,19,29,-29,0,87,244,229,175,-39,-122
-39,-14,24,26,-31,4,92,248,229,180,-39,-122
-34,-19,14,26,-24,-2,92,258,234,185,-39,-122
-29,-19,9,24,-19,-4,92,268,244,190,-34,-112
-29,-14,14,21,-21,0,92,273,244,190,-34,-112
-29,-14,14,21,-21,0,92,273,248,195,-34,-112
-29,-14,14,21,-21,0,92,283,258,204,-34,-112
-29,-9,19,19,-24,4,92,283,268,214,-43,-122
-29,-4,24,17,-26,9,97,292,268,214,-43,-122
-19,-4,14,12,-17,4,97,302,268,219,-48,-122
-19,-4,14,12,-17,4,97,307,273,219,-48,-122
-19,0,19,9,-19,9,97,317,283,224,-39,-122
-19,9,29,4,-24,19,97,326,297,229,-39,-122
-19,19,39,0,-29,29,97,326,302,229,-39,-122
-19,24,43,-2,-31,34,97,331,312,229,-48,-126
-19,14,34,2,-26,24,102,346,307,229,-63,-126
-19,14,34,2,-26,24,102,351,312,234,-63,-126
-19,19,39,0,-29,29,102,356,317,234,-63,-126
-19,34,53,-7,-36,43,102,361,317,239,-63,-126
-19,24,43,-2,-31,34,112,366,322,239,-68,-131
-14,24,39,-4,-26,31,117,366,326,234,-73,-131
-14,24,39,-4,-26,31,117,370,331,229,-78,-131
-29,14,43,7,-36,29,117,375,336,229,-87,-136
-24,14,39,4,-31,26,107,370,336,219,-102,-151
-19,19,39,0,-29,29,107,370,331,214,-112,-151
-14,24,39,-4,-26,31,107,370,331,214,-112,-146
-9,34,43,-12,-26,39,107,370,331,209,-117,-146
-4,34,39,-14,-21,36,107,370,331,200,-131,-136
-4,34,39,-14,-21,36,107,370,336,200,-131,-136
-9,29,39,-9,-24,34,107,370,336,200,-136,-141
-19,24,43,-2,-31,34,107,370,331,190,-146,-146
-9,29,39,-9,-24,34,107,366,341,180,-151,-146
-9,34,43,-12,-26,39,107,366,336,180,-156,-141
-9,43,53,-17,-31,48,107,366,336,170,-156,-136
-4,58,63,-26,-34,61,102,366,336,170,-156,-136
-4,63,68,-29,-36,65,97,356,326,161,-161,-136
0,48,48,-24,-24,48,97,356,322,156,-161,-131
4,43,39,-24,-17,41,92,351,322,151,-165,-131
4,39,34,-21,-14,36,87,346,312,151,-165,-126
14,53,39,-34,-12,46,92,351,312,156,-161,-122
19,58,39,-39,-9,48,92,351,317,151,-156,-117
29,58,29,-43,0,43,87,341,317,151,-156,-112
29,58,29,-43,0,43,82,336,302,146,-156,-107
24,68,43,-46,-9,56,73,322,297,131,-151,-97
19,68,48,-43,-14,58,68,317,292,126,-151,-92
24,63,39,-43,-7,51,63,302,287,126,-146,-87
19,58,39,-39,-9,48,58,292,283,126,-146,-78
34,78,43,-56,-4,61,53,292,273,126,-136,-68
39,87,48,-63,-4,68,53,287,273,131,-122,-63
53,102,48,-78,2,75,48,278,268,136,-117,-58
63,112,48,-87,7,80,39,268,258,131,-112,-53
48,97,48,-73,0,73,29,248,244,117,-117,-53
43,87,43,-65,0,65,24,234,229,117,-107,-48
39,78,39,-58,0,58,19,229,219,117,-97,-43
34,68,34,-51,0,51,14,214,200,117,-87,-39
43,78,34,-61,4,56,19,209,200,122,-82,-24
53,82,29,-68,12,56,19,204,185,117,-63,-24
63,87,24,-75,19,56,19,195,180,117,-53,-19
73,92,19,-82,26,56,24,180,175,112,-39,-14
68,78,9,-73,29,43,14,156,170,107,-39,-19
63,73,9,-68,26,41,9,151,156,102,-39,-19
58,68,9,-63,24,39,0,136,146,87,-34,-14
53,63,9,-58,21,36,-9,122,141,82,-34,-9
58,63,4,-61,26,34,0,122,131,87,-29,0
63,73,9,-68,26,41,0,112,122,87,-14,4
63,82,19,-73,21,51,0,107,122,82,-4,4
63,87,24,-75,19,56,0,102,117,78,4,4
48,73,24,-61,12,48,-9,78,92,68,0,4
43,68,24,-56,9,46,-9,73,92,63,0,4
29,53,24,-41,2,39,-14,63,87,63,4,4
24,43,19,-34,2,31,-14,53,87,58,9,4
34,58,24,-46,4,41,-4,58,78,63,14,14
43,53,9,-48,17,31,-4,48,68,63,19,14
53,53,0,-53,26,26,-4,48,68,63,24,14
63,58,-4,-61,34,26,-4,39,63,68,34,14
39,48,9,-43,14,29,-14,24,53,58,34,4
34,34,0,-34,17,17,-9,24,48,58,29,4
29,24,-4,-26,17,9,-9,24,48,53,24,4
29,14,-14,-21,21,0,-9,14,43,53,24,4
34,24,-9,-29,21,7,0,24,48,58,34,4
29,29,0,-29,14,14,0,24,48,58,34,4
24,29,4,-26,9,17,0,19,48,58,39,4
29,34,4,-31,12,19,0,14,39,58,39,4
29,39,9,-34,9,24,-4,4,39,48,39,-4
24,34,9,-29,7,21,-4,4,43,48,43,-4
19,29,9,-24,4,19,-9,4,43,48,43,-4
9,9,0,-9,4,4,-14,0,39,43,43,-9
24,14,-9,-19,17,2,-9,9,39,43,53,0
29,14,-14,-21,21,0,-4,9,39,43,53,0
34,19,-14,-26,24,2,0,4,39,43,53,0
39,24,-14,-31,26,4,4,4,39,43,48,-4
24,9,-14,-17,19,-2,-4,9,29,39,43,-14
19,4,-14,-12,17,-4,-4,9,29,39,39,-14
14,0,-14,-7,14,-7,0,4,29,34,39,-14
0,-4,-4,2,2,-4,0,4,29,34,34,-14
4,4,0,-4,2,2,9,4,39,43,43,-4
14,4,-9,-9,12,-2,9,4,39,43,43,-4
19,14,-4,-17,12,4,9,4,39,43,43,-4
24,24,0,-24,12,12,9,9,39,43,43,-4
14,14,0,-14,7,7,4,0,29,43,34,-4
14,9,-4,-12,9,2,0,0,29,43,34,-4
14,9,-4,-12,9,2,-4,0,29,43,34,-4
14,4,-9,-9,12,-2,-4,0,29,43,34,-9
24,14,-9,-19,17,2,0,4,34,53,43,-9
19,4,-14,-12,17,-4,4,9,39,53,43,-9
14,4,-9,-9,12,-2,9,14,43,53,43,-9
9,4,-4,-7,7,0,14,19,53,53,43,-14
0,-4,-4,2,2,-4,4,9,43,43,43,-14
0,-4,-4,2,2,-4,4,9,43,43,43,-14
9,-4,-14,-2,12,-9,4,9,43,43,43,-14
9,-4,-14,-2,12,-9,4,9,43,43,43,-14
9,4,-4,-7,7,0,4,9,53,48,53,-4
9,0,-9,-4,9,-4,4,9,53,48,53,-9
4,0,-4,-2,4,-2,9,9,53,48,48,-9
0,0,0,0,0,0,14,14,53,48,48,-9
4,9,4,-7,0,7,14,14,53,58,43,-9
4,4,0,-4,2,2,9,14,48,58,43,-9
4,4,0,-4,2,2,9,14,43,58,43,-9
4,9,4,-7,0,7,9,14,43,58,43,-9
-4,0,4,2,-4,2,14,24,53,63,43,-9
-4,0,4,2,-4,2,14,24,53,63,43,-9
-4,0,4,2,-4,2,14,24,53,63,39,-14
-4,-4,0,4,-2,-2,14,24,53,63,39,-14
4,-4,-9,0,7,-7,14,19,43,53,34,-14
4,-4,-9,0,7,-7,14,14,39,53,34,-14
4,-4,-9,0,7,-7,14,9,39,53,39,-19
0,0,0,0,0,0,19,9,39,53,39,-19
-9,0,9,4,-9,4,9,19,39,53,29,-19
-9,-4,4,7,-7,0,9,14,39,53,29,-24
0,-4,-4,2,2,-4,9,14,39,53,29,-24
-9,-9,0,9,-4,-4,9,14,39,53,29,-24
0,0,0,0,0,0,19,14,48,53,39,-24
0,0,0,0,0,0,19,14,48,53,39,-19
0,0,0,0,0,0,19,14,48,53,39,-19
0,0,0,0,0,0,19,14,53,53,29,-19
-9,-9,0,9,-4,-4,9,4,43,39,29,-24
-9,-9,0,9,-4,-4,9,4,34,39,29,-24
-14,-9,4,12,-9,-2,9,4,34,34,29,-24
-14,-9,4,12,-9,-2,9,4,34,34,29,-24
0,0,0,0,0,0,19,9,34,39,29,-34
0,0,0,0,0,0,19,9,39,39,29,-34
0,0,0,0,0,0,19,9,43,39,29,-34
0,0,0,0,0,0,19,9,48,39,29,-34
-14,-9,4,12,-9,-2,9,4,43,34,29,-34
-19,-14,4,17,-12,-4,9,0,39,34,24,-34
-24,-19,4,21,-14,-7,9,-4,29,29,24,-39
-29,-24,4,26,-17,-9,9,-9,19,29,19,-39
-24,-24,0,24,-12,-12,19,-14,24,29,14,-39
-14,-19,-4,17,-4,-12,19,-9,24,29,14,-39
-4,-14,-9,9,2,-12,19,-4,29,19,14,-39
4,-9,-14,2,9,-12,19,0,29,19,14,-39
-4,-19,-14,12,4,-17,9,-9,29,19,4,-39
-14,-24,-9,19,-2,-17,9,-9,29,14,4,-39
-24,-34,-9,29,-7,-21,9,-9,19,14,4,-39
-34,-39,-4,36,-14,-21,9,-9,14,9,0,-39
-34,-34,0,34,-17,-17,19,-14,14,9,0,-43
-24,-29,-4,26,-9,-17,19,-14,14,9,4,-43
-9,-24,-14,17,2,-19,19,-9,14,9,4,-43
0,-19,-19,9,9,-19,19,-9,14,0,-4,-43
-14,-24,-9,19,-2,-17,9,-19,4,-9,-4,-43
-14,-29,-14,21,0,-21,9,-24,0,-9,-4,-43
-19,-34,-14,26,-2,-24,9,-24,0,-9,-4,-43
-29,-39,-9,34,-9,-24,9,-24,0,-9,-4,-43
-14,-39,-24,26,4,-31,19,-14,9,-4,4,-39
-9,-34,-24,21,7,-29,19,-14,9,-4,4,-39
-4,-24,-19,14,7,-21,19,-14,9,-9,4,-39
0,-19,-19,9,9,-19,19,-14,9,-9,4,-34
-19,-29,-9,24,-4,-19,9,-19,-9,-24,-4,-39
-24,-34,-9,29,-7,-21,9,-24,-9,-24,-9,-43
-24,-43,-19,34,-2,-31,9,-34,-14,-24,-9,-48
-24,-63,-39,43,7,-51,9,-39,-14,-29,-14,-53
-14,-53,-39,34,12,-46,19,-34,-4,-19,-4,-43
-14,-48,-34,31,9,-41,19,-34,-4,-19,-4,-48
-4,-39,-34,21,14,-36,19,-29,-4,-19,-9,-48
4,-24,-29,9,17,-26,19,-24,-4,-24,-9,-48
-4,-39,-34,21,14,-36,9,-24,-14,-34,-19,-63
-14,-43,-29,29,7,-36,9,-29,-14,-34,-19,-63
-24,-48,-24,36,0,-36,9,-39,-14,-34,-19,-63
-34,-53,-19,43,-7,-36,9,-43,-14,-34,-19,-63
-29,-43,-14,36,-7,-29,9,-39,-9,-24,-14,-53
-24,-43,-19,34,-2,-31,9,-39,-9,-29,-14,-53
-19,-39,-19,29,0,-29,9,-39,-9,-29,-14,-53
-14,-29,-14,21,0,-21,9,-39,-9,-29,-14,-53
-19,-34,-14,26,-2,-24,9,-48,-9,-39,-24,-53
-24,-39,-14,31,-4,-26,9,-48,-14,-39,-24,-53
-29,-43,-14,36,-7,-29,9,-48,-14,-39,-29,-53
-34,-48,-14,41,-9,-31,9,-48,-14,-39,-29,-53
-19,-39,-19,29,0,-29,9,-48,-14,-39,-29,-48
-14,-39,-24,26,4,-31,9,-43,-14,-39,-29,-48
-9,-39,-29,24,9,-34,9,-39,-19,-34,-29,-48
-4,-39,-34,21,14,-36,9,-34,-19,-34,-24,-48
-9,-48,-39,29,14,-43,9,-43,-29,-48,-34,-48
-14,-48,-34,31,9,-41,9,-43,-29,-48,-34,-48
-19,-48,-29,34,4,-39,9,-43,-24,-48,-34,-48
-24,-48,-24,36,0,-36,9,-43,-19,-48,-39,-48
-14,-43,-29,29,7,-36,19,-34,-9,-39,-39,-39
-9,-48,-39,29,14,-43,19,-34,-19,-39,-34,-43
-14,-43,-29,29,7,-36,19,-39,-24,-43,-29,-48
-9,-39,-29,24,9,-34,19,-39,-24,-43,-24,-48
-14,-39,-24,26,4,-31,9,-48,-24,-53,-24,-53
-19,-43,-24,31,2,-34,9,-48,-24,-53,-24,-53
-19,-48,-29,34,4,-39,9,-48,-24,-53,-24,-58
-24,-53,-29,39,2,-41,9,-48,-24,-53,-24,-58
-19,-48,-29,34,4,-39,9,-39,-19,-43,-24,-58
-14,-43,-29,29,7,-36,9,-39,-19,-43,-24,-58
-9,-39,-29,24,9,-34,9,-39,-19,-43,-29,-58
-4,-39,-34,21,14,-36,9,-43,-24,-43,-29,-58
-14,-48,-34,31,9,-41,0,-53,-24,-53,-39,-68
-14,-43,-29,29,7,-36,0,-53,-24,-53,-34,-68
-14,-43,-29,29,7,-36,0,-53,-24,-53,-34,-68
-14,-39,-24,26,4,-31,0,-53,-24,-53,-34,-68
-24,-39,-14,31,-4,-26,9,-63,-24,-58,-34,-68
-19,-39,-19,29,0,-29,9,-63,-24,-58,-34,-68
-19,-43,-24,31,2,-34,9,-63,-24,-58,-34,-68
-24,-48,-24,36,0,-36,9,-63,-24,-58,-39,-68
-34,-48,-14,41,-9,-31,9,-63,-24,-58,-29,-58
-34,-48,-14,41,-9,-31,9,-63,-29,-58,-29,-58
-29,-48,-19,39,-4,-34,4,-63,-29,-58,-29,-58
-19,-48,-29,34,4,-39,4,-63,-29,-58,-29,-58
-9,-53,-43,31,17,-48,4,-63,-39,-58,-29,-58
-9,-58,-48,34,19,-53,4,-63,-39,-63,-34,-58
-9,-63,-53,36,21,-58,4,-63,-43,-63,-34,-58
-14,-73,-58,43,21,-65,4,-68,-43,-63,-34,-58
-19,-68,-48,43,14,-58,4,-78,-43,-63,-34,-58
-19,-58,-39,39,9,-48,9,-73,-39,-63,-34,-58
-14,-53,-39,34,12,-46,9,-73,-39,-63,-29,-58
-14,-43,-29,29,7,-36,9,-73,-39,-58,-29,-53
-14,-43,-29,29,7,-36,9,-73,-34,-58,-39,-63
-14,-48,-34,31,9,-41,9,-73,-34,-58,-39,-63
-14,-48,-34,31,9,-41,9,-78,-34,-58,-43,-73
-14,-53,-39,34,12,-46,9,-78,-39,-68,-43,-73
-4,-53,-48,29,21,-51,9,-78,-39,-68,-43,-73
-4,-53,-48,29,21,-51,9,-78,-39,-68,-43,-68
-4,-53,-48,29,21,-51,9,-78,-43,-68,-43,-68
-4,-48,-43,26,19,-46,9,-73,-43,-63,-39,-68
-9,-58,-48,34,19,-53,9,-73,-43,-63,-39,-58
-14,-58,-43,36,14,-51,9,-78,-43,-63,-39,-58
-19,-58,-39,39,9,-48,9,-78,-39,-63,-39,-58
-24,-58,-34,41,4,-46,9,-73,-39,-63,-39,-58
-24,-63,-39,43,7,-51,9,-73,-29,-63,-39,-58
-19,-63,-43,41,12,-53,9,-73,-29,-63,-39,-58
-14,-58,-43,36,14,-51,9,-73,-29,-63,-39,-58
-9,-58,-48,34,19,-53,9,-73,-29,-63,-39,-58
-4,-63,-58,34,26,-61,9,-73,-39,-73,-43,-68
-9,-68,-58,39,24,-63,9,-73,-39,-73,-43,-68
-14,-73,-58,43,21,-65,9,-73,-39,-73,-43,-68
-19,-78,-58,48,19,-68,4,-78,-39,-73,-43,-73
-14,-68,-53,41,19,-61,4,-78,-39,-68,-34,-63
-14,-58,-43,36,14,-51,9,-78,-39,-68,-39,-63
-14,-53,-39,34,12,-46,9,-78,-39,-63,-39,-63
-9,-43,-34,26,12,-39,9,-78,-39,-58,-34,-63
-29,-53,-24,41,-2,-39,0,-82,-39,-68,-43,-73
-48,-68,-19,58,-14,-43,9,-92,-39,-73,-43,-73
-43,-68,-24,56,-9,-46,9,-92,-43,-73,-48,-82
-19,-48,-29,34,4,-39,9,-87,-39,-78,-48,-68
-14,-48,-34,31,9,-41,9,-78,-29,-68,-39,-58
-9,-48,-39,29,14,-43,9,-78,-29,-68,-39,-58
-4,-48,-43,26,19,-46,9,-78,-29,-68,-39,-58
0,-48,-48,24,24,-48,9,-78,-29,-68,-39,-58
-4,-53,-48,29,21,-51,9,-87,-34,-78,-48,-68
-9,-58,-48,34,19,-53,9,-87,-39,-78,-48,-68
-14,-63,-48,39,17,-56,9,-87,-43,-78,-48,-68
-19,-68,-48,43,14,-58,9,-87,-48,-78,-48,-68
-9,-58,-48,34,19,-53,19,-78,-34,-63,-34,-63
-9,-48,-39,29,14,-43,19,-78,-29,-58,-29,-58
-9,-39,-29,24,9,-34,19,-78,-24,-53,-24,-53
-9,-29,-19,19,4,-24,19,-78,-19,-48,-19,-48
0,-39,-39,19,19,-39,14,-78,-29,-58,-29,-58
0,-39,-39,19,19,-39,9,-78,-29,-58,-29,-58
0,-39,-39,19,19,-39,4,-78,-29,-58,-29,-58
0,-39,-39,19,19,-39,0,-78,-29,-58,-29,-58
4,-19,-24,7,14,-21,9,-73,-24,-53,-24,-53
9,-9,-19,0,14,-14,9,-68,-19,-48,-19,-48
14,9,-4,-12,9,2,9,-63,-9,-39,-9,-39
19,24,4,-21,7,14,9,-58,4,-29,-4,-34
14,14,0,-14,7,7,0,-63,0,-39,-9,-43
14,9,-4,-12,9,2,0,-63,4,-39,-4,-39
14,4,-9,-9,12,-2,-4,-68,4,-34,-4,-39
9,0,-9,-4,9,-4,-4,-68,4,-29,-4,-39
9,4,-4,-7,7,0,4,-53,9,-24,4,-29
19,14,-4,-17,12,4,4,-53,24,-19,9,-24
19,29,9,-24,4,19,9,-43,34,-4,19,-19
19,34,14,-26,2,24,9,-39,43,4,24,-19
9,29,19,-19,-4,24,0,-48,39,0,14,-29
19,29,9,-24,4,19,-4,-39,34,0,14,-24
19,24,4,-21,7,14,-9,-34,29,4,19,-24
19,19,0,-19,9,9,-9,-34,29,9,24,-24
34,34,0,-34,17,17,-19,-29,39,14,34,-14
39,39,0,-39,19,19,-24,-24,34,14,34,-9
58,48,-9,-53,34,19,-29,-24,29,14,39,-9
73,58,-14,-65,43,21,-39,-29,29,14,39,-4
58,43,-14,-51,36,14,-48,-43,24,14,39,-9
53,39,-14,-46,34,12,-63,-43,14,9,39,-9
48,34,-14,-41,31,9,-68,-58,4,9,39,-9
43,29,-14,-36,29,7,-68,-63,0,4,34,-9
48,39,-9,-43,29,14,-58,-73,-9,-9,24,-9
53,39,-14,-46,34,12,-58,-78,-14,-14,14,-9
58,39,-19,-48,39,9,-58,-92,-24,-24,14,-9
63,43,-19,-53,41,12,-58,-97,-34,-29,14,-9
63,34,-29,-48,46,2,-68,-97,-43,-39,14,-4
73,39,-34,-56,53,2,-78,-97,-48,-34,19,0
87,43,-43,-65,65,0,-82,-97,-58,-29,19,4
87,48,-39,-68,63,4,-87,-97,-68,-29,24,9
82,48,-34,-65,58,7,-92,-87,-63,-39,24,14
82,48,-34,-65,58,7,-92,-92,-68,-39,24,14
82,43,-39,-63,61,2,-87,-92,-68,-39,24,14
82,43,-39,-63,61,2,-78,-87,-73,-39,19,9
82,43,-39,-63,61,2,-78,-87,-78,-39,24,4
82,29,-53,-56,68,-12,-78,-87,-78,-43,19,4
82,19,-63,-51,73,-21,-78,-87,-78,-48,19,4
82,9,-73,-46,78,-31,-78,-87,-87,-53,9,0
82,-4,-87,-39,85,-46,-68,-97,-97,-63,4,-4
82,-4,-87,-39,85,-46,-63,-97,-97,-68,0,-4
78,-4,-82,-36,80,-43,-63,-102,-97,-68,-4,-9
68,-4,-73,-31,70,-39,-58,-102,-92,-68,-14,-9
48,-9,-58,-19,53,-34,-58,-97,-78,-63,-14,-19
39,-9,-48,-14,43,-29,-48,-97,-78,-63,-14,-19
24,-9,-34,-7,29,-21,-29,-92,-63,-63,-19,-29
19,-24,-43,2,31,-34,-29,-92,-63,-63,-19,-34
14,-19,-34,2,24,-26,-9,-78,-53,-48,-14,-29
4,-19,-24,7,14,-21,0,-78,-48,-43,-14,-29
4,-24,-29,9,17,-26,4,-78,-48,-43,-14,-34
-4,-29,-24,17,9,-26,4,-78,-48,-48,-19,-39
-4,-39,-34,21,14,-36,9,-87,-58,-58,-24,-53
-4,-43,-39,24,17,-41,9,-87,-58,-63,-34,-53
-4,-53,-48,29,21,-51,19,-92,-58,-73,-39,-63
-14,-68,-53,41,19,-61,19,-92,-63,-78,-43,-68
-14,-68,-53,41,19,-61,19,-97,-73,-82,-48,-68
-14,-73,-58,43,21,-65,19,-97,-73,-87,-48,-73
-14,-73,-58,43,21,-65,19,-102,-73,-87,-53,-78
-19,-73,-53,46,17,-63,24,-102,-78,-92,-63,-82
-24,-82,-58,53,17,-70,24,-92,-68,-92,-63,-78
-29,-87,-58,58,14,-73,24,-92,-73,-92,-63,-78
-34,-87,-53,61,9,-70,29,-92,-73,-92,-63,-78
-39,-87,-48,63,4,-68,29,-92,-73,-97,-63,-78
-39,-97,-58,68,9,-78,19,-102,-73,-107,-63,-78
-43,-107,-63,75,9,-85,19,-102,-73,-102,-63,-82
-43,-107,-63,75,9,-85,19,-97,-68,-102,-68,-82
-43,-102,-58,73,7,-80,19,-97,-68,-102,-68,-82
-34,-87,-53,61,9,-70,29,-97,-58,-97,-58,-73
-29,-82,-53,56,12,-68,29,-97,-58,-92,-58,-68
-24,-78,-53,51,14,-65,29,-97,-58,-87,-58,-68
-19,-73,-53,46,17,-63,29,-97,-58,-82,-58,-68
-24,-78,-53,51,14,-65,29,-97,-68,-92,-68,-78
-29,-82,-53,56,12,-68,29,-97,-68,-92,-68,-82
-34,-82,-48,58,7,-65,29,-97,-68,-92,-63,-82
-39,-87,-48,63,4,-68,29,-97,-68,-92,-63,-82
-34,-82,-48,58,7,-65,29,-87,-68,-82,-53,-82
-29,-82,-53,56,12,-68,29,-87,-68,-82,-53,-82
-24,-82,-58,53,17,-70,29,-87,-68,-82,-58,-82
-19,-82,-63,51,21,-73,29,-87,-68,-87,-58,-82
-48,-97,-48,73,0,-73,34,-92,-48,-97,-68,-92
-58,-126,-68,92,4,-97,43,-87,-48,-102,-82,-102
-63,-156,-92,109,14,-124,53,-78,-68,-122,-102,-117
-53,-151,-97,102,21,-124,58,-68,-78,-117,-112,-122
-34,-136,-102,85,34,-119,68,-53,-68,-107,-117,-126
-19,-126,-107,73,43,-117,68,-39,-48,-97,-107,-126
-29,-126,-97,78,34,-112,63,-24,-34,-63,-78,-122
-9,-126,-117,68,53,-122,43,-24,-34,-34,-53,-117
14,-122,-136,53,75,-129,9,-34,-43,-4,-9,-97
34,-102,-136,34,85,-119,-14,-29,-48,43,43,-58
63,-68,-131,2,97,-100,-34,-24,-29,107,122,-9
92,-24,-117,-34,104,-70,-39,-4,9,190,209,43
131,43,-87,-87,109,-21,-43,4,53,268,307,117
180,136,-43,-158,112,46,-78,-9,87,336,434,209
229,204,-24,-217,126,90,-117,-48,87,405,570,317
287,253,-34,-270,161,109,-175,-68,58,444,688,414
361,317,-43,-339,202,136,-234,-102,14,483,839,531
453,419,-34,-436,244,192,-322,-156,-43,546,1019,692
570,536,-34,-553,302,251,-424,-204,-92,605,1215,868
692,668,-24,-680,358,322,-522,-268,-165,649,1385,1024
814,814,0,-814,407,407,-629,-341,-248,688,1576,1210
912,976,63,-944,424,519,-756,-483,-375,697,1751,1390
980,1098,117,-1039,431,607,-858,-678,-512,653,1859,1532
946,1151,204,-1049,370,678,-917,-893,-683,527,1859,1595
849,1112,263,-980,292,688,-941,-1102,-893,312,1737,1595
732,1015,283,-873,224,649,-951,-1298,-1117,29,1488,1537
634,873,239,-753,197,556,-917,-1464,-1298,-312,1122,1381
527,678,151,-602,187,414,-829,-1527,-1420,-663,639,1151
444,473,29,-458,207,251,-712,-1542,-1478,-966,151,907
375,341,-34,-358,204,153,-614,-1532,-1468,-1176,-190,722
317,278,-39,-297,178,119,-546,-1507,-1439,-1327,-409,614
268,209,-58,-239,163,75,-488,-1429,-1371,-1385,-541,512
234,141,-92,-187,163,24,-434,-1283,-1283,-1337,-585,429
180,73,-107,-126,143,-17,-380,-1122,-1156,-1195,-531,366
97,34,-63,-65,80,-14,-317,-966,-1019,-1034,-488,278
24,4,-19,-14,21,-7,-244,-829,-858,-868,-448,185
-14,14,29,0,-21,21,-180,-692,-683,-707,-395,107
-14,9,24,2,-19,17,-136,-561,-551,-575,-341,39
-14,0,14,7,-14,7,-102,-448,-429,-458,-287,9
-24,-4,19,14,-21,7,-53,-351,-317,-351,-219,0
-39,-14,24,26,-31,4,-24,-263,-224,-253,-156,0
-29,-29,0,29,-14,-14,-14,-190,-156,-180,-107,-19
-19,-43,-24,31,2,-34,-14,-141,-131,-131,-87,-39
-9,-53,-43,31,17,-48,0,-112,-117,-102,-73,-43
-19,-39,-19,29,0,-29,24,-82,-87,-78,-58,-34
-34,-39,-4,36,-14,-21,53,-53,-63,-68,-48,-34
-39,-43,-4,41,-17,-24,68,-48,-53,-48,-48,-43
-24,-43,-19,34,-2,-31,68,-48,-58,-48,-43,-48
-29,-63,-34,46,2,-48,68,-58,-53,-63,-53,-58
-34,-73,-39,53,2,-56,63,-53,-48,-63,-58,-68
-43,-78,-34,61,-4,-56,63,-43,-43,-58,-63,-73
-53,-87,-34,70,-9,-61,58,-34,-39,-58,-73,-82
-43,-87,-43,65,0,-65,58,-34,-39,-43,-73,-87
-43,-87,-43,65,0,-65,63,-34,-39,-43,-73,-87
-43,-87,-43,65,0,-65,63,-34,-39,-43,-68,-92
-43,-87,-43,65,0,-65,68,-24,-29,-34,-63,-92
-53,-82,-29,68,-12,-56,73,-9,-24,-34,-53,-87
-53,-82,-29,68,-12,-56,73,-9,-24,-34,-53,-87
-53,-82,-29,68,-12,-56,73,-9,-24,-29,-58,-92
-53,-92,-39,73,-7,-65,73,-9,-24,-29,-58,-92
-43,-92,-48,68,2,-70,68,-19,-29,-29,-58,-92
-48,-92,-43,70,-2,-68,68,-9,-29,-29,-58,-92
-48,-92,-43,70,-2,-68,68,-4,-29,-29,-58,-97
-43,-92,-48,68,2,-70,68,0,-24,-19,-58,-97
-53,-102,-48,78,-2,-75,73,0,-9,-29,-58,-92
-53,-102,-48,78,-2,-75,73,0,-9,-29,-58,-92
-58,-102,-43,80,-7,-73,73,0,-9,-29,-58,-97
-58,-102,-43,80,-7,-73,73,0,-9,-29,-58,-97
-43,-97,-53,70,4,-75,82,14,-4,-19,-58,-97
-43,-92,-48,68,2,-70,82,14,-4,-19,-58,-97
-43,-87,-43,65,0,-65,82,14,-4,-9,-58,-97
-43,-82,-39,63,-2,-61,82,14,4,-9,-58,-97
-43,-73,-29,58,-7,-51,73,4,-4,-9,-48,-97
-43,-73,-29,58,-7,-51,73,14,-4,-9,-48,-97
-43,-73,-29,58,-7,-51,73,14,0,-9,-48,-97
-43,-73,-29,58,-7,-51,73,14,4,-9,-48,-97
-53,-78,-24,65,-14,-51,82,19,4,-9,-58,-107
-53,-82,-29,68,-12,-56,82,19,4,-9,-58,-107
-53,-87,-34,70,-9,-61,82,29,4,-4,-58,-107
-53,-87,-34,70,-9,-61,82,29,4,-4,-58,-107
-43,-78,-34,61,-4,-56,82,34,9,-9,-58,-97
-48,-82,-34,65,-7,-58,82,34,9,-4,-58,-97
-48,-82,-34,65,-7,-58,82,34,9,-4,-53,-97
-48,-78,-29,63,-9,-53,82,29,14,-4,-53,-102
-58,-87,-29,73,-14,-58,73,29,24,4,-63,-107
-58,-97,-39,78,-9,-68,73,34,24,9,-63,-107
-58,-97,-39,78,-9,-68,73,39,24,9,-63,-107
-58,-92,-34,75,-12,-63,73,39,34,9,-63,-107
-58,-87,-29,73,-14,-58,82,53,29,14,-58,-102
-58,-87,-29,73,-14,-58,82,53,29,19,-53,-97
-58,-87,-29,73,-14,-58,82,53,29,19,-48,-97
-48,-87,-39,68,-4,-63,87,53,29,19,-43,-102
-58,-92,-34,75,-12,-63,78,48,24,9,-53,-107
-58,-92,-34,75,-12,-63,78,53,24,9,-53,-112
-58,-87,-29,73,-14,-58,78,48,34,14,-53,-117
-58,-87,-29,73,-14,-58,78,43,39,19,-53,-126
-53,-78,-24,65,-14,-51,87,63,39,29,-53,-122
-43,-78,-34,61,-4,-56,87,63,39,29,-53,-117
-29,-68,-39,48,4,-53,87,63,39,34,-53,-117
-34,-68,-34,51,0,-51,87,68,43,34,-53,-112
-48,-73,-24,61,-12,-48,78,68,48,39,-53,-102
-53,-82,-29,68,-12,-56,78,73,53,39,-53,-102
-68,-87,-19,78,-24,-53,78,73,53,48,-53,-102
-73,-92,-19,82,-26,-56,78,73,53,48,-48,-102
-53,-78,-24,65,-14,-51,87,78,58,48,-39,-102
-39,-68,-29,53,-4,-48,87,87,68,58,-39,-102
-29,-58,-29,43,0,-43,87,87,82,58,-39,-97
-24,-53,-29,39,2,-41,87,92,87,63,-34,-97
-34,-73,-39,53,2,-56,78,82,87,53,-39,-107
-39,-78,-39,58,0,-58,78,87,87,53,-43,-107
-43,-82,-39,63,-2,-61,78,92,87,63,-48,-107
-48,-87,-39,68,-4,-63,78,92,87,63,-53,-107
-43,-73,-29,58,-7,-51,87,107,82,68,-48,-97
-34,-63,-29,48,-2,-46,87,112,82,73,-43,-97
-29,-53,-24,41,-2,-39,87,117,82,78,-39,-97
-24,-48,-24,36,0,-36,87,122,87,78,-34,-102
-39,-58,-19,48,-9,-39,78,126,97,73,-39,-102
-43,-63,-19,53,-12,-41,78,126,97,73,-39,-107
-48,-68,-19,58,-14,-43,78,131,107,78,-39,-107
-63,-68,-4,65,-29,-36,78,136,107,82,-43,-107
-48,-63,-14,56,-17,-39,87,151,117,97,-34,-107
-43,-58,-14,51,-14,-36,87,161,117,102,-34,-107
-39,-48,-9,43,-14,-29,92,165,126,117,-29,-102
-29,-34,-4,31,-12,-19,92,175,131,126,-29,-102
-29,-43,-14,36,-7,-29,78,170,131,122,-29,-102
-34,-48,-14,41,-9,-31,78,175,131,126,-29,-102
-34,-48,-14,41,-9,-31,78,175,131,126,-29,-102
-34,-48,-14,41,-9,-31,78,185,136,136,-29,-102
-29,-29,0,29,-14,-14,78,195,141,141,-19,-102
-29,-29,0,29,-14,-14,78,204,151,146,-19,-102
-24,-19,4,21,-14,-7,82,209,151,151,-19,-102
-14,-19,-4,17,-4,-12,82,219,156,156,-19,-102
-19,-24,-4,21,-7,-14,73,219,161,161,-24,-112
-19,-24,-4,21,-7,-14,73,224,156,161,-24,-112
-19,-29,-9,24,-4,-19,73,224,156,165,-24,-112
-19,-34,-14,26,-2,-24,73,234,161,175,-24,-112
-14,-14,0,14,-7,-7,78,248,185,195,-19,-102
-9,-4,4,7,-7,0,87,263,190,195,-14,-102
4,0,-4,-2,4,-2,92,278,195,200,-14,-102
9,4,-4,-7,7,0,97,287,204,200,-9,-102
4,-9,-14,2,9,-12,87,287,204,195,-14,-112
0,-9,-9,4,4,-9,87,297,209,200,-19,-112
-4,-9,-4,7,0,-7,87,297,204,200,-24,-112
-9,-14,-4,12,-2,-9,87,302,204,200,-39,-117
-4,-9,-4,7,0,-7,92,307,209,209,-43,-117
0,-4,-4,2,2,-4,92,312,214,214,-43,-117
4,4,0,-4,2,2,92,317,219,214,-43,-117
9,24,14,-17,-2,19,92,322,219,219,-43,-117
9,14,4,-12,2,9,92,326,224,209,-48,-112
14,14,0,-14,7,7,97,326,229,204,-53,-112
14,14,0,-14,7,7,97,331,234,200,-58,-112
0,4,4,-2,-2,4,97,336,239,200,-68,-117
9,14,4,-12,2,9,107,351,244,200,-73,-122
9,19,9,-14,0,14,107,351,244,195,-82,-122
9,24,14,-17,-2,19,107,351,248,195,-82,-117
9,34,24,-21,-7,29,107,351,253,190,-87,-117
9,29,19,-19,-4,24,97,341,239,180,-102,-122
14,24,9,-19,2,17,97,341,239,180,-102,-126
14,14,0,-14,7,7,97,341,234,180,-107,-136
9,4,-4,-7,7,0,97,341,224,170,-117,-146
9,9,0,-9,4,4,87,336,234,161,-131,-146
9,14,4,-12,2,9,87,336,229,161,-136,-141
9,24,14,-17,-2,19,87,336,229,151,-136,-136
14,39,24,-26,-4,31,82,336,229,151,-136,-136
14,39,24,-26,-4,31,87,336,239,151,-141,-126
19,29,9,-24,4,19,87,336,234,146,-141,-122
24,29,4,-26,9,17,82,331,234,141,-146,-122
24,29,4,-26,9,17,78,326,224,141,-146,-117
24,34,9,-29,7,21,73,322,224,136,-141,-102
29,39,9,-34,9,24,73,322,229,131,-136,-97
39,39,0,-39,19,19,68,312,229,131,-136,-92
39,39,0,-39,19,19,63,307,214,126,-136,-87
48,53,4,-51,21,29,63,292,200,122,-141,-97
48,58,9,-53,19,34,58,287,195,117,-141,-92
58,58,0,-58,29,29,53,273,190,117,-136,-87
58,58,0,-58,29,29,48,263,185,117,-136,-78
48,58,9,-53,19,34,43,263,175,102,-122,-68
48,58,9,-53,19,34,43,258,175,102,-112,-63
58,63,4,-61,26,34,39,248,170,102,-112,-58
63,63,0,-63,31,31,29,239,161,92,-112,-53
73,68,-4,-70,39,31,29,219,161,97,-117,-43
73,68,-4,-70,39,31,24,204,151,97,-107,-39
73,68,-4,-70,39,31,19,200,146,97,-97,-34
73,68,-4,-70,39,31,14,185,131,97,-87,-29
68,63,-4,-65,36,29,14,161,131,92,-78,-24
63,63,0,-63,31,31,9,156,117,87,-63,-24
58,63,4,-61,26,34,4,146,112,87,-58,-19
53,63,9,-58,21,36,4,131,107,82,-48,-14
63,73,9,-68,26,41,0,126,112,82,-43,0
63,73,9,-68,26,41,0,122,97,82,-39,0
63,73,9,-68,26,41,-4,107,87,73,-29,4
63,73,9,-68,26,41,-9,92,82,73,-24,9
53,58,4,-56,24,31,-9,73,73,68,-34,0
53,53,0,-53,26,26,-9,63,63,68,-24,4
48,48,0,-48,24,24,-9,58,63,63,-19,4
43,39,-4,-41,24,17,-9,53,58,58,-14,4
48,43,-4,-46,26,19,0,48,53,68,0,14
53,48,-4,-51,29,21,0,43,53,63,0,14
48,43,-4,-46,26,19,-4,34,48,63,4,14
53,43,-9,-48,31,17,-4,24,48,58,9,14
43,39,-4,-41,24,17,-4,19,34,48,9,4
43,24,-19,-34,31,2,-4,9,19,43,9,4
43,14,-29,-29,36,-7,-4,9,14,39,9,4
43,9,-34,-26,39,-12,-4,0,4,39,14,4
39,24,-14,-31,26,4,-4,4,9,39,19,14
43,24,-19,-34,31,2,0,4,9,39,19,14
48,29,-19,-39,34,4,0,4,14,34,19,14
58,34,-24,-46,41,4,0,-4,14,34,24,14
43,14,-29,-29,36,-7,-9,-9,4,19,14,4
29,9,-19,-19,24,-4,-9,-14,0,19,14,4
14,0,-14,-7,14,-7,-9,-24,-4,19,19,4
9,-4,-14,-2,12,-9,-9,-34,-19,19,19,4
19,9,-9,-14,14,0,0,-24,-14,24,24,14
24,14,-9,-19,17,2,4,-24,-4,29,34,14
29,19,-9,-24,19,4,4,-24,0,34,39,14
29,9,-19,-19,24,-4,4,-29,0,34,43,9
24,4,-19,-14,21,-7,-4,-29,-4,29,34,9
19,-4,-24,-7,21,-14,-4,-29,-9,24,34,9
14,-9,-24,-2,19,-17,-4,-34,-14,19,34,9
9,-14,-24,2,17,-19,-4,-34,-19,14,29,4
24,-9,-34,-7,29,-21,4,-29,-9,29,39,14
29,-4,-34,-12,31,-19,4,-29,-9,29,39,14
34,0,-34,-17,34,-17,9,-34,-9,24,43,14
29,4,-24,-17,26,-9,9,-34,-9,24,43,14
24,0,-24,-12,24,-12,0,-34,-19,14,39,9
24,-14,-39,-4,31,-26,0,-34,-19,14,34,4
19,-19,-39,0,29,-29,0,-34,-19,14,29,0
14,-24,-39,4,26,-31,0,-29,-19,14,24,-4
24,-9,-34,-7,29,-21,9,-19,-9,19,34,4
24,-9,-34,-7,29,-21,9,-19,-9,24,34,4
24,-4,-29,-9,26,-17,9,-19,-9,29,34,4
24,-4,-29,-9,26,-17,14,-19,-9,34,34,0
14,-14,-29,0,21,-21,4,-24,-19,29,24,-9
9,-24,-34,7,21,-29,4,-29,-19,24,24,-9
4,-24,-29,9,17,-26,4,-34,-19,19,24,-9
0,-24,-24,12,12,-24,4,-39,-14,14,24,-14
9,-19,-29,4,19,-24,9,-34,-4,19,34,-4
9,-14,-24,2,17,-19,14,-29,-4,24,34,-4
19,-9,-29,-4,24,-19,19,-24,-4,29,34,-4
19,-4,-24,-7,21,-14,24,-19,-4,34,34,-4
14,-9,-24,-2,19,-17,19,-29,-4,34,24,-4
9,-19,-29,4,19,-24,14,-29,-4,29,24,-9
0,-24,-24,12,12,-24,14,-29,-4,24,19,-9
-9,-29,-19,19,4,-24,14,-24,-4,19,19,-9
-9,-24,-14,17,2,-19,24,-14,0,29,34,-9
-4,-24,-19,14,7,-21,19,-14,0,29,34,-9
0,-19,-19,9,9,-19,19,-14,0,29,34,-9
4,-9,-14,2,9,-12,19,-14,4,29,34,-9
4,-14,-19,4,12,-17,14,-24,-4,24,29,-19
4,-19,-24,7,14,-21,14,-24,-4,24,24,-19
4,-24,-29,9,17,-26,14,-24,-4,24,14,-24
4,-34,-39,14,21,-36,14,-24,-4,24,9,-24
4,-29,-34,12,19,-31,24,-14,9,34,14,-14
4,-24,-29,9,17,-26,24,-14,9,34,14,-14
4,-19,-24,7,14,-21,24,-14,14,34,19,-19
0,-9,-9,4,4,-9,29,-9,19,34,19,-19
-4,-14,-9,9,2,-12,19,-19,14,24,19,-19
-9,-24,-14,17,2,-19,19,-24,9,24,19,-24
-4,-29,-24,17,9,-26,19,-24,4,24,19,-24
-19,-39,-19,29,0,-29,19,-24,0,24,19,-24
-14,-29,-14,21,0,-21,19,-24,0,24,9,-24
-9,-29,-19,19,4,-24,19,-24,0,24,9,-19
-4,-29,-24,17,9,-26,19,-24,0,24,9,-19
0,-29,-29,14,14,-29,19,-24,4,24,0,-19
0,-29,-29,14,14,-29,19,-34,14,19,9,-24
0,-29,-29,14,14,-29,19,-34,4,19,9,-24
-4,-29,-24,17,9,-26,19,-34,4,14,9,-24
-4,-29,-24,17,9,-26,19,-34,4,14,9,-24
-9,-19,-9,14,0,-14,29,-29,0,9,9,-24
-9,-19,-9,14,0,-14,29,-29,0,9,9,-24
-9,-19,-9,14,0,-14,29,-29,0,9,9,-24
-9,-19,-9,14,0,-14,29,-29,0,9,9,-24
-19,-34,-14,26,-2,-24,19,-39,-9,4,9,-24
-19,-34,-14,26,-2,-24,19,-39,-9,4,4,-24
-19,-34,-14,26,-2,-24,19,-39,-14,0,4,-29
-19,-34,-14,26,-2,-24,19,-39,-19,0,0,-29
-24,-39,-14,31,-4,-26,29,-39,-14,0,4,-29
-24,-39,-14,31,-4,-26,29,-39,-14,0,4,-29
-24,-39,-14,31,-4,-26,29,-39,-9,-9,4,-29
-24,-39,-14,31,-4,-26,29,-39,-9,-9,4,-29
-19,-34,-14,26,-2,-24,29,-39,-9,0,4,-29
-14,-34,-19,24,2,-26,29,-39,-9,-4,4,-29
-9,-39,-29,24,9,-34,29,-39,-19,-4,4,-29
-4,-39,-34,21,14,-36,29,-39,-24,-9,0,-29
-19,-48,-29,34,4,-39,29,-53,-24,-9,0,-34
-24,-48,-24,36,0,-36,29,-53,-24,-9,4,-34
-24,-48,-24,36,0,-36,29,-48,-24,-9,4,-34
-29,-48,-19,39,-4,-34,29,-48,-24,-19,-4,-34
-24,-43,-19,34,-2,-31,29,-48,-14,-19,-4,-34
-14,-39,-24,26,4,-31,29,-53,-19,-19,-4,-34
-9,-34,-24,21,7,-29,29,-53,-19,-19,-4,-34
-9,-29,-19,19,4,-24,29,-53,-19,-19,-4,-34
-19,-39,-19,29,0,-29,19,-53,-29,-34,-14,-39
-19,-43,-24,31,2,-34,19,-53,-29,-34,-14,-39
-19,-43,-24,31,2,-34,19,-53,-29,-39,-14,-39
-19,-48,-29,34,4,-39,19,-53,-29,-39,-14,-34
-14,-39,-24,26,4,-31,29,-53,-34,-34,-4,-34
-14,-34,-19,24,2,-26,29,-53,-29,-34,-9,-34
-9,-34,-24,21,7,-29,29,-58,-29,-34,-9,-34
-4,-43,-39,24,17,-41,29,-58,-24,-39,-14,-34
-9,-53,-43,31,17,-48,19,-68,-34,-39,-19,-34
-24,-58,-34,41,4,-46,19,-73,-34,-39,-24,-39
-29,-58,-29,43,0,-43,19,-73,-34,-39,-34,-39
-34,-53,-19,43,-7,-36,19,-73,-34,-43,-39,-39
-19,-48,-29,34,4,-39,29,-68,-34,-34,-29,-34
-14,-43,-29,29,7,-36,29,-68,-34,-34,-29,-34
-9,-39,-29,24,9,-34,29,-73,-34,-34,-29,-34
-4,-34,-29,19,12,-31,29,-73,-34,-34,-29,-34
-19,-43,-24,31,2,-34,19,-78,-39,-39,-43,-43
-24,-53,-29,39,2,-41,19,-78,-39,-48,-43,-43
-29,-58,-29,43,0,-43,19,-78,-39,-53,-43,-43
-34,-58,-24,46,-4,-41,19,-78,-39,-58,-43,-43
-29,-48,-19,39,-4,-34,29,-68,-29,-48,-34,-34
-24,-48,-24,36,0,-36,29,-68,-34,-48,-34,-34
-19,-48,-29,34,4,-39,29,-68,-34,-48,-39,-34
-14,-48,-34,31,9,-41,29,-68,-34,-48,-39,-34
-24,-53,-29,39,2,-41,19,-73,-34,-68,-39,-39
-24,-58,-34,41,4,-46,19,-73,-34,-68,-39,-39
-24,-63,-39,43,7,-51,19,-73,-39,-63,-39,-39
-24,-68,-43,46,9,-56,19,-73,-39,-63,-34,-39
-14,-63,-48,39,17,-56,29,-73,-29,-58,-34,-39
-14,-58,-43,36,14,-51,29,-73,-29,-58,-34,-39
-14,-53,-39,34,12,-46,29,-73,-24,-58,-34,-39
-14,-48,-34,31,9,-41,29,-73,-19,-58,-39,-39
-24,-53,-29,39,2,-41,19,-73,-29,-58,-43,-39
-29,-68,-39,48,4,-53,19,-73,-39,-58,-43,-43
-43,-73,-29,58,-7,-51,19,-78,-43,-63,-43,-48
-48,-78,-29,63,-9,-53,19,-78,-43,-63,-43,-48
-39,-58,-19,48,-9,-39,29,-68,-39,-63,-43,-34
-29,-53,-24,41,-2,-39,29,-68,-34,-63,-43,-34
-14,-48,-34,31,9,-41,29,-68,-29,-63,-43,-39
-4,-43,-39,24,17,-41,29,-68,-24,-63,-43,-39
-9,-58,-48,34,19,-53,19,-73,-24,-73,-43,-48
-14,-63,-48,39,17,-56,19,-78,-29,-73,-43,-48
-19,-68,-48,43,14,-58,19,-82,-34,-73,-48,-48
-24,-78,-53,51,14,-65,19,-92,-43,-73,-48,-48
-24,-73,-48,48,12,-61,29,-82,-39,-63,-39,-39
-24,-63,-39,43,7,-51,29,-82,-34,-63,-34,-39
-24,-58,-34,41,4,-46,29,-82,-29,-63,-34,-39
-24,-48,-24,36,0,-36,29,-82,-24,-63,-34,-39
-24,-58,-34,41,4,-46,19,-92,-29,-78,-39,-48
-19,-58,-39,39,9,-48,19,-92,-34,-78,-43,-48
-19,-63,-43,41,12,-53,19,-92,-39,-78,-48,-48
-24,-68,-43,46,9,-56,19,-92,-43,-78,-58,-48
-24,-63,-39,43,7,-51,29,-82,-39,-68,-53,-39
-24,-58,-34,41,4,-46,29,-82,-39,-68,-48,-39
-19,-53,-34,36,7,-43,24,-82,-34,-68,-43,-39
-9,-48,-39,29,14,-43,24,-82,-29,-68,-39,-39
-14,-58,-43,36,14,-51,24,-82,-39,-68,-48,-48
-19,-58,-39,39,9,-48,24,-82,-39,-73,-53,-48
-24,-58,-34,41,4,-46,24,-82,-43,-73,-53,-48
-34,-63,-29,48,-2,-46,24,-87,-43,-73,-53,-48
-29,-53,-24,41,-2,-39,24,-87,-34,-73,-43,-39
-29,-48,-19,39,-4,-34,29,-82,-29,-73,-43,-39
-24,-48,-24,36,0,-36,29,-82,-29,-73,-39,-39
-24,-43,-19,34,-2,-31,29,-82,-29,-68,-39,-34
-34,-48,-14,41,-9,-31,19,-82,-34,-78,-48,-43
-34,-58,-24,46,-4,-41,19,-82,-34,-78,-48,-43
-34,-63,-29,48,-2,-46,19,-87,-34,-78,-53,-53
-34,-73,-39,53,2,-56,19,-87,-39,-87,-53,-53
-24,-63,-39,43,7,-51,29,-87,-39,-78,-43,-43
-24,-63,-39,43,7,-51,29,-87,-39,-78,-43,-39
-24,-63,-39,43,7,-51,29,-87,-43,-78,-43,-39
-24,-58,-34,41,4,-46,29,-82,-43,-73,-39,-39
-29,-68,-39,48,4,-53,19,-92,-34,-82,-48,-48
-34,-68,-34,51,0,-51,19,-97,-34,-82,-48,-48
-39,-68,-29,53,-4,-48,19,-97,-29,-82,-48,-48
-43,-68,-24,56,-9,-46,19,-92,-29,-82,-48,-48
-43,-68,-24,56,-9,-46,19,-92,-29,-82,-48,-39
-39,-63,-24,51,-7,-43,19,-92,-29,-82,-48,-39
-34,-53,-19,43,-7,-36,19,-92,-29,-82,-48,-39
-29,-48,-19,39,-4,-34,19,-92,-29,-82,-48,-39
-19,-58,-39,39,9,-48,19,-82,-39,-82,-53,-48
-19,-58,-39,39,9,-48,19,-82,-39,-82,-53,-48
-19,-58,-39,39,9,-48,19,-82,-39,-82,-53,-48
-19,-58,-39,39,9,-48,14,-87,-39,-82,-53,-53
-24,-68,-43,46,9,-56,14,-87,-29,-82,-53,-53
-34,-68,-34,51,0,-51,19,-87,-29,-87,-58,-53
-43,-73,-29,58,-7,-51,19,-87,-29,-87,-58,-53
-48,-73,-24,61,-12,-48,19,-87,-29,-87,-53,-53
-9,-24,-14,17,2,-19,29,-73,-9,-68,-43,-43
-19,-29,-9,24,-4,-19,29,-82,-19,-63,-43,-34
-24,-48,-24,36,0,-36,19,-92,-34,-73,-48,-43
-29,-68,-39,48,4,-53,19,-87,-39,-78,-58,-48
-29,-58,-29,43,0,-43,19,-87,-29,-78,-48,-48
-29,-58,-29,43,0,-43,19,-87,-29,-78,-48,-48
-29,-58,-29,43,0,-43,19,-87,-29,-78,-48,-48
-29,-58,-29,43,0,-43,19,-87,-29,-78,-48,-48
-19,-53,-34,36,7,-43,19,-87,-19,-68,-39,-39
-19,-48,-29,34,4,-39,19,-87,-19,-68,-39,-39
-19,-43,-24,31,2,-34,19,-87,-19,-68,-39,-39
-19,-39,-19,29,0,-29,19,-87,-19,-68,-39,-39
-19,-29,-9,24,-4,-19,9,-78,-9,-58,-39,-39
-19,-29,-9,24,-4,-19,9,-78,-9,-58,-39,-39
-19,-29,-9,24,-4,-19,9,-78,-9,-58,-39,-39
-19,-29,-9,24,-4,-19,9,-78,-9,-58,-39,-39
-4,-14,-9,9,2,-12,19,-68,-4,-48,-29,-34
0,0,0,0,0,0,19,-68,4,-43,-24,-24
4,9,4,-7,0,7,19,-68,19,-39,-24,-19
14,19,4,-17,4,12,19,-63,29,-39,-19,-14
9,14,4,-12,2,9,9,-73,24,-48,-14,-19
4,9,4,-7,0,7,4,-78,24,-43,-14,-19
-4,4,9,0,-7,7,4,-78,24,-39,-14,-19
-9,0,9,4,-9,4,4,-73,24,-39,-14,-19
4,9,4,-7,0,7,14,-63,34,-29,-9,-14
9,24,14,-17,-2,19,19,-53,39,-19,0,-9
14,29,14,-21,0,21,19,-48,43,-14,4,-9
19,34,14,-26,2,24,19,-48,53,-9,4,-9
19,34,14,-26,2,24,4,-48,53,-19,4,-4
19,29,9,-24,4,19,0,-43,53,-14,9,-4
19,24,4,-21,7,14,0,-43,58,-9,14,-4
19,19,0,-19,9,9,-9,-39,58,-4,14,-4
29,24,-4,-26,17,9,-14,-34,53,4,14,9
43,34,-9,-39,26,12,-19,-34,48,4,19,9
53,43,-9,-48,31,17,-29,-39,48,4,19,14
53,48,-4,-51,29,21,-39,-43,43,4,19,19
48,43,-4,-46,26,19,-53,-53,29,-9,9,9
43,39,-4,-41,24,17,-58,-68,14,-9,9,9
39,34,-4,-36,21,14,-58,-73,4,-14,4,9
34,29,-4,-31,19,12,-58,-82,-9,-29,4,9
39,34,-4,-36,21,14,-58,-78,-9,-24,4,9
43,39,-4,-41,24,17,-58,-92,-14,-34,4,9
48,48,0,-48,24,24,-58,-97,-19,-39,4,9
53,53,0,-53,26,26,-58,-97,-19,-39,4,14
58,48,-9,-53,34,19,-68,-97,-19,-43,0,19
68,53,-14,-61,41,19,-73,-97,-24,-39,0,24
63,58,-4,-61,34,26,-78,-97,-29,-39,4,29
63,58,-4,-61,34,26,-82,-97,-34,-48,4,34
73,58,-14,-65,43,21,-73,-92,-39,-48,4,34
73,53,-19,-63,46,17,-68,-92,-39,-48,4,34
73,53,-19,-63,46,17,-58,-87,-43,-48,0,29
73,43,-29,-58,51,7,-58,-87,-58,-58,-4,24
63,24,-39,-43,51,-7,-68,-92,-68,-73,-9,14
63,9,-53,-36,58,-21,-68,-97,-68,-78,-9,14
63,-4,-68,-29,65,-36,-68,-102,-78,-82,-19,9
63,-24,-87,-19,75,-56,-68,-107,-78,-82,-19,4
73,-9,-82,-31,78,-46,-53,-107,-68,-78,-19,14
68,-4,-73,-31,70,-39,-53,-112,-68,-78,-19,9
58,0,-58,-29,58,-29,-48,-112,-63,-78,-24,9
48,9,-39,-29,43,-14,-39,-107,-58,-73,-24,9
24,-4,-29,-9,26,-17,-39,-97,-58,-73,-24,0
4,-9,-14,2,9,-12,-19,-92,-43,-73,-29,-9
-4,-29,-24,17,9,-26,-19,-92,-43,-73,-29,-14
-24,-39,-14,31,-4,-26,-9,-87,-34,-68,-24,-19
-24,-34,-9,29,-7,-21,9,-78,-19,-63,-24,-19
-14,-34,-19,24,2,-26,14,-78,-19,-63,-24,-24
-14,-34,-19,24,2,-26,14,-78,-19,-68,-29,-29
-4,-29,-24,17,9,-26,19,-78,-19,-68,-34,-34
-9,-39,-29,24,9,-34,9,-82,-29,-82,-53,-34
-14,-53,-39,34,12,-46,19,-92,-29,-92,-58,-43
-29,-73,-43,51,7,-58,19,-97,-34,-97,-63,-48
-43,-87,-43,65,0,-65,19,-107,-34,-102,-68,-48
-34,-87,-53,61,9,-70,29,-97,-34,-97,-58,-43
-34,-82,-48,58,7,-65,29,-102,-34,-97,-63,-48
-39,-78,-39,58,0,-58,34,-102,-39,-102,-73,-53
-39,-73,-34,56,-2,-53,34,-102,-39,-102,-73,-58
-48,-78,-29,63,-9,-53,24,-102,-43,-102,-73,-58
-48,-78,-29,63,-9,-53,29,-102,-43,-102,-73,-58
-48,-78,-29,63,-9,-53,29,-102,-43,-107,-73,-58
-48,-78,-29,63,-9,-53,29,-102,-43,-107,-73,-58
-43,-87,-43,65,0,-65,29,-102,-43,-102,-73,-63
-43,-87,-43,65,0,-65,29,-97,-39,-102,-78,-63
-43,-82,-39,63,-2,-61,29,-97,-39,-102,-78,-63
-39,-82,-43,61,2,-63,29,-97,-39,-102,-78,-63
-48,-92,-43,70,-2,-68,29,-97,-39,-102,-87,-68
-48,-92,-43,70,-2,-68,29,-97,-39,-102,-87,-68
-48,-92,-43,70,-2,-68,29,-97,-39,-102,-87,-68
-48,-92,-43,70,-2,-68,29,-97,-39,-102,-87,-68
-43,-92,-48,68,2,-70,29,-97,-39,-102,-87,-73
-39,-87,-48,63,4,-68,29,-97,-39,-102,-82,-73
-34,-87,-53,61,9,-70,29,-97,-39,-102,-82,-73
-29,-92,-63,61,17,-78,29,-97,-39,-102,-82,-73
-29,-73,-43,51,7,-58,39,-97,-29,-102,-73,-63
-39,-82,-43,61,2,-63,39,-97,-29,-102,-78,-73
-39,-92,-53,65,7,-73,39,-87,-39,-107,-78,-73
-39,-107,-68,73,14,-87,34,-92,-39,-117,-97,-82
-58,-126,-68,92,4,-97,43,-87,-39,-122,-112,-92
-82,-136,-53,109,-14,-95,53,-78,-39,-122,-122,-107
-63,-131,-68,97,2,-100,68,-48,-29,-117,-131,-112
-43,-126,-82,85,19,-104,78,-34,-19,-107,-126,-117
-29,-126,-97,78,34,-112,68,-19,-9,-87,-117,-117
-19,-126,-107,73,43,-117,63,-14,-4,-53,-97,-112
-19,-117,-97,68,39,-107,34,-24,4,-24,-63,-97
-14,-122,-107,68,46,-114,0,-34,-4,14,-9,-68
14,-92,-107,39,61,-100,-24,-19,0,73,63,-29
63,-39,-102,-12,82,-70,-43,-4,29,146,151,29
122,24,-97,-73,109,-36,-58,14,78,229,248,92
161,102,-58,-131,109,21,-73,14,122,317,366,165
190,175,-14,-183,102,80,-97,0,146,395,492,268
248,253,4,-251,122,129,-136,-29,146,453,619,366
307,302,-4,-305,156,148,-175,-48,117,502,746,463
370,356,-14,-363,192,170,-244,-73,63,541,907,590
463,458,-4,-461,234,226,-331,-117,-4,585,1098,751
561,585,24,-573,268,305,-424,-175,-53,644,1283,927
673,707,34,-690,319,370,-531,-248,-126,688,1464,1093
785,854,68,-819,358,461,-639,-331,-229,717,1644,1268
863,1015,151,-939,356,583,-756,-473,-336,736,1830,1449
902,1156,253,-1029,324,705,-849,-668,-453,702,1947,1590
858,1200,341,-1029,258,771,-897,-893,-605,575,1917,1634
790,1141,351,-966,219,746,-922,-1112,-834,322,1737,1605
692,1044,351,-868,170,697,-922,-1307,-1078,0,1449,1517
575,873,297,-724,139,585,-878,-1454,-1259,-380,1024,1342
448,658,209,-553,119,434,-780,-1507,-1371,-751,512,1102
366,473,107,-419,129,290,-673,-1503,-1420,-1034,63,888
317,380,63,-348,126,222,-585,-1493,-1420,-1234,-239,741
268,317,48,-292,109,183,-517,-1468,-1390,-1376,-439,644
209,229,19,-219,95,124,-458,-1390,-1332,-1415,-551,541
175,161,-14,-168,95,73,-395,-1234,-1234,-1337,-566,458
131,112,-19,-122,75,46,-331,-1063,-1088,-1166,-522,385
48,63,14,-56,17,39,-258,-917,-922,-1005,-488,278
-43,4,48,19,-46,26,-195,-790,-771,-858,-458,175
-73,-4,68,39,-70,31,-151,-663,-624,-717,-414,107
-53,9,63,21,-58,36,-107,-541,-492,-575,-351,68
-43,9,53,17,-48,31,-73,-419,-370,-448,-278,48
-43,-4,39,24,-41,17,-43,-322,-268,-341,-219,19
-48,-24,24,36,-36,0,-14,-244,-195,-253,-165,-9
-48,-29,19,39,-34,-4,-4,-180,-126,-180,-117,-19
-29,-24,4,26,-17,-9,4,-131,-92,-131,-87,-19
-9,-24,-14,17,2,-19,9,-92,-58,-92,-73,-14
-29,-29,0,29,-14,-14,34,-73,-39,-78,-58,-24
-34,-39,-4,36,-14,-21,53,-63,-24,-68,-58,-34
-29,-34,-4,31,-12,-19,58,-48,-14,-58,-68,-43
-24,-34,-9,29,-7,-21,58,-39,-9,-58,-63,-48
-39,-53,-14,46,-12,-34,53,-43,-9,-73,-73,-58
-43,-63,-19,53,-12,-41,53,-43,-9,-73,-78,-68
-53,-68,-14,61,-19,-41,58,-39,-9,-68,-82,-73
-63,-78,-14,70,-24,-46,58,-34,-9,-68,-92,-82
-53,-78,-24,65,-14,-51,58,-24,0,-53,-87,-78
-53,-78,-24,65,-14,-51,63,-24,0,-53,-92,-78
-53,-78,-24,65,-14,-51,63,-24,0,-53,-92,-82
-53,-78,-24,65,-14,-51,68,-14,9,-43,-92,-82
-63,-82,-19,73,-21,-51,73,-19,14,-53,-82,-78
-63,-82,-19,73,-21,-51,73,-19,14,-53,-82,-78
-63,-82,-19,73,-21,-51,73,-19,14,-48,-87,-82
-63,-92,-29,78,-17,-61,73,-19,14,-48,-87,-82
-53,-82,-29,68,-12,-56,68,-19,19,-48,-78,-92
-58,-82,-24,70,-17,-53,68,-9,19,-48,-78,-92
-58,-82,-24,70,-17,-53,68,-4,19,-48,-78,-97
-53,-82,-29,68,-12,-56,68,0,24,-39,-78,-97
-53,-82,-29,68,-12,-56,73,0,29,-39,-78,-82
-53,-82,-29,68,-12,-56,73,0,29,-39,-78,-82
-58,-82,-24,70,-17,-53,73,0,29,-39,-78,-87
-58,-82,-24,70,-17,-53,73,0,29,-39,-78,-87
-53,-82,-29,68,-12,-56,82,4,34,-39,-78,-87
-53,-82,-29,68,-12,-56,82,4,34,-39,-78,-87
-53,-82,-29,68,-12,-56,82,4,34,-29,-78,-87
-53,-82,-29,68,-12,-56,82,4,43,-29,-78,-87
-53,-82,-29,68,-12,-56,73,4,34,-29,-87,-97
-53,-82,-29,68,-12,-56,73,14,34,-29,-87,-97
-53,-82,-29,68,-12,-56,73,14,39,-29,-87,-97
-53,-82,-29,68,-12,-56,73,14,43,-29,-87,-97
-53,-82,-29,68,-12,-56,73,9,43,-29,-78,-97
-53,-82,-29,68,-12,-56,73,9,43,-29,-78,-97
-53,-82,-29,68,-12,-56,73,19,43,-24,-78,-97
-53,-78,-24,65,-14,-51,73,19,43,-24,-78,-97
-43,-78,-34,61,-4,-56,73,24,48,-19,-87,-97
-48,-82,-34,65,-7,-58,73,24,48,-14,-87,-97
-48,-82,-34,65,-7,-58,73,24,48,-14,-82,-97
-48,-78,-29,63,-9,-53,73,19,53,-14,-82,-102
-58,-78,-19,68,-19,-48,73,19,53,-24,-92,-107
-58,-87,-29,73,-14,-58,73,24,53,-19,-92,-107
-58,-87,-29,73,-14,-58,73,29,53,-19,-92,-107
-58,-82,-24,70,-17,-53,73,29,63,-19,-92,-107
-48,-73,-24,61,-12,-48,82,34,78,-4,-87,-102
-48,-68,-19,58,-14,-43,82,34,78,0,-82,-97
-48,-63,-14,56,-17,-39,82,34,78,0,-78,-97
-39,-58,-19,48,-9,-39,87,34,78,0,-73,-102
-58,-73,-14,65,-21,-43,78,34,73,-9,-82,-112
-58,-82,-24,70,-17,-53,78,43,73,-9,-82,-112
-58,-87,-29,73,-14,-58,78,43,82,-4,-82,-112
-58,-97,-39,78,-9,-68,78,43,87,0,-82,-117
-53,-92,-39,73,-7,-65,78,53,87,9,-82,-112
-43,-87,-43,65,0,-65,78,53,87,9,-82,-107
-29,-73,-43,51,7,-58,78,53,87,14,-82,-107
-34,-68,-34,51,0,-51,78,58,92,14,-82,-102
-48,-68,-19,58,-14,-43,78,48,97,9,-82,-102
-53,-73,-19,63,-17,-46,78,53,102,9,-82,-102
-68,-73,-4,70,-31,-39,78,53,102,19,-82,-102
-73,-73,0,73,-36,-36,78,53,102,19,-78,-102
-63,-63,0,63,-31,-31,78,68,112,29,-68,-102
-48,-58,-9,53,-19,-34,78,78,117,39,-68,-102
-39,-53,-14,46,-12,-34,78,78,126,39,-68,-97
-34,-53,-19,43,-7,-36,78,82,126,43,-63,-97
-48,-68,-19,58,-14,-43,78,73,122,34,-73,-107
-48,-68,-19,58,-14,-43,78,78,126,34,-73,-107
-48,-68,-19,58,-14,-43,78,82,131,43,-73,-107
-48,-68,-19,58,-14,-43,78,82,136,43,-73,-107
-43,-63,-19,53,-12,-41,78,97,141,58,-63,-97
-34,-53,-19,43,-7,-36,78,102,141,63,-63,-97
-29,-43,-14,36,-7,-29,78,107,141,68,-63,-97
-24,-39,-14,31,-4,-26,78,112,146,68,-63,-102
-29,-48,-19,39,-4,-34,68,117,146,73,-73,-102
-34,-53,-19,43,-7,-36,68,117,146,73,-68,-107
-39,-58,-19,48,-9,-39,68,122,156,78,-63,-107
-53,-58,-4,56,-24,-31,68,126,156,82,-63,-107
-39,-43,-4,41,-17,-24,78,141,175,102,-53,-97
-34,-39,-4,36,-14,-21,78,151,175,102,-53,-97
-29,-29,0,29,-14,-14,82,156,185,112,-48,-92
-19,-14,4,17,-12,-4,82,165,190,117,-48,-92
-29,-24,4,26,-17,-9,68,165,180,117,-58,-102
-34,-39,-4,36,-14,-21,68,165,180,117,-58,-102
-34,-48,-14,41,-9,-31,68,161,180,112,-58,-102
-34,-58,-24,46,-4,-41,68,165,185,117,-58,-102
-19,-34,-14,26,-2,-24,78,185,200,131,-53,-102
-19,-29,-9,24,-4,-19,78,195,209,136,-48,-102
-14,-14,0,14,-7,-7,82,200,209,141,-43,-102
-4,-9,-4,7,0,-7,82,209,214,146,-39,-102
-14,-14,0,14,-7,-7,73,209,224,151,-43,-102
-19,-14,4,17,-12,-4,73,214,224,151,-43,-102
-24,-19,4,21,-14,-7,73,214,229,156,-43,-102
-29,-24,4,26,-17,-9,73,224,239,165,-43,-102
-24,-14,9,19,-17,-2,82,244,248,185,-43,-102
-19,-4,14,12,-17,4,87,253,248,185,-43,-102
-4,0,4,2,-4,2,87,263,248,190,-48,-102
0,4,4,-2,-2,4,87,268,253,190,-48,-102
-4,0,4,2,-4,2,87,268,248,185,-58,-112
-9,0,9,4,-9,4,87,278,258,190,-58,-112
-14,0,14,7,-14,7,87,278,258,190,-58,-112
-19,-4,14,12,-17,4,87,283,263,190,-68,-117
0,4,4,-2,-2,4,82,297,268,190,-73,-117
9,4,-4,-7,7,0,82,302,273,195,-73,-117
19,9,-9,-14,14,0,82,307,278,195,-73,-117
29,24,-4,-26,17,9,82,312,278,200,-73,-117
24,14,-9,-19,17,2,82,307,273,200,-78,-112
14,14,0,-14,7,7,87,307,278,195,-82,-112
0,14,14,-7,-7,14,87,312,283,190,-87,-112
-29,4,34,12,-31,19,87,317,287,190,-97,-117
-14,9,24,2,-19,17,87,331,297,190,-92,-122
-9,19,29,-4,-19,24,87,331,292,185,-102,-122
-4,29,34,-12,-19,31,87,331,292,185,-102,-117
0,43,43,-21,-21,43,87,331,292,180,-107,-117
9,34,24,-21,-7,29,87,322,283,161,-117,-117
14,34,19,-24,-2,26,87,322,287,161,-122,-117
14,29,14,-21,0,21,87,322,287,161,-131,-122
9,24,14,-17,-2,19,87,322,283,151,-146,-126
0,24,24,-12,-12,24,87,326,292,141,-156,-126
0,24,24,-12,-12,24,87,326,287,141,-156,-122
0,29,29,-14,-14,29,87,326,287,131,-151,-117
4,39,34,-21,-14,36,82,326,287,131,-146,-117
19,53,34,-36,-7,43,78,317,278,131,-151,-107
29,48,19,-39,4,34,78,317,273,126,-151,-102
39,53,14,-46,12,34,73,312,273,122,-156,-102
43,58,14,-51,14,36,68,307,263,122,-156,-97
39,53,14,-46,12,34,63,302,273,126,-151,-92
39,58,19,-48,9,39,63,302,278,122,-146,-87
43,58,14,-51,14,36,58,292,278,122,-146,-82
39,58,19,-48,9,39,53,287,263,117,-146,-78
48,63,14,-56,17,39,53,283,248,112,-141,-78
48,68,19,-58,14,43,48,278,244,107,-141,-73
58,68,9,-63,24,39,43,263,239,107,-136,-68
58,68,9,-63,24,39,39,253,234,107,-136,-58
58,78,19,-68,19,48,34,244,234,92,-122,-48
58,78,19,-68,19,48,34,239,234,92,-112,-43
68,82,14,-75,26,48,29,229,229,92,-112,-39
73,82,9,-78,31,46,19,219,219,82,-112,-34
73,78,4,-75,34,41,19,209,200,78,-107,-34
73,78,4,-75,34,41,14,195,190,78,-97,-29
73,78,4,-75,34,41,9,190,185,78,-87,-24
73,78,4,-75,34,41,4,175,170,78,-78,-19
63,73,9,-68,26,41,4,161,180,82,-78,-14
63,73,9,-68,26,41,0,156,165,78,-63,-14
63,73,9,-68,26,41,-4,146,161,78,-58,-9
63,73,9,-68,26,41,-4,131,156,73,-48,-4
78,82,4,-80,36,43,0,117,151,73,-43,0
82,82,0,-82,41,41,0,112,136,73,-39,0
87,82,-4,-85,46,39,-4,97,126,63,-29,4
92,82,-9,-87,51,36,-9,82,122,63,-24,9
82,68,-14,-75,48,26,-19,73,112,58,-34,0
73,63,-9,-68,41,26,-19,63,102,58,-24,4
58,58,0,-58,29,29,-19,58,102,53,-19,4
43,48,4,-46,19,26,-19,53,97,48,-14,4
58,63,4,-61,26,34,-9,48,92,48,0,9
63,68,4,-65,29,36,-9,43,92,43,0,14
58,63,4,-61,26,34,-14,34,87,43,4,19
63,63,0,-63,31,31,-14,24,87,39,9,24
58,58,0,-58,29,29,-14,19,68,39,0,19
53,43,-9,-48,31,17,-14,9,58,34,0,14
48,34,-14,-41,31,9,-14,9,58,29,0,9
43,29,-14,-36,29,7,-14,0,53,29,4,4
43,39,-4,-41,24,17,-14,4,53,29,9,14
43,34,-9,-39,26,12,-9,4,48,29,9,14
43,34,-9,-39,26,12,-9,4,48,24,9,14
48,34,-14,-41,31,9,-9,-4,43,24,14,14
39,24,-14,-31,26,4,-19,-9,39,9,4,4
29,19,-9,-24,19,4,-19,-14,39,9,4,4
19,9,-9,-14,14,0,-19,-24,39,9,9,4
19,4,-14,-12,17,-4,-19,-34,29,9,9,4
29,19,-9,-24,19,4,-9,-29,39,19,19,4
34,24,-9,-29,21,7,-4,-24,43,19,24,4
39,29,-9,-34,24,9,-4,-19,43,19,24,4
39,19,-19,-29,29,0,-4,-19,39,14,24,0
34,9,-24,-21,29,-7,-14,-29,29,14,14,-9
29,4,-24,-17,26,-9,-14,-29,29,14,14,-9
24,4,-19,-14,21,-7,-14,-34,29,14,14,-9
19,4,-14,-12,17,-4,-14,-34,29,14,9,-14
29,14,-14,-21,21,0,-4,-19,29,19,19,-4
29,14,-14,-21,21,0,-4,-19,29,19,19,-4
29,14,-14,-21,21,0,0,-24,29,14,24,-4
19,14,-4,-17,12,4,0,-24,29,14,24,-4
9,4,-4,-7,7,0,-9,-34,19,4,14,-14
14,-4,-19,-4,17,-12,-9,-34,19,4,14,-14
14,-4,-19,-4,17,-12,-9,-34,19,4,14,-14
14,-4,-19,-4,17,-12,-9,-29,19,4,14,-14
19,4,-14,-12,17,-4,0,-19,24,9,24,-9
24,9,-14,-17,19,-2,0,-19,29,14,24,-4
29,19,-9,-24,19,4,0,-19,34,19,24,0
34,24,-9,-29,21,7,4,-19,39,24,24,0
19,9,-9,-14,14,0,-4,-29,29,14,14,-9
9,-4,-14,-2,12,-9,-4,-29,29,14,14,-9
0,-9,-9,4,4,-9,-4,-29,29,14,14,-9
-9,-14,-4,12,-2,-9,-4,-29,34,14,14,-14
4,-9,-14,2,9,-12,0,-19,43,24,24,-14
9,-4,-14,-2,12,-9,4,-19,43,24,24,-14
24,0,-24,-12,24,-12,9,-19,43,24,24,-14
29,4,-24,-17,26,-9,14,-19,43,24,24,-14
19,-4,-24,-7,21,-14,9,-29,34,29,14,-14
19,-9,-29,-4,24,-19,4,-29,34,29,14,-19
14,-9,-24,-2,19,-17,4,-29,34,29,9,-19
9,-9,-19,0,14,-14,4,-24,34,29,9,-19
4,0,-4,-2,4,-2,14,-14,48,29,24,-19
4,-4,-9,0,7,-7,9,-14,48,29,24,-19
4,-4,-9,0,7,-7,9,-14,48,29,24,-19
4,0,-4,-2,4,-2,9,-14,53,29,24,-19
-4,-9,-4,7,0,-7,4,-24,43,24,14,-19
-4,-9,-4,7,0,-7,4,-24,43,24,14,-19
-4,-9,-4,7,0,-7,4,-24,43,24,9,-24
-4,-14,-9,9,2,-12,4,-24,43,24,9,-24
0,-9,-9,4,4,-9,14,-14,53,34,14,-24
4,-4,-9,0,7,-7,14,-14,48,34,14,-24
9,0,-9,-4,9,-4,14,-14,48,34,19,-29
9,9,0,-9,4,4,19,-9,48,34,19,-29
0,0,0,0,0,0,9,-9,39,24,9,-29
0,-4,-4,2,2,-4,9,-14,39,24,9,-34
9,-4,-14,-2,12,-9,9,-14,39,24,9,-34
0,-9,-9,4,4,-9,9,-14,39,24,9,-34
9,0,-9,-4,9,-4,19,-14,39,34,19,-24
9,0,-9,-4,9,-4,19,-14,39,34,19,-19
9,0,-9,-4,9,-4,19,-14,39,34,19,-19
9,0,-9,-4,9,-4,19,-14,43,34,9,-19
0,-9,-9,4,4,-9,9,-24,43,29,9,-34
0,-9,-9,4,4,-9,9,-24,34,29,9,-34
-4,-9,-4,7,0,-7,9,-24,34,24,9,-34
-4,-9,-4,7,0,-7,9,-24,34,24,9,-34
0,-19,-19,9,9,-19,9,-29,29,9,9,-34
0,-19,-19,9,9,-19,9,-29,29,9,9,-34
0,-19,-19,9,9,-19,9,-29,29,9,9,-34
0,-19,-19,9,9,-19,9,-29,29,9,9,-34
0,-14,-14,7,7,-14,19,-29,29,14,19,-34
0,-14,-14,7,7,-14,19,-29,29,14,14,-34
0,-14,-14,7,7,-14,19,-29,24,9,14,-39
0,-14,-14,7,7,-14,19,-29,19,9,9,-39
4,-19,-24,7,14,-21,9,-39,14,0,-4,-39
4,-19,-24,7,14,-21,9,-39,14,0,-4,-39
4,-19,-24,7,14,-21,9,-39,19,-9,-4,-39
4,-19,-24,7,14,-21,9,-39,19,-9,-4,-39
4,-24,-29,9,17,-26,9,-39,9,-9,-4,-39
4,-24,-29,9,17,-26,9,-39,9,-14,-4,-39
4,-29,-34,12,19,-31,9,-39,0,-14,-4,-39
4,-29,-34,12,19,-31,9,-39,-4,-19,-9,-39
-14,-34,-19,24,2,-26,9,-43,4,-19,-9,-34
-14,-29,-14,21,0,-21,9,-43,4,-19,-4,-34
-9,-24,-14,17,2,-19,9,-39,4,-19,-4,-34
-9,-19,-9,14,0,-14,9,-39,4,-29,-14,-34
0,-19,-19,9,9,-19,9,-39,4,-29,-14,-43
4,-19,-24,7,14,-21,9,-43,0,-29,-14,-43
4,-19,-24,7,14,-21,9,-43,0,-29,-14,-43
0,-19,-19,9,9,-19,9,-43,0,-29,-14,-43
-9,-29,-19,19,4,-24,0,-53,-9,-34,-19,-48
-9,-34,-24,21,7,-29,0,-53,-9,-34,-24,-48
-9,-34,-24,21,7,-29,0,-53,-9,-39,-29,-48
-9,-39,-29,24,9,-34,0,-53,-9,-39,-34,-43
-4,-29,-24,17,9,-26,9,-53,-9,-43,-29,-43
-4,-24,-19,14,7,-21,9,-53,-9,-43,-29,-43
0,-24,-24,12,12,-24,9,-58,-14,-43,-24,-43
4,-34,-39,14,21,-36,9,-58,-14,-48,-24,-43
-9,-43,-34,26,12,-39,9,-58,-14,-48,-34,-43
-24,-48,-24,36,0,-36,9,-63,-14,-48,-34,-48
-29,-48,-19,39,-4,-34,9,-63,-14,-48,-39,-48
-34,-43,-9,39,-12,-26,9,-63,-14,-53,-39,-48
-24,-39,-14,31,-4,-26,9,-58,-14,-53,-29,-43
-14,-34,-19,24,2,-26,9,-58,-14,-53,-29,-43
-4,-29,-24,17,9,-26,9,-63,-14,-53,-29,-43
4,-24,-29,9,17,-26,9,-63,-14,-53,-29,-43
-9,-34,-24,21,7,-29,9,-68,-19,-63,-43,-53
-14,-43,-29,29,7,-36,9,-68,-19,-68,-43,-53
-19,-48,-29,34,4,-39,9,-68,-19,-68,-43,-53
-24,-48,-24,36,0,-36,9,-68,-19,-68,-43,-53
-19,-43,-24,31,2,-34,19,-68,-9,-58,-34,-43
-14,-39,-24,26,4,-31,19,-68,-14,-58,-34,-43
-9,-34,-24,21,7,-29,19,-68,-14,-58,-39,-43
-4,-29,-24,17,9,-26,19,-68,-14,-58,-39,-43
-9,-43,-34,26,12,-39,14,-82,-19,-78,-48,-43
-14,-48,-34,31,9,-41,9,-82,-24,-78,-48,-48
-19,-53,-34,36,7,-43,4,-82,-34,-73,-48,-53
-24,-58,-34,41,4,-46,0,-82,-39,-73,-43,-58
-9,-43,-34,26,12,-39,4,-78,-34,-73,-34,-53
-4,-39,-34,21,14,-36,9,-73,-29,-68,-34,-48
0,-34,-34,17,17,-34,14,-68,-19,-63,-34,-43
4,-29,-34,12,19,-31,19,-63,-9,-58,-39,-39
4,-34,-39,14,21,-36,14,-73,-14,-68,-53,-43
0,-48,-48,24,24,-48,9,-73,-29,-68,-53,-53
-14,-53,-39,34,12,-46,4,-78,-39,-73,-53,-63
-19,-58,-39,39,9,-48,0,-78,-43,-73,-53,-68
-14,-48,-34,31,9,-41,9,-68,-39,-73,-43,-53
-9,-43,-34,26,12,-39,9,-68,-34,-73,-43,-53
0,-39,-39,19,19,-39,9,-68,-29,-73,-43,-58
4,-34,-39,14,21,-36,9,-68,-24,-73,-43,-58
0,-48,-48,24,24,-48,0,-78,-24,-82,-53,-58
-4,-53,-48,29,21,-51,0,-78,-29,-82,-53,-58
-9,-58,-48,34,19,-53,0,-78,-34,-82,-58,-58
-14,-68,-53,41,19,-61,0,-82,-43,-82,-58,-58
-14,-63,-48,39,17,-56,9,-73,-34,-73,-48,-58
-14,-53,-39,34,12,-46,9,-73,-34,-73,-43,-58
-14,-48,-34,31,9,-41,9,-73,-34,-73,-43,-58
-14,-39,-24,26,4,-31,9,-73,-34,-73,-43,-58
-24,-43,-19,34,-2,-31,0,-82,-43,-78,-53,-58
-19,-48,-29,34,4,-39,0,-82,-43,-78,-53,-58
-19,-58,-39,39,9,-48,0,-82,-43,-78,-53,-58
-24,-68,-43,46,9,-56,0,-82,-43,-78,-58,-58
-29,-53,-24,41,-2,-39,9,-73,-39,-78,-48,-48
-24,-48,-24,36,0,-36,9,-73,-39,-78,-48,-48
-14,-43,-29,29,7,-36,4,-73,-34,-78,-48,-48
0,-39,-39,19,19,-39,4,-73,-29,-78,-48,-48
-4,-43,-39,24,17,-41,4,-82,-39,-78,-48,-58
-9,-48,-39,29,14,-43,4,-82,-39,-82,-53,-58
-14,-53,-39,34,12,-46,4,-82,-43,-82,-53,-58
-24,-63,-39,43,7,-51,4,-87,-43,-82,-53,-58
-24,-53,-29,39,2,-41,4,-87,-34,-82,-53,-48
-19,-48,-29,34,4,-39,9,-82,-29,-82,-53,-48
-9,-48,-39,29,14,-43,9,-82,-29,-82,-48,-48
-4,-43,-39,24,17,-41,9,-82,-29,-78,-48,-43
-14,-43,-29,29,7,-36,0,-82,-29,-78,-58,-53
-14,-48,-34,31,9,-41,0,-82,-34,-78,-58,-53
-14,-48,-34,31,9,-41,0,-87,-39,-78,-63,-63
-14,-53,-39,34,12,-46,0,-87,-48,-87,-63,-63
-14,-43,-29,29,7,-36,0,-87,-39,-87,-53,-53
-14,-43,-29,29,7,-36,0,-87,-39,-87,-53,-48
-14,-43,-29,29,7,-36,0,-87,-43,-87,-53,-48
-14,-39,-24,26,4,-31,0,-82,-43,-82,-48,-48
-14,-48,-34,31,9,-41,0,-82,-43,-82,-58,-48
-14,-48,-34,31,9,-41,0,-87,-43,-82,-58,-48
-14,-48,-34,31,9,-41,0,-87,-39,-82,-58,-48
-14,-48,-34,31,9,-41,0,-82,-39,-82,-58,-48
-19,-53,-34,36,7,-43,0,-82,-39,-82,-58,-48
-19,-53,-34,36,7,-43,0,-82,-39,-82,-58,-48
-19,-48,-29,34,4,-39,0,-82,-39,-82,-58,-48
-19,-48,-29,34,4,-39,0,-82,-39,-82,-58,-48
-9,-39,-29,24,9,-34,0,-82,-39,-82,-63,-58
-9,-39,-29,24,9,-34,0,-82,-39,-82,-63,-58
-9,-39,-29,24,9,-34,0,-82,-39,-82,-63,-58
-9,-39,-29,24,9,-34,-4,-87,-39,-82,-63,-63
-19,-39,-19,29,0,-29,-4,-87,-39,-82,-53,-63
-24,-39,-14,31,-4,-26,0,-87,-39,-87,-58,-63
-29,-43,-14,36,-7,-29,0,-87,-39,-87,-58,-63
-29,-43,-14,36,-7,-29,0,-87,-39,-87,-53,-63
-9,-24,-14,17,2,-19,9,-82,-29,-78,-43,-53
0,-29,-29,14,14,-29,9,-82,-39,-82,-53,-53
-14,-39,-24,26,4,-31,0,-82,-43,-92,-58,-53
-29,-58,-29,43,0,-43,0,-87,-48,-97,-68,-58
-29,-58,-29,43,0,-43,0,-97,-48,-97,-68,-68
-29,-58,-29,43,0,-43,0,-97,-48,-97,-68,-68
-29,-58,-29,43,0,-43,0,-97,-48,-97,-68,-68
-29,-58,-29,43,0,-43,0,-97,-48,-97,-68,-68
-24,-53,-29,39,2,-41,0,-87,-39,-87,-58,-58
-19,-48,-29,34,4,-39,0,-87,-39,-87,-58,-58
-14,-43,-29,29,7,-36,0,-87,-39,-87,-58,-58
-9,-39,-29,24,9,-34,0,-87,-39,-87,-58,-58
-19,-43,-24,31,2,-34,0,-97,-48,-97,-68,-68
-19,-48,-29,34,4,-39,0,-97,-48,-97,-68,-68
-19,-53,-34,36,7,-43,0,-97,-48,-97,-68,-68
-19,-58,-39,39,9,-48,0,-97,-48,-97,-68,-68
-4,-48,-43,26,19,-46,0,-92,-43,-92,-63,-63
0,-39,-39,19,19,-39,0,-87,-39,-87,-58,-58
4,-29,-34,12,19,-31,0,-82,-34,-82,-53,-53
9,-19,-29,4,19,-24,0,-78,-29,-78,-48,-48
-4,-24,-19,14,7,-21,-9,-87,-29,-78,-58,-48
-9,-29,-19,19,4,-24,-9,-87,-29,-78,-58,-48
-14,-34,-19,24,2,-26,-9,-87,-29,-78,-58,-48
-19,-39,-19,29,0,-29,-9,-87,-29,-78,-58,-48
0,-24,-24,12,12,-24,-9,-82,-24,-73,-43,-43
9,-9,-19,0,14,-14,-9,-78,-19,-68,-39,-39
19,14,-4,-17,12,4,-9,-73,-9,-58,-29,-29
29,34,4,-31,12,19,-9,-68,4,-48,-24,-24
19,24,4,-21,7,14,-9,-73,0,-48,-29,-34
14,19,4,-17,4,12,-9,-73,4,-48,-24,-29
9,14,4,-12,2,9,-14,-78,4,-43,-24,-29
0,9,9,-4,-4,9,-14,-78,4,-39,-24,-29
4,24,19,-14,-7,21,-4,-63,14,-29,-24,-19
19,34,14,-26,2,24,-4,-63,24,-29,-19,-14
24,48,24,-36,0,36,0,-53,29,-19,-9,-9
29,53,24,-41,2,39,0,-48,34,-14,-4,-9
24,39,14,-31,4,26,-4,-58,34,-19,-4,-19
29,39,9,-34,9,24,-14,-48,34,-19,-4,-14
24,34,9,-29,7,21,-24,-43,34,-14,0,-14
19,29,9,-24,4,19,-29,-43,39,-9,4,-14
34,34,0,-34,17,17,-34,-29,39,4,4,-14
39,39,0,-39,19,19,-34,-24,34,4,4,-9
58,48,-9,-53,34,19,-34,-24,29,4,9,-9
73,58,-14,-65,43,21,-39,-29,29,4,9,-4
68,48,-19,-58,43,14,-58,-43,24,-4,9,9
63,48,-14,-56,39,17,-73,-43,14,-9,9,9
58,48,-9,-53,34,19,-78,-58,4,-9,9,9
53,48,-4,-51,29,21,-78,-63,0,-14,4,9
58,58,0,-58,29,29,-78,-73,-9,-29,4,9
63,58,-4,-61,34,26,-78,-78,-14,-34,-4,9
68,58,-9,-63,39,24,-78,-92,-24,-43,-4,9
73,63,-9,-68,41,26,-78,-97,-34,-48,-4,9
58,48,-9,-53,34,19,-87,-107,-48,-58,-14,4
63,48,-14,-56,39,17,-97,-107,-48,-53,-9,9
73,48,-24,-61,48,12,-102,-107,-53,-48,-9,14
68,48,-19,-58,43,14,-107,-107,-58,-48,-4,19
78,63,-14,-70,46,24,-102,-102,-53,-48,4,24
82,68,-14,-75,48,26,-102,-102,-58,-48,4,24
87,68,-19,-78,53,24,-97,-97,-58,-48,4,24
92,73,-19,-82,56,26,-87,-87,-63,-48,0,19
82,48,-34,-65,58,7,-97,-92,-87,-68,-14,14
82,29,-53,-56,68,-12,-97,-97,-87,-73,-19,14
82,14,-68,-48,75,-26,-97,-102,-87,-78,-19,14
82,0,-82,-41,82,-41,-97,-107,-97,-82,-29,9
82,0,-82,-41,82,-41,-92,-97,-87,-73,-19,4
82,4,-78,-43,80,-36,-82,-97,-87,-78,-19,4
78,9,-68,-43,73,-29,-78,-102,-87,-78,-19,0
68,14,-53,-41,61,-19,-68,-102,-82,-78,-24,0
48,14,-34,-31,41,-9,-68,-97,-87,-73,-34,0
39,9,-29,-24,34,-9,-58,-97,-87,-73,-34,0
24,4,-19,-14,21,-7,-39,-92,-73,-73,-39,-9
19,-14,-34,-2,26,-24,-39,-92,-73,-73,-39,-14
4,-9,-14,2,9,-12,-29,-78,-53,-68,-24,-19
-4,-9,-4,7,0,-7,-19,-78,-48,-63,-24,-19
-4,-14,-9,9,2,-12,-14,-78,-48,-63,-24,-24
-14,-19,-4,17,-4,-12,-14,-78,-48,-68,-29,-29
-4,-29,-24,17,9,-26,-9,-87,-58,-78,-43,-43
-4,-34,-29,19,12,-31,-9,-87,-58,-82,-53,-43
-4,-43,-39,24,17,-41,0,-92,-58,-92,-58,-53
-14,-58,-43,36,14,-51,0,-92,-63,-97,-63,-58
-24,-63,-39,43,7,-51,0,-97,-63,-92,-58,-48
-24,-63,-39,43,7,-51,0,-97,-63,-97,-58,-53
-24,-58,-34,41,4,-46,0,-102,-63,-97,-63,-58
-29,-53,-24,41,-2,-39,4,-102,-68,-102,-73,-63
-39,-63,-24,51,-7,-43,4,-102,-68,-102,-73,-68
-39,-68,-29,53,-4,-48,4,-102,-73,-102,-73,-68
-39,-68,-29,53,-4,-48,9,-102,-73,-102,-73,-68
-39,-68,-29,53,-4,-48,9,-102,-73,-107,-73,-68
-39,-68,-29,53,-4,-48,9,-102,-73,-107,-73,-78
-43,-78,-34,61,-4,-56,9,-102,-73,-102,-73,-82
-43,-78,-34,61,-4,-56,9,-97,-68,-102,-78,-82
-43,-73,-29,58,-7,-51,9,-97,-68,-102,-78,-82
-29,-73,-43,51,7,-58,0,-97,-68,-112,-78,-82
-29,-73,-43,51,7,-58,0,-97,-68,-112,-78,-78
-29,-73,-43,51,7,-58,0,-97,-68,-112,-78,-78
-29,-73,-43,51,7,-58,0,-97,-68,-112,-78,-78
-29,-73,-43,51,7,-58,0,-97,-68,-102,-78,-68
-29,-73,-43,51,7,-58,0,-97,-68,-102,-78,-73
-29,-68,-39,48,4,-53,0,-97,-68,-102,-73,-73
-29,-68,-39,48,4,-53,0,-97,-68,-102,-73,-73
-29,-73,-43,51,7,-58,9,-97,-68,-102,-73,-73
-29,-73,-43,51,7,-58,9,-97,-68,-102,-73,-73
-29,-73,-43,51,7,-58,9,-97,-68,-102,-78,-73
-29,-73,-43,51,7,-58,9,-97,-68,-107,-78,-73
-39,-97,-58,68,9,-78,4,-92,-68,-117,-107,-92
-39,-117,-78,78,19,-97,14,-78,-68,-122,-122,-102
-43,-117,-73,80,14,-95,34,-68,-58,-122,-122,-107
-43,-122,-78,82,17,-100,48,-48,-58,-126,-141,-112
-43,-136,-92,90,24,-114,48,-43,-58,-117,-146,-126
-39,-136,-97,87,29,-117,39,-29,-48,-107,-136,-126
-29,-126,-97,78,34,-112,34,-24,-43,-73,-117,-122
-19,-117,-97,68,39,-107,4,-24,-34,-34,-73,-107
-4,-102,-97,53,46,-100,-19,-34,-34,14,-19,-68
43,-73,-117,14,80,-95,-53,-29,-29,63,53,-29
73,-29,-102,-21,87,-65,-73,-14,0,136,131,19
92,14,-78,-53,85,-31,-78,-4,39,209,229,73
151,102,-48,-126,100,26,-82,-4,82,297,356,156
209,185,-24,-197,117,80,-126,-39,97,375,492,248
258,244,-14,-251,136,114,-165,-68,78,434,619,346
307,302,-4,-305,156,148,-214,-87,48,473,756,463
380,366,-14,-373,197,175,-283,-122,-14,512,927,590
483,468,-14,-475,248,226,-380,-175,-82,566,1127,761
580,595,14,-588,283,305,-483,-234,-151,634,1322,936
692,727,34,-710,329,380,-580,-287,-234,688,1512,1112
805,883,78,-844,363,480,-697,-390,-336,727,1722,1298
893,1054,161,-973,366,607,-805,-541,-453,727,1898,1478
883,1146,263,-1015,309,705,-878,-746,-600,653,1976,1590
819,1141,322,-980,248,732,-927,-971,-800,488,1927,1625
761,1093,331,-927,214,712,-951,-1180,-1029,253,1776,1605
683,1015,331,-849,175,673,-951,-1376,-1234,-58,1488,1527
566,834,268,-700,148,551,-897,-1493,-1395,-429,1063,1351
478,610,131,-544,173,370,-800,-1537,-1498,-771,570,1122
414,434,19,-424,197,226,-692,-1522,-1517,-1044,141,917
366,331,-34,-348,200,148,-614,-1503,-1507,-1224,-161,780
317,258,-58,-287,187,100,-556,-1449,-1468,-1356,-361,673
278,190,-87,-234,183,51,-507,-1342,-1400,-1395,-492,570
234,122,-112,-178,173,4,-463,-1195,-1283,-1307,-507,507
151,82,-68,-117,109,7,-400,-1034,-1117,-1137,-473,434
68,53,-14,-61,41,19,-336,-897,-951,-976,-448,326
4,34,29,-19,-12,31,-263,-780,-790,-829,-419,224
-24,43,68,-9,-46,56,-209,-644,-624,-678,-375,146
-14,58,73,-21,-43,65,-146,-512,-483,-546,-312,97
-24,48,73,-12,-48,61,-102,-409,-370,-419,-248,78
-34,34,68,0,-51,51,-73,-322,-278,-322,-190,39
-39,14,53,12,-46,34,-53,-244,-195,-224,-136,9
-48,-9,39,29,-43,14,-34,-170,-136,-161,-107,-9
-58,-24,34,41,-46,4,-14,-131,-92,-112,-78,-19
-48,-24,24,36,-36,0,0,-102,-68,-92,-73,-24
-39,-19,19,29,-29,0,14,-82,-48,-68,-58,-24
-24,-19,4,21,-14,-7,24,-53,-34,-58,-58,-34
-29,-34,-4,31,-12,-19,29,-48,-34,-58,-68,-43
-43,-43,0,43,-21,-21,39,-58,-29,-58,-73,-58
-48,-53,-4,51,-21,-29,34,-58,-34,-63,-78,-63
-53,-63,-9,58,-21,-36,34,-53,-29,-63,-78,-68
-63,-68,-4,65,-29,-36,39,-43,-24,-58,-78,-68
-73,-78,-4,75,-34,-41,39,-34,-19,-58,-82,-73
-68,-73,-4,70,-31,-39,48,-24,-14,-43,-82,-78
-63,-68,-4,65,-29,-36,53,-24,-9,-43,-82,-78
-58,-63,-4,61,-26,-34,53,-24,-4,-43,-78,-82
-53,-58,-4,56,-24,-31,58,-14,9,-34,-73,-82
-58,-68,-9,63,-24,-39,53,-19,4,-43,-68,-87
-63,-73,-9,68,-26,-41,53,-19,4,-43,-73,-87
-68,-78,-9,73,-29,-43,53,-19,4,-39,-82,-92
-73,-92,-19,82,-26,-56,53,-19,4,-39,-87,-92
-63,-87,-24,75,-19,-56,58,-9,19,-29,-78,-82
-68,-82,-14,75,-26,-48,58,0,19,-29,-78,-82
-68,-78,-9,73,-29,-43,58,4,19,-29,-78,-87
-63,-73,-9,68,-26,-41,58,9,24,-19,-78,-87
-68,-82,-14,75,-26,-48,53,0,29,-19,-78,-82
-73,-82,-9,78,-31,-46,53,0,29,-19,-78,-82
-82,-82,0,82,-41,-41,53,0,29,-19,-78,-87
-87,-82,4,85,-46,-39,53,0,29,-19,-78,-87
-78,-78,0,78,-39,-39,63,14,43,-19,-68,-87
-73,-73,0,73,-36,-36,63,14,43,-19,-68,-87
-68,-68,0,68,-34,-34,63,14,43,-9,-68,-87
-63,-63,0,63,-31,-31,63,14,53,-9,-68,-87
-73,-73,0,73,-36,-36,53,4,34,-9,-68,-97
-73,-73,0,73,-36,-36,53,14,34,-9,-68,-97
-73,-73,0,73,-36,-36,53,14,39,-9,-68,-97
-73,-73,0,73,-36,-36,53,14,43,-9,-68,-97
-73,-82,-9,78,-31,-46,53,19,43,-9,-78,-97
-73,-82,-9,78,-31,-46,53,19,43,-9,-78,-97
-73,-82,-9,78,-31,-46,53,29,43,-4,-78,-97
-73,-78,-4,75,-34,-41,53,29,43,-4,-78,-97
-63,-68,-4,65,-29,-36,53,24,48,0,-78,-87
-68,-73,-4,70,-31,-39,53,24,48,4,-78,-87
-68,-73,-4,70,-31,-39,53,24,48,4,-73,-87
-68,-68,0,68,-34,-34,53,19,53,4,-73,-92
-78,-68,9,73,-43,-29,63,19,53,4,-73,-107
-78,-78,0,78,-39,-39,63,24,53,9,-73,-107
-78,-78,0,78,-39,-39,63,29,53,9,-73,-107
-78,-73,4,75,-41,-34,63,29,63,9,-73,-107
-68,-68,0,68,-34,-34,63,34,68,14,-73,-102
-68,-68,0,68,-34,-34,63,34,68,19,-73,-97
-68,-68,0,68,-34,-34,63,34,68,19,-73,-97
-58,-68,-9,63,-24,-39,68,34,68,19,-73,-102
-68,-63,4,65,-36,-29,68,43,73,19,-73,-102
-68,-63,4,65,-36,-29,68,53,73,19,-73,-102
-68,-58,9,63,-39,-24,68,53,82,24,-73,-102
-68,-58,9,63,-39,-24,68,53,87,29,-73,-107
-78,-68,9,73,-43,-29,68,63,87,39,-63,-97
-73,-68,4,70,-39,-31,68,63,87,39,-63,-97
-63,-58,4,61,-34,-26,68,63,87,43,-63,-102
-73,-58,14,65,-43,-21,68,68,92,43,-63,-102
-63,-58,4,61,-34,-26,68,68,97,48,-63,-102
-63,-63,0,63,-31,-31,68,73,102,48,-63,-102
-73,-63,9,68,-41,-26,68,73,102,58,-63,-102
-73,-63,9,68,-41,-26,68,73,102,58,-58,-102
-68,-53,14,61,-41,-19,68,78,112,58,-58,-102
-58,-48,9,53,-34,-19,68,87,117,68,-58,-102
-53,-43,9,48,-31,-17,68,87,126,68,-58,-97
-53,-43,9,48,-31,-17,68,92,126,73,-53,-97
-63,-58,4,61,-34,-26,68,92,122,73,-53,-107
-68,-58,9,63,-39,-24,68,97,126,73,-53,-107
-73,-58,14,65,-43,-21,68,102,131,82,-53,-107
-78,-58,19,68,-48,-19,68,102,136,82,-53,-107
-73,-48,24,61,-48,-12,78,117,151,87,-43,-97
-63,-43,19,53,-41,-12,78,122,151,92,-43,-97
-58,-39,19,48,-39,-9,78,126,151,97,-43,-97
-53,-39,14,46,-34,-12,78,131,156,97,-43,-102
-58,-43,14,51,-36,-14,68,126,156,102,-53,-102
-63,-43,19,53,-41,-12,68,126,156,102,-48,-107
-68,-43,24,56,-46,-9,68,131,165,107,-43,-107
-82,-39,43,61,-63,2,68,136,165,112,-43,-107
-58,-34,24,46,-41,-4,78,151,185,131,-43,-97
-53,-29,24,41,-39,-2,78,161,185,131,-43,-97
-48,-19,29,34,-39,4,82,165,195,141,-39,-92
-39,-4,34,21,-36,14,82,175,200,146,-39,-92
-43,-19,24,31,-34,2,78,170,190,141,-39,-102
-53,-29,24,41,-39,-2,78,175,190,146,-39,-102
-58,-34,24,46,-41,-4,78,175,190,146,-39,-102
-63,-39,24,51,-43,-7,78,185,195,156,-39,-102
-53,-24,29,39,-41,2,87,204,204,170,-29,-92
-58,-19,39,39,-48,9,87,214,219,175,-29,-92
-58,-4,53,31,-56,24,92,219,224,180,-29,-92
-53,0,53,26,-53,26,92,229,234,185,-29,-92
-53,-4,48,29,-51,21,82,229,244,190,-34,-102
-58,-4,53,31,-56,24,82,234,244,190,-34,-102
-63,-9,53,36,-58,21,82,234,248,195,-34,-102
-68,-14,53,41,-61,19,82,244,258,204,-34,-102
-53,-4,48,29,-51,21,92,263,278,214,-24,-92
-48,4,53,21,-51,29,97,273,278,214,-24,-92
-34,9,43,12,-39,26,97,283,278,219,-29,-92
-29,14,43,7,-36,29,97,287,283,219,-29,-92
-34,9,43,12,-39,26,87,287,278,214,-39,-102
-39,9,48,14,-43,29,87,297,287,219,-39,-102
-43,9,53,17,-48,31,87,297,287,219,-39,-102
-48,4,53,21,-51,29,87,302,292,219,-48,-107
-43,9,53,17,-48,31,102,317,302,224,-53,-107
-39,14,53,12,-46,34,102,322,312,234,-53,-107
-34,24,58,4,-46,41,102,326,322,239,-53,-107
-29,43,73,-7,-51,58,102,331,326,248,-53,-107
-24,39,63,-7,-43,51,102,336,322,239,-68,-112
-24,34,58,-4,-41,46,107,336,326,234,-73,-112
-29,29,58,0,-43,43,107,341,331,229,-78,-112
-48,14,63,17,-56,39,107,346,336,229,-87,-117
-43,19,63,12,-53,41,117,351,346,229,-92,-122
-39,29,68,4,-53,48,117,351,341,224,-102,-122
-34,39,73,-2,-53,56,117,351,341,224,-102,-117
-29,53,82,-12,-56,68,117,351,341,219,-107,-117
-24,39,63,-7,-43,51,112,351,331,200,-122,-117
-24,34,58,-4,-41,46,107,351,336,200,-122,-117
-29,24,53,2,-41,39,102,351,336,200,-126,-122
-39,14,53,12,-46,34,97,351,331,190,-136,-126
-34,29,63,2,-48,46,107,346,341,190,-146,-117
-29,34,63,-2,-46,48,107,346,336,190,-146,-112
-24,43,68,-9,-46,56,107,346,336,180,-141,-107
-14,58,73,-21,-43,65,102,346,336,180,-136,-107
-19,53,73,-17,-46,63,87,336,336,170,-151,-117
-19,39,58,-9,-39,48,87,336,331,165,-151,-112
-19,34,53,-7,-36,43,82,331,331,161,-156,-112
-24,29,53,-2,-39,41,78,326,322,161,-156,-107
-14,39,53,-12,-34,46,73,331,312,156,-151,-102
-9,48,58,-19,-34,53,73,331,317,151,-146,-97
0,53,53,-26,-26,53,68,322,317,151,-146,-92
0,58,58,-29,-29,58,63,317,302,146,-146,-87
0,63,63,-31,-31,63,63,312,307,151,-131,-78
0,68,68,-34,-34,68,58,307,302,146,-131,-73
9,68,58,-39,-24,63,53,292,297,146,-126,-68
9,68,58,-39,-24,63,48,283,292,146,-126,-58
9,68,58,-39,-24,63,43,263,273,141,-112,-48
9,68,58,-39,-24,63,43,258,273,141,-102,-43
19,73,53,-46,-17,63,39,248,268,141,-102,-39
24,73,48,-48,-12,61,29,239,258,131,-102,-34
34,87,53,-61,-9,70,29,229,239,126,-97,-24
34,87,53,-61,-9,70,24,214,229,126,-87,-19
34,87,53,-61,-9,70,19,209,224,126,-78,-14
34,87,53,-61,-9,70,14,195,209,126,-68,-9
43,73,29,-58,7,51,14,180,209,112,-68,-4
43,73,29,-58,7,51,9,175,195,107,-53,-4
43,73,29,-58,7,51,4,165,190,107,-48,0
43,73,29,-58,7,51,4,151,185,102,-39,4
39,73,34,-56,2,53,9,136,170,112,-34,9
34,73,39,-53,-2,56,9,131,156,112,-29,9
29,73,43,-51,-7,58,4,117,146,102,-19,14
24,73,48,-48,-12,61,0,102,141,102,-14,19
29,73,43,-51,-7,58,-9,82,131,87,-14,19
34,73,39,-53,-2,56,-9,73,122,87,-4,24
34,73,39,-53,-2,56,-9,68,122,82,0,24
34,68,34,-51,0,51,-9,63,117,78,4,24
34,68,34,-51,0,51,-9,58,102,87,19,24
34,68,34,-51,0,51,-9,53,102,82,19,24
24,58,34,-41,-4,46,-14,43,97,82,24,24
24,53,29,-39,-2,41,-14,34,97,78,29,24
14,43,29,-29,-7,36,-14,29,87,68,29,34
14,34,19,-24,-2,26,-14,19,78,63,29,34
14,29,14,-21,0,21,-14,19,78,58,29,34
14,29,14,-21,0,21,-14,9,73,58,34,34
9,34,24,-21,-7,29,-14,4,73,58,39,24
14,34,19,-24,-2,26,-9,4,68,58,39,24
19,39,19,-29,0,29,-9,4,68,53,39,24
29,43,14,-36,7,29,-9,-4,63,53,43,24
19,29,9,-24,4,19,-9,-4,48,48,43,24
9,29,19,-19,-4,24,-9,-4,48,48,43,24
0,24,24,-12,-12,24,-9,-9,48,48,48,24
0,24,24,-12,-12,24,-9,-14,39,48,48,24
9,43,34,-26,-12,39,-9,-4,48,58,58,34
14,43,29,-29,-7,36,-4,-4,53,58,63,34
19,43,24,-31,-2,34,-4,-4,53,58,63,34
19,29,9,-24,4,19,-4,-9,48,53,63,29
9,14,4,-12,2,9,-14,-19,43,43,58,24
0,4,4,-2,-2,4,-14,-19,39,43,53,19
-9,0,9,4,-9,4,-14,-24,34,43,48,14
-19,-4,14,12,-17,4,-14,-24,29,43,39,4
-4,0,4,2,-4,2,-4,-19,39,48,48,9
0,4,4,-2,-2,4,-4,-19,39,48,48,14
4,9,4,-7,0,7,0,-24,39,43,53,19
0,14,14,-7,-7,14,0,-24,39,43,53,24
-14,4,19,4,-17,12,-9,-34,39,43,43,14
-14,-4,9,9,-12,2,-9,-34,39,43,43,14
-19,-4,14,12,-17,4,-9,-34,39,43,43,14
-24,-4,19,14,-21,7,-9,-29,39,43,43,14
-9,4,14,2,-12,9,0,-19,48,53,48,14
-4,9,14,-2,-9,12,0,-19,48,53,53,14
0,19,19,-9,-9,19,0,-19,48,53,58,14
4,24,19,-14,-7,21,4,-19,48,53,63,9
-4,19,24,-7,-14,21,-4,-29,48,43,58,9
-9,4,14,2,-12,9,-4,-29,48,43,53,9
-14,0,14,7,-14,7,-4,-29,48,43,48,9
-19,-4,14,12,-17,4,-4,-29,53,43,43,4
-9,0,9,4,-9,4,4,-24,53,53,53,14
-9,4,14,2,-12,9,4,-19,53,53,53,14
0,9,9,-4,-4,9,4,-14,53,53,53,14
0,14,14,-7,-7,14,4,-9,53,53,53,14
-4,9,14,-2,-9,12,-4,-14,43,48,43,4
-9,0,9,4,-9,4,-4,-19,43,48,43,0
-19,-4,14,12,-17,4,0,-24,43,48,39,0
-29,-9,19,19,-24,4,4,-24,43,48,39,0
-29,-4,24,17,-26,9,14,-14,58,58,43,0
-24,-4,19,14,-21,7,9,-14,58,58,43,0
-19,0,19,9,-19,9,9,-14,58,58,43,0
-14,9,24,2,-19,17,9,-14,63,58,43,0
-19,4,24,7,-21,14,4,-24,53,58,34,-9
-24,0,24,12,-24,12,4,-24,53,53,34,-9
-29,-4,24,17,-26,9,4,-24,53,48,29,-14
-34,-14,19,24,-26,2,4,-24,53,43,29,-14
-29,0,29,14,-29,14,14,-14,68,48,39,-9
-24,4,29,9,-26,17,14,-14,68,53,43,-4
-19,9,29,4,-24,19,14,-14,73,58,53,-4
-19,19,39,0,-29,29,19,-9,78,63,58,0
-24,9,34,7,-29,21,9,-19,63,58,53,-9
-29,-4,24,17,-26,9,9,-24,58,53,48,-14
-24,-14,9,19,-17,-2,9,-24,53,48,43,-14
-39,-29,9,34,-24,-9,9,-24,48,43,39,-14
-29,-24,4,26,-17,-9,19,-14,58,43,48,-14
-29,-19,9,24,-19,-4,19,-14,58,43,48,-9
-29,-14,14,21,-21,0,19,-14,58,43,48,-9
-29,-9,19,19,-24,4,19,-14,63,43,39,-9
-29,-19,9,24,-19,-4,9,-24,53,39,29,-14
-29,-19,9,24,-19,-4,9,-24,43,39,29,-14
-34,-19,14,26,-24,-2,9,-24,43,34,29,-14
-34,-19,14,26,-24,-2,9,-24,43,34,29,-14
-19,-9,9,14,-14,0,19,-19,48,39,29,-14
-19,-9,9,14,-14,0,19,-19,48,39,29,-14
-19,-9,9,14,-14,0,19,-19,48,39,29,-14
-19,-9,9,14,-14,0,19,-19,48,39,29,-14
-24,-19,4,21,-14,-7,19,-29,48,34,29,-14
-29,-24,4,26,-17,-9,19,-29,48,34,24,-14
-34,-29,4,31,-19,-12,19,-29,43,29,24,-19
-39,-34,4,36,-21,-14,19,-29,39,29,19,-19
-34,-34,0,34,-17,-17,19,-29,43,29,24,-9
-34,-29,4,31,-19,-12,19,-29,43,29,24,-9
-34,-24,9,29,-21,-7,19,-29,48,19,24,-9
-34,-19,14,26,-24,-2,19,-29,48,19,24,-9
-34,-24,9,29,-21,-7,19,-39,39,19,14,-19
-34,-24,9,29,-21,-7,19,-39,39,14,14,-19
-34,-29,4,31,-19,-12,19,-39,29,14,14,-19
-34,-29,4,31,-19,-12,19,-39,24,9,9,-19
-43,-39,4,41,-24,-17,19,-43,34,9,9,-24
-43,-39,4,41,-24,-17,19,-43,34,9,14,-24
-39,-39,0,39,-19,-19,19,-39,34,9,14,-24
-39,-39,0,39,-19,-19,19,-39,34,0,4,-24
-39,-29,9,34,-24,-9,9,-48,24,0,14,-14
-34,-29,4,31,-19,-12,9,-53,19,0,14,-14
-34,-29,4,31,-19,-12,9,-53,19,0,14,-14
-39,-29,9,34,-24,-9,9,-53,19,0,14,-14
-48,-34,14,41,-31,-9,19,-43,19,-4,14,-19
-48,-34,14,41,-31,-9,19,-43,19,-4,14,-19
-48,-29,19,39,-34,-4,19,-43,19,-9,14,-19
-48,-29,19,39,-34,-4,19,-43,19,-9,14,-14
-43,-29,14,36,-29,-7,19,-43,19,-4,14,-24
-43,-24,19,34,-31,-2,19,-43,19,-4,9,-24
-39,-24,14,31,-26,-4,19,-48,14,-4,9,-24
-34,-34,0,34,-17,-17,19,-48,14,-9,4,-24
-34,-43,-9,39,-12,-26,9,-48,4,-19,-4,-24
-43,-48,-4,46,-19,-26,9,-53,4,-19,-4,-29
-43,-48,-4,46,-19,-26,9,-53,4,-19,-9,-29
-43,-43,0,43,-21,-21,9,-53,4,-24,-9,-29
-39,-34,4,36,-21,-14,19,-48,4,-24,0,-24
-34,-34,0,34,-17,-17,19,-48,4,-24,0,-24
-29,-34,-4,31,-12,-19,19,-53,4,-24,0,-24
-24,-34,-9,29,-7,-21,19,-53,4,-24,0,-24
-39,-48,-9,43,-14,-29,9,-58,9,-24,-4,-24
-43,-53,-9,48,-17,-31,9,-58,9,-29,-4,-24
-48,-53,-4,51,-21,-29,9,-58,9,-29,-4,-24
-53,-48,4,51,-29,-21,9,-58,9,-29,-4,-24
-43,-39,4,41,-24,-17,19,-58,9,-29,4,-24
-43,-39,4,41,-24,-17,19,-58,4,-29,4,-24
-43,-39,4,41,-24,-17,19,-58,4,-29,0,-24
-43,-39,4,41,-24,-17,19,-58,4,-29,0,-24
-43,-43,0,43,-21,-21,9,-73,-4,-39,-4,-24
-43,-48,-4,46,-19,-26,9,-73,-4,-39,-9,-29
-43,-53,-9,48,-17,-31,9,-73,-9,-34,-14,-34
-43,-58,-14,51,-14,-36,9,-73,-9,-34,-14,-39
-39,-53,-14,46,-12,-34,19,-63,0,-29,-4,-29
-34,-48,-14,41,-9,-31,19,-63,0,-29,-4,-29
-29,-43,-14,36,-7,-29,19,-63,4,-29,-4,-29
-24,-39,-14,31,-4,-26,19,-63,9,-29,-9,-29
-34,-43,-9,39,-12,-26,9,-73,0,-39,-14,-39
-39,-58,-19,48,-9,-39,9,-73,-9,-39,-14,-43
-53,-63,-9,58,-21,-36,9,-78,-14,-43,-14,-48
-58,-68,-9,63,-24,-39,9,-78,-14,-43,-14,-48
-43,-48,-4,46,-19,-26,19,-68,-9,-34,-4,-39
-39,-43,-4,41,-17,-24,19,-68,-4,-34,-4,-34
-29,-39,-9,34,-9,-24,19,-68,0,-34,-4,-34
-24,-34,-9,29,-7,-21,19,-68,4,-34,-4,-29
-34,-43,-9,39,-12,-26,9,-68,4,-39,-9,-39
-43,-53,-9,48,-17,-31,9,-68,0,-43,-14,-39
-53,-63,-9,58,-21,-36,9,-68,-4,-48,-24,-39
-63,-78,-14,70,-24,-46,9,-73,-14,-53,-29,-39
-53,-63,-9,58,-21,-36,19,-63,-4,-43,-19,-29
-43,-53,-9,48,-17,-31,19,-63,-4,-43,-14,-29
-34,-48,-14,41,-9,-31,19,-63,-4,-43,-14,-29
-24,-39,-14,31,-4,-26,19,-63,-4,-43,-14,-29
-39,-48,-9,43,-14,-29,9,-73,-4,-48,-24,-39
-39,-48,-9,43,-14,-29,9,-73,-4,-48,-24,-39
-43,-53,-9,48,-17,-31,9,-73,-4,-48,-24,-39
-53,-58,-4,56,-24,-31,9,-73,-4,-48,-29,-39
-58,-48,9,53,-34,-19,14,-63,-4,-39,-19,-39
-53,-48,4,51,-29,-21,19,-63,-9,-39,-19,-39
-43,-48,-4,46,-19,-26,19,-63,-9,-39,-19,-39
-29,-48,-19,39,-4,-34,24,-63,-9,-39,-19,-39
-43,-53,-9,48,-17,-31,14,-73,-19,-48,-19,-29
-48,-58,-9,53,-19,-34,14,-73,-19,-53,-24,-29
-53,-63,-9,58,-21,-36,14,-73,-24,-53,-24,-29
-63,-73,-9,68,-26,-41,14,-78,-24,-53,-24,-29
-53,-68,-14,61,-19,-41,14,-78,-14,-43,-24,-29
-48,-58,-9,53,-19,-34,19,-73,-9,-43,-24,-29
-39,-53,-14,46,-12,-34,19,-73,-9,-43,-19,-29
-34,-43,-9,39,-12,-26,19,-73,-9,-39,-19,-24
-43,-43,0,43,-21,-21,9,-82,-14,-48,-9,-34
-43,-48,-4,46,-19,-26,9,-82,-14,-48,-9,-34
-43,-48,-4,46,-19,-26,9,-87,-14,-48,-14,-43
-43,-53,-9,48,-17,-31,9,-87,-19,-58,-14,-43
-43,-53,-9,48,-17,-31,14,-78,-9,-48,-14,-34
-43,-53,-9,48,-17,-31,19,-78,-9,-48,-14,-29
-43,-53,-9,48,-17,-31,24,-78,-14,-48,-14,-29
-43,-48,-4,46,-19,-26,29,-73,-14,-43,-9,-29
-53,-53,0,53,-26,-26,19,-82,-14,-53,-14,-29
-53,-58,-4,56,-24,-31,19,-87,-14,-53,-19,-29
-53,-63,-9,58,-21,-36,19,-87,-9,-53,-24,-29
-53,-68,-14,61,-19,-41,19,-82,-9,-53,-29,-29
-48,-63,-14,56,-17,-39,29,-73,-19,-53,-19,-29
-48,-63,-14,56,-17,-39,29,-73,-19,-53,-19,-29
-48,-58,-9,53,-19,-34,29,-73,-19,-53,-19,-29
-48,-58,-9,53,-19,-34,29,-73,-19,-53,-19,-29
-48,-68,-19,58,-14,-43,19,-73,-29,-53,-24,-29
-48,-68,-19,58,-14,-43,19,-73,-29,-53,-24,-29
-48,-68,-19,58,-14,-43,19,-73,-29,-53,-24,-29
-48,-68,-19,58,-14,-43,14,-78,-29,-53,-24,-34
-43,-63,-19,53,-12,-41,24,-78,-24,-43,-14,-34
-43,-58,-14,51,-14,-36,29,-78,-19,-48,-19,-34
-43,-58,-14,51,-14,-36,29,-78,-14,-48,-19,-34
-39,-53,-14,46,-12,-34,29,-78,-9,-48,-14,-34
-19,-34,-14,26,-2,-24,29,-73,-9,-48,-14,-34
-39,-39,0,39,-19,-19,29,-73,-19,-53,-14,-34
-53,-48,4,51,-29,-21,19,-82,-34,-53,-29,-34
-58,-78,-19,68,-19,-48,9,-87,-39,-68,-39,-48
-58,-68,-9,63,-24,-39,19,-78,-34,-58,-29,-43
-58,-68,-9,63,-24,-39,19,-78,-29,-58,-29,-39
-58,-68,-9,63,-24,-39,19,-78,-24,-58,-29,-34
-58,-68,-9,63,-24,-39,19,-78,-19,-58,-29,-29
-48,-68,-19,58,-14,-43,19,-78,-29,-58,-29,-29
-48,-68,-19,58,-14,-43,19,-78,-29,-58,-29,-29
-48,-68,-19,58,-14,-43,19,-78,-29,-58,-29,-29
-48,-68,-19,58,-14,-43,19,-78,-29,-58,-29,-29
-39,-58,-19,48,-9,-39,19,-78,-19,-48,-19,-39
-39,-58,-19,48,-9,-39,19,-78,-19,-48,-19,-39
-39,-58,-19,48,-9,-39,19,-78,-19,-48,-19,-39
-39,-58,-19,48,-9,-39,19,-78,-19,-48,-19,-39
-29,-58,-29,43,0,-43,19,-78,-29,-58,-29,-39
-29,-58,-29,43,0,-43,19,-78,-29,-58,-29,-39
-29,-58,-29,43,0,-43,19,-78,-29,-58,-29,-39
-29,-58,-29,43,0,-43,19,-78,-29,-58,-29,-39
-34,-68,-34,51,0,-51,19,-78,-29,-58,-29,-29
-39,-68,-29,53,-4,-48,19,-78,-29,-58,-29,-29
-43,-68,-24,56,-9,-46,19,-78,-29,-58,-29,-29
-48,-68,-19,58,-14,-43,19,-78,-29,-58,-29,-29
-43,-53,-9,48,-17,-31,29,-68,-24,-43,-24,-19
-39,-48,-9,43,-14,-29,29,-68,-19,-39,-19,-19
-34,-43,-9,39,-12,-26,29,-68,-14,-34,-14,-19
-29,-39,-9,34,-9,-24,29,-68,-9,-29,-9,-19
-29,-29,0,29,-14,-14,24,-68,0,-29,0,-19
-29,-29,0,29,-14,-14,19,-68,0,-29,0,-19
-29,-29,0,29,-14,-14,14,-68,0,-29,0,-19
-29,-19,9,24,-19,-4,9,-68,4,-24,4,-14
-24,0,24,12,-24,12,19,-58,14,-14,14,-14
-14,9,24,2,-19,17,19,-53,19,-9,19,-14
-9,14,24,-2,-17,19,19,-53,24,-4,24,-9
-4,19,24,-7,-14,21,14,-58,24,4,24,-9
-14,4,19,4,-17,12,4,-58,14,4,19,-19
-19,0,19,9,-19,9,4,-53,14,0,14,-19
-14,0,14,7,-14,7,4,-53,24,-4,14,-14
-19,4,24,7,-21,14,9,-43,29,0,19,-9
-14,9,24,2,-19,17,19,-39,39,9,29,4
-9,14,24,-2,-17,19,19,-39,53,19,34,9
4,24,19,-14,-7,21,14,-29,58,24,39,19
9,29,19,-19,-4,24,9,-24,63,34,48,24
0,24,24,-12,-12,24,0,-34,58,29,48,14
0,19,19,-9,-9,19,-9,-29,58,34,43,14
0,14,14,-7,-7,14,-14,-24,53,34,39,19
14,14,0,-14,7,7,-19,-24,48,34,39,19
34,24,-9,-29,21,7,-24,-24,48,43,43,24
34,29,-4,-31,19,12,-29,-24,43,43,48,29
34,34,0,-34,17,17,-39,-19,34,39,53,29
34,39,4,-36,14,21,-39,-29,24,39,58,29
24,34,9,-29,7,21,-48,-43,19,24,43,19
24,29,4,-26,9,17,-48,-53,9,9,43,19
24,24,0,-24,12,12,-48,-58,4,4,34,19
24,19,-4,-21,14,7,-48,-73,-4,-4,34,19
29,29,0,-29,14,14,-58,-78,-24,-9,34,19
34,34,0,-34,17,17,-58,-78,-29,-9,34,24
48,43,-4,-46,26,19,-68,-78,-29,-4,39,29
68,53,-14,-61,41,19,-73,-78,-34,0,39,34
53,53,0,-53,26,26,-78,-78,-39,-9,43,39
53,48,-4,-51,29,21,-82,-78,-43,-19,43,43
48,43,-4,-46,26,19,-82,-82,-48,-19,43,43
43,34,-9,-39,26,12,-78,-82,-48,-19,43,43
48,48,0,-48,24,24,-68,-78,-53,-9,48,43
53,43,-9,-48,31,17,-68,-78,-68,-19,43,43
58,34,-24,-46,41,4,-68,-78,-68,-24,39,48
63,29,-34,-46,48,-2,-68,-78,-68,-29,39,53
53,9,-43,-31,48,-17,-68,-87,-78,-34,19,39
53,-4,-58,-24,56,-31,-68,-87,-78,-34,19,34
53,-4,-58,-24,56,-31,-63,-87,-78,-39,19,34
48,-4,-53,-21,51,-29,-63,-92,-78,-39,19,29
43,-14,-58,-14,51,-36,-58,-82,-73,-39,14,29
39,-9,-48,-14,43,-29,-48,-78,-68,-34,14,29
34,-9,-43,-12,39,-26,-39,-78,-68,-34,14,29
24,-9,-34,-7,29,-21,-19,-73,-53,-34,9,19
9,-24,-34,7,21,-29,-19,-82,-63,-34,9,24
-4,-29,-24,17,9,-26,-9,-78,-53,-29,14,19
-14,-29,-14,21,0,-21,0,-78,-48,-24,14,19
-14,-34,-19,24,2,-26,4,-78,-48,-24,14,14
-34,-29,4,31,-19,-12,9,-73,-39,-19,19,9
-34,-29,4,31,-19,-12,19,-68,-39,-19,14,4
-34,-34,0,34,-17,-17,24,-63,-39,-24,4,4
-34,-43,-9,39,-12,-26,39,-63,-39,-34,0,-4
-43,-68,-24,56,-9,-46,29,-73,-43,-48,-9,-19
-53,-78,-24,65,-14,-51,29,-78,-43,-53,-19,-19
-53,-82,-29,68,-12,-56,29,-78,-43,-58,-24,-24
-53,-82,-29,68,-12,-56,29,-82,-43,-58,-34,-29
-53,-82,-29,68,-12,-56,34,-82,-48,-63,-34,-34
-48,-82,-34,65,-7,-58,34,-82,-48,-63,-34,-39
-43,-87,-43,65,0,-65,34,-82,-53,-63,-34,-39
-39,-87,-48,63,4,-68,39,-82,-53,-63,-34,-39
-43,-97,-53,70,4,-75,39,-82,-63,-68,-34,-39
-48,-97,-48,73,0,-73,39,-82,-63,-68,-34,-39
-58,-107,-48,82,-4,-78,39,-82,-63,-63,-34,-43
-63,-107,-43,85,-9,-75,39,-78,-58,-63,-39,-43
-63,-102,-39,82,-12,-70,48,-78,-48,-63,-39,-43
-58,-102,-43,80,-7,-73,48,-78,-48,-63,-39,-43
-58,-102,-43,80,-7,-73,48,-78,-48,-63,-39,-39
-58,-102,-43,80,-7,-73,48,-78,-48,-63,-39,-39
-58,-102,-43,80,-7,-73,48,-78,-48,-73,-48,-39
-58,-102,-43,80,-7,-73,48,-78,-48,-73,-48,-39
-58,-102,-43,80,-7,-73,48,-78,-48,-73,-48,-43
-58,-97,-39,78,-9,-68,48,-78,-48,-73,-43,-43
-68,-87,-19,78,-24,-53,48,-78,-48,-63,-34,-43
-68,-92,-24,80,-21,-58,48,-78,-48,-63,-34,-43
-68,-92,-24,80,-21,-58,48,-78,-48,-63,-34,-43
-68,-92,-24,80,-21,-58,48,-78,-48,-63,-39,-43
-48,-73,-24,61,-12,-48,58,-68,-58,-48,-19,-34
-39,-87,-48,63,4,-68,53,-73,-68,-68,-39,-43
-48,-107,-58,78,4,-82,53,-68,-48,-73,-53,-53
-73,-126,-53,100,-9,-90,53,-68,-39,-73,-63,-68
-82,-151,-68,117,-7,-109,68,-58,-48,-87,-82,-92
-73,-165,-92,119,9,-129,68,-43,-48,-97,-97,-107
-68,-175,-107,122,19,-141,78,-29,-39,-78,-97,-107
-48,-146,-97,97,24,-122,73,-14,-24,-43,-78,-102
-29,-117,-87,73,29,-102,63,4,-14,-4,-43,-87
-14,-102,-87,58,36,-95,48,4,-14,34,9,-58
4,-92,-97,43,51,-95,24,9,-19,63,53,-29
34,-78,-112,21,73,-95,-14,4,9,117,112,9
53,-43,-97,-4,75,-70,-39,14,29,180,190,63
73,-14,-87,-29,80,-51,-43,24,43,248,278,117
112,48,-63,-80,87,-7,-68,9,68,317,385,180
190,146,-43,-168,117,51,-97,-19,97,395,522,278
268,244,-24,-256,146,109,-126,-39,97,463,658,405
322,317,-4,-319,163,156,-175,-53,63,512,790,522
405,380,-24,-392,214,178,-253,-97,4,546,951,663
512,478,-34,-495,273,222,-356,-156,-73,595,1137,819
614,580,-34,-597,324,273,-463,-229,-126,639,1307,985
727,707,-19,-717,373,344,-580,-302,-200,688,1488,1151
844,858,14,-851,414,436,-697,-414,-307,707,1664,1332
912,1010,97,-961,407,553,-810,-580,-444,692,1830,1503
917,1132,214,-1024,351,673,-878,-775,-575,624,1898,1625
888,1141,253,-1015,317,697,-922,-1005,-766,439,1825,1644
819,1063,244,-941,287,653,-932,-1200,-1010,175,1615,1595
712,941,229,-827,241,585,-927,-1385,-1229,-146,1307,1488
575,746,170,-661,202,458,-858,-1507,-1390,-507,863,1278
463,522,58,-492,202,290,-761,-1551,-1468,-849,346,1024
375,351,-24,-363,200,163,-653,-1551,-1488,-1098,-73,810
307,278,-29,-292,168,124,-575,-1537,-1459,-1268,-331,673
278,229,-48,-253,163,90,-497,-1478,-1410,-1356,-483,580
244,170,-73,-207,158,48,-434,-1351,-1322,-1356,-556,497
209,102,-107,-156,158,-2,-370,-1180,-1215,-1244,-541,434
136,53,-82,-95,109,-14,-317,-1024,-1058,-1083,-488,356
43,14,-29,-29,36,-7,-253,-888,-897,-917,-448,263
-24,-14,9,19,-17,-2,-200,-751,-732,-766,-414,175
-63,-19,43,41,-53,12,-156,-610,-580,-624,-361,107
-53,-19,34,36,-43,7,-112,-478,-458,-488,-287,78
-43,-4,39,24,-41,17,-53,-370,-356,-361,-209,58
-39,-4,34,21,-36,14,-14,-283,-253,-253,-146,48
-19,0,19,9,-19,9,4,-200,-165,-170,-97,29
-29,-24,4,26,-17,-9,14,-131,-122,-122,-68,9
-48,-53,-4,51,-21,-29,29,-102,-107,-82,-63,-4
-68,-78,-9,73,-29,-43,34,-82,-87,-68,-58,-24
-63,-87,-24,75,-19,-56,43,-63,-63,-58,-48,-34
-58,-73,-14,65,-21,-43,58,-39,-43,-29,-39,-34
-53,-43,9,48,-31,-17,68,-29,-29,-19,-34,-29
-53,-58,-4,56,-24,-31,73,-29,-34,-24,-39,-43
-53,-63,-9,58,-21,-36,73,-24,-29,-24,-39,-48
-58,-63,-4,61,-26,-34,78,-14,-24,-19,-39,-48
-63,-68,-4,65,-29,-36,78,-4,-19,-19,-43,-53
-68,-82,-14,75,-26,-48,68,-14,-19,-19,-48,-58
-73,-87,-14,80,-29,-51,73,-14,-19,-24,-53,-58
-78,-92,-14,85,-31,-53,73,-14,-19,-29,-53,-63
-82,-97,-14,90,-34,-56,78,-4,-9,-24,-53,-63
-73,-82,-9,78,-31,-46,92,9,0,-19,-43,-58
-73,-82,-9,78,-31,-46,92,9,4,-14,-43,-58
-73,-82,-9,78,-31,-46,92,9,9,-4,-48,-63
-73,-92,-19,82,-26,-56,92,9,14,0,-48,-63
-82,-107,-24,95,-29,-65,78,0,9,-9,-58,-73
-87,-112,-24,100,-31,-68,78,9,0,-9,-58,-73
-87,-117,-29,102,-29,-73,78,14,-9,-9,-58,-78
-82,-122,-39,102,-21,-80,78,19,-14,0,-58,-78
-78,-107,-29,92,-24,-68,92,29,-4,9,-53,-63
-73,-102,-29,87,-21,-65,92,29,0,9,-48,-63
-73,-97,-24,85,-24,-61,92,29,4,9,-43,-68
-68,-92,-24,80,-21,-58,92,29,9,9,-39,-68
-68,-97,-29,82,-19,-63,82,29,9,0,-39,-68
-73,-102,-29,87,-21,-65,82,24,4,0,-39,-68
-78,-107,-29,92,-24,-68,82,19,0,9,-39,-68
-82,-112,-29,97,-26,-70,82,14,4,9,-39,-68
-73,-107,-34,90,-19,-70,92,19,9,19,-39,-68
-73,-102,-29,87,-21,-65,92,34,14,19,-39,-68
-73,-97,-24,85,-24,-61,92,39,24,19,-39,-68
-73,-92,-19,82,-26,-56,92,43,34,19,-39,-68
-78,-97,-19,87,-29,-58,92,39,24,9,-48,-78
-82,-102,-19,92,-31,-61,92,39,24,9,-48,-78
-87,-107,-19,97,-34,-63,92,48,24,14,-48,-78
-92,-107,-14,100,-39,-61,92,48,24,14,-48,-78
-78,-97,-19,87,-29,-58,102,53,39,19,-48,-78
-78,-102,-24,90,-26,-63,102,53,39,24,-48,-78
-73,-102,-29,87,-21,-65,102,53,39,24,-43,-78
-68,-97,-29,82,-19,-63,102,48,43,24,-43,-82
-73,-97,-24,85,-24,-61,92,48,39,24,-53,-97
-78,-107,-29,92,-24,-68,92,53,34,29,-53,-97
-82,-107,-24,95,-29,-65,92,58,29,29,-53,-97
-87,-102,-14,95,-36,-58,92,58,34,29,-53,-97
-73,-87,-14,80,-29,-51,92,63,48,34,-43,-92
-68,-87,-19,78,-24,-53,92,63,48,39,-43,-87
-63,-87,-24,75,-19,-56,92,63,48,39,-43,-87
-48,-87,-39,68,-4,-63,97,63,48,39,-43,-92
-73,-102,-29,87,-21,-65,87,63,53,29,-43,-82
-78,-102,-24,90,-26,-63,87,73,53,29,-43,-82
-82,-97,-14,90,-34,-56,87,73,63,34,-43,-82
-87,-97,-9,92,-39,-53,87,73,68,39,-43,-87
-82,-87,-4,85,-39,-46,97,82,78,48,-34,-78
-73,-87,-14,80,-29,-51,97,82,78,48,-34,-78
-58,-78,-19,68,-19,-48,97,82,78,53,-34,-82
-63,-78,-14,70,-24,-46,97,87,82,53,-34,-82
-73,-82,-9,78,-31,-46,87,78,82,48,-43,-92
-73,-92,-19,82,-26,-56,87,82,82,48,-43,-92
-82,-97,-14,90,-34,-56,87,82,78,58,-43,-92
-82,-102,-19,92,-31,-61,87,82,73,58,-39,-92
-78,-102,-24,90,-26,-63,97,97,82,58,-39,-92
-68,-97,-29,82,-19,-63,97,107,87,68,-39,-92
-63,-92,-29,78,-17,-61,97,107,97,68,-39,-87
-63,-92,-29,78,-17,-61,97,112,97,73,-34,-87
-58,-87,-29,73,-14,-58,87,102,92,73,-34,-78
-58,-87,-29,73,-14,-58,87,107,97,73,-34,-78
-58,-87,-29,73,-14,-58,87,112,102,82,-34,-78
-58,-87,-29,73,-14,-58,87,112,107,82,-34,-78
-68,-87,-19,78,-24,-53,97,126,122,97,-34,-87
-63,-82,-19,73,-21,-51,97,131,122,102,-34,-87
-63,-78,-14,70,-24,-46,97,136,122,107,-34,-87
-63,-78,-14,70,-24,-46,97,141,126,107,-34,-92
-63,-82,-19,73,-21,-51,87,136,117,102,-43,-92
-63,-82,-19,73,-21,-51,87,136,117,102,-39,-97
-63,-82,-19,73,-21,-51,87,141,126,107,-34,-97
-73,-78,-4,75,-34,-41,87,146,126,112,-34,-97
-53,-68,-14,61,-19,-41,87,161,136,122,-34,-97
-53,-68,-14,61,-19,-41,87,170,136,122,-34,-97
-53,-63,-9,58,-21,-36,92,175,146,131,-29,-92
-48,-53,-4,51,-21,-29,92,185,151,136,-29,-92
-43,-53,-9,48,-17,-31,87,190,141,141,-29,-82
-43,-58,-14,51,-14,-36,87,195,141,146,-29,-82
-39,-58,-19,48,-9,-39,87,195,141,146,-29,-82
-34,-58,-24,46,-4,-41,87,204,146,156,-29,-82
-39,-58,-19,48,-9,-39,97,214,161,161,-19,-82
-48,-58,-9,53,-19,-34,97,224,170,165,-19,-82
-53,-48,4,51,-29,-21,102,229,170,170,-19,-82
-53,-48,4,51,-29,-21,102,239,175,175,-19,-82
-43,-39,4,41,-24,-17,102,248,175,180,-24,-92
-39,-34,4,36,-21,-14,102,253,175,180,-24,-92
-34,-34,0,34,-17,-17,102,253,180,185,-24,-92
-29,-34,-4,31,-12,-19,102,263,190,195,-24,-92
-34,-34,0,34,-17,-17,92,273,190,204,-24,-92
-39,-34,4,36,-21,-14,97,283,190,204,-24,-92
-34,-39,-4,36,-14,-21,97,292,190,209,-29,-92
-39,-43,-4,41,-17,-24,97,297,195,209,-29,-92
-34,-39,-4,36,-14,-21,107,307,200,214,-19,-82
-29,-29,0,29,-14,-14,107,317,209,219,-19,-82
-24,-19,4,21,-14,-7,107,317,209,219,-19,-82
-19,-14,4,17,-12,-4,107,322,214,219,-29,-87
-24,-19,4,21,-14,-7,107,326,219,219,-43,-92
-29,-24,4,26,-17,-9,102,331,224,224,-43,-97
-34,-24,9,29,-21,-7,97,336,229,224,-43,-102
-39,-14,24,26,-31,4,92,341,229,229,-43,-107
-14,-9,4,12,-9,-2,102,356,234,239,-39,-102
-4,-4,0,4,-2,-2,107,356,239,234,-43,-102
0,0,0,0,0,0,107,361,244,229,-48,-102
-9,-4,4,7,-7,0,107,366,248,229,-58,-107
-24,-19,4,21,-14,-7,107,361,239,219,-73,-112
-29,-19,9,24,-19,-4,107,361,234,214,-82,-112
-34,-19,14,26,-24,-2,107,361,234,214,-82,-107
-39,-14,24,26,-31,4,107,361,234,209,-87,-107
-14,0,14,7,-14,7,107,370,239,209,-82,-97
-4,4,9,0,-7,7,107,370,248,209,-82,-97
0,4,4,-2,-2,4,107,370,253,209,-87,-102
0,4,4,-2,-2,4,107,370,253,200,-97,-107
-14,-9,4,12,-9,-2,97,356,248,180,-122,-117
-19,-14,4,17,-12,-4,97,356,239,180,-126,-112
-24,-14,9,19,-17,-2,97,356,234,170,-126,-107
-24,-9,14,17,-19,2,92,356,229,170,-126,-107
-9,4,14,2,-12,9,97,366,229,170,-131,-107
0,0,0,0,0,0,97,366,224,165,-131,-102
9,4,-4,-7,7,0,92,361,224,161,-136,-102
14,9,-4,-12,9,2,87,356,214,161,-136,-97
9,14,4,-12,2,9,73,341,214,156,-141,-102
9,19,9,-14,0,14,73,341,219,151,-136,-97
14,19,4,-17,4,12,68,331,219,151,-136,-92
9,19,9,-14,0,14,63,326,204,146,-136,-87
29,34,4,-31,12,19,73,331,209,151,-122,-82
29,39,9,-34,9,24,68,326,204,146,-122,-73
39,39,0,-39,19,19,63,312,200,146,-117,-63
39,39,0,-39,19,19,58,302,195,146,-117,-48
29,34,4,-31,12,19,48,283,175,131,-112,-48
29,29,0,-29,14,14,43,278,175,131,-102,-43
39,29,-9,-34,24,9,34,268,170,131,-102,-39
43,24,-19,-34,31,2,19,258,161,122,-102,-34
48,43,-4,-46,26,19,24,258,156,126,-87,-14
53,48,-4,-51,29,21,24,244,151,126,-78,-9
58,53,-4,-56,31,24,24,239,151,126,-68,-4
63,58,-4,-61,34,26,24,224,141,126,-58,0
58,43,-14,-51,36,14,14,204,131,112,-68,-4
53,43,-9,-48,31,17,9,195,117,107,-53,-4
48,43,-4,-46,26,19,4,180,112,107,-48,0
43,43,0,-43,21,21,4,161,107,102,-39,4
53,53,0,-53,26,26,9,156,112,112,-34,9
53,53,0,-53,26,26,9,151,97,112,-29,9
53,53,0,-53,26,26,4,136,87,102,-19,14
53,53,0,-53,26,26,0,122,82,102,-14,19
48,29,-19,-39,34,4,0,102,82,87,-24,9
43,24,-19,-34,31,2,0,92,73,87,-14,14
34,19,-14,-26,24,2,0,87,73,82,-9,14
24,9,-14,-17,19,-2,0,82,68,78,-4,14
29,24,-4,-26,17,9,0,68,48,78,9,24
34,29,-4,-31,19,12,0,63,43,73,9,24
29,24,-4,-26,17,9,-4,53,34,73,14,24
34,24,-9,-29,21,7,-4,43,29,68,19,24
29,19,-9,-24,19,4,4,39,19,68,19,24
24,4,-19,-14,21,-7,4,29,9,63,19,24
19,-4,-24,-7,21,-14,4,29,9,58,19,24
14,-9,-24,-2,19,-17,4,19,4,58,24,24
14,-9,-24,-2,19,-17,4,14,4,58,19,24
14,-14,-29,0,21,-21,9,14,0,58,19,24
14,-14,-29,0,21,-21,9,14,0,53,19,24
19,-14,-34,-2,26,-24,9,4,-4,53,24,24
19,-29,-48,4,34,-39,9,-4,0,39,14,14
9,-29,-39,9,24,-34,9,-4,0,39,14,14
0,-34,-34,17,17,-34,9,-9,0,39,19,14
0,-34,-34,17,17,-34,9,-14,-9,39,19,14
4,-19,-24,7,14,-21,9,-4,0,48,29,24
4,-14,-19,4,12,-17,14,-4,4,48,34,24
4,-9,-14,2,9,-12,14,-4,4,48,34,24
0,-19,-19,9,9,-19,14,-9,0,43,34,19
0,-29,-29,14,14,-29,14,-19,-4,34,34,19
0,-34,-34,17,17,-34,14,-19,-9,34,34,19
0,-34,-34,17,17,-34,14,-24,-14,34,34,19
0,-34,-34,17,17,-34,14,-24,-19,34,29,14
0,-24,-24,12,12,-24,14,-9,-14,48,39,24
0,-24,-24,12,12,-24,14,-9,-9,48,39,24
0,-24,-24,12,12,-24,19,-14,-4,43,43,24
-9,-24,-14,17,2,-19,19,-14,0,43,43,24
-9,-24,-14,17,2,-19,9,-24,-9,43,34,24
-4,-34,-29,19,12,-31,9,-24,-9,43,34,24
-4,-34,-29,19,12,-31,9,-24,-9,43,34,24
-4,-34,-29,19,12,-31,9,-19,-9,43,34,24
-14,-34,-19,24,2,-26,9,-19,-19,43,34,24
-14,-39,-24,26,4,-31,9,-19,-19,43,34,24
-14,-39,-24,26,4,-31,9,-19,-19,43,34,24
-14,-43,-29,29,7,-36,14,-19,-19,43,34,19
-4,-34,-29,19,12,-31,24,-9,-9,53,34,19
-9,-43,-34,26,12,-39,24,-9,-9,53,34,19
-14,-43,-29,29,7,-36,24,-9,-9,53,34,19
-19,-43,-24,31,2,-34,24,-9,-4,53,34,14
-29,-43,-14,36,-7,-29,24,-19,-4,53,34,4
-29,-43,-14,36,-7,-29,24,-19,-4,53,34,4
-19,-43,-24,31,2,-34,24,-19,-4,53,34,4
-19,-43,-24,31,2,-34,24,-19,-4,53,34,4
-9,-39,-29,24,9,-34,24,-9,0,58,43,14
-9,-39,-29,24,9,-34,24,-9,4,58,43,9
-14,-34,-19,24,2,-26,29,-9,9,58,39,9
-19,-29,-9,24,-4,-19,34,-4,14,58,39,9
-34,-39,-4,36,-14,-21,24,-14,9,48,34,0
-34,-43,-9,39,-12,-26,19,-14,9,48,34,0
-34,-43,-9,39,-12,-26,19,-14,9,48,34,0
-34,-39,-4,36,-14,-21,19,-14,14,48,34,0
-24,-39,-14,31,-4,-26,34,-4,14,53,24,-9
-24,-39,-14,31,-4,-26,34,-4,14,53,24,-9
-24,-39,-14,31,-4,-26,34,-4,14,53,19,-14
-24,-43,-19,34,-2,-31,34,-4,14,53,19,-14
-34,-58,-24,46,-4,-41,24,-14,14,43,4,-19
-34,-63,-29,48,-2,-46,24,-14,9,43,4,-24
-34,-68,-34,51,0,-51,24,-14,9,43,9,-34
-39,-68,-29,53,-4,-48,29,-9,9,43,9,-39
-29,-53,-24,41,-2,-39,39,0,14,53,14,-29
-29,-53,-24,41,-2,-39,39,-4,19,53,19,-24
-19,-48,-29,34,4,-39,39,-4,24,53,24,-14
-29,-48,-19,39,-4,-34,39,-4,29,53,29,-4
-34,-53,-19,43,-7,-36,29,-14,19,43,19,-4
-39,-58,-19,48,-9,-39,29,-14,19,43,19,0
-43,-63,-19,53,-12,-41,29,-14,19,43,19,0
-48,-68,-19,58,-14,-43,29,-14,24,43,9,0
-34,-63,-29,48,-2,-46,39,-14,34,48,19,-4
-29,-58,-29,43,0,-43,39,-14,24,48,19,-4
-29,-53,-24,41,-2,-39,39,-14,24,43,19,-4
-24,-48,-24,36,0,-36,39,-14,24,43,19,-4
-29,-63,-34,46,2,-48,29,-19,9,29,9,-14
-39,-68,-29,53,-4,-48,29,-19,9,29,9,-14
-48,-73,-24,61,-12,-48,29,-19,9,29,9,-14
-58,-78,-19,68,-19,-48,29,-19,9,29,9,-14
-53,-68,-14,61,-19,-41,39,-9,19,29,19,-14
-48,-63,-14,56,-17,-39,39,-9,19,34,14,-14
-43,-58,-14,51,-14,-36,39,-9,14,34,14,-19
-39,-53,-14,46,-12,-34,39,-9,9,39,9,-19
-48,-63,-14,56,-17,-39,29,-29,-4,34,-4,-19
-53,-68,-14,61,-19,-41,29,-29,-4,29,-4,-19
-58,-73,-14,65,-21,-43,29,-29,0,14,-4,-19
-63,-78,-14,70,-24,-46,29,-29,0,9,-4,-19
-48,-63,-14,56,-17,-39,39,-19,0,19,4,-19
-43,-63,-19,53,-12,-41,39,-19,0,14,4,-19
-39,-68,-29,53,-4,-48,39,-19,-9,14,4,-19
-34,-68,-34,51,0,-51,39,-19,-14,9,0,-19
-53,-87,-34,70,-9,-61,29,-34,-24,0,-4,-24
-53,-87,-34,70,-9,-61,29,-34,-24,0,-4,-24
-48,-87,-39,68,-4,-63,29,-29,-24,0,-9,-24
-48,-87,-39,68,-4,-63,29,-29,-24,-9,-24,-24
-43,-82,-39,63,-2,-61,34,-29,-14,0,-19,-14
-34,-78,-43,56,4,-61,39,-34,-19,0,-14,-14
-29,-73,-43,51,7,-58,43,-34,-19,0,-9,-14
-29,-68,-39,48,4,-53,48,-34,-19,0,-4,-14
-43,-87,-43,65,0,-65,43,-43,-29,-9,-9,-29
-48,-92,-43,70,-2,-68,39,-43,-29,-14,-14,-29
-53,-92,-39,73,-7,-65,34,-43,-29,-24,-19,-29
-58,-97,-39,78,-9,-68,29,-43,-29,-29,-24,-24
-53,-92,-39,73,-7,-65,39,-43,-39,-29,-14,-24
-53,-82,-29,68,-12,-56,39,-43,-39,-24,-19,-24
-48,-78,-29,63,-9,-53,39,-48,-43,-19,-19,-24
-43,-82,-39,63,-2,-61,39,-48,-43,-19,-24,-24
-34,-92,-58,63,12,-75,29,-48,-53,-29,-24,-24
-43,-97,-53,70,4,-75,29,-53,-53,-29,-24,-29
-43,-97,-53,70,4,-75,29,-53,-53,-29,-29,-29
-43,-92,-48,68,2,-70,29,-53,-53,-34,-29,-29
-53,-92,-39,73,-7,-65,39,-48,-53,-34,-29,-34
-53,-92,-39,73,-7,-65,39,-48,-53,-34,-29,-34
-53,-92,-39,73,-7,-65,39,-53,-53,-34,-29,-34
-53,-92,-39,73,-7,-65,39,-53,-53,-34,-29,-34
-63,-87,-24,75,-19,-56,29,-58,-58,-34,-34,-34
-63,-92,-29,78,-17,-61,29,-58,-58,-39,-34,-34
-63,-92,-29,78,-17,-61,29,-58,-58,-39,-34,-34
-63,-87,-24,75,-19,-56,29,-58,-58,-39,-34,-34
-48,-87,-39,68,-4,-63,39,-58,-48,-39,-34,-34
-43,-87,-43,65,0,-65,39,-58,-53,-39,-34,-34
-39,-87,-48,63,4,-68,39,-58,-53,-39,-39,-34
-34,-87,-53,61,9,-70,39,-58,-53,-39,-39,-34
-39,-97,-58,68,9,-78,39,-53,-53,-48,-39,-39
-43,-97,-53,70,4,-75,39,-53,-53,-48,-39,-39
-48,-97,-48,73,0,-73,39,-53,-58,-43,-39,-39
-53,-97,-43,75,-4,-70,39,-53,-58,-43,-34,-39
-43,-92,-48,68,2,-70,39,-53,-58,-39,-34,-29
-43,-87,-43,65,0,-65,39,-53,-58,-39,-34,-29
-43,-82,-39,63,-2,-61,39,-53,-53,-39,-34,-29
-43,-78,-34,61,-4,-56,39,-53,-48,-39,-39,-29
-48,-87,-39,68,-4,-63,29,-63,-48,-39,-43,-29
-48,-97,-48,73,0,-73,29,-63,-58,-39,-43,-34
-58,-97,-39,78,-9,-68,29,-68,-63,-43,-43,-39
-58,-97,-39,78,-9,-68,29,-68,-63,-43,-43,-39
-48,-102,-53,75,2,-78,29,-58,-63,-53,-43,-43
-48,-102,-53,75,2,-78,29,-58,-63,-53,-43,-43
-43,-102,-58,73,7,-80,29,-58,-63,-53,-43,-48
-43,-102,-58,73,7,-80,29,-58,-63,-53,-43,-48
-53,-97,-43,75,-4,-70,29,-58,-58,-53,-43,-39
-53,-92,-39,73,-7,-65,29,-58,-58,-53,-43,-39
-53,-87,-34,70,-9,-61,29,-58,-58,-53,-48,-39
-53,-87,-34,70,-9,-61,29,-63,-63,-53,-48,-39
-53,-97,-43,75,-4,-70,29,-63,-63,-53,-48,-39
-53,-92,-39,73,-7,-65,29,-63,-63,-53,-43,-39
-53,-92,-39,73,-7,-65,29,-63,-63,-53,-43,-39
-53,-87,-34,70,-9,-61,29,-63,-63,-53,-43,-39
-48,-78,-29,63,-9,-53,29,-63,-53,-48,-43,-29
-39,-78,-39,58,0,-58,29,-63,-53,-48,-43,-29
-34,-82,-48,58,7,-65,29,-63,-53,-48,-43,-29
-34,-87,-53,61,9,-70,29,-63,-53,-48,-48,-29
-48,-97,-48,73,0,-73,19,-73,-63,-58,-48,-39
-53,-97,-43,75,-4,-70,19,-73,-68,-58,-48,-39
-53,-97,-43,75,-4,-70,14,-73,-68,-58,-48,-39
-48,-97,-48,73,0,-73,14,-73,-68,-58,-48,-39
-39,-92,-53,65,7,-73,19,-63,-58,-48,-39,-39
-39,-87,-48,63,4,-68,24,-63,-58,-53,-43,-39
-39,-82,-43,61,2,-63,29,-63,-63,-53,-43,-39
-43,-82,-39,63,-2,-61,34,-68,-63,-53,-43,-39
-58,-87,-29,73,-14,-58,29,-68,-73,-63,-53,-39
-58,-87,-29,73,-14,-58,29,-63,-68,-63,-53,-39
-53,-92,-39,73,-7,-65,24,-63,-68,-63,-48,-39
-53,-92,-39,73,-7,-65,19,-63,-68,-58,-48,-34
-53,-82,-29,68,-12,-56,24,-53,-53,-48,-39,-34
-53,-87,-34,70,-9,-61,29,-53,-53,-48,-39,-34
-53,-87,-34,70,-9,-61,34,-58,-53,-48,-43,-43
-53,-92,-39,73,-7,-65,39,-58,-58,-58,-43,-43
-63,-107,-43,85,-9,-75,29,-68,-58,-68,-48,-43
-63,-112,-48,87,-7,-80,29,-68,-58,-68,-53,-39
-63,-117,-53,90,-4,-85,29,-68,-63,-68,-58,-39
-63,-117,-53,90,-4,-85,29,-63,-63,-63,-58,-39
-48,-107,-58,78,4,-82,39,-63,-58,-53,-48,-29
-43,-97,-53,70,4,-75,39,-68,-53,-53,-48,-29
-39,-87,-48,63,4,-68,39,-68,-43,-53,-48,-29
-34,-78,-43,56,4,-61,39,-63,-39,-53,-48,-29
-53,-97,-43,75,-4,-70,29,-73,-43,-63,-58,-39
-58,-102,-43,80,-7,-73,29,-73,-48,-63,-58,-39
-63,-102,-39,82,-12,-70,29,-73,-53,-63,-58,-39
-68,-107,-39,87,-14,-73,29,-73,-58,-63,-58,-39
-43,-97,-53,70,4,-75,39,-63,-53,-53,-58,-29
-39,-87,-48,63,4,-68,39,-63,-48,-53,-53,-29
-34,-78,-43,56,4,-61,39,-63,-43,-53,-48,-29
-29,-68,-39,48,4,-53,34,-68,-39,-53,-43,-34
-34,-78,-43,56,4,-61,24,-78,-43,-63,-53,-43
-43,-87,-43,65,0,-65,29,-78,-48,-68,-58,-43
-53,-102,-48,78,-2,-75,29,-78,-53,-68,-58,-43
-58,-112,-53,85,-2,-82,29,-78,-58,-68,-53,-43
-48,-92,-43,70,-2,-68,29,-63,-48,-58,-53,-43
-29,-78,-48,53,9,-63,39,-63,-39,-53,-43,-34
-43,-78,-34,61,-4,-56,39,-53,-34,-43,-39,-34
-48,-87,-39,68,-4,-63,39,-58,-39,-48,-48,-39
-53,-92,-39,73,-7,-65,34,-63,-48,-53,-58,-39
-58,-97,-39,78,-9,-68,29,-68,-48,-58,-58,-39
-63,-102,-39,82,-12,-70,24,-73,-48,-63,-58,-39
-68,-107,-39,87,-14,-73,19,-78,-48,-68,-58,-39
-53,-92,-39,73,-7,-65,29,-68,-39,-58,-48,-39
-48,-87,-39,68,-4,-63,29,-68,-39,-58,-48,-39
-43,-82,-39,63,-2,-61,29,-68,-39,-58,-48,-39
-39,-78,-39,58,0,-58,29,-68,-39,-58,-48,-39
-48,-82,-34,65,-7,-58,19,-68,-48,-58,-48,-48
-48,-87,-39,68,-4,-63,19,-68,-48,-58,-48,-48
-48,-92,-43,70,-2,-68,19,-68,-48,-58,-48,-48
-48,-97,-48,73,0,-73,19,-68,-48,-58,-48,-48
-43,-82,-39,63,-2,-61,29,-58,-34,-48,-39,-43
-39,-78,-39,58,0,-58,29,-58,-29,-48,-39,-39
-34,-73,-39,53,2,-56,29,-58,-24,-48,-39,-34
-29,-68,-39,48,4,-53,29,-58,-19,-48,-39,-29
-39,-58,-19,48,-9,-39,19,-58,-9,-39,-29,-29
-39,-58,-19,48,-9,-39,19,-58,-9,-39,-29,-29
-39,-58,-19,48,-9,-39,19,-58,-9,-39,-29,-29
-39,-48,-9,43,-14,-29,19,-58,-4,-34,-24,-24
-29,-39,-9,34,-9,-24,29,-58,4,-29,-24,-14
-24,-29,-4,26,-9,-17,29,-53,9,-29,-19,-14
-24,-24,0,24,-12,-12,29,-53,14,-29,-14,-9
-24,-19,4,21,-14,-7,24,-58,14,-24,-14,-9
-29,-29,0,29,-14,-14,14,-58,14,-19,-14,-9
-29,-29,0,29,-14,-14,14,-53,14,-19,-14,-9
-19,-24,-4,21,-7,-14,14,-53,24,-19,-9,-4
-19,-14,4,17,-12,-4,19,-43,29,-9,0,0
-19,-14,4,17,-12,-4,19,-39,34,-4,4,-9
-19,-14,4,17,-12,-4,19,-39,43,0,4,-9
-9,-9,0,9,-4,-4,14,-29,43,0,4,-4
-9,-9,0,9,-4,-4,9,-24,43,4,9,-4
-9,-9,0,9,-4,-4,9,-24,48,9,14,-4
-9,-9,0,9,-4,-4,0,-19,48,14,14,-4
-9,-9,0,9,-4,-4,-4,-14,43,14,14,0
4,-4,-9,0,7,-7,-9,-14,39,14,19,0
14,0,-14,-7,14,-7,-19,-19,39,14,19,4
14,0,-14,-7,14,-7,-29,-24,34,14,19,9
14,0,-14,-7,14,-7,-43,-24,24,9,19,9
14,0,-14,-7,14,-7,-48,-39,14,9,19,9
24,4,-19,-14,21,-7,-48,-43,19,14,14,19
24,9,-14,-17,19,-2,-48,-53,9,0,14,19
24,14,-9,-19,17,2,-48,-58,4,-4,4,19
24,19,-4,-21,14,7,-48,-73,-4,-14,4,19
14,14,0,-14,7,7,-48,-78,-4,-29,4,19
14,14,0,-14,7,7,-48,-78,-9,-29,4,24
24,19,-4,-21,14,7,-58,-78,-9,-24,9,29
39,24,-14,-31,26,4,-63,-78,-14,-19,9,34
48,39,-9,-43,29,14,-68,-68,-19,-19,14,29
53,39,-14,-46,34,12,-73,-68,-24,-29,14,34
53,39,-14,-46,34,12,-73,-73,-29,-29,14,34
53,34,-19,-43,36,7,-68,-73,-29,-29,14,34
48,29,-19,-39,34,4,-68,-78,-34,-29,0,29
43,14,-29,-29,36,-7,-68,-78,-48,-39,-4,24
39,-4,-43,-17,41,-24,-68,-78,-48,-43,-9,24
34,-19,-53,-7,43,-36,-68,-78,-48,-48,-9,24
43,-24,-68,-9,56,-46,-58,-78,-58,-53,-9,19
43,-34,-78,-4,61,-56,-58,-78,-58,-53,-9,14
43,-29,-73,-7,58,-51,-53,-78,-58,-58,-9,14
39,-24,-63,-7,51,-43,-53,-82,-58,-58,-9,9
19,-39,-58,9,39,-48,-48,-82,-53,-68,-14,9
9,-39,-48,14,29,-43,-39,-78,-48,-63,-14,9
0,-43,-43,21,21,-43,-29,-78,-48,-63,-14,9
-14,-48,-34,31,9,-41,-9,-73,-34,-63,-19,0
-14,-58,-43,36,14,-51,-9,-73,-24,-53,-19,-4
-24,-58,-34,41,4,-46,0,-68,-14,-48,-14,-9
-29,-53,-24,41,-2,-39,9,-68,-9,-43,-14,-9
-24,-53,-29,39,2,-41,14,-68,-9,-43,-14,-14
-48,-63,-14,56,-17,-39,14,-78,-19,-48,-19,-19
-53,-68,-14,61,-19,-41,19,-78,-19,-48,-24,-24
-58,-78,-19,68,-19,-48,19,-78,-19,-53,-34,-24
-63,-92,-29,78,-17,-61,29,-82,-19,-63,-39,-34
-58,-92,-34,75,-12,-63,39,-78,-14,-58,-43,-39
-63,-97,-34,80,-14,-65,39,-78,-14,-63,-48,-39
-58,-97,-39,78,-9,-68,39,-73,-14,-68,-48,-43
-53,-92,-39,73,-7,-65,39,-73,-14,-68,-53,-48
-63,-107,-43,85,-9,-75,39,-82,-29,-82,-73,-63
-68,-112,-43,90,-12,-78,34,-82,-29,-82,-73,-68
-73,-122,-48,97,-12,-85,29,-82,-34,-82,-73,-68
-78,-126,-48,102,-14,-87,29,-82,-34,-82,-73,-68
-63,-122,-58,92,-2,-90,34,-73,-24,-78,-63,-58
-58,-117,-58,87,0,-87,39,-73,-24,-78,-63,-58
-58,-122,-63,90,2,-92,43,-73,-24,-73,-63,-63
-53,-117,-63,85,4,-90,48,-68,-19,-73,-68,-63
-68,-117,-48,92,-9,-82,39,-73,-29,-82,-78,-73
-68,-122,-53,95,-7,-87,39,-78,-29,-82,-78,-73
-73,-126,-53,100,-9,-90,39,-82,-29,-82,-78,-68
-78,-131,-53,104,-12,-92,39,-87,-29,-82,-78,-68
-73,-117,-43,95,-14,-80,48,-82,-24,-73,-68,-58
-68,-112,-43,90,-12,-78,48,-78,-19,-73,-68,-58
-63,-107,-43,85,-9,-75,48,-73,-14,-73,-68,-63
-58,-97,-39,78,-9,-68,48,-68,-9,-73,-63,-63
-63,-112,-48,87,-7,-80,43,-78,-14,-78,-73,-63
-68,-122,-53,95,-7,-87,39,-78,-19,-82,-73,-63
-73,-126,-53,100,-9,-90,34,-78,-24,-87,-73,-63
-78,-131,-53,104,-12,-92,29,-78,-29,-92,-78,-63
-58,-102,-43,80,-7,-73,39,-68,-19,-78,-68,-63
-58,-97,-39,78,-9,-68,53,-63,0,-68,-68,-53
-58,-107,-48,82,-4,-78,63,-48,0,-73,-73,-63
-53,-136,-82,95,14,-109,63,-39,0,-92,-92,-87
-63,-170,-107,117,21,-139,68,-39,-9,-97,-112,-102
-92,-195,-102,143,4,-148,68,-34,-9,-97,-126,-117
-97,-195,-97,146,0,-146,68,-19,0,-87,-126,-117
-78,-185,-107,131,14,-146,63,-4,24,-53,-97,-122
-58,-156,-97,107,19,-126,53,4,34,-14,-63,-97
-34,-131,-97,82,31,-114,39,14,43,34,-9,-58
14,-92,-107,39,61,-100,14,19,48,82,63,-19
63,-39,-102,-12,82,-70,-14,34,68,156,141,39
92,-4,-97,-43,95,-51,-39,43,97,239,229,82
92,24,-68,-58,80,-21,-63,53,131,307,326,136
122,78,-43,-100,82,17,-87,39,156,375,434,209
170,156,-14,-163,92,70,-126,9,165,444,561,307
229,234,4,-231,112,119,-156,-9,175,502,697,414
302,307,4,-305,148,156,-185,-4,151,561,839,541
405,400,-4,-402,204,197,-263,-39,102,605,1019,692
512,507,-4,-509,258,251,-346,-97,43,653,1195,849
605,619,14,-612,295,317,-444,-161,-29,697,1366,1015
697,736,39,-717,329,387,-551,-244,-112,727,1537,1171
785,868,82,-827,351,475,-688,-366,-219,736,1703,1342
834,1019,185,-927,324,602,-800,-531,-336,732,1869,1512
839,1122,283,-980,278,702,-868,-736,-448,683,1927,1615
800,1151,351,-976,224,751,-902,-956,-619,507,1844,1634
741,1112,370,-927,185,741,-902,-1151,-834,234,1625,1595
653,1010,356,-832,148,683,-878,-1317,-1054,-107,1278,1478
527,805,278,-666,124,541,-800,-1439,-1224,-497,805,1259
405,561,156,-483,124,358,-702,-1483,-1342,-858,278,995
307,370,63,-339,122,217,-614,-1473,-1381,-1127,-122,800
229,278,48,-253,90,163,-556,-1488,-1381,-1307,-380,663
161,229,68,-195,46,148,-497,-1459,-1342,-1415,-541,561
136,180,43,-158,46,112,-424,-1332,-1254,-1385,-595,478
112,131,19,-122,46,75,-341,-1161,-1127,-1254,-561,414
68,92,24,-80,21,58,-258,-985,-971,-1083,-507,336
-14,43,58,-14,-36,51,-195,-839,-810,-927,-468,234
-92,-4,87,48,-90,41,-141,-722,-663,-775,-434,146
-122,-39,82,80,-102,21,-117,-610,-541,-653,-400,78
-102,-48,53,75,-78,2,-102,-497,-439,-527,-346,29
-102,-63,39,82,-70,-12,-63,-380,-317,-409,-268,9
-107,-63,43,85,-75,-9,-24,-273,-224,-292,-195,0
-87,-48,39,68,-63,-4,-4,-200,-146,-209,-146,-9
-48,-34,14,41,-31,-9,14,-131,-82,-141,-97,-9
-39,-14,24,26,-31,4,29,-82,-39,-92,-63,-4
-48,-29,19,39,-34,-4,34,-63,-9,-68,-58,-14
-63,-78,-14,70,-24,-46,43,-53,-14,-68,-68,-34
-68,-92,-24,80,-21,-58,48,-48,-14,-58,-68,-43
-73,-82,-9,78,-31,-46,48,-39,0,-58,-63,-48
-63,-87,-24,75,-19,-56,63,-39,4,-53,-78,-53
-63,-92,-29,78,-17,-61,63,-34,9,-53,-78,-58
-68,-92,-24,80,-21,-58,68,-24,14,-48,-78,-58
-73,-97,-24,85,-24,-61,68,-14,19,-48,-82,-63
-78,-107,-29,92,-24,-68,58,-14,19,-53,-87,-68
-82,-107,-24,95,-29,-65,63,-14,19,-53,-92,-68
-87,-107,-19,97,-34,-63,63,-14,19,-53,-92,-73
-92,-107,-14,100,-39,-61,68,-4,29,-43,-92,-73
-82,-102,-19,92,-31,-61,73,0,24,-34,-82,-78
-82,-102,-19,92,-31,-61,73,0,24,-34,-82,-78
-82,-102,-19,92,-31,-61,73,0,24,-29,-87,-82
-82,-112,-29,97,-26,-70,73,0,24,-29,-87,-82
-73,-102,-29,87,-21,-65,68,0,29,-29,-78,-82
-78,-102,-24,90,-26,-63,68,9,29,-29,-78,-82
-78,-102,-24,90,-26,-63,68,14,29,-29,-78,-87
-73,-102,-29,87,-21,-65,68,19,34,-19,-78,-87
-73,-112,-39,92,-17,-75,73,19,39,-19,-78,-92
-73,-112,-39,92,-17,-75,73,19,39,-19,-78,-92
-78,-112,-34,95,-21,-73,73,19,39,-19,-78,-97
-78,-112,-34,95,-21,-73,73,19,39,-19,-78,-97
-78,-112,-34,95,-21,-73,73,24,43,-19,-78,-87
-82,-112,-29,97,-26,-70,73,24,43,-19,-78,-87
-87,-112,-24,100,-31,-68,73,24,43,-9,-78,-87
-92,-112,-19,102,-36,-65,73,24,53,-9,-78,-87
-87,-102,-14,95,-36,-58,73,24,53,-9,-78,-87
-82,-102,-19,92,-31,-61,73,34,53,-9,-78,-87
-78,-102,-24,90,-26,-63,73,34,58,-9,-78,-87
-73,-102,-29,87,-21,-65,73,34,63,-9,-78,-87
-73,-92,-19,82,-26,-56,82,29,63,-9,-68,-87
-73,-92,-19,82,-26,-56,82,29,63,-9,-68,-87
-73,-92,-19,82,-26,-56,82,39,63,-4,-68,-87
-73,-87,-14,80,-29,-51,82,39,63,-4,-68,-87
-82,-97,-14,90,-34,-56,82,43,68,0,-78,-87
-87,-102,-14,95,-36,-58,82,43,68,4,-78,-87
-87,-102,-14,95,-36,-58,82,43,68,4,-73,-87
-87,-97,-9,92,-39,-53,82,39,73,4,-73,-92
-78,-87,-9,82,-34,-48,82,39,73,4,-73,-87
-78,-97,-19,87,-29,-58,82,43,73,9,-73,-87
-78,-97,-19,87,-29,-58,82,48,73,9,-73,-87
-78,-92,-14,85,-31,-53,82,48,82,9,-73,-87
-82,-92,-9,87,-36,-51,82,53,78,4,-82,-87
-87,-97,-9,92,-39,-53,82,53,78,9,-82,-87
-92,-102,-9,97,-41,-56,82,53,78,9,-82,-92
-87,-107,-19,97,-34,-63,87,53,78,9,-82,-102
-82,-97,-14,90,-34,-56,87,53,92,19,-73,-92
-78,-92,-14,85,-31,-53,87,63,92,19,-73,-92
-73,-82,-9,78,-31,-46,87,63,102,24,-73,-92
-68,-78,-9,73,-29,-43,87,63,107,29,-73,-97
-82,-82,0,82,-41,-41,78,63,97,29,-73,-97
-82,-87,-4,85,-39,-46,78,63,97,29,-73,-97
-78,-82,-4,80,-36,-43,78,63,97,34,-73,-102
-92,-87,4,90,-48,-41,78,68,102,34,-73,-102
-78,-78,0,78,-39,-39,78,78,117,39,-73,-92
-73,-82,-9,78,-31,-46,78,82,122,39,-73,-92
-78,-82,-4,80,-36,-43,78,82,122,48,-73,-92
-73,-82,-9,78,-31,-46,78,82,122,48,-68,-92
-82,-87,-4,85,-39,-46,78,78,112,39,-68,-102
-78,-87,-9,82,-34,-48,78,87,117,48,-68,-102
-78,-87,-9,82,-34,-48,78,87,126,48,-68,-97
-82,-92,-9,87,-36,-51,78,92,126,53,-63,-97
-73,-82,-9,78,-31,-46,87,102,141,63,-63,-97
-68,-78,-9,73,-29,-43,87,107,146,63,-63,-97
-63,-73,-9,68,-26,-41,87,112,151,73,-63,-97
-58,-68,-9,63,-24,-39,87,112,156,73,-63,-97
-68,-78,-9,73,-29,-43,78,107,151,68,-63,-107
-73,-82,-9,78,-31,-46,78,112,151,73,-63,-107
-82,-87,-4,85,-39,-46,78,117,151,78,-63,-107
-92,-97,-4,95,-43,-51,78,122,156,78,-63,-112
-73,-78,-4,75,-34,-41,87,136,165,92,-53,-107
-63,-73,-9,68,-26,-41,87,136,165,92,-48,-107
-53,-68,-14,61,-19,-41,87,141,175,97,-43,-102
-53,-58,-4,56,-24,-31,87,146,175,102,-43,-97
-53,-63,-9,58,-21,-36,78,141,175,102,-53,-107
-63,-68,-4,65,-29,-36,78,151,175,102,-53,-107
-73,-68,4,70,-39,-31,82,156,185,112,-48,-102
-78,-63,14,70,-46,-24,82,165,190,117,-48,-102
-58,-48,9,53,-34,-19,78,180,200,131,-48,-92
-53,-48,4,51,-29,-21,78,185,200,136,-48,-92
-43,-43,0,43,-21,-21,78,185,200,136,-48,-92
-34,-39,-4,36,-14,-21,78,195,204,146,-48,-92
-48,-43,4,46,-26,-19,68,200,200,141,-48,-92
-58,-48,9,53,-34,-19,68,204,209,146,-48,-92
-63,-43,19,53,-41,-12,73,204,209,151,-48,-92
-63,-48,14,56,-39,-17,73,209,214,156,-48,-92
-43,-39,4,41,-24,-17,78,229,234,170,-34,-82
-39,-24,14,31,-26,-4,82,234,234,170,-34,-82
-34,-14,19,24,-26,2,87,234,239,175,-34,-82
-29,-4,24,17,-26,9,92,244,248,185,-34,-82
-34,-9,24,21,-29,7,87,244,253,190,-43,-87
-39,-14,24,26,-31,4,87,253,248,185,-43,-92
-34,-24,9,29,-21,-7,82,263,244,185,-48,-97
-39,-34,4,36,-21,-14,78,268,244,180,-48,-102
-29,-29,0,29,-14,-14,87,287,258,190,-39,-92
-29,-19,9,24,-19,-4,87,297,268,200,-39,-92
-29,-9,19,19,-24,4,87,297,268,204,-39,-92
-29,-4,24,17,-26,9,87,302,273,209,-48,-97
-29,-4,24,17,-26,9,82,297,278,200,-53,-97
-29,-4,24,17,-26,9,82,302,283,204,-53,-97
-29,0,29,14,-29,14,82,307,287,204,-53,-97
-29,14,43,7,-36,29,82,312,287,209,-53,-97
-9,24,34,-7,-21,29,82,326,292,219,-58,-92
-4,24,29,-9,-17,26,87,326,297,214,-63,-92
-4,24,29,-9,-17,26,87,331,302,209,-68,-92
-19,14,34,2,-26,24,87,336,307,209,-78,-97
-29,4,34,12,-31,19,87,331,297,200,-82,-102
-29,9,39,9,-34,24,87,331,292,195,-92,-102
-29,14,43,7,-36,29,87,331,292,195,-92,-97
-29,24,53,2,-41,39,87,331,292,190,-97,-97
-9,34,43,-12,-26,39,87,341,292,190,-102,-97
-4,34,39,-14,-21,36,87,341,297,190,-102,-97
-4,29,34,-12,-19,31,87,341,297,190,-107,-102
-9,24,34,-7,-21,29,87,341,292,180,-117,-107
-9,24,34,-7,-21,29,78,336,292,170,-122,-107
-9,24,34,-7,-21,29,78,336,287,170,-126,-102
-9,29,39,-9,-24,34,78,336,287,161,-126,-97
-4,39,43,-17,-24,41,73,336,287,161,-126,-97
4,48,43,-26,-19,46,78,326,287,161,-131,-87
9,39,29,-24,-9,34,78,326,283,156,-131,-82
14,39,24,-26,-4,31,73,322,283,151,-136,-82
14,39,24,-26,-4,31,68,317,273,151,-136,-78
14,53,39,-34,-12,46,73,322,273,146,-131,-73
19,58,39,-39,-9,48,73,322,278,141,-126,-68
29,58,29,-43,0,43,68,312,278,141,-126,-63
29,58,29,-43,0,43,63,307,263,136,-126,-58
29,68,39,-48,-4,53,53,302,258,131,-131,-58
29,68,39,-48,-4,53,48,297,253,126,-131,-53
39,63,24,-51,7,43,43,283,248,126,-126,-48
39,58,19,-48,9,39,39,273,244,126,-126,-39
39,63,24,-51,7,43,34,263,234,122,-112,-29
39,68,29,-53,4,48,34,258,234,122,-102,-24
48,78,29,-63,9,53,29,248,229,122,-102,-19
53,82,29,-68,12,56,19,239,219,112,-102,-14
48,82,34,-65,7,58,19,229,209,107,-97,-9
43,78,34,-61,4,56,14,214,200,107,-87,-9
39,73,34,-56,2,53,9,209,195,107,-78,-9
34,68,34,-51,0,51,4,195,180,107,-68,-9
48,73,24,-61,12,48,14,190,190,102,-68,4
53,73,19,-63,17,46,9,185,175,97,-53,4
58,73,14,-65,21,43,4,175,170,97,-48,9
63,73,9,-68,26,41,4,161,165,92,-39,14
58,68,9,-63,24,39,-9,146,151,82,-39,9
53,63,9,-58,21,36,-9,141,136,82,-39,9
48,58,9,-53,19,34,-14,126,126,73,-34,14
43,53,9,-48,17,31,-19,112,122,73,-34,19
53,58,4,-56,24,31,-9,102,117,78,-34,19
53,63,9,-58,21,36,-9,92,112,78,-24,24
48,68,19,-58,14,43,-9,87,117,73,-19,24
43,68,24,-56,9,46,-9,82,117,68,-14,24
39,53,14,-46,12,34,-19,58,92,58,-19,14
34,48,14,-41,9,31,-19,53,92,53,-19,14
19,34,14,-26,2,24,-24,43,87,53,-14,14
14,24,9,-19,2,17,-24,34,87,48,-9,14
19,39,19,-29,0,29,-19,39,78,48,0,14
24,34,9,-29,7,21,-14,29,68,43,0,14
29,34,4,-31,12,19,-9,29,68,39,0,14
34,39,4,-36,14,21,-4,19,63,39,4,14
9,34,24,-21,-7,29,-14,4,53,29,0,4
4,24,19,-14,-7,21,-9,4,48,29,0,4
0,19,19,-9,-9,19,-9,4,48,24,0,4
0,14,14,-7,-7,14,-9,-4,43,24,4,4
14,14,0,-14,7,7,0,4,48,29,14,14
9,19,9,-14,0,14,0,4,48,29,14,14
4,19,14,-12,-4,17,0,0,48,29,19,14
9,24,14,-17,-2,19,0,-4,39,29,19,14
0,24,24,-12,-12,24,-9,-14,39,19,9,4
-4,14,19,-4,-12,17,-4,-14,43,19,14,4
-9,4,14,2,-12,9,-4,-14,43,19,14,4
-19,-19,0,19,-9,-9,-4,-19,39,14,14,0
-4,0,4,2,-4,2,4,-9,48,19,24,9
0,4,4,-2,-2,4,4,-9,48,24,24,9
4,14,9,-9,-2,12,4,-14,48,29,24,9
9,24,14,-17,-2,19,4,-14,48,34,19,4
4,9,4,-7,0,7,-4,-19,39,34,9,-4
0,4,4,-2,-2,4,-4,-19,39,29,9,-4
-4,0,4,2,-4,2,0,-24,39,19,14,-4
-19,-4,14,12,-17,4,0,-24,39,14,14,-4
-19,4,24,7,-21,14,9,-19,48,19,24,4
-14,-4,9,9,-12,2,9,-14,48,24,24,4
-14,-4,9,9,-12,2,9,-9,48,29,24,4
-14,-4,9,9,-12,2,9,0,48,34,24,4
-24,-4,19,14,-21,7,9,-9,39,24,14,-4
-24,-9,14,17,-19,2,9,-9,39,24,14,-4
-24,-9,14,17,-19,2,9,-9,39,24,14,-4
-24,-14,9,19,-17,-2,14,-9,39,24,14,-9
-14,-9,4,12,-9,-2,14,0,43,34,24,0
-19,-14,4,17,-12,-4,14,0,48,34,24,0
-24,-9,14,17,-19,2,14,0,53,34,24,0
-29,-4,24,17,-26,9,14,0,63,34,24,-4
-29,-14,14,21,-21,0,4,-9,58,34,14,-14
-29,-14,14,21,-21,0,4,-9,53,34,14,-14
-19,-14,4,17,-12,-4,4,-9,48,34,14,-14
-19,-14,4,17,-12,-4,4,-9,43,34,14,-14
-9,-4,4,7,-7,0,14,0,48,39,24,-4
-9,-9,0,9,-4,-4,14,0,53,39,24,-9
-14,-9,4,12,-9,-2,19,0,58,39,19,-9
-19,-9,9,14,-14,0,24,4,63,39,19,-9
-34,-19,14,26,-24,-2,14,-4,58,39,14,-9
-34,-24,9,29,-21,-7,9,-4,58,39,14,-9
-34,-24,9,29,-21,-7,9,-4,58,39,14,-9
-34,-19,14,26,-24,-2,9,-4,63,39,14,-9
-24,-9,14,17,-19,2,24,4,63,43,24,-9
-24,-9,14,17,-19,2,24,4,63,43,24,-9
-24,-9,14,17,-19,2,24,4,63,43,19,-14
-24,-14,9,19,-17,-2,24,4,63,43,19,-14
-34,-24,9,29,-21,-7,24,-4,63,43,14,-14
-34,-24,9,29,-21,-7,24,-4,58,43,14,-14
-34,-24,9,29,-21,-7,24,-4,58,43,19,-19
-39,-19,19,29,-29,0,29,0,58,43,19,-19
-29,-9,19,19,-24,4,29,9,58,34,9,-29
-29,-14,14,21,-21,0,29,4,58,34,9,-34
-19,-14,4,17,-12,-4,29,4,58,34,9,-34
-29,-19,9,24,-19,-4,29,4,58,34,9,-34
-29,-19,9,24,-19,-4,19,4,58,34,9,-34
-29,-19,9,24,-19,-4,19,4,58,34,9,-29
-29,-19,9,24,-19,-4,19,4,58,34,9,-29
-29,-19,9,24,-19,-4,19,4,63,34,0,-29
-29,-19,9,24,-19,-4,29,4,63,29,9,-24
-29,-19,9,24,-19,-4,29,4,53,29,9,-24
-34,-19,14,26,-24,-2,29,4,53,24,9,-24
-34,-19,14,26,-24,-2,29,4,53,24,9,-24
-29,-29,0,29,-14,-14,19,-9,48,19,0,-34
-29,-29,0,29,-14,-14,19,-9,48,19,0,-34
-29,-29,0,29,-14,-14,19,-9,48,19,0,-34
-29,-29,0,29,-14,-14,19,-9,48,19,0,-34
-39,-34,4,36,-21,-14,19,-9,48,14,0,-34
-39,-34,4,36,-21,-14,19,-9,48,14,-4,-34
-39,-34,4,36,-21,-14,19,-9,43,9,-4,-39
-39,-34,4,36,-21,-14,19,-9,39,9,-9,-39
-39,-34,4,36,-21,-14,19,-19,34,9,-4,-39
-34,-29,4,31,-19,-12,19,-19,34,9,-4,-39
-29,-24,4,26,-17,-9,19,-19,39,0,-4,-39
-24,-19,4,21,-14,-7,19,-19,39,0,-4,-39
-29,-19,9,24,-19,-4,19,-29,29,0,-14,-39
-34,-24,9,29,-21,-7,19,-29,29,-4,-14,-39
-39,-34,4,36,-21,-14,19,-29,19,-4,-14,-39
-43,-39,4,41,-24,-17,19,-29,14,-9,-19,-39
-48,-34,14,41,-31,-9,29,-24,24,-9,-19,-34
-43,-29,14,36,-29,-7,29,-24,24,-9,-14,-34
-34,-24,9,29,-21,-7,29,-19,24,-9,-14,-34
-29,-19,9,24,-19,-4,29,-19,24,-19,-24,-34
-39,-29,9,34,-24,-9,19,-29,14,-19,-24,-43
-43,-39,4,41,-24,-17,19,-34,9,-19,-24,-43
-53,-48,4,51,-29,-21,19,-34,9,-19,-24,-43
-68,-58,9,63,-39,-24,19,-34,9,-19,-24,-43
-58,-48,9,53,-34,-19,29,-24,19,-14,-24,-39
-48,-43,4,46,-26,-19,29,-24,19,-14,-24,-39
-39,-34,4,36,-21,-14,29,-24,19,-19,-24,-39
-29,-29,0,29,-14,-14,29,-24,19,-19,-24,-34
-39,-43,-4,41,-17,-24,19,-29,0,-34,-34,-39
-43,-43,0,43,-21,-21,19,-34,0,-34,-39,-43
-43,-48,-4,46,-19,-26,19,-43,-4,-34,-39,-48
-43,-63,-19,53,-12,-41,19,-48,-4,-39,-43,-53
-34,-58,-24,46,-4,-41,29,-43,4,-29,-39,-48
-43,-58,-14,51,-14,-36,29,-43,4,-29,-34,-48
-43,-53,-9,48,-17,-31,29,-39,4,-29,-34,-43
-43,-43,0,43,-21,-21,29,-34,4,-34,-29,-39
-53,-48,4,51,-29,-21,19,-39,-4,-43,-39,-53
-53,-53,0,53,-26,-26,19,-39,-4,-43,-39,-53
-53,-58,-4,56,-24,-31,19,-43,-4,-43,-39,-53
-53,-63,-9,58,-21,-36,19,-43,-4,-43,-39,-53
-48,-53,-4,51,-21,-29,29,-39,-9,-43,-34,-43
-43,-53,-9,48,-17,-31,29,-39,-9,-48,-34,-43
-39,-48,-9,43,-14,-29,29,-39,-9,-48,-34,-43
-34,-39,-4,36,-14,-21,29,-39,-9,-48,-34,-43
-39,-43,-4,41,-17,-24,19,-43,-19,-58,-43,-53
-43,-48,-4,46,-19,-26,19,-48,-24,-58,-43,-53
-48,-53,-4,51,-21,-29,19,-53,-24,-58,-48,-53
-53,-58,-4,56,-24,-31,19,-58,-24,-58,-48,-53
-48,-53,-4,51,-21,-29,29,-53,-14,-58,-48,-48
-43,-48,-4,46,-19,-26,29,-53,-14,-58,-48,-48
-39,-43,-4,41,-17,-24,29,-53,-19,-53,-48,-48
-34,-39,-4,36,-14,-21,29,-53,-19,-53,-43,-48
-43,-53,-9,48,-17,-31,19,-63,-29,-68,-53,-58
-43,-58,-14,51,-14,-36,19,-63,-29,-68,-53,-58
-43,-63,-19,53,-12,-41,19,-63,-24,-68,-53,-58
-43,-68,-24,56,-9,-46,19,-63,-19,-68,-58,-58
-29,-58,-29,43,0,-43,29,-53,-9,-58,-58,-53
-29,-58,-29,43,0,-43,29,-53,-19,-58,-53,-53
-39,-48,-9,43,-14,-29,29,-58,-24,-63,-48,-53
-39,-39,0,39,-19,-19,29,-58,-24,-63,-43,-48
-43,-39,4,41,-24,-17,19,-68,-24,-73,-48,-53
-48,-43,4,46,-26,-19,19,-68,-24,-73,-53,-53
-48,-48,0,48,-24,-24,19,-68,-24,-73,-58,-58
-53,-53,0,53,-26,-26,19,-68,-24,-73,-63,-58
-48,-43,4,46,-26,-19,19,-58,-19,-73,-53,-58
-43,-43,0,43,-21,-21,19,-58,-19,-73,-53,-58
-39,-43,-4,41,-17,-24,19,-58,-19,-73,-58,-58
-34,-48,-14,41,-9,-31,19,-63,-24,-73,-58,-58
-48,-53,-4,51,-21,-29,9,-73,-34,-82,-68,-58
-53,-53,0,53,-26,-26,9,-73,-34,-82,-63,-58
-58,-58,0,58,-29,-29,9,-73,-34,-82,-63,-58
-63,-58,4,61,-34,-26,9,-73,-34,-82,-63,-58
-58,-48,9,53,-34,-19,19,-63,-24,-78,-53,-48
-48,-48,0,48,-24,-24,19,-63,-24,-78,-53,-48
-43,-53,-9,48,-17,-31,19,-63,-24,-78,-53,-48
-43,-58,-14,51,-14,-36,19,-63,-24,-78,-58,-48
-43,-58,-14,51,-14,-36,19,-73,-34,-78,-58,-58
-43,-58,-14,51,-14,-36,19,-73,-39,-78,-58,-58
-39,-58,-19,48,-9,-39,14,-73,-39,-78,-58,-58
-29,-58,-29,43,0,-43,14,-73,-39,-78,-58,-58
-39,-48,-9,43,-14,-29,24,-63,-29,-78,-58,-48
-39,-48,-9,43,-14,-29,24,-63,-29,-82,-63,-48
-39,-48,-9,43,-14,-29,24,-63,-34,-82,-63,-48
-43,-53,-9,48,-17,-31,24,-68,-34,-82,-63,-48
-58,-68,-9,63,-24,-39,14,-68,-43,-92,-73,-58
-58,-68,-9,63,-24,-39,19,-63,-39,-92,-73,-58
-53,-73,-19,63,-17,-46,19,-63,-39,-92,-68,-58
-53,-73,-19,63,-17,-46,19,-63,-39,-87,-68,-53
-53,-63,-9,58,-21,-36,19,-63,-34,-78,-58,-53
-53,-68,-14,61,-19,-41,19,-63,-34,-78,-58,-53
-53,-68,-14,61,-19,-41,19,-68,-34,-78,-63,-63
-53,-73,-19,63,-17,-46,19,-68,-39,-87,-63,-63
-43,-63,-19,53,-12,-41,19,-78,-29,-78,-63,-63
-43,-63,-19,53,-12,-41,19,-78,-29,-78,-63,-58
-43,-63,-19,53,-12,-41,19,-78,-34,-78,-63,-58
-43,-58,-14,51,-14,-36,19,-73,-34,-73,-58,-58
-43,-68,-24,56,-9,-46,19,-73,-34,-82,-68,-58
-43,-68,-24,56,-9,-46,19,-78,-34,-82,-68,-58
-43,-68,-24,56,-9,-46,19,-78,-29,-82,-68,-58
-43,-68,-24,56,-9,-46,19,-73,-29,-82,-68,-58
