I, II, III, aVR, aVL, aVF, V1, V2, V3, V4, V5, V6
-156,39,195,58,-175,117,244,283,448,400,331,244
-112,0,112,56,-112,56,200,263,370,336,273,204
-68,-39,29,53,-48,-4,156,244,292,273,214,165
-48,-73,-24,61,-12,-48,126,219,229,214,170,126
-29,-107,-78,68,24,-92,97,195,165,156,126,87
-19,-136,-117,78,48,-126,68,170,117,112,87,63
-9,-165,-156,87,73,-161,39,146,68,68,48,39
4,-170,-175,82,90,-173,34,126,34,39,34,24
19,-175,-195,78,107,-185,29,107,0,9,19,9
19,-190,-209,85,114,-200,19,92,-14,-4,0,-4
19,-204,-224,92,122,-214,9,78,-29,-19,-19,-19
24,-209,-234,92,129,-222,0,68,-43,-29,-24,-24
29,-214,-244,92,136,-229,-9,58,-58,-39,-29,-29
29,-214,-244,92,136,-229,-9,58,-58,-43,-34,-34
29,-214,-244,92,136,-229,-9,58,-58,-48,-39,-39
39,-214,-253,87,146,-234,-4,58,-58,-48,-39,-39
48,-214,-263,82,156,-239,0,58,-58,-48,-39,-39
39,-224,-263,92,151,-244,0,53,-58,-53,-43,-43
29,-234,-263,102,146,-248,0,48,-58,-58,-48,-48
29,-234,-263,102,146,-248,4,48,-58,-58,-48,-48
29,-234,-263,102,146,-248,9,48,-58,-58,-48,-48
29,-234,-263,102,146,-248,9,48,-63,-58,-48,-48
29,-234,-263,102,146,-248,9,48,-68,-58,-48,-48
24,-234,-258,104,141,-246,4,43,-68,-58,-53,-53
19,-234,-253,107,136,-244,0,39,-68,-58,-58,-58
19,-234,-253,107,136,-244,0,39,-68,-58,-58,-58
19,-234,-253,107,136,-244,0,39,-68,-58,-58,-58
14,-234,-248,109,131,-241,0,34,-68,-63,-58,-58
9,-234,-244,112,126,-239,0,29,-68,-68,-58,-58
0,-244,-244,122,122,-244,0,24,-68,-68,-58,-58
-9,-253,-244,131,117,-248,0,19,-68,-68,-58,-58
-9,-253,-244,131,117,-248,4,14,-68,-68,-58,-53
-9,-253,-244,131,117,-248,9,9,-68,-68,-58,-48
-9,-248,-239,129,114,-244,14,9,-68,-63,-58,-48
-9,-244,-234,126,112,-239,19,9,-68,-58,-58,-48
-14,-244,-229,129,107,-236,19,9,-68,-58,-58,-48
-19,-244,-224,131,102,-234,19,9,-68,-58,-58,-48
-24,-253,-229,139,102,-241,19,9,-68,-63,-58,-53
-29,-263,-234,146,102,-248,19,9,-68,-68,-58,-58
-29,-263,-234,146,102,-248,19,9,-68,-68,-58,-58
-29,-263,-234,146,102,-248,19,9,-68,-68,-58,-58
-29,-263,-234,146,102,-248,19,4,-68,-68,-63,-63
-29,-263,-234,146,102,-248,19,0,-68,-68,-68,-68
-29,-263,-234,146,102,-248,19,0,-68,-68,-68,-68
-29,-263,-234,146,102,-248,19,0,-68,-68,-68,-68
-29,-263,-234,146,102,-248,19,0,-68,-68,-68,-68
-29,-263,-234,146,102,-248,19,0,-68,-68,-68,-68
-34,-263,-229,148,97,-246,19,0,-68,-73,-73,-68
-39,-263,-224,151,92,-244,19,0,-68,-78,-78,-68
-39,-263,-224,151,92,-244,19,0,-68,-78,-78,-68
-39,-263,-224,151,92,-244,19,0,-68,-78,-78,-68
-39,-263,-224,151,92,-244,14,0,-73,-78,-78,-68
-39,-263,-224,151,92,-244,9,0,-78,-78,-78,-68
-48,-273,-224,161,87,-248,9,0,-78,-78,-82,-68
-58,-283,-224,170,82,-253,9,0,-78,-78,-87,-68
-43,-273,-229,158,92,-251,9,0,-78,-78,-87,-68
-29,-263,-234,146,102,-248,9,0,-78,-78,-87,-68
-29,-263,-234,146,102,-248,9,0,-82,-82,-87,-73
-29,-263,-234,146,102,-248,9,0,-87,-87,-87,-78
-29,-263,-234,146,102,-248,4,0,-87,-87,-87,-78
-29,-263,-234,146,102,-248,0,0,-87,-87,-87,-78
-34,-268,-234,151,100,-251,0,-4,-92,-92,-92,-82
-39,-273,-234,156,97,-253,0,-9,-97,-97,-97,-87
-39,-273,-234,156,97,-253,0,-9,-97,-97,-97,-87
-39,-273,-234,156,97,-253,0,-9,-97,-97,-97,-87
-34,-268,-234,151,100,-251,0,-9,-97,-97,-97,-87
-29,-263,-234,146,102,-248,0,-9,-97,-97,-97,-87
-29,-263,-234,146,102,-248,-4,-9,-102,-97,-97,-87
-29,-263,-234,146,102,-248,-9,-9,-107,-97,-97,-87
-29,-263,-234,146,102,-248,-9,-9,-107,-97,-97,-87
-29,-263,-234,146,102,-248,-9,-9,-107,-97,-97,-87
-29,-263,-234,146,102,-248,-9,-9,-107,-97,-97,-87
-29,-263,-234,146,102,-248,-9,-9,-107,-97,-97,-87
-19,-263,-244,141,112,-253,-9,-9,-107,-97,-97,-87
-9,-263,-253,136,122,-258,-9,-9,-107,-97,-97,-87
0,-248,-248,124,124,-248,0,9,-92,-82,-87,-73
9,-234,-244,112,126,-239,9,29,-78,-68,-78,-58
9,-224,-234,107,122,-229,14,34,-73,-63,-68,-48
19,-209,-229,95,124,-219,14,39,-63,-53,-58,-39
29,-200,-229,85,129,-214,19,43,-58,-48,-48,-29
53,-185,-239,65,146,-212,34,63,-39,-29,-34,-19
58,-170,-229,56,143,-200,58,82,-19,-19,-29,-9
82,-146,-229,31,156,-187,78,107,-4,0,-9,0
107,-117,-224,4,165,-170,78,122,14,19,9,24
151,-82,-234,-34,192,-158,73,141,24,39,29,43
200,-58,-258,-70,229,-158,63,161,34,48,43,58
219,-43,-263,-87,241,-153,48,170,34,48,43,73
219,-43,-263,-87,241,-153,29,146,14,39,34,63
200,-53,-253,-73,226,-153,9,122,0,24,24,58
190,-78,-268,-56,229,-173,-4,112,-24,4,9,43
190,-102,-292,-43,241,-197,-19,112,-43,-4,0,29
195,-102,-297,-46,246,-200,-19,126,-43,-9,-9,29
195,-122,-317,-36,256,-219,-19,117,-63,-24,-24,14
185,-131,-317,-26,251,-224,-29,87,-78,-43,-34,4
165,-122,-287,-21,226,-204,-43,68,-78,-43,-39,0
141,-131,-273,-4,207,-202,-43,48,-87,-53,-48,-9
117,-161,-278,21,197,-219,-39,34,-92,-58,-58,-14
68,-165,-234,48,151,-200,-24,39,-97,-68,-58,-24
24,-180,-204,78,114,-192,-24,24,-107,-78,-68,-48
4,-204,-209,100,107,-207,-24,9,-122,-92,-87,-63
-4,-214,-209,109,102,-212,-34,-4,-131,-107,-97,-68
-9,-224,-214,117,102,-219,-39,-19,-141,-122,-112,-78
-14,-234,-219,124,102,-226,-43,-29,-151,-131,-122,-82
-34,-239,-204,136,85,-222,-48,-39,-161,-136,-126,-92
-43,-244,-200,143,78,-222,-48,-48,-165,-136,-126,-92
-43,-244,-200,143,78,-222,-43,-48,-165,-141,-131,-97
-48,-244,-195,146,73,-219,-43,-48,-161,-141,-131,-102
-48,-244,-195,146,73,-219,-43,-48,-165,-141,-131,-102
-58,-244,-185,151,63,-214,-43,-53,-175,-141,-136,-102
-68,-244,-175,156,53,-209,-43,-53,-175,-141,-136,-102
-58,-244,-185,151,63,-214,-34,-48,-175,-136,-136,-107
-58,-244,-185,151,63,-214,-34,-43,-170,-136,-136,-107
-68,-244,-175,156,53,-209,-34,-39,-161,-136,-136,-112
-87,-263,-175,175,43,-219,-4,-34,-161,-136,-141,-117
-122,-297,-175,209,26,-236,63,4,-146,-131,-141,-126
-126,-317,-190,222,31,-253,136,68,-92,-102,-141,-126
-170,-346,-175,258,2,-261,200,102,-53,-78,-131,-126
-195,-336,-141,265,-26,-239,278,151,9,-19,-87,-107
-224,-322,-97,273,-63,-209,390,244,92,39,-53,-82
-200,-244,-43,222,-78,-143,488,429,283,204,97,39
-126,-48,78,87,-102,14,497,629,561,492,366,278
58,190,131,-124,-36,161,439,844,810,795,663,561
302,409,107,-356,97,258,307,1098,995,1073,951,858
639,702,63,-671,287,383,-78,1205,1146,1366,1288,1220
976,1054,78,-1015,448,566,-844,907,1010,1356,1376,1395
1234,1249,14,-1241,610,631,-1854,-78,278,697,902,1098
1434,1098,-336,-1266,885,380,-2815,-1356,-849,-326,92,478
1605,902,-702,-1254,1154,100,-3347,-2405,-1859,-1259,-653,-117
1649,619,-1029,-1134,1339,-204,-2976,-2069,-2122,-1615,-1078,-541
1537,512,-1024,-1024,1281,-256,-2405,-1615,-1800,-1385,-966,-512
1273,458,-814,-866,1044,-178,-1859,-1361,-1415,-1083,-761,-395
922,331,-590,-627,756,-129,-1405,-1151,-1098,-844,-595,-307
644,209,-434,-427,539,-112,-990,-858,-800,-605,-434,-214
366,53,-312,-209,339,-129,-614,-575,-536,-405,-307,-180
165,-29,-195,-68,180,-112,-361,-366,-375,-287,-234,-156
39,-97,-136,29,87,-117,-200,-248,-283,-224,-195,-146
-34,-146,-112,90,39,-129,-92,-170,-209,-175,-161,-126
-82,-204,-122,143,19,-163,19,-82,-141,-126,-141,-117
-102,-224,-122,163,9,-173,63,-34,-112,-102,-126,-112
-112,-224,-112,168,0,-168,92,-9,-97,-92,-117,-102
-141,-229,-87,185,-26,-158,126,0,-78,-82,-107,-97
-151,-248,-97,200,-26,-173,136,9,-73,-73,-107,-97
-151,-253,-102,202,-24,-178,141,29,-68,-68,-102,-97
-151,-253,-102,202,-24,-178,165,48,-53,-58,-92,-92
-161,-244,-82,202,-39,-163,180,53,-39,-43,-82,-78
-170,-253,-82,212,-43,-168,185,53,-29,-34,-82,-78
-170,-253,-82,212,-43,-168,185,58,-19,-24,-78,-78
-170,-258,-87,214,-41,-173,190,63,-14,-14,-63,-78
-175,-253,-78,214,-48,-165,200,68,-4,-9,-58,-63
-180,-253,-73,217,-53,-163,204,68,4,-4,-58,-63
-180,-253,-73,217,-53,-163,204,68,9,0,-53,-63
-180,-253,-73,217,-53,-163,204,68,14,4,-43,-63
-185,-253,-68,219,-58,-161,209,68,24,14,-43,-53
-190,-253,-63,222,-63,-158,214,68,34,14,-43,-43
-190,-248,-58,219,-65,-153,214,68,39,24,-34,-34
-190,-248,-58,219,-65,-153,219,73,43,34,-29,-29
-195,-239,-43,217,-75,-141,224,73,53,39,-19,-19
-195,-234,-39,214,-78,-136,229,73,63,43,-9,-19
-195,-234,-39,214,-78,-136,229,73,73,53,-4,-19
-195,-234,-39,214,-78,-136,229,73,82,63,-4,-14
-200,-224,-24,212,-87,-124,244,78,87,68,0,-14
-200,-214,-14,207,-92,-114,248,92,102,82,14,-4
-209,-209,0,209,-104,-104,258,97,112,92,29,4
-209,-209,0,209,-104,-104,263,102,112,102,39,9
-219,-204,14,212,-117,-95,273,107,117,112,39,14
-224,-204,19,214,-122,-92,283,107,136,117,43,19
-234,-204,29,219,-131,-87,292,112,146,122,43,19
-244,-204,39,224,-141,-82,312,117,161,136,48,24
-244,-190,53,217,-148,-68,336,131,180,146,58,29
-248,-185,63,217,-156,-61,351,136,200,161,78,39
-258,-180,78,219,-168,-51,366,141,214,175,87,43
-263,-175,87,219,-175,-43,385,151,234,195,97,53
-278,-175,102,226,-190,-36,405,161,253,204,102,58
-297,-170,126,234,-212,-21,424,170,278,224,117,73
-302,-161,141,231,-222,-9,448,180,302,244,131,82
-312,-151,161,231,-236,4,478,185,331,258,146,92
-331,-141,190,236,-261,24,502,190,356,278,161,107
-346,-126,219,236,-283,46,536,190,385,302,180,117
-366,-112,253,239,-309,70,556,195,409,326,195,126
-385,-102,283,244,-334,90,575,195,434,356,204,141
-400,-78,322,239,-361,122,600,195,468,385,229,161
-424,-58,366,241,-395,153,614,195,497,405,248,170
-444,-34,409,239,-427,187,629,195,527,424,278,185
-458,-14,444,236,-451,214,644,190,556,448,292,200
-478,-4,473,241,-475,234,644,190,580,468,312,219
-492,19,512,236,-502,265,644,190,610,492,336,239
-492,39,531,226,-512,285,644,190,629,517,356,258
-483,82,566,200,-524,324,624,185,653,536,370,273
-473,122,595,175,-534,358,610,185,678,556,395,297
-458,141,600,158,-529,370,570,190,673,570,414,312
-444,141,585,151,-514,363,531,195,663,580,424,326
-414,156,570,129,-492,363,483,195,639,575,424,336
-385,165,551,109,-468,358,434,204,614,566,419,346
-336,170,507,82,-422,339,390,224,595,551,419,341
-292,151,444,70,-368,297,331,248,546,517,400,331
-244,131,375,56,-309,253,287,244,488,473,370,312
-204,102,307,51,-256,204,244,234,414,419,322,278
-156,68,224,43,-190,146,195,234,331,351,268,234
-107,34,141,36,-124,87,156,224,253,283,219,209
-68,4,73,31,-70,39,117,204,195,229,165,161
-39,-29,9,34,-24,-9,82,175,136,165,117,122
-24,-53,-29,39,2,-41,58,156,73,112,73,87
-9,-87,-78,48,34,-82,39,131,24,63,29,58
0,-117,-117,58,58,-117,14,102,-14,29,-4,39
14,-126,-141,56,78,-134,4,82,-43,9,-29,14
24,-131,-156,53,90,-143,-9,78,-63,-19,-43,9
24,-156,-180,65,102,-168,-24,58,-87,-39,-58,-4
29,-151,-180,61,104,-165,-24,43,-107,-48,-68,-14
29,-156,-185,63,107,-170,-29,34,-122,-58,-78,-19
19,-161,-180,70,100,-170,-34,29,-131,-68,-82,-19
14,-170,-185,78,100,-178,-34,19,-141,-73,-82,-24
19,-170,-190,75,104,-180,-39,14,-141,-73,-87,-29
19,-165,-185,73,102,-175,-39,19,-141,-78,-87,-29
14,-170,-185,78,100,-178,-29,24,-136,-82,-92,-34
14,-170,-185,78,100,-178,-24,29,-126,-82,-92,-34
14,-165,-180,75,97,-173,-24,19,-131,-82,-97,-39
14,-165,-180,75,97,-173,-24,19,-136,-87,-102,-39
14,-170,-185,78,100,-178,-19,19,-136,-87,-102,-39
14,-170,-185,78,100,-178,-14,19,-131,-82,-102,-39
19,-165,-185,73,102,-175,-14,19,-131,-82,-97,-39
19,-165,-185,73,102,-175,-14,14,-131,-82,-92,-43
19,-165,-185,73,102,-175,-14,14,-136,-87,-92,-43
19,-165,-185,73,102,-175,-19,9,-136,-92,-92,-39
14,-165,-180,75,97,-173,-19,4,-136,-87,-97,-39
4,-165,-170,80,87,-168,-19,0,-136,-87,-102,-39
4,-165,-170,80,87,-168,-19,4,-131,-82,-102,-39
4,-170,-175,82,90,-173,-14,4,-126,-82,-107,-43
-9,-170,-161,90,75,-165,-9,0,-131,-82,-107,-48
-14,-170,-156,92,70,-163,-4,0,-131,-82,-107,-48
-14,-175,-161,95,73,-168,-4,-4,-131,-82,-102,-53
-14,-180,-165,97,75,-173,-4,-14,-131,-87,-102,-58
-19,-180,-161,100,70,-170,-4,-14,-136,-92,-107,-58
-24,-180,-156,102,65,-168,-4,-19,-141,-92,-107,-58
-34,-185,-151,109,58,-168,0,-19,-136,-87,-107,-58
-39,-190,-151,114,56,-170,0,-24,-136,-82,-107,-53
-39,-190,-151,114,56,-170,0,-24,-136,-87,-112,-53
-39,-190,-151,114,56,-170,0,-24,-136,-87,-107,-53
-43,-185,-141,114,48,-163,0,-19,-136,-87,-102,-53
-48,-185,-136,117,43,-161,0,-19,-136,-92,-102,-58
-48,-190,-141,119,46,-165,4,-19,-136,-97,-112,-63
-48,-190,-141,119,46,-165,4,-19,-136,-97,-117,-63
-34,-180,-146,107,56,-163,4,-19,-136,-92,-117,-63
-24,-175,-151,100,63,-163,4,-19,-136,-87,-117,-63
-34,-175,-141,104,53,-158,4,-19,-136,-87,-122,-63
-43,-175,-131,109,43,-153,0,-19,-146,-92,-122,-63
-48,-180,-131,114,41,-156,0,-19,-146,-97,-122,-63
-48,-185,-136,117,43,-161,0,-19,-151,-97,-122,-63
-48,-185,-136,117,43,-161,0,-19,-151,-97,-122,-63
-48,-185,-136,117,43,-161,0,-19,-151,-97,-122,-63
-48,-185,-136,117,43,-161,0,-29,-156,-102,-126,-68
-48,-165,-117,107,34,-141,0,-29,-156,-102,-126,-73
-43,-175,-131,109,43,-153,0,-24,-156,-107,-131,-73
-43,-180,-136,112,46,-158,-4,-24,-156,-107,-131,-78
-43,-180,-136,112,46,-158,-14,-24,-165,-112,-131,-78
-43,-185,-141,114,48,-163,-19,-24,-170,-112,-136,-78
-43,-185,-141,114,48,-163,-14,-29,-170,-117,-141,-82
-48,-180,-131,114,41,-156,-14,-34,-165,-117,-146,-82
-43,-185,-141,114,48,-163,-19,-34,-170,-122,-136,-82
-29,-175,-146,102,58,-161,-24,-29,-170,-122,-131,-82
-34,-180,-146,107,56,-163,-19,-29,-175,-126,-136,-87
-39,-185,-146,112,53,-165,-14,-34,-180,-136,-141,-92
-19,-170,-151,95,65,-161,-4,-14,-161,-122,-126,-73
0,-156,-156,78,78,-156,0,0,-146,-107,-117,-58
0,-146,-146,73,73,-146,0,4,-146,-102,-107,-53
0,-136,-136,68,68,-136,0,9,-146,-97,-97,-48
19,-112,-131,46,75,-122,9,14,-131,-82,-87,-34
39,-87,-126,24,82,-107,19,29,-112,-63,-73,-19
63,-63,-126,0,95,-95,34,43,-97,-48,-63,-9
68,-48,-117,-9,92,-82,48,58,-78,-39,-53,4
92,-29,-122,-31,107,-75,63,78,-63,-19,-34,14
117,-4,-122,-56,119,-63,68,92,-43,0,-19,34
161,19,-141,-90,151,-61,63,117,-29,19,0,48
204,34,-170,-119,187,-68,63,141,-14,29,14,53
219,34,-185,-126,202,-75,53,151,-14,29,14,63
219,24,-195,-122,207,-85,29,131,-34,19,4,53
200,24,-175,-112,187,-75,9,112,-48,4,-4,58
190,9,-180,-100,185,-85,-9,102,-68,-14,-19,53
190,-14,-204,-87,197,-109,-34,97,-87,-24,-29,39
195,-19,-214,-87,204,-117,-39,102,-92,-29,-39,39
195,-43,-239,-75,217,-141,-39,87,-112,-43,-53,24
185,-53,-239,-65,212,-146,-48,58,-126,-63,-63,14
175,-39,-214,-68,195,-126,-63,39,-122,-63,-68,9
161,-34,-195,-63,178,-114,-63,29,-126,-73,-78,0
126,-53,-180,-36,153,-117,-53,24,-131,-78,-87,-4
68,-73,-141,2,104,-107,-34,19,-136,-87,-92,-14
24,-102,-126,39,75,-114,-34,-4,-146,-97,-107,-43
4,-126,-131,61,68,-129,-34,-19,-161,-112,-126,-63
-4,-136,-131,70,63,-134,-43,-34,-170,-131,-136,-68
-9,-146,-136,78,63,-141,-43,-43,-180,-146,-146,-78
-14,-161,-146,87,65,-153,-48,-48,-190,-151,-151,-82
-29,-170,-141,100,56,-156,-58,-53,-195,-156,-156,-92
-34,-175,-141,104,53,-158,-58,-58,-195,-156,-156,-82
-34,-175,-141,104,53,-158,-53,-58,-195,-161,-161,-78
-39,-175,-136,107,48,-156,-53,-58,-190,-161,-165,-97
-39,-180,-141,109,51,-161,-53,-58,-190,-161,-170,-112
-48,-185,-136,117,43,-161,-53,-63,-195,-161,-175,-112
-58,-185,-126,122,34,-156,-53,-63,-195,-165,-175,-112
-43,-175,-131,109,43,-153,-43,-58,-195,-161,-165,-107
-39,-165,-126,102,43,-146,-43,-58,-195,-156,-156,-97
-48,-165,-117,107,34,-141,-43,-58,-190,-156,-156,-102
-68,-185,-117,126,24,-151,-14,-58,-190,-156,-161,-107
-102,-219,-117,161,7,-168,53,-24,-175,-151,-161,-122
-112,-239,-126,175,7,-183,122,34,-126,-126,-161,-126
-161,-278,-117,219,-21,-197,180,58,-92,-117,-156,-131
-185,-287,-102,236,-41,-195,258,102,-29,-68,-117,-117
-229,-292,-63,261,-82,-178,375,180,34,-19,-97,-102
-224,-224,0,224,-112,-112,483,356,209,146,39,9
-156,-29,126,92,-141,48,507,561,512,444,307,248
29,209,180,-119,-75,195,458,780,790,746,605,531
258,409,151,-334,53,280,395,1078,1015,1049,902,829
580,697,117,-639,231,407,107,1259,1200,1366,1249,1190
917,1127,209,-1022,353,668,-595,1088,1171,1444,1424,1439
1171,1385,214,-1278,478,800,-1571,185,541,873,1039,1215
1376,1244,-131,-1310,753,556,-2659,-1239,-663,-195,204,585
1551,1058,-492,-1305,1022,283,-3337,-2435,-1756,-1171,-561,-14
1620,756,-863,-1188,1241,-53,-3030,-2108,-2088,-1586,-1034,-473
1537,619,-917,-1078,1227,-148,-2508,-1654,-1830,-1415,-976,-483
1273,551,-722,-912,997,-85,-1932,-1385,-1434,-1112,-771,-375
932,419,-512,-675,722,-46,-1444,-1161,-1107,-873,-605,-302
658,292,-366,-475,512,-36,-1029,-868,-810,-634,-448,-214
385,131,-253,-258,319,-61,-658,-590,-546,-434,-331,-180
185,39,-146,-112,165,-53,-395,-380,-380,-312,-263,-156
48,-39,-87,-4,68,-63,-219,-263,-283,-244,-224,-146
-24,-78,-53,51,14,-65,-107,-180,-195,-190,-180,-122
-73,-126,-53,100,-9,-90,4,-82,-117,-136,-151,-107
-87,-146,-58,117,-14,-102,48,-34,-92,-107,-136,-102
-92,-146,-53,119,-19,-100,82,-9,-78,-92,-126,-92
-122,-151,-29,136,-46,-90,117,0,-58,-82,-117,-87
-131,-170,-39,151,-46,-104,126,4,-48,-73,-117,-87
-131,-175,-43,153,-43,-109,126,19,-39,-68,-107,-87
-131,-175,-43,153,-43,-109,146,39,-24,-58,-92,-82
-146,-170,-24,158,-61,-97,161,43,-9,-43,-82,-68
-161,-185,-24,173,-68,-104,165,43,-4,-39,-82,-68
-161,-195,-34,178,-63,-114,165,48,0,-39,-82,-68
-161,-204,-43,183,-58,-124,170,53,4,-34,-73,-68
-165,-185,-19,175,-73,-102,180,58,14,-29,-68,-53
-170,-175,-4,173,-82,-90,185,58,24,-24,-68,-53
-170,-175,-4,173,-82,-90,185,58,29,-19,-58,-53
-170,-175,-4,173,-82,-90,185,58,34,-14,-43,-53
-175,-175,0,175,-87,-87,195,58,48,0,-39,-43
-180,-175,4,178,-92,-85,204,58,63,4,-34,-43
-170,-170,0,170,-85,-85,204,63,68,14,-24,-43
-161,-170,-9,165,-75,-90,209,73,73,24,-19,-39
-165,-161,4,163,-85,-78,214,73,82,29,-9,-24
-165,-156,9,161,-87,-73,219,73,92,34,0,-14
-170,-156,14,163,-92,-70,214,73,102,43,4,-9
-175,-156,19,165,-97,-68,209,73,112,53,4,-4
-180,-151,29,165,-104,-61,224,78,117,58,9,-4
-180,-146,34,163,-107,-56,229,87,131,68,19,0
-190,-141,48,165,-119,-46,239,87,146,73,29,-4
-190,-141,48,165,-119,-46,244,92,156,82,39,-9
-195,-136,58,165,-126,-39,253,97,165,97,39,4
-195,-136,58,165,-126,-39,263,97,185,112,48,24
-204,-136,68,170,-136,-34,273,97,195,122,53,29
-214,-136,78,175,-146,-29,292,97,209,136,58,34
-214,-122,92,168,-153,-14,317,112,229,146,68,39
-219,-112,107,165,-163,-2,331,117,248,161,87,48
-229,-92,136,161,-183,21,346,126,268,175,97,53
-234,-78,156,156,-195,39,366,136,292,195,107,63
-244,-78,165,161,-204,43,385,141,312,204,112,68
-263,-73,190,168,-226,58,405,146,336,224,126,78
-273,-63,209,168,-241,73,424,151,361,244,141,82
-283,-53,229,168,-256,87,448,156,390,258,156,92
-302,-43,258,173,-280,107,468,156,414,278,170,107
-317,-34,283,175,-300,124,492,151,444,302,190,117
-336,-24,312,180,-324,143,507,156,473,331,209,126
-356,-14,341,185,-348,163,527,156,502,356,224,141
-370,9,380,180,-375,195,546,151,536,375,248,161
-390,29,419,180,-405,224,561,146,566,405,268,170
-405,53,458,175,-431,256,575,146,590,434,297,185
-419,73,492,173,-456,283,585,146,614,458,312,200
-439,73,512,183,-475,292,585,141,639,478,331,204
-453,87,541,183,-497,314,585,131,668,502,356,209
-444,122,566,161,-505,344,585,131,688,527,380,244
-434,165,600,134,-517,383,566,126,702,546,400,273
-444,190,634,126,-539,412,556,126,722,566,424,297
-439,219,658,109,-549,439,527,131,732,580,444,312
-429,229,658,100,-544,444,497,136,736,590,453,326
-405,244,649,80,-527,446,453,141,727,590,458,341
-375,248,624,63,-500,436,409,156,712,590,458,351
-326,253,580,36,-453,417,370,175,692,585,458,346
-283,239,522,21,-402,380,317,209,644,556,444,341
-234,219,453,7,-344,336,278,224,590,512,419,322
-195,195,390,0,-292,292,234,229,522,458,370,287
-146,165,312,-9,-229,239,190,234,448,395,322,244
-97,131,229,-17,-163,180,156,224,380,331,283,224
-58,102,161,-21,-109,131,117,209,312,278,234,185
-29,68,97,-19,-63,82,82,185,244,214,185,151
-9,48,58,-19,-34,53,53,165,180,161,146,117
0,0,0,0,0,0,29,141,126,107,102,82
0,-48,-48,24,24,-48,4,112,78,63,63,58
24,-43,-68,9,46,-56,0,92,43,39,34,34
43,-34,-78,-4,61,-56,-4,87,24,9,14,24
43,-58,-102,7,73,-80,-14,68,4,-9,0,4
48,-58,-107,4,78,-82,-14,58,-4,-19,-9,-4
43,-73,-117,14,80,-95,-19,53,-14,-29,-19,-9
34,-82,-117,24,75,-100,-24,48,-24,-39,-29,-9
29,-92,-122,31,75,-107,-29,34,-43,-48,-34,-19
29,-97,-126,34,78,-112,-39,19,-53,-53,-39,-29
29,-97,-126,34,78,-112,-39,19,-53,-58,-39,-29
24,-102,-126,39,75,-114,-34,19,-58,-63,-43,-34
29,-102,-131,36,80,-117,-34,24,-53,-63,-43,-34
34,-97,-131,31,82,-114,-34,19,-53,-63,-43,-39
34,-102,-136,34,85,-119,-34,19,-58,-68,-43,-34
34,-112,-146,39,90,-129,-34,19,-58,-73,-43,-29
34,-112,-146,39,90,-129,-29,19,-48,-68,-39,-29
34,-112,-146,39,90,-129,-24,19,-43,-63,-34,-29
29,-117,-146,43,87,-131,-24,14,-43,-63,-34,-34
29,-117,-146,43,87,-131,-19,14,-43,-63,-34,-34
29,-117,-146,43,87,-131,-14,14,-39,-63,-34,-29
24,-117,-141,46,82,-129,-9,14,-39,-58,-34,-29
19,-112,-131,46,75,-122,-9,9,-39,-58,-29,-29
24,-107,-131,41,78,-119,-9,9,-39,-58,-24,-29
24,-112,-136,43,80,-124,-4,4,-34,-63,-29,-34
14,-112,-126,48,70,-119,-4,0,-34,-63,-29,-39
14,-112,-126,48,70,-119,-4,0,-34,-63,-29,-39
14,-112,-126,48,70,-119,-4,0,-34,-58,-24,-39
14,-117,-131,51,73,-124,-9,-9,-34,-63,-24,-39
9,-122,-131,56,70,-126,-14,-14,-34,-73,-29,-39
4,-122,-126,58,65,-124,-14,-19,-39,-73,-29,-39
-4,-126,-122,65,58,-124,-9,-19,-39,-73,-29,-43
-9,-136,-126,73,58,-131,-9,-19,-39,-68,-29,-43
-9,-141,-131,75,61,-136,-9,-14,-39,-68,-39,-43
-9,-141,-131,75,61,-136,-9,-14,-39,-68,-34,-43
-9,-136,-126,73,58,-131,-9,-9,-39,-63,-24,-39
-9,-136,-126,73,58,-131,-9,-9,-39,-63,-24,-39
-9,-141,-131,75,61,-136,-4,-9,-39,-68,-29,-43
-9,-141,-131,75,61,-136,-9,-9,-39,-73,-39,-48
-4,-136,-131,70,63,-134,-14,-9,-39,-78,-48,-53
-4,-136,-131,70,63,-134,-14,-14,-43,-78,-48,-53
-4,-136,-131,70,63,-134,-14,-19,-48,-78,-53,-53
-4,-136,-131,70,63,-134,-19,-19,-58,-82,-48,-53
-9,-141,-131,75,61,-136,-19,-19,-58,-87,-43,-53
-9,-146,-136,78,63,-141,-19,-14,-58,-87,-43,-48
-9,-146,-136,78,63,-141,-19,-9,-53,-87,-43,-43
-9,-146,-136,78,63,-141,-19,-9,-53,-82,-43,-43
-9,-156,-146,82,68,-151,-19,-19,-58,-82,-48,-48
0,-146,-146,73,73,-146,-19,-24,-58,-82,-48,-53
14,-141,-156,63,85,-148,-19,-24,-58,-87,-53,-53
4,-151,-156,73,80,-153,-19,-14,-63,-92,-53,-53
0,-165,-165,82,82,-165,-19,-9,-68,-97,-58,-58
14,-146,-161,65,87,-153,0,4,-53,-82,-39,-43
29,-126,-156,48,92,-141,19,19,-39,-68,-19,-29
34,-117,-151,41,92,-134,19,29,-29,-58,-14,-19
43,-102,-146,29,95,-124,19,34,-19,-48,-4,-9
53,-92,-146,19,100,-119,19,43,-14,-39,0,0
73,-78,-151,2,112,-114,34,63,0,-19,14,9
78,-68,-146,-4,112,-107,43,73,19,-14,19,19
102,-48,-151,-26,126,-100,48,87,34,0,39,29
126,-24,-151,-51,139,-87,48,102,53,19,58,53
170,4,-165,-87,168,-80,43,122,63,39,78,73
214,24,-190,-119,202,-82,43,141,73,48,92,87
229,34,-195,-131,212,-80,39,151,73,48,92,102
224,34,-190,-129,207,-78,24,131,58,43,87,92
200,24,-175,-112,187,-75,9,112,48,34,82,87
190,4,-185,-97,187,-90,-9,102,29,14,68,73
190,-14,-204,-87,197,-109,-29,102,14,4,58,58
204,-19,-224,-92,214,-122,-29,126,14,0,53,63
214,-43,-258,-85,236,-151,-29,126,-4,-14,43,53
204,-53,-258,-75,231,-156,-39,87,-24,-34,34,43
185,-43,-229,-70,207,-136,-53,58,-29,-34,29,39
156,-53,-209,-51,183,-131,-53,48,-39,-48,14,29
126,-82,-209,-21,168,-146,-48,43,-43,-58,0,24
78,-112,-190,17,134,-151,-34,39,-48,-68,-4,14
34,-151,-185,58,109,-168,-34,14,-58,-78,-19,-9
14,-165,-180,75,97,-173,-34,0,-68,-87,-39,-24
4,-165,-170,80,87,-168,-43,-14,-73,-97,-48,-29
0,-175,-175,87,87,-175,-43,-24,-82,-107,-58,-39
-4,-185,-180,95,87,-183,-43,-29,-92,-112,-63,-43
-19,-190,-170,104,75,-180,-48,-34,-97,-117,-68,-53
-24,-195,-170,109,73,-183,-48,-39,-97,-117,-68,-53
-19,-195,-175,107,78,-185,-43,-39,-97,-122,-68,-58
-19,-195,-175,107,78,-185,-43,-39,-92,-122,-63,-63
-19,-200,-180,109,80,-190,-43,-39,-97,-122,-63,-63
-29,-204,-175,117,73,-190,-43,-43,-107,-122,-68,-63
-39,-204,-165,122,63,-185,-43,-43,-107,-126,-68,-58
-29,-204,-175,117,73,-190,-34,-39,-107,-126,-68,-58
-29,-204,-175,117,73,-190,-39,-39,-112,-131,-73,-58
-39,-204,-165,122,63,-185,-43,-39,-112,-136,-78,-63
-58,-224,-165,141,53,-195,-14,-39,-112,-136,-82,-73
-92,-258,-165,175,36,-212,53,-4,-97,-131,-82,-87
-92,-278,-185,185,46,-231,122,53,-48,-107,-82,-87
-131,-307,-175,219,21,-241,180,82,-14,-87,-73,-87
-165,-317,-151,241,-7,-234,258,112,34,-39,-39,-78
-204,-322,-117,263,-43,-219,370,185,102,9,-14,-63
-209,-263,-53,236,-78,-158,473,366,287,161,112,34
-165,-87,78,126,-122,-4,488,561,561,434,356,248
-9,151,161,-70,-85,156,468,780,839,761,668,541
204,370,165,-287,19,268,375,1039,1054,1063,971,849
541,697,156,-619,192,427,92,1302,1307,1459,1400,1288
878,1083,204,-980,336,644,-570,1161,1273,1551,1581,1542
1132,1312,180,-1222,475,746,-1615,204,551,907,1132,1278
1327,1195,-131,-1261,729,531,-2610,-1044,-566,-102,346,692
1537,1000,-536,-1268,1037,231,-3264,-2249,-1722,-1166,-497,24
1620,717,-902,-1168,1261,-92,-3015,-2069,-2132,-1654,-1019,-473
1527,585,-941,-1056,1234,-178,-2454,-1615,-1820,-1434,-917,-458
1283,507,-775,-895,1029,-134,-1917,-1361,-1444,-1141,-722,-356
951,380,-570,-666,761,-95,-1464,-1151,-1112,-893,-556,-273
692,258,-434,-475,563,-87,-1049,-858,-800,-644,-395,-185
409,102,-307,-256,358,-102,-658,-575,-517,-424,-263,-151
204,19,-185,-112,195,-82,-390,-366,-336,-287,-185,-126
78,-48,-126,-14,102,-87,-224,-248,-244,-224,-146,-112
4,-97,-102,46,53,-100,-112,-170,-170,-175,-112,-87
-43,-156,-112,100,34,-134,0,-82,-102,-122,-82,-73
-63,-175,-112,119,24,-143,43,-34,-73,-92,-58,-63
-73,-165,-92,119,9,-129,73,-9,-58,-82,-48,-53
-102,-161,-58,131,-21,-109,107,0,-39,-73,-39,-48
-122,-200,-78,161,-21,-139,112,0,-29,-68,-43,-53
-131,-224,-92,178,-19,-158,112,9,-19,-68,-43,-58
-131,-224,-92,178,-19,-158,136,29,-4,-58,-34,-53
-141,-214,-73,178,-34,-143,151,34,9,-43,-24,-39
-141,-214,-73,178,-34,-143,161,34,19,-34,-24,-39
-131,-204,-73,168,-29,-139,165,39,29,-24,-19,-39
-141,-204,-63,173,-39,-134,170,43,34,-14,-9,-39
-156,-195,-39,175,-58,-117,180,48,43,-9,-9,-24
-161,-195,-34,178,-63,-114,185,43,48,-9,-9,-24
-161,-195,-34,178,-63,-114,185,39,48,-9,-4,-24
-156,-190,-34,173,-61,-112,180,39,53,-4,4,-24
-156,-185,-29,170,-63,-107,180,39,63,4,4,-14
-161,-180,-19,170,-70,-100,185,39,73,4,4,-14
-161,-170,-9,165,-75,-90,185,39,78,14,14,-14
-161,-170,-9,165,-75,-90,190,43,82,24,19,-9
-165,-161,4,163,-85,-78,195,43,92,29,29,0
-165,-156,9,161,-87,-73,200,43,102,34,39,4
-165,-156,9,161,-87,-73,200,43,112,43,43,9
-165,-156,9,161,-87,-73,200,39,122,53,43,9
-170,-146,24,158,-97,-61,214,39,126,58,48,4
-170,-136,34,153,-102,-51,219,43,141,68,58,9
-180,-131,48,156,-114,-41,229,39,151,73,68,14
-180,-131,48,156,-114,-41,234,43,156,82,78,19
-190,-126,63,158,-126,-31,244,48,165,92,78,24
-195,-122,73,158,-134,-24,263,48,185,107,92,34
-204,-117,87,161,-146,-14,283,53,195,122,102,39
-214,-117,97,165,-156,-9,292,58,209,136,107,48
-214,-102,112,158,-163,4,307,73,229,146,117,58
-224,-92,131,158,-178,19,322,78,248,161,136,68
-239,-82,156,161,-197,36,336,82,263,175,146,73
-244,-78,165,161,-204,43,361,87,283,195,156,82
-258,-78,180,168,-219,51,385,92,302,204,161,87
-283,-73,209,178,-246,68,405,92,326,224,175,97
-292,-63,229,178,-261,82,429,92,351,244,190,102
-302,-53,248,178,-275,97,458,97,380,258,204,112
-322,-43,278,183,-300,117,483,102,405,278,219,126
-336,-34,302,185,-319,134,512,97,434,302,239,136
-356,-24,331,190,-344,153,527,97,458,326,253,146
-375,-14,361,195,-368,173,546,97,488,346,263,161
-390,9,400,190,-395,204,570,97,527,366,287,180
-414,29,444,192,-429,236,590,97,556,395,302,190
-434,53,488,190,-461,270,610,97,585,424,326,204
-448,73,522,187,-485,297,624,92,614,448,341,219
-468,82,551,192,-509,317,624,92,639,468,361,239
-483,107,590,187,-536,348,624,92,668,492,385,258
-483,126,610,178,-546,368,624,92,688,517,405,278
-483,156,639,163,-561,397,605,92,702,536,419,292
-483,180,663,151,-573,422,590,97,717,556,444,317
-468,209,678,129,-573,444,556,102,722,570,468,331
-453,219,673,117,-563,446,522,107,722,580,483,346
-424,234,658,95,-541,446,473,117,702,580,488,361
-395,244,639,75,-517,441,424,136,683,575,488,375
-346,253,600,46,-473,427,380,156,658,566,488,375
-302,239,541,31,-422,390,322,180,605,536,468,370
-253,219,473,17,-363,346,268,190,551,488,439,351
-214,190,405,12,-309,297,214,195,483,429,390,317
-161,156,317,2,-239,236,170,200,405,366,336,273
-107,122,229,-7,-168,175,136,195,331,302,287,248
-68,92,161,-12,-114,126,102,185,263,248,234,204
-39,58,97,-9,-68,78,73,165,195,185,185,170
-19,39,58,-9,-39,48,43,146,136,131,146,136
0,9,9,-4,-4,9,19,122,92,82,107,107
9,-24,-34,7,21,-29,-4,97,48,43,73,92
24,-39,-63,7,43,-51,-14,82,14,19,48,73
34,-43,-78,4,56,-61,-24,78,-9,-9,34,63
34,-68,-102,17,68,-85,-34,58,-39,-29,19,43
39,-68,-107,14,73,-87,-34,48,-53,-39,9,29
39,-78,-117,19,78,-97,-39,43,-63,-48,0,19
39,-73,-112,17,75,-92,-43,39,-73,-58,-9,19
43,-73,-117,14,80,-95,-43,29,-82,-63,-14,14
48,-78,-126,14,87,-102,-48,19,-82,-63,-19,9
48,-78,-126,14,87,-102,-48,19,-82,-68,-19,9
34,-92,-126,29,80,-109,-43,19,-87,-73,-24,4
24,-102,-126,39,75,-114,-43,19,-87,-73,-24,4
24,-97,-122,36,73,-109,-43,9,-92,-73,-24,0
24,-97,-122,36,73,-109,-43,9,-97,-78,-24,0
34,-102,-136,34,85,-119,-43,9,-97,-82,-24,4
43,-102,-146,29,95,-124,-43,9,-92,-82,-24,9
24,-102,-126,39,75,-114,-43,9,-92,-82,-24,9
0,-107,-107,53,53,-107,-43,4,-92,-82,-24,4
14,-107,-122,46,68,-114,-39,4,-92,-82,-24,0
29,-107,-136,39,82,-122,-39,0,-87,-82,-24,0
24,-107,-131,41,78,-119,-39,-4,-87,-78,-29,0
14,-107,-122,46,68,-114,-39,-9,-87,-78,-34,0
14,-107,-122,46,68,-114,-39,-9,-87,-78,-34,0
14,-112,-126,48,70,-119,-34,-14,-87,-82,-39,-4
14,-102,-117,43,65,-109,-29,-19,-92,-82,-39,-9
24,-92,-117,34,70,-104,-24,-19,-92,-82,-39,-9
14,-102,-117,43,65,-109,-24,-19,-92,-78,-34,-9
4,-112,-117,53,61,-114,-24,-24,-92,-78,-34,-9
0,-122,-122,61,61,-122,-29,-24,-92,-82,-39,-9
-4,-131,-126,68,61,-129,-34,-29,-92,-82,-39,-9
-9,-126,-117,68,53,-122,-29,-29,-87,-82,-39,-14
-9,-122,-112,65,51,-117,-29,-34,-87,-82,-39,-14
-9,-122,-112,65,51,-117,-29,-34,-87,-87,-48,-14
-9,-122,-112,65,51,-117,-29,-34,-87,-87,-48,-14
-9,-117,-107,63,48,-112,-29,-29,-92,-82,-43,-9
-9,-117,-107,63,48,-112,-29,-29,-97,-82,-43,-9
-9,-122,-112,65,51,-117,-29,-29,-97,-87,-48,-14
-9,-122,-112,65,51,-117,-34,-29,-97,-87,-48,-14
-9,-117,-107,63,48,-112,-34,-29,-97,-87,-48,-14
-14,-117,-102,65,43,-109,-34,-29,-97,-87,-48,-14
-14,-117,-102,65,43,-109,-34,-29,-97,-87,-53,-14
-14,-117,-102,65,43,-109,-39,-29,-107,-92,-53,-14
-19,-122,-102,70,41,-112,-39,-34,-107,-97,-53,-14
-19,-126,-107,73,43,-117,-39,-39,-112,-97,-53,-14
-19,-126,-107,73,43,-117,-39,-39,-107,-97,-53,-14
-19,-126,-107,73,43,-117,-39,-39,-102,-97,-53,-14
-19,-141,-122,80,51,-131,-39,-48,-107,-102,-58,-19
-19,-136,-117,78,48,-126,-39,-48,-107,-102,-58,-24
-24,-141,-117,82,46,-129,-39,-43,-117,-112,-68,-24
-34,-141,-107,87,36,-124,-43,-43,-126,-117,-73,-29
-19,-136,-117,78,48,-126,-43,-34,-126,-112,-63,-24
-9,-136,-126,73,58,-131,-48,-29,-126,-107,-58,-19
0,-122,-122,61,61,-122,-34,-14,-112,-92,-48,-9
9,-107,-117,48,63,-112,-19,0,-97,-78,-39,0
14,-97,-112,41,63,-104,-14,4,-87,-73,-29,9
24,-82,-107,29,65,-95,-9,9,-78,-63,-19,19
39,-68,-107,14,73,-87,-9,14,-73,-58,-9,29
63,-48,-112,-7,87,-80,4,34,-58,-39,4,39
68,-39,-107,-14,87,-73,24,48,-39,-29,9,48
92,-19,-112,-36,102,-65,39,68,-24,-9,29,58
117,4,-112,-61,114,-53,39,82,-4,9,48,82
161,34,-126,-97,143,-46,34,102,4,29,68,102
204,53,-151,-129,178,-48,34,131,24,48,87,122
219,63,-156,-141,187,-46,29,151,34,58,92,141
239,73,-165,-156,202,-46,19,131,14,48,82,131
239,73,-165,-156,202,-46,9,112,0,34,73,126
209,39,-170,-124,190,-65,-19,97,-24,9,58,112
190,4,-185,-97,187,-90,-48,92,-43,-4,48,97
195,0,-195,-97,195,-97,-48,102,-43,-9,39,92
195,-24,-219,-85,207,-122,-48,87,-63,-24,24,73
185,-43,-229,-70,207,-136,-58,58,-78,-48,9,63
165,-43,-209,-61,187,-126,-73,39,-78,-53,0,58
151,-34,-185,-58,168,-109,-78,29,-92,-63,-9,48
136,-43,-180,-46,158,-112,-78,24,-102,-68,-19,43
87,-63,-151,-12,119,-107,-63,19,-107,-78,-19,39
43,-92,-136,24,90,-114,-63,-4,-117,-87,-29,19
24,-107,-131,41,78,-119,-63,-19,-131,-102,-48,4
14,-107,-122,46,68,-114,-73,-34,-141,-117,-58,0
0,-131,-131,65,65,-131,-73,-43,-151,-126,-73,-19
-14,-156,-141,85,63,-148,-73,-48,-161,-131,-82,-34
-29,-161,-131,95,51,-146,-78,-53,-165,-136,-87,-43
-34,-165,-131,100,48,-148,-78,-58,-165,-136,-87,-43
-29,-165,-136,97,53,-151,-73,-58,-165,-141,-92,-43
-29,-165,-136,97,53,-151,-73,-58,-161,-141,-92,-43
-29,-170,-141,100,56,-156,-68,-58,-161,-141,-92,-43
-39,-175,-136,107,48,-156,-63,-63,-165,-141,-97,-43
-48,-175,-126,112,39,-151,-63,-68,-165,-146,-97,-43
-39,-175,-136,107,48,-156,-53,-68,-165,-146,-97,-48
-39,-175,-136,107,48,-156,-63,-68,-170,-151,-97,-48
-48,-175,-126,112,39,-151,-73,-68,-170,-156,-97,-53
-58,-180,-122,119,31,-151,-58,-78,-175,-156,-107,-58
-82,-200,-117,141,17,-158,-4,-53,-165,-151,-112,-68
-92,-229,-136,161,21,-183,58,4,-122,-136,-117,-78
-141,-268,-126,204,-7,-197,112,34,-92,-126,-112,-87
-180,-287,-107,234,-36,-197,190,48,-63,-97,-92,-87
-224,-302,-78,263,-73,-190,302,107,-14,-68,-82,-82
-239,-263,-24,251,-107,-143,434,287,151,58,14,-9
-204,-107,97,156,-151,-4,478,483,405,307,229,180
-82,97,180,-7,-131,139,497,702,683,610,512,434
97,283,185,-190,-43,234,444,961,897,888,785,702
453,614,161,-534,146,387,253,1361,1259,1405,1312,1215
810,1005,195,-907,307,600,-317,1356,1332,1620,1590,1542
1102,1307,204,-1205,448,756,-1410,473,712,1078,1229,1361
1337,1263,-73,-1300,705,595,-2454,-702,-302,170,531,858
1581,1058,-522,-1320,1051,268,-3333,-2210,-1664,-1063,-429,112
1698,766,-932,-1232,1315,-82,-3308,-2332,-2278,-1722,-1068,-463
1649,634,-1015,-1141,1332,-190,-2718,-1815,-1995,-1542,-1010,-492
1449,556,-893,-1002,1171,-168,-2152,-1498,-1649,-1288,-858,-434
1098,453,-644,-775,871,-95,-1683,-1312,-1302,-1024,-673,-326
819,356,-463,-588,641,-53,-1254,-1044,-976,-761,-492,-214
507,180,-326,-344,417,-73,-805,-712,-649,-507,-331,-156
273,78,-195,-175,234,-58,-478,-453,-424,-336,-224,-107
122,4,-117,-63,119,-56,-302,-322,-317,-263,-185,-97
24,-48,-73,12,48,-61,-180,-229,-229,-204,-151,-78
-39,-117,-78,78,19,-97,-53,-126,-156,-146,-117,-68
-73,-146,-73,109,0,-109,4,-63,-122,-112,-87,-63
-82,-146,-63,114,-9,-104,34,-34,-107,-102,-78,-53
-112,-151,-39,131,-36,-95,68,-19,-87,-92,-68,-48
-126,-170,-43,148,-41,-107,82,-14,-78,-82,-68,-48
-131,-175,-43,153,-43,-109,92,0,-68,-78,-63,-48
-131,-175,-43,153,-43,-109,117,19,-53,-68,-58,-43
-141,-165,-24,153,-58,-95,131,24,-39,-53,-53,-29
-161,-175,-14,168,-73,-95,141,24,-29,-48,-53,-29
-170,-175,-4,173,-82,-90,146,29,-19,-43,-48,-29
-156,-170,-14,163,-70,-92,151,34,-14,-34,-34,-29
-146,-156,-9,151,-68,-82,161,39,-4,-29,-29,-14
-161,-156,4,158,-82,-75,165,39,4,-24,-29,-19
-170,-156,14,163,-92,-70,165,39,9,-19,-24,-24
-170,-156,14,163,-92,-70,165,34,9,-14,-19,-24
-175,-156,19,165,-97,-68,170,29,14,-4,-24,-14
-180,-151,29,165,-104,-61,175,29,24,-9,-24,-14
-180,-141,39,161,-109,-51,175,29,29,-4,-14,-14
-180,-141,39,161,-109,-51,175,29,29,4,-9,-9
-185,-131,53,158,-119,-39,175,24,34,9,0,0
-185,-122,63,153,-124,-29,180,24,43,14,4,0
-185,-117,68,151,-126,-24,180,24,53,24,4,0
-185,-117,68,151,-126,-24,180,24,63,34,4,4
-190,-107,82,148,-136,-12,195,29,68,39,9,4
-190,-87,102,139,-146,7,200,34,87,48,19,9
-200,-73,126,136,-163,26,209,29,102,53,29,14
-200,-73,126,136,-163,26,219,34,107,63,34,14
-209,-68,141,139,-175,36,234,39,117,73,29,14
-214,-58,156,136,-185,48,244,39,131,82,39,24
-224,-48,175,136,-200,63,253,43,136,92,43,29
-234,-48,185,141,-209,68,268,48,151,102,48,29
-234,-34,200,134,-217,82,287,63,170,107,58,29
-239,-24,214,131,-226,95,302,68,190,122,78,39
-248,-14,234,131,-241,109,317,73,204,136,87,43
-253,-9,244,131,-248,117,336,78,224,151,97,53
-268,-9,258,139,-263,124,356,82,244,156,102,58
-292,-4,287,148,-290,141,375,92,263,175,112,63
-302,4,307,148,-305,156,400,102,283,195,122,63
-317,14,331,151,-324,173,429,107,312,209,136,73
-341,24,366,158,-353,195,453,112,336,229,151,87
-356,34,390,161,-373,212,483,112,366,253,170,92
-375,43,419,165,-397,231,497,117,390,278,185,97
-395,58,453,168,-424,256,527,122,419,297,195,112
-409,87,497,161,-453,292,561,126,458,317,219,131
-424,112,536,156,-480,324,585,126,488,346,239,141
-434,141,575,146,-505,358,610,126,517,375,268,156
-448,161,610,143,-529,385,629,126,546,400,283,170
-468,170,639,148,-553,405,634,131,570,419,302,190
-483,204,688,139,-585,446,634,131,600,444,326,214
-483,234,717,124,-600,475,634,131,619,468,346,239
-488,253,741,117,-614,497,610,126,634,488,361,253
-492,268,761,112,-627,514,590,126,649,507,385,278
-478,297,775,90,-627,536,556,131,653,527,405,292
-463,307,771,78,-617,539,522,136,653,541,414,307
-434,326,761,53,-597,544,473,141,639,541,419,322
-405,341,746,31,-575,544,424,156,624,536,419,336
-356,351,707,2,-531,529,370,175,605,527,419,336
-312,336,649,-12,-480,492,302,200,556,497,400,331
-263,317,580,-26,-422,448,258,200,502,453,370,312
-224,287,512,-31,-368,400,214,195,434,400,322,278
-175,253,429,-39,-302,341,170,195,356,336,273,224
-126,219,346,-46,-236,283,136,185,283,273,229,190
-87,190,278,-51,-183,234,87,165,209,214,175,146
-58,156,214,-48,-136,185,43,136,136,146,126,112
-34,141,175,-53,-104,158,14,117,73,92,87,78
-9,117,126,-53,-68,122,-9,92,24,43,48,48
0,87,87,-43,-43,87,-39,58,-19,4,9,29
14,78,63,-46,-24,70,-53,34,-53,-19,-19,4
24,73,48,-48,-12,61,-63,24,-78,-53,-39,-4
24,48,24,-36,0,36,-73,0,-107,-78,-58,-24
34,58,24,-46,4,41,-73,-9,-122,-87,-68,-39
39,58,19,-48,9,39,-78,-14,-131,-97,-78,-48
34,53,19,-43,7,36,-82,-19,-141,-112,-87,-48
34,43,9,-39,12,26,-82,-29,-151,-122,-92,-53
39,39,0,-39,19,19,-92,-39,-151,-122,-97,-58
39,39,0,-39,19,19,-97,-39,-151,-126,-97,-58
34,34,0,-34,17,17,-92,-39,-156,-131,-102,-63
34,34,0,-34,17,17,-92,-39,-156,-131,-102,-63
34,39,4,-36,14,21,-92,-48,-161,-131,-107,-73
34,39,4,-36,14,21,-92,-48,-165,-136,-112,-78
24,34,9,-29,7,21,-92,-48,-170,-141,-112,-78
14,34,19,-24,-2,26,-92,-48,-170,-141,-112,-78
24,43,19,-34,2,31,-92,-48,-170,-141,-112,-78
29,48,19,-39,4,34,-92,-53,-170,-141,-112,-82
29,48,19,-39,4,34,-92,-53,-175,-146,-117,-82
29,48,19,-39,4,34,-97,-58,-175,-151,-122,-78
24,39,14,-31,4,26,-97,-63,-175,-146,-122,-87
14,29,14,-21,0,21,-97,-68,-175,-146,-122,-97
14,43,29,-29,-7,36,-97,-68,-170,-146,-122,-87
14,53,39,-34,-12,46,-92,-73,-165,-151,-126,-82
4,53,48,-29,-21,51,-92,-78,-170,-151,-126,-87
4,53,48,-29,-21,51,-92,-78,-170,-151,-126,-87
4,53,48,-29,-21,51,-92,-78,-170,-146,-122,-87
4,53,48,-29,-21,51,-92,-82,-170,-146,-122,-87
0,53,53,-26,-26,53,-92,-82,-170,-151,-131,-97
-4,53,58,-24,-31,56,-92,-87,-170,-151,-136,-107
-14,48,63,-17,-39,56,-87,-87,-170,-151,-136,-112
-19,43,63,-12,-41,53,-87,-92,-175,-151,-136,-112
-19,43,63,-12,-41,53,-87,-97,-175,-161,-146,-112
-19,43,63,-12,-41,53,-87,-102,-175,-165,-146,-112
-19,48,68,-14,-43,58,-92,-97,-180,-161,-141,-107
-19,48,68,-14,-43,58,-97,-97,-185,-161,-141,-107
-19,43,63,-12,-41,53,-92,-97,-185,-165,-146,-117
-19,43,63,-12,-41,53,-92,-97,-185,-165,-146,-122
-14,48,63,-17,-39,56,-92,-97,-185,-165,-146,-122
-14,48,63,-17,-39,56,-92,-97,-185,-165,-146,-122
-19,48,68,-14,-43,58,-92,-97,-180,-165,-151,-122
-24,48,73,-12,-48,61,-97,-97,-185,-170,-151,-122
-29,43,73,-7,-51,58,-97,-97,-185,-175,-156,-126
-29,39,68,-4,-48,53,-97,-97,-190,-175,-161,-131
-29,39,68,-4,-48,53,-97,-97,-195,-175,-161,-131
-29,39,68,-4,-48,53,-97,-97,-200,-175,-161,-131
-29,29,58,0,-43,43,-92,-107,-204,-180,-165,-131
-29,39,68,-4,-48,53,-87,-107,-204,-180,-165,-131
-24,39,63,-7,-43,51,-87,-102,-204,-185,-170,-131
-24,43,68,-9,-46,56,-92,-102,-204,-185,-170,-136
-24,43,68,-9,-46,56,-97,-102,-209,-190,-170,-141
-19,39,58,-9,-39,48,-92,-102,-209,-190,-175,-146
-9,43,53,-17,-31,48,-92,-97,-204,-185,-175,-136
-4,48,53,-21,-29,51,-92,-92,-204,-185,-175,-126
4,58,53,-31,-24,56,-82,-78,-195,-175,-165,-122
19,68,48,-43,-14,58,-78,-68,-185,-165,-156,-117
24,78,53,-51,-14,65,-73,-58,-175,-156,-141,-107
29,87,58,-58,-14,73,-68,-48,-165,-146,-126,-97
39,102,63,-70,-12,82,-68,-48,-165,-141,-122,-92
53,117,63,-85,-4,90,-58,-34,-156,-126,-112,-82
73,136,63,-104,4,100,-53,-24,-146,-117,-107,-78
78,146,68,-112,4,107,-39,-9,-126,-107,-102,-63
102,165,63,-134,19,114,-29,9,-112,-87,-82,-53
126,190,63,-158,31,126,-29,24,-92,-68,-68,-34
170,219,48,-195,61,134,-34,43,-82,-48,-48,-14
214,239,24,-226,95,131,-34,63,-73,-39,-34,-4
229,248,19,-239,104,134,-39,73,-73,-39,-34,4
229,248,19,-239,104,134,-58,53,-92,-48,-43,-4
209,239,29,-224,90,134,-78,34,-107,-68,-53,-9
200,214,14,-207,92,114,-97,24,-126,-92,-68,-24
204,190,-14,-197,109,87,-117,24,-141,-102,-73,-34
214,185,-29,-200,122,78,-117,34,-141,-107,-78,-29
214,161,-53,-187,134,53,-117,19,-165,-122,-92,-43
204,151,-53,-178,129,48,-126,-9,-185,-141,-102,-53
180,161,-19,-170,100,70,-141,-29,-185,-141,-112,-58
151,161,9,-156,70,85,-141,-39,-195,-151,-126,-68
126,136,9,-131,58,73,-136,-43,-200,-156,-136,-73
78,112,34,-95,21,73,-122,-48,-204,-165,-141,-82
24,82,58,-53,-17,70,-122,-73,-209,-175,-156,-107
-4,58,63,-26,-34,61,-122,-87,-219,-190,-175,-122
-4,53,58,-24,-31,56,-131,-102,-229,-204,-185,-131
0,48,48,-24,-24,48,-131,-112,-239,-214,-195,-146
-4,39,43,-17,-24,41,-131,-117,-253,-219,-200,-151
-19,34,53,-7,-36,43,-136,-122,-263,-224,-204,-161
-29,24,53,2,-41,39,-136,-126,-263,-224,-204,-161
-34,19,53,7,-43,36,-131,-126,-263,-229,-209,-165
-39,14,53,12,-46,34,-131,-126,-258,-229,-209,-170
-39,4,43,17,-41,24,-131,-126,-258,-229,-209,-170
-48,0,48,24,-48,24,-131,-136,-263,-229,-214,-165
-58,0,58,29,-58,29,-131,-141,-263,-234,-214,-161
-43,0,43,21,-43,21,-122,-136,-263,-234,-214,-165
-39,0,39,19,-39,19,-122,-136,-263,-234,-214,-165
-48,0,48,24,-48,24,-122,-131,-258,-234,-214,-170
-68,-19,48,43,-58,14,-92,-126,-258,-234,-219,-175
-107,-58,48,82,-78,-4,-24,-92,-244,-229,-219,-185
-122,-82,39,102,-80,-21,43,-34,-195,-204,-219,-185
-170,-112,58,141,-114,-26,102,-4,-161,-185,-209,-185
-195,-112,82,153,-139,-14,180,43,-97,-126,-165,-165
-224,-112,112,168,-168,0,292,136,-29,-82,-146,-151
-204,-39,165,122,-185,63,395,326,151,78,-9,-39
-136,156,292,-9,-214,224,419,531,434,375,253,190
48,395,346,-222,-148,370,370,751,692,678,546,463
292,605,312,-448,-9,458,248,1010,888,956,834,761
629,902,273,-766,178,588,-97,1151,1044,1249,1171,1122
976,1278,302,-1127,336,790,-834,897,936,1263,1278,1307
1239,1483,244,-1361,497,863,-1844,-87,229,629,824,1019
1444,1332,-112,-1388,778,610,-2854,-1444,-912,-405,4,400
1620,1137,-483,-1378,1051,326,-3455,-2571,-1942,-1346,-746,-190
1678,858,-819,-1268,1249,19,-3103,-2225,-2225,-1717,-1176,-624
1586,746,-839,-1166,1212,-46,-2537,-1751,-1917,-1503,-1073,-610
1302,683,-619,-993,961,31,-1991,-1493,-1532,-1200,-868,-483
941,556,-385,-749,663,85,-1532,-1278,-1215,-961,-702,-390
673,439,-234,-556,453,102,-1107,-966,-907,-712,-531,-292
405,287,-117,-346,261,85,-727,-668,-634,-502,-400,-248
200,204,4,-202,97,104,-463,-453,-463,-380,-326,-224
58,136,78,-97,-9,107,-287,-331,-361,-312,-283,-214
-14,82,97,-34,-56,90,-180,-253,-287,-263,-248,-195
-63,19,82,21,-73,51,-73,-161,-224,-214,-229,-185
-87,0,87,43,-87,43,-24,-112,-200,-190,-209,-175
-102,0,102,51,-102,51,14,-87,-185,-180,-195,-161
-131,-4,126,68,-129,61,48,-73,-165,-170,-185,-156
-141,-24,117,82,-129,46,58,-63,-156,-161,-185,-156
-151,-29,122,90,-136,46,63,-48,-146,-156,-180,-156
-161,-29,131,95,-146,51,87,-29,-131,-146,-170,-151
-151,-19,131,85,-141,56,102,-24,-112,-131,-161,-136
-141,-29,112,85,-126,41,107,-24,-102,-126,-161,-136
-151,-29,122,90,-136,46,107,-19,-97,-122,-156,-136
-161,-29,131,95,-146,51,112,-14,-92,-112,-141,-136
-165,-29,136,97,-151,53,122,-9,-87,-102,-136,-122
-170,-39,131,104,-151,46,126,-9,-82,-92,-136,-122
-180,-39,141,109,-161,51,126,-9,-78,-87,-131,-122
-190,-39,151,114,-170,56,126,-9,-73,-82,-122,-122
-185,-34,151,109,-168,58,136,0,-58,-73,-122,-112
-180,-29,151,104,-165,61,146,9,-43,-73,-122,-112
-170,-9,161,90,-165,75,146,9,-39,-63,-112,-112
-161,4,165,78,-163,85,151,14,-34,-53,-107,-107
-175,0,175,87,-175,87,156,9,-24,-48,-97,-97
-185,-9,175,97,-180,82,161,4,-14,-43,-87,-92
-185,-9,175,97,-180,82,161,4,-4,-34,-82,-87
-185,-9,175,97,-180,82,161,4,4,-24,-82,-82
-190,0,190,95,-190,95,175,9,9,-19,-78,-82
-190,9,200,90,-195,104,180,19,24,-9,-68,-78
-200,14,214,92,-207,114,190,24,34,0,-58,-73
-200,14,214,92,-207,114,195,34,39,14,-48,-68
-209,19,229,95,-219,124,204,39,48,24,-48,-63
-214,19,234,97,-224,126,214,39,68,34,-39,-53
-224,14,239,104,-231,126,224,48,78,43,-29,-43
-234,9,244,112,-239,126,244,58,92,58,-19,-34
-234,24,258,104,-246,141,273,78,117,68,-9,-29
-239,34,273,102,-256,153,292,87,141,82,9,-19
-248,43,292,102,-270,168,307,92,156,97,19,-14
-253,48,302,102,-278,175,326,97,175,117,29,-4
-268,48,317,109,-292,183,351,102,195,126,34,0
-292,53,346,119,-319,200,375,107,219,146,48,9
-292,73,366,109,-329,219,405,122,248,170,63,14
-292,92,385,100,-339,239,439,136,283,190,78,24
-322,92,414,114,-368,253,463,141,307,209,92,39
-346,92,439,126,-392,265,492,141,336,234,112,48
-366,102,468,131,-417,285,507,146,361,258,126,58
-385,112,497,136,-441,305,527,146,385,278,136,73
-400,136,536,131,-468,336,551,146,419,297,161,92
-419,156,575,131,-497,366,570,146,448,326,180,102
-434,180,614,126,-524,397,590,146,488,361,214,122
-448,200,649,124,-549,424,605,146,527,390,234,141
-468,209,678,129,-573,444,605,156,551,409,253,161
-483,234,717,124,-600,475,605,161,580,434,278,180
-483,248,732,117,-607,490,600,161,595,453,297,195
-483,273,756,104,-619,514,575,156,605,468,312,204
-478,297,775,90,-627,536,561,151,619,488,331,229
-458,326,785,65,-622,556,527,151,624,502,346,244
-444,336,780,53,-612,558,492,156,624,507,356,253
-414,351,766,31,-590,558,444,161,610,502,361,263
-385,356,741,14,-563,549,395,175,585,497,361,278
-336,361,697,-12,-517,529,351,195,556,488,361,278
-292,346,639,-26,-466,492,287,209,502,453,336,268
-244,326,570,-41,-407,448,239,204,444,405,302,244
-204,297,502,-46,-353,400,190,200,375,351,253,209
-156,263,419,-53,-287,341,141,195,302,287,204,165
-92,229,322,-68,-207,275,107,180,234,224,161,141
-39,200,239,-80,-139,219,68,161,165,170,107,97
-19,165,185,-73,-102,175,29,131,97,107,58,63
-9,146,156,-68,-82,151,-4,107,34,53,19,29
9,117,107,-63,-48,112,-29,78,-9,9,-14,0
19,87,68,-53,-24,78,-53,43,-48,-24,-43,-19
29,82,53,-56,-12,68,-58,24,-78,-48,-68,-39
34,82,48,-58,-7,65,-63,19,-92,-78,-82,-43
34,58,24,-46,4,41,-73,0,-117,-97,-97,-63
39,58,19,-48,9,39,-73,-9,-131,-107,-107,-73
39,48,9,-43,14,29,-78,-14,-141,-117,-117,-78
34,43,9,-39,12,26,-82,-19,-151,-126,-126,-78
34,34,0,-34,17,17,-82,-24,-161,-131,-131,-82
39,29,-9,-34,24,9,-87,-29,-161,-131,-136,-87
43,29,-14,-36,29,7,-87,-29,-165,-136,-136,-87
43,24,-19,-34,31,2,-82,-29,-175,-141,-141,-92
43,24,-19,-34,31,2,-82,-29,-175,-141,-141,-92
43,29,-14,-36,29,7,-82,-39,-180,-141,-141,-97
39,19,-19,-29,29,0,-82,-39,-180,-146,-146,-97
34,4,-29,-19,31,-12,-82,-39,-175,-151,-151,-97
34,4,-29,-19,31,-12,-82,-39,-170,-151,-151,-97
34,4,-29,-19,31,-12,-82,-39,-170,-151,-151,-97
34,9,-24,-21,29,-7,-78,-39,-165,-146,-146,-102
39,19,-19,-29,29,0,-68,-34,-161,-141,-141,-102
39,19,-19,-29,29,0,-68,-39,-156,-141,-141,-97
34,19,-14,-26,24,2,-68,-43,-156,-136,-141,-97
24,14,-9,-19,17,2,-68,-53,-156,-136,-141,-97
24,9,-14,-17,19,-2,-68,-58,-156,-136,-141,-97
19,4,-14,-12,17,-4,-63,-63,-156,-141,-146,-102
4,4,0,-4,2,2,-63,-68,-161,-141,-146,-107
4,4,0,-4,2,2,-63,-63,-161,-141,-146,-107
4,4,0,-4,2,2,-63,-58,-161,-136,-141,-107
9,14,4,-12,2,9,-63,-63,-161,-136,-141,-102
9,24,14,-17,-2,19,-63,-63,-161,-141,-146,-97
4,14,9,-9,-2,12,-63,-68,-161,-141,-146,-97
-4,0,4,2,-4,2,-58,-68,-156,-141,-146,-102
-24,-9,14,17,-19,2,-58,-73,-156,-136,-146,-102
-39,-14,24,26,-31,4,-58,-73,-156,-136,-156,-102
-29,-14,14,21,-21,0,-53,-73,-156,-136,-156,-107
-19,-9,9,14,-14,0,-48,-68,-156,-131,-151,-107
-19,-9,9,14,-14,0,-48,-68,-156,-131,-151,-107
-19,-14,4,17,-12,-4,-43,-68,-156,-136,-156,-112
-19,-14,4,17,-12,-4,-53,-68,-151,-136,-156,-112
-14,-9,4,12,-9,-2,-63,-68,-146,-136,-156,-112
-14,-9,4,12,-9,-2,-53,-63,-146,-136,-151,-112
-14,-9,4,12,-9,-2,-43,-58,-146,-136,-151,-112
-14,-9,4,12,-9,-2,-48,-58,-156,-141,-151,-117
-19,-14,4,17,-12,-4,-48,-58,-156,-146,-151,-122
-19,-19,0,19,-9,-9,-53,-63,-161,-146,-151,-122
-19,-19,0,19,-9,-9,-58,-68,-161,-146,-151,-122
-14,-14,0,14,-7,-7,-58,-68,-161,-146,-151,-122
-9,-19,-9,14,0,-14,-58,-78,-165,-151,-156,-126
-9,-9,0,9,-4,-4,-58,-78,-165,-151,-156,-131
-4,-4,0,4,-2,-2,-58,-73,-165,-156,-161,-131
0,-9,-9,4,4,-9,-58,-68,-165,-156,-161,-136
4,-19,-24,7,14,-21,-58,-63,-165,-156,-161,-141
14,-9,-24,-2,19,-17,-48,-48,-156,-146,-151,-131
29,0,-29,-14,29,-14,-39,-39,-146,-136,-146,-126
29,9,-19,-19,24,-4,-39,-34,-136,-126,-136,-117
29,19,-9,-24,19,4,-39,-29,-126,-117,-126,-107
39,34,-4,-36,21,14,-34,-24,-122,-107,-117,-97
58,53,-4,-56,31,24,-24,-9,-107,-92,-102,-87
78,78,0,-78,39,39,-14,4,-97,-78,-92,-78
87,97,9,-92,39,53,0,19,-78,-68,-82,-63
112,107,-4,-109,58,51,9,43,-63,-48,-63,-53
136,122,-14,-129,75,53,9,63,-43,-29,-48,-34
175,151,-24,-163,100,63,4,82,-34,-9,-29,-14
214,170,-43,-192,129,63,4,102,-24,0,-14,-4
229,180,-48,-204,139,65,4,112,-24,0,-9,4
229,180,-48,-204,139,65,-9,92,-43,-9,-14,-4
209,170,-39,-190,124,65,-29,73,-58,-24,-24,-9
200,146,-53,-173,126,46,-48,63,-78,-43,-39,-24
200,122,-78,-161,139,21,-68,63,-92,-53,-53,-39
204,117,-87,-161,146,14,-68,73,-92,-58,-68,-39
204,87,-117,-146,161,-14,-68,58,-112,-73,-82,-58
195,73,-122,-134,158,-24,-78,29,-126,-92,-92,-73
175,82,-92,-129,134,-4,-92,9,-126,-97,-97,-78
151,82,-68,-117,109,7,-92,0,-136,-112,-107,-87
122,58,-63,-90,92,-2,-87,-4,-141,-117,-117,-92
68,34,-34,-51,51,0,-73,-9,-146,-126,-122,-102
24,4,-19,-14,21,-7,-73,-34,-156,-136,-136,-126
4,-19,-24,7,14,-21,-73,-48,-170,-151,-156,-141
-4,-29,-24,17,9,-26,-82,-63,-180,-165,-165,-146
-9,-39,-29,24,9,-34,-82,-73,-190,-175,-175,-156
-14,-48,-34,31,9,-41,-82,-78,-200,-180,-180,-161
-29,-53,-24,41,-2,-39,-87,-82,-204,-185,-185,-170
-29,-58,-29,43,0,-43,-87,-82,-204,-180,-180,-161
-24,-58,-34,41,4,-46,-82,-78,-204,-180,-180,-156
-29,-58,-29,43,0,-43,-82,-78,-195,-180,-180,-170
-29,-63,-34,46,2,-48,-82,-78,-190,-180,-180,-180
-34,-68,-34,51,0,-51,-82,-87,-195,-180,-185,-180
-39,-68,-29,53,-4,-48,-82,-92,-195,-185,-185,-180
-29,-68,-39,48,4,-53,-78,-87,-195,-185,-185,-185
-29,-68,-39,48,4,-53,-82,-87,-195,-185,-185,-185
-39,-73,-34,56,-2,-53,-82,-87,-190,-185,-185,-195
-58,-97,-39,78,-9,-68,-53,-87,-190,-185,-190,-204
-97,-131,-34,114,-31,-82,19,-53,-175,-180,-190,-214
-112,-151,-39,131,-36,-95,92,4,-126,-156,-190,-214
-170,-195,-24,183,-73,-109,151,24,-92,-136,-180,-214
-204,-209,-4,207,-100,-107,229,63,-29,-78,-136,-195
-234,-190,43,212,-139,-73,346,156,58,-14,-92,-161
-214,-97,117,156,-165,9,453,346,258,165,68,-29
-141,97,239,21,-190,168,468,551,556,473,336,209
48,336,287,-192,-119,312,409,771,829,785,634,492
292,556,263,-424,14,409,307,1054,1029,1063,917,785
629,863,234,-746,197,549,-19,1220,1190,1356,1249,1141
946,1234,287,-1090,329,761,-732,956,1058,1342,1337,1307
1180,1434,253,-1307,463,844,-1717,-39,326,678,863,1000
1376,1288,-87,-1332,732,600,-2713,-1356,-805,-346,58,390
1542,1098,-444,-1320,993,326,-3298,-2444,-1825,-1278,-678,-190
1581,814,-766,-1198,1173,24,-2952,-2093,-2093,-1625,-1083,-595
1468,697,-771,-1083,1119,-36,-2391,-1615,-1771,-1385,-956,-551
1215,629,-585,-922,900,21,-1849,-1346,-1385,-1083,-751,-434
883,497,-385,-690,634,56,-1395,-1122,-1068,-844,-585,-351
614,366,-248,-490,431,58,-980,-829,-775,-610,-439,-273
346,200,-146,-273,246,26,-610,-551,-517,-414,-331,-248
170,117,-53,-143,112,31,-370,-366,-366,-302,-263,-224
58,48,-9,-53,34,19,-219,-273,-283,-244,-224,-214
-9,0,9,4,-9,4,-112,-185,-200,-195,-190,-200
-53,-58,-4,56,-24,-31,-4,-82,-126,-146,-170,-195
-73,-78,-4,75,-34,-41,29,-43,-102,-122,-156,-190
-82,-78,4,80,-43,-36,53,-29,-87,-112,-146,-180
-117,-82,34,100,-75,-24,87,-19,-68,-102,-136,-175
-131,-102,29,117,-80,-36,97,-14,-58,-92,-136,-175
-131,-107,24,119,-78,-41,102,-9,-48,-87,-131,-175
-131,-107,24,119,-78,-41,126,0,-34,-78,-122,-170
-136,-97,39,117,-87,-29,141,14,-19,-63,-107,-156
-141,-107,34,124,-87,-36,146,24,-14,-58,-102,-156
-141,-112,29,126,-85,-41,146,29,-9,-53,-97,-156
-141,-117,24,129,-82,-46,151,34,-4,-43,-82,-156
-161,-122,39,141,-100,-41,161,39,4,-39,-78,-141
-180,-136,43,158,-112,-46,165,39,14,-34,-78,-141
-161,-117,43,139,-102,-36,165,39,19,-29,-73,-141
-141,-97,43,119,-92,-26,165,39,24,-24,-63,-141
-161,-112,48,136,-104,-31,170,39,34,-14,-63,-131
-180,-126,53,153,-117,-36,175,39,43,-14,-63,-131
-161,-97,63,129,-112,-17,175,39,53,0,-48,-126
-141,-73,68,107,-104,-2,180,43,63,14,-39,-117
-156,-78,78,117,-117,0,185,43,73,19,-29,-107
-165,-87,78,126,-122,-4,190,43,82,24,-19,-102
-165,-92,73,129,-119,-9,190,43,92,34,-14,-97
-165,-97,68,131,-117,-14,190,43,102,43,-14,-92
-170,-92,78,131,-124,-7,200,48,107,48,-9,-92
-170,-87,82,129,-126,-2,200,58,122,58,0,-87
-180,-82,97,131,-139,7,209,58,131,63,9,-82
-180,-82,97,131,-139,7,214,63,136,73,19,-78
-190,-78,112,134,-151,17,224,68,146,82,24,-73
-195,-78,117,136,-156,19,234,68,165,92,39,-63
-204,-78,126,141,-165,24,244,68,175,102,43,-58
-214,-78,136,146,-175,29,263,68,190,117,48,-53
-219,-63,156,141,-187,46,287,82,209,126,58,-48
-229,-53,175,141,-202,61,302,87,229,141,78,-39
-239,-43,195,141,-217,75,322,92,248,156,87,-34
-244,-39,204,141,-224,82,346,97,273,175,97,-24
-258,-39,219,148,-239,90,366,102,292,185,102,-19
-283,-34,248,158,-265,107,385,107,317,204,117,-9
-292,-39,253,165,-273,107,405,112,341,224,131,-4
-302,-43,258,173,-280,107,429,117,370,239,146,4
-307,-14,292,161,-300,139,453,126,400,263,165,24
-307,14,322,146,-314,168,483,131,434,292,190,39
-326,24,351,151,-339,187,497,136,458,317,204,48
-346,34,380,156,-363,207,517,136,483,336,214,63
-366,43,409,161,-387,226,531,131,512,351,239,82
-390,48,439,170,-414,244,541,126,536,375,258,92
-405,73,478,165,-441,275,561,126,566,405,287,107
-419,92,512,163,-466,302,575,126,595,429,302,122
-439,107,546,165,-492,326,575,131,624,453,322,141
-453,136,590,158,-522,363,575,131,658,483,346,161
-448,156,605,146,-527,380,575,136,678,507,366,180
-444,185,629,129,-536,407,556,136,692,527,380,195
-444,209,653,117,-549,431,541,136,707,541,405,219
-429,239,668,95,-549,453,507,141,712,551,424,234
-414,244,658,85,-536,451,478,146,707,561,434,248
-385,253,639,65,-512,446,434,151,688,561,439,263
-356,263,619,46,-488,441,390,170,668,556,439,278
-307,273,580,17,-444,427,351,195,644,546,439,278
-268,253,522,7,-395,387,297,219,595,517,419,273
-224,229,453,-2,-339,341,258,224,541,473,390,253
-185,200,385,-7,-285,292,214,224,473,414,341,219
-136,165,302,-14,-219,234,170,224,400,346,292,175
-87,136,224,-24,-156,180,141,214,336,283,248,151
-48,112,161,-31,-104,136,107,200,273,229,195,107
-19,78,97,-29,-58,87,73,175,209,170,146,73
0,58,58,-29,-29,58,43,156,151,122,107,39
19,29,9,-24,4,19,19,131,102,73,68,9
29,0,-29,-14,29,-14,-4,102,58,34,34,-9
39,-9,-48,-14,43,-29,-14,78,24,9,4,-39
43,-14,-58,-14,51,-36,-24,68,4,-19,-14,-53
39,-48,-87,4,63,-68,-34,43,-24,-39,-29,-73
39,-58,-97,9,68,-78,-34,29,-43,-48,-39,-82
39,-68,-107,14,73,-87,-39,24,-53,-63,-48,-87
34,-73,-107,19,70,-90,-43,19,-63,-78,-58,-87
34,-73,-107,19,70,-90,-43,14,-73,-82,-63,-92
39,-68,-107,14,73,-87,-48,9,-73,-82,-68,-97
34,-68,-102,17,68,-85,-48,9,-73,-87,-68,-97
24,-73,-97,24,61,-85,-43,9,-78,-92,-73,-102
24,-78,-102,26,63,-90,-43,9,-78,-92,-73,-102
24,-78,-102,26,63,-90,-43,0,-82,-92,-73,-107
24,-78,-102,26,63,-90,-39,0,-87,-97,-73,-107
24,-82,-107,29,65,-95,-34,0,-87,-102,-73,-107
29,-82,-112,26,70,-97,-34,4,-78,-102,-73,-107
34,-82,-117,24,75,-100,-34,9,-73,-102,-73,-107
29,-87,-117,29,73,-102,-34,4,-73,-102,-73,-112
29,-87,-117,29,73,-102,-29,4,-73,-102,-73,-112
24,-87,-112,31,68,-100,-29,0,-73,-107,-73,-107
14,-87,-102,36,58,-95,-29,-4,-78,-107,-73,-107
4,-87,-92,41,48,-90,-29,-14,-78,-107,-68,-107
4,-87,-92,41,48,-90,-29,-19,-78,-107,-63,-107
4,-92,-97,43,51,-95,-24,-24,-73,-112,-68,-107
-4,-92,-87,48,41,-90,-24,-29,-73,-112,-68,-107
-4,-92,-87,48,41,-90,-24,-29,-73,-112,-73,-107
-4,-92,-87,48,41,-90,-24,-29,-73,-107,-73,-107
-4,-92,-87,48,41,-90,-24,-34,-78,-112,-73,-107
-9,-92,-82,51,36,-87,-24,-34,-82,-122,-78,-107
-14,-92,-78,53,31,-85,-29,-39,-82,-122,-78,-107
-24,-97,-73,61,24,-85,-29,-39,-78,-122,-78,-112
-29,-102,-73,65,21,-87,-29,-43,-78,-122,-78,-112
-29,-102,-73,65,21,-87,-29,-43,-78,-126,-87,-112
-24,-102,-78,63,26,-90,-29,-43,-78,-126,-87,-112
-19,-97,-78,58,29,-87,-29,-39,-78,-122,-82,-107
-19,-102,-82,61,31,-92,-29,-39,-78,-122,-82,-112
-19,-112,-92,65,36,-102,-24,-39,-78,-126,-87,-122
-29,-122,-92,75,31,-107,-29,-39,-82,-131,-87,-126
-34,-126,-92,80,29,-109,-34,-39,-87,-136,-87,-131
-34,-126,-92,80,29,-109,-34,-39,-87,-136,-87,-131
-34,-126,-92,80,29,-109,-34,-39,-87,-136,-92,-131
-29,-117,-87,73,29,-102,-39,-39,-97,-141,-92,-131
-29,-112,-82,70,26,-97,-39,-39,-97,-146,-92,-131
-19,-117,-97,68,39,-107,-39,-39,-102,-146,-92,-131
-9,-117,-107,63,48,-112,-39,-39,-102,-146,-92,-131
-19,-117,-97,68,39,-107,-39,-39,-107,-146,-92,-131
-29,-126,-97,78,34,-112,-39,-48,-117,-151,-97,-136
-29,-122,-92,75,31,-107,-39,-48,-117,-151,-97,-141
-24,-126,-102,75,39,-114,-39,-43,-117,-156,-102,-141
-24,-122,-97,73,36,-109,-43,-43,-117,-156,-102,-146
-24,-122,-97,73,36,-109,-48,-43,-122,-161,-102,-146
-24,-126,-102,75,39,-114,-48,-43,-126,-161,-107,-146
-19,-122,-102,70,41,-112,-43,-43,-126,-156,-107,-141
-9,-117,-107,63,48,-112,-39,-39,-126,-156,-102,-136
0,-117,-117,58,58,-117,-39,-39,-126,-156,-97,-136
14,-102,-117,43,65,-109,-29,-19,-112,-141,-87,-122
29,-87,-117,29,73,-102,-19,0,-97,-126,-78,-107
39,-82,-122,21,80,-102,-14,4,-87,-122,-73,-107
43,-73,-117,14,80,-95,-9,9,-78,-112,-63,-102
53,-63,-117,4,85,-90,-9,14,-73,-107,-58,-97
63,-48,-112,-7,87,-80,4,34,-58,-87,-43,-87
63,-39,-102,-12,82,-70,24,43,-39,-78,-39,-73
82,-19,-102,-31,92,-61,39,58,-24,-58,-19,-58
107,4,-102,-56,104,-48,39,73,-4,-39,0,-34
151,34,-117,-92,134,-41,34,92,4,-19,19,-14
195,53,-141,-124,168,-43,34,117,14,-4,39,0
209,63,-146,-136,178,-41,29,131,14,0,43,14
209,63,-146,-136,178,-41,4,112,-4,-9,34,4
190,53,-136,-122,163,-41,-19,92,-19,-24,24,0
185,34,-151,-109,168,-58,-39,82,-39,-43,14,-14
190,14,-175,-102,183,-80,-58,82,-53,-53,9,-29
200,9,-190,-104,195,-90,-58,97,-53,-58,0,-29
204,-14,-219,-95,212,-117,-58,87,-73,-73,-14,-43
195,-24,-219,-85,207,-122,-68,58,-92,-92,-24,-53
175,-14,-190,-80,183,-102,-82,39,-97,-92,-29,-58
156,-14,-170,-70,163,-92,-82,29,-107,-102,-39,-68
136,-34,-170,-51,153,-102,-78,24,-112,-107,-48,-73
87,-53,-141,-17,114,-97,-58,19,-112,-117,-53,-82
43,-82,-126,19,85,-104,-53,-4,-117,-126,-68,-107
24,-107,-131,41,78,-119,-53,-19,-131,-141,-92,-122
14,-117,-131,51,73,-124,-63,-34,-141,-156,-107,-126
0,-131,-131,65,65,-131,-63,-43,-151,-165,-117,-141
-14,-146,-131,80,58,-139,-63,-48,-161,-170,-122,-151
-29,-151,-122,90,46,-136,-68,-53,-170,-180,-126,-161
-34,-156,-122,95,43,-139,-68,-58,-175,-185,-126,-161
-29,-156,-126,92,48,-141,-63,-63,-175,-190,-131,-161
-29,-156,-126,92,48,-141,-63,-68,-170,-190,-131,-161
-29,-161,-131,95,51,-146,-63,-68,-170,-185,-131,-156
-39,-165,-126,102,43,-146,-63,-73,-175,-180,-136,-151
-48,-165,-117,107,34,-141,-63,-73,-175,-185,-136,-151
-39,-165,-126,102,43,-146,-53,-68,-175,-185,-136,-156
-39,-161,-122,100,41,-141,-58,-68,-180,-185,-136,-156
-48,-156,-107,102,29,-131,-63,-68,-180,-185,-136,-161
-68,-175,-107,122,19,-141,-43,-78,-185,-190,-141,-170
-102,-209,-107,156,2,-158,14,-53,-175,-190,-141,-185
-112,-229,-117,170,2,-173,82,4,-126,-175,-146,-190
-161,-258,-97,209,-31,-178,141,34,-92,-165,-141,-195
-190,-278,-87,234,-51,-183,204,53,-58,-122,-112,-190
-224,-292,-68,258,-78,-180,302,117,-4,-78,-92,-180
-239,-248,-9,244,-114,-129,439,297,180,63,19,-97
-204,-87,117,146,-161,14,488,492,453,326,248,102
-43,151,195,-53,-119,173,478,727,736,649,546,385
175,370,195,-273,-9,283,395,1000,956,946,834,683
512,678,165,-595,173,422,165,1351,1259,1395,1307,1151
849,1044,195,-946,326,619,-444,1298,1273,1542,1532,1434
1122,1322,200,-1222,461,761,-1527,370,600,946,1132,1215
1337,1254,-82,-1295,710,585,-2562,-849,-468,-14,395,673
1551,1044,-507,-1298,1029,268,-3308,-2205,-1722,-1161,-507,-39
1639,746,-893,-1193,1266,-73,-3152,-2176,-2230,-1732,-1088,-580
1581,629,-951,-1105,1266,-161,-2586,-1698,-1932,-1527,-1010,-585
1371,566,-805,-968,1088,-119,-2044,-1420,-1571,-1249,-839,-502
1019,439,-580,-729,800,-70,-1571,-1229,-1229,-990,-658,-405
741,317,-424,-529,583,-53,-1137,-956,-907,-732,-483,-302
453,156,-297,-305,375,-70,-732,-649,-610,-502,-341,-253
244,68,-175,-156,209,-53,-448,-414,-414,-356,-253,-214
97,0,-97,-48,97,-48,-268,-297,-312,-287,-209,-204
4,-48,-53,21,29,-51,-141,-219,-229,-234,-170,-185
-53,-117,-63,85,4,-90,-29,-122,-161,-180,-146,-175
-82,-146,-63,114,-9,-104,14,-63,-131,-151,-126,-170
-102,-156,-53,129,-24,-104,43,-39,-117,-141,-117,-161
-141,-170,-29,156,-56,-100,78,-29,-97,-131,-107,-156
-151,-190,-39,170,-56,-114,92,-24,-87,-122,-107,-156
-151,-195,-43,173,-53,-119,102,-9,-78,-117,-102,-156
-146,-190,-43,168,-51,-117,126,9,-58,-107,-92,-151
-151,-175,-24,163,-63,-100,141,14,-39,-92,-82,-136
-161,-180,-19,170,-70,-100,151,14,-34,-87,-82,-136
-161,-175,-14,168,-73,-95,156,19,-29,-82,-78,-136
-161,-175,-14,168,-73,-95,161,24,-24,-73,-63,-136
-165,-165,0,165,-82,-82,170,29,-14,-68,-58,-122
-170,-170,0,170,-85,-85,175,29,-4,-63,-58,-122
-170,-175,-4,173,-82,-90,175,29,0,-58,-53,-122
-170,-175,-4,173,-82,-90,175,29,4,-53,-43,-122
-175,-175,0,175,-87,-87,180,29,14,-43,-43,-112
-180,-175,4,178,-92,-85,185,29,24,-43,-43,-112
-180,-170,9,175,-95,-80,185,29,29,-34,-34,-112
-180,-165,14,173,-97,-75,190,34,34,-19,-29,-107
-185,-151,34,168,-109,-58,195,34,43,-9,-19,-97
-185,-146,39,165,-112,-53,200,34,53,-4,-9,-92
-185,-146,39,165,-112,-53,200,34,63,4,-4,-87
-214,-170,43,192,-129,-63,195,29,63,4,-9,-92
-248,-185,63,217,-156,-61,204,29,58,0,-9,-102
-209,-146,63,178,-136,-41,209,39,82,19,0,-87
-180,-112,68,146,-124,-21,219,39,102,34,9,-73
-190,-126,63,158,-126,-31,224,43,107,43,19,-68
-209,-136,73,173,-141,-31,234,48,117,53,19,-63
-214,-122,92,168,-153,-14,244,48,136,63,29,-53
-224,-107,117,165,-170,4,253,53,146,73,34,-48
-244,-122,122,183,-183,0,273,58,161,87,39,-48
-253,-122,131,187,-192,4,297,73,180,97,48,-48
-248,-112,136,180,-192,12,312,78,200,112,68,-39
-248,-102,146,175,-197,21,326,82,214,126,78,-34
-253,-102,151,178,-202,24,346,87,229,141,82,-24
-268,-107,161,187,-214,26,366,92,244,146,82,-19
-292,-102,190,197,-241,43,385,97,268,165,97,-9
-302,-92,209,197,-256,58,409,102,292,185,112,-4
-312,-78,234,195,-273,78,439,107,322,200,126,4
-331,-63,268,197,-300,102,463,112,346,219,141,19
-346,-53,292,200,-319,119,492,112,375,244,161,29
-366,-43,322,204,-344,139,507,117,400,268,175,39
-385,-34,351,209,-368,158,531,117,424,287,185,53
-400,-9,390,204,-395,190,561,117,458,307,209,73
-424,4,429,209,-427,217,580,117,488,336,224,82
-444,24,468,209,-456,246,600,117,517,366,248,97
-458,43,502,207,-480,273,614,117,551,390,263,112
-478,53,531,212,-505,292,614,122,580,409,283,131
-492,78,570,207,-531,324,619,122,610,439,312,151
-492,97,590,197,-541,344,624,122,629,468,336,170
-492,122,614,185,-553,368,610,117,644,488,351,190
-492,141,634,175,-563,387,600,117,658,507,375,219
-483,170,653,156,-568,412,566,122,663,522,395,234
-473,180,653,146,-563,417,531,126,663,531,405,248
-444,195,639,124,-541,417,483,131,649,536,414,263
-414,204,619,104,-517,412,434,146,634,536,419,278
-366,219,585,73,-475,402,390,170,619,527,419,278
-322,209,531,56,-427,370,331,200,575,497,400,273
-268,190,458,39,-363,324,287,209,522,453,375,258
-224,161,385,31,-305,273,244,214,453,400,331,229
-175,126,302,24,-239,214,195,214,380,336,283,185
-126,92,219,17,-173,156,156,204,312,273,239,161
-87,63,151,12,-119,107,117,190,239,219,185,117
-58,29,87,14,-73,58,82,165,165,156,136,82
-39,9,48,14,-43,29,53,146,102,102,97,43
-19,-19,0,19,-9,-9,29,122,53,53,58,9
-9,-48,-39,29,14,-43,0,92,9,14,19,-9
4,-58,-63,26,34,-61,-14,73,-24,-9,-9,-34
14,-63,-78,24,46,-70,-24,68,-43,-43,-29,-43
14,-87,-102,36,58,-95,-34,48,-68,-68,-48,-63
19,-87,-107,34,63,-97,-34,39,-82,-78,-58,-73
19,-97,-117,39,68,-107,-39,34,-92,-87,-68,-78
14,-97,-112,41,63,-104,-43,29,-102,-97,-73,-78
14,-102,-117,43,65,-109,-43,19,-112,-102,-73,-82
19,-107,-126,43,73,-117,-48,14,-117,-102,-78,-87
19,-107,-126,43,73,-117,-48,19,-122,-107,-78,-87
19,-117,-136,48,78,-126,-43,19,-126,-112,-87,-92
24,-122,-146,48,85,-134,-43,19,-126,-112,-92,-92
24,-122,-146,48,85,-134,-43,9,-131,-112,-92,-97
24,-126,-151,51,87,-139,-43,9,-136,-117,-92,-97
24,-131,-156,53,90,-143,-39,9,-136,-122,-92,-97
24,-131,-156,53,90,-143,-34,9,-131,-122,-92,-97
19,-131,-151,56,85,-141,-34,9,-131,-122,-97,-97
9,-136,-146,63,78,-141,-34,4,-131,-122,-102,-102
9,-136,-146,63,78,-141,-29,4,-131,-122,-102,-102
9,-136,-146,63,78,-141,-29,0,-126,-122,-102,-97
4,-136,-141,65,73,-139,-29,-9,-126,-117,-102,-97
-4,-136,-131,70,63,-134,-29,-19,-126,-117,-102,-97
-4,-136,-131,70,63,-134,-34,-19,-126,-117,-102,-97
-4,-141,-136,73,65,-139,-34,-24,-126,-122,-107,-102
-14,-141,-126,78,56,-134,-34,-29,-131,-122,-107,-107
-14,-141,-126,78,56,-134,-34,-29,-131,-122,-107,-107
-14,-146,-131,80,58,-139,-29,-29,-131,-117,-102,-107
-14,-151,-136,82,61,-143,-24,-34,-131,-117,-102,-107
-19,-151,-131,85,56,-141,-24,-34,-131,-122,-107,-107
-24,-151,-126,87,51,-139,-24,-39,-131,-122,-107,-107
-24,-146,-122,85,48,-134,-19,-39,-126,-117,-107,-107
-19,-141,-122,80,51,-131,-19,-43,-126,-112,-107,-102
-19,-141,-122,80,51,-131,-19,-43,-126,-117,-117,-102
-19,-141,-122,80,51,-131,-19,-43,-126,-117,-117,-102
-29,-146,-117,87,43,-131,-24,-39,-126,-112,-112,-97
-39,-156,-117,97,39,-136,-29,-39,-126,-112,-112,-97
-48,-165,-117,107,34,-141,-24,-39,-126,-117,-117,-102
-58,-170,-112,114,26,-141,-24,-39,-126,-117,-117,-102
-43,-165,-122,104,39,-143,-19,-39,-126,-117,-117,-107
-34,-165,-131,100,48,-148,-14,-39,-126,-117,-117,-112
-34,-165,-131,100,48,-148,-14,-39,-126,-117,-122,-112
-34,-165,-131,100,48,-148,-19,-39,-136,-122,-122,-112
-39,-170,-131,104,46,-151,-19,-39,-136,-126,-122,-112
-39,-175,-136,107,48,-156,-19,-39,-141,-126,-122,-112
-39,-175,-136,107,48,-156,-24,-39,-141,-126,-122,-112
-39,-175,-136,107,48,-156,-29,-39,-141,-126,-122,-112
-39,-185,-146,112,53,-165,-29,-43,-146,-131,-126,-117
-39,-175,-136,107,48,-156,-29,-39,-146,-131,-126,-122
-34,-175,-141,104,53,-158,-24,-34,-146,-136,-131,-122
-34,-170,-136,102,51,-153,-24,-34,-146,-136,-131,-126
-34,-170,-136,102,51,-153,-29,-34,-151,-146,-131,-126
-34,-175,-141,104,53,-158,-29,-34,-151,-151,-136,-126
-34,-180,-146,107,56,-163,-34,-39,-156,-151,-141,-126
-39,-180,-141,109,51,-161,-43,-43,-156,-146,-146,-122
-43,-190,-146,117,51,-168,-43,-43,-161,-156,-141,-126
-43,-190,-146,117,51,-168,-43,-43,-165,-161,-146,-131
-39,-185,-146,112,53,-165,-48,-53,-161,-161,-146,-136
-24,-170,-146,97,61,-158,-43,-53,-161,-141,-136,-126
-14,-170,-156,92,70,-163,-39,-39,-161,-146,-131,-122
-9,-175,-165,92,78,-170,-39,-29,-165,-156,-126,-117
0,-161,-161,80,80,-161,-24,-14,-146,-136,-117,-107
9,-146,-156,68,82,-151,-9,0,-126,-117,-107,-97
9,-141,-151,65,80,-146,-4,4,-122,-112,-107,-92
14,-131,-146,58,80,-139,0,9,-117,-102,-102,-82
24,-122,-146,48,85,-134,0,14,-112,-97,-97,-78
43,-107,-151,31,97,-129,14,34,-97,-78,-82,-68
48,-102,-151,26,100,-126,29,48,-78,-73,-78,-58
73,-87,-161,7,117,-124,39,68,-63,-58,-58,-48
73,-73,-146,0,109,-109,39,73,-43,-39,-39,-24
92,-53,-146,-19,119,-100,34,82,-34,-19,-19,-4
165,-14,-180,-75,173,-97,43,122,-14,4,9,19
209,14,-195,-112,202,-90,48,151,-4,19,24,43
219,19,-200,-119,209,-90,29,131,-24,9,14,34
209,14,-195,-112,202,-90,9,112,-39,-4,4,29
185,-9,-195,-87,190,-102,-14,92,-68,-24,-9,14
170,-34,-204,-68,187,-119,-39,82,-92,-34,-19,0
190,-39,-229,-75,209,-134,-39,102,-78,-39,-29,0
204,-63,-268,-70,236,-165,-39,97,-82,-53,-43,-14
195,-73,-268,-61,231,-170,-48,68,-107,-73,-53,-24
175,-63,-239,-56,207,-151,-63,48,-117,-73,-58,-29
161,-48,-209,-56,185,-129,-63,39,-126,-82,-68,-39
146,-53,-200,-46,173,-126,-58,34,-131,-87,-78,-43
97,-82,-180,-7,139,-131,-43,29,-136,-97,-82,-53
53,-122,-175,34,114,-148,-43,4,-146,-107,-97,-78
19,-151,-170,65,95,-161,-43,-9,-161,-122,-117,-97
-4,-165,-161,85,78,-163,-53,-24,-170,-136,-126,-107
-9,-175,-165,92,78,-170,-53,-39,-180,-151,-141,-117
-14,-185,-170,100,78,-178,-53,-48,-190,-161,-151,-122
-24,-190,-165,107,70,-178,-58,-58,-200,-165,-156,-131
-24,-195,-170,109,73,-183,-58,-68,-204,-165,-156,-131
-24,-195,-170,109,73,-183,-58,-68,-204,-170,-161,-136
-29,-195,-165,112,68,-180,-63,-68,-200,-170,-161,-141
-34,-200,-165,117,65,-183,-63,-68,-200,-170,-161,-141
-48,-204,-156,126,53,-180,-63,-73,-204,-170,-165,-141
-58,-204,-146,131,43,-175,-63,-73,-204,-175,-170,-141
-48,-204,-156,126,53,-180,-53,-68,-204,-175,-175,-146
-48,-204,-156,126,53,-180,-58,-68,-209,-180,-175,-146
-58,-204,-146,131,43,-175,-63,-68,-209,-185,-175,-151
-78,-224,-146,151,34,-185,-48,-82,-219,-190,-180,-161
-112,-258,-146,185,17,-202,4,-63,-214,-190,-180,-175
-102,-263,-161,183,29,-212,73,9,-165,-170,-185,-175
-131,-278,-146,204,7,-212,131,53,-131,-156,-180,-175
-175,-307,-131,241,-21,-219,200,63,-97,-126,-161,-180
-224,-331,-107,278,-58,-219,302,117,-43,-97,-151,-180
-244,-307,-63,275,-90,-185,458,292,107,19,-63,-117
-214,-165,48,190,-131,-58,527,483,346,258,141,63
-82,53,136,14,-109,95,546,702,624,551,414,312
107,253,146,-180,-19,200,492,961,839,819,678,575
444,561,117,-502,163,339,331,1395,1224,1356,1215,1093
780,927,146,-854,317,536,-209,1424,1322,1590,1503,1424
1088,1268,180,-1178,453,724,-1307,561,771,1117,1200,1293
1337,1263,-73,-1300,705,595,-2357,-595,-175,278,561,839
1586,1068,-517,-1327,1051,275,-3308,-2196,-1586,-995,-419,78
1708,785,-922,-1246,1315,-68,-3357,-2410,-2249,-1693,-1078,-512
1678,644,-1034,-1161,1356,-195,-2771,-1878,-2000,-1542,-1049,-556
1498,556,-941,-1027,1220,-192,-2210,-1546,-1688,-1317,-927,-512
1132,444,-688,-788,910,-122,-1727,-1356,-1346,-1063,-746,-409
839,336,-502,-588,671,-82,-1283,-1083,-1024,-810,-570,-302
527,165,-361,-346,444,-97,-834,-746,-697,-556,-409,-253
292,68,-224,-180,258,-78,-507,-483,-473,-385,-302,-214
122,-19,-141,-51,131,-80,-322,-341,-366,-312,-258,-200
4,-87,-92,41,48,-90,-190,-239,-278,-253,-219,-175
-53,-165,-112,109,29,-139,-53,-141,-204,-195,-195,-165
-82,-204,-122,143,19,-163,14,-82,-170,-161,-175,-161
-92,-195,-102,143,4,-148,48,-43,-141,-141,-156,-146
-122,-190,-68,156,-26,-129,87,-19,-107,-122,-136,-136
-126,-204,-78,165,-24,-141,107,-14,-97,-112,-136,-136
-122,-204,-82,163,-19,-143,122,0,-87,-107,-131,-136
-122,-204,-82,163,-19,-143,146,24,-73,-97,-122,-131
-131,-195,-63,163,-34,-129,161,34,-58,-82,-112,-117
-146,-214,-68,180,-39,-141,165,34,-53,-78,-117,-117
-151,-224,-73,187,-39,-148,165,39,-48,-73,-117,-117
-151,-224,-73,187,-39,-148,170,43,-43,-63,-102,-117
-156,-214,-58,185,-48,-136,180,48,-34,-58,-97,-102
-161,-214,-53,187,-53,-134,185,48,-29,-53,-97,-102
-161,-214,-53,187,-53,-134,185,48,-29,-48,-92,-102
-165,-214,-48,190,-58,-131,185,48,-24,-43,-82,-102
-175,-214,-39,195,-68,-126,190,48,-14,-34,-82,-92
-180,-214,-34,197,-73,-124,195,48,-4,-34,-82,-92
-180,-209,-29,195,-75,-119,195,48,0,-24,-73,-92
-180,-209,-29,195,-75,-119,200,53,4,-14,-68,-87
-185,-200,-14,192,-85,-107,204,53,14,-9,-58,-78
-185,-200,-14,192,-85,-107,209,53,24,-4,-48,-73
-185,-204,-19,195,-82,-112,209,53,34,4,-43,-68
-185,-204,-19,195,-82,-112,209,53,48,14,-43,-63
-190,-195,-4,192,-92,-100,224,58,58,19,-39,-63
-185,-180,4,183,-95,-87,229,68,73,29,-29,-58
-190,-170,19,180,-104,-75,239,68,82,34,-19,-53
-180,-170,9,175,-95,-80,248,73,87,43,-9,-48
-180,-165,14,173,-97,-75,263,78,97,53,-9,-43
-195,-165,29,180,-112,-68,273,78,112,63,-4,-34
-214,-165,48,190,-131,-58,283,82,117,73,-4,-29
-224,-165,58,195,-141,-53,297,87,131,87,0,-24
-224,-151,73,187,-148,-39,317,102,151,97,9,-19
-229,-141,87,185,-158,-26,331,112,170,112,29,-9
-239,-131,107,185,-173,-12,346,122,185,126,39,-4
-239,-122,117,180,-178,-2,366,126,204,146,53,9
-248,-117,131,183,-190,7,385,131,224,156,63,19
-273,-112,161,192,-217,24,405,136,244,170,78,29
-283,-102,180,192,-231,39,429,141,263,185,92,34
-297,-97,200,197,-248,51,458,151,292,200,102,43
-322,-92,229,207,-275,68,483,161,317,219,112,58
-336,-87,248,212,-292,80,512,161,346,244,131,63
-356,-82,273,219,-314,95,527,165,370,268,146,68
-375,-73,302,224,-339,114,551,170,395,287,156,82
-390,-48,341,219,-366,146,580,175,429,307,180,102
-409,-29,380,219,-395,175,605,180,463,336,200,112
-424,-4,419,214,-422,207,629,185,497,366,229,126
-439,14,453,212,-446,234,644,185,527,390,239,141
-458,24,483,217,-470,253,644,190,551,409,253,161
-488,39,527,224,-507,283,649,190,580,434,278,180
-502,48,551,226,-527,300,653,190,600,458,297,200
-492,87,580,202,-536,334,644,185,619,478,312,214
-483,122,605,180,-544,363,639,185,639,497,336,239
-468,165,634,151,-551,400,610,190,649,517,366,253
-453,190,644,131,-549,417,580,195,653,531,385,268
-434,190,624,122,-529,407,531,195,639,531,390,283
-414,185,600,114,-507,392,483,204,624,527,390,297
-366,209,575,78,-470,392,439,224,619,531,400,307
-322,209,531,56,-427,370,380,248,585,517,390,312
-273,195,468,39,-370,331,331,253,531,478,366,292
-234,170,405,31,-319,287,283,253,463,429,322,258
-185,136,322,24,-253,229,234,248,390,366,273,214
-136,102,239,17,-187,170,195,234,322,302,229,190
-92,68,161,12,-126,114,151,219,248,244,170,146
-58,29,87,14,-73,58,112,195,175,175,117,112
-39,9,48,14,-43,29,78,170,107,117,78,73
-19,-19,0,19,-9,-9,48,141,53,63,39,39
0,-58,-58,29,29,-58,19,112,4,24,0,19
24,-78,-102,26,63,-90,4,92,-34,0,-29,-4
34,-73,-107,19,70,-90,-4,87,-53,-29,-43,-14
34,-87,-122,26,78,-104,-14,68,-78,-48,-58,-34
53,-87,-141,17,97,-114,-14,58,-92,-58,-68,-43
68,-97,-165,14,117,-131,-19,53,-102,-68,-78,-48
53,-102,-156,24,104,-129,-24,43,-112,-82,-87,-48
43,-112,-156,34,100,-134,-24,29,-122,-92,-92,-53
48,-117,-165,34,107,-141,-29,19,-126,-92,-97,-63
48,-117,-165,34,107,-141,-29,19,-131,-97,-97,-68
43,-126,-170,41,107,-148,-24,19,-136,-102,-107,-73
43,-131,-175,43,109,-153,-24,19,-136,-102,-112,-73
43,-126,-170,41,107,-148,-24,9,-141,-102,-112,-78
43,-126,-170,41,107,-148,-24,9,-146,-107,-112,-78
43,-131,-175,43,109,-153,-24,9,-146,-112,-112,-78
43,-131,-175,43,109,-153,-24,9,-141,-112,-112,-78
53,-117,-170,31,112,-143,-24,14,-141,-112,-112,-78
58,-107,-165,24,112,-136,-24,14,-141,-112,-112,-82
48,-117,-165,34,107,-141,-19,14,-141,-112,-112,-82
39,-126,-165,43,102,-146,-19,9,-136,-112,-112,-78
34,-126,-161,46,97,-143,-19,4,-136,-107,-112,-78
24,-126,-151,51,87,-139,-19,0,-136,-107,-112,-78
24,-126,-151,51,87,-139,-24,0,-136,-107,-112,-78
24,-131,-156,53,90,-143,-24,-4,-136,-112,-117,-82
9,-136,-146,63,78,-141,-24,-14,-141,-112,-122,-87
4,-141,-146,68,75,-143,-24,-19,-141,-112,-126,-87
4,-141,-146,68,75,-143,-19,-19,-141,-107,-122,-87
4,-141,-146,68,75,-143,-14,-24,-141,-107,-122,-87
14,-131,-146,58,80,-139,-14,-24,-141,-112,-122,-82
24,-122,-146,48,85,-134,-14,-29,-141,-112,-117,-78
4,-136,-141,65,73,-139,-9,-29,-136,-112,-117,-82
-9,-151,-141,80,65,-146,-9,-34,-136,-112,-117,-82
-9,-151,-141,80,65,-146,-14,-34,-136,-117,-126,-87
-9,-151,-141,80,65,-146,-19,-34,-136,-117,-126,-92
-19,-146,-126,82,53,-136,-19,-29,-136,-112,-122,-87
-29,-146,-117,87,43,-131,-19,-29,-136,-112,-122,-87
-19,-146,-126,82,53,-136,-4,-24,-131,-112,-122,-87
-9,-141,-131,75,61,-136,4,-19,-126,-107,-117,-82
-4,-136,-131,70,63,-134,4,-19,-126,-107,-117,-82
-4,-136,-131,70,63,-134,4,-19,-126,-107,-117,-82
-9,-146,-136,78,63,-141,0,-19,-126,-107,-126,-92
-14,-156,-141,85,63,-148,-9,-19,-136,-112,-131,-102
-19,-161,-141,90,61,-151,-9,-19,-136,-117,-131,-102
-19,-165,-146,92,63,-156,-9,-19,-141,-117,-131,-102
-19,-151,-131,85,56,-141,-9,-19,-141,-117,-126,-92
-19,-136,-117,78,48,-126,-9,-19,-141,-117,-122,-82
-19,-156,-136,87,58,-146,-9,-29,-146,-122,-126,-87
-19,-156,-136,87,58,-146,-9,-29,-146,-122,-126,-92
-14,-156,-141,85,63,-148,-9,-24,-146,-126,-131,-92
-14,-151,-136,82,61,-143,-14,-24,-146,-126,-131,-97
-14,-151,-136,82,61,-143,-24,-24,-156,-131,-131,-97
-14,-156,-141,85,63,-148,-29,-24,-161,-131,-136,-97
-14,-165,-151,90,68,-158,-24,-24,-161,-136,-141,-102
-14,-170,-156,92,70,-163,-24,-19,-156,-136,-141,-102
0,-156,-156,78,78,-156,-14,-9,-151,-126,-131,-87
9,-146,-156,68,82,-151,-9,0,-146,-117,-126,-78
19,-131,-151,56,85,-141,0,14,-131,-107,-117,-78
29,-117,-146,43,87,-131,9,29,-117,-97,-107,-78
39,-107,-146,34,92,-126,14,29,-112,-92,-102,-63
48,-92,-141,21,95,-117,14,29,-107,-82,-92,-48
63,-78,-141,7,102,-109,19,34,-102,-78,-87,-39
82,-58,-141,-12,112,-100,34,53,-87,-58,-73,-29
87,-48,-136,-19,112,-92,48,68,-63,-48,-63,-14
112,-29,-141,-41,126,-85,58,87,-43,-29,-39,0
136,-4,-141,-65,139,-73,58,102,-24,-9,-19,24
180,24,-156,-102,168,-65,53,122,-14,9,0,43
219,34,-185,-126,202,-75,53,141,-4,19,14,48
229,34,-195,-131,212,-80,48,151,-4,19,14,53
229,34,-195,-131,212,-80,29,131,-24,9,4,43
209,24,-185,-117,197,-80,9,112,-39,-4,-4,39
200,0,-200,-100,200,-100,-14,97,-63,-24,-19,24
200,-24,-224,-87,212,-124,-39,92,-82,-34,-29,9
204,-29,-234,-87,219,-131,-39,102,-82,-39,-43,0
204,-53,-258,-75,231,-156,-39,87,-102,-53,-63,-24
195,-63,-258,-65,226,-161,-48,58,-117,-73,-73,-24
175,-53,-229,-61,202,-141,-63,39,-117,-73,-78,-19
151,-53,-204,-48,178,-129,-63,29,-126,-82,-82,-29
126,-73,-200,-26,163,-136,-58,24,-131,-87,-87,-34
78,-92,-170,7,124,-131,-43,19,-136,-97,-92,-43
34,-122,-156,43,95,-139,-43,-4,-146,-107,-107,-68
14,-146,-161,65,87,-153,-43,-19,-161,-122,-122,-82
4,-156,-161,75,82,-158,-53,-34,-170,-136,-126,-87
0,-165,-165,82,82,-165,-48,-39,-175,-146,-136,-97
-4,-175,-170,90,82,-173,-43,-39,-180,-151,-141,-102
-24,-180,-156,102,65,-168,-48,-43,-185,-156,-151,-112
-34,-185,-151,109,58,-168,-48,-48,-185,-156,-156,-112
-34,-185,-151,109,58,-168,-43,-53,-190,-161,-170,-117
-39,-185,-146,112,53,-165,-43,-58,-190,-161,-180,-122
-39,-190,-151,114,56,-170,-43,-58,-190,-161,-170,-122
-48,-195,-146,122,48,-170,-43,-63,-195,-161,-165,-122
-58,-200,-141,129,41,-170,-43,-63,-190,-165,-161,-117
-48,-204,-156,126,53,-180,-34,-58,-185,-165,-156,-117
-48,-204,-156,126,53,-180,-34,-58,-185,-165,-156,-117
-58,-204,-146,131,43,-175,-34,-58,-180,-165,-156,-122
-82,-234,-151,158,34,-192,-4,-48,-180,-161,-161,-131
-122,-278,-156,200,17,-217,63,-4,-165,-151,-161,-146
-131,-297,-165,214,17,-231,136,53,-117,-126,-161,-146
-180,-326,-146,253,-17,-236,200,82,-82,-107,-151,-146
-195,-317,-122,256,-36,-219,278,141,-4,-39,-92,-117
-214,-302,-87,258,-63,-195,390,244,92,29,-43,-82
-190,-214,-24,202,-82,-119,492,434,287,204,107,48
-117,-9,107,63,-112,48,507,639,570,502,375,297
92,239,146,-165,-26,192,434,844,819,800,668,580
361,468,107,-414,126,287,287,1088,1005,1073,951,878
678,766,87,-722,295,427,-87,1166,1127,1322,1244,1200
995,1122,126,-1058,434,624,-844,839,961,1268,1288,1337
1244,1302,58,-1273,592,680,-1854,-175,219,595,805,1019
1434,1137,-297,-1285,866,419,-2815,-1483,-917,-444,-14,380
1590,941,-649,-1266,1119,146,-3323,-2469,-1869,-1307,-697,-156
1620,658,-961,-1139,1290,-151,-2928,-2069,-2074,-1595,-1058,-522
1493,541,-951,-1017,1222,-204,-2361,-1600,-1751,-1366,-946,-492
1215,478,-736,-846,976,-129,-1820,-1332,-1366,-1063,-741,-375
873,351,-522,-612,697,-85,-1356,-1117,-1039,-814,-575,-292
605,229,-375,-417,490,-73,-932,-819,-732,-566,-414,-204
346,73,-273,-209,309,-100,-570,-541,-488,-380,-297,-170
165,-9,-175,-78,170,-92,-331,-336,-346,-278,-234,-146
39,-78,-117,19,78,-97,-170,-224,-253,-214,-195,-136
-34,-126,-92,80,29,-109,-63,-151,-180,-165,-161,-117
-78,-185,-107,131,14,-146,34,-63,-122,-122,-141,-107
-92,-204,-112,148,9,-158,63,-14,-102,-102,-126,-102
-102,-204,-102,153,0,-153,92,4,-87,-92,-117,-92
-131,-209,-78,170,-26,-143,126,9,-68,-82,-107,-87
-141,-229,-87,185,-26,-158,136,14,-58,-73,-107,-87
-141,-234,-92,187,-24,-163,141,29,-48,-68,-102,-87
-141,-239,-97,190,-21,-168,165,48,-34,-58,-92,-87
-151,-234,-82,192,-34,-158,180,53,-19,-43,-82,-78
-170,-253,-82,212,-43,-168,185,53,-14,-39,-82,-78
-180,-263,-82,222,-48,-173,185,58,-9,-34,-78,-78
-170,-248,-78,209,-46,-163,190,63,0,-24,-63,-78
-165,-224,-58,195,-53,-141,200,68,14,-19,-58,-63
-170,-224,-53,197,-58,-139,204,68,24,-14,-58,-63
-170,-224,-53,197,-58,-139,204,68,29,-9,-53,-63
-170,-214,-43,192,-63,-129,204,68,34,-4,-43,-63
-175,-204,-29,190,-73,-117,209,68,43,4,-43,-53
-180,-219,-39,200,-70,-129,209,68,48,4,-43,-53
-180,-229,-48,204,-65,-139,204,68,48,14,-34,-53
-180,-229,-48,204,-65,-139,209,73,53,24,-29,-48
-185,-219,-34,202,-75,-126,214,73,63,29,-19,-39
-180,-200,-19,190,-80,-109,224,78,82,34,0,-34
-175,-185,-9,180,-82,-97,229,82,102,43,14,-29
-175,-200,-24,187,-75,-112,229,82,112,53,4,-24
-180,-204,-24,192,-78,-114,244,87,117,58,0,-24
-185,-195,-9,190,-87,-102,248,92,126,68,9,-19
-200,-190,9,195,-104,-90,258,87,131,73,19,-14
-200,-190,9,195,-104,-90,263,92,136,82,29,-9
-209,-185,24,197,-117,-80,273,97,146,92,29,-4
-214,-180,34,197,-124,-73,283,102,170,102,43,4
-224,-175,48,200,-136,-63,292,112,185,112,53,9
-234,-175,58,204,-146,-58,312,117,200,126,58,14
-234,-161,73,197,-153,-43,336,131,219,136,68,19
-239,-156,82,197,-161,-36,351,136,239,151,87,29
-248,-151,97,200,-173,-26,366,141,253,165,97,34
-253,-146,107,200,-180,-19,385,146,273,185,107,43
-268,-146,122,207,-195,-12,405,151,292,195,112,48
-292,-141,151,217,-222,4,424,156,317,214,126,58
-302,-131,170,217,-236,19,448,161,341,234,141,63
-302,-112,190,207,-246,39,478,165,370,248,156,73
-312,-92,219,202,-265,63,502,170,395,268,170,87
-336,-92,244,214,-290,75,527,170,424,292,190,97
-366,-92,273,229,-319,90,536,175,448,317,204,107
-385,-82,302,234,-344,109,556,175,473,341,214,122
-400,-58,341,229,-370,141,580,175,507,366,239,141
-409,-39,370,224,-390,165,600,180,541,395,258,151
-414,-14,400,214,-407,192,619,185,575,424,287,165
-429,4,434,212,-431,219,634,185,605,448,302,180
-448,14,463,217,-456,239,634,190,629,468,322,200
-463,39,502,212,-483,270,634,190,658,492,346,219
-463,58,522,202,-492,290,634,190,678,517,366,239
-473,82,556,195,-514,319,614,185,692,536,380,253
-483,102,585,190,-534,344,600,185,707,556,405,278
-458,131,590,163,-524,361,570,190,712,570,424,292
-434,141,575,146,-505,358,541,195,712,580,434,307
-405,156,561,124,-483,358,492,200,692,575,439,322
-375,165,541,104,-458,353,444,214,673,566,439,336
-331,175,507,78,-419,341,405,234,653,556,439,336
-292,161,453,65,-373,307,351,258,605,527,419,331
-244,141,385,51,-314,263,307,263,551,483,390,312
-204,112,317,46,-261,214,263,263,483,429,341,278
-156,78,234,39,-195,156,219,263,409,366,292,229
-107,43,151,31,-129,97,185,253,341,302,248,200
-68,14,82,26,-75,48,156,239,283,253,195,156
-39,-19,19,29,-29,0,131,214,224,195,146,122
-24,-43,-19,34,-2,-31,87,185,146,141,107,87
-9,-78,-68,43,29,-73,48,151,82,92,68,58
0,-107,-107,53,53,-107,24,122,48,53,39,43
14,-117,-131,51,73,-124,14,102,24,29,19,24
24,-112,-136,43,80,-124,4,97,4,0,4,14
24,-126,-151,51,87,-139,-4,78,-19,-19,-9,-4
39,-126,-165,43,102,-146,0,68,-34,-29,-19,-14
48,-136,-185,43,117,-161,0,63,-43,-39,-29,-19
34,-146,-180,56,107,-163,-4,58,-53,-48,-39,-24
24,-161,-185,68,104,-173,-4,48,-63,-53,-43,-34
29,-165,-195,68,112,-180,-9,39,-63,-53,-48,-39
29,-165,-195,68,112,-180,-9,39,-63,-58,-48,-39
24,-170,-195,73,109,-183,0,39,-68,-63,-53,-39
24,-170,-195,73,109,-183,4,39,-68,-63,-53,-34
24,-165,-190,70,107,-178,4,29,-73,-63,-53,-39
24,-165,-190,70,107,-178,4,29,-78,-68,-53,-39
34,-161,-195,63,114,-178,4,29,-73,-68,-53,-39
43,-151,-195,53,119,-173,4,29,-63,-63,-53,-39
34,-161,-195,63,114,-178,4,29,-63,-63,-53,-43
19,-175,-195,78,107,-185,4,24,-63,-63,-53,-53
14,-175,-190,80,102,-183,9,24,-68,-63,-53,-53
9,-175,-185,82,97,-180,9,19,-68,-63,-53,-48
4,-175,-180,85,92,-178,9,14,-68,-58,-53,-48
-4,-175,-170,90,82,-173,9,9,-68,-58,-53,-48
-4,-175,-170,90,82,-173,9,14,-63,-58,-53,-43
-4,-180,-175,92,85,-178,14,14,-58,-63,-58,-43
-9,-175,-165,92,78,-170,14,9,-63,-63,-58,-43
-4,-170,-165,87,80,-168,14,9,-63,-63,-58,-39
-4,-170,-165,87,80,-168,9,9,-58,-58,-48,-39
-4,-170,-165,87,80,-168,4,4,-53,-58,-43,-39
-9,-170,-161,90,75,-165,4,4,-53,-58,-48,-39
-14,-170,-156,92,70,-163,4,0,-53,-53,-48,-39
-24,-180,-156,102,65,-168,9,0,-48,-53,-48,-53
-29,-190,-161,109,65,-175,9,-4,-48,-53,-48,-63
-29,-190,-161,109,65,-175,9,-4,-48,-58,-58,-63
-29,-190,-161,109,65,-175,9,-4,-48,-58,-58,-63
-24,-175,-151,100,63,-163,9,0,-48,-53,-53,-58
-19,-165,-146,92,63,-156,9,0,-48,-53,-53,-58
-19,-170,-151,95,65,-161,14,0,-48,-63,-58,-63
-19,-170,-151,95,65,-161,14,0,-48,-68,-58,-63
-14,-170,-156,92,70,-163,9,-4,-58,-68,-58,-63
-14,-175,-161,95,73,-168,4,-9,-68,-68,-58,-63
-14,-175,-161,95,73,-168,4,-9,-68,-68,-63,-63
-14,-175,-161,95,73,-168,0,-9,-78,-73,-63,-63
-19,-185,-165,102,73,-175,0,-9,-73,-78,-63,-63
-19,-195,-175,107,78,-185,0,-9,-73,-78,-63,-63
-19,-195,-175,107,78,-185,0,-9,-73,-78,-68,-68
-19,-195,-175,107,78,-185,0,-9,-73,-78,-73,-73
-19,-204,-185,112,82,-195,0,-19,-78,-82,-78,-78
-19,-195,-175,107,78,-185,0,-19,-78,-82,-78,-82
-14,-195,-180,104,82,-187,0,-14,-78,-87,-78,-73
-14,-190,-175,102,80,-183,-4,-14,-78,-87,-73,-68
-14,-175,-161,95,73,-168,-9,-14,-82,-92,-73,-68
-9,-165,-156,87,73,-161,-4,-14,-82,-92,-78,-68
-4,-165,-161,85,78,-163,-4,-9,-82,-92,-78,-78
-4,-165,-161,85,78,-163,-4,-4,-87,-97,-78,-87
4,-156,-161,75,82,-158,0,0,-78,-87,-68,-73
19,-146,-165,63,92,-156,9,0,-68,-78,-58,-58
24,-136,-161,56,92,-148,19,19,-53,-63,-43,-48
29,-126,-156,48,92,-141,29,39,-39,-48,-29,-39
39,-117,-156,39,97,-136,29,39,-34,-43,-24,-34
53,-102,-156,24,104,-129,34,48,-19,-29,-14,-24
73,-87,-161,7,117,-124,43,63,-9,-19,-4,-19
78,-78,-156,0,117,-117,58,78,9,-9,4,-4
107,-48,-156,-29,131,-102,63,92,19,9,29,14
136,-14,-151,-61,143,-82,58,102,34,29,48,43
180,14,-165,-97,173,-75,53,122,43,48,68,63
224,34,-190,-129,207,-78,53,141,53,58,82,73
229,39,-190,-134,209,-75,48,151,53,58,82,78
219,34,-185,-126,202,-75,29,131,34,48,73,63
200,19,-180,-109,190,-80,9,112,19,24,53,58
190,-9,-200,-90,195,-104,-9,102,0,-4,29,43
190,-34,-224,-78,207,-129,-24,102,-9,-4,29,29
195,-39,-234,-78,214,-136,-19,112,-4,0,29,29
195,-58,-253,-68,224,-156,-19,97,-24,-14,14,14
185,-63,-248,-61,217,-156,-29,68,-39,-34,4,4
165,-53,-219,-56,192,-136,-43,48,-39,-34,0,0
141,-53,-195,-43,168,-124,-43,39,-48,-43,-9,-9
117,-73,-190,-21,153,-131,-39,34,-53,-48,-19,-14
68,-92,-161,12,114,-126,-24,29,-58,-58,-24,-24
24,-122,-146,48,85,-134,-24,4,-78,-78,-39,-48
4,-146,-151,70,78,-148,-24,-9,-102,-102,-58,-63
-4,-156,-151,80,73,-153,-34,-24,-102,-107,-68,-68
-9,-165,-156,87,73,-161,-34,-34,-102,-107,-78,-78
-4,-170,-165,87,80,-168,-34,-34,-112,-112,-82,-82
-9,-170,-161,90,75,-165,-39,-34,-117,-117,-87,-92
-14,-175,-161,95,73,-168,-39,-39,-117,-117,-87,-92
-14,-175,-161,95,73,-168,-34,-39,-117,-122,-92,-97
-24,-175,-151,100,63,-163,-39,-43,-112,-122,-92,-102
-29,-180,-151,104,61,-165,-43,-48,-112,-122,-92,-102
-39,-185,-146,112,53,-165,-43,-53,-117,-122,-87,-102
-48,-185,-136,117,43,-161,-43,-53,-117,-126,-78,-102
-39,-190,-151,114,56,-170,-34,-48,-117,-126,-87,-107
-39,-195,-156,117,58,-175,-34,-48,-117,-126,-97,-107
-48,-195,-146,122,48,-170,-24,-43,-107,-126,-97,-112
-68,-214,-146,141,39,-180,14,-39,-102,-126,-102,-117
-107,-248,-141,178,17,-195,82,-4,-87,-122,-97,-126
-122,-268,-146,195,12,-207,151,53,-39,-97,-92,-126
-170,-297,-126,234,-21,-212,209,82,0,-73,-78,-122
-195,-297,-102,246,-46,-200,287,131,68,-9,-29,-97
-214,-273,-58,244,-78,-165,395,224,165,68,24,-53
-185,-175,9,180,-97,-82,492,414,375,263,195,87
-112,19,131,46,-122,75,488,619,658,561,463,326
78,258,180,-168,-51,219,409,839,917,863,761,610
322,488,165,-405,78,326,253,1093,1102,1132,1044,907
658,805,146,-732,256,475,-126,1229,1249,1415,1376,1268
985,1156,170,-1071,407,663,-863,917,1054,1337,1405,1400
1229,1337,107,-1283,561,722,-1873,-126,258,610,873,1058
1400,1171,-229,-1285,814,470,-2742,-1317,-814,-366,102,463
1542,961,-580,-1251,1061,190,-3201,-2278,-1776,-1249,-600,-102
1551,678,-873,-1115,1212,-97,-2840,-1952,-2000,-1556,-980,-492
1410,561,-849,-985,1129,-143,-2264,-1498,-1634,-1278,-829,-434
1156,483,-673,-819,915,-95,-1732,-1244,-1259,-985,-634,-326
824,341,-483,-583,653,-70,-1288,-1034,-951,-756,-478,-253
580,229,-351,-405,466,-61,-893,-756,-668,-536,-336,-180
336,82,-253,-209,295,-85,-541,-492,-419,-356,-234,-161
156,0,-156,-78,156,-78,-312,-302,-273,-248,-170,-141
39,-68,-107,14,73,-87,-170,-204,-195,-195,-136,-136
-34,-112,-78,73,21,-95,-73,-146,-126,-156,-102,-117
-82,-165,-82,124,0,-124,24,-73,-68,-117,-82,-107
-97,-185,-87,141,-4,-136,63,-24,-43,-92,-68,-107
-102,-185,-82,143,-9,-134,92,0,-29,-82,-58,-102
-131,-190,-58,161,-36,-124,126,9,-9,-73,-48,-97
-141,-209,-68,175,-36,-139,136,14,0,-63,-48,-97
-141,-214,-73,178,-34,-143,136,29,9,-53,-43,-97
-141,-214,-73,178,-34,-143,156,48,24,-39,-34,-92
-151,-200,-48,175,-51,-124,170,48,34,-24,-24,-78
-161,-204,-43,183,-58,-124,175,43,34,-19,-24,-78
-161,-204,-43,183,-58,-124,175,48,39,-14,-24,-78
-161,-204,-43,183,-58,-124,180,53,43,-4,-14,-78
-165,-195,-29,180,-68,-112,190,58,53,-4,-9,-63
-170,-195,-24,183,-73,-109,195,58,63,-4,-9,-63
-170,-195,-24,183,-73,-109,195,58,68,0,-4,-63
-170,-195,-24,183,-73,-109,195,58,73,4,4,-63
-180,-195,-14,187,-82,-104,190,53,82,14,4,-53
-190,-195,-4,192,-92,-100,185,48,92,14,4,-53
-190,-190,0,190,-95,-95,185,48,97,24,14,-58
-190,-190,0,190,-95,-95,190,53,102,34,19,-58
-185,-170,14,178,-100,-78,204,53,112,43,29,-48
-175,-156,19,165,-97,-68,219,53,122,53,39,-43
-175,-156,19,165,-97,-68,219,53,131,63,43,-34
-175,-156,19,165,-97,-68,219,53,141,73,43,-24
-185,-151,34,168,-109,-58,229,58,146,73,48,-24
-190,-146,43,168,-117,-51,229,68,161,78,58,-19
-200,-141,58,170,-129,-41,239,68,170,82,68,-14
-200,-141,58,170,-129,-41,244,73,175,92,78,-9
-209,-136,73,173,-141,-31,253,78,185,102,78,-4
-214,-136,78,175,-146,-29,263,78,204,112,87,4
-219,-131,87,175,-153,-21,273,82,214,122,92,9
-224,-126,97,175,-161,-14,292,87,229,136,97,14
-224,-112,112,168,-168,0,317,102,248,146,107,19
-229,-102,126,165,-178,12,331,107,268,161,126,29
-239,-92,146,165,-192,26,346,112,283,175,136,34
-244,-87,156,165,-200,34,366,117,302,195,146,43
-258,-87,170,173,-214,41,385,122,322,204,151,48
-283,-82,200,183,-241,58,405,126,346,224,165,58
-292,-73,219,183,-256,73,429,126,370,244,180,63
-302,-63,239,183,-270,87,458,126,400,258,195,73
-322,-53,268,187,-295,107,483,131,424,278,209,82
-336,-43,292,190,-314,124,512,131,453,302,229,87
-356,-34,322,195,-339,143,527,131,478,326,244,97
-375,-24,351,200,-363,163,546,126,502,346,253,112
-385,0,385,192,-385,192,570,126,536,366,278,131
-400,19,419,190,-409,219,590,126,566,395,297,141
-414,43,458,185,-436,251,605,126,595,424,326,156
-429,63,492,183,-461,278,614,126,624,448,341,170
-448,68,517,190,-483,292,614,131,649,468,356,185
-463,87,551,187,-507,319,614,131,678,492,375,200
-468,107,575,180,-522,341,614,131,697,512,395,219
-473,136,610,168,-541,373,595,126,712,527,409,234
-473,161,634,156,-553,397,580,126,727,546,434,263
-458,190,649,134,-553,419,546,131,732,561,453,283
-439,200,639,119,-539,419,512,141,732,570,463,297
-405,214,619,95,-512,417,463,151,717,570,468,312
-375,219,595,78,-485,407,414,165,697,566,468,326
-326,224,551,51,-439,387,370,185,673,556,468,326
-283,209,492,36,-387,351,317,219,624,531,453,322
-234,190,424,21,-329,307,278,234,570,492,429,302
-195,161,356,17,-275,258,234,234,502,439,380,268
-146,126,273,9,-209,200,190,234,429,375,331,224
-112,92,204,9,-158,148,156,224,361,312,287,200
-87,63,151,12,-119,107,117,209,292,258,234,156
-43,34,78,4,-61,56,87,185,224,195,185,131
-9,19,29,-4,-19,24,63,165,161,141,146,107
9,-9,-19,0,14,-14,39,141,112,92,107,68
19,-39,-58,9,39,-48,14,112,68,53,73,39
29,-53,-82,12,56,-68,4,92,34,29,48,14
34,-63,-97,14,65,-80,-4,87,14,0,34,4
29,-87,-117,29,73,-102,-14,68,-9,-19,19,-14
29,-87,-117,29,73,-102,-14,58,-24,-29,9,-24
29,-97,-126,34,78,-112,-19,53,-34,-39,0,-29
24,-102,-126,39,75,-114,-24,48,-43,-48,-9,-29
14,-112,-126,48,70,-119,-24,39,-53,-53,-14,-34
9,-117,-126,53,68,-122,-29,29,-53,-53,-19,-39
24,-107,-131,41,78,-119,-29,29,-53,-58,-19,-39
34,-102,-136,34,85,-119,-24,29,-58,-63,-24,-43
34,-112,-146,39,90,-129,-24,29,-63,-63,-29,-43
34,-117,-151,41,92,-134,-24,19,-73,-63,-34,-48
24,-117,-141,46,82,-129,-24,19,-78,-68,-34,-48
14,-122,-136,53,75,-129,-24,19,-78,-73,-34,-48
14,-122,-136,53,75,-129,-24,19,-73,-73,-34,-48
14,-122,-136,53,75,-129,-24,19,-73,-73,-34,-48
14,-122,-136,53,75,-129,-24,14,-73,-73,-34,-53
19,-117,-136,48,78,-126,-19,14,-73,-73,-34,-53
19,-117,-136,48,78,-126,-14,9,-68,-73,-34,-48
14,-117,-131,51,73,-124,-9,4,-68,-68,-34,-48
4,-117,-122,56,63,-119,-9,0,-68,-68,-34,-48
4,-117,-122,56,63,-119,-9,0,-68,-68,-34,-48
4,-122,-126,58,65,-124,-9,-4,-63,-73,-39,-53
-4,-122,-117,63,56,-119,-14,-9,-63,-73,-39,-58
-4,-122,-117,63,56,-119,-14,-9,-63,-73,-39,-58
-4,-122,-117,63,56,-119,-14,-9,-63,-68,-34,-58
-4,-122,-117,63,56,-119,-14,-19,-63,-68,-24,-58
-9,-122,-112,65,51,-117,-14,-24,-63,-73,-19,-58
-14,-122,-107,68,46,-114,-19,-29,-68,-73,-29,-58
-24,-126,-102,75,39,-114,-19,-29,-68,-73,-39,-63
-29,-131,-102,80,36,-117,-19,-34,-68,-73,-39,-63
-29,-131,-102,80,36,-117,-19,-34,-68,-78,-48,-63
-14,-126,-112,70,48,-119,-14,-34,-68,-78,-43,-63
0,-117,-117,58,58,-117,-9,-29,-68,-73,-34,-58
-9,-117,-107,63,48,-112,-9,-29,-73,-73,-34,-58
-19,-122,-102,70,41,-112,-4,-29,-78,-78,-39,-63
-19,-126,-107,73,43,-117,-9,-29,-78,-82,-39,-63
-14,-126,-112,70,48,-119,-14,-29,-78,-87,-39,-63
-19,-126,-107,73,43,-117,-14,-29,-78,-87,-39,-63
-24,-126,-102,75,39,-114,-14,-29,-78,-87,-43,-63
-24,-126,-102,75,39,-114,-24,-29,-87,-92,-43,-68
-29,-131,-102,80,36,-117,-29,-29,-87,-97,-43,-73
-29,-136,-107,82,39,-122,-29,-29,-92,-97,-48,-73
-29,-136,-107,82,39,-122,-29,-29,-92,-97,-53,-73
-24,-126,-102,75,39,-114,-29,-24,-92,-92,-53,-68
-19,-126,-107,73,43,-117,-29,-29,-97,-92,-58,-68
-19,-117,-97,68,39,-107,-24,-29,-97,-92,-58,-73
-14,-117,-102,65,43,-109,-19,-24,-97,-97,-63,-73
-14,-112,-97,63,41,-104,-24,-24,-97,-102,-63,-78
-14,-112,-97,63,41,-104,-29,-24,-102,-112,-63,-78
-14,-122,-107,68,46,-114,-34,-29,-107,-112,-68,-82
-9,-126,-117,68,53,-122,-34,-34,-112,-112,-68,-87
-19,-131,-112,75,46,-122,-34,-43,-117,-112,-73,-82
-24,-141,-117,82,46,-129,-34,-48,-126,-117,-68,-82
-19,-131,-112,75,46,-122,-39,-48,-126,-122,-73,-87
-19,-126,-107,73,43,-117,-43,-48,-122,-131,-73,-92
-9,-131,-122,70,56,-126,-43,-43,-126,-122,-68,-82
4,-131,-136,63,70,-134,-39,-34,-126,-112,-63,-73
9,-117,-126,53,68,-122,-29,-24,-122,-107,-58,-68
19,-107,-126,43,73,-117,-19,-19,-117,-107,-58,-68
24,-97,-122,36,73,-109,-9,-4,-97,-92,-43,-53
29,-87,-117,29,73,-102,0,9,-78,-78,-29,-39
43,-68,-112,12,78,-90,4,14,-73,-73,-29,-34
53,-53,-107,0,80,-80,4,19,-68,-63,-24,-24
63,-43,-107,-9,85,-75,9,24,-63,-58,-19,-19
73,-39,-112,-17,92,-75,24,43,-48,-39,-4,-9
78,-29,-107,-24,92,-68,34,58,-29,-29,4,4
102,-9,-112,-46,107,-61,39,78,-14,-9,29,19
136,14,-122,-75,129,-53,39,92,4,9,48,43
190,43,-146,-117,168,-51,34,112,14,29,68,63
224,63,-161,-143,192,-48,34,131,24,39,82,73
229,73,-156,-151,192,-41,29,141,24,39,82,82
229,73,-156,-151,192,-41,4,122,4,29,68,68
209,63,-146,-136,178,-41,-19,102,-9,14,53,58
190,39,-151,-114,170,-56,-39,87,-39,-4,39,43
180,14,-165,-97,173,-75,-58,82,-63,-14,29,29
195,9,-185,-102,190,-87,-53,92,-63,-19,19,29
204,-14,-219,-95,212,-117,-48,78,-82,-34,4,14
195,-19,-214,-87,204,-117,-53,48,-92,-53,0,9
175,-4,-180,-85,178,-92,-63,29,-87,-53,0,9
151,-4,-156,-73,153,-80,-63,19,-97,-63,-9,0
126,-24,-151,-51,139,-87,-58,14,-102,-68,-19,-4
78,-53,-131,-12,104,-92,-48,9,-107,-78,-24,-14
34,-92,-126,29,80,-109,-53,-14,-117,-87,-39,-39
14,-107,-122,46,68,-114,-53,-29,-131,-102,-58,-53
4,-107,-112,51,58,-109,-63,-43,-141,-117,-68,-58
0,-117,-117,58,58,-117,-63,-53,-151,-126,-78,-68
-4,-126,-122,65,58,-124,-63,-58,-161,-131,-82,-73
-24,-136,-112,80,43,-124,-68,-63,-165,-136,-87,-82
-34,-146,-112,90,39,-129,-68,-68,-165,-136,-87,-82
-34,-146,-112,90,39,-129,-63,-63,-165,-141,-92,-87
-39,-146,-107,92,34,-126,-63,-58,-161,-141,-92,-92
-29,-141,-112,85,41,-126,-58,-58,-161,-141,-92,-92
-29,-136,-107,82,39,-122,-53,-63,-165,-141,-97,-92
-29,-136,-107,82,39,-122,-53,-63,-165,-146,-97,-92
-9,-136,-126,73,58,-131,-43,-58,-165,-146,-97,-97
-39,-156,-117,97,39,-136,-43,-58,-165,-146,-102,-97
-78,-175,-97,126,9,-136,-43,-58,-161,-146,-107,-102
-82,-180,-97,131,7,-139,-14,-58,-161,-146,-112,-107
-102,-200,-97,151,-2,-148,53,-24,-146,-141,-112,-117
-112,-219,-107,165,-2,-163,122,34,-92,-117,-112,-117
-161,-248,-87,204,-36,-168,180,63,-53,-97,-102,-117
-185,-244,-58,214,-63,-151,258,122,19,-29,-48,-92
-214,-234,-19,224,-97,-126,370,224,112,39,-4,-63
-180,-146,34,163,-107,-56,463,419,307,219,156,73
-97,58,156,19,-126,107,468,629,590,522,434,326
102,307,204,-204,-51,256,390,858,844,824,732,610
361,536,175,-448,92,356,239,1127,1034,1102,1019,907
697,829,131,-763,283,480,-165,1229,1137,1356,1322,1244
1034,1180,146,-1107,444,663,-951,927,951,1307,1376,1395
1283,1342,58,-1312,612,700,-1932,-34,190,614,868,1068
1473,1156,-317,-1315,895,419,-2864,-1288,-966,-444,24,419
1629,961,-668,-1295,1149,146,-3337,-2313,-1917,-1332,-688,-156
1659,678,-980,-1168,1320,-151,-2908,-1952,-2122,-1644,-1078,-561
1527,570,-956,-1049,1241,-192,-2352,-1532,-1795,-1410,-951,-522
1244,517,-727,-880,985,-104,-1820,-1312,-1405,-1102,-732,-395
902,395,-507,-649,705,-56,-1376,-1112,-1083,-858,-566,-302
634,278,-356,-456,495,-39,-971,-829,-780,-614,-405,-204
375,131,-244,-253,309,-56,-605,-551,-517,-409,-278,-170
195,58,-136,-126,165,-39,-361,-346,-356,-287,-204,-146
68,-9,-78,-29,73,-43,-204,-244,-263,-224,-165,-136
-4,-58,-53,31,24,-56,-102,-180,-190,-175,-131,-117
-53,-117,-63,85,4,-90,4,-92,-126,-126,-112,-107
-73,-136,-63,104,-4,-100,43,-43,-102,-102,-97,-102
-82,-136,-53,109,-14,-95,73,-19,-87,-92,-87,-92
-112,-141,-29,126,-41,-85,107,-9,-68,-82,-78,-87
-122,-151,-29,136,-46,-90,117,-4,-58,-73,-78,-87
-122,-146,-24,134,-48,-85,122,9,-48,-68,-73,-87
-122,-156,-34,139,-43,-95,146,29,-34,-63,-63,-82
-131,-156,-24,143,-53,-90,161,34,-19,-53,-53,-68
-141,-165,-24,153,-58,-95,165,34,-14,-48,-53,-68
-141,-165,-24,153,-58,-95,165,39,-9,-43,-48,-68
-141,-165,-24,153,-58,-95,170,43,-4,-34,-39,-68
-146,-156,-9,151,-68,-82,180,48,4,-29,-39,-53
-151,-156,-4,153,-73,-80,185,43,14,-24,-39,-53
-151,-156,-4,153,-73,-80,185,39,19,-19,-34,-53
-151,-156,-4,153,-73,-80,185,39,24,-14,-24,-53
-156,-156,0,156,-78,-78,190,39,34,-4,-24,-43
-161,-151,9,156,-85,-70,195,39,43,-4,-24,-43
-161,-141,19,151,-90,-61,195,39,48,4,-14,-43
-161,-141,19,151,-90,-61,200,43,48,14,-9,-39
-165,-131,34,148,-100,-48,204,43,53,19,0,-29
-170,-126,43,148,-107,-41,209,43,63,24,9,-24
-175,-126,48,151,-112,-39,209,43,73,34,14,-19
-175,-126,48,151,-112,-39,209,43,82,43,9,-14
-180,-117,63,148,-122,-26,224,48,87,48,9,-14
-180,-112,68,146,-124,-21,229,58,102,63,19,-9
-190,-112,78,151,-134,-17,239,58,112,73,29,-4
-190,-112,78,151,-134,-17,244,63,117,82,39,0
-200,-107,92,153,-146,-7,253,68,126,92,39,4
-204,-107,97,156,-151,-4,263,63,146,97,48,9
-214,-107,107,161,-161,0,273,63,156,102,53,9
-224,-107,117,165,-170,4,297,68,175,117,58,14
-224,-92,131,158,-178,19,326,82,200,126,68,19
-229,-82,146,156,-187,31,341,92,219,141,87,29
-239,-73,165,156,-202,46,356,102,234,156,97,34
-244,-68,175,156,-209,53,380,107,253,175,112,48
-258,-68,190,163,-224,61,405,112,273,185,122,58
-283,-58,224,170,-253,82,424,117,297,209,136,68
-292,-43,248,168,-270,102,448,122,322,234,151,73
-302,-34,268,168,-285,117,478,126,351,248,165,82
-322,-24,297,173,-309,136,502,131,375,268,180,97
-341,-19,322,180,-331,151,531,131,405,287,195,102
-366,-14,351,190,-358,168,546,136,429,307,204,107
-385,-4,380,195,-383,187,566,136,453,326,214,122
-400,19,419,190,-409,219,590,136,488,346,239,141
-419,39,458,190,-439,248,610,136,517,375,258,151
-434,63,497,185,-466,280,629,136,546,405,287,165
-448,82,531,183,-490,307,649,131,575,429,302,180
-468,92,561,187,-514,326,653,131,600,448,322,200
-483,117,600,183,-541,358,653,131,629,473,346,219
-483,136,619,173,-551,378,653,131,649,497,366,239
-483,161,644,161,-563,402,629,131,663,517,380,253
-483,180,663,151,-573,422,610,136,678,536,405,278
-468,209,678,129,-573,444,575,141,683,551,424,292
-453,219,673,117,-563,446,541,146,683,561,434,307
-424,234,658,95,-541,446,488,151,663,561,439,322
-395,244,639,75,-517,441,434,165,644,556,439,336
-346,253,600,46,-473,427,390,185,624,546,439,336
-302,239,541,31,-422,390,331,209,575,517,419,331
-239,224,463,7,-351,344,283,214,522,473,390,312
-185,200,385,-7,-285,292,234,214,453,419,341,278
-146,165,312,-9,-229,239,190,214,380,351,292,234
-107,131,239,-12,-173,185,156,204,312,283,248,209
-68,102,170,-17,-119,136,112,190,239,229,195,161
-39,68,107,-14,-73,87,73,165,165,165,146,122
-14,48,63,-17,-39,56,43,146,102,112,107,87
9,19,9,-14,0,14,19,122,53,63,68,58
19,-9,-29,-4,24,-19,-4,92,9,24,34,39
34,-19,-53,-7,43,-36,-14,73,-24,0,9,14
43,-24,-68,-9,56,-46,-24,68,-43,-29,-9,4
43,-48,-92,2,68,-70,-34,48,-68,-48,-29,-14
53,-48,-102,-2,78,-75,-34,39,-82,-58,-39,-24
58,-58,-117,0,87,-87,-39,34,-92,-68,-48,-29
53,-58,-112,2,82,-85,-43,29,-102,-78,-58,-29
53,-63,-117,4,85,-90,-43,19,-112,-82,-63,-34
53,-68,-122,7,87,-95,-48,9,-112,-82,-68,-39
48,-68,-117,9,82,-92,-48,9,-112,-87,-68,-39
43,-73,-117,14,80,-95,-43,9,-117,-92,-73,-43
43,-73,-117,14,80,-95,-43,9,-117,-92,-73,-43
43,-68,-112,12,78,-90,-43,0,-117,-92,-73,-48
43,-68,-112,12,78,-90,-43,0,-117,-97,-73,-48
43,-73,-117,14,80,-95,-43,0,-117,-102,-78,-48
43,-73,-117,14,80,-95,-43,0,-112,-102,-82,-48
43,-73,-117,14,80,-95,-43,0,-122,-102,-82,-53
39,-78,-117,19,78,-97,-43,-4,-131,-102,-82,-63
34,-82,-117,24,75,-100,-39,-4,-131,-102,-82,-63
29,-87,-117,29,73,-102,-39,-9,-126,-102,-82,-58
24,-87,-112,31,68,-100,-39,-14,-126,-97,-82,-58
14,-87,-102,36,58,-95,-39,-19,-126,-97,-82,-58
14,-87,-102,36,58,-95,-39,-19,-126,-97,-82,-58
14,-92,-107,39,61,-100,-34,-24,-126,-102,-87,-63
4,-92,-97,43,51,-95,-34,-29,-126,-102,-87,-68
4,-92,-97,43,51,-95,-34,-29,-122,-102,-87,-68
14,-82,-97,34,56,-90,-34,-24,-122,-97,-82,-63
24,-73,-97,24,61,-85,-34,-24,-122,-97,-82,-58
19,-73,-92,26,56,-82,-34,-24,-122,-102,-87,-58
14,-73,-87,29,51,-80,-34,-29,-122,-102,-87,-58
-4,-78,-73,41,34,-75,-29,-34,-117,-102,-87,-68
-19,-82,-63,51,21,-73,-29,-43,-117,-102,-87,-73
-19,-82,-63,51,21,-73,-29,-43,-117,-107,-97,-73
-19,-82,-63,51,21,-73,-29,-43,-117,-107,-97,-73
-19,-87,-68,53,24,-78,-29,-39,-117,-102,-92,-68
-19,-97,-78,58,29,-87,-29,-39,-117,-102,-92,-68
-14,-92,-78,53,31,-85,-24,-39,-117,-107,-97,-73
-9,-82,-73,46,31,-78,-24,-39,-117,-107,-97,-73
-4,-73,-68,39,31,-70,-29,-39,-117,-107,-97,-73
-4,-68,-63,36,29,-65,-34,-39,-117,-107,-97,-73
-4,-68,-63,36,29,-65,-34,-39,-117,-107,-102,-73
-4,-68,-63,36,29,-65,-39,-39,-126,-112,-102,-73
-9,-73,-63,41,26,-68,-39,-39,-126,-117,-102,-78
-9,-78,-68,43,29,-73,-39,-39,-131,-117,-102,-82
-9,-78,-68,43,29,-73,-39,-34,-131,-117,-102,-82
-9,-78,-68,43,29,-73,-39,-29,-131,-117,-102,-82
-9,-87,-78,48,34,-82,-34,-39,-136,-122,-107,-87
-9,-78,-68,43,29,-73,-29,-39,-136,-122,-107,-92
9,-68,-78,29,43,-73,-29,-34,-136,-126,-112,-92
24,-53,-78,14,51,-65,-34,-34,-136,-126,-112,-97
4,-68,-73,31,39,-70,-43,-43,-141,-131,-112,-97
-14,-87,-73,51,29,-80,-48,-53,-141,-131,-117,-97
-9,-87,-78,48,34,-82,-43,-53,-146,-136,-122,-97
-9,-82,-73,46,31,-78,-43,-53,-146,-136,-126,-92
-4,-82,-78,43,36,-80,-43,-53,-146,-136,-117,-92
4,-73,-78,34,41,-75,-43,-53,-146,-131,-117,-92
0,-78,-78,39,39,-78,-53,-58,-151,-141,-126,-102
0,-78,-78,39,39,-78,-58,-58,-161,-136,-131,-102
0,-78,-78,39,39,-78,-58,-58,-170,-146,-131,-102
9,-63,-73,26,41,-68,-58,-58,-170,-146,-126,-102
4,-73,-78,34,41,-75,-63,-63,-165,-146,-131,-102
0,-82,-82,41,41,-82,-68,-58,-165,-141,-136,-102
-4,-82,-78,43,36,-80,-63,-68,-175,-151,-136,-102
-4,-78,-73,41,34,-75,-68,-73,-175,-151,-136,-107
-19,-78,-58,48,19,-68,-68,-73,-170,-146,-136,-107
-19,-82,-63,51,21,-73,-68,-73,-170,-146,-131,-112
-4,-73,-68,39,31,-70,-78,-68,-180,-146,-131,-107
4,-68,-73,31,39,-70,-73,-68,-180,-151,-141,-107
9,-68,-78,29,43,-73,-68,-68,-180,-151,-141,-107
14,-68,-82,26,48,-75,-68,-73,-185,-156,-146,-112
24,-53,-78,14,51,-65,-58,-53,-170,-141,-131,-92
39,-39,-78,0,58,-58,-48,-39,-156,-126,-117,-78
43,-24,-68,-9,56,-46,-39,-24,-141,-117,-107,-73
48,-9,-58,-19,53,-34,-29,-9,-126,-107,-97,-68
53,-4,-58,-24,56,-31,-24,-9,-122,-102,-92,-63
68,4,-63,-36,65,-29,-9,0,-107,-87,-82,-53
82,19,-63,-51,73,-21,0,14,-97,-78,-73,-48
87,29,-58,-58,73,-14,19,29,-78,-68,-63,-34
107,48,-58,-78,82,-4,29,48,-63,-48,-43,-19
126,73,-53,-100,90,9,29,63,-43,-29,-29,4
170,102,-68,-136,119,17,19,82,-34,-4,-9,29
214,122,-92,-168,153,14,14,102,-24,9,4,43
244,136,-107,-190,175,14,4,112,-24,9,4,53
258,141,-117,-200,187,12,-19,92,-43,0,-4,43
239,131,-107,-185,173,12,-39,73,-58,-14,-14,39
229,107,-122,-168,175,-7,-58,63,-78,-34,-29,24
229,82,-146,-156,187,-31,-78,63,-92,-43,-34,9
234,78,-156,-156,195,-39,-78,73,-92,-48,-39,9
229,53,-175,-141,202,-61,-78,58,-112,-63,-53,-4
214,43,-170,-129,192,-63,-87,29,-126,-82,-63,-14
195,53,-141,-124,168,-43,-102,9,-126,-82,-68,-24
170,53,-117,-112,143,-31,-102,0,-136,-92,-78,-39
156,39,-117,-97,136,-39,-92,0,-141,-97,-87,-43
117,24,-92,-70,104,-34,-73,0,-146,-107,-92,-53
63,-4,-68,-29,65,-36,-73,-24,-156,-122,-107,-78
34,-29,-63,-2,48,-46,-73,-39,-170,-141,-126,-92
24,-39,-63,7,43,-51,-87,-58,-180,-156,-136,-97
19,-48,-68,14,43,-58,-92,-73,-190,-165,-146,-107
9,-58,-68,24,39,-63,-92,-78,-200,-170,-151,-112
-9,-63,-53,36,21,-58,-97,-82,-204,-175,-156,-122
-14,-68,-53,41,19,-61,-97,-87,-204,-170,-156,-122
-14,-68,-53,41,19,-61,-92,-87,-204,-170,-161,-126
-19,-68,-48,43,14,-58,-92,-87,-200,-170,-165,-131
-19,-73,-53,46,17,-63,-92,-87,-200,-170,-170,-131
-29,-78,-48,53,9,-63,-92,-92,-204,-175,-175,-131
-39,-78,-39,58,0,-58,-92,-92,-204,-185,-175,-131
-29,-78,-48,53,9,-63,-82,-87,-204,-185,-170,-131
-29,-78,-48,53,9,-63,-82,-87,-204,-185,-165,-126
-34,-73,-39,53,2,-56,-92,-92,-200,-185,-165,-131
-48,-87,-39,68,-4,-63,-73,-97,-200,-185,-170,-136
-82,-122,-39,102,-21,-80,-4,-63,-195,-180,-175,-151
-92,-141,-48,117,-21,-95,63,-4,-156,-156,-180,-156
-141,-180,-39,161,-51,-109,122,14,-126,-151,-175,-165
-165,-190,-24,178,-70,-107,200,53,-68,-107,-136,-156
-214,-214,0,214,-107,-107,322,136,-14,-82,-136,-161
-214,-165,48,190,-131,-58,434,317,151,58,-19,-68
-161,19,180,70,-170,100,473,522,434,346,229,156
9,248,239,-129,-114,244,439,741,692,639,507,424
239,453,214,-346,12,334,395,1073,941,966,829,741
561,746,185,-653,187,466,126,1288,1151,1307,1200,1122
922,1185,263,-1054,329,724,-566,1205,1200,1483,1449,1434
1200,1454,253,-1327,473,854,-1532,390,649,1010,1137,1273
1424,1332,-92,-1378,758,619,-2698,-1132,-585,-92,283,634
1620,1166,-453,-1393,1037,356,-3455,-2425,-1708,-1102,-502,24
1712,863,-849,-1288,1281,7,-3162,-2156,-2122,-1595,-1044,-492
1654,727,-927,-1190,1290,-100,-2654,-1761,-1947,-1503,-1054,-561
1390,663,-727,-1027,1058,-31,-2093,-1507,-1551,-1200,-849,-444
1049,536,-512,-793,780,12,-1620,-1298,-1224,-961,-683,-361
766,414,-351,-590,558,31,-1166,-980,-902,-702,-507,-258
483,258,-224,-370,353,17,-756,-678,-614,-483,-370,-209
263,165,-97,-214,180,34,-483,-458,-439,-351,-297,-185
107,87,-19,-97,63,34,-297,-331,-331,-273,-253,-175
19,29,9,-24,4,19,-170,-244,-253,-224,-209,-156
-43,-39,4,41,-24,-17,-43,-141,-185,-175,-180,-146
-63,-58,4,61,-34,-26,-4,-92,-161,-151,-165,-141
-73,-58,14,65,-43,-21,24,-68,-146,-141,-156,-131
-107,-68,39,87,-73,-14,58,-53,-126,-131,-146,-126
-122,-92,29,107,-75,-31,68,-43,-117,-122,-146,-126
-122,-97,24,109,-73,-36,73,-29,-107,-117,-146,-126
-122,-97,24,109,-73,-36,97,-9,-92,-107,-141,-122
-131,-87,43,109,-87,-21,117,0,-78,-92,-131,-107
-141,-97,43,119,-92,-26,126,4,-73,-87,-131,-107
-141,-97,43,119,-92,-26,126,9,-68,-82,-126,-107
-141,-97,43,119,-92,-26,131,14,-63,-73,-112,-107
-146,-87,58,117,-102,-14,146,19,-53,-68,-107,-92
-151,-87,63,119,-107,-12,156,19,-43,-63,-107,-92
-156,-92,63,124,-109,-14,156,19,-39,-58,-102,-97
-161,-97,63,129,-112,-17,156,19,-34,-53,-92,-102
-165,-97,68,131,-117,-14,161,19,-24,-43,-92,-92
-170,-97,73,134,-122,-12,165,19,-14,-43,-92,-92
-170,-92,78,131,-124,-7,165,19,-9,-34,-82,-92
-170,-92,78,131,-124,-7,170,24,-4,-24,-78,-87
-175,-82,92,129,-134,4,175,29,4,-19,-68,-78
-175,-78,97,126,-136,9,180,34,14,-14,-58,-73
-170,-73,97,122,-134,12,175,34,24,-4,-53,-63
-165,-68,97,117,-131,14,170,34,34,4,-53,-53
-165,-58,107,112,-136,24,185,39,39,9,-48,-53
-161,-48,112,104,-136,31,190,48,53,19,-39,-48
-170,-43,126,107,-148,41,200,48,63,24,-34,-43
-170,-43,126,107,-148,41,204,53,68,34,-29,-39
-185,-43,141,114,-163,48,214,58,73,43,-29,-39
-195,-48,146,122,-170,48,224,58,87,53,-19,-34
-204,-48,156,126,-180,53,234,63,97,63,-14,-29
-214,-48,165,131,-190,58,253,68,112,78,-9,-24
-209,-34,175,122,-192,70,278,82,131,87,0,-19
-209,-24,185,117,-197,80,292,87,151,102,19,-9
-219,-14,204,117,-212,95,307,97,165,117,29,-4
-224,-9,214,117,-219,102,326,107,185,136,39,4
-239,-9,229,124,-234,109,346,112,200,141,43,9
-263,-4,258,134,-261,126,366,117,219,156,58,19
-273,0,273,136,-273,136,385,122,244,175,68,24
-283,4,287,139,-285,146,409,126,273,190,78,34
-302,14,317,143,-309,165,434,131,292,204,92,48
-317,24,341,146,-329,183,463,131,317,224,112,58
-331,34,366,148,-348,200,478,141,341,248,131,73
-346,43,390,151,-368,217,497,146,366,268,146,92
-361,73,434,143,-397,253,527,146,405,287,170,112
-380,97,478,141,-429,287,551,146,439,317,190,122
-395,122,517,136,-456,319,570,146,468,346,214,131
-409,141,551,134,-480,346,585,146,497,370,224,141
-429,151,580,139,-505,366,590,151,522,390,244,161
-444,175,619,134,-531,397,595,151,551,414,268,180
-453,190,644,131,-549,417,595,151,580,444,287,200
-463,214,678,124,-570,446,575,146,605,468,302,214
-468,239,707,114,-588,473,570,141,624,488,326,239
-458,268,727,95,-592,497,546,141,634,502,346,253
-444,287,732,78,-588,509,522,146,639,522,366,268
-414,312,727,51,-570,519,483,151,629,531,380,283
-390,326,717,31,-553,522,434,165,624,531,385,307
-346,341,688,2,-517,514,390,185,614,527,390,317
-302,331,634,-14,-468,483,331,209,575,512,380,317
-253,317,570,-31,-412,444,287,214,531,483,361,302
-214,287,502,-36,-358,395,239,214,463,429,312,268
-165,253,419,-43,-292,336,190,214,390,366,263,224
-117,219,336,-51,-226,278,151,204,317,302,219,200
-78,190,268,-56,-173,229,107,190,244,248,165,156
-39,156,195,-58,-117,175,68,165,175,185,117,122
-9,136,146,-63,-78,141,34,146,112,131,78,87
9,97,87,-53,-39,92,4,122,53,73,29,48
19,58,39,-39,-9,48,-24,92,0,24,-14,19
34,48,14,-41,9,31,-34,63,-34,0,-39,-4
43,43,0,-43,21,21,-43,48,-53,-29,-53,-14
43,14,-29,-29,36,-7,-53,29,-82,-53,-73,-39
48,9,-39,-29,43,-14,-53,19,-102,-68,-87,-53
53,0,-53,-26,53,-26,-58,14,-112,-78,-97,-58
53,-4,-58,-24,56,-31,-63,9,-122,-87,-107,-58
53,-14,-68,-19,61,-41,-63,0,-136,-97,-112,-63
58,-19,-78,-19,68,-48,-68,-9,-141,-102,-117,-68
58,-24,-82,-17,70,-53,-73,-9,-141,-107,-117,-68
53,-34,-87,-9,70,-61,-73,-9,-146,-112,-122,-73
53,-34,-87,-9,70,-61,-73,-9,-146,-112,-126,-73
53,-29,-82,-12,68,-56,-73,-19,-151,-112,-131,-78
48,-29,-78,-9,63,-53,-73,-19,-156,-117,-131,-78
43,-34,-78,-4,61,-56,-73,-19,-156,-122,-131,-78
43,-34,-78,-4,61,-56,-73,-19,-151,-122,-126,-73
43,-34,-78,-4,61,-56,-73,-19,-151,-122,-122,-68
39,-39,-78,0,58,-58,-73,-24,-151,-122,-122,-73
39,-39,-78,0,58,-58,-68,-24,-151,-122,-122,-73
43,-34,-78,-4,61,-56,-68,-24,-146,-122,-122,-68
43,-29,-73,-7,58,-51,-68,-24,-146,-117,-122,-68
34,-29,-63,-2,48,-46,-68,-29,-146,-117,-122,-73
34,-29,-63,-2,48,-46,-68,-29,-146,-117,-122,-78
34,-34,-68,0,51,-51,-58,-34,-141,-122,-126,-82
24,-34,-58,4,41,-46,-53,-39,-141,-122,-126,-87
24,-34,-58,4,41,-46,-53,-39,-141,-117,-126,-87
24,-34,-58,4,41,-46,-53,-39,-141,-107,-122,-87
9,-53,-63,21,36,-58,-53,-43,-141,-107,-122,-87
-9,-73,-63,41,26,-68,-53,-43,-141,-112,-126,-87
0,-58,-58,29,29,-58,-53,-48,-141,-112,-126,-82
4,-48,-53,21,29,-51,-48,-48,-136,-112,-126,-82
0,-53,-53,26,26,-53,-48,-58,-136,-112,-126,-82
0,-53,-53,26,26,-53,-48,-63,-136,-117,-136,-82
-4,-53,-48,29,21,-51,-48,-63,-136,-117,-136,-87
-9,-48,-39,29,14,-43,-48,-58,-136,-112,-131,-87
-9,-48,-39,29,14,-43,-48,-58,-136,-112,-131,-87
-9,-53,-43,31,17,-48,-43,-58,-136,-117,-136,-92
-14,-53,-39,34,12,-46,-43,-58,-136,-117,-131,-87
-14,-48,-34,31,9,-41,-43,-58,-136,-117,-126,-82
-14,-48,-34,31,9,-41,-43,-58,-131,-112,-122,-82
-14,-48,-34,31,9,-41,-43,-58,-126,-107,-122,-82
-9,-39,-29,24,9,-34,-48,-58,-136,-112,-122,-82
-9,-34,-24,21,7,-29,-48,-58,-136,-117,-122,-82
-9,-48,-39,29,14,-43,-48,-58,-141,-117,-122,-87
-9,-58,-48,34,19,-53,-48,-58,-141,-117,-122,-92
-9,-58,-48,34,19,-53,-48,-53,-141,-117,-126,-92
-9,-68,-58,39,24,-63,-48,-58,-146,-122,-136,-97
-9,-58,-48,34,19,-53,-48,-58,-146,-122,-136,-102
-4,-58,-53,31,24,-56,-48,-53,-146,-126,-141,-102
-4,-53,-48,29,21,-51,-53,-53,-146,-126,-141,-107
-4,-53,-48,29,21,-51,-58,-53,-151,-131,-141,-107
-4,-58,-53,31,24,-56,-58,-53,-151,-136,-146,-107
0,-58,-58,29,29,-58,-53,-53,-151,-141,-146,-107
0,-58,-58,29,29,-58,-53,-53,-146,-136,-151,-102
4,-63,-68,29,36,-65,-53,-48,-146,-136,-146,-102
0,-68,-68,34,34,-68,-63,-63,-156,-146,-151,-107
-9,-78,-68,43,29,-73,-73,-78,-161,-161,-151,-112
0,-68,-68,34,34,-68,-68,-68,-161,-146,-141,-102
4,-63,-68,29,36,-65,-63,-58,-161,-141,-136,-97
0,-63,-63,31,31,-63,-68,-63,-175,-141,-146,-112
-4,-73,-68,39,31,-70,-73,-73,-180,-151,-156,-122
-9,-78,-68,43,29,-73,-73,-68,-170,-146,-156,-122
-14,-78,-63,46,24,-70,-68,-68,-170,-146,-156,-117
-4,-68,-63,36,29,-65,-68,-58,-156,-141,-146,-117
4,-68,-73,31,39,-70,-68,-58,-151,-146,-136,-117
4,-68,-73,31,39,-70,-68,-63,-161,-146,-141,-117
9,-73,-82,31,46,-78,-73,-73,-175,-146,-151,-117
19,-58,-78,19,48,-68,-63,-58,-165,-141,-141,-107
29,-48,-78,9,53,-63,-58,-48,-156,-136,-136,-97
39,-34,-73,-2,56,-53,-48,-39,-141,-122,-122,-87
48,-19,-68,-14,58,-43,-39,-29,-126,-107,-107,-78
53,-4,-58,-24,56,-31,-39,-24,-122,-102,-102,-73
63,4,-58,-34,61,-26,-29,-9,-107,-87,-92,-63
78,19,-58,-48,68,-19,-24,4,-97,-78,-87,-58
78,19,-58,-48,68,-19,-9,19,-78,-68,-82,-43
92,39,-53,-65,73,-7,9,39,-63,-48,-58,-29
107,63,-43,-85,75,9,19,53,-43,-29,-39,-4
165,97,-68,-131,117,14,14,78,-34,-4,-14,19
224,122,-102,-173,163,9,14,102,-24,9,4,34
253,146,-107,-200,180,19,9,112,-14,14,9,53
268,161,-107,-214,187,26,-9,92,-24,9,4,53
234,141,-92,-187,163,24,-34,73,-39,-4,-4,39
209,107,-102,-158,156,2,-58,63,-58,-24,-19,14
209,78,-131,-143,170,-26,-78,63,-73,-39,-29,-4
214,68,-146,-141,180,-39,-78,73,-73,-48,-39,-9
214,43,-170,-129,192,-63,-78,58,-97,-63,-53,-24
204,34,-170,-119,187,-68,-87,29,-117,-82,-63,-34
185,43,-141,-114,163,-48,-102,9,-117,-82,-68,-39
161,43,-117,-102,139,-36,-102,0,-126,-92,-78,-48
136,24,-112,-80,124,-43,-97,-4,-126,-97,-87,-53
87,4,-82,-46,85,-39,-82,-9,-126,-107,-92,-63
43,-24,-68,-9,56,-46,-82,-29,-131,-112,-102,-82
24,-48,-73,12,48,-61,-82,-39,-141,-122,-117,-92
14,-58,-73,21,43,-65,-92,-53,-151,-136,-126,-97
9,-68,-78,29,43,-73,-92,-63,-161,-146,-136,-107
4,-82,-87,39,46,-85,-92,-73,-175,-156,-141,-112
-9,-92,-82,51,36,-87,-97,-82,-185,-165,-146,-122
-24,-112,-87,68,31,-100,-97,-87,-185,-165,-156,-122
-34,-126,-92,80,29,-109,-92,-87,-185,-170,-170,-126
-19,-107,-87,63,34,-97,-92,-87,-180,-165,-161,-131
0,-92,-92,46,46,-92,-92,-87,-180,-161,-151,-131
-24,-97,-73,61,24,-85,-92,-92,-185,-161,-151,-126
-48,-97,-48,73,0,-73,-92,-92,-185,-165,-146,-122
-39,-97,-58,68,9,-78,-82,-87,-185,-165,-146,-126
-39,-97,-58,68,9,-78,-82,-87,-185,-165,-146,-126
-39,-97,-58,68,9,-78,-92,-87,-180,-165,-146,-131
-48,-117,-68,82,9,-92,-73,-87,-180,-165,-151,-136
-82,-151,-68,117,-7,-109,-4,-63,-170,-165,-156,-151
-92,-170,-78,131,-7,-124,63,-14,-126,-146,-161,-156
-146,-214,-68,180,-39,-141,122,9,-97,-131,-156,-161
-175,-229,-53,202,-61,-141,200,53,-39,-78,-117,-146
-224,-253,-29,239,-97,-141,322,122,4,-58,-122,-161
-224,-204,19,214,-122,-92,434,287,161,78,-9,-78
-185,-9,175,97,-180,82,488,492,473,375,258,151
-29,229,258,-100,-143,244,468,712,761,678,556,424
209,429,219,-319,-4,324,444,1058,1015,1010,878,746
541,717,175,-629,183,446,195,1288,1229,1356,1249,1132
878,1166,287,-1022,295,727,-463,1249,1317,1561,1527,1468
1132,1444,312,-1288,409,878,-1395,478,805,1117,1244,1332
1356,1337,-19,-1346,688,658,-2596,-1078,-453,4,380,692
1551,1185,-366,-1368,958,409,-3386,-2405,-1600,-1015,-414,82
1644,868,-775,-1256,1210,46,-3128,-2132,-2030,-1527,-961,-439
1586,717,-868,-1151,1227,-75,-2654,-1732,-1869,-1454,-976,-512
1342,649,-692,-995,1017,-21,-2078,-1464,-1483,-1151,-771,-395
1019,517,-502,-768,761,7,-1590,-1239,-1166,-912,-605,-312
732,385,-346,-558,539,19,-1151,-941,-854,-663,-444,-224
444,219,-224,-331,334,-2,-756,-658,-575,-453,-322,-190
244,126,-117,-185,180,4,-473,-434,-400,-326,-253,-175
107,48,-58,-78,82,-4,-278,-302,-292,-253,-214,-175
19,-9,-29,-4,24,-19,-165,-224,-214,-204,-175,-156
-43,-78,-34,61,-4,-56,-53,-131,-146,-156,-151,-146
-63,-102,-39,82,-12,-70,-14,-78,-122,-131,-136,-136
-73,-107,-34,90,-19,-70,14,-48,-107,-122,-126,-122
-112,-112,0,112,-56,-56,63,-39,-82,-107,-112,-117
-131,-131,0,131,-65,-65,87,-34,-68,-92,-107,-117
-122,-136,-14,129,-53,-75,92,-14,-53,-87,-102,-117
-112,-136,-24,124,-43,-80,117,9,-34,-78,-92,-112
-122,-126,-4,124,-58,-65,131,14,-19,-63,-82,-107
-131,-136,-4,134,-63,-70,136,14,-14,-58,-82,-117
-131,-131,0,131,-65,-65,136,19,-9,-53,-78,-107
-131,-126,4,129,-68,-61,141,24,-4,-43,-63,-97
-136,-117,19,126,-78,-48,151,29,4,-39,-53,-78
-141,-117,24,129,-82,-46,156,29,14,-34,-48,-73
-141,-117,24,129,-82,-46,156,29,19,-29,-43,-73
-141,-117,24,129,-82,-46,156,29,24,-24,-34,-73
-146,-122,24,134,-85,-48,156,24,29,-14,-34,-63
-151,-126,24,139,-87,-51,156,19,34,-14,-34,-63
-156,-126,29,141,-92,-48,156,19,39,-4,-29,-73
-161,-131,29,146,-95,-51,161,24,43,4,-29,-78
-165,-126,39,146,-102,-43,161,24,48,9,-19,-68
-165,-126,39,146,-102,-43,161,24,53,14,-9,-63
-165,-126,39,146,-102,-43,161,29,63,24,-4,-58
-165,-126,39,146,-102,-43,161,34,73,34,-4,-53
-165,-107,58,136,-112,-24,175,39,82,39,4,-43
-161,-87,73,124,-117,-7,180,48,102,48,19,-29
-170,-82,87,126,-129,2,190,48,112,53,29,-24
-170,-82,87,126,-129,2,195,53,117,63,39,-19
-180,-78,102,129,-141,12,200,53,126,73,39,-19
-185,-78,107,131,-146,14,204,48,146,82,48,-14
-195,-78,117,136,-156,19,214,53,151,92,53,-9
-204,-78,126,141,-165,24,234,58,161,107,58,-4
-204,-68,136,136,-170,34,258,73,180,117,63,0
-209,-63,146,136,-178,41,273,78,200,131,78,9
-214,-53,161,134,-187,53,283,82,214,141,87,14
-214,-48,165,131,-190,58,297,87,234,156,97,24
-229,-48,180,139,-204,65,317,92,248,161,102,29
-253,-43,209,148,-231,82,336,97,268,175,117,39
-263,-34,229,148,-246,97,356,102,292,195,131,43
-273,-24,248,148,-261,112,380,107,322,209,146,53
-292,-14,278,153,-285,131,405,112,346,229,156,58
-307,-4,302,156,-305,148,434,112,375,253,170,58
-326,0,326,163,-326,163,444,107,395,273,185,68
-346,4,351,170,-348,178,458,97,414,287,195,82
-361,24,385,168,-373,204,483,97,448,307,219,102
-380,39,419,170,-400,229,502,97,478,336,239,112
-390,63,453,163,-422,258,522,97,512,366,268,126
-400,82,483,158,-441,283,536,97,546,390,283,141
-419,92,512,163,-466,302,536,97,570,409,302,161
-434,117,551,158,-492,334,536,92,600,434,326,180
-444,136,580,153,-512,358,546,92,619,458,346,200
-453,165,619,143,-536,392,536,87,634,478,361,214
-458,190,649,134,-553,419,531,82,658,507,390,244
-448,219,668,114,-558,444,507,82,673,531,414,263
-434,239,673,97,-553,456,483,87,683,546,424,278
-405,263,668,70,-536,466,444,92,678,551,429,292
-395,273,668,61,-531,470,400,107,673,556,444,312
-366,283,649,41,-507,466,361,126,663,556,458,317
-322,283,605,19,-463,444,307,156,639,546,453,326
-273,278,551,-2,-412,414,268,165,610,522,439,322
-234,248,483,-7,-358,366,224,180,546,473,395,297
-185,214,400,-14,-292,307,180,195,478,414,351,263
-136,180,317,-21,-226,248,141,195,409,351,307,239
-97,151,248,-26,-173,200,97,190,341,297,253,195
-53,112,165,-29,-109,139,58,170,268,234,204,161
-19,87,107,-34,-63,97,24,156,200,180,165,126
0,53,53,-26,-26,53,0,131,141,117,122,92
9,19,9,-14,0,14,-24,102,87,63,82,68
24,4,-19,-14,21,-7,-39,78,39,34,48,39
34,-4,-39,-14,36,-21,-53,68,4,0,24,24
43,-29,-73,-7,58,-51,-63,48,-19,-24,9,4
58,-29,-87,-14,73,-58,-63,39,-34,-39,0,-4
48,-48,-97,0,73,-73,-73,24,-53,-53,-19,-19
34,-63,-97,14,65,-80,-82,9,-73,-68,-39,-29
34,-73,-107,19,70,-90,-82,0,-82,-73,-43,-34
39,-78,-117,19,78,-97,-87,-9,-82,-73,-48,-39
39,-68,-107,14,73,-87,-87,-9,-82,-82,-48,-39
34,-63,-97,14,65,-80,-82,-9,-87,-92,-53,-43
34,-82,-117,24,75,-100,-82,-9,-87,-92,-53,-48
34,-97,-131,31,82,-114,-82,-19,-92,-92,-53,-58
43,-73,-117,14,80,-95,-82,-19,-97,-97,-53,-58
53,-53,-107,0,80,-80,-82,-19,-97,-102,-53,-58
43,-63,-107,9,75,-85,-82,-19,-92,-102,-53,-58
34,-73,-107,19,70,-90,-82,-19,-92,-102,-53,-58
29,-78,-107,24,68,-92,-87,-24,-97,-102,-53,-58
29,-78,-107,24,68,-92,-87,-24,-102,-102,-53,-53
29,-87,-117,29,73,-102,-87,-29,-97,-102,-53,-48
24,-97,-122,36,73,-109,-87,-34,-97,-97,-53,-48
24,-78,-102,26,63,-90,-87,-39,-92,-97,-53,-48
34,-58,-92,12,63,-75,-87,-39,-87,-97,-53,-48
19,-78,-97,29,58,-87,-82,-43,-87,-102,-58,-53
-4,-92,-87,48,41,-90,-82,-48,-92,-102,-58,-58
-4,-92,-87,48,41,-90,-82,-48,-92,-102,-58,-58
-4,-92,-87,48,41,-90,-82,-48,-92,-97,-53,-58
-4,-92,-87,48,41,-90,-82,-53,-92,-97,-53,-58
-9,-92,-82,51,36,-87,-82,-53,-92,-102,-58,-58
-14,-92,-78,53,31,-85,-82,-58,-97,-102,-58,-58
-24,-97,-73,61,24,-85,-78,-58,-97,-102,-58,-63
-24,-102,-78,63,26,-90,-78,-68,-97,-102,-58,-63
-19,-102,-82,61,31,-92,-78,-73,-97,-107,-68,-63
-19,-102,-82,61,31,-92,-78,-73,-97,-107,-73,-63
-19,-97,-78,58,29,-87,-78,-68,-97,-102,-73,-58
-24,-97,-73,61,24,-85,-82,-68,-97,-102,-73,-58
-29,-102,-73,65,21,-87,-82,-68,-97,-107,-78,-63
-29,-102,-73,65,21,-87,-82,-68,-97,-107,-73,-63
-24,-97,-73,61,24,-85,-82,-68,-97,-107,-68,-63
-24,-97,-73,61,24,-85,-82,-68,-97,-107,-68,-63
