I, II, III, aVR, aVL, aVF, V1, V2, V3, V4, V5, V6
-97,-48,48,73,-73,0,-19,-107,-39,-39,-39,-39
-107,-48,58,78,-82,4,-19,-102,-39,-34,-39,-39
-122,-53,68,87,-95,7,-19,-97,-39,-34,-34,-39
-112,-53,58,82,-85,2,-19,-97,-39,-34,-34,-39
-102,-53,48,78,-75,-2,-19,-102,-39,-34,-34,-39
-102,-48,53,75,-78,2,-19,-102,-34,-34,-34,-39
-102,-48,53,75,-78,2,-19,-102,-34,-34,-34,-34
-102,-53,48,78,-75,-2,-14,-102,-34,-39,-39,-39
-97,-53,43,75,-70,-4,-14,-102,-39,-48,-43,-43
-92,-53,39,73,-65,-7,-14,-102,-43,-53,-48,-43
-87,-53,34,70,-61,-9,-14,-102,-48,-53,-53,-43
-117,-63,53,90,-85,-4,-14,-112,-58,-63,-68,-63
-170,-43,126,107,-148,41,9,-122,-24,-34,-43,-39
-234,9,244,112,-239,126,53,-117,78,63,58,53
-263,92,356,85,-309,224,68,-102,190,190,180,170
-273,200,473,36,-373,336,107,-4,336,346,346,322
-273,297,570,-12,-422,434,165,87,463,483,483,453
-287,448,736,-80,-512,592,102,-165,541,580,585,580
-209,653,863,-222,-536,758,-156,-580,512,585,649,683
-34,858,893,-412,-463,875,-629,-1122,317,483,634,732
204,941,736,-573,-265,839,-1107,-1542,-82,204,458,629
605,922,317,-763,143,619,-1610,-1825,-580,-195,156,409
1005,712,-292,-858,649,209,-2064,-2005,-1063,-619,-219,78
1410,53,-1356,-732,1383,-651,-2235,-1873,-1610,-1190,-824,-551
1654,-619,-2274,-517,1964,-1446,-2161,-1703,-2039,-1698,-1410,-1180
1693,-1288,-2981,-202,2337,-2135,-1956,-1595,-2449,-2288,-2122,-1937
1644,-1600,-3245,-21,2444,-2422,-1761,-1527,-2562,-2493,-2400,-2244
1473,-1561,-3035,43,2254,-2298,-1542,-1542,-2352,-2318,-2254,-2122
1293,-1507,-2801,107,2047,-2154,-1307,-1429,-2098,-2078,-2054,-1966
1019,-1356,-2376,168,1698,-1866,-1058,-1210,-1766,-1781,-1771,-1703
722,-1171,-1893,224,1307,-1532,-824,-1019,-1444,-1478,-1488,-1424
546,-990,-1537,222,1041,-1263,-673,-936,-1200,-1239,-1254,-1210
400,-751,-1151,175,775,-951,-502,-771,-893,-917,-941,-912
258,-502,-761,122,509,-631,-336,-507,-580,-610,-624,-605
131,-366,-497,117,314,-431,-229,-361,-414,-439,-448,-439
4,-307,-312,151,158,-309,-107,-273,-287,-322,-341,-331
-102,-244,-141,173,19,-192,-4,-180,-165,-195,-224,-224
-126,-165,-39,146,-43,-102,29,-78,-63,-82,-107,-117
-131,-107,24,119,-78,-41,63,-4,-9,-24,-39,-53
-136,-97,39,117,-87,-29,82,4,0,-24,-34,-48
-161,-97,63,129,-112,-17,97,9,24,-4,-19,-39
-161,-97,63,129,-112,-17,87,9,29,4,-24,-34
-161,-78,82,119,-122,2,87,14,29,4,-19,-24
-161,-78,82,119,-122,2,97,24,29,4,-19,-19
-170,-78,92,124,-131,7,112,24,39,9,-14,-14
-170,-82,87,126,-129,2,112,24,39,19,-4,-14
-170,-82,87,126,-129,2,107,24,39,24,0,-14
-170,-68,102,119,-136,17,107,29,39,24,0,-14
-180,-63,117,122,-148,26,117,34,48,29,4,-14
-180,-63,117,122,-148,26,117,34,53,34,4,-9
-180,-58,122,119,-151,31,117,34,58,34,4,-9
-180,-58,122,119,-151,31,117,34,63,34,9,-9
-180,-58,122,119,-151,31,122,39,68,43,14,-4
-180,-53,126,117,-153,36,122,43,68,43,19,0
-190,-53,136,122,-163,41,126,53,73,48,24,4
-195,-58,136,126,-165,39,131,53,73,48,24,4
-200,-58,141,129,-170,41,141,58,73,48,29,9
-195,-53,141,124,-168,43,146,73,78,53,29,9
-195,-53,141,124,-168,43,151,78,78,58,29,14
-200,-58,141,129,-170,41,161,92,87,63,34,14
-209,-58,151,134,-180,46,170,102,102,73,39,19
-224,-58,165,141,-195,53,180,112,107,78,43,24
-234,-58,175,146,-204,58,185,122,112,82,48,29
-214,-58,156,136,-185,48,190,131,122,92,58,34
-195,-53,141,124,-168,43,195,136,122,102,63,39
-195,-53,141,124,-168,43,200,151,131,107,68,43
-195,-43,151,119,-173,53,209,165,136,112,73,43
-204,-43,161,124,-183,58,219,190,146,117,82,53
-209,-48,161,129,-185,56,234,209,156,126,92,63
-209,-43,165,126,-187,61,248,229,170,141,102,68
-214,-39,175,126,-195,68,263,263,180,156,117,78
-214,-29,185,122,-200,78,283,292,195,170,131,92
-219,-24,195,122,-207,85,302,322,209,185,146,107
-219,-9,209,114,-214,100,322,361,224,204,156,117
-209,9,219,100,-214,114,341,400,244,219,170,131
-204,14,219,95,-212,117,366,444,268,234,195,146
-204,24,229,90,-217,126,390,492,297,268,214,170
-209,39,248,85,-229,143,424,546,326,297,244,190
-219,43,263,87,-241,153,453,605,361,336,283,224
-214,58,273,78,-244,165,488,663,390,366,317,253
-209,78,287,65,-248,183,512,722,419,400,346,283
-185,97,283,43,-234,190,531,780,453,434,375,307
-175,122,297,26,-236,209,556,844,492,473,419,346
-161,151,312,4,-236,231,566,897,527,507,448,375
-146,170,317,-12,-231,244,575,946,546,536,478,405
-131,200,331,-34,-231,265,585,985,575,566,507,434
-92,229,322,-68,-207,275,590,1024,600,595,541,463
-97,248,346,-75,-222,297,595,1054,624,624,570,492
-112,273,385,-80,-248,329,600,1073,639,644,595,517
-87,287,375,-100,-231,331,590,1073,639,658,605,527
-63,312,375,-124,-219,344,570,1068,639,658,610,527
-48,326,375,-139,-212,351,546,1054,634,658,610,531
-24,331,356,-153,-190,344,517,1019,629,644,605,531
-9,331,341,-161,-175,336,483,971,605,624,585,517
4,336,331,-170,-163,334,453,917,575,600,566,502
19,336,317,-178,-148,326,409,863,546,570,536,478
29,331,302,-180,-136,317,375,800,512,541,502,453
48,317,268,-183,-109,292,336,727,473,502,473,424
58,302,244,-180,-92,273,302,658,434,463,439,395
63,283,219,-173,-78,251,263,595,395,419,395,366
68,263,195,-165,-63,229,229,531,356,375,356,331
63,248,185,-156,-61,217,200,463,317,336,317,297
53,224,170,-139,-58,197,165,400,278,297,283,268
53,204,151,-129,-48,178,141,341,239,258,244,239
53,185,131,-119,-39,158,122,292,200,224,214,204
53,161,107,-107,-26,134,97,234,175,190,185,180
58,151,92,-104,-17,122,73,190,141,161,161,156
43,131,87,-87,-21,109,53,156,122,136,131,126
34,107,73,-70,-19,90,43,122,102,112,117,102
29,97,68,-63,-19,82,34,92,87,97,102,92
24,82,58,-53,-17,70,19,58,63,73,78,73
14,63,48,-39,-17,56,4,43,43,58,63,58
4,48,43,-26,-19,46,0,29,29,48,48,48
4,39,34,-21,-14,36,-9,9,19,34,34,34
4,29,24,-17,-9,26,-14,0,9,24,24,24
0,29,29,-14,-14,29,-19,-14,-4,9,4,14
0,24,24,-12,-12,24,-24,-19,-14,0,-4,9
0,19,19,-9,-9,19,-24,-24,-14,-4,-14,4
-9,14,24,-2,-17,19,-24,-29,-14,-9,-19,-4
4,4,0,-4,2,2,-29,-34,-24,-19,-19,-14
-4,0,4,2,-4,2,-29,-39,-29,-19,-19,-14
-4,-4,0,4,-2,-2,-29,-43,-34,-19,-19,-14
-4,-4,0,4,-2,-2,-29,-48,-34,-24,-19,-19
-9,-4,4,7,-7,0,-29,-53,-34,-24,-24,-19
-14,-4,9,9,-12,2,-29,-53,-34,-24,-24,-19
-14,-9,4,12,-9,-2,-24,-53,-29,-24,-24,-19
-14,-9,4,12,-9,-2,-24,-53,-29,-29,-29,-24
-9,-9,0,9,-4,-4,-19,-48,-29,-29,-29,-29
-9,-14,-4,12,-2,-9,-14,-48,-29,-29,-29,-29
-14,-24,-9,19,-2,-17,-4,-48,-29,-29,-29,-29
-19,-24,-4,21,-7,-14,-4,-48,-24,-29,-29,-29
-34,-24,9,29,-21,-7,0,-43,-24,-29,-29,-29
-48,-24,24,36,-36,0,4,-39,-24,-24,-29,-24
-53,-24,29,39,-41,2,4,-39,-24,-24,-29,-24
-53,-24,29,39,-41,2,9,-39,-24,-24,-29,-24
-48,-29,19,39,-34,-4,14,-39,-24,-24,-29,-24
-48,-39,9,43,-29,-14,19,-39,-19,-24,-34,-24
-63,-39,24,51,-43,-7,24,-34,-19,-19,-34,-24
-78,-39,39,58,-58,0,29,-34,-14,-19,-34,-24
-82,-43,39,63,-61,-2,34,-29,-14,-14,-24,-24
-92,-48,43,70,-68,-2,39,-24,-9,-4,-9,-19
-97,-43,53,70,-75,4,43,-14,-4,-4,-9,-19
-107,-39,68,73,-87,14,48,-14,0,0,-4,-14
-112,-39,73,75,-92,17,53,-9,14,9,-4,-4
-112,-39,73,75,-92,17,53,-4,14,9,-4,-4
-117,-34,82,75,-100,24,53,-4,19,9,-4,-4
-117,-29,87,73,-102,29,68,4,29,24,4,9
-117,-29,87,73,-102,29,68,9,34,24,9,9
-117,-29,87,73,-102,29,68,9,34,29,9,9
-117,-29,87,73,-102,29,68,9,34,34,9,9
-117,-24,92,70,-104,34,68,9,34,34,9,14
-117,-24,92,70,-104,34,68,9,34,34,14,19
-117,-24,92,70,-104,34,68,9,39,39,19,19
-117,-24,92,70,-104,34,68,14,39,39,24,24
-117,-24,92,70,-104,34,68,14,39,39,24,24
-117,-24,92,70,-104,34,63,14,39,34,24,19
-112,-24,87,68,-100,31,58,9,34,29,24,14
-112,-24,87,68,-100,31,53,9,34,29,19,19
-107,-24,82,65,-95,29,53,9,34,29,19,19
-107,-24,82,65,-95,29,48,4,29,29,19,19
-107,-24,82,65,-95,29,48,4,29,29,19,19
-97,-24,73,61,-85,24,48,0,29,24,19,19
-87,-24,63,56,-75,19,39,-9,29,19,14,14
-97,-19,78,58,-87,29,34,-14,24,19,14,9
-97,-14,82,56,-90,34,34,-14,14,14,9,4
-92,-19,73,56,-82,26,29,-19,14,9,4,4
-92,-19,73,56,-82,26,29,-19,9,9,4,4
-92,-19,73,56,-82,26,29,-19,9,9,4,4
-92,-14,78,53,-85,31,19,-24,4,4,4,4
-87,-14,73,51,-80,29,19,-29,0,0,0,0
-78,-14,63,46,-70,24,19,-29,0,0,-14,-4
-73,-29,43,51,-58,7,9,-34,-4,-4,-19,-9
-68,-39,29,53,-48,-4,9,-39,-4,-9,-19,-9
-68,-29,39,48,-53,4,9,-39,-14,-9,-19,-4
-63,-19,43,41,-53,12,9,-43,-19,-9,-19,-4
-73,-19,53,46,-63,17,4,-43,-19,-9,-19,-9
-82,-24,58,53,-70,17,4,-43,-19,-9,-24,-14
-82,-29,53,56,-68,12,0,-48,-24,-14,-24,-14
-82,-34,48,58,-65,7,0,-48,-24,-14,-24,-14
-82,-34,48,58,-65,7,0,-48,-24,-14,-19,-14
-82,-34,48,58,-65,7,0,-48,-24,-19,-14,-14
-82,-34,48,58,-65,7,0,-53,-24,-19,-14,-19
-82,-39,43,61,-63,2,-4,-58,-29,-24,-24,-19
-78,-39,39,58,-58,0,-4,-58,-29,-24,-24,-19
-73,-34,39,53,-56,2,0,-58,-29,-19,-19,-14
-68,-34,34,51,-51,0,0,-58,-29,-19,-24,-19
-63,-34,29,48,-46,-2,0,-58,-29,-19,-29,-24
-63,-34,29,48,-46,-2,-4,-53,-29,-19,-29,-24
-63,-34,29,48,-46,-2,-4,-48,-24,-19,-29,-24
-63,-24,39,43,-51,7,4,-43,-19,-14,-24,-14
-53,-14,39,34,-46,12,9,-39,-9,-4,-19,-4
-39,9,48,14,-43,29,14,-34,-9,-4,-9,-4
-24,34,58,-4,-41,46,24,-29,-4,4,-9,4
-19,39,58,-9,-39,48,24,-19,4,14,0,9
-14,43,58,-14,-36,51,29,-14,14,24,14,19
-9,53,63,-21,-36,58,29,-9,14,24,19,24
-9,68,78,-29,-43,73,29,-9,19,29,29,29
4,68,63,-36,-29,65,14,-9,19,29,29,29
19,68,48,-43,-14,58,0,-9,19,29,29,29
19,73,53,-46,-17,63,-4,-14,19,29,29,34
19,78,58,-48,-19,68,-14,-19,19,34,29,39
19,87,68,-53,-24,78,-24,-24,19,39,29,43
24,82,58,-53,-17,70,-43,-39,14,29,24,43
24,82,58,-53,-17,70,-48,-48,4,24,19,29
24,82,58,-53,-17,70,-53,-63,-9,14,9,19
14,73,58,-43,-21,65,-58,-78,-19,0,-4,9
0,53,53,-26,-26,53,-58,-87,-29,-14,-19,-4
-19,43,63,-12,-41,53,-58,-102,-34,-19,-24,-4
-19,34,53,-7,-36,43,-63,-102,-43,-29,-29,-4
-19,29,48,-4,-34,39,-63,-112,-53,-34,-39,-14
-14,34,48,-9,-31,41,-58,-112,-53,-39,-43,-14
-19,24,43,-2,-31,34,-58,-107,-53,-39,-34,-14
-39,14,53,12,-46,34,-53,-97,-43,-34,-24,-14
-68,-4,63,36,-65,29,-39,-92,-43,-39,-34,-24
-78,-19,58,48,-68,19,-29,-87,-43,-43,-43,-24
-92,-24,68,58,-80,21,-19,-82,-43,-43,-43,-34
-97,-34,63,65,-80,14,-14,-82,-43,-48,-48,-39
-97,-43,53,70,-75,4,-14,-87,-39,-43,-48,-43
-97,-48,48,73,-73,0,-14,-87,-43,-53,-53,-48
-92,-48,43,70,-68,-2,-14,-87,-48,-53,-53,-48
-92,-53,39,73,-65,-7,-14,-87,-48,-48,-48,-48
-102,-53,48,78,-75,-2,-19,-92,-53,-48,-48,-48
-102,-53,48,78,-75,-2,-19,-97,-58,-53,-53,-48
-102,-58,43,80,-73,-7,-19,-97,-58,-58,-53,-48
-107,-58,48,82,-78,-4,-19,-97,-58,-58,-58,-48
-107,-58,48,82,-78,-4,-19,-97,-58,-53,-58,-48
-112,-63,48,87,-80,-7,-19,-97,-58,-53,-53,-48
-112,-63,48,87,-80,-7,-19,-97,-58,-53,-53,-48
-112,-63,48,87,-80,-7,-19,-102,-58,-53,-53,-48
-112,-58,53,85,-82,-2,-19,-102,-53,-53,-53,-53
-112,-58,53,85,-82,-2,-19,-102,-53,-53,-53,-53
-117,-63,53,90,-85,-4,-14,-97,-48,-53,-53,-53
-117,-63,53,90,-85,-4,-14,-92,-48,-58,-53,-53
-117,-63,53,90,-85,-4,-9,-92,-48,-58,-53,-48
-117,-63,53,90,-85,-4,-4,-92,-48,-53,-53,-43
-146,-43,102,95,-124,29,4,-92,-19,-24,-29,-24
-200,4,204,97,-202,104,39,-92,53,43,34,39
-248,73,322,87,-285,197,82,-63,165,156,151,146
-263,170,434,46,-348,302,97,-24,287,297,287,278
-239,297,536,-29,-387,417,78,-43,385,414,429,414
-204,414,619,-104,-412,517,78,-68,463,512,541,531
-151,556,707,-202,-429,631,-122,-424,448,531,580,605
-4,751,756,-373,-380,753,-517,-941,326,458,580,653
258,854,595,-556,-168,724,-990,-1405,48,253,448,580
585,834,248,-710,168,541,-1468,-1747,-434,-126,156,356
976,610,-366,-793,671,122,-1849,-1922,-951,-600,-263,-14
1366,195,-1171,-780,1268,-488,-2181,-1995,-1454,-1098,-756,-497
1625,-439,-2064,-592,1844,-1251,-2239,-1893,-1932,-1634,-1346,-1117
1722,-1088,-2810,-317,2266,-1949,-2054,-1751,-2293,-2108,-1917,-1737
1659,-1507,-3167,-75,2413,-2337,-1844,-1678,-2493,-2425,-2318,-2171
1507,-1571,-3079,31,2293,-2325,-1644,-1644,-2396,-2357,-2283,-2156
1307,-1464,-2771,78,2039,-2117,-1424,-1576,-2127,-2122,-2069,-1961
1098,-1342,-2440,122,1769,-1891,-1190,-1381,-1815,-1825,-1800,-1732
824,-1180,-2005,178,1415,-1593,-936,-1151,-1493,-1527,-1512,-1468
527,-985,-1512,229,1019,-1249,-697,-951,-1180,-1224,-1224,-1190
390,-800,-1190,204,790,-995,-551,-819,-951,-995,-1000,-980
283,-556,-839,136,561,-697,-385,-605,-658,-683,-697,-688
161,-375,-536,107,348,-456,-239,-380,-419,-448,-458,-448
53,-307,-361,126,207,-334,-151,-273,-326,-351,-361,-351
-39,-248,-209,143,85,-229,-53,-195,-214,-248,-258,-253
-112,-185,-73,148,-19,-129,24,-112,-107,-136,-146,-156
-136,-131,4,134,-70,-63,53,-29,-34,-53,-63,-73
-141,-97,43,119,-92,-26,82,24,-9,-24,-29,-34
-141,-87,53,114,-97,-17,102,19,-4,-24,-24,-34
-161,-87,73,124,-117,-7,117,9,14,-4,-9,-29
-170,-87,82,129,-126,-2,107,24,19,4,-9,-24
-180,-68,112,124,-146,21,107,43,19,4,0,-14
-165,-68,97,117,-131,14,107,43,19,0,-4,-9
-161,-68,92,114,-126,12,112,34,29,0,-4,-4
-161,-73,87,117,-124,7,112,34,29,4,0,-4
-161,-73,87,117,-124,7,107,34,29,4,0,-4
-165,-63,102,114,-134,19,107,39,29,9,0,-4
-180,-63,117,122,-148,26,117,43,39,19,4,-4
-180,-68,112,124,-146,21,117,48,39,24,4,0
-180,-68,112,124,-146,21,117,53,39,24,4,0
-180,-68,112,124,-146,21,117,53,43,24,9,0
-180,-68,112,124,-146,21,122,58,48,34,14,4
-180,-63,117,122,-148,26,122,58,48,34,14,4
-190,-63,126,126,-158,31,126,63,53,39,14,4
-190,-68,122,129,-156,26,131,63,58,39,14,4
-190,-68,122,129,-156,26,141,68,63,39,19,9
-185,-63,122,124,-153,29,146,82,68,39,19,9
-185,-63,122,124,-153,29,151,87,68,39,19,14
-190,-58,131,124,-161,36,156,97,73,48,29,19
-200,-48,151,124,-175,51,161,102,82,63,39,29
-200,-48,151,124,-175,51,170,112,87,68,43,34
-195,-48,146,122,-170,48,175,122,92,73,48,39
-195,-48,146,122,-170,48,190,141,102,82,58,43
-195,-43,151,119,-173,53,204,156,102,92,63,48
-195,-43,151,119,-173,53,209,170,112,92,68,53
-195,-34,161,114,-178,63,219,185,117,92,73,53
-190,-29,161,109,-175,65,229,209,126,97,82,63
-180,-29,151,104,-165,61,244,229,136,107,92,73
-190,-24,165,107,-178,70,258,248,151,126,102,78
-204,-19,185,112,-195,82,273,283,161,146,117,87
-204,-9,195,107,-200,92,292,317,180,161,131,102
-209,-4,204,107,-207,100,312,351,200,175,146,117
-200,0,200,100,-200,100,331,390,214,195,156,126
-180,9,190,85,-185,100,351,429,234,209,170,141
-175,14,190,80,-183,102,375,473,258,224,195,156
-175,24,200,75,-187,112,400,522,287,258,214,180
-175,48,224,63,-200,136,429,575,317,283,244,200
-180,63,244,58,-212,153,453,634,351,317,283,234
-175,87,263,43,-219,175,483,692,380,346,317,263
-170,117,287,26,-229,202,502,751,409,380,346,292
-161,136,297,12,-229,217,522,810,439,414,375,317
-165,161,326,2,-246,244,546,873,473,453,419,356
-136,195,331,-29,-234,263,556,922,502,488,444,380
-107,219,326,-56,-217,273,566,966,517,517,468,405
-102,248,351,-73,-226,300,570,1000,546,541,497,429
-73,278,351,-102,-212,314,570,1034,570,566,531,453
-58,297,356,-119,-207,326,570,1054,585,580,546,473
-53,322,375,-134,-214,348,570,1063,590,585,556,488
-29,326,356,-148,-192,341,556,1058,590,595,561,492
-4,341,346,-168,-175,344,531,1049,590,590,561,488
-4,356,361,-175,-183,358,507,1019,575,590,556,492
4,361,356,-183,-175,358,478,971,561,575,546,492
29,361,331,-195,-151,346,439,917,531,551,522,468
53,366,312,-209,-129,339,405,858,497,522,497,444
68,366,297,-217,-114,331,361,800,468,488,468,419
78,361,283,-219,-102,322,326,732,434,453,434,395
78,341,263,-209,-92,302,287,658,395,414,405,366
68,322,253,-195,-92,287,253,590,356,375,370,336
73,297,224,-185,-75,261,214,527,322,336,331,307
78,273,195,-175,-58,234,180,463,287,297,297,273
73,258,185,-165,-56,222,156,400,248,268,263,244
63,234,170,-148,-53,202,126,341,209,239,234,219
63,219,156,-141,-46,187,102,287,185,204,200,195
63,204,141,-134,-39,173,82,244,161,175,175,165
58,180,122,-119,-31,151,63,190,136,146,146,141
58,170,112,-114,-26,141,43,151,102,122,122,117
43,151,107,-97,-31,129,24,122,82,97,92,92
34,126,92,-80,-29,109,14,92,63,73,78,73
34,117,82,-75,-24,100,9,68,53,58,68,63
34,102,68,-68,-17,85,0,39,34,34,48,43
24,87,63,-56,-19,75,-9,24,19,19,34,29
14,78,63,-46,-24,70,-9,9,9,9,19,19
19,73,53,-46,-17,63,-19,-14,0,-4,4,9
24,68,43,-46,-9,56,-24,-29,-9,-14,-4,4
19,63,43,-41,-12,53,-29,-43,-19,-19,-9,0
19,53,34,-36,-7,43,-34,-48,-24,-19,-4,0
0,48,48,-24,-24,48,-34,-48,-24,-24,-14,0
-29,43,73,-7,-51,58,-34,-48,-24,-29,-19,-4
-4,34,39,-14,-21,36,-39,-53,-34,-39,-24,-14
-4,29,34,-12,-19,31,-39,-58,-39,-39,-29,-14
-4,19,24,-7,-14,21,-39,-53,-43,-39,-29,-14
-4,14,19,-4,-12,17,-39,-48,-43,-43,-29,-19
-9,14,24,-2,-17,19,-39,-53,-39,-43,-34,-19
-14,14,29,0,-21,21,-39,-53,-34,-43,-34,-19
-14,14,29,0,-21,21,-29,-53,-34,-43,-34,-19
-14,19,34,-2,-24,26,-24,-53,-39,-48,-39,-24
-14,19,34,-2,-24,26,-24,-53,-39,-48,-39,-29
-19,14,34,2,-26,24,-24,-58,-39,-48,-39,-29
-29,4,34,12,-31,19,-14,-58,-39,-48,-39,-29
-39,4,43,17,-41,24,-14,-58,-34,-48,-39,-29
-43,4,48,19,-46,26,-9,-58,-34,-48,-39,-29
-48,4,53,21,-51,29,-4,-58,-34,-43,-39,-24
-53,4,58,24,-56,31,0,-53,-29,-39,-39,-24
-53,4,58,24,-56,31,9,-48,-24,-34,-39,-24
-58,4,63,26,-61,34,14,-48,-19,-29,-29,-19
-68,0,68,34,-68,34,19,-48,-9,-24,-24,-14
-73,-4,68,39,-70,31,24,-43,-9,-19,-24,-14
-78,-9,68,43,-73,29,29,-43,-4,-19,-24,-14
-82,-9,73,46,-78,31,34,-39,-4,-14,-19,-14
-92,-9,82,51,-87,36,39,-34,0,-4,-9,-9
-92,-4,87,48,-90,41,43,-24,4,-4,-9,-9
-97,0,97,48,-97,48,48,-24,9,0,-4,-4
-102,0,102,51,-102,51,53,-19,24,9,0,4
-102,0,102,51,-102,51,53,-14,24,9,4,4
-112,4,117,53,-114,61,53,-9,29,9,4,4
-117,9,126,53,-122,68,68,4,39,24,14,19
-117,9,126,53,-122,68,68,9,43,24,19,19
-117,9,126,53,-122,68,68,9,43,29,19,19
-117,4,122,56,-119,63,68,14,43,34,19,19
-117,4,122,56,-119,63,68,19,43,34,19,24
-107,4,112,51,-109,58,63,14,43,34,24,29
-97,4,102,46,-100,53,58,9,48,39,29,29
-97,9,107,43,-102,58,58,14,53,39,39,34
-97,14,112,41,-104,63,58,14,58,39,43,34
-107,19,126,43,-117,73,58,14,58,39,43,34
-112,24,136,43,-124,80,58,9,53,39,43,34
-102,24,126,39,-114,75,53,9,53,34,34,39
-87,24,112,31,-100,68,53,9,53,29,29,39
-87,19,107,34,-97,63,43,0,43,29,29,34
-87,14,102,36,-95,58,39,-4,39,29,29,29
-87,14,102,36,-95,58,39,-4,39,24,24,29
-87,14,102,36,-95,58,29,-9,39,19,14,24
-87,14,102,36,-95,58,24,-14,34,19,14,14
-78,14,92,31,-85,53,24,-14,24,14,9,4
-73,4,78,34,-75,41,19,-19,24,9,4,4
-73,0,73,36,-73,36,19,-19,19,9,4,4
-78,0,78,39,-78,39,19,-19,19,9,4,9
-82,4,87,39,-85,46,9,-24,14,4,4,14
-82,9,92,36,-87,51,9,-29,9,0,9,14
-78,14,92,31,-85,53,9,-29,9,0,4,14
-78,9,87,34,-82,48,4,-34,4,-4,0,9
-78,9,87,34,-82,48,9,-39,4,-9,0,9
-78,4,82,36,-80,43,9,-39,0,-9,0,14
-73,0,73,36,-73,36,9,-43,0,-9,0,14
-68,0,68,34,-68,34,0,-48,0,-9,0,9
-63,-4,58,34,-61,26,-4,-53,0,-9,-4,4
-63,-4,58,34,-61,26,-9,-58,-4,-14,-9,0
-63,-4,58,34,-61,26,-9,-58,-4,-14,-14,-4
-68,0,68,34,-68,34,-9,-58,-4,-14,-14,-4
-73,4,78,34,-75,41,-9,-58,-4,-19,-14,-4
-73,4,78,34,-75,41,-4,-58,-4,-19,-9,-9
-73,0,73,36,-73,36,-4,-58,-9,-24,-14,-9
-63,4,68,29,-65,36,-4,-58,-9,-24,-14,-9
-53,14,68,19,-61,41,0,-58,-9,-19,-9,-4
-43,24,68,9,-56,46,4,-53,0,-9,-4,4
-34,34,68,0,-51,51,9,-48,9,0,0,14
-34,43,78,-4,-56,61,14,-39,19,9,9,24
-34,58,92,-12,-63,75,29,-29,34,19,19,34
-19,68,87,-24,-53,78,34,-19,39,29,29,39
-9,78,87,-34,-48,82,39,-9,48,39,39,48
-9,78,87,-34,-48,82,34,-9,48,39,39,48
-9,78,87,-34,-48,82,29,-9,48,39,39,48
0,87,87,-43,-43,87,24,-9,48,39,39,48
4,97,92,-51,-43,95,14,-9,48,39,43,53
14,107,92,-61,-39,100,9,-14,53,39,53,58
24,122,97,-73,-36,109,-4,-14,58,48,58,63
34,122,87,-78,-26,104,-24,-29,53,39,53,63
34,122,87,-78,-26,104,-29,-34,48,39,53,58
39,122,82,-80,-21,102,-34,-43,39,43,48,68
34,112,78,-73,-21,95,-39,-58,29,39,34,68
19,87,68,-53,-24,78,-43,-68,9,9,14,34
0,73,73,-36,-36,73,-48,-82,-4,-9,4,9
0,58,58,-29,-29,58,-58,-87,-14,-19,0,4
-4,39,43,-17,-24,41,-63,-102,-24,-24,-9,-4
-4,34,39,-14,-21,36,-58,-102,-19,-29,-14,0
-9,34,43,-12,-26,39,-58,-102,-14,-29,-14,4
-29,39,68,-4,-48,53,-53,-97,-4,-24,-14,4
-58,24,82,17,-70,53,-39,-92,-4,-24,-14,-4
-63,9,73,26,-68,41,-29,-87,-4,-24,-14,-4
-68,0,68,34,-68,34,-19,-82,-4,-24,-14,-9
-68,-14,53,41,-61,19,-14,-82,-4,-29,-19,-9
-68,-24,43,46,-56,9,-14,-87,-4,-29,-24,-14
-68,-34,34,51,-51,0,-14,-87,-14,-43,-34,-19
-68,-39,29,53,-48,-4,-14,-87,-19,-43,-34,-19
-73,-43,29,58,-51,-7,-9,-87,-19,-34,-29,-19
-82,-43,39,63,-61,-2,-9,-87,-19,-29,-29,-19
-87,-39,48,63,-68,4,-4,-87,-19,-34,-29,-14
-87,-39,48,63,-68,4,0,-87,-19,-39,-24,-14
-87,-39,48,63,-68,4,0,-87,-19,-39,-29,-19
-87,-39,48,63,-68,4,0,-87,-19,-34,-29,-19
-92,-43,48,68,-70,2,0,-87,-19,-34,-29,-24
-92,-43,48,68,-70,2,0,-87,-19,-34,-34,-29
-92,-43,48,68,-70,2,0,-87,-19,-34,-34,-29
-92,-39,53,65,-73,7,0,-82,-14,-34,-34,-29
-92,-39,53,65,-73,7,-4,-82,-14,-34,-34,-24
-97,-43,53,70,-75,4,-4,-82,-14,-34,-34,-24
-97,-48,48,73,-73,0,-4,-82,-19,-39,-34,-29
-97,-53,43,75,-70,-4,-4,-82,-19,-39,-34,-34
-78,-58,19,68,-48,-19,-9,-82,-29,-48,-43,-39
-87,-48,39,68,-63,-4,-4,-82,-19,-43,-39,-34
-156,-14,141,85,-148,63,29,-87,34,-4,-9,4
-224,43,268,90,-246,156,73,-73,136,87,82,97
-244,136,380,53,-312,258,87,-43,258,239,229,229
-224,244,468,-9,-346,356,87,-19,370,370,380,366
-224,317,541,-46,-383,429,200,131,502,502,517,492
-204,439,644,-117,-424,541,122,-63,556,580,605,595
-112,697,810,-292,-461,753,-204,-561,551,619,697,732
87,883,795,-485,-353,839,-639,-1034,390,536,678,771
380,990,610,-685,-114,800,-1132,-1415,-39,234,488,663
736,917,180,-827,278,549,-1556,-1659,-531,-180,156,405
1146,629,-517,-888,832,56,-2015,-1800,-1058,-649,-268,4
1478,43,-1434,-761,1456,-695,-2200,-1737,-1595,-1210,-854,-600
1673,-771,-2444,-451,2059,-1607,-2078,-1595,-2108,-1844,-1595,-1385
1688,-1390,-3079,-148,2383,-2235,-1903,-1532,-2474,-2357,-2205,-2034
1556,-1600,-3157,21,2357,-2379,-1703,-1537,-2498,-2449,-2342,-2196
1361,-1600,-2962,119,2161,-2281,-1483,-1527,-2322,-2327,-2244,-2113
1200,-1512,-2713,156,1956,-2113,-1273,-1405,-2039,-2059,-2015,-1922
971,-1366,-2337,197,1654,-1851,-1044,-1224,-1727,-1771,-1747,-1683
624,-1171,-1795,273,1210,-1483,-790,-1029,-1395,-1459,-1444,-1390
434,-980,-1415,273,924,-1198,-624,-897,-1132,-1210,-1195,-1161
336,-683,-1019,173,678,-851,-444,-683,-780,-839,-849,-829
219,-444,-663,112,441,-553,-287,-458,-488,-541,-561,-546
102,-361,-463,129,283,-412,-200,-341,-380,-424,-434,-424
0,-297,-297,148,148,-297,-97,-248,-258,-312,-317,-307
-82,-229,-146,156,31,-187,-4,-161,-131,-180,-195,-195
-107,-161,-53,134,-26,-107,34,-78,-39,-78,-97,-102
-112,-102,9,107,-61,-46,68,-4,0,-29,-39,-48
-112,-78,34,95,-73,-21,92,19,19,-14,-14,-29
-131,-73,58,102,-95,-7,112,19,48,4,0,-19
-131,-68,63,100,-97,-2,107,19,58,14,0,-14
-136,-48,87,92,-112,19,107,29,58,14,9,-4
-141,-48,92,95,-117,21,112,43,58,14,9,0
-151,-48,102,100,-126,26,122,43,68,19,14,4
-151,-53,97,102,-124,21,122,43,68,24,19,4
-156,-58,97,107,-126,19,117,43,68,29,19,4
-161,-53,107,107,-134,26,117,48,68,34,19,4
-170,-53,117,112,-143,31,126,48,78,39,24,4
-170,-53,117,112,-143,31,126,43,78,43,24,9
-161,-43,117,102,-139,36,126,43,78,43,24,9
-151,-39,112,95,-131,36,126,43,82,43,29,9
-161,-39,122,100,-141,41,131,48,87,53,34,14
-170,-34,136,102,-153,51,131,53,87,53,34,14
-180,-34,146,107,-163,56,136,63,92,48,34,14
-180,-39,141,109,-161,51,136,63,92,39,34,14
-180,-39,141,109,-161,51,141,68,92,48,39,19
-175,-34,141,104,-158,53,146,78,97,58,39,19
-175,-39,136,107,-156,48,151,73,97,58,39,24
-180,-43,136,112,-158,46,156,78,102,63,43,24
-185,-39,146,112,-165,53,156,82,112,68,43,29
-180,-39,141,109,-161,51,161,92,117,68,43,34
-175,-34,141,104,-158,53,165,102,122,73,48,39
-175,-29,146,102,-161,58,175,117,131,82,58,43
-180,-24,156,102,-168,65,185,126,131,92,68,48
-185,-24,161,104,-173,68,190,141,141,97,78,53
-185,-14,170,100,-178,78,200,151,146,102,82,53
-190,-9,180,100,-185,85,209,170,156,107,92,63
-190,-9,180,100,-185,85,224,190,165,122,102,78
-190,-4,185,97,-187,90,239,209,180,141,112,87
-195,0,195,97,-195,97,248,244,190,156,126,97
-195,9,204,92,-200,107,263,273,209,170,141,112
-200,14,214,92,-207,114,283,297,229,185,156,126
-200,19,219,90,-209,119,302,331,244,204,165,136
-190,29,219,80,-204,124,322,370,263,219,180,141
-185,34,219,75,-202,126,346,414,283,234,204,146
-180,43,224,68,-202,134,370,463,307,268,224,180
-170,63,234,53,-202,148,400,517,331,292,248,204
-170,73,244,48,-207,158,424,575,361,326,283,234
-165,92,258,36,-212,175,453,634,390,356,317,263
-161,112,273,24,-217,192,473,692,419,390,346,292
-141,126,268,7,-204,197,492,751,453,424,375,317
-136,151,287,-7,-212,219,517,814,492,463,424,356
-122,180,302,-29,-212,241,531,868,527,497,458,385
-107,204,312,-48,-209,258,546,917,546,531,488,414
-102,239,341,-68,-222,290,556,956,575,566,517,444
-73,268,341,-97,-207,305,561,1000,600,595,551,473
-58,287,346,-114,-202,317,561,1029,619,614,570,492
-53,307,361,-126,-207,334,561,1049,634,624,585,507
-29,312,341,-141,-185,326,551,1054,639,639,595,517
-4,331,336,-163,-170,334,536,1054,639,639,600,517
9,346,336,-178,-163,341,517,1039,629,639,600,522
29,351,322,-190,-146,336,488,1000,619,624,600,527
34,351,317,-192,-141,334,453,951,595,605,585,517
43,356,312,-200,-134,334,424,897,566,580,566,502
58,356,297,-207,-119,326,380,839,536,551,536,478
68,351,283,-209,-107,317,346,771,502,522,502,453
78,336,258,-207,-90,297,307,697,463,483,473,424
78,322,244,-200,-82,283,278,629,424,444,439,395
82,302,219,-192,-68,261,244,566,390,405,400,366
87,283,195,-185,-53,239,209,507,361,370,366,331
87,268,180,-178,-46,224,180,444,326,336,326,297
82,244,161,-163,-39,202,146,380,287,297,292,268
82,224,141,-153,-29,183,122,326,258,263,258,244
78,204,126,-141,-24,165,102,283,229,234,234,214
68,180,112,-124,-21,146,82,229,204,204,204,190
68,170,102,-119,-17,136,63,190,170,180,180,165
53,151,97,-102,-21,124,43,156,151,156,151,141
43,126,82,-85,-19,104,34,122,131,131,136,122
43,117,73,-80,-14,95,24,92,117,117,122,112
43,107,63,-75,-9,85,9,58,87,87,92,92
34,97,63,-65,-14,80,0,43,68,68,73,78
14,87,73,-51,-29,80,4,29,58,58,58,68
4,78,73,-41,-34,75,0,9,48,43,43,53
4,68,63,-36,-29,65,0,0,39,39,39,43
0,63,63,-31,-31,63,0,-14,29,34,34,39
4,48,43,-26,-19,46,-4,-19,24,29,34,34
4,39,34,-21,-14,36,-4,-24,24,24,24,24
-4,34,39,-14,-21,36,-14,-34,19,9,9,9
14,24,9,-19,2,17,-29,-43,4,-9,-4,-4
4,19,14,-12,-4,17,-29,-48,0,-9,-9,-4
4,14,9,-9,-2,12,-29,-48,-4,-9,-9,-4
0,14,14,-7,-7,14,-29,-48,-4,-14,-9,-9
-9,14,24,-2,-17,19,-29,-53,-4,-14,-14,-9
-14,14,29,0,-21,21,-29,-53,-4,-14,-14,-14
-14,9,24,2,-19,17,-24,-53,-4,-14,-14,-19
-9,9,19,0,-14,14,-24,-53,-9,-19,-19,-24
-4,9,14,-2,-9,12,-24,-48,-9,-19,-19,-29
-9,4,14,2,-12,9,-24,-48,-9,-19,-19,-29
-14,-4,9,9,-12,2,-14,-48,-9,-19,-19,-29
-14,-4,9,9,-12,2,-14,-48,-4,-24,-24,-29
-14,-4,9,9,-12,2,-9,-48,-4,-29,-29,-29
-19,-4,14,12,-17,4,-9,-48,-4,-24,-29,-24
-24,-4,19,14,-21,7,-14,-48,-4,-24,-29,-24
-29,-4,24,17,-26,9,-9,-48,-4,-19,-24,-24
-39,-4,34,21,-36,14,-4,-48,0,-14,-14,-24
-48,-9,39,29,-43,14,0,-48,9,-14,-14,-24
-53,-9,43,31,-48,17,4,-43,9,-9,-14,-24
-58,-9,48,34,-53,19,9,-48,14,-9,-14,-24
-63,-9,53,36,-58,21,14,-48,14,-4,-9,-24
-73,-9,63,41,-68,26,19,-43,19,4,0,-14
-73,-4,68,39,-70,31,24,-34,24,4,0,-9
-78,4,82,36,-80,43,29,-34,29,9,4,-4
-82,9,92,36,-87,51,34,-29,43,19,9,4
-78,14,92,31,-85,53,34,-24,39,19,14,0
-82,19,102,31,-92,61,34,-24,39,19,14,-4
-87,19,107,34,-97,63,48,-14,48,34,24,9
-87,19,107,34,-97,63,48,-9,53,34,29,9
-102,19,122,41,-112,70,48,-9,53,39,29,9
-117,19,136,48,-126,78,48,-4,53,43,29,9
-107,24,131,41,-119,78,48,0,53,39,29,14
-97,24,122,36,-109,73,48,0,53,34,34,19
-97,24,122,36,-109,73,43,0,58,39,34,19
-97,24,122,36,-109,73,39,4,58,39,34,24
-97,24,122,36,-109,73,39,4,58,39,34,24
-97,24,122,36,-109,73,39,4,58,39,34,24
-92,24,117,34,-104,70,43,0,53,39,34,19
-92,24,117,34,-104,70,43,0,53,39,29,19
-87,24,112,31,-100,68,43,0,53,34,29,19
-87,24,112,31,-100,68,39,-4,48,29,29,19
-87,24,112,31,-100,68,39,-9,48,29,29,19
-87,24,112,31,-100,68,39,-14,48,24,29,19
-92,24,117,34,-104,70,29,-19,43,19,24,14
-97,24,122,36,-109,73,24,-24,34,19,24,9
-87,24,112,31,-100,68,19,-19,24,14,14,4
-82,19,102,31,-92,61,9,-24,24,9,4,4
-78,19,97,29,-87,58,9,-29,19,9,4,0
-73,19,92,26,-82,56,9,-29,19,9,4,-4
-63,24,87,19,-75,56,0,-34,14,4,4,-4
-53,24,78,14,-65,51,0,-39,9,0,4,-9
-58,24,82,17,-70,53,4,-39,9,0,-4,-14
-68,19,87,24,-78,53,0,-43,4,-4,-9,-19
-68,19,87,24,-78,53,0,-48,4,-9,-9,-19
-68,19,87,24,-78,53,0,-48,0,-9,-9,-14
-68,19,87,24,-78,53,0,-53,0,-9,-9,-9
-73,19,92,26,-82,56,-4,-53,0,-9,-9,-9
-73,14,87,29,-80,51,-4,-53,9,-9,-14,-14
-73,14,87,29,-80,51,-9,-58,14,-14,-14,-14
-73,14,87,29,-80,51,-9,-58,4,-14,-14,-14
-73,14,87,29,-80,51,-9,-58,-4,-14,-14,-14
-73,14,87,29,-80,51,-9,-58,-4,-19,-14,-14
-73,14,87,29,-80,51,-9,-63,-4,-19,-14,-19
-73,9,82,31,-78,46,-14,-68,-4,-24,-24,-24
-73,9,82,31,-78,46,-14,-68,0,-24,-24,-29
-73,9,82,31,-78,46,-9,-68,0,-19,-19,-24
-73,4,78,34,-75,41,-9,-68,0,-19,-19,-24
-73,4,78,34,-75,41,-9,-68,-4,-19,-19,-24
-73,4,78,34,-75,41,-14,-68,-9,-19,-19,-24
-68,4,73,31,-70,39,-14,-68,-4,-19,-19,-24
-63,9,73,26,-68,41,-9,-68,-4,-19,-19,-24
-53,19,73,17,-63,46,0,-63,9,-9,-14,-14
-48,34,82,7,-65,58,9,-53,19,-4,0,-4
-48,39,87,4,-68,63,14,-53,19,4,0,0
-39,53,92,-7,-65,73,19,-48,29,9,4,4
-19,63,82,-21,-51,73,19,-39,34,19,9,9
-4,78,82,-36,-43,80,19,-29,39,29,14,19
-9,87,97,-39,-53,92,19,-24,43,34,19,24
-19,97,117,-39,-68,107,19,-19,48,39,29,29
-9,97,107,-43,-58,102,14,-24,48,39,34,29
0,97,97,-48,-48,97,9,-29,48,39,39,29
4,102,97,-53,-46,100,0,-29,48,39,43,34
9,112,102,-61,-46,107,-9,-29,48,39,43,34
14,122,107,-68,-46,114,-24,-34,48,43,43,39
24,122,97,-73,-36,109,-43,-48,43,29,34,34
24,122,97,-73,-36,109,-48,-53,39,29,34,29
24,122,97,-73,-36,109,-53,-63,29,24,29,29
14,112,97,-63,-41,104,-58,-78,14,9,14,19
0,92,92,-46,-46,92,-58,-87,0,-4,0,4
-19,82,102,-31,-61,92,-58,-102,-4,-9,-4,0
-19,73,92,-26,-56,82,-63,-102,-14,-19,-9,-4
-34,58,92,-12,-63,75,-63,-112,-24,-24,-14,-14
-43,53,97,-4,-70,75,-58,-112,-24,-29,-14,-14
-34,53,87,-9,-61,70,-58,-112,-24,-29,-14,-14
-39,53,92,-7,-65,73,-53,-107,-14,-24,-14,-14
-58,34,92,12,-75,63,-39,-102,-19,-24,-19,-24
-58,19,78,19,-68,48,-29,-97,-24,-24,-24,-24
-78,9,87,34,-82,48,-19,-92,-24,-24,-24,-29
-87,-4,82,46,-85,39,-14,-92,-24,-29,-29,-29
-92,-19,73,56,-82,26,-9,-97,-24,-29,-34,-34
-97,-29,68,63,-82,19,-4,-97,-34,-43,-43,-39
-97,-29,68,63,-82,19,-4,-97,-39,-43,-43,-43
-102,-34,68,68,-85,17,-4,-97,-39,-39,-39,-48
-112,-34,78,73,-95,21,-9,-97,-34,-39,-39,-48
-112,-34,78,73,-95,21,-9,-97,-29,-43,-43,-48
-107,-39,68,73,-87,14,-9,-97,-29,-48,-43,-48
-107,-39,68,73,-87,14,-9,-97,-29,-48,-48,-48
-107,-39,68,73,-87,14,-9,-97,-29,-43,-48,-48
-112,-43,68,78,-90,12,-9,-97,-29,-43,-43,-48
-112,-43,68,78,-90,12,-9,-97,-34,-43,-43,-48
-112,-43,68,78,-90,12,-9,-102,-39,-43,-43,-48
-112,-39,73,75,-92,17,-14,-102,-34,-43,-43,-48
-112,-39,73,75,-92,17,-19,-102,-34,-43,-43,-43
-117,-43,73,80,-95,14,-14,-102,-34,-43,-43,-43
-117,-43,73,80,-95,14,-14,-102,-39,-48,-43,-43
-117,-43,73,80,-95,14,-14,-102,-39,-48,-43,-43
-117,-43,73,80,-95,14,-14,-102,-39,-43,-43,-43
-146,-43,102,95,-124,29,-4,-102,-29,-34,-43,-48
-200,-14,185,107,-192,85,29,-102,24,14,-4,-9
-253,43,297,104,-275,170,78,-92,126,117,102,92
-273,131,405,70,-339,268,97,-73,239,248,229,219
-268,239,507,14,-387,373,117,-19,366,380,380,356
-253,336,590,-41,-422,463,156,29,473,492,502,473
-239,488,727,-124,-483,607,14,-297,492,541,566,566
-131,692,824,-280,-478,758,-322,-785,405,497,590,634
92,854,761,-473,-334,807,-805,-1293,175,351,522,634
380,893,512,-636,-65,702,-1293,-1678,-258,29,292,483
771,800,29,-785,370,414,-1742,-1922,-741,-375,-34,214
1161,517,-644,-839,902,-63,-2142,-2064,-1210,-805,-434,-165
1527,-141,-1668,-692,1598,-905,-2259,-1927,-1737,-1376,-1049,-805
1732,-814,-2547,-458,2139,-1681,-2132,-1751,-2147,-1883,-1644,-1444
1732,-1361,-3093,-185,2413,-2227,-1932,-1664,-2464,-2352,-2215,-2054
1644,-1551,-3196,-46,2420,-2374,-1742,-1615,-2483,-2435,-2352,-2215
1449,-1483,-2932,17,2191,-2208,-1512,-1586,-2235,-2225,-2171,-2049
1244,-1400,-2644,78,1944,-2022,-1268,-1429,-1942,-1952,-1937,-1849
966,-1244,-2210,139,1588,-1727,-1015,-1205,-1620,-1654,-1649,-1590
663,-1054,-1717,195,1190,-1385,-775,-1010,-1307,-1351,-1361,-1317
507,-873,-1381,183,944,-1127,-624,-902,-1063,-1112,-1127,-1102
380,-634,-1015,126,697,-824,-453,-712,-756,-790,-814,-805
234,-414,-649,90,441,-531,-292,-458,-488,-522,-536,-531
102,-307,-409,102,256,-358,-190,-322,-366,-390,-400,-400
-4,-258,-253,131,124,-256,-82,-239,-248,-283,-297,-297
-92,-204,-112,148,9,-158,4,-151,-136,-165,-185,-195
-126,-141,-14,134,-56,-78,39,-63,-53,-73,-92,-107
-141,-97,43,119,-92,-26,73,-4,-19,-34,-48,-63
-141,-87,53,114,-97,-17,92,0,-9,-34,-43,-58
-161,-87,73,124,-117,-7,107,0,14,-14,-29,-48
-165,-87,78,126,-122,-4,97,4,19,-4,-29,-43
-170,-68,102,119,-136,17,97,14,19,-4,-19,-34
-170,-68,102,119,-136,17,102,24,19,0,-19,-29
-180,-68,112,124,-146,21,112,24,29,9,-14,-24
-180,-73,107,126,-143,17,112,24,29,14,-9,-19
-180,-73,107,126,-143,17,107,24,29,14,-9,-14
-175,-63,112,119,-143,24,107,29,29,14,-9,-14
-180,-63,117,122,-148,26,117,34,39,19,-4,-14
-180,-63,117,122,-148,26,117,34,43,24,0,-9
-180,-58,122,119,-151,31,117,34,48,24,4,-9
-185,-58,126,122,-156,34,117,34,53,24,9,-9
-190,-58,131,124,-161,36,122,39,58,34,14,-4
-190,-53,136,122,-163,41,122,43,58,34,14,-4
-200,-53,146,126,-173,46,126,53,63,39,14,-4
-200,-58,141,129,-170,41,131,53,63,43,14,-4
-200,-58,141,129,-170,41,141,58,63,48,19,0
-195,-48,146,122,-170,48,146,73,68,48,24,4
-195,-43,151,119,-173,53,151,78,68,48,29,14
-200,-39,161,119,-180,61,156,87,73,53,34,14
-209,-29,180,119,-195,75,161,92,82,63,39,19
-209,-29,180,119,-195,75,170,102,87,68,39,19
-204,-29,175,117,-190,73,175,112,92,73,39,19
-209,-34,175,122,-192,70,185,126,102,82,48,24
-214,-34,180,124,-197,73,195,136,102,92,53,29
-214,-34,180,124,-197,73,200,151,112,92,58,34
-214,-24,190,119,-202,82,209,165,117,92,63,34
-219,-19,200,119,-209,90,219,190,126,97,73,43
-219,-19,200,119,-209,90,234,209,136,107,82,53
-219,-14,204,117,-212,95,248,229,151,126,92,63
-224,-9,214,117,-219,102,263,263,161,146,107,78
-224,0,224,112,-224,112,283,292,180,161,126,92
-229,4,234,112,-231,119,302,322,200,175,146,107
-234,9,244,112,-239,126,322,361,219,195,156,117
-229,19,248,104,-239,134,341,400,244,209,170,131
-224,24,248,100,-236,136,366,444,263,224,195,146
-224,34,258,95,-241,146,390,492,287,258,214,170
-219,53,273,82,-246,163,419,546,307,278,234,180
-219,63,283,78,-251,173,444,605,331,307,263,204
-214,78,292,68,-253,185,478,668,361,336,297,234
-209,97,307,56,-258,202,502,732,390,370,326,263
-190,117,307,36,-248,212,522,790,424,409,356,287
-185,141,326,21,-256,234,546,854,463,453,400,326
-170,170,341,0,-256,256,561,907,497,488,429,356
-156,190,346,-17,-251,268,575,956,517,517,458,385
-151,219,370,-34,-261,295,585,995,546,546,492,419
-122,248,370,-63,-246,309,590,1034,570,575,531,453
-102,273,375,-85,-239,324,590,1058,590,595,551,473
-92,302,395,-104,-244,348,590,1073,600,605,566,488
-68,312,380,-122,-224,346,580,1073,605,619,575,497
-43,331,375,-143,-209,353,561,1068,610,619,580,497
-29,346,375,-158,-202,361,536,1049,600,619,580,502
-4,351,356,-173,-180,353,507,1010,590,605,575,502
9,351,341,-180,-165,346,468,961,566,585,551,488
24,356,331,-190,-153,344,434,907,536,561,527,473
39,356,317,-197,-139,336,390,849,507,527,497,448
48,351,302,-200,-126,326,356,780,473,492,463,424
58,336,278,-197,-109,307,317,707,429,453,434,395
58,322,263,-190,-102,292,283,639,385,414,400,366
63,302,239,-183,-87,270,244,575,351,375,361,336
68,283,214,-175,-73,248,209,512,317,336,326,302
73,268,195,-170,-61,231,180,444,278,297,287,263
73,244,170,-158,-48,207,146,380,239,258,253,229
73,214,141,-143,-34,178,122,322,204,224,214,204
73,185,112,-129,-19,148,102,273,170,195,185,175
68,161,92,-114,-12,126,82,219,146,165,156,151
68,151,82,-109,-7,117,63,180,112,141,131,126
53,131,78,-92,-12,104,43,146,87,112,102,102
43,107,63,-75,-9,85,34,112,63,82,87,82
43,97,53,-70,-4,75,24,82,48,68,73,73
43,82,39,-63,2,61,9,48,24,43,48,53
34,68,34,-51,0,51,-9,29,9,29,34,34
24,58,34,-41,-4,46,-19,9,0,19,19,19
29,48,19,-39,4,34,-29,-9,-9,4,4,4
34,39,4,-36,14,21,-34,-19,-19,-4,-4,-4
29,39,9,-34,9,24,-34,-34,-29,-14,-14,-9
29,34,4,-31,12,19,-34,-39,-34,-19,-14,-9
24,29,4,-26,9,17,-34,-39,-34,-24,-24,-14
9,24,14,-17,-2,19,-34,-39,-34,-29,-29,-24
24,9,-14,-17,19,-2,-34,-43,-43,-39,-34,-34
14,0,-14,-7,14,-7,-29,-48,-48,-39,-39,-34
14,-9,-24,-2,19,-17,-29,-48,-53,-39,-39,-34
14,-14,-29,0,21,-21,-29,-48,-53,-43,-39,-39
4,-14,-19,4,12,-17,-29,-53,-53,-43,-43,-34
-4,-14,-9,9,2,-12,-29,-53,-53,-43,-43,-29
-4,-19,-14,12,4,-17,-24,-58,-48,-39,-43,-29
-4,-19,-14,12,4,-17,-24,-63,-48,-39,-48,-34
-4,-19,-14,12,4,-17,-24,-58,-48,-39,-48,-39
-9,-24,-14,17,2,-19,-24,-58,-48,-39,-48,-39
-14,-39,-24,26,4,-31,-14,-53,-48,-43,-48,-43
-19,-43,-24,31,2,-34,-14,-48,-43,-48,-48,-48
-24,-43,-19,34,-2,-31,-9,-48,-39,-48,-43,-48
-29,-43,-14,36,-7,-29,-4,-48,-34,-43,-39,-43
-43,-43,0,43,-21,-21,-4,-48,-34,-43,-39,-43
-53,-43,9,48,-31,-17,0,-48,-34,-43,-39,-43
-43,-43,0,43,-21,-21,4,-48,-34,-43,-39,-43
-39,-48,-9,43,-14,-29,9,-48,-29,-43,-43,-43
-43,-48,-4,46,-19,-26,14,-43,-29,-34,-43,-39
-48,-48,0,48,-24,-24,19,-43,-24,-29,-43,-34
-58,-48,9,53,-34,-19,24,-39,-19,-24,-34,-29
-73,-48,24,61,-48,-12,29,-34,-9,-14,-19,-19
-73,-43,29,58,-51,-7,34,-24,-4,-14,-19,-19
-78,-39,39,58,-58,0,39,-24,0,-9,-14,-14
-82,-39,43,61,-63,2,48,-19,9,0,-9,-9
-82,-39,43,61,-63,2,53,-14,4,0,-4,-14
-92,-39,53,65,-73,7,53,-14,9,0,-4,-14
-97,-39,58,68,-78,9,68,-4,19,14,4,0
-92,-39,53,65,-73,7,68,0,24,14,4,0
-87,-39,48,63,-68,4,68,0,24,19,0,0
-87,-39,48,63,-68,4,68,4,24,24,0,0
-87,-34,53,61,-70,9,68,9,24,24,0,4
-92,-34,58,63,-75,12,68,9,24,24,9,9
-97,-34,63,65,-80,14,68,9,29,29,19,9
-97,-34,63,65,-80,14,63,14,29,29,24,14
-97,-34,63,65,-80,14,58,14,29,29,24,14
-97,-34,63,65,-80,14,58,14,34,29,24,14
-92,-34,58,63,-75,12,58,9,34,29,24,14
-92,-39,53,65,-73,7,53,9,34,29,19,19
-87,-43,43,65,-65,0,53,9,34,29,19,19
-87,-43,43,65,-65,0,48,4,29,29,19,19
-87,-43,43,65,-65,0,48,4,29,29,19,19
-87,-43,43,65,-65,0,48,4,24,24,19,19
-87,-43,43,65,-65,0,39,0,19,19,14,14
-87,-39,48,63,-68,4,34,-4,14,19,14,9
-78,-34,43,56,-61,4,34,-4,4,14,9,4
-73,-39,34,56,-53,-2,29,-9,9,9,4,4
-73,-39,34,56,-53,-2,29,-9,9,9,4,4
-73,-39,34,56,-53,-2,29,-9,9,9,4,4
-73,-34,39,53,-56,2,19,-14,4,4,4,4
-73,-34,39,53,-56,2,19,-24,0,0,4,0
-68,-34,34,51,-51,0,19,-29,0,0,-4,-4
-68,-39,29,53,-48,-4,9,-34,-4,-4,-9,-9
-68,-39,29,53,-48,-4,9,-39,-4,-9,-9,-9
-68,-39,29,53,-48,-4,9,-39,-9,-9,-9,-4
-63,-39,24,51,-43,-7,9,-43,-9,-9,-9,-4
-63,-39,24,51,-43,-7,4,-43,-9,-9,-9,-9
-63,-43,19,53,-41,-12,4,-43,-9,-9,-14,-14
-58,-43,14,51,-36,-14,0,-48,-14,-14,-14,-14
-53,-43,9,48,-31,-17,0,-48,-14,-14,-14,-14
-53,-43,9,48,-31,-17,0,-48,-14,-14,-14,-9
-53,-43,9,48,-31,-17,0,-48,-14,-19,-14,-4
-53,-43,9,48,-31,-17,0,-53,-14,-19,-14,-9
-53,-48,4,51,-29,-21,-4,-58,-19,-24,-24,-9
-53,-48,4,51,-29,-21,-9,-58,-19,-29,-24,-14
-53,-43,9,48,-31,-17,-9,-58,-19,-29,-19,-14
-58,-43,14,51,-36,-14,-9,-58,-19,-29,-19,-14
-63,-43,19,53,-41,-12,-9,-58,-19,-29,-19,-14
-63,-43,19,53,-41,-12,-9,-58,-19,-29,-19,-14
-63,-43,19,53,-41,-12,-4,-58,-14,-29,-19,-14
-63,-39,24,51,-43,-7,0,-58,-14,-29,-19,-14
-53,-34,19,43,-36,-7,0,-58,-9,-24,-19,-14
-43,-24,19,34,-31,-2,0,-48,-9,-24,-9,-14
-39,-19,19,29,-29,0,4,-43,-9,-14,-9,-9
-34,-9,24,21,-29,7,9,-39,-4,-14,-9,-4
-24,4,29,9,-26,17,19,-34,4,-4,0,0
-9,9,19,0,-14,14,24,-24,14,0,4,4
0,19,19,-9,-9,19,29,-19,24,9,9,14
0,29,29,-14,-14,29,29,-19,24,14,14,19
0,39,39,-19,-19,39,29,-19,29,19,19,29
9,48,39,-29,-14,43,14,-24,29,19,19,29
19,58,39,-39,-9,48,0,-29,29,19,19,29
29,63,34,-46,-2,48,-4,-29,29,24,24,34
34,68,34,-51,0,51,-14,-29,29,29,29,39
43,78,34,-61,4,56,-24,-29,29,39,34,43
53,73,19,-63,17,46,-43,-39,24,29,34,43
48,73,24,-61,12,48,-48,-43,19,29,34,39
43,73,29,-58,7,51,-53,-53,9,24,29,39
34,68,34,-51,0,51,-58,-68,0,9,14,29
19,53,34,-36,-7,43,-58,-78,-9,-4,0,14
0,43,43,-21,-21,43,-58,-92,-14,-9,-4,9
0,34,34,-17,-17,34,-63,-92,-24,-19,-9,4
-9,19,29,-4,-19,24,-63,-102,-34,-24,-19,-4
-14,14,29,0,-21,21,-58,-102,-34,-29,-24,-4
-19,14,34,2,-26,24,-58,-102,-34,-29,-24,-4
-39,14,53,12,-46,34,-53,-97,-24,-24,-24,-4
-63,-4,58,34,-61,26,-39,-92,-24,-29,-24,-14
-68,-19,48,43,-58,14,-29,-87,-24,-34,-24,-14
-78,-29,48,53,-63,9,-19,-82,-24,-34,-24,-19
-78,-43,34,61,-56,-4,-14,-82,-24,-39,-29,-19
-78,-53,24,65,-51,-14,-19,-92,-24,-39,-34,-29
-78,-58,19,68,-48,-19,-24,-97,-34,-53,-43,-39
-73,-58,14,65,-43,-21,-24,-97,-39,-53,-43,-39
-73,-63,9,68,-41,-26,-24,-97,-39,-48,-39,-39
-82,-63,19,73,-51,-21,-24,-97,-39,-48,-43,-39
-82,-63,19,73,-51,-21,-19,-97,-39,-53,-53,-39
-78,-68,9,73,-43,-29,-19,-97,-39,-58,-53,-43
-78,-68,9,73,-43,-29,-19,-97,-39,-58,-58,-48
-73,-63,9,68,-41,-26,-19,-92,-39,-53,-58,-48
-73,-63,9,68,-41,-26,-19,-87,-39,-53,-53,-48
-73,-63,9,68,-41,-26,-14,-87,-39,-53,-48,-48
-73,-63,9,68,-41,-26,-9,-92,-39,-53,-43,-48
-78,-58,19,68,-48,-19,-9,-92,-34,-53,-43,-48
-82,-58,24,70,-53,-17,-9,-92,-34,-53,-43,-43
-87,-63,24,75,-56,-19,-9,-97,-34,-53,-43,-43
-87,-63,24,75,-56,-19,-14,-102,-39,-58,-43,-43
-92,-63,29,78,-61,-17,-14,-102,-39,-53,-43,-39
-97,-63,34,80,-65,-14,-14,-102,-39,-43,-43,-34
-126,-48,78,87,-102,14,-4,-102,-19,-24,-29,-24
-180,-4,175,92,-178,85,29,-102,43,34,24,29
-224,68,292,78,-258,180,68,-82,156,146,141,136
-234,170,405,31,-319,287,78,-53,278,287,278,268
-214,283,497,-34,-356,390,78,-24,390,409,419,409
-185,385,570,-100,-378,478,97,0,483,512,531,531
-131,541,673,-204,-402,607,-73,-322,497,566,600,624
14,751,736,-383,-361,744,-439,-805,405,527,629,692
278,883,605,-580,-163,744,-907,-1249,156,361,541,663
605,893,287,-749,158,590,-1381,-1571,-297,19,292,483
971,702,-268,-836,619,217,-1776,-1742,-824,-453,-112,131
1337,322,-1015,-829,1176,-346,-2122,-1810,-1337,-951,-590,-331
1610,-356,-1966,-627,1788,-1161,-2210,-1732,-1859,-1532,-1229,-995
1722,-1049,-2771,-336,2247,-1910,-2054,-1615,-2264,-2049,-1849,-1659
1659,-1527,-3186,-65,2422,-2357,-1834,-1566,-2503,-2425,-2308,-2156
1507,-1649,-3157,70,2332,-2403,-1625,-1556,-2444,-2415,-2332,-2205
1322,-1551,-2874,114,2098,-2213,-1424,-1527,-2196,-2196,-2137,-2025
1127,-1439,-2566,156,1847,-2003,-1210,-1371,-1903,-1912,-1888,-1810
854,-1263,-2117,204,1485,-1690,-956,-1166,-1576,-1615,-1595,-1542
556,-1054,-1610,248,1083,-1332,-717,-990,-1259,-1312,-1302,-1259
419,-854,-1273,217,846,-1063,-566,-849,-1010,-1068,-1068,-1039
312,-595,-907,141,610,-751,-395,-624,-697,-741,-756,-736
180,-419,-600,119,390,-509,-248,-400,-448,-492,-502,-488
63,-356,-419,146,241,-387,-161,-292,-346,-380,-390,-380
-24,-287,-263,156,119,-275,-58,-209,-229,-268,-287,-278
-92,-214,-122,153,14,-168,24,-122,-117,-146,-175,-175
-117,-146,-29,131,-43,-87,48,-43,-39,-58,-82,-87
-122,-97,24,109,-73,-36,73,4,-9,-24,-39,-43
-122,-87,34,104,-78,-26,92,9,0,-24,-34,-39
-141,-87,53,114,-97,-17,107,9,24,-4,-19,-29
-141,-87,53,114,-97,-17,97,9,29,4,-19,-24
-141,-68,73,104,-107,2,97,14,29,4,-9,-14
-151,-68,82,109,-117,7,102,24,29,4,-9,-9
-170,-68,102,119,-136,17,112,24,39,9,-4,-4
-161,-73,87,117,-124,7,112,19,39,14,0,-4
-151,-73,78,112,-114,2,107,14,39,14,0,-4
-146,-63,82,104,-114,9,107,19,39,14,-4,-9
-151,-63,87,107,-119,12,117,24,48,19,-4,-14
-151,-63,87,107,-119,12,117,24,48,19,-4,-9
-151,-58,92,104,-122,17,117,24,48,14,-4,-9
-156,-58,97,107,-126,19,117,24,53,14,0,-9
-161,-58,102,109,-131,21,122,29,58,24,4,-4
-161,-53,107,107,-134,26,122,34,58,24,4,-4
-170,-53,117,112,-143,31,126,43,63,29,4,-4
-165,-58,107,112,-136,24,122,43,58,29,4,-4
-161,-58,102,109,-131,21,122,48,53,29,9,0
-156,-53,102,104,-129,24,126,58,58,34,9,0
-156,-53,102,104,-129,24,131,58,58,39,9,4
-161,-53,107,107,-134,26,136,68,63,43,14,4
-170,-48,122,109,-146,36,141,73,73,53,19,9
-170,-48,122,109,-146,36,151,82,78,53,24,14
-165,-48,117,107,-141,34,156,92,82,53,29,19
-165,-48,117,107,-141,34,165,107,92,63,39,24
-165,-43,122,104,-143,39,175,117,92,73,43,29
-165,-43,122,104,-143,39,180,131,102,78,48,34
-165,-34,131,100,-148,48,190,146,107,82,53,34
-161,-24,136,92,-148,56,200,170,117,87,63,43
-151,-19,131,85,-141,56,214,190,126,97,73,53
-161,-14,146,87,-153,65,229,209,141,112,82,58
-175,-9,165,92,-170,78,244,244,151,126,97,68
-175,0,175,87,-175,87,263,268,170,141,112,82
-180,4,185,87,-183,95,283,292,190,156,126,97
-175,9,185,82,-180,97,297,331,204,175,136,107
-161,19,180,70,-170,100,312,370,224,190,151,122
-156,29,185,63,-170,107,336,414,248,209,175,136
-156,43,200,56,-178,122,361,463,278,248,195,161
-151,63,214,43,-183,139,390,522,302,273,224,180
-151,73,224,39,-187,148,414,585,331,307,263,214
-146,87,234,29,-190,161,444,644,361,336,297,244
-141,107,248,17,-195,178,463,702,390,370,326,273
-126,126,253,0,-190,190,488,761,424,405,356,297
-126,151,278,-12,-202,214,517,824,463,444,400,336
-112,180,292,-34,-202,236,531,878,497,478,429,366
-97,200,297,-51,-197,248,546,927,517,507,458,395
-92,229,322,-68,-207,275,551,966,546,536,488,424
-63,258,322,-97,-192,290,551,1005,570,566,522,453
-48,278,326,-114,-187,302,551,1029,590,585,541,473
-43,302,346,-129,-195,324,551,1044,600,595,556,488
-19,312,331,-146,-175,322,541,1044,600,610,566,497
4,331,326,-168,-161,329,522,1039,600,610,570,497
19,346,326,-183,-153,336,497,1019,590,610,570,502
43,351,307,-197,-131,329,468,980,580,595,566,502
53,346,292,-200,-119,319,434,932,556,575,546,488
63,346,283,-204,-109,314,405,878,527,551,527,473
63,341,278,-202,-107,309,361,819,497,517,492,444
58,331,273,-195,-107,302,326,751,463,483,453,414
82,317,234,-200,-75,275,287,673,424,444,424,385
97,302,204,-200,-53,253,253,600,385,405,390,356
102,287,185,-195,-41,236,219,536,351,366,351,326
107,273,165,-190,-29,219,190,473,317,326,317,292
102,263,161,-183,-29,212,161,409,278,292,287,268
92,244,151,-168,-29,197,126,351,239,258,263,248
92,224,131,-158,-19,178,102,297,209,224,219,214
92,204,112,-148,-9,158,82,253,180,195,185,175
87,170,82,-129,2,126,63,200,156,165,156,151
87,151,63,-119,12,107,43,161,122,141,131,126
73,131,58,-102,7,95,29,126,102,117,102,102
63,107,43,-85,9,75,24,92,82,92,87,82
48,97,48,-73,0,73,19,78,78,82,82,82
34,82,48,-58,-7,65,9,58,63,63,68,73
34,68,34,-51,0,51,0,34,48,48,53,58
34,58,24,-46,4,41,0,9,39,39,39,48
34,53,19,-43,7,36,-14,-9,24,24,24,29
34,48,14,-41,9,31,-24,-19,9,14,14,14
29,43,14,-36,7,29,-29,-34,0,4,4,9
29,34,4,-31,12,19,-34,-39,-4,0,4,9
24,24,0,-24,12,12,-29,-39,-4,0,-4,4
9,14,4,-12,2,9,-24,-39,-4,0,-9,-4
19,4,-14,-12,17,-4,-29,-43,-14,-9,-14,-14
4,0,-4,-2,4,-2,-29,-48,-19,-9,-19,-14
4,-4,-9,0,7,-7,-29,-48,-24,-14,-24,-14
4,-4,-9,0,7,-7,-29,-48,-24,-24,-29,-19
4,-4,-9,0,7,-7,-29,-58,-24,-24,-34,-19
4,-4,-9,0,7,-7,-29,-63,-24,-24,-34,-19
4,-4,-9,0,7,-7,-24,-63,-24,-24,-29,-14
4,0,-4,-2,4,-2,-24,-63,-29,-29,-29,-14
-4,0,4,2,-4,2,-24,-53,-24,-24,-29,-19
-19,-4,14,12,-17,4,-24,-48,-19,-19,-29,-19
-24,-24,0,24,-12,-12,-14,-48,-19,-19,-29,-24
-29,-34,-4,31,-12,-19,-14,-48,-14,-19,-29,-29
-19,-34,-14,26,-2,-24,-14,-48,-14,-24,-29,-29
-9,-34,-24,21,7,-29,-14,-48,-14,-24,-29,-24
-14,-29,-14,21,0,-21,-14,-48,-14,-24,-29,-24
-14,-24,-9,19,-2,-17,-9,-48,-14,-24,-29,-24
-19,-19,0,19,-9,-9,-4,-48,-9,-19,-19,-24
-29,-19,9,24,-19,-4,0,-48,0,-14,-14,-24
-34,-19,14,26,-24,-2,4,-43,0,-9,-14,-24
-39,-19,19,29,-29,0,9,-43,4,-9,-14,-24
-48,-24,24,36,-36,0,19,-39,4,-4,-14,-19
-63,-29,34,46,-48,2,29,-34,9,4,-9,-9
-63,-24,39,43,-51,7,34,-24,14,4,-9,-9
-68,-19,48,43,-58,14,39,-24,19,9,-4,-4
-73,-19,53,46,-63,17,43,-19,34,19,4,4
-73,-19,53,46,-63,17,43,-14,34,19,14,4
-78,-14,63,46,-70,24,43,-19,39,19,14,4
-78,-9,68,43,-73,29,58,-14,48,34,24,19
-73,-9,63,41,-68,26,58,-9,53,34,29,24
-68,-9,58,39,-63,24,58,-9,53,39,29,29
-68,-9,58,39,-63,24,58,-4,58,48,29,29
-68,-4,63,36,-65,29,58,0,63,53,29,34
-78,-4,73,41,-75,34,58,0,63,53,34,39
-87,-4,82,46,-85,39,58,0,68,58,39,39
-87,-4,82,46,-85,39,58,4,68,58,43,43
-87,-4,82,46,-85,39,58,4,68,58,43,43
-87,-4,82,46,-85,39,58,4,68,58,43,43
-82,-4,78,43,-80,36,58,0,63,58,43,43
-78,-4,73,41,-75,34,48,0,63,58,39,43
-68,-4,63,36,-65,29,43,0,63,58,39,39
-68,0,68,34,-68,34,39,-4,58,58,39,39
-68,4,73,31,-70,39,39,-4,58,58,39,39
-68,4,73,31,-70,39,39,-4,58,53,39,39
-68,4,73,31,-70,39,29,-9,58,48,34,34
-68,0,68,34,-68,34,24,-14,53,48,34,34
-58,-4,53,31,-56,24,24,-14,43,43,29,34
-58,-9,48,34,-53,19,19,-24,43,39,24,34
-63,-9,53,36,-58,21,19,-29,39,39,24,34
-63,-9,53,36,-58,21,24,-24,39,39,24,29
-63,-4,58,34,-61,26,19,-24,34,34,24,24
-63,-4,58,34,-61,26,19,-29,29,29,24,19
-58,-4,53,31,-56,24,19,-29,29,29,14,14
-53,-9,43,31,-48,17,9,-39,19,24,9,14
-48,-9,39,29,-43,14,9,-48,14,19,9,19
-48,-9,39,29,-43,14,9,-48,9,19,9,24
-43,-9,34,26,-39,12,9,-53,9,19,9,24
-48,-4,43,26,-46,19,4,-53,14,19,9,19
-53,-4,48,29,-51,21,4,-53,19,19,4,14
-53,-4,48,29,-51,21,0,-58,14,14,4,14
-53,-4,48,29,-51,21,0,-58,14,14,4,14
-53,-4,48,29,-51,21,0,-58,14,14,4,9
-53,-4,48,29,-51,21,0,-58,14,9,4,4
-58,-9,48,34,-53,19,0,-63,14,9,4,0
-63,-19,43,41,-53,12,-4,-68,9,4,-4,0
-63,-19,43,41,-53,12,-4,-68,9,4,-4,0
-63,-14,48,39,-56,17,0,-68,9,9,0,4
-63,-14,48,39,-56,17,0,-63,9,9,0,4
-63,-14,48,39,-56,17,0,-58,9,9,0,4
-63,-14,48,39,-56,17,0,-58,14,14,4,9
-63,-14,48,39,-56,17,4,-58,24,19,9,14
-63,0,63,31,-63,31,9,-53,24,24,14,19
-53,14,68,19,-61,41,9,-48,29,34,19,24
-48,34,82,7,-65,58,14,-43,43,43,39,39
-43,53,97,-4,-70,75,24,-39,63,63,48,63
-43,58,102,-7,-73,80,24,-29,63,63,53,58
-48,68,117,-9,-82,92,29,-19,68,68,58,58
-34,68,102,-17,-68,85,24,-19,68,68,58,58
-19,68,87,-24,-53,78,19,-19,68,68,58,58
-19,73,92,-26,-56,82,19,-19,68,68,58,58
-9,82,92,-36,-51,87,9,-19,68,68,63,63
-4,92,97,-43,-51,95,4,-24,68,68,68,68
14,112,97,-63,-41,104,-14,-24,68,78,68,73
24,112,87,-68,-31,100,-34,-39,68,68,63,73
24,112,87,-68,-31,100,-39,-43,68,68,63,68
19,112,92,-65,-36,102,-43,-53,58,63,63,73
4,102,97,-53,-46,100,-48,-68,48,48,53,68
-9,82,92,-36,-51,87,-48,-78,34,34,39,53
-29,73,102,-21,-65,87,-48,-92,24,29,34,48
-29,63,92,-17,-61,78,-53,-92,14,19,29,39
-34,48,82,-7,-58,65,-53,-102,4,14,19,24
-34,43,78,-4,-56,61,-48,-102,4,9,14,24
-39,43,82,-2,-61,63,-48,-102,4,9,14,24
-58,43,102,7,-80,73,-43,-97,14,14,9,24
-87,24,112,31,-100,68,-29,-92,14,14,4,14
-97,9,107,43,-102,58,-19,-87,14,14,4,19
-107,0,107,53,-107,53,-9,-82,14,14,4,19
-122,-19,102,70,-112,41,-4,-78,14,9,9,19
-136,-34,102,85,-119,34,-4,-78,14,9,14,14
-126,-39,87,82,-107,24,-4,-78,4,-4,-4,4
-117,-39,78,78,-97,19,-4,-78,0,-4,-14,0
-117,-43,73,80,-95,14,-4,-78,0,0,-9,0
-122,-43,78,82,-100,17,-9,-78,0,0,-9,0
-122,-43,78,82,-100,17,-9,-82,0,-4,-14,0
-117,-48,68,82,-92,9,-9,-87,0,-9,-14,-4
-117,-48,68,82,-92,9,-4,-87,0,-9,-19,-4
-117,-48,68,82,-92,9,0,-87,0,-4,-19,0
-126,-53,73,90,-100,9,0,-87,0,-4,-14,0
-131,-53,78,92,-104,12,0,-87,0,-4,-14,0
-131,-53,78,92,-104,12,0,-87,0,-4,-14,-4
-131,-48,82,90,-107,17,0,-82,4,-4,-14,-9
-131,-48,82,90,-107,17,0,-82,4,-4,-14,-4
-136,-53,82,95,-109,14,4,-82,4,-4,-14,-4
-136,-53,82,95,-109,14,4,-82,0,-9,-14,-4
-136,-53,82,95,-109,14,4,-82,0,-9,-14,-4
-122,-53,68,87,-95,7,0,-87,-4,-9,-14,-4
-136,-39,97,87,-117,29,4,-92,9,4,0,4
-200,0,200,100,-200,100,34,-102,73,63,43,48
-263,63,326,100,-295,195,73,-92,185,175,151,146
-287,161,448,63,-368,305,87,-63,307,322,297,287
-273,273,546,0,-409,409,87,-39,419,448,448,434
-244,380,624,-68,-434,502,126,4,517,551,566,551
-195,536,732,-170,-463,634,-24,-297,536,600,634,644
-92,746,839,-326,-466,793,-380,-785,444,561,668,727
117,883,766,-500,-324,824,-844,-1249,195,400,590,712
419,912,492,-666,-36,702,-1322,-1581,-253,68,356,556
785,761,-24,-773,405,368,-1732,-1776,-766,-375,-19,248
1171,409,-761,-790,966,-175,-2083,-1854,-1249,-824,-444,-170
1478,-239,-1717,-619,1598,-978,-2161,-1727,-1742,-1366,-1029,-795
1644,-951,-2596,-346,2120,-1773,-2005,-1561,-2166,-1917,-1688,-1498
1629,-1468,-3098,-80,2364,-2283,-1795,-1473,-2444,-2347,-2215,-2064
1503,-1610,-3113,53,2308,-2361,-1600,-1468,-2415,-2371,-2288,-2161
1312,-1542,-2854,114,2083,-2198,-1385,-1449,-2186,-2181,-2127,-2015
1122,-1439,-2562,158,1842,-2000,-1171,-1307,-1893,-1903,-1878,-1800
863,-1278,-2142,207,1503,-1710,-936,-1107,-1571,-1605,-1590,-1537
566,-1083,-1649,258,1107,-1366,-702,-932,-1254,-1298,-1302,-1259
424,-893,-1317,234,871,-1105,-556,-819,-1005,-1054,-1068,-1044
312,-629,-941,158,627,-785,-390,-610,-688,-722,-746,-732
180,-424,-605,122,392,-514,-248,-390,-429,-463,-483,-468
63,-346,-409,141,236,-378,-161,-287,-326,-351,-366,-361
-39,-287,-248,163,104,-268,-58,-209,-209,-244,-258,-258
-122,-214,-92,168,-14,-153,24,-122,-92,-122,-141,-146
-146,-141,4,143,-75,-68,53,-39,-9,-29,-48,-53
-156,-97,58,126,-107,-19,87,19,19,4,-9,-14
-161,-87,73,124,-117,-7,112,29,29,4,-4,-9
-180,-87,92,134,-136,2,126,29,53,24,9,-4
-180,-87,92,134,-136,2,117,29,58,34,9,-4
-180,-68,112,124,-146,21,112,34,58,39,19,4
-180,-68,112,124,-146,21,112,43,58,43,19,9
-190,-68,122,129,-156,26,122,43,68,48,24,14
-190,-73,117,131,-153,21,122,43,68,53,29,14
-190,-73,117,131,-153,21,122,43,73,53,29,14
-190,-63,126,126,-158,31,126,48,78,53,29,14
-200,-63,136,131,-168,36,136,53,87,58,34,14
-200,-63,136,131,-168,36,136,53,87,63,34,19
-200,-63,136,131,-168,36,136,53,87,58,34,19
-200,-68,131,134,-165,31,136,53,92,53,39,19
-200,-68,131,134,-165,31,141,58,97,63,39,24
-200,-63,136,131,-168,36,141,63,97,63,34,24
-209,-63,146,136,-178,41,146,73,102,68,34,24
-209,-68,141,139,-175,36,146,73,102,68,34,24
-209,-63,146,136,-178,41,146,73,97,68,43,29
-204,-53,151,129,-178,48,146,78,97,68,48,29
-204,-53,151,129,-178,48,151,78,97,68,48,34
-209,-53,156,131,-183,51,156,87,102,73,53,34
-219,-48,170,134,-195,61,165,97,112,82,58,39
-219,-48,170,134,-195,61,180,112,117,87,63,43
-214,-48,165,131,-190,58,185,122,122,92,68,48
-214,-48,165,131,-190,58,195,136,131,102,78,53
-214,-43,170,129,-192,63,204,146,136,112,82,58
-214,-43,170,129,-192,63,209,161,151,117,87,63
-214,-34,180,124,-197,73,219,175,156,122,92,63
-219,-29,190,124,-204,80,229,200,165,126,102,73
-214,-29,185,122,-200,78,239,219,175,136,112,82
-209,-24,185,117,-197,80,248,239,190,151,122,87
-214,-19,195,117,-204,87,263,273,200,165,136,97
-214,-9,204,112,-209,97,283,302,219,180,151,112
-219,-4,214,112,-217,104,302,331,239,195,165,126
-219,0,219,109,-219,109,322,370,253,214,175,136
-209,14,224,97,-217,119,341,405,268,229,190,151
-204,24,229,90,-217,126,366,444,283,244,214,165
-209,34,244,87,-226,139,390,492,307,278,234,190
-209,53,263,78,-236,158,419,546,331,302,258,204
-209,63,273,73,-241,168,444,605,366,341,292,234
-204,82,287,61,-246,185,473,663,400,375,326,263
-200,107,307,46,-253,207,492,722,429,409,356,297
-180,126,307,26,-244,217,512,780,463,444,385,326
-175,151,326,12,-251,239,536,844,502,483,429,366
-161,180,341,-9,-251,261,551,897,536,517,458,395
-146,200,346,-26,-246,273,566,946,556,546,488,424
-141,229,370,-43,-256,300,575,985,585,575,517,453
-112,258,370,-73,-241,314,580,1024,610,605,556,483
-97,278,375,-90,-236,326,580,1049,629,624,580,502
-92,302,395,-104,-244,348,580,1063,639,634,595,517
-68,312,380,-122,-224,346,570,1063,639,649,605,527
-58,331,390,-136,-224,361,551,1058,644,649,610,527
-58,346,405,-143,-231,375,527,1039,639,649,610,531
-24,351,375,-163,-200,363,497,1000,629,634,605,531
-4,351,356,-173,-180,353,463,951,605,614,585,517
9,356,346,-183,-168,351,434,897,575,590,566,502
29,356,326,-192,-148,341,390,839,546,561,536,478
39,356,317,-197,-139,336,356,771,512,531,502,453
48,346,297,-197,-124,322,317,697,473,492,473,424
48,331,283,-190,-117,307,283,629,429,453,434,395
53,312,258,-183,-102,285,244,566,390,414,390,366
53,287,234,-170,-90,261,214,502,351,375,356,331
48,268,219,-158,-85,244,190,434,307,336,317,297
43,244,200,-143,-78,222,156,370,268,297,283,263
43,224,180,-134,-68,202,131,317,239,263,248,234
43,204,161,-124,-58,183,107,273,209,229,224,204
39,180,141,-109,-51,161,82,219,185,195,195,180
39,170,131,-104,-46,151,63,180,151,170,170,156
24,151,126,-87,-51,139,43,146,131,146,141,131
19,126,107,-73,-43,117,34,112,107,117,117,107
24,117,92,-70,-34,104,24,82,87,97,92,92
24,97,73,-61,-24,85,9,48,63,73,68,73
14,78,63,-46,-24,70,0,34,48,58,53,58
0,68,68,-34,-34,68,0,19,39,48,39,48
-4,58,63,-26,-34,61,-9,0,29,34,24,34
-4,48,53,-21,-29,51,-14,-9,19,24,14,19
-9,43,53,-17,-31,48,-19,-24,9,14,4,9
-4,34,39,-14,-21,36,-24,-34,0,9,4,9
-4,29,34,-12,-19,31,-24,-43,-4,4,-4,4
-19,24,43,-2,-31,34,-24,-48,-4,0,-9,-4
-4,14,19,-4,-12,17,-29,-53,-14,-9,-14,-14
-24,9,34,7,-29,21,-24,-53,-14,-9,-19,-14
-34,4,39,14,-36,21,-19,-48,-14,-9,-19,-14
-24,4,29,9,-26,17,-19,-48,-14,-14,-19,-19
-19,4,24,7,-21,14,-19,-53,-14,-14,-24,-19
-24,4,29,9,-26,17,-19,-53,-14,-14,-24,-19
-24,0,24,12,-24,12,-14,-53,-14,-14,-24,-19
-24,0,24,12,-24,12,-14,-58,-19,-19,-29,-24
-24,0,24,12,-24,12,-14,-58,-19,-19,-29,-29
-29,-4,24,17,-26,9,-19,-58,-19,-19,-29,-29
-34,-14,19,24,-26,2,-14,-58,-19,-19,-29,-29
-39,-9,29,24,-34,9,-14,-58,-14,-19,-29,-29
-43,-4,39,24,-41,17,-9,-58,-14,-19,-29,-29
-48,-4,43,26,-46,19,-4,-53,-14,-14,-29,-24
-53,-4,48,29,-51,21,-4,-48,-14,-14,-29,-24
-53,-4,48,29,-51,21,4,-48,-14,-14,-29,-19
-58,-4,53,31,-56,24,14,-48,-9,-14,-24,-14
-68,-9,58,39,-63,24,19,-48,0,-14,-24,-14
-73,-9,63,41,-68,26,24,-43,0,-9,-24,-14
-78,-9,68,43,-73,29,29,-48,4,-14,-29,-19
-82,-9,73,46,-78,31,34,-48,4,-14,-29,-24
-82,-14,68,48,-75,26,39,-43,9,-4,-19,-19
-73,-14,58,43,-65,21,43,-34,14,-4,-19,-19
-87,-9,78,48,-82,34,48,-29,19,0,-9,-14
-102,-9,92,56,-97,41,53,-19,34,9,0,-4
-102,-4,97,53,-100,46,53,-14,29,9,4,-4
-112,0,112,56,-112,56,53,-14,29,9,4,-4
-126,0,126,63,-126,63,68,-4,39,24,14,9
-136,0,136,68,-136,68,68,0,43,24,19,9
-126,0,126,63,-126,63,63,0,43,29,19,9
-117,0,117,58,-117,58,58,4,43,34,19,9
-117,4,122,56,-119,63,58,9,43,34,14,14
-117,4,122,56,-119,63,58,9,43,34,14,19
-117,4,122,56,-119,63,58,9,48,39,19,14
-117,4,122,56,-119,63,58,14,48,39,24,14
-117,4,122,56,-119,63,58,9,48,34,24,14
-117,4,122,56,-119,63,58,4,48,29,24,14
-112,4,117,53,-114,61,58,0,43,29,24,14
-112,4,117,53,-114,61,53,0,43,29,19,19
-107,4,112,51,-109,58,53,0,43,29,19,19
-107,4,112,51,-109,58,48,-4,39,29,19,19
-107,4,112,51,-109,58,48,-4,39,29,19,19
-107,4,112,51,-109,58,48,-4,39,24,19,19
-102,4,107,48,-104,56,39,-9,39,19,14,14
-97,4,102,46,-100,53,34,-14,34,19,14,9
-87,4,92,41,-90,48,34,-14,24,14,9,0
-82,0,82,41,-82,41,29,-24,24,9,4,-4
-92,-4,87,48,-90,41,29,-29,19,9,0,-4
-102,-9,92,56,-97,41,29,-29,19,9,-4,-4
-102,-4,97,53,-100,46,19,-34,14,4,-4,-4
-102,-4,97,53,-100,46,19,-39,9,0,-4,-9
-87,-4,82,46,-85,39,19,-39,9,0,-14,-14
-78,-9,68,43,-73,29,9,-43,4,-4,-19,-19
-87,-9,78,48,-82,34,9,-48,4,-9,-14,-19
-97,-9,87,53,-92,39,9,-48,0,-9,-9,-14
-92,-9,82,51,-87,36,9,-53,-4,-9,-9,-14
-92,-9,82,51,-87,36,4,-53,-9,-9,-9,-19
-82,-14,68,48,-75,26,4,-53,-9,-9,-14,-24
-73,-14,58,43,-65,21,0,-58,-14,-14,-14,-24
-87,-14,73,51,-80,29,0,-58,-14,-14,-14,-19
-102,-14,87,58,-95,36,0,-58,-14,-14,-14,-14
-92,-9,82,51,-87,36,0,-58,-14,-19,-14,-14
-82,-4,78,43,-80,36,0,-63,-14,-19,-14,-19
-82,-9,73,46,-78,31,-4,-68,-19,-24,-24,-24
-82,-9,73,46,-78,31,-4,-68,-19,-24,-24,-29
-82,-9,73,46,-78,31,0,-68,-19,-24,-24,-24
-82,-14,68,48,-75,26,0,-68,-19,-29,-29,-24
-82,-14,68,48,-75,26,0,-68,-24,-29,-29,-29
-82,-14,68,48,-75,26,-4,-68,-29,-29,-29,-34
-92,-24,68,58,-80,21,-9,-73,-29,-34,-34,-34
-102,-29,73,65,-87,21,-9,-78,-34,-39,-39,-34
-92,-24,68,58,-80,21,-9,-82,-29,-39,-43,-34
-87,-14,73,51,-80,29,-9,-82,-29,-43,-39,-34
-92,-19,73,56,-82,26,-4,-82,-34,-34,-39,-29
-92,-19,73,56,-82,26,-4,-78,-34,-34,-39,-24
-82,-19,63,51,-73,21,-4,-82,-34,-34,-39,-34
-82,-24,58,53,-70,17,-4,-78,-34,-34,-48,-39
-82,-19,63,51,-73,21,-4,-78,-24,-34,-39,-34
-92,-14,78,53,-85,31,-9,-78,-19,-29,-39,-29
-87,-9,78,48,-82,34,-4,-78,-19,-24,-34,-29
-78,0,78,39,-78,39,0,-73,-19,-24,-29,-24
-68,14,82,26,-75,48,9,-63,-14,-14,-19,-24
-53,34,87,9,-70,61,9,-58,-9,-9,-19,-19
-48,48,97,0,-73,73,19,-48,4,0,-4,-9
-39,63,102,-12,-70,82,24,-43,14,9,4,0
-39,58,97,-9,-68,78,29,-29,19,14,4,4
-39,58,97,-9,-68,78,39,-19,29,19,9,9
-24,68,92,-21,-58,80,29,-24,29,19,9,9
-9,78,87,-34,-48,82,19,-29,29,19,9,9
-9,82,92,-36,-51,87,9,-29,29,19,9,9
-4,87,92,-41,-48,90,0,-34,24,19,14,14
-4,97,102,-46,-53,100,-9,-39,24,19,19,19
4,112,107,-58,-51,109,-24,-43,19,29,19,24
14,112,97,-63,-41,104,-43,-58,9,14,14,24
14,112,97,-63,-41,104,-48,-63,0,9,14,19
9,107,97,-58,-43,102,-53,-73,-9,4,9,19
-4,92,97,-43,-51,95,-58,-87,-19,-9,-4,9
-19,73,92,-26,-56,82,-58,-97,-29,-24,-19,-4
-39,63,102,-12,-70,82,-58,-112,-34,-29,-24,-9
-29,58,87,-14,-58,73,-63,-112,-43,-39,-29,-19
-24,48,73,-12,-48,61,-63,-122,-53,-43,-39,-34
-24,43,68,-9,-46,56,-58,-122,-48,-48,-43,-34
-29,43,73,-7,-51,58,-58,-122,-43,-48,-43,-34
-48,43,92,2,-70,68,-53,-117,-34,-39,-43,-29
-78,24,102,26,-90,63,-39,-112,-34,-34,-43,-34
-92,4,97,43,-95,51,-29,-102,-34,-34,-43,-34
-107,-9,97,58,-102,43,-19,-92,-34,-34,-43,-39
-107,-24,82,65,-95,29,-14,-92,-39,-43,-48,-43
-107,-34,73,70,-90,19,-14,-97,-43,-48,-53,-53
-107,-39,68,73,-87,14,-14,-102,-53,-63,-63,-58
-107,-39,68,73,-87,14,-14,-107,-58,-63,-63,-58
-112,-39,73,75,-92,17,-14,-107,-58,-58,-58,-58
-122,-34,87,78,-104,26,-19,-107,-58,-58,-58,-58
-122,-34,87,78,-104,26,-19,-107,-58,-58,-58,-53
-117,-39,78,78,-97,19,-19,-107,-58,-58,-53,-53
-122,-39,82,80,-102,21,-19,-107,-58,-58,-58,-58
-126,-39,87,82,-107,24,-19,-107,-58,-53,-58,-58
-131,-43,87,87,-109,21,-19,-107,-58,-53,-58,-58
-131,-43,87,87,-109,21,-19,-107,-58,-53,-63,-58
-131,-43,87,87,-109,21,-19,-112,-58,-53,-68,-58
-131,-39,92,85,-112,26,-19,-112,-53,-53,-73,-58
-112,-39,73,75,-92,17,-19,-112,-53,-53,-73,-53
-97,-43,53,70,-75,4,-14,-112,-53,-53,-73,-53
-112,-48,63,80,-87,7,-14,-112,-58,-58,-68,-53
-126,-53,73,90,-100,9,-14,-112,-58,-58,-63,-53
-126,-53,73,90,-100,9,-14,-112,-53,-53,-63,-53
-156,-39,117,97,-136,39,-4,-112,-29,-34,-48,-43
-209,9,219,100,-214,114,34,-112,34,24,14,9
-263,82,346,90,-305,214,82,-92,146,136,141,117
-283,185,468,48,-375,326,97,-63,268,278,268,248
-263,302,566,-19,-414,434,97,-39,380,400,400,385
-224,414,639,-95,-431,527,82,-82,448,483,507,497
-165,575,741,-204,-453,658,-122,-473,439,512,566,585
-24,751,775,-363,-400,763,-507,-971,297,419,536,614
224,854,629,-539,-202,741,-1000,-1444,0,204,395,546
536,844,307,-690,114,575,-1478,-1776,-434,-126,146,351
912,653,-258,-783,585,197,-1888,-1971,-932,-570,-244,4
1293,292,-1000,-793,1146,-353,-2215,-2049,-1405,-1024,-683,-419
1595,-366,-1961,-614,1778,-1163,-2269,-1922,-1888,-1571,-1283,-1049
1732,-985,-2718,-373,2225,-1851,-2113,-1771,-2249,-2030,-1839,-1644
1688,-1410,-3098,-139,2393,-2254,-1903,-1698,-2464,-2366,-2264,-2103
1546,-1517,-3064,-14,2305,-2291,-1688,-1654,-2391,-2347,-2283,-2152
1342,-1415,-2757,36,2049,-2086,-1454,-1595,-2117,-2113,-2069,-1956
1122,-1312,-2435,95,1778,-1873,-1215,-1405,-1825,-1834,-1820,-1742
834,-1151,-1986,158,1410,-1568,-956,-1156,-1503,-1537,-1532,-1478
551,-966,-1517,207,1034,-1241,-717,-971,-1205,-1244,-1249,-1205
424,-785,-1210,180,817,-997,-566,-849,-976,-1015,-1019,-995
312,-541,-854,114,583,-697,-395,-634,-673,-702,-717,-702
180,-356,-536,87,358,-446,-248,-409,-429,-463,-473,-458
63,-287,-351,112,207,-319,-161,-297,-331,-351,-361,-356
-39,-239,-200,139,80,-219,-58,-209,-219,-244,-258,-258
-126,-180,-53,153,-36,-117,24,-122,-107,-136,-161,-161
-156,-122,34,139,-95,-43,53,-39,-29,-58,-87,-82
-161,-87,73,124,-117,-7,82,14,-9,-29,-48,-53
-161,-87,73,124,-117,-7,102,19,-9,-34,-43,-58
-180,-87,92,134,-136,2,117,19,14,-14,-29,-48
-180,-87,92,134,-136,2,107,19,19,-4,-29,-43
-180,-68,112,124,-146,21,107,24,19,-4,-19,-34
-180,-68,112,124,-146,21,112,34,19,-4,-19,-29
-190,-68,122,129,-156,26,122,34,29,0,-14,-24
-190,-73,117,131,-153,21,122,34,29,4,-9,-24
-190,-73,117,131,-153,21,117,34,29,4,-9,-19
-190,-63,126,126,-158,31,117,39,29,4,-9,-14
-200,-63,136,131,-168,36,126,43,39,9,-4,-14
-200,-63,136,131,-168,36,126,43,39,14,-4,-9
-204,-58,146,131,-175,43,126,48,39,19,-4,-9
-209,-58,151,134,-180,46,126,53,43,24,0,-9
-209,-58,151,134,-180,46,131,58,53,34,4,-4
-209,-53,156,131,-183,51,131,63,58,34,4,-4
-214,-53,161,134,-187,53,136,68,63,34,4,-4
-209,-58,151,134,-180,46,136,63,63,29,4,-4
-209,-58,151,134,-180,46,141,68,63,29,9,0
-204,-53,151,129,-178,48,146,78,68,29,9,0
-204,-53,151,129,-178,48,156,78,68,29,9,4
-209,-53,156,131,-183,51,165,87,73,34,14,4
-219,-48,170,134,-195,61,170,97,82,43,19,9
-219,-48,170,134,-195,61,180,112,87,48,24,14
-214,-48,165,131,-190,58,180,122,92,53,29,19
-214,-48,165,131,-190,58,185,136,102,63,39,24
-214,-43,170,129,-192,63,195,146,102,73,43,29
-214,-43,170,129,-192,63,200,161,112,78,48,34
-214,-39,175,126,-195,68,214,175,117,87,53,34
-219,-39,180,129,-200,70,229,200,126,97,63,43
-219,-39,180,129,-200,70,244,219,136,107,73,53
-219,-34,185,126,-202,75,258,239,151,122,82,58
-224,-24,200,124,-212,87,273,273,161,136,97,68
-224,-9,214,117,-219,102,292,302,180,151,112,82
-229,-4,224,117,-226,109,312,331,200,165,131,97
-229,0,229,114,-229,114,331,370,214,185,146,107
-219,14,234,102,-226,124,351,414,234,200,161,122
-214,24,239,95,-226,131,375,463,253,214,185,136
-214,34,248,90,-231,141,400,512,278,248,204,161
-209,53,263,78,-236,158,429,566,302,273,229,175
-219,58,278,80,-248,168,453,624,331,307,263,204
-224,73,297,75,-261,185,483,683,361,336,297,234
-204,97,302,53,-253,200,502,741,390,366,322,258
-170,117,287,26,-229,202,522,800,424,395,346,278
-165,141,307,12,-236,224,551,863,463,434,390,317
-151,170,322,-9,-236,246,570,917,497,468,419,346
-146,190,336,-21,-241,263,585,971,517,502,453,380
-151,219,370,-34,-261,295,595,1015,546,536,488,414
-112,253,366,-70,-239,309,600,1054,570,566,522,444
-87,278,366,-95,-226,322,600,1078,590,585,541,463
-82,302,385,-109,-234,344,595,1088,600,595,556,478
-58,312,370,-126,-214,341,580,1083,600,610,566,488
-34,326,361,-146,-197,344,561,1078,600,610,570,488
-19,336,356,-158,-187,346,536,1058,590,610,570,492
4,341,336,-173,-165,339,507,1019,585,595,566,492
14,341,326,-178,-156,334,473,971,566,575,546,478
24,351,326,-187,-151,339,444,917,536,551,527,463
39,356,317,-197,-139,336,400,858,507,522,497,439
48,351,302,-200,-126,326,366,790,473,492,463,414
58,336,278,-197,-109,307,326,717,434,453,434,385
58,317,258,-187,-100,287,292,649,395,414,400,356
63,292,229,-178,-82,261,253,585,361,375,361,326
73,273,200,-173,-63,236,219,517,322,336,322,292
78,258,180,-168,-51,219,190,444,278,297,278,258
73,234,161,-153,-43,197,156,380,239,258,244,229
73,214,141,-143,-34,178,131,326,209,224,209,204
73,195,122,-134,-24,158,107,278,175,195,185,175
68,170,102,-119,-17,136,82,219,146,165,156,151
68,161,92,-114,-12,126,63,180,112,141,131,126
53,141,87,-97,-17,114,43,146,92,117,102,102
43,117,73,-80,-14,95,34,112,73,92,87,82
43,107,63,-75,-9,85,24,82,58,78,73,73
48,92,43,-70,2,68,9,48,34,53,53,53
43,78,34,-61,4,56,0,34,19,39,43,39
34,68,34,-51,0,51,0,24,9,29,29,29
34,58,24,-46,4,41,-9,9,0,14,14,14
29,48,19,-39,4,34,-14,0,-4,4,4,4
19,43,24,-31,-2,34,-19,-14,-9,-4,-4,0
19,34,14,-26,2,24,-24,-19,-14,-9,-4,0
14,29,14,-21,0,21,-24,-24,-14,-14,-14,-4
4,24,19,-14,-7,21,-29,-34,-19,-19,-19,-14
24,14,-9,-19,17,2,-39,-43,-34,-29,-24,-24
14,9,-4,-12,9,2,-39,-48,-39,-29,-29,-24
14,4,-9,-9,12,-2,-39,-48,-43,-29,-29,-24
14,4,-9,-9,12,-2,-39,-48,-43,-34,-29,-29
9,4,-4,-7,7,0,-39,-53,-43,-34,-34,-29
4,4,0,-4,2,2,-39,-53,-43,-34,-39,-29
4,0,-4,-2,4,-2,-34,-53,-43,-34,-43,-29
4,0,-4,-2,4,-2,-34,-53,-48,-43,-48,-34
4,0,-4,-2,4,-2,-34,-48,-48,-48,-48,-39
0,-4,-4,2,2,-4,-34,-48,-48,-48,-43,-39
-4,-14,-9,9,2,-12,-24,-48,-48,-48,-39,-39
-9,-19,-9,14,0,-14,-24,-48,-39,-48,-39,-39
-14,-24,-9,19,-2,-17,-19,-48,-34,-48,-39,-39
-19,-24,-4,21,-7,-14,-14,-48,-34,-43,-43,-34
-24,-24,0,24,-12,-12,-14,-48,-34,-43,-48,-34
-29,-24,4,26,-17,-9,-4,-48,-34,-39,-48,-34
-39,-24,14,31,-26,-4,4,-48,-29,-34,-43,-34
-53,-29,24,41,-39,-2,9,-48,-19,-34,-39,-29
-63,-29,34,46,-48,2,14,-43,-19,-29,-34,-24
-68,-29,39,48,-53,4,19,-43,-14,-29,-34,-24
-73,-29,43,51,-58,7,24,-39,-14,-24,-29,-24
-78,-29,48,53,-63,9,29,-34,-9,-14,-19,-19
-73,-24,48,48,-61,12,34,-24,-4,-14,-19,-19
-78,-19,58,48,-68,19,39,-24,-4,-9,-14,-19
-82,-19,63,51,-73,21,43,-19,4,0,-9,-14
-73,-19,53,46,-63,17,43,-14,4,0,-9,-14
-73,-19,53,46,-63,17,43,-14,9,0,-14,-14
-87,-19,68,53,-78,24,63,-4,19,14,-4,0
-97,-19,78,58,-87,29,68,0,24,14,0,0
-97,-19,78,58,-87,29,68,0,24,19,4,0
-97,-19,78,58,-87,29,68,4,24,24,9,0
-97,-9,87,53,-92,39,63,9,24,24,9,4
-97,-4,92,51,-95,43,58,9,24,24,14,9
-97,-4,92,51,-95,43,58,9,34,29,19,9
-97,-4,92,51,-95,43,58,14,39,29,24,14
-97,-4,92,51,-95,43,58,19,39,24,24,14
-97,-4,92,51,-95,43,58,24,39,19,24,14
-92,-9,82,51,-87,36,58,19,34,19,24,14
-92,-14,78,53,-85,31,53,19,34,19,19,19
-87,-14,73,51,-80,29,53,19,34,19,19,19
-87,-14,73,51,-80,29,48,14,29,19,19,19
-92,-14,78,53,-85,31,48,14,29,24,19,19
-97,-14,82,56,-90,34,48,14,29,24,19,19
-97,-14,82,56,-90,34,39,4,29,19,14,14
-97,-14,82,56,-90,34,34,-4,24,19,14,9
-82,-14,68,48,-75,26,34,-4,14,14,9,4
-73,-19,53,46,-63,17,29,-14,14,9,4,4
-73,-19,53,46,-63,17,24,-19,9,9,0,4
-73,-19,53,46,-63,17,19,-19,9,9,-4,4
-73,-14,58,43,-65,21,9,-24,4,4,-4,4
-73,-14,58,43,-65,21,9,-29,0,0,-4,0
-68,-14,53,41,-61,19,14,-29,0,0,-9,-4
-68,-19,48,43,-58,14,9,-34,-4,-4,-9,-9
-68,-19,48,43,-58,14,9,-39,-4,-9,-9,-9
-68,-19,48,43,-58,14,9,-39,-9,-9,-9,-4
-58,-19,39,39,-48,9,9,-43,-9,-9,-9,-4
-53,-19,34,36,-43,7,4,-43,-9,-9,-9,-9
-53,-24,29,39,-41,2,4,-43,-9,-9,-19,-14
-53,-24,29,39,-41,2,0,-48,-14,-14,-24,-14
-53,-24,29,39,-41,2,0,-48,-14,-14,-24,-14
-53,-24,29,39,-41,2,0,-48,-14,-14,-24,-14
-53,-24,29,39,-41,2,0,-48,-14,-14,-19,-9
-53,-24,29,39,-41,2,0,-53,-14,-9,-14,-9
-58,-29,29,43,-43,0,-4,-58,-19,-14,-24,-9
-63,-29,34,46,-48,2,-4,-58,-19,-14,-24,-9
-63,-24,39,43,-51,7,0,-58,-19,-19,-19,-9
-63,-24,39,43,-51,7,0,-58,-19,-29,-19,-14
-63,-24,39,43,-51,7,0,-58,-19,-29,-19,-14
-63,-24,39,43,-51,7,-4,-58,-19,-29,-19,-14
-63,-29,34,46,-48,2,-9,-63,-19,-29,-24,-19
-63,-29,34,46,-48,2,-9,-68,-24,-29,-29,-24
-63,-34,29,48,-46,-2,-9,-68,-19,-29,-34,-24
-68,-34,34,51,-51,0,-9,-63,-19,-34,-29,-24
-73,-34,39,53,-56,2,-9,-63,-24,-24,-29,-19
-73,-29,43,51,-58,7,-14,-58,-24,-24,-29,-14
-63,-29,34,46,-48,2,-14,-73,-29,-24,-29,-24
-63,-34,29,48,-46,-2,-14,-78,-34,-24,-39,-29
-53,-29,24,41,-39,-2,-14,-78,-24,-29,-34,-29
-53,-24,29,39,-41,2,-19,-78,-19,-29,-39,-29
-48,-19,29,34,-39,4,-9,-73,-19,-24,-34,-29
-39,-9,29,24,-34,9,0,-63,-19,-24,-29,-24
-34,-4,29,19,-31,12,9,-53,-14,-14,-19,-19
-24,4,29,9,-26,17,9,-48,-9,-9,-19,-9
-19,19,39,0,-29,29,19,-43,0,0,-4,-4
-9,34,43,-12,-26,39,24,-43,4,9,4,0
-4,39,43,-17,-24,41,29,-29,9,14,9,9
0,48,48,-24,-24,48,39,-19,19,19,19,19
9,53,43,-31,-17,48,34,-19,19,19,19,19
19,58,39,-39,-9,48,29,-19,19,19,19,19
29,63,34,-46,-2,48,19,-19,19,19,19,19
34,68,34,-51,0,51,9,-19,19,19,24,24
39,78,39,-58,0,58,0,-24,24,24,34,29
43,92,48,-68,-2,70,-14,-24,29,39,39,34
53,97,43,-75,4,70,-34,-39,24,29,34,34
53,102,48,-78,2,75,-39,-43,19,29,34,29
53,102,48,-78,2,75,-48,-53,9,19,29,29
43,92,48,-68,-2,70,-58,-68,0,0,14,19
29,68,39,-48,-4,53,-58,-78,-9,-14,0,4
9,53,43,-31,-17,48,-58,-92,-14,-19,-4,0
9,43,34,-26,-12,39,-63,-92,-24,-29,-9,-4
4,29,24,-17,-9,26,-63,-102,-34,-34,-19,-14
4,24,19,-14,-7,21,-58,-102,-34,-39,-24,-14
0,24,24,-12,-12,24,-58,-102,-34,-39,-24,-14
-19,29,48,-4,-34,39,-53,-97,-24,-34,-24,-9
-48,14,63,17,-56,39,-39,-92,-24,-34,-24,-14
-58,0,58,29,-58,29,-29,-87,-24,-34,-24,-14
-68,-9,58,39,-63,24,-19,-82,-24,-34,-24,-19
-68,-24,43,46,-56,9,-14,-82,-24,-39,-29,-19
-68,-34,34,51,-51,0,-14,-87,-24,-39,-34,-24
-68,-43,24,56,-46,-9,-14,-87,-34,-53,-43,-34
-68,-48,19,58,-43,-14,-14,-87,-39,-53,-43,-39
-73,-53,19,63,-46,-17,-9,-87,-39,-43,-39,-39
-82,-53,29,68,-56,-12,-9,-87,-39,-39,-39,-39
-82,-53,29,68,-56,-12,-9,-87,-39,-43,-43,-34
-78,-58,19,68,-48,-19,-9,-87,-39,-48,-43,-34
-78,-53,24,65,-51,-14,-9,-87,-34,-48,-48,-39
-78,-48,29,63,-53,-9,-9,-87,-29,-43,-48,-39
-82,-53,29,68,-56,-12,-9,-82,-29,-43,-43,-39
-82,-53,29,68,-56,-12,-9,-78,-29,-43,-43,-39
-82,-58,24,70,-53,-17,-9,-82,-29,-43,-43,-43
-82,-58,24,70,-53,-17,-9,-82,-24,-43,-43,-48
-82,-58,24,70,-53,-17,-9,-82,-24,-43,-43,-43
-87,-63,24,75,-56,-19,-4,-82,-24,-43,-43,-43
-87,-63,24,75,-56,-19,-4,-82,-29,-48,-43,-43
-87,-63,24,75,-56,-19,-4,-82,-29,-48,-43,-43
-78,-68,9,73,-43,-29,-4,-82,-39,-48,-48,-43
-97,-58,39,78,-68,-9,4,-82,-29,-34,-39,-34
-165,-29,136,97,-151,53,43,-78,24,9,0,4
-234,24,258,104,-246,141,92,-53,126,107,102,97
-258,122,380,68,-319,251,107,-9,248,248,239,229
-244,234,478,4,-361,356,107,29,361,370,380,366
-224,322,546,-48,-385,434,195,136,488,502,512,488
-185,458,644,-136,-414,551,92,-102,536,580,595,585
-63,702,766,-319,-414,734,-248,-605,531,605,678,702
165,873,707,-519,-270,790,-697,-1083,370,507,649,722
463,951,488,-707,-12,719,-1195,-1473,-53,204,444,595
824,849,24,-836,400,436,-1625,-1727,-541,-209,97,317
1254,561,-692,-907,973,-65,-2098,-1903,-1083,-702,-346,-97
1605,-24,-1629,-790,1617,-827,-2298,-1873,-1634,-1288,-951,-717
1781,-795,-2576,-492,2178,-1686,-2176,-1747,-2117,-1873,-1639,-1444
1776,-1371,-3147,-202,2461,-2259,-2000,-1698,-2454,-2337,-2196,-2034
1649,-1546,-3196,-51,2422,-2371,-1800,-1698,-2459,-2405,-2303,-2166
1459,-1512,-2971,26,2215,-2242,-1581,-1683,-2264,-2259,-2176,-2054
1263,-1429,-2693,82,1978,-2061,-1346,-1517,-1971,-1986,-1942,-1854
1000,-1288,-2288,143,1644,-1788,-1093,-1293,-1649,-1693,-1668,-1605
668,-1112,-1781,222,1224,-1446,-824,-1073,-1337,-1390,-1381,-1327
492,-941,-1434,224,963,-1188,-644,-917,-1093,-1151,-1146,-1112
380,-663,-1044,141,712,-854,-458,-692,-761,-800,-814,-795
248,-444,-692,97,470,-568,-297,-458,-488,-522,-541,-527
122,-361,-483,119,302,-422,-200,-331,-380,-409,-419,-414
9,-297,-307,143,158,-302,-87,-229,-258,-302,-307,-307
-92,-224,-131,158,19,-178,4,-136,-131,-170,-180,-190
-136,-151,-14,143,-61,-82,43,-48,-39,-68,-78,-92
-126,-107,19,117,-73,-43,73,14,-9,-34,-39,-53
-112,-97,14,104,-63,-41,92,29,0,-34,-34,-48
-141,-97,43,119,-92,-26,117,29,29,-9,-14,-34
-151,-97,53,124,-102,-21,117,29,39,4,-9,-24
-151,-78,73,114,-112,-2,107,34,39,4,0,-14
-151,-78,73,114,-112,-2,102,43,39,4,0,-9
-161,-73,87,117,-124,7,112,43,48,9,4,-4
-161,-73,87,117,-124,7,112,43,48,14,9,-4
-161,-73,87,117,-124,7,107,39,48,14,9,-4
-161,-63,97,112,-129,17,107,39,48,14,9,-4
-170,-63,107,117,-139,21,117,43,58,19,14,-4
-170,-63,107,117,-139,21,117,43,58,24,14,0
-185,-58,126,122,-156,34,117,43,58,24,14,9
-200,-58,141,129,-170,41,117,43,63,24,19,19
-180,-58,122,119,-151,31,122,48,63,29,19,14
-161,-53,107,107,-134,26,122,53,58,24,14,4
-170,-53,117,112,-143,31,131,63,63,29,14,4
-170,-58,112,114,-141,26,136,63,63,29,14,4
-175,-58,117,117,-146,29,141,68,63,34,24,9
-175,-53,122,114,-148,34,146,78,68,39,29,9
-175,-58,117,117,-146,29,151,78,68,39,29,14
-180,-63,117,122,-148,26,156,87,73,43,34,14
-190,-58,131,124,-161,36,156,87,82,48,34,14
-190,-58,131,124,-161,36,161,92,87,48,34,14
-185,-58,126,122,-156,34,165,102,92,53,39,19
-185,-58,126,122,-156,34,175,117,102,63,48,24
-185,-53,131,119,-158,39,185,126,102,73,53,29
-185,-53,131,119,-158,39,190,141,112,78,58,34
-185,-43,141,114,-163,48,200,151,117,82,63,34
-190,-39,151,114,-170,56,209,170,126,87,73,43
-190,-39,151,114,-170,56,219,185,131,92,78,53
-190,-34,156,112,-173,61,229,200,141,102,82,58
-195,-29,165,112,-180,68,239,234,146,117,97,68
-195,-19,175,107,-185,78,253,263,161,131,112,82
-200,-14,185,107,-192,85,273,292,180,146,126,92
-200,-9,190,104,-195,90,292,331,195,165,136,97
-190,0,190,95,-190,95,312,370,214,180,146,112
-185,4,190,90,-187,97,336,414,234,195,165,126
-180,14,195,82,-187,104,361,458,258,219,180,146
-170,34,204,68,-187,119,390,507,283,234,200,156
-170,43,214,63,-192,129,414,566,312,268,234,185
-165,63,229,51,-197,146,444,624,341,297,268,214
-161,87,248,36,-204,168,463,683,366,331,297,244
-141,107,248,17,-195,178,483,741,395,366,326,268
-136,126,263,4,-200,195,512,805,434,405,370,307
-122,151,273,-14,-197,212,531,858,468,439,400,336
-112,170,283,-29,-197,226,546,907,488,468,429,356
-112,200,312,-43,-212,256,556,946,517,497,458,375
-82,229,312,-73,-197,270,566,1000,541,531,497,414
-68,248,317,-90,-192,283,570,1039,561,556,522,444
-63,278,341,-107,-202,309,570,1058,575,566,536,463
-39,292,331,-126,-185,312,561,1063,580,580,546,478
-14,312,326,-148,-170,319,546,1068,585,580,551,478
0,326,326,-163,-163,326,527,1058,580,580,551,483
29,336,307,-183,-139,322,502,1024,570,570,551,483
43,341,297,-192,-126,319,473,980,546,556,536,468
53,346,292,-200,-119,319,444,927,522,531,522,458
68,346,278,-207,-104,312,400,868,497,502,497,439
78,341,263,-209,-92,302,366,800,473,478,463,414
87,326,239,-207,-75,283,326,727,444,444,434,385
78,312,234,-195,-78,273,292,658,405,409,405,361
73,292,219,-183,-73,256,253,595,370,375,370,336
92,273,180,-183,-43,226,219,531,336,341,341,307
107,258,151,-183,-21,204,190,463,297,307,307,278
92,234,141,-163,-24,187,156,400,258,268,273,248
82,214,131,-148,-24,173,131,346,229,234,239,224
82,195,112,-139,-14,153,112,302,200,204,214,195
78,170,92,-124,-7,131,92,248,175,175,185,170
82,170,87,-126,-2,129,73,204,141,151,161,146
73,161,87,-117,-7,124,53,165,122,126,131,122
63,136,73,-100,-4,104,39,126,102,102,117,102
63,126,63,-95,0,95,24,92,87,87,102,92
63,112,48,-87,7,80,9,53,63,63,73,73
53,97,43,-75,4,70,0,34,48,48,53,58
43,82,39,-63,2,61,0,14,39,39,39,48
43,68,24,-56,9,46,-9,-9,29,24,24,34
43,58,14,-51,14,36,-14,-19,19,14,14,24
39,53,14,-46,12,34,-19,-34,9,4,4,19
34,43,9,-39,12,26,-24,-39,4,0,14,14
24,39,14,-31,4,26,-24,-43,4,-4,14,4
9,34,24,-21,-7,29,-24,-53,0,-14,0,-4
24,24,0,-24,12,12,-29,-63,-14,-29,-14,-14
14,19,4,-17,4,12,-34,-68,-19,-29,-19,-14
14,14,0,-14,7,7,-39,-68,-24,-29,-19,-14
24,14,-9,-19,17,2,-39,-68,-24,-34,-19,-19
29,14,-14,-21,21,0,-39,-73,-24,-34,-24,-19
9,4,-4,-7,7,0,-34,-68,-19,-34,-24,-19
-4,-9,-4,7,0,-7,-24,-63,-14,-34,-24,-19
-4,-9,-4,7,0,-7,-24,-63,-19,-39,-29,-24
-4,-9,-4,7,0,-7,-24,-58,-19,-39,-29,-29
-9,-9,0,9,-4,-4,-29,-58,-19,-39,-29,-29
-14,-14,0,14,-7,-7,-24,-58,-19,-39,-29,-29
-14,-14,0,14,-7,-7,-24,-58,-14,-39,-29,-29
-14,-14,0,14,-7,-7,-19,-58,-14,-39,-29,-29
-19,-14,4,17,-12,-4,-14,-58,-14,-29,-29,-24
-24,-14,9,19,-17,-2,-14,-58,-14,-24,-29,-24
-24,-14,9,19,-17,-2,-9,-58,-14,-24,-29,-24
-29,-14,14,21,-21,0,-4,-58,-9,-24,-24,-24
-24,-19,4,21,-14,-7,0,-58,0,-29,-24,-24
-14,-19,-4,17,-4,-12,4,-53,0,-29,-24,-24
-29,-19,9,24,-19,-4,9,-53,4,-29,-24,-19
-43,-19,24,31,-34,2,14,-48,4,-24,-19,-14
-53,-24,29,39,-41,2,24,-43,9,-9,-9,-9
-53,-24,29,39,-41,2,34,-34,14,-4,-9,-9
-63,-19,43,41,-53,12,39,-29,19,0,-4,-9
-73,-19,53,46,-63,17,43,-19,34,9,0,-4
-73,-14,58,43,-65,21,43,-14,34,9,4,-4
-82,-9,73,46,-78,31,43,-14,39,9,4,-4
-87,-9,78,48,-82,34,58,-4,48,24,19,14
-87,-9,78,48,-82,34,58,0,53,24,29,19
-87,-4,82,46,-85,39,58,0,53,29,29,24
-87,0,87,43,-87,43,58,4,53,34,29,29
-87,4,92,41,-90,48,58,9,58,39,29,34
-87,4,92,41,-90,48,58,9,63,43,34,39
-87,4,92,41,-90,48,58,9,68,48,39,39
-87,4,92,41,-90,48,58,14,68,48,43,43
-87,0,87,43,-87,43,58,14,68,48,43,39
-87,-4,82,46,-85,39,58,14,68,48,43,34
-87,-4,82,46,-85,39,58,14,63,48,48,34
-92,-4,87,48,-90,41,53,19,63,48,48,39
-87,0,87,43,-87,43,53,19,63,48,48,39
-87,4,92,41,-90,48,48,14,58,48,48,39
-87,4,92,41,-90,48,48,9,58,48,43,39
-87,4,92,41,-90,48,48,4,58,43,39,39
-87,4,92,41,-90,48,39,0,58,39,34,34
-87,4,92,41,-90,48,34,-4,53,39,34,29
-78,0,78,39,-78,39,34,-4,43,34,29,24
-73,-9,63,41,-68,26,29,-14,43,29,24,24
-73,-9,63,41,-68,26,29,-19,39,29,24,24
-73,-9,63,41,-68,26,29,-19,39,29,24,24
-73,0,73,36,-73,36,19,-19,34,24,24,29
-73,4,78,34,-75,41,19,-19,29,19,24,29
-68,4,73,31,-70,39,19,-19,29,19,14,24
-68,0,68,34,-68,34,9,-24,24,14,9,19
-58,0,58,29,-58,29,9,-34,24,9,9,14
-48,0,48,24,-48,24,9,-39,19,9,9,14
-58,0,58,29,-58,29,9,-43,19,9,9,14
-73,0,73,36,-73,36,4,-43,19,9,9,9
-58,-4,53,31,-56,24,4,-43,19,9,4,4
-43,-4,39,24,-41,17,0,-48,14,4,4,4
-58,-4,53,31,-56,24,0,-48,14,9,9,9
-73,-4,68,39,-70,31,0,-48,14,14,14,14
-63,-4,58,34,-61,26,0,-48,14,9,14,14
-53,-4,48,29,-51,21,0,-53,14,9,14,9
-53,-14,39,34,-46,12,-4,-58,9,0,0,4
-53,-19,34,36,-43,7,-4,-58,9,-4,-4,0
-53,-14,39,34,-46,12,-4,-58,9,0,0,4
-53,-14,39,34,-46,12,-9,-58,9,0,0,4
-53,-14,39,34,-46,12,-9,-63,4,0,0,4
-53,-14,39,34,-46,12,-14,-68,0,0,0,4
-58,-14,43,36,-51,14,-14,-68,4,0,0,4
-63,-9,53,36,-58,21,-9,-68,4,0,0,4
-63,-9,53,36,-58,21,-9,-68,9,-4,-4,0
-68,-4,63,36,-65,29,-9,-63,9,-14,0,-4
-48,0,48,24,-48,24,-4,-63,9,-4,0,0
-24,9,34,7,-29,21,-4,-58,14,-4,0,4
-14,34,48,-9,-31,41,4,-53,24,9,14,14
-9,58,68,-24,-39,63,14,-39,39,24,24,34
-9,58,68,-24,-39,63,19,-34,43,29,29,39
-9,63,73,-26,-41,68,29,-29,53,39,39,43
-4,63,68,-29,-36,65,29,-24,53,43,43,43
0,68,68,-34,-34,68,29,-19,58,48,48,48
0,68,68,-34,-34,68,29,-19,63,48,48,48
0,68,68,-34,-34,68,29,-19,68,48,48,48
14,78,63,-46,-24,70,14,-24,68,48,53,53
29,92,63,-61,-17,78,0,-29,68,53,53,58
43,112,68,-78,-12,90,-14,-34,68,58,58,63
63,122,58,-92,2,90,-34,-48,63,48,53,63
48,122,73,-85,-12,97,-39,-53,58,53,58,63
34,122,87,-78,-26,104,-43,-63,48,53,58,68
24,112,87,-68,-31,100,-48,-78,39,39,43,58
9,92,82,-51,-36,87,-48,-87,29,24,29,43
-9,78,87,-34,-48,82,-48,-97,24,19,19,34
-9,63,73,-26,-41,68,-53,-92,14,9,9,24
-9,48,58,-19,-34,53,-53,-102,0,0,0,14
-4,43,48,-19,-26,46,-48,-102,-4,-9,-4,14
-4,48,53,-21,-29,51,-53,-107,-4,-9,-4,14
-19,53,73,-17,-46,63,-53,-107,4,-4,-4,14
-48,34,82,7,-65,58,-39,-102,4,-4,-4,4
-58,19,78,19,-68,48,-29,-97,4,-4,-4,4
-73,4,78,34,-75,41,-14,-87,4,-4,-4,0
-78,-14,63,46,-70,24,-4,-82,4,-9,-9,0
-78,-24,53,51,-65,14,-4,-87,4,-9,-14,-4
-78,-29,48,53,-63,9,-4,-87,-4,-24,-24,-9
-78,-29,48,53,-63,9,-4,-87,-4,-24,-24,-9
-82,-34,48,58,-65,7,-4,-87,0,-19,-19,-9
-92,-34,58,63,-75,12,-9,-87,0,-19,-14,-9
-92,-34,58,63,-75,12,-9,-87,0,-24,-14,-9
-87,-39,48,63,-68,4,-4,-87,0,-29,-14,-14
-87,-39,48,63,-68,4,0,-87,0,-29,-19,-19
-87,-39,48,63,-68,4,0,-87,-4,-24,-24,-19
-92,-43,48,68,-70,2,0,-87,-9,-24,-24,-19
-92,-43,48,68,-70,2,0,-87,-9,-24,-24,-19
-92,-43,48,68,-70,2,0,-92,-9,-24,-24,-19
-92,-39,53,65,-73,7,0,-92,-4,-24,-24,-19
-92,-39,53,65,-73,7,0,-92,-4,-24,-24,-14
-97,-43,53,70,-75,4,4,-92,-4,-14,-24,-14
-97,-43,53,70,-75,4,4,-92,-9,-9,-24,-14
-87,-43,43,65,-65,0,0,-97,-9,-19,-24,-14
-78,-43,34,61,-56,-4,-4,-102,-9,-24,-24,-14
-107,-29,78,68,-92,24,0,-102,0,-14,-14,-14
-161,14,175,73,-168,95,29,-102,53,34,34,29
-224,68,292,78,-258,180,73,-82,165,146,141,136
-253,151,405,51,-329,278,87,-53,287,287,268,268
-234,263,497,-14,-366,380,102,4,409,419,419,405
-204,366,570,-80,-387,468,136,58,512,531,541,522
-185,522,707,-168,-446,614,4,-234,561,610,629,634
-73,732,805,-329,-439,768,-322,-688,502,595,678,722
175,907,732,-541,-278,819,-795,-1166,287,463,629,732
488,961,473,-724,7,717,-1273,-1522,-131,156,419,590
863,829,-34,-846,448,397,-1703,-1737,-649,-283,53,297
1239,507,-732,-873,985,-112,-2083,-1849,-1151,-746,-385,-107
1571,-175,-1747,-697,1659,-961,-2215,-1756,-1698,-1351,-1039,-790
1742,-873,-2615,-434,2178,-1744,-2103,-1625,-2127,-1893,-1673,-1473
1698,-1420,-3118,-139,2408,-2269,-1893,-1581,-2444,-2347,-2220,-2059
1566,-1610,-3176,21,2371,-2393,-1693,-1576,-2464,-2415,-2332,-2196
1381,-1522,-2903,70,2142,-2213,-1483,-1566,-2215,-2205,-2147,-2020
1185,-1420,-2605,117,1895,-2013,-1259,-1429,-1922,-1932,-1908,-1810
912,-1259,-2171,173,1542,-1715,-1005,-1205,-1600,-1634,-1620,-1556
614,-1063,-1678,224,1146,-1371,-766,-1010,-1288,-1332,-1332,-1288
473,-868,-1342,197,907,-1105,-605,-878,-1034,-1088,-1093,-1063
361,-614,-976,126,668,-795,-424,-663,-717,-761,-775,-756
219,-419,-639,100,429,-529,-278,-434,-458,-497,-507,-492
92,-336,-429,122,261,-383,-190,-322,-346,-370,-380,-370
-14,-278,-263,146,124,-270,-78,-234,-224,-258,-273,-268
-102,-214,-112,158,4,-163,14,-141,-107,-136,-156,-165
-126,-141,-14,134,-56,-78,43,-53,-24,-43,-63,-73
-131,-87,43,109,-87,-21,73,4,9,-4,-19,-24
-131,-78,53,104,-92,-12,92,9,19,-4,-14,-19
-151,-78,73,114,-112,-2,107,9,43,14,0,-9
-151,-78,73,114,-112,-2,97,9,48,24,0,-9
-151,-58,92,104,-122,17,97,14,48,24,9,-4
-151,-58,92,104,-122,17,102,24,48,24,9,0
-161,-58,102,109,-131,21,112,24,58,29,14,4
-161,-63,97,112,-129,17,112,24,63,34,19,9
-161,-63,97,112,-129,17,107,24,68,34,19,14
-161,-48,112,104,-136,31,107,29,68,34,19,14
-170,-43,126,107,-148,41,117,34,78,39,24,14
-180,-43,136,112,-158,46,117,34,78,43,24,19
-190,-39,151,114,-170,56,117,34,78,43,24,19
-165,-43,122,104,-143,39,117,34,78,43,29,19
-141,-48,92,95,-117,21,122,39,78,53,34,24
-151,-43,107,97,-129,31,126,43,78,53,34,24
-170,-43,126,107,-148,41,136,53,82,58,34,24
-175,-48,126,112,-151,39,136,48,82,58,34,19
-180,-48,131,114,-156,41,141,48,82,58,39,19
-175,-43,131,109,-153,43,141,58,87,58,39,19
-175,-43,131,109,-153,43,141,58,87,58,39,24
-180,-43,136,112,-158,46,146,68,92,63,43,29
-190,-39,151,114,-170,56,151,73,102,73,48,39
-190,-39,151,114,-170,56,161,82,107,78,53,43
-185,-39,146,112,-165,53,165,92,112,82,58,48
-185,-39,146,112,-165,53,175,107,122,87,68,48
-185,-34,151,109,-168,58,185,117,122,92,73,48
-185,-34,151,109,-168,58,190,131,131,97,78,53
-185,-24,161,104,-173,68,200,146,136,102,82,53
-200,-19,180,109,-190,80,209,170,146,107,92,63
-209,-19,190,114,-200,85,224,190,156,117,102,73
-200,-14,185,107,-192,85,239,204,170,131,107,78
-195,-9,185,102,-190,87,253,234,180,146,117,87
-195,0,195,97,-195,97,268,263,195,161,131,102
-200,4,204,97,-202,104,283,292,209,175,146,117
-200,9,209,95,-204,109,302,326,224,195,156,126
-190,19,209,85,-200,114,322,361,244,209,170,141
-175,24,200,75,-187,112,341,400,263,219,195,151
-165,34,200,65,-183,117,361,444,287,248,214,170
-170,53,224,58,-197,139,390,497,312,273,234,185
-180,63,244,58,-212,153,414,556,341,307,263,214
-175,78,253,48,-214,165,448,614,366,336,297,239
-170,97,268,36,-219,183,473,673,390,370,326,263
-151,112,263,19,-207,187,492,732,424,405,356,287
-146,131,278,7,-212,204,517,795,463,444,400,326
-131,161,292,-14,-212,226,536,854,497,478,429,356
-117,180,297,-31,-207,239,556,907,517,507,458,385
-117,209,326,-46,-222,268,566,951,546,536,488,419
-92,239,331,-73,-212,285,570,995,570,566,522,453
-78,263,341,-92,-209,302,575,1029,595,590,551,478
-73,292,366,-109,-219,329,580,1054,610,605,575,497
-48,302,351,-126,-200,326,575,1058,614,619,585,507
-24,322,346,-148,-185,334,561,1058,619,619,590,507
-9,336,346,-163,-178,341,536,1039,610,624,590,512
14,341,326,-178,-156,334,507,1000,600,614,585,512
24,346,322,-185,-148,334,473,956,575,595,566,497
34,356,322,-195,-143,339,444,907,546,570,546,483
48,356,307,-202,-129,331,400,849,522,541,522,458
58,351,292,-204,-117,322,366,780,492,512,492,434
68,336,268,-202,-100,302,326,712,453,473,463,405
68,322,253,-195,-92,287,292,649,414,434,429,375
73,302,229,-187,-78,265,253,585,380,395,390,351
78,283,204,-180,-63,244,219,522,346,356,356,322
82,268,185,-175,-51,226,185,448,307,317,317,287
82,244,161,-163,-39,202,146,380,268,278,283,258
82,224,141,-153,-29,183,122,326,239,248,248,234
82,204,122,-143,-19,163,102,283,209,224,224,204
73,180,107,-126,-17,143,82,229,185,195,195,180
68,170,102,-119,-17,136,63,190,151,170,170,156
53,156,102,-104,-24,129,43,156,131,146,141,131
43,136,92,-90,-24,114,34,122,112,122,126,112
43,126,82,-85,-19,104,24,87,97,107,107,102
43,112,68,-78,-12,90,9,48,73,82,78,82
34,92,58,-63,-12,75,0,34,58,63,63,68
24,78,53,-51,-14,65,0,19,48,48,48,58
29,68,39,-48,-4,53,-9,0,34,34,34,39
34,58,24,-46,4,41,-14,-9,19,24,24,24
29,53,24,-41,2,39,-19,-24,9,14,14,19
29,43,14,-36,7,29,-24,-29,4,9,14,19
19,39,19,-29,0,29,-24,-34,0,4,4,14
0,34,34,-17,-17,34,-24,-39,-4,0,0,4
14,24,9,-19,2,17,-34,-48,-14,-9,-4,-4
4,19,14,-12,-4,17,-39,-58,-19,-9,-9,-4
4,14,9,-9,-2,12,-39,-58,-19,-9,-9,-4
4,14,9,-9,-2,12,-39,-58,-14,-14,-9,-9
0,14,14,-7,-7,14,-39,-63,-14,-14,-14,-9
-4,14,19,-4,-12,17,-39,-63,-14,-14,-14,-9
-4,9,14,-2,-9,12,-34,-63,-14,-14,-14,-9
-4,9,14,-2,-9,12,-34,-63,-19,-19,-19,-14
-4,14,19,-4,-12,17,-34,-58,-19,-19,-24,-19
-9,14,24,-2,-17,19,-34,-58,-19,-19,-29,-19
-14,4,19,4,-17,12,-24,-53,-19,-19,-29,-19
-19,4,24,7,-21,14,-24,-48,-14,-19,-29,-19
-24,4,29,9,-26,17,-19,-48,-14,-19,-29,-24
-29,4,34,12,-31,19,-14,-48,-14,-14,-29,-24
-24,4,29,9,-26,17,-14,-48,-14,-14,-29,-24
-14,4,19,4,-17,12,-9,-48,-14,-14,-29,-24
-19,4,24,7,-21,14,-4,-48,-9,-14,-24,-24
-29,0,29,14,-29,14,0,-48,0,-14,-24,-24
-39,0,39,19,-39,19,4,-43,0,-9,-24,-19
-48,0,48,24,-48,24,9,-43,4,-9,-24,-14
-53,0,53,26,-53,26,14,-39,4,-9,-19,-14
-63,0,63,31,-63,31,19,-34,9,-4,-9,-9
-53,-4,48,29,-51,21,24,-24,9,-4,-9,-14
-48,-9,39,29,-43,14,29,-24,9,0,-4,-14
-63,-9,53,36,-58,21,34,-19,24,14,0,-4
-73,-9,63,41,-68,26,34,-14,24,19,4,-4
-82,-4,78,43,-80,36,34,-14,29,19,4,-4
-87,0,87,43,-87,43,48,-4,39,34,14,9
-78,0,78,39,-78,39,48,0,43,34,19,9
-68,0,68,34,-68,34,48,0,43,39,19,9
-78,0,78,39,-78,39,48,4,43,43,19,9
-87,4,92,41,-90,48,48,9,43,43,19,14
-87,4,92,41,-90,48,48,9,43,43,24,19
-87,4,92,41,-90,48,48,9,48,48,29,19
-92,4,97,43,-95,51,48,14,48,48,34,24
-97,4,102,46,-100,53,48,14,48,48,34,24
-97,4,102,46,-100,53,48,14,48,43,34,19
-92,4,97,43,-95,51,48,9,43,39,34,14
-78,9,87,34,-82,48,43,9,43,39,29,19
-58,14,73,21,-65,43,43,9,43,39,29,19
-68,14,82,26,-75,48,39,4,39,39,29,24
-78,14,92,31,-85,53,39,4,39,39,29,29
-78,14,92,31,-85,53,39,4,39,34,29,29
-78,14,92,31,-85,53,29,0,39,29,24,24
-78,14,92,31,-85,53,24,-4,34,29,24,14
-68,14,82,26,-75,48,24,-4,24,24,19,4
-63,9,73,26,-68,41,19,-14,24,19,9,4
-63,9,73,26,-68,41,19,-19,19,19,4,4
-63,4,68,29,-65,36,19,-19,19,19,4,4
-63,4,68,29,-65,36,9,-24,14,14,4,4
-68,4,73,31,-70,39,14,-24,14,14,14,4
-68,4,73,31,-70,39,19,-19,19,19,14,4
-68,0,68,34,-68,34,9,-24,14,14,9,0
-68,0,68,34,-68,34,9,-29,14,9,9,0
-63,0,63,31,-63,31,4,-34,4,4,4,4
-53,0,53,26,-53,26,0,-43,0,0,0,4
-53,0,53,26,-53,26,-4,-43,0,0,0,0
-53,-4,48,29,-51,21,-4,-43,0,0,-4,-4
-63,-4,58,34,-61,26,-9,-48,-4,-4,-4,-9
-73,-4,68,39,-70,31,-9,-48,-4,-4,-4,-14
-63,-4,58,34,-61,26,-9,-53,-4,-4,-4,-14
-53,-4,48,29,-51,21,-9,-58,-4,-9,-4,-14
-53,-4,48,29,-51,21,-9,-63,-4,-9,-4,-19
-53,-9,43,31,-48,17,-14,-68,-9,-14,-14,-19
-53,-9,43,31,-48,17,-14,-68,-9,-14,-19,-19
-53,-4,48,29,-51,21,-9,-68,-9,-9,-19,-14
-53,-4,48,29,-51,21,-9,-68,-14,-9,-19,-14
-53,-4,48,29,-51,21,-9,-68,-19,-9,-19,-14
-63,-9,53,36,-58,21,-14,-68,-19,-14,-19,-19
-73,-14,58,43,-65,21,-14,-68,-14,-19,-19,-24
-73,-14,58,43,-65,21,-9,-73,-14,-19,-19,-24
-63,-14,48,39,-56,17,-9,-78,-9,-14,-19,-24
-58,-14,43,36,-51,14,-9,-73,-14,-14,-14,-24
-58,-19,39,39,-48,9,-4,-73,-19,-4,-19,-19
-53,-9,43,31,-48,17,-4,-63,-14,-4,-19,-14
-43,0,43,21,-43,21,0,-58,-9,0,-9,-14
-39,9,48,14,-43,29,9,-48,-4,4,-4,-9
-24,19,43,2,-34,31,14,-48,4,4,9,-4
-24,29,53,-2,-39,41,19,-43,14,9,9,4
-14,43,58,-14,-36,51,29,-34,19,14,19,14
0,53,53,-26,-26,53,29,-24,24,19,24,14
9,68,58,-39,-24,63,29,-19,29,29,29,19
9,73,63,-41,-26,68,24,-19,29,34,29,19
9,78,68,-43,-29,73,19,-19,29,39,29,19
19,78,58,-48,-19,68,14,-19,29,39,29,19
24,82,58,-53,-17,70,4,-19,29,39,34,24
29,92,63,-61,-17,78,0,-24,29,39,39,34
34,112,78,-73,-21,95,-14,-24,29,48,39,43
48,112,63,-80,-7,87,-39,-39,24,39,34,43
53,112,58,-82,-2,85,-48,-43,19,39,34,39
53,107,53,-80,0,80,-53,-63,9,34,29,34
43,92,48,-68,-2,70,-58,-87,0,19,14,19
24,73,48,-48,-12,61,-58,-87,-9,4,0,4
0,63,63,-31,-31,63,-58,-92,-14,0,-4,0
0,53,53,-26,-26,53,-63,-92,-24,-9,-9,-4
-4,39,43,-17,-24,41,-63,-102,-34,-14,-19,-14
4,34,29,-19,-12,31,-58,-102,-34,-24,-24,-14
9,34,24,-21,-7,29,-58,-102,-34,-29,-24,-14
-19,34,53,-7,-36,43,-53,-97,-24,-24,-24,-14
-58,14,73,21,-65,43,-39,-92,-24,-24,-24,-24
-73,0,73,36,-73,36,-24,-87,-24,-24,-24,-24
-87,-9,78,48,-82,34,-9,-82,-24,-24,-24,-29
-87,-19,68,53,-78,24,-4,-82,-24,-24,-29,-29
-87,-24,63,56,-75,19,-4,-87,-24,-19,-34,-34
-82,-29,53,56,-68,12,-4,-87,-34,-34,-43,-39
-78,-29,48,53,-63,9,-4,-87,-39,-34,-43,-39
-82,-39,43,61,-63,2,-4,-87,-39,-29,-39,-39
-92,-43,48,68,-70,2,-9,-87,-39,-29,-39,-39
-92,-43,48,68,-70,2,-9,-87,-39,-34,-43,-39
-87,-48,39,68,-63,-4,-9,-87,-39,-39,-43,-43
-87,-48,39,68,-63,-4,-9,-92,-39,-43,-48,-48
-87,-48,39,68,-63,-4,-9,-97,-39,-43,-48,-48
-97,-53,43,75,-70,-4,-14,-97,-39,-43,-43,-48
-102,-53,48,78,-75,-2,-19,-97,-39,-43,-43,-48
-102,-53,48,78,-75,-2,-19,-97,-39,-43,-43,-48
-102,-48,53,75,-78,2,-19,-92,-34,-43,-43,-48
-102,-48,53,75,-78,2,-14,-92,-34,-43,-43,-43
-107,-53,53,80,-80,0,-4,-92,-34,-43,-43,-43
-102,-53,48,78,-75,-2,-4,-92,-39,-48,-43,-43
-97,-53,43,75,-70,-4,-4,-92,-39,-48,-43,-43
-97,-58,39,78,-68,-9,-4,-92,-48,-48,-53,-48
-126,-48,78,87,-102,14,4,-92,-39,-34,-48,-43
-195,-19,175,107,-185,78,48,-87,24,19,0,4
-263,34,297,114,-280,165,102,-63,136,126,112,107
-287,131,419,78,-353,275,117,-29,258,268,248,229
-273,244,517,14,-395,380,117,0,370,390,390,356
-248,346,595,-48,-422,470,180,68,483,507,512,483
-204,497,702,-146,-453,600,53,-209,517,570,585,585
-97,707,805,-305,-451,756,-297,-732,453,546,619,663
117,844,727,-480,-305,785,-756,-1229,234,400,541,644
429,912,483,-671,-26,697,-1263,-1620,-185,92,336,507
805,800,-4,-802,405,397,-1703,-1873,-668,-326,-9,219
1234,507,-727,-871,980,-109,-2142,-2034,-1180,-795,-444,-180
1586,-82,-1668,-751,1627,-875,-2308,-1991,-1703,-1356,-1039,-785
1761,-810,-2571,-475,2166,-1690,-2166,-1815,-2152,-1903,-1688,-1478
1756,-1342,-3098,-207,2427,-2220,-1971,-1717,-2454,-2327,-2205,-2034
1664,-1498,-3162,-82,2413,-2330,-1781,-1708,-2444,-2381,-2303,-2161
1507,-1444,-2952,-31,2230,-2198,-1571,-1683,-2235,-2220,-2166,-2044
1283,-1361,-2644,39,1964,-2003,-1322,-1493,-1942,-1942,-1917,-1830
990,-1220,-2210,114,1600,-1715,-1054,-1244,-1620,-1644,-1629,-1566
673,-1029,-1703,178,1188,-1366,-800,-1049,-1307,-1342,-1342,-1288
512,-844,-1356,165,934,-1100,-634,-917,-1063,-1102,-1107,-1073
385,-595,-980,104,683,-788,-448,-683,-736,-766,-780,-761
239,-405,-644,82,441,-524,-287,-439,-468,-502,-512,-497
112,-326,-439,107,275,-383,-190,-322,-366,-385,-395,-390
0,-268,-268,134,134,-268,-78,-229,-248,-273,-287,-287
-102,-204,-102,153,0,-153,9,-136,-131,-151,-175,-180
-146,-141,4,143,-75,-68,43,-48,-48,-58,-87,-92
-141,-97,43,119,-92,-26,73,9,-19,-24,-48,-53
-131,-87,43,109,-87,-21,92,19,-9,-24,-43,-48
-151,-87,63,119,-107,-12,107,19,14,-4,-24,-39
-151,-87,63,119,-107,-12,97,19,19,4,-19,-34
-151,-68,82,109,-117,7,97,24,19,4,-9,-24
-151,-68,82,109,-117,7,102,34,19,4,-9,-19
-165,-68,97,117,-131,14,117,39,34,9,-4,-9
-170,-73,97,122,-134,12,122,43,39,14,0,-4
-170,-73,97,122,-134,12,117,43,39,14,0,-4
-170,-63,107,117,-139,21,117,48,39,14,0,-4
-175,-63,112,119,-143,24,126,48,48,19,4,-9
-170,-63,107,117,-139,21,126,43,48,24,4,-9
-170,-58,112,114,-141,26,126,43,48,24,4,-9
-170,-58,112,114,-141,26,126,43,53,24,9,-9
-185,-58,126,122,-156,34,131,53,58,39,19,4
-200,-53,146,126,-173,46,131,63,58,43,24,14
-209,-53,156,131,-183,51,136,73,68,48,24,14
-209,-58,151,134,-180,46,136,73,73,48,24,14
-204,-53,151,129,-178,48,141,78,73,48,29,14
-195,-43,151,119,-173,53,146,87,78,48,29,9
-180,-43,136,112,-158,46,151,82,73,43,24,14
-170,-43,126,107,-148,41,156,87,73,43,24,14
-190,-39,151,114,-170,56,161,92,82,53,29,19
-200,-39,161,119,-180,61,170,102,87,58,34,24
-195,-39,156,117,-175,58,175,117,92,63,39,29
-195,-39,156,117,-175,58,185,136,102,73,48,34
-195,-39,156,117,-175,58,195,146,102,82,53,39
-195,-43,151,119,-173,53,200,161,112,87,58,43
-200,-34,165,117,-183,65,209,175,122,97,63,43
-209,-29,180,119,-195,75,219,200,136,107,73,53
-209,-29,180,119,-195,75,234,214,146,117,82,63
-209,-24,185,117,-197,80,248,229,161,131,92,68
-200,-24,175,112,-187,75,258,263,161,141,102,78
-185,-19,165,102,-175,73,273,292,170,151,112,92
-200,-14,185,107,-192,85,292,322,190,165,126,102
-209,-9,200,109,-204,95,312,361,204,185,136,107
-204,0,204,102,-204,102,331,395,224,200,151,122
-204,4,209,100,-207,107,356,434,244,214,175,136
-204,14,219,95,-212,117,380,483,268,244,195,161
-200,34,234,82,-217,134,409,536,292,263,219,175
-200,39,239,80,-219,139,434,595,322,297,248,200
-195,53,248,70,-222,151,463,653,351,326,278,224
-190,78,268,56,-229,173,483,702,370,356,307,253
-170,97,268,36,-219,183,502,751,395,385,336,278
-170,126,297,21,-234,212,536,824,444,424,380,317
-161,161,322,0,-241,241,561,888,488,458,409,346
-146,180,326,-17,-236,253,580,941,507,488,439,375
-141,209,351,-34,-246,280,595,985,536,517,468,405
-112,239,351,-63,-231,295,600,1029,561,551,507,434
-97,258,356,-80,-226,307,600,1058,580,575,531,453
-92,283,375,-95,-234,329,600,1078,590,585,546,468
-68,292,361,-112,-214,326,590,1083,590,600,556,478
-43,312,356,-134,-200,334,570,1083,600,605,561,483
-29,326,356,-148,-192,341,546,1068,600,610,561,492
0,336,336,-168,-168,336,517,1034,590,600,561,492
14,341,326,-178,-156,334,483,990,566,585,546,478
24,346,322,-185,-148,334,453,936,541,561,527,468
39,346,307,-192,-134,326,409,878,517,531,497,448
48,346,297,-197,-124,322,375,810,483,502,468,424
58,336,278,-197,-109,307,336,736,444,463,444,395
68,322,253,-195,-92,287,302,668,405,424,409,366
82,302,219,-192,-68,261,263,605,370,385,370,336
87,283,195,-185,-53,239,229,536,336,346,336,302
87,268,180,-178,-46,224,200,463,297,307,297,268
78,244,165,-161,-43,204,161,400,258,268,263,239
73,224,151,-148,-39,187,131,346,229,234,229,214
68,204,136,-136,-34,170,112,302,200,204,204,185
58,180,122,-119,-31,151,92,248,175,175,175,161
58,165,107,-112,-24,136,73,204,136,151,146,136
43,141,97,-92,-26,119,53,165,112,126,112,112
34,117,82,-75,-24,100,39,131,92,102,97,92
34,107,73,-70,-19,90,24,102,78,87,82,82
53,92,39,-73,7,65,9,58,53,58,58,63
63,78,14,-70,24,46,0,34,39,39,43,48
39,68,29,-53,4,48,0,19,29,29,29,39
24,58,34,-41,-4,46,-9,0,19,14,14,24
24,48,24,-36,0,36,-14,-9,9,4,4,9
19,43,24,-31,-2,34,-19,-24,0,-4,-4,0
24,34,9,-29,7,21,-29,-29,-9,-9,-4,0
24,29,4,-26,9,17,-34,-34,-14,-14,-14,-4
9,24,14,-17,-2,19,-34,-43,-19,-24,-24,-14
24,14,-9,-19,17,2,-39,-53,-34,-39,-34,-24
19,9,-9,-14,14,0,-39,-58,-39,-39,-39,-24
24,4,-19,-14,21,-7,-39,-58,-43,-39,-39,-24
24,4,-19,-14,21,-7,-39,-53,-43,-43,-39,-29
19,4,-14,-12,17,-4,-39,-53,-43,-43,-43,-29
9,4,-4,-7,7,0,-39,-53,-43,-43,-43,-29
4,0,-4,-2,4,-2,-34,-53,-43,-43,-43,-29
4,0,-4,-2,4,-2,-34,-58,-48,-48,-48,-34
4,0,-4,-2,4,-2,-34,-58,-48,-48,-48,-39
0,-4,-4,2,2,-4,-34,-58,-48,-48,-48,-39
-4,-14,-9,9,2,-12,-24,-58,-48,-48,-48,-39
-9,-14,-4,12,-2,-9,-24,-58,-39,-48,-48,-39
-14,-14,0,14,-7,-7,-19,-58,-34,-48,-48,-39
-19,-14,4,17,-12,-4,-14,-58,-34,-43,-48,-34
-24,-14,9,19,-17,-2,-14,-58,-34,-43,-48,-34
-29,-14,14,21,-21,0,-9,-53,-34,-43,-48,-34
-39,-14,24,26,-31,4,-4,-48,-29,-43,-43,-34
-48,-24,24,36,-36,0,0,-48,-19,-43,-43,-34
-53,-29,24,41,-39,-2,4,-43,-19,-39,-43,-34
-53,-29,24,41,-39,-2,9,-48,-14,-39,-48,-34
-53,-29,24,41,-39,-2,14,-48,-14,-34,-48,-34
-63,-29,34,46,-48,2,19,-43,-14,-24,-39,-29
-63,-24,39,43,-51,7,24,-34,-14,-24,-39,-29
-68,-19,48,43,-58,14,29,-34,-9,-19,-34,-24
-73,-19,53,46,-63,17,34,-29,4,-9,-29,-14
-73,-19,53,46,-63,17,34,-24,4,-9,-24,-14
-82,-19,63,51,-73,21,34,-24,9,-9,-24,-14
-92,-19,73,56,-82,26,48,-9,19,4,-9,0
-97,-19,78,58,-87,29,48,0,24,4,0,0
-97,-19,78,58,-87,29,53,0,24,9,0,0
-97,-19,78,58,-87,29,58,4,24,14,0,0
-97,-14,82,56,-90,34,58,9,24,14,0,4
-97,-14,82,56,-90,34,58,9,24,14,4,9
-97,-14,82,56,-90,34,58,9,29,19,9,9
-97,-14,82,56,-90,34,58,14,29,19,14,14
-97,-14,82,56,-90,34,53,14,29,19,14,14
-97,-14,82,56,-90,34,48,14,29,19,14,14
-92,-14,78,53,-85,31,48,9,24,19,14,9
-92,-14,78,53,-85,31,43,9,24,19,9,9
-87,-14,73,51,-80,29,43,9,24,19,9,9
-87,-14,73,51,-80,29,39,4,19,19,9,9
-87,-14,73,51,-80,29,39,4,19,19,9,9
-87,-14,73,51,-80,29,39,4,19,14,9,9
-87,-14,73,51,-80,29,29,0,19,9,4,4
-87,-14,73,51,-80,29,24,-4,14,9,4,0
-82,-9,73,46,-78,31,24,0,4,4,0,-4
-82,-9,73,46,-78,31,19,-4,4,0,-4,-4
-82,-9,73,46,-78,31,19,-9,0,0,-4,-4
-82,-9,73,46,-78,31,19,-9,0,0,-4,-4
-73,-9,63,41,-68,26,9,-19,-4,-4,-4,0
-63,-14,48,39,-56,17,9,-29,-9,-9,-4,0
-68,-14,53,41,-61,19,9,-29,-4,-9,-9,-4
-78,-19,58,48,-68,19,0,-34,-4,-14,-9,-9
-78,-19,58,48,-68,19,0,-39,-4,-19,-9,-9
-78,-19,58,48,-68,19,0,-39,-9,-19,-9,-4
-73,-19,53,46,-63,17,0,-43,-9,-19,-14,-4
-73,-19,53,46,-63,17,-4,-43,-9,-19,-19,-9
-73,-24,48,48,-61,12,-4,-43,-9,-19,-24,-14
-73,-24,48,48,-61,12,-9,-48,-14,-24,-24,-14
-63,-24,39,43,-51,7,-9,-53,-19,-29,-24,-19
-53,-24,29,39,-41,2,-9,-58,-24,-34,-24,-24
-53,-24,29,39,-41,2,-9,-58,-24,-39,-24,-24
-53,-24,29,39,-41,2,-9,-63,-24,-39,-24,-29
-53,-29,24,41,-39,-2,-14,-68,-29,-43,-34,-29
-53,-29,24,41,-39,-2,-14,-68,-29,-43,-34,-29
-58,-24,34,41,-46,4,-9,-68,-29,-34,-29,-24
-63,-24,39,43,-51,7,-9,-68,-29,-29,-29,-24
-63,-24,39,43,-51,7,-9,-68,-29,-29,-29,-24
-63,-24,39,43,-51,7,-14,-68,-29,-29,-29,-24
-68,-29,39,48,-53,4,-19,-73,-29,-34,-34,-29
-73,-29,43,51,-58,7,-19,-78,-34,-39,-39,-34
-63,-29,34,46,-48,2,-19,-78,-29,-34,-39,-34
-58,-24,34,41,-46,4,-19,-73,-29,-34,-29,-34
-58,-19,39,39,-48,9,-14,-73,-29,-29,-29,-29
-53,-9,43,31,-48,17,-14,-68,-24,-34,-29,-24
-43,0,43,21,-43,21,-9,-68,-19,-29,-19,-24
-43,4,48,19,-46,26,-4,-58,-14,-24,-19,-19
-24,14,39,4,-31,26,9,-53,-4,-19,-9,-9
-9,29,39,-9,-24,34,19,-48,0,-4,-4,0
0,43,43,-21,-21,43,19,-39,4,0,0,4
9,58,48,-34,-19,53,19,-29,9,9,9,9
9,58,48,-34,-19,53,14,-29,14,9,9,9
9,58,48,-34,-19,53,9,-29,19,9,9,9
19,68,48,-43,-14,58,4,-29,19,9,9,9
24,78,53,-51,-14,65,0,-29,19,9,14,14
29,87,58,-58,-14,73,-9,-34,19,9,24,19
34,102,68,-68,-17,85,-24,-34,19,19,29,24
43,102,58,-73,-7,80,-43,-43,19,14,24,29
43,102,58,-73,-7,80,-48,-43,19,19,24,29
43,102,58,-73,-7,80,-53,-53,9,14,19,29
34,92,58,-63,-12,75,-58,-68,0,0,4,19
19,73,53,-46,-17,63,-63,-82,-14,-14,-9,4
0,63,63,-31,-31,63,-68,-102,-24,-19,-14,0
0,53,53,-26,-26,53,-73,-102,-34,-34,-19,-4
-4,39,43,-17,-24,41,-73,-112,-43,-43,-29,-14
-4,34,39,-14,-21,36,-63,-112,-43,-48,-34,-14
-9,34,43,-12,-26,39,-58,-112,-43,-48,-34,-14
-29,34,63,-2,-46,48,-53,-107,-34,-39,-34,-14
-58,14,73,21,-65,43,-39,-102,-34,-34,-34,-24
-68,0,68,34,-68,34,-34,-97,-34,-34,-34,-24
-78,-9,68,43,-73,29,-29,-92,-34,-34,-34,-29
-78,-24,53,51,-65,14,-24,-92,-34,-39,-39,-29
-78,-34,43,56,-61,4,-24,-97,-34,-39,-43,-34
-78,-39,39,58,-58,0,-24,-97,-43,-53,-53,-43
-78,-39,39,58,-58,0,-24,-97,-48,-53,-53,-48
-82,-48,34,65,-58,-7,-19,-97,-48,-48,-48,-48
-92,-53,39,73,-65,-7,-19,-97,-48,-48,-48,-48
-92,-53,39,73,-65,-7,-19,-97,-48,-53,-53,-48
-87,-58,29,73,-58,-14,-19,-97,-48,-58,-53,-53
-87,-53,34,70,-61,-9,-24,-97,-48,-58,-58,-58
-87,-48,39,68,-63,-4,-29,-97,-48,-53,-58,-58
-92,-53,39,73,-65,-7,-29,-97,-48,-53,-53,-58
-92,-53,39,73,-65,-7,-29,-97,-48,-53,-53,-58
-92,-58,34,75,-63,-12,-29,-102,-48,-53,-53,-58
-92,-58,34,75,-63,-12,-29,-102,-43,-53,-53,-58
-92,-58,34,75,-63,-12,-29,-102,-43,-53,-53,-53
-97,-63,34,80,-65,-14,-24,-102,-43,-53,-53,-53
-97,-63,34,80,-65,-14,-24,-102,-48,-63,-53,-53
-97,-63,34,80,-65,-14,-24,-102,-48,-68,-53,-53
-92,-73,19,82,-56,-26,-24,-102,-58,-68,-58,-58
-117,-68,48,92,-82,-9,-14,-102,-48,-53,-48,-53
-170,-34,136,102,-153,51,24,-102,9,-4,-14,-14
-224,24,248,100,-236,136,73,-82,117,97,82,78
-258,117,375,70,-317,246,87,-34,239,239,219,209
-253,224,478,14,-366,351,87,9,351,361,361,346
-224,307,531,-41,-378,419,185,126,483,492,497,473
-175,439,614,-131,-395,527,92,-102,536,570,585,575
-82,692,775,-305,-429,734,-234,-605,536,605,673,697
117,873,756,-495,-319,814,-668,-1083,380,517,649,722
409,956,546,-683,-68,751,-1171,-1483,-34,219,453,605
766,858,92,-812,336,475,-1605,-1747,-512,-190,117,336
1234,590,-644,-912,939,-26,-2103,-1937,-1068,-688,-331,-78
1625,24,-1600,-824,1612,-788,-2327,-1922,-1634,-1278,-941,-697
1810,-761,-2571,-524,2191,-1666,-2205,-1781,-2122,-1873,-1644,-1439
1815,-1351,-3167,-231,2491,-2259,-2030,-1717,-2464,-2347,-2215,-2044
1693,-1532,-3225,-80,2459,-2379,-1839,-1722,-2483,-2425,-2332,-2186
1507,-1503,-3010,-2,2259,-2257,-1629,-1712,-2303,-2288,-2215,-2083
1317,-1424,-2742,53,2030,-2083,-1395,-1546,-2015,-2020,-1976,-1883
1058,-1288,-2347,114,1703,-1817,-1141,-1322,-1698,-1732,-1698,-1634
702,-1107,-1810,202,1256,-1459,-868,-1107,-1385,-1429,-1410,-1356
502,-932,-1434,214,968,-1183,-683,-956,-1141,-1190,-1176,-1141
390,-658,-1049,134,719,-854,-492,-727,-800,-839,-844,-824
258,-444,-702,92,480,-573,-326,-488,-517,-561,-570,-556
141,-356,-497,107,319,-427,-234,-361,-414,-448,-448,-439
39,-287,-326,124,183,-307,-126,-258,-297,-341,-336,-326
-68,-224,-156,146,43,-190,-19,-161,-161,-200,-209,-209
-117,-161,-43,139,-36,-102,34,-68,-58,-87,-107,-112
-131,-112,19,122,-75,-46,63,-4,-29,-48,-63,-63
-141,-97,43,119,-92,-26,82,9,-19,-43,-53,-48
-151,-97,53,124,-102,-21,97,9,4,-24,-39,-39
-141,-97,43,119,-92,-26,87,9,9,-14,-39,-34
-141,-73,68,107,-104,-2,87,14,9,-9,-29,-24
-141,-68,73,104,-107,2,92,24,9,-4,-29,-19
-151,-68,82,109,-117,7,102,24,24,0,-24,-14
-151,-73,78,112,-114,2,102,24,29,4,-19,-14
-151,-73,78,112,-114,2,97,24,29,0,-19,-14
-151,-63,87,107,-119,12,97,29,29,-4,-19,-14
-161,-63,97,112,-129,17,107,34,34,0,-14,-19
-161,-63,97,112,-129,17,107,34,29,4,-14,-19
-161,-58,102,109,-131,21,107,29,29,0,-14,-19
-161,-58,102,109,-131,21,107,24,34,-4,-9,-19
-161,-58,102,109,-131,21,112,29,43,4,-4,-14
-161,-53,107,107,-134,26,112,34,48,4,-4,-14
-170,-43,126,107,-148,41,117,43,53,14,-4,-14
-170,-39,131,104,-151,46,117,43,53,19,-4,-14
-175,-48,126,112,-151,39,122,48,53,19,0,-9
-175,-53,122,114,-148,34,126,58,58,19,0,-9
-175,-53,122,114,-148,34,131,58,58,19,0,-4
-180,-53,126,117,-153,36,136,68,63,24,4,-4
-195,-53,141,124,-168,43,141,73,73,34,9,4
-200,-58,141,129,-170,41,151,82,78,39,14,14
-195,-58,136,126,-165,39,151,92,82,39,19,19
-195,-58,136,126,-165,39,156,107,92,43,29,24
-175,-53,122,114,-148,34,165,107,87,53,34,24
-156,-53,102,104,-129,24,170,112,92,58,39,24
-170,-43,126,107,-148,41,180,126,97,63,43,24
-190,-39,151,114,-170,56,190,151,107,68,53,34
-190,-39,151,114,-170,56,204,170,117,78,63,43
-190,-34,156,112,-173,61,219,190,131,92,73,48
-185,-29,156,107,-170,63,229,219,136,102,82,58
-175,-19,156,97,-165,68,244,244,151,112,92,73
-190,-14,175,102,-183,80,263,273,170,126,107,87
-200,-9,190,104,-195,90,283,312,185,146,117,97
-190,0,190,95,-190,95,302,351,200,156,126,107
-185,4,190,90,-187,97,326,395,214,165,146,117
-185,9,195,87,-190,102,346,439,239,195,165,141
-180,24,204,78,-192,114,370,488,263,214,190,156
-180,34,214,73,-197,124,395,541,287,248,214,175
-175,53,229,61,-202,141,424,595,312,278,239,195
-170,78,248,46,-209,163,448,653,341,312,268,224
-151,97,248,26,-200,173,473,712,375,346,297,248
-156,122,278,17,-217,200,497,785,414,385,341,287
-151,151,302,0,-226,226,512,849,448,419,370,317
-126,165,292,-19,-209,229,527,897,468,448,400,346
-112,190,302,-39,-207,246,536,936,497,478,429,375
-82,219,302,-68,-192,261,546,985,527,507,468,405
-68,239,307,-85,-187,273,551,1019,551,527,492,424
-63,268,331,-102,-197,300,556,1039,561,536,507,444
-39,283,322,-122,-180,302,551,1044,561,551,517,458
-14,307,322,-146,-168,314,536,1054,566,561,531,463
0,326,326,-163,-163,326,517,1049,561,570,541,473
24,331,307,-178,-141,319,492,1019,556,561,541,478
34,331,297,-183,-131,314,463,980,536,546,527,468
43,336,292,-190,-124,314,439,932,512,527,512,458
58,336,278,-197,-109,307,400,878,488,502,488,439
68,331,263,-200,-97,297,366,810,458,473,453,414
78,317,239,-197,-80,278,326,736,424,434,424,385
82,307,224,-195,-70,265,287,668,385,400,395,361
92,292,200,-192,-53,246,244,605,351,366,361,336
102,278,175,-190,-36,226,209,536,317,326,326,302
107,268,161,-187,-26,214,180,463,278,287,287,268
102,244,141,-173,-19,192,141,395,239,248,253,239
102,224,122,-163,-9,173,112,336,209,214,219,214
102,204,102,-153,0,153,92,287,180,185,195,185
97,180,82,-139,7,131,73,229,156,156,165,161
97,175,78,-136,9,126,48,190,122,131,136,136
82,161,78,-122,2,119,24,156,102,107,102,112
73,136,63,-104,4,100,14,122,82,82,87,92
73,126,53,-100,9,90,4,92,68,68,73,82
73,107,34,-90,19,70,-14,48,43,43,48,63
63,87,24,-75,19,56,-29,24,29,29,34,48
53,78,24,-65,14,51,-29,4,14,19,19,34
53,68,14,-61,19,41,-39,-19,0,4,4,14
48,53,4,-51,21,29,-43,-29,-9,-4,-4,4
39,43,4,-41,17,24,-48,-43,-19,-14,-14,0
39,34,-4,-36,21,14,-53,-48,-29,-24,-14,0
34,29,-4,-31,19,12,-53,-53,-34,-34,-24,-4
24,29,4,-26,9,17,-58,-58,-34,-39,-29,-19
43,24,-19,-34,31,2,-68,-63,-43,-48,-34,-34
34,19,-14,-26,24,2,-68,-68,-43,-48,-39,-34
34,14,-19,-24,26,-2,-68,-68,-43,-48,-39,-34
29,14,-14,-21,21,0,-63,-68,-43,-53,-39,-34
19,14,-4,-17,12,4,-58,-73,-43,-53,-43,-29
14,9,-4,-12,9,2,-58,-73,-43,-53,-43,-29
14,0,-14,-7,14,-7,-53,-73,-43,-53,-43,-29
24,0,-24,-12,24,-12,-58,-78,-53,-63,-53,-34
34,0,-34,-17,34,-17,-63,-78,-58,-68,-58,-39
29,-4,-34,-12,31,-19,-68,-78,-58,-68,-63,-43
24,-14,-39,-4,31,-26,-63,-78,-58,-68,-68,-48
19,-14,-34,-2,26,-24,-63,-78,-53,-68,-68,-48
14,-14,-29,0,21,-21,-58,-78,-53,-68,-68,-48
9,-14,-24,2,17,-19,-48,-73,-53,-63,-63,-43
4,-14,-19,4,12,-17,-43,-68,-53,-63,-58,-43
4,-14,-19,4,12,-17,-39,-68,-53,-58,-58,-43
0,-14,-14,7,7,-14,-34,-68,-48,-53,-53,-43
-9,-19,-9,14,0,-14,-29,-68,-39,-53,-53,-43
-14,-19,-4,17,-4,-12,-24,-63,-39,-48,-53,-43
-19,-19,0,19,-9,-9,-19,-68,-34,-48,-53,-43
-24,-19,4,21,-14,-7,-14,-68,-34,-43,-48,-43
-34,-19,14,26,-24,-2,-9,-63,-29,-34,-34,-29
-34,-14,19,24,-26,2,-4,-53,-24,-34,-29,-19
-39,-4,34,21,-36,14,0,-53,-19,-29,-24,-14
-43,0,43,21,-43,21,4,-48,-4,-19,-19,-4
-43,0,43,21,-43,21,4,-39,-4,-19,-14,-4
-53,0,53,26,-53,26,4,-34,0,-19,-14,-4
-58,-4,53,31,-56,24,19,-24,9,-4,-4,4
-58,-9,48,34,-53,19,19,-19,14,-4,0,0
-58,-9,48,34,-53,19,19,-19,19,0,0,0
-58,-9,48,34,-53,19,19,-14,24,4,0,0
-58,0,58,29,-58,29,19,-9,24,4,0,4
-58,4,63,26,-61,34,19,-9,24,4,4,9
-58,9,68,24,-63,39,19,-9,29,9,9,9
-58,14,73,21,-65,43,19,-4,29,9,14,14
-58,14,73,21,-65,43,19,-4,29,14,14,14
-58,14,73,21,-65,43,19,-4,29,19,14,14
-53,9,63,21,-58,36,14,-9,24,19,14,14
-53,4,58,24,-56,31,4,-9,24,19,9,19
-48,4,53,21,-51,29,4,-9,24,19,9,19
-48,4,53,21,-51,29,0,-14,19,19,9,19
-48,4,53,21,-51,29,4,-14,19,19,9,19
-48,4,53,21,-51,29,9,-14,19,14,9,19
-48,4,53,21,-51,29,0,-19,24,9,4,19
-48,4,53,21,-51,29,-4,-24,24,9,4,19
-39,9,48,14,-43,29,-4,-24,14,4,0,14
-34,9,43,12,-39,26,-9,-34,14,0,-4,14
-34,9,43,12,-39,26,-14,-39,9,0,-4,14
-34,9,43,12,-39,26,-19,-39,9,0,-4,14
-34,14,48,9,-41,31,-29,-43,4,-4,-4,14
-34,14,48,9,-41,31,-29,-48,0,-9,-4,9
-29,9,39,9,-34,24,-29,-48,-4,-9,-14,0
-29,0,29,14,-29,14,-39,-53,-14,-14,-19,-9
-29,0,29,14,-29,14,-39,-58,-14,-19,-19,-9
-29,0,29,14,-29,14,-39,-58,-19,-19,-19,-4
-24,0,24,12,-24,12,-39,-63,-19,-19,-19,-4
-24,0,24,12,-24,12,-43,-63,-19,-19,-19,-9
-29,0,29,14,-29,14,-39,-63,-19,-19,-24,-14
-34,4,39,14,-36,21,-39,-68,-24,-24,-24,-14
-34,4,39,14,-36,21,-39,-68,-24,-24,-24,-14
-34,4,39,14,-36,21,-39,-68,-24,-24,-24,-14
-29,0,29,14,-29,14,-39,-68,-24,-29,-24,-14
-24,-4,19,14,-21,7,-39,-73,-24,-29,-24,-19
-24,-9,14,17,-19,2,-48,-82,-29,-34,-34,-19
-24,-9,14,17,-19,2,-53,-87,-29,-34,-34,-19
-24,0,24,12,-24,12,-48,-87,-29,-29,-29,-9
-24,4,29,9,-26,17,-48,-87,-29,-29,-29,-4
-24,4,29,9,-26,17,-48,-87,-29,-29,-29,-4
-24,4,29,9,-26,17,-53,-87,-29,-29,-29,-4
-24,9,34,7,-29,21,-53,-87,-24,-29,-29,-4
-24,19,43,2,-34,31,-48,-87,-24,-29,-29,-4
0,24,24,-12,-12,24,-43,-87,-19,-24,-29,-4
19,34,14,-26,2,24,-39,-82,-19,-24,-19,-4
9,39,29,-24,-9,34,-34,-78,-14,-9,-14,4
4,48,43,-26,-19,46,-34,-68,-4,-4,-9,14
14,53,39,-34,-12,46,-29,-68,0,0,0,14
14,53,39,-34,-12,46,-24,-58,4,4,0,19
24,58,34,-41,-4,46,-24,-63,14,0,9,24
24,63,39,-43,-7,51,-29,-68,19,0,9,29
29,73,43,-51,-7,58,-39,-73,19,4,9,29
39,87,48,-63,-4,68,-48,-73,19,4,9,34
43,102,58,-73,-7,80,-58,-78,19,9,19,39
53,122,68,-87,-7,95,-78,-87,19,9,19,48
58,126,68,-92,-4,97,-87,-92,19,9,19,48
68,131,63,-100,2,97,-102,-102,14,9,14,48
68,122,53,-95,7,87,-107,-107,4,4,14,43
68,117,48,-92,9,82,-117,-117,0,4,14,39
63,102,39,-82,12,70,-117,-131,-14,-9,0,24
58,87,29,-73,14,58,-117,-146,-29,-29,-9,9
48,73,24,-61,12,48,-117,-146,-34,-34,-19,0
39,58,19,-48,9,39,-117,-146,-39,-39,-29,-9
24,58,34,-41,-4,46,-112,-146,-39,-39,-29,-9
9,58,48,-34,-19,53,-107,-146,-39,-39,-29,-9
0,43,43,-21,-21,43,-97,-141,-39,-39,-29,-9
-9,29,39,-9,-24,34,-87,-136,-39,-39,-29,-9
-24,19,43,2,-34,31,-82,-136,-39,-43,-39,-19
-39,9,48,14,-43,29,-78,-136,-39,-48,-48,-29
-48,-9,39,29,-43,14,-78,-126,-39,-48,-48,-29
-58,-29,29,43,-43,0,-78,-117,-39,-48,-48,-29
-43,-29,14,36,-29,-7,-78,-126,-48,-53,-53,-34
-29,-29,0,29,-14,-14,-78,-136,-58,-58,-58,-39
-29,-24,4,26,-17,-9,-78,-136,-58,-58,-58,-39
-29,-19,9,24,-19,-4,-78,-136,-58,-58,-58,-39
-29,-19,9,24,-19,-4,-78,-136,-58,-58,-63,-39
-29,-19,9,24,-19,-4,-78,-136,-58,-58,-68,-39
-29,-29,0,29,-14,-14,-78,-136,-58,-58,-68,-39
-29,-39,-9,34,-9,-24,-78,-136,-58,-58,-68,-39
-39,-39,0,39,-19,-19,-78,-136,-58,-58,-63,-34
-48,-39,9,43,-29,-14,-78,-136,-58,-58,-58,-29
-53,-34,19,43,-36,-7,-78,-136,-58,-58,-58,-29
-58,-29,29,43,-43,0,-78,-136,-58,-58,-58,-29
-58,-29,29,43,-43,0,-78,-136,-58,-58,-58,-29
