I, II, III, aVR, aVL, aVF, V1, V2, V3, V4, V5, V6
-34,-19,14,26,-24,-2,-4,-43,-112,-117,-92,-63
-34,-19,14,26,-24,-2,-4,-43,-112,-117,-87,-63
-34,-19,14,26,-24,-2,-9,-48,-112,-112,-87,-63
-34,-19,14,26,-24,-2,-9,-48,-112,-112,-87,-58
-34,-19,14,26,-24,-2,-9,-48,-112,-112,-87,-68
-29,-24,4,26,-17,-9,-9,-48,-107,-112,-87,-68
-29,-24,4,26,-17,-9,-9,-48,-107,-112,-87,-68
-29,-29,0,29,-14,-14,-9,-48,-107,-112,-87,-68
-29,-24,4,26,-17,-9,-9,-39,-97,-107,-78,-63
-29,-19,9,24,-19,-4,-9,-39,-97,-102,-73,-58
-29,-9,19,19,-24,4,-9,-39,-97,-92,-68,-53
-24,-4,19,14,-21,7,-9,-39,-97,-87,-63,-43
-19,0,19,9,-19,9,-4,-34,-82,-107,-82,-63
-24,-9,14,17,-19,2,-4,-24,-82,-97,-87,-63
-29,-9,19,19,-24,4,-4,-19,-78,-102,-87,-63
-43,-14,29,29,-36,7,-4,0,-63,-87,-73,-58
-29,0,29,14,-29,14,-4,24,-34,-58,-48,-48
-9,9,19,0,-14,14,-4,34,-19,-53,-48,-48
-9,-14,-4,12,-2,-9,0,0,-29,-68,-58,-48
-34,-29,4,31,-19,-12,4,-43,-34,-68,-58,-53
-48,-34,14,41,-31,-9,14,-92,-34,-48,-48,-53
-48,-24,24,36,-36,0,24,-175,-24,-39,-53,-53
-53,-24,29,39,-41,2,14,-258,-34,-29,-43,-48
-53,-39,14,46,-34,-12,-9,-351,-78,-34,-43,-48
-58,-39,19,48,-39,-9,-78,-473,-126,-39,-29,-34
-9,-19,-9,14,0,-14,-185,-570,-146,29,53,34
53,19,-34,-36,43,-7,-283,-653,-117,136,185,141
122,53,-68,-87,95,-7,-366,-712,-107,234,307,244
185,78,-107,-131,146,-14,-458,-785,-136,287,395,317
253,97,-156,-175,204,-29,-610,-932,-258,283,434,375
312,136,-175,-224,244,-19,-844,-1205,-522,185,448,419
380,209,-170,-295,275,19,-1127,-1537,-844,82,468,497
468,297,-170,-383,319,63,-1424,-1834,-1063,43,546,605
546,409,-136,-478,341,136,-1693,-2044,-1180,78,663,727
614,517,-97,-566,356,209,-1922,-2235,-1332,78,756,854
663,624,-39,-644,351,292,-2142,-2425,-1517,34,819,946
707,727,19,-717,344,373,-2366,-2635,-1668,4,888,1054
751,829,78,-790,336,453,-2610,-2815,-1742,29,980,1171
780,902,122,-841,329,512,-2786,-2957,-1776,39,1034,1234
780,936,156,-858,312,546,-2849,-3030,-1839,-48,990,1234
819,956,136,-888,341,546,-2849,-3040,-1898,-151,912,1205
849,966,117,-907,366,541,-2820,-3015,-1966,-287,800,1156
839,907,68,-873,385,488,-2771,-3015,-2103,-556,536,995
810,741,-68,-775,439,336,-2644,-2962,-2225,-858,204,756
819,458,-361,-639,590,48,-2425,-2742,-2293,-1166,-136,488
805,209,-595,-507,700,-192,-2161,-2503,-2371,-1454,-444,244
722,48,-673,-385,697,-312,-1956,-2381,-2440,-1673,-692,34
605,-73,-678,-265,641,-375,-1751,-2274,-2415,-1795,-897,-151
561,-175,-736,-192,649,-456,-1546,-2049,-2308,-1820,-1010,-283
541,-214,-756,-163,649,-485,-1346,-1800,-2098,-1722,-1010,-341
478,-214,-692,-131,585,-453,-1180,-1566,-1834,-1517,-912,-331
429,-180,-610,-124,519,-395,-1019,-1342,-1546,-1288,-780,-287
400,-131,-531,-134,466,-331,-873,-1122,-1302,-1073,-653,-224
356,-73,-429,-141,392,-251,-727,-936,-1063,-888,-536,-161
302,-34,-336,-134,319,-185,-590,-756,-849,-707,-419,-117
234,-4,-239,-114,236,-122,-444,-575,-644,-541,-317,-87
175,9,-165,-92,170,-78,-326,-429,-488,-414,-244,-63
126,24,-102,-75,114,-39,-253,-317,-346,-312,-200,-63
73,14,-58,-43,65,-21,-165,-209,-248,-239,-156,-68
19,0,-19,-9,19,-9,-73,-112,-165,-180,-126,-78
-19,-9,9,14,-14,0,-19,-29,-87,-107,-87,-73
-14,4,19,4,-17,12,19,14,-39,-63,-58,-43
-9,0,9,4,-9,4,34,39,-9,-43,-39,-39
-39,-19,19,29,-29,0,53,58,0,-39,-39,-48
-43,-34,9,39,-26,-12,63,73,9,-39,-53,-53
-43,-34,9,39,-26,-12,73,78,9,-43,-58,-63
-43,-39,4,41,-24,-17,73,82,14,-43,-63,-73
-48,-39,9,43,-29,-14,82,87,19,-48,-73,-78
-48,-39,9,43,-29,-14,92,92,19,-39,-63,-78
-53,-39,14,46,-34,-12,102,97,19,-39,-63,-78
-58,-39,19,48,-39,-9,102,102,24,-34,-58,-78
-58,-43,14,51,-36,-14,102,102,24,-34,-58,-78
-63,-43,19,53,-41,-12,112,112,29,-34,-53,-73
-63,-43,19,53,-41,-12,117,117,39,-34,-53,-73
-73,-43,29,58,-51,-7,117,122,39,-34,-53,-78
-73,-43,29,58,-51,-7,117,122,39,-34,-58,-78
-63,-34,29,48,-46,-2,117,122,48,-34,-68,-87
-68,-34,34,51,-51,0,122,122,53,-29,-68,-87
-68,-39,29,53,-48,-4,122,122,53,-29,-63,-87
-68,-39,29,53,-48,-4,126,126,53,-24,-63,-82
-68,-39,29,53,-48,-4,126,126,48,-24,-78,-82
-68,-39,29,53,-48,-4,126,131,48,-29,-78,-82
-78,-48,29,63,-53,-9,126,131,48,-29,-78,-92
-78,-48,29,63,-53,-9,126,131,53,-29,-78,-92
-63,-34,29,48,-46,-2,131,141,53,-19,-73,-82
-63,-34,29,48,-46,-2,131,141,53,-14,-68,-82
-58,-29,29,43,-43,0,131,146,58,-14,-63,-82
-58,-24,34,41,-46,4,136,146,58,-14,-58,-82
-68,-29,39,48,-53,4,136,136,58,-24,-58,-82
-68,-34,34,51,-51,0,136,141,58,-24,-58,-82
-68,-39,29,53,-48,-4,136,141,58,-19,-58,-82
-68,-43,24,56,-46,-9,141,141,63,-19,-58,-87
-73,-48,24,61,-48,-12,141,151,63,-19,-58,-87
-73,-48,24,61,-48,-12,141,151,63,-24,-63,-92
-73,-48,24,61,-48,-12,146,151,63,-24,-63,-92
-73,-48,24,61,-48,-12,146,151,63,-19,-63,-92
-82,-48,34,65,-58,-7,141,146,53,-29,-73,-102
-78,-48,29,63,-53,-9,141,146,58,-29,-73,-102
-78,-48,29,63,-53,-9,146,146,58,-29,-73,-102
-82,-48,34,65,-58,-7,146,146,58,-29,-73,-102
-73,-48,24,61,-48,-12,146,151,68,-24,-63,-92
-73,-48,24,61,-48,-12,146,156,68,-19,-68,-92
-78,-53,24,65,-51,-14,146,156,68,-14,-68,-92
-78,-53,24,65,-51,-14,151,156,73,-9,-68,-92
-68,-53,14,61,-41,-19,151,156,73,-14,-78,-92
-68,-53,14,61,-41,-19,151,156,73,-19,-78,-97
-68,-53,14,61,-41,-19,151,156,73,-24,-82,-102
-68,-48,19,58,-43,-14,151,156,73,-29,-82,-102
-68,-39,29,53,-48,-4,141,156,73,-19,-82,-112
-73,-39,34,56,-53,-2,141,156,73,-19,-82,-112
-73,-43,29,58,-51,-7,146,161,73,-19,-82,-117
-73,-43,29,58,-51,-7,146,161,73,-19,-82,-117
-78,-53,24,65,-51,-14,156,156,87,-29,-87,-117
-82,-53,29,68,-56,-12,156,156,87,-29,-92,-117
-87,-48,39,68,-63,-4,156,165,92,-24,-92,-117
-92,-48,43,70,-68,-2,161,165,92,-24,-97,-122
-82,-53,29,68,-56,-12,161,175,97,-19,-102,-117
-82,-53,29,68,-56,-12,165,175,97,-19,-97,-117
-82,-53,29,68,-56,-12,165,185,97,-14,-92,-117
-82,-58,24,70,-53,-17,170,185,102,-14,-87,-117
-102,-63,39,82,-70,-12,170,185,92,-24,-87,-117
-102,-68,34,85,-68,-17,170,185,92,-19,-87,-117
-97,-73,24,85,-61,-24,170,190,102,-19,-87,-117
-92,-78,14,85,-53,-31,180,190,102,-19,-87,-117
-92,-68,24,80,-58,-21,180,190,102,-19,-87,-117
-92,-63,29,78,-61,-17,180,195,112,-14,-82,-117
-92,-63,29,78,-61,-17,185,195,112,-14,-82,-117
-92,-68,24,80,-58,-21,190,195,112,-14,-82,-117
-102,-68,34,85,-68,-17,180,204,102,-4,-92,-131
-102,-68,34,85,-68,-17,180,209,112,-4,-92,-131
-102,-68,34,85,-68,-17,185,214,117,0,-92,-131
-102,-68,34,85,-68,-17,185,219,117,0,-92,-131
-97,-63,34,80,-65,-14,195,219,126,4,-82,-131
-92,-58,34,75,-63,-12,200,224,136,4,-87,-136
-87,-53,34,70,-61,-9,200,229,141,4,-87,-136
-82,-43,39,63,-61,-2,204,234,146,9,-87,-136
-87,-48,39,68,-63,-4,209,244,146,24,-87,-126
-92,-53,39,73,-65,-7,214,248,156,29,-82,-126
-97,-58,39,78,-68,-9,219,253,161,29,-82,-126
-107,-63,43,85,-75,-9,219,258,165,34,-82,-131
-97,-63,34,80,-65,-14,229,273,180,24,-82,-131
-102,-63,39,82,-70,-12,229,283,185,29,-82,-131
-102,-68,34,85,-68,-17,234,287,190,34,-82,-131
-102,-68,34,85,-68,-17,239,292,195,39,-78,-126
-87,-53,34,70,-61,-9,244,307,195,34,-87,-126
-87,-53,34,70,-61,-9,253,312,200,39,-78,-126
-87,-48,39,68,-63,-4,253,312,204,43,-78,-126
-92,-48,43,70,-68,-2,253,322,209,48,-78,-122
-97,-48,48,73,-73,0,253,317,209,53,-68,-131
-97,-48,48,73,-73,0,253,322,219,58,-68,-131
-97,-43,53,70,-75,4,258,331,234,68,-68,-131
-97,-39,58,68,-78,9,263,331,244,73,-63,-131
-97,-39,58,68,-78,9,273,341,234,78,-63,-131
-102,-34,68,68,-85,17,278,351,248,82,-63,-131
-102,-34,68,68,-85,17,287,366,258,87,-63,-131
-97,-34,63,65,-80,14,292,370,268,92,-63,-131
-107,-43,63,75,-85,9,287,380,278,112,-48,-122
-117,-43,73,80,-95,14,292,390,287,122,-39,-117
-117,-43,73,80,-95,14,297,400,292,131,-34,-117
-117,-43,73,80,-95,14,302,409,297,136,-19,-112
-117,-29,87,73,-102,29,317,429,326,141,-29,-122
-122,-24,97,73,-109,36,326,439,336,151,-29,-117
-122,-19,102,70,-112,41,326,448,346,156,-29,-112
-122,-19,102,70,-112,41,326,458,361,170,-24,-107
-131,-24,107,78,-119,41,326,463,370,170,-24,-117
-131,-14,117,73,-124,51,341,483,385,180,-14,-107
-131,-9,122,70,-126,56,346,492,395,185,-9,-107
-131,-4,126,68,-129,61,351,502,409,195,-9,-112
-126,9,136,58,-131,73,366,517,434,209,4,-102
-122,9,131,56,-126,70,375,527,444,224,14,-102
-126,9,136,58,-131,73,380,541,458,234,24,-97
-122,9,131,56,-126,70,385,551,473,258,39,-92
-131,19,151,56,-141,85,385,561,483,273,39,-87
-131,19,151,56,-141,85,390,575,497,278,39,-87
-126,29,156,48,-141,92,400,590,517,292,48,-82
-126,34,161,46,-143,97,405,605,531,297,58,-73
-117,48,165,34,-141,107,409,610,546,317,73,-78
-122,48,170,36,-146,109,414,619,566,322,73,-73
-122,58,180,31,-151,119,419,629,585,341,87,-68
-131,68,200,31,-165,134,429,644,610,366,102,-63
-131,58,190,36,-161,124,429,653,614,370,102,-63
-131,68,200,31,-165,134,434,663,629,385,107,-58
-131,73,204,29,-168,139,439,673,649,400,117,-53
-136,78,214,29,-175,146,444,683,668,414,126,-43
-146,73,219,36,-183,146,448,692,678,439,146,-29
-146,78,224,34,-185,151,448,702,697,453,156,-24
-146,82,229,31,-187,156,453,712,707,468,170,-14
-146,92,239,26,-192,165,453,722,722,483,185,-9
-136,102,239,17,-187,170,448,722,736,497,204,14
-136,107,244,14,-190,175,448,727,751,512,209,24
-131,122,253,4,-192,187,448,736,766,531,219,34
-131,122,253,4,-192,187,448,736,771,541,239,39
-141,126,268,7,-204,197,458,736,785,546,234,29
-141,141,283,0,-212,212,458,741,810,556,244,34
-141,151,292,-4,-217,222,458,741,824,566,248,39
-141,156,297,-7,-219,226,453,746,849,585,258,43
-126,180,307,-26,-217,244,453,746,858,614,283,63
-126,180,307,-26,-217,244,448,746,868,629,297,78
-126,185,312,-29,-219,248,448,736,873,634,307,82
-126,190,317,-31,-222,253,439,732,873,644,317,92
-126,200,326,-36,-226,263,414,722,878,663,341,107
-126,204,331,-39,-229,268,414,712,883,673,351,117
-117,209,326,-46,-222,268,405,702,888,678,356,122
-107,224,331,-58,-219,278,395,697,888,688,366,136
-107,229,336,-61,-222,283,390,692,897,692,395,156
-102,239,341,-68,-222,290,385,673,888,697,400,170
-97,239,336,-70,-217,287,370,658,883,697,400,180
-97,248,346,-75,-222,297,361,649,873,692,409,195
-97,253,351,-78,-224,302,341,614,854,688,419,195
-87,258,346,-85,-217,302,336,600,844,683,424,209
-82,268,351,-92,-217,309,317,575,824,678,424,219
-78,268,346,-95,-212,307,302,556,805,663,424,219
-87,273,361,-92,-224,317,287,536,780,649,424,224
-87,273,361,-92,-224,317,273,512,761,639,419,229
-78,273,351,-97,-214,312,258,492,741,624,419,229
-73,268,341,-97,-207,305,244,468,707,610,409,234
-58,268,326,-104,-192,297,229,444,683,590,405,234
-53,268,322,-107,-187,295,214,419,658,566,405,234
-53,268,322,-107,-187,295,200,400,634,551,390,239
-53,253,307,-100,-180,280,185,375,600,531,380,239
-43,253,297,-104,-170,275,165,351,570,507,375,239
-39,248,287,-104,-163,268,156,326,541,488,361,239
-29,244,273,-107,-151,258,136,302,512,463,351,234
-29,239,268,-104,-148,253,122,278,478,434,341,224
-24,234,258,-104,-141,246,126,263,444,405,326,229
-19,229,248,-104,-134,239,107,248,414,390,312,224
-14,224,239,-104,-126,231,102,229,385,366,302,214
-9,209,219,-100,-114,214,92,209,356,341,283,200
-9,190,200,-90,-104,195,73,180,326,307,263,204
-14,185,200,-85,-107,192,63,161,287,287,248,195
-14,175,190,-80,-102,183,48,146,263,263,239,185
-9,170,180,-80,-95,175,43,126,239,239,219,175
-4,180,185,-87,-95,183,34,117,219,219,195,156
-4,170,175,-82,-90,173,24,102,195,190,180,151
0,156,156,-78,-78,156,19,87,170,170,165,146
0,151,151,-75,-75,151,19,78,151,136,151,136
-4,136,141,-65,-73,139,9,68,131,122,136,117
-4,126,131,-61,-68,129,4,58,112,107,122,107
4,112,107,-58,-51,109,0,39,97,87,107,97
4,107,102,-56,-48,104,-4,34,78,73,92,87
19,122,102,-70,-41,112,0,39,73,63,87,78
24,117,92,-70,-34,104,-4,29,58,53,68,68
29,112,82,-70,-26,97,-9,19,48,39,58,63
34,102,68,-68,-17,85,-14,14,34,29,53,53
19,97,78,-58,-29,87,-14,0,14,14,43,43
19,92,73,-56,-26,82,-19,-4,4,4,34,43
19,92,73,-56,-26,82,-24,-9,-4,-4,24,39
24,87,63,-56,-19,75,-24,-14,-14,-4,24,34
14,78,63,-46,-24,70,-24,-14,-29,-14,14,29
19,78,58,-48,-19,68,-19,-14,-29,-19,4,24
24,78,53,-51,-14,65,-19,-14,-34,-29,-4,14
24,68,43,-46,-9,56,-24,-19,-39,-53,-14,4
9,53,43,-31,-17,48,-34,-34,-43,-53,-9,9
4,53,48,-29,-21,51,-34,-34,-48,-58,-9,9
4,48,43,-26,-19,46,-34,-34,-48,-63,-14,9
9,48,39,-29,-14,43,-34,-34,-48,-63,-14,9
9,48,39,-29,-14,43,-34,-34,-58,-63,-9,4
9,48,39,-29,-14,43,-34,-34,-58,-63,-9,4
9,48,39,-29,-14,43,-34,-34,-63,-63,-9,4
4,39,34,-21,-14,36,-34,-34,-68,-68,-19,0
14,48,34,-31,-9,41,-24,-24,-58,-58,-19,0
9,48,39,-29,-14,43,-24,-29,-58,-58,-19,0
9,43,34,-26,-12,39,-24,-29,-58,-58,-19,0
9,43,34,-26,-12,39,-24,-29,-53,-58,-24,0
4,39,34,-21,-14,36,-34,-29,-48,-63,-24,0
4,34,29,-19,-12,31,-34,-29,-48,-63,-19,-4
0,29,29,-14,-14,29,-29,-24,-48,-63,-19,-4
-4,24,29,-9,-17,26,-29,-24,-48,-63,-19,-4
-4,34,39,-14,-21,36,-29,-24,-39,-73,-34,-14
0,29,29,-14,-14,29,-29,-19,-39,-63,-34,-14
4,29,24,-17,-9,26,-29,-14,-29,-53,-29,-14
9,29,19,-19,-4,24,-29,-14,-24,-53,-29,-14
9,39,29,-24,-9,34,-29,-14,-29,-53,-14,-4
14,43,29,-29,-7,36,-24,-9,-24,-48,-9,-4
14,43,29,-29,-7,36,-24,-9,-24,-43,-4,0
14,48,34,-31,-9,41,-24,-9,-24,-39,-4,0
4,39,34,-21,-14,36,-24,-4,-19,-43,-4,9
0,34,34,-17,-17,34,-24,-4,-19,-43,-4,9
0,34,34,-17,-17,34,-24,-4,-9,-43,-4,14
0,34,34,-17,-17,34,-24,0,-9,-39,0,19
9,39,29,-24,-9,34,-14,4,4,-29,4,9
14,39,24,-26,-4,31,-14,4,4,-19,14,9
14,48,34,-31,-9,41,-14,9,9,-19,14,9
14,39,24,-26,-4,31,-14,9,14,-14,9,9
19,39,19,-29,0,29,-14,14,19,-14,9,14
19,39,19,-29,0,29,-9,14,19,-9,9,14
14,43,29,-29,-7,36,-9,19,29,-9,9,14
14,43,29,-29,-7,36,-9,19,29,-9,9,14
9,43,34,-26,-12,39,-14,19,24,-9,9,4
4,39,34,-21,-14,36,-14,19,24,-4,14,4
0,39,39,-19,-19,39,-14,19,24,0,14,4
-4,39,43,-17,-24,41,-14,19,29,0,24,4
0,53,53,-26,-26,53,0,24,39,0,14,14
4,53,48,-29,-21,51,4,24,39,4,14,14
0,53,53,-26,-26,53,4,24,34,4,14,9
4,43,39,-24,-17,41,4,24,34,0,14,9
0,39,39,-19,-19,39,-4,24,24,-9,19,9
-4,39,43,-17,-24,41,-14,24,19,0,19,9
-9,39,48,-14,-29,43,-14,24,19,0,19,9
-14,43,58,-14,-36,51,-14,24,24,9,19,4
-9,43,53,-17,-31,48,-4,24,34,9,29,4
-4,43,48,-19,-26,46,-4,24,34,9,29,9
0,43,43,-21,-21,43,0,24,34,9,29,14
4,43,39,-24,-17,41,0,24,34,9,29,19
-9,53,63,-21,-36,58,-4,24,29,0,24,9
-9,43,53,-17,-31,48,-4,24,29,0,19,9
-9,53,63,-21,-36,58,-4,24,24,0,14,9
-9,53,63,-21,-36,58,-4,24,24,-4,4,4
0,43,43,-21,-21,43,-4,29,29,-9,9,4
0,43,43,-21,-21,43,-4,29,29,-9,4,4
0,34,34,-17,-17,34,-4,29,24,-14,4,4
-9,34,43,-12,-26,39,-4,29,24,-14,4,4
-4,24,29,-9,-17,26,-4,24,14,-4,0,4
-9,24,34,-7,-21,29,-4,24,14,-4,4,4
-14,24,39,-4,-26,31,-4,19,14,-4,4,4
-19,24,43,-2,-31,34,-4,19,9,-14,4,0
-24,29,53,-2,-39,41,4,29,14,-24,0,-9
-19,34,53,-7,-36,43,4,24,14,-24,-4,-9
-14,39,53,-12,-34,46,4,24,14,-24,-9,-9
-9,43,53,-17,-31,48,4,29,14,-29,-19,-9
-19,43,63,-12,-41,53,0,19,9,-34,-9,-9
-19,43,63,-12,-41,53,0,14,4,-34,-9,-9
-19,43,63,-12,-41,53,-4,14,4,-29,-9,-9
-19,43,63,-12,-41,53,-4,14,4,-29,-9,-9
-9,39,48,-14,-29,43,-4,9,4,-29,-9,-9
-9,39,48,-14,-29,43,-4,9,4,-39,-9,-14
-4,39,43,-17,-24,41,-4,9,4,-39,-9,-14
-4,39,43,-17,-24,41,-4,9,4,-39,-9,-9
-4,29,34,-12,-19,31,4,9,-4,-43,-19,-19
-14,29,43,-7,-29,36,4,4,-9,-48,-24,-19
-14,29,43,-7,-29,36,4,4,-14,-48,-29,-19
-9,29,39,-9,-24,34,4,4,-14,-48,-29,-19
-9,19,29,-4,-19,24,4,0,-24,-48,-29,-24
-14,19,34,-2,-24,26,4,0,-24,-53,-34,-29
-14,19,34,-2,-24,26,4,0,-29,-53,-34,-29
-14,19,34,-2,-24,26,4,0,-29,-53,-39,-24
-24,9,34,7,-29,21,-4,0,-39,-63,-39,-24
-24,4,29,9,-26,17,-4,-4,-39,-68,-39,-29
-29,4,34,12,-31,19,-4,-4,-39,-68,-48,-29
-29,4,34,12,-31,19,-4,-4,-43,-68,-48,-34
-19,14,34,2,-26,24,4,-4,-34,-73,-53,-29
-19,19,39,0,-29,29,4,-4,-43,-73,-48,-34
-19,24,43,-2,-31,34,4,-4,-43,-68,-43,-34
-19,29,48,-4,-34,39,4,-4,-39,-63,-39,-29
-14,34,48,-9,-31,41,-4,-4,-39,-73,-48,-39
-14,34,48,-9,-31,41,-4,-14,-43,-73,-48,-39
-14,34,48,-9,-31,41,-4,-14,-48,-73,-48,-39
-14,34,48,-9,-31,41,-9,-19,-48,-73,-48,-39
-14,19,34,-2,-24,26,-4,-19,-58,-73,-48,-39
-14,19,34,-2,-24,26,-4,-14,-58,-73,-48,-39
-14,24,39,-4,-26,31,0,-14,-58,-82,-53,-39
-14,24,39,-4,-26,31,0,-14,-58,-82,-53,-39
-24,19,43,2,-34,31,-9,-14,-58,-82,-53,-29
-24,19,43,2,-34,31,-4,-19,-63,-82,-53,-34
-24,19,43,2,-34,31,-4,-19,-63,-82,-53,-34
-24,19,43,2,-34,31,-9,-19,-58,-82,-53,-34
-24,9,34,7,-29,21,-9,-14,-58,-82,-48,-43
-24,9,34,7,-29,21,-9,-14,-68,-87,-48,-43
-24,9,34,7,-29,21,-9,-14,-68,-87,-58,-43
-24,9,34,7,-29,21,-9,-14,-68,-87,-58,-43
-19,19,39,0,-29,29,-9,-24,-68,-97,-58,-43
-19,9,29,4,-24,19,-9,-24,-73,-97,-63,-43
-19,9,29,4,-24,19,-9,-29,-73,-102,-63,-43
-19,9,29,4,-24,19,-9,-29,-82,-102,-63,-48
-19,9,29,4,-24,19,-9,-29,-73,-102,-73,-48
-19,9,29,4,-24,19,-9,-29,-73,-102,-73,-48
-19,9,29,4,-24,19,-14,-29,-73,-102,-73,-48
-19,9,29,4,-24,19,-14,-29,-73,-102,-73,-48
-19,9,29,4,-24,19,-14,-19,-73,-97,-68,-39
-19,9,29,4,-24,19,-14,-19,-73,-97,-68,-34
-24,9,34,7,-29,21,-14,-19,-73,-97,-68,-34
-24,9,34,7,-29,21,-14,-19,-73,-97,-68,-34
-29,0,29,14,-29,14,-4,-29,-73,-107,-68,-53
-29,4,34,12,-31,19,-9,-34,-73,-107,-73,-53
-29,4,34,12,-31,19,-9,-39,-78,-117,-78,-58
-29,4,34,12,-31,19,-9,-39,-78,-117,-87,-58
-24,4,29,9,-26,17,-19,-39,-87,-112,-82,-58
-24,4,29,9,-26,17,-19,-39,-87,-112,-82,-58
-19,4,24,7,-21,14,-19,-34,-87,-112,-82,-53
-19,9,29,4,-24,19,-14,-34,-87,-112,-82,-53
-24,9,34,7,-29,21,-14,-34,-87,-112,-87,-53
-34,4,39,14,-36,21,-14,-34,-87,-117,-82,-58
-39,-9,29,24,-34,9,-19,-39,-87,-117,-82,-58
-39,-14,24,26,-31,4,-19,-39,-92,-117,-92,-58
-24,4,29,9,-26,17,-19,-39,-92,-107,-82,-48
-19,9,29,4,-24,19,-14,-34,-87,-107,-82,-48
-14,19,34,-2,-24,26,-14,-34,-87,-112,-82,-48
-9,24,34,-7,-21,29,-14,-39,-92,-112,-82,-48
-19,14,34,2,-26,24,-14,-39,-82,-117,-73,-48
-14,14,29,0,-21,21,-14,-39,-82,-117,-73,-48
-14,14,29,0,-21,21,-9,-39,-82,-107,-73,-48
-19,14,34,2,-26,24,-9,-39,-82,-102,-73,-48
-34,4,39,14,-36,21,-9,-39,-92,-112,-78,-58
-34,9,43,12,-39,26,-14,-39,-92,-117,-82,-58
-24,19,43,2,-34,31,-14,-39,-92,-117,-87,-58
-24,4,29,9,-26,17,-9,-39,-92,-117,-92,-58
-29,4,34,12,-31,19,-9,-43,-92,-122,-92,-58
-34,-4,29,19,-31,12,-19,-43,-102,-122,-92,-58
-29,0,29,14,-29,14,-19,-48,-97,-117,-87,-58
-19,9,29,4,-24,19,-19,-39,-97,-117,-87,-58
-19,9,29,4,-24,19,-19,-39,-97,-117,-87,-58
-19,9,29,4,-24,19,-19,-39,-97,-117,-87,-58
-19,9,29,4,-24,19,-19,-39,-97,-117,-87,-58
-29,9,39,9,-34,24,-14,-29,-87,-117,-87,-58
-29,9,39,9,-34,24,-9,-29,-87,-117,-87,-58
-29,9,39,9,-34,24,-4,-29,-87,-117,-87,-58
-29,9,39,9,-34,24,0,-29,-87,-117,-87,-58
-19,24,43,-2,-31,34,4,-19,-78,-112,-82,-53
-19,29,48,-4,-34,39,9,-19,-78,-107,-78,-48
-19,34,53,-7,-36,43,14,-19,-78,-102,-73,-43
-19,39,58,-9,-39,48,19,-19,-78,-97,-68,-39
-19,43,63,-12,-41,53,24,-9,-68,-87,-58,-39
-19,48,68,-14,-43,58,29,-9,-68,-87,-58,-39
-19,53,73,-17,-46,63,34,-9,-68,-87,-58,-39
-19,58,78,-19,-48,68,39,-9,-68,-87,-58,-39
-29,58,87,-14,-58,73,43,0,-58,-78,-58,-29
-29,58,87,-14,-58,73,48,0,-58,-78,-58,-29
-29,58,87,-14,-58,73,53,0,-58,-78,-58,-29
-29,58,87,-14,-58,73,58,0,-58,-78,-58,-29
-24,63,87,-19,-56,75,58,9,-53,-68,-53,-19
-19,68,87,-24,-53,78,58,9,-48,-68,-48,-19
-14,73,87,-29,-51,80,58,9,-43,-68,-43,-19
-9,78,87,-34,-48,82,58,9,-39,-68,-39,-19
0,87,87,-43,-43,87,48,19,-34,-58,-48,-19
0,87,87,-43,-43,87,48,19,-29,-58,-48,-19
0,87,87,-43,-43,87,48,19,-24,-58,-43,-19
0,87,87,-43,-43,87,39,19,-14,-53,-43,-19
-4,73,78,-34,-41,75,43,14,-24,-53,-43,-19
0,73,73,-36,-36,73,29,9,-34,-58,-43,-14
9,73,63,-41,-26,68,19,-4,-39,-58,-39,-14
9,68,58,-39,-24,63,0,-9,-43,-63,-39,-14
9,73,63,-41,-26,68,-4,-9,-48,-68,-39,-14
9,68,58,-39,-24,63,-19,-19,-58,-73,-43,-14
9,68,58,-39,-24,63,-29,-29,-68,-87,-48,-24
14,68,53,-41,-19,61,-48,-43,-78,-97,-58,-29
14,48,34,-31,-9,41,-68,-53,-92,-102,-63,-34
14,39,24,-26,-4,31,-73,-58,-92,-102,-68,-34
19,34,14,-26,2,24,-73,-63,-102,-107,-68,-34
19,34,14,-26,2,24,-78,-73,-107,-112,-68,-34
29,43,14,-36,7,29,-78,-68,-107,-112,-78,-43
29,43,14,-36,7,29,-78,-73,-112,-117,-87,-48
29,43,14,-36,7,29,-78,-73,-122,-126,-97,-53
29,43,14,-36,7,29,-82,-82,-131,-136,-107,-58
14,39,24,-26,-4,31,-97,-102,-141,-146,-117,-63
14,39,24,-26,-4,31,-107,-117,-151,-161,-122,-68
14,43,29,-29,-7,36,-117,-126,-161,-170,-126,-68
14,43,29,-29,-7,36,-126,-136,-170,-180,-131,-73
0,29,29,-14,-14,29,-117,-141,-190,-180,-141,-87
0,24,24,-12,-12,24,-117,-141,-190,-185,-146,-87
4,24,19,-14,-7,21,-117,-141,-190,-185,-146,-87
4,29,24,-17,-9,26,-117,-141,-190,-180,-136,-82
29,48,19,-39,4,34,-112,-122,-165,-161,-117,-68
43,63,19,-53,12,41,-107,-102,-151,-151,-102,-53
43,63,19,-53,12,41,-97,-92,-141,-146,-102,-53
43,63,19,-53,12,41,-87,-87,-131,-146,-97,-53
48,63,14,-56,17,39,-78,-82,-131,-131,-92,-43
39,53,14,-46,12,34,-73,-82,-131,-131,-92,-43
39,53,14,-46,12,34,-68,-82,-131,-131,-92,-39
43,53,9,-48,17,31,-63,-78,-131,-131,-92,-39
39,53,14,-46,12,34,-73,-78,-126,-126,-87,-43
39,53,14,-46,12,34,-73,-78,-126,-126,-87,-43
39,48,9,-43,14,29,-73,-78,-126,-126,-87,-43
39,43,4,-41,17,24,-73,-73,-126,-122,-87,-43
39,53,14,-46,12,34,-63,-73,-126,-122,-73,-29
34,48,14,-41,9,31,-58,-68,-122,-122,-73,-29
29,39,9,-34,9,24,-53,-68,-122,-122,-73,-29
24,39,14,-31,4,26,-48,-68,-122,-117,-73,-29
24,43,19,-34,2,31,-39,-53,-112,-107,-63,-29
19,39,19,-29,0,29,-39,-53,-112,-107,-73,-29
24,39,14,-31,4,26,-39,-58,-122,-117,-82,-39
24,39,14,-31,4,26,-39,-63,-126,-122,-87,-43
14,29,14,-21,0,21,-48,-73,-131,-126,-102,-58
0,14,14,-7,-7,14,-48,-73,-131,-136,-107,-63
-4,4,9,0,-7,7,-48,-78,-131,-146,-112,-63
-9,-4,4,7,-7,0,-43,-78,-136,-156,-117,-73
-14,-9,4,12,-9,-2,-43,-78,-136,-156,-126,-82
-24,-19,4,21,-14,-7,-29,-63,-136,-156,-126,-87
-34,-24,9,29,-21,-7,-19,-58,-136,-156,-126,-87
-39,-29,9,34,-24,-9,-19,-58,-136,-156,-126,-92
-29,-29,0,29,-14,-14,-19,-58,-141,-165,-131,-87
-43,-34,9,39,-26,-12,-19,-63,-146,-165,-136,-92
-43,-29,14,36,-29,-7,-9,-63,-146,-165,-136,-92
-43,-19,24,31,-34,2,-9,-58,-141,-161,-136,-92
-34,-19,14,26,-24,-2,-9,-58,-141,-151,-126,-82
-34,-19,14,26,-24,-2,-9,-58,-141,-151,-126,-82
-34,-19,14,26,-24,-2,-4,-58,-141,-156,-131,-87
-34,-19,14,26,-24,-2,-4,-53,-141,-156,-131,-87
-43,-29,14,36,-29,-7,4,-53,-141,-156,-131,-87
-43,-29,14,36,-29,-7,4,-53,-141,-156,-131,-82
-43,-29,14,36,-29,-7,4,-53,-141,-156,-126,-82
-43,-29,14,36,-29,-7,0,-58,-141,-151,-126,-82
-43,-29,14,36,-29,-7,0,-58,-141,-161,-136,-87
-43,-24,19,34,-31,-2,0,-58,-141,-161,-136,-87
-39,-24,14,31,-26,-4,0,-58,-136,-161,-136,-87
-39,-19,19,29,-29,0,0,-58,-136,-161,-136,-87
-48,-29,19,39,-34,-4,0,-58,-136,-161,-146,-87
-58,-39,19,48,-39,-9,0,-58,-136,-161,-141,-87
-58,-39,19,48,-39,-9,0,-58,-136,-161,-141,-87
-58,-34,24,46,-41,-4,0,-58,-136,-156,-141,-87
-73,-53,19,63,-46,-17,-9,-58,-146,-165,-131,-92
-68,-39,29,53,-48,-4,-4,-53,-141,-156,-122,-82
-34,-19,14,26,-24,-2,4,-43,-131,-136,-107,-73
-19,-9,9,14,-14,0,4,-29,-107,-122,-97,-63
-34,-14,19,24,-26,2,-4,-9,-92,-117,-92,-58
-39,-19,19,29,-29,0,-4,14,-73,-97,-87,-58
-29,0,29,14,-29,14,4,14,-48,-92,-78,-48
-29,-14,14,21,-21,0,0,-19,-58,-97,-87,-58
-34,-19,14,26,-24,-2,4,-63,-73,-107,-107,-73
-39,-14,24,26,-31,4,24,-122,-73,-107,-107,-82
-48,-14,34,31,-41,9,34,-195,-73,-87,-92,-82
-63,-34,29,48,-46,-2,24,-278,-92,-97,-92,-87
-73,-58,14,65,-43,-21,-19,-390,-156,-122,-112,-97
-58,-58,0,58,-29,-29,-97,-512,-214,-107,-87,-73
-19,-29,-9,24,-4,-19,-204,-600,-214,-29,14,4
53,9,-43,-31,48,-17,-292,-663,-195,87,146,112
122,43,-78,-82,100,-17,-375,-732,-195,185,268,214
175,68,-107,-122,141,-19,-488,-814,-244,239,356,297
214,68,-146,-141,180,-39,-658,-980,-405,185,375,336
253,87,-165,-170,209,-39,-912,-1273,-697,68,370,370
331,161,-170,-246,251,-4,-1185,-1595,-980,-14,409,458
458,326,-131,-392,295,97,-1454,-1854,-1151,14,527,605
566,468,-97,-517,331,185,-1693,-2044,-1239,68,663,756
614,556,-58,-585,336,248,-1922,-2235,-1400,58,756,863
644,624,-19,-634,331,302,-2161,-2454,-1586,14,819,956
697,727,29,-712,334,378,-2405,-2654,-1708,4,907,1073
751,858,107,-805,322,483,-2620,-2815,-1761,48,1010,1200
780,932,151,-856,314,541,-2757,-2947,-1795,48,1063,1283
771,966,195,-868,287,580,-2810,-3010,-1849,-29,1029,1273
780,956,175,-868,302,566,-2801,-3001,-1898,-122,941,1234
800,956,156,-878,322,556,-2762,-2986,-1966,-287,800,1166
800,907,107,-854,346,507,-2713,-2996,-2103,-566,517,995
780,712,-68,-746,424,322,-2576,-2923,-2225,-888,175,746
790,429,-361,-610,575,34,-2337,-2693,-2313,-1185,-156,478
775,200,-575,-488,675,-187,-2083,-2464,-2381,-1464,-444,253
692,58,-634,-375,663,-287,-1878,-2352,-2440,-1683,-702,53
595,-63,-658,-265,627,-361,-1683,-2235,-2435,-1825,-907,-141
541,-165,-707,-187,624,-436,-1478,-2010,-2327,-1849,-1029,-283
502,-224,-727,-139,614,-475,-1288,-1761,-2108,-1742,-1029,-341
439,-234,-673,-102,556,-453,-1112,-1537,-1834,-1537,-941,-341
380,-229,-610,-75,495,-419,-961,-1312,-1566,-1337,-839,-317
341,-190,-531,-75,436,-361,-824,-1102,-1322,-1132,-722,-263
297,-141,-439,-78,368,-290,-697,-927,-1093,-946,-595,-200
253,-82,-336,-85,295,-209,-561,-756,-878,-756,-468,-165
214,-34,-248,-90,231,-141,-434,-575,-663,-590,-366,-126
165,-9,-175,-78,170,-92,-317,-419,-488,-453,-292,-102
97,-4,-102,-46,100,-53,-234,-317,-366,-351,-239,-92
53,4,-48,-29,51,-21,-156,-219,-278,-278,-204,-97
19,0,-19,-9,19,-9,-82,-131,-185,-209,-175,-107
-19,-19,0,19,-9,-9,-19,-48,-107,-146,-136,-102
-34,-24,9,29,-21,-7,19,4,-58,-112,-117,-92
-29,-19,9,24,-19,-4,43,29,-39,-92,-97,-78
-19,-9,9,14,-14,0,73,58,-19,-78,-87,-78
-29,-14,14,21,-21,0,73,63,-19,-82,-97,-87
-34,-14,19,24,-26,2,82,68,-19,-82,-97,-92
-39,-19,19,29,-29,0,82,73,-14,-78,-97,-97
-48,-19,29,34,-39,4,92,78,-9,-78,-102,-97
-48,-29,19,39,-34,-4,92,82,-9,-78,-112,-97
-53,-29,24,41,-39,-2,102,87,-9,-78,-112,-97
-58,-29,29,43,-43,0,102,92,-4,-73,-107,-97
-58,-34,24,46,-41,-4,102,92,-4,-73,-107,-97
-63,-34,29,48,-46,-2,122,102,0,-73,-102,-102
-63,-34,29,48,-46,-2,126,107,9,-73,-102,-102
-73,-34,39,53,-56,2,126,112,9,-73,-102,-107
-73,-34,39,53,-56,2,126,112,9,-73,-107,-107
-63,-34,29,48,-46,-2,117,112,9,-73,-107,-107
-68,-34,34,51,-51,0,122,112,14,-68,-107,-107
-68,-39,29,53,-48,-4,122,112,14,-68,-102,-107
-68,-39,29,53,-48,-4,126,117,14,-63,-102,-102
-78,-48,29,63,-53,-9,126,117,29,-63,-107,-102
-78,-48,29,63,-53,-9,126,122,29,-68,-107,-102
-87,-58,29,73,-58,-14,126,122,29,-68,-107,-112
-87,-58,29,73,-58,-14,126,122,34,-68,-107,-112
-73,-53,19,63,-46,-17,131,122,34,-68,-117,-112
-73,-53,19,63,-46,-17,131,122,34,-63,-117,-112
-68,-48,19,58,-43,-14,131,126,39,-63,-117,-112
-68,-43,24,56,-46,-9,136,126,39,-63,-117,-112
-58,-34,24,46,-41,-4,136,126,39,-63,-107,-112
-58,-34,24,46,-41,-4,136,131,39,-63,-107,-112
-58,-34,24,46,-41,-4,136,131,39,-58,-107,-112
-58,-34,24,46,-41,-4,141,131,43,-58,-107,-117
-68,-43,24,56,-46,-9,141,131,34,-58,-107,-117
-73,-48,24,61,-48,-12,141,131,34,-63,-112,-122
-78,-53,24,65,-51,-14,146,131,34,-63,-112,-122
-82,-58,24,70,-53,-17,146,131,34,-58,-112,-122
-73,-53,19,63,-46,-17,151,136,43,-58,-112,-122
-68,-48,19,58,-43,-14,151,136,48,-58,-112,-122
-68,-43,24,56,-46,-9,156,136,48,-58,-112,-122
-73,-39,34,56,-53,-2,156,136,48,-58,-112,-122
-82,-48,34,65,-58,-7,146,141,39,-68,-112,-122
-82,-48,34,65,-58,-7,146,146,39,-68,-117,-122
-87,-53,34,70,-61,-9,146,146,39,-68,-117,-122
-87,-53,34,70,-61,-9,151,146,43,-68,-117,-122
-82,-48,34,65,-58,-7,151,156,53,-58,-117,-122
-78,-43,34,61,-56,-4,151,156,53,-58,-117,-126
-73,-39,34,56,-53,-2,151,156,53,-58,-122,-131
-68,-29,39,48,-53,4,151,156,53,-58,-122,-131
-78,-34,43,56,-61,4,161,156,53,-58,-122,-131
-82,-39,43,61,-63,2,161,156,53,-58,-122,-131
-82,-48,34,65,-58,-7,165,161,53,-58,-122,-136
-82,-53,29,68,-56,-12,165,161,53,-58,-122,-136
-82,-53,29,68,-56,-12,165,156,58,-58,-122,-136
-82,-53,29,68,-56,-12,165,156,58,-58,-122,-136
-82,-48,34,65,-58,-7,165,165,63,-53,-117,-136
-82,-48,34,65,-58,-7,170,165,63,-53,-117,-141
-92,-53,39,73,-65,-7,161,165,68,-58,-126,-136
-92,-53,39,73,-65,-7,165,165,68,-58,-126,-136
-92,-53,39,73,-65,-7,165,175,68,-53,-126,-136
-92,-58,34,75,-63,-12,170,175,73,-53,-126,-136
-92,-58,34,75,-63,-12,170,175,73,-43,-126,-146
-92,-58,34,75,-63,-12,170,175,73,-39,-126,-146
-87,-58,29,73,-58,-14,170,180,82,-39,-126,-146
-82,-58,24,70,-53,-17,180,180,82,-39,-126,-146
-82,-48,34,65,-58,-7,180,190,82,-39,-126,-146
-82,-43,39,63,-61,-2,180,195,92,-34,-122,-146
-82,-43,39,63,-61,-2,185,195,92,-34,-122,-146
-82,-48,34,65,-58,-7,190,195,92,-34,-122,-146
-82,-39,43,61,-63,2,200,204,92,-34,-122,-151
-82,-39,43,61,-63,2,200,209,102,-34,-122,-151
-82,-39,43,61,-63,2,204,214,107,-29,-122,-151
-82,-39,43,61,-63,2,204,219,107,-29,-122,-151
-92,-48,43,70,-68,-2,195,219,107,-24,-122,-141
-92,-48,43,70,-68,-2,200,224,117,-24,-126,-146
-92,-48,43,70,-68,-2,200,229,122,-24,-126,-146
-92,-43,48,68,-70,2,204,234,126,-19,-126,-146
-102,-53,48,78,-75,-2,200,244,126,-24,-126,-146
-102,-53,48,78,-75,-2,204,248,136,-19,-122,-146
-102,-53,48,78,-75,-2,209,253,141,-19,-122,-146
-107,-53,53,80,-80,0,209,258,146,-14,-122,-151
-107,-53,53,80,-80,0,229,263,151,-4,-122,-151
-112,-53,58,82,-85,2,229,273,156,0,-122,-151
-112,-58,53,85,-82,-2,234,278,161,4,-122,-151
-112,-58,53,85,-82,-2,239,283,165,9,-117,-146
-97,-43,53,70,-75,4,234,297,185,14,-117,-146
-97,-43,53,70,-75,4,244,302,190,19,-107,-146
-97,-39,58,68,-78,9,244,302,195,24,-107,-146
-102,-39,63,70,-82,12,244,312,200,29,-107,-141
-107,-48,58,78,-82,4,248,326,200,24,-97,-141
-107,-48,58,78,-82,4,253,331,209,29,-97,-141
-107,-43,63,75,-85,9,263,341,224,39,-97,-141
-107,-39,68,73,-87,14,273,341,234,43,-92,-141
-97,-39,58,68,-78,9,273,351,234,58,-82,-141
-102,-34,68,68,-85,17,278,361,248,63,-82,-141
-102,-34,68,68,-85,17,287,375,258,68,-82,-141
-97,-34,63,65,-80,14,292,380,268,73,-82,-141
-107,-34,73,70,-90,19,297,390,278,73,-82,-141
-117,-34,82,75,-100,24,302,400,287,82,-78,-136
-117,-34,82,75,-100,24,307,409,292,92,-78,-136
-117,-34,82,75,-100,24,312,419,297,97,-68,-131
-117,-29,87,73,-102,29,317,439,317,112,-63,-131
-122,-24,97,73,-109,36,326,448,326,122,-58,-126
-122,-19,102,70,-112,41,326,458,336,126,-53,-122
-122,-19,102,70,-112,41,326,468,351,141,-43,-117
-122,-14,107,68,-114,46,346,473,370,151,-43,-117
-122,-4,117,63,-119,56,361,492,385,161,-34,-107
-122,0,122,61,-122,61,366,502,395,165,-29,-107
-122,4,126,58,-124,65,370,512,409,175,-29,-112
-122,9,131,56,-126,70,375,527,424,185,-19,-112
-122,9,131,56,-126,70,385,536,434,195,-14,-112
-131,9,141,61,-136,75,390,551,448,200,-9,-107
-131,9,141,61,-136,75,395,561,463,219,0,-102
-131,29,161,51,-146,95,395,570,473,239,19,-87
-131,29,161,51,-146,95,400,585,488,248,19,-87
-126,39,165,43,-146,102,409,600,507,268,29,-82
-126,43,170,41,-148,107,414,614,522,278,39,-73
-126,39,165,43,-146,102,409,619,541,287,43,-78
-131,39,170,46,-151,104,414,629,556,292,43,-73
-131,48,180,41,-156,114,419,639,570,312,58,-68
-141,58,200,41,-170,129,429,653,590,336,73,-63
-141,58,200,41,-170,129,439,663,595,351,92,-53
-141,68,209,36,-175,139,444,673,610,366,97,-48
-141,73,214,34,-178,143,448,683,629,380,107,-43
-146,78,224,34,-185,151,453,692,649,395,117,-34
-151,82,234,34,-192,158,458,692,668,409,117,-39
-156,87,244,34,-200,165,458,702,688,424,126,-34
-161,92,253,34,-207,173,463,712,697,439,141,-24
-165,102,268,31,-217,185,463,722,712,453,156,-19
-156,117,273,19,-214,195,478,732,736,468,175,-4
-156,126,283,14,-219,204,478,736,751,483,180,4
-151,146,297,2,-224,222,478,746,766,502,190,14
-151,151,302,0,-226,226,478,746,771,512,209,19
-151,146,297,2,-224,222,478,746,780,527,209,34
-151,161,312,-4,-231,236,478,751,800,536,224,43
-151,170,322,-9,-236,246,478,751,810,546,234,53
-151,175,326,-12,-239,251,473,756,829,566,248,63
-146,180,326,-17,-236,253,463,756,839,585,253,63
-146,180,326,-17,-236,253,458,756,849,600,268,78
-146,185,331,-19,-239,258,458,746,854,605,278,82
-146,190,336,-21,-241,263,448,741,854,614,287,92
-156,190,346,-17,-251,268,434,722,849,624,302,107
-156,195,351,-19,-253,273,434,712,854,634,312,117
-146,200,346,-26,-246,273,424,702,858,639,317,122
-136,214,351,-39,-244,283,414,697,858,649,326,136
-126,224,351,-48,-239,287,400,683,849,653,351,161
-122,239,361,-58,-241,300,395,663,839,658,361,170
-117,244,361,-63,-239,302,380,649,834,658,366,175
-117,258,375,-70,-246,317,370,639,824,653,380,185
-117,273,390,-78,-253,331,361,614,814,649,380,185
-107,278,385,-85,-246,331,356,600,805,644,385,200
-102,287,390,-92,-246,339,336,575,785,639,385,209
-97,287,385,-95,-241,336,322,556,766,624,385,209
-97,287,385,-95,-241,336,307,536,751,610,395,224
-97,283,380,-92,-239,331,292,512,732,600,390,229
-87,278,366,-95,-226,322,278,492,712,585,390,229
-82,268,351,-92,-217,309,263,468,678,570,380,234
-78,258,336,-90,-207,297,248,453,663,561,375,234
-73,258,331,-92,-202,295,234,429,639,536,375,234
-73,258,331,-92,-202,295,219,409,614,522,361,239
-73,244,317,-85,-195,280,204,385,580,502,351,239
-73,253,326,-90,-200,290,195,361,551,478,346,239
-68,248,317,-90,-192,283,185,336,522,458,331,239
-58,244,302,-92,-180,273,165,312,492,434,322,234
-58,239,297,-90,-178,268,151,287,458,405,312,224
-43,234,278,-95,-161,256,146,263,434,375,287,229
-39,229,268,-95,-153,248,126,248,405,361,273,224
-34,224,258,-95,-146,241,122,229,375,336,263,214
-29,209,239,-90,-134,224,112,209,346,312,244,200
-24,190,214,-82,-119,202,97,180,307,268,224,190
-24,185,209,-80,-117,197,82,161,268,248,209,175
-19,175,195,-78,-107,185,63,146,244,224,200,161
-9,170,180,-80,-95,175,53,126,219,200,180,146
-14,161,175,-73,-95,168,48,126,209,185,165,136
-14,151,165,-68,-90,158,43,112,185,161,151,131
-9,136,146,-63,-78,141,43,97,161,146,136,126
-9,131,141,-61,-75,136,48,87,141,117,122,117
-4,126,131,-61,-68,129,39,78,122,102,117,117
-4,117,122,-56,-63,119,34,68,102,87,102,107
4,102,97,-53,-46,100,29,48,87,68,87,97
4,97,92,-51,-43,95,24,43,68,53,73,87
4,87,82,-46,-39,85,9,39,53,43,68,87
4,78,73,-41,-34,75,4,29,39,34,48,78
4,68,63,-36,-29,65,0,19,29,19,39,73
4,53,48,-29,-21,51,-4,14,14,9,34,63
9,58,48,-34,-19,53,4,9,4,-4,24,43
9,53,43,-31,-17,48,0,4,-4,-14,14,43
9,53,43,-31,-17,48,-4,0,-14,-24,4,39
14,48,34,-31,-9,41,-4,-4,-24,-24,4,34
4,48,43,-26,-19,46,-14,-4,-29,-39,4,39
9,48,39,-29,-14,43,-9,-4,-29,-39,-4,34
14,48,34,-31,-9,41,-9,-4,-34,-43,-14,24
14,39,24,-26,-4,31,-14,-9,-39,-63,-24,14
19,34,14,-26,2,24,-14,-4,-43,-63,-39,0
14,34,19,-24,-2,26,-14,-4,-48,-68,-39,0
14,29,14,-21,0,21,-14,-4,-48,-73,-43,0
19,29,9,-24,4,19,-14,-4,-48,-73,-43,0
9,29,19,-19,-4,24,-14,-14,-48,-73,-29,4
9,29,19,-19,-4,24,-14,-14,-48,-73,-29,4
9,29,19,-19,-4,24,-14,-14,-53,-73,-29,4
4,19,14,-12,-4,17,-14,-14,-58,-78,-39,0
4,29,24,-17,-9,26,-14,-14,-58,-78,-39,0
0,29,29,-14,-14,29,-14,-19,-58,-78,-39,0
0,24,24,-12,-12,24,-14,-19,-58,-78,-39,0
0,24,24,-12,-12,24,-14,-19,-53,-78,-43,0
0,14,14,-7,-7,14,-4,-9,-39,-63,-43,0
4,14,9,-9,-2,12,-4,-9,-39,-63,-39,-4
4,14,9,-9,-2,12,0,-4,-39,-63,-39,-4
4,14,9,-9,-2,12,0,-4,-39,-63,-39,-4
9,14,4,-12,2,9,0,-4,-39,-82,-43,-4
9,9,0,-9,4,4,0,0,-39,-73,-43,-4
9,9,0,-9,4,4,0,4,-29,-63,-39,-4
9,9,0,-9,4,4,0,4,-24,-63,-39,-4
0,0,0,0,0,0,-9,-4,-29,-73,-43,-4
4,4,0,-4,2,2,-4,0,-24,-68,-39,-4
4,4,0,-4,2,2,-4,0,-24,-63,-34,0
4,9,4,-7,0,7,-4,0,-24,-58,-34,0
14,19,4,-17,4,12,4,14,-9,-43,-29,0
9,14,4,-12,2,9,4,14,-9,-43,-24,0
9,14,4,-12,2,9,4,14,0,-43,-19,4
9,14,4,-12,2,9,4,19,0,-39,-9,9
9,19,9,-14,0,14,-4,24,-4,-39,-14,9
14,19,4,-17,4,12,-4,24,-4,-29,-4,9
14,29,14,-21,0,21,-4,29,0,-29,-4,9
14,19,4,-17,4,12,-4,29,4,-24,-9,9
9,29,19,-19,-4,24,-4,24,0,-24,-4,14
9,29,19,-19,-4,24,0,24,0,-19,0,14
4,34,29,-19,-12,31,0,29,9,-19,4,14
4,34,29,-19,-12,31,0,29,9,-19,9,14
14,34,19,-24,-2,26,4,39,9,-19,0,14
14,29,14,-21,0,21,4,39,14,-14,4,14
14,29,14,-21,0,21,4,39,19,-9,4,14
14,29,14,-21,0,21,4,39,29,-9,14,14
4,24,19,-14,-7,21,9,43,29,-9,4,14
4,24,19,-14,-7,21,14,43,29,-4,4,14
-4,24,29,-9,-17,26,14,43,24,-4,4,9
-4,14,19,-4,-12,17,14,43,24,-9,4,9
4,14,9,-9,-2,12,14,53,29,-19,0,0
4,19,14,-12,-4,17,4,53,29,-9,0,0
4,24,19,-14,-7,21,4,53,34,-9,0,0
4,34,29,-19,-12,31,4,53,43,0,0,-4
-4,14,19,-4,-12,17,14,43,34,-9,0,-4
-4,14,19,-4,-12,17,14,43,34,-9,0,0
-4,14,19,-4,-12,17,19,43,34,-9,0,4
-4,14,19,-4,-12,17,19,43,34,-9,0,9
-9,14,24,-2,-17,19,14,43,29,-9,0,0
-9,4,14,2,-12,9,14,43,29,-9,0,0
-9,14,24,-2,-17,19,14,43,24,-9,0,0
-9,14,24,-2,-17,19,14,43,24,-14,-4,-4
-9,14,24,-2,-17,19,24,48,29,-9,0,-4
-9,14,24,-2,-17,19,24,48,29,-9,-4,-4
-9,4,14,2,-12,9,24,48,24,-14,-4,-4
-19,4,24,7,-21,14,24,48,24,-14,-4,-4
0,9,9,-4,-4,9,24,43,24,-14,-9,-4
0,14,14,-7,-7,14,24,43,24,-14,-4,-4
0,19,19,-9,-9,19,24,39,24,-14,-4,-4
0,24,24,-12,-12,24,24,39,19,-24,-4,-9
0,14,14,-7,-7,14,14,39,4,-34,0,-9
0,14,14,-7,-7,14,14,34,4,-34,-4,-9
0,14,14,-7,-7,14,14,34,4,-34,-9,-9
0,14,14,-7,-7,14,14,39,4,-39,-19,-9
-4,4,9,0,-7,7,9,34,0,-34,-14,0
-9,4,14,2,-12,9,9,24,-4,-34,-9,0
-14,4,19,4,-17,12,4,19,-4,-29,-4,0
-19,4,24,7,-21,14,4,14,-4,-29,0,0
-19,9,29,4,-24,19,14,14,4,-39,-4,-9
-19,9,29,4,-24,19,14,19,4,-48,-9,-14
-14,9,24,2,-19,17,14,24,4,-48,-14,-14
-14,9,24,2,-19,17,14,29,4,-48,-19,-9
-14,-9,4,12,-9,-2,14,19,-4,-53,-29,-14
-24,-9,14,17,-19,2,14,14,-9,-58,-34,-19
-24,-9,14,17,-19,2,14,14,-14,-58,-39,-24
-19,-9,9,14,-14,0,14,14,-14,-58,-39,-29
-24,-14,9,19,-17,-2,4,9,-24,-58,-39,-24
-34,-19,14,26,-24,-2,4,9,-24,-63,-43,-29
-39,-24,14,31,-26,-4,4,9,-29,-63,-43,-29
-43,-29,14,36,-29,-7,4,9,-29,-63,-48,-24
-34,-9,24,21,-29,7,9,19,-19,-53,-43,-14
-24,-4,19,14,-21,7,14,14,-19,-58,-39,-19
-19,4,24,7,-21,14,19,14,-19,-58,-43,-19
-9,14,24,-2,-17,19,24,14,-24,-58,-39,-24
-19,4,24,7,-21,14,19,4,-34,-78,-48,-39
-19,0,19,9,-19,9,14,4,-43,-82,-48,-43
-19,-4,14,12,-17,4,9,4,-43,-82,-48,-43
-19,-9,9,14,-14,0,4,4,-39,-82,-48,-39
-14,-4,9,9,-12,2,4,4,-39,-73,-48,-29
-14,-4,9,9,-12,2,4,-4,-43,-73,-48,-29
-14,-4,9,9,-12,2,4,-4,-48,-73,-48,-29
-14,-4,9,9,-12,2,0,-9,-48,-73,-48,-29
-24,-9,14,17,-19,2,0,-9,-48,-82,-58,-39
-24,-9,14,17,-19,2,4,-4,-48,-82,-58,-39
-24,-4,19,14,-21,7,14,-4,-48,-92,-63,-39
-24,-4,19,14,-21,7,19,-4,-48,-92,-63,-39
-34,-19,14,26,-24,-2,9,-14,-58,-92,-63,-39
-34,-19,14,26,-24,-2,14,-19,-63,-92,-63,-43
-34,-19,14,26,-24,-2,14,-19,-63,-92,-63,-43
-34,-19,14,26,-24,-2,9,-19,-58,-92,-63,-43
-24,-9,14,17,-19,2,9,-14,-48,-82,-48,-34
-24,-9,14,17,-19,2,9,-14,-58,-87,-48,-34
-24,-9,14,17,-19,2,9,-14,-58,-87,-58,-34
-24,-9,14,17,-19,2,9,-14,-58,-87,-58,-34
-29,-9,19,19,-24,4,9,-14,-48,-97,-68,-39
-29,-19,9,24,-19,-4,9,-14,-53,-97,-73,-43
-29,-19,9,24,-19,-4,9,-19,-53,-102,-73,-48
-29,-19,9,24,-19,-4,9,-19,-63,-102,-73,-58
-39,-29,9,34,-24,-9,9,-19,-63,-112,-73,-58
-39,-29,9,34,-24,-9,9,-19,-63,-112,-73,-58
-39,-29,9,34,-24,-9,4,-19,-63,-112,-73,-58
-39,-29,9,34,-24,-9,4,-19,-63,-112,-73,-58
-34,-24,9,29,-21,-7,4,-29,-73,-107,-68,-48
-29,-19,9,24,-19,-4,4,-29,-73,-107,-68,-43
-29,-14,14,21,-21,0,4,-29,-73,-107,-68,-43
-24,-9,14,17,-19,2,4,-29,-73,-107,-68,-43
-19,-19,0,19,-9,-9,14,-24,-73,-97,-73,-53
-19,-14,4,17,-12,-4,9,-24,-73,-97,-73,-53
-19,-14,4,17,-12,-4,9,-24,-78,-107,-73,-58
-19,-14,4,17,-12,-4,9,-19,-78,-107,-78,-58
-34,-34,0,34,-17,-17,0,-29,-78,-112,-73,-58
-34,-34,0,34,-17,-17,0,-29,-78,-112,-73,-58
-29,-34,-4,31,-12,-19,0,-24,-78,-112,-73,-53
-29,-29,0,29,-14,-14,4,-24,-78,-112,-73,-53
-29,-24,4,26,-17,-9,4,-24,-78,-122,-78,-63
-34,-24,9,29,-21,-7,4,-24,-78,-126,-73,-68
-34,-34,0,34,-17,-17,0,-29,-78,-126,-73,-68
-29,-34,-4,31,-12,-19,0,-29,-82,-126,-82,-68
-19,-19,0,19,-9,-9,9,-19,-82,-117,-82,-68
-19,-19,0,19,-9,-9,14,-14,-78,-117,-82,-68
-19,-14,4,17,-12,-4,14,-14,-78,-122,-82,-68
-19,-14,4,17,-12,-4,14,-19,-82,-122,-82,-68
-19,-24,-4,21,-7,-14,4,-29,-92,-126,-73,-58
-14,-24,-9,19,-2,-17,4,-29,-92,-126,-73,-58
-14,-24,-9,19,-2,-17,9,-29,-92,-117,-73,-58
-19,-24,-4,21,-7,-14,9,-29,-92,-112,-73,-58
-24,-24,0,24,-12,-12,0,-29,-92,-112,-73,-58
-24,-19,4,21,-14,-7,-4,-29,-92,-117,-73,-58
-14,-9,4,12,-9,-2,-4,-29,-92,-117,-73,-58
-14,-24,-9,19,-2,-17,0,-29,-92,-117,-73,-58
-19,-14,4,17,-12,-4,0,-34,-92,-131,-92,-58
-24,-14,9,19,-17,-2,0,-34,-92,-131,-92,-68
-19,-9,9,14,-14,0,9,-19,-78,-117,-87,-58
-24,-24,0,24,-12,-12,9,-29,-87,-126,-97,-68
-29,-29,0,29,-14,-14,9,-29,-87,-126,-97,-68
-34,-34,0,34,-17,-17,9,-29,-87,-126,-97,-68
-39,-39,0,39,-19,-19,9,-29,-87,-126,-97,-68
-34,-29,4,31,-19,-12,9,-29,-87,-126,-87,-58
-29,-29,0,29,-14,-14,9,-29,-87,-126,-87,-58
-24,-29,-4,26,-9,-17,9,-29,-87,-126,-87,-58
-19,-29,-9,24,-4,-19,9,-29,-87,-126,-87,-58
-29,-39,-9,34,-9,-24,0,-39,-97,-126,-87,-58
-29,-39,-9,34,-9,-24,0,-39,-97,-126,-87,-58
-29,-39,-9,34,-9,-24,0,-39,-97,-126,-87,-58
-29,-39,-9,34,-9,-24,0,-39,-97,-126,-87,-58
-19,-34,-14,26,-2,-24,9,-34,-87,-126,-87,-58
-19,-29,-9,24,-4,-19,9,-29,-87,-126,-87,-58
-19,-24,-4,21,-7,-14,9,-24,-87,-126,-87,-58
-19,-19,0,19,-9,-9,9,-19,-87,-126,-87,-58
-19,-19,0,19,-9,-9,24,-9,-82,-117,-78,-68
-19,-19,0,19,-9,-9,29,-9,-78,-117,-78,-68
-19,-19,0,19,-9,-9,34,-9,-73,-117,-78,-68
-19,-19,0,19,-9,-9,39,-9,-68,-117,-78,-68
-19,-14,4,17,-12,-4,48,0,-58,-112,-73,-63
-19,-9,9,14,-14,0,48,0,-58,-107,-68,-58
-19,-4,14,12,-17,4,48,0,-58,-102,-63,-53
-19,0,19,9,-19,9,48,0,-58,-97,-58,-48
-19,4,24,7,-21,14,53,9,-53,-87,-48,-43
-19,9,29,4,-24,19,58,9,-48,-87,-48,-39
-19,14,34,2,-26,24,63,9,-43,-87,-48,-34
-19,19,39,0,-29,29,68,9,-39,-87,-48,-29
-19,29,48,-4,-34,39,78,19,-29,-78,-39,-29
-19,29,48,-4,-34,39,78,19,-29,-78,-39,-29
-19,29,48,-4,-34,39,78,19,-29,-78,-39,-29
-19,29,48,-4,-34,39,78,19,-29,-78,-39,-29
-9,29,39,-9,-24,34,87,34,-24,-68,-39,-29
-9,29,39,-9,-24,34,87,39,-19,-68,-39,-29
-9,29,39,-9,-24,34,87,43,-14,-68,-39,-29
-9,29,39,-9,-24,34,87,48,-9,-68,-39,-29
-9,19,29,-4,-19,24,82,39,-19,-68,-34,-19
-9,19,29,-4,-19,24,68,39,-14,-63,-34,-19
-4,14,19,-4,-12,17,58,34,-14,-63,-34,-19
0,14,14,-7,-7,14,39,29,-24,-68,-34,-14
0,19,19,-9,-9,19,39,4,-29,-78,-29,-14
0,19,19,-9,-9,19,19,0,-34,-82,-29,-14
0,19,19,-9,-9,19,4,-9,-48,-87,-39,-24
0,19,19,-9,-9,19,-9,-19,-58,-92,-43,-24
9,9,0,-9,4,4,-19,-19,-68,-97,-58,-34
14,9,-4,-12,9,2,-39,-34,-78,-107,-68,-39
14,0,-14,-7,14,-7,-48,-39,-82,-112,-73,-43
14,-9,-24,-2,19,-17,-53,-39,-82,-112,-78,-43
19,-14,-34,-2,26,-24,-53,-39,-82,-117,-68,-34
19,-14,-34,-2,26,-24,-58,-43,-87,-122,-68,-34
19,-14,-34,-2,26,-24,-58,-48,-87,-122,-68,-34
19,-14,-34,-2,26,-24,-58,-53,-92,-126,-78,-39
19,-14,-34,-2,26,-24,-58,-63,-112,-146,-97,-53
19,-14,-34,-2,26,-24,-63,-73,-122,-156,-107,-58
14,-19,-34,2,24,-26,-78,-82,-131,-156,-107,-63
14,-19,-34,2,24,-26,-87,-97,-141,-170,-112,-68
14,-14,-29,0,21,-21,-97,-107,-151,-170,-107,-58
14,-14,-29,0,21,-21,-107,-117,-161,-180,-112,-63
9,-19,-29,4,19,-24,-107,-122,-170,-180,-122,-68
9,-24,-34,7,21,-29,-107,-122,-170,-185,-126,-68
14,-24,-39,4,26,-31,-102,-107,-156,-185,-117,-68
14,-19,-34,2,24,-26,-97,-102,-151,-180,-107,-63
29,-9,-39,-9,34,-24,-78,-87,-131,-161,-97,-58
43,4,-39,-24,41,-17,-68,-63,-112,-151,-82,-43
34,-4,-39,-14,36,-21,-58,-63,-107,-146,-82,-43
34,-4,-39,-14,36,-21,-48,-58,-102,-146,-78,-43
29,-4,-34,-12,31,-19,-48,-53,-107,-141,-73,-43
19,-14,-34,-2,26,-24,-43,-53,-112,-141,-73,-43
19,-4,-24,-7,21,-14,-39,-63,-112,-131,-73,-39
24,-4,-29,-9,26,-17,-34,-58,-112,-131,-73,-39
29,4,-24,-17,26,-9,-34,-58,-107,-126,-68,-34
29,4,-24,-17,26,-9,-34,-58,-107,-126,-68,-34
34,0,-34,-17,34,-17,-39,-58,-97,-126,-78,-34
39,-4,-43,-17,41,-24,-43,-53,-97,-122,-78,-34
43,-4,-48,-19,46,-26,-39,-53,-97,-122,-73,-29
43,-9,-53,-17,48,-31,-39,-48,-92,-122,-73,-29
34,-29,-63,-2,48,-46,-24,-48,-102,-131,-73,-29
24,-29,-53,2,39,-41,-19,-48,-102,-126,-73,-29
14,-34,-48,9,31,-41,-19,-43,-92,-126,-63,-29
0,-39,-39,19,19,-39,-19,-43,-92,-126,-73,-29
9,-34,-43,12,26,-39,-19,-58,-102,-136,-73,-39
4,-29,-34,12,19,-31,-19,-63,-107,-141,-78,-43
0,-29,-29,14,14,-29,-19,-63,-112,-141,-82,-48
-9,-34,-24,21,7,-29,-19,-63,-112,-146,-87,-53
-19,-48,-29,34,4,-39,-19,-58,-102,-141,-82,-53
-19,-53,-34,36,7,-43,-14,-58,-107,-146,-87,-63
-24,-58,-34,41,4,-46,-14,-58,-107,-146,-87,-63
-34,-68,-34,51,0,-51,0,-43,-107,-146,-87,-68
-43,-73,-29,58,-7,-51,9,-39,-107,-151,-102,-73
-48,-78,-29,63,-9,-53,9,-39,-107,-156,-107,-82
-48,-82,-34,65,-7,-58,9,-39,-112,-170,-117,-92
-63,-92,-29,78,-17,-61,9,-43,-117,-175,-126,-102
-63,-92,-29,78,-17,-61,19,-43,-126,-165,-122,-92
-63,-87,-24,75,-19,-56,19,-39,-122,-161,-117,-92
-63,-87,-24,75,-19,-56,19,-39,-122,-161,-112,-92
-63,-87,-24,75,-19,-56,19,-39,-122,-161,-107,-92
-53,-97,-43,75,-4,-70,24,-39,-122,-165,-112,-87
-53,-97,-43,75,-4,-70,24,-34,-122,-165,-112,-87
-53,-97,-43,75,-4,-70,24,-34,-122,-165,-112,-87
-53,-97,-43,75,-4,-70,24,-34,-122,-165,-112,-82
-43,-82,-39,63,-2,-61,24,-34,-112,-165,-107,-82
-43,-78,-34,61,-4,-56,19,-39,-112,-161,-107,-82
-43,-73,-29,58,-7,-51,19,-39,-112,-161,-107,-78
-43,-63,-19,53,-12,-41,19,-39,-112,-161,-107,-78
-48,-73,-24,61,-12,-48,9,-39,-117,-170,-117,-87
-48,-68,-19,58,-14,-43,9,-39,-117,-170,-117,-87
-48,-68,-19,58,-14,-43,9,-39,-117,-170,-117,-87
-58,-78,-19,68,-19,-48,9,-39,-117,-170,-112,-87
-68,-87,-19,78,-24,-53,9,-48,-117,-165,-107,-78
-68,-82,-14,75,-26,-48,9,-48,-117,-156,-102,-78
-63,-82,-19,73,-21,-51,9,-48,-117,-151,-97,-73
-58,-78,-19,68,-19,-48,14,-43,-112,-146,-92,-73
-53,-87,-34,70,-9,-61,14,-24,-102,-165,-117,-92
-39,-78,-39,58,0,-58,24,-9,-87,-151,-97,-82
-34,-63,-29,48,-2,-46,34,19,-63,-136,-92,-68
-19,-39,-19,29,0,-29,24,34,-43,-117,-78,-58
0,-29,-29,14,14,-29,24,34,-19,-92,-58,-48
-29,-53,-24,41,-2,-39,19,9,-19,-97,-58,-58
-63,-78,-14,70,-24,-46,34,-43,-34,-107,-78,-73
-68,-92,-24,80,-21,-58,43,-92,-34,-107,-78,-73
-68,-82,-14,75,-26,-48,53,-165,-24,-87,-73,-73
-73,-92,-19,82,-26,-56,34,-268,-53,-97,-73,-87
-73,-107,-34,90,-19,-70,0,-380,-107,-112,-73,-87
-68,-97,-29,82,-19,-63,-78,-492,-146,-78,-29,-53
-29,-87,-58,58,14,-73,-175,-590,-146,0,53,14
43,-48,-92,2,68,-70,-273,-663,-126,97,175,112
122,-4,-126,-58,124,-65,-356,-722,-117,195,297,224
175,19,-156,-97,165,-68,-448,-795,-146,258,395,317
234,29,-204,-131,219,-87,-619,-971,-307,224,434,366
292,78,-214,-185,253,-68,-854,-1244,-590,117,439,409
370,161,-209,-265,290,-24,-1146,-1586,-893,24,468,488
448,248,-200,-348,324,24,-1434,-1873,-1093,-4,556,605
536,351,-185,-444,361,82,-1703,-2083,-1220,9,644,717
595,458,-136,-527,366,161,-1932,-2264,-1371,0,727,834
653,556,-97,-605,375,229,-2142,-2464,-1546,-43,790,927
707,658,-48,-683,378,305,-2376,-2664,-1688,-63,858,1034
751,771,19,-761,366,395,-2620,-2845,-1771,-48,941,1141
771,844,73,-807,348,458,-2786,-2986,-1834,-58,995,1205
771,868,97,-819,336,483,-2840,-3059,-1888,-117,971,1205
800,897,97,-849,351,497,-2830,-3050,-1917,-209,893,1195
829,897,68,-863,380,483,-2801,-3025,-2005,-395,732,1107
829,829,0,-829,414,414,-2752,-3035,-2142,-692,439,927
819,644,-175,-732,497,234,-2596,-2942,-2254,-1005,97,678
829,361,-468,-595,649,-53,-2347,-2703,-2332,-1293,-234,409
785,131,-653,-458,719,-261,-2093,-2474,-2400,-1551,-522,175
692,-9,-702,-341,697,-356,-1888,-2361,-2440,-1742,-751,-24
595,-141,-736,-226,666,-439,-1693,-2244,-2405,-1854,-946,-200
561,-244,-805,-158,683,-524,-1498,-2020,-2278,-1869,-1049,-331
522,-283,-805,-119,663,-544,-1307,-1761,-2059,-1751,-1029,-370
458,-273,-732,-92,595,-502,-1132,-1527,-1786,-1537,-922,-351
409,-248,-658,-80,534,-453,-971,-1312,-1527,-1317,-800,-307
370,-200,-570,-85,470,-385,-834,-1093,-1273,-1122,-663,-234
336,-141,-478,-97,407,-309,-697,-917,-1054,-927,-536,-170
273,-102,-375,-85,324,-239,-551,-736,-839,-736,-419,-117
204,-82,-287,-61,246,-185,-414,-556,-634,-580,-317,-97
156,-48,-204,-53,180,-126,-297,-400,-458,-453,-244,-82
97,-34,-131,-31,114,-82,-195,-287,-346,-361,-209,-82
34,-53,-87,9,61,-70,-126,-200,-258,-297,-195,-107
-19,-68,-48,43,14,-58,-63,-122,-175,-248,-175,-126
-29,-68,-39,48,4,-53,-9,-39,-107,-185,-126,-122
-24,-63,-39,43,7,-51,29,4,-58,-131,-87,-92
-29,-78,-48,53,9,-63,53,29,-29,-102,-68,-78
-29,-78,-48,53,9,-63,73,58,0,-97,-68,-78
-39,-92,-53,65,7,-73,92,73,0,-102,-78,-87
-43,-92,-48,68,2,-70,102,78,0,-102,-78,-92
-48,-97,-48,73,0,-73,102,82,4,-97,-78,-97
-58,-97,-39,78,-9,-68,112,87,9,-97,-82,-97
-68,-107,-39,87,-14,-73,112,102,19,-107,-92,-107
-73,-107,-34,90,-19,-70,122,107,19,-107,-92,-107
-78,-107,-29,92,-24,-68,122,112,24,-102,-87,-107
-78,-112,-34,95,-21,-73,122,112,24,-102,-87,-107
-68,-107,-39,87,-14,-73,141,112,19,-92,-92,-112
-63,-102,-39,82,-12,-70,146,117,29,-92,-92,-112
-68,-97,-29,82,-19,-63,146,122,29,-92,-92,-117
-63,-92,-29,78,-17,-61,146,122,29,-92,-97,-117
-73,-92,-19,82,-26,-56,136,122,29,-92,-82,-112
-78,-92,-14,85,-31,-53,141,122,34,-87,-78,-107
-78,-97,-19,87,-29,-58,141,122,34,-87,-68,-102
-78,-97,-19,87,-29,-58,146,126,34,-82,-63,-92
-78,-97,-19,87,-29,-58,156,136,48,-92,-82,-102
-78,-97,-19,87,-29,-58,156,141,48,-97,-87,-102
-87,-107,-19,97,-34,-63,156,141,48,-97,-92,-112
-87,-107,-19,97,-34,-63,156,141,53,-97,-97,-112
-82,-112,-29,97,-26,-70,151,131,43,-87,-87,-102
-82,-112,-29,97,-26,-70,151,131,43,-82,-87,-102
-78,-107,-29,92,-24,-68,151,136,48,-82,-87,-102
-78,-102,-24,90,-26,-63,156,136,48,-82,-87,-102
-87,-112,-24,100,-31,-68,146,136,48,-92,-97,-112
-87,-112,-24,100,-31,-68,146,141,48,-92,-97,-112
-87,-112,-24,100,-31,-68,146,141,48,-87,-97,-112
-87,-112,-24,100,-31,-68,151,141,53,-87,-97,-117
-78,-102,-24,90,-26,-63,151,141,53,-78,-87,-107
-73,-97,-24,85,-24,-61,151,141,53,-82,-92,-112
-68,-92,-24,80,-21,-58,156,141,53,-82,-92,-112
-63,-87,-24,75,-19,-56,156,141,53,-78,-92,-112
-73,-97,-24,85,-24,-61,161,136,53,-78,-87,-112
-68,-97,-29,82,-19,-63,161,136,58,-78,-82,-112
-68,-97,-29,82,-19,-63,165,136,58,-78,-78,-112
-73,-97,-24,85,-24,-61,165,136,58,-78,-73,-112
-82,-102,-19,92,-31,-61,165,151,68,-87,-87,-117
-82,-107,-24,95,-29,-65,165,156,68,-87,-97,-122
-87,-117,-29,102,-29,-73,165,156,68,-87,-102,-126
-87,-122,-34,104,-26,-78,170,156,73,-87,-107,-131
-87,-122,-34,104,-26,-78,161,156,63,-87,-97,-122
-87,-122,-34,104,-26,-78,161,156,63,-87,-97,-126
-87,-122,-34,104,-26,-78,161,156,63,-87,-102,-131
-87,-117,-29,102,-29,-73,161,156,63,-87,-102,-131
-78,-107,-29,92,-24,-68,161,156,63,-87,-102,-131
-82,-107,-24,95,-29,-65,161,156,63,-87,-102,-131
-82,-112,-29,97,-26,-70,165,161,63,-87,-102,-136
-82,-112,-29,97,-26,-70,165,161,63,-87,-102,-136
-82,-102,-19,92,-31,-61,175,165,68,-87,-112,-136
-82,-102,-19,92,-31,-61,175,165,68,-87,-112,-136
-82,-97,-14,90,-34,-56,175,175,73,-82,-107,-136
-82,-97,-14,90,-34,-56,180,175,73,-82,-107,-141
-82,-112,-29,97,-26,-70,180,175,78,-87,-107,-146
-82,-112,-29,97,-26,-70,185,175,78,-87,-107,-146
-82,-112,-29,97,-26,-70,185,185,78,-82,-107,-146
-82,-117,-34,100,-24,-75,190,185,82,-82,-107,-146
-92,-117,-24,104,-34,-70,190,185,82,-92,-107,-146
-92,-117,-24,104,-34,-70,190,185,82,-87,-107,-146
-87,-117,-29,102,-29,-73,190,190,92,-87,-107,-146
-82,-117,-34,100,-24,-75,200,190,92,-87,-107,-146
-82,-117,-34,100,-24,-75,200,200,92,-87,-117,-146
-82,-112,-29,97,-26,-70,200,204,102,-82,-112,-146
-82,-112,-29,97,-26,-70,204,204,102,-82,-112,-146
-82,-117,-34,100,-24,-75,209,204,102,-82,-112,-146
-102,-126,-24,114,-39,-75,209,204,92,-73,-112,-151
-102,-126,-24,114,-39,-75,209,209,102,-73,-112,-151
-102,-126,-24,114,-39,-75,214,214,107,-68,-112,-151
-102,-126,-24,114,-39,-75,214,219,107,-68,-112,-151
-102,-122,-19,112,-41,-70,214,229,117,-63,-112,-151
-102,-117,-14,109,-43,-65,219,234,126,-63,-117,-156
-102,-112,-9,107,-46,-61,219,239,131,-63,-117,-156
-102,-102,0,102,-51,-51,224,244,136,-58,-117,-156
-92,-102,-9,97,-41,-56,219,244,126,-53,-107,-156
-92,-102,-9,97,-41,-56,224,248,136,-48,-102,-156
-92,-102,-9,97,-41,-56,229,253,141,-48,-102,-156
-97,-102,-4,100,-46,-53,229,258,146,-43,-102,-161
-107,-112,-4,109,-51,-58,248,273,161,-53,-112,-161
-112,-112,0,112,-56,-56,248,283,165,-48,-112,-161
-112,-117,-4,114,-53,-61,253,287,170,-43,-112,-161
-112,-117,-4,114,-53,-61,258,292,175,-39,-107,-156
-107,-112,-4,109,-51,-58,253,302,175,-34,-97,-156
-107,-112,-4,109,-51,-58,263,302,180,-29,-87,-156
-107,-107,0,107,-53,-53,263,297,185,-24,-87,-156
-112,-107,4,109,-58,-51,263,302,190,-19,-87,-151
-107,-117,-9,112,-48,-63,268,312,200,-14,-78,-141
-107,-117,-9,112,-48,-63,273,322,209,-9,-78,-141
-107,-112,-4,109,-51,-58,283,336,224,0,-78,-141
-107,-107,0,107,-53,-53,292,341,234,4,-73,-141
-112,-117,-4,114,-53,-61,292,351,224,0,-82,-146
-122,-112,9,117,-65,-51,297,361,239,4,-82,-151
-126,-112,14,119,-70,-48,307,375,248,9,-82,-156
-126,-112,14,119,-70,-48,312,380,258,14,-82,-161
-122,-107,14,114,-68,-46,317,390,273,24,-82,-161
-126,-102,24,114,-75,-39,322,400,287,34,-78,-156
-122,-97,24,109,-73,-36,326,409,297,43,-78,-156
-117,-92,24,104,-70,-34,331,419,307,48,-68,-151
-126,-87,39,107,-82,-24,336,429,317,53,-73,-161
-131,-82,48,107,-90,-17,346,439,326,63,-68,-156
-131,-78,53,104,-92,-12,346,448,336,68,-63,-151
-131,-78,53,104,-92,-12,346,458,351,82,-53,-146
-126,-63,63,95,-95,0,346,473,361,102,-48,-146
-122,-53,68,87,-95,7,361,492,375,112,-34,-136
-117,-48,68,82,-92,9,366,502,385,117,-24,-136
-112,-43,68,78,-90,12,370,512,400,126,-19,-141
-122,-48,73,85,-97,12,385,527,424,141,0,-136
-122,-48,73,85,-97,12,395,536,434,156,4,-131
-131,-48,82,90,-107,17,400,551,448,165,9,-122
-131,-48,82,90,-107,17,405,561,463,190,19,-112
-131,-48,82,90,-107,17,405,561,473,195,19,-107
-131,-48,82,90,-107,17,409,575,488,200,19,-107
-126,-39,87,82,-107,24,419,590,507,214,29,-102
-126,-34,92,80,-109,29,424,605,522,219,39,-92
-126,-19,107,73,-117,43,429,619,541,234,63,-87
-131,-19,112,75,-122,46,434,629,556,244,63,-82
-131,-9,122,70,-126,56,439,639,570,268,78,-78
-141,0,141,70,-141,70,448,653,590,297,92,-73
-141,0,141,70,-141,70,458,663,605,302,92,-73
-141,9,151,65,-146,80,463,673,619,317,97,-68
-141,14,156,63,-148,85,468,683,639,331,107,-63
-146,19,165,63,-156,92,473,692,658,346,117,-53
-146,24,170,61,-158,97,478,702,678,351,117,-58
-146,29,175,58,-161,102,478,712,697,366,126,-53
-146,34,180,56,-163,107,483,722,707,380,141,-43
-146,43,190,51,-168,117,483,732,722,395,156,-39
-136,48,185,43,-161,117,488,741,736,409,165,-24
-136,48,185,43,-161,117,488,746,751,424,170,-14
-131,58,190,36,-161,124,488,756,766,444,180,-4
-131,53,185,39,-158,119,488,756,771,453,200,0
-131,63,195,34,-163,129,488,746,790,483,224,9
-131,82,214,24,-173,148,488,751,810,497,244,24
-131,97,229,17,-180,163,488,751,819,512,258,39
-131,107,239,12,-185,173,483,756,839,536,278,53
-126,112,239,7,-183,175,473,756,849,546,278,58
-126,112,239,7,-183,175,468,756,858,561,287,68
-126,117,244,4,-185,180,468,746,863,566,292,68
-126,122,248,2,-187,185,458,741,863,575,297,73
-136,131,268,2,-202,200,444,732,868,595,322,97
-136,136,273,0,-204,204,444,722,873,605,331,107
-126,141,268,-7,-197,204,434,712,878,610,336,112
-117,156,273,-19,-195,214,424,707,878,619,346,126
-107,161,268,-26,-187,214,409,692,888,614,375,141
-102,170,273,-34,-187,222,405,673,878,619,380,151
-97,170,268,-36,-183,219,390,658,873,619,380,156
-97,180,278,-41,-187,229,380,649,863,614,390,165
-97,185,283,-43,-190,234,366,624,854,619,390,185
-87,190,278,-51,-183,234,366,610,844,614,395,200
-82,200,283,-58,-183,241,351,585,824,610,395,209
-78,200,278,-61,-178,239,341,566,805,595,395,209
-87,200,287,-56,-187,244,326,536,771,590,405,214
-87,195,283,-53,-185,239,312,512,751,580,400,219
-78,190,268,-56,-173,229,297,492,732,566,400,219
-73,180,253,-53,-163,217,283,468,697,551,390,224
-68,190,258,-61,-163,224,268,453,683,527,375,219
-63,190,253,-63,-158,222,253,429,658,497,375,214
-63,190,253,-63,-158,222,239,409,634,478,361,214
-63,175,239,-56,-151,207,224,385,600,453,351,209
-63,175,239,-56,-151,207,195,351,561,439,346,209
-58,170,229,-56,-143,200,185,326,531,419,331,209
-48,165,214,-58,-131,190,165,302,502,395,322,204
-48,161,209,-56,-129,185,151,278,468,366,312,195
-39,161,200,-61,-119,180,156,258,444,346,307,200
-29,161,190,-65,-109,175,136,248,414,331,292,195
-19,161,180,-70,-100,170,131,234,385,307,283,185
-9,151,161,-70,-85,156,122,219,356,283,263,170
-4,131,136,-63,-70,134,112,190,326,239,244,175
-4,126,131,-61,-68,129,102,170,287,219,229,165
0,117,117,-58,-58,117,87,156,263,195,219,156
9,112,102,-61,-46,107,82,136,239,170,200,146
4,122,117,-63,-56,119,73,126,219,146,175,126
4,112,107,-58,-51,109,63,112,195,122,161,122
9,97,87,-53,-39,92,58,97,170,107,146,117
9,92,82,-51,-36,87,58,87,151,78,131,107
4,78,73,-41,-34,75,48,78,131,63,117,87
4,68,63,-36,-29,65,43,68,112,48,102,78
14,53,39,-34,-12,46,39,48,97,29,87,68
14,48,34,-31,-9,41,34,43,78,14,73,58
4,48,43,-26,-19,46,39,39,53,4,78,53
4,39,34,-21,-14,36,34,29,39,-4,58,48
4,29,24,-17,-9,26,29,19,29,-19,48,48
4,14,9,-9,-2,12,24,14,14,-29,43,43
-9,0,9,4,-9,4,19,9,4,-48,29,29
-9,-4,4,7,-7,0,9,4,-4,-63,14,24
-9,-4,4,7,-7,0,0,0,-14,-78,0,14
-4,-9,-4,7,0,-7,-4,-4,-24,-82,-4,4
4,0,-4,-2,4,-2,-4,-14,-29,-97,-4,9
9,0,-9,-4,9,-4,0,-14,-29,-97,-14,4
14,0,-14,-7,14,-7,0,-14,-34,-102,-24,-4
14,-9,-24,-2,19,-17,-4,-19,-39,-122,-34,-14
0,-14,-14,7,7,-14,4,-14,-43,-112,-29,-19
-4,-14,-9,9,2,-12,4,-14,-48,-117,-29,-19
-4,-19,-14,12,4,-17,4,-14,-48,-122,-34,-19
0,-19,-19,9,9,-19,4,-14,-48,-122,-34,-19
4,-9,-14,2,9,-12,14,-14,-48,-122,-39,-14
9,-9,-19,0,14,-14,14,-14,-48,-122,-39,-14
14,-9,-24,-2,19,-17,14,-14,-53,-122,-39,-14
14,-19,-34,2,24,-26,14,-14,-58,-126,-48,-19
14,-19,-34,2,24,-26,4,-14,-68,-117,-39,-19
9,-19,-29,4,19,-24,4,-19,-68,-117,-39,-19
9,-24,-34,7,21,-29,4,-19,-68,-117,-39,-19
9,-24,-34,7,21,-29,4,-19,-63,-117,-43,-19
0,-24,-24,12,12,-24,14,-19,-58,-112,-43,-19
4,-24,-29,9,17,-26,14,-19,-58,-112,-39,-24
4,-24,-29,9,17,-26,19,-14,-58,-112,-39,-24
4,-24,-29,9,17,-26,19,-14,-58,-112,-39,-24
-9,-34,-24,21,7,-29,14,-24,-48,-131,-53,-34
-9,-39,-29,24,9,-34,9,-19,-48,-122,-53,-34
-9,-39,-29,24,9,-34,4,-14,-39,-112,-48,-34
-9,-39,-29,24,9,-34,0,-14,-34,-112,-48,-34
0,-39,-39,19,19,-39,0,-14,-39,-102,-43,-34
4,-34,-39,14,21,-36,4,-9,-34,-97,-39,-34
4,-34,-39,14,21,-36,4,-9,-34,-92,-34,-29
4,-29,-34,12,19,-31,4,-9,-34,-87,-34,-29
4,-39,-43,17,24,-41,14,4,-19,-92,-34,-39
0,-43,-43,21,21,-43,14,4,-19,-92,-34,-39
0,-43,-43,21,21,-43,14,4,-9,-92,-34,-34
0,-43,-43,21,21,-43,14,9,-9,-87,-29,-29
9,-39,-48,14,29,-43,14,14,-4,-87,-24,-29
14,-39,-53,12,34,-46,14,14,-4,-78,-14,-29
14,-29,-43,7,29,-36,14,19,0,-78,-14,-29
14,-39,-53,12,34,-46,14,19,4,-73,-19,-29
9,-29,-39,9,24,-34,14,24,9,-63,-9,-14
9,-29,-39,9,24,-34,19,24,9,-58,-9,-14
4,-24,-29,9,17,-26,19,29,19,-58,-9,-14
4,-24,-29,9,17,-26,19,29,19,-58,-9,-14
4,-24,-29,9,17,-26,24,29,24,-58,-9,-14
4,-29,-34,12,19,-31,24,29,24,-53,-4,-14
4,-29,-34,12,19,-31,24,29,24,-48,-4,-14
4,-29,-34,12,19,-31,24,29,29,-48,4,-14
4,-24,-29,9,17,-26,39,43,39,-48,4,-14
4,-24,-29,9,17,-26,43,43,39,-43,4,-14
-4,-24,-19,14,7,-21,43,43,34,-43,4,-19
-4,-34,-29,19,12,-31,43,43,34,-48,4,-19
-14,-48,-34,31,9,-41,39,34,34,-58,-9,-29
-14,-48,-34,31,9,-41,24,34,29,-48,-9,-29
-14,-48,-34,31,9,-41,19,34,29,-48,-9,-29
-14,-43,-29,29,7,-36,14,34,34,-39,-9,-34
-9,-48,-39,29,14,-43,24,43,34,-39,0,-34
-4,-43,-39,24,17,-41,24,43,34,-39,0,-29
0,-39,-39,19,19,-39,29,43,34,-39,0,-24
4,-34,-39,14,21,-36,29,43,34,-39,0,-19
9,-29,-39,9,24,-34,34,43,39,-39,0,-19
9,-34,-43,12,26,-39,34,43,39,-39,0,-19
9,-19,-29,4,19,-24,34,43,34,-39,0,-19
9,-14,-24,2,17,-19,34,43,34,-43,-4,-24
0,-14,-14,7,7,-14,34,39,39,-48,-9,-34
0,-14,-14,7,7,-14,34,39,39,-48,-14,-34
0,-24,-24,12,12,-24,34,39,34,-53,-14,-34
-9,-24,-14,17,2,-19,34,39,34,-53,-14,-34
-9,-24,-14,17,2,-19,34,34,24,-53,-9,-24
-9,-24,-14,17,2,-19,34,34,24,-53,-4,-24
-9,-24,-14,17,2,-19,34,29,24,-53,-4,-24
-9,-24,-14,17,2,-19,34,29,19,-63,-4,-29
-19,-34,-14,26,-2,-24,43,29,14,-63,-19,-39
-19,-34,-14,26,-2,-24,43,24,14,-63,-24,-39
-19,-34,-14,26,-2,-24,43,24,14,-63,-29,-39
-19,-34,-14,26,-2,-24,43,29,14,-68,-39,-39
-29,-43,-14,36,-7,-29,43,19,9,-73,-29,-48
-29,-43,-14,36,-7,-29,39,14,4,-73,-29,-48
-29,-43,-14,36,-7,-29,29,14,4,-68,-29,-48
-29,-43,-14,36,-7,-29,24,14,4,-68,-29,-48
-24,-29,-4,26,-9,-17,34,19,4,-68,-29,-39
-19,-29,-9,24,-4,-19,34,19,4,-78,-29,-43
-9,-29,-19,19,4,-24,34,19,4,-78,-29,-43
-4,-29,-24,17,9,-26,34,19,4,-78,-29,-39
-4,-39,-34,21,14,-36,34,19,4,-82,-39,-48
-14,-39,-24,26,4,-31,34,14,0,-87,-43,-48
-14,-39,-24,26,4,-31,34,14,-4,-87,-48,-48
-9,-39,-29,24,9,-34,34,14,-4,-87,-48,-48
-9,-39,-29,24,9,-34,34,9,-9,-87,-39,-43
-14,-39,-24,26,4,-31,34,9,-14,-92,-43,-48
-14,-39,-24,26,4,-31,34,9,-24,-92,-43,-48
-14,-39,-24,26,4,-31,34,9,-29,-92,-48,-43
-14,-39,-24,26,4,-31,34,9,-19,-92,-39,-43
-14,-43,-29,29,7,-36,34,4,-19,-97,-39,-48
-19,-43,-24,31,2,-34,34,4,-19,-97,-48,-48
-19,-43,-24,31,2,-34,34,4,-24,-97,-48,-53
-19,-39,-19,29,0,-29,34,-4,-24,-97,-48,-48
-19,-39,-19,29,0,-29,34,-4,-34,-102,-48,-53
-19,-39,-19,29,0,-29,34,-4,-34,-102,-48,-53
-19,-39,-19,29,0,-29,34,-4,-29,-102,-48,-48
-29,-43,-14,36,-7,-29,34,-4,-39,-107,-63,-53
-34,-53,-19,43,-7,-36,34,-14,-43,-112,-68,-58
-39,-63,-24,51,-7,-43,34,-14,-48,-117,-73,-63
-43,-73,-29,58,-7,-51,29,-19,-48,-122,-78,-68
-34,-68,-34,51,0,-51,24,-9,-39,-112,-68,-58
-24,-58,-34,41,4,-46,24,-4,-39,-112,-68,-58
-14,-43,-29,29,7,-36,29,-4,-39,-122,-73,-58
-4,-34,-29,19,12,-31,29,-4,-39,-122,-73,-58
-14,-39,-24,26,4,-31,29,-4,-48,-122,-73,-58
-14,-39,-24,26,4,-31,34,-9,-53,-122,-73,-63
-14,-39,-24,26,4,-31,34,-9,-53,-122,-73,-63
-14,-39,-24,26,4,-31,29,-9,-48,-122,-73,-63
-14,-39,-24,26,4,-31,29,-14,-48,-112,-58,-63
-14,-39,-24,26,4,-31,29,-14,-58,-117,-58,-63
-14,-39,-24,26,4,-31,29,-14,-58,-117,-68,-63
-14,-39,-24,26,4,-31,29,-14,-58,-117,-68,-63
-19,-39,-19,29,0,-29,29,-14,-58,-117,-68,-63
-19,-48,-29,34,4,-39,29,-14,-63,-117,-73,-63
-19,-48,-29,34,4,-39,29,-19,-63,-122,-73,-63
-19,-48,-29,34,4,-39,29,-19,-73,-122,-73,-68
-29,-48,-19,39,-4,-34,29,-19,-63,-122,-73,-58
-29,-48,-19,39,-4,-34,29,-19,-63,-122,-73,-58
-29,-48,-19,39,-4,-34,24,-19,-63,-122,-73,-58
-29,-48,-19,39,-4,-34,24,-19,-63,-122,-73,-58
-29,-48,-19,39,-4,-34,34,-19,-63,-126,-78,-68
-29,-48,-19,39,-4,-34,34,-19,-63,-126,-78,-63
-34,-48,-14,41,-9,-31,34,-19,-63,-126,-78,-63
-34,-48,-14,41,-9,-31,34,-19,-63,-126,-78,-63
-29,-53,-24,41,-2,-39,24,-19,-63,-126,-82,-73
-29,-53,-24,41,-2,-39,19,-24,-63,-126,-82,-73
-29,-58,-29,43,0,-43,19,-29,-68,-136,-82,-78
-29,-63,-34,46,2,-48,19,-29,-68,-136,-87,-78
-34,-73,-39,53,2,-56,19,-19,-68,-131,-92,-78
-34,-73,-39,53,2,-56,19,-19,-68,-131,-92,-78
-29,-73,-43,51,7,-58,19,-14,-68,-131,-92,-73
-29,-68,-39,48,4,-53,24,-14,-68,-131,-92,-73
-29,-53,-24,41,-2,-39,24,-24,-78,-122,-87,-63
-34,-53,-19,43,-7,-36,24,-24,-78,-126,-82,-68
-34,-63,-29,48,-2,-46,19,-29,-78,-126,-82,-68
-29,-63,-34,46,2,-48,19,-29,-82,-126,-92,-68
-19,-58,-39,39,9,-48,19,-29,-73,-136,-92,-68
-19,-58,-39,39,9,-48,24,-24,-68,-136,-92,-68
-19,-53,-34,36,7,-43,24,-24,-68,-141,-92,-68
-19,-53,-34,36,7,-43,24,-29,-73,-141,-92,-68
-29,-53,-24,41,-2,-39,24,-29,-82,-136,-82,-68
-24,-53,-29,39,2,-41,24,-29,-82,-136,-82,-68
-24,-53,-29,39,2,-41,29,-29,-82,-126,-82,-68
-29,-53,-24,41,-2,-39,29,-29,-82,-122,-82,-68
-34,-63,-29,48,-2,-46,29,-29,-82,-131,-92,-68
-34,-58,-24,46,-4,-41,24,-29,-82,-136,-92,-68
-24,-48,-24,36,0,-36,24,-29,-82,-136,-92,-68
-24,-63,-39,43,7,-51,29,-29,-82,-136,-92,-68
-19,-43,-24,31,2,-34,19,-34,-92,-141,-92,-68
-24,-53,-29,39,2,-41,19,-34,-92,-141,-92,-78
-29,-48,-19,39,-4,-34,29,-39,-87,-126,-87,-78
-39,-53,-14,46,-12,-34,19,-29,-87,-136,-97,-87
-39,-58,-19,48,-9,-39,19,-29,-87,-136,-97,-87
-39,-63,-24,51,-7,-43,19,-29,-87,-136,-97,-87
-39,-68,-29,53,-4,-48,19,-29,-87,-136,-97,-87
-34,-63,-29,48,-2,-46,29,-29,-78,-126,-87,-78
-29,-58,-29,43,0,-43,29,-29,-78,-126,-87,-78
-24,-53,-29,39,2,-41,29,-29,-78,-126,-87,-78
-19,-48,-29,34,4,-39,29,-29,-78,-126,-87,-78
-9,-43,-34,26,12,-39,29,-19,-78,-117,-87,-68
-9,-39,-29,24,9,-34,29,-19,-78,-117,-87,-68
-9,-34,-24,21,7,-29,29,-19,-78,-117,-87,-68
-9,-29,-19,19,4,-24,29,-19,-78,-117,-87,-68
-19,-19,0,19,-9,-9,43,-9,-63,-107,-87,-58
-19,-19,0,19,-9,-9,48,-9,-58,-107,-87,-58
-19,-19,0,19,-9,-9,53,-9,-53,-107,-87,-58
-19,-19,0,19,-9,-9,58,-9,-48,-107,-87,-58
-19,-9,9,14,-14,0,63,0,-48,-97,-82,-48
-19,-9,9,14,-14,0,68,0,-48,-97,-78,-48
-19,-9,9,14,-14,0,73,0,-48,-97,-73,-48
-19,-9,9,14,-14,0,78,0,-48,-97,-68,-48
-29,-9,19,19,-24,4,87,9,-39,-92,-58,-39
-29,-9,19,19,-24,4,87,9,-39,-87,-58,-39
-29,-9,19,19,-24,4,87,9,-39,-82,-58,-39
-29,-9,19,19,-24,4,87,9,-39,-78,-58,-39
-14,0,14,7,-14,7,87,14,-24,-73,-48,-29
-9,9,19,0,-14,14,87,19,-19,-68,-48,-29
-4,19,24,-7,-14,21,87,24,-14,-63,-48,-29
0,29,29,-14,-14,29,87,29,-9,-58,-48,-29
-9,19,29,-4,-19,24,87,39,-9,-58,-48,-29
-9,19,29,-4,-19,24,87,39,-9,-58,-43,-29
-9,19,29,-4,-19,24,78,39,-4,-53,-43,-29
-4,14,19,-4,-12,17,73,34,-4,-53,-43,-29
9,4,-4,-7,7,0,68,29,-4,-58,-43,-14
19,4,-14,-12,17,-4,58,14,-9,-58,-39,-14
19,0,-19,-9,19,-9,39,9,-14,-63,-39,-14
19,-4,-24,-7,21,-14,24,0,-29,-68,-48,-24
9,-19,-29,4,19,-24,9,-9,-39,-82,-53,-34
9,-19,-29,4,19,-24,0,-19,-48,-97,-58,-43
14,-19,-34,2,24,-26,-19,-34,-58,-107,-68,-48
14,-29,-43,7,29,-36,-29,-39,-63,-112,-73,-53
4,-29,-34,12,19,-31,-34,-48,-73,-112,-78,-53
9,-34,-43,12,26,-39,-34,-48,-82,-117,-78,-53
9,-34,-43,12,26,-39,-39,-53,-87,-122,-78,-53
9,-34,-43,12,26,-39,-39,-58,-87,-122,-78,-53
19,-24,-43,2,31,-34,-48,-63,-92,-126,-78,-48
19,-24,-43,2,31,-34,-48,-63,-102,-136,-87,-53
19,-24,-43,2,31,-34,-53,-73,-112,-146,-97,-58
14,-29,-43,7,29,-36,-68,-82,-122,-146,-97,-63
14,-29,-43,7,29,-36,-78,-97,-141,-161,-112,-78
14,-24,-39,4,26,-31,-87,-107,-151,-170,-117,-78
14,-24,-39,4,26,-31,-97,-117,-161,-180,-122,-82
9,-29,-39,9,24,-34,-97,-122,-170,-180,-131,-87
0,-43,-43,21,21,-43,-97,-112,-161,-175,-136,-87
4,-43,-48,19,26,-46,-97,-112,-161,-175,-136,-87
4,-39,-43,17,24,-41,-97,-112,-161,-170,-126,-82
19,-29,-48,4,34,-39,-82,-102,-146,-151,-117,-78
34,-14,-48,-9,41,-31,-68,-82,-131,-141,-92,-53
34,-14,-48,-9,41,-31,-58,-73,-122,-136,-92,-53
34,-14,-48,-9,41,-31,-48,-68,-112,-136,-87,-53
29,-14,-43,-7,36,-29,-48,-63,-112,-131,-82,-53
29,-14,-43,-7,36,-29,-43,-53,-102,-122,-82,-53
29,-14,-43,-7,36,-29,-39,-53,-102,-122,-82,-48
34,-14,-48,-9,41,-31,-34,-48,-102,-122,-82,-48
39,-4,-43,-17,41,-24,-34,-48,-97,-117,-78,-43
29,-4,-34,-12,31,-19,-43,-58,-107,-126,-78,-43
29,-9,-39,-9,34,-24,-43,-58,-107,-126,-78,-43
29,-14,-43,-7,36,-29,-43,-53,-107,-122,-78,-43
29,-14,-43,-7,36,-29,-34,-53,-107,-122,-73,-39
34,-19,-53,-7,43,-36,-29,-48,-102,-122,-73,-39
29,-29,-58,0,43,-43,-24,-48,-102,-122,-73,-39
24,-29,-53,2,39,-41,-19,-48,-102,-117,-73,-39
19,-34,-53,7,36,-43,-19,-43,-92,-117,-63,-39
19,-39,-58,9,39,-48,-19,-43,-92,-117,-73,-48
19,-39,-58,9,39,-48,-19,-48,-102,-126,-82,-58
14,-39,-53,12,34,-46,-19,-53,-107,-131,-87,-63
9,-43,-53,17,31,-48,-19,-53,-112,-131,-92,-68
-9,-53,-43,31,17,-48,-19,-63,-102,-136,-97,-63
-9,-58,-48,34,19,-53,-19,-68,-102,-141,-102,-63
-9,-63,-53,36,21,-58,-14,-68,-107,-146,-107,-73
-14,-68,-53,41,19,-61,-14,-68,-107,-146,-107,-73
-24,-78,-53,51,14,-65,0,-43,-107,-136,-117,-78
-34,-82,-48,58,7,-65,9,-39,-107,-136,-117,-78
-39,-87,-48,63,4,-68,9,-39,-107,-136,-117,-82
-39,-92,-53,65,7,-73,9,-39,-112,-146,-122,-87
-53,-92,-39,73,-7,-65,9,-43,-126,-156,-126,-92
-53,-92,-39,73,-7,-65,19,-43,-126,-156,-126,-92
-53,-87,-34,70,-9,-61,19,-39,-122,-151,-126,-92
-53,-87,-34,70,-9,-61,19,-39,-122,-151,-126,-92
-53,-97,-43,75,-4,-70,19,-39,-122,-151,-126,-102
-53,-97,-43,75,-4,-70,24,-39,-122,-156,-131,-107
-53,-97,-43,75,-4,-70,24,-34,-122,-156,-131,-107
-53,-97,-43,75,-4,-70,24,-34,-122,-156,-131,-107
-53,-97,-43,75,-4,-70,24,-34,-122,-156,-122,-92
-53,-97,-43,75,-4,-70,24,-34,-122,-156,-117,-92
-53,-97,-43,75,-4,-70,19,-39,-122,-151,-117,-92
-53,-97,-43,75,-4,-70,19,-39,-122,-151,-117,-87
-53,-92,-39,73,-7,-65,29,-39,-112,-141,-117,-87
-48,-92,-43,70,-2,-68,29,-39,-107,-141,-117,-87
-48,-87,-39,68,-4,-63,29,-39,-107,-141,-117,-87
-48,-87,-39,68,-4,-63,29,-39,-107,-141,-117,-87
-58,-107,-48,82,-4,-78,29,-39,-117,-141,-122,-87
-58,-107,-48,82,-4,-78,29,-39,-117,-141,-122,-87
-58,-102,-43,80,-7,-73,29,-39,-117,-136,-122,-87
-53,-102,-48,78,-2,-75,29,-39,-117,-136,-122,-82
-58,-97,-39,78,-9,-68,24,-34,-112,-136,-112,-82
-53,-97,-43,75,-4,-70,34,-34,-102,-126,-107,-73
-48,-87,-39,68,-4,-63,34,-19,-97,-122,-97,-73
-34,-82,-48,58,7,-65,34,0,-82,-107,-92,-68
-19,-78,-58,48,19,-68,34,24,-63,-87,-78,-58
-19,-68,-48,43,14,-58,24,34,-39,-73,-68,-48
-19,-73,-53,46,17,-63,19,9,-39,-68,-78,-48
-34,-78,-43,56,4,-61,24,-34,-53,-78,-87,-73
-48,-92,-43,70,-2,-68,34,-92,-63,-87,-97,-82
-58,-102,-43,80,-7,-73,43,-156,-43,-78,-92,-82
-73,-112,-39,92,-17,-75,53,-229,-53,-68,-92,-87
-92,-126,-34,109,-29,-80,29,-322,-97,-102,-112,-97
-87,-146,-58,117,-14,-102,-39,-444,-165,-107,-107,-102
-39,-117,-78,78,19,-97,-126,-551,-195,-48,-24,-34
24,-68,-92,21,58,-80,-224,-624,-175,58,97,73
92,-43,-136,-24,114,-90,-317,-683,-165,165,229,185
146,-9,-156,-68,151,-82,-409,-756,-185,248,336,278
214,19,-195,-117,204,-87,-541,-873,-278,253,395,336
283,58,-224,-170,253,-82,-756,-1107,-522,175,409,380
341,112,-229,-226,285,-58,-1039,-1429,-824,63,429,448
419,200,-219,-309,319,-9,-1327,-1737,-1054,34,507,556
507,302,-204,-405,356,48,-1586,-1956,-1171,78,634,697
575,409,-165,-492,370,122,-1815,-2137,-1293,97,736,814
624,507,-117,-566,370,195,-2044,-2337,-1468,63,810,927
658,600,-58,-629,358,270,-2269,-2537,-1610,34,878,1034
712,722,9,-717,351,366,-2513,-2727,-1693,48,961,1141
751,824,73,-788,339,448,-2698,-2879,-1737,68,1044,1244
761,868,107,-814,326,488,-2771,-2971,-1800,29,1039,1263
771,878,107,-824,331,492,-2781,-2991,-1849,-53,980,1244
800,888,87,-844,356,488,-2762,-2967,-1908,-180,878,1205
810,868,58,-839,375,463,-2723,-2986,-2025,-419,644,1073
790,741,-48,-766,419,346,-2625,-2952,-2166,-741,312,844
780,468,-312,-624,546,78,-2415,-2771,-2264,-1049,-19,575
775,209,-566,-492,671,-178,-2161,-2522,-2332,-1337,-326,341
741,48,-692,-395,717,-322,-1937,-2371,-2400,-1576,-585,141
644,-63,-707,-290,675,-385,-1742,-2274,-2415,-1747,-819,-53
570,-175,-746,-197,658,-461,-1537,-2098,-2347,-1839,-990,-224
522,-273,-795,-124,658,-534,-1346,-1839,-2176,-1781,-1039,-322
468,-302,-771,-82,619,-536,-1180,-1615,-1922,-1605,-980,-341
429,-287,-717,-70,573,-502,-1019,-1400,-1654,-1395,-868,-326
380,-248,-629,-65,505,-439,-863,-1171,-1390,-1180,-741,-273
336,-209,-546,-63,441,-378,-727,-976,-1151,-976,-605,-209
283,-161,-444,-61,363,-302,-590,-805,-927,-795,-497,-165
224,-122,-346,-51,285,-234,-453,-614,-722,-629,-395,-136
156,-107,-263,-24,209,-185,-326,-458,-536,-483,-312,-112
107,-82,-190,-12,148,-136,-224,-326,-395,-351,-239,-82
63,-73,-136,4,100,-104,-146,-229,-287,-278,-195,-87
19,-78,-97,29,58,-87,-73,-151,-204,-219,-175,-97
-29,-87,-58,58,14,-73,-9,-58,-117,-146,-136,-102
-34,-82,-48,58,7,-65,39,4,-48,-92,-107,-92
-29,-78,-48,53,9,-63,63,39,-19,-73,-87,-78
-48,-87,-39,68,-4,-63,92,58,-9,-68,-87,-87
-53,-102,-48,78,-2,-75,92,73,0,-53,-78,-78
-53,-102,-48,78,-2,-75,102,78,0,-53,-78,-82
-53,-107,-53,80,0,-80,102,82,4,-48,-78,-87
-58,-107,-48,82,-4,-78,112,87,9,-48,-82,-87
-48,-97,-48,73,0,-73,112,102,19,-48,-92,-87
-53,-97,-43,75,-4,-70,122,107,19,-48,-92,-87
-58,-97,-39,78,-9,-68,122,112,24,-43,-87,-87
-58,-102,-43,80,-7,-73,122,112,24,-43,-87,-87
-63,-102,-39,82,-12,-70,131,112,29,-43,-102,-102
-63,-102,-39,82,-12,-70,136,117,39,-43,-102,-102
-73,-102,-29,87,-21,-65,136,122,39,-43,-102,-107
-73,-102,-29,87,-21,-65,136,122,39,-43,-107,-107
-82,-112,-29,97,-26,-70,146,122,39,-43,-107,-107
-87,-112,-24,100,-31,-68,151,122,43,-39,-107,-107
-87,-117,-29,102,-29,-73,151,122,43,-39,-102,-107
-87,-117,-29,102,-29,-73,156,126,43,-34,-102,-102
-78,-126,-48,102,-14,-87,156,126,48,-34,-107,-102
-78,-126,-48,102,-14,-87,156,131,48,-39,-107,-102
-87,-136,-48,112,-19,-92,156,131,48,-39,-107,-112
-87,-136,-48,112,-19,-92,156,131,53,-39,-107,-112
-73,-126,-53,100,-9,-90,161,141,53,-39,-102,-107
-73,-122,-48,97,-12,-85,161,141,53,-34,-97,-102
-68,-112,-43,90,-12,-78,161,146,58,-34,-92,-97
-68,-102,-34,85,-17,-68,165,146,58,-34,-87,-92
-78,-112,-34,95,-21,-73,165,146,58,-34,-87,-102
-78,-112,-34,95,-21,-73,165,151,58,-34,-87,-102
-78,-112,-34,95,-21,-73,165,151,58,-29,-87,-102
-78,-112,-34,95,-21,-73,170,151,63,-29,-87,-107
-82,-117,-34,100,-24,-75,161,151,63,-29,-97,-107
-82,-117,-34,100,-24,-75,161,151,63,-34,-102,-112
-82,-117,-34,100,-24,-75,165,151,63,-34,-102,-112
-82,-117,-34,100,-24,-75,165,151,63,-29,-102,-112
-82,-107,-24,95,-29,-65,170,146,63,-29,-102,-112
-78,-107,-29,92,-24,-68,170,146,68,-29,-102,-112
-78,-107,-29,92,-24,-68,175,146,68,-29,-102,-112
-82,-107,-24,95,-29,-65,175,146,68,-29,-102,-112
-73,-117,-43,95,-14,-80,185,161,68,-19,-102,-112
-73,-117,-43,95,-14,-80,185,165,68,-19,-107,-112
-78,-122,-43,100,-17,-82,185,165,68,-19,-107,-112
-78,-122,-43,100,-17,-82,190,165,73,-19,-107,-112
-87,-131,-43,109,-21,-87,185,156,73,-19,-107,-112
-87,-131,-43,109,-21,-87,180,156,73,-19,-107,-117
-87,-131,-43,109,-21,-87,175,156,73,-19,-112,-122
-87,-126,-39,107,-24,-82,170,156,73,-19,-112,-122
-87,-117,-29,102,-29,-73,180,165,73,-19,-102,-112
-92,-117,-24,104,-34,-70,180,165,73,-19,-102,-112
-92,-122,-29,107,-31,-75,185,170,73,-19,-102,-117
-92,-122,-29,107,-31,-75,185,170,73,-19,-102,-117
-92,-122,-29,107,-31,-75,185,165,78,-19,-112,-126
-92,-122,-29,107,-31,-75,185,165,78,-19,-112,-126
-92,-117,-24,104,-34,-70,185,175,82,-14,-107,-126
-92,-117,-24,104,-34,-70,190,175,82,-14,-107,-131
-92,-112,-19,102,-36,-65,190,185,97,-19,-107,-126
-92,-112,-19,102,-36,-65,195,185,97,-19,-107,-126
-92,-112,-19,102,-36,-65,195,195,97,-14,-107,-126
-92,-117,-24,104,-34,-70,200,195,102,-14,-107,-126
-102,-126,-24,114,-39,-75,200,195,102,-14,-107,-126
-102,-126,-24,114,-39,-75,200,195,102,-9,-107,-126
-97,-126,-29,112,-34,-78,200,200,112,-9,-107,-126
-92,-126,-34,109,-29,-80,209,200,112,-9,-107,-126
-102,-136,-34,119,-34,-85,200,209,112,-9,-107,-136
-102,-131,-29,117,-36,-80,200,214,122,-4,-102,-136
-102,-131,-29,117,-36,-80,204,214,122,-4,-102,-136
-102,-136,-34,119,-34,-85,209,214,122,-4,-102,-136
-102,-136,-34,119,-34,-85,219,224,122,4,-112,-131
-102,-136,-34,119,-34,-85,219,229,131,4,-112,-131
-102,-136,-34,119,-34,-85,224,234,136,9,-112,-131
-102,-136,-34,119,-34,-85,224,239,136,9,-112,-131
-102,-136,-34,119,-34,-85,224,239,126,14,-107,-131
-102,-136,-34,119,-34,-85,229,244,136,14,-107,-136
-102,-136,-34,119,-34,-85,229,248,141,14,-102,-136
-102,-131,-29,117,-36,-80,234,253,146,19,-97,-136
-92,-122,-29,107,-31,-75,239,263,146,24,-97,-136
-92,-122,-29,107,-31,-75,244,268,156,29,-92,-136
-92,-122,-29,107,-31,-75,248,273,161,29,-92,-136
-97,-122,-24,109,-36,-73,248,278,165,34,-92,-141
-87,-112,-24,100,-31,-68,248,283,170,34,-92,-141
-92,-112,-19,102,-36,-65,248,292,175,39,-92,-141
-92,-117,-24,104,-34,-70,253,297,180,43,-92,-141
-92,-117,-24,104,-34,-70,258,302,185,48,-87,-136
-92,-112,-19,102,-36,-65,263,307,195,53,-97,-136
-97,-112,-14,104,-41,-63,273,312,200,58,-87,-136
-102,-107,-4,104,-48,-56,273,312,204,63,-87,-136
-112,-107,4,109,-58,-51,273,322,209,68,-87,-131
-107,-107,0,107,-53,-53,283,336,219,63,-87,-131
-107,-107,0,107,-53,-53,283,341,229,68,-87,-131
-107,-102,4,104,-56,-48,287,351,244,78,-87,-131
-107,-97,9,102,-58,-43,292,351,253,82,-82,-131
-107,-107,0,107,-53,-53,292,370,253,87,-73,-131
-112,-102,9,107,-61,-46,297,380,268,92,-73,-131
-112,-102,9,107,-61,-46,307,395,278,97,-73,-131
-107,-102,4,104,-56,-48,312,400,287,102,-73,-131
-107,-102,4,104,-56,-48,326,400,287,112,-63,-131
-117,-102,14,109,-65,-43,331,409,297,122,-58,-126
-117,-102,14,109,-65,-43,336,419,302,131,-58,-126
-117,-102,14,109,-65,-43,341,429,307,136,-48,-122
-126,-97,29,112,-78,-34,336,439,326,141,-53,-131
-131,-92,39,112,-85,-26,346,448,336,151,-48,-126
-131,-87,43,109,-87,-21,346,458,346,156,-43,-122
-131,-87,43,109,-87,-21,346,468,361,170,-34,-117
-126,-73,53,100,-90,-9,366,483,380,190,-24,-117
-122,-63,58,92,-90,-2,380,502,395,200,-14,-107
-117,-58,58,87,-87,0,385,512,405,204,-9,-107
-112,-53,58,82,-85,2,390,522,419,214,-9,-112
-122,-58,63,90,-92,2,395,536,434,224,-9,-102
-122,-58,63,90,-92,2,405,546,444,234,-4,-102
-131,-58,73,95,-102,7,409,561,458,239,0,-97
-131,-58,73,95,-102,7,414,570,473,258,9,-92
-122,-39,82,80,-102,21,424,580,492,278,29,-87
-122,-39,82,80,-102,21,429,595,507,287,29,-87
-117,-29,87,73,-102,29,439,610,527,307,39,-82
-117,-24,92,70,-104,34,444,624,541,317,48,-73
-122,-29,92,75,-107,31,444,629,551,326,53,-68
-131,-29,102,80,-117,36,444,639,566,331,53,-63
-136,-19,117,78,-126,48,444,649,580,351,68,-58
-151,-9,141,80,-146,65,448,663,600,375,82,-53
-141,-9,131,75,-136,61,458,673,614,390,102,-43
-141,0,141,70,-141,70,463,683,629,405,107,-39
-141,4,146,68,-143,75,468,692,649,419,117,-34
-146,9,156,68,-151,82,473,702,668,434,126,-24
-146,14,161,65,-153,87,468,712,678,439,136,-19
-146,19,165,63,-156,92,468,722,697,453,146,-14
-146,24,170,61,-158,97,473,732,707,468,161,-4
-146,34,180,56,-163,107,473,741,722,483,175,0
-146,53,200,46,-173,126,488,751,736,497,175,4
-146,58,204,43,-175,131,488,756,751,512,180,14
-141,73,214,34,-178,143,488,766,766,531,190,24
-141,73,214,34,-178,143,488,766,771,541,209,29
-151,78,229,36,-190,153,488,756,780,566,219,34
-151,92,244,29,-197,168,488,761,800,575,234,43
-151,102,253,24,-202,178,488,761,810,585,244,53
-151,107,258,21,-204,183,483,766,829,605,258,63
-146,131,278,7,-212,204,492,775,849,624,273,82
-146,131,278,7,-212,204,488,775,858,639,287,97
-146,136,283,4,-214,209,488,766,863,644,297,102
-146,141,287,2,-217,214,478,761,863,653,307,112
-146,151,297,-2,-222,224,463,751,868,663,322,126
-146,156,302,-4,-224,229,463,741,873,673,331,136
-136,161,297,-12,-217,229,453,732,878,678,336,141
-126,175,302,-24,-214,239,444,727,878,688,346,156
-126,170,297,-21,-212,234,419,712,878,702,375,170
-122,180,302,-29,-212,241,414,692,868,707,380,180
-117,180,297,-31,-207,239,400,678,863,707,380,185
-117,190,307,-36,-212,248,390,668,854,702,390,195
-117,195,312,-39,-214,253,380,644,844,688,390,195
-107,200,307,-46,-207,253,375,629,834,683,395,209
-102,209,312,-53,-207,261,356,605,814,678,395,219
-97,209,307,-56,-202,258,341,585,795,663,395,219
-97,214,312,-58,-204,263,317,566,780,653,405,234
-97,214,312,-58,-204,263,302,541,761,649,400,239
-87,214,302,-63,-195,258,287,522,741,639,400,239
-82,209,292,-63,-187,251,273,497,707,629,390,244
-87,209,297,-61,-192,253,268,473,692,610,385,244
-82,209,292,-63,-187,251,253,448,668,585,385,244
-82,209,292,-63,-187,251,239,429,644,570,370,248
-82,195,278,-56,-180,236,224,405,610,551,361,248
-68,204,273,-68,-170,239,214,380,580,527,366,248
-58,200,258,-70,-158,229,204,356,551,507,351,248
-43,195,239,-75,-141,217,185,331,522,483,341,244
-39,190,229,-75,-134,209,170,307,488,453,331,234
-39,180,219,-70,-129,200,156,273,453,424,326,239
-39,170,209,-65,-124,190,136,258,424,409,312,234
-39,161,200,-61,-119,180,131,239,395,385,302,224
-39,141,180,-51,-109,161,122,219,366,361,283,209
-34,131,165,-48,-100,148,112,209,336,326,253,204
-34,126,161,-46,-97,143,102,190,297,307,239,195
-29,117,146,-43,-87,131,87,175,273,283,229,185
-19,112,131,-46,-75,122,82,156,248,258,209,175
0,117,117,-58,-58,117,73,146,234,248,204,175
4,112,107,-58,-51,109,63,131,214,229,190,170
14,102,87,-58,-36,95,58,117,195,219,175,165
19,102,82,-61,-31,92,58,107,180,195,161,156
14,87,73,-51,-29,80,39,97,151,175,136,136
14,78,63,-46,-24,70,34,87,131,156,122,126
24,63,39,-43,-7,51,29,68,117,131,107,117
24,58,34,-41,-4,46,24,63,97,112,92,107
24,58,34,-41,-4,46,19,58,82,92,87,97
24,48,24,-36,0,36,14,48,68,82,68,87
24,39,14,-31,4,26,9,39,58,68,58,82
24,24,0,-24,12,12,4,34,43,58,53,73
9,19,9,-14,0,14,14,29,34,53,43,63
9,14,4,-12,2,9,9,24,24,43,34,63
9,14,4,-12,2,9,4,19,14,34,24,58
14,9,-4,-12,9,2,4,14,4,34,24,53
14,0,-14,-7,14,-7,-4,4,-9,24,24,39
19,0,-19,-9,19,-9,0,4,-9,19,14,34
24,0,-24,-12,24,-12,0,4,-14,9,4,24
24,-9,-34,-7,29,-21,-4,0,-19,-14,-4,14
19,-4,-24,-7,21,-14,4,4,-14,-4,0,19
14,-4,-19,-4,17,-12,4,4,-19,-9,0,19
14,-9,-24,-2,19,-17,4,4,-19,-14,-4,19
19,-9,-29,-4,24,-19,4,4,-19,-14,-4,19
29,-9,-39,-9,34,-24,-4,-4,-24,-14,0,24
29,-9,-39,-9,34,-24,-4,-4,-29,-14,0,24
29,-9,-39,-9,34,-24,-4,-4,-39,-14,0,24
24,-19,-43,-2,34,-31,-4,-4,-48,-19,-9,19
14,-19,-34,2,24,-26,4,4,-39,-9,0,19
9,-19,-29,4,19,-24,4,0,-39,-9,0,19
9,-24,-34,7,21,-29,4,0,-39,-9,0,19
9,-24,-34,7,21,-29,4,0,-34,-9,-4,19
9,-34,-43,12,26,-39,4,0,-19,-9,-19,14
14,-34,-48,9,31,-41,4,0,-19,-14,-19,4
14,-34,-48,9,31,-41,9,4,-19,-19,-24,0
14,-34,-48,9,31,-41,9,4,-19,-24,-29,-4
9,-34,-43,12,26,-39,9,4,-19,-24,-24,4
9,-39,-48,14,29,-43,9,9,-19,-14,-24,4
9,-39,-48,14,29,-43,9,14,-9,-4,-19,4
9,-39,-48,14,29,-43,9,14,-4,-4,-19,4
0,-48,-48,24,24,-48,0,14,-9,-14,-14,14
4,-43,-48,19,26,-46,4,19,-4,-9,-9,14
4,-43,-48,19,26,-46,4,19,-4,-4,-4,19
4,-39,-43,17,24,-41,4,19,-4,0,-4,19
9,-34,-43,12,26,-39,14,24,0,14,0,29
9,-34,-43,12,26,-39,14,24,0,14,4,29
14,-29,-43,7,29,-36,14,24,9,14,9,34
19,-24,-43,2,31,-34,14,29,9,19,19,39
9,-29,-39,9,24,-34,14,34,14,19,19,34
14,-29,-43,7,29,-36,14,34,14,29,24,29
14,-19,-34,2,24,-26,14,39,19,29,19,24
14,-29,-43,7,29,-36,14,39,24,34,9,19
9,-39,-48,14,29,-43,14,43,29,34,9,24
9,-39,-48,14,29,-43,19,43,29,39,9,24
4,-34,-39,14,21,-36,19,48,39,39,9,24
4,-34,-39,14,21,-36,19,48,39,39,9,24
14,-24,-39,4,26,-31,24,48,34,39,19,24
14,-29,-43,7,29,-36,24,48,34,43,24,24
14,-29,-43,7,29,-36,24,48,34,48,24,24
14,-29,-43,7,29,-36,24,48,39,48,34,24
14,-24,-39,4,26,-31,19,53,48,39,24,24
14,-24,-39,4,26,-31,24,53,48,43,24,24
4,-24,-29,9,17,-26,24,53,43,43,24,19
4,-34,-39,14,21,-36,24,53,43,39,24,19
14,-24,-39,4,26,-31,34,53,53,39,29,19
14,-19,-34,2,24,-26,24,53,48,48,29,19
14,-14,-29,0,21,-21,24,53,48,48,29,19
14,-4,-19,-4,17,-12,24,53,53,58,29,14
4,-24,-29,9,17,-26,24,53,53,48,29,14
4,-24,-29,9,17,-26,24,53,53,48,29,19
4,-24,-29,9,17,-26,29,53,53,48,29,24
4,-24,-29,9,17,-26,29,53,53,48,29,29
0,-24,-24,12,12,-24,24,53,58,48,29,29
0,-34,-34,17,17,-34,24,53,58,48,29,29
0,-24,-24,12,12,-24,24,53,53,48,29,29
0,-24,-24,12,12,-24,24,53,53,43,24,24
0,-14,-14,7,7,-14,34,58,58,39,19,24
0,-14,-14,7,7,-14,34,58,58,39,14,24
0,-24,-24,12,12,-24,34,58,53,34,14,24
-9,-24,-14,17,2,-19,34,58,53,34,14,24
0,-34,-34,17,17,-34,34,63,43,34,9,14
0,-34,-34,17,17,-34,34,63,43,34,14,14
0,-34,-34,17,17,-34,34,58,43,34,14,14
0,-34,-34,17,17,-34,34,58,39,24,14,9
-9,-24,-14,17,2,-19,34,48,34,29,14,14
-9,-24,-14,17,2,-19,34,43,34,34,14,19
-9,-24,-14,17,2,-19,34,43,34,39,14,24
-9,-24,-14,17,2,-19,34,48,34,39,9,29
-19,-34,-14,26,-2,-24,39,58,39,29,4,14
-19,-34,-14,26,-2,-24,39,53,34,24,0,9
-19,-34,-14,26,-2,-24,34,53,34,24,-4,4
-19,-34,-14,26,-2,-24,34,53,34,19,-9,0
-19,-39,-19,29,0,-29,34,39,24,19,-9,0
-19,-39,-19,29,0,-29,34,39,24,9,-9,-4
-14,-39,-24,26,4,-31,34,39,24,9,-9,-4
-14,-39,-24,26,4,-31,34,39,24,9,-9,0
-14,-48,-34,31,9,-41,34,29,4,4,-14,0
-24,-48,-24,36,0,-36,34,24,0,0,-14,0
-24,-48,-24,36,0,-36,34,24,-4,0,-14,0
-19,-48,-29,34,4,-39,34,24,-4,0,-9,0
-14,-34,-19,24,2,-26,34,29,4,0,0,4
-14,-29,-14,21,0,-21,34,29,4,-4,-4,0
-9,-24,-14,17,2,-19,34,29,0,-4,-4,0
-4,-19,-14,12,4,-17,34,29,0,-4,-9,4
-14,-24,-9,19,-2,-17,34,29,0,-4,-9,4
-14,-34,-19,24,2,-26,34,24,0,-9,-9,0
-19,-39,-19,29,0,-29,34,24,0,-9,-19,0
-19,-43,-24,31,2,-34,34,24,-4,-9,-19,-4
-24,-58,-34,41,4,-46,34,14,-14,-19,-29,-19
-29,-58,-29,43,0,-43,34,14,-24,-24,-29,-24
-34,-58,-24,46,-4,-41,34,14,-24,-24,-29,-24
-39,-58,-19,48,-9,-39,34,14,-19,-24,-29,-19
-29,-48,-19,39,-4,-34,34,24,-9,-19,-24,-14
-24,-43,-19,34,-2,-31,34,14,-14,-14,-19,-9
-19,-39,-19,29,0,-29,34,14,-19,-9,-14,-4
-14,-34,-19,24,2,-26,29,9,-19,-4,-9,0
-14,-43,-29,29,7,-36,14,9,-19,-9,-24,-4
-14,-48,-34,31,9,-41,14,14,-19,-14,-29,-9
-14,-48,-34,31,9,-41,19,14,-19,-29,-39,-14
-14,-53,-39,34,12,-46,19,14,-19,-34,-43,-19
-4,-48,-43,26,19,-46,29,14,-19,-24,-43,-19
-4,-48,-43,26,19,-46,34,9,-24,-24,-43,-24
-4,-48,-43,26,19,-46,34,9,-24,-24,-43,-24
-4,-48,-43,26,19,-46,29,9,-19,-24,-43,-24
-14,-48,-34,31,9,-41,29,4,-29,-24,-29,-24
-14,-48,-34,31,9,-41,29,4,-39,-29,-29,-24
-14,-48,-34,31,9,-41,29,4,-39,-29,-39,-24
-14,-48,-34,31,9,-41,29,4,-39,-29,-39,-24
-29,-58,-29,43,0,-43,29,4,-39,-39,-39,-24
-29,-68,-39,48,4,-53,29,4,-43,-39,-43,-24
-29,-68,-39,48,4,-53,29,0,-43,-43,-43,-24
-29,-68,-39,48,4,-53,29,0,-53,-43,-43,-29
-19,-68,-48,43,14,-58,29,0,-43,-34,-34,-19
-19,-68,-48,43,14,-58,29,0,-43,-34,-34,-19
-19,-68,-48,43,14,-58,24,0,-43,-34,-34,-19
-19,-68,-48,43,14,-58,24,0,-43,-34,-34,-19
-29,-68,-39,48,4,-53,14,-9,-34,-39,-39,-19
-29,-68,-39,48,4,-53,14,-9,-34,-39,-39,-14
-34,-68,-34,51,0,-51,14,-9,-34,-39,-39,-14
-34,-68,-34,51,0,-51,14,-9,-34,-39,-39,-14
-19,-58,-39,39,9,-48,24,0,-34,-39,-43,-24
-19,-53,-34,36,7,-43,19,-4,-34,-39,-43,-24
-19,-53,-34,36,7,-43,19,-9,-39,-48,-43,-29
-19,-53,-34,36,7,-43,19,-9,-39,-48,-48,-29
-24,-53,-29,39,2,-41,29,-9,-39,-43,-43,-29
-24,-53,-29,39,2,-41,29,-9,-39,-43,-43,-29
-19,-53,-34,36,7,-43,29,-4,-39,-43,-43,-24
-19,-48,-29,34,4,-39,34,-4,-39,-43,-43,-24
-19,-53,-34,36,7,-43,24,-4,-48,-43,-39,-24
-24,-53,-29,39,2,-41,24,-4,-48,-48,-34,-29
-24,-63,-39,43,7,-51,19,-9,-48,-48,-34,-29
-19,-63,-43,41,12,-53,19,-9,-53,-48,-43,-29
-29,-68,-39,48,4,-53,19,-9,-63,-48,-43,-29
-29,-68,-39,48,4,-53,24,-4,-58,-48,-43,-29
-29,-63,-34,46,2,-48,24,-4,-58,-53,-43,-29
-29,-63,-34,46,2,-48,24,-9,-63,-53,-43,-29
-19,-53,-34,36,7,-43,24,-9,-53,-48,-34,-19
-14,-53,-39,34,12,-46,24,-9,-53,-48,-34,-19
-14,-53,-39,34,12,-46,29,-9,-53,-39,-34,-19
-19,-53,-34,36,7,-43,29,-9,-53,-34,-34,-19
-34,-58,-24,46,-4,-41,24,-19,-53,-39,-39,-24
-34,-58,-24,46,-4,-41,14,-19,-53,-48,-43,-29
-24,-53,-29,39,2,-41,9,-19,-53,-53,-48,-34
-24,-73,-48,48,12,-61,9,-19,-53,-58,-53,-39
-19,-63,-43,41,12,-53,19,-14,-53,-43,-43,-29
-4,-53,-48,29,21,-51,29,-4,-34,-24,-34,-19
-9,-58,-48,34,19,-53,29,0,-39,-29,-29,-19
-14,-63,-48,39,17,-56,19,-9,-43,-39,-39,-19
-19,-68,-48,43,14,-58,19,-9,-48,-39,-39,-19
-24,-73,-48,48,12,-61,19,-9,-53,-39,-39,-19
-29,-78,-48,53,9,-63,19,-9,-58,-39,-39,-19
-19,-68,-48,43,14,-58,19,-9,-48,-39,-48,-29
-19,-68,-48,43,14,-58,19,-9,-48,-39,-48,-29
-19,-68,-48,43,14,-58,19,-9,-48,-39,-48,-29
-19,-68,-48,43,14,-58,19,-9,-48,-39,-48,-29
-9,-68,-58,39,24,-63,24,0,-48,-43,-58,-29
-9,-68,-58,39,24,-63,29,0,-48,-48,-58,-29
-9,-68,-58,39,24,-63,34,0,-48,-53,-58,-29
-9,-68,-58,39,24,-63,39,0,-48,-58,-58,-29
-19,-68,-48,43,14,-58,29,0,-48,-43,-53,-19
-19,-68,-48,43,14,-58,29,0,-48,-39,-48,-19
-19,-68,-48,43,14,-58,29,0,-48,-34,-43,-19
-19,-68,-48,43,14,-58,29,0,-48,-29,-39,-19
-9,-53,-43,31,17,-48,43,4,-43,-29,-29,-9
-9,-48,-39,29,14,-43,48,9,-39,-29,-29,-9
-9,-43,-34,26,12,-39,53,14,-34,-29,-29,-9
-9,-39,-29,24,9,-34,58,19,-29,-29,-29,-9
-19,-29,-9,24,-4,-19,68,29,-24,-19,-19,0
-19,-29,-9,24,-4,-19,78,29,-19,-19,-19,0
-19,-29,-9,24,-4,-19,87,29,-14,-19,-19,0
-19,-29,-9,24,-4,-19,97,29,-9,-19,-19,0
-19,-24,-4,21,-7,-14,87,39,-4,-14,-9,9
-19,-19,0,19,-9,-9,87,39,0,-9,-9,9
-19,-14,4,17,-12,-4,87,39,4,-4,-9,9
-19,-9,9,14,-14,0,87,39,9,0,-9,9
-14,-4,9,9,-12,2,97,43,14,4,-4,19
-9,0,9,4,-9,4,97,48,19,9,0,19
-4,4,9,0,-7,7,97,53,24,14,4,19
0,9,9,-4,-4,9,97,58,29,19,9,19
9,0,-9,-4,9,-4,97,58,19,9,4,19
9,0,-9,-4,9,-4,87,58,24,14,4,19
14,-4,-19,-4,17,-12,82,53,24,14,4,19
19,-4,-24,-7,21,-14,68,48,14,9,4,24
24,-4,-29,-9,26,-17,68,43,19,19,9,14
19,-9,-29,-4,24,-19,48,39,14,14,9,14
14,-14,-29,0,21,-21,34,29,0,9,0,4
9,-19,-29,4,19,-24,19,19,-9,4,-4,4
19,-29,-48,4,34,-39,4,0,-29,-9,-9,4
24,-29,-53,2,39,-41,-19,-14,-39,-19,-19,0
24,-39,-63,7,43,-51,-34,-19,-43,-24,-24,-4
24,-48,-73,12,48,-61,-43,-19,-43,-24,-29,-4
29,-48,-78,9,53,-63,-34,-19,-43,-29,-19,4
29,-43,-73,7,51,-58,-39,-24,-48,-34,-19,4
29,-39,-68,4,48,-53,-39,-29,-48,-34,-19,4
29,-34,-63,2,46,-48,-39,-34,-53,-39,-29,0
29,-34,-63,2,46,-48,-39,-43,-73,-53,-43,-9
29,-34,-63,2,46,-48,-43,-53,-82,-68,-58,-19
24,-39,-63,7,43,-51,-58,-63,-92,-73,-63,-29
24,-39,-63,7,43,-51,-68,-78,-102,-92,-73,-39
14,-43,-58,14,36,-51,-87,-87,-112,-92,-68,-39
14,-43,-58,14,36,-51,-97,-97,-122,-102,-73,-43
9,-48,-58,19,34,-53,-97,-102,-131,-102,-82,-48
9,-53,-63,21,36,-58,-97,-102,-131,-107,-87,-48
14,-63,-78,24,46,-70,-87,-92,-131,-117,-87,-48
14,-58,-73,21,43,-65,-87,-92,-131,-112,-78,-43
29,-48,-78,9,53,-63,-73,-82,-117,-92,-68,-39
43,-34,-78,-4,61,-56,-68,-63,-102,-82,-53,-24
34,-24,-58,-4,46,-41,-58,-53,-92,-68,-53,-24
34,-24,-58,-4,46,-41,-48,-48,-82,-68,-48,-24
29,-24,-53,-2,41,-39,-48,-43,-82,-63,-43,-24
19,-34,-53,7,36,-43,-43,-43,-82,-63,-43,-24
9,-39,-48,14,29,-43,-43,-53,-82,-63,-43,-19
14,-43,-58,14,36,-51,-43,-48,-82,-63,-43,-19
19,-39,-58,9,39,-48,-48,-48,-78,-58,-39,-14
19,-43,-63,12,41,-53,-53,-48,-78,-58,-39,-14
34,-34,-68,0,51,-51,-48,-39,-68,-48,-29,-4
39,-34,-73,-2,56,-53,-43,-34,-68,-43,-29,-4
43,-29,-73,-7,58,-51,-29,-34,-68,-43,-24,0
43,-29,-73,-7,58,-51,-19,-29,-63,-43,-24,0
39,-48,-87,4,63,-68,-14,-29,-73,-53,-34,-9
34,-48,-82,7,58,-65,-9,-29,-73,-48,-34,-9
29,-53,-82,12,56,-68,-9,-24,-63,-48,-24,-9
19,-58,-78,19,48,-68,-9,-24,-63,-48,-34,-9
9,-58,-68,24,39,-63,-9,-29,-63,-48,-34,-19
4,-58,-63,26,34,-61,-9,-34,-68,-53,-39,-24
0,-63,-63,31,31,-63,-9,-34,-73,-53,-43,-29
-9,-73,-63,41,26,-68,-9,-34,-73,-58,-48,-34
-9,-68,-58,39,24,-63,-9,-39,-73,-68,-63,-34
-9,-73,-63,41,26,-68,-4,-39,-78,-78,-68,-43
-14,-78,-63,46,24,-70,-4,-39,-78,-82,-68,-43
-24,-87,-63,56,19,-75,9,-24,-78,-87,-68,-48
-24,-92,-68,58,21,-80,19,-19,-78,-78,-68,-39
-29,-97,-68,63,19,-82,19,-19,-78,-78,-68,-43
-29,-102,-73,65,21,-87,19,-19,-82,-87,-73,-48
-43,-112,-68,78,12,-90,19,-24,-87,-87,-78,-53
-53,-122,-68,87,7,-95,19,-34,-97,-87,-78,-53
-53,-117,-63,85,4,-90,19,-29,-92,-82,-78,-53
-53,-117,-63,85,4,-90,19,-29,-92,-82,-78,-53
-53,-117,-63,85,4,-90,19,-29,-92,-82,-78,-53
-53,-117,-63,85,4,-90,34,-19,-82,-97,-92,-68
-53,-117,-63,85,4,-90,34,-14,-82,-97,-92,-68
-53,-117,-63,85,4,-90,34,-14,-82,-97,-92,-68
-53,-117,-63,85,4,-90,34,-14,-82,-97,-92,-63
-43,-117,-73,80,14,-95,34,-24,-92,-87,-78,-53
-43,-117,-73,80,14,-95,29,-29,-92,-82,-78,-53
-43,-117,-73,80,14,-95,29,-29,-92,-82,-78,-48
-43,-112,-68,78,12,-90,29,-29,-92,-82,-78,-48
-48,-102,-53,75,2,-78,29,-19,-87,-82,-68,-48
-48,-97,-48,73,0,-73,29,-19,-87,-82,-68,-48
-48,-97,-48,73,0,-73,29,-19,-87,-82,-68,-48
-58,-107,-48,82,-4,-78,29,-19,-87,-82,-63,-48
-48,-107,-58,78,4,-82,19,-29,-87,-82,-73,-58
-48,-102,-53,75,2,-78,19,-29,-87,-78,-73,-58
-43,-102,-58,73,7,-80,19,-29,-87,-78,-73,-53
-39,-97,-58,68,9,-78,24,-24,-82,-78,-73,-53
-43,-97,-53,70,4,-75,34,-14,-73,-68,-58,-53
-48,-107,-58,78,4,-82,34,0,-68,-73,-58,-53
-34,-82,-48,58,7,-65,34,19,-43,-48,-53,-48
-19,-78,-58,48,19,-68,34,53,-14,-29,-29,-39
-19,-87,-68,53,24,-78,34,63,0,-24,-29,-29
-29,-102,-73,65,21,-87,39,48,0,-29,-39,-39
-43,-117,-73,80,14,-95,43,-4,-4,-29,-48,-43
-48,-122,-73,85,12,-97,53,-53,-4,-29,-48,-53
-48,-112,-63,80,7,-87,53,-117,4,-9,-43,-53
-63,-112,-48,87,-7,-80,63,-209,-4,-9,-34,-48
-82,-136,-53,109,-14,-95,39,-312,-48,-14,-34,-58
-78,-146,-68,112,-4,-107,-29,-424,-107,-9,-19,-43
-19,-107,-87,63,34,-97,-126,-531,-117,48,63,24
43,-68,-112,12,78,-90,-224,-605,-87,156,175,122
102,-34,-136,-34,119,-85,-317,-683,-78,234,278,214
156,-9,-165,-73,161,-87,-400,-756,-107,297,366,297
214,19,-195,-117,204,-87,-522,-863,-200,322,444,366
273,48,-224,-161,248,-87,-746,-1098,-424,253,468,419
341,92,-248,-217,295,-78,-1039,-1439,-746,131,468,468
419,170,-248,-295,334,-39,-1337,-1747,-995,73,527,556
497,283,-214,-390,356,34,-1595,-1966,-1122,97,644,688
575,390,-185,-483,380,102,-1825,-2156,-1254,107,736,814
624,478,-146,-551,385,165,-2054,-2347,-1449,53,790,907
668,561,-107,-614,387,226,-2288,-2557,-1629,14,858,1015
741,702,-39,-722,390,331,-2542,-2757,-1712,39,971,1141
790,824,34,-807,378,429,-2727,-2898,-1747,68,1054,1254
780,858,78,-819,351,468,-2810,-3001,-1820,9,1029,1263
780,868,87,-824,346,478,-2830,-3030,-1888,-102,951,1234
819,888,68,-854,375,478,-2810,-3006,-1937,-229,839,1176
819,868,48,-844,385,458,-2771,-3006,-2054,-488,595,1024
800,712,-87,-756,444,312,-2664,-2971,-2186,-810,253,795
819,439,-380,-629,600,29,-2444,-2781,-2283,-1117,-78,536
814,180,-634,-497,724,-226,-2181,-2532,-2352,-1376,-375,292
732,0,-732,-366,732,-366,-1966,-2381,-2391,-1595,-634,82
634,-131,-766,-251,700,-448,-1761,-2274,-2386,-1747,-849,-112
570,-234,-805,-168,688,-519,-1546,-2078,-2308,-1810,-1000,-263
531,-302,-834,-114,683,-568,-1356,-1820,-2117,-1732,-1019,-331
458,-331,-790,-63,624,-561,-1180,-1595,-1864,-1546,-941,-341
400,-307,-707,-46,553,-507,-1029,-1381,-1595,-1327,-819,-307
390,-248,-639,-70,514,-444,-873,-1161,-1332,-1112,-683,-244
356,-180,-536,-87,446,-358,-727,-956,-1102,-917,-546,-180
292,-141,-434,-75,363,-287,-600,-785,-888,-727,-439,-126
234,-112,-346,-61,290,-229,-463,-605,-683,-561,-336,-97
165,-97,-263,-34,214,-180,-336,-439,-507,-414,-253,-73
107,-82,-190,-12,148,-136,-224,-317,-356,-312,-200,-63
63,-82,-146,9,104,-114,-146,-209,-258,-239,-165,-78
19,-87,-107,34,63,-97,-63,-122,-175,-170,-136,-87
-19,-87,-68,53,24,-78,9,-29,-97,-97,-97,-73
-24,-82,-58,53,17,-70,58,24,-39,-53,-58,-53
-29,-87,-58,58,14,-73,73,48,-9,-34,-39,-48
-48,-97,-48,73,0,-73,92,68,9,-19,-39,-48
-43,-102,-58,73,7,-80,112,92,29,-14,-39,-48
-43,-102,-58,73,7,-80,122,97,29,-14,-39,-53
-43,-107,-63,75,9,-85,122,102,34,-9,-39,-58
-48,-107,-58,78,4,-82,131,107,39,-9,-43,-58
-53,-112,-58,82,2,-85,131,112,39,-19,-53,-68
-63,-117,-53,90,-4,-85,141,117,39,-19,-53,-68
-73,-122,-48,97,-12,-85,141,122,43,-14,-48,-68
-78,-131,-53,104,-12,-92,141,122,43,-14,-48,-68
-73,-136,-63,104,-4,-100,141,131,48,-14,-63,-82
-73,-141,-68,107,-2,-104,146,136,58,-14,-63,-82
-82,-146,-63,114,-9,-104,146,141,58,-14,-63,-87
-82,-151,-68,117,-7,-109,146,141,58,-14,-68,-87
-78,-136,-58,107,-9,-97,156,151,58,-14,-58,-78
-78,-131,-53,104,-12,-92,161,151,63,-9,-58,-78
-73,-131,-58,102,-7,-95,161,151,63,-9,-53,-78
-68,-126,-58,97,-4,-92,165,156,63,-4,-53,-73
-68,-117,-48,92,-9,-82,165,156,68,-4,-58,-63
-68,-117,-48,92,-9,-82,165,161,68,-9,-58,-63
-78,-126,-48,102,-14,-87,165,161,68,-9,-58,-73
-78,-126,-48,102,-14,-87,165,161,73,-9,-58,-73
-82,-131,-48,107,-17,-90,170,151,73,-9,-58,-82
-82,-131,-48,107,-17,-90,170,151,73,-4,-58,-82
-78,-126,-48,102,-14,-87,170,156,78,-4,-58,-82
-78,-122,-43,100,-17,-82,175,156,78,-4,-58,-82
-78,-122,-43,100,-17,-82,165,156,68,4,-58,-82
-78,-122,-43,100,-17,-82,165,161,68,4,-58,-82
-78,-122,-43,100,-17,-82,165,161,68,9,-58,-82
-78,-122,-43,100,-17,-82,170,161,73,9,-58,-87
-87,-131,-43,109,-21,-87,170,161,73,0,-68,-97
-92,-136,-43,114,-24,-90,170,161,73,-4,-73,-102
-97,-141,-43,119,-26,-92,175,161,73,-4,-73,-102
-102,-146,-43,124,-29,-95,175,161,73,0,-73,-102
-92,-136,-43,114,-24,-90,170,165,82,0,-73,-92
-87,-136,-48,112,-19,-92,170,165,87,0,-73,-92
-87,-136,-48,112,-19,-92,175,165,87,0,-73,-92
-92,-136,-43,114,-24,-90,175,165,87,0,-73,-92
-87,-136,-48,112,-19,-92,185,180,87,-9,-73,-92
-82,-136,-53,109,-14,-95,185,185,87,-9,-78,-92
-82,-141,-58,112,-12,-100,185,185,87,-9,-78,-92
-78,-141,-63,109,-7,-102,190,185,92,-9,-78,-92
-87,-131,-43,109,-21,-87,190,175,92,0,-78,-92
-87,-131,-43,109,-21,-87,190,175,92,0,-78,-97
-87,-131,-43,109,-21,-87,190,175,92,0,-82,-102
-87,-126,-39,107,-24,-82,190,175,92,0,-82,-102
-87,-136,-48,112,-19,-92,200,185,92,0,-82,-112
-92,-136,-43,114,-24,-90,200,185,92,0,-82,-112
-92,-141,-48,117,-21,-95,204,190,92,0,-82,-117
-92,-141,-48,117,-21,-95,204,190,92,0,-82,-117
-102,-146,-43,124,-29,-95,195,185,87,0,-73,-107
-102,-151,-48,126,-26,-100,195,185,87,0,-73,-107
-102,-151,-48,126,-26,-100,195,195,92,4,-68,-107
-102,-156,-53,129,-24,-104,200,195,92,4,-68,-112
-112,-161,-48,136,-31,-104,195,185,97,-9,-87,-126
-112,-161,-48,136,-31,-104,195,185,97,-9,-87,-126
-112,-161,-48,136,-31,-104,190,195,97,-4,-87,-126
-112,-165,-53,139,-29,-109,190,195,102,-4,-87,-126
-107,-156,-48,131,-29,-102,195,200,112,4,-87,-117
-102,-146,-43,124,-29,-95,200,204,112,9,-87,-117
-92,-136,-43,114,-24,-90,204,214,122,9,-87,-117
-82,-126,-43,104,-19,-85,219,219,122,9,-87,-117
-92,-131,-39,112,-26,-85,219,219,122,9,-87,-117
-92,-131,-39,112,-26,-85,219,224,131,14,-82,-117
-92,-136,-43,114,-24,-90,224,224,131,14,-82,-117
-92,-146,-53,119,-19,-100,229,224,131,14,-82,-117
-92,-136,-43,114,-24,-90,229,234,122,24,-73,-112
-92,-136,-43,114,-24,-90,229,239,131,24,-73,-112
-92,-136,-43,114,-24,-90,234,244,136,29,-73,-112
-92,-136,-43,114,-24,-90,234,248,136,29,-73,-112
-102,-146,-43,124,-29,-95,234,248,136,29,-82,-122
-102,-146,-43,124,-29,-95,239,253,146,24,-87,-126
-102,-146,-43,124,-29,-95,239,258,151,19,-87,-126
-102,-141,-39,122,-31,-90,244,263,156,19,-87,-126
-112,-151,-39,131,-36,-95,258,263,156,24,-97,-131
-112,-151,-39,131,-36,-95,263,268,165,29,-92,-136
-112,-151,-39,131,-36,-95,268,273,170,29,-92,-141
-117,-151,-34,134,-41,-92,268,278,175,34,-92,-151
-122,-156,-34,139,-43,-95,263,273,170,24,-92,-151
-131,-161,-29,146,-51,-95,258,283,175,29,-92,-151
-136,-170,-34,153,-51,-102,258,287,180,34,-92,-151
-141,-175,-34,158,-53,-104,258,292,185,39,-87,-146
-122,-161,-39,141,-41,-100,263,317,204,53,-78,-136
-117,-151,-34,134,-41,-92,273,322,209,58,-68,-136
-112,-136,-24,124,-43,-80,273,322,214,63,-68,-136
-112,-126,-14,119,-48,-70,273,331,219,68,-68,-131
-107,-126,-19,117,-43,-73,278,346,229,82,-63,-122
-107,-126,-19,117,-43,-73,283,351,239,87,-58,-122
-107,-122,-14,114,-46,-68,292,361,253,97,-53,-122
-107,-117,-9,112,-48,-63,302,361,263,102,-43,-122
-107,-126,-19,117,-43,-73,312,370,253,102,-53,-122
-112,-122,-9,117,-51,-65,317,380,268,102,-53,-122
-112,-122,-9,117,-51,-65,326,395,278,102,-53,-122
-107,-122,-14,114,-46,-68,331,400,287,102,-53,-122
-117,-122,-4,119,-56,-63,336,419,307,122,-43,-131
-126,-122,4,124,-65,-58,341,429,317,131,-39,-126
-126,-122,4,124,-65,-58,346,439,322,141,-39,-126
-126,-122,4,124,-65,-58,351,448,326,146,-29,-122
-126,-126,0,126,-63,-63,346,448,341,156,-34,-131
-131,-122,9,126,-70,-56,356,458,346,161,-29,-126
-131,-117,14,124,-73,-51,356,468,351,161,-24,-122
-131,-117,14,124,-73,-51,356,478,361,170,-14,-117
-131,-102,29,117,-80,-36,366,483,380,180,-4,-117
-131,-92,39,112,-85,-26,380,502,395,190,4,-107
-131,-87,43,109,-87,-21,385,512,405,195,9,-107
-131,-82,48,107,-90,-17,390,522,419,204,9,-112
-122,-78,43,100,-82,-17,395,536,444,224,9,-102
-122,-78,43,100,-82,-17,405,546,453,234,14,-102
-131,-78,53,104,-92,-12,409,561,468,239,19,-97
-131,-78,53,104,-92,-12,414,570,483,258,29,-92
-146,-82,63,114,-104,-9,424,580,497,268,39,-97
-151,-87,63,119,-107,-12,429,595,507,278,39,-97
-151,-82,68,117,-109,-7,439,610,522,297,48,-92
-156,-82,73,119,-114,-4,444,624,531,307,58,-82
-141,-68,73,104,-107,2,458,639,546,326,73,-78
-141,-58,82,100,-112,12,463,649,566,331,73,-73
-136,-39,97,87,-117,29,468,658,585,351,87,-68
-141,-19,122,80,-131,51,478,673,610,375,102,-63
-151,-29,122,90,-136,46,468,683,624,380,112,-53
-151,-19,131,85,-141,56,473,692,639,395,117,-48
-151,-14,136,82,-143,61,478,702,658,409,126,-43
-156,-9,146,82,-151,68,483,712,678,424,136,-34
-156,-4,151,80,-153,73,497,722,688,439,146,-39
-156,0,156,78,-156,78,497,732,707,453,156,-34
-156,4,161,75,-158,82,502,741,717,468,170,-24
-156,14,170,70,-163,92,502,751,732,483,185,-19
-146,24,170,61,-158,97,507,761,756,507,195,-4
-146,29,175,58,-161,102,507,766,771,522,200,4
-141,43,185,48,-163,114,507,775,785,541,209,14
-141,43,185,48,-163,114,507,775,790,551,229,19
-146,48,195,48,-170,122,502,766,790,556,239,24
-151,63,214,43,-183,139,497,771,810,566,253,34
-156,73,229,41,-192,151,492,771,819,575,263,43
-161,78,239,41,-200,158,483,775,839,595,278,53
-146,102,248,21,-197,175,492,775,858,614,283,73
-146,102,248,21,-197,175,488,775,868,629,297,87
-146,107,253,19,-200,180,488,766,873,634,307,92
-146,112,258,17,-202,185,478,761,873,644,317,102
-151,117,268,17,-209,192,473,761,888,663,341,107
-156,117,273,19,-214,195,473,751,893,673,351,117
-151,117,268,17,-209,192,463,741,897,678,356,122
-146,126,273,9,-209,200,453,736,897,688,366,136
-131,141,273,-4,-202,207,429,722,897,702,385,161
-122,151,273,-14,-197,212,424,702,888,707,390,170
-112,151,263,-19,-187,207,409,688,883,707,390,175
-107,161,268,-26,-187,214,400,678,873,702,400,185
-117,156,273,-19,-195,214,390,653,863,707,419,195
-107,161,268,-26,-187,214,385,639,854,702,424,209
-102,170,273,-34,-187,222,366,614,834,697,424,219
-97,170,268,-36,-183,219,351,595,814,683,424,219
-87,180,268,-46,-178,224,336,575,800,668,424,224
-87,185,273,-48,-180,229,322,551,780,658,419,229
-78,190,268,-56,-173,229,307,531,761,644,419,229
-73,190,263,-58,-168,226,292,507,727,629,409,234
-78,200,278,-61,-178,239,268,483,712,610,405,234
-73,200,273,-63,-173,236,253,458,688,585,405,234
-73,200,273,-63,-173,236,239,439,663,570,390,239
-73,185,258,-56,-165,222,224,414,629,551,380,239
-73,180,253,-53,-163,217,214,390,590,527,375,229
-68,170,239,-51,-153,204,204,366,561,507,361,229
-58,161,219,-51,-139,190,185,341,531,483,351,224
-58,151,209,-46,-134,180,170,317,497,453,341,214
-43,151,195,-53,-119,173,165,292,473,424,326,214
-39,151,190,-56,-114,170,146,278,444,409,312,214
-34,151,185,-58,-109,168,141,258,414,385,302,209
-29,141,170,-56,-100,156,131,239,385,361,283,200
-34,122,156,-43,-95,139,122,219,356,326,263,185
-34,117,151,-41,-92,134,112,200,317,307,248,175
-29,107,136,-39,-82,122,97,185,292,283,239,165
-19,102,122,-41,-70,112,92,165,268,258,219,156
-24,92,117,-34,-70,104,73,146,248,244,204,156
-24,82,107,-29,-65,95,63,131,224,219,190,151
-19,68,87,-24,-53,78,58,117,200,204,175,146
-19,63,82,-21,-51,73,58,107,180,175,161,136
-19,63,82,-21,-51,73,58,97,161,161,156,126
-14,58,73,-21,-43,65,53,87,141,146,141,117
0,48,48,-24,-24,48,48,68,126,126,126,107
4,48,43,-26,-19,46,43,63,107,112,112,97
0,43,43,-21,-21,43,39,58,82,82,102,78
-4,29,34,-12,-19,31,34,48,68,73,78,68
-9,14,24,-2,-17,19,29,39,58,58,63,63
-14,-4,9,9,-12,2,24,34,43,48,53,53
-19,0,19,9,-19,9,14,19,24,34,53,43
-19,-4,14,12,-17,4,9,14,14,24,43,43
-19,-4,14,12,-17,4,4,9,4,14,34,39
-14,-9,4,12,-9,-2,4,4,-4,14,34,34
-4,0,4,2,-4,2,-4,-4,-19,0,34,39
0,0,0,0,0,0,0,-4,-19,0,24,34
4,0,-4,-2,4,-2,0,-4,-24,-4,14,24
4,-9,-14,2,9,-12,-4,-9,-29,-24,4,14
0,-14,-14,7,7,-14,4,-4,-34,-24,0,9
-4,-14,-9,9,2,-12,4,-4,-39,-29,0,9
-4,-19,-14,12,4,-17,4,-4,-39,-34,-4,9
0,-19,-19,9,9,-19,4,-4,-39,-34,-4,9
0,-29,-29,14,14,-29,4,-4,-39,-34,-4,0
0,-29,-29,14,14,-29,4,-4,-39,-34,-9,-4
0,-29,-29,14,14,-29,4,-4,-43,-34,-14,-9
-4,-39,-34,21,14,-36,4,-4,-48,-39,-29,-19
-4,-39,-34,21,14,-36,4,-4,-48,-39,-29,-19
-9,-39,-29,24,9,-34,4,-9,-48,-39,-29,-19
-9,-43,-34,26,12,-39,4,-9,-48,-39,-29,-19
-9,-43,-34,26,12,-39,4,-9,-43,-39,-34,-19
-9,-43,-34,26,12,-39,4,-9,-39,-34,-34,-19
-4,-43,-39,24,17,-41,4,-9,-39,-34,-29,-24
-4,-43,-39,24,17,-41,9,-4,-39,-34,-29,-24
-4,-43,-39,24,17,-41,9,-4,-39,-34,-29,-24
0,-34,-34,17,17,-34,9,-4,-39,-34,-29,-14
0,-39,-39,19,19,-39,9,0,-39,-24,-24,-14
0,-39,-39,19,19,-39,9,4,-29,-14,-14,-14
0,-39,-39,19,19,-39,9,4,-24,-14,-9,-14
-9,-48,-39,29,14,-43,9,4,-19,-24,-14,-4
-4,-43,-39,24,17,-41,14,9,-14,-19,-9,-4
-4,-43,-39,24,17,-41,14,9,-14,-14,-4,0
-4,-39,-34,21,14,-36,14,9,-14,-9,-4,0
-4,-39,-34,21,14,-36,14,14,-9,-14,-4,-9
-9,-43,-34,26,12,-39,14,14,-9,-14,-4,-9
-9,-43,-34,26,12,-39,14,14,0,-14,-4,-4
-9,-43,-34,26,12,-39,14,19,0,-9,0,0
-19,-39,-19,29,0,-29,24,24,4,-9,-4,0
-14,-39,-24,26,4,-31,24,24,4,0,4,0
-14,-29,-14,21,0,-21,24,29,9,0,4,0
-14,-39,-24,26,4,-31,24,29,14,4,0,0
-9,-39,-29,24,9,-34,14,24,9,4,9,4
-9,-39,-29,24,9,-34,19,24,9,9,9,4
-14,-34,-19,24,2,-26,19,29,19,9,9,4
-14,-34,-19,24,2,-26,19,29,19,9,9,4
-4,-24,-19,14,7,-21,14,39,14,9,9,4
-4,-29,-24,17,9,-26,14,39,14,14,14,4
-4,-29,-24,17,9,-26,14,39,14,19,14,4
-4,-29,-24,17,9,-26,14,39,19,19,24,4
4,-24,-29,9,17,-26,19,43,39,29,24,14
4,-24,-29,9,17,-26,24,43,39,34,24,14
-4,-24,-19,14,7,-21,24,43,34,34,24,9
-4,-34,-29,19,12,-31,24,43,34,29,24,9
-9,-39,-29,24,9,-34,34,43,34,19,19,0
-14,-39,-24,26,4,-31,24,43,29,29,19,0
-19,-39,-19,29,0,-29,24,43,29,29,19,0
-24,-34,-9,29,-7,-21,24,43,34,39,19,-4
-19,-34,-14,26,-2,-24,24,43,43,29,19,-4
-14,-34,-19,24,2,-26,24,43,43,29,19,0
-9,-34,-24,21,7,-29,29,43,43,29,19,4
-4,-34,-29,19,12,-31,29,43,43,29,19,9
-9,-24,-14,17,2,-19,34,53,48,29,19,0
-9,-34,-24,21,7,-29,34,53,48,29,19,0
-9,-24,-14,17,2,-19,34,53,43,29,19,0
-9,-24,-14,17,2,-19,34,53,43,24,14,-4
-19,-34,-14,26,-2,-24,24,53,39,29,19,4
-19,-34,-14,26,-2,-24,24,48,39,29,14,4
-19,-43,-24,31,2,-34,24,43,34,24,14,4
-29,-43,-14,36,-7,-29,24,39,34,24,14,4
-19,-43,-24,31,2,-34,34,39,34,24,9,-4
-19,-43,-24,31,2,-34,34,43,34,24,14,-4
-19,-43,-24,31,2,-34,34,43,34,24,14,-4
-19,-43,-24,31,2,-34,34,48,29,14,14,-9
-19,-43,-24,31,2,-34,24,39,24,14,0,-19
-19,-43,-24,31,2,-34,24,34,24,14,-4,-19
-19,-43,-24,31,2,-34,24,34,24,14,-9,-19
-19,-43,-24,31,2,-34,24,39,24,9,-19,-19
-19,-34,-14,26,-2,-24,29,39,19,4,-14,-9
-19,-34,-14,26,-2,-24,29,34,14,4,-9,-9
-19,-34,-14,26,-2,-24,24,34,14,9,-4,-9
-19,-34,-14,26,-2,-24,24,34,14,9,0,-9
-19,-39,-19,29,0,-29,34,29,14,9,-9,-9
-19,-39,-19,29,0,-29,34,29,14,0,-9,-14
-14,-39,-24,26,4,-31,34,29,14,0,-9,-14
-14,-39,-24,26,4,-31,34,29,14,0,-9,-9
-24,-48,-24,36,0,-36,34,29,4,-4,-24,-14
-34,-48,-14,41,-9,-31,34,24,0,-9,-24,-19
-34,-48,-14,41,-9,-31,34,24,-4,-9,-24,-24
-29,-48,-19,39,-4,-34,34,24,-4,-9,-19,-29
-29,-48,-19,39,-4,-34,34,19,-4,-9,-19,-24
-34,-48,-14,41,-9,-31,34,19,-4,-14,-24,-29
-34,-48,-14,41,-9,-31,34,19,-9,-14,-24,-29
-34,-48,-14,41,-9,-31,34,19,-9,-14,-29,-24
-24,-48,-24,36,0,-36,34,19,-19,-14,-19,-24
-24,-53,-29,39,2,-41,34,14,-19,-19,-19,-29
-29,-53,-24,41,-2,-39,34,14,-19,-19,-29,-29
-29,-53,-24,41,-2,-39,34,14,-24,-19,-29,-34
-19,-48,-29,34,4,-39,34,14,-14,-29,-29,-29
-19,-48,-29,34,4,-39,34,14,-24,-34,-29,-34
-19,-48,-29,34,4,-39,34,14,-24,-34,-29,-34
-19,-48,-29,34,4,-39,34,14,-19,-34,-29,-29
-19,-53,-34,36,7,-43,24,14,-29,-34,-39,-29
-24,-53,-29,39,2,-41,24,4,-34,-34,-39,-29
-29,-53,-24,41,-2,-39,24,4,-39,-34,-39,-29
-34,-53,-19,43,-7,-36,19,0,-39,-34,-39,-29
-34,-58,-24,46,-4,-41,14,0,-39,-34,-39,-39
-34,-58,-24,46,-4,-41,14,4,-39,-34,-39,-39
-34,-53,-19,43,-7,-36,19,4,-39,-43,-43,-39
-34,-53,-19,43,-7,-36,19,4,-39,-43,-43,-39
-24,-58,-34,41,4,-46,19,4,-39,-53,-43,-29
-24,-58,-34,41,4,-46,24,0,-43,-53,-43,-34
-24,-58,-34,41,4,-46,24,0,-43,-53,-43,-34
-24,-58,-34,41,4,-46,19,0,-39,-53,-43,-34
-34,-58,-24,46,-4,-41,29,4,-39,-53,-48,-43
-34,-58,-24,46,-4,-41,29,4,-48,-58,-48,-43
-34,-58,-24,46,-4,-41,29,4,-48,-58,-58,-43
-34,-58,-24,46,-4,-41,29,4,-48,-58,-58,-43
-39,-58,-19,48,-9,-39,29,4,-48,-48,-48,-43
-39,-68,-29,53,-4,-48,29,4,-53,-48,-53,-43
-39,-68,-29,53,-4,-48,29,0,-53,-53,-53,-43
-39,-68,-29,53,-4,-48,29,0,-63,-53,-53,-48
-34,-63,-29,48,-2,-46,19,0,-53,-53,-63,-48
-29,-58,-29,43,0,-43,19,0,-53,-53,-63,-48
-24,-53,-29,39,2,-41,14,0,-53,-53,-63,-48
-19,-48,-29,34,4,-39,14,0,-53,-53,-63,-48
-29,-58,-29,43,0,-43,24,0,-53,-58,-58,-58
-29,-58,-29,43,0,-43,24,0,-53,-58,-58,-53
-34,-58,-24,46,-4,-41,24,0,-53,-58,-58,-53
-34,-58,-24,46,-4,-41,24,0,-53,-58,-58,-53
-19,-68,-48,43,14,-58,24,0,-53,-58,-63,-58
-19,-63,-43,41,12,-53,19,-4,-53,-58,-63,-53
-19,-63,-43,41,12,-53,19,-9,-58,-68,-63,-53
-19,-63,-43,41,12,-53,19,-9,-58,-68,-68,-48
-24,-63,-39,43,7,-51,19,-9,-58,-63,-68,-48
-24,-63,-39,43,7,-51,19,-9,-58,-63,-63,-48
-19,-63,-43,41,12,-53,19,-4,-58,-63,-58,-43
-19,-58,-39,39,9,-48,24,-4,-58,-63,-53,-43
-19,-63,-43,41,12,-53,24,-4,-58,-63,-58,-43
-24,-63,-39,43,7,-51,24,-4,-58,-68,-53,-48
-24,-73,-48,48,12,-61,19,-9,-58,-68,-53,-48
-19,-73,-53,46,17,-63,19,-9,-63,-68,-63,-48
-19,-58,-39,39,9,-48,19,-9,-63,-58,-63,-48
-19,-58,-39,39,9,-48,24,-4,-58,-58,-63,-48
-19,-53,-34,36,7,-43,24,-4,-58,-63,-63,-48
-19,-53,-34,36,7,-43,24,-9,-63,-63,-63,-48
-29,-53,-24,41,-2,-39,19,-9,-73,-78,-63,-48
-24,-53,-29,39,2,-41,14,-9,-73,-78,-63,-48
-24,-53,-29,39,2,-41,14,-9,-73,-68,-63,-48
-29,-53,-24,41,-2,-39,9,-9,-73,-63,-63,-48
-34,-63,-29,48,-2,-46,19,-9,-63,-63,-63,-48
-34,-58,-24,46,-4,-41,14,-9,-63,-68,-63,-48
-24,-48,-24,36,0,-36,14,-9,-63,-68,-63,-48
-24,-63,-39,43,7,-51,19,-9,-63,-68,-63,-48
-19,-53,-34,36,7,-43,29,-4,-63,-63,-63,-39
-24,-63,-39,43,7,-51,19,-14,-63,-73,-63,-48
-39,-68,-29,53,-4,-48,19,-9,-68,-68,-58,-48
-39,-68,-29,53,-4,-48,19,-9,-68,-68,-68,-48
-39,-68,-29,53,-4,-48,19,-9,-68,-68,-68,-48
-39,-68,-29,53,-4,-48,19,-9,-68,-68,-68,-48
-39,-68,-29,53,-4,-48,19,-9,-68,-68,-68,-48
-34,-63,-29,48,-2,-46,29,-9,-58,-58,-58,-39
-29,-58,-29,43,0,-43,29,-9,-58,-58,-58,-39
-24,-53,-29,39,2,-41,29,-9,-58,-58,-58,-39
-19,-48,-29,34,4,-39,29,-9,-58,-58,-58,-39
-29,-39,-9,34,-9,-24,43,4,-53,-48,-48,-29
-29,-39,-9,34,-9,-24,48,9,-48,-48,-48,-29
-29,-39,-9,34,-9,-24,53,14,-43,-48,-48,-29
-29,-39,-9,34,-9,-24,58,19,-39,-48,-48,-29
-19,-34,-14,26,-2,-24,63,29,-29,-39,-39,-19
-19,-29,-9,24,-4,-19,68,29,-29,-39,-39,-19
-19,-24,-4,21,-7,-14,73,29,-29,-39,-39,-19
-19,-19,0,19,-9,-9,78,29,-29,-39,-39,-19
-19,-9,9,14,-14,0,87,29,-24,-29,-29,-9
-19,-9,9,14,-14,0,87,29,-19,-29,-29,-9
-19,-9,9,14,-14,0,87,29,-14,-29,-29,-9
-19,-9,9,14,-14,0,87,29,-9,-29,-29,-9
-19,-4,14,12,-17,4,87,34,0,-24,-19,0
-19,0,19,9,-19,9,87,39,0,-19,-19,0
-19,4,24,7,-21,14,87,43,0,-14,-19,0
-19,9,29,4,-24,19,87,48,0,-9,-19,0
-9,9,19,0,-14,14,87,48,9,-9,-9,9
-9,9,19,0,-14,14,87,48,9,-9,-4,9
-9,9,19,0,-14,14,78,48,14,-4,-4,9
-4,4,9,0,-7,7,73,43,14,-4,-4,9
0,4,4,-2,-2,4,58,39,4,-9,-14,4
9,4,-4,-7,7,0,48,24,0,-9,-9,4
9,0,-9,-4,9,-4,29,19,-4,-14,-9,4
9,-4,-14,-2,12,-9,14,9,-19,-19,-19,-4
9,-19,-29,4,19,-24,0,0,-29,-24,-34,-4
9,-19,-29,4,19,-24,-9,-9,-39,-39,-39,-14
14,-19,-34,2,24,-26,-29,-24,-48,-48,-48,-19
14,-29,-43,7,29,-36,-39,-29,-53,-53,-53,-24
14,-29,-43,7,29,-36,-43,-29,-53,-63,-58,-24
19,-34,-53,7,36,-43,-43,-29,-63,-68,-58,-24
19,-34,-53,7,36,-43,-48,-34,-68,-73,-58,-24
19,-34,-53,7,36,-43,-48,-39,-68,-73,-58,-24
29,-34,-63,2,46,-48,-39,-34,-73,-68,-58,-29
29,-34,-63,2,46,-48,-39,-34,-82,-78,-68,-34
29,-34,-63,2,46,-48,-43,-43,-92,-87,-78,-39
24,-39,-63,7,43,-51,-58,-53,-102,-87,-78,-43
14,-39,-53,12,34,-46,-78,-78,-112,-102,-92,-48
14,-34,-48,9,31,-41,-87,-87,-122,-112,-97,-48
14,-34,-48,9,31,-41,-97,-97,-131,-122,-102,-53
9,-39,-48,14,29,-43,-97,-102,-141,-122,-112,-58
19,-43,-63,12,41,-53,-97,-92,-141,-126,-107,-58
24,-43,-68,9,46,-56,-97,-92,-141,-126,-107,-58
24,-39,-63,7,43,-51,-97,-92,-141,-122,-97,-53
39,-29,-68,-4,53,-48,-82,-82,-126,-102,-87,-48
43,-14,-58,-14,51,-36,-68,-73,-112,-92,-73,-24
43,-14,-58,-14,51,-36,-58,-63,-102,-87,-73,-24
43,-14,-58,-14,51,-36,-48,-58,-92,-87,-68,-24
39,-14,-53,-12,46,-34,-48,-53,-92,-82,-63,-24
39,-24,-63,-7,51,-43,-53,-53,-92,-82,-63,-34
39,-24,-63,-7,51,-43,-48,-53,-92,-82,-63,-29
43,-24,-68,-9,56,-46,-43,-48,-92,-82,-63,-29
48,-14,-63,-17,56,-39,-43,-48,-87,-78,-58,-24
39,-24,-63,-7,51,-43,-43,-48,-87,-78,-58,-24
39,-29,-68,-4,53,-48,-43,-48,-87,-78,-58,-24
39,-34,-73,-2,56,-53,-43,-43,-87,-73,-58,-24
39,-34,-73,-2,56,-53,-34,-43,-87,-73,-53,-19
34,-34,-68,0,51,-51,-29,-39,-82,-73,-53,-19
29,-39,-68,4,48,-53,-24,-39,-82,-73,-53,-19
24,-34,-58,4,41,-46,-19,-39,-82,-68,-53,-19
19,-34,-53,7,36,-43,-19,-34,-73,-68,-43,-19
9,-48,-58,19,34,-53,-29,-43,-73,-68,-53,-19
9,-48,-58,19,34,-53,-29,-48,-82,-78,-63,-29
4,-48,-53,21,29,-51,-29,-53,-87,-82,-68,-34
0,-53,-53,26,26,-53,-29,-53,-92,-82,-73,-39
0,-53,-53,26,26,-53,-19,-43,-102,-87,-78,-43
0,-58,-58,29,29,-58,-19,-48,-102,-92,-82,-43
0,-63,-63,31,31,-63,-14,-48,-107,-97,-87,-53
-4,-68,-63,36,29,-65,-14,-48,-107,-97,-87,-53
-24,-78,-53,51,14,-65,0,-34,-97,-97,-87,-48
-34,-82,-48,58,7,-65,9,-29,-97,-97,-87,-48
-39,-87,-48,63,4,-68,9,-29,-97,-97,-87,-53
-39,-92,-53,65,7,-73,9,-29,-102,-107,-92,-58
-43,-92,-48,68,2,-70,9,-34,-107,-107,-97,-73
-43,-92,-48,68,2,-70,19,-34,-107,-107,-97,-73
-43,-87,-43,65,0,-65,19,-29,-102,-102,-97,-73
-43,-87,-43,65,0,-65,19,-29,-102,-102,-97,-73
-48,-92,-43,70,-2,-68,19,-29,-102,-102,-97,-73
-53,-97,-43,75,-4,-70,24,-29,-102,-107,-102,-78
-58,-102,-43,80,-7,-73,24,-24,-102,-107,-102,-78
-63,-107,-43,85,-9,-75,24,-24,-102,-107,-102,-78
-53,-107,-53,80,0,-80,24,-24,-102,-107,-102,-73
-53,-107,-53,80,0,-80,24,-24,-102,-107,-97,-73
-53,-107,-53,80,0,-80,19,-29,-102,-102,-97,-73
-53,-107,-53,80,0,-80,19,-29,-102,-102,-97,-68
-53,-92,-39,73,-7,-65,19,-29,-102,-102,-97,-68
-48,-92,-43,70,-2,-68,19,-29,-97,-102,-97,-68
-48,-87,-39,68,-4,-63,19,-29,-97,-102,-97,-68
-48,-87,-39,68,-4,-63,19,-29,-97,-102,-97,-68
-48,-87,-39,68,-4,-63,19,-29,-87,-102,-92,-68
-48,-87,-39,68,-4,-63,19,-29,-87,-102,-92,-68
-48,-82,-34,65,-7,-58,19,-29,-87,-97,-92,-68
-43,-82,-39,63,-2,-61,19,-29,-87,-97,-92,-63
-48,-87,-39,68,-4,-63,24,-24,-82,-97,-82,-53
-43,-87,-43,65,0,-65,24,-14,-82,-87,-78,-53
-29,-78,-48,53,9,-63,24,9,-68,-73,-68,-43
-34,-82,-48,58,7,-65,34,39,-43,-48,-53,-29
-29,-87,-58,58,14,-73,34,43,-34,-39,-48,-29
-29,-87,-58,58,14,-73,24,34,-19,-43,-58,-29
-39,-82,-43,61,2,-63,29,0,-29,-48,-68,-39
-53,-97,-43,75,-4,-70,34,-53,-43,-58,-78,-53
-58,-102,-43,80,-7,-73,43,-122,-34,-48,-68,-63
-68,-102,-34,85,-17,-68,43,-195,-34,-29,-53,-53
-63,-102,-39,82,-12,-70,34,-287,-63,-29,-63,-48
-63,-117,-53,90,-4,-85,-19,-400,-126,-53,-73,-58
-48,-126,-78,87,14,-102,-117,-512,-175,-39,-39,-34
19,-97,-117,39,68,-107,-214,-600,-165,48,73,53
82,-58,-141,-12,112,-100,-292,-653,-146,156,204,170
151,-24,-175,-63,163,-100,-385,-732,-156,244,317,263
214,9,-204,-112,209,-97,-517,-824,-224,287,395,336
273,48,-224,-161,248,-87,-717,-1019,-414,224,414,375
341,97,-244,-219,292,-73,-980,-1332,-707,107,419,429
409,170,-239,-290,324,-34,-1273,-1664,-971,43,468,517
497,268,-229,-383,363,19,-1532,-1903,-1112,73,575,644
575,380,-195,-478,385,92,-1771,-2083,-1220,107,692,775
624,478,-146,-551,385,165,-2000,-2283,-1390,78,766,873
673,575,-97,-624,385,239,-2220,-2493,-1546,43,829,976
707,658,-48,-683,378,305,-2474,-2693,-1649,53,917,1093
732,751,19,-741,356,385,-2679,-2854,-1703,78,1010,1200
741,814,73,-778,334,444,-2796,-2967,-1766,39,1024,1234
771,849,78,-810,346,463,-2820,-3020,-1820,-29,980,1234
819,878,58,-849,380,468,-2791,-2991,-1849,-112,922,1215
829,878,48,-854,390,463,-2762,-2986,-1937,-307,751,1137
819,780,-39,-800,429,370,-2693,-2996,-2093,-614,439,936
819,566,-253,-692,536,156,-2527,-2874,-2205,-927,97,678
829,292,-536,-561,683,-122,-2269,-2615,-2283,-1215,-214,429
785,82,-702,-434,744,-309,-2044,-2425,-2352,-1473,-492,214
692,-58,-751,-317,722,-405,-1839,-2322,-2400,-1664,-722,14
605,-170,-775,-217,690,-473,-1634,-2176,-2357,-1776,-917,-170
551,-273,-824,-139,688,-549,-1449,-1952,-2230,-1781,-1010,-292
512,-331,-844,-90,678,-588,-1268,-1712,-2000,-1644,-980,-331
448,-322,-771,-63,610,-546,-1093,-1478,-1737,-1439,-893,-322
419,-268,-688,-75,553,-478,-922,-1244,-1459,-1220,-771,-278
400,-200,-600,-100,500,-400,-785,-1034,-1205,-1015,-634,-214
336,-161,-497,-87,417,-329,-658,-858,-985,-819,-507,-161
263,-141,-405,-61,334,-273,-502,-668,-771,-649,-409,-126
204,-112,-317,-46,261,-214,-366,-497,-585,-492,-317,-97
146,-87,-234,-29,190,-161,-258,-361,-419,-366,-244,-73
97,-73,-170,-12,134,-122,-175,-258,-307,-273,-190,-73
53,-82,-136,14,95,-109,-107,-170,-219,-209,-165,-78
0,-87,-87,43,43,-87,-43,-82,-136,-151,-136,-87
-19,-87,-68,53,24,-78,29,0,-58,-87,-97,-73
-24,-92,-68,58,21,-80,68,43,-19,-53,-78,-63
-39,-97,-58,68,9,-78,82,68,0,-34,-68,-58
-48,-107,-58,78,4,-82,92,87,9,-29,-58,-58
-53,-112,-58,82,2,-85,102,102,19,-24,-58,-58
-53,-112,-58,82,2,-85,112,107,19,-24,-58,-63
-53,-117,-63,85,4,-90,112,112,24,-19,-58,-68
-58,-117,-58,87,0,-87,122,117,29,-19,-63,-68
-48,-112,-63,80,7,-87,122,122,39,-19,-63,-68
-53,-107,-53,80,0,-80,131,126,39,-19,-63,-68
-58,-102,-43,80,-7,-73,131,131,43,-14,-58,-68
-58,-102,-43,80,-7,-73,131,131,43,-14,-58,-68
-63,-112,-48,87,-7,-80,131,131,48,-14,-73,-73
-63,-112,-48,87,-7,-80,136,136,58,-14,-73,-73
-73,-112,-39,92,-17,-75,136,141,58,-14,-73,-78
-73,-112,-39,92,-17,-75,136,141,58,-14,-78,-78
-73,-112,-39,92,-17,-75,146,151,48,-14,-78,-78
-78,-112,-34,95,-21,-73,151,151,53,-9,-78,-78
-78,-117,-39,97,-19,-78,151,151,53,-9,-73,-78
-78,-117,-39,97,-19,-78,156,156,53,-4,-73,-73
-78,-117,-39,97,-19,-78,156,146,58,-14,-78,-82
-78,-117,-39,97,-19,-78,156,151,58,-19,-78,-82
-87,-126,-39,107,-24,-82,156,151,58,-19,-78,-92
-87,-126,-39,107,-24,-82,156,151,63,-19,-78,-92
-78,-112,-34,95,-21,-73,161,161,73,-9,-78,-82
-73,-112,-39,92,-17,-75,161,161,73,-4,-78,-82
-63,-107,-43,85,-9,-75,161,165,78,-4,-78,-82
-58,-102,-43,80,-7,-73,165,165,78,-4,-78,-82
-63,-107,-43,85,-9,-75,156,156,68,-4,-78,-82
-68,-112,-43,90,-12,-78,156,161,68,-4,-78,-82
-73,-117,-43,95,-14,-80,156,161,68,0,-78,-82
-78,-122,-43,100,-17,-82,161,161,73,0,-78,-87
-73,-117,-43,95,-14,-80,170,170,82,0,-68,-78
-73,-117,-43,95,-14,-80,170,170,82,-4,-73,-82
-73,-117,-43,95,-14,-80,175,170,82,-4,-73,-82
-73,-117,-43,95,-14,-80,175,170,82,0,-73,-82
-82,-126,-43,104,-19,-85,170,175,73,0,-73,-92
-78,-126,-48,102,-14,-87,170,175,78,0,-73,-92
-78,-126,-48,102,-14,-87,175,175,78,0,-73,-92
-82,-126,-43,104,-19,-85,175,175,78,0,-73,-92
-73,-117,-43,95,-14,-80,175,170,78,0,-73,-92
-73,-117,-43,95,-14,-80,175,175,78,0,-78,-92
-78,-122,-43,100,-17,-82,175,175,78,0,-78,-92
-78,-122,-43,100,-17,-82,180,175,82,0,-78,-92
-87,-122,-34,104,-26,-78,170,175,82,0,-78,-92
-87,-122,-34,104,-26,-78,170,175,82,0,-78,-97
-87,-122,-34,104,-26,-78,170,175,82,0,-82,-102
-87,-117,-29,102,-29,-73,170,175,82,0,-82,-102
-82,-112,-29,97,-26,-70,180,185,92,0,-82,-102
-82,-107,-24,95,-29,-65,180,185,92,0,-82,-102
-78,-107,-29,92,-24,-68,185,190,92,0,-82,-107
-73,-102,-29,87,-21,-65,185,190,92,0,-82,-107
-82,-102,-19,92,-31,-61,185,185,97,9,-82,-97
-82,-102,-19,92,-31,-61,185,185,97,9,-82,-97
-82,-97,-14,90,-34,-56,185,195,102,14,-78,-97
-82,-97,-14,90,-34,-56,190,195,102,14,-78,-102
-82,-112,-29,97,-26,-70,190,204,107,9,-97,-117
-82,-112,-29,97,-26,-70,195,204,107,9,-97,-117
-82,-112,-29,97,-26,-70,195,214,107,14,-97,-117
-82,-117,-34,100,-24,-75,200,214,112,14,-97,-117
-102,-122,-19,112,-41,-70,200,214,112,4,-97,-126
-102,-126,-24,114,-39,-75,200,214,112,9,-97,-126
-97,-131,-34,114,-31,-82,200,219,122,9,-97,-126
-92,-136,-43,114,-24,-90,209,219,122,9,-97,-126
-82,-126,-43,104,-19,-85,209,229,122,19,-97,-117
-82,-122,-39,102,-21,-80,209,234,131,24,-92,-117
-82,-122,-39,102,-21,-80,214,234,131,24,-92,-117
-82,-126,-43,104,-19,-85,219,234,131,24,-92,-117
-82,-117,-34,100,-24,-75,219,234,141,24,-82,-112
-82,-117,-34,100,-24,-75,219,239,151,24,-82,-112
-82,-117,-34,100,-24,-75,224,244,156,29,-82,-112
-82,-117,-34,100,-24,-75,224,248,156,29,-82,-112
-92,-107,-14,100,-39,-61,224,248,151,34,-73,-102
-92,-107,-14,100,-39,-61,229,253,156,34,-78,-107
-92,-107,-14,100,-39,-61,229,258,156,34,-78,-107
-92,-102,-9,97,-41,-56,234,263,156,39,-78,-107
-102,-112,-9,107,-46,-61,229,273,165,43,-78,-117
-102,-112,-9,107,-46,-61,234,278,175,48,-73,-117
-102,-112,-9,107,-46,-61,239,283,180,48,-73,-117
-107,-112,-4,109,-51,-58,239,287,185,53,-73,-122
-117,-112,4,114,-61,-53,258,292,190,53,-73,-122
-122,-112,9,117,-65,-51,258,302,195,58,-73,-122
-122,-117,4,119,-63,-56,263,307,200,63,-73,-122
-122,-117,4,119,-63,-56,268,312,204,68,-68,-117
-107,-102,4,104,-56,-48,273,336,214,73,-68,-107
-107,-102,4,104,-56,-48,283,341,219,78,-58,-107
-107,-97,9,102,-58,-43,283,341,224,82,-58,-107
-112,-97,14,104,-63,-41,283,351,229,87,-58,-102
-107,-97,9,102,-58,-43,292,366,229,92,-48,-102
-107,-97,9,102,-58,-43,292,370,239,97,-48,-102
-107,-92,14,100,-61,-39,297,380,253,107,-48,-102
-107,-87,19,97,-63,-34,302,380,263,112,-43,-102
-107,-97,9,102,-58,-43,292,390,253,117,-34,-102
-112,-92,19,102,-65,-36,297,400,268,122,-34,-102
-112,-92,19,102,-65,-36,307,414,278,126,-34,-102
-107,-92,14,100,-61,-39,312,419,287,131,-34,-102
-97,-82,14,90,-56,-34,326,429,302,141,-34,-112
-107,-82,24,95,-65,-29,331,439,317,151,-29,-107
-107,-82,24,95,-65,-29,336,448,326,161,-29,-107
-107,-82,24,95,-65,-29,341,458,336,165,-19,-102
-117,-87,29,102,-73,-29,346,478,356,175,-24,-102
-122,-82,39,102,-80,-21,356,488,366,180,-19,-97
-122,-78,43,100,-82,-17,356,497,375,180,-14,-92
-122,-78,43,100,-82,-17,356,507,390,190,-4,-87
-131,-78,53,104,-92,-12,366,522,405,209,4,-87
-131,-73,58,102,-95,-7,380,541,414,219,14,-78
-131,-73,58,102,-95,-7,385,551,419,224,19,-78
-131,-73,58,102,-95,-7,390,561,429,234,19,-82
-126,-63,63,95,-95,0,405,575,448,248,29,-73
-122,-58,63,90,-92,2,414,585,463,263,34,-73
-126,-53,73,90,-100,9,419,600,483,273,39,-68
-122,-48,73,85,-97,12,424,610,502,297,48,-63
-131,-39,92,85,-112,26,434,629,512,312,58,-58
-131,-39,92,85,-112,26,439,644,527,317,58,-58
-126,-29,97,78,-112,34,448,658,546,331,68,-53
-126,-24,102,75,-114,39,453,673,561,336,78,-43
-126,-19,107,73,-117,43,448,678,570,356,92,-39
-131,-19,112,75,-122,46,453,688,585,361,92,-34
-131,-9,122,70,-126,56,458,697,600,380,107,-29
-141,0,141,70,-141,70,468,712,619,405,122,-24
-151,-9,141,80,-146,65,468,722,624,409,131,-24
-151,0,151,75,-151,75,473,732,639,424,136,-19
-151,4,156,73,-153,80,478,741,658,439,146,-14
-156,9,165,73,-161,87,483,751,678,453,156,-4
-146,19,165,63,-156,92,497,761,707,458,165,0
-146,29,175,58,-161,102,497,771,727,473,175,4
-146,39,185,53,-165,112,502,780,736,488,190,14
-146,53,200,46,-173,126,502,790,751,502,204,19
-156,53,209,51,-183,131,507,790,766,527,214,24
-156,58,214,48,-185,136,507,795,780,541,219,34
-151,73,224,39,-187,148,507,805,795,561,229,43
-151,73,224,39,-187,148,507,805,800,570,248,48
-151,78,229,36,-190,153,507,805,800,585,258,63
-151,92,244,29,-197,168,507,810,819,595,273,73
-151,102,253,24,-202,178,507,810,829,605,283,82
-151,107,258,21,-204,183,502,814,849,624,297,92
-146,122,268,12,-207,195,492,805,868,644,302,102
-146,122,268,12,-207,195,488,805,878,658,317,117
-146,126,273,9,-209,200,488,795,883,663,326,122
-146,131,278,7,-212,204,478,790,883,673,336,131
-136,131,268,2,-202,200,463,780,878,673,361,156
-136,136,273,0,-204,204,463,771,883,683,370,165
-126,141,268,-7,-197,204,453,761,888,688,375,170
-117,156,273,-19,-195,214,444,756,888,697,385,185
-117,170,287,-26,-202,229,439,751,888,702,405,200
-112,180,292,-34,-202,236,434,732,878,707,409,209
