I, II, III, aVR, aVL, aVF, V1, V2, V3, V4, V5, V6
48,-527,-575,239,312,-551,380,810,322,409,195,751
48,-522,-570,236,309,-546,380,810,317,409,195,746
48,-517,-566,234,307,-541,380,810,312,409,195,741
48,-512,-561,231,305,-536,375,800,312,409,195,741
48,-507,-556,229,302,-531,370,790,312,409,195,741
48,-502,-551,226,300,-527,370,771,307,409,200,741
48,-497,-546,224,297,-522,370,751,302,409,204,741
43,-497,-541,226,292,-519,375,727,297,409,204,746
39,-497,-536,229,287,-517,380,702,292,409,204,751
24,-497,-522,236,273,-509,380,683,287,409,204,751
9,-497,-507,244,258,-502,380,663,283,409,204,751
0,-497,-497,248,248,-497,385,644,273,405,204,751
-9,-497,-488,253,239,-492,390,624,263,400,204,751
-19,-497,-478,258,229,-488,390,614,258,400,204,751
-29,-497,-468,263,219,-483,390,605,253,400,204,751
-34,-497,-463,265,214,-480,390,595,248,395,204,751
-39,-497,-458,268,209,-478,390,585,244,390,204,751
-48,-497,-448,273,200,-473,395,575,244,390,200,751
-58,-497,-439,278,190,-468,400,566,244,390,195,751
-63,-497,-434,280,185,-466,405,561,239,390,195,746
-68,-497,-429,283,180,-463,409,556,234,390,195,741
-73,-497,-424,285,175,-461,409,551,234,390,190,736
-78,-497,-419,287,170,-458,409,546,234,390,185,732
-78,-492,-414,285,168,-453,409,546,229,390,185,727
-78,-488,-409,283,165,-448,409,546,224,390,185,722
-78,-488,-409,283,165,-448,414,546,224,390,185,717
-78,-488,-409,283,165,-448,419,546,224,390,185,712
-78,-488,-409,283,165,-448,419,546,224,390,185,712
-78,-488,-409,283,165,-448,419,546,224,390,185,712
-82,-483,-400,283,158,-441,419,546,224,390,185,707
-87,-478,-390,283,151,-434,419,546,224,390,185,702
-87,-478,-390,283,151,-434,419,546,224,390,185,702
-87,-478,-390,283,151,-434,419,546,224,390,185,702
-87,-473,-385,280,148,-429,419,551,224,390,185,697
-87,-468,-380,278,146,-424,419,556,224,390,185,692
-87,-458,-370,273,141,-414,419,556,224,390,190,692
-87,-448,-361,268,136,-405,419,556,224,390,195,692
-87,-448,-361,268,136,-405,429,561,224,395,195,688
-87,-448,-361,268,136,-405,439,566,224,400,195,683
-82,-439,-356,261,136,-397,439,566,229,400,195,683
-78,-429,-351,253,136,-390,439,566,234,400,195,683
-78,-429,-351,253,136,-390,439,570,234,405,195,678
-78,-429,-351,253,136,-390,439,575,234,409,195,673
-82,-429,-346,256,131,-387,439,575,234,409,195,673
-87,-429,-341,258,126,-385,439,575,234,409,195,673
-87,-424,-336,256,124,-380,439,575,234,414,200,673
-87,-419,-331,253,122,-375,439,575,234,419,204,673
-87,-409,-322,248,117,-366,439,575,239,424,204,673
-87,-400,-312,244,112,-356,439,575,244,429,204,673
-87,-390,-302,239,107,-346,444,580,244,429,209,673
-87,-380,-292,234,102,-336,448,585,244,429,214,673
-82,-375,-292,229,104,-334,448,590,248,434,219,673
-78,-370,-292,224,107,-331,448,595,253,439,224,673
-78,-366,-287,222,104,-326,448,600,258,444,224,673
-78,-361,-283,219,102,-322,448,605,263,448,224,673
-82,-356,-273,219,95,-314,448,605,263,453,229,673
-87,-351,-263,219,87,-307,448,605,263,458,234,673
-87,-346,-258,217,85,-302,448,605,263,463,234,668
-87,-341,-253,214,82,-297,448,605,263,468,234,663
-87,-331,-244,209,78,-287,458,605,263,468,234,663
-87,-322,-234,204,73,-278,468,605,263,468,234,663
-87,-322,-234,204,73,-278,468,605,263,468,234,663
-87,-322,-234,204,73,-278,468,605,263,468,234,663
-87,-322,-234,204,73,-278,463,605,263,468,234,658
-87,-322,-234,204,73,-278,458,605,263,468,234,653
-87,-312,-224,200,68,-268,458,605,263,468,234,649
-87,-302,-214,195,63,-258,458,605,263,468,234,644
-87,-297,-209,192,61,-253,463,600,263,468,234,644
-87,-292,-204,190,58,-248,468,595,263,468,234,644
-87,-287,-200,187,56,-244,468,595,263,463,234,639
-87,-283,-195,185,53,-239,468,595,263,458,234,634
-82,-278,-195,180,56,-236,468,595,263,458,229,629
-78,-273,-195,175,58,-234,468,595,263,458,224,624
-78,-273,-195,175,58,-234,468,595,258,458,224,619
-78,-273,-195,175,58,-234,468,595,253,458,224,614
-82,-273,-190,178,53,-231,468,590,253,458,224,610
-87,-273,-185,180,48,-229,468,585,253,458,224,605
-87,-268,-180,178,46,-224,468,585,248,453,224,605
-87,-263,-175,175,43,-219,468,585,244,448,224,605
-87,-258,-170,173,41,-214,468,585,244,448,224,600
-87,-253,-165,170,39,-209,468,585,244,448,224,595
-87,-248,-161,168,36,-204,468,585,244,448,224,595
-87,-244,-156,165,34,-200,468,585,244,448,224,595
-82,-244,-161,163,39,-202,468,580,244,448,219,590
-78,-244,-165,161,43,-204,468,575,244,448,214,585
-78,-234,-156,156,39,-195,468,575,239,448,214,580
-78,-224,-146,151,34,-185,468,575,234,448,214,575
-78,-219,-141,148,31,-180,468,575,234,448,214,570
-78,-214,-136,146,29,-175,468,575,234,448,214,566
-78,-209,-131,143,26,-170,468,570,234,448,209,561
-78,-204,-126,141,24,-165,468,566,234,448,204,556
-73,-200,-126,136,26,-163,463,566,229,448,204,556
-68,-195,-126,131,29,-161,458,566,224,448,204,556
-68,-190,-122,129,26,-156,458,570,224,448,204,551
-68,-185,-117,126,24,-151,458,575,224,448,204,546
-68,-180,-112,124,21,-146,463,575,224,448,204,546
-68,-175,-107,122,19,-141,468,575,224,448,204,546
-68,-170,-102,119,17,-136,468,570,224,448,200,536
-68,-165,-97,117,14,-131,468,566,224,448,195,527
-68,-165,-97,117,14,-131,463,566,219,448,195,522
-68,-165,-97,117,14,-131,458,566,214,448,195,517
-68,-161,-92,114,12,-126,458,566,214,448,195,517
-68,-156,-87,112,9,-122,458,566,214,448,195,517
-68,-151,-82,109,7,-117,458,566,214,448,195,512
-68,-146,-78,107,4,-112,458,566,214,448,195,507
-68,-146,-78,107,4,-112,453,566,209,444,190,502
-68,-146,-78,107,4,-112,448,566,204,439,185,497
-68,-141,-73,104,2,-107,448,561,204,439,185,492
-68,-136,-68,102,0,-102,448,556,204,439,185,488
-68,-131,-63,100,-2,-97,448,556,204,434,185,483
-68,-126,-58,97,-4,-92,448,556,204,429,185,478
-68,-126,-58,97,-4,-92,448,556,204,429,185,478
-68,-126,-58,97,-4,-92,448,556,204,429,185,478
-68,-117,-48,92,-9,-82,448,551,204,429,185,473
-63,-102,-39,82,-12,-70,448,551,204,429,185,468
-63,-92,-29,78,-17,-61,453,551,204,429,185,463
-63,-87,-24,75,-19,-56,448,551,200,429,180,458
-58,-82,-24,70,-17,-53,448,551,200,429,180,453
-53,-73,-19,63,-17,-46,448,551,200,429,180,448
-48,-68,-19,58,-14,-43,458,556,200,429,180,453
-39,-48,-9,43,-14,-29,463,561,204,439,190,458
-29,-34,-4,31,-12,-19,463,566,214,448,195,458
-24,-4,19,14,-21,7,468,566,224,453,204,453
-19,-4,14,12,-17,4,473,575,234,463,204,463
-9,0,9,4,-9,4,473,575,234,468,204,463
-9,4,14,2,-12,9,483,575,244,473,209,463
-4,0,4,2,-4,2,483,575,258,483,219,463
0,4,4,-2,-2,4,478,580,258,483,219,463
0,4,4,-2,-2,4,468,580,253,483,214,463
-9,-29,-19,19,4,-24,458,570,248,483,214,463
-14,-48,-34,31,9,-41,448,561,239,478,209,453
-14,-63,-48,39,17,-56,444,556,229,473,200,444
-9,-68,-58,39,24,-63,429,556,219,463,195,439
-4,-87,-82,46,39,-85,419,551,204,458,190,424
-4,-107,-102,56,48,-104,419,551,180,448,185,409
-9,-141,-131,75,61,-136,414,546,170,439,175,409
-14,-161,-146,87,65,-153,414,536,161,429,165,395
-19,-156,-136,87,58,-146,414,536,146,414,156,385
-24,-185,-161,104,68,-173,414,531,136,405,146,370
-29,-200,-170,114,70,-185,414,531,131,400,141,361
-29,-214,-185,122,78,-200,414,527,126,390,131,356
-24,-219,-195,122,85,-207,414,527,126,390,131,351
-24,-224,-200,124,87,-212,414,527,126,390,131,346
-24,-229,-204,126,90,-217,414,522,126,395,131,341
-24,-229,-204,126,90,-217,414,522,126,400,131,336
-24,-229,-204,126,90,-217,409,522,122,400,126,336
-24,-234,-209,129,92,-222,409,522,117,400,117,336
-29,-268,-239,148,104,-253,419,522,112,390,117,322
-29,-287,-258,158,114,-273,424,527,112,390,112,317
-39,-283,-244,161,102,-263,429,527,117,390,112,312
-43,-283,-239,163,97,-261,434,527,117,390,112,307
-53,-292,-239,173,92,-265,434,527,117,390,112,307
-58,-297,-239,178,90,-268,434,527,117,390,117,307
-58,-302,-244,180,92,-273,434,527,117,390,117,297
-63,-312,-248,187,92,-280,434,527,117,390,112,292
-63,-317,-253,190,95,-285,429,522,117,390,112,287
-63,-317,-253,190,95,-285,424,517,117,390,112,283
-58,-317,-258,187,100,-287,429,517,122,400,112,283
-53,-312,-258,183,102,-285,429,512,131,409,117,292
-63,-263,-200,163,68,-231,424,483,146,434,141,322
-63,-180,-117,122,26,-148,409,448,195,483,214,380
-53,-107,-53,80,0,-80,366,424,195,522,268,439
14,-63,-78,24,46,-70,209,351,131,527,297,483
180,4,-175,-92,178,-85,4,200,-19,517,326,551
380,68,-312,-224,346,-122,-165,161,-234,458,341,605
590,165,-424,-378,507,-129,-341,170,-395,400,390,663
775,175,-600,-475,688,-212,-429,219,-517,331,375,658
990,-19,-1010,-485,1000,-514,-483,346,-683,180,244,502
1054,-248,-1302,-402,1178,-775,-458,395,-814,9,43,302
932,-624,-1556,-153,1244,-1090,-287,366,-873,-185,-258,-29
775,-917,-1693,70,1234,-1305,-112,302,-873,-331,-478,-234
522,-1015,-1537,246,1029,-1276,43,248,-824,-331,-512,-273
341,-1019,-1361,339,851,-1190,151,234,-653,-248,-473,-224
244,-956,-1200,356,722,-1078,214,253,-448,-136,-400,-190
131,-873,-1005,370,568,-939,283,287,-248,14,-292,-102
9,-692,-702,341,356,-697,370,380,-102,180,-78,73
-48,-600,-551,324,251,-575,434,458,-4,263,-4,156
-68,-585,-517,326,224,-551,463,492,78,322,9,180
-87,-566,-478,326,195,-522,483,492,131,370,48,200
-97,-541,-444,319,173,-492,502,531,141,385,87,239
-97,-531,-434,314,168,-483,517,541,141,400,97,248
-102,-522,-419,312,158,-470,517,541,156,424,97,248
-107,-517,-409,312,151,-463,522,541,165,405,97,248
-107,-551,-444,329,168,-497,527,541,180,424,107,258
-107,-541,-434,324,163,-488,531,541,185,429,112,268
-107,-541,-434,324,163,-488,536,541,195,434,112,273
-107,-541,-434,324,163,-488,541,536,200,444,112,278
-107,-551,-444,329,168,-497,531,536,204,448,122,283
-107,-551,-444,329,168,-497,517,531,204,448,126,287
-102,-556,-453,329,175,-505,570,536,209,448,131,292
-97,-551,-453,324,178,-502,566,541,214,448,136,297
-97,-566,-468,331,185,-517,566,531,219,439,141,307
-97,-566,-468,331,185,-517,566,531,219,473,146,317
-102,-595,-492,348,195,-544,561,531,224,473,151,317
-117,-595,-478,356,180,-536,556,536,229,473,156,317
-117,-590,-473,353,178,-531,551,531,229,478,161,317
-117,-600,-483,358,183,-541,561,527,229,478,165,322
-117,-595,-478,356,180,-536,566,527,234,488,165,326
-117,-595,-478,356,180,-536,570,527,234,492,165,331
-117,-595,-478,356,180,-536,575,512,239,488,165,331
-112,-600,-488,356,187,-544,580,512,244,488,165,336
-112,-610,-497,361,192,-553,580,512,244,492,165,341
-112,-619,-507,366,197,-563,580,507,248,497,161,341
-112,-619,-507,366,197,-563,575,507,248,497,161,346
-112,-634,-522,373,204,-578,580,507,253,502,161,346
-112,-639,-527,375,207,-583,580,512,268,497,165,346
-107,-639,-531,373,212,-585,585,517,273,497,170,351
-102,-653,-551,378,224,-602,614,522,287,507,185,361
-102,-663,-561,383,229,-612,644,527,297,512,195,370
-97,-649,-551,373,226,-600,570,531,278,507,180,370
-87,-653,-566,370,239,-610,600,531,292,507,185,370
-87,-663,-575,375,244,-619,605,536,297,512,190,380
-87,-673,-585,380,248,-629,610,536,302,517,190,385
-82,-663,-580,373,248,-622,614,541,312,522,204,390
-82,-673,-590,378,253,-631,619,546,322,527,214,395
-78,-692,-614,385,268,-653,619,546,331,536,214,400
-73,-688,-614,380,270,-651,619,561,336,546,214,405
-63,-688,-624,375,280,-656,614,566,336,551,219,409
-58,-688,-629,373,285,-658,614,570,336,556,224,414
-53,-702,-649,378,297,-675,614,580,346,561,224,414
-53,-707,-653,380,300,-680,610,595,351,570,229,414
-53,-717,-663,385,305,-690,614,605,356,570,229,419
-43,-722,-678,383,317,-700,614,614,361,580,239,429
-39,-722,-683,380,322,-702,619,624,366,580,239,429
-29,-727,-697,378,334,-712,624,639,375,590,239,434
-19,-727,-707,373,344,-717,629,644,380,590,244,434
-9,-732,-722,370,356,-727,629,658,385,595,248,434
-4,-732,-727,368,361,-729,629,668,390,605,248,439
4,-732,-736,363,370,-734,629,673,395,610,248,444
14,-736,-751,361,383,-744,624,688,395,610,253,448
19,-736,-756,358,387,-746,619,692,395,610,253,448
29,-736,-766,353,397,-751,614,697,395,614,253,448
34,-746,-780,356,407,-763,610,697,400,614,253,453
39,-766,-805,363,422,-785,610,697,405,614,258,453
43,-761,-805,358,424,-783,610,697,409,619,258,453
48,-766,-814,358,431,-790,610,688,400,624,253,458
53,-780,-834,363,444,-807,605,683,400,624,253,463
53,-766,-819,356,436,-793,600,668,400,624,253,468
53,-780,-834,363,444,-807,600,649,400,624,253,473
43,-785,-829,370,436,-807,595,619,385,614,253,478
39,-805,-844,383,441,-824,600,595,375,610,253,483
39,-810,-849,385,444,-829,605,556,370,610,253,492
34,-810,-844,387,439,-827,605,531,366,614,258,497
14,-829,-844,407,429,-836,605,522,361,619,258,497
0,-839,-839,419,419,-839,605,488,356,614,253,502
-9,-824,-814,417,402,-819,605,463,346,610,253,502
-24,-863,-839,444,407,-851,610,439,336,610,253,507
-29,-868,-839,448,405,-854,610,419,331,610,253,512
-39,-878,-839,458,400,-858,610,400,331,610,244,517
-48,-883,-834,466,392,-858,614,385,326,610,244,517
-53,-897,-844,475,395,-871,614,375,322,610,244,517
-58,-912,-854,485,397,-883,624,366,317,600,239,517
-63,-927,-863,495,400,-895,624,356,317,600,239,517
-68,-907,-839,488,385,-873,629,336,312,605,234,517
-73,-932,-858,502,392,-895,629,326,307,605,234,517
-78,-941,-863,509,392,-902,629,322,307,610,234,517
-78,-956,-878,517,400,-917,629,312,307,610,234,517
-82,-956,-873,519,395,-915,644,307,312,610,234,522
-82,-966,-883,524,400,-924,649,307,312,610,234,527
-82,-971,-888,527,402,-929,649,307,312,610,234,527
-82,-995,-912,539,414,-954,644,302,307,605,234,527
-87,-976,-888,531,400,-932,644,297,307,610,234,531
-87,-990,-902,539,407,-946,644,287,302,610,234,536
-82,-990,-907,536,412,-949,649,283,307,610,234,536
-82,-1010,-927,546,422,-968,653,283,312,610,234,536
-82,-1015,-932,549,424,-973,653,283,312,614,234,541
-82,-1015,-932,549,424,-973,653,283,312,614,234,546
-82,-1034,-951,558,434,-993,649,283,312,614,234,546
-87,-1054,-966,570,439,-1010,644,278,312,610,239,546
-87,-1029,-941,558,427,-985,653,273,312,614,239,546
-87,-1063,-976,575,444,-1019,663,268,312,614,239,546
-87,-1044,-956,566,434,-1000,668,268,317,619,239,551
-87,-1054,-966,570,439,-1010,668,268,317,624,239,556
-92,-1054,-961,573,434,-1007,668,263,317,629,239,556
-97,-1068,-971,583,436,-1019,668,263,322,629,239,556
-97,-1073,-976,585,439,-1024,668,263,322,634,239,556
-97,-1078,-980,588,441,-1029,668,268,322,639,244,561
-97,-1078,-980,588,441,-1029,678,263,322,639,244,566
-97,-1093,-995,595,448,-1044,688,258,326,639,248,570
-102,-1078,-976,590,436,-1027,688,258,326,644,248,575
-102,-1102,-1000,602,448,-1051,688,258,326,649,253,580
-97,-1107,-1010,602,456,-1058,683,253,326,649,253,580
-92,-1107,-1015,600,461,-1061,683,248,326,649,253,585
-92,-1112,-1019,602,463,-1066,678,248,326,649,258,590
-97,-1122,-1024,610,463,-1073,678,248,331,653,263,595
-92,-1098,-1005,595,456,-1051,688,253,331,663,268,600
-87,-1102,-1015,595,463,-1058,692,253,336,668,273,600
-87,-1102,-1015,595,463,-1058,692,248,336,673,273,605
-87,-1117,-1029,602,470,-1073,692,244,346,673,273,614
-87,-1122,-1034,605,473,-1078,692,239,346,673,278,619
-87,-1122,-1034,605,473,-1078,688,234,356,673,283,624
-87,-1122,-1034,605,473,-1078,692,234,356,678,283,629
-87,-1132,-1044,610,478,-1088,697,234,351,683,283,634
-92,-1122,-1029,607,468,-1076,697,229,351,688,283,634
-97,-1146,-1049,622,475,-1098,697,224,351,688,287,634
-97,-1151,-1054,624,478,-1102,697,219,351,692,287,634
-92,-1151,-1058,622,483,-1105,697,219,351,692,287,634
-92,-1156,-1063,624,485,-1110,697,209,351,688,287,634
-92,-1161,-1068,627,488,-1115,697,200,351,683,287,634
-92,-1166,-1073,629,490,-1119,697,195,346,683,287,634
-92,-1176,-1083,634,495,-1129,702,195,346,683,283,634
-92,-1180,-1088,636,497,-1134,702,190,346,683,283,634
-92,-1180,-1088,636,497,-1134,702,185,351,683,283,634
-92,-1190,-1098,641,502,-1144,702,185,346,683,283,634
-92,-1200,-1107,646,507,-1154,707,180,346,683,283,634
-87,-1205,-1117,646,514,-1161,707,170,341,683,278,634
-82,-1210,-1127,646,522,-1168,707,161,341,688,278,639
-82,-1220,-1137,651,527,-1178,702,151,341,683,283,639
-82,-1229,-1146,656,531,-1188,702,146,341,683,278,639
-82,-1220,-1137,651,527,-1178,702,141,336,683,278,639
-82,-1239,-1156,661,536,-1198,707,136,336,683,278,644
-82,-1234,-1151,658,534,-1193,707,131,331,683,278,649
-82,-1239,-1156,661,536,-1198,707,131,331,683,278,653
-82,-1239,-1156,661,536,-1198,702,122,326,683,273,653
-82,-1244,-1161,663,539,-1202,697,117,322,683,268,653
-82,-1259,-1176,671,546,-1217,697,112,322,683,268,653
-82,-1263,-1180,673,549,-1222,697,107,322,683,268,653
-82,-1268,-1185,675,551,-1227,697,102,322,683,268,653
-82,-1278,-1195,680,556,-1237,697,102,322,683,268,658
-78,-1283,-1205,680,563,-1244,697,97,317,688,268,658
-73,-1288,-1215,680,570,-1251,697,92,317,692,268,658
-68,-1288,-1220,678,575,-1254,697,87,317,688,268,658
-68,-1293,-1224,680,578,-1259,697,87,317,688,268,658
-68,-1298,-1229,683,580,-1263,702,78,317,688,268,658
-68,-1312,-1244,690,588,-1278,707,73,317,688,263,658
-68,-1312,-1244,690,588,-1278,707,63,312,678,268,658
-73,-1322,-1249,697,588,-1285,707,58,312,678,263,658
-73,-1317,-1244,695,585,-1281,707,53,312,678,263,658
-73,-1317,-1244,695,585,-1281,707,48,312,683,263,653
-68,-1332,-1263,700,597,-1298,707,43,312,683,258,653
-63,-1346,-1283,705,610,-1315,707,43,312,683,263,658
-68,-1342,-1273,705,602,-1307,702,39,312,683,263,663
-68,-1346,-1278,707,605,-1312,702,34,307,683,263,668
-68,-1346,-1278,707,605,-1312,702,24,312,678,258,668
-68,-1351,-1283,710,607,-1317,702,19,312,678,258,668
-68,-1361,-1293,714,612,-1327,702,19,317,678,258,668
-73,-1371,-1298,722,612,-1334,707,14,322,678,258,673
-73,-1371,-1298,722,612,-1334,707,9,322,678,258,668
-73,-1376,-1302,724,614,-1339,712,4,317,678,258,668
-58,-1376,-1317,717,629,-1346,707,4,317,678,253,673
-48,-1376,-1327,712,639,-1351,707,-4,307,678,253,673
-48,-1385,-1337,717,644,-1361,702,0,307,678,253,673
-48,-1400,-1351,724,651,-1376,697,0,307,683,253,673
-53,-1400,-1346,727,646,-1373,697,4,297,678,253,673
-58,-1405,-1346,732,644,-1376,702,9,292,673,253,673
-53,-1415,-1361,734,653,-1388,702,9,292,673,248,673
-48,-1424,-1376,736,663,-1400,702,9,292,673,244,673
-48,-1424,-1376,736,663,-1400,702,9,292,673,244,673
-43,-1424,-1381,734,668,-1403,702,14,292,673,244,673
-43,-1424,-1381,734,668,-1403,702,19,292,673,244,678
-43,-1434,-1390,739,673,-1412,692,24,287,673,239,683
-43,-1449,-1405,746,680,-1427,692,29,287,673,239,683
-43,-1459,-1415,751,685,-1437,692,34,287,673,239,683
-39,-1459,-1420,749,690,-1439,712,39,287,673,239,688
-29,-1444,-1415,736,692,-1429,727,43,292,683,248,692
-24,-1439,-1415,732,695,-1427,727,53,302,697,258,702
-24,-1420,-1395,722,685,-1407,732,58,312,707,273,707
-24,-1420,-1395,722,685,-1407,736,68,322,712,273,717
-19,-1415,-1395,717,688,-1405,736,68,322,712,273,717
-19,-1405,-1385,712,683,-1395,746,78,331,717,278,722
-14,-1405,-1390,710,688,-1398,746,87,346,727,287,727
-9,-1400,-1390,705,690,-1395,741,92,356,727,287,732
-9,-1400,-1390,705,690,-1395,732,92,361,727,283,736
-9,-1424,-1415,717,702,-1420,722,87,356,727,287,736
-4,-1434,-1429,719,712,-1432,712,82,346,722,287,727
-4,-1444,-1439,724,717,-1442,707,78,331,717,278,727
0,-1444,-1444,722,722,-1444,692,78,317,707,273,732
9,-1454,-1464,722,736,-1459,678,78,307,702,268,727
14,-1464,-1478,724,746,-1471,673,82,287,692,263,722
14,-1493,-1507,739,761,-1500,668,82,278,683,253,717
14,-1507,-1522,746,768,-1515,668,78,268,673,244,697
4,-1512,-1517,753,761,-1515,668,78,248,658,229,692
-4,-1551,-1546,778,771,-1549,668,73,234,649,214,683
-14,-1561,-1546,788,766,-1554,673,78,224,644,209,673
-19,-1571,-1551,795,766,-1561,678,78,214,634,200,668
-19,-1571,-1551,795,766,-1561,678,78,214,634,200,668
-24,-1571,-1546,797,761,-1559,678,78,214,634,200,668
-24,-1576,-1551,800,763,-1564,673,73,214,634,200,673
-24,-1576,-1551,800,763,-1564,668,73,214,634,200,678
-24,-1576,-1551,800,763,-1564,663,78,209,634,195,678
-24,-1581,-1556,802,766,-1568,663,82,204,634,185,678
-29,-1600,-1571,814,771,-1586,668,92,200,624,185,668
-29,-1605,-1576,817,773,-1590,668,107,200,624,180,668
-39,-1600,-1561,819,761,-1581,678,107,209,624,180,668
-43,-1600,-1556,822,756,-1578,688,107,214,624,180,668
-48,-1610,-1561,829,756,-1586,688,112,214,629,180,668
-48,-1615,-1566,832,758,-1590,688,117,214,634,185,668
-48,-1615,-1566,832,758,-1590,688,117,214,634,185,668
-53,-1620,-1566,836,756,-1593,688,117,214,634,180,673
-53,-1625,-1571,839,758,-1598,688,122,209,634,180,673
-53,-1625,-1571,839,758,-1598,688,126,204,634,180,673
-58,-1629,-1571,844,756,-1600,692,131,209,639,180,673
-63,-1629,-1566,846,751,-1598,692,131,219,644,185,683
-78,-1595,-1517,836,719,-1556,697,112,239,668,204,712
-82,-1527,-1444,805,680,-1485,692,87,292,717,273,771
-107,-1449,-1342,778,617,-1395,678,82,322,761,326,834
-73,-1400,-1327,736,627,-1363,551,29,287,771,356,883
73,-1332,-1405,629,739,-1368,336,-156,151,775,385,951
253,-1268,-1522,507,888,-1395,156,-229,-48,732,400,1005
492,-1112,-1605,309,1049,-1359,-39,-244,-209,678,473,1098
707,-1044,-1751,168,1229,-1398,-146,-219,-331,614,483,1127
980,-1190,-2171,104,1576,-1681,-234,-63,-517,488,395,1015
1102,-1371,-2474,134,1788,-1922,-244,14,-668,341,239,858
995,-1771,-2766,387,1881,-2269,-87,4,-756,107,-102,492
854,-2088,-2942,617,1898,-2515,73,-39,-785,-78,-361,253
585,-2230,-2815,822,1700,-2522,268,-92,-761,-102,-424,185
390,-2278,-2669,944,1529,-2474,414,-107,-614,-43,-414,204
292,-2235,-2527,971,1410,-2381,468,-87,-409,53,-361,219
180,-2171,-2352,995,1266,-2261,527,-53,-209,190,-273,287
53,-1961,-2015,954,1034,-1988,619,53,-43,380,-34,468
-9,-1839,-1830,924,910,-1834,688,146,73,488,63,556
-34,-1815,-1781,924,873,-1798,712,195,170,546,82,585
-58,-1786,-1727,922,834,-1756,727,209,239,595,126,610
-68,-1761,-1693,915,812,-1727,756,253,248,610,170,644
-68,-1751,-1683,910,807,-1717,780,268,248,624,185,649
-73,-1737,-1664,905,795,-1700,780,268,258,653,185,649
-78,-1727,-1649,902,785,-1688,785,268,263,639,185,649
-87,-1756,-1668,922,790,-1712,785,273,273,663,195,649
-97,-1742,-1644,919,773,-1693,785,278,273,673,200,649
-97,-1742,-1644,919,773,-1693,790,283,283,673,200,653
-97,-1742,-1644,919,773,-1693,795,283,287,678,200,658
-97,-1747,-1649,922,775,-1698,790,292,297,683,209,658
-97,-1742,-1644,919,773,-1693,780,297,302,683,214,658
-97,-1747,-1649,922,775,-1698,834,302,307,688,219,658
-97,-1742,-1644,919,773,-1693,829,307,312,692,224,658
-97,-1756,-1659,927,780,-1708,829,302,317,683,229,658
-97,-1756,-1659,927,780,-1708,829,307,317,717,234,658
-97,-1776,-1678,936,790,-1727,834,307,322,717,234,658
-107,-1766,-1659,936,775,-1712,839,312,326,717,234,658
-107,-1756,-1649,932,771,-1703,819,317,331,727,234,653
-107,-1761,-1654,934,773,-1708,814,322,336,732,234,653
-107,-1756,-1649,932,771,-1703,814,331,341,736,239,649
-107,-1756,-1649,932,771,-1703,814,341,341,736,244,644
-107,-1756,-1649,932,771,-1703,824,331,346,736,244,644
-102,-1761,-1659,932,778,-1710,834,336,351,741,244,649
-97,-1761,-1664,929,783,-1712,834,341,351,741,244,649
-92,-1761,-1668,927,788,-1715,834,341,356,741,239,644
-92,-1747,-1654,919,780,-1700,834,351,351,741,239,644
-92,-1747,-1654,919,780,-1700,844,361,351,746,239,639
-92,-1747,-1654,919,780,-1700,844,366,361,746,244,639
-87,-1742,-1654,915,783,-1698,849,370,361,751,248,644
-87,-1756,-1668,922,790,-1712,873,370,375,751,253,639
-92,-1766,-1673,929,790,-1720,897,370,385,746,253,634
-87,-1747,-1659,917,785,-1703,819,375,361,746,244,629
-78,-1747,-1668,912,795,-1708,844,375,370,751,253,624
-78,-1747,-1668,912,795,-1708,849,390,380,756,258,629
-78,-1747,-1668,912,795,-1708,854,400,390,761,258,629
-73,-1742,-1668,907,797,-1705,858,409,395,766,268,629
-73,-1756,-1683,915,805,-1720,863,419,400,771,273,629
-73,-1771,-1698,922,812,-1734,868,424,405,775,278,629
-73,-1761,-1688,917,807,-1725,873,444,405,780,283,629
-58,-1756,-1698,907,819,-1727,868,458,409,785,287,629
-48,-1751,-1703,900,827,-1727,868,473,414,790,292,629
-43,-1756,-1712,900,834,-1734,873,478,424,795,292,629
-43,-1751,-1708,897,832,-1729,873,488,429,805,297,629
-43,-1761,-1717,902,836,-1739,873,502,434,805,297,624
-34,-1766,-1732,900,849,-1749,868,517,439,814,307,624
-24,-1761,-1737,893,856,-1749,868,536,444,814,312,619
-9,-1761,-1751,885,871,-1756,868,561,453,824,317,619
-4,-1756,-1751,880,873,-1754,868,566,458,824,317,614
0,-1756,-1756,878,878,-1756,863,580,463,829,317,610
4,-1756,-1761,875,883,-1759,863,595,463,834,317,605
14,-1756,-1771,871,893,-1764,863,605,463,834,317,600
14,-1761,-1776,873,895,-1769,863,624,463,839,322,605
9,-1761,-1771,875,890,-1766,863,634,463,844,322,605
19,-1761,-1781,871,900,-1771,863,649,463,849,322,600
24,-1771,-1795,873,910,-1783,863,658,468,849,322,600
34,-1786,-1820,875,927,-1803,863,658,468,844,322,590
43,-1776,-1820,866,932,-1798,863,658,468,844,317,580
43,-1776,-1820,866,932,-1798,863,653,458,844,312,575
43,-1786,-1830,871,936,-1808,858,653,458,839,312,570
43,-1766,-1810,861,927,-1788,849,644,458,844,312,570
43,-1776,-1820,866,932,-1798,844,629,458,849,312,570
34,-1766,-1800,866,917,-1783,834,610,448,844,312,575
29,-1771,-1800,871,915,-1786,834,595,444,844,312,580
29,-1776,-1805,873,917,-1790,839,561,439,844,312,585
24,-1776,-1800,875,912,-1788,839,541,434,849,317,585
4,-1790,-1795,893,900,-1793,844,531,429,849,317,580
-9,-1795,-1786,902,888,-1790,849,497,424,839,312,580
-14,-1771,-1756,893,871,-1764,849,483,419,834,312,575
-24,-1800,-1776,912,875,-1788,854,468,414,834,312,575
-34,-1805,-1771,919,868,-1788,858,453,409,834,317,575
-48,-1815,-1766,932,858,-1790,863,439,409,834,312,575
-53,-1815,-1761,934,854,-1788,868,429,405,834,312,570
-53,-1825,-1771,939,858,-1798,868,424,400,834,312,566
-58,-1825,-1766,941,854,-1795,878,419,395,829,307,566
-63,-1825,-1761,944,849,-1793,878,414,395,834,307,566
-68,-1800,-1732,934,832,-1766,883,405,395,834,302,561
-73,-1820,-1747,946,836,-1783,883,405,395,829,302,556
-78,-1830,-1751,954,836,-1790,883,405,390,834,302,551
-78,-1844,-1766,961,844,-1805,883,400,385,834,302,546
-82,-1844,-1761,963,839,-1803,897,390,390,834,302,541
-82,-1854,-1771,968,844,-1812,902,385,390,834,302,536
-82,-1854,-1771,968,844,-1812,907,395,395,834,302,536
-82,-1873,-1790,978,854,-1832,907,400,395,829,302,536
-87,-1849,-1761,968,836,-1805,907,400,395,834,302,531
-87,-1859,-1771,973,841,-1815,907,395,390,834,302,527
-87,-1859,-1771,973,841,-1815,907,395,395,834,302,522
-92,-1878,-1786,985,846,-1832,907,400,400,834,302,517
-92,-1878,-1786,985,846,-1832,907,405,400,839,302,517
-92,-1873,-1781,983,844,-1827,907,409,400,839,302,517
-92,-1883,-1790,988,849,-1837,907,414,395,839,297,512
-97,-1893,-1795,995,849,-1844,907,414,390,834,297,507
-92,-1869,-1776,980,841,-1822,912,414,390,839,297,502
-87,-1903,-1815,995,863,-1859,917,414,390,839,297,497
-87,-1873,-1786,980,849,-1830,922,419,395,844,297,497
-87,-1873,-1786,980,849,-1830,922,424,395,849,297,497
-87,-1873,-1786,980,849,-1830,927,429,395,858,297,497
-87,-1888,-1800,988,856,-1844,932,439,400,863,297,497
-87,-1893,-1805,990,858,-1849,932,439,405,863,297,492
-87,-1898,-1810,993,861,-1854,932,444,409,863,302,492
-87,-1883,-1795,985,854,-1839,936,444,409,868,302,488
-87,-1883,-1795,985,854,-1839,941,444,414,873,307,483
-92,-1869,-1776,980,841,-1822,941,448,414,878,307,478
-92,-1893,-1800,993,854,-1847,941,453,414,883,312,473
-97,-1898,-1800,997,851,-1849,936,453,414,883,312,468
-102,-1898,-1795,1000,846,-1847,936,453,414,883,312,468
-102,-1893,-1790,997,844,-1842,932,453,414,883,317,468
-107,-1893,-1786,1000,839,-1839,932,453,419,888,322,468
-107,-1878,-1771,993,832,-1825,936,458,419,893,322,468
-107,-1893,-1786,1000,839,-1839,936,458,424,893,322,463
-107,-1883,-1776,995,834,-1830,936,458,419,897,322,458
-107,-1888,-1781,997,836,-1834,936,458,424,897,322,458
-107,-1893,-1786,1000,839,-1839,941,463,424,902,322,453
-107,-1893,-1786,1000,839,-1839,941,468,434,907,322,448
-107,-1893,-1786,1000,839,-1839,941,473,434,907,322,444
-107,-1903,-1795,1005,844,-1849,941,478,429,907,322,439
-107,-1878,-1771,993,832,-1825,941,478,429,912,322,439
-107,-1888,-1781,997,836,-1834,941,478,429,912,326,439
-107,-1883,-1776,995,834,-1830,941,478,429,917,326,439
-102,-1873,-1771,988,834,-1822,941,483,429,917,326,439
-97,-1873,-1776,985,839,-1825,946,478,429,912,326,434
-92,-1873,-1781,983,844,-1827,951,473,429,907,326,429
-92,-1873,-1781,983,844,-1827,946,468,424,907,326,424
-92,-1878,-1786,985,846,-1832,946,468,424,907,322,419
-92,-1878,-1786,985,846,-1832,951,468,419,907,322,414
-92,-1873,-1781,983,844,-1827,956,468,419,907,322,409
-92,-1873,-1781,983,844,-1827,951,473,419,907,322,409
-92,-1873,-1781,983,844,-1827,951,473,424,907,322,409
-87,-1873,-1786,980,849,-1830,956,473,424,902,317,405
-82,-1873,-1790,978,854,-1832,961,473,429,902,317,405
-82,-1883,-1800,983,858,-1842,956,468,429,897,317,400
-82,-1893,-1810,988,863,-1851,956,468,429,897,307,395
-82,-1878,-1795,980,856,-1837,951,468,424,897,307,385
-82,-1893,-1810,988,863,-1851,951,468,424,897,307,380
-82,-1888,-1805,985,861,-1847,956,468,419,897,307,380
-82,-1893,-1810,988,863,-1851,961,473,419,897,307,380
-82,-1888,-1805,985,861,-1847,961,468,419,897,307,375
-82,-1888,-1805,985,861,-1847,961,468,419,897,307,370
-82,-1903,-1820,993,868,-1861,961,463,414,897,307,370
-82,-1908,-1825,995,871,-1866,961,458,409,897,307,370
-82,-1903,-1820,993,868,-1861,956,458,409,897,307,361
-82,-1903,-1820,993,868,-1861,951,463,409,897,307,356
-82,-1903,-1820,993,868,-1861,951,463,400,902,307,351
-82,-1903,-1820,993,868,-1861,951,463,395,907,307,346
-78,-1903,-1825,990,873,-1864,951,463,395,907,307,341
-78,-1908,-1830,993,875,-1869,951,468,395,912,307,336
-78,-1908,-1830,993,875,-1869,951,463,395,912,307,331
-78,-1917,-1839,997,880,-1878,951,463,395,912,302,326
-73,-1912,-1839,993,883,-1876,951,458,390,902,302,322
-73,-1917,-1844,995,885,-1881,951,458,390,902,292,317
-73,-1912,-1839,993,883,-1876,951,458,390,902,292,312
-73,-1912,-1839,993,883,-1876,951,458,390,907,292,302
-73,-1912,-1839,993,883,-1876,951,453,390,907,283,297
-73,-1912,-1839,993,883,-1876,951,453,390,907,283,297
-78,-1908,-1830,993,875,-1869,951,458,395,907,283,297
-78,-1912,-1834,995,878,-1873,956,463,395,907,283,297
-78,-1908,-1830,993,875,-1869,956,458,395,902,278,297
-78,-1908,-1830,993,875,-1869,956,458,390,902,278,297
-63,-1903,-1839,983,888,-1871,951,458,395,902,278,292
-53,-1898,-1844,976,895,-1871,951,453,400,902,278,287
-58,-1898,-1839,978,890,-1869,946,453,395,897,273,273
-68,-1903,-1834,985,883,-1869,946,458,390,897,273,263
-68,-1903,-1834,985,883,-1869,941,453,390,897,273,263
-68,-1903,-1834,985,883,-1869,936,448,390,897,273,263
-68,-1903,-1834,985,883,-1869,936,448,385,893,268,253
-68,-1903,-1834,985,883,-1869,941,448,380,888,263,244
-68,-1903,-1834,985,883,-1869,946,448,380,888,263,239
-63,-1903,-1839,983,888,-1871,951,453,380,888,263,234
-63,-1912,-1849,988,893,-1881,946,453,375,888,258,234
-63,-1912,-1849,988,893,-1881,946,453,375,888,258,234
-63,-1908,-1844,985,890,-1876,941,453,375,888,258,229
-58,-1903,-1844,980,893,-1873,946,453,375,888,258,229
-48,-1883,-1834,966,893,-1859,951,458,380,897,263,229
-43,-1878,-1834,961,895,-1856,951,468,390,907,263,229
-39,-1854,-1815,946,888,-1834,956,468,400,912,273,224
-34,-1849,-1815,941,890,-1832,961,478,409,917,273,229
-29,-1844,-1815,936,893,-1830,961,478,409,917,273,229
-29,-1834,-1805,932,888,-1820,971,478,419,922,278,234
-24,-1830,-1805,927,890,-1817,971,473,434,936,292,229
-19,-1820,-1800,919,890,-1810,966,473,434,941,297,224
-19,-1815,-1795,917,888,-1805,956,473,434,941,292,229
-19,-1830,-1810,924,895,-1820,946,463,434,941,292,229
-14,-1834,-1820,924,902,-1827,936,453,424,936,287,214
-14,-1844,-1830,929,907,-1837,932,448,414,932,278,204
-9,-1844,-1834,927,912,-1839,912,448,405,922,273,200
-4,-1849,-1844,927,919,-1847,897,444,395,917,268,190
0,-1854,-1854,927,927,-1854,897,444,375,907,263,180
4,-1869,-1873,932,939,-1871,893,444,366,897,253,175
4,-1883,-1888,939,946,-1886,893,439,351,888,239,156
0,-1888,-1888,944,944,-1888,893,439,331,873,224,146
-4,-1912,-1908,958,951,-1910,893,434,322,863,214,131
-9,-1912,-1903,961,946,-1908,897,434,317,863,214,122
-9,-1912,-1903,961,946,-1908,902,429,312,858,204,117
-9,-1912,-1903,961,946,-1908,902,429,312,858,200,112
-24,-1908,-1883,966,929,-1895,907,434,312,858,200,112
-34,-1903,-1869,968,917,-1886,907,434,312,858,200,112
-34,-1898,-1864,966,915,-1881,902,434,312,858,200,107
-34,-1898,-1864,966,915,-1881,897,434,307,858,195,102
-34,-1903,-1869,968,917,-1886,902,434,302,858,185,97
-39,-1917,-1878,978,919,-1898,912,434,297,849,185,82
-39,-1917,-1878,978,919,-1898,912,434,297,849,180,78
-48,-1912,-1864,980,907,-1888,917,429,302,849,180,73
-53,-1912,-1859,983,902,-1886,922,429,307,849,180,68
-58,-1912,-1854,985,897,-1883,922,429,312,849,180,63
-58,-1908,-1849,983,895,-1878,922,429,312,849,185,58
-58,-1903,-1844,980,893,-1873,922,429,312,849,185,53
-63,-1903,-1839,983,888,-1871,917,429,312,849,180,53
-63,-1903,-1839,983,888,-1871,912,429,312,849,180,48
-68,-1898,-1830,983,880,-1864,912,429,312,854,180,48
-73,-1888,-1815,980,871,-1851,917,429,317,863,180,48
-73,-1864,-1790,968,858,-1827,917,424,331,873,190,58
-82,-1820,-1737,951,827,-1778,907,405,351,902,219,87
-73,-1727,-1654,900,790,-1690,883,361,400,951,292,141
-53,-1644,-1590,849,768,-1617,834,322,400,990,346,200
24,-1590,-1615,783,819,-1603,678,248,336,995,375,248
190,-1498,-1688,653,939,-1593,483,97,200,995,414,317
380,-1420,-1800,519,1090,-1610,307,53,-4,946,439,380
585,-1302,-1888,358,1237,-1595,146,58,-146,893,488,439
751,-1322,-2074,285,1412,-1698,102,102,-244,819,463,414
912,-1522,-2435,305,1673,-1978,68,229,-409,673,322,248
917,-1756,-2674,419,1795,-2215,107,278,-536,517,122,39
775,-2098,-2874,661,1825,-2486,287,258,-590,322,-161,-268
614,-2342,-2957,863,1786,-2649,463,204,-590,175,-356,-439
385,-2444,-2830,1029,1607,-2637,600,141,-541,175,-395,-478
234,-2449,-2684,1107,1459,-2566,683,156,-375,263,-361,-419
156,-2361,-2518,1102,1337,-2440,732,200,-190,366,-283,-375
73,-2239,-2313,1083,1193,-2276,790,239,-4,502,-175,-287
-19,-2074,-2054,1046,1017,-2064,849,341,126,658,24,-131
-58,-2000,-1942,1029,941,-1971,883,405,209,727,78,-78
-68,-1981,-1912,1024,922,-1947,907,439,283,771,87,-63
-78,-1952,-1873,1015,897,-1912,917,434,326,800,126,-43
-87,-1927,-1839,1007,875,-1883,927,453,336,805,165,-9
-87,-1917,-1830,1002,871,-1873,932,458,331,819,170,-4
-92,-1917,-1825,1005,866,-1871,927,453,341,829,165,-4
-97,-1893,-1795,995,849,-1844,927,453,351,805,165,4
-102,-1908,-1805,1005,851,-1856,927,453,361,829,170,14
-102,-1908,-1805,1005,851,-1856,927,463,361,829,170,14
-97,-1908,-1810,1002,856,-1859,927,463,370,824,170,14
-97,-1903,-1805,1000,854,-1854,927,448,375,819,170,24
-97,-1898,-1800,997,851,-1849,927,448,385,819,180,34
-97,-1888,-1790,993,846,-1839,897,453,390,819,185,34
-97,-1888,-1790,993,846,-1839,927,458,395,824,190,39
-97,-1883,-1786,990,844,-1834,927,463,400,795,190,43
-97,-1903,-1805,1000,854,-1854,927,458,405,785,190,48
-97,-1908,-1810,1002,856,-1859,932,453,405,834,195,53
-97,-1903,-1805,1000,854,-1854,922,444,409,814,200,53
-107,-1878,-1771,993,832,-1825,922,444,419,814,204,63
-107,-1873,-1766,990,829,-1820,917,439,424,819,204,68
-107,-1869,-1761,988,827,-1815,912,439,424,819,204,68
-107,-1864,-1756,985,824,-1810,912,444,429,824,204,68
-107,-1854,-1747,980,819,-1800,907,448,429,824,209,68
-107,-1844,-1737,976,814,-1790,907,444,434,814,214,68
-102,-1849,-1747,976,822,-1798,907,448,439,814,214,73
-102,-1849,-1747,976,822,-1798,902,448,439,810,214,78
-102,-1844,-1742,973,819,-1793,897,439,444,800,209,78
-102,-1839,-1737,971,817,-1788,893,439,444,795,209,82
-102,-1844,-1742,973,819,-1793,897,439,444,795,209,82
-102,-1834,-1732,968,814,-1783,893,439,448,785,214,82
-97,-1830,-1732,963,817,-1781,897,439,448,780,219,92
-92,-1830,-1737,961,822,-1783,897,439,453,780,224,97
-92,-1830,-1737,961,822,-1783,936,439,468,780,234,102
-87,-1815,-1727,951,819,-1771,873,444,458,780,224,107
-78,-1815,-1737,946,829,-1776,873,448,468,780,224,112
-78,-1815,-1737,946,829,-1776,873,458,473,780,229,122
-78,-1805,-1727,941,824,-1766,873,458,478,780,229,122
-73,-1800,-1727,936,827,-1764,873,463,483,780,239,126
-73,-1825,-1751,949,839,-1788,873,468,488,780,244,131
-73,-1825,-1751,949,839,-1788,873,468,488,780,244,131
-68,-1805,-1737,936,834,-1771,873,483,492,785,244,131
-53,-1800,-1747,927,846,-1773,863,488,502,785,248,131
-48,-1790,-1742,919,846,-1766,854,492,502,785,253,126
-43,-1790,-1747,917,851,-1769,849,497,512,785,253,122
-43,-1781,-1737,912,846,-1759,844,502,517,790,258,117
-43,-1781,-1737,912,846,-1759,844,507,522,785,258,107
-29,-1776,-1747,902,858,-1761,839,517,527,790,268,107
-19,-1771,-1751,895,866,-1761,839,527,527,785,268,107
-4,-1771,-1766,888,880,-1769,829,551,531,790,268,112
4,-1766,-1771,880,888,-1769,824,566,531,790,268,112
9,-1766,-1776,878,893,-1771,814,570,541,790,268,117
14,-1766,-1781,875,897,-1773,805,575,546,790,268,122
19,-1761,-1781,871,900,-1771,805,575,541,785,268,122
19,-1761,-1781,871,900,-1771,800,580,541,785,273,126
19,-1751,-1771,866,895,-1761,795,585,546,785,273,131
29,-1742,-1771,856,900,-1756,795,590,551,785,273,131
34,-1747,-1781,856,907,-1764,785,590,556,780,273,131
39,-1756,-1795,858,917,-1776,775,585,556,775,273,131
39,-1747,-1786,854,912,-1766,771,585,556,775,268,131
34,-1747,-1781,856,907,-1764,766,580,546,771,263,131
34,-1751,-1786,858,910,-1769,756,575,546,756,268,136
34,-1732,-1766,849,900,-1749,746,561,546,751,273,141
29,-1732,-1761,851,895,-1747,741,541,551,751,273,146
19,-1722,-1742,851,880,-1732,736,512,546,746,273,156
19,-1732,-1751,856,885,-1742,746,497,541,741,273,161
19,-1727,-1747,854,883,-1737,751,473,536,736,273,165
14,-1727,-1742,856,878,-1734,746,444,531,736,278,170
0,-1737,-1737,868,868,-1737,741,424,527,732,278,175
-14,-1737,-1722,875,854,-1729,736,390,522,722,273,180
-24,-1712,-1688,868,832,-1700,732,375,517,717,273,180
-34,-1742,-1708,888,836,-1725,732,366,512,707,273,185
-39,-1732,-1693,885,827,-1712,732,356,507,697,273,185
-58,-1727,-1668,893,805,-1698,732,341,507,697,268,190
-73,-1727,-1654,900,790,-1690,736,326,507,697,273,195
-73,-1737,-1664,905,795,-1700,736,317,502,688,273,195
-78,-1737,-1659,907,790,-1698,741,307,497,678,268,195
-82,-1737,-1654,910,785,-1695,741,297,497,678,268,195
-87,-1712,-1625,900,768,-1668,741,287,492,673,263,195
-87,-1727,-1639,907,775,-1683,736,278,492,663,263,200
-87,-1727,-1639,907,775,-1683,736,278,492,658,263,204
-87,-1727,-1639,907,775,-1683,722,273,492,658,263,204
-92,-1717,-1625,905,766,-1671,722,268,497,658,263,204
-92,-1727,-1634,910,771,-1681,727,258,492,649,258,209
-92,-1727,-1634,910,771,-1681,732,253,492,644,253,214
-92,-1747,-1654,919,780,-1700,732,253,492,639,253,214
-97,-1722,-1625,910,763,-1673,732,253,497,639,253,214
-97,-1722,-1625,910,763,-1673,722,244,492,634,253,214
-97,-1712,-1615,905,758,-1664,712,239,492,634,253,214
-102,-1727,-1625,915,761,-1676,707,248,497,629,253,214
-102,-1722,-1620,912,758,-1671,702,248,497,624,253,214
-102,-1717,-1615,910,756,-1666,702,244,497,619,253,219
-102,-1717,-1615,910,756,-1666,702,244,497,619,253,224
-102,-1717,-1615,910,756,-1666,688,239,497,614,258,224
-97,-1693,-1595,895,749,-1644,688,234,497,614,258,224
-97,-1737,-1639,917,771,-1688,697,234,497,614,258,229
-97,-1712,-1615,905,758,-1664,697,234,502,614,258,234
-102,-1708,-1605,905,751,-1656,697,234,502,605,258,234
-107,-1708,-1600,907,746,-1654,697,234,502,600,258,234
-107,-1708,-1600,907,746,-1654,692,239,512,600,258,239
-107,-1693,-1586,900,739,-1639,688,234,517,600,258,244
-107,-1693,-1586,900,739,-1639,683,234,517,600,263,248
-107,-1678,-1571,893,732,-1625,678,229,517,600,263,248
-97,-1673,-1576,885,739,-1625,673,224,522,595,268,248
-92,-1654,-1561,873,734,-1607,668,224,522,590,268,248
-92,-1664,-1571,878,739,-1617,668,229,527,590,273,248
-92,-1654,-1561,873,734,-1607,663,229,531,590,273,248
-92,-1649,-1556,871,732,-1603,653,224,536,585,273,258
-92,-1639,-1546,866,727,-1593,644,219,541,580,278,263
-92,-1634,-1542,863,724,-1588,639,214,546,575,283,263
-87,-1615,-1527,851,719,-1571,639,214,546,580,283,268
-87,-1615,-1527,851,719,-1571,639,214,551,585,287,273
-87,-1600,-1512,844,712,-1556,634,214,551,585,292,278
-92,-1610,-1517,851,712,-1564,629,214,556,580,292,283
-97,-1610,-1512,854,707,-1561,624,214,551,575,292,283
-97,-1610,-1512,854,707,-1561,619,209,561,575,292,283
-97,-1600,-1503,849,702,-1551,619,204,561,575,292,283
-97,-1600,-1503,849,702,-1551,619,195,556,570,292,283
-97,-1576,-1478,836,690,-1527,619,185,556,570,292,283
-97,-1581,-1483,839,692,-1532,614,185,551,570,297,283
-97,-1576,-1478,836,690,-1527,610,180,546,570,297,283
-92,-1571,-1478,832,692,-1525,605,185,546,566,292,287
-92,-1571,-1478,832,692,-1525,595,180,546,556,287,292
-92,-1566,-1473,829,690,-1520,590,170,546,541,287,292
-92,-1561,-1468,827,688,-1515,585,165,541,536,287,292
-92,-1561,-1468,827,688,-1515,585,165,546,531,283,292
-92,-1556,-1464,824,685,-1510,585,161,546,527,283,292
-92,-1546,-1454,819,680,-1500,585,151,546,522,283,292
-92,-1542,-1449,817,678,-1495,580,146,541,517,283,292
-92,-1542,-1449,817,678,-1495,570,136,541,517,283,297
-92,-1542,-1449,817,678,-1495,561,126,536,507,278,297
-92,-1537,-1444,814,675,-1490,561,122,541,502,283,297
-92,-1532,-1439,812,673,-1485,556,117,541,497,287,297
-92,-1532,-1439,812,673,-1485,551,122,541,497,278,302
-92,-1517,-1424,805,666,-1471,541,122,541,497,278,302
-92,-1532,-1439,812,673,-1485,536,117,541,497,278,302
-92,-1522,-1429,807,668,-1476,531,112,536,497,278,302
-87,-1522,-1434,805,673,-1478,527,107,536,492,278,302
-82,-1517,-1434,800,675,-1476,522,97,536,488,278,302
-82,-1512,-1429,797,673,-1471,522,92,536,483,273,302
-82,-1517,-1434,800,675,-1476,522,82,536,478,268,302
-87,-1517,-1429,802,671,-1473,517,78,536,473,268,307
-92,-1512,-1420,802,663,-1466,512,73,536,468,268,307
-92,-1512,-1420,802,663,-1466,507,68,541,463,268,307
-92,-1512,-1420,802,663,-1466,502,58,541,458,268,307
-92,-1507,-1415,800,661,-1461,497,53,541,453,263,307
-87,-1498,-1410,793,661,-1454,492,48,541,444,258,307
-87,-1498,-1410,793,661,-1454,488,48,541,439,258,307
-87,-1488,-1400,788,656,-1444,483,43,541,434,258,307
-82,-1488,-1405,785,661,-1446,478,39,541,434,258,307
-78,-1478,-1400,778,661,-1439,473,29,536,424,263,307
-82,-1473,-1390,778,653,-1432,468,24,536,419,253,307
-82,-1464,-1381,773,649,-1422,463,19,536,414,253,307
-82,-1459,-1376,771,646,-1417,458,19,536,414,253,307
-78,-1454,-1376,766,649,-1415,453,14,541,409,244,312
-78,-1449,-1371,763,646,-1410,448,9,536,405,248,307
-78,-1444,-1366,761,644,-1405,444,9,536,400,253,307
-73,-1439,-1366,756,646,-1403,439,4,536,395,253,312
-68,-1434,-1366,751,649,-1400,439,0,536,390,253,322
-68,-1429,-1361,749,646,-1395,429,-4,536,385,248,322
-68,-1424,-1356,746,644,-1390,419,-9,536,380,244,322
-68,-1424,-1356,746,644,-1390,414,-9,536,375,244,322
-63,-1420,-1356,741,646,-1388,414,-4,536,370,244,322
-63,-1415,-1351,739,644,-1383,414,0,536,366,244,322
-63,-1415,-1351,739,644,-1383,409,4,531,361,239,322
-63,-1410,-1346,736,641,-1378,400,9,531,361,239,322
-63,-1400,-1337,732,636,-1368,390,14,531,361,239,322
-63,-1395,-1332,729,634,-1363,400,14,531,356,239,326
-58,-1376,-1317,717,629,-1346,405,14,536,361,248,331
-53,-1366,-1312,710,629,-1339,405,24,546,366,253,341
-53,-1342,-1288,697,617,-1315,409,29,556,366,263,346
-53,-1337,-1283,695,614,-1310,405,48,566,370,263,361
-48,-1327,-1278,688,614,-1302,395,58,566,370,263,366
-48,-1307,-1259,678,605,-1283,400,58,575,370,268,370
-43,-1298,-1254,671,605,-1276,395,58,590,375,278,375
-34,-1288,-1254,661,610,-1271,385,63,595,370,278,375
-29,-1283,-1254,656,612,-1268,370,63,595,366,273,375
-24,-1293,-1268,658,622,-1281,351,58,590,356,273,375
-14,-1288,-1273,651,629,-1281,331,53,580,341,268,366
-14,-1293,-1278,653,631,-1285,326,53,570,331,258,361
-9,-1288,-1278,649,634,-1283,312,58,561,317,253,361
-4,-1293,-1288,649,641,-1290,297,53,551,307,248,356
-4,-1298,-1293,651,644,-1295,292,53,531,292,244,351
-4,-1312,-1307,658,651,-1310,283,58,522,283,234,351
-4,-1312,-1307,658,651,-1310,278,58,512,273,224,336
-9,-1302,-1293,656,641,-1298,273,58,497,253,214,331
-14,-1327,-1312,671,649,-1320,268,53,488,239,204,322
-19,-1322,-1302,671,641,-1312,268,58,483,234,204,317
-19,-1317,-1298,668,639,-1307,268,58,478,224,200,317
-19,-1312,-1293,666,636,-1302,263,58,473,219,200,317
-24,-1307,-1283,666,629,-1295,258,58,468,214,200,317
-24,-1302,-1278,663,627,-1290,253,53,468,209,200,317
-24,-1293,-1268,658,622,-1281,248,53,468,204,200,317
-24,-1288,-1263,656,619,-1276,239,58,468,200,200,317
-24,-1288,-1263,656,619,-1276,234,63,468,195,195,317
-29,-1298,-1268,663,619,-1283,239,73,463,185,195,307
-29,-1293,-1263,661,617,-1278,239,87,463,185,190,307
-43,-1283,-1239,663,597,-1261,244,92,468,180,190,307
-53,-1278,-1224,666,585,-1251,248,97,468,175,190,307
-58,-1273,-1215,666,578,-1244,244,97,468,175,190,312
-58,-1263,-1205,661,573,-1234,239,97,468,175,195,317
-58,-1254,-1195,656,568,-1224,234,97,468,165,195,317
-63,-1249,-1185,656,561,-1217,229,97,468,156,190,322
-63,-1244,-1180,653,558,-1212,219,102,468,156,190,322
-63,-1234,-1171,649,553,-1202,209,107,468,156,190,322
-63,-1215,-1151,639,544,-1183,209,107,473,161,200,326
-63,-1190,-1127,627,531,-1159,204,102,483,165,214,341
-73,-1127,-1054,600,490,-1090,190,78,497,190,239,385
-73,-1029,-956,551,441,-993,165,48,546,239,312,458
-43,-932,-888,488,422,-910,102,9,527,273,370,531
43,-863,-907,409,475,-885,-73,-78,444,273,405,590
200,-771,-971,285,585,-871,-258,-224,307,273,453,673
390,-683,-1073,146,732,-878,-409,-258,107,224,488,741
585,-595,-1180,4,883,-888,-541,-209,-24,156,536,800
756,-595,-1351,-80,1054,-973,-585,-122,-117,78,522,795
907,-814,-1722,-46,1315,-1268,-605,0,-273,-58,366,605
907,-1068,-1976,80,1442,-1522,-546,43,-395,-214,141,370
771,-1385,-2156,307,1464,-1771,-375,34,-444,-409,-141,73
600,-1620,-2220,509,1410,-1920,-200,-9,-434,-556,-341,-97
385,-1708,-2093,661,1239,-1900,-63,-58,-385,-541,-385,-136
244,-1703,-1947,729,1095,-1825,24,-68,-214,-444,-356,-87
165,-1600,-1766,717,966,-1683,78,-29,-24,-336,-258,-34
73,-1478,-1551,702,812,-1515,136,24,161,-190,-126,73
-14,-1312,-1298,663,641,-1305,195,97,292,-34,53,209
-39,-1234,-1195,636,578,-1215,229,156,375,39,92,253
-48,-1205,-1156,627,553,-1180,253,195,444,82,107,278
-58,-1171,-1112,614,527,-1141,268,200,483,117,146,297
-68,-1141,-1073,605,502,-1107,283,234,488,122,175,331
-68,-1127,-1058,597,495,-1093,292,239,483,126,175,336
-73,-1107,-1034,590,480,-1071,292,239,492,156,175,336
-78,-1093,-1015,585,468,-1054,297,239,497,141,175,336
-82,-1117,-1034,600,475,-1076,302,244,507,161,185,341
-87,-1098,-1010,592,461,-1054,307,248,507,165,190,346
-87,-1093,-1005,590,458,-1049,312,248,517,165,190,351
-87,-1088,-1000,588,456,-1044,317,244,522,170,190,356
-87,-1078,-990,583,451,-1034,307,248,531,175,200,361
-87,-1058,-971,573,441,-1015,292,248,536,175,204,366
-87,-1054,-966,570,439,-1010,341,253,541,180,209,370
-87,-1039,-951,563,431,-995,331,258,546,185,214,375
-87,-1044,-956,566,434,-1000,331,258,551,170,214,385
-87,-1034,-946,561,429,-990,331,268,551,200,214,395
-87,-1039,-951,563,431,-995,336,268,556,200,219,400
-97,-1015,-917,556,409,-966,341,273,561,200,224,405
-97,-995,-897,546,400,-946,326,278,561,209,229,405
-97,-990,-893,544,397,-941,326,283,561,214,234,409
-97,-980,-883,539,392,-932,326,287,566,224,234,409
-97,-976,-878,536,390,-927,326,292,566,229,234,409
-97,-971,-873,534,387,-922,331,287,570,224,229,405
-92,-971,-878,531,392,-924,336,297,575,224,224,405
-92,-961,-868,527,387,-915,336,302,575,224,224,409
-92,-951,-858,522,383,-905,336,302,580,224,219,409
-87,-932,-844,509,378,-888,336,302,575,224,224,419
-82,-927,-844,505,380,-885,346,302,575,229,229,424
-82,-922,-839,502,378,-880,351,312,585,229,234,424
-78,-912,-834,495,378,-873,361,322,585,234,239,429
-78,-912,-834,495,378,-873,385,326,595,239,248,434
-82,-907,-824,495,370,-866,409,331,600,239,253,439
-78,-883,-805,480,363,-844,336,341,580,239,244,439
-68,-878,-810,473,370,-844,366,346,595,244,253,439
-68,-873,-805,470,368,-839,366,356,600,248,263,448
-68,-868,-800,468,366,-834,366,361,605,253,268,453
-63,-849,-785,456,361,-817,370,370,610,258,278,458
-63,-849,-785,456,361,-817,375,380,614,263,283,463
-63,-858,-795,461,366,-827,380,380,619,273,287,463
-63,-844,-780,453,358,-812,385,395,619,283,292,463
-53,-834,-780,444,363,-807,380,405,624,287,297,468
-48,-824,-775,436,363,-800,380,414,629,292,302,473
-39,-819,-780,429,370,-800,380,424,639,297,302,473
-34,-805,-771,419,368,-788,375,439,644,307,307,473
-34,-795,-761,414,363,-778,375,458,649,312,307,478
-24,-780,-756,402,366,-768,370,478,653,326,317,488
-19,-775,-756,397,368,-766,370,488,653,326,322,488
-9,-775,-766,392,378,-771,370,502,658,336,326,492
0,-756,-756,378,378,-756,375,507,663,336,326,492
9,-741,-751,366,380,-746,375,522,668,341,326,492
14,-732,-746,358,380,-739,375,536,668,346,322,488
24,-722,-746,348,385,-734,375,546,668,346,317,483
29,-717,-746,344,387,-732,370,561,668,346,322,488
29,-707,-736,339,383,-722,366,566,668,346,322,488
39,-692,-732,326,385,-712,361,575,663,351,322,483
43,-688,-732,322,387,-710,356,580,663,351,322,483
48,-692,-741,322,395,-717,356,580,663,346,322,488
53,-673,-727,309,390,-700,356,580,663,346,317,492
53,-663,-717,305,385,-690,361,570,653,346,312,497
53,-663,-717,305,385,-690,361,566,653,341,312,502
48,-634,-683,292,366,-658,356,551,653,346,312,502
43,-634,-678,295,361,-656,356,531,653,351,312,502
34,-619,-653,292,344,-636,346,512,644,346,312,512
29,-619,-649,295,339,-634,346,497,639,346,312,522
29,-614,-644,292,336,-629,351,468,634,346,312,531
24,-605,-629,290,326,-617,351,453,629,351,317,536
4,-610,-614,302,309,-612,351,453,624,351,317,536
-9,-605,-595,307,292,-600,351,429,619,341,312,541
-14,-575,-561,295,273,-568,351,414,614,336,312,541
-24,-600,-575,312,275,-588,356,400,610,336,312,546
-29,-590,-561,309,265,-575,361,390,600,336,312,546
-39,-585,-546,312,253,-566,366,380,595,336,302,546
-48,-580,-531,314,241,-556,370,370,595,336,302,546
-53,-585,-531,319,239,-558,370,366,595,336,302,546
-58,-585,-527,322,234,-556,380,361,590,331,297,546
-63,-585,-522,324,229,-553,380,356,590,336,297,546
-68,-546,-478,307,204,-512,390,346,590,341,292,551
-73,-551,-478,312,202,-514,395,346,590,341,292,556
-78,-546,-468,312,195,-507,395,351,590,346,292,556
-78,-546,-468,312,195,-507,395,351,590,346,292,556
-82,-531,-448,307,183,-490,405,346,595,341,292,556
-82,-527,-444,305,180,-485,405,346,595,336,292,556
-78,-517,-439,297,180,-478,409,346,600,341,292,556
-73,-527,-453,300,190,-490,409,341,600,341,292,556
-78,-497,-419,287,170,-458,409,346,600,341,292,561
-78,-502,-424,290,173,-463,409,346,595,336,292,566
-78,-488,-409,283,165,-448,409,346,600,336,292,566
-82,-492,-409,287,163,-451,409,351,605,336,292,566
-82,-488,-405,285,161,-446,409,351,605,341,292,566
-82,-478,-395,280,156,-436,409,351,605,341,292,566
-78,-478,-400,278,161,-439,409,361,605,346,292,570
-78,-478,-400,278,161,-439,409,366,605,346,297,575
-78,-444,-366,261,143,-405,414,366,600,351,302,580
-78,-468,-390,273,156,-429,419,366,595,351,307,585
-78,-434,-356,256,139,-395,424,370,600,356,312,585
-78,-429,-351,253,136,-390,424,375,600,361,317,585
-78,-414,-336,246,129,-375,424,375,600,366,317,590
-78,-414,-336,246,129,-375,424,380,605,366,317,595
-78,-414,-336,246,129,-375,429,380,605,370,317,595
-78,-414,-336,246,129,-375,434,385,605,375,322,600
-78,-395,-317,236,119,-356,439,385,605,375,322,605
-78,-390,-312,234,117,-351,444,385,610,375,326,610
-82,-356,-273,219,95,-314,444,390,610,380,326,610
-82,-361,-278,222,97,-319,444,395,610,385,331,610
-82,-361,-278,222,97,-319,439,400,610,390,331,610
-82,-356,-273,219,95,-314,439,405,610,395,331,614
-78,-346,-268,212,95,-307,439,409,610,395,336,619
-78,-341,-263,209,92,-302,444,414,614,400,341,624
-78,-307,-229,192,75,-268,453,419,614,409,346,629
-78,-302,-224,190,73,-263,458,419,619,414,351,629
-78,-287,-209,183,65,-248,453,419,619,419,351,629
-78,-287,-209,183,65,-248,448,419,629,419,351,634
-78,-283,-204,180,63,-244,448,419,629,419,351,639
-78,-273,-195,175,58,-234,444,419,639,419,351,644
-78,-263,-185,170,53,-224,444,419,639,419,351,644
-78,-263,-185,170,53,-224,444,419,634,419,351,644
-82,-234,-151,158,34,-192,448,424,634,424,346,644
-87,-239,-151,163,31,-195,453,429,634,424,346,644
-87,-234,-146,161,29,-190,458,429,634,424,346,644
-82,-224,-141,153,29,-183,463,434,634,419,346,644
-82,-214,-131,148,24,-173,463,429,634,419,346,644
-82,-204,-122,143,19,-163,463,424,634,419,346,644
-82,-195,-112,139,14,-153,458,419,629,419,351,649
-82,-190,-107,136,12,-148,458,419,629,419,351,653
-82,-185,-102,134,9,-143,458,419,624,419,351,653
-82,-175,-92,129,4,-134,458,419,624,419,351,653
-82,-175,-92,129,4,-134,458,419,619,419,351,658
-82,-175,-92,129,4,-134,463,414,619,419,351,663
-82,-165,-82,124,0,-124,463,414,614,414,346,658
-82,-156,-73,119,-4,-114,463,414,614,414,346,658
-82,-156,-73,119,-4,-114,458,409,610,409,346,658
-82,-156,-73,119,-4,-114,458,409,605,409,336,658
-82,-131,-48,107,-17,-90,458,409,600,409,336,653
-82,-136,-53,109,-14,-95,463,409,600,409,336,653
-82,-122,-39,102,-21,-80,463,409,595,414,336,658
-82,-117,-34,100,-24,-75,463,414,595,419,336,663
-78,-107,-29,92,-24,-68,463,409,595,419,336,663
-73,-102,-29,87,-21,-65,463,409,595,419,336,663
-73,-97,-24,85,-24,-61,463,405,595,419,331,663
-73,-82,-9,78,-31,-46,463,400,595,419,326,658
-68,-68,0,68,-34,-34,463,400,590,419,322,658
-68,-58,9,63,-39,-24,463,405,590,424,322,658
-73,-58,14,65,-43,-21,458,395,590,419,322,658
-78,-58,19,68,-48,-19,458,390,595,419,322,663
-78,-48,29,63,-53,-9,458,390,595,419,322,663
-78,-39,39,58,-58,0,458,390,595,419,322,663
-78,-29,48,53,-63,9,458,390,595,419,322,663
-73,-19,53,46,-63,17,458,390,595,419,322,663
-73,-14,58,43,-65,21,463,395,595,419,322,668
-73,-19,53,46,-63,17,458,395,590,419,317,673
-73,-19,53,46,-63,17,458,395,590,419,317,673
-73,-14,58,43,-65,21,458,395,590,419,317,673
-68,-14,53,41,-61,19,468,395,595,419,317,683
-58,0,58,29,-58,29,473,395,605,429,326,692
-53,-4,48,29,-51,21,473,400,614,439,331,697
-53,4,58,24,-56,31,478,400,624,444,341,697
-53,-4,48,29,-51,21,483,409,629,448,341,707
-48,-9,39,29,-43,14,483,409,624,448,341,707
-48,-4,43,26,-46,19,492,409,634,453,346,712
-43,-9,34,26,-39,12,492,409,649,463,356,717
-39,-4,34,21,-36,14,488,414,649,463,356,722
-39,-4,34,21,-36,14,478,414,644,463,351,727
-34,-34,0,34,-17,-17,468,405,639,458,351,727
-24,-48,-24,36,0,-36,458,395,629,448,346,717
-24,-63,-39,43,7,-51,453,390,619,444,336,712
-19,-68,-48,43,14,-58,439,390,610,434,331,712
-14,-82,-68,48,26,-75,429,385,600,429,326,707
-14,-97,-82,56,34,-90,429,385,580,419,322,702
-9,-131,-122,70,56,-126,424,385,566,414,312,707
-4,-151,-146,78,70,-148,424,380,551,409,302,697
-9,-151,-141,80,65,-146,424,380,536,395,292,692
-14,-185,-170,100,78,-178,424,375,527,385,283,683
-19,-195,-175,107,78,-185,429,375,522,385,283,678
-19,-204,-185,112,82,-195,434,370,517,380,278,678
-19,-209,-190,114,85,-200,434,370,517,380,278,678
-24,-214,-190,119,82,-202,434,370,517,380,278,678
-19,-224,-204,122,92,-214,434,366,517,380,278,678
-14,-229,-214,122,100,-222,434,366,517,380,278,678
-9,-234,-224,122,107,-229,429,366,512,380,273,678
-4,-244,-239,124,117,-241,429,366,507,380,263,678
-9,-268,-258,139,124,-263,434,366,502,375,263,668
-9,-278,-268,143,129,-273,434,370,502,380,258,668
-14,-278,-263,146,124,-270,439,370,507,380,258,668
-14,-283,-268,148,126,-275,444,370,507,380,258,668
-19,-287,-268,153,124,-278,444,370,507,380,258,673
-19,-287,-268,153,124,-278,444,370,507,380,263,678
-14,-292,-278,153,131,-285,444,370,512,380,263,678
-14,-302,-287,158,136,-295,444,370,517,380,258,683
-14,-312,-297,163,141,-305,444,370,517,380,263,683
-14,-317,-302,165,143,-309,444,370,517,380,268,683
-14,-326,-312,170,148,-319,448,370,517,390,268,683
-14,-331,-317,173,151,-324,448,366,522,400,273,692
-24,-283,-258,153,117,-270,439,341,536,429,297,727
-24,-200,-175,112,75,-187,419,312,585,483,370,790
-24,-117,-92,70,34,-104,385,287,585,522,434,863
34,-63,-97,14,65,-80,239,214,522,527,473,922
170,9,-161,-90,165,-75,43,53,375,531,522,1010
341,78,-263,-209,302,-92,-117,4,165,488,556,1083
546,209,-336,-378,441,-63,-268,39,29,458,644,1180
727,253,-473,-490,600,-109,-331,112,-68,419,668,1215
936,73,-863,-505,900,-395,-380,263,-229,292,561,1073
995,-141,-1137,-427,1066,-639,-351,336,-356,146,385,888
897,-541,-1439,-178,1168,-990,-175,326,-414,-78,34,517
766,-858,-1625,46,1195,-1241,4,283,-414,-253,-234,273
527,-980,-1507,226,1017,-1244,146,204,-390,-278,-297,204
361,-1010,-1371,324,866,-1190,239,165,-244,-219,-287,224
297,-932,-1229,317,763,-1080,297,175,-43,-122,-234,248
219,-834,-1054,307,636,-944,361,200,151,14,-146,326
87,-668,-756,290,422,-712,419,273,292,185,73,492
19,-590,-610,285,314,-600,453,331,385,273,151,566
4,-566,-570,280,287,-568,488,366,478,331,165,590
-9,-536,-527,273,258,-531,512,366,541,380,204,610
-19,-512,-492,265,236,-502,527,405,551,395,248,644
-19,-502,-483,261,231,-492,536,414,551,409,263,649
-24,-492,-468,258,222,-480,536,405,561,434,263,649
-29,-488,-458,258,214,-473,541,395,566,414,263,649
-34,-527,-492,280,229,-509,546,395,575,434,268,649
-39,-522,-483,280,222,-502,551,395,575,439,268,649
-39,-522,-483,280,222,-502,556,395,585,439,268,649
-39,-522,-483,280,222,-502,561,390,590,444,268,649
-34,-531,-497,283,231,-514,551,395,600,448,278,644
-29,-531,-502,280,236,-517,536,395,605,448,283,639
-29,-536,-507,283,239,-522,575,395,610,448,287,639
-29,-531,-502,280,236,-517,556,395,614,448,292,639
-29,-551,-522,290,246,-536,566,385,619,444,292,644
-29,-556,-527,292,248,-541,575,385,619,483,292,649
-29,-580,-551,305,261,-566,580,380,624,483,297,649
-39,-575,-536,307,248,-556,585,380,629,483,302,649
-39,-566,-527,302,244,-546,570,385,629,488,307,644
-39,-570,-531,305,246,-551,570,390,629,488,312,644
-39,-575,-536,307,248,-556,575,390,634,497,312,644
-39,-585,-546,312,253,-566,580,390,634,502,312,644
-39,-585,-546,312,253,-566,585,380,639,502,317,639
-34,-590,-556,312,261,-573,590,385,644,507,322,639
-34,-590,-556,312,261,-573,590,385,644,512,322,639
-34,-590,-556,312,261,-573,590,380,649,517,317,634
-34,-590,-556,312,261,-573,585,380,649,517,317,634
-34,-605,-570,319,268,-588,590,380,653,522,317,629
-34,-610,-575,322,270,-592,590,385,663,522,322,624
-29,-610,-580,319,275,-595,595,390,663,527,326,624
-24,-624,-600,324,287,-612,624,390,678,531,336,624
-24,-634,-610,329,292,-622,653,390,688,531,341,624
-19,-624,-605,322,292,-614,580,395,668,527,331,619
-9,-634,-624,322,307,-629,610,395,683,527,341,614
-9,-634,-624,322,307,-629,614,400,692,531,346,619
-9,-634,-624,322,307,-629,619,400,702,536,346,619
-4,-639,-634,322,314,-636,619,405,707,536,356,619
-4,-663,-658,334,326,-661,619,409,712,536,361,619
-4,-678,-673,341,334,-675,624,409,717,546,366,619
-4,-668,-663,336,329,-666,629,424,717,556,370,619
4,-673,-678,334,341,-675,629,429,722,561,375,619
9,-678,-688,334,348,-683,634,434,727,566,380,619
14,-688,-702,336,358,-695,639,439,736,570,385,619
14,-688,-702,336,358,-695,639,448,741,580,395,619
9,-697,-707,344,358,-702,639,458,746,580,395,614
14,-702,-717,344,366,-710,634,468,751,590,405,614
19,-702,-722,341,370,-712,634,478,756,590,405,614
29,-707,-736,339,383,-722,634,492,766,600,405,619
34,-707,-741,336,387,-724,634,497,771,605,409,614
39,-712,-751,336,395,-732,629,512,775,614,414,610
43,-717,-761,336,402,-739,629,527,780,619,414,605
53,-722,-775,334,414,-749,629,536,785,619,414,600
58,-727,-785,334,422,-756,629,551,785,624,419,600
58,-727,-785,334,422,-756,629,556,785,629,419,595
68,-732,-800,331,434,-766,629,556,785,629,419,585
73,-746,-819,336,446,-783,629,551,790,624,419,580
78,-766,-844,344,461,-805,629,546,790,624,424,580
82,-761,-844,339,463,-802,629,541,790,629,424,580
82,-761,-844,339,463,-802,629,531,780,634,419,585
82,-771,-854,344,468,-812,624,527,780,634,419,590
82,-756,-839,336,461,-797,619,512,775,634,419,590
82,-771,-854,344,468,-812,619,492,771,634,419,590
78,-771,-849,346,463,-810,610,463,761,624,419,590
78,-785,-863,353,470,-824,610,439,756,619,419,590
73,-790,-863,358,468,-827,614,405,751,619,414,595
63,-790,-854,363,458,-822,614,385,746,624,414,595
48,-810,-858,380,453,-834,614,375,736,624,414,595
39,-819,-858,390,448,-839,614,341,727,614,409,600
34,-800,-834,383,434,-817,614,326,722,610,409,595
24,-834,-858,405,441,-846,619,312,717,610,409,595
19,-834,-854,407,436,-844,619,297,707,605,409,590
9,-839,-849,414,429,-844,619,283,702,600,400,585
0,-849,-849,424,424,-849,624,268,697,600,400,585
-4,-868,-863,436,429,-866,624,258,692,600,400,585
-9,-883,-873,446,431,-878,634,248,688,590,400,580
-14,-897,-883,456,434,-890,634,239,688,590,405,575
-19,-878,-858,448,419,-868,639,229,688,595,400,570
-24,-902,-878,463,427,-890,639,229,688,595,400,566
-24,-907,-883,466,429,-895,639,229,688,600,400,561
-19,-917,-897,468,439,-907,639,224,688,600,400,556
-24,-917,-893,470,434,-905,649,214,688,600,395,556
-24,-927,-902,475,439,-915,649,209,683,600,390,556
-24,-927,-902,475,439,-915,653,209,688,600,390,551
-24,-946,-922,485,448,-934,653,204,688,595,390,546
-24,-927,-902,475,439,-915,653,204,688,600,390,546
-19,-941,-922,480,451,-932,653,200,683,600,390,546
-19,-941,-922,480,451,-932,658,200,688,600,390,541
-24,-961,-936,492,456,-949,663,204,692,600,390,536
-24,-966,-941,495,458,-954,663,200,692,605,390,531
-24,-966,-941,495,458,-954,663,195,692,605,390,527
-19,-976,-956,497,468,-966,663,195,692,610,390,527
-19,-985,-966,502,473,-976,663,190,692,610,395,527
-19,-966,-946,492,463,-956,663,185,692,614,395,522
-19,-1005,-985,512,483,-995,663,180,692,614,395,517
-19,-980,-961,500,470,-971,668,180,697,614,395,512
-19,-985,-966,502,473,-976,668,180,697,614,395,507
-19,-985,-966,502,473,-976,668,175,697,619,395,507
-19,-1000,-980,509,480,-990,668,175,702,619,395,507
-19,-1005,-985,512,483,-995,668,170,702,624,395,502
-19,-1010,-990,514,485,-1000,668,170,702,629,400,502
-19,-1005,-985,512,483,-995,673,165,702,634,395,502
-19,-1015,-995,517,488,-1005,678,161,707,639,395,502
-24,-1000,-976,512,475,-988,678,161,707,639,395,502
-24,-1024,-1000,524,488,-1012,678,161,707,639,400,502
-24,-1029,-1005,527,490,-1017,673,161,707,639,400,497
-24,-1029,-1005,527,490,-1017,673,161,707,639,400,497
-24,-1029,-1005,527,490,-1017,673,161,707,639,405,497
-29,-1034,-1005,531,488,-1019,678,161,712,644,409,497
-24,-1019,-995,522,485,-1007,688,161,712,653,414,497
-19,-1034,-1015,527,497,-1024,692,156,717,658,419,492
-19,-1029,-1010,524,495,-1019,692,156,717,663,419,488
-19,-1039,-1019,529,500,-1029,692,156,727,663,419,488
-19,-1044,-1024,531,502,-1034,692,151,722,668,424,488
-19,-1044,-1024,531,502,-1034,688,146,727,673,429,488
-19,-1049,-1029,534,505,-1039,688,141,727,673,429,488
-19,-1063,-1044,541,512,-1054,688,136,722,673,429,488
-19,-1049,-1029,534,505,-1039,688,136,722,678,424,483
-19,-1068,-1049,544,514,-1058,688,136,722,678,424,478
-19,-1073,-1054,546,517,-1063,688,131,722,683,424,478
-14,-1073,-1058,544,522,-1066,688,131,722,683,424,478
-14,-1078,-1063,546,524,-1071,692,122,722,678,424,473
-14,-1083,-1068,549,527,-1076,697,112,722,673,424,468
-14,-1093,-1078,553,531,-1085,692,107,722,673,424,463
-14,-1107,-1093,561,539,-1100,692,107,727,673,419,458
-14,-1117,-1102,566,544,-1110,697,102,722,673,419,453
-14,-1122,-1107,568,546,-1115,702,97,722,673,419,448
-19,-1127,-1107,573,544,-1117,697,97,717,673,419,448
-24,-1132,-1107,578,541,-1119,697,92,717,673,419,448
-24,-1137,-1112,580,544,-1124,697,82,712,668,414,439
-24,-1141,-1117,583,546,-1129,697,73,712,668,414,434
-19,-1151,-1132,585,556,-1141,697,68,712,663,419,429
-14,-1161,-1146,588,566,-1154,702,68,712,663,414,424
-14,-1146,-1132,580,558,-1139,697,63,707,663,414,419
-14,-1156,-1141,585,563,-1149,697,58,702,663,414,419
-9,-1166,-1156,588,573,-1161,692,53,697,663,409,409
-9,-1180,-1171,595,580,-1176,692,48,692,663,409,400
-9,-1180,-1171,595,580,-1176,692,39,692,663,409,400
-9,-1180,-1171,595,580,-1176,692,29,692,663,409,400
-14,-1185,-1171,600,578,-1178,692,24,692,663,409,395
-14,-1190,-1176,602,580,-1183,692,19,692,663,409,390
-19,-1195,-1176,607,578,-1185,697,14,692,663,409,390
-14,-1200,-1185,607,585,-1193,697,14,692,663,409,390
-14,-1210,-1195,612,590,-1202,692,9,688,663,405,385
-14,-1210,-1195,612,590,-1202,692,4,688,663,405,380
-14,-1210,-1195,612,590,-1202,692,0,692,663,405,380
-9,-1210,-1200,610,595,-1205,702,-4,697,663,405,385
0,-1190,-1190,595,595,-1190,707,-4,702,673,414,390
4,-1185,-1190,590,597,-1188,707,0,712,683,419,395
4,-1166,-1171,580,588,-1168,712,0,722,692,429,385
4,-1166,-1171,580,588,-1168,717,9,732,702,429,385
4,-1166,-1171,580,588,-1168,712,9,732,702,429,385
0,-1161,-1161,580,580,-1161,717,9,741,707,434,390
0,-1161,-1161,580,580,-1161,717,9,756,717,444,385
0,-1156,-1156,578,578,-1156,712,14,756,717,444,380
0,-1156,-1156,578,578,-1156,702,19,746,712,439,380
0,-1176,-1176,588,588,-1176,692,14,736,707,439,375
4,-1180,-1185,588,595,-1183,683,9,727,702,434,361
4,-1190,-1195,592,600,-1193,678,9,717,697,424,351
9,-1200,-1210,595,610,-1205,663,9,707,683,414,351
14,-1215,-1229,600,622,-1222,653,4,697,673,405,346
14,-1224,-1239,605,627,-1232,653,9,678,663,400,336
14,-1244,-1259,614,636,-1251,649,14,668,653,390,331
14,-1263,-1278,624,646,-1271,649,9,658,649,380,312
9,-1273,-1283,631,646,-1278,649,9,644,639,370,302
0,-1302,-1302,651,651,-1302,653,9,634,629,361,287
-9,-1307,-1298,658,644,-1302,663,14,629,629,361,278
-9,-1307,-1298,658,644,-1302,668,9,629,624,356,278
-9,-1307,-1298,658,644,-1302,668,9,634,624,356,278
-14,-1312,-1298,663,641,-1305,668,14,634,624,361,273
-14,-1317,-1302,666,644,-1310,663,14,634,624,366,268
-14,-1317,-1302,666,644,-1310,663,19,639,624,366,263
-14,-1322,-1307,668,646,-1315,663,24,639,624,361,258
-14,-1337,-1322,675,653,-1329,663,29,634,629,351,253
-19,-1361,-1342,690,661,-1351,668,34,629,624,351,239
-19,-1361,-1342,690,661,-1351,663,39,629,624,346,239
-29,-1356,-1327,692,649,-1342,663,39,634,624,346,239
-34,-1356,-1322,695,644,-1339,668,43,634,629,346,234
-39,-1356,-1317,697,639,-1337,668,48,634,634,346,229
-39,-1356,-1317,697,639,-1337,668,48,634,634,351,224
-39,-1356,-1317,697,639,-1337,668,48,634,634,351,219
-43,-1361,-1317,702,636,-1339,668,48,634,634,351,219
-43,-1366,-1322,705,639,-1344,668,48,634,634,356,214
-43,-1366,-1322,705,639,-1344,668,53,634,634,356,214
-43,-1361,-1317,702,636,-1339,673,58,639,639,356,214
-43,-1346,-1302,695,629,-1324,673,53,649,649,366,229
-53,-1312,-1259,683,602,-1285,663,34,663,678,395,263
-53,-1220,-1166,636,556,-1193,639,-4,702,727,468,322
-43,-1137,-1093,590,524,-1115,590,-39,692,766,522,385
24,-1102,-1127,539,575,-1115,434,-107,610,761,551,434
180,-1029,-1210,424,695,-1119,239,-253,453,751,590,502
370,-956,-1327,292,849,-1141,78,-273,244,702,619,575
575,-844,-1420,134,997,-1132,-68,-244,97,649,673,644
756,-849,-1605,46,1180,-1227,-107,-175,14,585,668,629
932,-1034,-1966,51,1449,-1500,-136,-24,-136,448,546,473
956,-1283,-2239,163,1598,-1761,-107,14,-258,292,331,253
834,-1639,-2474,402,1654,-2056,63,-14,-307,97,34,-63
692,-1883,-2576,595,1634,-2230,244,-58,-307,-48,-170,-248
483,-1986,-2469,751,1476,-2227,385,-112,-258,-48,-219,-302
322,-1995,-2318,836,1320,-2156,473,-117,-87,39,-190,-253
234,-1912,-2147,839,1190,-2030,527,-92,102,141,-117,-219
141,-1790,-1932,824,1037,-1861,590,-63,302,292,-4,-122
39,-1625,-1664,793,851,-1644,653,29,448,463,200,43
-9,-1546,-1537,778,763,-1542,688,92,541,536,263,107
-29,-1522,-1493,775,732,-1507,712,126,624,585,283,131
-39,-1493,-1454,766,707,-1473,727,141,668,634,322,156
-48,-1468,-1420,758,685,-1444,741,180,678,658,361,195
-48,-1459,-1410,753,680,-1434,751,185,673,673,370,200
-53,-1459,-1405,756,675,-1432,751,180,683,683,370,200
-58,-1439,-1381,749,661,-1410,766,180,692,658,370,204
-63,-1459,-1395,761,666,-1427,780,180,702,683,375,209
-68,-1459,-1390,763,661,-1424,785,190,702,692,375,219
-68,-1459,-1390,763,661,-1424,790,190,712,697,375,229
-68,-1464,-1395,766,663,-1429,790,180,717,702,375,234
-68,-1468,-1400,768,666,-1434,790,185,727,712,385,239
-68,-1459,-1390,763,661,-1424,766,190,732,712,390,239
-68,-1459,-1390,763,661,-1424,800,195,736,717,395,244
-68,-1449,-1381,758,656,-1415,800,204,741,697,400,248
-68,-1464,-1395,766,663,-1429,800,204,746,697,405,253
-63,-1473,-1410,768,673,-1442,814,209,746,756,409,263
-58,-1473,-1415,766,678,-1444,814,209,751,746,414,268
-68,-1459,-1390,763,661,-1424,814,219,756,746,419,268
-68,-1464,-1395,766,663,-1429,805,219,756,751,419,263
-63,-1464,-1400,763,668,-1432,805,219,761,751,419,268
-58,-1464,-1405,761,673,-1434,810,224,771,751,419,273
-58,-1464,-1405,761,673,-1434,810,224,771,751,419,273
-58,-1464,-1405,761,673,-1434,810,224,771,751,419,273
-58,-1464,-1405,761,673,-1434,810,229,771,756,424,278
-58,-1464,-1405,761,673,-1434,810,234,771,761,429,283
-58,-1464,-1405,761,673,-1434,810,234,775,766,429,287
-58,-1464,-1405,761,673,-1434,810,234,780,771,429,292
-58,-1464,-1405,761,673,-1434,819,239,785,771,434,297
-58,-1464,-1405,761,673,-1434,829,244,790,771,439,302
-58,-1464,-1405,761,673,-1434,829,244,790,771,439,307
-58,-1464,-1405,761,673,-1434,829,244,790,771,439,312
-48,-722,-673,385,312,-697,473,136,463,361,248,312
-39,19,58,9,-48,39,117,29,136,-48,58,312
-39,4,43,17,-41,24,117,29,136,-53,58,317
-39,-9,29,24,-34,9,117,29,136,-58,58,322
-34,-9,24,21,-29,7,112,29,131,-58,58,326
-29,-9,19,19,-24,4,107,29,126,-58,58,331
-24,-9,14,17,-19,2,102,34,122,-58,58,336
-19,-9,9,14,-14,0,97,39,117,-58,58,341
-9,-9,0,9,-4,-4,92,43,112,-53,58,341
0,-9,-9,4,4,-9,87,48,107,-48,58,341
0,-9,-9,4,4,-9,87,48,102,-48,58,346
0,-9,-9,4,4,-9,87,48,97,-48,58,351
4,-9,-14,2,9,-12,78,53,92,-43,53,351
9,-9,-19,0,14,-14,68,58,87,-39,48,351
14,-9,-24,-2,19,-17,68,63,87,-39,48,356
19,-9,-29,-4,24,-19,68,68,87,-39,48,361
24,-9,-34,-7,29,-21,63,73,82,-34,48,366
29,-9,-39,-9,34,-24,58,78,78,-29,48,370
29,-9,-39,-9,34,-24,58,78,78,-29,43,370
29,-9,-39,-9,34,-24,58,78,78,-29,39,370
34,-4,-39,-14,36,-21,53,78,73,-29,39,375
39,0,-39,-19,39,-19,48,78,68,-29,39,380
39,0,-39,-19,39,-19,43,73,63,-29,34,380
39,0,-39,-19,39,-19,39,68,58,-29,29,380
39,-4,-43,-17,41,-24,34,58,53,-29,24,380
39,-9,-48,-14,43,-29,29,48,48,-29,19,380
39,-9,-48,-14,43,-29,24,29,43,-34,14,385
39,-9,-48,-14,43,-29,19,9,39,-39,9,390
34,-9,-43,-12,39,-26,14,-9,29,-39,9,395
29,-9,-39,-9,34,-24,9,-29,19,-39,9,400
19,-9,-29,-4,24,-19,9,-43,9,-43,9,409
9,-9,-19,0,14,-14,9,-58,0,-48,9,419
4,-9,-14,2,9,-12,9,-82,-4,-48,4,424
0,-9,-9,4,4,-9,9,-107,-9,-48,0,429
-9,-14,-4,12,-2,-9,9,-117,-14,-48,0,434
-19,-19,0,19,-9,-9,9,-126,-19,-48,0,439
-34,-19,14,26,-24,-2,14,-136,-24,-53,0,444
-48,-19,29,34,-39,4,19,-146,-29,-58,0,448
-48,-24,24,36,-36,0,19,-146,-29,-58,-4,448
-48,-29,19,39,-34,-4,19,-146,-29,-58,-9,448
-48,-34,14,41,-31,-9,19,-146,-34,-58,-14,448
-48,-39,9,43,-29,-14,19,-146,-39,-58,-19,448
-53,-43,9,48,-31,-17,19,-146,-39,-58,-19,448
-58,-48,9,53,-34,-19,19,-146,-39,-58,-19,448
-58,-48,9,53,-34,-19,24,-136,-39,-53,-19,448
-58,-48,9,53,-34,-19,29,-126,-39,-48,-19,448
-146,-424,-278,285,65,-351,395,273,346,336,380,863
-234,-800,-566,517,165,-683,761,673,732,722,780,1278
-468,214,683,126,-575,448,4660,4650,4621,4611,4679,5158
-702,1229,1932,-263,-1317,1581,8559,8627,8510,8500,8579,9037
-566,5607,6173,-2520,-3369,5890,9272,9306,9247,9237,9281,9511
-429,9984,10413,-4777,-5421,10199,9984,9984,9984,9974,9984,9984
-351,9984,10335,-4816,-5343,10160,9984,9984,9984,9979,9984,9984
-273,9984,10257,-4855,-5265,10121,9984,9984,9984,9984,9984,9984
-248,9984,10233,-4867,-5241,10108,9984,9984,9984,9984,9984,9984
-224,9984,10208,-4880,-5216,10096,9984,9984,9984,9984,9984,9984
-180,9984,10165,-4901,-5172,10074,9984,9984,9984,9984,9984,9984
-136,9984,10121,-4923,-5128,10052,9984,9984,9984,9984,9984,9984
-136,9984,10121,-4923,-5128,10052,9984,9984,9984,9984,9984,9984
-136,9984,10121,-4923,-5128,10052,9984,9984,9984,9984,9984,9984
-117,9984,10101,-4933,-5109,10043,9984,9984,9984,9984,9984,9984
-97,9984,10082,-4943,-5089,10033,9984,9984,9984,9984,9984,9984
-87,9984,10072,-4948,-5080,10028,9984,9984,9984,9984,9984,9984
-78,9984,10062,-4953,-5070,10023,9984,9984,9984,9984,9984,9984
-73,9984,10057,-4955,-5065,10021,9984,9984,9984,9984,9984,9984
-68,9984,10052,-4958,-5060,10018,9984,9984,9984,9984,9984,9984
-58,9984,10043,-4962,-5050,10013,9984,9984,9984,9984,9984,9984
-48,9984,10033,-4967,-5041,10008,9984,9984,9984,9984,9984,9984
-43,9984,10028,-4970,-5036,10006,9984,9984,9984,9984,9984,9984
-39,9984,10023,-4972,-5031,10004,9984,9984,9984,9984,9984,9984
-34,9984,10018,-4975,-5026,10001,9984,9984,9984,9984,9984,9984
-29,9984,10013,-4977,-5021,9999,9984,9984,9984,9984,9984,9984
-24,9984,10008,-4980,-5016,9996,9984,9984,9984,9984,9984,9984
-19,9984,10004,-4982,-5011,9994,9984,9984,9984,9984,9984,9984
-14,9984,9999,-4984,-5006,9991,9984,9984,9984,9984,9984,9984
-9,9984,9994,-4987,-5002,9989,9984,9984,9984,9984,9984,9984
-9,9984,9994,-4987,-5002,9989,9984,9984,9984,9984,9984,9984
-9,9984,9994,-4987,-5002,9989,9984,9984,9984,9984,9984,9984
-4,9984,9989,-4989,-4997,9986,9984,9984,9984,9984,9984,9984
0,9984,9984,-4992,-4992,9984,9984,9984,9984,9984,9984,9984
4,9984,9979,-4994,-4987,9982,9984,9984,9984,9984,9984,9984
9,9984,9974,-4997,-4982,9979,9984,9984,9984,9984,9984,9984
9,9984,9974,-4997,-4982,9979,9984,9984,9984,9984,9984,9984
9,9984,9974,-4997,-4982,9979,9984,9984,9984,9984,9984,9984
9,9984,9974,-4997,-4982,9979,9984,9984,9984,9984,9984,9984
9,9984,9974,-4997,-4982,9979,9984,9984,9984,9984,9984,9984
9,9984,9974,-4997,-4982,9979,9984,9984,9984,9984,9984,9984
9,9984,9974,-4997,-4982,9979,9984,9984,9984,9984,9984,9984
9,9984,9974,-4997,-4982,9979,9984,9984,9984,9984,9984,9984
9,9984,9974,-4997,-4982,9979,9984,9984,9984,9984,9984,9984
9,9984,9974,-4997,-4982,9979,9984,9984,9984,9984,9984,9984
9,9984,9974,-4997,-4982,9979,9984,9984,9984,9984,9984,9984
14,9984,9969,-4999,-4977,9977,9984,9969,9984,9984,9984,9735
19,9984,9964,-5002,-4972,9974,9984,9955,9984,9984,9984,9486
19,9984,9964,-5002,-4972,9974,9984,9799,9862,9984,9960,9067
19,9984,9964,-5002,-4972,9974,9984,9642,9740,9984,9935,8647
14,9984,9969,-4999,-4977,9977,9594,8842,8915,9491,9135,7890
9,9984,9974,-4997,-4982,9979,9203,8042,8091,8998,8335,7134
9,9984,9974,-4997,-4982,9979,8808,7676,7705,8574,7939,6792
9,9984,9974,-4997,-4982,9979,8413,7310,7320,8149,7544,6451
9,9984,9974,-4997,-4982,9979,7749,6661,6656,7476,6895,6129
9,9984,9974,-4997,-4982,9979,7085,6012,5992,6802,6246,5807
9,9984,9974,-4997,-4982,9979,6802,5777,5748,6524,5987,6109
9,9984,9974,-4997,-4982,9979,6519,5543,5504,6246,5729,6412
9,9984,9974,-4997,-4982,9979,5909,4889,4816,5665,5133,6202
9,9984,9974,-4997,-4982,9979,5299,4235,4128,5084,4538,5992
9,9984,9974,-4997,-4982,9979,4987,4011,3899,4806,4255,6056
9,9984,9974,-4997,-4982,9979,4675,3786,3669,4528,3972,6119
9,9984,9974,-4997,-4982,9979,4113,3254,3132,3967,3440,5938
9,9984,9974,-4997,-4982,9979,3552,2723,2596,3406,2908,5758
9,9984,9974,-4997,-4982,9979,3381,2605,2479,3240,2766,5821
9,9984,9974,-4997,-4982,9979,3211,2488,2361,3074,2625,5885
9,9984,9974,-4997,-4982,9979,2766,2069,1942,2635,2210,5734
9,9984,9974,-4997,-4982,9979,2322,1649,1522,2196,1795,5582
9,9984,9974,-4997,-4982,9979,2225,1595,1468,2103,1717,5631
9,9984,9974,-4997,-4982,9979,2127,1542,1415,2010,1639,5680
9,9984,9974,-4997,-4982,9979,1786,1220,1093,1673,1322,5563
9,9984,9974,-4997,-4982,9979,1444,897,771,1337,1005,5446
9,9984,9974,-4997,-4982,9979,1390,883,766,1293,976,5480
9,9984,9974,-4997,-4982,9979,1337,868,761,1249,946,5514
9,9984,9974,-4997,-4982,9979,1088,624,522,1000,712,5431
9,9984,9974,-4997,-4982,9979,839,380,283,751,478,5348
9,9984,9974,-4997,-4982,9979,819,395,297,732,473,5363
9,9984,9974,-4997,-4982,9979,800,409,312,712,468,5377
9,9984,9974,-4997,-4982,9979,595,214,126,517,278,5314
9,9984,9974,-4997,-4982,9979,390,19,-58,322,87,5250
9,9984,9974,-4997,-4982,9979,380,43,-29,322,102,5250
9,9984,9974,-4997,-4982,9979,370,68,0,322,117,5250
9,9984,9974,-4997,-4982,9979,224,-73,-146,180,-19,5202
9,9984,9974,-4997,-4982,9979,78,-214,-292,39,-156,5153
9,9984,9974,-4997,-4982,9979,78,-190,-268,39,-141,5143
9,9984,9974,-4997,-4982,9979,78,-165,-244,39,-126,5133
9,4992,4982,-2501,-2486,4987,-39,-268,-356,-68,-224,5099
9,0,-9,-4,9,-4,-156,-370,-468,-175,-322,5065
9,-4997,-5006,2493,2508,-5002,-141,-336,-444,-175,-322,5045
9,-9994,-10004,4992,5006,-9999,-126,-302,-419,-175,-322,5026
0,-9359,-9359,4679,4679,-9359,-180,-370,-488,-239,-370,4997
-9,-8725,-8715,4367,4352,-8720,-234,-439,-556,-302,-419,4967
-14,-8749,-8735,4382,4360,-8742,-234,-414,-527,-302,-419,4953
-19,-8774,-8754,4396,4367,-8764,-234,-390,-497,-302,-419,4938
-19,-7773,-7754,3896,3867,-7764,-263,-424,-531,-331,-439,4919
-19,-6773,-6753,3396,3367,-6763,-292,-458,-566,-361,-458,4899
-19,-6788,-6768,3403,3374,-6778,-297,-458,-551,-361,-458,4884
-19,-6802,-6783,3411,3381,-6792,-302,-458,-536,-361,-458,4870
-19,-5895,-5875,2957,2928,-5885,-322,-458,-536,-370,-458,4855
-19,-4987,-4967,2503,2474,-4977,-341,-458,-536,-380,-458,4840
-19,-4987,-4967,2503,2474,-4977,-331,-458,-531,-380,-458,4826
-19,-4987,-4967,2503,2474,-4977,-322,-458,-527,-380,-458,4811
-29,-4108,-4079,2069,2025,-4094,-322,-448,-512,-380,-453,4797
-39,-3230,-3191,1634,1576,-3211,-322,-439,-497,-380,-448,4782
-39,-3352,-3313,1695,1637,-3333,-322,-434,-492,-380,-448,4772
-39,-3474,-3435,1756,1698,-3455,-322,-429,-488,-380,-448,4762
-39,-2723,-2684,1381,1322,-2703,-322,-424,-473,-375,-434,4758
-39,-1971,-1932,1005,946,-1952,-322,-419,-458,-370,-419,4753
-34,-2152,-2117,1093,1041,-2135,-322,-419,-458,-370,-419,4738
-29,-2332,-2303,1180,1137,-2318,-322,-419,-458,-370,-419,4723
-29,-1693,-1664,861,817,-1678,-322,-409,-439,-356,-405,4723
-29,-1054,-1024,541,497,-1039,-322,-400,-419,-341,-390,4723
-29,-1288,-1259,658,614,-1273,-322,-400,-390,-317,-356,4738
-29,-1522,-1493,775,732,-1507,-322,-400,-361,-292,-322,4753
-24,-902,-878,463,427,-890,-341,-419,-331,-239,-263,4806
-19,-283,-263,151,122,-273,-361,-439,-302,-185,-204,4860
68,-536,-605,234,336,-570,-483,-492,-375,-185,-165,4928
156,-790,-946,317,551,-868,-605,-546,-448,-185,-126,4997
326,-297,-624,-14,475,-461,-702,-546,-590,-224,-107,5055
497,195,-302,-346,400,-53,-800,-546,-732,-263,-87,5114
634,-161,-795,-236,714,-478,-814,-414,-810,-346,-136,5065
771,-517,-1288,-126,1029,-902,-829,-283,-888,-429,-185,5016
697,-278,-976,-209,836,-627,-722,-292,-951,-590,-429,4728
624,-39,-663,-292,644,-351,-614,-302,-1015,-751,-673,4440
400,-468,-868,34,634,-668,-439,-346,-922,-790,-780,4284
175,-897,-1073,361,624,-985,-263,-390,-829,-829,-888,4128
24,-385,-409,180,217,-397,-185,-380,-629,-697,-790,4143
-126,126,253,0,-190,190,-107,-370,-429,-566,-692,4157
-214,-48,165,131,-190,58,-43,-273,-244,-390,-517,4279
-302,-224,78,263,-190,-73,19,-175,-58,-214,-341,4401
-317,234,551,41,-434,392,43,-136,24,-136,-268,4445
-331,692,1024,-180,-678,858,68,-97,107,-58,-195,4489
-331,400,732,-34,-531,566,78,-73,126,-34,-151,4523
-331,107,439,112,-385,273,87,-48,146,-9,-107,4557
-312,448,761,-68,-536,605,73,-48,136,-9,-107,4548
-292,790,1083,-248,-688,936,58,-48,126,-9,-107,4538
-278,483,761,-102,-519,622,48,-53,112,-9,-97,4538
-263,175,439,43,-351,307,39,-58,97,-9,-87,4538
-248,478,727,-114,-488,602,29,-58,92,-9,-82,4538
-234,780,1015,-273,-624,897,19,-58,87,-9,-78,4538
-219,488,707,-134,-463,597,14,-53,78,-9,-73,4538
-204,195,400,4,-302,297,9,-48,68,-9,-68,4538
-190,473,663,-141,-427,568,4,-48,63,-9,-63,4538
-175,751,927,-287,-551,839,0,-48,58,-9,-58,4538
-161,473,634,-156,-397,553,-9,-48,53,-9,-53,4538
-146,195,341,-24,-244,268,-19,-48,48,-9,-48,4538
-131,458,590,-163,-361,524,-24,-43,39,-14,-48,4538
-117,722,839,-302,-478,780,-29,-39,29,-19,-48,4538
-117,453,570,-168,-344,512,-39,-39,24,-19,-43,4533
-117,185,302,-34,-209,244,-48,-39,19,-19,-39,4528
-102,444,546,-170,-324,495,-53,-43,9,-24,-39,4523
-87,702,790,-307,-439,746,-58,-48,0,-29,-39,4518
-82,458,541,-187,-312,500,-58,-48,-9,-34,-43,4509
-78,214,292,-68,-185,253,-58,-48,-19,-39,-48,4499
-68,439,507,-185,-287,473,-63,-39,-19,-39,-48,4494
-58,663,722,-302,-390,692,-68,-29,-19,-39,-48,4489
-48,434,483,-192,-265,458,-68,-29,-19,-39,-43,4489
-39,204,244,-82,-141,224,-68,-29,-19,-39,-39,4489
-34,414,448,-190,-241,431,-68,-29,-24,-39,-39,4479
-29,624,653,-297,-341,639,-68,-29,-29,-39,-39,4470
-29,424,453,-197,-241,439,-73,-29,-29,-43,-34,4465
-29,224,253,-97,-141,239,-78,-29,-29,-48,-29,4460
-24,400,424,-187,-224,412,-78,-24,-29,-48,-29,4460
-19,575,595,-278,-307,585,-78,-19,-29,-48,-29,4460
-14,375,390,-180,-202,383,-73,-9,-24,-43,-19,4460
-9,175,185,-82,-97,180,-68,0,-19,-39,-9,4460
-4,341,346,-168,-175,344,-68,4,-19,-39,-4,4455
0,507,507,-253,-253,507,-68,9,-19,-39,0,4450
4,336,331,-170,-163,334,-68,19,-19,-34,4,4450
9,165,156,-87,-73,161,-68,29,-19,-29,9,4450
14,302,287,-158,-136,295,-63,34,-14,-24,14,4450
19,439,419,-229,-200,429,-58,39,-9,-19,19,4450
24,278,253,-151,-114,265,-58,48,-9,-14,24,4450
29,117,87,-73,-29,102,-58,58,-9,-9,29,4450
34,248,214,-141,-90,231,-58,68,-4,-4,29,4450
39,380,341,-209,-151,361,-58,78,0,0,29,4450
39,239,200,-139,-80,219,-58,87,4,4,34,4445
39,97,58,-68,-9,78,-58,97,9,9,39,4440
39,214,175,-126,-68,195,-58,97,9,9,39,4440
39,331,292,-185,-126,312,-58,97,9,9,39,4440
39,219,180,-129,-70,200,-58,97,4,9,34,4435
39,107,68,-73,-14,87,-58,97,0,9,29,4431
43,195,151,-119,-53,173,-58,97,0,9,24,4426
48,283,234,-165,-92,258,-58,97,0,9,19,4421
53,180,126,-117,-36,153,-58,97,0,9,19,4416
58,78,19,-68,19,48,-58,97,0,9,19,4411
58,165,107,-112,-24,136,-58,92,-4,9,19,4411
58,253,195,-156,-68,224,-58,87,-9,9,19,4411
58,180,122,-119,-31,151,-63,68,-14,0,19,4406
58,107,48,-82,4,78,-68,48,-19,-9,19,4401
53,146,92,-100,-19,119,-68,39,-19,-9,19,4401
48,185,136,-117,-43,161,-68,29,-19,-9,19,4401
48,190,141,-119,-46,165,-92,-14,-39,-24,4,4401
48,195,146,-122,-48,170,-117,-58,-58,-39,-9,4401
39,219,180,-129,-70,200,-122,-78,-63,-48,-9,4401
29,244,214,-136,-92,229,-126,-97,-68,-58,-9,4401
19,244,224,-131,-102,234,-136,-141,-82,-78,-14,4401
9,244,234,-126,-112,239,-146,-185,-97,-97,-19,4401
0,253,253,-126,-126,253,-146,-195,-102,-107,-24,4401
-9,263,273,-126,-141,268,-146,-204,-107,-117,-29,4401
-14,268,283,-126,-148,275,-161,-239,-122,-131,-39,4401
-19,273,292,-126,-156,283,-175,-273,-136,-146,-48,4401
-24,292,317,-134,-170,305,-175,-278,-141,-151,-53,4396
-29,312,341,-141,-185,326,-175,-283,-146,-156,-58,4392
-34,312,346,-139,-190,329,-190,-307,-156,-170,-63,4387
-39,312,351,-136,-195,331,-204,-331,-165,-185,-68,4382
-43,336,380,-146,-212,358,-214,-341,-170,-200,-73,4377
-48,361,409,-156,-229,385,-224,-351,-175,-214,-78,4372
-48,361,409,-156,-229,385,-224,-366,-185,-224,-87,4372
-48,361,409,-156,-229,385,-224,-380,-195,-234,-97,4372
-48,385,434,-168,-241,409,-234,-385,-200,-244,-102,4367
-48,409,458,-180,-253,434,-244,-390,-204,-253,-107,4362
-43,414,458,-185,-251,436,-253,-395,-209,-263,-107,4362
-39,419,458,-190,-248,439,-263,-400,-214,-273,-107,4362
-39,448,488,-204,-263,468,-278,-419,-224,-283,-117,4352
-39,478,517,-219,-278,497,-292,-439,-234,-292,-126,4343
-43,478,522,-217,-283,500,-297,-444,-234,-307,-131,4343
-48,478,527,-214,-287,502,-302,-448,-234,-322,-136,4343
-48,488,536,-219,-292,512,-317,-453,-239,-326,-141,4343
-48,497,546,-224,-297,522,-331,-458,-244,-331,-146,4343
-43,517,561,-236,-302,539,-341,-463,-248,-346,-151,4333
-39,536,575,-248,-307,556,-351,-468,-253,-361,-156,4323
-34,556,590,-261,-312,573,-356,-473,-253,-366,-156,4323
-29,575,605,-273,-317,590,-361,-478,-253,-370,-156,4323
-29,585,614,-278,-322,600,-380,-488,-258,-380,-161,4323
-29,595,624,-283,-326,610,-400,-497,-263,-390,-165,4323
-29,605,634,-287,-331,619,-400,-502,-263,-400,-170,4323
-29,614,644,-292,-336,629,-400,-507,-263,-409,-175,4323
-29,619,649,-295,-339,634,-405,-512,-263,-414,-175,4323
-29,624,653,-297,-341,639,-409,-517,-263,-419,-175,4323
-29,639,668,-305,-348,653,-424,-522,-268,-429,-180,4323
-29,653,683,-312,-356,668,-439,-527,-273,-439,-185,4323
-29,678,707,-324,-368,692,-444,-536,-273,-444,-185,4323
-29,702,732,-336,-380,717,-448,-546,-273,-448,-185,4323
-29,712,741,-341,-385,727,-468,-551,-278,-463,-190,4318
-29,722,751,-346,-390,736,-488,-556,-283,-478,-195,4313
-29,736,766,-353,-397,751,-497,-561,-283,-483,-195,4313
-29,751,780,-361,-405,766,-507,-566,-283,-488,-195,4313
-24,766,790,-370,-407,778,-512,-575,-283,-497,-195,4313
-19,780,800,-380,-409,790,-517,-585,-283,-507,-195,4313
-19,800,819,-390,-419,810,-527,-590,-283,-512,-204,4313
-19,819,839,-400,-429,829,-536,-595,-283,-517,-214,4313
-14,829,844,-407,-429,836,-551,-600,-283,-531,-214,4309
-9,839,849,-414,-429,844,-566,-605,-283,-546,-214,4304
-9,858,868,-424,-439,863,-575,-614,-287,-551,-219,2166
-9,878,888,-434,-448,883,-585,-624,-292,-556,-224,29
-9,893,902,-441,-456,897,-600,-629,-297,-570,-229,19
-9,907,917,-448,-463,912,-614,-634,-302,-585,-234,9
-9,922,932,-456,-470,927,-614,-644,-302,-595,-239,9
-9,936,946,-463,-478,941,-614,-653,-302,-605,-244,9
-9,946,956,-468,-483,951,-634,-663,-307,-619,-248,9
-9,956,966,-473,-488,961,-653,-673,-312,-634,-253,9
-9,966,976,-478,-492,971,-658,-683,-317,-644,-258,9
-9,976,985,-483,-497,980,-663,-692,-322,-653,-263,9
-9,990,1000,-490,-505,995,-678,-697,-322,-668,-273,4
-9,1005,1015,-497,-512,1010,-692,-702,-322,-683,-283,0
-9,1015,1024,-502,-517,1019,-707,-717,-331,-697,-283,0
-9,1024,1034,-507,-522,1029,-722,-732,-341,-712,-283,0
-9,1034,1044,-512,-527,1039,-732,-741,-341,-717,-287,0
-9,1044,1054,-517,-531,1049,-741,-751,-341,-722,-292,0
-4,1054,1058,-524,-531,1056,-756,-756,-341,-736,-297,0
0,1063,1063,-531,-531,1063,-771,-761,-341,-751,-302,0
0,1073,1073,-536,-536,1073,-775,-771,-346,-761,-312,0
0,1083,1083,-541,-541,1083,-780,-780,-351,-771,-322,0
0,1107,1107,-553,-553,1107,-795,-790,-356,-785,-322,0
0,1132,1132,-566,-566,1132,-810,-800,-361,-800,-322,0
0,1137,1137,-568,-568,1137,-829,-810,-366,-810,-326,-4
0,1141,1141,-570,-570,1141,-849,-819,-370,-819,-331,-9
0,1146,1146,-573,-573,1146,-849,-824,-370,-829,-331,-9
0,1151,1151,-575,-575,1151,-849,-829,-370,-839,-331,-9
0,1161,1161,-580,-580,1161,-858,-839,-370,-849,-331,0
0,1171,1171,-585,-585,1171,-868,-849,-370,-858,-331,9
0,1176,1176,-588,-588,1176,-883,-849,-375,-863,-336,9
0,1180,1180,-590,-590,1180,-897,-849,-380,-868,-341,9
4,1190,1185,-597,-590,1188,-912,-863,-385,-888,-346,9
9,1200,1190,-605,-590,1195,-927,-878,-390,-907,-351,9
9,1200,1190,-605,-590,1195,-932,-878,-390,-912,-351,14
9,1200,1190,-605,-590,1195,-936,-878,-390,-917,-351,19
9,1200,1190,-605,-590,1195,-946,-883,-390,-922,-351,19
9,1200,1190,-605,-590,1195,-956,-888,-390,-927,-351,19
9,1220,1210,-614,-600,1215,-966,-897,-390,-941,-356,19
9,1239,1229,-624,-610,1234,-976,-907,-390,-956,-361,19
9,1244,1234,-627,-612,1239,-985,-912,-390,-966,-366,19
9,1249,1239,-629,-614,1244,-990,-917,-390,-971,-366,19
9,1254,1244,-631,-617,1249,-1000,-927,-390,-980,-370,19
14,1259,1244,-636,-614,1251,-1010,-932,-390,-985,-370,19
14,1273,1259,-644,-622,1266,-1029,-941,-395,-1000,-375,14
14,1298,1283,-656,-634,1290,-1044,-951,-395,-1015,-375,9
14,1332,1317,-673,-651,1324,-1058,-956,-395,-1019,-380,9
19,1366,1346,-692,-663,1356,-1063,-961,-395,-1024,-385,14
24,1390,1366,-707,-671,1378,-1068,-966,-390,-1024,-380,19
24,1400,1376,-712,-675,1388,-1078,-966,-380,-1024,-380,24
24,1429,1405,-727,-690,1417,-1088,-976,-370,-1029,-370,19
24,1439,1415,-732,-695,1427,-1098,-976,-361,-1034,-370,24
29,1478,1449,-753,-710,1464,-1117,-985,-361,-1054,-375,19
29,1522,1493,-775,-732,1507,-1127,-995,-351,-1068,-375,19
34,1537,1503,-785,-734,1520,-1156,-1010,-351,-1078,-375,9
39,1556,1517,-797,-739,1537,-1190,-1019,-366,-1098,-385,0
39,1590,1551,-814,-756,1571,-1210,-1034,-375,-1117,-400,4
39,1605,1566,-822,-763,1586,-1229,-1058,-385,-1137,-409,4
43,1610,1566,-827,-761,1588,-1244,-1068,-400,-1151,-414,-4
43,1610,1566,-827,-761,1588,-1254,-1073,-414,-1166,-424,-9
43,1634,1590,-839,-773,1612,-1283,-1093,-429,-1200,-444,-14
43,1654,1610,-849,-783,1632,-1307,-1117,-444,-1229,-463,-24
43,1664,1620,-854,-788,1642,-1322,-1127,-468,-1249,-473,-39
43,1664,1620,-854,-788,1642,-1342,-1137,-483,-1268,-488,-48
43,1683,1639,-863,-797,1661,-1356,-1156,-497,-1298,-507,-63
39,1712,1673,-875,-817,1693,-1371,-1171,-517,-1332,-527,-68
39,1717,1678,-878,-819,1698,-1390,-1180,-527,-1342,-536,-73
39,1747,1708,-893,-834,1727,-1405,-1185,-531,-1342,-536,-73
39,1776,1737,-907,-849,1756,-1420,-1205,-541,-1366,-551,-73
39,1805,1766,-922,-863,1786,-1439,-1220,-546,-1385,-561,-73
29,1830,1800,-929,-885,1815,-1449,-1224,-546,-1390,-566,-68
24,1854,1830,-939,-902,1842,-1464,-1234,-546,-1395,-570,-63
24,1878,1854,-951,-915,1866,-1473,-1244,-551,-1415,-575,-58
24,1898,1873,-961,-924,1886,-1483,-1254,-561,-1434,-585,-53
24,1903,1878,-963,-927,1891,-1503,-1259,-566,-1439,-600,-48
19,1898,1878,-958,-929,1888,-1517,-1263,-570,-1454,-605,-53
19,1927,1908,-973,-944,1917,-1527,-1268,-570,-1464,-610,-48
9,1961,1952,-985,-971,1956,-1532,-1278,-566,-1473,-610,-43
4,1961,1956,-983,-976,1959,-1542,-1288,-566,-1483,-614,-39
0,1961,1961,-980,-980,1961,-1556,-1298,-566,-1493,-619,-34
0,1991,1991,-995,-995,1991,-1571,-1307,-570,-1507,-614,-34
0,2020,2020,-1010,-1010,2020,-1586,-1317,-575,-1522,-614,-34
-4,2020,2025,-1007,-1015,2022,-1595,-1322,-575,-1527,-619,-24
-4,2020,2025,-1007,-1015,2022,-1605,-1327,-575,-1532,-619,-19
-4,2049,2054,-1022,-1029,2052,-1620,-1332,-570,-1532,-619,-9
-4,2083,2088,-1039,-1046,2086,-1629,-1337,-561,-1527,-619,0
-4,2117,2122,-1056,-1063,2120,-1649,-1356,-551,-1522,-600,24
-14,2171,2186,-1078,-1100,2178,-1678,-1390,-536,-1498,-561,68
14,2254,2239,-1134,-1112,2247,-1737,-1439,-492,-1459,-488,126
53,2327,2274,-1190,-1110,2300,-1820,-1483,-497,-1429,-434,190
141,2337,2196,-1239,-1027,2266,-1966,-1537,-585,-1449,-405,229
317,2386,2069,-1351,-875,2227,-2152,-1668,-746,-1473,-366,287
507,2420,1912,-1464,-702,2166,-2303,-1668,-922,-1522,-341,317
712,2493,1781,-1603,-534,2137,-2440,-1620,-1034,-1576,-292,341
858,2488,1629,-1673,-385,2059,-2479,-1600,-1132,-1688,-356,258
1000,2303,1302,-1651,-151,1803,-2508,-1498,-1298,-1873,-536,34
980,2161,1180,-1571,-100,1671,-2498,-1507,-1424,-2039,-756,-156
814,1912,1098,-1363,-141,1505,-2347,-1586,-1478,-2244,-1058,-444
658,1751,1093,-1205,-217,1422,-2191,-1644,-1468,-2381,-1224,-551
434,1732,1298,-1083,-431,1515,-2074,-1712,-1410,-2371,-1234,-527
292,1776,1483,-1034,-595,1629,-2020,-1703,-1239,-2278,-1190,-419
224,1912,1688,-1068,-732,1800,-2000,-1664,-1049,-2171,-1102,-326
151,2020,1869,-1085,-858,1944,-1966,-1634,-883,-2059,-1010,-239
68,2171,2103,-1119,-1017,2137,-1932,-1542,-771,-1927,-824,-82
34,2274,2239,-1154,-1102,2257,-1908,-1493,-692,-1883,-775,-24
29,2322,2293,-1176,-1132,2308,-1893,-1473,-624,-1864,-771,-4
19,2357,2337,-1188,-1159,2347,-1893,-1483,-600,-1839,-756,0
9,2386,2376,-1198,-1183,2381,-1893,-1468,-610,-1839,-741,19
9,2400,2391,-1205,-1190,2396,-1898,-1464,-610,-1830,-736,24
4,2405,2400,-1205,-1198,2403,-1912,-1468,-595,-1825,-741,24
4,2449,2444,-1227,-1220,2447,-1927,-1473,-585,-1869,-741,24
4,2454,2449,-1229,-1222,2452,-1942,-1478,-575,-1864,-736,24
0,2469,2469,-1234,-1234,2469,-1952,-1478,-580,-1869,-741,24
0,2483,2483,-1241,-1241,2483,-1961,-1488,-575,-1878,-746,24
0,2488,2488,-1244,-1244,2488,-1976,-1503,-575,-1893,-751,24
0,2493,2493,-1246,-1246,2493,-1991,-1503,-570,-1903,-746,24
0,2518,2518,-1259,-1259,2518,-2030,-1512,-570,-1912,-746,19
0,2532,2532,-1266,-1266,2532,-2010,-1522,-570,-1917,-746,19
0,2547,2547,-1273,-1273,2547,-2030,-1527,-566,-1956,-746,24
0,2537,2537,-1268,-1268,2537,-2049,-1542,-561,-1976,-746,29
4,2552,2547,-1278,-1271,2549,-2049,-1542,-570,-1932,-751,34
9,2576,2566,-1293,-1278,2571,-2064,-1546,-575,-1956,-756,34
0,2596,2596,-1298,-1298,2596,-2078,-1546,-570,-1966,-751,34
0,2596,2596,-1298,-1298,2596,-2098,-1551,-570,-1971,-751,29
0,2625,2625,-1312,-1312,2625,-2117,-1561,-570,-1986,-756,24
0,2654,2654,-1327,-1327,2654,-2132,-1566,-566,-1995,-761,19
0,2684,2684,-1342,-1342,2684,-2152,-1576,-580,-2005,-775,4
0,2713,2713,-1356,-1356,2713,-2166,-1595,-590,-2025,-790,-9
4,2718,2713,-1361,-1354,2715,-2176,-1595,-585,-2039,-790,-4
4,2727,2723,-1366,-1359,2725,-2191,-1600,-585,-2059,-790,0
4,2752,2747,-1378,-1371,2749,-2205,-1615,-580,-2069,-795,0
4,2776,2771,-1390,-1383,2774,-2220,-1620,-580,-2074,-795,4
9,2791,2781,-1400,-1385,2786,-2235,-1625,-585,-2083,-805,0
14,2820,2806,-1417,-1395,2813,-2259,-1629,-585,-2103,-810,-4
19,2835,2815,-1427,-1398,2825,-2269,-1639,-585,-2117,-805,0
24,2845,2820,-1434,-1398,2832,-2283,-1649,-580,-2127,-800,0
19,2859,2840,-1439,-1410,2849,-2239,-1649,-570,-2142,-800,0
19,2888,2869,-1454,-1424,2879,-2298,-1644,-585,-2156,-819,0
29,2898,2869,-1464,-1420,2884,-2313,-1649,-575,-2161,-819,0
29,2908,2879,-1468,-1424,2893,-2327,-1649,-570,-2166,-814,4
29,2923,2893,-1476,-1432,2908,-2337,-1649,-566,-2176,-819,0
34,2932,2898,-1483,-1432,2915,-2347,-1644,-561,-2186,-814,0
39,2928,2888,-1483,-1424,2908,-2366,-1644,-556,-2191,-810,4
43,2947,2903,-1495,-1429,2925,-2386,-1649,-556,-2196,-810,4
43,2986,2942,-1515,-1449,2964,-2396,-1644,-561,-2205,-819,0
53,3010,2957,-1532,-1451,2984,-2415,-1649,-561,-2220,-824,-4
58,3025,2967,-1542,-1454,2996,-2435,-1644,-566,-2230,-819,-4
63,3030,2967,-1546,-1451,2998,-2449,-1639,-561,-2239,-819,-4
68,3059,2991,-1564,-1461,3025,-2469,-1639,-556,-2244,-824,-4
73,3079,3006,-1576,-1466,3042,-2483,-1639,-551,-2259,-834,-9
87,3089,3001,-1588,-1456,3045,-2498,-1634,-546,-2259,-824,-9
97,3098,3001,-1598,-1451,3050,-2508,-1629,-546,-2269,-824,-9
107,3128,3020,-1617,-1456,3074,-2532,-1615,-541,-2278,-829,-4
112,3162,3050,-1637,-1468,3106,-2552,-1610,-541,-2293,-834,-4
117,3162,3045,-1639,-1464,3103,-2566,-1610,-536,-2298,-834,-4
122,3162,3040,-1642,-1459,3101,-2581,-1610,-536,-2303,-834,-4
131,3176,3045,-1654,-1456,3111,-2591,-1610,-541,-2318,-839,-9
136,3186,3050,-1661,-1456,3118,-2605,-1605,-541,-2327,-839,-9
131,3201,3069,-1666,-1468,3135,-2625,-1605,-546,-2337,-844,-9
136,3215,3079,-1676,-1471,3147,-2640,-1605,-551,-2347,-849,-14
141,3240,3098,-1690,-1478,3169,-2669,-1610,-546,-2366,-854,-14
146,3259,3113,-1703,-1483,3186,-2698,-1620,-546,-2386,-858,-14
151,3284,3132,-1717,-1490,3208,-2703,-1639,-551,-2396,-863,-14
151,3298,3147,-1725,-1498,3223,-2708,-1664,-566,-2410,-868,-14
151,3308,3157,-1729,-1503,3233,-2732,-1678,-570,-2435,-873,-14
151,3342,3191,-1747,-1520,3267,-2757,-1703,-575,-2449,-878,-14
151,3342,3191,-1747,-1520,3267,-2771,-1727,-575,-2459,-878,-14
146,3352,3206,-1749,-1529,3279,-2786,-1761,-585,-2474,-878,-9
141,3357,3215,-1749,-1537,3286,-2801,-1786,-590,-2488,-888,-4
136,3376,3240,-1756,-1551,3308,-2820,-1820,-595,-2503,-897,0
131,3386,3254,-1759,-1561,3320,-2825,-1844,-600,-2508,-893,0
117,3386,3269,-1751,-1576,3328,-2830,-1859,-605,-2518,-893,0
107,3401,3294,-1754,-1593,3347,-2845,-1893,-610,-2537,-902,4
102,3440,3337,-1771,-1617,3389,-2859,-1908,-614,-2552,-907,4
87,3411,3323,-1749,-1617,3367,-2869,-1927,-619,-2562,-907,4
78,3420,3342,-1749,-1632,3381,-2879,-1947,-624,-2571,-907,0
68,3450,3381,-1759,-1656,3416,-2893,-1961,-629,-2591,-922,0
63,3474,3411,-1769,-1673,3442,-2903,-1976,-634,-2610,-927,0
63,3464,3401,-1764,-1668,3433,-2913,-1986,-639,-2625,-927,0
58,3464,3406,-1761,-1673,3435,-2918,-1995,-644,-2640,-932,0
53,3469,3416,-1761,-1681,3442,-2932,-2005,-639,-2644,-932,0
48,3498,3450,-1773,-1700,3474,-2947,-2015,-639,-2654,-936,0
43,3489,3445,-1766,-1700,3467,-2957,-2025,-639,-2664,-936,0
39,3494,3455,-1766,-1708,3474,-2962,-2025,-639,-2669,-936,0
39,3508,3469,-1773,-1715,3489,-2991,-2034,-644,-2688,-946,-4
34,3533,3498,-1783,-1732,3516,-3006,-2044,-644,-2708,-956,-9
34,3552,3518,-1793,-1742,3535,-3010,-2054,-649,-2723,-961,-14
34,3581,3547,-1808,-1756,3564,-3015,-2059,-649,-2732,-966,-19
39,3567,3528,-1803,-1744,3547,-3035,-2064,-649,-2747,-966,-19
39,3596,3557,-1817,-1759,3577,-3054,-2069,-644,-2757,-966,-19
39,3611,3572,-1825,-1766,3591,-3069,-2088,-653,-2776,-976,-19
39,3635,3596,-1837,-1778,3616,-3084,-2103,-658,-2791,-985,-19
34,3645,3611,-1839,-1788,3628,-3093,-2093,-653,-2796,-985,-19
34,3674,3640,-1854,-1803,3657,-3103,-2093,-653,-2801,-985,-19
34,3684,3650,-1859,-1808,3667,-3118,-2108,-653,-2815,-985,-19
34,3689,3655,-1861,-1810,3672,-3132,-2117,-653,-2825,-985,-19
29,3699,3669,-1864,-1820,3684,-3162,-2122,-653,-2840,-985,-19
29,3733,3703,-1881,-1837,3718,-3176,-2127,-653,-2849,-990,-19
29,3708,3679,-1869,-1825,3694,-3176,-2132,-653,-2859,-990,-14
29,3752,3723,-1891,-1847,3738,-3186,-2137,-649,-2869,-990,-9
29,3757,3728,-1893,-1849,3742,-3196,-2142,-649,-2879,-990,-9
29,3757,3728,-1893,-1849,3742,-3206,-2147,-649,-2884,-990,-9
24,3772,3747,-1898,-1861,3760,-3220,-2142,-644,-2893,-995,-9
19,3801,3782,-1910,-1881,3791,-3235,-2147,-644,-2903,-1000,-9
19,3811,3791,-1915,-1886,3801,-3245,-2147,-644,-2913,-995,-4
19,3835,3816,-1927,-1898,3825,-3254,-2152,-644,-2923,-995,-4
19,3840,3821,-1930,-1900,3830,-3264,-2156,-639,-2928,-990,-4
14,3860,3845,-1937,-1915,3852,-3274,-2156,-639,-2932,-990,-4
14,3855,3840,-1934,-1912,3847,-3284,-2156,-634,-2937,-985,0
14,3869,3855,-1942,-1920,3862,-3298,-2161,-629,-2942,-985,4
19,3889,3869,-1954,-1925,3879,-3318,-2166,-629,-2952,-990,9
24,3913,3889,-1969,-1932,3901,-3337,-2171,-629,-2962,-990,9
19,3928,3908,-1973,-1944,3918,-3357,-2181,-624,-2981,-985,4
19,3957,3938,-1988,-1959,3947,-3372,-2186,-624,-2991,-985,4
19,3947,3928,-1983,-1954,3938,-3376,-2191,-619,-2991,-985,4
19,3952,3933,-1986,-1956,3943,-3386,-2196,-619,-2996,-985,4
19,3967,3947,-1993,-1964,3957,-3396,-2196,-614,-3010,-985,4
19,3991,3972,-2005,-1976,3982,-3406,-2196,-619,-3025,-985,0
14,3991,3977,-2003,-1981,3984,-3420,-2200,-610,-3030,-985,0
9,4001,3991,-2005,-1991,3996,-3430,-2205,-610,-3035,-985,0
9,4016,4006,-2013,-1998,4011,-3440,-2215,-614,-3050,-985,0
9,4055,4045,-2032,-2017,4050,-3450,-2225,-614,-3059,-985,0
9,4050,4040,-2030,-2015,4045,-3469,-2230,-614,-3069,-985,0
9,4055,4045,-2032,-2017,4050,-3489,-2239,-614,-3079,-990,0
9,4079,4069,-2044,-2030,4074,-3498,-2239,-614,-3089,-995,-4
4,4099,4094,-2052,-2044,4096,-3513,-2249,-614,-3103,-1000,-9
0,4099,4099,-2049,-2049,4099,-3518,-2259,-614,-3123,-1000,-9
-4,4099,4104,-2047,-2054,4101,-3523,-2264,-619,-3132,-1000,-9
-4,4104,4108,-2049,-2056,4106,-3538,-2269,-619,-3147,-1005,-9
-4,4113,4118,-2054,-2061,4116,-3552,-2278,-624,-3162,-1005,-9
-4,4123,4128,-2059,-2066,4126,-3562,-2283,-619,-3167,-1010,-9
-4,4128,4133,-2061,-2069,4130,-3577,-2283,-619,-3172,-1015,-9
-4,4148,4152,-2071,-2078,4150,-3596,-2293,-619,-3186,-1015,-9
-4,4167,4172,-2081,-2088,4169,-3616,-2303,-624,-3211,-1019,-14
-4,4177,4182,-2086,-2093,4179,-3620,-2308,-619,-3215,-1019,-14
-4,4187,4191,-2091,-2098,4189,-3630,-2313,-619,-3220,-1019,-14
0,4196,4196,-2098,-2098,4196,-3645,-2318,-624,-3235,-1029,-14
4,4221,4216,-2113,-2105,4218,-3664,-2327,-629,-3250,-1029,-19
4,4216,4211,-2110,-2103,4213,-3679,-2342,-629,-3264,-1039,-19
4,4235,4230,-2120,-2113,4233,-3694,-2357,-634,-3279,-1049,-19
0,4250,4250,-2125,-2125,4250,-3708,-2357,-634,-3289,-1049,-14
-4,4270,4274,-2132,-2139,4272,-3723,-2361,-634,-3298,-1049,-9
-4,4270,4274,-2132,-2139,4272,-3723,-2361,-634,-3303,-1044,-9
-4,4260,4265,-2127,-2135,4262,-3723,-2366,-634,-3308,-1039,-9
-4,4270,4274,-2132,-2139,4272,-3742,-2376,-629,-3323,-1039,-9
-4,4284,4289,-2139,-2147,4287,-3762,-2386,-624,-3337,-1039,-14
-4,4289,4294,-2142,-2149,4291,-3772,-2386,-624,-3342,-1044,-14
-4,4294,4299,-2144,-2152,4296,-3782,-2391,-629,-3347,-1049,-14
-4,4309,4313,-2152,-2159,4311,-3796,-2396,-629,-3357,-1049,-14
0,4328,4328,-2164,-2164,4328,-3811,-2400,-629,-3372,-1049,-14
0,4343,4343,-2171,-2171,4343,-3830,-2405,-624,-3376,-1049,-9
0,4367,4367,-2183,-2183,4367,-3850,-2415,-619,-3381,-1049,-4
0,4377,4377,-2188,-2188,4377,-3855,-2420,-614,-3391,-1054,-4
0,4396,4396,-2198,-2198,4396,-3860,-2430,-614,-3411,-1054,-4
0,4401,4401,-2200,-2200,4401,-3874,-2435,-614,-3420,-1058,-4
4,4411,4406,-2208,-2200,4409,-3889,-2440,-614,-3425,-1054,-9
4,4416,4411,-2210,-2203,4413,-3899,-2440,-614,-3435,-1054,-4
9,4426,4416,-2217,-2203,4421,-3908,-2440,-614,-3445,-1054,-4
9,4435,4426,-2222,-2208,4431,-3918,-2449,-614,-3455,-1054,-4
9,4450,4440,-2230,-2215,4445,-3933,-2459,-614,-3464,-1054,-9
9,4465,4455,-2237,-2222,4460,-3952,-2464,-610,-3479,-1058,-9
9,4479,4470,-2244,-2230,4474,-3972,-2469,-605,-3494,-1063,-9
9,4504,4494,-2257,-2242,4499,-3982,-2474,-605,-3498,-1063,-4
9,4518,4509,-2264,-2249,4514,-3986,-2474,-605,-3508,-1058,0
14,4538,4523,-2276,-2254,4531,-3996,-2479,-605,-3518,-1058,0
14,4538,4523,-2276,-2254,4531,-4011,-2483,-610,-3533,-1058,0
14,4557,4543,-2286,-2264,4550,-4021,-2488,-605,-3533,-1058,0
14,4582,4567,-2298,-2276,4575,-4030,-2493,-600,-3533,-1058,0
19,4601,4582,-2310,-2281,4592,-4040,-2498,-595,-3547,-1058,4
29,4636,4606,-2332,-2288,4621,-4055,-2503,-585,-3552,-1049,9
34,4645,4611,-2339,-2288,4628,-4060,-2503,-575,-3552,-1044,9
34,4670,4636,-2352,-2300,4653,-4060,-2508,-566,-3557,-1034,4
34,4684,4650,-2359,-2308,4667,-4074,-2503,-551,-3562,-1034,14
39,4704,4665,-2371,-2313,4684,-4094,-2508,-546,-3572,-1034,14
39,4714,4675,-2376,-2318,4694,-4104,-2508,-536,-3572,-1029,14
43,4714,4670,-2379,-2313,4692,-4123,-2508,-522,-3567,-1019,14
43,4728,4684,-2386,-2320,4706,-4133,-2513,-522,-3581,-1019,14
39,4738,4699,-2388,-2330,4718,-4148,-2522,-527,-3596,-1024,14
39,4738,4699,-2388,-2330,4718,-4177,-2532,-531,-3606,-1024,14
43,4753,4709,-2398,-2332,4731,-4206,-2542,-541,-3620,-1029,4
43,4743,4699,-2393,-2327,4721,-4216,-2557,-551,-3640,-1039,0
48,4743,4694,-2396,-2322,4718,-4235,-2566,-561,-3664,-1044,0
53,4738,4684,-2396,-2315,4711,-4245,-2571,-566,-3674,-1049,-4
53,4733,4679,-2393,-2313,4706,-4245,-2571,-580,-3689,-1054,-9
53,4718,4665,-2386,-2305,4692,-4265,-2576,-585,-3708,-1063,-9
53,4718,4665,-2386,-2305,4692,-4279,-2586,-590,-3728,-1073,-24
48,4748,4699,-2398,-2325,4723,-4289,-2586,-600,-3742,-1078,-24
43,4743,4699,-2393,-2327,4721,-4299,-2591,-605,-3752,-1083,-29
39,4753,4714,-2396,-2337,4733,-4318,-2596,-605,-3762,-1083,-34
39,4762,4723,-2400,-2342,4743,-4338,-2605,-605,-3777,-1088,-34
39,4762,4723,-2400,-2342,4743,-4338,-2605,-600,-3782,-1088,-29
34,4762,4728,-2398,-2347,4745,-4338,-2605,-595,-3786,-1088,-24
34,4782,4748,-2408,-2357,4765,-4352,-2610,-590,-3796,-1083,-19
34,4806,4772,-2420,-2369,4789,-4367,-2610,-585,-3806,-1078,-14
34,4806,4772,-2420,-2369,4789,-4377,-2615,-585,-3816,-1083,-9
34,4801,4767,-2418,-2366,4784,-4382,-2620,-585,-3825,-1093,-4
29,4811,4782,-2420,-2376,4797,-4387,-2625,-585,-3840,-1088,-14
29,4836,4806,-2432,-2388,4821,-4396,-2625,-580,-3845,-1088,-14
19,4840,4821,-2430,-2400,4831,-4406,-2635,-575,-3850,-1088,-14
14,4840,4826,-2427,-2405,4833,-4416,-2644,-575,-3855,-1088,-14
14,4860,4845,-2437,-2415,4853,-4431,-2649,-575,-3869,-1088,-9
19,4884,4865,-2452,-2422,4875,-4445,-2654,-575,-3884,-1083,-4
19,4889,4870,-2454,-2425,4880,-4450,-2654,-566,-3884,-1078,-4
14,4889,4875,-2452,-2430,4882,-4455,-2654,-556,-3884,-1078,0
14,4909,4894,-2461,-2440,4901,-4470,-2654,-556,-3894,-1078,0
14,4933,4919,-2474,-2452,4926,-4484,-2654,-556,-3904,-1078,0
4,4958,4953,-2481,-2474,4955,-4499,-2674,-546,-3899,-1068,4
-4,4987,4992,-2491,-2498,4989,-4518,-2698,-531,-3894,-1054,19
-4,5036,5041,-2515,-2522,5038,-4553,-2727,-517,-3874,-1019,53
4,5119,5114,-2562,-2554,5116,-4596,-2762,-468,-3830,-936,117
43,5177,5133,-2610,-2544,5155,-4660,-2806,-492,-3806,-878,180
141,5206,5065,-2674,-2461,5136,-4836,-2898,-580,-3816,-844,229
317,5250,4933,-2784,-2308,5092,-5016,-3001,-717,-3830,-795,287
527,5289,4762,-2908,-2117,5026,-5163,-2991,-917,-3894,-761,331
732,5353,4621,-3042,-1944,4987,-5304,-2937,-1054,-3967,-736,322
912,5328,4416,-3120,-1751,4872,-5358,-2845,-1151,-4050,-775,248
1049,5163,4113,-3106,-1532,4638,-5407,-2776,-1317,-4235,-961,39
1034,4962,3928,-2998,-1446,4445,-5377,-2786,-1449,-4440,-1215,-214
888,4743,3855,-2815,-1483,4299,-5236,-2854,-1488,-4616,-1483,-463
707,4606,3899,-2657,-1595,4252,-5089,-2957,-1468,-4743,-1668,-585
492,4562,4069,-2527,-1788,4316,-4982,-2991,-1400,-4738,-1688,-566
351,4611,4260,-2481,-1954,4435,-4923,-2986,-1210,-4650,-1634,-458
273,4728,4455,-2501,-2091,4592,-4870,-2947,-1019,-4528,-1537,-370
180,4865,4684,-2522,-2252,4775,-4811,-2893,-834,-4367,-1405,-229
82,5016,4933,-2549,-2425,4975,-4767,-2825,-702,-4245,-1224,-82
48,5080,5031,-2564,-2491,5055,-4748,-2771,-619,-4206,-1185,-29
39,5128,5089,-2583,-2525,5109,-4728,-2737,-546,-4157,-1171,-4
29,5182,5153,-2605,-2562,5167,-4718,-2737,-502,-4118,-1132,14
19,5211,5192,-2615,-2586,5202,-4723,-2708,-497,-4118,-1098,34
19,5226,5206,-2623,-2593,5216,-4733,-2708,-502,-4118,-1093,24
14,5255,5241,-2635,-2613,5248,-4748,-2723,-492,-4108,-1093,24
9,5280,5270,-2644,-2630,5275,-4758,-2737,-488,-4143,-1093,24
4,5265,5260,-2635,-2627,5263,-4767,-2737,-478,-4143,-1093,24
0,5294,5294,-2647,-2647,5294,-4777,-2742,-473,-4157,-1098,24
0,5299,5299,-2649,-2649,5299,-4787,-2747,-463,-4152,-1083,29
0,5309,5309,-2654,-2654,5309,-4801,-2752,-458,-4148,-1073,39
0,5309,5309,-2654,-2654,5309,-4811,-2747,-453,-4157,-1073,39
0,5309,5309,-2654,-2654,5309,-4821,-2742,-448,-4167,-1073,39
4,5319,5314,-2662,-2654,5316,-4826,-2742,-439,-4167,-1068,39
9,5328,5319,-2669,-2654,5324,-4831,-2742,-429,-4167,-1063,39
9,5343,5333,-2676,-2662,5338,-4845,-2742,-424,-4177,-1063,34
9,5358,5348,-2684,-2669,5353,-4860,-2742,-419,-4187,-1063,29
9,5382,5372,-2696,-2681,5377,-4870,-2752,-419,-4191,-1063,24
9,5407,5397,-2708,-2693,5402,-4880,-2762,-419,-4196,-1063,19
9,5416,5407,-2713,-2698,5411,-4899,-2762,-419,-4211,-1063,14
9,5426,5416,-2718,-2703,5421,-4919,-2762,-419,-4226,-1063,9
14,5460,5446,-2737,-2715,5453,-4928,-2771,-419,-4235,-1068,4
19,5494,5475,-2757,-2727,5485,-4938,-2781,-419,-4245,-1073,0
19,5504,5485,-2762,-2732,5494,-4962,-2786,-419,-4260,-1073,-4
19,5514,5494,-2766,-2737,5504,-4987,-2791,-419,-4274,-1073,-9
19,5543,5524,-2781,-2752,5533,-4997,-2796,-419,-4284,-1078,-14
19,5572,5553,-2796,-2766,5563,-5006,-2801,-419,-4294,-1083,-19
19,5592,5572,-2806,-2776,5582,-5021,-2801,-414,-4304,-1083,-19
19,5612,5592,-2815,-2786,5602,-5036,-2801,-409,-4313,-1083,-19
19,5612,5592,-2815,-2786,5602,-5036,-2801,-405,-4318,-1083,-19
19,5612,5592,-2815,-2786,5602,-5036,-2801,-400,-4323,-1083,-19
19,5626,5607,-2823,-2793,5616,-5055,-2801,-390,-4338,-1078,-14
19,5641,5621,-2830,-2801,5631,-5075,-2801,-380,-4352,-1073,-9
24,5655,5631,-2840,-2803,5643,-5084,-2801,-375,-4357,-1068,-9
29,5670,5641,-2849,-2806,5655,-5094,-2801,-370,-4362,-1063,-9
34,5685,5651,-2859,-2808,5668,-5109,-2796,-366,-4372,-1058,-4
39,5699,5660,-2869,-2810,5680,-5124,-2791,-361,-4382,-1054,0
39,2810,2771,-1424,-1366,2791,-5128,-2786,-356,-4382,-1049,0
39,-78,-117,19,78,-97,-5133,-2781,-351,-4382,-1044,0
39,-39,-78,0,58,-58,-5148,-2771,-341,-4387,-1039,4
39,0,-39,-19,39,-19,-5163,-2762,-331,-4392,-1034,9
43,-24,-68,-9,56,-46,-5177,-2752,-326,-4401,-1029,9
48,-48,-97,0,73,-73,-5192,-2742,-322,-4411,-1024,9
58,-19,-78,-19,68,-48,-5202,-2737,-317,-4416,-1024,4
68,9,-58,-39,63,-24,-5211,-2732,-312,-4421,-1024,0
73,-19,-92,-26,82,-56,-5221,-2723,-302,-4421,-1019,0
78,-48,-126,-14,102,-87,-5231,-2713,-292,-4421,-1015,0
82,-39,-122,-21,102,-80,-5241,-2703,-287,-4426,-1010,0
87,-29,-117,-29,102,-73,-5250,-2693,-283,-4431,-1005,0
92,-29,-122,-31,107,-75,-5260,-2684,-273,-4440,-1005,0
97,-29,-126,-34,112,-78,-5270,-2674,-263,-4450,-1005,0
107,-29,-136,-39,122,-82,-5289,-2669,-258,-4460,-1005,-4
117,-29,-146,-43,131,-87,-5309,-2664,-253,-4470,-1005,-9
122,-29,-151,-46,136,-90,-5319,-2659,-248,-4479,-1005,-9
126,-29,-156,-48,141,-92,-5328,-2654,-244,-4489,-1005,-9
131,-24,-156,-53,143,-90,-5348,-2654,-244,-4499,-1005,-9
136,-19,-156,-58,146,-87,-5368,-2654,-244,-4509,-1005,-9
141,-19,-161,-61,151,-90,-5382,-2669,-244,-4518,-1005,-9
146,-19,-165,-63,156,-92,-5397,-2684,-244,-4528,-1005,-9
146,-14,-161,-65,153,-87,-5416,-2698,-248,-4543,-1005,-9
146,-9,-156,-68,151,-82,-5436,-2713,-253,-4557,-1005,-9
146,-9,-156,-68,151,-82,-5446,-2737,-258,-4567,-1005,-9
146,-9,-156,-68,151,-82,-5455,-2762,-263,-4577,-1005,-9
136,-9,-146,-63,141,-78,-5475,-2791,-268,-4592,-1005,-4
126,-9,-136,-58,131,-73,-5494,-2820,-273,-4606,-1005,0
117,-14,-131,-51,124,-73,-5499,-2845,-273,-4616,-1005,0
107,-19,-126,-43,117,-73,-5504,-2869,-273,-4626,-1005,0
97,-19,-117,-39,107,-68,-5519,-2888,-278,-4640,-1005,0
87,-19,-107,-34,97,-63,-5533,-2908,-283,-4655,-1005,0
78,-34,-112,-21,95,-73,-2713,-2923,-283,-4660,-1005,0
68,-48,-117,-9,92,-82,107,-2937,-283,-4665,-1005,0
63,-48,-112,-7,87,-80,107,-2957,-283,-4679,-1005,0
58,-48,-107,-4,82,-78,107,-2976,-283,-4694,-1005,0
53,-53,-107,0,80,-80,107,-2981,-283,-4704,-1010,-4
48,-58,-107,4,78,-82,107,-2986,-283,-4714,-1015,-9
43,-63,-107,9,75,-85,107,-2996,-283,-4723,-1015,-9
39,-68,-107,14,73,-87,107,-3006,-283,-4733,-1015,-9
39,-68,-107,14,73,-87,107,-3006,-278,-4738,-1015,-9
39,-68,-107,14,73,-87,107,-3006,-273,-4743,-1015,-9
34,-63,-97,14,65,-80,102,-3010,-273,-4748,-1010,-9
29,-58,-87,14,58,-73,97,-3015,-273,-4753,-1005,-9
29,-58,-87,14,58,-73,97,-3015,-268,-4762,-1005,-9
29,-58,-87,14,58,-73,97,-3015,-263,-4772,-1005,-9
24,-58,-82,17,53,-70,92,-3020,-263,-4782,-1005,-9
19,-58,-78,19,48,-68,87,-3025,-263,-4792,-1005,-9
19,-58,-78,19,48,-68,87,-3025,-258,-2430,-1000,-9
19,-58,-78,19,48,-68,87,-3025,-253,-68,-995,-9
19,-53,-73,17,46,-63,87,-3025,-248,-68,-995,-9
19,-48,-68,14,43,-58,87,-3025,-244,-68,-995,-9
19,-43,-63,12,41,-53,87,-3025,-239,-68,-990,-9
19,-39,-58,9,39,-48,87,-3025,-234,-68,-985,-9
19,-39,-58,9,39,-48,87,-3030,-229,-63,-985,-9
19,-39,-58,9,39,-48,87,-3035,-224,-58,-985,-9
19,-39,-58,9,39,-48,82,-3035,-219,-58,-980,-9
19,-39,-58,9,39,-48,78,-3035,-214,-58,-976,-9
14,-39,-53,12,34,-46,73,-3030,-204,-53,-976,-9
9,-39,-48,14,29,-43,68,-3025,-195,-48,-976,-9
4,-39,-43,17,24,-41,68,-3025,-190,-43,-971,-4
0,-39,-39,19,19,-39,68,-3025,-185,-39,-966,0
0,-39,-39,19,19,-39,68,-3025,-175,-39,-961,0
0,-39,-39,19,19,-39,68,-3025,-165,-39,-956,0
0,-29,-29,14,14,-29,68,-3030,-161,-34,-951,0
0,-19,-19,9,9,-19,68,-3035,-156,-29,-946,0
0,-19,-19,9,9,-19,58,-3035,-156,-29,-941,0
0,-19,-19,9,9,-19,48,-3035,-156,-29,-936,0
0,-14,-14,7,7,-14,48,-3035,-146,-24,-932,0
0,-9,-9,4,4,-9,48,-3035,-136,-19,-927,0
0,-9,-9,4,4,-9,43,-3035,-131,-19,-927,0
0,-9,-9,4,4,-9,39,-3035,-126,-19,-927,0
0,-9,-9,4,4,-9,39,-3035,-117,-14,-922,0
0,-9,-9,4,4,-9,39,-3035,-107,-9,-917,0
0,-4,-4,2,2,-4,39,-3035,-102,-9,-912,0
0,0,0,0,0,0,39,-3035,-97,-9,-907,0
0,4,4,-2,-2,4,34,-3035,-92,-9,-902,0
0,9,9,-4,-4,9,29,-3035,-87,-9,-897,0
0,9,9,-4,-4,9,29,-3040,-82,-14,-897,-4
0,9,9,-4,-4,9,29,-3045,-78,-19,-897,-9
4,4,0,-4,2,2,29,-3050,-73,-19,-897,-9
9,0,-9,-4,9,-4,29,-3054,-68,-19,-897,-9
9,0,-9,-4,9,-4,29,-3059,-68,-19,-893,-9
9,0,-9,-4,9,-4,29,-3064,-68,-19,-888,-9
9,0,-9,-4,9,-4,24,-3064,-63,-19,-888,-9
9,0,-9,-4,9,-4,19,-3064,-58,-19,-888,-9
9,0,-9,-4,9,-4,9,-3069,-58,-19,-888,-14
9,0,-9,-4,9,-4,0,-3074,-58,-19,-888,-19
9,-4,-14,-2,12,-9,0,-3074,-58,-19,-888,-19
9,-9,-19,0,14,-14,0,-3074,-58,-19,-888,-19
9,-9,-19,0,14,-14,0,-3084,-58,-19,-888,-19
9,-9,-19,0,14,-14,0,-3093,-58,-19,-888,-19
4,-14,-19,4,12,-17,0,-3093,-53,-19,-878,-19
0,-19,-19,9,9,-19,0,-3093,-48,-19,-868,-19
0,-19,-19,9,9,-19,0,-3098,-43,-19,-868,-19
0,-19,-19,9,9,-19,0,-3103,-39,-19,-868,-19
0,-19,-19,9,9,-19,0,-3103,-39,-19,-868,-19
0,-19,-19,9,9,-19,0,-3103,-39,-19,-868,-19
0,-14,-14,7,7,-14,0,-3108,-34,-19,-868,-19
0,-9,-9,4,4,-9,0,-3113,-29,-19,-868,-19
0,-9,-9,4,4,-9,0,-3118,-24,-14,-863,-19
0,-9,-9,4,4,-9,0,-3123,-19,-9,-858,-19
0,-9,-9,4,4,-9,-4,-3123,-14,-9,-858,-19
0,-9,-9,4,4,-9,-9,-3123,-9,-9,-858,-19
0,-9,-9,4,4,-9,-9,-3123,-9,-9,-854,-19
0,-9,-9,4,4,-9,-9,-3123,-9,-9,-849,-19
4,-9,-14,2,9,-12,-9,-3128,-14,-9,-849,-19
9,-9,-19,0,14,-14,-9,-3132,-19,-9,-849,-19
9,-14,-24,2,17,-19,-9,-3132,-24,-4,-844,-19
9,-19,-29,4,19,-24,-9,-3132,-29,0,-839,-19
9,-19,-29,4,19,-24,-4,-3132,-34,0,-834,-19
9,-19,-29,4,19,-24,0,-3132,-39,0,-829,-19
9,-14,-24,2,17,-19,0,-3137,-43,0,-824,-14
9,-9,-19,0,14,-14,0,-3137,-48,0,-819,-9
9,-9,-19,0,14,-14,0,-3142,-53,0,-819,-9
14,-9,-24,-2,19,-17,-4,-3137,-58,0,-819,-9
9,-24,-34,7,21,-29,-9,-3142,-63,0,-819,-9
4,-29,-34,12,19,-31,-9,-3147,-63,0,-814,-9
0,-24,-24,12,12,-24,-14,-3147,-73,-4,-814,-14
0,-19,-19,9,9,-19,-9,-3147,-82,-9,-814,-14
9,-14,-24,2,17,-19,-4,-3147,-87,-4,-805,-9
14,-24,-39,4,26,-31,-4,-3142,-87,0,-800,-4
14,-9,-24,-2,19,-17,0,-3152,-87,0,-795,0
14,-14,-29,0,21,-21,4,-3152,-87,0,-800,14
14,-9,-24,-2,19,-17,-4,-3152,-107,-9,-800,14
9,0,-9,-4,9,-4,-4,-3152,-117,-14,-795,19
9,0,-9,-4,9,-4,-4,-3152,-107,-4,-785,14
9,4,-4,-7,7,0,-9,-3147,-112,-4,-785,9
9,9,0,-9,4,4,-4,-3142,-117,-4,-785,14
9,-4,-14,-2,12,-9,0,-3147,-122,-4,-780,14
9,0,-9,-4,9,-4,0,-3152,-126,-4,-775,9
4,0,-4,-2,4,-2,4,-3152,-131,-4,-775,9
9,0,-9,-4,9,-4,-4,-3152,-131,-4,-771,14
14,-4,-19,-4,17,-12,-9,-3157,-131,0,-766,14
19,14,-4,-17,12,4,0,-3152,-131,9,-751,19
24,24,0,-24,12,12,4,-3147,-122,19,-741,29
29,24,-4,-26,17,9,9,-3147,-112,29,-727,34
29,34,4,-31,12,19,14,-3142,-107,34,-712,48
24,14,-9,-19,17,2,14,-3142,-107,29,-712,48
19,19,0,-19,9,9,19,-3137,-102,34,-702,53
29,19,-9,-24,19,4,24,-3137,-102,34,-692,58
39,19,-19,-29,29,0,24,-3132,-97,39,-678,63
34,9,-24,-21,29,-7,9,-3132,-97,39,-673,68
34,0,-34,-17,34,-17,-9,-3137,-97,39,-668,73
34,0,-34,-17,34,-17,-14,-3142,-112,29,-663,73
34,-4,-39,-14,36,-21,-19,-3147,-131,19,-663,73
43,-9,-53,-17,48,-31,-24,-3152,-141,19,-673,73
48,-24,-73,-12,61,-48,-24,-3157,-151,9,-673,63
58,-48,-107,-4,82,-78,-29,-3157,-180,-4,-683,58
58,-68,-126,4,92,-97,-29,-3162,-204,-19,-688,53
53,-68,-122,7,87,-95,-24,-3162,-214,-24,-688,39
48,-68,-117,9,82,-92,-24,-3162,-224,-29,-688,24
43,-78,-122,17,82,-100,-19,-3162,-234,-29,-683,24
39,-87,-126,24,82,-107,-14,-3162,-244,-29,-683,24
34,-73,-107,19,70,-90,-14,-3162,-244,-29,-683,29
34,-58,-92,12,63,-75,-14,-3162,-244,-29,-678,29
34,-68,-102,17,68,-85,-14,-3162,-253,-29,-678,24
34,-73,-107,19,70,-90,-9,-3162,-258,-24,-678,19
34,-87,-122,26,78,-104,-4,-3152,-278,-39,-702,0
24,-82,-107,29,65,-95,-9,-3157,-292,-34,-707,0
0,-68,-68,34,34,-68,39,-1571,-244,-19,-688,-9
-14,-63,-48,39,17,-56,63,19,-244,-14,-688,-14
-97,-92,4,95,-51,-43,92,48,-180,0,-688,-29
-92,-82,9,87,-51,-36,82,0,-190,9,-678,-24
-102,-78,24,90,-63,-26,53,-48,-248,19,-673,-4
-97,-34,63,65,-80,14,39,-48,-244,24,-644,9
-58,107,165,-24,-112,136,4,-92,-204,82,-536,131
-24,68,92,-21,-58,80,-19,-53,-234,68,-546,112
92,126,34,-109,29,80,-122,14,-302,87,-497,151
63,78,14,-70,24,46,-82,14,-297,68,-531,92
102,-39,-141,-31,122,-90,-43,14,-366,-53,-658,-24
73,-14,-87,-29,80,-51,-43,4,-385,-29,-629,-9
14,-73,-87,29,51,-80,-19,-29,-390,-39,-653,4
29,-39,-68,4,48,-53,-29,-34,-375,-34,-634,4
19,0,-19,-9,19,-9,-39,-102,-297,19,-605,43
0,82,82,-41,-41,82,-48,-107,-273,92,-483,151
68,122,53,-95,7,87,-156,-131,-322,117,-400,248
165,107,-58,-136,112,24,-273,-185,-380,117,-361,307
356,131,-224,-244,290,-46,-390,-209,-531,87,-322,366
546,151,-395,-348,470,-122,-507,-209,-717,34,-283,439
756,122,-634,-439,695,-256,-541,-107,-858,-24,-287,429
961,82,-878,-522,919,-397,-585,-14,-985,-87,-302,414
995,-92,-1088,-451,1041,-590,-512,-4,-1127,-283,-522,180
1029,-307,-1337,-361,1183,-822,-439,4,-1268,-429,-736,-53
868,-444,-1312,-212,1090,-878,-258,-58,-1283,-517,-946,-263
712,-580,-1293,-65,1002,-936,-78,-131,-1288,-610,-1156,-473
527,-527,-1054,0,790,-790,19,-146,-1156,-492,-1122,-448
341,-473,-814,65,578,-644,117,-146,-1019,-370,-1078,-424
258,-322,-580,31,419,-451,141,-68,-829,-204,-946,-326
175,-180,-356,2,265,-268,224,9,-639,-34,-814,-224
102,-73,-175,-14,139,-124,248,82,-541,34,-717,-136
29,9,-19,-19,24,-4,273,146,-444,122,-619,-48
24,24,0,-24,12,12,292,156,-395,195,-580,-24
19,48,29,-34,-4,39,297,161,-341,200,-541,-4
4,73,68,-39,-31,70,283,165,-336,200,-517,9
0,78,78,-39,-39,78,263,165,-336,204,-497,19
-4,82,87,-39,-46,85,234,146,-336,195,-492,19
-9,87,97,-39,-53,92,209,131,-331,190,-488,19
-9,82,92,-36,-51,87,200,126,-331,185,-483,19
-9,78,87,-34,-48,82,195,112,-326,170,-478,19
-4,73,78,-34,-41,75,180,107,-322,165,-468,29
-4,73,78,-34,-41,75,161,97,-322,156,-458,39
-4,68,73,-31,-39,70,141,87,-322,146,-453,39
-4,63,68,-29,-36,65,122,87,-326,141,-444,43
-4,48,53,-21,-29,51,122,78,-326,136,-439,43
-4,48,53,-21,-29,51,112,68,-322,122,-429,43
0,53,53,-26,-26,53,102,63,-322,112,-419,48
4,53,48,-29,-21,51,87,58,-317,107,-409,48
4,43,39,-24,-17,41,126,48,-317,97,-395,43
9,48,39,-29,-14,43,63,43,-341,87,-400,39
14,63,48,-39,-17,56,48,34,-341,78,-400,24
9,78,68,-43,-29,73,34,29,-346,68,-395,14
9,78,68,-43,-29,73,24,14,-351,58,-400,0
14,73,58,-43,-21,65,14,4,-356,48,-395,-9
14,58,43,-36,-14,51,14,4,-356,43,-390,-9
14,68,53,-41,-19,61,14,0,-361,39,-390,-14
14,78,63,-46,-24,70,9,4,-370,34,-390,-14
24,73,48,-48,-12,61,-4,0,-375,24,-385,-14
29,82,53,-56,-12,68,-9,-4,-385,19,-380,-14
34,82,48,-58,-7,65,-9,-9,-385,14,-380,-14
34,82,48,-58,-7,65,-14,-9,-385,14,-375,-14
34,73,39,-53,-2,56,-14,-9,-385,4,-375,-19
34,68,34,-51,0,51,-24,-4,-380,4,-366,-19
29,63,34,-46,-2,48,-29,0,-380,-4,-366,-19
34,53,19,-43,7,36,-29,0,-375,-4,-356,-19
34,48,14,-41,9,31,-24,-9,-375,-9,-346,-24
39,48,9,-43,14,29,-24,-4,-375,-9,-341,-24
43,48,4,-46,19,26,-24,0,-380,-9,-336,-24
48,48,0,-48,24,24,-24,0,-380,-9,-326,-24
48,43,-4,-46,26,19,-29,4,-375,-4,-312,-19
48,43,-4,-46,26,19,-34,9,-375,-4,-307,-14
58,43,-14,-51,36,14,-34,14,-375,-4,-302,-14
63,34,-29,-48,46,2,-34,24,-370,-4,-292,-14
68,19,-48,-43,58,-14,-34,29,-370,-4,-283,-14
78,29,-48,-53,63,-9,-34,39,-366,4,-278,-19
82,29,-53,-56,68,-12,-34,43,-370,9,-273,-24
87,19,-68,-53,78,-24,-39,63,-370,0,-268,-24
92,34,-58,-63,75,-12,-43,73,-370,0,-263,-24
102,19,-82,-61,92,-31,-43,82,-361,9,-253,-24
107,14,-92,-61,100,-39,-43,82,-361,14,-244,-19
117,-4,-122,-56,119,-63,-34,92,-356,14,-239,-14
126,-9,-136,-58,131,-73,-29,92,-351,14,-234,-9
141,-9,-151,-65,146,-80,-34,87,-356,19,-224,-9
146,-19,-165,-63,156,-92,-39,92,-361,19,-219,-9
151,-19,-170,-65,161,-95,-43,73,-361,9,-224,-9
161,4,-156,-82,158,-75,-48,73,-361,4,-224,-14
165,-19,-185,-73,175,-102,-48,68,-366,0,-214,-14
175,-4,-180,-85,178,-92,-48,63,-370,-4,-204,-19
170,0,-170,-85,170,-85,-53,48,-375,-4,-209,-19
170,0,-170,-85,170,-85,-53,34,-380,-4,-204,-19
180,-9,-190,-85,185,-100,-53,14,-390,-9,-195,-14
185,-9,-195,-87,190,-102,-48,-4,-400,-14,-190,-9
180,-14,-195,-82,187,-104,-48,-24,-405,-14,-180,-9
175,4,-170,-90,173,-82,-48,-43,-414,-19,-175,-9
170,-14,-185,-78,178,-100,-53,-78,-424,-24,-170,-4
165,-19,-185,-73,175,-102,-53,-102,-434,-24,-165,0
156,-29,-185,-63,170,-107,-53,-117,-444,-24,-161,4
141,-29,-170,-56,156,-100,-39,-131,-448,-24,-156,9
131,-39,-170,-46,151,-104,-34,-146,-463,-29,-156,9
122,-39,-161,-41,141,-100,-29,-156,-473,-29,-156,9
117,-58,-175,-29,146,-117,-29,-165,-483,-34,-151,9
107,-34,-141,-36,124,-87,-29,-175,-488,-34,-146,9
102,-43,-146,-29,124,-95,-24,-185,-502,-39,-146,4
97,-43,-141,-26,119,-92,-19,-190,-512,-39,-146,0
87,-58,-146,-14,117,-102,-19,-180,-512,-39,-141,0
82,-53,-136,-14,109,-95,-19,-180,-517,-39,-136,0
78,-48,-126,-14,102,-87,-19,-175,-527,-39,-136,0
73,-48,-122,-12,97,-85,-19,-165,-536,-34,-136,0
68,-48,-117,-9,92,-82,-24,-161,-541,-39,-126,-4
68,-24,-92,-21,80,-58,-14,-156,-546,-39,-122,-9
68,-58,-126,-4,97,-92,-9,-146,-556,-39,-122,-14
68,-24,-92,-21,80,-58,-14,-136,-561,-39,-122,-19
68,-24,-92,-21,80,-58,-14,-126,-561,-39,-117,-19
68,-29,-97,-19,82,-63,-14,-117,-561,-34,-112,-19
63,-43,-107,-9,85,-75,-9,-107,-561,-29,-107,-19
58,-43,-102,-7,80,-73,-4,-107,-566,-24,-102,-19
58,-43,-102,-7,80,-73,-4,-97,-570,-24,-92,-14
58,-29,-87,-14,73,-58,-4,-92,-575,-24,-87,-14
63,-29,-92,-17,78,-61,-4,-82,-575,-19,-78,-14
63,-14,-78,-24,70,-46,-4,-68,-580,-14,-73,-14
63,-39,-102,-12,82,-70,0,-58,-580,-14,-63,-19
63,-43,-107,-9,85,-75,0,-53,-580,-14,-58,-24
58,-43,-102,-7,80,-73,0,-48,-580,-14,-58,-19
53,-39,-92,-7,73,-65,0,-43,-580,-14,-53,-19
48,-39,-87,-4,68,-63,0,-43,-580,-14,-39,-19
48,-24,-73,-12,61,-48,4,-39,-585,-4,-29,-14
48,-39,-87,-4,68,-63,9,-34,-585,4,-24,-9
48,-39,-87,-4,68,-63,9,-29,-590,9,-19,-4
48,-53,-102,2,75,-78,9,-19,-580,9,-9,0
48,-58,-107,4,78,-82,9,-9,-580,9,0,0
43,-58,-102,7,73,-80,4,-4,-570,9,0,4
39,-48,-87,4,63,-68,4,0,-570,9,0,9
39,-48,-87,4,63,-68,4,0,-575,9,-4,9
39,-24,-63,-7,51,-43,4,0,-575,14,-9,9
39,-34,-73,-2,56,-53,4,4,-575,19,-14,9
39,-34,-73,-2,56,-53,4,4,-575,24,-24,9
43,-29,-73,-7,58,-51,9,9,-570,24,-24,9
43,-29,-73,-7,58,-51,9,4,-566,19,-24,9
39,-19,-58,-9,48,-39,4,4,-566,14,-29,14
34,-9,-43,-12,39,-26,0,9,-570,19,-34,19
34,-14,-48,-9,41,-31,0,14,-566,19,-43,24
34,-14,-48,-9,41,-31,0,14,-566,19,-48,29
34,-9,-43,-12,39,-26,0,9,-566,19,-53,29
34,-9,-43,-12,39,-26,-4,9,-570,19,-58,29
34,-9,-43,-12,39,-26,-4,4,-570,19,-68,24
34,-9,-43,-12,39,-26,-4,0,-575,9,-82,14
24,-9,-34,-7,29,-21,0,0,-570,4,-87,14
14,-9,-24,-2,19,-17,0,0,-570,0,-92,14
14,-9,-24,-2,19,-17,0,4,-575,0,-102,19
14,4,-9,-9,12,-2,-4,4,-580,0,-102,19
14,-19,-34,2,24,-26,-4,4,-580,0,-112,19
14,-19,-34,2,24,-26,-4,4,-585,0,-122,19
9,-19,-29,4,19,-24,-4,4,-585,0,-122,19
4,-14,-19,4,12,-17,-4,0,-585,0,-122,19
4,-14,-19,4,12,-17,-4,0,-585,0,-131,19
4,-24,-29,9,17,-26,-4,-4,-585,0,-141,19
4,-24,-29,9,17,-26,-4,-4,-585,0,-146,19
4,-19,-24,7,14,-21,-4,-4,-585,0,-151,14
4,-29,-34,12,19,-31,-4,0,-585,0,-156,14
4,-39,-43,17,24,-41,-4,0,-590,0,-161,14
0,-39,-39,19,19,-39,-4,-4,-590,0,-170,14
0,-34,-34,17,17,-34,-4,-9,-590,-4,-180,14
0,-39,-39,19,19,-39,-4,-9,-590,-4,-185,14
0,-34,-34,17,17,-34,-4,-14,-590,-4,-190,14
