I, II, III, aVR, aVL, aVF, V1, V2, V3, V4, V5, V6
195,195,0,-195,97,97,97,419,165,126,97,58
195,195,0,-195,97,97,97,419,165,126,97,58
195,195,0,-195,97,97,97,419,165,126,97,58
195,195,0,-195,97,97,97,419,165,126,97,58
214,204,-9,-209,112,97,97,429,175,131,102,63
224,204,-19,-214,122,92,97,429,175,136,107,68
234,204,-29,-219,131,87,97,429,175,141,112,73
244,204,-39,-224,141,82,97,429,175,146,117,78
258,209,-48,-234,153,80,92,419,165,146,117,78
263,214,-48,-239,156,82,87,419,165,146,117,78
268,219,-48,-244,158,85,82,419,165,146,117,78
273,224,-48,-248,161,87,78,419,165,146,117,78
263,214,-48,-239,156,82,78,405,165,146,117,87
263,214,-48,-239,156,82,78,400,165,146,117,87
263,214,-48,-239,156,82,78,395,165,146,117,87
263,214,-48,-239,156,82,78,390,165,146,117,87
253,214,-39,-234,146,87,78,385,165,156,126,87
244,214,-29,-229,136,92,78,380,165,156,126,87
234,214,-19,-224,126,97,78,375,165,156,126,87
224,214,-9,-219,117,102,78,370,165,156,126,87
219,209,-9,-214,114,100,68,356,156,146,112,82
214,204,-9,-209,112,97,68,341,146,136,107,78
209,200,-9,-204,109,95,68,326,136,126,102,73
204,195,-9,-200,107,92,68,312,126,117,97,68
190,190,0,-190,95,95,68,302,117,102,92,63
185,185,0,-185,92,92,68,292,117,97,87,58
180,180,0,-180,90,90,68,283,117,92,82,53
175,175,0,-175,87,87,68,273,117,87,78,48
165,170,4,-168,80,87,68,258,102,82,63,34
156,165,9,-161,73,87,68,244,97,78,58,29
146,161,14,-153,65,87,68,229,92,73,53,24
136,156,19,-146,58,87,68,214,87,68,48,19
126,141,14,-134,56,78,68,200,73,58,34,14
117,136,19,-126,48,78,68,195,68,48,29,9
107,131,24,-119,41,78,68,190,63,39,24,4
97,126,29,-112,34,78,68,185,58,29,19,0
87,112,24,-100,31,68,58,170,43,14,14,-14
87,107,19,-97,34,63,58,156,39,9,9,-19
87,102,14,-95,36,58,58,141,34,4,4,-24
87,97,9,-92,39,53,58,126,29,0,0,-29
73,87,14,-80,29,51,58,117,14,-14,-9,-43
68,87,19,-78,24,53,58,107,9,-19,-19,-48
63,87,24,-75,19,56,58,97,4,-24,-29,-53
58,87,29,-73,14,58,58,87,0,-29,-39,-58
48,73,24,-61,12,48,58,82,-9,-39,-39,-58
39,68,29,-53,4,48,58,78,-9,-39,-39,-58
29,63,34,-46,-2,48,58,73,-9,-39,-39,-58
19,58,39,-39,-9,48,58,68,-9,-39,-39,-58
19,58,39,-39,-9,48,53,53,-24,-48,-53,-63
19,58,39,-39,-9,48,48,48,-29,-58,-58,-68
19,58,39,-39,-9,48,43,43,-34,-68,-63,-73
19,58,39,-39,-9,48,39,39,-39,-78,-68,-78
9,53,43,-31,-17,48,48,34,-48,-87,-78,-78
9,48,39,-29,-14,43,48,29,-48,-87,-78,-78
9,43,34,-26,-12,39,48,24,-48,-87,-78,-78
9,39,29,-24,-9,34,48,19,-48,-87,-78,-78
4,39,34,-21,-14,36,48,9,-58,-97,-87,-87
0,39,39,-19,-19,39,48,9,-58,-97,-87,-87
-4,39,43,-17,-24,41,48,9,-58,-97,-87,-87
-9,39,48,-14,-29,43,48,9,-58,-97,-87,-87
-9,29,39,-9,-24,34,39,0,-63,-107,-97,-97
-9,29,39,-9,-24,34,39,0,-68,-107,-97,-97
-9,29,39,-9,-24,34,39,0,-73,-107,-97,-97
-9,29,39,-9,-24,34,39,0,-78,-107,-97,-97
0,19,19,-9,-9,19,39,-9,-78,-107,-107,-97
0,19,19,-9,-9,19,39,-9,-78,-107,-107,-97
0,19,19,-9,-9,19,39,-9,-78,-107,-107,-97
0,19,19,-9,-9,19,39,-9,-78,-107,-107,-97
-4,9,14,-2,-9,12,39,0,-78,-97,-97,-87
-9,9,19,0,-14,14,39,0,-78,-97,-97,-87
-14,9,24,2,-19,17,39,0,-78,-97,-97,-87
-19,9,29,4,-24,19,39,0,-78,-97,-97,-87
-9,19,29,-4,-19,24,39,0,-78,-97,-97,-97
-9,19,29,-4,-19,24,39,0,-78,-97,-97,-97
-9,19,29,-4,-19,24,39,0,-78,-97,-97,-97
-9,19,29,-4,-19,24,39,0,-78,-97,-97,-97
-19,19,39,0,-29,29,39,-9,-78,-107,-97,-97
-19,19,39,0,-29,29,39,-9,-78,-107,-97,-97
-19,19,39,0,-29,29,39,-9,-78,-107,-97,-97
-19,19,39,0,-29,29,39,-9,-78,-107,-97,-97
-9,19,29,-4,-19,24,29,-9,-78,-107,-97,-97
-9,19,29,-4,-19,24,29,-9,-78,-107,-97,-97
-9,19,29,-4,-19,24,29,-9,-78,-107,-97,-97
-9,19,29,-4,-19,24,29,-9,-78,-107,-97,-97
-19,19,39,0,-29,29,39,-9,-78,-107,-97,-97
-19,19,39,0,-29,29,39,-9,-78,-107,-97,-97
-19,19,39,0,-29,29,39,-9,-78,-107,-97,-97
-19,19,39,0,-29,29,39,-9,-78,-107,-97,-97
-9,19,29,-4,-19,24,29,-19,-78,-117,-107,-107
0,19,19,-9,-9,19,29,-19,-78,-117,-107,-107
9,19,9,-14,0,14,29,-19,-78,-117,-107,-107
19,19,0,-19,9,9,29,-19,-78,-117,-107,-107
9,19,9,-14,0,14,34,-9,-68,-102,-102,-97
0,19,19,-9,-9,19,39,-9,-68,-97,-97,-97
-9,19,29,-4,-19,24,43,-9,-68,-92,-92,-97
-19,19,39,0,-29,29,48,-9,-68,-87,-87,-97
-14,19,34,-2,-24,26,39,-9,-68,-97,-78,-97
-9,19,29,-4,-19,24,39,-9,-68,-97,-78,-97
-4,19,24,-7,-14,21,39,-9,-68,-97,-78,-97
0,19,19,-9,-9,19,39,-9,-68,-97,-78,-97
4,19,14,-12,-4,17,39,-19,-68,-97,-82,-107
9,19,9,-14,0,14,39,-19,-68,-97,-87,-107
14,19,4,-17,4,12,39,-19,-68,-97,-92,-107
19,19,0,-19,9,9,39,-19,-68,-97,-97,-107
4,19,14,-12,-4,17,48,-14,-58,-97,-92,-92
-9,19,29,-4,-19,24,48,-9,-58,-97,-87,-87
-24,19,43,2,-34,31,48,-4,-58,-97,-82,-82
-39,19,58,9,-48,39,48,0,-58,-97,-78,-78
-29,19,48,4,-39,34,58,0,-58,-97,-78,-78
-29,19,48,4,-39,34,58,0,-58,-97,-78,-78
-29,19,48,4,-39,34,58,0,-58,-97,-78,-78
-29,19,48,4,-39,34,58,0,-58,-97,-78,-78
-19,19,39,0,-29,29,48,0,-58,-87,-68,-87
-19,19,39,0,-29,29,48,0,-58,-87,-68,-87
-19,19,39,0,-29,29,48,0,-58,-87,-68,-87
-19,19,39,0,-29,29,48,0,-58,-87,-68,-87
-19,19,39,0,-29,29,48,0,-58,-87,-68,-78
-19,19,39,0,-29,29,48,0,-58,-87,-68,-78
-19,19,39,0,-29,29,48,0,-58,-87,-68,-78
-19,19,39,0,-29,29,48,0,-58,-87,-68,-78
-19,9,29,4,-24,19,48,0,-48,-78,-68,-78
-19,9,29,4,-24,19,48,0,-48,-78,-68,-78
-19,9,29,4,-24,19,48,0,-48,-78,-68,-78
-19,9,29,4,-24,19,48,0,-48,-78,-68,-78
-14,9,24,2,-19,17,39,0,-48,-87,-78,-78
-9,9,19,0,-14,14,39,0,-48,-87,-78,-78
-4,9,14,-2,-9,12,39,0,-48,-87,-78,-78
0,9,9,-4,-4,9,39,0,-48,-87,-78,-78
-9,19,29,-4,-19,24,48,0,-39,-82,-68,-78
-9,19,29,-4,-19,24,48,0,-39,-78,-68,-78
-9,19,29,-4,-19,24,48,0,-39,-73,-68,-78
-9,19,29,-4,-19,24,48,0,-39,-68,-68,-78
-19,19,39,0,-29,29,48,9,-48,-68,-68,-78
-19,19,39,0,-29,29,48,9,-48,-68,-68,-78
-19,19,39,0,-29,29,48,9,-48,-68,-68,-78
-19,19,39,0,-29,29,48,9,-48,-68,-68,-78
-4,19,24,-7,-14,21,43,4,-58,-73,-78,-82
9,19,9,-14,0,14,39,0,-58,-78,-78,-87
24,19,-4,-21,14,7,34,-4,-58,-82,-78,-92
39,19,-19,-29,29,0,29,-9,-58,-87,-78,-97
14,19,4,-17,4,12,43,-4,-53,-82,-63,-82
0,19,19,-9,-9,19,48,0,-48,-78,-58,-78
-14,19,34,-2,-24,26,53,4,-43,-73,-53,-73
-29,19,48,4,-39,34,58,9,-39,-68,-48,-68
-24,19,43,2,-34,31,48,0,-48,-68,-48,-78
-19,19,39,0,-29,29,48,0,-48,-68,-48,-78
-14,19,34,-2,-24,26,48,0,-48,-68,-48,-78
-9,19,29,-4,-19,24,48,0,-48,-68,-48,-78
-19,9,29,4,-24,19,48,0,-48,-68,-58,-78
-19,9,29,4,-24,19,48,0,-48,-68,-58,-78
-19,9,29,4,-24,19,48,0,-48,-68,-58,-78
-19,9,29,4,-24,19,48,0,-48,-68,-58,-78
-19,9,29,4,-24,19,48,-9,-58,-78,-58,-68
-19,9,29,4,-24,19,48,-9,-58,-78,-58,-68
-19,9,29,4,-24,19,48,-9,-58,-78,-58,-68
-19,9,29,4,-24,19,48,-9,-58,-78,-58,-68
-29,9,39,9,-34,24,48,-9,-48,-68,-48,-78
-29,9,39,9,-34,24,48,-9,-48,-68,-48,-78
-29,9,39,9,-34,24,48,-9,-48,-68,-48,-78
-29,9,39,9,-34,24,48,-9,-48,-68,-48,-78
-24,0,24,12,-24,12,39,-19,-58,-78,-58,-78
-19,0,19,9,-19,9,39,-19,-58,-78,-58,-78
-14,0,14,7,-14,7,39,-19,-58,-78,-58,-78
-9,0,9,4,-9,4,39,-19,-58,-78,-58,-78
-9,9,19,0,-14,14,29,-19,-58,-87,-68,-78
-9,9,19,0,-14,14,29,-19,-58,-87,-68,-78
-9,9,19,0,-14,14,29,-19,-58,-87,-68,-78
-9,9,19,0,-14,14,29,-19,-58,-87,-68,-78
-14,0,14,7,-14,7,39,-29,-58,-87,-68,-78
-19,0,19,9,-19,9,39,-29,-58,-87,-68,-78
-24,0,24,12,-24,12,39,-29,-58,-87,-68,-78
-29,0,29,14,-29,14,39,-29,-58,-87,-68,-78
-19,-9,9,14,-14,0,39,-29,-68,-87,-68,-78
-19,-9,9,14,-14,0,39,-29,-68,-87,-68,-78
-19,-9,9,14,-14,0,39,-29,-68,-87,-68,-78
-19,-9,9,14,-14,0,39,-29,-68,-87,-68,-78
-9,-9,0,9,-4,-4,29,-29,-68,-87,-68,-78
-9,-9,0,9,-4,-4,29,-29,-68,-87,-68,-78
-9,-9,0,9,-4,-4,29,-29,-68,-87,-68,-78
-9,-9,0,9,-4,-4,29,-29,-68,-87,-68,-78
-9,-9,0,9,-4,-4,39,-39,-68,-87,-68,-87
-9,-9,0,9,-4,-4,39,-39,-68,-87,-68,-87
-9,-9,0,9,-4,-4,39,-39,-68,-87,-68,-87
-9,-9,0,9,-4,-4,39,-39,-68,-87,-68,-87
-9,-9,0,9,-4,-4,29,-39,-68,-87,-58,-87
-9,-9,0,9,-4,-4,29,-39,-68,-87,-58,-87
-9,-9,0,9,-4,-4,29,-39,-68,-87,-58,-87
-9,-9,0,9,-4,-4,29,-39,-68,-87,-58,-87
-19,-9,9,14,-14,0,39,-29,-68,-87,-68,-87
-19,-9,9,14,-14,0,39,-29,-68,-87,-68,-87
-19,-9,9,14,-14,0,39,-29,-68,-87,-68,-87
-19,-9,9,14,-14,0,39,-29,-68,-87,-68,-87
-29,0,29,14,-29,14,29,-39,-78,-87,-58,-87
-29,0,29,14,-29,14,29,-39,-78,-87,-58,-87
-29,0,29,14,-29,14,29,-39,-78,-87,-58,-87
-29,0,29,14,-29,14,29,-39,-78,-87,-58,-87
-24,-9,14,17,-19,2,19,-48,-87,-92,-63,-97
-19,-9,9,14,-14,0,19,-48,-87,-97,-68,-97
-14,-9,4,12,-9,-2,19,-48,-87,-102,-73,-97
-9,-9,0,9,-4,-4,19,-48,-87,-107,-78,-97
-19,0,19,9,-19,9,24,-39,-82,-97,-73,-87
-19,0,19,9,-19,9,29,-39,-78,-97,-68,-87
-19,0,19,9,-19,9,34,-39,-73,-97,-63,-87
-19,0,19,9,-19,9,39,-39,-68,-97,-58,-87
-19,-9,9,14,-14,0,39,-29,-68,-87,-58,-87
-19,-9,9,14,-14,0,39,-29,-68,-87,-58,-87
-19,-9,9,14,-14,0,39,-29,-68,-87,-58,-87
-19,-9,9,14,-14,0,39,-29,-68,-87,-58,-87
-4,-9,-4,7,0,-7,29,-39,-78,-97,-68,-97
0,-9,-9,4,4,-9,29,-39,-78,-97,-68,-97
4,-9,-14,2,9,-12,29,-39,-78,-97,-68,-97
9,-9,-19,0,14,-14,29,-39,-78,-97,-68,-97
0,-19,-19,9,9,-19,39,-29,-68,-92,-58,-87
-9,-19,-9,14,0,-14,39,-29,-68,-87,-58,-87
-19,-19,0,19,-9,-9,39,-29,-68,-82,-58,-87
-29,-19,9,24,-19,-4,39,-29,-68,-78,-58,-87
-39,-19,19,29,-29,0,39,-29,-58,-87,-58,-87
-39,-19,19,29,-29,0,39,-29,-58,-87,-58,-87
-39,-19,19,29,-29,0,39,-29,-58,-87,-58,-87
-39,-19,19,29,-29,0,39,-29,-58,-87,-58,-87
-24,-19,4,21,-14,-7,29,-39,-68,-97,-68,-87
-19,-19,0,19,-9,-9,29,-39,-68,-97,-68,-87
-14,-19,-4,17,-4,-12,29,-39,-68,-97,-68,-87
-9,-19,-9,14,0,-14,29,-39,-68,-97,-68,-87
-19,-9,9,14,-14,0,29,-39,-68,-87,-58,-87
-19,-9,9,14,-14,0,29,-39,-68,-87,-58,-87
-19,-9,9,14,-14,0,29,-39,-68,-87,-58,-87
-19,-9,9,14,-14,0,29,-39,-68,-87,-58,-87
-19,-19,0,19,-9,-9,29,-29,-78,-97,-68,-97
-19,-19,0,19,-9,-9,29,-29,-78,-97,-68,-97
-19,-19,0,19,-9,-9,29,-29,-78,-97,-68,-97
-19,-19,0,19,-9,-9,29,-29,-78,-97,-68,-97
-19,-9,9,14,-14,0,29,-39,-78,-87,-58,-87
-19,-9,9,14,-14,0,29,-39,-78,-87,-58,-87
-19,-9,9,14,-14,0,29,-39,-78,-87,-58,-87
-19,-9,9,14,-14,0,29,-39,-78,-87,-58,-87
-9,-9,0,9,-4,-4,29,-39,-68,-97,-58,-97
-9,-9,0,9,-4,-4,29,-39,-68,-97,-58,-97
-9,-9,0,9,-4,-4,29,-39,-68,-97,-58,-97
-9,-9,0,9,-4,-4,29,-39,-68,-97,-58,-97
-19,-19,0,19,-9,-9,29,-39,-68,-87,-58,-87
-19,-19,0,19,-9,-9,29,-39,-68,-87,-58,-87
-19,-19,0,19,-9,-9,29,-39,-68,-87,-58,-87
-19,-19,0,19,-9,-9,29,-39,-68,-87,-58,-87
-19,-9,9,14,-14,0,29,-39,-68,-87,-58,-87
-19,-9,9,14,-14,0,29,-39,-68,-87,-58,-87
-19,-9,9,14,-14,0,29,-39,-68,-87,-58,-87
-19,-9,9,14,-14,0,29,-39,-68,-87,-58,-87
-19,-19,0,19,-9,-9,29,-48,-68,-87,-58,-87
-19,-19,0,19,-9,-9,29,-48,-68,-87,-58,-87
-19,-19,0,19,-9,-9,29,-48,-68,-87,-58,-87
-19,-19,0,19,-9,-9,29,-48,-68,-87,-58,-87
-19,-19,0,19,-9,-9,39,-39,-58,-78,-48,-97
-19,-19,0,19,-9,-9,39,-39,-58,-78,-48,-97
-19,-19,0,19,-9,-9,39,-39,-58,-78,-48,-97
-19,-19,0,19,-9,-9,39,-39,-58,-78,-48,-97
-9,-19,-9,14,0,-14,29,-48,-68,-87,-58,-87
-9,-19,-9,14,0,-14,29,-48,-68,-87,-58,-87
-9,-19,-9,14,0,-14,29,-48,-68,-87,-58,-87
-9,-19,-9,14,0,-14,29,-48,-68,-87,-58,-87
-9,-29,-19,19,4,-24,29,-39,-58,-87,-58,-78
-9,-29,-19,19,4,-24,29,-39,-58,-87,-58,-78
-9,-29,-19,19,4,-24,29,-39,-58,-87,-58,-78
-9,-29,-19,19,4,-24,29,-39,-58,-87,-58,-78
-9,-19,-9,14,0,-14,39,-39,-58,-78,-48,-78
-9,-19,-9,14,0,-14,39,-39,-58,-78,-48,-78
-9,-19,-9,14,0,-14,39,-39,-58,-78,-48,-78
-9,-19,-9,14,0,-14,39,-39,-58,-78,-48,-78
-19,-19,0,19,-9,-9,48,-48,-58,-78,-48,-78
-19,-19,0,19,-9,-9,48,-48,-58,-78,-48,-78
-19,-19,0,19,-9,-9,48,-48,-58,-78,-48,-78
-19,-19,0,19,-9,-9,48,-48,-58,-78,-48,-78
-19,-29,-9,24,-4,-19,39,-39,-58,-78,-48,-87
-19,-29,-9,24,-4,-19,39,-39,-58,-78,-48,-87
-19,-29,-9,24,-4,-19,39,-39,-58,-78,-48,-87
-19,-29,-9,24,-4,-19,39,-39,-58,-78,-48,-87
-19,-24,-4,21,-7,-14,39,-39,-58,-68,-39,-78
-19,-19,0,19,-9,-9,39,-39,-58,-68,-39,-78
-19,-14,4,17,-12,-4,39,-39,-58,-68,-39,-78
-19,-9,9,14,-14,0,39,-39,-58,-68,-39,-78
-4,-19,-14,12,4,-17,39,-39,-58,-78,-48,-87
0,-19,-19,9,9,-19,39,-39,-58,-78,-48,-87
4,-19,-24,7,14,-21,39,-39,-58,-78,-48,-87
9,-19,-29,4,19,-24,39,-39,-58,-78,-48,-87
0,-19,-19,9,9,-19,48,-39,-48,-73,-43,-78
-9,-19,-9,14,0,-14,48,-39,-48,-68,-39,-78
-19,-19,0,19,-9,-9,48,-39,-48,-63,-34,-78
-29,-19,9,24,-19,-4,48,-39,-48,-58,-29,-78
-19,-9,9,14,-14,0,48,-39,-58,-68,-29,-78
-19,-9,9,14,-14,0,48,-39,-58,-68,-29,-78
-19,-9,9,14,-14,0,48,-39,-58,-68,-29,-78
-19,-9,9,14,-14,0,48,-39,-58,-68,-29,-78
-9,-14,-4,12,-2,-9,39,-39,-48,-68,-39,-87
-9,-19,-9,14,0,-14,39,-39,-48,-68,-39,-87
-9,-24,-14,17,2,-19,39,-39,-48,-68,-39,-87
-9,-29,-19,19,4,-24,39,-39,-48,-68,-39,-87
0,-29,-29,14,14,-29,39,-39,-58,-78,-39,-78
0,-29,-29,14,14,-29,39,-39,-58,-78,-39,-78
0,-29,-29,14,14,-29,39,-39,-58,-78,-39,-78
0,-29,-29,14,14,-29,39,-39,-58,-78,-39,-78
-9,-29,-19,19,4,-24,39,-39,-58,-68,-29,-78
-9,-29,-19,19,4,-24,39,-39,-58,-68,-29,-78
-9,-29,-19,19,4,-24,39,-39,-58,-68,-29,-78
-9,-29,-19,19,4,-24,39,-39,-58,-68,-29,-78
-9,-29,-19,19,4,-24,39,-39,-58,-78,-39,-68
-9,-29,-19,19,4,-24,39,-39,-58,-78,-39,-68
-9,-29,-19,19,4,-24,39,-39,-58,-78,-39,-68
-9,-29,-19,19,4,-24,39,-39,-58,-78,-39,-68
-4,-19,-14,12,4,-17,39,-48,-58,-78,-39,-78
0,-19,-19,9,9,-19,39,-48,-58,-78,-39,-78
4,-19,-24,7,14,-21,39,-48,-58,-78,-39,-78
9,-19,-29,4,19,-24,39,-48,-58,-78,-39,-78
19,-19,-39,0,29,-29,39,-48,-58,-68,-29,-78
19,-19,-39,0,29,-29,39,-48,-58,-68,-29,-78
19,-19,-39,0,29,-29,39,-48,-58,-68,-29,-78
19,-19,-39,0,29,-29,39,-48,-58,-68,-29,-78
9,-19,-29,4,19,-24,48,-39,-53,-58,-19,-68
0,-19,-19,9,9,-19,48,-39,-48,-58,-19,-68
-9,-19,-9,14,0,-14,48,-39,-43,-58,-19,-68
-19,-19,0,19,-9,-9,48,-39,-39,-58,-19,-68
-19,-19,0,19,-9,-9,48,-39,-48,-58,-29,-78
-19,-19,0,19,-9,-9,48,-39,-48,-58,-29,-78
-19,-19,0,19,-9,-9,48,-39,-48,-58,-29,-78
-19,-19,0,19,-9,-9,48,-39,-48,-58,-29,-78
-19,-19,0,19,-9,-9,48,-39,-39,-58,-19,-68
-19,-19,0,19,-9,-9,48,-39,-39,-58,-19,-68
-19,-19,0,19,-9,-9,48,-39,-39,-58,-19,-68
-19,-19,0,19,-9,-9,48,-39,-39,-58,-19,-68
-9,-19,-9,14,0,-14,48,-48,-48,-68,-29,-78
-9,-19,-9,14,0,-14,48,-48,-48,-68,-29,-78
-9,-19,-9,14,0,-14,48,-48,-48,-68,-29,-78
-9,-19,-9,14,0,-14,48,-48,-48,-68,-29,-78
-9,-19,-9,14,0,-14,48,-39,-39,-58,-19,-68
-9,-19,-9,14,0,-14,48,-39,-39,-58,-19,-68
-9,-19,-9,14,0,-14,48,-39,-39,-58,-19,-68
-9,-19,-9,14,0,-14,48,-39,-39,-58,-19,-68
0,-19,-19,9,9,-19,58,-39,-39,-48,-19,-68
0,-19,-19,9,9,-19,58,-39,-39,-48,-19,-68
0,-19,-19,9,9,-19,58,-39,-39,-48,-19,-68
0,-19,-19,9,9,-19,58,-39,-39,-48,-19,-68
-9,-19,-9,14,0,-14,48,-39,-39,-58,-19,-68
-9,-19,-9,14,0,-14,48,-39,-39,-58,-19,-68
-9,-19,-9,14,0,-14,48,-39,-39,-58,-19,-68
-9,-19,-9,14,0,-14,48,-39,-39,-58,-19,-68
-9,-19,-9,14,0,-14,48,-39,-39,-48,-9,-68
-9,-19,-9,14,0,-14,48,-39,-39,-48,-9,-68
-9,-19,-9,14,0,-14,48,-39,-39,-48,-9,-68
-9,-19,-9,14,0,-14,48,-39,-39,-48,-9,-68
-9,-14,-4,12,-2,-9,48,-39,-29,-48,0,-68
-9,-9,0,9,-4,-4,48,-39,-29,-48,0,-68
-9,-4,4,7,-7,0,48,-39,-29,-48,0,-68
-9,0,9,4,-9,4,48,-39,-29,-48,0,-68
0,-9,-9,4,4,-9,48,-39,-29,-39,0,-68
0,-9,-9,4,4,-9,48,-39,-29,-39,0,-68
0,-9,-9,4,4,-9,48,-39,-29,-39,0,-68
0,-9,-9,4,4,-9,48,-39,-29,-39,0,-68
-9,-19,-9,14,0,-14,48,-39,-29,-48,-4,-68
-9,-19,-9,14,0,-14,48,-39,-29,-48,-9,-68
-9,-19,-9,14,0,-14,48,-39,-29,-48,-14,-68
-9,-19,-9,14,0,-14,48,-39,-29,-48,-19,-68
-9,-9,0,9,-4,-4,48,-39,-39,-48,-9,-58
-9,-9,0,9,-4,-4,48,-39,-39,-48,-9,-58
-9,-9,0,9,-4,-4,48,-39,-39,-48,-9,-58
-9,-9,0,9,-4,-4,48,-39,-39,-48,-9,-58
-9,-19,-9,14,0,-14,58,-39,-39,-48,-9,-68
-9,-19,-9,14,0,-14,58,-39,-39,-48,-9,-68
-9,-19,-9,14,0,-14,58,-39,-39,-48,-9,-68
-9,-19,-9,14,0,-14,58,-39,-39,-48,-9,-68
0,-19,-19,9,9,-19,48,-48,-39,-48,-9,-68
0,-19,-19,9,9,-19,48,-48,-39,-48,-9,-68
0,-19,-19,9,9,-19,48,-48,-39,-48,-9,-68
0,-19,-19,9,9,-19,48,-48,-39,-48,-9,-68
0,-9,-9,4,4,-9,58,-39,-29,-39,0,-58
0,-9,-9,4,4,-9,58,-39,-29,-39,0,-58
0,-9,-9,4,4,-9,58,-39,-29,-39,0,-58
0,-9,-9,4,4,-9,58,-39,-29,-39,0,-58
0,-19,-19,9,9,-19,58,-39,-29,-39,0,-68
0,-19,-19,9,9,-19,58,-39,-29,-39,0,-68
0,-19,-19,9,9,-19,58,-39,-29,-39,0,-68
0,-19,-19,9,9,-19,58,-39,-29,-39,0,-68
-9,-19,-9,14,0,-14,58,-39,-29,-39,-9,-58
-9,-19,-9,14,0,-14,58,-39,-29,-39,-9,-58
-9,-19,-9,14,0,-14,58,-39,-29,-39,-9,-58
-9,-19,-9,14,0,-14,58,-39,-29,-39,-9,-58
-19,-19,0,19,-9,-9,58,-39,-19,-29,0,-58
-19,-19,0,19,-9,-9,58,-39,-19,-29,0,-58
-19,-19,0,19,-9,-9,58,-39,-19,-29,0,-58
-19,-19,0,19,-9,-9,58,-39,-19,-29,0,-58
-19,-19,0,19,-9,-9,58,-39,-29,-29,9,-58
-19,-19,0,19,-9,-9,58,-39,-29,-29,9,-58
-19,-19,0,19,-9,-9,58,-39,-29,-29,9,-58
-19,-19,0,19,-9,-9,58,-39,-29,-29,9,-58
-14,-19,-4,17,-4,-12,58,-39,-29,-29,9,-58
-9,-19,-9,14,0,-14,58,-39,-29,-29,9,-58
-4,-19,-14,12,4,-17,58,-39,-29,-29,9,-58
0,-19,-19,9,9,-19,58,-39,-29,-29,9,-58
0,-14,-14,7,7,-14,63,-34,-24,-19,19,-48
0,-9,-9,4,4,-9,68,-29,-19,-19,19,-48
0,-4,-4,2,2,-4,73,-24,-14,-19,19,-48
0,0,0,0,0,0,78,-19,-9,-19,19,-48
4,4,0,-4,2,2,87,-9,0,-14,29,-39
9,9,0,-9,4,4,87,-9,0,-9,29,-39
14,14,0,-14,7,7,87,-9,0,-4,29,-39
19,19,0,-19,9,9,87,-9,0,0,29,-39
19,29,9,-24,4,19,97,4,4,9,39,-29
19,29,9,-24,4,19,97,9,9,9,39,-29
19,29,9,-24,4,19,97,14,14,9,39,-29
19,29,9,-24,4,19,97,19,19,9,39,-29
24,19,-4,-21,14,7,87,9,9,9,39,-19
29,19,-9,-24,19,4,87,9,9,9,39,-19
34,19,-14,-26,24,2,87,9,9,9,39,-19
39,19,-19,-29,29,0,87,9,9,9,39,-19
48,9,-39,-29,43,-14,97,19,19,19,48,-29
48,9,-39,-29,43,-14,97,19,19,19,48,-29
48,9,-39,-29,43,-14,97,19,19,19,48,-29
48,9,-39,-29,43,-14,97,19,19,19,48,-29
53,19,-34,-36,43,-7,97,29,24,24,58,-24
58,29,-29,-43,43,0,97,29,29,29,58,-19
63,39,-24,-51,43,7,97,29,34,34,58,-14
68,48,-19,-58,43,14,97,29,39,39,58,-9
82,58,-24,-70,53,17,92,29,39,39,63,0
87,58,-29,-73,58,14,87,29,39,39,68,0
92,58,-34,-75,63,12,73,24,34,39,63,-4
92,48,-43,-70,68,2,63,9,29,34,68,-4
102,48,-53,-75,78,-2,48,-19,14,24,53,-9
97,39,-58,-68,78,-9,34,-29,0,14,43,-9
97,34,-63,-65,80,-14,24,-43,-4,14,39,-14
102,34,-68,-68,85,-17,9,-58,-14,9,34,-19
97,19,-78,-58,87,-29,19,-48,-14,4,43,-19
87,14,-73,-51,80,-29,19,-48,-14,4,43,-19
87,14,-73,-51,80,-29,24,-43,-14,4,48,-14
82,9,-73,-46,78,-31,24,-34,-9,9,48,-14
73,9,-63,-41,68,-26,39,-29,0,14,58,-9
68,9,-58,-39,63,-24,43,-24,0,14,58,-9
63,0,-63,-31,63,-31,43,-24,0,14,58,-14
63,0,-63,-31,63,-31,43,-29,-4,9,58,-14
63,4,-58,-34,61,-26,34,-34,-4,14,43,-24
58,0,-58,-29,58,-29,34,-39,-4,4,39,-24
53,0,-53,-26,53,-26,34,-48,-14,4,34,-24
43,-4,-48,-19,46,-26,34,-53,-19,0,34,-34
43,-9,-53,-17,48,-31,34,-58,-19,-4,39,-34
39,-9,-48,-14,43,-29,34,-58,-24,-4,34,-34
34,-14,-48,-9,41,-31,34,-63,-24,-4,34,-39
34,-14,-48,-9,41,-31,34,-63,-24,-4,34,-39
34,-14,-48,-9,41,-31,43,-58,-14,0,34,-39
29,-14,-43,-7,36,-29,43,-58,-19,0,34,-39
24,-14,-39,-4,31,-26,43,-58,-19,0,34,-43
14,-14,-29,0,21,-21,43,-58,-19,0,29,-48
14,-24,-39,4,26,-31,48,-63,-34,-14,14,-63
0,-24,-24,12,12,-24,53,-68,-39,-19,9,-63
-4,-29,-24,17,9,-26,53,-68,-39,-24,4,-68
-14,-39,-24,26,4,-31,53,-68,-39,-29,0,-73
-14,-39,-24,26,4,-31,53,-68,-39,-39,0,-68
-14,-39,-24,26,4,-31,53,-68,-39,-39,-4,-68
-14,-39,-24,26,4,-31,53,-73,-39,-39,-4,-68
-14,-39,-24,26,4,-31,48,-78,-43,-43,-4,-68
-14,-43,-29,29,7,-36,48,-78,-53,-34,-14,-68
-14,-43,-29,29,7,-36,48,-78,-53,-34,-14,-68
-19,-43,-24,31,2,-34,48,-78,-53,-29,-14,-63
-19,-39,-19,29,0,-29,48,-78,-53,-29,-14,-63
-4,-48,-43,26,19,-46,43,-73,-43,-39,0,-63
-4,-48,-43,26,19,-46,43,-73,-43,-39,0,-63
-4,-48,-43,26,19,-46,43,-73,-43,-39,0,-63
-4,-48,-43,26,19,-46,43,-73,-43,-39,0,-63
-4,-43,-39,24,17,-41,43,-73,-53,-39,0,-63
-4,-39,-34,21,14,-36,43,-73,-53,-39,0,-63
-4,-34,-29,19,12,-31,43,-73,-53,-39,0,-63
-9,-34,-24,21,7,-29,43,-73,-48,-39,0,-63
-14,-43,-29,29,7,-36,53,-73,-39,-39,0,-53
-19,-39,-19,29,0,-29,53,-73,-43,-39,0,-53
-24,-34,-9,29,-7,-21,53,-73,-43,-39,0,-58
-29,-34,-4,31,-12,-19,53,-73,-43,-39,0,-58
-19,-34,-14,26,-2,-24,53,-82,-43,-39,0,-68
-19,-34,-14,26,-2,-24,53,-82,-43,-39,0,-68
-19,-34,-14,26,-2,-24,53,-82,-43,-39,0,-68
-19,-34,-14,26,-2,-24,53,-82,-43,-39,0,-68
-29,-34,-4,31,-12,-19,53,-68,-39,-29,0,-68
-29,-34,-4,31,-12,-19,58,-68,-39,-29,0,-68
-34,-34,0,34,-17,-17,58,-68,-39,-29,0,-68
-34,-34,0,34,-17,-17,58,-73,-39,-29,0,-68
-29,-24,4,26,-17,-9,43,-73,-43,-29,-4,-68
-24,-24,0,24,-12,-12,43,-73,-43,-29,-4,-68
-19,-24,-4,21,-7,-14,48,-68,-43,-29,-4,-68
-14,-19,-4,17,-4,-12,53,-68,-39,-24,-4,-68
-19,-19,0,19,-9,-9,63,-58,-39,-24,0,-58
-24,-19,4,21,-14,-7,63,-58,-39,-24,4,-58
-29,-24,4,26,-17,-9,63,-58,-39,-24,9,-58
-34,-24,9,29,-21,-7,63,-58,-39,-24,14,-58
-34,-24,9,29,-21,-7,73,-58,-29,-24,14,-58
-34,-24,9,29,-21,-7,73,-58,-29,-24,14,-58
-34,-24,9,29,-21,-7,73,-58,-29,-24,9,-58
-34,-24,9,29,-21,-7,78,-53,-24,-24,9,-58
-48,-24,24,36,-36,0,78,-43,-24,-14,0,-58
-48,-19,29,34,-39,4,92,-34,-19,-24,0,-53
-43,-9,34,26,-39,12,92,-34,-14,-24,0,-53
-68,0,68,34,-68,34,117,-24,-4,-24,0,-58
-87,19,107,34,-97,63,146,0,9,-24,0,-63
-126,19,146,53,-136,82,190,19,24,-24,0,-73
-161,19,180,70,-170,100,229,63,48,-14,-4,-78
-161,48,209,56,-185,129,273,131,97,9,4,-78
-170,58,229,56,-200,143,312,204,146,43,14,-68
-195,78,273,58,-234,175,366,312,200,92,39,-58
-195,97,292,48,-244,195,414,405,268,131,73,-39
-165,112,278,26,-222,195,424,458,317,180,107,-19
-146,136,283,4,-214,209,414,439,351,229,151,19
-117,170,287,-26,-202,229,380,380,390,283,209,73
-53,195,248,-70,-151,222,302,292,409,341,263,126
73,234,161,-153,-43,197,175,195,424,414,341,185
200,244,43,-222,78,143,43,107,424,492,409,244
336,253,-82,-295,209,85,-102,34,434,566,488,307
502,253,-248,-378,375,2,-239,-4,453,653,585,380
629,244,-385,-436,507,-70,-331,-34,463,717,658,439
707,234,-473,-470,590,-119,-429,-141,429,727,697,488
751,224,-527,-488,639,-151,-527,-351,278,619,658,502
732,136,-595,-434,663,-229,-605,-605,4,370,507,419
658,19,-639,-339,649,-309,-624,-834,-302,48,278,278
551,-82,-634,-234,592,-358,-653,-1058,-566,-234,73,146
463,-175,-639,-143,551,-407,-702,-1288,-800,-444,-87,34
385,-287,-673,-48,529,-480,-761,-1532,-1044,-678,-268,-92
297,-405,-702,53,500,-553,-785,-1756,-1278,-897,-453,-219
209,-488,-697,139,453,-592,-785,-1873,-1390,-1019,-551,-297
170,-517,-688,173,429,-602,-766,-1844,-1385,-1019,-570,-312
156,-531,-688,187,422,-610,-746,-1766,-1342,-1000,-570,-317
141,-531,-673,195,407,-602,-722,-1698,-1293,-976,-566,-317
122,-507,-629,192,375,-568,-663,-1581,-1205,-912,-531,-307
87,-473,-561,192,324,-517,-610,-1449,-1107,-844,-497,-292
78,-424,-502,173,290,-463,-570,-1351,-1024,-780,-463,-283
73,-370,-444,148,258,-407,-531,-1259,-932,-712,-424,-258
48,-331,-380,141,214,-356,-478,-1156,-844,-639,-370,-229
48,-287,-336,119,192,-312,-424,-1029,-741,-556,-307,-195
43,-224,-268,90,156,-246,-356,-883,-624,-468,-253,-156
19,-190,-209,85,114,-200,-287,-741,-517,-380,-195,-122
29,-151,-180,61,104,-165,-239,-619,-429,-307,-156,-107
43,-126,-170,41,107,-148,-200,-527,-370,-273,-136,-102
48,-117,-165,34,107,-141,-161,-444,-326,-234,-122,-92
58,-87,-146,14,102,-117,-112,-356,-253,-185,-87,-73
34,-82,-117,24,75,-100,-63,-287,-195,-146,-58,-63
9,-68,-78,29,43,-73,-29,-234,-151,-117,-43,-63
19,-48,-68,14,43,-58,4,-185,-112,-97,-29,-53
14,-48,-63,17,39,-56,24,-146,-92,-73,-19,-39
9,-39,-48,14,29,-43,48,-97,-63,-58,-4,-34
19,-24,-43,2,31,-34,58,-73,-53,-43,-9,-39
4,-24,-29,9,17,-26,68,-48,-43,-48,-14,-39
0,-24,-24,12,12,-24,78,-34,-29,-39,-4,-24
4,-24,-29,9,17,-26,97,-29,-19,-24,4,-24
-19,-34,-14,26,-2,-24,107,-19,-9,-14,9,-34
-19,-29,-9,24,-4,-19,107,-19,-9,-19,14,-34
-9,-14,-4,12,-2,-9,107,-4,4,-14,19,-19
-9,-9,0,9,-4,-4,117,0,14,0,34,-4
-9,-14,-4,12,-2,-9,117,24,24,14,39,-4
-14,0,14,7,-14,7,117,24,14,14,29,-14
-14,0,14,7,-14,7,117,29,24,14,34,-19
-14,0,14,7,-14,7,126,34,24,19,34,-19
-19,-4,14,12,-17,4,126,43,29,24,34,-19
-9,-14,-4,12,-2,-9,141,34,34,19,34,-19
-9,-9,0,9,-4,-4,146,39,39,24,34,-19
-9,-9,0,9,-4,-4,146,39,39,24,34,-19
-9,0,9,4,-9,4,146,43,43,24,43,-9
-19,0,19,9,-19,9,136,58,48,29,43,-9
-24,-4,19,14,-21,7,141,63,48,29,39,-9
-24,-4,19,14,-21,7,141,63,48,29,39,-9
-24,0,24,12,-24,12,146,68,53,34,39,-9
-4,0,4,2,-4,2,146,58,53,34,39,-9
-4,0,4,2,-4,2,146,58,58,34,39,-9
-9,0,9,4,-9,4,146,63,58,39,48,-9
-9,0,9,4,-9,4,146,73,58,39,48,-9
-4,4,9,0,-7,7,146,82,58,39,48,-9
-4,9,14,-2,-9,12,151,87,58,39,48,-9
-4,14,19,-4,-12,17,156,92,63,43,48,-9
-4,19,24,-7,-14,21,156,92,63,43,43,-9
-19,9,29,4,-24,19,165,92,53,43,43,-9
-19,9,29,4,-24,19,165,92,58,43,53,-4
-19,9,29,4,-24,19,165,92,58,43,53,-4
-19,14,34,2,-26,24,165,92,63,43,48,-9
-24,19,43,2,-34,31,165,97,73,48,48,-9
-24,19,43,2,-34,31,165,97,78,48,53,-9
-29,19,48,4,-39,34,165,102,78,48,53,-9
-29,19,48,4,-39,34,165,102,78,53,53,-4
-19,19,39,0,-29,29,156,92,78,63,53,-14
-14,19,34,-2,-24,26,156,97,78,63,53,-14
-14,19,34,-2,-24,26,156,97,82,58,58,-9
-14,19,34,-2,-24,26,156,102,82,58,58,-9
0,34,34,-17,-17,34,156,97,82,63,68,-19
0,34,34,-17,-17,34,156,97,82,63,68,-19
0,34,34,-17,-17,34,161,97,82,63,68,-19
0,34,34,-17,-17,34,165,102,82,68,68,-19
0,34,34,-17,-17,34,175,112,87,68,68,-9
0,34,34,-17,-17,34,170,112,87,68,68,-4
0,39,39,-19,-19,39,170,117,87,68,68,-4
0,39,39,-19,-19,39,170,117,87,68,68,-4
-9,39,48,-14,-29,43,170,131,87,68,68,-4
-9,39,48,-14,-29,43,180,136,97,73,73,-4
-9,39,48,-14,-29,43,180,136,97,73,78,-4
-9,39,48,-14,-29,43,180,136,97,73,78,-4
-19,29,48,-4,-34,39,180,146,102,78,68,-4
-19,29,48,-4,-34,39,180,146,102,78,68,0
-24,34,58,-4,-41,46,180,151,102,78,68,0
-24,34,58,-4,-41,46,180,151,107,78,68,0
-9,34,43,-12,-26,39,170,146,97,68,58,-9
9,39,29,-24,-9,34,170,146,97,68,58,-9
14,39,24,-26,-4,31,175,141,97,68,58,-9
19,39,19,-29,0,29,175,141,97,73,58,-9
19,39,19,-29,0,29,175,156,97,73,68,0
14,39,24,-26,-4,31,175,156,97,73,68,0
14,39,24,-26,-4,31,175,161,102,73,73,0
14,43,29,-29,-7,36,175,161,107,78,78,0
14,53,39,-34,-12,46,175,161,107,87,78,4
14,58,43,-36,-14,51,180,165,107,92,78,4
24,58,34,-41,-4,46,180,170,107,92,78,4
29,58,29,-43,0,43,180,175,112,92,78,4
39,58,19,-48,9,39,180,180,126,97,78,4
39,58,19,-48,9,39,180,185,126,97,78,9
39,58,19,-48,9,39,185,185,126,97,82,9
43,58,14,-51,14,36,185,185,131,102,82,14
34,58,24,-46,4,41,185,195,131,102,82,24
34,63,29,-48,2,46,185,195,131,102,87,24
34,68,34,-51,0,51,185,195,136,102,87,24
34,68,34,-51,0,51,185,204,136,107,92,24
29,63,34,-46,-2,48,195,219,146,107,92,29
29,63,34,-46,-2,48,200,224,146,112,92,34
29,63,34,-46,-2,48,200,229,146,112,97,34
29,68,39,-48,-4,53,200,234,146,117,97,34
34,68,34,-51,0,51,190,234,141,122,102,34
39,68,29,-53,4,48,190,239,146,126,102,34
39,78,39,-58,0,58,195,244,146,131,102,39
43,78,34,-61,4,56,195,248,151,131,107,43
48,87,39,-68,4,63,204,244,161,131,107,43
58,87,29,-73,14,58,204,248,165,131,112,43
58,82,24,-70,17,53,204,253,170,136,117,43
63,82,19,-73,21,51,204,258,175,146,117,48
78,97,19,-87,29,58,195,278,170,146,126,48
82,97,14,-90,34,56,195,283,175,146,126,53
82,97,14,-90,34,56,195,292,180,151,126,53
87,102,14,-95,36,58,195,302,180,156,131,58
87,102,14,-95,36,58,209,297,195,165,141,68
87,112,24,-100,31,68,209,302,200,175,151,68
87,112,24,-100,31,68,209,307,204,180,156,73
87,112,24,-100,31,68,209,317,209,185,161,78
107,131,24,-119,41,78,209,322,204,180,156,68
112,131,19,-122,46,75,209,336,209,185,161,68
117,136,19,-126,48,78,204,336,214,190,161,78
122,136,14,-129,53,75,204,351,214,195,165,82
117,136,19,-126,48,78,204,366,229,209,180,92
122,141,19,-131,51,80,209,370,234,214,185,97
136,141,4,-139,65,73,209,380,239,219,190,102
141,141,0,-141,70,70,204,385,244,224,195,102
151,141,-9,-146,80,65,200,390,248,229,200,92
156,146,-9,-151,82,68,190,405,253,239,204,102
161,146,-14,-153,87,65,185,405,258,248,209,107
175,156,-19,-165,97,68,185,419,263,248,214,112
185,156,-29,-170,107,63,185,409,263,248,219,126
185,156,-29,-170,107,63,185,419,268,258,224,131
204,165,-39,-185,122,63,180,419,273,263,234,136
209,170,-39,-190,124,65,180,429,278,268,234,136
224,180,-43,-202,134,68,190,439,283,283,239,141
234,190,-43,-212,139,73,185,444,287,292,244,146
234,195,-39,-214,136,78,180,448,292,292,248,151
244,204,-39,-224,141,82,180,453,297,297,253,156
263,209,-53,-236,158,78,180,458,302,302,268,161
263,209,-53,-236,158,78,180,458,307,307,273,165
273,219,-53,-246,163,82,175,463,307,312,278,170
283,219,-63,-251,173,78,170,468,307,317,283,175
278,214,-63,-246,170,75,170,468,307,322,278,165
278,214,-63,-246,170,75,170,463,317,326,283,170
273,209,-63,-241,168,73,165,458,322,326,283,170
268,204,-63,-236,165,70,165,453,322,331,287,170
283,219,-63,-251,173,78,165,453,322,326,292,180
287,224,-63,-256,175,80,165,448,322,331,297,185
287,229,-58,-258,173,85,156,448,322,331,302,185
297,234,-63,-265,180,85,156,448,322,336,302,185
287,224,-63,-256,175,80,156,453,322,326,302,185
287,224,-63,-256,175,80,156,439,317,326,302,185
283,224,-58,-253,170,82,151,434,317,326,302,185
283,224,-58,-253,170,82,151,424,317,326,297,185
292,214,-78,-253,185,68,151,429,307,312,292,170
283,209,-73,-246,178,68,151,419,302,312,287,170
283,209,-73,-246,178,68,146,414,297,307,283,170
283,209,-73,-246,178,68,146,409,287,302,268,165
268,204,-63,-236,165,70,156,385,283,287,253,161
253,204,-48,-229,151,78,161,375,278,278,248,151
244,195,-48,-219,146,73,161,366,278,278,244,146
224,190,-34,-207,129,78,161,356,273,273,239,136
224,180,-43,-202,134,68,161,366,268,268,224,136
214,175,-39,-195,126,68,161,356,263,258,219,131
204,170,-34,-187,119,68,161,346,253,244,214,122
200,165,-34,-183,117,65,161,341,248,234,204,117
190,151,-39,-170,114,56,175,312,229,234,209,112
175,146,-29,-161,102,58,175,283,219,219,200,107
161,136,-24,-148,92,56,175,258,214,219,195,102
146,126,-19,-136,82,53,175,229,200,204,180,97
136,122,-14,-129,75,53,165,219,204,209,190,102
136,122,-14,-129,75,53,165,219,204,200,180,97
131,126,-4,-129,68,61,161,214,195,190,170,87
126,122,-4,-124,65,58,161,209,185,185,165,82
107,122,14,-114,46,68,156,185,185,180,165,82
92,112,19,-102,36,65,146,170,185,175,165,82
82,102,19,-92,31,61,141,146,175,175,165,78
68,97,29,-82,19,63,136,131,165,180,156,78
48,92,43,-70,2,68,117,112,156,175,161,73
48,92,43,-70,2,68,112,102,156,175,156,73
34,82,48,-58,-7,65,107,97,141,161,151,68
29,73,43,-51,-7,58,102,87,141,156,146,58
24,68,43,-46,-9,56,102,92,136,151,141,58
14,53,39,-34,-12,46,107,92,131,146,131,53
4,48,43,-26,-19,46,112,102,126,136,126,48
0,39,39,-19,-19,39,122,107,122,136,126,43
-19,34,53,-7,-36,43,141,97,122,122,122,34
-19,34,53,-7,-36,43,151,92,117,112,117,29
-24,29,53,-2,-39,41,156,87,112,107,117,29
-29,24,53,2,-41,39,165,82,112,107,112,24
-24,29,53,-2,-39,41,151,82,122,107,117,24
-19,29,48,-4,-34,39,131,87,117,107,112,29
-14,34,48,-9,-31,41,117,87,112,107,107,34
-9,39,48,-14,-29,43,102,87,112,107,102,39
4,43,39,-24,-17,41,87,73,102,102,97,29
24,48,24,-36,0,36,87,63,92,92,92,24
43,53,9,-48,17,31,87,48,82,87,87,14
63,48,-14,-56,39,17,87,34,73,78,78,9
68,34,-34,-51,51,0,87,48,68,58,73,0
68,29,-39,-48,53,-4,92,53,63,53,58,-4
68,24,-43,-46,56,-9,97,48,58,48,53,-9
68,19,-48,-43,58,-14,102,48,43,43,53,-14
34,9,-24,-21,29,-7,112,39,48,58,68,-14
19,9,-9,-14,14,0,117,24,58,58,68,-9
4,9,4,-7,0,7,117,14,63,63,73,-4
-14,9,24,2,-19,17,117,0,63,63,78,4
-29,9,39,9,-34,24,117,4,73,68,82,9
-34,9,43,12,-39,26,117,9,73,78,87,14
-39,9,48,14,-43,29,117,14,73,82,92,14
-48,14,63,17,-56,39,117,19,73,87,97,19
-58,24,82,17,-70,53,122,43,82,87,107,19
-58,19,78,19,-68,48,126,58,82,87,107,19
-58,19,78,19,-68,48,131,73,82,82,107,19
-58,24,82,17,-70,53,136,87,82,82,107,19
-68,14,82,26,-75,48,146,78,82,78,97,19
-68,14,82,26,-75,48,146,78,82,78,97,19
-68,9,78,29,-73,43,146,73,82,78,97,14
-68,9,78,29,-73,43,146,73,82,78,97,14
-43,24,68,9,-56,46,131,53,68,63,92,4
-29,24,53,2,-41,39,112,39,58,58,87,4
-14,29,43,-7,-29,36,92,19,53,53,78,4
4,29,24,-17,-9,26,78,4,53,48,73,4
24,29,4,-26,9,17,78,19,48,39,68,0
39,29,-9,-34,24,9,73,19,43,39,63,-4
48,29,-19,-39,34,4,68,19,39,39,58,-9
53,29,-24,-41,39,2,63,19,34,39,53,-14
34,29,-4,-31,19,12,68,29,39,48,63,-4
19,24,4,-21,7,14,73,43,43,48,63,-4
0,19,19,-9,-9,19,78,53,48,48,63,-4
0,19,19,-9,-9,19,82,63,48,48,63,-4
-14,19,34,-2,-24,26,87,48,48,58,68,4
-19,14,34,2,-26,24,92,48,48,63,73,4
-29,9,39,9,-34,24,97,53,48,63,78,4
-34,4,39,14,-36,21,107,58,48,58,82,4
-19,19,39,0,-29,29,97,68,58,48,78,-4
-9,24,34,-7,-21,29,97,73,58,53,73,-4
-4,29,34,-12,-19,31,97,82,63,53,73,0
0,34,34,-17,-17,34,97,92,68,53,68,0
-14,43,58,-14,-36,51,97,73,68,63,73,4
-14,43,58,-14,-36,51,92,63,68,63,78,14
-14,43,58,-14,-36,51,92,53,68,63,87,19
-14,43,58,-14,-36,51,92,43,68,63,92,24
-14,34,48,-9,-31,41,82,29,63,53,92,9
-14,34,48,-9,-31,41,78,19,58,53,92,9
-14,34,48,-9,-31,41,68,14,53,53,92,14
-9,39,48,-14,-29,43,58,9,48,53,92,14
0,39,39,-19,-19,39,58,14,48,53,82,14
0,39,39,-19,-19,39,58,19,48,53,82,14
0,39,39,-19,-19,39,58,24,48,53,82,14
0,39,39,-19,-19,39,58,29,48,53,82,14
-14,34,48,-9,-31,41,63,34,48,53,73,14
-19,34,53,-7,-36,43,68,43,48,53,73,14
-24,29,53,-2,-39,41,73,48,48,53,73,14
-29,24,53,2,-41,39,82,53,48,53,73,14
-48,24,73,12,-61,48,92,58,63,63,78,19
-58,19,78,19,-68,48,97,68,68,63,82,24
-68,19,87,24,-78,53,97,73,73,63,87,29
-78,24,102,26,-90,63,97,78,78,63,92,34
-63,24,87,19,-75,56,78,68,63,58,87,29
-43,24,68,9,-56,46,73,53,58,53,82,24
-24,24,48,0,-36,36,68,39,53,48,78,19
-9,24,34,-7,-21,29,63,29,48,43,73,14
9,24,14,-17,-2,19,39,19,39,39,63,4
19,19,0,-19,9,9,34,19,39,34,58,4
29,19,-9,-24,19,4,34,24,39,29,58,4
39,19,-19,-29,29,0,29,24,34,24,58,4
39,34,-4,-36,21,14,39,24,43,14,58,4
39,34,-4,-36,21,14,39,24,48,14,58,4
39,34,-4,-36,21,14,39,24,48,14,58,4
39,34,-4,-36,21,14,39,24,48,14,58,4
39,43,4,-41,17,24,48,29,58,19,68,14
39,43,4,-41,17,24,48,34,58,24,68,14
39,43,4,-41,17,24,48,39,58,29,68,14
39,43,4,-41,17,24,48,43,58,34,68,14
24,34,9,-29,7,21,53,53,58,34,68,24
19,34,14,-26,2,24,58,53,58,34,68,24
19,34,14,-26,2,24,63,53,58,34,68,24
14,34,19,-24,-2,26,68,48,58,34,68,24
9,34,24,-21,-7,29,58,43,48,24,63,24
9,34,24,-21,-7,29,53,39,48,19,63,24
9,34,24,-21,-7,29,53,34,48,19,63,24
9,34,24,-21,-7,29,48,29,48,24,63,24
9,24,14,-17,-2,19,58,29,48,24,63,24
9,24,14,-17,-2,19,58,29,48,24,58,24
9,24,14,-17,-2,19,58,29,43,19,58,24
9,24,14,-17,-2,19,53,29,43,19,58,24
9,24,14,-17,-2,19,43,34,43,14,58,19
9,24,14,-17,-2,19,48,34,43,14,58,19
9,24,14,-17,-2,19,48,34,43,19,63,19
9,24,14,-17,-2,19,48,34,39,19,63,19
9,24,14,-17,-2,19,58,24,48,9,58,9
9,19,9,-14,0,14,58,29,48,9,58,14
9,19,9,-14,0,14,58,29,43,4,53,14
9,19,9,-14,0,14,53,29,43,4,48,9
0,9,9,-4,-4,9,48,29,34,0,39,19
0,9,9,-4,-4,9,43,29,34,-4,39,14
0,9,9,-4,-4,9,39,24,34,-4,39,14
0,4,4,-2,-2,4,34,24,34,0,39,14
0,14,14,-7,-7,14,29,14,34,0,53,14
0,14,14,-7,-7,14,29,14,34,0,53,14
0,9,9,-4,-4,9,19,14,29,-4,48,9
0,9,9,-4,-4,9,19,14,29,-9,48,9
-4,4,9,0,-7,7,29,0,19,-9,39,9
-4,0,4,2,-4,2,29,0,19,-9,34,9
-4,-4,0,4,-2,-2,29,0,19,-9,34,9
-4,-9,-4,7,0,-7,29,0,19,-9,34,9
0,0,0,0,0,0,39,9,24,-9,43,19
0,0,0,0,0,0,39,4,24,-9,43,14
0,0,0,0,0,0,39,4,24,-14,43,14
0,0,0,0,0,0,39,4,19,-14,39,19
0,0,0,0,0,0,29,4,19,-24,29,9
-4,0,4,2,-4,2,24,0,19,-24,29,9
-4,0,4,2,-4,2,24,0,19,-24,29,9
-4,0,4,2,-4,2,24,0,19,-24,29,4
0,-4,-4,2,2,-4,14,-4,29,-14,39,14
0,-4,-4,2,2,-4,19,-4,24,-14,39,14
4,-4,-9,0,7,-7,19,-4,24,-14,39,14
4,-4,-9,0,7,-7,19,-4,24,-19,34,14
4,4,0,-4,2,2,19,-4,24,-19,34,14
4,4,0,-4,2,2,19,-4,24,-24,34,14
4,4,0,-4,2,2,19,-4,24,-24,34,14
4,4,0,-4,2,2,19,-9,19,-24,34,14
-9,0,9,4,-9,4,24,-9,9,-34,34,9
-14,-4,9,9,-12,2,29,-9,9,-34,34,9
-19,-9,9,14,-14,0,34,-9,9,-34,34,9
-29,-14,14,21,-21,0,39,-9,9,-34,34,9
-14,-9,4,12,-9,-2,24,-4,19,-24,34,9
-9,-4,4,7,-7,0,24,-4,19,-24,34,9
-4,0,4,2,-4,2,24,-4,19,-24,34,9
0,4,4,-2,-2,4,24,-4,19,-24,34,14
0,14,14,-7,-7,14,9,-14,24,-24,29,14
0,14,14,-7,-7,14,9,-14,24,-24,29,9
0,14,14,-7,-7,14,9,-19,24,-24,29,9
0,4,4,-2,-2,4,9,-19,24,-24,29,9
-9,-4,4,7,-7,0,9,-29,19,-39,19,9
-9,0,9,4,-9,4,14,-29,19,-39,24,9
-9,0,9,4,-9,4,14,-29,19,-39,24,9
-9,0,9,4,-9,4,14,-29,19,-34,19,9
-9,0,9,4,-9,4,24,-19,14,-34,29,14
-9,0,9,4,-9,4,24,-19,14,-39,34,14
-9,0,9,4,-9,4,24,-19,14,-39,34,14
-9,0,9,4,-9,4,24,-19,14,-39,34,14
-9,-9,0,9,-4,-4,24,-19,24,-29,24,14
-9,-9,0,9,-4,-4,24,-19,24,-24,24,14
-9,-14,-4,12,-2,-9,24,-19,19,-24,24,14
-9,-14,-4,12,-2,-9,24,-19,19,-24,24,14
-9,-4,4,7,-7,0,24,-24,19,-34,24,19
-14,-4,9,9,-12,2,24,-24,24,-34,24,19
-14,-4,9,9,-12,2,24,-29,24,-34,24,19
-14,-4,9,9,-12,2,24,-34,24,-39,24,14
-14,-4,9,9,-12,2,14,-34,24,-29,19,14
-14,-4,9,9,-12,2,14,-29,19,-24,19,19
-14,-4,9,9,-12,2,14,-29,19,-24,19,19
-14,-4,9,9,-12,2,14,-34,19,-24,19,14
-14,-4,9,9,-12,2,24,-24,24,-24,29,19
-14,-4,9,9,-12,2,24,-24,24,-24,29,29
-14,-4,9,9,-12,2,24,-24,24,-29,29,34
-14,-4,9,9,-12,2,24,-19,24,-29,29,39
-24,-14,9,19,-17,-2,24,-29,14,-29,19,48
-24,-14,9,19,-17,-2,19,-29,14,-29,14,48
-24,-14,9,19,-17,-2,19,-34,9,-29,14,53
-24,-14,9,19,-17,-2,19,-34,9,-29,19,53
-19,0,19,9,-19,9,19,-24,24,-29,24,53
-19,0,19,9,-19,9,19,-29,19,-29,29,58
-19,-9,9,14,-14,0,19,-29,19,-29,19,58
-19,-9,9,14,-14,0,19,-29,19,-29,19,58
-19,-9,9,14,-14,0,19,-29,19,-29,19,58
-19,-9,9,14,-14,0,19,-29,19,-29,19,58
-19,-9,9,14,-14,0,14,-39,9,-29,19,58
-19,-9,9,14,-14,0,9,-39,9,-29,19,58
-19,-9,9,14,-14,0,4,-39,9,-29,19,58
-19,-9,9,14,-14,0,0,-39,9,-29,19,58
-19,-19,0,19,-9,-9,9,-39,19,-19,29,58
-19,-19,0,19,-9,-9,9,-39,19,-19,29,58
-19,-19,0,19,-9,-9,9,-39,19,-19,29,58
-19,-19,0,19,-9,-9,9,-39,19,-19,29,58
-9,-9,0,9,-4,-4,0,-39,19,-19,19,58
-9,-9,0,9,-4,-4,0,-39,19,-19,19,58
-9,-9,0,9,-4,-4,0,-39,19,-19,19,58
-9,-9,0,9,-4,-4,0,-39,19,-19,19,58
-9,-19,-9,14,0,-14,0,-48,9,-19,29,58
-9,-19,-9,14,0,-14,0,-48,9,-19,29,58
-9,-19,-9,14,0,-14,0,-48,9,-19,29,58
-9,-19,-9,14,0,-14,0,-48,9,-19,29,58
-9,-9,0,9,-4,-4,0,-48,9,-19,29,58
-9,-9,0,9,-4,-4,0,-48,9,-19,29,58
-9,-9,0,9,-4,-4,0,-48,9,-19,29,58
-9,-9,0,9,-4,-4,0,-48,9,-19,29,58
-19,-9,9,14,-14,0,-9,-48,9,-19,19,58
-19,-9,9,14,-14,0,-9,-48,9,-19,19,58
-19,-9,9,14,-14,0,-9,-48,9,-19,19,58
-19,-9,9,14,-14,0,-9,-48,9,-19,19,58
-9,-9,0,9,-4,-4,0,-48,9,-19,19,58
-9,-9,0,9,-4,-4,0,-48,9,-19,19,58
-9,-9,0,9,-4,-4,0,-48,9,-19,19,58
-9,-9,0,9,-4,-4,0,-48,9,-19,19,58
-19,-9,9,14,-14,0,-9,-48,9,-19,19,68
-19,-9,9,14,-14,0,-9,-48,9,-19,19,68
-19,-9,9,14,-14,0,-9,-48,9,-19,19,68
-19,-9,9,14,-14,0,-9,-48,9,-19,19,68
-19,-9,9,14,-14,0,0,-48,9,-19,19,58
-19,-9,9,14,-14,0,0,-48,9,-19,19,58
-19,-9,9,14,-14,0,0,-48,9,-19,19,58
-19,-9,9,14,-14,0,0,-48,9,-19,19,58
-9,-9,0,9,-4,-4,-9,-48,9,-19,19,58
-9,-9,0,9,-4,-4,-9,-48,9,-19,19,58
-9,-9,0,9,-4,-4,-9,-48,9,-19,19,58
-9,-9,0,9,-4,-4,-9,-48,9,-19,19,58
-9,0,9,4,-9,4,-19,-58,9,-19,9,48
-9,0,9,4,-9,4,-19,-58,9,-19,9,48
-9,0,9,4,-9,4,-19,-58,9,-19,9,48
-9,0,9,4,-9,4,-19,-58,9,-19,9,48
-9,0,9,4,-9,4,-9,-48,9,-19,19,48
-9,0,9,4,-9,4,-9,-48,9,-19,19,48
-9,0,9,4,-9,4,-9,-48,9,-19,19,48
-9,0,9,4,-9,4,-9,-48,9,-19,19,48
-9,0,9,4,-9,4,-9,-58,9,-9,19,48
-9,0,9,4,-9,4,-9,-58,9,-9,19,48
-9,0,9,4,-9,4,-9,-58,9,-9,19,48
-9,0,9,4,-9,4,-9,-58,9,-9,19,48
-9,-9,0,9,-4,-4,-9,-58,0,-19,19,48
-9,-9,0,9,-4,-4,-9,-58,0,-19,19,48
-9,-9,0,9,-4,-4,-9,-58,0,-19,19,48
-9,-9,0,9,-4,-4,-9,-58,0,-19,19,48
-9,-9,0,9,-4,-4,-4,-53,9,-9,19,48
-9,-9,0,9,-4,-4,0,-48,9,-9,19,48
-9,-9,0,9,-4,-4,4,-43,9,-9,19,48
-9,-9,0,9,-4,-4,9,-39,9,-9,19,48
0,-4,-4,2,2,-4,4,-39,19,-9,19,48
0,0,0,0,0,0,0,-39,19,-9,19,48
0,4,4,-2,-2,4,-4,-39,19,-9,19,48
0,9,9,-4,-4,9,-9,-39,19,-9,19,48
-9,0,9,4,-9,4,-19,-48,9,-19,9,48
-9,0,9,4,-9,4,-19,-48,9,-19,9,48
-9,0,9,4,-9,4,-19,-48,9,-19,9,48
-9,0,9,4,-9,4,-19,-48,9,-19,9,48
-9,0,9,4,-9,4,-14,-39,9,-9,19,48
-9,0,9,4,-9,4,-9,-39,9,-9,19,48
-9,0,9,4,-9,4,-4,-39,9,-9,19,48
-9,0,9,4,-9,4,0,-39,9,-9,19,48
0,9,9,-4,-4,9,-19,-43,9,-9,19,48
0,9,9,-4,-4,9,-29,-48,9,-9,19,48
0,9,9,-4,-4,9,-39,-53,9,-9,19,48
0,9,9,-4,-4,9,-48,-58,9,-9,19,48
9,9,0,-9,4,4,-48,-63,0,-19,9,48
9,9,0,-9,4,4,-48,-68,0,-19,9,48
9,9,0,-9,4,4,-48,-73,0,-19,9,48
9,9,0,-9,4,4,-48,-78,0,-19,9,48
14,14,0,-14,7,7,-34,-73,9,-9,9,48
19,19,0,-19,9,9,-29,-68,9,-9,9,48
24,24,0,-24,12,12,-24,-63,9,-9,9,48
29,29,0,-29,14,14,-19,-58,9,-9,9,48
24,29,4,-26,9,17,-19,-58,9,-9,19,48
19,29,9,-24,4,19,-19,-58,9,-9,19,48
14,29,14,-21,0,21,-19,-58,9,-9,19,48
9,29,19,-19,-4,24,-19,-58,9,-9,19,48
9,19,9,-14,0,14,-9,-48,9,0,19,48
9,19,9,-14,0,14,-9,-48,9,0,19,48
9,19,9,-14,0,14,-9,-48,9,0,19,48
9,19,9,-14,0,14,-9,-48,9,0,19,48
9,29,19,-19,-4,24,-9,-39,19,0,29,48
9,29,19,-19,-4,24,-9,-39,19,0,29,48
9,29,19,-19,-4,24,-9,-39,19,0,29,48
9,29,19,-19,-4,24,-9,-39,19,0,29,48
24,34,9,-29,7,21,-19,-39,9,0,29,58
29,39,9,-34,9,24,-19,-39,9,0,29,58
34,43,9,-39,12,26,-19,-39,9,0,29,58
39,48,9,-43,14,29,-19,-39,9,0,29,58
19,43,24,-31,-2,34,-29,-48,9,-9,19,58
9,39,29,-24,-9,34,-29,-48,9,-9,19,58
0,34,34,-17,-17,34,-29,-48,9,-9,19,58
-9,29,39,-9,-24,34,-29,-48,9,-9,19,58
4,24,19,-14,-7,21,-29,-58,0,-19,14,53
9,19,9,-14,0,14,-29,-58,0,-19,9,48
14,14,0,-14,7,7,-29,-58,0,-19,4,43
19,9,-9,-14,14,0,-29,-58,0,-19,0,39
34,24,-9,-29,21,7,-14,-48,14,-9,19,53
39,39,0,-39,19,19,-9,-39,19,0,29,58
43,53,9,-48,17,31,-4,-29,24,9,39,63
48,68,19,-58,14,43,0,-19,29,19,48,68
48,63,14,-56,17,39,-9,-24,24,14,43,58
48,58,9,-53,19,34,-9,-29,19,9,39,58
48,53,4,-51,21,29,-9,-34,14,4,34,58
48,48,0,-48,24,24,-9,-39,9,0,29,58
43,39,-4,-41,24,17,-29,-39,19,0,29,58
39,39,0,-39,19,19,-39,-39,19,0,29,58
34,39,4,-36,14,21,-48,-39,19,0,29,58
29,39,9,-34,9,24,-58,-39,19,0,29,58
19,29,9,-24,4,19,-48,-43,9,0,19,48
19,29,9,-24,4,19,-48,-48,9,0,19,48
19,29,9,-24,4,19,-48,-53,9,0,19,48
19,29,9,-24,4,19,-48,-58,9,0,19,48
19,29,9,-24,4,19,-39,-58,9,0,29,58
19,29,9,-24,4,19,-39,-58,9,0,29,58
19,29,9,-24,4,19,-39,-58,9,0,29,58
19,29,9,-24,4,19,-39,-58,9,0,29,58
19,39,19,-29,0,29,-39,-58,19,9,39,58
19,39,19,-29,0,29,-39,-58,19,9,39,58
19,39,19,-29,0,29,-39,-58,19,9,39,58
19,39,19,-29,0,29,-39,-58,19,9,39,58
9,24,14,-17,-2,19,-29,-68,9,0,29,48
9,19,9,-14,0,14,-29,-68,9,0,29,48
9,14,4,-12,2,9,-29,-68,9,0,29,48
9,9,0,-9,4,4,-29,-68,9,0,29,48
19,19,0,-19,9,9,-34,-68,0,-9,19,58
19,19,0,-19,9,9,-39,-68,0,-9,19,58
19,19,0,-19,9,9,-43,-68,0,-9,19,58
19,19,0,-19,9,9,-48,-68,0,-9,19,58
9,9,0,-9,4,4,-39,-58,0,-9,19,48
9,9,0,-9,4,4,-39,-58,0,-9,19,48
9,9,0,-9,4,4,-39,-58,0,-9,19,48
9,9,0,-9,4,4,-39,-58,0,-9,19,48
9,9,0,-9,4,4,-39,-58,0,-9,19,48
9,9,0,-9,4,4,-39,-58,0,-9,19,48
9,9,0,-9,4,4,-39,-58,0,-9,19,48
9,9,0,-9,4,4,-39,-58,0,-9,19,48
19,24,4,-21,7,14,-48,-48,0,0,29,58
29,29,0,-29,14,14,-48,-48,0,0,29,58
39,34,-4,-36,21,14,-48,-48,0,0,29,58
48,39,-9,-43,29,14,-48,-48,0,0,29,58
58,53,-4,-56,31,24,-48,-39,9,9,29,68
58,58,0,-58,29,29,-48,-39,9,9,29,68
58,63,4,-61,26,34,-48,-39,9,9,29,68
58,68,9,-63,24,39,-48,-39,9,9,29,68
68,78,9,-73,29,43,-58,-39,9,9,39,68
68,78,9,-73,29,43,-58,-39,9,9,39,68
68,78,9,-73,29,43,-58,-39,9,9,39,68
68,78,9,-73,29,43,-58,-39,9,9,39,68
63,73,9,-68,26,41,-53,-39,9,9,29,68
58,68,9,-63,24,39,-48,-39,9,9,29,68
53,63,9,-58,21,36,-43,-39,9,9,29,68
48,58,9,-53,19,34,-39,-39,9,9,29,68
43,53,9,-48,17,31,-43,-29,0,9,29,58
39,48,9,-43,14,29,-48,-29,0,9,29,58
34,43,9,-39,12,26,-53,-29,0,9,29,58
29,39,9,-34,9,24,-58,-29,0,9,29,58
29,29,0,-29,14,14,-48,-39,0,9,29,58
29,29,0,-29,14,14,-48,-39,0,9,29,58
29,29,0,-29,14,14,-48,-39,0,9,29,58
29,29,0,-29,14,14,-48,-39,0,9,29,58
34,34,0,-34,17,17,-39,-29,4,19,39,68
39,39,0,-39,19,19,-29,-19,9,19,39,68
43,43,0,-43,21,21,-19,-9,14,19,39,68
48,48,0,-48,24,24,-9,0,19,19,39,68
39,39,0,-39,19,19,-14,9,24,29,48,68
39,39,0,-39,19,19,-19,9,29,29,48,68
39,39,0,-39,19,19,-24,9,34,29,48,68
39,39,0,-39,19,19,-29,9,39,29,48,68
29,29,0,-29,14,14,-39,9,39,34,58,78
29,29,0,-29,14,14,-39,9,39,39,58,78
29,29,0,-29,14,14,-39,9,39,43,58,78
29,29,0,-29,14,14,-39,9,39,48,58,78
39,39,0,-39,19,19,-39,9,48,48,68,78
39,39,0,-39,19,19,-39,9,48,48,68,78
39,39,0,-39,19,19,-39,9,48,48,68,78
39,39,0,-39,19,19,-39,9,48,48,68,78
39,24,-14,-31,26,4,-29,19,48,48,58,87
39,19,-19,-29,29,0,-29,19,48,48,58,87
39,14,-24,-26,31,-4,-29,19,48,48,58,87
39,9,-29,-24,34,-9,-29,19,48,48,58,87
39,14,-24,-26,31,-4,-29,29,58,58,63,97
39,19,-19,-29,29,0,-29,29,58,58,68,97
39,24,-14,-31,26,4,-29,29,58,58,73,97
39,29,-9,-34,24,9,-29,29,58,58,78,97
24,24,0,-24,12,12,-43,29,48,48,68,87
19,19,0,-19,9,9,-48,29,48,48,68,87
14,14,0,-14,7,7,-63,24,43,48,58,82
4,0,-4,-2,4,-2,-73,9,39,43,58,82
9,-9,-19,0,14,-14,-78,0,24,34,53,78
9,-19,-29,4,19,-24,-92,-9,9,24,43,78
14,-24,-39,4,26,-31,-102,-24,4,24,39,73
24,-24,-48,0,36,-36,-117,-39,-4,19,34,68
39,-24,-63,-7,51,-43,-131,-53,-14,4,34,68
39,-24,-63,-7,51,-43,-136,-58,-14,4,34,68
48,-19,-68,-14,58,-43,-136,-58,-14,4,39,73
53,-19,-73,-17,63,-46,-141,-53,-9,9,39,73
48,-24,-73,-12,61,-48,-136,-39,-9,14,39,78
39,-29,-68,-4,53,-48,-131,-34,-9,14,39,78
29,-43,-73,7,51,-58,-131,-34,-9,14,39,73
24,-48,-73,12,48,-61,-131,-39,-14,9,39,73
14,-53,-68,19,41,-61,-141,-53,-14,4,34,73
9,-58,-68,24,39,-63,-141,-58,-14,-4,29,73
4,-58,-63,26,34,-61,-141,-68,-24,-4,24,73
-4,-63,-58,34,26,-61,-141,-73,-29,-9,24,63
-4,-58,-53,31,24,-56,-131,-78,-29,-14,19,63
-9,-58,-48,34,19,-53,-131,-78,-34,-14,14,63
-14,-63,-48,39,17,-56,-131,-82,-34,-14,14,58
-14,-63,-48,39,17,-56,-131,-82,-34,-14,14,58
-24,-73,-48,48,12,-61,-122,-78,-24,-19,14,58
-29,-73,-43,51,7,-58,-122,-78,-29,-19,14,58
-34,-73,-39,53,2,-56,-122,-78,-29,-19,14,53
-43,-73,-29,58,-7,-51,-122,-78,-29,-19,9,48
-53,-87,-34,70,-9,-61,-117,-82,-34,-24,4,43
-68,-92,-24,80,-21,-58,-112,-87,-39,-29,0,43
-73,-102,-29,87,-21,-65,-112,-87,-39,-34,-4,39
-82,-117,-34,100,-24,-75,-112,-87,-39,-39,-9,34
-87,-117,-29,102,-29,-73,-112,-87,-48,-39,-9,29
-92,-117,-24,104,-34,-70,-112,-87,-48,-39,-14,29
-97,-117,-19,107,-39,-68,-112,-92,-48,-39,-14,29
-102,-117,-14,109,-43,-65,-117,-97,-53,-43,-14,29
-102,-126,-24,114,-39,-75,-126,-87,-53,-43,-24,19
-102,-131,-29,117,-36,-80,-126,-87,-53,-43,-24,19
-107,-136,-29,122,-39,-82,-126,-87,-53,-39,-24,24
-107,-136,-29,122,-39,-82,-126,-87,-53,-39,-24,24
-107,-136,-29,122,-39,-82,-131,-92,-53,-39,-19,14
-112,-136,-24,124,-43,-80,-131,-92,-53,-39,-19,14
-117,-136,-19,126,-48,-78,-131,-92,-53,-39,-19,14
-122,-136,-14,129,-53,-75,-131,-92,-53,-39,-19,14
-117,-126,-9,122,-53,-68,-131,-92,-63,-39,-19,14
-112,-126,-14,119,-48,-70,-131,-92,-63,-39,-19,14
-107,-126,-19,117,-43,-73,-131,-92,-63,-39,-19,14
-107,-131,-24,119,-41,-78,-131,-92,-58,-39,-19,14
-117,-131,-14,124,-51,-73,-141,-92,-58,-39,-29,24
-117,-126,-9,122,-53,-68,-141,-92,-63,-39,-29,24
-117,-122,-4,119,-56,-63,-141,-92,-63,-39,-29,19
-117,-122,-4,119,-56,-63,-141,-92,-63,-39,-29,19
-107,-122,-14,114,-46,-68,-131,-102,-53,-48,-19,9
-107,-122,-14,114,-46,-68,-131,-102,-53,-48,-19,9
-107,-122,-14,114,-46,-68,-131,-102,-53,-48,-19,9
-107,-122,-14,114,-46,-68,-131,-102,-53,-48,-19,9
-117,-131,-14,124,-51,-73,-141,-97,-58,-39,-29,9
-117,-131,-14,124,-51,-73,-136,-97,-58,-39,-29,9
-122,-131,-9,126,-56,-70,-136,-97,-58,-39,-29,9
-122,-131,-9,126,-56,-70,-136,-102,-58,-39,-29,9
-122,-122,0,122,-61,-61,-151,-102,-63,-48,-24,9
-122,-122,0,122,-61,-61,-151,-102,-63,-48,-24,9
-122,-122,0,122,-61,-61,-146,-97,-63,-48,-24,9
-122,-117,4,119,-63,-56,-141,-97,-58,-43,-24,9
-131,-117,14,124,-73,-51,-141,-97,-58,-34,-24,9
-131,-117,14,124,-73,-51,-141,-97,-58,-34,-24,9
-131,-122,9,126,-70,-56,-141,-97,-58,-34,-24,9
-131,-122,9,126,-70,-56,-141,-97,-58,-34,-24,9
-131,-131,0,131,-65,-65,-141,-87,-68,-34,-24,0
-131,-131,0,131,-65,-65,-141,-87,-68,-34,-24,0
-131,-131,0,131,-65,-65,-141,-87,-68,-34,-29,0
-131,-131,0,131,-65,-65,-136,-82,-63,-34,-29,0
-136,-131,4,134,-70,-63,-136,-82,-53,-43,-29,-9
-146,-126,19,136,-82,-53,-131,-82,-48,-34,-19,4
-161,-126,34,143,-97,-46,-122,-73,-43,-34,-19,4
-185,-126,58,156,-122,-34,-97,-53,-34,-34,-29,0
-214,-117,97,165,-156,-9,-68,-39,-19,-34,-29,-4
-244,-107,136,175,-190,14,-34,-19,-14,-34,-29,-14
-268,-107,161,187,-214,26,4,14,9,-34,-34,-19
-287,-87,200,187,-244,56,48,63,39,-9,-34,-19
-307,-78,229,192,-268,75,87,136,78,14,-24,-19
-312,-68,244,190,-278,87,122,224,131,43,-9,-9
-312,-48,263,180,-287,107,161,317,190,92,14,0
-302,-34,268,168,-285,117,170,361,248,141,58,29
-283,0,283,141,-283,141,151,341,292,190,102,58
-253,34,287,109,-270,161,117,292,322,244,151,102
-190,68,258,61,-224,163,48,224,351,312,214,156
-73,107,180,-17,-126,143,-68,146,366,385,292,224
43,117,73,-80,-14,95,-200,58,366,444,361,273
180,117,-63,-148,122,26,-326,-4,366,517,429,326
336,136,-200,-236,268,-31,-463,-34,395,605,517,400
463,126,-336,-295,400,-104,-566,-53,424,688,600,468
541,126,-414,-334,478,-143,-663,-151,400,707,649,517
595,107,-488,-351,541,-190,-761,-341,268,639,639,531
605,19,-585,-312,595,-283,-858,-575,14,409,497,468
570,-107,-678,-231,624,-392,-917,-844,-322,78,278,336
483,-239,-722,-122,602,-480,-976,-1127,-644,-244,43,185
395,-361,-756,-17,575,-558,-1034,-1376,-897,-483,-146,63
317,-473,-790,78,553,-631,-1073,-1590,-1122,-707,-317,-63
219,-590,-810,185,514,-700,-1088,-1795,-1346,-936,-512,-200
122,-673,-795,275,458,-734,-1068,-1912,-1468,-1078,-629,-287
82,-692,-775,305,429,-734,-1049,-1903,-1464,-1088,-649,-302
48,-707,-756,329,402,-732,-1039,-1844,-1420,-1049,-639,-307
34,-717,-751,341,392,-734,-1015,-1766,-1371,-1024,-634,-317
24,-683,-707,329,366,-695,-976,-1659,-1293,-971,-610,-297
0,-649,-649,324,324,-649,-922,-1546,-1185,-902,-566,-283
-29,-610,-580,319,275,-595,-873,-1439,-1112,-839,-531,-273
-43,-566,-522,305,239,-544,-834,-1337,-1019,-780,-502,-258
-68,-517,-448,292,190,-483,-780,-1224,-922,-697,-458,-229
-78,-444,-366,261,143,-405,-707,-1088,-819,-605,-385,-175
-92,-390,-297,241,102,-344,-639,-941,-702,-507,-322,-136
-117,-356,-239,236,61,-297,-570,-800,-595,-429,-263,-102
-107,-307,-200,207,46,-253,-492,-668,-507,-356,-214,-78
-102,-283,-180,192,39,-231,-444,-566,-439,-312,-185,-63
-107,-273,-165,190,29,-219,-414,-492,-375,-273,-170,-63
-107,-244,-136,175,14,-190,-385,-424,-322,-244,-156,-63
-122,-229,-107,175,-7,-168,-336,-346,-263,-204,-136,-53
-136,-214,-78,175,-29,-146,-292,-273,-219,-165,-112,-43
-146,-224,-78,185,-34,-151,-258,-224,-180,-136,-87,-34
-161,-224,-63,192,-48,-143,-229,-185,-161,-112,-78,-29
-156,-214,-58,185,-48,-136,-214,-146,-141,-97,-63,-14
-165,-200,-34,183,-65,-117,-185,-112,-112,-82,-48,-9
-180,-209,-29,195,-75,-119,-175,-97,-102,-78,-53,-9
-175,-200,-24,187,-75,-112,-175,-82,-97,-68,-43,-4
-180,-190,-9,185,-85,-100,-165,-78,-87,-73,-53,-14
-195,-200,-4,197,-95,-102,-165,-68,-78,-63,-58,-24
-195,-195,0,195,-97,-97,-165,-58,-68,-58,-53,-24
-204,-200,4,202,-104,-97,-156,-53,-63,-53,-48,-19
-204,-195,9,200,-107,-92,-156,-48,-63,-48,-43,-14
-195,-180,14,187,-104,-82,-146,-34,-53,-43,-29,-4
-209,-185,24,197,-117,-80,-146,-34,-63,-43,-39,-4
-209,-185,24,197,-117,-80,-146,-29,-53,-43,-34,-9
-209,-185,24,197,-117,-80,-136,-24,-53,-39,-34,-9
-214,-190,24,202,-119,-82,-136,-14,-48,-34,-34,-9
-214,-190,24,202,-119,-82,-141,-14,-43,-39,-34,-9
-214,-185,29,200,-122,-78,-136,-9,-39,-34,-34,-9
-214,-185,29,200,-122,-78,-136,-9,-39,-34,-34,-9
-214,-175,39,195,-126,-68,-136,-4,-34,-34,-24,0
-224,-185,39,204,-131,-73,-126,9,-29,-29,-24,-9
-229,-190,39,209,-134,-75,-122,14,-29,-29,-29,-9
-229,-190,39,209,-134,-75,-122,14,-29,-29,-29,-9
-229,-185,43,207,-136,-70,-117,19,-24,-24,-29,-9
-229,-175,53,202,-141,-61,-126,9,-34,-24,-39,-9
-229,-175,53,202,-141,-61,-126,9,-29,-24,-39,-9
-234,-175,58,204,-146,-58,-126,14,-29,-19,-29,-9
-234,-175,58,204,-146,-58,-126,24,-29,-19,-29,-9
-229,-175,53,202,-141,-61,-126,24,-29,-29,-19,-9
-229,-175,53,202,-141,-61,-122,29,-29,-29,-19,-9
-229,-175,53,202,-141,-61,-117,34,-24,-24,-19,-9
-229,-175,53,202,-141,-61,-117,34,-24,-24,-24,-9
-234,-175,58,204,-146,-58,-117,34,-24,-24,-34,-9
-234,-175,58,204,-146,-58,-117,34,-19,-24,-24,-4
-234,-175,58,204,-146,-58,-117,34,-19,-24,-24,-4
-234,-170,63,202,-148,-53,-117,34,-14,-24,-29,-9
-229,-165,63,197,-146,-51,-117,48,-14,-19,-29,-9
-229,-165,63,197,-146,-51,-117,48,-9,-19,-24,-9
-234,-165,68,200,-151,-48,-117,53,-9,-19,-24,-9
-234,-165,68,200,-151,-48,-117,53,-9,-14,-24,-4
-234,-165,68,200,-151,-48,-107,53,-9,-14,-24,-4
-229,-165,63,197,-146,-51,-107,58,-9,-14,-24,-4
-229,-165,63,197,-146,-51,-107,58,-4,-19,-19,0
-229,-165,63,197,-146,-51,-107,63,-4,-19,-19,0
-224,-161,63,192,-143,-48,-107,68,-4,-24,-19,0
-224,-161,63,192,-143,-48,-107,68,-4,-24,-19,0
-224,-161,63,192,-143,-48,-102,68,-4,-24,-19,0
-224,-161,63,192,-143,-48,-97,73,-4,-19,-19,0
-214,-161,53,187,-134,-53,-97,73,0,-19,-19,0
-214,-161,53,187,-134,-53,-102,73,0,-19,-19,4
-214,-156,58,185,-136,-48,-102,78,0,-19,-19,4
-214,-156,58,185,-136,-48,-102,78,0,-19,-19,4
-214,-156,58,185,-136,-48,-102,92,0,-9,-19,14
-214,-156,58,185,-136,-48,-92,97,9,-4,-14,14
-214,-156,58,185,-136,-48,-92,97,9,-4,-9,14
-214,-156,58,185,-136,-48,-92,97,9,-4,-9,14
-204,-146,58,175,-131,-43,-92,107,14,-9,-9,4
-204,-146,58,175,-131,-43,-92,107,14,-9,-9,9
-209,-141,68,175,-139,-36,-92,112,14,-9,-9,9
-209,-141,68,175,-139,-36,-92,112,19,-9,-9,9
-209,-151,58,180,-134,-46,-92,122,29,0,-9,19
-195,-146,48,170,-122,-48,-92,126,29,0,-9,19
-195,-146,48,170,-122,-48,-87,126,29,0,-9,19
-195,-146,48,170,-122,-48,-87,131,29,4,-9,19
-185,-136,48,161,-117,-43,-78,136,29,-4,0,19
-190,-136,53,163,-122,-41,-78,136,29,-4,0,19
-190,-136,53,163,-122,-41,-78,141,34,-4,4,19
-190,-131,58,161,-124,-36,-78,141,39,0,9,19
-190,-131,58,161,-124,-36,-78,141,39,0,0,24
-190,-126,63,158,-126,-31,-73,146,39,4,0,24
-180,-126,53,153,-117,-36,-73,151,39,4,0,24
-175,-126,48,151,-112,-39,-73,156,43,4,0,24
-175,-117,58,146,-117,-29,-73,161,48,19,0,24
-175,-117,58,146,-117,-29,-73,165,48,19,0,29
-175,-117,58,146,-117,-29,-68,165,48,19,4,29
-170,-117,53,143,-112,-31,-68,165,53,24,4,34
-161,-117,43,139,-102,-36,-58,185,63,24,4,34
-161,-112,48,136,-104,-31,-58,185,63,24,9,34
-161,-107,53,134,-107,-26,-58,185,68,24,9,34
-161,-107,53,134,-107,-26,-58,195,68,29,14,34
-146,-102,43,124,-95,-29,-48,190,68,29,14,39
-146,-102,43,124,-95,-29,-43,195,68,34,14,43
-146,-102,43,124,-95,-29,-43,200,68,34,19,43
-146,-97,48,122,-97,-24,-43,204,68,39,19,43
-141,-97,43,119,-92,-26,-43,209,82,34,24,53
-136,-97,39,117,-87,-29,-43,219,87,39,24,53
-136,-87,48,112,-92,-19,-39,229,87,43,24,58
-131,-87,43,109,-87,-21,-39,239,92,43,29,63
-126,-78,48,102,-87,-14,-48,244,92,53,39,63
-117,-78,39,97,-78,-19,-48,248,97,53,43,63
-117,-82,34,100,-75,-24,-48,253,102,58,48,63
-112,-82,29,97,-70,-26,-48,258,107,68,48,68
-107,-58,48,82,-78,-4,-39,268,112,68,58,68
-102,-58,43,80,-73,-7,-39,273,117,68,58,73
-102,-58,43,80,-73,-7,-39,283,122,73,58,73
-97,-53,43,75,-70,-4,-39,292,122,78,63,78
-82,-53,29,68,-56,-12,-34,287,117,78,53,87
-78,-43,34,61,-56,-4,-34,292,122,87,63,87
-73,-43,29,58,-51,-7,-34,297,126,92,68,92
-68,-43,24,56,-46,-9,-34,307,131,97,73,97
-48,-34,14,41,-31,-9,-24,322,146,102,87,97
-43,-34,9,39,-26,-12,-24,336,151,107,92,97
-39,-29,9,34,-24,-9,-29,336,156,112,92,107
-34,-29,4,31,-19,-12,-29,351,156,117,97,112
-29,-19,9,24,-19,-4,-29,366,170,122,102,112
-24,-14,9,19,-17,-2,-24,370,175,126,107,117
-9,-14,-4,12,-2,-9,-24,380,180,131,112,122
-4,-14,-9,9,2,-12,-29,385,185,136,117,122
14,0,-14,-7,14,-7,-29,380,180,141,122,122
19,9,-9,-14,14,0,-34,395,185,151,126,131
24,14,-9,-19,17,2,-34,395,190,161,131,136
39,29,-9,-34,24,9,-29,409,195,161,136,141
39,29,-9,-34,24,9,-29,419,204,161,141,146
39,29,-9,-34,24,9,-29,429,209,170,146,151
58,39,-19,-48,39,9,-34,429,214,175,156,156
63,43,-19,-53,41,12,-34,439,219,180,156,156
68,48,-19,-58,43,14,-34,448,224,185,161,161
78,53,-24,-65,51,14,-39,453,229,195,165,165
78,53,-24,-65,51,14,-43,458,234,195,170,170
87,58,-29,-73,58,14,-43,463,239,200,175,175
97,53,-43,-75,70,4,-34,468,234,214,180,180
97,53,-43,-75,70,4,-34,468,239,219,185,185
107,63,-43,-85,75,9,-39,473,239,224,190,190
117,63,-53,-90,85,4,-43,478,239,229,195,195
117,73,-43,-95,80,14,-53,473,248,224,200,195
122,78,-43,-100,82,17,-53,473,258,229,204,200
122,78,-43,-100,82,17,-58,473,263,229,204,200
122,78,-43,-100,82,17,-58,473,263,234,209,200
126,78,-48,-102,87,14,-48,483,263,239,204,209
131,78,-53,-104,92,12,-48,478,263,244,209,214
131,78,-53,-104,92,12,-58,478,263,244,214,214
141,78,-63,-109,102,7,-58,478,263,248,214,214
131,78,-53,-104,92,12,-58,463,263,248,224,214
131,78,-53,-104,92,12,-58,448,258,248,224,214
126,78,-48,-102,87,14,-63,444,258,248,224,214
126,78,-48,-102,87,14,-63,434,258,248,219,214
117,78,-39,-97,78,19,-63,434,248,244,219,209
107,73,-34,-90,70,19,-63,419,244,244,219,209
107,73,-34,-90,70,19,-68,409,239,239,219,209
107,73,-34,-90,70,19,-68,400,229,234,209,204
97,68,-29,-82,63,19,-78,385,224,229,195,195
87,68,-19,-78,53,24,-73,375,219,219,190,190
82,58,-24,-70,53,17,-73,366,219,219,185,190
68,53,-14,-61,41,19,-73,356,214,214,180,185
58,43,-14,-51,36,14,-73,351,219,209,185,185
48,39,-9,-43,29,14,-73,336,214,200,180,180
39,34,-4,-36,21,14,-73,322,204,185,175,170
34,29,-4,-31,19,12,-73,312,200,175,165,165
29,34,4,-31,12,19,-68,297,190,175,161,161
19,29,9,-24,4,19,-68,283,180,161,151,156
9,19,9,-14,0,14,-68,273,175,161,146,151
0,9,9,-4,-4,9,-68,258,161,146,131,146
-14,-9,4,12,-9,-2,-68,244,146,141,131,141
-19,-14,4,17,-12,-4,-68,239,146,131,122,136
-29,-14,14,21,-21,0,-73,229,136,122,112,126
-39,-24,14,31,-26,-4,-73,219,126,117,107,122
-43,-24,19,34,-31,-2,-73,209,126,107,102,117
-53,-34,19,43,-36,-7,-78,200,126,97,97,112
-58,-43,14,51,-36,-14,-78,180,117,92,92,102
-68,-48,19,58,-43,-14,-78,170,107,92,78,97
-68,-43,24,56,-46,-9,-73,161,87,78,63,92
-68,-43,24,56,-46,-9,-73,151,87,78,58,92
-82,-53,29,68,-56,-12,-73,146,73,63,53,87
-87,-63,24,75,-56,-19,-73,136,73,58,48,78
-87,-73,14,80,-51,-29,-78,131,78,53,43,68
-92,-82,9,87,-51,-36,-78,122,73,48,34,63
-97,-82,14,90,-56,-34,-78,122,68,39,29,58
-97,-87,9,92,-53,-39,-73,117,63,39,29,53
-107,-82,24,95,-65,-29,-82,97,53,34,24,53
-107,-82,24,95,-65,-29,-82,92,48,24,19,48
-112,-87,24,100,-68,-31,-87,87,43,19,19,48
-117,-92,24,104,-70,-34,-87,82,43,19,14,43
-107,-102,4,104,-56,-48,-87,78,34,14,9,39
-107,-107,0,107,-53,-53,-92,78,29,9,4,39
-107,-107,0,107,-53,-53,-92,73,24,4,0,39
-107,-107,0,107,-53,-53,-92,68,24,0,-4,39
-122,-107,14,114,-68,-46,-87,63,19,0,4,43
-122,-107,14,114,-68,-46,-87,63,14,-4,4,43
-122,-107,14,114,-68,-46,-87,58,9,-4,4,39
-122,-117,4,119,-63,-56,-87,53,4,-9,0,39
-126,-117,9,122,-68,-53,-92,53,14,-4,0,34
-126,-117,9,122,-68,-53,-92,53,14,-4,-9,34
-126,-117,9,122,-68,-53,-92,43,14,-4,-9,34
-126,-117,9,122,-68,-53,-92,39,4,-4,-4,34
-126,-117,9,122,-68,-53,-102,39,4,-14,-4,29
-126,-117,9,122,-68,-53,-97,34,9,-19,-9,29
-126,-117,9,122,-68,-53,-97,34,9,-19,-9,29
-131,-117,14,124,-73,-51,-97,29,4,-24,-9,34
-131,-117,14,124,-73,-51,-97,29,4,-14,-9,34
-131,-117,14,124,-73,-51,-97,29,4,-9,-9,34
-131,-117,14,124,-73,-51,-97,29,4,-9,-9,29
-136,-112,24,124,-80,-43,-97,29,4,-9,-9,29
-136,-122,14,129,-75,-53,-87,39,4,-9,-9,19
-136,-126,9,131,-73,-58,-87,39,4,-9,-9,19
-136,-126,9,131,-73,-58,-87,39,4,-14,-9,19
-136,-122,14,129,-75,-53,-87,39,4,-14,-9,19
-136,-122,14,129,-75,-53,-87,29,4,-19,-9,29
-136,-122,14,129,-75,-53,-87,29,4,-19,-9,29
-136,-126,9,131,-73,-58,-87,24,4,-19,-9,24
-136,-126,9,131,-73,-58,-87,24,4,-19,-9,24
-136,-122,14,129,-75,-53,-78,29,4,-19,-9,24
-136,-122,14,129,-75,-53,-82,29,0,-19,-9,24
-136,-117,19,126,-78,-48,-87,24,0,-19,-14,24
-131,-117,14,124,-73,-51,-87,24,4,-19,-14,24
-131,-117,14,124,-73,-51,-82,29,4,-19,-14,24
-126,-117,9,122,-68,-53,-82,29,4,-19,-14,24
-126,-117,9,122,-68,-53,-82,29,4,-19,-14,24
-131,-117,14,124,-73,-51,-82,29,4,-19,-14,24
-131,-107,24,119,-78,-41,-92,29,4,-19,-14,24
-136,-112,24,124,-80,-43,-92,34,4,-19,-14,24
-146,-117,29,131,-87,-43,-92,34,4,-19,-14,24
-136,-117,19,126,-78,-48,-92,34,0,-19,-14,24
-126,-112,14,119,-70,-48,-82,29,9,-19,-14,24
-126,-112,14,119,-70,-48,-82,29,9,-14,-14,24
-131,-112,19,122,-75,-46,-82,34,9,-14,-14,24
-131,-112,19,122,-75,-46,-78,39,9,-19,-14,24
-141,-112,29,126,-85,-41,-87,39,0,-9,-14,14
-136,-112,24,124,-80,-43,-87,34,0,-4,-14,14
-136,-112,24,124,-80,-43,-87,34,4,-4,-9,19
-136,-112,24,124,-80,-43,-87,34,9,-4,-9,19
-141,-112,29,126,-85,-41,-78,34,9,-4,-9,9
-141,-112,29,126,-85,-41,-82,34,9,-4,-9,14
-141,-112,29,126,-85,-41,-82,34,9,-4,-4,14
-141,-112,29,126,-85,-41,-82,34,9,-4,-4,14
-131,-102,29,117,-80,-36,-78,34,9,-4,-14,19
-131,-102,29,117,-80,-36,-78,29,9,-4,-14,19
-131,-102,29,117,-80,-36,-82,29,9,-4,-14,24
-126,-97,29,112,-78,-34,-87,29,9,-4,-14,24
-126,-107,19,117,-73,-43,-78,29,19,-4,-4,24
-126,-107,19,117,-73,-43,-78,29,19,-4,-4,24
-126,-107,19,117,-73,-43,-78,29,19,-4,-4,24
-126,-107,19,117,-73,-43,-78,29,19,-4,-4,24
-126,-107,19,117,-73,-43,-78,29,9,-4,-4,14
-126,-102,24,114,-75,-39,-78,34,9,-4,-4,14
-126,-102,24,114,-75,-39,-78,34,9,-4,-4,14
-126,-102,24,114,-75,-39,-73,34,9,-4,-4,14
-126,-102,24,114,-75,-39,-82,34,19,4,-4,24
-126,-107,19,117,-73,-43,-78,39,19,4,-4,24
-126,-107,19,117,-73,-43,-78,39,19,4,-4,24
-126,-102,24,114,-75,-39,-78,39,19,4,-4,24
-126,-102,24,114,-75,-39,-82,39,19,-4,-4,14
-122,-102,19,112,-70,-41,-82,34,19,-4,-4,14
-117,-102,14,109,-65,-43,-82,29,19,-4,-4,14
-117,-102,14,109,-65,-43,-82,29,19,-4,-4,14
-126,-92,34,109,-80,-29,-87,29,19,4,4,14
-126,-97,29,112,-78,-34,-82,29,19,4,0,14
-126,-97,29,112,-78,-34,-73,34,19,4,0,14
-126,-97,29,112,-78,-34,-68,34,14,4,0,14
-117,-102,14,109,-65,-43,-78,34,14,-4,-9,14
-117,-102,14,109,-65,-43,-78,34,19,-4,-9,14
-117,-102,14,109,-65,-43,-78,34,19,-4,-9,14
-117,-102,14,109,-65,-43,-78,34,19,-4,-9,14
-117,-102,14,109,-65,-43,-68,43,19,4,0,14
-117,-102,14,109,-65,-43,-68,43,19,4,0,14
-117,-102,14,109,-65,-43,-68,43,19,4,0,14
-117,-102,14,109,-65,-43,-68,43,19,4,0,14
-117,-102,14,109,-65,-43,-78,34,19,4,0,14
-117,-102,14,109,-65,-43,-78,34,19,4,0,14
-112,-102,9,107,-61,-46,-78,34,19,4,0,14
-112,-102,9,107,-61,-46,-78,29,19,4,0,14
-107,-102,4,104,-56,-48,-73,29,19,4,-4,14
-107,-102,4,104,-56,-48,-73,29,19,0,-4,14
-107,-102,4,104,-56,-48,-68,29,19,0,-4,14
-107,-102,4,104,-56,-48,-68,29,19,4,-4,14
-117,-102,14,109,-65,-43,-68,29,19,4,4,14
-117,-102,14,109,-65,-43,-68,29,19,4,0,14
-117,-102,14,109,-65,-43,-68,29,14,0,0,14
-117,-102,14,109,-65,-43,-73,29,14,0,0,14
-107,-102,4,104,-56,-48,-73,34,14,-4,-9,9
-107,-102,4,104,-56,-48,-68,34,14,-4,-9,9
-107,-102,4,104,-56,-48,-68,34,14,0,-4,9
-107,-102,4,104,-56,-48,-68,34,9,0,-4,9
-107,-102,4,104,-56,-48,-68,24,9,0,0,9
-107,-107,0,107,-53,-53,-68,29,9,0,0,14
-107,-107,0,107,-53,-53,-68,29,4,-4,-4,14
-107,-107,0,107,-53,-53,-73,29,4,-4,-9,9
-107,-107,0,107,-53,-53,-73,29,4,0,-19,9
-107,-107,0,107,-53,-53,-73,29,4,-4,-19,4
-107,-107,0,107,-53,-53,-73,24,4,-4,-19,4
-107,-112,-4,109,-51,-58,-73,24,4,0,-19,4
-107,-102,4,104,-56,-48,-68,14,14,0,-14,4
-107,-102,4,104,-56,-48,-68,14,14,0,-14,4
-107,-107,0,107,-53,-53,-78,14,9,-4,-19,0
-107,-107,0,107,-53,-53,-78,14,9,-9,-19,0
-112,-107,4,109,-58,-51,-78,19,0,-9,-9,-9
-112,-107,4,109,-58,-51,-78,19,0,-9,-14,-9
-112,-107,4,109,-58,-51,-78,19,0,-9,-14,-9
-112,-107,4,109,-58,-51,-78,19,0,-9,-14,-9
-107,-107,0,107,-53,-53,-78,19,4,-9,-14,-9
-107,-107,0,107,-53,-53,-78,14,4,-9,-14,-14
-107,-107,0,107,-53,-53,-78,14,4,-14,-14,-14
-107,-107,0,107,-53,-53,-78,14,0,-14,-19,-9
-97,-107,-9,102,-43,-58,-68,14,0,-14,-19,-19
-102,-107,-4,104,-48,-56,-73,9,0,-14,-19,-19
-102,-107,-4,104,-48,-56,-73,9,0,-14,-19,-19
-102,-107,-4,104,-48,-56,-73,9,0,-14,-19,-24
-117,-112,4,114,-61,-53,-73,4,9,-14,-19,-24
-117,-112,4,114,-61,-53,-68,4,4,-14,-19,-24
-112,-112,0,112,-56,-56,-68,4,4,-14,-19,-24
-112,-112,0,112,-56,-56,-68,4,4,-19,-24,-24
-112,-102,9,107,-61,-46,-78,4,-4,-9,-24,-24
-112,-102,9,107,-61,-46,-78,4,-4,-14,-24,-24
-112,-102,9,107,-61,-46,-78,4,-4,-14,-24,-24
-112,-102,9,107,-61,-46,-78,0,-9,-14,-24,-24
-112,-102,9,107,-61,-46,-78,0,0,-14,-24,-29
-112,-102,9,107,-61,-46,-78,0,0,-14,-24,-29
-112,-102,9,107,-61,-46,-78,0,0,-14,-24,-29
-117,-102,14,109,-65,-43,-78,0,0,-14,-24,-29
-107,-102,4,104,-56,-48,-73,-4,-9,-24,-24,-29
-107,-102,4,104,-56,-48,-73,-4,-9,-24,-24,-29
-107,-102,4,104,-56,-48,-73,-4,-9,-24,-24,-29
-107,-102,4,104,-56,-48,-73,-4,-9,-24,-24,-24
-117,-112,4,114,-61,-53,-78,-4,-4,-14,-29,-24
-117,-112,4,114,-61,-53,-78,-4,-4,-14,-29,-29
-117,-112,4,114,-61,-53,-78,-9,-4,-14,-29,-29
-117,-122,-4,119,-56,-63,-78,-9,-4,-14,-29,-29
-107,-122,-14,114,-46,-68,-78,0,-9,-19,-29,-29
-107,-117,-9,112,-48,-63,-73,0,-9,-19,-24,-29
-107,-117,-9,112,-48,-63,-73,0,-9,-19,-24,-29
-107,-117,-9,112,-48,-63,-73,0,-9,-14,-29,-29
-107,-117,-9,112,-48,-63,-73,-9,-4,-14,-29,-34
-107,-117,-9,112,-48,-63,-73,-9,-4,-19,-24,-34
-107,-117,-9,112,-48,-63,-73,-9,-4,-19,-24,-34
-107,-117,-9,112,-48,-63,-73,-9,-4,-19,-24,-34
-107,-107,0,107,-53,-53,-73,-9,-4,-19,-24,-24
-107,-107,0,107,-53,-53,-73,-9,-4,-14,-24,-24
-107,-112,-4,109,-51,-58,-73,-9,-9,-14,-24,-24
-107,-112,-4,109,-51,-58,-73,-9,-9,-14,-24,-24
-107,-102,4,104,-56,-48,-73,-4,-19,-14,-24,-29
-112,-102,9,107,-61,-46,-73,-4,-14,-14,-24,-29
-112,-102,9,107,-61,-46,-73,-9,-14,-14,-24,-29
-112,-102,9,107,-61,-46,-73,-14,-14,-19,-24,-34
-112,-112,0,112,-56,-56,-73,-14,-4,-19,-19,-34
-112,-112,0,112,-56,-56,-73,-9,-9,-14,-19,-29
-112,-112,0,112,-56,-56,-73,-9,-9,-14,-19,-29
-112,-112,0,112,-56,-56,-73,-14,-9,-14,-19,-34
-112,-102,9,107,-61,-46,-73,-4,-4,-24,-29,-34
-112,-102,9,107,-61,-46,-73,-4,-4,-24,-29,-29
-112,-102,9,107,-61,-46,-73,-4,-4,-29,-29,-29
-112,-102,9,107,-61,-46,-73,0,-4,-29,-29,-29
-102,-112,-9,107,-46,-61,-73,-9,-4,-19,-19,-39
-102,-112,-9,107,-46,-61,-78,-9,-4,-19,-24,-39
-102,-112,-9,107,-46,-61,-78,-14,-9,-19,-24,-34
-102,-112,-9,107,-46,-61,-78,-14,-9,-19,-19,-34
-97,-107,-9,102,-43,-58,-68,-4,-4,-19,-24,-24
-107,-107,0,107,-53,-53,-68,-9,-9,-19,-19,-29
-107,-107,0,107,-53,-53,-68,-9,-9,-19,-19,-29
-107,-107,0,107,-53,-53,-68,-9,-9,-19,-19,-29
-107,-107,0,107,-53,-53,-68,-9,-9,-19,-19,-29
-107,-107,0,107,-53,-53,-68,-9,-9,-19,-19,-29
-107,-97,9,102,-58,-43,-78,-9,-9,-19,-19,-29
-107,-97,9,102,-58,-43,-78,-9,-9,-19,-19,-29
-107,-97,9,102,-58,-43,-78,-9,-9,-19,-19,-29
-107,-97,9,102,-58,-43,-78,-9,-9,-19,-19,-29
-107,-97,9,102,-58,-43,-68,-9,-9,-19,-19,-29
-107,-97,9,102,-58,-43,-68,-9,-9,-19,-19,-29
-107,-97,9,102,-58,-43,-68,-9,-9,-19,-19,-29
-107,-97,9,102,-58,-43,-68,-9,-9,-19,-19,-29
-97,-97,0,97,-48,-48,-68,-9,-9,-19,-19,-29
-97,-97,0,97,-48,-48,-68,-9,-9,-19,-19,-29
-97,-97,0,97,-48,-48,-68,-9,-9,-19,-19,-29
-97,-97,0,97,-48,-48,-68,-9,-9,-19,-19,-29
-107,-97,9,102,-58,-43,-68,-9,-9,-19,-29,-29
-107,-97,9,102,-58,-43,-68,-9,-9,-19,-29,-29
-107,-97,9,102,-58,-43,-68,-9,-9,-19,-29,-29
-107,-97,9,102,-58,-43,-68,-9,-9,-19,-29,-29
-97,-97,0,97,-48,-48,-68,-9,-9,-19,-19,-29
-97,-97,0,97,-48,-48,-68,-9,-9,-19,-19,-29
-97,-97,0,97,-48,-48,-68,-9,-9,-19,-19,-29
-97,-97,0,97,-48,-48,-68,-9,-9,-19,-19,-29
-97,-97,0,97,-48,-48,-68,-9,-19,-19,-29,-19
-97,-97,0,97,-48,-48,-68,-9,-19,-19,-29,-19
-97,-97,0,97,-48,-48,-68,-9,-19,-19,-29,-19
-97,-97,0,97,-48,-48,-68,-9,-19,-19,-29,-19
-97,-97,0,97,-48,-48,-68,-9,-9,-19,-19,-9
-97,-97,0,97,-48,-48,-68,-9,-9,-19,-19,-9
-97,-97,0,97,-48,-48,-68,-9,-9,-19,-19,-9
-97,-97,0,97,-48,-48,-68,-9,-9,-19,-19,-9
-97,-87,9,92,-53,-39,-68,-9,-9,-19,-19,-9
-97,-87,9,92,-53,-39,-68,-9,-9,-19,-19,-9
-97,-87,9,92,-53,-39,-68,-9,-9,-19,-19,-9
-97,-87,9,92,-53,-39,-68,-9,-9,-19,-19,-9
-97,-97,0,97,-48,-48,-68,-9,-9,-19,-19,-9
-97,-97,0,97,-48,-48,-68,-9,-9,-19,-19,-9
-97,-97,0,97,-48,-48,-68,-9,-9,-19,-19,-9
-97,-97,0,97,-48,-48,-68,-9,-9,-19,-19,-9
-97,-87,9,92,-53,-39,-68,-9,-9,-9,-19,0
-97,-87,9,92,-53,-39,-68,-9,-9,-9,-19,0
-97,-87,9,92,-53,-39,-68,-9,-9,-9,-19,0
-97,-87,9,92,-53,-39,-68,-9,-9,-9,-19,0
-97,-87,9,92,-53,-39,-68,-9,-9,-19,-19,-9
-97,-87,9,92,-53,-39,-68,-9,-9,-19,-19,-9
-97,-87,9,92,-53,-39,-68,-9,-9,-19,-19,-9
-97,-87,9,92,-53,-39,-68,-9,-9,-19,-19,-9
-97,-97,0,97,-48,-48,-68,-9,-9,-19,-19,0
-97,-97,0,97,-48,-48,-68,-9,-9,-19,-19,0
-97,-97,0,97,-48,-48,-68,-9,-9,-19,-19,0
-97,-97,0,97,-48,-48,-68,-9,-9,-19,-19,0
-87,-87,0,87,-43,-43,-68,-9,-9,-19,-19,0
-87,-87,0,87,-43,-43,-68,-9,-9,-19,-19,0
-87,-87,0,87,-43,-43,-68,-9,-9,-19,-19,0
-87,-87,0,87,-43,-43,-68,-9,-9,-19,-19,0
-97,-97,0,97,-48,-48,-68,-9,-9,-19,-19,0
-97,-97,0,97,-48,-48,-68,-9,-9,-19,-19,0
-97,-97,0,97,-48,-48,-68,-9,-9,-19,-19,0
-97,-97,0,97,-48,-48,-68,-9,-9,-19,-19,0
-97,-87,9,92,-53,-39,-58,-9,-9,-9,-19,0
-97,-87,9,92,-53,-39,-58,-9,-9,-9,-19,0
-97,-87,9,92,-53,-39,-58,-9,-9,-9,-19,0
-97,-87,9,92,-53,-39,-58,-9,-9,-9,-19,0
-97,-87,9,92,-53,-39,-68,-9,-9,-19,-19,-9
-97,-87,9,92,-53,-39,-68,-9,-9,-19,-19,-9
-97,-87,9,92,-53,-39,-68,-9,-9,-19,-19,-9
-97,-87,9,92,-53,-39,-68,-9,-9,-19,-19,-9
-87,-87,0,87,-43,-43,-68,-19,-9,-19,-19,-9
-87,-87,0,87,-43,-43,-68,-19,-9,-19,-19,-9
-87,-87,0,87,-43,-43,-68,-19,-9,-19,-19,-9
-87,-87,0,87,-43,-43,-68,-19,-9,-19,-19,-9
-87,-87,0,87,-43,-43,-58,-9,-9,-19,-29,-9
-87,-87,0,87,-43,-43,-58,-9,-9,-19,-29,-9
-87,-87,0,87,-43,-43,-58,-9,-9,-19,-29,-9
-87,-87,0,87,-43,-43,-58,-9,-9,-19,-29,-9
-87,-87,0,87,-43,-43,-58,-9,-9,-19,-19,0
-87,-87,0,87,-43,-43,-58,-9,-9,-19,-19,0
-87,-87,0,87,-43,-43,-58,-9,-9,-19,-19,0
-87,-87,0,87,-43,-43,-58,-9,-9,-19,-19,0
-87,-87,0,87,-43,-43,-58,-9,-9,-19,-29,-9
-87,-87,0,87,-43,-43,-58,-9,-9,-19,-29,-9
-87,-87,0,87,-43,-43,-58,-9,-9,-19,-29,-9
-87,-87,0,87,-43,-43,-58,-9,-9,-19,-29,-9
-87,-87,0,87,-43,-43,-68,-9,-9,-9,-19,0
-87,-87,0,87,-43,-43,-68,-9,-9,-9,-19,0
-87,-87,0,87,-43,-43,-68,-9,-9,-9,-19,0
-87,-87,0,87,-43,-43,-68,-9,-9,-9,-19,0
-87,-87,0,87,-43,-43,-68,-9,-9,-9,-29,0
-87,-87,0,87,-43,-43,-68,-9,-9,-9,-29,0
-87,-87,0,87,-43,-43,-68,-9,-9,-9,-29,0
-87,-87,0,87,-43,-43,-68,-9,-9,-9,-29,0
-87,-78,9,82,-48,-34,-68,-9,-9,-19,-19,0
-87,-78,9,82,-48,-34,-68,-9,-9,-19,-19,0
-87,-78,9,82,-48,-34,-68,-9,-9,-19,-19,0
-87,-78,9,82,-48,-34,-68,-9,-9,-19,-19,0
-78,-78,0,78,-39,-39,-58,-9,-9,-19,-19,0
-78,-78,0,78,-39,-39,-58,-9,-9,-19,-19,0
-78,-78,0,78,-39,-39,-58,-9,-9,-19,-19,0
-78,-78,0,78,-39,-39,-58,-9,-9,-19,-19,0
-87,-78,9,82,-48,-34,-58,-9,-9,-9,-19,0
-87,-78,9,82,-48,-34,-58,-9,-9,-9,-19,0
-87,-78,9,82,-48,-34,-58,-9,-9,-9,-19,0
-87,-78,9,82,-48,-34,-58,-9,-9,-9,-19,0
-78,-78,0,78,-39,-39,-58,-9,-9,-9,-19,0
-78,-78,0,78,-39,-39,-58,-9,-9,-9,-19,0
-78,-78,0,78,-39,-39,-58,-9,-9,-9,-19,0
-78,-78,0,78,-39,-39,-58,-9,-9,-9,-19,0
-78,-87,-9,82,-34,-48,-58,-9,-9,-9,-19,0
-78,-87,-9,82,-34,-48,-58,-9,-9,-9,-19,0
-78,-87,-9,82,-34,-48,-58,-9,-9,-9,-19,0
-78,-87,-9,82,-34,-48,-58,-9,-9,-9,-19,0
-78,-78,0,78,-39,-39,-58,-9,-9,-9,-19,0
-78,-78,0,78,-39,-39,-58,-9,-9,-9,-19,0
-78,-78,0,78,-39,-39,-58,-9,-9,-9,-19,0
-78,-78,0,78,-39,-39,-58,-9,-9,-9,-19,0
-78,-78,0,78,-39,-39,-58,-19,-9,0,-19,0
-78,-78,0,78,-39,-39,-58,-19,-9,0,-19,0
-78,-78,0,78,-39,-39,-58,-19,-9,0,-19,0
-78,-78,0,78,-39,-39,-58,-19,-9,0,-19,0
-78,-78,0,78,-39,-39,-48,-19,-9,-9,-19,0
-78,-78,0,78,-39,-39,-48,-19,-9,-9,-19,0
-78,-78,0,78,-39,-39,-48,-19,-9,-9,-19,0
-78,-78,0,78,-39,-39,-48,-19,-9,-9,-19,0
-78,-78,0,78,-39,-39,-58,-19,-9,-9,-19,0
-78,-78,0,78,-39,-39,-58,-19,-9,-9,-19,0
-78,-78,0,78,-39,-39,-58,-19,-9,-9,-19,0
-78,-78,0,78,-39,-39,-58,-19,-9,-9,-19,0
-78,-78,0,78,-39,-39,-58,-19,-9,-9,-19,0
-78,-78,0,78,-39,-39,-58,-19,-9,-9,-19,0
-78,-78,0,78,-39,-39,-58,-19,-9,-9,-19,0
-78,-78,0,78,-39,-39,-58,-19,-9,-9,-19,0
-78,-78,0,78,-39,-39,-48,-19,-9,-9,-19,0
-78,-78,0,78,-39,-39,-48,-19,-9,-9,-19,0
-78,-78,0,78,-39,-39,-48,-19,-9,-9,-19,0
-78,-78,0,78,-39,-39,-48,-19,-9,-9,-19,0
-78,-78,0,78,-39,-39,-48,-9,-9,-9,-19,9
-78,-78,0,78,-39,-39,-48,-9,-9,-9,-19,9
-78,-78,0,78,-39,-39,-48,-9,-9,-9,-19,9
-78,-78,0,78,-39,-39,-48,-9,-9,-9,-19,9
-68,-78,-9,73,-29,-43,-48,-19,-9,-9,-19,0
-68,-78,-9,73,-29,-43,-48,-19,-9,-9,-19,0
-68,-78,-9,73,-29,-43,-48,-19,-9,-9,-19,0
-68,-78,-9,73,-29,-43,-48,-19,-9,-9,-19,0
-68,-78,-9,73,-29,-43,-48,-19,-9,-9,-19,0
-68,-78,-9,73,-29,-43,-48,-19,-9,-9,-19,0
-68,-78,-9,73,-29,-43,-48,-19,-9,-9,-19,0
-68,-78,-9,73,-29,-43,-48,-19,-9,-9,-19,0
-68,-78,-9,73,-29,-43,-48,-19,-9,-9,-19,0
-68,-78,-9,73,-29,-43,-48,-19,-9,-9,-19,0
-68,-78,-9,73,-29,-43,-48,-19,-9,-9,-19,0
-68,-78,-9,73,-29,-43,-48,-19,-9,-9,-19,0
-68,-78,-9,73,-29,-43,-48,-9,-9,0,-19,0
-68,-78,-9,73,-29,-43,-48,-9,-9,0,-19,0
-68,-78,-9,73,-29,-43,-48,-9,-9,0,-19,0
-68,-78,-9,73,-29,-43,-48,-9,-9,0,-19,0
-68,-68,0,68,-34,-34,-48,-9,0,0,-19,9
-68,-68,0,68,-34,-34,-48,-9,0,0,-19,9
-68,-68,0,68,-34,-34,-48,-9,0,0,-19,9
-68,-68,0,68,-34,-34,-48,-9,0,0,-19,9
-58,-63,-4,61,-26,-34,-43,0,9,9,-9,19
-58,-58,0,58,-29,-29,-39,0,9,9,-9,19
-58,-53,4,56,-31,-24,-34,0,9,9,-9,19
-58,-48,9,53,-34,-19,-29,0,9,9,-9,19
-48,-43,4,46,-26,-19,-24,14,14,19,0,19
-48,-39,9,43,-29,-14,-19,19,19,19,0,19
-48,-34,14,41,-31,-9,-14,24,24,19,0,19
-48,-29,19,39,-34,-4,-9,29,29,19,0,19
-43,-19,24,31,-34,2,-9,39,39,24,9,29
-39,-19,19,29,-29,0,-9,39,39,29,9,29
-34,-19,14,26,-24,-2,-9,39,39,34,9,29
-29,-19,9,24,-19,-4,-9,39,39,39,9,29
-19,-29,-9,24,-4,-19,-19,29,29,29,9,29
-19,-29,-9,24,-4,-19,-19,29,29,29,9,29
-19,-29,-9,24,-4,-19,-19,29,29,29,9,29
-19,-29,-9,24,-4,-19,-19,29,29,29,9,29
-9,-19,-9,14,0,-14,-19,34,39,39,19,39
-9,-19,-9,14,0,-14,-19,39,39,39,19,39
-9,-19,-9,14,0,-14,-19,43,39,39,19,39
-9,-19,-9,14,0,-14,-19,48,39,39,19,39
-4,-4,0,4,-2,-2,-9,53,53,43,24,43
0,0,0,0,0,0,-9,58,58,48,29,48
4,4,0,-4,2,2,-9,63,63,53,34,53
9,9,0,-9,4,4,-9,68,68,58,39,58
9,19,9,-14,0,14,-19,63,58,58,48,58
9,19,9,-14,0,14,-29,53,53,58,39,53
4,9,4,-7,0,7,-34,34,48,53,39,53
4,0,-4,-2,4,-2,-48,9,34,43,34,48
9,-19,-29,4,19,-24,-63,0,19,29,14,48
9,-24,-34,7,21,-29,-73,-14,14,24,9,43
14,-24,-39,4,26,-31,-87,-29,4,14,4,39
19,-29,-48,4,34,-39,-87,-29,4,4,4,39
19,-24,-43,2,31,-34,-87,-19,4,14,14,39
29,-24,-53,-2,41,-39,-82,-14,4,14,19,43
34,-29,-63,-2,48,-46,-82,-4,9,19,19,43
34,-29,-63,-2,48,-46,-78,0,19,24,19,48
29,-29,-58,0,43,-43,-73,4,19,24,19,48
24,-39,-63,7,43,-51,-73,4,19,24,19,43
24,-39,-63,7,43,-51,-73,0,14,19,19,43
24,-43,-68,9,46,-56,-73,-4,4,14,14,34
9,-48,-58,19,34,-53,-73,-9,-4,4,0,34
4,-48,-53,21,29,-51,-73,-19,-14,4,-4,34
-4,-53,-48,29,21,-51,-73,-24,-19,0,-4,24
-14,-58,-43,36,14,-51,-73,-29,-19,-4,-9,24
-19,-58,-39,39,9,-48,-73,-39,-14,-4,-14,24
-24,-63,-39,43,7,-51,-73,-43,-14,-4,-14,19
-24,-63,-39,43,7,-51,-73,-43,-14,-4,-14,19
-24,-63,-39,43,7,-51,-73,-39,-14,-9,-14,19
-29,-63,-34,46,2,-48,-73,-39,-19,-9,-14,19
-34,-63,-29,48,-2,-46,-73,-39,-19,-9,-14,14
-43,-63,-19,53,-12,-41,-73,-39,-19,-9,-19,9
-53,-73,-19,63,-17,-46,-68,-43,-24,-14,-24,4
-68,-73,-4,70,-31,-39,-63,-48,-29,-19,-29,4
-73,-78,-4,75,-34,-41,-63,-48,-29,-24,-34,0
-82,-87,-4,85,-39,-46,-63,-48,-29,-29,-39,-4
-82,-87,-4,85,-39,-46,-63,-48,-29,-29,-39,-9
-73,-87,-14,80,-29,-51,-63,-48,-29,-29,-43,-9
-73,-87,-14,80,-29,-51,-63,-53,-29,-29,-43,-9
-73,-87,-14,80,-29,-51,-68,-58,-34,-34,-43,-9
-73,-92,-19,82,-26,-56,-68,-58,-34,-34,-43,-9
-73,-82,-9,78,-31,-46,-58,-58,-34,-34,-43,-9
-78,-82,-4,80,-36,-43,-58,-58,-34,-29,-43,-4
-78,-78,0,78,-39,-39,-58,-58,-34,-29,-43,-4
-73,-78,-4,75,-34,-41,-53,-53,-34,-29,-39,-4
-73,-87,-14,80,-29,-51,-63,-53,-43,-39,-39,-4
-73,-87,-14,80,-29,-51,-63,-53,-43,-39,-39,-4
-73,-87,-14,80,-29,-51,-63,-53,-43,-39,-39,-4
-73,-87,-14,80,-29,-51,-63,-53,-43,-39,-39,-4
-73,-78,-4,75,-34,-41,-53,-53,-34,-29,-39,-4
-73,-78,-4,75,-34,-41,-53,-53,-34,-29,-39,-4
-78,-82,-4,80,-36,-43,-53,-53,-29,-29,-39,-4
-78,-82,-4,80,-36,-43,-53,-53,-29,-29,-39,-4
-78,-87,-9,82,-34,-48,-63,-53,-34,-29,-48,-4
-78,-82,-4,80,-36,-43,-63,-53,-34,-29,-48,-9
-78,-82,-4,80,-36,-43,-63,-53,-34,-29,-48,-9
-78,-82,-4,80,-36,-43,-63,-53,-34,-29,-48,-9
-78,-82,-4,80,-36,-43,-53,-53,-34,-29,-39,-9
-78,-82,-4,80,-36,-43,-53,-53,-34,-29,-39,-9
-78,-82,-4,80,-36,-43,-53,-53,-34,-29,-39,-9
-78,-82,-4,80,-36,-43,-53,-48,-29,-29,-39,-9
-78,-73,4,75,-41,-34,-58,-48,-29,-29,-39,-9
-82,-73,9,78,-46,-31,-58,-48,-29,-29,-39,-9
-82,-73,9,78,-46,-31,-58,-53,-29,-29,-39,-9
-82,-73,9,78,-46,-31,-63,-53,-34,-29,-34,-9
-82,-73,9,78,-46,-31,-63,-53,-43,-29,-43,0
-82,-73,9,78,-46,-31,-58,-48,-43,-29,-43,0
-82,-68,14,75,-48,-26,-53,-48,-39,-24,-43,0
-82,-68,14,75,-48,-26,-53,-48,-39,-24,-43,0
-73,-68,4,70,-39,-31,-53,-48,-29,-24,-34,-9
-73,-73,0,73,-36,-36,-53,-48,-29,-24,-34,-9
-73,-73,0,73,-36,-36,-53,-48,-29,-24,-34,-9
-73,-73,0,73,-36,-36,-53,-48,-29,-24,-34,-9
-82,-63,19,73,-51,-21,-43,-39,-39,-24,-34,-9
-82,-63,19,73,-51,-21,-43,-39,-39,-24,-39,-9
-82,-63,19,73,-51,-21,-39,-34,-34,-24,-39,-9
-87,-63,24,75,-56,-19,-29,-34,-34,-24,-39,-9
-87,-58,29,73,-58,-14,-24,-24,-19,-24,-39,-4
-102,-39,63,70,-82,12,-4,-24,-14,-24,-39,-4
-136,-39,97,87,-117,29,9,-4,-4,-14,-48,-9
-156,-29,126,92,-141,48,39,19,19,-14,-48,-14
-175,-19,156,97,-165,68,82,48,24,-14,-58,-24
-200,-19,180,109,-190,80,112,92,48,-14,-63,-29
-209,9,219,100,-214,114,156,151,78,0,-53,-19
-229,19,248,104,-239,134,204,224,126,34,-43,-19
-234,39,273,97,-253,156,248,322,190,73,-19,0
-224,58,283,82,-253,170,287,414,248,122,14,9
-214,63,278,75,-246,170,297,458,307,180,58,39
-195,97,292,48,-244,195,287,439,351,229,102,68
-165,131,297,17,-231,214,244,380,390,283,161,112
-92,165,258,-36,-175,212,165,292,400,341,224,165
34,195,161,-114,-63,178,39,185,395,405,292,234
161,214,53,-187,53,134,-82,97,385,463,361,292
307,224,-82,-265,195,70,-219,24,405,546,448,356
473,234,-239,-353,356,-2,-356,-14,434,644,536,429
590,224,-366,-407,478,-70,-458,-43,444,717,619,497
649,224,-424,-436,536,-100,-556,-161,400,717,649,546
683,204,-478,-444,580,-136,-653,-370,248,610,600,541
663,107,-556,-385,610,-224,-722,-624,-24,341,429,448
590,-19,-610,-285,600,-314,-751,-863,-351,0,200,297
502,-131,-634,-185,568,-383,-771,-1088,-624,-283,-14,165
424,-234,-658,-95,541,-446,-819,-1317,-849,-502,-175,53
336,-336,-673,0,505,-505,-868,-1551,-1083,-727,-366,-73
229,-463,-692,117,461,-578,-893,-1766,-1307,-946,-541,-200
141,-536,-678,197,409,-607,-893,-1854,-1410,-1049,-629,-268
122,-556,-678,217,400,-617,-873,-1805,-1385,-1039,-639,-283
97,-561,-658,231,378,-610,-854,-1727,-1342,-1010,-639,-297
92,-561,-653,234,373,-607,-829,-1659,-1293,-985,-624,-297
82,-527,-610,222,346,-568,-771,-1551,-1205,-932,-590,-278
58,-492,-551,217,305,-522,-707,-1420,-1107,-863,-556,-263
39,-453,-492,207,265,-473,-668,-1322,-1024,-800,-531,-253
24,-400,-424,187,224,-412,-629,-1229,-941,-732,-492,-239
0,-361,-361,180,180,-361,-585,-1127,-844,-649,-439,-200
-9,-297,-287,153,139,-292,-531,-990,-732,-556,-375,-156
-14,-244,-229,129,107,-236,-463,-844,-614,-468,-312,-117
-29,-200,-170,114,70,-185,-395,-712,-517,-380,-263,-82
-9,-170,-161,90,75,-165,-346,-600,-448,-326,-214,-68
4,-156,-161,75,82,-158,-297,-507,-390,-292,-195,-53
9,-136,-146,63,78,-141,-258,-424,-336,-263,-180,-53
9,-107,-117,48,63,-112,-219,-346,-273,-214,-156,-43
-14,-92,-78,53,31,-85,-180,-278,-224,-165,-126,-34
-29,-78,-48,53,9,-63,-146,-214,-170,-126,-112,-24
-19,-68,-48,43,14,-58,-112,-165,-131,-97,-87,-14
-34,-58,-24,46,-4,-41,-92,-126,-112,-82,-78,0
-29,-48,-19,39,-4,-34,-78,-87,-92,-68,-63,4
-19,-43,-24,31,2,-34,-58,-63,-82,-63,-58,0
-34,-43,-9,39,-12,-26,-39,-48,-63,-58,-53,0
-29,-43,-14,36,-7,-29,-29,-34,-58,-48,-63,-4
-43,-43,0,43,-21,-21,-19,-19,-48,-43,-53,-4
-58,-43,14,51,-36,-14,-9,-9,-29,-24,-48,-4
-58,-39,19,48,-39,-9,-9,0,-19,-9,-34,4
-58,-34,24,46,-41,-4,-9,4,-14,-14,-39,9
-58,-29,29,43,-43,0,0,9,-24,-19,-34,14
-48,-14,34,31,-41,9,0,14,-14,-14,-29,14
-53,-14,39,34,-46,12,0,14,-14,-14,-39,14
-53,-19,34,36,-43,7,0,19,-4,-14,-34,9
-53,-24,29,39,-41,2,9,24,-4,-9,-34,9
-58,-34,24,46,-41,-4,9,34,0,-4,-34,9
-58,-24,34,41,-46,4,14,43,4,9,-24,9
-58,-19,39,39,-48,9,19,48,9,14,-24,9
-58,-19,39,39,-48,9,19,48,9,14,-24,9
-58,-9,48,34,-53,19,19,53,14,14,-14,19
-58,-9,48,34,-53,19,19,58,9,9,-14,9
-63,-14,48,39,-56,17,24,63,9,9,-19,9
-63,-14,48,39,-56,17,24,63,9,9,-19,9
-63,-9,53,36,-58,21,29,68,14,14,-19,9
-63,-19,43,41,-53,12,29,78,19,24,-19,19
-63,-19,43,41,-53,12,29,78,29,24,-19,19
-68,-19,48,43,-58,14,29,82,34,29,-9,19
-68,-19,48,43,-58,14,29,92,39,29,-9,19
-53,-9,43,31,-48,17,29,82,29,19,-9,19
-53,-9,43,31,-48,17,34,87,29,19,-9,19
-53,-9,43,31,-48,17,39,92,34,24,-9,19
-53,-9,43,31,-48,17,39,92,34,24,-14,19
-58,-9,48,34,-53,19,29,92,34,24,-14,19
-58,-9,48,34,-53,19,29,92,39,24,-4,24
-58,-9,48,34,-53,19,29,92,39,24,-4,24
-58,-4,53,31,-56,24,29,92,43,24,-9,19
-53,0,53,26,-53,26,39,97,43,29,-9,19
-53,0,53,26,-53,26,39,97,48,29,-4,19
-58,0,58,29,-58,29,39,102,48,29,-4,19
-58,0,58,29,-58,29,39,102,48,34,-4,24
-58,0,58,29,-58,29,39,102,39,34,-4,24
-53,0,53,26,-53,26,39,107,39,34,-4,24
-53,0,53,26,-53,26,39,107,43,29,0,29
-53,0,53,26,-53,26,39,112,43,29,0,29
-48,4,53,21,-51,29,39,107,53,34,0,29
-48,4,53,21,-51,29,39,107,53,34,0,29
-48,4,53,21,-51,29,43,107,53,34,0,29
-48,4,53,21,-51,29,48,112,53,39,0,29
-48,4,53,21,-51,29,48,122,48,39,0,29
-48,4,53,21,-51,29,43,122,48,39,0,34
-48,9,58,19,-53,34,43,126,48,39,0,34
-48,9,58,19,-53,34,43,126,48,39,0,34
-39,9,48,14,-43,29,43,122,48,39,0,24
-39,9,48,14,-43,29,53,126,58,43,4,24
-39,9,48,14,-43,29,53,126,58,43,9,24
-39,9,48,14,-43,29,53,126,58,43,9,24
-39,9,48,14,-43,29,53,136,63,48,0,34
-39,9,48,14,-43,29,53,136,63,48,0,39
-43,14,58,14,-51,36,53,141,63,48,0,39
-43,14,58,14,-51,36,53,141,68,48,0,39
-53,14,68,19,-61,41,53,141,68,48,9,39
-39,19,58,9,-48,39,53,146,68,48,9,39
-39,19,58,9,-48,39,58,146,68,48,9,39
-39,19,58,9,-48,39,58,151,68,53,9,39
-29,19,48,4,-39,34,58,156,68,53,9,39
-34,19,53,7,-43,36,58,156,68,53,9,39
-34,19,53,7,-43,36,58,161,73,53,14,39
-34,24,58,4,-46,41,58,161,78,58,19,39
-34,24,58,4,-46,41,58,161,87,58,19,43
-34,29,63,2,-48,46,63,165,87,63,19,43
-24,29,53,-2,-39,41,63,170,87,63,19,43
-19,29,48,-4,-34,39,63,175,92,63,19,43
-19,39,58,-9,-39,48,53,170,87,68,19,43
-19,39,58,-9,-39,48,53,175,87,68,19,48
-19,39,58,-9,-39,48,58,175,87,68,24,48
-14,39,53,-12,-34,46,58,175,92,73,24,53
-14,39,53,-12,-34,46,68,195,92,73,14,43
-14,43,58,-14,-36,51,68,195,92,73,19,43
-14,48,63,-17,-39,56,68,195,97,73,19,43
-14,48,63,-17,-39,56,68,204,97,78,24,43
0,43,43,-21,-21,43,58,209,107,78,34,58
0,43,43,-21,-21,43,63,214,107,82,34,63
0,43,43,-21,-21,43,63,219,107,82,39,63
0,48,48,-24,-24,48,63,224,107,87,39,63
4,48,43,-26,-19,46,73,224,112,92,43,53
9,48,39,-29,-14,43,73,229,117,97,43,53
9,58,48,-34,-19,53,78,234,117,102,43,58
14,58,43,-36,-14,51,78,239,122,102,48,63
19,68,48,-43,-14,58,68,244,122,102,39,73
29,68,39,-48,-4,53,68,248,126,102,43,73
29,63,34,-46,-2,48,68,253,131,107,48,73
34,63,29,-48,2,46,68,258,136,117,48,78
39,68,29,-53,4,48,78,268,141,117,68,78
43,68,24,-56,9,46,78,273,146,117,68,82
43,68,24,-56,9,46,78,283,151,122,68,82
48,73,24,-61,12,48,78,292,151,126,73,87
53,82,29,-68,12,56,73,297,156,126,63,97
58,92,34,-75,12,63,73,302,161,136,73,97
63,92,29,-78,17,61,73,307,165,141,78,102
68,92,24,-80,21,58,73,317,170,146,82,107
87,92,4,-90,41,48,73,312,165,151,87,107
92,92,0,-92,46,46,73,326,170,156,92,107
97,97,0,-97,48,48,68,326,175,161,92,117
102,97,-4,-100,53,46,68,341,175,165,97,122
107,102,-4,-104,56,48,68,346,190,170,102,122
112,112,0,-112,56,56,73,351,195,175,107,126
126,117,-9,-122,68,53,73,361,200,180,112,131
131,122,-9,-126,70,56,68,366,204,185,117,131
141,131,-9,-136,75,61,58,370,209,190,131,131
146,136,-9,-141,78,63,53,385,214,200,136,141
151,136,-14,-143,82,61,53,385,219,209,141,146
165,146,-19,-156,92,63,58,400,224,209,146,151
165,136,-29,-151,97,53,58,400,214,209,141,146
165,136,-29,-151,97,53,58,409,219,219,146,151
185,146,-39,-165,112,53,53,409,224,224,156,156
190,151,-39,-170,114,56,53,419,229,229,156,156
195,165,-29,-180,112,68,53,419,244,234,161,170
204,170,-34,-187,119,68,48,424,248,244,165,175
204,170,-34,-187,119,68,43,429,253,244,170,180
214,175,-39,-195,126,68,43,434,258,248,175,185
224,180,-43,-202,134,68,43,439,253,253,190,180
224,180,-43,-202,134,68,43,439,258,258,195,185
234,190,-43,-212,139,73,39,444,258,263,200,190
244,190,-53,-217,148,68,34,448,258,268,204,195
244,190,-53,-217,148,68,34,444,258,273,200,204
248,195,-53,-222,151,70,34,444,268,278,204,209
248,195,-53,-222,151,70,29,444,273,278,204,209
248,195,-53,-222,151,70,29,444,273,283,209,209
253,204,-48,-229,151,78,29,444,283,287,214,219
258,204,-53,-231,156,75,29,439,283,292,219,224
258,204,-53,-231,156,75,19,439,283,292,224,224
268,204,-63,-236,165,70,19,439,283,297,224,224
248,204,-43,-226,146,80,19,434,273,297,224,224
248,204,-43,-226,146,80,19,419,268,297,224,224
244,204,-39,-224,141,82,14,414,268,297,224,224
244,204,-39,-224,141,82,14,405,268,297,219,224
244,195,-48,-219,146,73,14,395,268,283,219,209
234,190,-43,-212,139,73,14,380,263,283,219,209
234,190,-43,-212,139,73,9,370,258,278,219,209
234,190,-43,-212,139,73,9,361,248,273,209,204
214,185,-29,-200,122,78,9,356,244,268,195,204
204,185,-19,-195,112,82,14,346,239,258,190,200
200,175,-24,-187,112,75,14,336,239,258,185,200
185,170,-14,-178,100,78,14,326,234,253,180,195
185,170,-14,-178,100,78,24,312,219,248,185,185
175,165,-9,-170,92,78,24,297,214,239,180,180
165,161,-4,-163,85,78,24,283,204,224,175,170
161,156,-4,-158,82,75,24,273,200,214,165,165
146,141,-4,-143,75,68,29,258,190,214,151,161
136,136,0,-136,68,68,29,244,180,200,141,156
126,126,0,-126,63,63,29,234,175,200,136,151
117,117,0,-117,58,58,29,219,161,185,122,146
112,117,4,-114,53,61,19,214,156,180,122,131
107,112,4,-109,51,58,19,209,156,170,112,126
97,112,14,-104,41,63,14,200,146,161,102,117
87,102,14,-95,36,58,14,190,136,156,97,112
73,102,29,-87,21,65,24,180,126,136,92,107
63,92,29,-78,17,61,19,170,126,126,87,102
58,82,24,-70,17,53,19,151,117,122,82,92
48,78,29,-63,9,53,19,141,107,122,68,87
48,73,24,-61,12,48,14,141,107,107,63,92
48,73,24,-61,12,48,14,131,107,107,58,92
34,63,29,-48,2,46,14,126,92,92,53,87
29,53,24,-41,2,39,14,117,92,87,48,78
29,63,34,-46,-2,48,9,102,87,82,34,68
24,53,29,-39,-2,41,9,92,82,78,24,63
19,53,34,-36,-7,43,9,92,78,68,19,58
19,48,29,-34,-4,39,14,87,73,68,19,53
9,43,34,-26,-12,39,14,87,63,73,14,53
9,43,34,-26,-12,39,14,82,58,63,9,48
4,39,34,-21,-14,36,9,78,53,58,9,48
0,34,34,-17,-17,34,9,73,53,58,4,43
0,24,24,-12,-12,24,9,58,43,43,9,39
0,19,19,-9,-9,19,4,58,39,39,4,39
0,19,19,-9,-9,19,4,53,34,34,0,39
0,19,19,-9,-9,19,4,48,34,29,-4,39
-4,19,24,-7,-14,21,0,53,29,39,-4,34
-4,19,24,-7,-14,21,0,53,24,34,-4,34
-4,19,24,-7,-14,21,0,48,19,34,-4,29
-4,9,14,-2,-9,12,0,43,14,29,-9,29
-9,9,19,0,-14,14,-4,43,14,24,-9,34
-9,9,19,0,-14,14,-4,43,14,24,-19,34
-9,9,19,0,-14,14,-4,34,14,24,-19,34
-9,9,19,0,-14,14,-4,29,4,24,-14,34
-9,9,19,0,-14,14,-4,29,4,24,-14,29
-9,9,19,0,-14,14,0,24,9,19,-19,29
-9,9,19,0,-14,14,0,24,9,19,-19,29
-14,9,24,2,-19,17,0,19,4,14,-19,34
-14,9,24,2,-19,17,0,19,14,14,-29,24
-14,9,24,2,-19,17,0,19,14,19,-29,24
-14,9,24,2,-19,17,0,19,14,19,-29,19
-19,14,34,2,-26,24,0,19,14,19,-29,19
-19,4,24,7,-21,14,0,19,4,9,-19,19
-19,0,19,9,-19,9,0,19,4,9,-19,19
-19,0,19,9,-19,9,0,19,4,4,-19,19
-19,4,24,7,-21,14,0,19,4,4,-19,19
-19,4,24,7,-21,14,0,19,4,9,-29,19
-19,4,24,7,-21,14,0,19,4,9,-29,19
-19,0,19,9,-19,9,0,14,4,9,-29,14
-19,0,19,9,-19,9,0,14,4,9,-29,14
-19,4,24,7,-21,14,0,19,4,0,-29,14
-19,4,24,7,-21,14,-4,19,0,0,-29,14
-19,9,29,4,-24,19,-9,14,0,0,-34,14
-14,9,24,2,-19,17,-9,14,4,0,-34,14
-24,0,24,12,-24,12,4,19,4,9,-34,14
-19,0,19,9,-19,9,4,19,4,9,-34,14
-19,0,19,9,-19,9,4,19,4,9,-34,14
-24,0,24,12,-24,12,4,19,4,9,-34,14
-14,4,19,4,-17,12,4,9,4,9,-34,24
-19,4,24,7,-21,14,4,14,4,9,-34,24
-29,4,34,12,-31,19,4,14,4,9,-34,24
-19,9,29,4,-24,19,4,14,0,9,-34,24
-19,4,24,7,-21,14,4,19,9,0,-24,24
-19,4,24,7,-21,14,4,19,9,4,-24,24
-24,4,29,9,-26,17,4,24,9,4,-24,24
-24,4,29,9,-26,17,9,29,9,0,-24,24
-14,14,29,0,-21,21,9,19,0,9,-24,24
-9,14,24,-2,-17,19,9,14,0,14,-24,24
-9,14,24,-2,-17,19,9,14,4,14,-19,29
-9,14,24,-2,-17,19,9,14,9,14,-19,29
-14,4,19,4,-17,12,9,14,9,4,-29,19
-14,4,19,4,-17,12,4,14,9,4,-29,24
-14,4,19,4,-17,12,4,14,9,4,-24,24
-14,4,19,4,-17,12,4,14,9,4,-24,24
-24,14,39,4,-31,26,9,24,9,4,-24,19
-24,14,39,4,-31,26,9,19,9,4,-24,19
-24,14,39,4,-31,26,4,19,9,4,-24,24
-19,19,39,0,-29,29,0,19,9,4,-24,24
-9,9,19,0,-14,14,9,19,9,14,-14,34
-9,9,19,0,-14,14,9,19,9,14,-14,34
-9,9,19,0,-14,14,9,19,9,14,-14,34
-9,9,19,0,-14,14,9,19,9,14,-14,34
-9,9,19,0,-14,14,0,9,9,14,-24,24
-9,14,24,-2,-17,19,0,14,9,14,-24,24
-9,14,24,-2,-17,19,0,14,9,14,-24,24
-9,14,24,-2,-17,19,4,14,9,14,-24,24
-9,24,34,-7,-21,29,-4,14,9,14,-24,24
-9,19,29,-4,-19,24,0,19,9,14,-24,24
-9,19,29,-4,-19,24,0,19,9,14,-24,24
-9,24,34,-7,-21,29,0,19,9,14,-24,24
-9,24,34,-7,-21,29,4,19,9,14,-24,34
-4,24,29,-9,-17,26,4,14,9,14,-24,34
0,24,24,-12,-12,24,4,9,9,14,-24,34
0,24,24,-12,-12,24,4,9,9,14,-24,34
-9,24,34,-7,-21,29,4,19,9,14,-14,24
-9,19,29,-4,-19,24,4,19,9,14,-19,24
-9,19,29,-4,-19,24,9,24,9,14,-19,24
-9,19,29,-4,-19,24,9,24,4,14,-19,24
-9,14,24,-2,-17,19,0,24,4,14,-19,24
-9,14,24,-2,-17,19,0,24,9,14,-19,24
-9,14,24,-2,-17,19,0,24,9,14,-19,24
-9,14,24,-2,-17,19,0,24,9,14,-19,24
0,14,14,-7,-7,14,0,14,0,14,-19,24
0,14,14,-7,-7,14,0,14,0,14,-19,24
0,14,14,-7,-7,14,0,14,0,14,-19,24
0,14,14,-7,-7,14,0,14,0,14,-19,24
-9,14,24,-2,-17,19,0,24,0,4,-29,24
-9,14,24,-2,-17,19,0,24,0,4,-29,24
-4,14,19,-4,-12,17,0,24,0,4,-29,24
-4,14,19,-4,-12,17,0,19,0,4,-29,24
-9,14,24,-2,-17,19,-4,19,0,4,-24,24
-9,14,24,-2,-17,19,-4,19,0,0,-24,24
-9,14,24,-2,-17,19,0,19,0,0,-24,24
-9,14,24,-2,-17,19,0,19,0,4,-24,24
-9,14,24,-2,-17,19,0,19,0,4,-24,24
-9,14,24,-2,-17,19,0,19,0,4,-29,24
-9,14,24,-2,-17,19,0,19,-4,0,-29,24
-9,14,24,-2,-17,19,-4,19,-4,0,-29,24
-9,4,14,2,-12,9,-4,4,-4,-4,-29,19
-9,4,14,2,-12,9,0,4,-4,-4,-29,19
-9,4,14,2,-12,9,0,4,-4,0,-24,19
-9,4,14,2,-12,9,0,4,-9,0,-24,19
-9,14,24,-2,-17,19,0,4,0,0,-29,9
-9,9,19,0,-14,14,0,9,0,0,-29,14
-9,9,19,0,-14,14,0,9,-4,-4,-34,14
-9,9,19,0,-14,14,-4,9,-4,-4,-39,9
-9,9,19,0,-14,14,-4,0,-14,-9,-39,19
-9,9,19,0,-14,14,-4,0,-14,-14,-39,14
-9,9,19,0,-14,14,-4,-4,-14,-14,-39,14
-9,4,14,2,-12,9,-4,-4,-14,-9,-39,14
-9,4,14,2,-12,9,0,-4,-14,-9,-34,14
-9,4,14,2,-12,9,0,-4,-14,-9,-34,14
-9,0,9,4,-9,4,-9,-4,-19,-14,-39,9
-9,0,9,4,-9,4,-9,-4,-19,-19,-39,9
-14,0,14,7,-14,7,-9,-9,-19,-19,-39,19
-14,0,14,7,-14,7,-9,-9,-19,-19,-43,19
-14,0,14,7,-14,7,-9,-9,-19,-19,-43,19
-14,0,14,7,-14,7,-9,-9,-19,-19,-43,19
-19,0,19,9,-19,9,-9,-9,-24,-19,-43,9
-19,0,19,9,-19,9,-9,-14,-24,-19,-43,4
-19,0,19,9,-19,9,-9,-14,-24,-24,-43,4
-19,0,19,9,-19,9,-9,-14,-29,-24,-48,9
-19,0,19,9,-19,9,0,-14,-29,-24,-48,9
-24,0,24,12,-24,12,-4,-19,-29,-24,-48,9
-24,0,24,12,-24,12,-4,-19,-29,-24,-48,9
-24,0,24,12,-24,12,-4,-19,-29,-24,-48,4
-19,-4,14,12,-17,4,-14,-24,-29,-24,-48,4
-19,-4,14,12,-17,4,-9,-24,-34,-24,-48,4
-14,-4,9,9,-12,2,-9,-24,-34,-24,-48,4
-14,-4,9,9,-12,2,-9,-24,-34,-29,-53,4
-24,-4,19,14,-21,7,-9,-24,-34,-29,-53,4
-24,-4,19,14,-21,7,-9,-24,-34,-34,-53,4
-24,-4,19,14,-21,7,-9,-24,-34,-34,-53,4
-24,-4,19,14,-21,7,-9,-29,-39,-34,-53,4
-24,-4,19,14,-21,7,-9,-29,-39,-34,-53,0
-24,-4,19,14,-21,7,-9,-29,-39,-34,-53,0
-24,-4,19,14,-21,7,-9,-29,-39,-34,-53,0
-29,-4,24,17,-26,9,-9,-29,-39,-34,-53,0
-29,-14,14,21,-21,0,-14,-34,-39,-34,-53,0
-29,-14,14,21,-21,0,-14,-34,-39,-34,-53,0
-29,-14,14,21,-21,0,-14,-34,-39,-34,-53,0
-29,-14,14,21,-21,0,-14,-34,-39,-34,-53,4
-29,-24,4,26,-17,-9,-9,-34,-43,-34,-58,4
-29,-24,4,26,-17,-9,-9,-34,-43,-34,-58,0
-29,-24,4,26,-17,-9,-9,-39,-43,-34,-58,0
-29,-34,-4,31,-12,-19,-9,-39,-43,-34,-58,0
-29,-29,0,29,-14,-14,-9,-39,-39,-39,-58,9
-29,-19,9,24,-19,-4,-4,-39,-39,-39,-53,9
-29,-14,14,21,-21,0,-4,-39,-39,-39,-53,9
-29,-9,19,19,-24,4,-4,-39,-39,-34,-58,9
-29,-9,19,19,-24,4,-4,-39,-53,-34,-58,4
-29,-9,19,19,-24,4,-4,-39,-53,-39,-53,4
-29,-9,19,19,-24,4,-4,-39,-53,-39,-53,4
-29,-9,19,19,-24,4,-4,-39,-53,-39,-53,4
-29,-9,19,19,-24,4,-14,-39,-43,-39,-53,4
-29,-9,19,19,-24,4,-14,-39,-43,-34,-53,4
-29,-14,14,21,-21,0,-14,-39,-48,-34,-53,4
-29,-14,14,21,-21,0,-14,-39,-48,-34,-53,4
-29,-24,4,26,-17,-9,-14,-34,-48,-34,-53,0
-34,-24,9,29,-21,-7,-14,-34,-43,-34,-53,0
-34,-24,9,29,-21,-7,-14,-39,-43,-34,-53,0
-34,-24,9,29,-21,-7,-14,-43,-43,-39,-53,-4
-34,-24,9,29,-21,-7,-4,-34,-43,-39,-58,4
-34,-24,9,29,-21,-7,-4,-29,-48,-34,-58,9
-34,-24,9,29,-21,-7,-4,-29,-48,-34,-58,9
-34,-24,9,29,-21,-7,-4,-34,-48,-34,-58,4
-24,-24,0,24,-12,-12,-14,-43,-53,-34,-58,4
-24,-24,0,24,-12,-12,-14,-43,-53,-34,-58,9
-24,-24,0,24,-12,-12,-14,-43,-53,-39,-58,9
-24,-24,0,24,-12,-12,-14,-39,-53,-39,-58,9
-34,-24,9,29,-21,-7,-4,-29,-53,-39,-58,0
-34,-24,9,29,-21,-7,-9,-29,-53,-39,-63,0
-34,-24,9,29,-21,-7,-9,-34,-58,-39,-63,4
-34,-24,9,29,-21,-7,-9,-34,-58,-39,-58,4
-29,-19,9,24,-19,-4,-9,-34,-53,-39,-63,4
-19,-19,0,19,-9,-9,-9,-39,-48,-39,-58,0
-29,-29,0,29,-14,-14,-9,-39,-58,-39,-58,0
-29,-29,0,29,-14,-14,-9,-39,-58,-39,-58,0
-29,-29,0,29,-14,-14,-9,-39,-58,-39,-58,0
-29,-29,0,29,-14,-14,-9,-39,-58,-39,-58,0
-29,-19,9,24,-19,-4,-9,-39,-58,-39,-58,0
-29,-19,9,24,-19,-4,-9,-39,-58,-39,-58,0
-29,-19,9,24,-19,-4,-9,-39,-58,-39,-58,0
-29,-19,9,24,-19,-4,-9,-39,-58,-39,-58,0
-29,-29,0,29,-14,-14,-9,-39,-58,-39,-58,0
-29,-29,0,29,-14,-14,-9,-39,-58,-39,-58,0
-29,-29,0,29,-14,-14,-9,-39,-58,-39,-58,0
-29,-29,0,29,-14,-14,-9,-39,-58,-39,-58,0
-29,-19,9,24,-19,-4,-9,-39,-48,-39,-58,0
-29,-19,9,24,-19,-4,-9,-39,-48,-39,-58,0
-29,-19,9,24,-19,-4,-9,-39,-48,-39,-58,0
-29,-19,9,24,-19,-4,-9,-39,-48,-39,-58,0
-29,-19,9,24,-19,-4,-9,-39,-48,-48,-58,0
-29,-19,9,24,-19,-4,-9,-39,-48,-48,-58,0
-29,-19,9,24,-19,-4,-9,-39,-48,-48,-58,0
-29,-19,9,24,-19,-4,-9,-39,-48,-48,-58,0
-29,-19,9,24,-19,-4,-9,-39,-58,-48,-58,0
-29,-19,9,24,-19,-4,-9,-39,-58,-48,-58,0
-29,-19,9,24,-19,-4,-9,-39,-58,-48,-58,0
-29,-19,9,24,-19,-4,-9,-39,-58,-48,-58,0
-29,-19,9,24,-19,-4,-9,-39,-48,-48,-68,0
-29,-19,9,24,-19,-4,-9,-39,-48,-48,-68,0
-29,-19,9,24,-19,-4,-9,-39,-48,-48,-68,0
-29,-19,9,24,-19,-4,-9,-39,-48,-48,-68,0
-29,-19,9,24,-19,-4,-9,-39,-48,-48,-58,0
-29,-19,9,24,-19,-4,-9,-39,-48,-48,-58,0
-29,-19,9,24,-19,-4,-9,-39,-48,-48,-58,0
-29,-19,9,24,-19,-4,-9,-39,-48,-48,-58,0
-29,-19,9,24,-19,-4,-9,-39,-48,-39,-58,0
-29,-19,9,24,-19,-4,-9,-39,-48,-39,-58,0
-29,-19,9,24,-19,-4,-9,-39,-48,-39,-58,0
-29,-19,9,24,-19,-4,-9,-39,-48,-39,-58,0
-29,-19,9,24,-19,-4,-9,-39,-58,-48,-68,0
-29,-19,9,24,-19,-4,-9,-39,-58,-48,-68,0
-29,-19,9,24,-19,-4,-9,-39,-58,-48,-68,0
-29,-19,9,24,-19,-4,-9,-39,-58,-48,-68,0
-29,-19,9,24,-19,-4,-9,-48,-58,-48,-68,0
-29,-19,9,24,-19,-4,-9,-48,-58,-48,-68,0
-29,-19,9,24,-19,-4,-9,-48,-58,-48,-68,0
-29,-19,9,24,-19,-4,-9,-48,-58,-48,-68,0
-29,-19,9,24,-19,-4,-9,-48,-58,-48,-68,0
-29,-19,9,24,-19,-4,-9,-48,-58,-48,-68,0
-29,-19,9,24,-19,-4,-9,-48,-58,-48,-68,0
-29,-19,9,24,-19,-4,-9,-48,-58,-48,-68,0
-39,-19,19,29,-29,0,-9,-48,-58,-48,-68,0
-39,-19,19,29,-29,0,-9,-48,-58,-48,-68,0
-39,-19,19,29,-29,0,-9,-48,-58,-48,-68,0
-39,-19,19,29,-29,0,-9,-48,-58,-48,-68,0
-39,-29,9,34,-24,-9,-9,-39,-58,-48,-68,0
-39,-29,9,34,-24,-9,-9,-39,-58,-48,-68,0
-39,-29,9,34,-24,-9,-9,-39,-58,-48,-68,0
-39,-29,9,34,-24,-9,-9,-39,-58,-48,-68,0
-39,-19,19,29,-29,0,-9,-48,-58,-48,-58,0
-39,-19,19,29,-29,0,-9,-48,-58,-48,-58,0
-39,-19,19,29,-29,0,-9,-48,-58,-48,-58,0
-39,-19,19,29,-29,0,-9,-48,-58,-48,-58,0
-39,-19,19,29,-29,0,-9,-39,-58,-48,-68,-9
-39,-19,19,29,-29,0,-9,-39,-58,-48,-68,-9
-39,-19,19,29,-29,0,-9,-39,-58,-48,-68,-9
-39,-19,19,29,-29,0,-9,-39,-58,-48,-68,-9
-39,-19,19,29,-29,0,-9,-48,-58,-48,-58,0
-39,-19,19,29,-29,0,-9,-48,-58,-48,-58,0
-39,-19,19,29,-29,0,-9,-48,-58,-48,-58,0
-39,-19,19,29,-29,0,-9,-48,-58,-48,-58,0
-39,-19,19,29,-29,0,-9,-39,-58,-48,-58,0
-39,-19,19,29,-29,0,-9,-39,-58,-48,-58,0
-39,-19,19,29,-29,0,-9,-39,-58,-48,-58,0
-39,-19,19,29,-29,0,-9,-39,-58,-48,-58,0
-39,-29,9,34,-24,-9,-9,-48,-58,-48,-58,0
-39,-29,9,34,-24,-9,-9,-48,-58,-48,-58,0
-39,-29,9,34,-24,-9,-9,-48,-58,-48,-58,0
-39,-29,9,34,-24,-9,-9,-48,-58,-48,-58,0
-39,-19,19,29,-29,0,-9,-39,-58,-48,-68,-9
-39,-19,19,29,-29,0,-9,-39,-58,-48,-68,-9
-39,-19,19,29,-29,0,-9,-39,-58,-48,-68,-9
-39,-19,19,29,-29,0,-9,-39,-58,-48,-68,-9
-39,-19,19,29,-29,0,-9,-48,-58,-58,-68,0
-39,-19,19,29,-29,0,-9,-48,-58,-58,-68,0
-39,-19,19,29,-29,0,-9,-48,-58,-58,-68,0
-39,-19,19,29,-29,0,-9,-48,-58,-58,-68,0
-39,-19,19,29,-29,0,-9,-39,-58,-48,-68,0
-39,-19,19,29,-29,0,-9,-39,-58,-48,-68,0
-39,-19,19,29,-29,0,-9,-39,-58,-48,-68,0
-39,-19,19,29,-29,0,-9,-39,-58,-48,-68,0
-39,-19,19,29,-29,0,-9,-48,-68,-48,-68,-9
-39,-19,19,29,-29,0,-9,-48,-68,-48,-68,-9
-39,-19,19,29,-29,0,-9,-48,-68,-48,-68,-9
-39,-19,19,29,-29,0,-9,-48,-68,-48,-68,-9
-39,-19,19,29,-29,0,-9,-48,-58,-48,-68,-9
-39,-19,19,29,-29,0,-9,-48,-58,-48,-68,-9
-39,-19,19,29,-29,0,-9,-48,-58,-48,-68,-9
-39,-19,19,29,-29,0,-9,-48,-58,-48,-68,-9
-39,-19,19,29,-29,0,-9,-48,-58,-58,-68,0
-39,-19,19,29,-29,0,-9,-48,-58,-58,-68,0
-39,-19,19,29,-29,0,-9,-48,-58,-58,-68,0
-39,-19,19,29,-29,0,-9,-48,-58,-58,-68,0
-39,-19,19,29,-29,0,-9,-48,-58,-48,-68,-9
-39,-19,19,29,-29,0,-9,-48,-58,-48,-68,-9
-39,-19,19,29,-29,0,-9,-48,-58,-48,-68,-9
-39,-19,19,29,-29,0,-9,-48,-58,-48,-68,-9
-48,-19,29,34,-39,4,-19,-48,-58,-48,-68,-9
-48,-19,29,34,-39,4,-19,-48,-58,-48,-68,-9
-48,-19,29,34,-39,4,-19,-48,-58,-48,-68,-9
-48,-19,29,34,-39,4,-19,-48,-58,-48,-68,-9
-48,-19,29,34,-39,4,-9,-48,-68,-58,-68,-9
-48,-19,29,34,-39,4,-9,-48,-68,-58,-68,-9
-48,-19,29,34,-39,4,-9,-48,-68,-58,-68,-9
-48,-19,29,34,-39,4,-9,-48,-68,-58,-68,-9
-39,-19,19,29,-29,0,-19,-48,-58,-48,-68,0
-39,-19,19,29,-29,0,-19,-48,-58,-48,-68,0
-39,-19,19,29,-29,0,-19,-48,-58,-48,-68,0
-39,-19,19,29,-29,0,-19,-48,-58,-48,-68,0
-48,-19,29,34,-39,4,-9,-48,-68,-48,-68,-9
-48,-19,29,34,-39,4,-9,-48,-68,-48,-68,-9
-48,-19,29,34,-39,4,-9,-48,-68,-48,-68,-9
-48,-19,29,34,-39,4,-9,-48,-68,-48,-68,-9
-39,-19,19,29,-29,0,-9,-48,-58,-48,-68,-9
-39,-19,19,29,-29,0,-9,-48,-58,-48,-68,-9
-39,-19,19,29,-29,0,-9,-48,-58,-48,-68,-9
-39,-19,19,29,-29,0,-9,-48,-58,-48,-68,-9
-48,-19,29,34,-39,4,-9,-48,-58,-58,-68,-9
-48,-19,29,34,-39,4,-9,-48,-58,-58,-68,-9
-48,-19,29,34,-39,4,-9,-48,-58,-58,-68,-9
-48,-19,29,34,-39,4,-9,-48,-58,-58,-68,-9
-48,-19,29,34,-39,4,-9,-48,-68,-58,-68,-9
-48,-19,29,34,-39,4,-9,-48,-68,-58,-68,-9
-48,-19,29,34,-39,4,-9,-48,-68,-58,-68,-9
-48,-19,29,34,-39,4,-9,-48,-68,-58,-68,-9
-48,-19,29,34,-39,4,-9,-48,-68,-58,-78,-9
-48,-19,29,34,-39,4,-9,-48,-68,-58,-78,-9
-48,-19,29,34,-39,4,-9,-48,-68,-58,-78,-9
-48,-19,29,34,-39,4,-9,-48,-68,-58,-78,-9
-39,-19,19,29,-29,0,-9,-48,-68,-58,-68,-9
-39,-19,19,29,-29,0,-9,-48,-68,-58,-68,-9
-39,-19,19,29,-29,0,-9,-48,-68,-58,-68,-9
-39,-19,19,29,-29,0,-9,-48,-68,-58,-68,-9
-39,-19,19,29,-29,0,-9,-48,-68,-58,-78,-9
-39,-19,19,29,-29,0,-9,-48,-68,-58,-78,-9
-39,-19,19,29,-29,0,-9,-48,-68,-58,-78,-9
-39,-19,19,29,-29,0,-9,-48,-68,-58,-78,-9
-48,-19,29,34,-39,4,-9,-48,-68,-58,-68,-19
-48,-19,29,34,-39,4,-9,-48,-68,-58,-68,-19
-48,-19,29,34,-39,4,-9,-48,-68,-58,-68,-19
-48,-19,29,34,-39,4,-9,-48,-68,-58,-68,-19
-48,-19,29,34,-39,4,-9,-48,-68,-58,-78,-9
-48,-19,29,34,-39,4,-9,-48,-68,-58,-78,-9
-48,-19,29,34,-39,4,-9,-48,-68,-58,-78,-9
-48,-19,29,34,-39,4,-9,-48,-68,-58,-78,-9
-39,-19,19,29,-29,0,-19,-48,-68,-58,-68,-19
-39,-19,19,29,-29,0,-19,-48,-68,-58,-68,-19
-39,-19,19,29,-29,0,-19,-48,-68,-58,-68,-19
-39,-19,19,29,-29,0,-19,-48,-68,-58,-68,-19
-48,-19,29,34,-39,4,-19,-48,-68,-58,-78,-19
-48,-19,29,34,-39,4,-19,-48,-68,-58,-78,-19
-48,-19,29,34,-39,4,-19,-48,-68,-58,-78,-19
-48,-19,29,34,-39,4,-19,-48,-68,-58,-78,-19
-39,-19,19,29,-29,0,-9,-48,-68,-58,-68,-19
-39,-19,19,29,-29,0,-9,-48,-68,-58,-68,-19
-39,-19,19,29,-29,0,-9,-48,-68,-58,-68,-19
-39,-19,19,29,-29,0,-9,-48,-68,-58,-68,-19
-39,-9,29,24,-34,9,-9,-48,-68,-58,-78,-19
-39,-9,29,24,-34,9,-9,-48,-68,-58,-78,-19
-39,-9,29,24,-34,9,-9,-48,-68,-58,-78,-19
-39,-9,29,24,-34,9,-9,-48,-68,-58,-78,-19
-39,-19,19,29,-29,0,-9,-48,-68,-58,-68,-19
-39,-19,19,29,-29,0,-9,-48,-68,-58,-68,-19
-39,-19,19,29,-29,0,-9,-48,-68,-58,-68,-19
-39,-19,19,29,-29,0,-9,-48,-68,-58,-68,-19
-39,-9,29,24,-34,9,-9,-48,-78,-68,-68,-19
-39,-9,29,24,-34,9,-9,-48,-78,-68,-68,-19
-39,-9,29,24,-34,9,-9,-48,-78,-68,-68,-19
-39,-9,29,24,-34,9,-9,-48,-78,-68,-68,-19
-39,-19,19,29,-29,0,-19,-48,-68,-58,-68,-19
-39,-19,19,29,-29,0,-19,-48,-68,-58,-68,-19
-39,-19,19,29,-29,0,-19,-48,-68,-58,-68,-19
-39,-19,19,29,-29,0,-19,-48,-68,-58,-68,-19
-39,-19,19,29,-29,0,-19,-48,-68,-58,-68,-19
-39,-19,19,29,-29,0,-19,-48,-68,-58,-68,-19
-39,-19,19,29,-29,0,-19,-48,-68,-58,-68,-19
-39,-19,19,29,-29,0,-19,-48,-68,-58,-68,-19
-29,-9,19,19,-24,4,-9,-39,-58,-48,-58,-19
-29,-9,19,19,-24,4,-9,-39,-58,-48,-58,-19
-29,-9,19,19,-24,4,-9,-39,-58,-48,-58,-19
-29,-9,19,19,-24,4,-9,-39,-58,-48,-58,-19
-19,0,19,9,-19,9,0,-34,-48,-48,-58,-9
-19,0,19,9,-19,9,0,-29,-48,-48,-58,-9
-19,0,19,9,-19,9,0,-24,-48,-48,-58,-9
-19,0,19,9,-19,9,0,-19,-48,-48,-58,-9
-14,14,29,0,-21,21,4,-14,-43,-43,-48,0
-9,19,29,-4,-19,24,9,-9,-39,-39,-48,0
-4,24,29,-9,-17,26,14,-4,-34,-34,-48,0
0,29,29,-14,-14,29,19,0,-29,-29,-48,0
9,29,19,-19,-4,24,19,4,-19,-19,-39,9
9,29,19,-19,-4,24,19,9,-19,-19,-39,9
9,29,19,-19,-4,24,19,14,-19,-19,-39,9
9,29,19,-19,-4,24,19,19,-19,-19,-39,9
9,29,19,-19,-4,24,9,9,-19,-19,-48,0
9,29,19,-19,-4,24,9,9,-19,-19,-48,0
9,29,19,-19,-4,24,9,9,-19,-19,-48,0
9,29,19,-19,-4,24,9,9,-19,-19,-48,0
14,29,14,-21,0,21,19,19,-9,-9,-43,4
19,29,9,-24,4,19,19,19,-9,-9,-39,9
24,29,4,-26,9,17,19,19,-9,-9,-34,14
29,29,0,-29,14,14,19,19,-9,-9,-29,19
39,39,0,-39,19,19,19,24,0,-4,-24,29
39,48,9,-43,14,29,19,29,0,0,-19,29
39,58,19,-48,9,39,19,34,0,4,-14,29
39,68,29,-53,4,48,19,39,0,9,-9,29
43,68,24,-56,9,46,0,24,-4,0,-19,24
43,58,14,-51,14,36,-4,9,-9,-4,-19,24
48,48,0,-48,24,24,-19,-9,-24,-14,-24,19
48,39,-9,-43,29,14,-34,-19,-39,-24,-34,19
39,34,-4,-36,21,14,-43,-43,-43,-24,-39,24
43,34,-9,-39,26,12,-58,-58,-53,-29,-43,19
48,29,-19,-39,34,4,-58,-58,-53,-34,-43,19
48,24,-24,-36,36,0,-58,-58,-53,-34,-43,19
58,24,-34,-41,46,-4,-53,-43,-53,-34,-29,14
63,19,-43,-41,53,-12,-53,-34,-48,-29,-29,14
63,19,-43,-41,53,-12,-48,-29,-39,-24,-29,19
58,19,-39,-39,48,-9,-43,-24,-39,-24,-29,19
53,9,-43,-31,48,-17,-43,-24,-39,-24,-39,24
53,9,-43,-31,48,-17,-43,-29,-43,-29,-39,24
53,4,-48,-29,51,-21,-43,-34,-53,-34,-43,14
48,0,-48,-24,48,-24,-43,-39,-53,-43,-48,14
43,0,-43,-21,43,-21,-53,-48,-63,-43,-53,14
34,-4,-39,-14,36,-21,-53,-53,-68,-48,-53,4
24,-9,-34,-7,29,-21,-53,-58,-68,-53,-58,4
19,-9,-29,-4,24,-19,-53,-58,-73,-53,-63,4
14,-14,-29,0,21,-21,-43,-73,-82,-63,-63,0
14,-14,-29,0,21,-21,-43,-73,-82,-63,-63,0
14,-14,-29,0,21,-21,-43,-68,-82,-68,-63,0
9,-14,-24,2,17,-19,-43,-68,-87,-68,-63,0
4,-4,-9,0,7,-7,-43,-68,-78,-58,-63,-4
-4,-4,0,4,-2,-2,-43,-68,-78,-58,-68,-9
-14,-14,0,14,-7,-7,-39,-73,-82,-63,-73,-14
-29,-14,14,21,-21,0,-34,-78,-87,-68,-78,-14
-34,-19,14,26,-24,-2,-34,-68,-87,-73,-82,-19
-43,-29,14,36,-29,-7,-34,-68,-87,-78,-87,-24
-43,-29,14,36,-29,-7,-34,-68,-87,-78,-87,-29
-43,-29,14,36,-29,-7,-34,-68,-87,-78,-92,-29
-53,-39,14,46,-34,-12,-34,-82,-97,-87,-92,-29
-53,-39,14,46,-34,-12,-39,-87,-102,-92,-92,-29
-53,-43,9,48,-31,-17,-39,-87,-102,-92,-92,-29
-53,-43,9,48,-31,-17,-39,-87,-102,-92,-92,-29
-48,-34,14,41,-31,-9,-39,-87,-92,-87,-92,-24
-48,-29,19,39,-34,-4,-39,-87,-92,-87,-92,-24
-43,-29,14,36,-29,-7,-34,-82,-92,-87,-87,-24
-43,-29,14,36,-29,-7,-34,-82,-92,-87,-87,-24
-43,-29,14,36,-29,-7,-34,-82,-92,-87,-87,-34
-43,-29,14,36,-29,-7,-34,-82,-92,-87,-87,-34
-43,-29,14,36,-29,-7,-34,-82,-92,-87,-87,-34
-43,-29,14,36,-29,-7,-34,-82,-92,-87,-87,-34
-43,-29,14,36,-29,-7,-34,-82,-92,-78,-87,-34
-48,-34,14,41,-31,-9,-34,-82,-87,-78,-87,-34
-48,-34,14,41,-31,-9,-34,-82,-87,-78,-87,-34
-48,-29,19,39,-34,-4,-34,-82,-92,-78,-87,-34
-48,-34,14,41,-31,-9,-34,-82,-92,-78,-87,-29
-48,-34,14,41,-31,-9,-34,-82,-92,-78,-87,-29
-48,-34,14,41,-31,-9,-34,-82,-92,-78,-87,-29
-48,-34,14,41,-31,-9,-34,-82,-92,-78,-87,-29
-48,-34,14,41,-31,-9,-34,-82,-92,-78,-87,-39
-48,-34,14,41,-31,-9,-34,-82,-92,-78,-87,-39
-48,-34,14,41,-31,-9,-34,-78,-87,-78,-87,-39
-48,-34,14,41,-31,-9,-29,-78,-87,-78,-87,-39
-53,-34,19,43,-36,-7,-19,-68,-87,-78,-87,-29
-53,-34,19,43,-36,-7,-19,-73,-87,-78,-87,-29
-53,-34,19,43,-36,-7,-24,-73,-92,-78,-82,-29
-53,-34,19,43,-36,-7,-24,-73,-92,-78,-82,-29
-53,-34,19,43,-36,-7,-29,-68,-92,-78,-82,-29
-53,-29,24,41,-39,-2,-24,-68,-87,-73,-82,-29
-53,-29,24,41,-39,-2,-24,-68,-87,-73,-82,-29
-53,-29,24,41,-39,-2,-24,-68,-87,-73,-82,-29
-53,-34,19,43,-36,-7,-14,-68,-87,-73,-82,-29
-53,-34,19,43,-36,-7,-14,-68,-87,-73,-82,-29
-53,-34,19,43,-36,-7,-14,-68,-87,-73,-82,-29
-53,-34,19,43,-36,-7,-14,-68,-87,-73,-82,-29
-63,-24,39,43,-51,7,-14,-68,-87,-73,-87,-29
-53,-24,29,39,-41,2,-9,-73,-82,-82,-87,-29
-58,-24,34,41,-46,4,-9,-73,-82,-82,-87,-29
-68,-19,48,43,-58,14,-4,-63,-78,-73,-87,-24
-73,-9,63,41,-68,26,4,-53,-63,-73,-87,-24
-87,-9,78,48,-82,34,19,-53,-63,-73,-87,-29
-117,0,117,58,-117,58,48,-29,-48,-63,-87,-34
-136,19,156,58,-146,87,82,0,-24,-63,-87,-24
-170,9,180,80,-175,95,122,34,-9,-73,-92,-39
-180,19,200,80,-190,109,156,73,9,-68,-92,-48
-190,48,239,70,-214,143,195,136,48,-43,-82,-39
-214,58,273,78,-244,165,239,224,102,-4,-68,-29
-214,78,292,68,-253,185,287,317,161,43,-43,-19
-195,102,297,46,-246,200,307,400,229,102,-9,-9
-175,117,292,29,-234,204,307,409,273,151,34,19
-156,151,307,2,-231,229,292,370,312,195,73,63
-112,195,307,-41,-209,251,244,312,331,253,136,107
-34,224,258,-95,-146,241,146,224,346,307,204,165
92,253,161,-173,-34,207,14,126,336,366,273,224
219,253,34,-236,92,143,-122,43,336,429,331,278
375,263,-112,-319,244,75,-248,-14,336,507,409,341
531,273,-258,-402,395,7,-370,-53,366,590,492,419
629,263,-366,-446,497,-51,-458,-102,370,658,561,478
702,253,-448,-478,575,-97,-556,-244,297,629,580,512
732,204,-527,-468,629,-161,-653,-468,102,468,497,478
697,97,-600,-397,649,-251,-722,-707,-195,175,317,375
619,-34,-653,-292,636,-344,-771,-971,-517,-165,82,234
531,-146,-678,-192,605,-412,-819,-1210,-790,-434,-126,92
453,-258,-712,-97,583,-485,-858,-1444,-1005,-649,-297,-24
375,-366,-741,-4,558,-553,-893,-1649,-1229,-868,-483,-161
268,-478,-746,104,507,-612,-893,-1815,-1420,-1058,-639,-278
190,-536,-727,173,458,-631,-873,-1864,-1473,-1127,-707,-331
165,-551,-717,192,441,-634,-854,-1815,-1439,-1098,-697,-336
141,-561,-702,209,422,-631,-839,-1747,-1381,-1073,-692,-336
122,-546,-668,212,395,-607,-810,-1659,-1322,-1039,-678,-336
117,-502,-619,192,368,-561,-756,-1537,-1244,-971,-634,-312
87,-463,-551,187,319,-507,-707,-1420,-1151,-907,-610,-292
73,-429,-502,178,287,-466,-658,-1327,-1058,-849,-580,-287
58,-380,-439,161,248,-409,-614,-1224,-971,-775,-536,-268
48,-326,-375,139,212,-351,-561,-1117,-868,-683,-473,-234
34,-263,-297,114,165,-280,-502,-980,-751,-585,-400,-185
19,-209,-229,95,124,-219,-424,-829,-644,-497,-341,-141
9,-170,-180,80,95,-175,-366,-697,-546,-424,-292,-117
24,-136,-161,56,92,-148,-317,-575,-468,-370,-253,-92
19,-117,-136,48,78,-126,-278,-492,-414,-331,-229,-82
29,-97,-126,34,78,-112,-239,-414,-361,-302,-214,-73
34,-73,-107,19,70,-90,-190,-346,-302,-244,-185,-63
19,-58,-78,19,48,-68,-136,-273,-239,-204,-161,-53
9,-48,-58,19,34,-53,-102,-214,-200,-165,-146,-53
4,-39,-43,17,24,-41,-73,-175,-170,-151,-126,-39
0,-39,-39,19,19,-39,-58,-136,-151,-136,-102,-34
0,-24,-24,12,12,-24,-39,-92,-131,-122,-97,-29
-4,-24,-19,14,7,-21,-29,-68,-122,-107,-92,-19
-19,-24,-4,21,-7,-14,-19,-53,-107,-107,-92,-24
-24,-4,19,14,-21,7,0,-39,-97,-92,-92,-24
-29,-14,14,21,-21,0,9,-39,-78,-82,-87,-24
-39,-19,19,29,-29,0,19,-29,-68,-78,-82,-24
-29,-4,24,17,-26,9,19,-14,-63,-73,-78,-19
-39,-9,29,24,-34,9,19,-9,-53,-68,-73,-14
-39,-4,34,21,-36,14,19,-4,-53,-63,-68,-14
-34,9,43,12,-39,26,19,4,-53,-73,-78,-14
-34,9,43,12,-39,26,19,9,-43,-73,-73,-19
-34,9,43,12,-39,26,29,14,-43,-68,-73,-19
-39,4,43,17,-41,24,29,24,-39,-63,-73,-19
-48,-4,43,26,-46,19,43,24,-34,-53,-73,-19
-48,0,48,24,-48,24,48,29,-29,-43,-73,-19
-48,0,48,24,-48,24,48,29,-29,-39,-73,-19
-48,9,58,19,-53,34,48,34,-24,-34,-63,-9
-48,19,68,14,-58,43,48,39,-19,-34,-53,-9
-53,14,68,19,-61,41,53,43,-19,-39,-58,-9
-53,14,68,19,-61,41,53,43,-19,-43,-58,-9
-53,19,73,17,-63,46,58,48,-14,-43,-58,-9
-53,9,63,21,-58,36,58,58,-4,-34,-58,-9
-53,9,63,21,-58,36,58,58,0,-34,-58,-9
-58,9,68,24,-63,39,58,63,0,-29,-48,-9
-58,9,68,24,-63,39,58,73,0,-29,-48,-9
-43,19,63,12,-53,41,58,63,0,-29,-48,0
-43,19,63,12,-53,41,63,68,0,-29,-48,0
-43,19,63,12,-53,41,68,73,4,-24,-48,0
-43,19,63,12,-53,41,68,73,4,-24,-53,0
-48,19,68,14,-58,43,68,82,-4,-24,-53,0
-48,19,68,14,-58,43,68,82,0,-24,-43,4
-48,19,68,14,-58,43,68,82,0,-24,-43,4
-48,24,73,12,-61,48,68,82,4,-24,-48,0
-43,29,73,7,-58,51,68,87,4,-19,-48,9
-43,29,73,7,-58,51,68,87,9,-19,-43,9
-48,29,78,9,-63,53,68,92,9,-19,-43,9
-48,29,78,9,-63,53,68,92,9,-14,-43,14
-48,19,68,14,-58,43,68,92,9,-14,-43,4
-43,19,63,12,-53,41,68,97,9,-14,-43,4
-43,19,63,12,-53,41,68,97,14,-19,-39,9
-43,19,63,12,-53,41,68,102,14,-19,-39,9
-48,24,73,12,-61,48,68,97,14,-14,-39,9
-48,24,73,12,-61,48,68,97,14,-14,-39,9
-48,24,73,12,-61,48,73,97,14,-14,-39,9
-48,24,73,12,-61,48,78,102,14,-9,-39,9
-39,34,73,2,-56,53,78,102,29,-9,-39,9
-39,34,73,2,-56,53,73,102,29,-9,-39,14
-39,39,78,0,-58,58,73,107,29,-9,-39,14
-39,39,78,0,-58,58,73,107,29,-9,-39,14
-39,39,78,0,-58,58,63,122,19,-9,-48,14
-39,39,78,0,-58,58,73,126,29,-4,-43,14
-39,39,78,0,-58,58,73,126,29,-4,-39,14
-39,39,78,0,-58,58,73,126,29,-4,-39,14
-29,39,68,-4,-48,53,82,126,34,0,-29,14
-29,39,68,-4,-48,53,82,126,34,0,-29,19
-34,43,78,-4,-56,61,82,131,34,0,-29,19
-34,43,78,-4,-56,61,82,131,39,0,-29,19
-43,34,78,4,-61,56,82,131,39,0,-29,19
-29,39,68,-4,-48,53,82,136,39,0,-29,19
-29,39,68,-4,-48,53,87,136,39,0,-29,19
-29,39,68,-4,-48,53,87,141,39,4,-29,19
-29,39,68,-4,-48,53,87,146,39,14,-29,19
-34,39,73,-2,-53,56,87,146,39,14,-29,19
-34,39,73,-2,-53,56,87,151,43,14,-24,19
-34,43,78,-4,-56,61,87,151,48,19,-19,19
-34,43,78,-4,-56,61,87,161,58,9,-29,24
-34,48,82,-7,-58,65,92,165,58,14,-29,24
-24,48,73,-12,-48,61,92,170,58,14,-29,24
-19,48,68,-14,-43,58,92,175,63,14,-29,24
-19,48,68,-14,-43,58,92,170,58,19,-19,24
-19,48,68,-14,-43,58,92,175,58,19,-19,29
-19,48,68,-14,-43,58,97,175,58,19,-14,29
-14,48,63,-17,-39,56,97,175,63,24,-14,34
-14,48,63,-17,-39,56,87,185,63,24,-14,34
-14,53,68,-19,-41,61,87,185,63,24,-9,34
-14,58,73,-21,-43,65,87,185,68,24,-9,34
-14,58,73,-21,-43,65,87,195,68,29,-4,34
-9,63,73,-26,-41,68,97,200,78,39,-4,29
-9,63,73,-26,-41,68,102,204,78,43,-4,34
-9,63,73,-26,-41,68,102,209,78,43,0,34
-9,68,78,-29,-43,73,102,214,78,48,0,34
-4,68,73,-31,-39,70,92,214,92,53,4,43
0,68,68,-34,-34,68,92,219,97,58,4,43
0,78,78,-39,-39,78,97,224,97,63,4,48
4,78,73,-41,-34,75,97,229,102,63,9,53
9,87,78,-48,-34,82,107,244,92,53,9,43
19,87,68,-53,-24,78,107,248,97,53,14,43
19,82,63,-51,-21,73,107,253,102,58,19,43
24,82,58,-53,-17,70,107,258,107,68,19,48
29,87,58,-58,-14,73,107,258,112,78,29,58
34,87,53,-61,-9,70,107,263,117,78,29,63
34,87,53,-61,-9,70,107,273,122,82,29,63
39,92,53,-65,-7,73,107,283,122,87,34,68
43,92,48,-68,-2,70,112,287,126,78,34,68
48,102,53,-75,-2,78,112,292,131,87,43,68
53,102,48,-78,2,75,112,297,136,92,48,73
58,102,43,-80,7,73,112,307,141,97,53,78
68,112,43,-90,12,78,112,312,146,102,48,78
73,112,39,-92,17,75,112,326,151,107,53,78
78,117,39,-97,19,78,107,326,156,112,53,87
82,117,34,-100,24,75,107,341,156,117,58,92
87,126,39,-107,24,82,107,336,161,122,63,92
92,131,39,-112,26,85,112,341,165,126,68,97
107,131,24,-119,41,78,112,351,170,131,73,102
112,131,19,-122,46,75,107,356,175,136,78,102
122,141,19,-131,51,80,97,370,180,141,92,112
126,146,19,-136,53,82,92,385,185,151,97,122
131,146,14,-139,58,80,92,385,190,161,102,126
146,156,9,-151,68,82,97,400,195,161,107,131
146,156,9,-151,68,82,107,400,195,170,112,136
146,156,9,-151,68,82,107,409,200,180,117,141
165,165,0,-165,82,82,102,409,204,185,126,146
170,170,0,-170,85,85,102,419,209,190,126,146
175,165,-9,-170,92,78,102,419,214,185,122,151
185,170,-14,-178,100,78,97,424,219,195,126,156
185,170,-14,-178,100,78,92,429,224,195,131,161
195,175,-19,-185,107,78,92,434,229,200,136,165
204,190,-14,-197,109,87,82,439,234,204,151,170
204,190,-14,-197,109,87,82,439,239,209,156,175
214,200,-14,-207,114,92,78,444,239,214,161,180
224,200,-24,-212,124,87,73,448,239,219,165,185
234,200,-34,-217,134,82,73,463,239,234,170,185
239,204,-34,-222,136,85,73,463,248,239,175,190
239,204,-34,-222,136,85,68,463,253,239,175,190
239,204,-34,-222,136,85,68,463,253,244,180,190
244,214,-29,-229,136,92,78,453,263,248,185,200
248,214,-34,-231,141,90,78,448,263,253,190,204
248,214,-34,-231,141,90,68,448,263,253,195,204
258,214,-43,-236,151,85,68,448,263,258,195,204
248,214,-34,-231,141,90,58,453,263,248,195,214
248,214,-34,-231,141,90,58,439,258,248,195,214
244,214,-29,-229,136,92,53,434,258,248,195,214
244,214,-29,-229,136,92,53,424,258,248,190,214
244,214,-29,-229,136,92,53,414,248,244,190,200
234,209,-24,-222,129,92,53,400,244,244,190,200
234,209,-24,-222,129,92,48,390,239,239,190,200
234,209,-24,-222,129,92,48,380,229,234,180,195
214,195,-19,-204,117,87,48,375,224,229,175,195
204,195,-9,-200,107,92,53,366,219,219,170,190
200,185,-14,-192,107,85,53,356,219,219,165,190
185,180,-4,-183,95,87,53,346,214,214,161,185
185,180,-4,-183,95,87,53,331,209,209,156,185
175,175,0,-175,87,87,53,317,204,200,151,180
165,170,4,-168,80,87,53,302,195,185,146,170
161,165,4,-163,78,85,53,292,190,175,136,165
146,161,14,-153,65,87,58,287,190,175,131,151
136,156,19,-146,58,87,58,273,180,161,122,146
126,146,19,-136,53,82,58,263,175,161,117,141
117,136,19,-126,48,78,58,248,161,146,102,136
112,126,14,-119,48,70,58,234,146,141,102,131
107,122,14,-114,46,68,58,229,146,131,92,126
97,122,24,-109,36,73,53,219,136,122,82,117
87,112,24,-100,31,68,53,209,126,117,78,112
82,112,29,-97,26,70,53,200,117,107,63,107
73,102,29,-87,21,65,48,190,117,97,58,102
68,92,24,-80,21,58,48,170,107,92,53,92
58,87,29,-73,14,58,48,161,97,92,39,87
48,73,24,-61,12,48,53,151,87,78,43,82
48,73,24,-61,12,48,53,141,87,78,39,82
34,63,29,-48,2,46,53,136,73,63,34,78
29,53,24,-41,2,39,53,126,73,58,29,68
29,63,34,-46,-2,48,39,122,68,53,14,68
24,53,29,-39,-2,41,39,112,63,48,4,63
19,53,34,-36,-7,43,39,112,58,39,0,58
19,48,29,-34,-4,39,43,107,53,39,0,53
9,43,34,-26,-12,39,43,97,53,34,-4,53
9,43,34,-26,-12,39,43,92,48,24,-9,48
4,39,34,-21,-14,36,39,87,43,19,-9,48
0,34,34,-17,-17,34,39,82,43,19,-14,43
0,34,34,-17,-17,34,29,78,39,14,-19,39
0,29,29,-14,-14,29,24,78,29,9,-24,39
0,29,29,-14,-14,29,24,73,19,4,-29,39
0,29,29,-14,-14,29,24,68,14,0,-34,39
-4,29,34,-12,-19,31,29,63,19,0,-34,34
-4,29,34,-12,-19,31,29,63,14,-4,-34,34
-4,29,34,-12,-19,31,29,58,9,-4,-34,29
-4,19,24,-7,-14,21,29,53,4,-9,-39,29
-9,9,19,0,-14,14,24,53,4,-14,-29,24
-9,9,19,0,-14,14,24,53,4,-14,-39,24
-9,9,19,0,-14,14,24,43,4,-14,-39,24
-9,9,19,0,-14,14,24,39,-4,-14,-34,24
-9,19,29,-4,-19,24,24,39,-4,-14,-43,19
-9,19,29,-4,-19,24,29,34,0,-19,-48,19
-9,19,29,-4,-19,24,29,34,0,-19,-48,19
-14,19,34,-2,-24,26,29,29,-4,-24,-48,24
-24,9,34,7,-29,21,29,29,-4,-34,-48,24
-24,9,34,7,-29,21,29,29,-4,-29,-48,24
-24,9,34,7,-29,21,29,29,-4,-29,-48,19
-29,14,43,7,-36,29,29,29,-4,-29,-48,19
-19,14,34,2,-26,24,19,29,-4,-19,-48,19
-19,9,29,4,-24,19,19,29,-4,-19,-48,19
-19,9,29,4,-24,19,19,29,-4,-24,-48,19
-19,14,34,2,-26,24,19,29,-4,-24,-48,19
-29,14,43,7,-36,29,19,29,-4,-29,-48,19
-29,14,43,7,-36,29,19,29,-4,-29,-48,19
-29,9,39,9,-34,24,19,24,-4,-29,-48,14
-29,9,39,9,-34,24,19,24,-4,-29,-48,14
-29,4,34,12,-31,19,24,29,-4,-29,-48,14
-29,4,34,12,-31,19,24,29,-9,-29,-48,14
-29,9,39,9,-34,24,24,24,-9,-29,-53,14
-24,9,34,7,-29,21,29,24,-4,-29,-53,14
-34,9,43,12,-39,26,34,29,-4,-39,-53,14
-29,9,39,9,-34,24,34,29,-4,-39,-53,14
-29,9,39,9,-34,24,34,29,-4,-39,-53,14
-34,9,43,12,-39,26,34,29,-4,-39,-53,14
-24,9,34,7,-29,21,34,19,-4,-29,-53,24
-29,4,34,12,-31,19,34,24,-4,-29,-53,24
-39,0,39,19,-39,19,34,24,-4,-29,-53,24
-29,0,29,14,-29,14,34,24,-9,-29,-53,24
-19,14,34,2,-26,24,24,19,-9,-29,-53,14
-19,14,34,2,-26,24,24,19,-9,-24,-53,14
-24,14,39,4,-31,26,24,24,-9,-24,-53,14
-24,14,39,4,-31,26,29,29,-9,-29,-53,14
-34,4,39,14,-36,21,29,29,-9,-39,-53,14
-29,4,34,12,-31,19,29,24,-9,-34,-53,14
-29,4,34,12,-31,19,29,24,-4,-34,-48,19
-29,4,34,12,-31,19,29,24,0,-34,-48,19
-24,14,39,4,-31,26,29,24,0,-34,-58,19
-24,14,39,4,-31,26,24,24,0,-34,-58,24
-24,14,39,4,-31,26,24,24,0,-34,-53,24
-24,14,39,4,-31,26,24,24,0,-34,-53,24
-24,14,39,4,-31,26,29,34,0,-34,-53,19
-24,14,39,4,-31,26,29,29,0,-34,-53,19
-24,14,39,4,-31,26,24,29,0,-34,-53,24
-19,19,39,0,-29,29,19,29,0,-34,-53,24
-19,9,29,4,-24,19,29,29,0,-34,-43,24
-19,9,29,4,-24,19,29,29,0,-34,-43,24
-19,9,29,4,-24,19,29,29,0,-34,-43,24
-19,9,29,4,-24,19,29,29,0,-34,-43,24
-19,9,29,4,-24,19,29,29,-9,-24,-43,24
-19,14,34,2,-26,24,29,34,-9,-24,-43,24
-19,14,34,2,-26,24,29,34,-9,-24,-43,24
-19,14,34,2,-26,24,34,34,-9,-24,-43,24
-19,24,43,-2,-31,34,24,24,0,-34,-43,24
-19,19,39,0,-29,29,29,29,0,-34,-43,24
-19,19,39,0,-29,29,29,29,0,-34,-43,24
-19,24,43,-2,-31,34,29,29,0,-34,-43,24
-19,24,43,-2,-31,34,24,39,0,-24,-43,34
-14,24,39,-4,-26,31,24,34,0,-24,-43,34
-9,24,34,-7,-21,29,24,29,0,-24,-43,34
-9,24,34,-7,-21,29,24,29,0,-24,-43,34
-19,24,43,-2,-31,34,24,29,0,-24,-34,34
-19,19,39,0,-29,29,24,29,0,-24,-39,34
-19,19,39,0,-29,29,29,34,0,-24,-39,34
-19,19,39,0,-29,29,29,34,-4,-24,-39,34
-19,24,43,-2,-31,34,29,34,-4,-24,-39,34
-19,24,43,-2,-31,34,29,34,0,-24,-39,34
-19,24,43,-2,-31,34,29,34,0,-24,-39,34
-19,24,43,-2,-31,34,29,34,0,-24,-39,34
-19,24,43,-2,-31,34,19,34,0,-24,-39,24
-19,24,43,-2,-31,34,19,34,0,-24,-39,24
-19,24,43,-2,-31,34,19,34,0,-24,-39,24
-19,24,43,-2,-31,34,19,34,0,-24,-39,24
-19,24,43,-2,-31,34,19,34,0,-24,-39,34
-19,24,43,-2,-31,34,19,34,0,-24,-39,34
-14,24,39,-4,-26,31,19,34,0,-24,-39,34
-14,24,39,-4,-26,31,19,29,0,-24,-39,34
-19,14,34,2,-26,24,14,29,0,-24,-43,34
-19,14,34,2,-26,24,14,29,0,-29,-43,34
-19,14,34,2,-26,24,19,29,0,-29,-43,34
-19,14,34,2,-26,24,19,29,0,-24,-43,34
-9,14,24,-2,-17,19,19,29,0,-24,-43,34
-9,14,24,-2,-17,19,19,29,0,-24,-48,34
-9,14,24,-2,-17,19,19,29,-4,-29,-48,34
-9,14,24,-2,-17,19,14,29,-4,-29,-48,34
-9,14,24,-2,-17,19,14,24,-4,-34,-48,19
-9,14,24,-2,-17,19,19,24,-4,-34,-48,19
-9,14,24,-2,-17,19,19,24,-4,-29,-43,19
-9,14,24,-2,-17,19,19,24,-9,-29,-43,19
-19,14,34,2,-26,24,19,14,-9,-29,-48,19
-19,9,29,4,-24,19,19,19,-9,-29,-48,24
-19,9,29,4,-24,19,19,19,-14,-34,-53,24
-19,9,29,4,-24,19,14,19,-14,-34,-58,19
-9,9,19,0,-14,14,14,19,-14,-39,-58,19
-9,9,19,0,-14,14,14,19,-14,-43,-58,14
-9,9,19,0,-14,14,14,14,-14,-43,-58,14
-9,4,14,2,-12,9,14,14,-14,-39,-58,14
-19,14,34,2,-26,24,9,4,-14,-39,-53,14
-19,14,34,2,-26,24,9,4,-14,-39,-53,14
-19,9,29,4,-24,19,0,4,-19,-43,-58,9
-19,9,29,4,-24,19,0,4,-19,-48,-58,9
-14,9,24,2,-19,17,9,0,-29,-48,-58,9
-14,9,24,2,-19,17,9,0,-29,-48,-63,9
-14,9,24,2,-19,17,9,0,-29,-48,-63,9
-14,9,24,2,-19,17,9,0,-29,-48,-63,9
-19,9,29,4,-24,19,19,0,-24,-48,-63,19
-19,9,29,4,-24,19,19,-4,-24,-48,-63,14
-19,9,29,4,-24,19,19,-4,-24,-53,-63,14
-19,9,29,4,-24,19,19,-4,-29,-53,-68,19
-9,0,9,4,-9,4,19,-4,-29,-53,-58,9
-14,0,14,7,-14,7,14,-9,-29,-53,-58,9
-14,0,14,7,-14,7,14,-9,-29,-53,-58,9
-14,0,14,7,-14,7,14,-9,-29,-53,-58,4
-29,4,34,12,-31,19,14,-14,-39,-53,-68,4
-29,4,34,12,-31,19,19,-14,-43,-53,-68,4
-24,4,29,9,-26,17,19,-14,-43,-53,-68,4
-24,4,29,9,-26,17,19,-14,-43,-58,-73,4
-24,-4,19,14,-21,7,9,-14,-43,-58,-63,4
-24,-4,19,14,-21,7,9,-14,-43,-63,-63,4
-24,-4,19,14,-21,7,9,-14,-43,-63,-63,4
-24,-4,19,14,-21,7,9,-19,-48,-63,-63,4
-24,-4,19,14,-21,7,9,-19,-48,-63,-73,0
-24,-4,19,14,-21,7,9,-19,-48,-63,-73,0
-24,-4,19,14,-21,7,9,-19,-48,-63,-73,0
-29,-4,24,17,-26,9,9,-19,-48,-63,-73,0
-29,-4,24,17,-26,9,4,-24,-48,-63,-73,0
-29,-4,24,17,-26,9,4,-24,-48,-63,-73,0
-29,-4,24,17,-26,9,4,-24,-48,-63,-73,0
-29,-4,24,17,-26,9,4,-24,-48,-63,-73,4
-29,-4,24,17,-26,9,9,-24,-43,-63,-78,4
-29,-4,24,17,-26,9,9,-24,-43,-63,-78,0
-29,-4,24,17,-26,9,9,-29,-43,-63,-78,0
-29,-14,14,21,-21,0,9,-29,-43,-63,-78,0
-29,-14,14,21,-21,0,9,-19,-48,-68,-78,0
-29,-9,19,19,-24,4,14,-19,-48,-68,-73,0
-29,-9,19,19,-24,4,14,-19,-48,-68,-73,0
-29,-9,19,19,-24,4,14,-19,-48,-63,-78,0
-29,-19,9,24,-19,-4,14,-19,-53,-63,-78,4
-29,-19,9,24,-19,-4,14,-19,-53,-68,-73,4
-29,-19,9,24,-19,-4,14,-19,-53,-68,-73,4
-29,-19,9,24,-19,-4,14,-19,-53,-68,-73,4
-29,-9,19,19,-24,4,4,-29,-43,-68,-73,4
-29,-9,19,19,-24,4,4,-29,-43,-63,-73,4
-29,-14,14,21,-21,0,4,-29,-48,-63,-73,4
-29,-14,14,21,-21,0,4,-29,-48,-63,-73,4
-19,-14,4,17,-12,-4,4,-24,-48,-63,-73,0
-24,-14,9,19,-17,-2,4,-24,-43,-63,-73,0
-24,-14,9,19,-17,-2,4,-29,-43,-63,-73,0
-24,-14,9,19,-17,-2,4,-34,-43,-68,-73,-4
-24,-14,9,19,-17,-2,4,-24,-43,-68,-78,-4
-24,-14,9,19,-17,-2,4,-19,-48,-63,-78,0
-24,-14,9,19,-17,-2,4,-19,-48,-63,-78,0
-24,-14,9,19,-17,-2,4,-24,-48,-63,-78,-4
-24,-14,9,19,-17,-2,4,-34,-53,-73,-78,-4
-24,-14,9,19,-17,-2,4,-34,-53,-73,-78,0
-24,-14,9,19,-17,-2,4,-34,-53,-78,-78,0
-24,-14,9,19,-17,-2,4,-29,-53,-78,-78,0
-24,-14,9,19,-17,-2,4,-29,-43,-68,-68,0
-24,-14,9,19,-17,-2,0,-29,-43,-68,-73,0
-24,-14,9,19,-17,-2,0,-34,-48,-68,-73,4
-24,-14,9,19,-17,-2,0,-34,-48,-68,-68,4
-19,-9,9,14,-14,0,9,-34,-53,-68,-82,-4
-19,-9,9,14,-14,0,9,-29,-48,-68,-78,0
-19,-19,0,19,-9,-9,9,-29,-48,-68,-78,0
-19,-19,0,19,-9,-9,9,-29,-48,-68,-78,0
-19,-19,0,19,-9,-9,9,-29,-48,-68,-78,0
-19,-19,0,19,-9,-9,9,-29,-48,-68,-78,0
-19,-9,9,14,-14,0,0,-29,-48,-78,-78,0
-19,-9,9,14,-14,0,0,-29,-48,-78,-78,0
-19,-9,9,14,-14,0,0,-29,-48,-78,-78,0
-19,-9,9,14,-14,0,0,-29,-48,-78,-78,0
-19,-9,9,14,-14,0,9,-29,-48,-68,-78,0
-19,-9,9,14,-14,0,9,-29,-48,-68,-78,0
-19,-9,9,14,-14,0,9,-29,-48,-68,-78,0
-19,-9,9,14,-14,0,9,-29,-48,-68,-78,0
-19,-19,0,19,-9,-9,9,-29,-58,-78,-78,0
-19,-19,0,19,-9,-9,9,-29,-58,-78,-78,0
-19,-19,0,19,-9,-9,9,-29,-58,-78,-78,0
-19,-19,0,19,-9,-9,9,-29,-58,-78,-78,0
-19,-9,9,14,-14,0,0,-29,-58,-68,-78,0
-19,-9,9,14,-14,0,0,-29,-58,-68,-78,0
-19,-9,9,14,-14,0,0,-29,-58,-68,-78,0
-19,-9,9,14,-14,0,0,-29,-58,-68,-78,0
-19,-19,0,19,-9,-9,9,-29,-58,-78,-78,0
-19,-19,0,19,-9,-9,9,-29,-58,-78,-78,0
-19,-19,0,19,-9,-9,9,-29,-58,-78,-78,0
-19,-19,0,19,-9,-9,9,-29,-58,-78,-78,0
-19,-9,9,14,-14,0,9,-29,-58,-78,-78,0
-19,-9,9,14,-14,0,9,-29,-58,-78,-78,0
-19,-9,9,14,-14,0,9,-29,-58,-78,-78,0
-19,-9,9,14,-14,0,9,-29,-58,-78,-78,0
-29,-19,9,24,-19,-4,9,-29,-48,-78,-78,0
-29,-19,9,24,-19,-4,9,-29,-48,-78,-78,0
-29,-19,9,24,-19,-4,9,-29,-48,-78,-78,0
-29,-19,9,24,-19,-4,9,-29,-48,-78,-78,0
-29,-19,9,24,-19,-4,9,-29,-48,-78,-78,0
-29,-19,9,24,-19,-4,9,-29,-48,-78,-78,0
-29,-19,9,24,-19,-4,9,-29,-48,-78,-78,0
