I, II, III, aVR, aVL, aVF, V1, V2, V3, V4, V5, V6
-214,-156,58,185,-136,-48,29,29,-9,-126,-107,-78
-214,-156,58,185,-136,-48,29,34,-9,-126,-107,-78
-214,-156,58,185,-136,-48,29,39,-9,-126,-107,-78
-214,-156,58,185,-136,-48,29,39,-9,-126,-107,-78
-214,-156,58,185,-136,-48,29,39,-9,-126,-107,-78
-214,-156,58,185,-136,-48,29,39,-9,-126,-102,-78
-214,-156,58,185,-136,-48,29,39,-9,-126,-97,-78
-214,-146,68,180,-141,-39,39,39,-4,-122,-92,-78
-214,-136,78,175,-146,-29,48,39,0,-117,-87,-78
-209,-136,73,173,-141,-31,48,39,0,-117,-87,-78
-204,-136,68,170,-136,-34,48,39,0,-117,-87,-78
-204,-136,68,170,-136,-34,43,34,-4,-117,-87,-78
-204,-136,68,170,-136,-34,39,29,-9,-117,-87,-78
-204,-136,68,170,-136,-34,39,29,-14,-117,-87,-78
-204,-136,68,170,-136,-34,39,29,-19,-117,-87,-78
-204,-136,68,170,-136,-34,39,29,-19,-117,-87,-82
-204,-136,68,170,-136,-34,39,29,-19,-117,-87,-87
-204,-136,68,170,-136,-34,39,29,-19,-117,-87,-87
-204,-136,68,170,-136,-34,39,29,-19,-117,-87,-87
-204,-141,63,173,-134,-39,39,29,-24,-117,-87,-87
-204,-146,58,175,-131,-43,39,29,-29,-117,-87,-87
-204,-146,58,175,-131,-43,39,19,-34,-122,-92,-87
-204,-146,58,175,-131,-43,39,9,-39,-126,-97,-87
-209,-151,58,180,-134,-46,39,9,-39,-126,-97,-92
-214,-156,58,185,-136,-48,39,9,-39,-126,-97,-97
-214,-156,58,185,-136,-48,39,9,-39,-126,-97,-97
-214,-156,58,185,-136,-48,39,9,-39,-126,-97,-97
-219,-141,78,180,-148,-31,39,9,-39,-122,-97,-97
-224,-126,97,175,-161,-14,39,9,-39,-117,-97,-97
-224,-122,102,173,-163,-9,48,9,-34,-112,-97,-92
-224,-117,107,170,-165,-4,58,14,-29,-107,-92,-87
-224,-117,107,170,-165,-4,68,19,-29,-102,-92,-82
-219,-107,112,163,-165,2,73,24,-24,-97,-87,-73
-219,-87,131,153,-175,21,68,14,-14,-92,-82,-73
-219,-73,146,146,-183,36,48,9,-14,-92,-82,-73
-214,-73,141,143,-178,34,24,-9,-29,-92,-78,-68
-214,-73,141,143,-178,34,0,-29,-48,-102,-73,-68
-209,-82,126,146,-168,21,-14,-48,-63,-107,-78,-68
-200,-82,117,141,-158,17,-24,-58,-68,-112,-78,-68
-204,-78,126,141,-165,24,-34,-73,-68,-112,-82,-73
-209,-68,141,139,-175,36,-43,-87,-73,-112,-82,-68
-209,-68,141,139,-175,36,-53,-87,-73,-107,-78,-63
-204,-53,151,129,-178,48,-58,-87,-68,-97,-63,-48
-195,-34,161,114,-178,63,-53,-78,-53,-87,-53,-24
-180,-24,156,102,-168,65,-43,-73,-43,-82,-48,-14
-180,-34,146,107,-163,56,-43,-68,-39,-87,-48,-9
-180,-39,141,109,-161,51,-43,-68,-34,-82,-39,0
-185,-24,161,104,-173,68,-48,-68,-29,-73,-24,14
-185,-9,175,97,-180,82,-53,-63,-19,-58,-14,29
-165,4,170,80,-168,87,-43,-48,0,-39,0,34
-170,-29,141,100,-156,56,-14,-39,-19,-68,-14,0
-200,-82,117,141,-158,17,4,-29,-48,-102,-53,-43
-209,-112,97,161,-153,-7,19,-24,-53,-112,-78,-63
-229,-126,102,178,-165,-12,29,-34,-73,-131,-97,-82
-234,-146,87,190,-161,-29,43,-34,-82,-146,-122,-107
-234,-165,68,200,-151,-48,48,-29,-97,-161,-131,-117
-234,-185,48,209,-141,-68,53,-24,-107,-175,-151,-131
-229,-195,34,212,-131,-80,58,-24,-107,-175,-161,-141
-229,-204,24,217,-126,-90,68,-24,-112,-180,-165,-146
-229,-214,14,222,-122,-100,68,-29,-122,-195,-165,-146
-234,-219,14,226,-124,-102,68,-34,-131,-200,-165,-146
-234,-219,14,226,-124,-102,63,-34,-131,-204,-170,-151
-234,-219,14,226,-124,-102,58,-34,-131,-204,-170,-156
-234,-214,19,224,-126,-97,58,-34,-136,-209,-175,-161
-234,-209,24,222,-129,-92,63,-34,-136,-209,-175,-165
-234,-209,24,222,-129,-92,73,-34,-136,-204,-175,-165
-229,-214,14,222,-122,-100,78,-39,-126,-200,-175,-165
-234,-224,9,229,-122,-107,78,-34,-126,-200,-175,-165
-239,-224,14,231,-126,-104,82,-34,-126,-195,-175,-161
-239,-219,19,229,-129,-100,82,-34,-126,-195,-180,-161
-239,-214,24,226,-131,-95,78,-34,-126,-195,-180,-161
-229,-214,14,222,-122,-100,68,-34,-126,-200,-180,-165
-209,-200,9,204,-109,-95,53,-48,-117,-190,-165,-151
-209,-180,29,195,-119,-75,34,-73,-122,-185,-165,-141
-200,-151,48,175,-124,-51,24,-63,-68,-156,-156,-126
-195,-126,68,161,-131,-29,14,-48,48,-92,-102,-97
-146,-29,117,87,-131,43,-58,-107,161,58,39,29
-58,161,219,-51,-139,190,-170,-195,278,307,263,229
48,336,287,-192,-119,312,-312,-302,414,566,507,458
170,566,395,-368,-112,480,-473,-409,614,902,844,751
263,775,512,-519,-124,644,-605,-488,780,1185,1132,1010
351,917,566,-634,-107,741,-727,-570,854,1429,1356,1210
400,873,473,-636,-36,673,-780,-619,785,1400,1395,1278
380,610,229,-495,75,419,-746,-741,409,1019,1161,1127
297,214,-82,-256,190,65,-634,-795,-87,473,780,858
87,-122,-209,17,148,-165,-434,-775,-673,-141,307,497
-97,-209,-112,153,7,-161,-263,-678,-854,-380,73,287
-214,-224,-9,219,-102,-117,-126,-546,-775,-400,-34,146
-253,-185,68,219,-161,-58,-63,-434,-658,-385,-78,68
-258,-161,97,209,-178,-31,-24,-258,-507,-356,-141,-19
-258,-156,102,207,-180,-26,-14,-151,-400,-331,-175,-78
-248,-146,102,197,-175,-21,14,-151,-336,-283,-175,-97
-229,-136,92,183,-161,-21,53,-117,-244,-239,-170,-112
-224,-131,92,178,-158,-19,92,-19,-146,-219,-165,-117
-214,-136,78,175,-146,-29,112,29,-82,-200,-165,-131
-209,-146,63,178,-136,-41,117,34,-58,-185,-165,-136
-209,-146,63,178,-136,-41,126,39,-48,-185,-170,-141
-214,-146,68,180,-141,-39,136,58,-34,-190,-175,-151
-219,-151,68,185,-143,-41,136,73,-24,-190,-175,-161
-214,-161,53,187,-134,-53,136,73,-19,-190,-175,-165
-209,-161,48,185,-129,-56,136,73,-19,-180,-175,-170
-209,-156,53,183,-131,-51,141,73,-14,-180,-175,-170
-209,-151,58,180,-134,-46,141,78,-9,-175,-175,-175
-204,-151,53,178,-129,-48,141,82,-4,-175,-175,-170
-195,-146,48,170,-122,-48,136,87,0,-170,-170,-161
-195,-151,43,173,-119,-53,136,87,4,-161,-170,-161
-195,-156,39,175,-117,-58,136,92,19,-156,-170,-161
-195,-156,39,175,-117,-58,141,92,19,-146,-161,-156
-190,-156,34,173,-112,-61,146,92,24,-146,-156,-156
-190,-151,39,170,-114,-56,146,102,29,-141,-156,-156
-185,-151,34,168,-109,-58,146,107,39,-136,-151,-156
-190,-136,53,163,-122,-41,146,112,48,-136,-146,-151
-190,-126,63,158,-126,-31,141,112,58,-131,-146,-151
-190,-126,63,158,-126,-31,141,117,68,-126,-141,-146
-180,-122,58,151,-119,-31,141,122,73,-122,-136,-146
-180,-117,63,148,-122,-26,141,131,92,-112,-126,-141
-175,-112,63,143,-119,-24,141,141,112,-107,-122,-136
-170,-97,73,134,-122,-12,136,151,131,-97,-126,-131
-161,-92,68,126,-114,-12,131,161,146,-82,-126,-126
-161,-73,87,117,-124,7,131,170,170,-73,-112,-126
-156,-68,87,112,-122,9,131,185,195,-63,-107,-112
-146,-68,78,107,-112,4,131,200,224,-43,-102,-107
-141,-58,82,100,-112,12,131,224,253,-24,-92,-97
-131,-53,78,92,-104,12,126,244,278,-4,-78,-92
-131,-39,92,85,-112,26,122,263,312,19,-63,-82
-112,-14,97,63,-104,41,126,287,361,39,-43,-73
-97,4,102,46,-100,53,126,312,409,68,-29,-58
-73,9,82,31,-78,46,122,341,458,97,-9,-39
-58,34,92,12,-75,63,122,370,517,131,19,-19
-58,58,117,0,-87,87,131,405,575,165,43,14
-43,73,117,-14,-80,95,131,434,629,204,73,34
-24,87,112,-31,-68,100,126,453,678,244,107,53
-9,122,131,-56,-70,126,117,473,727,283,136,78
4,161,156,-82,-75,158,112,492,775,322,175,107
19,190,170,-104,-75,180,107,512,814,351,195,131
29,209,180,-119,-75,195,107,517,844,375,229,161
34,244,209,-139,-87,226,102,527,873,409,253,180
43,258,214,-151,-85,236,87,531,902,429,278,200
53,268,214,-161,-80,241,82,536,917,448,297,219
63,287,224,-175,-80,256,73,527,922,453,307,229
68,297,229,-183,-80,263,68,507,902,458,312,239
58,297,239,-178,-90,268,48,488,878,463,326,248
48,292,244,-170,-97,268,39,453,839,448,336,253
34,292,258,-163,-112,275,39,419,785,419,322,244
29,278,248,-153,-109,263,29,380,712,390,302,234
19,283,263,-151,-122,273,29,336,639,356,287,229
14,268,253,-141,-119,261,29,292,566,317,263,209
-4,229,234,-112,-119,231,29,244,492,268,229,190
-19,204,224,-92,-122,214,29,195,414,219,185,156
-29,180,209,-75,-119,195,24,161,346,180,156,131
-53,146,200,-46,-126,173,24,126,278,131,122,97
-82,102,185,-9,-134,143,34,92,219,87,87,68
-102,68,170,17,-136,119,39,58,170,53,58,43
-107,43,151,31,-129,97,39,39,126,14,24,14
-122,19,141,51,-131,80,39,19,82,-14,0,-9
-126,-9,117,68,-122,53,43,4,48,-43,-24,-29
-136,-29,107,82,-122,39,48,-4,14,-73,-43,-48
-151,-39,112,95,-131,36,53,-14,0,-87,-63,-63
-156,-58,97,107,-126,19,58,-24,-19,-102,-78,-78
-161,-63,97,112,-129,17,58,-24,-34,-112,-87,-87
-170,-73,97,122,-134,12,63,-29,-48,-122,-102,-92
-180,-87,92,134,-136,2,63,-29,-58,-131,-107,-102
-185,-97,87,141,-136,-4,63,-34,-63,-131,-107,-102
-185,-117,68,151,-126,-24,73,-34,-68,-136,-107,-102
-190,-126,63,158,-126,-31,82,-39,-68,-141,-112,-107
-190,-122,68,156,-129,-26,73,-39,-78,-146,-122,-117
-190,-122,68,156,-129,-26,63,-39,-82,-151,-126,-122
-190,-117,73,153,-131,-21,68,-39,-82,-156,-126,-126
-190,-122,68,156,-129,-26,73,-39,-82,-161,-126,-126
-190,-126,63,158,-126,-31,73,-39,-82,-161,-126,-126
-190,-126,63,158,-126,-31,73,-39,-82,-156,-126,-126
-185,-126,58,156,-122,-34,68,-34,-82,-156,-122,-122
-185,-117,68,151,-126,-24,68,-29,-78,-156,-117,-122
-185,-117,68,151,-126,-24,73,-34,-78,-151,-117,-122
-185,-117,68,151,-126,-24,78,-34,-78,-141,-112,-122
-175,-112,63,143,-119,-24,82,-34,-78,-141,-112,-122
-175,-107,68,141,-122,-19,87,-29,-73,-141,-117,-117
-175,-107,68,141,-122,-19,82,-29,-78,-141,-122,-122
-175,-92,82,134,-129,-4,87,-34,-78,-141,-122,-126
-185,-102,82,143,-134,-9,78,-29,-78,-141,-122,-131
-190,-102,87,146,-139,-7,78,-29,-78,-141,-126,-136
-185,-97,87,141,-136,-4,78,-39,-78,-146,-126,-136
-180,-97,82,139,-131,-7,73,-43,-78,-151,-126,-136
-180,-102,78,141,-129,-12,68,-39,-68,-146,-126,-136
-180,-107,73,143,-126,-17,68,-39,-68,-146,-122,-141
-185,-112,73,148,-129,-19,68,-39,-68,-146,-126,-141
-185,-122,63,153,-124,-29,73,-39,-68,-146,-126,-136
-185,-122,63,153,-124,-29,73,-39,-68,-146,-126,-141
-180,-107,73,143,-126,-17,82,-34,-73,-146,-126,-146
-175,-87,87,131,-131,0,63,-34,-73,-146,-131,-146
-175,-73,102,124,-139,14,58,-34,-73,-146,-131,-146
-170,-87,82,129,-126,-2,58,-34,-73,-146,-126,-136
-165,-87,78,126,-122,-4,63,-34,-68,-146,-122,-131
-165,-87,78,126,-122,-4,73,-34,-68,-151,-122,-141
-170,-92,78,131,-124,-7,82,-34,-68,-146,-122,-141
-175,-82,92,129,-134,4,82,-34,-68,-146,-122,-141
-175,-82,92,129,-134,4,78,-34,-68,-146,-122,-136
-175,-87,87,131,-131,0,82,-34,-68,-136,-122,-131
-175,-92,82,134,-129,-4,82,-34,-68,-126,-122,-131
-175,-97,78,136,-126,-9,82,-29,-68,-131,-122,-136
-175,-97,78,136,-126,-9,82,-29,-73,-131,-122,-136
-175,-92,82,134,-129,-4,87,-29,-73,-136,-126,-141
-170,-82,87,126,-129,2,92,-29,-78,-136,-126,-141
-170,-82,87,126,-129,2,92,-29,-78,-136,-126,-136
-175,-92,82,134,-129,-4,87,-24,-78,-136,-126,-136
-175,-92,82,134,-129,-4,87,-14,-78,-131,-126,-126
-180,-92,87,136,-134,-2,87,-9,-73,-126,-126,-117
-180,-92,87,136,-134,-2,87,-24,-78,-131,-122,-117
-175,-92,82,134,-129,-4,97,-29,-78,-131,-122,-122
-170,-87,82,129,-126,-2,92,-29,-82,-131,-117,-126
-165,-87,78,126,-122,-4,87,-29,-87,-136,-117,-136
-165,-73,92,119,-129,9,87,-29,-78,-126,-117,-136
-165,-58,107,112,-136,24,87,-29,-68,-117,-117,-136
-170,-53,117,112,-143,31,87,-29,-68,-117,-117,-131
-175,-48,126,112,-151,39,92,-24,-68,-112,-112,-126
-185,-48,136,117,-161,43,97,-24,-68,-112,-112,-126
-190,-39,151,114,-170,56,102,-24,-63,-107,-107,-122
-190,-24,165,107,-178,70,97,-29,-53,-102,-102,-122
-190,-14,175,102,-183,80,78,-29,-53,-102,-102,-122
-180,-14,165,97,-173,75,48,-48,-68,-92,-102,-117
-175,-14,161,95,-168,73,19,-68,-87,-92,-102,-117
-170,-24,146,97,-158,61,4,-92,-112,-112,-107,-122
-161,-24,136,92,-148,56,-4,-107,-126,-131,-107,-126
-161,-24,136,92,-148,56,-9,-117,-126,-131,-107,-126
-161,-19,141,90,-151,61,-14,-126,-131,-131,-102,-117
-156,-19,136,87,-146,58,-19,-126,-126,-122,-102,-112
-146,-4,141,75,-143,68,-19,-126,-117,-107,-92,-97
-136,-9,126,73,-131,58,-9,-117,-102,-97,-82,-73
-122,-24,97,73,-109,36,4,-112,-92,-92,-78,-63
-122,-24,97,73,-109,36,4,-107,-87,-92,-68,-58
-122,-19,102,70,-112,41,4,-107,-82,-82,-48,-48
-126,19,146,53,-136,82,0,-107,-78,-73,-34,-34
-126,58,185,34,-156,122,-4,-102,-68,-58,-24,-19
-117,58,175,29,-146,117,4,-87,-48,-48,-24,-19
-131,9,141,61,-136,75,34,-78,-68,-87,-53,-58
-161,-53,107,107,-134,26,58,-73,-97,-122,-92,-102
-170,-92,78,131,-124,-7,78,-73,-102,-131,-117,-122
-185,-107,78,146,-131,-14,92,-78,-122,-156,-131,-136
-185,-126,58,156,-122,-34,112,-73,-131,-175,-151,-156
-180,-136,43,158,-112,-46,117,-68,-141,-185,-151,-161
-175,-146,29,161,-102,-58,122,-63,-146,-195,-161,-170
-175,-156,19,165,-97,-68,117,-63,-146,-190,-170,-180
-180,-165,14,173,-97,-75,117,-63,-151,-190,-175,-185
-185,-180,4,183,-95,-87,117,-63,-165,-200,-180,-190
-195,-190,4,192,-100,-92,117,-63,-180,-200,-185,-195
-200,-190,9,195,-104,-90,117,-63,-180,-204,-190,-200
-204,-190,14,197,-109,-87,117,-63,-180,-204,-190,-204
-204,-190,14,197,-109,-87,117,-63,-185,-209,-195,-204
-204,-190,14,197,-109,-87,122,-63,-185,-209,-195,-204
-204,-190,14,197,-109,-87,122,-58,-185,-214,-195,-204
-200,-195,4,197,-102,-95,117,-58,-175,-219,-195,-204
-200,-204,-4,202,-97,-104,117,-53,-175,-224,-195,-209
-200,-204,-4,202,-97,-104,122,-53,-175,-224,-195,-209
-200,-180,19,190,-109,-80,122,-58,-180,-224,-200,-214
-200,-156,43,178,-122,-56,117,-63,-185,-224,-200,-219
-195,-185,9,190,-102,-87,112,-68,-180,-229,-209,-219
-180,-200,-19,190,-80,-109,102,-87,-165,-219,-204,-200
-190,-190,0,190,-95,-95,92,-112,-151,-195,-185,-185
-190,-170,19,180,-104,-75,92,-102,-78,-146,-156,-165
-175,-122,53,148,-114,-34,63,-78,39,-78,-97,-131
-117,0,117,58,-117,58,-29,-126,151,78,48,0
-29,190,219,-80,-124,204,-151,-224,273,331,283,204
78,366,287,-222,-104,326,-302,-341,414,595,536,439
180,600,419,-390,-119,509,-434,-439,590,927,868,732
253,814,561,-534,-153,688,-536,-507,732,1205,1151,990
322,917,595,-619,-136,756,-649,-590,775,1410,1346,1166
351,834,483,-592,-65,658,-692,-639,678,1342,1356,1210
322,570,248,-446,36,409,-668,-771,263,932,1093,1039
229,175,-53,-202,141,61,-566,-834,-273,356,683,751
43,-146,-190,51,117,-168,-356,-800,-795,-224,234,414
-117,-219,-102,168,-7,-161,-175,-688,-912,-429,24,229
-229,-234,-4,231,-112,-119,-68,-566,-839,-453,-92,73
-263,-195,68,229,-165,-63,-34,-463,-727,-444,-146,-19
-258,-170,87,214,-173,-41,4,-307,-566,-409,-200,-107
-248,-165,82,207,-165,-41,14,-219,-448,-380,-224,-165
-234,-156,78,195,-156,-39,39,-204,-385,-331,-224,-180
-209,-146,63,178,-136,-41,73,-156,-292,-287,-219,-190
-204,-146,58,175,-131,-43,107,-53,-195,-263,-204,-190
-195,-156,39,175,-117,-58,122,0,-131,-239,-195,-200
-185,-161,24,173,-104,-68,126,4,-112,-209,-195,-204
-180,-156,24,168,-102,-65,136,9,-107,-195,-200,-209
-180,-151,29,165,-104,-61,156,29,-82,-200,-204,-214
-180,-151,29,165,-104,-61,165,43,-63,-200,-204,-219
-180,-165,14,173,-97,-75,165,43,-58,-200,-204,-219
-180,-170,9,175,-95,-80,165,43,-58,-190,-204,-219
-180,-170,9,175,-95,-80,170,43,-53,-190,-204,-224
-180,-170,9,175,-95,-80,170,48,-48,-185,-204,-234
-180,-175,4,178,-92,-85,170,53,-48,-185,-204,-234
-175,-175,0,175,-87,-87,165,58,-48,-180,-200,-229
-175,-175,0,175,-87,-87,161,58,-48,-175,-200,-229
-175,-175,0,175,-87,-87,156,63,-39,-175,-200,-229
-170,-161,9,165,-90,-75,156,63,-39,-165,-195,-219
-161,-146,14,153,-87,-65,156,63,-34,-165,-195,-214
-161,-156,4,158,-82,-75,156,73,-24,-161,-195,-214
-156,-170,-14,163,-70,-92,156,78,-9,-156,-190,-214
-156,-151,4,153,-80,-73,156,82,0,-156,-185,-209
-151,-136,14,143,-82,-61,151,82,9,-151,-185,-209
-151,-136,14,143,-82,-61,146,87,14,-146,-180,-204
-141,-131,9,136,-75,-61,141,92,14,-141,-175,-204
-141,-131,9,136,-75,-61,141,102,29,-141,-175,-200
-136,-131,4,134,-70,-63,141,112,43,-146,-180,-195
-136,-117,19,126,-78,-48,141,122,63,-136,-170,-190
-131,-112,19,122,-75,-46,141,131,78,-122,-156,-185
-131,-92,39,112,-85,-26,141,136,97,-117,-141,-185
-126,-87,39,107,-82,-24,141,146,117,-112,-136,-170
-112,-87,24,100,-68,-31,141,161,146,-92,-126,-165
-102,-78,24,90,-63,-26,141,185,175,-73,-112,-156
-92,-73,19,82,-56,-26,141,204,204,-58,-97,-146
-92,-58,34,75,-63,-12,141,224,244,-39,-82,-131
-73,-34,39,53,-56,2,141,244,287,-19,-73,-126
-58,-14,43,36,-51,14,136,263,331,9,-68,-117
-43,-4,39,24,-41,17,131,292,375,43,-48,-97
-39,24,63,7,-51,43,131,322,429,82,-19,-78
-29,53,82,-12,-56,68,131,346,488,117,4,-43
-4,73,78,-34,-41,75,122,366,541,156,34,-24
19,92,73,-56,-26,82,117,385,590,195,73,0
39,131,92,-85,-26,112,107,405,639,234,107,29
58,170,112,-114,-26,141,102,424,688,278,151,58
78,200,122,-139,-21,161,97,444,727,312,175,82
87,219,131,-153,-21,175,92,448,756,336,209,112
92,253,161,-173,-34,207,82,458,785,370,234,131
102,268,165,-185,-31,217,73,458,805,390,258,156
112,278,165,-195,-26,222,73,458,810,409,278,180
122,302,180,-212,-29,241,63,458,819,414,292,195
126,317,190,-222,-31,253,58,448,805,419,302,209
122,326,204,-224,-41,265,43,429,771,424,312,214
117,331,214,-224,-48,273,39,395,722,409,317,214
102,331,229,-217,-63,280,39,366,673,380,302,204
97,317,219,-207,-61,268,29,331,605,351,283,195
78,307,229,-192,-75,268,29,287,531,317,268,185
63,278,214,-170,-75,246,29,244,458,278,244,161
43,248,204,-146,-80,226,34,204,395,234,209,141
29,234,204,-131,-87,219,39,165,326,190,165,107
19,200,180,-109,-80,190,39,131,258,151,136,82
-4,156,161,-75,-82,158,43,97,190,102,102,48
-14,126,141,-56,-78,134,53,73,136,58,63,19
-14,107,122,-46,-68,114,58,48,92,24,29,-4
-19,87,107,-34,-63,97,48,24,48,-14,0,-29
-34,68,102,-17,-68,85,39,0,4,-43,-19,-48
-39,39,78,0,-58,58,58,-4,-19,-63,-39,-63
-48,19,68,14,-58,43,78,-4,-43,-82,-53,-78
-58,4,63,26,-61,34,82,-9,-63,-97,-73,-92
-58,-19,39,39,-48,9,87,-14,-87,-112,-87,-107
-63,-29,34,46,-48,2,87,-14,-97,-122,-97,-117
-73,-43,29,58,-51,-7,92,-19,-107,-131,-112,-122
-73,-48,24,61,-48,-12,92,-19,-117,-141,-117,-131
-68,-48,19,58,-43,-14,92,-24,-122,-141,-117,-131
-68,-58,9,63,-39,-24,92,-24,-126,-146,-117,-126
-73,-58,14,65,-43,-21,92,-29,-126,-151,-122,-126
-73,-53,19,63,-46,-17,92,-29,-126,-156,-126,-131
-73,-53,19,63,-46,-17,92,-29,-122,-161,-126,-131
-73,-43,29,58,-51,-7,97,-29,-122,-165,-126,-136
-73,-43,29,58,-51,-7,102,-29,-122,-170,-126,-136
-63,-34,29,48,-46,-2,102,-24,-122,-170,-126,-136
-53,-19,34,36,-43,7,102,-19,-122,-165,-126,-136
-53,-29,24,41,-39,-2,102,-19,-122,-165,-126,-136
-58,-29,29,43,-43,0,107,-19,-117,-165,-126,-141
-58,-39,19,48,-39,-9,107,-24,-122,-165,-126,-141
-58,-48,9,53,-34,-19,107,-24,-126,-161,-122,-141
-48,-34,14,41,-31,-9,102,-24,-126,-151,-122,-141
-48,-19,29,34,-39,4,97,-19,-122,-141,-126,-136
-43,-19,24,31,-34,2,97,-14,-122,-141,-126,-126
-39,-4,34,21,-36,14,107,-14,-117,-141,-122,-117
-43,-19,24,31,-34,2,107,-4,-117,-141,-112,-117
-43,-24,19,34,-31,-2,117,0,-117,-141,-107,-117
-39,-19,19,29,-29,0,117,0,-117,-141,-107,-117
-34,-19,14,26,-24,-2,112,4,-117,-141,-107,-117
-34,-4,29,19,-31,12,107,4,-107,-136,-112,-117
-34,9,43,12,-39,26,107,0,-107,-136,-112,-122
-39,4,43,17,-41,24,107,0,-102,-136,-112,-122
-39,-4,34,21,-36,14,112,0,-97,-136,-107,-117
-43,-19,24,31,-34,2,117,0,-92,-136,-107,-117
-43,-19,24,31,-34,2,131,4,-92,-136,-107,-117
-39,-4,34,21,-36,14,117,4,-92,-136,-112,-117
-39,4,43,17,-41,24,117,4,-92,-136,-112,-117
-29,0,29,14,-29,14,112,4,-92,-136,-107,-112
-19,9,29,4,-24,19,112,4,-87,-136,-102,-112
-19,14,34,2,-26,24,112,4,-87,-136,-102,-122
-24,14,39,4,-31,26,112,4,-87,-126,-102,-122
-24,14,39,4,-31,26,112,4,-82,-126,-102,-122
-19,4,24,7,-21,14,107,4,-78,-126,-102,-117
-19,4,24,7,-21,14,107,4,-78,-117,-102,-107
-19,4,24,7,-21,14,102,4,-78,-107,-102,-102
-19,0,19,9,-19,9,97,9,-73,-112,-97,-107
-19,0,19,9,-19,9,92,9,-73,-112,-92,-107
-14,9,24,2,-19,17,87,9,-73,-117,-97,-107
-4,24,29,-9,-17,26,82,9,-78,-117,-97,-102
-4,24,29,-9,-17,26,97,9,-78,-122,-102,-102
-9,14,24,-2,-17,19,107,14,-78,-126,-107,-107
-9,14,24,-2,-17,19,107,14,-82,-126,-107,-107
-14,14,29,0,-21,21,107,9,-82,-126,-107,-107
-9,14,24,-2,-17,19,107,9,-87,-126,-97,-102
0,14,14,-7,-7,14,117,19,-87,-122,-92,-102
0,19,19,-9,-9,19,117,19,-82,-112,-87,-92
4,24,19,-14,-7,21,117,24,-78,-107,-82,-87
9,34,24,-21,-7,29,112,24,-73,-102,-78,-87
19,48,29,-34,-4,39,107,29,-68,-97,-78,-87
19,53,34,-36,-7,43,117,29,-68,-97,-78,-87
19,58,39,-39,-9,48,126,29,-68,-97,-78,-87
19,73,53,-46,-17,63,126,29,-68,-97,-78,-82
14,87,73,-51,-29,80,126,29,-63,-92,-68,-78
14,107,92,-61,-39,100,131,34,-63,-87,-63,-73
14,131,117,-73,-51,124,126,24,-53,-82,-53,-73
14,141,126,-78,-56,134,107,14,-48,-82,-53,-73
19,141,122,-80,-51,131,82,-9,-58,-82,-53,-68
19,136,117,-78,-48,126,58,-29,-78,-92,-53,-73
24,122,97,-73,-36,109,48,-48,-92,-97,-58,-78
39,107,68,-73,-14,87,43,-53,-97,-102,-58,-78
43,97,53,-70,-4,75,39,-53,-97,-102,-58,-78
43,117,73,-80,-14,95,34,-58,-97,-102,-53,-68
43,126,82,-85,-19,104,29,-58,-92,-97,-48,-63
29,141,112,-85,-41,126,34,-58,-82,-87,-34,-43
19,151,131,-85,-56,141,43,-48,-68,-78,-24,-19
43,151,107,-97,-31,129,53,-43,-63,-73,-19,-14
53,151,97,-102,-21,124,53,-39,-58,-73,-14,-9
53,156,102,-104,-24,129,53,-39,-53,-63,0,4
48,170,122,-109,-36,146,53,-39,-48,-53,14,24
48,185,136,-117,-43,161,53,-34,-34,-34,34,39
58,185,126,-122,-34,156,63,-19,-9,-19,43,39
43,136,92,-90,-24,114,92,-4,-29,-58,14,0
14,82,68,-48,-26,75,112,4,-58,-92,-24,-43
4,53,48,-29,-21,51,131,9,-63,-107,-48,-63
-9,39,48,-14,-29,43,141,4,-82,-131,-63,-82
-9,19,29,-4,-19,24,151,4,-92,-146,-87,-107
-9,4,14,2,-12,9,156,9,-97,-156,-97,-112
-9,-9,0,9,-4,-4,161,14,-97,-165,-112,-122
-9,-19,-9,14,0,-14,161,14,-97,-165,-122,-131
-14,-29,-14,21,0,-21,161,14,-107,-170,-126,-136
-14,-34,-19,24,2,-26,156,14,-117,-180,-126,-136
-14,-29,-14,21,0,-21,156,14,-126,-180,-126,-141
-9,-24,-14,17,2,-19,156,14,-131,-185,-131,-151
-9,-24,-14,17,2,-19,156,14,-131,-185,-136,-156
-9,-24,-14,17,2,-19,156,14,-136,-190,-146,-156
-9,-34,-24,21,7,-29,161,14,-131,-190,-146,-151
-9,-43,-34,26,12,-39,165,19,-126,-190,-146,-146
0,-48,-48,24,24,-48,165,19,-117,-185,-141,-136
4,-58,-63,26,34,-61,165,24,-117,-180,-136,-126
4,-58,-63,26,34,-61,170,24,-117,-175,-136,-131
4,-53,-58,24,31,-56,170,24,-117,-175,-136,-141
4,-48,-53,21,29,-51,165,24,-117,-185,-136,-146
9,-48,-58,19,34,-53,151,19,-112,-190,-141,-151
19,-34,-53,7,36,-43,136,0,-97,-170,-126,-131
14,-9,-24,-2,19,-17,122,-24,-68,-141,-102,-112
19,19,0,-19,9,9,117,-14,19,-82,-68,-82
39,73,34,-56,2,53,78,-14,136,29,24,-9
107,204,97,-156,4,151,-29,-87,244,229,219,161
195,405,209,-300,-7,307,-151,-185,370,502,488,385
302,595,292,-448,4,444,-302,-302,522,780,761,634
405,800,395,-602,4,597,-434,-395,673,1078,1054,893
478,980,502,-729,-12,741,-536,-453,790,1337,1298,1122
536,1029,492,-783,21,761,-629,-531,766,1449,1415,1244
556,893,336,-724,109,614,-653,-575,600,1263,1342,1229
497,605,107,-551,195,356,-580,-658,185,824,1054,1039
375,185,-190,-280,283,-2,-424,-678,-346,219,619,727
200,-63,-263,-68,231,-163,-239,-634,-780,-278,219,409
48,-63,-112,7,80,-87,-87,-512,-814,-390,63,248
-39,-78,-39,58,0,-58,14,-390,-717,-400,-34,117
-53,-39,14,46,-34,-12,43,-292,-580,-370,-68,48
-63,-19,43,41,-53,12,82,-156,-444,-331,-117,-29
-63,-14,48,39,-56,17,87,-82,-356,-302,-136,-82
-53,0,53,26,-53,26,112,-68,-297,-253,-136,-102
-34,9,43,12,-39,26,151,-19,-204,-209,-131,-112
-29,9,39,9,-34,24,185,63,-126,-190,-126,-117
-19,-4,14,12,-17,4,200,97,-82,-170,-126,-131
-14,-19,-4,17,-4,-12,204,102,-63,-156,-126,-136
-14,-24,-9,19,-2,-17,214,107,-53,-151,-131,-141
-14,-24,-9,19,-2,-17,224,126,-34,-151,-136,-146
-14,-24,-9,19,-2,-17,229,141,-24,-151,-136,-151
-9,-34,-24,21,7,-29,234,141,-19,-151,-136,-151
-4,-29,-24,17,9,-26,234,141,-19,-141,-136,-151
-4,-24,-19,14,7,-21,239,141,-14,-141,-136,-151
-4,-24,-19,14,7,-21,239,141,-14,-136,-136,-156
-4,-24,-19,14,7,-21,239,136,-14,-136,-136,-156
-4,-19,-14,12,4,-17,234,136,-9,-131,-131,-151
-9,-19,-9,14,0,-14,234,136,-4,-126,-131,-151
-9,-19,-9,14,0,-14,234,141,9,-126,-131,-151
-9,-14,-4,12,-2,-9,234,141,9,-117,-126,-146
-4,-14,-9,9,2,-12,234,136,14,-122,-126,-146
-4,-14,-9,9,2,-12,234,141,19,-122,-126,-146
0,-14,-14,7,7,-14,239,146,29,-117,-122,-146
0,-4,-4,2,2,-4,244,151,39,-117,-117,-141
4,4,0,-4,2,2,239,151,48,-112,-117,-141
4,9,4,-7,0,7,239,156,58,-107,-112,-136
14,19,4,-17,4,12,234,156,58,-107,-112,-136
14,24,9,-19,2,17,229,161,73,-102,-107,-131
19,24,4,-21,7,14,224,170,92,-97,-102,-126
19,39,19,-29,0,29,214,180,112,-87,-102,-122
24,34,9,-29,7,21,209,190,126,-63,-97,-117
24,43,19,-34,2,31,209,200,151,-43,-82,-117
29,48,19,-39,4,34,209,214,180,-34,-78,-102
43,48,4,-46,19,26,209,229,214,-14,-68,-97
53,68,14,-61,19,41,214,258,244,4,-53,-87
63,82,19,-73,21,51,214,283,278,24,-39,-78
63,87,24,-75,19,56,209,307,317,43,-24,-63
82,102,19,-92,31,61,209,336,361,58,-4,-53
97,122,24,-109,36,73,214,361,409,87,9,-39
112,131,19,-122,46,75,219,390,458,122,29,-19
117,161,43,-139,36,102,219,419,517,161,58,0
126,185,58,-156,34,122,219,448,575,195,82,34
146,195,48,-170,48,122,209,473,629,234,112,53
161,209,48,-185,56,129,204,492,678,273,146,78
175,239,63,-207,56,151,195,502,722,312,175,107
190,268,78,-229,56,173,190,507,761,351,214,136
200,297,97,-248,51,197,185,522,795,380,234,161
204,312,107,-258,48,209,180,527,824,405,268,190
209,341,131,-275,39,236,170,536,858,439,292,209
219,356,136,-287,41,246,156,536,883,458,317,229
224,361,136,-292,43,248,151,536,888,478,336,248
224,380,156,-302,34,268,141,527,888,483,346,258
224,395,170,-309,26,283,136,502,863,488,351,268
214,395,180,-305,17,287,122,473,829,488,356,273
204,390,185,-297,9,287,112,434,775,468,356,268
190,390,200,-290,-4,295,107,400,717,439,341,253
185,366,180,-275,2,273,97,361,644,409,322,244
165,346,180,-256,-7,263,97,317,570,370,302,229
146,317,170,-231,-12,244,97,273,497,326,273,200
122,278,156,-200,-17,217,97,229,424,278,239,180
102,253,151,-178,-24,202,87,185,346,229,190,151
87,219,131,-153,-21,175,78,151,278,190,156,131
63,175,112,-119,-24,143,82,117,209,146,122,97
39,141,102,-90,-31,122,92,92,156,107,87,68
19,117,97,-68,-39,107,97,73,117,73,58,39
9,97,87,-53,-39,92,97,63,78,34,29,9
-4,78,82,-36,-43,80,92,48,34,4,9,-9
-9,48,58,-19,-34,53,92,34,9,-19,-14,-24
-19,29,48,-4,-34,39,97,29,-9,-43,-29,-34
-34,14,48,9,-41,31,102,29,-19,-58,-43,-43
-39,-9,29,24,-34,9,117,24,-39,-73,-58,-58
-43,-14,29,29,-36,7,126,24,-48,-82,-63,-68
-53,-19,34,36,-43,7,122,14,-63,-97,-78,-78
-53,-19,34,36,-43,7,112,9,-78,-112,-87,-92
-39,-19,19,29,-29,0,112,0,-82,-117,-92,-97
-29,-29,0,29,-14,-14,112,-4,-87,-126,-97,-102
-43,-34,9,39,-26,-12,112,-9,-87,-131,-102,-107
-53,-34,19,43,-36,-7,112,-9,-92,-136,-112,-112
-53,-39,14,46,-34,-12,112,-9,-92,-136,-112,-112
-53,-43,9,48,-31,-17,117,-9,-92,-131,-107,-112
-48,-53,-4,51,-21,-29,126,-9,-87,-131,-102,-107
-43,-58,-14,51,-14,-36,131,-9,-82,-131,-97,-107
-43,-58,-14,51,-14,-36,136,-9,-82,-126,-97,-107
-43,-58,-14,51,-14,-36,136,-9,-82,-126,-97,-107
-48,-53,-4,51,-21,-29,136,-4,-78,-131,-102,-112
-48,-58,-9,53,-19,-34,136,-4,-78,-136,-107,-112
-58,-58,0,58,-29,-29,131,-4,-78,-131,-102,-112
-58,-58,0,58,-29,-29,131,-4,-78,-131,-102,-112
-58,-58,0,58,-29,-29,136,-4,-73,-131,-107,-112
-58,-58,0,58,-29,-29,136,-4,-73,-131,-107,-117
-53,-43,9,48,-31,-17,146,-4,-68,-131,-102,-117
-53,-53,0,53,-26,-26,136,0,-68,-131,-102,-117
-53,-53,0,53,-26,-26,136,0,-68,-131,-102,-117
-48,-48,0,48,-24,-24,136,0,-68,-131,-97,-117
-48,-48,0,48,-24,-24,141,4,-68,-131,-97,-117
-53,-48,4,51,-29,-21,146,9,-58,-126,-97,-117
-53,-48,4,51,-29,-21,146,9,-58,-126,-97,-122
-58,-53,4,56,-31,-24,146,9,-58,-126,-102,-122
-63,-63,0,63,-31,-31,151,9,-63,-126,-97,-117
-68,-63,4,65,-36,-29,151,9,-63,-126,-97,-117
-63,-48,14,56,-39,-17,161,9,-63,-122,-92,-117
-58,-43,14,51,-36,-14,146,4,-63,-117,-92,-117
-58,-43,14,51,-36,-14,141,4,-63,-117,-87,-117
-58,-58,0,58,-29,-29,136,4,-63,-117,-82,-112
-58,-58,0,58,-29,-29,141,4,-58,-117,-82,-107
-58,-53,4,56,-31,-24,141,4,-58,-117,-82,-112
-63,-58,4,61,-34,-26,141,4,-53,-107,-82,-107
-63,-53,9,58,-36,-21,141,4,-48,-107,-82,-102
-58,-63,-4,61,-26,-34,136,4,-48,-107,-82,-97
-58,-73,-14,65,-21,-43,136,4,-48,-107,-82,-97
-58,-73,-14,65,-21,-43,131,0,-58,-112,-87,-107
-58,-78,-19,68,-19,-48,131,-4,-68,-122,-92,-117
-63,-68,-4,65,-29,-36,131,-9,-73,-122,-92,-117
-68,-63,4,65,-36,-29,136,-9,-73,-126,-97,-117
-68,-63,4,65,-36,-29,141,-9,-73,-126,-97,-112
-73,-63,9,68,-41,-26,141,-9,-68,-126,-97,-107
-78,-82,-4,80,-36,-43,131,-4,-68,-126,-97,-107
-78,-92,-14,85,-31,-53,126,-4,-73,-126,-97,-107
-87,-92,-4,90,-41,-48,126,-9,-78,-126,-97,-112
-92,-92,0,92,-46,-46,126,-14,-87,-131,-92,-117
-87,-97,-9,92,-39,-53,131,-14,-87,-131,-97,-122
-87,-102,-14,95,-36,-58,136,-9,-87,-136,-102,-122
-92,-102,-9,97,-41,-56,141,-4,-82,-126,-92,-112
-97,-107,-9,102,-43,-58,146,0,-78,-117,-87,-107
-97,-97,0,97,-48,-48,146,0,-78,-117,-87,-107
-97,-87,9,92,-53,-39,146,0,-78,-117,-87,-107
-97,-73,24,85,-61,-24,151,0,-78,-112,-78,-97
-97,-63,34,80,-65,-14,156,4,-78,-107,-73,-97
-102,-58,43,80,-73,-7,161,9,-82,-102,-73,-102
-102,-48,53,75,-78,2,161,14,-82,-97,-78,-112
-102,-34,68,68,-85,17,156,4,-73,-87,-73,-102
-102,-24,78,63,-90,26,136,0,-73,-82,-73,-92
-97,-24,73,61,-85,24,107,-19,-87,-82,-68,-87
-97,-24,73,61,-85,24,78,-39,-107,-92,-63,-87
-92,-34,58,63,-75,12,68,-58,-122,-97,-68,-87
-82,-34,48,58,-65,7,63,-68,-126,-102,-68,-87
-78,-29,48,53,-63,9,58,-73,-126,-102,-68,-87
-73,-19,53,46,-63,17,53,-78,-131,-102,-63,-78
-73,-24,48,48,-61,12,43,-82,-131,-97,-58,-73
-68,-14,53,41,-61,19,39,-87,-126,-87,-43,-58
-63,-4,58,34,-61,26,43,-78,-117,-82,-34,-39
-53,-4,48,29,-51,21,53,-73,-112,-82,-29,-34
-53,-4,48,29,-51,21,53,-73,-107,-82,-24,-29
-53,0,53,26,-53,26,53,-78,-102,-73,-9,-19
-58,14,73,21,-65,43,48,-78,-97,-63,4,-4
-58,29,87,14,-73,58,43,-73,-87,-48,14,9
-43,34,78,4,-61,56,53,-53,-68,-39,14,19
-53,-9,43,31,-48,17,82,-39,-87,-78,-14,-9
-82,-63,19,73,-51,-21,102,-34,-117,-112,-53,-53
-92,-92,0,92,-46,-46,117,-34,-122,-122,-78,-73
-107,-102,4,104,-56,-48,112,-48,-141,-141,-92,-97
-107,-117,-9,112,-48,-63,112,-53,-151,-156,-112,-126
-112,-131,-19,122,-46,-75,117,-48,-156,-161,-117,-131
-117,-146,-29,131,-43,-87,122,-43,-156,-165,-131,-141
-122,-170,-48,146,-36,-109,122,-43,-156,-165,-141,-156
-131,-195,-63,163,-34,-129,126,-43,-161,-170,-146,-165
-131,-200,-68,165,-31,-134,126,-43,-165,-180,-151,-165
-136,-200,-63,168,-36,-131,126,-43,-170,-180,-156,-165
-131,-200,-68,165,-31,-134,126,-43,-175,-185,-161,-165
-126,-200,-73,163,-26,-136,126,-43,-180,-185,-161,-165
-126,-204,-78,165,-24,-141,126,-43,-185,-185,-165,-165
-126,-209,-82,168,-21,-146,131,-43,-185,-180,-165,-165
-126,-209,-82,168,-21,-146,136,-39,-185,-180,-165,-165
-122,-214,-92,168,-14,-153,136,-39,-175,-180,-165,-165
-122,-224,-102,173,-9,-163,141,-29,-175,-180,-165,-165
-122,-224,-102,173,-9,-163,151,-24,-175,-175,-165,-161
-122,-219,-97,170,-12,-158,161,-14,-175,-175,-165,-161
-122,-214,-92,168,-14,-153,165,-4,-175,-175,-161,-161
-122,-219,-97,170,-12,-158,151,-9,-175,-175,-161,-165
-112,-209,-97,161,-7,-153,131,-29,-165,-161,-146,-151
-117,-190,-73,153,-21,-131,112,-53,-156,-141,-131,-141
-112,-161,-48,136,-31,-104,102,-43,-87,-97,-107,-126
-87,-131,-43,109,-21,-87,78,-24,29,-24,-43,-87
-19,-29,-9,24,-4,-19,-9,-78,141,136,107,48
68,170,102,-119,-17,136,-131,-170,273,385,341,258
175,356,180,-265,-2,268,-283,-283,424,644,595,497
287,575,287,-431,0,431,-429,-375,619,971,917,775
370,775,405,-573,-17,590,-546,-439,780,1244,1190,1019
448,888,439,-668,4,663,-668,-527,819,1439,1381,1190
488,814,326,-651,80,570,-722,-580,717,1361,1385,1229
444,527,82,-485,180,305,-668,-697,302,956,1127,1063
336,107,-229,-222,283,-61,-536,-746,-234,385,722,780
146,-185,-331,19,239,-258,-356,-727,-775,-185,283,444
-19,-229,-209,124,95,-219,-204,-629,-912,-380,82,258
-126,-244,-117,185,-4,-180,-82,-507,-814,-395,-19,122
-156,-204,-48,180,-53,-126,-34,-405,-678,-375,-58,48
-165,-185,-19,175,-73,-102,14,-248,-541,-351,-117,-39
-170,-185,-14,178,-78,-100,34,-161,-448,-331,-146,-97
-165,-175,-9,170,-78,-92,63,-146,-380,-283,-151,-112
-151,-165,-14,158,-68,-90,102,-97,-283,-239,-151,-122
-146,-165,-19,156,-63,-92,136,-9,-204,-214,-146,-126
-136,-175,-39,156,-48,-107,151,29,-161,-190,-146,-141
-122,-190,-68,156,-26,-129,161,34,-131,-170,-146,-146
-112,-195,-82,153,-14,-139,175,39,-117,-165,-151,-151
-112,-190,-78,151,-17,-134,185,58,-102,-165,-151,-156
-112,-190,-78,151,-17,-134,185,73,-92,-161,-146,-161
-107,-195,-87,151,-9,-141,185,78,-82,-161,-146,-161
-102,-190,-87,146,-7,-139,185,82,-78,-151,-146,-161
-102,-190,-87,146,-7,-139,190,82,-73,-151,-146,-161
-102,-190,-87,146,-7,-139,190,87,-68,-146,-146,-165
-102,-190,-87,146,-7,-139,195,87,-63,-151,-146,-165
-97,-185,-87,141,-4,-136,195,87,-58,-151,-141,-161
-92,-185,-92,139,0,-139,195,87,-53,-146,-141,-161
-87,-185,-97,136,4,-141,195,92,-39,-146,-141,-161
-87,-180,-92,134,2,-136,195,92,-39,-136,-136,-151
-82,-175,-92,129,4,-134,195,92,-34,-136,-136,-146
-87,-175,-87,131,0,-131,195,102,-29,-131,-136,-146
-87,-180,-92,134,2,-136,195,107,-19,-126,-131,-146
-92,-170,-78,131,-7,-124,195,112,-9,-126,-126,-141
-92,-165,-73,129,-9,-119,190,112,0,-122,-126,-141
-92,-161,-68,126,-12,-114,190,117,9,-107,-122,-136
-82,-151,-68,117,-7,-109,190,122,14,-92,-117,-136
-82,-151,-68,117,-7,-109,190,131,34,-82,-107,-131
-78,-151,-73,114,-2,-112,190,141,53,-78,-102,-126
-78,-141,-63,109,-7,-102,185,151,73,-73,-102,-122
-73,-141,-68,107,-2,-104,180,161,87,-63,-97,-117
-78,-122,-43,100,-17,-82,180,170,112,-53,-82,-117
-78,-117,-39,97,-19,-78,180,185,136,-43,-78,-102
-63,-112,-48,87,-7,-80,175,200,161,-24,-68,-97
-53,-97,-43,75,-4,-70,170,224,185,-4,-53,-87
-43,-92,-48,68,2,-70,165,244,219,9,-39,-78
-43,-78,-34,61,-4,-56,161,263,263,29,-24,-63
-24,-58,-34,41,4,-46,165,287,307,48,-4,-53
-9,-43,-34,26,12,-39,165,312,351,78,9,-39
4,-34,-39,14,21,-36,161,346,400,107,24,-24
9,-4,-14,-2,12,-9,161,380,458,141,48,-9
14,29,14,-21,0,21,161,409,517,175,73,24
34,53,19,-43,7,36,151,434,570,214,102,43
53,63,9,-58,21,36,146,458,619,253,131,68
68,92,24,-80,21,58,136,483,668,292,156,97
87,131,43,-109,21,87,126,502,722,331,195,126
107,161,53,-134,26,107,117,522,766,361,214,151
117,175,58,-146,29,117,112,527,795,380,248,180
122,204,82,-163,19,143,102,536,824,409,273,200
131,219,87,-175,21,153,87,541,854,429,297,219
141,229,87,-185,26,158,82,546,868,448,317,239
146,244,97,-195,24,170,73,536,878,458,331,248
146,248,102,-197,21,175,68,517,863,468,341,258
146,263,117,-204,14,190,53,492,829,473,346,263
146,273,126,-209,9,200,48,453,780,458,346,263
131,273,141,-202,-4,207,48,419,732,434,331,253
126,258,131,-192,-2,195,39,380,663,409,312,244
107,248,141,-178,-17,195,39,336,590,375,297,239
92,219,126,-156,-17,173,39,292,517,336,273,219
78,185,107,-131,-14,146,34,244,439,287,239,200
68,165,97,-117,-14,131,29,195,356,239,195,165
63,131,68,-97,-2,100,24,156,283,200,165,141
43,87,43,-65,0,65,24,117,209,151,131,107
19,48,29,-34,-4,39,34,87,156,107,97,73
4,19,14,-12,-4,17,39,58,112,73,68,43
-9,-4,4,7,-7,0,39,43,68,39,39,19
-34,-29,4,31,-19,-12,39,29,24,14,19,0
-39,-58,-19,48,-9,-39,43,9,0,-9,-4,-14
-48,-78,-29,63,-9,-53,48,-4,-24,-34,-24,-29
-63,-92,-29,78,-17,-61,58,-9,-39,-48,-43,-43
-68,-117,-48,92,-9,-82,68,-14,-58,-63,-58,-58
-73,-122,-48,97,-12,-85,68,-14,-68,-73,-63,-68
-82,-131,-48,107,-17,-90,73,-19,-78,-82,-73,-73
-82,-136,-53,109,-14,-95,73,-19,-87,-97,-78,-87
-78,-136,-58,107,-9,-97,73,-24,-92,-102,-78,-92
-82,-146,-63,114,-9,-104,73,-24,-97,-107,-78,-92
-92,-146,-53,119,-19,-100,73,-29,-97,-112,-82,-97
-92,-151,-58,122,-17,-104,73,-29,-102,-112,-87,-97
-92,-161,-68,126,-12,-114,73,-29,-102,-112,-87,-92
-92,-146,-53,119,-19,-100,78,-29,-102,-112,-87,-92
-92,-141,-48,117,-21,-95,82,-29,-102,-112,-87,-87
-92,-146,-53,119,-19,-100,73,-29,-102,-112,-87,-92
-92,-146,-53,119,-19,-100,63,-29,-102,-107,-87,-97
-82,-151,-68,117,-7,-109,58,-29,-107,-107,-92,-97
-78,-146,-68,112,-4,-107,58,-29,-107,-107,-97,-102
-87,-146,-58,117,-14,-102,63,-34,-107,-107,-97,-102
-97,-146,-48,122,-24,-97,68,-34,-107,-102,-92,-102
-87,-146,-58,117,-14,-102,73,-34,-107,-107,-92,-102
-87,-146,-58,117,-14,-102,78,-29,-102,-112,-97,-97
-87,-146,-58,117,-14,-102,68,-29,-102,-112,-97,-97
-87,-131,-43,109,-21,-87,68,-34,-97,-112,-92,-97
-92,-136,-43,114,-24,-90,58,-29,-97,-112,-92,-97
-92,-131,-39,112,-26,-85,58,-29,-97,-112,-97,-97
-87,-126,-39,107,-24,-82,63,-29,-97,-112,-97,-97
-82,-126,-43,104,-19,-85,63,-24,-97,-112,-97,-97
-82,-126,-43,104,-19,-85,58,-19,-87,-107,-97,-97
-82,-126,-43,104,-19,-85,58,-19,-87,-107,-92,-102
-87,-122,-34,104,-26,-78,58,-19,-87,-107,-92,-102
-87,-122,-34,104,-26,-78,63,-19,-87,-107,-87,-97
-87,-122,-34,104,-26,-78,63,-24,-82,-107,-87,-97
-82,-107,-24,95,-29,-65,73,-24,-82,-107,-87,-97
-78,-102,-24,90,-26,-63,53,-24,-82,-107,-92,-102
-78,-102,-24,90,-26,-63,48,-24,-82,-107,-92,-107
-78,-117,-39,97,-19,-78,48,-19,-82,-107,-92,-102
-78,-117,-39,97,-19,-78,53,-14,-78,-107,-92,-102
-78,-112,-34,95,-21,-73,58,-14,-78,-107,-92,-112
-82,-112,-29,97,-26,-70,63,-14,-78,-97,-92,-112
-82,-102,-19,92,-31,-61,68,-14,-78,-97,-92,-107
-78,-102,-24,90,-26,-63,68,-14,-78,-97,-92,-97
-78,-102,-24,90,-26,-63,68,-14,-78,-97,-92,-92
-78,-102,-24,90,-26,-63,63,-14,-78,-97,-92,-92
-78,-117,-39,97,-19,-78,63,-14,-78,-102,-92,-97
-78,-126,-48,102,-14,-87,63,-19,-82,-102,-92,-97
-73,-122,-48,97,-12,-85,68,-19,-82,-107,-97,-102
-63,-112,-48,87,-7,-80,73,-19,-87,-107,-97,-102
-63,-107,-43,85,-9,-75,73,-19,-87,-102,-97,-97
-68,-112,-43,90,-12,-78,68,-14,-87,-97,-97,-97
-68,-112,-43,90,-12,-78,68,-9,-97,-97,-97,-97
-73,-112,-39,92,-17,-75,68,-9,-102,-97,-97,-97
-73,-117,-43,95,-14,-80,53,-14,-107,-107,-92,-97
-68,-122,-53,95,-7,-87,43,-14,-107,-112,-92,-102
-68,-122,-53,95,-7,-87,63,-9,-107,-117,-92,-102
-68,-122,-53,95,-7,-87,63,-9,-107,-117,-97,-102
-78,-122,-43,100,-17,-82,68,-9,-102,-112,-92,-97
-87,-126,-39,107,-24,-82,78,-14,-97,-112,-92,-97
-82,-112,-29,97,-26,-70,82,-9,-92,-102,-82,-102
-78,-97,-19,87,-29,-58,87,-9,-87,-97,-78,-107
-78,-82,-4,80,-36,-43,87,-9,-82,-87,-78,-97
-78,-68,9,73,-43,-29,87,-9,-78,-78,-78,-87
-73,-68,4,70,-39,-31,92,-9,-78,-78,-73,-82
-73,-63,9,68,-41,-26,97,-4,-73,-73,-63,-78
-73,-63,9,68,-41,-26,102,0,-73,-68,-58,-73
-73,-53,19,63,-46,-17,97,-4,-63,-63,-53,-73
-68,-43,24,56,-46,-9,73,-9,-63,-63,-53,-73
-58,-43,14,51,-36,-14,43,-29,-78,-63,-53,-68
-58,-43,14,51,-36,-14,19,-48,-92,-73,-53,-68
-53,-53,0,53,-26,-26,9,-68,-102,-78,-58,-68
-43,-48,-4,46,-19,-26,4,-78,-107,-78,-58,-68
-43,-39,4,41,-24,-17,0,-82,-107,-73,-58,-68
-43,-29,14,36,-29,-7,-4,-87,-112,-73,-53,-58
-43,-29,14,36,-29,-7,-9,-87,-112,-68,-48,-53
-39,-19,19,29,-29,0,-9,-87,-107,-58,-34,-39
-29,-14,14,21,-21,0,-4,-78,-97,-48,-24,-19
-14,-14,0,14,-7,-7,4,-82,-92,-43,-19,-9
-14,-14,0,14,-7,-7,4,-87,-87,-43,-14,0
-19,-9,9,14,-14,0,9,-87,-87,-39,-4,9
-29,4,34,12,-31,19,14,-87,-87,-34,4,24
-34,4,39,14,-36,21,19,-82,-87,-24,14,24
-29,-9,19,19,-24,4,34,-68,-78,-19,14,9
-43,-48,-4,46,-19,-26,63,-58,-97,-58,-14,-19
-73,-92,-19,82,-26,-56,82,-53,-126,-92,-53,-53
-73,-112,-39,92,-17,-75,97,-53,-131,-97,-78,-73
-78,-117,-39,97,-19,-78,102,-63,-151,-112,-92,-92
-78,-131,-53,104,-12,-92,112,-63,-161,-126,-112,-117
-78,-141,-63,109,-7,-102,117,-58,-165,-136,-117,-122
-78,-151,-73,114,-2,-112,122,-53,-165,-146,-131,-131
-78,-156,-78,117,0,-117,122,-53,-165,-146,-141,-141
-82,-165,-82,124,0,-124,126,-53,-170,-146,-146,-146
-82,-170,-87,126,2,-129,126,-53,-175,-151,-146,-146
-87,-180,-92,134,2,-136,126,-53,-180,-151,-141,-141
-87,-190,-102,139,7,-146,126,-53,-180,-156,-141,-141
-87,-190,-102,139,7,-146,126,-53,-180,-156,-141,-146
-87,-190,-102,139,7,-146,126,-53,-185,-161,-146,-146
-87,-185,-97,136,4,-141,131,-53,-185,-161,-146,-146
-87,-180,-92,134,2,-136,136,-48,-185,-161,-146,-146
-82,-180,-97,131,7,-139,136,-48,-175,-156,-146,-146
-82,-185,-102,134,9,-143,136,-43,-175,-151,-146,-146
-82,-185,-102,134,9,-143,141,-43,-175,-146,-146,-141
-82,-180,-97,131,7,-139,141,-43,-175,-146,-146,-141
-82,-185,-102,134,9,-143,136,-43,-175,-151,-141,-141
-78,-195,-117,136,19,-156,122,-48,-170,-151,-141,-141
-58,-170,-112,114,26,-141,92,-68,-151,-131,-126,-122
-53,-136,-82,95,14,-109,63,-92,-117,-102,-102,-102
-39,-92,-53,65,7,-73,48,-82,-19,-48,-63,-68
-9,-24,-14,17,2,-19,0,-82,107,58,34,9
73,107,34,-90,19,70,-107,-151,229,248,214,175
175,307,131,-241,21,219,-229,-244,370,512,468,395
287,488,200,-387,43,344,-380,-361,522,775,727,639
395,683,287,-539,53,485,-512,-453,673,1058,1005,893
468,824,356,-646,56,590,-614,-522,766,1268,1220,1088
527,834,307,-680,109,570,-707,-610,717,1332,1307,1176
527,697,170,-612,178,434,-717,-668,517,1141,1215,1137
448,409,-39,-429,244,185,-629,-766,68,697,907,922
322,19,-302,-170,312,-141,-478,-785,-444,156,517,634
141,-200,-341,29,241,-270,-297,-741,-858,-278,161,341
-9,-185,-175,97,82,-180,-151,-610,-873,-370,24,204
-97,-185,-87,141,-4,-136,-53,-478,-756,-361,-53,97
-107,-146,-39,126,-34,-92,-24,-375,-629,-336,-82,29
-112,-126,-14,119,-48,-70,14,-234,-502,-302,-126,-48
-112,-126,-14,119,-48,-70,29,-161,-409,-278,-146,-87
-102,-117,-14,109,-43,-65,63,-146,-346,-234,-146,-92
-87,-107,-19,97,-34,-63,102,-97,-253,-195,-141,-112
-87,-107,-19,97,-34,-63,136,-14,-175,-180,-136,-126
-78,-117,-39,97,-19,-78,151,14,-131,-161,-136,-141
-73,-126,-53,100,-9,-90,156,14,-112,-146,-136,-146
-73,-126,-53,100,-9,-90,165,19,-112,-146,-141,-146
-73,-122,-48,97,-12,-85,175,39,-102,-151,-146,-146
-73,-117,-43,95,-14,-80,165,53,-92,-151,-146,-151
-68,-122,-53,95,-7,-87,156,53,-87,-151,-146,-151
-63,-122,-58,92,-2,-90,156,53,-87,-141,-146,-151
-63,-122,-58,92,-2,-90,161,53,-82,-141,-146,-151
-63,-126,-63,95,0,-95,161,63,-73,-136,-146,-156
-63,-131,-68,97,2,-100,161,68,-63,-136,-146,-156
-58,-126,-68,92,4,-97,156,68,-58,-136,-141,-151
-58,-126,-68,92,4,-97,156,68,-53,-136,-141,-151
-53,-122,-68,87,7,-95,156,73,-39,-136,-136,-151
-48,-112,-63,80,7,-87,156,73,-39,-126,-126,-146
-43,-107,-63,75,9,-85,156,73,-34,-122,-126,-146
-43,-102,-58,73,7,-80,156,82,-29,-112,-126,-146
-39,-107,-68,73,14,-87,156,87,-19,-107,-122,-146
-39,-102,-63,70,12,-82,156,92,-9,-107,-117,-141
-29,-97,-68,63,19,-82,151,92,-4,-102,-122,-141
-24,-97,-73,61,24,-85,151,97,0,-97,-122,-136
-14,-92,-78,53,31,-85,151,107,4,-92,-117,-136
-14,-92,-78,53,31,-85,151,122,24,-82,-107,-131
-9,-92,-82,51,36,-87,151,131,43,-78,-97,-126
-9,-78,-68,43,29,-73,146,141,63,-68,-92,-122
-4,-73,-68,39,31,-70,141,151,78,-53,-87,-117
-4,-53,-48,29,21,-51,141,161,102,-43,-73,-117
0,-43,-43,21,21,-43,131,180,131,-34,-68,-97
14,-39,-53,12,34,-46,122,200,165,-14,-58,-87
24,-19,-43,-2,34,-31,131,224,200,4,-43,-78
34,-4,-39,-14,36,-21,136,244,239,24,-29,-68
29,-4,-34,-12,31,-19,131,263,283,48,-14,-53
43,4,-39,-24,41,-17,131,287,331,68,4,-43
58,24,-34,-41,46,-4,131,317,380,97,19,-29
73,34,-39,-53,56,-2,131,351,429,131,39,-9
92,68,-24,-80,58,21,131,380,488,170,68,9
117,97,-19,-107,68,39,131,409,546,204,92,43
131,112,-19,-122,75,46,117,434,600,244,122,63
141,131,-9,-136,75,61,107,453,649,283,156,87
151,165,14,-158,68,90,97,473,697,326,185,117
161,200,39,-180,61,119,92,488,741,370,224,146
175,229,53,-202,61,141,87,502,775,400,239,170
185,244,58,-214,63,151,82,507,805,424,268,200
195,273,78,-234,58,175,73,517,834,453,292,219
209,287,78,-248,65,183,58,517,854,468,317,239
219,297,78,-258,70,187,53,517,858,488,336,258
224,322,97,-273,63,209,43,507,858,492,346,268
224,336,112,-280,56,224,39,483,829,497,351,273
214,336,122,-275,46,229,24,453,790,497,356,273
200,326,126,-263,36,226,24,409,741,478,356,273
180,322,141,-251,19,231,29,370,688,448,341,263
175,307,131,-241,21,219,19,331,610,419,322,253
156,297,141,-226,7,219,19,287,531,380,302,239
141,268,126,-204,7,197,14,239,453,336,273,204
122,229,107,-175,7,168,9,190,375,287,239,180
107,204,97,-156,4,151,9,146,297,239,195,146
97,170,73,-134,12,122,9,112,229,200,165,122
78,126,48,-102,14,87,19,78,161,151,131,92
58,92,34,-75,12,63,34,53,107,107,97,68
43,68,24,-56,9,46,39,29,68,73,68,43
39,48,9,-43,14,29,39,14,29,34,39,19
19,34,14,-26,2,24,39,0,-14,4,19,0
9,9,0,-9,4,4,43,-14,-39,-19,-4,-14
0,-9,-9,4,4,-9,48,-24,-63,-43,-24,-29
-14,-24,-9,19,-2,-17,53,-29,-78,-58,-43,-43
-19,-48,-29,34,4,-39,58,-34,-97,-73,-58,-58
-24,-53,-29,39,2,-41,58,-34,-107,-82,-63,-68
-39,-63,-24,51,-7,-43,63,-39,-117,-92,-68,-68
-43,-68,-24,56,-9,-46,63,-39,-126,-102,-68,-73
-39,-68,-29,53,-4,-48,68,-43,-131,-102,-68,-73
-39,-78,-39,58,0,-58,73,-43,-136,-107,-68,-73
-43,-78,-34,61,-4,-56,73,-48,-136,-107,-73,-82
-43,-73,-29,58,-7,-51,73,-48,-141,-107,-82,-92
-39,-73,-34,56,-2,-53,68,-48,-141,-112,-92,-92
-34,-73,-39,53,2,-56,68,-48,-141,-112,-97,-92
-34,-82,-48,58,7,-65,73,-48,-136,-112,-97,-87
-34,-87,-53,61,9,-70,73,-48,-131,-112,-97,-87
-34,-87,-53,61,9,-70,73,-48,-131,-107,-97,-87
-34,-87,-53,61,9,-70,68,-48,-131,-107,-97,-87
-39,-78,-39,58,0,-58,68,-48,-126,-112,-97,-92
-39,-78,-39,58,0,-58,68,-53,-126,-117,-97,-92
-39,-73,-34,56,-2,-53,63,-53,-126,-112,-92,-92
-29,-68,-39,48,4,-53,63,-53,-126,-112,-92,-92
-24,-63,-39,43,7,-51,68,-43,-122,-107,-97,-92
-19,-58,-39,39,9,-48,68,-34,-122,-102,-97,-97
-19,-43,-24,31,2,-34,78,-34,-117,-102,-97,-97
-24,-53,-29,39,2,-41,68,-29,-117,-102,-102,-97
-24,-58,-34,41,4,-46,68,-29,-117,-102,-107,-97
-19,-58,-39,39,9,-48,68,-29,-117,-102,-107,-97
-14,-58,-43,36,14,-51,63,-19,-117,-102,-102,-97
-14,-58,-43,36,14,-51,58,-9,-107,-97,-97,-97
-14,-53,-39,34,12,-46,68,-9,-107,-92,-92,-102
-19,-53,-34,36,7,-43,78,-9,-107,-87,-92,-102
-24,-63,-39,43,7,-51,73,-9,-107,-87,-92,-97
-29,-63,-34,46,2,-48,63,-9,-102,-87,-97,-97
-24,-48,-24,36,0,-36,68,-4,-102,-87,-97,-97
-19,-43,-24,31,2,-34,48,-4,-102,-87,-102,-97
-19,-34,-14,26,-2,-24,48,-4,-102,-87,-97,-97
-19,-39,-19,29,0,-29,48,-4,-102,-87,-92,-92
-19,-39,-19,29,0,-29,53,-4,-97,-92,-92,-92
-19,-34,-14,26,-2,-24,53,-4,-97,-97,-92,-102
-24,-34,-9,29,-7,-21,58,-4,-97,-92,-92,-102
-24,-24,0,24,-12,-12,63,-4,-97,-97,-92,-102
-19,-24,-4,21,-7,-14,63,-9,-97,-97,-97,-97
-19,-24,-4,21,-7,-14,68,-14,-97,-97,-102,-97
-14,-24,-9,19,-2,-17,63,-14,-97,-97,-102,-102
-9,-29,-19,19,4,-24,63,-14,-97,-102,-102,-107
-9,-29,-19,19,4,-24,63,-19,-102,-102,-102,-107
-9,-34,-24,21,7,-29,68,-19,-102,-107,-107,-107
-4,-29,-24,17,9,-26,73,-19,-107,-107,-107,-102
-4,-24,-19,14,7,-21,73,-19,-107,-107,-107,-97
-9,-34,-24,21,7,-29,68,-19,-107,-107,-107,-97
-9,-34,-24,21,7,-29,68,-24,-112,-107,-107,-97
-14,-39,-24,26,4,-31,68,-29,-112,-107,-107,-97
-14,-43,-29,29,7,-36,73,-34,-117,-112,-102,-97
-14,-39,-24,26,4,-31,78,-29,-112,-102,-97,-92
-14,-34,-19,24,2,-26,82,-24,-107,-97,-97,-87
-14,-34,-19,24,2,-26,68,-19,-102,-97,-92,-87
-19,-39,-19,29,0,-29,58,-19,-97,-97,-87,-87
-19,-19,0,19,-9,-9,68,-19,-92,-87,-87,-87
-19,0,19,9,-19,9,78,-19,-87,-78,-87,-87
-14,4,19,4,-17,12,78,-19,-87,-78,-87,-87
-14,9,24,2,-19,17,78,-14,-82,-68,-82,-82
-14,19,34,-2,-24,26,82,-14,-82,-63,-78,-82
-14,34,48,-9,-31,41,78,-24,-73,-53,-73,-82
-14,48,63,-17,-39,56,58,-29,-68,-53,-73,-82
-9,53,63,-21,-36,58,34,-48,-78,-53,-73,-78
-9,58,68,-24,-39,63,9,-63,-97,-63,-68,-73
-4,53,58,-24,-31,56,0,-78,-112,-68,-68,-68
0,53,53,-26,-26,53,-4,-87,-117,-73,-68,-68
-4,58,63,-26,-34,61,-9,-92,-117,-73,-68,-68
-4,63,68,-29,-36,65,-14,-97,-126,-78,-63,-63
-4,58,63,-26,-34,61,-19,-97,-131,-78,-58,-63
0,73,73,-36,-36,73,-19,-97,-126,-68,-43,-48
9,82,73,-46,-31,78,-14,-87,-117,-58,-34,-29
24,82,58,-53,-17,70,-9,-82,-112,-53,-34,-24
24,82,58,-53,-17,70,-14,-78,-107,-53,-34,-19
29,87,58,-58,-14,73,-14,-78,-102,-43,-19,-9
29,102,73,-65,-21,87,-14,-78,-97,-34,-4,4
29,117,87,-73,-29,102,-14,-73,-87,-4,19,34
39,117,78,-78,-19,97,-4,-58,-68,19,34,48
24,68,43,-46,-9,56,29,-43,-82,-19,4,9
-4,14,19,-4,-12,17,53,-34,-107,-53,-34,-34
-19,-19,0,19,-9,-9,73,-34,-112,-58,-58,-53
-39,-39,0,39,-19,-19,82,-43,-131,-73,-73,-73
-43,-58,-14,51,-14,-36,92,-48,-141,-87,-92,-102
-48,-73,-24,61,-12,-48,97,-48,-146,-97,-97,-112
-48,-87,-39,68,-4,-63,102,-43,-146,-112,-112,-122
-48,-97,-48,73,0,-73,102,-43,-146,-117,-122,-131
-48,-107,-58,78,4,-82,107,-43,-151,-122,-131,-141
-43,-112,-68,78,12,-90,107,-43,-156,-131,-136,-146
-48,-112,-63,80,7,-87,112,-43,-165,-131,-136,-146
-48,-112,-63,80,7,-87,117,-43,-170,-136,-141,-151
-48,-107,-58,78,4,-82,117,-48,-170,-141,-146,-156
-48,-102,-53,75,2,-78,117,-53,-175,-151,-156,-156
-48,-102,-53,75,2,-78,122,-53,-175,-151,-156,-156
-48,-102,-53,75,2,-78,126,-48,-175,-151,-156,-156
-43,-107,-63,75,9,-85,122,-48,-165,-151,-151,-156
-43,-117,-73,80,14,-95,117,-43,-165,-151,-146,-156
-39,-117,-78,78,19,-97,122,-43,-165,-146,-146,-151
-34,-112,-78,73,21,-95,122,-43,-165,-146,-146,-151
-34,-107,-73,70,19,-90,117,-43,-170,-151,-141,-151
-29,-107,-78,68,24,-92,102,-48,-170,-151,-141,-151
-19,-92,-73,56,26,-82,82,-68,-170,-136,-136,-136
-24,-68,-43,46,9,-56,63,-92,-156,-112,-122,-122
-24,-68,-43,46,9,-56,73,-63,-68,-92,-122,-126
-9,-43,-34,26,12,-39,48,-43,48,-19,-63,-87
58,73,14,-65,21,43,-43,-102,156,141,82,53
146,258,112,-202,17,185,-151,-185,283,375,302,248
268,444,175,-356,46,309,-312,-317,434,653,575,497
385,644,258,-514,63,451,-453,-424,585,951,868,756
463,902,439,-683,12,671,-575,-507,761,1288,1185,1039
527,1029,502,-778,12,766,-688,-610,795,1478,1376,1215
580,971,390,-775,95,680,-771,-668,727,1429,1405,1273
556,761,204,-658,175,483,-756,-766,409,1127,1220,1156
434,253,-180,-344,307,36,-605,-824,-229,453,746,824
258,-82,-341,-87,300,-212,-424,-819,-771,-112,307,488
82,-82,-165,0,124,-124,-248,-697,-873,-287,117,297
-29,-97,-68,63,19,-82,-122,-575,-844,-361,-14,136
-53,-58,-4,56,-24,-31,-82,-463,-707,-341,-63,58
-73,-39,34,56,-53,-2,-34,-312,-570,-312,-126,-29
-78,-43,34,61,-56,-4,-24,-224,-468,-283,-146,-87
-73,-39,34,56,-53,-2,4,-195,-395,-234,-146,-112
-58,-29,29,43,-43,0,48,-141,-292,-185,-141,-112
-58,-29,29,43,-43,0,87,-53,-204,-161,-136,-107
-48,-43,4,46,-26,-19,112,0,-146,-136,-136,-122
-43,-58,-14,51,-14,-36,126,24,-112,-117,-136,-126
-43,-73,-29,58,-7,-51,136,19,-107,-112,-141,-131
-43,-82,-39,63,-2,-61,146,29,-92,-112,-146,-136
-43,-68,-24,56,-9,-46,146,43,-73,-112,-146,-146
-39,-63,-24,51,-7,-43,146,43,-58,-112,-146,-151
-29,-63,-34,46,2,-48,146,48,-58,-107,-146,-151
-24,-63,-39,43,7,-51,151,53,-53,-112,-146,-151
-19,-63,-43,41,12,-53,151,58,-48,-107,-146,-156
-14,-63,-48,39,17,-56,151,58,-43,-107,-146,-156
-9,-53,-43,31,17,-48,146,58,-43,-102,-141,-156
-9,-48,-39,29,14,-43,146,58,-43,-97,-141,-161
-9,-39,-29,24,9,-34,156,63,-29,-97,-141,-161
-9,-24,-14,17,2,-19,165,63,-29,-87,-136,-156
-4,-34,-29,19,12,-31,165,63,-24,-87,-136,-151
-4,-43,-39,24,17,-41,165,73,-19,-82,-136,-146
0,-43,-43,21,21,-43,161,78,-14,-78,-136,-146
0,-34,-34,17,17,-34,156,82,-9,-78,-136,-141
4,-24,-29,9,17,-26,151,78,0,-78,-136,-146
4,-19,-24,7,14,-21,151,78,9,-78,-131,-146
14,-9,-24,-2,19,-17,151,82,14,-73,-126,-146
14,-4,-19,-4,17,-12,151,92,34,-63,-117,-141
19,-4,-24,-7,21,-14,151,107,53,-58,-112,-136
19,9,-9,-14,14,0,146,122,73,-48,-112,-131
24,4,-19,-14,21,-7,141,131,87,-34,-107,-122
24,14,-9,-19,17,2,141,141,112,-24,-92,-117
24,29,4,-26,9,17,141,151,131,-14,-87,-102
34,39,4,-36,14,21,141,161,156,4,-78,-97
43,48,4,-46,19,26,141,185,185,19,-63,-87
53,53,0,-53,26,26,136,204,219,34,-48,-78
53,58,4,-56,24,31,131,229,258,58,-34,-63
73,73,0,-73,36,36,131,258,302,78,-14,-53
87,92,4,-90,41,48,126,283,351,107,4,-39
102,102,0,-102,51,51,122,312,400,141,29,-19
107,136,29,-122,39,82,122,341,458,175,58,0
117,165,48,-141,34,107,122,370,517,204,82,34
141,190,48,-165,46,119,112,400,575,239,102,48
161,219,58,-190,51,139,107,424,629,273,126,68
175,248,73,-212,51,161,97,448,678,312,156,92
190,278,87,-234,51,183,92,468,722,351,195,117
204,307,102,-256,51,204,87,483,771,395,219,141
214,322,107,-268,53,214,82,488,814,434,258,170
219,346,126,-283,46,236,73,497,844,468,283,195
229,356,126,-292,51,241,58,497,863,488,307,219
239,366,126,-302,56,246,48,497,868,507,326,239
244,390,146,-317,48,268,34,488,868,512,336,248
248,405,156,-326,46,280,29,473,854,522,341,263
244,405,161,-324,41,283,14,453,829,527,346,273
234,414,180,-324,26,297,9,414,785,517,356,283
219,429,209,-324,4,319,9,380,736,497,351,283
214,400,185,-307,14,292,0,341,663,468,336,273
195,375,180,-285,7,278,0,297,590,429,322,258
180,336,156,-258,12,246,4,253,517,385,297,229
161,287,126,-224,17,207,9,209,444,336,268,209
146,278,131,-212,7,204,9,156,361,287,224,180
136,258,122,-197,7,190,9,112,287,248,195,161
107,200,92,-153,7,146,14,78,219,200,156,126
78,151,73,-114,2,112,24,53,165,156,117,97
63,126,63,-95,0,95,29,19,112,122,87,73
58,107,48,-82,4,78,29,-4,58,82,58,48
43,87,43,-65,0,65,29,-19,14,48,39,19
39,58,19,-48,9,39,34,-34,-9,19,14,-4
29,34,4,-31,12,19,39,-43,-39,-4,-4,-19
14,14,0,-14,7,7,43,-48,-58,-19,-24,-34
9,-9,-19,0,14,-14,48,-48,-82,-34,-39,-43
4,-14,-19,4,12,-17,48,-43,-97,-43,-43,-48
-4,-24,-19,14,7,-21,53,-48,-107,-53,-53,-53
-4,-29,-24,17,9,-26,53,-48,-117,-63,-58,-63
0,-29,-29,14,14,-29,53,-53,-122,-68,-63,-68
0,-39,-39,19,19,-39,53,-53,-126,-78,-68,-73
-4,-39,-34,21,14,-36,53,-58,-131,-82,-73,-78
-4,-34,-29,19,12,-31,53,-58,-141,-87,-82,-82
-9,-34,-24,21,7,-29,53,-58,-141,-92,-92,-87
-14,-34,-19,24,2,-26,58,-58,-141,-92,-97,-92
-14,-43,-29,29,7,-36,63,-58,-141,-97,-97,-87
-14,-48,-34,31,9,-41,63,-58,-141,-102,-97,-87
-14,-48,-34,31,9,-41,63,-58,-141,-97,-97,-92
-14,-48,-34,31,9,-41,58,-58,-141,-97,-97,-97
-19,-39,-19,29,0,-29,58,-58,-136,-97,-97,-102
-19,-39,-19,29,0,-29,58,-63,-136,-97,-97,-102
-19,-39,-19,29,0,-29,63,-63,-131,-87,-92,-102
-9,-39,-29,24,9,-34,73,-63,-126,-82,-92,-102
-9,-39,-29,24,9,-34,78,-58,-122,-82,-97,-97
-9,-39,-29,24,9,-34,78,-53,-122,-82,-97,-97
-9,-24,-14,17,2,-19,87,-53,-122,-82,-97,-97
-14,-34,-19,24,2,-26,78,-48,-126,-82,-102,-97
-9,-34,-24,21,7,-29,82,-48,-126,-82,-107,-97
0,-29,-29,14,14,-29,87,-48,-126,-82,-107,-97
4,-29,-34,12,19,-31,82,-43,-126,-82,-102,-92
4,-29,-34,12,19,-31,78,-39,-117,-78,-97,-87
4,-19,-24,7,14,-21,78,-39,-117,-78,-92,-92
0,-14,-14,7,7,-14,78,-39,-117,-78,-92,-92
0,-24,-24,12,12,-24,82,-39,-117,-78,-87,-87
0,-24,-24,12,12,-24,82,-39,-112,-78,-87,-87
4,-19,-24,7,14,-21,107,-34,-102,-78,-87,-87
9,-24,-34,7,21,-29,107,-34,-92,-78,-92,-87
9,-14,-24,2,17,-19,107,-34,-102,-78,-92,-92
9,-19,-29,4,19,-24,107,-34,-112,-78,-92,-92
4,-19,-24,7,14,-21,107,-39,-107,-82,-97,-92
0,-14,-14,7,7,-14,102,-43,-107,-87,-102,-102
-4,-19,-14,12,4,-17,102,-43,-107,-78,-102,-102
-4,-14,-9,9,2,-12,102,-43,-107,-78,-102,-102
0,-19,-19,9,9,-19,97,-43,-107,-78,-97,-92
0,-24,-24,12,12,-24,97,-43,-107,-78,-92,-87
-4,-29,-24,17,9,-26,92,-43,-107,-78,-92,-87
-9,-39,-29,24,9,-34,92,-43,-107,-82,-92,-87
-19,-39,-19,29,0,-29,92,-48,-112,-82,-92,-87
-29,-43,-14,36,-7,-29,97,-48,-112,-87,-97,-87
-24,-48,-24,36,0,-36,102,-48,-122,-92,-102,-92
-24,-53,-29,39,2,-41,102,-48,-126,-97,-107,-97
-24,-63,-39,43,7,-51,97,-43,-126,-97,-107,-97
-19,-63,-43,41,12,-53,97,-43,-131,-97,-107,-97
-24,-58,-34,41,4,-46,92,-48,-131,-92,-107,-97
-24,-53,-29,39,2,-41,87,-53,-136,-92,-102,-97
-24,-53,-29,39,2,-41,92,-58,-141,-92,-102,-102
-29,-53,-24,41,-2,-39,102,-58,-146,-97,-102,-102
-29,-53,-24,41,-2,-39,92,-58,-146,-97,-107,-102
-34,-53,-19,43,-7,-36,92,-58,-146,-92,-107,-102
-29,-43,-14,36,-7,-29,97,-53,-141,-87,-107,-102
-29,-39,-9,34,-9,-24,107,-48,-136,-87,-107,-107
-29,-39,-9,34,-9,-24,107,-48,-136,-73,-97,-92
-29,-39,-9,34,-9,-24,107,-48,-136,-58,-87,-78
-29,-14,14,21,-21,0,107,-48,-136,-58,-87,-78
-29,0,29,14,-29,14,107,-43,-131,-53,-87,-78
-34,9,43,12,-39,26,112,-39,-126,-53,-87,-78
-34,19,53,7,-43,36,112,-34,-112,-48,-87,-73
-29,34,63,-2,-46,48,112,-43,-102,-43,-82,-73
-24,43,68,-9,-46,56,97,-48,-102,-43,-82,-73
-19,43,63,-12,-41,53,73,-68,-117,-43,-82,-68
-19,43,63,-12,-41,53,48,-87,-136,-53,-82,-68
-14,39,53,-12,-34,46,34,-107,-151,-58,-87,-68
-4,43,48,-19,-26,46,24,-117,-156,-63,-87,-68
-4,48,53,-21,-29,51,19,-126,-151,-63,-82,-63
-4,58,63,-26,-34,61,14,-136,-151,-63,-73,-48
-4,63,68,-29,-36,65,9,-136,-151,-58,-68,-43
0,82,82,-41,-41,82,9,-136,-146,-48,-53,-29
9,92,82,-51,-36,87,14,-126,-146,-43,-43,-14
24,92,68,-58,-21,80,24,-122,-151,-43,-39,-14
24,92,68,-58,-21,80,24,-122,-146,-43,-34,-9
24,97,73,-61,-24,85,24,-126,-141,-34,-19,0
14,112,97,-63,-41,104,24,-126,-141,-24,-9,9
9,126,117,-68,-53,122,24,-122,-136,-9,-4,19
19,122,102,-70,-41,112,29,-107,-126,-4,-9,14
4,68,63,-36,-29,65,53,-97,-156,-48,-43,-29
-19,14,34,2,-26,24,73,-92,-175,-82,-82,-73
-24,-14,9,19,-17,-2,87,-92,-170,-92,-107,-92
-39,-34,4,36,-21,-14,92,-102,-190,-112,-122,-107
-39,-58,-19,48,-9,-39,102,-102,-200,-126,-141,-126
-43,-73,-29,58,-7,-51,107,-97,-204,-136,-141,-131
-48,-87,-39,68,-4,-63,112,-92,-204,-146,-151,-141
-48,-92,-43,70,-2,-68,112,-92,-200,-151,-161,-151
-53,-97,-43,75,-4,-70,117,-92,-200,-161,-165,-156
-48,-102,-53,75,2,-78,117,-92,-204,-175,-170,-156
-48,-102,-53,75,2,-78,117,-92,-209,-180,-175,-156
-48,-102,-53,75,2,-78,117,-87,-209,-185,-180,-161
-48,-102,-53,75,2,-78,117,-82,-209,-185,-180,-165
-48,-97,-48,73,0,-73,117,-82,-214,-180,-180,-165
-48,-92,-43,70,-2,-68,122,-82,-214,-170,-175,-165
-48,-92,-43,70,-2,-68,126,-78,-214,-170,-175,-165
-43,-97,-53,70,4,-75,126,-78,-204,-170,-175,-165
-43,-107,-63,75,9,-85,126,-73,-204,-170,-175,-165
-43,-107,-63,75,9,-85,131,-73,-204,-165,-175,-161
-43,-97,-53,70,4,-75,131,-73,-204,-165,-175,-161
-43,-87,-43,65,0,-65,126,-73,-204,-165,-170,-161
-39,-82,-43,61,2,-63,112,-78,-195,-156,-165,-156
-24,-63,-39,43,7,-51,92,-97,-175,-131,-146,-131
-24,-39,-14,31,-4,-26,73,-122,-146,-97,-122,-112
-14,-4,9,9,-12,2,63,-112,-58,-39,-87,-87
9,73,63,-41,-26,68,19,-122,68,87,34,0
78,224,146,-151,-34,185,-87,-204,190,302,244,185
165,424,258,-295,-46,341,-209,-302,322,590,512,419
273,610,336,-441,-31,473,-361,-419,473,888,800,683
370,800,429,-585,-29,614,-488,-512,605,1161,1073,932
439,971,531,-705,-46,751,-585,-575,702,1381,1298,1146
483,976,492,-729,-4,734,-649,-658,619,1415,1366,1220
488,795,307,-641,90,551,-644,-707,395,1176,1249,1161
409,507,97,-458,156,302,-570,-780,-19,722,941,956
268,87,-180,-178,224,-46,-419,-785,-556,102,488,634
107,-136,-244,14,175,-190,-244,-736,-936,-341,117,331
-29,-112,-82,70,26,-97,-97,-610,-912,-409,-14,180
-112,-126,-14,119,-48,-70,-9,-488,-814,-409,-107,48
-117,-87,29,102,-73,-29,4,-385,-678,-375,-136,-19
-107,-78,29,92,-68,-24,39,-244,-531,-331,-170,-78
-92,-87,4,90,-48,-41,43,-170,-429,-292,-175,-107
-82,-87,-4,85,-39,-46,68,-156,-366,-244,-175,-122
-63,-87,-24,75,-19,-56,102,-107,-273,-200,-170,-131
-58,-78,-19,68,-19,-48,131,-29,-200,-185,-165,-136
-48,-78,-29,63,-9,-53,141,0,-161,-170,-165,-151
-43,-87,-43,65,0,-65,146,4,-141,-156,-165,-161
-43,-87,-43,65,0,-65,156,9,-136,-156,-170,-170
-43,-82,-39,63,-2,-61,165,29,-122,-161,-175,-175
-43,-82,-39,63,-2,-61,165,43,-112,-161,-175,-180
-39,-92,-53,65,7,-73,165,43,-107,-161,-175,-180
-34,-92,-58,63,12,-75,165,43,-107,-151,-175,-180
-34,-92,-58,63,12,-75,165,39,-102,-151,-175,-175
-34,-92,-58,63,12,-75,161,39,-97,-146,-175,-175
-34,-92,-58,63,12,-75,161,39,-97,-146,-175,-175
-29,-87,-58,58,14,-73,156,39,-97,-141,-170,-170
-29,-87,-58,58,14,-73,161,43,-92,-136,-170,-170
-29,-87,-58,58,14,-73,165,53,-78,-136,-170,-170
-29,-82,-53,56,12,-68,165,53,-82,-131,-165,-170
-24,-78,-53,51,14,-65,165,53,-82,-136,-165,-175
-24,-73,-48,48,12,-61,156,63,-78,-131,-165,-175
-19,-73,-53,46,17,-63,146,68,-68,-126,-161,-175
-24,-63,-39,43,7,-51,146,73,-58,-122,-156,-165
-24,-58,-34,41,4,-46,141,73,-48,-112,-156,-161
-24,-63,-39,43,7,-51,141,78,-39,-107,-151,-151
-14,-63,-48,39,17,-56,141,82,-34,-102,-146,-146
-14,-63,-48,39,17,-56,141,92,-14,-87,-136,-141
-9,-63,-53,36,21,-58,141,102,4,-78,-131,-136
-9,-48,-39,29,14,-43,141,112,29,-68,-131,-131
-4,-43,-39,24,17,-41,141,122,48,-53,-126,-126
0,-24,-24,12,12,-24,141,131,73,-43,-107,-122
9,-19,-29,4,19,-24,141,146,97,-34,-97,-102
24,-19,-43,-2,34,-31,136,156,126,-14,-87,-97
34,-9,-43,-12,39,-26,131,175,156,4,-73,-87
43,-9,-53,-17,48,-31,126,195,195,29,-58,-78
43,0,-43,-21,43,-21,122,214,244,58,-43,-63
63,24,-39,-43,51,-7,126,239,302,82,-19,-48
78,43,-34,-61,56,4,126,263,361,117,0,-29
92,58,-34,-75,63,12,122,292,409,151,24,-9
97,92,-4,-95,51,43,122,322,468,190,58,9
112,122,9,-117,51,65,122,341,522,224,82,43
141,141,0,-141,70,70,112,356,570,263,112,63
161,161,0,-161,80,80,107,375,614,302,146,82
175,200,24,-187,75,112,97,395,658,341,175,107
190,239,48,-214,70,143,87,409,702,380,214,136
204,268,63,-236,70,165,78,424,736,409,234,161
209,273,63,-241,73,168,73,429,761,429,268,190
209,292,82,-251,63,187,63,439,785,458,292,209
219,302,82,-261,68,192,53,439,800,478,317,234
229,307,78,-268,75,192,53,439,800,497,336,258
234,326,92,-280,70,209,43,429,800,497,346,268
234,336,102,-285,65,219,39,409,775,497,351,278
224,336,112,-280,56,224,29,390,741,497,356,283
214,331,117,-273,48,224,29,356,692,478,356,283
200,331,131,-265,34,231,29,322,639,444,336,273
195,317,122,-256,36,219,19,283,566,409,312,263
175,307,131,-241,21,219,19,244,492,370,287,244
161,278,117,-219,21,197,19,204,419,326,253,209
136,244,107,-190,14,175,19,165,346,278,219,190
117,224,107,-170,4,165,19,126,268,229,175,156
107,195,87,-151,9,141,19,92,200,190,146,131
82,156,73,-119,4,114,24,58,131,141,112,97
63,122,58,-92,2,90,34,39,82,97,78,68
53,97,43,-75,4,70,39,19,43,63,48,43
48,78,29,-63,9,53,39,4,4,24,19,19
34,58,24,-46,4,41,39,-9,-34,-4,0,0
29,29,0,-29,14,14,39,-24,-58,-29,-24,-19
19,9,-9,-14,14,0,39,-34,-82,-53,-43,-39
4,-14,-19,4,12,-17,34,-39,-97,-78,-63,-53
0,-48,-48,24,24,-48,29,-43,-117,-102,-78,-68
-4,-53,-48,29,21,-51,39,-43,-122,-102,-82,-73
-14,-63,-48,39,17,-56,53,-48,-126,-102,-92,-73
-14,-58,-43,36,14,-51,53,-48,-136,-112,-102,-82
-9,-48,-39,29,14,-43,53,-53,-141,-112,-107,-82
-4,-58,-53,31,24,-56,53,-53,-146,-112,-107,-82
-4,-58,-53,31,24,-56,53,-58,-146,-112,-112,-87
-4,-63,-58,34,26,-61,58,-58,-146,-117,-117,-92
-4,-73,-68,39,31,-70,63,-58,-141,-122,-117,-92
-9,-73,-63,41,26,-68,68,-53,-141,-122,-117,-92
-14,-82,-68,48,26,-75,73,-48,-141,-122,-117,-87
-14,-78,-63,46,24,-70,73,-48,-146,-122,-117,-87
-14,-68,-53,41,19,-61,73,-48,-151,-117,-117,-87
-9,-78,-68,43,29,-73,68,-43,-151,-117,-117,-87
-9,-78,-68,43,29,-73,68,-39,-146,-117,-117,-92
-9,-78,-68,43,29,-73,68,-43,-146,-117,-117,-92
-9,-78,-68,43,29,-73,68,-43,-146,-112,-112,-92
-4,-73,-68,39,31,-70,73,-43,-146,-112,-107,-92
-9,-68,-58,39,24,-63,78,-39,-141,-112,-107,-87
-9,-68,-58,39,24,-63,78,-34,-141,-112,-107,-87
-9,-53,-43,31,17,-48,87,-34,-136,-112,-102,-87
-9,-58,-48,34,19,-53,78,-34,-136,-117,-97,-87
-4,-53,-48,29,21,-51,78,-39,-136,-122,-97,-87
0,-43,-43,21,21,-43,78,-43,-136,-122,-97,-87
4,-39,-43,17,24,-41,73,-43,-136,-122,-97,-87
0,-39,-39,19,19,-39,68,-39,-126,-117,-102,-87
-4,-39,-34,21,14,-36,68,-39,-126,-117,-102,-92
-9,-48,-39,29,14,-43,68,-34,-122,-112,-102,-87
-9,-63,-53,36,21,-58,73,-29,-117,-107,-97,-78
-9,-73,-63,41,26,-68,73,-29,-112,-107,-97,-78
-4,-68,-63,36,29,-65,82,-24,-112,-107,-97,-78
4,-53,-58,24,31,-56,68,-24,-112,-107,-102,-82
9,-43,-53,17,31,-48,68,-24,-112,-107,-102,-87
9,-58,-68,24,39,-63,68,-24,-112,-107,-102,-82
9,-58,-68,24,39,-63,73,-24,-107,-107,-102,-82
9,-58,-68,24,39,-63,73,-19,-102,-107,-97,-87
4,-63,-68,29,36,-65,73,-14,-97,-97,-92,-82
4,-53,-58,24,31,-56,68,-14,-97,-97,-92,-78
9,-53,-63,21,36,-58,58,-14,-97,-97,-92,-68
9,-48,-58,19,34,-53,58,-24,-97,-97,-92,-68
9,-43,-53,17,31,-48,53,-34,-97,-97,-92,-73
9,-39,-48,14,29,-43,58,-24,-97,-102,-92,-78
9,-29,-39,9,24,-34,63,-19,-102,-102,-92,-78
9,-43,-53,17,31,-48,68,-19,-102,-107,-97,-82
14,-53,-68,19,41,-61,73,-19,-107,-107,-97,-82
14,-53,-68,19,41,-61,68,-24,-107,-107,-92,-78
9,-63,-73,26,41,-68,58,-24,-107,-107,-87,-78
9,-68,-78,29,43,-73,58,-24,-117,-112,-87,-78
4,-73,-78,34,41,-75,58,-29,-122,-117,-87,-78
4,-73,-78,34,41,-75,58,-39,-126,-122,-92,-78
9,-73,-82,31,46,-78,63,-43,-126,-122,-102,-82
9,-73,-82,31,46,-78,78,-39,-126,-126,-102,-82
9,-73,-82,31,46,-78,73,-39,-126,-126,-107,-82
9,-63,-73,26,41,-68,73,-39,-126,-131,-107,-82
4,-58,-63,26,34,-61,78,-39,-122,-131,-102,-82
0,-58,-58,29,29,-58,78,-39,-122,-122,-97,-87
0,-58,-58,29,29,-58,78,-43,-122,-117,-97,-92
0,-48,-48,24,24,-48,78,-39,-117,-112,-92,-82
0,-39,-39,19,19,-39,78,-39,-117,-107,-87,-78
0,-24,-24,12,12,-24,78,-39,-107,-102,-82,-73
0,-9,-9,4,4,-9,78,-39,-97,-97,-78,-68
0,-9,-9,4,4,-9,82,-34,-92,-97,-73,-63
0,-4,-4,2,2,-4,87,-24,-87,-87,-63,-58
-4,-4,0,4,-2,-2,92,-19,-82,-82,-58,-53
-4,4,9,0,-7,7,87,-24,-73,-73,-53,-53
-4,14,19,-4,-12,17,68,-29,-73,-73,-53,-53
0,14,14,-7,-7,14,43,-48,-87,-73,-53,-48
0,14,14,-7,-7,14,19,-68,-112,-82,-53,-48
4,4,0,-4,2,2,9,-87,-131,-87,-58,-48
14,4,-9,-9,12,-2,4,-97,-136,-92,-58,-48
14,9,-4,-12,9,2,0,-102,-136,-92,-58,-48
14,19,4,-17,4,12,-4,-107,-141,-92,-53,-39
14,19,4,-17,4,12,-9,-107,-141,-87,-48,-34
19,39,19,-29,0,29,-9,-107,-136,-78,-34,-24
29,53,24,-41,2,39,-4,-97,-126,-68,-24,-9
43,53,9,-48,17,31,4,-92,-122,-58,-19,-4
43,53,9,-48,17,31,4,-87,-117,-53,-14,0
43,58,14,-51,14,36,4,-87,-112,-43,4,19
39,73,34,-56,2,53,4,-87,-107,-34,24,43
43,92,48,-68,-2,70,4,-78,-92,-19,34,58
58,97,39,-78,9,68,14,-58,-68,-9,34,58
43,48,4,-46,19,26,39,-48,-87,-48,4,19
14,-4,-19,-4,17,-12,53,-43,-117,-82,-34,-24
4,-34,-39,14,21,-36,68,-48,-122,-92,-63,-48
-9,-48,-39,29,14,-43,73,-63,-141,-112,-82,-73
-9,-73,-63,41,26,-68,82,-63,-156,-126,-102,-97
-9,-92,-82,51,36,-87,87,-58,-165,-136,-107,-102
-9,-107,-97,58,43,-102,92,-48,-165,-146,-122,-112
-9,-117,-107,63,48,-112,92,-43,-165,-146,-131,-122
-14,-126,-112,70,48,-119,97,-43,-165,-146,-136,-126
-14,-131,-117,73,51,-124,97,-43,-165,-151,-136,-126
-19,-131,-112,75,46,-122,97,-43,-170,-151,-136,-126
-19,-131,-112,75,46,-122,97,-43,-170,-156,-141,-131
-19,-131,-112,75,46,-122,102,-43,-170,-161,-141,-136
-19,-131,-112,75,46,-122,107,-43,-175,-170,-146,-136
-29,-131,-102,80,36,-117,112,-43,-175,-170,-146,-136
-39,-131,-92,85,26,-112,117,-39,-175,-170,-146,-136
-34,-136,-102,85,34,-119,117,-43,-165,-170,-146,-136
-34,-146,-112,90,39,-129,117,-43,-165,-170,-146,-136
-34,-146,-112,90,39,-129,122,-43,-165,-165,-141,-131
-34,-141,-107,87,36,-124,122,-43,-165,-165,-136,-131
-29,-136,-107,82,39,-122,117,-43,-165,-165,-131,-131
-19,-136,-117,78,48,-126,102,-48,-161,-161,-131,-131
-4,-122,-117,63,56,-119,73,-68,-151,-146,-122,-117
-4,-97,-92,51,43,-95,43,-92,-126,-122,-102,-102
-4,-73,-68,39,31,-70,43,-82,-39,-78,-82,-82
9,-24,-34,7,21,-29,9,-82,78,19,-4,-19
78,107,29,-92,24,68,-87,-156,170,214,170,136
165,307,141,-236,12,224,-200,-253,283,483,419,346
278,502,224,-390,26,363,-366,-375,444,766,692,595
385,712,326,-549,29,519,-512,-473,605,1068,985,854
458,922,463,-690,-2,692,-619,-536,746,1356,1259,1098
517,1000,483,-758,17,741,-717,-619,746,1498,1405,1234
561,878,317,-719,122,597,-751,-663,624,1366,1371,1254
527,605,78,-566,224,341,-688,-746,253,980,1122,1098
405,141,-263,-273,334,-61,-527,-766,-326,331,673,775
229,-151,-380,-39,305,-265,-336,-722,-810,-209,258,448
73,-156,-229,41,151,-192,-185,-600,-858,-341,87,278
-19,-175,-156,97,68,-165,-82,-478,-775,-370,-24,136
-34,-136,-102,85,34,-119,-48,-375,-639,-346,-58,68
-43,-117,-73,80,14,-95,-4,-234,-502,-312,-107,-9
-43,-117,-73,80,14,-95,4,-161,-409,-283,-131,-58
-34,-107,-73,70,19,-90,34,-146,-346,-234,-136,-73
-14,-92,-78,53,31,-85,73,-97,-253,-185,-131,-87
-9,-87,-78,48,34,-82,107,-14,-175,-161,-126,-97
0,-92,-92,46,46,-92,122,19,-126,-141,-126,-112
4,-97,-102,46,53,-100,126,24,-102,-126,-126,-117
4,-97,-102,46,53,-100,136,29,-92,-126,-131,-122
4,-92,-97,43,51,-95,146,48,-73,-131,-136,-126
4,-87,-92,41,48,-90,146,63,-63,-131,-136,-131
9,-92,-102,41,56,-97,146,63,-58,-131,-136,-131
9,-87,-97,39,53,-92,146,63,-58,-122,-136,-136
4,-82,-87,39,46,-85,151,63,-53,-122,-136,-141
4,-78,-82,36,43,-80,151,68,-53,-117,-136,-146
4,-73,-78,34,41,-75,151,68,-53,-117,-136,-146
9,-68,-78,29,43,-73,146,68,-48,-112,-131,-136
9,-68,-78,29,43,-73,146,68,-43,-107,-131,-131
9,-73,-82,31,46,-78,146,73,-29,-107,-131,-131
9,-73,-82,31,46,-78,146,73,-29,-97,-126,-126
14,-68,-82,26,48,-75,146,73,-24,-97,-126,-126
14,-63,-78,24,46,-70,146,82,-19,-92,-126,-126
19,-63,-82,21,51,-73,146,87,-14,-87,-122,-126
19,-53,-73,17,46,-63,146,92,-9,-87,-117,-122
24,-53,-78,14,51,-65,141,92,0,-82,-117,-122
24,-58,-82,17,53,-70,141,97,9,-78,-112,-117
34,-53,-87,9,61,-70,141,102,9,-73,-107,-117
34,-53,-87,9,61,-70,141,112,24,-63,-97,-112
39,-58,-97,9,68,-78,141,122,43,-58,-92,-107
39,-48,-87,4,63,-68,136,131,63,-48,-92,-102
43,-48,-92,2,68,-70,131,141,78,-34,-87,-97
43,-34,-78,-4,61,-56,131,151,102,-24,-73,-97
43,-29,-73,-7,58,-51,131,165,131,-14,-68,-82
53,-29,-82,-12,68,-56,131,180,165,4,-58,-78
63,-19,-82,-21,73,-51,131,204,195,19,-48,-68
73,-14,-87,-29,80,-51,126,224,229,34,-39,-58
73,0,-73,-36,73,-36,122,239,268,53,-24,-48
92,24,-68,-58,80,-21,122,258,312,68,-4,-43
107,53,-53,-80,80,0,117,283,361,97,9,-29
122,73,-48,-97,85,12,112,312,409,131,29,-9
126,87,-39,-107,82,24,112,341,473,170,58,9
136,97,-39,-117,87,29,112,370,536,204,82,43
161,112,-48,-136,104,31,107,400,590,244,112,63
180,131,-48,-156,114,41,107,424,639,283,146,87
195,175,-19,-185,107,78,97,444,697,326,175,117
209,219,9,-214,100,114,92,458,751,370,214,146
224,248,24,-236,100,136,82,478,785,400,234,170
234,263,29,-248,102,146,73,488,814,424,268,200
239,292,53,-265,92,173,63,497,844,458,292,219
248,307,58,-278,95,183,48,497,863,478,317,239
258,317,58,-287,100,187,48,497,868,502,341,258
263,341,78,-302,92,209,43,488,868,512,356,268
263,366,102,-314,80,234,39,468,844,522,361,278
253,375,122,-314,65,248,24,444,810,527,366,283
244,370,126,-307,58,248,14,405,761,512,366,292
229,370,141,-300,43,256,9,370,707,488,351,292
224,351,126,-287,48,239,0,331,634,458,331,283
204,336,131,-270,36,234,0,287,561,419,312,268
190,307,117,-248,36,212,0,244,483,375,283,239
170,268,97,-219,36,183,0,200,405,326,248,219
156,239,82,-197,36,161,0,156,326,273,204,185
146,200,53,-173,46,126,0,122,258,229,175,161
122,156,34,-139,43,95,4,78,185,180,141,126
97,122,24,-109,36,73,14,43,126,136,107,97
82,102,19,-92,31,61,19,19,82,97,73,73
78,87,9,-82,34,48,19,4,39,53,39,48
63,68,4,-65,29,36,19,-9,-9,24,19,24
58,39,-19,-48,39,9,24,-24,-39,0,-4,4
48,14,-34,-31,41,-9,29,-34,-63,-29,-24,-9
34,-4,-39,-14,36,-21,34,-39,-78,-48,-43,-24
34,-29,-63,-2,48,-46,39,-48,-102,-63,-58,-43
34,-34,-68,0,51,-51,39,-53,-117,-73,-63,-58
24,-43,-68,9,46,-56,43,-58,-126,-82,-78,-63
24,-48,-73,12,48,-61,43,-58,-136,-92,-87,-73
24,-48,-73,12,48,-61,43,-63,-146,-87,-87,-73
19,-58,-78,19,48,-68,43,-63,-156,-87,-87,-73
14,-58,-73,21,43,-65,43,-68,-156,-92,-92,-78
14,-53,-68,19,41,-61,43,-68,-161,-97,-102,-82
14,-48,-63,17,39,-56,43,-68,-161,-102,-102,-82
14,-43,-58,14,36,-51,48,-68,-161,-102,-97,-82
14,-43,-58,14,36,-51,43,-68,-161,-102,-97,-78
14,-39,-53,12,34,-46,34,-68,-161,-102,-97,-78
14,-48,-63,17,39,-56,48,-68,-161,-97,-97,-78
14,-58,-73,21,43,-65,58,-68,-161,-97,-97,-78
9,-53,-63,21,36,-58,48,-68,-156,-97,-97,-82
9,-58,-68,24,39,-63,39,-73,-156,-97,-97,-82
9,-58,-68,24,39,-63,39,-73,-156,-92,-92,-82
19,-58,-78,19,48,-68,43,-73,-156,-92,-92,-82
19,-53,-73,17,46,-63,48,-68,-151,-87,-97,-78
19,-48,-68,14,43,-58,48,-63,-151,-82,-97,-78
19,-34,-53,7,36,-43,58,-63,-146,-82,-92,-78
14,-43,-58,14,36,-51,48,-58,-146,-82,-92,-78
14,-43,-58,14,36,-51,53,-58,-146,-82,-92,-78
19,-39,-58,9,39,-48,58,-58,-146,-82,-87,-78
24,-43,-68,9,46,-56,58,-48,-141,-82,-87,-73
24,-48,-73,12,48,-61,58,-39,-126,-78,-87,-68
24,-48,-73,12,48,-61,58,-39,-126,-73,-82,-68
19,-53,-73,17,46,-63,58,-39,-126,-68,-82,-63
24,-68,-92,21,58,-80,63,-34,-126,-68,-78,-58
29,-73,-102,21,65,-87,63,-29,-122,-68,-78,-58
34,-58,-92,12,63,-75,78,-24,-117,-68,-78,-58
39,-53,-92,7,65,-73,68,-24,-112,-68,-82,-58
39,-48,-87,4,63,-68,68,-24,-112,-68,-82,-58
39,-58,-97,9,68,-78,68,-24,-112,-68,-82,-53
39,-58,-97,9,68,-78,68,-29,-112,-73,-82,-58
39,-53,-92,7,65,-73,63,-34,-117,-78,-82,-73
34,-53,-87,9,61,-70,63,-34,-117,-68,-82,-73
34,-43,-78,4,56,-61,63,-34,-117,-68,-82,-73
39,-43,-82,2,61,-63,58,-34,-122,-68,-78,-63
39,-43,-82,2,61,-63,58,-34,-126,-68,-73,-58
39,-43,-82,2,61,-63,53,-34,-126,-68,-73,-63
39,-48,-87,4,63,-68,53,-34,-126,-73,-73,-68
39,-39,-78,0,58,-58,53,-39,-131,-78,-73,-73
39,-34,-73,-2,56,-53,58,-39,-131,-87,-78,-78
39,-43,-82,2,61,-63,63,-43,-136,-87,-78,-73
34,-53,-87,9,61,-70,63,-48,-136,-87,-78,-68
29,-63,-92,17,61,-78,53,-43,-136,-87,-78,-68
29,-63,-92,17,61,-78,48,-43,-141,-87,-78,-68
24,-63,-87,19,56,-75,48,-48,-141,-87,-82,-68
24,-63,-87,19,56,-75,48,-53,-146,-92,-82,-68
29,-68,-97,19,63,-82,53,-53,-146,-92,-82,-73
29,-73,-102,21,65,-87,63,-48,-146,-97,-82,-73
29,-73,-102,21,65,-87,53,-53,-146,-97,-87,-78
29,-73,-102,21,65,-87,53,-58,-146,-97,-87,-82
24,-82,-107,29,65,-95,48,-58,-151,-97,-92,-82
24,-78,-102,26,63,-90,48,-58,-151,-97,-87,-87
19,-73,-92,26,56,-82,53,-63,-151,-92,-82,-87
19,-68,-87,24,53,-78,58,-68,-156,-87,-78,-87
19,-53,-73,17,46,-63,58,-68,-146,-87,-78,-87
19,-39,-58,9,39,-48,58,-68,-136,-87,-78,-87
19,-34,-53,7,36,-43,58,-68,-131,-78,-73,-78
19,-29,-48,4,34,-39,58,-63,-126,-68,-68,-68
19,-29,-48,4,34,-39,63,-58,-126,-63,-63,-63
24,-19,-43,-2,34,-31,63,-53,-122,-58,-58,-53
29,-4,-34,-12,31,-19,73,-63,-112,-53,-58,-53
34,4,-29,-19,31,-12,68,-68,-112,-53,-63,-53
39,9,-29,-24,34,-9,34,-87,-126,-48,-63,-48
39,14,-24,-26,31,-4,0,-107,-146,-53,-63,-48
43,4,-39,-24,41,-17,-9,-126,-161,-58,-63,-48
53,4,-48,-29,51,-21,-14,-136,-165,-63,-58,-48
53,9,-43,-31,48,-17,-24,-141,-165,-63,-58,-48
53,19,-34,-36,43,-7,-34,-146,-170,-63,-53,-39
53,19,-34,-36,43,-7,-43,-151,-170,-58,-48,-39
58,34,-24,-46,41,4,-48,-156,-165,-48,-34,-29
73,48,-24,-61,48,12,-43,-146,-156,-39,-24,-9
92,53,-39,-73,65,7,-34,-141,-151,-34,-19,-4
92,53,-39,-73,65,7,-24,-136,-146,-34,-14,0
92,58,-34,-75,63,12,-14,-136,-141,-24,0,9
87,63,-24,-75,56,19,-24,-136,-136,-14,14,29
87,68,-19,-78,53,24,-34,-131,-126,0,24,48
97,87,-9,-92,53,39,-24,-117,-107,19,34,58
82,58,-24,-70,53,17,4,-107,-126,-9,14,29
53,-4,-58,-24,56,-31,24,-102,-156,-43,-24,-14
43,-43,-87,0,65,-65,39,-102,-161,-53,-48,-34
29,-63,-92,17,61,-78,43,-112,-180,-78,-68,-53
29,-87,-117,29,73,-102,53,-112,-190,-97,-92,-78
29,-102,-131,36,80,-117,58,-107,-195,-107,-97,-82
29,-117,-146,43,87,-131,63,-102,-195,-117,-112,-92
24,-126,-151,51,87,-139,58,-107,-200,-117,-126,-107
14,-136,-151,61,82,-143,58,-112,-209,-122,-136,-117
14,-141,-156,63,85,-148,58,-112,-214,-131,-136,-117
9,-141,-151,65,80,-146,58,-112,-219,-131,-136,-117
9,-141,-151,65,80,-146,58,-112,-219,-141,-141,-122
9,-141,-151,65,80,-146,58,-112,-219,-146,-141,-126
9,-141,-151,65,80,-146,58,-112,-224,-151,-146,-126
9,-141,-151,65,80,-146,63,-112,-224,-151,-146,-126
9,-141,-151,65,80,-146,68,-107,-224,-151,-146,-126
14,-146,-161,65,87,-153,68,-107,-214,-151,-146,-126
14,-156,-170,70,92,-163,73,-97,-209,-151,-146,-126
14,-156,-170,70,92,-163,82,-92,-204,-146,-146,-122
14,-151,-165,68,90,-158,82,-92,-204,-146,-146,-122
14,-146,-161,65,87,-153,78,-92,-204,-146,-141,-122
19,-146,-165,63,92,-156,73,-97,-209,-146,-146,-126
34,-131,-165,48,100,-148,63,-117,-204,-131,-136,-112
29,-117,-146,43,87,-131,48,-141,-200,-126,-126,-102
34,-92,-126,29,80,-109,43,-131,-136,-97,-107,-87
43,-82,-126,19,85,-104,24,-107,-34,-43,-73,-73
97,0,-97,-48,97,-48,-58,-156,63,97,48,39
185,200,14,-192,85,107,-180,-253,195,351,283,239
292,385,92,-339,100,239,-331,-370,346,614,536,468
409,619,209,-514,100,414,-488,-473,541,961,868,756
497,834,336,-666,80,585,-614,-546,702,1254,1151,1010
595,995,400,-795,97,697,-751,-629,800,1522,1390,1224
653,971,317,-812,168,644,-819,-678,756,1517,1444,1307
629,707,78,-668,275,392,-795,-795,395,1151,1224,1176
541,312,-229,-427,385,41,-692,-844,-87,619,858,927
351,-48,-400,-151,375,-224,-488,-834,-712,-39,375,561
185,-161,-346,-12,265,-253,-312,-746,-932,-322,131,346
53,-175,-229,61,141,-202,-180,-624,-858,-346,9,195
0,-136,-136,68,68,-136,-122,-522,-746,-336,-48,107
-9,-112,-102,61,46,-107,-73,-346,-595,-307,-107,19
-14,-107,-92,61,39,-100,-53,-239,-488,-283,-136,-39
-4,-92,-87,48,41,-90,-24,-239,-424,-234,-141,-63
14,-78,-92,31,53,-85,14,-204,-331,-190,-141,-82
19,-78,-97,29,58,-87,58,-102,-239,-170,-136,-87
29,-87,-117,29,73,-102,82,-48,-180,-151,-136,-102
39,-102,-141,31,90,-122,87,-43,-156,-131,-136,-107
43,-107,-151,31,97,-129,97,-39,-146,-126,-141,-112
43,-102,-146,29,95,-124,107,-19,-131,-131,-151,-122
43,-102,-146,29,95,-124,107,-4,-122,-131,-156,-131
48,-107,-156,29,102,-131,107,-4,-117,-131,-156,-131
53,-102,-156,24,104,-129,107,-4,-117,-122,-156,-131
53,-102,-156,24,104,-129,112,-4,-112,-122,-156,-131
53,-102,-156,24,104,-129,112,0,-107,-117,-156,-136
48,-102,-151,26,100,-126,112,0,-102,-112,-156,-136
48,-97,-146,24,97,-122,107,0,-97,-102,-151,-131
48,-97,-146,24,97,-122,107,0,-92,-97,-146,-131
48,-97,-146,24,97,-122,107,4,-78,-97,-141,-131
48,-92,-141,21,95,-117,107,4,-73,-87,-136,-126
53,-87,-141,17,97,-114,107,4,-63,-87,-136,-126
53,-82,-136,14,95,-109,107,14,-58,-82,-136,-126
58,-82,-141,12,100,-112,107,19,-48,-78,-131,-126
58,-73,-131,7,95,-102,112,24,-43,-78,-126,-122
63,-68,-131,2,97,-100,112,24,-39,-73,-126,-122
63,-68,-131,2,97,-100,112,29,-29,-68,-122,-117
73,-63,-136,-4,104,-100,112,34,-24,-63,-117,-117
73,-63,-136,-4,104,-100,112,43,-4,-53,-107,-112
78,-63,-141,-7,109,-102,112,53,14,-48,-102,-107
82,-39,-122,-21,102,-80,107,63,34,-39,-102,-102
92,-24,-117,-34,104,-70,102,73,48,-24,-97,-97
92,-4,-97,-43,95,-51,102,78,63,-14,-87,-102
97,0,-97,-48,97,-48,102,87,78,-4,-87,-92
107,0,-107,-53,107,-53,107,102,107,9,-78,-87
112,9,-102,-61,107,-46,112,126,136,24,-63,-78
122,9,-112,-65,117,-51,107,146,165,39,-53,-68
122,19,-102,-70,112,-41,102,165,204,58,-43,-53
141,34,-107,-87,124,-36,102,190,253,78,-24,-43
156,43,-112,-100,134,-34,97,214,302,107,-9,-29
170,53,-117,-112,143,-31,92,244,341,141,9,-14
175,82,-92,-129,134,-4,92,273,390,180,39,0
180,107,-73,-143,126,17,92,307,458,209,53,34
200,122,-78,-161,139,21,82,336,522,244,73,53
219,131,-87,-175,153,21,78,361,575,283,107,73
234,161,-73,-197,153,43,68,385,629,322,136,97
248,200,-48,-224,148,75,63,405,683,366,175,126
263,229,-34,-246,148,97,58,424,727,400,195,151
278,248,-29,-263,153,109,53,429,756,424,229,180
287,283,-4,-285,146,139,43,439,785,458,253,200
297,307,9,-302,143,158,24,439,810,483,283,219
307,326,19,-317,143,173,14,439,819,507,307,239
317,336,19,-326,148,178,4,439,839,517,322,253
322,336,14,-329,153,175,0,429,834,527,331,268
322,336,14,-329,153,175,-14,419,819,541,346,278
322,331,9,-326,156,170,-19,395,790,536,356,283
307,336,29,-322,139,183,-19,351,736,512,341,273
302,326,24,-314,139,175,-29,302,663,488,322,263
283,322,39,-302,122,180,-34,258,585,448,307,253
268,297,29,-283,119,163,-39,214,507,405,283,229
248,258,9,-253,119,134,-39,165,434,356,248,209
234,234,0,-234,117,117,-39,117,356,307,204,175
224,209,-14,-217,119,97,-39,73,287,273,175,156
200,175,-24,-187,112,75,-34,29,219,229,141,126
175,131,-43,-153,109,43,-24,0,156,185,107,97
161,97,-63,-129,112,17,-19,-29,102,151,78,73
156,78,-78,-117,117,0,-19,-48,58,112,48,43
141,58,-82,-100,112,-12,-19,-68,14,82,29,19
131,29,-102,-80,117,-36,-9,-82,-19,58,0,0
117,9,-107,-63,112,-48,0,-92,-53,34,-24,-19
102,-4,-107,-48,104,-56,4,-107,-73,9,-48,-34
97,-29,-126,-34,112,-78,9,-122,-97,-14,-68,-48
92,-34,-126,-29,109,-80,9,-122,-107,-24,-73,-58
82,-43,-126,-19,104,-85,14,-126,-117,-34,-82,-63
82,-48,-131,-17,107,-90,14,-131,-126,-48,-92,-78
87,-48,-136,-19,112,-92,14,-141,-131,-53,-97,-82
92,-58,-151,-17,122,-104,14,-141,-136,-58,-97,-82
92,-58,-151,-17,122,-104,14,-146,-136,-63,-102,-87
92,-43,-136,-24,114,-90,9,-151,-141,-68,-107,-97
92,-34,-126,-29,109,-80,4,-156,-141,-73,-107,-102
92,-34,-126,-29,109,-80,9,-156,-141,-73,-107,-102
92,-43,-136,-24,114,-90,14,-156,-141,-73,-107,-97
92,-39,-131,-26,112,-85,14,-156,-141,-73,-107,-92
92,-29,-122,-31,107,-75,14,-156,-141,-68,-107,-87
102,-43,-146,-29,124,-95,9,-156,-141,-68,-107,-87
107,-48,-156,-29,131,-102,9,-156,-136,-68,-107,-92
107,-58,-165,-24,136,-112,9,-161,-131,-68,-107,-92
107,-68,-175,-19,141,-122,9,-161,-126,-63,-102,-92
117,-58,-175,-29,146,-117,14,-161,-126,-63,-102,-92
117,-48,-165,-34,141,-107,19,-156,-122,-63,-107,-87
122,-48,-170,-36,146,-109,14,-156,-122,-63,-112,-97
126,-34,-161,-46,143,-97,19,-161,-117,-63,-112,-107
122,-39,-161,-41,141,-100,9,-156,-117,-63,-112,-107
122,-34,-156,-43,139,-95,9,-156,-117,-63,-117,-107
126,-19,-146,-53,136,-82,9,-156,-117,-63,-112,-107
131,-9,-141,-61,136,-75,4,-151,-117,-63,-107,-107
131,-24,-156,-53,143,-90,0,-146,-107,-58,-107,-102
131,-39,-170,-46,151,-104,0,-146,-107,-58,-102,-102
126,-29,-156,-48,141,-92,-4,-151,-107,-58,-102,-102
126,-24,-151,-51,139,-87,-4,-156,-107,-58,-97,-97
126,-24,-151,-51,139,-87,-4,-161,-102,-53,-97,-97
131,-9,-141,-61,136,-75,4,-161,-102,-48,-97,-97
131,-4,-136,-63,134,-70,-9,-165,-107,-48,-102,-102
126,-4,-131,-61,129,-68,-9,-170,-112,-48,-102,-107
126,-4,-131,-61,129,-68,-14,-175,-122,-48,-107,-107
126,9,-117,-68,122,-53,-14,-180,-126,-48,-112,-112
136,24,-112,-80,124,-43,-14,-180,-126,-48,-112,-122
141,34,-107,-87,124,-36,-14,-180,-126,-39,-112,-122
141,24,-117,-82,129,-46,-14,-185,-122,-39,-112,-122
146,4,-141,-75,143,-68,-19,-190,-117,-39,-112,-117
146,4,-141,-75,143,-68,-19,-190,-117,-29,-112,-117
146,4,-141,-75,143,-68,-24,-190,-117,-19,-112,-122
151,4,-146,-78,148,-70,-34,-190,-117,-24,-112,-131
156,9,-146,-82,151,-68,-43,-195,-122,-24,-112,-136
156,19,-136,-87,146,-58,-48,-209,-126,-29,-117,-136
161,34,-126,-97,143,-46,-53,-224,-136,-29,-117,-131
165,39,-126,-102,146,-43,-53,-229,-136,-29,-117,-131
165,34,-131,-100,148,-48,-58,-229,-136,-29,-117,-136
165,34,-131,-100,148,-48,-63,-229,-141,-24,-122,-136
161,34,-126,-97,143,-46,-68,-234,-141,-19,-126,-136
161,34,-126,-97,143,-46,-73,-244,-146,-24,-122,-136
165,34,-131,-100,148,-48,-73,-248,-146,-24,-122,-141
170,34,-136,-102,153,-51,-63,-248,-146,-29,-122,-141
175,34,-141,-104,158,-53,-73,-253,-146,-29,-126,-141
195,43,-151,-119,173,-53,-82,-263,-156,-29,-126,-141
209,48,-161,-129,185,-56,-92,-273,-165,-24,-126,-141
209,48,-161,-129,185,-56,-92,-278,-161,-34,-122,-151
209,68,-141,-139,175,-36,-97,-283,-161,-29,-122,-151
209,63,-146,-136,178,-41,-92,-278,-156,-19,-126,-146
214,63,-151,-139,183,-43,-87,-273,-151,-14,-131,-146
214,68,-146,-141,180,-39,-87,-278,-146,-9,-117,-141
214,78,-136,-146,175,-29,-87,-283,-146,-9,-107,-136
214,97,-117,-156,165,-9,-92,-287,-146,-4,-107,-136
214,117,-97,-165,156,9,-97,-292,-146,0,-107,-136
219,146,-73,-183,146,36,-112,-297,-151,0,-107,-141
224,156,-68,-190,146,43,-122,-302,-151,4,-102,-141
229,165,-63,-197,146,51,-131,-307,-156,9,-102,-141
239,161,-78,-200,158,41,-146,-326,-151,14,-102,-141
244,170,-73,-207,158,48,-170,-336,-151,14,-102,-141
253,170,-82,-212,168,43,-200,-361,-165,14,-102,-136
268,180,-87,-224,178,46,-234,-380,-190,9,-102,-136
287,180,-107,-234,197,36,-253,-400,-209,9,-107,-136
297,195,-102,-246,200,46,-263,-414,-214,9,-102,-136
297,214,-82,-256,190,65,-273,-424,-214,14,-97,-136
297,229,-68,-263,183,80,-283,-429,-219,19,-92,-126
297,234,-63,-265,180,85,-292,-429,-219,29,-87,-122
312,248,-63,-280,187,92,-312,-439,-219,39,-73,-112
331,258,-73,-295,202,92,-326,-439,-214,48,-63,-97
351,268,-82,-309,217,92,-317,-439,-209,53,-58,-92
356,278,-78,-317,217,100,-317,-439,-204,53,-53,-87
361,292,-68,-326,214,112,-326,-439,-200,68,-39,-68
361,317,-43,-339,202,136,-336,-439,-195,82,-24,-43
366,331,-34,-348,200,148,-336,-439,-200,97,-24,-43
380,331,-48,-356,214,141,-326,-429,-195,107,-34,-58
370,287,-82,-329,226,102,-307,-429,-219,68,-63,-102
346,239,-107,-292,226,65,-297,-434,-253,34,-102,-151
346,219,-126,-283,236,46,-297,-439,-258,24,-126,-175
341,214,-126,-278,234,43,-307,-453,-278,4,-141,-200
346,195,-151,-270,248,21,-307,-453,-287,-9,-161,-224
351,180,-170,-265,261,4,-312,-448,-292,-19,-165,-229
351,170,-180,-261,265,-4,-317,-453,-297,-29,-180,-239
351,165,-185,-258,268,-9,-326,-463,-302,-29,-190,-248
361,165,-195,-263,278,-14,-336,-468,-312,-29,-195,-253
375,170,-204,-273,290,-17,-351,-473,-322,-34,-195,-253
375,190,-185,-283,280,2,-351,-483,-326,-29,-195,-248
380,209,-170,-295,275,19,-351,-492,-326,-29,-200,-248
385,219,-165,-302,275,26,-366,-497,-331,-29,-204,-253
390,229,-161,-309,275,34,-380,-502,-341,-34,-214,-253
395,239,-156,-317,275,41,-380,-507,-346,-34,-214,-258
400,248,-151,-324,275,48,-380,-507,-351,-34,-214,-263
409,244,-165,-326,287,39,-390,-512,-346,-34,-214,-263
414,234,-180,-324,297,26,-400,-512,-351,-34,-214,-263
429,244,-185,-336,307,29,-414,-522,-361,-29,-214,-258
444,258,-185,-351,314,36,-434,-531,-370,-29,-214,-258
453,283,-170,-368,312,56,-444,-541,-370,-19,-200,-253
468,302,-165,-385,317,68,-463,-556,-366,-4,-190,-248
488,336,-151,-412,319,92,-502,-575,-341,29,-170,-229
492,380,-112,-436,302,134,-541,-600,-302,73,-141,-209
531,434,-97,-483,314,168,-575,-605,-200,170,-58,-141
585,512,-73,-549,329,219,-644,-619,-68,322,82,-29
668,678,9,-673,329,344,-766,-697,43,546,287,161
771,912,141,-841,314,527,-902,-800,175,844,566,405
868,1088,219,-978,324,653,-1044,-917,302,1102,819,634
961,1278,317,-1119,322,797,-1166,-1010,429,1381,1093,873
1019,1400,380,-1210,319,890,-1263,-1073,458,1522,1259,1034
1063,1390,326,-1227,368,858,-1351,-1156,346,1517,1298,1088
1068,1200,131,-1134,468,666,-1346,-1205,92,1239,1146,1010
995,858,-136,-927,566,361,-1244,-1293,-409,707,780,756
873,541,-331,-707,602,104,-1112,-1293,-814,224,419,483
697,395,-302,-546,500,46,-951,-1229,-1122,-151,92,204
575,414,-161,-495,368,126,-829,-1117,-1137,-229,-48,53
517,419,-97,-468,307,161,-756,-1005,-1019,-204,-131,-68
527,468,-58,-497,292,204,-741,-927,-893,-170,-156,-126
541,497,-43,-519,292,226,-717,-810,-766,-126,-195,-195
556,497,-58,-527,307,219,-722,-741,-683,-97,-209,-239
580,507,-73,-544,326,217,-707,-732,-629,-48,-204,-248
610,541,-68,-575,339,236,-688,-707,-556,-4,-200,-253
624,566,-58,-595,341,253,-673,-649,-497,14,-195,-253
649,556,-92,-602,370,231,-668,-619,-463,34,-195,-268
668,546,-122,-607,395,212,-673,-619,-453,48,-195,-273
678,546,-131,-612,405,207,-673,-624,-453,48,-200,-278
688,551,-136,-619,412,207,-673,-614,-444,43,-204,-283
692,585,-107,-639,400,239,-688,-610,-444,48,-204,-287
702,610,-92,-656,397,258,-702,-619,-448,53,-204,-287
717,619,-97,-668,407,261,-712,-624,-453,68,-200,-287
727,629,-97,-678,412,265,-717,-629,-453,73,-195,-287
732,629,-102,-680,417,263,-732,-634,-463,78,-195,-292
736,629,-107,-683,422,261,-746,-644,-473,78,-195,-292
751,639,-112,-695,431,263,-756,-649,-473,87,-190,-287
761,644,-117,-702,439,263,-761,-653,-473,97,-190,-287
766,668,-97,-717,431,285,-775,-653,-468,97,-190,-287
771,697,-73,-734,422,312,-790,-658,-478,107,-185,-283
780,712,-68,-746,424,322,-805,-673,-483,107,-185,-283
785,727,-58,-756,422,334,-819,-678,-488,112,-185,-283
805,732,-73,-768,439,329,-829,-673,-492,122,-180,-283
819,746,-73,-783,446,336,-839,-668,-497,126,-175,-278
829,771,-58,-800,444,356,-858,-683,-502,131,-175,-278
834,790,-43,-812,439,373,-873,-692,-507,136,-170,-273
849,800,-48,-824,448,375,-878,-692,-507,146,-165,-273
854,805,-48,-829,451,378,-883,-688,-492,161,-156,-268
873,810,-63,-841,468,373,-888,-683,-483,165,-151,-263
888,829,-58,-858,473,385,-897,-678,-473,175,-151,-258
902,849,-53,-875,478,397,-917,-683,-468,190,-146,-253
912,883,-29,-897,470,427,-932,-688,-453,200,-131,-253
917,902,-14,-910,466,444,-946,-683,-434,219,-126,-229
932,917,-14,-924,473,451,-961,-678,-409,248,-117,-214
946,927,-19,-936,483,453,-966,-658,-385,268,-102,-204
961,932,-29,-946,495,451,-976,-644,-356,287,-87,-195
966,956,-9,-961,488,473,-985,-639,-326,312,-73,-180
990,990,0,-990,495,495,-990,-629,-292,331,-53,-170
1015,1024,9,-1019,502,517,-1005,-605,-253,366,-34,-151
1039,1049,9,-1044,514,529,-1019,-575,-214,405,-9,-126
1058,1083,24,-1071,517,553,-1029,-561,-165,444,24,-107
1083,1112,29,-1098,527,570,-1039,-546,-117,478,53,-73
1107,1132,24,-1119,541,578,-1054,-522,-73,522,87,-53
1127,1156,29,-1141,549,592,-1063,-502,-34,566,126,-29
1141,1205,63,-1173,539,634,-1083,-497,-9,605,156,0
1156,1254,97,-1205,529,675,-1098,-497,9,644,195,29
1171,1283,112,-1227,529,697,-1112,-492,39,673,209,53
1180,1298,117,-1239,531,707,-1127,-497,63,697,239,82
1195,1346,151,-1271,522,749,-1141,-497,68,732,263,102
1215,1381,165,-1298,524,773,-1161,-507,63,751,287,122
1229,1390,161,-1310,534,775,-1171,-512,58,771,312,146
1239,1415,175,-1327,531,795,-1185,-527,48,775,326,161
1254,1429,175,-1342,539,802,-1190,-551,9,780,331,170
1259,1429,170,-1344,544,800,-1205,-580,-39,780,336,175
1249,1434,185,-1342,531,810,-1224,-624,-97,761,331,170
1234,1444,209,-1339,512,827,-1239,-663,-161,732,312,156
1229,1434,204,-1332,512,819,-1254,-702,-248,697,287,146
1210,1429,219,-1320,495,824,-1259,-746,-336,653,263,131
1205,1415,209,-1310,497,812,-1259,-785,-409,610,234,102
1195,1390,195,-1293,500,793,-1259,-824,-483,561,200,82
1190,1376,185,-1283,502,780,-1268,-868,-566,507,156,43
1190,1351,161,-1271,514,756,-1278,-902,-639,463,126,14
1176,1307,131,-1241,522,719,-1283,-936,-712,414,92,-19
1161,1273,112,-1217,524,692,-1283,-961,-771,370,58,-48
1146,1249,102,-1198,522,675,-1278,-985,-814,341,29,-68
1141,1229,87,-1185,527,658,-1278,-1000,-858,307,0,-87
1132,1220,87,-1176,522,653,-1278,-1015,-912,278,-19,-107
1132,1200,68,-1166,531,634,-1273,-1029,-946,253,-43,-122
1132,1200,68,-1166,531,634,-1273,-1044,-976,229,-58,-136
1127,1205,78,-1166,524,641,-1273,-1054,-995,214,-73,-151
1127,1180,53,-1154,536,617,-1268,-1058,-1019,204,-87,-156
1127,1176,48,-1151,539,612,-1268,-1058,-1034,200,-92,-156
1122,1166,43,-1144,539,605,-1268,-1063,-1044,195,-97,-151
1127,1161,34,-1144,546,597,-1273,-1063,-1054,190,-97,-151
1137,1176,39,-1156,549,607,-1273,-1068,-1063,190,-97,-151
1141,1180,39,-1161,551,610,-1273,-1068,-1073,185,-97,-151
1141,1180,39,-1161,551,610,-1273,-1068,-1073,190,-102,-156
1146,1185,39,-1166,553,612,-1273,-1063,-1078,195,-112,-161
1146,1195,48,-1171,549,622,-1278,-1063,-1088,190,-112,-161
1146,1205,58,-1176,544,631,-1278,-1063,-1098,190,-107,-161
1151,1195,43,-1173,553,619,-1273,-1063,-1107,190,-107,-156
1156,1190,34,-1173,561,612,-1273,-1063,-1117,190,-107,-156
1156,1190,34,-1173,561,612,-1268,-1058,-1122,195,-107,-151
1156,1190,34,-1173,561,612,-1268,-1054,-1127,195,-107,-146
1156,1210,53,-1183,551,631,-1268,-1054,-1127,200,-107,-151
1161,1220,58,-1190,551,639,-1268,-1058,-1132,204,-107,-151
1166,1229,63,-1198,551,646,-1273,-1058,-1141,209,-102,-151
1180,1239,58,-1210,561,649,-1273,-1058,-1151,209,-102,-151
1185,1239,53,-1212,566,646,-1273,-1058,-1151,214,-107,-146
1190,1239,48,-1215,570,644,-1278,-1058,-1156,219,-107,-146
1195,1259,63,-1227,566,661,-1268,-1058,-1151,219,-97,-136
1195,1254,58,-1224,568,656,-1278,-1054,-1151,219,-92,-126
1195,1254,58,-1224,568,656,-1273,-1049,-1151,219,-92,-126
1200,1259,58,-1229,570,658,-1268,-1044,-1151,219,-87,-126
1205,1259,53,-1232,575,656,-1259,-1039,-1156,219,-87,-122
1205,1259,53,-1232,575,656,-1249,-1034,-1151,224,-87,-117
1215,1278,63,-1246,575,671,-1249,-1029,-1161,224,-82,-117
1220,1293,73,-1256,573,683,-1249,-1024,-1171,224,-82,-112
1220,1293,73,-1256,573,683,-1244,-1024,-1171,224,-78,-107
1220,1302,82,-1261,568,692,-1244,-1024,-1166,224,-78,-107
1224,1302,78,-1263,573,690,-1229,-1015,-1166,229,-68,-102
1229,1293,63,-1261,583,678,-1239,-1010,-1166,234,-63,-97
1229,1293,63,-1261,583,678,-1229,-1000,-1166,234,-58,-92
1229,1278,48,-1254,590,663,-1220,-990,-1166,234,-53,-82
1229,1288,58,-1259,585,673,-1210,-990,-1171,234,-53,-78
1229,1302,73,-1266,578,688,-1205,-990,-1180,234,-53,-82
1220,1302,82,-1261,568,692,-1205,-990,-1180,239,-53,-82
1215,1312,97,-1263,558,705,-1205,-990,-1180,234,-53,-82
1220,1307,87,-1263,566,697,-1195,-985,-1180,234,-53,-73
1220,1302,82,-1261,568,692,-1180,-980,-1180,234,-53,-68
1220,1302,82,-1261,568,692,-1180,-980,-1180,234,-53,-68
1220,1298,78,-1259,570,688,-1176,-980,-1180,229,-53,-68
1220,1298,78,-1259,570,688,-1176,-976,-1185,229,-48,-68
1220,1293,73,-1256,573,683,-1171,-966,-1185,224,-48,-68
1229,1307,78,-1268,575,692,-1141,-966,-1195,224,-48,-63
1234,1322,87,-1278,573,705,-1117,-966,-1200,224,-48,-58
1229,1312,82,-1271,573,697,-1141,-961,-1200,219,-48,-53
1229,1312,82,-1271,573,697,-1161,-961,-1205,214,-48,-48
1215,1307,92,-1261,561,700,-1146,-961,-1205,214,-53,-48
1205,1302,97,-1254,553,700,-1132,-961,-1210,209,-53,-48
1205,1288,82,-1246,561,685,-1117,-961,-1210,214,-53,-53
1200,1273,73,-1237,563,673,-1098,-956,-1210,214,-53,-53
1200,1263,63,-1232,568,663,-1107,-946,-1210,214,-58,-53
1195,1254,58,-1224,568,656,-1107,-936,-1210,219,-58,-53
1195,1254,58,-1224,568,656,-1093,-932,-1210,224,-53,-39
1200,1259,58,-1229,570,658,-1083,-927,-1210,234,-48,-29
1190,1259,68,-1224,561,663,-1068,-917,-1195,234,-39,-24
1180,1259,78,-1220,551,668,-1054,-907,-1180,234,-29,-19
1176,1273,97,-1224,539,685,-1049,-907,-1180,234,-29,-14
1166,1273,107,-1220,529,690,-1034,-897,-1180,234,-24,-9
1161,1278,117,-1220,522,697,-1024,-893,-1180,239,-24,-4
1156,1278,122,-1217,517,700,-1010,-883,-1176,244,-19,4
1151,1293,141,-1222,505,717,-995,-883,-1161,248,-9,4
1146,1302,156,-1224,495,729,-995,-878,-1156,248,-4,4
1146,1312,165,-1229,490,739,-1010,-888,-1166,248,-4,14
1141,1322,180,-1232,480,751,-1024,-897,-1180,239,-4,19
1141,1302,161,-1222,490,732,-1034,-917,-1195,229,-9,19
1146,1293,146,-1220,500,719,-1039,-927,-1200,219,-9,19
1146,1283,136,-1215,505,710,-1034,-927,-1195,219,-9,19
1146,1278,131,-1212,507,705,-1029,-927,-1195,219,-4,29
1137,1278,141,-1207,497,710,-1034,-927,-1195,224,4,34
1132,1293,161,-1212,485,727,-1034,-927,-1190,234,24,48
1137,1302,165,-1220,485,734,-1019,-907,-1176,239,34,73
1146,1302,156,-1224,495,729,-1000,-893,-1166,239,39,82
1146,1293,146,-1220,500,719,-985,-883,-1156,239,43,87
1146,1288,141,-1217,502,714,-971,-878,-1146,248,58,97
1141,1302,161,-1222,490,732,-961,-873,-1137,258,82,126
1141,1317,175,-1229,483,746,-951,-863,-1122,273,102,156
1151,1351,200,-1251,475,775,-936,-834,-1068,317,131,195
1137,1337,200,-1237,468,768,-902,-810,-1054,312,131,195
1107,1249,141,-1178,483,695,-863,-785,-1093,253,78,136
1098,1185,87,-1141,505,636,-829,-766,-1107,219,39,102
1073,1171,97,-1122,488,634,-819,-775,-1127,200,19,82
1063,1151,87,-1107,488,619,-805,-775,-1137,185,-4,58
1063,1132,68,-1098,497,600,-780,-761,-1141,170,-9,53
1063,1112,48,-1088,507,580,-756,-746,-1141,156,-24,43
1063,1088,24,-1076,519,556,-736,-727,-1127,156,-29,34
1058,1063,4,-1061,527,534,-712,-707,-1117,151,-29,29
1049,1049,0,-1049,524,524,-707,-697,-1117,136,-29,34
1034,1039,4,-1037,514,522,-702,-688,-1117,131,-29,39
1024,1024,0,-1024,512,512,-688,-683,-1112,126,-34,39
1015,1010,-4,-1012,509,502,-673,-678,-1107,126,-34,39
1010,990,-19,-1000,514,485,-653,-668,-1107,117,-43,39
1005,971,-34,-988,519,468,-629,-658,-1102,112,-48,39
985,956,-29,-971,507,463,-619,-649,-1093,112,-48,39
971,936,-34,-954,502,451,-614,-644,-1073,112,-48,39
966,927,-39,-946,502,444,-610,-629,-1068,107,-43,43
961,927,-34,-944,497,446,-600,-619,-1063,107,-39,53
961,917,-43,-939,502,436,-575,-605,-1054,107,-39,53
961,907,-53,-934,507,427,-556,-590,-1044,107,-34,53
956,893,-63,-924,509,414,-551,-580,-1039,102,-39,53
961,893,-68,-927,514,412,-551,-585,-1024,112,-29,73
951,893,-58,-922,505,417,-556,-610,-1039,102,-24,78
951,902,-48,-927,500,427,-551,-600,-995,117,-9,87
932,873,-58,-902,495,407,-527,-546,-893,131,-14,68
956,917,-39,-936,497,439,-566,-566,-795,234,68,146
995,1093,97,-1044,448,595,-653,-649,-702,468,283,326
1054,1254,200,-1154,427,727,-771,-751,-590,712,517,536
1176,1503,326,-1339,424,915,-927,-863,-375,1102,883,854
1268,1732,463,-1500,402,1098,-1054,-946,-195,1439,1200,1137
1361,1986,624,-1673,368,1305,-1200,-1015,9,1854,1561,1439
1415,2054,639,-1734,387,1346,-1278,-1049,73,1995,1737,1610
1449,1864,414,-1656,517,1139,-1288,-1156,-141,1761,1649,1590
1420,1542,122,-1481,649,832,-1220,-1195,-478,1361,1415,1454
1220,1010,-209,-1115,714,400,-1005,-1200,-1224,512,814,1034
1044,727,-317,-885,680,204,-819,-1127,-1566,39,453,766
883,688,-195,-785,539,246,-644,-1005,-1556,-73,268,561
800,702,-97,-751,448,302,-541,-902,-1507,-151,146,419
771,722,-48,-746,409,336,-488,-717,-1332,-122,68,307
746,722,-24,-734,385,348,-463,-600,-1200,-97,19,224
741,732,-9,-736,375,361,-434,-585,-1127,-48,14,195
746,741,-4,-744,375,368,-395,-536,-1024,-4,14,170
746,741,-4,-744,375,368,-336,-424,-907,29,19,165
751,732,-19,-741,385,356,-297,-361,-824,63,19,151
751,717,-34,-734,392,341,-273,-336,-771,92,29,146
746,712,-34,-729,390,339,-244,-312,-732,107,34,141
736,688,-48,-712,392,319,-219,-278,-702,102,19,136
727,658,-68,-692,397,295,-204,-248,-678,102,9,131
722,649,-73,-685,397,287,-195,-239,-663,97,9,131
717,649,-68,-683,392,290,-185,-229,-653,102,9,131
707,634,-73,-671,390,280,-170,-224,-644,97,14,136
697,619,-78,-658,387,270,-161,-214,-634,97,19,136
683,610,-73,-646,378,268,-146,-204,-624,97,19,136
673,605,-68,-639,370,268,-136,-195,-614,102,24,141
663,600,-63,-631,363,268,-126,-185,-610,107,24,141
653,595,-58,-624,356,268,-117,-170,-595,107,24,141
644,590,-53,-617,348,268,-107,-165,-580,112,29,146
639,585,-53,-612,346,265,-97,-161,-561,107,29,146
634,575,-58,-605,346,258,-82,-141,-546,112,34,151
634,561,-73,-597,353,244,-68,-126,-527,117,43,156
614,546,-68,-580,341,239,-58,-112,-507,117,48,165
600,527,-73,-563,336,226,-53,-102,-488,122,48,170
590,527,-63,-558,326,231,-48,-92,-473,117,53,175
590,531,-58,-561,324,236,-43,-82,-463,112,58,175
575,522,-53,-549,314,234,-29,-68,-444,122,63,175
566,512,-53,-539,309,229,-14,-53,-424,126,63,175
551,507,-43,-529,297,231,-4,-39,-400,126,58,180
541,492,-48,-517,295,222,4,-24,-380,131,58,185
536,502,-34,-519,285,234,19,-9,-356,136,73,180
536,497,-39,-517,287,229,34,9,-331,141,78,190
541,492,-48,-517,295,222,39,24,-292,151,87,195
541,497,-43,-519,292,226,43,48,-253,161,102,204
541,497,-43,-519,292,226,43,73,-219,175,117,209
531,507,-24,-519,278,241,43,97,-175,195,131,219
541,531,-9,-536,275,261,58,122,-126,204,146,229
546,551,4,-549,270,278,68,146,-78,224,156,244
556,541,-14,-549,285,263,68,180,-29,253,170,263
556,551,-4,-553,280,273,73,214,29,287,195,283
541,561,19,-551,261,290,82,248,102,322,219,317
541,561,19,-551,261,290,82,278,170,361,248,336
551,551,0,-551,275,275,87,312,229,400,283,361
556,561,4,-558,275,283,87,346,287,439,312,390
566,595,29,-580,268,312,87,370,346,478,351,414
575,619,43,-597,265,331,87,395,395,507,370,434
580,629,48,-605,265,339,87,405,434,531,405,463
580,653,73,-617,253,363,82,419,473,566,429,483
580,649,68,-614,256,358,87,434,517,595,463,517
580,639,58,-610,261,348,102,448,546,624,492,551
585,673,87,-629,248,380,97,458,575,634,517,570
585,697,112,-641,236,405,97,458,580,644,536,590
575,702,126,-639,224,414,92,458,580,658,551,605
566,702,136,-634,214,419,97,444,566,653,561,614
541,702,161,-622,190,431,97,414,522,634,551,605
527,688,161,-607,183,424,87,380,458,614,536,595
502,668,165,-585,168,417,87,346,409,580,522,590
483,629,146,-556,168,387,87,312,361,541,497,570
458,580,122,-519,168,351,102,278,287,492,473,556
439,546,107,-492,165,326,117,244,209,444,439,527
424,512,87,-468,168,300,117,209,141,395,409,502
395,468,73,-431,161,270,122,175,73,336,375,468
361,419,58,-390,151,239,141,156,19,283,336,439
336,380,43,-358,146,212,156,136,-24,239,302,414
312,336,24,-324,143,180,165,126,-68,190,263,380
278,292,14,-285,131,153,175,117,-112,151,234,351
263,258,-4,-261,134,126,185,102,-141,117,209,331
244,234,-9,-239,126,112,195,92,-170,82,190,312
224,214,-9,-219,117,102,204,87,-185,58,161,297
214,185,-29,-200,122,78,214,82,-204,34,136,283
209,156,-53,-183,131,51,219,87,-209,14,131,273
200,122,-78,-161,139,21,229,87,-214,-4,122,268
185,112,-73,-148,129,19,234,92,-214,-14,117,258
175,107,-68,-141,122,19,239,92,-209,-14,117,258
175,87,-87,-131,131,0,253,102,-209,-19,117,258
170,78,-92,-124,131,-7,268,107,-204,-24,112,253
161,68,-92,-114,126,-12,278,117,-204,-34,102,248
151,53,-97,-102,124,-21,287,126,-200,-43,97,248
146,53,-92,-100,119,-19,292,126,-200,-48,92,244
141,43,-97,-92,119,-26,297,126,-200,-53,87,244
131,39,-92,-85,112,-26,302,136,-195,-63,87,244
122,39,-82,-80,102,-21,307,146,-190,-68,87,244
117,29,-87,-73,102,-29,317,151,-180,-68,92,244
107,29,-78,-68,92,-24,331,156,-165,-68,97,239
97,24,-73,-61,85,-24,331,156,-165,-78,97,239
87,19,-68,-53,78,-24,331,161,-165,-82,102,239
87,14,-73,-51,80,-29,336,165,-156,-82,97,239
78,9,-68,-43,73,-29,341,175,-141,-82,87,244
68,-14,-82,-26,75,-48,356,190,-131,-82,87,248
58,-24,-82,-17,70,-53,380,200,-117,-82,92,253
39,-34,-73,-2,56,-53,370,204,-112,-87,92,253
24,-34,-58,4,41,-46,370,204,-107,-92,87,253
24,-39,-63,7,43,-51,380,204,-97,-97,87,253
24,-48,-73,12,48,-61,385,209,-87,-102,87,253
24,-48,-73,12,48,-61,390,214,-73,-97,82,253
24,-48,-73,12,48,-61,400,214,-68,-97,82,248
9,-53,-63,21,36,-58,405,224,-63,-97,82,244
0,-63,-63,31,31,-63,414,234,-58,-97,87,244
-9,-78,-68,43,29,-73,414,239,-43,-97,87,244
-14,-78,-63,46,24,-70,424,248,-34,-97,87,244
-24,-82,-58,53,17,-70,409,248,-29,-97,82,244
-39,-92,-53,65,7,-73,409,248,-24,-97,82,244
-39,-112,-73,75,17,-92,409,253,-14,-97,87,248
-39,-117,-78,78,19,-97,414,258,0,-97,92,248
-39,-112,-73,75,17,-92,424,268,4,-102,92,239
-43,-112,-68,78,12,-90,434,278,9,-97,92,239
-53,-117,-63,85,4,-90,444,283,14,-97,92,239
-58,-131,-73,95,7,-102,448,287,19,-97,92,244
-68,-141,-73,104,2,-107,453,287,24,-97,92,248
-78,-151,-73,114,-2,-112,453,287,29,-97,92,248
-87,-156,-68,122,-9,-112,453,292,34,-102,92,244
-97,-156,-58,126,-19,-107,453,292,34,-102,92,244
-107,-170,-63,139,-21,-117,458,292,39,-107,87,239
-112,-180,-68,146,-21,-124,463,292,39,-107,87,239
-117,-185,-68,151,-24,-126,468,292,43,-107,87,244
-126,-200,-73,163,-26,-136,468,297,48,-107,87,244
-136,-204,-68,170,-34,-136,468,302,48,-107,87,244
-151,-209,-58,180,-46,-134,468,302,53,-107,87,244
-156,-214,-58,185,-48,-136,468,297,48,-112,92,248
-156,-219,-63,187,-46,-141,473,297,48,-112,92,248
-165,-224,-58,195,-53,-141,483,307,53,-117,92,248
-175,-229,-53,202,-61,-141,473,312,58,-117,87,248
-180,-234,-53,207,-63,-143,478,317,63,-122,82,248
-190,-244,-53,217,-68,-148,483,322,68,-122,78,248
-195,-263,-68,229,-63,-165,488,322,73,-136,82,244
-200,-268,-68,234,-65,-168,488,322,73,-141,78,244
-209,-283,-73,246,-68,-178,488,322,73,-141,78,248
-219,-292,-73,256,-73,-183,488,326,78,-146,73,244
-224,-273,-48,248,-87,-161,488,331,78,-151,68,229
-229,-278,-48,253,-90,-163,488,331,82,-151,63,219
-239,-287,-48,263,-95,-168,502,336,82,-146,68,219
-244,-307,-63,275,-90,-185,512,336,82,-151,63,214
-248,-322,-73,285,-87,-197,502,336,78,-156,63,219
-253,-346,-92,300,-80,-219,512,346,82,-156,68,219
-263,-351,-87,307,-87,-219,512,346,87,-156,78,219
-273,-361,-87,317,-92,-224,517,351,97,-156,87,224
-283,-351,-68,317,-107,-209,527,351,112,-151,87,229
-292,-341,-48,317,-122,-195,536,351,126,-146,87,234
-297,-331,-34,314,-131,-183,536,351,126,-146,87,234
-302,-322,-19,312,-141,-170,536,351,126,-141,87,234
-312,-312,0,312,-156,-156,536,356,126,-141,92,234
-317,-292,24,305,-170,-134,531,356,131,-136,97,239
-317,-278,39,297,-178,-119,527,346,141,-131,102,239
-317,-268,48,292,-183,-109,507,341,141,-131,102,239
-322,-287,34,305,-178,-126,492,331,141,-136,97,234
-331,-307,24,319,-178,-141,478,322,136,-151,92,224
-331,-331,0,331,-165,-165,468,302,122,-156,87,224
-326,-346,-19,336,-153,-183,463,292,117,-161,87,224
-326,-341,-14,334,-156,-178,458,287,117,-161,87,224
-326,-331,-4,329,-161,-168,453,283,112,-161,92,234
-326,-336,-9,331,-158,-173,448,287,117,-156,97,234
-322,-326,-4,324,-158,-165,448,292,126,-146,112,244
-326,-326,0,326,-163,-163,453,302,146,-136,122,263
-326,-336,-9,331,-158,-173,463,307,161,-131,126,268
-326,-336,-9,331,-158,-173,458,307,165,-136,126,273
-326,-331,-4,329,-161,-168,453,302,170,-131,136,283
-331,-297,34,314,-183,-131,453,297,175,-122,151,297
-331,-263,68,297,-200,-97,453,297,185,-107,161,312
-336,-273,63,305,-200,-104,463,312,204,-97,161,312
-366,-331,34,348,-200,-148,492,322,185,-136,131,273
-395,-400,-4,397,-195,-202,517,331,161,-170,92,234
-405,-444,-39,424,-183,-241,536,336,161,-180,68,219
-424,-468,-43,446,-190,-256,541,331,146,-200,58,200
-429,-497,-68,463,-180,-283,551,336,141,-214,43,175
-434,-497,-63,466,-185,-280,556,341,136,-224,39,165
-439,-497,-58,468,-190,-278,561,346,136,-234,24,151
-448,-517,-68,483,-190,-292,561,351,141,-244,14,141
-463,-536,-73,500,-195,-305,566,356,141,-258,9,136
-463,-556,-92,509,-185,-324,570,361,146,-268,9,136
-468,-570,-102,519,-183,-336,575,366,151,-268,9,136
-468,-570,-102,519,-183,-336,575,370,151,-273,0,131
-468,-570,-102,519,-183,-336,575,375,151,-273,-4,126
-473,-575,-102,524,-185,-339,580,375,151,-278,-14,122
-478,-580,-102,529,-187,-341,590,375,156,-278,-19,117
-483,-580,-97,531,-192,-339,595,380,156,-278,-19,117
-483,-585,-102,534,-190,-344,595,380,165,-278,-19,117
-488,-585,-97,536,-195,-341,585,385,165,-283,-19,117
-492,-575,-82,534,-204,-329,580,385,165,-283,-19,122
-502,-595,-92,549,-204,-344,580,385,165,-283,-19,122
-512,-614,-102,563,-204,-358,575,385,165,-283,-14,122
-507,-605,-97,556,-204,-351,561,380,175,-278,-14,117
-492,-580,-87,536,-202,-334,541,361,195,-258,0,131
-492,-541,-48,517,-222,-295,522,336,224,-229,24,151
-483,-492,-9,488,-236,-251,512,346,312,-175,58,175
-458,-424,34,441,-246,-195,453,336,429,-58,156,248
-390,-283,107,336,-248,-87,331,253,541,146,341,419
-302,-107,195,204,-248,43,219,180,697,424,595,639
-195,53,248,70,-222,151,78,87,873,712,868,888
-92,248,341,-78,-217,295,-53,9,1039,1000,1156,1141
-19,424,444,-202,-231,434,-156,-39,1171,1234,1395,1361
34,448,414,-241,-190,431,-244,-117,1132,1312,1498,1464
48,287,239,-168,-95,263,-263,-161,951,1117,1415,1434
-14,0,14,7,-14,7,-175,-248,527,678,1132,1244
-141,-419,-278,280,68,-348,-9,-268,-19,73,702,936
-317,-649,-331,483,7,-490,161,-234,-448,-400,326,634
-468,-629,-161,549,-153,-395,302,-122,-473,-497,190,483
-566,-644,-78,605,-244,-361,405,0,-375,-507,92,351
-585,-605,-19,595,-283,-312,434,102,-239,-483,58,283
-595,-605,-9,600,-292,-307,473,239,-107,-448,0,195
-600,-624,-24,612,-287,-324,483,307,-19,-419,-29,136
-605,-624,-19,614,-292,-322,522,322,43,-380,-34,122
-600,-624,-24,612,-287,-324,570,370,136,-346,-34,112
-600,-624,-24,612,-287,-324,605,453,209,-326,-29,107
-595,-634,-39,614,-278,-336,619,488,248,-307,-29,92
-595,-653,-58,624,-268,-356,624,488,268,-297,-29,82
-600,-663,-63,631,-268,-363,634,488,273,-302,-34,73
-600,-629,-29,614,-285,-329,639,502,273,-307,-43,53
-600,-600,0,600,-300,-300,634,512,268,-307,-48,34
-600,-624,-24,612,-287,-324,634,512,292,-307,-48,43
-600,-639,-39,619,-280,-339,634,512,312,-297,-48,53
-600,-663,-63,631,-268,-363,649,517,322,-297,-48,53
-600,-688,-87,644,-256,-387,658,527,331,-292,-48,48
-605,-678,-73,641,-265,-375,658,527,336,-292,-48,48
-605,-663,-58,634,-273,-361,653,527,341,-287,-43,53
-614,-663,-48,639,-283,-356,649,527,346,-287,-48,43
-624,-663,-39,644,-292,-351,644,531,361,-292,-53,34
-624,-668,-43,646,-290,-356,644,531,361,-283,-48,34
-619,-673,-53,646,-283,-363,644,531,366,-283,-48,29
-629,-673,-43,651,-292,-358,644,541,370,-278,-48,29
-634,-678,-43,656,-295,-361,644,546,380,-273,-43,29
-634,-678,-43,656,-295,-361,649,551,390,-273,-43,34
-629,-683,-53,656,-287,-368,649,551,400,-268,-48,34
-639,-673,-34,656,-302,-353,649,551,409,-268,-48,39
-639,-658,-19,649,-309,-339,649,551,414,-268,-48,39
-639,-658,-19,649,-309,-339,649,561,429,-258,-39,39
-634,-658,-24,646,-305,-341,649,570,444,-253,-34,39
-634,-649,-14,641,-309,-331,644,590,463,-248,-34,43
-629,-649,-19,639,-305,-334,639,610,478,-239,-29,48
-629,-629,0,629,-314,-314,639,619,507,-229,-14,48
-624,-624,0,624,-312,-312,639,634,536,-219,-9,63
-614,-629,-14,622,-300,-322,639,649,566,-200,0,68
-610,-624,-14,617,-297,-319,639,673,595,-180,14,78
-600,-619,-19,610,-290,-319,634,692,624,-165,24,82
-600,-605,-4,602,-297,-305,629,712,663,-146,34,92
-585,-570,14,578,-300,-278,629,732,707,-126,53,97
-575,-541,34,558,-305,-253,624,751,751,-97,68,107
-561,-541,19,551,-290,-261,619,780,800,-63,82,122
-556,-522,34,539,-295,-244,619,810,858,-24,107,136
-556,-502,53,529,-305,-224,619,839,917,9,131,170
-541,-492,48,517,-295,-222,610,863,971,48,161,190
-522,-473,48,497,-285,-212,605,883,1024,87,195,209
-507,-434,73,470,-290,-180,595,902,1078,126,224,234
-492,-395,97,444,-295,-148,590,917,1122,170,263,263
-478,-366,112,422,-295,-126,585,932,1156,204,283,287
-478,-356,122,417,-300,-117,580,936,1185,229,317,317
-483,-331,151,407,-317,-90,570,946,1215,263,341,336
-473,-317,156,395,-314,-80,546,941,1234,283,366,351
-463,-307,156,385,-309,-75,531,936,1239,302,385,366
-458,-283,175,370,-317,-53,522,927,1239,307,395,375
-458,-268,190,363,-324,-39,517,907,1215,312,400,385
-473,-258,214,366,-344,-21,512,883,1180,312,405,390
-488,-253,234,370,-361,-9,517,844,1132,292,405,390
-502,-273,229,387,-366,-21,517,810,1083,263,390,380
-507,-307,200,407,-353,-53,507,771,1015,234,370,370
-527,-317,209,422,-368,-53,507,727,941,195,351,356
-541,-346,195,444,-368,-75,507,683,868,151,322,326
-561,-390,170,475,-366,-109,507,639,795,97,287,307
-575,-419,156,497,-366,-131,507,595,717,43,244,273
-585,-453,131,519,-358,-161,507,566,649,4,214,248
-610,-497,112,553,-361,-192,512,536,580,-43,180,214
-634,-531,102,583,-368,-214,517,512,527,-87,146,190
-649,-556,92,602,-370,-231,517,488,483,-122,117,170
-649,-575,73,612,-361,-251,517,473,439,-156,82,146
-658,-595,63,627,-361,-265,517,458,395,-180,58,126
-663,-644,19,653,-341,-312,522,444,370,-204,34,102
-673,-683,-9,678,-331,-346,527,434,346,-229,14,78
-692,-688,4,690,-348,-341,531,429,326,-253,-9,58
-702,-702,0,702,-351,-351,536,424,302,-278,-29,39
-707,-707,0,707,-353,-353,536,424,292,-287,-39,29
-717,-717,0,717,-358,-358,541,419,283,-297,-53,24
-717,-727,-9,722,-353,-368,541,414,273,-307,-58,14
-712,-732,-19,722,-346,-375,541,405,268,-307,-58,14
-722,-751,-29,736,-346,-390,546,405,268,-307,-58,9
-736,-761,-24,749,-356,-392,551,400,273,-307,-63,0
-736,-771,-34,753,-351,-402,551,400,268,-312,-73,-4
-736,-785,-48,761,-344,-417,551,400,268,-317,-78,-4
-741,-771,-29,756,-356,-400,556,400,268,-317,-78,-9
-746,-766,-19,756,-363,-392,561,400,268,-317,-78,-9
-746,-771,-24,758,-361,-397,561,400,268,-322,-78,-9
-746,-771,-24,758,-361,-397,561,400,268,-322,-78,-9
-746,-771,-24,758,-361,-397,561,400,268,-322,-82,-9
-751,-761,-9,756,-370,-385,566,400,273,-322,-87,-14
-756,-766,-9,761,-373,-387,566,400,273,-322,-87,-14
-761,-771,-9,766,-375,-390,566,405,273,-317,-82,-14
-751,-771,-19,761,-366,-395,566,405,273,-322,-82,-19
-751,-771,-19,761,-366,-395,566,409,278,-326,-87,-19
-751,-771,-19,761,-366,-395,566,414,278,-326,-87,-19
-751,-756,-4,753,-373,-380,575,414,283,-326,-82,-19
-761,-771,-9,766,-375,-390,566,419,283,-326,-82,-19
-766,-775,-9,771,-378,-392,566,419,283,-326,-87,-19
-761,-771,-9,766,-375,-390,566,419,283,-326,-92,-19
-756,-771,-14,763,-370,-392,561,424,283,-326,-97,-19
-756,-771,-14,763,-370,-392,556,429,292,-322,-97,-19
-756,-771,-14,763,-370,-392,556,429,292,-322,-92,-24
-761,-756,4,758,-383,-375,556,424,292,-322,-92,-29
-761,-746,14,753,-387,-366,561,419,292,-322,-87,-29
-766,-761,4,763,-385,-378,561,419,297,-322,-87,-34
-766,-761,4,763,-385,-378,570,424,297,-322,-87,-39
-761,-756,4,758,-383,-375,561,429,297,-322,-92,-39
-761,-756,4,758,-383,-375,566,434,297,-322,-92,-39
-766,-771,-4,768,-380,-387,566,434,297,-322,-92,-34
-771,-771,0,771,-385,-385,570,434,302,-322,-92,-34
-771,-766,4,768,-387,-380,561,434,297,-322,-92,-43
-775,-766,9,771,-392,-378,551,434,292,-312,-92,-43
-771,-751,19,761,-395,-366,551,429,292,-312,-92,-43
-761,-746,14,753,-387,-366,546,424,292,-312,-92,-39
-761,-746,14,753,-387,-366,551,424,297,-312,-92,-34
-761,-746,14,753,-387,-366,551,424,302,-312,-92,-34
-761,-761,0,761,-380,-380,551,424,302,-317,-92,-39
-761,-771,-9,766,-375,-390,551,419,297,-317,-92,-39
-771,-761,9,766,-390,-375,556,419,297,-322,-102,-43
-775,-746,29,761,-402,-358,561,419,292,-322,-107,-43
-775,-746,29,761,-402,-358,566,419,292,-322,-107,-43
-780,-756,24,768,-402,-366,566,424,292,-322,-107,-48
-780,-756,24,768,-402,-366,566,424,287,-322,-112,-48
-785,-756,29,771,-407,-363,566,419,287,-322,-117,-48
-785,-756,29,771,-407,-363,561,409,283,-326,-112,-48
-780,-756,24,768,-402,-366,561,405,283,-326,-112,-53
-780,-756,24,768,-402,-366,570,405,283,-331,-112,-53
-780,-756,24,768,-402,-366,561,400,283,-331,-117,-53
-775,-746,29,761,-402,-358,566,400,283,-322,-112,-53
-771,-741,29,756,-400,-356,575,405,283,-317,-112,-58
-775,-727,48,751,-412,-339,575,400,287,-312,-107,-58
-780,-712,68,746,-424,-322,575,400,292,-312,-107,-58
-780,-697,82,739,-431,-307,575,400,297,-312,-107,-58
-780,-683,97,732,-439,-292,575,400,302,-312,-107,-58
-780,-678,102,729,-441,-287,575,400,302,-312,-107,-58
-780,-668,112,724,-446,-278,570,400,302,-307,-102,-53
-785,-663,122,724,-453,-270,570,405,307,-302,-102,-53
-785,-649,136,717,-461,-256,556,395,317,-297,-102,-53
-785,-639,146,712,-466,-246,551,390,322,-292,-102,-53
-780,-639,141,710,-461,-248,541,370,312,-287,-102,-48
-780,-639,141,710,-461,-248,502,351,292,-297,-102,-48
-775,-649,126,712,-451,-261,478,331,278,-302,-107,-48
-766,-658,107,712,-436,-275,473,317,268,-317,-112,-58
-766,-663,102,714,-434,-280,468,307,263,-326,-117,-68
-766,-639,126,702,-446,-256,463,297,258,-326,-112,-63
-766,-624,141,695,-453,-241,458,292,258,-322,-107,-63
-766,-610,156,688,-461,-226,458,287,263,-312,-92,-48
-761,-600,161,680,-461,-219,463,292,273,-302,-82,-29
-746,-605,141,675,-444,-231,473,297,283,-297,-78,-24
-746,-610,136,678,-441,-236,473,302,292,-297,-73,-19
-746,-605,141,675,-444,-231,473,302,302,-283,-58,-4
-751,-590,161,671,-456,-214,473,302,312,-268,-43,14
-746,-556,190,651,-468,-183,468,302,322,-244,-24,43
-732,-536,195,634,-463,-170,473,312,341,-224,-14,58
-746,-585,161,666,-453,-212,492,322,322,-263,-43,9
-775,-639,136,707,-456,-251,502,326,292,-297,-82,-43
-775,-668,107,722,-441,-280,517,331,287,-307,-107,-63
-780,-683,97,732,-439,-292,522,326,268,-326,-122,-82
-780,-702,78,741,-429,-312,531,326,258,-351,-151,-117
-780,-717,63,749,-422,-326,536,331,253,-370,-165,-131
-780,-741,39,761,-409,-351,536,331,253,-380,-180,-141
-780,-761,19,771,-400,-370,531,326,253,-380,-190,-151
-785,-771,14,778,-400,-378,536,326,248,-385,-200,-156
-785,-775,9,780,-397,-383,536,326,244,-395,-204,-156
-790,-775,14,783,-402,-380,531,326,239,-395,-204,-156
-790,-775,14,783,-402,-380,527,326,239,-400,-209,-161
-785,-766,19,775,-402,-373,527,326,234,-405,-214,-170
-780,-756,24,768,-402,-366,527,326,224,-414,-224,-175
-780,-756,24,768,-402,-366,527,326,224,-414,-224,-175
-780,-756,24,768,-402,-366,527,331,224,-414,-224,-175
-771,-761,9,766,-390,-375,522,326,239,-409,-224,-175
-766,-771,-4,768,-380,-387,517,326,244,-405,-224,-175
-766,-771,-4,768,-380,-387,517,326,244,-400,-224,-175
-766,-766,0,766,-383,-383,512,326,244,-400,-224,-180
-766,-761,4,763,-385,-378,507,326,244,-405,-219,-180
-761,-761,0,761,-380,-380,492,322,248,-405,-219,-180
-751,-746,4,749,-378,-370,473,302,248,-385,-204,-165
-756,-722,34,739,-395,-344,453,278,263,-356,-180,-151
-746,-712,34,729,-390,-339,458,287,331,-336,-185,-161
-722,-678,43,700,-383,-317,429,287,429,-263,-131,-126
-678,-566,112,622,-395,-226,322,214,517,-78,34,14
-614,-385,229,500,-422,-78,200,117,624,180,273,209
-507,-175,331,341,-419,78,48,4,795,483,566,473
-405,48,453,178,-429,251,-82,-82,966,805,878,746
-322,292,614,14,-468,453,-195,-141,1146,1146,1200,1029
-253,405,658,-75,-456,531,-297,-219,1185,1342,1395,1205
-204,322,527,-58,-366,424,-366,-268,1112,1263,1415,1263
-234,87,322,73,-278,204,-336,-356,790,932,1220,1146
-336,-429,-92,383,-122,-261,-185,-405,161,214,732,814
-492,-775,-283,634,-104,-529,-4,-390,-370,-395,278,478
-673,-780,-107,727,-283,-444,165,-273,-458,-566,68,278
-790,-800,-9,795,-390,-405,287,-156,-414,-634,-82,107
-805,-761,43,783,-424,-358,317,-53,-278,-610,-131,24
-814,-741,73,778,-444,-334,356,87,-141,-575,-195,-68
-814,-741,73,778,-444,-334,366,161,-48,-551,-224,-141
-805,-732,73,768,-439,-329,395,175,14,-507,-234,-180
-785,-712,73,749,-429,-319,434,224,112,-463,-229,-195
-780,-702,78,741,-429,-312,468,307,195,-444,-224,-204
-771,-702,68,736,-419,-317,483,346,253,-409,-224,-219
-766,-702,63,734,-414,-319,488,356,287,-380,-224,-224
-756,-717,39,736,-397,-339,497,361,292,-380,-229,-229
-746,-727,19,736,-383,-353,507,380,307,-385,-234,-234
-746,-727,19,736,-383,-353,497,395,317,-385,-239,-244
-741,-736,4,739,-373,-366,488,395,322,-385,-244,-248
-746,-736,9,741,-378,-363,488,395,322,-375,-244,-248
-756,-736,19,746,-387,-358,492,395,326,-375,-244,-248
-756,-736,19,746,-387,-358,492,400,331,-366,-248,-253
-756,-736,19,746,-387,-358,492,400,336,-361,-253,-253
-751,-732,19,741,-385,-356,478,390,336,-356,-248,-253
-751,-732,19,741,-385,-356,468,380,336,-351,-248,-258
-746,-732,14,739,-380,-358,468,385,351,-351,-248,-258
-741,-727,14,734,-378,-356,468,385,351,-341,-244,-253
-732,-722,9,727,-370,-356,468,385,361,-341,-244,-253
-727,-717,9,722,-368,-353,468,395,370,-336,-244,-253
-717,-717,0,717,-358,-358,468,395,380,-331,-239,-253
-712,-707,4,710,-358,-351,468,395,390,-331,-234,-248
-707,-697,9,702,-358,-344,458,390,395,-326,-239,-253
-707,-692,14,700,-361,-339,453,390,400,-322,-239,-253
-697,-683,14,690,-356,-334,448,395,405,-326,-239,-263
-697,-678,19,688,-358,-329,444,405,424,-326,-234,-268
-692,-678,14,685,-353,-331,444,409,439,-322,-229,-263
-692,-663,29,678,-361,-317,439,414,453,-312,-229,-258
-688,-658,29,673,-358,-314,424,419,468,-297,-229,-253
-688,-639,48,663,-368,-295,414,424,492,-287,-219,-253
-683,-634,48,658,-366,-292,414,434,512,-287,-219,-248
-668,-634,34,651,-351,-300,414,444,536,-278,-214,-253
-653,-619,34,636,-344,-292,409,463,561,-258,-200,-244
-639,-610,29,624,-334,-290,400,478,590,-239,-185,-234
-639,-595,43,617,-341,-275,395,497,629,-209,-170,-219
-619,-570,48,595,-334,-261,395,522,673,-185,-151,-209
-605,-551,53,578,-329,-248,390,546,722,-156,-136,-200
-590,-541,48,566,-319,-246,385,575,771,-122,-117,-185
-585,-512,73,549,-329,-219,385,605,834,-78,-87,-170
-575,-488,87,531,-331,-200,385,634,897,-39,-63,-141
-546,-473,73,509,-309,-200,375,658,951,0,-39,-126
-522,-453,68,488,-295,-192,370,678,1000,39,-9,-107
-502,-414,87,458,-295,-163,351,697,1049,82,14,-78
-483,-375,107,429,-295,-134,336,712,1093,126,48,-48
-463,-331,131,397,-297,-100,326,727,1122,156,68,-29
-448,-302,146,375,-297,-78,317,732,1146,180,102,-4
-444,-273,170,358,-307,-51,302,741,1176,219,126,14
-434,-258,175,346,-305,-41,283,741,1195,244,151,34
-424,-248,175,336,-300,-36,268,746,1205,268,175,53
-419,-224,195,322,-307,-14,248,741,1210,278,190,63
-405,-209,195,307,-300,-7,239,722,1190,283,195,73
-400,-209,190,305,-295,-9,219,697,1161,283,200,78
-405,-214,190,309,-297,-12,204,658,1122,268,204,82
-414,-214,200,314,-307,-7,195,624,1078,244,195,78
-414,-229,185,322,-300,-21,175,585,1005,219,175,73
-429,-239,190,334,-309,-24,165,541,932,185,156,63
-444,-253,190,348,-317,-31,156,497,854,141,126,34
-463,-278,185,370,-324,-46,146,453,775,92,92,14
-478,-297,180,387,-329,-58,136,405,697,39,48,-19
-488,-326,161,407,-324,-82,126,366,629,-4,19,-43
-497,-366,131,431,-314,-117,122,326,556,-53,-14,-78
-507,-395,112,451,-309,-141,122,297,497,-97,-48,-107
-522,-419,102,470,-312,-158,122,268,453,-141,-87,-141
-527,-439,87,483,-307,-175,117,248,409,-190,-126,-175
-536,-458,78,497,-307,-190,112,234,361,-219,-146,-200
-536,-488,48,512,-292,-219,112,219,331,-244,-170,-219
-541,-507,34,524,-287,-236,107,204,302,-278,-195,-239
-551,-522,29,536,-290,-246,102,195,283,-302,-219,-258
-551,-551,0,551,-275,-275,102,185,263,-317,-239,-278
-551,-561,-9,556,-270,-285,97,180,253,-326,-248,-292
-556,-570,-14,563,-270,-292,92,165,239,-346,-268,-307
-551,-575,-24,563,-263,-300,82,156,224,-366,-283,-326
-546,-566,-19,556,-263,-292,78,151,214,-366,-283,-331
-546,-566,-19,556,-263,-292,73,151,204,-370,-283,-336
-546,-566,-19,556,-263,-292,68,146,204,-370,-287,-346
-541,-561,-19,551,-261,-290,63,146,200,-370,-297,-356
-536,-561,-24,549,-256,-292,58,141,195,-375,-302,-361
-531,-561,-29,546,-251,-295,58,136,190,-375,-302,-366
-527,-566,-39,546,-244,-302,53,136,190,-375,-302,-361
-522,-566,-43,544,-239,-305,43,136,190,-375,-302,-361
-522,-566,-43,544,-239,-305,43,136,190,-366,-302,-361
-522,-566,-43,544,-239,-305,39,136,190,-361,-302,-361
-527,-556,-29,541,-248,-292,34,141,190,-361,-307,-370
-527,-556,-29,541,-248,-292,29,141,185,-361,-312,-375
-527,-556,-29,541,-248,-292,14,141,185,-356,-307,-375
-517,-556,-39,536,-239,-297,4,141,185,-356,-307,-375
-517,-556,-39,536,-239,-297,0,141,185,-356,-317,-375
-517,-556,-39,536,-239,-297,-9,141,180,-356,-322,-380
-507,-536,-29,522,-239,-283,-4,141,185,-356,-317,-385
-502,-541,-39,522,-231,-290,-19,146,185,-356,-317,-390
-502,-541,-39,522,-231,-290,-19,141,185,-361,-322,-390
-497,-536,-39,517,-229,-287,-19,136,185,-366,-322,-390
-492,-536,-43,514,-224,-290,-24,136,175,-366,-326,-395
-492,-536,-43,514,-224,-290,-29,136,175,-361,-331,-400
-483,-527,-43,505,-219,-285,-39,136,170,-361,-331,-409
-478,-522,-43,500,-217,-283,-48,136,165,-361,-336,-414
-478,-527,-48,502,-214,-287,-53,136,165,-361,-331,-409
-478,-522,-43,500,-217,-283,-63,136,170,-361,-331,-409
-473,-507,-34,490,-219,-270,-53,131,170,-361,-331,-409
-468,-502,-34,485,-217,-268,-68,122,170,-361,-336,-409
-463,-492,-29,478,-217,-261,-78,117,170,-361,-341,-414
-458,-497,-39,478,-209,-268,-87,112,170,-361,-346,-414
-453,-497,-43,475,-204,-270,-97,112,165,-366,-346,-414
-448,-492,-43,470,-202,-268,-112,112,156,-370,-346,-424
-453,-492,-39,473,-207,-265,-117,112,156,-361,-346,-424
-453,-483,-29,468,-212,-256,-122,112,156,-361,-346,-424
-448,-483,-34,466,-207,-258,-126,107,151,-361,-346,-424
-448,-483,-34,466,-207,-258,-126,102,146,-361,-346,-429
-439,-483,-43,461,-197,-263,-141,97,146,-361,-351,-434
-429,-488,-58,458,-185,-273,-151,92,146,-366,-356,-439
-429,-478,-48,453,-190,-263,-156,87,136,-366,-356,-439
-429,-473,-43,451,-192,-258,-156,87,131,-370,-361,-439
-424,-473,-48,448,-187,-261,-156,82,122,-370,-366,-439
