I, II, III, aVR, aVL, aVF, V1, V2, V3, V4, V5, V6
-82,-39,43,61,-63,2,-14,-258,-209,-283,-302,-195
-68,-29,39,48,-53,4,-14,-253,-204,-283,-292,-190
-58,-14,43,36,-51,14,-14,-258,-200,-268,-283,-175
-29,24,53,2,-41,39,-34,-253,-185,-253,-258,-151
-14,29,43,-7,-29,36,-53,-248,-180,-253,-258,-141
-9,29,39,-9,-24,34,-63,-268,-195,-253,-268,-136
0,29,29,-14,-14,29,-82,-283,-209,-258,-273,-131
14,29,14,-21,0,21,-107,-302,-229,-263,-273,-131
29,34,4,-31,12,19,-136,-331,-248,-263,-273,-126
43,53,9,-48,17,31,-146,-336,-248,-268,-268,-122
48,48,0,-48,24,24,-151,-341,-258,-268,-263,-117
34,34,0,-34,17,17,-146,-346,-258,-273,-263,-122
-4,0,4,2,-4,2,-122,-341,-258,-278,-273,-131
-14,-34,-19,24,2,-26,-97,-322,-248,-278,-278,-146
-29,-39,-9,34,-9,-24,-73,-302,-239,-278,-278,-151
-39,-58,-19,48,-9,-39,-63,-292,-234,-273,-287,-161
-58,-73,-14,65,-21,-43,-53,-283,-234,-283,-292,-170
-78,-102,-24,90,-26,-63,-48,-292,-248,-292,-302,-185
-92,-117,-24,104,-34,-70,-39,-302,-263,-302,-312,-204
-107,-141,-34,124,-36,-87,-39,-307,-278,-331,-341,-214
-117,-156,-39,136,-39,-97,-39,-312,-287,-336,-346,-224
-122,-161,-39,141,-41,-100,-34,-312,-287,-336,-346,-224
-131,-165,-34,148,-48,-100,-29,-312,-287,-336,-346,-224
-136,-165,-29,151,-53,-97,-24,-307,-287,-341,-346,-224
-141,-170,-29,156,-56,-100,-24,-307,-287,-341,-351,-224
-141,-175,-34,158,-53,-104,-24,-307,-287,-341,-351,-229
-146,-175,-29,161,-58,-102,-19,-307,-287,-336,-351,-229
-146,-175,-29,161,-58,-102,-29,-312,-297,-346,-366,-229
-146,-219,-73,183,-36,-146,9,-273,-307,-385,-405,-263
-195,-302,-107,248,-43,-204,112,-180,-292,-424,-453,-317
-219,-346,-126,283,-46,-236,219,-68,-234,-434,-463,-341
-195,-336,-141,265,-26,-239,224,-58,-204,-419,-448,-341
-97,-234,-136,165,19,-185,122,-73,-107,-312,-361,-268
131,-39,-170,-46,151,-104,-117,-29,107,-97,-190,-136
380,190,-190,-285,285,0,-380,48,409,170,29,14
736,517,-219,-627,478,148,-697,131,761,551,326,244
1098,902,-195,-1000,646,353,-1019,209,1122,927,653,502
1517,1424,-92,-1471,805,666,-1420,283,1561,1420,1078,844
1771,1903,131,-1837,819,1017,-1864,14,1698,1761,1424,1151
1810,2293,483,-2052,663,1388,-2405,-800,1459,1932,1659,1434
1576,2005,429,-1790,573,1217,-2444,-1146,1010,1464,1376,1273
1024,1527,502,-1276,261,1015,-2176,-1761,-136,688,844,971
595,1200,605,-897,-4,902,-1971,-2283,-1088,185,497,761
424,829,405,-627,9,617,-1590,-1995,-1176,-29,253,527
273,551,278,-412,-2,414,-1161,-1546,-1019,-151,68,326
131,380,248,-256,-58,314,-751,-1102,-761,-190,-48,180
43,239,195,-141,-75,217,-448,-727,-536,-200,-117,73
-14,82,97,-34,-56,90,-234,-492,-405,-234,-195,-39
-63,-63,0,63,-31,-31,-48,-292,-283,-258,-253,-131
-107,-126,-19,117,-43,-73,53,-195,-229,-268,-292,-190
-122,-156,-34,139,-43,-95,97,-141,-204,-278,-312,-209
-136,-190,-53,163,-41,-122,126,-117,-200,-297,-331,-224
-146,-204,-58,175,-43,-131,141,-97,-195,-302,-341,-229
-151,-204,-53,178,-48,-129,156,-82,-195,-302,-341,-229
-161,-209,-48,185,-56,-129,161,-63,-195,-297,-341,-229
-161,-224,-63,192,-48,-143,175,-39,-180,-292,-341,-234
-161,-224,-63,192,-48,-143,190,-29,-170,-287,-341,-239
-156,-224,-68,190,-43,-146,190,-19,-165,-287,-336,-239
-151,-224,-73,187,-39,-148,190,-4,-151,-283,-331,-239
-146,-224,-78,185,-34,-151,195,19,-141,-278,-331,-239
-146,-219,-73,183,-36,-146,209,39,-126,-273,-331,-239
-136,-219,-82,178,-26,-151,224,53,-107,-263,-326,-239
-131,-219,-87,175,-21,-153,244,78,-87,-263,-317,-229
-122,-214,-92,168,-14,-153,253,92,-73,-263,-317,-229
-107,-214,-107,161,0,-161,263,117,-58,-258,-317,-229
-112,-209,-97,161,-7,-153,273,146,-39,-253,-312,-224
-117,-209,-92,163,-12,-151,292,170,-24,-244,-302,-219
-117,-209,-92,163,-12,-151,302,200,-4,-239,-302,-219
-117,-209,-92,163,-12,-151,317,234,14,-234,-292,-219
-107,-204,-97,156,-4,-151,326,263,39,-224,-287,-219
-97,-209,-112,153,7,-161,351,302,73,-209,-278,-214
-87,-195,-107,141,9,-151,380,351,102,-200,-268,-214
-78,-190,-112,134,17,-151,395,400,131,-190,-263,-209
-78,-180,-102,129,12,-141,424,448,170,-175,-263,-200
-73,-175,-102,124,14,-139,453,497,204,-165,-253,-195
-63,-170,-107,117,21,-139,483,556,253,-151,-244,-190
-48,-161,-112,104,31,-136,512,614,292,-136,-234,-185
-39,-161,-122,100,41,-141,546,688,331,-126,-224,-185
-29,-151,-122,90,46,-136,575,766,385,-112,-214,-180
-29,-141,-112,85,41,-126,614,829,439,-97,-200,-175
-14,-117,-102,65,43,-109,649,902,488,-78,-190,-170
0,-97,-97,48,48,-97,673,980,541,-58,-165,-151
9,-87,-97,39,53,-92,702,1054,595,-39,-156,-136
24,-68,-92,21,58,-80,741,1122,653,-9,-141,-131
39,-48,-87,4,63,-68,761,1176,702,14,-122,-122
48,-24,-73,-12,61,-48,775,1224,736,34,-112,-112
58,-4,-63,-26,61,-34,780,1268,761,53,-102,-107
92,24,-68,-58,80,-21,785,1288,795,63,-87,-97
122,43,-78,-82,100,-17,790,1293,814,78,-73,-87
131,63,-68,-97,100,-2,790,1317,824,97,-58,-73
131,82,-48,-107,90,17,775,1327,829,107,-48,-63
146,107,-39,-126,92,34,756,1288,834,126,-34,-53
151,126,-24,-139,87,51,717,1239,819,136,-24,-43
156,146,-9,-151,82,68,653,1146,771,136,-9,-34
161,161,0,-161,80,80,590,1034,702,136,-4,-14
161,180,19,-170,70,100,522,912,634,131,-4,0
161,190,29,-175,65,109,439,771,556,122,-4,9
151,180,29,-165,61,104,361,629,458,97,-4,9
141,175,34,-158,53,104,297,492,351,73,-14,4
126,146,19,-136,53,82,234,370,263,39,-34,-4
107,122,14,-114,46,68,175,258,190,9,-48,-9
78,97,19,-87,29,58,131,161,112,-34,-73,-24
53,73,19,-63,17,46,92,63,34,-58,-92,-39
34,39,4,-36,14,21,68,-9,-24,-87,-122,-68
14,9,-4,-12,9,2,48,-63,-73,-122,-146,-87
4,-4,-9,0,7,-7,29,-102,-102,-141,-156,-92
-9,-24,-14,17,2,-19,24,-141,-131,-151,-165,-102
-19,-34,-14,26,-2,-24,19,-161,-151,-175,-170,-107
-29,-48,-19,39,-4,-34,19,-180,-161,-185,-180,-102
-34,-53,-19,43,-7,-36,4,-200,-175,-185,-190,-117
-43,-63,-19,53,-12,-41,4,-209,-185,-185,-190,-117
-53,-87,-34,70,-9,-61,4,-219,-204,-200,-200,-117
-58,-102,-43,80,-7,-73,4,-224,-219,-214,-209,-117
-63,-97,-34,80,-14,-65,0,-239,-224,-229,-209,-122
-63,-97,-34,80,-14,-65,-4,-244,-229,-239,-209,-136
-63,-97,-34,80,-14,-65,-4,-244,-229,-239,-214,-136
-68,-107,-39,87,-14,-73,-4,-248,-234,-239,-219,-131
-73,-107,-34,90,-19,-70,0,-248,-234,-244,-219,-131
-78,-107,-29,92,-24,-68,4,-244,-229,-239,-214,-131
-78,-107,-29,92,-24,-68,4,-244,-229,-244,-214,-131
-78,-107,-29,92,-24,-68,4,-244,-229,-248,-214,-136
-73,-107,-34,90,-19,-70,-4,-244,-234,-258,-214,-136
-73,-112,-39,92,-17,-75,-9,-244,-234,-258,-214,-141
-73,-117,-43,95,-14,-80,0,-248,-234,-263,-219,-141
-68,-117,-48,92,-9,-82,0,-253,-234,-268,-219,-136
-68,-122,-53,95,-7,-87,9,-248,-234,-268,-214,-131
-73,-126,-53,100,-9,-90,14,-244,-234,-268,-214,-126
-78,-126,-48,102,-14,-87,19,-244,-234,-278,-214,-126
-82,-126,-43,104,-19,-85,19,-244,-229,-283,-214,-131
-82,-122,-39,102,-21,-80,19,-239,-229,-287,-219,-131
-78,-126,-48,102,-14,-87,14,-234,-234,-287,-224,-131
-78,-126,-48,102,-14,-87,14,-234,-234,-283,-224,-131
-78,-126,-48,102,-14,-87,14,-234,-229,-283,-224,-131
-78,-131,-53,104,-12,-92,14,-229,-229,-287,-214,-131
-78,-136,-58,107,-9,-97,14,-229,-229,-287,-214,-131
-82,-136,-53,109,-14,-95,14,-224,-229,-287,-219,-136
-82,-136,-53,109,-14,-95,14,-224,-229,-287,-219,-136
-82,-136,-53,109,-14,-95,14,-234,-234,-287,-224,-136
-78,-141,-63,109,-7,-102,14,-244,-239,-287,-224,-136
-78,-146,-68,112,-4,-107,9,-244,-239,-297,-224,-141
-82,-151,-68,117,-7,-109,9,-244,-239,-307,-229,-141
-82,-151,-68,117,-7,-109,9,-244,-239,-317,-234,-141
-82,-151,-68,117,-7,-109,9,-244,-234,-322,-229,-141
-82,-151,-68,117,-7,-109,9,-244,-239,-322,-229,-141
-78,-151,-73,114,-2,-112,4,-253,-244,-322,-229,-141
-78,-151,-73,114,-2,-112,4,-253,-244,-322,-229,-141
-82,-151,-68,117,-7,-109,4,-253,-244,-322,-229,-146
-82,-146,-63,114,-9,-104,0,-253,-244,-326,-219,-136
-87,-146,-58,117,-14,-102,-9,-253,-244,-331,-214,-126
-87,-146,-58,117,-14,-102,-9,-258,-248,-331,-214,-126
-87,-146,-58,117,-14,-102,-9,-263,-253,-331,-214,-126
-87,-146,-58,117,-14,-102,-9,-263,-253,-331,-214,-126
-87,-146,-58,117,-14,-102,-9,-268,-253,-326,-214,-126
-87,-146,-58,117,-14,-102,-9,-278,-258,-326,-214,-131
-87,-141,-53,114,-17,-97,-9,-283,-258,-326,-214,-136
-82,-126,-43,104,-19,-85,-9,-283,-258,-331,-209,-131
-82,-117,-34,100,-24,-75,-4,-283,-253,-326,-204,-131
-73,-92,-19,82,-26,-56,0,-278,-248,-317,-200,-117
-63,-78,-14,70,-24,-46,4,-278,-244,-317,-190,-102
-58,-68,-9,63,-24,-39,4,-278,-244,-317,-190,-102
-58,-63,-4,61,-26,-34,0,-278,-244,-317,-190,-102
-53,-58,-4,56,-24,-31,0,-278,-244,-317,-190,-97
-43,-48,-4,46,-19,-26,-14,-278,-239,-312,-185,-97
-34,-39,-4,36,-14,-21,-14,-278,-234,-312,-170,-92
-29,-24,4,26,-17,-9,-14,-287,-229,-297,-156,-78
0,14,14,-7,-7,14,-34,-287,-219,-283,-131,-58
14,19,4,-17,4,12,-53,-287,-219,-283,-131,-53
4,19,14,-12,-4,17,-63,-307,-234,-283,-141,-53
0,19,19,-9,-9,19,-82,-322,-248,-287,-146,-53
24,24,0,-24,12,12,-102,-336,-263,-297,-146,-53
48,34,-14,-41,31,9,-126,-361,-278,-302,-146,-48
58,43,-14,-51,36,14,-131,-361,-278,-307,-146,-48
58,29,-29,-43,43,0,-131,-361,-287,-307,-146,-48
43,9,-34,-26,39,-12,-126,-361,-287,-317,-146,-53
4,-29,-34,12,19,-31,-102,-351,-287,-326,-156,-63
-19,-63,-43,41,12,-53,-78,-331,-278,-322,-156,-73
-48,-68,-19,58,-14,-43,-53,-312,-268,-317,-151,-73
-43,-82,-39,63,-2,-61,-43,-307,-263,-317,-165,-82
-48,-92,-43,70,-2,-68,-34,-302,-263,-331,-175,-92
-68,-122,-53,95,-7,-87,-34,-312,-278,-341,-185,-102
-82,-136,-53,109,-14,-95,-29,-322,-292,-351,-195,-117
-102,-165,-63,134,-19,-114,-24,-326,-302,-375,-224,-131
-117,-185,-68,151,-24,-126,-19,-331,-307,-375,-229,-146
-117,-185,-68,151,-24,-126,-14,-331,-307,-380,-229,-146
-122,-185,-63,153,-29,-124,-9,-331,-307,-385,-229,-146
-122,-185,-63,153,-29,-124,-4,-326,-307,-390,-229,-146
-122,-190,-68,156,-26,-129,-4,-326,-307,-390,-234,-146
-122,-195,-73,158,-24,-134,-4,-326,-307,-390,-229,-146
-126,-195,-68,161,-29,-131,0,-326,-307,-385,-224,-141
-141,-214,-73,178,-34,-143,14,-312,-302,-395,-234,-146
-156,-278,-122,217,-17,-200,78,-253,-297,-434,-268,-185
-180,-331,-151,256,-14,-241,156,-165,-273,-463,-307,-224
-180,-346,-165,263,-7,-256,239,-58,-204,-463,-307,-234
-107,-273,-165,190,29,-219,175,-48,-122,-375,-239,-195
39,-107,-146,34,92,-126,4,-63,29,-195,-97,-82
292,131,-161,-212,226,-14,-248,-4,287,73,117,82
566,405,-161,-485,363,122,-527,87,634,395,380,268
897,780,-117,-839,507,331,-854,122,966,790,702,522
1234,1215,-19,-1224,627,597,-1185,151,1307,1180,1054,805
1546,1678,131,-1612,707,905,-1571,68,1571,1576,1410,1117
1693,2098,405,-1895,644,1251,-2000,-356,1532,1820,1688,1395
1605,2269,663,-1937,470,1466,-2357,-1083,1117,1766,1747,1546
1244,1761,517,-1503,363,1139,-2210,-1342,492,1073,1288,1254
766,1322,556,-1044,104,939,-1917,-1795,-458,424,824,976
409,1034,624,-722,-107,829,-1688,-2156,-1215,48,546,790
283,688,405,-485,-61,546,-1312,-1790,-1161,-131,317,546
175,434,258,-305,-41,346,-888,-1263,-863,-219,146,336
63,263,200,-163,-68,231,-536,-888,-644,-258,29,204
4,122,117,-63,-56,119,-292,-580,-458,-268,-39,112
-53,-14,39,34,-46,12,-122,-395,-361,-302,-107,9
-102,-141,-39,122,-31,-90,19,-244,-273,-326,-156,-73
-141,-195,-53,168,-43,-124,97,-175,-229,-336,-185,-122
-151,-214,-63,183,-43,-139,117,-151,-214,-346,-195,-131
-156,-244,-87,200,-34,-165,136,-131,-209,-361,-209,-146
-156,-253,-97,204,-29,-175,141,-117,-204,-361,-214,-151
-151,-253,-102,202,-24,-178,161,-102,-195,-361,-214,-151
-151,-258,-107,204,-21,-183,170,-82,-185,-356,-214,-151
-151,-268,-117,209,-17,-192,185,-58,-175,-351,-214,-156
-151,-263,-112,207,-19,-187,200,-48,-170,-346,-214,-161
-151,-263,-112,207,-19,-187,209,-43,-165,-346,-214,-161
-151,-263,-112,207,-19,-187,219,-34,-151,-341,-214,-161
-146,-268,-122,207,-12,-195,224,-9,-141,-336,-214,-161
-146,-268,-122,207,-12,-195,239,9,-126,-331,-214,-161
-136,-268,-131,202,-2,-200,239,24,-112,-317,-209,-161
-131,-268,-136,200,2,-202,244,48,-97,-312,-200,-151
-131,-258,-126,195,-2,-192,253,63,-82,-307,-195,-151
-126,-253,-126,190,0,-190,263,87,-68,-297,-190,-151
-122,-248,-126,185,2,-187,273,117,-43,-292,-190,-146
-117,-248,-131,183,7,-190,292,141,-24,-283,-185,-141
-117,-248,-131,183,7,-190,302,170,-4,-283,-185,-141
-117,-248,-131,183,7,-190,317,204,14,-283,-175,-141
-107,-239,-131,173,12,-185,326,234,39,-273,-170,-141
-97,-239,-141,168,21,-190,351,273,73,-258,-161,-136
-97,-224,-126,161,14,-175,375,317,102,-239,-146,-136
-97,-219,-122,158,12,-170,385,361,131,-219,-136,-131
-97,-209,-112,153,7,-161,419,409,175,-200,-136,-126
-92,-204,-112,148,9,-158,453,458,214,-185,-126,-126
-78,-195,-117,136,19,-156,488,512,258,-170,-117,-122
-58,-180,-122,119,31,-151,522,566,292,-156,-107,-117
-48,-175,-126,112,39,-151,556,634,336,-141,-92,-107
-39,-161,-122,100,41,-141,585,707,395,-122,-78,-92
-39,-156,-117,97,39,-136,619,766,448,-107,-63,-87
-24,-136,-112,80,43,-124,649,834,497,-87,-53,-82
-9,-117,-107,63,48,-112,673,907,551,-68,-34,-68
0,-107,-107,53,53,-107,702,976,605,-48,-29,-58
24,-82,-107,29,65,-95,736,1044,658,-14,-9,-48
48,-58,-107,4,78,-82,751,1098,702,14,14,-34
58,-34,-92,-12,75,-63,761,1137,741,34,29,-19
68,-14,-82,-26,75,-48,761,1171,771,53,43,-9
82,9,-73,-46,78,-31,761,1200,800,63,58,0
92,24,-68,-58,80,-21,761,1215,814,78,73,9
112,48,-63,-80,87,-7,756,1215,819,97,97,29
122,73,-48,-97,85,12,736,1200,819,107,117,43
126,92,-34,-109,80,29,707,1151,805,126,126,53
122,107,-14,-114,68,46,658,1093,771,136,131,63
126,122,-4,-124,65,58,590,995,722,136,146,73
131,131,0,-131,65,65,522,878,653,136,151,92
126,141,14,-134,56,78,458,756,575,126,146,102
122,141,19,-131,51,80,380,614,488,112,141,107
112,131,19,-122,46,75,317,488,400,87,136,107
102,126,24,-114,39,75,268,366,302,63,122,102
87,97,9,-92,39,53,209,248,214,39,97,87
68,73,4,-70,31,39,156,141,141,19,78,78
48,48,0,-48,24,24,117,63,73,-19,53,63
34,24,-9,-29,21,7,82,-14,4,-39,34,48
14,-4,-19,-4,17,-12,58,-78,-43,-68,9,24
-4,-29,-24,17,9,-26,39,-122,-82,-102,-9,9
-19,-53,-34,36,7,-43,19,-156,-112,-126,-19,4
-39,-82,-43,61,2,-63,14,-190,-141,-141,-29,-4
-48,-92,-43,70,-2,-68,9,-214,-165,-161,-34,-9
-58,-107,-48,82,-4,-78,9,-239,-180,-165,-43,-4
-63,-112,-48,87,-7,-80,-4,-248,-195,-165,-53,-19
-73,-122,-48,97,-12,-85,-4,-248,-204,-165,-53,-19
-78,-131,-53,104,-12,-92,-4,-258,-214,-180,-53,-24
-78,-131,-53,104,-12,-92,-4,-263,-219,-195,-53,-29
-87,-126,-39,107,-24,-82,-4,-273,-219,-200,-53,-29
-92,-126,-34,109,-29,-80,-4,-273,-219,-200,-53,-39
-92,-126,-34,109,-29,-80,-9,-273,-219,-200,-58,-39
-97,-136,-39,117,-29,-87,-14,-278,-224,-200,-63,-34
-97,-136,-39,117,-29,-87,-14,-283,-229,-204,-68,-34
-97,-136,-39,117,-29,-87,-14,-283,-229,-200,-68,-34
-97,-141,-43,119,-26,-92,-9,-287,-234,-200,-68,-34
-97,-146,-48,122,-24,-97,-4,-292,-239,-200,-68,-39
-97,-146,-48,122,-24,-97,0,-292,-239,-204,-68,-34
-102,-151,-48,126,-26,-100,9,-292,-234,-200,-68,-34
-102,-151,-48,126,-26,-100,9,-287,-229,-200,-73,-34
-97,-146,-48,122,-24,-97,0,-283,-224,-200,-73,-29
-97,-146,-48,122,-24,-97,0,-278,-224,-200,-68,-29
-102,-146,-43,124,-29,-95,-4,-273,-224,-200,-68,-29
-107,-146,-39,126,-34,-92,0,-273,-224,-204,-68,-29
-112,-146,-34,129,-39,-90,0,-273,-219,-204,-68,-34
-112,-146,-34,129,-39,-90,4,-268,-219,-209,-73,-39
-107,-156,-48,131,-29,-102,4,-263,-224,-209,-78,-43
-102,-151,-48,126,-26,-100,4,-263,-224,-204,-78,-43
-97,-146,-48,122,-24,-97,4,-263,-219,-204,-78,-43
-97,-151,-53,124,-21,-102,4,-258,-214,-209,-73,-43
-97,-156,-58,126,-19,-107,4,-258,-209,-209,-78,-43
-102,-161,-58,131,-21,-109,0,-253,-209,-209,-82,-48
-102,-165,-63,134,-19,-114,-4,-253,-209,-209,-82,-48
-102,-165,-63,134,-19,-114,-4,-258,-209,-209,-82,-48
-97,-170,-73,134,-12,-122,-4,-263,-209,-209,-78,-48
-102,-165,-63,134,-19,-114,-4,-263,-209,-209,-78,-48
-112,-161,-48,136,-31,-104,0,-263,-214,-214,-82,-43
-112,-161,-48,136,-31,-104,0,-268,-214,-214,-78,-48
-112,-165,-53,139,-29,-109,0,-273,-219,-214,-73,-53
-107,-165,-58,136,-24,-112,0,-273,-219,-214,-73,-43
-107,-165,-58,136,-24,-112,0,-273,-224,-214,-78,-39
-112,-165,-53,139,-29,-109,-4,-273,-224,-214,-78,-39
-117,-165,-48,141,-34,-107,-9,-273,-224,-214,-78,-39
-117,-165,-48,141,-34,-107,-9,-273,-224,-214,-73,-39
-117,-165,-48,141,-34,-107,-9,-278,-224,-209,-68,-39
-117,-165,-48,141,-34,-107,-9,-283,-229,-209,-68,-39
-117,-161,-43,139,-36,-102,-9,-283,-229,-209,-68,-39
-107,-146,-39,126,-34,-92,-9,-283,-229,-209,-63,-29
-102,-136,-34,119,-34,-85,-4,-283,-224,-200,-58,-24
-97,-117,-19,107,-39,-68,-4,-278,-219,-185,-53,-14
-92,-107,-14,100,-39,-61,-4,-278,-214,-180,-43,-4
-87,-97,-9,92,-39,-53,-4,-278,-214,-175,-43,-4
-87,-92,-4,90,-41,-48,-9,-278,-214,-170,-43,-4
-82,-87,-4,85,-39,-46,-9,-278,-219,-170,-48,0
-73,-78,-4,75,-34,-41,-24,-278,-219,-165,-48,0
-63,-68,-4,65,-29,-36,-24,-278,-214,-170,-39,4
-58,-53,4,56,-31,-24,-24,-287,-209,-161,-29,19
-34,-19,14,26,-24,-2,-43,-287,-200,-146,0,39
-24,-19,4,21,-14,-7,-63,-287,-200,-146,4,43
-24,-19,4,21,-14,-7,-68,-307,-214,-146,0,43
-19,-19,0,19,-9,-9,-82,-322,-229,-151,0,43
-4,-19,-14,12,4,-17,-102,-336,-244,-156,0,43
9,-14,-24,2,17,-19,-126,-361,-258,-156,0,48
14,-4,-19,-4,17,-12,-136,-356,-258,-161,0,48
9,-19,-29,4,19,-24,-141,-351,-268,-161,0,48
-4,-34,-29,19,12,-31,-136,-351,-268,-170,0,43
-43,-68,-24,56,-9,-46,-112,-341,-268,-180,-9,34
-53,-97,-43,75,-4,-70,-87,-322,-253,-180,-14,19
-68,-97,-29,82,-19,-63,-63,-302,-239,-180,-14,14
-78,-117,-39,97,-19,-78,-48,-302,-239,-180,-29,4
-97,-131,-34,114,-31,-82,-34,-302,-244,-195,-39,-4
-117,-165,-48,141,-34,-107,-34,-312,-258,-204,-53,-19
-131,-185,-53,158,-39,-119,-29,-322,-273,-214,-68,-39
-146,-209,-63,178,-41,-136,-34,-322,-283,-239,-92,-48
-156,-224,-68,190,-43,-146,-39,-322,-287,-239,-92,-58
-156,-224,-68,190,-43,-146,-34,-322,-287,-234,-92,-53
-161,-224,-63,192,-48,-143,-29,-322,-287,-229,-92,-48
-161,-224,-63,192,-48,-143,-24,-317,-287,-234,-92,-48
-161,-229,-68,195,-46,-148,-24,-317,-287,-234,-97,-48
-161,-234,-73,197,-43,-153,-19,-317,-287,-244,-97,-53
-165,-234,-68,200,-48,-151,-9,-317,-287,-248,-97,-53
-180,-253,-73,217,-53,-163,4,-302,-283,-258,-112,-63
-195,-317,-122,256,-36,-219,68,-244,-278,-297,-151,-107
-219,-375,-156,297,-31,-265,126,-165,-253,-322,-180,-146
-219,-395,-175,307,-21,-285,190,-68,-185,-317,-170,-156
-141,-317,-175,229,17,-246,112,-53,-97,-219,-102,-112
9,-146,-156,68,82,-151,-73,-63,58,-29,39,4
268,107,-161,-187,214,-26,-326,4,326,239,253,170
546,395,-151,-470,348,122,-605,107,683,561,517,356
873,761,-112,-817,492,324,-932,161,1034,966,849,619
1205,1185,-19,-1195,612,583,-1263,209,1395,1366,1210,912
1507,1649,141,-1578,683,895,-1659,102,1639,1756,1566,1215
1644,2069,424,-1856,610,1246,-2098,-346,1581,1995,1844,1483
1556,2225,668,-1891,444,1446,-2449,-1098,1127,1927,1878,1620
1195,1703,507,-1449,344,1105,-2298,-1381,463,1220,1395,1312
727,1263,536,-995,95,900,-1991,-1800,-463,561,932,1029
380,976,595,-678,-107,785,-1747,-2127,-1195,175,653,839
244,629,385,-436,-70,507,-1337,-1761,-1132,4,429,605
126,375,248,-251,-61,312,-878,-1234,-824,-73,263,405
19,219,200,-119,-90,209,-536,-863,-605,-112,156,268
-34,92,126,-29,-80,109,-302,-561,-419,-122,97,170
-92,-48,43,70,-68,-2,-126,-390,-326,-165,14,63
-141,-180,-39,161,-51,-109,19,-253,-244,-200,-48,-24
-185,-234,-48,209,-68,-141,92,-175,-204,-209,-78,-68
-200,-253,-53,226,-73,-153,107,-141,-195,-219,-87,-73
-204,-273,-68,239,-68,-170,126,-112,-190,-234,-102,-82
-204,-273,-68,239,-68,-170,131,-87,-185,-234,-107,-82
-200,-273,-73,236,-63,-173,146,-73,-175,-234,-107,-82
-200,-278,-78,239,-61,-178,151,-53,-165,-229,-107,-82
-200,-292,-92,246,-53,-192,165,-29,-151,-224,-107,-87
-200,-292,-92,246,-53,-192,180,-19,-141,-219,-107,-92
-200,-292,-92,246,-53,-192,190,-9,-136,-219,-107,-92
-200,-292,-92,246,-53,-192,200,4,-122,-214,-107,-92
-195,-292,-97,244,-48,-195,204,19,-112,-209,-102,-92
-195,-287,-92,241,-51,-190,219,29,-97,-204,-97,-92
-190,-287,-97,239,-46,-192,224,53,-82,-195,-92,-92
-190,-287,-97,239,-46,-192,234,87,-68,-195,-82,-82
-195,-287,-92,241,-51,-190,244,102,-53,-195,-82,-82
-195,-292,-97,244,-48,-195,253,126,-39,-190,-82,-82
-190,-287,-97,239,-46,-192,263,151,-14,-185,-82,-82
-185,-287,-102,236,-41,-195,283,170,4,-175,-78,-82
-185,-283,-97,234,-43,-190,292,200,24,-170,-82,-82
-185,-278,-92,231,-46,-185,307,234,43,-165,-78,-82
-175,-268,-92,222,-41,-180,317,263,68,-151,-73,-78
-165,-268,-102,217,-31,-185,341,302,102,-131,-63,-68
-161,-253,-92,207,-34,-173,370,351,131,-122,-53,-68
-156,-248,-92,202,-31,-170,385,400,161,-112,-48,-63
-156,-239,-82,197,-36,-161,419,453,204,-97,-43,-58
-151,-234,-82,192,-34,-158,453,507,244,-87,-29,-58
-141,-224,-82,183,-29,-153,483,566,297,-73,-19,-53
-126,-209,-82,168,-21,-146,512,624,341,-58,-9,-48
-117,-204,-87,161,-14,-146,551,702,385,-39,0,-43
-107,-190,-82,148,-12,-136,585,785,444,-14,9,-34
-107,-180,-73,143,-17,-126,624,839,497,0,24,-34
-92,-156,-63,124,-14,-109,658,902,546,19,34,-34
-78,-136,-58,107,-9,-97,683,976,595,39,58,-19
-68,-126,-58,97,-4,-92,712,1044,644,58,68,-9
-53,-107,-53,80,0,-80,746,1112,697,82,82,-4
-39,-87,-48,63,4,-68,761,1166,741,102,102,4
-29,-63,-34,46,2,-48,775,1210,780,122,117,19
-19,-43,-24,31,2,-34,780,1249,810,141,131,29
-4,-14,-9,9,2,-12,775,1268,839,156,151,43
4,4,0,-4,2,2,771,1273,854,175,170,58
24,24,0,-24,12,12,761,1273,854,195,185,78
34,43,9,-39,12,26,736,1259,849,204,195,92
48,63,14,-56,17,39,707,1200,834,224,209,107
53,78,24,-65,14,51,658,1132,800,234,219,122
53,97,43,-75,4,70,590,1029,746,234,234,131
53,112,58,-82,-2,85,522,907,673,234,239,151
53,122,68,-87,-7,95,444,785,590,224,234,151
53,122,68,-87,-7,95,351,644,497,209,229,146
43,107,63,-75,-9,85,278,517,409,175,214,146
34,97,63,-65,-14,80,219,395,312,141,190,141
19,68,48,-43,-14,58,165,283,229,122,180,136
0,43,43,-21,-21,43,117,180,161,107,175,136
-19,19,39,0,-29,29,78,102,92,68,141,112
-34,-4,29,19,-31,12,43,24,24,48,112,87
-53,-34,19,43,-36,-7,19,-39,-24,24,92,68
-73,-58,14,65,-43,-21,0,-82,-63,-4,78,58
-82,-73,9,78,-46,-31,-19,-117,-92,-24,68,53
-97,-92,4,95,-51,-43,-24,-151,-122,-34,58,43
-117,-107,9,112,-63,-48,-29,-170,-141,-53,48,34
-136,-126,9,131,-73,-58,-29,-190,-151,-58,34,34
-141,-131,9,136,-75,-61,-43,-200,-165,-58,24,19
-151,-141,9,146,-80,-65,-43,-200,-175,-58,24,19
-161,-161,0,161,-80,-80,-39,-204,-185,-73,24,19
-165,-170,-4,168,-80,-87,-34,-204,-190,-87,24,19
-170,-165,4,168,-87,-80,-34,-214,-190,-92,24,24
-170,-165,4,168,-87,-80,-34,-214,-190,-92,24,19
-165,-161,4,163,-85,-78,-39,-209,-190,-87,19,19
-165,-165,0,165,-82,-82,-43,-209,-195,-82,14,24
-165,-165,0,165,-82,-82,-43,-214,-200,-87,9,24
-165,-165,0,165,-82,-82,-43,-214,-200,-82,9,24
-165,-175,-9,170,-78,-92,-43,-219,-204,-82,9,24
-165,-185,-19,175,-73,-102,-43,-224,-209,-82,9,19
-165,-175,-9,170,-78,-92,-48,-224,-209,-92,9,19
-170,-170,0,170,-85,-85,-48,-224,-204,-92,9,14
-170,-175,-4,173,-82,-90,-39,-219,-200,-87,4,14
-165,-175,-9,170,-78,-92,-39,-214,-195,-82,4,19
-170,-180,-9,175,-80,-95,-34,-209,-195,-82,9,19
-180,-185,-4,183,-87,-95,-34,-204,-195,-82,9,19
-185,-185,0,185,-92,-92,-29,-204,-195,-87,4,14
-190,-185,4,187,-97,-90,-29,-204,-190,-87,0,4
-190,-180,9,185,-100,-85,-29,-200,-190,-87,0,4
-185,-185,0,185,-92,-92,-34,-195,-195,-82,0,4
-185,-180,4,183,-95,-87,-34,-195,-200,-78,0,4
-185,-175,9,180,-97,-82,-34,-195,-200,-78,0,4
-185,-180,4,183,-95,-87,-29,-190,-200,-82,4,4
-185,-185,0,185,-92,-92,-24,-190,-200,-82,0,4
-190,-190,0,190,-95,-95,-24,-185,-200,-82,-4,0
-190,-195,-4,192,-92,-100,-24,-185,-200,-82,-4,0
-190,-195,-4,192,-92,-100,-24,-185,-195,-82,-4,0
-185,-200,-14,192,-85,-107,-29,-185,-190,-82,0,0
-190,-200,-9,195,-90,-104,-29,-180,-190,-82,-4,0
-200,-204,-4,202,-97,-104,-29,-175,-190,-87,-9,-4
-195,-204,-9,200,-92,-107,-29,-180,-190,-78,-4,0
-195,-204,-9,200,-92,-107,-29,-185,-195,-68,0,0
-195,-204,-9,200,-92,-107,-39,-185,-195,-68,0,0
-195,-204,-9,200,-92,-107,-48,-185,-195,-68,0,0
-195,-209,-14,202,-90,-112,-48,-185,-195,-68,4,4
-195,-209,-14,202,-90,-112,-53,-190,-195,-63,9,9
-195,-214,-19,204,-87,-117,-58,-195,-200,-58,14,14
-195,-209,-14,202,-90,-112,-68,-195,-200,-53,19,19
-195,-195,0,195,-97,-97,-48,-195,-200,-53,24,24
-200,-185,14,192,-107,-85,-24,-195,-195,-43,29,24
-195,-165,29,180,-112,-68,-19,-190,-190,-29,34,34
-190,-156,34,173,-112,-61,-14,-190,-185,-24,43,43
-185,-146,39,165,-112,-53,-19,-190,-185,-19,43,43
-185,-141,43,163,-114,-48,-29,-190,-185,-14,43,43
-180,-136,43,158,-112,-46,-29,-190,-185,-9,43,48
-170,-126,43,148,-107,-41,-43,-190,-180,0,48,48
-161,-117,43,139,-102,-36,-43,-185,-175,0,58,53
-156,-102,53,129,-104,-24,-43,-190,-170,14,68,68
-126,-58,68,92,-97,4,-68,-190,-161,29,92,87
-112,-48,63,80,-87,7,-92,-190,-161,29,92,92
-112,-48,63,80,-87,7,-102,-209,-170,29,87,92
-107,-48,58,78,-82,4,-122,-224,-180,24,87,92
-92,-58,34,75,-63,-12,-141,-234,-195,24,92,92
-78,-63,14,70,-46,-24,-165,-253,-209,29,97,97
-68,-43,24,56,-46,-9,-175,-253,-214,24,97,102
-68,-48,19,58,-43,-14,-180,-253,-229,24,97,107
-82,-63,19,73,-51,-21,-175,-258,-229,19,92,102
-122,-97,24,109,-73,-36,-151,-253,-229,14,78,92
-131,-131,0,131,-65,-65,-126,-234,-219,14,73,78
-146,-136,9,141,-78,-63,-102,-214,-209,14,73,73
-156,-156,0,156,-78,-78,-92,-214,-209,19,58,63
-175,-170,4,173,-90,-82,-82,-214,-214,9,48,53
-204,-204,0,204,-102,-102,-82,-224,-229,0,39,43
-229,-224,4,226,-117,-109,-78,-234,-244,-9,29,29
-244,-248,-4,246,-119,-126,-78,-234,-253,-34,4,19
-253,-263,-9,258,-122,-136,-78,-234,-258,-34,4,9
-253,-268,-14,261,-119,-141,-68,-234,-258,-34,4,9
-258,-273,-14,265,-122,-143,-58,-234,-258,-34,4,9
-258,-273,-14,265,-122,-143,-53,-229,-258,-39,4,9
-258,-278,-19,268,-119,-148,-53,-229,-258,-39,0,9
-258,-283,-24,270,-117,-153,-58,-229,-258,-39,0,4
-263,-283,-19,273,-122,-151,-58,-229,-258,-34,0,4
-278,-287,-9,283,-134,-148,-53,-214,-258,-43,-14,-4
-292,-336,-43,314,-124,-190,0,-156,-258,-82,-53,-48
-322,-419,-97,370,-112,-258,82,-78,-244,-117,-102,-92
-326,-463,-136,395,-95,-300,170,19,-185,-122,-112,-107
-283,-405,-122,344,-80,-263,107,29,-126,-63,-63,-82
-165,-253,-87,209,-39,-170,-63,14,0,87,58,14
82,-34,-117,-24,100,-75,-312,87,248,331,244,161
351,219,-131,-285,241,43,-585,195,585,629,478,326
688,570,-117,-629,402,226,-912,283,956,1034,800,575
1029,980,-48,-1005,539,466,-1244,366,1337,1434,1151,854
1410,1483,73,-1446,668,778,-1644,331,1693,1888,1546,1180
1625,1942,317,-1783,653,1129,-2088,-43,1747,2191,1864,1473
1586,2200,614,-1893,485,1407,-2527,-849,1361,2220,2000,1683
1273,1781,507,-1527,383,1144,-2464,-1185,766,1610,1620,1449
771,1317,546,-1044,112,932,-2166,-1712,-297,893,1117,1156
390,1005,614,-697,-112,810,-1932,-2147,-1166,448,800,956
224,649,424,-436,-100,536,-1522,-1781,-1151,253,561,707
78,385,307,-231,-114,346,-1063,-1254,-893,151,380,492
-43,224,268,-90,-156,246,-678,-858,-653,112,248,356
-112,92,204,9,-158,148,-400,-531,-448,102,165,258
-175,-53,122,114,-148,34,-214,-331,-341,63,87,151
-229,-190,39,209,-134,-75,-58,-165,-244,34,29,63
-273,-248,24,261,-148,-112,29,-87,-200,29,0,19
-287,-273,14,280,-151,-129,58,-53,-185,24,-9,14
-302,-297,4,300,-153,-146,82,-24,-180,9,-29,-4
-312,-302,9,307,-161,-146,92,0,-175,9,-39,-14
-312,-302,9,307,-161,-146,107,19,-161,9,-39,-14
-317,-307,9,312,-163,-148,112,43,-146,14,-39,-14
-317,-322,-4,319,-156,-163,131,68,-131,19,-34,-19
-317,-322,-4,319,-156,-163,151,78,-122,24,-29,-24
-317,-322,-4,319,-156,-163,161,87,-117,24,-24,-24
-317,-322,-4,319,-156,-163,170,102,-102,29,-19,-24
-312,-322,-9,317,-151,-165,170,126,-92,34,-19,-24
-312,-317,-4,314,-153,-161,180,146,-78,39,-19,-24
-302,-317,-14,309,-143,-165,185,161,-68,48,-14,-24
-297,-317,-19,307,-139,-168,195,185,-58,48,-4,-14
-297,-312,-14,305,-141,-163,209,200,-43,48,-4,-14
-292,-312,-19,302,-136,-165,224,224,-29,53,-4,-14
-292,-307,-14,300,-139,-161,234,253,0,58,-4,-9
-292,-307,-14,300,-139,-161,253,278,24,68,0,-4
-292,-307,-14,300,-139,-161,258,307,43,73,0,-4
-292,-307,-14,300,-139,-161,268,341,63,78,9,-4
-283,-292,-9,287,-136,-151,283,370,87,87,9,-9
-273,-287,-14,280,-129,-151,312,409,122,102,14,-9
-268,-273,-4,270,-131,-139,341,458,151,112,24,-9
-263,-268,-4,265,-129,-136,356,507,180,122,29,-4
-263,-253,9,258,-136,-122,390,566,224,141,34,4
-258,-244,14,251,-136,-114,424,624,263,156,48,9
-253,-234,19,244,-136,-107,453,683,312,175,58,14
-244,-219,24,231,-134,-97,483,741,351,195,68,19
-234,-214,19,224,-126,-97,522,814,395,209,73,24
-224,-200,24,212,-124,-87,556,893,453,229,78,34
-214,-190,24,202,-119,-82,600,961,517,248,87,34
-190,-165,24,178,-107,-70,639,1039,575,273,92,34
-175,-141,34,158,-104,-53,663,1112,624,297,112,48
-165,-126,39,146,-102,-43,692,1180,673,322,117,58
-151,-107,43,129,-97,-31,727,1254,727,346,131,63
-136,-87,48,112,-92,-19,741,1312,771,366,151,73
-126,-63,63,95,-95,0,756,1361,810,390,165,87
-117,-43,73,80,-95,14,761,1405,839,414,180,97
-102,-19,82,61,-92,31,761,1424,873,424,195,107
-92,-4,87,48,-90,41,761,1429,893,439,209,117
-73,14,87,29,-80,51,756,1434,893,458,224,136
-63,34,97,14,-80,65,736,1424,888,468,234,151
-48,58,107,-4,-78,82,707,1366,878,483,248,161
-43,78,122,-17,-82,100,658,1298,849,488,258,170
-29,102,131,-36,-80,117,575,1200,800,492,273,180
-14,122,136,-53,-75,129,492,1083,732,497,278,200
-14,131,146,-58,-80,139,424,961,649,492,278,209
-14,131,146,-58,-80,139,341,819,556,483,278,214
-24,117,141,-46,-82,129,258,683,468,458,273,214
-34,107,141,-36,-87,124,190,551,370,434,258,209
-53,78,131,-12,-92,104,141,434,283,400,234,195
-78,53,131,12,-104,92,97,326,209,370,214,185
-97,34,131,31,-114,82,58,239,136,331,185,170
-112,14,126,48,-119,70,24,151,63,312,161,156
-126,-9,117,68,-122,53,0,82,9,292,141,136
-141,-29,112,85,-126,41,-19,34,-34,268,126,126
-151,-43,107,97,-129,31,-43,0,-63,248,112,112
-165,-63,102,114,-134,19,-53,-34,-92,239,97,92
-170,-68,102,119,-136,17,-58,-58,-112,209,87,82
-175,-78,97,126,-136,9,-58,-82,-122,195,73,82
-180,-82,97,131,-139,7,-73,-92,-136,195,58,68
-190,-92,97,141,-143,2,-73,-92,-146,195,53,68
-200,-107,92,153,-146,-7,-82,-102,-156,185,53,68
-204,-112,92,158,-148,-9,-92,-107,-161,175,53,68
-209,-112,97,161,-153,-7,-92,-117,-161,170,48,68
-209,-117,92,163,-151,-12,-92,-117,-161,170,43,58
-209,-117,92,163,-151,-12,-92,-117,-161,175,39,53
-214,-126,87,170,-151,-19,-92,-122,-165,180,34,53
-214,-122,92,168,-153,-14,-92,-126,-170,170,29,53
-214,-117,97,165,-156,-9,-92,-126,-170,170,29,53
-209,-117,92,163,-151,-12,-87,-126,-170,175,29,53
-204,-117,87,161,-146,-14,-82,-126,-170,180,29,48
-204,-107,97,156,-151,-4,-87,-126,-170,170,29,48
-209,-102,107,156,-158,2,-87,-126,-165,170,29,43
-214,-107,107,161,-161,0,-87,-126,-165,170,24,34
-214,-107,107,161,-161,0,-97,-126,-165,170,24,29
-214,-107,107,161,-161,0,-92,-126,-165,170,24,29
-219,-107,112,163,-165,2,-92,-126,-165,170,19,29
-219,-107,112,163,-165,2,-78,-126,-165,165,14,29
-219,-107,112,163,-165,2,-68,-126,-161,165,9,24
-219,-102,117,161,-168,7,-63,-126,-161,161,9,24
-214,-107,107,161,-161,0,-63,-126,-165,161,9,24
-214,-107,107,161,-161,0,-63,-126,-165,165,9,19
-214,-107,107,161,-161,0,-63,-126,-161,165,9,14
-214,-112,102,163,-158,-4,-63,-122,-161,161,9,14
-214,-117,97,165,-156,-9,-63,-122,-161,161,0,14
-219,-112,107,165,-163,-2,-63,-117,-161,156,-9,4
-219,-107,112,163,-165,2,-63,-117,-161,151,-14,0
-219,-107,112,163,-165,2,-63,-122,-161,151,-14,0
-214,-112,102,163,-158,-4,-68,-126,-161,151,-9,0
-209,-112,97,161,-153,-7,-68,-126,-165,151,-19,0
-209,-117,92,163,-151,-12,-68,-126,-170,156,-29,-4
-204,-117,87,161,-146,-14,-73,-126,-165,156,-29,-4
-204,-117,87,161,-146,-14,-78,-126,-165,156,-29,-9
-204,-122,82,163,-143,-19,-82,-122,-165,156,-29,-9
-204,-126,78,165,-141,-24,-87,-117,-165,156,-29,-9
-209,-126,82,168,-146,-21,-87,-117,-165,156,-29,-14
-209,-126,82,168,-146,-21,-82,-122,-165,156,-29,-14
-214,-126,87,170,-151,-19,-82,-131,-170,161,-34,-19
-214,-122,92,168,-153,-14,-78,-136,-170,161,-39,-19
-204,-102,102,153,-153,0,-78,-136,-170,165,-34,-14
-200,-87,112,143,-156,12,-73,-136,-165,180,-29,-14
-190,-68,122,129,-156,26,-68,-131,-161,190,-29,-4
-180,-58,122,119,-151,31,-63,-131,-156,190,-24,4
-175,-48,126,112,-151,39,-68,-131,-151,195,-24,0
-175,-43,131,109,-153,43,-78,-131,-146,200,-24,-4
-170,-34,136,102,-153,51,-78,-131,-146,200,-24,0
-161,-19,141,90,-151,61,-92,-131,-141,204,-19,0
-151,-9,141,80,-146,65,-92,-131,-136,204,-14,4
-146,4,151,70,-148,78,-92,-141,-131,219,-9,19
-122,43,165,39,-143,104,-112,-146,-126,234,14,34
-112,48,161,31,-136,104,-131,-151,-131,234,14,34
-112,48,161,31,-136,104,-141,-170,-146,229,9,29
-107,48,156,29,-131,102,-161,-185,-161,219,9,24
-82,48,131,17,-107,90,-180,-200,-170,214,4,19
-58,53,112,2,-85,82,-204,-224,-180,214,0,19
-48,63,112,-7,-80,87,-209,-224,-180,204,-4,19
-48,48,97,0,-73,73,-209,-224,-190,200,-9,19
-63,39,102,12,-82,70,-204,-224,-190,185,-14,9
-102,9,112,46,-107,61,-180,-214,-190,170,-29,-4
-117,-24,92,70,-104,34,-156,-195,-180,170,-34,-19
-136,-29,107,82,-122,39,-131,-175,-170,170,-34,-24
-146,-48,97,97,-122,24,-122,-175,-170,170,-53,-39
-165,-63,102,114,-134,19,-112,-175,-175,156,-68,-53
-185,-97,87,141,-136,-4,-117,-185,-190,146,-82,-63
-200,-117,82,158,-141,-17,-117,-195,-204,136,-97,-78
-214,-141,73,178,-143,-34,-117,-204,-214,112,-126,-87
-224,-156,68,190,-146,-43,-117,-214,-219,112,-131,-97
-224,-146,78,185,-151,-34,-112,-214,-224,107,-131,-102
-229,-136,92,183,-161,-21,-107,-214,-229,102,-131,-107
-229,-136,92,183,-161,-21,-92,-209,-229,97,-131,-112
-229,-141,87,185,-158,-26,-82,-209,-229,97,-136,-117
-224,-146,78,185,-151,-34,-82,-209,-224,92,-141,-122
-224,-146,78,185,-151,-34,-78,-209,-219,92,-146,-122
-234,-165,68,200,-151,-48,-63,-195,-219,78,-161,-131
-244,-229,14,236,-129,-107,0,-136,-219,34,-200,-175
-263,-287,-24,275,-119,-156,53,-58,-195,4,-234,-214
-258,-307,-48,283,-104,-178,112,39,-126,4,-229,-224
-175,-229,-53,202,-61,-141,9,34,-53,73,-175,-195
-19,-58,-39,39,9,-48,-200,4,87,234,-48,-92
239,175,-63,-207,151,56,-453,87,361,497,156,68
517,444,-73,-480,295,185,-732,204,722,814,409,248
878,805,-73,-841,475,366,-1068,283,1093,1210,732,497
1244,1224,-19,-1234,631,602,-1410,356,1473,1600,1083,775
1556,1673,117,-1615,719,895,-1810,214,1717,1981,1424,1078
1703,2078,375,-1891,663,1227,-2254,-268,1659,2210,1688,1346
1605,2244,639,-1925,483,1442,-2586,-1044,1190,2142,1732,1483
1234,1732,497,-1483,368,1115,-2415,-1351,512,1434,1259,1176
756,1288,531,-1022,112,910,-2093,-1761,-414,790,800,893
400,995,595,-697,-97,795,-1834,-2078,-1146,419,527,702
258,678,419,-468,-80,549,-1429,-1698,-1078,263,307,473
136,453,317,-295,-90,385,-976,-1156,-766,200,146,278
19,312,292,-165,-136,302,-624,-785,-546,161,43,151
-43,200,244,-78,-143,222,-380,-483,-361,151,-9,63
-107,68,175,19,-141,122,-204,-302,-268,112,-87,-39
-161,-53,107,107,-134,26,-58,-156,-185,82,-146,-122
-204,-107,97,156,-151,-4,19,-82,-146,73,-175,-165
-219,-126,92,173,-156,-17,39,-53,-136,63,-185,-170
-224,-141,82,183,-153,-29,63,-34,-131,48,-200,-195
-224,-136,87,180,-156,-24,73,-19,-126,48,-204,-209
-224,-136,87,180,-156,-24,87,-4,-117,43,-214,-209
-229,-141,87,185,-158,-26,92,14,-107,43,-224,-209
-224,-156,68,190,-146,-43,107,39,-87,48,-224,-209
-219,-156,63,187,-141,-46,122,48,-73,53,-224,-209
-219,-161,58,190,-139,-51,136,58,-68,48,-224,-209
-219,-165,53,192,-136,-56,151,73,-53,48,-224,-209
-214,-165,48,190,-131,-58,156,97,-43,53,-224,-214
-214,-161,53,187,-134,-53,170,117,-29,58,-224,-219
-204,-161,43,183,-124,-58,175,131,-14,68,-224,-224
-200,-161,39,180,-119,-61,185,156,0,68,-219,-219
-200,-151,48,175,-124,-51,195,165,9,63,-224,-224
-195,-146,48,170,-122,-48,204,185,19,63,-229,-229
-190,-141,48,165,-119,-46,214,214,43,68,-229,-229
-185,-141,43,163,-114,-48,234,239,63,78,-224,-229
-180,-136,43,158,-112,-46,244,268,87,78,-224,-229
-175,-131,43,153,-109,-43,258,302,112,78,-214,-229
-165,-122,43,143,-104,-39,273,331,136,87,-209,-229
-156,-122,34,139,-95,-43,302,370,170,102,-200,-224
-151,-107,43,129,-97,-31,331,424,204,112,-190,-224
-146,-102,43,124,-95,-29,346,478,239,122,-185,-219
-146,-87,58,117,-102,-14,385,536,283,131,-185,-214
-141,-78,63,109,-102,-7,424,595,322,136,-175,-214
-131,-68,63,100,-97,-2,458,653,370,151,-170,-214
-117,-53,63,85,-90,4,492,712,409,165,-165,-214
-102,-39,63,70,-82,12,527,790,453,180,-161,-214
-87,-14,73,51,-80,29,556,873,512,200,-156,-209
-87,-4,82,46,-85,39,595,936,570,214,-141,-204
-73,19,92,26,-82,56,629,1010,624,234,-131,-200
-58,39,97,9,-78,68,653,1083,673,239,-117,-190
-48,48,97,0,-73,73,683,1151,722,244,-117,-185
-29,68,97,-19,-63,82,717,1220,775,268,-107,-180
-9,87,97,-39,-53,92,732,1273,819,287,-92,-170
4,112,107,-58,-51,109,746,1312,854,302,-78,-156
19,131,112,-75,-46,122,751,1346,878,317,-63,-146
34,165,131,-100,-48,148,751,1366,907,326,-48,-141
43,190,146,-117,-51,168,751,1371,922,341,-34,-136
63,209,146,-136,-41,178,741,1371,922,351,-19,-122
73,229,156,-151,-41,192,717,1356,917,351,-9,-112
87,248,161,-168,-36,204,678,1288,897,361,0,-102
92,263,170,-178,-39,217,619,1210,858,361,4,-92
97,273,175,-185,-39,224,546,1102,800,356,19,-82
102,278,175,-190,-36,226,473,976,722,351,24,-63
102,287,185,-195,-41,236,395,844,639,341,14,-63
102,287,185,-195,-41,236,302,692,546,326,4,-68
97,273,175,-185,-39,224,229,561,453,302,0,-68
92,263,170,-178,-39,217,170,434,351,278,-14,-73
78,234,156,-156,-39,195,117,317,268,244,-39,-87
58,209,151,-134,-46,180,68,209,200,214,-58,-97
39,190,151,-114,-56,170,34,131,131,170,-82,-112
24,170,146,-97,-61,158,4,53,63,146,-102,-126
4,141,136,-73,-65,139,-19,-14,14,117,-126,-146
-14,117,131,-51,-73,124,-39,-63,-24,82,-146,-156
-24,102,126,-39,-75,114,-58,-97,-53,63,-156,-161
-39,82,122,-21,-80,102,-63,-131,-82,53,-165,-170
-48,73,122,-12,-85,97,-68,-151,-102,29,-175,-180
-58,58,117,0,-87,87,-68,-170,-112,19,-190,-180
-63,53,117,4,-90,85,-82,-180,-126,19,-200,-200
-73,43,117,14,-95,80,-82,-180,-136,19,-200,-204
-78,34,112,21,-95,73,-78,-190,-146,4,-204,-204
-78,34,112,21,-95,73,-73,-195,-151,-9,-209,-204
-78,39,117,19,-97,78,-73,-204,-151,-14,-209,-204
-73,39,112,17,-92,75,-73,-204,-151,-14,-209,-214
-73,43,117,14,-95,80,-73,-204,-151,-14,-209,-214
-78,39,117,19,-97,78,-73,-209,-156,-14,-209,-209
-78,39,117,19,-97,78,-73,-209,-161,-19,-214,-209
-78,39,117,19,-97,78,-73,-204,-161,-14,-214,-209
-78,34,112,21,-95,73,-73,-204,-161,-19,-214,-209
-78,29,107,24,-92,68,-73,-204,-161,-24,-214,-214
-73,29,102,21,-87,65,-78,-204,-161,-43,-214,-214
-73,24,97,24,-85,61,-78,-204,-156,-53,-214,-219
-73,19,92,26,-82,56,-68,-204,-156,-53,-224,-229
-68,19,87,24,-78,53,-68,-204,-156,-53,-229,-234
-68,19,87,24,-78,53,-63,-204,-156,-53,-224,-234
-73,19,92,26,-82,56,-63,-204,-156,-53,-224,-234
-78,19,97,29,-87,58,-58,-204,-156,-58,-229,-234
-82,19,102,31,-92,61,-58,-204,-151,-58,-234,-239
-78,19,97,29,-87,58,-53,-200,-151,-63,-234,-239
-68,9,78,29,-73,43,-53,-195,-156,-63,-234,-239
-68,9,78,29,-73,43,-53,-195,-161,-58,-234,-239
-68,9,78,29,-73,43,-53,-195,-161,-58,-234,-239
-73,4,78,34,-75,41,-48,-190,-161,-68,-234,-244
-78,0,78,39,-78,39,-43,-190,-161,-73,-244,-248
-82,0,82,41,-82,41,-43,-185,-161,-73,-248,-253
-82,0,82,41,-82,41,-43,-190,-161,-73,-248,-253
-73,-4,68,39,-70,31,-43,-190,-161,-73,-248,-258
-68,-9,58,39,-63,24,-48,-195,-165,-78,-253,-263
-68,-9,58,39,-63,24,-48,-195,-165,-78,-253,-263
-68,-9,58,39,-63,24,-48,-195,-165,-78,-253,-263
-68,-9,58,39,-63,24,-48,-195,-165,-82,-253,-258
-68,-9,58,39,-63,24,-48,-195,-165,-82,-253,-253
-68,-14,53,41,-61,19,-48,-195,-170,-87,-253,-253
-68,-19,48,43,-58,14,-48,-195,-170,-82,-253,-253
-68,-14,53,41,-61,19,-53,-195,-170,-87,-258,-253
-63,0,63,31,-63,31,-58,-195,-170,-92,-258,-248
-58,14,73,21,-65,43,-53,-195,-165,-82,-253,-248
-48,39,87,4,-68,63,-48,-190,-161,-73,-248,-239
-43,53,97,-4,-70,75,-43,-190,-156,-73,-234,-229
-39,68,107,-14,-73,87,-43,-190,-156,-68,-229,-229
-39,73,112,-17,-75,92,-43,-185,-156,-63,-224,-229
-34,78,112,-21,-73,95,-39,-180,-156,-63,-219,-224
-24,87,112,-31,-68,100,-48,-180,-151,-63,-214,-224
-14,97,112,-41,-63,104,-43,-180,-146,-68,-204,-219
-9,102,112,-46,-61,107,-43,-190,-141,-53,-200,-204
19,131,112,-75,-46,122,-63,-190,-131,-39,-180,-185
39,136,97,-87,-29,117,-87,-190,-131,-39,-180,-180
43,136,92,-90,-24,114,-102,-209,-146,-39,-185,-180
48,136,87,-92,-19,112,-122,-229,-165,-48,-185,-180
63,136,73,-100,-4,104,-141,-248,-185,-58,-185,-180
78,141,63,-109,7,102,-170,-278,-200,-58,-185,-175
87,151,63,-119,12,107,-180,-283,-200,-63,-185,-175
87,136,48,-112,19,92,-180,-283,-209,-63,-185,-175
73,122,48,-97,12,85,-175,-283,-209,-73,-190,-180
34,87,53,-61,-9,70,-151,-268,-209,-87,-204,-190
19,53,34,-36,-7,43,-126,-244,-200,-92,-209,-204
0,48,48,-24,-24,48,-102,-224,-190,-92,-209,-209
-9,29,39,-9,-24,34,-92,-224,-190,-92,-224,-219
-29,14,43,7,-36,29,-82,-224,-195,-107,-234,-229
-48,-14,34,31,-41,9,-82,-234,-209,-117,-244,-239
-63,-34,29,48,-46,-2,-78,-248,-224,-126,-253,-258
-78,-63,14,70,-46,-24,-78,-253,-234,-151,-278,-273
-87,-78,9,82,-48,-34,-73,-253,-239,-151,-278,-283
-87,-78,9,82,-48,-34,-63,-253,-239,-151,-278,-283
-87,-68,19,78,-53,-24,-58,-253,-239,-151,-278,-283
-82,-58,24,70,-53,-17,-53,-248,-239,-156,-278,-283
-82,-73,9,78,-46,-31,-48,-248,-239,-161,-283,-283
-82,-87,-4,85,-39,-46,-43,-248,-239,-170,-283,-287
-87,-87,0,87,-43,-43,-39,-248,-239,-170,-278,-283
-102,-107,-4,104,-48,-56,-24,-234,-239,-180,-287,-287
-117,-170,-53,143,-31,-112,39,-175,-244,-219,-326,-331
-141,-229,-87,185,-26,-158,112,-97,-224,-248,-366,-370
-141,-268,-126,204,-7,-197,190,-4,-170,-268,-375,-385
-68,-219,-151,143,41,-185,117,0,-117,-219,-331,-356
73,-58,-131,-7,102,-95,-68,-24,14,-73,-214,-263
326,170,-156,-248,241,7,-326,34,268,170,-19,-117
605,419,-185,-512,395,117,-605,156,614,468,224,53
951,766,-185,-858,568,290,-936,234,966,849,536,292
1332,1185,-146,-1259,739,519,-1273,322,1356,1249,888,580
1673,1649,-24,-1661,849,812,-1673,253,1649,1649,1244,893
1839,2088,248,-1964,795,1168,-2142,-209,1639,1922,1546,1176
1771,2283,512,-2027,629,1398,-2522,-980,1244,1903,1629,1342
1410,1781,370,-1595,519,1076,-2376,-1288,595,1210,1171,1049
932,1346,414,-1139,258,880,-2069,-1751,-361,570,712,771
551,1063,512,-807,19,788,-1825,-2137,-1151,175,429,585
390,732,341,-561,24,536,-1429,-1810,-1141,-9,200,356
268,497,229,-383,19,363,-976,-1254,-834,-53,48,165
146,346,200,-246,-26,273,-614,-854,-605,-73,-43,43
73,219,146,-146,-36,183,-356,-541,-409,-82,-97,-43
4,82,78,-43,-36,80,-165,-346,-302,-122,-175,-146
-43,-48,-4,46,-19,-26,-14,-185,-214,-151,-234,-229
-82,-107,-24,95,-29,-65,68,-97,-175,-161,-263,-273
-97,-131,-34,114,-31,-82,87,-63,-165,-165,-268,-278
-107,-156,-48,131,-29,-102,107,-43,-161,-175,-278,-292
-107,-156,-48,131,-29,-102,117,-34,-156,-175,-283,-297
-107,-156,-48,131,-29,-102,136,-24,-146,-175,-283,-297
-112,-161,-48,136,-31,-104,156,-4,-136,-170,-283,-297
-112,-175,-63,143,-24,-119,185,19,-122,-165,-283,-302
-107,-175,-68,141,-19,-122,190,34,-112,-170,-283,-307
-102,-175,-73,139,-14,-124,190,48,-107,-180,-283,-307
-102,-180,-78,141,-12,-129,200,63,-92,-175,-283,-307
-97,-185,-87,141,-4,-136,204,87,-82,-170,-283,-307
-102,-185,-82,143,-9,-134,219,107,-68,-170,-287,-307
-102,-190,-87,146,-7,-139,224,122,-53,-165,-287,-307
-102,-190,-87,146,-7,-139,239,146,-39,-170,-278,-297
-102,-185,-82,143,-9,-134,253,161,-24,-175,-278,-297
-92,-180,-87,136,-2,-134,263,185,-4,-170,-273,-297
-82,-170,-87,126,2,-129,273,214,24,-165,-268,-297
-78,-170,-92,124,7,-131,292,239,43,-156,-263,-297
-78,-170,-92,124,7,-131,302,268,63,-151,-263,-297
-78,-175,-97,126,9,-136,317,307,82,-156,-258,-297
-68,-170,-102,119,17,-136,331,341,107,-156,-258,-297
-53,-170,-117,112,31,-143,356,380,141,-146,-248,-292
-43,-156,-112,100,34,-134,380,429,170,-141,-239,-292
-39,-156,-117,97,39,-136,395,478,200,-131,-234,-287
-39,-151,-112,95,36,-131,429,531,244,-117,-234,-283
-34,-146,-112,90,39,-129,473,590,283,-107,-224,-283
-24,-136,-112,80,43,-124,512,653,331,-92,-214,-278
-9,-122,-112,65,51,-117,541,717,370,-78,-204,-273
0,-117,-117,58,58,-117,575,790,414,-63,-195,-268
14,-102,-117,43,65,-109,605,863,473,-43,-185,-258
19,-92,-112,36,65,-102,644,927,527,-29,-170,-253
34,-68,-102,17,68,-85,683,995,575,-19,-165,-248
48,-48,-97,0,73,-73,712,1063,624,-9,-151,-234
58,-48,-107,-4,82,-78,741,1132,673,9,-146,-224
73,-39,-112,-17,92,-75,775,1200,727,34,-131,-219
92,-19,-112,-36,102,-65,790,1259,771,58,-107,-209
107,4,-102,-56,104,-48,805,1302,805,82,-87,-195
117,29,-87,-73,102,-29,810,1337,829,102,-73,-185
131,58,-73,-95,102,-7,810,1356,858,112,-58,-175
141,73,-68,-107,104,2,805,1356,868,126,-43,-165
161,92,-68,-126,114,12,790,1351,863,146,-29,-151
170,107,-63,-139,117,21,761,1337,858,156,-14,-141
185,122,-63,-153,124,29,727,1278,844,170,0,-131
190,136,-53,-163,122,41,678,1210,810,175,4,-117
195,156,-39,-175,117,58,610,1112,761,175,19,-102
200,170,-29,-185,114,70,536,985,692,175,24,-82
200,180,-19,-190,109,80,463,854,610,170,24,-73
190,175,-14,-183,102,80,380,712,517,156,19,-73
170,161,-9,-165,90,75,307,580,429,126,9,-78
170,156,-14,-163,92,70,248,448,331,102,-4,-82
165,126,-39,-146,102,43,190,326,248,68,-29,-97
146,97,-48,-122,97,24,146,219,180,39,-48,-102
126,68,-58,-97,92,4,117,141,112,0,-73,-112
112,43,-68,-78,90,-12,82,58,43,-14,-92,-126
92,14,-78,-53,85,-31,58,-9,-4,-39,-112,-146
68,-9,-78,-29,73,-43,39,-53,-43,-68,-122,-156
53,-24,-78,-14,65,-51,19,-87,-73,-82,-126,-161
39,-39,-78,0,58,-58,14,-122,-97,-92,-136,-165
29,-43,-73,7,51,-58,9,-141,-112,-112,-146,-170
19,-58,-78,19,48,-68,9,-165,-122,-122,-161,-170
14,-63,-78,24,46,-70,-4,-180,-136,-126,-170,-185
4,-78,-82,36,43,-80,-4,-180,-151,-131,-175,-185
0,-92,-92,46,46,-92,-4,-190,-165,-151,-180,-185
0,-97,-97,48,48,-97,-4,-195,-170,-165,-180,-185
-4,-97,-92,51,43,-95,-4,-204,-170,-170,-180,-185
-4,-97,-92,51,43,-95,-4,-204,-170,-175,-175,-195
-4,-97,-92,51,43,-95,-4,-204,-170,-180,-175,-195
-9,-112,-102,61,46,-107,-4,-204,-175,-180,-180,-190
-9,-117,-107,63,48,-112,-4,-204,-180,-190,-185,-190
-9,-117,-107,63,48,-112,0,-204,-180,-190,-185,-190
-9,-117,-107,63,48,-112,4,-204,-180,-195,-185,-190
-9,-117,-107,63,48,-112,4,-204,-180,-204,-190,-195
-9,-117,-107,63,48,-112,0,-204,-180,-219,-195,-195
-14,-122,-107,68,46,-114,0,-204,-175,-219,-195,-200
-14,-126,-112,70,48,-119,9,-204,-175,-219,-200,-200
-9,-126,-117,68,53,-122,9,-204,-175,-219,-200,-195
-9,-126,-117,68,53,-122,14,-200,-175,-219,-195,-195
-14,-126,-112,70,48,-119,14,-200,-175,-229,-195,-195
-19,-126,-107,73,43,-117,19,-204,-175,-244,-195,-195
-24,-126,-102,75,39,-114,24,-204,-170,-248,-195,-200
-24,-126,-102,75,39,-114,29,-200,-170,-253,-195,-200
-19,-131,-112,75,46,-122,24,-195,-180,-253,-195,-204
-19,-126,-107,73,43,-117,24,-195,-185,-253,-195,-209
-24,-126,-102,75,39,-114,24,-195,-180,-253,-195,-209
-29,-136,-107,82,39,-122,24,-190,-180,-258,-200,-209
-29,-146,-117,87,43,-131,19,-190,-180,-258,-195,-204
-29,-156,-126,92,48,-141,19,-195,-185,-263,-195,-204
-29,-156,-126,92,48,-141,19,-195,-185,-273,-195,-204
-29,-156,-126,92,48,-141,19,-195,-185,-283,-195,-204
-29,-156,-126,92,48,-141,9,-195,-185,-283,-200,-204
-29,-156,-126,92,48,-141,9,-195,-185,-283,-200,-204
-29,-156,-126,92,48,-141,9,-200,-190,-287,-204,-209
-29,-156,-126,92,48,-141,19,-204,-190,-287,-204,-214
-29,-161,-131,95,51,-146,19,-204,-190,-292,-204,-214
-24,-156,-131,90,53,-143,19,-204,-190,-297,-200,-209
-24,-146,-122,85,48,-134,24,-204,-190,-287,-204,-209
-19,-126,-107,73,43,-117,29,-200,-190,-278,-209,-200
-14,-117,-102,65,43,-109,34,-200,-185,-278,-190,-190
-9,-107,-97,58,43,-102,34,-200,-185,-273,-180,-190
-9,-102,-92,56,41,-97,29,-200,-185,-268,-180,-190
-4,-97,-92,51,43,-95,29,-200,-185,-268,-180,-185
4,-87,-92,41,48,-90,19,-200,-180,-268,-170,-175
14,-78,-92,31,53,-85,24,-200,-175,-273,-156,-161
19,-63,-82,21,51,-73,29,-209,-170,-258,-146,-146
48,-24,-73,-12,61,-48,14,-209,-161,-244,-122,-126
63,-14,-78,-24,70,-46,-4,-204,-156,-244,-122,-122
63,-9,-73,-26,68,-41,-14,-219,-165,-244,-126,-122
68,-9,-78,-29,73,-43,-34,-234,-180,-248,-131,-122
82,-9,-92,-36,87,-51,-53,-248,-195,-253,-136,-122
97,-4,-102,-46,100,-53,-87,-273,-209,-263,-136,-112
107,4,-102,-56,104,-48,-102,-273,-209,-278,-136,-107
112,-4,-117,-53,114,-61,-112,-283,-224,-278,-136,-107
102,-14,-117,-43,109,-65,-117,-292,-229,-287,-141,-112
63,-48,-112,-7,87,-80,-82,-283,-234,-302,-151,-117
48,-82,-131,17,90,-107,-48,-263,-229,-307,-151,-126
29,-87,-117,29,73,-102,-24,-244,-219,-307,-151,-131
19,-107,-126,43,73,-117,-14,-244,-219,-307,-165,-141
0,-122,-122,61,61,-122,-4,-244,-224,-322,-180,-151
-19,-151,-131,85,56,-141,-4,-253,-239,-331,-195,-161
-34,-165,-131,100,48,-148,0,-263,-253,-341,-204,-180
-48,-190,-141,119,46,-165,0,-263,-263,-366,-229,-195
-63,-209,-146,136,41,-178,0,-263,-268,-370,-229,-204
-68,-214,-146,141,39,-180,4,-263,-268,-375,-229,-204
-73,-214,-141,143,34,-178,9,-263,-268,-375,-229,-204
-73,-214,-141,143,34,-178,14,-258,-268,-380,-229,-204
-73,-219,-146,146,36,-183,14,-258,-268,-380,-234,-204
-73,-224,-151,148,39,-187,14,-258,-268,-385,-234,-209
-78,-204,-126,141,24,-165,0,-268,-268,-375,-224,-204
-92,-204,-112,148,9,-158,-4,-263,-268,-375,-229,-209
-112,-278,-165,195,26,-222,48,-224,-292,-424,-268,-253
-141,-346,-204,244,31,-275,112,-165,-292,-463,-307,-292
-185,-429,-244,307,29,-336,283,-29,-248,-517,-356,-336
-156,-424,-268,290,56,-346,302,19,-204,-502,-351,-336
-68,-312,-244,190,87,-278,165,-24,-141,-400,-268,-263
131,-131,-263,0,197,-197,-43,14,43,-200,-107,-136
385,87,-297,-236,341,-104,-292,117,366,68,97,0
707,405,-302,-556,505,51,-595,175,692,419,370,204
1107,824,-283,-966,695,270,-893,366,1156,844,746,492
1468,1288,-180,-1378,824,553,-1254,400,1522,1268,1127,805
1790,1952,161,-1871,814,1056,-1839,29,1722,1781,1605,1220
1878,2371,492,-2125,692,1432,-2337,-649,1537,2000,1864,1517
1561,1908,346,-1734,607,1127,-2293,-951,1015,1337,1444,1268
1127,1512,385,-1320,370,949,-2088,-1410,185,727,1024,1034
668,1200,531,-934,68,866,-1917,-2103,-946,219,692,839
429,839,409,-634,9,624,-1595,-2083,-1278,-78,414,600
302,551,248,-427,26,400,-1112,-1483,-971,-170,214,370
175,346,170,-261,2,258,-722,-1039,-741,-239,73,209
102,204,102,-153,0,153,-429,-683,-522,-248,14,107
34,53,19,-43,7,36,-204,-444,-390,-287,-68,-9
-19,-112,-92,65,36,-102,-14,-248,-278,-322,-146,-112
-63,-204,-141,134,39,-173,107,-126,-214,-336,-195,-175
-82,-234,-151,158,34,-192,126,-82,-200,-351,-209,-190
-97,-263,-165,180,34,-214,146,-53,-190,-370,-229,-214
-102,-263,-161,183,29,-212,151,-39,-185,-370,-234,-219
-107,-263,-156,185,24,-209,165,-24,-175,-370,-234,-219
-112,-268,-156,190,21,-212,175,-4,-165,-366,-239,-219
-112,-283,-170,197,29,-226,195,19,-151,-361,-244,-224
-107,-283,-175,195,34,-229,209,29,-141,-361,-244,-234
-102,-283,-180,192,39,-231,219,39,-136,-366,-244,-239
-102,-283,-180,192,39,-231,229,48,-126,-361,-244,-239
-97,-283,-185,190,43,-234,234,68,-122,-356,-244,-239
-97,-278,-180,187,41,-229,248,82,-107,-351,-244,-234
-92,-278,-185,185,46,-231,253,92,-92,-341,-239,-229
-92,-283,-190,187,48,-236,258,117,-82,-341,-229,-219
-92,-283,-190,187,48,-236,263,131,-73,-341,-229,-219
-87,-283,-195,185,53,-239,273,156,-58,-336,-229,-219
-82,-278,-195,180,56,-236,283,185,-34,-331,-229,-219
-78,-278,-200,178,61,-239,302,209,-14,-322,-224,-219
-78,-278,-200,178,61,-239,312,239,4,-317,-224,-219
-78,-278,-200,178,61,-239,326,273,24,-317,-219,-214
-68,-268,-200,168,65,-234,341,302,48,-312,-219,-209
-58,-268,-209,163,75,-239,370,336,82,-297,-209,-204
-53,-253,-200,153,73,-226,400,380,112,-287,-200,-204
-48,-253,-204,151,78,-229,400,429,136,-283,-195,-204
-48,-248,-200,148,75,-224,419,483,175,-273,-195,-204
-43,-244,-200,143,78,-222,453,527,209,-263,-185,-204
-34,-234,-200,134,82,-217,483,575,253,-248,-175,-200
-19,-219,-200,119,90,-209,522,634,287,-234,-165,-195
-9,-214,-204,112,97,-209,566,702,326,-219,-156,-190
0,-200,-200,100,100,-200,595,771,385,-200,-146,-185
0,-190,-190,95,95,-190,634,829,439,-185,-131,-185
14,-161,-175,73,95,-168,668,902,488,-161,-122,-180
29,-136,-165,53,97,-151,692,976,536,-136,-102,-165
39,-126,-165,43,102,-146,712,1039,585,-117,-97,-156
53,-107,-161,26,107,-134,736,1102,639,-92,-82,-151
63,-97,-161,17,112,-129,761,1156,683,-73,-63,-136
68,-82,-151,7,109,-117,785,1195,717,-53,-48,-117
78,-63,-141,-7,109,-102,795,1239,741,-34,-29,-102
92,-39,-131,-26,112,-85,800,1268,771,-24,-9,-87
102,-24,-126,-39,114,-75,810,1283,790,-9,4,-78
122,-4,-126,-58,124,-65,810,1293,795,9,19,-63
126,14,-112,-70,119,-48,785,1298,800,19,29,-53
136,34,-102,-85,119,-34,756,1259,795,34,39,-43
141,48,-92,-95,117,-21,722,1205,771,39,43,-34
146,68,-78,-107,112,-4,668,1122,732,39,58,-24
151,82,-68,-117,109,7,610,1010,678,39,68,-4
151,92,-58,-122,104,17,551,893,610,34,73,4
156,102,-53,-129,104,24,468,751,517,29,73,19
151,102,-48,-126,100,26,395,619,429,9,68,29
141,97,-43,-119,92,26,326,488,326,-9,58,34
126,68,-58,-97,92,4,258,366,239,-39,39,29
107,48,-58,-78,82,-4,204,253,170,-68,19,24
87,29,-58,-58,73,-14,165,170,102,-107,-4,14
73,4,-68,-39,70,-31,131,82,34,-126,-24,0
53,-24,-78,-14,65,-51,107,9,-14,-156,-43,-19
29,-48,-78,9,53,-63,87,-34,-53,-190,-58,-29
14,-63,-78,24,46,-70,68,-68,-82,-209,-68,-34
0,-82,-82,41,41,-82,53,-107,-117,-219,-78,-43
-9,-92,-82,51,36,-87,39,-131,-141,-239,-87,-53
-19,-107,-87,63,34,-97,34,-151,-151,-253,-102,-53
-24,-112,-87,68,31,-100,14,-161,-165,-263,-112,-68
-34,-126,-92,80,29,-109,14,-165,-175,-263,-117,-73
-39,-141,-102,90,31,-122,14,-180,-185,-278,-122,-78
-39,-146,-107,92,34,-126,24,-185,-200,-292,-122,-78
-43,-146,-102,95,29,-124,34,-195,-209,-297,-122,-78
-43,-146,-102,95,29,-124,34,-195,-209,-297,-122,-82
-43,-146,-102,95,29,-124,34,-195,-209,-297,-126,-78
-48,-161,-112,104,31,-136,24,-200,-214,-297,-131,-73
-48,-165,-117,107,34,-141,14,-204,-219,-307,-136,-73
-48,-165,-117,107,34,-141,24,-204,-219,-307,-136,-73
-48,-165,-117,107,34,-141,34,-204,-219,-312,-136,-73
-48,-161,-112,104,31,-136,34,-209,-219,-307,-136,-73
-48,-156,-107,102,29,-131,29,-214,-219,-307,-136,-68
-53,-161,-107,107,26,-134,29,-214,-214,-307,-131,-73
-53,-165,-112,109,29,-139,39,-214,-214,-307,-131,-73
-48,-165,-117,107,34,-141,39,-214,-214,-307,-131,-68
-48,-165,-117,107,34,-141,43,-209,-214,-307,-126,-68
-48,-165,-117,107,34,-141,43,-204,-214,-307,-126,-73
-48,-165,-117,107,34,-141,48,-204,-214,-312,-126,-78
-53,-165,-112,109,29,-139,48,-204,-209,-307,-126,-82
-53,-165,-112,109,29,-139,48,-200,-209,-302,-126,-82
-48,-170,-122,109,36,-146,39,-195,-214,-297,-131,-82
-48,-165,-117,107,34,-141,34,-195,-214,-292,-136,-82
-48,-165,-117,107,34,-141,34,-200,-209,-292,-136,-82
-48,-170,-122,109,36,-146,34,-200,-209,-297,-136,-82
-48,-175,-126,112,39,-151,34,-200,-209,-297,-141,-78
-53,-175,-122,114,34,-148,34,-195,-209,-297,-141,-78
-53,-175,-122,114,34,-148,34,-200,-214,-297,-141,-73
-53,-180,-126,117,36,-153,39,-204,-219,-302,-146,-73
-53,-175,-122,114,34,-148,39,-209,-219,-307,-151,-73
-58,-175,-117,117,29,-146,39,-214,-224,-312,-156,-78
-58,-175,-117,117,29,-146,39,-214,-224,-312,-156,-78
-58,-175,-117,117,29,-146,39,-214,-224,-312,-156,-78
-58,-175,-117,117,29,-146,34,-214,-224,-312,-151,-78
-58,-175,-117,117,29,-146,29,-219,-224,-307,-146,-78
-58,-175,-117,117,29,-146,29,-224,-229,-307,-146,-78
-58,-170,-112,114,26,-141,29,-224,-229,-307,-146,-78
-53,-156,-102,104,24,-129,29,-229,-229,-307,-141,-68
-53,-146,-92,100,19,-119,34,-234,-224,-297,-136,-63
-48,-126,-78,87,14,-102,39,-234,-219,-287,-131,-53
-43,-117,-73,80,14,-95,43,-239,-214,-287,-122,-43
-34,-107,-73,70,19,-90,39,-239,-219,-283,-117,-43
-29,-102,-73,65,21,-87,29,-239,-224,-278,-112,-43
-24,-97,-73,61,24,-85,24,-239,-224,-278,-112,-43
-14,-87,-73,51,29,-80,4,-239,-219,-273,-107,-48
-4,-78,-73,41,34,-75,4,-239,-214,-273,-97,-43
0,-63,-63,31,31,-63,4,-248,-209,-258,-87,-29
19,-19,-39,0,29,-29,-14,-253,-200,-244,-68,-9
24,-9,-34,-7,29,-21,-34,-258,-200,-244,-73,-4
34,-9,-43,-12,39,-26,-43,-278,-214,-244,-78,0
48,-9,-58,-19,53,-34,-63,-292,-229,-248,-78,4
63,-9,-73,-26,68,-41,-82,-312,-248,-253,-78,4
78,-4,-82,-36,80,-43,-107,-341,-268,-253,-78,9
78,4,-73,-41,75,-34,-102,-341,-268,-258,-78,9
68,-9,-78,-29,73,-43,-92,-341,-278,-258,-78,9
53,-24,-78,-14,65,-51,-87,-341,-273,-273,-82,0
14,-58,-73,21,43,-65,-63,-331,-268,-287,-97,-14
0,-92,-92,46,46,-92,-43,-312,-258,-287,-102,-29
-19,-97,-78,58,29,-87,-24,-292,-248,-287,-102,-34
-29,-117,-87,73,29,-102,-19,-292,-253,-287,-117,-43
-48,-131,-82,90,17,-107,-14,-292,-263,-302,-126,-53
-68,-161,-92,114,12,-126,-14,-307,-278,-312,-136,-63
-82,-175,-92,129,4,-134,-9,-322,-292,-322,-146,-78
-97,-195,-97,146,0,-146,-14,-322,-302,-341,-170,-87
-107,-204,-97,156,-4,-151,-19,-322,-307,-336,-170,-97
-102,-204,-102,153,0,-153,-14,-331,-307,-336,-170,-97
-102,-204,-102,153,0,-153,-9,-341,-307,-336,-170,-97
-102,-209,-107,156,2,-158,0,-336,-307,-341,-170,-97
-102,-219,-117,161,7,-168,4,-336,-307,-341,-175,-97
-102,-224,-122,163,9,-173,4,-331,-307,-346,-175,-102
-107,-224,-117,165,4,-170,9,-326,-307,-346,-175,-102
-131,-253,-122,192,-4,-187,34,-312,-307,-351,-185,-112
-156,-326,-170,241,7,-248,107,-253,-307,-385,-219,-156
-165,-361,-195,263,14,-278,156,-185,-278,-405,-253,-185
-151,-356,-204,253,26,-280,209,-97,-204,-395,-248,-185
-58,-268,-209,163,75,-239,122,-78,-102,-292,-165,-136
107,-87,-195,-9,151,-141,-73,-82,68,-97,-9,-14
366,175,-190,-270,278,-7,-326,-14,346,180,219,165
644,473,-170,-558,407,151,-605,87,712,512,497,366
971,854,-117,-912,544,368,-936,117,1034,917,834,629
1302,1293,-9,-1298,656,641,-1273,141,1366,1317,1200,922
1566,1717,151,-1642,707,934,-1654,14,1556,1649,1507,1205
1664,2098,434,-1881,614,1266,-2078,-453,1444,1830,1737,1454
1537,2210,673,-1873,431,1442,-2371,-1180,961,1727,1751,1561
1137,1644,507,-1390,314,1076,-2161,-1439,268,985,1249,1224
697,1220,522,-958,87,871,-1844,-1800,-546,375,805,946
380,946,566,-663,-92,756,-1590,-2069,-1166,39,546,761
263,614,351,-439,-43,483,-1220,-1703,-1102,-117,326,527
165,375,209,-270,-21,292,-800,-1176,-795,-180,165,326
58,209,151,-134,-46,180,-468,-839,-595,-219,63,200
4,73,68,-39,-31,70,-244,-570,-429,-229,9,112
-43,-48,-4,46,-19,-26,-87,-409,-341,-268,-63,19
-82,-161,-78,122,-2,-119,39,-283,-263,-297,-117,-53
-122,-214,-92,168,-14,-153,107,-214,-229,-307,-146,-97
-131,-234,-102,183,-14,-168,117,-190,-224,-317,-156,-102
-131,-253,-122,192,-4,-187,136,-170,-219,-331,-165,-117
-126,-253,-126,190,0,-190,141,-156,-214,-331,-165,-122
-126,-253,-126,190,0,-190,156,-141,-204,-331,-165,-122
-131,-258,-126,195,-2,-192,161,-122,-195,-326,-165,-122
-136,-273,-136,204,0,-204,170,-97,-180,-322,-165,-117
-141,-273,-131,207,-4,-202,180,-87,-170,-317,-165,-112
-141,-273,-131,207,-4,-202,190,-78,-165,-317,-165,-112
-141,-273,-131,207,-4,-202,200,-63,-151,-312,-165,-112
-136,-273,-136,204,0,-204,204,-43,-146,-312,-165,-117
-136,-268,-131,202,-2,-200,219,-29,-136,-312,-165,-122
-131,-268,-136,200,2,-202,224,-14,-122,-302,-161,-122
-131,-268,-136,200,2,-202,234,9,-107,-302,-151,-112
-131,-263,-131,197,0,-197,244,24,-92,-302,-146,-112
-126,-263,-136,195,4,-200,253,48,-78,-297,-141,-112
-122,-258,-136,190,7,-197,263,73,-53,-292,-141,-117
-117,-258,-141,187,12,-200,283,92,-34,-283,-136,-122
-117,-258,-141,187,12,-200,292,122,-14,-278,-136,-122
-117,-258,-141,187,12,-200,307,156,4,-273,-126,-122
-107,-248,-141,178,17,-195,322,185,29,-263,-122,-122
-97,-248,-151,173,26,-200,351,224,63,-248,-112,-117
-92,-234,-141,163,24,-187,380,273,92,-239,-102,-117
-87,-229,-141,158,26,-185,395,322,122,-229,-97,-112
-87,-219,-131,153,21,-175,429,375,165,-214,-97,-102
-82,-214,-131,148,24,-173,463,429,204,-204,-87,-97
-73,-200,-126,136,26,-163,488,483,253,-190,-78,-92
-58,-180,-122,119,31,-151,512,536,292,-175,-68,-87
-48,-175,-126,112,39,-151,546,600,336,-161,-58,-82
-39,-161,-122,100,41,-141,575,668,395,-141,-48,-73
-43,-151,-107,97,31,-129,614,732,444,-126,-34,-68
-34,-126,-92,80,29,-109,649,805,488,-107,-24,-63
-19,-107,-87,63,34,-97,668,863,536,-82,-4,-48
-9,-97,-87,53,39,-92,692,917,585,-58,0,-39
4,-78,-82,36,43,-80,727,980,629,-34,14,-34
19,-58,-78,19,48,-68,741,1029,663,-14,34,-24
29,-34,-63,2,46,-48,751,1058,697,4,48,-9
39,-14,-53,-12,46,-34,751,1083,722,24,63,0
53,9,-43,-31,48,-17,751,1102,746,34,78,9
63,24,-39,-43,51,-7,751,1107,756,48,92,19
78,39,-39,-58,58,0,736,1098,751,68,107,34
82,53,-29,-68,56,12,707,1073,741,78,117,43
92,73,-19,-82,56,26,678,1015,722,92,126,53
92,87,-4,-90,48,41,629,946,683,97,131,63
97,107,9,-102,43,58,546,854,634,97,146,73
102,122,19,-112,41,70,463,741,566,97,151,92
102,131,29,-117,36,80,405,624,488,92,151,102
102,131,29,-117,36,80,331,488,400,82,151,107
97,122,24,-109,36,73,263,370,317,58,146,107
92,117,24,-104,34,70,209,258,224,34,131,102
78,87,9,-82,34,48,161,141,141,-4,107,87
58,63,4,-61,26,34,117,34,73,-39,87,78
39,39,0,-39,19,19,82,-29,14,-78,63,63
24,14,-9,-19,17,2,53,-92,-43,-97,43,48
4,-9,-14,2,9,-12,29,-151,-87,-141,19,29
-14,-29,-14,21,0,-21,9,-190,-122,-190,0,19
-24,-43,-19,34,-2,-31,-9,-219,-151,-219,-9,14
-39,-63,-24,51,-7,-43,-14,-248,-180,-239,-19,4
-48,-73,-24,61,-12,-48,-14,-263,-195,-268,-19,-4
-58,-87,-29,73,-14,-58,-9,-278,-200,-283,-24,-4
-68,-97,-29,82,-19,-63,-24,-287,-214,-283,-34,-19
-82,-112,-29,97,-26,-70,-24,-287,-224,-283,-34,-19
-87,-122,-34,104,-26,-78,-24,-302,-234,-297,-39,-24
-87,-122,-34,104,-26,-78,-24,-312,-239,-312,-43,-29
-92,-117,-24,104,-34,-70,-24,-322,-239,-317,-43,-29
-92,-117,-24,104,-34,-70,-24,-322,-239,-317,-43,-39
-92,-117,-24,104,-34,-70,-24,-317,-239,-317,-43,-39
-97,-126,-29,112,-34,-78,-24,-317,-244,-317,-43,-34
-97,-122,-24,109,-36,-73,-29,-317,-248,-317,-43,-29
-97,-117,-19,107,-39,-68,-34,-312,-248,-307,-39,-24
-97,-117,-19,107,-39,-68,-34,-312,-248,-307,-39,-24
-97,-117,-19,107,-39,-68,-34,-312,-248,-307,-39,-29
-97,-126,-29,112,-34,-78,-29,-312,-248,-317,-39,-29
-102,-141,-39,122,-31,-90,-19,-312,-244,-317,-39,-34
-97,-136,-39,117,-29,-87,-9,-312,-244,-317,-43,-34
-87,-126,-39,107,-24,-82,-9,-312,-244,-317,-43,-29
-87,-126,-39,107,-24,-82,-9,-307,-244,-317,-39,-29
-92,-126,-34,109,-29,-80,-14,-302,-244,-317,-39,-29
-97,-126,-29,112,-34,-78,-9,-297,-244,-322,-39,-29
-102,-126,-24,114,-39,-75,-9,-292,-239,-322,-39,-34
-102,-126,-24,114,-39,-75,-9,-287,-234,-326,-43,-39
-97,-136,-39,117,-29,-87,-14,-283,-234,-326,-48,-43
-97,-136,-39,117,-29,-87,-14,-283,-234,-322,-48,-43
-97,-136,-39,117,-29,-87,-14,-283,-229,-322,-48,-43
-97,-141,-43,119,-26,-92,-14,-278,-229,-326,-43,-39
-97,-146,-48,122,-24,-97,-14,-278,-229,-326,-53,-39
-97,-151,-53,124,-21,-102,-14,-278,-234,-322,-48,-39
-97,-156,-58,126,-19,-107,-19,-283,-244,-322,-48,-39
-97,-156,-58,126,-19,-107,-19,-283,-244,-322,-48,-39
-97,-156,-58,126,-19,-107,-19,-283,-244,-322,-48,-39
-97,-151,-53,124,-21,-102,-19,-278,-239,-322,-43,-39
-97,-146,-48,122,-24,-97,-19,-278,-239,-322,-39,-39
-102,-146,-43,124,-29,-95,-19,-278,-239,-326,-39,-39
-107,-146,-39,126,-34,-92,-19,-283,-239,-326,-39,-39
-107,-146,-39,126,-34,-92,-24,-283,-239,-326,-39,-39
-102,-136,-34,119,-34,-85,-29,-283,-239,-326,-34,-34
-102,-126,-24,114,-39,-75,-24,-283,-234,-317,-29,-34
-97,-107,-9,102,-43,-58,-19,-278,-229,-307,-24,-24
-92,-97,-4,95,-43,-51,-9,-283,-229,-312,-14,-14
-87,-87,0,87,-43,-43,-4,-287,-234,-312,-14,-14
-87,-82,4,85,-46,-39,-9,-287,-234,-307,-14,-14
-82,-78,4,80,-43,-36,-9,-287,-234,-307,-14,-9
-73,-68,4,70,-39,-31,-34,-287,-229,-302,-9,-9
-63,-58,4,61,-34,-26,-43,-287,-224,-302,0,-4
-68,-48,19,58,-43,-14,-43,-292,-219,-283,9,9
-48,-14,34,31,-41,9,-63,-287,-209,-263,34,29
-34,-9,24,21,-29,7,-78,-287,-209,-263,43,34
-34,-9,24,21,-29,7,-82,-307,-224,-263,48,34
-24,-4,19,14,-21,7,-102,-322,-239,-268,39,34
-4,0,4,2,-4,2,-122,-336,-253,-273,29,34
9,4,-4,-7,7,0,-146,-356,-268,-263,29,39
19,14,-4,-17,12,4,-151,-351,-268,-258,29,39
19,0,-19,-9,19,-9,-151,-351,-278,-258,34,43
4,-14,-19,4,12,-17,-146,-351,-278,-268,34,43
-34,-48,-14,41,-9,-31,-126,-346,-278,-278,19,34
-48,-82,-34,65,-7,-58,-107,-331,-268,-278,14,19
-68,-87,-19,78,-24,-53,-82,-312,-258,-278,14,14
-78,-107,-29,92,-24,-68,-73,-312,-258,-278,0,4
-97,-122,-24,109,-36,-73,-63,-312,-263,-292,-9,-9
-117,-151,-34,134,-41,-92,-63,-322,-278,-302,-19,-24
-136,-165,-29,151,-53,-97,-53,-331,-297,-312,-29,-39
-156,-190,-34,173,-61,-112,-48,-331,-312,-336,-53,-48
-165,-204,-39,185,-63,-122,-48,-331,-317,-336,-53,-58
-165,-204,-39,185,-63,-122,-43,-331,-317,-336,-53,-58
-165,-204,-39,185,-63,-122,-39,-331,-317,-326,-53,-53
-161,-204,-43,183,-58,-124,-34,-326,-317,-322,-53,-48
-156,-204,-48,180,-53,-126,-34,-326,-317,-317,-58,-48
-151,-204,-53,178,-48,-129,-34,-326,-317,-317,-58,-53
-156,-204,-48,180,-53,-126,-39,-331,-317,-317,-58,-53
-170,-224,-53,197,-58,-139,-34,-322,-317,-326,-73,-63
-190,-292,-102,241,-43,-197,29,-273,-326,-366,-112,-112
-219,-356,-136,287,-41,-246,102,-204,-312,-395,-151,-156
-234,-385,-151,309,-41,-268,185,-97,-248,-405,-156,-165
-175,-326,-151,251,-12,-239,117,-78,-185,-346,-107,-131
-48,-165,-117,107,34,-141,-58,-92,-48,-185,19,-34
190,63,-126,-126,158,-31,-307,-24,209,73,224,117
463,326,-136,-395,300,95,-561,92,566,390,478,297
805,688,-117,-746,461,285,-868,165,927,790,800,546
1156,1117,-39,-1137,597,539,-1190,268,1322,1215,1166,839
1468,1590,122,-1529,673,856,-1576,214,1620,1639,1537,1156
1654,2064,409,-1859,622,1237,-2044,-229,1615,1942,1859,1464
1605,2293,688,-1949,458,1490,-2425,-980,1224,1952,1961,1654
1244,1781,536,-1512,353,1159,-2298,-1268,590,1244,1493,1351
766,1337,570,-1051,97,954,-2010,-1712,-351,590,1024,1063
405,1044,639,-724,-117,841,-1786,-2108,-1156,180,736,878
263,702,439,-483,-87,570,-1410,-1790,-1161,-19,502,649
146,439,292,-292,-73,366,-956,-1263,-868,-102,322,429
29,258,229,-143,-100,244,-595,-893,-653,-161,200,278
-34,126,161,-46,-97,143,-346,-590,-468,-170,146,190
-92,-14,78,53,-85,31,-165,-405,-370,-209,68,87
-146,-146,0,146,-73,-73,-19,-253,-283,-239,0,-4
-190,-204,-14,197,-87,-109,58,-175,-244,-248,-39,-58
-200,-229,-29,214,-85,-129,82,-141,-234,-258,-48,-63
-204,-253,-48,229,-78,-151,107,-122,-229,-273,-63,-78
-200,-253,-53,226,-73,-153,112,-107,-224,-273,-68,-82
-195,-253,-58,224,-68,-156,126,-92,-214,-273,-68,-82
-200,-258,-58,229,-70,-158,131,-68,-200,-268,-63,-82
-200,-273,-73,236,-63,-173,146,-39,-180,-263,-58,-87
-200,-273,-73,236,-63,-173,156,-29,-170,-253,-53,-92
-200,-273,-73,236,-63,-173,161,-19,-165,-248,-48,-92
-204,-278,-73,241,-65,-175,170,-4,-156,-244,-48,-92
-204,-283,-78,244,-63,-180,175,19,-151,-239,-48,-92
-204,-278,-73,241,-65,-175,200,39,-136,-234,-53,-92
-200,-278,-78,239,-61,-178,214,53,-122,-224,-53,-92
-200,-273,-73,236,-63,-173,224,78,-107,-219,-48,-82
-200,-263,-63,231,-68,-163,234,92,-92,-214,-53,-82
-195,-258,-63,226,-65,-161,234,112,-78,-209,-53,-87
-190,-248,-58,219,-65,-153,234,136,-53,-204,-53,-92
-185,-248,-63,217,-61,-156,253,161,-34,-195,-48,-92
-185,-248,-63,217,-61,-156,263,190,-14,-190,-48,-92
-185,-248,-63,217,-61,-156,278,224,4,-185,-43,-92
-175,-239,-63,207,-56,-151,292,253,29,-175,-43,-92
-165,-244,-78,204,-43,-161,326,292,63,-146,-34,-87
-161,-234,-73,197,-43,-153,361,341,92,-122,-24,-87
-161,-229,-68,195,-46,-148,375,390,122,-107,-14,-78
-165,-219,-53,192,-56,-136,409,444,165,-87,-9,-68
-161,-214,-53,187,-53,-134,444,497,204,-73,0,-68
-151,-204,-53,178,-48,-129,473,556,253,-53,9,-63
-136,-190,-53,163,-41,-122,507,614,287,-39,19,-63
-126,-185,-58,156,-34,-122,546,683,326,-24,29,-63
-117,-170,-53,143,-31,-112,575,756,385,0,39,-53
-117,-161,-43,139,-36,-102,614,819,439,19,53,-48
-107,-136,-29,122,-39,-82,649,888,488,39,68,-43
-97,-117,-19,107,-39,-68,673,956,536,58,92,-29
-87,-107,-19,97,-34,-63,697,1019,580,78,97,-19
-73,-87,-14,80,-29,-51,727,1083,629,102,112,-14
-53,-68,-14,61,-19,-41,741,1137,673,122,126,-4
-39,-43,-4,41,-17,-24,756,1176,707,141,136,9
-29,-24,4,26,-17,-9,761,1210,732,165,151,19
-14,0,14,7,-14,7,761,1229,761,180,165,29
-9,14,24,-2,-17,19,761,1234,775,195,180,39
4,34,29,-19,-12,31,751,1234,775,214,195,53
14,53,39,-34,-12,46,722,1224,771,224,204,63
29,73,43,-51,-7,58,688,1171,756,239,214,73
29,82,53,-56,-12,68,639,1102,722,248,219,82
29,97,68,-63,-19,82,570,1005,673,253,234,92
34,112,78,-73,-21,95,502,888,605,253,239,112
34,122,87,-78,-26,104,434,766,522,248,239,122
34,122,87,-78,-26,104,351,629,429,239,239,131
24,112,87,-68,-31,100,278,502,341,214,234,136
14,107,92,-61,-39,100,219,385,248,190,219,131
0,78,78,-39,-39,78,161,278,170,156,195,117
-19,53,73,-17,-46,63,107,180,107,136,190,107
-39,29,68,4,-53,48,68,112,43,107,180,92
-48,4,53,21,-51,29,34,34,-19,87,151,78
-63,-24,39,43,-51,7,9,-29,-63,58,122,58
-78,-43,34,61,-56,-4,-4,-73,-102,24,107,48
-82,-53,29,68,-56,-12,-19,-107,-131,4,97,43
-97,-73,24,85,-61,-24,-24,-141,-161,-4,87,34
-107,-82,24,95,-65,-29,-29,-161,-180,-24,78,24
-117,-97,19,107,-68,-39,-29,-180,-190,-29,68,24
-122,-102,19,112,-70,-41,-43,-190,-204,-29,63,9
-136,-107,29,122,-82,-39,-48,-190,-214,-14,63,9
-146,-112,34,129,-90,-39,-53,-200,-224,-14,63,9
-151,-112,39,131,-95,-36,-53,-200,-229,-29,63,9
-161,-107,53,134,-107,-26,-53,-204,-229,-34,63,9
-161,-112,48,136,-104,-31,-48,-204,-234,-34,63,0
-161,-117,43,139,-102,-36,-43,-204,-239,-34,58,0
-161,-126,34,143,-97,-46,-39,-209,-244,-34,58,4
-156,-126,29,141,-92,-48,-34,-214,-248,-43,58,4
-156,-126,29,141,-92,-48,-34,-214,-244,-39,58,9
-156,-126,29,141,-92,-48,-34,-214,-239,-39,58,14
-156,-122,34,139,-95,-43,-34,-209,-239,-39,58,9
-156,-117,39,136,-97,-39,-39,-204,-239,-43,58,9
-161,-122,39,141,-100,-41,-43,-200,-234,-39,58,4
-161,-126,34,143,-97,-46,-39,-195,-234,-34,53,4
-156,-131,24,143,-90,-53,-39,-195,-234,-34,58,9
-156,-136,19,146,-87,-58,-34,-190,-234,-34,68,9
-161,-136,24,148,-92,-56,-34,-180,-229,-29,68,9
-165,-136,29,151,-97,-53,-29,-175,-224,-29,68,9
-170,-136,34,153,-102,-51,-29,-175,-219,-29,68,4
-170,-136,34,153,-102,-51,-29,-170,-219,-29,68,4
-165,-146,19,156,-92,-63,-34,-165,-224,-24,68,4
-165,-146,19,156,-92,-63,-34,-165,-224,-19,68,4
-156,-146,9,151,-82,-68,-29,-170,-219,-19,68,4
-146,-151,-4,148,-70,-78,-24,-170,-219,-24,68,4
-156,-156,0,156,-78,-78,-24,-170,-219,-24,63,4
-170,-156,14,163,-92,-70,-24,-165,-219,-24,63,0
-170,-151,19,161,-95,-65,-24,-165,-219,-24,58,0
-170,-151,19,161,-95,-65,-29,-165,-219,-29,58,-4
-165,-146,19,156,-92,-63,-29,-165,-219,-24,53,-4
-165,-146,19,156,-92,-63,-29,-165,-224,-19,48,-9
-165,-146,19,156,-92,-63,-29,-165,-224,-19,48,-9
-165,-146,19,156,-92,-63,-29,-165,-224,-19,48,-9
-165,-146,19,156,-92,-63,-29,-161,-224,-19,53,-4
-165,-146,19,156,-92,-63,-29,-161,-224,-14,53,0
-165,-146,19,156,-92,-63,-29,-165,-229,-14,58,0
-165,-141,24,153,-95,-58,-29,-165,-229,-14,58,0
-161,-126,34,143,-97,-46,-39,-165,-229,-14,63,9
-161,-117,43,139,-102,-36,-43,-165,-224,-4,68,14
-161,-97,63,129,-112,-17,-39,-161,-219,9,73,24
-161,-87,73,124,-117,-7,-34,-161,-214,14,82,34
-156,-78,78,117,-117,0,-29,-165,-214,19,87,34
-156,-73,82,114,-119,4,-29,-170,-214,24,92,34
-151,-68,82,109,-117,7,-29,-170,-214,24,92,39
-141,-58,82,100,-112,12,-43,-170,-209,29,97,39
-131,-48,82,90,-107,17,-48,-165,-204,29,107,43
-126,-34,92,80,-109,29,-53,-170,-200,43,117,58
-97,9,107,43,-102,58,-73,-170,-190,63,141,78
-82,19,102,31,-92,61,-92,-170,-190,68,141,82
-87,19,107,34,-97,63,-97,-190,-204,68,136,82
-87,19,107,34,-97,63,-112,-204,-219,63,136,82
-73,19,92,26,-82,56,-131,-219,-234,63,136,82
-58,24,82,17,-70,53,-156,-244,-248,68,136,87
-43,39,82,2,-63,61,-165,-244,-248,63,136,92
-39,29,68,4,-53,48,-170,-244,-258,63,136,97
-53,14,68,19,-61,41,-170,-248,-263,53,136,92
-92,-19,73,56,-82,26,-151,-244,-268,43,126,82
-97,-53,43,75,-70,-4,-126,-224,-258,43,122,68
-107,-58,48,82,-78,-4,-102,-204,-248,43,122,63
-117,-78,39,97,-78,-19,-92,-195,-239,48,112,53
-136,-92,43,114,-90,-24,-82,-185,-234,39,107,43
-161,-122,39,141,-100,-41,-82,-195,-248,29,97,43
-180,-136,43,158,-112,-46,-78,-204,-263,19,87,39
-200,-165,34,183,-117,-65,-78,-209,-278,-9,53,14
-214,-185,29,200,-122,-78,-78,-214,-287,-14,43,-9
-214,-185,29,200,-122,-78,-73,-214,-287,-14,43,0
-219,-185,34,202,-126,-75,-68,-214,-287,-14,43,9
-219,-185,34,202,-126,-75,-58,-214,-287,-14,48,9
-219,-190,29,204,-124,-80,-53,-219,-287,-9,48,9
-214,-190,24,202,-119,-82,-53,-219,-292,-14,48,4
-214,-185,29,200,-122,-78,-48,-219,-297,-14,48,4
-229,-195,34,212,-131,-80,-58,-219,-302,-14,43,4
-244,-248,-4,246,-119,-126,-19,-175,-307,-43,14,-29
-287,-331,-43,309,-122,-187,73,-97,-302,-97,-53,-82
-307,-375,-68,341,-119,-222,170,0,-253,-122,-82,-107
-268,-356,-87,312,-90,-222,136,9,-229,-102,-58,-107
-156,-244,-87,200,-34,-165,-4,-4,-136,9,39,-34
58,-43,-102,-7,80,-73,-234,63,97,239,209,107
292,190,-102,-241,197,43,-488,165,419,522,429,268
639,522,-117,-580,378,202,-800,278,805,917,741,497
990,912,-78,-951,534,417,-1117,385,1200,1307,1083,756
1405,1444,39,-1424,683,741,-1517,453,1639,1810,1512,1102
1654,1932,278,-1793,688,1105,-1961,180,1776,2161,1864,1415
1693,2298,605,-1995,544,1451,-2493,-668,1483,2293,2083,1693
1459,1986,527,-1722,466,1256,-2522,-1049,980,1786,1786,1527
912,1507,595,-1210,158,1051,-2225,-1634,-151,1019,1259,1224
488,1180,692,-834,-102,936,-1991,-2127,-1088,527,917,1015
322,810,488,-566,-82,649,-1595,-1830,-1151,302,658,766
175,531,356,-353,-90,444,-1151,-1371,-971,170,458,551
34,361,326,-197,-146,344,-746,-946,-722,122,336,405
-53,219,273,-82,-163,246,-448,-590,-507,102,263,297
-112,68,180,21,-146,124,-248,-380,-390,63,170,180
-161,-73,87,117,-124,7,-78,-204,-283,34,97,82
-214,-141,73,178,-143,-34,24,-112,-234,24,63,24
-239,-175,63,207,-151,-56,68,-63,-214,14,48,4
-244,-200,43,222,-143,-78,87,-43,-209,-4,29,-9
-244,-204,39,224,-141,-82,92,-29,-204,-9,19,-14
-244,-204,39,224,-141,-82,112,-14,-195,-9,19,-14
-248,-209,39,229,-143,-85,122,4,-185,-4,19,-14
-248,-224,24,236,-136,-100,136,34,-170,0,19,-19
-248,-224,24,236,-136,-100,151,48,-161,4,19,-24
-248,-224,24,236,-136,-100,161,58,-156,4,19,-24
-248,-224,24,236,-136,-100,170,73,-141,9,19,-24
-244,-224,19,234,-131,-102,175,97,-131,14,19,-24
-244,-219,24,231,-134,-97,190,117,-117,19,19,-24
-239,-219,19,229,-129,-100,195,131,-102,34,24,-24
-239,-219,19,229,-129,-100,204,156,-87,39,34,-14
-239,-214,24,226,-131,-95,209,170,-73,39,34,-14
-234,-214,19,224,-126,-97,214,195,-58,43,34,-14
-234,-209,24,222,-129,-92,224,219,-34,48,29,-19
-234,-209,24,222,-129,-92,244,239,-14,58,29,-24
-234,-204,29,219,-131,-87,253,268,0,63,24,-24
-234,-200,34,217,-134,-82,268,302,14,68,29,-24
-224,-190,34,207,-129,-78,283,331,39,78,34,-24
-214,-190,24,202,-119,-82,312,370,73,92,43,-19
-209,-175,34,192,-122,-70,341,409,97,97,53,-19
-204,-170,34,187,-119,-68,356,448,122,102,58,-14
-204,-161,43,183,-124,-58,390,502,165,117,53,-14
-200,-156,43,178,-122,-56,424,556,204,126,58,-19
-190,-141,48,165,-119,-46,453,619,253,141,68,-14
-175,-122,53,148,-114,-34,483,683,292,156,78,-9
-170,-117,53,143,-112,-31,522,751,336,170,82,-4
-165,-102,63,134,-114,-19,556,824,395,190,87,4
-165,-97,68,131,-117,-14,600,883,448,204,97,4
-151,-78,73,114,-112,-2,639,951,497,224,102,4
-136,-58,78,97,-107,9,663,1024,546,239,122,19
-126,-48,78,87,-102,14,692,1093,595,253,126,29
-112,-29,82,70,-97,26,732,1161,653,273,141,34
-97,-9,87,53,-92,39,751,1215,702,287,161,43
-82,14,97,34,-90,56,766,1263,736,307,170,53
-68,34,102,17,-85,68,771,1307,761,326,180,58
-53,58,112,-2,-82,85,771,1332,795,336,195,68
-43,73,117,-14,-80,95,771,1342,814,351,209,78
-24,92,117,-34,-70,104,761,1351,819,370,224,92
-14,112,126,-48,-70,119,736,1346,819,380,234,102
0,136,136,-68,-68,136,707,1298,810,395,244,112
4,156,151,-80,-73,153,658,1239,780,400,248,122
14,175,161,-95,-73,168,595,1141,732,400,263,131
24,190,165,-107,-70,178,531,1024,663,400,268,151
24,200,175,-112,-75,187,463,902,585,395,268,161
24,200,175,-112,-75,187,380,761,497,385,268,165
14,190,175,-102,-80,183,302,629,409,366,263,165
4,185,180,-95,-87,183,239,502,312,346,248,161
-4,165,170,-80,-87,168,175,385,229,312,219,141
-19,151,170,-65,-95,161,117,278,161,283,195,126
-34,131,165,-48,-100,148,73,190,87,248,170,112
-43,112,156,-34,-100,134,34,102,14,234,151,97
-63,82,146,-9,-104,114,9,34,-34,209,131,78
-82,58,141,12,-112,100,-9,-14,-73,180,117,68
-92,43,136,24,-114,90,-34,-48,-107,161,107,63
-107,24,131,41,-119,78,-43,-82,-141,151,97,53
-117,14,131,51,-124,73,-48,-102,-161,126,87,39
-126,0,126,63,-126,63,-48,-122,-170,117,73,34
-131,-4,126,68,-129,61,-63,-146,-185,117,58,19
-141,-14,126,78,-134,56,-63,-161,-195,117,53,19
-146,-29,117,87,-131,43,-63,-161,-204,102,43,19
-146,-34,112,90,-129,39,-63,-156,-209,87,34,19
-151,-29,122,90,-136,46,-63,-165,-209,82,34,19
-151,-29,122,90,-136,46,-63,-165,-209,82,34,9
-151,-24,126,87,-139,51,-63,-170,-209,82,29,0
-156,-29,126,92,-141,48,-63,-180,-214,82,24,-4
-156,-29,126,92,-141,48,-63,-185,-219,73,19,-4
-156,-29,126,92,-141,48,-63,-185,-219,73,19,-4
-156,-24,131,90,-143,53,-63,-185,-219,68,14,-4
-156,-19,136,87,-146,58,-63,-185,-219,63,9,-9
-156,-19,136,87,-146,58,-73,-185,-219,53,9,-14
-161,-24,136,92,-148,56,-78,-185,-214,53,9,-24
-161,-29,131,95,-146,51,-68,-185,-214,58,4,-24
-156,-29,126,92,-141,48,-68,-185,-214,63,4,-19
-146,-29,117,87,-131,43,-63,-180,-214,68,4,-19
-141,-29,112,85,-126,41,-63,-175,-214,73,0,-19
-146,-29,117,87,-131,43,-58,-175,-214,68,0,-19
-151,-29,122,90,-136,46,-58,-175,-209,68,0,-24
-151,-24,126,87,-139,51,-48,-175,-209,63,-4,-29
-146,-29,117,87,-131,43,-43,-175,-214,63,-9,-34
-146,-29,117,87,-131,43,-43,-175,-214,63,-9,-39
-146,-29,117,87,-131,43,-43,-175,-209,58,-9,-43
-146,-34,112,90,-129,39,-43,-170,-209,53,-9,-43
-146,-39,107,92,-126,34,-43,-170,-209,53,-19,-43
-151,-39,112,95,-131,36,-48,-165,-209,48,-29,-48
-151,-39,112,95,-131,36,-53,-165,-209,43,-34,-48
-151,-39,112,95,-131,36,-53,-165,-209,43,-39,-53
-146,-43,102,95,-124,29,-53,-165,-209,43,-39,-58
-146,-43,102,95,-124,29,-58,-165,-204,48,-39,-58
-151,-43,107,97,-129,31,-58,-165,-204,48,-43,-53
-146,-43,102,95,-124,29,-58,-175,-209,43,-48,-53
-146,-48,97,97,-122,24,-58,-185,-214,39,-58,-58
-151,-48,102,100,-126,26,-63,-185,-214,39,-58,-58
-156,-48,107,102,-131,29,-68,-185,-214,39,-58,-58
-156,-48,107,102,-131,29,-78,-185,-214,34,-58,-63
-151,-48,102,100,-126,26,-73,-185,-214,29,-58,-63
-151,-48,102,100,-126,26,-73,-190,-219,29,-58,-68
-146,-48,97,97,-122,24,-58,-195,-219,34,-58,-68
-146,-43,102,95,-124,29,-58,-200,-219,39,-58,-68
-141,-29,112,85,-126,41,-58,-204,-219,43,-53,-63
-141,-19,122,80,-131,51,-53,-204,-214,53,-53,-63
-136,0,136,68,-136,68,-48,-200,-209,63,-53,-53
-122,14,136,53,-129,75,-48,-200,-204,63,-43,-43
-107,29,136,39,-122,82,-53,-200,-204,68,-43,-43
-107,34,141,36,-124,87,-58,-200,-204,73,-43,-39
-102,39,141,31,-122,90,-58,-200,-204,73,-43,-29
-92,48,141,21,-117,95,-73,-200,-200,78,-39,-29
-82,58,141,12,-112,100,-73,-200,-195,78,-29,-24
-82,73,156,4,-119,114,-73,-209,-190,92,-19,-9
-58,112,170,-26,-114,141,-92,-209,-180,107,4,9
-43,117,161,-36,-102,139,-112,-209,-180,97,0,4
-43,117,161,-36,-102,139,-122,-229,-195,87,-9,-4
-39,117,156,-39,-97,136,-141,-244,-214,82,-14,-4
-24,117,141,-46,-82,129,-161,-258,-234,78,-19,-4
-9,122,131,-56,-70,126,-185,-283,-248,78,-19,0
0,131,131,-65,-65,131,-190,-283,-248,73,-19,0
0,117,117,-58,-58,117,-195,-283,-258,73,-24,0
-14,102,117,-43,-65,109,-195,-283,-258,63,-34,-4
-53,73,126,-9,-90,100,-180,-278,-258,53,-53,-19
-68,43,112,12,-90,78,-165,-263,-248,53,-63,-39
-82,39,122,21,-102,80,-126,-244,-239,53,-63,-43
-87,19,107,34,-97,63,-102,-244,-239,53,-78,-53
-107,4,112,51,-109,58,-92,-244,-244,39,-87,-63
-126,-24,102,75,-114,39,-92,-253,-258,29,-97,-73
-141,-39,102,90,-122,31,-87,-268,-273,19,-107,-87
-156,-63,92,109,-124,14,-87,-273,-283,-4,-131,-97
-165,-78,87,122,-126,4,-87,-273,-287,-9,-136,-107
-165,-78,87,122,-126,4,-82,-273,-287,-14,-141,-107
-170,-78,92,124,-131,7,-78,-273,-287,-14,-141,-107
-170,-78,92,124,-131,7,-73,-268,-287,-19,-141,-107
-170,-82,87,126,-129,2,-73,-268,-287,-19,-146,-107
-170,-87,82,129,-126,-2,-73,-268,-287,-24,-146,-112
-170,-87,82,129,-126,-2,-68,-268,-287,-24,-151,-112
-180,-107,73,143,-126,-17,-53,-253,-287,-34,-170,-122
-195,-170,24,183,-109,-73,9,-185,-287,-73,-214,-165
-219,-229,-9,224,-104,-119,82,-97,-263,-102,-258,-204
-214,-248,-34,231,-90,-141,136,-14,-195,-97,-258,-214
-136,-180,-43,158,-46,-112,39,-19,-126,-24,-204,-180
14,-19,-34,2,24,-26,-141,-24,19,136,-78,-73
278,209,-68,-244,173,70,-395,53,287,395,126,87
561,468,-92,-514,326,187,-678,165,644,707,380,263
912,824,-87,-868,500,368,-1015,234,1005,1102,702,507
1263,1224,-39,-1244,651,592,-1356,278,1351,1488,1049,785
1576,1668,92,-1622,741,880,-1761,165,1600,1873,1400,1088
1717,2069,351,-1893,683,1210,-2205,-312,1522,2074,1649,1342
1625,2225,600,-1925,512,1412,-2562,-1098,1058,1981,1678,1478
1254,1722,468,-1488,392,1095,-2386,-1381,424,1302,1220,1185
766,1288,522,-1027,122,905,-2049,-1820,-517,678,761,907
429,1019,590,-724,-80,805,-1790,-2127,-1220,317,497,727
312,702,390,-507,-39,546,-1381,-1722,-1122,165,287,502
180,488,307,-334,-63,397,-936,-1195,-824,112,136,312
48,356,307,-202,-129,331,-585,-824,-605,82,43,190
-19,229,248,-104,-134,239,-356,-527,-424,73,-9,102
-82,92,175,-4,-129,134,-195,-346,-331,34,-87,0
-131,-29,102,80,-117,36,-48,-200,-244,4,-146,-82
-170,-78,92,124,-131,7,29,-126,-204,-4,-175,-126
-175,-97,78,136,-126,-9,48,-92,-195,-14,-185,-131
-175,-117,58,146,-117,-29,68,-73,-190,-29,-200,-146
-175,-122,53,148,-114,-34,78,-58,-185,-29,-209,-156
-175,-126,48,151,-112,-39,97,-43,-175,-29,-214,-161
-180,-131,48,156,-114,-41,102,-24,-165,-29,-214,-161
-180,-146,34,163,-107,-56,117,0,-151,-29,-214,-165
-180,-146,34,163,-107,-56,131,9,-136,-24,-214,-170
-180,-146,34,163,-107,-56,141,19,-126,-24,-214,-170
-180,-146,34,163,-107,-56,151,34,-112,-19,-214,-170
-175,-146,29,161,-102,-58,156,58,-102,-14,-214,-170
-175,-141,34,158,-104,-53,170,78,-87,-14,-219,-175
-170,-141,29,156,-100,-56,175,92,-73,-9,-219,-180
-170,-141,29,156,-100,-56,195,117,-58,-9,-209,-170
-170,-136,34,153,-102,-51,214,131,-43,-9,-209,-170
-165,-141,24,153,-95,-58,224,156,-29,-9,-209,-170
-161,-141,19,151,-90,-61,234,185,-4,-9,-209,-170
-156,-141,14,148,-85,-63,253,209,19,-4,-209,-170
-156,-141,14,148,-85,-63,263,239,43,-4,-214,-170
-156,-136,19,146,-87,-58,278,273,63,0,-209,-170
-146,-122,24,134,-85,-48,292,302,87,9,-209,-170
-136,-122,14,129,-75,-53,322,341,122,24,-200,-165
-131,-107,24,119,-78,-41,351,390,151,34,-190,-165
-126,-102,24,114,-75,-39,366,439,180,39,-185,-161
-126,-92,34,109,-80,-29,400,492,224,48,-185,-156
-122,-87,34,104,-78,-26,434,556,263,58,-180,-161
-112,-78,34,95,-73,-21,463,624,312,73,-175,-161
-92,-58,34,75,-63,-12,492,683,361,87,-165,-156
-78,-48,29,63,-53,-9,527,751,414,102,-156,-151
-68,-34,34,51,-51,0,556,834,473,122,-146,-141
-68,-24,43,46,-56,9,595,907,527,136,-131,-136
-53,-4,48,29,-51,21,629,980,575,156,-122,-131
-39,9,48,14,-43,29,653,1054,624,175,-102,-117
-29,19,48,4,-39,34,683,1107,668,195,-97,-112
-14,39,53,-12,-34,46,717,1161,717,219,-82,-112
0,58,58,-29,-29,58,732,1215,761,234,-68,-102
9,82,73,-46,-31,78,746,1254,795,248,-58,-87
19,102,82,-61,-31,92,751,1288,814,268,-43,-78
34,126,92,-80,-29,109,751,1307,839,278,-29,-68
43,141,97,-92,-26,119,751,1312,854,283,-24,-63
63,161,97,-112,-17,129,741,1312,854,292,-19,-53
73,180,107,-126,-17,143,712,1298,844,297,-9,-43
87,200,112,-143,-12,156,678,1239,824,307,0,-34
92,209,117,-151,-12,163,629,1166,785,312,0,-24
97,224,126,-161,-14,175,561,1063,732,312,9,-14
102,234,131,-168,-14,183,488,932,658,297,14,0
102,239,136,-170,-17,187,414,795,570,278,14,4
102,229,126,-165,-12,178,331,653,478,268,9,4
92,209,117,-151,-12,163,258,522,390,244,0,0
82,214,131,-148,-24,173,200,400,292,224,-14,-4
68,195,126,-131,-29,161,141,287,209,195,-39,-19
58,170,112,-114,-26,141,87,180,146,165,-58,-24
48,146,97,-97,-24,122,48,102,82,126,-82,-34
34,122,87,-78,-26,104,14,24,19,107,-102,-48
14,92,78,-53,-31,85,-9,-39,-24,78,-122,-68
-4,68,73,-31,-39,70,-29,-82,-63,48,-136,-78
-14,53,68,-19,-41,61,-48,-117,-92,34,-146,-82
-29,34,63,-2,-46,48,-43,-151,-122,24,-161,-92
-39,24,63,7,-51,43,-39,-170,-141,4,-175,-102
-48,9,58,19,-53,34,-39,-195,-151,-4,-190,-102
-53,4,58,24,-56,31,-53,-209,-165,-9,-200,-117
-63,-4,58,34,-61,26,-53,-209,-175,-9,-200,-122
-68,-14,53,41,-61,19,-53,-219,-185,-24,-200,-126
-68,-14,53,41,-61,19,-58,-219,-190,-39,-200,-126
-73,-9,63,41,-68,26,-63,-224,-190,-43,-200,-126
-73,-9,63,41,-68,26,-63,-224,-190,-48,-200,-136
-73,-9,63,41,-68,26,-63,-224,-190,-53,-204,-136
-78,-24,53,51,-65,14,-58,-229,-195,-53,-209,-131
-78,-29,48,53,-63,9,-53,-234,-200,-63,-214,-131
-78,-29,48,53,-63,9,-53,-234,-200,-58,-214,-131
-78,-29,48,53,-63,9,-53,-234,-200,-58,-214,-131
-78,-24,53,51,-65,14,-53,-234,-200,-58,-214,-136
-78,-19,58,48,-68,19,-58,-234,-200,-63,-214,-136
-82,-24,58,53,-70,17,-63,-234,-195,-63,-214,-151
-82,-29,53,56,-68,12,-58,-234,-195,-63,-219,-161
-78,-29,48,53,-63,9,-58,-229,-190,-63,-219,-146
-78,-29,48,53,-63,9,-53,-219,-185,-63,-214,-136
-82,-29,53,56,-68,12,-53,-214,-185,-63,-214,-136
-87,-29,58,58,-73,14,-48,-214,-185,-68,-214,-136
-92,-34,58,63,-75,12,-43,-219,-180,-68,-219,-146
-92,-39,53,65,-73,7,-39,-219,-180,-68,-224,-151
-87,-48,39,68,-63,-4,-34,-214,-185,-73,-224,-151
-87,-48,39,68,-63,-4,-24,-214,-185,-78,-224,-151
-87,-48,39,68,-63,-4,-24,-214,-180,-78,-224,-151
-87,-53,34,70,-61,-9,-24,-209,-180,-82,-224,-151
-82,-58,24,70,-53,-17,-29,-204,-180,-82,-234,-156
-82,-58,24,70,-53,-17,-34,-195,-180,-82,-239,-165
-82,-53,29,68,-56,-12,-34,-195,-180,-87,-244,-165
-82,-48,34,65,-58,-7,-34,-200,-180,-92,-248,-165
-78,-53,24,65,-51,-14,-34,-204,-180,-92,-244,-165
-78,-53,24,65,-51,-14,-39,-204,-180,-92,-248,-165
-78,-58,19,68,-48,-19,-39,-204,-185,-92,-244,-165
-82,-68,14,75,-48,-26,-39,-204,-190,-97,-244,-170
-82,-68,14,75,-48,-26,-39,-209,-190,-102,-244,-165
-87,-68,19,78,-53,-24,-39,-214,-195,-107,-244,-165
-87,-68,19,78,-53,-24,-43,-219,-195,-107,-244,-165
-87,-68,19,78,-53,-24,-48,-224,-195,-107,-244,-165
-82,-68,14,75,-48,-26,-48,-224,-195,-107,-244,-165
-78,-68,9,73,-43,-29,-48,-224,-195,-102,-244,-161
-78,-68,9,73,-43,-29,-48,-229,-200,-102,-244,-161
-78,-63,14,70,-46,-24,-48,-224,-200,-102,-244,-156
-78,-48,29,63,-53,-9,-48,-224,-204,-107,-239,-151
-82,-39,43,61,-63,2,-43,-224,-204,-102,-234,-151
-78,-19,58,48,-68,19,-43,-224,-200,-92,-229,-141
-73,-9,63,41,-68,26,-43,-229,-195,-92,-219,-131
-58,0,58,29,-58,29,-43,-229,-190,-87,-219,-131
-48,4,53,21,-51,29,-48,-229,-185,-82,-219,-131
-43,9,53,17,-48,31,-43,-229,-185,-82,-219,-126
-34,19,53,7,-43,36,-53,-229,-180,-78,-214,-126
-24,29,53,-2,-39,41,-53,-229,-175,-78,-204,-122
-19,43,63,-12,-41,53,-53,-239,-170,-63,-195,-107
9,78,68,-43,-29,73,-73,-239,-161,-53,-175,-87
24,78,53,-51,-14,65,-92,-239,-161,-58,-180,-82
24,73,48,-48,-12,61,-102,-258,-175,-58,-185,-87
29,68,39,-48,-4,53,-122,-273,-190,-63,-185,-92
43,68,24,-56,9,46,-136,-287,-204,-73,-185,-92
58,73,14,-65,21,43,-156,-312,-219,-78,-185,-87
68,82,14,-75,26,48,-161,-312,-219,-82,-190,-87
68,68,0,-68,34,34,-161,-312,-229,-82,-195,-87
53,53,0,-53,26,26,-161,-312,-229,-92,-200,-92
14,19,4,-17,4,12,-141,-302,-229,-102,-214,-102
0,-14,-14,7,7,-14,-117,-283,-219,-102,-219,-117
-19,-19,0,19,-9,-9,-92,-263,-209,-102,-219,-122
-34,-39,-4,36,-14,-21,-82,-263,-209,-102,-234,-131
-58,-53,4,56,-31,-24,-73,-263,-214,-117,-244,-141
-78,-92,-14,85,-31,-53,-73,-273,-229,-131,-253,-151
-92,-117,-24,104,-34,-70,-68,-283,-244,-146,-263,-165
-107,-141,-34,124,-36,-87,-63,-283,-253,-170,-287,-175
-117,-156,-39,136,-39,-97,-58,-283,-258,-170,-287,-185
-117,-156,-39,136,-39,-97,-53,-283,-258,-170,-287,-185
-122,-156,-34,139,-43,-95,-48,-283,-258,-170,-287,-185
-122,-156,-34,139,-43,-95,-43,-278,-253,-170,-283,-185
-122,-161,-39,141,-41,-100,-43,-278,-248,-165,-283,-185
-122,-165,-43,143,-39,-104,-43,-278,-248,-170,-283,-190
-126,-165,-39,146,-43,-102,-39,-278,-248,-170,-283,-190
-141,-185,-43,163,-48,-114,-24,-263,-248,-185,-297,-200
-156,-248,-92,202,-31,-170,39,-204,-248,-229,-336,-244
-180,-307,-126,244,-26,-217,112,-131,-229,-258,-375,-283
-180,-326,-146,253,-17,-236,190,-39,-165,-258,-375,-292
-102,-258,-156,180,26,-207,117,-29,-97,-195,-322,-258
48,-97,-146,24,97,-122,-63,-43,39,-39,-195,-151
317,131,-185,-224,251,-26,-317,9,292,204,4,9
605,395,-209,-500,407,92,-595,97,634,502,253,190
951,751,-200,-851,575,275,-927,156,961,888,570,434
1302,1166,-136,-1234,719,514,-1263,209,1298,1268,917,707
1615,1605,-9,-1610,812,797,-1659,92,1551,1634,1254,1000
1761,2000,239,-1881,761,1119,-2098,-366,1503,1849,1512,1259
1649,2156,507,-1903,570,1332,-2425,-1102,1068,1795,1551,1400
1263,1634,370,-1449,446,1002,-2249,-1371,424,1102,1073,1098
800,1210,409,-1005,195,810,-1952,-1795,-468,473,629,819
458,936,478,-697,-9,707,-1717,-2127,-1166,117,370,634
322,629,307,-475,7,468,-1332,-1742,-1102,-19,170,419
204,414,209,-309,-2,312,-897,-1195,-795,-63,29,239
87,258,170,-173,-41,214,-546,-834,-575,-97,-68,112
24,131,107,-78,-41,119,-302,-541,-390,-102,-117,24
-34,-4,29,19,-31,12,-131,-356,-297,-141,-195,-73
-82,-131,-48,107,-17,-90,9,-204,-214,-170,-253,-151
-122,-175,-53,148,-34,-114,82,-131,-175,-180,-278,-195
-131,-185,-53,158,-39,-119,97,-102,-165,-190,-283,-200
-136,-214,-78,175,-29,-146,117,-82,-161,-200,-297,-214
-136,-224,-87,180,-24,-156,122,-68,-156,-195,-302,-219
-136,-224,-87,180,-24,-156,136,-53,-146,-195,-302,-219
-141,-229,-87,185,-26,-158,141,-34,-136,-190,-302,-219
-141,-244,-102,192,-19,-173,156,-9,-122,-185,-302,-219
-141,-244,-102,192,-19,-173,170,0,-112,-180,-302,-219
-141,-248,-107,195,-17,-178,180,9,-102,-185,-302,-219
-141,-253,-112,197,-14,-183,190,24,-82,-185,-302,-219
-136,-253,-117,195,-9,-185,195,48,-68,-180,-302,-219
-136,-248,-112,192,-12,-180,209,68,-48,-175,-302,-219
-126,-248,-122,187,-2,-185,214,87,-34,-165,-297,-219
-122,-248,-126,185,2,-187,224,117,-19,-165,-287,-209
-122,-248,-126,185,2,-187,239,131,-4,-165,-287,-209
-117,-253,-136,185,9,-195,253,156,9,-161,-287,-209
-112,-248,-136,180,12,-192,268,185,29,-161,-287,-209
-107,-248,-141,178,17,-195,292,209,43,-156,-283,-209
-107,-248,-141,178,17,-195,302,239,63,-151,-283,-209
-107,-248,-141,178,17,-195,317,273,82,-146,-273,-209
-97,-239,-141,168,21,-190,326,302,117,-136,-268,-209
-87,-239,-151,163,31,-195,351,341,161,-122,-258,-204
-82,-224,-141,153,29,-183,380,390,180,-112,-248,-204
-78,-219,-141,148,31,-180,395,439,200,-102,-244,-200
-78,-214,-136,146,29,-175,424,492,244,-82,-244,-195
-73,-214,-141,143,34,-178,453,546,283,-68,-234,-195
-63,-204,-141,134,39,-173,483,614,331,-53,-224,-190
-48,-190,-141,119,46,-165,512,683,370,-39,-214,-185
-34,-185,-151,109,58,-168,546,751,414,-24,-204,-180
-19,-170,-151,95,65,-161,575,824,473,-4,-195,-170
-19,-165,-146,92,63,-156,610,883,527,9,-180,-165
-4,-146,-141,75,68,-143,639,951,575,29,-170,-161
9,-126,-136,58,73,-131,663,1024,624,43,-151,-146
19,-117,-136,48,78,-126,692,1093,673,58,-146,-136
34,-102,-136,34,85,-119,727,1156,722,82,-131,-131
48,-87,-136,19,92,-112,741,1205,761,102,-112,-122
58,-63,-122,2,90,-92,756,1244,795,117,-97,-107
68,-43,-112,-12,90,-78,761,1278,819,131,-82,-97
82,-24,-107,-29,95,-65,766,1298,844,141,-73,-92
92,-14,-107,-39,100,-61,771,1302,854,156,-63,-87
102,-4,-107,-48,104,-56,761,1302,854,165,-53,-73
102,4,-97,-53,100,-46,736,1288,849,165,-48,-63
117,24,-92,-70,104,-34,707,1229,829,175,-39,-53
122,39,-82,-80,102,-21,658,1161,790,175,-34,-43
126,58,-68,-92,97,-4,590,1063,741,175,-19,-39
131,73,-58,-102,95,7,522,946,673,175,-14,-24
131,82,-48,-107,90,17,458,824,590,161,-19,-14
131,82,-48,-107,90,17,380,683,497,141,-24,-9
122,73,-48,-97,85,12,307,551,414,107,-29,-9
112,68,-43,-90,78,12,248,424,322,73,-43,-14
97,39,-58,-68,78,-9,195,307,244,48,-63,-24
78,14,-63,-46,70,-24,146,200,180,29,-78,-29
58,-4,-63,-26,61,-34,107,122,112,-9,-102,-43
43,-24,-68,-9,56,-46,73,43,43,-29,-122,-58
24,-53,-78,14,51,-65,48,-19,0,-53,-141,-78
4,-78,-82,36,43,-80,29,-63,-34,-82,-156,-87
-4,-92,-87,48,41,-90,9,-97,-63,-102,-165,-87
-19,-112,-92,65,36,-102,4,-131,-92,-112,-175,-92
-29,-122,-92,75,31,-107,0,-151,-112,-131,-180,-102
-39,-136,-97,87,29,-117,0,-170,-122,-136,-190,-102
-34,-141,-107,87,36,-124,-14,-180,-131,-136,-200,-117
-34,-151,-117,92,41,-134,-14,-180,-136,-136,-200,-117
-39,-161,-122,100,41,-141,-14,-185,-146,-151,-200,-117
-39,-161,-122,100,41,-141,-14,-185,-151,-165,-200,-117
-53,-161,-107,107,26,-134,-14,-195,-156,-170,-200,-117
-63,-165,-102,114,19,-134,-14,-195,-161,-170,-200,-126
-63,-165,-102,114,19,-134,-14,-200,-161,-170,-204,-131
-68,-175,-107,122,19,-141,-14,-209,-165,-170,-209,-131
-68,-180,-112,124,21,-146,-9,-214,-170,-180,-214,-131
-68,-185,-117,126,24,-151,-4,-214,-170,-180,-214,-131
-68,-185,-117,126,24,-151,0,-209,-170,-185,-214,-131
-68,-185,-117,126,24,-151,4,-204,-170,-190,-214,-136
-68,-180,-112,124,21,-146,0,-204,-170,-200,-214,-136
-73,-180,-107,126,17,-143,0,-204,-165,-200,-214,-141
-73,-185,-112,129,19,-148,9,-200,-161,-204,-219,-141
-68,-185,-117,126,24,-151,9,-195,-156,-209,-219,-136
-68,-185,-117,126,24,-151,14,-190,-156,-209,-214,-136
-73,-185,-112,129,19,-148,14,-185,-156,-209,-214,-136
-73,-185,-112,129,19,-148,14,-180,-156,-214,-214,-136
-73,-185,-112,129,19,-148,9,-175,-151,-214,-214,-141
-68,-185,-117,126,24,-151,9,-170,-151,-219,-214,-141
-58,-195,-136,126,39,-165,4,-165,-156,-219,-214,-141
-58,-195,-136,126,39,-165,4,-165,-156,-214,-214,-141
-58,-195,-136,126,39,-165,4,-165,-151,-214,-214,-141
-58,-195,-136,126,39,-165,14,-165,-151,-224,-214,-141
-58,-195,-136,126,39,-165,24,-170,-151,-229,-224,-141
-63,-195,-131,129,34,-163,14,-165,-151,-229,-224,-146
-63,-195,-131,129,34,-163,4,-165,-151,-229,-219,-146
-63,-195,-131,129,34,-163,4,-170,-151,-229,-219,-141
-58,-200,-141,129,41,-170,4,-175,-151,-229,-214,-136
-63,-204,-141,134,39,-173,0,-175,-151,-229,-214,-136
-73,-209,-136,141,31,-173,0,-175,-151,-229,-219,-131
-73,-209,-136,141,31,-173,0,-175,-156,-234,-224,-131
-73,-209,-136,141,31,-173,0,-175,-156,-234,-219,-131
-63,-209,-146,136,41,-178,9,-175,-161,-234,-219,-131
-48,-209,-161,129,56,-185,14,-185,-165,-234,-219,-131
-58,-209,-151,134,46,-180,4,-190,-165,-244,-214,-126
-68,-214,-146,141,39,-180,0,-195,-165,-253,-214,-126
-68,-214,-146,141,39,-180,0,-195,-170,-253,-214,-126
-68,-214,-146,141,39,-180,0,-195,-175,-253,-214,-126
-68,-219,-151,143,41,-185,-4,-195,-175,-253,-214,-126
-68,-219,-151,143,41,-185,-4,-195,-175,-253,-214,-126
-68,-224,-156,146,43,-190,-9,-200,-180,-258,-214,-126
-68,-224,-156,146,43,-190,-9,-204,-180,-258,-214,-126
-68,-219,-151,143,41,-185,-9,-204,-180,-258,-214,-126
-63,-204,-141,134,39,-173,-9,-204,-180,-258,-209,-122
-63,-195,-131,129,34,-163,-4,-204,-175,-248,-204,-122
-58,-175,-117,117,29,-146,0,-200,-170,-239,-200,-112
-53,-165,-112,109,29,-139,4,-200,-165,-239,-190,-102
-48,-156,-107,102,29,-131,4,-200,-165,-234,-190,-102
-48,-151,-102,100,26,-126,0,-200,-165,-229,-190,-102
-43,-146,-102,95,29,-124,0,-200,-165,-229,-190,-97
-39,-136,-97,87,29,-117,-14,-195,-161,-224,-190,-97
-34,-126,-92,80,29,-109,-14,-190,-156,-224,-185,-92
-29,-107,-78,68,24,-92,-9,-200,-151,-209,-175,-78
0,-63,-63,31,31,-63,-24,-200,-141,-195,-151,-58
14,-58,-73,21,43,-65,-34,-200,-141,-195,-146,-53
14,-58,-73,21,43,-65,-34,-219,-156,-195,-146,-53
24,-53,-78,14,51,-65,-53,-234,-170,-200,-146,-53
43,-48,-92,2,68,-70,-73,-248,-185,-204,-146,-53
58,-43,-102,-7,80,-73,-102,-273,-200,-204,-146,-43
68,-34,-102,-17,85,-68,-112,-273,-200,-209,-146,-39
68,-48,-117,-9,92,-82,-122,-278,-209,-209,-146,-34
53,-63,-117,4,85,-90,-126,-283,-209,-219,-151,-34
14,-102,-117,43,65,-109,-102,-273,-209,-234,-165,-43
0,-141,-141,70,70,-141,-78,-253,-200,-239,-170,-58
-19,-146,-126,82,53,-136,-48,-229,-190,-239,-170,-63
-29,-165,-136,97,53,-151,-34,-224,-190,-239,-185,-73
-48,-180,-131,114,41,-156,-24,-224,-195,-253,-195,-82
-68,-209,-141,139,36,-175,-24,-234,-209,-263,-204,-92
-82,-224,-141,153,29,-183,-19,-244,-224,-278,-214,-112
-97,-248,-151,173,26,-200,-19,-244,-234,-307,-239,-126
-107,-263,-156,185,24,-209,-24,-244,-239,-307,-239,-136
-107,-263,-156,185,24,-209,-24,-244,-239,-307,-239,-136
-112,-263,-151,187,19,-207,-19,-244,-239,-307,-239,-136
-112,-263,-151,187,19,-207,-14,-239,-239,-312,-239,-136
-112,-268,-156,190,21,-212,-14,-239,-239,-312,-244,-136
-112,-273,-161,192,24,-217,-14,-239,-239,-317,-244,-141
-107,-258,-151,183,21,-204,-14,-253,-239,-317,-239,-131
-112,-263,-151,187,19,-207,-4,-253,-239,-326,-248,-131
-136,-326,-190,231,26,-258,48,-204,-253,-366,-287,-175
-170,-385,-214,278,21,-300,112,-136,-244,-395,-326,-214
-214,-458,-244,336,14,-351,268,-9,-190,-439,-370,-258
-185,-444,-258,314,36,-351,273,29,-136,-414,-361,-258
-82,-312,-229,197,73,-270,146,-14,-53,-297,-258,-175
131,-112,-244,-9,187,-178,-53,24,151,-82,-78,-39
385,122,-263,-253,324,-70,-322,117,473,200,146,122
707,453,-253,-580,480,100,-644,165,800,566,439,351
1093,863,-229,-978,661,317,-946,322,1220,980,805,629
1439,1317,-122,-1378,780,597,-1312,322,1542,1395,1176,932
1722,1937,214,-1830,753,1076,-1869,-68,1673,1839,1605,1317
1771,2313,541,-2042,614,1427,-2337,-766,1420,1991,1815,1586
1429,1810,380,-1620,524,1095,-2259,-1049,878,1288,1356,1298
971,1376,405,-1173,283,890,-2020,-1488,29,639,897,1024
546,1088,541,-817,2,814,-1854,-2088,-995,175,595,839
341,751,409,-546,-34,580,-1537,-1976,-1220,-78,346,610
224,478,253,-351,-14,366,-1058,-1405,-912,-170,161,390
107,287,180,-197,-36,234,-673,-990,-683,-239,34,239
39,151,112,-95,-36,131,-405,-649,-473,-229,-19,151
-24,4,29,9,-26,17,-204,-424,-351,-248,-97,48
-78,-151,-73,114,-2,-112,-34,-244,-239,-292,-175,-53
-122,-234,-112,178,-4,-173,68,-136,-175,-317,-224,-117
-131,-253,-122,192,-4,-187,92,-92,-165,-326,-234,-126
-136,-273,-136,204,0,-204,117,-63,-161,-341,-248,-146
-126,-273,-146,200,9,-209,126,-58,-161,-346,-258,-156
-117,-273,-156,195,19,-214,146,-53,-156,-351,-263,-161
-131,-278,-146,204,7,-212,151,-34,-146,-346,-263,-161
-141,-292,-151,217,4,-222,165,-9,-131,-341,-263,-165
-141,-297,-156,219,7,-226,175,0,-122,-341,-263,-170
-141,-302,-161,222,9,-231,180,9,-117,-346,-263,-170
-141,-302,-161,222,9,-231,190,19,-102,-346,-263,-170
-136,-302,-165,219,14,-234,195,39,-92,-346,-263,-170
-136,-297,-161,217,12,-229,209,58,-78,-346,-263,-170
-131,-297,-165,214,17,-231,214,73,-63,-341,-258,-170
-126,-297,-170,212,21,-234,224,97,-53,-341,-248,-161
-122,-292,-170,207,24,-231,234,112,-43,-341,-248,-161
-117,-292,-175,204,29,-234,244,131,-29,-336,-248,-161
-112,-287,-175,200,31,-231,253,156,-4,-331,-248,-161
-107,-283,-175,195,34,-229,273,175,14,-322,-244,-156
-107,-278,-170,192,31,-224,283,200,34,-317,-244,-151
-107,-278,-170,192,31,-224,283,234,48,-312,-234,-151
-97,-268,-170,183,36,-219,283,263,68,-302,-229,-151
-87,-268,-180,178,46,-224,312,292,97,-292,-219,-146
-82,-253,-170,168,43,-212,341,331,122,-287,-209,-146
-78,-248,-170,163,46,-209,356,375,151,-283,-204,-141
-78,-239,-161,158,41,-200,390,424,195,-273,-204,-136
-78,-234,-156,156,39,-195,424,473,229,-263,-195,-136
-73,-224,-151,148,39,-187,453,527,273,-248,-185,-131
-58,-214,-156,136,48,-185,473,575,307,-239,-180,-131
-48,-214,-165,131,58,-190,497,634,346,-229,-175,-131
-39,-200,-161,119,61,-180,527,707,405,-209,-165,-122
-39,-190,-151,114,56,-170,566,771,458,-195,-151,-117
-24,-165,-141,95,58,-153,600,839,507,-170,-136,-112
-9,-146,-136,78,63,-141,624,907,556,-146,-112,-97
0,-136,-136,68,68,-136,653,971,595,-126,-107,-87
14,-117,-131,51,73,-124,688,1034,639,-102,-92,-82
34,-97,-131,31,82,-114,707,1088,683,-82,-73,-73
48,-73,-122,12,85,-97,727,1127,717,-63,-58,-58
58,-53,-112,-2,85,-82,741,1166,746,-43,-43,-43
73,-29,-102,-21,87,-65,751,1190,780,-34,-29,-29
78,-14,-92,-31,85,-53,751,1205,805,-19,-14,-19
92,4,-87,-48,90,-41,741,1215,814,0,0,-4
102,24,-78,-63,90,-26,722,1224,814,4,9,0
117,43,-73,-80,95,-14,697,1190,805,14,19,4
122,58,-63,-90,92,-2,663,1146,785,19,24,14
126,78,-48,-102,87,14,610,1073,751,19,39,24
131,92,-39,-112,85,26,546,966,697,19,43,43
131,102,-29,-117,80,36,483,854,629,14,43,53
131,107,-24,-119,78,41,409,717,546,19,53,63
122,102,-19,-112,70,41,346,590,468,9,58,68
117,107,-9,-112,63,48,287,463,361,-14,48,63
107,87,-19,-97,63,34,229,346,268,-48,29,48
87,63,-24,-75,56,19,165,234,200,-78,9,43
68,39,-29,-53,48,4,117,151,131,-117,-14,34
48,14,-34,-31,41,-9,73,63,58,-136,-39,19
24,-14,-39,-4,31,-26,39,-9,4,-165,-63,0
4,-43,-48,19,26,-46,29,-63,-39,-195,-78,-9
-4,-63,-58,34,26,-61,19,-107,-73,-209,-87,-14
-19,-82,-63,51,21,-73,14,-141,-102,-219,-97,-24
-29,-92,-63,61,17,-78,9,-161,-122,-239,-107,-34
-39,-107,-68,73,14,-87,9,-185,-136,-258,-126,-39
-43,-112,-68,78,12,-90,-4,-200,-156,-273,-141,-58
-58,-126,-68,92,4,-97,-4,-204,-170,-263,-141,-58
-68,-141,-73,104,2,-107,-4,-219,-185,-268,-141,-58
-68,-141,-73,104,2,-107,-9,-224,-195,-283,-141,-53
-73,-136,-63,104,-4,-100,-14,-234,-200,-287,-141,-48
-73,-136,-63,104,-4,-100,-14,-239,-200,-287,-136,-58
-73,-136,-63,104,-4,-100,-14,-244,-200,-287,-136,-58
-78,-146,-68,112,-4,-107,-14,-248,-204,-287,-141,-53
-78,-146,-68,112,-4,-107,-14,-253,-209,-297,-146,-53
-78,-151,-73,114,-2,-112,-14,-253,-209,-297,-146,-58
-78,-156,-78,117,0,-117,-14,-253,-209,-302,-146,-63
-78,-156,-78,117,0,-117,-14,-248,-209,-302,-146,-68
-78,-156,-78,117,0,-117,-19,-244,-209,-307,-146,-68
-82,-156,-73,119,-4,-114,-19,-244,-200,-307,-141,-73
-82,-156,-73,119,-4,-114,-9,-244,-195,-307,-141,-73
-73,-156,-82,114,4,-119,-4,-244,-195,-302,-141,-63
-68,-156,-87,112,9,-122,4,-239,-195,-297,-136,-58
-73,-161,-87,117,7,-124,4,-234,-195,-297,-136,-58
-78,-165,-87,122,4,-126,9,-234,-195,-302,-136,-58
-82,-165,-82,124,0,-124,9,-234,-185,-302,-136,-68
-82,-165,-82,124,0,-124,9,-229,-180,-302,-136,-73
-78,-175,-97,126,9,-136,4,-219,-185,-297,-136,-73
-78,-175,-97,126,9,-136,4,-214,-185,-292,-136,-73
-73,-170,-97,122,12,-134,4,-214,-180,-292,-136,-73
-68,-170,-102,119,17,-136,4,-209,-180,-297,-136,-73
-68,-175,-107,122,19,-141,4,-209,-180,-292,-141,-73
-73,-175,-102,124,14,-139,4,-204,-180,-287,-141,-78
-78,-180,-102,129,12,-141,4,-204,-180,-287,-141,-78
-82,-185,-102,134,9,-143,4,-209,-180,-287,-141,-78
-78,-190,-112,134,17,-151,4,-214,-180,-283,-131,-78
-78,-190,-112,134,17,-151,0,-214,-180,-278,-126,-78
-82,-190,-107,136,12,-148,0,-214,-180,-278,-131,-68
-82,-190,-107,136,12,-148,0,-214,-185,-283,-131,-63
-82,-190,-107,136,12,-148,0,-219,-185,-283,-122,-63
-82,-190,-107,136,12,-148,0,-224,-190,-283,-122,-63
-78,-190,-112,134,17,-151,-4,-234,-195,-283,-122,-68
-78,-190,-112,134,17,-151,-4,-244,-195,-283,-122,-73
-78,-190,-112,134,17,-151,-9,-248,-195,-283,-126,-68
-82,-190,-107,136,12,-148,-14,-248,-195,-283,-131,-73
-87,-180,-92,134,2,-136,-19,-248,-200,-287,-126,-73
-87,-180,-92,134,2,-136,-19,-253,-204,-297,-131,-73
-87,-185,-97,136,4,-141,-14,-258,-204,-297,-131,-68
-87,-195,-107,141,9,-151,-9,-263,-204,-297,-131,-68
-87,-195,-107,141,9,-151,-14,-263,-209,-292,-126,-68
-87,-195,-107,141,9,-151,-19,-263,-214,-292,-126,-68
-87,-190,-102,139,7,-146,-19,-263,-214,-292,-126,-68
-87,-185,-97,136,4,-141,-19,-263,-214,-292,-126,-68
-87,-185,-97,136,4,-141,-14,-268,-219,-292,-126,-68
-87,-185,-97,136,4,-141,-9,-273,-224,-287,-126,-68
-87,-185,-97,136,4,-141,-9,-283,-229,-287,-126,-68
-87,-180,-92,134,2,-136,-9,-283,-229,-287,-126,-68
-82,-165,-82,124,0,-124,-19,-278,-224,-292,-122,-63
-82,-156,-73,119,-4,-114,-24,-273,-214,-287,-117,-63
-78,-136,-58,107,-9,-97,-19,-268,-209,-278,-112,-53
-73,-126,-53,100,-9,-90,-14,-268,-204,-278,-102,-43
-68,-122,-53,95,-7,-87,-14,-268,-204,-263,-97,-43
-68,-122,-53,95,-7,-87,-19,-268,-204,-248,-92,-43
-63,-117,-53,90,-4,-85,-14,-268,-204,-248,-92,-39
-53,-107,-53,80,0,-80,-24,-268,-200,-244,-87,-39
-53,-97,-43,75,-4,-70,-24,-263,-195,-244,-78,-43
-58,-82,-24,70,-17,-53,-24,-268,-190,-229,-68,-39
-29,-43,-14,36,-7,-29,-39,-268,-180,-214,-43,-9
-14,-39,-24,26,4,-31,-53,-268,-180,-214,-43,4
-14,-34,-19,24,2,-26,-58,-287,-195,-214,-48,4
-9,-29,-19,19,4,-24,-73,-302,-209,-219,-48,4
4,-29,-34,12,19,-31,-92,-317,-224,-224,-48,4
19,-24,-43,2,31,-34,-117,-341,-239,-224,-48,9
34,-9,-43,-12,39,-26,-126,-341,-239,-229,-43,9
39,-19,-58,-9,48,-39,-131,-341,-248,-229,-39,9
34,-34,-68,0,51,-51,-141,-341,-248,-239,-43,9
4,-68,-73,31,39,-70,-131,-331,-248,-248,-58,4
-9,-102,-92,56,41,-97,-97,-312,-239,-248,-63,-9
-29,-107,-78,68,24,-92,-63,-292,-229,-248,-63,-14
-39,-126,-87,82,24,-107,-53,-292,-229,-244,-78,-24
-58,-141,-82,100,12,-112,-43,-292,-234,-253,-87,-34
-82,-170,-87,126,2,-129,-43,-302,-244,-263,-97,-43
-102,-185,-82,143,-9,-134,-39,-312,-253,-273,-107,-58
-117,-209,-92,163,-12,-151,-34,-312,-263,-297,-131,-68
-126,-224,-97,175,-14,-161,-29,-312,-268,-297,-131,-78
-126,-229,-102,178,-12,-165,-24,-312,-268,-297,-131,-78
-131,-234,-102,183,-14,-168,-19,-312,-268,-297,-131,-78
-131,-234,-102,183,-14,-168,-19,-307,-268,-302,-131,-82
-131,-239,-107,185,-12,-173,-24,-307,-268,-302,-136,-87
-131,-244,-112,187,-9,-178,-29,-307,-268,-302,-131,-92
-136,-244,-107,190,-14,-175,-29,-307,-268,-297,-126,-92
-151,-244,-92,197,-29,-168,-29,-312,-273,-292,-126,-82
-165,-287,-122,226,-21,-204,19,-273,-278,-317,-151,-107
-209,-385,-175,297,-17,-280,126,-185,-268,-385,-219,-170
-229,-444,-214,336,-7,-329,239,-78,-214,-424,-248,-204
-214,-419,-204,317,-4,-312,234,-68,-185,-395,-234,-204
-126,-302,-175,214,24,-239,122,-82,-87,-273,-146,-131
102,-97,-200,-2,151,-148,-97,-24,131,-48,34,4
351,141,-209,-246,280,-34,-341,68,439,229,263,161
683,478,-204,-580,444,136,-649,161,800,624,570,395
1019,873,-146,-946,583,363,-961,248,1171,1015,907,658
1439,1390,-48,-1415,744,671,-1351,341,1610,1512,1332,1000
1693,1864,170,-1778,761,1017,-1786,92,1747,1859,1678,1307
1732,2254,522,-1993,605,1388,-2337,-722,1498,2025,1908,1595
1498,1966,468,-1732,514,1217,-2386,-1068,1039,1551,1620,1439
951,1483,531,-1217,209,1007,-2108,-1664,-82,780,1093,1137
527,1151,624,-839,-48,888,-1893,-2166,-1010,283,751,927
366,775,409,-570,-21,592,-1542,-1908,-1112,39,488,673
224,492,268,-358,-21,380,-1141,-1488,-971,-112,283,453
97,317,219,-207,-61,268,-736,-1063,-717,-156,161,302
24,170,146,-97,-61,158,-439,-707,-497,-170,87,190
-34,19,53,7,-43,36,-229,-488,-380,-209,4,82
-82,-122,-39,102,-21,-80,-48,-302,-273,-239,-58,-4
-136,-195,-58,165,-39,-126,48,-209,-219,-248,-97,-68
-161,-234,-73,197,-43,-153,87,-161,-195,-258,-117,-92
-170,-268,-97,219,-36,-183,107,-141,-190,-283,-136,-112
-175,-283,-107,229,-34,-195,112,-126,-185,-292,-146,-122
-175,-283,-107,229,-34,-195,131,-112,-175,-292,-146,-122
-180,-287,-107,234,-36,-197,141,-92,-165,-287,-146,-122
-175,-297,-122,236,-26,-209,156,-63,-151,-283,-146,-126
-170,-292,-122,231,-24,-207,170,-48,-141,-278,-146,-131
-170,-292,-122,231,-24,-207,185,-39,-136,-278,-146,-131
-170,-292,-122,231,-24,-207,200,-24,-122,-273,-146,-131
-165,-292,-126,229,-19,-209,204,-4,-117,-268,-146,-131
-165,-287,-122,226,-21,-204,219,9,-107,-263,-146,-131
-165,-287,-122,226,-21,-204,224,24,-92,-253,-141,-131
-170,-287,-117,229,-26,-202,234,48,-78,-253,-131,-122
-170,-283,-112,226,-29,-197,239,58,-63,-253,-131,-122
-165,-283,-117,224,-24,-200,244,78,-48,-248,-131,-122
-156,-278,-122,217,-17,-200,253,107,-24,-244,-131,-122
-146,-278,-131,212,-7,-204,273,131,-4,-234,-126,-122
-146,-278,-131,212,-7,-204,283,161,14,-229,-126,-122
-146,-278,-131,212,-7,-204,297,195,34,-224,-117,-122
-141,-273,-131,207,-4,-202,307,214,53,-214,-117,-126
-136,-278,-141,207,2,-209,331,244,82,-200,-112,-126
-131,-263,-131,197,0,-197,356,283,102,-190,-102,-126
-126,-258,-131,192,2,-195,366,322,122,-180,-97,-122
-126,-248,-122,187,-2,-185,400,370,165,-165,-97,-117
-122,-244,-122,183,0,-183,434,419,204,-156,-87,-117
-112,-234,-122,173,4,-178,458,478,253,-141,-78,-112
-97,-219,-122,158,12,-170,483,536,292,-126,-68,-107
-87,-219,-131,153,21,-175,517,605,326,-117,-63,-102
-78,-209,-131,143,26,-170,546,678,375,-102,-58,-92
-78,-200,-122,139,21,-161,585,736,429,-92,-43,-87
-63,-175,-112,119,24,-143,619,805,478,-78,-34,-82
-48,-156,-107,102,29,-131,649,878,531,-58,-9,-68
-39,-146,-107,92,34,-126,683,946,585,-39,0,-58
-24,-131,-107,78,41,-119,722,1015,639,-9,14,-58
-9,-117,-107,63,48,-112,741,1068,683,14,34,-53
0,-92,-92,46,46,-92,756,1117,722,34,48,-39
9,-73,-82,31,46,-78,761,1161,751,53,63,-29
24,-43,-68,9,46,-56,766,1190,785,68,78,-14
34,-24,-58,-4,46,-41,771,1205,805,87,92,0
53,-4,-58,-24,56,-31,771,1224,819,107,107,14
63,14,-48,-39,56,-17,756,1229,829,117,117,24
78,34,-43,-56,61,-4,746,1200,824,136,126,34
82,48,-34,-65,58,7,717,1161,800,146,131,43
87,73,-14,-80,51,29,649,1088,771,146,151,53
92,92,0,-92,46,46,580,995,722,146,161,73
92,112,19,-102,36,65,527,883,649,151,161,82
92,122,29,-107,31,75,458,751,566,151,161,87
87,117,29,-102,29,73,370,619,478,131,156,92
82,117,34,-100,24,75,297,492,380,112,141,92
68,87,19,-78,24,53,239,370,292,78,117,78
48,63,14,-56,17,39,185,258,219,48,97,68
34,43,9,-39,12,26,136,165,146,14,78,53
24,24,0,-24,12,12,92,73,73,0,63,39
4,-4,-9,0,7,-7,68,-4,9,-29,43,19
-14,-29,-14,21,0,-21,48,-63,-43,-63,29,9
-29,-53,-24,41,-2,-39,19,-97,-73,-82,14,4
-48,-82,-34,65,-7,-58,4,-131,-102,-92,0,-4
-58,-92,-34,75,-12,-63,0,-156,-131,-117,-9,-14
-68,-107,-39,87,-14,-73,0,-180,-151,-126,-24,-14
-73,-112,-39,92,-17,-75,-14,-200,-165,-126,-39,-34
-82,-122,-39,102,-21,-80,-14,-209,-175,-126,-43,-39
-87,-131,-43,109,-21,-87,-14,-219,-185,-131,-43,-39
-87,-131,-43,109,-21,-87,-14,-224,-190,-136,-43,-39
-92,-131,-39,112,-26,-85,-14,-234,-195,-151,-43,-39
-92,-136,-43,114,-24,-90,-14,-234,-200,-161,-43,-48
-92,-141,-48,117,-21,-95,-19,-234,-200,-161,-48,-48
-97,-156,-58,126,-19,-107,-24,-239,-204,-161,-53,-43
-107,-156,-48,131,-29,-102,-24,-244,-209,-165,-58,-43
-117,-156,-39,136,-39,-97,-24,-244,-209,-161,-58,-43
-117,-156,-39,136,-39,-97,-24,-244,-209,-161,-58,-43
-117,-156,-39,136,-39,-97,-24,-244,-209,-161,-58,-48
-112,-146,-34,129,-39,-90,-29,-244,-214,-165,-58,-48
-112,-141,-29,126,-41,-85,-29,-244,-214,-161,-58,-53
-112,-146,-34,129,-39,-90,-14,-244,-214,-161,-63,-53
-107,-146,-39,126,-34,-92,-9,-244,-214,-161,-63,-48
-107,-146,-39,126,-34,-92,-4,-239,-209,-151,-58,-48
-112,-146,-34,129,-39,-90,-4,-234,-204,-141,-58,-48
-112,-146,-34,129,-39,-90,0,-229,-200,-146,-58,-48
-112,-146,-34,129,-39,-90,0,-224,-190,-146,-58,-53
-112,-146,-34,129,-39,-90,0,-219,-190,-151,-58,-53
-107,-156,-48,131,-29,-102,-4,-214,-195,-151,-58,-53
-107,-156,-48,131,-29,-102,-4,-214,-190,-146,-58,-53
-107,-156,-48,131,-29,-102,-4,-214,-180,-146,-58,-53
-107,-161,-53,134,-26,-107,-4,-204,-180,-151,-58,-53
-107,-165,-58,136,-24,-112,-4,-200,-180,-151,-68,-53
-107,-161,-53,134,-26,-107,0,-195,-180,-146,-73,-58
-102,-156,-53,129,-24,-104,4,-195,-180,-141,-73,-58
-102,-156,-53,129,-24,-104,4,-200,-180,-141,-73,-58
-97,-161,-63,129,-17,-112,4,-204,-180,-141,-68,-58
-97,-165,-68,131,-14,-117,-4,-204,-180,-141,-68,-63
-102,-170,-68,136,-17,-119,-9,-204,-180,-141,-73,-63
-107,-170,-63,139,-21,-117,-9,-204,-185,-146,-73,-63
-112,-170,-58,141,-26,-114,-9,-204,-185,-146,-63,-63
-112,-165,-53,139,-29,-109,-9,-204,-190,-141,-63,-63
-107,-161,-53,134,-26,-107,-14,-209,-195,-136,-63,-63
-102,-161,-58,131,-21,-109,-14,-214,-200,-136,-63,-68
-97,-156,-58,126,-19,-107,-19,-219,-204,-136,-63,-63
-102,-161,-58,131,-21,-109,-24,-219,-204,-141,-68,-63
-102,-156,-53,129,-24,-104,-24,-219,-204,-141,-68,-63
-107,-151,-43,129,-31,-97,-24,-224,-209,-141,-68,-58
-102,-151,-48,126,-26,-100,-14,-229,-214,-136,-73,-53
-97,-151,-53,124,-21,-102,-19,-229,-214,-141,-73,-53
-97,-156,-58,126,-19,-107,-24,-234,-214,-151,-73,-58
-102,-156,-53,129,-24,-104,-24,-234,-214,-141,-68,-58
-107,-156,-48,131,-29,-102,-29,-234,-214,-136,-68,-58
-107,-156,-48,131,-29,-102,-34,-234,-214,-136,-68,-58
-107,-156,-48,131,-29,-102,-39,-234,-214,-136,-68,-58
-112,-161,-48,136,-31,-104,-39,-234,-214,-136,-68,-58
-112,-161,-48,136,-31,-104,-39,-239,-214,-131,-63,-53
-117,-165,-48,141,-34,-107,-39,-244,-219,-131,-63,-53
-117,-161,-43,139,-36,-102,-39,-244,-219,-131,-58,-48
-112,-141,-29,126,-41,-85,-39,-244,-219,-131,-53,-43
-112,-126,-14,119,-48,-70,-34,-244,-214,-122,-48,-43
-107,-107,0,107,-53,-53,-29,-239,-209,-107,-43,-39
-102,-97,4,100,-53,-46,-24,-239,-204,-102,-34,-34
-92,-87,4,90,-48,-41,-24,-239,-204,-97,-34,-34
-87,-82,4,85,-46,-39,-29,-239,-204,-92,-34,-34
-82,-78,4,80,-43,-36,-29,-234,-200,-92,-39,-24
-73,-68,4,70,-39,-31,-43,-229,-190,-87,-39,-19
-68,-58,9,63,-39,-24,-34,-224,-185,-87,-29,-14
-68,-43,24,56,-46,-9,-24,-229,-180,-73,-19,0
-39,-4,34,21,-36,14,-43,-229,-170,-53,4,14
-24,0,24,12,-24,12,-63,-229,-170,-48,4,14
-24,4,29,9,-26,17,-78,-248,-185,-43,0,14
-19,9,29,4,-24,19,-102,-263,-200,-43,0,14
-4,14,19,-4,-12,17,-126,-278,-214,-48,4,19
9,24,14,-17,-2,19,-156,-302,-229,-48,9,29
24,34,9,-29,7,21,-161,-302,-229,-48,9,29
29,19,-9,-24,19,4,-161,-302,-239,-43,9,29
14,0,-14,-7,14,-7,-156,-302,-239,-53,4,24
-24,-39,-14,31,-4,-26,-131,-292,-239,-63,-9,14
-39,-73,-34,56,-2,-53,-107,-273,-229,-63,-14,-4
-58,-78,-19,68,-19,-48,-82,-253,-219,-63,-14,-14
-68,-97,-29,82,-19,-63,-68,-253,-219,-63,-29,-24
-87,-112,-24,100,-31,-68,-53,-253,-224,-78,-39,-34
-107,-141,-34,124,-36,-87,-53,-258,-239,-87,-48,-43
-122,-156,-34,139,-43,-95,-48,-263,-253,-97,-58,-58
-136,-180,-43,158,-46,-112,-48,-263,-263,-126,-82,-68
-146,-195,-48,170,-48,-122,-48,-263,-268,-131,-82,-78
-146,-195,-48,170,-48,-122,-43,-263,-268,-131,-82,-78
-151,-195,-43,173,-53,-119,-39,-263,-268,-131,-82,-78
-151,-190,-39,170,-56,-114,-39,-258,-268,-131,-82,-78
-151,-190,-39,170,-56,-114,-43,-258,-268,-126,-87,-78
-151,-195,-43,173,-53,-119,-43,-258,-263,-131,-87,-82
-156,-195,-39,175,-58,-117,-39,-258,-258,-131,-87,-82
-170,-214,-43,192,-63,-129,-24,-244,-258,-141,-102,-92
-185,-278,-92,231,-46,-185,39,-185,-258,-180,-141,-136
-209,-336,-126,273,-41,-231,122,-97,-234,-209,-180,-175
-209,-356,-146,283,-31,-251,209,9,-165,-209,-180,-185
-156,-307,-151,231,-2,-229,146,9,-117,-161,-136,-165
-29,-165,-136,97,53,-151,-24,-14,0,-19,-19,-73
219,63,-156,-141,187,-46,-263,53,258,239,180,82
488,326,-161,-407,324,82,-527,156,605,551,429,258
834,663,-170,-749,502,246,-858,229,956,946,741,507
1185,1058,-126,-1122,656,466,-1195,297,1317,1337,1083,785
1532,1542,9,-1537,761,775,-1605,248,1625,1761,1464,1102
1712,1981,268,-1847,722,1124,-2059,-141,1629,2034,1766,1385
1659,2196,536,-1927,561,1366,-2454,-922,1249,2030,1854,1556
1332,1732,400,-1532,466,1066,-2347,-1234,658,1385,1424,1283
839,1307,468,-1073,185,888,-2049,-1722,-346,707,956,1005
468,1034,566,-751,-48,800,-1815,-2117,-1156,302,673,819
322,688,366,-505,-21,527,-1429,-1766,-1122,122,439,585
195,434,239,-314,-21,336,-995,-1254,-844,34,263,385
68,278,209,-173,-70,244,-624,-873,-624,-4,156,253
-4,151,156,-73,-80,153,-361,-561,-439,-14,97,161
-63,14,78,24,-70,46,-175,-361,-326,-43,19,53
-112,-112,0,112,-56,-56,-19,-195,-224,-63,-39,-34
-156,-170,-14,163,-70,-92,68,-112,-185,-73,-68,-78
-170,-195,-24,183,-73,-109,97,-73,-175,-82,-78,-82
-175,-214,-39,195,-68,-126,117,-53,-165,-97,-92,-102
-175,-214,-39,195,-68,-126,122,-39,-156,-97,-97,-112
-175,-214,-39,195,-68,-126,136,-24,-146,-102,-102,-112
-180,-219,-39,200,-70,-129,141,-4,-136,-102,-107,-112
-180,-234,-53,207,-63,-143,156,19,-126,-97,-107,-117
-180,-234,-53,207,-63,-143,170,29,-122,-92,-107,-122
-180,-234,-53,207,-63,-143,180,39,-117,-92,-102,-122
-180,-234,-53,207,-63,-143,190,53,-102,-87,-97,-122
-175,-239,-63,207,-56,-151,195,78,-92,-82,-97,-122
-175,-239,-63,207,-56,-151,209,97,-78,-78,-97,-122
-170,-239,-68,204,-51,-153,214,107,-63,-68,-97,-126
-170,-239,-68,204,-51,-153,224,126,-48,-68,-92,-122
-175,-234,-58,204,-58,-146,234,141,-34,-68,-92,-122
-175,-234,-58,204,-58,-146,244,165,-19,-63,-92,-122
-170,-224,-53,197,-58,-139,253,195,4,-58,-92,-122
-165,-219,-53,192,-56,-136,273,219,24,-48,-87,-122
-165,-219,-53,192,-56,-136,283,248,39,-43,-87,-122
-165,-219,-53,192,-56,-136,297,283,53,-39,-78,-122
-156,-209,-53,183,-51,-131,312,312,78,-29,-73,-117
-146,-209,-63,178,-41,-136,341,351,112,-14,-63,-107
-141,-195,-53,168,-43,-124,370,400,141,-4,-53,-107
-136,-190,-53,163,-41,-122,385,448,170,4,-48,-102
-136,-180,-43,158,-46,-112,419,502,214,19,-48,-97
-131,-175,-43,153,-43,-109,453,556,253,29,-39,-97
-122,-165,-43,143,-39,-104,483,610,302,39,-29,-92
-107,-151,-43,129,-31,-97,512,663,341,48,-19,-87
-97,-146,-48,122,-24,-97,546,732,385,63,-9,-87
-87,-131,-43,109,-21,-87,575,805,444,82,0,-82
-87,-122,-34,104,-26,-78,614,868,497,97,14,-78
-73,-97,-24,85,-24,-61,649,941,546,117,24,-73
-58,-78,-19,68,-19,-48,673,1015,595,136,43,-58
-48,-68,-19,58,-14,-43,702,1083,644,156,48,-48
-34,-48,-14,41,-9,-31,736,1151,697,180,63,-43
-19,-29,-9,24,-4,-19,751,1205,741,200,82,-34
-4,0,4,2,-4,2,771,1263,790,219,97,-19
9,24,14,-17,-2,19,780,1317,829,239,112,-9
24,48,24,-36,0,36,785,1342,858,248,122,0
34,63,29,-48,2,46,790,1351,873,263,131,9
53,82,29,-68,12,56,780,1366,878,283,146,24
63,102,39,-82,12,70,756,1366,878,292,156,34
78,122,43,-100,17,82,736,1322,873,307,165,43
82,136,53,-109,14,95,697,1268,849,312,170,53
87,156,68,-122,9,112,629,1176,805,312,190,63
92,170,78,-131,7,124,561,1063,741,312,200,82
92,180,87,-136,2,134,492,941,658,307,200,97
92,180,87,-136,2,134,409,800,566,297,200,107
92,175,82,-134,4,129,326,663,478,273,195,107
92,175,82,-134,4,129,258,531,380,248,180,102
68,151,82,-109,-7,117,200,409,287,214,156,87
39,131,92,-85,-26,112,146,297,209,185,136,78
19,107,87,-63,-34,97,97,209,136,146,107,63
4,82,78,-43,-36,80,53,122,63,126,82,48
-14,53,68,-19,-41,61,29,53,14,107,63,24
-34,29,63,2,-48,46,9,4,-24,82,48,9
-43,14,58,14,-51,36,-14,-34,-58,73,39,4
-58,-4,53,31,-56,24,-24,-73,-92,73,29,-4
-68,-14,53,41,-61,19,-29,-97,-117,39,14,-14
-78,-29,48,53,-63,9,-29,-122,-131,19,-4,-14
-82,-34,48,58,-65,7,-48,-141,-146,19,-14,-29
-92,-43,48,68,-70,2,-53,-151,-156,19,-14,-29
-97,-53,43,75,-70,-4,-53,-161,-170,4,-19,-34
-97,-53,43,75,-70,-4,-53,-165,-180,-9,-24,-39
-102,-48,53,75,-78,2,-53,-175,-180,-14,-24,-39
-102,-48,53,75,-78,2,-53,-175,-180,-14,-24,-48
-102,-48,53,75,-78,2,-53,-175,-180,-14,-29,-48
-107,-58,48,82,-78,-4,-53,-180,-185,-14,-34,-43
-112,-58,53,85,-82,-2,-48,-185,-190,-19,-34,-43
-117,-58,58,87,-87,0,-43,-185,-190,-14,-29,-43
-117,-58,58,87,-87,0,-43,-185,-195,-19,-29,-43
-117,-58,58,87,-87,0,-43,-185,-200,-24,-29,-48
-117,-53,63,85,-90,4,-53,-185,-200,-29,-29,-48
-122,-53,68,87,-95,7,-58,-185,-195,-24,-29,-53
-117,-58,58,87,-87,0,-53,-185,-195,-24,-34,-53
-107,-58,48,82,-78,-4,-58,-185,-195,-24,-34,-48
-107,-58,48,82,-78,-4,-53,-180,-195,-24,-34,-48
-112,-58,53,85,-82,-2,-53,-175,-195,-24,-39,-48
-122,-58,63,90,-92,2,-43,-175,-195,-34,-39,-48
-131,-58,73,95,-102,7,-39,-175,-190,-39,-39,-53
-131,-58,73,95,-102,7,-39,-170,-190,-43,-43,-53
-126,-68,58,97,-92,-4,-43,-165,-195,-43,-48,-53
-126,-63,63,95,-95,0,-43,-165,-195,-39,-48,-58
-126,-58,68,92,-97,4,-43,-165,-190,-39,-48,-63
-126,-63,63,95,-95,0,-43,-161,-190,-43,-43,-63
-126,-68,58,97,-92,-4,-43,-161,-190,-43,-48,-63
-131,-68,63,100,-97,-2,-48,-156,-190,-43,-53,-63
-131,-68,63,100,-97,-2,-53,-156,-190,-43,-53,-58
-131,-68,63,100,-97,-2,-53,-156,-190,-39,-53,-58
-126,-73,53,100,-90,-9,-53,-156,-190,-34,-48,-58
-126,-68,58,97,-92,-4,-58,-156,-190,-34,-48,-58
-131,-63,68,97,-100,2,-58,-156,-190,-34,-53,-53
-131,-63,68,97,-100,2,-58,-161,-195,-39,-58,-58
-131,-63,68,97,-100,2,-58,-165,-195,-39,-53,-63
-131,-63,68,97,-100,2,-58,-165,-200,-39,-53,-63
-126,-63,63,95,-95,0,-63,-170,-204,-39,-53,-63
-126,-63,63,95,-95,0,-58,-170,-204,-39,-53,-63
-126,-58,68,92,-97,4,-58,-170,-204,-39,-53,-53
-131,-73,58,102,-95,-7,-63,-170,-204,-39,-53,-53
-131,-78,53,104,-92,-12,-63,-170,-204,-34,-48,-53
-136,-73,63,104,-100,-4,-73,-175,-204,-34,-43,-53
-131,-73,58,102,-95,-7,-73,-180,-204,-29,-43,-53
-131,-73,58,102,-95,-7,-73,-180,-209,-34,-43,-53
-136,-78,58,107,-97,-9,-78,-185,-214,-39,-48,-58
-136,-78,58,107,-97,-9,-78,-190,-214,-39,-48,-58
-136,-78,58,107,-97,-9,-78,-195,-214,-39,-48,-58
-136,-78,58,107,-97,-9,-78,-195,-214,-39,-48,-58
-136,-73,63,104,-100,-4,-78,-195,-219,-39,-48,-58
-136,-68,68,102,-102,0,-78,-195,-224,-43,-48,-58
-136,-58,78,97,-107,9,-78,-195,-229,-43,-48,-58
-141,-63,78,102,-109,7,-87,-195,-229,-43,-48,-58
-141,-58,82,100,-112,12,-97,-195,-229,-43,-43,-53
-141,-48,92,95,-117,21,-92,-195,-219,-34,-39,-53
-136,-29,107,82,-122,39,-87,-190,-209,-24,-34,-43
-131,-19,112,75,-122,46,-73,-190,-204,-24,-24,-34
-126,-9,117,68,-122,53,-63,-190,-204,-19,-24,-34
-126,-4,122,65,-124,58,-68,-190,-204,-14,-24,-34
-122,0,122,61,-122,61,-68,-190,-204,-14,-24,-29
-112,9,122,51,-117,65,-78,-185,-200,-4,-24,-29
-102,19,122,41,-112,70,-73,-180,-195,0,-19,-24
-97,34,131,31,-114,82,-73,-185,-190,14,-9,-9
-68,73,141,-2,-104,107,-92,-180,-180,29,14,9
-53,78,131,-12,-92,104,-112,-180,-175,29,19,19
-53,78,131,-12,-92,104,-122,-200,-185,29,19,24
-48,78,126,-14,-87,102,-141,-214,-200,29,19,24
-34,78,112,-21,-73,95,-161,-229,-214,29,19,24
-19,82,102,-31,-61,92,-195,-253,-229,29,19,29
-9,92,102,-41,-56,97,-209,-253,-229,24,19,29
4,82,78,-43,-36,80,-219,-253,-244,24,19,29
4,73,68,-39,-31,70,-224,-253,-248,14,14,24
-43,39,82,2,-63,61,-200,-244,-248,4,0,19
-68,4,73,31,-70,39,-175,-224,-239,4,-4,9
-87,0,87,43,-87,43,-146,-204,-224,4,0,4
-97,-19,78,58,-87,29,-131,-204,-219,4,-9,-4
-117,-34,82,75,-100,24,-112,-204,-224,-9,-19,-19
-136,-63,73,100,-104,4,-102,-214,-239,-19,-29,-34
-161,-82,78,122,-119,-2,-97,-224,-253,-29,-39,-48
-185,-112,73,148,-129,-19,-97,-224,-263,-53,-63,-58
-195,-126,68,161,-131,-29,-97,-224,-268,-53,-63,-68
-195,-126,68,161,-131,-29,-92,-224,-268,-53,-63,-68
-200,-126,73,163,-136,-26,-92,-224,-268,-48,-63,-68
-200,-126,73,163,-136,-26,-92,-219,-268,-48,-63,-68
-200,-131,68,165,-134,-31,-92,-209,-268,-48,-68,-68
-200,-136,63,168,-131,-36,-92,-200,-268,-53,-68,-73
-200,-122,78,161,-139,-21,-97,-214,-273,-48,-68,-73
