I, II, III, aVR, aVL, aVF, V1, V2, V3, V4, V5, V6
107,68,-39,-87,73,14,-19,165,214,136,146,39
82,63,-19,-73,51,21,-14,136,175,117,117,24
58,58,0,-58,29,29,-9,107,136,97,87,9
43,48,4,-46,19,26,-4,82,107,68,73,-9
29,39,9,-34,9,24,0,58,78,39,58,-29
19,34,14,-26,2,24,0,43,58,24,43,-39
9,29,19,-19,-4,24,0,29,39,9,29,-48
0,14,14,-7,-7,14,4,24,24,-4,9,-63
-9,0,9,4,-9,4,9,19,9,-19,-9,-78
-14,0,14,7,-14,7,14,9,0,-24,-14,-82
-19,0,19,9,-19,9,19,0,-9,-29,-19,-87
-24,-9,14,17,-19,2,24,0,-14,-34,-29,-97
-29,-19,9,24,-19,-4,29,0,-19,-39,-39,-107
-29,-19,9,24,-19,-4,29,-4,-19,-43,-39,-112
-29,-19,9,24,-19,-4,29,-9,-19,-48,-39,-117
-29,-19,9,24,-19,-4,29,-9,-24,-53,-43,-117
-29,-19,9,24,-19,-4,29,-9,-29,-58,-48,-117
-34,-24,9,29,-21,-7,29,-9,-29,-58,-48,-117
-39,-29,9,34,-24,-9,29,-9,-29,-58,-48,-117
-39,-29,9,34,-24,-9,29,-9,-29,-58,-53,-117
-39,-29,9,34,-24,-9,29,-9,-29,-58,-58,-117
-39,-24,14,31,-26,-4,29,-9,-29,-58,-58,-117
-39,-19,19,29,-29,0,29,-9,-29,-58,-58,-117
-43,-19,24,31,-34,2,29,-9,-29,-53,-58,-117
-48,-19,29,34,-39,4,29,-9,-29,-48,-58,-117
-48,-24,24,36,-36,0,29,-9,-29,-48,-58,-112
-48,-29,19,39,-34,-4,29,-9,-29,-48,-58,-107
-48,-29,19,39,-34,-4,34,-9,-29,-48,-58,-102
-48,-29,19,39,-34,-4,39,-9,-29,-48,-58,-97
-48,-29,19,39,-34,-4,39,-9,-29,-48,-58,-97
-48,-29,19,39,-34,-4,39,-9,-29,-48,-58,-97
-43,-29,14,36,-29,-7,34,-9,-29,-48,-58,-97
-39,-29,9,34,-24,-9,29,-9,-29,-48,-58,-97
-39,-29,9,34,-24,-9,29,-9,-24,-48,-53,-92
-39,-29,9,34,-24,-9,29,-9,-19,-48,-48,-87
-39,-29,9,34,-24,-9,29,-9,-19,-43,-43,-87
-39,-29,9,34,-24,-9,29,-9,-19,-39,-39,-87
-43,-29,14,36,-29,-7,29,-4,-19,-34,-39,-82
-48,-29,19,39,-34,-4,29,0,-19,-29,-39,-78
-48,-29,19,39,-34,-4,29,0,-19,-29,-39,-78
-48,-29,19,39,-34,-4,29,0,-19,-29,-39,-78
-48,-29,19,39,-34,-4,29,0,-14,-24,-39,-73
-48,-29,19,39,-34,-4,29,0,-9,-19,-39,-68
-53,-29,24,41,-39,-2,29,0,-9,-19,-39,-68
-58,-29,29,43,-43,0,29,0,-9,-19,-39,-68
-58,-29,29,43,-43,0,29,0,-9,-19,-39,-68
-58,-29,29,43,-43,0,29,0,-9,-19,-39,-68
-53,-29,24,41,-39,-2,34,4,-4,-19,-39,-63
-48,-29,19,39,-34,-4,39,9,0,-19,-39,-58
-48,-29,19,39,-34,-4,39,9,0,-19,-29,-58
-48,-29,19,39,-34,-4,39,9,0,-19,-19,-58
-48,-29,19,39,-34,-4,39,9,0,-19,-19,-58
-48,-29,19,39,-34,-4,39,9,0,-19,-19,-58
-48,-29,19,39,-34,-4,39,9,0,-14,-19,-53
-48,-29,19,39,-34,-4,39,9,0,-9,-19,-48
-48,-34,14,41,-31,-9,34,4,0,-9,-19,-48
-48,-39,9,43,-29,-14,29,0,0,-9,-19,-48
-48,-39,9,43,-29,-14,29,0,0,-9,-24,-48
-48,-39,9,43,-29,-14,29,0,0,-9,-29,-48
-48,-39,9,43,-29,-14,29,0,-4,-9,-29,-48
-48,-39,9,43,-29,-14,29,0,-9,-9,-29,-48
-48,-39,9,43,-29,-14,29,0,-9,-14,-34,-48
-48,-39,9,43,-29,-14,29,0,-9,-19,-39,-48
-48,-39,9,43,-29,-14,29,0,-9,-24,-39,-48
-48,-39,9,43,-29,-14,29,0,-9,-29,-39,-48
-53,-39,14,46,-34,-12,29,-4,-9,-29,-39,-48
-58,-39,19,48,-39,-9,29,-9,-9,-29,-39,-48
-58,-43,14,51,-36,-14,29,-9,-9,-29,-39,-48
-58,-48,9,53,-34,-19,29,-9,-9,-29,-39,-48
-63,-53,9,58,-36,-21,29,-9,-9,-29,-39,-48
-68,-58,9,63,-39,-24,29,-9,-9,-29,-39,-48
-68,-58,9,63,-39,-24,29,-9,-9,-29,-43,-48
-68,-58,9,63,-39,-24,29,-9,-9,-29,-48,-48
-63,-53,9,58,-36,-21,29,-14,-14,-29,-53,-48
-58,-48,9,53,-34,-19,29,-19,-19,-29,-58,-48
-58,-48,9,53,-34,-19,29,-19,-19,-29,-58,-48
-58,-48,9,53,-34,-19,29,-19,-19,-29,-58,-48
-63,-48,14,56,-39,-17,29,-19,-24,-29,-53,-48
-68,-48,19,58,-43,-14,29,-19,-29,-29,-48,-48
-68,-48,19,58,-43,-14,29,-19,-29,-29,-48,-43
-68,-48,19,58,-43,-14,29,-19,-29,-29,-48,-39
-63,-48,14,56,-39,-17,29,-19,-29,-29,-48,-39
-58,-48,9,53,-34,-19,29,-19,-29,-29,-48,-39
-58,-48,9,53,-34,-19,34,-19,-29,-29,-48,-43
-58,-48,9,53,-34,-19,39,-19,-29,-29,-48,-48
-58,-48,9,53,-34,-19,39,-19,-29,-29,-48,-48
-58,-48,9,53,-34,-19,39,-19,-29,-29,-48,-48
-58,-48,9,53,-34,-19,39,-14,-24,-29,-48,-43
-58,-48,9,53,-34,-19,39,-9,-19,-29,-48,-39
-58,-29,29,43,-43,0,43,0,-9,-19,-43,-34
-58,-9,48,34,-53,19,48,9,0,-9,-39,-29
-63,4,68,29,-65,36,63,24,14,4,-39,-24
-68,19,87,24,-78,53,78,39,29,19,-39,-19
-68,19,87,24,-78,53,78,48,39,29,-19,-9
-68,19,87,24,-78,53,78,58,48,39,0,0
-53,19,73,17,-63,46,78,73,58,48,0,4
-39,19,58,9,-48,39,78,87,68,58,0,9
-39,19,58,9,-48,39,63,78,68,48,0,9
-39,19,58,9,-48,39,48,68,68,39,0,9
-34,9,43,12,-39,26,24,34,39,19,-14,4
-29,0,29,14,-29,14,0,0,9,0,-29,0
-24,-9,14,17,-19,2,-9,-19,-4,-9,-39,-4
-19,-19,0,19,-9,-9,-19,-39,-19,-19,-48,-9
-19,-24,-4,21,-7,-14,-24,-39,-24,-29,-48,-9
-19,-29,-9,24,-4,-19,-29,-39,-29,-39,-48,-9
-24,-29,-4,26,-9,-17,-29,-48,-43,-48,-58,-14
-29,-29,0,29,-14,-14,-29,-58,-58,-58,-68,-19
-39,-34,4,36,-21,-14,-19,-58,-58,-58,-68,-19
-48,-39,9,43,-29,-14,-9,-58,-58,-58,-68,-19
-53,-43,9,48,-31,-17,4,-43,-48,-58,-68,-19
-58,-48,9,53,-34,-19,19,-29,-39,-58,-68,-19
-63,-53,9,58,-36,-21,19,-29,-39,-58,-68,-19
-63,-53,9,58,-36,-21,19,-29,-39,-58,-68,-19
-68,-58,9,63,-39,-24,19,-29,-43,-58,-73,-19
-68,-58,9,63,-39,-24,19,-29,-43,-58,-73,-24
-63,-63,0,63,-31,-31,19,-24,-39,-58,-78,-24
-58,-73,-14,65,-21,-43,19,-14,-39,-63,-82,-29
-63,-82,-19,73,-21,-51,24,-14,-43,-68,-82,-34
-63,-87,-24,75,-19,-56,24,-14,-43,-68,-82,-34
-68,-82,-14,75,-26,-48,24,-19,-43,-63,-82,-34
-73,-82,-9,78,-31,-46,24,-19,-39,-63,-82,-34
-73,-82,-9,78,-31,-46,29,-19,-39,-68,-82,-34
-73,-82,-9,78,-31,-46,29,-14,-34,-68,-82,-34
-73,-82,-9,78,-31,-46,29,-4,-34,-68,-82,-34
-73,-82,-9,78,-31,-46,24,0,-29,-68,-82,-34
-73,-82,-9,78,-31,-46,24,0,-29,-68,-82,-29
-78,-82,-4,80,-36,-43,24,0,-24,-63,-78,-24
-78,-82,-4,80,-36,-43,24,4,-24,-58,-82,-24
-78,-82,-4,80,-36,-43,29,4,-24,-53,-87,-24
-78,-82,-4,80,-36,-43,29,9,-24,-53,-87,-24
-78,-78,0,78,-39,-39,29,9,-24,-53,-87,-24
-78,-78,0,78,-39,-39,29,9,-19,-53,-87,-24
-78,-78,0,78,-39,-39,29,9,-19,-58,-87,-24
-78,-78,0,78,-39,-39,29,14,-24,-58,-92,-24
-73,-78,-4,75,-34,-41,29,14,-24,-63,-92,-24
-73,-73,0,73,-36,-36,34,14,-24,-63,-87,-24
-73,-73,0,73,-36,-36,34,14,-24,-58,-87,-29
-73,-73,0,73,-36,-36,34,14,-19,-58,-87,-29
-73,-68,4,70,-39,-31,34,14,-19,-58,-87,-24
-73,-68,4,70,-39,-31,34,14,-19,-58,-87,-24
-73,-68,4,70,-39,-31,34,14,-19,-58,-87,-24
-73,-68,4,70,-39,-31,34,14,-19,-58,-87,-24
-73,-68,4,70,-39,-31,34,14,-19,-58,-92,-24
-73,-63,9,68,-41,-26,34,14,-19,-58,-92,-19
-73,-63,9,68,-41,-26,34,14,-19,-58,-92,-14
-73,-58,14,65,-43,-21,34,14,-19,-58,-92,-14
-73,-58,14,65,-43,-21,34,14,-19,-58,-92,-14
-73,-58,14,65,-43,-21,34,14,-19,-58,-92,-9
-73,-58,14,65,-43,-21,34,14,-19,-58,-92,-4
-73,-58,14,65,-43,-21,34,9,-14,-58,-87,-4
-78,-53,24,65,-51,-14,34,-4,-19,-73,-97,-9
-87,-43,43,65,-65,0,29,-34,-68,-92,-112,-24
-112,-29,82,70,-97,26,29,-53,-107,-117,-136,-48
-156,-29,126,92,-141,48,58,-19,-117,-136,-185,-97
-209,-53,156,131,-183,51,112,92,-78,-136,-244,-161
-229,-107,122,168,-175,7,185,263,43,-117,-292,-234
-234,-97,136,165,-185,19,244,361,175,-24,-229,-185
-175,-29,146,102,-161,58,200,170,146,82,-34,14
-43,39,82,2,-63,61,102,-63,39,151,214,278
161,63,-97,-112,129,-17,-63,-370,-122,175,512,590
390,122,-268,-256,329,-73,-273,-756,-297,219,868,966
697,239,-458,-468,578,-109,-585,-1283,-448,346,1424,1517
795,385,-409,-590,602,-12,-790,-1839,-761,326,1673,1805
702,463,-239,-583,470,112,-844,-2318,-1200,58,1337,1639
502,429,-73,-466,287,178,-814,-2542,-1566,-336,678,1141
204,283,78,-244,63,180,-775,-2591,-1966,-902,-87,512
78,180,102,-129,-12,141,-692,-2303,-1961,-1112,-458,156
34,161,126,-97,-46,143,-585,-1830,-1620,-990,-463,78
9,122,112,-65,-51,117,-483,-1337,-1215,-810,-414,29
-39,34,73,2,-56,53,-341,-907,-844,-619,-361,-34
-78,-19,58,48,-68,19,-224,-619,-595,-463,-307,-78
-87,-24,63,56,-75,19,-146,-434,-439,-317,-234,-48
-87,-29,58,58,-73,14,-82,-263,-283,-214,-185,-29
-87,-39,48,63,-68,4,-34,-126,-156,-151,-156,-24
-82,-43,39,63,-61,-2,-4,-48,-73,-97,-126,-14
-78,-53,24,65,-51,-14,19,-9,-48,-68,-107,-9
-78,-53,24,65,-51,-14,34,39,-9,-43,-97,-9
-87,-53,34,70,-61,-9,48,82,34,-39,-97,-4
-92,-53,39,73,-65,-7,53,97,63,-29,-92,-4
-92,-53,39,73,-65,-7,53,102,68,-14,-87,-4
-87,-58,29,73,-58,-14,58,122,73,-4,-82,-4
-87,-58,29,73,-58,-14,63,136,87,-4,-82,-4
-87,-58,29,73,-58,-14,63,146,97,-4,-82,-4
-78,-63,14,70,-46,-24,68,151,102,4,-82,-4
-73,-63,9,68,-41,-26,68,161,112,4,-78,-4
-73,-63,9,68,-41,-26,63,165,122,9,-73,0
-73,-63,9,68,-41,-26,58,175,131,19,-68,0
-63,-63,0,63,-31,-31,58,175,131,19,-68,9
-63,-58,4,61,-34,-26,58,185,141,19,-68,9
-68,-58,9,63,-39,-24,63,190,146,24,-68,9
-68,-63,4,65,-36,-29,68,195,156,24,-63,14
-68,-63,4,65,-36,-29,68,204,161,29,-58,14
-63,-63,0,63,-31,-31,68,214,170,34,-58,14
-63,-63,0,63,-31,-31,68,224,180,39,-58,19
-58,-63,-4,61,-26,-34,68,234,190,43,-48,19
-53,-63,-9,58,-21,-36,68,239,204,43,-53,19
-53,-63,-9,58,-21,-36,63,253,214,48,-48,24
-48,-58,-9,53,-19,-34,63,268,224,58,-48,24
-43,-58,-14,51,-14,-36,63,278,239,68,-43,29
-39,-63,-24,51,-7,-43,63,287,253,73,-34,34
-29,-63,-34,46,2,-48,63,292,268,82,-24,39
-24,-58,-34,41,4,-46,63,312,283,92,-14,39
-19,-58,-39,39,9,-48,68,331,297,102,-9,53
-9,-48,-39,29,14,-43,68,351,317,117,4,58
-4,-48,-43,26,19,-46,68,361,336,131,14,68
4,-43,-48,19,26,-46,73,385,356,151,29,78
14,-39,-53,12,34,-46,68,405,380,161,39,87
19,-34,-53,7,36,-43,63,424,405,175,63,97
29,-29,-58,0,43,-43,63,439,434,195,78,117
43,-19,-63,-12,53,-41,48,458,448,209,97,126
63,-14,-78,-24,70,-46,34,473,468,229,117,141
78,-4,-82,-36,80,-43,24,492,497,248,141,170
92,4,-87,-48,90,-41,19,497,517,258,161,190
107,19,-87,-63,97,-34,14,507,531,278,180,204
122,29,-92,-75,107,-31,9,517,546,287,190,219
131,24,-107,-78,119,-41,0,527,561,297,200,229
146,24,-122,-85,134,-48,-9,536,575,312,214,244
156,43,-112,-100,134,-34,-9,546,585,317,219,253
161,58,-102,-109,131,-21,-14,546,595,326,219,263
170,63,-107,-117,139,-21,-14,546,600,336,234,268
175,63,-112,-119,143,-24,-19,546,605,351,248,273
180,68,-112,-124,146,-21,-24,551,610,356,253,278
180,73,-107,-126,143,-17,-29,546,614,356,253,283
190,82,-107,-136,148,-12,-34,531,595,356,258,287
195,87,-107,-141,151,-9,-39,502,575,346,258,292
185,82,-102,-134,143,-9,-43,473,546,336,253,302
175,87,-87,-131,131,0,-43,439,502,317,244,307
165,87,-78,-126,122,4,-43,385,468,297,234,302
146,87,-58,-117,102,14,-43,346,419,268,214,292
122,92,-29,-107,75,31,-43,292,366,239,195,283
107,82,-24,-95,65,29,-43,253,312,209,175,258
87,73,-14,-80,51,29,-43,214,268,180,151,229
63,63,0,-63,31,31,-43,165,224,151,131,204
48,63,14,-56,17,39,-39,136,185,112,92,190
29,48,19,-39,4,34,-34,107,146,87,73,170
14,39,24,-26,-4,31,-29,87,117,63,53,151
0,34,34,-17,-17,34,-24,68,82,29,24,126
-4,19,24,-7,-14,21,-14,53,63,14,4,117
-19,9,29,4,-24,19,-9,43,43,-4,-14,102
-29,-4,24,17,-26,9,-9,29,29,-14,-29,92
-34,-14,19,24,-26,2,-9,24,14,-19,-39,87
-34,-19,14,26,-24,-2,-4,19,4,-43,-53,78
-39,-24,14,31,-26,-4,0,14,-9,-58,-63,68
-43,-29,14,36,-29,-7,0,4,-9,-58,-73,63
-48,-29,19,39,-34,-4,0,0,-19,-63,-78,53
-48,-34,14,41,-31,-9,0,-4,-19,-63,-82,53
-48,-34,14,41,-31,-9,4,-4,-19,-68,-87,53
-48,-34,14,41,-31,-9,4,-4,-24,-68,-87,48
-53,-39,14,46,-34,-12,9,-4,-24,-68,-92,39
-53,-39,14,46,-34,-12,9,0,-24,-68,-92,39
-58,-39,19,48,-39,-9,9,4,-24,-73,-92,39
-63,-39,24,51,-43,-7,9,4,-24,-73,-92,43
-63,-39,24,51,-43,-7,9,4,-24,-73,-92,48
-63,-39,24,51,-43,-7,9,4,-19,-73,-92,48
-63,-39,24,51,-43,-7,9,4,-19,-73,-92,48
-68,-39,29,53,-48,-4,14,4,-19,-68,-97,48
-68,-39,29,53,-48,-4,14,4,-19,-68,-102,48
-63,-39,24,51,-43,-7,19,4,-14,-68,-97,48
-63,-39,24,51,-43,-7,19,4,-14,-63,-92,53
-63,-43,19,53,-41,-12,19,9,-14,-58,-82,58
-63,-48,14,56,-39,-17,19,9,-14,-58,-73,58
-63,-48,14,56,-39,-17,19,9,-9,-58,-73,68
-63,-48,14,56,-39,-17,14,9,-4,-63,-68,78
-63,-48,14,56,-39,-17,14,9,-4,-63,-68,78
-63,-43,19,53,-41,-12,14,9,-4,-58,-68,78
-68,-43,24,56,-46,-9,14,14,0,-53,-68,78
-68,-43,24,56,-46,-9,14,14,0,-53,-68,78
-63,-43,19,53,-41,-12,14,14,0,-48,-73,82
-63,-43,19,53,-41,-12,14,14,0,-48,-73,78
-63,-43,19,53,-41,-12,14,14,0,-53,-68,82
-63,-43,19,53,-41,-12,14,19,-4,-58,-63,82
-63,-39,24,51,-43,-7,14,19,-4,-53,-63,87
-63,-39,24,51,-43,-7,14,19,0,-48,-63,87
-58,-34,24,46,-41,-4,14,19,4,-43,-58,92
-58,-29,29,43,-43,0,9,19,4,-43,-58,92
-63,-29,34,46,-48,2,9,19,4,-43,-58,97
-63,-24,39,43,-51,7,9,14,4,-43,-58,102
-63,-24,39,43,-51,7,9,19,4,-43,-53,102
-63,-24,39,43,-51,7,9,19,4,-43,-53,97
-63,-29,34,46,-48,2,9,19,4,-39,-53,97
-63,-34,29,48,-46,-2,9,19,9,-39,-53,102
-63,-34,29,48,-46,-2,9,24,9,-29,-53,107
-63,-39,24,51,-43,-7,9,24,9,-24,-53,112
-63,-39,24,51,-43,-7,9,24,4,-29,-53,112
-58,-39,19,48,-39,-9,9,24,4,-29,-53,112
-58,-34,24,46,-41,-4,9,24,4,-29,-48,112
-63,-34,29,48,-46,-2,9,24,4,-29,-48,107
-58,-34,24,46,-41,-4,9,19,4,-34,-48,107
-53,-34,19,43,-36,-7,9,19,0,-39,-53,102
-53,-34,19,43,-36,-7,9,19,-4,-39,-53,102
-53,-34,19,43,-36,-7,9,19,-4,-39,-58,102
-53,-34,19,43,-36,-7,9,19,-4,-39,-63,102
-58,-29,29,43,-43,0,9,14,-9,-34,-63,102
-58,-34,24,46,-41,-4,19,14,-4,-39,-63,102
-58,-34,24,46,-41,-4,24,14,-4,-39,-63,97
-58,-34,24,46,-41,-4,24,9,-4,-39,-63,97
-58,-34,24,46,-41,-4,19,9,-4,-39,-63,97
-58,-39,19,48,-39,-9,19,14,-4,-39,-63,97
-63,-43,19,53,-41,-12,19,14,-4,-39,-68,97
-63,-43,19,53,-41,-12,19,9,-4,-39,-68,97
-63,-43,19,53,-41,-12,19,4,-9,-48,-68,92
-63,-43,19,53,-41,-12,19,4,-9,-48,-68,87
-68,-43,24,56,-46,-9,19,4,-9,-53,-68,82
-68,-48,19,58,-43,-14,19,4,-9,-53,-68,78
-68,-48,19,58,-43,-14,19,4,-14,-48,-68,73
-68,-48,19,58,-43,-14,19,4,-14,-53,-73,73
-68,-48,19,58,-43,-14,19,4,-14,-58,-78,68
-63,-43,19,53,-41,-12,24,4,-14,-63,-82,68
-63,-43,19,53,-41,-12,24,4,-19,-63,-82,68
-63,-43,19,53,-41,-12,19,4,-19,-58,-82,68
-63,-43,19,53,-41,-12,19,4,-19,-53,-78,68
-63,-43,19,53,-41,-12,19,4,-19,-53,-78,63
-63,-43,19,53,-41,-12,19,4,-19,-53,-78,63
-58,-48,9,53,-34,-19,19,9,-14,-53,-78,63
-58,-48,9,53,-34,-19,19,9,-14,-53,-78,58
-58,-53,4,56,-31,-24,19,9,-19,-58,-82,58
-63,-58,4,61,-34,-26,19,9,-24,-58,-82,58
-63,-48,14,56,-39,-17,24,4,-24,-58,-82,58
-58,-43,14,51,-36,-14,29,4,-14,-53,-82,58
-58,-24,34,41,-46,4,34,9,0,-39,-68,68
-63,-4,58,34,-61,26,43,19,19,-19,-58,82
-63,9,73,26,-68,41,48,34,29,-4,-43,87
-63,14,78,24,-70,46,53,43,43,4,-34,97
-68,24,92,21,-80,58,68,58,48,9,-29,97
-68,24,92,21,-80,58,78,73,53,19,-29,97
-63,24,87,19,-75,56,78,87,68,29,-29,102
-58,19,78,19,-68,48,73,87,78,29,-24,102
-53,14,68,19,-61,41,58,87,87,29,-9,102
-53,14,68,19,-61,41,43,82,82,24,-19,97
-53,4,58,24,-56,31,24,58,53,14,-34,87
-43,0,43,21,-43,21,0,9,24,-4,-39,82
-34,-19,14,26,-24,-2,-14,0,4,-19,-63,73
-24,-19,4,21,-14,-7,-24,-9,-9,-19,-73,73
-24,-14,9,19,-17,-2,-34,-4,-14,-29,-63,78
-24,-9,14,17,-19,2,-34,-4,-24,-39,-63,73
-24,-19,4,21,-14,-7,-39,-24,-39,-53,-73,63
-34,-14,19,24,-26,2,-34,-48,-48,-58,-78,48
-39,-19,19,29,-29,0,-19,-43,-43,-58,-78,48
-48,-29,19,39,-34,-4,-9,-39,-39,-58,-78,48
-58,-39,19,48,-39,-9,4,-24,-34,-58,-78,48
-68,-48,19,58,-43,-14,19,-9,-29,-58,-78,48
-68,-53,14,61,-41,-19,19,-9,-29,-58,-78,43
-68,-53,14,61,-41,-19,19,-9,-34,-58,-82,39
-68,-58,9,63,-39,-24,19,-9,-39,-58,-87,39
-68,-58,9,63,-39,-24,19,-9,-43,-58,-92,34
-68,-63,4,65,-36,-29,19,-9,-39,-58,-97,34
-68,-73,-4,70,-31,-39,19,-4,-39,-63,-102,29
-73,-82,-9,78,-31,-46,24,-4,-43,-68,-102,24
-73,-87,-14,80,-29,-51,24,-4,-43,-68,-102,24
-73,-82,-9,78,-31,-46,24,-4,-43,-63,-102,19
-73,-82,-9,78,-31,-46,24,0,-39,-63,-102,14
-68,-78,-9,73,-29,-43,29,0,-39,-63,-97,14
-63,-73,-9,68,-26,-41,29,4,-34,-58,-92,14
-63,-73,-9,68,-26,-41,34,9,-34,-58,-92,9
-63,-73,-9,68,-26,-41,34,9,-29,-58,-92,4
-63,-73,-9,68,-26,-41,34,9,-29,-58,-92,4
-68,-73,-4,70,-31,-39,34,9,-24,-53,-87,4
-68,-78,-9,73,-29,-43,34,14,-19,-53,-87,4
-68,-82,-14,75,-26,-48,39,14,-14,-53,-87,4
-68,-82,-14,75,-26,-48,39,19,-14,-53,-87,4
-68,-78,-9,73,-29,-43,39,19,-14,-53,-87,4
-68,-78,-9,73,-29,-43,39,19,-14,-48,-87,0
-68,-78,-9,73,-29,-43,39,19,-19,-48,-87,-4
-68,-78,-9,73,-29,-43,39,24,-24,-48,-92,-4
-63,-78,-14,70,-24,-46,39,24,-24,-53,-92,-4
-63,-73,-9,68,-26,-41,43,24,-24,-53,-92,-4
-63,-73,-9,68,-26,-41,43,24,-24,-48,-97,-9
-63,-73,-9,68,-26,-41,43,24,-19,-48,-97,-9
-63,-68,-4,65,-29,-36,43,24,-19,-48,-97,-4
-63,-63,0,63,-31,-31,43,24,-19,-48,-97,-4
-63,-58,4,61,-34,-26,43,24,-19,-48,-97,-4
-63,-58,4,61,-34,-26,43,24,-19,-48,-97,-4
-63,-58,4,61,-34,-26,43,24,-19,-48,-102,-4
-63,-53,9,58,-36,-21,39,24,-19,-48,-102,-4
-63,-53,9,58,-36,-21,34,24,-19,-48,-102,-4
-63,-53,9,58,-36,-21,34,24,-19,-43,-97,-4
-63,-58,4,61,-34,-26,34,24,-19,-39,-92,-4
-63,-58,4,61,-34,-26,39,24,-19,-39,-92,-4
-63,-58,4,61,-34,-26,43,24,-19,-39,-92,-4
-63,-58,4,61,-34,-26,43,19,-19,-34,-87,-4
-68,-53,14,61,-41,-19,43,4,-29,-43,-97,-9
-78,-48,29,63,-53,-9,39,-24,-68,-63,-122,-24
-102,-39,63,70,-82,12,39,-43,-97,-87,-156,-48
-146,-29,117,87,-131,43,68,0,-107,-112,-204,-102
-200,-43,156,122,-178,56,122,122,-68,-117,-263,-170
-219,-107,112,163,-165,2,195,278,43,-102,-302,-239
-224,-107,117,165,-170,4,253,361,165,-14,-229,-185
-156,-39,117,97,-136,39,195,156,122,92,-34,14
-14,29,43,-7,-29,36,82,-92,0,161,214,278
190,73,-117,-131,153,-21,-82,-405,-161,190,531,600
419,151,-268,-285,344,-58,-292,-795,-336,239,907,985
712,263,-448,-488,580,-92,-595,-1322,-492,370,1464,1537
795,405,-390,-600,592,7,-790,-1878,-810,356,1712,1825
712,478,-234,-595,473,122,-849,-2357,-1259,58,1351,1659
522,439,-82,-480,302,178,-824,-2581,-1634,-366,668,1161
229,307,78,-268,75,192,-785,-2610,-2005,-907,-78,546
107,219,112,-163,-2,165,-702,-2303,-1971,-1093,-429,204
68,200,131,-134,-31,165,-595,-1830,-1629,-966,-434,122
48,161,112,-104,-31,136,-492,-1337,-1224,-780,-385,68
-4,68,73,-31,-39,70,-346,-912,-854,-590,-331,-9
-48,9,58,19,-53,34,-224,-629,-605,-434,-278,-68
-63,4,68,29,-65,36,-146,-444,-448,-283,-204,-39
-68,0,68,34,-68,34,-82,-273,-292,-175,-156,-19
-73,-14,58,43,-65,21,-34,-126,-161,-122,-136,-29
-73,-24,48,48,-61,12,-4,-39,-73,-78,-117,-34
-68,-34,34,51,-51,0,19,0,-48,-43,-97,-29
-68,-34,34,51,-51,0,34,48,-9,-14,-87,-29
-68,-34,34,51,-51,0,48,92,29,-9,-87,-24
-63,-34,29,48,-46,-2,53,107,53,0,-82,-24
-63,-34,29,48,-46,-2,53,112,58,14,-78,-29
-58,-39,19,48,-39,-9,58,131,63,24,-73,-34
-58,-39,19,48,-39,-9,63,141,82,24,-73,-34
-58,-39,19,48,-39,-9,63,146,97,24,-73,-34
-53,-43,9,48,-31,-17,68,151,97,34,-73,-34
-53,-43,9,48,-31,-17,68,161,102,34,-68,-34
-53,-43,9,48,-31,-17,68,165,112,29,-63,-29
-53,-43,9,48,-31,-17,68,175,122,29,-58,-29
-43,-43,0,43,-21,-21,68,175,122,29,-58,-29
-43,-39,4,41,-24,-17,68,185,131,29,-58,-39
-43,-39,4,41,-24,-17,68,190,131,34,-58,-39
-39,-43,-4,41,-17,-24,68,195,136,34,-53,-34
-39,-43,-4,41,-17,-24,68,204,141,39,-48,-34
-34,-43,-9,39,-12,-26,68,214,151,43,-48,-34
-34,-43,-9,39,-12,-26,68,224,161,48,-53,-29
-29,-43,-14,36,-7,-29,68,234,170,53,-48,-29
-29,-43,-14,36,-7,-29,68,239,185,58,-48,-29
-34,-43,-9,39,-12,-26,63,253,195,68,-39,-24
-29,-39,-9,34,-9,-24,68,268,204,78,-39,-24
-24,-39,-14,31,-4,-26,73,278,219,87,-34,-19
-19,-43,-24,31,2,-34,73,292,234,92,-24,-19
-9,-43,-34,26,12,-39,73,302,248,102,-14,-19
-4,-39,-34,21,14,-36,68,322,268,112,-4,-24
0,-39,-39,19,19,-39,68,341,287,122,0,-14
9,-34,-43,12,26,-39,68,361,307,136,14,-9
14,-39,-53,12,34,-46,68,370,326,151,24,0
24,-34,-58,4,41,-46,68,395,346,170,39,9
34,-29,-63,-2,48,-46,58,414,370,180,48,19
39,-24,-63,-7,51,-43,53,434,395,195,73,29
48,-19,-68,-14,58,-43,53,448,424,214,87,48
63,-9,-73,-26,68,-41,48,468,439,229,107,58
82,-4,-87,-39,85,-46,43,483,458,248,126,73
97,0,-97,-48,97,-48,34,502,488,268,146,97
112,4,-107,-58,109,-51,29,507,507,278,161,112
126,19,-107,-73,117,-43,24,517,522,302,185,126
141,29,-112,-85,126,-41,19,527,536,317,200,141
156,34,-122,-95,139,-43,9,527,546,326,209,151
175,43,-131,-109,153,-43,0,527,556,341,224,165
185,53,-131,-119,158,-39,-4,536,566,346,239,175
190,58,-131,-124,161,-36,-14,536,575,356,248,185
200,68,-131,-134,165,-31,-14,536,585,356,253,190
204,73,-131,-139,168,-29,-19,536,595,361,258,195
209,78,-131,-143,170,-26,-24,536,595,366,263,200
209,82,-126,-146,168,-21,-29,527,595,366,263,204
219,92,-126,-156,173,-17,-34,512,575,370,268,209
224,97,-126,-161,175,-14,-39,483,556,366,268,214
214,97,-117,-156,165,-9,-43,453,527,361,268,214
204,107,-97,-156,151,4,-43,419,483,346,263,209
195,107,-87,-151,141,9,-43,366,448,326,253,204
175,107,-68,-141,122,19,-43,326,400,297,234,195
151,107,-43,-129,97,31,-43,273,346,263,214,185
136,92,-43,-114,90,24,-43,234,292,229,195,161
117,82,-34,-100,75,24,-39,200,248,200,170,136
92,73,-19,-82,56,26,-34,156,204,170,151,117
78,73,-4,-75,41,34,-29,122,161,131,107,97
58,58,0,-58,29,29,-24,87,117,107,82,73
39,48,9,-43,14,29,-19,68,92,87,63,53
19,43,24,-31,-2,34,-14,48,63,58,34,29
9,29,19,-19,-4,24,0,34,39,43,19,19
-9,19,29,-4,-19,24,9,24,14,24,4,4
-19,4,24,7,-21,14,9,9,4,9,-9,-9
-24,-4,19,14,-21,7,9,4,-4,0,-19,-19
-24,-9,14,17,-19,2,14,0,-14,-19,-34,-34
-29,-14,14,21,-21,0,19,-4,-29,-29,-43,-48
-34,-19,14,26,-24,-2,19,-9,-29,-29,-53,-53
-39,-19,19,29,-29,0,19,-9,-39,-34,-58,-63
-39,-24,14,31,-26,-4,14,-14,-43,-34,-63,-63
-39,-24,14,31,-26,-4,14,-14,-48,-39,-68,-63
-39,-24,14,31,-26,-4,14,-14,-53,-39,-68,-63
-43,-29,14,36,-29,-7,19,-14,-53,-39,-73,-68
-43,-29,14,36,-29,-7,19,-14,-53,-39,-73,-73
-48,-29,19,39,-34,-4,19,-14,-53,-43,-73,-78
-48,-24,24,36,-36,0,19,-14,-53,-43,-73,-78
-43,-19,24,31,-34,2,19,-14,-53,-43,-73,-78
-43,-19,24,31,-34,2,19,-19,-48,-48,-73,-78
-43,-19,24,31,-34,2,19,-24,-48,-53,-73,-78
-48,-19,29,34,-39,4,24,-24,-48,-48,-73,-78
-48,-19,29,34,-39,4,24,-24,-48,-48,-73,-78
-43,-19,24,31,-34,2,29,-24,-43,-48,-68,-78
-43,-19,24,31,-34,2,29,-24,-43,-43,-63,-73
-43,-19,24,31,-34,2,29,-19,-43,-39,-63,-73
-43,-19,24,31,-34,2,29,-19,-43,-39,-63,-78
-43,-19,24,31,-34,2,29,-19,-43,-34,-63,-78
-43,-19,24,31,-34,2,24,-19,-43,-34,-58,-78
-43,-19,24,31,-34,2,19,-19,-43,-34,-58,-78
-43,-14,29,29,-36,7,14,-19,-43,-29,-58,-78
-43,-14,29,29,-36,7,14,-14,-39,-29,-58,-78
-39,-14,24,26,-31,4,14,-14,-39,-34,-58,-78
-34,-14,19,24,-26,2,14,-14,-43,-29,-58,-73
-34,-14,19,24,-26,2,14,-14,-48,-29,-53,-78
-29,-14,14,21,-21,0,14,-14,-43,-29,-48,-73
-24,-14,9,19,-17,-2,14,-9,-43,-29,-43,-73
-24,-9,14,17,-19,2,19,-4,-43,-24,-43,-68
-24,-9,14,17,-19,2,24,0,-39,-19,-43,-68
-19,-9,9,14,-14,0,24,0,-34,-14,-39,-63
-19,-9,9,14,-14,0,19,0,-34,-14,-39,-63
-24,-9,14,17,-19,2,19,4,-34,-14,-39,-63
-24,-4,19,14,-21,7,19,4,-34,-14,-39,-63
-24,-4,19,14,-21,7,19,9,-34,-9,-34,-63
-24,-4,19,14,-21,7,19,9,-34,-4,-34,-68
-19,-4,14,12,-17,4,19,4,-34,0,-34,-68
-14,-4,9,9,-12,2,19,0,-29,0,-34,-63
-14,0,14,7,-14,7,19,4,-29,0,-34,-63
-14,0,14,7,-14,7,19,4,-29,-4,-34,-63
-9,4,14,2,-12,9,19,4,-29,-9,-34,-63
0,9,9,-4,-4,9,19,4,-24,-9,-34,-63
0,9,9,-4,-4,9,19,4,-24,-9,-29,-63
-4,4,9,0,-7,7,19,4,-24,-9,-29,-68
-4,4,9,0,-7,7,19,0,-24,-9,-29,-68
-4,4,9,0,-7,7,19,0,-29,-9,-34,-73
-4,0,4,2,-4,2,19,0,-29,-9,-34,-73
-4,-4,0,4,-2,-2,19,0,-24,-9,-39,-73
-4,-9,-4,7,0,-7,19,4,-24,-14,-43,-73
-9,-9,0,9,-4,-4,19,4,-29,-14,-43,-73
-14,-14,0,14,-7,-7,24,4,-29,-19,-43,-73
-19,-14,4,17,-12,-4,24,4,-34,-19,-43,-78
-19,-14,4,17,-12,-4,24,0,-34,-24,-43,-78
-19,-14,4,17,-12,-4,19,0,-34,-29,-43,-78
-19,-14,4,17,-12,-4,19,4,-34,-29,-43,-78
-24,-14,9,19,-17,-2,19,4,-34,-29,-48,-78
-24,-14,9,19,-17,-2,14,0,-34,-24,-48,-78
-24,-14,9,19,-17,-2,9,-4,-39,-29,-48,-82
-24,-9,14,17,-19,2,9,-4,-39,-29,-48,-87
-29,-4,24,17,-26,9,9,-4,-39,-34,-48,-92
-34,-9,24,21,-29,7,9,-4,-39,-34,-53,-92
-39,-9,29,24,-34,9,9,-4,-43,-29,-58,-92
-39,-14,24,26,-31,4,9,-4,-43,-29,-58,-92
-39,-19,19,29,-29,0,9,-4,-43,-29,-58,-97
-34,-14,19,24,-26,2,14,-4,-43,-34,-63,-97
-34,-14,19,24,-26,2,14,-4,-48,-34,-63,-97
-34,-14,19,24,-26,2,14,-4,-48,-34,-63,-97
-34,-14,19,24,-26,2,19,-4,-48,-34,-58,-97
-34,-14,19,24,-26,2,19,-4,-48,-34,-58,-102
-34,-14,19,24,-26,2,19,-4,-48,-34,-58,-102
-29,-19,9,24,-19,-4,19,-4,-43,-34,-58,-102
-29,-19,9,24,-19,-4,19,-9,-43,-34,-58,-107
-29,-19,9,24,-19,-4,19,-9,-48,-39,-63,-112
-34,-19,14,26,-24,-2,19,-9,-53,-39,-63,-117
-34,-19,14,26,-24,-2,19,-14,-58,-43,-68,-117
-29,-24,4,26,-17,-9,19,-14,-53,-43,-73,-117
-29,-9,19,19,-24,4,24,-14,-48,-39,-63,-117
-34,4,39,14,-36,21,34,-9,-39,-29,-58,-112
-34,19,53,7,-43,36,39,4,-29,-14,-39,-107
-34,24,58,4,-46,41,43,14,-14,-4,-24,-97
-39,39,78,0,-58,58,58,29,-4,0,-19,-92
-39,43,82,-2,-61,63,68,43,4,9,-19,-87
-34,48,82,-7,-58,65,78,68,24,24,-19,-82
-29,48,78,-9,-53,63,82,78,39,29,-14,-82
-24,48,73,-12,-48,61,73,92,58,43,9,-73
-24,53,78,-14,-51,65,63,102,63,53,9,-68
-24,43,68,-9,-46,56,48,102,53,58,0,-73
-14,39,53,-12,-34,46,29,78,43,53,0,-73
-9,14,24,-2,-17,19,9,39,4,19,-14,-82
-4,9,14,-2,-9,12,-4,0,-29,0,-14,-82
-4,9,14,-2,-9,12,-24,-4,-34,-9,-19,-82
-4,9,14,-2,-9,12,-34,-14,-43,-19,-34,-92
0,-9,-9,4,4,-9,-39,-24,-58,-39,-43,-102
-4,-14,-9,9,2,-12,-39,-39,-68,-48,-48,-112
-4,-14,-9,9,2,-12,-34,-63,-87,-63,-63,-117
-19,-19,0,19,-9,-9,-19,-78,-97,-68,-68,-122
-29,-19,9,24,-19,-4,-4,-68,-92,-68,-68,-117
-39,-19,19,29,-29,0,9,-58,-87,-68,-68,-117
-39,-19,19,29,-29,0,14,-48,-82,-63,-63,-117
-39,-19,19,29,-29,0,19,-39,-78,-58,-58,-117
-43,-29,14,36,-29,-7,19,-34,-73,-58,-58,-122
-43,-34,9,39,-26,-12,19,-29,-73,-58,-58,-122
-48,-39,9,43,-29,-14,19,-29,-73,-58,-63,-126
-48,-39,9,43,-29,-14,19,-29,-73,-58,-63,-131
-48,-43,4,46,-26,-19,19,-29,-68,-58,-68,-131
-48,-53,-4,51,-21,-29,19,-24,-68,-63,-73,-136
-53,-58,-4,56,-24,-31,24,-24,-73,-68,-73,-141
-53,-58,-4,56,-24,-31,24,-24,-73,-68,-73,-141
-53,-53,0,53,-26,-26,24,-24,-73,-58,-73,-136
-53,-53,0,53,-26,-26,24,-19,-68,-53,-73,-131
-53,-53,0,53,-26,-26,29,-19,-68,-53,-73,-131
-53,-53,0,53,-26,-26,29,-14,-63,-48,-73,-131
-53,-53,0,53,-26,-26,34,-9,-63,-48,-73,-131
-53,-53,0,53,-26,-26,34,-9,-58,-48,-73,-131
-53,-53,0,53,-26,-26,39,-9,-58,-48,-73,-131
-58,-53,4,56,-31,-24,43,-9,-53,-43,-68,-131
-58,-53,4,56,-31,-24,43,-4,-53,-43,-68,-131
-58,-53,4,56,-31,-24,48,-4,-53,-43,-68,-131
-58,-53,4,56,-31,-24,48,0,-53,-43,-68,-131
-58,-48,9,53,-34,-19,48,0,-53,-43,-68,-131
-58,-48,9,53,-34,-19,48,0,-48,-39,-68,-131
-58,-48,9,53,-34,-19,48,0,-48,-39,-68,-131
-58,-48,9,53,-34,-19,48,4,-53,-39,-73,-131
-53,-48,4,51,-29,-21,48,4,-53,-43,-73,-131
-53,-43,9,48,-31,-17,48,4,-58,-48,-68,-136
-53,-43,9,48,-31,-17,43,4,-63,-48,-68,-146
-53,-43,9,48,-31,-17,43,4,-58,-48,-68,-146
-53,-39,14,46,-34,-12,43,4,-58,-48,-68,-141
-53,-39,14,46,-34,-12,43,4,-58,-48,-68,-141
-53,-39,14,46,-34,-12,43,4,-58,-48,-68,-141
-58,-39,19,48,-39,-9,48,4,-58,-48,-68,-141
-63,-39,24,51,-43,-7,53,4,-58,-48,-73,-141
-63,-34,29,48,-46,-2,53,4,-53,-48,-73,-141
-63,-34,29,48,-46,-2,53,4,-48,-48,-73,-141
-58,-29,29,43,-43,0,53,4,-48,-48,-73,-141
-53,-29,24,41,-39,-2,53,4,-48,-48,-73,-141
-53,-29,24,41,-39,-2,53,4,-48,-48,-73,-141
-53,-29,24,41,-39,-2,53,4,-48,-48,-73,-141
-53,-29,24,41,-39,-2,53,0,-48,-43,-68,-141
-58,-24,34,41,-46,4,53,-14,-58,-53,-78,-146
-78,-19,58,48,-68,19,48,-43,-97,-73,-97,-151
-112,-9,102,61,-107,46,48,-63,-126,-97,-126,-165
-146,4,151,70,-148,78,68,-34,-141,-112,-165,-214
-190,-4,185,97,-187,90,112,73,-107,-107,-214,-278
-219,-82,136,151,-178,26,200,263,14,-102,-273,-366
-234,-97,136,165,-185,19,273,380,146,-24,-219,-331
-161,-39,122,100,-141,41,234,244,180,102,-53,-161
-14,19,34,-2,-24,26,141,63,136,190,165,73
200,48,-151,-124,175,-51,-19,-239,-19,185,424,351
439,112,-326,-275,383,-107,-224,-619,-190,200,741,692
766,214,-551,-490,658,-168,-541,-1180,-370,317,1268,1229
883,346,-536,-614,710,-95,-751,-1771,-712,287,1488,1503
800,434,-366,-617,583,34,-814,-2298,-1195,-4,1180,1356
610,409,-200,-509,405,104,-795,-2571,-1605,-424,551,878
292,292,0,-292,146,146,-766,-2649,-2015,-951,-156,307
146,219,73,-183,36,146,-692,-2391,-2020,-1122,-468,9
107,224,117,-165,-4,170,-585,-1927,-1703,-1000,-453,-48
87,209,122,-148,-17,165,-483,-1444,-1322,-819,-385,-78
24,112,87,-68,-31,100,-341,-1000,-932,-624,-331,-141
-29,48,78,-9,-53,63,-224,-697,-663,-463,-278,-185
-43,39,82,2,-63,61,-141,-497,-507,-312,-195,-161
-48,29,78,9,-63,53,-73,-312,-351,-204,-136,-146
-53,14,68,19,-61,41,-24,-156,-209,-141,-117,-151
-53,4,58,24,-56,31,4,-58,-112,-87,-97,-151
-48,-4,43,26,-46,19,29,-19,-87,-53,-73,-146
-48,-4,43,26,-46,19,43,29,-48,-24,-58,-146
-53,-9,43,31,-48,17,63,78,-4,-19,-58,-141
-53,-14,39,34,-46,12,73,97,24,-9,-53,-141
-53,-14,39,34,-46,12,73,102,29,4,-48,-136
-48,-19,29,34,-39,4,78,122,34,14,-43,-131
-48,-19,29,34,-39,4,78,136,48,14,-43,-131
-48,-19,29,34,-39,4,73,146,58,14,-43,-131
-43,-19,24,31,-34,2,78,151,58,24,-43,-136
-43,-14,29,29,-36,7,78,161,63,24,-39,-141
-43,-14,29,29,-36,7,82,165,73,19,-39,-136
-43,-14,29,29,-36,7,87,175,82,19,-39,-136
-34,-14,19,24,-26,2,87,175,82,19,-39,-136
-34,-9,24,21,-29,7,87,185,92,19,-39,-146
-34,-9,24,21,-29,7,87,185,97,24,-39,-141
-29,-14,14,21,-21,0,87,185,107,24,-34,-131
-29,-19,9,24,-19,-4,87,195,112,29,-29,-131
-24,-24,0,24,-12,-12,87,204,122,34,-29,-131
-24,-24,0,24,-12,-12,92,214,131,39,-29,-131
-19,-24,-4,21,-7,-14,97,224,141,43,-19,-136
-14,-24,-9,19,-2,-17,97,229,156,48,-19,-136
-14,-24,-9,19,-2,-17,92,244,165,58,-9,-131
-9,-19,-9,14,0,-14,87,258,170,68,-9,-131
-4,-19,-14,12,4,-17,82,268,180,78,-4,-126
0,-24,-24,12,12,-24,82,283,195,82,0,-122
9,-24,-34,7,21,-29,82,292,209,92,4,-117
14,-19,-34,2,24,-26,78,312,229,102,14,-122
19,-19,-39,0,29,-29,78,331,248,112,19,-112
29,-9,-39,-9,34,-24,78,351,268,126,34,-107
34,-9,-43,-12,39,-26,78,361,287,141,43,-97
43,-4,-48,-19,46,-26,78,385,302,156,58,-87
53,0,-53,-26,53,-26,68,405,322,161,68,-78
63,4,-58,-34,61,-26,68,424,346,175,87,-68
78,9,-68,-43,73,-29,73,439,375,195,97,-48
92,19,-73,-56,82,-26,63,453,390,209,117,-39
112,24,-87,-68,100,-31,53,463,409,229,136,-24
131,29,-102,-80,117,-36,43,483,439,248,161,0
151,34,-117,-92,134,-41,39,488,458,258,180,14
165,43,-122,-104,143,-39,34,497,473,278,200,29
180,48,-131,-114,156,-41,29,507,488,287,209,43
195,53,-141,-124,168,-43,19,512,502,297,219,53
214,63,-151,-139,183,-43,9,517,517,312,234,68
224,73,-151,-148,187,-39,9,531,527,317,248,78
229,78,-151,-153,190,-36,4,536,536,326,258,87
239,87,-151,-163,195,-31,4,536,541,336,263,92
244,92,-151,-168,197,-29,0,536,546,351,268,97
253,97,-156,-175,204,-29,-4,541,551,356,273,102
258,102,-156,-180,207,-26,-9,536,556,356,273,107
263,107,-156,-185,209,-24,-14,527,546,361,278,112
263,107,-156,-185,209,-24,-19,502,536,356,278,117
258,107,-151,-183,204,-21,-24,473,507,351,273,122
253,117,-136,-185,195,-9,-24,439,463,336,263,122
244,117,-126,-180,185,-4,-24,385,434,317,258,117
224,117,-107,-170,165,4,-24,346,390,287,244,107
200,122,-78,-161,139,21,-24,292,341,263,224,102
185,112,-73,-148,129,19,-24,253,292,239,204,82
161,107,-53,-134,107,26,-19,219,248,209,185,63
131,102,-29,-117,80,36,-14,175,204,180,170,48
117,102,-14,-109,65,43,-9,141,161,141,131,34
97,87,-9,-92,53,39,-4,107,117,117,112,14
78,78,0,-78,39,39,0,82,92,97,92,-4
58,73,14,-65,21,43,4,58,63,68,63,-29
53,58,4,-56,24,31,14,43,39,53,48,-43
39,48,9,-43,14,29,19,34,14,34,34,-63
24,39,14,-31,4,26,19,14,0,24,19,-78
14,34,19,-24,-2,26,19,4,-14,19,9,-87
14,29,14,-21,0,21,19,0,-24,0,-9,-97
9,24,14,-17,-2,19,19,-4,-39,-9,-24,-107
4,19,14,-12,-4,17,19,-9,-39,-14,-29,-112
0,19,19,-9,-9,19,19,-9,-48,-24,-29,-122
0,14,14,-7,-7,14,19,-14,-48,-24,-34,-122
0,14,14,-7,-7,14,24,-14,-48,-29,-39,-122
0,19,19,-9,-9,19,24,-19,-53,-29,-39,-122
-4,19,24,-7,-14,21,29,-24,-53,-29,-43,-126
-4,19,24,-7,-14,21,29,-24,-53,-29,-43,-126
-9,19,29,-4,-19,24,29,-24,-53,-34,-43,-126
-14,19,34,-2,-24,26,29,-19,-58,-34,-43,-126
-14,19,34,-2,-24,26,29,-14,-63,-34,-43,-126
-14,19,34,-2,-24,26,34,-14,-58,-34,-43,-126
-14,19,34,-2,-24,26,39,-14,-58,-34,-43,-126
-19,19,39,0,-29,29,43,-14,-58,-29,-43,-126
-19,19,39,0,-29,29,43,-14,-58,-29,-43,-126
-14,19,34,-2,-24,26,43,-14,-53,-29,-39,-126
-14,19,34,-2,-24,26,39,-14,-53,-24,-34,-122
-9,19,29,-4,-19,24,39,-9,-53,-19,-39,-122
-4,19,24,-7,-14,21,39,-9,-53,-19,-43,-126
-4,19,24,-7,-14,21,39,-9,-53,-19,-43,-126
-4,19,24,-7,-14,21,34,-9,-53,-24,-39,-126
-4,19,24,-7,-14,21,34,-9,-53,-29,-39,-126
-4,24,29,-9,-17,26,34,-9,-53,-29,-39,-126
-9,24,34,-7,-21,29,34,-4,-48,-24,-34,-126
-9,24,34,-7,-21,29,34,-4,-48,-24,-29,-126
-4,24,29,-9,-17,26,34,-4,-48,-19,-29,-117
-4,24,29,-9,-17,26,34,-4,-48,-19,-24,-117
-4,24,29,-9,-17,26,34,-4,-43,-19,-19,-112
-4,24,29,-9,-17,26,34,0,-43,-19,-14,-112
-4,29,34,-12,-19,31,34,0,-43,-14,-19,-112
-4,29,34,-12,-19,31,34,0,-39,-9,-24,-117
0,29,29,-14,-14,29,34,0,-34,-4,-19,-112
0,29,29,-14,-14,29,29,0,-34,-4,-19,-112
-4,24,29,-9,-17,26,34,4,-34,-4,-14,-112
-4,24,29,-9,-17,26,39,4,-34,-4,-9,-112
-4,24,29,-9,-17,26,39,9,-29,-4,-4,-107
-4,24,29,-9,-17,26,39,9,-24,-4,-4,-107
-4,24,29,-9,-17,26,39,9,-24,0,-4,-107
-4,24,29,-9,-17,26,39,9,-19,0,-4,-102
-4,24,29,-9,-17,26,39,14,-19,4,-4,-107
-4,19,24,-7,-14,21,39,14,-19,4,-4,-112
-4,19,24,-7,-14,21,39,14,-24,0,-4,-112
0,19,19,-9,-9,19,39,14,-24,0,-4,-112
4,24,19,-14,-7,21,34,14,-24,0,0,-107
4,24,19,-14,-7,21,29,14,-24,0,0,-107
4,24,19,-14,-7,21,29,9,-24,-4,0,-107
4,24,19,-14,-7,21,29,9,-29,-9,-4,-112
4,24,19,-14,-7,21,29,9,-29,-9,-4,-112
4,24,19,-14,-7,21,29,9,-24,-9,-9,-112
4,19,14,-12,-4,17,29,9,-24,-9,-14,-112
0,19,19,-9,-9,19,29,4,-29,-4,-14,-112
-4,14,19,-4,-12,17,34,4,-29,-9,-9,-112
-9,14,24,-2,-17,19,34,4,-34,-9,-4,-117
-9,14,24,-2,-17,19,39,0,-34,-9,-4,-117
-9,14,24,-2,-17,19,39,0,-34,-9,-4,-117
-4,14,19,-4,-12,17,39,4,-34,-9,-4,-117
-4,14,19,-4,-12,17,39,4,-34,-9,-9,-117
-4,14,19,-4,-12,17,39,0,-34,-9,-9,-117
-4,14,19,-4,-12,17,39,-4,-39,-19,-9,-122
-4,19,24,-7,-14,21,39,-4,-39,-19,-14,-122
-9,24,34,-7,-21,29,39,-4,-39,-24,-19,-122
-9,19,29,-4,-19,24,39,-4,-39,-24,-19,-126
-9,19,29,-4,-19,24,39,-4,-43,-19,-19,-131
-9,14,24,-2,-17,19,34,-4,-43,-19,-19,-131
-9,9,19,0,-14,14,29,-4,-43,-19,-19,-136
-9,14,24,-2,-17,19,34,-4,-43,-24,-24,-136
-14,14,29,0,-21,21,34,-4,-48,-24,-24,-136
-14,14,29,0,-21,21,34,-4,-48,-24,-24,-136
-14,14,29,0,-21,21,39,-4,-48,-24,-19,-136
-14,19,34,-2,-24,26,39,-4,-53,-24,-19,-141
-14,24,39,-4,-26,31,39,-4,-58,-24,-19,-141
-9,19,29,-4,-19,24,34,-4,-53,-24,-19,-141
-9,19,29,-4,-19,24,29,-9,-53,-24,-19,-146
-9,14,24,-2,-17,19,29,-9,-58,-29,-24,-146
-14,9,24,2,-19,17,29,-9,-63,-29,-24,-146
-14,9,24,2,-19,17,29,-14,-68,-34,-29,-146
-9,4,14,2,-12,9,29,-14,-63,-34,-34,-146
-4,9,14,-2,-9,12,24,-19,-63,-39,-34,-151
-4,14,19,-4,-12,17,24,-19,-58,-39,-39,-151
-4,24,29,-9,-17,26,29,-9,-58,-29,-24,-151
-4,24,29,-9,-17,26,34,-4,-53,-24,-14,-146
-9,39,48,-14,-29,43,43,0,-43,-19,-9,-141
-9,43,53,-17,-31,48,48,4,-34,-9,-9,-136
-4,58,63,-26,-34,61,68,34,-14,9,-4,-122
0,68,68,-34,-34,68,82,48,0,19,4,-112
4,68,63,-36,-29,65,92,73,29,34,29,-102
4,73,68,-39,-31,70,102,92,43,43,29,-97
4,73,68,-39,-31,70,92,122,53,58,29,-97
14,78,63,-46,-24,70,78,126,63,63,39,-92
19,68,48,-43,-14,58,63,117,53,48,29,-97
24,78,53,-51,-14,65,53,107,48,48,34,-92
24,78,53,-51,-14,65,24,73,34,39,29,-92
24,78,53,-51,-14,65,4,34,14,29,14,-102
34,48,14,-41,9,31,-9,9,-14,4,4,-112
34,34,0,-34,17,17,-19,-19,-39,-9,0,-122
43,29,-14,-36,29,7,-29,-34,-53,-24,-9,-126
48,19,-29,-34,39,-4,-34,-43,-63,-34,-14,-131
34,19,-14,-26,24,2,-29,-48,-78,-43,-29,-136
29,14,-14,-21,21,0,-14,-53,-87,-58,-48,-141
24,14,-9,-19,17,2,-4,-58,-87,-58,-48,-141
24,14,-9,-19,17,2,0,-68,-87,-58,-48,-141
14,9,-4,-12,9,2,9,-53,-82,-48,-39,-136
9,9,0,-9,4,4,19,-39,-78,-39,-29,-136
4,9,4,-7,0,7,24,-34,-73,-39,-29,-141
0,9,9,-4,-4,9,29,-29,-68,-39,-29,-146
0,4,4,-2,-2,4,29,-24,-68,-39,-29,-146
0,0,0,0,0,0,29,-19,-68,-39,-29,-146
0,0,0,0,0,0,29,-19,-73,-39,-34,-146
0,0,0,0,0,0,29,-19,-73,-39,-34,-151
0,-4,-4,2,2,-4,29,-19,-68,-39,-39,-151
0,-14,-14,7,7,-14,29,-14,-68,-43,-43,-156
-4,-19,-14,12,4,-17,34,-14,-73,-48,-43,-161
-4,-19,-14,12,4,-17,34,-14,-73,-48,-43,-161
-9,-14,-4,12,-2,-9,34,-14,-68,-43,-43,-161
-14,-14,0,14,-7,-7,34,-9,-58,-43,-43,-161
-14,-14,0,14,-7,-7,39,-9,-58,-43,-43,-161
-14,-14,0,14,-7,-7,39,-4,-53,-39,-43,-161
-14,-14,0,14,-7,-7,43,0,-53,-39,-43,-161
-14,-14,0,14,-7,-7,43,0,-48,-39,-43,-161
-14,-14,0,14,-7,-7,43,0,-48,-39,-43,-161
-19,-14,4,17,-12,-4,43,0,-43,-34,-39,-161
-19,-9,9,14,-14,0,43,0,-43,-34,-39,-161
-19,-4,14,12,-17,4,48,-4,-43,-34,-39,-161
-14,-4,9,9,-12,2,48,0,-48,-34,-39,-161
-9,0,9,4,-9,4,48,0,-53,-34,-39,-161
-9,0,9,4,-9,4,48,0,-48,-29,-39,-161
-9,0,9,4,-9,4,48,0,-48,-29,-39,-161
-9,0,9,4,-9,4,48,4,-53,-29,-43,-161
-4,0,4,2,-4,2,48,4,-53,-34,-43,-161
-4,4,9,0,-7,7,53,4,-53,-34,-39,-161
-4,4,9,0,-7,7,53,4,-53,-29,-39,-165
-4,4,9,0,-7,7,53,4,-48,-29,-39,-165
-4,9,14,-2,-9,12,53,4,-48,-29,-39,-161
-4,9,14,-2,-9,12,53,4,-48,-29,-39,-161
-4,9,14,-2,-9,12,53,4,-48,-29,-39,-161
-4,9,14,-2,-9,12,53,4,-48,-34,-39,-161
-4,9,14,-2,-9,12,53,4,-48,-39,-43,-161
-4,14,19,-4,-12,17,48,4,-48,-39,-43,-161
-4,14,19,-4,-12,17,43,4,-48,-39,-43,-161
-4,24,29,-9,-17,26,43,0,-48,-39,-43,-161
-4,29,34,-12,-19,31,43,-4,-48,-39,-43,-161
-4,29,34,-12,-19,31,48,-4,-48,-39,-43,-161
-4,29,34,-12,-19,31,53,-4,-48,-39,-43,-161
-9,24,34,-7,-21,29,53,-9,-53,-39,-43,-165
-19,24,43,-2,-31,34,53,-24,-68,-53,-58,-175
-43,29,73,7,-58,51,58,-39,-107,-68,-82,-190
-82,39,122,21,-102,80,68,-43,-136,-87,-117,-214
-117,34,151,41,-134,92,97,9,-122,-92,-151,-263
-161,4,165,78,-163,85,151,141,-58,-78,-195,-326
-156,-43,112,100,-134,34,204,258,48,-43,-195,-336
-136,-29,107,82,-122,39,244,302,165,63,-82,-224
-14,34,48,-9,-31,41,161,107,151,161,117,-19
180,97,-82,-139,131,7,24,-131,58,219,370,248
405,131,-273,-268,339,-70,-161,-502,-126,204,619,536
653,200,-453,-427,553,-126,-390,-951,-326,209,927,888
868,292,-575,-580,722,-141,-644,-1488,-585,209,1229,1224
873,414,-458,-644,666,-21,-790,-2054,-1005,63,1224,1298
717,448,-268,-583,492,90,-810,-2430,-1424,-248,834,1039
453,370,-82,-412,268,143,-746,-2552,-1771,-688,122,448
204,268,63,-236,70,165,-697,-2488,-2000,-1039,-370,29
126,209,82,-168,21,146,-605,-2088,-1825,-1034,-468,-117
87,195,107,-141,-9,151,-497,-1634,-1483,-888,-429,-151
68,161,92,-114,-12,126,-395,-1161,-1078,-683,-336,-156
14,82,68,-48,-26,75,-263,-790,-756,-507,-283,-204
-29,39,68,-4,-48,53,-156,-561,-556,-366,-229,-234
-39,34,73,2,-56,53,-92,-385,-409,-239,-156,-204
-39,29,68,4,-53,48,-43,-224,-263,-156,-107,-185
-39,19,58,9,-48,39,0,-102,-151,-102,-87,-180
-34,14,48,9,-41,31,24,-39,-82,-58,-68,-170
-29,4,34,12,-31,19,43,0,-58,-29,-48,-165
-29,4,34,12,-31,19,53,48,-19,-4,-39,-165
-34,4,39,14,-36,21,68,87,14,0,-39,-161
-34,4,39,14,-36,21,73,97,34,9,-34,-161
-34,4,39,14,-36,21,73,102,39,19,-29,-161
-29,0,29,14,-29,14,78,122,43,24,-24,-161
-29,0,29,14,-29,14,82,131,58,24,-19,-161
-29,0,29,14,-29,14,82,136,68,24,-14,-161
-24,-4,19,14,-21,7,87,141,68,29,-14,-161
-24,-4,19,14,-21,7,87,151,73,24,-9,-161
-24,-4,19,14,-21,7,82,156,78,24,-14,-156
-24,-4,19,14,-21,7,78,165,82,29,-19,-156
-14,-9,4,12,-9,-2,78,161,78,29,-19,-156
-14,-9,4,12,-9,-2,78,165,82,29,-19,-165
-19,-9,9,14,-14,0,78,170,87,34,-19,-165
-19,-14,4,17,-12,-4,78,175,97,34,-14,-161
-19,-19,0,19,-9,-9,73,185,102,34,-14,-161
-14,-24,-9,19,-2,-17,68,195,112,34,-19,-161
-19,-24,-4,21,-7,-14,73,204,122,39,-24,-156
-19,-24,-4,21,-7,-14,78,214,131,43,-19,-156
-14,-24,-9,19,-2,-17,78,214,146,43,-19,-156
-14,-24,-9,19,-2,-17,73,224,156,48,-9,-151
-9,-19,-9,14,0,-14,73,239,165,58,-9,-151
-4,-19,-14,12,4,-17,73,248,180,68,-4,-146
0,-24,-24,12,12,-24,73,263,195,78,4,-141
9,-24,-34,7,21,-29,73,273,209,92,14,-136
14,-24,-39,4,26,-31,63,292,229,102,24,-136
19,-29,-48,4,34,-39,58,312,248,112,29,-122
29,-19,-48,-4,39,-34,58,326,268,122,43,-117
34,-19,-53,-7,43,-36,58,331,287,131,53,-107
43,-19,-63,-12,53,-41,63,356,307,151,68,-97
53,-19,-73,-17,63,-46,58,375,331,161,78,-87
63,-14,-78,-24,70,-46,53,395,351,175,97,-78
78,-9,-87,-34,82,-48,53,409,375,195,107,-58
92,0,-92,-46,92,-46,43,429,390,204,126,-48
112,4,-107,-58,109,-51,34,444,409,219,146,-34
126,9,-117,-68,122,-53,24,463,439,239,165,-9
141,14,-126,-78,134,-56,19,468,458,248,180,4
161,29,-131,-95,146,-51,14,478,473,268,195,19
180,39,-141,-109,161,-51,9,488,488,278,200,34
190,43,-146,-117,168,-51,0,492,497,292,209,43
204,53,-151,-129,178,-48,-9,497,507,312,224,58
214,63,-151,-139,183,-43,-9,507,517,317,239,68
219,68,-151,-143,185,-41,-14,507,527,326,248,78
229,73,-156,-151,192,-41,-14,507,531,331,253,82
234,73,-161,-153,197,-43,-19,507,536,341,258,87
239,73,-165,-156,202,-46,-24,512,541,346,268,92
239,73,-165,-156,202,-46,-29,507,546,346,273,97
244,82,-161,-163,202,-39,-34,488,527,351,278,107
244,87,-156,-165,200,-34,-39,453,507,346,278,117
234,87,-146,-161,190,-29,-43,424,483,341,273,122
224,97,-126,-161,175,-14,-43,390,444,326,263,122
214,97,-117,-156,165,-9,-43,336,409,307,253,122
195,97,-97,-146,146,0,-43,297,361,278,234,117
170,107,-63,-139,117,21,-43,244,307,248,214,107
156,102,-53,-129,104,24,-43,204,253,219,195,82
136,92,-43,-114,90,24,-34,175,214,190,165,58
112,82,-29,-97,70,26,-24,136,175,161,141,39
97,87,-9,-92,53,39,-19,107,136,122,102,24
78,78,0,-78,39,39,-14,78,97,97,82,4
63,68,4,-65,29,36,-14,58,73,78,63,-9
48,63,14,-56,17,39,-14,39,43,48,34,-29
43,48,4,-46,19,26,-4,24,24,39,24,-39
29,39,9,-34,9,24,0,14,4,24,14,-53
19,29,9,-24,4,19,0,0,-4,14,0,-68
14,24,9,-19,2,17,0,-4,-14,9,-9,-78
14,19,4,-17,4,12,4,-9,-24,-14,-24,-87
9,14,4,-12,2,9,9,-14,-39,-29,-34,-97
4,9,4,-7,0,7,9,-19,-39,-29,-43,-102
0,9,9,-4,-4,9,9,-19,-48,-34,-48,-112
-9,0,9,4,-9,4,4,-24,-48,-34,-53,-112
-19,-4,14,12,-17,4,4,-24,-48,-39,-58,-112
-19,-4,14,12,-17,4,4,-24,-53,-39,-58,-112
-24,-9,14,17,-19,2,9,-24,-53,-39,-63,-117
-24,-9,14,17,-19,2,9,-24,-53,-39,-63,-117
-29,-9,19,19,-24,4,9,-24,-53,-43,-63,-117
-34,-9,24,21,-29,7,9,-24,-53,-43,-63,-117
-34,-9,24,21,-29,7,9,-24,-53,-43,-63,-117
-34,-9,24,21,-29,7,9,-24,-48,-43,-63,-117
-34,-9,24,21,-29,7,9,-24,-48,-43,-63,-117
-39,-9,29,24,-34,9,14,-24,-53,-39,-63,-117
-39,-9,29,24,-34,9,14,-24,-58,-39,-63,-117
-34,-14,19,24,-26,2,14,-24,-53,-43,-63,-117
-34,-19,14,26,-24,-2,9,-24,-53,-43,-63,-112
-34,-19,14,26,-24,-2,9,-19,-53,-39,-63,-107
-34,-19,14,26,-24,-2,9,-19,-53,-39,-63,-107
-34,-19,14,26,-24,-2,9,-24,-48,-39,-68,-102
-34,-19,14,26,-24,-2,4,-29,-43,-43,-68,-97
-39,-24,14,31,-26,-4,4,-29,-43,-43,-68,-97
-43,-24,19,34,-31,-2,4,-29,-43,-39,-68,-97
-48,-24,24,36,-36,0,4,-24,-39,-34,-63,-97
-48,-24,24,36,-36,0,4,-24,-39,-34,-58,-97
-43,-24,19,34,-31,-2,4,-24,-39,-29,-58,-87
-43,-24,19,34,-31,-2,4,-24,-39,-29,-53,-87
-48,-29,19,39,-34,-4,4,-19,-34,-29,-48,-82
-53,-34,19,43,-36,-7,4,-9,-34,-29,-43,-82
-53,-34,19,43,-36,-7,4,-9,-39,-24,-43,-78
-53,-39,14,46,-34,-12,4,-9,-39,-19,-43,-78
-53,-39,14,46,-34,-12,9,-14,-34,-14,-43,-73
-58,-39,19,48,-39,-9,9,-19,-34,-14,-48,-73
-63,-43,19,53,-41,-12,9,-14,-29,-14,-48,-73
-63,-43,19,53,-41,-12,9,-14,-24,-14,-48,-73
-68,-43,24,56,-46,-9,9,-9,-24,-14,-39,-68
-73,-43,29,58,-51,-7,9,-9,-24,-14,-34,-68
-73,-48,24,61,-48,-12,9,-9,-24,-9,-34,-68
-73,-53,19,63,-46,-17,9,-9,-19,-9,-34,-63
-73,-53,19,63,-46,-17,9,-4,-19,-4,-34,-63
-73,-58,14,65,-43,-21,9,-4,-19,-4,-34,-63
-73,-58,14,65,-43,-21,9,-4,-24,-9,-34,-63
-68,-58,9,63,-39,-24,9,-4,-24,-9,-34,-63
-68,-58,9,63,-39,-24,9,-4,-24,-9,-29,-58
-73,-63,9,68,-41,-26,9,-4,-24,-9,-29,-58
-73,-63,9,68,-41,-26,9,-9,-24,-9,-29,-58
-73,-63,9,68,-41,-26,9,-9,-29,-9,-34,-63
-73,-63,9,68,-41,-26,9,-9,-29,-9,-34,-58
-73,-63,9,68,-41,-26,9,-9,-24,-9,-39,-53
-73,-63,9,68,-41,-26,9,-9,-29,-14,-43,-53
-78,-58,19,68,-48,-19,9,-14,-39,-14,-43,-53
-78,-63,14,70,-46,-24,14,-14,-39,-19,-43,-53
-78,-63,14,70,-46,-24,14,-14,-43,-19,-43,-58
-78,-63,14,70,-46,-24,14,-24,-43,-19,-43,-58
-78,-63,14,70,-46,-24,9,-29,-43,-19,-43,-58
-78,-63,14,70,-46,-24,4,-24,-43,-19,-43,-58
-82,-63,19,73,-51,-21,0,-24,-43,-19,-48,-58
-82,-63,19,73,-51,-21,0,-24,-43,-19,-48,-53
-82,-63,19,73,-51,-21,0,-24,-48,-29,-48,-53
-82,-63,19,73,-51,-21,4,-24,-43,-29,-48,-53
-87,-63,24,75,-56,-19,9,-24,-39,-34,-48,-53
-87,-68,19,78,-53,-24,9,-24,-39,-39,-53,-58
-87,-68,19,78,-53,-24,9,-24,-43,-39,-58,-63
-87,-68,19,78,-53,-24,9,-24,-43,-39,-58,-63
-87,-68,19,78,-53,-24,9,-24,-43,-39,-58,-68
-82,-68,14,75,-48,-26,14,-24,-43,-43,-63,-68
-82,-73,9,78,-46,-31,14,-24,-48,-43,-63,-68
-82,-73,9,78,-46,-31,9,-29,-53,-43,-68,-63
-82,-73,9,78,-46,-31,9,-34,-58,-43,-68,-58
-87,-73,14,80,-51,-29,9,-34,-58,-43,-68,-63
-92,-73,19,82,-56,-26,9,-34,-58,-43,-68,-63
-87,-78,9,82,-48,-34,4,-34,-53,-43,-68,-63
-87,-78,9,82,-48,-34,0,-39,-53,-43,-68,-68
-87,-78,9,82,-48,-34,0,-34,-53,-48,-73,-68
-92,-78,14,85,-53,-31,0,-29,-53,-48,-73,-68
-97,-73,24,85,-61,-24,4,-29,-53,-48,-73,-63
-97,-73,24,85,-61,-24,9,-24,-43,-43,-73,-58
-97,-58,39,78,-68,-9,19,-19,-34,-34,-63,-53
-102,-43,58,73,-80,7,34,-9,-19,-19,-58,-43
-102,-29,73,65,-87,21,39,4,-9,-4,-43,-39
-102,-24,78,63,-90,26,43,14,4,4,-34,-29
-102,-14,87,58,-95,36,48,29,9,9,-29,-24
-97,-14,82,56,-90,34,48,43,14,19,-29,-19
-92,-4,87,48,-90,41,48,58,29,29,-29,-19
-87,0,87,43,-87,43,43,58,39,29,-24,-24
-82,-4,78,43,-80,36,29,58,48,29,-9,-19
-82,-4,78,43,-80,36,14,53,43,24,-19,-19
-82,-14,68,48,-75,26,0,19,9,14,-39,-24
-73,-19,53,46,-63,17,-19,-39,-24,-4,-48,-24
-68,-43,24,56,-46,-9,-34,-43,-34,-24,-63,-29
-63,-48,14,56,-39,-17,-43,-48,-39,-29,-63,-24
-63,-48,14,56,-39,-17,-53,-48,-43,-43,-63,-24
-63,-48,14,56,-39,-17,-53,-53,-53,-58,-73,-34
-63,-58,4,61,-34,-26,-53,-63,-73,-73,-82,-43
-73,-53,19,63,-46,-17,-43,-78,-87,-78,-87,-58
-82,-48,34,65,-58,-7,-24,-73,-82,-73,-82,-48
-97,-48,48,73,-73,0,-9,-68,-78,-68,-78,-39
-97,-58,39,78,-68,-9,-9,-53,-73,-68,-78,-39
-97,-68,29,82,-63,-19,-9,-39,-68,-68,-78,-39
-97,-78,19,87,-58,-29,-4,-39,-68,-68,-82,-48
-97,-82,14,90,-56,-34,0,-34,-68,-68,-92,-53
-102,-87,14,95,-58,-36,0,-34,-68,-68,-102,-58
-107,-87,19,97,-63,-34,0,-29,-63,-68,-112,-63
-107,-92,14,100,-61,-39,0,-29,-58,-68,-107,-58
-107,-102,4,104,-56,-48,0,-24,-58,-73,-102,-58
-107,-107,0,107,-53,-53,4,-24,-63,-78,-97,-58
-102,-107,-4,104,-48,-56,4,-24,-63,-78,-92,-53
-102,-102,0,102,-51,-51,0,-24,-63,-73,-92,-53
-102,-102,0,102,-51,-51,-4,-19,-58,-73,-92,-53
-107,-102,4,104,-56,-48,0,-19,-58,-73,-92,-53
-112,-102,9,107,-61,-46,0,-14,-53,-68,-92,-53
-112,-97,14,104,-63,-41,4,-9,-53,-68,-97,-53
-112,-92,19,102,-65,-36,4,-9,-48,-68,-102,-53
-107,-92,14,100,-61,-39,4,-9,-48,-68,-102,-53
-107,-92,14,100,-61,-39,4,-9,-43,-63,-97,-53
-102,-92,9,97,-56,-41,4,-4,-43,-63,-97,-53
-97,-92,4,95,-51,-43,9,-4,-43,-63,-97,-53
-97,-92,4,95,-51,-43,14,0,-43,-63,-97,-53
-97,-87,9,92,-53,-39,19,0,-43,-63,-97,-53
-97,-87,9,92,-53,-39,19,0,-39,-58,-97,-53
-97,-87,9,92,-53,-39,19,0,-39,-58,-97,-53
-97,-87,9,92,-53,-39,14,4,-43,-58,-102,-53
-92,-87,4,90,-48,-41,9,4,-43,-63,-102,-53
-92,-82,9,87,-51,-36,14,0,-48,-63,-102,-53
-92,-82,9,87,-51,-36,14,-4,-53,-58,-107,-58
-92,-82,9,87,-51,-36,14,-4,-48,-58,-107,-58
-92,-78,14,85,-53,-31,14,-4,-48,-58,-107,-53
-92,-73,19,82,-56,-26,14,4,-43,-58,-102,-48
-92,-68,24,80,-58,-21,14,14,-39,-58,-97,-43
-87,-68,19,78,-53,-24,14,14,-39,-58,-97,-43
-82,-68,14,75,-48,-26,14,14,-39,-58,-102,-43
-82,-63,19,73,-51,-21,19,14,-39,-58,-102,-39
-82,-63,19,73,-51,-21,24,14,-39,-58,-102,-34
-87,-58,29,73,-58,-14,24,9,-39,-63,-107,-34
-92,-58,34,75,-63,-12,24,4,-39,-68,-112,-34
-92,-58,34,75,-63,-12,24,4,-39,-68,-112,-34
-92,-58,34,75,-63,-12,24,4,-39,-68,-112,-34
-92,-58,34,75,-63,-12,19,0,-43,-63,-112,-39
-97,-53,43,75,-70,-4,14,-14,-58,-73,-126,-48
-117,-48,68,82,-92,9,14,-43,-97,-92,-151,-58
-151,-39,112,95,-131,36,19,-63,-126,-117,-185,-78
-185,-29,156,107,-170,63,48,-9,-126,-136,-224,-126
-229,-43,185,136,-207,70,102,122,-78,-136,-273,-190
-244,-102,141,173,-192,19,170,258,34,-107,-287,-234
-244,-97,146,170,-195,24,224,322,156,-4,-190,-156
-170,-29,141,100,-156,56,156,112,112,97,19,63
-24,39,63,-7,-43,51,34,-141,-9,161,283,346
180,82,-97,-131,139,-7,-136,-473,-180,180,580,658
409,161,-248,-285,329,-43,-351,-883,-366,219,936,1034
678,273,-405,-475,541,-65,-639,-1410,-536,326,1429,1532
736,414,-322,-575,529,46,-819,-1966,-868,287,1615,1766
629,463,-165,-546,397,148,-854,-2386,-1298,-19,1220,1542
414,400,-14,-407,214,192,-805,-2552,-1654,-453,502,985
136,258,122,-197,7,190,-766,-2547,-1981,-956,-190,405
29,161,131,-95,-51,146,-683,-2205,-1903,-1102,-488,97
-14,131,146,-58,-80,139,-575,-1732,-1561,-966,-483,24
-39,82,122,-21,-80,102,-473,-1239,-1156,-771,-424,-19
-87,-9,78,48,-82,34,-331,-839,-805,-590,-370,-82
-126,-68,58,97,-92,-4,-214,-580,-575,-444,-317,-126
-131,-63,68,97,-100,2,-146,-400,-424,-307,-244,-87
-126,-58,68,92,-97,4,-92,-234,-273,-214,-195,-58
-126,-58,68,92,-97,4,-43,-112,-156,-156,-175,-53
-122,-53,68,87,-95,7,-14,-48,-82,-107,-156,-43
-117,-63,53,90,-85,-4,4,-4,-53,-78,-126,-39
-117,-63,53,90,-85,-4,14,48,-9,-53,-107,-39
-117,-63,53,90,-85,-4,29,87,24,-39,-102,-24
-112,-63,48,87,-80,-7,34,97,43,-19,-92,-14
-112,-63,48,87,-80,-7,39,107,53,-9,-87,-14
-107,-68,39,87,-73,-14,48,131,63,-4,-82,-14
-107,-68,39,87,-73,-14,53,141,78,-4,-82,-14
-107,-68,39,87,-73,-14,53,146,87,-4,-82,-14
-102,-68,34,85,-68,-17,58,151,87,4,-82,-19
-102,-63,39,82,-70,-12,58,161,92,4,-78,-24
-102,-63,39,82,-70,-12,58,165,102,4,-82,-19
-102,-63,39,82,-70,-12,58,175,112,9,-87,-19
-92,-63,29,78,-61,-17,58,175,112,9,-87,-14
-92,-58,34,75,-63,-12,58,185,122,9,-87,-19
-92,-63,29,78,-61,-17,58,190,126,14,-87,-19
-87,-73,14,80,-51,-29,58,195,136,14,-82,-14
-87,-73,14,80,-51,-29,58,204,141,24,-78,-14
-82,-73,9,78,-46,-31,58,214,151,34,-78,-14
-82,-73,9,78,-46,-31,63,224,161,39,-78,-9
-78,-73,4,75,-41,-34,68,234,170,43,-68,-9
-73,-73,0,73,-36,-36,68,234,185,48,-68,0
-73,-73,0,73,-36,-36,63,244,195,58,-58,14
-68,-68,0,68,-34,-34,63,258,204,63,-58,14
-63,-68,-4,65,-29,-36,63,268,219,68,-53,19
-58,-68,-9,63,-24,-39,63,283,234,73,-43,24
-48,-63,-14,56,-17,-39,63,292,248,82,-34,29
-43,-58,-14,51,-14,-36,53,312,268,92,-19,29
-39,-58,-19,48,-9,-39,48,331,287,102,-9,43
-29,-48,-19,39,-4,-34,48,351,307,117,4,48
-24,-48,-24,36,0,-36,48,361,326,131,14,58
-14,-43,-29,29,7,-36,48,385,346,151,29,73
-4,-39,-34,21,14,-36,39,405,370,161,39,87
4,-34,-39,14,21,-36,34,424,395,175,63,97
19,-29,-48,4,34,-39,34,439,424,195,78,117
34,-19,-53,-7,43,-36,24,463,439,209,97,126
53,-14,-68,-19,61,-41,14,483,458,229,117,141
68,-9,-78,-29,73,-43,9,502,488,248,136,165
82,-4,-87,-39,85,-46,9,507,507,258,151,180
97,9,-87,-53,92,-39,4,517,527,283,175,200
112,19,-92,-65,102,-36,0,527,546,297,190,219
122,24,-97,-73,109,-36,-9,531,556,307,200,229
136,34,-102,-85,119,-34,-19,536,566,322,214,244
146,43,-102,-95,124,-29,-19,546,575,322,224,253
151,48,-102,-100,126,-26,-24,546,585,326,229,263
161,53,-107,-107,134,-26,-24,546,595,331,234,268
165,53,-112,-109,139,-29,-29,546,605,341,239,273
170,58,-112,-114,141,-26,-39,546,605,346,248,283
170,63,-107,-117,139,-21,-48,536,605,346,253,292
175,73,-102,-124,139,-14,-53,522,585,346,258,297
175,78,-97,-126,136,-9,-58,492,566,336,258,302
165,73,-92,-119,129,-9,-63,463,536,326,253,312
156,78,-78,-117,117,0,-63,429,492,307,244,317
146,78,-68,-112,107,4,-63,375,458,287,234,312
126,78,-48,-102,87,14,-63,336,409,258,214,302
102,82,-19,-92,61,31,-63,283,356,229,195,292
87,73,-14,-80,51,29,-63,244,302,200,175,268
68,63,-4,-65,36,29,-58,209,253,170,141,244
43,53,9,-48,17,31,-53,165,204,141,112,224
29,53,24,-41,2,39,-48,136,165,102,73,209
9,39,29,-24,-9,34,-43,107,126,78,53,190
-9,24,34,-7,-21,29,-39,87,102,58,39,170
-29,14,43,7,-36,29,-34,68,73,29,14,146
-34,0,34,17,-34,17,-24,53,53,14,0,131
-48,-9,39,29,-43,14,-19,43,34,-4,-14,112
-63,-19,43,41,-53,12,-19,29,19,-14,-34,97
-73,-24,48,48,-61,12,-19,24,4,-19,-48,87
-73,-29,43,51,-58,7,-9,19,-4,-39,-63,78
-78,-34,43,56,-61,4,0,14,-19,-48,-73,68
-82,-39,43,61,-63,2,0,9,-14,-53,-78,73
-87,-39,48,63,-68,4,0,9,-19,-63,-78,73
-87,-43,43,65,-65,0,0,4,-19,-63,-82,63
-87,-43,43,65,-65,0,4,4,-19,-68,-87,53
-82,-43,39,63,-61,-2,4,4,-24,-68,-87,53
-82,-48,34,65,-58,-7,9,4,-24,-68,-92,48
-82,-48,34,65,-58,-7,9,4,-24,-68,-92,53
-87,-48,39,68,-63,-4,9,4,-24,-73,-92,58
-87,-48,39,68,-63,-4,4,4,-24,-73,-92,58
-82,-48,34,65,-58,-7,0,4,-24,-73,-92,58
-82,-48,34,65,-58,-7,0,4,-19,-73,-92,58
-82,-48,34,65,-58,-7,0,4,-19,-73,-92,58
-87,-48,39,68,-63,-4,9,9,-19,-68,-97,58
-87,-48,39,68,-63,-4,14,14,-19,-68,-102,58
-82,-48,34,65,-58,-7,14,14,-9,-68,-97,63
-82,-48,34,65,-58,-7,9,14,-4,-63,-92,73
-82,-48,34,65,-58,-7,9,19,-4,-58,-87,78
-82,-48,34,65,-58,-7,9,19,-4,-58,-82,78
-78,-48,29,63,-53,-9,9,19,-4,-53,-82,82
-73,-48,24,61,-48,-12,4,19,-4,-53,-78,87
-73,-43,29,58,-51,-7,4,19,-4,-53,-78,87
-73,-34,39,53,-56,2,4,19,-4,-48,-78,87
-73,-34,39,53,-56,2,4,24,0,-48,-78,87
-68,-34,34,51,-51,0,4,24,0,-53,-78,87
-63,-34,29,48,-46,-2,4,24,0,-48,-78,97
-63,-34,29,48,-46,-2,4,24,0,-48,-73,97
-63,-34,29,48,-46,-2,0,19,4,-48,-73,102
-63,-34,29,48,-46,-2,-4,19,4,-48,-73,102
-68,-34,34,51,-51,0,-4,19,4,-48,-73,107
-73,-39,34,56,-53,-2,-4,19,9,-48,-73,107
-68,-39,29,53,-48,-4,-4,19,14,-43,-68,112
-68,-39,29,53,-48,-4,-9,19,14,-43,-68,112
-73,-39,34,56,-53,-2,-9,24,14,-43,-68,112
-73,-34,39,53,-56,2,-9,24,14,-43,-68,112
-73,-34,39,53,-56,2,-9,24,14,-43,-63,117
-73,-34,39,53,-56,2,-9,19,14,-43,-63,117
-73,-34,39,53,-56,2,-9,19,9,-43,-63,117
-73,-34,39,53,-56,2,-9,19,9,-48,-63,122
-73,-34,39,53,-56,2,-9,19,9,-43,-68,122
-73,-39,34,56,-53,-2,-9,14,9,-43,-73,122
-78,-39,39,58,-58,0,-9,14,4,-48,-73,122
-78,-39,39,58,-58,0,-9,14,4,-48,-73,122
-78,-39,39,58,-58,0,-4,14,4,-48,-68,122
-82,-43,39,63,-61,-2,0,14,4,-48,-68,117
-82,-43,39,63,-61,-2,0,9,4,-48,-58,122
-82,-43,39,63,-61,-2,0,9,0,-48,-53,122
-82,-43,39,63,-61,-2,0,9,0,-43,-53,122
-82,-43,39,63,-61,-2,0,9,4,-39,-58,122
-87,-48,39,68,-63,-4,0,9,4,-43,-63,122
-97,-48,48,73,-73,0,0,4,0,-43,-63,122
-97,-48,48,73,-73,0,4,4,0,-48,-68,122
-97,-43,53,70,-75,4,4,4,-4,-48,-73,117
-92,-43,48,68,-70,2,4,0,-4,-53,-73,112
-87,-43,43,65,-65,0,0,0,-4,-58,-73,107
-87,-43,43,65,-65,0,0,4,-4,-58,-73,107
-92,-43,48,68,-70,2,0,4,-4,-58,-78,107
-92,-43,48,68,-70,2,0,0,-4,-53,-78,107
-92,-43,48,68,-70,2,0,-4,-9,-58,-78,102
-87,-43,43,65,-65,0,0,-4,-9,-58,-82,102
-87,-43,43,65,-65,0,0,-4,-9,-63,-87,102
-87,-48,39,68,-63,-4,0,-4,-9,-63,-87,102
-87,-48,39,68,-63,-4,0,-4,-14,-58,-87,102
-87,-53,34,70,-61,-9,0,-4,-9,-58,-87,102
-87,-58,29,73,-58,-14,0,-4,-4,-58,-87,97
-87,-53,34,70,-61,-9,4,-4,-4,-63,-92,97
-92,-53,39,73,-65,-7,4,-4,-9,-63,-92,97
-92,-48,43,70,-68,-2,0,-4,-9,-63,-97,97
-92,-43,48,68,-70,2,0,-4,-9,-63,-97,97
-87,-43,43,65,-65,0,0,-4,-14,-63,-97,92
-82,-43,39,63,-61,-2,0,-4,-19,-63,-97,92
-73,-48,24,61,-48,-12,0,-4,-14,-63,-92,97
-68,-48,19,58,-43,-14,0,-9,-14,-63,-87,97
-68,-48,19,58,-43,-14,4,-4,-14,-63,-92,97
-73,-48,24,61,-48,-12,9,0,-14,-58,-92,97
-73,-39,34,56,-53,-2,14,4,-14,-58,-87,107
-68,-34,34,51,-51,0,19,14,-4,-53,-82,117
-68,-14,53,41,-61,19,29,19,9,-39,-73,117
-73,4,78,34,-75,41,43,29,29,-19,-68,122
-73,14,87,29,-80,51,48,43,39,-4,-53,126
-73,14,87,29,-80,51,53,53,53,4,-43,136
-73,24,97,24,-85,61,58,68,63,9,-39,136
-68,24,92,21,-80,58,58,82,73,19,-39,136
-63,24,87,19,-75,56,53,92,78,24,-39,141
-58,19,78,19,-68,48,43,87,78,19,-34,141
-53,14,68,19,-61,41,24,63,68,14,-24,141
-53,14,68,19,-61,41,4,34,43,4,-39,136
-53,4,58,24,-56,31,-9,19,14,-4,-53,131
-43,0,43,21,-43,21,-29,-19,-14,-24,-58,131
-34,-19,14,26,-24,-2,-39,-19,-14,-39,-73,126
-24,-19,4,21,-14,-7,-43,-19,-9,-39,-73,131
-24,-14,9,19,-17,-2,-53,-24,-14,-48,-68,131
-24,-19,4,21,-14,-7,-53,-39,-34,-68,-78,117
-39,-14,24,26,-31,4,-39,-39,-39,-73,-82,117
-53,-14,39,34,-46,12,-24,-43,-43,-78,-87,117
-53,-19,34,36,-43,7,-9,-34,-39,-73,-92,107
-58,-29,29,43,-43,0,0,-29,-39,-68,-97,97
-58,-39,19,48,-39,-9,4,-19,-34,-68,-97,92
-58,-48,9,53,-34,-19,9,-9,-29,-68,-97,87
-58,-48,9,53,-34,-19,9,-9,-29,-68,-92,87
-58,-48,9,53,-34,-19,9,-9,-29,-68,-92,82
-58,-48,9,53,-34,-19,9,-9,-34,-68,-92,82
-58,-53,4,56,-31,-24,9,-9,-29,-68,-97,82
-58,-63,-4,61,-26,-34,9,-4,-29,-73,-102,78
-63,-68,-4,65,-29,-36,14,-4,-34,-78,-102,73
-63,-68,-4,65,-29,-36,14,-4,-34,-78,-102,73
-63,-63,0,63,-31,-31,14,-4,-34,-73,-102,73
-63,-63,0,63,-31,-31,14,0,-29,-73,-102,73
-63,-63,0,63,-31,-31,19,0,-29,-73,-102,73
-63,-63,0,63,-31,-31,24,4,-24,-73,-102,73
-63,-63,0,63,-31,-31,34,9,-24,-78,-102,73
-63,-63,0,63,-31,-31,34,9,-19,-78,-102,68
-63,-63,0,63,-31,-31,34,9,-19,-78,-102,63
-68,-63,4,65,-36,-29,34,9,-14,-68,-102,63
-68,-63,4,65,-36,-29,34,14,-14,-63,-107,63
-68,-63,4,65,-36,-29,39,14,-14,-63,-107,63
-68,-63,4,65,-36,-29,39,19,-14,-63,-107,63
-68,-58,9,63,-39,-24,34,19,-14,-68,-107,63
-68,-58,9,63,-39,-24,29,19,-9,-68,-107,63
-68,-58,9,63,-39,-24,29,14,-9,-68,-107,58
-68,-58,9,63,-39,-24,29,14,-14,-68,-112,53
-68,-63,4,65,-36,-29,29,14,-14,-68,-112,53
-73,-63,9,68,-41,-26,34,14,-14,-63,-107,53
-73,-63,9,68,-41,-26,34,14,-14,-58,-107,48
-73,-63,9,68,-41,-26,34,14,-9,-58,-107,48
-68,-58,9,63,-39,-24,34,14,-9,-58,-107,53
-63,-58,4,61,-34,-26,34,14,-9,-58,-107,53
-63,-58,4,61,-34,-26,34,14,-9,-58,-107,53
-63,-58,4,61,-34,-26,34,14,-9,-58,-107,53
-68,-58,9,63,-39,-24,39,14,-9,-58,-112,48
-73,-53,19,63,-46,-17,43,14,-9,-58,-112,43
-73,-53,19,63,-46,-17,43,14,-9,-58,-112,43
-73,-48,24,61,-48,-12,43,14,-9,-58,-112,43
-73,-48,24,61,-48,-12,43,14,-9,-58,-112,43
-73,-48,24,61,-48,-12,43,14,-9,-58,-112,43
-73,-48,24,61,-48,-12,43,14,-9,-58,-107,43
-78,-48,29,63,-53,-9,43,9,-14,-58,-102,39
-82,-43,39,63,-61,-2,48,-4,-29,-73,-117,29
-97,-39,58,68,-78,9,58,-24,-68,-92,-141,14
-126,-29,97,78,-112,34,68,-29,-97,-117,-180,-9
-156,-29,126,92,-141,48,97,29,-82,-126,-224,-58
-200,-53,146,126,-173,46,151,161,-19,-117,-283,-122
-200,-102,97,151,-148,-2,204,268,73,-87,-292,-141
-195,-78,117,136,-156,19,239,268,141,9,-161,-29
-107,0,107,53,-107,53,156,14,63,102,68,200
53,68,14,-61,19,41,24,-263,-78,161,366,507
258,112,-146,-185,202,-17,-161,-634,-273,175,697,844
488,204,-283,-346,385,-39,-390,-1049,-444,234,1098,1249
702,322,-380,-512,541,-29,-649,-1556,-644,302,1512,1678
732,453,-278,-592,505,87,-800,-2098,-1000,214,1586,1834
619,488,-131,-553,375,178,-829,-2459,-1395,-97,1176,1595
385,400,14,-392,185,207,-775,-2566,-1737,-575,375,966
136,273,136,-204,0,204,-727,-2488,-1976,-1005,-253,444
63,190,126,-126,-31,158,-634,-2088,-1810,-1063,-453,204
29,161,131,-95,-51,146,-527,-1625,-1464,-927,-453,122
9,117,107,-63,-48,112,-424,-1141,-1058,-722,-380,82
-39,34,73,2,-56,53,-287,-771,-727,-541,-331,14
-73,-9,63,41,-68,26,-170,-541,-512,-395,-278,-19
-78,-14,63,46,-70,24,-97,-366,-361,-268,-204,9
-78,-19,58,48,-68,19,-43,-204,-214,-185,-161,24
-78,-29,48,53,-63,9,0,-82,-102,-131,-146,19
-73,-39,34,56,-53,-2,24,-19,-34,-82,-126,24
-68,-53,14,61,-41,-19,43,19,-9,-48,-107,29
-68,-53,14,61,-41,-19,53,68,29,-24,-97,24
-73,-53,19,63,-46,-17,68,107,63,-19,-97,24
-73,-53,19,63,-46,-17,73,117,78,-9,-92,24
-73,-53,19,63,-46,-17,73,122,78,0,-87,24
-68,-58,9,63,-39,-24,78,136,82,0,-87,24
-68,-58,9,63,-39,-24,82,141,97,-4,-92,24
-68,-58,9,63,-39,-24,82,146,107,-4,-92,19
-63,-63,0,63,-31,-31,87,151,107,4,-92,14
-63,-63,0,63,-31,-31,87,161,112,4,-82,14
-63,-63,0,63,-31,-31,87,165,122,4,-78,19
-68,-63,4,65,-36,-29,87,175,131,9,-78,19
-63,-63,0,63,-31,-31,87,175,131,9,-78,19
-63,-58,4,61,-34,-26,87,185,141,14,-78,9
-63,-58,4,61,-34,-26,87,190,146,24,-78,9
-58,-63,-4,61,-26,-34,87,195,156,24,-73,14
-58,-63,-4,61,-26,-34,87,204,161,29,-68,14
-53,-63,-9,58,-21,-36,87,214,170,34,-68,14
-53,-63,-9,58,-21,-36,92,224,180,39,-68,19
-48,-63,-14,56,-17,-39,97,239,190,43,-58,19
-43,-63,-19,53,-12,-41,97,248,204,48,-58,19
-48,-63,-14,56,-17,-39,92,263,214,58,-43,24
-48,-58,-9,53,-19,-34,92,278,224,68,-39,24
-43,-53,-9,48,-17,-31,92,287,239,82,-34,29
-39,-53,-14,46,-12,-34,92,302,253,92,-24,34
-29,-53,-24,41,-2,-39,92,312,268,102,-14,34
-24,-48,-24,36,0,-36,87,331,287,112,-4,29
-19,-48,-29,34,4,-39,87,351,307,122,0,43
-9,-39,-29,24,9,-34,87,370,326,136,14,48
0,-43,-43,21,21,-43,87,380,351,151,24,58
14,-43,-58,14,36,-51,87,405,375,170,39,68
24,-39,-63,7,43,-51,78,424,400,185,48,78
34,-34,-68,0,51,-51,73,444,424,204,73,87
48,-29,-78,-9,63,-53,78,458,453,224,87,107
63,-19,-82,-21,73,-51,73,478,468,239,107,117
87,-14,-102,-36,95,-58,63,497,488,258,131,126
107,-9,-117,-48,112,-63,53,522,517,278,156,146
122,-4,-126,-58,124,-65,48,527,536,287,170,161
136,9,-126,-73,131,-58,43,536,551,307,190,175
151,24,-126,-87,139,-51,39,541,566,317,200,190
161,34,-126,-97,143,-46,29,541,575,326,209,200
175,43,-131,-109,153,-43,19,546,585,341,224,214
185,53,-131,-119,158,-39,19,556,595,346,239,224
190,58,-131,-124,161,-36,9,556,605,356,253,234
200,63,-136,-131,168,-36,4,556,610,361,263,239
204,63,-141,-134,173,-39,0,551,610,370,268,244
209,68,-141,-139,175,-36,-4,546,605,375,273,248
209,73,-136,-141,173,-31,-9,536,605,375,273,253
214,82,-131,-148,173,-24,-14,517,585,375,278,258
214,92,-122,-153,168,-14,-19,483,566,366,278,258
204,97,-107,-151,156,-4,-24,453,536,356,273,258
195,107,-87,-151,141,9,-24,419,488,331,263,253
185,107,-78,-146,131,14,-24,366,448,307,253,244
165,107,-58,-136,112,24,-24,326,400,278,229,229
141,107,-34,-124,87,36,-24,273,346,248,204,214
126,92,-34,-109,80,29,-24,234,287,214,180,185
107,82,-24,-95,65,29,-19,200,239,180,151,161
82,68,-14,-75,48,26,-14,156,195,151,131,141
68,63,-4,-65,36,29,-9,126,156,112,92,122
48,48,0,-48,24,24,-4,92,117,87,73,102
29,39,9,-34,9,24,0,68,92,68,53,82
9,34,24,-21,-7,29,4,48,63,39,24,58
4,19,14,-12,-4,17,14,34,43,24,9,48
-9,14,24,-2,-17,19,19,24,19,4,-4,29
-19,9,29,4,-24,19,19,9,4,-4,-19,9
-24,4,29,9,-26,17,19,4,-4,-9,-29,-4
-24,0,24,12,-24,12,24,0,-14,-29,-43,-19
-29,-4,24,17,-26,9,24,-4,-29,-39,-53,-29
-34,-9,24,21,-29,7,19,-9,-29,-39,-58,-34
-39,-9,29,24,-34,9,19,-4,-39,-43,-58,-48
-39,-14,24,26,-31,4,19,-4,-39,-43,-63,-53
-39,-14,24,26,-31,4,29,-4,-34,-48,-68,-53
-39,-14,24,26,-31,4,34,-4,-34,-48,-68,-53
-43,-24,19,34,-31,-2,39,-4,-34,-48,-73,-58
-43,-29,14,36,-29,-7,39,-4,-34,-48,-73,-58
-48,-29,19,39,-34,-4,34,-4,-39,-53,-73,-58
-48,-29,19,39,-34,-4,29,-4,-43,-53,-73,-58
-43,-24,19,34,-31,-2,29,-4,-43,-53,-73,-58
-43,-19,24,31,-34,2,29,-4,-39,-53,-73,-58
-43,-19,24,31,-34,2,29,-4,-39,-53,-73,-58
-48,-19,29,34,-39,4,34,-4,-39,-48,-73,-58
-48,-19,29,34,-39,4,34,-4,-39,-48,-73,-63
-43,-19,24,31,-34,2,34,-4,-34,-48,-68,-68
-43,-19,24,31,-34,2,29,-9,-34,-43,-63,-68
-43,-19,24,31,-34,2,29,-9,-34,-39,-63,-68
-39,-19,19,29,-29,0,29,-9,-34,-34,-63,-68
-34,-19,14,26,-24,-2,29,-9,-34,-29,-63,-68
-34,-19,14,26,-24,-2,24,-9,-34,-34,-58,-63
-34,-19,14,26,-24,-2,24,-9,-34,-34,-58,-58
-34,-14,19,24,-26,2,24,-9,-34,-29,-58,-58
-34,-14,19,24,-26,2,24,-4,-29,-24,-58,-58
-29,-14,14,21,-21,0,24,-4,-29,-24,-58,-63
-24,-14,9,19,-17,-2,24,-4,-29,-19,-58,-58
-29,-14,14,21,-21,0,19,-4,-29,-19,-53,-63
-34,-14,19,24,-26,2,14,-4,-24,-19,-48,-63
-34,-14,19,24,-26,2,14,0,-24,-19,-43,-63
-34,-9,24,21,-29,7,14,0,-24,-14,-43,-58
-34,-9,24,21,-29,7,14,0,-24,-9,-43,-58
-29,-9,19,19,-24,4,14,0,-24,-4,-39,-53
-29,-9,19,19,-24,4,14,-4,-24,-4,-39,-58
-34,-9,24,21,-29,7,19,-4,-24,-4,-39,-63
-34,-9,24,21,-29,7,19,-4,-24,-4,-39,-63
-34,-14,19,24,-26,2,19,0,-24,-4,-34,-63
-34,-14,19,24,-26,2,14,0,-24,-9,-34,-68
-34,-14,19,24,-26,2,9,0,-24,-9,-34,-68
-34,-14,19,24,-26,2,9,-4,-19,-9,-34,-68
-34,-14,19,24,-26,2,9,-4,-19,-4,-34,-73
-34,-14,19,24,-26,2,9,-4,-19,-4,-34,-73
-34,-9,24,21,-29,7,9,-4,-24,-9,-34,-73
-29,-9,19,19,-24,4,9,-4,-24,-4,-34,-73
-29,-9,19,19,-24,4,9,-4,-24,0,-29,-73
-34,-14,19,24,-26,2,9,-4,-24,0,-29,-78
-34,-14,19,24,-26,2,9,-9,-24,0,-29,-78
-34,-14,19,24,-26,2,9,-9,-29,0,-34,-82
-34,-14,19,24,-26,2,9,-9,-29,0,-34,-82
-34,-14,19,24,-26,2,9,-9,-24,0,-39,-82
-34,-19,14,26,-24,-2,9,-9,-24,-4,-43,-82
-39,-14,24,26,-31,4,9,-14,-34,-4,-43,-82
-39,-14,24,26,-31,4,14,-14,-39,-9,-43,-82
-39,-14,24,26,-31,4,14,-14,-43,-14,-43,-92
-39,-14,24,26,-31,4,14,-19,-43,-19,-43,-97
-39,-19,19,29,-29,0,9,-19,-43,-19,-39,-97
-39,-24,14,31,-26,-4,9,-14,-43,-19,-34,-97
-43,-24,19,34,-31,-2,9,-14,-43,-14,-39,-97
-43,-24,19,34,-31,-2,9,-19,-43,-9,-39,-97
-43,-24,19,34,-31,-2,4,-24,-48,-19,-43,-102
-43,-24,19,34,-31,-2,0,-24,-48,-19,-48,-102
-48,-24,24,36,-36,0,0,-24,-48,-24,-48,-107
-48,-29,19,39,-34,-4,0,-24,-48,-24,-48,-112
-48,-29,19,39,-34,-4,4,-24,-53,-19,-48,-112
-48,-29,19,39,-34,-4,9,-24,-53,-19,-48,-112
-48,-29,19,39,-34,-4,9,-24,-53,-19,-48,-117
-48,-24,24,36,-36,0,14,-24,-53,-24,-53,-117
-53,-24,29,39,-41,2,14,-24,-58,-29,-53,-117
-53,-24,29,39,-41,2,9,-24,-58,-34,-58,-117
-53,-24,29,39,-41,2,9,-24,-58,-34,-58,-117
-53,-24,29,39,-41,2,9,-24,-58,-34,-58,-122
-53,-24,29,39,-41,2,9,-24,-58,-34,-58,-122
-48,-29,19,39,-34,-4,9,-24,-53,-34,-58,-122
-48,-29,19,39,-34,-4,9,-29,-53,-34,-58,-126
-48,-29,19,39,-34,-4,9,-29,-58,-39,-63,-126
-53,-39,14,46,-34,-12,9,-29,-68,-39,-63,-131
-53,-39,14,46,-34,-12,14,-29,-73,-39,-63,-136
-48,-34,14,41,-31,-9,14,-24,-63,-39,-63,-136
-48,-19,29,34,-39,4,14,-19,-53,-34,-53,-136
-53,-4,48,29,-51,21,24,-9,-39,-19,-48,-126
-53,4,58,24,-56,31,29,4,-29,-4,-34,-117
-53,9,63,21,-58,36,39,14,-14,9,-24,-107
-53,24,78,14,-65,51,53,29,-4,19,-19,-102
-48,24,73,12,-61,48,58,43,4,29,-19,-102
-43,29,73,7,-58,51,58,58,19,39,-19,-102
-39,29,68,4,-53,48,63,73,43,48,-14,-102
-34,24,58,4,-46,41,58,87,58,58,0,-97
-39,29,68,4,-53,48,43,82,43,53,-4,-97
-43,24,68,9,-56,46,29,68,24,43,-14,-102
-34,19,53,7,-43,36,4,19,-4,24,-19,-102
-29,0,29,14,-29,14,-14,-9,-34,4,-34,-112
-19,-4,14,12,-17,4,-34,-29,-48,0,-29,-112
-14,-9,4,12,-9,-2,-53,-34,-53,-9,-29,-112
-14,-9,4,12,-9,-2,-53,-43,-63,-19,-43,-122
-14,-24,-9,19,-2,-17,-53,-53,-78,-34,-53,-131
-24,-24,0,24,-12,-12,-48,-78,-97,-48,-63,-141
-29,-29,0,29,-14,-14,-39,-82,-112,-63,-73,-146
-39,-29,9,34,-24,-9,-34,-68,-102,-58,-68,-141
-48,-29,19,39,-34,-4,-29,-58,-97,-58,-68,-136
-48,-29,19,39,-34,-4,-14,-53,-87,-58,-63,-136
-48,-29,19,39,-34,-4,0,-48,-78,-58,-58,-136
-53,-39,14,46,-34,-12,0,-48,-78,-58,-58,-141
-53,-43,9,48,-31,-17,0,-48,-78,-58,-63,-141
-58,-48,9,53,-34,-19,0,-48,-82,-58,-68,-146
-58,-48,9,53,-34,-19,0,-48,-82,-58,-73,-151
-58,-53,4,56,-31,-24,0,-48,-78,-53,-78,-151
-58,-63,-4,61,-26,-34,0,-43,-78,-53,-82,-156
-68,-68,0,68,-34,-34,4,-43,-82,-58,-82,-161
-73,-68,4,70,-39,-31,4,-43,-82,-58,-82,-161
-73,-58,14,65,-43,-21,4,-43,-82,-53,-82,-161
-73,-53,19,63,-46,-17,4,-39,-78,-53,-82,-161
-73,-53,19,63,-46,-17,9,-34,-78,-53,-82,-161
-73,-53,19,63,-46,-17,9,-24,-73,-48,-82,-161
-73,-53,19,63,-46,-17,14,-19,-73,-48,-82,-161
-73,-53,19,63,-46,-17,14,-19,-68,-48,-82,-161
-73,-53,19,63,-46,-17,14,-24,-68,-53,-82,-161
-78,-53,24,65,-51,-14,14,-29,-63,-53,-78,-161
-78,-53,24,65,-51,-14,14,-24,-63,-53,-78,-161
-78,-53,24,65,-51,-14,19,-24,-63,-53,-78,-161
-78,-53,24,65,-51,-14,19,-19,-68,-53,-78,-161
-78,-48,29,63,-53,-9,19,-19,-73,-53,-78,-161
-78,-48,29,63,-53,-9,19,-19,-68,-48,-78,-161
-78,-48,29,63,-53,-9,19,-19,-68,-48,-78,-161
-78,-48,29,63,-53,-9,19,-14,-68,-48,-82,-161
-73,-48,24,61,-48,-12,19,-14,-63,-53,-82,-161
-73,-43,29,58,-51,-7,24,-14,-63,-53,-78,-161
-73,-43,29,58,-51,-7,24,-14,-63,-48,-78,-165
-73,-48,24,61,-48,-12,24,-14,-63,-53,-78,-165
-73,-48,24,61,-48,-12,24,-14,-68,-58,-78,-161
-73,-48,24,61,-48,-12,24,-14,-68,-58,-78,-165
-73,-48,24,61,-48,-12,24,-14,-68,-58,-78,-170
-73,-48,24,61,-48,-12,24,-19,-68,-58,-78,-170
-73,-48,24,61,-48,-12,24,-24,-68,-58,-82,-170
-73,-43,29,58,-51,-7,24,-24,-68,-58,-82,-165
-73,-43,29,58,-51,-7,24,-24,-68,-58,-82,-161
-78,-39,39,58,-58,0,24,-19,-68,-58,-78,-161
-82,-39,43,61,-63,2,24,-14,-68,-58,-73,-161
-82,-39,43,61,-63,2,29,-14,-68,-58,-73,-161
-82,-39,43,61,-63,2,34,-14,-68,-58,-73,-161
-78,-39,39,58,-58,0,34,-19,-68,-48,-68,-161
-78,-34,43,56,-61,4,34,-34,-78,-53,-78,-165
-87,-29,58,58,-73,14,34,-63,-117,-73,-102,-175
-112,-19,92,65,-102,36,39,-82,-146,-97,-136,-195
-156,-4,151,80,-153,73,53,-63,-170,-122,-175,-244
-209,-14,195,112,-202,90,92,34,-146,-126,-224,-307
-239,-97,141,168,-190,21,180,234,-24,-126,-302,-409
-253,-117,136,185,-195,9,253,361,107,-53,-268,-390
-204,-58,146,131,-175,43,229,244,156,73,-97,-224
-82,0,82,41,-82,41,151,82,126,161,126,4
131,29,-102,-80,117,-36,-4,-204,-19,175,370,273
370,92,-278,-231,324,-92,-204,-570,-180,209,673,605
707,195,-512,-451,610,-158,-531,-1137,-346,336,1244,1176
834,326,-507,-580,671,-90,-751,-1732,-673,317,1507,1483
771,424,-346,-597,558,39,-829,-2293,-1161,48,1239,1376
600,409,-190,-505,395,109,-824,-2601,-1576,-346,649,936
273,292,19,-283,126,156,-790,-2708,-2025,-912,-102,336
117,219,102,-168,7,161,-712,-2479,-2069,-1122,-458,9
73,214,141,-143,-34,178,-614,-2015,-1766,-1015,-458,-58
48,190,141,-119,-46,165,-522,-1532,-1400,-849,-405,-97
-9,97,107,-43,-58,102,-370,-1073,-995,-649,-351,-161
-58,39,97,9,-78,68,-244,-756,-712,-483,-297,-204
-73,29,102,21,-87,65,-161,-551,-546,-331,-209,-180
-78,19,97,29,-87,58,-92,-361,-380,-224,-146,-165
-78,4,82,36,-80,43,-39,-195,-234,-156,-126,-165
-73,-4,68,39,-70,31,-4,-87,-131,-97,-107,-161
-68,-19,48,43,-58,14,14,-48,-107,-58,-82,-156
-68,-24,43,46,-56,9,24,0,-68,-24,-68,-156
-73,-24,48,48,-61,12,43,53,-24,-19,-68,-156
-73,-24,48,48,-61,12,53,78,4,-9,-63,-161
-73,-29,43,51,-58,7,53,82,9,0,-58,-161
-68,-39,29,53,-48,-4,58,102,14,4,-53,-161
-68,-39,29,53,-48,-4,63,112,29,4,-53,-161
-68,-39,29,53,-48,-4,63,117,39,4,-53,-161
-63,-39,24,51,-43,-7,68,122,39,14,-53,-161
-63,-34,29,48,-46,-2,68,131,43,14,-48,-161
-63,-34,29,48,-46,-2,68,136,53,14,-48,-156
-63,-34,29,48,-46,-2,68,146,63,19,-48,-156
-58,-39,19,48,-39,-9,68,146,63,19,-48,-156
-63,-39,24,51,-43,-7,68,156,73,19,-48,-165
-63,-39,24,51,-43,-7,68,161,78,24,-48,-165
-58,-43,14,51,-36,-14,68,165,87,24,-43,-161
-58,-43,14,51,-36,-14,68,175,92,24,-39,-156
-53,-43,9,48,-31,-17,68,185,102,24,-39,-151
-53,-43,9,48,-31,-17,73,195,112,24,-43,-146
-48,-43,4,46,-26,-19,78,204,122,24,-39,-146
-39,-48,-9,43,-14,-29,78,209,136,29,-39,-151
-34,-53,-19,43,-7,-36,73,224,146,39,-29,-151
-29,-48,-19,39,-4,-34,73,239,151,48,-29,-151
-24,-48,-24,36,0,-36,73,248,161,58,-24,-146
-24,-53,-29,39,2,-41,73,263,175,63,-14,-141
-19,-53,-34,36,7,-43,73,273,190,73,-4,-136
-14,-48,-34,31,9,-41,68,287,209,82,4,-136
-9,-48,-39,29,14,-43,68,302,229,92,9,-122
0,-39,-39,19,19,-39,68,322,248,107,24,-122
4,-39,-43,17,24,-41,68,331,268,122,34,-117
14,-34,-48,9,31,-41,68,356,287,141,43,-107
24,-29,-53,2,39,-41,58,375,312,151,48,-97
34,-24,-58,-4,46,-41,53,395,336,161,73,-87
48,-19,-68,-14,58,-43,53,409,366,175,87,-68
63,-9,-73,-26,68,-41,48,429,380,190,102,-58
82,-4,-87,-39,85,-46,43,444,400,209,117,-43
102,0,-102,-51,102,-51,34,468,429,229,136,-19
122,4,-117,-63,119,-56,29,478,448,239,151,-4
136,14,-122,-75,129,-53,24,488,468,263,175,9
151,19,-131,-85,141,-56,19,497,488,278,190,24
165,24,-141,-95,153,-58,9,502,497,287,200,34
185,34,-151,-109,168,-58,0,507,507,302,214,48
195,48,-146,-122,170,-48,0,522,517,307,229,58
200,58,-141,-129,170,-41,-4,527,527,317,239,68
214,63,-151,-139,183,-43,-4,527,531,322,244,73
224,63,-161,-143,192,-48,-9,527,536,331,248,78
229,68,-161,-148,195,-46,-14,531,546,336,258,82
229,73,-156,-151,192,-41,-19,527,556,336,263,87
234,82,-151,-158,192,-34,-24,517,541,341,268,92
234,87,-146,-161,190,-29,-29,492,527,336,268,97
229,87,-141,-158,185,-26,-34,463,507,336,268,102
224,97,-126,-161,175,-14,-34,429,473,326,263,102
214,97,-117,-156,165,-9,-34,375,439,307,253,102
195,97,-97,-146,146,0,-34,336,390,278,234,97
170,97,-73,-134,122,12,-34,283,341,253,219,92
156,82,-73,-119,114,4,-34,244,292,229,204,73
131,78,-53,-104,92,12,-34,209,248,200,180,53
102,73,-29,-87,65,21,-34,165,204,170,161,39
87,73,-14,-80,51,29,-29,131,161,131,122,24
68,58,-9,-63,39,24,-24,97,117,107,102,4
48,48,0,-48,24,24,-19,78,92,87,82,-14
29,43,14,-36,7,29,-14,58,63,58,53,-39
19,29,9,-24,4,19,-4,39,39,39,39,-48
0,19,19,-9,-9,19,0,24,14,14,24,-63
-9,9,19,0,-14,14,0,9,4,4,9,-82
-14,4,19,4,-17,12,0,4,-4,0,0,-97
-19,0,19,9,-19,9,4,0,-14,-19,-14,-107
-29,-4,24,17,-26,9,9,-4,-29,-29,-24,-117
-34,-9,24,21,-29,7,14,-9,-29,-29,-34,-122
-39,-9,29,24,-34,9,19,-9,-39,-34,-39,-131
-39,-14,24,26,-31,4,19,-14,-43,-34,-43,-131
-39,-14,24,26,-31,4,24,-14,-48,-39,-48,-131
-39,-14,24,26,-31,4,24,-19,-53,-43,-48,-131
-43,-19,24,31,-34,2,29,-24,-53,-48,-53,-136
-43,-19,24,31,-34,2,29,-24,-58,-48,-53,-136
-48,-19,29,34,-39,4,29,-24,-63,-53,-53,-136
-48,-19,29,34,-39,4,29,-24,-63,-53,-53,-136
-43,-19,24,31,-34,2,29,-24,-63,-53,-53,-136
-43,-19,24,31,-34,2,24,-24,-58,-53,-53,-136
-43,-19,24,31,-34,2,19,-24,-58,-53,-53,-136
-48,-19,29,34,-39,4,24,-24,-63,-48,-58,-136
-48,-19,29,34,-39,4,24,-24,-68,-48,-63,-136
-43,-19,24,31,-34,2,24,-24,-63,-48,-58,-136
-43,-19,24,31,-34,2,19,-24,-63,-43,-53,-131
-43,-19,24,31,-34,2,19,-19,-58,-39,-53,-126
-43,-19,24,31,-34,2,19,-19,-53,-39,-53,-126
-39,-19,19,29,-29,0,19,-19,-53,-39,-53,-126
-34,-19,14,26,-24,-2,14,-19,-53,-43,-48,-126
-34,-19,14,26,-24,-2,14,-19,-53,-48,-48,-126
-34,-14,19,24,-26,2,14,-19,-53,-48,-48,-126
-34,-9,24,21,-29,7,14,-14,-48,-43,-48,-126
-29,-4,24,17,-26,9,14,-14,-48,-43,-48,-126
-24,-4,19,14,-21,7,14,-14,-48,-34,-48,-117
-24,-4,19,14,-21,7,14,-14,-48,-29,-43,-117
-19,-4,14,12,-17,4,14,-14,-43,-29,-39,-112
-14,-4,9,9,-12,2,14,-9,-43,-29,-34,-112
-14,0,14,7,-14,7,14,-9,-43,-24,-34,-107
-14,0,14,7,-14,7,14,-9,-39,-19,-34,-107
-9,0,9,4,-9,4,19,-9,-34,-14,-29,-102
-9,0,9,4,-9,4,19,-9,-34,-14,-29,-102
-14,0,14,7,-14,7,19,-4,-34,-14,-29,-102
-14,4,19,4,-17,12,19,-4,-34,-14,-29,-102
-14,4,19,4,-17,12,14,0,-34,-14,-24,-102
-14,4,19,4,-17,12,9,0,-34,-14,-24,-107
-14,0,14,7,-14,7,9,-4,-29,-9,-24,-107
-14,-4,9,9,-12,2,9,-9,-19,-9,-24,-102
-19,-4,14,12,-17,4,14,-4,-19,-4,-24,-102
-24,-9,14,17,-19,2,19,-4,-19,-4,-24,-102
-24,-9,14,17,-19,2,19,-4,-24,-9,-24,-102
-19,-9,9,14,-14,0,19,-4,-24,-9,-24,-102
-19,-9,9,14,-14,0,19,-4,-24,-9,-19,-102
-24,-14,9,19,-17,-2,19,-4,-24,-9,-19,-107
-29,-14,14,21,-21,0,19,-9,-24,-9,-19,-107
-34,-14,19,24,-26,2,19,-9,-29,-9,-24,-112
-34,-14,19,24,-26,2,19,-9,-29,-9,-19,-112
-34,-14,19,24,-26,2,19,-9,-24,-9,-19,-112
-34,-19,14,26,-24,-2,14,-9,-24,-14,-24,-112
-39,-19,19,29,-29,0,9,-14,-29,-14,-24,-112
-39,-24,14,31,-26,-4,14,-14,-29,-19,-29,-112
-39,-24,14,31,-26,-4,14,-14,-34,-19,-34,-117
-39,-24,14,31,-26,-4,14,-19,-34,-19,-34,-117
-39,-24,14,31,-26,-4,9,-19,-34,-19,-34,-117
-43,-29,14,36,-29,-7,9,-14,-34,-19,-34,-117
-53,-34,19,43,-36,-7,9,-14,-34,-19,-39,-117
-53,-34,19,43,-36,-7,9,-19,-34,-19,-39,-117
-53,-34,19,43,-36,-7,9,-24,-39,-29,-39,-122
-53,-34,19,43,-36,-7,9,-24,-39,-29,-39,-122
-58,-34,24,46,-41,-4,9,-24,-39,-34,-39,-122
-58,-39,19,48,-39,-9,14,-24,-39,-34,-39,-122
-58,-39,19,48,-39,-9,19,-24,-43,-29,-39,-122
-53,-39,14,46,-34,-12,19,-24,-43,-29,-39,-122
-48,-39,9,43,-29,-14,19,-24,-43,-29,-39,-126
-48,-34,14,41,-31,-9,24,-24,-43,-34,-39,-126
-53,-34,19,43,-36,-7,24,-24,-48,-34,-34,-126
-53,-34,19,43,-36,-7,19,-24,-48,-34,-39,-126
-53,-34,19,43,-36,-7,19,-24,-48,-34,-39,-126
-53,-34,19,43,-36,-7,19,-24,-48,-34,-39,-131
-53,-34,19,43,-36,-7,19,-24,-48,-34,-39,-131
-48,-39,9,43,-29,-14,19,-24,-48,-34,-39,-131
-48,-39,9,43,-29,-14,19,-29,-53,-34,-39,-136
-48,-39,9,43,-29,-14,14,-29,-58,-39,-43,-136
-53,-39,14,46,-34,-12,9,-29,-63,-39,-43,-136
-53,-34,19,43,-36,-7,14,-34,-68,-43,-48,-136
-48,-34,14,41,-31,-9,19,-34,-63,-43,-53,-136
-48,-19,29,34,-39,4,24,-29,-53,-39,-43,-136
-53,-4,48,29,-51,21,34,-19,-39,-29,-39,-131
-53,9,63,21,-58,36,39,-4,-29,-14,-24,-126
-53,14,68,19,-61,41,43,4,-14,-4,-14,-117
-53,29,82,12,-68,56,58,19,0,4,-4,-112
-48,34,82,7,-65,58,68,34,14,19,0,-107
-39,39,78,0,-58,58,73,63,34,34,0,-102
-29,39,68,-4,-48,53,73,78,48,39,4,-102
-24,34,58,-4,-41,46,58,87,58,43,24,-97
-24,34,58,-4,-41,46,43,92,53,43,19,-97
-29,24,53,2,-41,39,29,78,34,43,4,-102
-24,19,43,2,-34,31,9,39,14,34,0,-102
-19,0,19,9,-19,9,-9,0,-14,0,-14,-112
-14,0,14,7,-14,7,-24,-39,-39,-19,-14,-112
-9,-4,4,7,-7,0,-39,-43,-43,-29,-19,-112
-4,-9,-4,7,0,-7,-43,-53,-53,-39,-34,-122
0,-24,-24,12,12,-24,-43,-63,-73,-58,-43,-131
-4,-24,-19,14,7,-21,-39,-78,-87,-68,-48,-141
-4,-24,-19,14,7,-21,-34,-92,-102,-82,-58,-151
-19,-29,-9,24,-4,-19,-19,-97,-107,-87,-58,-161
-29,-24,4,26,-17,-9,-14,-87,-102,-78,-58,-156
-39,-19,19,29,-29,0,-9,-78,-97,-68,-58,-156
-39,-29,9,34,-24,-9,0,-68,-87,-63,-58,-156
-39,-39,0,39,-19,-19,9,-58,-78,-58,-58,-156
-43,-43,0,43,-21,-21,14,-58,-78,-58,-58,-156
-43,-43,0,43,-21,-21,14,-53,-78,-58,-58,-156
-48,-48,0,48,-24,-24,19,-53,-82,-58,-63,-156
-48,-48,0,48,-24,-24,19,-48,-82,-58,-63,-161
-48,-53,-4,51,-21,-29,19,-48,-78,-58,-68,-161
-48,-63,-14,56,-17,-39,19,-43,-78,-63,-73,-165
-58,-68,-9,63,-24,-39,24,-43,-82,-68,-73,-170
-63,-68,-4,65,-29,-36,24,-43,-82,-68,-73,-170
-63,-63,0,63,-31,-31,24,-48,-82,-63,-73,-170
-63,-63,0,63,-31,-31,24,-48,-78,-63,-73,-170
-63,-63,0,63,-31,-31,29,-48,-78,-63,-68,-170
-63,-63,0,63,-31,-31,29,-43,-73,-58,-63,-170
-63,-63,0,63,-31,-31,34,-39,-73,-53,-63,-170
-63,-63,0,63,-31,-31,34,-39,-68,-48,-63,-170
-63,-63,0,63,-31,-31,34,-39,-68,-48,-63,-170
-68,-63,4,65,-36,-29,34,-39,-63,-43,-58,-170
-68,-63,4,65,-36,-29,29,-34,-63,-43,-58,-170
-68,-63,4,65,-36,-29,29,-34,-63,-43,-58,-170
-68,-63,4,65,-36,-29,29,-29,-63,-48,-58,-165
-68,-58,9,63,-39,-24,29,-29,-63,-53,-58,-161
-68,-58,9,63,-39,-24,34,-29,-58,-48,-58,-161
-68,-58,9,63,-39,-24,39,-29,-58,-48,-58,-161
-68,-58,9,63,-39,-24,39,-24,-63,-48,-63,-161
-63,-58,4,61,-34,-26,39,-24,-63,-53,-63,-161
-63,-53,9,58,-36,-21,39,-24,-63,-53,-58,-161
-63,-53,9,58,-36,-21,34,-24,-63,-48,-58,-165
-63,-53,9,58,-36,-21,34,-24,-58,-48,-58,-165
-63,-48,14,56,-39,-17,34,-24,-58,-48,-58,-161
-63,-48,14,56,-39,-17,34,-24,-58,-48,-58,-161
-63,-48,14,56,-39,-17,34,-24,-58,-48,-58,-161
-63,-48,14,56,-39,-17,34,-24,-63,-48,-58,-161
-63,-48,14,56,-39,-17,34,-24,-68,-48,-63,-161
-63,-43,19,53,-41,-12,34,-24,-68,-48,-63,-161
-63,-43,19,53,-41,-12,34,-24,-68,-48,-63,-161
-63,-39,24,51,-43,-7,34,-24,-68,-48,-63,-161
-63,-39,24,51,-43,-7,34,-24,-68,-48,-63,-161
-63,-39,24,51,-43,-7,34,-24,-63,-48,-68,-161
-63,-39,24,51,-43,-7,34,-24,-58,-48,-73,-161
-68,-39,29,53,-48,-4,34,-29,-63,-48,-73,-165
-78,-34,43,56,-61,4,34,-43,-78,-63,-87,-175
-97,-29,68,63,-82,19,39,-63,-117,-78,-107,-185
-131,-19,112,75,-122,46,48,-73,-146,-97,-136,-204
-165,-19,146,92,-156,63,78,-19,-131,-107,-175,-253
-209,-43,165,126,-187,61,131,112,-68,-97,-224,-317
-204,-97,107,151,-156,4,185,229,34,-63,-224,-336
-185,-87,97,136,-141,4,224,273,146,43,-112,-234
-78,-24,53,51,-65,14,151,82,136,141,82,-24
102,39,-63,-70,82,-12,24,-151,48,200,331,248
331,82,-248,-207,290,-82,-161,-527,-141,195,580,531
585,161,-424,-373,505,-131,-390,-980,-346,209,888,878
795,253,-541,-524,668,-143,-644,-1532,-605,224,1224,1239
795,375,-419,-585,607,-21,-790,-2113,-1024,92,1254,1337
658,409,-248,-534,453,80,-814,-2488,-1444,-214,868,1078
414,331,-82,-373,248,124,-756,-2610,-1790,-649,161,488
161,229,68,-195,46,148,-707,-2547,-2025,-1029,-361,53
78,170,92,-124,-7,131,-614,-2147,-1854,-1054,-488,-107
39,151,112,-95,-36,131,-512,-1683,-1512,-907,-458,-146
19,112,92,-65,-36,102,-414,-1200,-1107,-702,-375,-156
-24,34,58,-4,-41,46,-278,-824,-775,-522,-312,-195
-58,-9,48,34,-53,19,-165,-590,-566,-375,-248,-214
-68,-14,53,41,-61,19,-97,-414,-419,-248,-175,-185
-68,-19,48,43,-58,14,-43,-253,-273,-165,-126,-165
-68,-24,43,46,-56,9,0,-126,-161,-112,-107,-161
-63,-24,39,43,-51,7,24,-58,-92,-68,-87,-151
-58,-34,24,46,-41,-4,43,-19,-68,-34,-68,-146
-58,-34,24,46,-41,-4,53,29,-29,-4,-58,-146
-63,-34,29,48,-46,-2,68,68,4,0,-58,-141
-63,-34,29,48,-46,-2,73,78,24,9,-53,-141
-63,-34,29,48,-46,-2,73,82,29,14,-48,-141
-58,-39,19,48,-39,-9,78,102,34,14,-43,-141
-58,-39,19,48,-39,-9,82,112,48,14,-48,-146
-58,-39,19,48,-39,-9,82,117,58,14,-53,-151
-53,-43,9,48,-31,-17,87,122,58,24,-53,-151
-53,-43,9,48,-31,-17,87,131,63,24,-48,-151
-53,-43,9,48,-31,-17,87,136,73,24,-48,-146
-53,-43,9,48,-31,-17,87,146,82,29,-48,-146
-43,-48,-4,46,-19,-26,87,146,82,29,-48,-141
-43,-48,-4,46,-19,-26,87,156,92,29,-48,-146
-43,-48,-4,46,-19,-26,87,161,97,34,-48,-146
-39,-53,-14,46,-12,-34,87,165,107,34,-43,-141
-39,-53,-14,46,-12,-34,87,170,112,34,-43,-141
-34,-53,-19,43,-7,-36,87,175,122,34,-48,-141
-34,-53,-19,43,-7,-36,92,185,131,39,-48,-136
-29,-53,-24,41,-2,-39,97,195,141,43,-39,-136
-24,-53,-29,39,2,-41,97,204,161,48,-34,-136
-24,-53,-29,39,2,-41,92,224,175,58,-19,-131
-19,-48,-29,34,4,-39,97,239,185,68,-19,-131
-14,-48,-34,31,9,-41,102,248,200,78,-14,-126
-9,-53,-43,31,17,-48,102,263,209,82,-9,-122
0,-53,-53,26,26,-53,102,273,219,92,-4,-117
0,-48,-48,24,24,-48,97,292,239,102,4,-117
0,-48,-48,24,24,-48,97,312,258,112,9,-102
9,-39,-48,14,29,-43,97,326,278,126,24,-97
14,-39,-53,12,34,-46,97,331,297,141,34,-87
24,-34,-58,4,41,-46,97,356,317,161,48,-78
34,-29,-63,-2,48,-46,87,375,341,170,58,-68
48,-19,-68,-14,58,-43,82,395,366,180,78,-58
68,-9,-78,-29,73,-43,82,409,395,195,87,-39
82,0,-82,-41,82,-41,73,429,409,209,107,-29
102,4,-97,-53,100,-46,63,444,429,229,126,-14
122,9,-112,-65,117,-51,53,463,458,248,146,9
141,14,-126,-78,134,-56,48,468,478,258,161,24
161,29,-131,-95,146,-51,43,478,492,278,180,39
180,39,-141,-109,161,-51,39,488,507,287,190,53
190,39,-151,-114,170,-56,29,492,517,302,200,63
204,43,-161,-124,183,-58,19,497,527,322,214,78
209,53,-156,-131,183,-51,14,507,536,326,229,87
209,58,-151,-134,180,-46,4,507,546,336,239,97
219,68,-151,-143,185,-41,4,507,551,336,244,102
224,73,-151,-148,187,-39,0,507,556,341,248,107
229,78,-151,-153,190,-36,-4,512,556,346,253,112
229,82,-146,-156,187,-31,-9,507,556,346,253,117
234,92,-141,-163,187,-24,-14,492,546,351,258,122
234,97,-136,-165,185,-19,-19,463,536,346,258,126
224,97,-126,-161,175,-14,-24,434,507,336,253,131
214,107,-107,-161,161,0,-24,400,463,317,244,131
204,107,-97,-156,151,4,-24,346,429,302,239,126
185,107,-78,-146,131,14,-24,307,380,278,224,117
156,107,-48,-131,102,29,-24,253,326,248,204,107
136,92,-43,-114,90,24,-24,214,273,219,185,82
117,82,-34,-100,75,24,-19,180,229,190,161,63
92,73,-19,-82,56,26,-14,136,185,161,141,48
78,73,-4,-75,41,34,-9,107,146,122,102,34
58,58,0,-58,29,29,-4,78,107,97,82,14
39,48,9,-43,14,29,-4,58,82,78,63,-4
19,43,24,-31,-2,34,-4,39,53,48,34,-29
14,29,14,-21,0,21,4,24,34,34,19,-39
0,19,19,-9,-9,19,9,14,14,14,4,-53
-9,14,24,-2,-17,19,9,0,4,4,-14,-73
-14,14,29,0,-21,21,9,-4,-4,0,-29,-87
-14,9,24,2,-19,17,14,-9,-14,-19,-43,-97
-19,4,24,7,-21,14,19,-14,-29,-29,-53,-107
-29,-4,24,17,-26,9,24,-19,-29,-29,-58,-102
-39,-9,29,24,-34,9,29,-19,-39,-34,-58,-102
-39,-14,24,26,-31,4,29,-24,-39,-34,-58,-102
-39,-14,24,26,-31,4,34,-24,-39,-39,-58,-102
-39,-14,24,26,-31,4,29,-24,-39,-39,-58,-102
-43,-19,24,31,-34,2,29,-24,-34,-39,-63,-107
-43,-19,24,31,-34,2,29,-29,-34,-39,-68,-107
-48,-19,29,34,-39,4,29,-34,-34,-43,-73,-107
-53,-19,34,36,-43,7,29,-34,-39,-48,-73,-107
-53,-19,34,36,-43,7,29,-34,-43,-53,-73,-107
-53,-19,34,36,-43,7,29,-34,-39,-53,-73,-107
-53,-19,34,36,-43,7,29,-34,-39,-53,-73,-107
-58,-19,39,39,-48,9,34,-34,-39,-48,-73,-107
-58,-19,39,39,-48,9,34,-34,-39,-48,-73,-107
-48,-19,29,34,-39,4,34,-34,-34,-48,-68,-102
-43,-19,24,31,-34,2,29,-34,-34,-43,-63,-92
-43,-19,24,31,-34,2,29,-29,-34,-39,-63,-87
-43,-19,24,31,-34,2,29,-29,-34,-39,-63,-87
-43,-19,24,31,-34,2,24,-29,-34,-34,-63,-87
-43,-19,24,31,-34,2,14,-29,-34,-34,-58,-87
-43,-19,24,31,-34,2,14,-29,-34,-34,-58,-87
-43,-14,29,29,-36,7,14,-29,-34,-29,-58,-87
-43,-14,29,29,-36,7,14,-19,-29,-24,-58,-87
-39,-14,24,26,-31,4,14,-14,-29,-24,-58,-87
-34,-14,19,24,-26,2,14,-14,-24,-19,-58,-78
-34,-14,19,24,-26,2,14,-14,-19,-19,-53,-78
-34,-19,14,26,-24,-2,14,-14,-14,-19,-48,-73
-34,-24,9,29,-21,-7,14,-9,-14,-19,-43,-73
-34,-19,14,26,-24,-2,14,-9,-14,-14,-39,-68
-34,-19,14,26,-24,-2,14,-9,-9,-9,-34,-68
-29,-14,14,21,-21,0,19,-9,-4,-4,-29,-63
-29,-9,19,19,-24,4,19,-9,-4,-4,-29,-63
-34,-9,24,21,-29,7,19,-4,-4,-4,-29,-58
-34,-4,29,19,-31,12,19,-4,-4,-4,-29,-53
-34,-9,24,21,-29,7,19,0,-4,-4,-24,-53
-34,-14,19,24,-26,2,19,0,-4,-4,-24,-58
-34,-14,19,24,-26,2,19,0,-4,-4,-24,-53
-34,-14,19,24,-26,2,19,0,0,-9,-24,-43
-34,-9,24,21,-29,7,14,4,0,-4,-29,-43
-34,-9,24,21,-29,7,9,4,0,-4,-34,-43
-34,-9,24,21,-29,7,9,4,-4,-9,-34,-43
-29,-9,19,19,-24,4,9,4,-4,-9,-34,-43
-29,-14,14,21,-21,0,9,9,-4,-9,-29,-39
-34,-24,9,29,-21,-7,9,14,-4,-9,-29,-39
-34,-24,9,29,-21,-7,9,9,-4,-9,-29,-39
-34,-24,9,29,-21,-7,9,9,-9,-9,-34,-43
-34,-19,14,26,-24,-2,9,9,-9,-9,-34,-43
-34,-14,19,24,-26,2,9,9,-4,-9,-39,-43
-39,-19,19,29,-29,0,9,9,-4,-9,-43,-43
-48,-19,29,34,-39,4,9,4,-9,-4,-43,-43
-48,-24,24,36,-36,0,14,9,-9,-9,-43,-39
-48,-24,24,36,-36,0,14,14,-14,-9,-43,-39
-48,-29,19,39,-34,-4,14,9,-14,-14,-43,-39
-48,-34,14,41,-31,-9,9,9,-14,-19,-43,-39
-53,-34,19,43,-36,-7,9,9,-14,-19,-48,-43
-63,-34,29,48,-46,-2,9,4,-14,-19,-58,-48
-63,-34,29,48,-46,-2,4,0,-19,-19,-58,-48
-63,-34,29,48,-46,-2,0,-4,-29,-29,-58,-53
-63,-34,29,48,-46,-2,0,-4,-29,-24,-58,-48
-68,-34,34,51,-51,0,0,-4,-29,-24,-58,-43
-68,-39,29,53,-48,-4,4,-4,-24,-24,-58,-43
-68,-39,29,53,-48,-4,9,-4,-24,-19,-58,-43
-63,-39,24,51,-43,-7,9,0,-24,-24,-53,-39
-58,-39,19,48,-39,-9,9,4,-24,-29,-48,-39
-58,-34,24,46,-41,-4,14,4,-24,-34,-53,-39
-63,-34,29,48,-46,-2,14,4,-29,-34,-53,-39
-63,-34,29,48,-46,-2,9,0,-29,-34,-63,-39
-63,-34,29,48,-46,-2,9,-4,-29,-34,-68,-39
-63,-34,29,48,-46,-2,9,-4,-29,-34,-68,-43
-63,-34,29,48,-46,-2,9,-4,-29,-34,-68,-43
-58,-34,24,46,-41,-4,9,4,-24,-29,-63,-43
-58,-29,29,43,-43,0,9,9,-24,-24,-58,-48
-58,-24,34,41,-46,4,14,9,-19,-24,-53,-43
-63,-19,43,41,-53,12,19,9,-14,-19,-43,-39
-63,-4,58,34,-61,26,24,19,-9,-14,-43,-34
-58,4,63,26,-61,34,29,34,4,-4,-43,-29
-53,19,73,17,-63,46,39,43,14,4,-34,-24
-53,34,87,9,-70,61,53,58,29,19,-29,-14
-53,39,92,7,-73,65,58,73,39,34,-14,-9
-53,34,87,9,-70,61,63,82,53,43,-4,0
-53,34,87,9,-70,61,63,92,58,39,0,0
-48,24,73,12,-61,48,58,102,63,39,0,0
-43,29,73,7,-58,51,48,107,68,43,-9,-4
-39,29,68,4,-53,48,34,97,68,39,-14,-14
-34,19,53,7,-43,36,14,58,39,19,-19,-19
-34,14,48,9,-41,31,-4,14,-4,-4,-48,-29
-34,4,39,14,-36,21,-19,24,-4,-4,-53,-19
-24,0,24,12,-24,12,-39,9,-4,-14,-48,-4
-19,-14,4,17,-12,-4,-48,-4,-24,-29,-63,-14
-14,-9,4,12,-9,-2,-53,-19,-39,-29,-63,-14
-24,-9,14,17,-19,2,-53,-24,-43,-39,-58,-9
-34,-19,14,26,-24,-2,-43,-39,-63,-58,-68,-19
-39,-24,14,31,-26,-4,-29,-34,-58,-58,-73,-24
-48,-29,19,39,-34,-4,-19,-29,-58,-58,-78,-29
-48,-29,19,39,-34,-4,-4,-14,-48,-58,-78,-29
-48,-29,19,39,-34,-4,9,0,-39,-58,-78,-29
-53,-39,14,46,-34,-12,9,0,-39,-58,-78,-29
-53,-43,9,48,-31,-17,9,0,-39,-58,-78,-29
-58,-48,9,53,-34,-19,9,0,-43,-58,-78,-29
-58,-48,9,53,-34,-19,9,0,-43,-58,-73,-34
-58,-53,4,56,-31,-24,9,4,-39,-58,-78,-34
-58,-63,-4,61,-26,-34,9,14,-39,-63,-82,-39
-63,-68,-4,65,-29,-36,14,14,-43,-68,-87,-43
-63,-68,-4,65,-29,-36,14,14,-43,-68,-92,-43
-63,-63,0,63,-31,-31,14,14,-43,-63,-92,-43
-63,-63,0,63,-31,-31,14,19,-39,-63,-92,-43
-63,-63,0,63,-31,-31,19,19,-39,-63,-92,-43
-63,-63,0,63,-31,-31,19,24,-34,-58,-92,-43
-63,-63,0,63,-31,-31,19,29,-34,-63,-97,-43
-63,-63,0,63,-31,-31,14,29,-29,-68,-102,-43
-63,-58,4,61,-34,-26,14,29,-29,-68,-102,-43
-68,-53,14,61,-41,-19,14,29,-24,-63,-97,-43
-68,-53,14,61,-41,-19,19,34,-24,-58,-97,-43
-68,-53,14,61,-41,-19,29,34,-24,-53,-97,-43
-63,-53,9,58,-36,-21,29,39,-24,-53,-92,-39
-58,-48,9,53,-34,-19,29,39,-24,-53,-87,-34
-58,-48,9,53,-34,-19,29,39,-19,-53,-87,-34
-58,-48,9,53,-34,-19,29,39,-19,-58,-87,-34
-58,-48,9,53,-34,-19,29,43,-24,-58,-92,-39
-53,-48,4,51,-29,-21,29,43,-24,-63,-92,-43
-58,-43,14,51,-36,-14,29,43,-24,-63,-87,-43
-63,-43,19,53,-41,-12,24,43,-24,-58,-87,-48
-63,-43,19,53,-41,-12,24,43,-19,-58,-87,-48
-63,-39,24,51,-43,-7,24,43,-19,-58,-87,-43
-63,-39,24,51,-43,-7,24,43,-19,-58,-87,-39
-63,-39,24,51,-43,-7,24,43,-19,-58,-87,-34
-63,-39,24,51,-43,-7,24,43,-19,-58,-87,-34
-63,-39,24,51,-43,-7,24,43,-19,-58,-92,-34
-63,-39,24,51,-43,-7,29,43,-19,-58,-92,-29
-63,-43,19,53,-41,-12,34,43,-19,-58,-92,-24
-63,-39,24,51,-43,-7,34,43,-14,-58,-92,-24
-63,-39,24,51,-43,-7,34,43,-9,-58,-92,-24
-63,-34,29,48,-46,-2,34,43,-9,-58,-97,-24
-63,-29,34,46,-48,2,34,43,-9,-58,-102,-24
-68,-29,39,48,-53,4,34,39,-14,-58,-102,-29
-78,-24,53,51,-65,14,34,24,-29,-73,-117,-39
-92,-19,73,56,-82,26,39,0,-73,-92,-141,-53
-122,-9,112,65,-117,51,48,-14,-107,-117,-175,-78
-156,-9,146,82,-151,68,78,39,-92,-131,-214,-122
-200,-34,165,117,-183,65,131,170,-29,-126,-263,-180
-204,-82,122,143,-163,19,185,273,63,-97,-263,-200
-195,-68,126,131,-161,29,224,302,165,4,-151,-97
-107,9,117,48,-112,63,146,68,97,92,63,126
53,87,34,-70,9,61,14,-209,-48,141,331,414
253,131,-122,-192,187,4,-170,-566,-224,180,658,751
478,209,-268,-344,373,-29,-400,-1000,-414,239,1044,1151
712,326,-385,-519,549,-29,-658,-1512,-605,302,1454,1576
736,473,-263,-605,500,104,-810,-2054,-956,219,1556,1737
614,497,-117,-556,366,190,-839,-2420,-1371,-107,1122,1478
385,409,24,-397,180,217,-785,-2532,-1712,-561,366,888
136,278,141,-207,-2,209,-732,-2469,-1956,-1000,-258,356
58,190,131,-124,-36,161,-634,-2069,-1795,-1083,-488,97
19,156,136,-87,-58,146,-527,-1605,-1454,-936,-468,34
0,102,102,-51,-51,102,-424,-1122,-1049,-732,-395,0
-43,24,68,9,-56,46,-287,-741,-712,-551,-351,-53
-78,-19,58,48,-68,19,-175,-502,-497,-405,-307,-87
-82,-19,63,51,-73,21,-107,-336,-351,-273,-219,-53
-78,-19,58,48,-68,19,-53,-185,-204,-185,-156,-29
-78,-24,53,51,-65,14,-9,-68,-97,-131,-136,-24
-73,-24,48,48,-61,12,14,-9,-34,-87,-117,-14
-68,-34,34,51,-51,0,29,29,-9,-58,-102,-9
-68,-34,34,51,-51,0,34,78,29,-34,-97,-9
-73,-34,39,53,-56,2,48,117,58,-34,-97,-4
-73,-34,39,53,-56,2,53,126,73,-29,-92,-4
-73,-34,39,53,-56,2,53,131,78,-19,-87,-4
-68,-39,29,53,-48,-4,58,151,82,-14,-82,-4
-68,-39,29,53,-48,-4,63,161,102,-9,-82,-4
-68,-39,29,53,-48,-4,63,165,117,-4,-82,-4
-63,-43,19,53,-41,-12,68,170,117,4,-82,-4
-63,-43,19,53,-41,-12,68,180,122,4,-78,-4
-63,-43,19,53,-41,-12,68,185,131,4,-78,0
-63,-43,19,53,-41,-12,68,195,141,9,-78,0
-48,-43,4,46,-26,-19,68,195,136,9,-78,0
-43,-39,4,41,-24,-17,68,204,141,9,-78,-9
-43,-39,4,41,-24,-17,68,209,146,14,-78,-9
-39,-43,-4,41,-17,-24,68,214,156,14,-73,-4
-39,-43,-4,41,-17,-24,68,219,161,24,-68,0
-34,-43,-9,39,-12,-26,68,224,170,34,-68,4
-34,-43,-9,39,-12,-26,68,234,180,39,-68,9
-29,-43,-14,36,-7,-29,68,244,190,43,-58,9
-24,-43,-19,34,-2,-31,68,253,204,43,-58,14
-24,-43,-19,34,-2,-31,63,273,214,48,-48,24
-19,-34,-14,26,-2,-24,63,287,224,58,-48,24
-14,-29,-14,21,0,-21,63,297,239,68,-43,29
-9,-34,-24,21,7,-29,68,307,253,73,-34,29
0,-34,-34,17,17,-34,73,312,268,82,-24,29
4,-29,-34,12,19,-31,68,331,287,92,-14,29
9,-29,-39,9,24,-34,68,351,307,102,-9,43
19,-19,-39,0,29,-29,68,370,326,117,9,53
24,-19,-43,-2,34,-31,68,380,346,131,24,68
34,-14,-48,-9,41,-31,68,405,366,151,39,78
43,-9,-53,-17,48,-31,58,424,390,161,48,87
53,-4,-58,-24,56,-31,53,444,414,175,68,97
68,0,-68,-34,68,-34,53,458,444,195,78,117
78,9,-68,-43,73,-29,43,478,458,209,97,126
92,14,-78,-53,85,-31,34,492,478,229,117,141
107,19,-87,-63,97,-34,24,512,507,248,136,165
122,24,-97,-73,109,-36,19,517,527,258,151,180
136,34,-102,-85,119,-34,9,527,541,278,170,195
151,39,-112,-95,131,-36,0,536,556,287,180,209
156,43,-112,-100,134,-34,-9,541,570,297,195,219
165,53,-112,-109,139,-29,-19,546,585,312,214,234
175,63,-112,-119,143,-24,-19,556,595,317,234,248
180,68,-112,-124,146,-21,-24,556,605,326,248,263
190,73,-117,-131,153,-21,-24,556,610,331,253,268
195,73,-122,-134,158,-24,-29,556,614,341,258,273
195,78,-117,-136,156,-19,-34,556,619,346,263,278
190,82,-107,-136,148,-12,-39,546,624,346,263,283
195,92,-102,-143,148,-4,-43,527,605,346,268,287
195,97,-97,-146,146,0,-48,492,585,336,268,292
185,97,-87,-141,136,4,-53,463,551,326,263,297
175,107,-68,-141,122,19,-53,429,502,307,253,297
165,107,-58,-136,112,24,-53,375,468,287,244,292
146,107,-39,-126,92,34,-53,336,419,258,224,283
122,107,-14,-114,68,46,-53,283,366,229,204,273
107,92,-14,-100,61,39,-53,244,312,200,185,248
87,82,-4,-85,46,39,-48,209,268,165,161,229
63,73,9,-68,26,41,-43,165,224,131,141,214
53,73,19,-63,17,46,-39,136,180,92,97,190
39,58,19,-48,9,39,-34,107,136,68,73,161
19,43,24,-31,-2,34,-29,87,112,48,53,141
0,34,34,-17,-17,34,-24,68,82,19,24,117
-4,19,24,-7,-14,21,-14,53,63,4,4,107
-19,9,29,4,-24,19,-9,43,43,-14,-14,92
-29,0,29,14,-29,14,-9,29,34,-24,-29,78
-34,-4,29,19,-31,12,-9,24,24,-29,-39,68
-34,-9,24,21,-29,7,-4,19,14,-48,-48,63
-39,-14,24,26,-31,4,0,14,0,-58,-53,58
-43,-19,24,31,-34,2,4,14,0,-58,-58,53
-48,-19,29,34,-39,4,9,19,-9,-63,-58,43
-48,-24,24,36,-36,0,9,14,-9,-58,-63,39
-48,-24,24,36,-36,0,14,14,-9,-58,-68,34
-48,-24,24,36,-36,0,14,14,-14,-58,-68,34
-53,-29,24,41,-39,-2,19,14,-14,-58,-73,29
-43,-29,14,36,-29,-7,14,9,-14,-58,-73,29
-39,-29,9,34,-24,-9,9,4,-14,-63,-73,29
-39,-29,9,34,-24,-9,9,4,-14,-63,-73,29
-34,-29,4,31,-19,-12,9,4,-14,-63,-73,29
-34,-29,4,31,-19,-12,9,9,-4,-63,-73,34
-34,-29,4,31,-19,-12,9,14,0,-63,-73,39
-39,-29,9,34,-24,-9,14,14,0,-58,-73,39
-39,-29,9,34,-24,-9,14,14,0,-58,-73,39
-34,-29,4,31,-19,-12,14,14,4,-58,-68,34
-34,-29,4,31,-19,-12,9,14,4,-53,-63,34
-34,-29,4,31,-19,-12,9,19,4,-48,-63,39
-34,-29,4,31,-19,-12,9,19,4,-48,-63,39
-34,-24,9,29,-21,-7,9,19,4,-48,-63,39
-34,-19,14,26,-24,-2,4,19,4,-53,-58,39
-34,-19,14,26,-24,-2,4,19,4,-53,-58,39
-34,-14,19,24,-26,2,4,19,4,-48,-58,39
-34,-14,19,24,-26,2,4,24,9,-43,-58,39
-29,-14,14,21,-21,0,4,24,9,-43,-58,39
-24,-14,9,19,-17,-2,4,24,9,-39,-58,48
-24,-14,9,19,-17,-2,4,24,9,-39,-53,48
-24,-19,4,21,-14,-7,4,24,14,-39,-48,53
-24,-24,0,24,-12,-12,4,29,14,-39,-43,53
-24,-19,4,21,-14,-7,4,29,14,-39,-43,58
-24,-19,4,21,-14,-7,4,29,19,-39,-43,58
-19,-19,0,19,-9,-9,9,24,24,-34,-39,63
-19,-19,0,19,-9,-9,9,19,24,-34,-39,63
-24,-19,4,21,-14,-7,9,24,24,-29,-39,63
-24,-14,9,19,-17,-2,9,24,24,-24,-39,63
-24,-14,9,19,-17,-2,9,24,24,-24,-34,63
-24,-14,9,19,-17,-2,9,19,24,-24,-34,58
-24,-14,9,19,-17,-2,9,19,24,-19,-34,53
-24,-14,9,19,-17,-2,9,19,29,-19,-34,53
-29,-14,14,21,-21,0,9,24,29,-14,-34,53
-34,-19,14,26,-24,-2,9,24,29,-14,-34,53
-34,-19,14,26,-24,-2,9,24,24,-19,-34,58
-29,-19,9,24,-19,-4,9,24,24,-19,-34,63
-29,-19,9,24,-19,-4,9,24,24,-19,-29,63
-34,-24,9,29,-21,-7,9,24,24,-19,-29,58
-34,-19,14,26,-24,-2,9,19,19,-19,-29,53
-34,-14,19,24,-26,2,9,19,9,-19,-34,43
-34,-14,19,24,-26,2,9,19,9,-19,-34,43
-34,-14,19,24,-26,2,9,19,14,-19,-39,43
-34,-19,14,26,-24,-2,9,19,14,-24,-43,43
-39,-19,19,29,-29,0,9,14,9,-24,-43,43
-39,-24,14,31,-26,-4,14,14,9,-29,-39,43
-39,-24,14,31,-26,-4,14,14,4,-29,-34,39
-39,-24,14,31,-26,-4,14,9,4,-29,-34,39
-39,-24,14,31,-26,-4,9,9,4,-29,-34,39
-39,-24,14,31,-26,-4,9,14,4,-29,-39,39
-43,-24,19,34,-31,-2,9,14,4,-29,-48,39
-43,-24,19,34,-31,-2,9,14,4,-29,-48,39
-43,-24,19,34,-31,-2,9,14,0,-39,-48,34
-43,-29,14,36,-29,-7,9,14,4,-39,-48,29
-48,-34,14,41,-31,-9,9,14,9,-43,-48,24
-48,-39,9,43,-29,-14,9,14,9,-43,-48,24
-48,-39,9,43,-29,-14,9,14,4,-39,-48,24
-48,-39,9,43,-29,-14,9,14,0,-39,-48,24
-48,-39,9,43,-29,-14,9,14,-4,-39,-48,19
-43,-39,4,41,-24,-17,14,9,-4,-43,-53,14
-43,-43,0,43,-21,-21,14,4,-9,-43,-53,9
-43,-43,0,43,-21,-21,9,4,-9,-43,-58,9
-43,-43,0,43,-21,-21,9,4,-9,-43,-58,9
-48,-43,4,46,-26,-19,9,4,-9,-43,-63,4
-53,-43,9,48,-31,-17,9,4,-9,-43,-68,4
-48,-43,4,46,-26,-19,9,4,-4,-43,-68,4
-48,-39,9,43,-29,-14,9,0,-4,-43,-68,0
-48,-39,9,43,-29,-14,9,4,0,-43,-63,4
-53,-39,14,46,-34,-12,9,9,4,-39,-53,9
-53,-24,29,39,-41,2,19,19,9,-29,-48,14
-48,-14,34,31,-41,9,29,34,24,-14,-43,19
-48,0,48,24,-48,24,43,39,34,-4,-34,19
-53,14,68,19,-61,41,63,48,48,9,-29,24
-53,24,78,14,-65,51,68,68,58,24,-14,29
-53,24,78,14,-65,51,73,82,73,34,-4,39
-48,29,78,9,-63,53,68,97,82,39,0,43
-39,24,63,7,-51,43,58,112,92,48,0,48
-34,29,63,2,-48,46,43,107,92,48,-4,48
-29,29,58,0,-43,43,24,87,87,39,-4,43
-24,14,39,4,-31,26,9,48,63,19,-4,43
-24,4,29,9,-26,17,-4,4,24,-4,-29,39
-24,-4,19,14,-21,7,-19,14,14,-4,-34,34
-14,-9,4,12,-9,-2,-39,0,4,-14,-29,34
-14,-24,-9,19,-2,-17,-43,-14,-9,-34,-43,24
-14,-19,-4,17,-4,-12,-43,-29,-19,-39,-43,24
-14,-14,0,14,-7,-7,-43,-34,-24,-48,-58,24
-14,-19,-4,17,-4,-12,-34,-48,-43,-68,-87,9
-29,-29,0,29,-14,-14,-19,-43,-39,-63,-78,9
-48,-39,9,43,-29,-14,-9,-39,-39,-58,-68,9
-48,-39,9,43,-29,-14,0,-24,-29,-53,-63,9
-48,-39,9,43,-29,-14,9,-9,-19,-48,-58,9
-53,-43,9,48,-31,-17,9,-4,-19,-48,-58,9
-53,-43,9,48,-31,-17,9,0,-19,-48,-58,4
-58,-48,9,53,-34,-19,9,0,-24,-48,-63,4
-58,-48,9,53,-34,-19,9,0,-24,-48,-63,-4
-58,-58,0,58,-29,-29,9,-4,-19,-48,-68,-4
-58,-73,-14,65,-21,-43,9,-4,-19,-53,-73,-9
-63,-78,-14,70,-24,-46,14,-4,-29,-58,-78,-19
-63,-78,-14,70,-24,-46,14,-4,-34,-58,-82,-24
-63,-73,-9,68,-26,-41,14,-4,-39,-53,-82,-24
-63,-73,-9,68,-26,-41,14,0,-39,-53,-82,-24
-63,-68,-4,65,-29,-36,19,0,-39,-53,-82,-24
-63,-63,0,63,-31,-31,19,4,-34,-48,-82,-24
-63,-63,0,63,-31,-31,24,9,-29,-48,-82,-24
-63,-63,0,63,-31,-31,24,9,-19,-48,-82,-24
-63,-68,-4,65,-29,-36,19,9,-19,-48,-82,-24
-68,-73,-4,70,-31,-39,14,9,-14,-43,-78,-24
-68,-73,-4,70,-31,-39,14,9,-14,-43,-78,-24
-68,-73,-4,70,-31,-39,19,4,-14,-43,-78,-24
-63,-73,-9,68,-26,-41,19,9,-19,-43,-78,-24
-58,-68,-9,63,-24,-39,19,9,-24,-43,-78,-24
-58,-68,-9,63,-24,-39,24,9,-19,-39,-78,-29
-58,-68,-9,63,-24,-39,29,9,-19,-39,-78,-34
-63,-68,-4,65,-29,-36,29,14,-19,-39,-82,-34
-63,-68,-4,65,-29,-36,29,14,-14,-43,-82,-34
-63,-63,0,63,-31,-31,34,14,-14,-43,-78,-34
-63,-63,0,63,-31,-31,34,14,-14,-39,-78,-39
-63,-63,0,63,-31,-31,34,14,-9,-39,-78,-39
-63,-58,4,61,-34,-26,34,14,-9,-39,-78,-34
-63,-58,4,61,-34,-26,34,14,-9,-39,-78,-34
-63,-58,4,61,-34,-26,34,14,-9,-39,-78,-34
-63,-58,4,61,-34,-26,34,14,-9,-39,-78,-34
-63,-58,4,61,-34,-26,34,14,-9,-39,-82,-34
-63,-53,9,58,-36,-21,34,14,-9,-39,-78,-34
-63,-53,9,58,-36,-21,34,14,-9,-39,-73,-34
-63,-48,14,56,-39,-17,34,14,-9,-39,-73,-34
-63,-48,14,56,-39,-17,34,14,-9,-39,-73,-34
-63,-48,14,56,-39,-17,34,14,-9,-39,-78,-34
-63,-48,14,56,-39,-17,34,14,-9,-39,-82,-34
-68,-48,19,58,-43,-14,34,9,-14,-43,-82,-39
-78,-43,34,61,-56,-4,34,-4,-29,-63,-97,-48
-97,-39,58,68,-78,9,43,-24,-73,-82,-122,-68
-131,-29,102,80,-117,36,58,-34,-107,-107,-156,-97
-165,-29,136,97,-151,53,87,19,-92,-117,-195,-146
-209,-53,156,131,-183,51,141,151,-29,-107,-244,-209
-209,-102,107,156,-158,2,195,248,53,-78,-244,-224
-195,-87,107,141,-151,9,234,273,146,24,-131,-117
-97,-19,78,58,-87,29,146,29,78,122,92,107
73,48,-24,-61,48,12,4,-258,-68,180,370,395
278,107,-170,-192,224,-31,-180,-614,-244,204,692,722
507,200,-307,-353,407,-53,-409,-1049,-434,248,1073,1112
732,302,-429,-517,580,-63,-668,-1576,-644,302,1454,1522
746,434,-312,-590,529,61,-819,-2132,-1015,209,1527,1668
629,468,-161,-549,395,153,-849,-2483,-1429,-131,1083,1410
405,390,-14,-397,209,187,-795,-2581,-1771,-600,317,819
161,273,112,-217,24,192,-746,-2503,-1995,-1005,-263,326
87,200,112,-143,-12,156,-653,-2088,-1815,-1054,-448,107
48,180,131,-114,-41,156,-546,-1625,-1473,-907,-424,39
29,141,112,-85,-41,126,-444,-1141,-1068,-702,-346,0
-19,63,82,-21,-51,73,-302,-771,-736,-522,-297,-53
-58,19,78,19,-68,48,-185,-541,-527,-375,-248,-87
-68,14,82,26,-75,48,-117,-366,-380,-248,-180,-68
-68,9,78,29,-73,43,-63,-204,-234,-165,-136,-58
-68,-9,58,39,-63,24,-19,-87,-122,-112,-122,-58
-63,-24,39,43,-51,7,4,-29,-53,-68,-107,-53
-58,-34,24,46,-41,-4,24,9,-29,-39,-87,-53
-58,-34,24,46,-41,-4,34,58,9,-14,-78,-58
-63,-34,29,48,-46,-2,48,97,43,-9,-78,-53
-63,-34,29,48,-46,-2,53,107,63,0,-73,-53
-63,-39,24,51,-43,-7,48,112,68,9,-73,-53
-58,-48,9,53,-34,-19,48,131,73,14,-73,-53
-58,-48,9,53,-34,-19,53,141,87,14,-73,-58
-58,-48,9,53,-34,-19,53,146,97,14,-73,-63
-53,-53,0,53,-26,-26,58,151,97,24,-68,-68
-53,-53,0,53,-26,-26,58,161,102,24,-58,-73
-58,-53,4,56,-31,-24,63,165,112,24,-53,-68
-63,-53,9,58,-36,-21,68,175,122,29,-48,-68
-53,-53,0,53,-26,-26,68,175,122,29,-48,-63
-53,-48,4,51,-29,-21,68,185,131,29,-48,-68
-53,-48,4,51,-29,-21,68,190,136,34,-53,-68
-48,-53,-4,51,-21,-29,68,195,146,34,-53,-63
-48,-53,-4,51,-21,-29,63,204,151,39,-48,-63
-43,-53,-9,48,-17,-31,58,214,161,43,-48,-63
-43,-53,-9,48,-17,-31,63,224,170,48,-48,-58
-39,-53,-14,46,-12,-34,68,234,180,53,-39,-58
-34,-53,-19,43,-7,-36,68,239,195,58,-39,-63
-34,-53,-19,43,-7,-36,63,253,204,68,-29,-63
-29,-48,-19,39,-4,-34,63,268,214,78,-29,-63
-24,-48,-24,36,0,-36,63,278,229,87,-24,-58
-19,-53,-34,36,7,-43,63,292,244,92,-14,-53
-9,-53,-43,31,17,-48,63,302,258,102,-4,-48
-4,-48,-43,26,19,-46,58,322,278,112,4,-53
0,-48,-48,24,24,-48,58,341,297,122,9,-43
14,-39,-53,12,34,-46,58,361,317,136,24,-39
24,-39,-63,7,43,-51,58,370,336,151,34,-29
34,-34,-68,0,51,-51,58,400,356,170,48,-19
43,-29,-73,-7,58,-51,48,424,380,180,58,-9
53,-24,-78,-14,65,-51,43,444,405,195,82,0
68,-19,-87,-24,78,-53,43,458,434,214,97,19
82,-9,-92,-36,87,-51,39,478,448,229,117,29
102,-4,-107,-48,104,-56,34,492,468,248,136,43
117,0,-117,-58,117,-58,24,512,497,268,156,68
131,4,-126,-68,129,-61,19,517,517,278,170,82
146,19,-126,-82,136,-53,14,527,531,297,190,97
161,29,-131,-95,146,-51,9,536,546,307,200,112
175,34,-141,-104,158,-53,0,541,556,317,209,122
195,43,-151,-119,173,-53,-9,546,566,331,224,136
204,53,-151,-129,178,-48,-9,556,575,336,239,141
209,58,-151,-134,180,-46,-14,556,585,346,248,146
219,63,-156,-141,187,-46,-14,556,590,346,253,151
224,63,-161,-143,192,-48,-19,556,595,351,258,156
229,68,-161,-148,195,-46,-24,556,595,356,263,161
229,73,-156,-151,192,-41,-29,546,595,356,263,165
234,87,-146,-161,190,-29,-34,527,570,356,268,170
234,97,-136,-165,185,-19,-39,492,546,346,268,175
224,97,-126,-161,175,-14,-43,463,517,336,263,180
214,107,-107,-161,161,0,-43,429,473,317,253,180
204,107,-97,-156,151,4,-43,375,439,302,244,175
185,107,-78,-146,131,14,-43,336,390,278,224,165
161,107,-53,-134,107,26,-43,283,336,248,204,156
146,92,-53,-119,100,19,-43,244,283,219,185,131
126,82,-43,-104,85,19,-39,209,239,190,161,107
102,73,-29,-87,65,21,-34,165,195,161,141,87
87,73,-14,-80,51,29,-29,136,156,122,102,73
68,58,-9,-63,39,24,-24,107,117,97,82,53
48,43,-4,-46,26,19,-19,87,92,78,63,34
29,34,4,-31,12,19,-14,68,63,48,34,9
24,19,-4,-21,14,7,-4,53,43,34,19,0
9,9,0,-9,4,4,0,43,24,14,4,-14
-4,0,4,2,-4,2,0,34,14,4,-9,-29
-14,-4,9,9,-12,2,0,34,4,0,-19,-39
-14,-9,4,12,-9,-2,4,29,-4,-19,-34,-48
-19,-14,4,17,-12,-4,9,24,-19,-29,-43,-58
-24,-19,4,21,-14,-7,9,14,-19,-29,-48,-68
-29,-19,9,24,-19,-4,9,9,-29,-34,-48,-82
-29,-24,4,26,-17,-9,9,4,-29,-34,-53,-82
-29,-24,4,26,-17,-9,14,4,-29,-39,-58,-82
-24,-19,4,21,-14,-7,14,4,-34,-39,-58,-82
-24,-19,4,21,-14,-7,19,4,-34,-39,-63,-87
-24,-19,4,21,-14,-7,19,4,-34,-39,-63,-87
-29,-19,9,24,-19,-4,19,4,-34,-43,-63,-87
-34,-19,14,26,-24,-2,19,4,-34,-43,-63,-87
-34,-19,14,26,-24,-2,19,4,-34,-43,-63,-87
-34,-24,9,29,-21,-7,19,9,-29,-43,-63,-87
-34,-29,4,31,-19,-12,19,14,-29,-43,-63,-87
-39,-29,9,34,-24,-9,24,14,-29,-39,-63,-87
-39,-29,9,34,-24,-9,24,14,-29,-39,-63,-87
-34,-29,4,31,-19,-12,24,14,-19,-39,-58,-92
-34,-29,4,31,-19,-12,19,14,-14,-34,-53,-92
-34,-29,4,31,-19,-12,19,19,-14,-29,-53,-87
-34,-29,4,31,-19,-12,19,19,-14,-29,-53,-87
-39,-29,9,34,-24,-9,19,19,-14,-29,-53,-87
-43,-29,14,36,-29,-7,14,19,-14,-34,-48,-87
-43,-29,14,36,-29,-7,14,14,-14,-34,-48,-87
-43,-24,19,34,-31,-2,14,9,-14,-29,-48,-87
-43,-24,19,34,-31,-2,14,14,-14,-24,-48,-87
-39,-24,14,31,-26,-4,14,14,-19,-24,-48,-87
-34,-24,9,29,-21,-7,14,19,-19,-14,-48,-78
-34,-24,9,29,-21,-7,14,24,-19,-9,-43,-78
-34,-24,9,29,-21,-7,14,24,-14,-9,-39,-73
-34,-24,9,29,-21,-7,14,29,-14,-9,-34,-73
-34,-19,14,26,-24,-2,14,29,-14,-9,-34,-73
-34,-19,14,26,-24,-2,14,29,-9,-9,-34,-78
-24,-19,4,21,-14,-7,14,24,-4,-4,-29,-73
-19,-19,0,19,-9,-9,9,19,-4,-4,-29,-73
-24,-19,4,21,-14,-7,9,24,-4,0,-29,-73
-24,-14,9,19,-17,-2,9,24,-4,4,-29,-73
-24,-14,9,19,-17,-2,9,29,-4,4,-24,-73
-24,-14,9,19,-17,-2,9,29,-4,4,-24,-78
-24,-14,9,19,-17,-2,9,29,-4,9,-24,-78
-24,-14,9,19,-17,-2,9,29,0,9,-24,-73
-24,-14,9,19,-17,-2,9,29,0,9,-24,-73
-24,-19,4,21,-14,-7,9,24,0,4,-24,-73
-24,-19,4,21,-14,-7,9,24,-4,0,-24,-73
-19,-19,0,19,-9,-9,9,24,-4,0,-24,-73
-14,-19,-4,17,-4,-12,9,24,-4,0,-19,-73
-14,-24,-9,19,-2,-17,9,24,-4,0,-19,-78
-14,-24,-9,19,-2,-17,9,19,-4,0,-19,-78
-14,-24,-9,19,-2,-17,9,19,-9,0,-24,-82
-19,-19,0,19,-9,-9,9,19,-9,0,-24,-82
-24,-14,9,19,-17,-2,9,19,-4,0,-29,-82
-24,-19,4,21,-14,-7,4,24,0,-4,-34,-82
-29,-19,9,24,-19,-4,0,24,0,-4,-34,-82
-29,-24,4,26,-17,-9,4,24,0,-9,-34,-82
-29,-24,4,26,-17,-9,4,24,-4,-9,-34,-87
-29,-24,4,26,-17,-9,4,19,-4,-9,-34,-92
-29,-24,4,26,-17,-9,0,19,-4,-9,-34,-97
-29,-24,4,26,-17,-9,0,24,-4,-9,-34,-97
-34,-24,9,29,-21,-7,0,24,-4,-9,-39,-97
-34,-19,14,26,-24,-2,0,19,-4,-9,-39,-97
-34,-14,19,24,-26,2,0,14,-9,-19,-39,-102
-34,-14,19,24,-26,2,0,14,-9,-19,-39,-102
-39,-14,24,26,-31,4,0,14,-9,-24,-39,-102
-34,-24,9,29,-21,-7,0,14,-9,-24,-39,-102
-29,-29,0,29,-14,-14,0,14,-14,-19,-39,-102
-29,-29,0,29,-14,-14,0,14,-14,-19,-39,-102
-29,-29,0,29,-14,-14,0,14,-14,-19,-39,-107
-29,-24,4,26,-17,-9,4,14,-14,-24,-43,-107
-34,-24,9,29,-21,-7,4,14,-19,-24,-43,-107
-29,-24,4,26,-17,-9,0,14,-19,-24,-48,-107
-24,-24,0,24,-12,-12,0,14,-19,-24,-48,-107
-24,-24,0,24,-12,-12,0,14,-19,-24,-48,-112
-24,-24,0,24,-12,-12,0,14,-19,-24,-48,-112
-19,-24,-4,21,-7,-14,0,14,-14,-24,-48,-112
-19,-19,0,19,-9,-9,0,9,-14,-24,-48,-117
-19,-19,0,19,-9,-9,0,14,-19,-29,-53,-117
-24,-19,4,21,-14,-7,0,19,-24,-29,-53,-117
-24,-14,9,19,-17,-2,0,19,-24,-29,-53,-117
-19,-14,4,17,-12,-4,0,24,-14,-24,-53,-117
-19,0,19,9,-19,9,4,34,-4,-14,-43,-112
-24,14,39,4,-31,26,14,48,9,0,-39,-102
-24,29,53,-2,-39,41,24,63,24,14,-19,-97
-24,34,58,-4,-41,46,34,73,43,24,-4,-87
-24,43,68,-9,-46,56,43,87,53,29,0,-87
-19,43,63,-12,-41,53,48,102,63,39,0,-87
-9,48,58,-19,-34,53,48,126,82,48,0,-82
0,48,48,-24,-24,48,43,136,97,48,4,-82
4,43,39,-24,-17,41,29,136,97,48,19,-82
4,43,39,-24,-17,41,14,131,82,43,9,-87
0,34,34,-17,-17,34,-4,107,58,34,-9,-92
4,29,24,-17,-9,26,-29,58,34,14,-19,-92
9,9,0,-9,4,4,-48,39,14,-4,-34,-102
14,9,-4,-12,9,2,-63,19,0,-9,-34,-102
14,9,-4,-12,9,2,-73,14,-4,-24,-39,-107
14,9,-4,-12,9,2,-73,4,-14,-39,-53,-122
14,-4,-19,-4,17,-12,-73,-14,-39,-58,-68,-131
4,-4,-9,0,7,-7,-63,-39,-58,-68,-78,-146
0,-4,-4,2,2,-4,-48,-24,-53,-68,-78,-141
-9,-9,0,9,-4,-4,-39,-9,-48,-68,-78,-136
-19,-9,9,14,-14,0,-29,0,-39,-58,-73,-136
-29,-9,19,19,-24,4,-19,9,-29,-48,-68,-136
-29,-19,9,24,-19,-4,-19,9,-24,-48,-68,-141
-29,-24,4,26,-17,-9,-19,9,-24,-48,-68,-141
-29,-29,0,29,-14,-14,-19,14,-24,-48,-73,-146
-29,-29,0,29,-14,-14,-19,19,-24,-48,-73,-151
-29,-34,-4,31,-12,-19,-14,19,-19,-48,-78,-151
-29,-43,-14,36,-7,-29,-9,24,-19,-53,-82,-156
-34,-48,-14,41,-9,-31,-4,24,-24,-63,-82,-161
-34,-48,-14,41,-9,-31,-4,24,-24,-68,-82,-161
-34,-43,-9,39,-12,-26,-4,24,-24,-63,-82,-161
-34,-43,-9,39,-12,-26,-4,29,-19,-63,-82,-161
-34,-43,-9,39,-12,-26,-4,29,-19,-58,-82,-165
-34,-43,-9,39,-12,-26,-9,34,-14,-48,-82,-170
-34,-39,-4,36,-14,-21,-4,39,-14,-48,-82,-170
-34,-34,0,34,-17,-17,-4,39,-9,-48,-82,-170
-34,-34,0,34,-17,-17,-4,39,-9,-48,-82,-170
-39,-34,4,36,-21,-14,-4,39,-4,-43,-78,-170
-39,-34,4,36,-21,-14,-4,43,-4,-43,-78,-170
-39,-34,4,36,-21,-14,0,43,-4,-43,-78,-170
-39,-34,4,36,-21,-14,0,48,-4,-48,-78,-170
-39,-29,9,34,-24,-9,0,48,-4,-53,-78,-170
-39,-29,9,34,-24,-9,0,48,0,-48,-78,-170
-39,-29,9,34,-24,-9,0,48,0,-48,-78,-170
-39,-29,9,34,-24,-9,0,53,0,-43,-82,-170
-34,-29,4,31,-19,-12,0,53,4,-43,-82,-170
-34,-29,4,31,-19,-12,0,53,4,-43,-78,-170
-34,-34,0,34,-17,-17,-4,53,4,-39,-78,-175
-34,-34,0,34,-17,-17,-4,53,9,-39,-78,-180
-34,-29,4,31,-19,-12,-4,53,9,-39,-78,-180
-34,-29,4,31,-19,-12,-4,53,4,-43,-78,-180
-34,-29,4,31,-19,-12,-4,53,0,-48,-78,-180
-29,-29,0,29,-14,-14,-4,53,0,-48,-78,-180
-24,-29,-4,26,-9,-17,-4,53,0,-48,-82,-180
-24,-19,4,21,-14,-7,-4,53,0,-48,-82,-180
-24,-14,9,19,-17,-2,-4,53,0,-48,-82,-180
-24,-9,14,17,-19,2,-4,53,4,-48,-82,-180
-24,-9,14,17,-19,2,-4,53,9,-48,-82,-180
-24,-9,14,17,-19,2,-4,53,9,-48,-82,-180
-24,-9,14,17,-19,2,-4,53,9,-48,-82,-180
-24,-9,14,17,-19,2,-4,58,9,-39,-78,-185
-29,-4,24,17,-26,9,-4,53,0,-43,-87,-195
-48,0,48,24,-48,24,-4,14,-39,-63,-112,-204
-82,9,92,36,-87,51,0,-14,-68,-87,-146,-224
-126,19,146,53,-136,82,19,19,-78,-112,-185,-273
-180,4,185,87,-183,95,63,131,-39,-117,-234,-336
-195,-73,122,134,-158,24,141,317,78,-102,-287,-419
-195,-87,107,141,-151,9,204,429,204,-14,-229,-380
-122,-19,102,70,-112,41,165,287,244,107,-53,-204
24,48,24,-36,0,36,73,102,204,190,175,34
239,87,-151,-163,195,-31,-92,-209,43,204,424,307
478,161,-317,-319,397,-78,-302,-600,-131,239,732,644
790,263,-527,-527,658,-131,-610,-1171,-326,331,1239,1151
893,395,-497,-644,695,-51,-810,-1771,-683,278,1439,1395
795,463,-331,-629,563,65,-868,-2278,-1161,-19,1107,1229
590,419,-170,-505,380,124,-844,-2532,-1566,-444,453,732
292,302,9,-297,141,156,-810,-2591,-1956,-956,-219,185
165,229,63,-197,51,146,-732,-2313,-1942,-1112,-497,-87
126,229,102,-178,12,165,-634,-1834,-1615,-985,-483,-141
107,209,102,-158,2,156,-541,-1337,-1224,-800,-414,-165
48,122,73,-85,-12,97,-395,-907,-839,-605,-351,-229
0,68,68,-34,-34,68,-273,-619,-575,-444,-287,-273
-9,58,68,-24,-39,63,-195,-424,-424,-302,-214,-248
-9,48,58,-19,-34,53,-131,-244,-273,-204,-165,-234
-9,34,43,-12,-26,39,-82,-92,-131,-146,-146,-234
-4,24,29,-9,-17,26,-53,0,-34,-97,-126,-229
0,14,14,-7,-7,14,-29,43,-9,-58,-102,-229
0,14,14,-7,-7,14,-14,97,29,-24,-87,-234
-9,14,24,-2,-17,19,0,141,73,-19,-82,-229
-14,14,29,0,-21,21,4,156,102,-9,-73,-229
-14,9,24,2,-19,17,4,165,107,0,-68,-229
-9,0,9,4,-9,4,9,190,112,4,-63,-229
-14,0,14,7,-14,7,14,200,126,4,-63,-229
-19,0,19,9,-19,9,14,204,136,4,-63,-229
-14,-4,9,9,-12,2,19,209,136,19,-68,-234
-14,-4,9,9,-12,2,19,219,141,24,-68,-239
-9,-4,4,7,-7,0,19,224,151,24,-68,-234
-4,-4,0,4,-2,-2,19,234,161,29,-68,-234
4,-9,-14,2,9,-12,19,234,161,29,-68,-234
4,-9,-14,2,9,-12,19,244,170,29,-68,-244
0,-9,-9,4,4,-9,19,248,175,34,-68,-244
0,-14,-14,7,7,-14,19,253,185,34,-63,-239
0,-14,-14,7,7,-14,19,263,190,34,-53,-244
4,-14,-19,4,12,-17,19,278,204,34,-48,-244
4,-14,-19,4,12,-17,19,278,204,34,-48,-244
