I, II, III, aVR, aVL, aVF, V1, V2, V3, V4, V5, V6
19,-87,-107,34,63,-97,-9,39,19,29,4,-24
4,-87,-92,41,48,-90,-4,39,19,29,9,-19
-9,-87,-78,48,34,-82,4,39,19,29,9,-14
-9,-87,-78,48,34,-82,9,29,14,29,4,-14
-9,-87,-78,48,34,-82,14,24,9,29,4,-14
-4,-87,-82,46,39,-85,14,24,14,29,9,-14
0,-87,-87,43,43,-87,14,24,14,29,9,-14
0,-87,-87,43,43,-87,14,29,14,29,9,-14
0,-87,-87,43,43,-87,14,34,14,34,9,-14
4,-82,-87,39,46,-85,19,34,14,34,9,-19
4,-78,-82,36,43,-80,24,43,34,39,9,-24
-4,-58,-53,31,24,-56,53,78,97,68,24,-24
4,-9,-14,2,9,-12,53,126,204,165,87,14
29,68,39,-48,-4,53,9,151,326,351,229,117
87,219,131,-153,-21,175,-92,175,522,663,483,307
190,366,175,-278,7,270,-239,234,702,1010,780,531
302,473,170,-387,65,322,-346,346,868,1346,1058,751
419,541,122,-480,148,331,-409,536,1034,1615,1278,902
546,570,24,-558,261,297,-429,800,1190,1795,1415,1019
683,463,-219,-573,451,122,-390,1205,1410,1898,1429,1034
873,326,-546,-600,710,-109,-390,1625,1595,1976,1449,1054
941,239,-702,-590,822,-231,-424,1659,1546,1873,1410,1054
780,122,-658,-451,719,-268,-439,897,873,1224,1073,897
483,-102,-585,-190,534,-344,-312,97,-9,244,478,522
273,-322,-595,24,434,-458,-122,-204,-473,-405,-14,165
78,-356,-434,139,256,-395,48,-273,-458,-517,-204,-14
-102,-331,-229,217,63,-280,195,-375,-483,-575,-322,-141
-185,-248,-63,217,-61,-156,287,-375,-395,-536,-346,-200
-253,-190,63,222,-158,-63,419,-317,-248,-478,-370,-268
-312,-165,146,239,-229,-9,585,-234,-136,-400,-370,-317
-312,-156,156,234,-234,0,673,-165,-68,-312,-326,-307
-297,-156,141,226,-219,-7,697,-156,-117,-312,-326,-297
-287,-170,117,229,-202,-26,683,-190,-214,-351,-326,-297
-287,-219,68,253,-178,-75,692,-234,-317,-385,-326,-297
-273,-283,-9,278,-131,-146,688,-219,-331,-366,-322,-292
-248,-322,-73,285,-87,-197,673,-195,-312,-336,-307,-273
-229,-336,-107,283,-61,-222,736,-190,-292,-326,-292,-258
-200,-317,-117,258,-41,-217,736,-141,-239,-283,-248,-224
-146,-239,-92,192,-26,-165,566,-58,-122,-180,-170,-161
-102,-161,-58,131,-21,-109,351,-9,-53,-107,-122,-117
-73,-102,-29,87,-21,-65,209,-9,-34,-78,-92,-82
-53,-82,-29,68,-12,-56,136,-9,-29,-73,-58,-73
-53,-78,-24,65,-14,-51,122,-9,-14,-58,-39,-68
-53,-73,-19,63,-17,-46,112,0,0,-39,-39,-63
-48,-58,-9,53,-19,-34,78,-9,0,-39,-39,-63
-39,-48,-9,43,-14,-29,39,-14,0,-39,-29,-53
-39,-43,-4,41,-17,-24,34,-14,0,-39,-24,-43
-43,-48,-4,46,-19,-26,39,-14,4,-24,-19,-39
-48,-43,4,46,-26,-19,34,-9,4,-19,-19,-39
-48,-39,9,43,-29,-14,14,-14,9,-14,-14,-34
-43,-39,4,41,-24,-17,14,-24,9,-14,-14,-34
-43,-29,14,36,-29,-7,4,-24,4,-9,-19,-34
-39,-24,14,31,-26,-4,-4,-29,0,-9,-24,-29
-39,-19,19,29,-29,0,-14,-29,4,-4,-19,-29
-39,-19,19,29,-29,0,-14,-29,4,0,-14,-24
-39,-14,24,26,-31,4,-19,-34,4,0,-9,-19
-39,-9,29,24,-34,9,-24,-34,4,0,-9,-19
-34,0,34,17,-34,17,-19,-29,9,0,-9,-19
-29,0,29,14,-29,14,-19,-29,9,4,-4,-19
-29,0,29,14,-29,14,-24,-34,9,4,0,-9
-29,4,34,12,-31,19,-24,-34,14,4,4,0
-29,4,34,12,-31,19,-34,-39,19,4,9,0
-29,9,39,9,-34,24,-39,-43,19,4,19,4
-29,14,43,7,-36,29,-43,-48,14,4,19,4
-29,24,53,2,-41,39,-43,-48,14,4,24,14
-34,29,63,2,-48,46,-48,-53,14,4,29,14
-39,34,73,2,-56,53,-53,-58,9,4,29,14
-43,43,87,0,-65,65,-63,-68,4,0,29,19
-43,53,97,-4,-70,75,-68,-78,-4,-4,29,19
-39,53,92,-7,-65,73,-73,-78,-14,-9,29,14
-39,63,102,-12,-70,82,-82,-92,-19,-9,29,14
-39,73,112,-17,-75,92,-82,-97,-24,-14,29,19
-34,82,117,-24,-75,100,-92,-107,-39,-24,24,24
-39,82,122,-21,-80,102,-102,-117,-48,-34,24,24
-39,92,131,-26,-85,112,-112,-136,-58,-43,14,24
-39,102,141,-31,-90,122,-117,-146,-73,-53,14,24
-48,107,156,-29,-102,131,-122,-156,-92,-68,9,24
-48,117,165,-34,-107,141,-126,-180,-112,-82,4,24
-53,126,180,-36,-117,153,-136,-204,-136,-107,0,19
-58,126,185,-34,-122,156,-146,-229,-161,-126,-19,9
-68,126,195,-29,-131,161,-151,-248,-190,-156,-39,4
-78,131,209,-26,-143,170,-161,-268,-214,-185,-48,-4
-82,131,214,-24,-148,173,-170,-292,-248,-214,-73,-14
-97,136,234,-19,-165,185,-170,-312,-278,-244,-92,-29
-107,136,244,-14,-175,190,-175,-326,-302,-268,-117,-39
-117,126,244,-4,-180,185,-175,-361,-341,-312,-136,-53
-126,117,244,4,-185,180,-175,-385,-380,-346,-161,-63
-146,112,258,17,-202,185,-175,-400,-414,-380,-180,-82
-146,102,248,21,-197,175,-175,-419,-463,-424,-214,-102
-151,87,239,31,-195,163,-170,-434,-492,-468,-253,-126
-161,73,234,43,-197,153,-161,-444,-517,-502,-283,-146
-170,53,224,58,-197,139,-156,-448,-536,-536,-312,-170
-175,34,209,70,-192,122,-141,-448,-561,-561,-336,-190
-170,14,185,78,-178,100,-117,-434,-561,-590,-366,-209
-165,-9,156,87,-161,73,-102,-414,-561,-605,-385,-234
-161,-24,136,92,-148,56,-82,-385,-561,-614,-395,-248
-156,-48,107,102,-131,29,-58,-356,-556,-614,-405,-263
-156,-68,87,112,-122,9,-39,-312,-522,-610,-419,-273
-146,-92,53,119,-100,-19,-19,-278,-502,-600,-424,-283
-141,-107,34,124,-87,-36,0,-239,-468,-585,-419,-283
-131,-117,14,124,-73,-51,19,-209,-439,-561,-405,-283
-122,-126,-4,124,-58,-65,24,-180,-395,-527,-390,-278
-112,-126,-14,119,-48,-70,34,-146,-356,-492,-361,-263
-97,-126,-29,112,-34,-78,39,-112,-307,-448,-341,-253
-87,-131,-43,109,-21,-87,34,-97,-268,-400,-312,-229
-73,-126,-53,100,-9,-90,39,-73,-239,-351,-278,-200
-63,-112,-48,87,-7,-80,39,-53,-204,-302,-244,-180
-48,-107,-58,78,4,-82,39,-39,-161,-258,-209,-161
-39,-107,-68,73,14,-87,34,-24,-126,-214,-175,-141
-24,-97,-73,61,24,-85,29,-9,-97,-175,-156,-122
-19,-87,-68,53,24,-78,24,0,-68,-141,-126,-107
-19,-82,-63,51,21,-73,19,14,-39,-102,-97,-82
-4,-73,-68,39,31,-70,19,24,-14,-68,-78,-63
0,-63,-63,31,31,-63,14,29,0,-39,-48,-48
-4,-53,-48,29,21,-51,14,39,14,-14,-24,-43
-4,-43,-39,24,17,-41,9,43,29,0,-14,-24
4,-43,-48,19,26,-46,4,39,39,14,-4,-14
9,-39,-48,14,29,-43,0,43,48,34,14,-9
14,-34,-48,9,31,-41,0,48,58,43,29,0
19,-29,-48,4,34,-39,0,58,68,53,34,4
19,-24,-43,2,31,-34,-4,63,73,63,39,9
19,-19,-39,0,29,-29,-4,68,78,73,48,14
14,-9,-24,-2,19,-17,-4,68,82,78,53,19
14,-9,-24,-2,19,-17,-4,63,87,82,53,19
14,-4,-19,-4,17,-12,-4,58,92,82,58,19
14,-9,-24,-2,19,-17,-4,58,92,82,48,14
14,-14,-29,0,21,-21,-4,53,87,78,39,19
9,-9,-19,0,14,-14,-4,58,87,73,39,9
9,-9,-19,0,14,-14,-4,63,92,73,43,9
9,-9,-19,0,14,-14,-4,63,92,73,43,14
4,-14,-19,4,12,-17,0,63,92,73,39,19
4,-14,-19,4,12,-17,0,58,87,73,39,19
0,-9,-9,4,4,-9,0,53,82,68,34,14
0,-9,-9,4,4,-9,0,48,78,68,34,14
0,-9,-9,4,4,-9,0,48,73,58,34,14
0,-9,-9,4,4,-9,0,48,73,58,34,4
0,-14,-14,7,7,-14,0,48,73,58,34,0
-4,-24,-19,14,7,-21,0,48,73,58,29,0
-9,-29,-19,19,4,-24,4,48,73,53,29,-4
-9,-29,-19,19,4,-24,4,43,63,43,19,-9
-9,-29,-19,19,4,-24,4,43,63,43,14,-9
-9,-29,-19,19,4,-24,4,43,58,34,14,-9
-9,-34,-24,21,7,-29,9,43,58,34,9,-14
-9,-29,-19,19,4,-24,9,48,53,29,4,-9
-9,-34,-24,21,7,-29,9,48,53,29,0,-14
-9,-39,-29,24,9,-34,9,43,53,29,0,-14
-9,-39,-29,24,9,-34,9,43,53,29,0,-14
-9,-39,-29,24,9,-34,9,43,48,29,-4,-19
-9,-43,-34,26,12,-39,9,43,43,19,-14,-19
-14,-43,-29,29,7,-36,14,43,43,19,-14,-19
-14,-48,-34,31,9,-41,14,39,34,14,-19,-24
-4,-53,-48,29,21,-51,14,39,34,9,-19,-29
-4,-58,-53,31,24,-56,9,39,34,9,-19,-29
0,-58,-58,29,29,-58,9,43,39,14,-14,-29
0,-58,-58,29,29,-58,9,43,39,19,-14,-29
0,-58,-58,29,29,-58,9,43,34,19,-9,-24
0,-58,-58,29,29,-58,9,43,34,19,-9,-19
0,-58,-58,29,29,-58,9,43,39,19,-9,-19
0,-58,-58,29,29,-58,4,43,39,19,-4,-14
4,-58,-63,26,34,-61,4,39,29,19,-4,-14
4,-58,-63,26,34,-61,4,34,29,19,-4,-19
4,-58,-63,26,34,-61,4,34,29,19,-4,-19
9,-53,-63,21,36,-58,0,29,34,19,0,-19
4,-53,-58,24,31,-56,0,29,34,19,0,-14
-4,-53,-48,29,21,-51,0,29,34,24,4,-14
-4,-53,-48,29,21,-51,4,29,34,29,4,-19
-4,-53,-48,29,21,-51,4,29,29,29,4,-24
-4,-53,-48,29,21,-51,0,29,29,29,4,-24
0,-53,-53,26,26,-53,0,29,29,29,4,-24
0,-53,-53,26,26,-53,0,29,29,29,4,-24
4,-53,-58,24,31,-56,0,34,29,29,0,-24
4,-53,-58,24,31,-56,0,34,29,29,0,-24
4,-53,-58,24,31,-56,0,34,29,29,4,-19
4,-53,-58,24,31,-56,-4,29,29,29,4,-19
4,-53,-58,24,31,-56,-4,34,34,29,4,-19
9,-58,-68,24,39,-63,-4,39,34,34,4,-14
14,-63,-78,24,46,-70,-4,43,39,34,4,-14
9,-58,-68,24,39,-63,-4,43,39,34,9,-9
9,-58,-68,24,39,-63,-4,43,34,34,14,-4
9,-53,-63,21,36,-58,-4,39,34,34,14,-4
9,-53,-63,21,36,-58,-4,39,39,39,19,-4
9,-53,-63,21,36,-58,-4,39,39,43,19,-4
9,-53,-63,21,36,-58,-4,39,39,43,19,-4
9,-53,-63,21,36,-58,-9,39,39,39,29,-4
9,-48,-58,19,34,-53,-9,39,39,39,19,-4
9,-48,-58,19,34,-53,-9,39,39,43,19,-4
4,-48,-53,21,29,-51,-9,39,39,43,19,0
4,-53,-58,24,31,-56,-9,39,39,43,19,0
4,-58,-63,26,34,-61,-9,39,39,43,19,-4
4,-58,-63,26,34,-61,-9,43,39,39,19,-4
4,-58,-63,26,34,-61,-9,43,39,39,19,0
4,-53,-58,24,31,-56,-9,39,39,39,24,0
4,-53,-58,24,31,-56,-14,34,39,43,24,0
9,-53,-63,21,36,-58,-14,34,39,43,19,-4
9,-48,-58,19,34,-53,-14,39,39,43,14,-9
9,-48,-58,19,34,-53,-14,39,39,43,14,-9
9,-48,-58,19,34,-53,-9,39,39,43,14,-9
9,-48,-58,19,34,-53,-9,39,43,39,14,-9
9,-48,-58,19,34,-53,-9,39,48,39,19,-9
9,-43,-53,17,31,-48,-9,29,43,39,19,-9
9,-39,-48,14,29,-43,-9,19,39,39,19,-9
9,-39,-48,14,29,-43,-9,29,39,43,24,-9
9,-39,-48,14,29,-43,-9,39,39,48,29,-9
9,-29,-39,9,24,-34,-9,39,43,48,29,-4
9,-19,-29,4,19,-24,-9,39,48,53,29,0
9,-9,-19,0,14,-14,-9,39,53,58,34,4
9,4,-4,-7,7,0,0,43,68,63,48,9
14,24,9,-19,2,17,19,48,78,78,53,19
24,34,9,-29,7,21,19,53,78,87,63,19
24,58,34,-41,-4,46,0,48,92,97,63,24
24,68,43,-46,-9,56,-58,39,92,97,63,34
29,73,43,-51,-7,58,-78,24,92,102,68,39
34,78,43,-56,-4,61,-82,24,92,102,68,39
43,82,39,-63,2,61,-97,29,97,107,68,43
43,87,43,-65,0,65,-102,39,102,107,73,48
48,92,43,-70,2,68,-102,39,102,102,82,53
48,107,58,-78,-4,82,-107,34,102,102,82,58
48,107,58,-78,-4,82,-102,29,92,102,82,58
48,97,48,-73,0,73,-97,24,78,97,78,53
53,78,24,-65,14,51,-92,19,68,78,73,53
68,43,-24,-56,46,9,-87,19,53,73,68,53
78,19,-58,-48,68,-19,-82,24,53,68,68,48
78,14,-63,-46,70,-24,-73,29,53,68,68,43
68,4,-63,-36,65,-29,-68,29,53,73,63,39
63,-4,-68,-29,65,-36,-58,29,53,73,53,39
48,-34,-82,-7,65,-58,-43,34,48,63,43,24
34,-53,-87,9,61,-70,-34,29,29,53,24,14
14,-63,-78,24,46,-70,-24,24,29,48,14,4
9,-73,-82,31,46,-78,-24,19,19,39,9,-9
9,-82,-92,36,51,-87,-19,19,19,34,9,-9
9,-82,-92,36,51,-87,-19,19,19,34,9,-14
14,-78,-92,31,53,-85,-19,24,14,29,9,-14
19,-73,-92,26,56,-82,-14,24,14,29,9,-19
14,-73,-87,29,51,-80,-14,29,14,29,4,-19
14,-78,-92,31,53,-85,-14,34,14,29,0,-24
19,-78,-97,29,58,-87,-9,34,14,29,-4,-24
19,-78,-97,29,58,-87,-9,39,19,29,-4,-24
9,-87,-97,39,53,-92,-4,34,19,29,0,-24
0,-97,-97,48,48,-97,4,29,19,29,0,-24
0,-97,-97,48,48,-97,9,29,19,29,-4,-19
0,-97,-97,48,48,-97,14,34,19,29,-4,-14
0,-92,-92,46,46,-92,9,34,24,29,0,-14
0,-87,-87,43,43,-87,4,34,24,29,0,-14
4,-87,-92,41,48,-90,4,39,29,29,0,-19
9,-87,-97,39,53,-92,4,43,34,34,0,-24
9,-78,-87,34,48,-82,9,43,34,39,0,-24
4,-68,-73,31,39,-70,14,53,53,48,0,-24
-4,-48,-43,26,19,-46,43,82,117,82,19,-14
4,0,-4,-2,4,-2,43,126,224,185,87,34
43,78,34,-61,4,56,-4,165,346,380,244,136
117,229,112,-173,2,170,-112,204,541,702,512,326
224,370,146,-297,39,258,-253,278,727,1039,800,551
341,473,131,-407,104,302,-356,405,897,1366,1068,771
463,527,63,-495,200,295,-414,624,1054,1620,1268,907
595,541,-53,-568,324,244,-429,917,1200,1786,1385,1010
732,434,-297,-583,514,68,-390,1273,1376,1844,1376,1019
922,297,-624,-610,773,-163,-390,1644,1517,1878,1371,1034
961,214,-746,-588,854,-265,-429,1615,1444,1737,1312,1005
771,102,-668,-436,719,-283,-448,790,746,1049,956,819
478,-102,-580,-187,529,-341,-312,24,-58,151,390,463
273,-302,-575,14,424,-439,-112,-244,-444,-414,-73,126
82,-336,-419,126,251,-378,63,-297,-414,-507,-239,-43
-92,-312,-219,202,63,-265,214,-385,-424,-546,-331,-161
-190,-234,-43,212,-73,-139,312,-370,-336,-507,-346,-214
-273,-180,92,226,-183,-43,448,-297,-190,-448,-361,-278
-322,-161,161,241,-241,0,610,-224,-92,-380,-370,-326
-312,-156,156,234,-234,0,692,-165,-39,-302,-336,-317
-297,-161,136,229,-217,-12,727,-161,-87,-302,-336,-307
-287,-180,107,234,-197,-36,722,-200,-185,-341,-336,-307
-287,-224,63,256,-175,-80,727,-244,-287,-375,-341,-307
-273,-283,-9,278,-131,-146,717,-229,-302,-356,-341,-302
-248,-322,-73,285,-87,-197,702,-200,-287,-326,-322,-283
-229,-336,-107,283,-61,-222,766,-190,-273,-317,-302,-268
-190,-312,-122,251,-34,-217,751,-141,-229,-273,-258,-239
-126,-229,-102,178,-12,-165,566,-58,-122,-170,-180,-180
-92,-151,-58,122,-17,-104,351,-9,-43,-97,-136,-136
-73,-92,-19,82,-26,-56,209,-9,-14,-68,-112,-102
-53,-78,-24,65,-14,-51,136,-9,-14,-63,-82,-87
-53,-78,-24,65,-14,-51,122,-9,-4,-48,-68,-78
-48,-73,-24,61,-12,-48,112,0,9,-29,-63,-73
-39,-58,-19,48,-9,-39,78,-9,9,-29,-58,-73
-29,-48,-19,39,-4,-34,39,-14,14,-24,-48,-63
-29,-43,-14,36,-7,-29,34,-14,19,-19,-43,-53
-29,-43,-14,36,-7,-29,34,-14,24,-9,-43,-48
-29,-34,-4,31,-12,-19,24,-9,24,-9,-48,-48
-34,-34,0,34,-17,-17,9,-19,24,-4,-43,-43
-34,-39,-4,36,-14,-21,14,-34,19,-4,-43,-43
-34,-34,0,34,-17,-17,9,-24,19,0,-43,-43
-29,-34,-4,31,-12,-19,4,-19,19,0,-43,-39
-29,-24,4,26,-17,-9,-4,-19,24,4,-39,-43
-29,-19,9,24,-19,-4,-4,-19,24,9,-34,-43
-29,-9,19,19,-24,4,-14,-24,24,9,-29,-39
-29,0,29,14,-29,14,-24,-24,24,9,-29,-39
-29,9,39,9,-34,24,-24,-24,24,4,-29,-39
-29,9,39,9,-34,24,-29,-29,19,4,-24,-39
-29,14,43,7,-36,29,-34,-34,19,4,-19,-34
-29,24,53,2,-41,39,-34,-34,24,4,-14,-29
-29,24,53,2,-41,39,-43,-39,24,4,-14,-29
-29,29,58,0,-43,43,-48,-43,19,4,-9,-24
-29,29,58,0,-43,43,-53,-48,19,4,-9,-24
-29,34,63,-2,-46,48,-53,-48,24,4,-4,-14
-29,39,68,-4,-48,53,-53,-53,24,9,0,-14
-29,43,73,-7,-51,58,-53,-58,19,14,0,-14
-34,53,87,-9,-61,70,-63,-73,14,9,0,-4
-34,63,97,-14,-65,80,-68,-87,4,4,0,0
-29,58,87,-14,-58,73,-73,-87,-4,0,0,0
-29,63,92,-17,-61,78,-82,-102,-9,0,0,4
-34,73,107,-19,-70,90,-82,-102,-14,-4,0,9
-34,82,117,-24,-75,100,-92,-107,-29,-14,-4,14
-39,82,122,-21,-80,102,-102,-117,-39,-24,0,14
-39,92,131,-26,-85,112,-112,-136,-48,-34,-4,14
-39,107,146,-34,-92,126,-117,-146,-63,-43,-4,14
-48,117,165,-34,-107,141,-122,-156,-82,-58,-9,14
-48,126,175,-39,-112,151,-126,-175,-102,-73,-14,14
-53,136,190,-41,-122,163,-136,-195,-126,-97,-19,9
-58,131,190,-36,-124,161,-146,-219,-151,-117,-34,0
-68,126,195,-29,-131,161,-151,-239,-180,-146,-48,-4
-78,131,209,-26,-143,170,-156,-263,-204,-175,-58,-14
-82,131,214,-24,-148,173,-161,-292,-239,-204,-82,-24
-92,141,234,-24,-163,187,-165,-312,-278,-239,-107,-43
-97,146,244,-24,-170,195,-175,-326,-312,-268,-136,-58
-107,136,244,-14,-175,190,-175,-361,-351,-312,-161,-78
-117,126,244,-4,-180,185,-175,-385,-390,-346,-190,-92
-136,117,253,9,-195,185,-170,-400,-419,-385,-209,-107
-136,102,239,17,-187,170,-165,-419,-463,-434,-244,-122
-141,87,229,26,-185,158,-161,-429,-488,-473,-273,-146
-151,73,224,39,-187,148,-151,-434,-507,-502,-292,-165
-161,53,214,53,-187,134,-146,-439,-527,-536,-322,-190
-165,34,200,65,-183,117,-131,-439,-551,-561,-346,-209
-165,19,185,73,-175,102,-107,-429,-551,-585,-375,-224
-165,0,165,82,-165,82,-92,-414,-551,-595,-395,-244
-161,-14,146,87,-153,65,-73,-385,-546,-605,-405,-258
-156,-39,117,97,-136,39,-48,-356,-536,-605,-414,-273
-156,-58,97,107,-126,19,-34,-312,-507,-605,-429,-283
-146,-82,63,114,-104,-9,-19,-278,-492,-600,-434,-292
-136,-102,34,119,-85,-34,0,-234,-453,-580,-429,-292
-122,-117,4,119,-63,-56,19,-200,-419,-551,-414,-292
-112,-126,-14,119,-48,-70,24,-165,-375,-507,-400,-287
-102,-126,-24,114,-39,-75,34,-126,-336,-463,-370,-273
-87,-117,-29,102,-29,-73,43,-92,-287,-429,-351,-268
-78,-112,-34,95,-21,-73,43,-78,-248,-390,-322,-248
-63,-112,-48,87,-7,-80,48,-58,-214,-341,-287,-219
-53,-102,-48,78,-2,-75,48,-43,-175,-292,-253,-200
-39,-107,-68,73,14,-87,53,-29,-136,-253,-229,-180
-29,-117,-87,73,29,-102,53,-14,-107,-214,-204,-161
-19,-107,-87,63,34,-97,48,0,-78,-170,-175,-136
-19,-97,-78,58,29,-87,43,9,-48,-131,-136,-117
-19,-92,-73,56,26,-82,34,19,-19,-92,-107,-92
-4,-82,-78,43,36,-80,29,24,4,-58,-87,-73
4,-68,-73,31,39,-70,19,29,24,-29,-63,-58
4,-53,-58,24,31,-56,14,39,43,-4,-43,-53
4,-39,-43,17,24,-41,9,48,58,9,-34,-39
14,-34,-48,9,31,-41,4,48,68,24,-24,-34
14,-29,-43,7,29,-36,0,53,73,43,-9,-29
14,-24,-39,4,26,-31,0,58,78,53,0,-19
19,-19,-39,0,29,-29,4,63,87,58,4,-14
19,-14,-34,-2,26,-24,4,63,92,63,9,-9
19,-19,-39,0,29,-29,4,68,97,73,19,-4
14,-19,-34,2,24,-26,4,68,102,78,24,0
14,-24,-39,4,26,-31,4,68,107,82,24,0
14,-24,-39,4,26,-31,4,68,112,82,29,0
14,-24,-39,4,26,-31,4,73,112,87,34,0
14,-24,-39,4,26,-31,4,73,107,87,39,9
9,-19,-29,4,19,-24,4,73,107,82,39,4
9,-19,-29,4,19,-24,4,73,112,82,43,9
14,-19,-34,2,24,-26,4,63,107,82,43,9
14,-24,-39,4,26,-31,9,53,102,82,39,9
14,-24,-39,4,26,-31,9,63,102,87,39,9
9,-19,-29,4,19,-24,9,73,102,87,34,4
0,-19,-19,9,9,-19,9,68,97,87,34,4
-9,-19,-9,14,0,-14,9,68,92,78,34,4
-9,-19,-9,14,0,-14,9,58,92,68,24,-4
-9,-24,-14,17,2,-19,9,48,92,58,14,-9
-4,-29,-24,17,9,-26,4,48,87,58,9,-14
0,-29,-29,14,14,-29,4,48,82,53,9,-24
0,-24,-24,12,12,-24,4,43,73,43,0,-29
0,-19,-19,9,9,-19,4,43,73,43,-4,-29
-4,-19,-14,12,4,-17,4,43,68,34,-4,-29
-9,-24,-14,17,2,-19,9,43,68,34,-9,-34
-9,-29,-19,19,4,-24,19,48,63,29,-14,-34
-9,-43,-34,26,12,-39,29,48,63,29,-19,-43
-9,-48,-39,29,14,-43,29,48,63,29,-19,-39
-9,-48,-39,29,14,-43,29,53,63,29,-19,-34
-4,-43,-39,24,17,-41,24,53,58,29,-19,-39
0,-43,-43,21,21,-43,19,53,53,19,-24,-39
-4,-43,-39,24,17,-41,19,53,58,24,-24,-34
-4,-48,-43,26,19,-46,14,48,53,24,-29,-34
0,-48,-48,24,24,-48,14,53,53,29,-19,-34
-4,-48,-43,26,19,-46,9,58,53,39,-9,-29
0,-48,-48,24,24,-48,9,63,58,34,-4,-29
0,-48,-48,24,24,-48,9,63,58,29,-4,-29
4,-48,-53,21,29,-51,4,48,43,24,-14,-34
9,-48,-58,19,34,-53,0,34,34,19,-29,-39
9,-48,-58,19,34,-53,0,34,39,19,-29,-39
9,-48,-58,19,34,-53,-4,34,39,19,-24,-34
4,-48,-53,21,29,-51,0,34,34,19,-24,-34
-4,-48,-43,26,19,-46,4,34,39,19,-24,-39
-4,-53,-48,29,21,-51,4,43,39,19,-29,-39
0,-53,-53,26,26,-53,0,48,43,19,-29,-39
4,-53,-58,24,31,-56,0,48,43,19,-19,-34
4,-53,-58,24,31,-56,0,48,43,24,-4,-34
4,-53,-58,24,31,-56,4,48,43,34,-4,-34
4,-53,-58,24,31,-56,4,48,39,39,-4,-34
4,-53,-58,24,31,-56,0,48,39,39,-4,-34
9,-53,-63,21,36,-58,0,48,39,39,-4,-34
9,-48,-58,19,34,-53,-4,43,39,34,-4,-34
14,-43,-58,14,36,-51,-9,43,39,29,-9,-34
14,-43,-58,14,36,-51,-9,43,39,29,-14,-34
14,-43,-58,14,36,-51,-9,43,39,29,-14,-29
9,-43,-53,17,31,-48,-9,34,34,29,-14,-29
4,-43,-48,19,26,-46,-4,34,34,29,-14,-29
4,-48,-53,21,29,-51,-4,39,34,34,-14,-19
4,-53,-58,24,31,-56,-4,43,39,34,-14,-14
0,-48,-48,24,24,-48,-4,43,39,34,-14,-14
0,-48,-48,24,24,-48,-4,43,34,34,-14,-14
0,-43,-43,21,21,-43,-4,39,34,34,-4,-14
0,-43,-43,21,21,-43,-4,39,39,39,9,-14
0,-39,-39,19,19,-39,-9,39,39,43,0,-14
0,-34,-34,17,17,-34,-14,39,39,43,-9,-14
0,-34,-34,17,17,-34,-19,39,39,39,0,-14
0,-29,-29,14,14,-29,-19,39,39,39,-9,-14
4,-34,-39,14,21,-36,-14,39,39,43,-9,-14
4,-39,-43,17,24,-41,-9,39,39,43,-9,-9
4,-39,-43,17,24,-41,-9,39,39,43,-9,-9
4,-39,-43,17,24,-41,-9,39,39,43,-9,-14
4,-34,-39,14,21,-36,-9,43,39,39,-9,-14
4,-29,-34,12,19,-31,-9,43,39,39,-9,-9
4,-29,-34,12,19,-31,-9,39,39,39,-4,-9
4,-34,-39,14,21,-36,-14,34,39,43,-4,-9
4,-34,-39,14,21,-36,-14,34,39,43,-4,-9
0,-29,-29,14,14,-29,-14,39,39,43,-4,-9
0,-29,-29,14,14,-29,-14,39,34,43,-9,-9
0,-29,-29,14,14,-29,-9,39,29,43,-14,-9
4,-24,-29,9,17,-26,-9,39,29,39,-9,-14
9,-19,-29,4,19,-24,-9,39,29,39,-9,-19
9,-29,-39,9,24,-34,-9,43,34,39,-9,-19
9,-39,-48,14,29,-43,-9,48,39,39,-9,-19
9,-29,-39,9,24,-34,-9,48,39,39,-4,-14
9,-19,-29,4,19,-24,-9,48,39,39,0,-9
9,-14,-24,2,17,-19,-9,43,34,43,0,-9
9,-4,-14,-2,12,-9,-4,43,39,48,4,-4
9,4,-4,-7,7,0,0,43,48,53,9,-4
9,24,14,-17,-2,19,19,48,58,63,14,0
14,29,14,-21,0,21,24,53,58,68,24,0
14,48,34,-31,-9,41,24,53,73,78,29,4
9,58,48,-34,-19,53,-19,53,73,82,34,19
9,68,58,-39,-24,63,-48,43,73,92,39,29
14,82,68,-48,-26,75,-63,43,73,92,43,39
24,97,73,-61,-24,85,-78,39,73,97,48,53
24,112,87,-68,-31,100,-82,39,73,97,53,48
29,122,92,-75,-31,107,-82,39,73,97,63,43
29,136,107,-82,-39,122,-87,24,73,97,58,43
29,136,107,-82,-39,122,-87,14,68,92,53,39
34,126,92,-80,-29,109,-92,14,58,87,48,34
39,107,68,-73,-14,87,-92,14,48,73,43,34
48,73,24,-61,12,48,-87,24,34,73,39,39
58,48,-9,-53,34,19,-82,34,34,68,39,39
53,43,-9,-48,31,17,-73,39,34,68,39,34
43,34,-9,-39,26,12,-68,39,34,68,34,29
43,24,-19,-34,31,2,-58,39,34,63,24,29
34,0,-34,-17,34,-17,-48,39,29,53,19,14
24,-14,-39,-4,31,-26,-43,24,4,43,9,4
4,-24,-29,9,17,-26,-34,14,0,39,4,0
0,-34,-34,17,17,-34,-34,9,-9,19,0,-9
0,-43,-43,21,21,-43,-24,9,-9,4,-4,-9
0,-48,-48,24,24,-48,-19,9,-9,4,-14,-14
0,-58,-58,29,29,-58,-19,14,-14,0,-19,-14
0,-63,-63,31,31,-63,-14,14,-14,4,-19,-24
-4,-63,-58,34,26,-61,-14,14,-14,9,-19,-29
-4,-68,-63,36,29,-65,-14,14,-14,9,-19,-34
0,-68,-68,34,34,-68,-9,14,-14,9,-24,-34
0,-63,-63,31,31,-63,-9,19,-9,9,-24,-29
-4,-58,-53,31,24,-56,-9,19,-9,9,-19,-24
-9,-58,-48,34,19,-53,-9,19,-9,9,-9,-24
-9,-58,-48,34,19,-53,-9,19,-9,9,-4,-24
-9,-53,-43,31,17,-48,-4,24,-9,9,-4,-19
-9,-48,-39,29,14,-43,-4,24,-4,9,0,-14
-9,-48,-39,29,14,-43,-4,24,-4,9,0,-14
-9,-48,-39,29,14,-43,-4,24,-4,9,0,-14
-9,-53,-43,31,17,-48,-4,24,-4,14,0,-14
-9,-53,-43,31,17,-48,0,24,-4,14,0,-14
-14,-53,-39,34,12,-46,4,29,4,9,-4,-19
-24,-43,-19,34,-2,-31,34,53,53,29,4,-24
-24,-14,9,19,-17,-2,43,92,146,102,43,-4
-4,48,53,-21,-29,51,14,112,258,263,161,73
53,200,146,-126,-46,173,-73,136,453,585,424,258
151,346,195,-248,-21,270,-204,200,649,951,732,483
258,453,195,-356,31,324,-307,297,834,1317,1019,707
366,517,151,-441,107,334,-366,468,1005,1605,1249,863
488,551,63,-519,212,307,-390,717,1171,1810,1410,1005
624,453,-170,-539,397,141,-361,1098,1400,1937,1454,1049
824,322,-502,-573,663,-90,-361,1556,1625,2054,1507,1093
902,244,-658,-573,780,-207,-409,1639,1590,1971,1498,1112
751,146,-605,-448,678,-229,-458,878,873,1278,1161,976
468,-53,-522,-207,495,-287,-351,82,-19,283,566,624
268,-263,-531,-2,400,-397,-161,-209,-478,-385,43,248
82,-297,-380,107,231,-339,4,-268,-468,-527,-175,43
-87,-278,-190,183,51,-234,131,-366,-507,-595,-307,-92
-165,-204,-39,185,-63,-122,209,-366,-434,-566,-346,-165
-234,-156,78,195,-156,-39,341,-307,-287,-507,-370,-253
-292,-136,156,214,-224,9,502,-224,-175,-429,-370,-317
-297,-126,170,212,-234,21,590,-156,-102,-341,-322,-297
-287,-126,161,207,-224,17,619,-146,-141,-341,-317,-278
-278,-136,141,207,-209,2,614,-180,-234,-380,-317,-278
-278,-175,102,226,-190,-36,624,-224,-336,-414,-322,-278
-263,-234,29,248,-146,-102,595,-209,-356,-395,-326,-278
-239,-273,-34,256,-102,-153,566,-185,-346,-370,-317,-268
-229,-297,-68,263,-80,-183,663,-204,-346,-375,-317,-268
-214,-292,-78,253,-68,-185,722,-185,-317,-341,-287,-248
-165,-229,-63,197,-51,-146,600,-97,-200,-239,-200,-180
-122,-161,-39,141,-41,-100,409,-39,-112,-165,-141,-126
-87,-87,0,87,-43,-43,239,-39,-82,-131,-107,-87
-63,-53,9,58,-36,-21,136,-39,-78,-117,-73,-68
-63,-48,14,56,-39,-17,122,-39,-63,-97,-58,-58
-63,-43,19,53,-41,-12,112,-29,-48,-78,-58,-53
-58,-29,29,43,-43,0,73,-39,-43,-73,-53,-53
-48,-19,29,34,-39,4,29,-43,-39,-68,-39,-43
-48,-14,34,31,-41,9,24,-43,-39,-68,-34,-34
-48,-14,34,31,-41,9,24,-43,-34,-58,-29,-29
-48,0,48,24,-48,24,9,-43,-34,-63,-29,-29
-48,9,58,19,-53,34,-14,-48,-29,-63,-24,-24
-43,9,53,17,-48,31,-14,-53,-29,-63,-24,-24
-43,14,58,14,-51,36,-19,-53,-29,-58,-24,-24
-39,14,53,12,-46,34,-24,-58,-29,-58,-24,-19
-39,19,58,9,-48,39,-34,-58,-24,-53,-19,-19
-39,19,58,9,-48,39,-34,-58,-24,-48,-14,-14
-39,24,63,7,-51,43,-39,-63,-24,-48,-9,-9
-39,29,68,4,-53,48,-43,-63,-29,-48,-9,-9
-39,39,78,0,-58,58,-43,-63,-34,-48,-9,-9
-39,39,78,0,-58,58,-48,-68,-43,-48,-4,-9
-39,43,82,-2,-61,63,-53,-73,-48,-53,0,-4
-39,53,92,-7,-65,73,-53,-73,-43,-53,0,0
-39,53,92,-7,-65,73,-63,-78,-43,-53,-4,0
-39,58,97,-9,-68,78,-68,-82,-48,-53,0,4
-39,63,102,-12,-70,82,-73,-87,-53,-53,0,4
-39,73,112,-17,-75,92,-73,-87,-53,-48,9,14
-39,78,117,-19,-78,97,-78,-92,-53,-43,19,14
-39,82,122,-21,-80,102,-82,-92,-58,-43,19,14
-43,92,136,-24,-90,114,-92,-97,-63,-48,19,19
-43,102,146,-29,-95,124,-97,-107,-68,-53,14,19
-39,102,141,-31,-90,122,-102,-107,-73,-58,9,19
-39,112,151,-36,-95,131,-112,-122,-78,-58,9,19
-43,122,165,-39,-104,143,-112,-126,-82,-63,9,19
-39,131,170,-46,-104,151,-117,-131,-97,-73,4,24
-39,131,170,-46,-104,151,-122,-136,-107,-82,4,24
-39,141,180,-51,-109,161,-131,-156,-117,-92,-4,24
-39,151,190,-56,-114,170,-136,-165,-131,-102,-4,24
-48,156,204,-53,-126,180,-141,-170,-146,-117,-9,24
-48,165,214,-58,-131,190,-146,-185,-161,-131,-14,24
-53,175,229,-61,-141,202,-156,-204,-185,-156,-19,19
-58,175,234,-58,-146,204,-165,-229,-209,-175,-39,9
-63,175,239,-56,-151,207,-170,-248,-239,-204,-53,4
-68,180,248,-56,-158,214,-175,-268,-263,-234,-58,-4
-73,180,253,-53,-163,217,-180,-283,-297,-263,-82,-14
-82,185,268,-51,-175,226,-180,-292,-331,-297,-102,-29
-87,185,273,-48,-180,229,-185,-302,-356,-326,-126,-34
-97,175,273,-39,-185,224,-185,-331,-390,-370,-151,-48
-107,165,273,-29,-190,219,-185,-356,-429,-405,-180,-63
-126,161,287,-17,-207,224,-185,-375,-463,-444,-200,-82
-126,151,278,-12,-202,214,-185,-400,-512,-492,-239,-102
-131,136,268,-2,-200,202,-180,-414,-541,-536,-278,-126
-141,122,263,9,-202,192,-170,-419,-566,-566,-302,-146
-151,102,253,24,-202,178,-165,-419,-585,-595,-331,-170
-156,92,248,31,-202,170,-151,-419,-610,-619,-356,-190
-156,78,234,39,-195,156,-126,-405,-610,-649,-385,-209
-156,48,204,53,-180,126,-112,-385,-610,-663,-405,-229
-156,34,190,61,-173,112,-92,-356,-610,-673,-419,-239
-156,9,165,73,-161,87,-73,-326,-605,-668,-424,-248
-156,-9,146,82,-151,68,-58,-287,-575,-663,-429,-253
-146,-34,112,90,-129,39,-39,-273,-561,-658,-434,-263
-136,-48,87,92,-112,19,-19,-248,-527,-644,-434,-263
-122,-58,63,90,-92,2,0,-219,-497,-619,-424,-268
-112,-68,43,90,-78,-12,4,-185,-453,-585,-409,-268
-107,-68,39,87,-73,-14,14,-146,-414,-551,-380,-253
-97,-68,29,82,-63,-19,24,-112,-366,-502,-356,-244
-87,-68,19,78,-53,-24,19,-107,-326,-448,-326,-219
-73,-63,9,68,-41,-26,19,-92,-292,-400,-297,-190
-68,-53,14,61,-41,-19,19,-73,-248,-351,-263,-170
-58,-48,9,53,-34,-19,19,-58,-200,-302,-229,-151
-48,-48,0,48,-24,-24,14,-43,-165,-258,-195,-131
-34,-39,-4,36,-14,-21,9,-29,-136,-219,-165,-107
-29,-24,4,26,-17,-9,4,-19,-107,-180,-126,-87
-29,-14,14,21,-21,0,0,-4,-78,-141,-97,-63
-14,-4,9,9,-12,2,0,4,-53,-107,-78,-43
-4,4,9,0,-7,7,-9,9,-34,-78,-53,-29
-4,14,19,-4,-12,17,-14,14,-14,-53,-34,-29
-4,24,29,-9,-17,26,-19,19,0,-34,-24,-14
4,24,19,-14,-7,21,-24,19,9,-14,-19,-4
4,29,24,-17,-9,26,-29,24,19,4,-4,0
4,29,24,-17,-9,26,-29,24,24,9,9,9
9,29,19,-19,-4,24,-29,24,29,14,14,14
4,34,29,-19,-12,31,-29,24,34,24,19,19
4,34,29,-19,-12,31,-24,29,39,34,29,24
4,39,34,-21,-14,36,-24,29,43,39,34,29
4,39,34,-21,-14,36,-24,29,48,43,34,29
4,43,39,-24,-17,41,-24,29,53,48,39,29
4,43,39,-24,-17,41,-24,29,53,58,39,29
4,43,39,-24,-17,41,-24,24,48,58,39,39
0,48,48,-24,-24,48,-24,24,48,53,39,29
0,48,48,-24,-24,48,-24,19,53,48,34,24
0,48,48,-24,-24,48,-24,14,53,43,24,19
-4,43,48,-19,-26,46,-19,14,53,43,19,19
-4,43,48,-19,-26,46,-19,14,53,43,19,19
-9,43,53,-17,-31,48,-19,19,58,39,14,14
-9,39,48,-14,-29,43,-19,19,58,39,14,14
-4,39,43,-17,-24,41,-19,24,53,29,14,14
0,39,39,-19,-19,39,-19,29,53,29,9,9
0,34,34,-17,-17,34,-19,29,53,29,9,14
-4,29,34,-12,-19,31,-19,29,53,29,9,19
-9,29,39,-9,-24,34,-14,29,53,24,9,14
-9,29,39,-9,-24,34,-14,24,43,14,0,9
-9,29,39,-9,-24,34,-14,19,39,14,-4,9
-9,29,39,-9,-24,34,-14,14,29,4,-4,9
-9,24,34,-7,-21,29,-9,14,29,4,-9,4
-9,24,34,-7,-21,29,-9,19,24,0,-14,4
-9,19,29,-4,-19,24,-9,19,29,0,-19,-4
-9,19,29,-4,-19,24,-9,14,34,0,-19,-4
-9,19,29,-4,-19,24,-9,19,39,0,-19,-4
-9,19,29,-4,-19,24,-9,24,39,0,-19,-9
-9,14,24,-2,-17,19,-9,24,34,-9,-24,-9
-14,14,29,0,-21,21,-4,24,34,-9,-24,-9
-14,9,24,2,-19,17,-4,19,19,-14,-29,-14
-4,9,14,-2,-9,12,-4,19,14,-19,-29,-14
-4,9,14,-2,-9,12,-9,19,14,-14,-29,-9
0,9,9,-4,-4,9,-9,24,19,-4,-24,-9
0,9,9,-4,-4,9,-9,29,24,0,-24,-9
0,9,9,-4,-4,9,-9,34,24,0,-19,-9
0,9,9,-4,-4,9,-9,34,24,0,-19,-4
0,9,9,-4,-4,9,-9,34,29,0,-19,0
0,9,9,-4,-4,9,-14,34,29,0,-9,4
0,9,9,-4,-4,9,-14,34,19,0,-4,4
-4,9,14,-2,-9,12,-14,24,14,0,-4,0
-4,4,9,0,-7,7,-14,14,9,0,-9,0
4,4,0,-4,2,2,-19,9,14,0,-9,-4
9,4,-4,-7,7,0,-19,9,14,0,-9,-4
4,4,0,-4,2,2,-19,14,19,4,-4,-4
4,4,0,-4,2,2,-14,19,24,9,-4,-4
0,4,4,-2,-2,4,-14,19,24,9,-4,0
-4,4,9,0,-7,7,-19,19,29,9,-4,4
0,4,4,-2,-2,4,-19,19,29,9,-4,4
0,4,4,-2,-2,4,-19,19,29,9,0,4
4,0,-4,-2,4,-2,-19,24,29,14,0,4
4,-4,-9,0,7,-7,-19,24,29,19,0,4
4,-4,-9,0,7,-7,-19,24,29,19,4,9
4,-4,-9,0,7,-7,-24,14,24,19,4,9
4,-4,-9,0,7,-7,-24,14,24,14,4,4
4,-4,-9,0,7,-7,-24,19,24,14,4,4
9,-4,-14,-2,12,-9,-24,24,29,14,4,4
9,0,-9,-4,9,-4,-24,24,29,14,4,4
9,4,-4,-7,7,0,-24,24,24,14,4,4
9,9,0,-9,4,4,-24,19,24,14,4,4
9,4,-4,-7,7,0,-24,19,29,24,9,4
9,4,-4,-7,7,0,-24,19,29,34,9,4
9,4,-4,-7,7,0,-19,24,29,34,4,4
9,4,-4,-7,7,0,-19,29,29,29,9,4
9,9,0,-9,4,4,-19,29,29,29,0,4
14,9,-4,-12,9,2,-19,29,29,34,0,4
14,9,-4,-12,9,2,-19,29,34,34,0,9
14,9,-4,-12,9,2,-19,29,39,34,0,9
9,9,0,-9,4,4,-19,29,39,34,4,4
4,9,4,-7,0,7,-19,34,39,29,9,4
4,9,4,-7,0,7,-19,34,34,29,9,9
4,9,4,-7,0,7,-19,29,29,29,14,9
9,4,-4,-7,7,0,-24,19,29,29,14,9
14,4,-9,-9,12,-2,-24,14,29,24,14,9
9,4,-4,-7,7,0,-24,19,29,24,9,4
9,0,-9,-4,9,-4,-19,19,29,24,4,0
9,0,-9,-4,9,-4,-19,19,34,24,4,0
9,0,-9,-4,9,-4,-19,19,39,29,9,0
9,4,-4,-7,7,0,-19,19,43,39,9,4
9,9,0,-9,4,4,-19,19,48,48,9,9
9,9,0,-9,4,4,-19,24,48,48,14,9
9,9,0,-9,4,4,-19,29,48,48,19,9
9,14,4,-12,2,9,-14,39,48,53,19,9
9,24,14,-17,-2,19,-4,43,58,58,24,14
9,34,24,-21,-7,29,0,53,68,63,29,19
9,53,43,-31,-17,48,19,58,78,73,34,29
14,68,53,-41,-19,61,14,63,78,78,43,29
14,97,82,-56,-34,90,4,63,92,87,48,34
14,107,92,-61,-39,100,-39,58,102,87,53,43
19,117,97,-68,-39,107,-68,43,112,92,58,48
29,122,92,-75,-31,107,-82,43,102,92,58,48
43,126,82,-85,-19,104,-97,39,92,97,58,53
43,136,92,-90,-24,114,-102,39,92,97,63,58
48,141,92,-95,-21,117,-102,39,92,97,73,63
43,156,112,-100,-34,134,-107,29,92,102,73,68
39,156,117,-97,-39,136,-107,24,87,102,73,68
39,146,107,-92,-34,126,-102,24,82,97,68,63
39,126,87,-82,-24,107,-92,24,78,82,63,63
48,92,43,-70,2,68,-87,29,63,82,58,63
58,68,9,-63,24,39,-82,34,63,78,58,58
58,63,4,-61,26,34,-73,39,63,78,58,58
53,53,0,-53,26,26,-68,39,63,78,53,58
58,43,-14,-51,36,14,-63,39,63,73,43,58
53,19,-34,-36,43,-7,-58,39,58,63,39,43
43,4,-39,-24,41,-17,-53,34,39,53,24,29
24,-4,-29,-9,26,-17,-43,34,39,48,14,19
19,-14,-34,-2,26,-24,-39,29,29,39,9,9
19,-24,-43,2,31,-34,-24,29,29,34,4,9
19,-29,-48,4,34,-39,-19,29,29,34,0,4
19,-39,-58,9,39,-48,-19,34,24,29,0,4
19,-43,-63,12,41,-53,-14,39,24,29,0,0
14,-43,-58,14,36,-51,-14,43,24,29,0,0
9,-53,-63,21,36,-58,-14,43,24,29,0,-4
9,-58,-68,24,39,-63,-9,43,24,29,-4,-4
9,-58,-68,24,39,-63,-9,39,29,29,-4,-4
4,-58,-63,26,34,-61,-9,29,29,29,0,-4
4,-53,-58,24,31,-56,-4,29,29,34,0,-4
9,-48,-58,19,34,-53,0,29,29,39,-4,-4
9,-48,-58,19,34,-53,4,43,29,43,-4,-4
9,-48,-58,19,34,-53,4,53,34,48,0,-4
4,-48,-53,21,29,-51,4,53,39,48,4,-4
0,-48,-48,24,24,-48,4,53,43,48,9,-4
0,-48,-48,24,24,-48,4,48,43,53,9,-4
0,-43,-43,21,21,-43,9,43,43,53,9,-4
0,-34,-34,17,17,-34,9,53,73,63,14,0
-4,-14,-9,9,2,-12,34,82,141,97,34,4
9,39,29,-24,-9,34,19,131,248,214,112,58
43,126,82,-85,-19,104,-34,161,375,419,268,170
112,278,165,-195,-26,222,-131,190,570,732,522,356
219,424,204,-322,7,314,-273,258,766,1088,819,580
331,531,200,-431,65,366,-370,395,956,1434,1098,795
444,595,151,-519,146,373,-424,605,1132,1703,1317,941
561,605,43,-583,258,324,-434,878,1298,1878,1444,1049
692,483,-209,-588,451,136,-390,1283,1527,1976,1454,1058
854,341,-512,-597,683,-85,-380,1595,1629,1986,1439,1068
893,253,-639,-573,766,-192,-419,1532,1473,1795,1361,1054
732,122,-610,-427,671,-244,-434,795,766,1112,1005,873
439,-112,-551,-163,495,-331,-292,24,-117,126,390,478
239,-302,-541,31,390,-422,-102,-253,-541,-473,-73,141
53,-317,-370,131,212,-344,63,-297,-497,-546,-234,-24
-122,-292,-170,207,24,-231,204,-385,-502,-590,-341,-141
-204,-214,-9,209,-97,-112,297,-375,-395,-536,-356,-195
-258,-161,97,209,-178,-31,424,-317,-248,-478,-375,-258
-302,-136,165,219,-234,14,580,-234,-136,-400,-370,-297
-302,-126,175,214,-239,24,653,-165,-82,-312,-326,-287
-287,-126,161,207,-224,17,668,-156,-141,-312,-326,-278
-273,-141,131,207,-202,-4,653,-185,-224,-346,-326,-278
-268,-185,82,226,-175,-51,653,-224,-317,-375,-331,-278
-253,-244,9,248,-131,-117,649,-209,-322,-351,-326,-273
-229,-283,-53,256,-87,-168,644,-185,-297,-322,-307,-258
-204,-287,-82,246,-61,-185,683,-165,-258,-307,-287,-239
-175,-263,-87,219,-43,-175,683,-107,-190,-253,-239,-200
-126,-190,-63,158,-31,-126,536,-39,-92,-151,-161,-141
-82,-112,-29,97,-26,-70,322,0,-24,-78,-112,-97
-58,-63,-4,61,-26,-34,185,-4,-4,-58,-87,-68
-43,-53,-9,48,-17,-31,117,-9,-9,-58,-63,-58
-43,-48,-4,46,-19,-26,102,-9,0,-39,-48,-48
-43,-43,0,43,-21,-21,92,0,9,-19,-48,-43
-39,-29,9,34,-24,-9,63,-9,9,-19,-48,-43
-29,-19,9,24,-19,-4,29,-14,9,-19,-39,-34
-29,-14,14,21,-21,0,24,-14,14,-19,-34,-29
-29,-14,14,21,-21,0,24,-14,24,-9,-29,-29
-29,-4,24,17,-26,9,14,-9,24,-9,-29,-29
-29,0,29,14,-29,14,-4,-9,29,-4,-24,-24
-24,4,29,9,-26,17,-4,-14,29,-4,-24,-24
-24,14,39,4,-31,26,-9,-14,29,0,-24,-24
-19,14,34,2,-26,24,-14,-19,24,-4,-24,-19
-19,19,39,0,-29,29,-24,-19,24,-4,-19,-19
-19,19,39,0,-29,29,-24,-19,24,0,-14,-14
-19,24,43,-2,-31,34,-29,-24,24,0,-9,-9
-24,29,53,-2,-39,41,-29,-24,29,4,-9,-9
-29,39,68,-4,-48,53,-24,-24,34,9,-9,-9
-29,39,68,-4,-48,53,-29,-29,29,14,-4,-9
-29,43,73,-7,-51,58,-34,-34,29,14,0,-4
-24,53,78,-14,-51,65,-34,-34,34,14,4,4
-19,53,73,-17,-46,63,-43,-39,34,14,4,9
-19,58,78,-19,-48,68,-48,-43,29,14,9,14
-19,63,82,-21,-51,73,-53,-48,24,14,9,14
-14,73,87,-29,-51,80,-53,-48,24,14,14,24
-9,78,87,-34,-48,82,-58,-53,24,14,19,24
-9,82,92,-36,-51,87,-63,-53,19,14,19,24
-14,92,107,-39,-61,100,-73,-58,14,9,19,29
-19,102,122,-41,-70,112,-82,-68,9,4,19,29
-19,102,122,-41,-70,112,-92,-68,4,0,19,29
-19,107,126,-43,-73,117,-102,-87,0,0,19,29
-24,112,136,-43,-80,124,-102,-97,-4,-4,19,29
-24,122,146,-48,-85,134,-112,-107,-24,-14,14,34
-29,122,151,-46,-90,136,-122,-117,-39,-24,14,34
-29,131,161,-51,-95,146,-131,-136,-48,-34,4,34
-29,141,170,-56,-100,156,-136,-146,-63,-43,4,34
-39,146,185,-53,-112,165,-136,-156,-82,-58,0,34
-39,156,195,-58,-117,175,-136,-175,-102,-73,-4,34
-43,165,209,-61,-126,187,-146,-200,-131,-97,-9,29
-48,165,214,-58,-131,190,-156,-229,-161,-117,-29,19
-58,165,224,-53,-141,195,-165,-248,-190,-146,-48,14
-68,170,239,-51,-153,204,-175,-268,-214,-175,-58,4
-73,170,244,-48,-158,207,-180,-292,-248,-209,-82,-4
-82,175,258,-46,-170,217,-180,-312,-283,-248,-102,-19
-87,175,263,-43,-175,219,-180,-326,-312,-278,-131,-29
-97,165,263,-34,-180,214,-175,-361,-351,-322,-161,-48
-107,156,263,-24,-185,209,-175,-385,-390,-356,-190,-63
-126,151,278,-12,-202,214,-175,-405,-424,-395,-209,-82
-126,141,268,-7,-197,204,-175,-429,-473,-444,-244,-102
-131,126,258,2,-195,192,-170,-444,-502,-488,-278,-126
-141,112,253,14,-197,183,-161,-453,-527,-522,-302,-146
-151,92,244,29,-197,168,-156,-458,-546,-556,-331,-170
-156,73,229,41,-192,151,-141,-453,-566,-575,-351,-190
-156,48,204,53,-180,126,-117,-434,-561,-600,-375,-209
-156,19,175,68,-165,97,-102,-414,-561,-614,-395,-234
-156,4,161,75,-158,82,-82,-385,-561,-624,-409,-248
-156,-19,136,87,-146,58,-58,-356,-556,-624,-419,-258
-156,-39,117,97,-136,39,-39,-317,-527,-624,-429,-263
-146,-63,82,104,-114,9,-19,-287,-507,-610,-434,-273
-136,-78,58,107,-97,-9,0,-248,-468,-585,-434,-273
-122,-87,34,104,-78,-26,19,-219,-434,-561,-419,-273
-112,-97,14,104,-63,-41,24,-185,-385,-527,-400,-268
-102,-97,4,100,-53,-46,34,-146,-346,-492,-370,-253
-87,-97,-9,92,-39,-53,43,-112,-297,-444,-346,-244
-78,-97,-19,87,-29,-58,34,-97,-258,-395,-317,-219
-63,-92,-29,78,-17,-61,29,-73,-224,-351,-287,-190
-53,-82,-29,68,-12,-56,29,-53,-185,-302,-253,-170
-39,-78,-39,58,0,-58,29,-39,-141,-253,-219,-151
-29,-78,-48,53,9,-63,29,-24,-107,-209,-185,-136
-14,-68,-53,41,19,-61,29,-9,-78,-170,-156,-117
-9,-58,-48,34,19,-53,24,-4,-48,-131,-117,-97
-9,-53,-43,31,17,-48,19,4,-19,-92,-87,-73
4,-43,-48,19,26,-46,19,14,0,-63,-73,-53
14,-34,-48,9,31,-41,9,19,14,-39,-53,-39
14,-24,-39,4,26,-31,4,29,34,-14,-34,-34
14,-14,-29,0,21,-21,0,39,48,4,-24,-14
24,-14,-39,-4,31,-26,-4,43,58,24,-14,-4
24,-9,-34,-7,29,-21,-9,53,68,43,4,0
24,-9,-34,-7,29,-21,-9,58,78,53,24,14
29,-9,-39,-9,34,-24,-9,63,87,63,34,24
29,-4,-34,-12,31,-19,-14,63,92,73,39,29
34,-4,-39,-14,36,-21,-14,68,97,82,48,34
34,4,-29,-19,31,-12,-14,68,97,87,53,34
34,9,-24,-21,29,-7,-14,68,97,92,53,29
34,14,-19,-24,26,-2,-14,68,102,92,53,29
34,14,-19,-24,26,-2,-14,68,102,97,48,29
34,14,-19,-24,26,-2,-14,63,102,97,48,39
29,19,-9,-24,19,4,-14,63,107,92,48,29
29,19,-9,-24,19,4,-14,63,112,92,53,29
29,19,-9,-24,19,4,-14,63,112,92,53,29
24,14,-9,-19,17,2,-9,63,112,92,48,29
24,14,-9,-19,17,2,-9,63,112,92,48,29
19,19,0,-19,9,9,-9,63,112,87,43,19
19,19,0,-19,9,9,-9,58,107,87,43,14
14,19,4,-17,4,12,-9,53,97,78,43,14
9,19,9,-14,0,14,-9,48,92,78,39,9
9,14,4,-12,2,9,-9,48,92,78,34,14
4,9,4,-7,0,7,-9,48,92,78,29,19
0,9,9,-4,-4,9,-4,48,92,73,34,14
0,9,9,-4,-4,9,-4,43,82,63,29,9
0,9,9,-4,-4,9,-4,43,87,63,24,9
0,9,9,-4,-4,9,-4,43,87,53,24,9
0,4,4,-2,-2,4,0,43,87,53,19,4
0,4,4,-2,-2,4,0,48,82,48,14,4
0,-4,-4,2,2,-4,0,48,78,43,4,-4
0,-9,-9,4,4,-9,0,43,73,39,0,-4
4,-9,-14,2,9,-12,0,43,73,39,0,-4
9,-9,-19,0,14,-14,0,43,68,39,0,-9
9,-14,-24,2,17,-19,0,43,63,29,-4,-9
4,-14,-19,4,12,-17,4,43,63,29,-4,-9
4,-19,-24,7,14,-21,4,43,53,29,-9,-14
14,-19,-34,2,24,-26,4,48,53,29,-9,-14
14,-19,-34,2,24,-26,0,48,53,29,-9,-9
19,-19,-39,0,29,-29,0,53,58,34,-4,-9
19,-19,-39,0,29,-29,0,48,58,39,-4,-9
19,-19,-39,0,29,-29,0,43,53,39,0,-9
19,-19,-39,0,29,-29,0,43,53,39,0,-9
19,-19,-39,0,29,-29,0,43,58,39,0,-9
19,-19,-39,0,29,-29,-4,43,58,39,4,-4
19,-19,-39,0,29,-29,-4,43,48,39,4,-4
14,-14,-29,0,21,-21,0,48,48,39,9,-9
14,-14,-29,0,21,-21,4,53,48,39,9,-9
19,-14,-34,-2,26,-24,0,48,53,39,9,-9
19,-14,-34,-2,26,-24,0,48,53,39,9,-4
14,-14,-29,0,21,-21,-4,43,53,39,14,-4
14,-14,-29,0,21,-21,-4,39,53,39,14,-4
14,-14,-29,0,21,-21,-4,39,48,39,14,-4
14,-14,-29,0,21,-21,-9,39,48,39,14,-4
14,-14,-29,0,21,-21,-9,39,48,43,14,-4
9,-14,-24,2,17,-19,-9,39,48,48,19,-4
14,-14,-29,0,21,-21,-9,43,43,48,14,-4
14,-14,-29,0,21,-21,-9,43,39,48,9,-4
14,-14,-29,0,21,-21,-9,43,39,48,14,0
14,-14,-29,0,21,-21,-14,34,34,48,14,0
14,-14,-29,0,21,-21,-14,34,34,43,14,0
14,-14,-29,0,21,-21,-14,39,34,43,14,4
19,-14,-34,-2,26,-24,-19,43,39,43,14,4
19,-9,-29,-4,24,-19,-24,43,39,43,14,4
19,-9,-29,-4,24,-19,-24,43,34,43,14,4
19,-9,-29,-4,24,-19,-24,39,34,43,14,4
19,-14,-34,-2,26,-24,-19,39,39,48,19,4
19,-14,-34,-2,26,-24,-14,39,39,53,19,4
19,-14,-34,-2,26,-24,-14,39,39,53,19,4
19,-14,-34,-2,26,-24,-19,39,39,48,29,4
19,-9,-29,-4,24,-19,-19,39,39,48,19,4
24,-9,-34,-7,29,-21,-19,39,39,53,19,4
24,-9,-34,-7,29,-21,-19,39,39,53,19,9
24,-9,-34,-7,29,-21,-19,39,39,53,19,9
24,-9,-34,-7,29,-21,-19,48,43,53,19,4
24,-9,-34,-7,29,-21,-19,63,48,48,19,4
24,-9,-34,-7,29,-21,-19,53,48,48,19,9
24,-9,-34,-7,29,-21,-19,39,48,48,24,9
24,-14,-39,-4,31,-26,-29,34,39,48,19,9
24,-14,-39,-4,31,-26,-34,34,29,43,14,9
19,-9,-29,-4,24,-19,-34,39,29,43,14,4
19,-9,-29,-4,24,-19,-29,39,29,43,14,0
19,-9,-29,-4,24,-19,-29,39,34,43,14,0
19,-9,-29,-4,24,-19,-29,39,39,48,19,0
19,-9,-29,-4,24,-19,-24,39,39,48,19,4
19,-9,-29,-4,24,-19,-19,39,39,48,19,9
19,-9,-29,-4,24,-19,-19,39,39,48,19,9
19,-4,-24,-7,21,-14,-19,39,39,53,19,9
19,0,-19,-9,19,-9,-19,39,43,58,19,14
19,14,-4,-17,12,4,-9,43,58,63,29,19
19,34,14,-26,2,24,14,48,68,73,34,29
24,43,19,-34,2,31,19,53,68,78,43,29
24,73,48,-48,-12,61,24,63,82,87,48,29
24,87,63,-56,-19,75,-9,68,82,87,53,34
29,97,68,-63,-19,82,-53,43,82,92,58,39
34,107,73,-70,-19,90,-82,34,82,92,58,39
43,117,73,-80,-14,95,-102,29,82,97,58,43
43,126,82,-85,-19,104,-112,29,82,97,63,48
53,131,78,-92,-12,104,-112,29,82,97,78,53
58,146,87,-102,-14,117,-117,24,82,102,82,58
58,156,97,-107,-19,126,-117,24,78,102,82,58
58,156,97,-107,-19,126,-117,24,68,97,78,53
53,146,92,-100,-19,119,-112,24,58,82,73,58
58,122,63,-90,-2,92,-107,29,43,82,68,63
68,87,19,-78,24,53,-102,34,43,78,68,58
68,73,4,-70,31,39,-92,39,43,78,68,53
68,63,-4,-65,36,29,-87,39,43,78,63,48
73,53,-19,-63,46,17,-78,39,43,73,53,48
63,29,-34,-46,48,-2,-68,39,39,63,48,34
53,14,-39,-34,46,-12,-63,29,19,53,34,24
29,4,-24,-17,26,-9,-53,19,19,48,19,14
19,-4,-24,-7,21,-14,-53,9,9,39,9,0
19,-24,-43,2,31,-34,-43,9,9,29,4,0
19,-34,-53,7,36,-43,-39,9,9,24,0,-4
14,-39,-53,12,34,-46,-39,14,4,19,0,-4
9,-43,-53,17,31,-48,-34,14,4,19,0,-9
4,-43,-48,19,26,-46,-34,14,0,19,0,-14
4,-48,-53,21,29,-51,-34,14,-4,19,0,-24
14,-48,-63,17,39,-56,-29,14,-4,19,-4,-24
19,-48,-68,14,43,-58,-29,19,0,19,-4,-24
14,-48,-63,17,39,-56,-24,19,0,24,0,-24
9,-48,-58,19,34,-53,-14,19,0,29,0,-24
4,-53,-58,24,31,-56,-9,24,0,29,-4,-24
0,-58,-58,29,29,-58,-4,34,0,29,-4,-24
0,-58,-58,29,29,-58,-4,34,4,24,0,-19
0,-58,-58,29,29,-58,-4,34,4,19,0,-14
0,-63,-63,31,31,-63,-4,34,4,19,0,-14
0,-68,-68,34,34,-68,-4,34,4,24,0,-14
0,-63,-63,31,31,-63,0,29,-4,19,-4,-14
-4,-58,-53,31,24,-56,4,34,4,19,-9,-14
-19,-53,-34,36,7,-43,43,63,39,4,-29,-39
-14,-19,-4,17,-4,-12,53,107,117,58,0,-24
-9,29,39,-9,-24,34,43,117,214,175,82,19
29,151,122,-90,-46,136,-24,126,385,419,278,151
126,322,195,-224,-34,258,-185,156,580,790,590,390
234,453,219,-344,7,336,-307,239,761,1151,883,624
336,566,229,-451,53,397,-400,370,927,1478,1161,819
448,639,190,-544,129,414,-448,575,1083,1717,1356,980
595,546,-48,-570,322,248,-390,1054,1356,1873,1400,1010
795,424,-370,-610,583,26,-370,1546,1595,2005,1449,1044
990,366,-624,-678,807,-129,-453,1903,1815,2176,1576,1146
956,278,-678,-617,817,-200,-517,1464,1410,1800,1405,1093
644,34,-610,-339,627,-287,-419,424,307,629,736,707
419,-204,-624,-107,522,-414,-258,-117,-375,-209,170,341
195,-302,-497,53,346,-400,-73,-229,-439,-429,-102,102
-14,-341,-326,178,156,-334,87,-375,-541,-595,-302,-82
-122,-248,-126,185,2,-187,180,-419,-483,-585,-341,-151
-214,-180,34,197,-124,-73,312,-405,-366,-556,-380,-229
-292,-146,146,219,-219,0,512,-292,-200,-453,-380,-292
-312,-126,185,219,-248,29,634,-195,-78,-341,-336,-297
-297,-112,185,204,-241,36,678,-165,-92,-322,-326,-287
-287,-112,175,200,-231,31,683,-180,-156,-341,-317,-287
-292,-156,136,224,-214,-9,683,-253,-297,-395,-336,-292
-283,-214,68,248,-175,-73,668,-268,-351,-395,-351,-292
-258,-273,-14,265,-122,-143,644,-244,-346,-375,-341,-287
-239,-307,-68,273,-85,-187,697,-239,-341,-375,-331,-287
-214,-312,-97,263,-58,-204,785,-195,-307,-341,-287,-258
-165,-258,-92,212,-36,-175,702,-117,-209,-248,-209,-200
-117,-161,-43,139,-36,-102,444,-53,-112,-156,-161,-151
-82,-82,0,82,-41,-41,258,-39,-63,-107,-131,-112
-58,-63,-4,61,-26,-34,156,-29,-58,-97,-92,-92
-53,-58,-4,56,-24,-31,112,-19,-43,-78,-68,-78
-53,-53,0,53,-26,-26,117,-9,-24,-53,-68,-73
-48,-39,9,43,-29,-14,97,-19,-19,-48,-68,-73
-39,-29,9,34,-24,-9,43,-29,-19,-48,-58,-63
-39,-24,14,31,-26,-4,24,-34,-19,-48,-53,-53
-39,-24,14,31,-26,-4,24,-34,-14,-43,-48,-48
-39,-14,24,26,-31,4,14,-29,-14,-48,-48,-48
-39,-4,34,21,-36,14,-4,-29,-9,-43,-43,-43
-34,0,34,17,-34,17,-4,-34,-9,-43,-43,-43
-34,4,39,14,-36,21,-9,-29,-9,-34,-39,-43
-29,4,34,12,-31,19,-14,-29,-9,-29,-34,-39
-29,9,39,9,-34,24,-24,-29,-4,-24,-29,-39
-29,9,39,9,-34,24,-24,-29,-4,-19,-24,-34
-29,14,43,7,-36,29,-29,-39,-4,-24,-19,-29
-29,19,48,4,-39,34,-34,-43,-4,-29,-19,-29
-29,29,58,0,-43,43,-34,-43,-4,-29,-19,-29
-29,29,58,0,-43,43,-39,-48,-9,-24,-14,-29
-29,34,63,-2,-46,48,-43,-48,-9,-19,-9,-24
-29,43,73,-7,-51,58,-43,-43,-4,-14,-4,-19
-29,43,73,-7,-51,58,-53,-48,-4,-14,-4,-19
-29,48,78,-9,-53,63,-58,-53,-9,-14,0,-14
-29,53,82,-12,-56,68,-63,-58,-14,-14,0,-14
-29,63,92,-17,-61,78,-63,-58,-14,-14,4,-4
-29,68,97,-19,-63,82,-68,-63,-9,-14,9,-4
-29,73,102,-21,-65,87,-73,-68,-9,-14,9,-4
-34,82,117,-24,-75,100,-82,-78,-9,-19,9,0
-34,92,126,-29,-80,109,-87,-87,-14,-24,9,0
-29,92,122,-31,-75,107,-92,-82,-24,-29,9,0
-29,102,131,-36,-80,117,-102,-92,-29,-29,9,4
-34,112,146,-39,-90,129,-102,-97,-34,-29,14,14
-34,122,156,-43,-95,139,-112,-107,-48,-34,14,24
-39,122,161,-41,-100,141,-122,-122,-58,-43,14,24
-39,131,170,-46,-104,151,-131,-146,-68,-53,4,24
-39,141,180,-51,-109,161,-136,-156,-82,-63,4,24
-48,146,195,-48,-122,170,-141,-165,-102,-78,0,24
-48,156,204,-53,-126,180,-146,-180,-117,-87,-4,24
-53,165,219,-56,-136,192,-156,-195,-136,-107,-9,19
-53,165,219,-56,-136,192,-165,-219,-156,-126,-29,9
-58,165,224,-53,-141,195,-170,-239,-180,-156,-48,4
-68,170,239,-51,-153,204,-175,-258,-204,-180,-58,-4
-73,170,244,-48,-158,207,-180,-283,-239,-204,-82,-14
-87,175,263,-43,-175,219,-180,-307,-273,-239,-97,-24
-97,175,273,-39,-185,224,-185,-326,-302,-268,-117,-29
-107,170,278,-31,-192,224,-185,-361,-341,-312,-141,-48
-117,165,283,-24,-200,224,-185,-385,-380,-346,-170,-63
-136,161,297,-12,-217,229,-190,-405,-414,-380,-190,-82
-136,151,287,-7,-212,219,-195,-429,-463,-424,-224,-102
-141,136,278,2,-209,207,-190,-448,-497,-468,-258,-126
-151,122,273,14,-212,197,-180,-463,-527,-502,-283,-146
-161,102,263,29,-212,183,-175,-468,-546,-536,-312,-170
-165,82,248,41,-207,165,-161,-468,-570,-561,-336,-190
-170,58,229,56,-200,143,-136,-463,-580,-600,-366,-209
-175,29,204,73,-190,117,-122,-453,-590,-624,-385,-234
-175,14,190,80,-183,102,-102,-429,-600,-639,-400,-248
-175,-9,165,92,-170,78,-78,-405,-605,-644,-414,-263
-175,-29,146,102,-161,58,-58,-366,-575,-644,-429,-273
-165,-53,112,109,-139,29,-39,-336,-561,-639,-434,-283
-156,-73,82,114,-119,4,-19,-297,-527,-629,-439,-287
-141,-87,53,114,-97,-17,0,-268,-497,-610,-434,-292
-131,-97,34,114,-82,-31,4,-234,-453,-585,-429,-287
-122,-97,24,109,-73,-36,14,-195,-414,-561,-409,-273
-107,-97,9,102,-58,-43,24,-156,-366,-512,-385,-273
-97,-102,-4,100,-46,-53,24,-136,-326,-458,-351,-258
-82,-102,-19,92,-31,-61,29,-112,-292,-414,-317,-229
-73,-92,-19,82,-26,-56,29,-92,-253,-370,-283,-209
-58,-87,-29,73,-14,-58,29,-73,-204,-322,-253,-190
-48,-87,-39,68,-4,-63,24,-53,-165,-273,-224,-170
-34,-78,-43,56,4,-61,19,-39,-136,-229,-195,-146
-29,-68,-39,48,4,-53,14,-29,-107,-190,-156,-126
-29,-63,-34,46,2,-48,14,-9,-78,-151,-126,-102
-14,-53,-39,34,12,-46,19,4,-53,-117,-107,-82
0,-43,-43,21,21,-43,9,9,-34,-87,-82,-68
4,-34,-39,14,21,-36,4,19,-14,-63,-63,-63
4,-24,-29,9,17,-26,0,29,4,-39,-48,-43
14,-24,-39,4,26,-31,-4,29,19,-14,-34,-34
14,-24,-39,4,26,-31,-9,34,29,4,-14,-29
14,-24,-39,4,26,-31,-9,39,39,14,0,-19
19,-19,-39,0,29,-29,-14,43,48,24,4,-9
19,-14,-34,-2,26,-24,-24,43,53,34,9,0
24,-14,-39,-4,31,-26,-24,48,58,48,24,4
24,-9,-34,-7,29,-21,-24,48,63,58,34,9
24,-9,-34,-7,29,-21,-24,48,68,63,34,9
24,-4,-29,-9,26,-17,-24,48,73,63,39,9
24,-4,-29,-9,26,-17,-24,48,73,68,39,4
24,-4,-29,-9,26,-17,-24,43,68,68,39,9
19,0,-19,-9,19,-9,-24,43,68,63,39,0
19,0,-19,-9,19,-9,-24,43,73,63,43,0
19,0,-19,-9,19,-9,-24,43,78,63,43,4
14,-4,-19,-4,17,-12,-19,43,82,63,39,9
14,-4,-19,-4,17,-12,-14,43,82,63,39,9
9,0,-9,-4,9,-4,-9,43,82,58,34,4
9,0,-9,-4,9,-4,-9,34,78,58,39,4
9,0,-9,-4,9,-4,-9,29,73,48,43,4
9,4,-4,-7,7,0,-9,29,73,48,39,0
9,4,-4,-7,7,0,-9,29,73,48,34,0
4,0,-4,-2,4,-2,-9,34,73,48,29,0
0,0,0,0,0,0,-4,39,73,43,29,-4
0,-4,-4,2,2,-4,-4,34,63,34,14,-14
0,-9,-9,4,4,-9,-4,34,63,34,4,-19
0,-9,-9,4,4,-9,-4,34,53,19,4,-19
0,-14,-14,7,7,-14,0,34,48,14,0,-24
0,-14,-14,7,7,-14,0,39,43,9,-4,-24
0,-24,-24,12,12,-24,0,39,43,9,-9,-34
0,-29,-29,14,14,-29,0,34,43,9,-9,-34
0,-29,-29,14,14,-29,0,34,43,9,-9,-34
0,-29,-29,14,14,-29,0,34,39,9,-9,-39
0,-34,-34,17,17,-34,0,34,34,0,-14,-39
-4,-34,-29,19,12,-31,4,29,34,0,-19,-39
-4,-39,-34,21,14,-36,4,19,24,-4,-29,-43
0,-39,-39,19,19,-39,4,19,24,-9,-29,-43
-4,-39,-34,21,14,-36,0,19,24,-9,-29,-39
0,-39,-39,19,19,-39,0,24,29,-9,-24,-39
0,-39,-39,19,19,-39,0,24,29,-9,-24,-39
4,-39,-43,17,24,-41,0,24,24,-9,-19,-39
9,-39,-48,14,29,-43,0,24,24,-9,-19,-39
9,-39,-48,14,29,-43,0,29,29,-4,-19,-39
9,-39,-48,14,29,-43,-4,34,29,0,-14,-34
9,-39,-48,14,29,-43,-4,34,19,4,-9,-34
4,-39,-43,17,24,-41,-4,34,19,9,-4,-39
4,-43,-48,19,26,-46,0,34,19,9,-9,-39
9,-43,-53,17,31,-48,0,29,24,9,-9,-39
9,-43,-53,17,31,-48,0,29,24,4,-19,-39
4,-43,-48,19,26,-46,0,29,24,4,-24,-43
4,-48,-53,21,29,-51,4,29,24,9,-24,-43
4,-53,-58,24,31,-56,4,29,19,9,-24,-43
4,-53,-58,24,31,-56,0,29,19,9,-19,-43
9,-53,-63,21,36,-58,0,29,19,9,-14,-43
9,-53,-63,21,36,-58,0,24,19,9,-9,-43
14,-53,-68,19,41,-61,0,24,19,9,-9,-43
14,-48,-63,17,39,-56,0,24,19,9,-9,-43
14,-43,-58,14,36,-51,0,24,19,9,-4,-39
14,-43,-58,14,36,-51,-4,14,14,9,-4,-34
14,-43,-58,14,36,-51,-4,14,14,9,-4,-29
9,-43,-53,17,31,-48,-4,24,19,19,-4,-24
4,-43,-48,19,26,-46,-4,34,29,24,-4,-24
0,-48,-48,24,24,-48,-4,34,29,24,-4,-24
0,-58,-58,29,29,-58,-4,34,24,24,-4,-24
0,-58,-58,29,29,-58,-4,34,24,24,-4,-24
0,-63,-63,31,31,-63,-4,39,29,29,0,-24
0,-58,-58,29,29,-58,0,39,29,34,0,-24
0,-53,-53,26,26,-53,4,39,29,34,0,-24
4,-53,-58,24,31,-56,0,34,29,24,9,-29
9,-48,-58,19,34,-53,0,29,29,19,0,-34
14,-48,-63,17,39,-56,0,29,29,24,0,-34
14,-48,-63,17,39,-56,0,29,29,24,0,-29
14,-48,-63,17,39,-56,0,29,29,29,0,-29
14,-48,-63,17,39,-56,0,29,29,34,0,-34
14,-53,-68,19,41,-61,-4,34,29,29,-4,-34
14,-58,-73,21,43,-65,-9,34,29,29,-9,-29
14,-58,-73,21,43,-65,-9,29,29,29,-4,-29
14,-63,-78,24,46,-70,-14,24,29,34,-4,-29
9,-63,-73,26,41,-68,-14,29,29,34,-4,-24
0,-58,-58,29,29,-58,-14,39,29,34,-4,-19
0,-58,-58,29,29,-58,-14,39,29,34,-4,-19
0,-58,-58,29,29,-58,-9,39,29,34,-4,-19
4,-53,-58,24,31,-56,-9,39,29,29,0,-24
9,-48,-58,19,34,-53,-9,39,29,29,0,-29
9,-43,-53,17,31,-48,-9,39,29,34,4,-29
9,-39,-48,14,29,-43,-9,39,29,39,9,-29
9,-39,-48,14,29,-43,-9,39,29,39,9,-29
9,-39,-48,14,29,-43,-9,39,29,39,9,-29
9,-43,-53,17,31,-48,-4,39,34,39,4,-29
9,-48,-58,19,34,-53,0,39,39,39,0,-29
9,-43,-53,17,31,-48,0,39,39,43,0,-29
9,-29,-39,9,24,-34,4,39,48,48,4,-24
9,-19,-29,4,19,-24,9,43,58,53,9,-19
9,4,-4,-7,7,0,29,48,68,63,14,-9
14,14,0,-14,7,7,29,53,68,68,34,-4
14,39,24,-26,-4,31,24,53,82,78,48,4
14,48,34,-31,-9,41,-24,48,82,78,53,14
19,58,39,-39,-9,48,-58,34,82,82,58,19
24,73,48,-48,-12,61,-73,34,82,82,58,19
34,87,53,-61,-9,70,-87,29,82,87,58,24
34,97,63,-65,-14,80,-92,29,87,87,63,29
39,102,63,-70,-12,82,-92,29,92,87,73,34
39,117,78,-78,-19,97,-92,24,92,92,73,39
39,117,78,-78,-19,97,-87,24,87,92,73,39
39,107,68,-73,-14,87,-87,24,73,87,68,34
39,87,48,-63,-4,68,-82,24,58,73,63,34
58,43,-14,-51,36,14,-82,29,43,73,48,29
78,9,-68,-43,73,-29,-82,34,43,68,39,19
68,4,-63,-36,65,-29,-73,39,48,73,48,14
53,-4,-58,-24,56,-31,-68,39,53,78,53,9
53,-14,-68,-19,61,-41,-58,39,53,73,43,9
43,-39,-82,-2,63,-61,-48,39,48,63,39,-4
34,-48,-82,7,58,-65,-43,29,24,48,24,-14
14,-53,-68,19,41,-61,-34,24,19,39,14,-19
9,-63,-73,26,41,-68,-29,19,9,29,9,-29
9,-73,-82,31,46,-78,-14,19,9,24,4,-29
9,-73,-82,31,46,-78,-9,19,9,24,0,-34
9,-78,-87,34,48,-82,-9,24,4,19,0,-34
9,-82,-92,36,51,-87,-4,24,4,19,0,-39
4,-82,-87,39,46,-85,-4,24,4,19,0,-39
4,-82,-87,39,46,-85,-4,24,4,24,0,-39
9,-78,-87,34,48,-82,0,24,4,29,-4,-34
14,-78,-92,31,53,-85,0,29,9,29,-4,-34
14,-78,-92,31,53,-85,0,29,9,29,0,-34
9,-78,-87,34,48,-82,0,29,9,29,0,-39
9,-78,-87,34,48,-82,0,29,9,29,-4,-43
4,-87,-92,41,48,-90,4,34,9,24,-14,-43
0,-97,-97,48,48,-97,4,34,14,19,-19,-43
0,-97,-97,48,48,-97,9,34,14,19,-19,-43
0,-97,-97,48,48,-97,14,34,14,19,-19,-43
0,-92,-92,46,46,-92,14,34,19,29,-14,-43
0,-82,-82,41,41,-82,19,34,24,34,-9,-43
-4,-78,-73,41,34,-75,24,48,43,39,0,-39
-14,-63,-48,39,17,-56,53,82,102,68,24,-34
-4,-19,-14,12,4,-17,53,126,209,170,87,4
24,58,34,-41,-4,46,14,151,336,361,229,102
87,204,117,-146,-14,161,-82,190,531,673,483,287
190,346,156,-268,17,251,-224,268,727,1029,780,512
312,444,131,-378,90,287,-326,395,907,1366,1039,717
434,497,63,-466,185,280,-385,595,1073,1625,1239,854
566,522,-43,-544,305,239,-400,878,1229,1800,1376,971
712,414,-297,-563,505,58,-361,1293,1449,1898,1395,990
893,278,-614,-585,753,-168,-370,1639,1586,1952,1410,1019
951,195,-756,-573,854,-280,-429,1610,1464,1805,1361,1024
785,92,-692,-439,739,-300,-458,834,780,1137,1024,868
488,-112,-600,-187,544,-356,-331,24,-78,165,429,497
283,-312,-595,14,439,-453,-141,-253,-492,-434,-39,156
92,-336,-429,122,261,-383,24,-297,-439,-507,-204,-14
-87,-312,-224,200,68,-268,170,-380,-463,-566,-322,-136
-175,-234,-58,204,-58,-146,268,-366,-375,-527,-346,-195
-244,-185,58,214,-151,-63,405,-307,-229,-468,-370,-268
-302,-165,136,234,-219,-14,570,-224,-117,-390,-370,-317
-302,-156,146,229,-224,-4,653,-156,-48,-302,-322,-307
-287,-156,131,222,-209,-12,678,-146,-92,-302,-317,-297
-278,-165,112,222,-195,-26,663,-185,-190,-341,-317,-297
-278,-204,73,241,-175,-65,663,-234,-297,-375,-322,-297
-268,-263,4,265,-136,-129,649,-224,-317,-361,-326,-297
-248,-302,-53,275,-97,-178,634,-204,-307,-341,-317,-287
-229,-326,-97,278,-65,-212,707,-209,-307,-346,-312,-287
-204,-322,-117,263,-43,-219,741,-175,-278,-312,-278,-268
-156,-248,-92,202,-31,-170,595,-82,-170,-209,-200,-209
-112,-170,-58,141,-26,-114,380,-19,-92,-136,-151,-165
-78,-107,-29,92,-24,-68,229,-19,-53,-102,-122,-131
-53,-82,-29,68,-12,-56,146,-19,-39,-87,-92,-117
-53,-78,-24,65,-14,-51,131,-9,-14,-68,-78,-102
-53,-73,-19,63,-17,-46,122,9,9,-48,-78,-92
-48,-68,-19,58,-14,-43,87,-14,0,-48,-78,-87
-39,-68,-29,53,-4,-48,48,-34,-9,-48,-68,-73
-34,-63,-29,48,-2,-46,43,-34,-9,-48,-58,-63
-29,-63,-34,46,2,-48,43,-34,-4,-39,-48,-58
-29,-48,-19,39,-4,-34,29,-29,-4,-39,-48,-58
-29,-39,-9,34,-9,-24,4,-29,0,-34,-43,-53
-29,-34,-4,31,-12,-19,4,-34,0,-34,-43,-53
-34,-24,9,29,-21,-7,0,-34,0,-29,-43,-53
-29,-24,4,26,-17,-9,0,-34,0,-29,-43,-48
-29,-19,9,24,-19,-4,-4,-29,4,-24,-39,-48
-34,-19,14,26,-24,-2,-4,-29,4,-19,-34,-48
-39,-14,24,26,-31,4,-9,-34,4,-19,-29,-48
-39,-9,29,24,-34,9,-19,-34,4,-19,-29,-48
-39,0,39,19,-39,19,-24,-34,4,-19,-29,-48
-29,0,29,14,-29,14,-29,-39,-4,-14,-24,-48
-19,4,24,7,-21,14,-34,-43,-9,-14,-19,-43
-29,9,39,9,-34,24,-34,-43,-4,-14,-14,-34
-39,4,43,17,-41,24,-43,-48,-4,-14,-14,-29
-39,9,48,14,-43,29,-48,-53,-9,-14,-9,-24
-39,14,53,12,-46,34,-53,-58,-14,-14,-9,-24
-39,24,63,7,-51,43,-53,-58,-9,-9,-9,-14
-39,29,68,4,-53,48,-58,-63,-4,-4,-9,-14
-39,34,73,2,-56,53,-63,-68,-9,-4,-9,-19
-43,43,87,0,-65,65,-73,-78,-14,-9,-9,-19
-43,58,102,-7,-73,80,-78,-92,-29,-24,-14,-19
-39,63,102,-12,-70,82,-82,-97,-43,-39,-19,-19
-39,73,112,-17,-75,92,-92,-112,-48,-39,-19,-9
-43,82,126,-19,-85,104,-92,-117,-53,-43,-19,0
-43,87,131,-21,-87,109,-97,-122,-68,-53,-24,4
-48,82,131,-17,-90,107,-102,-126,-78,-63,-24,4
-48,92,141,-21,-95,117,-112,-146,-87,-73,-29,4
-48,102,151,-26,-100,126,-117,-156,-102,-82,-24,4
-58,107,165,-24,-112,136,-122,-165,-122,-97,-29,4
-58,117,175,-29,-117,146,-126,-185,-141,-112,-34,4
-63,126,190,-31,-126,158,-136,-204,-165,-141,-43,0
-68,126,195,-29,-131,161,-146,-229,-190,-165,-68,-9
-73,126,200,-26,-136,163,-151,-248,-219,-200,-87,-19
-78,131,209,-26,-143,170,-156,-268,-244,-234,-97,-34
-82,131,214,-24,-148,173,-161,-287,-283,-263,-122,-43
-92,136,229,-21,-161,183,-161,-302,-322,-297,-141,-58
-97,136,234,-19,-165,185,-165,-317,-351,-326,-165,-63
-107,126,234,-9,-170,180,-165,-351,-390,-370,-190,-78
-117,117,234,0,-175,175,-165,-375,-429,-405,-219,-92
-136,112,248,12,-192,180,-165,-395,-463,-444,-239,-112
-136,102,239,17,-187,170,-165,-419,-512,-483,-273,-131
-141,87,229,26,-185,158,-161,-434,-541,-517,-307,-156
-151,73,224,39,-187,148,-151,-444,-566,-561,-341,-180
-161,53,214,53,-187,134,-146,-448,-585,-605,-380,-209
-165,34,200,65,-183,117,-131,-444,-605,-629,-405,-229
-165,9,175,78,-170,92,-107,-424,-600,-658,-434,-248
-165,-24,141,95,-153,58,-92,-405,-600,-673,-453,-273
-165,-43,122,104,-143,39,-73,-375,-600,-683,-468,-287
-165,-68,97,117,-131,14,-48,-341,-595,-678,-478,-302
-165,-87,78,126,-122,-4,-29,-297,-566,-673,-488,-312
-156,-107,48,131,-102,-29,-9,-268,-546,-668,-492,-322
-146,-117,29,131,-87,-43,9,-229,-507,-653,-492,-322
-131,-126,4,129,-68,-61,29,-200,-473,-629,-483,-317
-122,-136,-14,129,-53,-75,34,-165,-424,-595,-468,-307
-112,-136,-24,124,-43,-80,43,-126,-380,-551,-429,-292
-97,-136,-39,117,-29,-87,53,-92,-326,-492,-395,-283
-87,-136,-48,112,-19,-92,48,-78,-283,-439,-361,-258
-73,-131,-58,102,-7,-95,48,-53,-244,-390,-326,-229
-68,-122,-53,95,-7,-87,48,-34,-204,-336,-292,-209
-58,-117,-58,87,0,-87,48,-19,-161,-283,-258,-190
-48,-117,-68,82,9,-92,43,-9,-126,-234,-219,-170
-34,-107,-73,70,19,-90,39,0,-97,-190,-185,-146
-29,-97,-68,63,19,-82,34,9,-68,-151,-146,-126
-29,-92,-63,61,17,-78,29,24,-39,-112,-117,-102
-14,-92,-78,53,31,-85,29,24,-19,-92,-112,-92
-4,-92,-87,48,41,-90,19,19,-4,-78,-102,-87
-4,-82,-78,43,36,-80,19,29,14,-43,-68,-73
-4,-73,-68,39,31,-70,19,39,29,-14,-43,-43
4,-63,-68,29,36,-65,14,39,39,4,-34,-29
4,-48,-53,21,29,-51,9,43,48,24,-14,-19
4,-39,-43,17,24,-41,9,53,58,39,0,-4
9,-29,-39,9,24,-34,9,63,68,53,4,4
9,-24,-34,7,21,-29,4,63,73,63,9,9
14,-24,-39,4,26,-31,4,68,78,73,19,14
9,-29,-39,9,24,-34,4,68,82,78,24,9
4,-39,-43,17,24,-41,4,68,87,82,24,0
0,-34,-34,17,17,-34,4,68,87,78,19,0
-4,-34,-29,19,12,-31,4,68,82,78,9,0
-4,-34,-29,19,12,-31,4,58,78,78,9,9
-9,-29,-19,19,4,-24,4,53,78,73,9,0
-4,-29,-24,17,9,-26,4,53,82,73,14,0
0,-29,-29,14,14,-29,4,53,82,73,14,0
-4,-39,-34,21,14,-36,9,53,82,73,14,4
-4,-43,-39,24,17,-41,9,53,82,73,19,9
-9,-39,-29,24,9,-34,9,53,82,68,14,4
-9,-39,-29,24,9,-34,9,48,78,68,14,4
-9,-34,-24,21,7,-29,9,53,73,58,14,4
-9,-29,-19,19,4,-24,9,58,73,58,9,0
-9,-34,-24,21,7,-29,9,58,73,58,4,0
-14,-39,-24,26,4,-31,9,58,73,58,0,0
-19,-39,-19,29,0,-29,14,53,73,53,0,-4
-19,-39,-19,29,0,-29,14,43,63,43,-9,-9
-19,-39,-19,29,0,-29,14,43,63,39,-19,-14
-19,-39,-19,29,0,-29,14,43,58,24,-24,-19
-19,-48,-29,34,4,-39,19,43,58,24,-29,-24
-19,-53,-34,36,7,-43,19,48,53,19,-34,-24
-19,-63,-43,41,12,-53,19,53,53,24,-34,-29
-19,-68,-48,43,14,-58,19,53,53,29,-29,-24
-14,-68,-53,41,19,-61,19,53,53,29,-29,-24
-9,-68,-58,39,24,-63,19,53,48,29,-29,-29
-9,-68,-58,39,24,-63,14,53,43,19,-29,-24
-14,-63,-48,39,17,-56,14,53,43,19,-24,-19
-14,-68,-53,41,19,-61,14,48,34,9,-29,-24
-4,-68,-63,36,29,-65,14,48,34,0,-29,-24
-4,-68,-63,36,29,-65,14,48,34,0,-29,-24
0,-68,-68,34,34,-68,19,53,39,4,-24,-29
0,-68,-68,34,34,-68,19,53,39,9,-24,-29
0,-68,-68,34,34,-68,19,53,34,9,-19,-29
-4,-68,-63,36,29,-65,19,53,29,9,-19,-29
-9,-68,-58,39,24,-63,19,53,29,9,-19,-29
-9,-63,-53,36,21,-58,14,53,29,14,-14,-24
-9,-58,-48,34,19,-53,14,53,19,19,-14,-24
-14,-58,-43,36,14,-51,14,58,24,19,-24,-29
-14,-63,-48,39,17,-56,14,63,29,19,-39,-29
-9,-68,-58,39,24,-63,9,58,34,14,-29,-29
-9,-73,-63,41,26,-68,9,58,34,9,-19,-24
-9,-73,-63,41,26,-68,9,48,34,14,-14,-19
-4,-73,-68,39,31,-70,14,39,34,19,-14,-14
-4,-73,-68,39,31,-70,14,39,29,19,-14,-14
-4,-73,-68,39,31,-70,9,39,29,19,-14,-14
-4,-73,-68,39,31,-70,9,43,29,19,-14,-14
-9,-73,-63,41,26,-68,9,48,29,19,-9,-14
-4,-73,-68,39,31,-70,9,53,29,19,-9,-14
-4,-73,-68,39,31,-70,9,53,29,19,-9,-14
-4,-73,-68,39,31,-70,9,53,29,19,-4,-9
-4,-73,-68,39,31,-70,4,43,24,19,-4,-9
-4,-73,-68,39,31,-70,4,39,24,19,-4,-9
-4,-73,-68,39,31,-70,4,39,24,24,-4,-4
0,-78,-78,39,39,-78,4,43,29,29,0,-4
0,-78,-78,39,39,-78,4,43,29,34,4,-4
0,-78,-78,39,39,-78,4,48,24,34,4,-4
0,-78,-78,39,39,-78,4,48,24,34,4,-4
0,-78,-78,39,39,-78,4,48,29,39,14,-4
0,-73,-73,36,36,-73,4,48,29,43,19,-4
0,-73,-73,36,36,-73,4,48,29,43,19,0
0,-73,-73,36,36,-73,0,48,29,39,29,4
-4,-63,-58,34,26,-61,0,48,29,34,19,4
-4,-58,-53,31,24,-56,0,48,29,34,19,4
-4,-58,-53,31,24,-56,0,48,29,34,19,9
-4,-58,-53,31,24,-56,0,48,29,34,19,9
-4,-58,-53,31,24,-56,0,43,29,34,14,4
-4,-58,-53,31,24,-56,0,43,29,29,9,4
-4,-58,-53,31,24,-56,0,43,29,29,9,9
-4,-58,-53,31,24,-56,0,39,29,29,14,9
0,-63,-63,31,31,-63,-4,39,29,39,19,9
4,-63,-68,29,36,-65,-4,43,29,43,24,9
0,-58,-58,29,29,-58,-4,48,29,43,24,9
0,-58,-58,29,29,-58,-4,48,29,43,24,9
0,-58,-58,29,29,-58,0,48,29,43,24,4
0,-58,-58,29,29,-58,0,48,29,43,24,0
0,-58,-58,29,29,-58,-4,43,29,39,24,0
0,-58,-58,29,29,-58,-9,39,29,39,29,0
0,-58,-58,29,29,-58,-9,39,29,39,29,4
0,-58,-58,29,29,-58,-9,39,29,39,29,9
0,-63,-63,31,31,-63,-4,43,29,43,29,9
0,-68,-68,34,34,-68,0,48,29,48,29,9
0,-63,-63,31,31,-63,0,48,29,53,34,9
0,-48,-48,24,24,-48,4,48,39,58,39,14
0,-39,-39,19,19,-39,9,53,53,63,48,24
0,-14,-14,7,7,-14,29,58,68,73,53,39
4,-4,-9,0,7,-7,29,63,68,78,63,39
4,19,14,-12,-4,17,24,63,82,87,68,43
4,34,29,-19,-12,31,-19,53,82,82,73,53
9,48,39,-29,-14,43,-48,34,82,82,78,58
14,58,43,-36,-14,51,-63,34,82,82,78,58
24,68,43,-46,-9,56,-78,29,82,87,78,63
24,78,53,-51,-14,65,-82,29,82,87,87,68
29,82,53,-56,-12,68,-82,29,82,87,102,73
29,102,73,-65,-21,87,-87,29,82,97,107,82
29,107,78,-68,-24,92,-87,34,78,102,112,87
29,102,73,-65,-21,87,-87,34,73,97,107,82
29,87,58,-58,-14,73,-82,34,68,82,102,82
39,53,14,-46,12,34,-78,39,53,82,97,82
48,29,-19,-39,34,4,-73,43,53,78,97,78
48,24,-24,-36,36,0,-63,48,53,78,97,73
43,14,-29,-29,36,-7,-58,48,53,78,92,68
48,4,-43,-26,46,-19,-48,48,53,73,82,73
43,-19,-63,-12,53,-41,-39,48,48,63,78,63
34,-34,-68,0,51,-51,-34,39,29,53,63,53
14,-43,-58,14,36,-51,-24,34,29,48,53,48
4,-58,-63,26,34,-61,-24,29,19,39,48,34
0,-73,-73,36,36,-73,-14,29,19,34,43,29
0,-73,-73,36,36,-73,-14,29,14,34,39,24
0,-78,-78,39,39,-78,-19,34,4,29,39,24
4,-82,-87,39,46,-85,-14,34,0,29,39,24
4,-82,-87,39,46,-85,-14,34,-4,29,39,29
4,-87,-92,41,48,-90,-14,34,-4,29,39,24
9,-87,-97,39,53,-92,-9,34,-4,29,34,24
9,-82,-92,36,51,-87,-9,39,4,29,29,19
4,-78,-82,36,43,-80,-9,39,9,29,29,14
0,-78,-78,39,39,-78,-4,39,9,29,29,14
0,-78,-78,39,39,-78,0,39,9,29,24,14
0,-78,-78,39,39,-78,4,43,9,29,24,14
0,-78,-78,39,39,-78,4,43,14,29,29,14
0,-78,-78,39,39,-78,4,43,14,29,34,14
0,-78,-78,39,39,-78,4,43,14,29,39,14
0,-82,-82,41,41,-82,4,43,9,34,39,14
0,-82,-82,41,41,-82,9,43,4,34,39,14
-4,-82,-78,43,36,-80,14,43,4,19,24,9
-14,-73,-58,43,21,-65,43,63,43,29,24,4
-24,-48,-24,36,0,-36,68,102,131,78,43,4
-14,9,24,2,-19,17,53,122,239,214,141,63
34,161,126,-97,-46,143,-34,117,424,512,380,234
122,307,185,-214,-31,246,-165,151,610,854,663,444
224,439,214,-331,4,326,-287,224,805,1249,980,692
326,527,200,-427,63,363,-366,370,985,1566,1239,873
434,590,156,-512,139,373,-390,580,1146,1790,1424,1024
556,522,-34,-539,295,244,-361,922,1371,1937,1493,1078
805,385,-419,-595,612,-17,-341,1576,1761,2191,1600,1146
932,302,-629,-617,780,-163,-370,1854,1893,2244,1644,1190
814,219,-595,-517,705,-187,-458,1093,1161,1600,1366,1098
566,34,-531,-300,549,-248,-390,297,253,653,829,790
361,-234,-595,-63,478,-414,-200,-73,-351,-175,224,370
170,-326,-497,78,334,-412,-34,-209,-488,-478,-78,122
-29,-322,-292,175,131,-307,102,-336,-556,-580,-239,-29
-136,-263,-126,200,-4,-195,190,-366,-512,-585,-307,-117
-214,-195,19,204,-117,-87,322,-326,-351,-541,-356,-214
-283,-156,126,219,-204,-14,483,-263,-224,-478,-380,-287
-287,-136,151,212,-219,7,580,-165,-107,-356,-322,-278
-278,-126,151,202,-214,12,619,-126,-102,-322,-307,-268
-268,-126,141,197,-204,7,614,-161,-195,-361,-307,-268
-268,-156,112,212,-190,-21,624,-204,-297,-395,-312,-268
-258,-224,34,241,-146,-95,595,-190,-326,-380,-317,-263
-239,-273,-34,256,-102,-153,566,-165,-326,-361,-307,-248
-224,-312,-87,268,-68,-200,663,-185,-336,-370,-307,-248
-204,-322,-117,263,-43,-219,722,-165,-317,-341,-278,-229
-156,-248,-92,202,-31,-170,614,-78,-195,-229,-190,-170
-112,-170,-58,141,-26,-114,439,-19,-102,-146,-131,-126
-82,-107,-24,95,-29,-65,258,-14,-63,-117,-102,-92
-63,-82,-19,73,-21,-51,146,-9,-48,-107,-73,-78
-63,-78,-14,70,-24,-46,131,-9,-34,-78,-48,-58
-63,-73,-9,68,-26,-41,122,0,-19,-48,-39,-43
-58,-58,0,58,-29,-29,87,-9,-19,-48,-39,-43
-48,-48,0,48,-24,-24,48,-14,-19,-48,-29,-34
-48,-43,4,46,-26,-19,43,-14,-19,-48,-24,-24
-48,-43,4,46,-26,-19,43,-14,-14,-39,-19,-19
-48,-34,14,41,-31,-9,34,-9,-14,-39,-19,-19
-48,-29,19,39,-34,-4,14,-9,-9,-34,-14,-14
-39,-24,14,31,-26,-4,14,-14,-9,-34,-14,-14
-34,-14,19,24,-26,2,9,-14,-9,-29,-14,-14
-29,-9,19,19,-24,4,4,-19,-9,-29,-14,-9
-29,0,29,14,-29,14,-4,-19,-4,-24,-9,-9
-29,0,29,14,-29,14,-9,-19,0,-19,-4,-4
-29,4,34,12,-31,19,-19,-24,4,-19,0,0
-29,9,39,9,-34,24,-24,-24,4,-19,0,0
-29,19,48,4,-39,34,-24,-24,4,-19,0,0
-34,19,53,7,-43,36,-29,-34,-4,-14,4,0
-39,24,63,7,-51,43,-34,-43,-9,-14,9,4
-39,34,73,2,-56,53,-34,-43,-4,-14,14,9
-39,34,73,2,-56,53,-43,-48,-4,-14,14,9
-39,39,78,0,-58,58,-48,-53,-9,-14,19,14
-39,43,82,-2,-61,63,-53,-58,-14,-14,19,14
-39,53,92,-7,-65,73,-53,-58,-14,-14,24,24
-39,58,97,-9,-68,78,-58,-63,-14,-14,29,24
-34,63,97,-14,-65,80,-63,-68,-19,-14,24,24
-34,73,107,-19,-70,90,-73,-78,-24,-19,19,29
-34,82,117,-24,-75,100,-73,-87,-34,-24,19,29
-29,82,112,-26,-70,97,-73,-87,-43,-29,19,29
-29,92,122,-31,-75,107,-82,-102,-48,-29,19,29
-34,102,136,-34,-85,119,-82,-107,-53,-34,19,29
-34,112,146,-39,-90,129,-92,-112,-68,-43,9,34
-39,112,151,-36,-95,131,-102,-117,-78,-53,4,34
-39,117,156,-39,-97,136,-112,-136,-87,-63,-4,34
-39,122,161,-41,-100,141,-117,-146,-102,-73,-4,34
-48,126,175,-39,-112,151,-122,-156,-122,-82,-9,34
-48,136,185,-43,-117,161,-126,-175,-141,-92,-14,34
-53,146,200,-46,-126,173,-136,-195,-165,-117,-19,34
-58,146,204,-43,-131,175,-146,-219,-190,-136,-39,29
-68,146,214,-39,-141,180,-151,-239,-219,-165,-53,24
-78,151,229,-36,-153,190,-156,-258,-244,-195,-58,14
-82,151,234,-34,-158,192,-161,-283,-278,-229,-82,4
-92,156,248,-31,-170,202,-161,-302,-312,-268,-102,-9
-92,156,248,-31,-170,202,-165,-317,-341,-297,-126,-14
-97,146,244,-24,-170,195,-165,-351,-380,-341,-151,-29
-107,136,244,-14,-175,190,-165,-375,-419,-375,-180,-43
-126,131,258,-2,-192,195,-165,-395,-453,-414,-200,-63
-126,126,253,0,-190,190,-165,-419,-502,-463,-234,-82
-131,117,248,7,-190,183,-161,-434,-531,-507,-268,-107
-141,102,244,19,-192,173,-151,-444,-566,-541,-292,-126
-151,82,234,34,-192,158,-146,-448,-595,-575,-322,-151
-161,63,224,48,-192,143,-136,-453,-619,-605,-351,-175
-165,39,204,63,-185,122,-117,-444,-619,-639,-385,-200
-165,9,175,78,-170,92,-102,-429,-619,-658,-405,-224
-165,-4,161,85,-163,78,-82,-405,-619,-673,-419,-239
-161,-29,131,95,-146,51,-58,-375,-614,-673,-434,-253
-156,-48,107,102,-131,29,-39,-336,-585,-673,-448,-263
-146,-73,73,109,-109,0,-19,-307,-575,-668,-458,-278
-136,-87,48,112,-92,-19,0,-268,-546,-653,-463,-283
-126,-102,24,114,-75,-39,19,-244,-517,-634,-458,-283
-122,-117,4,119,-63,-56,24,-214,-473,-605,-448,-278
-112,-117,-4,114,-53,-61,34,-175,-434,-575,-419,-263
-97,-117,-19,107,-39,-68,43,-141,-385,-531,-395,-253
-87,-122,-34,104,-26,-78,43,-126,-341,-478,-361,-234
-73,-122,-48,97,-12,-85,48,-102,-302,-429,-326,-209
-68,-117,-48,92,-9,-82,48,-78,-263,-380,-292,-190
-58,-117,-58,87,0,-87,48,-58,-219,-331,-258,-170
-48,-117,-68,82,9,-92,48,-43,-175,-278,-224,-151
-34,-107,-73,70,19,-90,48,-29,-136,-229,-195,-126
-29,-92,-63,61,17,-78,43,-19,-107,-190,-156,-107
-29,-82,-53,56,12,-68,39,-4,-78,-151,-126,-82
-14,-73,-58,43,21,-65,39,9,-48,-117,-107,-63
-4,-63,-58,34,26,-61,29,19,-24,-87,-82,-48
-4,-53,-48,29,21,-51,24,29,-4,-53,-58,-43
-4,-43,-39,24,17,-41,19,39,9,-24,-43,-24
4,-48,-53,21,29,-51,14,39,24,-4,-34,-9
4,-48,-53,21,29,-51,9,43,39,14,-14,0
4,-43,-48,19,26,-46,9,48,48,24,4,9
9,-39,-48,14,29,-43,9,53,58,34,14,14
9,-34,-43,12,26,-39,4,53,63,43,19,19
14,-34,-48,9,31,-41,4,58,68,53,29,24
14,-24,-39,4,26,-31,0,58,73,58,34,29
14,-19,-34,2,24,-26,-4,58,78,63,34,29
14,-14,-29,0,21,-21,-4,58,82,68,39,29
14,-14,-29,0,21,-21,-4,58,82,78,39,29
14,-19,-34,2,24,-26,-4,53,82,78,39,39
9,-19,-29,4,19,-24,-4,53,87,73,39,29
9,-19,-29,4,19,-24,-4,53,92,73,43,29
9,-19,-29,4,19,-24,-4,53,92,73,43,29
4,-24,-29,9,17,-26,0,53,92,73,39,29
4,-24,-29,9,17,-26,0,53,92,73,39,29
0,-19,-19,9,9,-19,0,53,92,68,34,24
0,-19,-19,9,9,-19,0,48,87,68,34,24
0,-19,-19,9,9,-19,0,48,82,58,34,24
0,-19,-19,9,9,-19,0,48,82,58,29,19
0,-24,-24,12,12,-24,0,48,82,58,24,19
-4,-29,-24,17,9,-26,0,48,82,58,19,19
-9,-29,-19,19,4,-24,4,43,82,53,19,14
-9,-29,-19,19,4,-24,4,34,73,43,9,9
-9,-29,-19,19,4,-24,4,34,73,43,4,9
-9,-29,-19,19,4,-24,4,34,68,34,4,9
-9,-34,-24,21,7,-29,9,34,73,34,0,4
-9,-34,-24,21,7,-29,9,39,73,29,-4,4
-9,-43,-34,26,12,-39,14,43,73,29,-9,-4
-9,-48,-39,29,14,-43,19,43,73,29,-9,-4
-9,-48,-39,29,14,-43,19,43,73,29,-4,-4
-9,-48,-39,29,14,-43,19,43,68,29,0,-9
-9,-53,-43,31,17,-48,14,43,63,19,-4,-9
-14,-53,-39,34,12,-46,14,43,63,19,-4,-9
-14,-58,-43,36,14,-51,14,39,53,19,-9,-14
-4,-58,-53,31,24,-56,14,39,53,19,-9,-14
-4,-53,-48,29,21,-51,9,39,53,19,-9,-9
0,-48,-48,24,24,-48,9,43,58,24,-4,-9
0,-48,-48,24,24,-48,9,43,58,24,-4,-9
0,-48,-48,24,24,-48,9,43,53,19,0,-9
0,-53,-53,26,26,-53,14,43,43,19,-4,-14
0,-58,-58,29,29,-58,19,43,39,19,-9,-19
0,-58,-58,29,29,-58,14,43,48,19,-4,-14
0,-58,-58,29,29,-58,14,43,48,19,-4,-14
-4,-53,-48,29,21,-51,9,43,48,24,0,-19
-4,-53,-48,29,21,-51,4,43,48,29,0,-19
4,-53,-58,24,31,-56,0,39,48,29,0,-19
9,-53,-63,21,36,-58,0,39,43,29,0,-14
4,-53,-58,24,31,-56,0,39,43,29,4,-9
4,-53,-58,24,31,-56,4,39,43,29,4,-4
4,-58,-63,26,34,-61,4,39,39,29,4,-4
4,-63,-68,29,36,-65,0,39,39,29,4,-4
9,-63,-73,26,41,-68,0,39,43,34,4,-4
9,-63,-73,26,41,-68,0,39,48,39,9,-4
9,-63,-73,26,41,-68,0,39,48,39,4,-4
4,-63,-68,29,36,-65,0,34,48,39,0,-4
4,-63,-68,29,36,-65,0,34,48,39,4,-4
4,-63,-68,29,36,-65,-4,24,43,39,4,-9
4,-63,-68,29,36,-65,-4,24,43,39,4,-9
4,-63,-68,29,36,-65,-4,29,43,43,4,-4
9,-58,-68,24,39,-63,-4,34,48,39,4,-4
9,-48,-58,19,34,-53,-4,34,48,34,4,-4
9,-48,-58,19,34,-53,-4,34,43,34,4,0
9,-48,-58,19,34,-53,-4,29,43,34,4,4
9,-53,-63,21,36,-58,-4,29,48,39,9,4
9,-53,-63,21,36,-58,-4,29,48,43,9,4
9,-58,-68,24,39,-63,-4,34,43,48,9,4
9,-63,-73,26,41,-68,-9,39,39,48,19,4
9,-58,-68,24,39,-63,-9,39,39,48,14,4
14,-58,-73,21,43,-65,-9,39,39,53,19,4
14,-58,-73,21,43,-65,-9,39,39,53,19,9
14,-58,-73,21,43,-65,-9,39,39,53,19,9
9,-58,-68,24,39,-63,-4,39,43,53,19,4
4,-58,-63,26,34,-61,0,43,48,48,19,4
4,-53,-58,24,31,-56,0,43,48,48,19,4
4,-48,-53,21,29,-51,0,39,48,48,24,0
4,-53,-58,24,31,-56,-9,34,48,53,19,0
4,-53,-58,24,31,-56,-14,34,48,53,14,0
0,-53,-53,26,26,-53,-14,39,48,53,14,4
0,-58,-58,29,29,-58,-14,39,48,53,14,9
4,-58,-63,26,34,-61,-9,39,48,53,14,9
9,-58,-68,24,39,-63,-9,39,48,53,14,9
9,-58,-68,24,39,-63,-9,39,48,48,14,4
9,-58,-68,24,39,-63,-9,39,48,48,19,0
9,-58,-68,24,39,-63,-9,39,48,48,19,0
9,-58,-68,24,39,-63,-9,39,48,48,19,0
9,-58,-68,24,39,-63,-9,39,48,48,19,4
9,-58,-68,24,39,-63,-9,39,48,48,19,9
9,-58,-68,24,39,-63,-9,39,48,48,19,9
9,-58,-68,24,39,-63,-9,39,48,48,19,9
9,-58,-68,24,39,-63,-9,39,48,48,19,9
9,-58,-68,24,39,-63,-9,39,48,48,19,9
14,-48,-63,17,39,-56,-9,43,48,53,19,4
19,-39,-58,9,39,-48,-9,48,48,58,19,0
19,-34,-53,7,36,-43,-9,48,53,63,24,0
19,-24,-43,2,31,-34,-4,48,63,68,29,4
19,-14,-34,-2,26,-24,0,53,78,78,39,14
19,4,-14,-12,17,-4,19,58,87,92,43,29
19,9,-9,-14,14,0,24,63,87,97,53,34
14,29,14,-21,0,21,24,63,102,107,58,43
14,39,24,-26,-4,31,-19,58,102,102,63,53
19,48,29,-34,-4,39,-48,43,102,102,68,58
24,58,34,-41,-4,46,-68,43,102,102,68,53
34,68,34,-51,0,51,-87,39,102,107,68,53
34,78,43,-56,-4,61,-92,39,102,107,73,58
39,82,43,-61,-2,63,-92,39,102,107,82,63
39,97,58,-68,-9,78,-97,34,102,112,82,68
39,97,58,-68,-9,78,-97,34,97,112,82,68
39,87,48,-63,-4,68,-92,34,87,107,78,63
39,68,29,-53,4,48,-82,34,78,92,73,63
48,34,-14,-41,31,9,-78,39,63,92,68,63
58,9,-48,-34,53,-19,-73,43,63,87,68,58
63,9,-53,-36,58,-21,-63,48,63,87,68,53
63,4,-58,-34,61,-26,-58,48,63,87,63,48
63,-4,-68,-29,65,-36,-53,53,63,82,53,48
53,-29,-82,-12,68,-56,-48,58,58,73,48,34
34,-43,-78,4,56,-61,-43,48,39,63,34,19
4,-53,-58,24,31,-56,-34,43,39,58,24,9
0,-63,-63,31,31,-63,-34,29,29,48,14,0
0,-73,-73,36,36,-73,-24,19,29,43,4,0
0,-73,-73,36,36,-73,-19,29,29,43,0,0
0,-78,-78,39,39,-78,-19,43,24,39,0,4
4,-87,-92,41,48,-90,-9,43,24,39,4,0
4,-92,-97,43,51,-95,-4,43,24,39,9,0
4,-97,-102,46,53,-100,-4,39,24,39,9,-4
9,-97,-107,43,58,-102,0,34,24,39,4,-4
9,-97,-107,43,58,-102,0,39,29,39,4,-4
4,-97,-102,46,53,-100,0,39,29,39,9,-4
0,-92,-92,46,46,-92,0,39,29,43,9,-9
0,-87,-87,43,43,-87,0,39,29,48,4,-14
0,-87,-87,43,43,-87,4,43,29,48,4,-14
0,-87,-87,43,43,-87,4,43,34,48,9,-14
0,-87,-87,43,43,-87,4,43,34,43,4,-14
0,-87,-87,43,43,-87,4,43,34,39,0,-14
0,-87,-87,43,43,-87,4,43,34,43,0,-14
0,-82,-82,41,41,-82,9,43,34,43,0,-14
-4,-73,-68,39,31,-70,14,53,53,48,4,-9
-14,-53,-39,34,12,-46,43,82,112,78,24,-4
-4,-9,-4,7,0,-7,43,126,214,175,87,34
24,68,43,-46,-9,56,4,151,336,361,229,131
87,224,136,-156,-24,180,-92,175,536,678,483,317
190,375,185,-283,2,280,-234,239,736,1039,780,541
302,483,180,-392,61,331,-336,356,927,1395,1068,761
414,546,131,-480,141,339,-395,546,1102,1673,1298,912
536,570,34,-553,251,302,-409,814,1268,1854,1434,1029
673,463,-209,-568,441,126,-370,1215,1498,1956,1454,1049
863,326,-536,-595,700,-104,-361,1639,1693,2049,1478,1073
932,244,-688,-588,810,-222,-400,1688,1629,1942,1439,1073
771,117,-653,-444,712,-268,-429,927,902,1254,1093,912
478,-112,-590,-183,534,-351,-302,131,0,263,488,536
273,-322,-595,24,434,-458,-112,-185,-483,-390,-9,185
82,-356,-439,136,261,-397,53,-268,-497,-517,-204,4
-92,-326,-234,209,70,-280,195,-370,-512,-575,-322,-122
-175,-244,-68,209,-53,-156,287,-375,-414,-536,-346,-185
-244,-185,58,214,-151,-63,414,-317,-268,-478,-370,-258
-302,-156,146,229,-224,-4,570,-234,-156,-400,-370,-307
-297,-146,151,222,-224,2,649,-161,-82,-312,-326,-297
-278,-146,131,212,-204,-7,668,-146,-122,-312,-326,-287
-268,-161,107,214,-187,-26,653,-180,-214,-351,-326,-283
-268,-204,63,236,-165,-70,653,-224,-317,-385,-331,-278
-253,-263,-9,258,-122,-136,639,-204,-322,-366,-326,-273
-229,-302,-73,265,-78,-187,624,-175,-297,-341,-307,-258
-209,-312,-102,261,-53,-207,678,-170,-283,-331,-292,-248
-185,-292,-107,239,-39,-200,692,-126,-239,-283,-248,-219
-136,-219,-82,178,-26,-151,546,-53,-131,-180,-170,-161
-92,-141,-48,117,-21,-95,331,-9,-53,-107,-122,-117
-63,-87,-24,75,-19,-56,200,-9,-29,-78,-92,-82
-43,-73,-29,58,-7,-51,136,-9,-29,-68,-63,-68
-43,-68,-24,56,-9,-46,122,-9,-14,-53,-48,-63
-43,-63,-19,53,-12,-41,112,0,0,-39,-48,-63
-39,-48,-9,43,-14,-29,78,-9,0,-39,-48,-63
-29,-39,-9,34,-9,-24,39,-14,0,-39,-39,-53
-34,-34,0,34,-17,-17,34,-14,0,-39,-34,-43
-39,-34,4,36,-21,-14,34,-14,4,-29,-29,-39
-39,-24,14,31,-26,-4,29,-9,4,-29,-29,-39
-39,-19,19,29,-29,0,14,-9,9,-24,-24,-34
-29,-19,9,24,-19,-4,14,-14,9,-24,-24,-34
-24,-14,9,19,-17,-2,9,-14,9,-19,-24,-34
-19,-14,4,17,-12,-4,4,-19,9,-19,-29,-29
-19,-9,9,14,-14,0,-4,-19,14,-14,-29,-29
-19,-9,9,14,-14,0,-4,-19,14,-9,-24,-19
-19,-4,14,12,-17,4,-9,-24,14,-9,-19,-9
-19,0,19,9,-19,9,-19,-24,14,-9,-14,-9
-19,9,29,4,-24,19,-24,-24,14,-9,-9,-9
-19,9,29,4,-24,19,-29,-29,9,-4,-4,-9
-19,14,34,2,-26,24,-34,-34,9,-4,0,-4
-19,24,43,-2,-31,34,-34,-34,14,-4,4,0
-19,24,43,-2,-31,34,-43,-39,14,-4,4,0
-24,29,53,-2,-39,41,-43,-43,9,-4,9,4
-29,34,63,-2,-46,48,-43,-48,4,-4,9,4
-29,43,73,-7,-51,58,-43,-48,4,-4,9,9
-29,48,78,-9,-53,63,-48,-53,4,-4,9,4
-29,53,82,-12,-56,68,-58,-58,0,-4,9,4
-34,63,97,-14,-65,80,-73,-68,-4,-9,9,9
-39,73,112,-17,-75,92,-78,-78,-14,-14,14,9
-39,73,112,-17,-75,92,-82,-78,-24,-19,19,9
-39,82,122,-21,-80,102,-92,-92,-29,-19,19,14
-43,92,136,-24,-90,114,-92,-97,-34,-24,19,19
-39,102,141,-31,-90,122,-102,-112,-53,-34,9,24
-39,102,141,-31,-90,122,-112,-126,-68,-43,4,24
-39,112,151,-36,-95,131,-122,-146,-78,-53,-4,24
-39,122,161,-41,-100,141,-126,-156,-92,-63,-4,24
-48,126,175,-39,-112,151,-131,-165,-112,-78,-9,24
-48,136,185,-43,-117,161,-136,-185,-131,-92,-14,24
-53,151,204,-48,-129,178,-146,-204,-156,-117,-19,19
-58,156,214,-48,-136,185,-156,-229,-180,-136,-39,9
-73,156,229,-41,-151,192,-161,-248,-200,-165,-53,4
-87,161,248,-36,-168,204,-165,-268,-214,-195,-58,-4
-92,161,253,-34,-173,207,-170,-297,-258,-224,-82,-14
-102,165,268,-31,-185,217,-170,-322,-302,-258,-102,-29
-107,165,273,-29,-190,219,-175,-336,-331,-287,-126,-39
-117,156,273,-19,-195,214,-175,-370,-370,-331,-151,-58
-136,146,283,-4,-209,214,-175,-395,-409,-366,-180,-73
-165,141,307,12,-236,224,-175,-414,-444,-405,-200,-92
-156,131,287,12,-222,209,-175,-453,-497,-458,-244,-112
-151,117,268,17,-209,192,-170,-483,-531,-507,-287,-136
-161,97,258,31,-209,178,-161,-492,-561,-541,-312,-156
-170,73,244,48,-207,158,-156,-497,-585,-575,-341,-180
-175,53,229,61,-202,141,-141,-497,-610,-600,-366,-200
-175,29,204,73,-190,117,-117,-483,-610,-629,-395,-219
-175,0,175,87,-175,87,-102,-463,-610,-644,-414,-244
-175,-14,161,95,-168,73,-82,-434,-610,-653,-429,-258
-175,-39,136,107,-156,48,-58,-400,-605,-653,-444,-273
-175,-58,117,117,-146,29,-39,-356,-575,-653,-458,-283
-161,-82,78,122,-119,-2,-19,-326,-561,-649,-463,-297
-146,-97,48,122,-97,-24,0,-287,-527,-634,-463,-302
-131,-107,24,119,-78,-41,24,-258,-497,-610,-453,-302
-122,-117,4,119,-63,-56,34,-224,-453,-575,-439,-297
-117,-117,0,117,-58,-58,43,-185,-414,-546,-409,-283
-107,-117,-9,112,-48,-63,53,-151,-366,-502,-385,-273
-97,-122,-24,109,-36,-73,48,-131,-322,-448,-351,-248
-82,-122,-39,102,-21,-80,48,-102,-283,-400,-317,-219
-73,-112,-39,92,-17,-75,48,-78,-239,-351,-287,-200
-58,-107,-48,82,-4,-78,48,-58,-190,-302,-258,-180
-43,-102,-58,73,7,-80,43,-43,-156,-253,-224,-161
-24,-87,-63,56,19,-75,39,-29,-126,-209,-195,-136
-19,-78,-58,48,19,-68,34,-9,-97,-170,-156,-117
-19,-73,-53,46,17,-63,29,14,-68,-131,-126,-92
-4,-68,-63,36,29,-65,29,24,-43,-97,-102,-73
4,-63,-68,29,36,-65,19,29,-24,-68,-73,-58
4,-53,-58,24,31,-56,14,29,-4,-43,-53,-53
4,-43,-48,19,26,-46,9,29,9,-24,-43,-34
14,-43,-58,14,36,-51,4,29,19,-4,-34,-24
14,-39,-53,12,34,-46,0,34,29,14,-14,-19
14,-34,-48,9,31,-41,-4,39,39,24,0,-9
19,-29,-48,4,34,-39,-9,43,48,34,4,-4
19,-19,-39,0,29,-29,-14,48,53,43,9,0
24,-14,-39,-4,31,-26,-14,58,58,53,19,4
24,-9,-34,-7,29,-21,-14,58,63,63,24,9
24,-9,-34,-7,29,-21,-14,58,68,73,24,9
24,0,-24,-12,24,-12,-14,53,73,73,34,9
24,4,-19,-14,21,-7,-14,48,73,78,39,9
24,4,-19,-14,21,-7,-14,43,73,78,39,19
19,9,-9,-14,14,0,-14,43,78,73,39,9
19,9,-9,-14,14,0,-19,43,82,73,43,9
19,9,-9,-14,14,0,-24,43,82,73,43,9
14,4,-9,-9,12,-2,-19,43,82,73,39,9
14,4,-9,-9,12,-2,-19,43,82,73,39,9
9,9,0,-9,4,4,-14,43,82,68,34,4
9,9,0,-9,4,4,-9,39,78,68,34,4
9,9,0,-9,4,4,-9,39,73,58,34,4
9,9,0,-9,4,4,-9,39,73,58,29,0
9,4,-4,-7,7,0,-9,39,73,58,24,0
4,0,-4,-2,4,-2,-9,39,73,58,19,0
0,0,0,0,0,0,-4,39,73,53,19,0
0,0,0,0,0,0,-4,34,63,43,9,0
0,0,0,0,0,0,-4,34,63,43,4,0
0,0,0,0,0,0,-4,34,58,34,4,0
-4,-4,0,4,-2,-2,0,34,58,34,4,-4
-9,-4,4,7,-7,0,0,39,53,29,4,-4
-9,-14,-4,12,-2,-9,0,39,53,29,0,-14
-9,-19,-9,14,0,-14,0,34,53,29,0,-14
-4,-19,-14,12,4,-17,0,34,48,29,-4,-14
0,-19,-19,9,9,-19,0,34,39,29,-9,-19
0,-24,-24,12,12,-24,0,34,34,19,-14,-24
-4,-24,-19,14,7,-21,4,34,34,19,-14,-29
-4,-29,-24,17,9,-26,4,29,29,14,-19,-34
4,-29,-34,12,19,-31,4,29,34,9,-19,-34
4,-29,-34,12,19,-31,0,29,34,9,-19,-29
9,-29,-39,9,24,-34,0,34,39,14,-14,-29
9,-29,-39,9,24,-34,0,34,39,19,-14,-29
9,-29,-39,9,24,-34,0,34,34,19,-9,-29
9,-29,-39,9,24,-34,0,34,34,19,-9,-29
9,-29,-39,9,24,-34,0,34,39,19,-9,-29
9,-29,-39,9,24,-34,-4,34,39,19,-4,-19
9,-29,-39,9,24,-34,-4,34,29,19,-4,-14
4,-29,-34,12,19,-31,-4,34,29,19,-4,-19
4,-34,-39,14,21,-36,-4,34,29,19,-9,-19
9,-34,-43,12,26,-39,-9,29,34,19,0,-19
9,-34,-43,12,26,-39,-9,29,34,19,9,-14
4,-34,-39,14,21,-36,-9,29,29,19,4,-19
4,-34,-39,14,21,-36,-4,29,24,19,-4,-24
4,-34,-39,14,21,-36,-4,29,19,19,-4,-24
4,-34,-39,14,21,-36,-9,29,19,19,-4,-24
4,-34,-39,14,21,-36,-9,29,19,19,-4,-24
0,-34,-34,17,17,-34,-9,29,19,19,0,-24
4,-34,-39,14,21,-36,-9,34,24,24,0,-24
4,-34,-39,14,21,-36,-9,34,29,29,0,-24
4,-34,-39,14,21,-36,-9,34,29,29,4,-19
4,-34,-39,14,21,-36,-14,24,24,29,4,-19
4,-34,-39,14,21,-36,-14,24,24,29,4,-14
4,-34,-39,14,21,-36,-14,29,24,34,4,-4
4,-34,-39,14,21,-36,-14,34,29,34,4,-4
0,-29,-29,14,14,-29,-14,34,29,34,4,-4
0,-29,-29,14,14,-29,-14,34,24,34,4,-4
0,-29,-29,14,14,-29,-14,29,24,34,4,-4
4,-34,-39,14,21,-36,-14,29,24,34,9,-4
9,-34,-43,12,26,-39,-14,29,19,34,9,-4
9,-34,-43,12,26,-39,-14,29,19,34,9,-4
9,-34,-43,12,26,-39,-19,29,19,29,19,-4
9,-34,-43,12,26,-39,-19,29,19,29,9,-9
14,-39,-53,12,34,-46,-19,29,19,34,9,-14
14,-39,-53,12,34,-46,-19,29,19,34,9,-9
14,-39,-53,12,34,-46,-19,29,19,34,9,-9
9,-39,-48,14,29,-43,-19,39,29,34,9,-14
4,-39,-43,17,24,-41,-19,53,39,29,9,-14
4,-39,-43,17,24,-41,-19,43,29,29,9,-9
4,-39,-43,17,24,-41,-19,29,19,29,14,-9
4,-43,-48,19,26,-46,-24,24,19,34,14,-4
4,-43,-48,19,26,-46,-24,24,19,34,14,0
0,-39,-39,19,19,-39,-24,34,19,39,14,0
0,-39,-39,19,19,-39,-24,39,19,43,14,0
0,-39,-39,19,19,-39,-19,39,19,43,14,-4
0,-39,-39,19,19,-39,-19,39,19,43,14,-9
0,-34,-34,17,17,-34,-19,39,19,39,14,-9
0,-29,-29,14,14,-29,-19,39,19,39,19,-9
0,-29,-29,14,14,-29,-19,39,19,39,19,-9
0,-29,-29,14,14,-29,-19,39,19,39,19,-9
4,-34,-39,14,21,-36,-24,39,24,39,19,-9
9,-39,-48,14,29,-43,-29,39,29,39,19,-9
9,-39,-48,14,29,-43,-29,34,29,39,19,-9
9,-39,-48,14,29,-43,-29,29,29,39,19,-9
4,-39,-43,17,24,-41,-29,29,29,39,19,-9
0,-39,-39,19,19,-39,-29,29,29,39,19,-9
0,-39,-39,19,19,-39,-24,29,29,39,19,-9
0,-39,-39,19,19,-39,-19,29,29,39,19,-9
4,-39,-43,17,24,-41,-19,29,24,39,19,-9
9,-39,-48,14,29,-43,-19,29,19,39,19,-9
9,-39,-48,14,29,-43,-19,29,19,39,19,-4
9,-39,-48,14,29,-43,-19,29,19,39,19,0
9,-34,-43,12,26,-39,-19,39,24,43,24,0
9,-29,-39,9,24,-34,-19,48,29,48,29,0
9,-24,-34,7,21,-29,-19,48,34,53,34,0
9,-9,-19,0,14,-14,-14,48,43,58,39,4
14,0,-14,-7,14,-7,-9,48,58,63,48,9
19,24,4,-21,7,14,9,48,68,73,53,19
24,34,9,-29,7,21,9,53,68,78,58,19
24,58,34,-41,-4,46,4,53,82,87,58,24
24,68,43,-46,-9,56,-39,48,82,87,63,29
29,78,48,-53,-9,63,-68,34,82,92,68,29
34,87,53,-61,-9,70,-82,34,82,92,68,29
43,97,53,-70,-4,75,-97,29,82,97,68,34
39,102,63,-70,-12,82,-102,29,78,92,73,39
39,102,63,-70,-12,82,-102,29,73,87,82,43
39,117,78,-78,-19,97,-107,24,73,92,82,43
39,117,78,-78,-19,97,-107,24,68,92,82,39
39,112,73,-75,-17,92,-102,29,63,87,78,34
39,97,58,-68,-9,78,-92,34,58,73,73,34
48,63,14,-56,17,39,-87,39,43,73,68,43
58,39,-19,-48,39,9,-82,43,43,68,68,48
58,34,-24,-46,41,4,-78,43,43,68,68,43
53,24,-29,-39,41,-2,-78,39,43,68,63,39
58,14,-43,-36,51,-14,-68,39,43,63,53,39
53,-9,-63,-21,58,-36,-58,39,39,53,48,24
43,-24,-68,-9,56,-46,-48,29,19,43,34,14
24,-34,-58,4,41,-46,-34,24,19,39,24,9
14,-43,-58,14,36,-51,-34,24,9,34,19,0
9,-53,-63,21,36,-58,-24,29,9,34,14,0
9,-58,-68,24,39,-63,-19,29,9,34,9,-4
9,-68,-78,29,43,-73,-19,34,4,29,9,-4
9,-73,-82,31,46,-78,-14,34,4,29,9,-9
4,-73,-78,34,41,-75,-14,34,4,29,9,-9
4,-78,-82,36,43,-80,-14,34,4,29,9,-14
9,-78,-87,34,48,-82,-9,34,4,29,4,-14
9,-73,-82,31,46,-78,-9,39,9,29,0,-14
4,-68,-73,31,39,-70,-9,39,9,29,0,-14
0,-68,-68,34,34,-68,-4,34,9,29,0,-14
0,-68,-68,34,34,-68,0,29,9,29,-4,-14
0,-68,-68,34,34,-68,4,34,9,29,-4,-14
0,-68,-68,34,34,-68,4,34,14,29,0,-14
0,-68,-68,34,34,-68,4,34,14,29,0,-14
0,-68,-68,34,34,-68,4,34,14,29,0,-14
0,-68,-68,34,34,-68,4,34,14,34,0,-19
0,-63,-63,31,31,-63,9,34,14,34,0,-24
-9,-58,-48,34,19,-53,14,34,19,24,-4,-24
-24,-43,-19,34,-2,-31,43,53,63,39,4,-24
-14,-9,4,12,-9,-2,48,112,161,112,48,0
14,58,43,-36,-14,51,14,151,278,273,170,82
78,209,131,-143,-26,170,-82,165,473,575,424,258
180,356,175,-268,2,265,-224,219,668,922,722,473
292,473,180,-383,56,326,-336,326,849,1283,1005,707
405,546,141,-475,131,344,-405,507,1015,1566,1229,873
527,585,58,-556,234,322,-419,761,1156,1747,1376,990
663,492,-170,-578,417,161,-380,1146,1361,1849,1405,1010
878,356,-522,-617,700,-82,-366,1688,1639,2000,1454,1049
971,273,-697,-622,834,-212,-400,1854,1659,1952,1439,1063
829,161,-668,-495,749,-253,-448,1044,976,1317,1127,927
556,-53,-610,-251,583,-331,-341,200,117,380,556,575
336,-287,-624,-24,480,-456,-141,-141,-409,-326,34,209
131,-346,-478,107,305,-412,34,-248,-468,-507,-185,14
-58,-322,-263,190,102,-292,180,-366,-492,-566,-302,-112
-156,-244,-87,200,-34,-165,278,-385,-405,-527,-326,-175
-234,-185,48,209,-141,-68,409,-326,-258,-473,-356,-248
-302,-156,146,229,-224,-4,570,-244,-146,-400,-361,-297
-302,-146,156,224,-229,4,658,-175,-78,-312,-317,-292
-287,-146,141,217,-214,-2,688,-165,-122,-312,-317,-287
-278,-161,117,219,-197,-21,673,-200,-214,-351,-317,-292
-278,-204,73,241,-175,-65,673,-244,-317,-385,-322,-297
-263,-263,0,263,-131,-131,658,-219,-326,-366,-322,-292
-239,-302,-63,270,-87,-183,644,-185,-307,-341,-307,-278
-219,-317,-97,268,-61,-207,707,-190,-292,-336,-292,-263
-195,-302,-107,248,-43,-204,732,-156,-248,-292,-248,-229
-146,-229,-82,187,-31,-156,575,-78,-141,-190,-170,-170
-102,-151,-48,126,-26,-100,351,-29,-63,-117,-122,-126
-73,-92,-19,82,-26,-56,209,-29,-34,-87,-92,-92
-53,-73,-19,63,-17,-46,136,-29,-29,-78,-63,-78
-53,-63,-9,58,-21,-36,122,-19,-14,-58,-48,-68
-53,-53,0,53,-26,-26,112,0,0,-39,-48,-63
-48,-39,9,43,-29,-14,78,-9,0,-39,-48,-68
-39,-29,9,34,-24,-9,39,-14,0,-39,-39,-63
-39,-24,14,31,-26,-4,34,-19,0,-39,-34,-53
-39,-24,14,31,-26,-4,34,-24,4,-29,-29,-48
-39,-9,29,24,-34,9,24,-19,4,-29,-29,-48
-39,0,39,19,-39,19,4,-19,9,-24,-24,-43
-34,0,34,17,-34,17,4,-24,9,-24,-24,-43
-34,4,39,14,-36,21,0,-24,9,-19,-24,-43
-24,4,29,9,-26,17,-4,-29,9,-19,-24,-34
-19,9,29,4,-24,19,-14,-29,14,-14,-19,-29
-19,9,29,4,-24,19,-14,-29,14,-4,-14,-24
-19,14,34,2,-26,24,-19,-34,14,0,-9,-19
-24,14,39,4,-31,26,-24,-34,14,0,-9,-19
-29,19,48,4,-39,34,-24,-34,14,0,-9,-19
-29,19,48,4,-39,34,-29,-39,9,4,-4,-24
-29,24,53,2,-41,39,-34,-43,9,4,0,-24
-29,34,63,-2,-46,48,-34,-43,14,4,4,-19
-29,34,63,-2,-46,48,-43,-48,14,4,4,-19
-29,39,68,-4,-48,53,-48,-53,9,4,9,-14
-29,43,73,-7,-51,58,-53,-58,4,4,9,-14
-29,53,82,-12,-56,68,-53,-58,4,0,9,-4
-29,58,87,-14,-58,73,-58,-63,4,-4,9,-4
-29,63,92,-17,-61,78,-63,-68,0,-4,9,-4
-34,73,107,-19,-70,90,-73,-78,-4,-9,9,0
-34,82,117,-24,-75,100,-78,-87,-14,-14,14,0
-29,82,112,-26,-70,97,-82,-87,-24,-19,19,0
-29,97,126,-34,-78,112,-92,-102,-24,-14,24,4
-34,112,146,-39,-90,129,-92,-107,-24,-14,29,9
-34,122,156,-43,-95,139,-102,-117,-39,-24,24,14
-39,122,161,-41,-100,141,-112,-126,-48,-34,24,14
-39,131,170,-46,-104,151,-122,-151,-58,-43,14,14
-39,141,180,-51,-109,161,-126,-165,-73,-53,14,14
-48,146,195,-48,-122,170,-131,-175,-82,-68,9,19
-48,156,204,-53,-126,180,-136,-195,-92,-82,4,24
-53,165,219,-56,-136,192,-146,-214,-126,-107,0,19
-58,165,224,-53,-141,195,-156,-239,-161,-126,-19,9
-63,170,234,-53,-148,202,-161,-263,-190,-156,-39,4
-68,180,248,-56,-158,214,-165,-287,-214,-185,-48,-4
-73,180,253,-53,-163,217,-170,-312,-244,-209,-73,-14
-82,185,268,-51,-175,226,-170,-331,-273,-239,-92,-29
-87,180,268,-46,-178,224,-175,-346,-302,-268,-117,-39
-97,165,263,-34,-180,214,-175,-380,-341,-312,-141,-58
-107,156,263,-24,-185,209,-180,-405,-380,-346,-170,-73
-126,151,278,-12,-202,214,-185,-424,-414,-385,-190,-92
-136,141,278,-2,-207,209,-185,-458,-468,-434,-229,-112
-151,126,278,12,-214,202,-180,-483,-502,-478,-268,-136
-161,112,273,24,-217,192,-170,-497,-527,-512,-292,-156
-170,92,263,39,-217,178,-165,-507,-546,-546,-322,-180
-175,73,248,51,-212,161,-151,-512,-575,-575,-346,-200
-175,48,224,63,-200,136,-126,-502,-580,-610,-375,-219
-175,19,195,78,-185,107,-112,-483,-580,-624,-395,-244
-175,4,180,85,-178,92,-92,-453,-580,-634,-409,-258
-175,-19,156,97,-165,68,-68,-424,-585,-639,-424,-278
-175,-39,136,107,-156,48,-48,-385,-566,-644,-439,-292
-165,-63,102,114,-134,19,-29,-356,-551,-644,-444,-302
-156,-78,78,117,-117,0,-9,-317,-517,-634,-444,-302
-141,-92,48,117,-95,-21,14,-287,-492,-614,-444,-307
-131,-107,24,119,-78,-41,24,-253,-453,-585,-439,-307
-122,-107,14,114,-68,-46,34,-209,-414,-556,-409,-297
-107,-107,0,107,-53,-53,43,-170,-366,-512,-385,-292
-97,-112,-14,104,-41,-63,43,-151,-326,-458,-356,-268
-82,-112,-29,97,-26,-70,48,-122,-292,-409,-326,-239
-73,-102,-29,87,-21,-65,48,-102,-253,-366,-292,-219
-58,-97,-39,78,-9,-68,48,-87,-209,-322,-258,-200
-48,-97,-48,73,0,-73,43,-73,-175,-273,-229,-180
-34,-87,-53,61,9,-70,39,-58,-146,-229,-204,-156
-24,-78,-53,51,14,-65,34,-34,-107,-190,-165,-136
-19,-73,-53,46,17,-63,29,-4,-68,-151,-136,-112
-4,-63,-58,34,26,-61,24,4,-43,-117,-117,-92
4,-53,-58,24,31,-56,9,9,-24,-87,-92,-78
4,-43,-48,19,26,-46,4,14,-4,-63,-73,-73
4,-34,-39,14,21,-36,0,19,9,-43,-63,-53
14,-29,-43,7,29,-36,-4,19,19,-24,-53,-43
14,-19,-34,2,24,-26,-9,24,29,-4,-34,-39
19,-14,-34,-2,26,-24,-9,29,39,9,-14,-29
29,-9,-39,-9,34,-24,-9,34,48,24,-4,-24
29,-4,-34,-12,31,-19,-14,39,58,39,0,-19
34,-4,-39,-14,36,-21,-14,48,68,53,9,-14
34,0,-34,-17,34,-17,-14,48,73,58,19,-9
34,0,-34,-17,34,-17,-14,48,78,63,24,-9
29,4,-24,-17,26,-9,-14,53,82,63,29,-4
24,4,-19,-14,21,-7,-14,58,82,68,29,0
24,4,-19,-14,21,-7,-14,53,78,68,29,9
19,9,-9,-14,14,0,-14,53,78,63,29,0
19,9,-9,-14,14,0,-14,53,82,63,34,0
19,9,-9,-14,14,0,-14,53,82,63,34,0
14,4,-9,-9,12,-2,-4,53,87,68,34,0
14,4,-9,-9,12,-2,0,53,92,73,39,0
9,9,0,-9,4,4,0,53,92,68,34,-4
9,9,0,-9,4,4,0,48,87,68,34,-4
9,9,0,-9,4,4,0,48,82,58,29,-4
9,9,0,-9,4,4,0,48,82,58,19,-9
9,4,-4,-7,7,0,0,43,82,53,14,-9
4,0,-4,-2,4,-2,0,39,82,48,9,-9
0,0,0,0,0,0,0,39,82,43,9,-14
0,0,0,0,0,0,-4,34,73,34,0,-19
0,4,4,-2,-2,4,-4,34,73,34,-4,-19
0,9,9,-4,-4,9,-4,34,68,24,-4,-19
0,4,4,-2,-2,4,0,34,63,24,-9,-24
0,4,4,-2,-2,4,0,39,53,19,-14,-24
0,-9,-9,4,4,-9,0,39,53,19,-19,-34
0,-19,-19,9,9,-19,0,34,53,19,-19,-34
0,-24,-24,12,12,-24,4,39,53,19,-19,-34
0,-29,-29,14,14,-29,9,43,48,19,-19,-39
0,-34,-34,17,17,-34,9,43,43,9,-24,-43
-4,-34,-29,19,12,-31,14,43,43,9,-24,-48
-4,-39,-34,21,14,-36,14,34,34,4,-29,-53
4,-39,-43,17,24,-41,14,29,34,0,-29,-53
0,-39,-39,19,19,-39,9,29,34,0,-29,-48
0,-39,-39,19,19,-39,9,34,39,4,-24,-48
0,-39,-39,19,19,-39,9,34,39,9,-34,-48
0,-39,-39,19,19,-39,9,34,34,9,-39,-48
0,-39,-39,19,19,-39,9,34,34,9,-39,-48
0,-39,-39,19,19,-39,9,34,39,9,-39,-48
0,-34,-34,17,17,-34,4,34,43,9,-29,-43
0,-29,-29,14,14,-29,4,34,39,9,-24,-43
0,-29,-29,14,14,-29,4,34,39,9,-24,-48
4,-34,-39,14,21,-36,4,34,39,9,-29,-48
19,-34,-53,7,36,-43,0,29,43,9,-29,-48
29,-34,-63,2,46,-48,0,29,43,9,-29,-43
14,-34,-48,9,31,-41,0,43,43,14,-24,-43
4,-34,-39,14,21,-36,4,58,43,19,-24,-43
4,-39,-43,17,24,-41,4,43,34,14,-24,-43
4,-43,-48,19,26,-46,0,29,29,9,-24,-43
9,-48,-58,19,34,-53,0,29,29,9,-29,-43
9,-53,-63,21,36,-58,0,29,29,9,-29,-43
14,-53,-68,19,41,-61,0,34,34,9,-29,-43
14,-53,-68,19,41,-61,0,34,39,9,-29,-43
14,-53,-68,19,41,-61,0,34,39,9,-24,-39
14,-53,-68,19,41,-61,-4,24,34,9,-24,-39
14,-53,-68,19,41,-61,-4,29,34,14,-19,-34
14,-53,-68,19,41,-61,-4,39,34,24,-14,-24
14,-53,-68,19,41,-61,-4,43,39,24,-14,-24
9,-48,-58,19,34,-53,-4,43,39,24,-14,-24
9,-43,-53,17,31,-48,-4,43,34,24,-14,-24
9,-39,-48,14,29,-43,-4,39,34,24,-14,-24
9,-43,-53,17,31,-48,-4,39,39,29,-14,-24
9,-43,-53,17,31,-48,-4,39,39,34,-19,-24
9,-48,-58,19,34,-53,-4,39,39,34,-19,-29
9,-53,-63,21,36,-58,-9,39,39,29,-9,-34
9,-48,-58,19,34,-53,-9,39,39,29,-14,-34
14,-48,-63,17,39,-56,-9,39,39,34,-9,-34
14,-43,-58,14,36,-51,-9,29,39,24,-9,-29
14,-39,-53,12,34,-46,-9,19,39,14,-9,-29
14,-39,-53,12,34,-46,-9,19,39,24,-9,-34
14,-39,-53,12,34,-46,-9,24,39,29,-9,-34
14,-39,-53,12,34,-46,-9,24,39,29,-9,-29
14,-39,-53,12,34,-46,-9,19,39,29,-4,-29
14,-43,-58,14,36,-51,-9,19,39,34,-4,-29
14,-43,-58,14,36,-51,-4,24,39,34,-4,-29
4,-48,-53,21,29,-51,-4,29,39,29,-4,-29
0,-58,-58,29,29,-58,-4,29,39,24,-4,-29
0,-58,-58,29,29,-58,0,29,39,24,-4,-29
0,-58,-58,29,29,-58,0,29,39,24,-4,-29
4,-53,-58,24,31,-56,-4,29,39,19,0,-29
9,-48,-58,19,34,-53,-9,29,39,19,0,-29
9,-48,-58,19,34,-53,-9,29,39,19,0,-29
9,-48,-58,19,34,-53,-9,29,39,19,0,-29
9,-48,-58,19,34,-53,-9,29,39,29,4,-29
9,-48,-58,19,34,-53,-9,29,39,39,9,-29
14,-48,-63,17,39,-56,-9,24,39,39,9,-29
19,-48,-68,14,43,-58,-9,19,39,39,9,-29
19,-48,-68,14,43,-58,-9,19,39,39,9,-29
19,-48,-68,14,43,-58,-9,19,39,39,9,-29
14,-48,-63,17,39,-56,-9,24,39,39,9,-29
9,-48,-58,19,34,-53,-9,29,39,39,9,-29
9,-48,-58,19,34,-53,-9,34,39,39,9,-29
9,-48,-58,19,34,-53,-9,39,39,39,9,-29
9,-48,-58,19,34,-53,-9,39,39,34,9,-29
9,-48,-58,19,34,-53,-9,39,39,29,9,-29
9,-48,-58,19,34,-53,-9,34,39,29,9,-29
9,-48,-58,19,34,-53,-9,29,39,29,9,-29
9,-48,-58,19,34,-53,-9,29,43,29,9,-29
9,-48,-58,19,34,-53,-9,29,48,29,9,-29
9,-43,-53,17,31,-48,-9,29,48,34,14,-29
9,-39,-48,14,29,-43,-9,29,48,39,19,-29
14,-34,-48,9,31,-41,-4,29,48,43,19,-24
14,-24,-39,4,26,-31,0,29,58,48,24,-14
19,-14,-34,-2,26,-24,9,34,68,58,29,-9
19,4,-14,-12,17,-4,29,39,78,73,34,0
24,14,-9,-19,17,2,29,43,78,78,43,0
24,39,14,-31,4,26,24,43,92,87,48,4
19,48,29,-34,-4,39,-19,43,92,87,53,14
19,58,39,-39,-9,48,-48,34,92,92,58,19
24,63,39,-43,-7,51,-63,34,92,87,58,19
34,68,34,-51,0,51,-78,29,92,87,58,24
34,78,43,-56,-4,61,-82,24,92,87,63,29
39,82,43,-61,-2,63,-82,19,92,87,73,34
39,97,58,-68,-9,78,-87,14,92,97,73,39
39,97,58,-68,-9,78,-87,14,87,102,73,39
43,92,48,-68,-2,70,-92,14,78,97,68,34
48,78,29,-63,9,53,-92,14,68,82,63,34
58,43,-14,-51,36,14,-87,24,53,78,53,34
68,19,-48,-43,58,-14,-82,34,53,68,48,29
63,14,-48,-39,56,-17,-68,39,53,68,48,19
53,4,-48,-29,51,-21,-58,39,53,68,43,9
48,-9,-58,-19,53,-34,-48,48,53,63,34,9
34,-39,-73,2,53,-56,-39,58,48,53,29,-4
24,-53,-78,14,51,-65,-34,39,29,43,14,-14
4,-63,-68,29,36,-65,-24,24,29,39,4,-19
4,-73,-78,34,41,-75,-24,19,19,34,0,-29
9,-82,-92,36,51,-87,-14,19,19,34,-4,-29
9,-82,-92,36,51,-87,-9,19,19,34,-9,-34
9,-87,-97,39,53,-92,-9,24,14,29,-9,-34
9,-92,-102,41,56,-97,-4,24,14,29,-4,-34
4,-92,-97,43,51,-95,-4,24,14,29,0,-29
9,-97,-107,43,58,-102,-4,24,19,29,0,-34
19,-97,-117,39,68,-107,0,24,24,29,-4,-34
19,-97,-117,39,68,-107,0,34,29,29,-9,-34
14,-97,-112,41,63,-104,0,39,29,29,-9,-34
9,-97,-107,43,58,-102,4,39,29,29,-9,-34
9,-97,-107,43,58,-102,9,39,29,29,-14,-34
4,-97,-102,46,53,-100,14,43,29,29,-9,-24
0,-97,-97,48,48,-97,14,43,34,29,0,-14
0,-92,-92,46,46,-92,9,34,29,29,0,-24
0,-87,-87,43,43,-87,4,24,24,29,0,-34
0,-87,-87,43,43,-87,4,24,24,34,0,-34
0,-82,-82,41,41,-82,9,24,24,34,0,-34
-4,-78,-73,41,34,-75,14,43,48,43,0,-34
-14,-63,-48,39,17,-56,43,82,112,78,14,-34
4,-19,-24,7,14,-21,43,126,219,180,78,4
43,58,14,-51,14,36,4,151,346,370,219,102
107,204,97,-156,4,151,-87,204,551,683,473,287
209,346,136,-278,36,241,-224,297,756,1039,771,512
326,439,112,-383,107,275,-326,429,927,1371,1034,732
444,488,43,-466,200,265,-385,634,1083,1625,1239,883
566,507,-58,-536,312,224,-400,907,1229,1790,1371,990
702,395,-307,-549,505,43,-361,1312,1439,1878,1385,1000
888,258,-629,-573,758,-185,-366,1649,1576,1917,1395,1024
951,175,-775,-563,863,-300,-419,1610,1454,1756,1342,1024
785,82,-702,-434,744,-309,-448,849,790,1117,1015,868
488,-112,-600,-187,544,-356,-322,53,-48,175,429,497
278,-302,-580,12,429,-441,-131,-239,-468,-419,-39,161
82,-317,-400,117,241,-358,34,-297,-419,-488,-204,-4
-92,-292,-200,192,53,-246,180,-370,-429,-531,-307,-126
-175,-214,-39,195,-68,-126,278,-346,-326,-478,-317,-185
-239,-165,73,202,-156,-46,409,-287,-195,-434,-351,-258
-292,-146,146,219,-219,0,570,-204,-97,-370,-361,-307
-292,-146,146,219,-219,0,649,-151,-43,-292,-322,-302
-278,-156,122,217,-200,-17,668,-156,-102,-302,-326,-297
-268,-175,92,222,-180,-41,653,-190,-195,-341,-326,-297
-268,-224,43,246,-156,-90,653,-234,-297,-375,-331,-297
-253,-283,-29,268,-112,-156,639,-209,-312,-356,-331,-292
-229,-322,-92,275,-68,-207,624,-175,-297,-331,-317,-278
-209,-336,-126,273,-41,-231,688,-180,-283,-326,-302,-268
-185,-322,-136,253,-24,-229,712,-146,-239,-283,-258,-239
-136,-248,-112,192,-12,-180,570,-68,-131,-180,-180,-180
-92,-170,-78,131,-7,-124,361,-19,-53,-107,-131,-136
-63,-107,-43,85,-9,-75,219,-14,-24,-78,-102,-102
-43,-82,-39,63,-2,-61,146,-9,-19,-68,-73,-87
-43,-78,-34,61,-4,-56,131,-9,-4,-53,-63,-78
-43,-73,-29,58,-7,-51,122,0,9,-39,-68,-73
-39,-53,-14,46,-12,-34,87,-9,9,-39,-68,-73
-29,-39,-9,34,-9,-24,48,-14,9,-39,-58,-63
-29,-34,-4,31,-12,-19,43,-14,9,-39,-53,-53
-29,-34,-4,31,-12,-19,43,-14,14,-29,-48,-48
-29,-24,4,26,-17,-9,34,-9,14,-29,-48,-53
-29,-19,9,24,-19,-4,14,-9,19,-24,-43,-53
-24,-24,0,24,-12,-12,14,-14,19,-24,-43,-53
-24,-24,0,24,-12,-12,9,-14,19,-19,-43,-53
-19,-24,-4,21,-7,-14,4,-19,19,-19,-43,-43
-19,-19,0,19,-9,-9,-4,-19,24,-14,-39,-39
-19,-19,0,19,-9,-9,-4,-19,19,-9,-34,-34
-19,-14,4,17,-12,-4,-9,-24,14,-9,-29,-29
-19,-9,9,14,-14,0,-14,-24,14,-9,-24,-29
-19,0,19,9,-19,9,-14,-24,14,-9,-19,-29
-19,0,19,9,-19,9,-19,-29,9,0,-14,-29
-19,4,24,7,-21,14,-24,-34,9,4,-9,-24
-29,14,43,7,-36,29,-24,-34,14,4,-4,-19
-39,14,53,12,-46,34,-34,-39,14,4,-4,-19
-29,24,53,2,-41,39,-43,-43,9,0,0,-14
-19,34,53,-7,-36,43,-53,-48,4,-4,0,-14
-19,43,63,-12,-41,53,-53,-58,4,-4,0,-4
-19,48,68,-14,-43,58,-58,-73,4,-4,0,-4
-24,48,73,-12,-48,61,-58,-68,0,-9,-4,-4
-34,53,87,-9,-61,70,-63,-68,-4,-19,-9,0
-34,63,97,-14,-65,80,-68,-78,-14,-24,-9,0
-29,63,92,-17,-61,78,-73,-78,-24,-29,-9,0
-29,73,102,-21,-65,87,-82,-92,-29,-24,0,9
-34,82,117,-24,-75,100,-82,-97,-34,-24,9,19
-34,92,126,-29,-80,109,-92,-107,-48,-34,4,24
-39,92,131,-26,-85,112,-102,-117,-58,-43,4,24
-39,102,141,-31,-90,122,-112,-136,-68,-53,-4,24
-39,112,151,-36,-95,131,-117,-146,-82,-63,-4,24
-48,117,165,-34,-107,141,-122,-151,-102,-78,-9,19
-48,126,175,-39,-112,151,-126,-165,-122,-92,-14,14
-53,141,195,-43,-124,168,-136,-185,-146,-117,-24,4
-58,146,204,-43,-131,175,-146,-209,-170,-136,-48,-9
-68,146,214,-39,-141,180,-151,-229,-200,-165,-68,-14
-78,151,229,-36,-153,190,-156,-248,-224,-195,-78,-24
-82,151,234,-34,-158,192,-161,-273,-258,-224,-102,-29
-92,156,248,-31,-170,202,-161,-292,-292,-258,-122,-39
-92,161,253,-34,-173,207,-165,-312,-326,-287,-146,-48
-97,156,253,-29,-175,204,-165,-351,-370,-331,-170,-68
-107,146,253,-19,-180,200,-165,-375,-409,-366,-200,-82
-126,141,268,-7,-197,204,-165,-395,-444,-405,-219,-102
-126,126,253,0,-190,190,-165,-414,-492,-453,-258,-122
-131,107,239,12,-185,173,-161,-424,-522,-497,-297,-146
-146,92,239,26,-192,165,-151,-434,-546,-531,-322,-161
-161,73,234,43,-197,153,-146,-439,-566,-566,-351,-180
-165,58,224,53,-195,141,-131,-448,-590,-590,-375,-200
-165,39,204,63,-185,122,-107,-444,-590,-619,-405,-219
-165,14,180,75,-173,97,-92,-424,-590,-639,-424,-248
-165,4,170,80,-168,87,-73,-395,-590,-653,-439,-268
-165,-19,146,92,-156,63,-48,-366,-585,-653,-458,-292
-165,-39,126,102,-146,43,-29,-326,-556,-653,-478,-312
-156,-68,87,112,-122,9,-9,-297,-546,-653,-488,-322
-146,-87,58,117,-102,-14,9,-258,-517,-644,-492,-322
-131,-107,24,119,-78,-41,29,-224,-488,-619,-483,-317
-122,-126,-4,124,-58,-65,34,-185,-444,-585,-468,-307
-112,-117,-4,114,-53,-61,39,-146,-405,-551,-429,-283
-97,-107,-9,102,-43,-58,43,-112,-356,-502,-395,-263
-87,-112,-24,100,-31,-68,43,-97,-307,-448,-361,-248
-73,-112,-39,92,-17,-75,48,-73,-263,-400,-326,-229
-63,-102,-39,82,-12,-70,48,-53,-224,-351,-292,-209
-48,-97,-48,73,0,-73,48,-39,-180,-302,-258,-190
-39,-97,-58,68,9,-78,43,-24,-146,-258,-234,-170
-24,-87,-63,56,19,-75,39,-9,-117,-219,-214,-146
-19,-78,-58,48,19,-68,34,0,-87,-180,-175,-126
-19,-73,-53,46,17,-63,29,14,-58,-141,-146,-102
-4,-63,-58,34,26,-61,29,24,-29,-97,-117,-78
4,-53,-58,24,31,-56,19,29,-4,-58,-82,-58
4,-43,-48,19,26,-46,14,39,14,-34,-63,-53
4,-34,-39,14,21,-36,9,48,29,-14,-53,-34
14,-29,-43,7,29,-36,4,48,39,9,-43,-24
14,-19,-34,2,24,-26,0,53,48,34,-24,-19
14,-14,-29,0,21,-21,0,58,63,43,-9,-14
19,-9,-29,-4,24,-19,0,63,78,53,-4,-14
19,-4,-24,-7,21,-14,-4,63,82,63,0,-9
24,-4,-29,-9,26,-17,-4,68,87,73,9,-4
24,0,-24,-12,24,-12,-4,63,92,78,14,0
24,0,-24,-12,24,-12,-4,58,97,82,14,0
19,4,-14,-12,17,-4,-9,58,102,82,19,0
14,4,-9,-9,12,-2,-14,58,102,87,19,0
14,4,-9,-9,12,-2,-14,53,92,87,19,19
9,9,0,-9,4,4,-14,53,87,82,19,19
9,14,4,-12,2,9,-14,48,92,82,24,19
9,19,9,-14,0,14,-14,43,92,82,24,19
9,14,4,-12,2,9,-9,43,92,78,19,14
14,14,0,-14,7,7,-9,43,92,73,19,9
9,19,9,-14,0,14,-9,43,92,68,4,0
9,19,9,-14,0,14,-9,39,87,68,-4,-4
9,19,9,-14,0,14,-4,43,82,63,-4,-4
9,19,9,-14,0,14,0,48,82,68,-9,-9
9,14,4,-12,2,9,0,48,82,68,-4,0
4,9,4,-7,0,7,0,48,82,68,0,9
0,14,14,-7,-7,14,4,53,82,63,0,4
0,19,19,-9,-9,19,4,53,73,53,-9,0
0,19,19,-9,-9,19,0,53,73,48,-24,-9
0,19,19,-9,-9,19,-4,53,68,34,-34,-19
0,14,14,-7,-7,14,0,53,68,34,-39,-24
0,14,14,-7,-7,14,0,58,63,29,-43,-24
0,4,4,-2,-2,4,0,58,63,29,-48,-34
0,0,0,0,0,0,0,53,63,29,-48,-34
0,0,0,0,0,0,0,48,63,29,-53,-34
0,0,0,0,0,0,0,43,58,29,-58,-39
0,-9,-9,4,4,-9,0,43,53,19,-63,-39
-4,-14,-9,9,2,-12,4,43,53,19,-63,-39
-9,-19,-9,14,0,-14,4,39,43,14,-58,-43
-4,-19,-14,12,4,-17,4,39,43,9,-48,-43
-4,-14,-9,9,2,-12,0,39,43,9,-48,-39
0,-9,-9,4,4,-9,0,43,48,14,-43,-39
0,-9,-9,4,4,-9,0,48,48,19,-43,-29
0,-9,-9,4,4,-9,0,53,43,19,-39,-19
0,-9,-9,4,4,-9,0,53,43,19,-39,-19
0,-9,-9,4,4,-9,0,53,48,19,-39,-19
0,-9,-9,4,4,-9,-4,53,48,19,-43,-14
0,-9,-9,4,4,-9,-4,53,39,19,-53,-14
-4,-9,-4,7,0,-7,-4,53,39,19,-43,-19
-4,-14,-9,9,2,-12,-4,53,39,19,-39,-19
0,-14,-14,7,7,-14,-9,48,43,19,-39,-24
0,-14,-14,7,7,-14,-9,48,43,19,-39,-24
-4,-14,-9,9,2,-12,-9,43,43,19,-34,-24
-4,-14,-9,9,2,-12,-4,39,43,19,-34,-24
-4,-14,-9,9,2,-12,-4,34,34,19,-34,-24
-4,-14,-9,9,2,-12,-9,29,29,19,-34,-24
0,-9,-9,4,4,-9,-9,29,29,19,-34,-24
0,-4,-4,2,2,-4,-9,29,29,19,-29,-24
4,-4,-9,0,7,-7,-9,39,34,29,-29,-24
4,-4,-9,0,7,-7,-9,43,39,39,-29,-24
4,-4,-9,0,7,-7,-9,48,39,39,-24,-19
4,-4,-9,0,7,-7,-14,43,34,39,-24,-19
4,0,-4,-2,4,-2,-19,43,34,39,-24,-19
4,4,0,-4,2,2,-24,48,34,43,-24,-14
4,4,0,-4,2,2,-24,43,39,39,-24,-14
0,9,9,-4,-4,9,-24,34,39,34,-24,-14
0,9,9,-4,-4,9,-24,34,34,34,-24,-14
0,9,9,-4,-4,9,-24,29,34,34,-24,-14
4,0,-4,-2,4,-2,-24,39,39,39,-19,-14
9,-4,-14,-2,12,-9,-24,48,39,43,-19,-14
9,-9,-19,0,14,-14,-19,48,39,43,-19,-9
9,-14,-24,2,17,-19,-19,48,39,39,-9,-4
9,-9,-19,0,14,-14,-19,39,34,39,-14,-4
14,-9,-24,-2,19,-17,-19,29,29,43,-9,-4
9,-9,-19,0,14,-14,-19,43,29,48,-9,0
4,-9,-14,2,9,-12,-19,58,29,53,-9,0
4,-9,-14,2,9,-12,-19,43,29,53,-9,-4
4,-9,-14,2,9,-12,-19,34,29,48,-9,-4
9,-9,-19,0,14,-14,-19,43,29,48,-9,-4
14,-9,-24,-2,19,-17,-19,48,29,48,-4,-9
14,-9,-24,-2,19,-17,-24,43,29,53,-4,-9
14,-4,-19,-4,17,-12,-24,43,29,53,-4,-9
9,0,-9,-4,9,-4,-24,43,29,53,-9,-4
9,0,-9,-4,9,-4,-24,39,29,53,-14,0
9,-4,-14,-2,12,-9,-19,39,29,43,-14,0
9,-9,-19,0,14,-14,-19,39,29,34,-14,0
9,-14,-24,2,17,-19,-19,39,29,39,-9,0
9,-19,-29,4,19,-24,-19,39,29,48,-9,0
9,-19,-29,4,19,-24,-19,39,29,53,0,4
9,-19,-29,4,19,-24,-19,39,29,58,9,9
9,-14,-24,2,17,-19,-19,39,29,58,9,9
9,-9,-19,0,14,-14,-19,39,29,58,9,9
9,-9,-19,0,14,-14,-19,39,29,58,9,4
9,-9,-19,0,14,-14,-19,39,29,58,9,0
9,-9,-19,0,14,-14,-19,43,34,58,9,0
9,-9,-19,0,14,-14,-19,48,39,58,9,0
9,-4,-14,-2,12,-9,-19,48,43,63,14,4
9,0,-9,-4,9,-4,-19,48,48,68,19,9
9,14,4,-12,2,9,-19,48,48,73,19,9
9,24,14,-17,-2,19,-14,53,58,73,19,9
9,34,24,-21,-7,29,-9,63,68,78,24,14
9,43,34,-26,-12,39,9,78,78,82,24,19
14,53,39,-34,-12,46,9,63,73,87,34,19
14,78,63,-46,-24,70,4,43,82,97,39,24
19,87,68,-53,-24,78,-39,48,82,97,48,34
29,97,68,-63,-19,82,-68,43,82,102,58,39
34,112,78,-73,-21,95,-82,43,82,102,63,43
43,126,82,-85,-19,104,-97,39,82,107,68,53
43,136,92,-90,-24,114,-102,39,82,107,73,58
48,141,92,-95,-21,117,-102,39,82,107,82,63
48,156,107,-102,-29,131,-107,34,87,112,82,68
48,156,107,-102,-29,131,-107,34,87,112,82,68
43,146,102,-95,-29,124,-107,34,78,107,78,63
39,126,87,-82,-24,107,-102,34,68,92,73,63
48,92,43,-70,2,68,-97,39,53,97,68,63
58,68,9,-63,24,39,-92,43,53,97,68,58
58,63,4,-61,26,34,-82,48,53,97,68,53
53,53,0,-53,26,26,-78,48,53,97,63,48
53,43,-9,-48,31,17,-68,48,53,87,53,48
43,19,-24,-31,34,-2,-58,48,48,73,48,34
34,4,-29,-19,31,-12,-53,43,29,63,39,24
14,-4,-19,-4,17,-12,-43,43,29,58,34,19
9,-9,-19,0,14,-14,-43,39,19,48,29,9
9,-14,-24,2,17,-19,-34,39,19,43,24,9
9,-14,-24,2,17,-19,-29,39,19,43,19,4
9,-19,-29,4,19,-24,-29,43,14,39,19,4
14,-29,-43,7,29,-36,-24,43,14,39,19,0
14,-34,-48,9,31,-41,-24,43,14,39,19,0
14,-39,-53,12,34,-46,-24,43,19,43,19,0
19,-39,-58,9,39,-48,-19,43,24,48,14,4
19,-39,-58,9,39,-48,-19,48,29,48,14,4
14,-39,-53,12,34,-46,-19,48,29,48,19,4
9,-39,-48,14,29,-43,-14,48,29,48,24,4
9,-39,-48,14,29,-43,-9,48,29,48,24,4
9,-39,-48,14,29,-43,-4,53,29,53,29,4
9,-39,-48,14,29,-43,-4,53,34,58,39,4
9,-39,-48,14,29,-43,-9,58,34,58,39,4
9,-39,-48,14,29,-43,-14,63,34,58,39,4
14,-39,-53,12,34,-46,-14,63,34,53,39,4
19,-34,-53,7,36,-43,-9,63,34,43,39,4
14,-29,-43,7,29,-36,-4,73,58,63,39,4
4,-14,-19,4,12,-17,24,102,122,107,53,4
14,29,14,-21,0,21,24,136,224,209,126,48
43,107,63,-75,-9,85,-14,151,346,400,278,151
107,258,151,-183,-21,204,-107,175,541,727,541,346
209,405,195,-307,7,300,-244,239,736,1098,849,580
312,512,200,-412,56,356,-336,351,917,1444,1132,800
414,575,161,-495,126,368,-385,536,1083,1712,1356,951
531,590,58,-561,236,324,-400,780,1263,1908,1493,1073
663,473,-190,-568,427,141,-361,1156,1507,2025,1512,1098
834,336,-497,-585,666,-80,-356,1517,1649,2069,1532,1122
883,253,-629,-568,756,-187,-400,1503,1532,1912,1488,1122
722,141,-580,-431,651,-219,-429,814,824,1220,1127,956
429,-73,-502,-178,466,-287,-302,92,-58,224,507,575
248,-273,-522,12,385,-397,-126,-185,-492,-400,29,224
82,-297,-380,107,231,-339,24,-229,-458,-497,-146,43
-78,-273,-195,175,58,-234,156,-322,-483,-556,-273,-92
-146,-195,-48,170,-48,-122,239,-317,-395,-517,-307,-165
-204,-141,63,173,-134,-39,361,-253,-248,-458,-331,-239
-253,-117,136,185,-195,9,512,-165,-136,-380,-331,-287
-253,-107,146,180,-200,19,580,-97,-63,-287,-278,-273
-239,-107,131,173,-185,12,590,-87,-102,-283,-268,-258
-229,-117,112,173,-170,-2,570,-122,-195,-322,-268,-258
-229,-156,73,192,-151,-41,566,-165,-297,-356,-273,-258
-219,-214,4,217,-112,-104,551,-161,-312,-336,-273,-253
-200,-253,-53,226,-73,-153,536,-146,-297,-312,-258,-239
-185,-268,-82,226,-51,-175,610,-141,-278,-307,-248,-229
-165,-253,-87,209,-39,-170,644,-97,-229,-263,-209,-200
-117,-185,-68,151,-24,-126,522,-24,-122,-161,-131,-141
-73,-112,-39,92,-17,-75,331,19,-43,-87,-82,-97
-43,-53,-9,48,-17,-31,190,19,-9,-58,-53,-58
-24,-34,-9,29,-7,-21,117,19,0,-48,-24,-39
-29,-24,4,26,-17,-9,102,19,14,-29,-9,-29
-34,-14,19,24,-26,2,92,29,29,-9,-9,-24
-29,0,29,14,-29,14,58,9,24,-9,-9,-29
-19,9,29,4,-24,19,19,-4,19,-9,0,-24
-14,14,29,0,-21,21,14,-4,19,-9,9,-14
-9,14,24,-2,-17,19,14,-4,24,0,19,-9
-9,24,34,-7,-21,29,4,0,24,0,19,-9
-9,29,39,-9,-24,34,-14,0,29,4,24,-4
-4,29,34,-12,-19,31,-14,-4,29,4,24,-4
-4,34,39,-14,-21,36,-19,-4,29,9,24,-4
0,29,29,-14,-14,29,-19,-9,29,9,24,4
0,29,29,-14,-14,29,-24,-9,34,14,29,9
0,29,29,-14,-14,29,-24,-9,34,19,34,14
0,34,34,-17,-17,34,-29,-14,34,19,39,19
0,39,39,-19,-19,39,-34,-14,34,24,39,19
0,48,48,-24,-24,48,-34,-14,34,29,39,19
0,48,48,-24,-24,48,-39,-14,29,34,43,19
0,53,53,-26,-26,53,-43,-14,29,34,48,24
0,63,63,-31,-31,63,-43,-14,34,34,53,29
0,63,63,-31,-31,63,-53,-19,34,34,53,29
0,68,68,-34,-34,68,-58,-24,29,34,58,34
0,73,73,-36,-36,73,-63,-29,24,34,58,34
0,82,82,-41,-41,82,-63,-29,24,34,63,43
0,87,87,-43,-43,87,-68,-34,24,34,68,43
0,92,92,-46,-46,92,-73,-39,19,34,68,43
-4,102,107,-48,-56,104,-82,-48,14,29,68,48
-4,112,117,-53,-61,114,-87,-58,4,24,68,48
0,112,112,-56,-56,112,-92,-58,-4,19,68,48
0,122,122,-61,-61,122,-102,-73,-9,19,68,48
-4,131,136,-63,-70,134,-102,-78,-14,14,68,48
-4,141,146,-68,-75,143,-112,-87,-34,4,63,53
-9,141,151,-65,-80,146,-122,-97,-48,-4,63,53
-9,151,161,-70,-85,156,-131,-117,-58,-19,43,53
-9,161,170,-75,-90,165,-136,-126,-73,-34,34,53
-19,165,185,-73,-102,175,-141,-136,-87,-48,29,53
-19,175,195,-78,-107,185,-146,-156,-102,-63,24,53
-24,185,209,-80,-117,197,-156,-165,-126,-82,19,48
-29,185,214,-78,-122,200,-165,-180,-151,-97,0,39
-29,180,209,-75,-119,195,-170,-209,-180,-126,-19,34
-29,180,209,-75,-119,195,-175,-239,-204,-156,-29,24
-34,180,214,-73,-124,197,-180,-263,-239,-185,-48,14
-43,185,229,-70,-136,207,-180,-283,-273,-219,-63,0
-48,185,234,-68,-141,209,-180,-297,-307,-253,-87,-9
-58,175,234,-58,-146,204,-175,-331,-351,-302,-112,-29
-68,165,234,-48,-151,200,-175,-346,-390,-336,-146,-43
-87,161,248,-36,-168,204,-175,-356,-424,-375,-170,-63
-92,146,239,-26,-165,192,-175,-380,-473,-424,-204,-82
-102,126,229,-12,-165,178,-170,-395,-502,-468,-239,-107
-112,112,224,0,-168,168,-161,-414,-531,-502,-268,-131
-122,92,214,14,-168,153,-156,-429,-556,-536,-302,-161
-126,68,195,29,-161,131,-141,-429,-580,-561,-326,-180
-126,39,165,43,-146,102,-117,-414,-580,-590,-356,-200
-131,4,136,63,-134,70,-97,-395,-580,-605,-375,-224
-136,-14,122,75,-129,53,-73,-366,-580,-614,-390,-239
-136,-39,97,87,-117,29,-48,-336,-575,-614,-405,-253
-136,-58,78,97,-107,9,-29,-297,-546,-614,-419,-263
-126,-82,43,104,-85,-19,-9,-268,-531,-610,-424,-273
-117,-97,19,107,-68,-39,9,-229,-497,-595,-424,-273
-102,-107,-4,104,-48,-56,29,-200,-458,-566,-414,-273
-92,-117,-24,104,-34,-70,34,-165,-405,-527,-400,-268
-82,-126,-43,104,-19,-85,43,-131,-366,-492,-370,-253
-63,-136,-73,100,4,-104,53,-92,-297,-414,-326,-229
-63,-136,-73,100,4,-104,53,-92,-297,-414,-326,-229
