I, II, III, aVR, aVL, aVF, V1, V2, V3, V4, V5, V6
-107,-78,29,92,-68,-24,-29,195,370,224,117,68
-107,-78,29,92,-68,-24,-29,195,370,224,117,68
-107,-78,29,92,-68,-24,-29,195,370,224,117,68
-107,-78,29,92,-68,-24,-29,195,370,224,117,68
-122,-92,29,107,-75,-31,-39,170,341,204,97,63
-126,-107,19,117,-73,-43,-39,156,312,185,87,58
-131,-122,9,126,-70,-56,-39,141,283,165,78,53
-136,-136,0,136,-68,-68,-39,126,253,146,68,48
-146,-156,-9,151,-68,-82,-39,112,229,122,53,43
-146,-165,-19,156,-63,-92,-39,97,204,107,48,39
-146,-175,-29,161,-58,-102,-39,82,180,92,43,34
-146,-185,-39,165,-53,-112,-39,68,156,78,39,29
-156,-195,-39,175,-58,-117,-29,58,136,58,34,24
-156,-204,-48,180,-53,-126,-29,48,117,48,29,19
-156,-214,-58,185,-48,-136,-29,39,97,39,24,14
-156,-224,-68,190,-43,-146,-29,29,78,29,19,9
-165,-239,-73,202,-46,-156,-39,14,63,19,14,0
-165,-244,-78,204,-43,-161,-39,9,48,9,9,0
-165,-248,-82,207,-41,-165,-39,4,34,0,4,0
-165,-253,-87,209,-39,-170,-39,0,19,-9,0,0
-170,-258,-87,214,-41,-173,-29,-4,9,-24,-4,-9
-175,-263,-87,219,-43,-175,-29,-9,0,-29,-9,-9
-180,-268,-87,224,-46,-178,-29,-14,-9,-34,-14,-9
-185,-273,-87,229,-48,-180,-29,-19,-19,-39,-19,-9
-195,-283,-87,239,-53,-185,-29,-24,-24,-48,-19,-19
-195,-283,-87,239,-53,-185,-29,-29,-29,-48,-19,-19
-195,-283,-87,239,-53,-185,-29,-34,-34,-48,-19,-19
-195,-283,-87,239,-53,-185,-29,-39,-39,-48,-19,-19
-195,-283,-87,239,-53,-185,-29,-39,-43,-58,-19,-19
-195,-283,-87,239,-53,-185,-29,-39,-48,-58,-19,-19
-195,-283,-87,239,-53,-185,-29,-39,-53,-58,-19,-19
-195,-283,-87,239,-53,-185,-29,-39,-58,-58,-19,-19
-204,-292,-87,248,-58,-190,-29,-39,-58,-68,-29,-19
-204,-292,-87,248,-58,-190,-29,-39,-58,-68,-29,-19
-204,-292,-87,248,-58,-190,-29,-39,-58,-68,-29,-19
-204,-292,-87,248,-58,-190,-29,-39,-58,-68,-29,-19
-214,-297,-82,256,-65,-190,-19,-48,-68,-68,-39,-29
-214,-302,-87,258,-63,-195,-19,-48,-68,-68,-39,-29
-214,-307,-92,261,-61,-200,-19,-48,-68,-68,-39,-29
-214,-312,-97,263,-58,-204,-19,-48,-68,-68,-39,-29
-204,-312,-107,258,-48,-209,-19,-48,-68,-78,-29,-29
-204,-312,-107,258,-48,-209,-19,-48,-68,-78,-29,-29
-204,-312,-107,258,-48,-209,-19,-48,-68,-78,-29,-29
-204,-312,-107,258,-48,-209,-19,-48,-68,-78,-29,-29
-204,-312,-107,258,-48,-209,-19,-39,-68,-68,-29,-29
-204,-312,-107,258,-48,-209,-19,-39,-68,-68,-29,-29
-204,-312,-107,258,-48,-209,-19,-39,-68,-68,-29,-29
-204,-312,-107,258,-48,-209,-19,-39,-68,-68,-29,-29
-204,-302,-97,253,-53,-200,-19,-39,-68,-58,-19,-19
-204,-302,-97,253,-53,-200,-19,-39,-68,-58,-19,-19
-204,-302,-97,253,-53,-200,-19,-39,-68,-58,-19,-19
-204,-302,-97,253,-53,-200,-19,-39,-68,-58,-19,-19
-204,-312,-107,258,-48,-209,-9,-39,-68,-58,-29,-29
-204,-312,-107,258,-48,-209,-9,-39,-68,-58,-29,-29
-204,-312,-107,258,-48,-209,-9,-39,-68,-58,-29,-29
-204,-312,-107,258,-48,-209,-9,-39,-68,-58,-29,-29
-204,-312,-107,258,-48,-209,-19,-39,-58,-68,-29,-29
-204,-312,-107,258,-48,-209,-19,-39,-58,-68,-29,-29
-204,-312,-107,258,-48,-209,-19,-39,-58,-68,-29,-29
-204,-312,-107,258,-48,-209,-19,-39,-58,-68,-29,-29
-204,-312,-107,258,-48,-209,-9,-29,-58,-58,-29,-29
-204,-312,-107,258,-48,-209,-9,-29,-58,-58,-29,-29
-204,-312,-107,258,-48,-209,-9,-29,-58,-58,-29,-29
-204,-312,-107,258,-48,-209,-9,-29,-58,-58,-29,-29
-204,-302,-97,253,-53,-200,-9,-29,-53,-58,-19,-19
-204,-302,-97,253,-53,-200,-9,-29,-48,-58,-19,-19
-204,-302,-97,253,-53,-200,-9,-29,-43,-58,-19,-19
-204,-302,-97,253,-53,-200,-9,-29,-39,-58,-19,-19
-204,-302,-97,253,-53,-200,-9,-19,-29,-48,-9,-19
-204,-302,-97,253,-53,-200,-9,-19,-29,-48,-9,-19
-204,-302,-97,253,-53,-200,-9,-19,-29,-48,-9,-19
-204,-302,-97,253,-53,-200,-9,-19,-29,-48,-9,-19
-214,-302,-87,258,-63,-195,-9,-19,-29,-39,-19,-29
-214,-302,-87,258,-63,-195,-9,-19,-29,-39,-19,-29
-214,-302,-87,258,-63,-195,-9,-19,-29,-39,-19,-29
-214,-302,-87,258,-63,-195,-9,-19,-29,-39,-19,-29
-214,-302,-87,258,-63,-195,-4,-9,-19,-39,-9,-29
-214,-302,-87,258,-63,-195,0,-9,-19,-39,-9,-29
-214,-302,-87,258,-63,-195,4,-9,-19,-39,-9,-29
-214,-302,-87,258,-63,-195,9,-9,-19,-39,-9,-29
-204,-302,-97,253,-53,-200,0,-9,-9,-29,-9,-19
-204,-302,-97,253,-53,-200,0,-9,-9,-29,-9,-19
-204,-302,-97,253,-53,-200,0,-9,-9,-29,-9,-19
-204,-302,-97,253,-53,-200,0,-9,-9,-29,-9,-19
-214,-292,-78,253,-68,-185,9,0,0,-19,0,-19
-214,-292,-78,253,-68,-185,9,0,0,-19,0,-19
-214,-292,-78,253,-68,-185,9,0,0,-19,0,-19
-214,-292,-78,253,-68,-185,9,0,0,-19,0,-19
-224,-302,-78,263,-73,-190,9,0,0,-29,0,-19
-224,-302,-78,263,-73,-190,9,0,0,-29,0,-19
-224,-302,-78,263,-73,-190,9,0,0,-29,0,-19
-224,-302,-78,263,-73,-190,9,0,0,-29,0,-19
-214,-312,-97,263,-58,-204,9,0,0,-29,-9,-29
-214,-312,-97,263,-58,-204,9,0,0,-29,-9,-29
-214,-312,-97,263,-58,-204,9,0,0,-29,-9,-29
-214,-312,-97,263,-58,-204,9,0,0,-29,-9,-29
-214,-302,-87,258,-63,-195,9,9,0,-29,-9,-29
-214,-302,-87,258,-63,-195,9,9,0,-29,-9,-29
-214,-302,-87,258,-63,-195,9,9,0,-29,-9,-29
-214,-302,-87,258,-63,-195,9,9,0,-29,-9,-29
-224,-307,-82,265,-70,-195,19,9,-9,-29,-19,-39
-224,-312,-87,268,-68,-200,19,9,-9,-29,-19,-39
-224,-317,-92,270,-65,-204,19,9,-9,-29,-19,-39
-224,-322,-97,273,-63,-209,19,9,-9,-29,-19,-39
-224,-322,-97,273,-63,-209,9,9,-9,-29,-19,-39
-224,-322,-97,273,-63,-209,9,9,-9,-29,-19,-39
-224,-322,-97,273,-63,-209,9,9,-9,-29,-19,-39
-224,-322,-97,273,-63,-209,9,9,-9,-29,-19,-39
-224,-312,-87,268,-68,-200,19,0,-19,-39,-29,-29
-224,-312,-87,268,-68,-200,19,0,-19,-39,-29,-29
-224,-312,-87,268,-68,-200,19,0,-19,-39,-29,-29
-224,-312,-87,268,-68,-200,19,0,-19,-39,-29,-29
-224,-312,-87,268,-68,-200,19,0,-19,-39,-29,-39
-224,-312,-87,268,-68,-200,19,0,-19,-39,-29,-39
-224,-312,-87,268,-68,-200,19,0,-19,-39,-29,-39
-224,-312,-87,268,-68,-200,19,0,-19,-39,-29,-39
-224,-322,-97,273,-63,-209,9,0,-29,-48,-39,-39
-224,-322,-97,273,-63,-209,9,0,-29,-48,-39,-39
-224,-322,-97,273,-63,-209,9,0,-29,-48,-39,-39
-224,-322,-97,273,-63,-209,9,0,-29,-48,-39,-39
-224,-322,-97,273,-63,-209,19,0,-39,-58,-39,-39
-224,-322,-97,273,-63,-209,19,0,-39,-58,-39,-39
-224,-322,-97,273,-63,-209,19,0,-39,-58,-39,-39
-224,-322,-97,273,-63,-209,19,0,-39,-58,-39,-39
-224,-331,-107,278,-58,-219,19,0,-39,-68,-48,-39
-224,-331,-107,278,-58,-219,19,0,-39,-68,-48,-39
-224,-331,-107,278,-58,-219,19,0,-39,-68,-48,-39
-224,-331,-107,278,-58,-219,19,0,-39,-68,-48,-39
-224,-322,-97,273,-63,-209,9,-9,-48,-78,-58,-39
-224,-322,-97,273,-63,-209,9,-9,-48,-78,-58,-39
-224,-322,-97,273,-63,-209,9,-9,-48,-78,-58,-39
-224,-322,-97,273,-63,-209,9,-9,-48,-78,-58,-39
-224,-331,-107,278,-58,-219,9,-9,-58,-78,-58,-39
-224,-331,-107,278,-58,-219,9,-9,-58,-78,-58,-39
-224,-331,-107,278,-58,-219,9,-9,-58,-78,-58,-39
-224,-331,-107,278,-58,-219,9,-9,-58,-78,-58,-39
-224,-322,-97,273,-63,-209,9,-9,-58,-78,-58,-39
-224,-322,-97,273,-63,-209,9,-9,-58,-78,-58,-39
-224,-322,-97,273,-63,-209,9,-9,-58,-78,-58,-39
-224,-322,-97,273,-63,-209,9,-9,-58,-78,-58,-39
-224,-331,-107,278,-58,-219,9,-19,-68,-87,-58,-39
-224,-331,-107,278,-58,-219,9,-19,-68,-87,-58,-39
-224,-331,-107,278,-58,-219,9,-19,-68,-87,-58,-39
-224,-331,-107,278,-58,-219,9,-19,-68,-87,-58,-39
-224,-322,-97,273,-63,-209,9,-19,-78,-87,-68,-48
-224,-322,-97,273,-63,-209,9,-19,-78,-87,-68,-48
-224,-322,-97,273,-63,-209,9,-19,-78,-87,-68,-48
-224,-322,-97,273,-63,-209,9,-19,-78,-87,-68,-48
-224,-331,-107,278,-58,-219,19,-19,-78,-87,-58,-39
-224,-331,-107,278,-58,-219,19,-19,-78,-87,-58,-39
-224,-331,-107,278,-58,-219,19,-19,-78,-87,-58,-39
-224,-331,-107,278,-58,-219,19,-19,-78,-87,-58,-39
-224,-341,-117,283,-53,-229,19,-19,-78,-87,-58,-48
-224,-341,-117,283,-53,-229,19,-19,-78,-87,-58,-48
-224,-341,-117,283,-53,-229,19,-19,-78,-87,-58,-48
-224,-341,-117,283,-53,-229,19,-19,-78,-87,-58,-48
-224,-341,-117,283,-53,-229,9,-19,-78,-97,-58,-48
-224,-341,-117,283,-53,-229,9,-19,-78,-97,-58,-48
-224,-341,-117,283,-53,-229,9,-19,-78,-97,-58,-48
-224,-341,-117,283,-53,-229,9,-19,-78,-97,-58,-48
-224,-331,-107,278,-58,-219,9,-29,-87,-97,-68,-48
-224,-331,-107,278,-58,-219,9,-29,-87,-97,-68,-48
-224,-331,-107,278,-58,-219,9,-29,-87,-97,-68,-48
-224,-331,-107,278,-58,-219,9,-29,-87,-97,-68,-48
-224,-341,-117,283,-53,-229,9,-19,-87,-97,-58,-39
-224,-341,-117,283,-53,-229,9,-19,-87,-97,-58,-39
-224,-341,-117,283,-53,-229,9,-19,-87,-97,-58,-39
-224,-341,-117,283,-53,-229,9,-19,-87,-97,-58,-39
-214,-341,-126,278,-43,-234,9,-29,-87,-97,-68,-48
-214,-341,-126,278,-43,-234,9,-29,-87,-97,-68,-48
-214,-341,-126,278,-43,-234,9,-29,-87,-97,-68,-48
-214,-341,-126,278,-43,-234,9,-29,-87,-97,-68,-48
-224,-341,-117,283,-53,-229,9,-29,-87,-97,-68,-48
-224,-341,-117,283,-53,-229,9,-29,-87,-97,-68,-48
-224,-341,-117,283,-53,-229,9,-29,-87,-97,-68,-48
-224,-341,-117,283,-53,-229,9,-29,-87,-97,-68,-48
-224,-341,-117,283,-53,-229,19,-19,-87,-97,-68,-39
-224,-341,-117,283,-53,-229,19,-19,-87,-97,-68,-39
-224,-341,-117,283,-53,-229,19,-19,-87,-97,-68,-39
-224,-341,-117,283,-53,-229,19,-19,-87,-97,-68,-39
-214,-331,-117,273,-48,-224,19,-29,-97,-97,-68,-39
-214,-331,-117,273,-48,-224,19,-29,-97,-97,-68,-39
-214,-331,-117,273,-48,-224,19,-29,-97,-97,-68,-39
-214,-331,-117,273,-48,-224,19,-29,-97,-97,-68,-39
-224,-341,-117,283,-53,-229,9,-29,-97,-107,-68,-48
-224,-341,-117,283,-53,-229,9,-29,-97,-107,-68,-48
-224,-341,-117,283,-53,-229,9,-29,-97,-107,-68,-48
-224,-341,-117,283,-53,-229,9,-29,-97,-107,-68,-48
-224,-341,-117,283,-53,-229,9,-29,-97,-97,-68,-48
-224,-341,-117,283,-53,-229,9,-29,-97,-97,-68,-48
-224,-341,-117,283,-53,-229,9,-29,-97,-97,-68,-48
-224,-341,-117,283,-53,-229,9,-29,-97,-97,-68,-48
-214,-341,-126,278,-43,-234,9,-29,-97,-97,-58,-48
-214,-341,-126,278,-43,-234,9,-29,-97,-97,-58,-48
-214,-341,-126,278,-43,-234,9,-29,-97,-97,-58,-48
-214,-341,-126,278,-43,-234,9,-29,-97,-97,-58,-48
-224,-341,-117,283,-53,-229,9,-39,-97,-107,-68,-39
-224,-341,-117,283,-53,-229,9,-39,-97,-107,-68,-39
-224,-341,-117,283,-53,-229,9,-39,-97,-107,-68,-39
-224,-341,-117,283,-53,-229,9,-39,-97,-107,-68,-39
-224,-341,-117,283,-53,-229,9,-29,-97,-97,-58,-39
-224,-341,-117,283,-53,-229,9,-29,-97,-97,-58,-39
-224,-341,-117,283,-53,-229,9,-29,-97,-97,-58,-39
-224,-341,-117,283,-53,-229,9,-29,-97,-97,-58,-39
-219,-331,-112,275,-53,-222,9,-39,-97,-97,-58,-48
-214,-331,-117,273,-48,-224,9,-39,-97,-97,-58,-48
-209,-331,-122,270,-43,-226,9,-39,-97,-97,-58,-48
-204,-331,-126,268,-39,-229,9,-39,-97,-97,-58,-48
-209,-341,-131,275,-39,-236,9,-39,-107,-107,-68,-48
-214,-341,-126,278,-43,-234,9,-39,-107,-107,-68,-48
-219,-341,-122,280,-48,-231,9,-39,-107,-107,-68,-48
-224,-341,-117,283,-53,-229,9,-39,-107,-107,-68,-48
-214,-331,-117,273,-48,-224,9,-29,-97,-107,-58,-48
-214,-331,-117,273,-48,-224,9,-29,-97,-107,-58,-48
-214,-331,-117,273,-48,-224,9,-29,-97,-107,-58,-48
-214,-331,-117,273,-48,-224,9,-29,-97,-107,-58,-48
-214,-331,-117,273,-48,-224,19,-29,-97,-97,-58,-39
-214,-331,-117,273,-48,-224,19,-29,-97,-97,-58,-39
-214,-331,-117,273,-48,-224,19,-29,-97,-97,-58,-39
-214,-331,-117,273,-48,-224,19,-29,-97,-97,-58,-39
-214,-331,-117,273,-48,-224,9,-29,-97,-97,-58,-48
-214,-331,-117,273,-48,-224,9,-29,-97,-97,-58,-48
-214,-331,-117,273,-48,-224,9,-29,-97,-97,-58,-48
-214,-331,-117,273,-48,-224,9,-29,-97,-97,-58,-48
-214,-331,-117,273,-48,-224,9,-29,-97,-97,-58,-39
-214,-331,-117,273,-48,-224,9,-29,-97,-97,-58,-39
-214,-331,-117,273,-48,-224,9,-29,-97,-97,-58,-39
-214,-331,-117,273,-48,-224,9,-29,-97,-97,-58,-39
-214,-341,-126,278,-43,-234,9,-29,-97,-97,-58,-39
-214,-341,-126,278,-43,-234,9,-29,-97,-97,-58,-39
-214,-341,-126,278,-43,-234,9,-29,-97,-97,-58,-39
-214,-341,-126,278,-43,-234,9,-29,-97,-97,-58,-39
-224,-341,-117,283,-53,-229,9,-39,-107,-107,-58,-48
-224,-341,-117,283,-53,-229,9,-39,-107,-107,-58,-48
-224,-341,-117,283,-53,-229,9,-39,-107,-107,-58,-48
-224,-341,-117,283,-53,-229,9,-39,-107,-107,-58,-48
-214,-341,-126,278,-43,-234,9,-29,-107,-107,-58,-48
-214,-341,-126,278,-43,-234,9,-29,-107,-107,-58,-48
-214,-341,-126,278,-43,-234,9,-29,-107,-107,-58,-48
-214,-341,-126,278,-43,-234,9,-29,-107,-107,-58,-48
-214,-341,-126,278,-43,-234,9,-39,-107,-97,-58,-39
-214,-341,-126,278,-43,-234,9,-39,-107,-97,-58,-39
-214,-341,-126,278,-43,-234,9,-39,-107,-97,-58,-39
-214,-341,-126,278,-43,-234,9,-39,-107,-97,-58,-39
-214,-331,-117,273,-48,-224,9,-39,-107,-97,-48,-39
-214,-331,-117,273,-48,-224,9,-39,-107,-97,-48,-39
-214,-331,-117,273,-48,-224,9,-39,-107,-97,-48,-39
-214,-331,-117,273,-48,-224,9,-39,-107,-97,-48,-39
-214,-331,-117,273,-48,-224,9,-39,-107,-97,-58,-39
-214,-331,-117,273,-48,-224,9,-39,-107,-97,-58,-39
-214,-331,-117,273,-48,-224,9,-39,-107,-97,-58,-39
-214,-331,-117,273,-48,-224,9,-39,-107,-97,-58,-39
-214,-341,-126,278,-43,-234,9,-39,-107,-107,-68,-48
-214,-341,-126,278,-43,-234,9,-39,-107,-107,-68,-48
-214,-341,-126,278,-43,-234,9,-39,-107,-107,-68,-48
-214,-341,-126,278,-43,-234,9,-39,-107,-107,-68,-48
-214,-331,-117,273,-48,-224,9,-39,-107,-107,-68,-39
-214,-331,-117,273,-48,-224,9,-39,-107,-107,-68,-39
-214,-331,-117,273,-48,-224,9,-39,-107,-107,-68,-39
-214,-331,-117,273,-48,-224,9,-39,-107,-107,-68,-39
-204,-322,-117,263,-43,-219,9,-39,-107,-97,-58,-39
-204,-322,-117,263,-43,-219,9,-39,-107,-97,-58,-39
-204,-322,-117,263,-43,-219,9,-39,-107,-97,-58,-39
-204,-322,-117,263,-43,-219,9,-39,-107,-97,-58,-39
-204,-322,-117,263,-43,-219,9,-39,-107,-97,-58,-39
-204,-322,-117,263,-43,-219,9,-39,-107,-97,-58,-39
-204,-322,-117,263,-43,-219,9,-39,-107,-97,-58,-39
-204,-322,-117,263,-43,-219,9,-39,-107,-97,-58,-39
-214,-331,-117,273,-48,-224,9,-39,-107,-107,-68,-48
-214,-331,-117,273,-48,-224,9,-39,-107,-107,-68,-48
-214,-331,-117,273,-48,-224,9,-39,-107,-107,-68,-48
-214,-331,-117,273,-48,-224,9,-39,-107,-107,-68,-48
-214,-331,-117,273,-48,-224,9,-39,-107,-107,-68,-48
-214,-331,-117,273,-48,-224,9,-39,-107,-107,-68,-48
-214,-331,-117,273,-48,-224,9,-39,-107,-107,-68,-48
-214,-331,-117,273,-48,-224,9,-39,-107,-107,-68,-48
-214,-341,-126,278,-43,-234,9,-39,-117,-107,-58,-48
-214,-341,-126,278,-43,-234,9,-39,-117,-107,-58,-48
-214,-341,-126,278,-43,-234,9,-39,-117,-107,-58,-48
-214,-341,-126,278,-43,-234,9,-39,-117,-107,-58,-48
-204,-331,-126,268,-39,-229,9,-29,-107,-97,-58,-39
-204,-331,-126,268,-39,-229,9,-29,-107,-97,-58,-39
-204,-331,-126,268,-39,-229,9,-29,-107,-97,-58,-39
-204,-331,-126,268,-39,-229,9,-29,-107,-97,-58,-39
-204,-331,-126,268,-39,-229,9,-29,-107,-107,-58,-39
-204,-331,-126,268,-39,-229,9,-29,-107,-107,-58,-39
-204,-331,-126,268,-39,-229,9,-29,-107,-107,-58,-39
-204,-331,-126,268,-39,-229,9,-29,-107,-107,-58,-39
-204,-331,-126,268,-39,-229,9,-29,-107,-107,-68,-48
-204,-331,-126,268,-39,-229,9,-29,-107,-107,-68,-48
-204,-331,-126,268,-39,-229,9,-29,-107,-107,-68,-48
-204,-331,-126,268,-39,-229,9,-29,-107,-107,-68,-48
-214,-331,-117,273,-48,-224,9,-39,-107,-97,-58,-48
-214,-331,-117,273,-48,-224,9,-39,-107,-97,-58,-48
-214,-331,-117,273,-48,-224,9,-39,-107,-97,-58,-48
-214,-331,-117,273,-48,-224,9,-39,-107,-97,-58,-48
-214,-322,-107,268,-53,-214,9,-29,-107,-97,-58,-39
-214,-322,-107,268,-53,-214,9,-29,-107,-97,-58,-39
-214,-322,-107,268,-53,-214,9,-29,-107,-97,-58,-39
-214,-322,-107,268,-53,-214,9,-29,-107,-97,-58,-39
-200,-312,-112,256,-43,-212,19,-19,-97,-87,-48,-39
-195,-312,-117,253,-39,-214,19,-19,-97,-87,-48,-39
-190,-312,-122,251,-34,-217,19,-19,-97,-87,-48,-39
-185,-312,-126,248,-29,-219,19,-19,-97,-87,-48,-39
-175,-297,-122,236,-26,-209,19,-4,-82,-87,-48,-29
-175,-297,-122,236,-26,-209,19,0,-78,-82,-39,-24
-170,-287,-117,229,-26,-202,19,0,-73,-73,-39,-14
-170,-278,-107,224,-31,-192,19,-4,-68,-68,-34,-9
-180,-263,-82,222,-48,-173,19,-4,-63,-53,-29,-4
-175,-253,-78,214,-48,-165,14,-4,-58,-48,-24,0
-175,-248,-73,212,-51,-161,14,0,-53,-48,-24,0
-175,-248,-73,212,-51,-161,14,0,-48,-43,-14,0
-161,-253,-92,207,-34,-173,14,0,-48,-39,-14,0
-161,-248,-87,204,-36,-168,14,-4,-48,-39,-14,4
-156,-248,-92,202,-31,-170,14,-4,-43,-39,-14,4
-156,-248,-92,202,-31,-170,14,-9,-43,-34,-14,4
-161,-244,-82,202,-39,-163,0,-19,-34,-29,-9,0
-156,-244,-87,200,-34,-165,-4,-14,-34,-29,-9,0
-156,-239,-82,197,-36,-161,-4,-14,-34,-29,-4,0
-156,-239,-82,197,-36,-161,-14,-14,-34,-29,-4,-4
-146,-253,-107,200,-19,-180,-19,-14,-43,-34,-14,-4
-136,-253,-117,195,-9,-185,-29,-24,-43,-34,-14,4
-122,-239,-117,180,-2,-178,-48,-29,-43,-29,-4,9
-117,-234,-117,175,0,-175,-63,-39,-43,-34,0,14
-126,-229,-102,178,-12,-165,-63,-43,-39,-29,9,24
-126,-224,-97,175,-14,-161,-73,-53,-39,-29,4,24
-122,-214,-92,168,-14,-153,-78,-63,-43,-34,4,24
-122,-209,-87,165,-17,-148,-87,-68,-48,-39,0,24
-112,-209,-97,161,-7,-153,-97,-82,-58,-39,4,19
-112,-209,-97,161,-7,-153,-97,-82,-68,-48,0,19
-107,-214,-107,161,0,-161,-92,-82,-87,-48,-4,19
-107,-214,-107,161,0,-161,-82,-82,-92,-53,-14,19
-107,-239,-131,173,12,-185,-68,-82,-112,-68,-19,0
-107,-244,-136,175,14,-190,-63,-82,-117,-87,-29,-4
-107,-258,-151,183,21,-204,-53,-82,-126,-92,-39,-4
-107,-263,-156,185,24,-209,-53,-82,-131,-102,-48,-9
-107,-263,-156,185,24,-209,-58,-87,-136,-97,-43,-14
-107,-278,-170,192,31,-224,-58,-87,-136,-107,-48,-19
-107,-283,-175,195,34,-229,-48,-78,-136,-107,-48,-19
-107,-287,-180,197,36,-234,-39,-78,-136,-102,-48,-19
-122,-297,-175,209,26,-236,-39,-78,-136,-112,-58,-19
-126,-302,-175,214,24,-239,-39,-73,-136,-112,-58,-19
-131,-302,-170,217,19,-236,-39,-68,-136,-112,-53,-19
-136,-302,-165,219,14,-234,-34,-63,-136,-107,-53,-19
-126,-292,-165,209,19,-229,-34,-58,-122,-92,-48,-14
-131,-287,-156,209,12,-222,-29,-58,-117,-92,-48,-14
-136,-287,-151,212,7,-219,-24,-58,-117,-92,-48,-14
-146,-287,-141,217,-2,-214,-19,-58,-117,-92,-53,-19
-151,-292,-141,222,-4,-217,-9,-53,-117,-87,-48,-14
-170,-302,-131,236,-19,-217,0,-48,-117,-87,-58,-19
-200,-312,-112,256,-43,-212,14,-43,-117,-97,-58,-29
-219,-326,-107,273,-56,-217,29,-43,-126,-112,-73,-43
-239,-346,-107,292,-65,-226,39,-43,-141,-126,-82,-63
-244,-356,-112,300,-65,-234,39,-48,-141,-131,-87,-68
-244,-356,-112,300,-65,-234,39,-48,-141,-131,-87,-68
-244,-356,-112,300,-65,-234,39,-53,-141,-131,-87,-68
-229,-356,-126,292,-51,-241,24,-53,-141,-126,-87,-63
-229,-351,-122,290,-53,-236,24,-48,-141,-126,-82,-63
-219,-351,-131,285,-43,-241,24,-48,-136,-122,-78,-58
-219,-356,-136,287,-41,-246,24,-48,-136,-122,-78,-58
-224,-346,-122,285,-51,-234,34,-48,-136,-122,-78,-58
-224,-341,-117,283,-53,-229,34,-43,-136,-122,-82,-58
-229,-341,-112,285,-58,-226,34,-43,-136,-122,-82,-58
-229,-341,-112,285,-58,-226,34,-43,-136,-122,-82,-58
-219,-341,-122,280,-48,-231,34,-43,-136,-122,-82,-58
-214,-341,-126,278,-43,-234,34,-43,-136,-122,-82,-58
-214,-341,-126,278,-43,-234,39,-43,-136,-122,-82,-58
-214,-336,-122,275,-46,-229,39,-43,-136,-122,-82,-58
-224,-336,-112,280,-56,-224,29,-39,-131,-122,-87,-58
-224,-336,-112,280,-56,-224,29,-39,-131,-122,-87,-58
-224,-336,-112,280,-56,-224,29,-39,-131,-122,-92,-58
-224,-336,-112,280,-56,-224,24,-39,-131,-117,-92,-58
-224,-336,-112,280,-56,-224,24,-29,-131,-117,-87,-58
-224,-336,-112,280,-56,-224,24,-34,-131,-117,-87,-58
-224,-341,-117,283,-53,-229,24,-34,-131,-117,-87,-58
-224,-341,-117,283,-53,-229,29,-34,-131,-117,-87,-58
-224,-336,-112,280,-56,-224,19,-43,-131,-117,-78,-58
-224,-336,-112,280,-56,-224,19,-39,-131,-117,-78,-58
-224,-336,-112,280,-56,-224,19,-39,-131,-117,-78,-58
-224,-336,-112,280,-56,-224,19,-34,-126,-117,-78,-63
-219,-336,-117,278,-51,-226,34,-34,-126,-117,-87,-68
-239,-331,-92,285,-73,-212,48,-9,-112,-112,-82,-73
-248,-346,-97,297,-75,-222,78,29,-92,-107,-92,-82
-268,-361,-92,314,-87,-226,136,87,-48,-97,-107,-112
-278,-385,-107,331,-85,-246,200,180,19,-73,-102,-136
-297,-390,-92,344,-102,-241,263,263,97,-39,-102,-156
-322,-380,-58,351,-131,-219,312,326,209,14,-87,-156
-336,-370,-34,353,-151,-202,356,405,326,87,-58,-156
-346,-361,-14,353,-165,-187,390,483,434,161,-19,-151
-336,-336,0,336,-168,-168,414,546,522,253,39,-126
-297,-302,-4,300,-146,-153,424,610,610,351,122,-78
-253,-278,-24,265,-114,-151,434,668,653,429,204,-29
-190,-248,-58,219,-65,-153,424,688,634,473,268,19
-102,-214,-112,158,4,-163,385,663,561,473,326,78
9,-175,-185,82,97,-180,297,600,463,502,409,170
141,-107,-248,-17,195,-178,175,517,385,590,551,302
302,14,-287,-158,295,-136,9,380,317,727,766,488
478,151,-326,-314,402,-87,-209,190,204,854,980,683
639,287,-351,-463,495,-31,-434,-19,73,961,1200,893
800,463,-336,-631,568,63,-668,-248,-43,1088,1415,1112
956,673,-283,-814,619,195,-971,-556,-190,1161,1615,1337
1078,863,-214,-971,646,324,-1254,-936,-370,1166,1742,1522
1141,1005,-136,-1073,639,434,-1493,-1302,-600,1073,1771,1664
1166,1093,-73,-1129,619,509,-1698,-1688,-883,844,1688,1737
1107,1117,9,-1112,549,563,-1849,-2093,-1263,439,1415,1703
990,1024,34,-1007,478,529,-1917,-2391,-1698,-97,971,1537
868,839,-29,-854,448,405,-1912,-2518,-2156,-692,473,1307
790,575,-214,-683,502,180,-1825,-2469,-2542,-1220,-4,1029
736,239,-497,-488,617,-129,-1644,-2259,-2737,-1625,-434,722
688,-63,-751,-312,719,-407,-1449,-1991,-2727,-1805,-707,458
634,-204,-839,-214,736,-522,-1307,-1781,-2547,-1786,-790,326
546,-195,-741,-175,644,-468,-1190,-1595,-2293,-1649,-780,273
448,-170,-619,-139,534,-395,-1044,-1366,-1976,-1449,-717,229
370,-136,-507,-117,439,-322,-878,-1112,-1615,-1200,-614,204
292,-92,-385,-100,339,-239,-727,-878,-1288,-951,-483,204
224,-82,-307,-70,265,-195,-590,-692,-1044,-775,-385,190
141,-92,-234,-24,187,-163,-492,-570,-863,-644,-322,151
58,-122,-180,31,119,-151,-414,-517,-712,-541,-278,97
-4,-146,-141,75,68,-143,-346,-453,-570,-453,-244,48
-58,-180,-122,119,31,-151,-253,-356,-439,-361,-204,14
-97,-234,-136,165,19,-185,-156,-244,-331,-283,-175,-14
-122,-278,-156,200,17,-217,-63,-146,-244,-224,-141,-24
-151,-292,-141,222,-4,-217,4,-58,-170,-165,-126,-39
-175,-302,-126,239,-24,-214,34,-14,-122,-126,-112,-48
-185,-302,-117,244,-34,-209,34,-14,-102,-122,-107,-43
-190,-283,-92,236,-48,-187,24,-24,-97,-117,-87,-53
-204,-283,-78,244,-63,-180,34,-14,-97,-117,-87,-53
-214,-292,-78,253,-68,-185,43,-9,-82,-117,-97,-63
-229,-307,-78,268,-75,-192,48,-4,-82,-112,-112,-78
-229,-317,-87,273,-70,-202,58,-4,-78,-112,-117,-78
-229,-326,-97,278,-65,-212,68,9,-73,-107,-112,-78
-229,-336,-107,283,-61,-222,78,19,-63,-107,-112,-78
-239,-336,-97,287,-70,-217,78,19,-58,-112,-112,-78
-239,-322,-82,280,-78,-202,78,29,-48,-97,-112,-87
-244,-322,-78,283,-82,-200,82,29,-43,-97,-107,-92
-244,-322,-78,283,-82,-200,82,34,-34,-92,-107,-92
-248,-322,-73,285,-87,-197,87,39,-29,-87,-102,-92
-248,-322,-73,285,-87,-197,92,43,-19,-87,-102,-82
-248,-331,-82,290,-82,-207,97,48,-14,-82,-102,-87
-248,-331,-82,290,-82,-207,97,48,-14,-78,-107,-87
-248,-331,-82,290,-82,-207,102,48,-14,-73,-107,-87
-248,-331,-82,290,-82,-207,107,53,-9,-73,-97,-87
-248,-326,-78,287,-85,-202,107,58,-9,-73,-97,-87
-248,-322,-73,285,-87,-197,107,58,-4,-68,-87,-92
-248,-322,-73,285,-87,-197,107,58,0,-68,-87,-92
-253,-322,-68,287,-92,-195,112,63,4,-63,-92,-92
-253,-326,-73,290,-90,-200,112,63,4,-63,-92,-92
-258,-331,-73,295,-92,-202,112,63,4,-63,-92,-92
-258,-331,-73,295,-92,-202,117,68,9,-63,-87,-92
-253,-322,-68,287,-92,-195,117,68,9,-53,-92,-87
-253,-322,-68,287,-92,-195,112,68,14,-53,-92,-87
-253,-317,-63,285,-95,-190,112,73,24,-53,-92,-87
-253,-317,-63,285,-95,-190,112,73,24,-53,-97,-87
-244,-317,-73,280,-85,-195,102,63,19,-53,-97,-87
-248,-317,-68,283,-90,-192,102,68,19,-53,-97,-87
-248,-317,-68,283,-90,-192,102,68,24,-48,-97,-87
-248,-317,-68,283,-90,-192,107,68,24,-48,-97,-87
-248,-317,-68,283,-90,-192,117,78,29,-43,-87,-82
-248,-317,-68,283,-90,-192,117,82,29,-43,-87,-82
-248,-317,-68,283,-90,-192,122,87,34,-43,-82,-82
-248,-317,-68,283,-90,-192,122,87,39,-39,-82,-82
-248,-317,-68,283,-90,-192,126,87,53,-34,-73,-73
-248,-317,-68,283,-90,-192,126,87,53,-34,-73,-73
-244,-317,-73,280,-85,-195,131,92,53,-34,-68,-73
-244,-317,-73,280,-85,-195,131,92,58,-34,-68,-73
-248,-312,-63,280,-92,-187,122,92,53,-29,-78,-82
-248,-312,-63,280,-92,-187,126,97,53,-29,-78,-87
-248,-307,-58,278,-95,-183,126,97,63,-29,-73,-87
-248,-307,-58,278,-95,-183,122,97,63,-29,-73,-87
-248,-307,-58,278,-95,-183,122,97,63,-24,-82,-82
-248,-307,-58,278,-95,-183,122,97,68,-24,-82,-82
-248,-307,-58,278,-95,-183,122,97,68,-19,-82,-82
-248,-307,-58,278,-95,-183,122,102,68,-19,-78,-82
-248,-307,-58,278,-95,-183,122,102,78,-9,-68,-82
-244,-307,-63,275,-90,-185,122,107,82,-9,-68,-82
-244,-307,-63,275,-90,-185,122,112,82,-4,-68,-82
-244,-307,-63,275,-90,-185,131,112,87,0,-68,-82
-244,-297,-53,270,-95,-175,131,112,92,0,-53,-82
-244,-297,-53,270,-95,-175,126,117,97,0,-53,-82
-244,-297,-53,270,-95,-175,126,122,102,0,-53,-82
-244,-302,-58,273,-92,-180,126,126,107,0,-53,-82
-258,-302,-43,280,-107,-173,126,126,112,-9,-63,-82
-258,-302,-43,280,-107,-173,126,126,112,-4,-63,-82
-253,-297,-43,275,-104,-170,131,136,117,0,-58,-82
-253,-297,-43,275,-104,-170,131,141,122,4,-53,-82
-253,-297,-43,275,-104,-170,136,146,126,9,-53,-73
-253,-297,-43,275,-104,-170,136,146,131,14,-53,-73
-253,-292,-39,273,-107,-165,136,151,136,19,-53,-73
-253,-292,-39,273,-107,-165,136,156,146,19,-48,-73
-253,-302,-48,278,-102,-175,136,161,161,34,-34,-73
-253,-297,-43,275,-104,-170,141,165,165,34,-34,-68
-253,-292,-39,273,-107,-165,141,170,170,39,-34,-68
-253,-292,-39,273,-107,-165,141,175,175,43,-34,-68
-244,-283,-39,263,-102,-161,146,180,180,48,-39,-78
-244,-278,-34,261,-104,-156,146,185,185,53,-34,-78
-244,-278,-34,261,-104,-156,146,190,195,58,-29,-73
-244,-278,-34,261,-104,-156,151,200,200,68,-29,-73
-234,-283,-48,258,-92,-165,151,204,214,73,-24,-68
-234,-278,-43,256,-95,-161,156,214,224,78,-19,-68
-234,-278,-43,256,-95,-161,156,219,234,82,-14,-63
-229,-273,-43,251,-92,-158,156,229,244,92,-14,-63
-234,-263,-29,248,-102,-146,161,234,253,107,-4,-53
-234,-258,-24,246,-104,-141,161,239,263,117,4,-53
-234,-258,-24,246,-104,-141,161,244,278,117,4,-53
-234,-253,-19,244,-107,-136,165,258,287,126,9,-48
-224,-253,-29,239,-97,-141,165,268,302,136,14,-58
-224,-253,-29,239,-97,-141,170,278,322,151,19,-53
-224,-248,-24,236,-100,-136,170,287,331,161,24,-48
-219,-239,-19,229,-100,-129,180,297,346,170,29,-48
-214,-234,-19,224,-97,-126,185,307,370,180,34,-43
-214,-229,-14,222,-100,-122,185,322,385,190,43,-39
-214,-224,-9,219,-102,-117,185,331,400,200,48,-34
-214,-224,-9,219,-102,-117,185,346,414,209,48,-34
-224,-219,4,222,-114,-107,180,346,429,224,68,-24
-219,-214,4,217,-112,-104,185,361,448,239,73,-24
-214,-204,9,209,-112,-97,190,380,468,248,87,-19
-214,-195,19,204,-117,-87,190,390,488,258,92,-14
-209,-200,9,204,-109,-95,190,414,512,278,97,-9
-209,-195,14,202,-112,-90,200,429,527,287,112,-4
-204,-185,19,195,-112,-82,200,434,546,307,117,0
-200,-175,24,187,-112,-75,204,453,566,312,122,4
-190,-165,24,178,-107,-70,214,463,585,341,126,4
-185,-151,34,168,-109,-58,219,483,605,356,141,14
-185,-141,43,163,-114,-48,219,497,629,370,146,19
-185,-122,63,153,-124,-29,224,507,649,385,156,19
-180,-122,58,151,-119,-31,224,522,668,385,156,24
-180,-112,68,146,-124,-21,224,536,688,400,165,29
-175,-112,63,143,-119,-24,229,551,707,414,175,34
-175,-97,78,136,-126,-9,229,556,727,429,180,39
-175,-78,97,126,-136,9,219,561,741,453,200,43
-170,-68,102,119,-136,17,219,570,761,468,209,48
-165,-58,107,112,-136,24,219,585,785,483,219,53
-165,-48,117,107,-141,34,219,590,800,497,224,58
-165,-48,117,107,-141,34,219,600,819,502,224,68
-161,-39,122,100,-141,41,219,605,839,507,229,68
-156,-29,126,92,-141,48,219,614,854,527,239,73
-151,-19,131,85,-141,56,214,619,863,531,244,78
-146,0,146,73,-146,73,214,619,868,546,253,82
-141,9,151,65,-146,80,214,629,878,561,263,87
-136,14,151,61,-143,82,209,629,893,570,273,92
-136,24,161,56,-148,92,209,634,902,580,273,97
-122,34,156,43,-139,95,204,634,917,575,278,107
-117,39,156,39,-136,97,195,629,922,585,283,107
-112,48,161,31,-136,104,190,624,927,585,287,112
-107,53,161,26,-134,107,185,619,927,585,287,117
-102,58,161,21,-131,109,175,610,927,585,283,112
-97,63,161,17,-129,112,165,610,927,590,283,117
-92,73,165,9,-129,119,156,595,917,590,283,122
-87,78,165,4,-126,122,151,580,912,585,283,126
-82,78,161,2,-122,119,146,575,902,580,283,141
-82,82,165,0,-124,124,141,570,897,580,283,146
-68,92,161,-12,-114,126,131,551,888,575,278,146
-68,92,161,-12,-114,126,117,536,868,570,278,146
-63,82,146,-9,-104,114,117,507,839,561,278,146
-63,82,146,-9,-104,114,107,488,814,546,273,146
-58,82,141,-12,-100,112,92,463,785,531,268,146
-53,78,131,-12,-92,104,82,444,771,517,258,146
-48,73,122,-12,-85,97,73,424,741,492,253,141
-43,73,117,-14,-80,95,63,405,717,478,248,141
-39,58,97,-9,-68,78,53,385,688,463,234,141
-39,53,92,-7,-65,73,48,366,658,439,219,141
-34,58,92,-12,-63,75,34,351,619,424,214,126
-29,48,78,-9,-53,63,24,331,590,400,204,126
-29,34,63,-2,-46,48,14,307,551,380,195,122
-29,24,53,2,-41,39,4,278,512,351,185,117
-29,0,29,14,-29,14,-4,253,478,326,161,117
-29,-14,14,21,-21,0,-4,234,444,297,146,112
-29,-29,0,29,-14,-14,-4,219,414,278,136,107
-34,-39,-4,36,-14,-21,-9,200,380,258,126,102
-34,-43,-9,39,-12,-26,-9,170,346,248,126,97
-34,-53,-19,43,-7,-36,-14,151,317,229,117,92
-39,-68,-29,53,-4,-48,-19,141,283,209,102,82
-48,-82,-34,65,-7,-58,-24,122,248,185,92,73
-53,-97,-43,75,-4,-70,-29,112,219,156,78,63
-58,-107,-48,82,-4,-78,-29,97,200,141,68,58
-63,-117,-53,90,-4,-85,-29,82,175,122,58,53
-63,-131,-68,97,2,-100,-29,73,151,107,58,48
-78,-141,-63,109,-7,-102,-19,68,136,107,48,48
-82,-146,-63,114,-9,-104,-14,63,117,97,43,48
-87,-151,-63,119,-12,-107,-14,48,92,87,43,43
-87,-165,-78,126,-4,-122,-14,39,73,73,39,39
-87,-170,-82,129,-2,-126,-14,29,58,58,34,34
-87,-180,-92,134,2,-136,-14,19,48,43,29,29
-92,-190,-97,141,2,-143,-14,14,34,34,24,24
-97,-195,-97,146,0,-146,-14,9,29,24,24,24
-117,-200,-82,158,-17,-141,-19,0,9,24,14,19
-117,-204,-87,161,-14,-146,-19,0,-4,19,9,19
-117,-209,-92,163,-12,-151,-19,-4,-19,9,4,19
-122,-219,-97,170,-12,-158,-19,-9,-29,0,0,19
-126,-219,-92,173,-17,-156,-9,-14,-34,-14,4,9
-126,-224,-97,175,-14,-161,-9,-19,-39,-19,0,4
-131,-229,-97,180,-17,-163,-9,-19,-43,-24,-4,4
-136,-229,-92,183,-21,-161,-9,-24,-43,-29,-4,0
-126,-224,-97,175,-14,-161,-9,-24,-48,-19,-14,0
-126,-224,-97,175,-14,-161,-9,-34,-48,-19,-14,0
-126,-224,-97,175,-14,-161,-9,-34,-53,-24,-14,-4
-126,-224,-97,175,-14,-161,-9,-34,-63,-29,-19,-4
-136,-234,-97,185,-19,-165,-9,-34,-63,-43,-19,0
-136,-244,-107,190,-14,-175,-9,-34,-68,-43,-19,0
-141,-244,-102,192,-19,-173,-9,-34,-68,-43,-19,0
-141,-244,-102,192,-19,-173,-4,-34,-73,-39,-19,0
-141,-244,-102,192,-19,-173,-4,-34,-73,-29,-19,-9
-141,-244,-102,192,-19,-173,-4,-39,-73,-29,-19,-9
-146,-244,-97,195,-24,-170,-4,-39,-73,-29,-24,-9
-146,-248,-102,197,-21,-175,-4,-39,-78,-39,-24,-9
-146,-244,-97,195,-24,-170,-4,-39,-78,-39,-14,0
-146,-239,-92,192,-26,-165,-4,-39,-82,-39,-14,4
-146,-234,-87,190,-29,-161,0,-39,-82,-39,-9,4
-146,-234,-87,190,-29,-161,0,-34,-82,-43,-9,4
-136,-234,-97,185,-19,-165,0,-34,-73,-43,-24,0
-136,-234,-97,185,-19,-165,0,-34,-73,-43,-24,0
-136,-229,-92,183,-21,-161,0,-34,-73,-43,-19,0
-136,-229,-92,183,-21,-161,0,-29,-73,-43,-19,0
-136,-229,-92,183,-21,-161,0,-29,-73,-43,-19,-14
-136,-229,-92,183,-21,-161,0,-34,-73,-43,-24,-14
-136,-229,-92,183,-21,-161,0,-34,-73,-39,-24,-9
-136,-229,-92,183,-21,-161,0,-34,-73,-39,-24,-9
-151,-239,-87,195,-31,-163,-4,-29,-82,-39,-14,-9
-151,-239,-87,195,-31,-163,-4,-29,-78,-39,-14,-9
-151,-239,-87,195,-31,-163,-4,-29,-78,-34,-9,-9
-151,-239,-87,195,-31,-163,-4,-29,-78,-34,-9,-9
-141,-248,-107,195,-17,-178,4,-29,-68,-24,-19,0
-141,-248,-107,195,-17,-178,0,-29,-68,-24,-19,0
-141,-248,-107,195,-17,-178,0,-29,-68,-24,-19,0
-136,-248,-112,192,-12,-180,0,-29,-68,-24,-19,0
-131,-239,-107,185,-12,-173,0,-29,-68,-24,-9,0
-131,-239,-107,185,-12,-173,0,-29,-63,-24,-9,0
-136,-239,-102,187,-17,-170,0,-29,-63,-24,-9,0
-136,-239,-102,187,-17,-170,0,-24,-63,-24,-9,4
-136,-239,-102,187,-17,-170,0,-24,-63,-34,-19,-4
-141,-239,-97,190,-21,-168,0,-24,-63,-29,-19,-4
-141,-239,-97,190,-21,-168,0,-24,-63,-29,-19,-4
-141,-239,-97,190,-21,-168,0,-24,-63,-29,-19,-4
-141,-239,-97,190,-21,-168,9,-19,-53,-29,-9,-4
-141,-239,-97,190,-21,-168,14,-19,-53,-19,-9,-4
-141,-239,-97,190,-21,-168,19,-19,-43,-19,-9,-4
-141,-239,-97,190,-21,-168,19,-19,-43,-19,-9,-4
-141,-229,-87,185,-26,-158,9,-14,-43,-9,-9,-4
-141,-229,-87,185,-26,-158,9,-14,-39,-9,-9,-4
-136,-224,-87,180,-24,-156,9,-14,-34,-9,-9,-9
-136,-224,-87,180,-24,-156,4,-9,-34,-9,-9,-9
-136,-224,-87,180,-24,-156,4,-9,-34,-9,-4,-9
-141,-224,-82,183,-29,-153,14,-9,-29,-4,-4,-4
-141,-224,-82,183,-29,-153,14,-9,-29,-4,-4,-4
-136,-224,-87,180,-24,-156,14,-4,-24,0,-4,-4
-146,-234,-87,190,-29,-161,14,-4,-34,-9,-14,-4
-146,-234,-87,190,-29,-161,14,-4,-34,-9,-14,-4
-146,-234,-87,190,-29,-161,14,-4,-29,-9,-14,-4
-151,-234,-82,192,-34,-158,14,0,-29,-9,-14,-4
-141,-224,-82,183,-29,-153,19,0,-29,-4,-9,-4
-141,-224,-82,183,-29,-153,19,0,-24,-4,-9,-4
-146,-224,-78,185,-34,-151,14,0,-24,-4,-14,-4
-146,-224,-78,185,-34,-151,14,0,-24,-4,-14,-4
-136,-224,-87,180,-24,-156,14,4,-14,9,-9,4
-136,-224,-87,180,-24,-156,19,4,-14,9,-4,0
-136,-224,-87,180,-24,-156,19,4,-9,9,-4,0
-136,-224,-87,180,-24,-156,24,4,-9,9,0,0
-136,-224,-87,180,-24,-156,14,4,-14,14,-4,4
-136,-224,-87,180,-24,-156,14,9,-14,14,-4,4
-136,-224,-87,180,-24,-156,14,9,-14,9,-4,-4
-136,-219,-82,178,-26,-151,19,9,-14,9,-4,-4
-146,-229,-82,187,-31,-156,29,9,-14,9,-4,-4
-151,-229,-78,190,-36,-153,29,9,-19,9,-4,-9
-151,-229,-78,190,-36,-153,24,9,-19,4,-9,-9
-151,-234,-82,192,-34,-158,24,9,-19,4,-9,-9
-146,-229,-82,187,-31,-156,24,9,-9,-4,-19,-19
-146,-229,-82,187,-31,-156,24,9,-14,-4,-19,-19
-141,-229,-87,185,-26,-158,24,9,-14,-4,-19,-19
-141,-229,-87,185,-26,-158,24,9,-14,-4,-19,-19
-151,-229,-78,190,-36,-153,29,9,-24,-4,-19,-19
-151,-229,-78,190,-36,-153,34,9,-24,-4,-19,-19
-151,-229,-78,190,-36,-153,34,9,-24,-4,-19,-19
-151,-229,-78,190,-36,-153,29,9,-24,-9,-19,-24
-151,-224,-73,187,-39,-148,19,9,-24,-9,-19,-24
-151,-224,-73,187,-39,-148,19,9,-24,-9,-19,-24
-151,-229,-78,190,-36,-153,19,4,-29,-14,-24,-24
-151,-229,-78,190,-36,-153,19,4,-29,-14,-24,-24
-141,-219,-78,180,-31,-148,19,-4,-39,-14,-29,-24
-141,-219,-78,180,-31,-148,19,-4,-39,-19,-29,-24
-141,-219,-78,180,-31,-148,19,-4,-43,-24,-29,-24
-141,-224,-82,183,-29,-153,19,-4,-43,-24,-29,-24
-156,-224,-68,190,-43,-146,29,4,-43,-24,-29,-24
-156,-224,-68,190,-43,-146,29,4,-48,-24,-29,-24
-156,-224,-68,190,-43,-146,29,4,-48,-24,-29,-24
-156,-224,-68,190,-43,-146,29,4,-53,-29,-34,-24
-146,-224,-78,185,-34,-151,29,4,-43,-19,-34,-24
-146,-234,-87,190,-29,-161,29,4,-48,-19,-34,-29
-146,-234,-87,190,-29,-161,29,0,-48,-29,-39,-29
-146,-234,-87,190,-29,-161,29,0,-48,-29,-39,-29
-156,-234,-78,195,-39,-156,29,0,-48,-29,-29,-19
-156,-239,-82,197,-36,-161,29,0,-53,-29,-29,-19
-156,-239,-82,197,-36,-161,29,0,-53,-29,-29,-24
-156,-239,-82,197,-36,-161,24,0,-53,-39,-29,-24
-156,-234,-78,195,-39,-156,24,-9,-68,-48,-34,-34
-156,-234,-78,195,-39,-156,24,-9,-73,-48,-43,-34
-156,-234,-78,195,-39,-156,24,-9,-73,-48,-48,-39
-156,-234,-78,195,-39,-156,24,-9,-78,-53,-53,-39
-156,-234,-78,195,-39,-156,24,-4,-73,-63,-53,-34
-151,-239,-87,195,-31,-163,24,-9,-73,-63,-53,-34
-151,-239,-87,195,-31,-163,24,-9,-73,-63,-53,-34
-151,-239,-87,195,-31,-163,29,-9,-73,-63,-58,-34
-151,-239,-87,195,-31,-163,29,-19,-73,-58,-48,-34
-151,-239,-87,195,-31,-163,29,-19,-73,-58,-48,-34
-151,-239,-87,195,-31,-163,24,-19,-78,-58,-48,-34
-156,-239,-82,197,-36,-161,24,-24,-82,-63,-48,-34
-156,-239,-82,197,-36,-161,14,-24,-92,-63,-58,-34
-156,-239,-82,197,-36,-161,14,-19,-92,-63,-58,-34
-151,-239,-87,195,-31,-163,14,-19,-92,-63,-58,-34
-151,-239,-87,195,-31,-163,14,-24,-92,-63,-63,-34
-151,-244,-92,197,-29,-168,24,-14,-97,-73,-63,-34
-156,-244,-87,200,-34,-165,24,-14,-97,-73,-63,-34
-156,-244,-87,200,-34,-165,24,-14,-97,-73,-68,-34
-156,-239,-82,197,-36,-161,24,-19,-97,-78,-68,-34
-146,-229,-82,187,-31,-156,29,-19,-87,-68,-53,-43
-146,-229,-82,187,-31,-156,29,-19,-87,-68,-53,-39
-146,-229,-82,187,-31,-156,24,-19,-92,-68,-53,-39
-146,-224,-78,185,-34,-151,24,-19,-92,-68,-53,-39
-141,-224,-82,183,-29,-153,14,-29,-92,-68,-53,-29
-141,-224,-82,183,-29,-153,14,-29,-92,-73,-53,-29
-141,-234,-92,187,-24,-163,14,-24,-92,-73,-53,-34
-141,-234,-92,187,-24,-163,14,-24,-97,-73,-58,-34
-151,-234,-82,192,-34,-158,24,-29,-107,-78,-68,-43
-151,-234,-82,192,-34,-158,24,-29,-107,-78,-63,-43
-151,-234,-82,192,-34,-158,24,-29,-107,-78,-63,-43
-151,-234,-82,192,-34,-158,24,-29,-107,-78,-68,-39
-141,-234,-92,187,-24,-163,24,-29,-107,-78,-68,-29
-141,-234,-92,187,-24,-163,24,-29,-107,-78,-68,-34
-141,-229,-87,185,-26,-158,24,-29,-107,-78,-73,-34
-141,-229,-87,185,-26,-158,24,-29,-112,-82,-73,-34
-151,-239,-87,195,-31,-163,14,-29,-102,-78,-63,-34
-151,-239,-87,195,-31,-163,14,-29,-102,-78,-63,-34
-151,-244,-92,197,-29,-168,14,-29,-102,-78,-63,-34
-151,-244,-92,197,-29,-168,14,-29,-102,-78,-58,-34
-146,-239,-92,192,-26,-165,14,-29,-112,-78,-68,-43
-146,-239,-92,192,-26,-165,14,-29,-112,-78,-68,-43
-146,-239,-92,192,-26,-165,9,-29,-112,-78,-68,-43
-151,-244,-92,197,-29,-168,9,-34,-112,-78,-68,-43
-151,-234,-82,192,-34,-158,14,-34,-102,-78,-68,-34
-146,-234,-87,190,-29,-161,14,-34,-107,-78,-68,-34
-146,-239,-92,192,-26,-165,14,-39,-112,-82,-68,-39
-146,-239,-92,192,-26,-165,14,-39,-112,-82,-68,-39
-151,-239,-87,195,-31,-163,14,-34,-112,-78,-68,-39
-151,-239,-87,195,-31,-163,14,-34,-112,-78,-68,-39
-146,-234,-87,190,-29,-161,14,-34,-112,-78,-68,-39
-146,-234,-87,190,-29,-161,14,-34,-107,-78,-68,-39
-146,-224,-78,185,-34,-151,14,-34,-117,-78,-68,-39
-146,-224,-78,185,-34,-151,14,-34,-117,-78,-68,-39
-141,-224,-82,183,-29,-153,14,-34,-117,-78,-68,-34
-141,-224,-82,183,-29,-153,14,-34,-117,-78,-68,-34
-151,-224,-73,187,-39,-148,9,-34,-117,-78,-68,-39
-151,-224,-73,187,-39,-148,9,-39,-122,-82,-68,-39
-151,-224,-73,187,-39,-148,9,-43,-122,-82,-68,-39
-151,-224,-73,187,-39,-148,9,-43,-122,-82,-68,-39
-151,-224,-73,187,-39,-148,9,-43,-122,-82,-68,-39
-146,-224,-78,185,-34,-151,9,-39,-122,-82,-68,-39
-141,-224,-82,183,-29,-153,9,-39,-122,-82,-68,-39
-136,-224,-87,180,-24,-156,9,-39,-122,-78,-68,-39
-146,-224,-78,185,-34,-151,9,-39,-122,-78,-73,-39
-141,-224,-82,183,-29,-153,9,-39,-122,-78,-73,-39
-141,-224,-82,183,-29,-153,9,-39,-122,-78,-73,-39
-141,-224,-82,183,-29,-153,9,-39,-122,-78,-73,-39
-141,-214,-73,178,-34,-143,14,-39,-112,-78,-63,-29
-141,-214,-73,178,-34,-143,14,-43,-112,-78,-68,-29
-141,-214,-73,178,-34,-143,9,-34,-122,-87,-68,-39
-141,-214,-73,178,-34,-143,19,-39,-122,-87,-73,-39
-136,-214,-78,175,-29,-146,19,-39,-117,-78,-68,-39
-136,-214,-78,175,-29,-146,14,-39,-126,-78,-78,-39
-136,-214,-78,175,-29,-146,9,-39,-126,-78,-78,-39
-136,-214,-78,175,-29,-146,4,-39,-126,-78,-78,-39
-136,-214,-78,175,-29,-146,0,-39,-126,-78,-78,-39
-136,-214,-78,175,-29,-146,9,-48,-126,-87,-78,-29
-136,-214,-78,175,-29,-146,9,-48,-126,-87,-78,-29
-136,-214,-78,175,-29,-146,9,-48,-126,-87,-78,-29
-136,-214,-78,175,-29,-146,9,-48,-126,-87,-78,-29
-136,-214,-78,175,-29,-146,9,-39,-126,-87,-78,-39
-136,-214,-78,175,-29,-146,9,-39,-126,-87,-78,-39
-136,-214,-78,175,-29,-146,9,-39,-126,-87,-78,-39
-136,-214,-78,175,-29,-146,9,-39,-126,-87,-78,-39
-136,-214,-78,175,-29,-146,0,-48,-126,-87,-78,-39
-136,-214,-78,175,-29,-146,0,-48,-126,-87,-78,-39
-136,-214,-78,175,-29,-146,0,-48,-126,-87,-78,-39
-136,-214,-78,175,-29,-146,0,-48,-126,-87,-78,-39
-136,-204,-68,170,-34,-136,9,-48,-126,-87,-68,-39
-136,-204,-68,170,-34,-136,9,-48,-126,-87,-68,-39
-136,-204,-68,170,-34,-136,9,-48,-126,-87,-68,-39
-136,-204,-68,170,-34,-136,9,-48,-126,-87,-68,-39
-136,-204,-68,170,-34,-136,9,-48,-126,-78,-68,-39
-136,-204,-68,170,-34,-136,9,-48,-126,-78,-68,-39
-136,-204,-68,170,-34,-136,9,-48,-126,-78,-68,-39
-136,-204,-68,170,-34,-136,9,-48,-126,-78,-68,-39
-126,-204,-78,165,-24,-141,9,-48,-126,-87,-68,-39
-126,-204,-78,165,-24,-141,9,-48,-126,-87,-68,-39
-126,-204,-78,165,-24,-141,9,-48,-126,-87,-68,-39
-126,-204,-78,165,-24,-141,9,-48,-126,-87,-68,-39
-136,-195,-58,165,-39,-126,0,-48,-136,-87,-68,-39
-136,-195,-58,165,-39,-126,0,-48,-136,-87,-68,-39
-136,-195,-58,165,-39,-126,0,-48,-136,-87,-68,-39
-136,-195,-58,165,-39,-126,0,-48,-136,-87,-68,-39
-136,-204,-68,170,-34,-136,0,-58,-136,-87,-78,-39
-136,-204,-68,170,-34,-136,0,-58,-136,-87,-78,-39
-136,-204,-68,170,-34,-136,0,-58,-136,-87,-78,-39
-136,-204,-68,170,-34,-136,0,-58,-136,-87,-78,-39
-126,-204,-78,165,-24,-141,0,-48,-136,-97,-78,-39
-126,-204,-78,165,-24,-141,0,-48,-136,-97,-78,-39
-126,-204,-78,165,-24,-141,0,-48,-136,-97,-78,-39
-126,-204,-78,165,-24,-141,0,-48,-136,-97,-78,-39
-131,-204,-73,168,-29,-139,0,-58,-146,-97,-78,-48
-136,-204,-68,170,-34,-136,0,-58,-146,-97,-78,-48
-141,-204,-63,173,-39,-134,0,-58,-146,-97,-78,-48
-146,-204,-58,175,-43,-131,0,-58,-146,-97,-78,-48
-141,-195,-53,168,-43,-124,9,-48,-146,-97,-78,-39
-136,-195,-58,165,-39,-126,9,-48,-146,-97,-78,-39
-131,-195,-63,163,-34,-129,9,-48,-146,-97,-78,-39
-126,-195,-68,161,-29,-131,9,-48,-146,-97,-78,-39
-136,-185,-48,161,-43,-117,9,-48,-136,-87,-78,-39
-136,-185,-48,161,-43,-117,9,-48,-136,-87,-78,-39
-136,-185,-48,161,-43,-117,9,-48,-136,-87,-78,-39
-136,-185,-48,161,-43,-117,9,-48,-136,-87,-78,-39
-136,-185,-48,161,-43,-117,0,-58,-146,-97,-87,-48
-136,-185,-48,161,-43,-117,0,-58,-146,-97,-87,-48
-136,-185,-48,161,-43,-117,0,-58,-146,-97,-87,-48
-136,-185,-48,161,-43,-117,0,-58,-146,-97,-87,-48
-126,-195,-68,161,-29,-131,0,-48,-146,-97,-87,-48
-126,-195,-68,161,-29,-131,0,-48,-146,-97,-87,-48
-126,-195,-68,161,-29,-131,0,-48,-146,-97,-87,-48
-126,-195,-68,161,-29,-131,0,-48,-146,-97,-87,-48
-126,-195,-68,161,-29,-131,9,-58,-146,-97,-78,-48
-126,-195,-68,161,-29,-131,9,-58,-146,-97,-78,-48
-126,-195,-68,161,-29,-131,9,-58,-146,-97,-78,-48
-126,-195,-68,161,-29,-131,9,-58,-146,-97,-78,-48
-136,-185,-48,161,-43,-117,0,-48,-146,-87,-87,-48
-136,-185,-48,161,-43,-117,0,-48,-146,-87,-87,-48
-136,-185,-48,161,-43,-117,0,-48,-146,-87,-87,-48
-136,-185,-48,161,-43,-117,0,-48,-146,-87,-87,-48
-126,-185,-58,156,-34,-122,0,-48,-136,-87,-78,-39
-126,-185,-58,156,-34,-122,0,-48,-136,-87,-78,-39
-126,-185,-58,156,-34,-122,0,-48,-136,-87,-78,-39
-126,-185,-58,156,-34,-122,0,-48,-136,-87,-78,-39
-136,-185,-48,161,-43,-117,0,-58,-136,-87,-78,-39
-136,-185,-48,161,-43,-117,0,-58,-136,-87,-78,-39
-136,-185,-48,161,-43,-117,0,-58,-136,-87,-78,-39
-136,-185,-48,161,-43,-117,0,-58,-136,-87,-78,-39
-136,-185,-48,161,-43,-117,9,-48,-146,-97,-87,-48
-136,-185,-48,161,-43,-117,9,-48,-146,-97,-87,-48
-136,-185,-48,161,-43,-117,9,-48,-146,-97,-87,-48
-136,-185,-48,161,-43,-117,9,-48,-146,-97,-87,-48
-136,-175,-39,156,-48,-107,9,-48,-146,-87,-78,-48
-136,-175,-39,156,-48,-107,9,-48,-146,-87,-78,-48
-136,-175,-39,156,-48,-107,9,-48,-146,-87,-78,-48
-136,-175,-39,156,-48,-107,9,-48,-146,-87,-78,-48
-126,-170,-43,148,-41,-107,9,-48,-136,-78,-78,-39
-126,-165,-39,146,-43,-102,9,-48,-136,-78,-78,-39
-126,-161,-34,143,-46,-97,9,-48,-136,-78,-78,-39
-126,-156,-29,141,-48,-92,9,-48,-136,-78,-78,-39
-117,-151,-34,134,-41,-92,0,-48,-126,-87,-78,-39
-117,-141,-24,129,-46,-82,0,-43,-122,-87,-78,-39
-117,-136,-19,126,-48,-78,0,-39,-117,-82,-68,-34
-112,-122,-9,117,-51,-65,0,-39,-112,-73,-68,-24
-112,-122,-9,117,-51,-65,9,-34,-107,-68,-53,-29
-112,-117,-4,114,-53,-61,9,-34,-102,-63,-48,-24
-107,-107,0,107,-53,-53,4,-34,-97,-58,-43,-19
-107,-102,4,104,-56,-48,4,-29,-92,-58,-43,-19
-102,-92,9,97,-56,-41,4,-29,-87,-53,-34,-9
-92,-87,4,90,-48,-41,4,-29,-87,-48,-34,-9
-87,-82,4,85,-46,-39,4,-34,-87,-48,-34,-4
-78,-82,-4,80,-36,-43,4,-34,-82,-48,-34,-4
-87,-82,4,85,-46,-39,4,-48,-92,-43,-34,-4
-82,-78,4,80,-43,-36,0,-48,-82,-39,-29,0
-78,-78,0,78,-39,-39,-4,-43,-82,-39,-29,0
-78,-73,4,75,-41,-34,-4,-43,-82,-39,-24,0
-68,-63,4,65,-36,-29,-24,-43,-82,-39,-34,-4
-68,-68,0,68,-34,-34,-29,-43,-82,-39,-34,-4
-58,-68,-9,63,-24,-39,-39,-53,-82,-34,-34,4
-43,-53,-9,48,-17,-31,-58,-58,-82,-24,-24,9
-48,-48,0,48,-24,-24,-63,-58,-73,-24,-9,14
-48,-48,0,48,-24,-24,-73,-63,-78,-29,-9,14
-48,-48,0,48,-24,-24,-82,-73,-78,-29,-14,14
-43,-43,0,43,-21,-21,-87,-82,-82,-34,-14,14
-43,-34,9,39,-26,-12,-107,-97,-97,-39,-29,4
-43,-34,9,39,-26,-12,-117,-112,-107,-48,-34,0
-43,-34,9,39,-26,-12,-117,-112,-117,-58,-39,0
-39,-39,0,39,-19,-19,-112,-112,-136,-58,-43,0
-39,-48,-9,43,-14,-29,-92,-102,-131,-53,-43,9
-39,-63,-24,51,-7,-43,-87,-102,-141,-63,-43,0
-39,-68,-29,53,-4,-48,-82,-102,-146,-78,-48,-4
-39,-82,-43,61,2,-63,-73,-102,-156,-78,-53,-4
-39,-87,-48,63,4,-68,-73,-102,-170,-92,-68,-19
-39,-87,-48,63,4,-68,-68,-107,-175,-97,-73,-24
-39,-102,-63,70,12,-82,-68,-107,-175,-107,-78,-29
-39,-107,-68,73,14,-87,-58,-97,-175,-107,-78,-29
-48,-112,-63,80,7,-87,-48,-97,-165,-102,-78,-29
-53,-112,-58,82,2,-85,-39,-97,-165,-102,-78,-29
-58,-117,-58,87,0,-87,-39,-92,-165,-102,-78,-29
-63,-117,-53,90,-4,-85,-39,-87,-165,-102,-73,-29
-58,-117,-58,87,0,-87,-34,-73,-156,-87,-68,-19
-58,-117,-58,87,0,-87,-34,-68,-151,-82,-58,-14
-63,-112,-48,87,-7,-80,-29,-68,-146,-82,-53,-14
-68,-112,-43,90,-12,-78,-24,-68,-146,-82,-48,-14
-82,-112,-29,97,-26,-70,-19,-78,-156,-92,-58,-29
-92,-117,-24,104,-34,-70,-19,-73,-156,-97,-68,-34
-117,-126,-9,122,-53,-68,-9,-68,-156,-97,-82,-39
-151,-136,14,143,-82,-61,4,-63,-156,-107,-87,-48
-165,-161,4,163,-85,-78,9,-63,-165,-122,-92,-63
-170,-170,0,170,-85,-85,9,-63,-170,-126,-102,-73
-170,-180,-9,175,-80,-95,9,-68,-170,-131,-107,-78
-165,-180,-14,173,-75,-97,9,-68,-170,-131,-107,-78
-165,-180,-14,173,-75,-97,19,-73,-180,-131,-117,-78
-161,-180,-19,170,-70,-100,14,-73,-180,-126,-117,-73
-161,-175,-14,168,-73,-95,14,-68,-180,-126,-112,-73
-151,-175,-24,163,-63,-100,14,-68,-175,-122,-107,-68
-151,-170,-19,161,-65,-95,14,-68,-175,-122,-97,-68
-146,-170,-24,158,-61,-97,14,-68,-175,-122,-97,-68
-146,-165,-19,156,-63,-92,14,-63,-175,-122,-102,-68
-151,-165,-14,158,-68,-90,14,-63,-175,-122,-102,-68
-151,-161,-9,156,-70,-85,14,-63,-165,-112,-112,-68
-151,-156,-4,153,-73,-80,14,-63,-165,-112,-112,-68
-146,-151,-4,148,-70,-78,14,-63,-165,-112,-112,-68
-146,-146,0,146,-73,-73,19,-63,-165,-112,-112,-68
-146,-141,4,143,-75,-68,9,-73,-175,-122,-112,-68
-146,-141,4,143,-75,-68,9,-68,-170,-122,-107,-68
-146,-141,4,143,-75,-68,9,-68,-170,-122,-107,-68
-146,-141,4,143,-75,-68,9,-68,-170,-122,-112,-68
-146,-151,-4,148,-70,-78,4,-58,-170,-117,-112,-68
-146,-151,-4,148,-70,-78,4,-58,-170,-117,-107,-68
-146,-151,-4,148,-70,-78,4,-63,-170,-117,-107,-68
-146,-156,-9,151,-68,-82,4,-63,-170,-117,-107,-68
-146,-156,-9,151,-68,-82,9,-73,-170,-117,-107,-68
-146,-151,-4,148,-70,-78,9,-73,-170,-117,-107,-68
-146,-151,-4,148,-70,-78,9,-68,-170,-117,-107,-68
-146,-151,-4,148,-70,-78,9,-68,-170,-117,-107,-68
-146,-151,-4,148,-70,-78,9,-63,-156,-117,-107,-63
-151,-151,0,151,-75,-75,24,-53,-156,-117,-107,-68
-170,-146,24,158,-97,-61,39,-29,-131,-112,-102,-82
-180,-161,19,170,-100,-70,78,9,-102,-97,-112,-102
-200,-185,14,192,-107,-85,126,87,-48,-87,-126,-141
-229,-209,19,219,-124,-95,190,170,29,-63,-131,-165
-239,-214,24,226,-131,-95,253,244,117,-19,-131,-185
-244,-204,39,224,-141,-82,302,326,229,34,-117,-195
-248,-195,53,222,-151,-70,346,405,346,107,-78,-185
-248,-175,73,212,-161,-51,370,463,444,190,-29,-170
-229,-141,87,185,-158,-26,385,517,531,283,39,-126
-190,-107,82,148,-136,-12,395,580,610,390,131,-68
-156,-73,82,114,-119,4,405,629,644,468,214,-19
-112,-43,68,78,-90,12,385,639,614,502,287,29
-14,-9,4,12,-9,-2,326,614,541,531,366,107
107,48,-58,-78,82,-4,239,561,483,600,488,219
258,156,-102,-207,180,26,117,478,444,746,697,400
429,297,-131,-363,280,82,-78,331,375,922,941,614
575,444,-131,-509,353,156,-297,122,244,1058,1176,839
727,600,-126,-663,427,236,-522,-87,141,1205,1415,1058
878,805,-73,-841,475,366,-766,-317,34,1332,1649,1307
995,1024,29,-1010,483,527,-1049,-644,-122,1395,1830,1522
1078,1195,117,-1137,480,656,-1322,-1015,-341,1351,1917,1698
1132,1307,175,-1220,478,741,-1542,-1390,-610,1200,1908,1820
1127,1376,248,-1251,439,812,-1737,-1766,-961,883,1737,1864
1039,1361,322,-1200,358,841,-1849,-2122,-1381,390,1385,1781
912,1229,317,-1071,297,773,-1869,-2361,-1864,-214,893,1586
819,1015,195,-917,312,605,-1825,-2430,-2352,-839,375,1327
741,722,-19,-732,380,351,-1708,-2322,-2669,-1356,-102,1039
678,366,-312,-522,495,26,-1527,-2074,-2766,-1673,-492,722
629,82,-546,-356,588,-231,-1332,-1815,-2679,-1786,-707,488
566,-9,-575,-278,570,-292,-1210,-1634,-2479,-1727,-771,366
478,0,-478,-239,478,-239,-1083,-1459,-2205,-1581,-761,292
390,24,-366,-207,378,-170,-927,-1239,-1859,-1351,-678,239
312,58,-253,-185,283,-97,-780,-1005,-1507,-1093,-566,204
263,92,-170,-178,217,-39,-658,-810,-1220,-883,-463,195
204,112,-92,-158,148,9,-541,-653,-1005,-727,-375,170
131,102,-29,-117,80,36,-453,-541,-834,-605,-322,131
68,73,4,-70,31,39,-375,-478,-673,-502,-278,78
4,39,34,-21,-14,36,-307,-414,-531,-414,-244,29
-29,-14,14,21,-21,0,-224,-336,-419,-341,-214,-4
-58,-68,-9,63,-24,-39,-136,-234,-322,-273,-185,-34
-82,-112,-29,97,-26,-70,-43,-136,-244,-204,-151,-53
-112,-117,-4,114,-53,-61,4,-68,-180,-156,-136,-58
-126,-126,0,126,-63,-63,14,-43,-151,-126,-122,-58
-126,-117,9,122,-68,-53,14,-43,-141,-131,-117,-63
-131,-97,34,114,-82,-31,4,-43,-126,-126,-117,-63
-156,-97,58,126,-107,-19,14,-43,-107,-117,-107,-73
-165,-107,58,136,-112,-24,24,-39,-102,-117,-107,-82
-151,-122,29,136,-90,-46,29,-43,-92,-122,-112,-87
-151,-131,19,141,-85,-56,39,-34,-87,-112,-117,-87
-151,-131,19,141,-85,-56,48,-19,-92,-117,-122,-87
-151,-131,19,141,-85,-56,48,-19,-92,-117,-131,-97
-161,-122,39,141,-100,-41,48,-9,-87,-112,-131,-97
-170,-126,43,148,-107,-41,58,0,-78,-107,-131,-97
-175,-126,48,151,-112,-39,63,0,-73,-107,-126,-102
-175,-126,48,151,-112,-39,63,4,-63,-102,-126,-102
-180,-126,53,153,-117,-36,68,9,-58,-97,-122,-102
-190,-136,53,163,-122,-41,73,4,-48,-97,-122,-102
-190,-146,43,168,-117,-51,78,9,-43,-92,-122,-107
-190,-146,43,168,-117,-51,78,9,-43,-87,-126,-107
-190,-146,43,168,-117,-51,82,9,-43,-82,-126,-107
-190,-146,43,168,-117,-51,87,14,-39,-92,-126,-117
-190,-141,48,165,-119,-46,87,19,-39,-92,-126,-117
-190,-136,53,163,-122,-41,87,19,-34,-87,-117,-122
-190,-136,53,163,-122,-41,87,19,-29,-87,-117,-122
-185,-126,58,156,-122,-34,82,24,-24,-73,-112,-112
-185,-131,53,158,-119,-39,82,24,-24,-73,-112,-112
-190,-136,53,163,-122,-41,82,24,-24,-73,-112,-112
-190,-136,53,163,-122,-41,87,29,-19,-73,-107,-112
-175,-126,48,151,-112,-39,87,29,-19,-73,-112,-107
-175,-126,48,151,-112,-39,82,29,-14,-73,-112,-107
-175,-122,53,148,-114,-34,82,34,-4,-73,-112,-107
-175,-122,53,148,-114,-34,82,34,-4,-73,-117,-107
-175,-131,43,153,-109,-43,92,34,-19,-73,-117,-117
-180,-131,48,156,-114,-41,92,39,-19,-73,-117,-117
-180,-131,48,156,-114,-41,92,39,-14,-68,-117,-117
-180,-131,48,156,-114,-41,97,39,-14,-68,-117,-117
-180,-131,48,156,-114,-41,87,29,0,-63,-117,-112
-180,-131,48,156,-114,-41,87,34,0,-63,-117,-112
-180,-131,48,156,-114,-41,92,39,4,-63,-112,-112
-180,-131,48,156,-114,-41,92,39,9,-58,-112,-112
-190,-131,58,161,-124,-36,87,39,14,-53,-112,-112
-190,-131,58,161,-124,-36,87,39,14,-53,-112,-112
-185,-131,53,158,-119,-39,92,43,14,-53,-107,-112
-185,-131,53,158,-119,-39,92,43,19,-53,-107,-112
-190,-126,63,158,-126,-31,92,43,14,-48,-107,-102
-190,-126,63,158,-126,-31,97,48,14,-48,-107,-107
-190,-122,68,156,-129,-26,97,48,24,-48,-102,-107
-190,-122,68,156,-129,-26,92,48,24,-48,-102,-107
-190,-122,68,156,-129,-26,92,48,24,-43,-102,-112
-190,-122,68,156,-129,-26,92,48,29,-43,-102,-112
-190,-122,68,156,-129,-26,92,48,29,-39,-102,-112
-190,-122,68,156,-129,-26,92,53,29,-39,-97,-112
-190,-122,68,156,-129,-26,92,53,39,-39,-97,-112
-185,-122,63,153,-124,-29,92,58,43,-39,-97,-112
-185,-122,63,153,-124,-29,92,63,43,-34,-97,-112
-185,-122,63,153,-124,-29,102,63,48,-29,-97,-112
-185,-112,73,148,-129,-19,102,73,53,-29,-92,-112
-185,-112,73,148,-129,-19,97,78,58,-29,-92,-112
-185,-112,73,148,-129,-19,97,82,63,-29,-92,-112
-185,-117,68,151,-126,-24,97,87,68,-29,-92,-112
-180,-117,63,148,-122,-26,97,78,73,-29,-92,-102
-180,-117,63,148,-122,-26,97,78,73,-24,-92,-102
-175,-112,63,143,-119,-24,102,87,78,-19,-87,-102
-175,-112,63,143,-119,-24,102,92,82,-14,-82,-102
-175,-112,63,143,-119,-24,107,97,87,-9,-82,-102
-175,-112,63,143,-119,-24,107,97,92,-4,-82,-102
-175,-107,68,141,-122,-19,107,102,97,0,-82,-102
-175,-107,68,141,-122,-19,107,107,107,0,-78,-102
-185,-107,78,146,-131,-14,107,112,112,4,-73,-112
-185,-102,82,143,-134,-9,112,117,117,4,-73,-107
-185,-97,87,141,-136,-4,112,122,122,9,-73,-107
-185,-97,87,141,-136,-4,112,126,126,14,-73,-107
-185,-107,78,146,-131,-14,117,122,151,19,-68,-107
-185,-102,82,143,-134,-9,117,126,156,24,-63,-107
-185,-102,82,143,-134,-9,117,131,165,29,-58,-102
-185,-102,82,143,-134,-9,122,141,170,39,-58,-102
-180,-92,87,136,-134,-2,122,146,185,43,-53,-87
-175,-82,92,129,-134,4,126,156,195,48,-48,-87
-170,-78,92,124,-131,7,126,161,204,53,-43,-82
-161,-68,92,114,-126,12,126,170,214,63,-43,-82
-165,-78,87,122,-126,4,131,175,224,78,-43,-92
-165,-73,92,119,-129,9,131,180,234,87,-34,-92
-165,-73,92,119,-129,9,131,185,248,87,-34,-92
-165,-68,97,117,-131,14,136,200,258,97,-29,-87
-165,-68,97,117,-131,14,126,209,263,97,-24,-87
-165,-68,97,117,-131,14,131,219,283,112,-19,-82
-165,-63,102,114,-134,19,131,229,292,122,-14,-78
-161,-53,107,107,-134,26,141,239,307,131,-9,-78
-156,-48,107,102,-131,29,156,248,331,151,4,-73
-156,-43,112,100,-134,34,156,263,346,161,14,-68
-156,-39,117,97,-136,39,156,273,361,170,19,-63
-156,-39,117,97,-136,39,156,287,375,180,19,-63
-156,-24,131,90,-143,53,161,287,390,195,29,-63
-151,-19,131,85,-141,56,165,302,409,209,34,-63
-146,-9,136,78,-141,63,170,322,429,219,48,-58
-146,0,146,73,-146,73,170,331,448,229,53,-53
-141,4,146,68,-143,75,161,346,473,248,48,-48
-141,9,151,65,-146,80,170,361,488,258,63,-43
-136,19,156,58,-146,87,170,366,507,278,68,-39
-131,29,161,51,-146,95,175,385,527,283,73,-34
-131,34,165,48,-148,100,175,385,546,302,87,-43
-126,43,170,41,-148,107,180,405,566,317,102,-34
-126,48,175,39,-151,112,180,419,590,331,107,-29
-126,63,190,31,-158,126,185,429,610,346,117,-29
-122,73,195,24,-158,134,185,444,639,356,117,-14
-122,82,204,19,-163,143,185,458,658,370,126,-9
-117,82,200,17,-158,141,190,473,678,385,136,-4
-117,97,214,9,-165,156,190,478,697,400,141,0
-117,97,214,9,-165,156,190,492,712,414,151,4
-112,107,219,2,-165,163,190,502,732,429,161,9
-107,117,224,-4,-165,170,190,517,756,444,170,14
-107,126,234,-9,-170,180,190,522,771,458,175,19
-97,136,234,-19,-165,185,190,531,790,473,195,39
-92,146,239,-26,-165,192,190,536,810,478,200,39
-87,156,244,-34,-165,200,190,546,824,497,209,43
-82,165,248,-41,-165,207,185,551,834,502,214,48
-78,185,263,-53,-170,224,175,541,839,507,214,53
-73,195,268,-61,-170,231,175,551,849,522,224,58
-68,200,268,-65,-168,234,170,551,863,531,234,63
-68,209,278,-70,-173,244,170,556,873,541,234,68
-53,209,263,-78,-158,236,165,556,878,536,239,78
-48,214,263,-82,-156,239,156,551,883,546,244,78
-43,224,268,-90,-156,246,151,546,888,546,248,82
-39,229,268,-95,-153,248,146,541,888,546,248,87
-43,244,287,-100,-165,265,136,541,888,546,253,92
-39,248,287,-104,-163,268,126,541,888,551,253,97
-34,258,292,-112,-163,275,117,527,878,551,253,102
-29,263,292,-117,-161,278,112,512,873,546,253,107
-24,253,278,-114,-151,265,107,497,854,541,253,102
-24,258,283,-117,-153,270,102,492,849,541,253,107
-9,268,278,-129,-143,273,92,473,839,536,248,107
-9,268,278,-129,-143,273,78,458,819,531,248,107
-4,268,273,-131,-139,270,68,439,800,512,239,117
-4,268,273,-131,-139,270,58,419,775,497,234,117
0,268,268,-134,-134,268,43,395,746,483,229,117
4,263,258,-134,-126,261,34,375,732,468,219,117
9,258,248,-134,-119,253,24,356,692,444,214,102
14,258,244,-136,-114,251,14,336,668,429,209,102
19,244,224,-131,-102,234,4,317,639,414,195,102
19,239,219,-129,-100,229,0,297,610,390,180,102
24,234,209,-129,-92,222,4,283,580,385,175,97
29,224,195,-126,-82,209,-4,263,551,361,165,97
29,209,180,-119,-75,195,-14,239,512,341,156,92
29,200,170,-114,-70,185,-24,209,473,312,146,87
19,185,165,-102,-73,175,-34,195,429,287,141,78
19,170,151,-95,-65,161,-34,175,395,258,126,73
19,156,136,-87,-58,146,-34,161,366,239,117,68
14,146,131,-80,-58,139,-39,141,331,219,107,63
14,131,117,-73,-51,124,-39,122,297,200,87,58
14,122,107,-68,-46,114,-43,102,268,180,78,53
9,107,97,-58,-43,102,-48,92,234,161,63,43
0,92,92,-46,-46,92,-53,73,200,136,53,34
-4,78,82,-36,-43,80,-48,63,170,117,48,24
-9,68,78,-29,-43,73,-48,48,151,102,39,19
-14,58,73,-21,-43,65,-48,34,126,82,29,14
-14,43,58,-14,-36,51,-48,24,102,68,29,9
-19,24,43,-2,-31,34,-58,19,97,58,9,9
-24,19,43,2,-34,31,-53,14,78,48,4,9
-29,14,43,7,-36,29,-53,0,53,39,4,4
-29,0,29,14,-29,14,-53,-9,34,24,0,0
-39,4,43,17,-41,24,-43,-19,9,14,-4,-4
-39,-4,34,21,-36,14,-43,-29,0,4,-9,-9
-43,-14,29,29,-36,7,-43,-34,-14,0,-14,-14
-48,-19,29,34,-39,4,-43,-39,-19,-4,-14,-14
-48,-14,34,31,-41,9,-39,-39,-19,-4,-14,-19
-48,-19,29,34,-39,4,-39,-39,-34,-9,-19,-19
-48,-24,24,36,-36,0,-39,-43,-48,-19,-24,-19
-53,-34,19,43,-36,-7,-39,-48,-58,-29,-29,-19
-68,-34,34,51,-51,0,-29,-63,-63,-34,-29,-19
-68,-39,29,53,-48,-4,-29,-68,-68,-39,-29,-24
-73,-43,29,58,-51,-7,-29,-68,-73,-43,-29,-24
-78,-43,34,61,-56,-4,-29,-73,-73,-48,-24,-29
-87,-48,39,68,-63,-4,-39,-63,-78,-48,-34,-29
-87,-48,39,68,-63,-4,-39,-73,-78,-48,-34,-29
-87,-48,39,68,-63,-4,-39,-73,-82,-53,-34,-34
-87,-48,39,68,-63,-4,-39,-73,-92,-58,-39,-34
-78,-48,29,63,-53,-9,-29,-73,-92,-73,-39,-39
-78,-58,19,68,-48,-19,-29,-73,-97,-73,-39,-39
-82,-58,24,70,-53,-17,-29,-73,-97,-73,-39,-39
-82,-58,24,70,-53,-17,-24,-73,-102,-68,-39,-39
-82,-58,24,70,-53,-17,-24,-73,-102,-68,-39,-39
-82,-58,24,70,-53,-17,-24,-78,-102,-68,-39,-39
-87,-58,29,73,-58,-14,-24,-78,-102,-68,-43,-39
-87,-63,24,75,-56,-19,-24,-78,-107,-78,-43,-39
-87,-73,14,80,-51,-29,-34,-78,-97,-78,-43,-48
-87,-73,14,80,-51,-29,-34,-78,-102,-78,-43,-43
-87,-73,14,80,-51,-29,-29,-78,-102,-78,-39,-43
-87,-78,9,82,-48,-34,-29,-73,-102,-82,-39,-43
-87,-68,19,78,-53,-24,-29,-82,-102,-82,-43,-39
-87,-68,19,78,-53,-24,-29,-82,-102,-82,-43,-39
-87,-63,24,75,-56,-19,-29,-82,-102,-82,-39,-39
-87,-63,24,75,-56,-19,-29,-78,-102,-82,-39,-39
-78,-63,14,70,-46,-24,-19,-68,-102,-73,-39,-43
-78,-63,14,70,-46,-24,-19,-73,-102,-73,-43,-43
-78,-63,14,70,-46,-24,-19,-73,-102,-68,-43,-39
-78,-63,14,70,-46,-24,-19,-73,-102,-68,-43,-39
-82,-73,9,78,-46,-31,-24,-78,-102,-78,-43,-39
-82,-73,9,78,-46,-31,-24,-78,-97,-78,-43,-39
-82,-73,9,78,-46,-31,-24,-78,-97,-73,-39,-39
-82,-73,9,78,-46,-31,-24,-78,-97,-73,-39,-39
-82,-73,9,78,-46,-31,-14,-68,-97,-73,-39,-39
-82,-73,9,78,-46,-31,-19,-68,-97,-73,-39,-39
-82,-73,9,78,-46,-31,-19,-68,-97,-73,-39,-39
-78,-73,4,75,-41,-34,-19,-68,-97,-73,-39,-39
-82,-73,9,78,-46,-31,-19,-68,-87,-63,-39,-39
-82,-73,9,78,-46,-31,-19,-68,-82,-63,-39,-39
-87,-73,14,80,-51,-29,-19,-68,-82,-63,-39,-39
-87,-73,14,80,-51,-29,-19,-63,-82,-63,-39,-34
-87,-73,14,80,-51,-29,-19,-63,-73,-63,-39,-34
-92,-73,19,82,-56,-26,-19,-63,-73,-58,-39,-34
-92,-73,19,82,-56,-26,-19,-63,-73,-58,-39,-34
-92,-73,19,82,-56,-26,-19,-63,-73,-58,-39,-34
-82,-63,19,73,-51,-21,-19,-58,-73,-58,-29,-34
-82,-63,19,73,-51,-21,-14,-58,-73,-48,-29,-34
-82,-63,19,73,-51,-21,-9,-58,-63,-48,-29,-34
-82,-63,19,73,-51,-21,-9,-58,-63,-48,-29,-34
-82,-63,19,73,-51,-21,-9,-53,-63,-48,-29,-34
-82,-63,19,73,-51,-21,-9,-53,-58,-48,-29,-34
-78,-58,19,68,-48,-19,-9,-53,-53,-48,-29,-39
-78,-58,19,68,-48,-19,-14,-48,-53,-48,-29,-39
-78,-58,19,68,-48,-19,-14,-48,-53,-39,-24,-39
-82,-58,24,70,-53,-17,-4,-48,-48,-34,-24,-34
-82,-58,24,70,-53,-17,-4,-48,-48,-34,-24,-34
-78,-58,19,68,-48,-19,-4,-43,-43,-29,-24,-34
-78,-48,29,63,-53,-9,-14,-34,-53,-29,-24,-34
-78,-48,29,63,-53,-9,-14,-34,-53,-29,-24,-34
-78,-48,29,63,-53,-9,-14,-34,-48,-29,-24,-34
-82,-48,34,65,-58,-7,-14,-29,-48,-29,-24,-34
-82,-58,24,70,-53,-17,0,-29,-48,-34,-19,-34
-82,-58,24,70,-53,-17,0,-29,-43,-34,-19,-34
-87,-58,29,73,-58,-14,-4,-29,-43,-34,-24,-34
-87,-58,29,73,-58,-14,-4,-29,-43,-34,-24,-34
-87,-58,29,73,-58,-14,-14,-34,-43,-29,-24,-34
-87,-58,29,73,-58,-14,-9,-34,-43,-29,-24,-39
-87,-58,29,73,-58,-14,-9,-34,-39,-29,-29,-39
-87,-58,29,73,-58,-14,-4,-34,-39,-29,-29,-39
-87,-58,29,73,-58,-14,-4,-34,-34,-34,-24,-34
-87,-58,29,73,-58,-14,-4,-29,-34,-34,-24,-34
-87,-58,29,73,-58,-14,-4,-29,-34,-39,-24,-43
-87,-53,34,70,-61,-9,0,-29,-34,-39,-24,-43
-97,-63,34,80,-65,-14,0,-29,-34,-39,-24,-43
-102,-63,39,82,-70,-12,0,-29,-39,-39,-24,-48
-102,-63,39,82,-70,-12,-4,-29,-39,-43,-29,-48
-102,-68,34,85,-68,-17,-4,-29,-39,-43,-29,-48
-97,-63,34,80,-65,-14,4,-29,-39,-43,-39,-48
-97,-63,34,80,-65,-14,4,-29,-43,-43,-39,-48
-92,-63,29,78,-61,-17,4,-29,-43,-43,-39,-48
-92,-63,29,78,-61,-17,4,-29,-43,-43,-39,-48
-92,-73,19,82,-56,-26,0,-29,-43,-43,-39,-48
-92,-73,19,82,-56,-26,4,-29,-43,-43,-39,-48
-92,-73,19,82,-56,-26,4,-29,-43,-43,-39,-48
-92,-73,19,82,-56,-26,0,-29,-43,-48,-39,-53
-92,-68,24,80,-58,-21,9,-29,-43,-48,-39,-53
-92,-68,24,80,-58,-21,9,-29,-43,-48,-39,-53
-92,-73,19,82,-56,-26,9,-34,-48,-53,-43,-53
-92,-73,19,82,-56,-26,9,-34,-48,-53,-43,-53
-92,-73,19,82,-56,-26,9,-34,-48,-53,-48,-53
-92,-73,19,82,-56,-26,9,-34,-48,-58,-48,-53
-92,-73,19,82,-56,-26,9,-34,-53,-63,-48,-53
-92,-78,14,85,-53,-31,9,-34,-53,-63,-48,-53
-107,-78,29,92,-68,-24,0,-34,-53,-63,-48,-53
-107,-78,29,92,-68,-24,0,-34,-58,-63,-48,-53
-107,-78,29,92,-68,-24,0,-34,-58,-63,-48,-53
-107,-78,29,92,-68,-24,0,-34,-63,-68,-53,-53
-97,-78,19,87,-58,-29,0,-34,-63,-58,-53,-53
-97,-87,9,92,-53,-39,0,-34,-68,-58,-53,-58
-97,-87,9,92,-53,-39,0,-39,-68,-68,-58,-58
-97,-87,9,92,-53,-39,0,-39,-68,-68,-58,-58
-97,-78,19,87,-58,-29,9,-39,-68,-68,-68,-58
-97,-82,14,90,-56,-34,9,-39,-73,-68,-68,-58
-97,-82,14,90,-56,-34,9,-39,-73,-68,-68,-63
-97,-82,14,90,-56,-34,4,-39,-73,-78,-68,-63
-97,-78,19,87,-58,-29,4,-48,-78,-78,-68,-53
-97,-78,19,87,-58,-29,4,-48,-82,-78,-73,-53
-97,-78,19,87,-58,-29,4,-48,-82,-78,-73,-58
-97,-78,19,87,-58,-29,4,-48,-87,-82,-73,-58
-97,-78,19,87,-58,-29,4,-43,-92,-82,-73,-63
-92,-82,9,87,-51,-36,4,-48,-92,-82,-73,-63
-92,-82,9,87,-51,-36,4,-48,-92,-82,-73,-63
-92,-82,9,87,-51,-36,9,-48,-92,-82,-78,-63
-92,-82,9,87,-51,-36,9,-48,-92,-97,-78,-63
-92,-82,9,87,-51,-36,9,-48,-92,-97,-78,-63
-92,-82,9,87,-51,-36,4,-48,-97,-97,-78,-63
-97,-82,14,90,-56,-34,4,-53,-102,-102,-78,-63
-107,-82,24,95,-65,-29,4,-53,-102,-102,-78,-73
-107,-82,24,95,-65,-29,4,-48,-102,-102,-78,-73
-102,-82,19,92,-61,-31,4,-48,-102,-102,-78,-73
-102,-82,19,92,-61,-31,4,-53,-102,-102,-82,-73
-102,-97,4,100,-53,-46,4,-53,-107,-102,-82,-63
-107,-97,9,102,-58,-43,4,-53,-107,-102,-82,-63
-107,-97,9,102,-58,-43,4,-53,-107,-102,-87,-63
-107,-92,14,100,-61,-39,4,-58,-107,-107,-87,-63
-107,-92,14,100,-61,-39,9,-58,-107,-97,-73,-63
-107,-92,14,100,-61,-39,9,-58,-107,-97,-73,-58
-107,-92,14,100,-61,-39,4,-58,-112,-97,-73,-58
-107,-87,19,97,-63,-34,4,-58,-112,-97,-73,-58
-92,-87,4,90,-48,-41,4,-58,-112,-97,-73,-58
-92,-87,4,90,-48,-41,4,-58,-112,-102,-73,-58
-92,-97,-4,95,-43,-51,4,-53,-112,-102,-73,-63
-92,-97,-4,95,-43,-51,4,-53,-117,-102,-78,-63
-92,-87,4,90,-48,-41,4,-58,-117,-97,-78,-63
-92,-87,4,90,-48,-41,4,-58,-117,-97,-73,-63
-92,-87,4,90,-48,-41,4,-58,-117,-97,-73,-63
-92,-87,4,90,-48,-41,4,-58,-117,-97,-78,-58
-92,-97,-4,95,-43,-51,4,-58,-117,-107,-78,-68
-92,-97,-4,95,-43,-51,4,-58,-117,-107,-78,-73
-92,-92,0,92,-46,-46,4,-58,-117,-107,-82,-73
-92,-92,0,92,-46,-46,4,-58,-122,-112,-82,-73
-82,-92,-9,87,-36,-51,-4,-58,-122,-107,-92,-63
-82,-92,-9,87,-36,-51,-4,-58,-122,-107,-92,-63
-82,-97,-14,90,-34,-56,-4,-58,-122,-107,-92,-63
-82,-97,-14,90,-34,-56,-4,-58,-122,-107,-87,-63
-97,-102,-4,100,-46,-53,-4,-68,-122,-107,-87,-73
-97,-102,-4,100,-46,-53,-4,-68,-122,-107,-87,-73
-97,-102,-4,100,-46,-53,-9,-68,-122,-107,-87,-73
-102,-107,-4,104,-48,-56,-9,-73,-122,-107,-87,-73
-102,-97,4,100,-53,-46,4,-63,-112,-107,-87,-63
-97,-97,0,97,-48,-48,4,-63,-117,-107,-87,-63
-97,-102,-4,100,-46,-53,4,-68,-122,-112,-87,-68
-97,-102,-4,100,-46,-53,4,-68,-122,-112,-87,-68
-102,-92,9,97,-56,-41,-4,-63,-122,-107,-78,-58
-102,-92,9,97,-56,-41,-4,-63,-122,-107,-78,-58
-97,-87,9,92,-53,-39,-4,-63,-122,-107,-78,-58
-97,-87,9,92,-53,-39,-4,-63,-117,-107,-78,-58
-97,-87,9,92,-53,-39,4,-63,-126,-107,-78,-68
-97,-87,9,92,-53,-39,4,-63,-126,-107,-78,-68
-92,-87,4,90,-48,-41,4,-63,-126,-107,-78,-63
-92,-87,4,90,-48,-41,4,-63,-126,-107,-78,-63
-92,-87,4,90,-48,-41,-9,-63,-126,-107,-78,-68
-92,-87,4,90,-48,-41,-9,-68,-131,-112,-78,-68
-92,-87,4,90,-48,-41,-9,-73,-131,-112,-78,-68
-92,-87,4,90,-48,-41,-9,-73,-131,-112,-78,-68
-97,-97,0,97,-48,-48,0,-73,-131,-122,-78,-68
-97,-97,0,97,-48,-48,0,-68,-131,-122,-78,-68
-97,-97,0,97,-48,-48,0,-68,-131,-122,-78,-68
-97,-97,0,97,-48,-48,0,-68,-131,-117,-78,-68
-97,-107,-9,102,-43,-58,0,-68,-122,-107,-82,-68
-92,-107,-14,100,-39,-61,0,-68,-122,-107,-82,-68
-92,-107,-14,100,-39,-61,0,-68,-122,-107,-82,-68
-92,-107,-14,100,-39,-61,0,-68,-122,-107,-82,-68
-82,-87,-4,85,-39,-46,-4,-68,-122,-107,-73,-68
-92,-87,4,90,-48,-41,-4,-63,-122,-107,-68,-58
-82,-87,-4,85,-39,-46,0,-63,-122,-107,-68,-58
-82,-87,-4,85,-39,-46,0,-68,-131,-107,-73,-68
-87,-87,0,87,-43,-43,0,-68,-126,-107,-68,-58
-97,-97,0,97,-48,-48,0,-68,-126,-107,-78,-68
-97,-97,0,97,-48,-48,0,-68,-126,-107,-78,-68
-97,-97,0,97,-48,-48,0,-68,-126,-107,-78,-68
-97,-97,0,97,-48,-48,0,-68,-126,-107,-78,-68
-97,-87,9,92,-53,-39,-9,-68,-126,-107,-78,-68
-97,-87,9,92,-53,-39,-9,-68,-126,-107,-78,-68
-97,-87,9,92,-53,-39,-9,-68,-126,-107,-78,-68
-97,-87,9,92,-53,-39,-9,-68,-126,-107,-78,-68
-87,-97,-9,92,-39,-53,-9,-68,-126,-117,-78,-68
-87,-97,-9,92,-39,-53,-9,-68,-126,-117,-78,-68
-87,-97,-9,92,-39,-53,-9,-68,-126,-117,-78,-68
-87,-97,-9,92,-39,-53,-9,-68,-126,-117,-78,-68
-87,-97,-9,92,-39,-53,0,-68,-126,-117,-78,-68
-87,-97,-9,92,-39,-53,0,-68,-126,-117,-78,-68
-87,-97,-9,92,-39,-53,0,-68,-126,-117,-78,-68
-87,-97,-9,92,-39,-53,0,-68,-126,-117,-78,-68
-87,-97,-9,92,-39,-53,0,-68,-126,-107,-68,-58
-87,-97,-9,92,-39,-53,0,-68,-126,-107,-68,-58
-87,-97,-9,92,-39,-53,0,-68,-126,-107,-68,-58
-87,-97,-9,92,-39,-53,0,-68,-126,-107,-68,-58
-78,-97,-19,87,-29,-58,0,-68,-126,-117,-68,-58
-78,-97,-19,87,-29,-58,0,-68,-126,-117,-68,-58
-78,-97,-19,87,-29,-58,0,-68,-126,-117,-68,-58
-78,-97,-19,87,-29,-58,0,-68,-126,-117,-68,-58
-82,-97,-14,90,-34,-56,-9,-68,-136,-117,-68,-68
-87,-97,-9,92,-39,-53,-9,-68,-136,-117,-68,-68
-92,-97,-4,95,-43,-51,-9,-68,-136,-117,-68,-68
-97,-97,0,97,-48,-48,-9,-68,-136,-117,-68,-68
-97,-97,0,97,-48,-48,0,-68,-126,-117,-68,-58
-97,-97,0,97,-48,-48,0,-68,-126,-117,-68,-58
-97,-97,0,97,-48,-48,0,-68,-126,-117,-68,-58
-97,-97,0,97,-48,-48,0,-68,-126,-117,-68,-58
-87,-87,0,87,-43,-43,-9,-68,-126,-117,-68,-58
-87,-87,0,87,-43,-43,-9,-68,-126,-117,-68,-58
-87,-87,0,87,-43,-43,-9,-68,-126,-117,-68,-58
-87,-87,0,87,-43,-43,-9,-68,-126,-117,-68,-58
-97,-97,0,97,-48,-48,0,-68,-126,-117,-68,-58
-97,-97,0,97,-48,-48,0,-68,-126,-117,-68,-58
-97,-97,0,97,-48,-48,0,-68,-126,-117,-68,-58
-97,-97,0,97,-48,-48,0,-68,-126,-117,-68,-58
-87,-97,-9,92,-39,-53,0,-68,-126,-117,-68,-58
-87,-97,-9,92,-39,-53,0,-68,-126,-117,-68,-58
-87,-97,-9,92,-39,-53,0,-68,-126,-117,-68,-58
-87,-97,-9,92,-39,-53,0,-68,-126,-117,-68,-58
-87,-97,-9,92,-39,-53,0,-78,-126,-117,-68,-58
-87,-97,-9,92,-39,-53,0,-78,-126,-117,-68,-58
-87,-97,-9,92,-39,-53,0,-78,-126,-117,-68,-58
-87,-97,-9,92,-39,-53,0,-78,-126,-117,-68,-58
-87,-97,-9,92,-39,-53,-9,-78,-126,-117,-68,-58
-87,-97,-9,92,-39,-53,-9,-78,-126,-117,-68,-58
-87,-97,-9,92,-39,-53,-9,-78,-126,-117,-68,-58
-87,-97,-9,92,-39,-53,-9,-78,-126,-117,-68,-58
-87,-107,-19,97,-34,-63,0,-68,-126,-117,-68,-68
-87,-107,-19,97,-34,-63,0,-68,-126,-117,-68,-68
-87,-107,-19,97,-34,-63,0,-68,-126,-117,-68,-68
-87,-107,-19,97,-34,-63,0,-68,-126,-117,-68,-68
-87,-97,-9,92,-39,-53,0,-68,-126,-117,-58,-68
-87,-97,-9,92,-39,-53,0,-68,-126,-117,-58,-68
-87,-97,-9,92,-39,-53,0,-68,-126,-117,-58,-68
-87,-97,-9,92,-39,-53,0,-68,-126,-117,-58,-68
-87,-97,-9,92,-39,-53,0,-68,-136,-117,-58,-68
-87,-97,-9,92,-39,-53,0,-68,-136,-117,-58,-68
-87,-97,-9,92,-39,-53,0,-68,-136,-117,-58,-68
-87,-97,-9,92,-39,-53,0,-68,-136,-117,-58,-68
-87,-97,-9,92,-39,-53,-9,-68,-126,-117,-58,-58
-87,-97,-9,92,-39,-53,-9,-68,-126,-117,-58,-58
-87,-97,-9,92,-39,-53,-9,-68,-126,-117,-58,-58
-87,-97,-9,92,-39,-53,-9,-68,-126,-117,-58,-58
-78,-97,-19,87,-29,-58,-9,-68,-136,-117,-68,-58
-78,-97,-19,87,-29,-58,-9,-68,-136,-117,-68,-58
-78,-97,-19,87,-29,-58,-9,-68,-136,-117,-68,-58
-78,-97,-19,87,-29,-58,-9,-68,-136,-117,-68,-58
-87,-97,-9,92,-39,-53,-9,-68,-136,-117,-68,-58
-87,-97,-9,92,-39,-53,-9,-68,-136,-117,-68,-58
-87,-97,-9,92,-39,-53,-9,-68,-136,-117,-68,-58
-87,-97,-9,92,-39,-53,-9,-68,-136,-117,-68,-58
-87,-97,-9,92,-39,-53,-9,-68,-126,-117,-68,-58
-87,-97,-9,92,-39,-53,-9,-68,-126,-117,-68,-58
-87,-97,-9,92,-39,-53,-9,-68,-126,-117,-68,-58
-87,-97,-9,92,-39,-53,-9,-68,-126,-117,-68,-58
-82,-87,-4,85,-39,-46,-9,-78,-136,-117,-68,-68
-78,-87,-9,82,-34,-48,-9,-78,-136,-117,-68,-68
-73,-87,-14,80,-29,-51,-9,-78,-136,-117,-68,-68
-68,-87,-19,78,-24,-53,-9,-78,-136,-117,-68,-68
-78,-87,-9,82,-34,-48,-9,-78,-126,-117,-68,-58
-78,-87,-9,82,-34,-48,-9,-78,-126,-117,-68,-58
-78,-87,-9,82,-34,-48,-9,-78,-126,-117,-68,-58
-78,-87,-9,82,-34,-48,-9,-78,-126,-117,-68,-58
-78,-87,-9,82,-34,-48,-9,-78,-126,-117,-68,-68
-78,-87,-9,82,-34,-48,-9,-78,-126,-117,-68,-68
-78,-87,-9,82,-34,-48,-9,-78,-126,-117,-68,-68
-78,-87,-9,82,-34,-48,-9,-78,-126,-117,-68,-68
-78,-78,0,78,-39,-39,-9,-68,-126,-107,-58,-58
-78,-78,0,78,-39,-39,-9,-68,-126,-107,-58,-58
-78,-78,0,78,-39,-39,-9,-68,-126,-107,-58,-58
-78,-78,0,78,-39,-39,-9,-68,-126,-107,-58,-58
-73,-73,0,73,-36,-36,0,-58,-122,-97,-48,-48
-68,-68,0,68,-34,-34,0,-58,-117,-97,-48,-48
-63,-58,4,61,-34,-26,0,-53,-107,-97,-48,-48
-58,-53,4,56,-31,-24,0,-48,-97,-92,-39,-43
-43,-43,0,43,-21,-21,-9,-48,-92,-92,-39,-34
-43,-34,9,39,-26,-12,-9,-53,-87,-87,-34,-29
-43,-29,14,36,-29,-7,-9,-53,-82,-82,-29,-24
-39,-19,19,29,-29,0,-14,-53,-78,-78,-24,-19
-39,-4,34,21,-36,14,-4,-39,-63,-68,-24,-19
-39,-4,34,21,-36,14,-4,-39,-58,-63,-14,-19
-34,0,34,17,-34,17,-4,-39,-58,-58,-14,-19
-34,4,39,14,-36,21,-4,-43,-58,-58,-14,-14
-39,0,39,19,-39,19,4,-43,-63,-58,-14,-14
-39,-4,34,21,-36,14,4,-48,-63,-53,-14,-14
-34,-4,29,19,-31,12,0,-48,-53,-48,-9,-9
-29,-9,19,19,-24,4,-4,-43,-53,-48,-9,-9
-29,-14,14,21,-21,0,-14,-43,-53,-48,-4,0
-29,-14,14,21,-21,0,-24,-43,-53,-48,-4,-4
-29,-19,9,24,-19,-4,-29,-43,-53,-48,-4,-4
-19,-19,0,19,-9,-9,-39,-53,-53,-43,-4,4
-4,4,9,0,-7,7,-68,-68,-53,-34,4,0
0,9,9,-4,-4,9,-82,-78,-53,-34,9,4
0,9,9,-4,-4,9,-92,-82,-58,-39,9,4
0,9,9,-4,-4,9,-102,-92,-58,-39,4,4
14,14,0,-14,7,7,-97,-102,-73,-43,4,4
14,14,0,-14,7,7,-107,-107,-78,-48,0,4
14,14,0,-14,7,7,-117,-122,-87,-58,-4,0
14,14,0,-14,7,7,-117,-122,-97,-68,-9,0
9,9,0,-9,4,4,-112,-122,-117,-78,-24,-9
9,9,0,-9,4,4,-102,-122,-122,-82,-34,-9
9,-4,-14,-2,12,-9,-97,-122,-131,-92,-34,-19
9,-9,-19,0,14,-14,-92,-122,-136,-107,-39,-24
9,-34,-43,12,26,-39,-82,-122,-146,-97,-43,-14
9,-39,-48,14,29,-43,-82,-122,-151,-102,-48,-19
9,-39,-48,14,29,-43,-78,-126,-156,-107,-53,-24
9,-53,-63,21,36,-58,-78,-126,-156,-117,-58,-29
9,-48,-58,19,34,-53,-68,-107,-146,-117,-48,-29
9,-53,-63,21,36,-58,-58,-107,-146,-112,-48,-29
4,-53,-58,24,31,-56,-48,-107,-146,-112,-48,-29
0,-58,-58,29,29,-58,-48,-102,-146,-112,-48,-29
-4,-68,-63,36,29,-65,-48,-97,-136,-112,-53,-29
-9,-68,-58,39,24,-63,-43,-92,-136,-107,-53,-29
-9,-68,-58,39,24,-63,-43,-87,-131,-102,-48,-24
-14,-63,-48,39,17,-56,-39,-87,-126,-102,-48,-24
-19,-53,-34,36,7,-43,-34,-87,-136,-102,-48,-24
-29,-53,-24,41,-2,-39,-29,-87,-136,-102,-53,-29
-34,-58,-24,46,-4,-41,-29,-82,-136,-107,-58,-34
-53,-68,-14,61,-19,-41,-19,-78,-136,-107,-68,-39
-82,-87,-4,85,-39,-46,4,-82,-136,-117,-78,-48
-102,-102,0,102,-51,-51,19,-82,-146,-131,-92,-63
-112,-112,0,112,-56,-56,19,-82,-151,-136,-102,-73
-117,-122,-4,119,-56,-63,19,-87,-151,-141,-107,-78
-117,-122,-4,119,-56,-63,19,-87,-161,-141,-107,-78
-117,-122,-4,119,-56,-63,19,-92,-161,-141,-107,-78
-112,-122,-9,117,-51,-65,14,-92,-161,-136,-107,-73
-112,-117,-4,114,-53,-61,14,-87,-161,-136,-102,-73
-102,-107,-4,104,-48,-56,14,-78,-156,-131,-97,-78
-102,-112,-9,107,-46,-61,14,-78,-156,-131,-97,-78
-97,-112,-14,104,-41,-63,14,-78,-156,-131,-97,-78
-97,-107,-9,102,-43,-58,14,-73,-156,-131,-102,-78
-102,-107,-4,104,-48,-56,14,-73,-156,-141,-102,-78
-102,-107,-4,104,-48,-56,14,-73,-156,-141,-102,-78
-102,-107,-4,104,-48,-56,14,-73,-156,-141,-102,-78
-97,-107,-9,102,-43,-58,14,-73,-156,-141,-102,-78
-97,-107,-9,102,-43,-58,9,-82,-156,-131,-102,-68
-97,-102,-4,100,-46,-53,9,-82,-156,-131,-102,-68
-97,-102,-4,100,-46,-53,9,-78,-151,-131,-97,-68
-97,-102,-4,100,-46,-53,9,-78,-151,-131,-97,-68
-97,-112,-14,104,-41,-63,19,-68,-151,-131,-92,-78
-97,-112,-14,104,-41,-63,14,-68,-151,-126,-92,-78
-97,-112,-14,104,-41,-63,14,-68,-151,-126,-87,-78
-97,-112,-14,104,-41,-63,14,-73,-151,-126,-87,-78
-87,-117,-29,102,-29,-73,14,-73,-141,-126,-97,-68
-87,-117,-29,102,-29,-73,19,-73,-141,-126,-97,-68
-87,-112,-24,100,-31,-68,19,-73,-141,-126,-97,-68
-87,-112,-24,100,-31,-68,19,-68,-141,-126,-97,-68
-78,-102,-24,90,-26,-63,19,-68,-141,-126,-87,-58
-87,-102,-14,95,-36,-58,29,-63,-136,-126,-87,-63
-92,-112,-19,102,-36,-65,34,-43,-136,-126,-87,-68
-102,-117,-14,109,-43,-65,48,-29,-122,-122,-92,-73
-131,-131,0,131,-65,-65,78,9,-82,-117,-102,-92
-161,-156,4,158,-82,-75,126,68,-29,-97,-117,-122
-180,-170,9,175,-95,-80,190,161,39,-73,-122,-156
-190,-175,14,183,-102,-80,263,244,117,-39,-122,-175
-214,-165,48,190,-131,-58,312,326,229,14,-107,-175
-209,-146,63,178,-136,-41,356,405,346,87,-68,-165
-200,-126,73,163,-136,-26,390,473,444,170,-19,-151
-190,-102,87,146,-139,-7,414,546,541,263,48,-107
-151,-78,73,114,-112,-2,414,600,610,361,131,-58
-107,-43,63,75,-85,9,414,639,624,429,214,-9
-43,-14,29,29,-36,7,395,629,575,453,268,29
43,19,-24,-31,34,-2,326,585,483,453,326,97
175,68,-107,-122,141,-19,219,502,375,483,439,190
326,156,-170,-241,248,-7,78,390,287,590,610,351
478,297,-180,-387,329,58,-126,224,190,727,824,546
644,424,-219,-534,431,102,-326,14,58,834,1039,751
805,580,-224,-692,514,178,-541,-185,-53,971,1268,971
966,766,-200,-866,583,283,-814,-444,-170,1098,1493,1190
1102,976,-126,-1039,614,424,-1127,-800,-317,1171,1673,1405
1195,1146,-48,-1171,622,549,-1390,-1171,-507,1137,1761,1561
1259,1278,19,-1268,619,649,-1610,-1527,-746,995,1751,1683
1254,1346,92,-1300,580,719,-1795,-1903,-1068,688,1590,1717
1166,1322,156,-1244,505,739,-1908,-2269,-1468,214,1249,1634
1039,1180,141,-1110,448,661,-1937,-2488,-1912,-341,775,1449
946,976,29,-961,458,502,-1893,-2537,-2342,-907,307,1200
868,683,-185,-775,527,248,-1786,-2440,-2640,-1385,-151,912
805,336,-468,-570,636,-65,-1595,-2191,-2757,-1712,-541,614
775,82,-692,-429,734,-305,-1410,-1942,-2679,-1815,-746,390
732,19,-712,-375,722,-346,-1298,-1751,-2469,-1737,-780,307
644,39,-605,-341,624,-283,-1171,-1556,-2186,-1581,-732,273
556,73,-483,-314,519,-204,-1024,-1307,-1839,-1361,-649,248
478,107,-370,-292,424,-131,-839,-1054,-1498,-1112,-536,234
400,122,-278,-261,339,-78,-688,-839,-1220,-902,-444,214
322,131,-190,-226,256,-29,-570,-692,-995,-736,-356,190
239,122,-117,-180,178,2,-483,-610,-814,-605,-292,151
156,92,-63,-124,109,14,-414,-556,-663,-502,-258,87
82,58,-24,-70,53,17,-336,-473,-522,-424,-224,29
39,14,-24,-26,31,-4,-234,-366,-409,-351,-195,-4
19,-29,-48,4,34,-39,-136,-253,-312,-283,-165,-24
-4,-73,-68,39,31,-70,-53,-146,-224,-234,-141,-43
-43,-87,-43,65,0,-65,4,-78,-161,-175,-126,-48
-58,-87,-29,73,-14,-58,24,-53,-122,-136,-112,-48
-68,-78,-9,73,-29,-43,14,-53,-112,-131,-97,-53
-82,-78,4,80,-43,-36,4,-63,-107,-136,-97,-63
-87,-78,9,82,-48,-34,14,-63,-97,-126,-97,-82
-87,-78,9,82,-48,-34,24,-48,-73,-126,-97,-82
-92,-82,9,87,-51,-36,39,-43,-73,-131,-102,-87
-92,-92,0,92,-46,-46,48,-24,-68,-131,-117,-87
-92,-102,-9,97,-41,-56,68,-9,-63,-126,-112,-78
-102,-102,0,102,-51,-51,78,0,-53,-117,-112,-78
-102,-102,0,102,-51,-51,78,0,-48,-112,-112,-78
-112,-97,14,104,-63,-41,78,0,-48,-107,-112,-82
-117,-97,19,107,-68,-39,82,0,-43,-107,-107,-92
-117,-97,19,107,-68,-39,82,4,-34,-102,-107,-97
-122,-97,24,109,-73,-36,87,9,-29,-97,-102,-102
-131,-107,24,119,-78,-41,82,24,-29,-107,-102,-102
-131,-117,14,124,-73,-51,87,29,-24,-102,-102,-107
-131,-117,14,124,-73,-51,87,29,-24,-97,-107,-107
-131,-117,14,124,-73,-51,92,29,-24,-92,-107,-107
-141,-126,14,134,-78,-56,97,24,-9,-82,-107,-107
-141,-122,19,131,-80,-51,97,29,-9,-82,-107,-107
-141,-117,24,129,-82,-46,97,29,-4,-78,-97,-112
-141,-117,24,129,-82,-46,97,29,0,-78,-97,-112
-136,-117,19,126,-78,-48,102,43,4,-82,-102,-102
-136,-122,14,129,-75,-53,102,43,4,-82,-102,-102
-141,-126,14,134,-78,-56,102,43,4,-82,-102,-102
-141,-126,14,134,-78,-56,107,48,9,-82,-97,-102
-126,-117,9,122,-68,-53,107,48,0,-73,-102,-107
-126,-117,9,122,-68,-53,102,48,4,-73,-102,-107
-126,-112,14,119,-70,-48,102,53,14,-73,-102,-107
-126,-112,14,119,-70,-48,102,53,14,-73,-107,-107
-126,-112,14,119,-70,-48,112,53,19,-63,-107,-97
-131,-112,19,122,-75,-46,112,58,19,-63,-107,-97
-131,-112,19,122,-75,-46,112,58,24,-58,-107,-97
-131,-112,19,122,-75,-46,117,58,24,-58,-107,-97
-131,-102,29,117,-80,-36,107,48,29,-63,-107,-92
-131,-102,29,117,-80,-36,107,53,29,-63,-107,-92
-131,-102,29,117,-80,-36,112,58,34,-63,-102,-92
-131,-102,29,117,-80,-36,112,58,39,-58,-102,-92
-131,-102,29,117,-80,-36,107,58,43,-43,-102,-102
-131,-102,29,117,-80,-36,107,58,43,-43,-102,-102
-126,-102,24,114,-75,-39,112,63,43,-43,-97,-102
-126,-102,24,114,-75,-39,112,63,48,-43,-97,-102
-131,-97,34,114,-82,-31,112,73,63,-39,-87,-92
-131,-97,34,114,-82,-31,117,78,63,-39,-87,-97
-131,-92,39,112,-85,-26,117,78,73,-39,-82,-97
-131,-92,39,112,-85,-26,112,78,73,-39,-82,-97
-122,-92,29,107,-75,-31,112,78,63,-34,-92,-92
-122,-92,29,107,-75,-31,112,78,68,-34,-92,-92
-122,-92,29,107,-75,-31,112,78,68,-29,-92,-92
-122,-92,29,107,-75,-31,112,82,68,-29,-87,-92
-131,-92,39,112,-85,-26,112,73,78,-29,-87,-92
-126,-92,34,109,-80,-29,112,78,82,-29,-87,-92
-126,-92,34,109,-80,-29,112,82,82,-24,-87,-92
-126,-92,34,109,-80,-29,122,82,87,-19,-87,-92
-126,-82,43,104,-85,-19,122,82,92,-9,-82,-92
-126,-82,43,104,-85,-19,117,87,97,-9,-82,-92
-126,-82,43,104,-85,-19,117,92,102,-9,-82,-92
-126,-87,39,107,-82,-24,117,97,107,-9,-82,-92
-141,-97,43,119,-92,-26,117,97,112,-9,-82,-92
-141,-97,43,119,-92,-26,117,97,112,-4,-82,-92
-136,-92,43,114,-90,-24,122,107,117,0,-78,-92
-136,-92,43,114,-90,-24,122,112,122,4,-73,-92
-126,-82,43,104,-85,-19,126,117,136,0,-73,-92
-126,-82,43,104,-85,-19,126,117,141,4,-73,-92
-126,-78,48,102,-87,-14,126,122,146,9,-73,-92
-126,-78,48,102,-87,-14,126,126,156,9,-68,-92
-126,-78,48,102,-87,-14,126,141,161,24,-63,-92
-126,-73,53,100,-90,-9,131,146,165,24,-63,-87
-126,-68,58,97,-92,-4,131,151,170,29,-63,-87
-126,-68,58,97,-92,-4,131,156,175,34,-63,-87
-126,-78,48,102,-87,-14,146,161,190,39,-58,-87
-126,-73,53,100,-90,-9,146,165,195,43,-53,-87
-126,-73,53,100,-90,-9,146,170,204,48,-48,-82
-126,-73,53,100,-90,-9,151,180,209,58,-48,-82
-126,-68,58,97,-92,-4,141,185,224,63,-43,-78
-126,-63,63,95,-95,0,146,195,234,68,-39,-78
-126,-63,63,95,-95,0,146,200,244,73,-34,-73
-122,-58,63,90,-92,2,146,209,253,82,-34,-73
-117,-58,58,87,-87,0,151,224,263,87,-34,-73
-117,-53,63,85,-90,4,151,229,273,97,-24,-73
-117,-53,63,85,-90,4,151,234,287,97,-24,-73
-117,-48,68,82,-92,9,156,248,297,107,-19,-68
-117,-48,68,82,-92,9,156,258,312,117,-14,-68
-117,-48,68,82,-92,9,161,268,331,131,-9,-63
-117,-43,73,80,-95,14,161,278,341,141,-4,-58
-112,-34,78,73,-95,21,170,287,356,151,0,-58
-107,-29,78,68,-92,24,175,297,370,161,4,-63
-107,-24,82,65,-95,29,175,312,385,170,14,-58
-107,-19,87,63,-97,34,175,322,400,180,19,-53
-107,-19,87,63,-97,34,175,336,414,190,19,-53
-97,-4,92,51,-95,43,190,356,439,214,39,-43
-92,0,92,46,-92,46,195,370,458,229,43,-43
-87,9,97,39,-92,53,200,390,478,239,58,-39
-87,19,107,34,-97,63,200,400,497,248,63,-34
-82,24,107,29,-95,65,200,414,522,268,58,-29
-82,29,112,26,-97,70,209,429,536,278,73,-24
-78,39,117,19,-97,78,209,434,556,297,78,-19
-73,48,122,12,-97,85,214,453,575,302,82,-14
-82,43,126,19,-104,85,214,463,585,312,87,-14
-78,53,131,12,-104,92,219,483,605,326,102,-4
-78,58,136,9,-107,97,219,497,629,341,107,0
-78,73,151,2,-114,112,224,507,649,356,117,0
-82,82,165,0,-124,124,224,522,678,375,126,4
-82,92,175,-4,-129,134,224,536,697,390,136,9
-78,92,170,-7,-124,131,229,551,717,405,146,14
-78,107,185,-14,-131,146,229,556,736,419,151,19
-68,117,185,-24,-126,151,229,580,751,434,170,24
-63,126,190,-31,-126,158,229,590,771,448,180,29
-58,136,195,-39,-126,165,229,605,795,463,190,34
-58,146,204,-43,-131,175,229,610,810,478,195,39
-58,156,214,-48,-136,185,229,610,819,483,195,48
-53,165,219,-56,-136,192,229,614,839,488,200,48
-48,175,224,-63,-136,200,229,624,854,507,209,53
-43,185,229,-70,-136,207,224,629,863,512,214,58
-39,195,234,-78,-136,214,224,639,888,527,224,73
-34,204,239,-85,-136,222,224,649,897,541,234,78
-29,209,239,-90,-134,224,219,649,912,551,244,82
-29,219,248,-95,-139,234,219,653,922,561,244,87
-14,239,253,-112,-134,246,214,644,917,556,239,87
-9,244,253,-117,-131,248,204,639,922,566,244,87
-4,253,258,-124,-131,256,200,634,927,566,248,92
0,258,258,-129,-129,258,195,629,927,566,248,97
4,253,248,-129,-122,251,185,619,927,566,263,102
9,258,248,-134,-119,253,175,619,927,570,263,107
14,268,253,-141,-119,261,165,605,917,570,263,112
19,273,253,-146,-117,263,161,590,912,566,263,117
14,283,268,-148,-126,275,146,566,893,551,253,122
14,287,273,-151,-129,280,141,561,888,551,253,126
29,297,268,-163,-119,283,131,541,878,546,248,126
29,297,268,-163,-119,283,117,527,858,541,248,126
43,287,244,-165,-100,265,107,497,839,531,239,126
43,287,244,-165,-100,265,97,478,814,517,234,126
48,287,239,-168,-95,263,82,453,785,502,229,126
53,283,229,-168,-87,256,73,434,771,488,219,126
48,268,219,-158,-85,244,63,414,732,473,214,122
53,268,214,-161,-80,241,53,395,707,458,209,122
58,253,195,-156,-68,224,43,375,678,444,195,122
58,248,190,-153,-65,219,39,356,649,419,180,122
63,253,190,-158,-63,222,34,331,610,395,175,107
68,244,175,-156,-53,209,24,312,580,370,165,107
68,229,161,-148,-46,195,14,287,541,351,156,102
68,219,151,-143,-41,185,4,258,502,322,146,97
78,195,117,-136,-19,156,-4,234,468,297,131,87
78,180,102,-129,-12,141,-4,214,434,268,117,82
78,165,87,-122,-4,126,-4,200,405,248,107,78
73,156,82,-114,-4,119,-9,180,370,229,97,73
63,141,78,-102,-7,109,-19,151,336,219,87,68
63,131,68,-97,-2,100,-24,131,307,200,78,63
58,117,58,-87,0,87,-29,122,273,180,63,53
48,102,53,-75,-2,78,-34,102,239,156,53,43
43,97,53,-70,-4,75,-39,82,209,136,39,43
39,87,48,-63,-4,68,-39,68,190,122,29,39
34,78,43,-56,-4,61,-39,53,165,102,19,34
34,63,29,-48,2,46,-39,43,141,87,19,29
29,43,14,-36,7,29,-29,39,126,68,9,19
24,39,14,-31,4,26,-24,34,107,58,4,19
19,34,14,-26,2,24,-24,19,82,48,4,14
19,19,0,-19,9,9,-24,9,63,34,0,9
19,24,4,-21,7,14,-34,9,48,34,-14,14
19,14,-4,-17,12,4,-34,0,39,24,-19,9
14,4,-9,-9,12,-2,-34,-4,24,19,-24,4
9,0,-9,-4,9,-4,-34,-9,19,14,-24,4
0,-4,-4,2,2,-4,-19,-29,9,-4,-34,0
0,-9,-9,4,4,-9,-19,-29,-4,-9,-39,0
0,-14,-14,7,7,-14,-19,-34,-19,-19,-43,0
-4,-24,-19,14,7,-21,-19,-39,-29,-29,-48,0
-19,-34,-14,26,-2,-24,-29,-34,-34,-34,-43,-9
-19,-39,-19,29,0,-29,-29,-39,-39,-39,-48,-14
-24,-43,-19,34,-2,-31,-29,-39,-43,-43,-53,-14
-29,-43,-14,36,-7,-29,-29,-43,-43,-48,-53,-19
-29,-39,-9,34,-9,-24,-29,-53,-58,-39,-53,-9
-29,-39,-9,34,-9,-24,-29,-63,-58,-39,-53,-9
-29,-39,-9,34,-9,-24,-29,-63,-63,-43,-53,-14
-29,-39,-9,34,-9,-24,-29,-63,-73,-48,-58,-14
-19,-39,-19,29,0,-29,-19,-63,-63,-53,-48,-19
-19,-48,-29,34,4,-39,-19,-63,-68,-53,-48,-19
-24,-48,-24,36,0,-36,-19,-63,-68,-53,-48,-19
-24,-48,-24,36,0,-36,-14,-63,-73,-48,-48,-19
-24,-48,-24,36,0,-36,-24,-63,-73,-58,-48,-19
-24,-48,-24,36,0,-36,-24,-68,-73,-58,-48,-19
-29,-48,-19,39,-4,-34,-24,-68,-73,-58,-53,-19
-29,-53,-24,41,-2,-39,-24,-68,-78,-68,-53,-19
-19,-53,-34,36,7,-43,-24,-58,-78,-58,-63,-29
-19,-53,-34,36,7,-43,-24,-58,-82,-58,-63,-24
-19,-53,-34,36,7,-43,-19,-58,-82,-58,-58,-24
-19,-58,-39,39,9,-48,-19,-53,-82,-63,-58,-24
-29,-58,-29,43,0,-43,-19,-63,-82,-63,-53,-29
-29,-58,-29,43,0,-43,-19,-63,-82,-63,-53,-29
-29,-53,-24,41,-2,-39,-19,-63,-82,-63,-48,-29
-29,-53,-24,41,-2,-39,-19,-58,-82,-63,-48,-29
-19,-53,-34,36,7,-43,-19,-58,-82,-63,-48,-34
-19,-53,-34,36,7,-43,-19,-63,-82,-63,-53,-34
-19,-53,-34,36,7,-43,-19,-63,-82,-58,-53,-29
-19,-53,-34,36,7,-43,-19,-63,-82,-58,-53,-29
-24,-63,-39,43,7,-51,-14,-58,-73,-58,-53,-19
-24,-63,-39,43,7,-51,-14,-58,-68,-58,-53,-19
-24,-63,-39,43,7,-51,-14,-58,-68,-53,-48,-19
-24,-63,-39,43,7,-51,-14,-58,-68,-53,-48,-19
-24,-53,-29,39,2,-41,-14,-58,-68,-63,-48,-29
-24,-53,-29,39,2,-41,-19,-58,-68,-63,-48,-29
-24,-53,-29,39,2,-41,-19,-58,-68,-63,-48,-29
-19,-53,-34,36,7,-43,-19,-58,-68,-63,-48,-29
-24,-53,-29,39,2,-41,-19,-58,-78,-53,-48,-29
-24,-53,-29,39,2,-41,-19,-58,-73,-53,-48,-29
-29,-53,-24,41,-2,-39,-19,-58,-73,-53,-48,-29
-29,-53,-24,41,-2,-39,-19,-53,-73,-53,-48,-24
-19,-53,-34,36,7,-43,-9,-43,-63,-53,-48,-24
-24,-53,-29,39,2,-41,-9,-43,-63,-48,-48,-24
-24,-53,-29,39,2,-41,-9,-43,-63,-48,-48,-24
-24,-53,-29,39,2,-41,-9,-43,-63,-48,-48,-24
-24,-53,-29,39,2,-41,-19,-39,-53,-48,-48,-24
-24,-53,-29,39,2,-41,-14,-39,-53,-39,-48,-24
-24,-53,-29,39,2,-41,-9,-39,-43,-39,-48,-24
-24,-53,-29,39,2,-41,-9,-39,-43,-39,-48,-24
-34,-53,-19,43,-7,-36,0,-34,-53,-39,-39,-24
-34,-53,-19,43,-7,-36,0,-34,-48,-39,-39,-24
-29,-48,-19,39,-4,-34,0,-34,-43,-39,-39,-29
-29,-48,-19,39,-4,-34,-4,-29,-43,-39,-39,-29
-29,-58,-29,43,0,-43,-14,-39,-43,-39,-43,-29
-34,-58,-24,46,-4,-41,-4,-39,-39,-34,-43,-24
-34,-58,-24,46,-4,-41,-4,-39,-39,-34,-43,-24
-29,-58,-29,43,0,-43,-4,-34,-34,-29,-43,-24
-39,-58,-19,48,-9,-39,-4,-34,-34,-29,-43,-24
-39,-58,-19,48,-9,-39,-4,-34,-34,-29,-43,-24
-39,-58,-19,48,-9,-39,-4,-34,-29,-29,-43,-24
-43,-58,-14,51,-14,-36,-4,-29,-29,-29,-43,-24
-43,-58,-14,51,-14,-36,0,-19,-29,-24,-39,-24
-43,-58,-14,51,-14,-36,0,-19,-24,-24,-39,-24
-48,-58,-9,53,-19,-34,-4,-19,-24,-24,-43,-24
-48,-58,-9,53,-19,-34,-4,-19,-24,-24,-43,-24
-39,-58,-19,48,-9,-39,4,-14,-24,-19,-34,-24
-39,-58,-19,48,-9,-39,9,-14,-24,-19,-34,-29
-39,-58,-19,48,-9,-39,9,-14,-19,-19,-39,-29
-39,-58,-19,48,-9,-39,14,-14,-19,-19,-39,-29
-29,-53,-24,41,-2,-39,14,-14,-14,-14,-34,-14
-29,-48,-19,39,-4,-34,14,-9,-14,-14,-34,-14
-29,-43,-14,36,-7,-29,14,-9,-14,-19,-34,-24
-29,-34,-4,31,-12,-19,19,-9,-14,-19,-34,-24
-29,-43,-14,36,-7,-29,19,-9,-4,-19,-34,-24
-34,-43,-9,39,-12,-26,19,-9,-9,-19,-34,-29
-34,-43,-9,39,-12,-26,14,-9,-9,-24,-39,-29
-34,-48,-14,41,-9,-31,14,-9,-9,-24,-39,-29
-48,-53,-4,51,-21,-29,14,-19,-9,-24,-48,-29
-48,-53,-4,51,-21,-29,14,-19,-14,-24,-48,-29
-43,-53,-9,48,-17,-31,14,-19,-14,-24,-48,-29
-43,-53,-9,48,-17,-31,14,-19,-14,-24,-48,-29
-43,-53,-9,48,-17,-31,9,-19,-24,-34,-48,-39
-43,-53,-9,48,-17,-31,14,-19,-24,-34,-48,-39
-43,-53,-9,48,-17,-31,14,-19,-24,-34,-48,-39
-43,-53,-9,48,-17,-31,9,-19,-24,-39,-48,-43
-43,-48,-4,46,-19,-26,19,-9,-24,-29,-48,-34
-43,-48,-4,46,-19,-26,19,-9,-24,-29,-48,-34
-43,-53,-9,48,-17,-31,19,-14,-29,-34,-53,-34
-43,-53,-9,48,-17,-31,19,-14,-29,-34,-53,-34
-43,-53,-9,48,-17,-31,9,-24,-29,-43,-58,-43
-43,-53,-9,48,-17,-31,9,-24,-29,-48,-58,-43
-43,-53,-9,48,-17,-31,9,-24,-34,-53,-58,-43
-43,-58,-14,51,-14,-36,9,-24,-34,-53,-58,-43
-48,-58,-9,53,-19,-34,9,-24,-34,-53,-58,-43
-48,-58,-9,53,-19,-34,9,-24,-39,-53,-58,-43
-48,-58,-9,53,-19,-34,9,-24,-39,-53,-58,-43
-48,-58,-9,53,-19,-34,9,-24,-43,-58,-63,-43
-48,-68,-19,58,-14,-43,9,-24,-43,-58,-63,-43
-48,-78,-29,63,-9,-53,9,-24,-48,-58,-63,-48
-48,-78,-29,63,-9,-53,9,-29,-48,-68,-68,-48
-48,-78,-29,63,-9,-53,9,-29,-48,-68,-68,-48
-48,-68,-19,58,-14,-43,9,-29,-48,-58,-68,-39
-48,-73,-24,61,-12,-48,9,-29,-53,-58,-68,-39
-48,-73,-24,61,-12,-48,9,-29,-53,-58,-68,-43
-48,-73,-24,61,-12,-48,4,-29,-53,-68,-68,-43
-48,-68,-19,58,-14,-43,4,-29,-58,-78,-78,-53
-48,-68,-19,58,-14,-43,4,-29,-63,-78,-82,-53
-48,-68,-19,58,-14,-43,4,-29,-63,-78,-82,-58
-48,-68,-19,58,-14,-43,4,-29,-68,-82,-82,-58
-48,-78,-29,63,-9,-53,4,-24,-73,-73,-73,-53
-43,-82,-39,63,-2,-61,4,-29,-73,-73,-73,-53
-43,-82,-39,63,-2,-61,4,-29,-73,-73,-73,-53
-43,-82,-39,63,-2,-61,9,-29,-73,-73,-78,-53
-43,-82,-39,63,-2,-61,9,-29,-73,-78,-78,-53
-43,-82,-39,63,-2,-61,9,-29,-73,-78,-78,-53
-43,-82,-39,63,-2,-61,4,-29,-78,-78,-78,-53
-48,-82,-34,65,-7,-58,4,-34,-82,-82,-78,-53
-48,-73,-24,61,-12,-48,4,-34,-82,-82,-68,-53
-48,-73,-24,61,-12,-48,4,-29,-82,-82,-68,-53
-43,-73,-29,58,-7,-51,4,-29,-82,-82,-68,-53
-43,-73,-29,58,-7,-51,4,-34,-82,-82,-73,-53
-43,-78,-34,61,-4,-56,4,-43,-87,-82,-73,-53
-48,-78,-29,63,-9,-53,4,-43,-87,-82,-73,-53
-48,-78,-29,63,-9,-53,4,-43,-87,-82,-78,-53
-48,-73,-24,61,-12,-48,4,-48,-87,-87,-78,-53
-48,-82,-34,65,-7,-58,9,-48,-87,-87,-82,-63
-48,-82,-34,65,-7,-58,9,-48,-87,-87,-82,-58
-48,-82,-34,65,-7,-58,4,-48,-92,-87,-82,-58
-48,-78,-29,63,-9,-53,4,-48,-92,-87,-82,-58
-43,-78,-34,61,-4,-56,4,-48,-92,-87,-73,-48
-43,-78,-34,61,-4,-56,4,-48,-92,-92,-73,-48
-43,-87,-43,65,0,-65,4,-43,-92,-92,-73,-53
-43,-87,-43,65,0,-65,4,-43,-97,-92,-78,-53
-43,-78,-34,61,-4,-56,4,-48,-87,-87,-78,-53
-43,-78,-34,61,-4,-56,4,-48,-87,-87,-73,-53
-43,-78,-34,61,-4,-56,4,-48,-87,-87,-73,-53
-43,-78,-34,61,-4,-56,4,-48,-87,-87,-78,-48
-43,-87,-43,65,0,-65,4,-48,-97,-97,-78,-48
-43,-87,-43,65,0,-65,4,-48,-97,-97,-78,-53
-43,-82,-39,63,-2,-61,4,-48,-97,-97,-82,-53
-43,-82,-39,63,-2,-61,4,-48,-102,-102,-82,-53
-43,-82,-39,63,-2,-61,4,-48,-102,-107,-82,-53
-43,-82,-39,63,-2,-61,4,-48,-102,-107,-82,-53
-43,-87,-43,65,0,-65,4,-48,-102,-107,-82,-53
-43,-87,-43,65,0,-65,4,-48,-102,-107,-78,-53
-39,-92,-53,65,7,-73,4,-48,-102,-97,-78,-53
-39,-92,-53,65,7,-73,4,-48,-102,-97,-78,-53
-39,-92,-53,65,7,-73,0,-48,-102,-97,-78,-53
-43,-97,-53,70,4,-75,0,-53,-102,-97,-78,-53
-43,-97,-53,70,4,-75,4,-53,-102,-97,-78,-53
-39,-97,-58,68,9,-78,4,-53,-107,-97,-78,-53
-39,-102,-63,70,12,-82,4,-58,-112,-102,-78,-58
-39,-102,-63,70,12,-82,4,-58,-112,-102,-78,-58
-43,-92,-48,68,2,-70,4,-53,-112,-97,-68,-48
-43,-92,-48,68,2,-70,4,-53,-112,-97,-68,-48
-39,-87,-48,63,4,-68,4,-53,-112,-97,-68,-48
-39,-87,-48,63,4,-68,4,-53,-107,-97,-68,-48
-48,-87,-39,68,-4,-63,4,-53,-107,-97,-68,-48
-48,-87,-39,68,-4,-63,4,-53,-107,-97,-68,-48
-43,-87,-43,65,0,-65,4,-53,-107,-97,-68,-43
-43,-87,-43,65,0,-65,4,-53,-107,-97,-68,-43
-43,-78,-34,61,-4,-56,9,-43,-107,-97,-68,-48
-43,-78,-34,61,-4,-56,9,-48,-112,-102,-68,-48
-43,-78,-34,61,-4,-56,9,-53,-112,-102,-68,-48
-43,-78,-34,61,-4,-56,9,-53,-112,-102,-68,-48
-39,-87,-48,63,4,-68,9,-63,-112,-102,-68,-48
-39,-87,-48,63,4,-68,9,-58,-112,-102,-68,-48
-39,-87,-48,63,4,-68,9,-58,-112,-102,-68,-48
-39,-87,-48,63,4,-68,9,-58,-112,-97,-68,-48
-39,-78,-39,58,0,-58,9,-58,-112,-107,-73,-48
-34,-78,-43,56,4,-61,9,-58,-112,-107,-73,-48
-34,-78,-43,56,4,-61,9,-58,-112,-107,-73,-48
-34,-78,-43,56,4,-61,9,-58,-112,-107,-73,-48
-43,-87,-43,65,0,-65,14,-48,-112,-97,-73,-48
-34,-78,-43,56,4,-61,4,-63,-112,-97,-68,-48
-34,-87,-53,61,9,-70,0,-63,-112,-97,-68,-48
-53,-97,-43,75,-4,-70,9,-58,-112,-97,-63,-48
-58,-97,-39,78,-9,-68,19,-48,-107,-97,-68,-48
-48,-87,-39,68,-4,-63,14,-53,-107,-107,-68,-48
-48,-87,-39,68,-4,-63,9,-58,-107,-107,-68,-48
-48,-87,-39,68,-4,-63,4,-63,-107,-107,-68,-48
-48,-87,-39,68,-4,-63,0,-68,-107,-107,-68,-48
-39,-78,-39,58,0,-58,9,-68,-117,-107,-68,-48
-39,-78,-39,58,0,-58,9,-68,-117,-107,-68,-48
-39,-78,-39,58,0,-58,9,-68,-117,-107,-68,-48
-39,-78,-39,58,0,-58,9,-68,-117,-107,-68,-48
-39,-87,-48,63,4,-68,9,-58,-117,-107,-68,-48
-39,-87,-48,63,4,-68,9,-58,-117,-107,-68,-48
-39,-87,-48,63,4,-68,9,-58,-117,-107,-68,-48
-39,-87,-48,63,4,-68,9,-58,-117,-107,-68,-48
-39,-87,-48,63,4,-68,9,-58,-117,-97,-58,-48
-39,-87,-48,63,4,-68,9,-58,-117,-97,-58,-48
-39,-87,-48,63,4,-68,9,-58,-117,-97,-58,-48
-39,-87,-48,63,4,-68,9,-58,-117,-97,-58,-48
-39,-87,-48,63,4,-68,0,-58,-117,-107,-68,-48
-39,-87,-48,63,4,-68,0,-58,-117,-107,-68,-48
-39,-87,-48,63,4,-68,0,-58,-117,-107,-68,-48
-39,-87,-48,63,4,-68,0,-58,-117,-107,-68,-48
-39,-87,-48,63,4,-68,9,-58,-107,-107,-58,-48
-39,-87,-48,63,4,-68,9,-58,-107,-107,-58,-48
-39,-87,-48,63,4,-68,9,-58,-107,-107,-58,-48
-39,-87,-48,63,4,-68,9,-58,-107,-107,-58,-48
-39,-97,-58,68,9,-78,9,-58,-107,-97,-68,-48
-39,-97,-58,68,9,-78,9,-58,-107,-97,-68,-48
-39,-97,-58,68,9,-78,9,-58,-107,-97,-68,-48
-39,-97,-58,68,9,-78,9,-58,-107,-97,-68,-48
-39,-87,-48,63,4,-68,9,-68,-107,-97,-58,-39
-39,-87,-48,63,4,-68,9,-68,-107,-97,-58,-39
-39,-87,-48,63,4,-68,9,-68,-107,-97,-58,-39
-39,-87,-48,63,4,-68,9,-68,-107,-97,-58,-39
-39,-97,-58,68,9,-78,9,-58,-117,-97,-68,-39
-39,-97,-58,68,9,-78,9,-58,-117,-97,-68,-39
-39,-97,-58,68,9,-78,9,-58,-117,-97,-68,-39
-39,-97,-58,68,9,-78,9,-58,-117,-97,-68,-39
-29,-87,-58,58,14,-73,0,-58,-117,-107,-58,-48
-29,-87,-58,58,14,-73,0,-58,-117,-107,-58,-48
-29,-87,-58,58,14,-73,0,-58,-117,-107,-58,-48
-29,-87,-58,58,14,-73,0,-58,-117,-107,-58,-48
-29,-87,-58,58,14,-73,9,-58,-107,-97,-58,-39
-29,-87,-58,58,14,-73,9,-58,-107,-97,-58,-39
-29,-87,-58,58,14,-73,9,-58,-107,-97,-58,-39
-29,-87,-58,58,14,-73,9,-58,-107,-97,-58,-39
-29,-87,-58,58,14,-73,0,-58,-107,-97,-58,-39
-29,-87,-58,58,14,-73,0,-58,-107,-97,-58,-39
-29,-87,-58,58,14,-73,0,-58,-107,-97,-58,-39
-29,-87,-58,58,14,-73,0,-58,-107,-97,-58,-39
-29,-87,-58,58,14,-73,9,-58,-107,-97,-48,-39
-29,-87,-58,58,14,-73,9,-58,-107,-97,-48,-39
-29,-87,-58,58,14,-73,9,-58,-107,-97,-48,-39
-29,-87,-58,58,14,-73,9,-58,-107,-97,-48,-39
-39,-92,-53,65,7,-73,9,-68,-117,-97,-58,-48
-39,-97,-58,68,9,-78,9,-68,-117,-97,-58,-48
-39,-102,-63,70,12,-82,9,-68,-117,-97,-58,-48
-39,-107,-68,73,14,-87,9,-68,-117,-97,-58,-48
-29,-97,-68,63,19,-82,0,-58,-117,-97,-58,-48
-29,-97,-68,63,19,-82,0,-58,-117,-97,-58,-48
-29,-97,-68,63,19,-82,0,-58,-117,-97,-58,-48
-29,-97,-68,63,19,-82,0,-58,-117,-97,-58,-48
-19,-87,-68,53,24,-78,0,-58,-117,-97,-58,-39
-19,-87,-68,53,24,-78,0,-58,-117,-97,-58,-39
-19,-87,-68,53,24,-78,0,-58,-117,-97,-58,-39
-19,-87,-68,53,24,-78,0,-58,-117,-97,-58,-39
-29,-87,-58,58,14,-73,9,-58,-107,-97,-48,-39
-29,-87,-58,58,14,-73,9,-58,-107,-97,-48,-39
-29,-87,-58,58,14,-73,9,-58,-107,-97,-48,-39
-29,-87,-58,58,14,-73,9,-58,-107,-97,-48,-39
-29,-87,-58,58,14,-73,9,-58,-107,-97,-48,-39
-29,-87,-58,58,14,-73,9,-58,-107,-97,-48,-39
-29,-87,-58,58,14,-73,9,-58,-107,-97,-48,-39
-29,-87,-58,58,14,-73,9,-58,-107,-97,-48,-39
-29,-97,-68,63,19,-82,0,-58,-107,-97,-48,-39
-29,-97,-68,63,19,-82,0,-58,-107,-97,-48,-39
-29,-97,-68,63,19,-82,0,-58,-107,-97,-48,-39
-29,-97,-68,63,19,-82,0,-58,-107,-97,-48,-39
-29,-97,-68,63,19,-82,0,-58,-117,-97,-58,-39
-29,-97,-68,63,19,-82,0,-58,-117,-97,-58,-39
-29,-97,-68,63,19,-82,0,-58,-117,-97,-58,-39
-29,-97,-68,63,19,-82,0,-58,-117,-97,-58,-39
-29,-97,-68,63,19,-82,9,-58,-107,-97,-58,-39
-29,-97,-68,63,19,-82,9,-58,-107,-97,-58,-39
-29,-97,-68,63,19,-82,9,-58,-107,-97,-58,-39
-29,-97,-68,63,19,-82,9,-58,-107,-97,-58,-39
-29,-97,-68,63,19,-82,0,-68,-107,-97,-58,-39
-29,-97,-68,63,19,-82,0,-68,-107,-97,-58,-39
-29,-97,-68,63,19,-82,0,-68,-107,-97,-58,-39
-29,-97,-68,63,19,-82,0,-68,-107,-97,-58,-39
-29,-87,-58,58,14,-73,0,-58,-107,-97,-58,-39
-29,-87,-58,58,14,-73,0,-58,-107,-97,-58,-39
-29,-87,-58,58,14,-73,0,-58,-107,-97,-58,-39
-29,-87,-58,58,14,-73,0,-58,-107,-97,-58,-39
-29,-87,-58,58,14,-73,0,-58,-107,-97,-48,-39
-29,-87,-58,58,14,-73,0,-58,-107,-97,-48,-39
-29,-87,-58,58,14,-73,0,-58,-107,-97,-48,-39
-29,-87,-58,58,14,-73,0,-58,-107,-97,-48,-39
-19,-78,-58,48,19,-68,9,-48,-97,-87,-48,-29
-19,-78,-58,48,19,-68,9,-48,-97,-87,-48,-29
-19,-78,-58,48,19,-68,9,-48,-97,-87,-48,-29
-19,-78,-58,48,19,-68,9,-48,-97,-87,-48,-29
-14,-73,-58,43,21,-65,9,-39,-87,-82,-39,-19
-9,-68,-58,39,24,-63,9,-39,-87,-78,-39,-19
-4,-63,-58,34,26,-61,9,-39,-87,-73,-39,-19
0,-53,-53,26,26,-53,9,-34,-82,-68,-39,-19
0,-43,-43,21,21,-43,9,-29,-78,-63,-19,-14
4,-34,-39,14,21,-36,9,-29,-73,-53,-19,-4
4,-24,-29,9,17,-26,9,-34,-68,-48,-14,0
4,-19,-24,7,14,-21,9,-34,-63,-43,-9,4
9,-19,-29,4,19,-24,14,-24,-48,-39,-14,0
9,-14,-24,2,17,-19,14,-19,-43,-39,-14,0
9,-14,-24,2,17,-19,14,-19,-39,-34,-4,0
14,-9,-24,-2,19,-17,14,-19,-39,-29,-4,0
14,-4,-19,-4,17,-12,4,-24,-39,-29,-4,14
19,-4,-24,-7,21,-14,4,-24,-34,-29,-4,14
19,-4,-24,-7,21,-14,4,-29,-34,-24,-4,14
24,0,-24,-12,24,-12,0,-29,-24,-19,0,19
39,0,-39,-19,39,-19,-4,-34,-24,-19,0,19
39,4,-34,-21,36,-14,-4,-34,-24,-19,4,19
39,4,-34,-21,36,-14,-14,-34,-24,-19,4,14
39,0,-39,-19,39,-19,-19,-34,-24,-19,4,14
48,9,-39,-29,43,-14,-29,-43,-24,-14,4,24
63,24,-39,-43,51,-7,-48,-48,-24,-4,14,29
68,29,-39,-48,53,-4,-63,-58,-24,-4,19,34
68,29,-39,-48,53,-4,-73,-63,-29,-9,19,34
68,19,-48,-43,58,-14,-82,-73,-34,-19,14,24
73,24,-48,-48,61,-12,-87,-82,-43,-24,14,24
73,24,-48,-48,61,-12,-97,-87,-53,-29,9,24
73,24,-48,-48,61,-12,-107,-102,-68,-39,4,19
63,14,-48,-39,56,-17,-107,-102,-68,-48,0,19
68,9,-58,-39,63,-24,-102,-102,-87,-48,-4,19
68,9,-58,-39,63,-24,-92,-102,-92,-53,-14,19
68,-4,-73,-31,70,-39,-87,-102,-102,-63,-14,9
78,-9,-87,-34,82,-48,-82,-102,-107,-68,-9,4
78,-24,-102,-26,90,-63,-73,-102,-117,-68,-14,4
78,-29,-107,-24,92,-68,-73,-102,-122,-73,-19,0
78,-29,-107,-24,92,-68,-68,-107,-126,-78,-24,-4
68,-43,-112,-12,90,-78,-68,-107,-126,-97,-39,-9
68,-48,-117,-9,92,-82,-58,-97,-126,-97,-39,-9
68,-53,-122,-7,95,-87,-48,-97,-126,-92,-39,-9
63,-53,-117,-4,90,-85,-39,-97,-126,-92,-39,-9
68,-48,-117,-9,92,-82,-48,-92,-126,-92,-39,-9
63,-48,-112,-7,87,-80,-48,-87,-126,-92,-34,-9
58,-48,-107,-4,82,-78,-43,-82,-126,-87,-34,-9
58,-48,-107,-4,82,-78,-43,-78,-122,-82,-29,-4
43,-53,-97,4,70,-75,-39,-78,-117,-82,-29,-4
39,-53,-92,7,65,-73,-34,-78,-117,-82,-29,-4
29,-53,-82,12,56,-68,-29,-78,-117,-82,-34,-9
24,-58,-82,17,53,-70,-29,-73,-117,-87,-39,-14
4,-68,-73,31,39,-70,-9,-68,-117,-87,-39,-9
-24,-78,-53,51,14,-65,4,-63,-117,-97,-39,-19
-43,-92,-48,68,2,-70,19,-63,-126,-112,-53,-34
-53,-102,-48,78,-2,-75,19,-63,-131,-117,-63,-43
-58,-102,-43,80,-7,-73,19,-68,-131,-122,-78,-58
-58,-102,-43,80,-7,-73,19,-68,-131,-122,-78,-58
-58,-102,-43,80,-7,-73,19,-73,-131,-122,-78,-58
-53,-102,-48,78,-2,-75,14,-73,-131,-117,-78,-53
-63,-107,-43,85,-9,-75,14,-68,-131,-117,-73,-53
-53,-107,-53,80,0,-80,14,-68,-126,-112,-68,-48
-53,-112,-58,82,2,-85,14,-68,-126,-112,-68,-48
-48,-112,-63,80,7,-87,14,-68,-126,-112,-68,-48
-48,-107,-58,78,4,-82,14,-63,-136,-122,-73,-58
-53,-107,-53,80,0,-80,14,-63,-136,-122,-73,-58
-53,-107,-53,80,0,-80,14,-63,-136,-122,-73,-58
-53,-107,-53,80,0,-80,14,-63,-136,-122,-73,-58
-39,-107,-68,73,14,-87,14,-63,-136,-122,-73,-48
-39,-107,-68,73,14,-87,19,-63,-136,-122,-73,-48
-39,-102,-63,70,12,-82,19,-63,-136,-122,-73,-48
-39,-102,-63,70,12,-82,19,-58,-131,-122,-68,-48
-39,-92,-53,65,7,-73,19,-58,-131,-122,-68,-48
-39,-92,-53,65,7,-73,19,-58,-131,-122,-73,-48
-39,-92,-53,65,7,-73,14,-58,-131,-117,-73,-48
-39,-92,-53,65,7,-73,14,-58,-131,-117,-68,-48
-39,-92,-53,65,7,-73,24,-63,-122,-107,-68,-58
-39,-97,-58,68,9,-78,24,-63,-122,-107,-68,-58
-39,-97,-58,68,9,-78,29,-63,-122,-107,-68,-58
-39,-92,-53,65,7,-73,29,-63,-122,-107,-68,-58
-39,-102,-63,70,12,-82,29,-58,-122,-107,-68,-48
-39,-92,-53,65,7,-73,29,-58,-122,-107,-68,-48
-29,-92,-63,61,17,-78,29,-53,-117,-107,-58,-53
-24,-92,-68,58,21,-80,43,-43,-107,-107,-58,-48
-34,-97,-63,65,14,-80,48,-29,-102,-102,-63,-63
-53,-102,-48,78,-2,-75,78,0,-82,-87,-73,-73
-73,-107,-34,90,-19,-70,117,58,-39,-78,-78,-102
-92,-122,-29,107,-31,-75,170,131,19,-63,-82,-126
-112,-156,-43,134,-34,-100,234,224,97,-29,-82,-146
-156,-156,0,156,-78,-78,292,307,190,4,-78,-156
-170,-146,24,158,-97,-61,336,375,307,68,-58,-156
-170,-136,34,153,-102,-51,380,453,414,151,-9,-141
-161,-112,48,136,-104,-31,405,517,512,244,48,-107
-131,-87,43,109,-87,-21,424,590,600,341,122,-78
-87,-63,24,75,-56,-19,434,649,653,419,195,-29
-34,-24,9,29,-21,-7,424,658,634,453,258,9
53,9,-43,-31,48,-17,385,634,551,463,317,68
165,48,-117,-107,141,-34,287,561,434,473,390,151
307,107,-200,-207,253,-46,165,468,336,531,531,283
458,209,-248,-334,353,-19,-9,322,258,649,717,458
624,336,-287,-480,456,24,-219,122,146,766,932,653
795,483,-312,-639,553,85,-434,-87,14,883,1141,854
976,649,-326,-812,651,161,-668,-307,-112,1000,1356,1063
1122,858,-263,-990,692,297,-980,-634,-268,1083,1556,1278
1234,1049,-185,-1141,710,431,-1273,-1024,-439,1088,1683,1464
1327,1200,-126,-1263,727,536,-1522,-1390,-639,995,1722,1615
1361,1298,-63,-1329,712,617,-1727,-1747,-912,795,1639,1688
1283,1312,29,-1298,627,671,-1878,-2152,-1273,409,1376,1664
1146,1220,73,-1183,536,646,-1937,-2449,-1678,-107,961,1517
1044,1054,9,-1049,517,531,-1922,-2566,-2127,-663,492,1288
976,810,-165,-893,570,322,-1854,-2537,-2503,-1180,34,1019
912,492,-419,-702,666,36,-1693,-2347,-2708,-1586,-395,712
863,170,-692,-517,778,-261,-1498,-2078,-2708,-1795,-688,439
829,29,-800,-429,814,-385,-1356,-1859,-2557,-1786,-780,307
761,29,-732,-395,746,-351,-1249,-1664,-2293,-1659,-761,263
663,63,-600,-363,631,-268,-1102,-1434,-1976,-1459,-688,248
566,87,-478,-326,522,-195,-927,-1171,-1625,-1210,-575,234
488,112,-375,-300,431,-131,-756,-927,-1307,-971,-463,214
419,131,-287,-275,353,-78,-619,-751,-1073,-785,-375,200
336,131,-204,-234,270,-36,-512,-639,-873,-653,-302,170
263,122,-141,-192,202,-9,-444,-575,-712,-531,-248,117
190,97,-92,-143,141,2,-375,-502,-570,-453,-214,58
136,53,-82,-95,109,-14,-273,-405,-439,-370,-175,24
87,0,-87,-43,87,-43,-185,-283,-331,-302,-146,-4
53,-53,-107,0,80,-80,-92,-175,-244,-234,-122,-14
14,-87,-102,36,58,-95,-14,-87,-170,-165,-97,-29
-9,-87,-78,48,34,-82,34,-34,-122,-126,-73,-29
-19,-87,-68,53,24,-78,43,-34,-102,-102,-78,-34
-24,-78,-53,51,14,-65,24,-34,-87,-107,-78,-43
-29,-68,-39,48,4,-53,24,-34,-78,-107,-68,-43
-29,-68,-39,48,4,-53,24,-29,-63,-117,-68,-63
-34,-73,-39,53,2,-56,39,-24,-53,-112,-73,-68
-34,-82,-48,58,7,-65,58,-4,-48,-112,-68,-68
-43,-92,-48,68,2,-70,68,0,-53,-117,-82,-68
-53,-112,-58,82,2,-85,68,9,-53,-107,-92,-78
-63,-112,-48,87,-7,-80,78,19,-39,-92,-92,-68
-63,-97,-34,80,-14,-65,78,19,-29,-87,-92,-78
-68,-97,-29,82,-19,-63,82,19,-24,-87,-87,-82
-68,-97,-29,82,-19,-63,82,24,-14,-82,-87,-82
-73,-97,-24,85,-24,-61,87,29,-9,-78,-82,-82
-73,-97,-24,85,-24,-61,102,34,-9,-78,-73,-73
-73,-107,-34,90,-19,-70,107,39,-4,-73,-73,-78
-73,-107,-34,90,-19,-70,107,39,-4,-68,-78,-78
-73,-107,-34,90,-19,-70,112,39,-4,-63,-78,-78
-73,-117,-43,95,-14,-80,107,43,9,-63,-78,-78
-73,-112,-39,92,-17,-75,107,48,9,-63,-78,-78
-73,-107,-34,90,-19,-70,107,48,14,-58,-68,-82
-73,-107,-34,90,-19,-70,107,48,19,-58,-68,-82
-78,-97,-19,87,-29,-58,112,53,24,-53,-63,-82
-78,-102,-24,90,-26,-63,112,53,24,-53,-63,-82
-82,-107,-24,95,-29,-65,112,53,24,-53,-63,-82
-82,-107,-24,95,-29,-65,117,58,29,-53,-58,-82
-78,-97,-19,87,-29,-58,117,58,29,-43,-63,-87
-78,-97,-19,87,-29,-58,112,58,34,-43,-63,-87
-78,-92,-14,85,-31,-53,112,63,43,-43,-63,-87
-78,-92,-14,85,-31,-53,112,63,43,-43,-68,-87
-87,-102,-14,95,-36,-58,112,63,39,-43,-68,-87
-92,-102,-9,97,-41,-56,112,68,39,-43,-68,-87
-92,-102,-9,97,-41,-56,112,68,43,-39,-68,-87
-92,-102,-9,97,-41,-56,117,68,43,-39,-68,-87
-82,-92,-9,87,-36,-51,117,68,48,-34,-58,-82
-82,-92,-9,87,-36,-51,117,73,48,-34,-58,-82
-82,-92,-9,87,-36,-51,122,78,53,-34,-53,-82
-82,-92,-9,87,-36,-51,122,78,58,-29,-53,-82
-82,-102,-19,92,-31,-61,126,78,63,-24,-63,-82
-82,-102,-19,92,-31,-61,126,78,63,-24,-63,-82
-78,-102,-24,90,-26,-63,131,82,63,-24,-58,-82
-78,-102,-24,90,-26,-63,131,82,68,-24,-58,-82
-82,-97,-14,90,-34,-56,122,92,73,-19,-58,-73
-82,-97,-14,90,-34,-56,126,97,73,-19,-58,-78
-82,-92,-9,87,-36,-51,126,97,82,-19,-53,-78
-82,-92,-9,87,-36,-51,122,97,82,-19,-53,-78
-73,-92,-19,82,-26,-56,122,97,82,-14,-53,-82
-73,-92,-19,82,-26,-56,122,97,87,-14,-53,-82
-73,-92,-19,82,-26,-56,122,97,87,-9,-53,-82
-73,-92,-19,82,-26,-56,122,102,87,-9,-48,-82
-82,-82,0,82,-41,-41,122,102,97,-9,-48,-82
-78,-82,-4,80,-36,-43,122,107,102,-9,-48,-82
-78,-82,-4,80,-36,-43,122,112,102,-4,-48,-82
-78,-82,-4,80,-36,-43,131,112,107,0,-48,-82
-78,-82,-4,80,-36,-43,131,102,102,0,-43,-82
-78,-82,-4,80,-36,-43,126,107,107,0,-43,-82
-78,-82,-4,80,-36,-43,126,112,112,0,-43,-82
-78,-87,-9,82,-34,-48,126,117,117,0,-43,-82
-82,-87,-4,85,-39,-46,126,117,131,9,-43,-73
-82,-87,-4,85,-39,-46,126,117,131,14,-43,-73
-78,-82,-4,80,-36,-43,131,126,136,19,-39,-73
-78,-82,-4,80,-36,-43,131,131,141,24,-34,-73
-87,-82,4,85,-46,-39,136,136,146,29,-34,-73
-87,-82,4,85,-46,-39,136,136,151,34,-34,-73
-87,-78,9,82,-48,-34,136,141,156,39,-34,-73
-87,-78,9,82,-48,-34,136,146,165,39,-29,-73
-78,-78,0,78,-39,-39,136,151,170,53,-24,-73
-78,-73,4,75,-41,-34,141,156,175,53,-24,-68
-78,-68,9,73,-43,-29,141,161,180,58,-24,-68
-78,-68,9,73,-43,-29,141,165,185,63,-24,-68
-78,-68,9,73,-43,-29,146,180,200,58,-19,-68
-78,-63,14,70,-46,-24,146,185,204,63,-14,-68
-78,-63,14,70,-46,-24,146,190,214,68,-9,-63
-78,-63,14,70,-46,-24,151,200,219,78,-9,-63
-78,-68,9,73,-43,-29,151,195,234,82,-4,-68
-78,-63,14,70,-46,-24,156,204,244,87,0,-68
-78,-63,14,70,-46,-24,156,209,253,92,4,-63
-73,-58,14,65,-43,-21,156,219,263,102,4,-63
-68,-58,9,63,-39,-24,161,229,273,117,4,-53
-68,-53,14,61,-41,-19,161,239,283,126,14,-53
-68,-53,14,61,-41,-19,161,248,297,126,14,-53
-68,-48,19,58,-43,-14,165,268,307,136,19,-48
-58,-43,14,51,-36,-14,165,278,322,146,24,-39
-58,-39,19,48,-39,-9,170,287,341,161,29,-34
-58,-29,29,43,-43,0,170,297,351,170,34,-29
-53,-14,39,34,-46,12,180,307,366,180,39,-29
-58,-19,39,39,-48,9,185,317,380,180,43,-34
-58,-14,43,36,-51,14,185,331,395,190,53,-29
-58,-9,48,34,-53,19,185,341,409,200,58,-24
-58,-9,48,34,-53,19,185,356,424,209,58,-24
-58,-4,53,31,-56,24,190,366,439,224,68,-34
-53,0,53,26,-53,26,195,380,458,239,73,-34
-48,9,58,19,-53,34,200,400,478,248,87,-29
-48,19,68,14,-58,43,200,409,497,258,92,-24
-53,14,68,19,-61,41,200,434,522,278,97,-19
-53,19,73,17,-63,46,209,448,536,287,112,-14
-48,29,78,9,-63,53,209,453,556,307,117,-9
-43,39,82,2,-63,61,214,473,575,312,122,-4
-43,43,87,0,-65,65,224,483,595,331,126,-4
-39,53,92,-7,-65,73,229,502,614,346,141,4
-39,58,97,-9,-68,78,229,517,639,361,146,9
-39,73,112,-17,-75,92,234,527,658,375,156,9
-34,73,107,-19,-70,90,234,551,678,395,165,24
-34,82,117,-24,-75,100,234,566,697,409,175,29
-29,82,112,-26,-70,97,239,580,717,424,185,34
-29,97,126,-34,-78,112,239,585,736,439,190,39
-19,107,126,-43,-73,117,248,600,751,444,190,43
-14,117,131,-51,-73,124,248,610,771,458,200,48
-9,126,136,-58,-73,131,248,624,795,473,209,53
-9,136,146,-63,-78,141,248,629,810,488,214,58
-9,156,165,-73,-87,161,239,639,829,502,234,68
-4,165,170,-80,-87,168,239,644,849,507,239,68
0,175,175,-87,-87,175,239,653,863,527,248,73
4,185,180,-95,-87,183,234,658,873,531,253,78
9,185,175,-97,-82,180,234,658,878,536,244,82
14,195,180,-104,-82,187,234,668,888,551,253,87
19,200,180,-109,-80,190,229,668,902,561,263,92
19,209,190,-114,-85,200,229,673,912,570,263,97
24,229,204,-126,-90,217,224,673,927,575,278,107
29,234,204,-131,-87,219,214,668,932,585,283,107
34,244,209,-139,-87,226,209,663,936,585,287,112
39,248,209,-143,-85,229,204,658,936,585,287,117
34,244,209,-139,-87,226,204,649,936,585,283,112
39,248,209,-143,-85,229,195,649,936,590,283,117
43,258,214,-151,-85,236,185,634,927,590,283,122
48,263,214,-156,-82,239,180,619,922,585,283,126
53,263,209,-158,-78,236,165,605,912,570,283,131
53,268,214,-161,-80,241,161,600,907,570,283,136
68,278,209,-173,-70,244,151,580,897,566,278,136
68,278,209,-173,-70,244,136,566,878,561,278,136
78,287,209,-183,-65,248,126,536,849,551,278,136
82,287,204,-185,-61,246,117,517,824,536,273,136
92,287,195,-190,-51,241,102,492,795,522,268,136
102,283,180,-192,-39,231,92,473,780,507,258,136
102,278,175,-190,-36,226,82,453,761,492,253,141
102,278,175,-190,-36,226,73,434,736,478,248,141
102,263,161,-183,-29,212,63,414,707,463,234,141
97,258,161,-178,-31,209,58,395,678,439,219,141
112,253,141,-183,-14,197,53,370,649,434,214,126
117,244,126,-180,-4,185,43,351,619,409,204,126
117,229,112,-173,2,170,34,326,580,390,195,122
117,219,102,-168,7,161,24,297,541,361,185,117
117,204,87,-161,14,146,4,263,497,326,161,107
117,190,73,-153,21,131,4,244,463,297,146,102
117,175,58,-146,29,117,4,229,434,278,136,97
112,165,53,-139,29,109,0,209,400,258,126,92
112,161,48,-136,31,104,0,190,375,248,126,87
112,151,39,-131,36,95,-4,170,346,229,117,82
107,136,29,-122,39,82,-9,161,312,209,102,73
97,122,24,-109,36,73,-14,141,278,185,92,63
92,97,4,-95,43,51,-19,112,248,156,68,63
87,87,0,-87,43,43,-19,97,229,141,58,58
82,78,-4,-80,43,36,-19,82,204,122,48,53
82,63,-19,-73,51,21,-19,73,180,107,48,48
68,53,-14,-61,41,19,-19,68,156,107,39,48
63,48,-14,-56,39,17,-14,63,136,97,34,48
58,43,-14,-51,36,14,-14,48,112,87,34,43
58,29,-29,-43,43,0,-14,39,92,73,29,39
58,24,-34,-41,46,-4,-14,29,78,53,14,24
58,14,-43,-36,51,-14,-14,19,68,43,9,19
53,4,-48,-29,51,-21,-14,14,53,39,4,14
48,0,-48,-24,48,-24,-14,9,48,34,4,14
39,-4,-43,-17,41,-24,-9,0,39,24,4,19
39,-9,-48,-14,43,-29,-9,0,24,19,0,19
39,-14,-53,-12,46,-34,-9,-4,9,9,-4,19
34,-24,-58,-4,46,-41,-9,-9,0,0,-9,19
29,-24,-53,-2,41,-39,-19,-14,-14,4,-4,9
29,-29,-58,0,43,-43,-19,-19,-19,0,-9,4
24,-34,-58,4,41,-46,-19,-19,-24,-4,-14,4
19,-34,-53,7,36,-43,-19,-24,-24,-9,-14,0
9,-39,-48,14,29,-43,-19,-34,-29,-19,-14,0
9,-39,-48,14,29,-43,-19,-43,-29,-19,-14,0
9,-39,-48,14,29,-43,-19,-43,-34,-24,-14,-4
9,-39,-48,14,29,-43,-19,-43,-43,-29,-19,-4
19,-39,-58,9,39,-48,-9,-34,-43,-24,-19,0
19,-48,-68,14,43,-58,-9,-34,-48,-24,-19,0
14,-48,-63,17,39,-56,-9,-34,-48,-24,-19,0
14,-48,-63,17,39,-56,-4,-34,-53,-19,-19,0
14,-58,-73,21,43,-65,-4,-34,-53,-29,-29,-9
14,-58,-73,21,43,-65,-4,-39,-53,-29,-29,-9
9,-58,-68,24,39,-63,-4,-39,-53,-29,-34,-9
9,-63,-73,26,41,-68,-4,-39,-58,-39,-34,-9
9,-63,-73,26,41,-68,-4,-39,-48,-29,-34,-9
9,-63,-73,26,41,-68,-4,-39,-53,-29,-34,-4
9,-63,-73,26,41,-68,0,-39,-53,-29,-29,-4
9,-68,-78,29,43,-73,0,-34,-53,-34,-29,-4
9,-68,-78,29,43,-73,0,-43,-53,-43,-34,-9
9,-68,-78,29,43,-73,0,-43,-53,-43,-34,-9
9,-63,-73,26,41,-68,0,-43,-53,-43,-29,-9
9,-63,-73,26,41,-68,0,-39,-53,-43,-29,-9
9,-63,-73,26,41,-68,0,-29,-53,-34,-19,-4
9,-63,-73,26,41,-68,0,-34,-53,-34,-24,-4
9,-63,-73,26,41,-68,0,-34,-53,-29,-24,0
9,-63,-73,26,41,-68,0,-34,-53,-29,-24,0
4,-63,-68,29,36,-65,4,-29,-53,-29,-24,-9
4,-63,-68,29,36,-65,4,-29,-48,-29,-24,-9
4,-63,-68,29,36,-65,4,-29,-48,-24,-19,-9
4,-63,-68,29,36,-65,4,-29,-48,-24,-19,-9
4,-73,-78,34,41,-75,14,-29,-39,-24,-19,0
4,-73,-78,34,41,-75,9,-29,-39,-24,-19,0
4,-73,-78,34,41,-75,9,-29,-39,-24,-19,0
9,-73,-82,31,46,-78,9,-29,-39,-24,-19,0
4,-63,-68,29,36,-65,9,-29,-39,-24,-9,-9
4,-63,-68,29,36,-65,9,-29,-34,-24,-9,-9
0,-63,-63,31,31,-63,9,-29,-34,-24,-9,-9
0,-63,-63,31,31,-63,9,-24,-34,-24,-9,-4
9,-63,-73,26,41,-68,9,-24,-34,-24,-9,-4
4,-63,-68,29,36,-65,9,-24,-34,-19,-9,-4
4,-63,-68,29,36,-65,9,-24,-34,-19,-9,-4
4,-63,-68,29,36,-65,9,-24,-34,-19,-9,-4
-4,-63,-58,34,26,-61,0,-19,-24,-19,-9,-4
-4,-63,-58,34,26,-61,4,-19,-24,-9,-9,-4
-4,-63,-58,34,26,-61,9,-19,-14,-9,-9,-4
-4,-63,-58,34,26,-61,9,-19,-14,-9,-9,-4
-4,-63,-58,34,26,-61,19,-14,-14,-9,-9,-4
-4,-63,-58,34,26,-61,19,-14,-9,-9,-9,-4
0,-58,-58,29,29,-58,19,-14,-4,-9,-9,-9
0,-58,-58,29,29,-58,14,-9,-4,-9,-9,-9
9,-58,-68,24,39,-63,14,-9,-14,-9,-4,-9
4,-58,-63,26,34,-61,24,-9,-9,-4,-4,-4
4,-58,-63,26,34,-61,24,-9,-9,-4,-4,-4
9,-58,-68,24,39,-63,24,-4,-4,0,-4,-4
0,-58,-58,29,29,-58,24,-4,-4,0,-4,-4
0,-58,-58,29,29,-58,24,-4,-4,0,-4,-4
0,-58,-58,29,29,-58,24,-4,0,0,-4,-4
-4,-58,-53,31,24,-56,24,0,0,0,-4,-4
-4,-58,-53,31,24,-56,29,0,9,4,0,-4
-4,-58,-53,31,24,-56,29,0,14,4,0,-4
-9,-58,-48,34,19,-53,24,0,14,4,-4,-4
-9,-58,-48,34,19,-53,24,0,14,4,-4,-4
-9,-58,-48,34,19,-53,24,14,14,9,-4,-4
-9,-58,-48,34,19,-53,29,14,14,9,-4,-9
-9,-58,-48,34,19,-53,29,14,19,9,-9,-9
-9,-58,-48,34,19,-53,34,14,19,9,-9,-9
-9,-68,-58,39,24,-63,34,4,14,4,-14,-4
-9,-68,-58,39,24,-63,34,9,14,4,-14,-4
-9,-68,-58,39,24,-63,34,9,14,0,-14,-14
-9,-63,-53,36,21,-58,39,9,14,0,-14,-14
-9,-63,-53,36,21,-58,39,19,14,9,-4,-4
-14,-63,-48,39,17,-56,39,19,9,9,-4,-9
-14,-63,-48,39,17,-56,34,19,9,4,-9,-9
-14,-68,-53,41,19,-61,34,19,9,4,-9,-9
-19,-73,-53,46,17,-63,34,9,19,14,-9,-9
-19,-73,-53,46,17,-63,34,9,14,14,-9,-9
-14,-73,-58,43,21,-65,34,9,14,14,-9,-9
-14,-73,-58,43,21,-65,34,9,14,14,-9,-9
-14,-73,-58,43,21,-65,39,19,14,4,-19,-19
-14,-73,-58,43,21,-65,43,19,14,4,-19,-19
-14,-73,-58,43,21,-65,43,19,14,4,-19,-19
-14,-73,-58,43,21,-65,39,19,14,0,-19,-24
-24,-78,-53,51,14,-65,39,19,4,0,-19,-14
-24,-78,-53,51,14,-65,39,19,4,0,-19,-14
-24,-82,-58,53,17,-70,39,14,0,-4,-24,-14
-24,-82,-58,53,17,-70,39,14,0,-4,-24,-14
-14,-82,-68,48,26,-75,39,14,0,-4,-19,-14
-14,-82,-68,48,26,-75,39,14,0,-9,-19,-14
-14,-82,-68,48,26,-75,39,14,-4,-14,-19,-14
-14,-87,-73,51,29,-80,39,14,-4,-14,-19,-14
-19,-87,-68,53,24,-78,39,14,-4,-14,-19,-24
-19,-87,-68,53,24,-78,39,14,-9,-14,-19,-24
-19,-87,-68,53,24,-78,39,14,-9,-14,-19,-24
-19,-87,-68,53,24,-78,39,14,-14,-19,-24,-24
-19,-78,-58,48,19,-68,39,14,-14,-19,-24,-14
-19,-87,-68,53,24,-78,39,14,-19,-19,-24,-19
-19,-87,-68,53,24,-78,39,9,-19,-29,-29,-19
-19,-87,-68,53,24,-78,39,9,-19,-29,-29,-19
-19,-87,-68,53,24,-78,39,9,-19,-29,-29,-29
-19,-92,-73,56,26,-82,39,9,-24,-29,-29,-29
-19,-92,-73,56,26,-82,39,9,-24,-29,-29,-34
-19,-92,-73,56,26,-82,34,9,-24,-39,-29,-34
-19,-87,-68,53,24,-78,34,0,-19,-29,-29,-34
-19,-87,-68,53,24,-78,34,0,-24,-29,-34,-34
-19,-87,-68,53,24,-78,34,0,-24,-29,-34,-39
-19,-87,-68,53,24,-78,34,0,-29,-34,-34,-39
-29,-87,-58,58,14,-73,34,4,-34,-43,-34,-24
-24,-92,-68,58,21,-80,34,0,-34,-43,-34,-24
-24,-92,-68,58,21,-80,34,0,-34,-43,-34,-24
-24,-92,-68,58,21,-80,39,0,-34,-43,-39,-24
-24,-92,-68,58,21,-80,39,0,-34,-48,-39,-34
-24,-92,-68,58,21,-80,39,0,-34,-48,-39,-34
-24,-92,-68,58,21,-80,34,0,-39,-48,-39,-34
-29,-92,-63,61,17,-78,34,-4,-43,-53,-39,-34
-19,-102,-82,61,31,-92,43,-4,-43,-53,-39,-34
-19,-102,-82,61,31,-92,43,0,-43,-53,-39,-34
-14,-102,-87,58,36,-95,43,0,-43,-53,-39,-34
-14,-102,-87,58,36,-95,43,-4,-43,-53,-43,-34
-14,-107,-92,61,39,-100,34,-4,-48,-53,-43,-43
-19,-107,-87,63,34,-97,34,-4,-48,-53,-43,-43
-19,-107,-87,63,34,-97,34,-4,-48,-53,-48,-43
-19,-102,-82,61,31,-92,34,-9,-48,-58,-48,-43
-19,-112,-92,65,36,-102,39,-9,-58,-58,-43,-43
-19,-112,-92,65,36,-102,39,-9,-58,-58,-43,-39
-19,-112,-92,65,36,-102,34,-9,-63,-58,-43,-39
-19,-107,-87,63,34,-97,34,-9,-63,-58,-43,-39
-14,-97,-82,56,34,-90,43,-9,-53,-48,-43,-29
-14,-97,-82,56,34,-90,43,-9,-53,-53,-43,-29
-14,-107,-92,61,39,-100,43,-4,-53,-53,-43,-34
-14,-107,-92,61,39,-100,43,-4,-58,-53,-48,-34
-14,-107,-92,61,39,-100,34,-9,-68,-58,-48,-34
-14,-107,-92,61,39,-100,34,-9,-68,-58,-43,-34
-14,-107,-92,61,39,-100,34,-9,-68,-58,-43,-34
-14,-107,-92,61,39,-100,34,-9,-68,-58,-48,-29
-24,-117,-92,70,34,-104,34,-9,-68,-58,-48,-29
-24,-117,-92,70,34,-104,34,-9,-68,-58,-48,-34
-24,-112,-87,68,31,-100,34,-9,-68,-58,-53,-34
-24,-112,-87,68,31,-100,34,-9,-73,-63,-53,-34
-24,-112,-87,68,31,-100,34,-9,-73,-58,-53,-34
-24,-112,-87,68,31,-100,34,-9,-73,-58,-53,-34
-24,-117,-92,70,34,-104,34,-9,-73,-58,-53,-34
-24,-117,-92,70,34,-104,34,-9,-73,-58,-48,-34
-19,-112,-92,65,36,-102,34,-19,-73,-68,-48,-34
-19,-112,-92,65,36,-102,34,-19,-73,-68,-48,-34
-19,-112,-92,65,36,-102,29,-19,-73,-68,-48,-34
-24,-117,-92,70,34,-104,29,-24,-73,-68,-48,-34
-24,-107,-82,65,29,-95,34,-14,-73,-58,-48,-34
-19,-107,-87,63,34,-97,34,-14,-78,-58,-48,-34
-19,-112,-92,65,36,-102,34,-19,-82,-63,-48,-39
-19,-112,-92,65,36,-102,34,-19,-82,-63,-48,-39
-14,-112,-97,63,41,-104,34,-14,-73,-58,-48,-39
-14,-112,-97,63,41,-104,34,-14,-73,-58,-48,-39
-9,-107,-97,58,43,-102,34,-14,-73,-58,-48,-39
-9,-107,-97,58,43,-102,34,-14,-68,-58,-48,-39
-19,-107,-87,63,34,-97,34,-24,-78,-68,-48,-39
-19,-107,-87,63,34,-97,34,-24,-78,-68,-48,-39
-14,-107,-92,61,39,-100,34,-24,-78,-68,-48,-34
-14,-107,-92,61,39,-100,34,-24,-78,-68,-48,-34
-24,-107,-82,65,29,-95,29,-14,-68,-58,-48,-29
-24,-107,-82,65,29,-95,29,-19,-73,-63,-48,-29
-24,-107,-82,65,29,-95,29,-24,-73,-63,-48,-29
-24,-107,-82,65,29,-95,29,-24,-73,-63,-48,-29
-19,-107,-87,63,34,-97,39,-24,-73,-63,-39,-29
-19,-107,-87,63,34,-97,39,-19,-73,-63,-39,-29
-19,-107,-87,63,34,-97,39,-19,-73,-63,-39,-29
-19,-107,-87,63,34,-97,39,-19,-73,-58,-39,-29
-19,-107,-87,63,34,-97,29,-19,-82,-68,-43,-29
-14,-107,-92,61,39,-100,29,-19,-82,-68,-43,-29
-14,-107,-92,61,39,-100,29,-19,-82,-68,-43,-29
-14,-107,-92,61,39,-100,29,-19,-82,-68,-43,-29
-14,-97,-82,56,34,-90,34,-19,-82,-68,-43,-29
-4,-97,-92,51,43,-95,24,-24,-73,-68,-39,-29
-14,-97,-82,56,34,-90,29,-24,-73,-58,-39,-29
-14,-107,-92,61,39,-100,29,-19,-82,-58,-43,-29
-19,-107,-87,63,34,-97,29,-19,-78,-68,-48,-29
-29,-117,-87,73,29,-102,39,-19,-87,-68,-48,-39
-29,-117,-87,73,29,-102,39,-19,-87,-68,-48,-39
-29,-117,-87,73,29,-102,39,-19,-87,-68,-48,-39
-29,-117,-87,73,29,-102,39,-19,-87,-68,-48,-39
-19,-117,-97,68,39,-107,29,-29,-87,-68,-48,-29
-19,-117,-97,68,39,-107,29,-29,-87,-68,-48,-29
-19,-117,-97,68,39,-107,29,-29,-87,-68,-48,-29
-19,-117,-97,68,39,-107,29,-29,-87,-68,-48,-29
-9,-112,-102,61,46,-107,29,-29,-87,-68,-39,-29
-9,-107,-97,58,43,-102,29,-29,-87,-68,-39,-29
-9,-102,-92,56,41,-97,29,-29,-87,-68,-39,-29
-9,-97,-87,53,39,-92,29,-29,-87,-68,-39,-29
-19,-97,-78,58,29,-87,29,-19,-78,-68,-39,-29
-19,-97,-78,58,29,-87,29,-19,-78,-68,-39,-29
-19,-97,-78,58,29,-87,29,-19,-78,-68,-39,-29
-19,-97,-78,58,29,-87,29,-19,-78,-68,-39,-29
-29,-102,-73,65,21,-87,39,-19,-87,-68,-48,-29
-29,-107,-78,68,24,-92,39,-19,-87,-68,-48,-29
-29,-112,-82,70,26,-97,39,-19,-87,-68,-48,-29
-29,-117,-87,73,29,-102,39,-19,-87,-68,-48,-29
-19,-107,-87,63,34,-97,29,-19,-87,-78,-48,-29
-19,-107,-87,63,34,-97,29,-19,-87,-78,-48,-29
-19,-107,-87,63,34,-97,29,-19,-87,-78,-48,-29
-19,-107,-87,63,34,-97,29,-19,-87,-78,-48,-29
-9,-107,-97,58,43,-102,29,-29,-87,-68,-48,-29
-9,-107,-97,58,43,-102,29,-29,-87,-68,-48,-29
-9,-107,-97,58,43,-102,29,-29,-87,-68,-48,-29
-9,-107,-97,58,43,-102,29,-29,-87,-68,-48,-29
-19,-117,-97,68,39,-107,29,-29,-87,-78,-58,-29
-19,-117,-97,68,39,-107,29,-29,-87,-78,-58,-29
-19,-117,-97,68,39,-107,29,-29,-87,-78,-58,-29
-19,-117,-97,68,39,-107,29,-29,-87,-78,-58,-29
-29,-117,-87,73,29,-102,29,-29,-87,-68,-48,-29
-29,-117,-87,73,29,-102,29,-29,-87,-68,-48,-29
-29,-117,-87,73,29,-102,29,-29,-87,-68,-48,-29
-29,-117,-87,73,29,-102,29,-29,-87,-68,-48,-29
-19,-117,-97,68,39,-107,29,-29,-87,-68,-39,-29
-19,-117,-97,68,39,-107,29,-29,-87,-68,-39,-29
-19,-117,-97,68,39,-107,29,-29,-87,-68,-39,-29
-19,-117,-97,68,39,-107,29,-29,-87,-68,-39,-29
-19,-107,-87,63,34,-97,39,-19,-78,-58,-39,-29
-19,-107,-87,63,34,-97,39,-19,-78,-58,-39,-29
-19,-107,-87,63,34,-97,39,-19,-78,-58,-39,-29
-19,-107,-87,63,34,-97,39,-19,-78,-58,-39,-29
-19,-107,-87,63,34,-97,29,-29,-87,-68,-48,-29
-19,-107,-87,63,34,-97,29,-29,-87,-68,-48,-29
-19,-107,-87,63,34,-97,29,-29,-87,-68,-48,-29
-19,-107,-87,63,34,-97,29,-29,-87,-68,-48,-29
-19,-97,-78,58,29,-87,29,-29,-87,-68,-48,-29
-19,-97,-78,58,29,-87,29,-29,-87,-68,-48,-29
-19,-97,-78,58,29,-87,29,-29,-87,-68,-48,-29
-19,-97,-78,58,29,-87,29,-29,-87,-68,-48,-29
-9,-107,-97,58,43,-102,29,-29,-97,-78,-48,-29
-9,-107,-97,58,43,-102,29,-29,-97,-78,-48,-29
-9,-107,-97,58,43,-102,29,-29,-97,-78,-48,-29
-9,-107,-97,58,43,-102,29,-29,-97,-78,-48,-29
-14,-107,-92,61,39,-100,29,-29,-97,-78,-48,-29
-19,-107,-87,63,34,-97,29,-29,-97,-78,-48,-29
-24,-107,-82,65,29,-95,29,-29,-97,-78,-48,-29
-29,-107,-78,68,24,-92,29,-29,-97,-78,-48,-29
-19,-107,-87,63,34,-97,29,-29,-87,-68,-39,-29
-19,-107,-87,63,34,-97,29,-29,-87,-68,-39,-29
-19,-107,-87,63,34,-97,29,-29,-87,-68,-39,-29
-19,-107,-87,63,34,-97,29,-29,-87,-68,-39,-29
-19,-107,-87,63,34,-97,29,-29,-87,-68,-48,-29
-19,-107,-87,63,34,-97,29,-29,-87,-68,-48,-29
-19,-107,-87,63,34,-97,29,-29,-87,-68,-48,-29
-19,-107,-87,63,34,-97,29,-29,-87,-68,-48,-29
-19,-97,-78,58,29,-87,29,-29,-87,-68,-39,-29
-19,-97,-78,58,29,-87,29,-29,-87,-68,-39,-29
-19,-97,-78,58,29,-87,29,-29,-87,-68,-39,-29
-19,-97,-78,58,29,-87,29,-29,-87,-68,-39,-29
-19,-97,-78,58,29,-87,29,-29,-87,-78,-48,-29
-19,-97,-78,58,29,-87,29,-29,-87,-78,-48,-29
-19,-97,-78,58,29,-87,29,-29,-87,-78,-48,-29
-19,-97,-78,58,29,-87,29,-29,-87,-78,-48,-29
-19,-107,-87,63,34,-97,29,-29,-87,-68,-48,-29
-19,-107,-87,63,34,-97,29,-29,-87,-68,-48,-29
-19,-107,-87,63,34,-97,29,-29,-87,-68,-48,-29
-19,-107,-87,63,34,-97,29,-29,-87,-68,-48,-29
-19,-97,-78,58,29,-87,29,-29,-87,-68,-39,-29
-19,-97,-78,58,29,-87,29,-29,-87,-68,-39,-29
-19,-97,-78,58,29,-87,29,-29,-87,-68,-39,-29
-19,-97,-78,58,29,-87,29,-29,-87,-68,-39,-29
-9,-97,-87,53,39,-92,29,-29,-97,-78,-39,-29
-9,-97,-87,53,39,-92,29,-29,-97,-78,-39,-29
-9,-97,-87,53,39,-92,29,-29,-97,-78,-39,-29
-9,-97,-87,53,39,-92,29,-29,-97,-78,-39,-29
-9,-97,-87,53,39,-92,39,-19,-87,-73,-39,-19
-9,-97,-87,53,39,-92,39,-19,-87,-68,-39,-19
-9,-97,-87,53,39,-92,39,-19,-87,-63,-39,-19
-9,-97,-87,53,39,-92,39,-19,-87,-58,-39,-19
0,-92,-92,46,46,-92,39,-9,-82,-48,-29,-9
0,-87,-87,43,43,-87,39,-9,-78,-48,-29,-9
0,-82,-82,41,41,-82,39,-9,-73,-48,-29,-9
0,-73,-73,36,36,-73,39,-4,-63,-48,-29,-9
9,-63,-73,26,41,-68,39,0,-58,-53,-19,-14
14,-53,-68,19,41,-61,39,0,-53,-43,-19,-4
14,-43,-58,14,36,-51,39,-4,-48,-39,-14,0
14,-39,-53,12,34,-46,39,-4,-43,-34,-9,4
19,-29,-48,4,34,-39,34,-4,-39,-19,-4,9
19,-24,-43,2,31,-34,34,0,-34,-19,-4,9
19,-24,-43,2,31,-34,34,0,-29,-14,4,9
24,-19,-43,-2,34,-31,34,0,-29,-9,4,9
14,-24,-39,4,26,-31,34,-4,-29,-19,14,14
19,-24,-43,2,31,-34,34,-4,-24,-19,14,14
19,-24,-43,2,31,-34,34,-9,-24,-14,14,14
24,-19,-43,-2,34,-31,29,-9,-14,-9,19,19
39,-9,-48,-14,43,-29,24,-14,-14,0,9,29
39,-4,-43,-17,41,-24,24,-14,-14,0,14,29
39,-4,-43,-17,41,-24,14,-14,-14,0,14,24
