I, II, III, aVR, aVL, aVF, V1, V2, V3, V4, V5, V6
39,-29,-68,-4,53,-48,-29,19,-48,-39,-19,0
39,-29,-68,-4,53,-48,-29,19,-48,-39,-19,0
39,-29,-68,-4,53,-48,-29,19,-48,-39,-19,0
39,-29,-68,-4,53,-48,-29,19,-48,-39,-19,0
29,-29,-58,0,43,-43,-29,19,-58,-29,-19,0
29,-29,-58,0,43,-43,-29,19,-58,-29,-19,0
29,-29,-58,0,43,-43,-29,19,-58,-29,-19,0
29,-29,-58,0,43,-43,-29,19,-58,-29,-19,0
39,-39,-78,0,58,-58,-39,19,-58,-39,-19,-9
39,-39,-78,0,58,-58,-39,19,-58,-39,-19,-9
39,-39,-78,0,58,-58,-39,19,-58,-39,-19,-9
39,-39,-78,0,58,-58,-39,19,-58,-39,-19,-9
39,-34,-73,-2,56,-53,-39,19,-58,-39,-19,-9
39,-29,-68,-4,53,-48,-39,19,-58,-39,-19,-9
39,-24,-63,-7,51,-43,-39,19,-58,-39,-19,-9
39,-19,-58,-9,48,-39,-39,19,-58,-39,-19,-9
29,-24,-53,-2,41,-39,-29,29,-48,-29,-9,-4
29,-29,-58,0,43,-43,-29,29,-48,-29,-9,0
29,-34,-63,2,46,-48,-29,29,-48,-29,-9,4
29,-39,-68,4,48,-53,-29,29,-48,-29,-9,9
39,-24,-63,-7,51,-43,-34,24,-53,-39,-19,4
39,-19,-58,-9,48,-39,-39,19,-58,-39,-19,0
39,-14,-53,-12,46,-34,-43,14,-63,-39,-19,-4
39,-9,-48,-14,43,-29,-48,9,-68,-39,-19,-9
39,-19,-58,-9,48,-39,-48,19,-68,-48,-29,-19
39,-19,-58,-9,48,-39,-48,19,-68,-48,-29,-19
39,-19,-58,-9,48,-39,-48,19,-68,-48,-29,-19
39,-19,-58,-9,48,-39,-48,19,-68,-48,-29,-14
39,-19,-58,-9,48,-39,-48,19,-68,-39,-19,-4
39,-14,-53,-12,46,-34,-53,19,-73,-39,-19,-9
39,-14,-53,-12,46,-34,-53,19,-73,-39,-19,-9
39,-14,-53,-12,46,-34,-48,19,-73,-39,-19,-9
39,-19,-58,-9,48,-39,-48,19,-68,-48,-19,0
39,-19,-58,-9,48,-39,-48,19,-68,-48,-19,4
39,-19,-58,-9,48,-39,-48,19,-68,-48,-19,4
39,-14,-53,-12,46,-34,-48,19,-68,-48,-19,4
39,0,-39,-19,39,-19,-53,19,-68,-39,-19,-4
39,-9,-48,-14,43,-29,-53,19,-68,-39,-19,-4
39,-14,-53,-12,46,-34,-53,19,-68,-34,-19,-4
48,-14,-63,-17,56,-39,-53,24,-68,-34,-19,-4
48,-14,-63,-17,56,-39,-48,34,-58,-34,-19,-4
48,-14,-63,-17,56,-39,-48,34,-58,-34,-19,-4
53,-4,-58,-24,56,-31,-48,39,-58,-34,-14,0
53,-4,-58,-24,56,-31,-48,39,-53,-34,-9,0
53,-9,-63,-21,58,-36,-48,43,-63,-24,-9,-9
53,-14,-68,-19,61,-41,-48,43,-68,-24,-14,-14
63,-14,-78,-24,70,-46,-53,43,-68,-29,-14,-14
68,-14,-82,-26,75,-48,-53,43,-68,-29,-14,-14
68,0,-68,-34,68,-34,-48,43,-53,-34,-14,0
68,4,-63,-36,65,-29,-48,43,-48,-24,0,4
63,14,-48,-39,56,-17,-43,48,-43,-19,4,9
63,24,-39,-43,51,-7,-43,48,-34,-14,4,14
63,19,-43,-41,53,-12,-43,48,-29,-9,9,19
63,29,-34,-46,48,-2,-43,48,-19,0,19,24
63,34,-29,-48,46,2,-43,58,-4,14,39,39
68,43,-24,-56,46,9,-48,58,4,19,48,48
82,68,-14,-75,48,26,-73,53,0,24,53,63
92,78,-14,-85,53,31,-87,53,-9,24,58,63
97,78,-19,-87,58,29,-97,53,-14,24,58,63
102,78,-24,-90,63,26,-107,43,-34,19,48,58
102,87,-14,-95,58,36,-131,39,-48,9,39,53
112,87,-24,-100,68,31,-141,34,-53,4,39,53
117,102,-14,-109,65,43,-146,29,-58,4,39,58
122,117,-4,-119,63,56,-151,29,-58,9,43,63
126,126,0,-126,63,63,-151,19,-48,9,58,73
131,151,19,-141,56,85,-161,14,-58,9,58,73
141,151,9,-146,65,80,-170,0,-68,-9,53,68
141,146,4,-143,68,75,-185,-14,-87,-24,34,53
146,146,0,-146,73,73,-185,-19,-107,-39,9,39
146,131,-14,-139,80,58,-180,-19,-112,-43,4,34
151,117,-34,-134,92,41,-180,-14,-117,-48,4,34
151,117,-34,-134,92,41,-175,-14,-126,-53,4,29
165,136,-29,-151,97,53,-175,-14,-126,-53,0,39
170,141,-29,-156,100,56,-185,-19,-141,-58,-4,39
175,141,-34,-158,104,53,-185,-29,-141,-68,-9,39
180,161,-19,-170,100,70,-195,-34,-146,-78,-14,29
170,161,-9,-165,90,75,-185,-24,-136,-68,-14,39
165,161,-4,-163,85,78,-180,-24,-136,-68,-9,39
161,156,-4,-158,82,75,-165,-19,-122,-63,4,43
161,156,-4,-158,82,75,-151,-14,-112,-53,14,48
165,156,-9,-161,87,73,-156,-4,-112,-48,14,39
165,151,-14,-158,90,68,-146,4,-102,-48,14,39
156,136,-19,-146,87,58,-136,14,-92,-34,19,43
151,117,-34,-134,92,41,-122,34,-78,-19,19,43
146,107,-39,-126,92,34,-107,34,-73,-29,9,34
141,87,-53,-114,97,17,-97,34,-73,-34,9,24
112,53,-58,-82,85,-2,-87,29,-78,-34,0,14
97,29,-68,-63,82,-19,-78,24,-87,-43,-9,0
78,29,-48,-53,63,-9,-78,14,-92,-48,-14,-4
68,9,-58,-39,63,-24,-68,9,-92,-58,-19,0
58,9,-48,-34,53,-19,-63,9,-92,-58,-24,0
48,0,-48,-24,48,-24,-58,4,-92,-63,-29,0
43,-4,-48,-19,46,-26,-58,-4,-102,-68,-39,-24
43,-19,-63,-12,53,-41,-53,-4,-102,-73,-43,-29
39,-19,-58,-9,48,-39,-53,-4,-102,-73,-43,-34
43,-24,-68,-9,56,-46,-53,-4,-107,-78,-48,-34
34,-39,-73,2,53,-56,-48,4,-107,-78,-39,-34
34,-39,-73,2,53,-56,-48,9,-102,-73,-39,-34
34,-39,-73,2,53,-56,-48,9,-102,-73,-34,-29
39,-43,-82,2,61,-63,-48,9,-102,-68,-34,-29
39,-39,-78,0,58,-58,-39,9,-112,-78,-43,-39
39,-34,-73,-2,56,-53,-39,9,-112,-78,-43,-39
39,-24,-63,-7,51,-43,-39,9,-112,-78,-43,-39
39,-19,-58,-9,48,-39,-39,9,-112,-78,-43,-39
39,-29,-68,-4,53,-48,-34,19,-107,-73,-29,-29
39,-34,-73,-2,56,-53,-34,19,-102,-68,-29,-24
34,-48,-82,7,58,-65,-34,19,-97,-63,-29,-19
34,-53,-87,9,61,-70,-29,24,-82,-58,-29,-14
39,-58,-97,9,68,-78,-24,29,-82,-53,-19,-4
48,-43,-92,-2,70,-68,-24,34,-78,-48,-24,-9
39,-39,-78,0,58,-58,-14,68,-48,-24,4,0
39,-14,-53,-12,46,-34,0,102,-24,9,39,39
53,4,-48,-29,51,-21,14,146,19,68,97,92
58,14,-43,-36,51,-14,24,209,68,136,161,151
73,53,-19,-63,46,17,9,239,87,161,204,204
112,102,-9,-107,61,46,-9,258,92,195,253,263
161,151,-9,-156,85,70,-39,302,102,239,307,331
209,224,14,-217,97,119,-78,336,107,287,366,419
263,292,29,-278,117,161,-122,375,117,322,439,517
341,370,29,-356,156,200,-175,405,122,380,507,595
419,468,48,-444,185,258,-219,463,136,444,590,697
512,546,34,-529,239,290,-273,580,161,531,697,824
653,639,-14,-646,334,312,-336,746,204,644,824,976
834,766,-68,-800,451,348,-400,917,244,761,971,1137
1000,902,-97,-951,549,402,-468,1068,287,888,1107,1298
1151,990,-161,-1071,656,414,-551,1180,312,971,1205,1400
1351,1093,-258,-1222,805,417,-673,1220,268,995,1244,1459
1542,1234,-307,-1388,924,463,-814,1190,190,971,1273,1537
1688,1381,-307,-1534,997,536,-951,1122,102,927,1283,1600
1839,1512,-326,-1676,1083,592,-1088,1000,-29,849,1254,1625
1991,1659,-331,-1825,1161,663,-1249,829,-200,707,1180,1625
2074,1810,-263,-1942,1168,773,-1385,629,-341,570,1098,1600
2064,1903,-161,-1983,1112,871,-1473,434,-448,448,1015,1561
1981,1952,-29,-1966,1005,961,-1498,229,-536,322,902,1478
1839,1888,48,-1864,895,968,-1473,4,-649,131,702,1263
1698,1629,-68,-1664,883,780,-1381,-200,-785,-131,385,907
1464,1283,-180,-1373,822,551,-1210,-400,-878,-390,39,497
1107,927,-180,-1017,644,373,-956,-629,-917,-619,-283,102
712,580,-131,-646,422,224,-697,-800,-907,-795,-541,-239
429,258,-170,-344,300,43,-483,-819,-858,-854,-673,-458
268,34,-234,-151,251,-100,-317,-736,-771,-824,-697,-536
156,-117,-273,-19,214,-195,-200,-658,-707,-795,-702,-595
53,-258,-312,102,183,-285,-78,-570,-658,-780,-722,-658
-48,-390,-341,219,146,-366,48,-448,-556,-707,-678,-644
-136,-444,-307,290,85,-375,156,-317,-429,-575,-585,-585
-195,-424,-229,309,17,-326,200,-244,-336,-473,-497,-517
-214,-409,-195,312,-9,-302,214,-185,-273,-400,-414,-439
-195,-385,-190,290,-2,-287,214,-126,-224,-331,-341,-370
-161,-331,-170,246,4,-251,185,-63,-185,-268,-283,-302
-136,-283,-146,209,4,-214,161,-29,-175,-239,-244,-268
-131,-278,-146,204,7,-212,156,-24,-165,-214,-229,-248
-122,-297,-175,209,26,-236,175,0,-131,-175,-204,-229
-107,-273,-165,190,29,-219,165,19,-112,-165,-180,-209
-92,-224,-131,158,19,-178,146,19,-112,-161,-175,-209
-82,-190,-107,136,12,-148,122,4,-102,-156,-165,-204
-78,-170,-92,124,7,-131,122,-14,-97,-141,-156,-195
-87,-151,-63,119,-12,-107,112,-4,-82,-126,-131,-175
-97,-165,-68,131,-14,-117,102,14,-73,-107,-117,-156
-73,-170,-97,122,12,-134,102,19,-58,-92,-102,-141
-63,-156,-92,109,14,-124,87,14,-58,-92,-92,-122
-68,-131,-63,100,-2,-97,78,14,-58,-82,-82,-122
-73,-131,-58,102,-7,-95,73,14,-58,-82,-82,-117
-73,-126,-53,100,-9,-90,73,14,-58,-82,-82,-112
-78,-126,-48,102,-14,-87,73,14,-53,-78,-78,-112
-78,-117,-39,97,-19,-78,73,9,-53,-82,-87,-107
-73,-112,-39,92,-17,-75,68,9,-48,-82,-87,-107
-68,-102,-34,85,-17,-68,63,4,-48,-82,-82,-107
-63,-92,-29,78,-17,-61,63,4,-48,-78,-78,-107
-68,-92,-24,80,-21,-58,53,4,-58,-78,-78,-112
-68,-92,-24,80,-21,-58,53,4,-53,-78,-78,-107
-68,-92,-24,80,-21,-58,58,4,-53,-78,-78,-102
-68,-92,-24,80,-21,-58,63,9,-53,-73,-73,-102
-73,-92,-19,82,-26,-56,63,9,-48,-73,-58,-92
-73,-87,-14,80,-29,-51,58,9,-43,-68,-58,-92
-68,-87,-19,78,-24,-53,58,9,-34,-68,-63,-92
-68,-82,-14,75,-26,-48,53,9,-29,-68,-63,-92
-78,-82,-4,80,-36,-43,63,9,-29,-73,-73,-102
-78,-87,-9,82,-34,-48,63,9,-29,-73,-68,-102
-78,-92,-14,85,-31,-53,63,9,-29,-68,-68,-102
-78,-97,-19,87,-29,-58,68,9,-29,-68,-68,-97
-68,-97,-29,82,-19,-63,68,9,-39,-58,-58,-87
-68,-92,-24,80,-21,-58,68,9,-34,-58,-58,-87
-68,-78,-9,73,-29,-43,68,9,-34,-58,-58,-87
-68,-73,-4,70,-31,-39,63,4,-34,-58,-53,-87
-68,-73,-4,70,-31,-39,53,-4,-43,-63,-58,-92
-73,-73,0,73,-36,-36,53,-4,-43,-68,-63,-97
-78,-73,4,75,-41,-34,58,-4,-43,-73,-68,-102
-78,-78,0,78,-39,-39,58,-4,-43,-78,-73,-107
-87,-68,19,78,-53,-24,68,4,-34,-73,-68,-102
-87,-68,19,78,-53,-24,68,14,-29,-63,-63,-97
-87,-68,19,78,-53,-24,68,14,-24,-58,-58,-87
-92,-68,24,80,-58,-21,68,14,-24,-53,-48,-82
-87,-73,14,80,-51,-29,68,9,-29,-63,-58,-92
-82,-73,9,78,-46,-31,68,9,-29,-63,-58,-92
-78,-78,0,78,-39,-39,68,9,-24,-58,-58,-97
-73,-82,-9,78,-31,-46,73,9,-24,-58,-58,-97
-87,-73,14,80,-51,-29,73,19,-19,-58,-58,-97
-87,-73,14,80,-51,-29,73,19,-19,-58,-53,-97
-82,-73,9,78,-46,-31,73,19,-19,-53,-53,-97
-82,-73,9,78,-46,-31,73,19,-19,-53,-58,-97
-73,-53,19,63,-46,-17,63,14,-24,-68,-68,-97
-78,-48,29,63,-53,-9,63,9,-24,-68,-68,-97
-82,-48,34,65,-58,-7,63,4,-19,-63,-63,-92
-87,-48,39,68,-63,-4,63,4,-19,-63,-63,-92
-92,-63,29,78,-61,-17,73,14,-9,-53,-53,-92
-97,-68,29,82,-63,-19,78,14,-9,-48,-53,-87
-102,-73,29,87,-65,-21,82,14,-4,-48,-48,-87
-107,-82,24,95,-65,-29,87,14,-4,-48,-48,-87
-102,-73,29,87,-65,-21,73,4,-14,-63,-63,-97
-102,-73,29,87,-65,-21,73,4,-9,-63,-63,-97
-102,-73,29,87,-65,-21,82,9,-9,-58,-53,-97
-102,-68,34,85,-68,-17,82,9,-9,-58,-53,-97
-112,-58,53,85,-82,-2,82,4,0,-53,-53,-87
-112,-58,53,85,-82,-2,82,4,0,-53,-53,-87
-117,-58,58,87,-87,0,82,4,0,-53,-53,-87
-117,-58,58,87,-87,0,82,4,0,-58,-53,-87
-117,-63,53,90,-85,-4,92,9,14,-48,-43,-87
-122,-63,58,92,-90,-2,92,14,14,-43,-43,-87
-126,-68,58,97,-92,-4,97,19,14,-43,-48,-87
-131,-73,58,102,-95,-7,97,24,14,-43,-48,-87
-136,-78,58,107,-97,-9,92,14,9,-43,-43,-97
-136,-87,48,112,-92,-19,92,14,14,-43,-43,-97
-136,-87,48,112,-92,-19,92,14,14,-43,-43,-107
-141,-87,53,114,-97,-17,97,14,14,-48,-48,-107
-141,-73,68,107,-104,-2,97,4,14,-48,-58,-117
-146,-73,73,109,-109,0,102,4,14,-53,-58,-117
-146,-68,78,107,-112,4,102,0,14,-53,-58,-117
-156,-68,87,112,-122,9,102,-4,19,-48,-58,-117
-161,-58,102,109,-131,21,102,-4,14,-48,-58,-107
-165,-53,112,109,-139,29,102,-4,14,-48,-58,-107
-170,-48,122,109,-146,36,107,-9,19,-48,-63,-117
-170,-48,122,109,-146,36,117,-9,24,-43,-63,-122
-175,-58,117,117,-146,29,117,-9,34,-43,-53,-112
-180,-58,122,119,-151,31,117,-14,34,-43,-53,-112
-190,-58,131,124,-161,36,122,-14,34,-48,-53,-117
-204,-58,146,131,-175,43,126,-24,39,-48,-58,-117
-204,-58,146,131,-175,43,126,-24,29,-58,-68,-126
-214,-58,156,136,-185,48,126,-29,29,-58,-68,-131
-219,-63,156,141,-187,46,131,-34,39,-58,-68,-131
-224,-63,161,143,-192,48,131,-34,39,-58,-73,-136
-239,-73,165,156,-202,46,141,-39,43,-48,-63,-136
-248,-73,175,161,-212,51,141,-39,48,-48,-63,-141
-263,-73,190,168,-226,58,151,-39,63,-48,-73,-146
-273,-68,204,170,-239,68,156,-48,68,-48,-78,-151
-273,-68,204,170,-239,68,146,-58,63,-63,-82,-161
-273,-68,204,170,-239,68,151,-63,58,-68,-92,-175
-287,-73,214,180,-251,70,156,-68,58,-68,-102,-185
-302,-78,224,190,-263,73,161,-78,58,-68,-107,-195
-317,-78,239,197,-278,80,175,-87,63,-63,-107,-195
-331,-78,253,204,-292,87,185,-92,68,-68,-112,-204
-346,-78,268,212,-307,95,185,-97,78,-73,-107,-204
-361,-82,278,222,-319,97,185,-107,87,-73,-112,-214
-356,-82,273,219,-314,95,190,-117,78,-78,-126,-219
-370,-82,287,226,-329,102,195,-122,82,-82,-131,-229
-390,-82,307,236,-348,112,200,-136,82,-87,-131,-234
-395,-82,312,239,-353,114,204,-146,82,-92,-141,-244
-405,-97,307,251,-356,104,200,-156,78,-102,-151,-253
-419,-97,322,258,-370,112,204,-165,78,-107,-156,-258
-434,-102,331,268,-383,114,209,-170,82,-112,-165,-268
-448,-107,341,278,-395,117,219,-180,82,-112,-175,-278
-458,-97,361,278,-409,131,224,-190,78,-122,-190,-297
-468,-97,370,283,-419,136,229,-200,78,-122,-195,-307
-478,-107,370,292,-424,131,234,-209,78,-126,-195,-317
-488,-117,370,302,-429,126,234,-214,78,-131,-200,-326
-492,-107,385,300,-439,139,229,-224,78,-146,-209,-336
-502,-107,395,305,-448,143,234,-239,73,-156,-224,-351
-507,-112,395,309,-451,141,239,-248,73,-161,-224,-356
-517,-117,400,317,-458,141,239,-253,82,-161,-229,-366
-522,-131,390,326,-456,129,248,-244,92,-161,-229,-370
-527,-136,390,331,-458,126,253,-253,87,-165,-234,-375
-531,-146,385,339,-458,119,258,-258,87,-165,-239,-375
-531,-151,380,341,-456,114,273,-258,87,-161,-239,-370
-531,-156,375,344,-453,109,263,-248,87,-170,-248,-390
-531,-156,375,344,-453,109,263,-253,87,-170,-253,-395
-531,-156,375,344,-453,109,263,-258,82,-175,-263,-400
-531,-161,370,346,-451,104,258,-258,82,-175,-263,-405
-531,-170,361,351,-446,95,268,-258,82,-165,-258,-395
-531,-170,361,351,-446,95,268,-258,82,-170,-258,-400
-531,-170,361,351,-446,95,268,-258,82,-170,-258,-400
-527,-170,356,348,-441,92,268,-248,78,-170,-258,-400
-512,-175,336,344,-424,80,258,-248,68,-180,-268,-409
-497,-165,331,331,-414,82,253,-244,63,-180,-268,-405
-488,-165,322,326,-405,78,248,-234,53,-180,-268,-400
-478,-165,312,322,-395,73,248,-229,53,-180,-268,-400
-463,-175,287,319,-375,56,234,-234,48,-180,-263,-390
-448,-180,268,314,-358,43,224,-229,43,-180,-263,-390
-434,-180,253,307,-344,36,219,-224,43,-180,-263,-380
-424,-180,244,302,-334,31,214,-209,39,-180,-253,-370
-400,-175,224,287,-312,24,209,-204,34,-175,-239,-375
-390,-165,224,278,-307,29,200,-190,34,-175,-234,-366
-375,-151,224,263,-300,36,195,-180,29,-170,-234,-356
-356,-136,219,246,-287,41,180,-175,24,-170,-234,-351
-331,-131,200,231,-265,34,180,-156,14,-170,-224,-346
-322,-131,190,226,-256,29,170,-146,9,-165,-214,-326
-302,-136,165,219,-234,14,165,-136,4,-156,-209,-317
-283,-141,141,212,-212,0,161,-126,0,-146,-204,-307
-268,-136,131,202,-200,-2,146,-112,-4,-146,-190,-297
-244,-131,112,187,-178,-9,136,-92,-4,-136,-185,-283
-224,-131,92,178,-158,-19,126,-82,-4,-131,-170,-263
-204,-126,78,165,-141,-24,117,-73,-9,-122,-161,-253
-190,-122,68,156,-129,-26,107,-63,-4,-122,-151,-239
-175,-117,58,146,-117,-29,102,-53,-9,-117,-146,-229
-161,-112,48,136,-104,-31,92,-48,-14,-112,-136,-219
-136,-102,34,119,-85,-34,82,-39,-24,-107,-126,-204
-117,-87,29,102,-73,-29,78,-29,-29,-92,-117,-195
-102,-73,29,87,-65,-21,63,-19,-29,-92,-102,-175
-92,-68,24,80,-58,-21,58,-9,-34,-87,-102,-170
-78,-58,19,68,-48,-19,48,-4,-39,-87,-92,-165
-48,-48,0,48,-24,-24,34,-9,-48,-92,-92,-151
-43,-39,4,41,-24,-17,29,4,-53,-87,-87,-136
-34,-24,9,29,-21,-7,19,9,-58,-82,-87,-122
-14,-19,-4,17,-4,-12,14,14,-58,-78,-73,-112
-9,-29,-19,19,4,-24,14,29,-53,-63,-63,-97
-4,-29,-24,17,9,-26,4,39,-53,-58,-53,-87
9,-24,-34,7,21,-29,4,43,-48,-58,-43,-82
9,-39,-48,14,29,-43,0,53,-43,-48,-29,-68
24,-34,-58,4,41,-46,9,63,-53,-58,-19,-68
29,-19,-48,-4,39,-34,4,63,-58,-53,-19,-63
39,-14,-53,-12,46,-34,0,63,-58,-53,-19,-63
43,-4,-48,-19,46,-26,0,63,-58,-43,-9,-48
53,9,-43,-31,48,-17,-9,58,-58,-43,-9,-53
58,19,-39,-39,48,-9,-19,63,-63,-43,-14,-48
63,19,-43,-41,53,-12,-24,68,-63,-43,-14,-48
63,19,-43,-41,53,-12,-34,73,-63,-43,-19,-39
73,19,-53,-46,63,-17,-24,73,-63,-43,-14,-34
73,19,-53,-46,63,-17,-24,78,-63,-39,-9,-34
78,24,-53,-51,65,-14,-29,78,-63,-39,-9,-29
78,34,-43,-56,61,-4,-34,78,-63,-34,-9,-29
78,29,-48,-53,63,-9,-43,78,-63,-34,-4,-19
87,29,-58,-58,73,-14,-43,78,-58,-29,0,-14
87,24,-63,-56,75,-19,-39,78,-58,-29,0,-9
87,19,-68,-53,78,-24,-39,78,-63,-29,0,-4
92,24,-68,-58,80,-21,-43,82,-53,-19,9,-4
92,24,-68,-58,80,-21,-43,82,-53,-19,14,0
87,24,-63,-56,75,-19,-43,82,-53,-19,14,0
87,29,-58,-58,73,-14,-43,82,-53,-19,14,-4
78,29,-48,-53,63,-9,-34,82,-53,-29,14,-4
73,29,-43,-51,58,-7,-34,82,-53,-29,14,-4
73,29,-43,-51,58,-7,-34,82,-48,-29,14,0
73,24,-48,-48,61,-12,-34,82,-48,-24,24,0
82,34,-48,-58,65,-7,-29,82,-48,-24,24,0
82,34,-48,-58,65,-7,-29,87,-48,-24,19,0
82,34,-48,-58,65,-7,-29,87,-48,-24,19,-4
82,34,-48,-58,65,-7,-29,82,-48,-24,19,-4
68,48,-19,-58,43,14,-39,73,-58,-24,9,-14
68,48,-19,-58,43,14,-39,73,-58,-24,14,-9
68,48,-19,-58,43,14,-39,73,-58,-24,14,-9
68,48,-19,-58,43,14,-39,68,-53,-24,9,-9
78,34,-43,-56,61,-4,-29,78,-43,-14,19,4
73,24,-48,-48,61,-12,-29,78,-43,-14,24,4
68,19,-48,-43,58,-14,-29,78,-43,-14,24,0
68,14,-53,-41,61,-19,-29,73,-43,-14,24,0
68,14,-53,-41,61,-19,-24,73,-53,-14,14,0
63,19,-43,-41,53,-12,-24,73,-53,-14,14,0
58,29,-29,-43,43,0,-19,68,-53,-14,14,0
58,34,-24,-46,41,4,-19,68,-53,-14,14,0
58,29,-29,-43,43,0,-19,68,-43,-14,14,-4
58,29,-29,-43,43,0,-19,68,-43,-14,14,-4
58,29,-29,-43,43,0,-19,63,-43,-14,9,-4
48,29,-19,-39,34,4,-19,63,-43,-14,9,-4
48,39,-9,-43,29,14,-19,48,-43,-24,4,-4
43,43,0,-43,21,21,-19,48,-43,-29,4,-9
43,43,0,-43,21,21,-19,48,-43,-29,4,-9
39,39,0,-39,19,19,-14,43,-43,-29,4,-9
39,24,-14,-31,26,4,-14,43,-43,-19,9,-14
39,24,-14,-31,26,4,-14,43,-43,-19,9,-14
29,24,-4,-26,17,9,-9,43,-39,-19,14,-9
29,24,-4,-26,17,9,-9,39,-39,-19,14,-9
24,14,-9,-19,17,2,-9,34,-39,-29,0,-14
24,14,-9,-19,17,2,-4,34,-39,-29,0,-19
24,19,-4,-21,14,7,-4,34,-39,-34,-4,-19
24,19,-4,-21,14,7,-9,29,-39,-34,-4,-19
19,19,0,-19,9,9,-9,29,-39,-34,0,-29
19,14,-4,-17,12,4,-9,29,-39,-34,0,-34
19,4,-14,-12,17,-4,-4,24,-39,-34,0,-34
19,4,-14,-12,17,-4,-4,24,-39,-34,0,-34
29,14,-14,-21,21,0,-14,14,-48,-39,-9,-34
29,14,-14,-21,21,0,-14,14,-48,-39,-9,-39
24,14,-9,-19,17,2,-9,9,-48,-39,-14,-39
19,14,-4,-17,12,4,-9,9,-48,-39,-14,-39
14,4,-9,-9,12,-2,0,19,-48,-34,-14,-34
14,0,-14,-7,14,-7,0,19,-48,-34,-9,-34
9,0,-9,-4,9,-4,0,19,-48,-34,-4,-34
0,0,0,0,0,0,0,19,-48,-39,0,-34
9,9,0,-9,4,4,0,14,-39,-39,-9,-34
9,9,0,-9,4,4,0,14,-39,-39,-9,-34
9,9,0,-9,4,4,-4,14,-43,-39,-9,-34
9,9,0,-9,4,4,-4,14,-43,-39,-9,-34
9,9,0,-9,4,4,-4,4,-43,-39,-19,-43
9,4,-4,-7,7,0,-4,4,-48,-39,-14,-43
4,0,-4,-2,4,-2,0,4,-48,-39,-14,-43
4,0,-4,-2,4,-2,0,4,-43,-39,-19,-43
9,-9,-19,0,14,-14,0,9,-43,-43,-19,-39
9,-9,-19,0,14,-14,0,9,-39,-43,-19,-39
9,-9,-19,0,14,-14,0,9,-39,-43,-19,-39
9,-9,-19,0,14,-14,0,9,-39,-43,-19,-39
9,-19,-29,4,19,-24,0,9,-39,-43,-14,-34
14,-19,-34,2,24,-26,0,9,-43,-43,-14,-34
14,-14,-29,0,21,-21,0,9,-43,-43,-14,-39
14,-9,-24,-2,19,-17,0,9,-43,-43,-14,-39
14,-9,-24,-2,19,-17,4,9,-43,-48,-29,-48
14,-9,-24,-2,19,-17,4,9,-48,-53,-29,-43
19,-4,-24,-7,21,-14,0,4,-48,-53,-29,-43
19,-4,-24,-7,21,-14,0,4,-48,-53,-29,-43
14,-4,-19,-4,17,-12,0,9,-53,-39,-14,-34
14,-14,-29,0,21,-21,0,14,-53,-39,-14,-34
14,-14,-29,0,21,-21,0,14,-53,-39,-14,-34
14,-14,-29,0,21,-21,0,14,-53,-39,-9,-34
24,-4,-29,-9,26,-17,-14,14,-53,-48,-19,-43
24,-4,-29,-9,26,-17,-14,4,-58,-48,-24,-39
24,0,-24,-12,24,-12,-14,4,-58,-48,-24,-39
24,4,-19,-14,21,-7,-14,4,-58,-48,-24,-39
14,4,-9,-9,12,-2,-9,4,-53,-48,-19,-34
14,0,-14,-7,14,-7,-9,4,-53,-48,-19,-34
14,0,-14,-7,14,-7,-4,9,-48,-48,-19,-29
14,-4,-19,-4,17,-12,0,9,-48,-48,-19,-29
29,-4,-34,-12,31,-19,-9,0,-58,-39,-14,-39
29,0,-29,-14,29,-14,-9,0,-58,-43,-14,-39
29,0,-29,-14,29,-14,-9,0,-58,-43,-14,-43
29,0,-29,-14,29,-14,-9,0,-58,-43,-14,-43
24,9,-14,-17,19,-2,-9,0,-58,-43,-24,-43
24,9,-14,-17,19,-2,-9,0,-58,-43,-14,-39
19,9,-9,-14,14,0,-9,0,-58,-43,-14,-39
14,9,-4,-12,9,2,-9,0,-58,-43,-14,-39
19,0,-19,-9,19,-9,-9,0,-58,-53,-24,-48
29,0,-29,-14,29,-14,-19,0,-63,-53,-24,-48
34,9,-24,-21,29,-7,-19,0,-68,-53,-24,-48
39,9,-29,-24,34,-9,-19,0,-68,-48,-24,-48
34,9,-24,-21,29,-7,-24,0,-68,-48,-24,-39
34,9,-24,-21,29,-7,-24,0,-68,-48,-29,-39
34,4,-29,-19,31,-12,-29,0,-63,-48,-29,-39
39,4,-34,-21,36,-14,-29,0,-63,-48,-24,-34
39,-4,-43,-17,41,-24,-24,9,-53,-39,-24,-43
39,-4,-43,-17,41,-24,-19,9,-53,-39,-24,-43
39,-9,-48,-14,43,-29,-14,9,-58,-43,-29,-43
39,-9,-48,-14,43,-29,-9,9,-58,-43,-29,-43
48,0,-48,-24,48,-24,-19,0,-68,-43,-19,-34
48,4,-43,-26,46,-19,-19,0,-68,-43,-19,-39
53,9,-43,-31,48,-17,-19,0,-68,-43,-19,-39
53,19,-34,-36,43,-7,-19,0,-68,-43,-19,-39
34,39,4,-36,14,21,-19,0,-68,-43,-19,-39
39,29,-9,-34,24,9,-19,0,-58,-39,-19,-39
39,24,-14,-31,26,4,-19,0,-58,-39,-29,-29
39,19,-19,-29,29,0,-19,0,-58,-39,-29,-29
39,14,-24,-26,31,-4,-19,0,-58,-39,-29,-29
39,9,-29,-24,34,-9,-19,0,-58,-39,-29,-29
39,4,-34,-21,36,-14,-9,9,-48,-39,-19,-24
39,0,-39,-19,39,-19,-9,9,-48,-39,-19,-24
39,0,-39,-19,39,-19,-14,9,-53,-39,-19,-29
39,-4,-43,-17,41,-24,-14,9,-53,-39,-19,-29
48,-4,-53,-21,51,-29,-9,9,-53,-29,-9,-29
48,-9,-58,-19,53,-34,-9,9,-48,-29,-9,-29
48,-9,-58,-19,53,-34,-9,9,-48,-29,-9,-24
48,-9,-58,-19,53,-34,-9,9,-48,-29,-9,-24
39,0,-39,-19,39,-19,-19,9,-58,-39,-9,-14
39,19,-19,-29,29,0,-14,9,-58,-39,-9,-14
39,14,-24,-26,31,-4,-14,9,-58,-39,-9,-14
39,14,-24,-26,31,-4,-14,9,-58,-34,-9,-14
48,24,-24,-36,36,0,-14,4,-58,-34,-9,-24
48,24,-24,-36,36,0,-19,4,-58,-34,-9,-24
48,24,-24,-36,36,0,-19,4,-58,-34,-9,-24
53,34,-19,-43,36,7,-19,9,-58,-34,-4,-19
53,19,-34,-36,43,-7,-19,9,-43,-24,0,-19
53,9,-43,-31,48,-17,-19,14,-43,-24,0,-19
53,0,-53,-26,53,-26,-19,14,-48,-24,-4,-24
63,-4,-68,-29,65,-36,-24,14,-48,-29,-4,-24
78,4,-73,-41,75,-34,-24,4,-58,-39,-14,-24
78,9,-68,-43,73,-29,-29,4,-53,-34,-14,-19
78,14,-63,-46,70,-24,-29,4,-48,-24,0,-14
73,24,-48,-48,61,-12,-24,9,-43,-19,4,-9
63,43,-19,-53,41,12,-24,19,-34,-4,14,-4
63,48,-14,-56,39,17,-24,19,-29,0,19,0
63,58,-4,-61,34,26,-24,19,-19,9,29,4
63,63,0,-63,31,31,-24,29,-4,24,48,19
68,73,4,-70,31,39,-29,19,14,39,48,39
73,97,24,-85,24,61,-43,24,14,43,53,53
82,107,24,-95,29,65,-58,24,9,43,58,53
87,107,19,-97,34,63,-68,24,9,43,58,53
92,107,14,-100,39,61,-78,14,-14,34,58,39
92,107,14,-100,39,61,-92,9,-29,19,48,34
102,107,4,-104,48,56,-102,4,-34,9,48,34
107,122,14,-114,46,68,-107,0,-39,4,48,39
112,131,19,-122,46,75,-102,9,-34,14,58,48
117,146,29,-131,43,87,-112,0,-29,19,68,63
122,165,43,-143,39,104,-122,-4,-34,24,73,68
131,161,29,-146,51,95,-131,-19,-39,9,73,68
131,156,24,-143,53,90,-146,-34,-68,-14,48,43
136,146,9,-141,63,78,-146,-39,-87,-29,29,29
136,131,-4,-134,70,63,-141,-39,-92,-34,19,24
141,117,-24,-129,82,46,-141,-34,-97,-39,14,24
131,126,-4,-129,68,61,-146,-34,-107,-43,4,19
136,136,0,-136,68,68,-146,-34,-107,-43,0,19
141,141,0,-141,70,70,-156,-39,-122,-48,-4,19
146,141,-4,-143,75,68,-156,-48,-122,-58,-9,19
161,151,-9,-156,85,70,-156,-53,-117,-63,-9,14
161,151,-9,-156,85,70,-156,-53,-117,-58,-9,19
156,151,-4,-153,80,73,-151,-53,-117,-53,-4,24
151,146,-4,-148,78,70,-136,-48,-102,-43,9,34
141,136,-4,-139,73,65,-112,-34,-82,-34,24,39
136,141,4,-139,65,73,-107,-24,-73,-19,29,43
136,141,4,-139,65,73,-97,-14,-63,-19,34,48
126,131,4,-129,61,68,-87,-4,-53,-4,43,58
122,126,4,-124,58,65,-82,4,-48,9,48,53
122,122,0,-122,61,61,-78,14,-43,9,48,53
122,107,-14,-114,68,46,-68,14,-43,4,48,43
97,78,-19,-87,58,29,-58,9,-48,4,39,34
87,58,-29,-73,58,14,-48,4,-58,-14,24,9
78,48,-29,-63,53,9,-48,-4,-63,-19,14,0
68,29,-39,-48,53,-4,-39,-9,-63,-29,4,0
58,29,-29,-43,43,0,-34,-9,-63,-29,-4,-4
53,9,-43,-31,48,-17,-29,-14,-73,-34,-9,0
48,-4,-53,-21,51,-29,-19,-14,-73,-39,-19,-14
48,-19,-68,-14,58,-43,-14,-14,-73,-43,-24,-19
43,-19,-63,-12,53,-41,-14,-14,-73,-43,-24,-24
34,-14,-48,-9,41,-31,-14,-14,-68,-39,-19,-14
34,-19,-53,-7,43,-36,-9,-14,-68,-39,-19,-14
34,-19,-53,-7,43,-36,-9,-9,-63,-34,-19,-14
34,-19,-53,-7,43,-36,-9,-9,-63,-34,-14,-9
29,-24,-53,-2,41,-39,-9,0,-53,-29,-14,-19
29,-24,-53,-2,41,-39,-9,0,-53,-29,-14,-19
29,-24,-53,-2,41,-39,-9,0,-53,-29,-14,-19
29,-19,-48,-4,39,-34,-9,0,-53,-29,-14,-19
39,-9,-48,-14,43,-29,-9,-9,-63,-29,-24,-19
39,-14,-53,-12,46,-34,-4,-9,-63,-29,-19,-14
39,-14,-53,-12,46,-34,-4,-9,-63,-29,-19,-14
34,-24,-58,-4,46,-41,-4,-9,-63,-29,-19,-14
34,-43,-78,4,56,-61,0,4,-53,-19,-9,-14
29,-58,-87,14,58,-73,24,19,-34,-4,9,4
29,-43,-73,7,51,-58,14,34,-19,9,34,9
29,-9,-39,-9,34,-24,14,48,0,34,53,39
29,4,-24,-17,26,-9,29,92,43,78,87,78
43,34,-9,-39,26,12,43,146,87,136,146,131
68,43,-24,-56,46,9,43,190,117,185,200,180
92,53,-39,-73,65,7,39,219,136,219,244,234
131,112,-19,-122,75,46,9,248,141,244,292,292
180,190,9,-185,85,100,-29,273,141,297,346,370
239,273,34,-256,102,153,-78,297,136,336,414,458
292,351,58,-322,117,204,-112,336,156,390,497,575
331,419,87,-375,122,253,-146,405,170,468,595,692
419,507,87,-463,165,297,-200,473,195,541,688,814
551,614,63,-583,244,339,-263,600,229,629,814,961
702,727,24,-714,339,375,-326,775,273,761,951,1122
854,834,-19,-844,436,407,-390,946,322,888,1098,1283
1000,951,-48,-976,524,451,-458,1078,366,1005,1234,1424
1171,1049,-122,-1110,646,463,-541,1171,370,1068,1322,1537
1361,1161,-200,-1261,780,480,-663,1180,307,1073,1371,1615
1522,1302,-219,-1412,871,541,-795,1141,219,1049,1390,1693
1668,1449,-219,-1559,944,614,-941,1054,102,966,1361,1727
1810,1600,-209,-1705,1010,695,-1098,912,-58,849,1302,1722
1922,1766,-156,-1844,1039,805,-1259,722,-229,697,1210,1712
1976,1878,-97,-1927,1037,890,-1366,522,-361,570,1137,1688
1947,1961,14,-1954,966,988,-1424,336,-458,439,1024,1610
1825,2000,175,-1912,824,1088,-1439,112,-575,273,863,1478
1683,1859,175,-1771,753,1017,-1395,-102,-707,43,605,1205
1512,1512,0,-1512,756,756,-1263,-278,-814,-219,268,800
1220,1137,-82,-1178,651,527,-1054,-478,-868,-468,-87,351
854,780,-73,-817,463,353,-790,-707,-897,-688,-400,-53
546,424,-122,-485,334,151,-551,-829,-878,-814,-619,-356
351,151,-200,-251,275,-24,-366,-790,-810,-834,-702,-527
209,-34,-244,-87,226,-139,-219,-697,-722,-795,-707,-605
87,-195,-283,53,185,-239,-92,-600,-658,-766,-722,-644
-14,-326,-312,170,148,-319,29,-492,-580,-712,-702,-668
-107,-400,-292,253,92,-346,136,-390,-458,-610,-639,-644
-156,-414,-258,285,51,-336,204,-287,-341,-497,-527,-556
-185,-414,-229,300,21,-322,239,-204,-258,-385,-429,-458
-195,-380,-185,287,-4,-283,244,-146,-204,-312,-356,-390
-165,-336,-170,251,2,-253,234,-87,-156,-244,-292,-331
-131,-302,-170,217,19,-236,214,-53,-117,-190,-234,-273
-117,-283,-165,200,24,-224,190,-39,-107,-161,-204,-248
-112,-258,-146,185,17,-202,185,-24,-97,-146,-180,-229
-102,-258,-156,180,26,-207,195,-9,-73,-117,-156,-209
-97,-244,-146,170,24,-195,195,0,-53,-97,-141,-190
-92,-195,-102,143,4,-148,175,-19,-53,-92,-136,-180
-82,-161,-78,122,-2,-119,151,-24,-53,-87,-126,-175
-87,-170,-82,129,-2,-126,151,-24,-29,-63,-107,-146
-97,-170,-73,134,-12,-122,151,-24,-14,-48,-82,-117
-78,-136,-58,107,-9,-97,131,-34,-14,-48,-78,-117
-63,-112,-48,87,-7,-80,112,-29,-19,-43,-73,-102
-73,-107,-34,90,-19,-70,107,-14,0,-24,-53,-92
-82,-102,-19,92,-31,-61,107,-24,0,-24,-53,-102
-82,-102,-19,92,-31,-61,102,-24,0,-24,-53,-97
-78,-97,-19,87,-29,-58,102,-24,0,-24,-53,-92
-78,-97,-19,87,-29,-58,102,-24,4,-19,-48,-92
-73,-102,-29,87,-21,-65,102,-19,-4,-24,-58,-87
-73,-102,-29,87,-21,-65,97,-19,0,-24,-58,-87
-73,-97,-24,85,-24,-61,92,-24,0,-24,-53,-87
-73,-92,-19,82,-26,-56,92,-24,0,-19,-48,-87
-68,-102,-34,85,-17,-68,92,-24,9,-9,-39,-73
-68,-102,-34,85,-17,-68,92,-24,14,-9,-39,-68
-68,-102,-34,85,-17,-68,97,-24,14,-9,-39,-63
-68,-102,-34,85,-17,-68,102,-19,14,-4,-34,-63
-73,-102,-29,87,-21,-65,102,-19,14,-14,-29,-73
-73,-97,-24,85,-24,-61,97,-19,14,-9,-29,-73
-68,-97,-29,82,-19,-63,97,-19,19,-9,-34,-73
-68,-92,-24,80,-21,-58,92,-19,19,-9,-34,-73
-78,-87,-9,82,-34,-48,92,-19,19,-4,-34,-82
-78,-87,-9,82,-34,-48,92,-19,19,-4,-29,-82
-78,-87,-9,82,-34,-48,92,-19,19,0,-29,-82
-78,-87,-9,82,-34,-48,97,-19,19,0,-29,-78
-78,-102,-24,90,-26,-63,97,-19,19,0,-29,-68
-78,-102,-24,90,-26,-63,97,-19,24,0,-29,-68
-78,-92,-14,85,-31,-53,97,-19,24,0,-29,-68
-78,-92,-14,85,-31,-53,92,-24,24,0,-24,-68
-87,-87,0,87,-43,-43,92,-24,24,0,-24,-68
-92,-82,9,87,-51,-36,92,-24,24,0,-24,-68
-97,-78,19,87,-58,-29,97,-24,24,0,-24,-68
-97,-78,19,87,-58,-29,97,-24,24,0,-24,-68
-97,-82,14,90,-56,-34,107,-24,34,0,-14,-68
-97,-87,9,92,-53,-39,107,-14,39,4,-14,-68
-97,-92,4,95,-51,-43,107,-14,43,4,-14,-63
-102,-97,4,100,-53,-46,107,-14,43,4,-9,-63
-102,-97,4,100,-53,-46,107,-19,39,14,-9,-58
-102,-92,9,97,-56,-41,107,-19,39,14,-9,-53
-102,-92,9,97,-56,-41,107,-19,43,19,-9,-53
-102,-92,9,97,-56,-41,112,-19,43,19,-9,-48
-107,-92,14,100,-61,-39,102,-19,48,9,-19,-58
-107,-92,14,100,-61,-39,102,-19,48,9,-14,-58
-102,-92,9,97,-56,-41,102,-19,48,14,-14,-58
-102,-92,9,97,-56,-41,102,-19,48,14,-19,-58
-102,-82,19,92,-61,-31,112,-19,53,9,-19,-58
-107,-78,29,92,-68,-24,112,-19,53,9,-19,-58
-112,-78,34,95,-73,-21,112,-19,58,14,-14,-53
-117,-78,39,97,-78,-19,112,-14,58,14,-14,-53
-117,-87,29,102,-73,-29,117,-14,58,24,-14,-63
-117,-87,29,102,-73,-29,117,-14,58,29,-14,-58
-117,-87,29,102,-73,-29,117,-14,63,29,-9,-58
-117,-92,24,104,-70,-34,117,-14,63,29,-9,-58
-117,-102,14,109,-65,-43,112,-14,63,24,-14,-58
-122,-102,19,112,-70,-41,112,-14,68,24,-14,-58
-126,-102,24,114,-75,-39,122,-9,68,29,-4,-58
-131,-97,34,114,-82,-31,122,-9,68,29,-4,-58
-122,-92,29,107,-75,-31,122,-24,58,24,-14,-58
-122,-87,34,104,-78,-26,122,-24,58,24,-14,-58
-126,-82,43,104,-85,-19,122,-24,58,24,-14,-58
-126,-78,48,102,-87,-14,122,-24,58,19,-14,-58
-136,-87,48,112,-92,-19,131,-14,68,24,-4,-48
-141,-82,58,112,-100,-12,131,-14,73,34,-4,-48
-146,-82,63,114,-104,-9,136,-14,78,39,-9,-48
-151,-82,68,117,-109,-7,136,-14,82,43,-9,-48
-156,-78,78,117,-117,0,141,-14,78,43,-4,-58
-156,-87,68,122,-112,-9,141,-14,82,43,-4,-58
-156,-87,68,122,-112,-9,141,-14,82,43,-4,-68
-161,-87,73,124,-117,-7,146,-14,82,39,-9,-68
-161,-82,78,122,-119,-2,136,-24,82,39,-9,-68
-165,-82,82,124,-124,0,141,-24,82,34,-9,-68
-165,-78,87,122,-126,4,141,-29,82,34,-9,-68
-175,-78,97,126,-136,9,141,-34,87,39,-9,-68
-180,-73,107,126,-143,17,151,-24,102,39,-9,-58
-185,-73,112,129,-148,19,151,-24,102,39,-9,-58
-190,-73,117,131,-153,21,156,-29,107,39,-14,-68
-190,-78,112,134,-151,17,165,-29,112,43,-14,-73
-195,-78,117,136,-156,19,156,-29,112,53,-14,-73
-200,-78,122,139,-161,21,156,-34,112,53,-14,-73
-209,-78,131,143,-170,26,161,-34,112,48,-14,-78
-224,-78,146,151,-185,34,165,-43,117,48,-19,-78
-224,-73,151,148,-187,39,165,-43,117,39,-19,-78
-234,-68,165,151,-200,48,165,-48,117,39,-19,-82
-239,-68,170,153,-204,51,170,-53,126,39,-19,-82
-244,-63,180,153,-212,58,170,-53,126,39,-24,-87
-248,-68,180,158,-214,56,180,-68,126,39,-34,-97
-258,-73,185,165,-222,56,180,-68,126,39,-34,-102
-273,-78,195,175,-234,58,190,-68,136,39,-43,-107
-283,-78,204,180,-244,63,195,-78,136,39,-48,-112
-302,-68,234,185,-268,82,195,-78,136,34,-39,-117
-302,-68,234,185,-268,82,200,-82,136,29,-43,-126
-317,-73,244,195,-280,85,204,-87,141,29,-48,-131
-331,-78,253,204,-292,87,209,-97,146,29,-48,-136
-336,-92,244,214,-290,75,214,-117,146,24,-53,-141
-351,-97,253,224,-302,78,224,-122,146,19,-63,-156
-366,-102,263,234,-314,80,224,-126,151,14,-63,-161
-380,-112,268,246,-324,78,224,-136,156,14,-73,-175
-385,-107,278,246,-331,85,229,-136,156,9,-87,-180
-400,-102,297,251,-348,97,234,-141,161,4,-92,-190
-419,-97,322,258,-370,112,239,-156,161,0,-92,-195
-424,-92,331,258,-378,119,244,-165,161,-4,-102,-204
-424,-112,312,268,-368,100,258,-175,165,-4,-102,-204
-439,-117,322,278,-380,102,263,-185,165,-9,-107,-209
-453,-126,326,290,-390,100,268,-190,170,-14,-117,-219
-468,-136,331,302,-400,97,278,-200,170,-14,-126,-229
-478,-126,351,302,-414,112,273,-219,165,-24,-141,-239
-488,-126,361,307,-424,117,278,-229,165,-24,-146,-248
-497,-136,361,317,-429,112,283,-239,165,-29,-146,-258
-507,-146,361,326,-434,107,283,-244,165,-34,-151,-268
-522,-136,385,329,-453,124,287,-234,175,-39,-151,-268
-531,-136,395,334,-463,129,292,-248,170,-48,-165,-283
-536,-141,395,339,-466,126,297,-258,170,-53,-165,-287
-546,-146,400,346,-473,126,297,-263,180,-53,-170,-297
-551,-156,395,353,-473,119,312,-263,170,-58,-180,-297
-556,-156,400,356,-478,122,312,-273,165,-68,-185,-307
-561,-161,400,361,-480,119,312,-278,165,-73,-190,-312
-561,-161,400,361,-480,119,322,-278,165,-73,-190,-312
-551,-185,366,368,-458,90,317,-278,165,-73,-190,-322
-551,-185,366,368,-458,90,312,-283,165,-73,-195,-326
-551,-185,366,368,-458,90,307,-287,161,-78,-204,-331
-551,-190,361,370,-456,85,297,-287,161,-78,-204,-336
-551,-180,370,366,-461,95,302,-278,161,-78,-209,-336
-551,-180,370,366,-461,95,307,-278,161,-82,-209,-341
-551,-180,370,366,-461,95,312,-278,161,-82,-209,-341
-546,-180,366,363,-456,92,317,-268,156,-82,-209,-341
-527,-195,331,361,-429,68,312,-268,156,-82,-200,-331
-507,-185,322,346,-414,68,302,-263,151,-82,-200,-326
-492,-185,307,339,-400,61,292,-253,141,-82,-200,-322
-478,-185,292,331,-385,53,287,-248,141,-82,-200,-322
-468,-195,273,331,-370,39,283,-234,146,-73,-195,-322
-458,-200,258,329,-358,29,273,-229,141,-73,-195,-322
-448,-200,248,324,-348,24,268,-224,141,-73,-195,-312
-444,-200,244,322,-344,21,263,-209,136,-73,-185,-302
-414,-204,209,309,-312,2,258,-204,122,-68,-170,-297
-400,-204,195,302,-297,-4,248,-190,122,-68,-165,-287
-380,-200,180,290,-280,-9,244,-180,117,-63,-165,-278
-356,-195,161,275,-258,-17,229,-175,112,-63,-165,-273
-341,-175,165,258,-253,-4,219,-165,102,-63,-156,-258
-331,-170,161,251,-246,-4,209,-156,97,-58,-146,-239
-312,-170,141,241,-226,-14,204,-146,92,-48,-141,-229
-292,-170,122,231,-207,-24,200,-136,87,-39,-136,-219
-278,-165,112,222,-195,-26,185,-131,73,-48,-131,-219
-253,-161,92,207,-173,-34,175,-112,73,-39,-126,-204
-234,-161,73,197,-153,-43,165,-102,73,-34,-112,-185
-214,-156,58,185,-136,-48,156,-92,68,-24,-102,-175
-190,-151,39,170,-114,-56,146,-82,63,-24,-92,-170
-175,-146,29,161,-102,-58,141,-73,58,-19,-87,-161
-161,-141,19,151,-90,-61,131,-68,53,-14,-78,-151
-136,-131,4,134,-70,-63,122,-58,43,-9,-68,-136
-126,-126,0,126,-63,-63,107,-48,43,-4,-58,-117
-112,-112,0,112,-56,-56,92,-39,48,-4,-43,-97
-102,-107,-4,104,-48,-56,87,-29,48,0,-43,-92
-87,-97,-9,92,-39,-53,78,-24,48,0,-34,-87
-68,-87,-19,78,-24,-53,63,-29,39,-4,-29,-82
-63,-78,-14,70,-24,-46,58,-14,34,0,-29,-68
-53,-63,-9,58,-21,-36,48,-9,29,4,-34,-53
-34,-58,-24,46,-4,-41,43,-4,29,9,-24,-43
-24,-63,-39,43,7,-51,43,0,29,24,-9,-29
-14,-58,-43,36,14,-51,34,9,24,29,-4,-19
4,-48,-53,21,29,-51,34,14,24,29,0,-14
9,-58,-68,24,39,-63,29,24,24,39,9,0
14,-53,-68,19,41,-61,19,34,24,39,19,4
19,-39,-58,9,39,-48,14,34,19,43,19,4
29,-34,-63,2,46,-48,9,34,19,43,19,0
34,-24,-58,-4,46,-41,9,34,19,53,29,9
34,-19,-53,-7,43,-36,14,29,19,53,34,14
39,-9,-48,-14,43,-29,9,34,14,53,34,19
43,-9,-53,-17,48,-31,9,39,14,53,39,19
43,-9,-53,-17,48,-31,4,43,14,53,39,29
53,-14,-68,-19,61,-41,4,53,14,53,34,43
53,-19,-73,-17,63,-46,4,58,14,58,39,43
58,-19,-78,-19,68,-48,0,58,14,58,39,48
58,-14,-73,-21,65,-43,-4,58,14,63,39,48
58,-14,-73,-21,65,-43,-4,68,14,53,43,39
68,-9,-78,-29,73,-43,-4,68,19,58,48,43
68,-9,-78,-29,73,-43,0,68,19,58,48,48
68,-9,-78,-29,73,-43,0,68,14,58,48,53
73,-14,-87,-29,80,-51,-14,63,14,68,48,53
73,-14,-87,-29,80,-51,-14,63,14,68,53,58
68,-14,-82,-26,75,-48,-14,63,14,68,53,58
68,-9,-78,-29,73,-43,-14,63,14,68,53,53
68,-9,-78,-29,73,-43,-4,63,14,68,53,43
63,-9,-73,-26,68,-41,-4,63,14,68,53,43
63,-9,-73,-26,68,-41,-4,63,19,68,53,48
63,-14,-78,-24,70,-46,-4,63,19,73,63,48
63,-4,-68,-29,65,-36,-9,63,19,63,53,58
63,-4,-68,-29,65,-36,-9,68,19,63,48,58
63,-4,-68,-29,65,-36,-9,68,19,63,48,53
63,-4,-68,-29,65,-36,-9,63,19,63,48,53
58,-9,-68,-24,63,-39,0,63,19,73,58,53
58,-9,-68,-24,63,-39,0,63,19,73,63,58
58,-9,-68,-24,63,-39,0,63,19,73,63,58
58,-9,-68,-24,63,-39,0,58,24,73,58,58
58,-9,-68,-24,63,-39,0,58,24,73,58,63
53,-14,-68,-19,61,-41,0,58,24,73,63,63
48,-14,-63,-17,56,-39,0,58,24,73,63,58
48,-14,-63,-17,56,-39,0,53,24,73,63,58
48,-19,-68,-14,58,-43,4,53,34,73,53,48
43,-19,-63,-12,53,-41,4,53,34,73,53,48
39,-14,-53,-12,46,-34,9,48,34,73,53,48
39,-14,-53,-12,46,-34,9,48,34,73,53,48
39,-14,-53,-12,46,-34,0,39,24,63,53,43
39,-9,-48,-14,43,-29,0,39,24,63,53,43
39,-4,-43,-17,41,-24,0,34,24,63,48,43
29,0,-29,-14,29,-14,0,34,24,63,48,43
29,-4,-34,-12,31,-19,9,29,24,63,43,53
24,-4,-29,-9,26,-17,9,29,24,58,43,48
24,-9,-34,-7,29,-21,9,29,24,58,43,48
19,-19,-39,0,29,-29,14,24,24,58,43,48
14,-24,-39,4,26,-31,14,24,34,68,43,43
9,-24,-34,7,21,-29,14,24,34,68,48,43
-4,-24,-19,14,7,-21,19,24,39,68,58,48
-9,-24,-14,17,2,-19,19,19,39,68,63,48
-4,-14,-9,9,2,-12,19,14,29,68,48,43
-4,-14,-9,9,2,-12,24,14,29,68,48,39
-4,-9,-4,7,0,-7,24,14,29,63,43,39
-4,-9,-4,7,0,-7,19,9,29,63,43,39
0,-19,-19,9,9,-19,9,19,29,63,39,48
0,-24,-24,12,12,-24,9,19,29,63,39,43
0,-34,-34,17,17,-34,14,14,29,63,39,43
0,-34,-34,17,17,-34,14,14,29,63,39,43
0,-43,-43,21,21,-43,24,14,39,68,39,43
0,-43,-43,21,21,-43,24,14,39,68,39,39
-4,-43,-39,24,17,-41,29,9,39,68,34,39
-9,-43,-34,26,12,-39,29,9,39,68,34,39
-9,-34,-24,21,7,-29,19,0,29,53,29,24
-4,-39,-34,21,14,-36,19,0,29,53,29,24
-4,-39,-34,21,14,-36,19,0,29,53,29,24
-9,-39,-29,24,9,-34,19,0,29,48,29,24
-9,-34,-24,21,7,-29,19,-4,29,48,19,24
-9,-29,-19,19,4,-24,19,-4,29,48,19,24
-9,-24,-14,17,2,-19,14,-4,24,48,19,24
-9,-19,-9,14,0,-14,14,-4,24,48,19,24
0,-24,-24,12,12,-24,24,-4,24,48,19,14
0,-34,-34,17,17,-34,24,-4,19,48,24,14
-4,-43,-39,24,17,-41,29,-4,19,48,24,14
-4,-48,-43,26,19,-46,29,-4,24,48,19,14
-9,-48,-39,29,14,-43,19,0,14,43,19,19
-9,-48,-39,29,14,-43,19,0,19,43,19,19
-9,-48,-39,29,14,-43,19,0,19,43,19,19
-9,-48,-39,29,14,-43,19,0,19,43,19,19
0,-48,-48,24,24,-48,9,0,19,34,14,14
4,-48,-53,21,29,-51,9,0,14,34,14,14
4,-43,-48,19,26,-46,9,0,14,34,14,9
4,-39,-43,17,24,-41,9,0,14,34,14,9
0,-39,-39,19,19,-39,14,-9,14,39,9,9
-4,-39,-34,21,14,-36,14,-9,9,34,9,14
-4,-34,-29,19,12,-31,9,-14,9,34,9,14
-9,-34,-24,21,7,-29,9,-14,9,34,9,14
0,-43,-43,21,21,-43,9,-9,14,39,14,24
4,-53,-58,24,31,-56,9,-4,14,39,14,24
9,-53,-63,21,36,-58,9,-4,14,39,14,24
14,-53,-68,19,41,-61,9,-4,14,39,19,24
4,-43,-48,19,26,-46,-4,-4,14,29,9,14
4,-43,-48,19,26,-46,-4,-14,9,29,4,19
4,-39,-43,17,24,-41,-4,-14,9,29,4,19
4,-34,-39,14,21,-36,-4,-14,9,29,4,19
4,-34,-39,14,21,-36,4,-14,4,39,4,14
4,-39,-43,17,24,-41,0,-14,4,39,9,14
4,-39,-43,17,24,-41,0,-9,9,39,14,19
4,-43,-48,19,26,-46,0,-9,9,39,19,19
9,-43,-53,17,31,-48,0,-9,0,39,4,19
9,-39,-48,14,29,-43,0,-9,0,34,4,19
9,-39,-48,14,29,-43,0,-9,0,34,4,14
9,-39,-48,14,29,-43,0,-9,0,34,4,14
0,-39,-39,19,19,-39,-9,-9,0,34,4,14
4,-39,-43,17,24,-41,-9,-9,0,34,14,19
4,-39,-43,17,24,-41,-9,-9,0,34,14,19
4,-39,-43,17,24,-41,-9,-9,0,34,14,19
14,-29,-43,7,29,-36,-9,-9,0,24,4,9
19,-29,-48,4,34,-39,-19,-9,-4,24,4,9
19,-19,-39,0,29,-29,-19,-9,-9,24,4,9
19,-19,-39,0,29,-29,-19,-9,-9,29,4,9
14,-19,-34,2,24,-26,-4,-9,-9,29,14,19
14,-19,-34,2,24,-26,-4,-9,-9,29,9,19
14,-24,-39,4,26,-31,-9,-9,-4,29,9,19
19,-24,-43,2,31,-34,-9,-9,-4,29,14,24
19,-24,-43,2,31,-34,-9,0,-4,39,14,24
19,-24,-43,2,31,-34,-9,0,-4,39,14,24
19,-29,-48,4,34,-39,-9,0,-9,34,9,24
19,-29,-48,4,34,-39,-9,0,-9,34,9,24
19,-24,-43,2,31,-34,-19,-9,-9,34,9,24
19,-24,-43,2,31,-34,-19,-9,-9,34,9,19
24,-24,-48,0,36,-36,-19,-9,-9,34,9,19
24,-19,-43,-2,34,-31,-19,-9,-9,34,9,19
24,-19,-43,-2,34,-31,-19,-9,-9,24,9,19
24,-24,-48,0,36,-36,-19,-9,-9,24,9,19
24,-29,-53,2,39,-41,-19,-9,-9,24,9,19
24,-29,-53,2,39,-41,-19,-9,-9,24,9,19
14,-24,-39,4,26,-31,-9,0,-9,34,9,29
14,-19,-34,2,24,-26,-14,0,-9,34,9,29
14,-19,-34,2,24,-26,-14,0,-9,34,9,34
19,-19,-39,0,29,-29,-14,0,-9,34,9,34
29,-39,-68,4,48,-53,-9,0,0,34,19,34
24,-34,-58,4,41,-46,-9,0,4,34,19,43
29,-19,-48,-4,39,-34,-19,0,-9,29,19,39
29,-29,-58,0,43,-43,-19,0,-9,29,19,29
29,-29,-58,0,43,-43,-19,0,-9,29,19,29
29,-29,-58,0,43,-43,-19,0,-9,29,19,29
29,-29,-58,0,43,-43,-19,0,-9,29,19,29
29,-19,-48,-4,39,-34,-29,-9,-9,29,9,34
29,-19,-48,-4,39,-34,-29,-9,-9,29,9,34
29,-14,-43,-7,36,-29,-34,-9,-14,29,9,29
29,-14,-43,-7,36,-29,-34,-9,-14,29,9,29
29,-14,-43,-7,36,-29,-29,-9,-14,39,19,39
29,-19,-48,-4,39,-34,-29,-9,-9,39,19,39
29,-19,-48,-4,39,-34,-29,-9,-9,39,19,43
29,-19,-48,-4,39,-34,-29,-9,-9,39,19,43
39,-19,-58,-9,48,-39,-19,0,-9,39,19,34
39,-9,-48,-14,43,-29,-14,0,-9,39,19,34
39,-24,-63,-7,51,-43,-14,0,-9,39,19,34
39,-34,-73,-2,56,-53,-14,0,-9,43,19,34
43,-24,-68,-9,56,-46,-14,4,0,43,19,34
39,-24,-63,-7,51,-43,-19,4,0,43,19,34
34,-24,-58,-4,46,-41,-19,4,0,43,19,34
34,-14,-48,-9,41,-31,-19,9,0,43,24,39
39,-14,-53,-12,46,-34,-19,0,4,43,19,39
43,-19,-63,-12,53,-41,-19,4,4,43,19,39
48,-24,-73,-12,61,-48,-19,4,0,43,14,34
63,-24,-87,-19,75,-56,-24,4,0,39,14,34
58,-9,-68,-24,63,-39,-34,4,-9,29,14,34
58,0,-58,-29,58,-29,-39,4,-4,34,14,39
58,9,-48,-34,53,-19,-39,4,0,43,29,43
53,24,-29,-39,41,-2,-34,9,4,48,34,48
53,19,-34,-36,43,-7,-34,19,14,63,43,63
53,19,-34,-36,43,-7,-34,19,19,68,48,68
53,24,-29,-39,41,-2,-34,19,29,78,58,73
53,24,-29,-39,41,-2,-34,29,43,92,78,87
68,34,-34,-51,51,0,-39,29,53,107,78,87
73,58,-14,-65,43,21,-53,34,53,112,82,102
82,68,-14,-75,48,26,-68,34,48,112,87,102
87,68,-19,-78,53,24,-78,34,48,112,87,102
92,78,-14,-85,53,31,-97,14,34,97,87,87
92,78,-14,-85,53,31,-112,9,19,87,78,82
102,78,-24,-90,63,26,-122,4,14,82,78,82
107,92,-14,-100,61,39,-126,0,9,82,78,87
102,117,14,-109,43,65,-122,9,9,87,82,102
107,136,29,-122,39,82,-131,0,9,87,87,112
112,161,48,-136,31,104,-141,-4,0,87,87,112
122,161,39,-141,41,100,-151,-19,-9,68,82,107
131,151,19,-141,56,85,-165,-34,-29,53,63,102
136,136,0,-136,68,68,-165,-39,-48,39,48,87
136,117,-19,-126,78,48,-161,-39,-53,34,43,82
141,97,-43,-119,92,26,-161,-34,-58,29,43,82
141,97,-43,-119,92,26,-146,-34,-58,24,34,68
146,107,-39,-126,92,34,-146,-34,-58,24,29,68
151,112,-39,-131,95,36,-156,-39,-73,19,24,68
156,112,-43,-134,100,34,-156,-48,-73,9,19,68
151,141,-9,-146,80,65,-175,-53,-78,9,14,68
151,141,-9,-146,80,65,-175,-53,-78,9,9,68
146,141,-4,-143,75,68,-170,-53,-78,9,9,68
141,136,-4,-139,73,65,-156,-48,-63,14,19,73
141,126,-14,-134,78,56,-141,-43,-63,14,24,68
136,131,-4,-134,70,63,-136,-34,-53,29,29,73
136,131,-4,-134,70,63,-126,-24,-43,29,34,78
126,122,-4,-124,65,58,-117,-14,-34,43,43,87
131,112,-19,-122,75,46,-102,-4,-9,58,58,92
131,112,-19,-122,75,46,-97,4,-4,58,58,92
131,102,-29,-117,80,36,-87,4,-4,53,58,82
107,78,-29,-92,68,24,-78,0,-9,53,48,73
87,43,-43,-65,65,0,-68,4,-19,43,39,58
78,29,-48,-53,63,-9,-68,-4,-24,39,34,48
68,4,-63,-36,65,-29,-58,-9,-24,29,29,48
58,0,-58,-29,58,-29,-53,-9,-24,29,24,43
39,-4,-43,-17,41,-24,-48,-14,-34,24,9,39
29,-14,-43,-7,36,-29,-39,-14,-34,19,0,24
24,-24,-48,0,36,-36,-34,-14,-34,14,-4,19
14,-19,-34,2,24,-26,-34,-14,-34,14,-4,14
24,-34,-58,4,41,-46,-34,-24,-39,0,-9,4
24,-39,-63,7,43,-51,-29,-24,-39,0,-9,4
24,-39,-63,7,43,-51,-29,-19,-34,4,-9,4
24,-39,-63,7,43,-51,-29,-19,-34,4,-4,9
29,-39,-68,4,48,-53,-29,-19,-34,9,-4,19
29,-34,-63,2,46,-48,-29,-19,-34,9,-4,19
29,-29,-58,0,43,-43,-29,-19,-34,9,-4,19
29,-19,-48,-4,39,-34,-29,-19,-34,9,-4,19
29,-24,-53,-2,41,-39,-29,-19,-34,9,-14,19
29,-34,-63,2,46,-48,-24,-19,-34,9,-9,24
29,-39,-68,4,48,-53,-24,-19,-34,9,-9,24
24,-53,-78,14,51,-65,-24,-19,-34,9,-9,24
24,-34,-58,4,41,-46,-19,-14,-34,9,-9,24
29,-29,-58,0,43,-43,-14,-9,-34,14,0,24
39,-34,-73,-2,56,-53,-14,-4,-29,19,4,29
29,-29,-58,0,43,-43,-4,19,0,43,24,39
29,-14,-43,-7,36,-29,9,53,24,78,58,68
34,-4,-39,-14,36,-21,14,97,68,126,97,112
39,24,-14,-31,26,4,24,151,107,185,151,161
63,63,0,-63,31,31,19,190,136,219,195,204
82,102,19,-92,31,61,9,209,151,244,234,244
102,141,39,-122,31,90,-9,244,151,287,287,312
161,175,14,-168,73,95,-48,287,165,336,356,400
234,224,-9,-229,122,107,-82,326,165,380,429,488
292,322,29,-307,131,175,-136,366,180,429,497,585
370,419,48,-395,161,234,-190,405,185,483,570,688
463,507,43,-485,209,275,-244,483,200,551,658,795
595,610,14,-602,290,312,-307,629,224,644,766,907
766,717,-48,-741,407,334,-380,800,253,751,893,1049
922,814,-107,-868,514,353,-439,971,307,878,1039,1200
1054,902,-151,-978,602,375,-502,1122,351,990,1156,1342
1254,1005,-248,-1129,751,378,-585,1200,346,1034,1234,1439
1473,1117,-356,-1295,915,380,-736,1200,268,1029,1254,1507
1659,1263,-395,-1461,1027,434,-883,1132,170,995,1273,1571
1820,1424,-395,-1622,1107,514,-1029,1029,58,917,1254,1595
1971,1542,-429,-1756,1200,556,-1180,878,-102,785,1180,1586
2093,1673,-419,-1883,1256,627,-1346,668,-283,629,1078,1551
2142,1786,-356,-1964,1249,714,-1454,453,-409,488,976,1493
2088,1873,-214,-1981,1151,829,-1507,268,-507,370,873,1420
1966,1878,-87,-1922,1027,895,-1503,24,-610,200,712,1283
1805,1727,-78,-1766,941,824,-1459,-219,-746,-24,473,1024
1620,1400,-219,-1510,919,590,-1317,-390,-849,-263,156,653
1322,1034,-287,-1178,805,373,-1093,-580,-888,-492,-156,278
927,688,-239,-807,583,224,-834,-800,-888,-688,-444,-82
585,366,-219,-475,402,73,-600,-917,-878,-805,-634,-361
366,102,-263,-234,314,-80,-414,-873,-800,-814,-707,-507
204,-58,-263,-73,234,-161,-258,-775,-717,-775,-702,-566
82,-190,-273,53,178,-231,-136,-678,-649,-732,-702,-610
-19,-312,-292,165,136,-302,-19,-575,-566,-668,-678,-624
-107,-395,-287,251,90,-341,97,-453,-448,-575,-614,-585
-165,-395,-229,280,31,-312,161,-351,-346,-473,-517,-507
-204,-380,-175,292,-14,-278,185,-263,-263,-370,-424,-419
-224,-375,-151,300,-36,-263,214,-175,-195,-273,-331,-331
-190,-341,-151,265,-19,-246,214,-102,-136,-200,-263,-263
-156,-302,-146,229,-4,-224,190,-68,-107,-151,-214,-219
-151,-278,-126,214,-12,-202,175,-43,-87,-126,-180,-200
-141,-248,-107,195,-17,-178,175,-29,-73,-107,-156,-180
-136,-224,-87,180,-24,-156,165,-19,-53,-97,-151,-161
-122,-214,-92,168,-14,-153,156,-9,-43,-73,-136,-141
-102,-209,-107,156,2,-158,151,-14,-34,-58,-117,-117
-87,-200,-112,143,12,-156,131,-24,-29,-53,-107,-117
-97,-161,-63,129,-17,-112,122,-24,-24,-48,-92,-107
-97,-146,-48,122,-24,-97,102,-14,-14,-29,-78,-87
-102,-131,-29,117,-36,-80,92,-19,0,-24,-63,-63
-92,-97,-4,95,-43,-51,78,-34,0,-24,-63,-63
-82,-87,-4,85,-39,-46,68,-24,9,-19,-53,-63
-82,-92,-9,87,-36,-51,63,-24,9,-14,-53,-58
-78,-92,-14,85,-31,-53,63,-24,9,-9,-53,-53
-78,-97,-19,87,-29,-58,63,-24,14,0,-48,-53
-82,-112,-29,97,-26,-70,68,-9,14,4,-39,-48
-82,-112,-29,97,-26,-70,68,-9,19,4,-39,-48
-82,-107,-24,95,-29,-65,68,-14,19,4,-34,-48
-82,-102,-19,92,-31,-61,73,-14,19,9,-29,-48
-78,-102,-24,90,-26,-63,63,-14,19,9,-39,-53
-78,-102,-24,90,-26,-63,63,-14,24,9,-39,-48
-78,-102,-24,90,-26,-63,68,-14,24,9,-39,-43
-78,-102,-24,90,-26,-63,73,-9,24,14,-34,-43
-92,-97,-4,95,-43,-51,63,-9,14,4,-39,-43
-92,-87,4,90,-48,-41,58,-9,14,9,-39,-43
-87,-82,4,85,-46,-39,58,-9,19,9,-43,-43
-87,-73,14,80,-51,-29,53,-9,19,9,-43,-43
-87,-82,4,85,-46,-39,58,0,29,9,-39,-43
-87,-87,0,87,-43,-43,63,0,29,14,-29,-43
-87,-92,-4,90,-41,-48,68,0,29,24,-24,-43
-87,-97,-9,92,-39,-53,78,0,29,29,-19,-39
-78,-92,-14,85,-31,-53,68,-9,29,19,-29,-39
-78,-92,-14,85,-31,-53,68,-9,34,19,-29,-39
-78,-82,-4,80,-36,-43,68,-9,34,19,-29,-39
-78,-82,-4,80,-36,-43,63,-14,34,19,-24,-39
-78,-82,-4,80,-36,-43,53,-14,34,19,-24,-39
-82,-82,0,82,-41,-41,53,-14,34,19,-24,-39
-87,-82,4,85,-46,-39,58,-14,34,19,-24,-39
-87,-87,0,87,-43,-43,58,-14,34,19,-24,-39
-87,-82,4,85,-46,-39,58,-14,24,19,-24,-29
-87,-78,9,82,-48,-34,58,-4,29,24,-24,-29
-87,-73,14,80,-51,-29,58,-4,34,24,-24,-24
-92,-68,24,80,-58,-21,58,-4,34,24,-19,-24
-102,-78,24,90,-63,-26,58,-9,39,24,-19,-24
-102,-73,29,87,-65,-21,58,-9,39,24,-19,-24
-102,-73,29,87,-65,-21,58,-9,43,29,-19,-29
-102,-73,29,87,-65,-21,63,-9,43,29,-19,-29
-97,-82,14,90,-56,-34,63,-9,48,29,-9,-29
-97,-82,14,90,-56,-34,63,-9,48,29,-4,-29
-92,-82,9,87,-51,-36,63,-9,48,34,-4,-29
-92,-82,9,87,-51,-36,63,-9,48,34,-9,-29
-92,-82,9,87,-51,-36,73,-9,43,29,-19,-29
-97,-78,19,87,-58,-29,73,-9,43,29,-19,-29
-102,-78,24,90,-63,-26,73,-9,48,34,-14,-24
-107,-78,29,92,-68,-24,73,-4,48,34,-14,-24
-107,-78,29,92,-68,-24,78,-4,48,34,-4,-24
-107,-78,29,92,-68,-24,78,-4,48,39,-4,-19
-107,-78,29,92,-68,-24,78,-4,53,39,0,-19
-107,-82,24,95,-65,-29,78,-4,53,39,0,-19
-97,-73,24,85,-61,-24,73,4,63,39,-4,-9
-102,-73,29,87,-65,-21,73,4,68,43,-4,-9
-107,-73,34,90,-70,-19,82,9,68,53,4,-9
-112,-68,43,90,-78,-12,82,9,68,58,4,-9
-112,-78,34,95,-73,-21,82,4,68,58,4,-19
-112,-78,34,95,-73,-21,82,4,68,53,4,-19
-117,-78,39,97,-78,-19,82,4,68,48,4,-19
-117,-78,39,97,-78,-19,82,4,68,39,4,-19
-126,-68,58,97,-92,-4,82,4,82,48,4,-9
-131,-63,68,97,-100,2,82,4,82,53,4,-9
-136,-63,73,100,-104,4,87,4,82,53,0,-9
-141,-63,78,102,-109,7,87,4,82,53,0,-9
-146,-68,78,107,-112,4,92,4,87,63,14,-9
-146,-78,68,112,-107,-4,92,4,92,63,14,-9
-146,-78,68,112,-107,-4,92,4,92,63,14,-19
-151,-78,73,114,-112,-2,97,4,92,58,9,-19
-161,-73,87,117,-124,7,87,4,92,58,0,-19
-165,-73,92,119,-129,9,92,4,92,53,0,-19
-165,-68,97,117,-131,14,92,0,92,53,0,-19
-175,-68,107,122,-141,19,92,-4,97,58,0,-19
-170,-63,107,117,-139,21,92,4,92,48,-9,-19
-175,-63,112,119,-143,24,92,4,92,48,-9,-19
-180,-63,117,122,-148,26,97,0,97,48,-14,-29
-180,-68,112,124,-146,21,107,0,102,53,-14,-34
-195,-58,136,126,-165,39,107,9,102,63,-9,-29
-200,-58,141,129,-170,41,107,4,102,63,-4,-24
-209,-58,151,134,-180,46,112,4,102,58,0,-24
-224,-58,165,141,-195,53,117,-4,107,58,0,-19
-214,-68,146,141,-180,39,117,-14,107,58,-9,-39
-224,-68,156,146,-190,43,117,-19,107,58,-9,-43
-229,-73,156,151,-192,41,122,-24,117,58,-9,-43
-234,-73,161,153,-197,43,122,-24,117,58,-14,-48
-248,-73,175,161,-212,51,131,-19,126,58,-4,-39
-258,-73,185,165,-222,56,131,-19,126,58,-4,-43
-273,-73,200,173,-236,63,141,-19,136,58,-14,-48
-283,-68,214,175,-248,73,146,-29,136,58,-19,-53
-292,-58,234,175,-263,87,146,-39,136,53,-9,-48
-292,-58,234,175,-263,87,151,-43,136,48,-14,-58
-307,-63,244,185,-275,90,156,-48,141,48,-19,-63
-322,-68,253,195,-287,92,161,-58,146,48,-19,-68
-326,-58,268,192,-297,104,165,-58,146,53,-24,-63
-341,-58,283,200,-312,112,175,-63,146,48,-34,-78
-356,-58,297,207,-326,119,175,-68,151,43,-34,-82
-370,-63,307,217,-339,122,175,-78,156,43,-43,-97
-375,-58,317,217,-346,129,170,-97,146,29,-48,-102
-390,-53,336,222,-363,141,175,-102,151,24,-53,-112
-409,-48,361,229,-385,156,180,-117,151,19,-53,-117
-414,-43,370,229,-392,163,185,-126,151,14,-63,-126
-424,-48,375,236,-400,163,190,-136,156,14,-63,-126
-439,-48,390,244,-414,170,195,-146,156,9,-68,-131
-453,-53,400,253,-427,173,200,-151,161,4,-78,-141
-468,-58,409,263,-439,175,209,-161,161,4,-87,-151
-478,-68,409,273,-444,170,224,-165,165,4,-92,-156
-488,-78,409,283,-448,165,229,-170,165,4,-97,-161
-497,-97,400,297,-448,151,234,-175,165,0,-97,-165
-507,-117,390,312,-448,136,234,-175,165,-4,-102,-170
-522,-107,414,314,-468,153,239,-185,175,0,-102,-170
-531,-107,424,319,-478,158,244,-200,170,-9,-117,-185
-536,-112,424,324,-480,156,248,-209,170,-14,-117,-190
-546,-117,429,331,-488,156,248,-214,180,-14,-122,-200
-551,-117,434,334,-492,158,253,-214,170,-29,-141,-219
-556,-117,439,336,-497,161,253,-224,165,-39,-146,-229
-561,-122,439,341,-500,158,253,-229,165,-43,-151,-234
-561,-122,439,341,-500,158,263,-229,165,-43,-151,-234
-575,-146,429,361,-502,141,273,-219,175,-43,-151,-234
-580,-146,434,363,-507,143,273,-224,175,-43,-156,-239
-585,-146,439,366,-512,146,273,-229,170,-48,-165,-244
-590,-151,439,370,-514,143,268,-229,170,-48,-165,-248
-575,-161,414,368,-495,126,258,-239,161,-58,-170,-258
-570,-161,409,366,-490,124,258,-239,161,-63,-170,-263
-566,-161,405,363,-485,122,258,-239,161,-63,-170,-263
-556,-161,395,358,-475,117,258,-229,156,-63,-170,-263
-561,-175,385,368,-473,104,268,-229,156,-53,-170,-263
-546,-165,380,356,-463,107,263,-224,151,-53,-170,-258
-536,-165,370,351,-453,102,258,-214,141,-53,-170,-253
-527,-165,361,346,-444,97,258,-209,141,-53,-170,-253
-502,-165,336,334,-419,85,248,-214,126,-58,-175,-263
-488,-170,317,329,-402,73,234,-209,122,-63,-175,-263
-473,-170,302,322,-387,65,224,-204,122,-68,-175,-253
-463,-170,292,317,-378,61,214,-190,117,-73,-165,-244
-439,-185,253,312,-346,34,219,-185,112,-68,-161,-248
-429,-185,244,307,-336,29,209,-170,112,-68,-156,-239
-414,-180,234,297,-324,26,204,-161,107,-63,-156,-229
-395,-175,219,285,-307,21,190,-156,102,-63,-156,-224
-370,-165,204,268,-287,19,170,-146,102,-63,-146,-219
-361,-161,200,261,-280,19,161,-136,97,-58,-136,-200
-341,-161,180,251,-261,9,156,-126,92,-48,-131,-190
-322,-161,161,241,-241,0,151,-117,87,-39,-126,-180
-307,-151,156,229,-231,2,146,-122,73,-43,-131,-175
-283,-141,141,212,-212,0,136,-102,73,-39,-126,-165
-263,-136,126,200,-195,-4,126,-92,73,-39,-112,-151
-244,-126,117,185,-180,-4,117,-82,68,-34,-102,-146
-219,-131,87,175,-153,-21,97,-73,58,-43,-97,-136
-204,-126,78,165,-141,-24,92,-63,48,-39,-97,-131
-190,-122,68,156,-129,-26,82,-58,39,-34,-92,-126
-165,-112,53,139,-109,-29,73,-48,24,-29,-87,-117
-136,-97,39,117,-87,-29,58,-48,19,-34,-87,-117
-122,-82,39,102,-80,-21,43,-39,19,-34,-73,-97
-112,-78,34,95,-73,-21,39,-29,14,-29,-73,-92
-97,-68,29,82,-63,-19,29,-24,9,-29,-63,-87
-73,-73,0,73,-36,-36,14,-19,9,-24,-53,-82
-63,-68,-4,65,-29,-36,9,-4,4,-19,-48,-68
-48,-58,-9,53,-19,-34,0,0,0,-14,-48,-53
-24,-58,-34,41,4,-46,-4,4,0,-9,-34,-43
-24,-53,-29,39,2,-41,-4,19,0,-4,-29,-29
-14,-48,-34,31,9,-41,-14,29,-4,0,-24,-19
4,-39,-43,17,24,-41,-14,34,-4,0,-19,-14
9,-48,-58,19,34,-53,-19,43,-4,9,-9,0
14,-39,-53,12,34,-46,-29,53,-4,9,0,9
19,-29,-48,4,34,-39,-34,53,-9,14,0,14
29,-29,-58,0,43,-43,-39,53,-9,14,0,14
34,-24,-58,-4,46,-41,-39,53,-9,24,9,29
53,-24,-78,-14,65,-51,-43,58,-9,24,4,29
58,-19,-78,-19,68,-48,-48,63,-14,24,4,29
63,-24,-87,-19,75,-56,-48,68,-14,24,9,24
63,-29,-92,-17,78,-61,-53,73,-14,24,9,29
73,-19,-92,-26,82,-56,-53,63,-14,24,14,34
73,-19,-92,-26,82,-56,-53,68,-14,29,19,34
78,-14,-92,-31,85,-53,-58,68,-14,29,19,39
78,-4,-82,-36,80,-43,-63,68,-14,34,19,39
78,-14,-92,-31,85,-53,-63,78,-14,24,24,39
87,-9,-97,-39,92,-53,-63,78,-9,29,29,43
87,-9,-97,-39,92,-53,-58,78,-9,29,29,48
87,-9,-97,-39,92,-53,-58,78,-14,29,29,53
82,9,-73,-46,78,-31,-63,73,-24,29,29,53
82,14,-68,-48,75,-26,-63,73,-24,29,34,58
78,19,-58,-48,68,-19,-63,73,-24,29,34,58
78,29,-48,-53,63,-9,-63,73,-24,29,34,53
82,19,-63,-51,73,-21,-73,82,-24,29,34,43
82,9,-73,-46,78,-31,-73,82,-24,29,34,43
87,0,-87,-43,87,-43,-73,82,-19,29,34,48
92,-14,-107,-39,100,-61,-73,82,-19,34,43,48
82,-4,-87,-39,85,-46,-68,82,-19,34,43,53
82,-4,-87,-39,85,-46,-68,87,-19,34,39,58
82,-4,-87,-39,85,-46,-68,87,-19,34,39,58
82,-4,-87,-39,85,-46,-68,82,-19,34,39,63
78,14,-63,-46,70,-24,-68,82,-19,34,39,53
78,19,-58,-48,68,-19,-68,82,-19,34,43,58
78,24,-53,-51,65,-14,-68,82,-19,34,43,58
78,29,-48,-53,63,-9,-68,78,-14,34,39,58
68,19,-48,-43,58,-14,-58,78,-14,24,29,58
63,14,-48,-39,56,-17,-58,78,-14,24,34,53
58,14,-43,-36,51,-14,-58,78,-14,24,34,43
58,14,-43,-36,51,-14,-58,73,-14,24,34,39
68,-4,-73,-31,70,-39,-53,73,-14,34,34,48
63,-9,-73,-26,68,-41,-53,73,-14,34,34,48
58,-9,-68,-24,63,-39,-48,68,-14,34,34,48
58,-14,-73,-21,65,-43,-48,68,-14,34,34,48
48,-4,-53,-21,51,-29,-48,68,-4,43,43,48
48,0,-48,-24,48,-24,-48,68,-4,43,43,53
48,4,-43,-26,46,-19,-48,63,-4,43,39,58
39,9,-29,-24,34,-9,-48,63,-4,43,39,63
48,0,-48,-24,48,-24,-48,58,-14,34,24,58
43,4,-39,-24,41,-17,-48,58,-14,29,24,48
43,4,-39,-24,41,-17,-48,58,-14,29,24,43
39,0,-39,-19,39,-19,-43,53,-14,29,24,39
29,-14,-43,-7,36,-29,-34,43,-4,29,29,34
29,-14,-43,-7,36,-29,-34,43,-4,29,29,34
19,-14,-34,-2,26,-24,-29,43,0,29,34,39
19,-14,-34,-2,26,-24,-29,39,0,29,34,39
14,-14,-29,0,21,-21,-39,34,-4,19,29,34
14,-14,-29,0,21,-21,-34,34,-9,19,29,29
14,-9,-24,-2,19,-17,-34,34,-14,14,24,29
14,-9,-24,-2,19,-17,-39,29,-19,14,24,29
0,-4,-4,2,2,-4,-29,34,-9,14,9,19
0,-4,-4,2,2,-4,-29,39,-9,14,9,14
0,-9,-9,4,4,-9,-24,39,-9,14,9,14
0,-4,-4,2,2,-4,-24,43,-9,14,9,14
9,-9,-19,0,14,-14,-34,34,-9,9,9,24
9,-14,-24,2,17,-19,-34,34,-9,9,9,19
4,-19,-24,7,14,-21,-29,29,-9,9,4,19
0,-24,-24,12,12,-24,-29,29,-9,9,4,19
0,-24,-24,12,12,-24,-19,29,-9,14,9,14
4,-29,-34,12,19,-31,-19,29,-9,14,9,14
4,-29,-34,12,19,-31,-19,29,-9,14,9,14
0,-29,-29,14,14,-29,-19,29,-9,9,9,14
0,-19,-19,9,9,-19,-19,24,-19,0,0,4
0,-19,-19,9,9,-19,-19,24,-19,0,0,4
0,-19,-19,9,9,-19,-24,24,-24,0,0,4
0,-19,-19,9,9,-19,-24,24,-24,0,0,4
9,-9,-19,0,14,-14,-34,24,-24,0,0,4
9,-14,-24,2,17,-19,-34,24,-29,0,4,4
4,-19,-24,7,14,-21,-29,24,-29,0,4,4
4,-19,-24,7,14,-21,-29,24,-24,0,0,4
4,-19,-24,7,14,-21,-29,19,-34,-4,-9,0
0,-19,-19,9,9,-19,-29,19,-29,-4,-9,0
-4,-19,-14,12,4,-17,-29,19,-29,-4,-9,0
-9,-19,-9,14,0,-14,-29,19,-29,-4,-9,0
0,-29,-29,14,14,-29,-29,29,-19,-4,-4,0
4,-29,-34,12,19,-31,-29,29,-24,-4,-4,4
4,-24,-29,9,17,-26,-29,29,-24,-4,-4,4
4,-19,-24,7,14,-21,-29,29,-24,-4,-4,9
4,-9,-14,2,9,-12,-34,19,-34,-9,-9,0
4,-9,-14,2,9,-12,-34,19,-39,-14,-9,4
9,-4,-14,-2,12,-9,-39,14,-39,-14,-9,4
9,-4,-14,-2,12,-9,-39,14,-39,-14,-9,4
14,-14,-29,0,21,-21,-39,9,-34,-19,-14,-4
14,-24,-39,4,26,-31,-39,14,-34,-19,-14,-4
14,-24,-39,4,26,-31,-39,14,-34,-19,-14,-4
14,-24,-39,4,26,-31,-39,14,-34,-19,-9,-4
14,-29,-43,7,29,-36,-43,24,-34,-19,0,-4
14,-34,-48,9,31,-41,-43,14,-39,-19,-4,0
14,-34,-48,9,31,-41,-43,14,-39,-19,-4,0
14,-34,-48,9,31,-41,-43,14,-39,-19,-4,0
24,-24,-48,0,36,-36,-34,14,-43,-19,-9,-4
24,-29,-53,2,39,-41,-39,14,-43,-19,-9,-4
24,-29,-53,2,39,-41,-39,19,-39,-19,-9,0
24,-34,-58,4,41,-46,-39,19,-39,-19,-9,0
19,-43,-63,12,41,-53,-48,19,-48,-9,-4,9
19,-39,-58,9,39,-48,-48,19,-48,-14,-4,9
19,-39,-58,9,39,-48,-48,19,-48,-14,-4,4
19,-39,-58,9,39,-48,-48,19,-48,-14,-4,4
24,-29,-53,2,39,-41,-48,19,-48,-24,-9,-4
34,-29,-63,-2,48,-46,-48,19,-48,-24,-4,0
39,-29,-68,-4,53,-48,-48,19,-48,-24,-9,0
43,-29,-73,-7,58,-51,-48,19,-48,-24,-14,0
39,-39,-78,0,58,-58,-39,9,-58,-34,-14,0
39,-39,-78,0,58,-58,-48,9,-63,-34,-14,0
34,-29,-63,-2,48,-46,-48,9,-68,-34,-14,0
29,-29,-58,0,43,-43,-48,9,-68,-29,-14,0
34,-19,-53,-7,43,-36,-43,19,-63,-19,-4,-9
34,-19,-53,-7,43,-36,-43,19,-58,-19,-9,-9
34,-24,-58,-4,46,-41,-48,19,-48,-19,-9,-9
39,-24,-63,-7,51,-43,-48,19,-43,-19,-4,-4
39,-24,-63,-7,51,-43,-48,19,-53,-29,-14,-4
39,-24,-63,-7,51,-43,-48,19,-53,-29,-14,-4
39,-29,-68,-4,53,-48,-48,19,-58,-34,-19,-4
39,-29,-68,-4,53,-48,-48,19,-58,-34,-19,-4
48,-34,-82,-7,65,-58,-58,19,-68,-34,-9,-4
48,-34,-82,-7,65,-58,-58,19,-68,-34,-9,-9
53,-34,-87,-9,70,-61,-58,19,-68,-34,-9,-9
53,-29,-82,-12,68,-56,-58,19,-68,-34,-9,-9
53,-19,-73,-17,63,-46,-58,9,-58,-34,-9,0
43,-14,-58,-14,51,-36,-58,9,-68,-34,-9,0
34,-29,-63,-2,48,-46,-48,29,-48,-14,0,0
43,-19,-63,-12,53,-41,-48,29,-48,-14,9,9
48,-19,-68,-14,58,-43,-58,9,-58,-19,0,9
48,-19,-68,-14,58,-43,-58,9,-68,-24,-9,4
48,-19,-68,-14,58,-43,-58,9,-68,-29,-9,0
48,-19,-68,-14,58,-43,-58,9,-68,-34,-9,-4
48,-19,-68,-14,58,-43,-58,9,-68,-39,-9,-9
39,-19,-58,-9,48,-39,-48,9,-58,-29,-9,-4
39,-19,-58,-9,48,-39,-48,9,-58,-29,-9,-4
39,-14,-53,-12,46,-34,-53,9,-63,-29,-9,-9
39,-14,-53,-12,46,-34,-53,9,-63,-29,-9,-9
39,-24,-63,-7,51,-43,-58,9,-63,-29,-9,0
39,-29,-68,-4,53,-48,-58,9,-58,-29,-9,0
39,-29,-68,-4,53,-48,-58,9,-58,-29,-9,4
39,-29,-68,-4,53,-48,-58,9,-58,-29,-9,4
29,-34,-63,2,46,-48,-58,19,-68,-29,-9,4
29,-19,-48,-4,39,-34,-53,19,-68,-29,-9,4
29,-29,-58,0,43,-43,-53,19,-68,-29,-9,4
29,-34,-63,2,46,-48,-53,19,-68,-24,-9,4
43,-24,-68,-9,56,-46,-53,24,-58,-24,-9,4
48,-24,-73,-12,61,-48,-58,24,-58,-24,-9,4
53,-24,-78,-14,65,-51,-58,24,-58,-24,-9,4
63,-14,-78,-24,70,-46,-58,29,-58,-24,-4,9
63,-24,-87,-19,75,-56,-68,29,-53,-24,0,9
63,-29,-92,-17,78,-61,-68,34,-53,-24,0,9
63,-34,-97,-14,80,-65,-68,34,-58,-24,-4,4
73,-34,-107,-19,90,-70,-73,34,-58,-29,-4,4
78,-24,-102,-26,90,-63,-63,24,-58,-29,-14,-4
78,-19,-97,-29,87,-58,-68,24,-53,-24,-14,0
78,-14,-92,-31,85,-53,-68,24,-48,-14,0,4
73,-4,-78,-34,75,-41,-63,29,-43,-9,4,9
63,4,-58,-34,61,-26,-53,34,-34,-4,14,19
63,9,-53,-36,58,-21,-53,39,-29,0,19,29
63,19,-43,-41,53,-12,-53,43,-19,9,29,39
63,24,-39,-43,51,-7,-53,58,-4,24,48,58
78,34,-43,-56,61,-4,-63,48,-4,29,58,63
82,58,-24,-70,53,17,-82,53,-4,34,63,73
92,68,-24,-80,58,21,-102,53,-9,34,68,68
97,68,-29,-82,63,19,-117,53,-9,34,68,63
102,68,-34,-85,68,17,-117,43,-14,29,58,68
102,68,-34,-85,68,17,-131,39,-29,19,48,63
112,68,-43,-90,78,12,-141,34,-34,14,48,63
117,82,-34,-100,75,24,-146,29,-39,14,48,68
131,97,-34,-114,82,31,-151,29,-39,19,53,63
136,117,-19,-126,78,48,-161,19,-39,19,58,73
141,141,0,-141,70,70,-170,14,-48,19,58,73
151,141,-9,-146,80,65,-180,0,-58,0,53,68
146,126,-19,-136,82,53,-185,-14,-78,-24,24,53
146,117,-29,-131,87,43,-185,-19,-97,-39,9,39
141,102,-39,-122,90,31,-180,-19,-102,-43,4,34
141,87,-53,-114,97,17,-180,-14,-107,-48,4,34
151,102,-48,-126,100,26,-180,-14,-117,-53,4,29
156,117,-39,-136,97,39,-185,-14,-117,-53,0,29
161,126,-34,-143,97,46,-200,-19,-131,-58,-4,29
165,131,-34,-148,100,48,-204,-29,-131,-68,-9,29
165,161,-4,-163,85,78,-214,-43,-146,-78,-14,19
161,161,0,-161,80,80,-214,-43,-146,-78,-19,19
151,161,9,-156,70,85,-209,-43,-146,-78,-19,19
141,156,14,-148,63,85,-195,-39,-131,-73,-9,24
141,141,0,-141,70,70,-175,-29,-117,-58,0,34
136,141,4,-139,65,73,-165,-14,-102,-39,9,43
136,136,0,-136,68,68,-151,0,-87,-34,19,53
126,122,-4,-124,65,58,-136,14,-73,-14,34,68
122,102,-19,-112,70,41,-131,24,-68,-4,34,58
122,92,-29,-107,75,31,-126,34,-63,-9,29,53
122,73,-48,-97,85,12,-117,34,-63,-19,24,39
97,39,-58,-68,78,-9,-107,29,-68,-24,9,24
87,14,-73,-51,80,-29,-87,24,-78,-34,0,9
78,0,-78,-39,78,-39,-87,14,-82,-39,-4,0
68,-24,-92,-21,80,-58,-78,9,-82,-48,-9,0
58,-29,-87,-14,73,-58,-73,9,-82,-48,-14,-4
48,-34,-82,-7,65,-58,-78,4,-92,-53,-19,0
39,-43,-82,2,61,-63,-68,4,-92,-58,-29,-14
34,-53,-87,9,61,-70,-63,4,-92,-63,-34,-19
24,-48,-73,12,48,-61,-63,4,-92,-63,-34,-24
34,-63,-97,14,65,-80,-53,4,-87,-58,-29,-24
34,-68,-102,17,68,-85,-48,4,-87,-58,-29,-24
34,-68,-102,17,68,-85,-48,9,-82,-53,-29,-24
34,-68,-102,17,68,-85,-48,9,-82,-53,-24,-19
39,-68,-107,14,73,-87,-58,9,-82,-58,-34,-19
39,-63,-102,12,70,-82,-58,9,-82,-58,-34,-19
39,-58,-97,9,68,-78,-58,9,-82,-58,-34,-19
39,-48,-87,4,63,-68,-58,9,-82,-58,-34,-19
29,-48,-78,9,53,-63,-58,9,-82,-58,-34,-29
29,-53,-82,12,56,-68,-53,9,-82,-58,-29,-24
29,-53,-82,12,56,-68,-53,9,-82,-58,-29,-24
24,-63,-87,19,56,-75,-53,9,-82,-58,-29,-24
43,-43,-87,0,65,-65,-58,4,-92,-58,-29,-24
39,-48,-87,4,63,-68,-53,19,-92,-63,-29,-24
29,-53,-82,12,56,-68,-43,34,-68,-29,-4,-9
29,-48,-78,9,53,-63,-24,78,-29,4,24,29
39,-24,-63,-7,51,-43,-9,122,14,58,78,78
43,4,-39,-24,41,-17,14,175,68,117,136,131
58,24,-34,-41,46,-4,14,219,97,165,190,190
92,63,-29,-78,61,17,-19,239,97,190,234,234
122,102,-19,-112,70,41,-39,268,112,214,273,292
170,151,-19,-161,95,65,-58,312,131,268,336,370
229,224,-4,-226,117,109,-97,366,136,317,414,468
283,312,29,-297,126,170,-151,405,146,380,497,575
341,400,58,-370,141,229,-204,444,161,439,566,673
448,497,48,-473,200,273,-258,512,165,492,658,775
570,595,24,-583,273,309,-312,649,200,580,766,902
712,688,-24,-700,368,331,-366,834,244,712,902,1054
863,795,-68,-829,466,363,-419,995,292,839,1039,1215
1019,912,-107,-966,563,402,-497,1127,326,936,1176,1366
1220,1029,-190,-1124,705,419,-590,1210,322,1010,1263,1468
1420,1151,-268,-1285,844,441,-732,1229,278,1015,1302,1546
1581,1302,-278,-1442,929,512,-873,1190,190,1000,1332,1605
1717,1439,-278,-1578,997,580,-1000,1112,82,936,1312,1649
1869,1590,-278,-1729,1073,656,-1156,971,-87,819,1263,1664
1991,1737,-253,-1864,1122,741,-1337,771,-258,668,1180,1644
2054,1859,-195,-1956,1124,832,-1454,561,-380,551,1107,1629
2015,1942,-73,-1978,1044,934,-1493,385,-448,458,1034,1590
1893,1971,78,-1932,907,1024,-1498,180,-546,292,883,1459
1761,1820,58,-1790,851,939,-1444,-43,-678,53,624,1185
1581,1493,-87,-1537,834,702,-1312,-229,-785,-190,297,800
1259,1127,-131,-1193,695,497,-1093,-439,-829,-409,-29,400
863,771,-92,-817,478,339,-829,-668,-858,-639,-331,14
546,414,-131,-480,339,141,-600,-790,-858,-795,-570,-307
351,141,-209,-246,280,-34,-414,-780,-800,-834,-683,-497
209,-43,-253,-82,231,-148,-268,-697,-722,-805,-697,-566
78,-224,-302,73,190,-263,-141,-610,-658,-766,-692,-614
-24,-346,-322,185,148,-334,-29,-502,-590,-722,-683,-639
-97,-409,-312,253,107,-361,78,-390,-488,-639,-639,-624
-156,-444,-287,300,65,-366,156,-287,-380,-536,-546,-556
-204,-444,-239,324,17,-341,180,-214,-307,-434,-448,-468
-204,-419,-214,312,4,-317,195,-146,-244,-351,-375,-400
-165,-385,-219,275,26,-302,185,-87,-204,-292,-312,-341
-141,-351,-209,246,34,-280,165,-53,-175,-248,-263,-292
-136,-312,-175,224,19,-244,151,-39,-146,-209,-234,-258
-122,-268,-146,195,12,-207,146,-14,-126,-185,-209,-239
-112,-258,-146,185,17,-202,136,9,-112,-165,-195,-209
-97,-273,-175,185,39,-224,126,19,-102,-156,-170,-200
-102,-263,-161,183,29,-212,126,19,-82,-131,-146,-180
-92,-219,-126,156,17,-173,122,24,-73,-117,-126,-165
-87,-190,-102,139,7,-146,102,14,-78,-122,-126,-156
-97,-190,-92,143,-2,-141,82,-14,-73,-126,-122,-146
-87,-185,-97,136,4,-141,73,-4,-63,-107,-97,-126
-73,-151,-78,112,2,-114,63,9,-48,-82,-73,-112
-63,-136,-73,100,4,-104,48,14,-48,-82,-73,-112
-68,-131,-63,100,-2,-97,58,4,-39,-73,-73,-112
-73,-131,-58,102,-7,-95,53,4,-39,-73,-73,-107
-73,-126,-53,100,-9,-90,53,4,-39,-73,-73,-102
-78,-126,-48,102,-14,-87,53,4,-34,-68,-68,-102
-82,-131,-48,107,-17,-90,63,19,-34,-73,-68,-107
-82,-131,-48,107,-17,-90,58,19,-29,-73,-68,-107
-82,-126,-43,104,-19,-85,53,14,-29,-73,-63,-107
-82,-122,-39,102,-21,-80,53,14,-29,-68,-58,-107
-78,-122,-43,100,-17,-82,43,14,-29,-58,-58,-92
-78,-122,-43,100,-17,-82,43,14,-24,-58,-58,-87
-78,-122,-43,100,-17,-82,48,14,-24,-58,-58,-82
-78,-122,-43,100,-17,-82,53,19,-24,-53,-53,-82
-78,-122,-43,100,-17,-82,53,9,-34,-63,-58,-92
-73,-117,-43,95,-14,-80,48,9,-34,-58,-58,-92
-63,-117,-53,90,-4,-85,48,9,-29,-58,-63,-92
-58,-112,-53,85,-2,-82,43,9,-29,-58,-63,-92
-68,-107,-39,87,-14,-73,43,9,-19,-53,-63,-92
-68,-107,-39,87,-14,-73,43,9,-19,-53,-58,-92
-68,-107,-39,87,-14,-73,43,9,-19,-48,-58,-92
-68,-107,-39,87,-14,-73,48,9,-19,-48,-58,-87
-78,-112,-34,95,-21,-73,48,9,-19,-48,-58,-87
-78,-112,-34,95,-21,-73,48,9,-14,-48,-58,-87
-78,-102,-24,90,-26,-63,48,9,-14,-48,-58,-87
-78,-102,-24,90,-26,-63,43,4,-14,-48,-53,-87
-78,-92,-14,85,-31,-53,43,-4,-24,-48,-53,-87
-82,-92,-9,87,-36,-51,43,-4,-24,-48,-53,-87
-87,-92,-4,90,-41,-48,48,-4,-24,-48,-53,-87
-87,-97,-9,92,-39,-53,48,-4,-24,-48,-53,-87
-78,-102,-24,90,-26,-63,58,4,-14,-48,-53,-87
-78,-107,-29,92,-24,-68,58,14,-9,-43,-53,-87
-78,-112,-34,95,-21,-73,58,14,-4,-43,-53,-82
-82,-117,-34,100,-24,-75,58,14,-4,-43,-48,-82
-82,-107,-24,95,-29,-65,48,9,-9,-53,-48,-92
-82,-102,-19,92,-31,-61,48,9,-9,-53,-48,-92
-82,-102,-19,92,-31,-61,48,9,-4,-48,-48,-97
-82,-102,-19,92,-31,-61,53,9,-4,-48,-48,-97
-97,-112,-14,104,-41,-63,63,19,-9,-48,-39,-92
-97,-112,-14,104,-41,-63,63,19,-9,-48,-34,-87
-92,-112,-19,102,-36,-65,63,19,-9,-43,-34,-82
-92,-112,-19,102,-36,-65,63,19,-9,-43,-39,-78
-82,-107,-24,95,-29,-65,63,9,-9,-39,-39,-78
-87,-107,-19,97,-34,-63,63,9,-4,-39,-39,-78
-92,-112,-19,102,-36,-65,63,9,4,-34,-34,-73
-97,-117,-19,107,-39,-68,63,14,9,-34,-34,-73
-97,-112,-14,104,-41,-63,58,4,14,-39,-43,-82
-97,-107,-9,102,-43,-58,58,4,9,-39,-43,-78
-97,-102,-4,100,-46,-53,58,4,9,-43,-39,-78
-97,-102,-4,100,-46,-53,58,4,4,-48,-39,-78
-107,-107,0,107,-53,-53,63,14,14,-43,-43,-87
-112,-112,0,112,-56,-56,63,14,19,-43,-43,-87
-117,-117,0,117,-58,-58,73,19,19,-39,-34,-87
-122,-117,4,119,-63,-56,73,19,19,-39,-34,-87
-122,-107,14,114,-68,-46,73,4,19,-34,-43,-87
-122,-107,14,114,-68,-46,73,4,19,-34,-43,-87
-126,-107,19,117,-73,-43,73,4,19,-34,-43,-87
-126,-107,19,117,-73,-43,73,4,19,-39,-43,-87
-126,-97,29,112,-78,-34,73,-4,14,-48,-53,-92
-131,-92,39,112,-85,-26,73,-4,14,-43,-53,-97
-136,-92,43,114,-90,-24,78,-4,14,-43,-58,-102
-141,-92,48,117,-95,-21,78,-4,14,-43,-58,-107
-136,-97,39,117,-87,-29,82,-4,19,-43,-43,-97
-136,-107,29,122,-82,-39,82,-4,24,-43,-43,-97
-136,-107,29,122,-82,-39,82,-4,24,-43,-43,-107
-141,-107,34,124,-87,-36,87,-4,24,-48,-48,-107
-141,-112,29,126,-85,-41,87,4,29,-43,-39,-97
-146,-112,34,129,-90,-39,92,4,34,-43,-39,-97
-146,-107,39,126,-92,-34,92,0,39,-39,-39,-97
-156,-107,48,131,-102,-29,92,-4,48,-29,-39,-97
-170,-112,58,141,-114,-26,92,-14,48,-39,-48,-97
-175,-112,63,143,-119,-24,92,-14,43,-39,-48,-97
-180,-112,68,146,-124,-21,97,-19,43,-39,-53,-107
-180,-117,63,148,-122,-26,107,-19,43,-34,-53,-112
-185,-112,73,148,-129,-19,97,-9,53,-34,-53,-112
-190,-107,82,148,-136,-12,97,-14,53,-34,-53,-112
-200,-102,97,151,-148,-2,102,-14,53,-39,-53,-117
-214,-97,117,156,-165,9,107,-24,58,-39,-58,-117
-214,-107,107,161,-161,0,107,-34,48,-39,-58,-126
-224,-107,117,165,-170,4,107,-39,48,-39,-58,-131
-229,-112,117,170,-173,2,112,-43,58,-39,-58,-131
-234,-112,122,173,-178,4,112,-43,58,-39,-63,-136
-239,-112,126,175,-183,7,122,-48,68,-48,-73,-146
-248,-112,136,180,-192,12,122,-48,68,-48,-73,-151
-263,-112,151,187,-207,19,131,-48,78,-48,-82,-156
-273,-107,165,190,-219,29,136,-58,78,-48,-87,-161
-292,-107,185,200,-239,39,136,-78,78,-53,-97,-175
-292,-107,185,200,-239,39,141,-82,78,-58,-102,-185
-307,-112,195,209,-251,41,146,-87,82,-58,-107,-190
-322,-117,204,219,-263,43,151,-97,87,-58,-107,-195
-317,-117,200,217,-258,41,156,-107,87,-63,-102,-190
-331,-117,214,224,-273,48,165,-112,87,-68,-112,-204
-346,-117,229,231,-287,56,165,-117,92,-73,-112,-209
-361,-122,239,241,-300,58,165,-126,97,-73,-122,-224
-366,-131,234,248,-300,51,180,-126,97,-68,-126,-219
-380,-131,248,256,-314,58,185,-131,102,-73,-131,-229
-400,-131,268,265,-334,68,190,-146,102,-78,-131,-234
-405,-131,273,268,-339,70,195,-156,102,-82,-141,-244
-414,-156,258,285,-336,51,209,-165,107,-92,-161,-258
-429,-156,273,292,-351,58,214,-175,107,-97,-165,-268
-444,-161,283,302,-363,61,219,-180,112,-102,-175,-283
-458,-165,292,312,-375,63,229,-190,112,-102,-185,-297
-468,-175,292,322,-380,58,224,-200,107,-112,-190,-297
-478,-175,302,326,-390,63,229,-209,107,-112,-195,-307
-488,-185,302,336,-395,58,234,-219,107,-117,-195,-317
-497,-195,302,346,-400,53,234,-224,107,-122,-200,-326
-502,-185,317,344,-409,65,239,-234,107,-136,-209,-336
-512,-185,326,348,-419,70,244,-248,102,-146,-224,-351
-517,-190,326,353,-422,68,248,-258,102,-151,-224,-356
-527,-195,331,361,-429,68,248,-263,112,-151,-229,-366
-522,-195,326,358,-424,65,244,-273,102,-156,-248,-385
-527,-195,331,361,-429,68,244,-283,97,-165,-253,-395
-531,-200,331,366,-431,65,244,-287,97,-170,-258,-400
-531,-200,331,366,-431,65,253,-287,97,-170,-258,-400
-531,-224,307,378,-419,41,263,-278,107,-170,-258,-400
-531,-224,307,378,-419,41,263,-283,107,-170,-263,-405
-531,-224,307,378,-419,41,263,-287,102,-175,-273,-409
-531,-229,302,380,-417,36,258,-287,102,-175,-273,-414
-536,-239,297,387,-417,29,268,-287,92,-175,-278,-414
-541,-239,302,390,-422,31,268,-287,92,-180,-278,-419
-546,-239,307,392,-427,34,268,-287,92,-180,-278,-419
-546,-239,307,392,-427,34,268,-278,87,-180,-278,-419
-536,-248,287,392,-412,19,263,-278,87,-180,-278,-419
-517,-234,283,375,-400,24,253,-273,82,-180,-278,-414
-502,-229,273,366,-387,21,244,-263,73,-180,-278,-409
-488,-224,263,356,-375,19,239,-258,73,-180,-278,-409
-463,-224,239,344,-351,7,234,-244,78,-170,-263,-400
-448,-229,219,339,-334,-4,224,-239,73,-170,-263,-400
-434,-229,204,331,-319,-12,219,-234,73,-170,-263,-390
-424,-229,195,326,-309,-17,214,-219,68,-170,-253,-380
-409,-234,175,322,-292,-29,219,-214,63,-165,-248,-385
-400,-234,165,317,-283,-34,209,-200,63,-165,-244,-375
-385,-229,156,307,-270,-36,204,-190,58,-161,-244,-366
-366,-224,141,295,-253,-41,190,-185,53,-161,-244,-361
-331,-204,126,268,-229,-39,170,-165,43,-161,-224,-346
-322,-200,122,261,-222,-39,161,-156,39,-156,-214,-326
-302,-200,102,251,-202,-48,156,-146,34,-146,-209,-317
-283,-200,82,241,-183,-58,151,-136,29,-136,-204,-307
-268,-195,73,231,-170,-61,136,-131,14,-136,-190,-297
-244,-190,53,217,-148,-68,126,-112,14,-126,-185,-283
-224,-190,34,207,-129,-78,117,-102,14,-122,-170,-263
-204,-185,19,195,-112,-82,107,-92,9,-112,-161,-253
-200,-170,29,185,-114,-70,107,-82,4,-112,-151,-229
-185,-165,19,175,-102,-73,102,-73,0,-107,-146,-219
-170,-161,9,165,-90,-75,92,-68,-4,-102,-136,-209
-146,-151,-4,148,-70,-78,82,-58,-14,-97,-126,-195
-126,-146,-19,136,-53,-82,68,-48,-9,-92,-126,-185
-112,-131,-19,122,-46,-75,53,-39,-9,-92,-112,-165
-102,-126,-24,114,-39,-75,48,-29,-14,-87,-112,-161
-87,-117,-29,102,-29,-73,39,-24,-19,-87,-102,-156
-68,-117,-48,92,-9,-82,34,-9,-19,-73,-82,-141
-63,-107,-43,85,-9,-75,29,4,-24,-68,-78,-126
-53,-92,-39,73,-7,-65,19,9,-29,-63,-78,-112
-34,-87,-53,61,9,-70,14,14,-29,-58,-63,-102
-24,-82,-58,53,17,-70,4,9,-19,-63,-58,-97
-14,-78,-63,46,24,-70,-4,19,-24,-58,-53,-87
4,-68,-73,31,39,-70,-4,24,-24,-58,-48,-82
9,-78,-87,34,48,-82,-9,34,-24,-48,-39,-68
14,-78,-92,31,53,-85,-9,43,-34,-48,-29,-58
19,-68,-87,24,53,-78,-14,43,-39,-43,-29,-53
29,-68,-97,19,63,-82,-19,43,-39,-43,-29,-53
34,-63,-97,14,65,-80,-19,43,-39,-34,-19,-39
43,-48,-92,2,68,-70,-34,48,-39,-24,-14,-43
48,-39,-87,-4,68,-63,-39,53,-43,-24,-14,-39
53,-39,-92,-7,73,-65,-39,58,-43,-24,-9,-39
53,-39,-92,-7,73,-65,-43,63,-43,-24,-9,-29
53,-39,-92,-7,73,-65,-34,63,-34,-14,4,-19
53,-39,-92,-7,73,-65,-34,68,-34,-9,9,-14
58,-34,-92,-12,75,-63,-39,68,-34,-9,9,-4
58,-24,-82,-17,70,-53,-43,68,-34,-4,9,0
58,-34,-92,-12,75,-63,-43,68,-34,-4,14,9
68,-29,-97,-19,82,-63,-43,68,-29,0,19,14
68,-29,-97,-19,82,-63,-39,68,-29,0,19,19
68,-29,-97,-19,82,-63,-39,68,-34,0,19,24
82,-19,-102,-31,92,-61,-53,63,-43,-4,9,14
82,-14,-97,-34,90,-56,-53,63,-43,-9,14,19
78,-9,-87,-34,82,-48,-53,63,-43,-14,14,19
78,0,-78,-39,78,-39,-53,63,-43,-19,14,14
78,9,-68,-43,73,-29,-53,63,-43,-9,14,4
73,9,-63,-41,68,-26,-53,63,-43,-9,14,4
73,9,-63,-41,68,-26,-53,63,-39,-9,14,9
73,4,-68,-39,70,-31,-53,63,-39,-4,24,9
73,0,-73,-36,73,-36,-48,73,-29,-4,24,19
73,-4,-78,-34,75,-41,-48,78,-29,-4,19,19
73,-9,-82,-31,78,-46,-48,78,-29,-4,19,14
73,-14,-87,-29,80,-51,-48,73,-29,-4,19,14
58,-9,-68,-24,63,-39,-39,73,-19,-4,19,14
58,-9,-68,-24,63,-39,-39,73,-19,-4,24,19
58,-9,-68,-24,63,-39,-39,73,-19,-4,24,19
58,-9,-68,-24,63,-39,-39,68,-14,-4,19,19
58,-9,-68,-24,63,-39,-39,68,-14,4,29,34
53,-14,-68,-19,61,-41,-39,68,-14,4,34,34
48,-14,-63,-17,56,-39,-39,68,-14,4,34,29
48,-14,-63,-17,56,-39,-39,63,-14,4,34,29
58,-9,-68,-24,63,-39,-43,53,-24,-4,24,19
53,-9,-63,-21,58,-36,-43,53,-24,-4,24,19
48,-4,-53,-21,51,-29,-39,48,-24,-4,24,19
48,-4,-53,-21,51,-29,-39,48,-24,-4,24,19
48,-14,-63,-17,56,-39,-29,58,-14,4,24,14
48,-19,-68,-14,58,-43,-29,58,-14,4,24,14
48,-24,-73,-12,61,-48,-29,53,-14,4,19,14
39,-29,-68,-4,53,-48,-29,53,-14,4,19,14
29,-19,-48,-4,39,-34,-29,48,-14,-4,14,4
24,-14,-39,-4,31,-26,-29,48,-14,-9,14,0
24,-14,-39,-4,31,-26,-29,48,-14,-9,14,0
19,-19,-39,0,29,-29,-24,43,-14,-9,14,0
24,-24,-48,0,36,-36,-34,34,-24,-9,0,-4
29,-24,-53,-2,41,-39,-34,34,-24,-9,0,-4
24,-24,-48,0,36,-36,-29,34,-19,-9,4,0
29,-24,-53,-2,41,-39,-29,29,-19,-9,4,0
24,-14,-39,-4,31,-26,-19,24,-19,-9,9,4
24,-14,-39,-4,31,-26,-14,24,-19,-9,9,0
24,-9,-34,-7,29,-21,-14,24,-19,-14,4,0
24,-9,-34,-7,29,-21,-19,19,-19,-14,4,0
19,-9,-29,-4,24,-19,-19,19,-9,-14,9,0
19,-14,-34,-2,26,-24,-19,19,-9,-14,9,-4
19,-24,-43,2,31,-34,-14,14,-9,-14,9,-4
19,-24,-43,2,31,-34,-14,14,-9,-14,9,-4
19,-14,-34,-2,26,-24,-24,14,-9,-19,0,-4
19,-14,-34,-2,26,-24,-24,14,-9,-19,0,-9
14,-14,-29,0,21,-21,-19,9,-9,-19,-4,-9
9,-14,-24,2,17,-19,-19,9,-9,-19,-4,-9
9,-24,-34,7,21,-29,-19,9,-19,-14,0,-14
14,-29,-43,7,29,-36,-19,9,-19,-14,0,-14
14,-29,-43,7,29,-36,-19,9,-19,-14,0,-14
9,-29,-39,9,24,-34,-19,9,-19,-19,0,-14
9,-39,-48,14,29,-43,-9,14,-9,-9,0,-4
9,-39,-48,14,29,-43,-9,14,-9,-9,0,-4
9,-39,-48,14,29,-43,-14,14,-14,-9,0,-4
9,-39,-48,14,29,-43,-14,14,-14,-9,0,-4
19,-48,-68,14,43,-58,-4,14,-4,-19,-9,-14
19,-53,-73,17,46,-63,-4,14,-9,-19,-4,-14
14,-58,-73,21,43,-65,0,14,-9,-19,-4,-14
14,-58,-73,21,43,-65,0,14,-4,-19,-9,-14
9,-53,-63,21,36,-58,-4,9,-9,-24,-9,-19
9,-48,-58,19,34,-53,-9,9,-9,-24,-9,-19
9,-43,-53,17,31,-48,-14,9,-14,-24,-9,-19
9,-39,-48,14,29,-43,-19,9,-19,-24,-9,-19
9,-58,-68,24,39,-63,-19,9,-19,-24,-14,-24
14,-58,-73,21,43,-65,-19,9,-24,-24,-14,-24
14,-53,-68,19,41,-61,-19,9,-24,-24,-14,-29
14,-48,-63,17,39,-56,-19,9,-24,-24,-14,-29
14,-48,-63,17,39,-56,-14,19,-29,-19,-14,-24
14,-48,-63,17,39,-56,-14,19,-29,-24,-9,-14
19,-43,-63,12,41,-53,-19,14,-24,-24,-4,-9
19,-43,-63,12,41,-53,-19,14,-19,-24,0,-4
14,-43,-58,14,36,-51,-19,9,-24,-19,-4,-9
14,-53,-68,19,41,-61,-19,14,-24,-19,-4,-14
14,-53,-68,19,41,-61,-19,14,-24,-19,-4,-19
14,-53,-68,19,41,-61,-19,14,-24,-19,0,-24
24,-53,-78,14,51,-65,-24,14,-24,-29,-9,-14
24,-53,-78,14,51,-65,-24,4,-29,-29,-14,-9
24,-48,-73,12,48,-61,-24,4,-29,-29,-14,-9
24,-43,-68,9,46,-56,-24,4,-29,-29,-14,-9
24,-53,-78,14,51,-65,-14,14,-24,-24,-14,-4
24,-58,-82,17,53,-70,-19,14,-24,-19,-9,-4
24,-58,-82,17,53,-70,-19,19,-19,-14,-4,0
24,-63,-87,19,56,-75,-19,19,-19,-9,0,0
39,-48,-87,4,63,-68,-29,14,-29,-14,-14,-4
39,-39,-78,0,58,-58,-29,9,-29,-24,-14,-9
39,-34,-73,-2,56,-53,-29,4,-29,-29,-14,-19
39,-29,-68,-4,53,-48,-29,0,-29,-34,-14,-24
29,-39,-68,4,48,-53,-29,9,-29,-24,-14,-19
34,-39,-73,2,53,-56,-29,9,-29,-24,-4,-9
34,-39,-73,2,53,-56,-29,9,-29,-24,-4,-4
34,-39,-73,2,53,-56,-29,9,-29,-24,-4,0
34,-48,-82,7,58,-65,-19,9,-19,-24,-4,-9
39,-48,-87,4,63,-68,-29,9,-24,-24,-4,-9
39,-39,-78,0,58,-58,-29,9,-29,-24,-4,-9
39,-39,-78,0,58,-58,-29,9,-29,-19,-4,-9
43,-29,-73,-7,58,-51,-34,0,-39,-19,-14,-19
43,-29,-73,-7,58,-51,-34,0,-39,-19,-19,-19
43,-34,-78,-4,61,-56,-39,0,-34,-19,-19,-19
48,-34,-82,-7,65,-58,-39,0,-34,-19,-14,-14
39,-39,-78,0,58,-58,-34,9,-24,-9,-9,-4
39,-43,-82,2,61,-63,-29,9,-24,-9,-4,-4
39,-53,-92,7,65,-73,-24,9,-29,-14,-4,-4
39,-58,-97,9,68,-78,-19,9,-29,-14,0,-4
39,-43,-82,2,61,-63,-29,9,-29,-14,9,-4
39,-24,-63,-7,51,-43,-29,0,-29,-14,0,0
34,-14,-48,-9,41,-31,-29,0,-29,-14,0,0
39,-19,-58,-9,48,-39,-39,0,-39,-19,-9,-9
39,-34,-73,-2,56,-53,-29,0,-39,-19,-9,-9
39,-39,-78,0,58,-58,-29,0,-39,-19,-9,-9
39,-43,-82,2,61,-63,-29,0,-39,-19,-9,-9
39,-48,-87,4,63,-68,-29,0,-39,-19,-9,-9
48,-39,-87,-4,68,-63,-39,0,-29,-19,-9,-4
48,-39,-87,-4,68,-63,-39,0,-29,-19,-9,-4
48,-34,-82,-7,65,-58,-43,0,-34,-19,-9,-9
48,-34,-82,-7,65,-58,-43,0,-34,-19,-9,-9
39,-39,-78,0,58,-58,-29,4,-24,-14,-4,-4
39,-48,-87,4,63,-68,-29,9,-19,-9,0,0
39,-53,-92,7,65,-73,-29,14,-19,-4,4,9
39,-58,-97,9,68,-78,-29,19,-19,0,9,14
48,-43,-92,-2,70,-68,-39,9,-29,-9,0,9
48,-29,-78,-9,63,-53,-34,9,-29,-9,0,4
48,-39,-87,-4,68,-63,-34,9,-29,-9,0,0
48,-43,-92,-2,70,-68,-34,9,-29,-4,0,-4
58,-43,-102,-7,80,-73,-24,14,-19,-14,0,4
58,-43,-102,-7,80,-73,-29,14,-19,-14,0,4
58,-43,-102,-7,80,-73,-29,14,-19,-14,0,4
63,-34,-97,-14,80,-65,-29,19,-19,-14,4,9
53,-19,-73,-17,63,-46,-29,19,-24,-9,9,9
53,-19,-73,-17,63,-46,-29,24,-24,-4,9,9
53,-19,-73,-17,63,-46,-29,24,-29,0,4,4
63,-14,-78,-24,70,-46,-34,24,-29,0,4,4
68,-29,-97,-19,82,-63,-34,34,-29,-9,4,4
68,-29,-97,-19,82,-63,-39,34,-24,-4,4,9
68,-29,-97,-19,82,-63,-39,34,-19,4,19,14
63,-24,-87,-19,75,-56,-34,39,-14,9,24,19
63,-4,-68,-29,65,-36,-34,29,-4,14,24,24
63,0,-63,-31,63,-31,-34,29,0,19,29,29
63,9,-53,-36,58,-21,-34,29,9,29,39,34
63,14,-48,-39,56,-17,-34,39,24,43,58,48
78,24,-53,-51,65,-14,-39,39,43,58,68,58
82,48,-34,-65,58,7,-53,43,43,63,73,73
92,58,-34,-75,63,12,-68,43,39,63,78,73
97,58,-39,-78,68,9,-78,43,39,63,78,73
97,58,-39,-78,68,9,-78,34,14,48,68,68
92,58,-34,-75,63,12,-92,29,0,39,58,63
97,58,-39,-78,68,9,-102,24,-4,34,58,63
97,73,-24,-85,61,24,-107,19,-9,34,58,68
107,82,-24,-95,65,29,-102,19,0,39,63,73
117,97,-19,-107,68,39,-112,9,0,39,68,82
126,117,-9,-122,68,53,-122,4,-9,39,68,82
141,112,-29,-126,85,41,-131,-9,-19,19,63,78
131,122,-9,-126,70,56,-151,-34,-48,4,43,63
136,117,-19,-126,78,48,-156,-39,-68,-9,29,48
136,107,-29,-122,82,39,-156,-39,-73,-14,24,43
141,97,-43,-119,92,26,-161,-34,-78,-19,24,43
141,87,-53,-114,97,17,-156,-24,-78,-14,24,48
146,97,-48,-122,97,24,-156,-24,-78,-14,19,48
151,102,-48,-126,100,26,-165,-29,-92,-19,14,48
156,102,-53,-129,104,24,-165,-39,-92,-29,9,48
161,122,-39,-141,100,41,-175,-53,-97,-39,-4,39
161,122,-39,-141,100,41,-175,-53,-97,-39,-9,39
156,122,-34,-139,95,43,-170,-53,-97,-39,-9,39
151,117,-34,-134,92,41,-156,-48,-82,-34,0,43
151,126,-24,-139,87,51,-141,-43,-82,-34,4,48
146,131,-14,-139,80,58,-136,-34,-73,-19,9,53
146,131,-14,-139,80,58,-126,-24,-63,-19,14,58
136,122,-14,-129,75,53,-117,-14,-53,-4,24,68
122,102,-19,-112,70,41,-97,14,-34,19,34,63
122,92,-29,-107,75,31,-87,24,-24,19,39,63
122,73,-48,-97,85,12,-73,24,-19,14,43,53
97,39,-58,-68,78,-9,-58,19,-19,14,39,43
97,29,-68,-63,82,-19,-58,4,-29,4,19,29
87,19,-68,-53,78,-24,-58,-4,-34,0,14,19
78,0,-78,-39,78,-39,-48,-9,-34,-9,9,19
68,0,-68,-34,68,-34,-43,-9,-34,-9,4,14
58,-19,-78,-19,68,-48,-48,-14,-43,-14,0,9
48,-34,-82,-7,65,-58,-39,-14,-43,-19,-9,-4
43,-48,-92,2,68,-70,-34,-14,-43,-24,-14,-9
34,-48,-82,7,58,-65,-34,-14,-43,-24,-14,-14
34,-63,-97,14,65,-80,-34,-14,-48,-19,-9,-4
34,-68,-102,17,68,-85,-29,-14,-48,-19,-9,-4
34,-68,-102,17,68,-85,-29,-9,-43,-14,-9,-4
34,-68,-102,17,68,-85,-29,-9,-43,-14,-4,0
39,-63,-102,12,70,-82,-19,-9,-43,-19,-14,-9
39,-63,-102,12,70,-82,-19,-9,-43,-19,-14,-9
39,-63,-102,12,70,-82,-19,-9,-43,-19,-14,-9
39,-58,-97,9,68,-78,-19,-9,-43,-19,-14,-9
39,-48,-87,4,63,-68,-29,-9,-34,-19,-14,-9
39,-53,-92,7,65,-73,-24,-9,-34,-19,-9,-4
39,-53,-92,7,65,-73,-24,-9,-34,-19,-9,-4
34,-63,-97,14,65,-80,-24,-9,-34,-19,-9,-4
43,-63,-107,9,75,-85,-9,-4,-34,-19,-9,-4
39,-48,-87,4,63,-68,-14,-9,-34,-14,-9,-4
39,-43,-82,2,61,-63,-14,4,-29,0,-4,9
39,-39,-78,0,58,-58,-4,29,0,24,14,29
39,-24,-63,-7,51,-43,9,63,34,58,68,68
43,-4,-48,-19,46,-26,24,117,87,117,117,112
58,14,-43,-36,51,-14,34,161,126,175,170,161
82,34,-48,-58,65,-7,29,200,146,209,214,204
102,63,-39,-82,70,12,19,229,151,244,263,263
141,122,-19,-131,80,51,-19,263,161,287,336,361
209,195,-14,-202,112,90,-58,297,165,336,395,448
273,273,0,-273,136,136,-112,326,175,390,468,546
312,351,39,-331,136,195,-156,375,190,448,556,653
390,448,58,-419,165,253,-200,434,204,512,639,766
502,546,43,-524,229,295,-244,541,229,600,756,902
624,629,4,-627,309,317,-297,707,273,722,883,1054
785,736,-48,-761,417,344,-370,878,322,849,1029,1224
941,863,-78,-902,509,392,-439,1019,375,966,1176,1376
1102,971,-131,-1037,617,419,-512,1141,400,1068,1283,1507
1283,1073,-209,-1178,746,431,-614,1190,375,1102,1361,1605
1454,1205,-248,-1329,851,478,-756,1190,287,1088,1390,1683
1600,1361,-239,-1481,919,561,-893,1122,180,1034,1390,1747
1751,1512,-239,-1632,995,636,-1039,1010,48,936,1351,1761
1883,1668,-214,-1776,1049,727,-1200,839,-122,805,1278,1761
1966,1820,-146,-1893,1056,836,-1346,629,-283,649,1185,1747
1986,1912,-73,-1949,1029,919,-1434,444,-400,507,1083,1688
1912,1981,68,-1947,922,1024,-1468,239,-507,361,951,1586
1771,1927,156,-1849,807,1041,-1454,4,-639,161,751,1390
1620,1678,58,-1649,780,868,-1361,-190,-766,-92,444,1034
1415,1312,-102,-1363,758,605,-1180,-361,-858,-351,78,595
1068,946,-122,-1007,595,412,-956,-590,-897,-590,-263,170
712,570,-141,-641,427,214,-707,-790,-897,-775,-531,-200
458,229,-229,-344,344,0,-473,-819,-839,-844,-683,-448
297,4,-292,-151,295,-143,-307,-736,-751,-814,-707,-556
165,-146,-312,-9,239,-229,-180,-649,-678,-766,-712,-605
53,-278,-331,112,192,-305,-68,-551,-610,-732,-712,-649
-39,-380,-341,209,151,-361,58,-448,-497,-658,-678,-653
-117,-434,-317,275,100,-375,146,-336,-390,-546,-575,-585
-165,-434,-268,300,51,-351,190,-253,-287,-424,-468,-497
-185,-419,-234,302,24,-326,214,-185,-214,-341,-375,-409
-175,-405,-229,290,26,-317,214,-117,-165,-263,-312,-341
-131,-361,-229,246,48,-295,204,-63,-117,-200,-253,-283
-107,-302,-195,204,43,-248,190,-39,-87,-170,-214,-239
-92,-258,-165,175,36,-212,165,-24,-78,-146,-190,-229
-92,-239,-146,165,26,-192,165,-9,-63,-126,-175,-209
-97,-224,-126,161,14,-175,165,-9,-53,-107,-151,-190
-92,-204,-112,148,9,-158,165,-9,-34,-102,-136,-180
-82,-190,-107,136,12,-148,151,-4,-24,-78,-117,-165
-78,-200,-122,139,21,-161,151,-4,0,-53,-97,-136
-78,-219,-141,148,31,-180,141,-4,4,-39,-73,-117
-78,-185,-107,131,14,-146,122,-14,14,-39,-78,-107
-82,-141,-58,112,-12,-100,102,-19,19,-34,-73,-102
-73,-146,-73,109,0,-109,107,-4,29,-14,-53,-82
-73,-136,-63,104,-4,-100,97,-14,19,-24,-63,-92
-73,-141,-68,107,-2,-104,92,-14,19,-24,-63,-87
-68,-141,-73,104,2,-107,92,-14,19,-24,-63,-82
-68,-146,-78,107,4,-112,92,-14,24,-19,-58,-82
-63,-141,-78,102,7,-109,92,0,34,-4,-53,-68
-63,-141,-78,102,7,-109,87,0,39,-4,-48,-68
-63,-136,-73,100,4,-104,82,-4,39,-4,-39,-68
-63,-131,-68,97,2,-100,82,-4,39,0,-29,-68
-58,-126,-68,92,4,-97,73,-14,29,0,-39,-63
-58,-122,-63,90,2,-92,73,-14,34,0,-39,-58
-58,-117,-58,87,0,-87,78,-14,34,0,-39,-53
-58,-112,-53,85,-2,-82,82,-9,34,4,-34,-53
-63,-117,-53,90,-4,-85,92,0,34,4,-29,-63
-63,-117,-53,90,-4,-85,87,0,34,9,-29,-63
-58,-122,-63,90,2,-92,87,0,39,9,-34,-63
-58,-122,-63,90,2,-92,82,0,39,9,-34,-63
-68,-117,-48,92,-9,-82,82,-9,39,4,-24,-53
-68,-117,-48,92,-9,-82,82,-9,39,4,-19,-53
-68,-117,-48,92,-9,-82,82,-9,39,9,-19,-53
-68,-117,-48,92,-9,-82,87,-9,39,9,-19,-48
-58,-122,-63,90,2,-92,87,-9,39,0,-19,-58
-58,-122,-63,90,2,-92,87,-9,43,0,-19,-58
-58,-112,-53,85,-2,-82,87,-9,43,0,-19,-58
-58,-112,-53,85,-2,-82,82,-14,43,0,-14,-58
-58,-112,-53,85,-2,-82,82,-14,53,9,-14,-48
-63,-112,-48,87,-7,-80,82,-14,53,9,-14,-48
-68,-112,-43,90,-12,-78,87,-14,53,9,-14,-48
-68,-117,-48,92,-9,-82,87,-14,53,9,-14,-48
-68,-117,-48,92,-9,-82,97,-14,53,9,-24,-58
-68,-117,-48,92,-9,-82,97,-4,58,14,-24,-58
-68,-117,-48,92,-9,-82,97,-4,63,14,-24,-53
-73,-117,-43,95,-14,-80,97,-4,63,14,-19,-53
-82,-122,-39,102,-21,-80,107,0,68,14,-9,-43
-82,-122,-39,102,-21,-80,107,0,68,14,-9,-43
-82,-126,-43,104,-19,-85,107,0,73,19,-9,-48
-82,-131,-48,107,-17,-90,112,0,73,19,-9,-48
-87,-141,-53,114,-17,-97,102,0,68,19,-9,-48
-87,-141,-53,114,-17,-97,102,0,68,19,-4,-48
-82,-141,-58,112,-12,-100,102,0,68,24,-4,-48
-82,-141,-58,112,-12,-100,102,0,68,24,-9,-48
-73,-117,-43,95,-14,-80,92,-9,63,19,-19,-48
-78,-107,-29,92,-24,-68,92,-9,63,19,-19,-48
-82,-102,-19,92,-31,-61,92,-9,68,24,-14,-43
-87,-97,-9,92,-39,-53,92,-4,68,24,-14,-43
-97,-107,-9,102,-43,-58,107,4,78,24,-4,-43
-97,-107,-9,102,-43,-58,107,4,78,29,-4,-39
-97,-107,-9,102,-43,-58,107,4,82,29,0,-39
-97,-112,-14,104,-41,-63,107,4,82,29,0,-39
-87,-107,-19,97,-34,-63,92,0,73,24,-14,-48
-92,-102,-9,97,-41,-56,92,-4,78,24,-14,-48
-97,-97,0,97,-48,-48,102,-4,78,29,-4,-48
-102,-87,14,95,-58,-36,102,-9,78,29,-4,-48
-102,-102,0,102,-51,-51,112,-4,87,43,-4,-48
-102,-107,-4,104,-48,-56,112,-4,87,43,-4,-48
-107,-112,-4,109,-51,-58,112,-4,87,43,-4,-48
-107,-117,-9,112,-48,-63,112,-4,87,39,-4,-48
-107,-126,-19,117,-43,-73,122,4,92,39,-4,-48
-112,-122,-9,117,-51,-65,122,4,92,43,-4,-48
-117,-122,-4,119,-56,-63,126,4,92,43,-9,-48
-122,-122,0,122,-61,-61,126,4,92,43,-9,-48
-136,-117,19,126,-78,-48,122,-4,97,43,-4,-39
-136,-117,19,126,-78,-48,122,-4,102,43,-4,-39
-136,-107,29,122,-82,-39,122,-4,102,43,-4,-48
-141,-97,43,119,-92,-26,126,-4,102,39,-9,-48
-141,-102,39,122,-90,-31,126,-4,102,48,-9,-58
-146,-102,43,124,-95,-29,131,-4,102,43,-9,-58
-146,-97,48,122,-97,-24,131,-9,102,43,-9,-58
-156,-97,58,126,-107,-19,131,-14,107,48,-9,-58
-170,-102,68,136,-119,-17,141,-14,112,48,-9,-58
-175,-102,73,139,-124,-14,141,-14,112,48,-9,-58
-180,-102,78,141,-129,-12,146,-19,117,48,-14,-68
-180,-107,73,143,-126,-17,156,-19,122,53,-14,-73
-175,-107,68,141,-122,-19,146,-9,122,53,-14,-73
-180,-107,73,143,-126,-17,146,-14,122,53,-14,-73
-190,-107,82,148,-136,-12,151,-14,122,48,-14,-78
-204,-107,97,156,-151,-4,156,-24,126,48,-19,-78
-204,-97,107,151,-156,4,156,-24,126,39,-19,-78
-214,-97,117,156,-165,9,156,-29,126,39,-19,-82
-219,-102,117,161,-168,7,161,-34,136,39,-19,-82
-224,-102,122,163,-173,9,161,-34,136,39,-24,-87
-239,-92,146,165,-192,26,161,-48,136,39,-34,-97
-248,-92,156,170,-202,31,161,-48,136,39,-34,-102
-263,-92,170,178,-217,39,170,-48,146,39,-43,-107
-273,-87,185,180,-229,48,175,-58,146,39,-48,-112
-273,-97,175,185,-224,39,175,-58,146,34,-48,-117
-273,-97,175,185,-224,39,180,-63,146,29,-53,-126
-287,-102,185,195,-236,41,185,-68,151,29,-58,-131
-302,-107,195,204,-248,43,190,-78,156,29,-58,-136
-317,-117,200,217,-258,41,204,-97,165,24,-53,-131
-331,-117,214,224,-273,48,214,-102,165,19,-63,-146
-346,-117,229,231,-287,56,214,-107,170,14,-63,-151
-361,-122,239,241,-300,58,214,-117,175,14,-73,-165
-356,-112,244,234,-300,65,219,-126,165,9,-87,-170
-370,-112,258,241,-314,73,224,-131,170,4,-92,-180
-390,-112,278,251,-334,82,229,-146,170,0,-92,-185
-395,-112,283,253,-339,85,234,-156,170,-4,-102,-195
-414,-126,287,270,-351,80,239,-165,175,-4,-102,-204
-429,-126,302,278,-366,87,244,-175,175,-9,-107,-209
-444,-131,312,287,-378,90,248,-180,180,-14,-117,-219
-458,-136,322,297,-390,92,258,-190,180,-14,-126,-229
-458,-136,322,297,-390,92,263,-200,175,-24,-141,-229
-468,-136,331,302,-400,97,268,-209,175,-24,-146,-239
-478,-146,331,312,-405,92,273,-219,175,-29,-146,-248
-488,-156,331,322,-409,87,273,-224,175,-34,-151,-258
-502,-165,336,334,-419,85,278,-224,175,-39,-161,-278
-512,-165,346,339,-429,90,283,-239,170,-48,-175,-292
-517,-170,346,344,-431,87,287,-248,170,-53,-175,-297
-527,-175,351,351,-439,87,287,-253,180,-53,-180,-307
-541,-185,356,363,-448,85,302,-253,190,-48,-190,-307
-546,-185,361,366,-453,87,302,-263,185,-58,-195,-317
-551,-190,361,370,-456,85,302,-268,185,-63,-200,-322
-551,-190,361,370,-456,85,312,-268,185,-63,-200,-322
-551,-204,346,378,-448,70,302,-278,185,-68,-200,-331
-551,-204,346,378,-448,70,302,-283,185,-73,-204,-336
-551,-204,346,378,-448,70,302,-287,180,-82,-214,-341
-551,-209,341,380,-446,65,297,-287,180,-87,-214,-346
-551,-204,346,378,-448,70,297,-287,175,-87,-219,-346
-551,-200,351,375,-451,75,297,-287,170,-92,-219,-351
-551,-195,356,373,-453,80,297,-287,165,-92,-219,-351
-546,-190,356,368,-451,82,297,-278,156,-92,-219,-351
-536,-214,322,375,-429,53,297,-268,161,-82,-219,-341
-517,-214,302,366,-409,43,292,-263,161,-82,-219,-336
-502,-224,278,363,-390,26,287,-253,156,-82,-219,-331
-488,-234,253,361,-370,9,287,-248,161,-82,-219,-331
-478,-229,248,353,-363,9,283,-244,146,-82,-204,-331
-468,-229,239,348,-353,4,273,-239,141,-82,-204,-331
-458,-224,234,341,-346,4,268,-234,141,-82,-204,-322
-453,-219,234,336,-344,7,263,-219,136,-82,-195,-312
-419,-214,204,317,-312,-4,248,-224,122,-87,-200,-312
-409,-214,195,312,-302,-9,239,-209,122,-87,-195,-307
-395,-209,185,302,-290,-12,234,-200,117,-82,-195,-302
-375,-204,170,290,-273,-17,219,-195,112,-82,-195,-302
-351,-195,156,273,-253,-19,209,-175,112,-73,-175,-292
-341,-190,151,265,-246,-19,200,-165,107,-68,-165,-268
-322,-190,131,256,-226,-29,195,-156,102,-58,-161,-253
-302,-190,112,246,-207,-39,190,-146,97,-48,-156,-239
-278,-185,92,231,-185,-46,175,-151,82,-58,-151,-234
-253,-180,73,217,-163,-53,165,-131,82,-48,-146,-224
-234,-180,53,207,-143,-63,156,-122,82,-43,-131,-209
-214,-175,39,195,-126,-68,146,-112,78,-34,-122,-204
-200,-161,39,180,-119,-61,136,-92,73,-43,-112,-190
-185,-156,29,170,-107,-63,131,-82,68,-39,-107,-180
-170,-151,19,161,-95,-65,122,-78,63,-34,-97,-170
-146,-141,4,143,-75,-68,112,-68,53,-29,-87,-156
-126,-146,-19,136,-53,-82,107,-58,48,-24,-87,-136
-112,-131,-19,122,-46,-75,92,-48,48,-24,-73,-117
-102,-126,-24,114,-39,-75,87,-39,43,-19,-73,-112
-87,-117,-29,102,-29,-73,78,-34,39,-19,-63,-107
-78,-117,-39,97,-19,-78,63,-29,39,-4,-53,-102
-73,-107,-34,90,-19,-70,58,-14,34,0,-48,-87
-63,-92,-29,78,-17,-61,48,-9,29,4,-48,-73
-43,-87,-43,65,0,-65,43,-4,29,9,-34,-63
-24,-92,-68,58,21,-80,34,0,29,4,-29,-58
-14,-87,-73,51,29,-80,24,9,24,9,-24,-48
4,-78,-82,36,43,-80,24,14,24,9,-19,-43
9,-87,-97,39,53,-92,19,24,24,19,-9,-29
4,-82,-87,39,46,-85,19,24,34,19,0,-19
9,-68,-78,29,43,-73,14,24,29,24,0,-14
19,-63,-82,21,51,-73,9,24,29,24,0,-14
24,-53,-78,14,51,-65,9,24,29,34,9,0
43,-58,-102,7,73,-80,4,29,29,43,14,4
48,-48,-97,0,73,-73,0,34,24,43,14,9
53,-48,-102,-2,78,-75,0,39,24,43,19,9
53,-48,-102,-2,78,-75,-4,43,24,43,19,19
53,-48,-102,-2,78,-75,-14,53,24,34,14,24
53,-48,-102,-2,78,-75,-14,58,24,39,19,24
58,-43,-102,-7,80,-73,-19,58,24,39,19,29
58,-34,-92,-12,75,-63,-24,58,24,43,19,29
68,-34,-102,-17,85,-68,-24,58,24,43,34,29
78,-29,-107,-24,92,-68,-24,58,29,48,39,34
78,-29,-107,-24,92,-68,-19,58,29,48,39,39
78,-29,-107,-24,92,-68,-19,58,24,48,39,43
73,-34,-107,-19,90,-70,-14,63,24,58,39,43
73,-34,-107,-19,90,-70,-14,63,24,58,43,48
68,-34,-102,-17,85,-68,-14,63,24,58,43,48
68,-29,-97,-19,82,-63,-14,63,24,58,43,43
78,-29,-107,-24,92,-68,-14,73,24,68,43,43
73,-29,-102,-21,87,-65,-14,73,24,68,43,43
73,-29,-102,-21,87,-65,-14,73,29,68,43,48
73,-34,-107,-19,90,-70,-14,73,29,73,53,48
73,-34,-107,-19,90,-70,-19,63,29,63,53,48
73,-34,-107,-19,90,-70,-19,68,29,63,48,48
73,-34,-107,-19,90,-70,-19,68,29,63,48,43
73,-34,-107,-19,90,-70,-19,63,29,63,48,43
68,-19,-87,-24,78,-53,-9,63,29,63,48,43
68,-19,-87,-24,78,-53,-9,63,29,63,53,48
68,-19,-87,-24,78,-53,-9,63,29,63,53,48
68,-19,-87,-24,78,-53,-9,58,34,63,48,48
58,-19,-78,-19,68,-48,-9,58,34,63,48,53
53,-24,-78,-14,65,-51,-9,58,34,63,53,53
48,-24,-73,-12,61,-48,-9,58,34,63,53,48
48,-24,-73,-12,61,-48,-9,53,34,63,53,48
39,-34,-73,-2,56,-53,-4,63,39,73,63,58
34,-39,-73,2,53,-56,-4,63,43,73,63,58
29,-39,-68,4,48,-53,0,58,48,73,63,58
29,-43,-73,7,51,-58,0,58,53,73,63,58
29,-48,-78,9,53,-63,9,58,43,73,53,53
29,-48,-78,9,53,-63,9,58,43,73,53,53
29,-48,-78,9,53,-63,9,53,43,73,48,53
19,-48,-68,14,43,-58,9,53,43,73,48,53
29,-48,-78,9,53,-63,0,39,43,73,53,43
24,-43,-68,9,46,-56,0,39,43,68,53,39
24,-43,-68,9,46,-56,0,39,43,68,53,39
19,-48,-68,14,43,-58,4,34,43,68,53,39
19,-48,-68,14,43,-58,-4,24,34,58,39,34
19,-43,-63,12,41,-53,-4,24,34,58,39,34
9,-39,-48,14,29,-43,0,24,39,58,43,39
9,-34,-43,12,26,-39,0,19,39,58,43,39
4,-48,-53,21,29,-51,9,19,48,68,43,39
4,-53,-58,24,31,-56,14,24,48,68,48,39
4,-53,-58,24,31,-56,14,29,48,63,48,43
4,-58,-63,26,34,-61,9,29,48,63,53,48
0,-58,-58,29,29,-58,19,29,48,63,48,48
0,-63,-63,31,31,-63,19,29,48,63,48,43
0,-73,-73,36,36,-73,24,24,48,63,48,43
0,-73,-73,36,36,-73,24,24,48,63,48,43
0,-68,-68,34,34,-68,24,24,48,58,39,43
0,-63,-63,31,31,-63,24,24,48,58,39,39
-4,-58,-53,31,24,-56,29,19,48,58,34,39
-9,-53,-43,31,17,-48,29,19,48,58,34,39
-9,-53,-43,31,17,-48,19,19,39,43,29,24
-4,-58,-53,31,24,-56,19,19,39,43,29,24
-4,-58,-53,31,24,-56,19,19,39,43,29,24
-9,-58,-48,34,19,-53,19,19,39,39,29,24
-9,-48,-39,29,14,-43,9,4,29,39,29,24
-9,-48,-39,29,14,-43,9,4,29,39,29,24
-9,-48,-39,29,14,-43,4,4,24,39,29,24
-9,-48,-39,29,14,-43,4,4,24,39,29,24
-9,-58,-48,34,19,-53,14,14,34,39,19,24
-9,-63,-53,36,21,-58,14,14,29,39,24,24
-14,-68,-53,41,19,-61,19,14,29,39,24,24
-14,-68,-53,41,19,-61,19,14,34,39,19,24
-9,-68,-58,39,24,-63,19,9,24,43,29,29
-9,-68,-58,39,24,-63,19,9,29,43,29,29
-9,-68,-58,39,24,-63,19,9,29,43,29,29
-9,-68,-58,39,24,-63,19,9,29,43,29,29
-9,-68,-58,39,24,-63,9,9,29,34,24,24
-4,-68,-63,36,29,-65,9,9,24,34,24,24
-4,-63,-58,34,26,-61,9,9,24,34,24,19
-4,-58,-53,31,24,-56,9,9,24,34,24,19
-4,-48,-43,26,19,-46,4,0,24,29,9,9
-4,-48,-43,26,19,-46,4,0,19,24,9,14
0,-43,-43,21,21,-43,0,-4,19,24,9,14
0,-43,-43,21,21,-43,0,-4,19,24,9,14
4,-43,-48,19,26,-46,0,0,14,29,4,14
4,-53,-58,24,31,-56,0,4,14,29,4,14
4,-53,-58,24,31,-56,0,4,14,29,4,14
4,-53,-58,24,31,-56,0,4,14,29,9,14
4,-63,-68,29,36,-65,4,4,24,29,9,4
4,-63,-68,29,36,-65,4,-4,19,29,4,9
4,-58,-63,26,34,-61,4,-4,19,29,4,9
4,-53,-58,24,31,-56,4,-4,19,29,4,9
14,-53,-68,19,41,-61,4,-4,14,29,9,4
14,-58,-73,21,43,-65,0,-4,14,29,9,4
14,-58,-73,21,43,-65,0,0,19,29,9,9
14,-63,-78,24,46,-70,0,0,19,29,9,9
9,-53,-63,21,36,-58,0,0,9,29,14,9
9,-48,-58,19,34,-53,0,0,9,24,14,9
9,-48,-58,19,34,-53,0,0,9,24,14,4
9,-48,-58,19,34,-53,0,0,9,24,14,4
9,-53,-63,21,36,-58,0,0,9,24,4,14
14,-58,-73,21,43,-65,0,0,9,24,14,19
14,-63,-78,24,46,-70,0,0,9,24,14,19
14,-68,-82,26,48,-75,0,0,9,24,14,19
14,-68,-82,26,48,-75,0,9,19,24,14,9
19,-68,-87,24,53,-78,-9,9,14,24,14,9
19,-58,-78,19,48,-68,-9,9,9,24,14,9
19,-58,-78,19,48,-68,-9,9,9,29,14,9
14,-68,-82,26,48,-75,-4,9,9,39,24,19
14,-68,-82,26,48,-75,-4,9,9,39,19,19
14,-73,-87,29,51,-80,-9,9,14,39,19,19
19,-73,-92,26,56,-82,-9,9,14,39,24,24
19,-58,-78,19,48,-68,-9,0,14,29,14,24
19,-53,-73,17,46,-63,-9,0,14,29,14,24
19,-53,-73,17,46,-63,-9,0,9,24,9,24
19,-48,-68,14,43,-58,-9,0,9,24,9,24
9,-43,-53,17,31,-48,-19,0,0,24,9,14
9,-43,-53,17,31,-48,-19,0,0,24,9,9
14,-43,-58,14,36,-51,-19,0,0,24,9,9
14,-39,-53,12,34,-46,-19,0,0,24,9,9
19,-48,-68,14,43,-58,-9,9,0,24,9,9
24,-53,-78,14,51,-65,-9,9,0,24,9,9
29,-58,-87,14,58,-73,-9,9,0,24,9,9
34,-58,-92,12,63,-75,-9,9,0,24,9,9
24,-53,-78,14,51,-65,-9,9,0,34,9,19
24,-48,-73,12,48,-61,-14,9,0,34,9,19
24,-48,-73,12,48,-61,-14,9,0,34,9,24
29,-48,-78,9,53,-63,-14,9,0,34,9,24
29,-48,-78,9,53,-63,-9,9,9,24,9,14
34,-53,-87,9,61,-70,-19,19,4,24,9,14
24,-53,-78,14,51,-65,-14,9,-4,24,9,14
14,-48,-63,17,39,-56,-14,0,0,24,9,14
29,-39,-68,4,48,-53,-19,9,0,19,9,9
29,-43,-73,7,51,-58,-9,9,0,29,9,19
29,-48,-78,9,53,-63,-9,9,0,29,9,19
29,-53,-82,12,56,-68,-9,9,0,29,9,19
29,-58,-87,14,58,-73,-9,9,0,29,9,19
29,-58,-87,14,58,-73,-19,0,0,19,9,24
29,-58,-87,14,58,-73,-19,0,0,19,9,24
29,-53,-82,12,56,-68,-24,0,-4,19,9,19
29,-53,-82,12,56,-68,-24,0,-4,19,9,19
39,-43,-82,2,61,-63,-29,9,-4,19,9,29
39,-48,-87,4,63,-68,-29,9,0,19,9,29
39,-48,-87,4,63,-68,-29,9,0,19,9,34
39,-48,-87,4,63,-68,-29,9,0,19,9,34
39,-53,-92,7,65,-73,-29,9,0,29,19,34
39,-39,-78,0,58,-58,-24,9,0,29,19,34
39,-48,-87,4,63,-68,-24,9,0,29,19,34
39,-53,-92,7,65,-73,-24,9,0,34,19,34
39,-48,-87,4,63,-68,-24,4,9,34,19,24
39,-43,-82,2,61,-63,-29,4,9,34,19,24
39,-39,-78,0,58,-58,-29,4,9,34,19,24
43,-24,-68,-9,56,-46,-29,9,9,34,24,29
53,-34,-87,-9,70,-61,-39,9,4,43,29,39
53,-39,-92,-7,73,-65,-39,14,4,43,29,39
53,-43,-97,-4,75,-70,-39,14,0,43,24,34
63,-43,-107,-9,85,-75,-43,14,0,39,24,34
58,-43,-102,-7,80,-73,-34,19,9,39,24,43
58,-39,-97,-9,78,-68,-39,24,14,43,24,48
58,-34,-92,-12,75,-63,-39,29,19,53,39,53
53,-24,-78,-14,65,-51,-34,39,24,58,43,58
63,-14,-78,-24,70,-46,-34,29,34,63,53,63
63,-9,-73,-26,68,-41,-34,29,39,68,58,68
63,0,-63,-31,63,-31,-34,29,48,78,68,73
63,4,-58,-34,61,-26,-34,39,63,92,87,87
68,14,-53,-41,61,-19,-48,39,73,97,87,87
73,39,-34,-56,53,2,-63,43,73,102,92,102
82,48,-34,-65,58,7,-78,43,68,102,97,102
87,48,-39,-68,63,4,-87,43,68,102,97,102
97,58,-39,-78,68,9,-107,24,48,87,87,97
102,58,-43,-80,73,7,-122,19,29,78,78,92
117,58,-58,-87,87,0,-131,14,19,73,78,92
126,73,-53,-100,90,9,-136,9,9,73,78,97
126,87,-39,-107,82,24,-131,9,19,78,73,92
126,107,-19,-117,73,43,-141,0,19,78,78,102
126,131,4,-129,61,68,-151,-4,9,78,78,102
131,131,0,-131,65,65,-161,-19,0,58,73,97
131,112,-19,-122,75,46,-170,-34,-29,34,43,82
136,97,-39,-117,87,29,-165,-39,-48,19,29,68
136,78,-58,-107,97,9,-156,-39,-53,14,24,63
141,58,-82,-100,112,-12,-151,-34,-58,9,24,63
151,63,-87,-107,119,-12,-151,-34,-58,14,34,68
156,78,-78,-117,117,0,-156,-34,-58,14,29,68
161,87,-73,-124,117,7,-170,-39,-73,9,24,68
165,92,-73,-129,119,9,-175,-48,-73,0,19,68
170,122,-48,-146,109,36,-185,-63,-78,-9,4,48
170,122,-48,-146,109,36,-185,-63,-78,-9,0,48
165,122,-43,-143,104,39,-180,-63,-78,-9,0,48
161,117,-43,-139,102,36,-165,-58,-63,-4,9,53
161,107,-53,-134,107,26,-151,-48,-43,4,19,68
156,112,-43,-134,100,34,-146,-34,-34,19,29,73
156,112,-43,-134,100,34,-136,-19,-24,19,39,78
146,102,-43,-124,95,29,-126,-4,-14,34,53,87
141,82,-58,-112,100,12,-112,4,-9,48,48,82
141,73,-68,-107,104,2,-107,14,-4,48,48,82
141,53,-87,-97,114,-17,-97,14,-4,43,48,73
117,19,-97,-68,107,-39,-87,9,-9,43,39,63
102,0,-102,-51,102,-51,-68,14,-9,34,29,48
87,-9,-97,-39,92,-53,-68,4,-14,29,24,39
73,-29,-102,-21,87,-65,-58,0,-14,19,19,39
58,-29,-87,-14,73,-58,-53,0,-14,19,14,34
48,-39,-87,-4,68,-63,-48,-14,-24,4,0,29
39,-53,-92,7,65,-73,-39,-14,-24,0,-9,14
34,-68,-102,17,68,-85,-34,-14,-24,-4,-14,9
24,-68,-92,21,58,-80,-34,-14,-24,-4,-14,4
34,-63,-97,14,65,-80,-43,-24,-29,-9,-9,4
34,-58,-92,12,63,-75,-39,-24,-29,-9,-9,4
34,-48,-82,7,58,-65,-39,-19,-24,-4,-9,4
34,-39,-73,2,53,-56,-39,-19,-24,-4,-4,9
39,-48,-87,4,63,-68,-39,-9,-24,0,-4,9
39,-53,-92,7,65,-73,-39,-9,-24,0,-4,9
39,-58,-97,9,68,-78,-39,-9,-24,0,-4,9
39,-58,-97,9,68,-78,-39,-9,-24,0,-4,9
39,-48,-87,4,63,-68,-39,-9,-24,0,-14,0
39,-53,-92,7,65,-73,-34,-9,-24,0,-9,4
39,-53,-92,7,65,-73,-34,-9,-24,0,-9,4
34,-63,-97,14,65,-80,-34,-9,-24,0,-9,4
24,-53,-78,14,51,-65,-29,-4,-14,9,0,14
39,-58,-97,9,68,-78,-34,0,-4,14,0,24
48,-53,-102,2,75,-78,-24,24,0,29,14,39
48,-58,-107,4,78,-82,4,58,29,63,43,68
39,-34,-73,-2,56,-53,9,102,73,107,97,107
43,14,-29,-29,36,-7,4,146,117,156,146,141
68,43,-24,-56,46,9,4,180,136,204,190,190
82,63,-19,-73,51,21,0,209,156,239,234,244
102,112,9,-107,46,61,-19,239,170,273,292,312
161,170,9,-165,75,90,-58,273,170,317,336,380
229,224,-4,-226,117,109,-97,326,175,366,405,468
302,263,-39,-283,170,112,-131,375,204,419,488,575
370,361,-9,-366,190,175,-185,424,200,468,566,663
439,468,29,-453,204,248,-239,492,214,531,639,766
561,556,-4,-558,283,275,-292,629,248,629,756,902
722,649,-73,-685,397,287,-356,814,283,751,893,1054
912,766,-146,-839,529,309,-439,976,312,858,1019,1185
1068,883,-185,-976,627,348,-507,1098,346,966,1137,1317
1249,961,-287,-1105,768,336,-600,1200,351,1019,1215,1420
1449,1073,-375,-1261,912,348,-732,1220,297,1034,1263,1507
1639,1224,-414,-1432,1027,405,-883,1171,200,1000,1273,1566
1795,1361,-434,-1578,1115,463,-1019,1073,82,927,1254,1590
1956,1493,-463,-1725,1210,514,-1166,941,-68,810,1195,1595
2088,1649,-439,-1869,1263,605,-1327,741,-248,649,1102,1566
2152,1771,-380,-1961,1266,695,-1454,522,-400,502,990,1512
2132,1825,-307,-1978,1220,758,-1522,307,-507,361,878,1415
2010,1825,-185,-1917,1098,819,-1527,73,-605,195,727,1293
1859,1703,-156,-1781,1007,773,-1483,-170,-736,-24,488,1049
1678,1415,-263,-1546,971,575,-1361,-356,-844,-268,180,692
1395,1068,-326,-1232,861,370,-1151,-536,-897,-478,-126,302
1000,712,-287,-856,644,212,-888,-775,-907,-688,-419,-53
634,366,-268,-500,451,48,-649,-917,-878,-824,-629,-336
400,102,-297,-251,348,-97,-453,-888,-800,-824,-702,-488
248,-63,-312,-92,280,-187,-307,-775,-702,-775,-697,-546
107,-195,-302,43,204,-248,-170,-678,-639,-736,-692,-575
-4,-326,-322,165,158,-324,-39,-570,-561,-683,-673,-600
-107,-409,-302,258,97,-356,87,-448,-439,-590,-610,-575
-165,-434,-268,300,51,-351,156,-346,-331,-468,-507,-507
-204,-424,-219,314,7,-322,180,-263,-248,-366,-419,-419
-214,-390,-175,302,-19,-283,195,-195,-185,-302,-346,-341
-185,-336,-151,261,-17,-244,185,-126,-136,-234,-283,-283
-151,-292,-141,222,-4,-217,165,-73,-107,-180,-224,-234
-136,-283,-146,209,4,-214,151,-48,-87,-151,-195,-200
-131,-268,-136,200,2,-202,146,-34,-78,-126,-170,-170
-122,-258,-136,190,7,-197,146,-29,-53,-107,-146,-161
-107,-244,-136,175,14,-190,146,-9,-34,-87,-131,-151
-112,-234,-122,173,4,-178,136,-9,-24,-73,-117,-131
-112,-209,-97,161,-7,-153,112,-24,-14,-58,-107,-117
-97,-180,-82,139,-7,-131,102,-34,-9,-53,-97,-107
-97,-151,-53,124,-21,-102,82,-34,-14,-48,-92,-97
-97,-136,-39,117,-29,-87,73,-24,-4,-39,-78,-87
-92,-141,-48,117,-21,-95,73,-19,19,-14,-63,-73
-82,-136,-53,109,-14,-95,68,-4,19,-4,-53,-63
-92,-122,-29,107,-31,-75,58,-14,19,-14,-53,-73
-92,-122,-29,107,-31,-75,53,-14,19,-14,-53,-68
-87,-117,-29,102,-29,-73,53,-14,19,-14,-53,-63
-87,-117,-29,102,-29,-73,53,-14,24,-9,-48,-63
-92,-112,-19,102,-36,-65,53,-19,14,-14,-58,-68
-92,-112,-19,102,-36,-65,48,-19,19,-14,-58,-68
-92,-107,-14,100,-39,-61,43,-24,19,-14,-53,-68
-92,-102,-9,97,-41,-56,43,-24,19,-9,-48,-68
-87,-117,-29,102,-29,-73,43,-19,29,0,-39,-63
-87,-122,-34,104,-26,-78,43,-14,34,0,-39,-58
-87,-126,-39,107,-24,-82,48,-9,34,0,-39,-53
-87,-131,-43,109,-21,-87,53,0,34,4,-34,-53
-92,-131,-39,112,-26,-85,53,-9,34,4,-29,-43
-92,-126,-34,109,-29,-80,48,-9,34,9,-29,-43
-87,-126,-39,107,-24,-82,48,-9,39,9,-34,-43
-87,-122,-34,104,-26,-78,43,-9,39,9,-34,-43
-78,-102,-24,90,-26,-63,34,-19,29,-4,-43,-43
-78,-97,-19,87,-29,-58,34,-19,29,-4,-39,-43
-78,-92,-14,85,-31,-53,34,-19,29,0,-39,-43
-78,-87,-9,82,-34,-48,39,-19,29,0,-39,-39
-82,-102,-19,92,-31,-61,39,-9,39,0,-29,-39
-87,-102,-14,95,-36,-58,39,-9,43,0,-29,-39
-92,-92,0,92,-46,-46,39,-9,43,0,-29,-39
-97,-92,4,95,-51,-43,34,-14,43,0,-24,-39
-87,-102,-14,95,-36,-58,34,-4,53,9,-24,-29
-92,-102,-9,97,-41,-56,34,-4,53,9,-24,-29
-97,-102,-4,100,-46,-53,39,-4,53,9,-24,-29
-97,-107,-9,102,-43,-58,39,-4,53,9,-24,-29
-97,-117,-19,107,-39,-68,43,-4,53,9,-14,-29
-97,-117,-19,107,-39,-68,48,4,58,14,-14,-29
-97,-117,-19,107,-39,-68,53,4,63,14,-14,-24
-102,-117,-14,109,-43,-65,58,4,63,14,-9,-24
-102,-117,-14,109,-43,-65,48,0,48,14,-19,-24
-102,-112,-9,107,-46,-61,48,0,48,14,-19,-24
-102,-112,-9,107,-46,-61,48,0,53,19,-19,-29
-102,-112,-9,107,-46,-61,53,0,53,19,-19,-29
-117,-112,4,114,-61,-53,53,0,58,19,-9,-19
-117,-112,4,114,-61,-53,53,0,58,19,-4,-19
-112,-112,0,112,-56,-56,53,0,58,24,-4,-19
-112,-112,0,112,-56,-56,53,0,58,24,-9,-19
-102,-92,9,97,-56,-41,53,0,63,19,-9,-19
-107,-87,19,97,-63,-34,53,0,63,19,-9,-19
-112,-87,24,100,-68,-31,53,0,68,24,-4,-14
-117,-87,29,102,-73,-29,53,4,68,24,-4,-14
-117,-97,19,107,-68,-39,58,4,68,24,-14,-19
-117,-97,19,107,-68,-39,58,4,68,29,-14,-19
-117,-97,19,107,-68,-39,58,4,73,29,-9,-24
-117,-102,14,109,-65,-43,58,4,73,29,-9,-29
-126,-102,24,114,-75,-39,63,14,73,34,-14,-19
-131,-102,29,117,-80,-36,63,14,78,34,-14,-19
-136,-102,34,119,-85,-34,73,19,78,39,-4,-19
-141,-97,43,119,-92,-26,73,19,78,39,-4,-19
-131,-97,34,114,-82,-31,63,14,78,34,-4,-19
-131,-97,34,114,-82,-31,63,14,78,34,-4,-19
-136,-97,39,117,-87,-29,63,14,78,34,-4,-19
-136,-97,39,117,-87,-29,63,14,78,29,-4,-19
-136,-92,43,114,-90,-24,53,9,82,29,-4,-19
-141,-82,58,112,-100,-12,53,4,82,34,-4,-19
-146,-78,68,112,-107,-4,58,0,82,34,-9,-19
-151,-73,78,112,-114,2,58,-4,82,34,-9,-19
-156,-82,73,119,-114,-4,73,0,87,43,4,-14
-156,-97,58,126,-107,-19,73,4,92,43,4,-9
-156,-102,53,129,-104,-24,73,9,92,43,4,-14
-161,-107,53,134,-107,-26,78,14,92,39,0,-9
-161,-92,68,126,-114,-12,78,24,92,39,0,-19
-165,-92,73,129,-119,-9,82,24,92,34,0,-19
-165,-87,78,126,-122,-4,82,19,92,34,0,-19
-175,-87,87,131,-131,0,82,14,97,39,0,-19
-185,-73,112,129,-148,19,82,14,102,48,0,-29
-195,-73,122,134,-158,24,82,14,102,48,0,-29
-204,-73,131,139,-168,29,87,9,107,48,-4,-39
-209,-78,131,143,-170,26,97,9,112,53,-4,-43
-204,-68,136,136,-170,34,87,0,102,48,-14,-43
-209,-68,141,139,-175,36,87,-4,102,43,-14,-43
-219,-68,151,143,-185,41,92,-4,102,34,-14,-48
-234,-68,165,151,-200,48,97,-14,107,29,-19,-48
-234,-78,156,156,-195,39,107,-4,117,39,-19,-48
-244,-78,165,161,-204,43,107,-9,117,39,-19,-53
-248,-82,165,165,-207,41,112,-14,126,39,-19,-53
-253,-82,170,168,-212,43,112,-14,126,39,-24,-58
-258,-92,165,175,-212,36,122,-19,136,39,-14,-48
-268,-92,175,180,-222,41,122,-19,136,39,-14,-53
-283,-92,190,187,-236,48,131,-19,146,39,-24,-58
-292,-87,204,190,-248,58,136,-29,146,39,-29,-63
-302,-87,214,195,-258,63,126,-39,146,34,-29,-68
-302,-87,214,195,-258,63,131,-43,146,29,-34,-78
-317,-92,224,204,-270,65,136,-48,151,29,-39,-82
-331,-97,234,214,-283,68,141,-58,156,29,-39,-87
-346,-87,258,217,-302,85,156,-68,146,34,-43,-82
-361,-87,273,224,-317,92,165,-73,146,29,-53,-97
-375,-87,287,231,-331,100,165,-78,151,24,-53,-102
-390,-92,297,241,-344,102,165,-87,156,24,-63,-117
-405,-102,302,253,-353,100,180,-87,165,9,-58,-122
-419,-102,317,261,-368,107,185,-92,170,4,-63,-131
-439,-102,336,270,-387,117,190,-107,170,0,-63,-136
-444,-102,341,273,-392,119,195,-117,170,-4,-73,-146
-453,-126,326,290,-390,100,200,-126,185,4,-73,-151
-468,-126,341,297,-405,107,204,-136,185,0,-78,-151
-483,-131,351,307,-417,109,209,-141,190,-4,-87,-156
-497,-136,361,317,-429,112,219,-151,190,-4,-97,-161
-507,-126,380,317,-444,126,224,-161,175,-24,-112,-170
-517,-126,390,322,-453,131,229,-170,175,-24,-117,-180
-527,-136,390,331,-458,126,234,-180,175,-29,-117,-190
-536,-146,390,341,-463,122,234,-185,175,-34,-122,-200
-551,-136,414,344,-483,139,229,-195,165,-39,-131,-209
-561,-136,424,348,-492,143,234,-209,161,-48,-146,-224
-566,-141,424,353,-495,141,239,-219,161,-53,-146,-229
-575,-146,429,361,-502,141,239,-224,170,-53,-151,-239
-580,-156,424,368,-502,134,253,-224,180,-48,-161,-244
-585,-156,429,370,-507,136,253,-234,175,-58,-165,-248
-590,-161,429,375,-509,134,253,-239,175,-63,-170,-248
-590,-161,429,375,-509,134,263,-239,175,-63,-170,-244
-590,-180,409,385,-500,114,253,-239,175,-63,-161,-253
-590,-185,405,387,-497,109,253,-244,175,-63,-165,-258
-590,-190,400,390,-495,104,253,-248,170,-68,-175,-263
-590,-200,390,395,-490,95,248,-248,170,-68,-175,-268
-590,-200,390,395,-490,95,258,-239,170,-68,-180,-268
-590,-200,390,395,-490,95,258,-239,170,-73,-180,-273
-590,-200,390,395,-490,95,258,-239,170,-73,-180,-273
-585,-200,385,392,-485,92,258,-229,165,-73,-180,-273
-575,-200,375,387,-475,87,248,-239,161,-87,-185,-278
-556,-185,370,370,-463,92,244,-234,151,-92,-190,-278
-541,-180,361,361,-451,90,239,-224,136,-97,-195,-278
-527,-175,351,351,-439,87,239,-219,131,-102,-200,-283
-522,-180,341,351,-431,80,234,-214,136,-92,-195,-273
-507,-190,317,348,-412,63,224,-209,131,-92,-195,-273
-492,-195,297,344,-395,51,219,-204,131,-92,-195,-263
-483,-200,283,341,-383,41,214,-190,126,-92,-185,-253
-458,-209,248,334,-353,19,209,-185,112,-87,-180,-253
-448,-214,234,331,-341,9,200,-170,112,-87,-175,-248
-434,-214,219,324,-326,2,195,-161,107,-82,-175,-244
-414,-214,200,314,-307,-7,180,-156,102,-82,-175,-244
-385,-200,185,292,-285,-7,165,-156,92,-87,-175,-248
-370,-190,180,280,-275,-4,151,-146,87,-87,-165,-229
-346,-185,161,265,-253,-12,141,-136,82,-82,-161,-219
-322,-180,141,251,-231,-19,131,-126,78,-78,-156,-209
-317,-165,151,241,-234,-7,126,-122,63,-87,-151,-200
-292,-161,131,226,-212,-14,117,-102,63,-78,-146,-185
-273,-161,112,217,-192,-24,107,-92,63,-73,-131,-165
-253,-156,97,204,-175,-29,97,-82,58,-63,-122,-156
-229,-156,73,192,-151,-41,87,-73,53,-63,-112,-146
-214,-156,58,185,-136,-48,82,-63,48,-58,-107,-141
-200,-156,43,178,-122,-56,73,-58,43,-53,-97,-136
-175,-151,24,163,-100,-63,63,-48,34,-48,-87,-126
-146,-136,9,141,-78,-63,39,-48,19,-53,-97,-117
-131,-122,9,126,-70,-56,24,-39,19,-53,-82,-97
-122,-117,4,119,-63,-56,19,-29,14,-48,-82,-92
-107,-107,0,107,-53,-53,9,-24,9,-48,-73,-87
-78,-117,-39,97,-19,-78,4,-9,9,-43,-63,-78
-73,-107,-34,90,-19,-70,0,4,4,-39,-58,-68
-63,-92,-29,78,-17,-61,-9,9,0,-34,-58,-58
-43,-87,-43,65,0,-65,-14,14,0,-29,-43,-53
-43,-78,-34,61,-4,-56,-24,19,0,-24,-39,-39
-34,-68,-34,51,0,-51,-34,29,-4,-19,-34,-29
-14,-53,-39,34,12,-46,-34,34,-4,-19,-29,-24
-9,-58,-48,34,19,-53,-39,43,-4,-9,-19,-9
4,-58,-63,26,34,-61,-48,53,-4,-9,-19,-4
9,-48,-58,19,34,-53,-53,53,-9,-4,-19,-4
19,-48,-68,14,43,-58,-58,53,-9,-4,-19,-9
24,-43,-68,9,46,-56,-58,53,-9,4,-9,0
34,-29,-63,-2,48,-46,-63,48,-19,-4,-4,4
39,-19,-58,-9,48,-39,-68,53,-24,-4,-4,9
43,-19,-63,-12,53,-41,-68,58,-24,-4,0,9
43,-19,-63,-12,53,-41,-73,63,-24,-4,0,19
53,-29,-82,-12,68,-56,-73,63,-24,4,4,24
53,-29,-82,-12,68,-56,-73,68,-24,9,9,24
58,-24,-82,-17,70,-53,-78,68,-24,9,9,29
58,-14,-73,-21,65,-43,-82,68,-24,14,9,29
58,-14,-73,-21,65,-43,-92,68,-24,4,14,29
68,-9,-78,-29,73,-43,-92,68,-19,9,19,34
68,-9,-78,-29,73,-43,-87,68,-19,9,19,39
68,-9,-78,-29,73,-43,-87,68,-24,9,19,43
73,-19,-92,-26,82,-56,-87,82,-14,19,19,53
73,-24,-97,-24,85,-61,-82,82,-14,19,24,58
68,-29,-97,-19,82,-63,-78,82,-14,19,24,58
68,-29,-97,-19,82,-63,-73,82,-14,19,24,53
73,-9,-82,-31,78,-46,-87,78,-19,14,19,39
73,0,-73,-36,73,-36,-92,73,-24,9,14,34
78,9,-68,-43,73,-29,-97,68,-24,4,9,34
82,14,-68,-48,75,-26,-102,63,-29,4,14,29
73,0,-73,-36,73,-36,-87,73,-19,14,24,34
73,-4,-78,-34,75,-41,-87,78,-19,14,19,39
73,-9,-82,-31,78,-46,-87,78,-19,14,19,39
73,-14,-87,-29,80,-51,-87,73,-19,14,19,43
68,0,-68,-34,68,-34,-87,73,-19,4,19,43
68,0,-68,-34,68,-34,-87,73,-19,4,24,48
68,0,-68,-34,68,-34,-87,73,-19,4,24,48
68,0,-68,-34,68,-34,-87,68,-14,4,19,48
58,9,-48,-34,53,-19,-78,68,-24,14,19,53
53,4,-48,-29,51,-21,-78,68,-24,14,24,53
48,4,-43,-26,46,-19,-78,68,-24,14,24,48
48,4,-43,-26,46,-19,-78,63,-24,14,24,48
58,0,-58,-29,58,-29,-82,73,-24,4,14,39
53,0,-53,-26,53,-26,-82,73,-24,4,14,39
48,4,-43,-26,46,-19,-78,68,-24,4,14,39
48,4,-43,-26,46,-19,-78,68,-24,4,14,39
39,0,-39,-19,39,-19,-87,63,-24,-4,14,34
39,0,-39,-19,39,-19,-87,58,-24,-4,14,34
39,0,-39,-19,39,-19,-87,48,-24,-4,9,34
29,0,-29,-14,29,-14,-87,43,-24,-4,9,34
29,-4,-34,-12,31,-19,-82,43,-19,0,9,34
24,-4,-29,-9,26,-17,-78,48,-14,0,14,29
24,-9,-34,-7,29,-21,-73,53,-9,4,19,29
19,-19,-39,0,29,-29,-63,53,-4,9,24,29
19,-14,-34,-2,26,-24,-63,53,-14,9,9,24
19,-14,-34,-2,26,-24,-63,53,-14,9,9,24
9,-14,-24,2,17,-19,-58,53,-9,9,14,29
9,-14,-24,2,17,-19,-58,48,-9,9,14,29
14,-24,-39,4,26,-31,-68,43,-9,4,9,24
14,-24,-39,4,26,-31,-63,43,-9,0,9,19
14,-19,-34,2,24,-26,-63,43,-9,-9,4,19
14,-19,-34,2,24,-26,-68,39,-9,-14,4,19
4,-9,-14,2,9,-12,-68,39,-19,-4,0,19
0,-14,-14,7,7,-14,-68,39,-19,-4,0,14
-4,-24,-19,14,7,-21,-63,34,-19,-4,0,14
-9,-24,-14,17,2,-19,-63,34,-19,-4,0,14
0,-19,-19,9,9,-19,-63,34,-19,-19,0,4
0,-14,-14,7,7,-14,-63,34,-19,-19,0,0
-4,-9,-4,7,0,-7,-58,29,-19,-19,-4,0
-9,-4,4,7,-7,0,-58,29,-19,-19,-4,0
-19,-9,9,14,-14,0,-53,29,-9,-19,0,0
-14,-19,-4,17,-4,-12,-48,29,-9,-14,0,4
-14,-24,-9,19,-2,-17,-43,29,-9,-9,0,9
-19,-29,-9,24,-4,-19,-39,29,-9,-9,0,14
-9,-39,-29,24,9,-34,-48,24,-19,-19,-9,9
-9,-39,-29,24,9,-34,-48,24,-19,-19,-9,4
-9,-39,-29,24,9,-34,-53,24,-24,-19,-9,0
-9,-39,-29,24,9,-34,-53,24,-24,-19,-9,-4
-19,-29,-9,24,-4,-19,-63,14,-24,-29,-19,-4
-19,-34,-14,26,-2,-24,-63,14,-29,-29,-14,-4
-24,-39,-14,31,-4,-26,-58,14,-29,-29,-14,-4
-24,-39,-14,31,-4,-26,-58,14,-24,-29,-19,-4
-9,-39,-29,24,9,-34,-48,14,-24,-24,-19,-9
-9,-39,-29,24,9,-34,-48,19,-19,-24,-19,-9
-9,-39,-29,24,9,-34,-48,24,-19,-24,-19,-9
-9,-39,-29,24,9,-34,-48,29,-19,-24,-19,-9
-19,-58,-39,39,9,-48,-39,29,-19,-24,-14,-4
-14,-58,-43,36,14,-51,-39,29,-24,-24,-14,-4
-14,-53,-39,34,12,-46,-39,29,-24,-24,-14,-9
-14,-48,-34,31,9,-41,-39,29,-24,-24,-14,-9
-14,-48,-34,31,9,-41,-53,19,-34,-39,-19,-9
-14,-48,-34,31,9,-41,-53,19,-39,-43,-19,-4
-9,-43,-34,26,12,-39,-58,14,-39,-43,-19,-4
-9,-43,-34,26,12,-39,-58,14,-39,-43,-19,-4
-4,-53,-48,29,21,-51,-58,19,-24,-29,-14,-14
-4,-63,-58,34,26,-61,-58,24,-24,-29,-14,-14
-4,-63,-58,34,26,-61,-58,24,-24,-29,-14,-14
-4,-63,-58,34,26,-61,-58,24,-24,-29,-9,-14
4,-53,-58,24,31,-56,-63,34,-29,-39,-19,-14
4,-53,-58,24,31,-56,-63,24,-39,-39,-24,-9
4,-48,-53,21,29,-51,-63,24,-43,-39,-24,-9
4,-43,-48,19,26,-46,-63,24,-48,-39,-24,-9
14,-29,-43,7,29,-36,-73,14,-43,-48,-29,-14
14,-29,-43,7,29,-36,-78,14,-43,-48,-29,-14
14,-24,-39,4,26,-31,-78,19,-39,-48,-29,-9
14,-24,-39,4,26,-31,-78,19,-39,-48,-29,-9
9,-43,-53,17,31,-48,-68,19,-39,-39,-24,-9
9,-48,-58,19,34,-53,-68,19,-39,-43,-24,-9
9,-58,-68,24,39,-63,-68,19,-39,-43,-24,-14
9,-68,-78,29,43,-73,-68,19,-39,-43,-24,-14
0,-63,-63,31,31,-63,-68,19,-48,-43,-24,-14
4,-58,-63,26,34,-61,-68,19,-48,-43,-14,-9
4,-53,-58,24,31,-56,-68,19,-48,-43,-14,-9
4,-48,-53,21,29,-51,-68,19,-48,-43,-14,-9
14,-39,-53,12,34,-46,-68,19,-48,-53,-24,-19
19,-39,-58,9,39,-48,-78,19,-53,-53,-24,-19
19,-29,-48,4,34,-39,-78,19,-58,-53,-24,-19
19,-29,-48,4,34,-39,-78,19,-58,-48,-24,-19
14,-34,-48,9,31,-41,-73,19,-58,-48,-24,-19
14,-39,-53,12,34,-46,-73,19,-58,-48,-29,-19
14,-48,-63,17,39,-56,-78,19,-53,-48,-29,-19
19,-53,-73,17,46,-63,-78,19,-53,-48,-24,-14
19,-43,-63,12,41,-53,-78,19,-63,-58,-24,-14
19,-43,-63,12,41,-53,-78,19,-63,-58,-24,-14
19,-48,-68,14,43,-58,-78,19,-68,-63,-29,-14
19,-48,-68,14,43,-58,-78,19,-68,-63,-29,-14
24,-43,-68,9,46,-56,-78,19,-68,-53,-29,-14
29,-43,-73,7,51,-58,-78,19,-68,-53,-29,-19
39,-43,-82,2,61,-63,-78,19,-68,-53,-29,-19
43,-39,-82,-2,63,-61,-78,19,-68,-53,-29,-19
39,-29,-68,-4,53,-48,-78,19,-58,-53,-29,-19
34,-34,-68,0,51,-51,-78,19,-58,-53,-29,-19
29,-39,-68,4,48,-53,-78,19,-58,-53,-29,-19
24,-39,-63,7,43,-51,-78,19,-58,-53,-29,-19
34,-29,-63,-2,48,-46,-87,9,-63,-63,-39,-29
34,-19,-53,-7,43,-36,-92,9,-68,-63,-39,-29
34,-14,-48,-9,41,-31,-92,9,-73,-63,-39,-24
39,-9,-48,-14,43,-29,-92,9,-78,-63,-39,-24
29,-29,-58,0,43,-43,-78,9,-58,-43,-19,-4
19,-29,-48,4,34,-39,-78,19,-48,-39,-19,0
29,-39,-68,4,48,-53,-87,19,-58,-43,-29,-4
29,-39,-68,4,48,-53,-87,19,-58,-48,-29,-9
29,-39,-68,4,48,-53,-87,19,-58,-53,-29,-14
29,-39,-68,4,48,-53,-87,19,-58,-58,-29,-19
29,-39,-68,4,48,-53,-87,19,-68,-58,-29,-14
29,-39,-68,4,48,-53,-87,19,-68,-58,-29,-14
29,-34,-63,2,46,-48,-92,19,-73,-58,-29,-19
29,-34,-63,2,46,-48,-92,19,-73,-58,-29,-19
39,-34,-73,-2,56,-53,-97,9,-73,-68,-39,-19
39,-39,-78,0,58,-58,-97,9,-68,-68,-39,-19
39,-39,-78,0,58,-58,-97,9,-68,-68,-39,-14
39,-39,-78,0,58,-58,-97,9,-68,-68,-39,-14
29,-39,-68,4,48,-53,-87,19,-58,-58,-29,-14
29,-29,-58,0,43,-43,-82,19,-58,-58,-29,-14
29,-43,-73,7,51,-58,-82,19,-58,-58,-29,-14
29,-53,-82,12,56,-68,-82,19,-58,-53,-29,-14
48,-43,-92,-2,70,-68,-92,24,-68,-53,-29,-4
48,-43,-92,-2,70,-68,-97,24,-68,-53,-29,-4
48,-43,-92,-2,70,-68,-97,24,-68,-53,-29,-4
53,-34,-87,-9,70,-61,-97,29,-68,-53,-24,0
53,-24,-78,-14,65,-51,-97,29,-63,-53,-19,0
53,-29,-82,-12,68,-56,-97,34,-63,-53,-19,0
53,-34,-87,-9,70,-61,-97,34,-68,-53,-24,-4
63,-34,-97,-14,80,-65,-102,34,-68,-58,-24,-4
68,-24,-92,-21,80,-58,-92,34,-58,-58,-34,-14
68,-19,-87,-24,78,-53,-97,34,-53,-53,-34,-9
68,-14,-82,-26,75,-48,-97,34,-48,-43,-19,-4
63,-4,-68,-29,65,-36,-92,39,-43,-39,-14,0
63,4,-58,-34,61,-26,-92,39,-43,-34,-14,4
63,9,-53,-36,58,-21,-92,39,-39,-29,-9,9
63,19,-43,-41,53,-12,-92,39,-29,-19,0,14
63,24,-39,-43,51,-7,-92,48,-14,-4,19,29
68,34,-34,-51,51,0,-97,48,-4,0,29,48
73,58,-14,-65,43,21,-112,53,-4,4,34,63
82,68,-14,-75,48,26,-126,53,-9,4,39,63
87,68,-19,-78,53,24,-136,53,-9,4,39,63
97,68,-29,-82,63,19,-146,34,-34,0,29,48
102,68,-34,-85,68,17,-161,29,-48,-9,19,43
117,68,-48,-92,82,9,-170,24,-53,-14,19,43
126,82,-43,-104,85,19,-175,19,-58,-14,19,48
122,102,-19,-112,70,41,-190,29,-53,-9,34,63
126,126,0,-126,63,63,-200,19,-48,-9,39,73
131,156,24,-143,53,90,-209,14,-53,-9,39,73
141,161,19,-151,61,90,-219,0,-58,-29,34,68
131,151,19,-141,56,85,-224,-14,-87,-53,4,48
136,136,0,-136,68,68,-224,-19,-107,-68,-9,29
136,117,-19,-126,78,48,-219,-19,-112,-73,-14,19
141,97,-43,-119,92,26,-219,-14,-117,-78,-14,14
141,107,-34,-124,87,36,-214,-14,-117,-73,-14,9
146,117,-29,-131,87,43,-214,-14,-117,-73,-19,9
151,122,-29,-136,90,46,-224,-19,-131,-78,-24,9
156,122,-34,-139,95,43,-224,-29,-131,-87,-29,9
170,131,-39,-151,104,46,-244,-43,-141,-107,-34,9
170,131,-39,-151,104,46,-244,-43,-146,-107,-39,9
165,131,-34,-148,100,48,-239,-43,-151,-107,-39,9
161,126,-34,-143,97,46,-224,-39,-141,-102,-29,14
156,131,-24,-143,90,53,-200,-24,-122,-82,-24,19
146,141,-4,-143,75,68,-195,-14,-112,-68,-19,24
141,146,4,-143,68,75,-185,-4,-102,-68,-14,29
126,141,14,-134,56,78,-175,4,-92,-53,-4,39
131,122,-9,-126,70,56,-161,24,-78,-39,0,34
131,112,-19,-122,75,46,-156,34,-73,-39,0,34
131,92,-39,-112,85,26,-146,34,-73,-43,0,24
107,58,-48,-82,78,4,-136,29,-78,-43,-9,14
87,39,-48,-63,68,-4,-136,14,-87,-53,-19,0
78,29,-48,-53,63,-9,-136,4,-92,-58,-24,-9
68,9,-58,-39,63,-24,-126,0,-92,-68,-29,-9
58,9,-48,-34,53,-19,-122,0,-92,-68,-34,-14
48,0,-48,-24,48,-24,-117,-4,-92,-73,-39,-9
39,-14,-53,-12,46,-34,-107,-4,-92,-78,-48,-24
34,-29,-63,-2,48,-46,-102,-4,-92,-82,-53,-29
24,-29,-53,2,39,-41,-102,-4,-92,-82,-53,-34
29,-43,-73,7,51,-58,-92,4,-97,-87,-48,-34
34,-48,-82,7,58,-65,-87,4,-97,-87,-48,-34
39,-48,-87,4,63,-68,-87,9,-92,-82,-48,-34
43,-48,-92,2,68,-70,-87,9,-92,-82,-43,-29
39,-43,-82,2,61,-63,-87,9,-92,-87,-53,-29
39,-43,-82,2,61,-63,-87,9,-92,-87,-53,-29
39,-43,-82,2,61,-63,-87,9,-92,-87,-53,-29
39,-39,-78,0,58,-58,-87,9,-92,-87,-53,-29
34,-39,-73,2,53,-56,-87,9,-82,-78,-43,-29
29,-43,-73,7,51,-58,-82,9,-82,-78,-39,-24
24,-43,-68,9,46,-56,-82,9,-82,-78,-39,-24
14,-53,-68,19,41,-61,-82,9,-82,-78,-39,-24
53,-63,-117,4,85,-90,-68,24,-73,-68,-29,-14
48,-58,-107,4,78,-82,-73,29,-82,-73,-39,-24
39,-43,-82,2,61,-63,-73,34,-68,-68,-34,-29
29,-39,-68,4,48,-53,-63,58,-39,-34,4,9
29,-34,-63,2,46,-48,-39,102,-4,19,48,58
53,-4,-58,-24,56,-31,-34,156,29,68,107,102
58,34,-24,-46,41,4,-24,209,78,126,161,161
82,63,-19,-73,51,21,-29,239,97,170,214,224
122,92,-29,-107,75,31,-48,268,102,204,253,283
161,151,-9,-156,85,70,-87,292,112,239,317,351
219,224,4,-222,107,114,-126,346,136,287,385,439
283,302,19,-292,131,161,-170,395,146,351,468,536
331,380,48,-356,141,214,-224,424,151,409,536,644
400,488,87,-444,156,287,-278,483,156,463,619,756
531,595,63,-563,234,329,-331,610,180,551,736,893
692,688,-4,-690,348,341,-375,795,224,663,873,1044
834,775,-58,-805,446,358,-439,966,273,800,1019,1205
980,893,-87,-936,534,402,-517,1098,317,907,1146,1346
1151,1000,-151,-1076,651,424,-600,1200,341,1000,1244,1459
1332,1102,-229,-1217,780,436,-702,1249,307,1034,1312,1556
1512,1254,-258,-1383,885,497,-844,1220,219,1000,1342,1625
1668,1400,-268,-1534,968,566,-1000,1132,102,946,1332,1668
1810,1542,-268,-1676,1039,636,-1137,1010,-39,839,1283,1693
1932,1708,-224,-1820,1078,741,-1298,829,-209,697,1210,1683
2015,1869,-146,-1942,1080,861,-1444,619,-361,561,1127,1659
2015,1961,-53,-1988,1034,954,-1522,434,-458,448,1044,1610
1912,2000,87,-1956,912,1044,-1527,239,-546,312,932,1527
1761,1898,136,-1830,812,1017,-1493,24,-658,112,702,1293
1610,1590,-19,-1600,814,785,-1371,-170,-785,-151,366,897
1337,1215,-122,-1276,729,546,-1180,-380,-858,-409,19,468
961,858,-102,-910,531,378,-936,-619,-888,-639,-302,73
624,502,-122,-563,373,190,-697,-780,-897,-814,-570,-278
409,190,-219,-300,314,-14,-492,-780,-839,-873,-692,-497
248,-24,-273,-112,261,-148,-336,-697,-761,-844,-707,-585
126,-175,-302,24,214,-239,-209,-619,-697,-814,-722,-624
14,-307,-322,146,168,-314,-97,-522,-629,-771,-712,-658
-87,-400,-312,244,112,-356,29,-400,-517,-688,-658,-644
-156,-434,-278,295,61,-356,117,-287,-400,-575,-566,-575
-204,-434,-229,319,12,-331,151,-224,-317,-473,-478,-488
-214,-409,-195,312,-9,-302,165,-165,-253,-390,-395,-419
-185,-385,-200,285,7,-292,156,-107,-224,-331,-341,-361
-141,-341,-200,241,29,-270,126,-53,-195,-287,-292,-312
-126,-302,-175,214,24,-239,112,-39,-165,-258,-253,-278
-122,-287,-165,204,21,-226,107,-34,-146,-234,-229,-258
-122,-268,-146,195,12,-207,107,-9,-131,-214,-214,-258
-107,-224,-117,165,4,-170,107,9,-112,-195,-200,-229
-102,-195,-92,148,-4,-143,87,9,-102,-180,-175,-190
-92,-190,-97,141,2,-143,82,4,-92,-165,-156,-175
-87,-190,-102,139,7,-146,73,-4,-78,-141,-136,-165
-97,-170,-73,134,-12,-122,63,4,-63,-126,-122,-146
-87,-156,-68,122,-9,-112,53,-4,-63,-117,-117,-146
-73,-141,-68,107,-2,-104,34,-9,-58,-112,-122,-151
