I, II, III, aVR, aVL, aVF, V1, V2, V3, V4, V5, V6
-19,-48,-29,34,4,-39,-19,87,-48,-48,-87,-68
-19,-48,-29,34,4,-39,-19,87,-48,-48,-87,-68
-19,-48,-29,34,4,-39,-19,87,-48,-48,-87,-68
-19,-48,-29,34,4,-39,-19,87,-48,-48,-87,-68
-19,-48,-29,34,4,-39,-19,87,-48,-48,-87,-68
-19,-48,-29,34,4,-39,-19,87,-48,-48,-87,-68
-19,-48,-29,34,4,-39,-19,87,-48,-48,-87,-68
-19,-48,-29,34,4,-39,-19,87,-48,-48,-87,-68
-24,-58,-34,41,4,-46,-9,97,-39,-48,-78,-58
-29,-58,-29,43,0,-43,-9,97,-39,-48,-78,-58
-34,-58,-24,46,-4,-41,-9,97,-39,-48,-78,-58
-39,-58,-19,48,-9,-39,-9,97,-39,-48,-78,-58
-29,-48,-19,39,-4,-34,-9,87,-39,-48,-78,-58
-29,-48,-19,39,-4,-34,-9,87,-39,-48,-78,-58
-29,-48,-19,39,-4,-34,-9,87,-39,-48,-78,-58
-29,-48,-19,39,-4,-34,-9,87,-39,-48,-78,-58
-19,-48,-29,34,4,-39,-19,87,-48,-48,-87,-58
-19,-48,-29,34,4,-39,-19,87,-48,-48,-87,-58
-19,-48,-29,34,4,-39,-19,87,-48,-48,-87,-58
-19,-48,-29,34,4,-39,-19,87,-48,-48,-87,-58
-19,-48,-29,34,4,-39,-19,87,-48,-48,-87,-58
-19,-48,-29,34,4,-39,-19,87,-48,-48,-87,-58
-19,-48,-29,34,4,-39,-19,87,-48,-48,-87,-58
-19,-48,-29,34,4,-39,-19,87,-48,-48,-87,-58
-29,-58,-29,43,0,-43,-19,87,-39,-48,-87,-58
-29,-58,-29,43,0,-43,-19,87,-39,-48,-87,-58
-29,-58,-29,43,0,-43,-19,87,-39,-48,-87,-58
-29,-58,-29,43,0,-43,-19,87,-39,-48,-87,-58
-19,-48,-29,34,4,-39,-19,87,-48,-48,-87,-58
-19,-48,-29,34,4,-39,-19,87,-48,-48,-87,-58
-19,-48,-29,34,4,-39,-19,87,-48,-48,-87,-58
-19,-48,-29,34,4,-39,-19,87,-48,-48,-87,-58
-14,-43,-29,29,7,-36,-19,97,-43,-39,-78,-48
-9,-39,-29,24,9,-34,-19,97,-39,-39,-78,-48
-4,-34,-29,19,12,-31,-19,97,-34,-39,-78,-48
0,-29,-29,14,14,-29,-19,97,-29,-39,-78,-48
0,-24,-24,12,12,-24,-9,97,-19,-34,-73,-39
0,-4,-4,2,2,-4,-9,102,-9,-24,-63,-34
0,4,4,-2,-2,4,-9,102,-4,-14,-53,-34
4,19,14,-12,-4,17,-9,102,-4,-4,-48,-29
19,19,0,-19,9,9,-19,102,0,-4,-48,-24
19,24,4,-21,7,14,-19,102,4,0,-39,-24
29,24,-4,-26,17,9,-19,107,4,0,-34,-24
34,24,-9,-29,21,7,-19,107,4,0,-34,-19
29,4,-24,-17,26,-9,-19,117,4,9,-34,-9
29,4,-24,-17,26,-9,-14,126,4,9,-34,-9
24,4,-19,-14,21,-7,-9,126,4,14,-34,-9
24,4,-19,-14,21,-7,-4,126,4,14,-34,-9
39,9,-29,-24,34,-9,-9,117,-4,4,-39,-19
58,9,-48,-34,53,-19,-29,117,-4,9,-34,-14
73,14,-58,-43,65,-21,-43,112,-4,9,-34,-4
82,14,-68,-48,75,-26,-63,97,-19,4,-34,-4
82,14,-68,-48,75,-26,-87,73,-29,-14,-24,4
82,19,-63,-51,73,-21,-97,63,-39,-14,-24,4
92,24,-68,-58,80,-21,-107,53,-43,-19,-29,9
92,24,-68,-58,80,-21,-107,53,-48,-24,-29,9
87,4,-82,-46,85,-39,-102,58,-58,-29,-43,0
82,-9,-92,-36,87,-51,-102,48,-63,-43,-58,-19
78,-9,-87,-34,82,-48,-97,48,-73,-58,-73,-29
68,-9,-78,-29,73,-43,-92,48,-73,-58,-73,-39
68,-19,-87,-24,78,-53,-78,58,-63,-43,-73,-34
68,-14,-82,-26,75,-48,-73,63,-48,-34,-63,-19
63,-14,-78,-24,70,-46,-58,68,-48,-29,-58,-9
63,-19,-82,-21,73,-51,-68,68,-43,-29,-53,-4
82,-14,-97,-34,90,-56,-68,68,-43,-39,-53,-4
87,-9,-97,-39,92,-53,-68,78,-43,-34,-53,-4
87,-9,-97,-39,92,-53,-53,82,-39,-34,-53,-4
78,-4,-82,-36,80,-43,-48,87,-39,-24,-53,-4
78,-14,-92,-31,85,-53,-58,78,-39,-34,-53,-14
78,-19,-97,-29,87,-58,-58,78,-43,-39,-58,-19
87,-19,-107,-34,97,-63,-53,73,-43,-39,-63,-19
87,-14,-102,-36,95,-58,-53,68,-43,-34,-63,-19
68,-24,-92,-21,80,-58,-48,78,-53,-34,-63,-9
63,-24,-87,-19,75,-56,-48,78,-53,-34,-58,-9
58,-29,-87,-14,73,-58,-48,78,-53,-39,-58,-9
58,-29,-87,-14,73,-58,-43,78,-53,-39,-63,-14
48,-39,-87,-4,68,-63,-53,68,-58,-53,-73,-24
34,-48,-82,7,58,-65,-48,68,-63,-58,-78,-34
14,-63,-78,24,46,-70,-39,73,-63,-58,-87,-53
4,-73,-78,34,41,-75,-34,73,-63,-68,-97,-63
-9,-73,-63,41,26,-68,-14,87,-63,-63,-102,-73
-29,-73,-43,51,7,-58,-9,92,-63,-63,-102,-73
-29,-73,-43,51,7,-58,-9,92,-58,-63,-102,-73
-34,-73,-39,53,2,-56,-9,92,-58,-58,-97,-73
-34,-68,-34,51,0,-51,-9,82,-58,-63,-97,-73
-34,-63,-29,48,-2,-46,-9,82,-58,-63,-97,-73
-34,-63,-29,48,-2,-46,-14,78,-58,-63,-97,-73
-24,-73,-48,48,12,-61,-14,78,-58,-68,-102,-78
-9,-78,-68,43,29,-73,-24,78,-68,-73,-102,-82
-9,-78,-68,43,29,-73,-24,78,-68,-73,-112,-87
-9,-78,-68,43,29,-73,-24,78,-68,-73,-112,-87
-19,-73,-53,46,17,-63,-19,78,-68,-73,-107,-87
-39,-73,-34,56,-2,-53,-9,87,-58,-63,-102,-73
-43,-73,-29,58,-7,-51,-4,87,-58,-63,-102,-73
-48,-73,-24,61,-12,-48,-4,87,-58,-63,-102,-73
-58,-73,-14,65,-21,-43,-4,87,-58,-58,-102,-73
-43,-63,-19,53,-12,-41,-4,78,-63,-68,-112,-82
-43,-68,-24,56,-9,-46,-4,78,-63,-68,-112,-82
-39,-68,-29,53,-4,-48,-4,78,-58,-68,-117,-82
-34,-63,-29,48,-2,-46,-4,78,-58,-68,-117,-82
-29,-63,-34,46,2,-48,-14,73,-58,-68,-107,-82
-34,-63,-29,48,-2,-46,-9,73,-58,-68,-107,-82
-34,-63,-29,48,-2,-46,-9,78,-58,-68,-102,-82
-29,-58,-29,43,0,-43,-9,78,-58,-68,-102,-82
-39,-68,-29,53,-4,-48,0,87,-58,-58,-107,-78
-43,-68,-24,56,-9,-46,0,87,-58,-58,-107,-78
-48,-68,-19,58,-14,-43,0,87,-58,-58,-107,-78
-58,-68,-9,63,-24,-39,0,87,-58,-53,-102,-78
-48,-78,-29,63,-9,-53,-9,87,-58,-63,-112,-87
-43,-78,-34,61,-4,-56,-4,87,-58,-63,-112,-82
-43,-78,-34,61,-4,-56,-4,82,-58,-63,-112,-82
-43,-78,-34,61,-4,-56,-4,82,-58,-63,-112,-82
-48,-73,-24,61,-12,-48,4,82,-48,-63,-102,-82
-53,-73,-19,63,-17,-46,4,87,-48,-63,-102,-82
-53,-68,-14,61,-19,-41,0,87,-48,-63,-102,-82
-48,-68,-19,58,-14,-43,0,82,-48,-63,-102,-87
-48,-58,-9,53,-19,-34,0,92,-48,-63,-92,-78
-58,-68,-9,63,-24,-39,0,92,-48,-63,-102,-82
-58,-68,-9,63,-24,-39,0,87,-48,-53,-102,-73
-39,-58,-19,48,-9,-39,-4,78,-48,-53,-102,-68
-24,-48,-24,36,0,-36,-14,73,-48,-48,-92,-53
-24,-43,-19,34,-2,-31,-34,63,-58,-43,-73,-43
-39,-39,0,39,-19,-19,-48,53,-48,-34,-53,-29
-34,-24,9,29,-21,-7,-68,39,-53,-34,-53,-29
-24,-14,9,19,-17,-2,-82,29,-58,-34,-53,-39
-24,0,24,12,-24,12,-82,14,-53,-29,-48,-39
-19,24,43,-2,-31,34,-102,-9,-53,-9,-14,0
-19,53,73,-17,-46,63,-161,-63,-78,9,24,58
4,97,92,-51,-43,95,-229,-156,-87,29,92,136
58,180,122,-119,-31,151,-326,-268,-112,73,185,258
102,248,146,-175,-21,197,-463,-409,-180,82,297,385
170,312,141,-241,14,226,-600,-556,-263,82,405,536
244,380,136,-312,53,258,-717,-692,-331,92,512,688
292,468,175,-380,58,322,-824,-805,-395,102,629,844
351,531,180,-441,85,356,-922,-893,-458,112,732,1015
439,624,185,-531,126,405,-1010,-961,-492,156,873,1205
536,732,195,-634,170,463,-1107,-1024,-517,224,1058,1439
639,819,180,-729,229,500,-1200,-1088,-551,292,1239,1678
746,883,136,-814,305,509,-1283,-1122,-585,336,1400,1893
829,912,82,-871,373,497,-1332,-1137,-614,346,1503,2044
873,883,9,-878,431,446,-1351,-1127,-634,326,1537,2127
917,819,-97,-868,507,361,-1332,-1068,-639,292,1493,2137
966,702,-263,-834,614,219,-1302,-1000,-653,195,1351,2044
966,517,-448,-741,707,34,-1224,-917,-697,53,1093,1820
902,331,-570,-617,736,-119,-1127,-844,-746,-112,775,1517
834,156,-678,-495,756,-261,-1019,-785,-785,-287,444,1166
790,-14,-805,-387,797,-409,-927,-736,-858,-483,68,766
722,-170,-893,-275,807,-531,-824,-692,-897,-644,-253,385
658,-248,-907,-204,783,-578,-741,-634,-878,-697,-385,190
614,-258,-873,-178,744,-566,-683,-575,-810,-663,-366,151
561,-263,-824,-148,692,-544,-624,-512,-732,-610,-341,136
483,-273,-756,-104,619,-514,-546,-429,-649,-551,-331,73
395,-283,-678,-56,536,-480,-478,-366,-580,-502,-326,9
297,-248,-546,-24,422,-397,-400,-302,-517,-448,-292,-14
214,-224,-439,4,326,-331,-322,-239,-434,-370,-268,-39
180,-214,-395,17,287,-305,-258,-165,-370,-312,-258,-58
165,-219,-385,26,275,-302,-209,-107,-317,-278,-248,-73
151,-195,-346,21,248,-270,-170,-78,-263,-244,-219,-82
107,-180,-287,36,197,-234,-146,-53,-219,-204,-200,-82
63,-180,-244,58,153,-212,-117,-29,-180,-175,-175,-82
43,-170,-214,63,129,-192,-92,0,-156,-156,-156,-82
24,-151,-175,63,100,-163,-78,14,-141,-146,-151,-82
9,-141,-151,65,80,-146,-58,39,-126,-126,-141,-87
9,-131,-141,61,75,-136,-34,63,-112,-112,-141,-92
4,-117,-122,56,63,-119,-19,78,-97,-87,-146,-107
0,-92,-92,46,46,-92,4,87,-63,-68,-136,-107
-14,-68,-53,41,19,-61,9,92,-34,-53,-112,-107
-19,-53,-34,36,7,-43,9,102,-14,-39,-92,-102
-19,-48,-29,34,4,-39,9,102,-19,-39,-78,-92
-29,-48,-19,39,-4,-34,19,112,-19,-39,-73,-87
-39,-48,-9,43,-14,-29,24,122,-9,-29,-78,-78
-39,-48,-9,43,-14,-29,34,136,-9,-19,-78,-82
-39,-48,-9,43,-14,-29,39,141,0,-9,-78,-82
-48,-43,4,46,-26,-19,53,151,9,-9,-78,-82
-48,-39,9,43,-29,-14,53,156,19,-4,-78,-82
-48,-34,14,41,-31,-9,53,156,19,-4,-78,-82
-48,-29,19,39,-34,-4,53,151,19,0,-73,-82
-48,-29,19,39,-34,-4,48,151,19,4,-63,-82
-48,-19,29,34,-39,4,48,141,9,-4,-63,-82
-43,-19,24,31,-34,2,53,151,9,-4,-63,-82
-43,-19,24,31,-34,2,53,156,9,-4,-63,-78
-53,-19,34,36,-43,7,58,161,19,0,-63,-78
-43,-29,14,36,-29,-7,58,161,24,0,-68,-73
-43,-29,14,36,-29,-7,58,161,24,4,-68,-73
-43,-29,14,36,-29,-7,58,156,29,4,-68,-73
-43,-24,19,34,-31,-2,58,156,29,4,-68,-68
-39,-19,19,29,-29,0,58,156,39,14,-53,-68
-39,-14,24,26,-31,4,63,165,39,14,-53,-63
-43,-4,39,24,-41,17,63,165,43,19,-48,-63
-43,0,43,21,-43,21,63,165,43,24,-48,-63
-43,-9,34,26,-39,12,73,170,43,24,-43,-53
-48,-9,39,29,-43,14,73,170,48,24,-43,-53
-48,-9,39,29,-43,14,73,170,48,24,-43,-53
-48,-9,39,29,-43,14,73,170,48,24,-43,-53
-39,-9,29,24,-34,9,73,175,48,24,-43,-58
-39,-9,29,24,-34,9,73,175,48,24,-43,-58
-39,-4,34,21,-36,14,68,175,48,24,-43,-58
-39,-4,34,21,-36,14,68,180,48,29,-43,-58
-48,-4,43,26,-46,19,58,180,48,29,-43,-58
-48,-4,43,26,-46,19,63,175,53,29,-43,-53
-39,-4,34,21,-36,14,63,175,53,29,-43,-53
-39,0,39,19,-39,19,63,175,53,29,-43,-53
-48,0,48,24,-48,24,73,180,53,29,-43,-63
-48,-4,43,26,-46,19,73,180,53,29,-43,-63
-43,-4,39,24,-41,17,73,180,53,29,-43,-63
-43,0,43,21,-43,21,73,180,53,34,-39,-63
-43,-9,34,26,-39,12,73,180,53,43,-39,-53
-43,-9,34,26,-39,12,73,180,53,43,-39,-48
-43,-9,34,26,-39,12,73,180,58,43,-34,-48
-48,-9,39,29,-43,14,73,190,58,43,-34,-48
-58,0,58,29,-58,29,73,190,58,39,-34,-58
-58,0,58,29,-58,29,73,185,63,39,-34,-58
-53,0,53,26,-53,26,73,185,63,39,-34,-58
-53,0,53,26,-53,26,73,185,63,39,-34,-58
-53,-4,48,29,-51,21,82,195,63,48,-29,-48
-53,-4,48,29,-51,21,82,195,63,48,-29,-48
-53,-4,48,29,-51,21,82,195,63,48,-24,-53
-43,-4,39,24,-41,17,82,195,63,48,-24,-58
-43,-4,39,24,-41,17,73,190,63,43,-29,-58
-48,-4,43,26,-46,19,78,190,63,43,-29,-53
-48,-4,43,26,-46,19,78,190,63,39,-34,-53
-34,-4,29,19,-31,12,73,190,58,39,-34,-58
-34,-4,29,19,-31,12,73,190,58,39,-34,-58
-34,-4,29,19,-31,12,73,195,68,43,-34,-58
-48,-4,43,26,-46,19,78,200,73,48,-29,-53
-48,-4,43,26,-46,19,82,200,73,48,-29,-53
-58,-4,53,31,-56,24,82,200,73,48,-19,-53
-58,-4,53,31,-56,24,82,204,73,48,-19,-53
-58,-4,53,31,-56,24,82,204,78,48,-19,-53
-43,-4,39,24,-41,17,82,204,78,48,-19,-53
-39,-4,34,21,-36,14,82,195,68,48,-24,-53
-39,-4,34,21,-36,14,82,195,68,53,-24,-53
-53,-9,43,31,-48,17,82,200,78,53,-19,-53
-53,-9,43,31,-48,17,87,204,78,53,-19,-53
-39,-9,29,24,-34,9,87,204,73,53,-19,-53
-39,-9,29,24,-34,9,87,200,73,58,-19,-53
-43,-9,34,26,-39,12,87,200,73,58,-19,-53
-43,-9,34,26,-39,12,87,200,78,58,-19,-53
-48,-9,39,29,-43,14,87,214,87,58,-9,-53
-48,-9,39,29,-43,14,87,214,87,58,-9,-58
-48,-9,39,29,-43,14,87,214,87,63,-4,-58
-48,-9,39,29,-43,14,92,224,87,63,-4,-58
-48,0,48,24,-48,24,82,214,78,68,-14,-58
-48,0,48,24,-48,24,82,214,82,68,-14,-58
-48,0,48,24,-48,24,82,219,87,68,-14,-58
-48,0,48,24,-48,24,82,224,92,68,-9,-58
-39,-9,29,24,-34,9,92,224,92,73,-9,-63
-39,-9,29,24,-34,9,92,224,92,78,-4,-63
-48,-9,39,29,-43,14,92,224,97,87,-4,-63
-48,-9,39,29,-43,14,92,229,97,87,0,-68
-43,-4,39,24,-41,17,102,234,107,97,9,-68
-43,-4,39,24,-41,17,102,239,117,97,9,-68
-43,-4,39,24,-41,17,102,244,117,97,14,-63
-43,0,43,21,-43,21,102,253,117,97,14,-53
-39,0,39,19,-39,19,102,244,117,102,4,-58
-39,0,39,19,-39,19,102,244,122,102,4,-63
-39,-4,34,21,-36,14,107,248,122,107,4,-68
-43,-9,34,26,-39,12,112,258,126,107,9,-73
-58,-9,48,34,-53,19,112,263,136,107,14,-63
-58,0,58,29,-58,29,112,263,136,112,24,-63
-58,0,58,29,-58,29,112,268,141,112,24,-63
-53,4,58,24,-56,31,112,268,141,117,19,-63
-48,4,53,21,-51,29,112,273,141,122,19,-73
-48,4,53,21,-51,29,122,278,146,126,29,-68
-43,4,48,19,-46,26,122,283,151,131,29,-63
-34,4,39,14,-36,21,122,283,156,131,34,-63
-43,14,58,14,-51,36,136,292,170,146,34,-63
-43,14,58,14,-51,36,136,302,175,151,39,-63
-43,14,58,14,-51,36,136,302,180,156,43,-58
-43,24,68,9,-56,46,141,302,185,161,53,-58
-34,29,63,2,-48,46,141,312,200,165,58,-68
-34,29,63,2,-48,46,146,317,209,170,63,-63
-34,24,58,4,-46,41,146,326,214,175,68,-58
-34,19,53,7,-43,36,156,331,219,185,73,-58
-34,29,63,2,-48,46,165,336,229,185,78,-53
-34,34,68,0,-51,51,165,346,234,195,82,-53
-34,34,68,0,-51,51,170,346,234,200,82,-48
-34,39,73,-2,-53,56,170,351,239,209,87,-48
-29,48,78,-9,-53,63,180,370,248,224,97,-39
-39,53,92,-7,-65,73,185,375,258,239,102,-39
-29,58,87,-14,-58,73,185,380,263,239,107,-39
-29,63,92,-17,-61,78,185,385,278,248,117,-29
-29,68,97,-19,-63,82,190,395,283,263,126,-24
-29,68,97,-19,-63,82,200,405,297,268,131,-19
-24,73,97,-24,-61,85,204,414,307,278,146,-19
-24,78,102,-26,-63,90,204,419,312,287,156,-4
-29,92,122,-31,-75,107,204,424,317,297,161,0
-34,97,131,-31,-82,114,214,434,326,312,170,4
-29,102,131,-36,-80,117,214,434,336,322,180,14
-29,107,136,-39,-82,122,214,439,346,331,195,14
-19,112,131,-46,-75,122,214,453,366,346,204,19
-19,122,141,-51,-80,131,224,458,380,366,224,34
-19,122,141,-51,-80,131,229,463,390,375,234,43
-24,126,151,-51,-87,139,234,473,400,390,253,53
-14,141,156,-63,-85,148,234,488,409,400,253,63
-4,156,161,-75,-82,158,234,488,414,409,268,73
0,156,156,-78,-78,156,234,488,424,419,278,78
4,165,161,-85,-78,163,234,492,434,434,292,92
9,180,170,-95,-80,175,234,497,444,453,307,97
4,185,180,-95,-87,183,234,502,453,463,322,107
0,190,190,-95,-95,190,234,507,463,468,336,117
-4,190,195,-92,-100,192,234,507,473,483,346,126
14,214,200,-114,-92,207,219,507,473,497,351,126
29,234,204,-131,-87,219,219,507,483,507,366,146
39,239,200,-139,-80,219,214,507,492,517,380,156
48,248,200,-148,-75,224,209,507,492,527,395,170
43,253,209,-148,-82,231,214,507,488,527,395,175
48,258,209,-153,-80,234,214,507,492,536,409,190
53,258,204,-156,-75,231,209,502,497,546,429,204
53,263,209,-158,-78,236,200,502,497,551,439,219
63,268,204,-165,-70,236,190,483,483,546,448,214
68,268,200,-168,-65,234,185,473,483,546,458,229
68,273,204,-170,-68,239,170,473,478,546,463,239
68,273,204,-170,-68,239,161,463,473,551,473,253
68,283,214,-175,-73,248,156,448,473,561,478,268
78,287,209,-183,-65,248,141,439,463,561,483,278
87,292,204,-190,-58,248,131,429,458,556,492,287
87,292,204,-190,-58,248,126,419,453,551,492,292
87,283,195,-185,-53,239,117,419,453,546,492,292
87,292,204,-190,-58,248,107,405,444,536,488,302
87,292,204,-190,-58,248,97,390,429,531,488,307
97,292,195,-195,-48,244,87,370,419,522,488,307
112,302,190,-207,-39,246,78,346,395,517,483,307
117,287,170,-202,-26,229,68,336,380,507,478,307
122,287,165,-204,-21,226,58,322,366,497,463,312
126,287,161,-207,-17,224,43,307,346,478,453,312
131,273,141,-202,-4,207,34,297,341,458,453,307
126,273,146,-200,-9,209,29,283,322,439,439,302
122,273,151,-197,-14,212,24,263,307,419,424,287
117,263,146,-190,-14,204,14,253,292,400,409,287
107,253,146,-180,-19,200,-4,239,273,395,400,268
102,253,151,-178,-24,202,-4,229,253,375,380,263
102,239,136,-170,-17,187,-9,214,239,361,366,248
107,239,131,-173,-12,185,-19,204,224,341,346,239
117,229,112,-173,2,170,-9,204,214,322,331,229
117,214,97,-165,9,156,-14,195,200,302,322,219
112,200,87,-156,12,143,-19,185,185,283,302,209
107,185,78,-146,14,131,-19,175,170,268,292,200
107,180,73,-143,17,126,-29,161,146,244,258,190
102,170,68,-136,17,119,-29,151,136,229,239,175
97,165,68,-131,14,117,-29,146,126,209,229,161
92,151,58,-122,17,104,-34,136,107,200,209,141
87,136,48,-112,19,92,-43,126,97,180,200,122
73,126,53,-100,9,90,-43,122,82,161,180,112
68,117,48,-92,9,82,-39,117,78,151,161,92
53,107,53,-80,0,80,-39,112,68,131,141,78
58,102,43,-80,7,73,-48,107,58,117,112,63
53,87,34,-70,9,61,-48,102,48,102,97,43
48,78,29,-63,9,53,-48,97,43,92,82,39
39,73,34,-56,2,53,-43,97,34,82,73,29
34,53,19,-43,7,36,-34,97,29,68,53,9
34,48,14,-41,9,31,-34,97,19,53,43,-9
34,39,4,-36,14,21,-34,92,14,43,29,-24
29,29,0,-29,14,14,-34,87,4,34,14,-43
24,34,9,-29,7,21,-43,78,0,34,9,-53
19,24,4,-21,7,14,-43,78,0,34,4,-58
14,14,0,-14,7,7,-39,78,-9,24,-4,-63
14,9,-4,-12,9,2,-39,78,-14,14,-19,-68
0,-9,-9,4,4,-9,-29,82,-14,14,-24,-73
-4,-9,-4,7,0,-7,-29,82,-14,14,-24,-73
-4,-14,-9,9,2,-12,-29,82,-14,9,-29,-82
-9,-24,-14,17,2,-19,-29,78,-19,0,-34,-87
0,-14,-14,7,7,-14,-29,68,-34,-9,-43,-97
0,-14,-14,7,7,-14,-29,68,-34,-9,-53,-107
4,-14,-19,4,12,-17,-24,68,-34,-14,-53,-107
4,-14,-19,4,12,-17,-24,73,-34,-14,-53,-107
-4,-19,-14,12,4,-17,-24,73,-34,-14,-63,-107
-19,-24,-4,21,-7,-14,-19,73,-39,-14,-68,-112
-24,-29,-4,26,-9,-17,-19,73,-39,-14,-73,-117
-29,-39,-9,34,-9,-24,-19,73,-39,-24,-78,-122
-19,-39,-19,29,0,-29,-19,73,-29,-34,-73,-117
-19,-39,-19,29,0,-29,-19,73,-29,-34,-73,-117
-19,-39,-19,29,0,-29,-19,78,-29,-34,-68,-117
-24,-43,-19,34,-2,-31,-19,78,-29,-34,-68,-122
-19,-39,-19,29,0,-29,-14,87,-29,-34,-73,-126
-19,-39,-19,29,0,-29,-14,87,-29,-34,-73,-126
-9,-39,-29,24,9,-34,-14,87,-29,-34,-73,-122
-9,-43,-34,26,12,-39,-14,87,-29,-34,-73,-122
-34,-48,-14,41,-9,-31,-19,78,-39,-34,-82,-131
-34,-48,-14,41,-9,-31,-19,78,-39,-34,-82,-136
-24,-48,-24,36,0,-36,-19,78,-39,-34,-87,-136
-39,-48,-9,43,-14,-29,-19,78,-39,-34,-87,-141
-34,-53,-19,43,-7,-36,-14,73,-39,-43,-97,-151
-34,-53,-19,43,-7,-36,-14,73,-43,-48,-97,-151
-24,-58,-34,41,4,-46,-19,68,-43,-48,-102,-151
-24,-58,-34,41,4,-46,-19,68,-43,-43,-102,-151
-34,-48,-14,41,-9,-31,-9,78,-39,-43,-102,-151
-43,-48,-4,46,-19,-26,-9,82,-39,-39,-97,-151
-48,-48,0,48,-24,-24,-4,82,-34,-39,-97,-146
-48,-48,0,48,-24,-24,-4,82,-34,-39,-97,-146
-48,-53,-4,51,-21,-29,-9,73,-43,-39,-97,-161
-43,-53,-9,48,-17,-31,-14,73,-43,-43,-102,-161
-43,-53,-9,48,-17,-31,-14,73,-43,-43,-102,-161
-43,-58,-14,51,-14,-36,-19,73,-43,-43,-97,-161
-39,-48,-9,43,-14,-29,-14,82,-34,-39,-87,-151
-39,-48,-9,43,-14,-29,-14,78,-34,-39,-92,-151
-39,-48,-9,43,-14,-29,-14,78,-34,-39,-92,-151
-34,-48,-14,41,-9,-31,-14,78,-34,-39,-92,-146
-34,-58,-24,46,-4,-41,-14,82,-34,-39,-92,-156
-39,-53,-14,46,-12,-34,-14,82,-34,-39,-92,-156
-39,-53,-14,46,-12,-34,-14,82,-34,-34,-92,-156
-39,-48,-9,43,-14,-29,-14,82,-34,-34,-92,-156
-48,-58,-9,53,-19,-34,-9,82,-39,-39,-97,-151
-39,-58,-19,48,-9,-39,-9,82,-39,-39,-92,-151
-39,-58,-19,48,-9,-39,-9,82,-39,-43,-92,-151
-39,-58,-19,48,-9,-39,-14,82,-39,-43,-92,-151
-39,-58,-19,48,-9,-39,-14,82,-29,-39,-82,-141
-39,-58,-19,48,-9,-39,-14,82,-29,-34,-82,-141
-39,-58,-19,48,-9,-39,-14,82,-29,-29,-82,-141
-39,-58,-19,48,-9,-39,-14,78,-29,-24,-82,-141
-39,-58,-19,48,-9,-39,-14,78,-29,-34,-82,-136
-39,-58,-19,48,-9,-39,-14,82,-29,-29,-82,-136
-39,-58,-19,48,-9,-39,-14,82,-29,-29,-82,-136
-43,-58,-14,51,-14,-36,-14,82,-29,-29,-82,-136
-34,-48,-14,41,-9,-31,-14,82,-24,-29,-92,-136
-34,-48,-14,41,-9,-31,-14,82,-24,-29,-87,-131
-29,-48,-19,39,-4,-34,-14,82,-24,-24,-87,-131
-29,-48,-19,39,-4,-34,-14,82,-24,-24,-87,-126
-34,-58,-24,46,-4,-41,-4,73,-24,-24,-73,-126
-39,-58,-19,48,-9,-39,-4,73,-29,-24,-73,-126
-43,-63,-19,53,-12,-41,-4,73,-29,-29,-78,-126
-48,-63,-14,56,-17,-39,0,73,-29,-29,-78,-126
-39,-73,-34,56,-2,-53,-9,82,-39,-29,-87,-126
-39,-68,-29,53,-4,-48,-9,82,-39,-24,-87,-122
-39,-68,-29,53,-4,-48,-9,82,-39,-24,-87,-122
-43,-68,-24,56,-9,-46,-14,78,-39,-24,-87,-126
-34,-58,-24,46,-4,-41,-14,87,-34,-24,-73,-126
-34,-58,-24,46,-4,-41,-9,87,-34,-24,-73,-126
-34,-58,-24,46,-4,-41,-9,87,-34,-24,-78,-126
-39,-63,-24,51,-7,-43,-9,87,-34,-29,-78,-126
-48,-63,-14,56,-17,-39,-19,78,-24,-29,-78,-126
-48,-63,-14,56,-17,-39,-19,78,-24,-29,-78,-126
-48,-63,-14,56,-17,-39,-19,78,-24,-29,-78,-126
-48,-63,-14,56,-17,-39,-24,78,-29,-29,-78,-126
-48,-63,-14,56,-17,-39,-14,78,-39,-39,-78,-126
-48,-63,-14,56,-17,-39,-14,78,-34,-39,-78,-126
-48,-63,-14,56,-17,-39,-19,78,-34,-39,-78,-126
-43,-63,-19,53,-12,-41,-19,73,-39,-39,-82,-126
-34,-58,-24,46,-4,-41,-19,73,-39,-39,-92,-136
-34,-58,-24,46,-4,-41,-19,73,-39,-39,-92,-136
-34,-58,-24,46,-4,-41,-19,78,-39,-39,-92,-136
-34,-58,-24,46,-4,-41,-19,78,-39,-39,-87,-136
-34,-58,-24,46,-4,-41,-24,73,-29,-43,-97,-136
-34,-68,-34,51,0,-51,-24,73,-34,-43,-97,-141
-39,-68,-29,53,-4,-48,-29,73,-34,-43,-97,-141
-39,-68,-29,53,-4,-48,-29,73,-34,-43,-97,-136
-39,-78,-39,58,0,-58,-14,73,-34,-34,-87,-126
-39,-78,-39,58,0,-58,-14,73,-34,-34,-87,-126
-39,-78,-39,58,0,-58,-19,73,-34,-34,-87,-126
-39,-78,-39,58,0,-58,-19,68,-34,-34,-92,-131
-43,-78,-34,61,-4,-56,-29,68,-43,-43,-92,-122
-43,-78,-34,61,-4,-56,-29,73,-43,-43,-92,-122
-48,-78,-29,63,-9,-53,-29,73,-43,-43,-92,-122
-48,-78,-29,63,-9,-53,-29,73,-43,-48,-92,-126
-48,-78,-29,63,-9,-53,-29,68,-48,-48,-97,-136
-48,-78,-29,63,-9,-53,-29,68,-48,-48,-97,-136
-48,-78,-29,63,-9,-53,-29,68,-48,-48,-97,-136
-43,-78,-34,61,-4,-56,-34,63,-53,-48,-97,-136
-34,-68,-34,51,0,-51,-34,63,-43,-48,-107,-151
-34,-68,-34,51,0,-51,-34,68,-39,-53,-107,-151
-34,-68,-34,51,0,-51,-34,68,-39,-53,-107,-151
-34,-68,-34,51,0,-51,-29,68,-39,-53,-107,-151
-39,-73,-34,56,-2,-53,-19,78,-39,-53,-102,-146
-43,-73,-29,58,-7,-51,-24,73,-43,-53,-97,-141
-48,-73,-24,61,-12,-48,-24,73,-43,-53,-92,-136
-53,-73,-19,63,-17,-46,-24,73,-43,-53,-87,-131
-48,-82,-34,65,-7,-58,-24,63,-43,-53,-92,-122
-48,-82,-34,65,-7,-58,-24,63,-43,-48,-92,-131
-48,-82,-34,65,-7,-58,-19,68,-43,-48,-92,-131
-43,-78,-34,61,-4,-56,-19,68,-43,-48,-92,-131
-29,-78,-48,53,9,-63,-29,58,-53,-63,-102,-141
-29,-82,-53,56,12,-68,-34,58,-53,-68,-107,-146
-39,-82,-43,61,2,-63,-34,58,-53,-68,-107,-146
-39,-82,-43,61,2,-63,-39,58,-53,-63,-107,-141
-43,-73,-29,58,-7,-51,-29,58,-58,-63,-117,-141
-43,-78,-34,61,-4,-56,-34,58,-58,-68,-117,-141
-39,-78,-39,58,0,-58,-34,58,-58,-68,-117,-141
-39,-78,-39,58,0,-58,-29,58,-58,-68,-117,-141
-48,-82,-34,65,-7,-58,-29,53,-48,-58,-107,-136
-48,-82,-34,65,-7,-58,-34,53,-53,-58,-107,-136
-48,-82,-34,65,-7,-58,-34,53,-53,-53,-107,-136
-48,-82,-34,65,-7,-58,-34,53,-48,-53,-107,-136
-48,-82,-34,65,-7,-58,-34,63,-48,-63,-107,-136
-48,-82,-34,65,-7,-58,-34,63,-48,-63,-107,-136
-48,-82,-34,65,-7,-58,-34,53,-48,-68,-107,-136
-48,-87,-39,68,-4,-63,-34,53,-58,-68,-107,-136
-39,-82,-43,61,2,-63,-34,53,-58,-68,-107,-141
-39,-82,-43,61,2,-63,-34,53,-58,-68,-107,-141
-29,-78,-48,53,9,-63,-34,53,-53,-68,-107,-131
-29,-73,-43,51,7,-58,-29,53,-48,-68,-107,-131
-39,-78,-39,58,0,-58,-29,53,-48,-68,-107,-141
-39,-82,-43,61,2,-63,-39,53,-53,-68,-107,-141
-48,-82,-34,65,-7,-58,-39,48,-53,-73,-107,-141
-43,-82,-39,63,-2,-61,-39,48,-63,-73,-112,-151
-53,-82,-29,68,-12,-56,-39,48,-63,-73,-122,-141
-48,-82,-34,65,-7,-58,-39,63,-58,-68,-112,-126
-53,-82,-29,68,-12,-56,-43,58,-53,-68,-107,-126
-48,-82,-34,65,-7,-58,-43,53,-63,-68,-117,-136
-58,-78,-19,68,-19,-48,-39,48,-58,-68,-107,-146
-58,-87,-29,73,-14,-58,-29,58,-58,-78,-117,-146
-58,-87,-29,73,-14,-58,-29,58,-58,-78,-117,-146
-58,-87,-29,73,-14,-58,-29,58,-58,-78,-117,-146
-58,-87,-29,73,-14,-58,-29,58,-58,-78,-117,-146
-48,-97,-48,73,0,-73,-39,58,-58,-78,-117,-146
-48,-97,-48,73,0,-73,-39,58,-58,-78,-117,-146
-48,-97,-48,73,0,-73,-39,58,-58,-78,-117,-146
-48,-97,-48,73,0,-73,-39,58,-58,-78,-117,-146
-58,-87,-29,73,-14,-58,-39,48,-58,-78,-107,-146
-58,-87,-29,73,-14,-58,-39,48,-58,-78,-107,-146
-58,-87,-29,73,-14,-58,-39,48,-58,-78,-107,-146
-58,-87,-29,73,-14,-58,-39,48,-58,-78,-107,-146
-53,-78,-24,65,-14,-51,-39,48,-68,-78,-117,-156
-48,-78,-29,63,-9,-53,-39,48,-68,-78,-117,-156
-43,-78,-34,61,-4,-56,-39,48,-68,-78,-117,-156
-39,-78,-39,58,0,-58,-39,48,-68,-78,-117,-156
-48,-87,-39,68,-4,-63,-39,48,-68,-78,-117,-146
-48,-87,-39,68,-4,-63,-39,48,-68,-78,-117,-146
-48,-87,-39,68,-4,-63,-39,48,-68,-78,-117,-146
-48,-87,-39,68,-4,-63,-39,48,-68,-78,-117,-146
-53,-92,-39,73,-7,-65,-39,58,-58,-78,-117,-136
-58,-97,-39,78,-9,-68,-39,58,-58,-78,-117,-136
-63,-102,-39,82,-12,-70,-39,58,-58,-78,-117,-136
-68,-107,-39,87,-14,-73,-39,58,-58,-78,-117,-136
-58,-97,-39,78,-9,-68,-39,53,-68,-78,-126,-146
-58,-97,-39,78,-9,-68,-39,48,-68,-78,-126,-146
-58,-97,-39,78,-9,-68,-39,43,-68,-78,-126,-146
-58,-97,-39,78,-9,-68,-39,39,-68,-78,-126,-146
-48,-87,-39,68,-4,-63,-39,48,-58,-68,-117,-146
-48,-87,-39,68,-4,-63,-39,48,-58,-68,-117,-146
-48,-87,-39,68,-4,-63,-39,48,-58,-68,-117,-146
-48,-87,-39,68,-4,-63,-39,48,-58,-68,-117,-146
-39,-97,-58,68,9,-78,-39,48,-58,-78,-117,-136
-39,-97,-58,68,9,-78,-39,48,-58,-78,-117,-136
-39,-97,-58,68,9,-78,-39,48,-58,-78,-117,-136
-39,-97,-58,68,9,-78,-39,48,-58,-78,-117,-136
-53,-97,-43,75,-4,-70,-39,48,-58,-78,-117,-146
-58,-97,-39,78,-9,-68,-39,48,-58,-78,-117,-146
-63,-97,-34,80,-14,-65,-39,48,-58,-78,-117,-146
-68,-97,-29,82,-19,-63,-39,48,-58,-78,-117,-146
-58,-97,-39,78,-9,-68,-39,48,-58,-87,-126,-156
-58,-97,-39,78,-9,-68,-39,48,-58,-87,-126,-156
-58,-97,-39,78,-9,-68,-39,48,-58,-87,-126,-156
-58,-97,-39,78,-9,-68,-39,48,-58,-87,-126,-156
-58,-97,-39,78,-9,-68,-39,48,-68,-87,-126,-151
-58,-97,-39,78,-9,-68,-39,48,-68,-87,-126,-146
-58,-97,-39,78,-9,-68,-39,48,-68,-87,-126,-141
-58,-97,-39,78,-9,-68,-39,48,-68,-87,-126,-136
-58,-97,-39,78,-9,-68,-29,48,-58,-78,-122,-136
-58,-97,-39,78,-9,-68,-29,48,-58,-78,-117,-136
-58,-97,-39,78,-9,-68,-29,48,-58,-78,-112,-136
-58,-97,-39,78,-9,-68,-29,48,-58,-78,-107,-136
-58,-87,-29,73,-14,-58,-29,48,-58,-78,-117,-136
-58,-87,-29,73,-14,-58,-29,48,-58,-78,-117,-136
-58,-87,-29,73,-14,-58,-29,48,-58,-78,-117,-136
-58,-87,-29,73,-14,-58,-29,48,-58,-78,-117,-136
-48,-97,-48,73,0,-73,-39,39,-63,-87,-117,-146
-48,-97,-48,73,0,-73,-39,39,-68,-87,-117,-146
-48,-97,-48,73,0,-73,-39,39,-73,-87,-117,-146
-48,-97,-48,73,0,-73,-39,39,-78,-87,-117,-146
-53,-97,-43,75,-4,-70,-39,39,-68,-87,-126,-146
-58,-97,-39,78,-9,-68,-39,39,-68,-87,-126,-146
-63,-97,-34,80,-14,-65,-39,39,-68,-87,-126,-146
-68,-97,-29,82,-19,-63,-39,39,-68,-87,-126,-146
-58,-97,-39,78,-9,-68,-39,39,-68,-87,-126,-146
-58,-97,-39,78,-9,-68,-39,39,-68,-87,-126,-146
-58,-97,-39,78,-9,-68,-39,39,-68,-87,-126,-146
-58,-97,-39,78,-9,-68,-39,39,-68,-87,-126,-146
-58,-107,-48,82,-4,-78,-29,48,-58,-87,-117,-136
-58,-107,-48,82,-4,-78,-29,48,-58,-87,-117,-136
-58,-107,-48,82,-4,-78,-29,48,-58,-87,-117,-136
-58,-107,-48,82,-4,-78,-29,48,-58,-87,-117,-136
-68,-107,-39,87,-14,-73,-29,48,-58,-87,-117,-136
-68,-107,-39,87,-14,-73,-29,48,-58,-87,-117,-136
-68,-107,-39,87,-14,-73,-29,48,-58,-87,-117,-136
-68,-107,-39,87,-14,-73,-29,48,-58,-87,-117,-136
-68,-97,-29,82,-19,-63,-39,39,-68,-87,-126,-136
-68,-97,-29,82,-19,-63,-39,39,-68,-87,-126,-136
-68,-97,-29,82,-19,-63,-39,39,-68,-87,-126,-136
-68,-97,-29,82,-19,-63,-39,39,-68,-87,-126,-136
-68,-97,-29,82,-19,-63,-48,39,-68,-87,-117,-146
-68,-97,-29,82,-19,-63,-48,39,-68,-87,-117,-146
-68,-97,-29,82,-19,-63,-48,39,-68,-87,-117,-146
-68,-97,-29,82,-19,-63,-48,39,-68,-87,-117,-146
-63,-92,-29,78,-17,-61,-48,29,-58,-78,-117,-146
-58,-87,-29,73,-14,-58,-48,29,-58,-78,-117,-146
-53,-82,-29,68,-12,-56,-48,29,-58,-78,-117,-146
-48,-78,-29,63,-9,-53,-48,29,-58,-78,-117,-146
-48,-82,-34,65,-7,-58,-39,39,-58,-87,-117,-136
-48,-87,-39,68,-4,-63,-39,39,-58,-87,-117,-136
-48,-92,-43,70,-2,-68,-39,39,-58,-87,-117,-136
-48,-97,-48,73,0,-73,-39,39,-58,-87,-117,-136
-58,-107,-48,82,-4,-78,-39,39,-58,-87,-117,-136
-58,-107,-48,82,-4,-78,-39,39,-58,-87,-117,-136
-58,-107,-48,82,-4,-78,-39,39,-58,-87,-117,-136
-58,-107,-48,82,-4,-78,-39,39,-58,-87,-117,-136
-63,-97,-34,80,-14,-65,-39,39,-58,-97,-126,-141
-68,-97,-29,82,-19,-63,-39,39,-58,-97,-126,-146
-73,-97,-24,85,-24,-61,-39,39,-58,-97,-126,-151
-78,-97,-19,87,-29,-58,-39,39,-58,-97,-126,-156
-63,-97,-34,80,-14,-65,-29,39,-48,-92,-117,-151
-58,-97,-39,78,-9,-68,-29,39,-48,-87,-117,-146
-53,-97,-43,75,-4,-70,-29,39,-48,-82,-117,-141
-48,-97,-48,73,0,-73,-29,39,-48,-78,-117,-136
-58,-92,-34,75,-12,-63,-29,43,-39,-68,-102,-131
-58,-87,-29,73,-14,-58,-29,48,-39,-68,-97,-126
-58,-68,-9,63,-24,-39,-29,58,-29,-63,-87,-117
-58,-58,0,58,-29,-29,-29,63,-24,-58,-78,-112
-43,-43,0,43,-21,-21,-29,63,-24,-43,-78,-97
-39,-39,0,39,-19,-19,-29,63,-19,-43,-78,-92
-39,-29,9,34,-24,-9,-29,63,-14,-39,-68,-92
-29,-24,4,26,-17,-9,-29,68,-14,-39,-63,-92
-19,-34,-14,26,-2,-24,-39,58,-14,-39,-53,-87
-14,-43,-29,29,7,-36,-43,58,-14,-39,-53,-87
-4,-43,-39,24,17,-41,-43,68,-14,-39,-53,-87
0,-43,-43,21,21,-43,-43,68,-14,-34,-53,-87
0,-34,-34,17,17,-34,-34,68,-14,-34,-58,-87
4,-39,-43,17,24,-41,-34,68,-14,-34,-58,-87
14,-39,-53,12,34,-46,-48,68,-14,-29,-58,-82
19,-34,-53,7,36,-43,-58,63,-14,-29,-63,-73
34,-34,-68,0,51,-51,-82,39,-39,-39,-73,-78
34,-34,-68,0,51,-51,-107,24,-48,-53,-73,-82
34,-29,-63,-2,48,-46,-117,14,-58,-58,-73,-87
43,-24,-68,-9,56,-46,-126,4,-63,-68,-78,-87
39,-24,-63,-7,51,-43,-117,14,-53,-58,-63,-73
34,-34,-68,0,51,-51,-112,9,-58,-58,-63,-73
29,-48,-78,9,53,-63,-112,0,-58,-68,-73,-82
24,-48,-73,12,48,-61,-107,0,-63,-78,-82,-82
24,-39,-63,7,43,-51,-102,0,-73,-87,-92,-97
29,-39,-68,4,48,-53,-97,9,-73,-82,-92,-97
34,-34,-68,0,51,-51,-92,14,-58,-73,-82,-87
34,-34,-68,0,51,-51,-78,19,-58,-68,-78,-82
43,-48,-92,2,68,-70,-87,9,-63,-78,-82,-92
53,-48,-102,-2,78,-75,-87,9,-63,-78,-82,-92
58,-48,-107,-4,82,-78,-87,19,-63,-73,-82,-92
58,-53,-112,-2,85,-82,-73,24,-58,-73,-82,-92
43,-63,-107,9,75,-85,-68,39,-48,-53,-78,-87
29,-73,-102,21,65,-87,-68,39,-48,-63,-73,-82
24,-78,-102,26,63,-90,-68,39,-53,-68,-73,-82
29,-78,-107,24,68,-92,-63,34,-53,-68,-73,-78
29,-78,-107,24,68,-92,-63,29,-63,-68,-78,-78
19,-82,-102,31,61,-92,-68,29,-63,-73,-82,-78
14,-87,-102,36,58,-95,-68,29,-63,-78,-82,-78
9,-97,-107,43,58,-102,-68,29,-63,-87,-87,-78
19,-82,-102,31,61,-92,-63,29,-53,-78,-92,-82
19,-87,-107,34,63,-97,-63,29,-58,-92,-102,-92
4,-92,-97,43,51,-95,-58,29,-63,-97,-107,-102
-14,-102,-87,58,36,-95,-48,34,-63,-97,-117,-122
-24,-112,-87,68,31,-100,-43,34,-63,-107,-126,-131
-39,-122,-82,80,21,-102,-34,39,-63,-112,-131,-141
-58,-122,-63,90,2,-92,-29,43,-63,-112,-131,-141
-58,-122,-63,90,2,-92,-29,43,-58,-112,-131,-141
-73,-126,-53,100,-9,-90,-29,43,-68,-107,-117,-131
-73,-126,-53,100,-9,-90,-29,43,-68,-102,-117,-131
-73,-126,-53,100,-9,-90,-29,43,-68,-102,-117,-131
-73,-131,-58,102,-7,-95,-34,39,-68,-102,-117,-131
-73,-131,-58,102,-7,-95,-34,39,-68,-107,-122,-136
-68,-136,-68,102,0,-102,-34,39,-78,-112,-122,-141
-68,-136,-68,102,0,-102,-34,39,-78,-112,-131,-146
-68,-136,-68,102,0,-102,-34,39,-78,-112,-131,-146
-68,-141,-73,104,2,-107,-29,39,-78,-112,-136,-146
-73,-141,-68,107,-2,-104,-29,39,-78,-112,-131,-141
-73,-141,-68,107,-2,-104,-24,39,-78,-112,-131,-141
-73,-141,-68,107,-2,-104,-24,39,-78,-112,-131,-141
-68,-136,-68,102,0,-102,-24,29,-68,-107,-131,-141
-68,-131,-63,100,-2,-97,-24,29,-63,-107,-131,-141
-73,-131,-58,102,-7,-95,-24,29,-63,-107,-131,-141
-73,-126,-53,100,-9,-90,-24,29,-58,-107,-136,-141
-78,-122,-43,100,-17,-82,-14,39,-58,-107,-126,-131
-87,-122,-34,104,-26,-78,-14,43,-58,-107,-126,-131
-97,-122,-24,109,-36,-73,-9,43,-58,-107,-126,-131
-102,-122,-19,112,-41,-70,-9,48,-58,-107,-122,-131
-92,-117,-24,104,-34,-70,-19,39,-68,-107,-131,-136
-82,-117,-34,100,-24,-75,-19,39,-68,-107,-136,-146
-78,-117,-39,97,-19,-78,-19,39,-68,-107,-136,-151
-73,-117,-43,95,-14,-80,-19,39,-68,-107,-136,-156
-87,-107,-19,97,-34,-63,-9,39,-58,-102,-122,-146
-87,-107,-19,97,-34,-63,-9,39,-58,-102,-122,-146
-82,-107,-24,95,-29,-65,-4,39,-58,-102,-122,-141
-82,-107,-24,95,-29,-65,-4,34,-58,-102,-122,-141
-92,-112,-19,102,-36,-65,-4,43,-58,-102,-112,-136
-97,-122,-24,109,-36,-73,-4,43,-58,-102,-112,-131
-102,-126,-24,114,-39,-75,-4,48,-58,-102,-112,-126
-102,-126,-24,114,-39,-75,-9,48,-58,-102,-112,-122
-97,-126,-29,112,-34,-78,-9,43,-58,-102,-117,-136
-97,-126,-29,112,-34,-78,-9,43,-58,-102,-122,-136
-97,-126,-29,112,-34,-78,-9,43,-58,-102,-126,-131
-97,-126,-29,112,-34,-78,-9,39,-58,-102,-131,-131
-97,-126,-29,112,-34,-78,-24,29,-68,-112,-131,-146
-92,-117,-24,104,-34,-70,-24,24,-58,-107,-122,-131
-73,-92,-19,82,-26,-56,-34,14,-48,-82,-102,-112
-58,-78,-19,68,-19,-48,-48,4,-58,-73,-82,-97
-53,-73,-19,63,-17,-46,-68,-9,-63,-82,-82,-97
-73,-82,-9,78,-31,-46,-82,-29,-68,-82,-92,-117
-73,-78,-4,75,-34,-41,-92,-34,-63,-78,-97,-126
-68,-63,4,65,-36,-29,-112,-48,-63,-78,-73,-97
-48,-43,4,46,-26,-19,-151,-82,-78,-68,-24,-39
-34,-9,24,21,-29,7,-200,-136,-97,-48,43,48
-9,43,53,-17,-31,48,-268,-219,-122,-4,146,180
43,112,68,-78,-12,90,-375,-341,-161,24,258,326
122,195,73,-158,24,134,-502,-488,-224,43,366,478
195,263,68,-229,63,165,-629,-624,-283,43,473,639
244,331,87,-287,78,209,-746,-736,-346,43,570,785
302,405,102,-353,100,253,-854,-844,-419,34,663,946
380,488,107,-434,136,297,-961,-941,-483,39,785,1137
468,595,126,-531,170,361,-1068,-1005,-527,97,961,1371
551,712,161,-631,195,436,-1151,-1068,-551,165,1141,1620
639,805,165,-722,236,485,-1244,-1132,-614,209,1312,1864
732,844,112,-788,309,478,-1322,-1176,-673,200,1405,2034
775,834,58,-805,358,446,-1371,-1195,-722,161,1429,2117
800,790,-9,-795,405,390,-1371,-1185,-756,97,1376,2117
819,683,-136,-751,478,273,-1342,-1146,-790,0,1234,2034
810,527,-283,-668,546,122,-1283,-1083,-834,-131,985,1810
785,351,-434,-568,610,-41,-1195,-1000,-854,-268,697,1498
717,195,-522,-456,619,-163,-1068,-912,-863,-405,375,1137
634,43,-590,-339,612,-273,-956,-844,-897,-570,19,727
517,-92,-610,-212,563,-351,-844,-800,-917,-702,-283,326
453,-161,-614,-146,534,-387,-751,-732,-888,-736,-434,112
429,-190,-619,-119,524,-405,-692,-663,-829,-732,-444,63
375,-224,-600,-75,488,-412,-634,-600,-761,-697,-429,39
287,-253,-541,-17,414,-397,-556,-536,-678,-639,-419,-34
219,-263,-483,21,351,-373,-478,-463,-600,-580,-385,-78
151,-239,-390,43,270,-314,-409,-390,-527,-507,-341,-92
97,-234,-331,68,214,-283,-331,-307,-444,-429,-307,-107
63,-244,-307,90,185,-275,-268,-234,-380,-380,-287,-126
39,-258,-297,109,168,-278,-219,-185,-326,-336,-278,-141
43,-224,-268,90,156,-246,-190,-136,-273,-292,-248,-131
29,-190,-219,80,124,-204,-165,-112,-229,-263,-229,-131
14,-180,-195,82,104,-187,-136,-87,-190,-244,-204,-131
-4,-170,-165,87,80,-168,-112,-78,-165,-214,-195,-122
-34,-170,-136,102,51,-153,-87,-53,-141,-195,-180,-112
-58,-170,-112,114,26,-141,-68,-39,-126,-175,-161,-107
-58,-161,-102,109,21,-131,-53,-4,-102,-141,-151,-112
-53,-146,-92,100,19,-119,-29,19,-78,-126,-146,-126
-48,-131,-82,90,17,-107,-14,39,-63,-126,-146,-136
-63,-117,-53,90,-4,-85,0,53,-34,-102,-131,-126
-68,-112,-43,90,-12,-78,9,63,-14,-87,-112,-112
-68,-107,-39,87,-14,-73,9,63,-9,-78,-107,-92
-68,-107,-39,87,-14,-73,9,63,-9,-78,-102,-87
-68,-92,-24,80,-21,-58,4,63,-19,-78,-97,-97
-68,-87,-19,78,-24,-53,14,78,-19,-68,-97,-102
-68,-82,-14,75,-26,-48,19,82,-9,-58,-97,-102
-78,-73,4,75,-41,-34,34,92,0,-58,-97,-102
-78,-68,9,73,-43,-29,34,97,19,-63,-107,-102
-78,-63,14,70,-46,-24,34,97,19,-63,-107,-102
-78,-58,19,68,-48,-19,34,92,19,-58,-102,-102
-78,-58,19,68,-48,-19,29,92,19,-53,-92,-102
-78,-63,14,70,-46,-24,39,92,29,-43,-87,-92
-73,-68,4,70,-39,-31,43,102,29,-43,-82,-92
-73,-73,0,73,-36,-36,43,107,29,-43,-78,-87
-82,-78,4,80,-43,-36,48,112,39,-39,-73,-87
-82,-68,14,75,-48,-26,48,112,43,-29,-68,-82
-82,-68,14,75,-48,-26,48,112,43,-24,-68,-82
-82,-68,14,75,-48,-26,48,107,48,-24,-68,-82
-82,-63,19,73,-51,-21,48,107,48,-24,-68,-78
-73,-73,0,73,-36,-36,48,97,39,-29,-73,-87
-68,-73,-4,70,-31,-39,53,107,39,-34,-73,-82
-68,-68,0,68,-34,-34,53,107,43,-34,-68,-82
-63,-68,-4,65,-29,-36,53,107,43,-34,-68,-82
-68,-68,0,68,-34,-34,63,122,53,-24,-63,-73
-78,-68,9,73,-43,-29,63,122,58,-24,-63,-73
-82,-68,14,75,-48,-26,63,122,58,-24,-63,-73
-87,-68,19,78,-53,-24,63,122,58,-24,-63,-73
-97,-78,19,87,-58,-29,63,126,58,-24,-53,-78
-97,-78,19,87,-58,-29,63,126,58,-24,-53,-78
-97,-73,24,85,-61,-24,58,126,58,-24,-53,-78
-97,-73,24,85,-61,-24,58,131,58,-19,-53,-78
-92,-68,24,80,-58,-21,48,122,58,-9,-53,-68
-87,-63,24,75,-56,-19,53,117,63,-9,-53,-63
-73,-58,14,65,-43,-21,53,117,63,-9,-53,-63
-68,-48,19,58,-43,-14,53,117,63,-9,-53,-63
-68,-39,29,53,-48,-4,63,131,63,-19,-53,-73
-68,-43,24,56,-46,-9,63,131,63,-19,-53,-73
-63,-43,19,53,-41,-12,63,131,63,-19,-53,-73
-63,-39,24,51,-43,-7,63,131,63,-14,-48,-73
-68,-43,24,56,-46,-9,63,131,63,-4,-39,-68
-73,-48,24,61,-48,-12,63,131,63,-4,-39,-58
-78,-53,24,65,-51,-14,63,131,68,-4,-34,-53
-87,-58,29,73,-58,-14,63,141,68,-4,-34,-48
-97,-58,39,78,-68,-9,73,141,68,-4,-39,-58
-97,-58,39,78,-68,-9,73,136,73,-9,-43,-58
-92,-58,34,75,-63,-12,73,136,73,-14,-48,-58
-92,-58,34,75,-63,-12,73,136,73,-19,-53,-58
-82,-58,24,70,-53,-17,63,136,73,-9,-48,-58
-82,-63,19,73,-51,-21,63,136,73,-9,-48,-58
-82,-68,14,75,-48,-26,63,136,73,-9,-43,-63
-73,-73,0,73,-36,-36,63,136,73,-9,-43,-68
-63,-68,-4,65,-29,-36,63,141,73,-4,-29,-68
-68,-63,4,65,-36,-29,68,141,73,-4,-29,-63
-68,-58,9,63,-39,-24,68,141,73,-9,-34,-63
-53,-53,0,53,-26,-26,63,141,68,-9,-34,-68
-58,-43,14,51,-36,-14,63,141,78,-9,-34,-68
-63,-43,19,53,-41,-12,63,146,87,-4,-34,-68
-82,-43,39,63,-61,-2,68,151,92,0,-29,-63
-87,-43,43,65,-65,0,73,151,92,0,-29,-63
-78,-48,29,63,-53,-9,73,141,82,0,-29,-73
-78,-53,24,65,-51,-14,73,146,82,0,-29,-73
-78,-58,19,68,-48,-19,73,146,87,0,-29,-73
-63,-63,0,63,-31,-31,73,146,87,0,-29,-73
-68,-53,14,61,-41,-19,63,146,87,0,-34,-73
-68,-53,14,61,-41,-19,63,146,87,4,-34,-73
-82,-58,24,70,-53,-17,63,151,97,4,-29,-73
-82,-58,24,70,-53,-17,68,156,97,4,-29,-73
-68,-68,0,68,-34,-34,78,165,92,4,-19,-63
-68,-68,0,68,-34,-34,78,161,92,9,-19,-63
-73,-68,4,70,-39,-31,78,161,92,9,-19,-63
-73,-68,4,70,-39,-31,78,161,97,9,-19,-63
-58,-68,-9,63,-24,-39,78,156,97,4,-24,-53
-58,-68,-9,63,-24,-39,78,156,97,0,-29,-58
-58,-68,-9,63,-24,-39,78,156,97,0,-29,-58
-58,-68,-9,63,-24,-39,82,165,97,-4,-34,-58
-78,-68,9,73,-43,-29,82,165,97,9,-24,-68
-87,-68,19,78,-53,-24,82,165,102,9,-24,-68
-97,-68,29,82,-63,-19,82,170,107,9,-24,-68
-107,-68,39,87,-73,-14,82,175,112,9,-19,-68
-92,-63,29,78,-61,-17,82,175,112,14,-29,-73
-78,-58,19,68,-48,-19,82,175,112,19,-24,-73
-73,-53,19,63,-46,-17,82,175,117,29,-24,-73
-58,-48,9,53,-34,-19,82,180,117,29,-19,-78
-53,-34,19,43,-36,-7,82,180,117,29,-19,-78
-53,-34,19,43,-36,-7,82,180,126,29,-19,-78
-53,-34,19,43,-36,-7,82,180,126,29,-14,-73
-53,-29,24,41,-39,-2,82,185,126,29,-14,-63
-68,-48,19,58,-43,-14,82,175,126,24,-4,-63
-78,-58,19,68,-48,-19,82,175,131,24,-4,-63
-87,-73,14,80,-51,-29,87,180,131,29,-4,-63
-102,-87,14,95,-58,-36,92,190,136,29,0,-63
-87,-78,9,82,-48,-34,102,195,136,39,-4,-73
-78,-58,19,68,-48,-19,102,195,136,43,4,-73
-68,-48,19,58,-43,-14,102,200,141,43,4,-73
-53,-34,19,43,-36,-7,102,200,141,48,0,-73
-63,-43,19,53,-41,-12,112,204,151,43,9,-63
-68,-43,24,56,-46,-9,122,209,156,48,19,-58
-68,-43,24,56,-46,-9,122,214,161,53,19,-53
-63,-43,19,53,-41,-12,122,214,165,53,24,-53
-73,-48,24,61,-48,-12,117,214,170,68,14,-63
-73,-53,19,63,-46,-17,117,224,175,73,19,-63
-73,-58,14,65,-43,-21,117,224,180,78,24,-58
-73,-53,19,63,-46,-17,122,224,185,82,34,-58
-53,-39,14,46,-34,-12,122,234,190,87,39,-53
-53,-29,24,41,-39,-2,126,239,200,92,43,-43
-53,-24,29,39,-41,2,126,248,204,97,48,-34
-53,-19,34,36,-43,7,136,253,209,107,53,-29
-63,0,63,31,-63,31,136,248,219,126,63,-14
-63,4,68,29,-65,36,136,258,224,136,73,-14
-63,4,68,29,-65,36,141,258,224,141,78,-9
-63,9,73,26,-68,41,141,263,229,151,87,-9
-58,9,68,24,-63,39,151,273,248,156,97,-4
-68,14,82,26,-75,48,156,278,258,170,102,-9
-58,19,78,19,-68,48,156,283,263,170,107,-14
-58,24,82,17,-70,53,156,287,278,180,117,-9
-58,24,82,17,-70,53,151,292,278,180,117,-14
-58,19,78,19,-68,48,161,297,287,180,112,-9
-53,19,73,17,-63,46,165,302,292,185,117,-9
-53,19,73,17,-63,46,165,302,292,190,117,4
-53,29,82,12,-68,56,175,312,302,204,131,24
-53,39,92,7,-73,65,185,326,317,224,151,34
-43,48,92,-2,-68,70,185,331,331,239,170,48
-39,58,97,-9,-68,78,185,341,346,253,195,53
-29,73,102,-21,-65,87,175,356,366,278,209,68
-29,82,112,-26,-70,97,185,361,380,297,234,82
-29,82,112,-26,-70,97,190,366,390,307,248,92
-34,87,122,-26,-78,104,195,375,400,322,273,102
-39,92,131,-26,-85,112,204,380,400,331,273,112
-34,107,141,-36,-87,124,204,380,405,341,287,122
-34,107,141,-36,-87,124,204,380,414,351,297,126
-34,117,151,-41,-92,134,204,385,424,366,312,141
-14,122,136,-53,-75,129,204,390,444,385,326,156
-14,126,141,-56,-78,134,204,395,453,395,341,165
-14,131,146,-58,-80,139,204,400,463,400,356,175
-14,131,146,-58,-80,139,204,400,473,414,366,185
-19,146,165,-63,-92,156,200,400,473,439,390,195
-9,165,175,-78,-92,170,200,400,483,448,405,214
-4,170,175,-82,-90,173,195,400,492,458,419,224
0,180,180,-90,-90,180,190,400,492,468,434,239
-9,200,209,-95,-109,204,195,400,507,488,453,253
-9,209,219,-100,-114,214,195,400,512,497,468,268
-9,214,224,-102,-117,219,190,395,517,507,488,283
-14,224,239,-104,-126,231,180,395,517,512,497,297
9,239,229,-124,-109,234,170,385,502,507,488,292
19,239,219,-129,-100,229,165,375,502,507,497,307
24,244,219,-134,-97,231,151,375,497,507,502,317
29,244,214,-136,-92,229,141,366,492,512,512,331
19,244,224,-131,-102,234,141,361,502,522,527,346
29,248,219,-139,-95,234,131,351,492,522,531,356
39,253,214,-146,-87,234,126,341,488,517,541,366
39,253,214,-146,-87,234,126,331,483,512,541,370
48,263,214,-156,-82,239,107,312,473,507,541,390
48,273,224,-161,-87,248,97,297,463,497,536,400
48,273,224,-161,-87,248,87,283,448,492,536,405
58,273,214,-165,-78,244,78,263,439,483,536,405
68,263,195,-165,-63,229,68,258,424,463,522,405
68,248,180,-158,-56,214,58,248,409,448,517,405
68,248,180,-158,-56,214,48,234,395,434,502,409
68,248,180,-158,-56,214,34,219,375,409,492,409
63,239,175,-151,-56,207,34,209,361,400,473,400
58,234,175,-146,-58,204,29,195,341,380,458,390
53,229,175,-141,-61,202,24,175,326,361,444,370
48,214,165,-131,-58,190,14,165,312,341,429,366
43,204,161,-124,-58,183,4,151,292,326,419,361
43,204,161,-124,-58,183,4,141,273,307,400,361
48,190,141,-119,-46,165,0,126,258,292,385,351
58,190,131,-124,-36,161,-9,117,244,273,366,346
48,180,131,-114,-41,156,-9,117,234,253,346,331
48,165,117,-107,-34,141,-14,107,219,234,331,317
43,151,107,-97,-31,129,-19,97,204,214,307,302
39,136,97,-87,-29,117,-19,87,190,200,292,287
29,131,102,-80,-36,117,-19,82,175,175,268,268
24,122,97,-73,-36,109,-19,73,165,161,248,253
19,117,97,-68,-39,107,-19,68,156,141,239,239
14,102,87,-58,-36,95,-24,58,136,131,219,219
19,87,68,-53,-24,78,-24,43,117,107,185,190
14,78,63,-46,-24,70,-24,43,102,82,161,180
19,68,48,-43,-14,58,-19,43,97,68,136,161
14,58,43,-36,-14,51,-19,43,87,43,112,146
0,53,53,-26,-26,53,-19,39,78,39,102,131
-4,39,43,-17,-24,41,-19,34,68,24,87,112
-9,29,39,-9,-24,34,-19,29,63,14,73,107
-19,24,43,-2,-31,34,-14,29,53,4,63,97
-24,4,29,9,-26,17,-4,39,58,0,43,102
-24,0,24,12,-24,12,-4,39,48,-14,34,87
-24,-9,14,17,-19,2,-4,34,43,-24,19,78
-29,-19,9,24,-19,-4,-4,29,34,-34,4,63
-48,-34,14,41,-31,-9,4,39,39,-34,4,48
-58,-43,14,51,-36,-14,4,39,39,-34,4,39
-68,-53,14,61,-41,-19,9,39,29,-43,0,29
-73,-58,14,65,-43,-21,9,39,24,-53,-9,19
-68,-58,9,63,-39,-24,0,24,19,-68,-29,0
-63,-58,4,61,-34,-26,0,24,14,-73,-34,-4
-53,-63,-9,58,-21,-36,0,24,9,-82,-43,-19
-48,-73,-24,61,-12,-48,0,19,0,-97,-53,-29
-58,-87,-29,73,-14,-58,9,29,4,-102,-58,-29
-58,-92,-34,75,-12,-63,9,29,4,-97,-63,-29
-53,-97,-43,75,-4,-70,14,29,4,-97,-58,-19
-53,-102,-48,78,-2,-75,14,34,4,-92,-53,-9
-58,-97,-39,78,-9,-68,4,34,14,-92,-53,-19
-68,-92,-24,80,-21,-58,9,34,9,-92,-58,-24
-68,-87,-19,78,-24,-53,9,34,9,-92,-63,-29
-68,-87,-19,78,-24,-53,9,34,9,-102,-68,-34
-63,-78,-14,70,-24,-46,9,24,0,-102,-82,-48
-58,-78,-19,68,-19,-48,9,24,0,-102,-82,-48
-53,-78,-24,65,-14,-51,9,29,0,-102,-78,-48
-53,-82,-29,68,-12,-56,9,29,0,-102,-78,-53
-63,-97,-34,80,-14,-65,24,29,-9,-112,-92,-58
-68,-97,-29,82,-19,-63,24,29,-9,-112,-92,-58
-63,-97,-34,80,-14,-65,24,29,-9,-112,-92,-53
-68,-102,-34,85,-17,-68,24,29,-9,-112,-92,-53
-73,-97,-24,85,-24,-61,29,39,0,-112,-92,-53
-73,-97,-24,85,-24,-61,29,39,0,-112,-92,-58
-63,-97,-34,80,-14,-65,29,39,0,-112,-97,-58
-78,-97,-19,87,-29,-58,29,39,0,-112,-97,-63
-92,-102,-9,97,-41,-56,34,43,0,-112,-102,-63
-92,-102,-9,97,-41,-56,34,43,-4,-117,-97,-63
-82,-107,-24,95,-29,-65,29,39,-4,-117,-97,-63
-82,-107,-24,95,-29,-65,29,39,-4,-112,-92,-63
-78,-107,-29,92,-24,-68,19,29,-9,-112,-102,-63
-82,-107,-24,95,-29,-65,19,34,-9,-107,-97,-63
-82,-107,-24,95,-29,-65,24,34,-4,-107,-97,-58
-78,-107,-29,92,-24,-68,24,34,-4,-107,-97,-58
-78,-102,-24,90,-26,-63,34,34,-4,-107,-97,-63
-73,-102,-29,87,-21,-65,34,34,-4,-112,-102,-63
-73,-102,-29,87,-21,-65,39,34,-4,-112,-102,-63
-73,-107,-34,90,-19,-70,39,34,-4,-112,-97,-63
-82,-117,-34,100,-24,-75,34,43,-4,-107,-97,-63
-87,-117,-29,102,-29,-73,34,39,-4,-107,-102,-63
-92,-117,-24,104,-34,-70,34,39,-4,-107,-102,-63
-92,-117,-24,104,-34,-70,34,39,-4,-107,-102,-58
-78,-107,-29,92,-24,-68,24,34,-14,-117,-102,-58
-78,-102,-24,90,-26,-63,24,34,-14,-117,-102,-58
-73,-102,-29,87,-21,-65,24,34,-14,-112,-102,-58
-68,-97,-29,82,-19,-63,24,34,-14,-112,-102,-58
-82,-87,-4,85,-39,-46,39,34,0,-97,-97,-53
-78,-87,-9,82,-34,-48,39,34,0,-97,-92,-53
-82,-87,-4,85,-39,-46,39,34,0,-102,-92,-53
-87,-87,0,87,-43,-43,34,34,0,-102,-92,-53
-78,-97,-19,87,-29,-58,34,43,0,-102,-82,-43
-78,-97,-19,87,-29,-58,34,43,0,-102,-82,-43
-78,-97,-19,87,-29,-58,34,43,0,-102,-82,-43
-78,-97,-19,87,-29,-58,34,39,0,-102,-82,-43
-73,-97,-24,85,-24,-61,24,29,-9,-112,-92,-43
-68,-97,-29,82,-19,-63,24,34,-9,-107,-92,-48
-63,-97,-34,80,-14,-65,24,34,-9,-107,-92,-53
-63,-97,-34,80,-14,-65,24,34,-9,-107,-92,-58
-68,-107,-39,87,-14,-73,24,34,-4,-107,-92,-58
-73,-107,-34,90,-19,-70,24,34,-4,-107,-87,-53
-73,-107,-34,90,-19,-70,24,34,-4,-102,-87,-53
-78,-107,-29,92,-24,-68,24,34,-4,-102,-87,-48
-87,-107,-19,97,-34,-63,34,43,4,-92,-73,-48
-87,-107,-19,97,-34,-63,34,43,0,-92,-73,-48
-87,-112,-24,100,-31,-68,34,43,0,-97,-78,-48
-87,-112,-24,100,-31,-68,39,43,0,-97,-78,-48
-82,-102,-19,92,-31,-61,29,43,0,-97,-78,-58
-78,-97,-19,87,-29,-58,29,43,0,-92,-78,-53
-73,-97,-24,85,-24,-61,29,43,0,-92,-78,-53
-73,-97,-24,85,-24,-61,24,39,0,-92,-78,-58
-63,-97,-34,80,-14,-65,24,39,-4,-92,-73,-48
-63,-97,-34,80,-14,-65,29,39,-4,-92,-73,-48
-63,-97,-34,80,-14,-65,29,39,-4,-92,-78,-48
-68,-102,-34,85,-17,-68,29,39,-4,-97,-78,-48
-73,-102,-29,87,-21,-65,19,29,-4,-97,-78,-58
-78,-102,-24,90,-26,-63,19,29,-4,-97,-78,-58
-82,-102,-19,92,-31,-61,19,29,-4,-97,-78,-58
-87,-102,-14,95,-36,-58,14,29,-9,-97,-78,-58
-78,-92,-14,85,-31,-53,24,29,-9,-97,-87,-68
-78,-92,-14,85,-31,-53,24,29,-4,-97,-87,-68
-78,-92,-14,85,-31,-53,19,29,-4,-97,-87,-68
-73,-92,-19,82,-26,-56,19,24,-9,-97,-92,-68
-73,-87,-14,80,-29,-51,19,24,-9,-97,-82,-58
-73,-87,-14,80,-29,-51,19,24,-9,-97,-82,-58
-73,-87,-14,80,-29,-51,19,29,-9,-97,-82,-58
-73,-87,-14,80,-29,-51,19,29,-9,-97,-78,-58
-73,-87,-14,80,-29,-51,24,34,0,-92,-78,-58
-73,-97,-24,85,-24,-61,24,34,-4,-92,-78,-63
-78,-97,-19,87,-29,-58,19,34,-4,-92,-78,-63
-78,-97,-19,87,-29,-58,19,34,-4,-92,-78,-58
-68,-92,-24,80,-21,-58,14,34,-14,-92,-87,-58
-68,-87,-19,78,-24,-53,14,34,-14,-92,-87,-58
-68,-82,-14,75,-26,-48,9,34,-14,-92,-87,-58
-68,-78,-9,73,-29,-43,9,29,-14,-92,-92,-63
-53,-78,-24,65,-14,-51,9,19,-24,-102,-92,-63
-53,-78,-24,65,-14,-51,9,24,-24,-102,-92,-63
-58,-78,-19,68,-19,-48,9,24,-24,-102,-92,-63
-58,-78,-19,68,-19,-48,9,24,-24,-107,-92,-68
-63,-82,-19,73,-21,-51,14,24,-19,-97,-92,-63
-68,-87,-19,78,-24,-53,19,29,-19,-97,-87,-58
-73,-92,-19,82,-26,-56,24,34,-19,-97,-82,-53
-73,-97,-24,85,-24,-61,24,34,-24,-97,-78,-48
-82,-102,-19,92,-31,-61,24,24,-24,-97,-82,-63
-82,-107,-24,95,-29,-65,24,29,-19,-102,-87,-63
-82,-112,-29,97,-26,-70,24,29,-19,-102,-92,-63
-82,-117,-34,100,-24,-75,29,29,-19,-102,-97,-63
-73,-117,-43,95,-14,-80,19,29,-19,-102,-87,-58
-73,-112,-39,92,-17,-75,14,24,-24,-102,-87,-53
-73,-107,-34,90,-19,-70,14,24,-24,-102,-87,-48
-73,-102,-29,87,-21,-65,14,24,-24,-102,-87,-43
-68,-112,-43,90,-12,-78,14,14,-34,-102,-92,-53
-68,-112,-43,90,-12,-78,14,14,-34,-97,-92,-63
-68,-112,-43,90,-12,-78,19,19,-34,-97,-92,-63
-63,-107,-43,85,-9,-75,19,19,-34,-97,-92,-63
-68,-107,-39,87,-14,-73,14,19,-34,-102,-92,-63
-68,-112,-43,90,-12,-78,14,19,-34,-107,-97,-68
-78,-112,-34,95,-21,-73,19,19,-34,-107,-97,-68
-78,-112,-34,95,-21,-73,19,19,-34,-102,-97,-63
-73,-112,-39,92,-17,-75,19,19,-39,-102,-97,-63
-73,-117,-43,95,-14,-80,14,19,-39,-107,-97,-63
-68,-117,-48,92,-9,-82,14,19,-39,-107,-97,-63
-68,-117,-48,92,-9,-82,19,19,-39,-107,-97,-63
-58,-112,-53,85,-2,-82,19,14,-29,-107,-87,-58
-58,-112,-53,85,-2,-82,14,14,-34,-107,-87,-58
-58,-112,-53,85,-2,-82,14,14,-34,-102,-87,-58
-58,-112,-53,85,-2,-82,14,14,-29,-102,-87,-58
-68,-107,-39,87,-14,-73,14,14,-29,-92,-97,-68
-68,-102,-34,85,-17,-68,14,14,-29,-92,-97,-68
-68,-97,-29,82,-19,-63,14,4,-29,-97,-97,-68
-68,-97,-29,82,-19,-63,14,4,-39,-97,-97,-68
-78,-97,-19,87,-29,-58,4,4,-48,-102,-107,-73
-87,-102,-14,95,-36,-58,4,4,-48,-107,-107,-73
-87,-102,-14,95,-36,-58,4,4,-43,-112,-107,-63
-97,-102,-4,100,-46,-53,9,4,-39,-117,-107,-63
-87,-112,-24,100,-31,-68,19,14,-29,-107,-97,-53
-78,-112,-34,95,-21,-73,9,14,-34,-107,-97,-53
-78,-107,-29,92,-24,-68,9,9,-34,-112,-97,-53
-63,-102,-39,82,-12,-70,9,9,-43,-112,-102,-63
-63,-92,-29,78,-17,-61,9,19,-24,-92,-92,-63
-78,-92,-14,85,-31,-53,19,14,-29,-107,-102,-58
-92,-92,0,92,-46,-46,24,9,-34,-107,-107,-58
-78,-82,-4,80,-36,-43,14,14,-24,-87,-97,-58
-48,-87,-39,68,-4,-63,19,9,-19,-87,-97,-58
-58,-97,-39,78,-9,-68,19,19,-29,-92,-107,-58
-58,-107,-48,82,-4,-78,19,19,-29,-97,-107,-58
-58,-117,-58,87,0,-87,19,19,-29,-102,-107,-58
-58,-126,-68,92,4,-97,19,19,-29,-107,-107,-58
-68,-136,-68,102,0,-102,19,19,-39,-107,-97,-58
-68,-136,-68,102,0,-102,19,19,-39,-107,-97,-58
-68,-136,-68,102,0,-102,19,19,-39,-107,-97,-58
-68,-136,-68,102,0,-102,19,19,-39,-107,-97,-58
-73,-136,-63,104,-4,-100,9,9,-39,-107,-107,-58
-78,-136,-58,107,-9,-97,9,9,-39,-107,-107,-58
-82,-136,-53,109,-14,-95,9,9,-39,-107,-107,-58
-87,-136,-48,112,-19,-92,9,9,-39,-107,-107,-58
-87,-126,-39,107,-24,-82,19,9,-39,-107,-107,-68
-87,-126,-39,107,-24,-82,19,9,-39,-107,-107,-68
-87,-126,-39,107,-24,-82,19,9,-39,-107,-107,-68
-87,-126,-39,107,-24,-82,19,9,-39,-107,-107,-68
-73,-136,-63,104,-4,-100,9,9,-48,-117,-107,-68
-68,-136,-68,102,0,-102,9,9,-48,-117,-107,-68
-63,-136,-73,100,4,-104,9,9,-48,-117,-107,-68
-58,-136,-78,97,9,-107,9,9,-48,-117,-107,-68
-73,-131,-58,102,-7,-95,9,9,-39,-107,-107,-68
-78,-126,-48,102,-14,-87,9,9,-39,-107,-107,-68
-82,-122,-39,102,-21,-80,9,9,-39,-107,-107,-68
-87,-117,-29,102,-29,-73,9,9,-39,-107,-107,-68
-87,-117,-29,102,-29,-73,9,9,-39,-107,-107,-78
-87,-117,-29,102,-29,-73,9,9,-39,-107,-107,-78
-87,-117,-29,102,-29,-73,9,9,-39,-107,-107,-78
-87,-117,-29,102,-29,-73,9,9,-39,-107,-107,-78
-78,-117,-39,97,-19,-78,0,0,-39,-97,-107,-78
-78,-117,-39,97,-19,-78,0,0,-39,-97,-107,-78
-78,-117,-39,97,-19,-78,0,0,-39,-97,-107,-78
-78,-117,-39,97,-19,-78,0,0,-39,-97,-107,-78
-87,-126,-39,107,-24,-82,9,9,-39,-97,-97,-78
-87,-126,-39,107,-24,-82,9,9,-39,-97,-97,-78
-87,-126,-39,107,-24,-82,9,9,-39,-97,-97,-78
-87,-126,-39,107,-24,-82,9,9,-39,-97,-97,-78
-73,-126,-53,100,-9,-90,0,0,-39,-97,-107,-78
-68,-126,-58,97,-4,-92,0,0,-39,-97,-107,-78
-63,-126,-63,95,0,-95,0,0,-39,-97,-107,-78
-58,-126,-68,92,4,-97,0,0,-39,-97,-107,-78
-73,-117,-43,95,-14,-80,9,9,-39,-97,-107,-87
-78,-117,-39,97,-19,-78,9,9,-39,-97,-107,-87
-82,-117,-34,100,-24,-75,9,9,-39,-97,-107,-87
-87,-117,-29,102,-29,-73,9,9,-39,-97,-107,-87
-97,-122,-24,109,-36,-73,9,0,-39,-97,-107,-87
-97,-126,-29,112,-34,-78,9,0,-39,-97,-107,-87
-97,-131,-34,114,-31,-82,9,0,-39,-97,-107,-87
-97,-136,-39,117,-29,-87,9,0,-39,-97,-107,-87
-87,-136,-48,112,-19,-92,9,0,-48,-107,-107,-97
-87,-136,-48,112,-19,-92,9,0,-48,-107,-107,-97
-87,-136,-48,112,-19,-92,9,0,-48,-107,-107,-97
-87,-136,-48,112,-19,-92,9,0,-48,-107,-107,-97
-78,-131,-53,104,-12,-92,0,0,-48,-97,-97,-107
-78,-126,-48,102,-14,-87,0,0,-48,-97,-97,-107
-78,-122,-43,100,-17,-82,0,0,-48,-97,-97,-107
-78,-117,-39,97,-19,-78,0,0,-48,-97,-97,-107
-87,-122,-34,104,-26,-78,0,0,-48,-107,-102,-107
-87,-126,-39,107,-24,-82,0,0,-48,-107,-107,-107
-87,-131,-43,109,-21,-87,0,0,-48,-107,-112,-107
-87,-136,-48,112,-19,-92,0,0,-48,-107,-117,-107
-97,-136,-39,117,-29,-87,0,0,-48,-97,-107,-97
-97,-136,-39,117,-29,-87,0,0,-48,-97,-107,-97
-97,-136,-39,117,-29,-87,0,0,-48,-97,-107,-97
-97,-136,-39,117,-29,-87,0,0,-48,-97,-107,-97
-97,-146,-48,122,-24,-97,9,0,-48,-97,-97,-97
-97,-146,-48,122,-24,-97,9,0,-48,-97,-97,-97
-97,-146,-48,122,-24,-97,9,0,-48,-97,-97,-97
-97,-146,-48,122,-24,-97,9,0,-48,-97,-97,-97
-87,-136,-48,112,-19,-92,0,-9,-48,-107,-102,-107
-87,-136,-48,112,-19,-92,0,-9,-48,-107,-107,-107
-87,-136,-48,112,-19,-92,0,-9,-48,-107,-112,-107
-87,-136,-48,112,-19,-92,0,-9,-48,-107,-117,-107
-97,-136,-39,117,-29,-87,0,-9,-48,-97,-107,-107
-97,-136,-39,117,-29,-87,0,-9,-48,-97,-107,-107
-97,-136,-39,117,-29,-87,0,-9,-48,-97,-107,-107
-97,-136,-39,117,-29,-87,0,-9,-48,-97,-107,-107
-97,-136,-39,117,-29,-87,0,-9,-48,-97,-107,-97
-97,-136,-39,117,-29,-87,0,-9,-48,-97,-107,-97
-97,-136,-39,117,-29,-87,0,-9,-48,-97,-107,-97
-97,-136,-39,117,-29,-87,0,-9,-48,-97,-107,-97
-92,-136,-43,114,-24,-90,-9,-19,-48,-107,-117,-97
-87,-136,-48,112,-19,-92,-9,-19,-48,-107,-117,-97
-82,-136,-53,109,-14,-95,-9,-19,-48,-107,-117,-97
-78,-136,-58,107,-9,-97,-9,-19,-48,-107,-117,-97
-92,-136,-43,114,-24,-90,0,-9,-48,-97,-107,-87
-97,-136,-39,117,-29,-87,0,-9,-48,-97,-107,-87
-102,-136,-34,119,-34,-85,0,-9,-48,-97,-107,-87
-107,-136,-29,122,-39,-82,0,-9,-48,-97,-107,-87
-97,-126,-29,112,-34,-78,0,0,-39,-87,-97,-78
-97,-126,-29,112,-34,-78,0,0,-39,-87,-97,-78
-97,-126,-29,112,-34,-78,0,0,-39,-87,-97,-78
-97,-126,-29,112,-34,-78,0,0,-39,-87,-97,-78
-82,-112,-29,97,-26,-70,-9,-9,-39,-78,-87,-68
-78,-107,-29,92,-24,-68,-9,-9,-39,-78,-87,-68
-73,-102,-29,87,-21,-65,-9,-9,-39,-78,-87,-68
-68,-97,-29,82,-19,-63,-9,-9,-39,-78,-87,-68
-78,-82,-4,80,-36,-43,-9,4,-19,-63,-82,-53
-78,-78,0,78,-39,-39,-9,4,-14,-58,-78,-53
-73,-68,4,70,-39,-31,-9,4,-14,-53,-78,-48
-68,-68,0,68,-34,-34,-9,4,-9,-53,-78,-43
-78,-63,14,70,-46,-24,-9,-4,-4,-48,-68,-34
-68,-63,4,65,-36,-29,-9,0,-4,-48,-63,-34
-63,-63,0,63,-31,-31,-9,0,-4,-48,-63,-29
-63,-73,-9,68,-26,-41,-14,0,-4,-48,-63,-29
-48,-82,-34,65,-7,-58,-14,9,-4,-58,-63,-29
-48,-82,-34,65,-7,-58,-14,9,-4,-53,-63,-29
-43,-82,-39,63,-2,-61,-14,9,-4,-53,-63,-29
-34,-87,-53,61,9,-70,-14,9,-4,-53,-58,-29
-19,-87,-68,53,24,-78,-39,4,-14,-48,-53,-24
-9,-82,-73,46,31,-78,-48,-4,-14,-48,-53,-14
-4,-82,-78,43,36,-80,-63,-24,-29,-53,-53,-14
-4,-82,-78,43,36,-80,-87,-43,-39,-63,-53,-14
4,-73,-78,34,41,-75,-87,-53,-48,-63,-53,-4
14,-63,-78,24,46,-70,-97,-63,-53,-68,-58,0
14,-58,-73,21,43,-65,-97,-63,-58,-73,-58,0
14,-63,-78,24,46,-70,-92,-68,-68,-78,-63,-4
0,-87,-87,43,43,-87,-82,-73,-63,-87,-68,-19
-4,-87,-82,46,39,-85,-78,-68,-73,-97,-82,-24
-14,-87,-73,51,29,-80,-73,-63,-73,-92,-82,-29
-19,-87,-68,53,24,-78,-68,-48,-73,-82,-82,-29
-9,-82,-73,46,31,-78,-73,-43,-58,-82,-82,-29
-14,-82,-68,48,26,-75,-58,-39,-58,-78,-78,-24
-14,-87,-73,51,29,-80,-68,-39,-53,-78,-73,-24
-4,-87,-82,46,39,-85,-68,-39,-53,-78,-73,-24
0,-87,-87,43,43,-87,-58,-29,-53,-73,-63,-14
0,-92,-92,46,46,-92,-43,-24,-48,-73,-63,-14
-9,-92,-82,51,36,-87,-39,-19,-48,-63,-63,-14
-19,-102,-82,61,31,-92,-39,-19,-48,-73,-63,-14
-24,-107,-82,65,29,-95,-48,-19,-53,-78,-68,-29
-19,-107,-87,63,34,-97,-43,-24,-53,-78,-73,-29
-24,-102,-78,63,26,-90,-43,-29,-53,-73,-73,-29
-39,-102,-63,70,12,-82,-48,-29,-53,-73,-73,-29
-29,-102,-73,65,21,-87,-48,-39,-53,-73,-68,-29
-29,-107,-78,68,24,-92,-48,-39,-53,-78,-68,-29
-24,-107,-82,65,29,-95,-43,-39,-53,-78,-73,-34
-19,-117,-97,68,39,-107,-43,-39,-58,-92,-82,-43
-39,-136,-97,87,29,-117,-39,-39,-63,-107,-97,-53
-63,-151,-87,107,12,-119,-29,-34,-63,-107,-107,-73
-78,-161,-82,119,2,-122,-24,-34,-63,-117,-117,-82
-97,-170,-73,134,-12,-122,-14,-29,-63,-122,-122,-92
-107,-170,-63,139,-21,-117,-9,-24,-73,-112,-122,-92
-107,-170,-63,139,-21,-117,-9,-24,-68,-112,-122,-92
-112,-170,-58,141,-26,-114,-9,-24,-68,-107,-117,-92
-112,-165,-53,139,-29,-109,-9,-24,-68,-102,-117,-92
-112,-161,-48,136,-31,-104,-19,-34,-68,-112,-117,-92
-112,-161,-48,136,-31,-104,-24,-39,-68,-112,-117,-92
-102,-170,-68,136,-17,-119,-24,-39,-68,-117,-122,-97
-97,-175,-78,136,-9,-126,-24,-39,-78,-122,-122,-102
-97,-175,-78,136,-9,-126,-24,-39,-68,-112,-122,-97
-97,-175,-78,136,-9,-126,-24,-39,-68,-112,-122,-97
-107,-170,-63,139,-21,-117,-19,-39,-68,-112,-117,-97
-112,-170,-58,141,-26,-114,-19,-39,-68,-112,-112,-92
-102,-161,-58,131,-21,-109,-14,-39,-68,-112,-122,-102
-102,-161,-58,131,-21,-109,-14,-39,-68,-112,-122,-102
-107,-161,-53,134,-26,-107,-14,-39,-68,-107,-122,-102
-107,-161,-53,134,-26,-107,-14,-39,-63,-107,-122,-102
-112,-165,-53,139,-29,-109,-14,-39,-73,-107,-122,-102
-112,-165,-53,139,-29,-109,-14,-39,-68,-107,-126,-102
-112,-161,-48,136,-31,-104,-14,-39,-68,-107,-126,-102
-117,-161,-43,139,-36,-102,-14,-34,-68,-107,-126,-102
-131,-170,-39,151,-46,-104,-9,-43,-68,-107,-126,-102
-131,-170,-39,151,-46,-104,-9,-39,-68,-107,-122,-102
-126,-165,-39,146,-43,-102,-9,-39,-68,-107,-122,-102
-122,-165,-43,143,-39,-104,-9,-39,-68,-107,-126,-107
-131,-156,-24,143,-53,-90,-9,-29,-58,-97,-117,-97
-131,-156,-24,143,-53,-90,-9,-29,-58,-97,-117,-97
-136,-156,-19,146,-58,-87,-9,-29,-58,-92,-112,-97
-136,-156,-19,146,-58,-87,-9,-29,-58,-92,-112,-97
-126,-156,-29,141,-48,-92,-14,-39,-68,-102,-122,-102
-122,-156,-34,139,-43,-95,-14,-43,-68,-102,-122,-102
-117,-156,-39,136,-39,-97,-14,-43,-68,-102,-122,-102
-117,-161,-43,139,-36,-102,-14,-43,-68,-102,-122,-102
-112,-161,-48,136,-31,-104,-14,-48,-68,-112,-122,-102
-112,-156,-43,134,-34,-100,-19,-48,-68,-112,-122,-102
-107,-156,-48,131,-29,-102,-19,-53,-68,-112,-122,-107
-107,-156,-48,131,-29,-102,-19,-53,-68,-112,-122,-107
-156,-156,0,156,-78,-78,-9,-43,-58,-102,-112,-92
-136,-156,-19,146,-58,-87,-9,-48,-58,-92,-112,-82
-117,-136,-19,126,-48,-78,-34,-58,-68,-92,-112,-78
-122,-136,-14,129,-53,-75,-43,-73,-68,-78,-92,-63
-112,-131,-19,122,-46,-75,-53,-82,-68,-73,-73,-53
-87,-126,-39,107,-24,-82,-68,-102,-78,-82,-73,-58
-92,-122,-29,107,-31,-75,-87,-126,-92,-92,-92,-68
-102,-122,-19,112,-41,-70,-102,-136,-97,-92,-92,-68
-92,-97,-4,95,-43,-51,-112,-151,-82,-68,-58,-39
-68,-53,14,61,-41,-19,-161,-195,-92,-58,-4,19
-48,-14,34,31,-41,9,-219,-258,-126,-48,53,97
-34,39,73,-2,-53,56,-307,-361,-156,-29,141,204
-9,112,122,-51,-65,117,-405,-483,-200,-4,253,356
34,190,156,-112,-61,173,-522,-624,-278,4,375,512
82,263,180,-173,-48,222,-649,-751,-361,4,492,673
146,361,214,-253,-34,287,-756,-868,-429,24,610,844
224,468,244,-346,-9,356,-863,-971,-492,34,736,1039
302,580,278,-441,12,429,-951,-1039,-536,73,888,1259
370,683,312,-527,29,497,-1039,-1107,-561,146,1078,1507
429,800,370,-614,29,585,-1127,-1161,-595,204,1273,1771
492,888,395,-690,48,641,-1200,-1215,-629,253,1444,2010
561,932,370,-746,95,651,-1263,-1239,-663,258,1556,2196
614,932,317,-773,148,624,-1283,-1244,-692,229,1590,2278
629,893,263,-761,183,578,-1273,-1215,-712,200,1566,2313
653,800,146,-727,253,473,-1244,-1156,-727,136,1444,2264
673,653,-19,-663,346,317,-1205,-1088,-761,0,1195,2054
653,458,-195,-556,424,131,-1117,-1015,-805,-161,868,1751
600,292,-307,-446,453,-7,-1000,-932,-824,-317,531,1400
541,117,-424,-329,483,-153,-893,-863,-854,-502,151,980
468,-53,-522,-207,495,-287,-800,-814,-888,-668,-195,551
409,-161,-570,-124,490,-366,-717,-761,-858,-722,-361,307
375,-170,-546,-102,461,-358,-663,-702,-790,-678,-346,268
351,-170,-522,-90,436,-346,-614,-644,-732,-614,-317,239
307,-204,-512,-51,409,-358,-546,-580,-653,-570,-312,156
219,-214,-434,-2,326,-324,-458,-507,-580,-512,-302,82
122,-214,-336,46,229,-275,-380,-434,-502,-444,-278,48
53,-219,-273,82,163,-246,-312,-361,-429,-390,-253,24
0,-244,-244,122,122,-244,-244,-287,-356,-331,-229,-9
-14,-263,-248,139,117,-256,-200,-244,-292,-292,-219,-29
0,-239,-239,119,119,-239,-180,-214,-258,-268,-200,-43
4,-214,-219,104,112,-217,-151,-185,-214,-234,-190,-63
-9,-200,-190,104,90,-195,-126,-161,-180,-204,-180,-63
-24,-190,-165,107,70,-178,-97,-136,-161,-175,-165,-73
-43,-180,-136,112,46,-158,-82,-136,-146,-165,-165,-73
-63,-180,-117,122,26,-148,-68,-122,-131,-156,-151,-82
-68,-170,-102,119,17,-136,-48,-97,-117,-146,-151,-97
-68,-161,-92,114,12,-126,-34,-73,-92,-131,-141,-102
-82,-146,-63,114,-9,-104,-19,-58,-68,-117,-136,-117
-78,-141,-63,109,-7,-102,-4,-58,-43,-87,-126,-117
-82,-126,-43,104,-19,-85,0,-53,-24,-63,-102,-97
-97,-112,-14,104,-41,-63,9,-34,-4,-48,-82,-73
-107,-117,-9,112,-48,-63,9,-34,-9,-39,-78,-73
-97,-117,-19,107,-39,-68,9,-34,-19,-48,-82,-68
-87,-107,-19,97,-34,-63,4,-34,-9,-53,-87,-73
-87,-107,-19,97,-34,-63,14,-19,-9,-48,-87,-82
-87,-107,-19,97,-34,-63,19,-14,0,-43,-87,-87
-97,-102,-4,100,-46,-53,34,-4,9,-48,-87,-92
-87,-97,-9,92,-39,-53,24,-9,9,-34,-87,-92
-87,-92,-4,90,-41,-48,24,-9,9,-34,-87,-92
-87,-87,0,87,-43,-43,24,-14,9,-29,-82,-92
-87,-87,0,87,-43,-43,19,-14,9,-24,-73,-92
-87,-97,-9,92,-39,-53,29,-4,9,-24,-73,-82
-82,-97,-14,90,-34,-56,34,4,9,-24,-73,-82
-82,-97,-14,90,-34,-56,34,9,9,-24,-73,-78
-92,-97,-4,95,-43,-51,39,14,19,-19,-73,-78
-97,-97,0,97,-48,-48,39,14,24,-19,-68,-73
-102,-97,4,100,-53,-46,39,14,24,-14,-68,-73
-107,-97,9,102,-58,-43,39,9,29,-14,-68,-73
-112,-92,19,102,-65,-36,39,9,29,-14,-68,-68
-102,-92,9,97,-56,-41,39,9,29,-14,-63,-68
-97,-92,4,95,-51,-43,43,19,29,-14,-63,-63
-97,-87,9,92,-53,-39,43,19,34,-9,-58,-63
-92,-87,4,90,-48,-41,43,19,34,-4,-58,-63
-97,-78,19,87,-58,-29,43,14,34,-4,-53,-63
-107,-78,29,92,-68,-24,43,14,39,-4,-53,-63
-112,-78,34,95,-73,-21,43,14,39,-4,-53,-63
-117,-78,39,97,-78,-19,43,14,39,-4,-53,-63
-102,-68,34,85,-68,-17,53,19,39,-4,-53,-58
-97,-68,29,82,-63,-19,53,19,39,-4,-53,-58
-92,-63,29,78,-61,-17,48,19,39,-4,-53,-58
-87,-63,24,75,-56,-19,48,24,39,0,-53,-58
-78,-63,14,70,-46,-24,39,24,39,0,-53,-58
-78,-63,14,70,-46,-24,43,19,43,0,-53,-53
-68,-63,4,65,-36,-29,43,19,43,0,-53,-53
-68,-58,9,63,-39,-24,43,19,43,0,-53,-53
-78,-68,9,73,-43,-29,43,24,43,0,-53,-43
-78,-73,4,75,-41,-34,43,24,43,0,-53,-43
-73,-73,0,73,-36,-36,43,24,43,0,-53,-43
-73,-68,4,70,-39,-31,43,24,43,4,-48,-43
-78,-68,9,73,-43,-29,53,24,53,4,-39,-43
-82,-68,14,75,-48,-26,53,24,53,4,-39,-39
-87,-68,19,78,-53,-24,53,24,58,4,-34,-39
-97,-68,29,82,-63,-19,53,34,58,4,-34,-39
-102,-58,43,80,-73,-7,43,34,48,9,-43,-48
-97,-58,39,78,-68,-9,43,29,53,9,-43,-48
-87,-58,29,73,-58,-14,43,29,53,9,-43,-48
-82,-58,24,70,-53,-17,43,29,53,9,-43,-48
-82,-43,39,63,-61,-2,43,29,53,9,-48,-58
-82,-43,39,63,-61,-2,43,29,53,9,-48,-58
-82,-43,39,63,-61,-2,43,29,53,9,-43,-63
-73,-43,29,58,-51,-7,43,29,53,9,-43,-68
-73,-34,39,53,-56,2,53,43,63,14,-39,-63
-78,-34,43,56,-61,4,58,43,63,14,-39,-53
-78,-34,43,56,-61,4,58,43,63,9,-43,-48
-63,-34,29,48,-46,-2,53,43,58,9,-43,-48
-63,-39,24,51,-43,-7,43,34,48,9,-43,-48
-63,-43,19,53,-41,-12,43,39,58,14,-43,-48
-78,-48,29,63,-53,-9,48,43,63,19,-39,-43
-78,-53,24,65,-51,-14,53,43,63,19,-39,-43
-78,-63,14,70,-46,-24,63,53,68,29,-19,-43
-78,-63,14,70,-46,-24,63,58,73,29,-19,-43
-78,-63,14,70,-46,-24,63,58,82,29,-19,-43
-63,-63,0,63,-31,-31,63,58,87,29,-19,-43
-48,-58,-9,53,-19,-34,63,48,78,29,-24,-43
-48,-53,-4,51,-21,-29,63,48,78,34,-24,-43
-63,-53,9,58,-36,-21,63,53,87,34,-19,-43
-63,-48,14,56,-39,-17,68,58,87,34,-19,-43
-68,-53,14,61,-41,-19,68,68,92,34,-19,-53
-68,-58,9,63,-39,-24,68,63,92,39,-19,-53
-73,-63,9,68,-41,-26,68,63,92,39,-19,-53
-73,-68,4,70,-39,-31,68,63,97,39,-19,-53
-68,-58,9,63,-39,-24,68,58,87,39,-19,-53
-68,-58,9,63,-39,-24,68,58,87,39,-19,-58
-68,-58,9,63,-39,-24,68,58,87,43,-14,-58
-68,-58,9,63,-39,-24,73,68,87,43,-14,-58
-68,-58,9,63,-39,-24,63,58,87,39,-14,-68
-68,-58,9,63,-39,-24,63,58,92,39,-14,-68
-68,-58,9,63,-39,-24,63,63,97,39,-14,-68
-68,-58,9,63,-39,-24,63,68,102,39,-9,-68
-68,-48,19,58,-43,-14,82,68,102,53,-9,-63
-68,-48,19,58,-43,-14,82,68,102,58,-4,-63
-78,-48,29,63,-53,-9,82,68,107,68,-4,-63
-78,-48,29,63,-53,-9,82,73,107,68,0,-68
-63,-43,19,53,-41,-12,82,82,107,68,0,-63
-63,-43,19,53,-41,-12,82,82,117,68,0,-68
-63,-43,19,53,-41,-12,82,82,117,68,4,-68
-63,-39,24,51,-43,-7,82,87,117,68,4,-63
-58,-48,9,53,-34,-19,82,87,126,73,4,-63
-58,-48,9,53,-34,-19,82,87,131,73,4,-63
-58,-53,4,56,-31,-24,87,92,131,78,4,-63
-63,-58,4,61,-34,-26,92,102,136,78,9,-63
-68,-58,9,63,-39,-24,92,107,136,87,4,-73
-68,-48,19,58,-43,-14,92,107,136,92,14,-73
-68,-48,19,58,-43,-14,92,112,141,92,14,-73
-63,-43,19,53,-41,-12,92,112,141,97,9,-73
-53,-34,19,43,-36,-7,92,107,151,102,19,-73
-58,-34,24,46,-41,-4,102,112,156,107,29,-68
-58,-34,24,46,-41,-4,102,117,161,112,29,-63
-53,-34,19,43,-36,-7,102,117,165,112,34,-63
-43,-24,19,34,-31,-2,107,126,170,126,34,-53
-43,-24,19,34,-31,-2,107,136,175,131,39,-53
-43,-24,19,34,-31,-2,107,136,180,136,43,-48
-43,-14,29,29,-36,7,112,136,185,141,53,-48
-43,-9,34,26,-39,12,112,136,190,136,58,-48
-43,-9,34,26,-39,12,117,141,200,141,63,-43
-43,-14,29,29,-36,7,117,151,204,146,68,-39
-43,-19,24,31,-34,2,126,156,209,156,73,-39
-53,0,53,26,-53,26,136,170,229,175,82,-29
-53,4,58,24,-56,31,136,180,234,185,92,-24
-53,4,58,24,-56,31,141,180,234,190,97,-14
-53,9,63,21,-58,36,141,185,239,200,107,-9
-53,19,73,17,-63,46,141,185,248,204,117,0
-58,24,82,17,-70,53,146,190,258,219,122,0
-43,29,73,7,-58,51,146,195,263,219,126,0
-39,34,73,2,-56,53,146,200,278,229,136,9
-43,39,82,2,-63,61,161,209,292,253,146,14
-48,39,87,4,-68,63,170,219,307,258,151,19
-48,43,92,2,-70,68,175,229,317,268,165,19
-53,48,102,2,-78,75,175,234,322,278,175,34
-53,53,107,0,-80,80,165,239,326,287,190,48
-53,58,112,-2,-82,85,175,248,336,302,200,53
-43,63,107,-9,-75,85,175,248,346,312,209,63
-39,68,107,-14,-73,87,175,253,356,322,224,63
-29,82,112,-26,-70,97,175,258,366,326,224,78
-29,92,122,-31,-75,107,185,263,380,346,244,92
-29,92,122,-31,-75,107,190,268,390,356,253,102
-34,97,131,-31,-82,114,195,278,400,370,273,112
-43,102,146,-29,-95,124,195,292,409,390,283,122
-34,117,151,-41,-92,134,195,292,414,400,297,131
-29,117,146,-43,-87,131,195,292,424,409,307,136
-24,126,151,-51,-87,139,195,297,434,424,322,151
-4,146,151,-70,-78,148,185,292,444,444,341,165
-4,156,161,-75,-82,158,185,297,453,453,361,175
-4,165,170,-80,-87,168,185,302,463,458,380,185
-4,170,175,-82,-90,173,185,302,473,473,395,195
-9,180,190,-85,-100,185,190,302,463,488,400,204
0,195,195,-97,-97,195,190,302,473,497,414,224
4,195,190,-100,-92,192,185,302,483,507,429,234
9,200,190,-104,-90,195,180,302,483,517,444,248
14,209,195,-112,-90,202,165,292,478,527,463,263
19,219,200,-119,-90,209,165,292,483,536,478,278
24,224,200,-124,-87,212,161,287,488,546,497,292
24,234,209,-129,-92,222,151,287,488,551,507,307
34,248,214,-141,-90,231,151,278,492,556,507,302
39,248,209,-143,-85,229,146,268,492,556,517,317
39,253,214,-146,-87,234,131,268,488,556,522,326
39,253,214,-146,-87,234,122,258,483,561,531,341
48,253,204,-151,-78,229,117,244,473,551,527,346
58,258,200,-158,-70,229,102,234,463,551,531,356
68,263,195,-165,-63,229,92,224,458,546,541,366
68,263,195,-165,-63,229,87,214,453,541,541,370
68,263,195,-165,-63,229,78,204,434,527,541,370
68,273,204,-170,-68,239,68,190,424,517,536,380
68,273,204,-170,-68,239,58,175,409,512,536,385
78,273,195,-175,-58,234,48,156,400,502,536,385
78,283,204,-180,-63,244,48,151,395,488,522,385
78,268,190,-173,-56,229,39,141,380,478,517,385
78,268,190,-173,-56,229,29,126,366,468,502,390
78,268,190,-173,-56,229,14,112,346,448,492,390
87,263,175,-175,-43,219,4,102,322,429,478,375
87,263,175,-175,-43,219,0,87,302,409,458,370
87,263,175,-175,-43,219,-4,68,287,390,439,356
87,253,165,-170,-39,209,-14,58,273,370,419,356
78,244,165,-161,-43,204,-24,43,263,346,400,336
73,244,170,-158,-48,207,-24,34,244,326,380,331
73,229,156,-151,-41,192,-29,19,229,312,366,317
78,229,151,-153,-36,190,-39,9,214,292,346,307
68,209,141,-139,-36,175,-29,9,195,283,326,292
68,195,126,-131,-29,161,-34,0,180,263,312,278
63,180,117,-122,-26,148,-39,-9,165,244,287,263
58,165,107,-112,-24,136,-39,-19,151,229,273,248
48,161,112,-104,-31,136,-39,-24,146,204,248,229
43,151,107,-97,-31,129,-39,-34,136,190,229,214
39,146,107,-92,-34,126,-39,-39,126,170,219,200
34,131,97,-82,-31,114,-43,-48,107,161,200,180
43,117,73,-80,-14,95,-43,-53,97,141,170,161
34,107,73,-70,-19,90,-43,-53,82,122,151,151
34,97,63,-65,-14,80,-39,-53,78,112,131,131
24,87,63,-56,-19,75,-39,-53,68,92,112,117
24,73,48,-48,-12,61,-39,-58,58,78,102,102
24,58,34,-41,-4,46,-39,-63,48,63,87,82
24,48,24,-36,0,36,-39,-68,43,53,73,78
19,43,24,-31,-2,34,-34,-68,34,43,63,68
9,34,24,-21,-7,29,-34,-68,29,39,53,53
4,29,24,-17,-9,26,-34,-68,19,24,43,39
0,19,19,-9,-9,19,-34,-73,14,14,29,29
-9,9,19,0,-14,14,-34,-78,4,4,14,14
-4,14,19,-4,-12,17,-34,-78,9,4,9,0
-9,4,14,2,-12,9,-34,-78,9,4,4,-9
-14,-4,9,9,-12,2,-29,-78,0,-4,-4,-19
-14,-9,4,12,-9,-2,-29,-78,-4,-14,-19,-29
-29,-9,19,19,-24,4,-19,-73,-4,-14,-24,-34
-34,-9,24,21,-29,7,-19,-73,-4,-14,-24,-34
-34,-14,19,24,-26,2,-19,-73,-4,-19,-29,-43
-39,-24,14,31,-26,-4,-19,-78,-9,-29,-34,-48
-39,-24,14,31,-26,-4,-19,-78,-14,-39,-43,-48
-39,-24,14,31,-26,-4,-19,-78,-14,-39,-53,-58
-34,-24,9,29,-21,-7,-14,-78,-14,-43,-53,-58
-34,-24,9,29,-21,-7,-14,-73,-14,-43,-53,-58
-29,-34,-4,31,-12,-19,-14,-73,-14,-43,-63,-68
-39,-34,4,36,-21,-14,-9,-73,-19,-43,-68,-73
-39,-34,4,36,-21,-14,-9,-73,-19,-43,-73,-78
-39,-39,0,39,-19,-19,-9,-73,-19,-53,-78,-82
-39,-39,0,39,-19,-19,-9,-82,-29,-53,-82,-87
-39,-39,0,39,-19,-19,-9,-82,-29,-53,-82,-87
-39,-39,0,39,-19,-19,-9,-78,-29,-53,-78,-87
-43,-43,0,43,-21,-21,-9,-78,-29,-53,-78,-92
-39,-48,-9,43,-14,-29,-9,-78,-29,-63,-92,-97
-39,-48,-9,43,-14,-29,-14,-78,-29,-63,-92,-97
-29,-48,-19,39,-4,-34,-19,-78,-29,-63,-92,-92
-29,-53,-24,41,-2,-39,-24,-78,-29,-63,-92,-92
-53,-48,4,51,-29,-21,-9,-68,-19,-53,-82,-92
-53,-48,4,51,-29,-21,-9,-68,-19,-53,-82,-97
-43,-48,-4,46,-19,-26,-9,-68,-19,-53,-87,-97
-58,-48,9,53,-34,-19,-9,-68,-19,-53,-87,-102
-63,-43,19,53,-41,-12,-4,-63,-19,-43,-87,-102
-63,-43,19,53,-41,-12,-4,-63,-24,-48,-87,-102
-53,-48,4,51,-29,-21,-9,-68,-24,-48,-92,-102
-53,-48,4,51,-29,-21,-9,-68,-24,-43,-92,-102
-53,-48,4,51,-29,-21,-9,-73,-29,-48,-92,-112
-53,-48,4,51,-29,-21,-9,-73,-29,-48,-87,-112
-48,-48,0,48,-24,-24,-4,-78,-24,-53,-87,-107
-39,-48,-9,43,-14,-29,-4,-82,-24,-58,-87,-107
-43,-43,0,43,-21,-21,-4,-73,-14,-48,-78,-102
-43,-43,0,43,-21,-21,-4,-73,-14,-53,-82,-102
-48,-43,4,46,-26,-19,0,-73,-14,-53,-82,-102
-53,-48,4,51,-29,-21,0,-73,-14,-53,-78,-102
-43,-39,4,41,-24,-17,-4,-73,-24,-48,-78,-102
-48,-39,9,43,-29,-14,-4,-78,-24,-48,-82,-102
-53,-39,14,46,-34,-12,-4,-78,-24,-48,-82,-102
-53,-39,14,46,-34,-12,-4,-78,-24,-48,-82,-97
-53,-48,4,51,-29,-21,-4,-73,-14,-48,-82,-87
-58,-43,14,51,-36,-14,-4,-73,-14,-48,-82,-87
-58,-43,14,51,-36,-14,-4,-73,-14,-43,-82,-87
-58,-39,19,48,-39,-9,-4,-73,-14,-43,-82,-87
-58,-39,19,48,-39,-9,-9,-63,-19,-39,-87,-82
-48,-39,9,43,-29,-14,-9,-63,-19,-39,-82,-82
-48,-39,9,43,-29,-14,-9,-63,-19,-43,-82,-82
-48,-39,9,43,-29,-14,-14,-63,-19,-43,-82,-82
-39,-39,0,39,-19,-19,-14,-73,-19,-53,-82,-92
-39,-39,0,39,-19,-19,-14,-73,-19,-53,-82,-92
-39,-39,0,39,-19,-19,-14,-73,-19,-53,-82,-92
-39,-39,0,39,-19,-19,-14,-78,-19,-53,-82,-92
-48,-39,9,43,-29,-14,-14,-78,-19,-53,-73,-78
-48,-39,9,43,-29,-14,-14,-73,-19,-48,-73,-78
-48,-39,9,43,-29,-14,-14,-73,-19,-48,-73,-78
-53,-39,14,46,-34,-12,-14,-73,-19,-48,-73,-78
-53,-39,14,46,-34,-12,-14,-73,-14,-48,-82,-78
-53,-39,14,46,-34,-12,-14,-73,-14,-48,-78,-73
-48,-39,9,43,-29,-14,-14,-73,-14,-43,-78,-73
-48,-39,9,43,-29,-14,-14,-73,-14,-43,-78,-68
-48,-29,19,39,-34,-4,-14,-73,-14,-43,-73,-68
-48,-29,19,39,-34,-4,-14,-73,-19,-43,-73,-68
-48,-34,14,41,-31,-9,-14,-73,-19,-48,-78,-68
-48,-34,14,41,-31,-9,-9,-73,-19,-48,-78,-68
-48,-34,14,41,-31,-9,-19,-73,-19,-48,-68,-78
-48,-29,19,39,-34,-4,-19,-73,-19,-43,-68,-73
-48,-29,19,39,-34,-4,-19,-73,-19,-43,-68,-73
-53,-29,24,41,-39,-2,-24,-78,-19,-43,-68,-78
-43,-39,4,41,-24,-17,-24,-78,-24,-43,-73,-68
-43,-39,4,41,-24,-17,-19,-78,-24,-43,-73,-68
-43,-39,4,41,-24,-17,-19,-78,-24,-43,-78,-68
-48,-43,4,46,-26,-19,-19,-78,-24,-48,-78,-68
-39,-34,4,36,-21,-14,-19,-78,-34,-48,-78,-78
-39,-34,4,36,-21,-14,-19,-78,-34,-48,-78,-78
-39,-34,4,36,-21,-14,-19,-78,-34,-48,-78,-78
-39,-34,4,36,-21,-14,-24,-78,-39,-48,-78,-78
-39,-34,4,36,-21,-14,-24,-78,-29,-48,-78,-68
-39,-34,4,36,-21,-14,-24,-78,-24,-48,-78,-68
-39,-34,4,36,-21,-14,-29,-78,-24,-48,-78,-68
-34,-34,0,34,-17,-17,-29,-82,-29,-48,-82,-68
-43,-39,4,41,-24,-17,-19,-82,-29,-48,-82,-78
-43,-39,4,41,-24,-17,-19,-82,-29,-48,-82,-78
-43,-39,4,41,-24,-17,-19,-78,-29,-48,-82,-78
-43,-39,4,41,-24,-17,-19,-78,-29,-48,-78,-78
-43,-29,14,36,-29,-7,-24,-82,-29,-53,-78,-87
-43,-39,4,41,-24,-17,-24,-82,-34,-53,-78,-92
-48,-39,9,43,-29,-14,-29,-82,-34,-53,-78,-92
-48,-39,9,43,-29,-14,-29,-82,-34,-53,-78,-87
-39,-39,0,39,-19,-19,-24,-82,-34,-53,-78,-78
-39,-39,0,39,-19,-19,-24,-82,-34,-53,-78,-78
-39,-39,0,39,-19,-19,-29,-82,-34,-53,-78,-78
-39,-39,0,39,-19,-19,-29,-87,-34,-53,-82,-82
-34,-39,-4,36,-14,-21,-29,-87,-34,-53,-82,-82
-34,-39,-4,36,-14,-21,-29,-82,-34,-53,-82,-82
-39,-39,0,39,-19,-19,-29,-82,-34,-53,-82,-82
-39,-39,0,39,-19,-19,-29,-82,-34,-58,-82,-87
-39,-39,0,39,-19,-19,-29,-78,-39,-58,-87,-97
-39,-39,0,39,-19,-19,-29,-78,-39,-58,-87,-97
-39,-39,0,39,-19,-19,-29,-78,-39,-58,-87,-97
-34,-39,-4,36,-14,-21,-34,-82,-43,-58,-87,-97
-43,-48,-4,46,-19,-26,-34,-92,-43,-58,-87,-92
-43,-48,-4,46,-19,-26,-34,-87,-39,-63,-87,-92
-43,-48,-4,46,-19,-26,-34,-87,-39,-63,-87,-92
-43,-48,-4,46,-19,-26,-29,-87,-39,-63,-87,-92
-34,-43,-9,39,-12,-26,-29,-87,-39,-63,-97,-92
-34,-43,-9,39,-12,-26,-34,-92,-43,-63,-97,-92
-34,-43,-9,39,-12,-26,-34,-92,-43,-63,-97,-92
-34,-43,-9,39,-12,-26,-34,-92,-43,-63,-97,-92
-43,-43,0,43,-21,-21,-34,-92,-43,-63,-92,-92
-48,-43,4,46,-26,-19,-34,-92,-43,-58,-92,-102
-53,-43,9,48,-31,-17,-29,-87,-43,-58,-92,-102
-53,-39,14,46,-34,-12,-29,-87,-43,-58,-92,-102
-58,-39,19,48,-39,-9,-24,-87,-34,-53,-82,-92
-58,-43,14,51,-36,-14,-24,-87,-34,-58,-87,-97
-68,-43,24,56,-46,-9,-19,-87,-34,-58,-87,-97
-68,-43,24,56,-46,-9,-19,-87,-34,-53,-87,-92
-58,-43,14,51,-36,-14,-29,-87,-39,-63,-97,-102
-53,-48,4,51,-29,-21,-34,-87,-39,-68,-97,-102
-43,-48,-4,46,-19,-26,-34,-87,-39,-68,-97,-102
-39,-48,-9,43,-14,-29,-29,-87,-39,-68,-97,-102
-29,-43,-14,36,-7,-29,-39,-102,-48,-68,-107,-107
-29,-43,-14,36,-7,-29,-43,-102,-53,-68,-107,-107
-29,-43,-14,36,-7,-29,-43,-102,-53,-63,-107,-107
-29,-43,-14,36,-7,-29,-43,-102,-48,-63,-107,-107
-39,-43,-4,41,-17,-24,-34,-92,-39,-63,-97,-107
-39,-43,-4,41,-17,-24,-34,-92,-39,-63,-97,-107
-39,-43,-4,41,-17,-24,-34,-102,-39,-68,-97,-107
-39,-48,-9,43,-14,-29,-34,-102,-48,-68,-97,-107
-39,-39,0,39,-19,-19,-34,-102,-48,-58,-97,-112
-48,-43,4,46,-26,-19,-34,-102,-48,-58,-97,-112
-48,-43,4,46,-26,-19,-34,-102,-43,-58,-97,-102
-58,-43,14,51,-36,-14,-29,-102,-39,-58,-97,-102
-53,-43,9,48,-31,-17,-39,-102,-39,-68,-107,-102
-39,-43,-4,41,-17,-24,-48,-102,-43,-68,-107,-102
-34,-39,-4,36,-14,-21,-48,-107,-43,-73,-107,-102
-14,-34,-19,24,2,-26,-48,-107,-53,-73,-112,-112
-43,-43,0,43,-21,-21,-39,-97,-43,-63,-102,-102
-58,-43,14,51,-36,-14,-39,-92,-48,-58,-102,-107
-53,-43,9,48,-31,-17,-34,-87,-53,-58,-97,-97
-48,-43,4,46,-26,-19,-43,-102,-53,-68,-97,-107
-39,-48,-9,43,-14,-29,-48,-107,-58,-78,-107,-117
-48,-48,0,48,-24,-24,-48,-107,-48,-68,-107,-117
-48,-48,0,48,-24,-24,-48,-107,-48,-68,-107,-117
-48,-48,0,48,-24,-24,-48,-107,-48,-68,-107,-117
-48,-48,0,48,-24,-24,-48,-107,-48,-68,-107,-117
-48,-48,0,48,-24,-24,-39,-97,-48,-68,-107,-107
-48,-48,0,48,-24,-24,-39,-97,-48,-68,-107,-107
-48,-48,0,48,-24,-24,-39,-97,-48,-68,-107,-107
-48,-48,0,48,-24,-24,-39,-97,-48,-68,-107,-107
-39,-39,0,39,-19,-19,-48,-107,-48,-68,-107,-107
-39,-39,0,39,-19,-19,-48,-107,-48,-68,-107,-107
-39,-39,0,39,-19,-19,-48,-107,-48,-68,-107,-107
-39,-39,0,39,-19,-19,-48,-107,-48,-68,-107,-107
-29,-39,-9,34,-9,-24,-48,-107,-48,-68,-107,-107
-29,-39,-9,34,-9,-24,-48,-107,-48,-68,-107,-107
-29,-39,-9,34,-9,-24,-48,-107,-48,-68,-107,-107
-29,-39,-9,34,-9,-24,-48,-107,-48,-68,-107,-107
-39,-39,0,39,-19,-19,-48,-97,-48,-68,-107,-107
-39,-39,0,39,-19,-19,-48,-97,-48,-68,-107,-107
-39,-39,0,39,-19,-19,-48,-97,-48,-68,-107,-107
-39,-39,0,39,-19,-19,-48,-97,-48,-68,-107,-107
-48,-48,0,48,-24,-24,-39,-97,-48,-68,-107,-107
-48,-48,0,48,-24,-24,-39,-97,-48,-68,-107,-107
-48,-48,0,48,-24,-24,-39,-97,-48,-68,-107,-107
-48,-48,0,48,-24,-24,-39,-97,-48,-68,-107,-107
-39,-48,-9,43,-14,-29,-48,-97,-48,-68,-107,-107
-39,-48,-9,43,-14,-29,-48,-97,-48,-68,-107,-107
-39,-48,-9,43,-14,-29,-48,-97,-48,-68,-107,-107
-39,-48,-9,43,-14,-29,-48,-97,-48,-68,-107,-107
-39,-39,0,39,-19,-19,-39,-97,-48,-58,-97,-97
-39,-39,0,39,-19,-19,-39,-97,-48,-58,-97,-97
-39,-39,0,39,-19,-19,-39,-97,-48,-58,-97,-97
-39,-39,0,39,-19,-19,-39,-97,-48,-58,-97,-97
-29,-39,-9,34,-9,-24,-48,-107,-58,-68,-107,-107
-29,-39,-9,34,-9,-24,-48,-107,-58,-68,-107,-107
-29,-39,-9,34,-9,-24,-48,-107,-58,-68,-107,-107
-29,-39,-9,34,-9,-24,-48,-107,-58,-68,-107,-107
-39,-39,0,39,-19,-19,-48,-97,-58,-68,-107,-97
-39,-39,0,39,-19,-19,-48,-97,-58,-68,-107,-97
-39,-39,0,39,-19,-19,-48,-97,-58,-68,-107,-97
-39,-39,0,39,-19,-19,-48,-97,-58,-68,-107,-97
-39,-39,0,39,-19,-19,-48,-97,-48,-68,-107,-97
-39,-39,0,39,-19,-19,-48,-97,-48,-68,-107,-97
-39,-39,0,39,-19,-19,-48,-97,-48,-68,-107,-97
-39,-39,0,39,-19,-19,-48,-97,-48,-68,-107,-97
-48,-39,9,43,-29,-14,-39,-97,-48,-58,-107,-97
-48,-39,9,43,-29,-14,-39,-97,-48,-58,-107,-97
-48,-39,9,43,-29,-14,-39,-97,-48,-58,-107,-97
-48,-39,9,43,-29,-14,-39,-97,-48,-58,-107,-97
-34,-39,-4,36,-14,-21,-43,-107,-58,-68,-117,-107
-29,-39,-9,34,-9,-24,-48,-107,-58,-68,-117,-107
-24,-39,-14,31,-4,-26,-53,-107,-58,-68,-117,-107
-19,-39,-19,29,0,-29,-58,-107,-58,-68,-117,-107
-34,-39,-4,36,-14,-21,-48,-102,-48,-58,-112,-97
-39,-39,0,39,-19,-19,-48,-97,-48,-58,-107,-97
-43,-39,4,41,-24,-17,-48,-92,-48,-58,-102,-97
-48,-39,9,43,-29,-14,-48,-87,-48,-58,-97,-97
-34,-39,-4,36,-14,-21,-58,-97,-58,-68,-107,-107
-29,-39,-9,34,-9,-24,-58,-97,-58,-68,-107,-107
-24,-39,-14,31,-4,-26,-58,-97,-58,-68,-107,-107
-19,-39,-19,29,0,-29,-58,-97,-58,-68,-107,-107
-19,-39,-19,29,0,-29,-58,-87,-58,-68,-107,-97
-19,-39,-19,29,0,-29,-58,-87,-58,-68,-107,-97
-19,-39,-19,29,0,-29,-58,-87,-58,-68,-107,-97
-19,-39,-19,29,0,-29,-58,-87,-58,-68,-107,-97
-9,-29,-19,19,4,-24,-58,-97,-68,-68,-117,-107
-9,-29,-19,19,4,-24,-58,-97,-68,-68,-117,-107
-9,-29,-19,19,4,-24,-58,-97,-68,-68,-117,-107
-9,-29,-19,19,4,-24,-58,-97,-68,-68,-117,-107
-14,-39,-24,26,4,-31,-48,-87,-63,-68,-107,-97
-19,-39,-19,29,0,-29,-48,-87,-58,-68,-107,-97
-24,-39,-14,31,-4,-26,-48,-87,-53,-68,-107,-97
-29,-39,-9,34,-9,-24,-48,-87,-48,-68,-107,-97
-29,-29,0,29,-14,-14,-48,-87,-58,-68,-107,-97
-29,-29,0,29,-14,-14,-48,-87,-58,-68,-107,-97
-29,-29,0,29,-14,-14,-48,-87,-58,-68,-107,-97
-29,-29,0,29,-14,-14,-48,-87,-58,-68,-107,-97
-29,-39,-9,34,-9,-24,-58,-87,-58,-68,-117,-97
-29,-39,-9,34,-9,-24,-58,-87,-58,-68,-117,-97
-29,-39,-9,34,-9,-24,-58,-87,-58,-68,-117,-97
-29,-39,-9,34,-9,-24,-58,-87,-58,-68,-117,-97
-39,-39,0,39,-19,-19,-48,-87,-58,-68,-107,-97
-39,-39,0,39,-19,-19,-48,-87,-58,-68,-107,-97
-39,-39,0,39,-19,-19,-48,-87,-58,-68,-107,-97
-39,-39,0,39,-19,-19,-48,-87,-58,-68,-107,-97
-29,-39,-9,34,-9,-24,-48,-87,-58,-68,-107,-97
-29,-39,-9,34,-9,-24,-48,-87,-58,-68,-107,-97
-29,-39,-9,34,-9,-24,-48,-87,-58,-68,-107,-97
-29,-39,-9,34,-9,-24,-48,-87,-58,-68,-107,-97
-29,-48,-19,39,-4,-34,-58,-87,-58,-78,-117,-97
-29,-48,-19,39,-4,-34,-58,-87,-58,-78,-117,-97
-29,-48,-19,39,-4,-34,-58,-87,-58,-78,-117,-97
-29,-48,-19,39,-4,-34,-58,-87,-58,-78,-117,-97
-39,-39,0,39,-19,-19,-48,-87,-58,-68,-107,-87
-39,-39,0,39,-19,-19,-48,-87,-58,-68,-107,-87
-39,-39,0,39,-19,-19,-48,-87,-58,-68,-107,-87
-39,-39,0,39,-19,-19,-48,-87,-58,-68,-107,-87
-29,-39,-9,34,-9,-24,-48,-87,-58,-68,-107,-87
-29,-39,-9,34,-9,-24,-48,-87,-58,-68,-107,-87
-29,-39,-9,34,-9,-24,-48,-87,-58,-68,-107,-87
-29,-39,-9,34,-9,-24,-48,-87,-58,-68,-107,-87
-29,-39,-9,34,-9,-24,-58,-87,-58,-68,-107,-97
-29,-39,-9,34,-9,-24,-58,-87,-58,-68,-107,-97
-29,-39,-9,34,-9,-24,-58,-87,-58,-68,-107,-97
-29,-39,-9,34,-9,-24,-58,-87,-58,-68,-107,-97
-19,-29,-9,24,-4,-19,-58,-78,-48,-58,-97,-87
-19,-29,-9,24,-4,-19,-58,-78,-48,-58,-97,-87
-19,-29,-9,24,-4,-19,-58,-78,-48,-58,-97,-87
-19,-29,-9,24,-4,-19,-58,-78,-48,-58,-97,-87
-19,-24,-4,21,-7,-14,-48,-68,-43,-53,-92,-82
-19,-19,0,19,-9,-9,-48,-68,-39,-48,-87,-78
-19,0,19,9,-19,9,-48,-63,-24,-39,-78,-68
-19,9,29,4,-24,19,-48,-63,-14,-29,-68,-63
0,24,24,-12,-12,24,-58,-73,-19,-34,-78,-58
9,29,19,-19,-4,24,-58,-73,-19,-34,-78,-53
14,39,24,-26,-4,31,-58,-73,-19,-29,-68,-53
29,43,14,-36,7,29,-58,-68,-24,-29,-63,-53
39,34,-4,-36,21,14,-58,-58,-14,-39,-73,-58
43,24,-19,-34,31,2,-63,-58,-14,-39,-73,-58
53,24,-29,-39,41,-2,-63,-48,-14,-39,-73,-58
58,24,-34,-41,46,-4,-63,-48,-14,-34,-73,-58
43,14,-29,-29,36,-7,-53,-39,-4,-29,-68,-53
43,9,-34,-26,39,-12,-53,-39,-4,-24,-58,-48
48,9,-39,-29,43,-14,-68,-39,-4,-14,-48,-39
48,14,-34,-31,41,-9,-78,-43,-4,-9,-43,-24
63,14,-48,-39,56,-17,-92,-68,-29,-24,-53,-34
63,14,-48,-39,56,-17,-117,-82,-39,-34,-53,-34
63,19,-43,-41,53,-12,-126,-92,-48,-34,-53,-34
73,24,-48,-48,61,-12,-136,-102,-53,-39,-58,-29
73,34,-39,-53,56,-2,-136,-102,-58,-43,-58,-29
73,24,-48,-48,61,-12,-131,-107,-68,-48,-63,-34
73,9,-63,-41,68,-26,-131,-117,-73,-63,-78,-48
73,9,-63,-41,68,-26,-126,-117,-82,-78,-92,-53
58,0,-58,-29,58,-29,-112,-107,-82,-78,-92,-58
58,0,-58,-29,58,-29,-107,-97,-82,-73,-92,-58
58,4,-53,-31,56,-24,-102,-92,-68,-63,-82,-48
53,4,-48,-29,51,-21,-87,-87,-68,-58,-78,-43
53,0,-53,-26,53,-26,-107,-97,-63,-58,-73,-43
63,0,-63,-31,63,-31,-107,-97,-63,-58,-73,-43
68,0,-68,-34,68,-34,-107,-87,-63,-53,-73,-43
68,-4,-73,-31,70,-39,-92,-82,-58,-53,-73,-43
68,4,-63,-36,65,-29,-87,-68,-48,-43,-73,-43
58,-4,-63,-26,61,-34,-87,-68,-48,-53,-73,-43
58,-9,-68,-24,63,-39,-87,-68,-53,-58,-78,-48
68,-9,-78,-29,73,-43,-82,-73,-53,-58,-82,-48
73,4,-68,-39,70,-31,-92,-87,-63,-63,-82,-48
68,4,-63,-36,65,-29,-97,-87,-63,-63,-82,-48
68,4,-63,-36,65,-29,-97,-87,-63,-63,-78,-48
68,0,-68,-34,68,-34,-97,-87,-63,-68,-78,-48
58,-4,-63,-26,61,-34,-82,-78,-63,-58,-82,-53
58,-19,-78,-19,68,-48,-82,-78,-68,-73,-92,-63
43,-34,-78,-4,61,-56,-78,-78,-73,-78,-97,-73
24,-53,-78,14,51,-65,-68,-73,-73,-78,-107,-92
9,-63,-73,26,41,-68,-63,-73,-82,-87,-126,-112
-9,-73,-63,41,26,-68,-53,-68,-82,-92,-131,-122
-34,-73,-39,53,2,-56,-48,-63,-82,-92,-131,-122
-39,-73,-34,56,-2,-53,-48,-63,-78,-92,-131,-122
-34,-73,-39,53,2,-56,-48,-63,-78,-87,-117,-112
-34,-68,-34,51,0,-51,-48,-63,-78,-82,-117,-112
-34,-63,-29,48,-2,-46,-48,-63,-78,-82,-117,-112
-34,-63,-29,48,-2,-46,-53,-68,-78,-82,-117,-112
-24,-73,-48,48,12,-61,-43,-68,-68,-97,-131,-117
-19,-78,-58,48,19,-68,-43,-68,-78,-102,-131,-122
-19,-78,-58,48,19,-68,-43,-68,-78,-102,-141,-126
-19,-78,-58,48,19,-68,-43,-68,-78,-102,-141,-126
-24,-73,-48,48,12,-61,-43,-78,-87,-102,-136,-126
-24,-73,-48,48,12,-61,-48,-78,-87,-102,-131,-122
-19,-73,-53,46,17,-63,-48,-78,-87,-102,-131,-122
-14,-73,-58,43,21,-65,-53,-78,-87,-102,-131,-122
-24,-73,-48,48,12,-61,-43,-68,-78,-87,-122,-122
-29,-73,-43,51,7,-58,-43,-68,-73,-87,-122,-122
-39,-78,-39,58,0,-58,-43,-68,-73,-87,-122,-122
-43,-78,-34,61,-4,-56,-43,-68,-68,-87,-126,-122
-53,-73,-19,63,-17,-46,-43,-68,-78,-87,-126,-122
-58,-73,-14,65,-21,-43,-43,-63,-78,-87,-126,-122
-63,-73,-9,68,-26,-41,-39,-63,-78,-87,-126,-122
-63,-73,-9,68,-26,-41,-39,-58,-78,-87,-122,-122
-48,-68,-19,58,-14,-43,-48,-68,-78,-87,-131,-122
-43,-68,-24,56,-9,-46,-48,-68,-78,-87,-136,-126
-43,-68,-24,56,-9,-46,-48,-68,-78,-87,-136,-126
-43,-68,-24,56,-9,-46,-48,-68,-78,-87,-136,-126
-58,-68,-9,63,-24,-39,-39,-58,-68,-82,-131,-126
-58,-68,-9,63,-24,-39,-39,-58,-68,-82,-131,-126
-53,-68,-14,61,-19,-41,-34,-58,-68,-82,-131,-122
-53,-68,-14,61,-19,-41,-34,-63,-68,-82,-131,-122
-58,-68,-9,63,-24,-39,-34,-63,-68,-82,-131,-122
-68,-73,-4,70,-31,-39,-34,-63,-68,-82,-131,-122
-78,-73,4,75,-41,-34,-34,-58,-68,-82,-131,-122
-82,-68,14,75,-48,-26,-39,-58,-68,-82,-131,-122
-68,-68,0,68,-34,-34,-48,-63,-78,-92,-131,-126
-58,-68,-9,63,-24,-39,-48,-63,-78,-92,-131,-126
-48,-68,-19,58,-14,-43,-48,-63,-78,-92,-131,-122
-39,-68,-29,53,-4,-48,-48,-68,-78,-92,-131,-122
-48,-48,0,48,-24,-24,-43,-58,-68,-82,-112,-107
-43,-48,-4,46,-19,-26,-53,-73,-68,-78,-102,-102
-43,-43,0,43,-21,-21,-63,-82,-68,-73,-92,-92
-39,-39,0,39,-19,-19,-78,-92,-78,-63,-92,-78
-34,-24,9,29,-21,-7,-107,-107,-82,-63,-82,-78
-34,-24,9,29,-21,-7,-122,-117,-78,-63,-82,-78
-34,-19,14,26,-24,-2,-141,-141,-82,-58,-78,-78
-19,4,24,7,-21,14,-170,-165,-92,-48,-53,-48
0,43,43,-21,-21,43,-209,-219,-117,-39,-14,0
14,87,73,-51,-29,80,-268,-292,-126,-19,63,87
29,161,131,-95,-51,146,-356,-395,-151,24,165,200
73,239,165,-156,-46,202,-492,-536,-209,34,268,346
141,312,170,-226,-14,241,-619,-683,-283,43,385,497
195,380,185,-287,4,283,-746,-819,-351,53,502,658
263,458,195,-361,34,326,-863,-941,-434,63,610,814
361,531,170,-446,95,351,-980,-1049,-517,53,712,985
448,624,175,-536,136,400,-1068,-1117,-551,97,863,1185
517,741,224,-629,146,483,-1146,-1171,-566,175,1049,1429
580,829,248,-705,165,539,-1220,-1215,-590,244,1249,1678
658,902,244,-780,207,573,-1302,-1239,-614,307,1420,1922
751,932,180,-841,285,556,-1351,-1254,-634,326,1522,2083
814,902,87,-858,363,495,-1381,-1254,-663,297,1546,2147
858,839,-19,-849,439,409,-1371,-1205,-678,253,1503,2156
878,712,-165,-795,522,273,-1332,-1127,-702,165,1351,2074
888,517,-370,-702,629,73,-1254,-1054,-746,14,1093,1839
863,341,-522,-602,692,-90,-1156,-980,-785,-151,766,1517
805,175,-629,-490,717,-226,-1049,-922,-824,-326,424,1166
732,4,-727,-368,729,-361,-936,-863,-878,-512,48,766
663,-161,-824,-251,744,-492,-834,-800,-907,-673,-263,395
610,-239,-849,-185,729,-544,-761,-751,-888,-717,-385,200
566,-258,-824,-153,695,-541,-712,-692,-819,-673,-375,170
512,-273,-785,-119,649,-529,-653,-639,-751,-619,-351,146
444,-283,-727,-80,585,-505,-585,-566,-688,-580,-351,63
366,-273,-639,-46,502,-456,-507,-502,-610,-531,-336,0
278,-239,-517,-19,397,-378,-429,-439,-536,-468,-312,-24
214,-204,-419,-4,317,-312,-361,-366,-453,-400,-297,-58
170,-204,-375,17,273,-290,-287,-302,-380,-341,-278,-87
156,-209,-366,26,261,-287,-239,-244,-326,-297,-258,-102
131,-195,-326,31,229,-261,-219,-214,-283,-273,-248,-102
107,-180,-287,36,197,-234,-195,-200,-248,-253,-229,-112
63,-170,-234,53,148,-202,-165,-175,-209,-224,-204,-102
24,-170,-195,73,109,-183,-141,-146,-185,-195,-175,-102
-4,-161,-156,82,75,-158,-117,-131,-170,-175,-170,-102
-9,-141,-131,75,61,-136,-97,-107,-156,-165,-170,-117
-9,-122,-112,65,51,-117,-73,-82,-131,-151,-170,-131
-14,-107,-92,61,39,-100,-58,-58,-107,-126,-165,-136
-9,-82,-73,46,31,-78,-43,-58,-82,-97,-165,-146
-14,-58,-43,36,14,-51,-39,-53,-53,-82,-151,-136
-29,-53,-24,41,-2,-39,-39,-43,-43,-68,-131,-131
-29,-48,-19,39,-4,-34,-29,-43,-39,-68,-117,-122
-29,-48,-19,39,-4,-34,-29,-34,-39,-68,-112,-117
-39,-48,-9,43,-14,-29,-34,-34,-39,-68,-107,-117
-39,-48,-9,43,-14,-29,-24,-19,-39,-58,-107,-122
-39,-48,-9,43,-14,-29,-19,-14,-29,-48,-107,-122
-48,-43,4,46,-26,-19,-4,-4,-19,-48,-107,-122
-58,-39,19,48,-39,-9,-4,0,-9,-43,-107,-122
-58,-34,24,46,-41,-4,-4,0,-9,-43,-107,-122
-58,-29,29,43,-43,0,-4,-4,-9,-39,-102,-122
-58,-29,29,43,-43,0,-9,-4,-9,-34,-92,-122
-68,-19,48,43,-58,14,-4,4,0,-24,-92,-112
-63,-19,43,41,-53,12,4,14,0,-24,-92,-112
-63,-19,43,41,-53,12,9,19,0,-24,-92,-107
-73,-19,53,46,-63,17,19,24,9,-19,-92,-107
-73,-29,43,51,-58,7,9,14,4,-29,-87,-102
-73,-29,43,51,-58,7,9,14,4,-24,-87,-102
-73,-29,43,51,-58,7,9,9,9,-24,-87,-102
-73,-24,48,48,-61,12,9,9,9,-24,-87,-97
-58,-24,34,41,-46,4,0,9,9,-24,-92,-107
-58,-24,34,41,-46,4,4,19,9,-24,-92,-102
-63,-19,43,41,-53,12,4,19,14,-19,-87,-102
-63,-19,43,41,-53,12,4,19,14,-14,-87,-102
-53,-29,24,41,-39,-2,14,24,4,-24,-92,-102
-58,-29,29,43,-43,0,14,24,9,-24,-92,-102
-58,-29,29,43,-43,0,14,24,9,-24,-92,-102
-58,-29,29,43,-43,0,14,24,9,-24,-92,-102
-68,-19,48,43,-58,14,14,29,19,-24,-82,-97
-68,-19,48,43,-58,14,14,29,19,-24,-82,-97
-68,-14,53,41,-61,19,9,29,19,-24,-82,-97
-68,-14,53,41,-61,19,9,34,19,-19,-82,-97
-58,-4,53,31,-56,24,9,34,9,-9,-82,-107
-58,-4,53,31,-56,24,14,29,14,-9,-82,-102
-48,-4,43,26,-46,19,14,29,14,-9,-82,-102
-48,0,48,24,-48,24,14,29,14,-9,-82,-102
-48,-9,39,29,-43,14,14,24,14,-19,-92,-102
-48,-14,34,31,-41,9,14,24,14,-19,-92,-102
-43,-14,29,29,-36,7,14,24,14,-19,-92,-102
-43,-9,34,26,-39,12,14,24,14,-14,-87,-102
-53,-9,43,31,-48,17,14,34,14,-24,-87,-102
-53,-9,43,31,-48,17,14,34,14,-24,-87,-97
-53,-9,43,31,-48,17,14,34,19,-24,-82,-97
-58,-9,48,34,-53,19,14,43,19,-24,-82,-97
-68,0,68,34,-68,34,14,43,19,-14,-73,-107
-68,0,68,34,-68,34,14,39,24,-9,-73,-107
-63,0,63,31,-63,31,14,39,24,-4,-73,-107
-63,0,63,31,-63,31,14,39,24,0,-73,-107
-63,14,78,24,-70,46,4,39,24,-9,-78,-107
-63,14,78,24,-70,46,4,39,24,-9,-78,-107
-63,14,78,24,-70,46,4,39,24,-9,-73,-112
-53,14,68,19,-61,41,4,39,24,-9,-73,-117
-53,4,58,24,-56,31,14,43,24,-4,-78,-117
-58,4,63,26,-61,34,19,43,24,-4,-78,-112
-58,4,63,26,-61,34,19,43,24,-9,-82,-112
-43,4,48,19,-46,26,14,43,19,-9,-82,-117
-53,4,58,24,-56,31,4,43,19,-9,-82,-126
-53,4,58,24,-56,31,4,48,29,-4,-82,-126
-68,4,73,31,-70,39,9,53,34,0,-78,-122
-68,4,73,31,-70,39,14,53,34,0,-78,-122
-58,-4,53,31,-56,24,24,53,34,0,-68,-122
-58,-4,53,31,-56,24,24,58,34,0,-68,-122
-58,-4,53,31,-56,24,24,58,39,0,-68,-122
-43,-4,39,24,-41,17,24,58,39,0,-68,-122
-48,-14,34,31,-41,9,14,58,29,0,-73,-122
-48,-14,34,31,-41,9,14,58,29,4,-73,-122
-63,-19,43,41,-53,12,14,63,39,4,-68,-122
-63,-19,43,41,-53,12,19,68,39,4,-68,-122
-48,-9,39,29,-43,14,19,68,43,4,-68,-126
-48,-9,39,29,-43,14,19,63,43,9,-68,-131
-53,-9,43,31,-48,17,19,63,43,9,-68,-136
-53,-9,43,31,-48,17,19,63,48,9,-68,-141
-39,-9,29,24,-34,9,19,68,48,9,-68,-141
-39,-9,29,24,-34,9,19,68,48,9,-68,-146
-39,-9,29,24,-34,9,19,68,48,14,-63,-146
-39,-9,29,24,-34,9,24,78,48,14,-63,-146
-43,-9,34,26,-39,12,34,87,48,9,-53,-146
-48,-9,39,29,-43,14,34,87,53,9,-53,-146
-53,-9,43,31,-48,17,34,92,58,9,-53,-146
-58,-9,48,34,-53,19,34,97,63,9,-48,-146
-58,-9,48,34,-53,19,34,87,73,24,-48,-141
-58,-9,48,34,-53,19,34,87,73,29,-43,-141
-68,-9,58,39,-63,24,34,87,78,39,-43,-141
-68,-9,58,39,-63,24,34,92,78,39,-39,-146
-43,-4,39,24,-41,17,34,102,68,39,-48,-151
-43,-4,39,24,-41,17,34,102,78,39,-48,-156
-43,-4,39,24,-41,17,34,102,78,39,-43,-156
-43,0,43,21,-43,21,34,107,78,39,-43,-151
-29,4,34,12,-31,19,24,97,87,43,-43,-151
-29,9,39,9,-34,24,24,97,92,43,-43,-151
-29,9,39,9,-34,24,29,102,92,48,-43,-151
-34,9,43,12,-39,26,34,112,97,48,-39,-151
-43,4,48,19,-46,26,53,122,97,48,-39,-161
-48,9,58,19,-53,34,53,126,97,53,-34,-161
-53,4,58,24,-56,31,53,136,102,53,-39,-161
-53,4,58,24,-56,31,53,141,102,58,-48,-161
-53,4,58,24,-56,31,53,136,112,63,-39,-161
-58,4,63,26,-61,34,63,141,117,68,-29,-156
-58,4,63,26,-61,34,63,146,122,73,-29,-151
-53,4,58,24,-56,31,63,146,126,73,-24,-151
-43,9,53,17,-48,31,58,156,122,78,-24,-151
-43,14,58,14,-51,36,58,165,126,82,-19,-151
-43,19,63,12,-53,41,58,165,131,87,-14,-146
-43,34,78,4,-61,56,63,165,136,92,-4,-146
-34,34,68,0,-51,51,73,175,151,107,0,-146
-34,39,73,-2,-53,56,78,180,161,112,4,-141
-34,39,73,-2,-53,56,78,190,165,117,9,-136
-34,39,73,-2,-53,56,87,195,170,126,14,-136
-24,48,73,-12,-48,61,87,200,180,126,19,-131
-24,53,78,-14,-51,65,87,209,185,136,24,-131
-24,53,78,-14,-51,65,92,209,185,141,24,-126
-24,58,82,-17,-53,70,92,214,190,151,29,-126
-43,58,102,-7,-73,80,112,229,209,165,48,-107
-58,63,122,-2,-90,92,117,239,219,180,53,-107
-53,68,122,-7,-87,95,117,248,224,180,58,-107
-58,73,131,-7,-95,102,117,258,239,190,68,-97
-48,73,122,-12,-85,97,131,268,244,200,73,-102
-48,68,117,-9,-82,92,141,278,258,200,73,-97
-43,68,112,-12,-78,90,146,287,268,204,82,-97
-43,68,112,-12,-78,90,146,292,273,209,87,-82
-43,82,126,-19,-85,104,136,297,278,219,92,-82
-43,87,131,-21,-87,109,146,307,287,234,102,-82
-34,92,126,-29,-80,109,146,307,297,244,112,-78
-29,97,126,-34,-78,112,146,312,307,253,126,-82
-34,117,151,-41,-92,134,156,336,322,278,146,-63
-39,131,170,-46,-104,151,165,341,341,297,165,-43
-43,136,180,-46,-112,158,170,346,356,307,175,-29
-53,146,200,-46,-126,173,175,356,370,322,195,-14
-34,151,185,-58,-109,168,170,361,375,331,204,-14
-14,165,180,-75,-97,173,165,361,375,341,219,-4
0,165,165,-82,-82,165,161,361,380,351,229,0
14,175,161,-95,-73,168,156,366,385,366,244,14
14,185,170,-100,-78,178,156,370,395,380,253,19
4,185,180,-95,-87,183,156,375,405,385,263,29
-4,185,190,-90,-97,187,156,380,414,385,273,39
-14,180,195,-82,-104,187,156,380,424,395,278,48
0,204,204,-102,-102,204,161,390,434,409,292,58
9,224,214,-117,-102,219,161,390,444,419,307,78
14,229,214,-122,-100,222,156,390,453,429,322,87
19,239,219,-129,-100,229,151,390,453,439,336,102
29,258,229,-143,-100,244,141,385,458,453,356,126
39,268,229,-153,-95,248,136,380,463,468,370,141
48,273,224,-161,-87,248,126,370,468,483,390,156
53,283,229,-168,-87,256,112,366,468,492,400,170
63,287,224,-175,-80,256,112,366,463,488,400,175
68,287,219,-178,-75,253,107,356,463,488,409,190
68,292,224,-180,-78,258,92,356,458,488,414,200
68,292,224,-180,-78,258,82,346,453,492,424,214
68,307,239,-187,-85,273,78,331,453,502,429,219
78,317,239,-197,-80,278,63,322,444,502,434,229
87,326,239,-207,-75,283,53,312,439,497,444,239
87,331,244,-209,-78,287,48,302,434,492,444,244
87,322,234,-204,-73,278,39,292,434,478,434,253
87,331,244,-209,-78,287,29,278,424,468,429,263
87,331,244,-209,-78,287,19,263,409,463,429,268
97,331,234,-214,-68,283,9,244,400,453,429,268
102,317,214,-209,-56,265,0,239,375,429,424,278
97,287,190,-192,-46,239,-9,229,361,419,419,278
92,273,180,-183,-43,226,-19,214,346,409,405,283
87,258,170,-173,-41,214,-34,200,326,390,395,283
117,263,146,-190,-14,204,-48,180,312,380,395,287
126,273,146,-200,-9,209,-58,165,292,361,380,283
136,283,146,-209,-4,214,-68,146,278,341,366,268
146,283,136,-214,4,209,-82,136,263,322,351,268
131,273,141,-202,-4,207,-87,131,263,317,341,268
122,273,151,-197,-14,212,-82,122,244,297,322,263
117,258,141,-187,-12,200,-82,107,229,283,307,248
117,258,141,-187,-12,200,-87,97,214,263,287,239
112,239,126,-175,-7,183,-97,87,195,244,278,229
107,214,107,-161,0,161,-102,78,180,224,263,219
97,190,92,-143,2,141,-107,68,165,204,239,209
87,165,78,-126,4,122,-107,58,151,190,224,200
68,156,87,-112,-9,122,-107,43,126,156,190,180
63,151,87,-107,-12,119,-107,34,117,141,170,165
58,151,92,-104,-17,122,-107,29,107,122,161,151
53,141,87,-97,-17,114,-112,19,87,112,141,131
39,136,97,-87,-29,117,-102,24,87,102,131,112
24,126,102,-75,-39,114,-102,24,73,82,112,102
19,117,97,-68,-39,107,-97,24,68,73,92,82
4,107,102,-56,-48,104,-97,24,58,53,73,68
19,87,68,-53,-24,78,-107,0,39,34,53,53
24,68,43,-46,-9,56,-107,-4,29,14,39,34
29,53,24,-41,2,39,-107,-9,24,0,24,29
29,43,14,-36,7,29,-102,-9,14,-14,14,19
24,34,9,-29,7,21,-102,0,0,-9,-4,4
24,29,4,-26,9,17,-102,0,-9,-24,-14,-9
24,19,-4,-21,14,7,-102,-4,-14,-34,-29,-19
19,9,-9,-14,14,0,-102,-9,-24,-43,-43,-34
0,14,14,-7,-7,14,-102,-19,-24,-63,-58,-48
-9,4,14,2,-12,9,-102,-19,-19,-63,-63,-58
-19,-4,14,12,-17,4,-97,-19,-24,-73,-73,-68
-24,-9,14,17,-19,2,-97,-19,-24,-82,-87,-78
-19,-24,-4,21,-7,-14,-97,-24,-29,-92,-82,-78
-24,-29,-4,26,-9,-17,-97,-24,-34,-92,-82,-73
-24,-39,-14,31,-4,-26,-97,-24,-39,-97,-87,-78
-29,-53,-24,41,-2,-39,-97,-29,-48,-107,-92,-78
-19,-43,-24,31,2,-34,-107,-29,-43,-117,-112,-97
-19,-43,-24,31,2,-34,-107,-29,-43,-117,-122,-107
-14,-43,-29,29,7,-36,-102,-29,-43,-122,-122,-107
-14,-43,-29,29,7,-36,-102,-24,-43,-122,-122,-107
-24,-43,-19,34,-2,-31,-92,-24,-43,-112,-122,-107
-39,-43,-4,41,-17,-24,-87,-24,-48,-112,-126,-112
-43,-43,0,43,-21,-21,-87,-24,-48,-112,-131,-117
-48,-48,0,48,-24,-24,-87,-24,-48,-122,-136,-122
-53,-58,-4,56,-24,-31,-87,-24,-48,-131,-141,-126
-58,-58,0,58,-29,-29,-87,-24,-48,-131,-141,-126
-63,-58,4,61,-34,-26,-87,-19,-48,-131,-136,-126
-73,-63,9,68,-41,-26,-87,-19,-48,-131,-136,-131
-78,-78,0,78,-39,-39,-82,-19,-48,-122,-141,-126
-78,-78,0,78,-39,-39,-82,-19,-48,-122,-141,-126
-68,-78,-9,73,-29,-43,-82,-19,-48,-122,-141,-122
-68,-82,-14,75,-26,-48,-82,-19,-48,-122,-141,-122
-78,-73,4,75,-41,-34,-82,-29,-58,-131,-141,-126
-73,-68,4,70,-39,-31,-87,-29,-58,-131,-141,-136
-58,-63,-4,61,-26,-34,-92,-29,-58,-131,-146,-141
-68,-58,9,63,-39,-24,-97,-29,-58,-131,-146,-151
-73,-53,19,63,-46,-17,-92,-24,-48,-131,-146,-141
-73,-53,19,63,-46,-17,-92,-24,-53,-136,-146,-141
-63,-58,4,61,-34,-26,-97,-29,-53,-136,-151,-141
-63,-58,4,61,-34,-26,-97,-29,-53,-131,-151,-141
-73,-58,14,65,-43,-21,-87,-19,-48,-131,-151,-141
-82,-58,24,70,-53,-17,-87,-14,-48,-126,-146,-141
-87,-58,29,73,-58,-14,-82,-14,-43,-126,-146,-136
-87,-58,29,73,-58,-14,-82,-14,-43,-126,-146,-136
-87,-73,14,80,-51,-29,-82,-14,-43,-126,-146,-141
-82,-73,9,78,-46,-31,-82,-14,-43,-131,-151,-141
-82,-73,9,78,-46,-31,-78,-14,-43,-131,-151,-141
-82,-78,4,80,-43,-36,-78,-14,-43,-131,-146,-141
-68,-78,-9,73,-29,-43,-82,-14,-53,-136,-146,-141
-68,-78,-9,73,-29,-43,-82,-19,-53,-136,-151,-141
-68,-78,-9,73,-29,-43,-82,-19,-53,-136,-151,-141
-63,-78,-14,70,-24,-46,-82,-19,-53,-136,-151,-136
-63,-78,-14,70,-24,-46,-82,-14,-43,-136,-141,-126
-68,-73,-4,70,-31,-39,-82,-14,-43,-136,-141,-126
-68,-73,-4,70,-31,-39,-82,-14,-43,-131,-141,-126
-68,-68,0,68,-34,-34,-82,-14,-43,-131,-141,-126
-68,-78,-9,73,-29,-43,-78,-14,-39,-136,-146,-122
-58,-78,-19,68,-19,-48,-78,-14,-39,-136,-141,-122
-58,-78,-19,68,-19,-48,-78,-14,-39,-141,-141,-122
-58,-78,-19,68,-19,-48,-82,-14,-39,-141,-141,-122
-63,-78,-14,70,-24,-46,-82,-4,-39,-136,-131,-112
-68,-78,-9,73,-29,-43,-82,-4,-39,-131,-131,-112
-73,-78,-4,75,-34,-41,-82,-4,-39,-126,-131,-112
-78,-78,0,78,-39,-39,-82,-9,-39,-122,-131,-112
-87,-87,0,87,-43,-43,-82,-9,-29,-122,-131,-97
-87,-87,0,87,-43,-43,-82,-4,-29,-117,-131,-97
-87,-87,0,87,-43,-43,-82,-4,-29,-117,-131,-97
-92,-87,4,90,-48,-41,-82,-4,-29,-117,-131,-97
-87,-82,4,85,-46,-39,-82,-4,-34,-117,-122,-97
-82,-78,4,80,-43,-36,-82,-4,-34,-117,-117,-92
-73,-73,0,73,-36,-36,-82,-4,-34,-112,-117,-92
-68,-68,0,68,-34,-34,-82,-4,-34,-112,-117,-87
-58,-58,0,58,-29,-29,-82,-14,-34,-112,-122,-87
-58,-58,0,58,-29,-29,-82,-14,-39,-112,-122,-87
-58,-63,-4,61,-26,-34,-82,-14,-39,-117,-126,-87
-58,-63,-4,61,-26,-34,-78,-14,-39,-117,-126,-87
-68,-63,4,65,-36,-29,-78,-4,-29,-107,-117,-82
-68,-58,9,63,-39,-24,-78,-4,-29,-102,-117,-73
-68,-58,9,63,-39,-24,-78,-4,-29,-102,-117,-68
-73,-58,14,65,-43,-21,-82,-9,-29,-102,-117,-68
-78,-68,9,73,-43,-29,-82,0,-24,-102,-112,-58
-82,-68,14,75,-48,-26,-78,0,-24,-102,-112,-58
-87,-68,19,78,-53,-24,-78,0,-24,-102,-117,-58
-97,-73,24,85,-61,-24,-78,0,-24,-107,-117,-58
-87,-63,24,75,-56,-19,-78,0,-34,-97,-107,-48
-87,-63,24,75,-56,-19,-78,0,-34,-97,-107,-48
-87,-63,24,75,-56,-19,-78,0,-34,-97,-107,-48
-87,-63,24,75,-56,-19,-82,0,-39,-97,-107,-48
-73,-63,9,68,-41,-26,-92,-9,-39,-107,-117,-48
-68,-63,4,65,-36,-29,-92,-9,-34,-107,-117,-48
-63,-63,0,63,-31,-31,-97,-9,-34,-107,-117,-48
-53,-63,-9,58,-21,-36,-97,-14,-39,-107,-122,-48
-53,-68,-14,61,-19,-41,-97,-24,-39,-107,-122,-58
-53,-68,-14,61,-19,-41,-97,-24,-39,-107,-122,-58
-53,-68,-14,61,-19,-41,-97,-19,-39,-107,-122,-58
-53,-68,-14,61,-19,-41,-97,-19,-39,-107,-117,-58
-63,-58,4,61,-34,-26,-92,-14,-39,-102,-117,-53
-63,-68,-4,65,-29,-36,-92,-14,-43,-102,-117,-53
-68,-68,0,68,-34,-34,-97,-14,-43,-102,-117,-48
-68,-68,0,68,-34,-34,-97,-14,-43,-102,-117,-39
-68,-68,0,68,-34,-34,-82,-24,-43,-102,-117,-48
-68,-68,0,68,-34,-34,-82,-24,-43,-102,-117,-48
-68,-68,0,68,-34,-34,-87,-24,-43,-102,-117,-48
-68,-68,0,68,-34,-34,-87,-29,-43,-102,-122,-53
-73,-58,14,65,-43,-21,-87,-19,-53,-102,-112,-43
-73,-58,14,65,-43,-21,-87,-14,-53,-102,-112,-43
-78,-58,19,68,-48,-19,-87,-14,-53,-102,-112,-43
-78,-58,19,68,-48,-19,-87,-14,-53,-107,-112,-48
-68,-58,9,63,-39,-24,-87,-19,-48,-97,-117,-48
-68,-58,9,63,-39,-24,-87,-19,-48,-97,-117,-48
-68,-58,9,63,-39,-24,-87,-19,-48,-97,-117,-48
-63,-58,4,61,-34,-26,-92,-24,-53,-97,-117,-48
-63,-58,4,61,-34,-26,-92,-34,-63,-97,-117,-53
-63,-58,4,61,-34,-26,-92,-29,-58,-102,-117,-53
-63,-58,4,61,-34,-26,-92,-29,-58,-102,-117,-53
-63,-58,4,61,-34,-26,-87,-29,-58,-102,-117,-53
-63,-53,9,58,-36,-21,-87,-29,-58,-102,-117,-63
-63,-53,9,58,-36,-21,-92,-34,-63,-102,-117,-63
-63,-53,9,58,-36,-21,-92,-34,-63,-102,-117,-63
-63,-53,9,58,-36,-21,-92,-34,-63,-102,-117,-63
-63,-53,9,58,-36,-21,-92,-34,-63,-102,-122,-63
-68,-53,14,61,-41,-19,-92,-34,-63,-97,-122,-73
-73,-53,19,63,-46,-17,-87,-29,-63,-97,-122,-73
-73,-48,24,61,-48,-12,-87,-29,-63,-97,-122,-73
-68,-48,19,58,-43,-14,-92,-39,-63,-102,-122,-73
-68,-53,14,61,-41,-19,-92,-39,-63,-107,-126,-78
-78,-53,24,65,-51,-14,-87,-39,-63,-107,-126,-78
-78,-53,24,65,-51,-14,-87,-39,-63,-102,-126,-73
-63,-43,19,53,-41,-12,-87,-29,-68,-92,-126,-82
-63,-48,14,56,-39,-17,-92,-29,-68,-97,-126,-82
-58,-48,9,53,-34,-19,-92,-29,-68,-97,-126,-82
-58,-48,9,53,-34,-19,-87,-29,-68,-97,-126,-82
-48,-53,-4,51,-21,-29,-87,-34,-68,-107,-126,-87
-48,-53,-4,51,-21,-29,-92,-34,-73,-107,-126,-87
-48,-53,-4,51,-21,-29,-92,-34,-73,-102,-126,-87
-48,-53,-4,51,-21,-29,-92,-34,-68,-102,-126,-87
-53,-63,-9,58,-21,-36,-82,-34,-68,-92,-117,-87
-58,-63,-4,61,-26,-34,-82,-34,-68,-92,-117,-87
-63,-63,0,63,-31,-31,-82,-43,-68,-97,-117,-87
-68,-68,0,68,-34,-34,-82,-43,-78,-97,-117,-87
-78,-78,0,78,-39,-39,-82,-34,-78,-97,-117,-102
-87,-82,4,85,-46,-39,-82,-34,-78,-97,-117,-102
-87,-82,4,85,-46,-39,-82,-34,-73,-97,-117,-92
-97,-82,14,90,-56,-34,-78,-34,-68,-97,-117,-92
-92,-78,14,85,-53,-31,-87,-43,-78,-97,-117,-102
-78,-73,4,75,-41,-34,-97,-43,-82,-97,-117,-102
-73,-63,9,68,-41,-26,-97,-48,-82,-102,-117,-102
-53,-53,0,53,-26,-26,-97,-48,-92,-102,-122,-112
-53,-43,9,48,-31,-17,-87,-48,-82,-92,-122,-102
-58,-43,14,51,-36,-14,-87,-43,-68,-87,-112,-97
-53,-34,19,43,-36,-7,-82,-39,-63,-78,-107,-97
-58,-53,4,56,-31,-24,-82,-43,-73,-87,-117,-97
-58,-68,-9,63,-24,-39,-87,-48,-87,-97,-126,-107
-43,-63,-19,53,-12,-41,-92,-58,-97,-107,-136,-117
-39,-58,-19,48,-9,-39,-97,-58,-97,-107,-136,-117
-34,-53,-19,43,-7,-36,-102,-58,-97,-107,-136,-117
-29,-48,-19,39,-4,-34,-107,-58,-97,-107,-136,-117
-43,-48,-4,46,-19,-26,-102,-48,-92,-102,-131,-107
-48,-48,0,48,-24,-24,-97,-48,-87,-97,-126,-107
-53,-48,4,51,-29,-21,-92,-48,-82,-92,-122,-107
-58,-48,9,53,-34,-19,-87,-48,-78,-87,-117,-107
-58,-58,0,58,-29,-29,-87,-48,-78,-87,-117,-97
-58,-58,0,58,-29,-29,-87,-48,-78,-87,-117,-97
-58,-58,0,58,-29,-29,-87,-48,-78,-87,-117,-97
-58,-58,0,58,-29,-29,-87,-48,-78,-87,-117,-97
-53,-58,-4,56,-24,-31,-87,-48,-78,-87,-117,-97
-48,-58,-9,53,-19,-34,-87,-48,-78,-87,-117,-97
-43,-58,-14,51,-14,-36,-87,-48,-78,-87,-117,-97
-39,-58,-19,48,-9,-39,-87,-48,-78,-87,-117,-97
-48,-58,-9,53,-19,-34,-87,-48,-78,-87,-117,-107
-48,-58,-9,53,-19,-34,-87,-48,-78,-87,-117,-107
-48,-58,-9,53,-19,-34,-87,-48,-78,-87,-117,-107
-48,-58,-9,53,-19,-34,-87,-48,-78,-87,-117,-107
-48,-58,-9,53,-19,-34,-87,-58,-87,-97,-117,-117
-48,-58,-9,53,-19,-34,-87,-58,-87,-97,-117,-117
-48,-58,-9,53,-19,-34,-87,-58,-87,-97,-117,-117
-48,-58,-9,53,-19,-34,-87,-58,-87,-97,-117,-117
-48,-58,-9,53,-19,-34,-87,-48,-87,-87,-117,-117
-48,-58,-9,53,-19,-34,-87,-48,-87,-87,-117,-117
-48,-58,-9,53,-19,-34,-87,-48,-87,-87,-117,-117
-48,-58,-9,53,-19,-34,-87,-48,-87,-87,-117,-117
-58,-58,0,58,-29,-29,-78,-39,-78,-78,-107,-117
-58,-58,0,58,-29,-29,-78,-39,-78,-78,-107,-117
-58,-58,0,58,-29,-29,-78,-39,-78,-78,-107,-117
-58,-58,0,58,-29,-29,-78,-39,-78,-78,-107,-117
-48,-68,-19,58,-14,-43,-78,-39,-87,-87,-117,-126
-48,-68,-19,58,-14,-43,-78,-39,-87,-87,-117,-126
-48,-68,-19,58,-14,-43,-78,-39,-87,-87,-117,-126
-48,-68,-19,58,-14,-43,-78,-39,-87,-87,-117,-126
-58,-68,-9,63,-24,-39,-78,-39,-78,-87,-117,-126
-58,-68,-9,63,-24,-39,-78,-39,-78,-87,-117,-126
-58,-68,-9,63,-24,-39,-78,-39,-78,-87,-117,-126
-58,-68,-9,63,-24,-39,-78,-39,-78,-87,-117,-126
-53,-58,-4,56,-24,-31,-78,-39,-78,-87,-117,-126
-48,-58,-9,53,-19,-34,-78,-39,-78,-87,-117,-126
-43,-58,-14,51,-14,-36,-78,-39,-78,-87,-117,-126
-39,-58,-19,48,-9,-39,-78,-39,-78,-87,-117,-126
-48,-68,-19,58,-14,-43,-78,-39,-78,-87,-117,-126
-48,-68,-19,58,-14,-43,-78,-39,-78,-87,-117,-126
-48,-68,-19,58,-14,-43,-78,-39,-78,-87,-117,-126
-48,-68,-19,58,-14,-43,-78,-39,-78,-87,-117,-126
-48,-68,-19,58,-14,-43,-68,-39,-68,-78,-107,-117
-48,-68,-19,58,-14,-43,-68,-39,-68,-78,-107,-117
-48,-68,-19,58,-14,-43,-68,-39,-68,-78,-107,-117
-48,-68,-19,58,-14,-43,-68,-39,-68,-78,-107,-117
-39,-63,-24,51,-7,-43,-78,-39,-68,-78,-107,-107
-39,-58,-19,48,-9,-39,-78,-39,-68,-78,-107,-107
-39,-53,-14,46,-12,-34,-78,-39,-68,-78,-107,-107
-39,-48,-9,43,-14,-29,-78,-39,-68,-78,-107,-107
-39,-58,-19,48,-9,-39,-78,-39,-78,-78,-107,-92
-39,-58,-19,48,-9,-39,-78,-39,-78,-78,-107,-87
-39,-58,-19,48,-9,-39,-78,-39,-78,-78,-107,-82
-39,-58,-19,48,-9,-39,-78,-39,-78,-78,-107,-78
-43,-68,-24,56,-9,-46,-78,-39,-78,-68,-97,-68
-48,-68,-19,58,-14,-43,-78,-39,-78,-68,-97,-68
-53,-68,-14,61,-19,-41,-78,-39,-78,-68,-97,-68
-58,-68,-9,63,-24,-39,-78,-39,-78,-68,-97,-68
-68,-58,9,63,-39,-24,-78,-48,-78,-68,-107,-63
-68,-58,9,63,-39,-24,-78,-48,-78,-68,-107,-58
-68,-58,9,63,-39,-24,-78,-48,-78,-68,-107,-53
-68,-58,9,63,-39,-24,-78,-48,-78,-68,-107,-48
-63,-48,14,56,-39,-17,-87,-48,-78,-78,-107,-58
-58,-48,9,53,-34,-19,-87,-48,-78,-78,-107,-58
-53,-48,4,51,-29,-21,-87,-48,-78,-78,-107,-58
-48,-48,0,48,-24,-24,-87,-48,-78,-78,-107,-58
-39,-58,-19,48,-9,-39,-87,-48,-78,-78,-107,-48
-39,-58,-19,48,-9,-39,-87,-48,-78,-78,-107,-48
-39,-58,-19,48,-9,-39,-87,-48,-78,-78,-107,-48
-39,-58,-19,48,-9,-39,-87,-48,-78,-78,-107,-48
-48,-68,-19,58,-14,-43,-78,-39,-78,-68,-107,-43
-48,-68,-19,58,-14,-43,-78,-39,-78,-68,-107,-39
-48,-68,-19,58,-14,-43,-78,-39,-78,-68,-107,-34
-48,-68,-19,58,-14,-43,-78,-39,-78,-68,-107,-29
-43,-68,-24,56,-9,-46,-78,-39,-87,-78,-117,-39
-39,-68,-29,53,-4,-48,-78,-39,-87,-78,-117,-39
-34,-68,-34,51,0,-51,-78,-39,-87,-78,-117,-39
-29,-68,-39,48,4,-53,-78,-39,-87,-78,-117,-39
-43,-68,-24,56,-9,-46,-78,-39,-78,-78,-107,-39
-48,-68,-19,58,-14,-43,-78,-39,-78,-78,-107,-39
-53,-68,-14,61,-19,-41,-78,-39,-78,-78,-107,-39
-58,-68,-9,63,-24,-39,-78,-39,-78,-78,-107,-39
-53,-63,-9,58,-21,-36,-78,-39,-78,-68,-107,-48
-48,-58,-9,53,-19,-34,-78,-39,-78,-68,-107,-48
-43,-53,-9,48,-17,-31,-78,-39,-78,-68,-107,-48
-39,-48,-9,43,-14,-29,-78,-39,-78,-68,-107,-48
-29,-34,-4,31,-12,-19,-68,-34,-73,-63,-102,-48
-29,-29,0,29,-14,-14,-68,-29,-68,-58,-97,-48
-29,-24,4,26,-17,-9,-68,-24,-63,-53,-92,-48
-29,-19,9,24,-19,-4,-68,-19,-58,-48,-87,-48
-19,-4,14,12,-17,4,-68,-14,-48,-43,-73,-43
-19,0,19,9,-19,9,-68,-14,-43,-39,-68,-43
-14,9,24,2,-19,17,-68,-14,-43,-34,-68,-39
-9,9,19,0,-14,14,-68,-14,-39,-34,-68,-34
-9,24,34,-7,-21,29,-78,-24,-43,-29,-68,-34
0,24,24,-12,-12,24,-78,-19,-43,-29,-63,-34
4,24,19,-14,-7,21,-78,-19,-43,-29,-63,-29
4,14,9,-9,-2,12,-82,-19,-43,-29,-63,-29
9,4,-4,-7,7,0,-73,0,-34,-19,-53,-29
9,4,-4,-7,7,0,-73,0,-34,-14,-53,-29
14,4,-9,-9,12,-2,-73,0,-34,-14,-53,-29
24,0,-24,-12,24,-12,-73,0,-34,-14,-48,-29
48,4,-43,-26,46,-19,-78,0,-34,-9,-34,-14
58,14,-43,-36,51,-14,-87,-4,-34,-9,-34,-4
63,19,-43,-41,53,-12,-102,-19,-48,-14,-34,-4
63,24,-39,-43,51,-7,-126,-34,-58,-24,-34,-4
53,39,-14,-46,34,12,-136,-43,-58,-14,-24,4
63,43,-19,-53,41,12,-146,-53,-63,-19,-29,9
63,43,-19,-53,41,12,-146,-53,-68,-24,-29,9
63,34,-29,-48,46,2,-141,-58,-78,-29,-34,4
63,9,-53,-36,58,-21,-151,-78,-92,-48,-53,-14
63,9,-53,-36,58,-21,-146,-78,-102,-68,-73,-24
58,9,-48,-34,53,-19,-141,-78,-102,-73,-78,-34
58,9,-48,-34,53,-19,-136,-68,-102,-73,-82,-39
58,14,-43,-36,51,-14,-122,-53,-87,-53,-73,-29
53,14,-39,-34,46,-12,-107,-48,-87,-48,-68,-24
53,9,-43,-31,48,-17,-117,-48,-82,-48,-63,-24
63,9,-53,-36,58,-21,-117,-48,-82,-48,-63,-24
68,9,-58,-39,63,-24,-117,-39,-73,-43,-53,-19
68,4,-63,-36,65,-29,-102,-34,-68,-43,-53,-14
58,4,-53,-31,56,-24,-97,-29,-68,-34,-53,-9
48,-4,-53,-21,51,-29,-97,-29,-68,-43,-53,-4
48,0,-48,-24,48,-24,-97,-29,-73,-48,-58,-19
58,0,-58,-29,58,-29,-92,-34,-73,-48,-63,-19
58,4,-53,-31,56,-24,-92,-39,-73,-43,-63,-19
48,4,-43,-26,46,-19,-97,-39,-73,-43,-63,-19
43,4,-39,-24,41,-17,-87,-39,-73,-43,-58,-19
39,0,-39,-19,39,-19,-87,-39,-73,-48,-58,-19
39,0,-39,-19,39,-19,-82,-39,-73,-48,-63,-24
39,-9,-48,-14,43,-29,-82,-39,-78,-63,-73,-34
34,-19,-53,-7,43,-36,-87,-48,-92,-68,-87,-43
14,-34,-48,9,31,-41,-78,-43,-92,-68,-97,-63
4,-43,-48,19,26,-46,-73,-43,-92,-78,-107,-73
-9,-53,-43,31,17,-48,-63,-39,-92,-82,-112,-82
-34,-53,-19,43,-7,-36,-48,-24,-92,-82,-112,-82
-39,-53,-14,46,-12,-34,-48,-24,-87,-82,-112,-82
-48,-53,-4,51,-21,-29,-48,-24,-87,-78,-107,-82
-53,-48,4,51,-29,-21,-48,-24,-87,-73,-107,-82
-48,-43,4,46,-26,-19,-48,-24,-97,-82,-117,-87
-43,-43,0,43,-21,-21,-53,-29,-97,-82,-117,-92
-29,-53,-24,41,-2,-39,-53,-29,-97,-87,-122,-102
-19,-58,-39,39,9,-48,-53,-29,-107,-92,-122,-112
-24,-58,-34,41,4,-46,-53,-19,-102,-82,-126,-107
-29,-58,-29,43,0,-43,-53,-19,-97,-82,-122,-107
-43,-53,-9,48,-17,-31,-48,-19,-92,-82,-112,-107
-53,-53,0,53,-26,-26,-48,-19,-87,-82,-102,-102
-53,-53,0,53,-26,-26,-53,-19,-97,-92,-112,-112
-53,-53,0,53,-26,-26,-53,-19,-97,-92,-112,-112
-58,-53,4,56,-31,-24,-53,-19,-97,-87,-112,-112
-58,-53,4,56,-31,-24,-53,-19,-92,-87,-112,-112
-48,-58,-9,53,-19,-34,-43,-29,-102,-97,-122,-122
-43,-58,-14,51,-14,-36,-43,-29,-97,-97,-126,-122
-39,-53,-14,46,-12,-34,-43,-29,-97,-97,-126,-122
-39,-53,-14,46,-12,-34,-43,-24,-97,-97,-126,-122
-48,-53,-4,51,-21,-29,-39,-24,-87,-87,-117,-112
-53,-53,0,53,-26,-26,-39,-19,-87,-87,-112,-112
-53,-48,4,51,-29,-21,-39,-19,-87,-87,-112,-112
-53,-48,4,51,-29,-21,-39,-19,-87,-87,-117,-117
-63,-48,14,56,-39,-17,-29,-9,-87,-78,-107,-107
-63,-48,14,56,-39,-17,-29,-9,-87,-78,-107,-107
-68,-48,19,58,-43,-14,-29,-9,-87,-73,-102,-107
-68,-48,19,58,-43,-14,-29,-9,-87,-73,-102,-107
-53,-48,4,51,-29,-21,-34,-9,-87,-73,-102,-112
-53,-48,4,51,-29,-21,-34,-14,-87,-73,-102,-112
-53,-48,4,51,-29,-21,-34,-14,-87,-73,-102,-112
-58,-53,4,56,-31,-24,-34,-14,-87,-73,-102,-112
-53,-43,9,48,-31,-17,-34,-9,-87,-82,-112,-112
-53,-39,14,46,-34,-12,-39,-9,-87,-82,-112,-112
-48,-39,9,43,-29,-14,-39,-14,-87,-82,-112,-117
-48,-39,9,43,-29,-14,-39,-14,-87,-82,-112,-117
-58,-48,9,53,-34,-19,-29,-4,-78,-73,-102,-102
-58,-48,9,53,-34,-19,-29,-9,-78,-73,-102,-102
-48,-39,9,43,-29,-14,-34,-19,-87,-73,-102,-97
-53,-39,14,46,-34,-12,-34,-14,-78,-68,-92,-92
-63,-34,29,48,-46,-2,-43,-14,-78,-53,-73,-73
-68,-29,39,48,-53,4,-58,-34,-78,-53,-63,-68
-43,-24,19,34,-31,-2,-78,-58,-92,-53,-63,-58
-24,-14,9,19,-17,-2,-92,-68,-97,-53,-63,-58
-34,0,34,17,-34,17,-112,-73,-102,-48,-58,-68
-39,4,43,17,-41,24,-131,-87,-92,-29,-43,-48
-19,43,63,-12,-41,53,-161,-122,-107,-19,-4,0
14,78,63,-46,-24,70,-229,-195,-136,-19,53,58
48,141,92,-95,-21,117,-307,-297,-161,4,136,161
73,219,146,-146,-36,183,-414,-419,-200,34,239,307
102,292,190,-197,-43,241,-541,-566,-273,53,346,448
136,341,204,-239,-34,273,-658,-702,-351,53,444,600
195,409,214,-302,-9,312,-775,-824,-414,63,561,756
273,502,229,-387,21,366,-883,-922,-478,73,683,927
380,605,224,-492,78,414,-980,-1000,-531,97,824,1127
497,722,224,-610,136,473,-1068,-1054,-566,146,990,1351
590,829,239,-710,175,534,-1161,-1117,-580,214,1180,1600
649,902,253,-775,197,578,-1244,-1171,-614,268,1351,1844
702,941,239,-822,231,590,-1302,-1195,-644,287,1473,2034
756,932,175,-844,290,553,-1342,-1205,-673,278,1527,2137
800,897,97,-849,351,497,-1342,-1185,-697,244,1503,2166
829,800,-29,-814,429,385,-1312,-1127,-722,175,1410,2122
849,653,-195,-751,522,229,-1263,-1054,-766,43,1190,1947
844,468,-375,-656,610,46,-1185,-980,-824,-112,883,1654
805,292,-512,-549,658,-109,-1088,-912,-863,-278,541,1312
751,131,-619,-441,685,-244,-976,-854,-897,-463,185,932
663,-43,-707,-309,685,-375,-873,-790,-927,-644,-156,531
570,-151,-722,-209,646,-436,-771,-722,-897,-717,-356,278
507,-180,-688,-163,597,-434,-702,-663,-849,-692,-366,209
483,-185,-668,-148,575,-427,-653,-610,-771,-629,-331,185
434,-195,-629,-119,531,-412,-585,-546,-707,-580,-331,122
375,-195,-570,-90,473,-383,-507,-483,-639,-531,-326,48
297,-170,-468,-63,383,-319,-439,-409,-575,-468,-292,4
224,-146,-370,-39,297,-258,-361,-346,-492,-400,-268,-19
170,-146,-317,-12,244,-231,-297,-273,-419,-351,-258,-48
126,-151,-278,12,202,-214,-239,-214,-346,-307,-239,-73
102,-146,-248,21,175,-197,-200,-165,-283,-263,-219,-73
68,-122,-190,26,129,-156,-165,-141,-239,-224,-200,-73
43,-122,-165,39,104,-143,-146,-126,-209,-195,-175,-82
24,-122,-146,48,85,-134,-122,-107,-195,-175,-156,-82
14,-102,-117,43,65,-109,-107,-82,-190,-156,-151,-82
-9,-92,-82,51,36,-87,-87,-58,-175,-146,-141,-87
-9,-82,-73,46,31,-78,-63,-43,-151,-131,-131,-92
-4,-68,-63,36,29,-65,-48,-9,-126,-117,-136,-107
-19,-53,-34,36,7,-43,-24,9,-82,-97,-136,-117
-43,-39,4,41,-24,-17,-9,14,-53,-73,-112,-117
-39,-14,24,26,-31,4,-9,14,-43,-48,-92,-102
-29,0,29,14,-29,14,-9,14,-48,-48,-87,-92
-29,0,29,14,-29,14,-9,14,-48,-39,-73,-87
-29,0,29,14,-29,14,-4,24,-48,-48,-78,-87
-29,0,29,14,-29,14,4,39,-48,-39,-78,-92
-29,0,29,14,-29,14,9,43,-39,-29,-78,-92
-39,4,43,17,-41,24,24,53,-29,-29,-78,-92
-43,9,53,17,-48,31,24,58,-9,-24,-78,-102
-48,14,63,17,-56,39,24,58,-9,-24,-78,-102
-53,19,73,17,-63,46,24,53,-9,-19,-73,-102
-58,19,78,19,-68,48,19,53,-9,-14,-63,-102
-43,9,53,17,-48,31,19,43,-19,-14,-63,-102
-34,9,43,12,-39,26,24,53,-19,-14,-63,-102
-29,9,39,9,-34,24,24,58,-19,-14,-63,-97
-34,9,43,12,-39,26,29,63,-9,-9,-63,-97
-39,19,58,9,-48,39,39,68,4,-9,-58,-92
-43,19,63,12,-53,41,39,73,4,-4,-58,-92
-48,19,68,14,-58,43,39,73,9,-4,-58,-92
-53,24,78,14,-65,51,39,78,9,-4,-58,-87
-58,14,73,21,-65,43,39,78,9,-4,-53,-87
-58,14,73,21,-65,43,43,87,9,-4,-53,-82
-63,19,82,21,-73,51,43,87,14,0,-48,-82
-63,19,82,21,-73,51,43,87,14,4,-48,-82
-53,19,73,17,-63,46,53,92,4,4,-43,-82
-58,19,78,19,-68,48,53,92,9,4,-43,-82
-58,19,78,19,-68,48,53,92,9,4,-43,-82
-58,19,78,19,-68,48,53,92,9,4,-43,-82
-48,29,78,9,-63,53,53,97,19,4,-43,-78
-48,29,78,9,-63,53,53,97,19,4,-43,-78
-48,34,82,7,-65,58,48,97,19,4,-43,-78
-48,34,82,7,-65,58,48,102,19,9,-43,-78
-53,34,87,9,-70,61,53,112,19,9,-34,-68
-58,34,92,12,-75,63,63,107,24,9,-34,-63
-53,34,87,9,-70,61,68,107,24,9,-34,-63
-58,39,97,9,-78,68,73,107,24,9,-34,-63
-48,39,87,4,-68,63,63,112,24,9,-34,-63
-48,34,82,7,-65,58,63,112,24,9,-34,-63
-43,34,78,4,-61,56,63,112,24,9,-34,-63
-43,39,82,2,-63,61,63,112,24,14,-29,-63
-53,29,82,12,-68,56,73,112,24,14,-29,-73
-53,29,82,12,-68,56,73,112,24,14,-29,-68
-53,29,82,12,-68,56,73,112,29,14,-24,-68
-58,29,87,14,-73,58,73,122,29,14,-24,-68
-58,29,87,14,-73,58,73,122,29,19,-24,-58
-58,29,87,14,-73,58,73,117,34,19,-24,-58
-53,29,82,12,-68,56,73,117,34,19,-24,-58
-53,29,82,12,-68,56,73,117,34,19,-24,-58
-63,34,97,14,-80,65,73,126,34,19,-29,-58
-63,34,97,14,-80,65,73,126,34,19,-29,-58
-63,34,97,14,-80,65,73,126,34,19,-24,-63
-53,34,87,9,-70,61,73,126,34,19,-24,-68
-43,34,78,4,-61,56,63,122,34,24,-19,-68
-48,34,82,7,-65,58,68,122,34,24,-19,-63
-48,34,82,7,-65,58,68,122,34,19,-24,-63
-34,34,68,0,-51,51,63,122,29,19,-24,-68
-24,34,58,-4,-41,46,73,122,29,19,-24,-68
-24,34,58,-4,-41,46,73,126,39,24,-24,-68
-39,34,73,2,-56,53,78,131,43,29,-19,-63
-39,34,73,2,-56,53,82,131,43,29,-19,-63
-39,34,73,2,-56,53,73,122,43,29,-19,-63
-39,34,73,2,-56,53,73,126,43,29,-19,-63
-39,34,73,2,-56,53,73,126,48,29,-19,-63
-24,34,58,-4,-41,46,73,126,48,29,-19,-63
-29,34,63,-2,-46,48,82,131,48,29,-14,-63
-29,34,63,-2,-46,48,82,136,48,34,-14,-63
-43,29,73,7,-58,51,82,146,58,34,-9,-63
-43,29,73,7,-58,51,87,156,58,34,-9,-63
-48,29,78,9,-63,53,97,156,63,34,-9,-63
-48,29,78,9,-63,53,97,151,63,39,-9,-63
-53,29,82,12,-68,56,97,151,63,39,-9,-63
-53,29,82,12,-68,56,97,151,68,39,-9,-63
-43,19,63,12,-53,41,87,146,58,29,-19,-73
-39,19,58,9,-48,39,87,146,58,29,-19,-78
-34,19,53,7,-43,36,87,146,58,34,-14,-78
-29,19,48,4,-39,34,92,156,58,34,-14,-78
-39,19,58,9,-48,39,92,156,58,39,-14,-78
-39,19,58,9,-48,39,92,156,63,39,-14,-78
-39,19,58,9,-48,39,92,161,68,39,-14,-78
-39,19,58,9,-48,39,92,165,73,39,-9,-78
-48,29,78,9,-63,53,102,170,82,53,0,-73
-48,29,78,9,-63,53,102,175,82,58,4,-73
-58,29,87,14,-73,58,102,180,87,68,4,-73
-58,29,87,14,-73,58,102,190,87,68,9,-78
-43,24,68,9,-56,46,102,180,78,58,0,-82
-43,24,68,9,-56,46,102,180,87,58,0,-87
-43,24,68,9,-56,46,102,180,87,58,4,-87
-43,29,73,7,-58,51,102,185,87,58,4,-82
-39,29,68,4,-53,48,102,175,78,63,-4,-92
-39,29,68,4,-53,48,102,175,82,63,-4,-92
-39,24,63,7,-51,43,107,180,82,68,-4,-92
-43,19,63,12,-53,41,112,190,87,68,0,-92
-48,29,78,9,-63,53,112,204,107,78,4,-102
-48,39,87,4,-68,63,112,204,107,82,14,-102
-48,39,87,4,-68,63,112,209,112,82,14,-102
-43,43,87,0,-65,65,112,209,112,87,9,-102
-43,43,87,0,-65,65,122,214,112,92,19,-102
-48,43,92,2,-70,68,131,219,117,97,29,-97
-48,43,92,2,-70,68,131,224,122,102,29,-92
-43,43,87,0,-65,65,131,224,126,102,34,-92
-34,53,87,-9,-61,70,136,234,131,107,34,-102
-34,53,87,-9,-61,70,136,244,136,112,39,-102
-34,53,87,-9,-61,70,136,244,141,117,43,-97
-34,63,97,-14,-65,80,141,244,146,122,53,-97
-34,68,102,-17,-68,85,141,253,151,126,48,-97
-34,68,102,-17,-68,85,146,258,161,131,53,-92
-34,63,97,-14,-65,80,146,268,165,136,58,-87
-34,58,92,-12,-63,75,156,273,170,146,63,-87
-34,68,102,-17,-68,85,156,278,190,146,68,-82
-34,73,107,-19,-70,90,156,287,195,156,73,-82
-34,73,107,-19,-70,90,161,287,195,161,73,-78
-34,78,112,-21,-73,95,161,292,200,170,78,-78
-39,78,117,-19,-78,97,170,312,219,185,97,-68
-48,82,131,-17,-90,107,175,317,229,200,102,-68
-39,87,126,-24,-82,107,175,322,234,200,107,-68
-39,92,131,-26,-85,112,175,326,248,209,117,-58
-29,97,126,-34,-78,112,190,336,244,224,117,-53
-29,97,126,-34,-78,112,200,346,258,229,122,-48
-24,102,126,-39,-75,114,204,356,268,239,136,-48
-24,107,131,-41,-78,119,204,361,273,248,146,-34
-24,122,146,-48,-85,134,195,366,287,248,151,-39
-24,126,151,-51,-87,139,204,375,297,263,161,-34
-14,131,146,-58,-80,139,204,375,307,273,170,-24
-9,136,146,-63,-78,141,204,380,317,283,185,-24
0,146,146,-73,-73,146,214,385,317,297,185,-9
0,151,151,-75,-75,151,224,390,331,317,204,4
0,146,146,-73,-73,146,229,395,341,326,214,14
-4,146,151,-70,-78,148,234,405,351,341,234,24
-9,161,170,-75,-90,165,224,414,370,351,253,34
-4,175,180,-85,-92,178,224,419,375,361,268,43
-4,175,180,-85,-92,178,224,424,385,370,278,48
-4,185,190,-90,-97,187,224,434,395,385,292,63
4,190,185,-97,-90,187,234,439,395,405,302,68
4,195,190,-100,-92,192,234,444,405,414,312,78
4,200,195,-102,-95,197,234,448,414,419,322,87
4,200,195,-102,-95,197,234,448,424,434,326,97
19,214,195,-117,-87,204,219,448,424,448,351,107
29,234,204,-131,-87,219,219,448,434,458,366,126
34,239,204,-136,-85,222,214,448,444,468,380,136
39,248,209,-143,-85,229,209,448,444,478,395,151
34,268,234,-151,-100,251,214,448,458,497,405,165
39,278,239,-158,-100,258,214,448,463,507,419,180
43,283,239,-163,-97,261,209,444,468,517,439,195
43,292,248,-168,-102,270,200,444,468,522,448,209
53,297,244,-175,-95,270,200,434,473,527,453,224
58,297,239,-178,-90,268,195,424,473,527,468,239
58,302,244,-180,-92,273,180,424,468,527,478,248
58,302,244,-180,-92,273,170,414,463,531,492,263
68,312,244,-190,-87,278,165,400,453,531,488,268
78,317,239,-197,-80,278,151,390,444,531,492,278
87,322,234,-204,-73,278,141,380,439,527,502,287
87,322,234,-204,-73,278,136,370,434,522,502,292
87,317,229,-202,-70,273,126,361,424,517,502,302
87,322,234,-204,-73,278,117,346,414,507,497,312
87,317,229,-202,-70,273,107,331,400,502,497,317
97,312,214,-204,-58,263,97,312,390,492,497,317
107,317,209,-212,-51,263,78,307,385,478,502,317
107,307,200,-207,-46,253,68,297,370,468,497,317
107,312,204,-209,-48,258,58,283,356,458,483,322
107,317,209,-212,-51,263,43,268,336,439,473,322
107,322,214,-214,-53,268,34,248,322,439,473,322
107,322,214,-214,-53,268,29,234,302,419,458,322
107,322,214,-214,-53,268,24,214,287,400,444,312
107,312,204,-209,-48,258,14,204,273,380,429,317
97,302,204,-200,-53,253,14,200,263,375,419,317
92,302,209,-197,-58,256,14,190,244,356,400,312
92,287,195,-190,-51,241,9,175,229,341,385,297
97,287,190,-192,-46,239,0,165,214,322,366,287
102,287,185,-195,-41,236,-4,146,195,292,356,273
107,273,165,-190,-29,219,-14,136,180,273,341,258
107,258,151,-183,-21,204,-24,126,165,253,317,244
107,244,136,-175,-14,190,-29,117,151,239,302,229
87,219,131,-153,-21,175,-29,122,136,214,273,219
82,209,126,-146,-21,168,-29,112,126,200,248,204
78,204,126,-141,-24,165,-29,107,117,180,234,190
73,190,117,-131,-21,153,-34,97,97,170,209,170
63,185,122,-124,-29,153,-34,82,87,161,195,151
53,175,122,-114,-34,148,-34,82,73,141,180,141
53,165,112,-109,-29,139,-29,82,68,131,165,122
43,156,112,-100,-34,134,-29,82,58,112,151,107
39,141,102,-90,-31,122,-29,78,48,97,122,102
34,126,92,-80,-29,109,-29,73,39,82,107,82
29,117,87,-73,-29,102,-29,68,34,73,92,78
19,112,92,-65,-36,102,-24,68,24,63,82,68
14,102,87,-58,-36,95,-14,68,19,58,73,63
14,97,82,-56,-34,90,-14,68,9,43,63,48
14,87,73,-51,-29,80,-14,63,4,34,48,39
9,78,68,-43,-29,73,-14,58,-4,24,34,24
14,82,68,-48,-26,75,-24,48,-9,4,19,0
9,73,63,-41,-26,68,-24,48,-9,4,14,-9
4,63,58,-34,-26,61,-19,48,-19,-4,4,-19
4,58,53,-31,-24,56,-19,48,-24,-14,-9,-29
0,48,48,-24,-24,48,-19,43,-24,-14,-14,-24
-4,48,53,-21,-29,51,-19,43,-24,-14,-14,-24
-4,43,48,-19,-26,46,-19,43,-24,-19,-19,-34
-9,34,43,-12,-26,39,-19,39,-29,-29,-24,-39
-19,34,53,-7,-36,43,-19,48,-43,-39,-34,-58
-19,34,53,-7,-36,43,-19,48,-43,-39,-43,-68
-14,34,48,-9,-31,41,-14,48,-43,-43,-43,-68
-14,34,48,-9,-31,41,-14,53,-43,-43,-43,-68
-4,24,29,-9,-17,26,-24,48,-53,-43,-53,-68
-9,24,34,-7,-21,29,-19,43,-58,-43,-58,-73
-4,24,29,-9,-17,26,-19,39,-58,-43,-63,-78
0,19,19,-9,-9,19,-19,34,-58,-53,-68,-82
-4,19,24,-7,-14,21,-9,43,-48,-53,-63,-78
-9,19,29,-4,-19,24,-9,43,-48,-53,-63,-78
-14,19,34,-2,-24,26,-9,48,-48,-53,-58,-78
-24,14,39,4,-31,26,-9,48,-48,-53,-58,-82
-39,9,48,14,-43,29,-4,48,-48,-63,-73,-87
