I, II, III, aVR, aVL, aVF, V1, V2, V3, V4, V5, V6
-39,-9,29,24,-34,9,19,-9,-19,-19,-9,0
-39,-9,29,24,-34,9,19,-9,-19,-19,-9,0
-39,-9,29,24,-34,9,19,-9,-19,-19,-9,0
-39,-9,29,24,-34,9,19,-9,-19,-19,-9,0
-39,-14,24,26,-31,4,19,-9,-19,-29,-9,-9
-39,-19,19,29,-29,0,19,-9,-19,-29,-9,-9
-39,-24,14,31,-26,-4,19,-9,-19,-29,-9,-9
-39,-29,9,34,-24,-9,19,-9,-19,-29,-9,-9
-24,-24,0,24,-12,-12,29,0,-19,-19,-9,-9
-19,-19,0,19,-9,-9,29,0,-19,-19,-9,-9
-14,-14,0,14,-7,-7,29,0,-19,-19,-9,-9
-9,-9,0,9,-4,-4,29,0,-19,-19,-9,-9
-14,-19,-4,17,-4,-12,19,-9,-19,-24,-14,-19
-19,-19,0,19,-9,-9,19,-9,-19,-29,-19,-19
-24,-19,4,21,-14,-7,19,-9,-19,-34,-24,-19
-29,-19,9,24,-19,-4,19,-9,-19,-39,-29,-19
-43,-24,19,34,-31,-2,19,-19,-19,-48,-29,-24
-48,-29,19,39,-34,-4,19,-19,-19,-48,-29,-29
-53,-34,19,43,-36,-7,19,-19,-19,-48,-29,-34
-58,-39,19,48,-39,-9,19,-19,-19,-48,-29,-39
-43,-29,14,36,-29,-7,19,-19,-19,-48,-39,-39
-39,-29,9,34,-24,-9,19,-19,-19,-48,-39,-39
-34,-29,4,31,-19,-12,19,-19,-19,-48,-39,-39
-29,-29,0,29,-14,-14,19,-19,-19,-48,-39,-39
-39,-29,9,34,-24,-9,24,-9,-9,-48,-39,-39
-39,-29,9,34,-24,-9,29,-9,-9,-48,-39,-39
-39,-29,9,34,-24,-9,34,-9,-9,-48,-39,-39
-39,-29,9,34,-24,-9,39,-9,-9,-48,-39,-39
-29,-14,14,21,-21,0,29,0,0,-39,-29,-29
-29,-9,19,19,-24,4,29,0,0,-39,-29,-29
-29,-4,24,17,-26,9,29,0,0,-39,-29,-29
-29,0,29,14,-29,14,29,0,0,-39,-29,-29
-39,-4,34,21,-36,14,39,0,0,-39,-29,-39
-39,-9,29,24,-34,9,39,0,0,-39,-29,-39
-39,-14,24,26,-31,4,39,0,0,-39,-29,-39
-39,-19,19,29,-29,0,39,0,0,-39,-29,-39
-39,-19,19,29,-29,0,39,0,9,-48,-39,-48
-39,-19,19,29,-29,0,39,0,9,-48,-39,-48
-39,-19,19,29,-29,0,39,0,9,-48,-39,-48
-39,-19,19,29,-29,0,39,0,9,-48,-39,-48
-63,-29,34,46,-48,2,29,0,0,-48,-39,-58
-78,-39,39,58,-58,0,29,0,0,-48,-39,-58
-92,-48,43,70,-68,-2,29,0,0,-48,-39,-58
-107,-58,48,82,-78,-4,29,0,0,-48,-39,-58
-92,-53,39,73,-65,-7,39,9,4,-39,-39,-48
-87,-48,39,68,-63,-4,39,9,9,-39,-39,-48
-82,-43,39,63,-61,-2,39,9,14,-39,-39,-48
-78,-39,39,58,-58,0,39,9,19,-39,-39,-48
-82,-39,43,61,-63,2,43,19,24,-34,-29,-48
-87,-39,48,63,-68,4,48,19,29,-29,-29,-48
-92,-39,53,65,-73,7,53,19,34,-24,-29,-48
-97,-39,58,68,-78,9,58,19,39,-19,-29,-48
-87,-34,53,61,-70,9,58,19,48,-19,-29,-39
-78,-29,48,53,-63,9,58,19,48,-19,-29,-39
-68,-24,43,46,-56,9,58,19,48,-19,-29,-39
-58,-19,39,39,-48,9,58,19,48,-19,-29,-39
-68,-24,43,46,-56,9,58,19,39,-19,-39,-43
-78,-29,48,53,-63,9,58,19,39,-19,-39,-48
-87,-34,53,61,-70,9,58,19,39,-19,-39,-53
-97,-39,58,68,-78,9,58,19,39,-19,-39,-58
-87,-34,53,61,-70,9,58,19,48,-9,-29,-53
-87,-29,58,58,-73,14,58,19,48,-9,-29,-48
-87,-24,63,56,-75,19,58,19,48,-9,-29,-43
-87,-19,68,53,-78,24,58,19,48,-9,-29,-39
-87,-9,78,48,-82,34,68,24,58,0,-19,-39
-87,-9,78,48,-82,34,68,29,58,0,-19,-39
-87,-9,78,48,-82,34,68,34,58,0,-19,-39
-87,-9,78,48,-82,34,68,39,58,0,-19,-39
-87,-19,68,53,-78,24,78,39,58,0,-9,-29
-87,-19,68,53,-78,24,78,39,58,0,-9,-29
-87,-19,68,53,-78,24,78,39,58,0,-9,-29
-87,-19,68,53,-78,24,78,39,58,0,-9,-29
-92,-34,58,63,-75,12,73,29,48,-9,-19,-39
-97,-39,58,68,-78,9,68,29,48,-9,-19,-39
-102,-43,58,73,-80,7,63,29,48,-9,-19,-39
-107,-48,58,78,-82,4,58,29,48,-9,-19,-39
-87,-39,48,63,-68,4,68,39,48,0,-19,-39
-78,-29,48,53,-63,9,68,39,48,0,-19,-39
-68,-19,48,43,-58,14,68,39,48,0,-19,-39
-58,-9,48,34,-53,19,68,39,48,0,-19,-39
-63,-14,48,39,-56,17,58,29,43,-14,-24,-43
-68,-19,48,43,-58,14,58,29,39,-19,-29,-48
-73,-24,48,48,-61,12,58,29,34,-24,-34,-53
-78,-29,48,53,-63,9,58,29,29,-29,-39,-58
-78,-29,48,53,-63,9,58,29,29,-19,-29,-48
-78,-29,48,53,-63,9,58,29,29,-19,-29,-48
-78,-29,48,53,-63,9,58,29,29,-19,-29,-48
-78,-29,48,53,-63,9,58,29,29,-19,-29,-48
-82,-34,48,58,-65,7,58,19,19,-29,-29,-39
-87,-39,48,63,-68,4,58,19,19,-29,-29,-39
-92,-43,48,68,-70,2,58,19,19,-29,-29,-39
-97,-48,48,73,-73,0,58,19,19,-29,-29,-39
-107,-58,48,82,-78,-4,58,19,9,-39,-29,-39
-107,-58,48,82,-78,-4,58,19,9,-39,-29,-39
-107,-58,48,82,-78,-4,58,19,9,-39,-29,-39
-107,-58,48,82,-78,-4,58,19,9,-39,-29,-39
-92,-53,39,73,-65,-7,58,19,19,-29,-29,-39
-87,-48,39,68,-63,-4,58,19,19,-29,-29,-39
-82,-43,39,63,-61,-2,58,19,19,-29,-29,-39
-78,-39,39,58,-58,0,58,19,19,-29,-29,-39
-87,-48,39,68,-63,-4,48,9,9,-39,-39,-39
-87,-48,39,68,-63,-4,48,9,9,-39,-39,-39
-87,-48,39,68,-63,-4,48,9,9,-39,-39,-39
-87,-48,39,68,-63,-4,48,9,9,-39,-39,-39
-82,-43,39,63,-61,-2,39,9,0,-39,-39,-48
-78,-39,39,58,-58,0,39,9,0,-39,-39,-48
-73,-34,39,53,-56,2,39,9,0,-39,-39,-48
-68,-29,39,48,-53,4,39,9,0,-39,-39,-48
-73,-34,39,53,-56,2,39,9,-9,-39,-39,-48
-78,-39,39,58,-58,0,39,9,-9,-39,-39,-48
-82,-43,39,63,-61,-2,39,9,-9,-39,-39,-48
-87,-48,39,68,-63,-4,39,9,-9,-39,-39,-48
-78,-39,39,58,-58,0,48,9,0,-39,-29,-39
-78,-39,39,58,-58,0,48,9,0,-39,-29,-39
-78,-39,39,58,-58,0,48,9,0,-39,-29,-39
-78,-39,39,58,-58,0,48,9,0,-39,-29,-39
-68,-39,29,53,-48,-4,39,9,0,-39,-29,-39
-68,-39,29,53,-48,-4,39,9,0,-39,-29,-39
-68,-39,29,53,-48,-4,39,9,0,-39,-29,-39
-68,-39,29,53,-48,-4,39,9,0,-39,-29,-39
-68,-39,29,53,-48,-4,39,9,0,-39,-29,-48
-68,-39,29,53,-48,-4,39,9,0,-39,-29,-48
-68,-39,29,53,-48,-4,39,9,0,-39,-29,-48
-68,-39,29,53,-48,-4,39,9,0,-39,-29,-48
-73,-48,24,61,-48,-12,29,0,-9,-43,-39,-58
-78,-48,29,63,-53,-9,29,0,-9,-48,-39,-58
-82,-48,34,65,-58,-7,29,0,-9,-53,-39,-58
-87,-48,39,68,-63,-4,29,0,-9,-58,-39,-58
-73,-39,34,56,-53,-2,29,0,-9,-53,-39,-48
-68,-39,29,53,-48,-4,29,0,-9,-48,-39,-48
-63,-39,24,51,-43,-7,29,0,-9,-43,-39,-48
-58,-39,19,48,-39,-9,29,0,-9,-39,-39,-48
-68,-39,29,53,-48,-4,29,0,-19,-48,-39,-58
-68,-39,29,53,-48,-4,29,0,-19,-48,-39,-58
-68,-39,29,53,-48,-4,29,0,-19,-48,-39,-58
-68,-39,29,53,-48,-4,29,0,-19,-48,-39,-58
-73,-48,24,61,-48,-12,29,0,-19,-48,-39,-68
-78,-48,29,63,-53,-9,29,0,-19,-48,-39,-68
-82,-48,34,65,-58,-7,29,0,-19,-48,-39,-68
-87,-48,39,68,-63,-4,29,0,-19,-48,-39,-68
-82,-39,43,61,-63,2,29,0,-9,-39,-39,-63
-78,-39,39,58,-58,0,29,0,-9,-39,-39,-58
-73,-39,34,56,-53,-2,29,0,-9,-39,-39,-53
-68,-39,29,53,-48,-4,29,0,-9,-39,-39,-48
-73,-43,29,58,-51,-7,19,-4,-14,-48,-39,-58
-78,-48,29,63,-53,-9,19,-9,-19,-48,-39,-58
-82,-53,29,68,-56,-12,19,-14,-24,-48,-39,-58
-87,-58,29,73,-58,-14,19,-19,-29,-48,-39,-58
-87,-48,39,68,-63,-4,29,-14,-19,-39,-39,-48
-87,-48,39,68,-63,-4,29,-9,-19,-39,-39,-48
-87,-48,39,68,-63,-4,29,-4,-19,-39,-39,-48
-87,-48,39,68,-63,-4,29,0,-19,-39,-39,-48
-73,-43,29,58,-51,-7,29,0,-19,-48,-39,-48
-68,-39,29,53,-48,-4,29,0,-19,-48,-39,-48
-63,-34,29,48,-46,-2,29,0,-19,-48,-39,-48
-58,-29,29,43,-43,0,29,0,-19,-48,-39,-48
-58,-39,19,48,-39,-9,19,-9,-29,-58,-48,-58
-58,-39,19,48,-39,-9,19,-9,-29,-58,-48,-58
-58,-39,19,48,-39,-9,19,-9,-29,-58,-48,-58
-58,-39,19,48,-39,-9,19,-9,-29,-58,-48,-58
-68,-39,29,53,-48,-4,19,-9,-19,-48,-48,-58
-68,-39,29,53,-48,-4,19,-9,-19,-48,-48,-58
-68,-39,29,53,-48,-4,19,-9,-19,-48,-48,-58
-68,-39,29,53,-48,-4,19,-9,-19,-48,-48,-58
-68,-29,39,48,-53,4,29,0,-9,-39,-43,-53
-68,-29,39,48,-53,4,29,0,-9,-39,-39,-48
-68,-29,39,48,-53,4,29,0,-9,-39,-34,-43
-68,-29,39,48,-53,4,29,0,-9,-39,-29,-39
-58,-39,19,48,-39,-9,24,0,-19,-48,-39,-48
-58,-39,19,48,-39,-9,19,0,-19,-48,-39,-48
-58,-39,19,48,-39,-9,14,0,-19,-48,-39,-48
-58,-39,19,48,-39,-9,9,0,-19,-48,-39,-48
-63,-43,19,53,-41,-12,9,-9,-29,-58,-48,-48
-68,-48,19,58,-43,-14,9,-9,-29,-58,-48,-48
-73,-53,19,63,-46,-17,9,-9,-29,-58,-48,-48
-78,-58,19,68,-48,-19,9,-9,-29,-58,-48,-48
-63,-43,19,53,-41,-12,9,-9,-19,-53,-39,-39
-58,-39,19,48,-39,-9,9,-9,-19,-48,-39,-39
-53,-34,19,43,-36,-7,9,-9,-19,-43,-39,-39
-48,-29,19,39,-34,-4,9,-9,-19,-39,-39,-39
-53,-39,14,46,-34,-12,19,-4,-19,-39,-29,-29
-58,-39,19,48,-39,-9,19,0,-19,-39,-29,-29
-63,-39,24,51,-43,-7,19,4,-19,-39,-29,-29
-68,-39,29,53,-48,-4,19,9,-19,-39,-29,-29
-73,-43,29,58,-51,-7,14,4,-29,-43,-34,-39
-78,-48,29,63,-53,-9,9,0,-29,-48,-39,-39
-82,-53,29,68,-56,-12,4,-4,-29,-53,-43,-39
-87,-58,29,73,-58,-14,0,-9,-29,-58,-48,-39
-82,-48,34,65,-58,-7,0,-9,-29,-58,-48,-48
-78,-48,29,63,-53,-9,0,-9,-29,-58,-48,-48
-73,-48,24,61,-48,-12,0,-9,-29,-58,-48,-48
-68,-48,19,58,-43,-14,0,-9,-29,-58,-48,-48
-78,-48,29,63,-53,-9,-9,-9,-39,-58,-48,-48
-78,-48,29,63,-53,-9,-9,-9,-39,-58,-48,-48
-78,-48,29,63,-53,-9,-9,-9,-39,-58,-48,-48
-78,-48,29,63,-53,-9,-9,-9,-39,-58,-48,-48
-68,-43,24,56,-46,-9,-4,0,-34,-48,-43,-43
-68,-39,29,53,-48,-4,0,0,-29,-48,-39,-39
-68,-34,34,51,-51,0,4,0,-24,-48,-34,-34
-68,-29,39,48,-53,4,9,0,-19,-48,-29,-29
-53,-19,34,36,-43,7,0,0,-29,-48,-39,-39
-48,-19,29,34,-39,4,0,0,-29,-48,-39,-39
-43,-19,24,31,-34,2,0,0,-29,-48,-39,-39
-39,-19,19,29,-29,0,0,0,-29,-48,-39,-39
-63,-39,24,51,-43,-7,0,-4,-29,-48,-39,-39
-78,-48,29,63,-53,-9,0,-9,-29,-48,-39,-39
-92,-58,34,75,-63,-12,0,-14,-29,-48,-39,-39
-107,-68,39,87,-73,-14,0,-19,-29,-48,-39,-39
-87,-53,34,70,-61,-9,-9,-9,-29,-58,-48,-48
-78,-48,29,63,-53,-9,-9,-9,-29,-58,-48,-48
-68,-43,24,56,-46,-9,-9,-9,-29,-58,-48,-48
-58,-39,19,48,-39,-9,-9,-9,-29,-58,-48,-48
-53,-34,19,43,-36,-7,0,-9,-19,-48,-39,-39
-48,-29,19,39,-34,-4,0,-9,-19,-48,-39,-39
-43,-24,19,34,-31,-2,0,-9,-19,-48,-39,-39
-39,-19,19,29,-29,0,0,-9,-19,-48,-39,-39
-48,-24,24,36,-36,0,0,-9,-29,-48,-39,-39
-58,-29,29,43,-43,0,0,-9,-29,-48,-39,-39
-68,-34,34,51,-51,0,0,-9,-29,-48,-39,-39
-78,-39,39,58,-58,0,0,-9,-29,-48,-39,-39
-73,-39,34,56,-53,-2,-9,-9,-29,-48,-48,-48
-68,-39,29,53,-48,-4,-9,-9,-29,-48,-48,-48
-63,-39,24,51,-43,-7,-9,-9,-29,-48,-48,-48
-58,-39,19,48,-39,-9,-9,-9,-29,-48,-48,-48
-73,-48,24,61,-48,-12,-9,-9,-19,-48,-39,-48
-78,-48,29,63,-53,-9,-9,-9,-19,-48,-39,-48
-82,-48,34,65,-58,-7,-9,-9,-19,-48,-39,-48
-87,-48,39,68,-63,-4,-9,-9,-19,-48,-39,-48
-78,-34,43,56,-61,4,-4,-4,-9,-39,-39,-39
-68,-29,39,48,-53,4,0,0,-9,-39,-39,-39
-58,-24,34,41,-46,4,4,4,-9,-39,-39,-39
-48,-19,29,34,-39,4,9,9,-9,-39,-39,-39
-39,-14,24,26,-31,4,24,14,-4,-34,-29,-29
-39,-9,29,24,-34,9,29,19,0,-29,-29,-29
-39,-4,34,21,-36,14,34,24,4,-24,-29,-29
-39,0,39,19,-39,19,39,29,9,-19,-29,-29
-34,14,48,9,-41,31,29,39,14,-14,-24,-24
-29,19,48,4,-39,34,29,39,19,-9,-19,-19
-24,24,48,0,-36,36,29,39,24,-4,-14,-14
-19,29,48,-4,-34,39,29,39,29,0,-9,-9
-34,9,43,12,-39,26,19,29,19,-9,-19,-14
-39,0,39,19,-39,19,19,29,19,-9,-19,-19
-43,-9,34,26,-39,12,19,29,19,-9,-19,-24
-48,-19,29,34,-39,4,19,29,19,-9,-19,-29
-43,-19,24,31,-34,2,19,39,19,-9,-19,-19
-39,-19,19,29,-29,0,19,39,19,-9,-19,-19
-34,-19,14,26,-24,-2,19,39,19,-9,-19,-19
-29,-19,9,24,-19,-4,19,39,19,-9,-19,-19
-14,-4,9,9,-12,2,14,29,19,0,-9,-9
-9,0,9,4,-9,4,9,29,19,0,-9,-9
-4,4,9,0,-7,7,4,29,19,0,-9,-9
0,9,9,-4,-4,9,0,29,19,0,-9,-9
9,14,4,-12,2,9,-4,24,9,0,-9,-9
9,19,9,-14,0,14,-9,19,9,0,-9,-9
9,24,14,-17,-2,19,-14,14,9,0,-9,-9
19,39,19,-29,0,29,-29,4,4,0,-9,-9
24,48,24,-36,0,36,-39,-4,-9,0,4,0
34,58,24,-46,4,41,-43,-9,-14,0,4,4
43,58,14,-51,14,36,-48,-19,-19,0,4,4
39,53,14,-46,12,34,-48,-19,-19,0,4,0
9,34,24,-21,-7,29,-39,-9,-19,4,0,4
-4,24,29,-9,-17,26,-39,-9,-19,-4,-4,4
-9,14,24,-2,-17,19,-39,-9,-14,-4,-9,0
-24,9,34,7,-29,21,-39,-9,-9,-9,-14,-9
-14,9,24,2,-19,17,-29,-9,-24,-24,-24,-24
4,9,4,-7,0,7,-29,-9,-29,-29,-29,-24
19,9,-9,-14,14,0,-34,-24,-34,-34,-34,-24
29,4,-24,-17,26,-9,-43,-29,-34,-34,-34,-24
29,14,-14,-21,21,0,-53,-29,-39,-34,-24,-19
39,19,-19,-29,29,0,-53,-29,-43,-34,-24,-19
34,19,-14,-26,24,2,-53,-29,-43,-34,-24,-19
29,14,-14,-21,21,0,-53,-39,-53,-39,-24,-19
24,0,-24,-12,24,-12,-68,-48,-53,-39,-39,-24
24,-4,-29,-9,26,-17,-68,-48,-53,-43,-39,-24
24,-9,-34,-7,29,-21,-68,-48,-53,-43,-39,-24
29,-9,-39,-9,34,-24,-68,-48,-53,-43,-39,-24
39,-9,-48,-14,43,-29,-58,-39,-63,-53,-39,-19
48,0,-48,-24,48,-24,-68,-43,-63,-53,-39,-19
58,0,-58,-29,58,-29,-68,-43,-63,-53,-39,-19
78,9,-68,-43,73,-29,-63,-43,-58,-48,-34,-19
87,29,-58,-58,73,-14,-53,-29,-53,-43,-29,4
73,34,-39,-53,56,-2,-53,-29,-48,-39,-24,4
58,24,-34,-41,46,-4,-48,-29,-43,-34,-19,0
48,29,-19,-39,34,4,-43,-24,-34,-29,-14,0
34,24,-9,-29,21,7,-34,-29,-34,-24,-19,0
9,14,4,-12,2,9,-29,-24,-34,-24,-19,-4
-19,0,19,9,-19,9,-24,-14,-29,-24,-24,-9
-34,-9,24,21,-29,7,-24,-24,-29,-24,-29,-14
-34,-14,19,24,-26,2,-24,-34,-39,-29,-39,-24
-48,-29,19,39,-34,-4,-29,-39,-43,-39,-43,-24
-58,-39,19,48,-39,-9,-29,-39,-43,-53,-48,-39
-68,-58,9,63,-39,-24,-34,-39,-48,-58,-53,-48
-87,-58,29,73,-58,-14,-19,-29,-48,-58,-58,-48
-87,-53,34,70,-61,-9,-9,-29,-43,-58,-63,-48
-82,-39,43,61,-63,2,-4,-29,-43,-68,-63,-48
-78,-43,34,61,-56,-4,0,-29,-43,-68,-63,-58
-87,-58,29,73,-58,-14,0,-19,-39,-58,-53,-53
-97,-58,39,78,-68,-9,0,-19,-39,-63,-53,-53
-122,-63,58,92,-90,-2,0,-19,-39,-63,-63,-58
-146,-68,78,107,-112,4,4,-14,-39,-63,-63,-58
-136,-87,48,112,-92,-19,4,-19,-48,-78,-73,-73
-131,-87,43,109,-87,-21,4,-24,-48,-78,-78,-73
-131,-82,48,107,-90,-17,4,-29,-48,-78,-78,-73
-131,-82,48,107,-90,-17,9,-34,-48,-78,-78,-73
-122,-73,48,97,-85,-12,0,-24,-48,-68,-68,-58
-117,-68,48,92,-82,-9,0,-24,-48,-68,-68,-58
-112,-58,53,85,-82,-2,0,-24,-48,-68,-68,-63
-107,-53,53,80,-80,0,4,-24,-43,-63,-68,-63
-126,-73,53,100,-90,-9,4,-34,-43,-73,-78,-73
-141,-87,53,114,-97,-17,0,-34,-53,-82,-82,-78
-131,-97,34,114,-82,-31,0,-34,-53,-87,-82,-82
-136,-107,29,122,-82,-39,-4,-34,-53,-87,-82,-82
-136,-97,39,117,-87,-29,-4,-24,-53,-73,-82,-73
-126,-87,39,107,-82,-24,0,-19,-43,-68,-82,-68
-126,-87,39,107,-82,-24,9,-19,-43,-68,-82,-68
-126,-87,39,107,-82,-24,9,-19,-43,-73,-78,-68
-131,-87,43,109,-87,-21,19,-29,-43,-82,-87,-78
-141,-87,53,114,-97,-17,19,-24,-43,-82,-87,-78
-126,-87,39,107,-82,-24,14,-24,-43,-78,-87,-82
-112,-87,24,100,-68,-31,14,-29,-43,-78,-92,-82
-117,-82,34,100,-75,-24,4,-29,-43,-78,-92,-92
-122,-87,34,104,-78,-26,4,-29,-43,-78,-92,-87
-107,-87,19,97,-63,-34,9,-24,-43,-78,-87,-87
-102,-82,19,92,-61,-31,9,-24,-43,-78,-87,-87
-117,-82,34,100,-75,-24,9,-14,-34,-63,-78,-82
-122,-82,39,102,-80,-21,9,-9,-34,-63,-78,-78
-126,-82,43,104,-85,-19,9,-9,-34,-63,-78,-73
-131,-82,48,107,-90,-17,9,-4,-39,-63,-78,-68
-190,-151,39,170,-114,-56,0,-34,-58,-87,-87,-87
-175,-141,34,158,-104,-53,0,-24,-53,-87,-97,-87
-117,-117,0,117,-58,-58,14,-4,-43,-82,-97,-87
-146,-131,14,139,-80,-58,39,34,-29,-82,-107,-112
-175,-180,-4,178,-85,-92,53,73,-14,-107,-126,-126
-161,-204,-43,183,-58,-124,87,131,9,-126,-161,-151
-151,-209,-58,180,-46,-134,126,200,43,-131,-185,-175
-156,-229,-73,192,-41,-151,170,268,97,-131,-200,-200
-117,-224,-107,170,-4,-165,244,380,180,-117,-204,-219
-97,-214,-117,156,9,-165,312,512,283,-97,-214,-234
-102,-219,-117,161,7,-168,366,629,395,-58,-200,-234
-53,-195,-141,124,43,-168,380,736,483,14,-146,-204
53,-151,-204,48,129,-178,390,858,570,102,-68,-156
200,-92,-292,-53,246,-192,375,971,663,214,39,-97
366,-34,-400,-165,383,-217,302,980,668,322,151,-19
531,53,-478,-292,505,-212,161,868,575,424,307,97
717,195,-522,-456,619,-163,0,736,492,575,507,244
893,322,-570,-607,732,-124,-136,639,478,751,707,395
1034,409,-624,-722,829,-107,-278,512,453,932,897,522
1185,507,-678,-846,932,-85,-453,317,419,1122,1102,673
1356,644,-712,-1000,1034,-34,-634,87,370,1307,1312,819
1488,761,-727,-1124,1107,17,-780,-131,297,1449,1478,966
1537,829,-707,-1183,1122,61,-917,-356,180,1507,1590,1083
1537,893,-644,-1215,1090,124,-1068,-653,-43,1468,1659,1185
1498,941,-556,-1220,1027,192,-1278,-1073,-395,1312,1639,1259
1454,985,-468,-1220,961,258,-1468,-1488,-780,1058,1542,1298
1434,1029,-405,-1232,919,312,-1595,-1800,-1166,722,1351,1293
1351,1015,-336,-1183,844,339,-1693,-2054,-1507,312,1078,1215
1137,932,-204,-1034,671,363,-1747,-2269,-1766,-112,751,1102
888,873,-14,-880,451,429,-1751,-2410,-2000,-507,429,985
717,810,92,-763,312,451,-1727,-2483,-2191,-814,161,858
610,717,107,-663,251,412,-1668,-2449,-2239,-990,-19,741
512,624,112,-568,200,368,-1571,-2322,-2181,-1063,-141,639
409,546,136,-478,136,341,-1434,-2152,-2059,-1078,-214,546
351,448,97,-400,126,273,-1302,-1971,-1922,-1049,-278,453
268,390,122,-329,73,256,-1195,-1805,-1786,-1010,-322,375
195,361,165,-278,14,263,-1093,-1659,-1629,-946,-356,317
146,302,156,-224,-4,229,-1005,-1507,-1493,-917,-390,229
131,229,97,-180,17,163,-927,-1371,-1366,-873,-419,151
136,200,63,-168,36,131,-834,-1200,-1229,-805,-414,102
131,161,29,-146,51,95,-702,-1029,-1073,-746,-414,48
107,87,-19,-97,63,34,-580,-863,-941,-692,-429,-29
63,29,-34,-46,48,-2,-488,-736,-834,-649,-429,-63
-19,-63,-43,41,12,-53,-429,-629,-741,-605,-419,-87
-58,-136,-78,97,9,-107,-361,-531,-653,-561,-409,-126
-68,-161,-92,114,12,-126,-283,-444,-561,-512,-395,-136
-82,-170,-87,126,2,-129,-229,-380,-502,-468,-366,-141
-87,-170,-82,129,-2,-126,-185,-307,-439,-434,-356,-151
-102,-185,-82,143,-9,-134,-136,-253,-380,-400,-351,-165
-117,-195,-78,156,-19,-136,-122,-214,-336,-366,-341,-185
-126,-195,-68,161,-29,-131,-102,-170,-287,-336,-312,-185
-131,-195,-63,163,-34,-129,-63,-126,-244,-297,-283,-180
-170,-195,-24,183,-73,-109,-19,-87,-195,-263,-273,-165
-190,-209,-19,200,-85,-114,4,-53,-156,-234,-253,-165
-204,-219,-14,212,-95,-117,9,-34,-131,-214,-239,-175
-185,-204,-19,195,-82,-112,29,-4,-107,-195,-224,-175
-170,-180,-9,175,-80,-95,53,24,-63,-161,-200,-161
-190,-170,19,180,-104,-75,73,43,-34,-126,-170,-141
-190,-156,34,173,-112,-61,82,63,-4,-92,-146,-117
-151,-112,39,131,-95,-36,92,82,4,-73,-126,-107
-122,-102,19,112,-70,-41,92,82,9,-73,-126,-107
-151,-112,39,131,-95,-36,82,78,24,-68,-117,-107
-151,-102,48,126,-100,-26,97,87,39,-53,-112,-102
-170,-107,63,139,-117,-21,102,92,39,-48,-107,-102
-180,-112,68,146,-124,-21,97,97,34,-53,-107,-102
-165,-92,73,129,-119,-9,102,102,34,-39,-102,-97
-151,-82,68,117,-109,-7,97,107,39,-39,-97,-92
-151,-82,68,117,-109,-7,97,107,43,-39,-92,-92
-151,-82,68,117,-109,-7,102,107,43,-39,-92,-92
-151,-82,68,117,-109,-7,102,107,43,-39,-92,-92
-156,-92,63,124,-109,-14,102,102,39,-39,-102,-97
-161,-92,68,126,-114,-12,102,107,39,-39,-102,-97
-161,-87,73,124,-117,-7,107,107,48,-34,-102,-97
-165,-78,87,122,-126,4,112,112,53,-29,-97,-92
-161,-78,82,119,-122,2,112,112,53,-39,-92,-102
-161,-78,82,119,-122,2,117,122,53,-29,-92,-97
-146,-78,68,112,-107,-4,117,122,53,-29,-92,-92
-156,-82,73,119,-114,-4,112,117,53,-29,-92,-92
-175,-92,82,134,-129,-4,112,107,39,-34,-92,-97
-170,-92,78,131,-124,-7,112,107,39,-34,-92,-97
-170,-92,78,131,-124,-7,112,107,39,-34,-92,-97
-175,-92,82,134,-129,-4,112,107,39,-34,-92,-97
-175,-87,87,131,-131,0,122,112,48,-29,-82,-87
-170,-82,87,126,-129,2,122,117,48,-29,-82,-87
-165,-87,78,126,-122,-4,122,122,48,-24,-82,-87
-146,-73,73,109,-109,0,122,131,48,-19,-82,-87
-136,-63,73,100,-104,4,117,131,48,-19,-73,-78
-141,-68,73,104,-107,2,117,126,53,-19,-73,-82
-141,-68,73,104,-107,2,122,126,58,-19,-73,-82
-146,-73,73,109,-109,0,122,126,58,-19,-73,-82
-170,-78,92,124,-131,7,122,136,63,-19,-78,-82
-165,-78,87,122,-126,4,131,136,63,-14,-73,-73
-170,-82,87,126,-129,2,131,136,63,-14,-73,-73
-180,-82,97,131,-139,7,131,136,53,-9,-73,-73
-190,-87,102,139,-146,7,117,131,53,-19,-87,-78
-175,-92,82,134,-129,-4,117,126,53,-19,-87,-82
-175,-97,78,136,-126,-9,117,122,53,-24,-87,-87
-180,-102,78,141,-129,-12,112,117,58,-24,-92,-92
-170,-97,73,134,-122,-12,112,117,63,-14,-82,-92
-180,-92,87,136,-134,-2,117,117,68,-14,-82,-92
-156,-82,73,119,-114,-4,122,122,78,-14,-78,-82
-151,-78,73,114,-112,-2,122,122,82,-14,-78,-82
-156,-73,82,114,-119,4,131,131,82,-14,-78,-73
-156,-73,82,114,-119,4,136,131,87,-4,-78,-68
-136,-58,78,97,-107,9,136,136,87,-4,-78,-68
-136,-58,78,97,-107,9,136,136,87,-4,-78,-68
-161,-73,87,117,-124,7,126,131,87,-9,-78,-73
-180,-87,92,134,-136,2,126,131,87,-9,-82,-78
-195,-92,102,143,-148,4,126,131,87,-9,-82,-78
-200,-97,102,148,-151,2,126,136,92,-9,-78,-82
-180,-97,82,139,-131,-7,136,136,97,-4,-78,-82
-161,-78,82,119,-122,2,136,136,102,0,-78,-78
-136,-63,73,100,-104,4,141,141,107,0,-78,-78
-136,-53,82,95,-109,14,146,141,112,0,-78,-78
-146,-58,87,102,-117,14,136,146,112,0,-78,-87
-151,-58,92,104,-122,17,136,151,112,0,-73,-87
-161,-63,97,112,-129,17,141,156,112,4,-73,-87
-170,-68,102,119,-136,17,141,156,117,4,-73,-78
-165,-82,82,124,-124,0,136,156,117,0,-82,-87
-165,-82,82,124,-124,0,136,156,117,0,-82,-92
-161,-82,78,122,-119,-2,136,156,122,0,-82,-92
-156,-78,78,117,-117,0,141,156,122,0,-82,-92
-156,-73,82,114,-119,4,146,170,126,9,-82,-78
-156,-68,87,112,-122,9,151,175,131,24,-73,-78
-156,-68,87,112,-122,9,151,175,146,24,-73,-78
-165,-73,92,119,-129,9,151,175,146,19,-78,-78
-180,-73,107,126,-143,17,161,170,151,19,-68,-87
-180,-73,107,126,-143,17,161,170,151,24,-63,-87
-175,-63,112,119,-143,24,165,185,161,29,-63,-82
-170,-53,117,112,-143,31,170,195,170,34,-63,-82
-165,-68,97,117,-131,14,161,185,170,24,-73,-82
-170,-73,97,122,-134,12,161,185,170,29,-73,-78
-180,-87,92,134,-136,2,161,185,175,29,-73,-78
-185,-92,92,139,-139,0,161,190,180,29,-68,-78
-161,-73,87,117,-124,7,175,209,200,39,-58,-68
-156,-58,97,107,-126,19,185,209,214,53,-48,-58
-156,-48,107,102,-131,29,185,219,219,58,-48,-58
-151,-34,117,92,-134,41,190,224,229,68,-43,-53
-156,-39,117,97,-136,39,190,234,224,63,-43,-53
-170,-58,112,114,-141,26,185,234,224,63,-53,-58
-175,-63,112,119,-143,24,180,239,224,68,-53,-58
-180,-63,117,122,-148,26,180,239,234,73,-39,-53
-165,-58,107,112,-136,24,190,239,248,82,-48,-48
-161,-53,107,107,-134,26,200,244,253,82,-48,-48
-161,-43,117,102,-139,36,200,248,263,87,-43,-48
-161,-43,117,102,-139,36,195,253,273,92,-39,-48
-161,-43,117,102,-139,36,195,253,278,97,-39,-48
-165,-34,131,100,-148,48,200,258,292,102,-34,-39
-170,-34,136,102,-153,51,200,268,297,107,-34,-39
-175,-39,136,107,-156,48,200,268,302,112,-29,-39
-165,-48,117,107,-141,34,200,273,307,112,-39,-48
-161,-29,131,95,-146,51,204,278,317,117,-29,-43
-156,-9,146,82,-151,68,204,283,326,122,-19,-34
-146,-4,141,75,-143,68,200,297,341,126,-14,-29
-146,-4,141,75,-143,68,200,297,346,141,-9,-19
-146,-4,141,75,-143,68,200,297,356,146,-9,-24
-146,-4,141,75,-143,68,200,297,361,151,0,-24
-131,9,141,61,-136,75,204,302,366,161,4,-9
-112,39,151,36,-131,95,204,312,380,156,14,-14
-97,48,146,24,-122,97,200,312,385,170,19,-9
-102,34,136,34,-119,85,200,312,395,175,24,-4
-97,34,131,31,-114,82,200,312,405,180,29,0
-87,63,151,12,-119,107,200,322,414,204,43,9
-82,58,141,12,-112,100,200,322,424,204,48,19
-117,34,151,41,-134,92,185,322,424,204,48,19
-117,29,146,43,-131,87,185,322,429,204,48,19
-78,73,151,2,-114,112,200,336,448,239,73,43
-58,107,165,-24,-112,136,200,336,463,244,92,58
-39,112,151,-36,-95,131,190,336,468,244,97,68
-14,126,141,-56,-78,134,185,331,473,248,107,78
-24,126,151,-51,-87,139,170,326,463,244,107,73
-29,112,141,-41,-85,126,161,322,463,244,107,78
-19,122,141,-51,-80,131,156,317,468,248,112,73
-14,117,131,-51,-73,124,146,312,468,258,117,82
0,131,131,-65,-65,131,136,307,468,263,126,82
9,141,131,-75,-61,136,136,297,458,263,126,87
39,156,117,-97,-39,136,136,297,468,273,136,97
68,175,107,-122,-19,141,122,292,468,278,156,112
68,185,117,-126,-24,151,126,302,478,287,170,126
63,185,122,-124,-29,153,112,292,473,292,175,126
58,185,126,-122,-34,156,117,287,473,292,175,141
58,185,126,-122,-34,156,107,278,463,292,175,141
63,175,112,-119,-24,143,87,258,453,278,170,131
73,180,107,-126,-17,143,87,253,448,278,175,141
87,190,102,-139,-7,146,87,253,448,287,180,156
87,190,102,-139,-7,146,82,248,448,287,185,161
107,195,87,-151,9,141,82,244,448,297,190,170
126,209,82,-168,21,146,82,244,448,297,195,170
131,214,82,-173,24,148,73,234,444,297,200,180
141,219,78,-180,31,148,63,229,434,302,204,185
141,234,92,-187,24,163,53,229,429,292,200,180
161,234,73,-197,43,153,43,219,424,292,204,185
170,234,63,-202,53,148,39,209,419,292,204,185
161,234,73,-197,43,153,39,200,414,287,204,190
161,244,82,-202,39,163,39,200,414,297,209,204
175,253,78,-214,48,165,34,195,414,307,224,209
190,263,73,-226,58,168,34,190,414,307,234,219
195,263,68,-229,63,165,29,185,405,307,239,219
204,253,48,-229,78,151,14,175,395,292,224,209
204,253,48,-229,78,151,9,170,385,287,224,209
200,248,48,-224,75,148,4,161,370,278,219,209
195,239,43,-217,75,141,0,151,366,273,219,204
195,239,43,-217,75,141,4,156,351,278,219,214
195,239,43,-217,75,141,4,156,341,278,219,219
190,239,48,-214,70,143,4,146,331,273,214,219
190,239,48,-214,70,143,0,136,317,268,209,209
204,244,39,-224,82,141,-14,112,302,244,204,209
219,239,19,-229,100,129,-14,112,287,239,200,209
204,234,29,-219,87,131,-9,112,278,234,195,204
204,234,29,-219,87,131,-9,97,258,224,195,200
190,204,14,-197,87,109,-14,97,244,209,180,185
185,195,9,-190,87,102,-19,87,229,200,170,180
170,190,19,-180,75,104,-19,82,209,190,156,170
165,190,24,-178,70,107,-14,78,195,180,156,165
165,190,24,-178,70,107,-4,78,185,185,161,170
156,180,24,-168,65,102,-4,68,175,175,151,161
141,170,29,-156,56,100,-4,63,165,165,141,151
117,161,43,-139,36,102,-4,63,146,156,136,141
102,131,29,-117,36,80,-4,48,126,136,122,126
92,122,29,-107,31,75,-9,43,107,122,107,122
92,112,19,-102,36,65,-14,39,92,122,102,122
58,82,24,-70,17,53,-19,34,87,112,87,117
53,82,29,-68,12,56,-14,39,87,112,82,117
58,87,29,-73,14,58,-9,34,78,102,78,107
63,92,29,-78,17,61,-4,29,68,87,78,102
63,82,19,-73,21,51,0,24,58,82,58,87
53,63,9,-58,21,36,-9,14,48,68,53,73
48,63,14,-56,17,39,-9,9,43,63,53,63
24,53,29,-39,-2,41,-4,4,39,58,48,63
39,53,14,-46,12,34,-4,4,29,48,39,53
29,43,14,-36,7,29,0,4,19,39,34,34
4,19,14,-12,-4,17,0,4,19,39,29,29
0,19,19,-9,-9,19,0,4,19,34,29,29
-4,19,24,-7,-14,21,0,4,19,34,24,29
4,29,24,-17,-9,26,4,9,14,39,29,29
4,24,19,-14,-7,21,9,0,9,34,24,34
0,19,19,-9,-9,19,14,0,9,24,19,34
-9,14,24,-2,-17,19,19,0,9,14,14,29
-9,4,14,2,-12,9,14,0,-9,4,0,14
-19,-4,14,12,-17,4,14,-9,-14,0,-4,9
-19,-4,14,12,-17,4,9,-9,-14,0,-4,4
0,4,4,-2,-2,4,4,-9,-9,0,-9,4
-4,4,9,0,-7,7,4,-9,-4,0,0,4
-9,4,14,2,-12,9,4,-4,-4,-9,0,0
-14,0,14,7,-14,7,4,-4,-9,-14,-4,-4
-19,-9,9,14,-14,0,4,-9,-14,-14,-4,-4
-43,-24,19,34,-31,-2,-4,-24,-24,-14,-14,-9
-43,-29,14,36,-29,-7,0,-24,-24,-14,-19,-19
-43,-34,9,39,-26,-12,0,-24,-29,-14,-24,-24
-29,-29,0,29,-14,-14,0,-29,-34,-19,-34,-29
-24,-14,9,19,-17,-2,9,-24,-29,-9,-29,-29
-24,-9,14,17,-19,2,9,-14,-24,-9,-24,-24
-19,-4,14,12,-17,4,9,-9,-14,-9,-19,-19
-9,4,14,2,-12,9,9,-4,-9,-9,-14,-14
4,9,4,-7,0,7,14,-14,-9,-9,-4,-14
-4,4,9,0,-7,7,14,-14,-9,-9,-9,-14
-9,-4,4,7,-7,0,14,-14,-9,-19,-14,-19
-4,0,4,2,-4,2,14,-19,-14,-24,-19,-29
-24,-24,0,24,-12,-12,9,-29,-24,-34,-29,-34
-34,-34,0,34,-17,-17,4,-29,-24,-34,-34,-34
-43,-43,0,43,-21,-21,0,-29,-19,-34,-39,-39
-53,-48,4,51,-29,-21,-4,-29,-19,-34,-43,-48
-43,-39,4,41,-24,-17,-4,-29,-19,-34,-43,-48
-34,-39,-4,36,-14,-21,0,-24,-19,-34,-43,-53
-19,-19,0,19,-9,-9,0,-24,-19,-34,-43,-53
-29,-34,-4,31,-12,-19,-4,-24,-19,-43,-48,-58
-34,-29,4,31,-19,-12,9,-19,-14,-34,-39,-43
-34,-24,9,29,-21,-7,14,-19,-9,-39,-39,-39
-34,-19,14,26,-24,-2,19,-19,-9,-39,-39,-34
-24,-4,19,14,-21,7,24,-19,-4,-34,-39,-29
-24,-24,0,24,-12,-12,19,-19,-4,-39,-48,-39
-43,-34,9,39,-26,-12,14,-24,-9,-48,-53,-43
-48,-43,4,46,-26,-19,9,-24,-14,-58,-58,-48
-48,-48,0,48,-24,-24,4,-24,-19,-63,-58,-48
-34,-48,-14,41,-9,-31,14,-29,-19,-58,-53,-48
-24,-34,-9,29,-7,-21,14,-29,-14,-53,-48,-48
-19,-29,-9,24,-4,-19,19,-29,-9,-48,-43,-48
-19,-19,0,19,-9,-9,19,-29,0,-43,-39,-48
-34,-39,-4,36,-14,-21,29,-24,0,-53,-43,-48
-43,-39,4,41,-24,-17,34,-19,-4,-53,-43,-48
-48,-34,14,41,-31,-9,34,-14,-4,-48,-43,-48
-43,-34,9,39,-26,-12,34,-9,4,-48,-43,-48
-53,-34,19,43,-36,-7,29,-14,-4,-48,-43,-58
-53,-39,14,46,-34,-12,24,-19,-9,-48,-48,-63
-43,-39,4,41,-24,-17,19,-24,-14,-48,-53,-63
-34,-39,-4,36,-14,-21,14,-29,-14,-48,-53,-63
-48,-39,9,43,-29,-14,24,-14,-14,-48,-53,-53
-53,-39,14,46,-34,-12,24,-14,-9,-48,-53,-63
-53,-34,19,43,-36,-7,29,-14,-9,-48,-48,-63
-43,-19,24,31,-34,2,29,-14,-4,-48,-48,-58
-48,-29,19,39,-34,-4,29,-14,-4,-48,-58,-58
-68,-34,34,51,-51,0,29,-14,-4,-48,-58,-58
-73,-34,39,53,-56,2,39,-4,0,-39,-53,-53
-78,-34,43,56,-61,4,39,-4,4,-39,-53,-53
-78,-24,53,51,-65,14,39,-4,4,-29,-43,-43
-78,-24,53,51,-65,14,39,-4,9,-29,-43,-43
-73,-24,48,48,-61,12,39,0,14,-29,-43,-43
-73,-24,48,48,-61,12,43,0,19,-29,-43,-43
-78,-24,53,51,-65,14,43,0,19,-39,-43,-53
-92,-34,58,63,-75,12,39,-4,14,-39,-48,-53
-92,-43,48,68,-70,2,39,-4,14,-39,-48,-53
-87,-24,63,56,-75,19,39,0,19,-34,-43,-53
-78,-14,63,46,-70,24,39,-9,19,-43,-48,-53
-78,-24,53,51,-65,14,39,-9,19,-43,-48,-53
-82,-24,58,53,-70,17,43,0,29,-34,-48,-48
-82,-24,58,53,-70,17,43,0,29,-34,-48,-48
-107,-43,63,75,-85,9,43,-4,19,-39,-48,-63
-112,-48,63,80,-87,7,43,-4,29,-39,-48,-63
-92,-39,53,65,-73,7,48,4,34,-29,-39,-58
-97,-58,39,78,-68,-9,48,4,34,-29,-48,-58
-92,-43,48,68,-70,2,58,14,34,-24,-39,-53
-82,-24,58,53,-70,17,68,24,43,-14,-29,-48
-68,-4,63,36,-65,29,68,24,43,-9,-29,-48
-78,-24,53,51,-65,14,63,14,39,-9,-39,-53
-87,-24,63,56,-75,19,58,14,34,-19,-39,-43
-82,-34,48,58,-65,7,48,14,34,-19,-39,-48
-68,-34,34,51,-51,0,48,14,34,-19,-39,-48
-73,-34,39,53,-56,2,53,19,34,-19,-39,-48
-97,-43,53,70,-75,4,53,24,48,-9,-29,-39
-97,-39,58,68,-78,9,58,24,48,-9,-29,-39
-97,-24,73,61,-85,24,58,24,48,-9,-29,-39
-107,-24,82,65,-95,29,58,24,48,-9,-29,-39
-107,-48,58,78,-82,4,53,29,34,-19,-34,-53
-102,-48,53,75,-78,2,53,29,34,-19,-39,-53
-97,-43,53,70,-75,4,53,29,34,-19,-43,-48
-87,-39,48,63,-68,4,53,29,34,-19,-43,-48
-82,-43,39,63,-61,-2,48,34,24,-14,-43,-48
-82,-43,39,63,-61,-2,48,29,24,-14,-43,-43
-87,-53,34,70,-61,-9,48,24,24,-14,-43,-43
-102,-68,34,85,-68,-17,48,14,19,-19,-48,-53
-102,-53,48,78,-75,-2,53,19,24,-9,-39,-43
-78,-29,48,53,-63,9,58,24,39,-4,-29,-39
-78,-24,53,51,-65,14,63,34,43,-4,-29,-39
-87,-34,53,61,-70,9,63,39,39,-14,-34,-43
-92,-43,48,68,-70,2,53,29,29,-24,-43,-43
-92,-43,48,68,-70,2,58,24,29,-24,-43,-43
-82,-34,48,58,-65,7,58,24,29,-24,-43,-43
-82,-43,39,63,-61,-2,53,19,24,-24,-43,-43
-97,-58,39,78,-68,-9,48,9,9,-29,-43,-53
-97,-58,39,78,-68,-9,43,9,9,-29,-48,-58
-97,-58,39,78,-68,-9,39,9,9,-29,-48,-58
-92,-58,34,75,-63,-12,29,9,9,-29,-48,-58
-92,-53,39,73,-65,-7,39,24,19,-29,-48,-48
-82,-43,39,63,-61,-2,43,24,19,-24,-48,-43
-82,-43,39,63,-61,-2,43,24,19,-24,-48,-43
-82,-48,34,65,-58,-7,43,19,14,-29,-43,-48
-87,-53,34,70,-61,-9,48,19,24,-19,-34,-39
-87,-48,39,68,-63,-4,48,19,19,-24,-39,-39
-87,-34,53,61,-70,9,48,19,19,-24,-43,-39
-87,-29,58,58,-73,14,48,19,19,-24,-43,-39
-82,-39,43,61,-63,2,48,14,19,-34,-39,-39
-68,-39,29,53,-48,-4,48,9,19,-34,-39,-39
-73,-39,34,56,-53,-2,39,4,4,-34,-39,-39
-68,-39,29,53,-48,-4,39,4,4,-39,-39,-39
-78,-43,34,61,-56,-4,34,14,4,-39,-48,-48
-87,-48,39,68,-63,-4,34,14,4,-39,-48,-48
-92,-53,39,73,-65,-7,29,9,4,-39,-53,-43
-102,-58,43,80,-73,-7,29,9,4,-39,-53,-43
-87,-53,34,70,-61,-9,29,9,4,-39,-53,-48
-82,-53,29,68,-56,-12,29,9,4,-39,-53,-48
-73,-48,24,61,-48,-12,29,9,0,-39,-53,-48
-63,-43,19,53,-41,-12,29,4,0,-39,-53,-53
-82,-53,29,68,-56,-12,29,-4,-14,-48,-63,-53
-87,-58,29,73,-58,-14,29,-4,-14,-48,-63,-53
-82,-48,34,65,-58,-7,29,-4,-9,-48,-58,-48
-87,-53,34,70,-61,-9,29,-4,-9,-53,-58,-48
-82,-48,34,65,-58,-7,29,-14,-19,-48,-63,-63
-87,-58,29,73,-58,-14,19,-14,-24,-48,-58,-63
-73,-58,14,65,-43,-21,19,-9,-24,-39,-48,-63
-68,-39,29,53,-48,-4,29,-4,-14,-39,-43,-63
-68,-39,29,53,-48,-4,39,4,-4,-39,-43,-58
-73,-39,34,56,-53,-2,39,0,-9,-39,-43,-53
-78,-58,19,68,-48,-19,24,-9,-19,-48,-48,-53
-97,-58,39,78,-68,-9,24,-9,-19,-48,-48,-53
-102,-48,53,75,-78,2,29,4,-14,-43,-39,-53
-87,-43,43,65,-65,0,34,9,-9,-34,-34,-48
-68,-24,43,46,-56,9,43,14,-4,-29,-34,-43
-73,-34,39,53,-56,2,34,14,-4,-24,-34,-43
-78,-58,19,68,-48,-19,19,0,-29,-34,-43,-53
-82,-73,9,78,-46,-31,19,-4,-29,-39,-48,-58
-82,-68,14,75,-48,-26,19,-9,-29,-43,-53,-63
-87,-63,24,75,-56,-19,19,-14,-24,-48,-53,-68
-78,-58,19,68,-48,-19,24,-4,-14,-43,-53,-68
-73,-58,14,65,-43,-21,29,-9,-14,-43,-53,-68
-82,-58,24,70,-53,-17,34,-9,-14,-43,-53,-68
-78,-53,24,65,-51,-14,39,-9,-14,-53,-53,-68
-87,-53,34,70,-61,-9,39,-4,-14,-43,-53,-58
-87,-53,34,70,-61,-9,29,-14,-9,-43,-53,-63
-78,-48,29,63,-53,-9,29,-9,-9,-39,-48,-78
-68,-48,19,58,-43,-14,29,-9,-19,-48,-48,-68
-68,-48,19,58,-43,-14,29,-9,-19,-48,-48,-68
-68,-48,19,58,-43,-14,29,-9,-19,-48,-48,-68
-68,-48,19,58,-43,-14,29,-9,-19,-48,-48,-68
-68,-48,19,58,-43,-14,19,-19,-29,-58,-58,-78
-68,-48,19,58,-43,-14,19,-19,-29,-58,-58,-78
-68,-48,19,58,-43,-14,19,-19,-29,-58,-58,-78
-68,-48,19,58,-43,-14,19,-19,-29,-58,-58,-78
-58,-43,14,51,-36,-14,29,-9,-19,-53,-53,-73
-58,-39,19,48,-39,-9,29,-9,-19,-48,-48,-68
-58,-34,24,46,-41,-4,29,-9,-19,-43,-43,-63
-58,-29,29,43,-43,0,29,-9,-19,-39,-39,-58
-58,-39,19,48,-39,-9,29,-19,-19,-48,-48,-58
-58,-39,19,48,-39,-9,29,-19,-19,-48,-48,-58
-58,-39,19,48,-39,-9,29,-19,-19,-48,-48,-58
-58,-39,19,48,-39,-9,29,-19,-19,-48,-48,-58
-73,-53,19,63,-46,-17,24,-19,-24,-48,-58,-68
-78,-58,19,68,-48,-19,19,-19,-29,-48,-58,-68
-82,-63,19,73,-51,-21,14,-19,-34,-48,-58,-68
-87,-68,19,78,-53,-24,9,-19,-39,-48,-58,-68
-73,-53,19,63,-46,-17,9,-9,-29,-48,-48,-58
-68,-48,19,58,-43,-14,9,-9,-29,-48,-48,-58
-63,-43,19,53,-41,-12,9,-9,-29,-48,-48,-58
-58,-39,19,48,-39,-9,9,-9,-29,-48,-48,-58
-73,-43,29,58,-51,-7,0,-19,-39,-58,-53,-58
-78,-48,29,63,-53,-9,0,-19,-39,-58,-58,-58
-82,-53,29,68,-56,-12,0,-19,-39,-58,-63,-58
-87,-58,29,73,-58,-14,0,-19,-39,-58,-68,-58
-73,-48,24,61,-48,-12,4,-9,-39,-58,-58,-58
-68,-48,19,58,-43,-14,9,-9,-39,-58,-58,-58
-63,-48,14,56,-39,-17,14,-9,-39,-58,-58,-58
-58,-48,9,53,-34,-19,19,-9,-39,-58,-58,-58
-68,-48,19,58,-43,-14,9,-19,-39,-58,-48,-48
-68,-48,19,58,-43,-14,9,-19,-39,-58,-48,-48
-68,-48,19,58,-43,-14,9,-19,-39,-58,-48,-48
-68,-48,19,58,-43,-14,9,-19,-39,-58,-48,-48
-58,-48,9,53,-34,-19,9,-9,-39,-48,-39,-39
-58,-48,9,53,-34,-19,9,-9,-39,-48,-39,-39
-58,-48,9,53,-34,-19,9,-9,-39,-48,-39,-39
-58,-48,9,53,-34,-19,9,-9,-39,-48,-39,-39
-68,-53,14,61,-41,-19,9,-19,-48,-58,-43,-48
-68,-58,9,63,-39,-24,9,-19,-48,-58,-48,-48
-68,-63,4,65,-36,-29,9,-19,-48,-58,-53,-48
-68,-68,0,68,-34,-34,9,-19,-48,-58,-58,-48
-73,-63,9,68,-41,-26,14,-14,-43,-53,-53,-43
-78,-58,19,68,-48,-19,19,-9,-39,-48,-48,-39
-82,-53,29,68,-56,-12,24,-4,-34,-43,-43,-34
-87,-48,39,68,-63,-4,29,0,-29,-39,-39,-29
-97,-58,39,78,-68,-9,24,-9,-29,-48,-48,-39
-97,-58,39,78,-68,-9,19,-9,-29,-48,-48,-39
-97,-58,39,78,-68,-9,14,-9,-29,-48,-48,-39
-97,-58,39,78,-68,-9,9,-9,-29,-48,-48,-39
-78,-48,29,63,-53,-9,14,0,-19,-39,-39,-39
-68,-39,29,53,-48,-4,19,0,-19,-39,-39,-39
-58,-29,29,43,-43,0,24,0,-19,-39,-39,-39
-48,-19,29,34,-39,4,29,0,-19,-39,-39,-39
-68,-34,34,51,-51,0,14,-4,-34,-43,-43,-48
-78,-48,29,63,-53,-9,9,-9,-39,-48,-48,-48
-87,-63,24,75,-56,-19,4,-14,-43,-53,-53,-48
-97,-78,19,87,-58,-29,0,-19,-48,-58,-58,-48
-82,-73,9,78,-46,-31,9,-9,-39,-48,-53,-39
-78,-68,9,73,-43,-29,9,-9,-39,-48,-48,-39
-73,-63,9,68,-41,-26,9,-9,-39,-48,-43,-39
-68,-58,9,63,-39,-24,9,-9,-39,-48,-39,-39
-78,-48,29,63,-53,-9,19,-9,-39,-48,-48,-39
-78,-48,29,63,-53,-9,19,-9,-39,-48,-48,-39
-78,-48,29,63,-53,-9,19,-9,-39,-48,-48,-39
-78,-48,29,63,-53,-9,19,-9,-39,-48,-48,-39
-73,-48,24,61,-48,-12,9,-9,-48,-48,-48,-48
-68,-48,19,58,-43,-14,9,-9,-48,-48,-48,-48
-63,-48,14,56,-39,-17,9,-9,-48,-48,-48,-48
-58,-48,9,53,-34,-19,9,-9,-48,-48,-48,-48
-73,-58,14,65,-43,-21,9,-19,-39,-48,-48,-48
-78,-58,19,68,-48,-19,9,-19,-39,-48,-48,-48
-82,-58,24,70,-53,-17,9,-19,-39,-48,-48,-48
-87,-58,29,73,-58,-14,9,-19,-39,-48,-48,-48
-78,-48,29,63,-53,-9,9,-9,-39,-48,-48,-58
-78,-48,29,63,-53,-9,9,-9,-39,-48,-48,-58
-78,-48,29,63,-53,-9,9,-9,-39,-48,-48,-58
-78,-48,29,63,-53,-9,9,-9,-39,-48,-48,-58
-73,-43,29,58,-51,-7,9,-9,-29,-48,-48,-48
-68,-39,29,53,-48,-4,9,-9,-29,-48,-48,-48
-63,-34,29,48,-46,-2,9,-9,-29,-48,-48,-48
-58,-29,29,43,-43,0,9,-9,-29,-48,-48,-48
-68,-39,29,53,-48,-4,9,-9,-29,-48,-48,-48
-68,-39,29,53,-48,-4,9,-9,-29,-48,-48,-48
-68,-39,29,53,-48,-4,9,-9,-29,-48,-48,-48
-68,-39,29,53,-48,-4,9,-9,-29,-48,-48,-48
-78,-43,34,61,-56,-4,0,-19,-39,-48,-48,-58
-78,-48,29,63,-53,-9,0,-19,-39,-48,-48,-58
-78,-53,24,65,-51,-14,0,-19,-39,-48,-48,-58
-78,-58,19,68,-48,-19,0,-19,-39,-48,-48,-58
-68,-48,19,58,-43,-14,4,-14,-34,-39,-39,-48
-68,-48,19,58,-43,-14,9,-9,-29,-39,-39,-48
-68,-48,19,58,-43,-14,14,-4,-24,-39,-39,-48
-68,-48,19,58,-43,-14,19,0,-19,-39,-39,-48
-58,-34,24,46,-41,-4,24,14,-14,-34,-29,-39
-48,-29,19,39,-34,-4,29,19,-9,-29,-29,-39
-39,-24,14,31,-26,-4,34,24,-4,-24,-29,-39
-29,-19,9,24,-19,-4,39,29,0,-19,-29,-39
-34,-19,14,26,-24,-2,48,29,4,-9,-19,-34
-39,-19,19,29,-29,0,48,29,9,-9,-19,-29
-43,-19,24,31,-34,2,48,29,14,-9,-19,-24
-48,-19,29,34,-39,4,48,29,19,-9,-19,-19
-58,-19,39,39,-48,9,48,29,19,-9,-19,-29
-58,-19,39,39,-48,9,48,29,19,-9,-19,-29
-58,-19,39,39,-48,9,48,29,19,-9,-19,-29
-58,-19,39,39,-48,9,48,29,19,-9,-19,-29
-39,-9,29,24,-34,9,48,34,19,-9,-9,-19
-29,-9,19,19,-24,4,48,39,19,-9,-9,-19
-19,-9,9,14,-14,0,48,43,19,-9,-9,-19
-9,-9,0,9,-4,-4,48,48,19,-9,-9,-19
-9,-19,-9,14,0,-14,34,43,19,0,-9,-19
-9,-19,-9,14,0,-14,29,39,19,0,-9,-19
-9,-19,-9,14,0,-14,24,34,19,0,-9,-19
-9,-19,-9,14,0,-14,19,29,19,0,-9,-19
0,-9,-9,4,4,-9,19,19,29,9,-4,-14
0,0,0,0,0,0,19,19,29,9,0,-9
0,9,9,-4,-4,9,19,19,29,9,4,-4
0,19,19,-9,-9,19,19,19,29,9,9,0
4,14,9,-9,-2,12,-4,9,19,0,0,0
19,34,14,-26,2,24,-9,4,9,0,4,9
29,43,14,-36,7,29,-19,-4,0,0,4,14
39,43,4,-41,17,24,-29,-19,-9,0,4,14
34,43,9,-39,12,26,-19,-19,-9,0,4,9
14,34,19,-24,-2,26,-19,-19,-14,-4,0,4
0,24,24,-12,-12,24,-19,-19,-19,-14,-4,4
-4,14,19,-4,-12,17,-19,-19,-19,-14,-9,0
-14,4,19,4,-17,12,-19,-19,-29,-19,-24,-19
-14,-9,4,12,-9,-2,-19,-19,-34,-24,-24,-24
-4,-14,-9,9,2,-12,-19,-19,-39,-29,-29,-24
0,-19,-19,9,9,-19,-24,-34,-43,-34,-34,-24
4,-14,-19,4,12,-17,-24,-39,-34,-34,-24,-24
14,-14,-29,0,21,-21,-24,-39,-39,-34,-24,-19
34,-9,-43,-12,39,-26,-24,-39,-43,-34,-24,-19
39,-9,-48,-14,43,-29,-24,-39,-43,-34,-24,-19
39,-4,-43,-17,41,-24,-34,-39,-53,-29,-24,-9
34,-9,-43,-12,39,-26,-39,-39,-53,-29,-29,-14
34,-14,-48,-9,41,-31,-39,-39,-53,-34,-29,-14
34,-19,-53,-7,43,-36,-39,-39,-53,-34,-29,-14
34,-34,-68,0,51,-51,-48,-43,-58,-39,-39,-19
29,-39,-68,4,48,-53,-48,-48,-63,-43,-39,-19
34,-34,-68,0,51,-51,-58,-58,-68,-48,-39,-24
39,-39,-78,0,58,-58,-58,-63,-73,-53,-39,-29
63,-14,-78,-24,70,-46,-43,-58,-58,-43,-29,-19
68,-4,-73,-31,70,-39,-43,-48,-58,-39,-24,-4
58,0,-58,-29,58,-29,-43,-43,-58,-34,-19,-4
48,-9,-58,-19,53,-34,-39,-39,-58,-29,-14,-9
29,-19,-48,-4,39,-34,-43,-34,-43,-39,-19,-9
19,-19,-39,0,29,-29,-34,-29,-43,-34,-19,-9
0,-24,-24,12,12,-24,-29,-24,-43,-34,-24,-14
-24,-34,-9,29,-7,-21,-24,-14,-39,-34,-34,-19
-24,-39,-14,31,-4,-26,-14,-34,-39,-34,-29,-24
-24,-39,-14,31,-4,-26,-9,-34,-39,-34,-29,-24
-39,-48,-9,43,-14,-29,-9,-39,-43,-39,-34,-24
-48,-53,-4,51,-21,-29,-4,-39,-43,-48,-39,-39
-68,-58,9,63,-39,-24,-14,-39,-48,-48,-43,-48
-92,-63,29,78,-61,-17,-4,-39,-48,-48,-48,-48
-97,-63,34,80,-65,-14,0,-39,-43,-48,-53,-48
-97,-53,43,75,-70,-4,0,-39,-43,-58,-53,-48
-97,-78,19,87,-58,-29,-9,-48,-48,-68,-58,-68
-97,-87,9,92,-53,-39,-9,-48,-58,-68,-63,-73
-97,-92,4,95,-51,-43,-9,-48,-63,-73,-68,-73
-112,-102,9,107,-61,-46,-9,-48,-68,-73,-82,-78
-136,-102,34,119,-85,-34,4,-34,-58,-63,-78,-78
-136,-107,29,122,-82,-39,4,-34,-58,-68,-73,-82
-131,-102,29,117,-80,-36,4,-34,-58,-68,-73,-82
-131,-92,39,112,-85,-26,4,-34,-58,-68,-68,-82
-122,-87,34,104,-78,-26,14,-24,-53,-63,-58,-78
-126,-87,39,107,-82,-24,19,-24,-48,-58,-58,-68
-126,-82,43,104,-85,-19,24,-24,-43,-53,-58,-63
-126,-73,53,100,-90,-9,29,-24,-39,-48,-58,-63
-126,-87,39,107,-82,-24,29,-34,-39,-58,-63,-68
-141,-102,39,122,-90,-31,24,-34,-43,-63,-68,-73
-151,-112,39,131,-95,-36,14,-34,-58,-78,-78,-82
-136,-117,19,126,-78,-48,9,-34,-63,-87,-82,-92
-122,-112,9,117,-65,-51,14,-34,-53,-78,-73,-82
-117,-107,9,112,-63,-48,14,-34,-63,-73,-73,-82
-102,-92,9,97,-56,-41,19,-29,-53,-68,-73,-78
-97,-87,9,92,-53,-39,29,-29,-53,-68,-73,-78
-112,-92,19,102,-65,-36,29,-19,-43,-63,-58,-68
-131,-97,34,114,-82,-31,29,-19,-43,-63,-58,-68
-156,-102,53,129,-104,-24,29,-14,-43,-63,-58,-68
-156,-107,48,131,-102,-29,24,-14,-43,-58,-58,-73
-126,-102,24,114,-75,-39,24,-19,-43,-58,-63,-73
-141,-102,39,122,-90,-31,24,-19,-43,-58,-63,-73
-146,-102,43,124,-95,-29,24,-19,-43,-58,-63,-68
-131,-97,34,114,-82,-31,29,-14,-43,-58,-58,-68
-141,-102,39,122,-90,-31,29,-14,-53,-68,-68,-78
-141,-102,39,122,-90,-31,29,-14,-43,-63,-68,-78
-141,-102,39,122,-90,-31,29,-9,-43,-63,-68,-78
-141,-102,39,122,-90,-31,29,-9,-43,-63,-68,-78
-131,-82,48,107,-90,-17,39,-4,-39,-53,-68,-68
-122,-82,39,102,-80,-21,39,-4,-29,-48,-68,-68
-107,-92,14,100,-61,-39,39,-4,-34,-58,-68,-87
-87,-87,0,87,-43,-43,34,14,-34,-53,-68,-87
-107,-112,-4,109,-51,-58,58,53,-29,-73,-87,-102
-165,-190,-24,178,-70,-107,82,92,-24,-107,-126,-136
-190,-234,-43,212,-73,-139,107,151,0,-126,-161,-170
-180,-239,-58,209,-61,-148,146,209,43,-122,-185,-185
-165,-258,-92,212,-36,-175,190,287,97,-122,-200,-219
-156,-263,-107,209,-24,-185,253,400,180,-117,-214,-239
-126,-244,-117,185,-4,-180,331,531,302,-78,-214,-244
-63,-190,-126,126,31,-158,395,678,414,-29,-170,-214
34,-117,-151,41,92,-134,419,805,502,43,-107,-165
131,-102,-234,-14,183,-168,400,917,580,131,-29,-126
268,-92,-361,-87,314,-226,366,1000,644,234,68,-78
424,-34,-458,-195,441,-246,273,971,619,322,180,9
580,73,-507,-326,544,-217,112,829,517,434,336,126
756,185,-570,-470,663,-192,-58,678,434,566,517,253
941,302,-639,-622,790,-168,-195,590,419,751,707,395
1122,439,-683,-780,902,-122,-317,463,424,941,936,551
1302,566,-736,-934,1019,-85,-492,248,380,1122,1132,692
1454,673,-780,-1063,1117,-53,-692,9,312,1278,1312,839
1537,751,-785,-1144,1161,-17,-839,-209,239,1400,1468,976
1556,810,-746,-1183,1151,31,-976,-463,82,1420,1561,1083
1556,883,-673,-1220,1115,104,-1146,-810,-180,1342,1581,1156
1517,961,-556,-1239,1037,202,-1327,-1239,-522,1185,1561,1239
1454,985,-468,-1220,961,258,-1517,-1654,-907,902,1434,1259
1405,980,-424,-1193,915,278,-1664,-1956,-1283,536,1215,1215
1293,956,-336,-1124,814,309,-1732,-2181,-1576,146,941,1146
1068,902,-165,-985,617,368,-1747,-2357,-1815,-248,614,1044
849,844,-4,-846,427,419,-1761,-2479,-2049,-624,312,927
678,751,73,-714,302,412,-1737,-2532,-2210,-883,73,800
570,639,68,-605,251,353,-1659,-2449,-2210,-1000,-78,683
473,556,82,-514,195,319,-1532,-2303,-2132,-1044,-180,590
390,478,87,-434,151,283,-1395,-2132,-2010,-1049,-253,488
351,409,58,-380,146,234,-1263,-1942,-1864,-1019,-297,405
297,370,73,-334,112,222,-1166,-1776,-1717,-980,-331,336
214,322,107,-268,53,214,-1063,-1620,-1581,-927,-356,268
175,283,107,-229,34,195,-966,-1459,-1424,-868,-380,200
151,229,78,-190,36,153,-878,-1322,-1298,-814,-390,141
78,122,43,-100,17,82,-795,-1180,-1180,-785,-414,63
-14,4,19,4,-17,12,-692,-1019,-1054,-746,-453,-19
-29,-39,-9,34,-9,-24,-561,-854,-912,-683,-448,-68
-14,-58,-43,36,14,-51,-468,-727,-805,-629,-429,-92
-29,-102,-73,65,21,-87,-400,-619,-712,-575,-409,-97
-39,-117,-78,78,19,-97,-312,-492,-614,-522,-380,-107
-58,-141,-82,100,12,-112,-253,-414,-531,-473,-356,-117
-102,-190,-87,146,-7,-139,-229,-361,-483,-458,-356,-151
-136,-219,-82,178,-26,-151,-175,-297,-419,-414,-346,-170
-141,-204,-63,173,-39,-134,-126,-244,-361,-370,-322,-165
-136,-195,-58,165,-39,-126,-92,-204,-307,-336,-302,-165
-146,-204,-58,175,-43,-131,-63,-170,-268,-307,-292,-165
-151,-214,-63,183,-43,-139,-34,-117,-234,-287,-273,-161
-151,-204,-53,178,-48,-129,0,-78,-185,-253,-244,-156
-131,-190,-58,161,-36,-124,24,-34,-126,-214,-214,-146
-146,-200,-53,173,-46,-126,48,-4,-92,-175,-200,-146
-195,-224,-29,209,-82,-126,58,14,-78,-165,-195,-156
-200,-209,-9,204,-95,-109,63,34,-53,-141,-180,-151
-190,-180,9,185,-100,-85,82,53,-24,-117,-151,-131
-180,-156,24,168,-102,-65,102,73,-4,-92,-126,-107
-161,-131,29,146,-95,-51,112,82,24,-63,-107,-97
-161,-112,48,136,-104,-31,112,92,39,-53,-87,-87
-151,-102,48,126,-100,-26,122,87,43,-39,-78,-78
-170,-102,68,136,-119,-17,112,92,39,-39,-87,-87
-190,-117,73,153,-131,-21,112,92,39,-39,-87,-92
-200,-131,68,165,-134,-31,102,92,34,-48,-92,-97
-185,-122,63,153,-124,-29,102,92,34,-39,-92,-97
-175,-112,63,143,-119,-24,107,97,39,-29,-87,-92
-170,-112,58,141,-114,-26,107,97,43,-29,-82,-92
-165,-112,53,139,-109,-29,112,97,43,-29,-82,-92
-161,-112,48,136,-104,-31,112,97,43,-29,-82,-92
-161,-107,53,134,-107,-26,122,112,48,-19,-78,-92
-161,-102,58,131,-109,-21,122,117,48,-19,-73,-87
-156,-92,63,124,-109,-14,126,117,58,-14,-68,-82
-156,-78,78,117,-117,0,131,122,63,-9,-58,-73
-170,-87,82,129,-126,-2,126,112,53,-14,-58,-78
-180,-97,82,139,-131,-7,126,122,53,-9,-63,-78
-175,-107,68,141,-122,-19,122,122,53,-14,-68,-78
-195,-122,73,158,-134,-24,112,117,53,-19,-73,-82
-190,-112,78,151,-134,-17,117,126,58,-14,-63,-78
-170,-102,68,136,-119,-17,122,126,58,-14,-63,-78
-156,-92,63,124,-109,-14,126,126,58,-14,-63,-78
-146,-82,63,114,-104,-9,131,126,58,-14,-63,-78
-165,-92,73,129,-119,-9,131,126,58,-19,-73,-87
-170,-92,78,131,-124,-7,131,126,58,-19,-73,-87
-175,-102,73,139,-124,-14,131,126,58,-14,-73,-87
-165,-92,73,129,-119,-9,131,131,58,-9,-73,-87
-170,-97,73,134,-122,-12,117,122,48,-19,-73,-87
-180,-107,73,143,-126,-17,117,117,53,-19,-73,-92
-185,-112,73,148,-129,-19,122,117,58,-19,-73,-92
-195,-122,73,158,-134,-24,122,117,58,-19,-73,-92
-195,-107,87,151,-141,-9,122,136,63,-9,-68,-82
-175,-97,78,136,-126,-9,131,136,63,-4,-63,-73
-165,-92,73,129,-119,-9,131,136,63,-4,-63,-73
-161,-82,78,122,-119,-2,131,136,53,0,-63,-73
-170,-92,78,131,-124,-7,126,126,63,0,-68,-73
-156,-92,63,124,-109,-14,126,126,63,0,-68,-73
-156,-92,63,124,-109,-14,126,126,63,-4,-68,-73
-161,-92,68,126,-114,-12,122,126,68,-4,-73,-73
-170,-97,73,134,-122,-12,122,126,73,-4,-73,-82
-190,-102,87,146,-139,-7,126,126,78,-4,-73,-82
-175,-102,73,139,-124,-14,131,131,87,-4,-68,-73
-180,-107,73,143,-126,-17,131,131,92,-4,-68,-73
-175,-102,73,139,-124,-14,131,141,92,-4,-58,-73
-175,-102,73,139,-124,-14,136,141,97,4,-58,-68
-156,-87,68,122,-112,-9,136,146,97,4,-58,-68
-156,-87,68,122,-112,-9,136,146,97,4,-58,-68
-156,-97,58,126,-107,-19,126,131,97,0,-68,-73
-170,-107,63,139,-117,-21,126,131,97,0,-73,-78
-180,-107,73,143,-126,-17,126,131,97,0,-73,-78
-180,-107,73,143,-126,-17,126,136,102,0,-68,-82
-190,-117,73,153,-131,-21,126,136,107,-4,-68,-82
-180,-107,73,143,-126,-17,126,136,112,0,-68,-78
-165,-102,63,134,-114,-19,131,141,117,0,-68,-78
-175,-102,73,139,-124,-14,136,141,122,0,-68,-78
-165,-97,68,131,-117,-14,146,146,122,9,-68,-68
-161,-87,73,124,-117,-7,146,151,122,9,-63,-68
-161,-82,78,122,-119,-2,151,156,122,14,-63,-68
-161,-78,82,119,-122,2,151,156,126,14,-63,-58
-156,-82,73,119,-114,-4,156,165,136,19,-63,-78
-156,-82,73,119,-114,-4,156,165,136,19,-63,-82
-151,-82,68,117,-109,-7,156,165,141,19,-63,-82
-146,-78,68,112,-107,-4,161,165,141,19,-63,-82
-151,-78,73,114,-112,-2,156,170,146,19,-63,-68
-156,-78,78,117,-117,0,161,175,151,34,-53,-68
-161,-82,78,122,-119,-2,161,175,165,34,-53,-68
-175,-92,82,134,-129,-4,161,175,165,29,-58,-68
-195,-102,92,148,-143,-4,161,180,170,29,-58,-68
-200,-102,97,151,-148,-2,161,180,170,34,-53,-68
-200,-92,107,146,-153,7,165,195,180,39,-53,-63
-200,-82,117,141,-158,17,170,204,190,43,-53,-63
-175,-73,102,124,-139,14,170,195,180,34,-53,-73
-161,-73,87,117,-124,7,170,195,180,39,-53,-68
-151,-82,68,117,-109,-7,170,195,185,39,-53,-68
-136,-82,53,109,-95,-14,170,200,190,39,-48,-68
-141,-82,58,112,-100,-12,175,219,209,53,-48,-63
-156,-78,78,117,-117,0,185,219,224,63,-39,-48
-175,-78,97,126,-136,9,185,229,229,63,-39,-43
-190,-73,117,131,-153,21,190,234,239,68,-34,-34
-180,-73,107,126,-143,17,190,234,244,73,-34,-43
-190,-87,102,139,-146,7,185,234,244,73,-43,-48
-190,-87,102,139,-146,7,180,239,244,78,-43,-48
-190,-82,107,136,-148,12,180,239,253,82,-29,-43
-185,-68,117,126,-151,24,190,239,258,82,-29,-39
-180,-63,117,122,-148,26,200,244,263,82,-29,-39
-180,-53,126,117,-153,36,200,248,273,87,-24,-39
-180,-53,126,117,-153,36,195,253,283,92,-19,-39
-161,-48,112,104,-136,31,204,258,297,107,-19,-39
-156,-34,122,95,-139,43,209,268,312,112,-14,-29
-151,-29,122,90,-136,46,209,283,317,117,-14,-29
-146,-29,117,87,-131,43,209,287,322,122,-9,-29
-156,-43,112,100,-134,34,200,287,317,122,-14,-39
-161,-39,122,100,-141,41,204,287,326,126,-9,-34
-165,-34,131,100,-148,48,204,287,336,131,-4,-24
-165,-43,122,104,-143,39,200,297,351,136,-4,-19
-161,-39,122,100,-141,41,200,307,366,151,9,-9
-156,-34,122,95,-139,43,200,307,375,156,9,-14
-151,-29,122,90,-136,46,200,307,380,161,19,-14
-131,-9,122,70,-126,56,204,312,385,170,24,0
-117,0,117,58,-117,58,204,322,390,165,24,4
-107,9,117,48,-112,63,200,322,395,180,29,9
-117,-4,112,61,-114,53,200,322,405,185,34,14
-117,-4,112,61,-114,53,200,322,414,190,39,19
-87,34,122,26,-104,78,200,331,434,214,53,19
-73,39,112,17,-92,75,200,331,444,214,58,29
-97,24,122,36,-109,73,185,331,444,214,58,29
-87,29,117,29,-102,73,185,331,448,214,58,29
-63,48,112,7,-87,80,190,336,453,229,68,29
-58,68,126,-4,-92,97,190,336,463,234,82,39
-53,58,112,-2,-82,85,180,336,463,234,82,43
-43,58,102,-7,-73,80,175,331,463,239,87,48
-39,82,122,-21,-80,102,165,331,468,244,102,68
-39,82,122,-21,-80,102,161,331,473,244,107,78
-24,107,131,-41,-78,119,161,331,483,248,117,78
-14,117,131,-51,-73,124,156,331,488,258,126,92
-4,107,112,-51,-58,109,136,317,478,253,117,92
0,112,112,-56,-56,112,136,307,468,253,117,97
24,122,97,-73,-36,109,136,307,478,263,126,107
48,136,87,-92,-19,112,122,302,478,268,146,122
39,156,117,-97,-39,136,126,312,488,273,161,126
34,156,122,-95,-43,139,112,302,483,283,165,126
29,156,126,-92,-48,141,117,297,483,287,165,141
29,156,126,-92,-48,141,107,287,473,292,165,141
63,161,97,-112,-17,129,87,268,463,278,161,131
82,170,87,-126,-2,129,87,263,458,278,165,141
107,185,78,-146,14,131,87,263,458,287,170,156
117,190,73,-153,21,131,82,258,458,287,175,161
112,180,68,-146,21,124,73,253,448,287,190,170
126,190,63,-158,31,126,73,253,448,287,195,170
126,190,63,-158,31,126,63,244,444,287,200,180
131,190,58,-161,36,124,53,239,434,292,204,185
136,195,58,-165,39,126,53,239,439,292,209,190
151,195,43,-173,53,119,43,229,434,292,214,195
156,195,39,-175,58,117,39,219,429,292,214,195
141,195,53,-168,43,124,39,209,424,287,214,200
146,200,53,-173,46,126,29,219,424,297,224,214
165,214,48,-190,58,131,24,214,424,307,234,219
185,229,43,-207,70,136,24,209,424,307,239,229
195,234,39,-214,78,136,19,204,414,307,239,229
204,244,39,-224,82,141,14,195,414,302,234,229
204,244,39,-224,82,141,9,190,405,297,234,229
200,239,39,-219,80,139,4,180,390,287,229,229
195,229,34,-212,80,131,0,170,385,283,229,224
204,219,14,-212,95,117,-4,156,361,268,219,214
204,219,14,-212,95,117,-4,156,351,268,219,219
200,219,19,-209,90,119,-4,146,341,263,214,219
200,219,19,-209,90,119,-9,136,326,258,209,209
209,224,14,-217,97,119,-24,122,312,244,195,209
219,219,0,-219,109,109,-24,122,297,239,190,209
200,214,14,-207,92,114,-19,122,287,234,185,204
195,214,19,-204,87,117,-19,107,268,224,185,200
180,190,9,-185,85,100,-34,97,253,209,180,185
175,175,0,-175,87,87,-39,87,239,200,170,180
161,165,4,-163,78,85,-39,82,219,190,156,170
156,161,4,-158,75,82,-34,78,204,180,156,165
141,146,4,-143,68,75,-34,68,185,175,151,161
126,131,4,-129,61,68,-34,58,175,165,141,151
107,117,9,-112,48,63,-34,53,165,156,131,141
78,102,24,-90,26,63,-34,53,146,146,126,131
92,102,9,-97,41,56,-24,48,141,141,126,136
102,112,9,-107,46,61,-19,43,126,131,117,131
122,122,0,-122,61,61,-14,39,117,136,117,131
107,112,4,-109,51,58,-9,34,117,131,107,126
73,87,14,-80,29,51,-14,29,102,117,82,112
68,78,9,-73,29,43,-19,24,87,102,78,97
63,68,4,-65,29,36,-24,19,73,82,78,87
53,43,-9,-48,31,17,-29,14,58,73,58,68
58,43,-14,-51,36,14,-29,14,39,58,53,73
58,43,-14,-51,36,14,-29,9,34,53,53,63
39,34,-4,-36,21,14,-24,4,29,48,48,63
58,34,-24,-46,41,4,-24,4,19,39,39,53
43,43,0,-43,21,21,-9,4,19,34,34,53
14,19,4,-17,4,12,-9,4,19,39,29,48
4,19,14,-12,-4,17,-9,4,19,39,29,48
-4,19,24,-7,-14,21,-9,4,19,43,24,48
0,24,24,-12,-12,24,0,4,14,48,24,43
4,24,19,-14,-7,21,0,0,9,43,24,43
4,24,19,-14,-7,21,0,4,9,34,24,39
0,24,24,-12,-12,24,0,9,9,24,24,29
-19,9,29,4,-24,19,-9,4,-9,14,9,24
-29,-4,24,17,-26,9,-4,-9,-14,9,4,19
-29,-9,19,19,-24,4,-4,-14,-14,9,4,14
-9,-4,4,7,-7,0,-4,-19,-9,9,0,14
0,14,14,-7,-7,14,0,-4,0,14,4,19
9,24,14,-17,-2,19,4,4,4,9,9,19
19,29,9,-24,4,19,9,9,4,9,9,19
29,29,0,-29,14,14,14,9,4,14,14,24
-9,4,14,2,-12,9,0,-9,0,9,4,9
-24,-9,14,17,-19,2,0,-14,-4,4,0,0
-39,-24,14,31,-26,-4,-4,-19,-14,0,-4,-4
-39,-29,9,34,-24,-9,-9,-29,-24,-9,-14,-9
-29,-19,9,24,-19,-4,0,-29,-24,-9,-14,-4
-24,-19,4,21,-14,-7,0,-24,-24,-9,-14,-4
-14,-19,-4,17,-4,-12,0,-24,-19,-9,-14,-4
0,-14,-14,7,7,-14,0,-24,-19,-9,-14,-4
0,-4,-4,2,2,-4,4,-14,-9,0,-4,-4
-14,-14,0,14,-7,-7,4,-14,-9,0,-9,-4
-24,-29,-4,26,-9,-17,4,-14,-9,-9,-14,-9
-24,-29,-4,26,-9,-17,4,-19,-14,-14,-19,-19
-29,-39,-9,34,-9,-24,-4,-29,-24,-14,-24,-29
-34,-43,-9,39,-12,-26,-4,-29,-24,-14,-24,-24
-39,-48,-9,43,-14,-29,-4,-29,-19,-14,-24,-24
-43,-48,-4,46,-19,-26,-4,-29,-19,-14,-24,-29
-43,-39,4,41,-24,-17,4,-29,-9,-24,-24,-29
-34,-39,-4,36,-14,-21,9,-24,-9,-24,-24,-34
-19,-19,0,19,-9,-9,9,-24,-9,-24,-24,-34
-29,-34,-4,31,-12,-19,4,-24,-9,-34,-29,-39
-24,-34,-9,29,-7,-21,-4,-19,-19,-34,-39,-29
-24,-34,-9,29,-7,-21,-4,-19,-19,-39,-39,-29
-24,-34,-9,29,-7,-21,-4,-19,-24,-39,-39,-29
-14,-24,-9,19,-2,-17,-4,-19,-24,-34,-39,-29
-29,-39,-9,34,-9,-24,-4,-29,-19,-34,-39,-29
-53,-53,0,53,-26,-26,-4,-34,-19,-39,-43,-34
-63,-68,-4,65,-29,-36,-4,-34,-19,-43,-48,-39
-68,-78,-9,73,-29,-43,-4,-34,-19,-43,-48,-39
-48,-68,-19,58,-14,-43,0,-19,-19,-34,-39,-39
-34,-43,-9,39,-12,-26,4,-19,-14,-34,-39,-39
-24,-29,-4,26,-9,-17,14,-19,-9,-34,-39,-39
-19,-9,9,14,-14,0,19,-19,0,-34,-39,-39
-39,-34,4,36,-21,-14,9,-29,0,-43,-34,-39
-43,-39,4,41,-24,-17,14,-29,-4,-43,-34,-39
-43,-39,4,41,-24,-17,14,-29,-4,-39,-34,-39
-34,-43,-9,39,-12,-26,14,-29,4,-39,-34,-39
-43,-53,-9,48,-17,-31,4,-29,0,-48,-43,-48
-53,-58,-4,56,-24,-31,4,-29,-9,-48,-48,-53
-53,-58,-4,56,-24,-31,4,-29,-19,-48,-53,-53
-53,-58,-4,56,-24,-31,4,-29,-24,-48,-53,-53
-48,-58,-9,53,-19,-34,9,-14,-14,-39,-48,-48
-53,-58,-4,56,-24,-31,14,-14,-9,-39,-43,-53
-53,-53,0,53,-26,-26,24,-14,-9,-39,-34,-48
-43,-39,4,41,-24,-17,29,-14,-4,-39,-29,-39
-58,-43,14,51,-36,-14,19,-14,-4,-39,-39,-48
-78,-53,24,65,-51,-14,19,-14,-4,-39,-39,-48
-82,-58,24,70,-53,-17,29,-4,0,-29,-34,-43
-87,-63,24,75,-56,-19,29,-4,4,-29,-34,-43
-73,-53,19,63,-46,-17,39,-4,4,-29,-24,-43
-68,-43,24,56,-46,-9,39,-4,9,-29,-24,-43
-58,-34,24,46,-41,-4,39,0,14,-29,-24,-43
-53,-24,29,39,-41,2,43,0,19,-29,-24,-43
-68,-29,39,48,-53,4,34,-9,9,-39,-29,-43
-82,-43,39,63,-61,-2,29,-14,4,-39,-39,-43
-82,-58,24,70,-53,-17,29,-14,4,-39,-43,-43
-78,-43,34,61,-56,-4,29,-9,9,-34,-43,-43
-87,-39,48,63,-68,4,29,-9,19,-34,-39,-53
-87,-53,34,70,-61,-9,29,-9,19,-34,-39,-53
-92,-58,34,75,-63,-12,34,0,29,-24,-39,-48
-92,-63,29,78,-61,-17,34,0,29,-24,-39,-48
-107,-53,53,80,-80,0,34,4,29,-19,-39,-43
-102,-48,53,75,-78,2,34,4,39,-19,-39,-43
-73,-29,43,51,-58,7,39,14,43,-9,-29,-39
-68,-39,29,53,-48,-4,39,14,43,-9,-39,-39
-78,-48,29,63,-53,-9,29,4,34,-9,-39,-43
-73,-34,39,53,-56,2,39,14,43,-4,-29,-39
-63,-19,43,41,-53,12,39,14,43,-4,-29,-39
-78,-43,34,61,-56,-4,34,4,39,-9,-39,-43
-97,-63,34,80,-65,-14,34,4,34,-9,-39,-43
-102,-73,29,87,-65,-21,29,4,34,-9,-39,-48
-97,-73,24,85,-61,-24,34,4,34,-9,-39,-48
-112,-73,39,92,-75,-17,43,9,34,-9,-39,-48
-112,-68,43,90,-78,-12,53,24,48,-9,-29,-43
-97,-58,39,78,-68,-9,58,24,48,-9,-29,-39
-82,-39,43,61,-63,2,58,24,48,-9,-29,-34
-78,-34,43,56,-61,4,58,24,48,-9,-29,-29
-87,-58,29,73,-58,-14,43,19,34,-19,-39,-43
-92,-58,34,75,-63,-12,43,19,34,-19,-39,-43
-97,-53,43,75,-70,-4,43,19,34,-19,-39,-39
-97,-48,48,73,-73,0,43,19,34,-19,-34,-39
-87,-39,48,63,-68,4,58,39,39,-9,-24,-29
-82,-34,48,58,-65,7,58,39,43,-4,-24,-24
-82,-39,43,61,-63,2,58,39,48,0,-24,-24
-92,-48,43,70,-68,-2,58,34,48,0,-29,-34
-82,-48,34,65,-58,-7,48,24,39,0,-29,-34
-58,-29,29,43,-43,0,48,24,48,4,-19,-29
-58,-29,29,43,-43,0,48,29,48,4,-19,-29
-68,-43,24,56,-46,-9,43,29,39,-4,-24,-34
-92,-63,29,78,-61,-17,39,19,34,-9,-34,-43
-102,-73,29,87,-65,-21,39,14,29,-14,-34,-43
-102,-73,29,87,-65,-21,34,14,24,-19,-34,-43
-112,-92,19,102,-65,-36,24,9,14,-24,-34,-43
-102,-82,19,92,-61,-31,29,19,19,-19,-24,-43
-97,-78,19,87,-58,-29,34,19,19,-19,-29,-48
-92,-73,19,82,-56,-26,39,19,19,-19,-29,-48
-82,-68,14,75,-48,-26,39,19,19,-19,-29,-48
-82,-63,19,73,-51,-21,39,24,19,-29,-29,-48
-73,-53,19,63,-46,-17,43,24,19,-24,-29,-43
-73,-53,19,63,-46,-17,43,24,19,-24,-29,-43
-73,-58,14,65,-43,-21,43,19,14,-29,-24,-48
-87,-78,9,82,-48,-34,29,9,4,-29,-34,-48
-87,-78,9,82,-48,-34,29,9,0,-34,-39,-48
-87,-68,19,78,-53,-24,29,9,0,-34,-43,-48
-87,-68,19,78,-53,-24,29,9,0,-34,-43,-48
-78,-53,24,65,-51,-14,39,9,4,-24,-29,-39
-68,-48,19,58,-43,-14,39,9,9,-24,-29,-39
-78,-43,34,61,-56,-4,29,9,0,-24,-29,-39
-78,-39,39,58,-58,0,29,14,4,-29,-29,-39
-78,-53,24,65,-51,-14,24,14,4,-39,-39,-48
-78,-58,19,68,-48,-19,24,14,4,-39,-39,-48
-73,-63,9,68,-41,-26,19,9,4,-39,-43,-43
-73,-68,4,70,-39,-31,19,9,4,-39,-43,-43
-73,-58,14,65,-43,-21,29,19,4,-29,-34,-39
-73,-63,9,68,-41,-26,29,19,4,-29,-34,-39
-68,-63,4,65,-36,-29,29,19,0,-29,-34,-39
-63,-63,0,63,-31,-31,29,14,0,-29,-34,-43
-78,-78,0,78,-39,-39,19,4,-14,-39,-43,-48
-78,-78,0,78,-39,-39,19,4,-14,-39,-43,-53
-68,-63,4,65,-36,-29,19,4,-9,-39,-39,-53
-68,-63,4,65,-36,-29,19,4,-9,-43,-39,-58
-82,-78,4,80,-43,-36,19,-4,-19,-48,-48,-53
-97,-87,9,92,-53,-39,9,-4,-24,-48,-48,-53
-92,-87,4,90,-48,-41,9,0,-24,-39,-43,-53
-97,-68,29,82,-63,-19,19,4,-14,-39,-43,-53
-82,-58,24,70,-53,-17,29,9,-9,-29,-34,-48
-73,-48,24,61,-48,-12,29,9,-9,-29,-34,-43
-63,-58,4,61,-34,-26,14,4,-14,-39,-39,-43
-68,-48,19,58,-43,-14,14,9,-9,-39,-39,-43
-82,-63,19,73,-51,-21,19,9,-9,-39,-39,-53
-78,-63,14,70,-46,-24,24,9,-9,-34,-34,-48
-68,-48,19,58,-43,-14,34,9,-9,-34,-34,-43
-82,-63,19,73,-51,-21,24,4,-14,-34,-34,-43
-92,-82,9,87,-51,-36,9,-14,-29,-48,-48,-53
-92,-92,0,92,-46,-46,9,-14,-29,-48,-48,-58
-87,-82,4,85,-46,-39,9,-14,-29,-48,-48,-63
-87,-73,14,80,-51,-29,9,-14,-24,-48,-43,-68
-78,-58,19,68,-48,-19,19,-9,-24,-34,-34,-58
-73,-58,14,65,-43,-21,19,-9,-24,-34,-34,-58
-82,-58,24,70,-53,-17,19,-4,-24,-34,-34,-58
-78,-53,24,65,-51,-14,19,0,-24,-43,-34,-58
-68,-53,14,61,-41,-19,29,4,-4,-34,-24,-48
-78,-73,4,75,-41,-34,19,-4,-19,-43,-34,-63
-68,-68,0,68,-34,-34,19,0,-19,-39,-29,-68
-58,-58,0,58,-29,-29,19,-9,-19,-48,-39,-68
-58,-58,0,58,-29,-29,19,-9,-19,-48,-39,-68
-58,-58,0,58,-29,-29,19,-9,-19,-48,-39,-68
-58,-58,0,58,-29,-29,19,-9,-19,-48,-39,-68
-68,-58,9,63,-39,-24,19,0,-19,-48,-39,-58
-68,-58,9,63,-39,-24,19,0,-19,-48,-39,-58
-68,-58,9,63,-39,-24,19,0,-19,-48,-39,-58
-68,-58,9,63,-39,-24,19,0,-19,-48,-39,-58
-68,-58,9,63,-39,-24,19,-9,-29,-48,-48,-68
-68,-58,9,63,-39,-24,19,-9,-29,-48,-48,-68
-68,-58,9,63,-39,-24,19,-9,-29,-48,-48,-68
-68,-58,9,63,-39,-24,19,-9,-29,-48,-48,-68
-78,-63,14,70,-46,-24,9,-9,-39,-58,-48,-68
-78,-68,9,73,-43,-29,9,-9,-39,-58,-48,-68
-78,-73,4,75,-41,-34,9,-9,-39,-58,-48,-68
-78,-78,0,78,-39,-39,9,-9,-39,-58,-48,-68
-78,-68,9,73,-43,-29,19,-9,-29,-48,-48,-58
-78,-68,9,73,-43,-29,19,-9,-29,-48,-48,-58
-78,-68,9,73,-43,-29,19,-9,-29,-48,-48,-58
-78,-68,9,73,-43,-29,19,-9,-29,-48,-48,-58
-73,-58,14,65,-43,-21,9,-9,-39,-48,-48,-58
-68,-58,9,63,-39,-24,9,-9,-39,-48,-48,-58
-63,-58,4,61,-34,-26,9,-9,-39,-48,-48,-58
-58,-58,0,58,-29,-29,9,-9,-39,-48,-48,-58
-58,-48,9,53,-34,-19,9,-9,-29,-48,-39,-48
-58,-48,9,53,-34,-19,9,-9,-29,-48,-39,-48
-58,-48,9,53,-34,-19,9,-9,-29,-48,-39,-48
-58,-48,9,53,-34,-19,9,-9,-29,-48,-39,-48
-58,-58,0,58,-29,-29,9,0,-29,-39,-39,-39
-58,-58,0,58,-29,-29,9,0,-29,-39,-39,-39
-58,-58,0,58,-29,-29,9,0,-29,-39,-39,-39
-58,-58,0,58,-29,-29,9,0,-29,-39,-39,-39
-58,-58,0,58,-29,-29,0,-4,-39,-43,-48,-48
-58,-58,0,58,-29,-29,0,-9,-39,-48,-48,-48
-58,-58,0,58,-29,-29,0,-14,-39,-53,-48,-48
-58,-58,0,58,-29,-29,0,-19,-39,-58,-48,-48
-63,-68,-4,65,-29,-36,9,-9,-39,-48,-48,-39
-68,-68,0,68,-34,-34,9,-9,-39,-48,-48,-39
-73,-68,4,70,-39,-31,9,-9,-39,-48,-48,-39
-78,-68,9,73,-43,-29,9,-9,-39,-48,-48,-39
-87,-78,9,82,-48,-34,9,0,-39,-39,-39,-39
-87,-78,9,82,-48,-34,9,0,-39,-39,-39,-39
-87,-78,9,82,-48,-34,9,0,-39,-39,-39,-39
-87,-78,9,82,-48,-34,9,0,-39,-39,-39,-39
-78,-73,4,75,-41,-34,19,0,-29,-39,-29,-29
-68,-68,0,68,-34,-34,19,0,-29,-39,-29,-29
-58,-63,-4,61,-26,-34,19,0,-29,-39,-29,-29
-48,-58,-9,53,-19,-34,19,0,-29,-39,-29,-29
-53,-63,-9,58,-21,-36,14,-4,-34,-48,-34,-34
-58,-68,-9,63,-24,-39,9,-9,-39,-48,-39,-39
-63,-73,-9,68,-26,-41,4,-14,-43,-48,-43,-43
-68,-78,-9,73,-29,-43,0,-19,-48,-48,-48,-48
-78,-78,0,78,-39,-39,0,-9,-48,-48,-39,-39
-78,-78,0,78,-39,-39,0,-9,-48,-48,-39,-39
-78,-78,0,78,-39,-39,0,-9,-48,-48,-39,-39
-78,-78,0,78,-39,-39,0,-9,-48,-48,-39,-39
-87,-78,9,82,-48,-34,0,-9,-48,-58,-48,-48
-87,-78,9,82,-48,-34,0,-9,-48,-58,-48,-48
-87,-78,9,82,-48,-34,0,-9,-48,-58,-48,-48
-87,-78,9,82,-48,-34,0,-9,-48,-58,-48,-48
-82,-68,14,75,-48,-26,9,-9,-39,-48,-39,-39
-78,-68,9,73,-43,-29,9,-9,-39,-48,-39,-39
-73,-68,4,70,-39,-31,9,-9,-39,-48,-39,-39
-68,-68,0,68,-34,-34,9,-9,-39,-48,-39,-39
-63,-63,0,63,-31,-31,19,-4,-29,-39,-29,-39
-58,-58,0,58,-29,-29,19,0,-29,-39,-29,-39
-53,-53,0,53,-26,-26,19,4,-29,-39,-29,-39
-48,-48,0,48,-24,-24,19,9,-29,-39,-29,-39
-39,-39,0,39,-19,-19,19,0,-39,-39,-39,-39
-39,-39,0,39,-19,-19,19,0,-39,-39,-39,-39
-39,-39,0,39,-19,-19,19,0,-39,-39,-39,-39
-39,-39,0,39,-19,-19,19,0,-39,-39,-39,-39
-53,-58,-4,56,-24,-31,14,-9,-43,-48,-48,-43
-68,-68,0,68,-34,-34,9,-9,-48,-48,-48,-48
-82,-78,4,80,-43,-36,4,-9,-53,-48,-48,-53
-97,-87,9,92,-53,-39,0,-9,-58,-48,-48,-58
-82,-73,9,78,-46,-31,9,-9,-48,-48,-48,-48
-78,-68,9,73,-43,-29,9,-9,-48,-48,-48,-48
-73,-63,9,68,-41,-26,9,-9,-48,-48,-48,-48
-68,-58,9,63,-39,-24,9,-9,-48,-48,-48,-48
-53,-48,4,51,-29,-21,19,-4,-43,-43,-43,-39
-48,-39,9,43,-29,-14,19,0,-39,-39,-39,-39
-43,-29,14,36,-29,-7,19,4,-34,-34,-34,-39
-39,-19,19,29,-29,0,19,9,-29,-29,-29,-39
-48,-29,19,39,-34,-4,4,4,-34,-43,-43,-43
-48,-39,9,43,-29,-14,0,0,-39,-48,-48,-48
-48,-48,0,48,-24,-24,-4,-4,-43,-53,-53,-53
-48,-58,-9,53,-19,-34,-9,-9,-48,-58,-58,-58
-48,-58,-9,53,-19,-34,0,0,-39,-48,-48,-48
-48,-58,-9,53,-19,-34,0,0,-39,-48,-48,-48
-48,-58,-9,53,-19,-34,0,0,-39,-48,-48,-48
-48,-58,-9,53,-19,-34,0,0,-39,-48,-48,-48
-63,-68,-4,65,-29,-36,9,9,-29,-39,-39,-48
-68,-68,0,68,-34,-34,9,9,-29,-39,-39,-48
-73,-68,4,70,-39,-31,9,9,-29,-39,-39,-48
-78,-68,9,73,-43,-29,9,9,-29,-39,-39,-48
-68,-58,9,63,-39,-24,14,14,-14,-34,-34,-39
-58,-48,9,53,-34,-19,19,19,-9,-29,-29,-39
-48,-39,9,43,-29,-14,24,24,-4,-24,-24,-39
-39,-29,9,34,-24,-9,29,29,0,-19,-19,-39
-39,-24,14,31,-26,-4,39,29,9,-9,-19,-29
-39,-19,19,29,-29,0,39,29,9,-9,-19,-29
-39,-14,24,26,-31,4,39,29,9,-9,-19,-29
-39,-9,29,24,-34,9,39,29,9,-9,-19,-29
-34,-9,24,21,-29,7,48,34,19,-9,-9,-19
-29,-9,19,19,-24,4,48,39,19,-9,-9,-19
-24,-9,14,17,-19,2,48,43,19,-9,-9,-19
-19,-9,9,14,-14,0,48,48,19,-9,-9,-19
-14,0,14,7,-14,7,39,48,19,0,-9,-19
-9,0,9,4,-9,4,39,48,19,0,-9,-19
-4,0,4,2,-4,2,39,48,19,0,-9,-19
0,0,0,0,0,0,39,48,19,0,-9,-19
9,0,-9,-4,9,-4,34,39,19,0,0,-9
9,0,-9,-4,9,-4,29,39,19,0,0,-9
9,0,-9,-4,9,-4,24,39,19,0,0,-9
9,0,-9,-4,9,-4,19,39,19,0,0,-9
9,0,-9,-4,9,-4,14,34,19,0,9,-9
19,9,-9,-14,14,0,0,24,14,0,9,-9
39,34,-4,-36,21,14,-4,19,9,0,14,0
53,48,-4,-51,29,21,-14,9,4,0,14,4
68,43,-24,-56,46,9,-24,-4,-9,0,4,4
68,43,-24,-56,46,9,-29,-9,-9,0,4,0
53,34,-19,-43,36,7,-34,-14,-14,-4,0,-4
43,24,-19,-34,31,2,-39,-19,-19,-14,-4,-4
34,14,-19,-24,26,-2,-29,-14,-19,-4,-4,4
14,9,-4,-12,9,2,-29,-9,-19,-9,-4,0
4,0,-4,-2,4,-2,-29,-4,-24,-14,0,0
4,0,-4,-2,4,-2,-29,0,-29,-19,0,4
24,9,-14,-17,19,-2,-34,-14,-43,-24,-4,0
29,4,-24,-17,26,-9,-43,-19,-43,-24,-4,-4
39,4,-34,-21,36,-14,-43,-19,-48,-24,-4,-4
58,9,-48,-34,53,-19,-43,-19,-53,-24,-4,-9
48,4,-43,-26,46,-19,-53,-29,-53,-34,-9,-9
48,-4,-53,-21,51,-29,-53,-39,-63,-39,-14,-9
43,-14,-58,-14,51,-36,-58,-39,-63,-39,-24,-14
43,-24,-68,-9,56,-46,-58,-39,-63,-43,-29,-14
39,-34,-73,-2,56,-53,-58,-48,-73,-53,-39,-24
39,-39,-78,0,58,-58,-58,-48,-73,-53,-39,-24
34,-43,-78,4,56,-61,-58,-48,-73,-53,-39,-19
39,-39,-78,0,58,-58,-68,-53,-73,-53,-39,-19
58,-29,-87,-14,73,-58,-63,-43,-63,-53,-29,-19
78,-19,-97,-29,87,-58,-53,-43,-58,-48,-24,-19
78,-14,-92,-31,85,-53,-48,-39,-58,-48,-24,-4
63,-14,-78,-24,70,-46,-43,-39,-58,-48,-24,-4
53,-24,-78,-14,65,-51,-43,-48,-68,-48,-24,-9
48,-19,-68,-14,58,-43,-43,-43,-63,-48,-24,-9
43,-14,-58,-14,51,-36,-39,-39,-63,-43,-19,-9
29,-14,-43,-7,36,-29,-39,-34,-63,-43,-19,-14
-4,-34,-29,19,12,-31,-34,-14,-48,-43,-24,-19
-14,-39,-24,26,4,-31,-34,-24,-48,-43,-29,-24
-14,-39,-24,26,4,-31,-29,-24,-48,-43,-29,-24
-29,-48,-19,39,-4,-34,-29,-29,-53,-48,-34,-24
-39,-48,-9,43,-14,-29,-14,-29,-43,-48,-29,-34
-48,-58,-9,53,-19,-34,-14,-29,-48,-48,-34,-39
-73,-58,14,65,-43,-21,-4,-29,-48,-48,-39,-34
-78,-53,24,65,-51,-14,0,-29,-43,-48,-43,-29
-78,-48,29,63,-53,-9,9,-19,-43,-58,-53,-39
-78,-63,14,70,-46,-24,9,-19,-43,-58,-53,-48
-78,-73,4,75,-41,-34,9,-19,-48,-58,-53,-53
-78,-78,0,78,-39,-39,9,-19,-48,-63,-53,-53
-92,-92,0,92,-46,-46,0,-29,-53,-73,-63,-68
-107,-97,9,102,-58,-43,4,-24,-58,-73,-63,-68
-107,-107,0,107,-53,-53,4,-24,-63,-78,-63,-73
-102,-107,-4,104,-48,-56,4,-24,-68,-78,-68,-73
-107,-102,4,104,-56,-48,4,-24,-68,-68,-68,-73
-112,-102,9,107,-61,-46,9,-24,-68,-68,-68,-73
-122,-107,14,114,-68,-46,9,-24,-68,-68,-68,-68
-126,-107,19,117,-73,-43,9,-24,-68,-68,-68,-68
-117,-97,19,107,-68,-39,14,-14,-58,-68,-68,-63
-117,-92,24,104,-70,-34,24,-14,-53,-63,-68,-63
-131,-97,34,114,-82,-31,29,-14,-53,-63,-68,-63
-141,-97,43,119,-92,-26,29,-14,-63,-73,-73,-68
-126,-107,19,117,-73,-43,19,-24,-63,-87,-82,-82
-126,-107,19,117,-73,-43,14,-24,-63,-87,-82,-82
-126,-107,19,117,-73,-43,14,-24,-73,-82,-82,-82
-117,-97,19,107,-68,-39,19,-19,-63,-78,-82,-78
-117,-107,9,112,-63,-48,19,-19,-73,-78,-82,-87
-117,-107,9,112,-63,-48,19,-19,-73,-82,-78,-87
-122,-107,14,114,-68,-46,19,-19,-73,-82,-78,-87
-131,-107,24,119,-78,-41,19,-14,-73,-82,-78,-87
-126,-117,9,122,-68,-53,14,-14,-73,-78,-78,-82
-122,-117,4,119,-63,-56,14,-19,-73,-78,-82,-82
-151,-122,29,136,-90,-46,14,-19,-73,-78,-82,-82
-170,-126,43,148,-107,-41,14,-19,-73,-78,-82,-78
-141,-117,24,129,-82,-46,24,-4,-68,-73,-68,-68
-131,-102,29,117,-80,-36,29,-4,-63,-68,-68,-68
-122,-92,29,107,-75,-31,34,-4,-48,-58,-68,-68
-112,-82,29,97,-70,-26,39,0,-43,-53,-68,-68
-122,-122,0,122,-61,-61,19,-19,-63,-73,-78,-78
-122,-122,0,122,-61,-61,29,-14,-58,-82,-78,-78
-112,-92,19,102,-65,-36,48,4,-48,-68,-68,-58
-78,-73,4,75,-41,-34,48,4,-34,-58,-68,-58
-87,-97,-9,92,-39,-53,34,4,-43,-73,-78,-78
-136,-151,-14,143,-61,-82,19,4,-58,-92,-97,-92
-146,-170,-24,158,-61,-97,43,43,-43,-97,-117,-117
-112,-175,-63,143,-24,-119,87,112,-19,-107,-131,-131
-131,-209,-78,170,-26,-143,117,170,4,-122,-156,-156
-165,-239,-73,202,-46,-156,151,229,39,-131,-170,-180
-165,-244,-78,204,-43,-161,214,322,102,-126,-195,-200
-165,-263,-97,214,-34,-180,283,424,175,-117,-204,-224
-141,-287,-146,214,2,-217,317,551,278,-97,-219,-253
-82,-244,-161,163,39,-202,361,678,375,-53,-195,-244
14,-180,-195,82,104,-187,390,810,473,34,-107,-185
151,-122,-273,-14,212,-197,405,951,575,126,-19,-126
297,-92,-390,-102,344,-241,380,1049,639,224,63,-78
473,-14,-488,-229,480,-251,297,1015,624,326,190,9
658,107,-551,-383,605,-222,136,873,522,448,361,146
805,204,-600,-505,702,-197,-48,727,439,585,541,278
936,273,-663,-605,800,-195,-200,619,424,746,712,405
1117,419,-697,-768,907,-139,-336,483,429,936,917,556
1307,566,-741,-936,1024,-87,-497,292,390,1122,1137,712
1459,683,-775,-1071,1117,-46,-673,53,336,1283,1322,858
1556,761,-795,-1159,1176,-17,-819,-180,248,1381,1464,995
1576,814,-761,-1195,1168,26,-971,-458,82,1381,1532,1088
1556,873,-683,-1215,1119,95,-1151,-819,-190,1293,1551,1161
1532,946,-585,-1239,1058,180,-1351,-1263,-546,1127,1522,1239
1503,1019,-483,-1261,993,268,-1527,-1673,-932,858,1400,1254
1449,1015,-434,-1232,941,290,-1673,-1986,-1302,488,1176,1215
1302,951,-351,-1127,827,300,-1737,-2200,-1600,102,888,1132
1044,863,-180,-954,612,341,-1771,-2381,-1854,-312,556,1005
824,790,-34,-807,429,378,-1776,-2522,-2093,-678,258,878
736,756,19,-746,358,387,-1737,-2537,-2220,-902,58,780
639,663,24,-651,307,344,-1659,-2459,-2220,-1015,-92,658
497,527,29,-512,234,278,-1551,-2327,-2156,-1078,-204,546
400,439,39,-419,180,239,-1410,-2147,-2020,-1068,-268,463
346,380,34,-363,156,207,-1273,-1942,-1864,-1029,-312,395
263,331,68,-297,97,200,-1180,-1795,-1747,-985,-346,317
185,283,97,-234,43,190,-1083,-1634,-1600,-936,-380,248
151,248,97,-200,26,173,-976,-1468,-1434,-883,-400,180
165,200,34,-183,65,117,-873,-1317,-1307,-824,-405,122
170,161,-9,-165,90,75,-771,-1156,-1180,-775,-405,68
117,87,-29,-102,73,29,-658,-990,-1039,-732,-429,-9
34,-29,-63,-2,48,-46,-566,-834,-912,-688,-448,-73
-9,-102,-92,56,41,-97,-478,-727,-819,-644,-439,-97
-29,-117,-87,73,29,-102,-390,-619,-732,-590,-409,-117
-48,-141,-92,95,21,-117,-322,-502,-629,-531,-395,-126
-63,-161,-97,112,17,-129,-258,-419,-551,-488,-375,-131
-68,-161,-92,114,12,-126,-204,-356,-488,-444,-356,-141
-82,-175,-92,129,4,-134,-156,-302,-429,-409,-341,-156
-126,-204,-78,165,-24,-141,-122,-244,-375,-375,-331,-165
-126,-195,-68,161,-29,-131,-73,-180,-317,-336,-312,-156
-102,-156,-53,129,-24,-104,-34,-136,-263,-287,-283,-141
-102,-156,-53,129,-24,-104,-9,-97,-224,-263,-263,-146
-131,-180,-48,156,-41,-114,4,-63,-195,-244,-244,-146
-126,-200,-73,163,-26,-136,29,-34,-161,-224,-239,-146
-126,-195,-68,161,-29,-131,39,-4,-136,-195,-224,-156
-151,-219,-68,185,-41,-143,53,14,-112,-170,-209,-151
-200,-229,-29,214,-85,-129,63,34,-92,-156,-190,-151
-209,-204,4,207,-107,-100,82,53,-63,-131,-165,-136
-190,-180,9,185,-100,-85,92,63,-34,-102,-146,-117
-180,-161,19,170,-100,-70,102,82,-9,-82,-126,-107
-180,-131,48,156,-114,-41,112,97,14,-58,-107,-87
-170,-112,58,141,-114,-26,117,102,19,-48,-97,-78
-180,-117,63,148,-122,-26,122,102,19,-48,-97,-82
-180,-122,58,151,-119,-31,117,102,14,-58,-102,-87
-156,-102,53,129,-104,-24,122,102,14,-48,-102,-87
-165,-102,63,134,-114,-19,122,97,19,-48,-107,-87
-170,-112,58,141,-114,-26,117,97,24,-48,-102,-92
-175,-122,53,148,-114,-34,117,97,24,-48,-102,-97
-180,-131,48,156,-114,-41,112,97,24,-48,-102,-102
-175,-126,48,151,-112,-39,122,112,19,-39,-102,-97
-170,-122,48,146,-109,-36,122,117,19,-39,-102,-97
-161,-112,48,136,-104,-31,126,117,29,-34,-102,-97
-156,-97,58,126,-107,-19,131,122,34,-29,-97,-92
-175,-102,73,139,-124,-14,122,122,34,-39,-92,-92
-180,-107,73,143,-126,-17,126,131,34,-29,-92,-87
-170,-112,58,141,-114,-26,126,131,34,-29,-92,-82
-185,-122,63,153,-124,-29,122,126,34,-29,-92,-82
-209,-131,78,170,-143,-26,122,117,29,-34,-92,-92
-200,-131,68,165,-134,-31,122,117,29,-34,-92,-97
-195,-131,63,163,-129,-34,122,117,29,-34,-92,-102
-195,-131,63,163,-129,-34,122,117,29,-34,-92,-107
-200,-117,82,158,-141,-17,131,126,39,-29,-82,-97
-190,-112,78,151,-134,-17,131,126,39,-29,-82,-97
-180,-117,63,148,-122,-26,131,126,39,-24,-82,-97
-156,-102,53,129,-104,-24,131,131,39,-19,-82,-97
-165,-112,53,139,-109,-29,126,122,29,-29,-92,-97
-170,-117,53,143,-112,-31,126,117,34,-29,-92,-102
-170,-117,53,143,-112,-31,131,117,39,-29,-92,-102
-175,-122,53,148,-114,-34,131,117,39,-29,-92,-102
-190,-112,78,151,-134,-17,131,136,53,-19,-78,-97
-185,-107,78,146,-131,-14,141,136,53,-14,-73,-82
-190,-107,82,148,-136,-12,141,136,53,-14,-73,-78
-200,-102,97,151,-148,-2,141,136,43,-9,-73,-73
-180,-97,82,139,-131,-7,146,136,53,-9,-78,-73
-156,-92,63,124,-109,-14,146,136,53,-9,-78,-73
-146,-87,58,117,-102,-14,146,136,53,-14,-78,-73
-141,-82,58,112,-100,-12,141,136,58,-14,-82,-73
-165,-102,63,134,-114,-19,131,126,58,-24,-82,-82
-190,-112,78,151,-134,-17,136,126,58,-24,-82,-82
-180,-117,63,148,-122,-26,141,131,63,-24,-78,-73
-190,-126,63,158,-126,-31,141,131,63,-24,-78,-73
-185,-117,68,151,-126,-24,151,141,73,-14,-68,-63
-175,-102,73,139,-124,-14,156,141,78,-4,-68,-58
-146,-73,73,109,-109,0,156,146,78,-4,-68,-58
-136,-58,78,97,-107,9,156,146,78,-4,-68,-58
-156,-82,73,119,-114,-4,151,141,78,-9,-78,-63
-170,-97,73,134,-122,-12,146,141,78,-9,-82,-68
-180,-102,78,141,-129,-12,141,141,78,-9,-82,-68
-180,-107,73,143,-126,-17,136,146,82,-9,-78,-73
-195,-122,73,158,-134,-24,136,136,82,-9,-82,-78
-190,-117,73,153,-131,-21,136,136,82,-9,-87,-78
-180,-117,63,148,-122,-26,141,141,82,-14,-92,-82
-195,-122,73,158,-134,-24,146,141,82,-19,-97,-87
-180,-117,63,148,-122,-26,156,156,87,-14,-87,-78
-170,-107,63,139,-117,-21,156,161,92,-9,-82,-78
-165,-102,63,134,-114,-19,161,165,97,0,-82,-78
-161,-97,63,129,-112,-17,161,165,107,4,-82,-68
-170,-112,58,141,-114,-26,156,156,117,0,-82,-78
-175,-112,63,143,-119,-24,156,156,117,0,-82,-82
-175,-112,63,143,-119,-24,156,156,122,0,-82,-82
-175,-107,68,141,-122,-19,161,156,122,0,-82,-82
-185,-92,92,139,-139,0,175,180,126,9,-73,-68
-185,-87,97,136,-141,4,180,185,131,24,-63,-68
-185,-87,97,136,-141,4,180,185,146,24,-63,-68
-195,-92,102,143,-148,4,180,185,146,19,-68,-68
-200,-92,107,146,-153,7,170,180,141,19,-78,-68
-190,-92,97,141,-143,2,170,180,141,24,-73,-68
-175,-82,92,129,-134,4,175,195,151,29,-73,-63
-161,-73,87,117,-124,7,180,204,161,34,-73,-63
-146,-68,78,107,-112,4,190,214,165,34,-68,-63
-141,-63,78,102,-109,7,190,214,170,39,-63,-58
-141,-68,73,104,-107,2,190,214,180,39,-58,-58
-136,-63,73,100,-104,4,190,219,190,39,-48,-58
-146,-63,82,104,-114,9,190,224,195,34,-63,-68
-156,-68,87,112,-122,9,195,219,204,43,-58,-58
-170,-78,92,124,-131,7,190,224,204,43,-63,-58
-180,-82,97,131,-139,7,190,224,209,48,-63,-53
-165,-73,92,119,-129,9,204,234,219,63,-58,-43
-170,-78,92,124,-131,7,204,234,224,63,-63,-48
-165,-68,97,117,-131,14,204,239,229,68,-58,-48
-161,-53,107,107,-134,26,209,239,244,73,-39,-43
-165,-58,107,112,-136,24,214,248,248,73,-39,-48
-170,-63,107,117,-139,21,219,253,253,73,-39,-48
-180,-63,117,122,-148,26,214,258,263,78,-34,-48
-190,-73,117,131,-153,21,204,263,273,82,-29,-48
-170,-63,107,117,-139,21,214,273,278,87,-29,-48
-165,-53,112,109,-139,29,219,278,292,92,-24,-39
-161,-53,107,107,-134,26,219,287,297,97,-24,-39
-156,-58,97,107,-126,19,219,287,302,102,-19,-39
-141,-58,82,100,-112,12,219,283,317,107,-19,-39
-141,-39,102,90,-122,31,224,287,326,117,-9,-34
-141,-19,122,80,-131,51,224,292,336,126,0,-24
-136,-14,122,75,-129,53,219,307,351,136,4,-19
-131,-24,107,78,-119,41,219,317,346,131,0,-19
-126,-24,102,75,-114,39,219,317,356,136,0,-24
-122,-24,97,73,-109,36,219,317,361,141,9,-24
-102,-9,92,56,-97,41,224,322,366,151,14,-9
-97,9,107,43,-102,58,234,341,375,165,24,-4
-97,19,117,39,-107,68,229,341,385,180,29,0
-117,4,122,56,-119,63,229,341,400,185,34,4
-126,4,131,61,-129,68,229,341,414,190,39,9
-92,29,122,31,-107,75,229,351,414,195,53,9
-73,29,102,21,-87,65,229,351,424,195,58,19
-92,9,102,41,-97,56,214,351,424,195,58,19
-78,9,87,34,-82,48,214,351,429,195,58,19
-53,43,97,4,-75,70,219,356,453,229,78,29
-48,68,117,-9,-82,92,219,356,463,234,92,39
-43,63,107,-9,-75,85,209,356,463,234,92,43
-34,68,102,-17,-68,85,204,351,463,239,97,48
-24,82,107,-29,-65,95,195,351,468,244,102,48
-19,82,102,-31,-61,92,190,351,473,244,107,58
0,107,107,-53,-53,107,190,351,483,248,117,58
14,117,102,-65,-43,109,185,351,488,258,126,73
0,112,112,-56,-56,112,165,336,488,263,126,73
0,112,112,-56,-56,112,165,326,478,263,126,78
19,117,97,-68,-39,107,165,326,488,273,136,87
39,126,87,-82,-24,107,151,322,488,278,156,102
68,151,82,-109,-7,117,156,326,492,287,170,112
82,165,82,-124,0,124,141,322,492,292,175,117
97,180,82,-139,7,131,146,322,497,292,175,136
117,195,78,-156,19,136,136,317,492,292,175,141
117,175,58,-146,29,117,117,302,488,283,170,131
112,170,58,-141,26,114,117,292,478,278,175,141
112,170,58,-141,26,114,117,287,473,283,180,156
97,161,63,-129,17,112,112,278,468,278,185,161
102,165,63,-134,19,114,102,273,468,287,190,170
117,180,63,-148,26,122,102,273,468,287,195,170
117,185,68,-151,24,126,92,263,463,287,200,180
122,190,68,-156,26,129,82,258,453,292,204,185
146,214,68,-180,39,141,82,268,458,302,219,190
170,214,43,-192,63,129,73,258,453,302,224,195
185,214,29,-200,78,122,68,248,448,302,224,195
180,214,34,-197,73,124,68,239,444,297,224,200
170,204,34,-187,68,119,58,229,439,287,214,195
185,214,29,-200,78,122,53,224,434,297,224,200
200,224,24,-212,87,124,53,219,429,297,229,209
204,224,19,-214,92,122,48,214,414,297,229,209
229,239,9,-234,109,124,43,204,414,292,234,219
234,244,9,-239,112,126,39,200,405,287,234,219
234,244,9,-239,112,126,34,190,390,278,229,219
234,239,4,-236,114,122,29,180,385,273,229,214
214,234,19,-224,97,126,24,175,380,278,229,214
204,229,24,-217,90,126,24,175,370,278,229,219
190,224,34,-207,78,129,24,165,361,273,224,219
180,219,39,-200,70,129,19,156,346,268,219,209
190,219,29,-204,80,124,14,151,341,253,224,219
209,219,9,-214,100,114,14,151,326,248,219,219
200,219,19,-209,90,119,19,151,317,244,214,214
204,224,19,-214,92,122,19,136,297,234,214,209
185,195,9,-190,87,102,14,117,283,219,200,195
185,185,0,-185,92,92,9,107,268,209,190,190
175,180,4,-178,85,92,9,102,248,200,175,180
175,180,4,-178,85,92,14,97,234,190,175,175
180,180,0,-180,90,90,24,97,214,185,161,161
185,170,-14,-178,100,78,24,87,204,175,151,151
185,161,-24,-173,104,68,24,82,195,165,141,141
175,151,-24,-163,100,63,24,82,175,156,136,131
151,131,-19,-141,85,56,29,68,175,146,136,136
141,131,-9,-136,75,61,29,63,156,131,126,131
141,131,-9,-136,75,61,29,58,141,131,126,131
107,112,4,-109,51,58,29,53,136,122,117,126
87,92,4,-90,41,48,19,39,122,102,97,112
87,87,0,-87,43,43,19,34,107,92,87,97
87,82,-4,-85,46,39,19,29,92,78,82,87
82,63,-19,-73,51,21,19,24,78,73,58,68
68,43,-24,-56,46,9,29,24,68,68,53,73
58,43,-14,-51,36,14,29,19,63,63,53,63
29,34,4,-31,12,19,34,14,58,58,48,63
39,34,-4,-36,21,14,34,14,48,48,39,53
43,48,4,-46,19,26,48,14,48,48,39,48
24,29,4,-26,9,17,48,14,48,48,39,48
24,34,9,-29,7,21,48,14,48,43,43,53
24,39,14,-31,4,26,48,14,48,43,43,58
24,29,4,-26,9,17,39,0,29,29,29,48
24,24,0,-24,12,12,39,-9,19,24,24,43
19,19,0,-19,9,9,39,-9,14,14,19,34
9,14,4,-12,2,9,39,-9,9,4,14,19
4,4,0,-4,2,2,39,0,0,4,9,24
0,-4,-4,2,2,-4,43,-9,-4,0,4,19
4,-4,-9,0,7,-7,43,-9,-4,0,4,14
29,4,-24,-17,26,-9,43,-9,0,0,0,14
9,-9,-19,0,14,-14,43,-19,4,0,-9,4
0,-14,-14,7,7,-14,43,-14,4,-9,-9,0
-9,-24,-14,17,2,-19,43,-14,0,-14,-14,-4
-19,-39,-19,29,0,-29,43,-19,-4,-14,-14,-4
-29,-34,-4,31,-12,-19,43,-14,4,-4,-9,-4
-24,-29,-4,26,-9,-17,48,-14,4,-4,-9,-9
-19,-24,-4,21,-7,-14,48,-14,0,-4,-9,-9
0,-9,-9,4,4,-9,48,-19,-4,-9,-14,-9
-9,-19,-9,14,0,-14,48,-29,-4,-19,-24,-14
-14,-19,-4,17,-4,-12,48,-24,-4,-19,-24,-14
-14,-19,-4,17,-4,-12,48,-24,0,-19,-24,-14
-9,-14,-4,12,-2,-9,48,-24,0,-19,-24,-14
4,-9,-14,2,9,-12,53,-14,0,-9,-19,-4
-4,-14,-9,9,2,-12,53,-14,0,-9,-19,-4
-9,-24,-14,17,2,-19,53,-14,0,-19,-19,-9
-4,-19,-14,12,4,-17,53,-19,-4,-24,-19,-19
-9,-34,-24,21,7,-29,53,-29,4,-24,-24,-29
-14,-34,-19,24,2,-26,53,-29,4,-24,-24,-24
-19,-34,-14,26,-2,-24,53,-29,9,-24,-24,-24
-24,-29,-4,26,-9,-17,53,-29,9,-24,-24,-29
-34,-19,14,26,-24,-2,53,-29,9,-24,-24,-19
-24,-19,4,21,-14,-7,58,-24,9,-24,-24,-24
-9,0,9,4,-9,4,58,-24,9,-24,-24,-24
-19,-14,4,17,-12,-4,53,-24,9,-34,-29,-29
-14,-19,-4,17,-4,-12,43,-39,9,-34,-39,-39
-14,-24,-9,19,-2,-17,43,-39,9,-39,-39,-39
-14,-29,-14,21,0,-21,43,-39,4,-39,-39,-39
-4,-24,-19,14,7,-21,43,-39,4,-34,-39,-39
-29,-48,-19,39,-4,-34,43,-29,0,-43,-39,-39
-53,-63,-9,58,-21,-36,43,-34,0,-48,-43,-43
-63,-78,-14,70,-24,-46,43,-34,0,-53,-48,-48
-68,-87,-19,78,-24,-53,43,-34,0,-53,-48,-48
-53,-73,-19,63,-17,-46,48,-19,9,-43,-43,-43
-43,-53,-9,48,-17,-31,53,-19,14,-43,-39,-39
-39,-43,-4,41,-17,-24,63,-19,19,-43,-34,-34
-39,-29,9,34,-24,-9,68,-19,29,-43,-29,-29
-34,-43,-9,39,-12,-26,53,-24,14,-48,-29,-43
-34,-48,-14,41,-9,-31,53,-29,4,-53,-34,-48
-29,-48,-19,39,-4,-34,48,-34,0,-53,-39,-53
-14,-53,-39,34,12,-46,43,-39,4,-58,-43,-58
-24,-39,-14,31,-4,-26,48,-29,19,-53,-39,-43
-34,-39,-4,36,-14,-21,53,-29,19,-48,-39,-43
-34,-34,0,34,-17,-17,58,-29,19,-43,-39,-39
-34,-29,4,31,-19,-12,63,-29,24,-39,-34,-34
-53,-43,9,48,-31,-17,63,-24,19,-39,-43,-43
-63,-48,14,56,-39,-17,63,-24,19,-39,-43,-53
-68,-48,19,58,-43,-14,68,-24,14,-39,-39,-53
-63,-39,24,51,-43,-7,68,-24,14,-39,-39,-48
-58,-39,19,48,-39,-9,58,-34,14,-48,-48,-58
-68,-43,24,56,-46,-9,58,-34,14,-48,-48,-58
-63,-43,19,53,-41,-12,68,-24,19,-39,-43,-53
-58,-43,14,51,-36,-14,68,-24,24,-39,-43,-53
-58,-53,4,56,-31,-24,58,-24,14,-39,-43,-43
-58,-53,4,56,-31,-24,58,-24,19,-39,-43,-43
-53,-53,0,53,-26,-26,58,-19,24,-39,-43,-43
-53,-53,0,53,-26,-26,63,-19,29,-39,-43,-43
-58,-48,9,53,-34,-19,68,-9,34,-29,-39,-34
-73,-53,19,63,-46,-17,68,-14,34,-29,-39,-34
-73,-58,14,65,-43,-21,73,-14,39,-29,-34,-34
-68,-34,34,51,-51,0,78,-9,48,-24,-24,-34
-73,-29,43,51,-58,7,78,-9,48,-24,-29,-34
-78,-43,34,61,-56,-4,78,-9,48,-24,-29,-34
-87,-48,39,68,-63,-4,82,0,58,-14,-29,-29
-92,-53,39,73,-65,-7,82,0,58,-14,-29,-29
-92,-48,43,70,-68,-2,92,4,58,-19,-19,-34
-82,-39,43,61,-63,2,92,4,68,-19,-19,-34
-48,-14,34,31,-41,9,97,14,73,-9,-9,-29
-39,-19,19,29,-29,0,97,14,73,-9,-19,-29
-58,-39,19,48,-39,-9,82,0,68,-19,-29,-29
-73,-34,39,53,-56,2,87,4,73,-14,-19,-29
-82,-29,53,56,-68,12,82,0,68,-14,-19,-34
-117,-63,53,90,-85,-4,73,-14,58,-19,-29,-43
-112,-58,53,85,-82,-2,82,-9,58,-9,-19,-34
-102,-53,48,78,-75,-2,78,-4,63,-9,-19,-39
-82,-39,43,61,-63,2,82,0,68,-9,-19,-39
-82,-24,58,53,-70,17,92,9,73,-9,-19,-39
-107,-34,73,70,-90,19,82,4,68,-19,-29,-48
-97,-39,58,68,-78,9,87,4,68,-19,-29,-48
-87,-34,53,61,-70,9,87,4,68,-19,-29,-48
-87,-43,43,65,-65,0,87,4,68,-19,-29,-48
-92,-58,34,75,-63,-12,73,9,63,-9,-19,-43
-92,-58,34,75,-63,-12,73,9,63,-9,-19,-43
-92,-53,39,73,-65,-7,73,9,63,-9,-19,-39
-87,-48,39,68,-63,-4,73,9,63,-9,-14,-39
-73,-43,29,58,-51,-7,78,9,63,-14,-24,-39
-73,-43,29,58,-51,-7,78,9,63,-14,-24,-34
-78,-53,24,65,-51,-14,78,9,63,-14,-24,-34
-92,-68,24,80,-58,-21,78,4,58,-19,-29,-43
-102,-78,24,90,-63,-26,78,4,58,-19,-29,-43
-78,-58,19,68,-48,-19,78,4,68,-14,-19,-39
-78,-58,19,68,-48,-19,78,9,68,-14,-19,-39
-87,-73,14,80,-51,-29,73,9,58,-24,-24,-43
-92,-58,34,75,-63,-12,82,14,63,-19,-14,-39
-92,-53,39,73,-65,-7,87,14,68,-14,-14,-34
-82,-39,43,61,-63,2,87,19,73,-9,-14,-29
-82,-43,39,63,-61,-2,82,19,73,-4,-14,-24
-87,-53,34,70,-61,-9,73,9,58,-14,-24,-34
-87,-58,29,73,-58,-14,73,9,58,-19,-29,-39
-87,-63,24,75,-56,-19,73,9,58,-24,-29,-39
-82,-68,14,75,-48,-26,68,9,58,-29,-29,-39
-92,-53,39,73,-65,-7,78,14,68,-19,-24,-29
-82,-43,39,63,-61,-2,82,14,68,-14,-19,-24
-82,-43,39,63,-61,-2,82,14,68,-14,-14,-24
-82,-48,34,65,-58,-7,82,9,63,-19,-4,-29
-87,-78,9,82,-48,-34,68,9,53,-29,-14,-34
-87,-78,9,82,-48,-34,68,9,48,-34,-19,-39
-87,-68,19,78,-53,-24,68,9,48,-34,-24,-43
-87,-68,19,78,-53,-24,68,9,48,-34,-24,-48
-92,-78,14,85,-53,-31,68,4,48,-34,-19,-48
-87,-78,9,82,-48,-34,68,0,48,-34,-19,-48
-102,-78,24,90,-63,-26,58,-4,34,-34,-19,-48
-107,-78,29,92,-68,-24,58,-4,34,-39,-19,-48
-87,-68,19,78,-53,-24,73,14,43,-34,-19,-39
-78,-58,19,68,-48,-19,73,14,43,-29,-19,-39
-63,-48,14,56,-39,-17,68,9,43,-24,-24,-34
-53,-39,14,46,-34,-12,68,9,43,-19,-24,-34
-68,-43,24,56,-46,-9,63,4,34,-24,-34,-48
-73,-53,19,63,-46,-17,58,0,34,-29,-34,-48
-73,-58,14,65,-43,-21,53,-4,29,-34,-34,-48
-73,-63,9,68,-41,-26,48,-14,29,-39,-34,-53
-87,-73,14,80,-51,-29,58,-4,24,-39,-34,-43
-87,-78,9,82,-48,-34,58,-4,24,-39,-34,-43
-78,-68,9,73,-43,-29,58,-4,29,-39,-29,-39
-78,-73,4,75,-41,-34,58,-4,29,-43,-29,-39
-82,-78,4,80,-43,-36,58,-14,19,-39,-29,-43
-97,-87,9,92,-53,-39,48,-14,14,-39,-29,-43
-92,-87,4,90,-48,-41,48,-9,14,-29,-24,-43
-97,-68,29,82,-63,-19,58,-4,24,-29,-24,-43
-82,-68,14,75,-48,-26,58,-4,24,-29,-24,-53
-82,-68,14,75,-48,-26,58,-9,19,-29,-24,-53
-82,-87,-4,85,-39,-46,43,-19,9,-39,-29,-58
-97,-87,9,92,-53,-39,43,-19,9,-39,-29,-63
-102,-82,19,92,-61,-31,48,-14,14,-29,-29,-58
-87,-73,14,80,-51,-29,53,-9,19,-24,-24,-48
-68,-48,19,58,-43,-14,63,-4,24,-24,-24,-39
-73,-53,19,63,-46,-17,53,-4,24,-24,-24,-34
-73,-63,9,68,-41,-26,48,-14,19,-39,-19,-48
-73,-73,0,73,-36,-36,48,-14,19,-39,-19,-48
-68,-63,4,65,-36,-29,48,-14,19,-39,-19,-48
-68,-53,14,61,-41,-19,48,-14,24,-39,-14,-48
-68,-58,9,63,-39,-24,43,-14,19,-43,-24,-58
-73,-68,4,70,-39,-31,39,-19,14,-43,-24,-58
-92,-78,14,85,-53,-31,34,-19,9,-43,-24,-58
-97,-82,14,90,-56,-34,29,-19,4,-53,-24,-58
-87,-82,4,85,-46,-39,29,-24,-4,-53,-34,-58
-58,-53,4,56,-31,-24,48,-14,0,-43,-24,-53
-48,-48,0,48,-24,-24,39,-19,0,-48,-19,-48
-58,-58,0,58,-29,-29,39,-9,9,-39,-19,-48
-68,-58,9,63,-39,-24,39,-9,9,-39,-19,-48
-78,-58,19,68,-48,-19,39,-9,9,-39,-19,-48
-87,-58,29,73,-58,-14,39,-9,9,-39,-19,-48
-87,-58,29,73,-58,-14,39,-19,0,-39,-19,-48
-87,-58,29,73,-58,-14,39,-19,0,-39,-19,-48
-87,-58,29,73,-58,-14,39,-19,0,-39,-19,-48
-87,-58,29,73,-58,-14,39,-19,0,-39,-19,-48
-87,-63,24,75,-56,-19,29,-29,0,-48,-29,-58
-87,-68,19,78,-53,-24,29,-29,0,-48,-29,-58
-87,-73,14,80,-51,-29,29,-29,0,-48,-29,-58
-87,-78,9,82,-48,-34,29,-29,0,-48,-29,-58
-87,-68,19,78,-53,-24,29,-19,0,-39,-19,-48
-87,-68,19,78,-53,-24,29,-19,0,-39,-19,-48
-87,-68,19,78,-53,-24,29,-19,0,-39,-19,-48
-87,-68,19,78,-53,-24,29,-19,0,-39,-19,-48
-78,-68,9,73,-43,-29,29,-19,0,-39,-19,-48
-78,-68,9,73,-43,-29,29,-19,0,-39,-19,-48
-78,-68,9,73,-43,-29,29,-19,0,-39,-19,-48
-78,-68,9,73,-43,-29,29,-19,0,-39,-19,-48
-82,-73,9,78,-46,-31,19,-29,-9,-48,-29,-48
-87,-78,9,82,-48,-34,19,-29,-9,-48,-29,-48
-92,-82,9,87,-51,-36,19,-29,-9,-48,-29,-48
-97,-87,9,92,-53,-39,19,-29,-9,-48,-29,-48
-82,-82,0,82,-41,-41,19,-29,0,-39,-19,-48
-78,-78,0,78,-39,-39,19,-29,0,-39,-19,-48
-73,-73,0,73,-36,-36,19,-29,0,-39,-19,-48
-68,-68,0,68,-34,-34,19,-29,0,-39,-19,-48
-68,-68,0,68,-34,-34,24,-19,0,-48,-29,-39
-68,-68,0,68,-34,-34,29,-19,0,-48,-29,-39
-68,-68,0,68,-34,-34,34,-19,0,-48,-29,-39
-68,-68,0,68,-34,-34,39,-19,0,-48,-29,-39
-73,-68,4,70,-39,-31,34,-19,-9,-48,-29,-39
-78,-68,9,73,-43,-29,29,-19,-9,-48,-29,-39
-82,-68,14,75,-48,-26,24,-19,-9,-48,-29,-39
-87,-68,19,78,-53,-24,19,-19,-9,-48,-29,-39
-97,-78,19,87,-58,-29,19,-19,-9,-48,-19,-39
-97,-78,19,87,-58,-29,19,-19,-9,-48,-19,-39
-97,-78,19,87,-58,-29,19,-19,-9,-48,-19,-39
-97,-78,19,87,-58,-29,19,-19,-9,-48,-19,-39
-87,-68,19,78,-53,-24,19,-19,-9,-48,-29,-39
-78,-68,9,73,-43,-29,19,-19,-9,-48,-29,-39
-68,-68,0,68,-34,-34,19,-19,-9,-48,-29,-39
-58,-68,-9,63,-24,-39,19,-19,-9,-48,-29,-39
-68,-58,9,63,-39,-24,19,-29,-19,-39,-19,-39
-68,-58,9,63,-39,-24,19,-29,-19,-39,-19,-39
-68,-58,9,63,-39,-24,19,-29,-19,-39,-19,-39
-68,-58,9,63,-39,-24,19,-29,-19,-39,-19,-39
-68,-48,19,58,-43,-14,19,-19,-14,-39,-9,-29
-68,-48,19,58,-43,-14,19,-19,-9,-39,-9,-29
-68,-48,19,58,-43,-14,19,-19,-4,-39,-9,-29
-68,-48,19,58,-43,-14,19,-19,0,-39,-9,-29
-63,-39,24,51,-43,-7,19,-9,-9,-39,-19,-29
-58,-39,19,48,-39,-9,19,-9,-9,-39,-19,-29
-53,-39,14,46,-34,-12,19,-9,-9,-39,-19,-29
-48,-39,9,43,-29,-14,19,-9,-9,-39,-19,-29
-43,-29,14,36,-29,-7,29,-9,-9,-39,-9,-19
-39,-29,9,34,-24,-9,29,-9,-9,-39,-9,-19
-34,-29,4,31,-19,-12,29,-9,-9,-39,-9,-19
-29,-29,0,29,-14,-14,29,-9,-9,-39,-9,-19
-48,-43,4,46,-26,-19,24,-14,-14,-43,-14,-24
-68,-58,9,63,-39,-24,19,-19,-19,-48,-19,-29
-87,-73,14,80,-51,-29,14,-24,-24,-53,-24,-34
-107,-87,19,97,-63,-34,9,-29,-29,-58,-29,-39
-92,-78,14,85,-53,-31,9,-29,-19,-48,-29,-48
-87,-78,9,82,-48,-34,9,-29,-19,-48,-29,-48
-82,-78,4,80,-43,-36,9,-29,-19,-48,-29,-48
-78,-78,0,78,-39,-39,9,-29,-19,-48,-29,-48
-87,-73,14,80,-51,-29,19,-24,-19,-48,-19,-39
-87,-68,19,78,-53,-24,19,-19,-19,-48,-19,-39
-87,-63,24,75,-56,-19,19,-14,-19,-48,-19,-39
-87,-58,29,73,-58,-14,19,-9,-19,-48,-19,-39
-73,-53,19,63,-46,-17,19,-9,-9,-39,-19,-39
-68,-48,19,58,-43,-14,19,-9,-9,-39,-19,-39
-63,-43,19,53,-41,-12,19,-9,-9,-39,-19,-39
-58,-39,19,48,-39,-9,19,-9,-9,-39,-19,-39
-63,-53,9,58,-36,-21,9,-19,-9,-39,-19,-39
-68,-58,9,63,-39,-24,9,-19,-9,-39,-19,-39
-73,-63,9,68,-41,-26,9,-19,-9,-39,-19,-39
-78,-68,9,73,-43,-29,9,-19,-9,-39,-19,-39
-68,-63,4,65,-36,-29,14,-9,-9,-29,-9,-29
-58,-58,0,58,-29,-29,19,-9,-9,-29,-9,-29
-48,-53,-4,51,-21,-29,24,-9,-9,-29,-9,-29
-39,-48,-9,43,-14,-29,29,-9,-9,-29,-9,-29
-48,-39,9,43,-29,-14,39,-4,-4,-19,0,-19
-48,-39,9,43,-29,-14,39,0,0,-19,0,-19
-48,-39,9,43,-29,-14,39,4,4,-19,0,-19
-48,-39,9,43,-29,-14,39,9,9,-19,0,-19
-39,-29,9,34,-24,-9,48,19,19,-19,0,-19
-39,-29,9,34,-24,-9,48,19,19,-19,0,-19
-39,-29,9,34,-24,-9,48,19,19,-19,0,-19
-39,-29,9,34,-24,-9,48,19,19,-19,0,-19
-29,-14,14,21,-21,0,53,29,24,-14,4,-9
-29,-9,19,19,-24,4,58,29,29,-9,9,-9
-29,-4,24,17,-26,9,63,29,34,-4,14,-9
-29,0,29,14,-29,14,68,29,39,0,19,-9
-34,-9,24,21,-29,7,63,29,29,-9,14,-14
-39,-19,19,29,-29,0,58,29,29,-9,9,-19
-43,-29,14,36,-29,-7,53,29,29,-9,4,-24
-48,-39,9,43,-29,-14,48,29,29,-9,0,-29
-19,-14,4,17,-12,-4,58,34,34,-4,14,-14
0,0,0,0,0,0,58,39,39,0,19,-9
19,14,-4,-17,12,4,58,43,43,4,24,-4
39,29,-9,-34,24,9,58,48,48,9,29,0
19,4,-14,-12,17,-4,43,34,43,0,24,-9
0,-9,-9,4,4,-9,39,29,39,0,19,-9
-19,-24,-4,21,-7,-14,34,24,34,0,14,-9
-39,-39,0,39,-19,-19,29,19,29,0,9,-9
-19,-29,-9,24,-4,-19,19,14,34,9,19,-9
0,-4,-4,2,2,-4,19,14,29,9,24,0
14,9,-4,-12,9,2,14,9,24,9,24,4
29,14,-14,-21,21,0,9,0,19,9,24,4
34,24,-9,-29,21,7,4,-4,19,19,34,9
24,24,0,-24,12,12,0,-9,14,14,29,4
19,24,4,-21,7,14,-4,-14,9,4,24,4
24,24,0,-24,12,12,-9,-19,9,4,19,0
4,19,14,-12,-4,17,0,-9,9,0,24,-4
4,9,4,-7,0,7,0,-9,4,-4,24,-4
14,9,-4,-12,9,2,0,-9,0,-9,19,0
19,9,-9,-14,14,0,-4,-24,-4,-14,14,4
29,4,-24,-17,26,-9,-4,-29,-14,-14,4,-4
34,4,-29,-19,31,-12,-4,-29,-19,-14,4,0
48,9,-39,-29,43,-14,-4,-29,-24,-14,4,0
48,9,-39,-29,43,-14,-4,-29,-24,-14,4,0
39,0,-39,-19,39,-19,-19,-48,-43,-24,-4,-9
34,-9,-43,-12,39,-26,-29,-48,-43,-29,-9,-14
34,-19,-53,-7,43,-36,-34,-48,-43,-39,-9,-14
34,-29,-63,-2,48,-46,-39,-48,-43,-43,-9,-14
34,-19,-53,-7,43,-36,-34,-39,-34,-34,0,-14
29,-19,-48,-4,39,-34,-29,-39,-34,-34,0,-9
34,-9,-43,-12,39,-26,-34,-43,-34,-34,0,-9
39,-9,-48,-14,43,-29,-29,-43,-34,-34,0,-9
68,-4,-73,-31,70,-39,-29,-53,-34,-34,-4,-14
68,-4,-73,-31,70,-39,-34,-48,-39,-39,-4,-4
53,-9,-63,-21,58,-36,-39,-48,-43,-43,-4,-9
39,-29,-68,-4,53,-48,-39,-48,-48,-48,-4,-19
39,-24,-63,-7,51,-43,-34,-53,-34,-39,4,-9
39,-19,-58,-9,48,-39,-24,-48,-34,-34,9,-9
29,-19,-48,-4,39,-34,-19,-43,-34,-34,9,-14
14,-24,-39,4,26,-31,-14,-34,-29,-34,4,-19
4,-29,-34,12,19,-31,-9,-39,-29,-34,9,-19
4,-29,-34,12,19,-31,0,-34,-29,-34,9,-14
-9,-39,-29,24,9,-34,4,-34,-34,-39,4,-9
-19,-43,-24,31,2,-34,14,-29,-34,-48,0,-19
-34,-48,-14,41,-9,-31,4,-39,-39,-39,-14,-29
-63,-53,9,58,-36,-21,14,-39,-39,-39,-19,-29
-73,-53,19,63,-46,-17,19,-39,-34,-39,-24,-29
-78,-43,34,61,-56,-4,19,-39,-34,-48,-24,-29
-68,-53,14,61,-41,-19,29,-29,-24,-48,-24,-48
-68,-58,9,63,-39,-24,29,-29,-29,-48,-24,-53
-68,-58,9,63,-39,-24,29,-29,-29,-53,-24,-53
-82,-63,19,73,-51,-21,29,-29,-29,-53,-34,-58
-97,-78,19,87,-58,-29,24,-34,-39,-53,-43,-58
-97,-87,9,92,-53,-39,24,-34,-39,-58,-43,-63
-92,-87,4,90,-48,-41,24,-34,-39,-58,-48,-63
-92,-82,9,87,-51,-36,24,-34,-39,-58,-48,-63
-97,-73,24,85,-61,-24,34,-24,-29,-58,-43,-53
-107,-78,29,92,-68,-24,39,-24,-29,-58,-39,-48
-112,-78,34,95,-73,-21,43,-24,-29,-58,-34,-48
-117,-73,43,95,-80,-14,48,-24,-29,-58,-29,-53
-126,-82,43,104,-85,-19,48,-34,-34,-63,-34,-53
-151,-102,48,126,-100,-26,43,-34,-34,-63,-39,-53
-170,-117,53,143,-112,-31,34,-34,-43,-73,-48,-58
-165,-126,39,146,-102,-43,29,-34,-43,-78,-53,-63
-161,-112,48,136,-104,-31,24,-34,-34,-68,-43,-73
-156,-107,48,131,-102,-29,24,-34,-43,-63,-43,-73
-141,-92,48,117,-95,-21,29,-29,-34,-58,-43,-68
-136,-87,48,112,-92,-19,39,-29,-34,-58,-43,-68
-131,-87,43,109,-87,-21,48,-19,-34,-63,-48,-78
-131,-87,43,109,-87,-21,48,-19,-34,-63,-48,-78
-136,-87,48,112,-92,-19,48,-14,-34,-63,-48,-78
-117,-87,29,102,-73,-29,43,-14,-34,-58,-48,-82
-102,-87,14,95,-58,-36,34,-29,-34,-68,-53,-73
-122,-92,29,107,-75,-31,34,-29,-34,-68,-53,-73
-131,-97,34,114,-82,-31,34,-29,-34,-68,-53,-68
-122,-97,24,109,-73,-36,39,-24,-34,-68,-48,-68
-131,-102,29,117,-80,-36,39,-24,-43,-68,-39,-68
-131,-102,29,117,-80,-36,39,-24,-34,-63,-39,-68
-131,-102,29,117,-80,-36,39,-19,-34,-63,-39,-68
-131,-102,29,117,-80,-36,39,-19,-34,-63,-39,-68
-131,-82,48,107,-90,-17,48,-14,-19,-53,-39,-48
-112,-82,29,97,-70,-26,48,-14,-29,-58,-39,-48
-107,-82,24,95,-65,-29,48,-14,-24,-58,-39,-58
-126,-107,19,117,-73,-43,43,-14,-34,-73,-48,-78
-126,-122,4,124,-65,-58,39,-4,-39,-73,-58,-82
-107,-122,-14,114,-46,-68,63,43,-14,-68,-68,-97
-112,-156,-43,134,-34,-100,97,102,0,-97,-92,-122
-141,-190,-48,165,-46,-119,136,161,14,-122,-126,-156
-146,-209,-63,178,-41,-136,170,219,58,-122,-141,-180
-165,-224,-58,195,-53,-141,214,283,112,-117,-156,-190
-175,-244,-68,209,-53,-156,273,395,185,-107,-175,-204
-161,-258,-97,209,-31,-178,346,531,287,-87,-190,-224
-112,-244,-131,178,9,-187,390,658,385,-53,-175,-234
14,-170,-185,78,100,-178,419,790,473,24,-107,-185
180,-82,-263,-48,222,-173,444,951,585,126,0,-117
287,-73,-361,-107,324,-217,429,1058,649,214,73,-68
385,-73,-458,-156,422,-265,326,1015,624,287,170,-9
561,29,-531,-295,546,-251,165,863,522,380,322,97
766,165,-600,-466,683,-217,0,727,439,527,502,229
956,292,-663,-624,810,-185,-141,639,414,688,683,375
1107,400,-707,-753,907,-153,-268,522,419,868,878,527
1268,527,-741,-897,1005,-107,-439,322,390,1044,1078,673
1439,663,-775,-1051,1107,-56,-634,82,326,1195,1263,819
1546,761,-785,-1154,1166,-12,-790,-161,239,1302,1415,946
1527,756,-771,-1141,1149,-7,-941,-429,82,1302,1483,1029
1517,814,-702,-1166,1110,56,-1112,-771,-170,1224,1503,1112
1551,946,-605,-1249,1078,170,-1302,-1205,-488,1088,1493,1200
1503,1010,-492,-1256,997,258,-1478,-1625,-863,849,1390,1234
1439,995,-444,-1217,941,275,-1615,-1947,-1244,507,1176,1185
1332,951,-380,-1141,856,285,-1708,-2191,-1561,102,897,1093
1112,863,-248,-988,680,307,-1742,-2381,-1815,-292,575,976
854,819,-34,-836,444,392,-1747,-2513,-2034,-639,287,878
697,775,78,-736,309,427,-1717,-2547,-2181,-873,78,780
610,653,43,-631,283,348,-1659,-2488,-2210,-1015,-82,658
507,556,48,-531,229,302,-1542,-2347,-2137,-1058,-185,556
400,458,58,-429,170,258,-1400,-2166,-2010,-1058,-248,463
317,370,53,-344,131,212,-1283,-1991,-1873,-1029,-292,375
273,331,58,-302,107,195,-1180,-1825,-1737,-995,-326,307
224,312,87,-268,68,200,-1073,-1673,-1600,-936,-370,248
170,258,87,-214,41,173,-966,-1507,-1454,-883,-390,180
156,219,63,-187,46,141,-873,-1346,-1317,-824,-385,122
151,170,19,-161,65,95,-780,-1195,-1180,-775,-395,68
78,68,-9,-73,43,29,-678,-1049,-1058,-732,-419,-9
43,0,-43,-21,43,-21,-566,-873,-922,-678,-419,-63
58,-4,-63,-26,61,-34,-458,-736,-800,-624,-400,-78
9,-58,-68,24,39,-63,-400,-639,-722,-580,-390,-107
-68,-131,-63,100,-2,-97,-341,-541,-639,-541,-375,-126
-63,-141,-78,102,7,-109,-268,-448,-551,-488,-366,-131
-58,-161,-102,109,21,-131,-214,-385,-478,-453,-346,-141
-102,-195,-92,148,-4,-143,-175,-322,-429,-419,-331,-165
-117,-185,-68,151,-24,-126,-112,-253,-366,-375,-312,-165
-107,-165,-58,136,-24,-112,-73,-200,-307,-326,-292,-165
-131,-165,-34,148,-48,-100,-43,-165,-263,-297,-263,-161
-170,-195,-24,183,-73,-109,-19,-126,-224,-273,-244,-156
-161,-190,-29,175,-65,-109,14,-73,-195,-244,-224,-146
-126,-170,-43,148,-41,-107,39,-34,-151,-204,-200,-146
-146,-175,-29,161,-58,-102,68,-14,-107,-175,-185,-136
-170,-180,-9,175,-80,-95,82,14,-73,-161,-170,-131
-180,-180,0,180,-90,-90,92,34,-53,-136,-151,-131
-180,-165,14,173,-97,-75,102,43,-34,-112,-136,-126
-161,-141,19,151,-90,-61,112,63,-14,-82,-107,-107
-141,-112,29,126,-85,-41,131,92,9,-53,-78,-87
-122,-73,48,97,-85,-12,151,107,43,-39,-68,-68
-136,-82,53,109,-95,-14,141,102,48,-29,-58,-68
-161,-97,63,129,-112,-17,141,102,48,-29,-58,-73
-175,-112,63,143,-119,-24,131,102,43,-39,-63,-78
-165,-102,63,134,-114,-19,131,102,43,-29,-63,-78
-161,-92,68,126,-114,-12,146,107,48,-29,-68,-73
-161,-92,68,126,-114,-12,146,107,53,-29,-63,-73
-161,-92,68,126,-114,-12,151,107,53,-29,-63,-73
-161,-92,68,126,-114,-12,151,107,53,-29,-63,-73
-161,-92,68,126,-114,-12,151,112,48,-19,-53,-78
-161,-92,68,126,-114,-12,151,117,48,-19,-53,-78
-156,-87,68,122,-112,-9,156,117,58,-14,-53,-78
-156,-78,78,117,-117,0,161,122,63,-9,-48,-73
-151,-78,73,114,-112,-2,151,122,63,-19,-53,-82
-151,-78,73,114,-112,-2,156,131,63,-9,-53,-78
-136,-78,58,107,-97,-9,156,131,63,-9,-53,-73
-146,-82,63,114,-104,-9,151,126,63,-9,-53,-73
-165,-92,73,129,-119,-9,151,126,58,-14,-53,-78
-161,-92,68,126,-114,-12,151,126,58,-14,-53,-78
-161,-92,68,126,-114,-12,151,126,58,-14,-53,-78
-165,-92,73,129,-119,-9,151,126,58,-14,-53,-78
-170,-92,78,131,-124,-7,141,117,58,-19,-63,-87
-170,-92,78,131,-124,-7,141,117,58,-19,-63,-87
-170,-102,68,136,-119,-17,141,117,58,-14,-63,-87
-156,-92,63,124,-109,-14,141,122,58,-9,-63,-87
-146,-82,63,114,-104,-9,146,126,58,-9,-53,-82
-151,-87,63,119,-107,-12,146,126,63,-9,-53,-82
-151,-87,63,119,-107,-12,151,131,68,-9,-53,-78
-156,-92,63,124,-109,-14,151,136,68,-9,-53,-73
-175,-102,73,139,-124,-14,141,141,63,-9,-58,-78
-165,-97,68,131,-117,-14,151,136,63,-4,-53,-73
-165,-97,68,131,-117,-14,151,131,63,-4,-53,-78
-170,-92,78,131,-124,-7,151,126,53,0,-53,-82
-180,-102,78,141,-129,-12,146,126,63,0,-58,-82
-165,-102,63,134,-114,-19,146,126,63,0,-58,-82
-165,-102,63,134,-114,-19,146,126,63,-4,-58,-82
-170,-102,68,136,-119,-17,141,126,68,-4,-63,-82
-170,-97,73,134,-122,-12,151,136,73,4,-53,-73
-180,-92,87,136,-134,-2,156,136,78,4,-53,-73
-156,-82,73,119,-114,-4,161,141,87,4,-48,-63
-151,-78,73,114,-112,-2,161,141,92,4,-48,-63
-165,-92,73,129,-119,-9,151,141,82,-4,-48,-53
-165,-92,73,129,-119,-9,156,141,87,4,-48,-48
-146,-78,68,112,-107,-4,156,146,87,4,-48,-48
-146,-78,68,112,-107,-4,156,146,87,4,-48,-48
-151,-78,73,114,-112,-2,146,141,87,0,-48,-58
-161,-87,73,124,-117,-7,146,141,87,0,-53,-68
-165,-87,78,126,-122,-4,146,141,87,0,-53,-73
-161,-87,73,124,-117,-7,146,146,92,0,-48,-82
-161,-92,68,126,-114,-12,161,156,107,14,-43,-78
-151,-78,73,114,-112,-2,165,156,112,19,-39,-68
-136,-68,68,102,-102,0,175,161,117,19,-34,-63
-146,-63,82,104,-114,9,185,161,122,19,-29,-58
-165,-82,82,124,-124,0,180,156,112,9,-39,-68
-170,-87,82,129,-126,-2,175,161,112,9,-34,-68
-180,-97,82,139,-131,-7,175,165,112,14,-34,-68
-190,-107,82,148,-136,-12,170,165,117,14,-34,-58
-180,-107,73,143,-126,-17,175,175,126,19,-34,-58
-175,-102,73,139,-124,-14,175,175,126,19,-34,-63
-165,-97,68,131,-117,-14,175,175,131,19,-34,-63
-156,-87,68,122,-112,-9,180,175,131,19,-34,-63
-156,-68,87,112,-122,9,195,190,146,29,-24,-48
-156,-58,97,107,-126,19,200,195,151,43,-14,-48
-156,-53,102,104,-129,24,200,195,165,43,-14,-48
-165,-53,112,109,-139,29,200,195,165,39,-19,-48
-190,-87,102,139,-146,7,190,185,156,24,-24,-58
-190,-102,87,146,-139,-7,180,180,151,24,-24,-68
-185,-107,78,146,-131,-14,175,190,156,24,-29,-73
-180,-112,68,146,-124,-21,170,195,161,24,-34,-82
-165,-92,73,129,-119,-9,175,204,165,34,-29,-78
-161,-82,78,122,-119,-2,180,204,170,39,-24,-68
-161,-82,78,122,-119,-2,185,204,180,39,-19,-63
-156,-73,82,114,-119,4,190,209,190,39,-9,-58
-146,-68,78,107,-112,4,185,209,190,53,-19,-58
-146,-68,78,107,-112,4,195,209,204,63,-9,-48
-151,-73,78,112,-114,2,195,219,209,63,-9,-48
-151,-73,78,112,-114,2,200,224,219,68,-4,-43
-165,-82,82,124,-124,0,209,234,224,63,4,-43
-180,-97,82,139,-131,-7,204,234,224,63,-4,-48
-185,-97,87,141,-136,-4,200,239,224,68,-4,-48
-190,-92,97,141,-143,2,200,239,234,73,9,-43
-170,-82,87,126,-129,2,209,248,258,92,9,-39
-161,-73,87,117,-124,7,219,253,263,92,9,-39
-156,-58,97,107,-126,19,219,258,273,97,14,-39
-151,-53,97,102,-124,21,214,263,283,102,19,-39
-136,-53,82,95,-109,14,204,253,283,97,9,-48
-136,-43,92,90,-114,24,209,258,292,102,14,-39
-136,-43,92,90,-114,24,209,268,292,107,14,-39
-136,-48,87,92,-112,19,209,268,292,112,19,-39
-141,-39,102,90,-122,31,214,278,302,117,29,-29
-141,-19,122,80,-131,51,224,287,317,126,39,-24
-141,0,141,70,-141,70,229,297,331,136,48,-14
-136,4,141,65,-139,73,229,317,351,146,53,-9
-146,0,146,73,-146,73,229,317,356,151,53,-9
-146,-4,141,75,-143,68,229,317,366,156,48,-14
-146,-9,136,78,-141,63,229,317,370,161,53,-14
-131,0,131,65,-131,65,234,322,375,170,53,0
-112,4,117,53,-114,61,224,322,380,170,53,0
-97,9,107,43,-102,58,219,322,385,180,58,0
-102,-9,92,56,-97,41,219,322,395,180,63,0
-97,-14,82,56,-90,34,219,322,405,180,68,0
-68,39,107,14,-87,73,224,336,419,200,87,14
-53,48,102,2,-78,75,229,341,434,204,97,29
-78,39,117,19,-97,78,219,346,439,209,102,34
-68,48,117,9,-92,82,224,351,448,214,107,39
-63,58,122,2,-92,90,224,346,458,234,122,43
-68,68,136,0,-102,102,219,346,463,234,131,48
-73,48,122,12,-97,85,204,346,458,229,126,48
-73,39,112,17,-92,75,195,341,453,229,126,48
-48,68,117,-9,-82,92,195,351,468,239,136,68
-39,73,112,-17,-75,92,190,351,473,244,146,78
-14,102,117,-43,-65,109,190,351,483,253,161,78
4,117,112,-61,-53,114,185,351,488,268,175,92
4,117,112,-61,-53,114,175,356,488,273,175,102
9,122,112,-65,-51,117,175,346,478,273,175,107
34,131,97,-82,-31,114,175,346,488,283,185,117
58,146,87,-102,-14,117,161,341,488,287,204,131
53,151,97,-102,-21,124,151,336,478,278,204,126
53,146,92,-100,-19,119,131,322,473,283,204,126
53,141,87,-97,-17,114,131,312,473,283,200,141
58,136,78,-97,-9,107,117,297,463,283,195,141
73,151,78,-112,-2,114,117,297,473,287,209,141
82,161,78,-122,2,119,117,292,468,287,214,151
97,175,78,-136,9,126,117,292,468,297,219,165
97,180,82,-139,7,131,112,287,468,297,224,170
112,195,82,-153,14,139,92,283,458,297,229,170
136,209,73,-173,31,141,92,283,458,297,234,170
146,214,68,-180,39,141,82,273,453,297,239,180
161,219,58,-190,51,139,73,268,444,302,244,185
165,229,63,-197,51,146,63,258,448,292,239,190
180,224,43,-202,68,134,53,248,444,292,244,195
185,219,34,-202,75,126,48,239,439,292,244,195
170,214,43,-192,63,129,48,229,434,287,244,200
170,204,34,-187,68,119,48,229,424,297,244,204
185,214,29,-200,78,122,43,224,424,307,253,209
200,224,24,-212,87,124,43,219,424,307,258,219
204,224,19,-214,92,122,39,214,414,307,258,219
219,229,9,-224,104,119,34,214,414,302,263,229
224,234,9,-229,107,122,29,209,405,297,263,229
224,234,9,-229,107,122,24,200,390,287,258,229
224,229,4,-226,109,117,19,190,385,283,258,224
224,224,0,-224,112,112,9,180,361,273,248,219
224,219,-4,-222,114,107,4,175,351,268,248,219
219,214,-4,-217,112,104,0,161,341,258,244,214
219,209,-9,-214,114,100,-9,146,326,248,239,200
204,214,9,-209,97,112,-4,141,322,244,244,209
209,209,0,-209,104,104,-4,141,307,239,239,209
185,204,19,-195,82,112,0,141,297,234,234,204
175,204,29,-190,73,117,0,126,278,224,234,200
170,195,24,-183,73,109,-4,117,273,214,229,195
175,185,9,-180,82,97,-9,107,258,209,219,190
170,180,9,-175,80,95,-9,102,239,204,204,180
175,180,4,-178,85,92,-4,97,224,200,204,175
165,175,9,-170,78,92,-4,87,204,185,190,170
156,161,4,-158,75,82,-4,78,195,175,180,161
141,146,4,-143,68,75,-4,73,185,165,170,151
117,131,14,-124,51,73,-4,73,165,156,165,141
122,112,-9,-117,65,51,9,68,156,146,146,126
122,112,-9,-117,65,51,9,63,136,131,136,122
131,112,-19,-122,75,46,9,58,122,131,136,122
107,92,-14,-100,61,39,9,53,117,122,126,117
82,78,-4,-80,43,36,0,48,97,112,112,107
78,78,0,-78,39,39,0,43,87,102,107,97
73,78,4,-75,34,41,0,39,78,87,107,92
63,63,0,-63,31,31,0,34,68,82,87,78
73,63,-9,-68,41,26,9,34,68,87,92,82
68,63,-4,-65,36,29,9,29,63,82,92,73
43,53,9,-48,17,31,14,24,58,78,87,73
58,53,-4,-56,31,24,14,24,48,68,78,63
68,63,-4,-65,36,29,19,24,29,48,73,53
43,39,-4,-41,24,17,19,24,29,48,68,48
39,39,0,-39,19,19,19,24,29,43,68,48
34,39,4,-36,14,21,19,24,29,43,63,48
24,34,9,-29,7,21,9,9,19,29,48,34
24,24,0,-24,12,12,9,0,9,24,43,34
19,14,-4,-17,12,4,9,0,4,14,39,29
9,4,-4,-7,7,0,9,0,0,4,34,19
-14,-9,4,12,-9,-2,9,0,0,4,19,14
-29,-24,4,26,-17,-9,14,-9,-4,0,14,9
-34,-29,4,31,-19,-12,14,-9,-4,0,14,4
-19,-24,-4,21,-7,-14,14,-9,0,0,9,4
-19,-14,4,17,-12,-4,14,-9,-4,9,19,14
-19,-14,4,17,-12,-4,14,-4,-4,0,19,9
-19,-19,0,19,-9,-9,14,-4,-9,-4,14,4
-19,-29,-9,24,-4,-19,14,-9,-14,-4,14,4
-39,-39,0,39,-19,-19,4,-14,-14,-14,9,-4
-34,-39,-4,36,-14,-21,9,-14,-14,-14,9,-9
-29,-39,-9,34,-9,-24,9,-14,-19,-14,9,-9
-9,-29,-19,19,4,-24,9,-19,-24,-19,4,-9
-4,-19,-14,12,4,-17,9,-19,-24,-19,-4,-24
-4,-19,-14,12,4,-17,9,-14,-24,-19,-4,-24
0,-19,-19,9,9,-19,9,-14,-19,-19,-4,-24
9,-14,-24,2,17,-19,9,-14,-19,-19,-4,-24
0,-14,-14,7,7,-14,24,-4,-19,-19,-4,-14
-24,-24,0,24,-12,-12,24,-4,-19,-19,-9,-14
-43,-39,4,41,-24,-17,24,-4,-19,-29,-14,-19
-53,-39,14,46,-34,-12,24,-9,-24,-34,-19,-29
-43,-53,-9,48,-17,-31,14,-9,-24,-24,-14,-29
-43,-53,-9,48,-17,-31,14,-9,-24,-24,-14,-24
-43,-53,-9,48,-17,-31,14,-9,-19,-24,-14,-24
-43,-48,-4,46,-19,-26,14,-9,-19,-24,-14,-29
-43,-48,-4,46,-19,-26,24,-19,-9,-24,-4,-29
-34,-48,-14,41,-9,-31,29,-14,-9,-24,-4,-34
-19,-29,-9,24,-4,-19,29,-14,-9,-24,-4,-34
-29,-43,-14,36,-7,-29,24,-14,-9,-34,-9,-39
-39,-58,-19,48,-9,-39,14,-29,-14,-39,-24,-43
-43,-63,-19,53,-12,-41,14,-29,-19,-48,-29,-48
-48,-68,-19,58,-14,-43,14,-29,-29,-53,-34,-53
-43,-63,-19,53,-12,-41,14,-29,-34,-53,-39,-58
-48,-53,-4,51,-21,-29,19,-24,-24,-48,-34,-48
-63,-53,9,58,-36,-21,24,-24,-19,-48,-34,-53
-63,-53,9,58,-36,-21,29,-19,-14,-48,-34,-58
-58,-48,9,53,-34,-19,34,-14,-9,-43,-29,-58
-43,-58,-14,51,-14,-36,24,-19,-14,-53,-29,-58
-34,-43,-9,39,-12,-26,24,-19,-14,-53,-29,-58
-29,-39,-9,34,-9,-24,29,-19,-14,-53,-29,-58
-29,-29,0,29,-14,-14,29,-19,-9,-53,-29,-58
-39,-48,-9,43,-14,-29,29,-9,-9,-53,-24,-48
-43,-48,-4,46,-19,-26,34,-9,-14,-53,-24,-48
-43,-43,0,43,-21,-21,34,-9,-14,-48,-24,-48
-34,-43,-9,39,-12,-26,34,-9,-4,-48,-24,-48
-43,-43,0,43,-21,-21,24,-19,-4,-58,-24,-58
-53,-48,4,51,-29,-21,24,-19,-9,-58,-29,-63
-53,-48,4,51,-29,-21,24,-19,-14,-58,-34,-63
-53,-48,4,51,-29,-21,24,-19,-14,-58,-34,-63
-68,-63,4,65,-36,-29,34,-14,-14,-48,-24,-53
-73,-68,4,70,-39,-31,34,-14,-9,-48,-24,-63
-73,-68,4,70,-39,-31,39,-14,-9,-48,-19,-63
-63,-58,4,61,-34,-26,39,-14,-4,-48,-19,-58
-63,-48,14,56,-39,-17,39,-14,-4,-48,-29,-68
-78,-53,24,65,-51,-14,39,-14,-4,-48,-29,-68
-78,-53,24,65,-51,-14,48,-4,0,-39,-24,-63
-78,-53,24,65,-51,-14,48,-4,4,-39,-24,-63
-68,-53,14,61,-41,-19,39,-4,-4,-48,-34,-73
-68,-53,14,61,-41,-19,39,-4,0,-48,-34,-73
-63,-53,9,58,-36,-21,39,0,4,-48,-34,-73
-63,-53,9,58,-36,-21,43,0,9,-48,-34,-73
-68,-53,14,61,-41,-19,43,-9,9,-48,-34,-73
-82,-63,19,73,-51,-21,39,-14,4,-48,-39,-73
-82,-73,9,78,-46,-31,39,-14,4,-48,-39,-73
-78,-53,24,65,-51,-14,39,-9,9,-43,-34,-73
-78,-24,53,51,-65,14,43,-4,14,-34,-19,-63
-78,-34,43,56,-61,4,48,0,19,-34,-19,-63
-82,-34,48,58,-65,7,58,14,34,-24,-19,-58
-82,-34,48,58,-65,7,63,19,39,-24,-19,-58
-102,-39,63,70,-82,12,63,4,39,-29,-19,-63
-102,-39,63,70,-82,12,63,4,48,-29,-19,-63
-78,-24,53,51,-65,14,68,14,53,-19,-9,-58
-78,-39,39,58,-58,0,68,14,53,-19,-19,-58
-73,-39,34,56,-53,-2,68,24,43,-29,-19,-63
-63,-24,39,43,-51,7,78,34,53,-24,-9,-58
-48,-9,39,29,-43,14,78,34,53,-24,-9,-58
-58,-34,24,46,-41,-4,73,24,48,-29,-19,-63
-82,-53,29,68,-56,-12,58,14,34,-29,-29,-73
-92,-63,29,78,-61,-17,48,14,34,-29,-29,-78
-92,-63,29,78,-61,-17,48,14,34,-29,-29,-78
-112,-63,48,87,-80,-7,53,19,34,-29,-29,-78
-122,-58,63,90,-92,2,68,34,43,-24,-24,-63
-107,-48,58,78,-82,4,78,34,48,-19,-19,-58
-92,-29,63,61,-78,17,82,34,53,-14,-14,-53
-87,-24,63,56,-75,19,87,34,58,-9,-9,-48
-82,-43,39,63,-61,-2,68,24,48,-24,-24,-58
-82,-48,34,65,-58,-7,63,19,43,-29,-29,-63
-82,-48,34,65,-58,-7,58,14,39,-34,-34,-63
-78,-48,29,63,-53,-9,53,9,34,-39,-34,-68
-78,-43,34,61,-56,-4,63,29,39,-19,-19,-48
-82,-43,39,63,-61,-2,68,29,43,-14,-14,-43
-92,-53,39,73,-65,-7,73,29,48,-9,-9,-43
-112,-68,43,90,-78,-12,78,24,48,-9,-9,-53
-102,-68,34,85,-68,-17,68,24,39,-9,-9,-43
-78,-48,29,63,-53,-9,68,24,48,-4,0,-39
-78,-48,29,63,-53,-9,68,29,48,-4,0,-39
-87,-63,24,75,-56,-19,63,29,39,-14,-4,-43
-92,-53,39,73,-65,-7,63,29,39,-24,-14,-53
-92,-53,39,73,-65,-7,68,24,39,-24,-14,-53
-82,-43,39,63,-61,-2,68,24,39,-24,-14,-53
-82,-53,29,68,-56,-12,63,19,34,-24,-14,-53
-87,-58,29,73,-58,-14,63,19,29,-29,-24,-53
-87,-58,29,73,-58,-14,63,19,29,-29,-29,-58
-87,-58,29,73,-58,-14,63,19,29,-29,-29,-58
-82,-58,24,70,-53,-17,58,19,29,-29,-29,-58
-73,-43,29,58,-51,-7,68,34,34,-24,-14,-53
-53,-24,29,39,-41,2,73,34,39,-14,-9,-43
-43,-14,29,29,-36,7,73,34,43,-9,-4,-39
-34,-9,24,21,-29,7,73,29,43,-9,4,-39
-58,-53,4,56,-31,-24,53,24,29,-14,-9,-53
-78,-68,9,73,-43,-29,48,19,19,-24,-19,-58
-97,-73,24,85,-61,-24,43,14,14,-29,-29,-63
-117,-87,29,102,-73,-29,39,9,9,-34,-34,-68
-107,-82,24,95,-65,-29,48,14,14,-34,-19,-63
-87,-78,9,82,-48,-34,48,9,19,-34,-19,-58
-87,-73,14,80,-51,-29,39,4,9,-34,-19,-53
-78,-68,9,73,-43,-29,39,4,14,-39,-19,-48
-78,-58,19,68,-48,-19,48,14,24,-29,-9,-48
-78,-58,19,68,-48,-19,53,14,24,-29,-9,-48
-73,-58,14,65,-43,-21,53,9,24,-29,-14,-43
-73,-58,14,65,-43,-21,58,9,24,-29,-14,-43
-87,-68,19,78,-53,-24,48,9,14,-29,-14,-48
-92,-73,19,82,-56,-26,48,9,14,-29,-14,-48
-92,-73,19,82,-56,-26,48,9,9,-29,-14,-48
-92,-73,19,82,-56,-26,48,4,9,-29,-14,-53
-97,-68,29,82,-63,-19,48,4,4,-39,-24,-63
-97,-68,29,82,-63,-19,48,4,4,-39,-24,-63
-87,-53,34,70,-61,-9,48,4,9,-39,-19,-58
-87,-53,34,70,-61,-9,48,4,9,-43,-19,-58
-78,-43,34,61,-56,-4,39,4,9,-39,-19,-63
-78,-48,29,63,-53,-9,29,4,4,-39,-19,-63
-58,-43,14,51,-36,-14,29,9,4,-29,-14,-63
-48,-19,29,34,-39,4,39,14,14,-29,-14,-63
-48,-29,19,39,-34,-4,48,9,4,-39,-24,-63
-53,-39,14,46,-34,-12,48,0,0,-39,-24,-63
-58,-68,-9,63,-24,-39,34,-14,-9,-48,-29,-68
-78,-78,0,78,-39,-39,34,-19,-9,-48,-29,-73
-97,-73,24,85,-61,-24,39,-9,4,-43,-19,-63
-87,-63,24,75,-56,-19,43,0,9,-34,-14,-58
-73,-39,34,56,-53,-2,53,9,14,-29,-14,-53
-82,-43,39,63,-61,-2,43,14,14,-24,-14,-53
-73,-58,14,65,-43,-21,39,0,0,-39,-29,-63
-73,-73,0,73,-36,-36,39,-4,0,-39,-29,-68
-68,-68,0,68,-34,-34,39,-9,0,-39,-29,-73
-68,-63,4,65,-36,-29,39,-14,4,-39,-24,-78
-63,-58,4,61,-34,-26,39,-9,4,-34,-14,-68
-63,-58,4,61,-34,-26,39,-9,4,-34,-14,-68
-78,-58,19,68,-48,-19,39,-4,4,-34,-14,-68
-78,-53,24,65,-51,-14,39,0,4,-43,-14,-68
-97,-92,4,95,-51,-43,29,-14,-14,-53,-34,-78
-117,-102,14,109,-65,-43,19,-24,-19,-53,-34,-82
-107,-78,29,92,-68,-24,29,-9,-9,-39,-29,-68
-87,-68,19,78,-53,-24,39,0,-4,-29,-19,-58
-78,-58,19,68,-48,-19,39,0,0,-29,-19,-58
-68,-48,19,58,-43,-14,39,0,4,-29,-19,-58
-58,-39,19,48,-39,-9,39,0,9,-29,-19,-58
-68,-53,14,61,-41,-19,29,-9,4,-34,-29,-68
-68,-58,9,63,-39,-24,29,-9,0,-39,-29,-68
-68,-63,4,65,-36,-29,29,-9,-4,-43,-29,-68
-68,-68,0,68,-34,-34,29,-9,-9,-48,-29,-68
-73,-78,-4,75,-34,-41,24,-19,-19,-48,-39,-68
-78,-78,0,78,-39,-39,19,-19,-19,-48,-39,-68
-82,-78,4,80,-43,-36,14,-19,-19,-48,-39,-68
-87,-78,9,82,-48,-34,9,-19,-19,-48,-39,-68
-78,-63,14,70,-46,-24,24,-14,-14,-39,-34,-68
-78,-58,19,68,-48,-19,29,-9,-9,-39,-29,-68
-78,-53,24,65,-51,-14,34,-4,-4,-39,-24,-68
-78,-48,29,63,-53,-9,39,0,0,-39,-19,-68
-73,-48,24,61,-48,-12,29,-9,-9,-48,-29,-68
-68,-48,19,58,-43,-14,29,-9,-9,-48,-29,-68
-63,-48,14,56,-39,-17,29,-9,-9,-48,-29,-68
-58,-48,9,53,-34,-19,29,-9,-9,-48,-29,-68
-58,-39,19,48,-39,-9,19,-9,-9,-48,-29,-58
-58,-39,19,48,-39,-9,19,-9,-9,-48,-29,-58
-58,-39,19,48,-39,-9,19,-9,-9,-48,-29,-58
-58,-39,19,48,-39,-9,19,-9,-9,-48,-29,-58
-73,-53,19,63,-46,-17,19,-19,-19,-48,-39,-68
-78,-58,19,68,-48,-19,19,-19,-19,-48,-39,-68
-82,-63,19,73,-51,-21,19,-19,-19,-48,-39,-68
-87,-68,19,78,-53,-24,19,-19,-19,-48,-39,-68
-73,-63,9,68,-41,-26,24,-14,-9,-39,-34,-63
-68,-58,9,63,-39,-24,29,-9,-9,-39,-29,-58
-63,-53,9,58,-36,-21,34,-4,-9,-39,-24,-53
-58,-48,9,53,-34,-19,39,0,-9,-39,-19,-48
-78,-58,19,68,-48,-19,34,-4,-14,-43,-24,-53
-87,-68,19,78,-53,-24,29,-9,-19,-48,-29,-58
-97,-78,19,87,-58,-29,24,-14,-24,-53,-34,-63
-107,-87,19,97,-63,-34,19,-19,-29,-58,-39,-68
-102,-73,29,87,-65,-21,29,-9,-19,-48,-29,-58
-97,-68,29,82,-63,-19,29,-9,-19,-48,-29,-58
-92,-63,29,78,-61,-17,29,-9,-19,-48,-29,-58
-87,-58,29,73,-58,-14,29,-9,-19,-48,-29,-58
-78,-58,19,68,-48,-19,19,-9,-19,-39,-19,-48
-78,-58,19,68,-48,-19,19,-9,-19,-39,-19,-48
-78,-58,19,68,-48,-19,19,-9,-19,-39,-19,-48
-78,-58,19,68,-48,-19,19,-9,-19,-39,-19,-48
-73,-58,14,65,-43,-21,29,-9,-19,-48,-19,-58
-68,-58,9,63,-39,-24,29,-9,-19,-48,-19,-58
-63,-58,4,61,-34,-26,29,-9,-19,-48,-19,-58
-58,-58,0,58,-29,-29,29,-9,-19,-48,-19,-58
-63,-63,0,63,-31,-31,24,-19,-29,-58,-29,-58
-68,-68,0,68,-34,-34,19,-19,-29,-58,-29,-58
-73,-73,0,73,-36,-36,14,-19,-29,-58,-29,-58
-78,-78,0,78,-39,-39,9,-19,-29,-58,-29,-58
-68,-68,0,68,-34,-34,19,-19,-29,-58,-39,-58
-68,-68,0,68,-34,-34,19,-19,-29,-58,-39,-58
-68,-68,0,68,-34,-34,19,-19,-29,-58,-39,-58
-68,-68,0,68,-34,-34,19,-19,-29,-58,-39,-58
-68,-63,4,65,-36,-29,29,-14,-24,-53,-34,-48
-68,-58,9,63,-39,-24,29,-9,-19,-48,-29,-48
-68,-53,14,61,-41,-19,29,-4,-14,-43,-24,-48
-68,-48,19,58,-43,-14,29,0,-9,-39,-19,-48
-63,-39,24,51,-43,-7,19,-9,-19,-39,-29,-48
-58,-39,19,48,-39,-9,19,-9,-19,-39,-29,-48
-53,-39,14,46,-34,-12,19,-9,-19,-39,-29,-48
-48,-39,9,43,-29,-14,19,-9,-19,-39,-29,-48
-53,-48,4,51,-29,-21,19,-9,-19,-39,-29,-48
-58,-48,9,53,-34,-19,19,-9,-19,-39,-29,-48
-63,-48,14,56,-39,-17,19,-9,-19,-39,-29,-48
-68,-48,19,58,-43,-14,19,-9,-19,-39,-29,-48
-48,-29,19,39,-34,-4,24,4,-4,-29,-24,-39
-39,-19,19,29,-29,0,29,9,0,-29,-19,-39
-29,-9,19,19,-24,4,34,14,4,-29,-14,-39
-19,0,19,9,-19,9,39,19,9,-29,-9,-39
-39,-14,24,26,-31,4,48,19,19,-29,-9,-39
-48,-19,29,34,-39,4,48,19,19,-29,-9,-39
-58,-24,34,41,-46,4,48,19,19,-29,-9,-39
-68,-29,39,48,-53,4,48,19,19,-29,-9,-39
-68,-29,39,48,-53,4,39,9,29,-19,0,-39
-68,-29,39,48,-53,4,39,9,29,-19,0,-39
-68,-29,39,48,-53,4,39,9,29,-19,0,-39
-68,-29,39,48,-53,4,39,9,29,-19,0,-39
-48,-14,34,31,-41,9,53,24,39,-9,9,-29
-39,-9,29,24,-34,9,58,29,39,-9,9,-29
-29,-4,24,17,-26,9,63,34,39,-9,9,-29
-19,0,19,9,-19,9,68,39,39,-9,9,-29
-14,-9,4,12,-9,-2,53,34,29,-19,4,-39
-9,-9,0,9,-4,-4,48,29,29,-19,0,-39
-4,-9,-4,7,0,-7,43,24,29,-19,-4,-39
0,-9,-9,4,4,-9,39,19,29,-19,-9,-39
9,0,-9,-4,9,-4,34,9,39,-9,0,-29
9,0,-9,-4,9,-4,29,9,39,-9,0,-29
9,0,-9,-4,9,-4,24,9,39,-9,0,-29
9,0,-9,-4,9,-4,19,9,39,-9,0,-29
4,9,4,-7,0,7,19,9,48,0,4,-14
0,9,9,-4,-4,9,19,9,48,0,9,-9
-4,9,14,-2,-9,12,19,9,48,0,14,-4
0,19,19,-9,-9,19,9,4,43,0,19,0
9,34,24,-21,-7,29,4,-4,39,9,34,9
24,48,24,-36,0,36,-4,-9,34,9,34,14
39,53,14,-46,12,34,-14,-19,29,9,34,14
39,53,14,-46,12,34,-19,-19,29,9,34,9
39,43,4,-41,17,24,-29,-24,14,0,19,0
34,34,0,-34,17,17,-29,-29,9,-14,14,-4
39,24,-14,-31,26,4,-29,-34,9,-19,9,-14
34,19,-14,-26,24,2,-29,-39,9,-29,4,-29
19,0,-19,-9,19,-9,-29,-39,-4,-34,-4,-34
24,0,-24,-12,24,-12,-29,-39,-9,-39,-9,-34
24,0,-24,-12,24,-12,-34,-53,-14,-43,-14,-34
19,-4,-24,-7,21,-14,-43,-58,-14,-43,-14,-34
24,0,-24,-12,24,-12,-34,-53,-14,-39,-9,-24
39,9,-29,-24,34,-9,-34,-48,-14,-34,-4,-19
39,14,-24,-26,31,-4,-34,-43,-9,-29,0,-14
39,14,-24,-26,31,-4,-34,-48,-14,-29,4,-9
48,9,-39,-29,43,-14,-48,-58,-24,-39,-9,-24
53,4,-48,-29,51,-21,-48,-58,-24,-43,-9,-24
58,0,-58,-29,58,-29,-48,-58,-24,-43,-9,-24
68,0,-68,-34,68,-34,-48,-58,-24,-43,-9,-24
58,-4,-63,-26,61,-34,-39,-68,-24,-53,-19,-24
58,0,-58,-29,58,-29,-48,-73,-24,-53,-19,-29
58,-4,-63,-26,61,-34,-48,-73,-24,-53,-19,-34
68,0,-68,-34,68,-34,-43,-73,-19,-48,-14,-39
73,9,-63,-41,68,-26,-53,-68,-9,-39,-4,-19
63,14,-48,-39,56,-17,-53,-68,-9,-39,-4,-14
53,4,-48,-29,51,-21,-48,-68,-9,-39,-4,-14
48,9,-39,-29,43,-14,-43,-63,-4,-39,-4,-9
34,-4,-39,-14,36,-21,-34,-58,-4,-43,-9,-9
9,-14,-24,2,17,-19,-29,-53,-4,-43,-9,-14
-19,-29,-9,24,-4,-19,-24,-43,0,-43,-14,-19
-34,-39,-4,36,-14,-21,-24,-53,0,-43,-19,-24
-43,-29,14,36,-29,-7,-29,-43,0,-43,-9,-24
-58,-39,19,48,-39,-9,-29,-48,-4,-48,-14,-24
-68,-43,24,56,-46,-9,-24,-48,-4,-58,-19,-39
-78,-58,19,68,-48,-19,-24,-48,-9,-58,-24,-48
-92,-58,34,75,-63,-12,-4,-48,-9,-58,-29,-58
-87,-53,34,70,-61,-9,0,-48,-4,-58,-34,-58
-78,-39,39,58,-58,0,0,-48,-4,-68,-34,-58
-68,-43,24,56,-46,-9,0,-48,-4,-68,-34,-68
-73,-53,19,63,-46,-17,-9,-58,-19,-68,-34,-63
-78,-58,19,68,-48,-19,-9,-58,-19,-73,-34,-63
-97,-68,29,82,-63,-19,-9,-58,-19,-73,-43,-68
-117,-78,39,97,-78,-19,-4,-53,-19,-73,-43,-68
-126,-87,39,107,-82,-24,4,-43,-14,-73,-34,-63
-122,-87,34,104,-78,-26,4,-43,-9,-68,-39,-63
-122,-82,39,102,-80,-21,4,-43,-4,-63,-39,-63
-122,-82,39,102,-80,-21,9,-43,0,-58,-39,-63
-122,-78,43,100,-82,-17,9,-43,0,-68,-39,-58
-117,-78,39,97,-78,-19,9,-43,0,-68,-39,-58
-112,-73,39,92,-75,-17,9,-43,0,-68,-39,-63
-107,-73,34,90,-70,-19,14,-43,4,-63,-39,-63
-112,-92,19,102,-65,-36,9,-48,-4,-73,-48,-73
-122,-97,24,109,-73,-36,0,-53,-14,-82,-53,-78
-107,-97,9,102,-58,-43,-4,-58,-14,-87,-53,-82
-107,-97,9,102,-58,-43,-14,-63,-14,-87,-53,-82
-117,-82,34,100,-75,-24,-9,-58,-19,-73,-43,-82
-107,-68,39,87,-73,-14,0,-48,-4,-68,-43,-78
-107,-63,43,85,-75,-9,14,-43,0,-68,-43,-78
-107,-58,48,82,-78,-4,19,-39,4,-73,-39,-78
-102,-68,34,85,-68,-17,9,-48,-4,-73,-39,-78
-112,-68,43,90,-78,-12,9,-43,-4,-73,-39,-78
-97,-68,29,82,-63,-19,4,-43,-4,-68,-39,-82
-82,-68,14,75,-48,-26,4,-48,-4,-68,-43,-82
-112,-73,39,92,-75,-17,4,-39,-4,-68,-43,-73
-122,-78,43,100,-82,-17,4,-39,-4,-68,-43,-68
-112,-78,34,95,-73,-21,9,-34,-4,-68,-39,-68
-112,-73,39,92,-75,-17,9,-34,-4,-68,-39,-68
-107,-63,43,85,-75,-9,9,-43,14,-63,-39,-78
-102,-63,39,82,-70,-12,9,-39,14,-63,-39,-78
-97,-63,34,80,-65,-14,9,-39,14,-63,-39,-78
-92,-63,29,78,-61,-17,9,-34,9,-63,-39,-78
-151,-102,48,126,-100,-26,19,-34,0,-68,-48,-87
-107,-73,34,90,-70,-19,29,-14,24,-58,-39,-68
-68,-48,19,58,-43,-14,43,14,34,-63,-39,-68
-107,-112,-4,109,-51,-58,58,34,19,-82,-68,-102
-156,-200,-43,178,-56,-122,63,73,24,-117,-107,-146
-141,-214,-73,178,-34,-143,97,131,48,-117,-131,-170
-112,-200,-87,156,-12,-143,136,180,102,-112,-136,-185
-126,-219,-92,173,-17,-156,170,248,156,-112,-161,-209
-126,-244,-117,185,-4,-180,224,351,239,-107,-185,-229
-117,-244,-126,180,4,-185,302,483,341,-87,-195,-244
-73,-229,-156,151,41,-192,336,590,434,-39,-161,-234
24,-175,-200,75,112,-187,351,707,512,24,-87,-185
151,-112,-263,-19,207,-187,361,839,600,112,0,-126
287,-82,-370,-102,329,-226,336,932,653,195,87,-78
453,-24,-478,-214,466,-251,253,902,649,302,209,19
629,92,-536,-361,583,-222,112,761,546,414,375,146
795,195,-600,-495,697,-202,-58,590,444,546,556,263
961,302,-658,-631,810,-178,-204,473,400,712,756,405
1132,439,-692,-785,912,-126,-326,366,395,893,966,570
1283,556,-727,-919,1005,-85,-492,180,351,1054,1151,712
1424,644,-780,-1034,1102,-68,-692,-78,244,1180,1322,839
1527,732,-795,-1129,1161,-31,-849,-307,141,1293,1478,976
1576,810,-766,-1193,1171,21,-966,-531,4,1312,1561,1093
1566,873,-692,-1220,1129,90,-1117,-829,-229,1224,1581,1176
1517,951,-566,-1234,1041,192,-1307,-1229,-561,1058,1551,1249
1464,1034,-429,-1249,946,302,-1459,-1595,-907,824,1444,1278
1395,1068,-326,-1232,861,370,-1556,-1859,-1244,497,1244,1254
1263,1034,-229,-1149,746,402,-1625,-2074,-1537,117,961,1176
1039,961,-78,-1000,558,441,-1659,-2249,-1776,-287,634,1054
800,902,102,-851,348,502,-1664,-2381,-2000,-653,312,927
629,810,180,-719,224,495,-1639,-2415,-2132,-902,73,800
522,678,156,-600,183,417,-1581,-2352,-2132,-1029,-87,663
414,575,161,-495,126,368,-1454,-2205,-2034,-1063,-190,570
322,497,175,-409,73,336,-1317,-2025,-1903,-1058,-263,468
244,390,146,-317,48,268,-1215,-1873,-1795,-1049,-336,356
190,312,122,-251,34,217,-1146,-1747,-1698,-1029,-390,278
136,283,146,-209,-4,214,-1063,-1600,-1571,-985,-424,200
107,253,146,-180,-19,200,-956,-1449,-1424,-927,-439,131
92,219,126,-156,-17,173,-868,-1312,-1288,-873,-439,92
87,180,92,-134,-2,136,-785,-1161,-1151,-814,-424,43
43,92,48,-68,-2,70,-692,-1010,-1024,-766,-444,-39
9,9,0,-9,4,4,-590,-863,-902,-712,-458,-97
4,-9,-14,2,9,-12,-478,-717,-785,-658,-429,-102
-39,-43,-4,41,-17,-24,-400,-600,-663,-585,-390,-107
-97,-117,-19,107,-39,-68,-341,-512,-585,-541,-370,-126
-68,-131,-63,100,-2,-97,-292,-424,-522,-492,-356,-136
-14,-102,-87,58,36,-95,-239,-361,-453,-458,-326,-141
-39,-131,-92,85,26,-112,-204,-317,-400,-424,-326,-161
-122,-195,-73,158,-24,-134,-185,-283,-361,-400,-322,-185
-185,-224,-39,204,-73,-131,-151,-234,-317,-366,-302,-195
-156,-175,-19,165,-68,-97,-92,-161,-239,-297,-253,-165
-102,-107,-4,104,-48,-56,-43,-107,-185,-248,-214,-141
-92,-107,-14,100,-39,-61,-29,-78,-156,-234,-214,-146
-151,-180,-29,165,-61,-104,-34,-53,-136,-224,-214,-156
-175,-200,-24,187,-75,-112,-9,-24,-102,-185,-180,-146
-146,-156,-9,151,-68,-82,9,4,-68,-156,-156,-136
-161,-161,0,161,-80,-80,34,24,-43,-131,-141,-131
-190,-180,9,185,-100,-85,34,43,-24,-117,-131,-122
-161,-136,24,148,-92,-56,43,63,-4,-92,-107,-107
-122,-92,29,107,-75,-31,63,73,24,-63,-87,-97
-122,-92,29,107,-75,-31,63,73,39,-53,-78,-87
-151,-92,58,122,-104,-17,63,87,43,-48,-78,-87
-151,-82,68,117,-109,-7,68,92,48,-48,-68,-78
-170,-97,73,134,-122,-12,73,92,48,-48,-68,-82
-180,-112,68,146,-124,-21,68,92,43,-58,-73,-87
-165,-102,63,134,-114,-19,73,92,43,-48,-73,-87
-151,-87,63,119,-107,-12,78,107,58,-34,-58,-73
-151,-82,68,117,-109,-7,78,107,63,-29,-53,-73
-151,-78,73,114,-112,-2,82,107,63,-24,-53,-73
-151,-73,78,112,-114,2,82,107,63,-19,-53,-73
-146,-82,63,114,-104,-9,82,112,58,-29,-63,-78
-141,-82,58,112,-100,-12,82,117,58,-29,-63,-78
-131,-78,53,104,-92,-12,87,117,68,-24,-63,-78
-126,-68,58,97,-92,-4,92,122,73,-19,-58,-73
-141,-58,82,100,-112,12,82,112,68,-29,-53,-82
-141,-58,82,100,-112,12,87,122,63,-19,-53,-78
-126,-58,68,92,-97,4,87,122,58,-19,-53,-73
-136,-63,73,100,-104,4,82,117,53,-19,-53,-73
-146,-63,82,104,-114,9,92,126,58,-14,-43,-68
-131,-63,68,97,-100,2,92,126,58,-14,-43,-68
-122,-63,58,92,-90,-2,92,126,58,-14,-43,-68
-117,-63,53,90,-85,-4,92,126,58,-14,-43,-68
-151,-78,73,114,-112,-2,82,117,43,-29,-53,-73
-161,-82,78,122,-119,-2,82,117,39,-29,-53,-78
-170,-97,73,134,-122,-12,82,117,34,-24,-53,-82
-165,-92,73,129,-119,-9,82,122,29,-19,-53,-87
-161,-92,68,126,-114,-12,78,131,19,-19,-53,-78
-161,-97,63,129,-112,-17,78,126,24,-19,-53,-82
-156,-97,58,126,-107,-19,82,126,29,-19,-53,-82
-156,-102,53,129,-104,-24,82,126,29,-19,-53,-82
-165,-97,68,131,-117,-14,82,126,43,-19,-58,-82
-156,-87,68,122,-112,-9,92,126,43,-14,-53,-73
-156,-82,73,119,-114,-4,92,126,43,-14,-53,-73
-161,-73,87,117,-124,7,92,126,34,-9,-53,-73
-156,-73,82,114,-119,4,97,126,34,-19,-58,-73
-136,-73,63,104,-100,-4,97,126,34,-19,-58,-73
-131,-73,58,102,-95,-7,97,126,34,-24,-58,-73
-131,-73,58,102,-95,-7,92,126,39,-24,-63,-73
-146,-73,73,109,-109,0,92,136,34,-14,-53,-73
-161,-73,87,117,-124,7,97,136,39,-14,-53,-73
-141,-68,73,104,-107,2,102,141,48,-14,-48,-63
-141,-68,73,104,-107,2,102,141,53,-14,-48,-63
-146,-63,82,104,-114,9,112,141,53,-14,-48,-73
-146,-63,82,104,-114,9,117,141,58,-4,-48,-68
-126,-48,78,87,-102,14,117,146,58,-4,-48,-68
