I, II, III, aVR, aVL, aVF, V1, V2, V3, V4, V5, V6, 
-78, 9, 87, 34, -82, 48, 0, -58, -87, -107, -87, -29, 
-73, 9, 82, 31, -78, 46, 0, -63, -87, -107, -87, -34, 
-68, 9, 78, 29, -73, 43, 0, -68, -87, -107, -87, -39, 
-68, 4, 73, 31, -70, 39, 0, -68, -87, -107, -87, -39, 
-68, 0, 68, 34, -68, 34, 0, -68, -87, -107, -87, -39, 
-68, 0, 68, 34, -68, 34, -4, -73, -92, -107, -87, -39, 
-68, 0, 68, 34, -68, 34, -9, -78, -97, -107, -87, -39, 
-68, 0, 68, 34, -68, 34, -9, -78, -97, -107, -97, -39, 
-68, 0, 68, 34, -68, 34, -9, -78, -97, -107, -107, -39, 
-68, -4, 63, 36, -65, 29, -9, -78, -92, -102, -97, -39, 
-68, -9, 58, 39, -63, 24, -9, -78, -87, -97, -87, -39, 
-68, -9, 58, 39, -63, 24, -9, -78, -87, -97, -87, -39, 
-68, -9, 58, 39, -63, 24, -9, -78, -87, -97, -87, -39, 
-68, -9, 58, 39, -63, 24, -9, -78, -92, -97, -92, -43, 
-68, -9, 58, 39, -63, 24, -9, -78, -97, -97, -97, -48, 
-68, -9, 58, 39, -63, 24, -9, -82, -102, -112, -102, -48, 
-68, -9, 58, 39, -63, 24, -9, -87, -107, -126, -107, -48, 
-68, -9, 58, 39, -63, 24, -9, -87, -107, -126, -107, -48, 
-68, -9, 58, 39, -63, 24, -9, -87, -107, -126, -107, -48, 
-68, -9, 58, 39, -63, 24, -9, -87, -107, -122, -107, -48, 
-68, -9, 58, 39, -63, 24, -9, -87, -107, -117, -107, -48, 
-68, -9, 58, 39, -63, 24, -14, -87, -107, -117, -107, -53, 
-68, -9, 58, 39, -63, 24, -19, -87, -107, -117, -107, -58, 
-68, -9, 58, 39, -63, 24, -19, -87, -102, -117, -107, -58, 
-68, -9, 58, 39, -63, 24, -19, -87, -97, -117, -107, -58, 
-68, -9, 58, 39, -63, 24, -19, -87, -97, -117, -107, -58, 
-68, -9, 58, 39, -63, 24, -19, -87, -97, -117, -107, -58, 
-68, -9, 58, 39, -63, 24, -19, -87, -97, -117, -107, -58, 
-68, -9, 58, 39, -63, 24, -19, -87, -97, -117, -107, -58, 
-68, -9, 58, 39, -63, 24, -14, -82, -97, -117, -107, -58, 
-68, -9, 58, 39, -63, 24, -9, -78, -97, -117, -107, -58, 
-63, -4, 58, 34, -61, 26, -9, -78, -97, -117, -107, -58, 
-58, 0, 58, 29, -58, 29, -9, -78, -97, -117, -107, -58, 
-53, 0, 53, 26, -53, 26, 0, -73, -92, -107, -102, -58, 
-43, 0, 43, 21, -43, 21, 4, -63, -87, -102, -97, -53, 
-34, 0, 34, 17, -34, 17, 9, -58, -82, -97, -97, -53, 
-9, 9, 19, 0, -14, 14, 0, -48, -78, -97, -92, -48, 
24, 24, 0, -24, 12, 12, 4, -39, -68, -92, -87, -43, 
43, 48, 4, -46, 19, 26, 9, -29, -63, -82, -82, -34, 
43, 68, 24, -56, 9, 46, 9, -24, -53, -73, -73, -29, 
53, 92, 39, -73, 7, 65, 9, -19, -39, -63, -63, -14, 
63, 117, 53, -90, 4, 85, 4, 0, -14, -39, -39, 4, 
87, 156, 68, -122, 9, 112, -39, 0, 4, -19, -14, 34, 
112, 200, 87, -156, 12, 143, -126, -63, -29, -19, -9, 53, 
141, 209, 68, -175, 36, 139, -185, -107, -43, -19, 0, 58, 
165, 200, 34, -183, 65, 117, -200, -92, -48, -29, 0, 63, 
175, 200, 24, -187, 75, 112, -209, -78, -48, -34, 9, 63, 
175, 200, 24, -187, 75, 112, -185, -53, -29, -14, 24, 78, 
180, 195, 14, -187, 82, 104, -161, -43, -14, 9, 34, 92, 
185, 195, 9, -190, 87, 102, -131, -19, 4, 19, 48, 107, 
185, 180, -4, -183, 95, 87, -102, -9, 9, 19, 53, 117, 
156, 141, -14, -148, 85, 63, -92, -9, -4, 0, 34, 87, 
107, 97, -9, -102, 58, 43, -73, -29, -29, -29, 4, 58, 
9, 48, 39, -29, -14, 43, -48, -63, -58, -58, -43, 4, 
-48, 14, 63, 17, -56, 39, -34, -92, -107, -97, -92, -48, 
-53, -4, 48, 29, -51, 21, -39, -92, -107, -107, -117, -68, 
-58, -4, 53, 31, -56, 24, -34, -92, -107, -112, -122, -73, 
-63, -9, 53, 36, -58, 21, -34, -87, -102, -117, -122, -73, 
-68, -14, 53, 41, -61, 19, -29, -82, -97, -117, -117, -68, 
-73, -29, 43, 51, -58, 7, -24, -82, -97, -117, -117, -68, 
-82, -39, 43, 61, -63, 2, -14, -82, -107, -117, -117, -68, 
-87, -39, 48, 63, -68, 4, -14, -82, -102, -117, -122, -78, 
-87, -39, 48, 63, -68, 4, -14, -87, -97, -117, -126, -78, 
-92, -43, 48, 68, -70, 2, -14, -87, -97, -122, -126, -78, 
-92, -48, 43, 70, -68, -2, -14, -82, -97, -117, -122, -82, 
-92, -48, 43, 70, -68, -2, -14, -82, -102, -117, -122, -82, 
-92, -48, 43, 70, -68, -2, -14, -82, -107, -117, -122, -82, 
-92, -48, 43, 70, -68, -2, -14, -78, -107, -117, -126, -87, 
-97, -48, 48, 73, -73, 0, -9, -73, -107, -117, -126, -87, 
-102, -53, 48, 78, -75, -2, -4, -73, -102, -107, -117, -87, 
-102, -53, 48, 78, -75, -2, -4, -68, -97, -97, -112, -87, 
-97, -53, 43, 75, -70, -4, -4, -78, -92, -92, -107, -82, 
-92, -53, 39, 73, -65, -7, -4, -82, -87, -92, -102, -78, 
-112, -63, 48, 87, -80, -7, 4, -78, -92, -102, -136, -107, 
-214, -141, 73, 178, -143, -34, 126, 97, -102, -234, -297, -253, 
-409, -278, 131, 344, -270, -73, 356, 380, -146, -458, -605, -522, 
-688, -424, 263, 556, -475, -80, 717, 829, -156, -766, -1005, -873, 
-946, -541, 405, 744, -675, -68, 1234, 1810, -4, -1078, -1449, -1268, 
-1137, -644, 492, 890, -814, -75, 1708, 2957, 248, -1278, -1795, -1600, 
-1171, -712, 458, 941, -814, -126, 1956, 4157, 810, -1288, -1922, -1756, 
-1102, -663, 439, 883, -771, -112, 1800, 3455, 805, -1102, -1756, -1659, 
-1073, -600, 473, 836, -773, -63, 1171, -575, -683, -995, -1405, -1293, 
-849, -902, -53, 875, -397, -478, 448, -3947, -2547, -1400, -1293, -1029, 
-522, -1620, -1098, 1071, 287, -1359, -263, -5407, -4030, -2522, -1595, -961, 
-546, -2420, -1873, 1483, 663, -2147, -610, -6002, -5450, -4104, -2400, -1224, 
-766, -2825, -2059, 1795, 646, -2442, -727, -5685, -5797, -4836, -3074, -1615, 
-780, -2664, -1883, 1722, 551, -2274, -878, -4919, -4958, -4255, -2967, -1629, 
-653, -2132, -1478, 1393, 412, -1805, -936, -3796, -3791, -3240, -2298, -1273, 
-517, -1561, -1044, 1039, 263, -1302, -790, -2640, -2566, -2186, -1551, -873, 
-351, -1098, -746, 724, 197, -922, -570, -1673, -1566, -1327, -956, -546, 
-185, -751, -566, 468, 190, -658, -375, -1000, -912, -771, -556, -326, 
-73, -434, -361, 253, 143, -397, -244, -551, -463, -366, -263, -161, 
-19, -180, -161, 100, 70, -170, -141, -253, -156, -78, -53, -24, 
4, -43, -48, 19, 26, -46, -29, -73, 24, 34, 48, 48, 
9, -4, -14, -2, 12, -9, 4, -14, 78, 87, 78, 63, 
0, 29, 29, -14, -14, 29, 4, -4, 78, 107, 82, 58, 
-9, 39, 48, -14, -29, 43, 4, 29, 87, 112, 82, 53, 
-9, 39, 48, -14, -29, 43, 24, 48, 117, 112, 82, 53, 
-4, 39, 43, -17, -24, 41, 43, 63, 131, 122, 87, 53, 
-4, 48, 53, -21, -29, 51, 43, 68, 141, 136, 102, 53, 
-9, 58, 68, -24, -39, 63, 48, 78, 141, 146, 107, 53, 
-14, 58, 73, -21, -43, 65, 48, 87, 156, 156, 107, 58, 
-19, 58, 78, -19, -48, 68, 58, 92, 165, 161, 112, 63, 
-14, 58, 73, -21, -43, 65, 58, 92, 165, 170, 122, 68, 
-14, 58, 73, -21, -43, 65, 58, 102, 170, 180, 126, 68, 
-14, 68, 82, -26, -48, 75, 63, 102, 180, 190, 122, 63, 
-14, 73, 87, -29, -51, 80, 68, 112, 180, 195, 122, 63, 
-9, 73, 82, -31, -46, 78, 68, 112, 185, 200, 136, 63, 
-9, 73, 82, -31, -46, 78, 68, 117, 190, 200, 136, 58, 
-9, 73, 82, -31, -46, 78, 63, 122, 195, 204, 146, 63, 
-9, 68, 78, -29, -43, 73, 58, 126, 200, 204, 151, 63, 
-4, 68, 73, -31, -39, 70, 58, 126, 204, 209, 146, 63, 
-4, 68, 73, -31, -39, 70, 58, 131, 209, 209, 141, 63, 
-4, 68, 73, -31, -39, 70, 63, 131, 214, 204, 141, 63, 
-4, 68, 73, -31, -39, 70, 68, 136, 214, 200, 141, 63, 
0, 73, 73, -36, -36, 73, 68, 136, 219, 204, 146, 68, 
0, 78, 78, -39, -39, 78, 68, 141, 224, 209, 156, 73, 
0, 78, 78, -39, -39, 78, 68, 146, 219, 209, 161, 73, 
4, 78, 73, -41, -34, 75, 68, 146, 229, 214, 161, 78, 
4, 78, 73, -41, -34, 75, 68, 146, 229, 209, 161, 73, 
9, 82, 73, -46, -31, 78, 68, 141, 234, 209, 156, 73, 
14, 82, 68, -48, -26, 75, 68, 151, 239, 209, 161, 73, 
14, 82, 68, -48, -26, 75, 68, 156, 244, 214, 161, 78, 
14, 87, 73, -51, -29, 80, 63, 161, 248, 219, 165, 78, 
19, 92, 73, -56, -26, 82, 63, 161, 253, 224, 170, 82, 
24, 87, 63, -56, -19, 75, 63, 170, 263, 229, 180, 87, 
24, 87, 63, -56, -19, 75, 58, 175, 268, 229, 195, 87, 
29, 87, 58, -58, -14, 73, 58, 180, 278, 239, 200, 92, 
34, 97, 63, -65, -14, 80, 53, 185, 283, 248, 204, 97, 
34, 102, 68, -68, -17, 85, 48, 185, 287, 253, 209, 102, 
34, 102, 68, -68, -17, 85, 43, 190, 297, 268, 214, 102, 
39, 102, 63, -70, -12, 82, 39, 195, 307, 278, 214, 107, 
48, 107, 58, -78, -4, 82, 34, 200, 317, 297, 234, 112, 
53, 117, 63, -85, -4, 90, 29, 209, 326, 302, 244, 126, 
63, 122, 58, -92, 2, 90, 24, 214, 336, 307, 248, 126, 
73, 126, 53, -100, 9, 90, 24, 229, 346, 317, 258, 136, 
73, 131, 58, -102, 7, 95, 14, 234, 356, 336, 263, 146, 
87, 136, 48, -112, 19, 92, 14, 244, 370, 351, 273, 151, 
92, 136, 43, -114, 24, 90, 4, 253, 380, 366, 287, 161, 
102, 146, 43, -124, 29, 95, 0, 263, 395, 375, 297, 170, 
112, 151, 39, -131, 36, 95, -4, 273, 409, 390, 307, 175, 
117, 161, 43, -139, 36, 102, -4, 283, 424, 409, 317, 185, 
126, 165, 39, -146, 43, 102, -19, 297, 444, 419, 336, 195, 
131, 170, 39, -151, 46, 104, -19, 312, 458, 448, 351, 209, 
141, 180, 39, -161, 51, 109, -29, 326, 473, 463, 370, 219, 
151, 190, 39, -170, 56, 114, -34, 341, 492, 483, 375, 234, 
170, 195, 24, -183, 73, 109, -43, 361, 517, 502, 395, 244, 
185, 209, 24, -197, 80, 117, -53, 380, 536, 522, 414, 253, 
200, 229, 29, -214, 85, 129, -63, 400, 561, 546, 439, 268, 
214, 234, 19, -224, 97, 126, -73, 414, 590, 570, 453, 287, 
234, 248, 14, -241, 109, 131, -92, 434, 619, 585, 483, 307, 
263, 253, -9, -258, 136, 122, -107, 453, 649, 619, 507, 326, 
283, 268, -14, -275, 148, 126, -122, 478, 683, 644, 536, 346, 
317, 283, -34, -300, 175, 124, -136, 502, 717, 688, 570, 375, 
341, 302, -39, -322, 190, 131, -161, 527, 746, 717, 605, 405, 
380, 312, -68, -346, 224, 122, -190, 546, 780, 751, 644, 424, 
414, 336, -78, -375, 246, 129, -219, 566, 814, 795, 678, 448, 
448, 351, -97, -400, 273, 126, -244, 580, 849, 834, 712, 478, 
478, 370, -107, -424, 292, 131, -268, 595, 883, 873, 746, 512, 
507, 385, -122, -446, 314, 131, -283, 610, 912, 912, 785, 536, 
536, 395, -141, -466, 339, 126, -302, 634, 941, 956, 819, 570, 
566, 419, -146, -492, 356, 136, -326, 649, 966, 1005, 868, 605, 
600, 439, -161, -519, 380, 139, -351, 658, 990, 1039, 907, 629, 
624, 458, -165, -541, 395, 146, -375, 663, 1019, 1073, 932, 658, 
649, 473, -175, -561, 412, 148, -395, 663, 1024, 1098, 966, 678, 
668, 478, -190, -573, 429, 143, -409, 668, 1024, 1117, 990, 697, 
678, 488, -190, -583, 434, 148, -419, 658, 1010, 1132, 1005, 707, 
673, 492, -180, -583, 427, 156, -419, 634, 971, 1107, 985, 702, 
649, 483, -165, -566, 407, 158, -409, 600, 927, 1063, 936, 683, 
610, 473, -136, -541, 373, 168, -395, 575, 873, 995, 902, 649, 
566, 444, -122, -505, 344, 161, -375, 536, 805, 932, 849, 600, 
512, 419, -92, -466, 302, 163, -356, 492, 732, 849, 771, 546, 
458, 390, -68, -424, 263, 161, -322, 448, 658, 756, 688, 488, 
400, 346, -53, -373, 226, 146, -287, 409, 585, 663, 605, 424, 
341, 302, -39, -322, 190, 131, -253, 366, 502, 580, 531, 361, 
283, 263, -19, -273, 151, 122, -214, 312, 414, 492, 444, 302, 
229, 229, 0, -229, 114, 114, -170, 263, 336, 400, 370, 244, 
165, 185, 19, -175, 73, 102, -136, 224, 273, 312, 287, 190, 
122, 146, 24, -134, 48, 85, -102, 195, 219, 244, 224, 146, 
87, 112, 24, -100, 31, 68, -73, 151, 161, 185, 175, 107, 
58, 82, 24, -70, 17, 53, -48, 117, 112, 126, 126, 63, 
19, 58, 39, -39, -9, 48, -19, 92, 68, 78, 78, 34, 
-9, 39, 48, -14, -29, 43, 0, 73, 39, 43, 48, 4, 
-19, 24, 43, -2, -31, 34, 9, 53, 9, 24, 24, -9, 
-39, 4, 43, 17, -41, 24, 24, 29, -14, 0, 0, -24, 
-48, 0, 48, 24, -48, 24, 34, 14, -34, -29, -29, -48, 
-63, -9, 53, 36, -58, 21, 53, 9, -48, -43, -43, -58, 
-73, -14, 58, 43, -65, 21, 58, 0, -58, -48, -48, -63, 
-78, -19, 58, 48, -68, 19, 63, -4, -63, -58, -53, -63, 
-78, -24, 53, 51, -65, 14, 63, -4, -73, -63, -68, -78, 
-82, -24, 58, 53, -70, 17, 68, -4, -78, -63, -73, -82, 
-87, -24, 63, 56, -75, 19, 73, -9, -73, -68, -73, -78, 
-87, -29, 58, 58, -73, 14, 78, -9, -78, -73, -78, -78, 
-92, -29, 63, 61, -78, 17, 78, -14, -82, -68, -73, -78, 
-92, -24, 68, 58, -80, 21, 78, -14, -82, -68, -73, -73, 
-92, -24, 68, 58, -80, 21, 73, -19, -82, -73, -73, -73, 
-92, -24, 68, 58, -80, 21, 68, -19, -82, -73, -73, -73, 
-92, -24, 68, 58, -80, 21, 68, -19, -82, -73, -68, -73, 
-92, -24, 68, 58, -80, 21, 68, -24, -82, -73, -68, -73, 
-92, -19, 73, 56, -82, 26, 68, -24, -82, -73, -68, -68, 
-92, -19, 73, 56, -82, 26, 68, -29, -82, -73, -68, -68, 
-92, -14, 78, 53, -85, 31, 68, -34, -82, -73, -68, -68, 
-92, -14, 78, 53, -85, 31, 68, -39, -82, -73, -63, -63, 
-92, -9, 82, 51, -87, 36, 68, -43, -82, -63, -63, -63, 
-92, -9, 82, 51, -87, 36, 63, -43, -78, -53, -53, -53, 
-92, -9, 82, 51, -87, 36, 58, -43, -73, -53, -48, -48, 
-87, -4, 82, 46, -85, 39, 48, -48, -73, -53, -48, -48, 
-82, -4, 78, 43, -80, 36, 48, -48, -68, -48, -43, -48, 
-78, -4, 73, 41, -75, 34, 48, -48, -63, -43, -39, -43, 
-78, -4, 73, 41, -75, 34, 43, -48, -63, -34, -29, -39, 
-78, -4, 73, 41, -75, 34, 43, -53, -58, -34, -29, -39, 
-73, 0, 73, 36, -73, 36, 39, -53, -53, -29, -29, -39, 
-73, 0, 73, 36, -73, 36, 39, -53, -53, -29, -29, -39, 
-73, 0, 73, 36, -73, 36, 34, -53, -53, -29, -29, -39, 
-73, 0, 73, 36, -73, 36, 34, -58, -53, -24, -29, -39, 
-68, 0, 68, 34, -68, 34, 24, -58, -58, -29, -29, -34, 
-68, 0, 68, 34, -68, 34, 19, -58, -58, -29, -34, -29, 
-68, -4, 63, 36, -65, 29, 19, -58, -58, -24, -34, -29, 
-68, -4, 63, 36, -65, 29, 14, -63, -58, -24, -34, -29, 
-63, -4, 58, 34, -61, 26, 14, -63, -63, -29, -34, -29, 
-63, -4, 58, 34, -61, 26, 9, -63, -63, -34, -34, -29, 
-63, -4, 58, 34, -61, 26, 9, -63, -68, -34, -34, -34, 
-63, -4, 58, 34, -61, 26, 9, -68, -73, -34, -39, -34, 
-63, -9, 53, 36, -58, 21, 9, -68, -73, -34, -43, -39, 
-63, -9, 53, 36, -58, 21, 9, -68, -73, -39, -48, -39, 
-63, -14, 48, 39, -56, 17, 9, -68, -73, -39, -48, -39, 
-63, -14, 48, 39, -56, 17, 9, -68, -73, -39, -48, -43, 
-68, -19, 48, 43, -58, 14, 14, -68, -78, -39, -48, -43, 
-68, -24, 43, 46, -56, 9, 19, -73, -78, -39, -48, -43, 
-68, -24, 43, 46, -56, 9, 14, -73, -82, -43, -53, -48, 
-73, -24, 48, 48, -61, 12, 14, -78, -78, -43, -53, -48, 
-73, -19, 53, 46, -63, 17, 9, -78, -78, -48, -58, -48, 
-73, -19, 53, 46, -63, 17, 4, -78, -78, -53, -68, -53, 
-68, -19, 48, 43, -58, 14, 4, -73, -78, -53, -63, -48, 
-68, -19, 48, 43, -58, 14, 9, -68, -78, -58, -58, -48, 
-63, -14, 48, 39, -56, 17, 19, -63, -73, -53, -58, -48, 
-58, -9, 48, 34, -53, 19, 29, -58, -68, -48, -58, -48, 
-48, 0, 48, 24, -48, 24, 39, -48, -68, -48, -58, -48, 
-29, 9, 39, 9, -34, 24, 39, -39, -63, -48, -53, -43, 
-9, 19, 29, -4, -19, 24, 39, -29, -58, -53, -53, -39, 
14, 34, 19, -24, -2, 26, 39, -19, -43, -48, -43, -34, 
24, 53, 29, -39, -2, 41, 48, -9, -34, -34, -29, -24, 
24, 68, 43, -46, -9, 56, 58, -4, -24, -24, -14, -19, 
29, 92, 63, -61, -17, 78, 68, 0, -9, -14, -4, -4, 
34, 117, 82, -75, -24, 100, 58, 0, -4, 0, 9, 9, 
58, 156, 97, -107, -19, 126, -19, -19, -4, 4, 19, 29, 
82, 190, 107, -136, -12, 148, -112, -68, -29, 0, 19, 43, 
122, 190, 68, -156, 26, 129, -170, -102, -39, 0, 29, 48, 
151, 180, 29, -165, 61, 104, -185, -92, -43, 0, 29, 58, 
156, 180, 24, -168, 65, 102, -180, -78, -39, 4, 39, 68, 
156, 180, 24, -168, 65, 102, -156, -53, -19, 14, 53, 87, 
170, 180, 9, -175, 80, 95, -131, -43, -4, 29, 68, 107, 
180, 185, 4, -183, 87, 95, -117, -24, 9, 39, 82, 117, 
180, 190, 9, -185, 85, 100, -102, -9, 24, 53, 92, 131, 
156, 170, 14, -163, 70, 92, -92, 0, 24, 48, 82, 117, 
107, 117, 9, -112, 48, 63, -73, -19, 0, 19, 53, 87, 
19, 58, 39, -39, -9, 48, -48, -48, -24, -9, 14, 43, 
-48, 9, 58, 19, -53, 34, -34, -82, -87, -58, -39, -14, 
-73, -24, 48, 48, -61, 12, -34, -92, -107, -78, -78, -48, 
-78, -24, 53, 51, -65, 14, -19, -92, -107, -82, -82, -53, 
-82, -29, 53, 56, -68, 12, -14, -92, -107, -87, -87, -58, 
-87, -34, 53, 61, -70, 9, -9, -92, -107, -92, -87, -58, 
-87, -43, 43, 65, -65, 0, -9, -92, -107, -97, -87, -58, 
-92, -48, 43, 70, -68, -2, -9, -92, -117, -97, -87, -58, 
-97, -48, 48, 73, -73, 0, -14, -92, -117, -97, -92, -68, 
-97, -48, 48, 73, -73, 0, -14, -97, -117, -97, -97, -73, 
-102, -53, 48, 78, -75, -2, -14, -97, -117, -107, -102, -78, 
-102, -63, 39, 82, -70, -12, -14, -92, -117, -107, -102, -82, 
-102, -68, 34, 85, -68, -17, -14, -92, -117, -107, -102, -82, 
-102, -68, 34, 85, -68, -17, -14, -97, -117, -107, -102, -78, 
-102, -68, 34, 85, -68, -17, -14, -102, -117, -107, -107, -78, 
-107, -63, 43, 85, -75, -9, -9, -102, -117, -107, -107, -78, 
-112, -63, 48, 87, -80, -7, -4, -102, -117, -107, -102, -78, 
-112, -63, 48, 87, -80, -7, -4, -97, -117, -107, -102, -78, 
-112, -63, 48, 87, -80, -7, -4, -97, -112, -102, -102, -78, 
-102, -53, 48, 78, -75, -2, -14, -112, -112, -82, -78, -63, 
-112, -68, 43, 90, -78, -12, 4, -92, -117, -102, -107, -87, 
-200, -161, 39, 180, -119, -61, 131, 82, -126, -244, -263, -219, 
-356, -297, 58, 326, -207, -119, 370, 405, -156, -483, -561, -463, 
-644, -444, 200, 544, -422, -122, 785, 883, -175, -824, -976, -814, 
-907, -556, 351, 732, -629, -102, 1307, 1820, 19, -1112, -1390, -1185, 
-1093, -663, 429, 878, -761, -117, 1825, 3181, 424, -1307, -1747, -1532, 
-1141, -732, 409, 936, -775, -161, 2039, 4211, 834, -1312, -1869, -1683, 
-1024, -653, 370, 839, -697, -141, 1727, 3220, 761, -1049, -1649, -1542, 
-922, -600, 322, 761, -622, -139, 995, -366, -605, -819, -1239, -1161, 
-566, -917, -351, 741, -107, -634, 97, -3669, -2610, -1073, -995, -834, 
-131, -1561, -1429, 846, 649, -1495, -702, -5289, -3982, -2044, -1176, -707, 
-165, -2361, -2196, 1263, 1015, -2278, -1029, -5890, -5416, -3762, -2020, -985, 
-390, -2771, -2381, 1581, 995, -2576, -1137, -5743, -5958, -4714, -2747, -1361, 
-424, -2571, -2147, 1498, 861, -2359, -1229, -5006, -5099, -4201, -2688, -1371, 
-390, -2078, -1688, 1234, 649, -1883, -1215, -3943, -3977, -3284, -2171, -1102, 
-366, -1507, -1141, 936, 387, -1324, -961, -2776, -2708, -2230, -1488, -766, 
-302, -1034, -732, 668, 214, -883, -649, -1722, -1634, -1346, -917, -483, 
-185, -692, -507, 439, 161, -600, -395, -976, -932, -771, -536, -287, 
-92, -385, -292, 239, 100, -339, -234, -497, -444, -346, -244, -126, 
-58, -141, -82, 100, 12, -112, -131, -234, -131, -63, -43, 0, 
-39, -9, 29, 24, -34, 9, -29, -63, 39, 43, 48, 63, 
-39, 14, 53, 12, -46, 34, 0, -24, 73, 78, 58, 63, 
-48, 43, 92, 2, -70, 68, 4, -14, 78, 97, 63, 58, 
-58, 48, 107, 4, -82, 78, 4, 24, 87, 102, 63, 53, 
-58, 48, 107, 4, -82, 78, 24, 48, 112, 102, 63, 53, 
-53, 48, 102, 2, -78, 75, 43, 63, 122, 107, 68, 53, 
-53, 58, 112, -2, -82, 85, 43, 68, 131, 112, 78, 53, 
-58, 68, 126, -4, -92, 97, 48, 78, 131, 117, 78, 53, 
-58, 68, 126, -4, -92, 97, 48, 87, 141, 122, 78, 53, 
-58, 68, 126, -4, -92, 97, 58, 92, 146, 122, 82, 53, 
-53, 68, 122, -7, -87, 95, 58, 92, 146, 126, 87, 58, 
-53, 68, 122, -7, -87, 95, 58, 102, 151, 131, 87, 58, 
-53, 73, 126, -9, -90, 100, 63, 102, 161, 136, 82, 53, 
-53, 73, 126, -9, -90, 100, 68, 112, 161, 136, 78, 53, 
-48, 73, 122, -12, -85, 97, 68, 112, 165, 141, 87, 58, 
-48, 73, 122, -12, -85, 97, 68, 117, 170, 141, 87, 58, 
-48, 78, 126, -14, -87, 102, 68, 122, 175, 146, 92, 63, 
-48, 78, 126, -14, -87, 102, 68, 126, 175, 146, 92, 63, 
-43, 78, 122, -17, -82, 100, 68, 126, 175, 151, 87, 63, 
-43, 78, 122, -17, -82, 100, 68, 131, 180, 156, 87, 68, 
-43, 78, 122, -17, -82, 100, 68, 131, 185, 161, 92, 73, 
-43, 78, 122, -17, -82, 100, 68, 141, 185, 161, 92, 73, 
-39, 82, 122, -21, -80, 102, 68, 146, 190, 165, 97, 73, 
-39, 87, 126, -24, -82, 107, 68, 151, 195, 170, 102, 73, 
-39, 87, 126, -24, -82, 107, 68, 156, 195, 170, 102, 73, 
-34, 87, 122, -26, -78, 104, 68, 156, 214, 175, 102, 78, 
-34, 87, 122, -26, -78, 104, 63, 161, 219, 175, 107, 78, 
-29, 92, 122, -31, -75, 107, 58, 161, 224, 180, 107, 82, 
-24, 92, 117, -34, -70, 104, 58, 170, 229, 180, 112, 82, 
-24, 92, 117, -34, -70, 104, 58, 175, 234, 185, 112, 87, 
-24, 97, 122, -36, -73, 109, 53, 180, 239, 190, 117, 87, 
-19, 102, 122, -41, -70, 112, 53, 180, 244, 195, 117, 92, 
-14, 102, 117, -43, -65, 109, 53, 190, 253, 200, 117, 97, 
-14, 107, 122, -46, -68, 114, 48, 195, 258, 200, 126, 97, 
-9, 107, 117, -48, -63, 112, 48, 200, 268, 209, 131, 102, 
-4, 117, 122, -56, -63, 119, 43, 209, 273, 219, 141, 107, 
0, 122, 122, -61, -61, 122, 39, 219, 278, 219, 146, 112, 
4, 126, 122, -65, -58, 124, 34, 229, 287, 229, 146, 112, 
9, 131, 122, -70, -56, 126, 29, 234, 297, 239, 146, 117, 
19, 136, 117, -78, -48, 126, 24, 239, 307, 258, 165, 122, 
19, 146, 126, -82, -53, 136, 19, 248, 317, 268, 175, 136, 
24, 151, 126, -87, -51, 139, 14, 253, 326, 273, 180, 136, 
34, 156, 122, -95, -43, 139, 14, 268, 336, 278, 195, 146, 
34, 161, 126, -97, -46, 143, 4, 273, 346, 297, 200, 156, 
48, 170, 122, -109, -36, 146, 4, 283, 366, 312, 204, 161, 
53, 175, 122, -114, -34, 148, -4, 292, 380, 326, 219, 170, 
63, 185, 122, -124, -29, 153, -9, 302, 395, 336, 229, 180, 
78, 190, 112, -134, -17, 151, -14, 317, 409, 351, 239, 185, 
87, 200, 112, -143, -12, 156, -14, 331, 424, 370, 248, 195, 
97, 209, 112, -153, -7, 161, -29, 346, 444, 380, 268, 204, 
107, 219, 112, -163, -2, 165, -29, 361, 463, 409, 283, 219, 
122, 229, 107, -175, 7, 168, -39, 375, 483, 424, 302, 229, 
131, 239, 107, -185, 12, 173, -43, 390, 502, 444, 312, 244, 
146, 244, 97, -195, 24, 170, -53, 409, 527, 463, 336, 253, 
156, 253, 97, -204, 29, 175, -63, 429, 551, 488, 356, 268, 
170, 273, 102, -222, 34, 187, -68, 453, 580, 517, 380, 287, 
190, 283, 92, -236, 48, 187, -73, 478, 610, 546, 400, 307, 
214, 297, 82, -256, 65, 190, -92, 507, 639, 566, 434, 326, 
244, 307, 63, -275, 90, 185, -107, 531, 668, 605, 458, 346, 
263, 326, 63, -295, 100, 195, -122, 556, 702, 634, 488, 366, 
297, 341, 43, -319, 126, 192, -136, 580, 741, 678, 522, 395, 
322, 361, 39, -341, 141, 200, -161, 605, 775, 702, 556, 419, 
356, 370, 14, -363, 170, 192, -185, 624, 810, 736, 600, 439, 
385, 395, 9, -390, 187, 202, -204, 653, 849, 785, 639, 468, 
419, 409, -9, -414, 214, 200, -224, 678, 888, 824, 673, 497, 
453, 434, -19, -444, 236, 207, -248, 692, 922, 863, 707, 531, 
488, 453, -34, -470, 261, 209, -263, 707, 951, 902, 751, 556, 
517, 463, -53, -490, 285, 204, -278, 732, 980, 946, 785, 590, 
546, 488, -58, -517, 302, 214, -297, 741, 1005, 995, 829, 624, 
580, 507, -73, -544, 326, 217, -322, 746, 1029, 1024, 868, 649, 
600, 527, -73, -563, 336, 226, -341, 751, 1054, 1049, 893, 678, 
624, 541, -82, -583, 353, 229, -361, 751, 1054, 1068, 927, 697, 
639, 541, -97, -590, 368, 222, -375, 751, 1044, 1073, 936, 707, 
639, 546, -92, -592, 366, 226, -380, 727, 1019, 1073, 936, 712, 
629, 546, -82, -588, 356, 231, -380, 692, 971, 1034, 907, 702, 
600, 527, -73, -563, 336, 226, -375, 649, 912, 976, 849, 673, 
561, 507, -53, -534, 307, 226, -366, 610, 849, 902, 805, 634, 
522, 473, -48, -497, 285, 212, -351, 561, 775, 834, 741, 580, 
473, 444, -29, -458, 251, 207, -336, 507, 692, 751, 663, 527, 
419, 400, -19, -409, 219, 190, -312, 444, 610, 658, 580, 468, 
361, 346, -14, -353, 187, 165, -287, 385, 536, 566, 497, 405, 
302, 302, 0, -302, 151, 151, -258, 336, 453, 488, 424, 341, 
248, 263, 14, -256, 117, 139, -229, 283, 366, 405, 336, 283, 
200, 224, 24, -212, 87, 124, -190, 229, 287, 312, 268, 224, 
146, 180, 34, -163, 56, 107, -161, 185, 224, 234, 200, 170, 
112, 146, 34, -129, 39, 90, -126, 156, 170, 180, 146, 131, 
78, 112, 34, -95, 21, 73, -97, 117, 112, 131, 97, 102, 
48, 82, 34, -65, 7, 58, -78, 87, 68, 82, 48, 63, 
19, 58, 39, -39, -9, 48, -58, 63, 34, 43, 9, 39, 
0, 39, 39, -19, -19, 39, -48, 43, 9, 14, -4, 19, 
-9, 29, 39, -9, -24, 34, -39, 29, -19, -4, -24, 9, 
-34, 14, 48, 9, -41, 31, -24, 9, -43, -29, -48, -4, 
-48, 9, 58, 19, -53, 34, -14, -4, -58, -53, -68, -24, 
-63, 0, 63, 31, -63, 31, 0, -9, -68, -63, -73, -29, 
-68, -4, 63, 36, -65, 29, 0, -19, -78, -68, -78, -34, 
-68, -9, 58, 39, -63, 24, 4, -24, -82, -82, -82, -34, 
-68, -14, 53, 41, -61, 19, 4, -24, -92, -92, -92, -43, 
-68, -9, 58, 39, -63, 24, 9, -24, -97, -92, -92, -43, 
-68, -4, 63, 36, -65, 29, 14, -29, -97, -97, -92, -39, 
-68, -9, 58, 39, -63, 24, 19, -29, -107, -102, -97, -39, 
-73, -9, 63, 41, -68, 26, 19, -34, -112, -102, -97, -43, 
-78, -4, 73, 41, -75, 34, 19, -34, -112, -107, -102, -43, 
-82, -4, 78, 43, -80, 36, 19, -39, -112, -112, -102, -43, 
-82, -4, 78, 43, -80, 36, 14, -39, -112, -112, -107, -48, 
-82, -4, 78, 43, -80, 36, 9, -39, -112, -112, -107, -53, 
-82, -4, 78, 43, -80, 36, 9, -43, -117, -122, -112, -53, 
-82, 0, 82, 41, -82, 41, 9, -43, -122, -131, -117, -48, 
-82, 0, 82, 41, -82, 41, 9, -48, -122, -131, -117, -48, 
-82, 4, 87, 39, -85, 46, 9, -48, -122, -131, -117, -48, 
-82, 4, 87, 39, -85, 46, 9, -48, -117, -131, -112, -43, 
-82, 9, 92, 36, -87, 51, 9, -53, -112, -126, -112, -43, 
-82, 9, 92, 36, -87, 51, 4, -48, -107, -117, -102, -34, 
-82, 9, 92, 36, -87, 51, 4, -43, -102, -112, -97, -29, 
-78, 14, 92, 31, -85, 53, 0, -48, -92, -102, -87, -24, 
-78, 14, 92, 31, -85, 53, 0, -48, -78, -87, -73, -19, 
-78, 14, 92, 31, -85, 53, 0, -48, -73, -82, -68, -14, 
-78, 14, 92, 31, -85, 53, -4, -48, -73, -73, -58, -9, 
-78, 9, 87, 34, -82, 48, -4, -53, -78, -82, -68, -9, 
-73, 9, 82, 31, -78, 46, -9, -53, -82, -87, -73, -4, 
-78, 9, 87, 34, -82, 48, -4, -53, -82, -92, -68, -4, 
-82, 9, 92, 36, -87, 51, -4, -53, -82, -97, -68, -9, 
-82, 9, 92, 36, -87, 51, -4, -58, -82, -92, -68, -9, 
-78, 9, 87, 34, -82, 48, -9, -58, -82, -92, -63, -9, 
-73, 14, 87, 29, -80, 51, -14, -58, -78, -87, -63, -9, 
-68, 14, 82, 26, -75, 48, -19, -58, -78, -82, -63, -9, 
-68, 14, 82, 26, -75, 48, -24, -63, -78, -82, -63, -9, 
-63, 14, 78, 24, -70, 46, -24, -63, -82, -82, -63, -9, 
-63, 14, 78, 24, -70, 46, -29, -63, -82, -82, -63, -9, 
-63, 14, 78, 24, -70, 46, -29, -63, -82, -82, -63, -14, 
-63, 14, 78, 24, -70, 46, -29, -68, -82, -82, -68, -14, 
-63, 9, 73, 26, -68, 41, -29, -68, -82, -82, -68, -14, 
-63, 4, 68, 29, -65, 36, -29, -68, -82, -92, -68, -9, 
-63, 0, 63, 31, -63, 31, -29, -68, -82, -97, -68, -9, 
-63, 4, 68, 29, -65, 36, -29, -68, -82, -97, -68, -14, 
-63, 4, 68, 29, -65, 36, -29, -68, -87, -97, -68, -14, 
-58, 0, 58, 29, -58, 29, -34, -73, -87, -97, -73, -14, 
-53, -4, 48, 29, -51, 21, -43, -73, -92, -102, -82, -19, 
-53, -4, 48, 29, -51, 21, -43, -78, -97, -102, -82, -24, 
-53, -4, 48, 29, -51, 21, -43, -78, -97, -102, -82, -29, 
-63, -4, 58, 34, -61, 26, -43, -78, -97, -107, -87, -34, 
-73, -4, 68, 39, -70, 31, -43, -78, -102, -112, -92, -39, 
-78, 0, 78, 39, -78, 39, -43, -78, -107, -117, -92, -39, 
-78, 0, 78, 39, -78, 39, -43, -78, -112, -117, -92, -34, 
-78, -4, 73, 41, -75, 34, -39, -82, -107, -122, -102, -34, 
-82, -9, 73, 46, -78, 31, -34, -82, -107, -122, -107, -39, 
-87, -9, 78, 48, -82, 34, -43, -82, -107, -122, -112, -43, 
-68, -9, 58, 39, -63, 24, -48, -82, -107, -126, -112, -43, 
-63, -14, 48, 39, -56, 17, -48, -87, -112, -131, -107, -43, 
-63, -14, 48, 39, -56, 17, -48, -92, -112, -131, -102, -39, 
-63, -24, 39, 43, -51, 7, -43, -87, -112, -126, -102, -43, 
-63, -19, 43, 41, -53, 12, -39, -82, -107, -126, -102, -48, 
-63, -9, 53, 36, -58, 21, -39, -82, -107, -126, -97, -48, 
-63, 0, 63, 31, -63, 31, -43, -82, -107, -126, -97, -43, 
-53, 4, 58, 24, -56, 31, -53, -82, -102, -112, -92, -34, 
-53, 0, 53, 26, -53, 26, -58, -78, -102, -107, -97, -39, 
-53, 0, 53, 26, -53, 26, -58, -82, -102, -117, -107, -39, 
-53, -9, 43, 31, -48, 17, -58, -82, -102, -117, -107, -34, 
-58, -14, 43, 36, -51, 14, -58, -82, -112, -122, -112, -39, 
-68, -19, 48, 43, -58, 14, -58, -82, -117, -122, -112, -48, 
-68, -19, 48, 43, -58, 14, -58, -87, -126, -126, -122, -58, 
-68, -19, 48, 43, -58, 14, -63, -87, -131, -126, -131, -58, 
-73, -24, 48, 48, -61, 12, -48, -87, -117, -126, -122, -53, 
-73, -24, 48, 48, -61, 12, -43, -92, -117, -131, -117, -53, 
-68, -19, 48, 43, -58, 14, -39, -97, -112, -141, -112, -43, 
-68, -14, 53, 41, -61, 19, -39, -97, -117, -146, -117, -39, 
-63, -9, 53, 36, -58, 21, -48, -87, -117, -141, -122, -39, 
-58, -9, 48, 34, -53, 19, -58, -82, -117, -136, -126, -39, 
-58, -4, 53, 31, -56, 24, -48, -87, -117, -136, -126, -48, 
-58, 0, 58, 29, -58, 29, -39, -97, -117, -136, -126, -58, 
-58, 0, 58, 29, -58, 29, -24, -87, -112, -136, -122, -58, 
-58, 0, 58, 29, -58, 29, -9, -78, -107, -136, -117, -58, 
-43, 0, 43, 21, -43, 21, -9, -73, -107, -126, -117, -53, 
-19, 4, 24, 7, -21, 14, -14, -63, -102, -117, -112, -43, 
0, 9, 9, -4, -4, 9, -19, -53, -97, -112, -112, -39, 
24, 24, 0, -24, 12, 12, -19, -39, -82, -97, -102, -34, 
39, 48, 9, -43, 14, 29, -29, -24, -68, -78, -92, -24, 
43, 68, 24, -56, 9, 46, -39, -14, -53, -63, -82, -19, 
53, 92, 39, -73, 7, 65, -24, -4, -39, -53, -68, -4, 
63, 117, 53, -90, 4, 85, -29, 0, -34, -39, -48, 9, 
87, 161, 73, -124, 7, 117, -87, -19, -34, -29, -34, 39, 
112, 200, 87, -156, 12, 143, -161, -68, -58, -29, -29, 63, 
146, 200, 53, -173, 46, 126, -214, -102, -63, -29, -19, 68, 
170, 190, 19, -180, 75, 104, -224, -92, -63, -29, -19, 78, 
175, 190, 14, -183, 80, 102, -219, -78, -63, -24, -9, 82, 
175, 190, 14, -183, 80, 102, -195, -53, -48, -14, 4, 97, 
180, 185, 4, -183, 87, 95, -170, -43, -34, 0, 14, 112, 
180, 185, 4, -183, 87, 95, -156, -24, -19, 9, 24, 117, 
185, 175, -9, -180, 97, 82, -141, -19, -19, 9, 24, 117, 
165, 141, -24, -153, 95, 58, -131, -19, -34, -9, 4, 87, 
107, 97, -9, -102, 58, 43, -112, -39, -53, -34, -24, 58, 
9, 48, 39, -29, -14, 43, -87, -68, -73, -58, -63, 14, 
-48, 4, 53, 21, -51, 29, -73, -92, -117, -97, -102, -29, 
-63, -24, 39, 43, -51, 7, -73, -92, -117, -107, -126, -48, 
-68, -24, 43, 46, -56, 9, -58, -92, -117, -112, -136, -58, 
-73, -29, 43, 51, -58, 7, -53, -92, -117, -117, -146, -68, 
-78, -34, 43, 56, -61, 4, -48, -92, -117, -117, -146, -68, 
-78, -43, 34, 61, -56, -4, -48, -92, -117, -117, -146, -68, 
-82, -48, 34, 65, -58, -7, -43, -92, -126, -117, -146, -68, 
-87, -48, 39, 68, -63, -4, -43, -92, -126, -117, -151, -78, 
-87, -43, 43, 65, -65, 0, -43, -97, -126, -117, -156, -78, 
-92, -43, 48, 68, -70, 2, -43, -97, -126, -126, -161, -78, 
-92, -48, 43, 70, -68, -2, -43, -92, -131, -131, -165, -87, 
-92, -48, 43, 70, -68, -2, -43, -92, -136, -136, -170, -92, 
-92, -48, 43, 70, -68, -2, -48, -92, -136, -136, -170, -92, 
-92, -48, 43, 70, -68, -2, -53, -92, -136, -136, -175, -97, 
-97, -48, 48, 73, -73, 0, -48, -92, -136, -136, -175, -97, 
-102, -53, 48, 78, -75, -2, -43, -92, -136, -136, -170, -97, 
-102, -53, 48, 78, -75, -2, -43, -87, -136, -126, -161, -82, 
-102, -53, 48, 78, -75, -2, -43, -87, -131, -112, -151, -68, 
-82, -43, 39, 63, -61, -2, -58, -117, -126, -92, -126, -48, 
-82, -58, 24, 70, -53, -17, -43, -112, -126, -112, -156, -68, 
-185, -126, 58, 156, -122, -34, 43, 39, -131, -229, -297, -200, 
-356, -239, 117, 297, -236, -61, 244, 336, -156, -444, -580, -444, 
-639, -400, 239, 519, -439, -80, 614, 766, -204, -761, -995, -810, 
-897, -527, 370, 712, -634, -78, 1093, 1654, -39, -1024, -1410, -1195, 
-1102, -649, 453, 875, -778, -97, 1629, 3118, 297, -1293, -1830, -1595, 
-1171, -732, 439, 951, -805, -146, 1864, 4250, 639, -1371, -2015, -1800, 
-1117, -619, 497, 868, -807, -61, 1742, 3406, 863, -1088, -1825, -1688, 
-1078, -531, 546, 805, -812, 7, 1200, -34, -204, -839, -1444, -1337, 
-766, -814, -48, 790, -358, -431, 370, -3601, -2381, -1220, -1259, -1005, 
-375, -1424, -1049, 900, 336, -1237, -361, -5485, -3923, -2318, -1498, -873, 
-424, -2313, -1888, 1368, 732, -2100, -692, -6021, -5377, -3982, -2347, -1161, 
-663, -2810, -2147, 1737, 741, -2479, -805, -5812, -5938, -4880, -3079, -1546, 
-663, -2644, -1981, 1654, 658, -2313, -985, -5075, -5104, -4343, -2981, -1556, 
-595, -2186, -1590, 1390, 497, -1888, -1058, -4011, -4006, -3401, -2425, -1288, 
-492, -1605, -1112, 1049, 309, -1359, -873, -2845, -2747, -2327, -1678, -893, 
-351, -1122, -771, 736, 209, -946, -629, -1790, -1683, -1424, -1044, -551, 
-195, -771, -575, 483, 190, -673, -414, -1058, -1005, -863, -653, -336, 
-63, -453, -390, 258, 163, -422, -292, -595, -541, -453, -351, -156, 
-24, -190, -165, 107, 70, -178, -175, -287, -200, -141, -131, -19, 
0, -39, -39, 19, 19, -39, -58, -73, 0, -4, -19, 53, 
0, -4, -4, 2, 2, -4, -29, -29, 39, 34, -4, 53, 
-9, 34, 43, -12, -26, 39, -24, -14, 48, 58, 4, 48, 
-19, 39, 58, -9, -39, 48, -24, 19, 58, 68, 4, 48, 
-19, 39, 58, -9, -39, 48, -4, 39, 82, 73, 4, 53, 
-14, 39, 53, -12, -34, 46, 14, 58, 92, 87, 9, 53, 
-14, 48, 63, -17, -39, 56, 14, 68, 102, 102, 19, 53, 
-19, 58, 78, -19, -48, 68, 19, 78, 102, 107, 19, 53, 
-19, 58, 78, -19, -48, 68, 19, 87, 112, 112, 19, 53, 
-19, 58, 78, -19, -48, 68, 29, 92, 117, 112, 24, 53, 
-14, 58, 73, -21, -43, 65, 29, 92, 117, 117, 29, 58, 
-14, 58, 73, -21, -43, 65, 29, 102, 126, 122, 29, 58, 
-14, 63, 78, -24, -46, 70, 34, 102, 141, 126, 24, 53, 
-14, 63, 78, -24, -46, 70, 39, 112, 146, 131, 29, 53, 
-9, 63, 73, -26, -41, 68, 39, 112, 156, 141, 48, 58, 
-9, 63, 73, -26, -41, 68, 39, 117, 161, 141, 48, 58, 
-9, 68, 78, -29, -43, 73, 39, 122, 165, 146, 53, 63, 
-9, 68, 78, -29, -43, 73, 39, 126, 165, 141, 53, 63, 
-4, 68, 73, -31, -39, 70, 39, 126, 165, 141, 48, 63, 
-4, 63, 68, -29, -36, 65, 39, 131, 170, 141, 43, 58, 
-4, 58, 63, -26, -34, 61, 39, 131, 175, 141, 43, 53, 
4, 58, 53, -31, -24, 56, 43, 141, 175, 146, 43, 53, 
19, 63, 43, -41, -12, 53, 48, 146, 180, 156, 48, 53, 
9, 63, 53, -36, -21, 58, 48, 151, 185, 161, 58, 53, 
0, 58, 58, -29, -29, 58, 48, 156, 185, 161, 63, 53, 
4, 58, 53, -31, -24, 56, 48, 156, 200, 165, 63, 63, 
4, 58, 53, -31, -24, 56, 43, 161, 200, 165, 68, 68, 
9, 73, 63, -41, -26, 68, 39, 161, 204, 170, 68, 73, 
14, 82, 68, -48, -26, 75, 39, 170, 209, 170, 73, 73, 
14, 73, 58, -43, -21, 65, 39, 175, 214, 170, 73, 78, 
14, 68, 53, -41, -19, 61, 34, 180, 219, 170, 78, 78, 
19, 73, 53, -46, -17, 63, 34, 180, 224, 175, 82, 82, 
24, 73, 48, -48, -12, 61, 34, 190, 234, 180, 87, 87, 
24, 78, 53, -51, -14, 65, 34, 195, 239, 175, 97, 87, 
29, 78, 48, -53, -9, 63, 39, 200, 248, 180, 102, 92, 
34, 87, 53, -61, -9, 70, 34, 200, 248, 190, 107, 92, 
39, 92, 53, -65, -7, 73, 29, 200, 248, 190, 107, 92, 
43, 92, 48, -68, -2, 70, 29, 209, 258, 190, 107, 92, 
48, 92, 43, -70, 2, 68, 29, 214, 268, 190, 107, 97, 
63, 92, 29, -78, 17, 61, 24, 219, 287, 229, 136, 107, 
68, 97, 29, -82, 19, 63, 19, 229, 307, 258, 156, 126, 
73, 102, 29, -87, 21, 65, 14, 234, 317, 268, 161, 126, 
82, 107, 24, -95, 29, 65, 14, 248, 326, 278, 175, 136, 
82, 112, 29, -97, 26, 70, 4, 253, 336, 297, 185, 146, 
97, 122, 24, -109, 36, 73, 4, 263, 356, 312, 195, 151, 
102, 126, 24, -114, 39, 75, -4, 273, 366, 326, 209, 161, 
112, 136, 24, -124, 43, 80, -9, 283, 375, 336, 219, 170, 
122, 141, 19, -131, 51, 80, -24, 292, 385, 341, 229, 175, 
126, 151, 24, -139, 51, 87, -34, 302, 395, 351, 239, 185, 
136, 156, 19, -146, 58, 87, -34, 317, 414, 361, 258, 195, 
146, 161, 14, -153, 65, 87, -19, 331, 434, 390, 273, 209, 
156, 170, 14, -163, 70, 92, -29, 341, 453, 400, 287, 204, 
161, 180, 19, -170, 70, 100, -34, 351, 473, 414, 292, 204, 
180, 180, 0, -180, 90, 90, -53, 370, 497, 434, 317, 224, 
195, 185, -9, -190, 102, 87, -73, 390, 522, 458, 336, 248, 
209, 195, -14, -202, 112, 90, -82, 409, 551, 492, 361, 268, 
229, 195, -34, -212, 131, 80, -92, 429, 580, 527, 380, 287, 
253, 209, -43, -231, 148, 82, -107, 453, 610, 546, 424, 307, 
283, 219, -63, -251, 173, 78, -117, 473, 639, 585, 458, 326, 
297, 234, -63, -265, 180, 85, -131, 492, 668, 614, 488, 341, 
326, 244, -82, -285, 204, 80, -146, 512, 702, 658, 522, 366, 
351, 263, -87, -307, 219, 87, -170, 536, 732, 673, 541, 390, 
385, 273, -112, -329, 248, 80, -195, 556, 761, 697, 570, 409, 
414, 297, -117, -356, 265, 90, -219, 575, 795, 746, 610, 439, 
448, 312, -136, -380, 292, 87, -244, 590, 829, 785, 644, 468, 
478, 331, -146, -405, 312, 92, -268, 605, 863, 814, 668, 488, 
507, 346, -161, -427, 334, 92, -283, 619, 893, 844, 702, 497, 
536, 341, -195, -439, 366, 73, -297, 644, 927, 902, 756, 541, 
566, 351, -214, -458, 390, 68, -317, 653, 956, 966, 819, 585, 
600, 380, -219, -490, 409, 80, -341, 658, 980, 1000, 858, 610, 
619, 409, -209, -514, 414, 100, -361, 663, 1005, 1029, 883, 639, 
639, 424, -214, -531, 427, 104, -370, 668, 1019, 1063, 932, 673, 
649, 424, -224, -536, 436, 100, -375, 673, 1024, 1083, 956, 697, 
658, 434, -224, -546, 441, 104, -380, 673, 1024, 1107, 980, 707, 
658, 439, -219, -549, 439, 109, -380, 663, 1000, 1093, 976, 702, 
629, 429, -200, -529, 414, 114, -370, 629, 951, 1049, 927, 678, 
590, 419, -170, -505, 380, 124, -356, 600, 897, 990, 893, 644, 
546, 395, -151, -470, 348, 122, -336, 556, 824, 922, 829, 590, 
492, 375, -117, -434, 305, 129, -317, 507, 741, 839, 751, 536, 
439, 351, -87, -395, 263, 131, -283, 458, 658, 741, 668, 478, 
380, 317, -63, -348, 222, 126, -248, 414, 585, 644, 585, 414, 
322, 273, -48, -297, 185, 112, -209, 375, 512, 561, 512, 351, 
268, 234, -34, -251, 151, 100, -170, 331, 434, 473, 424, 292, 
219, 204, -14, -212, 117, 95, -131, 273, 346, 370, 346, 234, 
165, 170, 4, -168, 80, 87, -102, 224, 273, 283, 268, 180, 
126, 136, 9, -131, 58, 73, -68, 195, 219, 219, 209, 131, 
87, 102, 14, -95, 36, 58, -39, 156, 161, 161, 156, 92, 
53, 68, 14, -61, 19, 41, -9, 126, 112, 107, 107, 53, 
19, 39, 19, -29, 0, 29, 19, 102, 73, 63, 68, 29, 
0, 19, 19, -9, -9, 19, 29, 82, 48, 34, 48, 4, 
-9, 9, 19, 0, -14, 14, 39, 68, 19, 14, 24, -9, 
-34, -4, 29, 19, -31, 12, 53, 48, -29, -19, -9, -29, 
-48, -9, 39, 29, -43, 14, 63, 34, -68, -53, -39, -53, 
-63, -14, 48, 39, -56, 17, 82, 29, -68, -63, -43, -58, 
-68, -14, 53, 41, -61, 19, 87, 19, -68, -68, -48, -63, 
-68, -19, 48, 43, -58, 14, 92, 14, -68, -78, -53, -63, 
-68, -24, 43, 46, -56, 9, 92, 14, -73, -82, -63, -73, 
-73, -24, 48, 48, -61, 12, 102, 14, -73, -78, -63, -73, 
-78, -24, 53, 51, -65, 14, 112, 9, -68, -78, -63, -68, 
-78, -34, 43, 56, -61, 4, 117, 9, -78, -82, -68, -73, 
-82, -39, 43, 61, -63, 2, 117, 4, -82, -82, -68, -82, 
-82, -34, 48, 58, -65, 7, 117, 4, -87, -92, -73, -82, 
-82, -34, 48, 58, -65, 7, 117, 0, -92, -102, -73, -82, 
-82, -34, 48, 58, -65, 7, 117, 0, -92, -102, -73, -82, 
-82, -34, 48, 58, -65, 7, 117, 0, -92, -102, -68, -82, 
-82, -34, 48, 58, -65, 7, 117, -4, -92, -107, -68, -82, 
-82, -29, 53, 56, -68, 12, 117, -4, -92, -112, -68, -78, 
-82, -29, 53, 56, -68, 12, 117, -9, -92, -112, -63, -78, 
-82, -24, 58, 53, -70, 17, 117, -9, -92, -112, -58, -78, 
-82, -24, 58, 53, -70, 17, 117, -9, -92, -107, -53, -73, 
-82, -19, 63, 51, -73, 21, 117, -14, -92, -97, -53, -73, 
-78, -19, 58, 48, -68, 19, 112, -14, -78, -82, -29, -63, 
-73, -19, 53, 46, -63, 17, 112, -14, -63, -73, -9, -58, 
-68, -14, 53, 41, -61, 19, 107, -19, -73, -73, -19, -58, 
-68, -14, 53, 41, -61, 19, 107, -19, -78, -68, -24, -58, 
-68, -9, 58, 39, -63, 24, 107, -19, -73, -63, -19, -53, 
-68, -4, 63, 36, -65, 29, 102, -19, -73, -53, -9, -48, 
-68, -4, 63, 36, -65, 29, 102, -24, -63, -48, 4, -39, 
-63, 0, 63, 31, -63, 31, 97, -24, -53, -39, 24, -24, 
-63, 0, 63, 31, -63, 31, 97, -24, -53, -39, 29, -19, 
-63, 0, 63, 31, -63, 31, 92, -24, -53, -39, 29, -19, 
-63, 0, 63, 31, -63, 31, 92, -34, -53, -34, 24, -24, 
-58, 0, 58, 29, -58, 29, 87, -39, -53, -34, 24, -29, 
-58, 0, 58, 29, -58, 29, 92, -39, -43, -29, 24, -29, 
-58, -4, 53, 31, -56, 24, 97, -39, -39, -24, 24, -29, 
-58, -4, 53, 31, -56, 24, 92, -43, -39, -24, 24, -29, 
-53, -4, 48, 29, -51, 21, 92, -43, -43, -24, 24, -29, 
-53, 4, 58, 24, -56, 31, 87, -43, -43, -24, 29, -29, 
-53, 14, 68, 19, -61, 41, 87, -43, -43, -24, 34, -34, 
-53, 4, 58, 24, -56, 31, 87, -43, -43, -14, 34, -34, 
-53, -9, 43, 31, -48, 17, 87, -39, -43, -9, 39, -34, 
-53, -4, 48, 29, -51, 21, 92, -34, -43, -14, 39, -29, 
-58, 0, 58, 29, -58, 29, 97, -29, -48, -19, 39, -29, 
-43, 9, 53, 17, -48, 31, 97, -24, -43, -19, 39, -29, 
-29, 19, 48, 4, -39, 34, 97, -19, -39, -19, 39, -29, 
-24, 19, 43, 2, -34, 31, 97, -19, -39, -19, 39, -29, 
-14, 14, 29, 0, -21, 21, 97, -14, -34, -14, 39, -24, 
-4, 14, 19, -4, -12, 17, 102, -9, -29, -9, 43, -19, 
19, 19, 0, -19, 9, 9, 97, 0, -19, 0, 53, -9, 
39, 34, -4, -36, 21, 14, 97, 9, -4, 9, 63, -4, 
43, 58, 14, -51, 14, 36, 97, 19, 4, 24, 73, 4, 
43, 92, 48, -68, -2, 70, 73, 9, 9, 34, 82, 9, 
53, 131, 78, -92, -12, 104, 48, 0, 19, 43, 92, 24, 
63, 146, 82, -104, -9, 114, 29, -14, 14, 53, 107, 39, 
87, 175, 87, -131, 0, 131, -29, -48, 4, 58, 122, 63, 
102, 195, 92, -148, 4, 143, -73, -68, -4, 58, 126, 82, 
122, 180, 58, -151, 31, 119, -87, -68, 4, 58, 136, 87, 
136, 170, 34, -153, 51, 102, -63, -43, 24, 63, 146, 97, 
136, 170, 34, -153, 51, 102, -34, -19, 48, 73, 165, 102, 
131, 161, 29, -146, 51, 95, -9, 4, 58, 82, 170, 107, 
131, 146, 14, -139, 58, 80, 14, 14, 63, 97, 170, 112, 
107, 122, 14, -114, 46, 68, 29, 4, 48, 78, 156, 97, 
78, 82, 4, -80, 36, 43, 43, -19, 19, 48, 131, 78, 
48, 53, 4, -51, 21, 29, 43, -34, -9, 14, 97, 34, 
0, 19, 19, -9, -9, 19, 53, -68, -48, -29, 53, -9, 
-53, -9, 43, 31, -48, 17, 73, -73, -43, -34, 39, -24, 
-68, -24, 43, 46, -56, 9, 82, -73, -58, -48, 24, -39, 
-68, -43, 24, 56, -46, -9, 82, -73, -58, -48, 14, -53, 
-68, -43, 24, 56, -46, -9, 92, -73, -58, -43, 24, -53, 
-73, -48, 24, 61, -48, -12, 92, -73, -58, -48, 19, -58, 
-78, -53, 24, 65, -51, -14, 97, -73, -58, -48, 19, -58, 
-82, -58, 24, 70, -53, -17, 97, -73, -53, -48, 19, -58, 
-92, -58, 34, 75, -63, -12, 102, -73, -58, -48, 19, -58, 
-97, -58, 39, 78, -68, -9, 102, -73, -58, -43, 14, -68, 
-97, -58, 39, 78, -68, -9, 102, -78, -58, -39, 9, -68, 
-97, -63, 34, 80, -65, -14, 102, -78, -58, -48, 4, -68, 
-92, -68, 24, 80, -58, -21, 102, -73, -58, -48, 4, -73, 
-92, -68, 24, 80, -58, -21, 102, -73, -58, -48, 4, -73, 
-92, -68, 24, 80, -58, -21, 102, -73, -58, -48, 4, -73, 
-92, -68, 24, 80, -58, -21, 102, -68, -53, -48, 4, -78, 
-97, -68, 29, 82, -63, -19, 107, -63, -48, -48, 9, -78, 
-102, -63, 39, 82, -70, -12, 112, -63, -48, -48, 14, -78, 
-102, -53, 48, 78, -75, -2, 112, -58, -48, -48, 14, -78, 
-102, -63, 39, 82, -70, -12, 117, -48, -43, -53, 4, -82, 
-102, -73, 29, 87, -65, -21, 122, -34, -39, -63, -4, -87, 
-141, -112, 29, 126, -85, -41, 180, 53, -48, -170, -126, -175, 
-263, -219, 43, 241, -153, -87, 351, 312, -63, -400, -375, -380, 
-414, -356, 58, 385, -236, -148, 619, 746, -43, -707, -736, -668, 
-649, -502, 146, 575, -397, -178, 1019, 1346, 9, -1098, -1190, -1039, 
-805, -614, 190, 710, -497, -212, 1444, 2249, 283, -1332, -1537, -1351, 
-893, -712, 180, 802, -536, -265, 1825, 3318, 658, -1454, -1786, -1600, 
-956, -732, 224, 844, -590, -253, 1927, 3577, 634, -1356, -1766, -1639, 
-917, -634, 283, 775, -600, -175, 1625, 1932, 43, -1063, -1454, -1424, 
-946, -741, 204, 844, -575, -268, 1122, -1307, -1556, -1141, -1185, -1112, 
-780, -1215, -434, 997, -173, -824, 527, -3889, -3533, -1732, -1156, -902, 
-561, -1825, -1263, 1193, 351, -1544, -43, -4904, -4582, -2849, -1571, -946, 
-692, -2518, -1825, 1605, 566, -2171, -248, -5055, -5568, -4426, -2488, -1322, 
-824, -2747, -1922, 1786, 549, -2335, -405, -4753, -5577, -4767, -2864, -1542, 
-751, -2410, -1659, 1581, 453, -2034, -595, -4001, -4401, -3796, -2459, -1385, 
-600, -1922, -1322, 1261, 361, -1622, -658, -3040, -3264, -2801, -1849, -1073, 
-439, -1395, -956, 917, 258, -1176, -517, -2044, -2069, -1766, -1161, -717, 
-302, -966, -663, 634, 180, -814, -351, -1273, -1190, -990, -624, -424, 
-165, -653, -488, 409, 161, -570, -209, -795, -658, -517, -283, -239, 
-73, -361, -287, 217, 107, -324, -92, -409, -248, -165, -29, -87, 
-39, -131, -92, 85, 26, -112, -4, -175, 19, 68, 141, 34, 
-19, -9, 9, 14, -14, 0, 92, -24, 175, 161, 224, 78, 
-19, 14, 34, 2, -26, 24, 112, 4, 204, 195, 234, 63, 
-29, 43, 73, -7, -51, 58, 112, 14, 204, 214, 239, 68, 
-39, 48, 87, -4, -63, 68, 112, 48, 214, 219, 239, 73, 
-34, 48, 82, -7, -58, 65, 122, 68, 239, 219, 239, 73, 
-24, 48, 73, -12, -48, 61, 131, 82, 248, 229, 244, 73, 
-24, 58, 82, -17, -53, 70, 131, 82, 258, 234, 248, 73, 
-29, 68, 97, -19, -63, 82, 136, 87, 258, 234, 244, 73, 
-29, 68, 97, -19, -63, 82, 136, 92, 268, 239, 244, 73, 
-29, 68, 97, -19, -63, 82, 146, 92, 273, 239, 248, 73, 
-24, 68, 92, -21, -58, 80, 141, 92, 273, 239, 253, 78, 
-24, 68, 92, -21, -58, 80, 136, 102, 278, 239, 253, 78, 
-24, 73, 97, -24, -61, 85, 136, 102, 283, 244, 248, 73, 
-24, 73, 97, -24, -61, 85, 136, 112, 278, 244, 248, 73, 
-19, 73, 92, -26, -56, 82, 136, 112, 283, 248, 263, 82, 
-19, 73, 92, -26, -56, 82, 136, 117, 287, 248, 263, 87, 
-14, 78, 92, -31, -53, 85, 136, 122, 292, 253, 268, 92, 
-9, 78, 87, -34, -48, 82, 136, 126, 297, 253, 268, 92, 
-4, 78, 82, -36, -43, 80, 136, 126, 302, 258, 268, 92, 
-4, 78, 82, -36, -43, 80, 136, 131, 307, 258, 268, 92, 
-4, 78, 82, -36, -43, 80, 136, 131, 312, 263, 278, 92, 
-4, 78, 82, -36, -43, 80, 136, 136, 312, 268, 287, 92, 
0, 82, 82, -41, -41, 82, 131, 136, 317, 273, 283, 92, 
0, 87, 87, -43, -43, 87, 126, 141, 322, 278, 283, 92, 
0, 92, 92, -46, -46, 92, 126, 146, 322, 278, 287, 92, 
4, 97, 92, -51, -43, 95, 126, 146, 336, 283, 287, 97, 
4, 97, 92, -51, -43, 95, 117, 151, 336, 287, 292, 102, 
9, 102, 92, -56, -41, 97, 107, 151, 341, 297, 292, 112, 
14, 102, 87, -58, -36, 95, 107, 156, 346, 297, 297, 112, 
14, 102, 87, -58, -36, 95, 107, 156, 351, 302, 297, 117, 
14, 107, 92, -61, -39, 100, 102, 161, 356, 307, 302, 117, 
19, 112, 92, -65, -36, 102, 102, 161, 361, 312, 307, 122, 
29, 112, 82, -70, -26, 97, 102, 170, 370, 322, 312, 126, 
34, 117, 82, -75, -24, 100, 97, 175, 375, 326, 322, 126, 
39, 117, 78, -78, -19, 97, 92, 180, 385, 336, 331, 131, 
43, 126, 82, -85, -19, 104, 82, 185, 390, 346, 341, 136, 
48, 136, 87, -92, -19, 112, 78, 190, 395, 341, 341, 141, 
53, 141, 87, -97, -17, 114, 73, 200, 405, 346, 341, 141, 
58, 141, 82, -100, -12, 112, 68, 204, 419, 356, 341, 146, 
68, 146, 78, -107, -4, 112, 63, 209, 434, 375, 361, 151, 
68, 151, 82, -109, -7, 117, 53, 219, 444, 385, 370, 170, 
73, 151, 78, -112, -2, 114, 43, 224, 453, 395, 375, 175, 
82, 156, 73, -119, 4, 114, 43, 234, 463, 405, 390, 185, 
82, 161, 78, -122, 2, 119, 34, 234, 473, 424, 400, 195, 
97, 170, 73, -134, 12, 122, 29, 244, 492, 439, 409, 204, 
102, 175, 73, -139, 14, 124, 14, 253, 507, 453, 424, 219, 
117, 185, 68, -151, 24, 126, 9, 263, 522, 473, 444, 234, 
131, 190, 58, -161, 36, 124, 4, 273, 536, 497, 463, 244, 
136, 200, 63, -168, 36, 131, 4, 283, 551, 517, 473, 253, 
146, 204, 58, -175, 43, 131, -9, 297, 570, 527, 492, 263, 
156, 209, 53, -183, 51, 131, -19, 302, 590, 546, 502, 273, 
170, 219, 48, -195, 61, 134, -39, 307, 610, 551, 517, 278, 
180, 234, 53, -207, 63, 143, -43, 322, 629, 580, 527, 292, 
200, 244, 43, -222, 78, 143, -53, 341, 653, 610, 551, 302, 
214, 253, 39, -234, 87, 146, -68, 361, 683, 639, 570, 322, 
229, 268, 39, -248, 95, 153, -82, 380, 717, 673, 595, 346, 
248, 268, 19, -258, 114, 143, -92, 395, 746, 702, 614, 366, 
273, 278, 4, -275, 134, 141, -112, 414, 775, 722, 649, 385, 
302, 287, -14, -295, 158, 136, -131, 434, 805, 771, 673, 405, 
322, 307, -14, -314, 168, 146, -151, 458, 839, 810, 702, 424, 
356, 322, -34, -339, 195, 143, -165, 473, 873, 854, 736, 453, 
380, 341, -39, -361, 209, 151, -190, 488, 902, 883, 771, 483, 
409, 351, -58, -380, 234, 146, -214, 497, 936, 922, 814, 507, 
434, 375, -58, -405, 246, 158, -239, 507, 971, 971, 854, 536, 
468, 390, -78, -429, 273, 156, -268, 517, 995, 1005, 883, 566, 
497, 409, -87, -453, 292, 161, -297, 527, 1019, 1039, 912, 600, 
517, 419, -97, -468, 307, 161, -312, 531, 1044, 1078, 956, 619, 
536, 424, -112, -480, 324, 156, -331, 546, 1068, 1122, 995, 649, 
561, 448, -112, -505, 336, 168, -351, 546, 1078, 1161, 1034, 678, 
590, 468, -122, -529, 356, 173, -370, 541, 1088, 1185, 1063, 697, 
600, 483, -117, -541, 358, 183, -385, 541, 1102, 1205, 1078, 722, 
610, 492, -117, -551, 363, 187, -395, 536, 1093, 1215, 1102, 736, 
610, 492, -117, -551, 363, 187, -395, 531, 1068, 1200, 1098, 732, 
600, 497, -102, -549, 351, 197, -390, 512, 1029, 1180, 1083, 717, 
580, 488, -92, -534, 336, 197, -380, 488, 966, 1127, 1034, 692, 
541, 463, -78, -502, 309, 192, -361, 453, 897, 1054, 956, 653, 
497, 448, -48, -473, 273, 200, -336, 439, 834, 961, 897, 600, 
448, 414, -34, -431, 241, 190, -307, 409, 756, 873, 819, 531, 
395, 380, -14, -387, 204, 183, -278, 370, 668, 780, 732, 478, 
341, 341, 0, -341, 170, 170, -234, 331, 580, 678, 639, 419, 
287, 297, 9, -292, 139, 153, -200, 297, 507, 585, 556, 356, 
234, 253, 19, -244, 107, 136, -165, 258, 424, 502, 483, 292, 
180, 214, 34, -197, 73, 124, -131, 214, 341, 414, 395, 234, 
131, 180, 48, -156, 41, 114, -92, 175, 268, 322, 322, 175, 
82, 141, 58, -112, 12, 100, -58, 151, 209, 244, 253, 122, 
53, 107, 53, -80, 0, 80, -24, 136, 161, 185, 204, 78, 
24, 78, 53, -51, -14, 65, 0, 102, 107, 136, 156, 48, 
0, 53, 53, -26, -26, 53, 19, 78, 63, 87, 107, 14, 
-29, 34, 63, -2, -46, 48, 43, 58, 24, 48, 68, -9, 
-48, 19, 68, 14, -58, 43, 58, 43, 0, 24, 48, -34, 
-53, 9, 63, 21, -58, 36, 68, 34, -19, 14, 39, -43, 
-68, -4, 63, 36, -65, 29, 82, 19, -34, 0, 29, -53, 
-73, -9, 63, 41, -68, 26, 82, 14, -48, -24, 9, -68, 
-82, -19, 63, 51, -73, 21, 92, 19, -58, -34, 4, -68, 
-87, -19, 68, 53, -78, 24, 97, 9, -68, -43, -4, -73, 
-87, -19, 68, 53, -78, 24, 102, 4, -73, -58, -14, -73, 
-87, -24, 63, 56, -75, 19, 102, 4, -82, -63, -24, -87, 
-92, -24, 68, 58, -80, 21, 107, 4, -87, -63, -24, -92, 
-92, -24, 68, 58, -80, 21, 102, 0, -82, -68, -24, -87, 
-87, -29, 58, 58, -73, 14, 97, 0, -87, -73, -29, -87, 
-92, -29, 63, 61, -78, 17, 97, -4, -92, -63, -24, -87, 
-92, -24, 68, 58, -80, 21, 97, -4, -92, -58, -24, -82, 
-92, -19, 73, 56, -82, 26, 97, -9, -92, -63, -19, -78, 
-92, -14, 78, 53, -85, 31, 97, -9, -92, -63, -14, -73, 
-87, -14, 73, 51, -80, 29, 97, -9, -87, -58, -9, -73, 
-82, -14, 68, 48, -75, 26, 97, -14, -82, -53, -9, -73, 
-82, -9, 73, 46, -78, 31, 92, -14, -78, -53, -9, -63, 
-82, -9, 73, 46, -78, 31, 87, -19, -73, -53, -9, -58, 
-78, -4, 73, 41, -75, 34, 82, -19, -73, -48, -4, -58, 
-73, -4, 68, 39, -70, 31, 78, -19, -73, -43, 4, -53, 
-73, 0, 73, 36, -73, 36, 78, -24, -73, -34, 4, -53, 
-73, 0, 73, 36, -73, 36, 73, -24, -68, -24, 14, -43, 
-73, 0, 73, 36, -73, 36, 68, -29, -63, -24, 24, -34, 
-68, 4, 73, 31, -70, 39, 58, -39, -63, -24, 29, -29, 
-63, 4, 68, 29, -65, 36, 58, -39, -58, -24, 34, -29, 
-58, 4, 63, 26, -61, 34, 58, -39, -53, -24, 39, -24, 
-58, 4, 63, 26, -61, 34, 53, -39, -53, -14, 43, -19, 
-58, 4, 63, 26, -61, 34, 53, -43, -48, -14, 39, -19, 
-53, 9, 63, 21, -58, 36, 48, -43, -43, -9, 43, -24, 
-53, 9, 63, 21, -58, 36, 48, -43, -43, -9, 48, -29, 
-53, 4, 58, 24, -56, 31, 43, -43, -43, -9, 43, -29, 
-53, 0, 53, 26, -53, 26, 43, -48, -43, -4, 39, -29, 
-53, 0, 53, 26, -53, 26, 39, -48, -43, -4, 34, -29, 
-58, 0, 58, 29, -58, 29, 39, -48, -39, 0, 24, -29, 
-58, -4, 53, 31, -56, 24, 39, -48, -43, 0, 24, -29, 
-58, -4, 53, 31, -56, 24, 34, -53, -48, -4, 24, -29, 
-53, -4, 48, 29, -51, 21, 34, -53, -53, -9, 19, -29, 
-53, -4, 48, 29, -51, 21, 29, -53, -53, -14, 14, -29, 
-53, 0, 53, 26, -53, 26, 29, -53, -58, -19, 14, -39, 
-53, 4, 58, 24, -56, 31, 29, -58, -63, -24, 9, -43, 
-53, 0, 53, 26, -53, 26, 29, -58, -63, -24, 4, -43, 
-53, 0, 53, 26, -53, 26, 29, -58, -63, -29, 0, -39, 
-58, -9, 48, 34, -53, 19, 29, -58, -63, -34, 0, -39, 
-63, -14, 48, 39, -56, 17, 29, -58, -63, -39, 0, -43, 
-63, -14, 48, 39, -56, 17, 29, -53, -68, -39, -4, -43, 
-58, -14, 43, 36, -51, 14, 29, -53, -68, -39, -9, -43, 
-58, -14, 43, 36, -51, 14, 24, -53, -78, -43, -14, -48, 
-63, -14, 48, 39, -56, 17, 24, -58, -82, -43, -14, -48, 
-63, -14, 48, 39, -56, 17, 24, -63, -78, -53, -19, -58, 
-63, -14, 48, 39, -56, 17, 24, -68, -78, -63, -24, -68, 
-63, -19, 43, 41, -53, 12, 24, -68, -82, -68, -24, -68, 
-68, -19, 48, 43, -58, 14, 24, -68, -82, -73, -24, -68, 
-63, -19, 43, 41, -53, 12, 19, -73, -82, -73, -29, -68, 
-63, -19, 43, 41, -53, 12, 19, -78, -87, -78, -39, -73, 
-58, -19, 39, 39, -48, 9, 24, -73, -87, -78, -39, -68, 
-58, -19, 39, 39, -48, 9, 29, -68, -87, -78, -39, -68, 
-48, -9, 39, 29, -43, 14, 43, -58, -78, -73, -34, -63, 
-39, 0, 39, 19, -39, 19, 58, -48, -68, -68, -29, -58, 
-34, 4, 39, 14, -36, 21, 58, -43, -68, -58, -29, -58, 
-14, 9, 24, 2, -19, 17, 53, -34, -63, -53, -24, -48, 
0, 19, 19, -9, -9, 19, 53, -29, -58, -48, -24, -43, 
24, 34, 9, -29, 7, 21, 58, -19, -43, -39, -14, -34, 
34, 58, 24, -46, 4, 41, 58, 0, -34, -24, -4, -24, 
34, 78, 43, -56, -4, 61, 58, 14, -24, -14, 4, -19, 
43, 102, 58, -73, -7, 80, 39, 0, -14, -4, 9, -9, 
53, 126, 73, -90, -9, 100, 0, -19, -14, 9, 19, 0, 
78, 156, 78, -117, 0, 117, -58, -39, -14, 19, 34, 24, 
102, 180, 78, -141, 12, 129, -131, -87, -39, 19, 39, 43, 
131, 180, 48, -156, 41, 114, -165, -107, -43, 24, 48, 53, 
151, 170, 19, -161, 65, 95, -156, -82, -43, 29, 48, 68, 
156, 175, 19, -165, 68, 97, -151, -68, -34, 39, 58, 73, 
156, 180, 24, -168, 65, 102, -126, -43, -9, 53, 73, 87, 
156, 175, 19, -165, 68, 97, -102, -34, 4, 68, 82, 102, 
151, 175, 24, -163, 63, 100, -87, -14, 19, 78, 92, 107, 
141, 156, 14, -148, 63, 85, -73, -9, 19, 73, 87, 107, 
107, 112, 4, -109, 51, 58, -63, -9, 4, 48, 63, 78, 
58, 68, 9, -63, 24, 39, -43, -34, -29, 9, 19, 39, 
-29, 19, 48, 4, -39, 34, -19, -68, -63, -29, -34, -14, 
-73, -14, 58, 43, -65, 21, -4, -92, -107, -68, -63, -58, 
-73, -34, 39, 53, -56, 2, -4, -92, -107, -78, -78, -78, 
-78, -34, 43, 56, -61, 4, 0, -92, -107, -82, -82, -82, 
-82, -39, 43, 61, -63, 2, -4, -92, -107, -87, -87, -87, 
-87, -43, 43, 65, -65, 0, 0, -92, -107, -87, -87, -87, 
-87, -53, 34, 70, -61, -9, 0, -92, -107, -87, -87, -87, 
-87, -58, 29, 73, -58, -14, 4, -92, -117, -87, -87, -87, 
-87, -58, 29, 73, -58, -14, 4, -92, -117, -87, -92, -97, 
-87, -58, 29, 73, -58, -14, 4, -97, -117, -82, -97, -97, 
-92, -63, 29, 78, -61, -17, 4, -97, -117, -87, -102, -97, 
-97, -68, 29, 82, -63, -19, 4, -87, -117, -87, -102, -97, 
-102, -68, 34, 85, -68, -17, 4, -82, -117, -87, -102, -92, 
-102, -68, 34, 85, -68, -17, 0, -82, -117, -87, -107, -92, 
-102, -68, 34, 85, -68, -17, -4, -82, -117, -87, -117, -97, 
-102, -68, 34, 85, -68, -17, 0, -82, -117, -87, -117, -102, 
-102, -73, 29, 87, -65, -21, 4, -82, -117, -87, -112, -107, 
-102, -73, 29, 87, -65, -21, 4, -78, -117, -87, -112, -107, 
-102, -73, 29, 87, -65, -21, 4, -78, -112, -82, -112, -107, 
-97, -68, 29, 82, -63, -19, 4, -87, -107, -68, -92, -87, 
-112, -87, 24, 100, -68, -31, 34, -63, -107, -92, -126, -107, 
-185, -180, 4, 183, -95, -87, 161, 146, -112, -268, -307, -253, 
-326, -317, 9, 322, -168, -153, 400, 502, -136, -541, -629, -512, 
-570, -463, 107, 517, -339, -178, 805, 1034, -97, -912, -1063, -873, 
-790, -575, 214, 683, -502, -180, 1317, 2025, 156, -1229, -1498, -1254, 
-951, -673, 278, 812, -614, -197, 1800, 3328, 580, -1429, -1849, -1586, 
-976, -732, 244, 854, -610, -244, 1981, 4299, 1010, -1439, -1966, -1722, 
-897, -644, 253, 771, -575, -195, 1678, 3289, 634, -1146, -1708, -1571, 
-834, -580, 253, 707, -544, -163, 956, -317, -1034, -888, -1259, -1180, 
-536, -912, -375, 724, -80, -644, 136, -3416, -2840, -956, -907, -805, 
-161, -1571, -1410, 866, 624, -1490, -585, -4831, -4011, -1742, -980, -629, 
-175, -2386, -2210, 1281, 1017, -2298, -883, -5421, -5402, -3596, -1883, -907, 
-380, -2810, -2430, 1595, 1024, -2620, -961, -5265, -5899, -4684, -2669, -1283, 
-409, -2596, -2186, 1503, 888, -2391, -1068, -4621, -5026, -4152, -2625, -1317, 
-370, -2088, -1717, 1229, 673, -1903, -1068, -3650, -3889, -3215, -2122, -1073, 
-336, -1522, -1185, 929, 424, -1354, -849, -2571, -2620, -2147, -1444, -741, 
-263, -1054, -790, 658, 263, -922, -570, -1605, -1546, -1249, -878, -463, 
-156, -707, -551, 431, 197, -629, -341, -917, -873, -692, -502, -278, 
-73, -395, -322, 234, 124, -358, -204, -497, -414, -287, -214, -126, 
-43, -151, -107, 97, 31, -129, -102, -239, -97, -9, -24, -4, 
-29, -19, 9, 24, -19, -4, 0, -73, 78, 92, 58, 53, 
-29, 4, 34, 12, -31, 19, 24, -34, 107, 126, 68, 53, 
-39, 34, 73, 2, -56, 53, 24, -24, 107, 146, 73, 48, 
-48, 39, 87, 4, -68, 63, 24, 9, 117, 151, 68, 43, 
-48, 39, 87, 4, -68, 63, 43, 29, 141, 151, 63, 43, 
-48, 39, 87, 4, -68, 63, 63, 43, 151, 161, 63, 43, 
-53, 48, 102, 2, -78, 75, 63, 48, 161, 170, 68, 43, 
-58, 58, 117, 0, -87, 87, 68, 58, 156, 170, 68, 43, 
-58, 58, 117, 0, -87, 87, 68, 68, 161, 170, 68, 43, 
-58, 58, 117, 0, -87, 87, 78, 78, 165, 170, 73, 39, 
-53, 58, 112, -2, -82, 85, 78, 82, 165, 175, 78, 39, 
-53, 58, 112, -2, -82, 85, 78, 92, 170, 180, 78, 39, 
-53, 63, 117, -4, -85, 90, 82, 92, 180, 185, 73, 34, 
-53, 68, 122, -7, -87, 95, 87, 102, 180, 185, 73, 39, 
-48, 73, 122, -12, -85, 97, 87, 102, 185, 190, 87, 48, 
-48, 73, 122, -12, -85, 97, 87, 107, 190, 190, 87, 48, 
-48, 78, 126, -14, -87, 102, 87, 112, 195, 195, 92, 53, 
-48, 78, 126, -14, -87, 102, 87, 117, 200, 190, 97, 48, 
-43, 78, 122, -17, -82, 100, 87, 117, 204, 190, 97, 43, 
-43, 78, 122, -17, -82, 100, 87, 122, 209, 190, 92, 43, 
-43, 78, 122, -17, -82, 100, 87, 122, 214, 190, 92, 43, 
-43, 78, 122, -17, -82, 100, 87, 126, 214, 190, 87, 43, 
-39, 82, 122, -21, -80, 102, 87, 126, 219, 195, 87, 43, 
-39, 92, 131, -26, -85, 112, 82, 131, 224, 200, 97, 43, 
-39, 97, 136, -29, -87, 117, 78, 136, 224, 200, 102, 43, 
-34, 97, 131, -31, -82, 114, 78, 136, 239, 204, 102, 48, 
-34, 97, 131, -31, -82, 114, 73, 141, 239, 204, 107, 48, 
-24, 102, 126, -39, -75, 114, 68, 141, 244, 209, 102, 53, 
-14, 102, 117, -43, -65, 109, 68, 151, 248, 209, 102, 53, 
-14, 107, 122, -46, -68, 114, 68, 156, 253, 214, 102, 58, 
-14, 117, 131, -51, -73, 124, 63, 161, 258, 219, 107, 58, 
-9, 122, 131, -56, -70, 126, 63, 161, 263, 219, 112, 63, 
-4, 122, 126, -58, -65, 124, 63, 170, 273, 219, 117, 68, 
-4, 126, 131, -61, -68, 129, 53, 175, 278, 219, 126, 68, 
0, 126, 126, -63, -63, 126, 48, 180, 287, 229, 131, 73, 
4, 136, 131, -70, -63, 134, 43, 185, 292, 239, 141, 78, 
9, 141, 131, -75, -61, 136, 39, 190, 297, 239, 146, 82, 
14, 141, 126, -78, -56, 134, 34, 200, 312, 248, 146, 82, 
19, 141, 122, -80, -51, 131, 29, 204, 326, 258, 146, 87, 
29, 146, 117, -87, -43, 131, 24, 209, 336, 278, 165, 92, 
29, 156, 126, -92, -48, 141, 19, 219, 346, 287, 175, 107, 
34, 165, 131, -100, -48, 148, 14, 224, 356, 297, 175, 107, 
43, 175, 131, -109, -43, 153, 14, 239, 366, 307, 185, 117, 
43, 180, 136, -112, -46, 158, 4, 244, 375, 326, 195, 126, 
58, 190, 131, -124, -36, 161, 4, 253, 395, 341, 204, 131, 
63, 195, 131, -129, -34, 163, -4, 268, 409, 361, 219, 146, 
73, 204, 131, -139, -29, 168, -9, 283, 424, 375, 229, 161, 
82, 209, 126, -146, -21, 168, -14, 292, 439, 390, 239, 165, 
87, 219, 131, -153, -21, 175, -14, 302, 453, 409, 248, 175, 
97, 224, 126, -161, -14, 175, -29, 317, 478, 419, 268, 185, 
107, 229, 122, -168, -7, 175, -29, 331, 502, 448, 283, 200, 
122, 239, 117, -180, 2, 178, -39, 346, 522, 473, 302, 209, 
131, 248, 117, -190, 7, 183, -43, 361, 541, 502, 312, 224, 
151, 258, 107, -204, 21, 183, -53, 390, 570, 522, 336, 234, 
165, 273, 107, -219, 29, 190, -63, 419, 600, 546, 356, 248, 
180, 287, 107, -234, 36, 197, -73, 439, 629, 575, 385, 268, 
200, 292, 92, -246, 53, 192, -82, 458, 658, 605, 409, 287, 
224, 307, 82, -265, 70, 195, -102, 483, 692, 629, 444, 312, 
253, 317, 63, -285, 95, 190, -117, 502, 727, 673, 468, 336, 
273, 336, 63, -305, 104, 200, -131, 527, 761, 702, 497, 356, 
307, 351, 43, -329, 131, 197, -146, 551, 800, 746, 531, 385, 
331, 370, 39, -351, 146, 204, -165, 580, 844, 780, 566, 414, 
366, 380, 14, -373, 175, 197, -185, 605, 888, 824, 610, 439, 
395, 405, 9, -400, 192, 207, -204, 629, 922, 878, 653, 468, 
429, 419, -9, -424, 219, 204, -224, 649, 956, 922, 692, 497, 
453, 444, -9, -448, 231, 217, -248, 663, 990, 961, 727, 531, 
478, 463, -14, -470, 246, 224, -263, 678, 1019, 1000, 771, 556, 
502, 473, -29, -488, 265, 222, -278, 702, 1049, 1039, 805, 590, 
527, 497, -29, -512, 278, 234, -297, 712, 1073, 1083, 849, 624, 
561, 512, -48, -536, 305, 231, -317, 717, 1093, 1117, 883, 639, 
580, 527, -53, -553, 317, 236, -331, 722, 1112, 1146, 902, 658, 
595, 541, -53, -568, 324, 244, -346, 722, 1112, 1156, 927, 678, 
600, 541, -58, -570, 329, 241, -356, 722, 1102, 1151, 927, 688, 
595, 546, -48, -570, 322, 248, -361, 697, 1058, 1137, 927, 683, 
580, 546, -34, -563, 307, 256, -361, 663, 990, 1083, 897, 663, 
551, 517, -34, -534, 292, 241, -351, 619, 932, 1024, 824, 629, 
512, 488, -24, -500, 268, 231, -336, 580, 868, 951, 766, 585, 
468, 448, -19, -458, 244, 214, -317, 531, 780, 868, 702, 531, 
414, 414, 0, -414, 207, 207, -297, 478, 683, 771, 624, 478, 
361, 380, 19, -370, 170, 200, -263, 419, 595, 678, 541, 419, 
302, 336, 34, -319, 134, 185, -229, 366, 517, 585, 458, 356, 
248, 292, 43, -270, 102, 168, -204, 317, 429, 502, 390, 292, 
200, 253, 53, -226, 73, 153, -180, 263, 336, 414, 307, 234, 
161, 219, 58, -190, 51, 139, -146, 214, 258, 322, 234, 180, 
117, 180, 63, -148, 26, 122, -122, 175, 195, 244, 161, 131, 
82, 146, 63, -114, 9, 104, -92, 151, 141, 185, 112, 92, 
48, 112, 63, -80, -7, 87, -68, 117, 82, 131, 68, 63, 
29, 82, 53, -56, -12, 68, -48, 87, 39, 82, 19, 24, 
9, 58, 48, -34, -19, 53, -29, 63, 4, 43, -19, 0, 
-9, 39, 48, -14, -29, 43, -24, 43, -19, 14, -34, -14, 
-19, 29, 48, -4, -34, 39, -19, 29, -48, -4, -53, -19, 
-34, 14, 48, 9, -41, 31, -9, 9, -68, -29, -73, -34, 
-39, 9, 48, 14, -43, 29, -4, -4, -78, -53, -87, -53, 
-53, 4, 58, 24, -56, 31, 14, -9, -87, -63, -92, -58, 
-58, 4, 63, 26, -61, 34, 19, -19, -97, -68, -97, -63, 
-58, 0, 58, 29, -58, 29, 24, -24, -102, -78, -102, -63, 
-58, -4, 53, 31, -56, 24, 24, -24, -112, -82, -112, -73, 
-63, -4, 58, 34, -61, 26, 24, -24, -117, -82, -112, -73, 
-68, -4, 63, 36, -65, 29, 24, -29, -117, -87, -112, -68, 
-68, -9, 58, 39, -63, 24, 29, -29, -126, -92, -117, -68, 
-73, -9, 63, 41, -68, 26, 29, -34, -131, -92, -117, -73, 
-73, -4, 68, 39, -70, 31, 29, -34, -131, -102, -122, -73, 
-73, -4, 68, 39, -70, 31, 29, -39, -131, -112, -122, -73, 
-78, -4, 73, 41, -75, 34, 29, -39, -131, -117, -122, -73, 
-82, -4, 78, 43, -80, 36, 29, -39, -131, -122, -117, -73, 
-82, -4, 78, 43, -80, 36, 29, -43, -131, -122, -117, -73, 
-82, 0, 82, 41, -82, 41, 29, -43, -131, -122, -117, -68, 
-82, 0, 82, 41, -82, 41, 29, -48, -131, -122, -117, -68, 
-82, 4, 87, 39, -85, 46, 29, -48, -131, -122, -117, -68, 
-82, 4, 87, 39, -85, 46, 29, -48, -131, -122, -112, -63, 
-82, 9, 92, 36, -87, 51, 29, -53, -131, -117, -112, -63, 
-82, 9, 92, 36, -87, 51, 29, -53, -126, -112, -102, -53, 
-82, 9, 92, 36, -87, 51, 34, -53, -122, -112, -97, -48, 
-78, 14, 92, 31, -85, 53, 29, -58, -122, -107, -97, -48, 
-78, 14, 92, 31, -85, 53, 29, -58, -117, -97, -92, -48, 
-78, 19, 97, 29, -87, 58, 29, -58, -112, -92, -92, -43, 
-78, 24, 102, 26, -90, 63, 24, -58, -112, -82, -87, -39, 
-78, 24, 102, 26, -90, 63, 24, -63, -107, -82, -87, -39, 
-73, 29, 102, 21, -87, 65, 19, -63, -102, -78, -82, -34, 
-73, 24, 97, 24, -85, 61, 19, -63, -102, -73, -73, -29, 
-73, 19, 92, 26, -82, 56, 14, -63, -102, -68, -68, -29, 
-78, 19, 97, 29, -87, 58, 14, -68, -102, -63, -68, -29, 
-78, 19, 97, 29, -87, 58, 9, -68, -102, -63, -63, -29, 
-78, 19, 97, 29, -87, 58, 9, -68, -97, -63, -63, -29, 
-78, 14, 92, 31, -85, 53, 9, -68, -97, -63, -63, -29, 
-78, 14, 92, 31, -85, 53, 4, -73, -97, -63, -63, -29, 
-73, 14, 87, 29, -80, 51, 4, -73, -102, -63, -63, -29, 
-73, 14, 87, 29, -80, 51, 0, -68, -102, -63, -63, -29, 
-73, 14, 87, 29, -80, 51, 0, -63, -102, -63, -63, -34, 
-73, 14, 87, 29, -80, 51, 0, -68, -97, -63, -68, -34, 
-73, 9, 82, 31, -78, 46, 0, -68, -92, -63, -68, -34, 
-68, 4, 73, 31, -70, 39, -4, -68, -92, -68, -68, -29, 
-63, 0, 63, 31, -63, 31, -9, -68, -92, -68, -68, -29, 
-63, 4, 68, 29, -65, 36, -9, -68, -92, -68, -73, -34, 
-63, 4, 68, 29, -65, 36, -9, -68, -97, -68, -78, -34, 
-63, 0, 63, 31, -63, 31, -9, -73, -102, -68, -78, -34, 
-63, -4, 58, 34, -61, 26, -14, -73, -112, -73, -82, -39, 
-63, -4, 58, 34, -61, 26, -14, -78, -112, -78, -82, -39, 
-63, -4, 58, 34, -61, 26, -14, -78, -107, -82, -82, -39, 
-63, -4, 58, 34, -61, 26, -9, -78, -107, -82, -87, -39, 
-63, -4, 58, 34, -61, 26, -4, -78, -112, -82, -92, -39, 
-68, 0, 68, 34, -68, 34, -4, -78, -117, -82, -92, -43, 
-68, 0, 68, 34, -68, 34, -4, -78, -122, -78, -92, -43, 
-63, 0, 63, 31, -63, 31, -9, -78, -117, -82, -92, -43, 
-63, 0, 63, 31, -63, 31, -14, -73, -117, -82, -87, -48, 
-78, -4, 73, 41, -75, 34, -19, -78, -117, -82, -92, -48, 
-68, -9, 58, 39, -63, 24, -19, -82, -117, -87, -92, -43, 
-63, -14, 48, 39, -56, 17, -19, -87, -122, -97, -97, -53, 
-63, -14, 48, 39, -56, 17, -19, -92, -122, -102, -102, -58, 
-63, -24, 39, 43, -51, 7, -14, -92, -122, -97, -102, -58, 
-63, -19, 43, 41, -53, 12, -9, -92, -117, -97, -102, -58, 
-63, -9, 53, 36, -58, 21, -9, -82, -117, -97, -97, -58, 
-63, 0, 63, 31, -63, 31, -14, -73, -117, -97, -97, -53, 
-53, 4, 58, 24, -56, 31, -19, -82, -117, -87, -92, -43, 
-53, 0, 53, 26, -53, 26, -19, -87, -122, -87, -97, -48, 
-58, 0, 58, 29, -58, 29, -19, -92, -117, -97, -107, -53, 
-63, -9, 53, 36, -58, 21, -19, -92, -112, -97, -107, -53, 
-63, -9, 53, 36, -58, 21, -19, -92, -122, -102, -107, -48, 
-68, -9, 58, 39, -63, 24, -19, -92, -126, -102, -102, -48, 
-68, -9, 58, 39, -63, 24, -24, -92, -131, -102, -102, -58, 
-68, -9, 58, 39, -63, 24, -34, -87, -131, -97, -102, -58, 
-73, -14, 58, 43, -65, 21, -19, -82, -117, -87, -97, -53, 
-73, -14, 58, 43, -65, 21, -14, -82, -117, -82, -97, -53, 
-68, -14, 53, 41, -61, 19, -19, -87, -112, -92, -97, -53, 
-68, -14, 53, 41, -61, 19, -29, -87, -117, -92, -102, -58, 
-68, -14, 53, 41, -61, 19, -29, -92, -122, -102, -102, -53, 
-68, -9, 58, 39, -63, 24, -29, -92, -122, -102, -102, -53, 
-68, -14, 53, 41, -61, 19, -24, -92, -126, -107, -117, -68, 
-73, -9, 63, 41, -68, 26, -19, -102, -126, -102, -117, -68, 
-73, -9, 63, 41, -68, 26, -29, -102, -122, -102, -112, -68, 
-73, -9, 63, 41, -68, 26, -29, -97, -122, -97, -107, -63, 
-68, -9, 58, 39, -63, 24, -29, -97, -117, -97, -107, -58, 
-68, -9, 58, 39, -63, 24, -29, -97, -117, -97, -107, -58, 
-68, -9, 58, 39, -63, 24, -29, -97, -117, -97, -107, -58, 
-68, -9, 58, 39, -63, 24, -29, -97, -117, -97, -107, -58, 
-68, -9, 58, 39, -63, 24, -29, -97, -117, -97, -107, -58, 
-68, -9, 58, 39, -63, 24, -29, -97, -117, -97, -107, -58, 
-68, -9, 58, 39, -63, 24, -29, -97, -117, -97, -107, -58, 
-68, -9, 58, 39, -63, 24, -29, -97, -117, -97, -107, -58, 
-68, -9, 58, 39, -63, 24, -29, -97, -117, -97, -107, -58, 
-68, -9, 58, 39, -63, 24, -29, -97, -117, -97, -107, -58, 
-68, -9, 58, 39, -63, 24, -29, -97, -117, -97, -107, -58, 
-68, -9, 58, 39, -63, 24, -29, -97, -117, -97, -107, -58, 
-68, -9, 58, 39, -63, 24, -29, -97, -117, -102, -107, -58, 
-68, -9, 58, 39, -63, 24, -29, -97, -117, -107, -107, -58, 
-68, -9, 58, 39, -63, 24, -29, -97, -117, -107, -107, -58, 
-68, -9, 58, 39, -63, 24, -29, -97, -117, -107, -107, -58, 
-68, -9, 58, 39, -63, 24, -29, -97, -117, -102, -107, -58, 
-68, -9, 58, 39, -63, 24, -29, -97, -117, -97, -107, -58, 
-68, -9, 58, 39, -63, 24, -29, -97, -117, -97, -107, -58, 
-68, -9, 58, 39, -63, 24, -29, -97, -117, -97, -107, -58, 
-68, -9, 58, 39, -63, 24, -29, -97, -117, -97, -107, -58, 
-68, -9, 58, 39, -63, 24, -29, -97, -117, -97, -107, -58, 
-68, -9, 58, 39, -63, 24, -29, -92, -117, -97, -107, -58, 
-68, -9, 58, 39, -63, 24, -29, -87, -117, -97, -107, -58, 
-68, -9, 58, 39, -63, 24, -29, -87, -112, -97, -107, -58, 
-68, -9, 58, 39, -63, 24, -29, -87, -107, -97, -107, -58, 
-68, -14, 53, 41, -61, 19, -29, -92, -107, -97, -107, -58, 
-68, -19, 48, 43, -58, 14, -29, -97, -107, -97, -107, -58, 
-68, -19, 48, 43, -58, 14, -29, -97, -107, -97, -102, -58, 
-68, -19, 48, 43, -58, 14, -29, -97, -107, -97, -97, -58, 
-68, -19, 48, 43, -58, 14, -29, -97, -107, -97, -97, -58, 
-68, -19, 48, 43, -58, 14, -29, -97, -107, -97, -97, -58, 
-68, -14, 53, 41, -61, 19, -29, -97, -107, -97, -97, -58, 
-68, -9, 58, 39, -63, 24, -29, -97, -107, -97, -97, -58, 
-68, -9, 58, 39, -63, 24, -29, -97, -107, -97, -97, -58, 
-68, -9, 58, 39, -63, 24, -29, -97, -107, -97, -97, -58, 
-68, -4, 63, 36, -65, 29, -24, -92, -102, -92, -97, -58, 
-58, 0, 58, 29, -58, 29, -14, -82, -97, -87, -97, -53, 
-53, 0, 53, 26, -53, 26, -9, -78, -92, -87, -97, -53, 
-29, 9, 39, 9, -34, 24, -9, -68, -87, -87, -92, -48, 
4, 19, 14, -12, -4, 17, -9, -58, -78, -78, -82, -43, 
24, 39, 14, -31, 4, 26, -9, -48, -73, -63, -73, -34, 
24, 53, 29, -39, -2, 41, 0, -29, -63, -53, -63, -29, 
34, 73, 39, -53, -2, 56, 9, -9, -48, -43, -53, -14, 
34, 87, 53, -61, -9, 70, 39, 14, -29, -24, -39, 0, 
48, 117, 68, -82, -9, 92, 29, 19, -14, -9, -24, 24, 
73, 175, 102, -124, -14, 139, -78, -43, -39, -9, -19, 43, 
102, 200, 97, -151, 2, 148, -156, -87, -43, -9, -9, 48, 
131, 190, 58, -161, 36, 124, -195, -107, -58, -14, -9, 58, 
146, 190, 43, -168, 51, 117, -229, -126, -68, -14, 0, 63, 
151, 190, 39, -170, 56, 114, -204, -92, -48, -4, 14, 78, 
161, 185, 24, -173, 68, 104, -180, -73, -34, 9, 24, 92, 
185, 209, 24, -197, 80, 117, -165, -48, -14, 24, 48, 112, 
204, 219, 14, -212, 95, 117, -151, -39, -9, 29, 63, 126, 
209, 209, 0, -209, 104, 104, -141, -14, 9, 43, 73, 131, 
195, 195, 0, -195, 97, 97, -122, -9, 19, 48, 73, 136, 
92, 136, 43, -114, 24, 90, -92, -39, -4, 19, 34, 92, 
29, 92, 63, -61, -17, 78, -73, -63, -48, -19, -4, 48, 
-14, 43, 58, -14, -36, 51, -68, -87, -82, -58, -53, 0, 
-58, 14, 73, 21, -65, 43, -53, -112, -117, -92, -82, -34, 
-63, 9, 73, 26, -68, 41, -53, -102, -107, -97, -87, -43, 
-68, 4, 73, 31, -70, 39, -48, -92, -97, -97, -87, -48, 
-68, -9, 58, 39, -63, 24, -48, -92, -97, -97, -92, -48, 
-73, -19, 53, 46, -63, 17, -43, -92, -107, -97, -97, -48, 
-82, -19, 63, 51, -73, 21, -39, -92, -107, -97, -102, -58, 
-87, -19, 68, 53, -78, 24, -34, -97, -107, -97, -107, -58, 
-97, -24, 73, 61, -85, 24, -34, -97, -107, -107, -112, -58, 
-102, -29, 73, 65, -87, 21, -34, -92, -107, -107, -112, -63, 
-102, -34, 68, 68, -85, 17, -34, -92, -112, -107, -112, -63, 
-102, -39, 63, 70, -82, 12, -34, -92, -117, -107, -112, -63, 
-97, -39, 58, 68, -78, 9, -39, -92, -117, -107, -117, -68, 
-97, -39, 58, 68, -78, 9, -39, -92, -117, -107, -117, -68, 
-102, -43, 58, 73, -80, 7, -34, -92, -117, -107, -112, -68, 
-102, -43, 58, 73, -80, 7, -34, -87, -117, -107, -112, -68, 
-97, -34, 63, 65, -80, 14, -39, -97, -112, -97, -97, -58, 
-92, -24, 68, 58, -80, 21, -43, -102, -107, -92, -82, -48, 
-48, 9, 58, 19, -53, 34, -107, -200, -92, -19, -4, 19, 
-87, -24, 63, 56, -75, 19, -58, -126, -82, -68, -53, -29, 
-200, -161, 39, 180, -119, -61, 73, 19, -161, -263, -292, -219, 
-395, -307, 87, 351, -241, -109, 336, 331, -204, -541, -624, -492, 
-722, -439, 283, 580, -502, -78, 927, 1254, -53, -941, -1156, -956, 
-980, -556, 424, 768, -702, -65, 1473, 2342, 200, -1229, -1590, -1356, 
-1063, -678, 385, 871, -724, -146, 1961, 4880, 1185, -1342, -1927, -1703, 
-1044, -683, 361, 863, -702, -161, 2044, 5514, 1605, -1259, -1971, -1795, 
-995, -356, 639, 675, -817, 141, 1366, 1649, 414, -556, -1302, -1312, 
-751, -395, 356, 573, -553, -19, 595, -1556, -1151, -366, -873, -932, 
-117, -976, -858, 546, 370, -917, -385, -3996, -2771, -1054, -697, -541, 
165, -1639, -1805, 736, 985, -1722, -1000, -5572, -4328, -2200, -1024, -483, 
-131, -2449, -2318, 1290, 1093, -2383, -1117, -5831, -5655, -4089, -2288, -1073, 
-224, -2693, -2469, 1459, 1122, -2581, -1268, -5641, -5797, -4665, -2771, -1288, 
-263, -2259, -1995, 1261, 866, -2127, -1366, -4684, -4733, -3835, -2400, -1127, 
-292, -1786, -1493, 1039, 600, -1639, -1259, -3694, -3611, -2967, -1952, -922, 
-263, -1244, -980, 753, 358, -1112, -902, -2440, -2308, -1898, -1259, -585, 
-234, -819, -585, 527, 175, -702, -570, -1478, -1351, -1132, -761, -356, 
-122, -492, -370, 307, 124, -431, -380, -873, -751, -614, -405, -180, 
-68, -229, -161, 148, 46, -195, -219, -419, -292, -214, -131, -34, 
-48, -63, -14, 56, -17, -39, -78, -180, -58, -63, -4, 48, 
-48, 4, 53, 21, -51, 29, -14, -63, 48, 29, 48, 73, 
-58, 39, 97, 9, -78, 68, -14, -53, 53, 53, 53, 68, 
-68, 48, 117, 9, -92, 82, -14, -19, 68, 63, 53, 63, 
-68, 48, 117, 9, -92, 82, 4, 9, 92, 63, 53, 63, 
-63, 48, 112, 7, -87, 80, 24, 34, 102, 73, 58, 63, 
-63, 58, 122, 2, -92, 90, 29, 39, 117, 82, 63, 63, 
-68, 68, 136, 0, -102, 102, 39, 48, 122, 87, 58, 63, 
-68, 68, 136, 0, -102, 102, 39, 68, 136, 92, 58, 63, 
-68, 68, 136, 0, -102, 102, 48, 82, 146, 92, 63, 63, 
-63, 68, 131, -2, -97, 100, 48, 82, 146, 102, 68, 68, 
-63, 68, 131, -2, -97, 100, 48, 92, 151, 112, 68, 68, 
-63, 73, 136, -4, -100, 104, 53, 92, 156, 117, 63, 63, 
-63, 73, 136, -4, -100, 104, 58, 102, 151, 117, 63, 63, 
-63, 73, 136, -4, -100, 104, 58, 102, 156, 117, 78, 68, 
-68, 73, 141, -2, -104, 107, 58, 107, 161, 112, 78, 68, 
-68, 78, 146, -4, -107, 112, 63, 112, 165, 117, 82, 73, 
-68, 78, 146, -4, -107, 112, 68, 117, 170, 117, 82, 73, 
-63, 78, 141, -7, -102, 109, 68, 117, 175, 122, 78, 73, 
-63, 78, 141, -7, -102, 109, 68, 122, 180, 122, 73, 73, 
-63, 78, 141, -7, -102, 109, 68, 122, 185, 117, 73, 73, 
-63, 78, 141, -7, -102, 109, 68, 126, 185, 112, 73, 73, 
-58, 82, 141, -12, -100, 112, 68, 126, 190, 117, 78, 73, 
-58, 87, 146, -14, -102, 117, 68, 131, 195, 122, 87, 73, 
-58, 87, 146, -14, -102, 117, 68, 141, 195, 122, 87, 73, 
-53, 87, 141, -17, -97, 114, 68, 146, 209, 126, 82, 78, 
-53, 87, 141, -17, -97, 114, 63, 151, 209, 126, 87, 73, 
-48, 92, 141, -21, -95, 117, 58, 151, 214, 131, 87, 73, 
-43, 92, 136, -24, -90, 114, 58, 161, 219, 131, 92, 68, 
-43, 92, 136, -24, -90, 114, 58, 165, 224, 136, 92, 68, 
-43, 97, 141, -26, -92, 119, 53, 170, 229, 141, 92, 68, 
-39, 102, 141, -31, -90, 122, 53, 170, 234, 146, 92, 73, 
-34, 102, 136, -34, -85, 119, 58, 180, 244, 151, 97, 82, 
-34, 107, 141, -36, -87, 124, 58, 185, 248, 151, 107, 87, 
-29, 117, 146, -43, -87, 131, 58, 195, 258, 165, 117, 92, 
-24, 136, 161, -56, -92, 148, 53, 204, 263, 180, 126, 97, 
-19, 131, 151, -56, -85, 141, 53, 209, 268, 180, 126, 102, 
-14, 122, 136, -53, -75, 129, 53, 219, 278, 190, 126, 102, 
-19, 122, 141, -51, -80, 131, 48, 224, 287, 195, 117, 102, 
-19, 126, 146, -53, -82, 136, 43, 229, 297, 209, 126, 102, 
-9, 141, 151, -65, -80, 146, 34, 239, 302, 214, 131, 117, 
4, 151, 146, -78, -70, 148, 24, 244, 307, 219, 131, 117, 
14, 156, 141, -85, -63, 148, 24, 258, 312, 224, 146, 126, 
14, 161, 146, -87, -65, 153, 14, 263, 317, 239, 156, 136, 
24, 161, 136, -92, -56, 148, 24, 273, 336, 248, 161, 136, 
24, 156, 131, -90, -53, 143, 24, 283, 351, 258, 170, 141, 
34, 165, 131, -100, -48, 148, 19, 297, 361, 263, 175, 151, 
43, 170, 126, -107, -41, 148, 14, 312, 370, 273, 180, 156, 
48, 180, 131, -114, -41, 156, 14, 322, 380, 287, 190, 161, 
58, 185, 126, -122, -34, 156, 0, 336, 395, 292, 209, 165, 
68, 190, 122, -129, -26, 156, -4, 351, 409, 317, 224, 180, 
82, 200, 117, -141, -17, 158, -19, 366, 424, 326, 244, 190, 
97, 209, 112, -153, -7, 161, -24, 375, 439, 336, 248, 204, 
122, 214, 92, -168, 14, 153, -34, 390, 458, 346, 268, 214, 
136, 224, 87, -180, 24, 156, -43, 409, 473, 361, 283, 224, 
151, 239, 87, -195, 31, 163, -53, 429, 492, 380, 302, 239, 
165, 244, 78, -204, 43, 161, -63, 448, 517, 400, 317, 258, 
185, 258, 73, -222, 56, 165, -82, 473, 541, 409, 346, 278, 
214, 268, 53, -241, 80, 161, -92, 497, 556, 439, 366, 297, 
234, 287, 53, -261, 90, 170, -102, 527, 575, 458, 390, 317, 
273, 302, 29, -287, 122, 165, -117, 556, 614, 497, 419, 341, 
302, 322, 19, -312, 141, 170, -141, 585, 649, 522, 448, 366, 
341, 331, -9, -336, 175, 161, -170, 610, 678, 556, 492, 390, 
375, 356, -19, -366, 197, 168, -200, 634, 707, 600, 531, 419, 
409, 370, -39, -390, 224, 165, -224, 653, 736, 629, 561, 444, 
439, 390, -48, -414, 244, 170, -248, 673, 766, 658, 590, 473, 
473, 405, -68, -439, 270, 168, -253, 692, 795, 697, 634, 497, 
507, 414, -92, -461, 300, 161, -263, 722, 824, 741, 673, 531, 
556, 439, -117, -497, 336, 161, -297, 732, 849, 790, 722, 566, 
610, 458, -151, -534, 380, 153, -331, 736, 873, 824, 761, 590, 
629, 483, -146, -556, 387, 168, -351, 756, 912, 868, 800, 634, 
649, 502, -146, -575, 397, 178, -366, 771, 927, 902, 849, 668, 
678, 507, -170, -592, 424, 168, -385, 780, 936, 922, 873, 688, 
697, 517, -180, -607, 439, 168, -400, 775, 932, 936, 888, 697, 
712, 527, -185, -619, 448, 170, -400, 771, 927, 946, 897, 707, 
707, 522, -185, -614, 446, 168, -390, 756, 917, 936, 878, 702, 
688, 527, -161, -607, 424, 183, -390, 727, 883, 888, 854, 683, 
663, 512, -151, -588, 407, 180, -385, 683, 834, 844, 810, 649, 
600, 483, -117, -541, 358, 183, -380, 634, 761, 785, 736, 595, 
536, 448, -87, -492, 312, 180, -361, 585, 688, 717, 658, 536, 
478, 405, -73, -441, 275, 165, -326, 541, 629, 639, 585, 483, 
419, 361, -58, -390, 239, 151, -292, 492, 561, 570, 522, 429, 
356, 317, -39, -336, 197, 139, -258, 424, 473, 492, 434, 370, 
297, 278, -19, -287, 158, 129, -219, 361, 395, 409, 361, 312, 
234, 239, 4, -236, 114, 122, -190, 317, 341, 331, 297, 258, 
190, 204, 14, -197, 87, 109, -161, 283, 297, 273, 253, 214, 
151, 170, 19, -161, 65, 95, -136, 224, 224, 214, 190, 170, 
117, 141, 24, -129, 46, 82, -117, 175, 161, 156, 126, 122, 
73, 107, 34, -90, 19, 70, -87, 146, 117, 97, 73, 87, 
39, 78, 39, -58, 0, 58, -68, 122, 87, 53, 39, 53, 
29, 68, 39, -48, -4, 53, -58, 102, 48, 34, 9, 34, 
9, 53, 43, -31, -17, 48, -43, 78, 14, 9, -19, 14, 
-4, 39, 43, -17, -24, 41, -34, 58, 0, -14, -39, -4, 
-24, 19, 43, 2, -34, 31, -14, 48, -9, -24, -43, -9, 
-34, 9, 43, 12, -39, 26, -9, 34, -24, -29, -53, -19, 
-39, 0, 39, 19, -39, 19, -4, 24, -34, -39, -63, -24, 
-39, -4, 34, 21, -36, 14, -4, 14, -48, -48, -78, -39, 
-43, -4, 39, 24, -41, 17, 0, 4, -58, -53, -82, -43, 
-53, -4, 48, 29, -51, 21, 4, 0, -63, -63, -92, -43, 
-58, -9, 48, 34, -53, 19, 9, 0, -78, -73, -107, -48, 
-68, -9, 58, 39, -63, 24, 14, -9, -87, -73, -107, -53, 
-73, -4, 68, 39, -70, 31, 19, -14, -92, -78, -112, -53, 
-73, -4, 68, 39, -70, 31, 19, -19, -92, -87, -117, -53, 
-73, -4, 68, 39, -70, 31, 19, -19, -92, -92, -122, -53, 
-73, -9, 63, 41, -68, 26, 19, -19, -92, -92, -117, -58, 
-73, -14, 58, 43, -65, 21, 19, -24, -92, -92, -117, -63, 
-78, -9, 68, 43, -73, 29, 19, -24, -92, -92, -117, -58, 
-82, -9, 73, 46, -78, 31, 19, -29, -92, -92, -117, -58, 
-82, -4, 78, 43, -80, 36, 19, -29, -92, -92, -122, -63, 
-82, -4, 78, 43, -80, 36, 19, -29, -92, -92, -122, -63, 
-82, 0, 82, 41, -82, 41, 24, -34, -97, -87, -122, -63, 
-82, 0, 82, 41, -82, 41, 24, -34, -97, -82, -112, -53, 
-82, 0, 82, 41, -82, 41, 24, -34, -102, -87, -112, -48, 
-78, 4, 82, 36, -80, 43, 19, -39, -112, -92, -117, -48, 
-82, 4, 87, 39, -85, 46, 24, -39, -112, -102, -122, -53, 
-87, 4, 92, 41, -90, 48, 29, -39, -112, -112, -126, -53, 
-87, 4, 92, 41, -90, 48, 24, -39, -112, -102, -117, -48, 
-87, 4, 92, 41, -90, 48, 24, -43, -107, -102, -117, -48, 
-82, 9, 92, 36, -87, 51, 24, -43, -102, -92, -112, -43, 
-82, 9, 92, 36, -87, 51, 29, -43, -102, -87, -107, -39, 
-82, 9, 92, 36, -87, 51, 24, -48, -102, -87, -107, -39, 
-82, 9, 92, 36, -87, 51, 24, -58, -102, -82, -107, -39, 
-78, 9, 87, 34, -82, 48, 19, -63, -107, -92, -102, -39, 
-78, 9, 87, 34, -82, 48, 19, -68, -107, -97, -102, -39, 
-78, 9, 87, 34, -82, 48, 19, -68, -107, -92, -102, -39, 
-78, 14, 92, 31, -85, 53, 14, -73, -107, -92, -102, -39, 
-73, 14, 87, 29, -80, 51, 14, -68, -112, -87, -97, -34, 
-73, 14, 87, 29, -80, 51, 9, -63, -112, -82, -92, -29, 
-73, 9, 82, 31, -78, 46, 9, -63, -112, -82, -92, -34, 
-73, 4, 78, 34, -75, 41, 9, -68, -112, -82, -97, -34, 
-73, 0, 73, 36, -73, 36, 9, -73, -112, -82, -97, -34, 
-73, 0, 73, 36, -73, 36, 9, -78, -112, -87, -97, -29, 
-68, 0, 68, 34, -68, 34, 4, -78, -107, -82, -97, -29, 
-63, 4, 68, 29, -65, 36, 0, -78, -102, -78, -97, -34, 
-63, 0, 63, 31, -63, 31, 0, -73, -107, -78, -97, -34, 
-58, -4, 53, 31, -56, 24, 0, -73, -107, -78, -97, -34, 
-63, -4, 58, 34, -61, 26, -4, -73, -117, -92, -102, -43, 
-73, -4, 68, 39, -70, 31, -4, -78, -122, -102, -102, -48, 
-63, -4, 58, 34, -61, 26, -9, -82, -117, -102, -107, -48, 
-53, -4, 48, 29, -51, 21, -14, -87, -117, -102, -112, -48, 
-53, -4, 48, 29, -51, 21, -14, -87, -122, -102, -112, -48, 
-58, 0, 58, 29, -58, 29, -14, -87, -122, -102, -112, -48, 
-63, 0, 63, 31, -63, 31, -4, -87, -126, -97, -117, -48, 
-63, 0, 63, 31, -63, 31, -4, -87, -122, -97, -122, -53, 
-78, -9, 68, 43, -73, 29, 0, -82, -122, -92, -117, -58, 
-82, -19, 63, 51, -73, 21, 0, -82, -126, -92, -117, -58, 
-63, -24, 39, 43, -51, 7, -9, -87, -126, -107, -126, -63, 
-68, -24, 43, 46, -56, 9, -9, -92, -126, -117, -136, -73, 
-68, -29, 39, 48, -53, 4, -14, -97, -122, -112, -131, -73, 
-68, -39, 29, 53, -48, -4, -14, -92, -117, -102, -126, -73, 
-63, -29, 34, 46, -48, 2, -9, -82, -117, -97, -112, -68, 
-63, -29, 34, 46, -48, 2, -9, -82, -126, -97, -97, -58, 
-58, -19, 39, 39, -48, 9, -9, -78, -126, -97, -112, -43, 
-53, -19, 34, 36, -43, 7, -14, -87, -131, -97, -126, -43, 
-43, -4, 39, 24, -41, 17, -19, -92, -131, -107, -126, -58, 
-48, 0, 48, 24, -48, 24, -19, -92, -126, -117, -126, -63, 
-63, -14, 48, 39, -56, 17, -19, -92, -126, -117, -126, -63, 
-58, -4, 53, 31, -56, 24, -19, -92, -131, -122, -131, -68, 
-68, -19, 48, 43, -58, 14, -19, -92, -136, -122, -131, -68, 
-68, -29, 39, 48, -53, 4, -14, -92, -136, -122, -131, -68, 
-63, -29, 34, 46, -48, 2, -19, -87, -136, -117, -131, -68, 
-63, -34, 29, 48, -46, -2, -9, -87, -126, -117, -131, -68, 
-63, -24, 39, 43, -51, 7, -9, -92, -126, -117, -136, -73, 
-58, -14, 43, 36, -51, 14, -9, -97, -126, -131, -141, -73, 
-58, -14, 43, 36, -51, 14, -14, -92, -126, -126, -141, -73, 
-58, -19, 39, 39, -48, 9, -19, -92, -122, -122, -136, -68, 
-58, -19, 39, 39, -48, 9, -19, -87, -122, -107, -122, -68, 
-58, -29, 29, 43, -43, 0, -14, -82, -126, -102, -117, -78, 
-63, -29, 34, 46, -48, 2, -9, -92, -131, -112, -126, -78, 
-63, -29, 34, 46, -48, 2, -4, -92, -117, -117, -126, -68, 
-63, -29, 34, 46, -48, 2, 0, -87, -117, -112, -126, -68, 
-63, -34, 29, 48, -46, -2, 0, -87, -122, -112, -126, -68, 
-53, -24, 29, 39, -41, 2, -4, -82, -122, -117, -136, -78, 
-48, -19, 29, 34, -39, 4, -9, -78, -126, -126, -146, -87, 
-48, -19, 29, 34, -39, 4, 0, -78, -122, -117, -136, -73, 
-48, -19, 29, 34, -39, 4, 9, -78, -117, -107, -126, -58, 
-39, -9, 29, 24, -34, 9, 14, -73, -112, -102, -126, -58, 
-24, -9, 14, 17, -19, 2, 14, -63, -107, -97, -126, -58, 
-14, -9, 4, 12, -9, -2, 19, -58, -102, -97, -126, -58, 
9, -9, -19, 0, 14, -14, 9, -48, -97, -97, -122, -58, 
34, 4, -29, -19, 31, -12, 9, -39, -82, -87, -112, -53, 
43, 29, -14, -36, 29, 7, 9, -29, -73, -73, -102, -43, 
43, 58, 14, -51, 14, 36, 4, -24, -63, -63, -92, -39, 
53, 92, 39, -73, 7, 65, 0, -19, -48, -53, -82, -24, 
63, 122, 58, -92, 2, 90, -19, -14, -39, -29, -58, -4, 
87, 165, 78, -126, 4, 122, -78, -29, -34, -9, -34, 24, 
112, 200, 87, -156, 12, 143, -146, -78, -58, -9, -29, 43, 
141, 200, 58, -170, 41, 129, -185, -107, -63, -9, -19, 48, 
156, 185, 29, -170, 63, 107, -175, -92, -63, -14, -19, 58, 
156, 180, 24, -168, 65, 102, -161, -78, -58, -14, -9, 63, 
156, 175, 19, -165, 68, 97, -136, -43, -39, -9, 4, 73, 
161, 165, 4, -163, 78, 85, -112, -24, -24, 0, 14, 82, 
156, 161, 4, -158, 75, 82, -97, -19, -9, 9, 19, 82, 
146, 141, -4, -143, 75, 68, -82, -29, -9, 9, 14, 78, 
117, 102, -14, -109, 65, 43, -73, -29, -29, -9, -9, 34, 
68, 58, -9, -63, 39, 24, -53, -48, -58, -39, -43, -9, 
-14, 14, 29, 0, -21, 21, -34, -78, -82, -68, -82, -34, 
-58, -14, 43, 36, -51, 14, -24, -102, -126, -107, -122, -58, 
-63, -34, 29, 48, -46, -2, -24, -97, -122, -112, -136, -78, 
-68, -34, 34, 51, -51, 0, -14, -92, -117, -112, -131, -82, 
-73, -39, 34, 56, -53, -2, -14, -92, -117, -112, -131, -87, 
-78, -43, 34, 61, -56, -4, -9, -92, -117, -107, -126, -87, 
-68, -48, 19, 58, -43, -14, -14, -92, -117, -107, -126, -87, 
-63, -48, 14, 56, -39, -17, -14, -92, -126, -107, -126, -87, 
-68, -48, 19, 58, -43, -14, -14, -92, -122, -107, -131, -97, 
-68, -48, 19, 58, -43, -14, -14, -97, -117, -107, -136, -97, 
-78, -53, 24, 65, -51, -14, -4, -97, -117, -117, -141, -97, 
-82, -58, 24, 70, -53, -17, 4, -92, -117, -117, -141, -102, 
-82, -58, 24, 70, -53, -17, 4, -92, -117, -117, -136, -102, 
-82, -58, 24, 70, -53, -17, 4, -92, -117, -117, -131, -102, 
-82, -53, 29, 68, -56, -12, 0, -87, -117, -117, -136, -107, 
-87, -48, 39, 68, -63, -4, 0, -82, -117, -117, -136, -107, 
-92, -53, 39, 73, -65, -7, 4, -82, -117, -117, -131, -107, 
-92, -53, 39, 73, -65, -7, 4, -78, -117, -117, -131, -107, 
-107, -58, 48, 82, -78, -4, 19, -68, -112, -131, -156, -122, 
-122, -63, 58, 92, -90, -2, 34, -53, -107, -151, -180, -136, 
-165, -117, 48, 141, -107, -34, 107, 58, -102, -234, -292, -229, 
-292, -239, 53, 265, -173, -92, 292, 341, -102, -439, -531, -439, 
-473, -366, 107, 419, -290, -129, 566, 834, -78, -712, -888, -741, 
-736, -502, 234, 619, -485, -134, 971, 1493, -19, -1068, -1337, -1127, 
-907, -610, 297, 758, -602, -156, 1371, 2405, 185, -1342, -1722, -1468, 
-1010, -702, 307, 856, -658, -197, 1727, 3484, 492, -1503, -2010, -1747, 
-1049, -741, 307, 895, -678, -217, 1786, 3498, 517, -1434, -1981, -1756, 
-985, -663, 322, 824, -653, -170, 1439, 1610, -24, -1171, -1659, -1512, 
-941, -766, 175, 854, -558, -295, 873, -1761, -1605, -1302, -1385, -1180, 
-702, -1234, -531, 968, -85, -883, 214, -4474, -3562, -1947, -1351, -951, 
-483, -1849, -1366, 1166, 441, -1607, -297, -5338, -4528, -2903, -1703, -966, 
-614, -2547, -1932, 1581, 658, -2239, -444, -5338, -5431, -4318, -2557, -1312, 
-756, -2747, -1991, 1751, 617, -2369, -561, -4938, -5450, -4684, -2942, -1542, 
-692, -2381, -1688, 1537, 497, -2034, -712, -4089, -4284, -3738, -2547, -1395, 
-546, -1859, -1312, 1202, 383, -1586, -756, -3103, -3191, -2766, -1922, -1063, 
-390, -1298, -907, 844, 258, -1102, -595, -2083, -2039, -1756, -1220, -688, 
-268, -883, -614, 575, 173, -749, -414, -1283, -1180, -1010, -707, -409, 
-146, -585, -439, 366, 146, -512, -258, -775, -668, -566, -390, -239, 
-53, -307, -253, 180, 100, -280, -151, -405, -292, -234, -156, -102, 
-19, -92, -73, 56, 26, -82, -73, -185, -58, -19, -4, 4, 
-4, 4, 9, 0, -7, 7, 24, -39, 87, 68, 78, 58, 
-9, 4, 14, 2, -12, 9, 43, -14, 107, 97, 87, 53, 
-19, 34, 53, -7, -36, 43, 43, -9, 107, 117, 92, 48, 
-29, 39, 68, -4, -48, 53, 43, 19, 117, 122, 92, 43, 
-29, 39, 68, -4, -48, 53, 58, 39, 141, 117, 92, 43, 
-24, 39, 63, -7, -43, 51, 73, 53, 151, 122, 97, 43, 
-24, 48, 73, -12, -48, 61, 73, 58, 161, 131, 107, 43, 
-29, 58, 87, -14, -58, 73, 78, 68, 161, 136, 107, 43, 
-24, 58, 82, -17, -53, 70, 78, 78, 170, 151, 107, 48, 
-19, 58, 78, -19, -48, 68, 87, 82, 175, 161, 112, 53, 
-14, 58, 73, -21, -43, 65, 87, 82, 175, 156, 117, 58, 
-14, 58, 73, -21, -43, 65, 87, 92, 180, 151, 117, 58, 
-14, 63, 78, -24, -46, 70, 92, 92, 195, 156, 117, 53, 
-14, 63, 78, -24, -46, 70, 97, 102, 200, 156, 122, 53, 
-9, 63, 73, -26, -41, 68, 97, 102, 209, 165, 136, 58, 
-9, 63, 73, -26, -41, 68, 97, 107, 219, 170, 136, 58, 
-9, 68, 78, -29, -43, 73, 97, 107, 224, 175, 141, 58, 
-9, 68, 78, -29, -43, 73, 97, 107, 229, 175, 141, 53, 
-4, 68, 73, -31, -39, 70, 97, 107, 234, 185, 146, 53, 
-4, 68, 73, -31, -39, 70, 97, 112, 239, 190, 151, 53, 
-4, 68, 73, -31, -39, 70, 97, 112, 244, 190, 151, 58, 
-4, 68, 73, -31, -39, 70, 97, 117, 244, 190, 151, 63, 
0, 68, 68, -34, -34, 68, 102, 117, 248, 195, 151, 63, 
0, 68, 68, -34, -34, 68, 107, 122, 253, 200, 156, 63, 
0, 68, 68, -34, -34, 68, 107, 126, 253, 200, 161, 63, 
4, 68, 63, -36, -29, 65, 107, 126, 268, 204, 161, 68, 
4, 73, 68, -39, -31, 70, 102, 131, 268, 204, 165, 68, 
9, 82, 73, -46, -31, 78, 97, 131, 273, 209, 165, 73, 
14, 82, 68, -48, -26, 75, 97, 141, 278, 209, 170, 73, 
14, 82, 68, -48, -26, 75, 97, 146, 283, 214, 170, 78, 
14, 87, 73, -51, -29, 80, 92, 151, 287, 219, 175, 78, 
19, 92, 73, -56, -26, 82, 92, 151, 292, 224, 180, 82, 
24, 92, 68, -58, -21, 80, 92, 161, 302, 234, 190, 87, 
24, 97, 73, -61, -24, 85, 87, 165, 307, 239, 204, 87, 
29, 97, 68, -63, -19, 82, 87, 170, 317, 248, 209, 92, 
34, 107, 73, -70, -19, 90, 82, 175, 322, 258, 214, 97, 
39, 112, 73, -75, -17, 92, 82, 180, 326, 258, 224, 107, 
43, 112, 68, -78, -12, 90, 82, 190, 336, 268, 234, 112, 
48, 112, 63, -80, -7, 87, 78, 195, 346, 278, 234, 117, 
58, 117, 58, -87, 0, 87, 73, 200, 356, 297, 253, 122, 
58, 126, 68, -92, -4, 97, 68, 209, 370, 302, 258, 131, 
63, 131, 68, -97, -2, 100, 63, 214, 385, 307, 258, 126, 
73, 131, 58, -102, 7, 95, 68, 224, 395, 317, 273, 136, 
73, 131, 58, -102, 7, 95, 63, 224, 405, 336, 283, 146, 
82, 141, 58, -112, 12, 100, 63, 234, 424, 361, 297, 151, 
82, 146, 63, -114, 9, 104, 53, 244, 439, 385, 317, 161, 
92, 156, 63, -124, 14, 109, 48, 253, 458, 395, 326, 170, 
102, 161, 58, -131, 21, 109, 43, 263, 478, 409, 336, 175, 
112, 170, 58, -141, 26, 114, 43, 273, 492, 439, 351, 185, 
126, 175, 48, -151, 39, 112, 29, 287, 512, 458, 375, 195, 
136, 185, 48, -161, 43, 117, 24, 302, 531, 488, 390, 209, 
151, 200, 48, -175, 51, 124, 9, 317, 551, 502, 409, 219, 
161, 209, 48, -185, 56, 129, 4, 331, 580, 531, 424, 239, 
180, 214, 34, -197, 73, 124, -4, 351, 614, 561, 453, 253, 
195, 219, 24, -207, 85, 122, -14, 370, 639, 585, 473, 268, 
209, 229, 19, -219, 95, 124, -24, 390, 668, 614, 497, 287, 
229, 234, 4, -231, 112, 119, -39, 400, 702, 644, 517, 307, 
253, 248, -4, -251, 129, 122, -63, 414, 736, 663, 551, 326, 
283, 258, -24, -270, 153, 117, -78, 434, 771, 717, 585, 346, 
302, 278, -24, -290, 163, 126, -92, 458, 810, 761, 624, 366, 
336, 287, -48, -312, 192, 119, -107, 483, 854, 814, 663, 400, 
361, 302, -58, -331, 209, 122, -131, 507, 893, 854, 702, 434, 
390, 312, -78, -351, 234, 117, -156, 522, 927, 893, 746, 458, 
414, 336, -78, -375, 246, 129, -180, 536, 961, 941, 785, 488, 
448, 351, -97, -400, 273, 126, -209, 551, 1005, 995, 829, 522, 
478, 370, -107, -424, 292, 131, -239, 566, 1049, 1049, 873, 561, 
507, 385, -122, -446, 314, 131, -253, 575, 1078, 1093, 922, 585, 
536, 395, -141, -466, 339, 126, -273, 595, 1107, 1141, 966, 619, 
561, 419, -141, -490, 351, 139, -292, 605, 1132, 1200, 1019, 658, 
590, 439, -151, -514, 370, 143, -312, 610, 1156, 1244, 1063, 688, 
610, 458, -151, -534, 380, 153, -331, 614, 1180, 1273, 1088, 717, 
629, 473, -156, -551, 392, 158, -346, 614, 1180, 1293, 1122, 736, 
639, 473, -165, -556, 402, 153, -356, 619, 1171, 1293, 1132, 746, 
639, 478, -161, -558, 400, 158, -361, 610, 1146, 1288, 1132, 746, 
629, 488, -141, -558, 385, 173, -356, 585, 1083, 1239, 1102, 727, 
600, 483, -117, -541, 358, 183, -341, 551, 1015, 1171, 1044, 692, 
561, 468, -92, -514, 326, 187, -322, 531, 956, 1088, 990, 653, 
517, 434, -82, -475, 300, 175, -297, 497, 883, 1010, 917, 600, 
458, 405, -53, -431, 256, 175, -273, 453, 790, 912, 839, 541, 
400, 370, -29, -385, 214, 170, -234, 409, 697, 805, 756, 478, 
341, 326, -14, -334, 178, 156, -200, 370, 619, 702, 658, 409, 
283, 283, 0, -283, 141, 141, -165, 326, 531, 610, 570, 341, 
234, 244, 9, -239, 112, 126, -131, 278, 439, 512, 483, 278, 
190, 209, 19, -200, 85, 114, -92, 234, 356, 409, 409, 214, 
136, 170, 34, -153, 51, 102, -53, 200, 292, 326, 326, 161, 
102, 136, 34, -119, 34, 85, -14, 175, 239, 263, 263, 117, 
68, 102, 34, -85, 17, 68, 9, 141, 180, 209, 224, 82, 
39, 73, 34, -56, 2, 53, 29, 117, 131, 156, 185, 43, 
9, 48, 39, -29, -14, 43, 53, 92, 92, 112, 146, 19, 
-9, 29, 39, -9, -24, 34, 68, 73, 68, 82, 126, -4, 
-19, 19, 39, 0, -29, 29, 78, 58, 34, 63, 102, -19, 
-39, 4, 43, 17, -41, 24, 92, 39, 4, 39, 78, -34, 
-48, 0, 48, 24, -48, 24, 97, 24, -9, 14, 58, -53, 
-63, -9, 53, 36, -58, 21, 112, 19, -19, 4, 53, -58, 
-68, -14, 53, 41, -61, 19, 117, 9, -29, 4, 48, -63, 
-68, -19, 48, 43, -58, 14, 122, 4, -34, 0, 43, -63, 
-68, -24, 43, 46, -56, 9, 122, 4, -43, -4, 34, -73, 
-73, -24, 48, 48, -61, 12, 126, 4, -48, -4, 34, -73, 
-78, -24, 53, 51, -65, 14, 131, 0, -43, -9, 34, -68, 
-78, -29, 48, 53, -63, 9, 136, 0, -48, -14, 29, -68, 
-82, -29, 53, 56, -68, 12, 136, -4, -53, -9, 34, -73, 
-82, -24, 58, 53, -70, 17, 136, -4, -53, -9, 34, -73, 
-82, -19, 63, 51, -73, 21, 136, -9, -53, -14, 34, -73, 
-82, -14, 68, 48, -75, 26, 136, -9, -53, -14, 34, -73, 
-82, -14, 68, 48, -75, 26, 136, -9, -53, -14, 39, -73, 
-82, -14, 68, 48, -75, 26, 136, -14, -53, -14, 39, -73, 
-82, -9, 73, 46, -78, 31, 136, -14, -53, -14, 43, -68, 
-82, -9, 73, 46, -78, 31, 136, -19, -53, -14, 48, -68, 
-82, -4, 78, 43, -80, 36, 131, -19, -53, -14, 53, -68, 
-82, -4, 78, 43, -80, 36, 126, -19, -53, -14, 63, -63, 
-82, 0, 82, 41, -82, 41, 126, -24, -53, -9, 63, -63, 
-82, 0, 82, 41, -82, 41, 122, -24, -48, -4, 73, -53, 
-82, 0, 82, 41, -82, 41, 122, -24, -43, -4, 78, -48, 
-78, 4, 82, 36, -80, 43, 117, -29, -43, -4, 78, -48, 
-78, 4, 82, 36, -80, 43, 117, -29, -34, 0, 82, -48, 
-78, 4, 82, 36, -80, 43, 117, -29, -24, 4, 87, -43, 
-73, 4, 78, 34, -75, 41, 107, -24, -24, 14, 97, -39, 
-68, 4, 73, 31, -70, 39, 102, -24, -19, 14, 97, -39, 
-63, 14, 78, 24, -70, 46, 97, -24, -14, 19, 102, -29, 
-63, 19, 82, 21, -73, 51, 97, -24, -14, 19, 107, -19, 
-63, 19, 82, 21, -73, 51, 92, -24, -14, 19, 107, -19, 
-63, 19, 82, 21, -73, 51, 92, -29, -14, 24, 107, -19, 
-58, 14, 73, 21, -65, 43, 87, -29, -14, 24, 112, -19, 
-58, 9, 68, 24, -63, 39, 87, -29, -9, 29, 112, -19, 
-58, 4, 63, 26, -61, 34, 87, -29, -9, 39, 112, -19, 
-58, 4, 63, 26, -61, 34, 82, -34, -9, 43, 112, -19, 
-53, 4, 58, 24, -56, 31, 78, -34, -14, 43, 112, -19, 
-53, 4, 58, 24, -56, 31, 68, -34, -14, 43, 112, -19, 
-53, 4, 58, 24, -56, 31, 68, -34, -14, 43, 112, -24, 
-53, 4, 58, 24, -56, 31, 68, -39, -14, 43, 107, -24, 
-53, 0, 53, 26, -53, 26, 68, -43, -14, 43, 107, -24, 
-53, 0, 53, 26, -53, 26, 68, -48, -14, 39, 107, -19, 
-48, 0, 48, 24, -48, 24, 68, -43, -14, 34, 102, -24, 
-48, 0, 48, 24, -48, 24, 68, -39, -19, 29, 97, -29, 
-48, 0, 48, 24, -48, 24, 68, -39, -19, 29, 97, -29, 
-48, 0, 48, 24, -48, 24, 68, -39, -19, 29, 97, -29, 
-43, 9, 53, 17, -48, 31, 73, -34, -19, 29, 97, -29, 
-34, 14, 48, 9, -41, 31, 78, -24, -14, 24, 92, -24, 
-24, 19, 43, 2, -34, 31, 82, -19, -14, 19, 92, -24, 
0, 29, 29, -14, -14, 29, 78, -9, -9, 9, 92, -19, 
24, 39, 14, -31, 4, 26, 78, 0, 4, 14, 102, -14, 
34, 58, 24, -46, 4, 41, 78, 9, 14, 24, 112, -4, 
29, 73, 43, -51, -7, 58, 82, 14, 24, 29, 117, -4, 
34, 92, 58, -63, -12, 75, 87, 19, 39, 34, 122, 4, 
43, 117, 73, -80, -14, 95, 68, 19, 43, 48, 136, 19, 
68, 156, 87, -112, -9, 122, 9, 0, 43, 58, 151, 43, 
92, 190, 97, -141, -2, 143, -73, -58, 9, 58, 151, 63, 
122, 190, 68, -156, 26, 129, -126, -97, -4, 58, 156, 68, 
141, 180, 39, -161, 51, 109, -131, -82, -4, 58, 156, 78, 
146, 180, 34, -163, 56, 107, -131, -68, 0, 63, 165, 82, 
146, 190, 43, -168, 51, 117, -107, -43, 19, 73, 180, 97, 
151, 195, 43, -173, 53, 119, -82, -34, 34, 87, 190, 112, 
156, 200, 43, -178, 56, 122, -68, -4, 53, 107, 204, 126, 
156, 190, 34, -173, 61, 112, -53, 9, 58, 117, 209, 136, 
136, 151, 14, -143, 61, 82, -43, 9, 43, 97, 190, 107, 
97, 107, 9, -102, 43, 58, -24, -9, 19, 68, 161, 78, 
0, 53, 53, -26, -26, 53, 0, -48, -14, 29, 107, 29, 
-58, 14, 73, 21, -65, 43, 14, -82, -68, -19, 53, -19, 
-63, -9, 53, 36, -58, 21, 14, -82, -68, -29, 29, -43, 
-68, -14, 53, 41, -61, 19, 24, -82, -68, -34, 24, -53, 
-73, -19, 53, 46, -63, 17, 19, -82, -73, -48, 14, -63, 
-78, -24, 53, 51, -65, 14, 19, -82, -78, -58, 9, -68, 
-78, -34, 43, 56, -61, 4, 19, -82, -78, -58, 9, -68, 
-82, -39, 43, 61, -63, 2, 24, -82, -87, -58, 9, -68, 
-87, -43, 43, 65, -65, 0, 24, -82, -87, -63, 4, -78, 
-87, -48, 39, 68, -63, -4, 24, -87, -87, -68, 0, -78, 
-92, -53, 39, 73, -65, -7, 24, -92, -87, -78, -9, -78, 
-92, -58, 34, 75, -63, -12, 24, -92, -87, -78, -14, -82, 
-92, -58, 34, 75, -63, -12, 24, -92, -87, -78, -19, -82, 
-92, -58, 34, 75, -63, -12, 24, -92, -87, -78, -24, -82, 
-92, -53, 39, 73, -65, -7, 19, -92, -87, -82, -29, -82, 
-97, -48, 48, 73, -73, 0, 19, -92, -87, -87, -29, -78, 
-102, -53, 48, 78, -75, -2, 19, -92, -87, -87, -24, -78, 
-102, -53, 48, 78, -75, -2, 14, -87, -87, -87, -24, -78, 
-97, -48, 48, 73, -73, 0, 9, -97, -87, -73, -19, -73, 
-92, -43, 48, 68, -70, 2, 4, -102, -87, -63, -14, -68, 
-73, -43, 29, 58, -51, -7, -9, -141, -87, -48, 4, -43, 
-136, -112, 24, 124, -80, -43, 87, -9, -92, -156, -102, -136, 
-273, -258, 14, 265, -143, -122, 292, 170, -209, -434, -390, -361, 
-492, -414, 78, 453, -285, -168, 629, 517, -292, -795, -771, -668, 
-766, -551, 214, 658, -490, -168, 1229, 1459, -97, -1171, -1244, -1073, 
-971, -673, 297, 822, -634, -187, 1786, 2566, 200, -1434, -1620, -1415, 
-1034, -746, 287, 890, -661, -229, 2142, 4392, 932, -1473, -1844, -1659, 
-995, -702, 292, 849, -644, -204, 2093, 4313, 1098, -1317, -1776, -1649, 
-990, -483, 507, 736, -749, 12, 1342, 429, -326, -732, -1195, -1210, 
-790, -629, 161, 710, -475, -234, 497, -2796, -2127, -658, -854, -873, 
-307, -1332, -1024, 819, 358, -1178, -361, -4533, -3591, -1659, -932, -663, 
-175, -2117, -1942, 1146, 883, -2030, -854, -5407, -4992, -3118, -1512, -785, 
-444, -2698, -2254, 1571, 905, -2476, -951, -5436, -5792, -4445, -2503, -1288, 
-507, -2713, -2205, 1610, 849, -2459, -1083, -5016, -5407, -4460, -2713, -1415, 
-458, -2215, -1756, 1337, 649, -1986, -1137, -3996, -4240, -3489, -2196, -1146, 
-400, -1678, -1278, 1039, 439, -1478, -985, -2942, -3015, -2479, -1600, -834, 
-302, -1205, -902, 753, 300, -1054, -692, -1883, -1854, -1522, -990, -541, 
-204, -849, -644, 527, 219, -746, -424, -1117, -1039, -868, -575, -356, 
-97, -497, -400, 297, 151, -448, -268, -629, -527, -414, -258, -180, 
-48, -209, -161, 129, 56, -185, -141, -292, -156, -78, -24, -34, 
-29, -53, -24, 41, -2, -39, -19, -97, 48, 48, 82, 43, 
-29, 4, 34, 12, -31, 19, 24, -24, 126, 117, 117, 63, 
-39, 39, 78, 0, -58, 58, 24, -14, 126, 136, 122, 58, 
-48, 48, 97, 0, -73, 73, 24, 19, 136, 141, 122, 53, 
-48, 48, 97, 0, -73, 73, 43, 39, 161, 141, 117, 53, 
-43, 48, 92, -2, -68, 70, 63, 53, 170, 151, 117, 53, 
-43, 58, 102, -7, -73, 80, 63, 58, 175, 156, 126, 48, 
-48, 68, 117, -9, -82, 92, 68, 68, 170, 156, 126, 43, 
-48, 68, 117, -9, -82, 92, 68, 78, 180, 161, 126, 43, 
-48, 68, 117, -9, -82, 92, 78, 82, 185, 161, 131, 43, 
-43, 73, 117, -14, -80, 95, 78, 87, 185, 165, 136, 48, 
-43, 78, 122, -17, -82, 100, 78, 102, 190, 170, 136, 48, 
-43, 82, 126, -19, -85, 104, 78, 102, 200, 175, 126, 43, 
-43, 82, 126, -19, -85, 104, 78, 112, 200, 175, 122, 43, 
-39, 82, 122, -21, -80, 102, 78, 112, 204, 180, 136, 48, 
-39, 82, 122, -21, -80, 102, 78, 117, 209, 180, 136, 48, 
-39, 87, 126, -24, -82, 107, 78, 122, 214, 185, 141, 53, 
-39, 87, 126, -24, -82, 107, 78, 126, 219, 185, 141, 53, 
-34, 87, 122, -26, -78, 104, 78, 126, 224, 190, 136, 53, 
-34, 87, 122, -26, -78, 104, 78, 131, 229, 190, 131, 53, 
-29, 87, 117, -29, -73, 102, 78, 131, 234, 190, 131, 58, 
-24, 87, 112, -31, -68, 100, 78, 136, 234, 190, 131, 63, 
-19, 92, 112, -36, -65, 102, 78, 136, 239, 190, 131, 63, 
-19, 97, 117, -39, -68, 107, 78, 141, 244, 190, 136, 63, 
-24, 97, 122, -36, -73, 109, 78, 146, 244, 190, 136, 63, 
-24, 97, 122, -36, -73, 109, 78, 146, 258, 195, 131, 68, 
-24, 97, 122, -36, -73, 109, 73, 151, 258, 195, 136, 68, 
-19, 102, 122, -41, -70, 112, 68, 151, 263, 200, 136, 73, 
-9, 107, 117, -48, -63, 112, 68, 161, 268, 204, 141, 73, 
-4, 112, 117, -53, -61, 114, 68, 165, 273, 214, 141, 78, 
-4, 117, 122, -56, -63, 119, 63, 170, 278, 219, 146, 78, 
0, 122, 122, -61, -61, 122, 63, 170, 283, 224, 151, 82, 
4, 122, 117, -63, -56, 119, 58, 175, 287, 229, 151, 87, 
4, 126, 122, -65, -58, 124, 48, 175, 287, 229, 156, 87, 
4, 126, 122, -65, -58, 124, 48, 180, 297, 234, 161, 92, 
4, 136, 131, -70, -63, 134, 43, 185, 302, 239, 165, 97, 
9, 141, 131, -75, -61, 136, 43, 190, 307, 239, 165, 102, 
14, 141, 126, -78, -56, 134, 43, 200, 317, 248, 165, 102, 
19, 141, 122, -80, -51, 131, 39, 204, 326, 248, 161, 102, 
29, 146, 117, -87, -43, 131, 34, 209, 336, 258, 175, 102, 
29, 156, 126, -92, -48, 141, 24, 219, 346, 268, 185, 117, 
34, 161, 126, -97, -46, 143, 14, 224, 356, 278, 190, 117, 
43, 165, 122, -104, -39, 143, 14, 239, 366, 287, 204, 131, 
43, 170, 126, -107, -41, 148, 4, 244, 375, 307, 214, 146, 
58, 180, 122, -119, -31, 151, 4, 258, 395, 322, 224, 151, 
63, 185, 122, -124, -29, 153, -4, 273, 409, 336, 239, 161, 
78, 195, 117, -136, -19, 156, -9, 283, 424, 351, 248, 170, 
92, 200, 107, -146, -7, 153, -14, 292, 439, 370, 258, 175, 
97, 214, 117, -156, -9, 165, -14, 302, 453, 390, 268, 185, 
107, 224, 117, -165, -4, 170, -29, 317, 473, 400, 287, 195, 
112, 229, 117, -170, -2, 173, -29, 331, 497, 434, 302, 209, 
122, 239, 117, -180, 2, 178, -39, 346, 522, 453, 322, 219, 
131, 248, 117, -190, 7, 183, -43, 361, 541, 473, 331, 234, 
151, 253, 102, -202, 24, 178, -53, 380, 566, 492, 356, 244, 
165, 263, 97, -214, 34, 180, -63, 400, 590, 522, 370, 253, 
180, 278, 97, -229, 41, 187, -73, 419, 619, 556, 390, 268, 
195, 283, 87, -239, 53, 185, -82, 444, 653, 585, 409, 287, 
214, 297, 82, -256, 65, 190, -102, 473, 688, 605, 444, 307, 
244, 307, 63, -275, 90, 185, -117, 492, 717, 649, 468, 326, 
263, 326, 63, -295, 100, 195, -131, 517, 751, 683, 497, 346, 
297, 341, 43, -319, 126, 192, -146, 541, 795, 727, 531, 375, 
322, 361, 39, -341, 141, 200, -170, 566, 834, 756, 566, 405, 
356, 370, 14, -363, 170, 192, -190, 590, 873, 795, 610, 429, 
385, 395, 9, -390, 187, 202, -209, 614, 912, 844, 649, 458, 
419, 409, -9, -414, 214, 200, -234, 629, 946, 888, 688, 492, 
448, 429, -19, -439, 234, 204, -258, 644, 980, 932, 727, 531, 
478, 448, -29, -463, 253, 209, -273, 658, 1010, 971, 771, 556, 
507, 463, -43, -485, 275, 209, -292, 683, 1039, 1015, 810, 590, 
536, 488, -48, -512, 292, 219, -312, 692, 1063, 1063, 858, 624, 
570, 507, -63, -539, 317, 222, -331, 697, 1088, 1098, 897, 649, 
590, 527, -63, -558, 326, 231, -351, 702, 1117, 1127, 922, 678, 
610, 541, -68, -575, 339, 236, -366, 702, 1122, 1146, 956, 697, 
619, 541, -78, -580, 348, 231, -375, 697, 1112, 1156, 966, 707, 
619, 546, -73, -583, 346, 236, -380, 678, 1088, 1161, 966, 707, 
614, 546, -68, -580, 341, 239, -390, 644, 1029, 1122, 936, 697, 
590, 531, -58, -561, 324, 236, -390, 600, 966, 1063, 878, 673, 
551, 517, -34, -534, 292, 241, -375, 570, 902, 985, 834, 634, 
507, 483, -24, -495, 265, 229, -356, 527, 824, 912, 771, 580, 
453, 448, -4, -451, 229, 222, -336, 473, 732, 819, 692, 527, 
400, 409, 9, -405, 195, 209, -302, 419, 639, 717, 610, 468, 
346, 366, 19, -356, 163, 192, -273, 375, 561, 619, 522, 405, 
292, 322, 29, -307, 131, 175, -244, 326, 473, 531, 444, 341, 
239, 278, 39, -258, 100, 158, -209, 273, 380, 439, 356, 278, 
190, 239, 48, -214, 70, 143, -170, 224, 297, 341, 283, 214, 
136, 195, 58, -165, 39, 126, -141, 185, 229, 263, 209, 161, 
102, 156, 53, -129, 24, 104, -112, 156, 170, 204, 156, 117, 
68, 122, 53, -95, 7, 87, -87, 117, 107, 146, 107, 82, 
39, 92, 53, -65, -7, 73, -68, 87, 53, 87, 58, 43, 
9, 63, 53, -36, -21, 58, -43, 63, 14, 39, 19, 19, 
-9, 39, 48, -14, -29, 43, -29, 43, -9, 4, 0, -4, 
-14, 29, 43, -7, -29, 36, -19, 29, -39, -14, -24, -19, 
-29, 14, 43, 7, -36, 29, -4, 9, -63, -39, -48, -34, 
-39, 9, 48, 14, -43, 29, 0, -4, -78, -63, -73, -53, 
-53, 0, 53, 26, -53, 26, 14, -9, -87, -73, -82, -58, 
-58, -4, 53, 31, -56, 24, 14, -24, -102, -78, -87, -63, 
-58, -9, 48, 34, -53, 19, 14, -34, -112, -87, -92, -63, 
-58, -19, 39, 39, -48, 9, 14, -34, -122, -97, -107, -73, 
-63, -24, 39, 43, -51, 7, 19, -34, -126, -102, -112, -73, 
-73, -24, 48, 48, -61, 12, 24, -39, -126, -107, -112, -68, 
-78, -29, 48, 53, -63, 9, 29, -39, -136, -112, -117, -68, 
-82, -24, 58, 53, -70, 17, 29, -43, -146, -112, -117, -73, 
-82, -14, 68, 48, -75, 26, 29, -43, -151, -117, -122, -73, 
-82, -14, 68, 48, -75, 26, 29, -48, -151, -126, -122, -73, 
-82, -14, 68, 48, -75, 26, 29, -48, -151, -131, -122, -73, 
-82, -14, 68, 48, -75, 26, 29, -48, -151, -131, -117, -73, 
-82, -14, 68, 48, -75, 26, 29, -53, -151, -131, -117, -73, 
-82, -14, 68, 48, -75, 26, 29, -48, -146, -131, -117, -68, 
-82, -19, 63, 51, -73, 21, 29, -48, -141, -131, -117, -68, 
-78, -14, 63, 46, -70, 24, 29, -48, -136, -122, -117, -68, 
-73, -14, 58, 43, -65, 21, 29, -48, -131, -112, -112, -63, 
-73, -4, 68, 39, -70, 31, 29, -48, -126, -107, -112, -63, 
-73, 0, 73, 36, -73, 36, 24, -43, -117, -102, -102, -53, 
-73, 0, 73, 36, -73, 36, 24, -43, -112, -97, -97, -48, 
-68, 4, 73, 31, -70, 39, 19, -48, -112, -92, -97, -48, 
-68, 4, 73, 31, -70, 39, 19, -48, -107, -87, -92, -48, 
-68, 4, 73, 31, -70, 39, 19, -48, -102, -82, -87, -43, 
-73, 4, 78, 34, -75, 41, 14, -48, -102, -68, -78, -39, 
-78, 4, 82, 36, -80, 43, 14, -53, -97, -63, -78, -39, 
-73, 9, 82, 31, -78, 46, 9, -53, -92, -58, -73, -34, 
-73, 9, 82, 31, -78, 46, 9, -53, -92, -58, -68, -29, 
-68, 9, 78, 29, -73, 43, 9, -48, -92, -58, -68, -29, 
-63, 9, 73, 26, -68, 41, 14, -48, -92, -53, -68, -29, 
-58, 9, 68, 24, -63, 39, 9, -48, -92, -58, -63, -29, 
-58, 9, 68, 24, -63, 39, 9, -48, -87, -58, -63, -29, 
-63, 4, 68, 29, -65, 36, 9, -48, -87, -53, -63, -29, 
-68, 4, 73, 31, -70, 39, 4, -53, -87, -53, -63, -29, 
-63, 4, 68, 29, -65, 36, 9, -53, -87, -53, -63, -29, 
-63, 4, 68, 29, -65, 36, 9, -53, -82, -53, -63, -29, 
-63, 4, 68, 29, -65, 36, 9, -53, -82, -53, -63, -34, 
-63, 4, 68, 29, -65, 36, 9, -58, -82, -53, -68, -34, 
-63, 0, 63, 31, -63, 31, 4, -58, -87, -48, -68, -34, 
-63, 0, 63, 31, -63, 31, 0, -58, -92, -48, -68, -29, 
-63, -4, 58, 34, -61, 26, 0, -58, -92, -48, -73, -29, 
-63, -4, 58, 34, -61, 26, 0, -58, -92, -48, -78, -34, 
-68, -4, 63, 36, -65, 29, 0, -58, -97, -53, -78, -39, 
-68, -4, 63, 36, -65, 29, 0, -63, -97, -58, -78, -43, 
-63, -9, 53, 36, -58, 21, -4, -63, -102, -63, -82, -48, 
-63, -14, 48, 39, -56, 17, -4, -68, -102, -63, -82, -48, 
-63, -14, 48, 39, -56, 17, -4, -73, -97, -63, -82, -48, 
-63, -14, 48, 39, -56, 17, -4, -78, -97, -63, -82, -48, 
-63, -14, 48, 39, -56, 17, -4, -78, -102, -68, -82, -48, 
-68, -9, 58, 39, -63, 24, -4, -78, -102, -73, -82, -48, 
-68, -14, 53, 41, -61, 19, 4, -78, -112, -68, -87, -43, 
-63, -19, 43, 41, -53, 12, 4, -78, -112, -68, -92, -43, 
-78, -19, 58, 48, -68, 19, 4, -73, -107, -68, -92, -48, 
-82, -19, 63, 51, -73, 21, 0, -73, -107, -73, -97, -48, 
-58, -24, 34, 41, -46, 4, -9, -73, -107, -78, -97, -53, 
-58, -24, 34, 41, -46, 4, -9, -73, -107, -78, -97, -63, 
-58, -24, 34, 41, -46, 4, -14, -82, -112, -82, -97, -63, 
-58, -29, 29, 43, -43, 0, -14, -82, -117, -82, -97, -63, 
-53, -24, 29, 39, -41, 2, -9, -73, -117, -78, -92, -68, 
-53, -29, 24, 41, -39, -2, -9, -73, -126, -78, -87, -68, 
-53, -19, 34, 36, -43, 7, -4, -68, -117, -78, -87, -53, 
-53, -19, 34, 36, -43, 7, -4, -78, -112, -78, -87, -53, 
-43, -9, 34, 26, -39, 12, -9, -82, -117, -82, -92, -58, 
-48, -9, 39, 29, -43, 14, -9, -82, -117, -87, -97, -53, 
-63, -29, 34, 46, -48, 2, -9, -82, -117, -82, -97, -48, 
-58, -24, 34, 41, -46, 4, -9, -82, -122, -82, -102, -48, 
-68, -24, 43, 46, -56, 9, -9, -82, -126, -82, -97, -53, 
-68, -19, 48, 43, -58, 14, -4, -82, -126, -82, -92, -58, 
-63, -19, 43, 41, -53, 12, -14, -78, -122, -78, -92, -58, 
-63, -24, 39, 43, -51, 7, -9, -78, -107, -78, -92, -58, 
-63, -24, 39, 43, -51, 7, -9, -82, -107, -73, -97, -63, 
-58, -24, 34, 41, -46, 4, -9, -87, -107, -82, -102, -63, 
-58, -19, 39, 39, -48, 9, -9, -82, -112, -82, -102, -63, 
-58, -19, 39, 39, -48, 9, -9, -82, -112, -82, -97, -58, 
-58, -19, 39, 39, -48, 9, -9, -82, -112, -78, -97, -63, 
-58, -29, 29, 43, -43, 0, -4, -82, -117, -82, -107, -78, 
-63, -29, 34, 46, -48, 2, -4, -92, -122, -82, -107, -78, 
-63, -29, 34, 46, -48, 2, -4, -92, -107, -78, -97, -68, 
-53, -24, 29, 39, -41, 2, 0, -82, -112, -78, -97, -63, 
-48, -19, 29, 34, -39, 4, 0, -78, -117, -78, -97, -58, 
-48, -19, 29, 34, -39, 4, 0, -78, -112, -78, -97, -58, 
-48, -19, 29, 34, -39, 4, 0, -78, -107, -78, -97, -58, 
-43, -9, 34, 26, -39, 12, 14, -68, -97, -68, -92, -53, 
-29, -4, 24, 17, -26, 9, 19, -58, -87, -63, -87, -48, 
-19, 0, 19, 9, -19, 9, 29, -48, -82, -58, -87, -43, 
9, 9, 0, -9, 4, 4, 19, -39, -78, -58, -82, -39, 
34, 24, -9, -29, 21, 7, 19, -24, -63, -43, -68, -29, 
43, 48, 4, -46, 19, 26, 19, -9, -53, -24, -53, -14, 
43, 63, 19, -53, 12, 41, 19, 4, -43, -14, -43, -9, 
53, 82, 29, -68, 12, 56, 19, 19, -29, -4, -34, 4, 
58, 102, 43, -80, 7, 73, 0, 4, -24, 4, -19, 14, 
78, 136, 58, -107, 9, 97, -58, -29, -24, 9, -4, 34, 
102, 170, 68, -136, 17, 119, -141, -82, -53, 0, 0, 53, 
131, 170, 39, -151, 46, 104, -195, -117, -63, -9, 9, 58, 
161, 161, 0, -161, 80, 80, -195, -102, -63, 0, 9, 68, 
175, 161, -14, -168, 95, 73, -190, -87, -58, 14, 19, 73, 
175, 170, -4, -173, 90, 82, -165, -63, -39, 29, 34, 87, 
180, 175, -4, -178, 92, 85, -141, -53, -24, 48, 43, 102, 
190, 185, -4, -187, 97, 90, -126, -29, -4, 58, 58, 117, 
195, 180, -14, -187, 104, 82, -112, -19, 0, 58, 63, 126, 
165, 141, -24, -153, 95, 58, -97, -14, -4, 48, 53, 97, 
117, 97, -19, -107, 68, 39, -73, -29, -19, 29, 34, 68, 
14, 43, 29, -29, -7, 36, -48, -58, -53, -9, -14, 19, 
-48, 4, 53, 21, -51, 29, -34, -82, -107, -58, -63, -29, 
-53, -19, 34, 36, -43, 7, -34, -82, -107, -68, -87, -48, 
-58, -24, 34, 41, -46, 4, -24, -82, -107, -73, -92, -53, 
-63, -29, 34, 46, -48, 2, -24, -82, -107, -82, -97, -58, 
-68, -34, 34, 51, -51, 0, -19, -82, -107, -87, -97, -58, 
-68, -43, 24, 56, -46, -9, -19, -82, -107, -87, -97, -58, 
-73, -48, 24, 61, -48, -12, -14, -82, -117, -87, -97, -58, 
-78, -48, 29, 63, -53, -9, -14, -82, -117, -87, -102, -68, 
-78, -48, 29, 63, -53, -9, -14, -87, -117, -87, -107, -68, 
-82, -53, 29, 68, -56, -12, -14, -87, -117, -97, -112, -68, 
-82, -58, 24, 70, -53, -17, -14, -82, -117, -97, -112, -73, 
-87, -63, 24, 75, -56, -19, -14, -82, -117, -97, -112, -73, 
-92, -68, 24, 80, -58, -21, -14, -82, -117, -97, -112, -73, 
-92, -68, 24, 80, -58, -21, -14, -82, -117, -97, -117, -78, 
-97, -68, 29, 82, -63, -19, -9, -82, -117, -97, -117, -78, 
-102, -73, 29, 87, -65, -21, 0, -82, -117, -97, -112, -78, 
-102, -73, 29, 87, -65, -21, 4, -78, -117, -97, -112, -78, 
-102, -68, 34, 85, -68, -17, 4, -78, -112, -92, -107, -78, 
-102, -63, 39, 82, -70, -12, 4, -73, -107, -92, -102, -78, 
-122, -87, 34, 104, -78, -26, 34, -29, -102, -122, -146, -112, 
-224, -180, 43, 202, -134, -68, 175, 185, -102, -273, -317, -263, 
-395, -326, 68, 361, -231, -129, 458, 570, -126, -546, -649, -531, 
-649, -483, 165, 566, -407, -158, 873, 1122, -117, -902, -1073, -883, 
-878, -585, 292, 732, -585, -146, 1366, 2152, 175, -1166, -1488, -1254, 
-1039, -673, 366, 856, -702, -153, 1815, 3347, 570, -1317, -1805, -1561, 
-1000, -732, 268, 866, -634, -231, 1844, 4089, 854, -1293, -1854, -1649, 
-858, -673, 185, 766, -522, -244, 1468, 2928, 570, -1073, -1610, -1483, 
-702, -600, 102, 651, -402, -248, 683, -766, -883, -712, -1093, -1034, 
-351, -893, -541, 622, 95, -717, -195, -3801, -2713, -863, -814, -688, 
14, -1551, -1566, 768, 790, -1559, -849, -5143, -4021, -1981, -1063, -580, 
29, -2293, -2322, 1132, 1176, -2308, -1137, -5621, -5265, -3557, -1815, -805, 
-219, -2610, -2391, 1415, 1085, -2501, -1156, -5353, -5592, -4367, -2532, -1185, 
-263, -2361, -2098, 1312, 917, -2230, -1210, -4636, -4733, -3864, -2469, -1190, 
-283, -1864, -1581, 1073, 649, -1722, -1141, -3591, -3616, -2942, -1942, -941, 
-292, -1327, -1034, 810, 370, -1180, -868, -2513, -2440, -1981, -1337, -649, 
-224, -883, -658, 553, 217, -771, -575, -1522, -1420, -1141, -785, -370, 
-156, -556, -400, 356, 122, -478, -307, -824, -746, -605, -429, -200, 
-73, -307, -234, 190, 80, -270, -175, -429, -346, -258, -180, -73, 
-48, -122, -73, 85, 12, -97, -73, -185, -87, -29, -14, 24, 
-34, -9, 24, 21, -29, 7, 9, -39, 63, 53, 58, 78, 
-39, 4, 43, 17, -41, 24, 14, -14, 87, 78, 58, 73, 
-48, 34, 82, 7, -65, 58, 24, -4, 87, 97, 63, 68, 
-58, 39, 97, 9, -78, 68, 34, 29, 97, 102, 63, 63, 
-58, 39, 97, 9, -78, 68, 53, 48, 122, 102, 63, 63, 
-53, 39, 92, 7, -73, 65, 73, 63, 131, 112, 68, 63, 
-53, 48, 102, 2, -78, 75, 73, 68, 141, 122, 73, 58, 
-58, 58, 117, 0, -87, 87, 78, 78, 141, 126, 68, 53, 
-58, 58, 117, 0, -87, 87, 78, 92, 151, 131, 68, 53, 
-58, 58, 117, 0, -87, 87, 87, 102, 156, 131, 73, 53, 
-53, 58, 112, -2, -82, 85, 87, 102, 156, 131, 78, 58, 
-53, 58, 112, -2, -82, 85, 87, 112, 161, 131, 78, 58, 
-53, 63, 117, -4, -85, 90, 92, 112, 170, 136, 73, 53, 
-53, 63, 117, -4, -85, 90, 97, 122, 170, 136, 73, 53, 
-48, 63, 112, -7, -80, 87, 97, 122, 175, 141, 82, 58, 
-48, 63, 112, -7, -80, 87, 97, 126, 180, 141, 78, 58, 
-48, 68, 117, -9, -82, 92, 97, 131, 180, 141, 82, 63, 
-48, 68, 117, -9, -82, 92, 97, 136, 180, 136, 82, 63, 
-43, 68, 112, -12, -78, 90, 97, 136, 185, 141, 82, 63, 
-43, 68, 112, -12, -78, 90, 97, 141, 190, 141, 82, 63, 
-43, 68, 112, -12, -78, 90, 97, 141, 195, 141, 82, 63, 
-43, 68, 112, -12, -78, 90, 97, 146, 195, 141, 82, 63, 
-39, 73, 112, -17, -75, 92, 97, 146, 200, 146, 82, 63, 
-39, 78, 117, -19, -78, 97, 97, 151, 204, 151, 87, 63, 
-39, 78, 117, -19, -78, 97, 97, 156, 204, 151, 92, 63, 
-34, 78, 112, -21, -73, 95, 97, 156, 219, 156, 92, 68, 
-34, 78, 112, -21, -73, 95, 92, 161, 224, 161, 97, 68, 
-29, 82, 112, -26, -70, 97, 87, 161, 234, 170, 97, 73, 
-24, 82, 107, -29, -65, 95, 87, 170, 239, 170, 102, 68, 
-24, 82, 107, -29, -65, 95, 87, 175, 244, 175, 102, 68, 
-24, 87, 112, -31, -68, 100, 82, 180, 248, 180, 102, 68, 
-19, 92, 112, -36, -65, 102, 82, 180, 253, 185, 102, 73, 
-14, 92, 107, -39, -61, 100, 82, 190, 263, 190, 107, 78, 
-14, 97, 112, -41, -63, 104, 78, 195, 268, 190, 117, 78, 
-14, 97, 112, -41, -63, 104, 82, 204, 278, 200, 122, 82, 
-14, 107, 122, -46, -68, 114, 82, 214, 283, 209, 126, 87, 
-9, 117, 126, -53, -68, 122, 78, 219, 287, 209, 126, 92, 
-4, 122, 126, -58, -65, 124, 73, 229, 297, 219, 126, 92, 
0, 122, 122, -61, -61, 122, 68, 234, 307, 224, 126, 97, 
9, 126, 117, -68, -53, 122, 63, 239, 317, 239, 146, 102, 
9, 131, 122, -70, -56, 126, 58, 248, 326, 248, 156, 117, 
14, 131, 117, -73, -51, 124, 53, 253, 336, 258, 161, 117, 
24, 136, 112, -80, -43, 124, 53, 268, 346, 263, 175, 126, 
24, 141, 117, -82, -46, 129, 43, 273, 356, 278, 185, 136, 
39, 151, 112, -95, -36, 131, 43, 283, 375, 292, 190, 141, 
43, 156, 112, -100, -34, 134, 34, 292, 390, 307, 200, 151, 
53, 165, 112, -109, -29, 139, 29, 307, 405, 317, 209, 161, 
63, 170, 107, -117, -21, 139, 24, 322, 419, 331, 219, 165, 
68, 185, 117, -126, -24, 151, 24, 331, 429, 351, 229, 175, 
78, 195, 117, -136, -19, 156, 9, 346, 444, 361, 248, 185, 
87, 200, 112, -143, -12, 156, 9, 361, 463, 390, 263, 200, 
102, 209, 107, -156, -2, 158, 0, 375, 483, 405, 283, 209, 
112, 224, 112, -168, 0, 168, -9, 390, 502, 419, 287, 224, 
131, 234, 102, -183, 14, 168, -24, 409, 527, 434, 307, 234, 
151, 244, 92, -197, 29, 168, -34, 434, 551, 458, 326, 248, 
170, 258, 87, -214, 41, 173, -43, 458, 580, 488, 351, 268, 
190, 263, 73, -226, 58, 168, -53, 478, 610, 517, 375, 287, 
214, 278, 63, -246, 75, 170, -73, 502, 639, 536, 414, 307, 
244, 287, 43, -265, 100, 165, -87, 527, 673, 580, 439, 326, 
263, 307, 43, -285, 109, 175, -102, 556, 712, 614, 468, 346, 
297, 326, 29, -312, 134, 178, -112, 585, 751, 658, 502, 375, 
322, 351, 29, -336, 146, 190, -131, 614, 785, 688, 536, 405, 
356, 366, 9, -361, 173, 187, -151, 639, 824, 727, 580, 429, 
385, 395, 9, -390, 187, 202, -170, 663, 863, 775, 619, 458, 
419, 414, -4, -417, 212, 204, -195, 688, 902, 819, 653, 488, 
448, 439, -9, -444, 229, 214, -219, 712, 941, 863, 688, 522, 
478, 453, -24, -466, 251, 214, -234, 727, 976, 902, 732, 546, 
507, 463, -43, -485, 275, 209, -253, 751, 1010, 946, 771, 580, 
536, 488, -48, -512, 292, 219, -273, 766, 1034, 995, 819, 614, 
570, 507, -63, -539, 317, 222, -292, 775, 1058, 1029, 858, 639, 
590, 527, -63, -558, 326, 231, -312, 785, 1088, 1058, 883, 668, 
610, 541, -68, -575, 339, 236, -326, 790, 1093, 1078, 917, 688, 
619, 541, -78, -580, 348, 231, -336, 790, 1083, 1083, 927, 697, 
619, 546, -73, -583, 346, 236, -341, 775, 1058, 1083, 927, 697, 
614, 541, -73, -578, 344, 234, -346, 736, 1010, 1044, 902, 683, 
590, 522, -68, -556, 329, 226, -341, 688, 956, 985, 849, 653, 
556, 507, -48, -531, 302, 229, -326, 658, 897, 912, 805, 619, 
517, 473, -43, -495, 280, 214, -307, 614, 824, 844, 741, 570, 
463, 434, -29, -448, 246, 202, -297, 551, 732, 761, 663, 522, 
409, 390, -19, -400, 214, 185, -273, 488, 639, 668, 580, 468, 
351, 346, -4, -348, 178, 170, -244, 439, 566, 580, 497, 405, 
292, 302, 9, -297, 141, 156, -214, 385, 483, 502, 424, 341, 
244, 258, 14, -251, 114, 136, -185, 326, 395, 419, 341, 283, 
200, 219, 19, -209, 90, 119, -151, 273, 317, 331, 273, 224, 
146, 180, 34, -163, 56, 107, -126, 234, 253, 253, 200, 170, 
112, 146, 34, -129, 39, 90, -102, 204, 200, 195, 146, 126, 
82, 117, 34, -100, 24, 75, -78, 156, 141, 141, 97, 97, 
58, 92, 34, -75, 12, 63, -58, 117, 92, 87, 48, 63, 
29, 68, 39, -48, -4, 53, -39, 92, 53, 48, 9, 39, 
9, 48, 39, -29, -14, 43, -29, 73, 29, 24, -9, 14, 
0, 39, 39, -19, -19, 39, -19, 58, 0, 4, -29, 4, 
-19, 24, 43, -2, -31, 34, -4, 39, -24, -19, -48, -4, 
-29, 14, 43, 7, -36, 29, 0, 24, -39, -43, -68, -24, 
-43, 0, 43, 21, -43, 21, 14, 19, -48, -53, -73, -29, 
-48, -4, 43, 26, -46, 19, 19, 4, -58, -58, -78, -39, 
-48, -9, 39, 29, -43, 14, 24, -4, -63, -68, -82, -43, 
-53, -14, 39, 34, -46, 12, 24, -4, -73, -78, -92, -53, 
-63, -14, 48, 39, -56, 17, 29, -4, -78, -82, -92, -53, 
-68, -14, 53, 41, -61, 19, 29, -9, -78, -87, -92, -48, 
-68, -19, 48, 43, -58, 14, 29, -9, -87, -92, -97, -48, 
-73, -19, 53, 46, -63, 17, 29, -19, -97, -92, -97, -53, 
-73, -14, 58, 43, -65, 21, 29, -24, -102, -97, -102, -53, 
-73, -14, 58, 43, -65, 21, 29, -29, -102, -102, -107, -53, 
-73, -14, 58, 43, -65, 21, 29, -29, -102, -102, -112, -53, 
-73, -14, 58, 43, -65, 21, 29, -29, -102, -102, -107, -53, 
-73, -14, 58, 43, -65, 21, 29, -34, -102, -102, -107, -53, 
-78, -9, 68, 43, -73, 29, 29, -34, -107, -102, -107, -48, 
-82, -9, 73, 46, -78, 31, 29, -39, -112, -102, -107, -48, 
-82, -4, 78, 43, -80, 36, 34, -39, -117, -107, -112, -53, 
-82, -4, 78, 43, -80, 36, 39, -39, -122, -112, -112, -53, 
-82, 0, 82, 41, -82, 41, 39, -43, -122, -117, -117, -53, 
-82, 0, 82, 41, -82, 41, 34, -43, -117, -122, -112, -43, 
-82, 0, 82, 41, -82, 41, 39, -43, -117, -122, -107, -39, 
-78, 4, 82, 36, -80, 43, 39, -48, -122, -122, -107, -39, 
-82, 4, 87, 39, -85, 46, 39, -48, -117, -117, -107, -39, 
-87, 4, 92, 41, -90, 48, 39, -48, -112, -112, -107, -34, 
-87, 4, 92, 41, -90, 48, 34, -48, -112, -102, -102, -29, 
-87, 4, 92, 41, -90, 48, 34, -53, -107, -102, -107, -29, 
-82, 9, 92, 36, -87, 51, 29, -53, -102, -97, -102, -29, 
-82, 9, 92, 36, -87, 51, 29, -53, -102, -97, -97, -29, 
-82, 9, 92, 36, -87, 51, 29, -53, -102, -97, -92, -29, 
-82, 9, 92, 36, -87, 51, 34, -58, -102, -92, -87, -29, 
-78, 9, 87, 34, -82, 48, 29, -58, -102, -92, -82, -24, 
-78, 9, 87, 34, -82, 48, 29, -58, -97, -87, -82, -19, 
-78, 4, 82, 36, -80, 43, 24, -58, -97, -82, -78, -19, 
-78, 4, 82, 36, -80, 43, 14, -63, -97, -82, -73, -19, 
-73, 4, 78, 34, -75, 41, 14, -63, -97, -78, -73, -14, 
-73, 4, 78, 34, -75, 41, 9, -63, -92, -73, -73, -9, 
-68, 4, 73, 31, -70, 39, 9, -63, -92, -73, -73, -14, 
-63, 4, 68, 29, -65, 36, 9, -68, -92, -73, -78, -14, 
-63, 0, 63, 31, -63, 31, 4, -68, -92, -73, -78, -19, 
-63, 0, 63, 31, -63, 31, 0, -68, -92, -78, -78, -19, 
-63, 0, 63, 31, -63, 31, 0, -68, -92, -82, -78, -19, 
-63, 4, 68, 29, -65, 36, 0, -68, -92, -87, -78, -24, 
-63, 4, 68, 29, -65, 36, 0, -68, -97, -87, -78, -24, 
-58, 4, 63, 26, -61, 34, 0, -73, -97, -87, -78, -24, 
-58, 0, 58, 29, -58, 29, -4, -73, -102, -87, -82, -29, 
-63, -4, 58, 34, -61, 26, -4, -78, -102, -82, -82, -29, 
-63, -4, 58, 34, -61, 26, -4, -78, -97, -82, -82, -29, 
-63, -4, 58, 34, -61, 26, -4, -78, -97, -82, -82, -29, 
-63, -9, 53, 36, -58, 21, 0, -78, -102, -87, -87, -29, 
-68, -9, 58, 39, -63, 24, 4, -78, -102, -92, -92, -29, 
-68, -9, 58, 39, -63, 24, 9, -78, -102, -92, -92, -29, 
-63, -9, 53, 36, -58, 21, 4, -78, -92, -97, -92, -34, 
-78, -14, 63, 46, -70, 24, 4, -73, -87, -92, -87, -39, 
-82, -19, 63, 51, -73, 21, 0, -73, -87, -92, -87, -39, 
-63, -24, 39, 43, -51, 7, -9, -73, -92, -97, -92, -34, 
-68, -24, 43, 46, -56, 9, -9, -73, -97, -97, -97, -34, 
-68, -24, 43, 46, -56, 9, -9, -78, -102, -102, -97, -34, 
-68, -29, 39, 48, -53, 4, -4, -73, -107, -102, -97, -34, 
-63, -19, 43, 41, -53, 12, 0, -63, -97, -102, -97, -39, 
-63, -19, 43, 41, -53, 12, 0, -63, -97, -107, -97, -39, 
-58, -9, 48, 34, -53, 19, 0, -58, -97, -107, -97, -24, 
-53, -9, 43, 31, -48, 17, -4, -68, -102, -107, -97, -24, 
-43, 0, 43, 21, -43, 21, -9, -73, -107, -107, -102, -34, 
-48, 0, 48, 24, -48, 24, -9, -73, -107, -107, -107, -34, 
-63, -19, 43, 41, -53, 12, -9, -73, -102, -107, -107, -29, 
-58, -14, 43, 36, -51, 14, -9, -73, -102, -112, -112, -29, 
-63, -19, 43, 41, -53, 12, -14, -73, -107, -112, -112, -34, 
-58, -19, 39, 39, -48, 9, -14, -73, -107, -112, -112, -39, 
-58, -19, 39, 39, -48, 9, -19, -68, -107, -107, -112, -39, 
-63, -24, 39, 43, -51, 7, -9, -68, -97, -107, -112, -39, 
-68, -24, 43, 46, -56, 9, -14, -73, -97, -97, -107, -39, 
-68, -24, 43, 46, -56, 9, -19, -78, -97, -102, -102, -34, 
-68, -19, 48, 43, -58, 14, -19, -73, -102, -107, -107, -39, 
-68, -19, 48, 43, -58, 14, -19, -73, -102, -112, -107, -39, 
-63, -14, 48, 39, -56, 17, -19, -73, -102, -107, -112, -39, 
-58, -19, 39, 39, -48, 9, -14, -73, -107, -112, -126, -48, 
-63, -19, 43, 41, -53, 12, -9, -82, -112, -112, -126, -48, 
-63, -19, 43, 41, -53, 12, -4, -82, -97, -107, -117, -39, 
-63, -19, 43, 41, -53, 12, -9, -78, -97, -107, -117, -39, 
-63, -24, 39, 43, -51, 7, -19, -78, -102, -112, -117, -39, 
-58, -24, 34, 41, -46, 4, -14, -73, -102, -112, -117, -43, 
-58, -29, 29, 43, -43, 0, -9, -68, -107, -117, -117, -48, 
-58, -29, 29, 43, -43, 0, -9, -68, -107, -117, -117, -48, 
