I, II, III, aVR, aVL, aVF, V1, V2, V3, V4, V5, V6, 
-19, -126, -107, 73, 43, -117, 0, 312, 39, -58, -48, -68, 
-14, -175, -161, 95, 73, -168, 24, 341, 24, -87, -82, -107, 
-9, -224, -214, 117, 102, -219, 48, 370, 9, -117, -117, -146, 
4, -190, -195, 92, 100, -192, 63, 448, 53, -87, -97, -136, 
19, -156, -175, 68, 97, -165, 78, 527, 97, -58, -78, -126, 
68, 39, -29, -53, 48, 4, 58, 692, 268, 117, 82, 0, 
117, 234, 117, -175, 0, 175, 39, 858, 439, 292, 244, 126, 
165, 551, 385, -358, -109, 468, -107, 1015, 702, 566, 502, 361, 
214, 868, 653, -541, -219, 761, -253, 1171, 966, 839, 761, 595, 
180, 1234, 1054, -707, -436, 1144, -385, 1210, 1254, 1137, 1058, 873, 
146, 1600, 1454, -873, -653, 1527, -517, 1249, 1542, 1434, 1356, 1151, 
53, 1527, 1473, -790, -710, 1500, -517, 1005, 1459, 1366, 1307, 1137, 
-39, 1454, 1493, -707, -766, 1473, -517, 761, 1376, 1298, 1259, 1122, 
-107, 1137, 1244, -514, -675, 1190, -405, 448, 1034, 971, 971, 897, 
-175, 819, 995, -322, -585, 907, -292, 136, 692, 644, 683, 673, 
-209, 580, 790, -185, -500, 685, -229, 9, 497, 453, 492, 497, 
-244, 341, 585, -48, -414, 463, -165, -117, 302, 263, 302, 322, 
-200, 263, 463, -31, -331, 363, -161, -19, 248, 204, 248, 253, 
-156, 185, 341, -14, -248, 263, -156, 78, 195, 146, 195, 185, 
-107, 170, 278, -31, -192, 224, -131, 214, 195, 131, 185, 165, 
-58, 156, 214, -48, -136, 185, -107, 351, 195, 117, 175, 146, 
-43, 141, 185, -48, -114, 163, -78, 385, 204, 117, 161, 122, 
-29, 126, 156, -48, -92, 141, -48, 419, 214, 117, 146, 97, 
-14, 107, 122, -46, -68, 114, -39, 463, 204, 112, 136, 87, 
0, 87, 87, -43, -43, 87, -29, 507, 195, 107, 126, 78, 
0, 78, 78, -39, -39, 78, -19, 507, 190, 97, 117, 73, 
0, 68, 68, -34, -34, 68, -9, 507, 185, 87, 107, 68, 
4, 58, 53, -31, -24, 56, -4, 517, 175, 82, 107, 63, 
9, 48, 39, -29, -14, 43, 0, 527, 165, 78, 107, 58, 
9, 43, 34, -26, -12, 39, 0, 531, 165, 78, 107, 58, 
9, 39, 29, -24, -9, 34, 0, 536, 165, 78, 107, 58, 
9, 39, 29, -24, -9, 34, 0, 546, 165, 78, 107, 58, 
9, 39, 29, -24, -9, 34, 0, 556, 165, 78, 107, 58, 
9, 39, 29, -24, -9, 34, 0, 561, 165, 78, 107, 53, 
9, 39, 29, -24, -9, 34, 0, 566, 165, 78, 107, 48, 
9, 43, 34, -26, -12, 39, 0, 575, 170, 78, 112, 48, 
9, 48, 39, -29, -14, 43, 0, 585, 175, 78, 117, 48, 
14, 48, 34, -31, -9, 41, 0, 595, 175, 78, 117, 53, 
19, 48, 29, -34, -4, 39, 0, 605, 175, 78, 117, 58, 
19, 53, 34, -36, -7, 43, 0, 614, 175, 78, 117, 58, 
19, 58, 39, -39, -9, 48, 0, 624, 175, 78, 117, 58, 
19, 58, 39, -39, -9, 48, 0, 639, 180, 78, 122, 58, 
19, 58, 39, -39, -9, 48, 0, 653, 185, 78, 126, 58, 
24, 58, 34, -41, -4, 46, 0, 668, 190, 82, 131, 63, 
29, 58, 29, -43, 0, 43, 0, 683, 195, 87, 136, 68, 
29, 63, 34, -46, -2, 48, -4, 697, 200, 92, 141, 68, 
29, 68, 39, -48, -4, 53, -9, 712, 204, 97, 146, 68, 
29, 68, 39, -48, -4, 53, -9, 722, 209, 102, 146, 68, 
29, 68, 39, -48, -4, 53, -9, 732, 214, 107, 146, 68, 
29, 73, 43, -51, -7, 58, -9, 751, 219, 112, 151, 73, 
29, 78, 48, -53, -9, 63, -9, 771, 224, 117, 156, 78, 
29, 82, 53, -56, -12, 68, -14, 780, 234, 122, 161, 82, 
29, 87, 58, -58, -14, 73, -19, 790, 244, 126, 165, 87, 
34, 97, 63, -65, -14, 80, -19, 810, 248, 131, 170, 92, 
39, 107, 68, -73, -14, 87, -19, 829, 253, 136, 175, 97, 
43, 117, 73, -80, -14, 95, -24, 849, 253, 141, 180, 97, 
48, 126, 78, -87, -14, 102, -29, 868, 253, 146, 185, 97, 
53, 136, 82, -95, -14, 109, -34, 888, 268, 156, 195, 107, 
58, 146, 87, -102, -14, 117, -39, 907, 283, 165, 204, 117, 
63, 161, 97, -112, -17, 129, -43, 927, 287, 175, 214, 122, 
68, 175, 107, -122, -19, 141, -48, 946, 292, 185, 224, 126, 
73, 185, 112, -129, -19, 148, -48, 971, 302, 190, 234, 131, 
78, 195, 117, -136, -19, 156, -48, 995, 312, 195, 244, 136, 
82, 214, 131, -148, -24, 173, -53, 1019, 322, 204, 248, 141, 
87, 234, 146, -161, -29, 190, -58, 1044, 331, 214, 253, 146, 
97, 248, 151, -173, -26, 200, -63, 1068, 346, 224, 263, 156, 
107, 263, 156, -185, -24, 209, -68, 1093, 361, 234, 273, 165, 
117, 287, 170, -202, -26, 229, -78, 1122, 375, 248, 292, 180, 
126, 312, 185, -219, -29, 248, -87, 1151, 390, 263, 312, 195, 
136, 326, 190, -231, -26, 258, -92, 1180, 409, 283, 331, 209, 
146, 341, 195, -244, -24, 268, -97, 1210, 429, 302, 351, 224, 
156, 370, 214, -263, -29, 292, -107, 1234, 444, 317, 361, 234, 
165, 400, 234, -283, -34, 317, -117, 1259, 458, 331, 370, 244, 
175, 419, 244, -297, -34, 331, -122, 1283, 473, 346, 390, 258, 
185, 439, 253, -312, -34, 346, -126, 1307, 488, 361, 409, 273, 
190, 458, 268, -324, -39, 363, -136, 1327, 497, 375, 424, 283, 
195, 478, 283, -336, -43, 380, -146, 1346, 507, 390, 439, 292, 
200, 497, 297, -348, -48, 397, -156, 1366, 527, 405, 453, 307, 
204, 517, 312, -361, -53, 414, -165, 1385, 546, 419, 468, 322, 
214, 536, 322, -375, -53, 429, -175, 1395, 551, 429, 483, 336, 
224, 556, 331, -390, -53, 444, -185, 1405, 556, 439, 497, 351, 
224, 566, 341, -395, -58, 453, -190, 1410, 570, 453, 512, 361, 
224, 575, 351, -400, -63, 463, -195, 1415, 585, 468, 527, 370, 
224, 590, 366, -407, -70, 478, -204, 1415, 585, 473, 536, 380, 
224, 605, 380, -414, -78, 492, -214, 1415, 585, 478, 546, 390, 
214, 605, 390, -409, -87, 497, -219, 1395, 585, 483, 551, 400, 
204, 605, 400, -405, -97, 502, -224, 1376, 585, 488, 556, 409, 
190, 605, 414, -397, -112, 509, -224, 1337, 580, 488, 556, 409, 
175, 605, 429, -390, -126, 517, -224, 1298, 575, 488, 556, 409, 
161, 590, 429, -375, -134, 509, -224, 1254, 551, 473, 556, 409, 
146, 575, 429, -361, -141, 502, -224, 1210, 527, 458, 556, 409, 
122, 546, 424, -334, -151, 485, -219, 1156, 502, 439, 541, 400, 
97, 517, 419, -307, -161, 468, -214, 1102, 478, 419, 527, 390, 
78, 478, 400, -278, -161, 439, -200, 1049, 439, 390, 497, 366, 
58, 439, 380, -248, -161, 409, -185, 995, 400, 361, 468, 341, 
39, 395, 356, -217, -158, 375, -175, 941, 370, 326, 439, 317, 
19, 351, 331, -185, -156, 341, -165, 888, 341, 292, 409, 292, 
0, 317, 317, -158, -158, 317, -151, 844, 307, 263, 380, 263, 
-19, 283, 302, -131, -161, 292, -136, 800, 273, 234, 351, 234, 
-39, 239, 278, -100, -158, 258, -122, 766, 244, 204, 331, 219, 
-58, 195, 253, -68, -156, 224, -107, 732, 214, 175, 312, 204, 
-68, 170, 239, -51, -153, 204, -97, 707, 190, 156, 292, 185, 
-78, 146, 224, -34, -151, 185, -87, 683, 165, 136, 273, 165, 
-82, 122, 204, -19, -143, 163, -78, 663, 151, 122, 258, 156, 
-87, 97, 185, -4, -136, 141, -68, 644, 136, 107, 244, 146, 
-97, 82, 180, 7, -139, 131, -63, 639, 122, 92, 234, 136, 
-107, 68, 175, 19, -141, 122, -58, 634, 107, 78, 224, 126, 
-107, 58, 165, 24, -136, 112, -53, 624, 97, 68, 214, 117, 
-107, 48, 156, 29, -131, 102, -48, 614, 87, 58, 204, 107, 
-112, 39, 151, 36, -131, 95, -48, 605, 82, 53, 200, 102, 
-117, 29, 146, 43, -131, 87, -48, 595, 78, 48, 195, 97, 
-122, 24, 146, 48, -134, 85, -43, 595, 73, 43, 190, 92, 
-126, 19, 146, 53, -136, 82, -39, 595, 68, 39, 185, 87, 
-126, 9, 136, 58, -131, 73, -39, 595, 58, 34, 185, 82, 
-126, 0, 126, 63, -126, 63, -39, 595, 48, 29, 185, 78, 
-126, 0, 126, 63, -126, 63, -34, 595, 48, 29, 185, 78, 
-126, 0, 126, 63, -126, 63, -29, 595, 48, 29, 185, 78, 
-126, 0, 126, 63, -126, 63, -29, 595, 43, 24, 180, 78, 
-126, 0, 126, 63, -126, 63, -29, 595, 39, 19, 175, 78, 
-126, 0, 126, 63, -126, 63, -29, 595, 39, 19, 175, 73, 
-126, 0, 126, 63, -126, 63, -29, 595, 39, 19, 175, 68, 
-126, 0, 126, 63, -126, 63, -24, 600, 39, 19, 175, 68, 
-126, 0, 126, 63, -126, 63, -19, 605, 39, 19, 175, 68, 
-126, 0, 126, 63, -126, 63, -19, 605, 34, 14, 175, 68, 
-126, 0, 126, 63, -126, 63, -19, 605, 29, 9, 175, 68, 
-126, 0, 126, 63, -126, 63, -19, 610, 29, 9, 175, 63, 
-126, 0, 126, 63, -126, 63, -19, 614, 29, 9, 175, 58, 
-126, 0, 126, 63, -126, 63, -19, 614, 29, 9, 175, 58, 
-126, 0, 126, 63, -126, 63, -19, 614, 29, 9, 175, 58, 
-126, 0, 126, 63, -126, 63, -19, 614, 29, 9, 175, 58, 
-126, 0, 126, 63, -126, 63, -19, 614, 29, 9, 175, 58, 
-126, 0, 126, 63, -126, 63, -19, 614, 24, 9, 175, 58, 
-126, 0, 126, 63, -126, 63, -19, 614, 19, 9, 175, 58, 
-126, 0, 126, 63, -126, 63, -19, 619, 19, 4, 175, 58, 
-126, 0, 126, 63, -126, 63, -19, 624, 19, 0, 175, 58, 
-126, 0, 126, 63, -126, 63, -14, 624, 14, 0, 170, 53, 
-126, 0, 126, 63, -126, 63, -9, 624, 9, 0, 165, 48, 
-126, 0, 126, 63, -126, 63, -9, 624, 4, 0, 165, 48, 
-126, 0, 126, 63, -126, 63, -9, 624, 0, 0, 165, 48, 
-126, 4, 131, 61, -129, 68, -9, 624, 0, 0, 165, 43, 
-126, 9, 136, 58, -131, 73, -9, 624, 0, 0, 165, 39, 
-126, 9, 136, 58, -131, 73, -9, 629, 0, 0, 165, 39, 
-126, 9, 136, 58, -131, 73, -9, 634, 0, 0, 165, 39, 
-122, 9, 131, 56, -126, 70, -4, 634, 4, 0, 165, 39, 
-117, 9, 126, 53, -122, 68, 0, 634, 9, 0, 165, 39, 
-117, 9, 126, 53, -122, 68, 0, 634, 9, 0, 165, 39, 
-117, 9, 126, 53, -122, 68, 0, 634, 9, 0, 165, 39, 
-117, 9, 126, 53, -122, 68, -4, 634, 9, 0, 161, 34, 
-117, 9, 126, 53, -122, 68, -9, 634, 9, 0, 156, 29, 
-112, 9, 122, 51, -117, 65, -9, 634, 9, 0, 156, 29, 
-107, 9, 117, 48, -112, 63, -9, 634, 9, 0, 156, 29, 
-107, 4, 112, 51, -109, 58, -9, 634, 9, -4, 151, 24, 
-107, 0, 107, 53, -107, 53, -9, 634, 9, -9, 146, 19, 
-107, 0, 107, 53, -107, 53, -9, 629, 9, -9, 146, 14, 
-107, 0, 107, 53, -107, 53, -9, 624, 9, -9, 146, 9, 
-112, 0, 112, 56, -112, 56, -9, 619, 9, -4, 146, 9, 
-117, 0, 117, 58, -117, 58, -9, 614, 9, 0, 146, 9, 
-117, -4, 112, 61, -114, 53, -9, 614, 9, 0, 141, 4, 
-117, -9, 107, 63, -112, 48, -9, 614, 9, 0, 136, 0, 
-112, -9, 102, 61, -107, 46, -4, 614, 9, -4, 136, 0, 
-107, -9, 97, 58, -102, 43, 0, 614, 9, -9, 136, 0, 
-107, -9, 97, 58, -102, 43, 0, 614, 9, -9, 131, 0, 
-107, -9, 97, 58, -102, 43, 0, 614, 9, -9, 126, 0, 
-107, -14, 92, 61, -100, 39, 0, 610, 4, -9, 122, 0, 
-107, -19, 87, 63, -97, 34, 0, 605, 0, -9, 117, 0, 
-107, -19, 87, 63, -97, 34, 0, 605, 0, -14, 117, 0, 
-107, -19, 87, 63, -97, 34, 0, 605, 0, -19, 117, 0, 
-107, -24, 82, 65, -95, 29, 0, 600, 4, -19, 112, 0, 
-107, -29, 78, 68, -92, 24, 0, 595, 9, -19, 107, 0, 
-107, -29, 78, 68, -92, 24, 0, 595, 9, -19, 107, 0, 
-107, -29, 78, 68, -92, 24, 0, 595, 9, -19, 107, 0, 
-107, -29, 78, 68, -92, 24, 0, 595, 9, -19, 102, -4, 
-107, -29, 78, 68, -92, 24, 0, 595, 9, -19, 97, -9, 
-107, -34, 73, 70, -90, 19, 0, 595, 9, -19, 92, -9, 
-107, -39, 68, 73, -87, 14, 0, 595, 9, -19, 87, -9, 
-102, -39, 63, 70, -82, 12, 0, 595, 9, -19, 87, -9, 
-97, -39, 58, 68, -78, 9, 0, 595, 9, -19, 87, -9, 
-97, -39, 58, 68, -78, 9, 0, 595, 14, -19, 87, -4, 
-97, -39, 58, 68, -78, 9, 0, 595, 19, -19, 87, 0, 
-97, -39, 58, 68, -78, 9, 0, 595, 19, -19, 82, 0, 
-97, -39, 58, 68, -78, 9, 0, 595, 19, -19, 78, 0, 
-97, -39, 58, 68, -78, 9, 0, 595, 19, -19, 73, 0, 
-97, -39, 58, 68, -78, 9, 0, 595, 19, -19, 68, 0, 
-92, -39, 53, 65, -73, 7, 0, 595, 19, -19, 68, 0, 
-87, -39, 48, 63, -68, 4, 0, 595, 19, -19, 68, 0, 
-87, -39, 48, 63, -68, 4, 0, 595, 19, -19, 68, 0, 
-87, -39, 48, 63, -68, 4, 0, 595, 19, -19, 68, 0, 
-87, -43, 43, 65, -65, 0, 0, 595, 19, -19, 63, 0, 
-87, -48, 39, 68, -63, -4, 0, 595, 19, -19, 58, 0, 
-87, -48, 39, 68, -63, -4, 0, 595, 19, -19, 53, 0, 
-87, -48, 39, 68, -63, -4, 0, 595, 19, -19, 48, 0, 
-82, -43, 39, 63, -61, -2, 0, 595, 19, -14, 48, 0, 
-78, -39, 39, 58, -58, 0, 0, 595, 19, -9, 48, 0, 
-78, -34, 43, 56, -61, 4, -4, 590, 24, -9, 48, 0, 
-78, -29, 48, 53, -63, 9, -9, 585, 29, -9, 48, 0, 
-73, -29, 43, 51, -58, 7, -9, 585, 29, -9, 43, 0, 
-68, -29, 39, 48, -53, 4, -9, 585, 29, -9, 39, 0, 
-68, -29, 39, 48, -53, 4, -9, 585, 24, -9, 34, 0, 
-68, -29, 39, 48, -53, 4, -9, 585, 19, -9, 29, 0, 
-68, -29, 39, 48, -53, 4, -4, 585, 19, -9, 29, 0, 
-68, -29, 39, 48, -53, 4, 0, 585, 19, -9, 29, 0, 
-68, -29, 39, 48, -53, 4, 0, 585, 24, -9, 24, 0, 
-68, -29, 39, 48, -53, 4, 0, 585, 29, -9, 19, 0, 
-68, -34, 34, 51, -51, 0, 0, 585, 29, -9, 19, 0, 
-68, -39, 29, 53, -48, -4, 0, 585, 29, -9, 19, 0, 
-68, -39, 29, 53, -48, -4, 0, 585, 29, -9, 14, 0, 
-68, -39, 29, 53, -48, -4, 0, 585, 29, -9, 9, 0, 
-63, -39, 24, 51, -43, -7, -4, 585, 34, -9, 9, 0, 
-58, -39, 19, 48, -39, -9, -9, 585, 39, -9, 9, 0, 
-58, -39, 19, 48, -39, -9, -9, 585, 39, -9, 9, 0, 
-58, -39, 19, 48, -39, -9, -9, 585, 39, -9, 9, 0, 
-58, -39, 19, 48, -39, -9, -9, 580, 34, -9, 4, 0, 
-58, -39, 19, 48, -39, -9, -9, 575, 29, -9, 0, 0, 
-53, -39, 14, 46, -34, -12, -9, 575, 29, -9, 0, 0, 
-48, -39, 9, 43, -29, -14, -9, 575, 29, -9, 0, 0, 
-48, -34, 14, 41, -31, -9, -9, 575, 29, -9, 0, 0, 
-48, -29, 19, 39, -34, -4, -9, 575, 29, -9, 0, 0, 
-43, -29, 14, 36, -29, -7, -9, 575, 29, -9, 0, 0, 
-39, -29, 9, 34, -24, -9, -9, 575, 29, -9, 0, 0, 
-39, -29, 9, 34, -24, -9, -9, 575, 29, -9, 0, 0, 
-39, -29, 9, 34, -24, -9, -9, 575, 29, -9, 0, 0, 
-39, -29, 9, 34, -24, -9, -9, 570, 34, -9, 0, 0, 
-39, -29, 9, 34, -24, -9, -9, 566, 39, -9, 0, 0, 
-34, -29, 4, 31, -19, -12, -9, 566, 39, -9, 0, 0, 
-29, -29, 0, 29, -14, -14, -9, 566, 39, -9, 0, 0, 
-29, -24, 4, 26, -17, -9, -9, 566, 39, -9, 4, 4, 
-29, -19, 9, 24, -19, -4, -9, 566, 39, -9, 9, 9, 
-24, -19, 4, 21, -14, -7, -9, 566, 39, -9, 9, 9, 
-19, -19, 0, 19, -9, -9, -9, 566, 39, -9, 9, 9, 
-19, -19, 0, 19, -9, -9, -9, 566, 43, -4, 9, 9, 
-19, -19, 0, 19, -9, -9, -9, 566, 48, 0, 9, 9, 
-19, -14, 4, 17, -12, -4, -9, 561, 48, 0, 14, 9, 
-19, -9, 9, 14, -14, 0, -9, 556, 48, 0, 19, 9, 
-19, -9, 9, 14, -14, 0, -9, 556, 43, 0, 19, 9, 
-19, -9, 9, 14, -14, 0, -9, 556, 39, 0, 19, 9, 
-19, -9, 9, 14, -14, 0, -9, 556, 34, -4, 19, 9, 
-19, -9, 9, 14, -14, 0, -9, 556, 29, -9, 19, 9, 
-14, -9, 4, 12, -9, -2, -9, 556, 29, -9, 19, 9, 
-9, -9, 0, 9, -4, -4, -9, 556, 29, -9, 19, 9, 
-9, -9, 0, 9, -4, -4, -9, 556, 29, -9, 19, 9, 
-9, -9, 0, 9, -4, -4, -9, 556, 29, -9, 19, 9, 
-9, -9, 0, 9, -4, -4, -9, 551, 34, -4, 19, 9, 
-9, -9, 0, 9, -4, -4, -9, 546, 39, 0, 19, 9, 
-9, -9, 0, 9, -4, -4, -9, 546, 39, 0, 24, 9, 
-9, -9, 0, 9, -4, -4, -9, 546, 39, 0, 29, 9, 
-9, -4, 4, 7, -7, 0, -9, 546, 39, 0, 29, 9, 
-9, 0, 9, 4, -9, 4, -9, 546, 39, 0, 29, 9, 
-9, 0, 9, 4, -9, 4, -9, 541, 34, -4, 29, 9, 
-9, 0, 9, 4, -9, 4, -9, 536, 29, -9, 29, 9, 
-9, 0, 9, 4, -9, 4, -9, 536, 29, -9, 29, 9, 
-9, 0, 9, 4, -9, 4, -9, 536, 29, -9, 29, 9, 
-9, 0, 9, 4, -9, 4, -9, 536, 29, -4, 29, 9, 
-9, 0, 9, 4, -9, 4, -9, 536, 29, 0, 29, 9, 
-9, -4, 4, 7, -7, 0, -9, 531, 34, 0, 29, 9, 
-9, -9, 0, 9, -4, -4, -9, 527, 39, 0, 29, 9, 
-14, -9, 4, 12, -9, -2, -9, 527, 39, 0, 34, 9, 
-19, -9, 9, 14, -14, 0, -9, 527, 39, 0, 39, 9, 
-19, -9, 9, 14, -14, 0, -9, 527, 34, 0, 39, 9, 
-19, -9, 9, 14, -14, 0, -9, 527, 29, 0, 39, 9, 
-19, -9, 9, 14, -14, 0, -9, 527, 29, 0, 39, 9, 
-19, -9, 9, 14, -14, 0, -9, 527, 29, 0, 39, 9, 
-19, -9, 9, 14, -14, 0, -9, 522, 24, 0, 39, 9, 
-19, -9, 9, 14, -14, 0, -9, 517, 19, 0, 39, 9, 
-19, -9, 9, 14, -14, 0, -9, 517, 19, -4, 39, 9, 
-19, -9, 9, 14, -14, 0, -9, 517, 19, -9, 39, 9, 
-19, -9, 9, 14, -14, 0, -9, 517, 19, -9, 39, 9, 
-19, -9, 9, 14, -14, 0, -9, 517, 19, -9, 39, 9, 
-19, -9, 9, 14, -14, 0, -9, 512, 19, -9, 39, 9, 
-19, -9, 9, 14, -14, 0, -9, 507, 19, -9, 39, 9, 
-19, -9, 9, 14, -14, 0, -9, 507, 19, -4, 39, 9, 
-19, -9, 9, 14, -14, 0, -9, 507, 19, 0, 39, 9, 
-19, -4, 14, 12, -17, 4, -9, 502, 19, 0, 39, 9, 
-19, 0, 19, 9, -19, 9, -9, 497, 19, 0, 39, 9, 
-19, 0, 19, 9, -19, 9, -9, 497, 19, 0, 39, 9, 
-19, 0, 19, 9, -19, 9, -9, 497, 19, 0, 39, 9, 
-19, -4, 14, 12, -17, 4, -14, 497, 19, 0, 39, 9, 
-19, -9, 9, 14, -14, 0, -19, 497, 19, 0, 39, 9, 
-19, -9, 9, 14, -14, 0, -19, 492, 14, 0, 39, 9, 
-19, -9, 9, 14, -14, 0, -19, 488, 9, 0, 39, 9, 
-19, -9, 9, 14, -14, 0, -14, 488, 9, 0, 43, 9, 
-19, -9, 9, 14, -14, 0, -9, 488, 9, 0, 48, 9, 
-14, -4, 9, 9, -12, 2, -9, 492, 14, 4, 53, 14, 
-9, 0, 9, 4, -9, 4, -9, 497, 19, 9, 58, 19, 
-9, 4, 14, 2, -12, 9, -9, 497, 19, 9, 58, 24, 
-9, 14, 24, -2, -17, 19, -9, 502, 24, 9, 58, 29, 
-9, 24, 34, -7, -21, 29, -9, 507, 29, 9, 63, 34, 
-4, 34, 39, -14, -21, 36, 0, 507, 34, 19, 68, 34, 
-4, 43, 48, -19, -26, 46, 0, 507, 39, 29, 73, 34, 
0, 58, 58, -29, -29, 58, 0, 512, 43, 34, 78, 34, 
0, 68, 68, -34, -34, 68, 4, 522, 58, 39, 82, 43, 
-4, 92, 97, -43, -51, 95, 4, 527, 73, 48, 92, 48, 
-14, 122, 136, -53, -75, 129, 0, 531, 78, 63, 107, 68, 
-14, 141, 156, -63, -85, 148, -9, 541, 87, 73, 126, 87, 
-19, 146, 165, -63, -92, 156, -24, 541, 92, 87, 136, 92, 
-19, 141, 161, -61, -90, 151, -29, 541, 87, 87, 136, 97, 
-14, 136, 151, -61, -82, 143, -39, 522, 82, 87, 136, 97, 
-14, 131, 146, -58, -80, 139, -39, 517, 82, 87, 136, 97, 
-14, 131, 146, -58, -80, 139, -39, 507, 82, 87, 136, 92, 
-14, 136, 151, -61, -82, 143, -39, 502, 78, 87, 136, 87, 
-19, 131, 151, -56, -85, 141, -39, 502, 73, 82, 131, 82, 
-24, 122, 146, -48, -85, 134, -39, 497, 68, 78, 126, 73, 
-19, 92, 112, -36, -65, 102, -39, 488, 58, 68, 117, 63, 
-19, 48, 68, -14, -43, 58, -39, 478, 39, 48, 92, 39, 
-19, 24, 43, -2, -31, 34, -34, 468, 19, 29, 78, 19, 
-29, 4, 34, 12, -31, 19, -29, 458, 0, 0, 53, 4, 
-29, -4, 24, 17, -26, 9, -24, 448, -9, -4, 53, -4, 
-29, -14, 14, 21, -21, 0, -24, 429, -14, -9, 48, -4, 
-34, -19, 14, 26, -24, -2, -24, 424, -19, -14, 48, -4, 
-39, -19, 19, 29, -29, 0, -19, 414, -19, -14, 43, -4, 
-39, -19, 19, 29, -29, 0, -19, 409, -19, -14, 34, -4, 
-39, -24, 14, 31, -26, -4, -24, 400, -19, -14, 29, -4, 
-39, -29, 9, 34, -24, -9, -24, 395, -19, -14, 29, -14, 
-39, -29, 9, 34, -24, -9, -24, 390, -19, -14, 29, -19, 
-39, -29, 9, 34, -24, -9, -24, 385, -14, -14, 24, -19, 
-39, -39, 0, 39, -19, -19, -24, 385, -14, -14, 24, -19, 
-39, -39, 0, 39, -19, -19, -19, 380, -14, -19, 24, -19, 
-39, -43, -4, 41, -17, -24, -19, 375, -14, -19, 29, -14, 
-39, -43, -4, 41, -17, -24, -19, 370, -14, -19, 29, -14, 
-39, -48, -9, 43, -14, -29, -19, 370, -14, -19, 29, -14, 
-43, -48, -4, 46, -19, -26, -19, 366, -9, -19, 24, -9, 
-43, -48, -4, 46, -19, -26, -14, 366, -4, -19, 19, -9, 
-43, -48, -4, 46, -19, -26, -14, 366, -4, -19, 19, -9, 
-43, -48, -4, 46, -19, -26, -9, 366, -4, -19, 19, -9, 
-43, -48, -4, 46, -19, -26, -9, 366, -4, -19, 14, -14, 
-43, -58, -14, 51, -14, -36, -9, 366, -4, -29, 4, -24, 
-43, -82, -39, 63, -2, -61, 0, 356, -19, -34, -19, -39, 
-34, -156, -122, 95, 43, -139, 4, 366, -58, -87, -68, -97, 
-24, -214, -190, 119, 82, -202, 34, 400, -68, -126, -117, -146, 
-24, -229, -204, 126, 90, -217, 68, 448, -63, -126, -126, -156, 
-14, -195, -180, 104, 82, -187, 82, 517, -24, -107, -107, -146, 
4, -151, -156, 73, 80, -153, 82, 634, 58, -53, -73, -136, 
53, 39, -14, -46, 34, 12, 78, 819, 234, 122, 78, -14, 
112, 326, 214, -219, -51, 270, 19, 971, 463, 366, 312, 195, 
180, 653, 473, -417, -146, 563, -131, 1127, 727, 644, 585, 429, 
214, 1000, 785, -607, -285, 893, -307, 1263, 1024, 936, 854, 673, 
195, 1351, 1156, -773, -480, 1254, -434, 1337, 1322, 1239, 1156, 946, 
122, 1712, 1590, -917, -734, 1651, -561, 1229, 1576, 1527, 1454, 1229, 
29, 1678, 1649, -854, -810, 1664, -585, 1000, 1561, 1527, 1429, 1224, 
-78, 1317, 1395, -619, -736, 1356, -492, 717, 1268, 1205, 1127, 1000, 
-146, 1005, 1151, -429, -649, 1078, -375, 419, 941, 873, 858, 790, 
-185, 644, 829, -229, -507, 736, -204, 126, 570, 527, 541, 512, 
-239, 375, 614, -68, -427, 495, -122, -87, 322, 297, 317, 317, 
-239, 224, 463, 7, -351, 344, -141, -82, 229, 195, 219, 209, 
-209, 165, 375, 21, -292, 270, -141, 0, 170, 146, 180, 165, 
-151, 136, 287, 7, -219, 212, -131, 141, 117, 102, 151, 141, 
-92, 112, 204, -9, -148, 158, -112, 307, 107, 82, 136, 117, 
-78, 112, 190, -17, -134, 151, -87, 385, 136, 97, 136, 112, 
-63, 107, 170, -21, -117, 139, -63, 409, 161, 102, 136, 102, 
-24, 102, 126, -39, -75, 114, -34, 468, 161, 102, 126, 82, 
-19, 73, 92, -26, -56, 82, -19, 541, 161, 92, 117, 68, 
-24, 34, 58, -4, -41, 46, -9, 546, 151, 78, 107, 58, 
-24, 34, 58, -4, -41, 46, -4, 527, 146, 68, 102, 53, 
-19, 34, 53, -7, -36, 43, -4, 541, 141, 58, 92, 43, 
-9, 24, 34, -7, -21, 29, 0, 556, 141, 58, 92, 39, 
-4, 24, 29, -9, -17, 26, 4, 566, 136, 53, 87, 39, 
-4, 19, 24, -7, -14, 21, 4, 566, 141, 48, 87, 34, 
-4, 14, 19, -4, -12, 17, 4, 575, 146, 48, 87, 29, 
0, 9, 9, -4, -4, 9, 4, 580, 146, 48, 87, 29, 
0, 9, 9, -4, -4, 9, 4, 590, 146, 48, 87, 29, 
4, 14, 9, -9, -2, 12, 4, 600, 151, 48, 87, 29, 
4, 24, 19, -14, -7, 21, 4, 605, 151, 48, 87, 29, 
4, 24, 19, -14, -7, 21, 9, 619, 156, 48, 87, 29, 
4, 24, 19, -14, -7, 21, 14, 619, 156, 48, 92, 29, 
4, 24, 19, -14, -7, 21, 14, 634, 161, 48, 97, 34, 
4, 24, 19, -14, -7, 21, 14, 644, 161, 48, 102, 39, 
4, 29, 24, -17, -9, 26, 9, 649, 165, 53, 102, 39, 
4, 39, 34, -21, -14, 36, 4, 663, 170, 63, 102, 39, 
9, 43, 34, -26, -12, 39, 0, 673, 170, 63, 107, 39, 
9, 43, 34, -26, -12, 39, 0, 683, 170, 68, 107, 39, 
14, 43, 29, -29, -7, 36, 0, 692, 175, 63, 112, 43, 
14, 39, 24, -26, -4, 31, 0, 707, 180, 58, 117, 43, 
19, 39, 19, -29, 0, 29, 0, 722, 190, 63, 117, 43, 
19, 43, 24, -31, -2, 34, 0, 741, 200, 63, 122, 43, 
19, 39, 19, -29, 0, 29, 0, 756, 204, 68, 122, 48, 
24, 43, 19, -34, 2, 31, -4, 771, 214, 78, 126, 48, 
24, 48, 24, -36, 0, 36, -4, 780, 219, 78, 136, 53, 
34, 53, 19, -43, 7, 36, -4, 795, 234, 82, 141, 58, 
39, 63, 24, -51, 7, 43, -9, 810, 239, 87, 146, 58, 
39, 73, 34, -56, 2, 53, -9, 824, 244, 92, 146, 63, 
39, 82, 43, -61, -2, 63, -14, 839, 248, 97, 151, 68, 
43, 92, 48, -68, -2, 70, -14, 858, 258, 102, 156, 78, 
43, 97, 53, -70, -4, 75, -14, 878, 268, 107, 165, 78, 
53, 112, 58, -82, -2, 85, -24, 893, 273, 112, 175, 87, 
58, 122, 63, -90, -2, 92, -29, 917, 287, 117, 180, 92, 
63, 131, 68, -97, -2, 100, -29, 936, 297, 126, 190, 97, 
73, 146, 73, -109, 0, 109, -34, 956, 302, 131, 195, 102, 
82, 165, 82, -124, 0, 124, -39, 985, 326, 141, 204, 107, 
87, 170, 82, -129, 2, 126, -43, 1015, 331, 146, 209, 112, 
92, 190, 97, -141, -2, 143, -43, 1039, 341, 161, 224, 122, 
107, 204, 97, -156, 4, 151, -48, 1068, 361, 170, 234, 136, 
117, 219, 102, -168, 7, 161, -53, 1093, 370, 180, 244, 141, 
126, 234, 107, -180, 9, 170, -63, 1117, 395, 200, 258, 151, 
131, 253, 122, -192, 4, 187, -73, 1141, 409, 214, 268, 161, 
131, 278, 146, -204, -7, 212, -73, 1171, 429, 234, 287, 170, 
136, 297, 161, -217, -12, 229, -78, 1195, 448, 248, 297, 180, 
151, 312, 161, -231, -4, 236, -87, 1224, 458, 258, 317, 195, 
156, 336, 180, -246, -12, 258, -97, 1254, 478, 268, 331, 204, 
165, 351, 185, -258, -9, 268, -97, 1278, 488, 278, 341, 214, 
175, 370, 195, -273, -9, 283, -112, 1302, 507, 287, 351, 224, 
175, 390, 214, -283, -19, 302, -117, 1327, 522, 302, 366, 244, 
185, 409, 224, -297, -19, 317, -126, 1351, 541, 317, 380, 253, 
200, 424, 224, -312, -12, 324, -126, 1376, 566, 331, 400, 268, 
200, 444, 244, -322, -21, 344, -141, 1390, 575, 351, 414, 283, 
209, 463, 253, -336, -21, 358, -156, 1405, 590, 370, 434, 287, 
214, 483, 268, -348, -26, 375, -165, 1415, 600, 390, 458, 302, 
219, 507, 287, -363, -34, 397, -180, 1429, 614, 400, 468, 317, 
219, 522, 302, -370, -41, 412, -185, 1434, 619, 409, 483, 326, 
219, 531, 312, -375, -46, 422, -200, 1439, 629, 414, 488, 341, 
224, 546, 322, -385, -48, 434, -204, 1439, 639, 424, 502, 346, 
224, 556, 331, -390, -53, 444, -200, 1434, 649, 434, 507, 366, 
224, 561, 336, -392, -56, 448, -209, 1424, 658, 444, 522, 375, 
209, 570, 361, -390, -75, 466, -209, 1410, 653, 444, 531, 385, 
200, 566, 366, -383, -82, 466, -214, 1381, 649, 444, 536, 390, 
185, 561, 375, -373, -95, 468, -214, 1346, 649, 444, 536, 390, 
175, 551, 375, -363, -100, 463, -209, 1307, 639, 439, 536, 390, 
156, 536, 380, -346, -112, 458, -204, 1263, 614, 429, 536, 390, 
136, 507, 370, -322, -117, 439, -200, 1210, 585, 395, 517, 380, 
126, 483, 356, -305, -114, 419, -195, 1151, 556, 375, 502, 366, 
102, 448, 346, -275, -122, 397, -185, 1098, 531, 351, 478, 346, 
82, 424, 341, -253, -129, 383, -180, 1049, 497, 326, 448, 326, 
63, 385, 322, -224, -129, 353, -165, 990, 458, 292, 419, 297, 
43, 336, 292, -190, -124, 314, -151, 936, 419, 253, 385, 273, 
29, 292, 263, -161, -117, 278, -131, 893, 390, 219, 356, 248, 
9, 258, 248, -134, -119, 253, -117, 858, 361, 195, 331, 229, 
-14, 219, 234, -102, -124, 226, -92, 814, 331, 161, 307, 209, 
-24, 170, 195, -73, -109, 183, -87, 780, 302, 131, 283, 185, 
-39, 131, 170, -46, -104, 151, -73, 756, 278, 102, 253, 161, 
-53, 102, 156, -24, -104, 129, -68, 732, 258, 82, 239, 136, 
-63, 78, 141, -7, -102, 109, -63, 702, 234, 73, 229, 122, 
-78, 53, 131, 12, -104, 92, -53, 688, 219, 48, 209, 112, 
-87, 34, 122, 26, -104, 78, -43, 678, 204, 39, 200, 97, 
-92, 19, 112, 36, -102, 65, -43, 668, 190, 24, 180, 87, 
-97, 4, 102, 46, -100, 53, -39, 653, 175, 4, 165, 78, 
-102, -19, 82, 61, -92, 31, -29, 639, 165, -9, 156, 73, 
-107, -29, 78, 68, -92, 24, -24, 639, 165, -14, 146, 63, 
-112, -34, 78, 73, -95, 21, -19, 629, 156, -14, 146, 53, 
-112, -43, 68, 78, -90, 12, -9, 629, 156, -19, 141, 53, 
-112, -48, 63, 80, -87, 7, -9, 629, 156, -19, 141, 48, 
-112, -48, 63, 80, -87, 7, -9, 629, 156, -19, 136, 43, 
-112, -43, 68, 78, -90, 12, -4, 629, 151, -24, 131, 43, 
-112, -43, 68, 78, -90, 12, -4, 629, 146, -24, 131, 43, 
-107, -48, 58, 78, -82, 4, -4, 629, 146, -24, 131, 43, 
-107, -48, 58, 78, -82, 4, 0, 629, 146, -24, 131, 43, 
-107, -43, 63, 75, -85, 9, 0, 629, 146, -24, 126, 39, 
-107, -39, 68, 73, -87, 14, 0, 629, 146, -24, 126, 34, 
-107, -39, 68, 73, -87, 14, -4, 629, 146, -24, 126, 29, 
-107, -34, 73, 70, -90, 19, -4, 629, 146, -24, 126, 24, 
-112, -34, 78, 73, -95, 21, -4, 634, 141, -29, 126, 24, 
-112, -34, 78, 73, -95, 21, -4, 639, 131, -34, 126, 24, 
-112, -34, 78, 73, -95, 21, -4, 639, 131, -34, 117, 24, 
-107, -34, 73, 70, -90, 19, -4, 639, 131, -34, 112, 24, 
-107, -34, 73, 70, -90, 19, -4, 639, 131, -29, 112, 24, 
-107, -34, 73, 70, -90, 19, -4, 644, 131, -24, 112, 24, 
-107, -39, 68, 73, -87, 14, -4, 644, 136, -19, 112, 24, 
-107, -43, 63, 75, -85, 9, -4, 644, 141, -19, 117, 19, 
-107, -39, 68, 73, -87, 14, -4, 644, 141, -14, 117, 19, 
-107, -39, 68, 73, -87, 14, -4, 644, 141, -14, 117, 19, 
-107, -34, 73, 70, -90, 19, 0, 649, 141, -14, 117, 19, 
-107, -34, 73, 70, -90, 19, 0, 649, 141, -9, 117, 19, 
-107, -34, 73, 70, -90, 19, 0, 649, 136, -9, 117, 14, 
-107, -34, 73, 70, -90, 19, -4, 649, 136, -9, 112, 9, 
-102, -39, 63, 70, -82, 12, -4, 649, 126, -9, 112, 9, 
-102, -39, 63, 70, -82, 12, -4, 653, 126, -9, 112, 9, 
-102, -39, 63, 70, -82, 12, -4, 658, 126, -9, 107, 14, 
-102, -39, 63, 70, -82, 12, -4, 663, 126, -9, 107, 14, 
-102, -39, 63, 70, -82, 12, -4, 663, 126, -9, 107, 9, 
-97, -39, 58, 68, -78, 9, -4, 663, 126, -9, 107, 0, 
-97, -39, 58, 68, -78, 9, -4, 663, 126, -9, 107, 0, 
-97, -39, 58, 68, -78, 9, -4, 663, 122, -9, 102, 0, 
-97, -34, 63, 65, -80, 14, -9, 658, 122, -9, 102, 0, 
-97, -29, 68, 63, -82, 19, -14, 653, 117, -4, 102, 0, 
-97, -29, 68, 63, -82, 19, -14, 653, 117, -4, 107, 0, 
-97, -29, 68, 63, -82, 19, -14, 649, 112, -4, 102, 0, 
-97, -29, 68, 63, -82, 19, -19, 649, 112, -9, 102, 0, 
-97, -29, 68, 63, -82, 19, -19, 649, 107, -14, 97, 0, 
-97, -34, 63, 65, -80, 14, -14, 653, 102, -14, 92, 0, 
-102, -39, 63, 70, -82, 12, -14, 653, 97, -14, 92, 0, 
-102, -39, 63, 70, -82, 12, -14, 653, 97, -14, 92, 0, 
-102, -43, 58, 73, -80, 7, -14, 644, 92, -14, 87, 0, 
-102, -39, 63, 70, -82, 12, -9, 644, 92, -14, 82, -4, 
-102, -43, 58, 73, -80, 7, -4, 639, 97, -9, 82, -4, 
-102, -43, 58, 73, -80, 7, -4, 644, 92, -14, 78, -4, 
-102, -43, 58, 73, -80, 7, -4, 644, 87, -14, 78, -4, 
-97, -48, 48, 73, -73, 0, -4, 639, 82, -19, 68, -4, 
-92, -48, 43, 70, -68, -2, 0, 634, 73, -24, 63, -4, 
-92, -53, 39, 73, -65, -7, 0, 634, 73, -24, 63, -4, 
-92, -53, 39, 73, -65, -7, 0, 634, 68, -29, 58, -4, 
-92, -53, 39, 73, -65, -7, 0, 634, 63, -29, 53, -4, 
-92, -53, 39, 73, -65, -7, 0, 624, 63, -29, 48, -4, 
-97, -53, 43, 75, -70, -4, 0, 624, 63, -29, 48, -4, 
-102, -53, 48, 78, -75, -2, 0, 619, 63, -29, 48, -9, 
-102, -53, 48, 78, -75, -2, 0, 619, 58, -29, 48, -9, 
-102, -48, 53, 75, -78, 2, 0, 619, 53, -34, 43, -9, 
-97, -53, 43, 75, -70, -4, 0, 619, 53, -34, 43, -9, 
-92, -53, 39, 73, -65, -7, 0, 610, 53, -34, 39, -14, 
-92, -53, 39, 73, -65, -7, 0, 610, 53, -29, 34, -14, 
-92, -53, 39, 73, -65, -7, 0, 610, 48, -24, 29, -14, 
-92, -53, 39, 73, -65, -7, 0, 610, 43, -24, 29, -9, 
-92, -53, 39, 73, -65, -7, 0, 605, 39, -24, 29, -9, 
-87, -48, 39, 68, -63, -4, 0, 605, 34, -29, 24, -9, 
-87, -48, 39, 68, -63, -4, 0, 605, 34, -34, 19, -14, 
-87, -48, 39, 68, -63, -4, -4, 605, 19, -34, 14, -14, 
-87, -48, 39, 68, -63, -4, -4, 600, 9, -34, 9, -14, 
-87, -48, 39, 68, -63, -4, -4, 605, 9, -34, 9, -14, 
-82, -48, 34, 65, -58, -7, -4, 605, 14, -34, 4, -14, 
-82, -48, 34, 65, -58, -7, 0, 605, 14, -34, 0, -14, 
-82, -53, 29, 68, -56, -12, 0, 595, 14, -34, -4, -14, 
-82, -53, 29, 68, -56, -12, 0, 595, 9, -34, -4, -14, 
-82, -53, 29, 68, -56, -12, 0, 595, 4, -34, -4, -14, 
-82, -53, 29, 68, -56, -12, 0, 595, 0, -29, -4, -14, 
-82, -53, 29, 68, -56, -12, 0, 595, -4, -29, -4, -14, 
-82, -53, 29, 68, -56, -12, 0, 590, -4, -34, 0, -14, 
-78, -53, 24, 65, -51, -14, 0, 590, -4, -34, 4, -9, 
-73, -48, 24, 61, -48, -12, 0, 585, 0, -29, 4, -9, 
-73, -43, 29, 58, -51, -7, 0, 585, 4, -29, 4, -14, 
-68, -39, 29, 53, -48, -4, 0, 585, 0, -29, 4, -4, 
-68, -39, 29, 53, -48, -4, 0, 585, 0, -29, 9, 0, 
-68, -43, 24, 56, -46, -9, 0, 585, 0, -29, 9, 0, 
-68, -48, 19, 58, -43, -14, 0, 585, 0, -29, 9, 0, 
-68, -48, 19, 58, -43, -14, 0, 585, 4, -29, 14, 0, 
-68, -48, 19, 58, -43, -14, 0, 585, 9, -29, 19, 0, 
-68, -43, 24, 56, -46, -9, 0, 580, 9, -24, 19, 0, 
-68, -39, 29, 53, -48, -4, 0, 575, 9, -19, 19, 0, 
-63, -34, 29, 48, -46, -2, 0, 575, 9, -19, 14, 0, 
-58, -29, 29, 43, -43, 0, 0, 575, 9, -19, 9, 0, 
-58, -29, 29, 43, -43, 0, 0, 575, 9, -19, 9, -4, 
-58, -29, 29, 43, -43, 0, 0, 575, 9, -19, 9, -9, 
-58, -29, 29, 43, -43, 0, 0, 575, 14, -19, 9, -9, 
-58, -29, 29, 43, -43, 0, 0, 575, 19, -19, 9, -9, 
-53, -29, 24, 41, -39, -2, 0, 575, 19, -19, 14, -4, 
-48, -29, 19, 39, -34, -4, 0, 575, 19, -19, 19, 0, 
-48, -29, 19, 39, -34, -4, 0, 575, 14, -19, 19, 0, 
-48, -29, 19, 39, -34, -4, 0, 575, 9, -19, 19, 0, 
-48, -29, 19, 39, -34, -4, 0, 575, 9, -19, 14, 0, 
-48, -29, 19, 39, -34, -4, 0, 575, 9, -19, 9, 0, 
-48, -29, 19, 39, -34, -4, -4, 570, 14, -19, 9, 0, 
-48, -29, 19, 39, -34, -4, -9, 566, 19, -19, 9, 0, 
-43, -24, 19, 34, -31, -2, -9, 566, 24, -14, 14, 0, 
-39, -19, 19, 29, -29, 0, -9, 566, 29, -9, 19, 0, 
-39, -14, 24, 26, -31, 4, -9, 561, 29, -9, 19, 0, 
-39, -9, 29, 24, -34, 9, -9, 556, 29, -9, 19, 0, 
-39, -9, 29, 24, -34, 9, -9, 556, 29, -9, 19, 0, 
-39, -9, 29, 24, -34, 9, -9, 556, 29, -9, 19, 0, 
-34, -9, 24, 21, -29, 7, -9, 556, 29, -9, 19, 0, 
-29, -9, 19, 19, -24, 4, -9, 556, 29, -9, 19, 0, 
-29, -9, 19, 19, -24, 4, -9, 556, 34, -4, 19, 0, 
-29, -9, 19, 19, -24, 4, -9, 556, 39, 0, 19, 0, 
-29, -9, 19, 19, -24, 4, -9, 556, 39, 0, 19, 0, 
-29, -9, 19, 19, -24, 4, -9, 556, 39, 0, 19, 0, 
-24, -9, 14, 17, -19, 2, -9, 556, 39, 0, 19, 0, 
-19, -9, 9, 14, -14, 0, -9, 556, 39, 0, 19, 0, 
-19, -9, 9, 14, -14, 0, -9, 556, 39, 0, 19, 0, 
-19, -9, 9, 14, -14, 0, -9, 556, 39, 0, 19, 0, 
-14, -9, 4, 12, -9, -2, -9, 556, 39, -4, 19, 0, 
-9, -9, 0, 9, -4, -4, -9, 556, 39, -9, 19, 0, 
-9, -9, 0, 9, -4, -4, -9, 551, 39, -9, 19, 0, 
-9, -9, 0, 9, -4, -4, -9, 546, 39, -9, 19, 0, 
-9, -14, -4, 12, -2, -9, -9, 546, 39, -9, 19, 0, 
-9, -19, -9, 14, 0, -14, -9, 546, 39, -9, 19, 0, 
-9, -19, -9, 14, 0, -14, -9, 546, 39, -9, 19, 0, 
-9, -19, -9, 14, 0, -14, -9, 546, 39, -9, 19, 0, 
-14, -19, -4, 17, -4, -12, -9, 541, 43, -9, 19, 0, 
-19, -19, 0, 19, -9, -9, -9, 536, 48, -9, 19, 0, 
-19, -19, 0, 19, -9, -9, -9, 531, 48, -4, 19, 0, 
-19, -19, 0, 19, -9, -9, -9, 527, 48, 0, 19, 0, 
-19, -19, 0, 19, -9, -9, -9, 527, 48, 0, 19, -4, 
-19, -19, 0, 19, -9, -9, -9, 527, 48, 0, 19, -9, 
-19, -14, 4, 17, -12, -4, -9, 527, 48, -4, 19, -9, 
-19, -9, 9, 14, -14, 0, -9, 527, 48, -9, 19, -9, 
-19, -9, 9, 14, -14, 0, -9, 527, 48, -9, 19, -4, 
-19, -9, 9, 14, -14, 0, -9, 527, 48, -9, 19, 0, 
-19, -9, 9, 14, -14, 0, -9, 522, 48, -9, 19, 4, 
-19, -9, 9, 14, -14, 0, -9, 517, 48, -9, 19, 9, 
-19, -9, 9, 14, -14, 0, -9, 517, 48, -9, 19, 9, 
-19, -9, 9, 14, -14, 0, -9, 517, 48, -9, 19, 9, 
-14, -14, 0, 14, -7, -7, -9, 517, 48, -9, 19, 9, 
-9, -19, -9, 14, 0, -14, -9, 517, 48, -9, 19, 9, 
-9, -19, -9, 14, 0, -14, -9, 517, 48, -9, 19, 9, 
-9, -19, -9, 14, 0, -14, -9, 517, 48, -9, 19, 9, 
-14, -19, -4, 17, -4, -12, -9, 517, 53, -9, 19, 9, 
-19, -19, 0, 19, -9, -9, -9, 517, 58, -9, 19, 9, 
-19, -19, 0, 19, -9, -9, -9, 512, 58, -9, 19, 9, 
-19, -19, 0, 19, -9, -9, -9, 507, 58, -9, 19, 9, 
-19, -19, 0, 19, -9, -9, -9, 507, 58, -9, 19, 9, 
-19, -19, 0, 19, -9, -9, -9, 507, 58, -9, 19, 9, 
-19, -19, 0, 19, -9, -9, -9, 507, 58, -9, 19, 9, 
-19, -19, 0, 19, -9, -9, -9, 507, 58, -9, 19, 9, 
-14, -9, 4, 12, -9, -2, -9, 507, 63, -4, 19, 9, 
-9, 0, 9, 4, -9, 4, -9, 507, 68, 0, 19, 9, 
-9, 4, 14, 2, -12, 9, -9, 512, 68, 4, 24, 14, 
-9, 9, 19, 0, -14, 14, -9, 517, 68, 9, 29, 19, 
-9, 14, 24, -2, -17, 19, -4, 522, 73, 9, 29, 24, 
-4, 24, 29, -9, -17, 26, 0, 522, 78, 14, 34, 29, 
-4, 34, 39, -14, -21, 36, 9, 527, 82, 19, 39, 34, 
-4, 34, 39, -14, -21, 36, 9, 527, 87, 24, 39, 34, 
0, 39, 39, -19, -19, 39, 4, 531, 92, 29, 39, 34, 
0, 43, 43, -21, -21, 43, 4, 541, 97, 39, 43, 43, 
-4, 63, 68, -29, -36, 65, 4, 546, 102, 48, 58, 48, 
-14, 92, 107, -39, -61, 100, 0, 551, 117, 63, 78, 68, 
-14, 112, 126, -48, -70, 119, -4, 556, 136, 73, 97, 87, 
-19, 122, 141, -51, -80, 131, -14, 551, 146, 87, 107, 92, 
-19, 126, 146, -53, -82, 136, -19, 551, 151, 87, 107, 97, 
-14, 131, 146, -58, -80, 139, -29, 531, 151, 87, 107, 97, 
-19, 131, 151, -56, -85, 141, -34, 527, 151, 82, 102, 97, 
-24, 131, 156, -53, -90, 143, -39, 522, 151, 78, 97, 97, 
-24, 126, 151, -51, -87, 139, -39, 522, 146, 78, 97, 97, 
-24, 117, 141, -46, -82, 129, -39, 522, 146, 78, 97, 102, 
-29, 97, 126, -34, -78, 112, -34, 517, 141, 73, 97, 97, 
-29, 63, 92, -17, -61, 78, -29, 512, 126, 58, 87, 82, 
-29, 29, 58, 0, -43, 43, -29, 502, 107, 39, 58, 58, 
-29, -4, 24, 17, -26, 9, -24, 488, 87, 19, 34, 34, 
-34, -19, 14, 26, -24, -2, -19, 478, 68, -4, 4, 14, 
-34, -14, 19, 24, -26, 2, -14, 468, 58, -4, 4, 4, 
-39, -19, 19, 29, -29, 0, -19, 448, 48, -9, 0, 4, 
-43, -24, 19, 34, -31, -2, -24, 444, 39, -14, 0, 0, 
-48, -29, 19, 39, -34, -4, -19, 429, 39, -9, -4, 0, 
-48, -29, 19, 39, -34, -4, -19, 419, 34, -9, -9, 4, 
-43, -34, 9, 39, -26, -12, -24, 409, 34, -14, 0, 4, 
-39, -39, 0, 39, -19, -19, -24, 409, 39, -14, 9, 0, 
-39, -39, 0, 39, -19, -19, -24, 409, 39, -19, 9, 0, 
-39, -39, 0, 39, -19, -19, -24, 405, 39, -24, 4, 0, 
-39, -48, -9, 43, -14, -29, -24, 405, 29, -29, 0, -4, 
-39, -48, -9, 43, -14, -29, -19, 405, 24, -39, -9, -14, 
-43, -63, -19, 53, -12, -41, -14, 405, 19, -39, -9, -14, 
-48, -73, -24, 61, -12, -48, -9, 400, 14, -39, -9, -14, 
-48, -78, -29, 63, -9, -53, -9, 400, 14, -39, -9, -14, 
-53, -78, -24, 65, -14, -51, -9, 395, 14, -39, -9, -14, 
-53, -78, -24, 65, -14, -51, -4, 390, 14, -34, -4, -19, 
-53, -78, -24, 65, -14, -51, -4, 385, 14, -29, 0, -19, 
-53, -78, -24, 65, -14, -51, 0, 385, 14, -29, 0, -19, 
-53, -78, -24, 65, -14, -51, 0, 385, 14, -29, 0, -19, 
-53, -82, -29, 68, -12, -56, 0, 385, 14, -39, 0, -19, 
-53, -102, -48, 78, -2, -75, 9, 375, 0, -48, -19, -29, 
-43, -175, -131, 109, 43, -153, 14, 390, -39, -102, -68, -87, 
-34, -239, -204, 136, 85, -222, 43, 424, -53, -136, -122, -141, 
-34, -258, -224, 146, 95, -241, 78, 468, -43, -131, -136, -156, 
-29, -229, -200, 129, 85, -214, 92, 531, -4, -112, -122, -146, 
-14, -180, -165, 97, 75, -173, 92, 644, 68, -63, -92, -136, 
24, 9, -14, -17, 19, -2, 92, 824, 244, 112, 58, -24, 
82, 278, 195, -180, -56, 236, 39, 956, 463, 346, 287, 170, 
151, 580, 429, -366, -139, 505, -112, 1088, 717, 614, 556, 400, 
180, 907, 727, -544, -273, 817, -287, 1215, 1015, 907, 824, 634, 
165, 1273, 1107, -719, -470, 1190, -414, 1288, 1337, 1224, 1132, 902, 
112, 1654, 1542, -883, -714, 1598, -541, 1195, 1639, 1537, 1429, 1176, 
48, 1639, 1590, -844, -771, 1615, -585, 990, 1649, 1546, 1424, 1176, 
-58, 1278, 1337, -610, -697, 1307, -492, 727, 1356, 1224, 1127, 956, 
-131, 946, 1078, -407, -605, 1012, -356, 453, 1010, 878, 824, 732, 
-175, 595, 771, -209, -473, 683, -185, 156, 619, 512, 507, 473, 
-239, 326, 566, -43, -402, 446, -102, -73, 356, 268, 287, 287, 
-248, 165, 414, 41, -331, 290, -131, -82, 229, 151, 180, 180, 
-224, 107, 331, 58, -278, 219, -131, -9, 165, 107, 141, 141, 
-165, 78, 244, 43, -204, 161, -126, 141, 117, 68, 117, 117, 
-112, 53, 165, 29, -139, 109, -122, 307, 97, 43, 107, 97, 
-97, 53, 151, 21, -124, 102, -97, 385, 126, 58, 107, 97, 
-82, 48, 131, 17, -107, 90, -68, 409, 151, 63, 107, 87, 
-43, 53, 97, -4, -70, 75, -34, 473, 156, 63, 97, 63, 
-34, 34, 68, 0, -51, 51, -19, 546, 161, 53, 82, 48, 
-34, -4, 29, 19, -31, 12, -9, 551, 151, 39, 68, 39, 
-34, -4, 29, 19, -31, 12, -4, 536, 146, 29, 63, 34, 
-29, -4, 24, 17, -26, 9, -4, 551, 141, 24, 58, 24, 
-24, -14, 9, 19, -17, -2, 0, 566, 141, 29, 63, 19, 
-19, -14, 4, 17, -12, -4, 9, 575, 141, 24, 58, 19, 
-14, -19, -4, 17, -4, -12, 14, 575, 146, 19, 58, 14, 
-14, -24, -9, 19, -2, -17, 14, 585, 146, 19, 58, 9, 
-9, -29, -19, 19, 4, -24, 14, 590, 146, 19, 58, 9, 
-9, -29, -19, 19, 4, -24, 14, 605, 146, 19, 58, 9, 
-4, -29, -24, 17, 9, -26, 14, 619, 151, 19, 58, 9, 
-4, -19, -14, 12, 4, -17, 14, 624, 151, 19, 58, 14, 
-4, -14, -9, 9, 2, -12, 14, 639, 156, 19, 58, 19, 
-4, -14, -9, 9, 2, -12, 14, 639, 156, 19, 63, 19, 
-4, -14, -9, 9, 2, -12, 14, 653, 161, 19, 63, 19, 
-4, -14, -9, 9, 2, -12, 14, 663, 161, 19, 68, 19, 
-4, -14, -9, 9, 2, -12, 14, 668, 165, 19, 73, 19, 
-4, -9, -4, 7, 0, -7, 14, 683, 170, 24, 73, 24, 
0, -4, -4, 2, 2, -4, 9, 692, 175, 24, 78, 29, 
0, -4, -4, 2, 2, -4, 9, 707, 180, 29, 78, 29, 
4, 4, 0, -4, 2, 2, 9, 722, 185, 29, 82, 34, 
4, 9, 4, -7, 0, 7, 9, 736, 190, 29, 87, 34, 
9, 9, 0, -9, 4, 4, 9, 746, 195, 34, 87, 34, 
9, 14, 4, -12, 2, 9, 9, 756, 204, 34, 92, 29, 
9, 14, 4, -12, 2, 9, 9, 766, 214, 39, 92, 29, 
14, 29, 14, -21, 0, 21, 0, 780, 224, 48, 97, 29, 
14, 39, 24, -26, -4, 31, -4, 795, 229, 48, 107, 34, 
24, 43, 19, -34, 2, 31, -4, 814, 239, 53, 112, 39, 
29, 48, 19, -39, 4, 34, -9, 829, 239, 58, 117, 39, 
29, 48, 19, -39, 4, 34, -9, 844, 239, 58, 112, 43, 
29, 53, 24, -41, 2, 39, -14, 858, 239, 58, 112, 43, 
34, 63, 29, -48, 2, 46, -14, 878, 248, 63, 117, 48, 
34, 68, 34, -51, 0, 51, -14, 897, 258, 68, 122, 48, 
43, 82, 39, -63, 2, 61, -24, 912, 268, 78, 131, 58, 
48, 92, 43, -70, 2, 68, -29, 936, 287, 87, 141, 63, 
53, 102, 48, -78, 2, 75, -29, 961, 297, 97, 151, 68, 
58, 117, 58, -87, 0, 87, -34, 985, 302, 102, 156, 73, 
63, 136, 73, -100, -4, 104, -39, 1015, 326, 107, 165, 78, 
68, 141, 73, -104, -2, 107, -43, 1039, 331, 107, 170, 82, 
73, 161, 87, -117, -7, 124, -43, 1058, 341, 122, 185, 92, 
82, 175, 92, -129, -4, 134, -48, 1088, 361, 131, 195, 107, 
87, 190, 102, -139, -7, 146, -53, 1112, 370, 141, 204, 112, 
97, 204, 107, -151, -4, 156, -58, 1137, 390, 156, 219, 122, 
102, 224, 122, -163, -9, 173, -63, 1161, 400, 165, 229, 131, 
107, 248, 141, -178, -17, 195, -63, 1190, 419, 185, 248, 141, 
117, 268, 151, -192, -17, 209, -68, 1215, 439, 200, 258, 151, 
131, 283, 151, -207, -9, 217, -78, 1239, 453, 214, 278, 165, 
131, 302, 170, -217, -19, 236, -92, 1263, 478, 229, 287, 175, 
136, 317, 180, -226, -21, 248, -97, 1288, 488, 244, 297, 185, 
146, 341, 195, -244, -24, 268, -112, 1312, 507, 258, 312, 195, 
146, 361, 214, -253, -34, 287, -117, 1337, 522, 273, 326, 214, 
161, 390, 229, -275, -34, 309, -126, 1366, 541, 292, 341, 224, 
180, 419, 239, -300, -29, 329, -126, 1395, 566, 312, 361, 239, 
185, 444, 258, -314, -36, 351, -141, 1410, 575, 331, 380, 253, 
200, 463, 263, -331, -31, 363, -151, 1424, 595, 346, 400, 263, 
204, 478, 273, -341, -34, 375, -156, 1434, 610, 361, 419, 283, 
209, 497, 287, -353, -39, 392, -165, 1449, 624, 370, 429, 297, 
209, 512, 302, -361, -46, 407, -165, 1454, 629, 380, 444, 307, 
209, 527, 317, -368, -53, 422, -180, 1459, 639, 390, 453, 322, 
214, 546, 331, -380, -58, 439, -185, 1459, 649, 400, 473, 322, 
214, 561, 346, -387, -65, 453, -185, 1454, 658, 405, 478, 336, 
214, 570, 356, -392, -70, 463, -200, 1444, 668, 414, 488, 346, 
204, 585, 380, -395, -87, 483, -200, 1424, 668, 419, 497, 356, 
200, 585, 385, -392, -92, 485, -204, 1385, 668, 424, 507, 361, 
185, 585, 400, -385, -107, 492, -209, 1346, 668, 424, 507, 361, 
175, 580, 405, -378, -114, 492, -209, 1307, 653, 414, 507, 361, 
156, 566, 409, -361, -126, 488, -209, 1263, 619, 400, 502, 361, 
136, 531, 395, -334, -129, 463, -204, 1210, 585, 366, 478, 351, 
126, 497, 370, -312, -122, 434, -195, 1151, 556, 346, 463, 336, 
102, 458, 356, -280, -126, 407, -185, 1098, 531, 322, 439, 317, 
82, 429, 346, -256, -131, 387, -180, 1049, 497, 297, 414, 297, 
63, 385, 322, -224, -129, 353, -161, 990, 468, 263, 390, 268, 
43, 336, 292, -190, -124, 314, -146, 936, 439, 224, 356, 244, 
29, 292, 263, -161, -117, 278, -131, 893, 400, 190, 326, 219, 
14, 258, 244, -136, -114, 251, -122, 854, 356, 165, 297, 195, 
-9, 219, 229, -104, -119, 224, -102, 810, 322, 131, 268, 170, 
-24, 175, 200, -75, -112, 187, -97, 780, 292, 102, 244, 146, 
-39, 146, 185, -53, -112, 165, -82, 756, 268, 73, 214, 126, 
-48, 122, 170, -36, -109, 146, -73, 732, 248, 48, 195, 107, 
-53, 97, 151, -21, -102, 124, -63, 702, 224, 34, 180, 92, 
-68, 73, 141, -2, -104, 107, -53, 683, 209, 9, 161, 82, 
-82, 53, 136, 14, -109, 95, -43, 663, 195, 0, 151, 63, 
-92, 39, 131, 26, -112, 85, -43, 649, 180, -9, 136, 48, 
-97, 24, 122, 36, -109, 73, -39, 634, 170, -24, 126, 39, 
-102, 4, 107, 48, -104, 56, -29, 619, 161, -39, 117, 29, 
-107, 0, 107, 53, -107, 53, -24, 619, 156, -43, 107, 14, 
-112, -4, 107, 58, -109, 51, -24, 610, 146, -43, 102, 4, 
-112, -14, 97, 63, -104, 41, -19, 614, 146, -48, 92, 9, 
-112, -19, 92, 65, -102, 36, -19, 614, 141, -53, 92, 9, 
-112, -19, 92, 65, -102, 36, -19, 610, 136, -58, 87, 4, 
-112, -19, 92, 65, -102, 36, -14, 610, 131, -63, 82, 4, 
-112, -24, 87, 68, -100, 31, -14, 610, 126, -63, 82, 4, 
-112, -29, 82, 70, -97, 26, -14, 610, 126, -63, 82, 4, 
-117, -29, 87, 73, -102, 29, -9, 610, 126, -63, 82, 4, 
-117, -29, 87, 73, -102, 29, -9, 610, 126, -63, 78, 4, 
-117, -29, 87, 73, -102, 29, -9, 614, 126, -63, 78, 0, 
-117, -34, 82, 75, -100, 24, -9, 619, 126, -63, 78, -4, 
-117, -34, 82, 75, -100, 24, -4, 619, 126, -63, 78, -4, 
-122, -34, 87, 78, -104, 26, -4, 619, 126, -63, 78, -4, 
-122, -34, 87, 78, -104, 26, -4, 619, 122, -63, 78, -4, 
-122, -34, 87, 78, -104, 26, -4, 619, 122, -63, 73, -4, 
-122, -34, 87, 78, -104, 26, -9, 619, 122, -63, 73, -4, 
-126, -34, 92, 80, -109, 29, -14, 619, 122, -63, 73, -4, 
-126, -34, 92, 80, -109, 29, -14, 624, 122, -63, 73, -4, 
-126, -34, 92, 80, -109, 29, -14, 624, 122, -58, 68, 0, 
-122, -34, 87, 78, -104, 26, -14, 624, 122, -53, 68, 0, 
-117, -29, 87, 73, -102, 29, -14, 624, 122, -43, 68, 0, 
-117, -29, 87, 73, -102, 29, -14, 624, 117, -43, 68, 0, 
-117, -24, 92, 70, -104, 34, -9, 629, 112, -43, 68, 0, 
-117, -24, 92, 70, -104, 34, -9, 629, 112, -43, 68, 0, 
-117, -24, 92, 70, -104, 34, -9, 629, 107, -48, 68, 0, 
-117, -19, 97, 68, -107, 39, -14, 629, 112, -48, 63, 0, 
-112, -19, 92, 65, -102, 36, -14, 629, 107, -48, 63, 0, 
-112, -19, 92, 65, -102, 36, -14, 634, 107, -43, 63, 0, 
-112, -19, 92, 65, -102, 36, -14, 634, 107, -39, 58, 4, 
-112, -19, 92, 65, -102, 36, -14, 634, 107, -39, 58, 4, 
-112, -19, 92, 65, -102, 36, -14, 634, 107, -39, 58, 4, 
-107, -19, 87, 63, -97, 34, -14, 634, 107, -39, 58, 4, 
-107, -19, 87, 63, -97, 34, -14, 634, 107, -39, 58, 9, 
-107, -19, 87, 63, -97, 34, -14, 634, 107, -39, 58, 9, 
-107, -19, 87, 63, -97, 34, -14, 634, 112, -39, 63, 9, 
-107, -19, 87, 63, -97, 34, -14, 634, 107, -34, 63, 9, 
-107, -19, 87, 63, -97, 34, -14, 634, 107, -34, 63, 9, 
-107, -19, 87, 63, -97, 34, -14, 629, 102, -34, 53, 9, 
-107, -19, 87, 63, -97, 34, -19, 629, 102, -34, 53, 9, 
-107, -19, 87, 63, -97, 34, -19, 629, 97, -34, 48, 4, 
-102, -19, 82, 61, -92, 31, -14, 629, 92, -34, 43, 0, 
-102, -14, 87, 58, -95, 36, -14, 624, 87, -29, 43, 0, 
-102, -9, 92, 56, -97, 41, -14, 624, 87, -24, 43, 0, 
-102, -9, 92, 56, -97, 41, -14, 619, 78, -24, 39, 4, 
-102, -4, 97, 53, -100, 46, -14, 624, 68, -29, 34, 4, 
-102, -14, 87, 58, -95, 36, -14, 619, 68, -34, 29, 4, 
-102, -14, 87, 58, -95, 36, -14, 619, 63, -43, 19, 4, 
-102, -14, 87, 58, -95, 36, -14, 614, 58, -43, 19, 4, 
-102, -19, 82, 61, -92, 31, -14, 610, 58, -43, 14, 4, 
-102, -19, 82, 61, -92, 31, -9, 605, 53, -39, 14, 4, 
-102, -24, 78, 63, -90, 26, -9, 605, 53, -34, 14, 4, 
-102, -24, 78, 63, -90, 26, -9, 605, 48, -39, 4, 4, 
-102, -24, 78, 63, -90, 26, -9, 605, 43, -39, 0, 4, 
-102, -24, 78, 63, -90, 26, -9, 595, 43, -39, 0, 4, 
-102, -24, 78, 63, -90, 26, -9, 595, 43, -39, 0, 4, 
-102, -24, 78, 63, -90, 26, -4, 590, 43, -39, 0, 0, 
-102, -29, 73, 65, -87, 21, 0, 590, 39, -39, 0, 0, 
-102, -29, 73, 65, -87, 21, 0, 590, 34, -43, -4, 0, 
-102, -34, 68, 68, -85, 17, 0, 590, 34, -43, -4, 0, 
-102, -34, 68, 68, -85, 17, 0, 580, 34, -39, -4, -4, 
-102, -34, 68, 68, -85, 17, 0, 580, 34, -34, 0, -4, 
-102, -34, 68, 68, -85, 17, 0, 585, 24, -34, 0, -9, 
-102, -34, 68, 68, -85, 17, 0, 590, 14, -34, 0, -9, 
-102, -34, 68, 68, -85, 17, 0, 585, 9, -34, 0, -9, 
-97, -34, 63, 65, -80, 14, 0, 585, 4, -34, 0, -9, 
-97, -39, 58, 68, -78, 9, -4, 585, 0, -34, 0, -14, 
-97, -39, 58, 68, -78, 9, -9, 585, -4, -34, 0, -14, 
-102, -39, 63, 70, -82, 12, -4, 580, 0, -34, 0, -14, 
-107, -39, 68, 73, -87, 14, -4, 580, 0, -34, 0, -14, 
-102, -39, 63, 70, -82, 12, -4, 575, 0, -29, -4, -14, 
-102, -39, 63, 70, -82, 12, -4, 575, -4, -24, -4, -14, 
-102, -43, 58, 73, -80, 7, -9, 566, -4, -24, -4, -14, 
-102, -43, 58, 73, -80, 7, -9, 566, -4, -24, -4, -14, 
-102, -43, 58, 73, -80, 7, -4, 566, -4, -24, -4, -14, 
-102, -43, 58, 73, -80, 7, 0, 566, -4, -19, -4, -14, 
-102, -43, 58, 73, -80, 7, 0, 566, -4, -19, -4, -14, 
-102, -43, 58, 73, -80, 7, 0, 561, -4, -19, 0, -14, 
-102, -43, 58, 73, -80, 7, 0, 566, -4, -14, 0, -14, 
-97, -43, 53, 70, -75, 4, 0, 566, -4, -14, 4, -9, 
-92, -34, 58, 63, -75, 12, 0, 561, 0, -14, 0, -4, 
-87, -29, 58, 58, -73, 14, 0, 556, 0, -19, 0, 0, 
-87, -29, 58, 58, -73, 14, -4, 556, 0, -19, 0, -4, 
-87, -29, 58, 58, -73, 14, -9, 556, 0, -19, 0, -9, 
-87, -24, 63, 56, -75, 19, -9, 551, 0, -14, 0, -9, 
-87, -19, 68, 53, -78, 24, -9, 546, 0, -9, 0, -9, 
-87, -19, 68, 53, -78, 24, -9, 546, 0, -9, 0, -9, 
-87, -19, 68, 53, -78, 24, -9, 546, 0, -9, 0, -9, 
-87, -24, 63, 56, -75, 19, -9, 546, 0, -9, 0, -9, 
-87, -29, 58, 58, -73, 14, -9, 546, 0, -9, 0, -9, 
-82, -29, 53, 56, -68, 12, -9, 546, 0, -9, 0, -9, 
-78, -29, 48, 53, -63, 9, -9, 546, 0, -9, 0, -9, 
-78, -29, 48, 53, -63, 9, -9, 541, 4, -9, 4, -9, 
-78, -29, 48, 53, -63, 9, -9, 536, 9, -9, 9, -9, 
-78, -24, 53, 51, -65, 14, -9, 536, 9, -9, 9, -9, 
-78, -19, 58, 48, -68, 19, -9, 536, 9, -9, 9, -9, 
-73, -19, 53, 46, -63, 17, -9, 536, 9, -9, 9, -4, 
-68, -19, 48, 43, -58, 14, -9, 536, 9, -9, 9, 0, 
-68, -19, 48, 43, -58, 14, -9, 536, 9, -4, 14, 0, 
-68, -19, 48, 43, -58, 14, -9, 536, 9, 0, 19, 0, 
-68, -14, 53, 41, -61, 19, -9, 536, 9, 0, 19, 0, 
-68, -9, 58, 39, -63, 24, -9, 536, 9, 0, 19, 0, 
-68, -9, 58, 39, -63, 24, -9, 531, 14, 0, 14, 0, 
-68, -9, 58, 39, -63, 24, -9, 527, 19, 0, 9, 0, 
-68, -9, 58, 39, -63, 24, -9, 527, 19, 0, 9, 0, 
-68, -9, 58, 39, -63, 24, -9, 527, 19, 0, 9, 0, 
-68, -14, 53, 41, -61, 19, -9, 522, 14, -4, 14, 0, 
-68, -19, 48, 43, -58, 14, -9, 517, 9, -9, 19, 0, 
-63, -19, 43, 41, -53, 12, -9, 517, 9, -9, 19, 0, 
-58, -19, 39, 39, -48, 9, -9, 517, 9, -9, 19, 0, 
-58, -14, 43, 36, -51, 14, -9, 512, 9, -9, 19, 0, 
-58, -9, 48, 34, -53, 19, -9, 507, 9, -9, 19, 0, 
-53, -9, 43, 31, -48, 17, -9, 507, 9, -9, 19, 0, 
-48, -9, 39, 29, -43, 14, -9, 507, 9, -9, 19, 0, 
-48, -9, 39, 29, -43, 14, -9, 507, 14, -4, 19, 0, 
-48, -9, 39, 29, -43, 14, -9, 507, 19, 0, 19, 0, 
-48, -9, 39, 29, -43, 14, -9, 507, 19, 0, 19, 4, 
-48, -9, 39, 29, -43, 14, -9, 507, 19, 0, 19, 9, 
-43, -9, 34, 26, -39, 12, -9, 502, 19, 0, 19, 9, 
-39, -9, 29, 24, -34, 9, -9, 497, 19, 0, 19, 9, 
-39, -9, 29, 24, -34, 9, -9, 497, 19, 0, 19, 9, 
-39, -9, 29, 24, -34, 9, -9, 497, 19, 0, 19, 9, 
-39, -9, 29, 24, -34, 9, -9, 492, 19, 0, 19, 9, 
-39, -9, 29, 24, -34, 9, -9, 488, 19, 0, 19, 9, 
-39, -9, 29, 24, -34, 9, -9, 488, 19, 0, 19, 9, 
-39, -9, 29, 24, -34, 9, -9, 488, 19, 0, 19, 9, 
-34, -14, 19, 24, -26, 2, -9, 488, 19, 0, 19, 4, 
-29, -19, 9, 24, -19, -4, -9, 488, 19, 0, 19, 0, 
-29, -19, 9, 24, -19, -4, -9, 488, 19, -4, 19, 0, 
-29, -19, 9, 24, -19, -4, -9, 488, 19, -9, 19, 0, 
-24, -19, 4, 21, -14, -7, -9, 483, 19, -9, 19, 0, 
-19, -19, 0, 19, -9, -9, -9, 478, 19, -9, 19, 0, 
-19, -19, 0, 19, -9, -9, -14, 478, 19, -4, 19, 0, 
-19, -19, 0, 19, -9, -9, -19, 478, 19, 0, 19, 0, 
-19, -14, 4, 17, -12, -4, -19, 473, 19, 0, 19, 4, 
-19, -9, 9, 14, -14, 0, -19, 468, 19, 0, 19, 9, 
-19, -9, 9, 14, -14, 0, -19, 468, 19, 0, 19, 9, 
-19, -9, 9, 14, -14, 0, -19, 468, 19, 0, 19, 9, 
-14, -9, 4, 12, -9, -2, -19, 463, 19, 0, 19, 4, 
-9, -9, 0, 9, -4, -4, -19, 458, 19, 0, 19, 0, 
-9, -9, 0, 9, -4, -4, -19, 458, 19, 0, 19, 0, 
-9, -9, 0, 9, -4, -4, -19, 458, 19, 0, 19, 0, 
-9, -9, 0, 9, -4, -4, -19, 453, 19, -4, 19, 0, 
-9, -9, 0, 9, -4, -4, -19, 448, 19, -9, 19, 0, 
-9, -9, 0, 9, -4, -4, -19, 448, 19, -9, 19, 0, 
-9, -9, 0, 9, -4, -4, -19, 448, 19, -9, 19, 0, 
-9, -9, 0, 9, -4, -4, -14, 444, 19, -9, 19, 0, 
-9, -9, 0, 9, -4, -4, -9, 439, 19, -9, 19, 0, 
-4, -9, -4, 7, 0, -7, -9, 439, 19, -9, 19, 4, 
0, -9, -9, 4, 4, -9, -9, 439, 19, -9, 19, 9, 
0, -14, -14, 7, 7, -14, -9, 439, 19, -4, 19, 9, 
0, -19, -19, 9, 9, -19, -9, 439, 19, 0, 19, 9, 
-4, -19, -14, 12, 4, -17, -9, 434, 19, 0, 19, 9, 
-9, -19, -9, 14, 0, -14, -9, 429, 19, 0, 19, 9, 
-9, -19, -9, 14, 0, -14, -9, 429, 19, 0, 19, 9, 
-9, -19, -9, 14, 0, -14, -9, 429, 19, 0, 19, 9, 
-9, -14, -4, 12, -2, -9, -9, 424, 19, 0, 19, 9, 
-9, -9, 0, 9, -4, -4, -9, 419, 19, 0, 19, 9, 
-9, -4, 4, 7, -7, 0, -9, 419, 19, 0, 19, 9, 
-9, 0, 9, 4, -9, 4, -9, 419, 19, 0, 19, 9, 
-4, 4, 9, 0, -7, 7, -4, 419, 19, 0, 24, 9, 
0, 9, 9, -4, -4, 9, 0, 419, 19, 0, 29, 9, 
0, 14, 14, -7, -7, 14, 0, 424, 34, 4, 29, 14, 
0, 24, 24, -12, -12, 24, 4, 424, 43, 9, 34, 19, 
4, 34, 29, -19, -12, 31, 9, 429, 53, 19, 39, 24, 
4, 34, 29, -19, -12, 31, 9, 429, 58, 24, 39, 24, 
9, 39, 29, -24, -9, 34, 9, 434, 58, 24, 39, 24, 
9, 43, 34, -26, -12, 39, 14, 444, 58, 29, 43, 34, 
4, 63, 58, -34, -26, 61, 14, 448, 63, 39, 53, 39, 
-4, 92, 97, -43, -51, 95, 9, 453, 78, 53, 68, 58, 
-4, 122, 126, -58, -65, 124, 0, 463, 97, 68, 92, 82, 
-9, 141, 151, -65, -80, 146, -14, 463, 107, 87, 107, 92, 
-9, 141, 151, -65, -80, 146, -19, 463, 107, 87, 107, 97, 
-4, 141, 146, -68, -75, 143, -29, 444, 102, 87, 107, 97, 
-4, 146, 151, -70, -78, 148, -29, 439, 102, 87, 107, 97, 
-4, 151, 156, -73, -80, 153, -29, 434, 102, 87, 107, 97, 
-4, 161, 165, -78, -85, 163, -29, 434, 97, 87, 107, 97, 
-4, 165, 170, -80, -87, 168, -29, 434, 97, 87, 107, 102, 
-4, 170, 175, -82, -90, 173, -29, 429, 102, 92, 112, 112, 
0, 161, 161, -80, -80, 161, -29, 424, 97, 87, 107, 112, 
0, 117, 117, -58, -58, 117, -29, 414, 78, 68, 82, 87, 
0, 73, 73, -36, -36, 73, -24, 400, 58, 48, 63, 63, 
-9, 34, 43, -12, -26, 39, -19, 390, 34, 19, 29, 39, 
-14, 14, 29, 0, -21, 21, -14, 380, 19, 14, 24, 24, 
-19, 4, 24, 7, -21, 14, -14, 361, 14, 9, 19, 24, 
-24, -4, 19, 14, -21, 7, -14, 356, 9, 4, 19, 19, 
-29, -9, 19, 19, -24, 4, -9, 346, 4, 0, 14, 14, 
-29, -9, 19, 19, -24, 4, -9, 341, -4, -9, 9, 14, 
-29, -14, 14, 21, -21, 0, -14, 326, -9, -14, 0, 9, 
-29, -19, 9, 24, -19, -4, -14, 322, -9, -14, -9, 0, 
-29, -19, 9, 24, -19, -4, -14, 322, -9, -14, -9, -4, 
-29, -19, 9, 24, -19, -4, -14, 317, -9, -14, -14, -9, 
-34, -29, 4, 31, -19, -12, -19, 312, -14, -14, -9, -9, 
-39, -29, 9, 34, -24, -9, -19, 307, -14, -19, -9, -14, 
-39, -39, 0, 39, -19, -19, -19, 307, -14, -24, -9, -14, 
-39, -43, -4, 41, -17, -24, -19, 302, -14, -29, -9, -14, 
-39, -48, -9, 43, -14, -29, -19, 302, -14, -29, -9, -14, 
-43, -48, -4, 46, -19, -26, -19, 297, -14, -29, -9, -14, 
-43, -48, -4, 46, -19, -26, -14, 292, -14, -29, -9, -19, 
-43, -48, -4, 46, -19, -26, -14, 287, -14, -29, -9, -19, 
-43, -48, -4, 46, -19, -26, -9, 283, -9, -29, -9, -19, 
-43, -48, -4, 46, -19, -26, -9, 278, -4, -29, -9, -19, 
-43, -53, -9, 48, -17, -31, -9, 278, -4, -34, -9, -19, 
-43, -73, -29, 58, -7, -51, 0, 268, -19, -39, -29, -29, 
-39, -146, -107, 92, 34, -126, 4, 273, -58, -97, -78, -87, 
-34, -209, -175, 122, 70, -192, 34, 297, -73, -136, -131, -141, 
-34, -244, -209, 139, 87, -226, 73, 331, -82, -151, -156, -161, 
-29, -229, -200, 129, 85, -214, 92, 385, -63, -151, -151, -156, 
-14, -219, -204, 117, 95, -212, 97, 492, -4, -126, -146, -170, 
24, -68, -92, 21, 58, -80, 102, 668, 156, 24, -19, -82, 
73, 204, 131, -139, -29, 168, 68, 800, 370, 268, 204, 102, 
131, 512, 380, -322, -124, 446, -63, 932, 619, 546, 468, 322, 
175, 844, 668, -509, -246, 756, -248, 1078, 932, 839, 736, 556, 
175, 1215, 1039, -695, -431, 1127, -385, 1171, 1268, 1156, 1044, 824, 
122, 1683, 1561, -902, -719, 1622, -546, 1088, 1634, 1551, 1420, 1171, 
58, 1756, 1698, -907, -819, 1727, -624, 893, 1708, 1644, 1493, 1244, 
-48, 1415, 1464, -683, -756, 1439, -551, 644, 1429, 1322, 1215, 1049, 
-122, 1102, 1224, -490, -673, 1163, -434, 385, 1098, 976, 932, 849, 
-161, 707, 868, -273, -514, 788, -244, 68, 653, 566, 570, 551, 
-219, 395, 614, -87, -417, 505, -141, -180, 336, 278, 307, 326, 
-239, 229, 468, 4, -353, 348, -161, -204, 219, 165, 200, 209, 
-224, 165, 390, 29, -307, 278, -151, -146, 165, 126, 161, 161, 
-161, 126, 287, 17, -224, 207, -141, 4, 102, 82, 126, 122, 
-102, 92, 195, 4, -148, 143, -131, 170, 68, 53, 107, 87, 
-87, 102, 190, -7, -139, 146, -107, 263, 107, 68, 107, 92, 
-73, 107, 180, -17, -126, 143, -78, 302, 141, 73, 107, 87, 
-34, 102, 136, -34, -85, 119, -43, 366, 141, 68, 97, 63, 
-24, 73, 97, -24, -61, 85, -29, 439, 141, 53, 82, 48, 
-24, 29, 53, -2, -39, 41, -14, 444, 131, 39, 68, 39, 
-24, 24, 48, 0, -36, 36, -4, 429, 126, 29, 63, 34, 
-19, 24, 43, -2, -31, 34, -4, 448, 122, 19, 53, 24, 
-14, 14, 29, 0, -21, 21, 0, 468, 122, 19, 53, 19, 
-14, 14, 29, 0, -21, 21, 4, 478, 117, 14, 48, 19, 
-14, 9, 24, 2, -19, 17, 4, 478, 117, 9, 48, 14, 
-14, 4, 19, 4, -17, 12, 4, 488, 117, 9, 48, 9, 
-9, 0, 9, 4, -9, 4, 4, 492, 117, 9, 48, 9, 
-9, 0, 9, 4, -9, 4, 4, 502, 117, 9, 48, 9, 
-4, 0, 4, 2, -4, 2, 4, 512, 122, 9, 48, 9, 
-4, 4, 9, 0, -7, 7, 0, 512, 122, 9, 48, 9, 
-4, 4, 9, 0, -7, 7, -4, 522, 126, 9, 48, 9, 
-4, 4, 9, 0, -7, 7, -4, 522, 126, 9, 53, 9, 
-4, 4, 9, 0, -7, 7, -4, 536, 131, 9, 53, 9, 
-9, 0, 9, 4, -9, 4, -4, 546, 126, 9, 53, 9, 
-14, -4, 9, 9, -12, 2, -4, 551, 126, 9, 53, 9, 
-14, 0, 14, 7, -14, 7, -4, 566, 131, 14, 53, 9, 
-9, 4, 14, 2, -12, 9, -9, 575, 136, 14, 58, 9, 
-9, 9, 19, 0, -14, 14, -9, 590, 141, 19, 58, 4, 
-4, 24, 29, -9, -17, 26, -9, 605, 146, 19, 63, 4, 
-4, 29, 34, -12, -19, 31, -9, 619, 151, 19, 68, 4, 
0, 29, 29, -14, -14, 29, -9, 629, 156, 24, 68, 4, 
0, 34, 34, -17, -17, 34, -9, 644, 161, 24, 68, 9, 
0, 34, 34, -17, -17, 34, -9, 658, 165, 29, 63, 19, 
4, 43, 39, -24, -17, 41, -9, 673, 175, 39, 68, 19, 
4, 48, 43, -26, -19, 46, -4, 688, 180, 39, 78, 24, 
14, 53, 39, -34, -12, 46, -4, 702, 195, 43, 82, 29, 
19, 58, 39, -39, -9, 48, -9, 712, 200, 48, 87, 29, 
19, 63, 43, -41, -12, 53, -9, 727, 204, 53, 87, 34, 
19, 73, 53, -46, -17, 63, -14, 741, 209, 58, 92, 34, 
24, 82, 58, -53, -17, 70, -14, 766, 219, 63, 97, 34, 
24, 87, 63, -56, -19, 75, -14, 790, 229, 68, 102, 29, 
34, 102, 68, -68, -17, 85, -24, 805, 234, 73, 107, 39, 
39, 112, 73, -75, -17, 92, -29, 829, 248, 78, 112, 43, 
43, 122, 78, -82, -17, 100, -29, 849, 258, 87, 122, 48, 
48, 136, 87, -92, -19, 112, -34, 868, 263, 92, 126, 53, 
53, 156, 102, -104, -24, 129, -39, 897, 287, 102, 136, 58, 
58, 161, 102, -109, -21, 131, -43, 922, 292, 107, 141, 63, 
63, 185, 122, -124, -29, 153, -43, 941, 302, 122, 156, 73, 
73, 204, 131, -139, -29, 168, -48, 971, 322, 131, 165, 87, 
78, 219, 141, -148, -31, 180, -53, 995, 331, 141, 175, 92, 
87, 234, 146, -161, -29, 190, -58, 1019, 351, 156, 190, 102, 
92, 253, 161, -173, -34, 207, -63, 1044, 361, 161, 200, 112, 
97, 278, 180, -187, -41, 229, -63, 1073, 380, 175, 219, 122, 
107, 297, 190, -202, -41, 244, -68, 1102, 400, 190, 229, 131, 
122, 312, 190, -217, -34, 251, -78, 1132, 414, 204, 248, 146, 
126, 336, 209, -231, -41, 273, -87, 1161, 444, 229, 268, 156, 
136, 356, 219, -246, -41, 287, -87, 1190, 458, 253, 287, 165, 
146, 380, 234, -263, -43, 307, -102, 1220, 478, 268, 302, 175, 
146, 400, 253, -273, -53, 326, -107, 1249, 492, 283, 317, 195, 
156, 419, 263, -287, -53, 341, -117, 1273, 512, 297, 331, 204, 
170, 439, 268, -305, -48, 353, -117, 1298, 536, 312, 351, 219, 
170, 463, 292, -317, -61, 378, -131, 1317, 551, 331, 366, 234, 
180, 483, 302, -331, -61, 392, -141, 1337, 575, 346, 380, 244, 
185, 502, 317, -344, -65, 409, -146, 1346, 590, 361, 400, 263, 
190, 527, 336, -358, -73, 431, -156, 1361, 605, 370, 409, 278, 
195, 541, 346, -368, -75, 444, -156, 1366, 610, 380, 424, 287, 
200, 556, 356, -378, -78, 456, -170, 1371, 619, 390, 434, 302, 
204, 575, 370, -390, -82, 473, -175, 1376, 629, 405, 453, 307, 
204, 590, 385, -397, -90, 488, -175, 1376, 639, 414, 458, 326, 
204, 600, 395, -402, -95, 497, -190, 1366, 649, 424, 473, 336, 
195, 614, 419, -405, -112, 517, -190, 1346, 649, 429, 488, 346, 
190, 614, 424, -402, -117, 519, -195, 1312, 649, 434, 497, 351, 
175, 614, 439, -395, -131, 527, -200, 1278, 649, 434, 497, 351, 
165, 610, 444, -387, -139, 527, -200, 1229, 639, 429, 497, 351, 
146, 595, 448, -370, -151, 522, -200, 1176, 610, 419, 492, 351, 
126, 566, 439, -346, -156, 502, -200, 1122, 575, 385, 468, 341, 
117, 536, 419, -326, -151, 478, -195, 1063, 546, 366, 453, 326, 
92, 497, 405, -295, -156, 451, -190, 1005, 522, 341, 429, 307, 
73, 468, 395, -270, -161, 431, -190, 951, 488, 317, 405, 287, 
58, 429, 370, -244, -156, 400, -175, 888, 444, 278, 380, 258, 
43, 385, 341, -214, -148, 363, -165, 829, 400, 234, 346, 234, 
29, 341, 312, -185, -141, 326, -146, 785, 370, 200, 317, 209, 
14, 307, 292, -161, -139, 300, -131, 746, 336, 175, 287, 185, 
-4, 268, 273, -131, -139, 270, -112, 697, 297, 141, 258, 161, 
-14, 224, 239, -104, -126, 231, -107, 663, 263, 112, 234, 136, 
-29, 190, 219, -80, -124, 204, -92, 639, 239, 82, 200, 112, 
-39, 161, 200, -61, -119, 180, -82, 614, 219, 58, 175, 87, 
-43, 136, 180, -46, -112, 158, -73, 585, 195, 39, 161, 73, 
-58, 112, 170, -26, -114, 141, -63, 566, 180, 9, 141, 63, 
-68, 92, 161, -12, -114, 126, -53, 551, 165, 0, 131, 48, 
-73, 78, 151, -2, -112, 114, -53, 541, 151, -9, 117, 39, 
-73, 63, 136, 4, -104, 100, -48, 527, 136, -24, 107, 29, 
-73, 43, 117, 14, -95, 80, -39, 512, 122, -39, 97, 19, 
-78, 34, 112, 21, -95, 73, -29, 512, 117, -43, 87, 4, 
-82, 24, 107, 29, -95, 65, -24, 502, 107, -43, 82, -4, 
-82, 14, 97, 34, -90, 56, -19, 502, 107, -48, 73, -4, 
-82, 9, 92, 36, -87, 51, -19, 497, 102, -53, 73, -9, 
-82, 9, 92, 36, -87, 51, -19, 492, 97, -58, 68, -14, 
-82, 9, 92, 36, -87, 51, -14, 492, 92, -63, 63, -14, 
-82, 4, 87, 39, -85, 46, -14, 492, 82, -63, 63, -14, 
-82, 0, 82, 41, -82, 41, -14, 492, 78, -63, 63, -14, 
-87, 0, 87, 43, -87, 43, -9, 492, 78, -63, 63, -14, 
-87, 0, 87, 43, -87, 43, -9, 492, 78, -63, 58, -14, 
-87, 0, 87, 43, -87, 43, -9, 492, 82, -63, 58, -14, 
-87, -4, 82, 46, -85, 39, -9, 492, 87, -63, 58, -14, 
-87, -4, 82, 46, -85, 39, -4, 488, 87, -63, 58, -14, 
-92, -4, 87, 48, -90, 41, -4, 483, 87, -63, 58, -14, 
-92, 0, 92, 46, -92, 46, -4, 483, 82, -63, 58, -9, 
-92, 4, 97, 43, -95, 51, -4, 483, 82, -63, 53, -4, 
-87, 4, 92, 41, -90, 48, -4, 488, 82, -58, 53, -4, 
-87, 4, 92, 41, -90, 48, -4, 492, 82, -53, 53, -4, 
-87, 0, 87, 43, -87, 43, -9, 497, 82, -53, 53, -9, 
-87, -4, 82, 46, -85, 39, -14, 497, 82, -48, 48, -9, 
-87, -4, 82, 46, -85, 39, -14, 497, 82, -53, 48, -9, 
-87, 0, 87, 43, -87, 43, -14, 497, 82, -53, 48, -9, 
-87, -4, 82, 46, -85, 39, -14, 497, 82, -53, 48, -9, 
-87, -4, 82, 46, -85, 39, -9, 502, 82, -53, 48, -9, 
-87, -4, 82, 46, -85, 39, -9, 502, 82, -48, 48, -4, 
-87, -4, 82, 46, -85, 39, -9, 502, 78, -48, 48, 0, 
-87, 0, 87, 43, -87, 43, -14, 502, 78, -48, 43, 0, 
-82, 0, 82, 41, -82, 41, -14, 502, 68, -48, 43, 0, 
-82, 0, 82, 41, -82, 41, -14, 507, 68, -48, 43, 0, 
-82, 0, 82, 41, -82, 41, -14, 507, 68, -48, 39, 4, 
-82, 0, 82, 41, -82, 41, -14, 507, 63, -48, 39, 4, 
-82, 0, 82, 41, -82, 41, -14, 507, 58, -48, 39, 4, 
-78, 0, 78, 39, -78, 39, -14, 507, 58, -48, 39, 0, 
-78, 0, 78, 39, -78, 39, -14, 507, 58, -48, 39, 0, 
-78, 0, 78, 39, -78, 39, -14, 507, 53, -48, 34, 0, 
-78, 0, 78, 39, -78, 39, -14, 507, 53, -48, 34, 0, 
-78, 0, 78, 39, -78, 39, -14, 507, 48, -43, 34, 0, 
-78, 0, 78, 39, -78, 39, -14, 507, 48, -43, 34, 0, 
-78, 0, 78, 39, -78, 39, -14, 502, 43, -43, 29, 0, 
-78, 0, 78, 39, -78, 39, -19, 502, 43, -43, 34, 0, 
-78, 0, 78, 39, -78, 39, -19, 502, 39, -43, 29, 0, 
-73, 0, 73, 36, -73, 36, -14, 502, 34, -43, 24, 0, 
-73, 0, 73, 36, -73, 36, -14, 497, 29, -43, 24, 0, 
-73, 0, 73, 36, -73, 36, -14, 497, 29, -43, 24, 0, 
-73, -4, 68, 39, -70, 31, -14, 488, 24, -39, 19, 0, 
-73, -4, 68, 39, -70, 31, -14, 488, 19, -39, 14, -4, 
-73, -14, 58, 43, -65, 21, -14, 483, 19, -39, 14, -4, 
-73, -14, 58, 43, -65, 21, -14, 483, 14, -43, 9, -4, 
-73, -9, 63, 41, -68, 26, -14, 478, 9, -43, 9, -4, 
-73, -9, 63, 41, -68, 26, -14, 473, 9, -43, 4, -4, 
-73, -9, 63, 41, -68, 26, -9, 468, 4, -43, 0, -4, 
-73, -14, 58, 43, -65, 21, -9, 468, 4, -43, -4, -4, 
-68, -14, 53, 41, -61, 19, -9, 468, 0, -48, -9, -4, 
-63, -14, 48, 39, -56, 17, -9, 468, -4, -48, -9, -4, 
-63, -19, 43, 41, -53, 12, -9, 458, -9, -48, -9, -9, 
-63, -24, 39, 43, -51, 7, -9, 458, -14, -48, -9, -14, 
-68, -24, 43, 46, -56, 9, -9, 453, -14, -48, -9, -19, 
-73, -29, 43, 51, -58, 7, -9, 453, -19, -48, -9, -19, 
-73, -34, 39, 53, -56, 2, -9, 453, -24, -58, -14, -19, 
-73, -43, 29, 58, -51, -7, -9, 453, -24, -63, -14, -19, 
-73, -48, 24, 61, -48, -12, -9, 444, -24, -63, -19, -24, 
-73, -53, 19, 63, -46, -17, -9, 444, -24, -63, -19, -24, 
-73, -53, 19, 63, -46, -17, -9, 444, -24, -63, -19, -24, 
-73, -53, 19, 63, -46, -17, -9, 444, -24, -63, -19, -19, 
-73, -53, 19, 63, -46, -17, -9, 439, -24, -63, -19, -14, 
-68, -53, 14, 61, -41, -19, -9, 439, -24, -63, -19, -9, 
-68, -58, 9, 63, -39, -24, -9, 439, -24, -58, -14, -14, 
-68, -58, 9, 63, -39, -24, -9, 439, -24, -53, -9, -14, 
-73, -58, 14, 65, -43, -21, -4, 429, -19, -53, -9, -14, 
-78, -58, 19, 68, -48, -19, -4, 424, -19, -53, -9, -14, 
-73, -53, 19, 63, -46, -17, -4, 419, -14, -53, -14, -14, 
-73, -48, 24, 61, -48, -12, -4, 419, -14, -53, -14, -14, 
-73, -53, 19, 63, -46, -17, -9, 414, -14, -53, -14, -14, 
-73, -53, 19, 63, -46, -17, -9, 419, -14, -53, -14, -14, 
-73, -53, 19, 63, -46, -17, -9, 419, -14, -53, -14, -14, 
-73, -53, 19, 63, -46, -17, -9, 419, -14, -48, -14, -14, 
-73, -53, 19, 63, -46, -17, -9, 419, -14, -48, -14, -14, 
-73, -53, 19, 63, -46, -17, -9, 414, -14, -48, -9, -14, 
-73, -53, 19, 63, -46, -17, -9, 414, -14, -43, -9, -14, 
-68, -53, 14, 61, -41, -19, -9, 409, -14, -43, -4, -9, 
-68, -53, 14, 61, -41, -19, -9, 405, -9, -43, 0, -9, 
-68, -58, 9, 63, -39, -24, -9, 400, -9, -48, 0, -9, 
-68, -58, 9, 63, -39, -24, -9, 400, -9, -48, -4, -9, 
-68, -58, 9, 63, -39, -24, -9, 400, -9, -48, -9, -9, 
-63, -58, 4, 61, -34, -26, -9, 400, -9, -43, -9, -14, 
-58, -58, 0, 58, -29, -29, -9, 400, -9, -39, -9, -19, 
-58, -58, 0, 58, -29, -29, -9, 400, -9, -39, -9, -19, 
-58, -58, 0, 58, -29, -29, -9, 400, -9, -39, -9, -19, 
-58, -58, 0, 58, -29, -29, -9, 395, -4, -34, -4, -19, 
-58, -58, 0, 58, -29, -29, -9, 390, 0, -29, 0, -19, 
-53, -58, -4, 56, -24, -31, -9, 390, 0, -29, 0, -14, 
-48, -58, -9, 53, -19, -34, -9, 390, 0, -29, 0, -9, 
-48, -58, -9, 53, -19, -34, -9, 390, 0, -29, 4, -9, 
-48, -58, -9, 53, -19, -34, -9, 390, 0, -29, 9, -9, 
-48, -58, -9, 53, -19, -34, -9, 390, 0, -29, 9, -9, 
-48, -58, -9, 53, -19, -34, -9, 390, 0, -29, 9, -9, 
-43, -58, -14, 51, -14, -36, -9, 390, 0, -24, 9, -9, 
-39, -58, -19, 48, -9, -39, -9, 390, 0, -19, 9, -9, 
-39, -53, -14, 46, -12, -34, -9, 385, 4, -14, 9, -9, 
-39, -48, -9, 43, -14, -29, -9, 380, 9, -9, 9, -9, 
-34, -43, -9, 39, -12, -26, -9, 380, 9, -9, 9, -9, 
-29, -39, -9, 34, -9, -24, -9, 380, 9, -9, 9, -9, 
-29, -39, -9, 34, -9, -24, -9, 380, 9, -9, 9, -9, 
-29, -39, -9, 34, -9, -24, -9, 380, 9, -9, 9, -9, 
-29, -43, -14, 36, -7, -29, -9, 375, 9, -9, 9, -9, 
-29, -48, -19, 39, -4, -34, -9, 370, 9, -9, 9, -9, 
-29, -48, -19, 39, -4, -34, -9, 370, 9, -9, 9, -9, 
-29, -48, -19, 39, -4, -34, -9, 370, 9, -9, 9, -9, 
-29, -48, -19, 39, -4, -34, -9, 366, 9, -9, 9, -9, 
-29, -48, -19, 39, -4, -34, -9, 361, 9, -9, 9, -9, 
-24, -43, -19, 34, -2, -31, -9, 361, 9, -14, 9, -9, 
-19, -39, -19, 29, 0, -29, -9, 361, 9, -19, 9, -9, 
-14, -39, -24, 26, 4, -31, -9, 361, 14, -19, 9, -9, 
-9, -39, -29, 24, 9, -34, -9, 361, 19, -19, 9, -9, 
-9, -39, -29, 24, 9, -34, -9, 361, 19, -19, 9, -9, 
-9, -39, -29, 24, 9, -34, -9, 361, 19, -19, 9, -9, 
-9, -39, -29, 24, 9, -34, -9, 361, 19, -19, 9, -9, 
-9, -39, -29, 24, 9, -34, -9, 361, 19, -19, 9, -9, 
-9, -39, -29, 24, 9, -34, -9, 356, 19, -19, 9, -9, 
-9, -39, -29, 24, 9, -34, -9, 351, 19, -19, 9, -9, 
-9, -39, -29, 24, 9, -34, -9, 351, 14, -19, 9, -9, 
-9, -39, -29, 24, 9, -34, -9, 351, 9, -19, 9, -9, 
-9, -34, -24, 21, 7, -29, -9, 346, 9, -19, 9, -9, 
-9, -29, -19, 19, 4, -24, -9, 341, 9, -19, 9, -9, 
-9, -29, -19, 19, 4, -24, -9, 341, 14, -14, 9, -4, 
-9, -29, -19, 19, 4, -24, -9, 341, 19, -9, 9, 0, 
-9, -29, -19, 19, 4, -24, -9, 341, 19, -9, 9, 0, 
-9, -29, -19, 19, 4, -24, -9, 341, 19, -9, 9, 0, 
-9, -29, -19, 19, 4, -24, -9, 336, 14, -14, 9, 0, 
-9, -29, -19, 19, 4, -24, -9, 331, 9, -19, 9, 0, 
-14, -29, -14, 21, 0, -21, -9, 331, 9, -19, 9, 0, 
-19, -29, -9, 24, -4, -19, -9, 331, 9, -19, 9, 0, 
-19, -24, -4, 21, -7, -14, -9, 326, 14, -14, 9, 0, 
-19, -19, 0, 19, -9, -9, -9, 322, 19, -9, 9, 0, 
-19, -14, 4, 17, -12, -4, -9, 322, 19, -9, 14, 0, 
-19, -9, 9, 14, -14, 0, -9, 322, 19, -9, 19, 0, 
-14, -9, 4, 12, -9, -2, -9, 317, 19, -9, 19, 0, 
-9, -9, 0, 9, -4, -4, -9, 312, 19, -9, 19, 0, 
-9, -9, 0, 9, -4, -4, -9, 312, 19, -9, 19, 0, 
-9, -9, 0, 9, -4, -4, -9, 312, 19, -9, 19, 0, 
-9, -9, 0, 9, -4, -4, -9, 312, 19, -9, 19, 0, 
-9, -9, 0, 9, -4, -4, -9, 312, 19, -9, 19, 0, 
-9, -9, 0, 9, -4, -4, -9, 307, 19, -4, 19, 0, 
-9, -9, 0, 9, -4, -4, -9, 302, 19, 0, 19, 0, 
-9, -9, 0, 9, -4, -4, -9, 302, 19, 0, 19, 0, 
-9, -9, 0, 9, -4, -4, -9, 302, 19, 0, 19, 0, 
-9, -9, 0, 9, -4, -4, -9, 302, 19, 0, 19, 0, 
-9, -9, 0, 9, -4, -4, -9, 302, 19, 0, 19, 0, 
-9, -9, 0, 9, -4, -4, -9, 297, 19, 0, 19, 0, 
-9, -9, 0, 9, -4, -4, -9, 292, 19, 0, 19, 0, 
-14, -14, 0, 14, -7, -7, -9, 287, 19, -4, 19, 0, 
-19, -19, 0, 19, -9, -9, -9, 283, 19, -9, 19, 0, 
-19, -19, 0, 19, -9, -9, -9, 283, 14, -9, 14, 0, 
-19, -19, 0, 19, -9, -9, -9, 283, 9, -9, 9, 0, 
-19, -19, 0, 19, -9, -9, -9, 278, 9, -14, 9, -4, 
-19, -19, 0, 19, -9, -9, -9, 273, 9, -19, 9, -9, 
-19, -19, 0, 19, -9, -9, -9, 273, 9, -19, 9, -9, 
-19, -19, 0, 19, -9, -9, -9, 273, 9, -19, 9, -9, 
-19, -19, 0, 19, -9, -9, -9, 268, 9, -14, 9, -9, 
-19, -19, 0, 19, -9, -9, -9, 263, 9, -9, 9, -9, 
-19, -19, 0, 19, -9, -9, -9, 263, 14, -9, 9, -9, 
-19, -19, 0, 19, -9, -9, -9, 263, 19, -9, 9, -9, 
-19, -19, 0, 19, -9, -9, -9, 258, 19, -9, 9, -4, 
-19, -19, 0, 19, -9, -9, -9, 253, 19, -9, 9, 0, 
-19, -14, 4, 17, -12, -4, -9, 253, 19, -9, 9, 0, 
-19, -9, 9, 14, -14, 0, -9, 253, 19, -9, 9, 0, 
-19, -9, 9, 14, -14, 0, -9, 248, 14, -9, 9, 0, 
-19, -9, 9, 14, -14, 0, -9, 244, 9, -9, 9, 0, 
-14, -9, 4, 12, -9, -2, -9, 244, 9, -9, 4, 0, 
-9, -9, 0, 9, -4, -4, -9, 244, 9, -9, 0, 0, 
-9, -9, 0, 9, -4, -4, -9, 239, 9, -9, 0, 0, 
-9, -9, 0, 9, -4, -4, -9, 234, 9, -9, 0, 0, 
-9, -9, 0, 9, -4, -4, -9, 229, 9, -9, 0, 0, 
-9, -9, 0, 9, -4, -4, -9, 224, 9, -9, 0, 0, 
-14, -9, 4, 12, -9, -2, -9, 219, 9, -9, 0, 0, 
-19, -9, 9, 14, -14, 0, -9, 214, 9, -9, 0, 0, 
-19, -9, 9, 14, -14, 0, -9, 214, 9, -9, 0, 0, 
-19, -9, 9, 14, -14, 0, -9, 214, 9, -9, 0, 0, 
-19, -9, 9, 14, -14, 0, -9, 209, 4, -9, 0, 0, 
-19, -9, 9, 14, -14, 0, -9, 204, 0, -9, 0, 0, 
-19, -9, 9, 14, -14, 0, -9, 204, 0, -9, 0, 0, 
-19, -9, 9, 14, -14, 0, -9, 204, 0, -9, 0, 0, 
-19, -9, 9, 14, -14, 0, -9, 204, 0, -9, 0, 0, 
-19, -9, 9, 14, -14, 0, -9, 204, 0, -9, 0, 0, 
-14, -4, 9, 9, -12, 2, -9, 200, 0, -9, 0, 0, 
-9, 0, 9, 4, -9, 4, -9, 195, 0, -9, 0, 0, 
-9, 0, 9, 4, -9, 4, -9, 195, 0, -9, 4, 0, 
-9, 0, 9, 4, -9, 4, -9, 195, 0, -9, 9, 0, 
-9, 0, 9, 4, -9, 4, -9, 190, 0, -9, 9, 0, 
-9, 0, 9, 4, -9, 4, -9, 185, 0, -9, 9, 0, 
-9, 4, 14, 2, -12, 9, -9, 185, 0, -9, 9, 0, 
-9, 9, 19, 0, -14, 14, -9, 185, 0, -9, 9, 0, 
-9, 14, 24, -2, -17, 19, -9, 185, 9, 0, 14, 4, 
-9, 19, 29, -4, -19, 24, -9, 185, 19, 9, 19, 9, 
-9, 29, 39, -9, -24, 34, -9, 190, 24, 9, 24, 9, 
-4, 39, 43, -17, -24, 41, -4, 190, 29, 14, 29, 9, 
-4, 53, 58, -24, -31, 56, 0, 195, 34, 19, 39, 14, 
-4, 53, 58, -24, -31, 56, 0, 195, 39, 24, 39, 14, 
0, 53, 53, -26, -26, 53, 0, 195, 43, 24, 39, 14, 
0, 53, 53, -26, -26, 53, 4, 200, 48, 29, 43, 24, 
-4, 73, 78, -34, -41, 75, 4, 204, 53, 39, 53, 29, 
-14, 102, 117, -43, -65, 109, 0, 209, 68, 53, 68, 48, 
-14, 126, 141, -56, -78, 134, -9, 214, 92, 63, 92, 68, 
-19, 141, 161, -61, -90, 151, -24, 209, 107, 78, 107, 73, 
-19, 141, 161, -61, -90, 151, -29, 209, 107, 78, 107, 78, 
-14, 141, 156, -63, -85, 148, -39, 190, 102, 78, 107, 78, 
-14, 136, 151, -61, -82, 143, -39, 180, 102, 78, 107, 82, 
-14, 131, 146, -58, -80, 139, -39, 170, 102, 78, 107, 87, 
-14, 136, 151, -61, -82, 143, -39, 170, 97, 78, 112, 87, 
-14, 136, 151, -61, -82, 143, -39, 170, 97, 78, 117, 92, 
-14, 141, 156, -63, -85, 148, -39, 165, 107, 82, 122, 92, 
-9, 131, 141, -61, -75, 136, -39, 161, 107, 78, 117, 82, 
-4, 97, 102, -46, -53, 100, -39, 156, 87, 58, 92, 68, 
0, 63, 63, -31, -31, 63, -34, 146, 68, 39, 73, 53, 
-9, 29, 39, -9, -24, 34, -29, 136, 43, 9, 43, 24, 
-14, 14, 29, 0, -21, 21, -24, 126, 29, 4, 43, 4, 
-19, 4, 24, 7, -21, 14, -24, 102, 24, -4, 34, 4, 
-24, -4, 19, 14, -21, 7, -24, 92, 19, -14, 29, 0, 
-29, -14, 14, 21, -21, 0, -19, 78, 19, -14, 24, -4, 
-29, -19, 9, 24, -19, -4, -19, 68, 14, -19, 19, -4, 
-29, -24, 4, 26, -17, -9, -24, 53, 9, -24, 19, -4, 
-29, -29, 0, 29, -14, -14, -24, 48, 9, -24, 19, -9, 
-29, -24, 4, 26, -17, -9, -24, 48, 9, -24, 19, -9, 
-29, -19, 9, 24, -19, -4, -24, 43, 9, -24, 14, -9, 
-29, -29, 0, 29, -14, -14, -24, 39, 4, -24, 19, -9, 
-29, -29, 0, 29, -14, -14, -19, 34, 4, -29, 19, -14, 
-29, -34, -4, 31, -12, -19, -19, 34, 4, -29, 19, -14, 
-29, -34, -4, 31, -12, -19, -19, 29, 4, -29, 19, -14, 
-29, -39, -9, 34, -9, -24, -19, 29, 4, -29, 14, -14, 
-34, -39, -4, 36, -14, -21, -19, 24, 4, -29, 9, -14, 
-29, -39, -9, 34, -9, -24, -14, 19, 4, -29, 9, -19, 
-24, -39, -14, 31, -4, -26, -14, 14, 4, -29, 9, -19, 
-24, -39, -14, 31, -4, -26, -9, 14, 0, -29, 9, -19, 
-24, -39, -14, 31, -4, -26, -9, 14, -4, -29, 9, -19, 
-24, -48, -24, 36, 0, -36, -9, 9, -4, -39, 4, -24, 
-24, -73, -48, 48, 12, -61, 0, -4, -19, -48, -19, -39, 
-14, -146, -131, 80, 58, -139, 9, 4, -58, -107, -68, -97, 
-4, -209, -204, 107, 100, -207, 43, 34, -73, -146, -122, -151, 
-4, -224, -219, 114, 107, -222, 78, 78, -73, -141, -136, -165, 
0, -190, -190, 95, 95, -190, 92, 141, -43, -122, -122, -156, 
14, -136, -151, 61, 82, -143, 87, 253, 48, -58, -73, -131, 
53, 58, 4, -56, 24, 31, 82, 434, 244, 131, 97, -4, 
92, 346, 253, -219, -80, 300, 19, 561, 492, 395, 341, 200, 
141, 668, 527, -405, -192, 597, -141, 688, 775, 692, 624, 439, 
161, 1010, 849, -585, -344, 929, -317, 766, 1083, 995, 902, 692, 
136, 1390, 1254, -763, -558, 1322, -444, 790, 1415, 1322, 1220, 980, 
63, 1751, 1688, -907, -812, 1720, -570, 683, 1668, 1605, 1507, 1259, 
-19, 1717, 1737, -849, -878, 1727, -614, 463, 1629, 1586, 1493, 1263, 
-107, 1356, 1464, -624, -785, 1410, -541, 200, 1288, 1224, 1185, 1039, 
-161, 1024, 1185, -431, -673, 1105, -424, -73, 893, 839, 873, 810, 
-185, 663, 849, -239, -517, 756, -253, -312, 512, 478, 541, 531, 
-229, 385, 614, -78, -422, 500, -170, -483, 258, 239, 307, 326, 
-229, 224, 453, 2, -341, 339, -190, -453, 151, 126, 200, 209, 
-195, 165, 361, 14, -278, 263, -180, -341, 107, 87, 161, 161, 
-131, 141, 273, -4, -202, 207, -146, -190, 82, 63, 136, 131, 
-73, 122, 195, -24, -134, 158, -112, -24, 87, 53, 126, 107, 
-58, 122, 180, -31, -119, 151, -87, 53, 117, 68, 126, 102, 
-43, 117, 161, -36, -102, 139, -58, 78, 141, 73, 126, 87, 
-4, 112, 117, -53, -61, 114, -29, 136, 141, 73, 117, 63, 
4, 82, 78, -43, -36, 80, -19, 204, 141, 63, 102, 48, 
0, 39, 39, -19, -19, 39, -9, 200, 131, 48, 87, 39, 
-4, 34, 39, -14, -21, 36, -4, 175, 126, 39, 82, 34, 
0, 34, 34, -17, -17, 34, -4, 190, 122, 29, 73, 24, 
4, 24, 19, -14, -7, 21, 0, 204, 122, 29, 73, 19, 
4, 24, 19, -14, -7, 21, 4, 209, 117, 24, 68, 19, 
4, 19, 14, -12, -4, 17, 4, 204, 117, 19, 68, 14, 
0, 14, 14, -7, -7, 14, 4, 214, 117, 19, 68, 9, 
0, 9, 9, -4, -4, 9, 4, 219, 117, 19, 68, 9, 
0, 9, 9, -4, -4, 9, 4, 229, 117, 19, 68, 4, 
4, 9, 4, -7, 0, 7, 4, 239, 122, 19, 68, 0, 
4, 14, 9, -9, -2, 12, 4, 244, 122, 19, 68, 0, 
4, 14, 9, -9, -2, 12, 4, 258, 126, 19, 68, 0, 
4, 14, 9, -9, -2, 12, 4, 258, 126, 19, 73, 0, 
4, 14, 9, -9, -2, 12, 4, 273, 131, 19, 73, 0, 
4, 14, 9, -9, -2, 12, 4, 283, 131, 19, 73, 0, 
4, 14, 9, -9, -2, 12, 4, 287, 136, 19, 73, 0, 
4, 19, 14, -12, -4, 17, 4, 302, 136, 24, 73, 0, 
9, 24, 14, -17, -2, 19, 0, 312, 136, 24, 78, 0, 
9, 19, 9, -14, 0, 14, 0, 322, 141, 29, 78, 0, 
14, 24, 9, -19, 2, 17, 0, 331, 146, 29, 82, 4, 
9, 29, 19, -19, -4, 24, 0, 346, 156, 29, 87, 4, 
9, 29, 19, -19, -4, 24, 0, 356, 165, 34, 87, 4, 
9, 34, 24, -21, -7, 29, 0, 375, 170, 34, 92, 4, 
9, 34, 24, -21, -7, 29, 0, 395, 175, 39, 92, 9, 
14, 43, 29, -29, -7, 36, -4, 409, 185, 48, 97, 9, 
14, 48, 34, -31, -9, 41, -4, 424, 190, 48, 107, 14, 
19, 53, 34, -36, -7, 43, -4, 444, 204, 53, 112, 19, 
19, 58, 39, -39, -9, 48, -9, 458, 209, 58, 117, 19, 
19, 63, 43, -41, -12, 53, -9, 473, 214, 63, 122, 24, 
19, 73, 53, -46, -17, 63, -14, 488, 219, 68, 131, 24, 
24, 82, 58, -53, -17, 70, -14, 507, 229, 73, 136, 29, 
24, 87, 63, -56, -19, 75, -14, 527, 239, 78, 141, 29, 
39, 102, 63, -70, -12, 82, -19, 541, 244, 82, 141, 39, 
48, 112, 63, -80, -7, 87, -19, 566, 258, 87, 141, 43, 
53, 122, 68, -87, -7, 95, -19, 585, 268, 97, 151, 48, 
58, 136, 78, -97, -9, 107, -24, 605, 273, 102, 156, 53, 
63, 156, 92, -109, -14, 124, -29, 634, 297, 112, 170, 58, 
68, 161, 92, -114, -12, 126, -34, 658, 302, 117, 180, 63, 
68, 180, 112, -124, -21, 146, -34, 683, 312, 131, 195, 73, 
73, 195, 122, -134, -24, 158, -39, 717, 331, 141, 204, 87, 
78, 209, 131, -143, -26, 170, -43, 741, 341, 151, 209, 92, 
87, 224, 136, -156, -24, 180, -48, 766, 361, 165, 219, 102, 
87, 244, 156, -165, -34, 200, -53, 790, 370, 175, 229, 112, 
87, 268, 180, -178, -46, 224, -53, 819, 390, 195, 248, 122, 
97, 287, 190, -192, -46, 239, -58, 849, 409, 209, 258, 131, 
112, 302, 190, -207, -39, 246, -68, 878, 424, 224, 278, 146, 
117, 326, 209, -222, -46, 268, -78, 907, 453, 244, 292, 156, 
126, 346, 219, -236, -46, 283, -78, 936, 468, 263, 307, 165, 
136, 370, 234, -253, -48, 302, -92, 961, 488, 278, 322, 175, 
136, 390, 253, -263, -58, 322, -97, 985, 502, 292, 336, 195, 
146, 409, 263, -278, -58, 336, -107, 1010, 517, 307, 351, 204, 
161, 429, 268, -295, -53, 348, -107, 1034, 536, 322, 370, 219, 
161, 453, 292, -307, -65, 373, -122, 1049, 546, 341, 390, 234, 
170, 473, 302, -322, -65, 387, -131, 1063, 566, 356, 409, 244, 
175, 492, 317, -334, -70, 405, -136, 1073, 580, 370, 429, 268, 
180, 517, 336, -348, -78, 427, -146, 1088, 595, 380, 439, 287, 
180, 531, 351, -356, -85, 441, -146, 1093, 605, 390, 453, 297, 
180, 546, 366, -363, -92, 456, -161, 1098, 619, 400, 463, 312, 
185, 561, 375, -373, -95, 468, -165, 1098, 629, 414, 483, 317, 
185, 570, 385, -378, -100, 478, -165, 1093, 639, 424, 488, 336, 
185, 580, 395, -383, -104, 488, -180, 1078, 649, 439, 502, 346, 
175, 595, 419, -385, -122, 507, -180, 1054, 649, 448, 517, 356, 
175, 600, 424, -387, -124, 512, -185, 1015, 649, 453, 527, 361, 
165, 605, 439, -385, -136, 522, -190, 976, 649, 453, 527, 361, 
156, 600, 444, -378, -143, 522, -190, 936, 639, 448, 527, 361, 
136, 585, 448, -361, -156, 517, -190, 893, 610, 439, 522, 361, 
117, 556, 439, -336, -161, 497, -190, 834, 570, 400, 497, 351, 
107, 527, 419, -317, -156, 473, -185, 771, 536, 375, 483, 336, 
82, 488, 405, -285, -161, 446, -180, 712, 507, 351, 458, 312, 
63, 458, 395, -261, -165, 427, -180, 658, 468, 326, 434, 287, 
43, 414, 370, -229, -163, 392, -165, 595, 429, 292, 409, 258, 
24, 366, 341, -195, -158, 353, -156, 536, 390, 253, 375, 234, 
9, 317, 307, -163, -148, 312, -141, 492, 361, 219, 346, 209, 
-4, 278, 283, -136, -143, 280, -131, 453, 326, 195, 317, 185, 
-19, 239, 258, -109, -139, 248, -117, 405, 292, 161, 287, 165, 
-24, 195, 219, -85, -122, 207, -117, 370, 263, 131, 263, 146, 
-39, 161, 200, -61, -119, 180, -102, 346, 234, 102, 229, 122, 
-48, 131, 180, -41, -114, 156, -92, 322, 209, 78, 204, 97, 
-48, 107, 156, -29, -102, 131, -82, 292, 185, 63, 190, 78, 
-58, 82, 141, -12, -100, 112, -73, 273, 170, 39, 170, 63, 
-68, 63, 131, 2, -100, 97, -63, 258, 161, 29, 165, 48, 
-73, 48, 122, 12, -97, 85, -63, 248, 151, 19, 156, 39, 
-78, 34, 112, 21, -95, 73, -58, 234, 136, 4, 146, 29, 
-82, 14, 97, 34, -90, 56, -48, 219, 122, -9, 136, 19, 
-87, 9, 97, 39, -92, 53, -39, 219, 117, -14, 126, 4, 
-92, 4, 97, 43, -95, 51, -34, 209, 107, -14, 122, -4, 
-92, -4, 87, 48, -90, 41, -29, 209, 107, -19, 112, -4, 
-92, -9, 82, 51, -87, 36, -29, 204, 102, -24, 112, -9, 
-97, -9, 87, 53, -92, 39, -29, 200, 97, -29, 107, -14, 
-102, -9, 92, 56, -97, 41, -24, 200, 92, -34, 102, -14, 
-102, -14, 87, 58, -95, 36, -24, 200, 87, -39, 102, -14, 
-102, -19, 82, 61, -92, 31, -24, 200, 87, -43, 102, -14, 
-107, -24, 82, 65, -95, 29, -19, 200, 82, -43, 102, -14, 
-107, -29, 78, 68, -92, 24, -19, 200, 78, -43, 97, -14, 
-107, -29, 78, 68, -92, 24, -24, 200, 78, -39, 92, -14, 
-107, -34, 73, 70, -90, 19, -29, 200, 78, -34, 87, -14, 
-107, -34, 73, 70, -90, 19, -24, 200, 78, -34, 87, -14, 
-112, -34, 78, 73, -95, 21, -24, 200, 78, -34, 87, -14, 
-112, -34, 78, 73, -95, 21, -19, 200, 73, -34, 92, -14, 
-112, -34, 78, 73, -95, 21, -14, 200, 73, -34, 92, -14, 
-107, -34, 73, 70, -90, 19, -14, 200, 73, -34, 92, -14, 
-107, -34, 73, 70, -90, 19, -14, 200, 73, -34, 92, -14, 
-107, -29, 78, 68, -92, 24, -14, 204, 73, -39, 92, -14, 
-107, -24, 82, 65, -95, 29, -14, 204, 73, -39, 87, -9, 
-107, -24, 82, 65, -95, 29, -14, 204, 73, -39, 87, -9, 
-107, -19, 87, 63, -97, 34, -14, 204, 73, -34, 87, -9, 
-102, -19, 82, 61, -92, 31, -14, 204, 73, -29, 87, -4, 
-97, -14, 82, 56, -90, 34, -9, 209, 73, -24, 87, 0, 
-97, -14, 82, 56, -90, 34, -4, 209, 78, -19, 87, 0, 
-97, -14, 82, 56, -90, 34, 0, 209, 78, -19, 87, 0, 
-97, -9, 87, 53, -92, 39, -4, 209, 78, -19, 82, 0, 
-92, -9, 82, 51, -87, 36, -4, 209, 68, -19, 82, 0, 
-92, -9, 82, 51, -87, 36, -9, 214, 63, -19, 82, 0, 
-92, -9, 82, 51, -87, 36, -14, 214, 58, -19, 78, 4, 
-92, -9, 82, 51, -87, 36, -14, 214, 58, -19, 78, 4, 
-92, -9, 82, 51, -87, 36, -14, 214, 58, -19, 78, 4, 
-87, -9, 78, 48, -82, 34, -14, 214, 58, -19, 78, 0, 
-87, -9, 78, 48, -82, 34, -14, 214, 58, -19, 78, 0, 
-87, -9, 78, 48, -82, 34, -9, 214, 53, -19, 73, 0, 
-87, -9, 78, 48, -82, 34, -4, 214, 53, -19, 73, 0, 
-87, -9, 78, 48, -82, 34, -4, 214, 48, -14, 73, 0, 
-87, -9, 78, 48, -82, 34, -4, 214, 48, -14, 73, 0, 
-87, -14, 73, 51, -80, 29, -4, 209, 43, -14, 63, 0, 
-87, -19, 68, 53, -78, 24, -9, 209, 43, -14, 63, 0, 
-87, -19, 68, 53, -78, 24, -9, 209, 39, -14, 58, 0, 
-82, -19, 63, 51, -73, 21, -4, 209, 34, -14, 53, 0, 
-82, -19, 63, 51, -73, 21, -4, 204, 29, -14, 53, 0, 
-82, -19, 63, 51, -73, 21, -4, 204, 29, -14, 53, 0, 
-82, -24, 58, 53, -70, 17, -4, 200, 24, -14, 48, 0, 
-82, -24, 58, 53, -70, 17, -4, 204, 19, -19, 43, -4, 
-82, -29, 53, 56, -68, 12, -4, 200, 19, -19, 43, -4, 
-82, -24, 58, 53, -70, 17, -4, 200, 14, -24, 39, -4, 
-82, -24, 58, 53, -70, 17, -9, 195, 9, -24, 39, -9, 
-82, -29, 53, 56, -68, 12, -14, 190, 9, -24, 34, -14, 
-82, -29, 53, 56, -68, 12, -9, 180, 4, -24, 34, -14, 
-82, -34, 48, 58, -65, 7, -9, 175, 4, -24, 34, -14, 
-82, -39, 43, 61, -63, 2, -9, 175, 0, -29, 24, -14, 
-82, -43, 39, 63, -61, -2, -9, 175, -4, -29, 19, -14, 
-82, -43, 39, 63, -61, -2, -9, 165, -4, -29, 19, -14, 
-82, -43, 39, 63, -61, -2, -9, 165, -4, -29, 19, -14, 
-82, -43, 39, 63, -61, -2, -9, 161, -4, -29, 14, -19, 
-82, -48, 34, 65, -58, -7, -9, 161, -9, -29, 9, -19, 
-82, -48, 34, 65, -58, -7, -9, 161, -14, -29, 4, -19, 
-82, -53, 29, 68, -56, -12, -9, 161, -14, -24, 4, -19, 
-82, -53, 29, 68, -56, -12, -9, 151, -9, -24, 0, -24, 
-82, -53, 29, 68, -56, -12, -9, 151, -4, -24, 0, -24, 
-82, -53, 29, 68, -56, -12, -9, 151, -9, -24, -4, -24, 
-82, -53, 29, 68, -56, -12, -9, 151, -14, -24, -9, -19, 
-82, -53, 29, 68, -56, -12, -9, 146, -14, -24, -9, -19, 
-78, -53, 24, 65, -51, -14, -9, 146, -14, -24, -9, -19, 
-78, -58, 19, 68, -48, -19, -9, 141, -14, -24, -9, -24, 
-78, -58, 19, 68, -48, -19, -9, 136, -14, -24, -9, -24, 
-78, -58, 19, 68, -48, -19, -4, 131, -14, -24, -9, -24, 
-78, -58, 19, 68, -48, -19, -4, 131, -19, -24, -9, -24, 
-73, -58, 14, 65, -43, -21, -4, 131, -14, -24, -9, -24, 
-73, -58, 14, 65, -43, -21, -4, 136, -14, -24, -4, -24, 
-73, -63, 9, 68, -41, -26, -9, 126, -9, -24, -4, -24, 
-73, -63, 9, 68, -41, -26, -9, 126, -4, -24, -4, -24, 
-73, -63, 9, 68, -41, -26, -9, 122, -4, -24, -4, -24, 
-73, -63, 9, 68, -41, -26, -9, 117, -4, -19, -4, -24, 
-73, -63, 9, 68, -41, -26, -9, 117, -4, -19, -4, -24, 
-73, -63, 9, 68, -41, -26, -9, 112, -4, -19, 0, -24, 
-78, -68, 9, 73, -43, -29, -9, 112, -9, -14, -4, -29, 
-78, -73, 4, 75, -41, -34, -9, 107, -14, -14, -4, -29, 
-73, -68, 4, 70, -39, -31, -9, 107, -4, -9, 0, -24, 
-68, -68, 0, 68, -34, -34, -9, 107, 0, -9, 0, -19, 
-68, -68, 0, 68, -34, -34, -9, 107, 0, -9, 0, -19, 
-68, -68, 0, 68, -34, -34, -9, 107, 0, -9, 0, -19, 
-68, -68, 0, 68, -34, -34, -9, 102, 0, -9, 0, -19, 
-68, -68, 0, 68, -34, -34, -9, 97, 0, -9, 0, -19, 
-68, -68, 0, 68, -34, -34, -9, 97, 0, -9, 0, -19, 
-68, -68, 0, 68, -34, -34, -9, 97, 0, -9, 0, -19, 
-63, -68, -4, 65, -29, -36, -9, 97, 0, -9, 4, -14, 
-58, -68, -9, 63, -24, -39, -9, 97, 0, -9, 9, -9, 
-58, -68, -9, 63, -24, -39, -9, 92, 0, -9, 9, -9, 
-58, -68, -9, 63, -24, -39, -9, 87, 0, -9, 9, -9, 
-58, -68, -9, 63, -24, -39, -9, 87, 0, -9, 9, -9, 
-58, -68, -9, 63, -24, -39, -9, 87, 0, -9, 9, -9, 
-53, -68, -14, 61, -19, -41, -9, 87, 4, -9, 9, -9, 
-48, -68, -19, 58, -14, -43, -9, 87, 9, -9, 9, -9, 
-48, -68, -19, 58, -14, -43, -9, 87, 9, -9, 9, -9, 
-48, -68, -19, 58, -14, -43, -9, 87, 9, -9, 9, -9, 
-48, -68, -19, 58, -14, -43, -9, 82, 9, -9, 9, -9, 
-48, -68, -19, 58, -14, -43, -9, 78, 9, -9, 9, -9, 
-43, -63, -19, 53, -12, -41, -9, 78, 9, -4, 9, -9, 
-39, -58, -19, 48, -9, -39, -9, 78, 9, 0, 9, -9, 
-39, -58, -19, 48, -9, -39, -9, 73, 14, 0, 14, -9, 
-39, -58, -19, 48, -9, -39, -9, 68, 19, 0, 19, -9, 
-34, -58, -24, 46, -4, -41, -9, 68, 19, 0, 19, -9, 
-29, -58, -29, 43, 0, -43, -9, 68, 19, 0, 19, -9, 
-29, -58, -29, 43, 0, -43, -9, 68, 19, 0, 19, -9, 
-29, -58, -29, 43, 0, -43, -9, 68, 19, 0, 19, -9, 
-29, -53, -24, 41, -2, -39, -9, 63, 19, 0, 19, -9, 
-29, -48, -19, 39, -4, -34, -9, 58, 19, 0, 19, -9, 
-24, -48, -24, 36, 0, -36, -9, 58, 19, 0, 19, -9, 
-19, -48, -29, 34, 4, -39, -9, 58, 19, 0, 19, -9, 
-19, -48, -29, 34, 4, -39, -9, 58, 19, 0, 19, -9, 
-19, -48, -29, 34, 4, -39, -9, 58, 19, 0, 19, -9, 
-19, -43, -24, 31, 2, -34, -9, 53, 19, 0, 19, -9, 
-19, -39, -19, 29, 0, -29, -9, 48, 19, 0, 19, -9, 
-14, -39, -24, 26, 4, -31, -9, 48, 19, 0, 19, -9, 
-9, -39, -29, 24, 9, -34, -9, 48, 19, 0, 19, -9, 
-9, -39, -29, 24, 9, -34, -9, 43, 19, -4, 19, -9, 
-9, -39, -29, 24, 9, -34, -9, 39, 19, -9, 19, -9, 
-9, -39, -29, 24, 9, -34, -9, 39, 19, -9, 19, -9, 
-9, -39, -29, 24, 9, -34, -9, 39, 19, -9, 19, -9, 
-4, -39, -34, 21, 14, -36, -9, 34, 14, -9, 19, -9, 
0, -39, -39, 19, 19, -39, -9, 29, 9, -9, 19, -9, 
0, -34, -34, 17, 17, -34, -9, 29, 9, -9, 19, -9, 
0, -29, -29, 14, 14, -29, -9, 29, 9, -9, 19, -9, 
-4, -29, -24, 17, 9, -26, -9, 24, 14, -9, 19, -4, 
-9, -29, -19, 19, 4, -24, -9, 19, 19, -9, 19, 0, 
-9, -29, -19, 19, 4, -24, -9, 19, 19, -9, 19, 0, 
-9, -29, -19, 19, 4, -24, -9, 19, 19, -9, 19, 0, 
-9, -29, -19, 19, 4, -24, -9, 19, 19, -9, 19, 0, 
-9, -29, -19, 19, 4, -24, -9, 19, 19, -9, 19, 0, 
-9, -24, -14, 17, 2, -19, -9, 19, 19, -9, 19, 0, 
-9, -19, -9, 14, 0, -14, -9, 19, 19, -9, 19, 0, 
-9, -19, -9, 14, 0, -14, -9, 14, 19, -4, 19, 0, 
-9, -19, -9, 14, 0, -14, -9, 9, 19, 0, 19, 0, 
-9, -14, -4, 12, -2, -9, -9, 9, 19, 0, 19, 0, 
-9, -9, 0, 9, -4, -4, -9, 9, 19, 0, 19, 0, 
-4, -4, 0, 4, -2, -2, -9, 9, 19, -4, 19, 0, 
0, 0, 0, 0, 0, 0, -9, 9, 19, -9, 19, 0, 
0, 0, 0, 0, 0, 0, -9, 4, 19, -9, 19, 0, 
0, 0, 0, 0, 0, 0, -9, 0, 19, -9, 19, 0, 
-4, 0, 4, 2, -4, 2, -9, 0, 19, -9, 19, 0, 
-9, 0, 9, 4, -9, 4, -9, 0, 19, -9, 19, 0, 
-9, 0, 9, 4, -9, 4, -9, 0, 19, -9, 19, 0, 
-9, 0, 9, 4, -9, 4, -9, 0, 19, -9, 19, 0, 
-9, 0, 9, 4, -9, 4, -9, 0, 19, -9, 19, 0, 
-9, 0, 9, 4, -9, 4, -9, 0, 19, -9, 19, 0, 
-9, 0, 9, 4, -9, 4, -9, 4, 19, -9, 19, 0, 
-9, 0, 9, 4, -9, 4, -9, 9, 19, -9, 19, 0, 
-9, 0, 9, 4, -9, 4, -9, 9, 14, -9, 19, 0, 
-9, 0, 9, 4, -9, 4, -9, 9, 9, -9, 19, 0, 
-9, 0, 9, 4, -9, 4, -9, 14, 9, -9, 19, 0, 
-9, 0, 9, 4, -9, 4, -9, 19, 9, -9, 19, 0, 
-9, 0, 9, 4, -9, 4, -9, 19, 9, -9, 19, 0, 
-9, 0, 9, 4, -9, 4, -9, 19, 9, -9, 19, 0, 
-9, 0, 9, 4, -9, 4, -9, 19, 9, -4, 19, 0, 
-9, 0, 9, 4, -9, 4, -9, 19, 9, 0, 19, 0, 
-9, 0, 9, 4, -9, 4, -9, 24, 9, 0, 19, 0, 
-9, 0, 9, 4, -9, 4, -9, 29, 9, 0, 19, 0, 
-9, 0, 9, 4, -9, 4, -9, 29, 9, 0, 19, 0, 
-9, 0, 9, 4, -9, 4, -9, 29, 9, 0, 19, 0, 
-9, 0, 9, 4, -9, 4, -9, 34, 9, 0, 19, 0, 
-9, 0, 9, 4, -9, 4, -9, 39, 9, 0, 19, 0, 
-9, 0, 9, 4, -9, 4, -9, 39, 9, 0, 19, 0, 
-9, 0, 9, 4, -9, 4, -9, 39, 9, 0, 19, 0, 
-14, -4, 9, 9, -12, 2, -9, 39, 4, -4, 14, 0, 
-19, -9, 9, 14, -14, 0, -9, 39, 0, -9, 9, 0, 
-19, -9, 9, 14, -14, 0, -9, 43, 0, -9, 9, 0, 
-19, -9, 9, 14, -14, 0, -9, 48, 0, -9, 9, 0, 
-14, -9, 4, 12, -9, -2, -9, 48, 0, -9, 9, 0, 
-9, -9, 0, 9, -4, -4, -9, 48, 0, -9, 9, 0, 
-9, -9, 0, 9, -4, -4, -9, 48, 0, -9, 9, 0, 
-9, -9, 0, 9, -4, -4, -9, 48, 0, -9, 9, 0, 
-14, -9, 4, 12, -9, -2, -9, 48, 0, -9, 9, 0, 
-19, -9, 9, 14, -14, 0, -9, 48, 0, -9, 9, 0, 
-19, -9, 9, 14, -14, 0, -9, 53, 0, -4, 9, 0, 
-19, -9, 9, 14, -14, 0, -9, 58, 0, 0, 9, 0, 
-24, -9, 14, 17, -19, 2, -9, 58, 0, 0, 4, 0, 
-29, -9, 19, 19, -24, 4, -9, 58, 0, 0, 0, 0, 
-29, -9, 19, 19, -24, 4, -9, 58, 0, 0, 0, 0, 
-29, -9, 19, 19, -24, 4, -9, 58, 0, 0, 0, 0, 
-24, -9, 14, 17, -19, 2, -9, 63, 0, 0, 0, 0, 
-19, -9, 9, 14, -14, 0, -9, 68, 0, 0, 0, 0, 
-19, -4, 14, 12, -17, 4, -9, 73, 0, 0, 0, 0, 
-19, 0, 19, 9, -19, 9, -9, 78, 0, 0, 0, 0, 
-19, 0, 19, 9, -19, 9, -9, 78, 0, 0, 0, 0, 
-19, 0, 19, 9, -19, 9, -9, 78, 0, 0, 0, 0, 
-14, 0, 14, 7, -14, 7, -9, 78, 4, 4, 0, 0, 
-9, 0, 9, 4, -9, 4, -9, 78, 9, 9, 0, 0, 
-9, 4, 14, 2, -12, 9, -9, 87, 14, 9, 4, 4, 
-9, 19, 29, -4, -19, 24, -9, 97, 19, 9, 9, 9, 
-9, 34, 43, -12, -26, 39, -9, 112, 29, 14, 14, 19, 
-4, 53, 58, -24, -31, 56, 0, 117, 34, 29, 19, 24, 
-4, 53, 58, -24, -31, 56, 4, 122, 39, 34, 19, 24, 
0, 58, 58, -29, -29, 58, 9, 131, 43, 34, 19, 24, 
4, 58, 53, -31, -24, 56, 14, 141, 48, 34, 19, 34, 
4, 73, 68, -39, -31, 70, 14, 146, 53, 39, 24, 39, 
-4, 102, 107, -48, -56, 104, 9, 156, 73, 53, 39, 53, 
-4, 122, 126, -58, -65, 124, 0, 170, 97, 63, 58, 68, 
-14, 131, 146, -58, -80, 139, -14, 175, 107, 78, 68, 73, 
-19, 131, 151, -56, -85, 141, -19, 180, 107, 78, 68, 78, 
-14, 131, 146, -58, -80, 139, -29, 161, 102, 78, 68, 78, 
-14, 131, 146, -58, -80, 139, -29, 156, 102, 78, 68, 78, 
-14, 131, 146, -58, -80, 139, -29, 151, 102, 78, 68, 78, 
-14, 136, 151, -61, -82, 143, -29, 151, 97, 78, 68, 78, 
-9, 141, 151, -65, -80, 146, -29, 156, 102, 82, 68, 82, 
-4, 141, 146, -68, -75, 143, -29, 156, 107, 87, 68, 82, 
0, 131, 131, -65, -65, 131, -29, 151, 97, 78, 63, 87, 
0, 107, 107, -53, -53, 107, -29, 146, 78, 58, 43, 78, 
0, 63, 63, -31, -31, 63, -24, 136, 58, 39, 24, 43, 
-9, 24, 34, -7, -21, 29, -19, 126, 39, 9, -4, 14, 
-19, 14, 34, 2, -26, 24, -14, 122, 29, 4, -9, 4, 
-29, 4, 34, 12, -31, 19, -14, 107, 24, 0, -19, 4, 
-34, -9, 24, 21, -29, 7, -14, 102, 19, -4, -19, 0, 
-39, -19, 19, 29, -29, 0, -9, 92, 19, -4, -24, -4, 
-39, -19, 19, 29, -29, 0, -9, 92, 14, -9, -29, -4, 
-39, -24, 14, 31, -26, -4, -14, 87, 9, -14, -29, -4, 
-39, -29, 9, 34, -24, -9, -14, 87, 9, -14, -29, -9, 
-39, -29, 9, 34, -24, -9, -14, 87, 9, -14, -29, -9, 
-39, -29, 9, 34, -24, -9, -14, 82, 9, -14, -29, -9, 
-39, -39, 0, 39, -19, -19, -14, 82, 4, -14, -24, -9, 
-43, -39, 4, 41, -24, -17, -9, 82, 4, -19, -29, -14, 
-48, -43, 4, 46, -26, -19, -9, 82, 4, -19, -29, -14, 
-48, -43, 4, 46, -26, -19, -9, 82, 4, -19, -29, -14, 
-48, -48, 0, 48, -24, -24, -9, 87, 4, -19, -29, -14, 
-48, -48, 0, 48, -24, -24, -9, 82, 4, -19, -29, -14, 
-43, -48, -4, 46, -19, -26, -4, 82, 4, -19, -29, -19, 
-43, -48, -4, 46, -19, -26, -9, 87, 4, -19, -29, -19, 
-43, -48, -4, 46, -19, -26, -9, 92, 4, -19, -29, -19, 
-43, -48, -4, 46, -19, -26, -9, 92, 4, -14, -24, -19, 
-43, -58, -14, 51, -14, -36, -9, 92, 4, -19, -24, -24, 
-48, -73, -24, 61, -12, -48, 0, 78, -9, -29, -48, -29, 
-43, -136, -92, 90, 24, -114, 4, 82, -48, -87, -97, -78, 
-34, -214, -180, 124, 73, -197, 34, 107, -73, -136, -161, -146, 
-34, -248, -214, 141, 90, -231, 68, 146, -82, -146, -185, -175, 
-29, -239, -209, 134, 90, -224, 87, 200, -73, -151, -185, -175, 
-14, -219, -204, 117, 95, -212, 92, 302, -19, -122, -170, -175, 
19, -48, -68, 14, 43, -58, 112, 483, 156, 53, -24, -73, 
63, 219, 156, -141, -46, 187, 78, 629, 385, 297, 204, 117, 
117, 531, 414, -324, -148, 473, -73, 780, 649, 575, 478, 351, 
136, 863, 727, -500, -295, 795, -248, 912, 946, 868, 746, 595, 
117, 1278, 1161, -697, -522, 1220, -390, 1000, 1312, 1229, 1098, 907, 
43, 1703, 1659, -873, -807, 1681, -531, 907, 1634, 1576, 1444, 1229, 
-39, 1742, 1781, -851, -910, 1761, -614, 692, 1644, 1615, 1488, 1298, 
-136, 1454, 1590, -658, -863, 1522, -580, 424, 1376, 1332, 1254, 1146, 
-195, 1127, 1322, -466, -758, 1224, -463, 156, 1010, 956, 956, 922, 
-224, 751, 976, -263, -600, 863, -292, -107, 600, 566, 610, 629, 
-278, 439, 717, -80, -497, 578, -195, -336, 302, 302, 336, 400, 
-278, 244, 522, 17, -400, 383, -200, -346, 161, 165, 190, 258, 
-244, 180, 424, 31, -334, 302, -170, -244, 131, 126, 151, 190, 
-180, 146, 326, 17, -253, 236, -131, -82, 107, 92, 122, 141, 
-117, 117, 234, 0, -175, 175, -112, 97, 97, 73, 102, 117, 
-97, 112, 209, -7, -153, 161, -87, 190, 126, 87, 97, 112, 
-82, 107, 190, -12, -136, 148, -58, 214, 156, 92, 97, 92, 
-43, 102, 146, -29, -95, 124, -24, 273, 161, 92, 87, 63, 
-34, 73, 107, -19, -70, 90, -9, 341, 161, 82, 73, 48, 
-34, 34, 68, 0, -51, 51, 0, 341, 151, 68, 58, 39, 
-29, 34, 63, -2, -46, 48, 4, 322, 141, 58, 53, 34, 
-19, 34, 53, -7, -36, 43, 4, 336, 131, 48, 43, 24, 
-14, 19, 34, -2, -24, 26, 9, 351, 131, 48, 43, 14, 
-14, 14, 29, 0, -21, 21, 14, 361, 126, 43, 39, 9, 
-14, 9, 24, 2, -19, 17, 14, 361, 126, 34, 39, 4, 
-14, 4, 19, 4, -17, 12, 14, 370, 126, 29, 39, 0, 
-14, -4, 9, 9, -12, 2, 14, 370, 126, 29, 34, 0, 
-19, -9, 9, 14, -14, 0, 14, 375, 126, 29, 29, 0, 
-14, -9, 4, 12, -9, -2, 14, 385, 131, 29, 29, 0, 
-14, -4, 9, 9, -12, 2, 14, 390, 131, 29, 29, 0, 
-9, -4, 4, 7, -7, 0, 14, 405, 136, 29, 29, 0, 
-4, -4, 0, 4, -2, -2, 14, 405, 136, 29, 34, 0, 
-4, -4, 0, 4, -2, -2, 14, 419, 141, 29, 34, 0, 
-4, -4, 0, 4, -2, -2, 14, 429, 141, 29, 34, 0, 
-4, -4, 0, 4, -2, -2, 14, 434, 146, 29, 34, 0, 
-4, 0, 4, 2, -4, 2, 14, 448, 151, 34, 34, 0, 
0, 4, 4, -2, -2, 4, 9, 458, 156, 34, 39, 0, 
0, 4, 4, -2, -2, 4, 9, 468, 161, 39, 39, 0, 
4, 14, 9, -9, -2, 12, 9, 478, 165, 43, 43, 4, 
4, 19, 14, -12, -4, 17, 9, 492, 170, 48, 48, 4, 
9, 19, 9, -14, 0, 14, 9, 502, 175, 53, 48, 4, 
9, 24, 14, -17, -2, 19, 9, 517, 180, 53, 53, 4, 
9, 24, 14, -17, -2, 19, 9, 531, 190, 58, 53, 9, 
14, 34, 19, -24, -2, 26, 4, 546, 204, 68, 58, 9, 
14, 43, 29, -29, -7, 36, 4, 561, 209, 68, 68, 14, 
24, 53, 29, -39, -2, 41, 4, 580, 224, 73, 73, 19, 
29, 58, 29, -43, 0, 43, 0, 600, 229, 78, 78, 19, 
29, 63, 34, -46, -2, 48, 0, 619, 234, 82, 78, 24, 
29, 73, 43, -51, -7, 58, -4, 634, 239, 87, 82, 24, 
34, 82, 48, -58, -7, 65, -4, 653, 248, 92, 87, 29, 
29, 82, 53, -56, -12, 68, -4, 673, 258, 97, 92, 24, 
34, 92, 58, -63, -12, 75, -14, 688, 263, 102, 97, 29, 
39, 102, 63, -70, -12, 82, -14, 712, 278, 107, 102, 34, 
43, 112, 68, -78, -12, 90, -9, 732, 287, 117, 112, 39, 
48, 126, 78, -87, -14, 102, -14, 751, 292, 122, 117, 43, 
53, 146, 92, -100, -19, 119, -19, 780, 317, 131, 126, 48, 
58, 151, 92, -104, -17, 122, -24, 805, 322, 136, 131, 53, 
63, 170, 107, -117, -21, 139, -24, 824, 331, 151, 146, 63, 
73, 185, 112, -129, -19, 148, -29, 854, 351, 161, 156, 78, 
78, 200, 122, -139, -21, 161, -34, 878, 361, 170, 165, 82, 
87, 214, 126, -151, -19, 170, -39, 902, 380, 185, 180, 92, 
92, 234, 141, -163, -24, 187, -43, 927, 390, 195, 190, 102, 
97, 258, 161, -178, -31, 209, -43, 961, 409, 214, 209, 107, 
107, 278, 170, -192, -31, 224, -48, 990, 429, 229, 219, 112, 
122, 292, 170, -207, -24, 231, -58, 1015, 448, 244, 239, 126, 
126, 317, 190, -222, -31, 253, -68, 1039, 478, 258, 253, 136, 
136, 336, 200, -236, -31, 268, -68, 1068, 488, 273, 268, 146, 
146, 361, 214, -253, -34, 287, -82, 1098, 507, 287, 283, 156, 
146, 385, 239, -265, -46, 312, -87, 1122, 522, 302, 297, 180, 
156, 409, 253, -283, -48, 331, -97, 1146, 541, 317, 312, 195, 
170, 429, 258, -300, -43, 344, -92, 1176, 566, 331, 331, 209, 
170, 453, 283, -312, -56, 368, -102, 1195, 575, 351, 346, 224, 
180, 478, 297, -329, -58, 387, -112, 1210, 595, 366, 361, 234, 
185, 502, 317, -344, -65, 409, -117, 1220, 610, 380, 380, 253, 
190, 527, 336, -358, -73, 431, -126, 1234, 624, 395, 390, 268, 
190, 541, 351, -366, -80, 446, -126, 1239, 629, 409, 405, 278, 
190, 556, 366, -373, -87, 461, -141, 1244, 639, 419, 414, 292, 
195, 575, 380, -385, -92, 478, -146, 1244, 649, 434, 434, 297, 
195, 590, 395, -392, -100, 492, -146, 1244, 658, 444, 439, 317, 
195, 600, 405, -397, -104, 502, -161, 1239, 668, 453, 453, 326, 
185, 614, 429, -400, -122, 522, -165, 1220, 668, 458, 468, 336, 
180, 614, 434, -397, -126, 524, -175, 1185, 668, 463, 478, 341, 
165, 614, 448, -390, -141, 531, -180, 1151, 668, 463, 478, 346, 
156, 610, 453, -383, -148, 531, -180, 1112, 658, 458, 478, 351, 
136, 600, 463, -368, -163, 531, -180, 1063, 634, 453, 478, 351, 
117, 575, 458, -346, -170, 517, -180, 1005, 605, 424, 458, 341, 
112, 546, 434, -329, -161, 490, -180, 941, 575, 405, 444, 326, 
92, 507, 414, -300, -161, 461, -175, 883, 551, 380, 419, 307, 
73, 478, 405, -275, -165, 441, -170, 829, 517, 356, 395, 287, 
53, 434, 380, -244, -163, 407, -156, 766, 478, 322, 370, 258, 
34, 385, 351, -209, -158, 368, -151, 707, 439, 283, 336, 234, 
19, 341, 322, -180, -151, 331, -141, 658, 409, 248, 307, 209, 
4, 312, 307, -158, -151, 309, -131, 619, 375, 224, 278, 185, 
-14, 278, 292, -131, -153, 285, -112, 570, 341, 190, 248, 161, 
-19, 234, 253, -107, -136, 244, -107, 531, 312, 161, 224, 136, 
-29, 200, 229, -85, -129, 214, -92, 502, 287, 131, 195, 112, 
-39, 165, 204, -63, -122, 185, -82, 478, 268, 107, 175, 82, 
-43, 136, 180, -46, -112, 158, -73, 448, 244, 92, 161, 63, 
-63, 112, 175, -24, -119, 143, -63, 429, 229, 68, 141, 53, 
-78, 92, 170, -7, -124, 131, -53, 414, 214, 58, 131, 39, 
-82, 78, 161, 2, -122, 119, -53, 400, 200, 48, 117, 29, 
-87, 63, 151, 12, -119, 107, -48, 380, 185, 34, 107, 19, 
-87, 43, 131, 21, -109, 87, -39, 366, 170, 14, 97, 9, 
-87, 39, 126, 24, -107, 82, -34, 366, 165, 4, 87, -4, 
-92, 34, 126, 29, -109, 80, -34, 356, 156, 4, 82, -14, 
-92, 24, 117, 34, -104, 70, -29, 356, 156, 0, 73, -14, 
-92, 14, 107, 39, -100, 61, -29, 351, 151, -9, 73, -19, 
-92, 9, 102, 41, -97, 56, -29, 346, 146, -19, 68, -24, 
-92, 9, 102, 41, -97, 56, -24, 341, 141, -24, 58, -24, 
-92, 4, 97, 43, -95, 51, -24, 336, 136, -24, 53, -24, 
-92, -4, 87, 48, -90, 41, -24, 336, 131, -24, 53, -24, 
-97, -9, 87, 53, -92, 39, -19, 336, 126, -24, 53, -24, 
-102, -9, 92, 56, -97, 41, -19, 336, 126, -24, 48, -24, 
-107, -9, 97, 58, -102, 43, -19, 336, 126, -24, 48, -24, 
-107, -14, 92, 61, -100, 39, -19, 336, 126, -24, 48, -24, 
-107, -14, 92, 61, -100, 39, -14, 336, 126, -24, 48, -24, 
-107, -9, 97, 58, -102, 43, -14, 341, 126, -24, 48, -19, 
-102, -4, 97, 53, -100, 46, -14, 346, 122, -24, 48, -14, 
-102, -4, 97, 53, -100, 46, -14, 346, 122, -19, 43, -14, 
-97, -4, 92, 51, -95, 43, -14, 346, 122, -14, 43, -14, 
-97, -4, 92, 51, -95, 43, -9, 346, 122, -14, 43, -14, 
-97, -4, 92, 51, -95, 43, -4, 351, 122, -14, 43, -14, 
-97, -4, 92, 51, -95, 43, -4, 351, 122, -9, 39, -9, 
-97, -4, 92, 51, -95, 43, -4, 351, 122, -9, 39, -9, 
-97, 0, 97, 48, -97, 48, -9, 346, 122, -4, 39, -9, 
-97, 0, 97, 48, -97, 48, -14, 341, 122, -4, 39, -9, 
-97, 0, 97, 48, -97, 48, -9, 346, 122, -9, 39, -9, 
-97, -4, 92, 51, -95, 43, -9, 346, 122, -9, 39, -9, 
-97, -4, 92, 51, -95, 43, -9, 346, 117, -9, 39, -9, 
-97, -4, 92, 51, -95, 43, -14, 346, 117, -9, 34, -9, 
-97, -9, 87, 53, -92, 39, -14, 346, 107, -9, 34, -9, 
-102, -9, 92, 56, -97, 41, -14, 351, 107, -9, 34, -9, 
-102, -9, 92, 56, -97, 41, -14, 351, 107, -9, 29, -4, 
-102, -9, 92, 56, -97, 41, -14, 351, 107, -9, 29, -4, 
-102, -9, 92, 56, -97, 41, -9, 351, 107, -9, 24, -4, 
-97, -9, 87, 53, -92, 39, -4, 351, 107, -9, 19, -9, 
-97, -9, 87, 53, -92, 39, -4, 351, 107, -9, 19, -9, 
-97, -9, 87, 53, -92, 39, -4, 351, 102, -9, 14, -9, 
-97, -9, 87, 53, -92, 39, -4, 351, 102, -14, 14, -9, 
-97, -9, 87, 53, -92, 39, -4, 351, 97, -14, 14, -9, 
-92, -9, 82, 51, -87, 36, -4, 351, 97, -14, 19, -4, 
-87, -9, 78, 48, -82, 34, -4, 346, 92, -14, 14, 0, 
-87, -9, 78, 48, -82, 34, -9, 346, 92, -14, 14, 0, 
-87, -9, 78, 48, -82, 34, -9, 346, 87, -14, 9, 0, 
-82, -9, 73, 46, -78, 31, -4, 346, 82, -14, 4, -4, 
-82, -9, 73, 46, -78, 31, -4, 341, 78, -14, 4, -9, 
-82, -9, 73, 46, -78, 31, -4, 341, 78, -14, 4, -9, 
-82, -14, 68, 48, -75, 26, -4, 331, 73, -14, 0, -9, 
-87, -14, 73, 51, -80, 29, -4, 331, 68, -19, -4, -14, 
-92, -24, 68, 58, -80, 21, -4, 326, 68, -19, -4, -14, 
-92, -29, 63, 61, -78, 17, -4, 326, 63, -24, -9, -14, 
-92, -34, 58, 63, -75, 12, -4, 322, 58, -24, -9, -14, 
-92, -39, 53, 65, -73, 7, -9, 317, 53, -24, -9, -14, 
-92, -39, 53, 65, -73, 7, -9, 312, 43, -24, -4, -14, 
-92, -43, 48, 68, -70, 2, -9, 312, 43, -24, -4, -14, 
-92, -43, 48, 68, -70, 2, -9, 312, 39, -29, -9, -14, 
-92, -43, 48, 68, -70, 2, -4, 312, 34, -34, -9, -14, 
-92, -43, 48, 68, -70, 2, 0, 302, 34, -39, -9, -14, 
-92, -43, 48, 68, -70, 2, 0, 302, 34, -39, -9, -14, 
-92, -43, 48, 68, -70, 2, 0, 297, 34, -39, -9, -19, 
-92, -48, 43, 70, -68, -2, -4, 297, 29, -39, -9, -19, 
-92, -48, 43, 70, -68, -2, -9, 297, 24, -43, -14, -19, 
-92, -53, 39, 73, -65, -7, -9, 297, 19, -43, -9, -19, 
-92, -53, 39, 73, -65, -7, -9, 287, 14, -43, -9, -24, 
-92, -53, 39, 73, -65, -7, -4, 283, 14, -39, -9, -24, 
-92, -53, 39, 73, -65, -7, 0, 278, 9, -34, -9, -24, 
-92, -53, 39, 73, -65, -7, 0, 278, 4, -34, -9, -19, 
-92, -53, 39, 73, -65, -7, 0, 273, 0, -34, -9, -19, 
-87, -53, 34, 70, -61, -9, 0, 273, -4, -34, -9, -19, 
-87, -58, 29, 73, -58, -14, 0, 273, -4, -34, -9, -24, 
-82, -58, 24, 70, -53, -17, -4, 273, -4, -34, -9, -24, 
-78, -58, 19, 68, -48, -19, -4, 268, 0, -34, -9, -24, 
-78, -58, 19, 68, -48, -19, -4, 268, -4, -34, -4, -24, 
-73, -58, 14, 65, -43, -21, -4, 263, -4, -34, -4, -24, 
-73, -58, 14, 65, -43, -21, 0, 263, -4, -34, -4, -24, 
-73, -63, 9, 68, -41, -26, 0, 253, -4, -34, -4, -24, 
-73, -63, 9, 68, -41, -26, 0, 253, 0, -34, -4, -24, 
-73, -63, 9, 68, -41, -26, 0, 253, 4, -34, -4, -24, 
-68, -58, 9, 63, -39, -24, 0, 253, 4, -29, -4, -24, 
-63, -53, 9, 58, -36, -21, 0, 253, 4, -29, -4, -24, 
-63, -53, 9, 58, -36, -21, 0, 248, 4, -29, 0, -24, 
-58, -53, 4, 56, -31, -24, 0, 248, 4, -24, 4, -19, 
-58, -53, 4, 56, -31, -24, 0, 244, 4, -19, 4, -14, 
-63, -53, 9, 58, -36, -21, 0, 244, 4, -19, 4, -14, 
-58, -53, 4, 56, -31, -24, 0, 239, 4, -19, 0, -9, 
-58, -58, 0, 58, -29, -29, 0, 234, 9, -19, 0, -9, 
-58, -58, 0, 58, -29, -29, 0, 234, 9, -19, 0, -9, 
-58, -58, 0, 58, -29, -29, 0, 234, 9, -19, 0, -9, 
-58, -58, 0, 58, -29, -29, 0, 234, 9, -19, 0, -9, 
-58, -58, 0, 58, -29, -29, 0, 234, 9, -19, 0, -9, 
-58, -58, 0, 58, -29, -29, -4, 229, 9, -19, 0, -9, 
-58, -58, 0, 58, -29, -29, -9, 224, 9, -19, 0, -9, 
-58, -58, 0, 58, -29, -29, -9, 224, 9, -19, 0, -9, 
-58, -58, 0, 58, -29, -29, -9, 224, 9, -19, 0, -9, 
-58, -58, 0, 58, -29, -29, -9, 224, 9, -19, 0, -9, 
-58, -58, 0, 58, -29, -29, -9, 224, 9, -19, 0, -9, 
-53, -58, -4, 56, -24, -31, -9, 219, 9, -19, 0, -9, 
-48, -58, -9, 53, -19, -34, -9, 214, 9, -19, 0, -9, 
-48, -58, -9, 53, -19, -34, -9, 214, 9, -14, 0, -9, 
-48, -58, -9, 53, -19, -34, -9, 214, 9, -9, 0, -9, 
-43, -58, -14, 51, -14, -36, -9, 214, 9, -9, 0, -4, 
-39, -58, -19, 48, -9, -39, -9, 214, 9, -9, 0, 0, 
-39, -58, -19, 48, -9, -39, -9, 209, 9, -9, 0, 0, 
-39, -58, -19, 48, -9, -39, -9, 204, 9, -9, 0, 0, 
-39, -58, -19, 48, -9, -39, -9, 200, 9, -9, 0, -4, 
-39, -58, -19, 48, -9, -39, -9, 195, 9, -9, 0, -9, 
-39, -58, -19, 48, -9, -39, -9, 195, 9, -9, 0, -9, 
-39, -58, -19, 48, -9, -39, -9, 195, 9, -9, 0, -9, 
-39, -58, -19, 48, -9, -39, -9, 190, 9, -9, 0, -9, 
-39, -58, -19, 48, -9, -39, -9, 185, 9, -9, 0, -9, 
-39, -58, -19, 48, -9, -39, -9, 185, 9, -9, 0, -9, 
-39, -58, -19, 48, -9, -39, -9, 185, 9, -9, 0, -9, 
-34, -58, -24, 46, -4, -41, -9, 185, 9, -4, 0, -9, 
-29, -58, -29, 43, 0, -43, -9, 185, 9, 0, 0, -9, 
-29, -58, -29, 43, 0, -43, -9, 180, 14, 0, 0, -9, 
-29, -58, -29, 43, 0, -43, -9, 175, 19, 0, 0, -9, 
-29, -53, -24, 41, -2, -39, -9, 175, 19, 0, 0, -9, 
-29, -48, -19, 39, -4, -34, -9, 175, 19, 0, 0, -9, 
-24, -48, -24, 36, 0, -36, -9, 175, 19, 0, 0, -9, 
-19, -48, -29, 34, 4, -39, -9, 175, 19, 0, 0, -9, 
-14, -43, -29, 29, 7, -36, -9, 170, 19, 0, 0, -9, 
-9, -39, -29, 24, 9, -34, -9, 165, 19, 0, 0, -9, 
-9, -39, -29, 24, 9, -34, -9, 165, 19, 0, 0, -9, 
-9, -39, -29, 24, 9, -34, -9, 165, 19, 0, 0, -9, 
-9, -39, -29, 24, 9, -34, -9, 161, 19, 0, 0, -4, 
-9, -39, -29, 24, 9, -34, -9, 156, 19, 0, 0, 0, 
-9, -39, -29, 24, 9, -34, -9, 156, 19, -4, 0, 0, 
-9, -39, -29, 24, 9, -34, -9, 156, 19, -9, 0, 0, 
-9, -39, -29, 24, 9, -34, -9, 156, 19, -9, 0, 0, 
-9, -39, -29, 24, 9, -34, -9, 156, 19, -9, 0, 0, 
-14, -39, -24, 26, 4, -31, -9, 151, 19, -9, 0, -4, 
-19, -39, -19, 29, 0, -29, -9, 146, 19, -9, 0, -9, 
-19, -34, -14, 26, -2, -24, -9, 141, 19, -9, 0, -9, 
-19, -29, -9, 24, -4, -19, -9, 136, 19, -9, 0, -9, 
-19, -29, -9, 24, -4, -19, -9, 136, 19, -9, 0, -9, 
-19, -29, -9, 24, -4, -19, -9, 136, 19, -9, 0, -9, 
-19, -29, -9, 24, -4, -19, -9, 136, 19, -9, 0, -9, 
-19, -29, -9, 24, -4, -19, -9, 136, 19, -9, 0, -9, 
-19, -29, -9, 24, -4, -19, -9, 131, 19, -9, 0, -9, 
-19, -29, -9, 24, -4, -19, -9, 126, 19, -9, 0, -9, 
-19, -24, -4, 21, -7, -14, -9, 126, 19, -9, 0, -9, 
-19, -19, 0, 19, -9, -9, -9, 126, 19, -9, 0, -9, 
-19, -14, 4, 17, -12, -4, -14, 122, 19, -9, 0, -9, 
-19, -9, 9, 14, -14, 0, -19, 117, 19, -9, 0, -9, 
-19, -9, 9, 14, -14, 0, -19, 117, 19, -9, 0, -9, 
-19, -9, 9, 14, -14, 0, -19, 117, 19, -9, 0, -9, 
-19, -9, 9, 14, -14, 0, -14, 112, 19, -9, 0, -9, 
-19, -9, 9, 14, -14, 0, -9, 107, 19, -9, 0, -9, 
-19, -9, 9, 14, -14, 0, -9, 107, 19, -9, 0, -9, 
-19, -9, 9, 14, -14, 0, -9, 107, 19, -9, 0, -9, 
-19, -9, 9, 14, -14, 0, -9, 107, 19, -9, 0, -4, 
-19, -9, 9, 14, -14, 0, -9, 107, 19, -9, 0, 0, 
-19, -9, 9, 14, -14, 0, -9, 102, 19, -4, 0, 0, 
-19, -9, 9, 14, -14, 0, -9, 97, 19, 0, 0, 0, 
-19, -4, 14, 12, -17, 4, -9, 97, 14, 0, 0, 0, 
-19, 0, 19, 9, -19, 9, -9, 97, 9, 0, 0, 0, 
-19, 0, 19, 9, -19, 9, -9, 92, 9, 0, 4, 0, 
-19, 0, 19, 9, -19, 9, -9, 87, 9, 0, 9, 0, 
-19, 0, 19, 9, -19, 9, -9, 87, 9, 0, 9, 0, 
-19, 0, 19, 9, -19, 9, -9, 87, 9, 0, 9, 0, 
-19, 0, 19, 9, -19, 9, -9, 82, 9, 0, 9, 0, 
-19, 0, 19, 9, -19, 9, -9, 78, 9, 0, 9, 0, 
-19, 0, 19, 9, -19, 9, -9, 73, 9, 0, 9, 0, 
-19, 0, 19, 9, -19, 9, -9, 68, 9, 0, 9, 0, 
-19, 0, 19, 9, -19, 9, -9, 68, 9, 0, 9, -4, 
-19, 0, 19, 9, -19, 9, -9, 68, 9, 0, 9, -9, 
-19, 0, 19, 9, -19, 9, -9, 63, 4, 0, 9, -9, 
-19, 0, 19, 9, -19, 9, -9, 58, 0, 0, 9, -9, 
-14, 0, 14, 7, -14, 7, -9, 58, 0, 0, 9, -4, 
-9, 0, 9, 4, -9, 4, -9, 58, 0, 0, 9, 0, 
-9, 0, 9, 4, -9, 4, -9, 53, 0, -4, 9, 0, 
-9, 0, 9, 4, -9, 4, -9, 48, 0, -9, 9, 0, 
-9, -4, 4, 7, -7, 0, -9, 43, 0, -9, 9, 0, 
-9, -9, 0, 9, -4, -4, -9, 39, 0, -9, 9, 0, 
-9, -9, 0, 9, -4, -4, -9, 39, 0, -9, 9, 0, 
-9, -9, 0, 9, -4, -4, -9, 39, 0, -9, 9, 0, 
-9, -9, 0, 9, -4, -4, -9, 34, 0, -9, 9, 0, 
-9, -9, 0, 9, -4, -4, -9, 29, 0, -9, 9, 0, 
-9, -4, 4, 7, -7, 0, -9, 29, 0, -9, 9, 0, 
-9, 0, 9, 4, -9, 4, -9, 29, 0, -9, 9, 0, 
-9, 0, 9, 4, -9, 4, -9, 24, 4, -9, 9, 0, 
-9, 0, 9, 4, -9, 4, -9, 19, 9, -9, 9, 0, 
-9, 0, 9, 4, -9, 4, -9, 19, 9, -9, 9, 0, 
-9, 0, 9, 4, -9, 4, -9, 19, 9, -9, 9, 0, 
-9, -4, 4, 7, -7, 0, -9, 14, 9, -9, 9, 0, 
-9, -9, 0, 9, -4, -4, -9, 9, 9, -9, 9, 0, 
-9, -9, 0, 9, -4, -4, -9, 9, 9, -9, 14, 0, 
-9, -9, 0, 9, -4, -4, -9, 9, 9, -9, 19, 0, 
-9, -9, 0, 9, -4, -4, -9, 4, 9, -9, 19, 4, 
-9, -9, 0, 9, -4, -4, -9, 0, 9, -9, 19, 9, 
-9, -4, 4, 7, -7, 0, -9, 0, 9, -9, 19, 9, 
-9, 0, 9, 4, -9, 4, -9, 0, 9, -9, 19, 9, 
-9, 9, 19, 0, -14, 14, -9, 0, 14, -4, 24, 9, 
-9, 19, 29, -4, -19, 24, -9, 0, 19, 0, 29, 9, 
-9, 24, 34, -7, -21, 29, -9, 4, 29, 4, 29, 14, 
-4, 34, 39, -14, -21, 36, 0, 4, 34, 9, 34, 19, 
-4, 43, 48, -19, -26, 46, 4, 9, 43, 19, 39, 24, 
-4, 43, 48, -19, -26, 46, 9, 9, 48, 24, 39, 24, 
0, 48, 48, -24, -24, 48, 9, 9, 53, 24, 39, 24, 
0, 53, 53, -26, -26, 53, 14, 14, 58, 29, 43, 34, 
0, 73, 73, -36, -36, 73, 14, 19, 63, 43, 53, 39, 
-4, 102, 107, -48, -56, 104, 9, 24, 78, 63, 68, 58, 
-4, 122, 126, -58, -65, 124, 4, 34, 97, 73, 87, 78, 
-9, 131, 141, -61, -75, 136, -4, 34, 107, 87, 97, 82, 
-14, 126, 141, -56, -78, 134, -9, 34, 107, 82, 97, 87, 
-14, 122, 136, -53, -75, 129, -19, 14, 102, 78, 97, 87, 
-14, 122, 136, -53, -75, 129, -24, 0, 102, 78, 97, 87, 
-14, 122, 136, -53, -75, 129, -29, -14, 102, 78, 97, 87, 
-14, 126, 141, -56, -78, 134, -29, -4, 97, 78, 97, 87, 
-14, 126, 141, -56, -78, 134, -29, 4, 97, 78, 97, 92, 
-14, 122, 136, -53, -75, 129, -29, 0, 97, 78, 97, 92, 
-9, 102, 112, -46, -61, 107, -29, -4, 87, 68, 87, 82, 
-9, 68, 78, -29, -43, 73, -29, -9, 68, 48, 63, 58, 
-9, 34, 43, -12, -26, 39, -24, -19, 48, 29, 43, 34, 
-14, 9, 24, 2, -19, 17, -19, -24, 29, 0, 14, 14, 
-14, 4, 19, 4, -17, 12, -14, -29, 19, -4, 14, 4, 
-19, -4, 14, 12, -17, 4, -14, -43, 14, -9, 9, 4, 
-24, -14, 9, 19, -17, -2, -14, -43, 9, -14, 9, 0, 
-34, -24, 9, 29, -21, -7, -9, -53, 4, -14, 0, -4, 
-39, -29, 9, 34, -24, -9, -9, -58, -4, -19, -9, -4, 
-39, -34, 4, 36, -21, -14, -14, -63, -9, -29, -9, -4, 
-39, -39, 0, 39, -19, -19, -14, -58, -9, -34, -9, -9, 
-39, -39, 0, 39, -19, -19, -14, -53, -4, -34, -4, -14, 
-39, -39, 0, 39, -19, -19, -14, -53, 0, -34, -4, -19, 
-39, -43, -4, 41, -17, -24, -14, -53, -4, -34, -4, -19, 
-39, -39, 0, 39, -19, -19, -9, -53, -4, -39, -9, -24, 
-39, -43, -4, 41, -17, -24, -9, -48, -4, -39, -9, -24, 
-39, -43, -4, 41, -17, -24, -9, -48, -4, -39, -9, -24, 
-39, -48, -9, 43, -14, -29, -9, -43, -4, -39, -9, -19, 
-43, -48, -4, 46, -19, -26, -9, -43, -4, -39, -9, -14, 
-43, -48, -4, 46, -19, -26, -4, -43, -4, -39, -9, -19, 
-43, -48, -4, 46, -19, -26, -4, -43, -4, -39, -9, -19, 
-43, -48, -4, 46, -19, -26, 0, -39, -4, -34, -9, -19, 
-43, -48, -4, 46, -19, -26, 0, -34, -4, -29, -9, -19, 
-39, -53, -14, 46, -12, -34, -4, -34, -4, -39, -9, -24, 
-34, -73, -39, 53, 2, -56, 0, -43, -19, -48, -29, -39, 
-24, -146, -122, 85, 48, -134, 4, -34, -63, -107, -78, -97, 
-14, -209, -195, 112, 90, -202, 34, -4, -82, -146, -131, -151, 
-14, -234, -219, 124, 102, -226, 68, 39, -92, -156, -156, -165, 
-9, -209, -200, 109, 95, -204, 82, 102, -73, -151, -151, -156, 
4, -190, -195, 92, 100, -192, 87, 214, -9, -117, -131, -161, 
43, -29, -73, -7, 58, -51, 92, 395, 156, 43, 9, -63, 
87, 248, 161, -168, -36, 204, 48, 556, 385, 287, 239, 136, 
141, 561, 419, -351, -139, 490, -92, 717, 649, 566, 507, 370, 
165, 893, 727, -529, -280, 810, -268, 883, 946, 858, 775, 614, 
146, 1263, 1117, -705, -485, 1190, -395, 995, 1268, 1176, 1083, 893, 
58, 1659, 1600, -858, -771, 1629, -522, 878, 1546, 1483, 1405, 1205, 
-39, 1659, 1698, -810, -868, 1678, -566, 649, 1532, 1488, 1424, 1244, 
-136, 1342, 1478, -602, -807, 1410, -517, 356, 1239, 1180, 1166, 1063, 
-200, 1054, 1254, -427, -727, 1154, -424, 53, 893, 849, 902, 878, 
-234, 683, 917, -224, -575, 800, -244, -224, 512, 488, 561, 585, 
-287, 395, 683, -53, -485, 539, -151, -434, 258, 248, 317, 366, 
-283, 234, 517, 24, -400, 375, -170, -419, 161, 141, 209, 248, 
-244, 175, 419, 34, -331, 297, -161, -322, 126, 107, 170, 200, 
-170, 136, 307, 17, -239, 222, -136, -165, 87, 73, 131, 156, 
-102, 102, 204, 0, -153, 153, -112, 4, 78, 53, 107, 117, 
-87, 102, 190, -7, -139, 146, -87, 82, 107, 63, 107, 112, 
-73, 97, 170, -12, -122, 134, -58, 107, 131, 63, 107, 97, 
-29, 92, 122, -31, -75, 107, -24, 165, 131, 63, 97, 68, 
-14, 63, 78, -24, -46, 70, -9, 234, 131, 53, 82, 48, 
-14, 24, 39, -4, -26, 31, 0, 224, 122, 39, 68, 39, 
-14, 24, 39, -4, -26, 31, 4, 195, 117, 29, 63, 34, 
-9, 24, 34, -7, -21, 29, 4, 209, 112, 19, 53, 19, 
-4, 14, 19, -4, -12, 17, 9, 224, 112, 19, 53, 9, 
-4, 14, 19, -4, -12, 17, 14, 234, 102, 14, 43, 9, 
-4, 9, 14, -2, -9, 12, 14, 234, 97, 9, 39, 4, 
-4, 4, 9, 0, -7, 7, 9, 244, 97, 9, 39, 0, 
0, 0, 0, 0, 0, 0, 4, 248, 97, 9, 39, 0, 
-4, 0, 4, 2, -4, 2, 4, 258, 97, 9, 39, 0, 
-4, 0, 4, 2, -4, 2, 4, 268, 102, 9, 39, 0, 
-4, 4, 9, 0, -7, 7, 4, 268, 102, 9, 39, 0, 
-4, 4, 9, 0, -7, 7, 4, 278, 107, 9, 39, 0, 
0, 4, 4, -2, -2, 4, 4, 278, 107, 9, 43, 0, 
4, 4, 0, -4, 2, 2, 4, 292, 112, 9, 43, 0, 
4, 4, 0, -4, 2, 2, 4, 302, 112, 9, 48, 0, 
4, 4, 0, -4, 2, 2, 4, 307, 117, 9, 53, 0, 
4, 9, 4, -7, 0, 7, 4, 322, 122, 14, 53, 0, 
9, 14, 4, -12, 2, 9, 0, 331, 126, 14, 58, 0, 
9, 14, 4, -12, 2, 9, 0, 341, 131, 19, 53, 0, 
14, 24, 9, -19, 2, 17, 0, 351, 136, 19, 53, 4, 
14, 29, 14, -21, 0, 21, 0, 366, 141, 14, 58, 4, 
19, 29, 9, -24, 4, 19, 0, 375, 146, 14, 58, 4, 
19, 34, 14, -26, 2, 24, 0, 390, 151, 14, 63, 4, 
19, 34, 14, -26, 2, 24, 0, 405, 156, 19, 63, 9, 
24, 43, 19, -34, 2, 31, -4, 419, 161, 29, 68, 9, 
24, 48, 24, -36, 0, 36, -4, 434, 161, 29, 78, 14, 
34, 53, 19, -43, 7, 36, -4, 453, 175, 34, 82, 19, 
39, 58, 19, -48, 9, 39, -9, 468, 180, 39, 87, 19, 
39, 63, 24, -51, 7, 43, -9, 483, 185, 43, 87, 24, 
39, 73, 34, -56, 2, 53, -14, 497, 190, 48, 92, 24, 
43, 82, 39, -63, 2, 61, -14, 517, 200, 53, 97, 29, 
43, 87, 43, -65, 0, 65, -14, 536, 209, 58, 102, 29, 
53, 102, 48, -78, 2, 75, -19, 546, 214, 63, 107, 39, 
58, 112, 53, -85, 2, 82, -19, 566, 229, 68, 112, 43, 
63, 122, 58, -92, 2, 90, -19, 585, 239, 78, 122, 48, 
68, 136, 68, -102, 0, 102, -24, 605, 244, 82, 126, 53, 
73, 156, 82, -114, -4, 119, -29, 629, 268, 92, 131, 53, 
78, 161, 82, -119, -2, 122, -34, 649, 273, 97, 131, 53, 
82, 180, 97, -131, -7, 139, -34, 668, 278, 112, 146, 63, 
92, 195, 102, -143, -4, 148, -39, 697, 292, 122, 156, 78, 
97, 209, 112, -153, -7, 161, -43, 727, 302, 131, 165, 82, 
107, 224, 117, -165, -4, 170, -48, 756, 322, 146, 180, 92, 
112, 244, 131, -178, -9, 187, -53, 780, 331, 156, 190, 102, 
117, 268, 151, -192, -17, 209, -53, 810, 351, 175, 209, 112, 
126, 287, 161, -207, -17, 224, -58, 834, 370, 190, 219, 122, 
141, 302, 161, -222, -9, 231, -68, 858, 385, 204, 239, 136, 
146, 326, 180, -236, -17, 253, -78, 883, 409, 214, 253, 146, 
156, 346, 190, -251, -17, 268, -78, 907, 419, 224, 268, 156, 
170, 370, 200, -270, -14, 285, -92, 932, 439, 239, 283, 165, 
175, 390, 214, -283, -19, 302, -97, 956, 453, 253, 297, 185, 
185, 409, 224, -297, -19, 317, -107, 985, 468, 268, 312, 195, 
200, 429, 229, -314, -14, 329, -107, 1015, 488, 283, 331, 209, 
200, 453, 253, -326, -26, 353, -122, 1029, 497, 302, 346, 224, 
209, 473, 263, -341, -26, 368, -131, 1044, 517, 317, 361, 234, 
214, 497, 283, -356, -34, 390, -136, 1054, 531, 331, 380, 253, 
219, 527, 307, -373, -43, 417, -146, 1068, 546, 341, 390, 268, 
219, 541, 322, -380, -51, 431, -141, 1078, 551, 351, 405, 278, 
219, 556, 336, -387, -58, 446, -151, 1088, 561, 361, 414, 292, 
224, 575, 351, -400, -63, 463, -156, 1088, 570, 375, 434, 297, 
224, 590, 366, -407, -70, 478, -156, 1083, 580, 385, 439, 317, 
224, 595, 370, -409, -73, 483, -175, 1078, 590, 395, 453, 326, 
214, 605, 390, -409, -87, 497, -180, 1063, 590, 400, 468, 336, 
209, 605, 395, -407, -92, 500, -185, 1029, 590, 409, 478, 341, 
195, 605, 409, -400, -107, 507, -190, 995, 590, 414, 478, 341, 
185, 600, 414, -392, -114, 507, -190, 956, 585, 414, 483, 341, 
165, 585, 419, -375, -126, 502, -190, 912, 561, 409, 483, 341, 
141, 556, 414, -348, -136, 485, -190, 858, 527, 375, 458, 336, 
126, 527, 400, -326, -136, 463, -185, 800, 497, 356, 444, 326, 
102, 492, 390, -297, -143, 441, -175, 741, 478, 331, 419, 307, 
82, 468, 385, -275, -151, 427, -170, 688, 448, 307, 395, 287, 
63, 424, 361, -244, -148, 392, -161, 624, 409, 273, 370, 258, 
43, 375, 331, -209, -143, 353, -156, 566, 370, 234, 336, 234, 
29, 331, 302, -180, -136, 317, -141, 522, 341, 200, 307, 209, 
14, 297, 283, -156, -134, 290, -131, 483, 307, 175, 278, 185, 
-4, 263, 268, -129, -136, 265, -112, 434, 273, 141, 248, 161, 
-14, 224, 239, -104, -126, 231, -107, 400, 244, 112, 224, 136, 
-29, 190, 219, -80, -124, 204, -92, 375, 219, 82, 195, 112, 
-39, 161, 200, -61, -119, 180, -82, 351, 200, 58, 175, 87, 
-43, 136, 180, -46, -112, 158, -73, 317, 175, 43, 161, 73, 
-58, 112, 170, -26, -114, 141, -63, 292, 161, 19, 141, 63, 
-68, 92, 161, -12, -114, 126, -53, 278, 151, 9, 131, 48, 
-73, 78, 151, -2, -112, 114, -53, 268, 141, 0, 117, 39, 
-73, 63, 136, 4, -104, 100, -48, 253, 126, -14, 107, 29, 
-73, 43, 117, 14, -95, 80, -39, 239, 112, -29, 97, 19, 
-78, 34, 112, 21, -95, 73, -34, 239, 107, -34, 87, 4, 
-82, 24, 107, 29, -95, 65, -34, 229, 97, -34, 82, -4, 
-87, 9, 97, 39, -92, 53, -29, 229, 92, -39, 73, -4, 
-92, 0, 92, 46, -92, 46, -29, 224, 82, -43, 73, -9, 
-92, 0, 92, 46, -92, 46, -29, 214, 78, -48, 68, -14, 
-92, 0, 92, 46, -92, 46, -24, 209, 73, -53, 63, -14, 
-92, -4, 87, 48, -90, 41, -24, 209, 68, -53, 58, -14, 
-92, -9, 82, 51, -87, 36, -24, 209, 68, -53, 53, -14, 
-97, -9, 87, 53, -92, 39, -19, 204, 68, -53, 53, -14, 
-97, -9, 87, 53, -92, 39, -19, 200, 68, -53, 48, -14, 
-97, -9, 87, 53, -92, 39, -19, 200, 68, -53, 48, -14, 
-97, -14, 82, 56, -90, 34, -19, 200, 68, -53, 48, -14, 
-97, -14, 82, 56, -90, 34, -14, 204, 68, -53, 48, -14, 
-102, -14, 87, 58, -95, 36, -14, 209, 68, -53, 48, -14, 
-102, -14, 87, 58, -95, 36, -9, 209, 63, -48, 48, -14, 
-102, -14, 87, 58, -95, 36, -4, 209, 63, -43, 43, -14, 
-97, -14, 82, 56, -90, 34, -4, 209, 63, -43, 43, -14, 
-97, -14, 82, 56, -90, 34, -4, 209, 63, -43, 43, -14, 
-97, -14, 82, 56, -90, 34, -4, 214, 63, -43, 43, -14, 
-97, -14, 82, 56, -90, 34, -4, 214, 63, -39, 39, -9, 
-97, -14, 82, 56, -90, 34, -4, 214, 58, -43, 39, -9, 
-97, -9, 87, 53, -92, 39, -4, 214, 53, -43, 39, -9, 
-97, -9, 87, 53, -92, 39, -9, 209, 53, -43, 39, -9, 
-97, -4, 92, 51, -95, 43, -9, 209, 53, -43, 39, -9, 
-97, -4, 92, 51, -95, 43, -9, 209, 58, -39, 39, -9, 
-97, -4, 92, 51, -95, 43, -9, 209, 58, -39, 39, -9, 
-102, -4, 97, 53, -100, 46, -14, 209, 58, -39, 34, -9, 
-102, -9, 92, 56, -97, 41, -14, 209, 48, -39, 34, -9, 
-102, -9, 92, 56, -97, 41, -14, 214, 43, -39, 29, -9, 
-102, -9, 92, 56, -97, 41, -14, 214, 39, -39, 19, -4, 
-102, -9, 92, 56, -97, 41, -14, 214, 39, -39, 19, -4, 
-102, -9, 92, 56, -97, 41, -14, 214, 39, -39, 19, -4, 
-97, -9, 87, 53, -92, 39, -14, 214, 39, -39, 19, -9, 
-97, -9, 87, 53, -92, 39, -14, 214, 39, -39, 19, -9, 
-97, -9, 87, 53, -92, 39, -14, 209, 34, -39, 14, -9, 
-97, -9, 87, 53, -92, 39, -14, 204, 34, -39, 14, -9, 
-97, -14, 82, 56, -90, 34, -14, 204, 29, -39, 14, -9, 
-97, -19, 78, 58, -87, 29, -14, 204, 29, -43, 14, -9, 
-97, -19, 78, 58, -87, 29, -9, 200, 24, -43, 4, -9, 
-97, -19, 78, 58, -87, 29, -9, 200, 24, -43, 4, -9, 
-97, -19, 78, 58, -87, 29, -9, 200, 19, -39, 0, -9, 
-92, -19, 73, 56, -82, 26, -4, 200, 14, -34, -4, -9, 
-87, -14, 73, 51, -80, 29, -4, 195, 9, -34, -4, -9, 
-82, -9, 73, 46, -78, 31, -4, 195, 9, -34, -4, -9, 
-82, -14, 68, 48, -75, 26, -4, 185, 4, -34, -4, -9, 
-82, -14, 68, 48, -75, 26, -4, 185, 0, -39, -4, -14, 
-82, -24, 58, 53, -70, 17, -4, 180, 0, -39, -4, -9, 
-82, -24, 58, 53, -70, 17, -4, 180, -4, -43, -9, -4, 
-82, -24, 58, 53, -70, 17, -9, 175, -9, -43, -4, -4, 
-82, -29, 53, 56, -68, 12, -14, 170, -9, -43, -4, -4, 
-82, -29, 53, 56, -68, 12, -9, 165, -9, -43, -4, -4, 
-82, -34, 48, 58, -65, 7, -9, 165, -4, -43, -4, -4, 
-82, -39, 43, 61, -63, 2, -9, 165, -9, -48, -9, -4, 
-82, -43, 39, 63, -61, -2, -9, 165, -14, -48, -9, -4, 
-82, -43, 39, 63, -61, -2, -9, 156, -14, -48, -9, -4, 
-82, -43, 39, 63, -61, -2, -9, 156, -14, -48, -9, -4, 
-82, -39, 43, 61, -63, 2, -9, 151, -14, -48, -9, -9, 
-82, -39, 43, 61, -63, 2, -9, 151, -19, -48, -9, -9, 
-82, -39, 43, 61, -63, 2, -4, 151, -19, -53, -14, -9, 
-82, -43, 39, 63, -61, -2, 0, 151, -14, -53, -14, -9, 
-82, -48, 34, 65, -58, -7, 0, 136, -14, -53, -19, -14, 
-82, -53, 29, 68, -56, -12, 0, 131, -14, -53, -19, -14, 
-82, -53, 29, 68, -56, -12, 0, 131, -19, -53, -19, -14, 
-82, -53, 29, 68, -56, -12, 0, 131, -24, -53, -19, -9, 
-82, -53, 29, 68, -56, -12, 0, 126, -24, -53, -19, -9, 
-78, -53, 24, 65, -51, -14, 0, 126, -24, -53, -19, -9, 
-78, -58, 19, 68, -48, -19, -4, 126, -24, -48, -14, -14, 
-78, -58, 19, 68, -48, -19, -9, 126, -24, -43, -9, -14, 
-78, -58, 19, 68, -48, -19, -4, 122, -19, -43, -9, -14, 
-78, -58, 19, 68, -48, -19, -4, 122, -19, -43, -9, -14, 
-78, -58, 19, 68, -48, -19, -4, 117, -14, -43, -14, -14, 
-82, -58, 24, 70, -53, -17, -4, 117, -14, -43, -14, -14, 
-82, -68, 14, 75, -48, -26, -9, 107, -14, -43, -14, -14, 
-82, -73, 9, 78, -46, -31, -9, 107, -14, -43, -14, -14, 
-82, -73, 9, 78, -46, -31, -9, 107, -14, -43, -14, -9, 
-82, -73, 9, 78, -46, -31, -9, 107, -14, -39, -14, -4, 
-78, -68, 9, 73, -43, -29, -4, 112, -9, -39, -14, -4, 
-73, -63, 9, 68, -41, -26, 0, 112, -4, -39, -9, -4, 
-73, -63, 9, 68, -41, -26, 0, 112, -4, -34, -9, -9, 
-68, -63, 4, 65, -36, -29, 0, 107, -4, -34, -4, -9, 
-63, -58, 4, 61, -34, -26, 0, 102, 0, -29, 0, -4, 
-58, -58, 0, 58, -29, -29, 0, 97, 0, -29, 0, 0, 
-58, -58, 0, 58, -29, -29, 0, 97, 0, -29, 0, 0, 
-58, -58, 0, 58, -29, -29, 0, 97, 0, -29, 0, 0, 
-58, -58, 0, 58, -29, -29, 0, 97, 0, -29, 0, 0, 
-58, -58, 0, 58, -29, -29, 0, 97, 0, -29, 0, 0, 
-58, -58, 0, 58, -29, -29, 0, 92, 0, -29, 0, 0, 
-58, -58, 0, 58, -29, -29, 0, 87, 0, -29, 0, 0, 
-58, -58, 0, 58, -29, -29, 0, 87, 0, -24, 0, 0, 
-58, -58, 0, 58, -29, -29, 0, 87, 0, -19, 0, 0, 
-58, -58, 0, 58, -29, -29, 0, 82, 0, -19, 0, 0, 
-58, -58, 0, 58, -29, -29, 0, 78, 0, -19, 0, 0, 
-53, -58, -4, 56, -24, -31, 0, 78, 0, -19, 0, 0, 
-48, -58, -9, 53, -19, -34, 0, 78, 0, -19, 0, 0, 
-48, -58, -9, 53, -19, -34, 0, 78, 0, -19, 0, 0, 
-48, -58, -9, 53, -19, -34, 0, 78, 0, -19, 0, 0, 
-48, -58, -9, 53, -19, -34, -4, 73, 4, -14, 0, 0, 
-48, -58, -9, 53, -19, -34, -9, 68, 9, -9, 0, 0, 
-48, -58, -9, 53, -19, -34, -9, 63, 9, -9, 0, 0, 
-48, -58, -9, 53, -19, -34, -9, 58, 9, -9, 0, 0, 
-43, -53, -9, 48, -17, -31, -9, 58, 9, -9, 0, 0, 
-39, -48, -9, 43, -14, -29, -9, 58, 9, -9, 0, 0, 
-39, -48, -9, 43, -14, -29, -9, 58, 9, -9, 0, 0, 
-39, -48, -9, 43, -14, -29, -9, 58, 9, -9, 0, 0, 
-39, -48, -9, 43, -14, -29, -9, 53, 4, -9, 0, -4, 
-39, -48, -9, 43, -14, -29, -9, 48, 0, -9, 0, -9, 
-34, -48, -14, 41, -9, -31, -9, 48, 0, -9, 0, -9, 
-29, -48, -19, 39, -4, -34, -9, 48, 0, -9, 0, -9, 
-29, -48, -19, 39, -4, -34, -9, 43, 4, -9, 0, -9, 
-29, -48, -19, 39, -4, -34, -9, 39, 9, -9, 0, -9, 
-29, -43, -14, 36, -7, -29, -9, 39, 9, -4, 0, -9, 
-29, -39, -9, 34, -9, -24, -9, 39, 9, 0, 0, -9, 
-29, -39, -9, 34, -9, -24, -9, 34, 9, 0, 0, -9, 
-29, -39, -9, 34, -9, -24, -9, 29, 9, 0, 0, -9, 
-29, -39, -9, 34, -9, -24, -9, 29, 9, 0, 0, -9, 
-29, -39, -9, 34, -9, -24, -9, 29, 9, 0, 0, -9, 
-24, -39, -14, 31, -4, -26, -9, 24, 9, 0, 0, -9, 
-19, -39, -19, 29, 0, -29, -9, 19, 9, 0, 0, -9, 
-19, -39, -19, 29, 0, -29, -9, 19, 9, 0, 0, -9, 
-19, -39, -19, 29, 0, -29, -9, 19, 9, 0, 0, -9, 
-14, -39, -24, 26, 4, -31, -9, 19, 9, 0, 0, -9, 
-9, -39, -29, 24, 9, -34, -9, 19, 9, 0, 0, -9, 
-9, -39, -29, 24, 9, -34, -9, 14, 9, -4, 0, -9, 
-9, -39, -29, 24, 9, -34, -9, 9, 9, -9, 0, -9, 
-4, -34, -29, 19, 12, -31, -9, 9, 9, -9, 0, -9, 
0, -29, -29, 14, 14, -29, -9, 9, 9, -9, 0, -9, 
0, -29, -29, 14, 14, -29, -9, 4, 9, -9, 0, -9, 
0, -29, -29, 14, 14, -29, -9, 0, 9, -9, 0, -9, 
