I, II, III, aVR, aVL, aVF, V1, V2, V3, V4, V5, V6, 
517, 556, 39, -536, 239, 297, -566, 1249, 273, 361, 409, 419, 
736, 756, 19, -746, 358, 387, -810, 1029, 156, 419, 536, 561, 
956, 956, 0, -956, 478, 478, -1054, 810, 39, 478, 663, 702, 
1171, 1073, -97, -1122, 634, 488, -1351, 473, -234, 439, 756, 839, 
1385, 1190, -195, -1288, 790, 497, -1649, 136, -507, 400, 849, 976, 
1610, 1268, -341, -1439, 976, 463, -1961, -244, -854, 287, 912, 1107, 
1834, 1346, -488, -1590, 1161, 429, -2274, -624, -1200, 175, 976, 1239, 
1966, 1390, -575, -1678, 1271, 407, -2430, -936, -1503, 39, 1000, 1342, 
2098, 1434, -663, -1766, 1381, 385, -2586, -1249, -1805, -97, 1024, 1444, 
2210, 1522, -688, -1866, 1449, 417, -2605, -1332, -1898, -156, 1068, 1532, 
2322, 1610, -712, -1966, 1517, 448, -2625, -1415, -1991, -214, 1112, 1620, 
2259, 1586, -673, -1922, 1466, 456, -2488, -1346, -1981, -268, 1088, 1620, 
2196, 1561, -634, -1878, 1415, 463, -2352, -1278, -1971, -322, 1063, 1620, 
2069, 1473, -595, -1771, 1332, 439, -2176, -1171, -1888, -356, 1010, 1590, 
1942, 1385, -556, -1664, 1249, 414, -2000, -1063, -1805, -390, 956, 1561, 
1873, 1229, -644, -1551, 1259, 292, -1873, -922, -1717, -400, 917, 1498, 
1805, 1073, -732, -1439, 1268, 170, -1747, -780, -1629, -409, 878, 1434, 
1698, 873, -824, -1285, 1261, 24, -1595, -566, -1483, -395, 805, 1312, 
1590, 673, -917, -1132, 1254, -122, -1444, -351, -1337, -380, 732, 1190, 
1449, 488, -961, -968, 1205, -236, -1283, -175, -1239, -405, 610, 1039, 
1307, 302, -1005, -805, 1156, -351, -1122, 0, -1141, -429, 488, 888, 
1146, 234, -912, -690, 1029, -339, -961, 175, -1000, -444, 366, 756, 
985, 165, -819, -575, 902, -326, -800, 351, -858, -458, 244, 624, 
834, 165, -668, -500, 751, -251, -653, 541, -668, -375, 204, 541, 
683, 165, -517, -424, 600, -175, -507, 732, -478, -292, 165, 458, 
453, 151, -302, -302, 378, -75, -336, 907, -302, -239, 82, 331, 
224, 136, -87, -180, 156, 24, -165, 1083, -126, -185, 0, 204, 
48, 39, -9, -43, 29, 14, -34, 1220, -9, -146, -58, 92, 
-126, -58, 68, 92, -97, 4, 97, 1356, 107, -107, -117, -19, 
-248, -92, 156, 170, -202, 31, 175, 1434, 180, -78, -136, -63, 
-370, -126, 244, 248, -307, 58, 253, 1512, 253, -48, -156, -107, 
-409, -146, 263, 278, -336, 58, 297, 1566, 302, -14, -156, -117, 
-448, -165, 283, 307, -366, 58, 341, 1620, 351, 19, -156, -126, 
-458, -165, 292, 312, -375, 63, 356, 1639, 366, 29, -151, -126, 
-468, -165, 302, 317, -385, 68, 370, 1659, 380, 39, -146, -126, 
-478, -165, 312, 322, -395, 73, 375, 1664, 390, 43, -146, -131, 
-488, -165, 322, 326, -405, 78, 380, 1668, 400, 48, -146, -136, 
-497, -170, 326, 334, -412, 78, 390, 1678, 400, 48, -151, -146, 
-507, -175, 331, 341, -419, 78, 400, 1688, 400, 48, -156, -156, 
-512, -175, 336, 344, -424, 80, 405, 1693, 409, 43, -165, -156, 
-517, -175, 341, 346, -429, 82, 409, 1698, 419, 39, -175, -156, 
-531, -185, 346, 358, -439, 80, 424, 1712, 429, 39, -180, -161, 
-546, -195, 351, 370, -448, 78, 439, 1727, 439, 39, -185, -165, 
-556, -209, 346, 383, -451, 68, 453, 1737, 448, 39, -185, -170, 
-566, -224, 341, 395, -453, 58, 468, 1747, 458, 39, -185, -175, 
-590, -224, 366, 407, -478, 70, 488, 1756, 463, 39, -200, -185, 
-614, -224, 390, 419, -502, 82, 507, 1766, 468, 39, -214, -195, 
-634, -248, 385, 441, -509, 68, 531, 1781, 473, 34, -219, -209, 
-653, -273, 380, 463, -517, 53, 556, 1795, 478, 29, -224, -224, 
-678, -283, 395, 480, -536, 56, 580, 1820, 492, 29, -234, -234, 
-702, -292, 409, 497, -556, 58, 605, 1844, 507, 29, -244, -244, 
-736, -307, 429, 522, -583, 61, 639, 1864, 522, 29, -258, -258, 
-771, -322, 448, 546, -610, 63, 673, 1883, 536, 29, -273, -273, 
-810, -351, 458, 580, -634, 53, 717, 1903, 551, 19, -292, -287, 
-849, -380, 468, 614, -658, 43, 761, 1922, 566, 9, -312, -302, 
-893, -400, 492, 646, -692, 46, 800, 1952, 585, 4, -331, -331, 
-936, -419, 517, 678, -727, 48, 839, 1981, 605, 0, -351, -361, 
-980, -439, 541, 710, -761, 51, 883, 2005, 624, -9, -380, -390, 
-1024, -458, 566, 741, -795, 53, 927, 2030, 644, -19, -409, -419, 
-1073, -488, 585, 780, -829, 48, 976, 2069, 678, -19, -429, -439, 
-1122, -517, 605, 819, -863, 43, 1024, 2108, 712, -19, -448, -458, 
-1171, -541, 629, 856, -900, 43, 1068, 2142, 736, -19, -468, -488, 
-1220, -566, 653, 893, -936, 43, 1112, 2176, 761, -19, -488, -517, 
-1263, -585, 678, 924, -971, 46, 1151, 2210, 795, -14, -497, -531, 
-1307, -605, 702, 956, -1005, 48, 1190, 2244, 829, -9, -507, -546, 
-1337, -619, 717, 978, -1027, 48, 1210, 2274, 858, 0, -517, -561, 
-1366, -634, 732, 1000, -1049, 48, 1229, 2303, 888, 9, -527, -575, 
-1376, -624, 751, 1000, -1063, 63, 1229, 2322, 912, 19, -527, -575, 
-1385, -614, 771, 1000, -1078, 78, 1229, 2342, 936, 29, -527, -575, 
-1371, -580, 790, 976, -1080, 104, 1215, 2352, 946, 43, -522, -575, 
-1356, -546, 810, 951, -1083, 131, 1200, 2361, 956, 58, -517, -575, 
-1322, -507, 814, 915, -1068, 153, 1156, 2352, 966, 82, -488, -551, 
-1288, -468, 819, 878, -1054, 175, 1112, 2342, 976, 107, -458, -527, 
-1234, -414, 819, 824, -1027, 202, 1058, 2313, 961, 122, -434, -492, 
-1180, -361, 819, 771, -1000, 229, 1005, 2283, 946, 136, -409, -458, 
-1102, -312, 790, 707, -946, 239, 932, 2239, 912, 151, -366, -414, 
-1024, -263, 761, 644, -893, 248, 858, 2196, 878, 165, -322, -370, 
-946, -214, 732, 580, -839, 258, 785, 2142, 839, 170, -292, -326, 
-868, -165, 702, 517, -785, 268, 712, 2088, 800, 175, -263, -283, 
-780, -126, 653, 453, -717, 263, 634, 2025, 746, 175, -209, -224, 
-692, -87, 605, 390, -649, 258, 556, 1961, 692, 175, -156, -165, 
-614, -48, 566, 331, -590, 258, 488, 1903, 644, 180, -122, -122, 
-536, -9, 527, 273, -531, 258, 419, 1844, 595, 185, -87, -78, 
-453, 19, 473, 217, -463, 246, 346, 1786, 546, 185, -58, -43, 
-370, 48, 419, 161, -395, 234, 273, 1727, 497, 185, -29, -9, 
-317, 68, 385, 124, -351, 226, 224, 1683, 458, 175, -9, 19, 
-263, 87, 351, 87, -307, 219, 175, 1639, 419, 165, 9, 48, 
-214, 107, 322, 53, -268, 214, 131, 1595, 380, 156, 24, 73, 
-165, 126, 292, 19, -229, 209, 87, 1551, 341, 146, 39, 97, 
-136, 131, 268, 2, -202, 200, 63, 1522, 317, 141, 48, 107, 
-107, 136, 244, -14, -175, 190, 39, 1493, 292, 136, 58, 117, 
-78, 136, 214, -29, -146, 175, 14, 1468, 268, 126, 63, 126, 
-48, 136, 185, -43, -117, 161, -9, 1444, 244, 117, 68, 136, 
-39, 136, 175, -48, -107, 156, -19, 1429, 229, 107, 68, 141, 
-29, 136, 165, -53, -97, 151, -29, 1415, 214, 97, 68, 146, 
-19, 136, 156, -58, -87, 146, -34, 1405, 200, 92, 68, 146, 
-9, 136, 146, -63, -78, 141, -39, 1395, 185, 87, 68, 146, 
-9, 136, 146, -63, -78, 141, -43, 1385, 180, 78, 63, 146, 
-9, 136, 146, -63, -78, 141, -48, 1376, 175, 68, 58, 146, 
-9, 136, 146, -63, -78, 141, -48, 1371, 170, 63, 48, 141, 
-9, 136, 146, -63, -78, 141, -48, 1366, 165, 58, 39, 136, 
-9, 131, 141, -61, -75, 136, -48, 1361, 161, 58, 39, 136, 
-9, 126, 136, -58, -73, 131, -48, 1356, 156, 58, 39, 136, 
-9, 122, 131, -56, -70, 126, -48, 1356, 156, 58, 39, 136, 
-9, 117, 126, -53, -68, 122, -48, 1356, 156, 58, 39, 136, 
-14, 112, 126, -48, -70, 119, -48, 1356, 156, 58, 39, 136, 
-19, 107, 126, -43, -73, 117, -48, 1356, 156, 58, 39, 136, 
-24, 102, 126, -39, -75, 114, -43, 1356, 156, 53, 34, 131, 
-29, 97, 126, -34, -78, 112, -39, 1356, 156, 48, 29, 126, 
-34, 97, 131, -31, -82, 114, -39, 1356, 156, 43, 24, 122, 
-39, 97, 136, -29, -87, 117, -39, 1356, 156, 39, 19, 117, 
-39, 92, 131, -26, -85, 112, -34, 1356, 151, 39, 19, 112, 
-39, 87, 126, -24, -82, 107, -29, 1356, 146, 39, 19, 107, 
-39, 87, 126, -24, -82, 107, -29, 1356, 146, 39, 14, 107, 
-39, 87, 126, -24, -82, 107, -29, 1356, 146, 39, 9, 107, 
-43, 78, 122, -17, -82, 100, -29, 1356, 146, 34, 4, 102, 
-48, 68, 117, -9, -82, 92, -29, 1356, 146, 29, 0, 97, 
-48, 68, 117, -9, -82, 92, -24, 1356, 146, 29, 0, 97, 
-48, 68, 117, -9, -82, 92, -19, 1356, 146, 29, 0, 97, 
-48, 68, 117, -9, -82, 92, -19, 1356, 146, 29, -4, 92, 
-48, 68, 117, -9, -82, 92, -19, 1356, 146, 29, -9, 87, 
-48, 68, 117, -9, -82, 92, -14, 1356, 141, 29, -9, 82, 
-48, 73, 122, -12, -85, 97, -9, 1361, 141, 29, -4, 82, 
-48, 78, 126, -14, -87, 102, -4, 1366, 146, 29, -4, 82, 
-48, 82, 131, -17, -90, 107, 9, 1366, 151, 34, 0, 82, 
-43, 87, 131, -21, -87, 109, 9, 1366, 151, 34, 4, 87, 
-43, 92, 136, -24, -90, 114, 9, 1371, 161, 34, 4, 87, 
-34, 92, 126, -29, -80, 109, 9, 1371, 161, 39, 0, 92, 
-29, 92, 122, -31, -75, 107, 0, 1371, 165, 43, 4, 92, 
-9, 107, 117, -48, -63, 112, -4, 1371, 165, 48, 9, 102, 
9, 131, 122, -70, -56, 126, -19, 1366, 170, 53, 19, 112, 
34, 170, 136, -102, -51, 153, -43, 1361, 165, 63, 39, 136, 
43, 180, 136, -112, -46, 158, -73, 1346, 161, 58, 43, 141, 
53, 170, 117, -112, -31, 143, -92, 1337, 146, 53, 39, 136, 
58, 165, 107, -112, -24, 136, -102, 1327, 131, 43, 29, 131, 
58, 151, 92, -104, -17, 122, -102, 1312, 122, 39, 29, 126, 
58, 146, 87, -102, -14, 117, -102, 1307, 112, 39, 29, 122, 
53, 146, 92, -100, -19, 119, -102, 1307, 107, 39, 29, 122, 
34, 136, 102, -85, -34, 119, -92, 1302, 102, 39, 29, 122, 
9, 122, 112, -65, -51, 117, -87, 1302, 107, 39, 24, 117, 
-9, 97, 107, -43, -58, 102, -68, 1302, 107, 34, 19, 102, 
-19, 78, 97, -29, -58, 87, -58, 1307, 107, 29, 9, 92, 
-29, 53, 82, -12, -56, 68, -48, 1307, 107, 24, -4, 73, 
-34, 34, 68, 0, -51, 51, -48, 1307, 92, 4, -14, 58, 
-43, 14, 58, 14, -51, 36, -43, 1307, 82, -9, -24, 48, 
-43, 0, 43, 21, -43, 21, -39, 1302, 78, -14, -24, 39, 
-48, 0, 48, 24, -48, 24, -39, 1293, 73, -14, -29, 39, 
-48, -4, 43, 26, -46, 19, -39, 1293, 68, -14, -29, 34, 
-53, -9, 43, 31, -48, 17, -39, 1293, 63, -19, -34, 24, 
-53, -14, 39, 34, -46, 12, -39, 1293, 63, -19, -39, 24, 
-53, -24, 29, 39, -41, 2, -39, 1288, 63, -19, -43, 24, 
-48, -24, 24, 36, -36, 0, -39, 1288, 63, -19, -43, 24, 
-43, -24, 19, 34, -31, -2, -39, 1288, 63, -19, -43, 24, 
-43, -24, 19, 34, -31, -2, -39, 1283, 63, -14, -39, 24, 
-43, -24, 19, 34, -31, -2, -39, 1288, 63, -4, -34, 24, 
-43, -24, 19, 34, -31, -2, -39, 1288, 58, -4, -34, 19, 
-39, -24, 14, 31, -26, -4, -39, 1283, 53, -4, -29, 19, 
-39, -24, 14, 31, -26, -4, -39, 1283, 53, -4, -34, 14, 
-39, -24, 14, 31, -26, -4, -39, 1283, 53, -4, -39, 9, 
-19, -4, 14, 12, -17, 4, -48, 1288, 68, 14, -24, 19, 
29, 48, 19, -39, 4, 34, -73, 1327, 117, 63, 9, 43, 
112, 161, 48, -136, 31, 104, -136, 1395, 209, 161, 92, 102, 
263, 317, 53, -290, 104, 185, -287, 1356, 229, 248, 214, 204, 
444, 522, 78, -483, 183, 300, -502, 1180, 185, 322, 336, 341, 
668, 707, 39, -688, 314, 373, -741, 990, 131, 405, 468, 473, 
863, 907, 43, -885, 409, 475, -966, 780, 14, 473, 595, 614, 
1054, 1078, 24, -1066, 514, 551, -1239, 502, -214, 483, 717, 761, 
1268, 1141, -126, -1205, 697, 507, -1556, 151, -512, 419, 780, 873, 
1503, 1195, -307, -1349, 905, 444, -1898, -224, -834, 322, 849, 995, 
1742, 1268, -473, -1505, 1107, 397, -2215, -600, -1200, 200, 912, 1122, 
1893, 1302, -590, -1598, 1241, 356, -2440, -941, -1566, 58, 946, 1239, 
2000, 1356, -644, -1678, 1322, 356, -2571, -1239, -1844, -68, 966, 1342, 
2147, 1488, -658, -1817, 1403, 414, -2640, -1444, -2005, -141, 1024, 1464, 
2288, 1571, -717, -1930, 1503, 427, -2649, -1468, -2064, -190, 1073, 1542, 
2298, 1571, -727, -1934, 1512, 422, -2586, -1439, -2098, -253, 1063, 1556, 
2215, 1532, -683, -1873, 1449, 424, -2410, -1351, -2074, -307, 1024, 1532, 
2098, 1478, -619, -1788, 1359, 429, -2196, -1254, -2000, -341, 976, 1512, 
1981, 1361, -619, -1671, 1300, 370, -2044, -1151, -1917, -390, 917, 1468, 
1878, 1224, -653, -1551, 1266, 285, -1932, -1058, -1849, -419, 863, 1410, 
1830, 1093, -736, -1461, 1283, 178, -1805, -907, -1761, -419, 839, 1346, 
1737, 888, -849, -1312, 1293, 19, -1639, -712, -1629, -414, 771, 1239, 
1615, 668, -946, -1141, 1281, -139, -1493, -483, -1459, -380, 697, 1112, 
1503, 468, -1034, -985, 1268, -283, -1366, -287, -1342, -380, 600, 966, 
1371, 297, -1073, -834, 1222, -387, -1190, -117, -1259, -424, 448, 790, 
1224, 146, -1078, -685, 1151, -466, -1015, 53, -1146, -478, 297, 619, 
1068, 87, -980, -578, 1024, -446, -888, 204, -1010, -507, 185, 512, 
917, 68, -849, -492, 883, -390, -756, 385, -844, -468, 117, 419, 
795, 112, -683, -453, 739, -285, -600, 575, -639, -356, 97, 366, 
619, 122, -497, -370, 558, -187, -429, 751, -463, -263, 48, 287, 
370, 136, -234, -253, 302, -48, -268, 912, -297, -244, -48, 146, 
156, 97, -58, -126, 107, 19, -141, 1098, -131, -200, -117, 14, 
-29, -43, -14, 36, -7, -29, 14, 1239, -14, -151, -180, -107, 
-195, -136, 58, 165, -126, -39, 146, 1327, 68, -107, -214, -170, 
-312, -151, 161, 231, -236, 4, 214, 1405, 141, -82, -229, -219, 
-385, -161, 224, 273, -305, 31, 248, 1478, 219, -39, -229, -229, 
-424, -190, 234, 307, -329, 21, 307, 1537, 268, 14, -209, -224, 
-429, -195, 234, 312, -331, 19, 341, 1556, 283, 34, -200, -214, 
-439, -195, 244, 317, -341, 24, 341, 1561, 292, 34, -195, -224, 
-444, -185, 258, 314, -351, 36, 336, 1576, 302, 34, -195, -224, 
-444, -190, 253, 317, -348, 31, 331, 1586, 302, 29, -200, -234, 
-453, -195, 258, 324, -356, 31, 341, 1590, 312, 24, -209, -244, 
-463, -200, 263, 331, -363, 31, 351, 1595, 312, 24, -219, -248, 
-473, -204, 268, 339, -370, 31, 361, 1605, 317, 24, -224, -253, 
-483, -219, 263, 351, -373, 21, 370, 1615, 326, 24, -224, -258, 
-488, -219, 268, 353, -378, 24, 380, 1625, 341, 24, -224, -263, 
-502, -234, 268, 368, -385, 17, 400, 1634, 346, 29, -229, -273, 
-517, -244, 273, 380, -395, 14, 409, 1644, 351, 29, -234, -278, 
-531, -253, 278, 392, -405, 12, 424, 1659, 356, 29, -244, -287, 
-546, -258, 287, 402, -417, 14, 444, 1673, 356, 24, -253, -292, 
-561, -268, 292, 414, -427, 12, 453, 1678, 366, 19, -263, -307, 
-585, -278, 307, 431, -446, 14, 473, 1693, 380, 14, -273, -317, 
-605, -287, 317, 446, -461, 14, 492, 1712, 390, 14, -287, -336, 
-639, -312, 326, 475, -483, 7, 517, 1727, 400, 14, -302, -351, 
-653, -331, 322, 492, -488, -4, 546, 1751, 409, 4, -312, -370, 
-683, -351, 331, 517, -507, -9, 580, 1766, 419, 0, -326, -385, 
-707, -370, 336, 539, -522, -17, 610, 1786, 434, -4, -341, -390, 
-746, -385, 361, 566, -553, -12, 649, 1805, 453, -9, -356, -405, 
-790, -409, 380, 600, -585, -14, 683, 1839, 473, -14, -370, -424, 
-824, -434, 390, 629, -607, -21, 727, 1869, 488, -14, -390, -444, 
-863, -463, 400, 663, -631, -31, 771, 1893, 512, -19, -409, -468, 
-917, -492, 424, 705, -671, -34, 819, 1927, 531, -19, -429, -492, 
-961, -517, 444, 739, -702, -36, 858, 1966, 556, -24, -453, -517, 
-1005, -541, 463, 773, -734, -39, 902, 1995, 575, -29, -473, -541, 
-1054, -570, 483, 812, -768, -43, 951, 2020, 595, -34, -492, -570, 
-1102, -590, 512, 846, -807, -39, 1000, 2054, 634, -39, -512, -595, 
-1151, -605, 546, 878, -849, -29, 1039, 2093, 668, -39, -522, -619, 
-1195, -624, 570, 910, -883, -26, 1073, 2127, 692, -39, -541, -649, 
-1234, -639, 595, 936, -915, -21, 1117, 2161, 727, -24, -546, -663, 
-1268, -649, 619, 958, -944, -14, 1141, 2200, 766, -14, -561, -683, 
-1302, -653, 649, 978, -976, -2, 1166, 2235, 800, 0, -570, -692, 
-1327, -653, 673, 990, -1000, 9, 1176, 2254, 824, 14, -575, -697, 
-1337, -644, 692, 990, -1015, 24, 1176, 2274, 854, 34, -575, -707, 
-1337, -629, 707, 983, -1022, 39, 1176, 2288, 878, 53, -575, -707, 
-1337, -605, 732, 971, -1034, 63, 1171, 2303, 893, 73, -566, -702, 
-1317, -570, 746, 944, -1032, 87, 1141, 2308, 902, 92, -546, -683, 
-1283, -536, 746, 910, -1015, 104, 1098, 2308, 907, 117, -517, -658, 
-1224, -497, 727, 861, -976, 114, 1049, 2293, 907, 136, -488, -619, 
-1171, -448, 722, 810, -946, 136, 995, 2269, 897, 151, -453, -585, 
-1112, -395, 717, 753, -915, 161, 922, 2220, 873, 161, -424, -551, 
-1049, -336, 712, 692, -880, 187, 849, 2166, 844, 170, -395, -522, 
-956, -292, 663, 624, -810, 185, 775, 2122, 790, 180, -356, -483, 
-873, -244, 629, 558, -751, 192, 707, 2054, 751, 180, -322, -434, 
-795, -190, 605, 492, -700, 207, 624, 1981, 702, 185, -292, -400, 
-697, -146, 551, 422, -624, 202, 536, 1927, 644, 185, -253, -346, 
-610, -112, 497, 361, -553, 192, 463, 1869, 585, 180, -214, -302, 
-536, -73, 463, 305, -500, 195, 400, 1795, 531, 175, -180, -263, 
-463, -39, 424, 251, -444, 192, 326, 1722, 483, 165, -151, -219, 
-380, -14, 366, 197, -373, 175, 258, 1668, 419, 156, -126, -190, 
-302, 14, 317, 143, -309, 165, 195, 1625, 370, 141, -102, -151, 
-248, 34, 283, 107, -265, 158, 146, 1566, 331, 131, -87, -122, 
-195, 43, 239, 75, -217, 141, 102, 1507, 292, 117, -78, -97, 
-141, 58, 200, 41, -170, 129, 58, 1483, 253, 112, -58, -78, 
-102, 58, 161, 21, -131, 109, 24, 1459, 209, 107, -48, -53, 
-68, 63, 131, 2, -100, 97, 4, 1420, 185, 87, -34, -39, 
-48, 68, 117, -9, -82, 92, -19, 1381, 165, 78, -29, -29, 
-19, 73, 92, -26, -56, 82, -48, 1361, 141, 73, -19, -24, 
0, 73, 73, -36, -36, 73, -68, 1351, 122, 63, -14, -14, 
14, 78, 63, -46, -24, 70, -73, 1332, 107, 53, -14, -14, 
19, 78, 58, -48, -19, 68, -78, 1312, 97, 43, -14, -9, 
19, 78, 58, -48, -19, 68, -87, 1302, 82, 34, -14, -4, 
14, 73, 58, -43, -21, 65, -87, 1298, 73, 24, -14, -4, 
24, 68, 43, -46, -9, 56, -92, 1288, 63, 19, -14, -4, 
24, 63, 39, -43, -7, 51, -97, 1283, 53, 14, -14, -4, 
24, 58, 34, -41, -4, 46, -97, 1273, 48, 9, -24, -9, 
24, 53, 29, -39, -2, 41, -97, 1268, 39, 4, -24, -14, 
24, 48, 24, -36, 0, 36, -97, 1263, 34, 0, -24, -14, 
24, 48, 24, -36, 0, 36, -97, 1259, 34, -4, -19, -14, 
19, 43, 24, -31, -2, 34, -97, 1259, 34, -4, -19, -14, 
19, 39, 19, -29, 0, 29, -97, 1259, 34, -4, -19, -19, 
14, 39, 24, -26, -4, 31, -87, 1259, 29, -4, -24, -19, 
9, 34, 24, -21, -7, 29, -87, 1259, 24, -9, -34, -29, 
0, 29, 29, -14, -14, 29, -87, 1259, 24, -9, -34, -29, 
-9, 24, 34, -7, -21, 29, -82, 1259, 24, -9, -34, -29, 
-9, 19, 29, -4, -19, 24, -82, 1263, 19, -9, -29, -29, 
-14, 9, 24, 2, -19, 17, -78, 1263, 19, -9, -29, -39, 
-14, 4, 19, 4, -17, 12, -78, 1263, 19, -14, -29, -39, 
-19, 4, 24, 7, -21, 14, -73, 1263, 19, -14, -34, -39, 
-24, 0, 24, 12, -24, 12, -73, 1263, 19, -14, -34, -43, 
-24, 0, 24, 12, -24, 12, -73, 1263, 19, -14, -34, -43, 
-24, 0, 24, 12, -24, 12, -68, 1259, 14, -19, -34, -43, 
-29, 0, 29, 14, -29, 14, -68, 1259, 9, -29, -39, -48, 
-29, 0, 29, 14, -29, 14, -68, 1259, 9, -29, -39, -48, 
-29, 0, 29, 14, -29, 14, -68, 1259, 9, -29, -39, -48, 
-34, -4, 29, 19, -31, 12, -63, 1259, 9, -29, -34, -48, 
-34, -4, 29, 19, -31, 12, -53, 1259, 9, -24, -29, -43, 
-39, -4, 34, 21, -36, 14, -48, 1263, 14, -19, -29, -43, 
-39, 0, 39, 19, -39, 19, -43, 1268, 19, -19, -24, -43, 
-39, 4, 43, 17, -41, 24, -24, 1273, 29, -9, -14, -39, 
-34, 9, 43, 12, -39, 26, -19, 1278, 34, 0, -4, -29, 
-34, 14, 48, 9, -41, 31, -19, 1283, 43, 9, -4, -29, 
-24, 19, 43, 2, -34, 31, -19, 1283, 43, 19, -4, -24, 
-24, 24, 48, 0, -36, 36, -29, 1283, 48, 24, 0, -24, 
-9, 43, 53, -17, -31, 48, -34, 1288, 48, 29, 0, -14, 
9, 73, 63, -41, -26, 68, -39, 1288, 53, 34, 9, -4, 
34, 112, 78, -73, -21, 95, -48, 1283, 53, 48, 29, 19, 
43, 131, 87, -87, -21, 109, -82, 1268, 48, 48, 34, 24, 
53, 131, 78, -92, -12, 104, -112, 1259, 34, 43, 34, 24, 
63, 126, 63, -95, 0, 95, -122, 1244, 24, 34, 29, 29, 
68, 117, 48, -92, 9, 82, -122, 1224, 14, 29, 29, 34, 
73, 117, 43, -95, 14, 80, -122, 1220, 4, 24, 29, 34, 
68, 117, 48, -92, 9, 82, -122, 1220, 4, 19, 29, 34, 
43, 107, 63, -75, -9, 85, -112, 1215, 0, 19, 29, 34, 
19, 92, 73, -56, -26, 82, -107, 1215, 0, 19, 24, 29, 
-4, 68, 73, -31, -39, 70, -87, 1215, 0, 14, 19, 14, 
-19, 48, 68, -14, -43, 58, -78, 1220, 0, 9, 9, 9, 
-29, 24, 53, 2, -41, 39, -63, 1220, 0, 4, -4, -4, 
-34, 4, 39, 14, -36, 21, -58, 1220, -9, -4, -14, -19, 
-48, -19, 29, 34, -39, 4, -53, 1224, -14, -9, -29, -29, 
-53, -39, 14, 46, -34, -12, -48, 1224, -14, -14, -34, -39, 
-58, -39, 19, 48, -39, -9, -48, 1215, -19, -14, -39, -43, 
-58, -39, 19, 48, -39, -9, -48, 1215, -24, -14, -39, -48, 
-58, -39, 19, 48, -39, -9, -48, 1215, -24, -19, -43, -53, 
-53, -39, 14, 46, -34, -12, -48, 1215, -24, -19, -43, -53, 
-53, -43, 9, 48, -31, -17, -48, 1210, -24, -19, -39, -53, 
-53, -43, 9, 48, -31, -17, -48, 1210, -24, -19, -34, -53, 
-58, -43, 14, 51, -36, -14, -43, 1210, -24, -19, -34, -48, 
-63, -43, 19, 53, -41, -12, -39, 1200, -24, -19, -34, -43, 
-63, -43, 19, 53, -41, -12, -39, 1200, -19, -14, -34, -43, 
-63, -43, 19, 53, -41, -12, -39, 1200, -14, -14, -34, -43, 
-58, -43, 14, 51, -36, -14, -39, 1190, -14, -14, -29, -39, 
-58, -43, 14, 51, -36, -14, -39, 1185, -14, -14, -29, -39, 
-58, -48, 9, 53, -34, -19, -34, 1185, -24, -29, -39, -48, 
-39, -39, 0, 39, -19, -19, -43, 1185, -24, -24, -34, -48, 
-14, -14, 0, 14, -7, -7, -53, 1220, 19, 19, -14, -39, 
43, 73, 29, -58, 7, 51, -102, 1273, 107, 107, 48, 4, 
175, 224, 48, -200, 63, 136, -239, 1234, 131, 190, 156, 102, 
341, 419, 78, -380, 131, 248, -439, 1063, 82, 253, 263, 234, 
570, 600, 29, -585, 270, 314, -683, 883, 34, 331, 400, 366, 
771, 780, 9, -775, 380, 395, -912, 673, -78, 385, 522, 502, 
956, 941, -14, -949, 485, 463, -1176, 385, -302, 385, 629, 644, 
1166, 1010, -156, -1088, 661, 427, -1478, 58, -580, 326, 688, 756, 
1424, 1058, -366, -1241, 895, 346, -1839, -302, -902, 234, 751, 873, 
1683, 1132, -551, -1407, 1117, 290, -2171, -678, -1254, 122, 814, 990, 
1844, 1146, -697, -1495, 1271, 224, -2420, -1034, -1625, -19, 849, 1102, 
1971, 1180, -790, -1576, 1381, 195, -2571, -1327, -1912, -146, 868, 1200, 
2152, 1337, -814, -1744, 1483, 261, -2654, -1546, -2088, -219, 941, 1332, 
2308, 1444, -863, -1876, 1586, 290, -2679, -1595, -2161, -258, 1005, 1424, 
2337, 1459, -878, -1898, 1607, 290, -2630, -1576, -2200, -322, 1000, 1444, 
2283, 1434, -849, -1859, 1566, 292, -2479, -1507, -2191, -385, 971, 1439, 
2166, 1385, -780, -1776, 1473, 302, -2254, -1410, -2127, -419, 927, 1449, 
2054, 1302, -751, -1678, 1403, 275, -2103, -1312, -2054, -458, 873, 1420, 
1956, 1229, -727, -1593, 1342, 251, -2000, -1244, -1991, -483, 829, 1371, 
1908, 1132, -775, -1520, 1342, 178, -1873, -1112, -1908, -488, 814, 1327, 
1820, 927, -893, -1373, 1356, 17, -1708, -917, -1776, -483, 766, 1244, 
1703, 732, -971, -1217, 1337, -119, -1561, -692, -1605, -448, 712, 1141, 
1600, 556, -1044, -1078, 1322, -244, -1439, -502, -1478, -429, 629, 1015, 
1473, 390, -1083, -932, 1278, -346, -1268, -331, -1385, -448, 497, 868, 
1327, 219, -1107, -773, 1217, -444, -1093, -161, -1288, -522, 346, 702, 
1176, 146, -1029, -661, 1102, -441, -961, -4, -1156, -561, 234, 580, 
1024, 136, -888, -580, 956, -375, -824, 180, -985, -512, 175, 497, 
883, 170, -712, -527, 797, -270, -663, 380, -785, -405, 161, 448, 
702, 170, -531, -436, 617, -180, -483, 566, -610, -312, 122, 380, 
468, 165, -302, -317, 385, -68, -307, 732, -429, -278, 29, 248, 
234, 126, -107, -180, 170, 9, -165, 936, -219, -209, -39, 97, 
24, 4, -19, -14, 21, -7, -4, 1093, -82, -161, -112, -39, 
-175, -112, 63, 143, -119, -24, 151, 1190, -9, -126, -170, -117, 
-322, -156, 165, 239, -244, 4, 244, 1278, 58, -107, -200, -180, 
-405, -170, 234, 287, -319, 31, 278, 1361, 141, -63, -209, -204, 
-453, -200, 253, 326, -353, 26, 336, 1429, 200, -9, -204, -224, 
-458, -209, 248, 334, -353, 19, 375, 1459, 214, 9, -200, -224, 
-468, -214, 253, 341, -361, 19, 380, 1473, 229, 14, -195, -234, 
-473, -204, 268, 339, -370, 31, 375, 1488, 244, 14, -195, -234, 
-473, -214, 258, 344, -366, 21, 375, 1498, 244, 14, -195, -239, 
-488, -224, 263, 356, -375, 19, 390, 1503, 253, 9, -200, -244, 
-502, -229, 273, 366, -387, 21, 400, 1507, 253, 4, -209, -248, 
-512, -229, 283, 370, -397, 26, 409, 1517, 258, 4, -214, -253, 
-527, -239, 287, 383, -407, 24, 419, 1527, 263, 4, -219, -258, 
-531, -239, 292, 385, -412, 26, 429, 1537, 273, 4, -224, -263, 
-541, -253, 287, 397, -414, 17, 448, 1546, 278, 4, -229, -273, 
-556, -263, 292, 409, -424, 14, 458, 1551, 283, 0, -234, -283, 
-570, -273, 297, 422, -434, 12, 473, 1561, 292, 0, -244, -302, 
-590, -278, 312, 434, -451, 17, 492, 1576, 292, -4, -253, -312, 
-610, -287, 322, 448, -466, 17, 507, 1586, 297, -9, -263, -326, 
-634, -297, 336, 466, -485, 19, 531, 1605, 312, -14, -273, -331, 
-653, -307, 346, 480, -500, 19, 556, 1625, 322, -14, -283, -336, 
-683, -331, 351, 507, -517, 9, 585, 1644, 336, -14, -292, -341, 
-697, -351, 346, 524, -522, -2, 614, 1673, 351, -19, -302, -361, 
-732, -370, 361, 551, -546, -4, 644, 1688, 361, -19, -317, -375, 
-756, -390, 366, 573, -561, -12, 668, 1708, 375, -24, -331, -390, 
-795, -405, 390, 600, -592, -7, 707, 1722, 390, -29, -346, -414, 
-839, -424, 414, 631, -627, -4, 741, 1751, 405, -34, -361, -434, 
-873, -444, 429, 658, -651, -7, 785, 1781, 419, -34, -375, -448, 
-912, -473, 439, 692, -675, -17, 829, 1805, 444, -39, -390, -468, 
-966, -502, 463, 734, -714, -19, 878, 1839, 463, -39, -409, -492, 
-1015, -527, 488, 771, -751, -19, 922, 1878, 492, -43, -434, -517, 
-1063, -551, 512, 807, -788, -19, 971, 1908, 517, -48, -453, -546, 
-1112, -580, 531, 846, -822, -24, 1019, 1937, 536, -48, -473, -575, 
-1161, -600, 561, 880, -861, -19, 1068, 1976, 575, -48, -497, -595, 
-1210, -614, 595, 912, -902, -9, 1107, 2015, 610, -48, -517, -619, 
-1259, -634, 624, 946, -941, -4, 1141, 2049, 634, -48, -541, -649, 
-1302, -649, 653, 976, -978, 2, 1180, 2078, 663, -39, -546, -663, 
-1337, -658, 678, 997, -1007, 9, 1205, 2117, 702, -34, -561, -688, 
-1366, -663, 702, 1015, -1034, 19, 1234, 2156, 741, -19, -566, -702, 
-1390, -663, 727, 1027, -1058, 31, 1244, 2176, 766, -4, -566, -707, 
-1405, -658, 746, 1032, -1076, 43, 1244, 2196, 795, 14, -566, -717, 
-1410, -653, 756, 1032, -1083, 51, 1254, 2215, 819, 34, -566, -717, 
-1415, -634, 780, 1024, -1098, 73, 1254, 2230, 834, 53, -556, -712, 
-1400, -605, 795, 1002, -1098, 95, 1224, 2230, 844, 68, -546, -697, 
-1371, -570, 800, 971, -1085, 114, 1180, 2230, 849, 87, -527, -683, 
-1317, -527, 790, 922, -1054, 131, 1137, 2225, 854, 107, -497, -649, 
-1263, -478, 785, 871, -1024, 153, 1093, 2205, 849, 122, -463, -614, 
-1200, -429, 771, 814, -985, 170, 1019, 2152, 824, 131, -429, -580, 
-1137, -380, 756, 758, -946, 187, 946, 2098, 800, 141, -395, -546, 
-1044, -341, 702, 692, -873, 180, 873, 2064, 751, 151, -356, -502, 
-961, -292, 668, 627, -814, 187, 805, 2005, 712, 151, -322, -453, 
-883, -239, 644, 561, -763, 202, 722, 1932, 663, 156, -297, -424, 
-785, -195, 590, 490, -688, 197, 634, 1878, 605, 156, -268, -375, 
-697, -156, 541, 427, -619, 192, 556, 1820, 546, 151, -234, -331, 
-619, -112, 507, 366, -563, 197, 488, 1747, 492, 146, -200, -292, 
-536, -78, 458, 307, -497, 190, 414, 1668, 444, 141, -165, -244, 
-448, -53, 395, 251, -422, 170, 346, 1610, 380, 136, -136, -209, 
-366, -24, 341, 195, -353, 158, 273, 1566, 326, 122, -107, -170, 
-307, 0, 307, 153, -307, 153, 214, 1507, 283, 112, -82, -141, 
-253, 14, 268, 119, -261, 141, 170, 1444, 244, 97, -68, -112, 
-200, 34, 234, 82, -217, 134, 122, 1405, 204, 87, -48, -87, 
-161, 39, 200, 61, -180, 119, 78, 1371, 161, 78, -39, -63, 
-126, 48, 175, 39, -151, 112, 53, 1332, 131, 58, -24, -48, 
-97, 58, 156, 19, -126, 107, 29, 1288, 107, 43, -24, -34, 
-58, 63, 122, -2, -90, 92, 0, 1263, 82, 34, -24, -24, 
-39, 68, 107, -14, -73, 87, -24, 1249, 53, 24, -24, -14, 
-24, 73, 97, -24, -61, 85, -34, 1224, 29, 14, -24, -14, 
-14, 68, 82, -26, -48, 75, -39, 1205, 19, 4, -19, -4, 
-4, 68, 73, -31, -39, 70, -48, 1195, 4, 0, -14, 4, 
-4, 63, 68, -29, -36, 65, -48, 1190, -4, -4, -14, 4, 
4, 58, 53, -31, -24, 56, -53, 1180, -14, -9, -14, 4, 
4, 53, 48, -29, -21, 51, -58, 1176, -24, -14, -9, 4, 
4, 48, 43, -26, -19, 46, -58, 1166, -24, -19, -14, 4, 
4, 43, 39, -24, -17, 41, -58, 1166, -29, -24, -14, 4, 
4, 39, 34, -21, -14, 36, -58, 1166, -34, -29, -19, 4, 
4, 39, 34, -21, -14, 36, -58, 1161, -34, -34, -19, 4, 
0, 34, 34, -17, -17, 34, -58, 1161, -34, -34, -19, 4, 
0, 34, 34, -17, -17, 34, -63, 1156, -34, -39, -19, -4, 
-4, 39, 43, -17, -24, 41, -58, 1151, -34, -43, -19, -9, 
-9, 34, 43, -12, -26, 39, -58, 1146, -39, -48, -24, -19, 
-14, 29, 43, -7, -29, 36, -58, 1141, -43, -48, -24, -19, 
-19, 19, 39, 0, -29, 29, -53, 1141, -43, -48, -24, -19, 
-19, 14, 34, 2, -26, 24, -53, 1146, -43, -48, -24, -19, 
-24, 9, 34, 7, -29, 21, -48, 1146, -39, -48, -29, -29, 
-29, 4, 34, 12, -31, 19, -43, 1146, -39, -53, -29, -29, 
-34, 0, 34, 17, -34, 17, -39, 1151, -39, -48, -29, -29, 
-39, 0, 39, 19, -39, 19, -34, 1156, -39, -48, -29, -29, 
-39, 0, 39, 19, -39, 19, -29, 1151, -34, -48, -29, -29, 
-39, 0, 39, 19, -39, 19, -29, 1151, -29, -48, -29, -29, 
-39, 0, 39, 19, -39, 19, -29, 1151, -24, -48, -29, -29, 
-39, 0, 39, 19, -39, 19, -29, 1151, -19, -48, -29, -29, 
-43, 0, 43, 21, -43, 21, -24, 1156, -19, -43, -24, -29, 
-43, 4, 48, 19, -46, 26, -19, 1161, -14, -39, -19, -24, 
-48, 9, 58, 19, -53, 34, -14, 1171, -9, -39, -14, -24, 
-48, 14, 63, 17, -56, 39, 0, 1171, -4, -34, -9, -24, 
-43, 19, 63, 12, -53, 41, 0, 1171, -4, -24, -4, -19, 
-43, 24, 68, 9, -56, 46, 0, 1176, 4, -14, -4, -19, 
-34, 34, 68, 0, -51, 51, 0, 1176, 9, -9, -4, -14, 
-29, 43, 73, -7, -51, 58, -9, 1176, 19, -4, 4, -14, 
-9, 63, 73, -26, -41, 68, -14, 1180, 19, 0, 9, -4, 
9, 92, 82, -51, -36, 87, -29, 1180, 24, 4, 19, 4, 
39, 126, 87, -82, -24, 107, -48, 1171, 19, 19, 39, 29, 
53, 131, 78, -92, -12, 104, -73, 1151, 14, 19, 43, 34, 
63, 122, 58, -92, 2, 90, -92, 1141, 4, 14, 43, 34, 
68, 117, 48, -92, 9, 82, -102, 1132, -4, 4, 39, 34, 
63, 112, 48, -87, 7, 80, -102, 1122, -9, 0, 39, 34, 
58, 117, 58, -87, 0, 87, -102, 1122, -14, 0, 39, 34, 
48, 117, 68, -82, -9, 92, -102, 1122, -14, 0, 39, 34, 
24, 107, 82, -65, -29, 95, -92, 1117, -14, 0, 39, 34, 
-4, 92, 97, -43, -51, 95, -87, 1117, -9, 0, 34, 29, 
-29, 68, 97, -19, -63, 82, -68, 1117, -9, -4, 29, 14, 
-39, 48, 87, -4, -63, 68, -58, 1122, -9, -9, 14, 9, 
-48, 24, 73, 12, -61, 48, -48, 1122, -9, -14, -4, -4, 
-53, 4, 58, 24, -56, 31, -48, 1122, -19, -29, -14, -19, 
-63, -14, 48, 39, -56, 17, -43, 1122, -24, -39, -24, -29, 
-63, -29, 34, 46, -48, 2, -39, 1117, -24, -43, -24, -39, 
-68, -29, 39, 48, -53, 4, -39, 1107, -24, -43, -29, -39, 
-68, -24, 43, 46, -56, 9, -39, 1107, -24, -39, -24, -34, 
-73, -19, 53, 46, -63, 17, -39, 1107, -24, -39, -24, -34, 
-73, -19, 53, 46, -63, 17, -39, 1107, -24, -39, -19, -29, 
-73, -24, 48, 48, -61, 12, -39, 1102, -24, -39, -14, -24, 
-68, -29, 39, 48, -53, 4, -39, 1102, -24, -39, -14, -24, 
-63, -34, 29, 48, -46, -2, -39, 1102, -24, -39, -14, -24, 
-63, -34, 29, 48, -46, -2, -39, 1093, -24, -39, -19, -29, 
-63, -34, 29, 48, -46, -2, -39, 1093, -24, -34, -24, -34, 
-63, -34, 29, 48, -46, -2, -39, 1093, -24, -34, -24, -34, 
-58, -34, 24, 46, -41, -4, -39, 1088, -24, -34, -19, -29, 
-58, -29, 29, 43, -43, 0, -43, 1088, -19, -34, -14, -29, 
-58, -24, 34, 41, -46, 4, -48, 1088, -14, -34, -9, -29, 
-29, 0, 29, 14, -29, 14, -73, 1088, -4, -14, 4, -9, 
29, 58, 29, -43, 0, 43, -112, 1122, 39, 34, 39, 24, 
117, 170, 53, -143, 31, 112, -195, 1141, 112, 126, 117, 82, 
273, 326, 53, -300, 109, 190, -366, 1054, 112, 209, 234, 185, 
458, 527, 68, -492, 195, 297, -595, 844, 14, 253, 336, 312, 
688, 707, 19, -697, 334, 363, -849, 619, -92, 307, 448, 434, 
888, 854, -34, -871, 461, 409, -1088, 385, -234, 341, 561, 570, 
1083, 971, -112, -1027, 597, 429, -1376, 82, -488, 317, 668, 712, 
1312, 1029, -283, -1171, 797, 373, -1693, -253, -785, 248, 727, 824, 
1561, 1078, -483, -1320, 1022, 297, -2034, -614, -1107, 146, 790, 946, 
1800, 1151, -649, -1476, 1224, 251, -2327, -976, -1439, 24, 839, 1054, 
1952, 1185, -766, -1568, 1359, 209, -2527, -1302, -1771, -117, 858, 1151, 
2078, 1239, -839, -1659, 1459, 200, -2635, -1537, -2020, -239, 873, 1244, 
2244, 1371, -873, -1808, 1559, 248, -2679, -1678, -2152, -307, 927, 1356, 
2357, 1439, -917, -1898, 1637, 261, -2644, -1678, -2176, -336, 976, 1424, 
2337, 1424, -912, -1881, 1625, 256, -2537, -1625, -2176, -380, 966, 1429, 
2254, 1385, -868, -1820, 1561, 258, -2376, -1537, -2152, -434, 932, 1420, 
2137, 1332, -805, -1734, 1471, 263, -2176, -1439, -2078, -468, 888, 1415, 
2039, 1249, -790, -1644, 1415, 229, -2034, -1342, -1995, -502, 834, 1371, 
1956, 1146, -810, -1551, 1383, 168, -1932, -1254, -1927, -517, 785, 1312, 
1888, 1015, -873, -1451, 1381, 70, -1810, -1102, -1839, -517, 766, 1259, 
1776, 810, -966, -1293, 1371, -78, -1649, -907, -1708, -512, 702, 1161, 
1649, 629, -1019, -1139, 1334, -195, -1503, -688, -1537, -478, 634, 1054, 
1532, 468, -1063, -1000, 1298, -297, -1376, -502, -1420, -478, 541, 927, 
1395, 317, -1078, -856, 1237, -380, -1200, -331, -1332, -512, 414, 780, 
1244, 185, -1058, -714, 1151, -436, -1024, -161, -1215, -556, 287, 639, 
1088, 141, -946, -614, 1017, -402, -888, 0, -1063, -556, 200, 541, 
936, 136, -800, -536, 868, -331, -746, 190, -883, -488, 156, 458, 
780, 170, -610, -475, 695, -219, -585, 390, -678, -375, 141, 400, 
570, 170, -400, -370, 485, -114, -409, 575, -502, -283, 97, 317, 
322, 161, -161, -241, 241, 0, -239, 741, -322, -248, 0, 175, 
107, 97, -9, -102, 58, 43, -102, 932, -141, -190, -68, 43, 
-87, -43, 43, 65, -65, 0, 53, 1073, -34, -151, -136, -78, 
-263, -136, 126, 200, -195, -4, 185, 1161, 39, -117, -175, -141, 
-380, -156, 224, 268, -302, 34, 253, 1239, 102, -97, -190, -190, 
-453, -170, 283, 312, -368, 56, 287, 1312, 170, -58, -190, -200, 
-492, -200, 292, 346, -392, 46, 341, 1366, 209, -14, -180, -209, 
-497, -204, 292, 351, -395, 43, 370, 1381, 214, -4, -180, -214, 
-502, -204, 297, 353, -400, 46, 370, 1385, 229, -4, -175, -224, 
-502, -195, 307, 348, -405, 56, 366, 1400, 244, -4, -175, -224, 
-502, -204, 297, 353, -400, 46, 366, 1415, 244, -4, -175, -224, 
-512, -214, 297, 363, -405, 41, 380, 1424, 253, -4, -180, -224, 
-522, -219, 302, 370, -412, 41, 390, 1429, 258, -4, -190, -229, 
-531, -224, 307, 378, -419, 41, 400, 1439, 268, -4, -195, -234, 
-546, -239, 307, 392, -427, 34, 409, 1449, 273, -4, -200, -244, 
-556, -239, 317, 397, -436, 39, 419, 1459, 283, -4, -204, -253, 
-570, -253, 317, 412, -444, 31, 444, 1468, 287, -4, -209, -263, 
-585, -263, 322, 424, -453, 29, 458, 1478, 292, -9, -214, -268, 
-605, -273, 331, 439, -468, 29, 473, 1493, 302, -9, -224, -283, 
-624, -278, 346, 451, -485, 34, 492, 1507, 307, -14, -234, -292, 
-639, -287, 351, 463, -495, 31, 507, 1517, 317, -19, -244, -307, 
-663, -297, 366, 480, -514, 34, 531, 1537, 331, -24, -253, -317, 
-683, -307, 375, 495, -529, 34, 556, 1556, 341, -24, -263, -326, 
-717, -331, 385, 524, -551, 26, 585, 1571, 351, -24, -273, -331, 
-736, -351, 385, 544, -561, 17, 614, 1600, 366, -24, -273, -341, 
-771, -370, 400, 570, -585, 14, 649, 1620, 380, -19, -278, -346, 
-795, -385, 409, 590, -602, 12, 678, 1639, 395, -24, -302, -370, 
-834, -395, 439, 614, -636, 21, 717, 1659, 414, -29, -326, -405, 
-888, -414, 473, 651, -680, 29, 756, 1698, 434, -34, -341, -424, 
-932, -434, 497, 683, -714, 31, 805, 1732, 448, -34, -361, -444, 
-971, -468, 502, 719, -736, 17, 849, 1756, 473, -39, -380, -468, 
-1024, -502, 522, 763, -773, 9, 897, 1790, 492, -39, -400, -492, 
-1073, -527, 546, 800, -810, 9, 941, 1830, 527, -39, -419, -517, 
-1122, -551, 570, 836, -846, 9, 990, 1859, 556, -39, -434, -541, 
-1171, -580, 590, 875, -880, 4, 1039, 1888, 575, -39, -453, -566, 
-1220, -600, 619, 910, -919, 9, 1088, 1927, 614, -39, -473, -585, 
-1268, -614, 653, 941, -961, 19, 1127, 1966, 649, -34, -488, -605, 
-1312, -634, 678, 973, -995, 21, 1161, 2000, 673, -29, -512, -629, 
-1351, -644, 707, 997, -1029, 31, 1195, 2030, 702, -14, -517, -644, 
-1385, -649, 736, 1017, -1061, 43, 1210, 2064, 736, -4, -531, -663, 
-1415, -653, 761, 1034, -1088, 53, 1234, 2103, 771, 9, -531, -668, 
-1434, -653, 780, 1044, -1107, 63, 1244, 2127, 795, 24, -527, -668, 
-1439, -639, 800, 1039, -1119, 80, 1239, 2147, 824, 39, -527, -678, 
-1434, -619, 814, 1027, -1124, 97, 1234, 2161, 849, 53, -527, -678, 
-1429, -595, 834, 1012, -1132, 119, 1224, 2166, 858, 73, -517, -673, 
-1405, -561, 844, 983, -1124, 141, 1190, 2161, 863, 92, -497, -653, 
-1371, -522, 849, 946, -1110, 163, 1137, 2156, 863, 117, -468, -629, 
-1312, -478, 834, 895, -1073, 178, 1078, 2137, 858, 136, -439, -590, 
-1244, -429, 814, 836, -1029, 192, 1024, 2108, 839, 151, -405, -556, 
-1171, -375, 795, 773, -983, 209, 951, 2054, 805, 161, -375, -522, 
-1107, -326, 780, 717, -944, 226, 873, 1995, 780, 165, -346, -488, 
-1015, -292, 722, 653, -868, 214, 795, 1947, 732, 170, -307, -444, 
-927, -244, 683, 585, -805, 219, 727, 1873, 683, 161, -278, -405, 
-844, -190, 653, 517, -749, 231, 644, 1795, 624, 156, -253, -380, 
-746, -146, 600, 446, -673, 226, 556, 1742, 566, 156, -219, -317, 
-658, -112, 546, 385, -602, 217, 483, 1683, 507, 151, -185, -263, 
-580, -78, 502, 329, -541, 212, 419, 1610, 453, 146, -146, -219, 
-502, -48, 453, 275, -478, 202, 346, 1537, 405, 136, -112, -170, 
-419, -24, 395, 222, -407, 185, 278, 1483, 341, 126, -82, -141, 
-341, 4, 346, 168, -344, 175, 214, 1439, 292, 112, -53, -102, 
-287, 29, 317, 129, -302, 173, 165, 1381, 244, 107, -34, -73, 
-234, 43, 278, 95, -256, 161, 122, 1322, 195, 97, -19, -48, 
-180, 63, 244, 58, -212, 153, 73, 1288, 165, 87, -4, -34, 
-141, 68, 209, 36, -175, 139, 34, 1254, 131, 78, 0, -14, 
-107, 73, 180, 17, -143, 126, 14, 1215, 102, 53, 9, -4, 
-87, 78, 165, 4, -126, 122, -9, 1176, 78, 39, 9, 0, 
-58, 82, 141, -12, -100, 112, -39, 1156, 53, 29, 9, 4, 
-39, 82, 122, -21, -80, 102, -58, 1146, 34, 14, 4, 14, 
-24, 82, 107, -29, -65, 95, -63, 1127, 19, 4, 0, 14, 
-19, 78, 97, -29, -58, 87, -68, 1107, 9, -4, -4, 19, 
-14, 78, 92, -31, -53, 85, -73, 1102, -4, -9, -4, 24, 
-14, 73, 87, -29, -51, 80, -68, 1102, -14, -14, -4, 24, 
-4, 68, 73, -31, -39, 70, -73, 1093, -19, -14, -4, 24, 
-4, 63, 68, -29, -36, 65, -78, 1088, -24, -14, -4, 24, 
-4, 63, 68, -29, -36, 65, -78, 1078, -24, -19, -14, 19, 
-4, 63, 68, -29, -36, 65, -78, 1073, -29, -24, -14, 14, 
-4, 58, 63, -26, -34, 61, -78, 1068, -39, -29, -19, 14, 
-4, 58, 63, -26, -34, 61, -78, 1063, -43, -34, -19, 14, 
-9, 53, 63, -21, -36, 58, -78, 1063, -43, -34, -24, 14, 
-9, 48, 58, -19, -34, 53, -78, 1063, -43, -34, -29, 9, 
-14, 48, 63, -17, -39, 56, -68, 1063, -43, -34, -29, 9, 
-19, 43, 63, -12, -41, 53, -68, 1063, -43, -39, -34, 0, 
-24, 34, 58, -4, -41, 46, -68, 1063, -43, -39, -34, 0, 
-29, 24, 53, 2, -41, 39, -63, 1063, -43, -39, -34, 0, 
-24, 24, 48, 0, -36, 36, -63, 1068, -43, -39, -34, 0, 
-24, 14, 39, 4, -31, 26, -58, 1068, -39, -39, -39, -9, 
-29, 9, 39, 9, -34, 24, -53, 1068, -39, -43, -43, -9, 
-34, 9, 43, 12, -39, 26, -53, 1068, -39, -48, -48, -9, 
-29, 9, 39, 9, -34, 24, -48, 1063, -39, -48, -48, -9, 
-29, 9, 39, 9, -34, 24, -48, 1063, -39, -48, -48, -9, 
-29, 9, 39, 9, -34, 24, -48, 1063, -34, -48, -48, -9, 
-29, 9, 39, 9, -34, 24, -48, 1063, -29, -48, -48, -9, 
-29, 9, 39, 9, -34, 24, -43, 1063, -29, -43, -48, -9, 
-29, 14, 43, 7, -36, 29, -39, 1068, -19, -39, -43, -4, 
-29, 19, 48, 4, -39, 34, -34, 1073, -14, -39, -43, -4, 
-29, 24, 53, 2, -41, 39, -19, 1073, -4, -34, -39, -4, 
-24, 29, 53, -2, -39, 41, -14, 1073, -4, -29, -34, 0, 
-24, 34, 58, -4, -41, 46, -9, 1078, 4, -24, -34, 0, 
-14, 34, 48, -9, -31, 41, -9, 1078, 4, -19, -34, 4, 
-9, 34, 43, -12, -26, 39, -19, 1078, 9, -14, -24, 4, 
9, 53, 43, -31, -17, 48, -24, 1083, 9, -9, -19, 19, 
29, 82, 53, -56, -12, 68, -39, 1083, 14, -4, -9, 34, 
53, 122, 68, -87, -7, 95, -58, 1083, 14, 9, 14, 58, 
63, 131, 68, -97, -2, 100, -82, 1073, 14, 9, 24, 63, 
73, 122, 48, -97, 12, 85, -102, 1063, 4, 4, 24, 63, 
78, 117, 39, -97, 19, 78, -112, 1054, -4, -4, 19, 63, 
78, 107, 29, -92, 24, 68, -112, 1034, -14, -9, 19, 63, 
78, 107, 29, -92, 24, 68, -112, 1024, -24, -9, 19, 63, 
68, 102, 34, -85, 17, 68, -112, 1024, -24, -9, 19, 63, 
43, 87, 43, -65, 0, 65, -102, 1019, -24, -9, 19, 63, 
19, 73, 53, -46, -17, 63, -97, 1019, -19, -9, 4, 58, 
0, 48, 48, -24, -24, 48, -78, 1019, -19, -14, -9, 43, 
-9, 34, 43, -12, -26, 39, -68, 1019, -19, -19, -9, 39, 
-19, 14, 34, 2, -26, 24, -58, 1015, -19, -24, -14, 24, 
-29, -4, 24, 17, -26, 9, -58, 1015, -29, -34, -24, 14, 
-43, -24, 19, 34, -31, -2, -53, 1015, -34, -39, -34, 9, 
-43, -39, 4, 41, -24, -17, -48, 1015, -34, -43, -34, 0, 
-48, -39, 9, 43, -29, -14, -48, 1010, -34, -43, -39, 0, 
-48, -39, 9, 43, -29, -14, -48, 1010, -34, -39, -39, 0, 
-53, -39, 14, 46, -34, -12, -48, 1010, -34, -39, -43, -4, 
-53, -39, 14, 46, -34, -12, -48, 1010, -29, -34, -39, 0, 
-53, -43, 9, 48, -31, -17, -48, 1005, -24, -29, -34, 4, 
-53, -43, 9, 48, -31, -17, -48, 1005, -24, -29, -34, 4, 
-53, -43, 9, 48, -31, -17, -48, 1005, -24, -29, -34, 4, 
-53, -39, 14, 46, -34, -12, -48, 995, -24, -29, -34, 4, 
-53, -34, 19, 43, -36, -7, -48, 995, -24, -24, -34, 4, 
-53, -34, 19, 43, -36, -7, -48, 995, -24, -24, -34, 4, 
-48, -34, 14, 41, -31, -9, -48, 990, -24, -24, -29, 9, 
-48, -34, 14, 41, -31, -9, -43, 990, -24, -29, -29, 9, 
-48, -34, 14, 41, -31, -9, -39, 990, -24, -34, -29, 9, 
-34, -29, 4, 31, -19, -12, -43, 990, -14, -19, -19, 9, 
9, 9, 0, -9, 4, 4, -63, 1024, 29, 24, 9, 24, 
87, 122, 34, -104, 26, 78, -122, 1093, 122, 117, 78, 82, 
234, 278, 43, -256, 95, 161, -268, 1054, 141, 200, 185, 185, 
419, 478, 58, -448, 180, 268, -488, 868, 92, 268, 312, 322, 
649, 658, 9, -653, 319, 334, -732, 668, 34, 346, 448, 453, 
863, 849, -14, -856, 439, 417, -961, 439, -97, 400, 561, 590, 
1073, 1010, -63, -1041, 568, 473, -1239, 141, -341, 395, 668, 732, 
1302, 1078, -224, -1190, 763, 427, -1561, -204, -629, 326, 727, 844, 
1551, 1137, -414, -1344, 983, 361, -1908, -575, -941, 224, 790, 966, 
1800, 1215, -585, -1507, 1193, 314, -2235, -956, -1302, 102, 854, 1093, 
1961, 1254, -707, -1607, 1334, 273, -2469, -1302, -1664, -39, 888, 1210, 
2083, 1307, -775, -1695, 1429, 265, -2596, -1590, -1932, -165, 907, 1307, 
2244, 1439, -805, -1842, 1525, 317, -2659, -1786, -2083, -239, 966, 1424, 
2386, 1527, -858, -1956, 1622, 334, -2669, -1805, -2137, -273, 1019, 1507, 
2396, 1532, -863, -1964, 1629, 334, -2605, -1771, -2166, -322, 1015, 1527, 
2313, 1493, -819, -1903, 1566, 336, -2430, -1688, -2147, -375, 980, 1517, 
2196, 1439, -756, -1817, 1476, 341, -2215, -1595, -2078, -409, 936, 1512, 
2074, 1351, -722, -1712, 1398, 314, -2074, -1498, -2010, -458, 883, 1483, 
1966, 1244, -722, -1605, 1344, 261, -1971, -1410, -1956, -488, 834, 1439, 
1917, 1117, -800, -1517, 1359, 158, -1844, -1263, -1869, -488, 819, 1390, 
1825, 917, -907, -1371, 1366, 4, -1678, -1073, -1737, -483, 761, 1298, 
1693, 722, -971, -1207, 1332, -124, -1532, -849, -1571, -444, 697, 1180, 
1571, 546, -1024, -1058, 1298, -239, -1405, -658, -1459, -439, 610, 1044, 
1434, 375, -1058, -905, 1246, -341, -1220, -488, -1376, -478, 468, 888, 
1283, 224, -1058, -753, 1171, -417, -1034, -317, -1263, -527, 326, 736, 
1107, 165, -941, -636, 1024, -387, -902, -151, -1117, -541, 224, 629, 
936, 146, -790, -541, 863, -322, -766, 43, -941, -488, 165, 536, 
805, 180, -624, -492, 714, -222, -600, 244, -732, -370, 156, 483, 
619, 180, -439, -400, 529, -129, -419, 429, -551, -273, 117, 405, 
370, 180, -190, -275, 280, -4, -248, 595, -370, -239, 19, 258, 
156, 126, -29, -141, 92, 48, -112, 785, -190, -180, -48, 122, 
-34, -14, 19, 24, -26, 2, 43, 932, -78, -141, -122, 0, 
-204, -107, 97, 156, -151, -4, 175, 1024, 0, -107, -165, -63, 
-336, -131, 204, 234, -270, 36, 244, 1107, 73, -87, -180, -117, 
-424, -151, 273, 287, -348, 61, 278, 1185, 151, -48, -180, -131, 
-463, -180, 283, 322, -373, 51, 341, 1244, 200, 4, -165, -136, 
-468, -185, 283, 326, -375, 48, 380, 1263, 214, 24, -161, -136, 
-473, -185, 287, 329, -380, 51, 380, 1268, 229, 24, -156, -141, 
-473, -175, 297, 324, -385, 61, 375, 1283, 244, 24, -156, -136, 
-473, -185, 287, 329, -380, 51, 375, 1293, 244, 24, -156, -141, 
-483, -195, 287, 339, -385, 46, 390, 1298, 253, 24, -161, -146, 
-492, -200, 292, 346, -392, 46, 400, 1302, 253, 24, -165, -151, 
-502, -204, 297, 353, -400, 46, 409, 1312, 258, 24, -165, -156, 
-517, -214, 302, 366, -409, 43, 419, 1322, 263, 24, -170, -161, 
-527, -209, 317, 368, -422, 53, 429, 1332, 273, 24, -175, -165, 
-546, -219, 326, 383, -436, 53, 448, 1342, 278, 24, -180, -175, 
-566, -224, 341, 395, -453, 58, 458, 1351, 283, 19, -185, -180, 
-580, -234, 346, 407, -463, 56, 473, 1366, 292, 19, -195, -190, 
-595, -239, 356, 417, -475, 58, 492, 1381, 297, 14, -204, -195, 
-610, -248, 361, 429, -485, 56, 507, 1390, 307, 9, -209, -204, 
-634, -258, 375, 446, -505, 58, 531, 1410, 322, 4, -214, -209, 
-653, -263, 390, 458, -522, 63, 551, 1429, 336, 9, -224, -219, 
-688, -283, 405, 485, -546, 61, 575, 1444, 351, 14, -234, -224, 
-707, -297, 409, 502, -558, 56, 605, 1468, 361, 9, -244, -244, 
-741, -312, 429, 527, -585, 58, 639, 1483, 370, 9, -258, -258, 
-766, -331, 434, 549, -600, 51, 668, 1503, 385, 4, -263, -263, 
-805, -346, 458, 575, -631, 56, 707, 1522, 405, 0, -268, -278, 
-849, -366, 483, 607, -666, 58, 741, 1551, 424, -4, -292, -297, 
-883, -385, 497, 634, -690, 56, 785, 1576, 439, -4, -322, -317, 
-922, -414, 507, 668, -714, 46, 829, 1600, 463, -14, -341, -341, 
-976, -444, 531, 710, -753, 43, 878, 1634, 483, -19, -361, -366, 
-1024, -468, 556, 746, -790, 43, 922, 1678, 512, -24, -385, -390, 
-1073, -492, 580, 783, -827, 43, 971, 1712, 536, -29, -405, -414, 
-1122, -522, 600, 822, -861, 39, 1019, 1742, 556, -24, -424, -439, 
-1171, -541, 629, 856, -900, 43, 1068, 1781, 595, -19, -444, -458, 
-1220, -556, 663, 888, -941, 53, 1107, 1815, 629, -19, -458, -483, 
-1263, -575, 688, 919, -976, 56, 1141, 1844, 653, -19, -483, -512, 
-1302, -590, 712, 946, -1007, 61, 1180, 1869, 678, -14, -488, -527, 
-1337, -600, 736, 968, -1037, 68, 1200, 1898, 707, -14, -502, -546, 
-1361, -605, 756, 983, -1058, 75, 1224, 1932, 741, 0, -507, -556, 
-1376, -605, 771, 990, -1073, 82, 1234, 1952, 766, 14, -507, -561, 
-1385, -600, 785, 993, -1085, 92, 1234, 1976, 795, 34, -507, -570, 
-1385, -590, 795, 988, -1090, 102, 1234, 1995, 819, 53, -507, -570, 
-1385, -566, 819, 976, -1102, 126, 1224, 2005, 834, 68, -497, -566, 
-1366, -531, 834, 949, -1100, 151, 1190, 2005, 844, 82, -478, -546, 
-1332, -488, 844, 910, -1088, 178, 1141, 2000, 849, 107, -448, -522, 
-1273, -439, 834, 856, -1054, 197, 1088, 1981, 849, 126, -419, -483, 
-1210, -390, 819, 800, -1015, 214, 1034, 1952, 829, 141, -385, -448, 
-1141, -336, 805, 739, -973, 234, 961, 1898, 795, 151, -356, -414, 
-1078, -268, 810, 673, -944, 270, 888, 1844, 771, 156, -326, -380, 
-985, -214, 771, 600, -878, 278, 814, 1800, 722, 161, -287, -336, 
-907, -175, 732, 541, -819, 278, 746, 1737, 683, 161, -248, -283, 
-834, -131, 702, 483, -768, 285, 663, 1668, 634, 165, -214, -244, 
-736, -87, 649, 412, -692, 280, 575, 1615, 575, 170, -180, -185, 
-649, -53, 595, 351, -622, 270, 502, 1556, 517, 170, -146, -136, 
-570, -14, 556, 292, -563, 270, 439, 1488, 463, 170, -112, -97, 
-492, 19, 512, 236, -502, 265, 366, 1420, 414, 165, -82, -53, 
-409, 43, 453, 183, -431, 248, 297, 1366, 351, 161, -48, -19, 
-331, 73, 405, 129, -368, 239, 234, 1322, 302, 151, -14, 24, 
-278, 97, 375, 90, -326, 236, 185, 1263, 268, 146, 4, 53, 
-224, 112, 336, 56, -280, 224, 141, 1205, 234, 136, 19, 78, 
-170, 131, 302, 19, -236, 217, 92, 1171, 195, 126, 39, 97, 
-131, 136, 268, -2, -200, 202, 53, 1137, 151, 117, 48, 122, 
-97, 146, 244, -24, -170, 195, 34, 1102, 122, 97, 58, 136, 
-78, 156, 234, -39, -156, 195, 9, 1068, 97, 87, 58, 146, 
-48, 161, 209, -56, -129, 185, -19, 1049, 78, 82, 63, 151, 
-29, 161, 190, -65, -109, 175, -39, 1039, 63, 73, 63, 161, 
-14, 161, 175, -73, -95, 168, -43, 1019, 48, 68, 68, 161, 
-9, 156, 165, -73, -87, 161, -48, 1000, 39, 63, 73, 165, 
-4, 161, 165, -78, -85, 163, -58, 990, 24, 58, 73, 170, 
-4, 161, 165, -78, -85, 163, -58, 985, 14, 53, 73, 170, 
4, 156, 151, -80, -73, 153, -58, 976, 4, 48, 73, 170, 
4, 151, 146, -78, -70, 148, -58, 971, -4, 43, 73, 170, 
0, 151, 151, -75, -75, 151, -58, 966, -4, 39, 63, 170, 
-4, 151, 156, -73, -80, 153, -58, 966, -9, 34, 63, 170, 
-4, 146, 151, -70, -78, 148, -58, 961, -14, 29, 58, 170, 
-4, 146, 151, -70, -78, 148, -58, 956, -14, 24, 58, 170, 
-9, 141, 151, -65, -80, 146, -58, 956, -14, 24, 58, 170, 
-9, 136, 146, -63, -78, 141, -58, 956, -14, 24, 58, 165, 
-9, 136, 146, -63, -78, 141, -48, 956, -9, 29, 58, 170, 
-9, 131, 141, -61, -75, 136, -48, 956, -4, 29, 53, 165, 
-14, 126, 141, -56, -78, 134, -48, 956, -4, 29, 53, 165, 
-19, 122, 141, -51, -80, 131, -43, 956, -4, 29, 53, 165, 
-19, 126, 146, -53, -82, 136, -43, 961, -4, 24, 48, 170, 
-24, 126, 151, -51, -87, 139, -39, 961, 0, 19, 39, 165, 
-24, 122, 146, -48, -85, 134, -39, 961, 0, 14, 39, 165, 
-34, 117, 151, -41, -92, 134, -34, 961, 0, 14, 34, 165, 
-34, 117, 151, -41, -92, 134, -29, 961, 0, 14, 34, 161, 
-39, 117, 156, -39, -97, 136, -29, 966, 0, 19, 39, 156, 
-43, 117, 161, -36, -102, 139, -29, 966, 4, 19, 39, 156, 
-48, 117, 165, -34, -107, 141, -29, 966, 9, 19, 39, 156, 
-48, 117, 165, -34, -107, 141, -24, 966, 14, 19, 39, 156, 
-48, 117, 165, -34, -107, 141, -14, 966, 19, 24, 34, 156, 
-48, 122, 170, -36, -109, 146, -9, 971, 24, 29, 34, 161, 
-48, 126, 175, -39, -112, 151, -4, 976, 29, 29, 34, 161, 
-48, 131, 180, -41, -114, 156, 9, 976, 34, 29, 39, 161, 
-43, 136, 180, -46, -112, 158, 9, 976, 34, 29, 43, 165, 
-39, 141, 180, -51, -109, 161, 4, 980, 43, 34, 43, 165, 
-24, 146, 170, -61, -97, 158, 0, 980, 43, 39, 43, 170, 
-19, 151, 170, -65, -95, 161, -9, 980, 48, 43, 53, 170, 
0, 170, 170, -85, -85, 170, -14, 985, 48, 48, 58, 180, 
14, 200, 185, -107, -85, 192, -29, 985, 53, 48, 58, 185, 
34, 239, 204, -136, -85, 222, -48, 980, 53, 58, 68, 204, 
39, 248, 209, -143, -85, 229, -73, 966, 48, 58, 73, 209, 
43, 239, 195, -141, -75, 217, -92, 956, 34, 53, 73, 209, 
48, 229, 180, -139, -65, 204, -102, 946, 24, 43, 73, 214, 
48, 214, 165, -131, -58, 190, -102, 932, 14, 39, 78, 219, 
48, 209, 161, -129, -56, 185, -97, 927, 4, 39, 78, 219, 
39, 204, 165, -122, -63, 185, -92, 927, 4, 39, 78, 219, 
14, 195, 180, -104, -82, 187, -82, 922, 4, 39, 73, 219, 
-9, 180, 190, -85, -100, 185, -78, 922, 9, 39, 63, 214, 
-24, 151, 175, -63, -100, 163, -58, 922, 14, 34, 58, 195, 
-29, 126, 156, -48, -92, 141, -48, 927, 19, 29, 48, 185, 
-39, 102, 141, -31, -90, 122, -39, 927, 19, 24, 34, 170, 
-43, 82, 126, -19, -85, 104, -39, 927, 9, 14, 24, 156, 
-53, 68, 122, -7, -87, 95, -39, 927, 4, 4, 14, 146, 
-53, 58, 112, -2, -82, 85, -39, 922, 4, -4, 14, 136, 
-58, 58, 117, 0, -87, 87, -39, 912, 0, -4, 9, 136, 
-58, 58, 117, 0, -87, 87, -39, 912, -4, -4, 9, 136, 
-58, 63, 122, -2, -90, 92, -39, 912, -4, -9, 4, 131, 
-53, 68, 122, -7, -87, 95, -39, 912, -4, -9, 4, 131, 
-53, 63, 117, -4, -85, 90, -39, 907, -4, -9, 0, 131, 
-53, 63, 117, -4, -85, 90, -39, 907, -4, -9, -4, 131, 
-53, 63, 117, -4, -85, 90, -39, 907, -4, -9, -4, 131, 
-53, 63, 117, -4, -85, 90, -39, 897, -4, -9, -4, 131, 
-53, 63, 117, -4, -85, 90, -39, 897, -4, -4, -4, 131, 
-53, 63, 117, -4, -85, 90, -39, 897, -4, -4, -4, 131, 
-48, 63, 112, -7, -80, 87, -39, 893, -4, -4, 4, 136, 
-48, 63, 112, -7, -80, 87, -39, 893, -4, -4, 9, 136, 
-39, 73, 112, -17, -75, 92, -43, 907, 14, 0, 9, 136, 
-9, 97, 107, -43, -58, 102, -63, 922, 43, 24, 24, 146, 
63, 170, 107, -117, -21, 139, -112, 956, 97, 92, 82, 185, 
170, 307, 136, -239, 17, 222, -200, 1010, 195, 204, 185, 258, 
341, 478, 136, -409, 102, 307, -366, 961, 209, 312, 317, 366, 
546, 692, 146, -619, 200, 419, -595, 780, 151, 400, 448, 507, 
775, 878, 102, -827, 336, 490, -844, 580, 82, 473, 585, 649, 
976, 1063, 87, -1019, 444, 575, -1078, 351, -48, 522, 707, 795, 
1171, 1234, 63, -1202, 553, 649, -1356, 29, -317, 502, 814, 951, 
1390, 1312, -78, -1351, 734, 617, -1673, -331, -639, 424, 873, 1078, 
1600, 1366, -234, -1483, 917, 566, -1995, -707, -961, 322, 936, 1205, 
1810, 1444, -366, -1627, 1088, 539, -2288, -1098, -1312, 200, 1000, 1332, 
1947, 1478, -468, -1712, 1207, 505, -2483, -1429, -1664, 58, 1034, 1444, 
2049, 1532, -517, -1790, 1283, 507, -2581, -1698, -1932, -68, 1054, 1542, 
2166, 1644, -522, -1905, 1344, 561, -2625, -1869, -2069, -151, 1102, 1644, 
2259, 1708, -551, -1983, 1405, 578, -2610, -1869, -2103, -200, 1141, 1708, 
2239, 1683, -556, -1961, 1398, 563, -2527, -1820, -2122, -253, 1117, 1712, 
2137, 1620, -517, -1878, 1327, 551, -2342, -1722, -2093, -307, 1068, 1693, 
2020, 1527, -492, -1773, 1256, 517, -2127, -1610, -2010, -341, 1024, 1673, 
1908, 1400, -507, -1654, 1207, 446, -1986, -1498, -1917, -380, 971, 1615, 
1810, 1259, -551, -1534, 1180, 353, -1873, -1381, -1830, -390, 917, 1537, 
1761, 1093, -668, -1427, 1215, 212, -1737, -1200, -1722, -380, 893, 1464, 
1668, 863, -805, -1266, 1237, 29, -1571, -1005, -1600, -385, 805, 1337, 
1546, 644, -902, -1095, 1224, -129, -1424, -780, -1439, -361, 712, 1190, 
1429, 468, -961, -949, 1195, -246, -1298, -590, -1322, -385, 605, 1044, 
1288, 302, -985, -795, 1137, -341, -1122, -419, -1239, -448, 448, 878, 
1137, 165, -971, -651, 1054, -402, -946, -248, -1127, -483, 307, 717, 
980, 126, -854, -553, 917, -363, -814, -92, -980, -483, 204, 600, 
824, 117, -707, -470, 766, -295, -678, 82, -805, -444, 131, 492, 
678, 151, -527, -414, 602, -187, -517, 273, -600, -346, 102, 419, 
483, 126, -356, -305, 419, -114, -351, 448, -439, -263, 39, 322, 
234, 97, -136, -165, 185, -19, -190, 605, -273, -239, -78, 161, 
48, 53, 4, -51, 21, 29, -73, 761, -126, -195, -131, 43, 
-112, -73, 39, 92, -75, -17, 63, 868, -53, -170, -190, -58, 
-258, -141, 117, 200, -187, -12, 175, 941, 19, -136, -229, -112, 
-351, -136, 214, 244, -283, 39, 224, 1005, 87, -117, -239, -151, 
-409, -141, 268, 275, -339, 63, 253, 1068, 151, -82, -239, -156, 
-434, -161, 273, 297, -353, 56, 307, 1117, 190, -39, -224, -156, 
-439, -165, 273, 302, -356, 53, 336, 1137, 204, -24, -219, -151, 
-448, -165, 283, 307, -366, 58, 331, 1141, 219, -24, -214, -156, 
-453, -156, 297, 305, -375, 70, 326, 1156, 229, -24, -214, -156, 
-453, -165, 287, 309, -370, 61, 326, 1166, 224, -24, -214, -161, 
-463, -175, 287, 319, -375, 56, 341, 1171, 234, -24, -219, -165, 
-473, -180, 292, 326, -383, 56, 351, 1176, 234, -24, -229, -170, 
-483, -190, 292, 336, -387, 51, 356, 1185, 239, -24, -234, -180, 
-497, -209, 287, 353, -392, 39, 361, 1195, 244, -24, -239, -190, 
-507, -209, 297, 358, -402, 43, 370, 1205, 253, -24, -244, -195, 
-522, -224, 297, 373, -409, 36, 390, 1215, 258, -24, -248, -204, 
-536, -234, 302, 385, -419, 34, 400, 1224, 263, -29, -253, -204, 
-551, -244, 307, 397, -429, 31, 414, 1239, 273, -29, -263, -214, 
-566, -248, 317, 407, -441, 34, 434, 1249, 278, -29, -273, -224, 
-580, -258, 322, 419, -451, 31, 448, 1254, 287, -29, -283, -239, 
-605, -268, 336, 436, -470, 34, 468, 1273, 302, -34, -297, -253, 
-624, -278, 346, 451, -485, 34, 488, 1293, 312, -34, -312, -268, 
-658, -302, 356, 480, -507, 26, 517, 1307, 322, -34, -322, -273, 
-678, -322, 356, 500, -517, 17, 546, 1332, 331, -39, -331, -292, 
-712, -341, 370, 527, -541, 14, 580, 1346, 336, -39, -346, -307, 
-736, -361, 375, 549, -556, 7, 610, 1366, 346, -43, -361, -322, 
-775, -375, 400, 575, -588, 12, 649, 1381, 366, -48, -375, -346, 
-819, -395, 424, 607, -622, 14, 683, 1410, 385, -53, -390, -366, 
-854, -414, 439, 634, -646, 12, 727, 1439, 400, -53, -409, -385, 
-893, -444, 448, 668, -671, 2, 771, 1464, 424, -58, -429, -409, 
-946, -473, 473, 710, -710, 0, 814, 1493, 439, -58, -448, -434, 
-995, -497, 497, 746, -746, 0, 854, 1527, 463, -63, -473, -458, 
-1044, -522, 522, 783, -783, 0, 902, 1556, 488, -68, -497, -488, 
-1093, -551, 541, 822, -817, -4, 951, 1586, 507, -68, -522, -517, 
-1137, -570, 566, 854, -851, -2, 1000, 1625, 546, -68, -541, -536, 
-1180, -585, 595, 883, -888, 4, 1039, 1664, 580, -68, -556, -561, 
-1224, -605, 619, 915, -922, 7, 1073, 1698, 605, -68, -580, -590, 
-1263, -619, 644, 941, -954, 12, 1112, 1727, 634, -58, -585, -605, 
-1288, -629, 658, 958, -973, 14, 1127, 1761, 668, -53, -600, -624, 
-1307, -634, 673, 971, -990, 19, 1146, 1795, 702, -39, -605, -634, 
-1327, -634, 692, 980, -1010, 29, 1156, 1815, 727, -19, -600, -639, 
-1337, -629, 707, 983, -1022, 39, 1156, 1834, 756, 4, -595, -649, 
-1332, -610, 722, 971, -1027, 56, 1156, 1849, 775, 24, -590, -644, 
-1327, -575, 751, 951, -1039, 87, 1146, 1859, 785, 43, -575, -634, 
-1298, -541, 756, 919, -1027, 107, 1102, 1854, 795, 63, -556, -605, 
-1254, -502, 751, 878, -1002, 124, 1044, 1849, 800, 87, -527, -575, 
-1195, -444, 751, 819, -973, 153, 990, 1834, 795, 107, -497, -541, 
-1137, -380, 756, 758, -946, 187, 936, 1805, 780, 122, -463, -507, 
-1068, -336, 732, 702, -900, 197, 863, 1751, 746, 131, -429, -468, 
-1000, -292, 707, 646, -854, 207, 790, 1698, 712, 141, -395, -429, 
-907, -253, 653, 580, -780, 200, 717, 1659, 663, 151, -351, -385, 
-824, -204, 619, 514, -722, 207, 649, 1595, 624, 151, -312, -336, 
-756, -151, 605, 453, -680, 226, 566, 1522, 580, 161, -273, -302, 
-668, -107, 561, 387, -614, 226, 478, 1468, 527, 165, -229, -248, 
-580, -73, 507, 326, -544, 217, 409, 1415, 473, 161, -204, -209, 
-502, -34, 468, 268, -485, 217, 351, 1346, 424, 156, -180, -175, 
-424, -9, 414, 217, -419, 202, 283, 1278, 375, 146, -151, -131, 
-341, 4, 346, 168, -344, 175, 219, 1229, 312, 136, -126, -102, 
-263, 29, 292, 117, -278, 161, 161, 1190, 268, 126, -102, -63, 
-209, 48, 258, 80, -234, 153, 117, 1137, 234, 122, -82, -34, 
-165, 53, 219, 56, -192, 136, 73, 1083, 200, 107, -68, -9, 
-122, 63, 185, 29, -153, 124, 24, 1054, 165, 97, -48, 9, 
-82, 68, 151, 7, -117, 109, -9, 1019, 126, 87, -48, 19, 
-48, 78, 126, -14, -87, 102, -24, 980, 102, 68, -43, 19, 
-34, 82, 117, -24, -75, 100, -43, 951, 78, 58, -39, 29, 
-9, 82, 92, -36, -51, 87, -68, 941, 53, 53, -34, 34, 
4, 82, 78, -43, -36, 80, -87, 932, 34, 43, -34, 43, 
14, 82, 68, -48, -26, 75, -92, 912, 19, 34, -34, 43, 
19, 78, 58, -48, -19, 68, -97, 897, 14, 29, -29, 48, 
24, 78, 53, -51, -14, 65, -107, 893, 4, 29, -24, 53, 
19, 73, 53, -46, -17, 63, -102, 888, 0, 24, -24, 53, 
24, 68, 43, -46, -9, 56, -102, 878, -4, 19, -24, 53, 
24, 63, 39, -43, -7, 51, -107, 873, -14, 14, -24, 48, 
24, 58, 34, -41, -4, 46, -107, 863, -14, 9, -34, 43, 
19, 53, 34, -36, -7, 43, -107, 858, -19, 4, -34, 43, 
14, 48, 34, -31, -9, 41, -107, 854, -24, 0, -39, 43, 
14, 48, 34, -31, -9, 41, -107, 849, -24, -9, -39, 39, 
9, 43, 34, -26, -12, 39, -107, 849, -24, -14, -39, 34, 
9, 39, 29, -24, -9, 34, -107, 849, -24, -14, -39, 29, 
4, 39, 34, -21, -14, 36, -97, 849, -24, -14, -39, 29, 
4, 34, 29, -19, -12, 31, -97, 849, -24, -14, -39, 24, 
4, 29, 24, -17, -9, 26, -97, 849, -24, -9, -34, 29, 
0, 19, 19, -9, -9, 19, -92, 849, -24, -9, -34, 29, 
0, 14, 14, -7, -7, 14, -92, 854, -24, -9, -34, 29, 
-4, 9, 14, -2, -9, 12, -87, 854, -19, -9, -39, 14, 
-4, 4, 9, 0, -7, 7, -87, 854, -19, -14, -39, 9, 
-9, 4, 14, 2, -12, 9, -82, 854, -19, -14, -43, 9, 
-14, 0, 14, 7, -14, 7, -82, 854, -19, -14, -43, 4, 
-19, 0, 19, 9, -19, 9, -82, 854, -19, -19, -43, 0, 
-24, 0, 24, 12, -24, 12, -78, 854, -19, -24, -43, -4, 
-24, 0, 24, 12, -24, 12, -78, 854, -14, -19, -48, -4, 
-29, 0, 29, 14, -29, 14, -78, 858, -9, -19, -58, -9, 
-29, 0, 29, 14, -29, 14, -78, 858, -9, -14, -48, -9, 
-29, 0, 29, 14, -29, 14, -78, 858, -9, -9, -39, -9, 
-29, 0, 29, 14, -29, 14, -78, 858, -4, -9, -39, -4, 
-29, 0, 29, 14, -29, 14, -73, 858, 0, -4, -39, 0, 
-29, 4, 34, 12, -31, 19, -68, 858, 4, -4, -39, 4, 
-29, 9, 39, 9, -34, 24, -63, 858, 9, -9, -34, 4, 
-24, 14, 39, 4, -31, 26, -48, 858, 9, -4, -29, 4, 
-14, 19, 34, -2, -24, 26, -48, 858, 4, 0, -24, 9, 
-14, 29, 43, -7, -29, 36, -48, 863, 14, 4, -19, 9, 
-4, 39, 43, -17, -24, 41, -48, 863, 14, 9, -14, 14, 
0, 43, 43, -21, -21, 43, -58, 863, 24, 19, 0, 14, 
19, 63, 43, -41, -12, 53, -63, 868, 29, 29, 9, 24, 
39, 87, 48, -63, -4, 68, -78, 868, 34, 34, 19, 34, 
63, 122, 58, -92, 2, 90, -97, 863, 34, 48, 39, 58, 
73, 131, 58, -102, 7, 95, -117, 849, 34, 48, 39, 58, 
82, 122, 39, -102, 21, 80, -131, 839, 24, 43, 34, 53, 
87, 117, 29, -102, 29, 73, -141, 829, 14, 29, 29, 53, 
87, 107, 19, -97, 34, 63, -141, 814, 4, 19, 29, 53, 
87, 107, 19, -97, 34, 63, -141, 810, -4, 19, 29, 58, 
78, 107, 29, -92, 24, 68, -141, 810, -4, 19, 29, 63, 
53, 97, 43, -75, 4, 70, -126, 805, -4, 19, 29, 63, 
29, 82, 53, -56, -12, 68, -117, 805, 0, 19, 24, 58, 
9, 58, 48, -34, -19, 53, -97, 805, 0, 14, 14, 39, 
0, 39, 39, -19, -19, 39, -87, 810, 0, 9, 0, 29, 
-9, 14, 24, -2, -17, 19, -78, 810, 0, 4, -14, 14, 
-14, -4, 9, 9, -12, 2, -78, 810, -9, -4, -24, 0, 
-29, -24, 4, 26, -17, -9, -73, 810, -14, -14, -34, -9, 
-34, -39, -4, 36, -14, -21, -68, 805, -14, -24, -34, -19, 
-39, -39, 0, 39, -19, -19, -68, 795, -14, -24, -34, -19, 
-39, -39, 0, 39, -19, -19, -68, 795, -14, -24, -29, -19, 
-43, -39, 4, 41, -24, -17, -68, 795, -14, -24, -34, -24, 
-43, -39, 4, 41, -24, -17, -68, 795, -14, -19, -34, -24, 
-43, -48, -4, 46, -19, -26, -63, 790, -14, -19, -34, -24, 
-43, -53, -9, 48, -17, -31, -58, 790, -14, -19, -34, -24, 
-39, -53, -14, 46, -12, -34, -58, 790, -14, -19, -34, -24, 
-34, -53, -19, 43, -7, -36, -58, 780, -14, -19, -34, -24, 
-34, -53, -19, 43, -7, -36, -58, 780, -9, -14, -34, -24, 
-34, -53, -19, 43, -7, -36, -58, 780, -4, -14, -34, -24, 
-29, -48, -19, 39, -4, -34, -58, 775, -4, -14, -29, -14, 
-29, -43, -14, 36, -7, -29, -58, 775, -4, -14, -29, -9, 
-24, -39, -14, 31, -4, -26, -68, 775, -4, -9, -24, -9, 
0, -19, -19, 9, 9, -19, -92, 775, 4, 14, -4, 0, 
63, 53, -9, -58, 36, 21, -136, 785, 48, 63, 34, 34, 
161, 190, 29, -175, 65, 109, -219, 814, 136, 156, 117, 102, 
312, 346, 34, -329, 139, 190, -385, 741, 126, 239, 239, 214, 
497, 546, 48, -522, 224, 297, -614, 536, 43, 302, 361, 361, 
722, 712, -9, -717, 366, 351, -868, 312, -53, 361, 488, 492, 
917, 878, -39, -897, 478, 419, -1107, 58, -214, 395, 600, 629, 
1112, 1010, -102, -1061, 607, 453, -1395, -239, -468, 375, 702, 771, 
1332, 1049, -283, -1190, 807, 383, -1722, -575, -775, 297, 756, 883, 
1566, 1098, -468, -1332, 1017, 314, -2039, -927, -1098, 185, 814, 1000, 
1800, 1171, -629, -1485, 1215, 270, -2327, -1293, -1449, 53, 873, 1117, 
1947, 1205, -741, -1576, 1344, 231, -2522, -1595, -1766, -68, 907, 1229, 
2059, 1259, -800, -1659, 1429, 229, -2620, -1834, -2000, -175, 927, 1327, 
2200, 1381, -819, -1790, 1510, 280, -2654, -1991, -2132, -248, 976, 1429, 
2318, 1454, -863, -1886, 1590, 295, -2630, -1976, -2161, -287, 1015, 1493, 
2293, 1439, -854, -1866, 1573, 292, -2532, -1932, -2176, -341, 995, 1503, 
2186, 1385, -800, -1786, 1493, 292, -2332, -1839, -2142, -395, 951, 1488, 
2083, 1332, -751, -1708, 1417, 290, -2137, -1737, -2069, -429, 907, 1478, 
1986, 1244, -741, -1615, 1363, 251, -2015, -1634, -1986, -468, 854, 1429, 
1888, 1137, -751, -1512, 1320, 192, -1912, -1537, -1903, -478, 805, 1366, 
1839, 1005, -834, -1422, 1337, 85, -1786, -1376, -1800, -468, 785, 1307, 
1747, 800, -946, -1273, 1346, -73, -1620, -1180, -1664, -458, 727, 1210, 
1625, 605, -1019, -1115, 1322, -207, -1473, -956, -1488, -419, 663, 1093, 
1512, 429, -1083, -971, 1298, -326, -1342, -771, -1371, -419, 570, 956, 
1376, 263, -1112, -819, 1244, -424, -1161, -605, -1288, -458, 429, 800, 
1224, 136, -1088, -680, 1156, -475, -985, -434, -1171, -502, 292, 653, 
1068, 107, -961, -588, 1015, -427, -854, -278, -1019, -512, 195, 551, 
912, 107, -805, -509, 858, -348, -717, -97, -844, -458, 136, 458, 
766, 151, -614, -458, 690, -231, -556, 97, -639, -346, 122, 400, 
570, 136, -434, -353, 502, -148, -380, 283, -473, -258, 73, 317, 
322, 117, -204, -219, 263, -43, -209, 448, -302, -229, -29, 170, 
107, 58, -48, -82, 78, 4, -73, 634, -122, -170, -97, 34, 
-82, -82, 0, 82, -41, -41, 82, 771, -14, -131, -170, -87, 
-244, -170, 73, 207, -158, -48, 200, 858, 58, -97, -204, -141, 
-351, -185, 165, 268, -258, -9, 253, 936, 126, -78, -209, -180, 
-414, -200, 214, 307, -314, 7, 287, 1000, 195, -39, -209, -190, 
-444, -229, 214, 336, -329, -7, 346, 1049, 239, 9, -195, -195, 
-448, -229, 219, 339, -334, -4, 380, 1068, 244, 19, -195, -195, 
-458, -224, 234, 341, -346, 4, 380, 1073, 248, 14, -195, -204, 
-463, -214, 248, 339, -356, 17, 375, 1088, 263, 14, -195, -209, 
-463, -224, 239, 344, -351, 7, 375, 1098, 263, 14, -195, -219, 
-473, -234, 239, 353, -356, 2, 390, 1102, 273, 14, -200, -224, 
-483, -239, 244, 361, -363, 2, 400, 1107, 273, 14, -209, -229, 
-497, -244, 253, 370, -375, 4, 409, 1117, 278, 9, -214, -234, 
-517, -258, 258, 387, -387, 0, 419, 1127, 283, 4, -219, -239, 
-527, -258, 268, 392, -397, 4, 429, 1137, 292, 4, -224, -244, 
-541, -273, 268, 407, -405, -2, 448, 1146, 297, 4, -229, -253, 
-556, -283, 273, 419, -414, -4, 458, 1156, 302, 0, -239, -258, 
-570, -292, 278, 431, -424, -7, 473, 1171, 312, 0, -253, -273, 
-585, -307, 278, 446, -431, -14, 492, 1185, 317, -4, -263, -283, 
-600, -326, 273, 463, -436, -26, 507, 1195, 326, -9, -273, -297, 
-624, -336, 287, 480, -456, -24, 531, 1215, 341, -14, -283, -307, 
-644, -346, 297, 495, -470, -24, 556, 1234, 351, -14, -292, -317, 
-678, -370, 307, 524, -492, -31, 585, 1249, 361, -14, -302, -326, 
-697, -390, 307, 544, -502, -41, 614, 1273, 370, -19, -312, -351, 
-736, -409, 326, 573, -531, -41, 649, 1288, 380, -19, -326, -366, 
-766, -429, 336, 597, -551, -46, 678, 1307, 395, -24, -341, -380, 
-805, -444, 361, 624, -583, -41, 717, 1327, 414, -29, -356, -405, 
-849, -463, 385, 656, -617, -39, 751, 1361, 434, -34, -370, -424, 
-878, -483, 395, 680, -636, -43, 795, 1385, 444, -34, -390, -444, 
-912, -512, 400, 712, -656, -56, 839, 1405, 463, -39, -409, -468, 
-966, -541, 424, 753, -695, -58, 888, 1439, 483, -39, -429, -492, 
-1015, -566, 448, 790, -732, -58, 932, 1478, 512, -43, -453, -517, 
-1068, -590, 478, 829, -773, -56, 980, 1512, 541, -48, -473, -541, 
-1122, -619, 502, 871, -812, -58, 1029, 1546, 566, -48, -492, -566, 
-1171, -639, 531, 905, -851, -53, 1078, 1586, 605, -43, -512, -585, 
-1220, -653, 566, 936, -893, -43, 1117, 1625, 639, -39, -527, -610, 
-1259, -668, 590, 963, -924, -39, 1146, 1659, 663, -39, -551, -634, 
-1293, -678, 614, 985, -954, -31, 1180, 1688, 692, -29, -556, -644, 
-1327, -688, 639, 1007, -983, -24, 1200, 1722, 727, -29, -570, -663, 
-1356, -692, 663, 1024, -1010, -14, 1224, 1756, 761, -19, -575, -673, 
-1376, -692, 683, 1034, -1029, -4, 1234, 1776, 785, -4, -575, -683, 
-1385, -688, 697, 1037, -1041, 4, 1234, 1795, 814, 14, -575, -697, 
-1381, -668, 712, 1024, -1046, 21, 1229, 1810, 834, 34, -570, -697, 
-1376, -634, 741, 1005, -1058, 53, 1215, 1820, 844, 53, -556, -692, 
-1356, -610, 746, 983, -1051, 68, 1180, 1815, 854, 73, -536, -668, 
-1322, -580, 741, 951, -1032, 80, 1132, 1810, 858, 97, -507, -644, 
-1263, -536, 727, 900, -995, 95, 1078, 1795, 858, 117, -473, -610, 
-1205, -488, 717, 846, -961, 114, 1024, 1766, 849, 131, -434, -575, 
-1137, -434, 702, 785, -919, 134, 951, 1717, 814, 141, -405, -531, 
-1068, -380, 688, 724, -878, 153, 878, 1668, 780, 151, -375, -488, 
-976, -341, 634, 658, -805, 146, 805, 1625, 732, 161, -336, -444, 
-893, -292, 600, 592, -746, 153, 736, 1556, 692, 161, -302, -395, 
-814, -239, 575, 527, -695, 168, 653, 1483, 644, 165, -263, -361, 
-717, -195, 522, 456, -619, 163, 566, 1429, 585, 165, -219, -307, 
-629, -161, 468, 395, -549, 153, 492, 1371, 527, 161, -200, -273, 
-551, -122, 429, 336, -490, 153, 429, 1298, 473, 156, -180, -244, 
-473, -87, 385, 280, -429, 148, 356, 1224, 424, 146, -151, -200, 
-390, -63, 326, 226, -358, 131, 287, 1171, 361, 136, -126, -170, 
-312, -34, 278, 173, -295, 122, 229, 1127, 312, 122, -97, -131, 
-258, -9, 248, 134, -253, 119, 185, 1068, 273, 112, -73, -102, 
-209, 0, 209, 104, -209, 104, 141, 1010, 234, 102, -58, -68, 
-161, 14, 175, 73, -168, 95, 92, 976, 195, 97, -39, -39, 
-122, 14, 136, 53, -129, 75, 53, 941, 151, 87, -29, -14, 
-87, 19, 107, 34, -97, 63, 34, 902, 122, 68, -14, 0, 
-63, 29, 92, 17, -78, 61, 9, 863, 97, 58, -9, 4, 
-29, 34, 63, -2, -46, 48, -19, 844, 73, 53, -4, 4, 
-9, 39, 48, -14, -29, 43, -39, 834, 53, 43, -4, 14, 
4, 43, 39, -24, -17, 41, -43, 814, 39, 34, -4, 14, 
9, 39, 29, -24, -9, 34, -48, 795, 29, 19, -9, 14, 
14, 39, 24, -26, -4, 31, -58, 785, 14, 9, -14, 14, 
9, 34, 24, -21, -7, 29, -58, 780, 4, 4, -14, 14, 
14, 29, 14, -21, 0, 21, -63, 771, -4, 0, -14, 14, 
14, 24, 9, -19, 2, 17, -68, 771, -9, -4, -14, 9, 
14, 19, 4, -17, 4, 12, -68, 766, -4, -9, -24, 4, 
14, 9, -4, -12, 9, 2, -68, 761, -9, -9, -24, 4, 
14, 0, -14, -7, 14, -7, -68, 756, -14, -9, -29, 4, 
14, 0, -14, -7, 14, -7, -68, 751, -14, -14, -29, 4, 
9, -4, -14, -2, 12, -9, -68, 751, -14, -14, -29, 4, 
9, -9, -19, 0, 14, -14, -68, 751, -14, -14, -29, 4, 
4, -9, -14, 2, 9, -12, -58, 751, -14, -14, -29, 9, 
0, -14, -14, 7, 7, -14, -58, 751, -14, -19, -34, 0, 
-4, -19, -14, 12, 4, -17, -58, 751, -14, -19, -34, 0, 
-9, -19, -9, 14, 0, -14, -53, 746, -14, -24, -39, -4, 
-9, -14, -4, 12, -2, -9, -53, 746, -14, -29, -43, -9, 
-14, -19, -4, 17, -4, -12, -48, 746, -9, -29, -48, -19, 
-19, -24, -4, 21, -7, -14, -43, 746, -9, -34, -48, -19, 
-24, -24, 0, 24, -12, -12, -39, 746, -9, -29, -48, -24, 
-29, -29, 0, 29, -14, -14, -39, 751, -9, -29, -48, -29, 
-29, -29, 0, 29, -14, -14, -39, 751, -4, -29, -48, -29, 
-29, -29, 0, 29, -14, -14, -39, 751, 0, -29, -48, -29, 
-34, -29, 4, 31, -19, -12, -34, 751, 0, -29, -48, -24, 
-34, -24, 9, 29, -21, -7, -24, 751, 0, -24, -48, -19, 
-39, -24, 14, 31, -26, -4, -19, 756, 4, -19, -48, -14, 
-39, -19, 19, 29, -29, 0, -14, 761, 9, -19, -43, -14, 
-43, -14, 29, 29, -36, 7, 4, 761, 19, -14, -39, -14, 
-43, -9, 34, 26, -39, 12, 9, 761, 24, -9, -34, -9, 
-43, -4, 39, 24, -41, 17, 9, 766, 34, -4, -34, -9, 
-34, 0, 34, 17, -34, 17, 9, 766, 34, 0, -34, -4, 
-24, 4, 29, 9, -26, 17, 0, 766, 39, 9, -24, -4, 
0, 24, 24, -12, -12, 24, -4, 771, 39, 19, -19, 4, 
19, 53, 34, -36, -7, 43, -19, 775, 48, 24, -4, 14, 
43, 92, 48, -68, -2, 70, -39, 775, 53, 39, 19, 39, 
53, 102, 48, -78, 2, 75, -63, 761, 53, 39, 24, 43, 
63, 92, 29, -78, 17, 61, -82, 751, 43, 34, 24, 43, 
68, 92, 24, -80, 21, 58, -97, 736, 34, 24, 14, 43, 
68, 87, 19, -78, 24, 53, -102, 717, 24, 19, 9, 43, 
68, 87, 19, -78, 24, 53, -102, 712, 14, 19, 9, 43, 
58, 87, 29, -73, 14, 58, -102, 712, 14, 19, 9, 43, 
34, 78, 43, -56, -4, 61, -92, 707, 14, 14, 9, 48, 
9, 63, 53, -36, -21, 58, -87, 707, 19, 9, 4, 48, 
-9, 34, 43, -12, -26, 39, -68, 707, 14, 4, 0, 34, 
-19, 9, 29, 4, -24, 19, -58, 712, 9, 0, -9, 29, 
-34, -14, 19, 24, -26, 2, -48, 712, 9, -4, -29, 9, 
-43, -34, 9, 39, -26, -12, -48, 712, 0, -14, -43, -9, 
-53, -53, 0, 53, -26, -26, -43, 712, -4, -19, -53, -19, 
-53, -68, -14, 61, -19, -41, -39, 707, -4, -24, -53, -29, 
-58, -68, -9, 63, -24, -39, -39, 697, -4, -24, -53, -29, 
-58, -68, -9, 63, -24, -39, -39, 697, -4, -24, -48, -29, 
-63, -63, 0, 63, -31, -31, -39, 697, -4, -29, -53, -34, 
-63, -58, 4, 61, -34, -26, -39, 697, -4, -29, -53, -34, 
-58, -63, -4, 61, -26, -34, -39, 692, -4, -24, -53, -29, 
-53, -63, -9, 58, -21, -36, -39, 692, -4, -19, -53, -24, 
-53, -63, -9, 58, -21, -36, -39, 692, 0, -19, -48, -24, 
-53, -63, -9, 58, -21, -36, -39, 683, 4, -19, -43, -24, 
-53, -63, -9, 58, -21, -36, -39, 683, 4, -14, -43, -24, 
-53, -63, -9, 58, -21, -36, -39, 683, 4, -14, -43, -24, 
-53, -68, -14, 61, -19, -41, -39, 678, 4, -19, -48, -19, 
-58, -73, -14, 65, -21, -43, -39, 678, 4, -24, -58, -19, 
-58, -73, -14, 65, -21, -43, -43, 678, 4, -24, -48, -19, 
-39, -58, -19, 48, -9, -39, -63, 678, 14, -4, -24, -9, 
24, 0, -24, -12, 24, -12, -97, 702, 53, 43, 9, 19, 
122, 122, 0, -122, 61, 61, -170, 746, 136, 136, 87, 82, 
273, 278, 4, -275, 134, 141, -341, 663, 126, 214, 204, 185, 
458, 478, 19, -468, 219, 248, -575, 448, 43, 273, 322, 322, 
688, 649, -39, -668, 363, 305, -824, 244, -39, 336, 444, 453, 
888, 819, -68, -854, 478, 375, -1058, 9, -185, 375, 551, 590, 
1088, 956, -131, -1022, 610, 412, -1351, -287, -439, 351, 644, 722, 
1312, 1000, -312, -1156, 812, 344, -1683, -624, -746, 268, 688, 824, 
1556, 1049, -507, -1302, 1032, 270, -2010, -980, -1058, 165, 751, 941, 
1800, 1122, -678, -1461, 1239, 222, -2308, -1351, -1400, 43, 814, 1058, 
1952, 1156, -795, -1554, 1373, 180, -2518, -1673, -1732, -92, 844, 1166, 
2069, 1210, -858, -1639, 1464, 175, -2630, -1932, -1981, -214, 858, 1259, 
2225, 1337, -888, -1781, 1556, 224, -2669, -2093, -2113, -283, 917, 1371, 
2357, 1415, -941, -1886, 1649, 236, -2649, -2083, -2142, -317, 966, 1444, 
2352, 1415, -936, -1883, 1644, 239, -2566, -2039, -2161, -370, 951, 1459, 
2264, 1376, -888, -1820, 1576, 244, -2381, -1947, -2132, -424, 912, 1449, 
2147, 1322, -824, -1734, 1485, 248, -2176, -1849, -2059, -448, 868, 1444, 
2034, 1234, -800, -1634, 1417, 217, -2044, -1751, -1976, -478, 814, 1400, 
1937, 1127, -810, -1532, 1373, 158, -1942, -1664, -1908, -497, 766, 1342, 
1888, 995, -893, -1442, 1390, 51, -1815, -1512, -1820, -497, 746, 1288, 
1795, 805, -990, -1300, 1393, -92, -1649, -1317, -1688, -492, 692, 1190, 
1673, 624, -1049, -1149, 1361, -212, -1503, -1093, -1517, -458, 634, 1073, 
1556, 448, -1107, -1002, 1332, -329, -1376, -902, -1400, -458, 541, 951, 
1415, 283, -1132, -849, 1273, -424, -1200, -732, -1317, -497, 400, 810, 
1263, 151, -1112, -707, 1188, -480, -1034, -570, -1200, -536, 273, 663, 
1107, 117, -990, -612, 1049, -436, -912, -424, -1049, -541, 185, 561, 
951, 107, -844, -529, 897, -368, -766, -229, -873, -488, 126, 478, 
805, 141, -663, -473, 734, -261, -595, -19, -668, -375, 112, 429, 
605, 136, -468, -370, 536, -165, -419, 165, -492, -278, 73, 346, 
351, 126, -224, -239, 287, -48, -248, 331, -312, -239, -19, 200, 
126, 68, -58, -97, 92, 4, -112, 522, -131, -180, -82, 63, 
-73, -73, 0, 73, -36, -36, 43, 663, -24, -141, -151, -58, 
-244, -165, 78, 204, -161, -43, 175, 751, 58, -107, -195, -122, 
-361, -185, 175, 273, -268, -4, 244, 829, 136, -87, -209, -170, 
-429, -200, 229, 314, -329, 14, 278, 902, 195, -53, -219, -190, 
-463, -229, 234, 346, -348, 2, 336, 961, 229, -9, -214, -204, 
-468, -234, 234, 351, -351, 0, 370, 976, 244, 4, -209, -204, 
-478, -234, 244, 356, -361, 4, 370, 976, 258, 4, -204, -214, 
-483, -224, 258, 353, -370, 17, 366, 990, 273, 9, -204, -209, 
-483, -234, 248, 358, -366, 7, 366, 1000, 273, 14, -204, -209, 
-492, -248, 244, 370, -368, -2, 380, 1010, 283, 14, -204, -214, 
-502, -258, 244, 380, -373, -7, 390, 1019, 283, 14, -209, -219, 
-512, -263, 248, 387, -380, -7, 400, 1029, 287, 14, -214, -224, 
-527, -278, 248, 402, -387, -14, 409, 1039, 292, 14, -219, -229, 
-536, -273, 263, 405, -400, -4, 419, 1044, 302, 9, -224, -234, 
-551, -283, 268, 417, -409, -7, 439, 1049, 307, 4, -229, -244, 
-566, -292, 273, 429, -419, -9, 453, 1058, 312, 0, -234, -248, 
-580, -302, 278, 441, -429, -12, 473, 1073, 322, 0, -244, -263, 
-600, -312, 287, 456, -444, -12, 492, 1093, 326, 0, -253, -273, 
-619, -326, 292, 473, -456, -17, 507, 1107, 336, 0, -263, -287, 
-644, -336, 307, 490, -475, -14, 531, 1127, 351, -4, -278, -297, 
-663, -346, 317, 505, -490, -14, 556, 1146, 361, -4, -292, -307, 
-697, -370, 326, 534, -512, -21, 585, 1161, 375, -4, -302, -312, 
-717, -390, 326, 553, -522, -31, 614, 1185, 390, -9, -312, -331, 
-751, -409, 341, 580, -546, -34, 649, 1200, 400, -9, -326, -346, 
-775, -429, 346, 602, -561, -41, 678, 1220, 414, -14, -341, -361, 
-814, -439, 375, 627, -595, -31, 717, 1239, 434, -19, -356, -385, 
-858, -453, 405, 656, -631, -24, 751, 1273, 453, -24, -370, -405, 
-897, -473, 424, 685, -661, -24, 800, 1307, 468, -24, -390, -424, 
-941, -502, 439, 722, -690, -31, 849, 1337, 492, -29, -409, -448, 
-995, -536, 458, 766, -727, -39, 897, 1371, 512, -34, -429, -478, 
-1044, -566, 478, 805, -761, -43, 941, 1410, 541, -43, -453, -507, 
-1093, -590, 502, 841, -797, -43, 985, 1439, 566, -48, -473, -531, 
-1141, -619, 522, 880, -832, -48, 1029, 1468, 585, -48, -492, -556, 
-1190, -639, 551, 915, -871, -43, 1078, 1507, 624, -43, -507, -575, 
-1239, -653, 585, 946, -912, -34, 1117, 1546, 658, -39, -517, -600, 
-1283, -673, 610, 978, -946, -31, 1151, 1581, 688, -34, -541, -624, 
-1322, -688, 634, 1005, -978, -26, 1190, 1610, 722, -19, -546, -634, 
-1356, -697, 658, 1027, -1007, -19, 1210, 1644, 756, -14, -556, -653, 
-1385, -702, 683, 1044, -1034, -9, 1234, 1678, 790, 0, -556, -663, 
-1400, -697, 702, 1049, -1051, 2, 1244, 1703, 814, 19, -556, -663, 
-1405, -688, 717, 1046, -1061, 14, 1244, 1727, 844, 43, -556, -668, 
-1405, -678, 727, 1041, -1066, 24, 1244, 1742, 868, 63, -551, -668, 
-1405, -653, 751, 1029, -1078, 48, 1234, 1751, 883, 82, -536, -663, 
-1385, -619, 766, 1002, -1076, 73, 1200, 1742, 888, 97, -517, -644, 
-1351, -580, 771, 966, -1061, 95, 1151, 1732, 888, 117, -488, -624, 
-1288, -536, 751, 912, -1019, 107, 1098, 1717, 883, 136, -458, -590, 
-1224, -488, 736, 856, -980, 124, 1044, 1688, 868, 151, -424, -556, 
-1161, -439, 722, 800, -941, 141, 966, 1634, 839, 156, -395, -522, 
-1098, -390, 707, 744, -902, 158, 888, 1581, 810, 161, -366, -488, 
-1000, -351, 649, 675, -824, 148, 814, 1537, 756, 170, -326, -444, 
-912, -302, 610, 607, -761, 153, 746, 1468, 712, 170, -292, -395, 
-834, -244, 590, 539, -712, 173, 663, 1395, 663, 170, -263, -361, 
-736, -195, 541, 466, -639, 173, 575, 1342, 605, 165, -229, -307, 
-649, -161, 488, 405, -568, 163, 502, 1283, 546, 161, -195, -258, 
-570, -122, 448, 346, -509, 163, 439, 1210, 492, 156, -161, -214, 
-492, -87, 405, 290, -448, 158, 361, 1132, 444, 146, -131, -170, 
-409, -63, 346, 236, -378, 141, 287, 1073, 380, 136, -107, -141, 
-326, -34, 292, 180, -309, 129, 224, 1029, 331, 122, -82, -107, 
-268, -9, 258, 139, -263, 124, 175, 971, 292, 112, -63, -82, 
-214, 4, 219, 104, -217, 112, 131, 912, 253, 97, -48, -58, 
-161, 24, 185, 68, -173, 104, 82, 878, 214, 87, -29, -39, 
-122, 24, 146, 48, -134, 85, 43, 844, 170, 78, -24, -14, 
-87, 29, 117, 29, -102, 73, 24, 805, 141, 58, -14, 0, 
-68, 39, 107, 14, -87, 73, 0, 766, 112, 43, -9, 9, 
-39, 43, 82, -2, -61, 63, -29, 746, 82, 34, -4, 14, 
-19, 48, 68, -14, -43, 58, -48, 736, 63, 24, -4, 24, 
-4, 53, 58, -24, -31, 56, -53, 717, 48, 14, -4, 24, 
0, 48, 48, -24, -24, 48, -58, 697, 39, 4, -4, 29, 
4, 48, 43, -26, -19, 46, -68, 688, 24, 0, -4, 34, 
4, 43, 39, -24, -17, 41, -68, 683, 14, -4, -4, 29, 
14, 39, 24, -26, -4, 31, -73, 673, 4, -9, -4, 24, 
9, 34, 24, -21, -7, 29, -78, 668, -4, -14, -4, 24, 
4, 29, 24, -17, -9, 26, -78, 658, -4, -19, -14, 24, 
4, 24, 19, -14, -7, 21, -73, 653, -9, -24, -19, 24, 
4, 19, 14, -12, -4, 17, -68, 649, -14, -29, -29, 24, 
4, 19, 14, -12, -4, 17, -68, 644, -14, -34, -34, 24, 
0, 14, 14, -7, -7, 14, -68, 644, -14, -34, -39, 24, 
0, 9, 9, -4, -4, 9, -73, 644, -14, -34, -39, 19, 
-4, 9, 14, -2, -9, 12, -68, 644, -14, -34, -39, 19, 
-9, 4, 14, 2, -12, 9, -68, 644, -14, -39, -43, 9, 
-14, 0, 14, 7, -14, 7, -68, 644, -14, -39, -43, 9, 
-19, -4, 14, 12, -17, 4, -63, 644, -14, -39, -43, 9, 
-19, -4, 14, 12, -17, 4, -63, 649, -14, -39, -43, 9, 
-24, -9, 14, 17, -19, 2, -58, 649, -9, -39, -48, 0, 
-29, -14, 14, 21, -21, 0, -53, 649, -9, -43, -48, 0, 
-34, -14, 19, 24, -26, 2, -48, 649, -9, -39, -48, 0, 
-39, -19, 19, 29, -29, 0, -48, 653, -9, -39, -48, 0, 
-39, -19, 19, 29, -29, 0, -48, 653, -4, -39, -48, 0, 
-39, -19, 19, 29, -29, 0, -48, 653, 0, -39, -48, 0, 
-39, -19, 19, 29, -29, 0, -43, 653, 0, -39, -48, -4, 
-39, -14, 24, 26, -31, 4, -34, 653, 0, -34, -48, -4, 
-39, -14, 24, 26, -31, 4, -29, 658, 4, -29, -48, -4, 
-39, -9, 29, 24, -34, 9, -24, 663, 9, -29, -43, -4, 
-43, 0, 43, 21, -43, 21, -9, 658, 14, -24, -39, -4, 
-43, 9, 53, 17, -48, 31, -9, 653, 14, -19, -34, 0, 
-43, 14, 58, 14, -51, 36, -9, 658, 24, -14, -39, 0, 
-34, 19, 53, 7, -43, 36, -9, 658, 24, -9, -43, 4, 
-29, 24, 53, 2, -41, 39, -19, 658, 34, -4, -34, 4, 
-9, 43, 53, -17, -31, 48, -24, 663, 39, 0, -29, 14, 
14, 73, 58, -43, -21, 65, -39, 668, 43, 4, -19, 24, 
43, 112, 68, -78, -12, 90, -58, 668, 43, 19, 0, 48, 
53, 122, 68, -87, -7, 95, -82, 653, 43, 19, 9, 53, 
63, 112, 48, -87, 7, 80, -102, 644, 34, 14, 14, 53, 
68, 102, 34, -85, 17, 68, -112, 629, 24, 4, 9, 58, 
68, 87, 19, -78, 24, 53, -112, 610, 14, 0, 9, 63, 
68, 87, 19, -78, 24, 53, -112, 605, 4, 0, 9, 63, 
58, 87, 29, -73, 14, 58, -112, 605, 4, 0, 9, 63, 
34, 78, 43, -56, -4, 61, -102, 600, 4, -4, 4, 63, 
9, 63, 53, -36, -21, 58, -97, 600, 9, -9, -4, 58, 
-9, 39, 48, -14, -29, 43, -78, 600, 9, -14, -9, 43, 
-19, 19, 39, 0, -29, 29, -68, 605, 9, -19, -19, 39, 
-29, -4, 24, 17, -26, 9, -58, 605, 9, -14, -24, 29, 
-34, -24, 9, 29, -21, -7, -58, 605, 0, -14, -24, 19, 
-48, -43, 4, 46, -26, -19, -53, 605, -4, -19, -34, 9, 
-53, -58, -4, 56, -24, -31, -48, 600, -4, -24, -34, 0, 
-58, -53, 4, 56, -31, -24, -48, 590, -4, -29, -39, -4, 
-58, -48, 9, 53, -34, -19, -48, 590, -4, -34, -39, -9, 
-63, -48, 14, 56, -39, -17, -48, 590, -4, -39, -43, -14, 
-63, -48, 14, 56, -39, -17, -48, 590, -4, -39, -43, -14, 
-68, -53, 14, 61, -41, -19, -48, 585, -4, -39, -48, -14, 
-73, -53, 19, 63, -46, -17, -48, 585, -4, -39, -53, -14, 
-73, -58, 14, 65, -43, -21, -48, 585, -9, -39, -53, -9, 
-73, -63, 9, 68, -41, -26, -48, 575, -14, -39, -53, -4, 
-68, -63, 4, 65, -36, -29, -48, 575, -14, -34, -53, -4, 
-63, -63, 0, 63, -31, -31, -48, 575, -14, -34, -53, -4, 
-58, -63, -4, 61, -26, -34, -48, 570, -9, -34, -48, 0, 
-58, -63, -4, 61, -26, -34, -48, 570, -4, -34, -48, 0, 
-58, -58, 0, 58, -29, -29, -53, 570, -4, -39, -48, 0, 
-39, -39, 0, 39, -19, -19, -73, 570, 4, -24, -34, 9, 
14, 9, -4, -12, 9, 2, -102, 600, 43, 24, 0, 34, 
102, 122, 19, -112, 41, 70, -170, 649, 126, 117, 78, 92, 
253, 278, 24, -265, 114, 151, -331, 580, 136, 200, 195, 195, 
439, 478, 39, -458, 200, 258, -556, 380, 73, 263, 312, 331, 
673, 653, -19, -663, 346, 317, -800, 175, -4, 331, 439, 463, 
878, 829, -48, -854, 463, 390, -1029, -58, -146, 375, 551, 600, 
1078, 980, -97, -1029, 588, 441, -1317, -366, -395, 351, 649, 741, 
1302, 1039, -263, -1171, 783, 387, -1644, -712, -697, 268, 697, 854, 
1556, 1088, -468, -1322, 1012, 309, -1986, -1073, -1019, 165, 761, 976, 
1810, 1161, -649, -1485, 1229, 256, -2298, -1449, -1371, 43, 824, 1098, 
1961, 1195, -766, -1578, 1363, 214, -2513, -1781, -1708, -87, 858, 1210, 
2078, 1249, -829, -1664, 1454, 209, -2630, -2049, -1961, -204, 878, 1307, 
2244, 1385, -858, -1815, 1551, 263, -2684, -2215, -2098, -273, 936, 1424, 
2386, 1473, -912, -1930, 1649, 280, -2679, -2210, -2132, -307, 985, 1503, 
2371, 1473, -897, -1922, 1634, 287, -2601, -2171, -2156, -361, 976, 1517, 
2274, 1434, -839, -1854, 1556, 297, -2420, -2083, -2132, -414, 941, 1507, 
2156, 1381, -775, -1769, 1466, 302, -2205, -1991, -2064, -448, 897, 1503, 
2044, 1293, -751, -1668, 1398, 270, -2064, -1898, -1986, -488, 844, 1459, 
1947, 1185, -761, -1566, 1354, 212, -1961, -1810, -1922, -507, 795, 1405, 
1898, 1054, -844, -1476, 1371, 104, -1834, -1659, -1839, -507, 775, 1356, 
1805, 849, -956, -1327, 1381, -53, -1668, -1464, -1708, -502, 717, 1259, 
1683, 653, -1029, -1168, 1356, -187, -1522, -1239, -1537, -468, 653, 1141, 
1551, 488, -1063, -1019, 1307, -287, -1395, -1049, -1420, -468, 561, 1015, 
1395, 331, -1063, -863, 1229, -366, -1220, -878, -1337, -507, 419, 868, 
1244, 185, -1058, -714, 1151, -436, -1044, -707, -1220, -546, 292, 722, 
1088, 136, -951, -612, 1019, -407, -912, -551, -1068, -551, 204, 619, 
932, 126, -805, -529, 868, -339, -771, -361, -888, -497, 146, 531, 
785, 161, -624, -473, 705, -231, -605, -156, -678, -385, 131, 478, 
585, 161, -424, -373, 505, -131, -429, 29, -502, -283, 92, 400, 
331, 156, -175, -244, 253, -9, -258, 195, -322, -239, 0, 258, 
117, 97, -19, -107, 68, 39, -122, 385, -141, -180, -68, 122, 
-73, -43, 29, 58, -51, -7, 34, 527, -34, -141, -141, 0, 
-244, -146, 97, 195, -170, -24, 165, 619, 39, -107, -185, -63, 
-361, -175, 185, 268, -273, 4, 234, 702, 107, -87, -200, -112, 
-434, -190, 244, 312, -339, 26, 268, 775, 180, -48, -200, -126, 
-473, -219, 253, 346, -363, 17, 326, 834, 229, 0, -185, -136, 
-478, -224, 253, 351, -366, 14, 361, 854, 244, 14, -180, -136, 
-488, -224, 263, 356, -375, 19, 361, 858, 258, 14, -175, -146, 
-492, -209, 283, 351, -387, 36, 356, 873, 273, 14, -175, -141, 
-492, -214, 278, 353, -385, 31, 356, 883, 273, 14, -175, -141, 
-502, -224, 278, 363, -390, 26, 370, 888, 283, 9, -175, -146, 
-512, -229, 283, 370, -397, 26, 380, 893, 283, 4, -180, -151, 
-522, -234, 287, 378, -405, 26, 385, 902, 287, 4, -185, -156, 
-536, -248, 287, 392, -412, 19, 390, 912, 292, 4, -190, -161, 
-546, -244, 302, 395, -424, 29, 400, 922, 302, 4, -195, -165, 
-561, -253, 307, 407, -434, 26, 419, 932, 307, 4, -200, -175, 
-575, -263, 312, 419, -444, 24, 434, 941, 312, 0, -204, -175, 
-590, -273, 317, 431, -453, 21, 453, 956, 322, 0, -214, -185, 
-605, -273, 331, 439, -468, 29, 473, 971, 326, 0, -219, -190, 
-619, -278, 341, 448, -480, 31, 488, 980, 336, 0, -224, -200, 
-644, -287, 356, 466, -500, 34, 512, 1005, 356, -4, -234, -209, 
-663, -297, 366, 480, -514, 34, 536, 1029, 370, -4, -244, -219, 
-702, -322, 380, 512, -541, 29, 566, 1044, 380, 0, -253, -224, 
-727, -341, 385, 534, -556, 21, 595, 1068, 390, 0, -263, -244, 
-761, -361, 400, 561, -580, 19, 629, 1083, 400, 0, -278, -258, 
-785, -380, 405, 583, -595, 12, 658, 1102, 414, -4, -292, -273, 
-824, -395, 429, 610, -627, 17, 697, 1117, 434, -9, -307, -297, 
-868, -414, 453, 641, -661, 19, 732, 1146, 453, -14, -322, -317, 
-902, -429, 473, 666, -688, 21, 775, 1176, 468, -14, -341, -331, 
-941, -453, 488, 697, -714, 17, 819, 1200, 492, -19, -361, -351, 
-1000, -483, 517, 741, -758, 17, 868, 1234, 512, -19, -380, -370, 
-1054, -507, 546, 780, -800, 19, 912, 1273, 541, -24, -405, -390, 
-1102, -531, 570, 817, -836, 19, 961, 1302, 570, -29, -424, -414, 
-1151, -561, 590, 856, -871, 14, 1010, 1332, 595, -29, -444, -439, 
-1195, -580, 614, 888, -905, 17, 1058, 1371, 634, -29, -463, -458, 
-1239, -595, 644, 917, -941, 24, 1098, 1410, 668, -29, -478, -483, 
-1283, -614, 668, 949, -976, 26, 1132, 1444, 688, -29, -502, -512, 
-1322, -629, 692, 976, -1007, 31, 1171, 1473, 712, -19, -507, -527, 
-1356, -639, 717, 997, -1037, 39, 1190, 1507, 746, -14, -517, -546, 
-1385, -644, 741, 1015, -1063, 48, 1215, 1542, 780, 0, -517, -556, 
-1400, -644, 756, 1022, -1078, 56, 1224, 1556, 805, 9, -517, -561, 
-1405, -639, 766, 1022, -1085, 63, 1224, 1571, 834, 24, -517, -570, 
-1405, -629, 775, 1017, -1090, 73, 1220, 1586, 854, 43, -517, -570, 
-1405, -605, 800, 1005, -1102, 97, 1205, 1595, 863, 63, -507, -566, 
-1381, -570, 810, 976, -1095, 119, 1171, 1590, 873, 82, -488, -541, 
-1342, -531, 810, 936, -1076, 139, 1122, 1586, 878, 107, -458, -517, 
-1283, -483, 800, 883, -1041, 158, 1068, 1571, 878, 131, -424, -478, 
-1224, -429, 795, 827, -1010, 183, 1015, 1542, 868, 151, -385, -439, 
-1156, -375, 780, 766, -968, 202, 936, 1488, 829, 161, -356, -400, 
-1088, -322, 766, 705, -927, 222, 858, 1434, 790, 170, -326, -361, 
-995, -278, 717, 636, -856, 219, 785, 1390, 741, 175, -287, -317, 
-912, -224, 688, 568, -800, 231, 717, 1322, 702, 170, -253, -268, 
-834, -170, 663, 502, -749, 246, 634, 1249, 653, 175, -224, -234, 
-736, -126, 610, 431, -673, 241, 546, 1195, 595, 175, -190, -180, 
-649, -87, 561, 368, -605, 236, 473, 1137, 536, 170, -151, -131, 
-570, -43, 527, 307, -549, 241, 409, 1063, 483, 165, -112, -87, 
-492, -9, 483, 251, -488, 236, 336, 990, 439, 161, -82, -43, 
-409, 14, 424, 197, -417, 219, 268, 936, 380, 156, -58, -14, 
-336, 43, 380, 146, -358, 212, 209, 893, 331, 141, -34, 24, 
-287, 68, 356, 109, -322, 212, 165, 834, 292, 131, -14, 53, 
-234, 78, 312, 78, -273, 195, 122, 780, 253, 117, -4, 78, 
-180, 92, 273, 43, -226, 183, 73, 751, 214, 107, 9, 97, 
-141, 97, 239, 21, -190, 168, 34, 722, 175, 97, 19, 122, 
-107, 107, 214, 0, -161, 161, 14, 688, 151, 78, 34, 136, 
-87, 117, 204, -14, -146, 161, -4, 649, 126, 68, 39, 146, 
-58, 122, 180, -31, -119, 151, -29, 629, 102, 63, 43, 151, 
-39, 122, 161, -41, -100, 141, -48, 619, 82, 53, 43, 161, 
-24, 122, 146, -48, -85, 134, -53, 600, 68, 43, 43, 161, 
-19, 117, 136, -48, -78, 126, -58, 580, 63, 39, 48, 165, 
-14, 117, 131, -51, -73, 124, -68, 570, 53, 39, 53, 170, 
-14, 117, 131, -51, -73, 124, -68, 566, 43, 34, 53, 170, 
-4, 117, 122, -56, -63, 119, -73, 556, 34, 29, 53, 170, 
-4, 112, 117, -53, -61, 114, -78, 551, 24, 24, 53, 170, 
-4, 107, 112, -51, -58, 109, -78, 541, 24, 19, 43, 170, 
-4, 102, 107, -48, -56, 104, -78, 536, 19, 14, 43, 170, 
-4, 97, 102, -46, -53, 100, -78, 531, 14, 9, 39, 170, 
-4, 97, 102, -46, -53, 100, -78, 527, 14, 4, 34, 170, 
-9, 92, 102, -41, -56, 97, -78, 527, 14, 4, 29, 170, 
-14, 87, 102, -36, -58, 95, -78, 527, 14, 4, 29, 170, 
-24, 87, 112, -31, -68, 100, -68, 527, 14, 4, 29, 175, 
-29, 82, 112, -26, -70, 97, -68, 527, 14, 0, 24, 165, 
-34, 78, 112, -21, -73, 95, -68, 527, 14, 0, 24, 165, 
-39, 78, 117, -19, -78, 97, -63, 527, 14, 0, 24, 165, 
-39, 82, 122, -21, -80, 102, -63, 531, 14, 0, 24, 165, 
-43, 78, 122, -17, -82, 100, -58, 531, 19, 0, 19, 156, 
-48, 73, 122, -12, -85, 97, -53, 531, 19, -4, 19, 156, 
-53, 68, 122, -7, -87, 95, -48, 531, 14, -4, 19, 156, 
-58, 68, 126, -4, -92, 97, -48, 536, 9, -9, 19, 156, 
-58, 68, 126, -4, -92, 97, -48, 536, 9, -9, 14, 156, 
-58, 68, 126, -4, -92, 97, -48, 536, 9, -9, 9, 156, 
-63, 68, 131, -2, -97, 100, -43, 536, 9, -9, 9, 151, 
-63, 68, 131, -2, -97, 100, -34, 536, 9, -4, 4, 151, 
-68, 73, 141, -2, -104, 107, -29, 541, 14, 0, 4, 151, 
-68, 78, 146, -4, -107, 112, -24, 546, 19, 0, 4, 151, 
-73, 78, 151, -2, -112, 114, -9, 546, 24, 4, 9, 151, 
-73, 78, 151, -2, -112, 114, -9, 546, 24, 9, 14, 156, 
-73, 82, 156, -4, -114, 119, -9, 551, 34, 14, 9, 156, 
-63, 87, 151, -12, -107, 119, -9, 551, 34, 19, 4, 161, 
-58, 92, 151, -17, -104, 122, -19, 551, 34, 24, 14, 161, 
-39, 112, 151, -36, -95, 131, -24, 556, 29, 29, 19, 170, 
-19, 141, 161, -61, -90, 151, -34, 556, 34, 34, 34, 185, 
4, 180, 175, -92, -85, 178, -48, 551, 34, 48, 58, 214, 
14, 190, 175, -102, -80, 183, -73, 536, 39, 53, 63, 219, 
24, 180, 156, -102, -65, 168, -92, 527, 34, 53, 63, 219, 
29, 175, 146, -102, -58, 161, -102, 517, 24, 43, 58, 214, 
29, 165, 136, -97, -53, 151, -102, 502, 14, 39, 58, 209, 
29, 165, 136, -97, -53, 151, -102, 497, 0, 34, 53, 209, 
19, 165, 146, -92, -63, 156, -102, 497, -4, 29, 48, 209, 
0, 156, 156, -78, -78, 156, -92, 492, -4, 29, 48, 209, 
-19, 141, 161, -61, -90, 151, -87, 492, 0, 29, 43, 204, 
-39, 122, 161, -41, -100, 141, -68, 492, 0, 24, 39, 190, 
-48, 107, 156, -29, -102, 131, -58, 497, 0, 19, 29, 185, 
-58, 82, 141, -12, -100, 112, -48, 497, 4, 14, 14, 175, 
-63, 63, 126, 0, -95, 95, -48, 497, 0, 4, 4, 165, 
-73, 39, 112, 17, -92, 75, -43, 497, -4, 0, -4, 156, 
-73, 19, 92, 26, -82, 56, -39, 492, -4, -4, -4, 146, 
-73, 19, 92, 26, -82, 56, -39, 483, -4, -4, -9, 146, 
-68, 19, 87, 24, -78, 53, -39, 483, -4, -4, -9, 146, 
-73, 19, 92, 26, -82, 56, -39, 483, -4, -4, -9, 141, 
-73, 19, 92, 26, -82, 56, -39, 483, -4, 0, -4, 141, 
-73, 14, 87, 29, -80, 51, -39, 478, -4, 0, -4, 141, 
-73, 14, 87, 29, -80, 51, -39, 478, -4, 0, -4, 141, 
-73, 14, 87, 29, -80, 51, -43, 478, -4, -4, -9, 136, 
-73, 14, 87, 29, -80, 51, -48, 468, -4, -9, -14, 131, 
-78, 14, 92, 31, -85, 53, -48, 468, -4, -9, -19, 131, 
-82, 14, 97, 34, -90, 56, -48, 468, -4, -14, -24, 131, 
-78, 14, 92, 31, -85, 53, -43, 458, -9, -14, -19, 136, 
-78, 14, 92, 31, -85, 53, -39, 453, -14, -14, -19, 136, 
-82, 4, 87, 39, -85, 46, -34, 453, -14, -14, -19, 131, 
-68, 9, 78, 29, -73, 43, -43, 453, -4, 4, -4, 136, 
-29, 43, 73, -7, -51, 58, -48, 522, 58, 58, 29, 151, 
43, 141, 97, -92, -26, 119, -92, 610, 165, 156, 107, 200, 
195, 297, 102, -246, 46, 200, -234, 610, 219, 253, 224, 302, 
380, 497, 117, -439, 131, 307, -439, 478, 200, 331, 341, 439, 
610, 707, 97, -658, 256, 402, -673, 307, 175, 439, 492, 575, 
810, 917, 107, -863, 351, 512, -893, 107, 87, 522, 629, 717, 
1005, 1107, 102, -1056, 451, 605, -1151, -190, -131, 531, 751, 878, 
1224, 1205, -19, -1215, 622, 592, -1449, -527, -405, 483, 824, 1010, 
1464, 1273, -190, -1368, 827, 541, -1805, -897, -736, 395, 897, 1141, 
1703, 1366, -336, -1534, 1019, 514, -2132, -1283, -1098, 287, 971, 1273, 
1844, 1385, -458, -1615, 1151, 463, -2381, -1668, -1498, 126, 1005, 1395, 
1952, 1424, -527, -1688, 1239, 448, -2532, -1991, -1815, -19, 1024, 1503, 
2108, 1556, -551, -1832, 1329, 502, -2620, -2235, -2005, -102, 1098, 1634, 
2239, 1639, -600, -1939, 1420, 519, -2649, -2308, -2093, -151, 1161, 1727, 
2259, 1639, -619, -1949, 1439, 509, -2605, -2288, -2132, -219, 1151, 1747, 
2196, 1600, -595, -1898, 1395, 502, -2459, -2220, -2122, -287, 1117, 1742, 
2069, 1537, -531, -1803, 1300, 502, -2220, -2113, -2049, -322, 1068, 1737, 
1947, 1439, -507, -1693, 1227, 466, -2054, -2005, -1966, -361, 1010, 1693, 
1849, 1322, -527, -1586, 1188, 397, -1952, -1917, -1903, -380, 961, 1634, 
1800, 1180, -619, -1490, 1210, 280, -1825, -1766, -1820, -380, 941, 1581, 
1717, 961, -756, -1339, 1237, 102, -1659, -1566, -1688, -375, 888, 1473, 
1605, 751, -854, -1178, 1229, -51, -1512, -1337, -1517, -341, 829, 1346, 
1493, 556, -936, -1024, 1215, -190, -1395, -1146, -1400, -341, 727, 1205, 
1356, 370, -985, -863, 1171, -307, -1229, -976, -1317, -380, 575, 1044, 
1205, 195, -1010, -700, 1107, -407, -1039, -805, -1215, -458, 409, 863, 
1049, 117, -932, -583, 990, -407, -893, -649, -1078, -502, 283, 727, 
902, 92, -810, -497, 856, -358, -766, -463, -902, -463, 204, 619, 
766, 112, -653, -439, 710, -270, -614, -263, -697, -366, 170, 546, 
575, 112, -463, -344, 519, -175, -439, -87, -536, -283, 112, 453, 
331, 107, -224, -219, 278, -58, -268, 68, -370, -258, 0, 297, 
131, 68, -63, -100, 97, 2, -141, 253, -190, -200, -73, 161, 
-43, -53, -9, 48, -17, -31, 4, 390, -82, -161, -151, 39, 
-214, -141, 73, 178, -143, -34, 136, 478, -9, -131, -195, -24, 
-331, -156, 175, 244, -253, 9, 204, 556, 58, -117, -209, -73, 
-405, -170, 234, 287, -319, 31, 239, 629, 131, -78, -219, -87, 
-444, -200, 244, 322, -344, 21, 297, 688, 180, -29, -214, -97, 
-458, -204, 253, 331, -356, 24, 336, 707, 195, -9, -209, -97, 
-478, -204, 273, 341, -375, 34, 341, 712, 209, -4, -204, -107, 
-483, -195, 287, 339, -385, 46, 336, 727, 229, 0, -200, -102, 
-483, -204, 278, 344, -380, 36, 336, 736, 234, 4, -195, -102, 
-488, -214, 273, 351, -380, 29, 346, 741, 244, 4, -190, -107, 
-492, -219, 273, 356, -383, 26, 351, 746, 244, 4, -190, -112, 
-502, -219, 283, 361, -392, 31, 361, 756, 248, 4, -195, -117, 
-517, -229, 287, 373, -402, 29, 370, 766, 253, 4, -200, -122, 
-527, -224, 302, 375, -414, 39, 380, 775, 263, 4, -209, -126, 
-541, -234, 307, 387, -424, 36, 400, 785, 268, 4, -219, -136, 
-556, -244, 312, 400, -434, 34, 405, 790, 273, -4, -229, -141, 
-570, -253, 317, 412, -444, 31, 414, 800, 283, -9, -244, -156, 
-585, -263, 322, 424, -453, 29, 434, 810, 283, -14, -253, -165, 
-600, -278, 322, 439, -461, 21, 448, 814, 287, -19, -263, -180, 
-619, -287, 331, 453, -475, 21, 473, 829, 302, -29, -273, -190, 
-634, -297, 336, 466, -485, 19, 497, 844, 312, -34, -283, -200, 
-663, -322, 341, 492, -502, 9, 522, 858, 322, -34, -292, -204, 
-678, -341, 336, 509, -507, -2, 546, 883, 331, -39, -302, -224, 
-707, -361, 346, 534, -527, -7, 575, 897, 336, -39, -322, -239, 
-727, -380, 346, 553, -536, -17, 600, 917, 346, -43, -341, -253, 
-766, -395, 370, 580, -568, -12, 639, 932, 366, -53, -356, -283, 
-810, -414, 395, 612, -602, -9, 673, 961, 385, -63, -370, -307, 
-844, -434, 409, 639, -627, -12, 712, 985, 395, -63, -390, -326, 
-883, -463, 419, 673, -651, -21, 751, 1005, 414, -68, -409, -351, 
-936, -492, 444, 714, -690, -24, 800, 1039, 429, -73, -429, -375, 
-985, -517, 468, 751, -727, -24, 844, 1078, 453, -82, -453, -400, 
-1034, -551, 483, 793, -758, -34, 893, 1107, 478, -87, -478, -429, 
-1083, -590, 492, 836, -788, -48, 941, 1137, 497, -87, -502, -458, 
-1132, -610, 522, 871, -827, -43, 990, 1171, 536, -87, -522, -478, 
-1180, -624, 556, 902, -868, -34, 1029, 1205, 570, -87, -536, -502, 
-1229, -644, 585, 936, -907, -29, 1068, 1239, 590, -92, -566, -531, 
-1273, -658, 614, 966, -944, -21, 1112, 1268, 614, -87, -575, -546, 
-1307, -668, 639, 988, -973, -14, 1132, 1302, 649, -87, -590, -570, 
-1337, -673, 663, 1005, -1000, -4, 1156, 1337, 683, -78, -595, -585, 
-1356, -673, 683, 1015, -1019, 4, 1171, 1361, 707, -63, -600, -590, 
-1366, -668, 697, 1017, -1032, 14, 1176, 1385, 736, -43, -605, -600, 
-1366, -658, 707, 1012, -1037, 24, 1180, 1400, 766, -24, -605, -605, 
-1366, -634, 732, 1000, -1049, 48, 1176, 1410, 785, -4, -595, -605, 
-1346, -600, 746, 973, -1046, 73, 1141, 1415, 795, 14, -580, -585, 
-1312, -561, 751, 936, -1032, 95, 1093, 1420, 800, 39, -556, -566, 
-1259, -517, 741, 888, -1000, 112, 1044, 1410, 805, 58, -527, -531, 
-1205, -468, 736, 836, -971, 134, 995, 1385, 800, 73, -492, -497, 
-1141, -414, 727, 778, -934, 156, 922, 1337, 775, 87, -448, -458, 
-1078, -361, 717, 719, -897, 178, 849, 1288, 751, 102, -405, -419, 
-985, -322, 663, 653, -824, 170, 780, 1254, 702, 117, -366, -375, 
-902, -273, 629, 588, -766, 178, 717, 1195, 663, 122, -331, -326, 
-824, -219, 605, 522, -714, 192, 634, 1122, 619, 126, -297, -292, 
-727, -175, 551, 451, -639, 187, 546, 1068, 566, 126, -258, -239, 
-639, -146, 492, 392, -566, 173, 473, 1015, 512, 126, -224, -195, 
-561, -112, 448, 336, -505, 168, 409, 946, 463, 126, -190, -156, 
-488, -78, 409, 283, -448, 165, 336, 873, 414, 122, -161, -112, 
-409, -53, 356, 231, -383, 151, 268, 819, 351, 117, -136, -82, 
-331, -29, 302, 180, -317, 136, 204, 785, 302, 107, -107, -43, 
-278, -9, 268, 143, -273, 129, 156, 736, 263, 102, -82, -14, 
-224, 4, 229, 109, -226, 117, 112, 678, 229, 87, -68, 4, 
-170, 24, 195, 73, -183, 109, 63, 644, 195, 78, -48, 19, 
-126, 29, 156, 48, -141, 92, 24, 614, 151, 68, -43, 43, 
-87, 39, 126, 24, -107, 82, 4, 580, 122, 48, -34, 58, 
-68, 43, 112, 12, -90, 78, -19, 541, 97, 39, -29, 68, 
-39, 43, 82, -2, -61, 63, -48, 522, 73, 34, -24, 73, 
-19, 43, 63, -12, -41, 53, -68, 512, 58, 29, -24, 82, 
-4, 43, 48, -19, -26, 46, -73, 492, 48, 24, -24, 82, 
0, 39, 39, -19, -19, 39, -78, 473, 39, 14, -19, 82, 
4, 39, 34, -21, -14, 36, -87, 463, 24, 9, -14, 82, 
4, 34, 29, -19, -12, 31, -87, 458, 14, 4, -14, 82, 
14, 29, 14, -21, 0, 21, -92, 448, 4, 0, -14, 82, 
14, 24, 9, -19, 2, 17, -97, 444, -4, -4, -14, 82, 
14, 19, 4, -17, 4, 12, -97, 434, -4, -9, -24, 82, 
14, 14, 0, -14, 7, 7, -97, 429, -9, -14, -24, 78, 
14, 9, -4, -12, 9, 2, -97, 424, -14, -19, -29, 73, 
14, 9, -4, -12, 9, 2, -102, 419, -14, -24, -29, 73, 
9, 4, -4, -7, 7, 0, -107, 419, -14, -24, -29, 73, 
14, 0, -14, -7, 14, -7, -107, 419, -14, -24, -29, 68, 
14, 0, -14, -7, 14, -7, -97, 419, -14, -24, -29, 68, 
9, -4, -14, -2, 12, -9, -97, 419, -14, -24, -29, 58, 
4, -9, -14, 2, 9, -12, -97, 419, -14, -19, -24, 58, 
-4, -14, -9, 9, 2, -12, -92, 419, -14, -19, -24, 58, 
-9, -14, -4, 12, -2, -9, -92, 424, -14, -19, -24, 58, 
-14, -14, 0, 14, -7, -7, -87, 424, -4, -19, -29, 48, 
-14, -14, 0, 14, -7, -7, -87, 424, 0, -24, -29, 48, 
-19, -14, 4, 17, -12, -4, -82, 424, 0, -24, -34, 48, 
-24, -19, 4, 21, -14, -7, -82, 424, 0, -24, -34, 43, 
-24, -24, 0, 24, -12, -12, -82, 424, -4, -29, -34, 39, 
-24, -29, -4, 26, -9, -17, -78, 424, -9, -34, -34, 34, 
-24, -34, -9, 29, -7, -21, -73, 424, -9, -29, -29, 29, 
-29, -39, -9, 34, -9, -24, -68, 429, -9, -29, -29, 29, 
-29, -39, -9, 34, -9, -24, -68, 429, -4, -29, -29, 29, 
-29, -39, -9, 34, -9, -24, -68, 429, 0, -29, -29, 29, 
-29, -39, -9, 34, -9, -24, -63, 429, 4, -24, -24, 29, 
-29, -34, -4, 31, -12, -19, -53, 429, 9, -14, -19, 29, 
-34, -34, 0, 34, -17, -17, -48, 434, 14, -9, -19, 34, 
-39, -29, 9, 34, -24, -9, -43, 439, 19, -9, -14, 34, 
-39, -24, 14, 31, -26, -4, -29, 439, 19, -9, -9, 34, 
-34, -19, 14, 26, -24, -2, -29, 439, 14, -9, -4, 39, 
-34, -14, 19, 24, -26, 2, -29, 444, 24, -4, -4, 39, 
-24, -9, 14, 17, -19, 2, -29, 444, 24, 0, -4, 43, 
-19, -4, 14, 12, -17, 4, -39, 444, 34, 4, 4, 43, 
0, 14, 14, -7, -7, 14, -43, 448, 39, 9, 9, 53, 
19, 43, 24, -31, -2, 34, -53, 448, 43, 14, 19, 58, 
43, 82, 39, -63, 2, 61, -68, 444, 43, 29, 39, 78, 
58, 97, 39, -78, 9, 68, -92, 429, 43, 34, 43, 82, 
73, 92, 19, -82, 26, 56, -112, 419, 34, 34, 43, 82, 
78, 87, 9, -82, 34, 48, -126, 409, 24, 24, 39, 82, 
78, 78, 0, -78, 39, 39, -131, 395, 14, 19, 39, 82, 
82, 78, -4, -80, 43, 36, -131, 385, 4, 14, 39, 82, 
78, 78, 0, -78, 39, 39, -131, 380, 4, 9, 39, 82, 
53, 68, 14, -61, 19, 41, -122, 375, 0, 9, 39, 82, 
29, 53, 24, -41, 2, 39, -117, 375, 0, 9, 34, 78, 
9, 24, 14, -17, -2, 19, -92, 375, 0, 4, 29, 58, 
0, 0, 0, 0, 0, 0, -78, 380, 0, 0, 19, 48, 
-9, -24, -14, 17, 2, -19, -68, 380, 4, 0, 4, 34, 
-14, -43, -29, 29, 7, -36, -68, 380, 0, -4, -4, 19, 
-29, -63, -34, 46, 2, -48, -63, 385, -4, -9, -14, 9, 
-34, -78, -43, 56, 4, -61, -58, 385, -4, -14, -14, 0, 
-39, -82, -43, 61, 2, -63, -58, 375, -4, -14, -19, 0, 
-39, -87, -48, 63, 4, -68, -58, 375, -4, -14, -19, 0, 
-43, -87, -43, 65, 0, -65, -58, 370, -4, -19, -24, -4, 
-43, -87, -43, 65, 0, -65, -58, 366, -4, -19, -24, -4, 
-43, -92, -48, 68, 2, -70, -53, 361, -4, -19, -24, -4, 
-43, -92, -48, 68, 2, -70, -48, 361, -4, -19, -24, -4, 
-43, -92, -48, 68, 2, -70, -48, 361, -9, -24, -24, -4, 
-43, -92, -48, 68, 2, -70, -48, 351, -14, -29, -24, -4, 
-43, -87, -43, 65, 0, -65, -48, 351, -14, -24, -29, -9, 
-43, -82, -39, 63, -2, -61, -48, 351, -14, -24, -34, -14, 
-39, -82, -43, 61, 2, -63, -48, 346, -9, -24, -29, -14, 
-39, -82, -43, 61, 2, -63, -48, 346, -4, -24, -29, -19, 
-39, -87, -48, 63, 4, -68, -43, 346, -4, -24, -29, -19, 
-19, -78, -58, 48, 19, -68, -53, 346, 4, -4, -14, -9, 
14, -34, -48, 9, 31, -41, -78, 380, 48, 43, 14, 14, 
82, 73, -9, -78, 46, 31, -141, 434, 136, 136, 87, 73, 
224, 224, 0, -224, 112, 112, -283, 380, 151, 219, 204, 175, 
400, 419, 19, -409, 190, 219, -488, 195, 92, 283, 322, 312, 
624, 600, -24, -612, 324, 287, -732, 9, 34, 361, 453, 444, 
819, 780, -39, -800, 429, 370, -961, -204, -87, 414, 570, 580, 
1010, 936, -73, -973, 541, 431, -1239, -497, -326, 414, 678, 722, 
1224, 1000, -224, -1112, 724, 387, -1556, -829, -619, 356, 736, 834, 
1464, 1049, -414, -1256, 939, 317, -1903, -1190, -941, 253, 805, 956, 
1703, 1122, -580, -1412, 1141, 270, -2220, -1566, -1293, 131, 873, 1078, 
1869, 1146, -722, -1507, 1295, 212, -2444, -1908, -1654, -9, 907, 1190, 
2000, 1190, -810, -1595, 1405, 190, -2571, -2186, -1932, -136, 927, 1288, 
2161, 1337, -824, -1749, 1493, 256, -2640, -2386, -2093, -214, 985, 1410, 
2298, 1434, -863, -1866, 1581, 285, -2649, -2415, -2152, -258, 1034, 1493, 
2308, 1439, -868, -1873, 1588, 285, -2581, -2381, -2181, -317, 1024, 1512, 
2235, 1405, -829, -1820, 1532, 287, -2410, -2298, -2161, -375, 990, 1507, 
2117, 1356, -761, -1737, 1439, 297, -2196, -2200, -2088, -409, 951, 1503, 
2005, 1273, -732, -1639, 1368, 270, -2054, -2103, -2005, -448, 902, 1459, 
1912, 1176, -736, -1544, 1324, 219, -1952, -2030, -1937, -468, 854, 1410, 
1869, 1054, -814, -1461, 1342, 119, -1825, -1893, -1849, -468, 834, 1366, 
1776, 849, -927, -1312, 1351, -39, -1659, -1688, -1717, -458, 775, 1268, 
1654, 653, -1000, -1154, 1327, -173, -1512, -1454, -1546, -419, 712, 1151, 
1551, 468, -1083, -1010, 1317, -307, -1385, -1263, -1429, -419, 619, 1010, 
1424, 292, -1132, -858, 1278, -419, -1210, -1093, -1346, -458, 478, 849, 
1273, 146, -1127, -710, 1200, -490, -1034, -927, -1239, -517, 336, 697, 
1117, 97, -1019, -607, 1068, -461, -902, -775, -1098, -541, 234, 590, 
976, 78, -897, -527, 936, -409, -771, -595, -922, -492, 165, 497, 
844, 102, -741, -473, 793, -319, -614, -400, -717, -385, 141, 439, 
653, 112, -541, -383, 597, -214, -439, -214, -541, -292, 97, 356, 
409, 117, -292, -263, 351, -87, -268, -48, -361, -258, 0, 209, 
195, 58, -136, -126, 165, -39, -131, 141, -175, -200, -68, 68, 
4, -82, -87, 39, 46, -85, 24, 283, -63, -161, -141, -58, 
-185, -180, 4, 183, -95, -87, 170, 385, 14, -126, -190, -126, 
-322, -204, 117, 263, -219, -43, 253, 478, 87, -107, -209, -180, 
-395, -219, 175, 307, -285, -21, 287, 556, 165, -63, -209, -190, 
-434, -248, 185, 341, -309, -31, 346, 619, 219, -9, -195, -195, 
-444, -258, 185, 351, -314, -36, 380, 639, 234, 9, -190, -200, 
-458, -263, 195, 361, -326, -34, 380, 644, 248, 14, -185, -214, 
-463, -253, 209, 358, -336, -21, 375, 658, 263, 14, -185, -214, 
-463, -263, 200, 363, -331, -31, 375, 668, 263, 14, -185, -219, 
-473, -273, 200, 373, -336, -36, 390, 673, 273, 14, -190, -224, 
-483, -278, 204, 380, -344, -36, 400, 678, 273, 14, -200, -229, 
-492, -283, 209, 387, -351, -36, 409, 688, 278, 9, -204, -239, 
-507, -297, 209, 402, -358, -43, 419, 697, 283, 4, -209, -248, 
-517, -297, 219, 407, -368, -39, 429, 707, 292, 4, -214, -253, 
-531, -312, 219, 422, -375, -46, 448, 717, 297, 4, -219, -263, 
-546, -317, 229, 431, -387, -43, 458, 727, 302, 0, -224, -263, 
-561, -322, 239, 441, -400, -41, 473, 741, 312, 0, -234, -273, 
-575, -326, 248, 451, -412, -39, 492, 756, 317, -4, -244, -283, 
-590, -336, 253, 463, -422, -41, 507, 766, 326, -9, -253, -297, 
-610, -346, 263, 478, -436, -41, 531, 785, 341, -14, -263, -312, 
-624, -356, 268, 490, -446, -43, 556, 805, 351, -14, -273, -326, 
-658, -380, 278, 519, -468, -51, 585, 819, 361, -14, -283, -331, 
-678, -400, 278, 539, -478, -61, 614, 844, 370, -19, -292, -351, 
-717, -424, 292, 570, -505, -65, 649, 858, 380, -14, -307, -366, 
-746, -448, 297, 597, -522, -75, 678, 878, 395, -14, -322, -380, 
-785, -473, 312, 629, -549, -80, 717, 897, 414, -19, -336, -400, 
-829, -502, 326, 666, -578, -87, 751, 932, 434, -24, -351, -414, 
-858, -512, 346, 685, -602, -82, 790, 956, 448, -24, -370, -434, 
-893, -531, 361, 712, -627, -85, 829, 976, 473, -29, -390, -458, 
-946, -561, 385, 753, -666, -87, 878, 1010, 492, -29, -409, -483, 
-995, -585, 409, 790, -702, -87, 922, 1049, 522, -34, -434, -507, 
-1044, -610, 434, 827, -739, -87, 971, 1078, 546, -43, -453, -531, 
-1093, -639, 453, 866, -773, -92, 1019, 1107, 566, -48, -473, -556, 
-1141, -658, 483, 900, -812, -87, 1068, 1146, 605, -48, -492, -575, 
-1190, -673, 517, 932, -854, -78, 1107, 1185, 639, -48, -507, -600, 
-1229, -692, 536, 961, -883, -78, 1141, 1220, 663, -48, -536, -629, 
-1263, -707, 556, 985, -910, -75, 1180, 1249, 692, -39, -546, -644, 
-1298, -722, 575, 1010, -936, -73, 1200, 1288, 727, -34, -561, -668, 
-1327, -732, 595, 1029, -961, -68, 1224, 1327, 761, -19, -566, -683, 
-1351, -732, 619, 1041, -985, -56, 1239, 1351, 785, -4, -561, -688, 
-1366, -727, 639, 1046, -1002, -43, 1244, 1376, 814, 14, -556, -697, 
-1366, -717, 649, 1041, -1007, -34, 1249, 1390, 844, 34, -556, -697, 
-1366, -692, 673, 1029, -1019, -9, 1244, 1400, 863, 53, -546, -692, 
-1356, -663, 692, 1010, -1024, 14, 1215, 1405, 873, 73, -531, -673, 
-1332, -629, 702, 980, -1017, 36, 1171, 1410, 878, 97, -507, -653, 
-1278, -590, 688, 934, -983, 48, 1117, 1395, 878, 117, -478, -619, 
-1224, -546, 678, 885, -951, 65, 1063, 1366, 868, 131, -444, -585, 
-1161, -492, 668, 827, -915, 87, 995, 1317, 839, 141, -414, -551, 
-1098, -439, 658, 768, -878, 109, 927, 1268, 810, 151, -385, -517, 
-1005, -400, 605, 702, -805, 102, 854, 1229, 761, 161, -341, -473, 
-922, -351, 570, 636, -746, 109, 785, 1166, 722, 161, -302, -424, 
-844, -297, 546, 570, -695, 124, 702, 1093, 673, 165, -273, -390, 
-746, -253, 492, 500, -619, 119, 614, 1039, 614, 165, -239, -336, 
-658, -214, 444, 436, -551, 114, 541, 980, 556, 165, -204, -292, 
-580, -170, 409, 375, -495, 119, 478, 907, 502, 165, -170, -253, 
-502, -136, 366, 319, -434, 114, 405, 829, 453, 156, -141, -209, 
-419, -112, 307, 265, -363, 97, 336, 771, 390, 146, -117, -180, 
-336, -82, 253, 209, -295, 85, 273, 727, 341, 131, -92, -141, 
-278, -58, 219, 168, -248, 80, 224, 668, 302, 122, -73, -112, 
-224, -43, 180, 134, -202, 68, 180, 610, 263, 107, -58, -87, 
-170, -24, 146, 97, -158, 61, 131, 575, 224, 97, -39, -68, 
-126, -14, 112, 70, -119, 48, 87, 541, 180, 92, -24, -39, 
-87, 0, 87, 43, -87, 43, 63, 502, 151, 78, -4, -19, 
-68, 9, 78, 29, -73, 43, 39, 463, 126, 68, 0, -9, 
-39, 14, 53, 12, -46, 34, 9, 444, 102, 63, 4, -4, 
-19, 14, 34, 2, -26, 24, -14, 429, 78, 48, 4, 4, 
-4, 14, 19, -4, -12, 17, -24, 405, 58, 34, 4, 4, 
0, 9, 9, -4, -4, 9, -29, 385, 48, 24, 4, 9, 
4, 9, 4, -7, 0, 7, -39, 375, 34, 19, 4, 14, 
4, 4, 0, -4, 2, 2, -39, 370, 24, 14, 4, 14, 
14, 0, -14, -7, 14, -7, -43, 361, 14, 9, 4, 14, 
14, -4, -19, -4, 17, -12, -48, 356, 4, 4, 4, 9, 
14, -9, -24, -2, 19, -17, -48, 346, 4, 0, -4, 4, 
14, -14, -29, 0, 21, -21, -48, 341, 0, -9, -9, 0, 
14, -19, -34, 2, 24, -26, -48, 336, -4, -19, -19, -4, 
14, -19, -34, 2, 24, -26, -48, 326, -9, -29, -24, -4, 
9, -24, -34, 7, 21, -29, -48, 322, -14, -34, -29, -4, 
9, -29, -39, 9, 24, -34, -53, 322, -14, -34, -29, -4, 
4, -29, -34, 12, 19, -31, -48, 322, -14, -34, -29, 0, 
0, -34, -34, 17, 17, -34, -48, 322, -14, -34, -34, -9, 
-4, -39, -34, 21, 14, -36, -48, 322, -14, -29, -34, -9, 
-9, -43, -34, 26, 12, -39, -43, 322, -14, -29, -34, -4, 
-9, -43, -34, 26, 12, -39, -43, 326, -14, -29, -34, 0, 
-14, -48, -34, 31, 9, -41, -39, 326, -4, -29, -39, -9, 
-19, -53, -34, 36, 7, -43, -34, 326, 0, -34, -39, -9, 
-24, -53, -29, 39, 2, -41, -29, 326, 0, -29, -39, -14, 
-29, -58, -29, 43, 0, -43, -24, 326, 0, -29, -39, -19, 
-29, -58, -29, 43, 0, -43, -19, 326, 0, -29, -43, -19, 
-29, -58, -29, 43, 0, -43, -19, 331, 0, -29, -48, -19, 
-34, -58, -24, 46, -4, -41, -19, 331, 0, -29, -48, -24, 
-39, -58, -19, 48, -9, -39, -19, 331, 0, -29, -48, -29, 
-39, -58, -19, 48, -9, -39, -9, 331, 4, -24, -48, -29, 
-34, -48, -14, 41, -9, -31, 0, 336, 9, -19, -43, -24, 
-34, -43, -9, 39, -12, -26, 4, 346, 19, -19, -43, -19, 
-29, -34, -4, 31, -12, -19, 19, 351, 24, -14, -39, -14, 
-24, -29, -4, 26, -9, -17, 19, 351, 24, -9, -34, -9, 
-24, -24, 0, 24, -12, -12, 19, 356, 34, -4, -34, -9, 
-14, -19, -4, 17, -4, -12, 19, 351, 39, 0, -34, -4, 
-9, -14, -4, 12, -2, -9, 9, 346, 48, 4, -24, -4, 
9, 9, 0, -9, 4, 4, 4, 351, 48, 9, -19, 4, 
29, 43, 14, -36, 7, 29, -9, 351, 53, 14, -9, 14, 
53, 82, 29, -68, 12, 56, -34, 346, 53, 29, 4, 34, 
63, 92, 29, -78, 17, 61, -63, 331, 53, 29, 4, 34, 
73, 78, 4, -75, 34, 41, -82, 322, 43, 24, 4, 34, 
78, 68, -9, -73, 43, 29, -92, 312, 34, 14, 0, 34, 
78, 58, -19, -68, 48, 19, -92, 297, 24, 9, 0, 39, 
78, 58, -19, -68, 48, 19, -92, 292, 14, 9, 0, 43, 
68, 58, -9, -63, 39, 24, -92, 292, 14, 9, 0, 43, 
43, 48, 4, -46, 19, 26, -82, 287, 14, 9, 0, 43, 
14, 34, 19, -24, -2, 26, -78, 287, 19, 9, 0, 39, 
-9, 9, 19, 0, -14, 14, -58, 287, 19, 4, 0, 24, 
-19, -4, 14, 12, -17, 4, -48, 292, 19, 0, -9, 19, 
-29, -24, 4, 26, -17, -9, -39, 292, 19, -4, -24, 4, 
-34, -43, -9, 39, -12, -26, -39, 292, 9, -14, -34, -9, 
-43, -63, -19, 53, -12, -41, -34, 292, 4, -19, -43, -19, 
-43, -78, -34, 61, -4, -56, -29, 287, 4, -24, -43, -29, 
-48, -78, -29, 63, -9, -53, -29, 278, 4, -24, -48, -29, 
-48, -78, -29, 63, -9, -53, -29, 278, 4, -24, -48, -29, 
-53, -78, -24, 65, -14, -51, -29, 278, 4, -29, -53, -34, 
-53, -78, -24, 65, -14, -51, -29, 278, 0, -29, -53, -34, 
-53, -82, -29, 68, -12, -56, -29, 273, -4, -29, -53, -34, 
-53, -82, -29, 68, -12, -56, -29, 273, -4, -34, -53, -34, 
-53, -82, -29, 68, -12, -56, -29, 273, -4, -39, -53, -34, 
-53, -82, -29, 68, -12, -56, -29, 263, -4, -39, -53, -34, 
-53, -82, -29, 68, -12, -56, -29, 263, -4, -34, -53, -34, 
-53, -82, -29, 68, -12, -56, -29, 263, 0, -29, -53, -34, 
-48, -82, -34, 65, -7, -58, -29, 258, 4, -24, -48, -29, 
-48, -82, -34, 65, -7, -58, -34, 258, 4, -24, -43, -24, 
-48, -82, -34, 65, -7, -58, -39, 258, 4, -24, -39, -19, 
-29, -63, -34, 46, 2, -48, -53, 253, 9, -9, -24, -9, 
19, -9, -29, -4, 24, -19, -82, 283, 48, 34, 9, 14, 
102, 102, 0, -102, 51, 51, -165, 307, 122, 122, 82, 68, 
253, 258, 4, -256, 124, 131, -336, 224, 122, 200, 195, 165, 
439, 448, 9, -444, 214, 229, -556, 39, 53, 258, 307, 302, 
668, 619, -48, -644, 358, 285, -800, -161, -24, 326, 429, 434, 
873, 790, -82, -832, 478, 353, -1039, -400, -175, 366, 536, 566, 
1073, 932, -141, -1002, 607, 395, -1327, -707, -439, 346, 639, 702, 
1298, 985, -312, -1141, 805, 336, -1644, -1044, -736, 273, 697, 814, 
1542, 1029, -512, -1285, 1027, 258, -1986, -1405, -1058, 165, 761, 936, 
1786, 1102, -683, -1444, 1234, 209, -2288, -1766, -1395, 43, 819, 1049, 
1942, 1137, -805, -1539, 1373, 165, -2498, -2093, -1732, -97, 849, 1151, 
2059, 1190, -868, -1625, 1464, 161, -2610, -2347, -1981, -219, 868, 1249, 
2215, 1322, -893, -1769, 1554, 214, -2659, -2508, -2113, -287, 927, 1366, 
2347, 1405, -941, -1876, 1644, 231, -2649, -2513, -2152, -322, 976, 1439, 
2347, 1405, -941, -1876, 1644, 231, -2566, -2464, -2166, -370, 966, 1449, 
2264, 1366, -897, -1815, 1581, 234, -2391, -2376, -2142, -424, 932, 1439, 
2147, 1312, -834, -1729, 1490, 239, -2176, -2278, -2069, -458, 888, 1434, 
2034, 1229, -805, -1632, 1420, 212, -2039, -2186, -1986, -492, 834, 1395, 
1937, 1127, -810, -1532, 1373, 158, -1942, -2103, -1917, -507, 785, 1342, 
1888, 1005, -883, -1446, 1385, 61, -1815, -1952, -1830, -507, 766, 1288, 
1795, 810, -985, -1302, 1390, -87, -1649, -1756, -1698, -502, 702, 1190, 
1673, 624, -1049, -1149, 1361, -212, -1503, -1537, -1527, -468, 634, 1083, 
1561, 458, -1102, -1010, 1332, -322, -1376, -1351, -1410, -468, 541, 956, 
1424, 302, -1122, -863, 1273, -409, -1205, -1180, -1327, -502, 409, 810, 
1273, 165, -1107, -719, 1190, -470, -1034, -1010, -1215, -546, 278, 668, 
1112, 117, -995, -614, 1054, -439, -902, -854, -1068, -556, 185, 561, 
956, 107, -849, -531, 902, -370, -766, -668, -893, -497, 136, 468, 
814, 141, -673, -478, 744, -265, -600, -463, -683, -385, 122, 419, 
619, 141, -478, -380, 549, -168, -419, -273, -502, -292, 78, 346, 
366, 131, -234, -248, 300, -51, -248, -107, -322, -244, -19, 190, 
146, 68, -78, -107, 112, -4, -112, 82, -141, -170, -87, 43, 
-53, -78, -24, 65, -14, -51, 48, 224, -34, -141, -165, -78, 
-234, -175, 58, 204, -146, -58, 185, 312, 39, -117, -214, -141, 
-351, -195, 156, 273, -253, -19, 253, 390, 107, -97, -229, -195, 
-424, -209, 214, 317, -319, 2, 287, 463, 180, -58, -229, -209, 
-463, -239, 224, 351, -344, -7, 346, 527, 229, -9, -209, -214, 
-468, -244, 224, 356, -346, -9, 380, 551, 244, 4, -200, -214, 
-478, -244, 234, 361, -356, -4, 380, 556, 258, 9, -195, -224, 
-483, -234, 248, 358, -366, 7, 375, 570, 273, 14, -195, -224, 
-483, -244, 239, 363, -361, -2, 375, 580, 273, 14, -195, -229, 
-492, -253, 239, 373, -366, -7, 390, 585, 283, 14, -200, -234, 
-502, -258, 244, 380, -373, -7, 400, 590, 283, 9, -209, -239, 
-512, -263, 248, 387, -380, -7, 409, 600, 287, 4, -214, -244, 
-527, -278, 248, 402, -387, -14, 419, 610, 292, 4, -224, -248, 
-536, -278, 258, 407, -397, -9, 429, 619, 302, 4, -234, -253, 
-551, -292, 258, 422, -405, -17, 448, 629, 307, 4, -239, -263, 
-566, -302, 263, 434, -414, -19, 458, 639, 312, 0, -244, -268, 
-580, -312, 268, 446, -424, -21, 473, 653, 322, 0, -253, -283, 
-595, -317, 278, 456, -436, -19, 492, 668, 326, -4, -263, -292, 
-610, -326, 283, 468, -446, -21, 507, 678, 336, -9, -273, -307, 
-634, -336, 297, 485, -466, -19, 531, 697, 351, -14, -283, -317, 
-653, -346, 307, 500, -480, -19, 556, 717, 361, -14, -292, -326, 
-688, -370, 317, 529, -502, -26, 585, 732, 370, -14, -302, -331, 
-712, -390, 322, 551, -517, -34, 614, 761, 380, -19, -312, -351, 
-751, -409, 341, 580, -546, -34, 649, 780, 390, -19, -326, -366, 
-775, -429, 346, 602, -561, -41, 683, 800, 405, -24, -341, -380, 
-814, -444, 370, 629, -592, -36, 727, 819, 424, -29, -356, -405, 
-858, -463, 395, 661, -627, -34, 761, 849, 444, -34, -370, -424, 
-893, -483, 409, 688, -651, -36, 805, 873, 458, -34, -390, -444, 
-932, -512, 419, 722, -675, -46, 844, 897, 483, -39, -409, -468, 
-985, -541, 444, 763, -714, -48, 888, 932, 502, -39, -429, -492, 
-1034, -566, 468, 800, -751, -48, 932, 980, 531, -43, -453, -517, 
-1083, -590, 492, 836, -788, -48, 980, 1019, 556, -48, -473, -541, 
-1132, -619, 512, 875, -822, -53, 1029, 1049, 575, -43, -492, -566, 
-1180, -639, 541, 910, -861, -48, 1078, 1088, 614, -39, -512, -585, 
-1229, -653, 575, 941, -902, -39, 1117, 1122, 649, -39, -527, -610, 
-1273, -673, 600, 973, -936, -36, 1151, 1151, 673, -39, -551, -639, 
-1312, -688, 624, 1000, -968, -31, 1190, 1180, 702, -29, -551, -653, 
-1346, -697, 649, 1022, -997, -24, 1210, 1215, 736, -24, -561, -673, 
-1376, -707, 668, 1041, -1022, -19, 1234, 1254, 775, -4, -566, -683, 
-1395, -712, 683, 1054, -1039, -14, 1244, 1278, 805, 14, -566, -688, 
-1405, -707, 697, 1056, -1051, -4, 1249, 1298, 834, 34, -561, -692, 
-1405, -697, 707, 1051, -1056, 4, 1254, 1312, 858, 53, -556, -688, 
-1405, -668, 736, 1037, -1071, 34, 1244, 1322, 873, 73, -546, -683, 
-1385, -629, 756, 1007, -1071, 63, 1210, 1322, 883, 92, -527, -663, 
-1351, -590, 761, 971, -1056, 85, 1161, 1322, 883, 117, -502, -644, 
-1293, -546, 746, 919, -1019, 100, 1107, 1307, 878, 136, -478, -610, 
-1234, -502, 732, 868, -983, 114, 1054, 1278, 863, 146, -444, -575, 
-1171, -453, 717, 812, -944, 131, 980, 1224, 834, 151, -414, -541, 
-1102, -400, 702, 751, -902, 151, 902, 1171, 805, 161, -380, -507, 
-1005, -361, 644, 683, -824, 141, 824, 1127, 751, 170, -336, -463, 
-922, -312, 610, 617, -766, 148, 756, 1054, 712, 170, -302, -414, 
-844, -258, 585, 551, -714, 163, 673, 976, 663, 175, -273, -380, 
-741, -214, 527, 478, -634, 156, 585, 922, 600, 170, -239, -326, 
-649, -180, 468, 414, -558, 143, 512, 863, 536, 161, -204, -283, 
-570, -141, 429, 356, -500, 143, 448, 790, 483, 156, -170, -244, 
-492, -107, 385, 300, -439, 139, 375, 717, 434, 146, -141, -200, 
-409, -82, 326, 246, -368, 122, 307, 658, 370, 136, -117, -170, 
-331, -53, 278, 192, -305, 112, 244, 610, 322, 122, -92, -131, 
-278, -29, 248, 153, -263, 109, 195, 551, 283, 112, -78, -102, 
-224, -14, 209, 119, -217, 97, 151, 492, 244, 97, -68, -78, 
-170, 4, 175, 82, -173, 90, 102, 458, 204, 87, -48, -58, 
-131, 9, 141, 61, -136, 75, 63, 424, 161, 78, -39, -34, 
-97, 19, 117, 39, -107, 68, 39, 385, 131, 58, -24, -19, 
-78, 29, 107, 24, -92, 68, 9, 346, 107, 48, -19, -9, 
-48, 39, 87, 4, -68, 63, -19, 326, 82, 43, -14, -4, 
-29, 43, 73, -7, -51, 58, -39, 317, 63, 34, -14, 4, 
-14, 43, 58, -14, -36, 51, -43, 292, 48, 24, -14, 4, 
-9, 39, 48, -14, -29, 43, -48, 268, 39, 14, -14, 9, 
-4, 34, 39, -14, -21, 36, -58, 258, 24, 9, -14, 14, 
-4, 24, 29, -9, -17, 26, -58, 253, 14, 4, -14, 14, 
4, 19, 14, -12, -4, 17, -63, 248, 4, 0, -14, 14, 
4, 14, 9, -9, -2, 12, -68, 248, -4, -4, -14, 14, 
4, 14, 9, -9, -2, 12, -68, 239, -4, -9, -24, 14, 
4, 14, 9, -9, -2, 12, -68, 234, -9, -14, -24, 14, 
4, 9, 4, -7, 0, 7, -68, 229, -19, -19, -29, 14, 
4, 9, 4, -7, 0, 7, -68, 224, -24, -24, -29, 14, 
0, 4, 4, -2, -2, 4, -68, 224, -24, -24, -29, 14, 
0, 0, 0, 0, 0, 0, -68, 224, -24, -24, -29, 9, 
-4, 0, 4, 2, -4, 2, -58, 224, -24, -24, -29, 9, 
-9, -4, 4, 7, -7, 0, -58, 224, -24, -29, -34, 0, 
-14, -9, 4, 12, -9, -2, -58, 224, -24, -29, -39, 0, 
-19, -14, 4, 17, -12, -4, -53, 224, -24, -29, -43, 0, 
-19, -14, 4, 17, -12, -4, -53, 224, -24, -34, -43, 0, 
-24, -24, 0, 24, -12, -12, -48, 219, -19, -39, -48, -9, 
-29, -24, 4, 26, -17, -9, -39, 224, -19, -39, -48, -9, 
-34, -29, 4, 31, -19, -12, -34, 229, -19, -39, -48, -9, 
-34, -29, 4, 31, -19, -12, -29, 224, -14, -39, -48, -9, 
-39, -29, 9, 34, -24, -9, -29, 224, -9, -39, -48, -9, 
-39, -29, 9, 34, -24, -9, -29, 224, -9, -34, -48, -9, 
-39, -29, 9, 34, -24, -9, -29, 224, -9, -29, -48, -9, 
-39, -29, 9, 34, -24, -9, -24, 229, -4, -24, -48, -9, 
-39, -24, 14, 31, -26, -4, -19, 234, 0, -19, -43, -4, 
-39, -19, 19, 29, -29, 0, -14, 244, 9, -19, -43, -4, 
-39, -14, 24, 26, -31, 4, 0, 244, 14, -14, -39, -4, 
-34, -9, 24, 21, -29, 7, 0, 244, 14, -14, -34, 0, 
-34, -4, 29, 19, -31, 12, 0, 248, 24, -14, -34, 0, 
-24, 0, 24, 12, -24, 12, 4, 248, 24, -9, -34, 4, 
-19, 4, 24, 7, -21, 14, 0, 248, 29, -4, -24, 4, 
-4, 14, 19, -4, -12, 17, -4, 253, 34, 0, -19, 9, 
9, 34, 24, -21, -7, 29, -19, 253, 43, 4, -9, 14, 
34, 82, 48, -58, -7, 65, -39, 248, 43, 24, 9, 39, 
43, 102, 58, -73, -7, 80, -63, 234, 43, 29, 14, 43, 
53, 97, 43, -75, 4, 70, -82, 224, 34, 24, 14, 48, 
58, 97, 39, -78, 9, 68, -92, 214, 24, 14, 9, 53, 
63, 87, 24, -75, 19, 56, -97, 195, 9, 9, 9, 53, 
68, 87, 19, -78, 24, 53, -102, 185, -4, 9, 9, 53, 
68, 92, 24, -80, 21, 58, -102, 185, -4, 9, 9, 53, 
53, 87, 34, -70, 9, 61, -92, 180, -4, 9, 9, 53, 
19, 73, 53, -46, -17, 63, -87, 180, 0, 9, 4, 53, 
-9, 48, 58, -19, -34, 53, -68, 180, 0, 4, 0, 43, 
-24, 29, 53, -2, -39, 41, -58, 185, 4, 0, -4, 39, 
-39, 4, 43, 17, -41, 24, -48, 185, 9, -4, -14, 24, 
-43, -14, 29, 29, -36, 7, -48, 185, 0, -14, -24, 9, 
-53, -34, 19, 43, -36, -7, -43, 185, -4, -19, -34, 0, 
-53, -53, 0, 53, -26, -26, -39, 180, -9, -24, -39, -14, 
-58, -58, 0, 58, -29, -29, -39, 170, -14, -24, -48, -19, 
-53, -58, -4, 56, -24, -31, -39, 170, -14, -24, -48, -19, 
-53, -58, -4, 56, -24, -31, -39, 170, -14, -29, -53, -24, 
-53, -53, 0, 53, -26, -26, -39, 170, -14, -29, -53, -19, 
-53, -53, 0, 53, -26, -26, -39, 165, -14, -29, -53, -14, 
-53, -53, 0, 53, -26, -26, -39, 165, -14, -29, -48, -14, 
-53, -53, 0, 53, -26, -26, -39, 165, -14, -29, -43, -14, 
-53, -53, 0, 53, -26, -26, -39, 156, -14, -29, -43, -14, 
-53, -53, 0, 53, -26, -26, -39, 156, -14, -24, -43, -14, 
-58, -53, 4, 56, -31, -24, -39, 156, -14, -24, -48, -14, 
-58, -53, 4, 56, -31, -24, -39, 151, -14, -24, -48, -9, 
-58, -53, 4, 56, -31, -24, -39, 151, -14, -24, -48, -9, 
-58, -53, 4, 56, -31, -24, -39, 151, -14, -24, -48, -9, 
-58, -63, -4, 61, -26, -34, -39, 136, -24, -24, -43, -9, 
-29, -39, -9, 34, -9, -24, -53, 156, 0, 4, -19, 4, 
29, 48, 19, -39, 4, 34, -87, 248, 117, 97, 34, 39, 
