I, II, III, aVR, aVL, aVF, V1, V2, V3, V4, V5, V6, 
73, 209, 136, -141, -31, 173, -200, -58, 53, 902, -9, 63, 
82, 200, 117, -141, -17, 158, -200, -53, 48, 893, -9, 53, 
82, 180, 97, -131, -7, 139, -185, -43, 34, 878, -14, 43, 
82, 146, 63, -114, 9, 104, -165, -43, 24, 863, -19, 29, 
73, 112, 39, -92, 17, 75, -141, -43, 4, 829, -39, 4, 
29, 68, 39, -48, -4, 53, -126, -53, -14, 805, -58, -14, 
-14, 34, 48, -9, -31, 41, -122, -58, -24, 780, -73, -34, 
-19, 4, 24, 7, -21, 14, -107, -58, -24, 766, -73, -43, 
-19, -14, 4, 17, -12, -4, -102, -58, -34, 746, -82, -53, 
-19, -19, 0, 19, -9, -9, -92, -53, -34, 736, -87, -58, 
-14, -9, 4, 12, -9, -2, -87, -53, -34, 727, -92, -63, 
-14, -19, -4, 17, -4, -12, -82, -53, -43, 727, -92, -68, 
-14, -19, -4, 17, -4, -12, -78, -48, -48, 712, -92, -68, 
-19, -19, 0, 19, -9, -9, -58, -48, -48, 702, -92, -68, 
-19, -19, 0, 19, -9, -9, -43, -48, -48, 692, -87, -73, 
-29, -19, 9, 24, -19, -4, -43, -43, -48, 692, -82, -73, 
-29, -19, 9, 24, -19, -4, -48, -43, -48, 688, -82, -73, 
-29, -19, 9, 24, -19, -4, -48, -43, -48, 678, -78, -73, 
-29, -19, 9, 24, -19, -4, -48, -43, -48, 668, -73, -73, 
-29, -14, 14, 21, -21, 0, -48, -39, -43, 668, -68, -73, 
-29, -14, 14, 21, -21, 0, -48, -39, -43, 663, -68, -78, 
-29, -19, 9, 24, -19, -4, -39, -29, -39, 653, -68, -78, 
-39, -19, 19, 29, -29, 0, -19, 0, -4, 653, -68, -78, 
-58, 4, 63, 26, -61, 34, 19, 87, 131, 722, -39, -68, 
-92, 78, 170, 7, -131, 124, 63, 185, 331, 863, 43, -39, 
-92, 248, 341, -78, -217, 295, 58, 263, 614, 1137, 224, 68, 
-24, 468, 492, -222, -258, 480, -34, 346, 980, 1517, 512, 244, 
185, 814, 629, -500, -222, 722, -278, 556, 1527, 2103, 951, 536, 
468, 1268, 800, -868, -165, 1034, -585, 707, 2093, 2742, 1429, 849, 
732, 1615, 883, -1173, -75, 1249, -927, 551, 2254, 3172, 1820, 1098, 
1010, 1800, 790, -1405, 109, 1295, -1249, 356, 1986, 3225, 1912, 1224, 
1268, 1732, 463, -1500, 402, 1098, -1542, -97, 1244, 2684, 1634, 1112, 
1361, 1468, 107, -1415, 627, 788, -1717, -873, -53, 1600, 1039, 844, 
1351, 1019, -331, -1185, 841, 344, -1820, -1756, -1581, 385, 385, 527, 
1215, 429, -785, -822, 1000, -178, -1698, -2464, -2644, -512, -185, 209, 
1000, -68, -1068, -466, 1034, -568, -1405, -2820, -2947, -961, -541, -24, 
888, -400, -1288, -244, 1088, -844, -1078, -2693, -2976, -1166, -741, -200, 
692, -439, -1132, -126, 912, -785, -746, -2137, -2518, -966, -692, -200, 
414, -287, -702, -63, 558, -495, -536, -1483, -1786, -527, -463, -87, 
185, -146, -331, -19, 258, -239, -400, -1054, -1200, -136, -234, -9, 
34, -73, -107, 19, 70, -90, -214, -732, -819, 117, -170, -24, 
-68, -82, -14, 75, -26, -48, -4, -439, -580, 209, -185, -92, 
-102, -97, 4, 100, -53, -46, 82, -248, -414, 263, -185, -161, 
-107, -87, 19, 97, -63, -34, 82, -190, -297, 361, -161, -161, 
-112, -63, 48, 87, -80, -7, 87, -190, -258, 424, -122, -126, 
-112, -29, 82, 70, -97, 26, 97, -165, -258, 424, -87, -107, 
-112, -24, 87, 68, -100, 31, 82, -131, -224, 424, -82, -117, 
-102, -19, 82, 61, -92, 31, 82, -112, -175, 468, -78, -117, 
-102, -19, 82, 61, -92, 31, 73, -107, -161, 488, -63, -117, 
-102, -14, 87, 58, -95, 36, 73, -87, -156, 488, -58, -117, 
-102, -9, 92, 56, -97, 41, 73, -78, -151, 492, -58, -117, 
-107, -4, 102, 56, -104, 48, 73, -68, -126, 502, -53, -117, 
-107, 0, 107, 53, -107, 53, 73, -63, -126, 502, -48, -117, 
-107, 4, 112, 51, -109, 58, 73, -58, -117, 517, -39, -117, 
-102, 4, 107, 48, -104, 56, 78, -53, -117, 517, -34, -117, 
-97, 14, 112, 41, -104, 63, 82, -48, -112, 531, -29, -112, 
-92, 19, 112, 36, -102, 65, 87, -43, -112, 536, -29, -112, 
-92, 19, 112, 36, -102, 65, 92, -43, -107, 536, -19, -112, 
-97, 24, 122, 36, -109, 73, 97, -43, -107, 536, -19, -112, 
-97, 24, 122, 36, -109, 73, 92, -43, -107, 541, -14, -112, 
-97, 24, 122, 36, -109, 73, 87, -43, -107, 541, -9, -117, 
-97, 29, 126, 34, -112, 78, 82, -39, -107, 546, -4, -117, 
-102, 34, 136, 34, -119, 85, 82, -39, -102, 556, -4, -117, 
-102, 39, 141, 31, -122, 90, 82, -34, -102, 556, 0, -117, 
-102, 39, 141, 31, -122, 90, 87, -24, -102, 556, 0, -117, 
-102, 39, 141, 31, -122, 90, 87, -19, -102, 556, 0, -117, 
-102, 43, 146, 29, -124, 95, 92, -14, -102, 556, 4, -117, 
-107, 53, 161, 26, -134, 107, 102, -14, -97, 556, 4, -112, 
-112, 53, 165, 29, -139, 109, 102, -14, -97, 556, 4, -112, 
-112, 53, 165, 29, -139, 109, 102, -4, -97, 556, 9, -112, 
-112, 53, 165, 29, -139, 109, 97, -4, -97, 556, 9, -112, 
-107, 58, 165, 24, -136, 112, 97, 4, -92, 556, 14, -112, 
-107, 58, 165, 24, -136, 112, 97, 9, -92, 556, 19, -112, 
-107, 63, 170, 21, -139, 117, 102, 14, -92, 561, 19, -112, 
-112, 63, 175, 24, -143, 119, 107, 19, -92, 566, 19, -112, 
-112, 68, 180, 21, -146, 124, 112, 24, -87, 566, 24, -107, 
-112, 68, 180, 21, -146, 124, 112, 29, -87, 566, 24, -107, 
-117, 73, 190, 21, -153, 131, 112, 34, -87, 566, 24, -107, 
-122, 73, 195, 24, -158, 134, 117, 39, -87, 566, 29, -107, 
-122, 78, 200, 21, -161, 139, 117, 53, -82, 566, 29, -107, 
-126, 78, 204, 24, -165, 141, 112, 58, -82, 566, 29, -107, 
-122, 92, 214, 14, -168, 153, 112, 73, -73, 566, 34, -102, 
-126, 97, 224, 14, -175, 161, 112, 78, -73, 561, 34, -102, 
-131, 97, 229, 17, -180, 163, 126, 87, -73, 566, 39, -97, 
-131, 97, 229, 17, -180, 163, 136, 97, -73, 570, 43, -97, 
-131, 107, 239, 12, -185, 173, 141, 122, -68, 570, 39, -97, 
-136, 112, 248, 12, -192, 180, 146, 131, -68, 570, 39, -97, 
-136, 117, 253, 9, -195, 185, 151, 146, -58, 570, 39, -92, 
-141, 122, 263, 9, -202, 192, 156, 156, -53, 566, 39, -87, 
-146, 126, 273, 9, -209, 200, 161, 180, -43, 566, 39, -87, 
-151, 126, 278, 12, -214, 202, 170, 185, -43, 561, 39, -87, 
-156, 122, 278, 17, -217, 200, 195, 200, -43, 561, 39, -87, 
-165, 112, 278, 26, -222, 195, 209, 204, -48, 556, 29, -87, 
-170, 117, 287, 26, -229, 202, 224, 214, -39, 561, 29, -87, 
-175, 117, 292, 29, -234, 204, 229, 219, -39, 551, 29, -97, 
-180, 122, 302, 29, -241, 212, 234, 239, -34, 546, 34, -92, 
-190, 131, 322, 29, -256, 226, 229, 244, -34, 536, 29, -97, 
-200, 131, 331, 34, -265, 231, 239, 258, -24, 531, 24, -97, 
-214, 131, 346, 41, -280, 239, 234, 263, -19, 527, 19, -102, 
-224, 131, 356, 46, -290, 244, 244, 263, -19, 527, 19, -102, 
-229, 131, 361, 48, -295, 246, 239, 258, -19, 517, 14, -107, 
-234, 131, 366, 51, -300, 248, 244, 248, -29, 512, 14, -107, 
-239, 126, 366, 56, -302, 246, 244, 219, -29, 502, 4, -107, 
-248, 131, 380, 58, -314, 256, 253, 180, -43, 492, 4, -107, 
-258, 126, 385, 65, -322, 256, 258, 146, -58, 478, 0, -112, 
-263, 122, 385, 70, -324, 253, 244, 117, -73, 473, -4, -107, 
-263, 117, 380, 73, -322, 248, 224, 73, -87, 463, -9, -107, 
-258, 112, 370, 73, -314, 241, 204, 39, -92, 463, -9, -107, 
-258, 107, 366, 75, -312, 236, 170, 4, -97, 463, -4, -107, 
-253, 102, 356, 75, -305, 229, 151, -19, -97, 463, 0, -107, 
-244, 102, 346, 70, -295, 224, 117, -48, -97, 468, 0, -107, 
-229, 107, 336, 61, -283, 222, 97, -58, -87, 502, 19, -97, 
-204, 117, 322, 43, -263, 219, 73, -68, -78, 517, 29, -97, 
-180, 117, 297, 31, -239, 207, 63, -68, -53, 541, 48, -87, 
-151, 126, 278, 12, -214, 202, 48, -78, -39, 570, 68, -82, 
-117, 131, 248, -7, -183, 190, 14, -68, -19, 605, 87, -73, 
-82, 141, 224, -29, -153, 183, -9, -68, -4, 624, 107, -73, 
-53, 156, 209, -51, -131, 183, -34, -58, 14, 649, 131, -58, 
-34, 165, 200, -65, -117, 183, -58, -58, 29, 663, 141, -58, 
-19, 175, 195, -78, -107, 185, -82, -48, 48, 697, 156, -48, 
4, 180, 175, -92, -85, 178, -97, -43, 53, 712, 170, -43, 
14, 180, 165, -97, -75, 173, -102, -39, 63, 722, 185, -39, 
29, 180, 151, -104, -61, 165, -102, -34, 63, 732, 190, -34, 
39, 185, 146, -112, -53, 165, -112, -29, 73, 746, 200, -29, 
43, 190, 146, -117, -51, 168, -112, -29, 73, 756, 204, -24, 
53, 195, 141, -124, -43, 168, -112, -29, 82, 766, 209, -24, 
58, 200, 141, -129, -41, 170, -117, -29, 87, 766, 214, -24, 
63, 200, 136, -131, -36, 168, -126, -29, 87, 775, 229, -19, 
68, 200, 131, -134, -31, 165, -136, -34, 87, 775, 234, -19, 
63, 200, 136, -131, -36, 168, -141, -34, 82, 775, 234, -19, 
58, 204, 146, -131, -43, 175, -146, -34, 78, 775, 234, -14, 
58, 204, 146, -131, -43, 175, -146, -34, 78, 780, 239, -9, 
63, 204, 141, -134, -39, 173, -151, -34, 73, 780, 244, -4, 
68, 209, 141, -139, -36, 175, -151, -39, 73, 785, 244, -4, 
68, 214, 146, -141, -39, 180, -151, -39, 73, 785, 244, -4, 
68, 214, 146, -141, -39, 180, -151, -39, 73, 785, 248, -4, 
68, 214, 146, -141, -39, 180, -146, -39, 78, 785, 248, -4, 
68, 214, 146, -141, -39, 180, -156, -39, 78, 785, 248, -4, 
68, 214, 146, -141, -39, 180, -161, -39, 73, 785, 253, -4, 
68, 214, 146, -141, -39, 180, -151, -39, 73, 785, 253, -4, 
63, 214, 151, -139, -43, 183, -141, -39, 68, 780, 253, -9, 
63, 209, 146, -136, -41, 178, -141, -43, 63, 780, 258, -9, 
63, 200, 136, -131, -36, 168, -136, -43, 58, 780, 258, -9, 
58, 200, 141, -129, -41, 170, -136, -48, 58, 780, 258, -9, 
58, 200, 141, -129, -41, 170, -131, -48, 53, 780, 258, -9, 
53, 200, 146, -126, -46, 173, -131, -48, 53, 785, 263, -9, 
48, 200, 151, -124, -51, 175, -131, -48, 48, 785, 268, -9, 
43, 200, 156, -122, -56, 178, -131, -53, 48, 785, 268, -9, 
43, 200, 156, -122, -56, 178, -131, -53, 43, 785, 268, -9, 
43, 200, 156, -122, -56, 178, -131, -53, 43, 785, 268, -9, 
39, 204, 165, -122, -63, 185, -131, -53, 34, 780, 268, -9, 
39, 204, 165, -122, -63, 185, -126, -53, 34, 780, 268, -9, 
34, 204, 170, -119, -68, 187, -122, -58, 34, 780, 268, -14, 
34, 204, 170, -119, -68, 187, -117, -58, 34, 780, 273, -14, 
24, 200, 175, -112, -75, 187, -117, -58, 24, 780, 273, -14, 
24, 200, 175, -112, -75, 187, -117, -58, 34, 780, 273, -14, 
24, 195, 170, -109, -73, 183, -122, -58, 34, 775, 273, -14, 
24, 195, 170, -109, -73, 183, -122, -58, 29, 775, 278, -14, 
24, 195, 170, -109, -73, 183, -117, -58, 29, 775, 283, -19, 
19, 195, 175, -107, -78, 185, -117, -58, 29, 775, 283, -19, 
14, 190, 175, -102, -80, 183, -112, -58, 29, 775, 283, -19, 
14, 190, 175, -102, -80, 183, -112, -58, 29, 775, 283, -19, 
14, 190, 175, -102, -80, 183, -112, -58, 24, 775, 283, -19, 
9, 180, 170, -95, -80, 175, -112, -58, 29, 775, 287, -19, 
9, 180, 170, -95, -80, 175, -112, -58, 29, 771, 287, -24, 
14, 180, 165, -97, -75, 173, -117, -53, 29, 775, 287, -24, 
19, 180, 161, -100, -70, 170, -122, -53, 29, 780, 287, -24, 
24, 180, 156, -102, -65, 168, -117, -53, 29, 780, 287, -24, 
24, 180, 156, -102, -65, 168, -117, -53, 24, 780, 287, -24, 
19, 180, 161, -100, -70, 170, -107, -53, 24, 780, 292, -24, 
14, 180, 165, -97, -75, 173, -97, -48, 24, 780, 297, -24, 
14, 175, 161, -95, -73, 168, -102, -48, 24, 780, 297, -24, 
14, 175, 161, -95, -73, 168, -102, -48, 19, 780, 297, -29, 
14, 180, 165, -97, -75, 173, -107, -43, 19, 780, 297, -29, 
14, 180, 165, -97, -75, 173, -112, -43, 14, 780, 297, -29, 
14, 180, 165, -97, -75, 173, -112, -43, 14, 780, 297, -29, 
14, 180, 165, -97, -75, 173, -107, -43, 14, 771, 297, -29, 
19, 180, 161, -100, -70, 170, -107, -39, 14, 780, 302, -24, 
19, 180, 161, -100, -70, 170, -107, -39, 19, 780, 302, -24, 
19, 175, 156, -97, -68, 165, -102, -39, 19, 785, 312, -24, 
19, 175, 156, -97, -68, 165, -102, -39, 19, 790, 317, -24, 
19, 175, 156, -97, -68, 165, -102, -34, 14, 785, 317, -24, 
19, 175, 156, -97, -68, 165, -107, -34, 9, 785, 317, -24, 
14, 170, 156, -92, -70, 163, -107, -34, 9, 785, 317, -24, 
9, 165, 156, -87, -73, 161, -107, -34, 9, 780, 317, -24, 
9, 165, 156, -87, -73, 161, -112, -34, 4, 780, 317, -24, 
9, 165, 156, -87, -73, 161, -117, -29, 4, 775, 317, -24, 
9, 170, 161, -90, -75, 165, -117, -29, 4, 780, 317, -24, 
9, 175, 165, -92, -78, 170, -122, -29, 4, 785, 317, -24, 
14, 165, 151, -90, -68, 158, -117, -24, 4, 785, 317, -24, 
14, 165, 151, -90, -68, 158, -117, -19, -4, 785, 317, -29, 
9, 165, 156, -87, -73, 161, -112, -19, 0, 785, 317, -29, 
4, 165, 161, -85, -78, 163, -107, -19, -4, 785, 317, -29, 
4, 165, 161, -85, -78, 163, -102, -19, -4, 790, 317, -29, 
4, 161, 156, -82, -75, 158, -97, -19, -4, 790, 317, -29, 
4, 165, 161, -85, -78, 163, -97, -14, 0, 790, 322, -24, 
4, 170, 165, -87, -80, 168, -102, -14, 4, 790, 326, -19, 
4, 170, 165, -87, -80, 168, -102, -14, 4, 785, 331, -19, 
4, 165, 161, -85, -78, 163, -97, -14, 4, 785, 336, -14, 
4, 165, 161, -85, -78, 163, -102, -14, 4, 785, 336, -14, 
-4, 165, 170, -80, -87, 168, -102, -14, 4, 785, 331, -19, 
0, 165, 165, -82, -82, 165, -102, -9, 4, 785, 331, -19, 
-4, 165, 170, -80, -87, 168, -97, -9, 4, 785, 331, -19, 
-9, 165, 175, -78, -92, 170, -97, -9, 4, 785, 331, -19, 
-14, 165, 180, -75, -97, 173, -97, -9, 4, 785, 331, -19, 
-14, 161, 175, -73, -95, 168, -102, -9, 4, 785, 331, -19, 
-14, 161, 175, -73, -95, 168, -102, -14, 4, 780, 331, -19, 
-9, 156, 165, -73, -87, 161, -97, -9, 0, 780, 336, -14, 
-4, 156, 161, -75, -82, 158, -97, -9, 0, 785, 341, -9, 
-4, 156, 161, -75, -82, 158, -92, -9, 0, 780, 341, -9, 
-9, 156, 165, -73, -87, 161, -87, -9, 0, 780, 341, -9, 
-9, 156, 165, -73, -87, 161, -87, -9, 4, 780, 341, -9, 
-9, 156, 165, -73, -87, 161, -87, -9, 9, 780, 341, -9, 
-9, 156, 165, -73, -87, 161, -82, -9, 9, 780, 341, -9, 
-9, 156, 165, -73, -87, 161, -78, -9, 9, 780, 341, -9, 
-9, 151, 161, -70, -85, 156, -78, -9, 4, 780, 341, -14, 
-9, 146, 156, -68, -82, 151, -78, -9, 0, 780, 341, -19, 
-9, 146, 156, -68, -82, 151, -78, -9, 0, 780, 341, -19, 
-9, 146, 156, -68, -82, 151, -78, -9, 0, 780, 341, -19, 
-9, 146, 156, -68, -82, 151, -78, -9, 4, 780, 341, -19, 
-9, 146, 156, -68, -82, 151, -78, -9, 9, 780, 341, -19, 
-9, 146, 156, -68, -82, 151, -78, -9, 9, 775, 341, -19, 
-9, 146, 156, -68, -82, 151, -78, -9, 9, 771, 341, -19, 
-9, 146, 156, -68, -82, 151, -78, -9, 9, 771, 346, -19, 
-9, 146, 156, -68, -82, 151, -78, -9, 9, 771, 351, -19, 
-9, 141, 151, -65, -80, 146, -73, -9, 4, 771, 351, -19, 
-9, 136, 146, -63, -78, 141, -68, -9, 0, 771, 351, -19, 
-9, 136, 146, -63, -78, 141, -68, -9, 0, 771, 351, -19, 
-9, 136, 146, -63, -78, 141, -68, -9, 0, 771, 351, -19, 
-9, 136, 146, -63, -78, 141, -68, -9, 0, 771, 351, -19, 
-9, 136, 146, -63, -78, 141, -68, -9, 0, 771, 351, -19, 
-9, 131, 141, -61, -75, 136, -58, -9, -4, 766, 351, -19, 
-9, 126, 136, -58, -73, 131, -48, -9, -9, 761, 351, -19, 
-9, 126, 136, -58, -73, 131, -48, -9, -9, 761, 351, -19, 
-4, 126, 131, -61, -68, 129, -43, -4, -4, 761, 351, -14, 
-4, 126, 131, -61, -68, 129, -43, -4, -4, 761, 356, -14, 
-4, 131, 136, -63, -70, 134, -34, 4, 0, 766, 361, -9, 
4, 141, 136, -73, -65, 139, -24, 9, 9, 766, 366, -9, 
9, 156, 146, -82, -68, 151, -14, 14, 24, 775, 375, 4, 
9, 175, 165, -92, -78, 170, 4, 19, 34, 785, 380, 9, 
9, 175, 165, -92, -78, 170, 14, 29, 43, 790, 385, 9, 
9, 180, 170, -95, -80, 175, 39, 39, 43, 795, 390, 9, 
9, 190, 180, -100, -85, 185, 43, 58, 68, 814, 405, 24, 
9, 209, 200, -109, -95, 204, 39, 68, 78, 824, 414, 29, 
29, 244, 214, -136, -92, 229, 24, 82, 97, 839, 429, 43, 
48, 258, 209, -153, -80, 234, -39, 78, 102, 839, 429, 43, 
48, 258, 209, -153, -80, 234, -97, 68, 102, 839, 434, 53, 
43, 263, 219, -153, -87, 241, -102, 29, 102, 839, 434, 53, 
39, 268, 229, -153, -95, 248, -102, -4, 97, 844, 439, 63, 
39, 268, 229, -153, -95, 248, -117, -14, 97, 844, 439, 63, 
39, 283, 244, -161, -102, 263, -136, -14, 97, 844, 448, 68, 
43, 278, 234, -161, -95, 256, -151, -24, 87, 839, 448, 68, 
48, 283, 234, -165, -92, 258, -161, -29, 82, 834, 448, 68, 
58, 263, 204, -161, -73, 234, -185, -39, 68, 819, 439, 63, 
73, 248, 175, -161, -51, 212, -195, -48, 48, 810, 434, 58, 
63, 239, 175, -151, -56, 207, -200, -48, 43, 805, 429, 53, 
63, 229, 165, -146, -51, 197, -200, -43, 39, 800, 424, 48, 
63, 209, 146, -136, -41, 178, -185, -34, 24, 790, 424, 43, 
63, 175, 112, -119, -24, 143, -165, -34, 14, 780, 419, 29, 
53, 141, 87, -97, -17, 114, -146, -34, -4, 751, 390, 4, 
9, 97, 87, -53, -39, 92, -136, -43, -29, 732, 366, -14, 
-34, 58, 92, -12, -63, 75, -131, -48, -43, 712, 346, -34, 
-39, 34, 73, 2, -56, 53, -112, -48, -43, 702, 341, -43, 
-39, 24, 63, 7, -51, 43, -102, -48, -53, 688, 326, -53, 
-39, 9, 48, 14, -43, 29, -92, -43, -53, 683, 322, -58, 
-34, 9, 43, 12, -39, 26, -87, -43, -53, 678, 317, -63, 
-34, 0, 34, 17, -34, 17, -82, -43, -58, 678, 312, -68, 
-29, 0, 29, 14, -29, 14, -78, -39, -58, 668, 312, -68, 
-29, 0, 29, 14, -29, 14, -73, -39, -58, 673, 312, -68, 
-29, 0, 29, 14, -29, 14, -73, -39, -58, 673, 312, -73, 
-39, 0, 39, 19, -39, 19, -63, -34, -58, 673, 312, -73, 
-39, 0, 39, 19, -39, 19, -58, -34, -58, 668, 312, -73, 
-39, 0, 39, 19, -39, 19, -58, -34, -58, 668, 317, -73, 
-39, 0, 39, 19, -39, 19, -58, -34, -58, 668, 317, -73, 
-39, 4, 43, 17, -41, 24, -58, -29, -53, 668, 317, -73, 
-39, 4, 43, 17, -41, 24, -58, -29, -48, 663, 312, -78, 
-39, 4, 43, 17, -41, 24, -48, -14, -34, 663, 312, -78, 
-58, 9, 68, 24, -63, 39, -29, 29, 14, 683, 317, -78, 
-82, 39, 122, 21, -102, 80, 4, 126, 170, 780, 356, -63, 
-87, 146, 234, -29, -161, 190, 39, 239, 405, 980, 458, -4, 
-63, 346, 409, -141, -236, 378, 19, 331, 712, 1298, 678, 136, 
24, 566, 541, -295, -258, 553, -112, 405, 1078, 1683, 990, 322, 
263, 912, 649, -588, -192, 780, -385, 590, 1605, 2269, 1420, 605, 
566, 1351, 785, -958, -109, 1068, -692, 678, 2044, 2825, 1839, 883, 
839, 1673, 834, -1256, 2, 1254, -1034, 448, 2064, 3137, 2137, 1102, 
1083, 1766, 683, -1424, 200, 1224, -1337, 141, 1644, 3020, 2108, 1171, 
1288, 1610, 322, -1449, 483, 966, -1610, -419, 775, 2322, 1737, 1005, 
1342, 1327, -14, -1334, 678, 656, -1761, -1215, -478, 1288, 1146, 736, 
1302, 863, -439, -1083, 871, 212, -1810, -2059, -1888, 180, 527, 419, 
1156, 292, -863, -724, 1010, -285, -1649, -2635, -2776, -605, 4, 112, 
941, -165, -1107, -387, 1024, -636, -1346, -2840, -2947, -946, -302, -107, 
810, -409, -1220, -200, 1015, -814, -1019, -2586, -2859, -1034, -419, -234, 
595, -395, -990, -100, 793, -692, -692, -1981, -2303, -761, -302, -190, 
331, -258, -590, -36, 461, -424, -497, -1366, -1610, -356, -82, -78, 
117, -122, -239, 2, 178, -180, -370, -961, -1083, 0, 117, -4, 
-24, -53, -29, 39, 2, -41, -185, -658, -746, 229, 161, -24, 
-102, -63, 39, 82, -70, -12, 14, -390, -536, 307, 146, -92, 
-122, -78, 43, 100, -82, -17, 82, -214, -385, 356, 146, -161, 
-126, -68, 58, 97, -92, -4, 73, -161, -287, 448, 170, -161, 
-131, -43, 87, 87, -109, 21, 78, -161, -258, 512, 209, -126, 
-131, -9, 122, 70, -126, 56, 92, -136, -258, 512, 239, -107, 
-131, -4, 126, 68, -129, 61, 82, -102, -224, 512, 244, -117, 
-122, 0, 122, 61, -122, 61, 82, -82, -180, 546, 248, -117, 
-122, 0, 122, 61, -122, 61, 73, -78, -170, 556, 263, -117, 
-122, 4, 126, 58, -124, 65, 73, -63, -165, 556, 273, -117, 
-122, 4, 126, 58, -124, 65, 73, -58, -165, 566, 273, -117, 
-126, 4, 131, 61, -129, 68, 73, -48, -146, 580, 278, -117, 
-131, 9, 141, 61, -136, 75, 68, -43, -146, 580, 283, -117, 
-136, 14, 151, 61, -143, 82, 63, -39, -136, 595, 292, -117, 
-131, 14, 146, 58, -139, 80, 68, -39, -136, 595, 292, -117, 
-131, 19, 151, 56, -141, 85, 68, -39, -131, 605, 292, -112, 
-131, 19, 151, 56, -141, 85, 68, -34, -131, 605, 292, -112, 
-131, 19, 151, 56, -141, 85, 73, -34, -126, 605, 302, -112, 
-136, 24, 161, 56, -148, 92, 78, -34, -122, 605, 307, -112, 
-136, 24, 161, 56, -148, 92, 78, -34, -117, 610, 312, -107, 
-136, 24, 161, 56, -148, 92, 82, -34, -117, 610, 312, -107, 
-136, 29, 165, 53, -151, 97, 82, -29, -117, 610, 317, -107, 
-136, 39, 175, 48, -156, 107, 87, -24, -112, 619, 317, -102, 
-131, 48, 180, 41, -156, 114, 87, -14, -112, 624, 322, -97, 
-131, 48, 180, 41, -156, 114, 87, -4, -112, 624, 322, -97, 
-131, 48, 180, 41, -156, 114, 87, -4, -112, 624, 322, -97, 
-131, 48, 180, 41, -156, 114, 87, -4, -112, 624, 326, -102, 
-131, 53, 185, 39, -158, 119, 92, -4, -107, 624, 326, -102, 
-136, 53, 190, 41, -163, 122, 92, -4, -107, 624, 326, -102, 
-141, 53, 195, 43, -168, 124, 92, 4, -107, 624, 331, -102, 
-141, 53, 195, 43, -168, 124, 82, 4, -107, 624, 331, -102, 
-141, 58, 200, 41, -170, 129, 78, 14, -102, 624, 331, -102, 
-146, 58, 204, 43, -175, 131, 78, 19, -102, 624, 331, -102, 
-146, 63, 209, 41, -178, 136, 78, 24, -102, 624, 331, -102, 
-151, 63, 214, 43, -183, 139, 82, 29, -102, 624, 331, -102, 
-151, 68, 219, 41, -185, 143, 92, 34, -97, 624, 336, -97, 
-151, 68, 219, 41, -185, 143, 92, 39, -97, 624, 336, -97, 
-151, 73, 224, 39, -187, 148, 92, 43, -97, 624, 336, -97, 
-151, 73, 224, 39, -187, 148, 92, 48, -97, 624, 341, -97, 
-151, 78, 229, 36, -190, 153, 97, 63, -92, 624, 341, -97, 
-156, 78, 234, 39, -195, 156, 102, 73, -92, 624, 341, -97, 
-156, 87, 244, 34, -200, 165, 102, 92, -82, 624, 346, -92, 
-165, 87, 253, 39, -209, 170, 102, 97, -82, 624, 346, -92, 
-170, 87, 258, 41, -214, 173, 112, 107, -78, 629, 346, -87, 
-170, 82, 253, 43, -212, 168, 117, 117, -73, 629, 346, -87, 
-170, 87, 258, 41, -214, 173, 122, 136, -68, 629, 341, -87, 
-175, 92, 268, 41, -222, 180, 126, 141, -68, 629, 341, -87, 
-175, 92, 268, 41, -222, 180, 131, 156, -63, 629, 341, -87, 
-180, 97, 278, 41, -229, 187, 141, 170, -63, 624, 341, -87, 
-185, 107, 292, 39, -239, 200, 151, 200, -53, 624, 341, -87, 
-190, 107, 297, 41, -244, 202, 161, 204, -53, 619, 341, -92, 
-195, 112, 307, 41, -251, 209, 175, 219, -48, 619, 341, -97, 
-204, 107, 312, 48, -258, 209, 180, 224, -48, 614, 331, -97, 
-209, 107, 317, 51, -263, 212, 195, 239, -39, 614, 331, -97, 
-214, 107, 322, 53, -268, 214, 200, 248, -39, 605, 331, -107, 
-219, 107, 326, 56, -273, 217, 209, 268, -34, 605, 331, -97, 
-229, 112, 341, 58, -285, 226, 209, 273, -34, 595, 322, -97, 
-239, 112, 351, 63, -295, 231, 224, 283, -29, 590, 317, -97, 
-248, 112, 361, 68, -305, 236, 224, 283, -29, 590, 312, -102, 
-253, 112, 366, 70, -309, 239, 239, 278, -29, 590, 312, -102, 
-258, 112, 370, 73, -314, 241, 239, 268, -29, 580, 312, -107, 
-268, 112, 380, 78, -324, 246, 244, 258, -39, 575, 312, -107, 
-278, 107, 385, 85, -331, 246, 234, 229, -34, 566, 297, -107, 
-287, 107, 395, 90, -341, 251, 224, 195, -43, 561, 297, -107, 
-297, 97, 395, 100, -346, 246, 209, 165, -58, 546, 292, -112, 
-302, 92, 395, 104, -348, 244, 185, 136, -73, 541, 287, -112, 
-302, 87, 390, 107, -346, 239, 165, 92, -87, 531, 283, -112, 
-297, 82, 380, 107, -339, 231, 161, 58, -97, 531, 278, -107, 
-297, 78, 375, 109, -336, 226, 146, 24, -107, 531, 283, -107, 
-292, 73, 366, 109, -329, 219, 131, 0, -107, 531, 292, -107, 
-283, 73, 356, 104, -319, 214, 97, -29, -107, 531, 292, -107, 
-268, 73, 341, 97, -305, 207, 73, -39, -97, 561, 312, -97, 
-244, 78, 322, 82, -283, 200, 39, -48, -87, 575, 322, -97, 
-219, 78, 297, 70, -258, 187, 14, -48, -63, 600, 336, -87, 
-190, 92, 283, 48, -236, 187, -9, -63, -48, 629, 351, -82, 
-161, 102, 263, 29, -212, 183, -34, -58, -29, 663, 366, -73, 
-131, 112, 244, 9, -187, 178, -39, -58, -19, 683, 380, -73, 
-102, 122, 224, -9, -163, 173, -48, -48, -4, 707, 405, -58, 
-82, 122, 204, -19, -143, 163, -68, -48, 4, 717, 409, -58, 
-68, 126, 195, -29, -131, 161, -92, -39, 19, 746, 419, -48, 
-48, 131, 180, -41, -114, 156, -117, -34, 24, 761, 434, -43, 
-43, 136, 180, -46, -112, 158, -131, -29, 39, 771, 448, -39, 
-29, 141, 170, -56, -100, 156, -131, -24, 43, 775, 453, -34, 
-14, 146, 161, -65, -87, 153, -146, -19, 53, 785, 458, -29, 
-4, 151, 156, -73, -80, 153, -151, -19, 48, 795, 458, -24, 
4, 156, 151, -80, -73, 153, -151, -19, 48, 805, 463, -24, 
9, 161, 151, -85, -70, 156, -151, -24, 48, 805, 468, -24, 
14, 161, 146, -87, -65, 153, -156, -24, 48, 814, 478, -19, 
19, 156, 136, -87, -58, 146, -165, -24, 48, 814, 478, -19, 
19, 151, 131, -85, -56, 141, -165, -24, 48, 814, 478, -19, 
19, 156, 136, -87, -58, 146, -165, -24, 48, 814, 478, -14, 
19, 156, 136, -87, -58, 146, -165, -24, 53, 819, 478, -14, 
19, 156, 136, -87, -58, 146, -170, -24, 53, 814, 478, -14, 
14, 156, 141, -85, -63, 148, -170, -29, 53, 814, 478, -14, 
9, 156, 146, -82, -68, 151, -165, -29, 53, 814, 478, -14, 
9, 156, 146, -82, -68, 151, -161, -29, 48, 814, 483, -14, 
9, 156, 146, -82, -68, 151, -156, -29, 48, 814, 478, -14, 
9, 156, 146, -82, -68, 151, -156, -29, 48, 814, 473, -14, 
9, 156, 146, -82, -68, 151, -165, -34, 43, 819, 478, -14, 
9, 156, 146, -82, -68, 151, -180, -39, 43, 824, 478, -14, 
4, 156, 151, -80, -73, 153, -170, -39, 39, 819, 483, -19, 
4, 156, 151, -80, -73, 153, -165, -43, 39, 819, 488, -19, 
4, 151, 146, -78, -70, 148, -161, -43, 34, 814, 483, -19, 
0, 151, 151, -75, -75, 151, -156, -48, 29, 810, 483, -19, 
0, 151, 151, -75, -75, 151, -151, -48, 24, 810, 483, -19, 
0, 151, 151, -75, -75, 151, -151, -48, 24, 810, 483, -19, 
0, 151, 151, -75, -75, 151, -151, -48, 24, 805, 483, -19, 
-4, 151, 156, -73, -80, 153, -151, -53, 29, 805, 483, -19, 
-4, 151, 156, -73, -80, 153, -156, -53, 24, 810, 483, -19, 
-4, 146, 151, -70, -78, 148, -161, -53, 24, 814, 483, -19, 
-9, 146, 156, -68, -82, 151, -161, -48, 14, 810, 483, -14, 
-9, 146, 156, -68, -82, 151, -161, -43, 14, 810, 483, -9, 
-14, 146, 161, -65, -87, 153, -161, -48, 14, 810, 483, -14, 
-14, 146, 161, -65, -87, 153, -156, -48, 14, 810, 483, -14, 
-24, 141, 165, -58, -95, 153, -151, -53, 0, 805, 478, -19, 
-24, 141, 165, -58, -95, 153, -141, -58, 4, 805, 478, -24, 
-24, 131, 156, -53, -90, 143, -141, -58, 4, 805, 478, -24, 
-24, 126, 151, -51, -87, 139, -141, -58, 0, 805, 478, -24, 
-29, 126, 156, -48, -92, 141, -146, -53, 0, 805, 478, -29, 
-34, 126, 161, -46, -97, 143, -156, -48, 0, 805, 478, -29, 
-34, 126, 161, -46, -97, 143, -151, -48, 4, 805, 478, -24, 
-34, 131, 165, -48, -100, 148, -151, -48, 9, 805, 478, -19, 
-29, 136, 165, -53, -97, 151, -151, -48, 4, 805, 478, -19, 
-29, 131, 161, -51, -95, 146, -151, -48, 4, 805, 478, -19, 
-29, 131, 161, -51, -95, 146, -151, -48, 0, 800, 478, -24, 
-29, 131, 161, -51, -95, 146, -151, -43, 0, 800, 483, -24, 
-29, 126, 156, -48, -92, 141, -151, -43, 0, 800, 483, -24, 
-24, 122, 146, -48, -85, 134, -146, -43, 0, 800, 483, -24, 
-24, 122, 146, -48, -85, 134, -141, -43, -4, 805, 483, -24, 
-24, 122, 146, -48, -85, 134, -136, -43, -4, 810, 483, -24, 
-24, 122, 146, -48, -85, 134, -136, -39, -4, 810, 483, -24, 
-24, 117, 141, -46, -82, 129, -141, -39, -4, 810, 483, -24, 
-24, 117, 141, -46, -82, 129, -146, -39, -4, 810, 478, -29, 
-24, 117, 141, -46, -82, 129, -151, -34, 0, 810, 473, -29, 
-24, 112, 136, -43, -80, 124, -156, -34, -4, 810, 473, -29, 
-24, 112, 136, -43, -80, 124, -156, -34, -4, 810, 473, -29, 
-24, 112, 136, -43, -80, 124, -146, -34, -4, 800, 473, -29, 
-19, 112, 131, -46, -75, 122, -146, -29, -4, 810, 478, -24, 
-19, 112, 131, -46, -75, 122, -146, -29, 0, 810, 478, -24, 
-19, 107, 126, -43, -73, 117, -146, -29, 0, 810, 478, -24, 
-19, 107, 126, -43, -73, 117, -151, -29, 0, 810, 478, -24, 
-19, 107, 126, -43, -73, 117, -151, -24, 0, 805, 483, -24, 
-19, 107, 126, -43, -73, 117, -156, -24, 4, 805, 483, -24, 
-19, 107, 126, -43, -73, 117, -156, -24, 9, 810, 483, -24, 
-14, 107, 122, -46, -68, 114, -146, -19, 9, 810, 483, -19, 
-9, 107, 117, -48, -63, 112, -136, -14, 4, 810, 483, -14, 
-9, 107, 117, -48, -63, 112, -136, -9, 4, 805, 483, -14, 
-9, 107, 117, -48, -63, 112, -131, -9, 4, 805, 483, -14, 
-14, 107, 122, -46, -68, 114, -136, -9, 4, 805, 483, -19, 
-14, 97, 112, -41, -63, 104, -136, -9, 4, 805, 483, -19, 
-14, 97, 112, -41, -63, 104, -141, -9, -4, 810, 483, -19, 
-14, 97, 112, -41, -63, 104, -146, -9, 4, 814, 483, -19, 
-14, 97, 112, -41, -63, 104, -146, -9, 4, 814, 483, -14, 
-14, 97, 112, -41, -63, 104, -146, -9, 4, 819, 483, -9, 
-14, 92, 107, -39, -61, 100, -146, -9, 4, 819, 483, -9, 
-14, 92, 107, -39, -61, 100, -146, -4, 4, 819, 483, -9, 
-14, 92, 107, -39, -61, 100, -146, -4, 4, 819, 478, -9, 
-14, 92, 107, -39, -61, 100, -141, -4, 4, 814, 473, -9, 
-14, 87, 102, -36, -58, 95, -136, -4, 4, 814, 473, -4, 
-14, 87, 102, -36, -58, 95, -136, -4, 4, 814, 473, -4, 
-19, 87, 107, -34, -63, 97, -131, -4, 4, 814, 468, -9, 
-4, 87, 92, -41, -48, 90, -131, 0, 4, 814, 468, -9, 
-4, 87, 92, -41, -48, 90, -126, 0, 0, 810, 468, -9, 
-4, 87, 92, -41, -48, 90, -126, 0, -4, 805, 468, -9, 
-4, 87, 92, -41, -48, 90, -126, 0, -4, 805, 468, -9, 
-4, 82, 87, -39, -46, 85, -126, 0, -4, 805, 468, -9, 
-4, 82, 87, -39, -46, 85, -122, -9, 0, 800, 468, -9, 
-4, 82, 87, -39, -46, 85, -122, 0, 4, 800, 468, -4, 
-4, 73, 78, -34, -41, 75, -122, 0, 0, 800, 468, -4, 
-9, 68, 78, -29, -43, 73, -126, 0, 0, 800, 468, -9, 
-9, 68, 78, -29, -43, 73, -126, 0, 0, 800, 468, -9, 
-9, 68, 78, -29, -43, 73, -126, 0, 0, 800, 468, -9, 
-9, 68, 78, -29, -43, 73, -122, 0, 0, 800, 468, -9, 
-9, 68, 78, -29, -43, 73, -117, 0, 0, 800, 468, -9, 
-9, 68, 78, -29, -43, 73, -117, 0, 0, 800, 468, -9, 
-9, 68, 78, -29, -43, 73, -117, 0, 0, 800, 468, -9, 
-9, 68, 78, -29, -43, 73, -117, 0, 0, 805, 468, -9, 
-9, 68, 78, -29, -43, 73, -117, 0, 0, 810, 468, -9, 
-9, 68, 78, -29, -43, 73, -112, 0, 0, 810, 468, -9, 
-9, 68, 78, -29, -43, 73, -107, 0, 0, 810, 468, -9, 
-14, 58, 73, -21, -43, 65, -107, 0, 0, 805, 468, -14, 
-19, 48, 68, -14, -43, 58, -107, 0, 0, 800, 468, -19, 
-19, 48, 68, -14, -43, 58, -102, 4, 0, 800, 468, -19, 
-19, 48, 68, -14, -43, 58, -97, 9, 0, 800, 468, -19, 
-19, 48, 68, -14, -43, 58, -97, 9, 4, 800, 468, -14, 
-19, 48, 68, -14, -43, 58, -97, 9, 9, 800, 468, -9, 
-19, 48, 68, -14, -43, 58, -97, 9, 9, 800, 468, -9, 
-19, 48, 68, -14, -43, 58, -97, 9, 9, 800, 468, -9, 
-19, 43, 63, -12, -41, 53, -97, 9, 9, 800, 463, -14, 
-19, 39, 58, -9, -39, 48, -97, 9, 9, 800, 458, -19, 
-19, 34, 53, -7, -36, 43, -92, 9, 9, 795, 458, -19, 
-19, 29, 48, -4, -34, 39, -87, 9, 9, 790, 458, -19, 
-19, 29, 48, -4, -34, 39, -87, 9, 4, 790, 458, -19, 
-19, 29, 48, -4, -34, 39, -87, 9, 0, 790, 458, -19, 
-19, 24, 43, -2, -31, 34, -82, 9, 0, 785, 453, -24, 
-19, 19, 39, 0, -29, 29, -78, 9, 0, 780, 448, -24, 
-19, 19, 39, 0, -29, 29, -78, 9, 4, 780, 448, -24, 
-14, 19, 34, -2, -24, 26, -73, 14, 4, 780, 448, -24, 
-9, 39, 48, -14, -29, 43, -63, 24, 9, 790, 448, -19, 
4, 63, 58, -34, -26, 61, -58, 29, 19, 795, 453, -19, 
9, 68, 58, -39, -24, 63, -53, 34, 34, 805, 463, -4, 
9, 78, 68, -43, -29, 73, -34, 39, 43, 814, 468, 0, 
4, 78, 73, -41, -34, 75, -19, 48, 53, 819, 473, 0, 
0, 82, 82, -41, -41, 82, 9, 53, 53, 819, 473, 0, 
0, 92, 92, -46, -46, 92, 14, 68, 78, 834, 488, 14, 
0, 112, 112, -56, -56, 112, 14, 78, 87, 844, 502, 19, 
24, 146, 122, -85, -48, 134, 4, 92, 107, 858, 517, 34, 
48, 161, 112, -104, -31, 136, -48, 92, 112, 858, 517, 34, 
48, 156, 107, -102, -29, 131, -97, 87, 112, 858, 522, 43, 
43, 156, 112, -100, -34, 134, -112, 48, 112, 858, 522, 43, 
34, 161, 126, -97, -46, 143, -122, 14, 107, 863, 527, 53, 
29, 165, 136, -97, -53, 151, -136, 4, 107, 863, 527, 58, 
29, 185, 156, -107, -63, 170, -161, 4, 107, 863, 531, 68, 
34, 185, 151, -109, -58, 168, -180, -4, 97, 863, 527, 68, 
39, 195, 156, -117, -58, 175, -190, -9, 92, 863, 527, 68, 
39, 175, 136, -107, -48, 156, -214, -19, 78, 849, 517, 63, 
43, 161, 117, -102, -36, 139, -224, -24, 58, 839, 512, 58, 
43, 151, 107, -97, -31, 129, -229, -19, 53, 834, 507, 53, 
53, 136, 82, -95, -14, 109, -229, -14, 48, 829, 502, 48, 
53, 112, 58, -82, -2, 85, -214, -4, 34, 819, 492, 43, 
53, 73, 19, -63, 17, 46, -200, -4, 24, 805, 478, 24, 
43, 34, -9, -39, 26, 12, -180, -4, 4, 771, 448, -4, 
0, -9, -9, 4, 4, -9, -165, -14, -19, 751, 424, -24, 
-43, -43, 0, 43, -21, -21, -161, -19, -34, 732, 405, -43, 
-48, -58, -9, 53, -19, -34, -141, -19, -34, 727, 400, -48, 
-48, -63, -14, 56, -17, -39, -131, -19, -43, 717, 385, -53, 
-48, -73, -24, 61, -12, -48, -131, -14, -43, 712, 380, -58, 
-43, -68, -24, 56, -9, -46, -136, -14, -43, 707, 375, -63, 
-43, -78, -34, 61, -4, -56, -122, -14, -48, 707, 370, -68, 
-43, -78, -34, 61, -4, -56, -107, -9, -48, 692, 366, -68, 
-48, -78, -29, 63, -9, -53, -102, -9, -48, 692, 361, -68, 
-48, -78, -29, 63, -9, -53, -102, -9, -48, 692, 361, -73, 
-58, -78, -19, 68, -19, -48, -102, -4, -48, 692, 361, -73, 
-58, -78, -19, 68, -19, -48, -107, -4, -48, 688, 356, -73, 
-58, -73, -14, 65, -21, -43, -97, -4, -48, 688, 356, -73, 
-58, -68, -9, 63, -24, -39, -87, -4, -48, 688, 356, -73, 
-58, -63, -4, 61, -26, -34, -87, 0, -43, 688, 356, -73, 
-58, -63, -4, 61, -26, -34, -87, 0, -43, 683, 351, -78, 
-58, -63, -4, 61, -26, -34, -82, 14, -29, 688, 351, -78, 
-68, -58, 9, 63, -39, -24, -68, 48, 14, 702, 351, -78, 
-82, -29, 53, 56, -68, 12, -34, 136, 170, 800, 390, -63, 
-112, 48, 161, 31, -136, 104, 4, 234, 390, 971, 483, -29, 
-97, 234, 331, -68, -214, 283, -19, 312, 688, 1283, 688, 102, 
-14, 468, 483, -226, -248, 475, -131, 395, 1068, 1703, 1000, 302, 
214, 814, 600, -514, -192, 707, -385, 585, 1586, 2288, 1429, 585, 
517, 1268, 751, -893, -117, 1010, -702, 717, 2122, 2928, 1898, 888, 
780, 1600, 819, -1190, -19, 1210, -1044, 527, 2220, 3294, 2244, 1122, 
1058, 1771, 712, -1415, 173, 1241, -1366, 297, 1888, 3284, 2293, 1234, 
1278, 1678, 400, -1478, 439, 1039, -1634, -185, 1112, 2693, 1981, 1122, 
1332, 1390, 58, -1361, 636, 724, -1786, -990, -219, 1561, 1351, 854, 
1288, 951, -336, -1119, 812, 307, -1844, -1820, -1644, 405, 722, 541, 
1117, 370, -746, -744, 932, -187, -1678, -2474, -2605, -434, 175, 229, 
902, -92, -995, -405, 949, -544, -1381, -2727, -2854, -814, -141, 14, 
790, -390, -1180, -200, 985, -785, -1049, -2498, -2830, -951, -302, -141, 
595, -434, -1029, -80, 812, -732, -722, -1971, -2371, -761, -253, -141, 
317, -287, -605, -14, 461, -446, -517, -1346, -1639, -331, -24, -29, 
102, -180, -283, 39, 192, -231, -385, -941, -1107, 14, 165, 19, 
-34, -141, -107, 87, 36, -124, -204, -644, -780, 224, 190, -24, 
-122, -151, -29, 136, -46, -90, -19, -366, -551, 317, 175, -92, 
-141, -165, -24, 153, -58, -95, 43, -190, -395, 370, 175, -161, 
-141, -156, -14, 148, -63, -85, 43, -131, -287, 468, 200, -161, 
-141, -131, 9, 136, -75, -61, 48, -131, -258, 531, 239, -126, 
-141, -97, 43, 119, -92, -26, 63, -112, -258, 527, 268, -107, 
-141, -92, 48, 117, -95, -21, 53, -82, -224, 522, 268, -117, 
-131, -87, 43, 109, -87, -21, 53, -63, -180, 556, 268, -117, 
-131, -87, 43, 109, -87, -21, 43, -58, -170, 566, 278, -117, 
-131, -82, 48, 107, -90, -17, 48, -39, -165, 566, 287, -117, 
-131, -78, 53, 104, -92, -12, 53, -29, -161, 570, 292, -117, 
-136, -73, 63, 104, -100, -4, 53, -19, -136, 585, 297, -117, 
-136, -68, 68, 102, -102, 0, 53, -14, -136, 590, 302, -117, 
-136, -63, 73, 100, -104, 4, 43, -9, -126, 605, 312, -117, 
-131, -63, 68, 97, -100, 2, 39, -4, -126, 605, 317, -117, 
-131, -48, 82, 90, -107, 17, 39, 0, -122, 619, 322, -112, 
-131, -39, 92, 85, -112, 26, 39, 4, -122, 624, 322, -112, 
-131, -39, 92, 85, -112, 26, 48, 4, -117, 624, 326, -112, 
-136, -34, 102, 85, -119, 34, 58, 4, -117, 624, 322, -112, 
-136, -39, 97, 87, -117, 29, 58, 4, -117, 624, 322, -107, 
-136, -43, 92, 90, -114, 24, 58, 4, -117, 619, 322, -107, 
-141, -43, 97, 92, -119, 26, 53, 9, -117, 619, 326, -107, 
-151, -43, 107, 97, -129, 31, 53, 9, -112, 624, 326, -107, 
-151, -39, 112, 95, -131, 36, 48, 9, -112, 624, 331, -107, 
-151, -39, 112, 95, -131, 36, 48, 14, -112, 624, 331, -107, 
-146, -34, 112, 90, -129, 39, 48, 14, -112, 624, 331, -107, 
-141, -24, 117, 82, -129, 46, 53, 14, -112, 624, 336, -107, 
-141, -14, 126, 78, -134, 56, 58, 14, -107, 629, 336, -102, 
-141, -14, 126, 78, -134, 56, 53, 14, -107, 634, 336, -102, 
-141, -14, 126, 78, -134, 56, 53, 24, -107, 634, 341, -102, 
-141, -14, 126, 78, -134, 56, 48, 24, -107, 634, 341, -102, 
-141, -4, 136, 73, -139, 65, 48, 29, -102, 634, 341, -102, 
-146, 0, 146, 73, -146, 73, 48, 29, -102, 634, 341, -102, 
-146, 4, 151, 70, -148, 78, 48, 34, -102, 634, 341, -102, 
-151, 4, 156, 73, -153, 80, 48, 39, -102, 634, 341, -102, 
-151, 9, 161, 70, -156, 85, 53, 43, -97, 634, 351, -97, 
-151, 9, 161, 70, -156, 85, 53, 48, -97, 634, 356, -97, 
-151, 14, 165, 68, -158, 90, 53, 53, -97, 634, 356, -92, 
-151, 14, 165, 68, -158, 90, 58, 58, -97, 634, 361, -87, 
-151, 19, 170, 65, -161, 95, 68, 73, -92, 639, 361, -87, 
-156, 19, 175, 68, -165, 97, 73, 78, -92, 644, 361, -87, 
-151, 29, 180, 61, -165, 104, 73, 92, -82, 644, 361, -87, 
-156, 29, 185, 63, -170, 107, 73, 97, -82, 639, 356, -92, 
-161, 29, 190, 65, -175, 109, 87, 107, -78, 639, 356, -87, 
-161, 29, 190, 65, -175, 109, 97, 117, -73, 639, 356, -87, 
-161, 39, 200, 61, -180, 119, 102, 141, -68, 639, 351, -87, 
-165, 43, 209, 61, -187, 126, 107, 151, -68, 639, 351, -87, 
-165, 48, 214, 58, -190, 131, 102, 165, -63, 639, 351, -82, 
-170, 53, 224, 58, -197, 139, 97, 175, -63, 634, 351, -78, 
-175, 58, 234, 58, -204, 146, 102, 200, -43, 639, 351, -78, 
-180, 58, 239, 61, -209, 148, 112, 204, -34, 639, 351, -78, 
-185, 63, 248, 61, -217, 156, 126, 219, -29, 639, 351, -78, 
-195, 63, 258, 65, -226, 161, 131, 224, -29, 634, 341, -78, 
-200, 68, 268, 65, -234, 168, 156, 239, -19, 639, 341, -78, 
-204, 68, 273, 68, -239, 170, 170, 248, -19, 629, 341, -87, 
-209, 73, 283, 68, -246, 178, 170, 268, -14, 624, 346, -78, 
-219, 82, 302, 68, -261, 192, 161, 273, -14, 614, 341, -78, 
-229, 82, 312, 73, -270, 197, 165, 283, -9, 610, 336, -78, 
-244, 82, 326, 80, -285, 204, 156, 283, -9, 605, 331, -82, 
-248, 82, 331, 82, -290, 207, 170, 278, -9, 600, 331, -87, 
-248, 82, 331, 82, -290, 207, 170, 268, -9, 585, 326, -97, 
-253, 87, 341, 82, -297, 214, 175, 258, -24, 575, 322, -97, 
-258, 87, 346, 85, -302, 217, 175, 229, -29, 561, 307, -97, 
-268, 87, 356, 90, -312, 222, 175, 195, -43, 551, 307, -97, 
-278, 78, 356, 100, -317, 217, 170, 165, -58, 536, 302, -102, 
-283, 68, 351, 107, -317, 209, 161, 136, -78, 531, 297, -102, 
-283, 58, 341, 112, -312, 200, 146, 92, -97, 522, 292, -107, 
-278, 53, 331, 112, -305, 192, 141, 63, -107, 522, 287, -107, 
-278, 48, 326, 114, -302, 187, 122, 34, -117, 522, 287, -107, 
-273, 43, 317, 114, -295, 180, 102, 9, -117, 522, 292, -107, 
-263, 43, 307, 109, -285, 175, 68, -19, -117, 527, 292, -107, 
-248, 43, 292, 102, -270, 168, 43, -34, -112, 556, 307, -97, 
-224, 48, 273, 87, -248, 161, 14, -48, -107, 566, 312, -97, 
-204, 48, 253, 78, -229, 151, 0, -48, -82, 590, 326, -87, 
-180, 58, 239, 61, -209, 148, -19, -58, -68, 619, 341, -82, 
-151, 63, 214, 43, -183, 139, -43, -48, -53, 653, 356, -73, 
-122, 73, 195, 24, -158, 134, -58, -48, -43, 673, 370, -73, 
-92, 78, 170, 7, -131, 124, -68, -39, -24, 697, 395, -58, 
-73, 78, 151, -2, -112, 114, -78, -39, -9, 712, 405, -58, 
-58, 87, 146, -14, -102, 117, -102, -29, 9, 746, 419, -48, 
-34, 92, 126, -29, -80, 109, -117, -24, 14, 761, 434, -43, 
-24, 97, 122, -36, -73, 109, -122, -24, 29, 771, 448, -39, 
-9, 102, 112, -46, -61, 107, -122, -24, 34, 780, 453, -34, 
0, 107, 107, -53, -53, 107, -136, -19, 43, 795, 458, -29, 
4, 112, 107, -58, -51, 109, -141, -19, 43, 805, 458, -24, 
14, 117, 102, -65, -43, 109, -141, -19, 48, 814, 463, -24, 
19, 122, 102, -70, -41, 112, -146, -19, 48, 814, 468, -24, 
24, 122, 97, -73, -36, 109, -156, -19, 48, 824, 478, -19, 
29, 122, 92, -75, -31, 107, -165, -24, 48, 824, 478, -19, 
29, 122, 92, -75, -31, 107, -170, -24, 43, 824, 478, -19, 
29, 126, 97, -78, -34, 112, -175, -24, 39, 824, 478, -14, 
29, 126, 97, -78, -34, 112, -175, -24, 43, 824, 478, -14, 
34, 126, 92, -80, -29, 109, -180, -24, 43, 819, 478, -14, 
34, 126, 92, -80, -29, 109, -170, -29, 39, 824, 478, -14, 
29, 126, 97, -78, -34, 112, -161, -29, 34, 824, 478, -14, 
29, 126, 97, -78, -34, 112, -161, -29, 29, 824, 483, -9, 
29, 126, 97, -78, -34, 112, -156, -29, 29, 824, 483, -4, 
29, 126, 97, -78, -34, 112, -161, -29, 34, 824, 483, -4, 
29, 126, 97, -78, -34, 112, -161, -29, 34, 824, 488, -4, 
29, 126, 97, -78, -34, 112, -161, -29, 34, 824, 488, -4, 
24, 126, 102, -75, -39, 114, -161, -29, 29, 819, 488, -9, 
24, 131, 107, -78, -41, 119, -161, -34, 24, 819, 488, -9, 
24, 131, 107, -78, -41, 119, -156, -34, 19, 819, 483, -9, 
19, 131, 112, -75, -46, 122, -156, -39, 19, 819, 483, -9, 
19, 131, 112, -75, -46, 122, -151, -39, 14, 819, 483, -9, 
19, 126, 107, -73, -43, 117, -151, -43, 14, 819, 478, -9, 
19, 122, 102, -70, -41, 112, -151, -48, 9, 814, 473, -9, 
14, 122, 107, -68, -46, 114, -156, -53, 9, 814, 473, -9, 
14, 122, 107, -68, -46, 114, -161, -53, 4, 814, 473, -9, 
14, 122, 107, -68, -46, 114, -161, -53, 9, 814, 473, -9, 
9, 126, 117, -68, -53, 122, -161, -53, 4, 810, 473, -9, 
14, 126, 112, -70, -48, 119, -161, -53, 4, 810, 473, -9, 
14, 126, 112, -70, -48, 119, -161, -58, 4, 810, 473, -14, 
14, 126, 112, -70, -48, 119, -156, -58, 0, 805, 473, -14, 
4, 122, 117, -63, -56, 119, -156, -58, -14, 800, 468, -14, 
0, 122, 122, -61, -61, 122, -146, -58, -4, 805, 468, -14, 
-4, 117, 122, -56, -63, 119, -141, -58, -4, 805, 468, -14, 
-4, 112, 117, -53, -61, 114, -136, -58, -9, 800, 463, -14, 
-4, 107, 112, -51, -58, 109, -126, -58, -9, 795, 458, -19, 
-4, 107, 112, -51, -58, 109, -126, -58, -9, 795, 458, -19, 
-4, 102, 107, -48, -56, 104, -122, -58, -9, 795, 458, -19, 
0, 102, 102, -51, -51, 102, -122, -58, -4, 800, 458, -19, 
4, 102, 97, -53, -46, 100, -122, -58, -4, 805, 458, -19, 
0, 97, 97, -48, -48, 97, -122, -58, -4, 805, 458, -19, 
0, 102, 102, -51, -51, 102, -122, -58, -9, 800, 453, -24, 
0, 102, 102, -51, -51, 102, -122, -53, -4, 800, 453, -19, 
0, 102, 102, -51, -51, 102, -122, -53, 0, 800, 453, -14, 
4, 102, 97, -53, -46, 100, -122, -53, 0, 800, 453, -14, 
4, 102, 97, -53, -46, 100, -126, -53, -4, 800, 453, -14, 
4, 102, 97, -53, -46, 100, -126, -53, -4, 800, 453, -14, 
4, 102, 97, -53, -46, 100, -126, -48, -4, 800, 453, -14, 
4, 97, 92, -51, -43, 95, -131, -53, -4, 795, 453, -14, 
4, 97, 92, -51, -43, 95, -131, -58, -9, 790, 453, -19, 
4, 97, 92, -51, -43, 95, -131, -53, -9, 790, 453, -19, 
4, 92, 87, -48, -41, 90, -131, -53, -14, 790, 453, -19, 
9, 92, 82, -51, -36, 87, -126, -53, -14, 790, 448, -19, 
14, 92, 78, -53, -31, 85, -117, -53, -14, 780, 444, -19, 
19, 92, 73, -56, -26, 82, -112, -48, -14, 790, 448, -19, 
19, 92, 73, -56, -26, 82, -107, -48, -9, 790, 448, -24, 
19, 87, 68, -53, -24, 78, -107, -48, -9, 790, 448, -24, 
19, 87, 68, -53, -24, 78, -112, -48, -9, 790, 444, -24, 
19, 87, 68, -53, -24, 78, -112, -43, -4, 785, 444, -19, 
19, 87, 68, -53, -24, 78, -117, -43, 0, 785, 444, -14, 
19, 87, 68, -53, -24, 78, -117, -43, 0, 790, 444, -14, 
19, 87, 68, -53, -24, 78, -117, -43, 0, 790, 444, -14, 
19, 87, 68, -53, -24, 78, -122, -48, -4, 790, 444, -14, 
19, 87, 68, -53, -24, 78, -126, -48, -4, 785, 444, -14, 
19, 87, 68, -53, -24, 78, -126, -48, -4, 785, 444, -14, 
19, 87, 68, -53, -24, 78, -131, -48, -4, 785, 444, -14, 
29, 78, 48, -53, -9, 63, -126, -43, 0, 785, 444, -9, 
34, 78, 43, -56, -4, 61, -126, -39, -4, 785, 444, -9, 
34, 78, 43, -56, -4, 61, -122, -39, 4, 785, 444, -9, 
34, 78, 43, -56, -4, 61, -117, -39, 4, 785, 444, -9, 
34, 78, 43, -56, -4, 61, -117, -39, 4, 790, 444, -9, 
34, 73, 39, -53, -2, 56, -117, -39, 4, 790, 444, -9, 
34, 73, 39, -53, -2, 56, -122, -34, 4, 790, 444, -9, 
34, 73, 39, -53, -2, 56, -131, -34, 4, 790, 444, -9, 
34, 73, 39, -53, -2, 56, -131, -34, 4, 785, 439, -9, 
34, 68, 34, -51, 0, 51, -126, -34, 4, 785, 434, -4, 
34, 68, 34, -51, 0, 51, -126, -34, 4, 785, 434, -4, 
24, 68, 43, -46, -9, 56, -122, -34, 4, 785, 429, -9, 
34, 68, 34, -51, 0, 51, -122, -24, 4, 785, 429, -9, 
34, 68, 34, -51, 0, 51, -117, -19, 4, 785, 429, -9, 
34, 63, 29, -48, 2, 46, -117, -19, 4, 780, 429, -9, 
34, 58, 24, -46, 4, 41, -117, -19, 4, 775, 429, -9, 
34, 53, 19, -43, 7, 36, -117, -19, 4, 775, 429, -9, 
34, 53, 19, -43, 7, 36, -112, -24, 4, 771, 429, -9, 
34, 53, 19, -43, 7, 36, -112, -19, 4, 771, 429, -9, 
34, 58, 24, -46, 4, 41, -117, -19, 9, 775, 429, -9, 
29, 58, 29, -43, 0, 43, -102, -19, 9, 775, 424, -9, 
29, 58, 29, -43, 0, 43, -87, -19, 9, 780, 419, -9, 
29, 48, 19, -39, 4, 34, -78, -19, 4, 775, 419, -9, 
29, 39, 9, -34, 9, 24, -68, -19, 0, 771, 419, -9, 
34, 39, 4, -36, 14, 21, -78, -19, 0, 771, 419, -9, 
39, 39, 0, -39, 19, 19, -87, -19, 0, 771, 419, -9, 
39, 39, 0, -39, 19, 19, -87, -14, 0, 771, 419, -9, 
39, 39, 0, -39, 19, 19, -87, -9, 0, 771, 419, -9, 
39, 39, 0, -39, 19, 19, -87, -9, 0, 771, 419, -9, 
39, 39, 0, -39, 19, 19, -87, -9, 0, 771, 419, -9, 
39, 39, 0, -39, 19, 19, -78, -9, 0, 766, 414, -9, 
39, 39, 0, -39, 19, 19, -68, -9, 0, 761, 409, -9, 
39, 39, 0, -39, 19, 19, -68, -9, 0, 761, 409, -9, 
39, 39, 0, -39, 19, 19, -68, -9, 0, 761, 409, -4, 
39, 39, 0, -39, 19, 19, -68, -14, 4, 761, 409, -4, 
43, 39, -4, -41, 24, 17, -63, -14, 4, 761, 409, -4, 
43, 43, 0, -43, 21, 21, -53, -4, 9, 766, 409, 0, 
53, 53, 0, -53, 26, 26, -48, 0, 19, 766, 414, 0, 
58, 68, 9, -63, 24, 39, -43, 4, 34, 775, 424, 14, 
58, 87, 29, -73, 14, 58, -24, 9, 43, 785, 429, 19, 
58, 87, 29, -73, 14, 58, -9, 14, 53, 785, 434, 19, 
58, 92, 34, -75, 12, 63, 19, 14, 53, 780, 434, 19, 
58, 102, 43, -80, 7, 73, 24, 29, 78, 795, 444, 34, 
58, 122, 63, -90, -2, 92, 24, 39, 87, 805, 453, 39, 
78, 156, 78, -117, 0, 117, 19, 53, 112, 824, 468, 53, 
97, 170, 73, -134, 12, 122, -29, 53, 122, 829, 468, 53, 
97, 170, 73, -134, 12, 122, -73, 48, 122, 829, 473, 63, 
92, 175, 82, -134, 4, 129, -82, 9, 122, 829, 473, 63, 
87, 180, 92, -134, -2, 136, -92, -24, 117, 834, 478, 73, 
87, 185, 97, -136, -4, 141, -107, -34, 117, 834, 478, 78, 
87, 209, 122, -148, -17, 165, -141, -34, 117, 834, 488, 87, 
92, 214, 122, -153, -14, 168, -170, -43, 107, 834, 488, 87, 
97, 224, 126, -161, -14, 175, -170, -48, 102, 834, 488, 87, 
97, 204, 107, -151, -4, 156, -185, -58, 87, 819, 478, 82, 
102, 185, 82, -143, 9, 134, -195, -68, 68, 810, 468, 78, 
102, 170, 68, -136, 17, 119, -200, -68, 63, 805, 458, 73, 
112, 161, 48, -136, 31, 104, -200, -63, 58, 800, 453, 68, 
112, 141, 29, -126, 41, 85, -185, -53, 43, 790, 444, 63, 
112, 107, -4, -109, 58, 51, -165, -53, 34, 780, 429, 48, 
102, 73, -29, -87, 65, 21, -141, -53, 14, 751, 400, 24, 
58, 29, -29, -43, 43, 0, -122, -68, -9, 732, 375, 4, 
14, -4, -19, -4, 17, -12, -112, -78, -24, 712, 356, -14, 
9, -24, -34, 7, 21, -29, -92, -78, -24, 702, 351, -24, 
9, -34, -43, 12, 26, -39, -82, -78, -34, 688, 336, -34, 
9, -48, -58, 19, 34, -53, -78, -73, -34, 678, 331, -39, 
14, -48, -63, 17, 39, -56, -78, -73, -34, 668, 326, -43, 
14, -58, -73, 21, 43, -65, -73, -73, -39, 668, 322, -48, 
14, -58, -73, 21, 43, -65, -68, -68, -39, 653, 317, -48, 
9, -58, -68, 24, 39, -63, -68, -68, -39, 653, 312, -48, 
9, -58, -68, 24, 39, -63, -73, -68, -39, 653, 312, -53, 
0, -58, -58, 29, 29, -58, -63, -63, -39, 653, 312, -53, 
0, -58, -58, 29, 29, -58, -58, -63, -39, 649, 307, -53, 
0, -58, -58, 29, 29, -58, -48, -63, -39, 644, 302, -53, 
0, -58, -58, 29, 29, -58, -39, -63, -39, 639, 297, -53, 
0, -53, -53, 26, 26, -53, -39, -68, -39, 639, 297, -53, 
0, -53, -53, 26, 26, -53, -39, -78, -43, 634, 292, -58, 
0, -63, -63, 31, 31, -63, -34, -78, -53, 619, 283, -63, 
-9, -68, -58, 39, 24, -63, -19, -58, -34, 614, 273, -68, 
-24, -53, -29, 39, 2, -41, 14, 24, 87, 668, 278, -68, 
-53, 9, 63, 21, -58, 36, 53, 117, 273, 795, 336, -48, 
-92, 156, 248, -31, -170, 202, 78, 170, 531, 1044, 492, 39, 
-63, 351, 414, -143, -239, 383, 14, 229, 873, 1400, 756, 195, 
136, 697, 561, -417, -212, 629, -200, 468, 1468, 2034, 1210, 497, 
409, 1151, 741, -780, -165, 946, -478, 649, 2083, 2723, 1703, 819, 
673, 1571, 897, -1122, -112, 1234, -829, 551, 2391, 3313, 2191, 1132, 
951, 1830, 878, -1390, 36, 1354, -1161, 414, 2269, 3528, 2381, 1322, 
1244, 1830, 585, -1537, 329, 1207, -1478, 73, 1644, 3084, 2166, 1259, 
1371, 1634, 263, -1503, 553, 949, -1678, -590, 463, 2098, 1634, 1039, 
1381, 1195, -185, -1288, 783, 505, -1825, -1517, -1220, 756, 922, 702, 
1263, 614, -649, -939, 956, -17, -1747, -2269, -2440, -268, 292, 366, 
1054, 43, -1010, -549, 1032, -483, -1444, -2737, -2893, -829, -131, 97, 
946, -361, -1307, -292, 1127, -834, -1107, -2723, -3074, -1146, -400, -112, 
751, -458, -1210, -146, 980, -834, -756, -2220, -2649, -1000, -400, -146, 
473, -366, -839, -53, 656, -602, -527, -1620, -1952, -614, -219, -68, 
234, -209, -444, -12, 339, -326, -390, -1161, -1322, -195, 24, 14, 
73, -122, -195, 24, 134, -158, -204, -810, -897, 87, 102, 4, 
-29, -131, -102, 80, 36, -117, 4, -512, -629, 195, 87, -63, 
-63, -146, -82, 104, 9, -114, 92, -317, -434, 263, 87, -131, 
-68, -136, -68, 102, 0, -102, 97, -239, -312, 370, 112, -141, 
-73, -112, -39, 92, -17, -75, 107, -219, -268, 444, 151, -117, 
-73, -73, 0, 73, -36, -36, 126, -195, -268, 444, 185, -97, 
-73, -63, 9, 68, -41, -26, 122, -161, -234, 444, 190, -107, 
-58, -58, 0, 58, -29, -29, 122, -136, -180, 488, 195, -102, 
-53, -58, -4, 56, -24, -31, 112, -126, -161, 507, 209, -97, 
-53, -53, 0, 53, -26, -26, 112, -112, -156, 507, 214, -97, 
-53, -48, 4, 51, -29, -21, 112, -107, -151, 512, 214, -97, 
-58, -43, 14, 51, -36, -14, 112, -102, -126, 522, 219, -97, 
-58, -39, 19, 48, -39, -9, 112, -102, -126, 522, 224, -97, 
-58, -34, 24, 46, -41, -4, 107, -97, -117, 536, 234, -97, 
-53, -34, 19, 43, -36, -7, 107, -92, -117, 536, 239, -97, 
-53, -24, 29, 39, -41, 2, 107, -87, -112, 546, 244, -92, 
-53, -19, 34, 36, -43, 7, 107, -82, -112, 546, 244, -92, 
-48, -9, 39, 29, -43, 14, 112, -82, -107, 546, 253, -92, 
-48, 4, 53, 21, -51, 29, 117, -82, -107, 546, 253, -92, 
-48, -4, 43, 26, -46, 19, 117, -82, -107, 551, 253, -87, 
-48, -14, 34, 31, -41, 9, 117, -82, -107, 551, 253, -87, 
-48, -9, 39, 29, -43, 14, 112, -78, -107, 551, 258, -87, 
-53, -4, 48, 29, -51, 21, 112, -78, -102, 556, 258, -87, 
-53, 0, 53, 26, -53, 26, 107, -73, -102, 556, 263, -87, 
-53, 0, 53, 26, -53, 26, 107, -63, -102, 556, 263, -87, 
-53, 0, 53, 26, -53, 26, 102, -63, -102, 556, 263, -87, 
-53, 4, 58, 24, -56, 31, 102, -63, -102, 556, 268, -87, 
-48, 14, 63, 17, -56, 39, 112, -63, -97, 556, 268, -82, 
-43, 14, 58, 14, -51, 36, 112, -63, -97, 556, 268, -82, 
-43, 14, 58, 14, -51, 36, 117, -53, -97, 556, 273, -82, 
-43, 14, 58, 14, -51, 36, 117, -53, -97, 556, 273, -82, 
-43, 19, 63, 12, -53, 41, 122, -48, -97, 556, 273, -87, 
-48, 19, 68, 14, -58, 43, 126, -48, -102, 556, 273, -92, 
-48, 29, 78, 9, -63, 53, 126, -43, -102, 556, 273, -92, 
-53, 34, 87, 9, -70, 61, 126, -39, -102, 556, 273, -92, 
-53, 39, 92, 7, -73, 65, 126, -29, -92, 556, 278, -82, 
-53, 39, 92, 7, -73, 65, 122, -19, -87, 556, 278, -78, 
-53, 39, 92, 7, -73, 65, 122, -14, -87, 556, 278, -78, 
-53, 34, 87, 9, -70, 61, 126, -9, -87, 556, 283, -78, 
-53, 39, 92, 7, -73, 65, 136, 0, -87, 556, 283, -82, 
-58, 39, 97, 9, -78, 68, 141, 0, -92, 556, 283, -87, 
-58, 48, 107, 4, -82, 78, 151, 14, -82, 556, 287, -82, 
-68, 48, 117, 9, -92, 82, 161, 19, -82, 551, 287, -82, 
-73, 48, 122, 12, -97, 85, 161, 29, -78, 546, 287, -78, 
-73, 48, 122, 12, -97, 85, 156, 39, -73, 541, 287, -78, 
-73, 58, 131, 7, -102, 95, 161, 58, -68, 541, 283, -78, 
-78, 63, 141, 7, -109, 102, 165, 63, -68, 541, 283, -78, 
-78, 63, 141, 7, -109, 102, 170, 78, -68, 541, 278, -78, 
-82, 63, 146, 9, -114, 104, 175, 87, -73, 536, 273, -78, 
-92, 63, 156, 14, -124, 109, 180, 112, -63, 536, 273, -78, 
-102, 58, 161, 21, -131, 109, 190, 117, -63, 531, 273, -78, 
-107, 63, 170, 21, -139, 117, 204, 131, -58, 531, 273, -78, 
-117, 63, 180, 26, -148, 122, 209, 136, -58, 527, 263, -78, 
-117, 73, 190, 21, -153, 131, 224, 151, -48, 531, 263, -78, 
-117, 78, 195, 19, -156, 136, 229, 161, -48, 522, 263, -87, 
-122, 78, 200, 21, -161, 139, 248, 180, -48, 517, 263, -78, 
-131, 82, 214, 24, -173, 148, 258, 185, -53, 507, 253, -78, 
-136, 78, 214, 29, -175, 146, 283, 195, -48, 502, 248, -78, 
-146, 73, 219, 36, -183, 146, 292, 195, -48, 497, 244, -82, 
-156, 73, 229, 41, -192, 151, 297, 195, -48, 492, 244, -82, 
-161, 73, 234, 43, -197, 153, 287, 190, -48, 478, 239, -87, 
-170, 73, 244, 48, -207, 158, 292, 180, -58, 468, 234, -87, 
-180, 68, 248, 56, -214, 158, 292, 151, -58, 453, 219, -87, 
-190, 73, 263, 58, -226, 168, 292, 117, -73, 448, 219, -87, 
-200, 68, 268, 65, -234, 168, 287, 87, -87, 439, 214, -92, 
-204, 63, 268, 70, -236, 165, 273, 58, -97, 434, 209, -92, 
-204, 58, 263, 73, -234, 161, 253, 14, -107, 424, 204, -97, 
-204, 53, 258, 75, -231, 156, 248, -19, -117, 419, 200, -97, 
-209, 48, 258, 80, -234, 153, 229, -53, -126, 414, 200, -97, 
-204, 43, 248, 80, -226, 146, 209, -78, -126, 409, 204, -97, 
-195, 43, 239, 75, -217, 141, 175, -107, -126, 409, 204, -97, 
-180, 43, 224, 68, -202, 134, 151, -117, -117, 444, 224, -87, 
-156, 48, 204, 53, -180, 126, 122, -126, -107, 458, 234, -87, 
-136, 48, 185, 43, -161, 117, 107, -126, -82, 483, 248, -78, 
-112, 58, 170, 26, -141, 114, 87, -136, -68, 512, 263, -73, 
-82, 63, 146, 9, -114, 104, 63, -126, -43, 546, 278, -63, 
-53, 73, 126, -9, -90, 100, 48, -126, -24, 566, 292, -63, 
-19, 82, 102, -31, -61, 92, 29, -117, -4, 590, 317, -48, 
4, 87, 82, -46, -39, 85, 9, -117, 9, 605, 326, -48, 
19, 102, 82, -61, -31, 92, -14, -107, 29, 644, 341, -39, 
43, 112, 68, -78, -12, 90, -29, -102, 34, 663, 356, -34, 
53, 117, 63, -85, -4, 90, -43, -97, 53, 673, 370, -29, 
68, 122, 53, -95, 7, 87, -53, -92, 63, 683, 375, -24, 
82, 126, 43, -104, 19, 85, -73, -82, 78, 702, 390, -14, 
92, 131, 39, -112, 26, 85, -82, -78, 82, 717, 400, -4, 
102, 136, 34, -119, 34, 85, -82, -78, 87, 727, 405, -4, 
107, 141, 34, -124, 36, 87, -87, -78, 87, 727, 409, -4, 
112, 141, 29, -126, 41, 85, -92, -73, 87, 736, 419, 0, 
117, 141, 24, -129, 46, 82, -97, -73, 87, 736, 419, 0, 
117, 141, 24, -129, 46, 82, -97, -73, 87, 736, 419, -4, 
117, 146, 29, -131, 43, 87, -97, -73, 87, 736, 419, -4, 
117, 146, 29, -131, 43, 87, -92, -73, 87, 741, 419, -4, 
122, 146, 24, -134, 48, 85, -92, -73, 82, 741, 419, -4, 
122, 146, 24, -134, 48, 85, -92, -78, 82, 746, 419, -4, 
117, 146, 29, -131, 43, 87, -92, -78, 82, 746, 419, -4, 
117, 146, 29, -131, 43, 87, -92, -82, 78, 746, 424, -4, 
117, 146, 29, -131, 43, 87, -87, -87, 78, 746, 424, -4, 
122, 146, 24, -134, 48, 85, -87, -87, 82, 746, 424, -4, 
126, 146, 19, -136, 53, 82, -82, -87, 82, 746, 429, -4, 
126, 146, 19, -136, 53, 82, -82, -82, 82, 746, 429, 0, 
122, 146, 24, -134, 48, 85, -82, -78, 78, 741, 429, 0, 
117, 146, 29, -131, 43, 87, -87, -82, 78, 741, 429, 0, 
112, 141, 29, -126, 41, 85, -87, -82, 78, 741, 424, 0, 
107, 141, 34, -124, 36, 87, -92, -87, 78, 741, 424, 0, 
107, 141, 34, -124, 36, 87, -92, -87, 73, 741, 424, 0, 
107, 141, 34, -124, 36, 87, -92, -87, 73, 741, 424, -4, 
107, 141, 34, -124, 36, 87, -92, -87, 68, 736, 424, -9, 
102, 141, 39, -122, 31, 90, -92, -92, 68, 736, 424, -9, 
102, 141, 39, -122, 31, 90, -92, -92, 63, 736, 424, -9, 
102, 136, 34, -119, 34, 85, -87, -92, 68, 736, 424, -9, 
97, 136, 39, -117, 29, 87, -82, -92, 63, 732, 424, -9, 
97, 136, 39, -117, 29, 87, -78, -92, 63, 732, 424, -4, 
92, 136, 43, -114, 24, 90, -73, -97, 63, 732, 424, -4, 
92, 136, 43, -114, 24, 90, -68, -97, 63, 732, 424, -4, 
82, 131, 48, -107, 17, 90, -68, -97, 53, 732, 419, -4, 
82, 131, 48, -107, 17, 90, -63, -97, 63, 736, 419, -4, 
82, 126, 43, -104, 19, 85, -63, -97, 63, 736, 419, -4, 
82, 126, 43, -104, 19, 85, -63, -97, 58, 732, 419, -4, 
82, 126, 43, -104, 19, 85, -58, -97, 58, 727, 419, -9, 
82, 126, 43, -104, 19, 85, -63, -97, 58, 727, 419, -9, 
82, 122, 39, -102, 21, 80, -63, -97, 58, 727, 419, -9, 
82, 122, 39, -102, 21, 80, -68, -97, 63, 727, 419, -14, 
82, 122, 39, -102, 21, 80, -73, -97, 63, 727, 419, -19, 
78, 112, 34, -95, 21, 73, -73, -97, 63, 727, 419, -19, 
78, 112, 34, -95, 21, 73, -73, -97, 58, 722, 414, -24, 
73, 112, 39, -92, 17, 75, -68, -87, 58, 722, 414, -24, 
68, 112, 43, -90, 12, 78, -63, -82, 58, 722, 414, -24, 
73, 112, 39, -92, 17, 75, -58, -82, 58, 722, 414, -24, 
73, 112, 39, -92, 17, 75, -58, -82, 53, 722, 414, -24, 
73, 107, 34, -90, 19, 70, -58, -82, 53, 722, 414, -24, 
73, 102, 29, -87, 21, 65, -58, -78, 53, 722, 414, -24, 
73, 97, 24, -85, 24, 61, -63, -78, 53, 722, 409, -24, 
73, 97, 24, -85, 24, 61, -63, -78, 48, 722, 405, -29, 
78, 102, 24, -90, 26, 63, -63, -73, 48, 722, 405, -29, 
82, 102, 19, -92, 31, 61, -63, -73, 43, 722, 405, -29, 
82, 102, 19, -92, 31, 61, -58, -73, 43, 722, 405, -29, 
82, 102, 19, -92, 31, 61, -48, -73, 43, 712, 405, -29, 
82, 102, 19, -92, 31, 61, -53, -73, 43, 722, 409, -24, 
78, 102, 24, -90, 26, 63, -58, -78, 48, 722, 409, -24, 
73, 97, 24, -85, 24, 61, -58, -78, 43, 722, 409, -24, 
68, 97, 29, -82, 19, 63, -63, -78, 39, 722, 405, -24, 
68, 97, 29, -82, 19, 63, -58, -73, 39, 717, 405, -24, 
68, 97, 29, -82, 19, 63, -58, -73, 39, 717, 405, -24, 
68, 97, 29, -82, 19, 63, -58, -73, 39, 722, 405, -24, 
68, 97, 29, -82, 19, 63, -58, -73, 39, 722, 405, -24, 
68, 97, 29, -82, 19, 63, -58, -68, 34, 722, 405, -24, 
68, 97, 29, -82, 19, 63, -58, -58, 34, 717, 405, -24, 
68, 97, 29, -82, 19, 63, -53, -58, 34, 717, 405, -24, 
68, 97, 29, -82, 19, 63, -53, -58, 34, 717, 405, -24, 
68, 82, 14, -75, 26, 48, -48, -58, 34, 717, 405, -19, 
63, 78, 14, -70, 24, 46, -48, -58, 24, 717, 405, -19, 
63, 78, 14, -70, 24, 46, -48, -53, 34, 717, 405, -19, 
63, 78, 14, -70, 24, 46, -48, -48, 34, 717, 405, -19, 
63, 78, 14, -70, 24, 46, -48, -48, 34, 722, 405, -19, 
63, 73, 9, -68, 26, 41, -48, -48, 34, 722, 405, -19, 
63, 78, 14, -70, 24, 46, -39, -43, 34, 722, 405, -19, 
63, 82, 19, -73, 21, 51, -34, -43, 34, 722, 405, -19, 
63, 82, 19, -73, 21, 51, -43, -43, 29, 717, 400, -19, 
63, 78, 14, -70, 24, 46, -48, -43, 24, 717, 395, -14, 
58, 73, 14, -65, 21, 43, -48, -43, 24, 712, 395, -14, 
43, 68, 24, -56, 9, 46, -43, -43, 24, 707, 390, -19, 
53, 68, 14, -61, 19, 41, -43, -39, 24, 707, 390, -19, 
53, 68, 14, -61, 19, 41, -39, -39, 24, 707, 390, -19, 
53, 68, 14, -61, 19, 41, -39, -39, 24, 712, 395, -19, 
53, 68, 14, -61, 19, 41, -39, -39, 24, 717, 400, -19, 
48, 63, 14, -56, 17, 39, -48, -29, 19, 717, 400, -19, 
43, 63, 19, -53, 12, 41, -53, -24, 14, 712, 400, -19, 
39, 58, 19, -48, 9, 39, -48, -19, 9, 707, 395, -19, 
34, 58, 24, -46, 4, 41, -48, -19, 9, 707, 390, -19, 
34, 58, 24, -46, 4, 41, -43, -19, 9, 707, 390, -14, 
39, 58, 19, -48, 9, 39, -39, -19, 9, 712, 390, -9, 
39, 58, 19, -48, 9, 39, -39, -19, 9, 707, 390, -9, 
39, 58, 19, -48, 9, 39, -39, -19, 9, 702, 390, -9, 
39, 53, 14, -46, 12, 34, -34, -19, 4, 702, 385, -9, 
39, 48, 9, -43, 14, 29, -29, -19, 0, 702, 380, -9, 
34, 48, 14, -41, 9, 31, -29, -14, 0, 702, 380, -9, 
29, 48, 19, -39, 4, 34, -29, -9, 0, 702, 380, -9, 
29, 48, 19, -39, 4, 34, -29, -9, 0, 702, 380, -9, 
29, 48, 19, -39, 4, 34, -29, -9, 0, 702, 380, -9, 
24, 43, 19, -34, 2, 31, -24, -9, 0, 702, 380, -14, 
19, 39, 19, -29, 0, 29, -19, -9, 0, 702, 380, -19, 
19, 34, 14, -26, 2, 24, -19, -9, 0, 697, 380, -19, 
19, 29, 9, -24, 4, 19, -19, -9, 0, 692, 380, -19, 
19, 29, 9, -24, 4, 19, -19, -4, 0, 692, 375, -19, 
19, 29, 9, -24, 4, 19, -19, 0, 0, 692, 370, -19, 
14, 29, 14, -21, 0, 21, -19, 0, 4, 692, 370, -19, 
9, 29, 19, -19, -4, 24, -19, 0, 9, 692, 370, -19, 
9, 24, 14, -17, -2, 19, -19, 0, 9, 692, 366, -19, 
9, 19, 9, -14, 0, 14, -19, 0, 9, 692, 361, -19, 
4, 19, 14, -12, -4, 17, -14, 0, 9, 692, 361, -19, 
4, 19, 14, -12, -4, 17, -9, 0, 9, 692, 361, -14, 
4, 19, 14, -12, -4, 17, -4, 4, 14, 692, 366, -14, 
4, 24, 19, -14, -7, 21, 4, 14, 19, 697, 370, -9, 
14, 39, 24, -26, -4, 31, 9, 24, 29, 697, 375, -9, 
19, 58, 39, -39, -9, 48, 14, 34, 43, 707, 385, 4, 
14, 78, 63, -46, -24, 70, 34, 39, 53, 717, 390, 9, 
9, 78, 68, -43, -29, 73, 43, 48, 63, 722, 395, 9, 
9, 78, 68, -43, -29, 73, 68, 53, 63, 722, 395, 9, 
9, 82, 73, -46, -31, 78, 73, 68, 87, 736, 405, 24, 
4, 97, 92, -51, -43, 95, 78, 78, 97, 746, 414, 29, 
19, 126, 107, -73, -43, 117, 73, 92, 117, 761, 429, 43, 
34, 141, 107, -87, -36, 124, 19, 92, 122, 761, 429, 43, 
29, 141, 112, -85, -41, 126, -29, 87, 122, 761, 434, 53, 
24, 146, 122, -85, -48, 134, -43, 48, 122, 761, 434, 53, 
19, 151, 131, -85, -56, 141, -53, 14, 117, 766, 439, 63, 
19, 156, 136, -87, -58, 146, -78, 4, 117, 766, 434, 68, 
19, 175, 156, -97, -68, 165, -107, 4, 117, 766, 439, 78, 
24, 175, 151, -100, -63, 163, -122, -4, 107, 766, 439, 78, 
29, 185, 156, -107, -63, 170, -131, -9, 102, 766, 439, 78, 
24, 161, 136, -92, -56, 148, -156, -19, 87, 751, 429, 73, 
24, 141, 117, -82, -46, 129, -165, -29, 68, 741, 424, 68, 
24, 131, 107, -78, -41, 119, -175, -29, 63, 736, 419, 63, 
34, 122, 87, -78, -26, 104, -180, -24, 58, 732, 414, 58, 
29, 102, 73, -65, -21, 87, -165, -14, 43, 722, 405, 53, 
24, 68, 43, -46, -9, 56, -146, -14, 34, 712, 390, 39, 
14, 34, 19, -24, -2, 26, -117, -14, 14, 683, 361, 14, 
-29, -9, 19, 19, -24, 4, -97, -24, -9, 663, 336, -4, 
-73, -43, 29, 58, -51, -7, -92, -29, -24, 644, 317, -24, 
-78, -63, 14, 70, -46, -24, -73, -29, -24, 634, 312, -34, 
-78, -73, 4, 75, -41, -34, -63, -29, -34, 619, 297, -43, 
-78, -87, -9, 82, -34, -48, -53, -24, -34, 614, 292, -48, 
-78, -82, -4, 80, -36, -43, -48, -24, -34, 610, 287, -53, 
-82, -87, -4, 85, -39, -46, -43, -24, -39, 610, 283, -58, 
-82, -87, -4, 85, -39, -46, -39, -19, -39, 595, 278, -58, 
-87, -87, 0, 87, -43, -43, -34, -19, -39, 595, 273, -58, 
-82, -87, -4, 85, -39, -46, -34, -19, -34, 595, 273, -63, 
-87, -87, 0, 87, -43, -43, -24, -14, -29, 595, 273, -63, 
-87, -87, 0, 87, -43, -43, -19, -14, -29, 590, 268, -63, 
-87, -87, 0, 87, -43, -43, -19, -14, -29, 590, 268, -63, 
-92, -87, 4, 90, -48, -41, -19, -14, -29, 590, 268, -63, 
-97, -82, 14, 90, -56, -34, -19, -9, -24, 590, 268, -63, 
-97, -82, 14, 90, -56, -34, -19, -9, -24, 585, 263, -68, 
-97, -82, 14, 90, -56, -34, -9, 4, -14, 585, 263, -68, 
-107, -78, 29, 92, -68, -24, 9, 43, 19, 595, 263, -68, 
-122, -48, 73, 85, -97, 12, 43, 136, 161, 683, 297, -53, 
-151, 29, 180, 61, -165, 104, 82, 234, 370, 844, 366, -19, 
-151, 200, 351, -24, -251, 275, 68, 312, 653, 1122, 551, 97, 
-82, 414, 497, -165, -290, 456, -34, 395, 1019, 1507, 858, 283, 
136, 756, 619, -446, -241, 688, -278, 590, 1546, 2093, 1283, 566, 
429, 1205, 775, -817, -173, 990, -585, 722, 2074, 2718, 1747, 863, 
692, 1537, 844, -1115, -75, 1190, -927, 536, 2181, 3098, 2088, 1102, 
971, 1703, 732, -1337, 119, 1217, -1249, 312, 1869, 3108, 2137, 1215, 
1210, 1620, 409, -1415, 400, 1015, -1542, -165, 1107, 2537, 1844, 1093, 
1288, 1346, 58, -1317, 614, 702, -1722, -976, -214, 1434, 1224, 819, 
1273, 893, -380, -1083, 827, 256, -1800, -1834, -1693, 258, 575, 497, 
1127, 302, -824, -714, 976, -261, -1649, -2503, -2679, -590, 19, 180, 
912, -175, -1088, -368, 1000, -631, -1356, -2801, -2947, -995, -322, -48, 
795, -473, -1268, -161, 1032, -871, -1034, -2601, -2928, -1151, -492, -214, 
595, -512, -1107, -41, 851, -810, -712, -2049, -2440, -946, -429, -209, 
317, -366, -683, 24, 500, -524, -507, -1410, -1703, -517, -185, -82, 
87, -219, -307, 65, 197, -263, -370, -980, -1132, -136, 39, 4, 
-68, -151, -82, 109, 7, -117, -170, -663, -771, 107, 87, -14, 
-161, -161, 0, 161, -80, -80, 43, -380, -536, 200, 78, -82, 
-180, -175, 4, 178, -92, -85, 112, -195, -370, 258, 78, -151, 
-185, -165, 19, 175, -102, -73, 102, -131, -258, 361, 102, -151, 
-190, -141, 48, 165, -119, -46, 97, -131, -229, 424, 141, -117, 
-190, -107, 82, 148, -136, -12, 102, -107, -229, 424, 170, -97, 
-195, -107, 87, 151, -141, -9, 92, -68, -195, 429, 175, -107, 
-190, -107, 82, 148, -136, -12, 92, -43, -151, 468, 180, -107, 
-190, -107, 82, 148, -136, -12, 87, -39, -141, 478, 190, -107, 
-190, -102, 87, 146, -139, -7, 92, -24, -136, 478, 195, -107, 
-190, -97, 92, 143, -141, -2, 92, -19, -131, 488, 195, -107, 
-195, -92, 102, 143, -148, 4, 92, -9, -107, 502, 200, -107, 
-195, -82, 112, 139, -153, 14, 87, -4, -102, 502, 204, -107, 
-195, -73, 122, 134, -158, 24, 82, 0, -87, 517, 214, -107, 
-190, -73, 117, 131, -153, 21, 87, 4, -87, 517, 219, -107, 
-190, -68, 122, 129, -156, 26, 87, 9, -82, 527, 224, -102, 
-195, -68, 126, 131, -161, 29, 87, 14, -82, 527, 224, -102, 
-200, -68, 131, 134, -165, 31, 92, 14, -78, 527, 234, -102, 
-204, -63, 141, 134, -173, 39, 97, 19, -78, 527, 234, -102, 
-204, -63, 141, 134, -173, 39, 97, 24, -78, 531, 234, -97, 
-204, -63, 141, 134, -173, 39, 97, 24, -78, 531, 234, -97, 
-204, -58, 146, 131, -175, 43, 92, 29, -78, 531, 239, -97, 
-209, -53, 156, 131, -183, 51, 92, 29, -73, 536, 239, -97, 
-209, -48, 161, 129, -185, 56, 87, 34, -73, 536, 244, -97, 
-209, -48, 161, 129, -185, 56, 87, 43, -73, 536, 248, -97, 
-209, -48, 161, 129, -185, 56, 87, 43, -73, 536, 253, -97, 
-209, -43, 165, 126, -187, 61, 87, 43, -73, 541, 258, -97, 
-209, -34, 175, 122, -192, 70, 92, 43, -68, 546, 258, -92, 
-214, -34, 180, 124, -197, 73, 92, 43, -68, 546, 253, -92, 
-219, -34, 185, 126, -202, 75, 92, 53, -68, 546, 253, -92, 
-219, -34, 185, 126, -202, 75, 92, 53, -68, 546, 253, -87, 
-219, -29, 190, 124, -204, 80, 97, 63, -63, 546, 253, -82, 
-224, -24, 200, 124, -212, 87, 102, 68, -63, 546, 258, -82, 
-224, -14, 209, 119, -217, 97, 107, 73, -63, 546, 263, -82, 
-229, -14, 214, 122, -222, 100, 107, 78, -63, 546, 263, -87, 
-229, -9, 219, 119, -224, 104, 112, 82, -58, 546, 268, -87, 
-234, -9, 224, 122, -229, 107, 107, 87, -58, 546, 268, -87, 
-239, -4, 234, 122, -236, 114, 102, 92, -58, 546, 268, -87, 
-239, -9, 229, 124, -234, 109, 102, 97, -58, 546, 268, -87, 
-239, -9, 229, 124, -234, 109, 107, 112, -53, 546, 263, -87, 
-244, -9, 234, 126, -239, 112, 112, 117, -53, 546, 263, -87, 
-244, 0, 244, 122, -244, 122, 112, 131, -43, 546, 268, -82, 
-253, 0, 253, 126, -253, 126, 112, 136, -43, 541, 268, -82, 
-258, 0, 258, 129, -258, 129, 122, 146, -39, 541, 268, -78, 
-258, 0, 258, 129, -258, 129, 131, 156, -39, 541, 273, -78, 
-258, 9, 268, 124, -263, 139, 141, 175, -39, 541, 273, -78, 
-263, 14, 278, 124, -270, 146, 165, 185, -39, 541, 273, -78, 
-263, 14, 278, 124, -270, 146, 190, 204, -34, 541, 273, -78, 
-268, 19, 287, 124, -278, 153, 180, 214, -34, 536, 268, -78, 
-273, 29, 302, 122, -287, 165, 170, 239, -24, 536, 263, -78, 
-283, 29, 312, 126, -297, 170, 175, 244, -24, 531, 263, -78, 
-292, 34, 326, 129, -309, 180, 185, 258, -19, 531, 263, -78, 
-302, 34, 336, 134, -319, 185, 190, 263, -19, 527, 253, -78, 
-307, 39, 346, 134, -326, 192, 204, 278, -9, 527, 253, -78, 
-312, 39, 351, 136, -331, 195, 209, 287, -9, 517, 253, -87, 
-317, 39, 356, 139, -336, 197, 219, 307, -4, 517, 253, -78, 
-326, 43, 370, 141, -348, 207, 214, 312, -9, 507, 244, -78, 
-336, 43, 380, 146, -358, 212, 224, 322, -9, 502, 239, -78, 
-351, 43, 395, 153, -373, 219, 224, 322, -9, 502, 234, -82, 
-361, 43, 405, 158, -383, 224, 239, 317, -9, 502, 234, -82, 
-366, 43, 409, 161, -387, 226, 239, 307, -9, 488, 229, -87, 
-375, 43, 419, 165, -397, 231, 244, 297, -19, 478, 224, -87, 
-385, 39, 424, 173, -405, 231, 244, 268, -19, 468, 209, -87, 
-395, 39, 434, 178, -414, 236, 244, 234, -34, 463, 209, -87, 
-405, 29, 434, 187, -419, 231, 234, 204, -48, 448, 204, -92, 
-409, 24, 434, 192, -422, 229, 214, 175, -63, 444, 200, -92, 
-409, 19, 429, 195, -419, 224, 195, 131, -78, 429, 200, -97, 
-405, 14, 419, 195, -412, 217, 190, 97, -87, 424, 200, -97, 
-405, 9, 414, 197, -409, 212, 175, 63, -97, 424, 200, -97, 
-400, 4, 405, 197, -402, 204, 161, 39, -97, 424, 204, -97, 
-390, 4, 395, 192, -392, 200, 126, 9, -97, 429, 200, -97, 
-375, 4, 380, 185, -378, 192, 102, 0, -87, 463, 214, -87, 
-351, 9, 361, 170, -356, 185, 73, -9, -78, 478, 224, -87, 
-326, 9, 336, 158, -331, 173, 53, -9, -53, 502, 239, -78, 
-297, 24, 322, 136, -309, 173, 29, -19, -39, 531, 253, -73, 
-268, 34, 302, 117, -285, 168, 4, -9, -19, 566, 268, -63, 
-239, 43, 283, 97, -261, 163, -14, -9, -4, 585, 283, -63, 
-209, 53, 263, 78, -236, 158, -39, 0, 14, 610, 307, -48, 
-190, 58, 248, 65, -219, 153, -58, 0, 29, 624, 317, -48, 
-175, 68, 244, 53, -209, 156, -82, 9, 48, 658, 331, -39, 
-151, 68, 219, 41, -185, 143, -102, 14, 48, 668, 346, -34, 
-141, 68, 209, 36, -175, 139, -112, 19, 58, 673, 361, -29, 
-126, 73, 200, 26, -163, 136, -112, 24, 58, 683, 366, -24, 
-112, 78, 190, 17, -151, 134, -126, 29, 63, 697, 370, -19, 
-102, 82, 185, 9, -143, 134, -131, 29, 63, 707, 370, -14, 
-92, 87, 180, 2, -136, 134, -131, 29, 68, 717, 375, -14, 
-87, 92, 180, -2, -134, 136, -136, 29, 73, 717, 380, -14, 
-82, 92, 175, -4, -129, 134, -146, 34, 78, 727, 390, -9, 
-78, 92, 170, -7, -124, 131, -156, 34, 78, 727, 390, -9, 
-78, 92, 170, -7, -124, 131, -156, 34, 78, 727, 390, -9, 
-73, 97, 170, -12, -122, 134, -156, 34, 73, 727, 395, -4, 
-68, 97, 165, -14, -117, 131, -156, 34, 73, 732, 400, -4, 
-63, 97, 161, -17, -112, 129, -156, 34, 73, 727, 400, -4, 
-63, 97, 161, -17, -112, 129, -151, 29, 73, 727, 400, -4, 
-68, 97, 165, -14, -117, 131, -151, 24, 73, 727, 400, -4, 
-68, 97, 165, -14, -117, 131, -151, 19, 68, 727, 405, -4, 
-68, 97, 165, -14, -117, 131, -151, 19, 68, 732, 405, -4, 
-68, 97, 165, -14, -117, 131, -156, 19, 68, 736, 405, -4, 
-68, 97, 165, -14, -117, 131, -151, 19, 63, 736, 405, -4, 
-68, 97, 165, -14, -117, 131, -151, 19, 63, 736, 400, -4, 
-73, 97, 170, -12, -122, 134, -146, 19, 58, 732, 400, -9, 
-73, 97, 170, -12, -122, 134, -146, 14, 58, 732, 400, -9, 
-68, 92, 161, -12, -114, 126, -146, 14, 58, 732, 395, -9, 
-68, 92, 161, -12, -114, 126, -146, 9, 58, 732, 395, -9, 
-68, 92, 161, -12, -114, 126, -141, 9, 53, 732, 395, -9, 
-68, 92, 161, -12, -114, 126, -141, 9, 53, 732, 395, -9, 
-68, 92, 161, -12, -114, 126, -141, 9, 48, 727, 395, -9, 
-73, 92, 165, -9, -119, 129, -141, 4, 48, 727, 395, -9, 
-73, 92, 165, -9, -119, 129, -141, 4, 48, 727, 395, -9, 
-73, 87, 161, -7, -117, 124, -141, 4, 53, 727, 395, -9, 
-73, 87, 161, -7, -117, 124, -136, 0, 43, 722, 395, -9, 
-68, 87, 156, -9, -112, 122, -131, -4, 43, 722, 395, -9, 
-73, 87, 161, -7, -117, 124, -131, -9, 43, 722, 395, -14, 
-73, 87, 161, -7, -117, 124, -126, -9, 43, 722, 395, -14, 
-78, 82, 161, -2, -119, 122, -126, -9, 34, 717, 390, -14, 
-73, 82, 156, -4, -114, 119, -122, -9, 43, 717, 390, -14, 
-73, 78, 151, -2, -112, 114, -122, -9, 43, 717, 390, -14, 
-73, 78, 151, -2, -112, 114, -122, -9, 39, 717, 390, -14, 
-73, 78, 151, -2, -112, 114, -122, -9, 39, 717, 390, -19, 
-73, 78, 151, -2, -112, 114, -126, -9, 39, 717, 390, -19, 
-68, 78, 146, -4, -107, 112, -122, -4, 39, 717, 390, -19, 
-63, 82, 146, -9, -104, 114, -122, 0, 39, 717, 390, -19, 
-63, 82, 146, -9, -104, 114, -122, 0, 34, 722, 390, -19, 
-68, 73, 141, -2, -104, 107, -122, 0, 34, 727, 390, -19, 
-68, 68, 136, 0, -102, 102, -122, -4, 24, 722, 390, -24, 
-68, 63, 131, 2, -100, 97, -122, -4, 19, 722, 395, -24, 
-63, 63, 126, 0, -95, 95, -122, -4, 19, 722, 395, -24, 
-53, 63, 117, -4, -85, 90, -117, -4, 19, 722, 395, -24, 
-53, 63, 117, -4, -85, 90, -122, -4, 14, 722, 395, -24, 
-53, 63, 117, -4, -85, 90, -126, -4, 14, 722, 395, -24, 
-53, 63, 117, -4, -85, 90, -126, -4, 14, 717, 390, -24, 
-53, 58, 112, -2, -82, 85, -131, -9, 14, 712, 385, -24, 
-48, 58, 107, -4, -78, 82, -131, -9, 9, 712, 385, -29, 
-43, 58, 102, -7, -73, 80, -131, -4, 9, 712, 385, -29, 
-39, 53, 92, -7, -65, 73, -136, -4, 4, 712, 385, -29, 
-34, 53, 87, -9, -61, 70, -136, -4, 4, 712, 385, -29, 
-34, 53, 87, -9, -61, 70, -126, -4, 4, 702, 385, -29, 
-29, 53, 82, -12, -56, 68, -126, 0, 4, 712, 390, -24, 
-29, 53, 82, -12, -56, 68, -122, 0, 9, 712, 390, -24, 
-29, 48, 78, -9, -53, 63, -117, 0, 9, 712, 390, -24, 
-24, 48, 73, -12, -48, 61, -112, 0, 9, 712, 385, -19, 
-19, 48, 68, -14, -43, 58, -102, 4, 9, 707, 385, -14, 
-14, 48, 63, -17, -39, 56, -117, 4, 9, 707, 385, -14, 
-9, 48, 58, -19, -34, 53, -126, 4, 9, 712, 385, -14, 
-9, 48, 58, -19, -34, 53, -131, 0, 9, 712, 385, -14, 
-9, 48, 58, -19, -34, 53, -136, -4, 4, 712, 385, -14, 
-9, 48, 58, -19, -34, 53, -136, 0, 4, 712, 385, -14, 
-9, 48, 58, -19, -34, 53, -131, 0, 4, 717, 385, -14, 
-9, 48, 58, -19, -34, 53, -136, 0, 4, 717, 385, -14, 
-4, 39, 43, -17, -24, 41, -136, 0, 4, 717, 385, -9, 
-4, 39, 43, -17, -24, 41, -136, 4, -4, 717, 385, -9, 
-4, 39, 43, -17, -24, 41, -136, 9, 4, 717, 385, -9, 
-4, 39, 43, -17, -24, 41, -136, 9, 0, 717, 385, -9, 
-4, 39, 43, -17, -24, 41, -136, 9, -4, 722, 385, -9, 
-4, 34, 39, -14, -21, 36, -131, 4, -4, 722, 385, -9, 
-4, 34, 39, -14, -21, 36, -126, 4, -4, 722, 385, -9, 
-4, 34, 39, -14, -21, 36, -126, 4, -4, 722, 385, -9, 
-4, 34, 39, -14, -21, 36, -122, 4, -4, 717, 385, -9, 
-4, 29, 34, -12, -19, 31, -117, 4, -4, 712, 385, -4, 
-4, 29, 34, -12, -19, 31, -117, 4, -4, 707, 385, -4, 
-14, 29, 43, -7, -29, 36, -117, 0, -4, 707, 380, -9, 
-4, 29, 34, -12, -19, 31, -122, 0, -4, 707, 380, -9, 
-4, 29, 34, -12, -19, 31, -117, 0, -4, 712, 380, -9, 
-4, 29, 34, -12, -19, 31, -117, 0, -4, 717, 380, -9, 
-4, 29, 34, -12, -19, 31, -117, 0, -4, 717, 380, -9, 
-4, 24, 29, -9, -17, 26, -117, 0, -4, 717, 380, -9, 
-4, 29, 34, -12, -19, 31, -117, -9, 0, 712, 385, -9, 
-4, 34, 39, -14, -21, 36, -122, 0, 4, 712, 390, -4, 
-4, 29, 34, -12, -19, 31, -122, 0, 0, 712, 380, -4, 
-9, 29, 39, -9, -24, 34, -126, 0, 0, 712, 370, -9, 
-9, 19, 29, -4, -19, 24, -126, 0, 0, 707, 370, -14, 
-9, 9, 19, 0, -14, 14, -126, 0, 0, 702, 370, -19, 
-9, 9, 19, 0, -14, 14, -117, 0, 0, 702, 370, -19, 
-9, 9, 19, 0, -14, 14, -107, 0, 0, 702, 370, -19, 
-9, 14, 24, -2, -17, 19, -107, 0, 0, 702, 370, -19, 
-9, 19, 29, -4, -19, 24, -107, 0, 0, 702, 370, -19, 
-9, 19, 29, -4, -19, 24, -102, 0, 0, 702, 370, -19, 
-9, 19, 29, -4, -19, 24, -97, 0, 0, 702, 370, -19, 
-9, 14, 24, -2, -17, 19, -97, 0, 0, 697, 370, -19, 
-9, 9, 19, 0, -14, 14, -97, 0, 0, 692, 370, -19, 
-9, 9, 19, 0, -14, 14, -97, 0, 0, 692, 366, -19, 
-9, 9, 19, 0, -14, 14, -97, 0, 0, 692, 361, -19, 
-9, 9, 19, 0, -14, 14, -97, 0, 0, 692, 361, -19, 
-9, 9, 19, 0, -14, 14, -97, 0, 0, 692, 361, -19, 
-9, 9, 19, 0, -14, 14, -97, 0, 0, 692, 361, -19, 
-9, 9, 19, 0, -14, 14, -97, 0, 0, 692, 361, -19, 
-9, 4, 14, 2, -12, 9, -97, 0, 0, 692, 361, -19, 
-9, 0, 9, 4, -9, 4, -97, 0, 0, 692, 361, -19, 
-9, 0, 9, 4, -9, 4, -92, 0, 0, 692, 361, -19, 
-9, 0, 9, 4, -9, 4, -87, 0, 0, 692, 361, -19, 
-14, -4, 9, 9, -12, 2, -87, 0, 0, 688, 356, -19, 
-19, -9, 9, 14, -14, 0, -87, 0, 0, 683, 351, -19, 
-19, -9, 9, 14, -14, 0, -87, 0, 0, 683, 346, -19, 
-19, -9, 9, 14, -14, 0, -87, 0, 0, 683, 341, -19, 
-14, -4, 9, 9, -12, 2, -82, 0, 0, 683, 341, -19, 
-9, 0, 9, 4, -9, 4, -78, 0, 0, 683, 341, -19, 
-9, 0, 9, 4, -9, 4, -73, 0, -4, 683, 341, -19, 
-9, 0, 9, 4, -9, 4, -68, 0, -4, 683, 341, -14, 
-9, 0, 9, 4, -9, 4, -63, 4, -4, 683, 341, -14, 
-14, 4, 19, 4, -17, 12, -53, 14, 0, 688, 341, -9, 
-4, 19, 24, -7, -14, 21, -48, 19, 9, 688, 346, -9, 
0, 39, 39, -19, -19, 39, -43, 24, 24, 697, 356, 4, 
0, 63, 63, -31, -31, 63, -24, 29, 34, 707, 361, 9, 
0, 68, 68, -34, -34, 68, -14, 39, 43, 712, 366, 9, 
0, 73, 73, -36, -36, 73, 14, 43, 43, 712, 366, 9, 
0, 82, 82, -41, -41, 82, 24, 58, 68, 727, 375, 24, 
0, 102, 102, -51, -51, 102, 29, 68, 82, 736, 385, 29, 
19, 136, 117, -78, -48, 126, 24, 82, 107, 751, 400, 43, 
43, 161, 117, -102, -36, 139, -29, 87, 112, 751, 400, 43, 
48, 170, 122, -109, -36, 146, -78, 87, 112, 751, 405, 53, 
43, 175, 131, -109, -43, 153, -92, 48, 112, 751, 405, 53, 
39, 180, 141, -109, -51, 161, -102, 14, 107, 756, 409, 63, 
39, 185, 146, -112, -53, 165, -122, 4, 107, 756, 409, 68, 
39, 204, 165, -122, -63, 185, -146, 4, 107, 756, 419, 78, 
43, 214, 170, -129, -63, 192, -161, -4, 97, 756, 424, 82, 
48, 234, 185, -141, -68, 209, -170, -9, 92, 756, 429, 87, 
48, 214, 165, -131, -58, 190, -204, -19, 78, 741, 419, 82, 
53, 200, 146, -126, -46, 173, -224, -29, 58, 732, 414, 78, 
53, 195, 141, -124, -43, 168, -229, -34, 53, 727, 409, 73, 
63, 190, 126, -126, -31, 158, -229, -34, 48, 722, 405, 68, 
63, 175, 112, -119, -24, 143, -214, -24, 34, 717, 400, 68, 
63, 146, 82, -104, -9, 114, -195, -24, 24, 712, 390, 58, 
68, 122, 53, -95, 7, 87, -170, -24, 4, 683, 361, 34, 
39, 87, 48, -63, -4, 68, -156, -34, -19, 663, 336, 14, 
-19, 43, 63, -12, -41, 53, -151, -39, -39, 639, 307, -4, 
-39, 14, 53, 12, -46, 34, -131, -39, -43, 624, 292, -14, 
-39, 4, 43, 17, -41, 24, -117, -39, -53, 610, 278, -29, 
-39, -9, 29, 24, -34, 9, -102, -34, -53, 605, 273, -39, 
-34, -14, 19, 24, -26, 2, -97, -34, -53, 600, 268, -43, 
-34, -29, 4, 31, -19, -12, -92, -34, -58, 600, 263, -48, 
-34, -29, 4, 31, -19, -12, -87, -24, -58, 585, 258, -48, 
-39, -29, 9, 34, -24, -9, -82, -19, -58, 585, 253, -48, 
-39, -29, 9, 34, -24, -9, -82, -19, -58, 585, 253, -53, 
-48, -29, 19, 39, -34, -4, -73, -14, -58, 585, 253, -53, 
-48, -24, 24, 36, -36, 0, -68, -14, -58, 580, 248, -53, 
-48, -19, 29, 34, -39, 4, -68, -14, -58, 580, 248, -53, 
-48, -19, 29, 34, -39, 4, -68, -14, -58, 575, 244, -53, 
-48, -14, 34, 31, -41, 9, -68, -9, -53, 570, 239, -53, 
-48, -19, 29, 34, -39, 4, -68, -24, -63, 566, 234, -58, 
-48, -24, 24, 36, -36, 0, -58, -24, -63, 566, 234, -58, 
-58, -34, 24, 46, -41, -4, -39, 0, -68, 531, 214, -73, 
-73, -19, 53, 46, -63, 17, -4, 78, 34, 575, 229, -73, 
-122, 9, 131, 56, -126, 70, 58, 175, 195, 678, 248, -73, 
-141, 131, 273, 4, -207, 202, 68, 253, 429, 897, 385, 9, 
-126, 302, 429, -87, -278, 366, 29, 326, 751, 1215, 634, 161, 
39, 600, 561, -319, -261, 580, -151, 512, 1234, 1732, 1000, 409, 
331, 1098, 766, -714, -217, 932, -458, 741, 1952, 2483, 1546, 746, 
595, 1478, 883, -1037, -143, 1180, -800, 653, 2249, 2991, 1971, 1024, 
917, 1756, 839, -1337, 39, 1298, -1146, 536, 2196, 3289, 2200, 1234, 
1200, 1786, 585, -1493, 307, 1185, -1464, 165, 1693, 3006, 2088, 1210, 
1332, 1605, 273, -1468, 529, 939, -1722, -629, 385, 1912, 1478, 961, 
1371, 1244, -126, -1307, 749, 558, -1878, -1473, -1078, 746, 839, 663, 
1244, 600, -644, -922, 944, -21, -1790, -2361, -2361, -297, 200, 302, 
1049, 68, -980, -558, 1015, -456, -1561, -2879, -2928, -897, -224, 29, 
961, -351, -1312, -305, 1137, -832, -1224, -2820, -3103, -1215, -517, -200, 
790, -512, -1302, -139, 1046, -907, -888, -2410, -2810, -1171, -575, -258, 
488, -361, -849, -63, 668, -605, -649, -1712, -2020, -712, -307, -117, 
234, -209, -444, -12, 339, -326, -478, -1224, -1395, -302, -58, -14, 
39, -107, -146, 34, 92, -126, -283, -849, -966, -4, 14, 0, 
-92, -82, 9, 87, -51, -36, -73, -507, -663, 141, 29, -34, 
-126, -112, 14, 119, -70, -48, 34, -283, -463, 195, 29, -136, 
-146, -117, 29, 131, -87, -43, 63, -180, -317, 292, 53, -170, 
-151, -92, 58, 122, -104, -17, 73, -175, -278, 375, 97, -122, 
-151, -58, 92, 104, -122, 17, 92, -146, -268, 395, 131, -87, 
-151, -48, 102, 100, -126, 26, 82, -102, -229, 395, 136, -97, 
-141, -39, 102, 90, -122, 31, 82, -73, -180, 429, 141, -97, 
-141, -39, 102, 90, -122, 31, 68, -68, -170, 444, 156, -97, 
-141, -34, 107, 87, -124, 36, 63, -53, -165, 448, 165, -97, 
-141, -29, 112, 85, -126, 41, 63, -48, -161, 453, 165, -97, 
-146, -24, 122, 85, -134, 48, 63, -39, -136, 463, 170, -97, 
-146, -19, 126, 82, -136, 53, 63, -34, -136, 463, 170, -97, 
-146, -14, 131, 80, -139, 58, 63, -29, -126, 478, 175, -97, 
-146, -14, 131, 80, -139, 58, 68, -24, -126, 483, 180, -97, 
-151, -9, 141, 80, -146, 65, 68, -19, -122, 497, 185, -92, 
-151, -9, 141, 80, -146, 65, 68, -9, -122, 497, 185, -92, 
-151, -9, 141, 80, -146, 65, 73, -4, -117, 497, 195, -92, 
-151, 0, 151, 75, -151, 75, 82, -4, -112, 497, 200, -92, 
-146, 4, 151, 70, -148, 78, 87, -4, -107, 502, 204, -87, 
-146, 4, 151, 70, -148, 78, 87, -4, -107, 507, 204, -82, 
-146, 9, 156, 68, -151, 82, 82, 0, -107, 512, 209, -78, 
-151, 14, 165, 68, -158, 90, 82, 0, -102, 517, 209, -78, 
-151, 19, 170, 65, -161, 95, 78, 4, -102, 517, 214, -78, 
-151, 14, 165, 68, -158, 90, 78, 14, -102, 517, 214, -82, 
-151, 9, 161, 70, -156, 85, 78, 14, -102, 517, 214, -87, 
-151, 14, 165, 68, -158, 90, 78, 14, -102, 517, 219, -87, 
-151, 24, 175, 63, -163, 100, 82, 14, -97, 517, 219, -82, 
-151, 24, 175, 63, -163, 100, 82, 14, -97, 517, 219, -82, 
-151, 24, 175, 63, -163, 100, 82, 24, -97, 517, 224, -82, 
-151, 19, 170, 65, -161, 95, 78, 19, -97, 512, 224, -82, 
-151, 19, 170, 65, -161, 95, 78, 24, -92, 507, 224, -82, 
-156, 19, 175, 68, -165, 97, 82, 29, -92, 507, 224, -82, 
-156, 24, 180, 65, -168, 102, 87, 34, -92, 507, 224, -82, 
-161, 29, 190, 65, -175, 109, 87, 39, -92, 507, 224, -82, 
-161, 39, 200, 61, -180, 119, 92, 43, -87, 507, 229, -78, 
-165, 39, 204, 63, -185, 122, 87, 48, -87, 512, 229, -78, 
-170, 43, 214, 63, -192, 129, 82, 53, -87, 517, 229, -78, 
-170, 43, 214, 63, -192, 129, 87, 58, -87, 517, 234, -73, 
-170, 48, 219, 61, -195, 134, 97, 73, -82, 517, 234, -68, 
-170, 48, 219, 61, -195, 134, 107, 78, -82, 517, 229, -68, 
-165, 58, 224, 53, -195, 141, 112, 92, -73, 517, 229, -63, 
-175, 58, 234, 58, -204, 146, 112, 97, -73, 512, 229, -68, 
-180, 58, 239, 61, -209, 148, 122, 107, -68, 512, 229, -68, 
-180, 58, 239, 61, -209, 148, 122, 117, -63, 512, 234, -68, 
-180, 68, 248, 56, -214, 158, 122, 136, -58, 512, 234, -68, 
-185, 73, 258, 56, -222, 165, 126, 141, -58, 512, 234, -68, 
-185, 73, 258, 56, -222, 165, 131, 156, -53, 512, 234, -68, 
-190, 68, 258, 61, -224, 163, 136, 165, -53, 507, 229, -68, 
-195, 68, 263, 63, -229, 165, 141, 190, -43, 507, 224, -68, 
-200, 68, 268, 65, -234, 168, 151, 195, -43, 502, 224, -68, 
-204, 73, 278, 65, -241, 175, 165, 209, -39, 502, 224, -68, 
-214, 73, 287, 70, -251, 180, 170, 214, -39, 497, 214, -63, 
-219, 78, 297, 70, -258, 187, 185, 229, -29, 497, 214, -58, 
-224, 78, 302, 73, -263, 190, 190, 239, -24, 488, 214, -68, 
-229, 78, 307, 75, -268, 192, 200, 258, -14, 488, 214, -58, 
-239, 82, 322, 78, -280, 202, 204, 263, -14, 478, 204, -63, 
-248, 82, 331, 82, -290, 207, 224, 273, -9, 473, 200, -68, 
-263, 82, 346, 90, -305, 214, 229, 278, -9, 468, 195, -73, 
-273, 82, 356, 95, -314, 219, 248, 278, -9, 463, 195, -73, 
-278, 82, 361, 97, -319, 222, 248, 273, -9, 458, 190, -78, 
-287, 82, 370, 102, -329, 226, 253, 268, -19, 458, 185, -78, 
-297, 78, 375, 109, -336, 226, 253, 244, -14, 444, 170, -78, 
-307, 78, 385, 114, -346, 231, 253, 214, -24, 434, 170, -78, 
-317, 68, 385, 124, -351, 226, 248, 185, -39, 419, 165, -82, 
-322, 63, 385, 129, -353, 224, 234, 156, -53, 414, 161, -82, 
-322, 58, 380, 131, -351, 219, 200, 112, -68, 400, 156, -82, 
-317, 53, 370, 131, -344, 212, 180, 78, -78, 395, 151, -78, 
-317, 48, 366, 134, -341, 207, 170, 39, -87, 395, 151, -78, 
-312, 43, 356, 134, -334, 200, 161, 9, -87, 395, 156, -78, 
-312, 43, 356, 134, -334, 200, 136, -24, -87, 390, 151, -78, 
-307, 43, 351, 131, -329, 197, 122, -39, -78, 414, 165, -68, 
-283, 48, 331, 117, -307, 190, 82, -53, -73, 424, 175, -73, 
-258, 48, 307, 104, -283, 178, 53, -58, -53, 444, 190, -68, 
-229, 58, 287, 85, -258, 173, 29, -68, -39, 473, 204, -63, 
-200, 63, 263, 68, -231, 163, 4, -58, -19, 507, 219, -53, 
-170, 73, 244, 48, -207, 158, -4, -63, -9, 522, 229, -53, 
-141, 82, 224, 29, -183, 153, -19, -58, 4, 541, 248, -39, 
-122, 82, 204, 19, -163, 143, -39, -58, 19, 556, 258, -39, 
-107, 87, 195, 9, -151, 141, -63, -48, 39, 590, 273, -29, 
-78, 92, 170, -7, -124, 131, -87, -43, 43, 605, 287, -24, 
-63, 97, 161, -17, -112, 129, -102, -39, 58, 614, 302, -19, 
-48, 102, 151, -26, -100, 126, -107, -34, 63, 624, 307, -14, 
-34, 107, 141, -36, -87, 124, -126, -29, 73, 639, 312, -9, 
-19, 112, 131, -46, -75, 122, -131, -29, 78, 649, 312, -4, 
-4, 117, 122, -56, -63, 119, -131, -29, 87, 658, 317, -4, 
0, 122, 122, -61, -61, 122, -131, -29, 87, 658, 322, -4, 
4, 122, 117, -63, -56, 119, -136, -24, 87, 668, 331, 0, 
9, 122, 112, -65, -51, 117, -141, -24, 87, 673, 336, 0, 
9, 122, 112, -65, -51, 117, -136, -24, 87, 678, 341, 0, 
9, 122, 112, -65, -51, 117, -136, -24, 82, 678, 341, 4, 
9, 117, 107, -63, -48, 112, -136, -24, 82, 683, 341, 4, 
14, 117, 102, -65, -43, 109, -141, -24, 82, 683, 341, 4, 
14, 117, 102, -65, -43, 109, -141, -29, 82, 688, 341, 4, 
9, 117, 107, -63, -48, 112, -141, -29, 82, 688, 341, 4, 
9, 117, 107, -63, -48, 112, -141, -29, 78, 688, 346, 4, 
9, 117, 107, -63, -48, 112, -136, -29, 78, 688, 346, 4, 
9, 117, 107, -63, -48, 112, -136, -29, 78, 688, 346, 4, 
9, 117, 107, -63, -48, 112, -131, -29, 73, 683, 346, 0, 
9, 117, 107, -63, -48, 112, -131, -29, 73, 678, 341, -4, 
4, 117, 112, -61, -53, 114, -131, -29, 68, 673, 341, -9, 
4, 117, 112, -61, -53, 114, -136, -34, 68, 673, 341, -9, 
4, 112, 107, -58, -51, 109, -141, -34, 68, 673, 336, -9, 
0, 112, 112, -56, -56, 112, -146, -39, 68, 673, 336, -9, 
0, 107, 107, -53, -53, 107, -141, -39, 63, 673, 336, -9, 
0, 102, 102, -51, -51, 102, -141, -39, 63, 673, 336, -9, 
0, 102, 102, -51, -51, 102, -136, -39, 58, 668, 336, -9, 
-4, 102, 107, -48, -56, 104, -131, -43, 58, 668, 336, -9, 
-4, 102, 107, -48, -56, 104, -131, -43, 53, 668, 336, -9, 
-4, 97, 102, -46, -53, 100, -131, -43, 53, 668, 336, -9, 
-4, 97, 102, -46, -53, 100, -131, -43, 43, 663, 336, -9, 
0, 97, 97, -48, -48, 97, -131, -43, 43, 663, 336, -9, 
-4, 97, 102, -46, -53, 100, -141, -48, 43, 663, 336, -14, 
-4, 97, 102, -46, -53, 100, -146, -48, 43, 663, 336, -14, 
-19, 92, 112, -36, -65, 102, -146, -48, 34, 658, 331, -14, 
-24, 92, 117, -34, -70, 104, -141, -48, 43, 658, 331, -14, 
-24, 87, 112, -31, -68, 100, -136, -48, 43, 658, 331, -14, 
-24, 87, 112, -31, -68, 100, -131, -48, 39, 658, 331, -14, 
-19, 87, 107, -34, -63, 97, -126, -48, 39, 658, 331, -19, 
-14, 87, 102, -36, -58, 95, -126, -48, 39, 658, 331, -19, 
-14, 82, 97, -34, -56, 90, -122, -48, 39, 658, 331, -19, 
-14, 82, 97, -34, -56, 90, -122, -48, 39, 658, 331, -19, 
-14, 82, 97, -34, -56, 90, -122, -48, 34, 658, 331, -19, 
-19, 73, 92, -26, -56, 82, -122, -48, 34, 658, 331, -19, 
-19, 73, 92, -26, -56, 82, -117, -53, 24, 649, 326, -24, 
-19, 73, 92, -26, -56, 82, -112, -53, 19, 644, 326, -24, 
-24, 68, 92, -21, -58, 80, -112, -53, 19, 644, 322, -24, 
-24, 63, 87, -19, -56, 75, -107, -53, 19, 644, 317, -24, 
-24, 63, 87, -19, -56, 75, -112, -53, 14, 644, 317, -24, 
-24, 63, 87, -19, -56, 75, -117, -53, 14, 644, 317, -24, 
-19, 63, 82, -21, -51, 73, -117, -48, 19, 644, 317, -24, 
-14, 58, 73, -21, -43, 65, -122, -48, 24, 644, 317, -24, 
-14, 58, 73, -21, -43, 65, -122, -48, 19, 644, 317, -29, 
-14, 58, 73, -21, -43, 65, -122, -43, 19, 644, 317, -29, 
-14, 53, 68, -19, -41, 61, -122, -43, 14, 644, 317, -29, 
-14, 53, 68, -19, -41, 61, -117, -43, 14, 644, 317, -29, 
-14, 53, 68, -19, -41, 61, -112, -43, 14, 634, 317, -29, 
-9, 53, 63, -21, -36, 58, -117, -39, 14, 644, 322, -24, 
-4, 53, 58, -24, -31, 56, -117, -39, 19, 644, 317, -24, 
0, 48, 48, -24, -24, 48, -117, -39, 19, 644, 312, -24, 
0, 48, 48, -24, -24, 48, -122, -39, 14, 644, 307, -24, 
0, 48, 48, -24, -24, 48, -122, -34, 9, 639, 307, -24, 
0, 48, 48, -24, -24, 48, -122, -34, 9, 639, 307, -29, 
0, 48, 48, -24, -24, 48, -117, -34, 9, 644, 307, -34, 
0, 43, 43, -21, -21, 43, -117, -34, 9, 644, 307, -34, 
0, 39, 39, -19, -19, 39, -117, -34, 4, 644, 307, -34, 
0, 39, 39, -19, -19, 39, -117, -29, 4, 639, 307, -34, 
0, 39, 39, -19, -19, 39, -112, -29, 4, 639, 307, -34, 
0, 39, 39, -19, -19, 39, -112, -24, 4, 639, 307, -34, 
4, 29, 24, -17, -9, 26, -107, -19, 4, 639, 307, -29, 
4, 29, 24, -17, -9, 26, -107, -19, -9, 634, 307, -29, 
4, 29, 24, -17, -9, 26, -107, -19, -4, 629, 307, -29, 
4, 34, 29, -19, -12, 31, -112, -19, -4, 629, 307, -29, 
4, 39, 34, -21, -14, 36, -117, -19, -4, 634, 307, -29, 
4, 34, 29, -19, -12, 31, -117, -19, 0, 634, 307, -29, 
4, 34, 29, -19, -12, 31, -117, -14, 4, 634, 307, -29, 
4, 29, 24, -17, -9, 26, -117, -9, 4, 634, 302, -29, 
4, 24, 19, -14, -7, 21, -112, -4, 4, 629, 297, -29, 
9, 19, 9, -14, 0, 14, -102, -4, 4, 629, 297, -24, 
14, 19, 4, -17, 4, 12, -97, -4, 4, 629, 297, -24, 
4, 19, 14, -12, -4, 17, -92, -9, 4, 629, 292, -24, 
14, 19, 4, -17, 4, 12, -92, -9, 4, 629, 292, -19, 
9, 19, 9, -14, 0, 14, -87, -9, 4, 629, 292, -19, 
4, 19, 14, -12, -4, 17, -87, -9, 4, 629, 292, -19, 
4, 19, 14, -12, -4, 17, -87, -9, 4, 624, 292, -19, 
4, 14, 9, -9, -2, 12, -87, -9, 4, 619, 292, -19, 
9, 14, 4, -12, 2, 9, -82, -19, 4, 614, 292, -19, 
14, 14, 0, -14, 7, 7, -82, -9, 4, 614, 292, -14, 
9, 19, 9, -14, 0, 14, -82, -9, 4, 619, 287, -14, 
9, 29, 19, -19, -4, 24, -87, -9, 9, 624, 283, -19, 
9, 19, 9, -14, 0, 14, -87, -9, 9, 619, 283, -19, 
9, 9, 0, -9, 4, 4, -87, -9, 9, 614, 283, -19, 
9, 4, -4, -7, 7, 0, -87, -9, 9, 614, 283, -14, 
9, 0, -9, -4, 9, -4, -87, -9, 9, 614, 283, -9, 
9, 0, -9, -4, 9, -4, -82, -9, 9, 614, 283, -9, 
9, 0, -9, -4, 9, -4, -78, -9, 9, 614, 283, -9, 
9, 0, -9, -4, 9, -4, -78, -9, 9, 614, 283, -9, 
9, 0, -9, -4, 9, -4, -78, -9, 9, 614, 283, -9, 
9, 0, -9, -4, 9, -4, -78, -9, 9, 610, 278, -9, 
9, 0, -9, -4, 9, -4, -78, -9, 9, 605, 273, -9, 
4, -4, -9, 0, 7, -7, -68, -9, 9, 605, 273, -9, 
0, -9, -9, 4, 4, -9, -58, -9, 9, 605, 273, -9, 
0, -9, -9, 4, 4, -9, -48, -9, 9, 600, 268, -14, 
0, -9, -9, 4, 4, -9, -39, -9, 9, 595, 263, -19, 
4, -9, -14, 2, 9, -12, -39, -9, 9, 595, 263, -19, 
9, -9, -19, 0, 14, -14, -39, -9, 9, 595, 263, -19, 
9, -4, -14, -2, 12, -9, -39, -9, 9, 595, 263, -19, 
9, 0, -9, -4, 9, -4, -39, -9, 9, 595, 263, -19, 
4, 0, -4, -2, 4, -2, -39, -9, 9, 595, 263, -19, 
0, 0, 0, 0, 0, 0, -39, -9, 9, 595, 263, -19, 
0, 0, 0, 0, 0, 0, -39, -9, 9, 595, 263, -19, 
0, 0, 0, 0, 0, 0, -39, -9, 9, 595, 263, -19, 
0, 0, 0, 0, 0, 0, -39, -9, 9, 590, 258, -19, 
0, 0, 0, 0, 0, 0, -39, -9, 9, 585, 253, -19, 
0, 0, 0, 0, 0, 0, -34, -14, 4, 580, 248, -19, 
0, 0, 0, 0, 0, 0, -29, -19, 0, 575, 244, -19, 
0, 0, 0, 0, 0, 0, -24, -19, 0, 575, 244, -19, 
0, 0, 0, 0, 0, 0, -19, -19, 0, 575, 244, -19, 
4, 9, 4, -7, 0, 7, -19, -19, 0, 575, 244, -19, 
9, 14, 4, -12, 2, 9, -14, -14, 0, 575, 244, -14, 
14, 19, 4, -17, 4, 12, -14, -14, 4, 575, 244, -14, 
14, 24, 9, -19, 2, 17, -4, -4, 9, 580, 244, -9, 
19, 34, 14, -26, 2, 24, 0, 0, 14, 580, 248, -9, 
19, 48, 29, -34, -4, 39, 4, 4, 24, 590, 258, 4, 
19, 73, 53, -46, -17, 63, 29, 9, 34, 600, 263, 9, 
19, 78, 58, -48, -19, 68, 43, 19, 43, 605, 268, 9, 
24, 92, 68, -58, -21, 80, 68, 24, 43, 605, 263, 9, 
29, 112, 82, -70, -26, 97, 73, 39, 68, 619, 268, 24, 
29, 131, 102, -80, -36, 117, 63, 48, 78, 629, 278, 29, 
48, 165, 117, -107, -34, 141, 43, 63, 97, 644, 292, 43, 
68, 180, 112, -124, -21, 146, -9, 63, 102, 644, 292, 43, 
68, 180, 112, -124, -21, 146, -58, 58, 102, 644, 297, 53, 
63, 190, 126, -126, -31, 158, -68, 19, 102, 639, 297, 53, 
58, 200, 141, -129, -41, 170, -73, -14, 97, 639, 302, 63, 
63, 204, 141, -134, -39, 173, -82, -24, 97, 639, 302, 68, 
68, 224, 156, -146, -43, 190, -97, -24, 97, 639, 312, 78, 
73, 229, 156, -151, -41, 192, -112, -34, 87, 639, 312, 78, 
78, 244, 165, -161, -43, 204, -122, -39, 82, 639, 312, 78, 
78, 224, 146, -151, -34, 185, -146, -48, 68, 624, 297, 73, 
82, 209, 126, -146, -21, 168, -156, -58, 48, 614, 287, 68, 
82, 200, 117, -141, -17, 158, -165, -53, 43, 610, 283, 63, 
92, 190, 97, -141, -2, 143, -170, -43, 39, 605, 278, 58, 
82, 170, 87, -126, -2, 129, -156, -34, 24, 590, 268, 53, 
73, 136, 63, -104, 4, 100, -136, -34, 14, 575, 253, 39, 
73, 102, 29, -87, 21, 65, -112, -34, -4, 546, 224, 14, 
39, 58, 19, -48, 9, 39, -97, -43, -29, 527, 200, -4, 
-4, 24, 29, -9, -17, 26, -87, -53, -43, 507, 180, -24, 
-9, 4, 14, 2, -12, 9, -63, -58, -43, 497, 175, -34, 
-14, -4, 9, 9, -12, 2, -48, -58, -58, 483, 156, -43, 
-19, -19, 0, 19, -9, -9, -34, -53, -63, 478, 146, -48, 
-14, -14, 0, 14, -7, -7, -29, -53, -63, 473, 141, -53, 
-14, -19, -4, 17, -4, -12, -24, -53, -68, 473, 136, -58, 
-14, -19, -4, 17, -4, -12, -19, -48, -68, 458, 131, -58, 
-19, -19, 0, 19, -9, -9, -14, -48, -68, 458, 126, -58, 
-14, -19, -4, 17, -4, -12, -19, -48, -68, 458, 126, -63, 
-19, -19, 0, 19, -9, -9, -14, -43, -68, 458, 126, -63, 
-19, -19, 0, 19, -9, -9, -9, -43, -63, 453, 117, -63, 
-19, -19, 0, 19, -9, -9, -9, -43, -58, 453, 112, -63, 
-19, -19, 0, 19, -9, -9, -9, -43, -58, 453, 112, -63, 
-19, -14, 4, 17, -12, -4, -9, -39, -53, 453, 112, -63, 
-19, -9, 9, 14, -14, 0, -9, -34, -48, 453, 112, -63, 
-19, -4, 14, 12, -17, 4, 0, -14, -34, 458, 117, -58, 
-29, 0, 29, 14, -29, 14, 19, 19, 24, 478, 122, -58, 
-43, 29, 73, 7, -58, 51, 53, 107, 190, 575, 161, -43, 
-58, 131, 190, -36, -124, 161, 68, 204, 429, 790, 273, 14, 
-43, 326, 370, -141, -207, 348, 29, 283, 741, 1122, 502, 156, 
63, 580, 517, -322, -226, 549, -107, 366, 1132, 1546, 834, 361, 
322, 961, 639, -641, -158, 800, -385, 561, 1683, 2171, 1283, 663, 
614, 1390, 775, -1002, -80, 1083, -692, 663, 2132, 2742, 1712, 946, 
878, 1703, 824, -1290, 26, 1263, -1034, 448, 2161, 3069, 2020, 1171, 
1127, 1815, 688, -1471, 219, 1251, -1322, 170, 1722, 2942, 1991, 1244, 
1337, 1678, 341, -1507, 497, 1010, -1581, -361, 834, 2235, 1620, 1083, 
1356, 1371, 14, -1363, 671, 692, -1708, -1127, -414, 1166, 1010, 814, 
1283, 883, -400, -1083, 841, 241, -1732, -1942, -1820, 24, 370, 497, 
1137, 326, -810, -732, 973, -241, -1556, -2513, -2718, -766, -141, 204, 
922, -117, -1039, -402, 980, -578, -1239, -2713, -2898, -1112, -439, 0, 
790, -366, -1156, -212, 973, -761, -927, -2474, -2810, -1205, -561, -136, 
575, -356, -932, -109, 753, -644, -614, -1883, -2254, -936, -448, -102, 
331, -239, -570, -46, 451, -405, -414, -1293, -1581, -551, -263, -24, 
136, -122, -258, -7, 197, -190, -283, -912, -1073, -214, -97, 14, 
0, -78, -78, 39, 39, -78, -112, -629, -746, 0, -53, -19, 
-73, -112, -39, 92, -17, -75, 73, -380, -546, 63, -68, -102, 
-87, -117, -29, 102, -29, -73, 131, -209, -395, 117, -68, -156, 
-87, -97, -9, 92, -39, -53, 112, -161, -297, 214, -43, -141, 
-92, -73, 19, 82, -56, -26, 117, -161, -268, 278, -9, -107, 
-92, -39, 53, 65, -73, 7, 131, -136, -268, 278, 14, -87, 
-92, -39, 53, 65, -73, 7, 131, -107, -234, 278, 14, -97, 
-82, -39, 43, 61, -63, 2, 141, -92, -190, 312, 14, -97, 
-82, -39, 43, 61, -63, 2, 131, -87, -185, 322, 29, -97, 
-82, -34, 48, 58, -65, 7, 131, -73, -185, 322, 39, -97, 
-82, -29, 53, 56, -68, 12, 131, -68, -180, 326, 39, -97, 
-87, -24, 63, 56, -75, 19, 131, -58, -156, 336, 43, -97, 
-87, -19, 68, 53, -78, 24, 126, -53, -156, 331, 43, -97, 
-87, -14, 73, 51, -80, 29, 122, -48, -146, 341, 48, -97, 
-82, -14, 68, 48, -75, 26, 126, -43, -146, 341, 53, -97, 
-82, -9, 73, 46, -78, 31, 126, -39, -141, 351, 58, -92, 
-82, -4, 78, 43, -80, 36, 126, -34, -141, 351, 58, -92, 
-82, 0, 82, 41, -82, 41, 131, -34, -136, 351, 68, -92, 
-87, 4, 92, 41, -90, 48, 136, -34, -136, 351, 68, -92, 
-87, 4, 92, 41, -90, 48, 136, -34, -136, 356, 68, -87, 
-82, 4, 87, 39, -85, 46, 136, -34, -136, 356, 68, -87, 
-78, 9, 87, 34, -82, 48, 131, -29, -136, 356, 73, -87, 
-82, 9, 92, 36, -87, 51, 131, -29, -131, 361, 73, -87, 
-82, 9, 92, 36, -87, 51, 126, -24, -131, 361, 78, -87, 
-82, 9, 92, 36, -87, 51, 126, -14, -131, 361, 78, -87, 
-82, 9, 92, 36, -87, 51, 126, -14, -131, 361, 78, -87, 
-82, 14, 97, 34, -90, 56, 136, -14, -131, 366, 82, -87, 
-82, 24, 107, 29, -95, 65, 151, -14, -126, 370, 82, -82, 
-82, 24, 107, 29, -95, 65, 151, -14, -126, 370, 82, -82, 
-82, 24, 107, 29, -95, 65, 151, -4, -126, 370, 87, -82, 
-82, 24, 107, 29, -95, 65, 141, -4, -126, 366, 87, -82, 
-82, 29, 112, 26, -97, 70, 136, 4, -122, 361, 87, -82, 
-82, 29, 112, 26, -97, 70, 136, 9, -122, 361, 87, -82, 
-78, 34, 112, 21, -95, 73, 136, 14, -122, 361, 87, -82, 
-82, 34, 117, 24, -100, 75, 136, 19, -122, 361, 87, -82, 
-82, 39, 122, 21, -102, 80, 141, 24, -117, 361, 92, -78, 
-82, 39, 122, 21, -102, 80, 141, 29, -117, 361, 92, -78, 
-82, 43, 126, 19, -104, 85, 141, 34, -117, 361, 92, -78, 
-82, 43, 126, 19, -104, 85, 151, 39, -117, 361, 92, -78, 
-82, 48, 131, 17, -107, 90, 165, 53, -112, 361, 87, -78, 
-87, 48, 136, 19, -112, 92, 180, 58, -112, 361, 87, -78, 
-87, 58, 146, 14, -117, 102, 190, 73, -102, 361, 92, -73, 
-97, 58, 156, 19, -126, 107, 180, 78, -102, 356, 92, -73, 
-102, 58, 161, 21, -131, 109, 180, 87, -97, 356, 92, -68, 
-102, 58, 161, 21, -131, 109, 185, 97, -87, 356, 92, -68, 
-102, 68, 170, 17, -136, 119, 190, 117, -78, 356, 87, -68, 
-107, 73, 180, 17, -143, 126, 195, 122, -78, 356, 87, -63, 
-107, 73, 180, 17, -143, 126, 200, 136, -73, 356, 87, -58, 
-107, 73, 180, 17, -143, 126, 214, 146, -73, 351, 87, -58, 
-107, 78, 185, 14, -146, 131, 229, 170, -63, 351, 87, -58, 
-112, 78, 190, 17, -151, 134, 229, 175, -63, 346, 87, -58, 
-117, 82, 200, 17, -158, 141, 234, 190, -58, 346, 87, -58, 
-131, 82, 214, 24, -173, 148, 234, 195, -58, 341, 78, -58, 
-141, 87, 229, 26, -185, 158, 244, 209, -48, 341, 78, -58, 
-146, 87, 234, 29, -190, 161, 248, 219, -48, 331, 78, -68, 
-151, 87, 239, 31, -195, 163, 258, 239, -43, 331, 78, -58, 
-156, 92, 248, 31, -202, 170, 258, 244, -39, 322, 68, -58, 
-161, 92, 253, 34, -207, 173, 273, 253, -29, 317, 63, -58, 
-175, 92, 268, 41, -222, 180, 273, 253, -29, 307, 58, -63, 
-185, 92, 278, 46, -231, 185, 287, 248, -29, 297, 58, -63, 
-190, 92, 283, 48, -236, 187, 292, 239, -34, 283, 53, -68, 
-200, 92, 292, 53, -246, 192, 302, 229, -48, 273, 48, -68, 
-209, 87, 297, 61, -253, 192, 302, 200, -48, 258, 29, -68, 
-219, 87, 307, 65, -263, 197, 302, 165, -63, 248, 24, -68, 
-229, 73, 302, 78, -265, 187, 297, 126, -78, 234, 19, -73, 
-234, 63, 297, 85, -265, 180, 283, 87, -92, 229, 14, -73, 
-229, 58, 287, 85, -258, 173, 263, 53, -107, 214, 9, -78, 
-219, 53, 273, 82, -246, 163, 258, 29, -117, 209, 4, -78, 
-219, 48, 268, 85, -244, 158, 244, -4, -126, 209, 4, -78, 
-214, 43, 258, 85, -236, 151, 229, -29, -126, 209, 9, -78, 
-204, 43, 248, 80, -226, 146, 195, -58, -126, 214, 4, -78, 
-190, 43, 234, 73, -212, 139, 170, -68, -117, 248, 19, -68, 
-165, 48, 214, 58, -190, 131, 141, -78, -107, 263, 29, -68, 
-141, 48, 190, 46, -165, 119, 122, -78, -82, 287, 43, -58, 
-112, 58, 170, 26, -141, 114, 92, -87, -63, 317, 58, -53, 
-82, 63, 146, 9, -114, 104, 63, -78, -39, 351, 73, -43, 
-53, 78, 131, -12, -92, 104, 48, -73, -24, 370, 92, -43, 
-24, 92, 117, -34, -70, 104, 29, -58, -4, 395, 122, -29, 
-4, 97, 102, -46, -53, 100, 9, -58, 9, 409, 131, -29, 
9, 107, 97, -58, -43, 102, -14, -48, 29, 444, 146, -19, 
34, 107, 73, -70, -19, 90, -29, -48, 34, 458, 156, -14, 
43, 107, 63, -75, -9, 85, -34, -48, 48, 468, 165, -9, 
53, 112, 58, -82, -2, 85, -24, -43, 53, 478, 170, -4, 
63, 117, 53, -90, 4, 85, -29, -39, 63, 492, 175, 0, 
73, 122, 48, -97, 12, 85, -34, -34, 63, 502, 180, 4, 
82, 126, 43, -104, 19, 85, -34, -29, 68, 512, 190, 4, 
87, 131, 43, -109, 21, 87, -39, -29, 68, 512, 195, 4, 
92, 131, 39, -112, 26, 85, -48, -24, 68, 522, 204, 9, 
102, 131, 29, -117, 36, 80, -53, -29, 68, 522, 204, 9, 
107, 131, 24, -119, 41, 78, -48, -34, 68, 522, 204, 9, 
107, 136, 29, -122, 39, 82, -48, -34, 63, 522, 204, 14, 
107, 136, 29, -122, 39, 82, -48, -34, 63, 527, 204, 14, 
107, 136, 29, -122, 39, 82, -63, -29, 63, 527, 204, 14, 
102, 136, 34, -119, 34, 85, -73, -29, 63, 531, 204, 14, 
97, 136, 39, -117, 29, 87, -73, -29, 63, 531, 204, 14, 
97, 136, 39, -117, 29, 87, -73, -29, 58, 531, 209, 14, 
97, 136, 39, -117, 29, 87, -68, -34, 58, 527, 204, 14, 
97, 136, 39, -117, 29, 87, -68, -39, 58, 522, 200, 14, 
97, 136, 39, -117, 29, 87, -63, -39, 53, 522, 204, 14, 
97, 136, 39, -117, 29, 87, -63, -39, 53, 522, 204, 14, 
92, 136, 43, -114, 24, 90, -63, -39, 48, 517, 204, 9, 
92, 136, 43, -114, 24, 90, -68, -43, 48, 517, 204, 9, 
92, 126, 34, -109, 29, 80, -63, -43, 48, 517, 200, 4, 
87, 122, 34, -104, 26, 78, -58, -48, 48, 517, 200, 0, 
87, 122, 34, -104, 26, 78, -53, -48, 43, 517, 200, 0, 
87, 122, 34, -104, 26, 78, -53, -48, 43, 517, 200, 0, 
87, 122, 34, -104, 26, 78, -63, -48, 43, 512, 200, 0, 
82, 122, 39, -102, 21, 80, -73, -53, 48, 512, 200, 0, 
82, 122, 39, -102, 21, 80, -73, -53, 43, 512, 200, 0, 
82, 117, 34, -100, 24, 75, -73, -53, 43, 512, 200, 0, 
78, 117, 39, -97, 19, 78, -63, -53, 34, 502, 200, 0, 
78, 117, 39, -97, 19, 78, -53, -53, 34, 497, 200, 0, 
73, 117, 43, -95, 14, 80, -53, -58, 34, 497, 200, -4, 
73, 117, 43, -95, 14, 80, -48, -58, 34, 497, 200, -4, 
63, 112, 48, -87, 7, 80, -53, -58, 24, 497, 195, -4, 
63, 112, 48, -87, 7, 80, -53, -58, 34, 502, 195, -4, 
63, 112, 48, -87, 7, 80, -53, -53, 34, 502, 195, -4, 
63, 117, 53, -90, 4, 85, -53, -48, 29, 502, 195, -4, 
63, 117, 53, -90, 4, 85, -48, -48, 24, 502, 195, -9, 
63, 117, 53, -90, 4, 85, -48, -48, 19, 502, 195, -9, 
63, 107, 43, -85, 9, 75, -43, -53, 19, 497, 190, -9, 
63, 102, 39, -82, 12, 70, -43, -58, 19, 492, 185, -9, 
63, 102, 39, -82, 12, 70, -43, -58, 14, 492, 185, -9, 
58, 92, 34, -75, 12, 63, -43, -58, 14, 492, 185, -9, 
58, 97, 39, -78, 9, 68, -43, -53, 9, 488, 180, -14, 
58, 102, 43, -80, 7, 73, -43, -43, 9, 488, 180, -14, 
58, 102, 43, -80, 7, 73, -43, -43, 9, 488, 180, -14, 
63, 102, 39, -82, 12, 70, -39, -43, 9, 488, 180, -14, 
63, 97, 34, -80, 14, 65, -34, -48, 4, 483, 180, -14, 
63, 92, 29, -78, 17, 61, -29, -53, 4, 478, 180, -14, 
63, 92, 29, -78, 17, 61, -29, -48, 4, 478, 180, -14, 
63, 87, 24, -75, 19, 56, -34, -48, 4, 478, 180, -14, 
63, 87, 24, -75, 19, 56, -34, -48, 4, 478, 175, -19, 
63, 87, 24, -75, 19, 56, -34, -43, 9, 478, 170, -19, 
58, 82, 24, -70, 17, 53, -43, -43, 4, 478, 170, -19, 
53, 82, 29, -68, 12, 56, -48, -43, 4, 478, 170, -19, 
53, 82, 29, -68, 12, 56, -39, -43, 0, 468, 170, -19, 
58, 82, 24, -70, 17, 53, -39, -39, -4, 478, 175, -14, 
58, 82, 24, -70, 17, 53, -34, -39, 0, 478, 175, -14, 
58, 78, 19, -68, 19, 48, -29, -39, 0, 478, 175, -14, 
58, 78, 19, -68, 19, 48, -34, -39, 0, 478, 170, -14, 
58, 78, 19, -68, 19, 48, -34, -34, 0, 473, 170, -14, 
58, 78, 19, -68, 19, 48, -39, -34, 0, 473, 170, -14, 
58, 78, 19, -68, 19, 48, -39, -34, 0, 478, 170, -14, 
58, 78, 19, -68, 19, 48, -39, -34, 4, 478, 170, -9, 
58, 78, 19, -68, 19, 48, -39, -34, 4, 478, 170, -4, 
58, 78, 19, -68, 19, 48, -39, -29, 4, 473, 170, -4, 
58, 78, 19, -68, 19, 48, -34, -29, 4, 473, 170, -4, 
53, 82, 29, -68, 12, 56, -34, -29, 4, 473, 165, -9, 
53, 78, 24, -65, 14, 51, -29, -29, 4, 473, 161, -9, 
53, 78, 24, -65, 14, 51, -29, -24, -4, 473, 161, -9, 
53, 78, 24, -65, 14, 51, -29, -19, 4, 473, 161, -9, 
48, 73, 24, -61, 12, 48, -29, -19, 4, 468, 161, -9, 
43, 68, 24, -56, 9, 46, -29, -19, 4, 468, 161, -9, 
43, 63, 19, -53, 12, 41, -24, -19, 4, 468, 161, -9, 
43, 63, 19, -53, 12, 41, -19, -14, 4, 468, 161, -9, 
43, 63, 19, -53, 12, 41, -24, -14, 0, 468, 161, -9, 
43, 63, 19, -53, 12, 41, -24, -14, -4, 463, 161, -9, 
39, 53, 14, -46, 12, 34, -19, -14, -4, 463, 161, -4, 
34, 48, 14, -41, 9, 31, -19, -14, -4, 463, 161, -4, 
24, 48, 24, -36, 0, 36, -14, -14, 0, 463, 156, -9, 
34, 48, 14, -41, 9, 31, -14, -9, 4, 463, 156, -9, 
39, 53, 14, -46, 12, 34, -14, -4, 9, 463, 156, -9, 
43, 58, 14, -51, 14, 36, -19, 0, 14, 463, 156, -9, 
43, 58, 14, -51, 14, 36, -19, 0, 14, 463, 156, -9, 
43, 53, 9, -48, 17, 31, -19, 0, 14, 463, 156, -9, 
43, 53, 9, -48, 17, 31, -14, -14, 14, 458, 156, -9, 
43, 53, 9, -48, 17, 31, -14, -9, 14, 458, 156, -4, 
34, 48, 14, -41, 9, 31, -9, -9, 9, 458, 151, -4, 
29, 48, 19, -39, 4, 34, -9, -9, 9, 458, 146, -9, 
29, 43, 14, -36, 7, 29, -14, -9, 9, 453, 146, -9, 
29, 39, 9, -34, 9, 24, -19, -9, 9, 448, 146, -9, 
29, 39, 9, -34, 9, 24, -19, -9, 9, 448, 146, -9, 
29, 39, 9, -34, 9, 24, -19, -9, 9, 448, 146, -9, 
29, 39, 9, -34, 9, 24, -14, -9, 4, 448, 146, -9, 
29, 39, 9, -34, 9, 24, -9, -9, 0, 448, 146, -9, 
19, 29, 9, -24, 4, 19, -9, -9, 0, 444, 141, -9, 
9, 19, 9, -14, 0, 14, -9, -9, 0, 439, 136, -9, 
9, 19, 9, -14, 0, 14, -9, -9, 0, 439, 136, -9, 
9, 19, 9, -14, 0, 14, -9, -9, 0, 439, 136, -9, 
9, 19, 9, -14, 0, 14, -14, -9, 0, 439, 136, -9, 
9, 19, 9, -14, 0, 14, -19, -9, 0, 439, 136, -9, 
4, 19, 14, -12, -4, 17, -19, -9, 0, 439, 131, -9, 
0, 19, 19, -9, -9, 19, -19, -9, 0, 439, 126, -9, 
0, 14, 14, -7, -7, 14, -19, -9, 0, 439, 126, -9, 
0, 9, 9, -4, -4, 9, -19, -9, 0, 439, 126, -9, 
0, 9, 9, -4, -4, 9, -19, -9, 0, 439, 126, -9, 
0, 9, 9, -4, -4, 9, -19, -9, 0, 439, 126, -9, 
0, 9, 9, -4, -4, 9, -19, -9, 0, 434, 126, -9, 
0, 9, 9, -4, -4, 9, -14, -4, 0, 429, 126, -4, 
4, 9, 4, -7, 0, 7, -14, -4, 4, 429, 126, -4, 
4, 14, 9, -9, -2, 12, -4, 4, 9, 434, 126, 0, 
14, 24, 9, -19, 2, 17, 0, 9, 19, 434, 131, 0, 
19, 39, 19, -29, 0, 29, 4, 14, 34, 444, 141, 14, 
19, 58, 39, -39, -9, 48, 24, 14, 43, 453, 146, 19, 
19, 58, 39, -39, -9, 48, 34, 19, 53, 458, 151, 19, 
19, 63, 43, -41, -12, 53, 58, 24, 53, 458, 151, 19, 
19, 73, 53, -46, -17, 63, 63, 39, 78, 473, 161, 34, 
24, 92, 68, -58, -21, 80, 58, 53, 87, 483, 170, 39, 
48, 126, 78, -87, -14, 102, 43, 73, 107, 497, 185, 53, 
68, 141, 73, -104, -2, 107, -9, 73, 112, 497, 185, 53, 
68, 141, 73, -104, -2, 107, -58, 68, 112, 497, 190, 63, 
58, 146, 87, -102, -14, 117, -68, 29, 112, 497, 190, 63, 
48, 151, 102, -100, -26, 126, -73, -4, 107, 502, 195, 73, 
48, 156, 107, -102, -29, 131, -87, -14, 107, 502, 195, 78, 
48, 175, 126, -112, -39, 151, -107, -14, 107, 502, 204, 87, 
53, 170, 117, -112, -31, 143, -122, -24, 97, 502, 204, 87, 
58, 175, 117, -117, -29, 146, -131, -29, 92, 502, 204, 87, 
63, 156, 92, -109, -14, 124, -156, -43, 78, 488, 195, 82, 
73, 141, 68, -107, 2, 104, -165, -58, 58, 478, 190, 78, 
73, 131, 58, -102, 7, 95, -170, -58, 53, 473, 185, 73, 
82, 122, 39, -102, 21, 80, -170, -53, 48, 468, 180, 68, 
82, 102, 19, -92, 31, 61, -161, -39, 34, 458, 170, 63, 
82, 68, -14, -75, 48, 26, -146, -34, 24, 448, 156, 48, 
73, 34, -39, -53, 56, -2, -122, -34, 4, 414, 126, 24, 
29, -9, -39, -9, 34, -24, -107, -43, -19, 390, 102, 4, 
-14, -43, -29, 29, 7, -36, -92, -48, -34, 370, 78, -14, 
-19, -63, -43, 41, 12, -53, -63, -48, -34, 361, 68, -24, 
-19, -73, -53, 46, 17, -63, -53, -48, -43, 346, 53, -34, 
-19, -87, -68, 53, 24, -78, -43, -43, -43, 341, 48, -39, 
-14, -87, -73, 51, 29, -80, -43, -43, -43, 341, 43, -43, 
-14, -97, -82, 56, 34, -90, -43, -43, -48, 346, 39, -48, 
-14, -97, -82, 56, 34, -90, -43, -39, -48, 331, 34, -48, 
-19, -97, -78, 58, 29, -87, -43, -39, -48, 331, 29, -48, 
-19, -97, -78, 58, 29, -87, -43, -39, -48, 331, 29, -53, 
-29, -97, -68, 63, 19, -82, -34, -34, -48, 331, 29, -53, 
-29, -97, -68, 63, 19, -82, -29, -34, -48, 326, 24, -53, 
-29, -97, -68, 63, 19, -82, -29, -34, -48, 326, 24, -53, 
-29, -97, -68, 63, 19, -82, -29, -34, -48, 322, 24, -48, 
-29, -92, -63, 61, 17, -78, -29, -29, -43, 317, 24, -43, 
-24, -92, -68, 58, 21, -80, -29, -39, -48, 312, 19, -48, 
-19, -92, -73, 56, 26, -82, -19, -34, -43, 312, 19, -48, 
-29, -97, -68, 63, 19, -82, 0, -4, -19, 302, 4, -58, 
-43, -78, -34, 61, -4, -56, 34, 78, 112, 370, 24, -53, 
-82, -14, 68, 48, -75, 26, 78, 170, 317, 522, 82, -29, 
-92, 141, 234, -24, -163, 187, 68, 244, 595, 790, 258, 78, 
-43, 351, 395, -153, -219, 373, -19, 326, 961, 1176, 556, 263, 
156, 688, 531, -422, -187, 610, -248, 522, 1488, 1761, 971, 546, 
448, 1176, 727, -812, -139, 951, -531, 702, 2108, 2459, 1488, 868, 
712, 1546, 834, -1129, -61, 1190, -849, 566, 2308, 2913, 1883, 1132, 
1000, 1756, 756, -1378, 122, 1256, -1195, 405, 2078, 3025, 2005, 1283, 
1249, 1717, 468, -1483, 390, 1093, -1512, -9, 1400, 2557, 1786, 1200, 
1351, 1459, 107, -1405, 622, 783, -1708, -790, 43, 1415, 1151, 932, 
1361, 1019, -341, -1190, 851, 339, -1800, -1620, -1468, 200, 488, 614, 
1215, 405, -810, -810, 1012, -202, -1678, -2381, -2571, -736, -112, 278, 
1000, -97, -1098, -451, 1049, -597, -1415, -2771, -2957, -1229, -497, 29, 
902, -453, -1356, -224, 1129, -905, -1068, -2625, -3015, -1454, -717, -161, 
722, -551, -1273, -85, 997, -912, -722, -2127, -2605, -1317, -702, -180, 
429, -405, -834, -12, 631, -619, -517, -1493, -1844, -868, -463, -58, 
185, -258, -444, 36, 314, -351, -380, -1068, -1249, -468, -244, 24, 
29, -175, -204, 73, 117, -190, -175, -736, -858, -214, -185, 4, 
-63, -170, -107, 117, 21, -139, 43, -439, -595, -112, -185, -63, 
-92, -185, -92, 139, 0, -139, 107, -244, -419, -48, -180, -131, 
-107, -175, -68, 141, -19, -122, 92, -170, -297, 58, -151, -131, 
-112, -151, -39, 131, -36, -95, 97, -165, -263, 126, -112, -97, 
-112, -117, -4, 114, -53, -61, 112, -136, -258, 131, -82, -78, 
-112, -112, 0, 112, -56, -56, 102, -102, -224, 136, -78, -87, 
-102, -107, -4, 104, -48, -56, 102, -82, -180, 175, -73, -87, 
-102, -107, -4, 104, -48, -56, 92, -78, -170, 185, -63, -87, 
-102, -102, 0, 102, -51, -51, 92, -63, -165, 185, -58, -87, 
-102, -102, 0, 102, -51, -51, 92, -58, -161, 190, -58, -87, 
-107, -102, 4, 104, -56, -48, 92, -48, -136, 200, -53, -87, 
-107, -97, 9, 102, -58, -43, 97, -43, -136, 200, -48, -87, 
-107, -92, 14, 100, -61, -39, 102, -39, -126, 214, -39, -87, 
-102, -92, 9, 97, -56, -41, 107, -39, -126, 214, -34, -87, 
-102, -87, 14, 95, -58, -36, 107, -39, -122, 224, -29, -82, 
-102, -87, 14, 95, -58, -36, 102, -34, -122, 224, -29, -82, 
-102, -87, 14, 95, -58, -36, 102, -34, -117, 224, -19, -82, 
-107, -78, 29, 92, -68, -24, 107, -29, -117, 224, -19, -82, 
-107, -73, 34, 90, -70, -19, 107, -24, -117, 229, -19, -78, 
-107, -73, 34, 90, -70, -19, 102, -24, -117, 229, -19, -78, 
-107, -68, 39, 87, -73, -14, 92, -19, -117, 229, -14, -78, 
-112, -63, 48, 87, -80, -7, 92, -19, -112, 234, -9, -78, 
-112, -58, 53, 85, -82, -2, 87, -14, -112, 234, 0, -78, 
-107, -53, 53, 80, -80, 0, 97, -4, -112, 234, 0, -78, 
-102, -48, 53, 75, -78, 2, 107, -4, -112, 234, 0, -78, 
-102, -43, 58, 73, -80, 7, 117, -4, -112, 234, 4, -78, 
-102, -34, 68, 68, -85, 17, 131, -4, -107, 234, 4, -73, 
-107, -39, 68, 73, -87, 14, 131, -4, -107, 234, 4, -73, 
-112, -43, 68, 78, -90, 12, 131, 4, -107, 234, 9, -73, 
-112, -43, 68, 78, -90, 12, 122, 4, -107, 234, 9, -73, 
-112, -39, 73, 75, -92, 17, 117, 14, -102, 234, 9, -73, 
-117, -39, 78, 78, -97, 19, 117, 19, -102, 234, 9, -73, 
-117, -34, 82, 75, -100, 24, 117, 24, -102, 234, 9, -73, 
-122, -24, 97, 73, -109, 36, 117, 29, -102, 234, 9, -68, 
-122, -9, 112, 65, -117, 51, 122, 34, -97, 234, 14, -58, 
-122, -9, 112, 65, -117, 51, 122, 39, -97, 234, 14, -58, 
-122, -4, 117, 63, -119, 56, 122, 43, -97, 234, 14, -58, 
-122, -9, 112, 65, -117, 51, 122, 43, -97, 234, 19, -58, 
-122, -9, 112, 65, -117, 51, 126, 53, -92, 234, 19, -58, 
-126, -9, 117, 68, -122, 53, 126, 58, -92, 234, 14, -63, 
-126, 0, 126, 63, -126, 63, 122, 73, -82, 234, 14, -63, 
-136, 0, 136, 68, -136, 68, 122, 78, -87, 229, 14, -63, 
-141, 0, 141, 70, -141, 70, 131, 87, -87, 229, 14, -58, 
-141, 0, 141, 70, -141, 70, 146, 97, -82, 229, 19, -58, 
-141, 9, 151, 65, -146, 80, 161, 117, -78, 229, 19, -58, 
-146, 19, 165, 63, -156, 92, 165, 122, -78, 229, 19, -58, 
-146, 24, 170, 61, -158, 97, 170, 136, -73, 229, 19, -58, 
-151, 24, 175, 63, -163, 100, 175, 146, -73, 219, 14, -58, 
-156, 29, 185, 63, -170, 107, 180, 170, -63, 214, 9, -58, 
-161, 29, 190, 65, -175, 109, 190, 175, -63, 209, 9, -58, 
-165, 34, 200, 65, -183, 117, 204, 190, -58, 209, 9, -58, 
-175, 34, 209, 70, -192, 122, 209, 195, -63, 204, 0, -58, 
-180, 39, 219, 70, -200, 129, 224, 209, -58, 204, 0, -58, 
-185, 39, 224, 73, -204, 131, 229, 214, -58, 190, 0, -68, 
-190, 39, 229, 75, -209, 134, 239, 229, -53, 185, 0, -58, 
-204, 43, 248, 80, -226, 146, 239, 234, -58, 175, -9, -58, 
-219, 43, 263, 87, -241, 153, 253, 244, -58, 170, -14, -58, 
-234, 39, 273, 97, -253, 156, 253, 248, -58, 165, -19, -63, 
-244, 34, 278, 104, -261, 156, 268, 248, -58, 161, -19, -63, 
-248, 34, 283, 107, -265, 158, 268, 239, -58, 151, -24, -68, 
-258, 34, 292, 112, -275, 163, 273, 229, -68, 146, -29, -68, 
-268, 29, 297, 119, -283, 163, 278, 200, -68, 131, -43, -68, 
-278, 29, 307, 124, -292, 168, 283, 165, -82, 122, -43, -68, 
-292, 19, 312, 136, -302, 165, 278, 136, -92, 102, -48, -73, 
-302, 14, 317, 143, -309, 165, 263, 107, -102, 92, -53, -73, 
-302, 9, 312, 146, -307, 161, 244, 63, -117, 82, -58, -78, 
-297, 4, 302, 146, -300, 153, 239, 29, -126, 82, -63, -78, 
-297, 0, 297, 148, -297, 148, 224, -4, -136, 78, -63, -78, 
-292, -4, 287, 148, -290, 141, 209, -29, -136, 73, -58, -78, 
-283, -4, 278, 143, -280, 136, 175, -58, -136, 78, -58, -78, 
-268, -4, 263, 136, -265, 129, 151, -68, -126, 112, -39, -68, 
-244, 9, 253, 117, -248, 131, 117, -78, -112, 126, -24, -68, 
-219, 19, 239, 100, -229, 129, 92, -78, -82, 151, -4, -58, 
-190, 29, 219, 80, -204, 124, 68, -87, -68, 180, 9, -53, 
-161, 34, 195, 63, -178, 114, 43, -78, -48, 214, 24, -43, 
-136, 39, 175, 48, -156, 107, 29, -78, -29, 234, 39, -43, 
-112, 43, 156, 34, -134, 100, 9, -68, -4, 258, 63, -29, 
-92, 48, 141, 21, -117, 95, -9, -63, 9, 273, 78, -29, 
-78, 58, 136, 9, -107, 97, -34, -48, 29, 307, 97, -19, 
-43, 63, 107, -9, -75, 85, -48, -43, 34, 326, 112, -14, 
-24, 68, 92, -21, -58, 80, -53, -39, 48, 341, 126, -9, 
-9, 78, 87, -34, -48, 82, -53, -29, 53, 351, 136, -4, 
4, 87, 82, -46, -39, 85, -68, -19, 63, 366, 146, 0, 
9, 92, 82, -51, -36, 87, -78, -19, 68, 375, 146, 4, 
14, 97, 82, -56, -34, 90, -82, -19, 78, 385, 151, 4, 
19, 107, 87, -63, -34, 97, -87, -19, 78, 385, 156, 4, 
24, 112, 87, -68, -31, 100, -97, -14, 78, 395, 165, 9, 
34, 117, 82, -75, -24, 100, -107, -14, 78, 400, 175, 9, 
39, 122, 82, -80, -21, 102, -107, -14, 78, 405, 185, 9, 
39, 126, 87, -82, -24, 107, -107, -14, 78, 405, 185, 14, 
39, 126, 87, -82, -24, 107, -107, -14, 82, 409, 185, 14, 
39, 126, 87, -82, -24, 107, -112, -14, 78, 405, 185, 14, 
34, 126, 92, -80, -29, 109, -112, -19, 73, 405, 185, 14, 
29, 126, 97, -78, -34, 112, -112, -19, 73, 405, 185, 14, 
29, 126, 97, -78, -34, 112, -112, -19, 68, 405, 190, 14, 
29, 126, 97, -78, -34, 112, -107, -19, 68, 405, 190, 14, 
29, 126, 97, -78, -34, 112, -107, -19, 68, 405, 190, 14, 
29, 126, 97, -78, -34, 112, -102, -19, 63, 405, 195, 14, 
29, 126, 97, -78, -34, 112, -102, -19, 63, 405, 195, 14, 
24, 126, 102, -75, -39, 114, -102, -19, 58, 400, 195, 9, 
24, 126, 102, -75, -39, 114, -107, -24, 58, 400, 195, 9, 
24, 126, 102, -75, -39, 114, -107, -19, 58, 400, 195, 9, 
19, 131, 112, -75, -46, 122, -107, -19, 58, 400, 200, 9, 
19, 136, 117, -78, -48, 126, -102, -19, 58, 400, 200, 9, 
19, 141, 122, -80, -51, 131, -102, -19, 63, 400, 200, 9, 
19, 141, 122, -80, -51, 131, -102, -19, 58, 395, 200, 9, 
14, 141, 126, -78, -56, 134, -102, -24, 58, 395, 200, 9, 
14, 141, 126, -78, -56, 134, -102, -24, 53, 395, 200, 4, 
14, 136, 122, -75, -53, 129, -102, -24, 53, 395, 200, 0, 
9, 136, 126, -73, -58, 131, -107, -24, 43, 390, 200, 0, 
9, 136, 126, -73, -58, 131, -112, -24, 43, 390, 200, 0, 
0, 136, 136, -68, -68, 136, -112, -29, 43, 390, 204, -4, 
-4, 136, 141, -65, -73, 139, -107, -29, 43, 390, 209, -4, 
-14, 131, 146, -58, -80, 139, -102, -29, 34, 385, 204, -4, 
-14, 131, 146, -58, -80, 139, -92, -29, 43, 385, 204, -4, 
-14, 131, 146, -58, -80, 139, -92, -29, 43, 385, 204, -4, 
-14, 136, 151, -61, -82, 143, -92, -29, 39, 385, 204, -4, 
-14, 136, 151, -61, -82, 143, -87, -29, 39, 380, 204, -9, 
-14, 136, 151, -61, -82, 143, -87, -29, 39, 375, 204, -9, 
-14, 131, 146, -58, -80, 139, -82, -24, 39, 375, 204, -9, 
-14, 131, 146, -58, -80, 139, -82, -19, 39, 375, 204, -9, 
-14, 136, 151, -61, -82, 143, -87, -19, 34, 375, 209, -9, 
-19, 131, 151, -56, -85, 141, -92, -19, 34, 375, 214, -9, 
-19, 131, 151, -56, -85, 141, -92, -19, 29, 370, 209, -14, 
-19, 131, 151, -56, -85, 141, -92, -14, 29, 370, 209, -14, 
-19, 126, 146, -53, -82, 136, -92, -14, 29, 370, 209, -14, 
-14, 122, 136, -53, -75, 129, -87, -14, 29, 370, 209, -14, 
-14, 122, 136, -53, -75, 129, -87, -14, 24, 370, 209, -14, 
-14, 122, 136, -53, -75, 129, -87, -14, 24, 370, 209, -14, 
-14, 126, 141, -56, -78, 134, -87, -9, 24, 370, 209, -14, 
-14, 126, 141, -56, -78, 134, -92, -9, 24, 370, 209, -14, 
-14, 126, 141, -56, -78, 134, -92, -9, 19, 370, 209, -19, 
-14, 126, 141, -56, -78, 134, -92, -4, 19, 370, 209, -19, 
-14, 122, 136, -53, -75, 129, -92, -4, 14, 370, 209, -19, 
-14, 122, 136, -53, -75, 129, -87, -4, 14, 370, 209, -19, 
-14, 122, 136, -53, -75, 129, -78, -9, 9, 361, 209, -19, 
-9, 122, 131, -56, -70, 126, -78, -9, 4, 370, 214, -14, 
-9, 126, 136, -58, -73, 131, -78, -9, 9, 370, 214, -14, 
-9, 126, 136, -58, -73, 131, -78, -9, 9, 370, 214, -14, 
-9, 126, 136, -58, -73, 131, -82, -9, 9, 370, 214, -14, 
-9, 126, 136, -58, -73, 131, -82, -4, 9, 366, 219, -14, 
-4, 126, 131, -61, -68, 129, -87, -4, 9, 366, 219, -14, 
0, 126, 126, -63, -63, 126, -87, -4, 9, 370, 219, -14, 
0, 131, 131, -65, -65, 131, -87, -4, 9, 370, 219, -14, 
0, 136, 136, -68, -68, 136, -87, -4, 4, 370, 219, -14, 
0, 136, 136, -68, -68, 136, -92, 0, 4, 366, 224, -14, 
0, 136, 136, -68, -68, 136, -92, 0, 4, 366, 229, -14, 
-9, 136, 146, -63, -78, 141, -97, 0, 4, 366, 229, -14, 
-14, 126, 141, -56, -78, 134, -97, 0, 4, 366, 229, -9, 
-14, 126, 141, -56, -78, 134, -97, 0, -9, 366, 229, -9, 
-14, 126, 141, -56, -78, 134, -97, 0, -4, 366, 229, -9, 
-9, 126, 136, -58, -73, 131, -92, 0, -4, 366, 229, -9, 
-4, 126, 131, -61, -68, 129, -87, 0, -4, 370, 229, -9, 
-4, 122, 126, -58, -65, 124, -87, -4, -4, 366, 224, -9, 
-4, 122, 126, -58, -65, 124, -87, -4, -4, 361, 219, -9, 
-4, 122, 126, -58, -65, 124, -92, -4, -4, 361, 219, -9, 
-4, 122, 126, -58, -65, 124, -92, -4, -4, 356, 219, -9, 
-4, 122, 126, -58, -65, 124, -87, -4, -4, 361, 224, -4, 
-4, 126, 131, -61, -68, 129, -87, -4, -4, 366, 229, -4, 
-14, 126, 141, -56, -78, 134, -82, -4, -4, 366, 224, -9, 
-4, 126, 131, -61, -68, 129, -82, 0, -4, 366, 224, -9, 
-4, 126, 131, -61, -68, 129, -78, 0, -4, 366, 224, -9, 
-4, 126, 131, -61, -68, 129, -78, 0, -4, 366, 224, -9, 
-9, 126, 136, -58, -73, 131, -78, 0, -4, 361, 224, -9, 
-14, 122, 136, -53, -75, 129, -78, 0, -4, 356, 224, -9, 
-14, 122, 136, -53, -75, 129, -78, -9, -4, 351, 224, -9, 
-14, 122, 136, -53, -75, 129, -82, 0, -4, 351, 224, -4, 
-9, 122, 131, -56, -70, 126, -78, 0, 0, 351, 224, -4, 
-9, 126, 136, -58, -73, 131, -78, 0, 0, 351, 224, -9, 
-9, 126, 136, -58, -73, 131, -78, 0, 0, 351, 224, -9, 
-9, 126, 136, -58, -73, 131, -78, 0, 0, 351, 224, -9, 
-9, 122, 131, -56, -70, 126, -78, 0, 0, 346, 224, -9, 
-9, 117, 126, -53, -68, 122, -78, 0, 0, 341, 224, -9, 
-9, 117, 126, -53, -68, 122, -73, 0, 0, 341, 224, -9, 
-9, 117, 126, -53, -68, 122, -68, 0, 0, 341, 224, -9, 
-9, 117, 126, -53, -68, 122, -68, 0, 0, 341, 229, -9, 
-9, 117, 126, -53, -68, 122, -68, 0, 0, 341, 234, -9, 
-9, 117, 126, -53, -68, 122, -63, 0, 0, 341, 234, -9, 
-9, 117, 126, -53, -68, 122, -58, 0, 0, 341, 234, -9, 
-9, 117, 126, -53, -68, 122, -53, 0, 0, 341, 234, -9, 
-9, 117, 126, -53, -68, 122, -48, 0, 0, 341, 234, -9, 
-9, 117, 126, -53, -68, 122, -48, 0, 0, 336, 234, -9, 
-9, 117, 126, -53, -68, 122, -48, 0, 0, 331, 234, -9, 
-9, 112, 122, -51, -65, 117, -53, 0, 0, 331, 234, -9, 
-9, 107, 117, -48, -63, 112, -58, 0, 0, 331, 234, -9, 
-9, 107, 117, -48, -63, 112, -58, 0, 0, 331, 234, -9, 
-9, 107, 117, -48, -63, 112, -58, 0, 0, 331, 234, -9, 
-9, 107, 117, -48, -63, 112, -58, 0, 0, 326, 229, -9, 
-9, 107, 117, -48, -63, 112, -58, 0, 0, 322, 224, -9, 
-14, 102, 117, -43, -65, 109, -53, 0, 0, 322, 224, -14, 
-19, 97, 117, -39, -68, 107, -48, 0, 0, 322, 224, -19, 
-19, 97, 117, -39, -68, 107, -43, 0, 0, 322, 224, -19, 
-19, 97, 117, -39, -68, 107, -39, 0, 0, 322, 224, -19, 
-14, 102, 117, -43, -65, 109, -39, 0, 0, 317, 229, -19, 
-9, 107, 117, -48, -63, 112, -39, 0, 0, 312, 234, -19, 
-4, 112, 117, -53, -61, 114, -39, 0, 0, 312, 234, -19, 
0, 112, 112, -56, -56, 112, -29, 0, 0, 312, 234, -14, 
4, 117, 112, -61, -53, 114, -24, 4, 4, 312, 234, -14, 
4, 122, 117, -63, -56, 119, -4, 14, 9, 317, 234, -9, 
9, 131, 122, -70, -56, 126, 0, 19, 19, 317, 239, -9, 
9, 146, 136, -78, -63, 141, 4, 24, 34, 326, 248, 4, 
9, 165, 156, -87, -73, 161, 14, 29, 43, 336, 253, 9, 
9, 165, 156, -87, -73, 161, 14, 39, 53, 341, 258, 9, 
9, 170, 161, -90, -75, 165, 34, 48, 63, 341, 263, 14, 
9, 180, 170, -95, -80, 175, 34, 68, 97, 356, 278, 34, 
9, 200, 190, -104, -90, 195, 34, 78, 97, 366, 287, 39, 
29, 234, 204, -131, -87, 219, 24, 92, 107, 380, 302, 53, 
48, 248, 200, -148, -75, 224, -24, 87, 112, 380, 302, 53, 
48, 248, 200, -148, -75, 224, -68, 78, 112, 380, 307, 63, 
43, 253, 209, -148, -82, 231, -82, 39, 112, 375, 307, 63, 
39, 258, 219, -148, -90, 239, -92, 4, 107, 375, 312, 73, 
39, 258, 219, -148, -90, 239, -107, -4, 107, 375, 312, 73, 
39, 273, 234, -156, -97, 253, -126, -4, 107, 375, 322, 78, 
43, 273, 229, -158, -92, 251, -146, -14, 97, 375, 322, 78, 
48, 283, 234, -165, -92, 258, -161, -19, 92, 375, 322, 78, 
48, 263, 214, -156, -82, 239, -185, -29, 73, 361, 312, 73, 
53, 248, 195, -151, -70, 222, -195, -39, 48, 351, 307, 68, 
53, 239, 185, -146, -65, 212, -190, -39, 43, 341, 302, 63, 
63, 229, 165, -146, -51, 197, -180, -34, 39, 331, 297, 58, 
63, 204, 141, -134, -39, 173, -165, -24, 29, 322, 287, 53, 
63, 165, 102, -114, -19, 134, -146, -24, 24, 312, 273, 39, 
48, 131, 82, -90, -17, 107, -126, -24, 4, 283, 244, 14, 
0, 87, 87, -43, -43, 87, -117, -34, -19, 263, 219, -4, 
-43, 53, 97, -4, -70, 75, -117, -39, -29, 244, 200, -24, 
-48, 34, 82, 7, -65, 58, -102, -39, -24, 234, 195, -34, 
-48, 24, 73, 12, -61, 48, -92, -39, -34, 219, 180, -43, 
-48, 9, 58, 19, -53, 34, -82, -34, -34, 214, 175, -48, 
-43, 9, 53, 17, -48, 31, -63, -34, -39, 209, 170, -53, 
-43, 0, 43, 21, -43, 21, -43, -34, -48, 209, 165, -58, 
-39, -4, 34, 21, -36, 14, -39, -29, -48, 195, 161, -58, 
-39, -9, 29, 24, -34, 9, -34, -29, -48, 195, 156, -58, 
-39, -9, 29, 24, -34, 9, -43, -29, -48, 195, 156, -63, 
-48, -9, 39, 29, -43, 14, -43, -24, -48, 195, 156, -63, 
-53, -4, 48, 29, -51, 21, -43, -19, -43, 190, 156, -63, 
-58, 0, 58, 29, -58, 29, -48, -14, -39, 190, 161, -63, 
-58, 0, 58, 29, -58, 29, -48, -14, -39, 190, 161, -63, 
-58, 4, 63, 26, -61, 34, -48, -9, -34, 190, 161, -63, 
-58, 4, 63, 26, -61, 34, -29, -9, -29, 185, 156, -68, 
-58, 4, 63, 26, -61, 34, 0, 4, -14, 185, 156, -68, 
-68, 24, 92, 21, -80, 58, 19, 53, 48, 219, 175, -58, 
-82, 68, 151, 7, -117, 109, 53, 156, 219, 331, 229, -34, 
-102, 156, 258, -26, -180, 207, 68, 253, 453, 527, 331, 24, 
-92, 336, 429, -122, -261, 383, 29, 331, 761, 839, 551, 165, 
4, 590, 585, -297, -290, 588, -102, 409, 1127, 1249, 873, 366, 
