I, II, III, aVR, aVL, aVF, V1, V2, V3, V4, V5, V6, 
146, 624, 478, -385, -165, 551, -97, -1044, -488, 312, -234, -478, 
146, 624, 478, -385, -165, 551, -122, -1058, -488, 317, -229, -473, 
146, 624, 478, -385, -165, 551, -146, -1073, -488, 322, -224, -468, 
165, 649, 483, -407, -158, 566, -151, -1083, -483, 326, -214, -453, 
185, 673, 488, -429, -151, 580, -156, -1093, -478, 331, -204, -439, 
195, 678, 483, -436, -143, 580, -180, -1107, -478, 336, -200, -429, 
204, 683, 478, -444, -136, 580, -204, -1122, -478, 341, -195, -419, 
204, 683, 478, -444, -136, 580, -204, -1122, -478, 341, -195, -419, 
204, 683, 478, -444, -136, 580, -204, -1122, -478, 341, -195, -419, 
204, 673, 468, -439, -131, 570, -185, -1127, -478, 331, -204, -419, 
204, 663, 458, -434, -126, 561, -165, -1132, -478, 322, -214, -419, 
204, 658, 453, -431, -124, 556, -165, -1132, -483, 312, -224, -424, 
204, 653, 448, -429, -122, 551, -165, -1132, -488, 302, -234, -429, 
204, 644, 439, -424, -117, 541, -165, -1122, -492, 287, -244, -448, 
204, 634, 429, -419, -112, 531, -165, -1112, -497, 273, -253, -468, 
200, 629, 429, -414, -114, 529, -165, -1098, -502, 258, -278, -483, 
195, 624, 429, -409, -117, 527, -165, -1083, -507, 244, -302, -497, 
175, 600, 424, -387, -124, 512, -146, -1068, -517, 214, -326, -527, 
156, 575, 419, -366, -131, 497, -126, -1054, -527, 185, -351, -556, 
126, 556, 429, -341, -151, 492, -82, -1034, -531, 170, -370, -570, 
97, 536, 439, -317, -170, 488, -39, -1015, -536, 156, -390, -585, 
92, 527, 434, -309, -170, 480, -34, -1000, -541, 131, -409, -610, 
87, 517, 429, -302, -170, 473, -29, -985, -546, 107, -429, -634, 
58, 497, 439, -278, -190, 468, 9, -961, -556, 97, -444, -649, 
29, 478, 448, -253, -209, 463, 48, -936, -566, 87, -458, -663, 
29, 468, 439, -248, -204, 453, 48, -927, -566, 73, -473, -678, 
29, 458, 429, -244, -200, 444, 48, -917, -566, 58, -488, -692, 
19, 458, 439, -239, -209, 448, 53, -912, -570, 43, -497, -702, 
9, 458, 448, -234, -219, 453, 58, -907, -575, 29, -507, -712, 
-14, 429, 444, -207, -229, 436, 92, -897, -595, 19, -517, -722, 
-39, 400, 439, -180, -239, 419, 126, -888, -614, 9, -527, -732, 
-53, 400, 453, -173, -253, 427, 126, -888, -614, 4, -531, -732, 
-68, 400, 468, -165, -268, 434, 126, -888, -614, 0, -536, -732, 
-39, 409, 448, -185, -244, 429, 117, -888, -610, 0, -536, -732, 
-9, 419, 429, -204, -219, 424, 107, -888, -605, 0, -536, -732, 
-19, 419, 439, -200, -229, 429, 102, -893, -605, 0, -536, -736, 
-29, 419, 448, -195, -239, 434, 97, -897, -605, 0, -536, -741, 
-34, 414, 448, -190, -241, 431, 97, -902, -610, -4, -536, -741, 
-39, 409, 448, -185, -244, 429, 97, -907, -614, -9, -536, -741, 
-39, 409, 448, -185, -244, 429, 97, -912, -614, -9, -536, -741, 
-39, 409, 448, -185, -244, 429, 97, -917, -614, -9, -536, -741, 
-39, 409, 448, -185, -244, 429, 97, -922, -614, -4, -536, -736, 
-39, 409, 448, -185, -244, 429, 97, -927, -614, 0, -536, -732, 
-39, 409, 448, -185, -244, 429, 102, -927, -614, 0, -531, -727, 
-39, 409, 448, -185, -244, 429, 107, -927, -614, 0, -527, -722, 
-34, 414, 448, -190, -241, 431, 107, -932, -610, 4, -527, -717, 
-29, 419, 448, -195, -239, 434, 107, -936, -605, 9, -527, -712, 
-29, 419, 448, -195, -239, 434, 107, -941, -605, 9, -522, -712, 
-29, 419, 448, -195, -239, 434, 107, -946, -605, 9, -517, -712, 
-29, 419, 448, -195, -239, 434, 107, -946, -595, 14, -512, -707, 
-29, 419, 448, -195, -239, 434, 107, -946, -585, 19, -507, -702, 
-29, 429, 458, -200, -244, 444, 107, -946, -585, 19, -507, -702, 
-29, 439, 468, -204, -248, 453, 107, -946, -585, 19, -507, -702, 
-34, 419, 453, -192, -244, 436, 117, -951, -585, 19, -507, -702, 
-39, 400, 439, -180, -239, 419, 126, -956, -585, 19, -507, -702, 
-39, 400, 439, -180, -239, 419, 102, -961, -585, 19, -502, -702, 
-39, 400, 439, -180, -239, 419, 78, -966, -585, 19, -497, -702, 
-19, 414, 434, -197, -226, 424, 58, -971, -575, 24, -497, -692, 
0, 429, 429, -214, -214, 429, 39, -976, -566, 29, -497, -683, 
-9, 429, 439, -209, -224, 434, 63, -980, -561, 29, -492, -683, 
-19, 429, 448, -204, -234, 439, 87, -985, -556, 29, -488, -683, 
-19, 434, 453, -207, -236, 444, 92, -985, -546, 34, -483, -678, 
-19, 439, 458, -209, -239, 448, 97, -985, -536, 39, -478, -673, 
-9, 463, 473, -226, -241, 468, 107, -976, -527, 48, -468, -663, 
0, 488, 488, -244, -244, 488, 117, -966, -517, 58, -458, -653, 
4, 488, 483, -246, -239, 485, 92, -966, -512, 63, -458, -649, 
9, 488, 478, -248, -234, 483, 68, -966, -507, 68, -458, -644, 
14, 488, 473, -251, -229, 480, 58, -971, -502, 68, -453, -639, 
19, 488, 468, -253, -224, 478, 48, -976, -497, 68, -448, -634, 
19, 488, 468, -253, -224, 478, 73, -990, -497, 68, -448, -634, 
14, 478, 463, -246, -224, 470, 63, -1015, -507, 63, -448, -629, 
14, 468, 453, -241, -219, 461, 58, -1039, -517, 63, -453, -629, 
9, 453, 444, -231, -217, 448, 39, -1049, -527, 58, -458, -629, 
4, 448, 444, -226, -219, 446, 34, -1054, -531, 48, -463, -629, 
4, 434, 429, -219, -212, 431, 19, -1054, -536, 43, -468, -639, 
4, 429, 424, -217, -209, 427, 19, -1054, -546, 39, -468, -644, 
4, 414, 409, -209, -202, 412, 34, -1054, -566, 29, -468, -644, 
4, 395, 390, -200, -192, 392, 34, -1058, -580, 19, -483, -649, 
4, 380, 375, -192, -185, 378, 24, -1063, -595, 9, -488, -649, 
4, 366, 361, -185, -178, 363, 34, -1063, -600, -4, -492, -653, 
9, 361, 351, -185, -170, 356, 34, -1063, -600, -4, -492, -653, 
14, 356, 341, -185, -163, 348, 14, -1068, -600, -4, -492, -639, 
19, 356, 336, -187, -158, 346, 9, -1073, -595, -4, -492, -629, 
-19, 351, 370, -165, -195, 361, 58, -1063, -595, -4, -492, -644, 
-58, 341, 400, -141, -229, 370, 87, -1063, -585, -4, -492, -653, 
-58, 326, 385, -134, -222, 356, 87, -1058, -585, -4, -497, -663, 
-48, 326, 375, -139, -212, 351, 82, -1054, -585, -4, -497, -663, 
-39, 322, 361, -141, -200, 341, 82, -1049, -590, -19, -507, -663, 
-24, 336, 361, -156, -192, 348, 82, -1049, -590, -24, -507, -663, 
-39, 317, 356, -139, -197, 336, 92, -1058, -590, -24, -512, -663, 
-53, 297, 351, -122, -202, 324, 97, -1063, -590, -24, -512, -663, 
-58, 312, 370, -126, -214, 341, 112, -1058, -590, -24, -507, -663, 
-58, 317, 375, -129, -217, 346, 112, -1058, -585, -24, -502, -663, 
-58, 312, 370, -126, -214, 341, 97, -1058, -580, -19, -502, -663, 
-58, 312, 370, -126, -214, 341, 87, -1058, -575, -14, -497, -658, 
-58, 312, 370, -126, -214, 341, 87, -1054, -570, -14, -497, -658, 
-58, 317, 375, -129, -217, 346, 73, -1054, -570, -14, -497, -658, 
-48, 297, 346, -124, -197, 322, 73, -1054, -566, -14, -492, -649, 
-73, 273, 346, -100, -209, 309, 73, -1058, -566, -19, -492, -658, 
-73, 287, 361, -107, -217, 324, 73, -1058, -561, -24, -497, -653, 
-68, 302, 370, -117, -219, 336, 68, -1058, -556, -24, -497, -649, 
-68, 297, 366, -114, -217, 331, 68, -1054, -551, -19, -492, -649, 
-63, 297, 361, -117, -212, 329, 73, -1054, -541, -19, -483, -649, 
-63, 307, 370, -122, -217, 339, 58, -1063, -531, -14, -478, -639, 
-68, 322, 390, -126, -229, 356, 43, -1073, -522, 0, -473, -634, 
-82, 341, 424, -129, -253, 383, 63, -1088, -512, 9, -463, -634, 
-92, 370, 463, -139, -278, 417, 87, -1102, -478, 53, -419, -595, 
-107, 429, 536, -161, -322, 483, 58, -1117, -409, 136, -341, -541, 
-107, 531, 639, -212, -373, 585, 24, -1132, -283, 302, -185, -429, 
-68, 653, 722, -292, -395, 688, -4, -1156, -87, 507, -4, -263, 
19, 771, 751, -395, -366, 761, -29, -1166, 92, 702, 175, -122, 
97, 829, 732, -463, -317, 780, -34, -1161, 200, 854, 297, -29, 
170, 780, 610, -475, -219, 695, -29, -1137, 170, 834, 297, -14, 
253, 522, 268, -387, -7, 395, 0, -1015, -156, 434, -24, -219, 
312, -14, -326, -148, 319, -170, 53, -844, -829, -346, -683, -634, 
380, -419, -800, 19, 590, -610, 78, -722, -1293, -858, -1141, -1000, 
409, -639, -1049, 114, 729, -844, 102, -653, -1507, -1098, -1381, -1205, 
448, -873, -1322, 212, 885, -1098, 156, -512, -1683, -1327, -1605, -1385, 
434, -1093, -1527, 329, 980, -1310, 185, -380, -1869, -1561, -1815, -1566, 
395, -1239, -1634, 422, 1015, -1437, 273, -366, -2034, -1698, -1971, -1693, 
317, -1298, -1615, 490, 966, -1456, 366, -356, -2088, -1732, -2044, -1790, 
268, -1268, -1537, 500, 902, -1403, 361, -317, -2049, -1717, -2025, -1786, 
229, -1195, -1424, 483, 827, -1310, 346, -331, -1976, -1620, -1952, -1742, 
190, -1083, -1273, 446, 732, -1178, 361, -375, -1893, -1517, -1878, -1703, 
102, -878, -980, 387, 541, -929, 366, -424, -1683, -1312, -1727, -1590, 
-4, -712, -707, 358, 351, -710, 385, -458, -1503, -1141, -1551, -1464, 
-97, -595, -497, 346, 200, -546, 439, -409, -1371, -1010, -1444, -1390, 
-165, -483, -317, 324, 75, -400, 527, -361, -1215, -873, -1342, -1327, 
-224, -312, -87, 268, -68, -200, 580, -253, -1005, -692, -1180, -1200, 
-268, -190, 78, 229, -173, -56, 634, -180, -878, -556, -1044, -1078, 
-283, -126, 156, 204, -219, 14, 678, -112, -844, -492, -985, -1015, 
-312, -92, 219, 202, -265, 63, 717, -87, -810, -439, -936, -985, 
-341, -24, 317, 183, -329, 146, 736, -122, -746, -356, -868, -922, 
-346, 48, 395, 148, -370, 222, 746, -165, -692, -283, -785, -849, 
-351, 58, 409, 146, -380, 234, 727, -273, -692, -268, -780, -819, 
-336, 82, 419, 126, -378, 251, 692, -390, -673, -234, -751, -805, 
-312, 136, 448, 87, -380, 292, 600, -492, -653, -175, -683, -756, 
-263, 200, 463, 31, -363, 331, 497, -566, -639, -136, -649, -697, 
-195, 244, 439, -24, -317, 341, 414, -644, -619, -122, -634, -673, 
-170, 258, 429, -43, -300, 344, 336, -746, -605, -87, -600, -644, 
-141, 287, 429, -73, -285, 358, 258, -824, -580, -43, -541, -600, 
-102, 326, 429, -112, -265, 378, 204, -878, -566, -9, -517, -556, 
-92, 341, 434, -124, -263, 387, 161, -971, -556, 0, -507, -536, 
-73, 361, 434, -143, -253, 397, 112, -1063, -546, 14, -492, -527, 
-39, 385, 424, -173, -231, 405, 102, -1083, -536, 29, -478, -512, 
-29, 395, 424, -183, -226, 409, 48, -1088, -522, 43, -473, -492, 
-14, 405, 419, -195, -217, 412, 29, -1112, -517, 53, -463, -483, 
-14, 419, 434, -202, -224, 427, 34, -1137, -517, 58, -458, -473, 
-14, 434, 448, -209, -231, 441, 24, -1151, -517, 58, -458, -463, 
-19, 419, 439, -200, -229, 429, 29, -1151, -522, 63, -453, -458, 
-24, 414, 439, -195, -231, 427, 48, -1156, -522, 73, -448, -448, 
-24, 414, 439, -195, -231, 427, 19, -1156, -522, 73, -448, -448, 
-19, 429, 448, -204, -234, 439, -4, -1156, -522, 78, -448, -448, 
-9, 434, 444, -212, -226, 439, -4, -1176, -517, 82, -444, -434, 
-4, 439, 444, -217, -224, 441, -29, -1190, -512, 87, -439, -429, 
0, 444, 444, -222, -222, 444, -34, -1190, -502, 92, -434, -419, 
4, 453, 448, -229, -222, 451, -39, -1205, -497, 97, -429, -414, 
14, 439, 424, -226, -204, 431, -68, -1215, -497, 102, -429, -409, 
34, 458, 424, -246, -195, 441, -87, -1215, -497, 102, -419, -409, 
24, 448, 424, -236, -200, 436, -39, -1224, -502, 107, -414, -405, 
14, 439, 424, -226, -204, 431, -43, -1229, -502, 117, -409, -405, 
19, 453, 434, -236, -207, 444, -43, -1244, -492, 126, -395, -390, 
39, 478, 439, -258, -200, 458, -4, -1244, -492, 131, -385, -375, 
39, 478, 439, -258, -200, 458, -4, -1229, -488, 136, -385, -366, 
39, 483, 444, -261, -202, 463, -4, -1229, -478, 146, -375, -356, 
53, 502, 448, -278, -197, 475, -24, -1234, -473, 161, -361, -336, 
63, 507, 444, -285, -190, 475, -58, -1244, -468, 170, -351, -331, 
73, 517, 444, -295, -185, 480, -68, -1254, -463, 175, -341, -317, 
78, 527, 448, -302, -185, 488, -78, -1259, -453, 195, -322, -297, 
78, 527, 448, -302, -185, 488, -78, -1273, -453, 195, -317, -283, 
73, 531, 458, -302, -192, 495, -92, -1298, -448, 204, -302, -258, 
68, 536, 468, -302, -200, 502, -102, -1312, -444, 224, -292, -244, 
78, 536, 458, -307, -190, 497, -126, -1317, -439, 239, -278, -229, 
102, 580, 478, -341, -187, 529, -136, -1322, -429, 253, -258, -195, 
126, 600, 473, -363, -173, 536, -151, -1337, -424, 263, -248, -170, 
136, 600, 463, -368, -163, 531, -170, -1356, -424, 273, -239, -165, 
151, 614, 463, -383, -156, 539, -161, -1366, -419, 278, -229, -146, 
151, 629, 478, -390, -163, 553, -151, -1371, -419, 283, -219, -136, 
156, 629, 473, -392, -158, 551, -161, -1385, -414, 287, -209, -117, 
165, 634, 468, -400, -151, 551, -180, -1385, -405, 302, -204, -102, 
180, 629, 448, -405, -134, 539, -209, -1405, -405, 302, -204, -102, 
180, 639, 458, -409, -139, 549, -204, -1410, -405, 307, -195, -92, 
185, 658, 473, -422, -143, 566, -195, -1405, -405, 307, -190, -82, 
195, 658, 463, -427, -134, 561, -185, -1410, -409, 302, -185, -73, 
204, 658, 453, -431, -124, 556, -185, -1410, -414, 297, -190, -68, 
224, 649, 424, -436, -100, 536, -209, -1415, -424, 292, -200, -68, 
214, 644, 429, -429, -107, 536, -229, -1420, -434, 287, -214, -68, 
209, 634, 424, -422, -107, 529, -209, -1395, -444, 268, -229, -82, 
200, 634, 434, -417, -117, 534, -195, -1395, -444, 253, -248, -92, 
195, 610, 414, -402, -109, 512, -175, -1381, -448, 239, -263, -97, 
165, 605, 439, -385, -136, 522, -165, -1371, -463, 214, -283, -112, 
165, 580, 414, -373, -124, 497, -165, -1346, -468, 195, -302, -146, 
161, 580, 419, -370, -129, 500, -165, -1327, -468, 180, -322, -161, 
131, 556, 424, -344, -146, 490, -136, -1307, -478, 156, -356, -175, 
82, 512, 429, -297, -173, 470, -131, -1278, -478, 131, -385, -209, 
87, 522, 434, -305, -173, 478, -112, -1259, -478, 112, -400, -219, 
92, 527, 434, -309, -170, 480, -68, -1234, -478, 102, -414, -229, 
73, 522, 448, -297, -187, 485, -63, -1215, -478, 87, -429, -234, 
53, 522, 468, -287, -207, 495, -53, -1185, -492, 63, -448, -253, 
43, 507, 463, -275, -209, 485, -4, -1166, -492, 53, -468, -263, 
14, 492, 478, -253, -231, 485, 34, -1161, -502, 34, -478, -287, 
4, 473, 468, -239, -231, 470, 48, -1141, -512, 9, -502, -297, 
0, 463, 463, -231, -231, 463, 58, -1132, -512, -4, -517, -302, 
-14, 448, 463, -217, -239, 456, 39, -1122, -517, -4, -522, -312, 
-24, 434, 458, -204, -241, 446, 48, -1102, -527, -14, -527, -322, 
-29, 434, 463, -202, -246, 448, 63, -1102, -536, -19, -536, -312, 
-29, 439, 468, -204, -248, 453, 53, -1093, -536, -24, -536, -317, 
-29, 419, 448, -195, -239, 434, 48, -1088, -541, -29, -536, -312, 
-24, 434, 458, -204, -241, 446, 48, -1083, -541, -34, -536, -312, 
-34, 419, 453, -192, -244, 436, 48, -1093, -536, -39, -541, -317, 
-34, 419, 453, -192, -244, 436, 58, -1093, -536, -39, -541, -317, 
-43, 405, 448, -180, -246, 427, 63, -1098, -541, -39, -541, -312, 
-34, 405, 439, -185, -236, 422, 68, -1098, -541, -39, -541, -307, 
-34, 414, 448, -190, -241, 431, 63, -1098, -541, -39, -546, -307, 
-34, 414, 448, -190, -241, 431, 63, -1102, -541, -39, -551, -302, 
-39, 395, 434, -178, -236, 414, 63, -1093, -541, -34, -546, -292, 
-48, 375, 424, -163, -236, 400, 63, -1093, -536, -34, -546, -287, 
-48, 390, 439, -170, -244, 414, 78, -1088, -536, -29, -546, -278, 
-43, 409, 453, -183, -248, 431, 87, -1088, -531, -29, -541, -268, 
-29, 429, 458, -200, -244, 444, 82, -1088, -522, -19, -536, -258, 
-19, 424, 444, -202, -231, 434, 82, -1083, -502, -9, -531, -244, 
-29, 424, 453, -197, -241, 439, 73, -1083, -517, -4, -522, -239, 
-39, 424, 463, -192, -251, 444, 73, -1083, -522, -4, -517, -234, 
-39, 419, 458, -190, -248, 439, 63, -1088, -517, -4, -517, -229, 
-39, 424, 463, -192, -251, 444, 63, -1093, -517, 0, -507, -219, 
-34, 424, 458, -195, -246, 441, 43, -1093, -512, 0, -507, -219, 
-29, 424, 453, -197, -241, 439, 29, -1093, -502, 4, -507, -219, 
-24, 414, 439, -195, -231, 427, 53, -1083, -507, -4, -512, -209, 
-24, 419, 444, -197, -234, 431, 58, -1083, -497, -4, -507, -209, 
-34, 400, 434, -183, -234, 417, 53, -1088, -492, -4, -512, -200, 
-39, 405, 444, -183, -241, 424, 53, -1088, -488, -4, -507, -195, 
-24, 409, 434, -192, -229, 422, 24, -1083, -488, 0, -502, -185, 
-9, 409, 419, -200, -214, 414, 0, -1078, -478, 9, -497, -175, 
4, 429, 424, -217, -209, 427, 0, -1078, -473, 9, -492, -170, 
19, 444, 424, -231, -202, 434, 0, -1078, -473, 9, -492, -165, 
-4, 458, 463, -226, -234, 461, 58, -1073, -473, 14, -492, -156, 
-14, 468, 483, -226, -248, 475, 117, -1083, -468, 19, -483, -151, 
-14, 473, 488, -229, -251, 480, 117, -1083, -453, 24, -478, -136, 
-19, 483, 502, -231, -261, 492, 122, -1083, -444, 29, -478, -126, 
-9, 492, 502, -241, -256, 497, 78, -1068, -434, 39, -468, -112, 
0, 507, 507, -253, -253, 507, 39, -1054, -429, 48, -458, -97, 
9, 507, 497, -258, -244, 502, 39, -1054, -424, 48, -458, -97, 
19, 507, 488, -263, -234, 497, 39, -1054, -419, 48, -458, -97, 
19, 507, 488, -263, -234, 497, 29, -1068, -419, 48, -458, -97, 
19, 502, 483, -261, -231, 492, 9, -1088, -429, 43, -458, -92, 
19, 497, 478, -258, -229, 488, -9, -1112, -439, 43, -458, -87, 
19, 492, 473, -256, -226, 483, -19, -1117, -448, 39, -458, -82, 
4, 488, 483, -246, -239, 485, -9, -1122, -453, 29, -463, -73, 
-4, 473, 478, -234, -241, 475, -9, -1122, -458, 24, -468, -73, 
9, 478, 468, -244, -229, 473, -9, -1122, -468, 19, -463, -73, 
24, 473, 448, -248, -212, 461, 4, -1122, -488, 9, -458, -68, 
24, 453, 429, -239, -202, 441, -9, -1127, -507, 0, -483, -73, 
24, 439, 414, -231, -195, 427, -34, -1132, -527, -9, -497, -73, 
19, 424, 405, -222, -192, 414, -24, -1132, -536, -24, -502, -78, 
19, 419, 400, -219, -190, 409, -24, -1132, -541, -24, -502, -78, 
9, 409, 400, -209, -195, 405, -9, -1127, -541, -24, -497, -63, 
0, 405, 405, -202, -202, 405, 19, -1122, -536, -24, -492, -53, 
-9, 405, 414, -197, -212, 409, 48, -1098, -536, -24, -492, -58, 
-19, 400, 419, -190, -219, 409, 58, -1083, -527, -24, -492, -58, 
-34, 385, 419, -175, -226, 402, 58, -1083, -522, -24, -497, -68, 
-39, 385, 424, -173, -231, 405, 53, -1083, -517, -24, -497, -68, 
-48, 361, 409, -156, -229, 385, 53, -1078, -522, -39, -507, -68, 
-53, 356, 409, -151, -231, 383, 53, -1078, -522, -43, -507, -68, 
-53, 356, 409, -151, -231, 383, 58, -1078, -517, -43, -512, -58, 
-53, 356, 409, -151, -231, 383, 58, -1073, -512, -43, -512, -48, 
-43, 366, 409, -161, -226, 387, 58, -1063, -512, -39, -512, -43, 
-29, 366, 395, -168, -212, 380, 43, -1058, -507, -34, -512, -39, 
-39, 361, 400, -161, -219, 380, 58, -1058, -507, -34, -512, -39, 
-48, 361, 409, -156, -229, 385, 78, -1058, -507, -34, -507, -34, 
-53, 346, 400, -146, -226, 373, 78, -1054, -502, -39, -507, -34, 
-58, 336, 395, -139, -226, 366, 63, -1054, -502, -43, -507, -34, 
-48, 331, 380, -141, -214, 356, 68, -1049, -497, -39, -502, -19, 
-73, 322, 395, -124, -234, 358, 73, -1049, -497, -39, -502, -24, 
-73, 322, 395, -124, -234, 358, 73, -1049, -497, -39, -507, -19, 
-68, 322, 390, -126, -229, 356, 68, -1049, -497, -34, -507, -14, 
-68, 317, 385, -124, -226, 351, 63, -1044, -497, -29, -502, -14, 
-63, 317, 380, -126, -222, 348, 63, -1044, -492, -29, -492, -14, 
-58, 326, 385, -134, -222, 356, 63, -1039, -488, -34, -488, -14, 
-58, 341, 400, -141, -229, 370, 63, -1034, -483, -29, -483, -19, 
-73, 351, 424, -139, -248, 387, 68, -1049, -468, -14, -478, -34, 
-82, 370, 453, -143, -268, 412, 78, -1063, -429, 34, -439, -9, 
-107, 409, 517, -151, -312, 463, 92, -1078, -405, 68, -400, 14, 
-117, 492, 610, -187, -363, 551, 102, -1093, -322, 185, -283, 97, 
-78, 629, 707, -275, -392, 668, 43, -1117, -107, 419, -73, 268, 
9, 761, 751, -385, -370, 756, -9, -1127, 92, 644, 136, 414, 
68, 868, 800, -468, -366, 834, -48, -1127, 268, 858, 317, 556, 
122, 868, 746, -495, -312, 807, -78, -1107, 307, 902, 375, 619, 
239, 683, 444, -461, -102, 563, -39, -985, 48, 585, 117, 439, 
331, 219, -112, -275, 222, 53, 24, -814, -556, -112, -478, 48, 
390, -248, -639, -70, 514, -444, 48, -692, -1107, -722, -1010, -366, 
409, -531, -941, 61, 675, -736, 73, -624, -1410, -1058, -1322, -619, 
444, -771, -1215, 163, 829, -993, 165, -478, -1566, -1273, -1546, -814, 
424, -995, -1420, 285, 922, -1207, 234, -341, -1732, -1493, -1756, -1010, 
395, -1171, -1566, 387, 980, -1368, 273, -307, -1952, -1678, -1952, -1166, 
326, -1259, -1586, 466, 956, -1422, 317, -278, -2059, -1761, -2064, -1293, 
283, -1239, -1522, 478, 902, -1381, 322, -229, -2005, -1747, -2044, -1298, 
248, -1176, -1424, 463, 836, -1300, 317, -234, -1917, -1649, -1971, -1263, 
209, -1102, -1312, 446, 761, -1207, 322, -278, -1883, -1586, -1922, -1239, 
122, -936, -1058, 407, 590, -997, 317, -326, -1722, -1420, -1795, -1141, 
14, -751, -766, 368, 390, -758, 361, -370, -1503, -1215, -1600, -1015, 
-78, -614, -536, 346, 229, -575, 439, -331, -1332, -1049, -1473, -941, 
-146, -488, -341, 317, 97, -414, 527, -273, -1200, -932, -1390, -888, 
-204, -302, -97, 253, -53, -200, 580, -156, -1015, -771, -1249, -771, 
-253, -180, 73, 217, -163, -53, 644, -63, -849, -595, -1078, -639, 
-273, -117, 156, 195, -214, 19, 697, 24, -775, -492, -985, -566, 
-336, -107, 229, 222, -283, 61, 736, 73, -771, -473, -966, -561, 
-400, -63, 336, 231, -368, 136, 756, 63, -736, -424, -927, -522, 
-380, 48, 429, 165, -405, 239, 741, 19, -663, -312, -810, -429, 
-361, 97, 458, 131, -409, 278, 697, -87, -644, -258, -771, -380, 
-346, 112, 458, 117, -402, 285, 707, -224, -624, -253, -766, -380, 
-322, 156, 478, 82, -400, 317, 658, -346, -605, -224, -722, -346, 
-292, 204, 497, 43, -395, 351, 575, -414, -590, -165, -663, -297, 
-244, 234, 478, 4, -361, 356, 512, -488, -570, -131, -624, -283, 
-204, 248, 453, -21, -329, 351, 405, -595, -556, -112, -610, -263, 
-161, 278, 439, -58, -300, 358, 297, -678, -531, -82, -570, -229, 
-112, 307, 419, -97, -265, 363, 219, -751, -512, -34, -536, -190, 
-92, 312, 405, -109, -248, 358, 151, -863, -497, -9, -517, -175, 
-73, 346, 419, -136, -246, 383, 126, -956, -488, 4, -502, -165, 
-39, 385, 424, -173, -231, 405, 141, -976, -478, 19, -488, -151, 
-29, 395, 424, -183, -226, 409, 107, -985, -468, 34, -478, -141, 
-14, 405, 419, -195, -217, 412, 107, -1015, -468, 43, -463, -141, 
-14, 405, 419, -195, -217, 412, 63, -1039, -468, 48, -458, -136, 
-14, 405, 419, -195, -217, 412, 4, -1054, -468, 48, -458, -131, 
-19, 395, 414, -187, -217, 405, 0, -1068, -468, 53, -453, -131, 
-24, 395, 419, -185, -222, 407, 9, -1088, -463, 63, -448, -126, 
-24, 395, 419, -185, -222, 407, 9, -1098, -463, 63, -444, -131, 
-19, 409, 429, -195, -224, 419, 14, -1107, -463, 68, -439, -136, 
-9, 414, 424, -202, -217, 419, 14, -1122, -458, 73, -434, -126, 
-4, 419, 424, -207, -214, 422, -9, -1132, -453, 78, -429, -126, 
0, 424, 424, -212, -212, 424, -34, -1132, -453, 82, -424, -126, 
4, 434, 429, -219, -212, 431, -58, -1146, -458, 87, -419, -131, 
4, 419, 414, -212, -204, 417, -29, -1156, -458, 92, -419, -126, 
14, 439, 424, -226, -204, 431, 9, -1156, -458, 92, -409, -126, 
14, 439, 424, -226, -204, 431, 39, -1166, -463, 97, -409, -131, 
14, 439, 424, -226, -204, 431, 14, -1171, -463, 107, -409, -141, 
19, 444, 424, -231, -202, 434, -24, -1190, -453, 117, -395, -136, 
39, 458, 419, -248, -190, 439, -24, -1195, -453, 122, -385, -131, 
39, 463, 424, -251, -192, 444, -24, -1195, -448, 126, -385, -126, 
39, 473, 434, -256, -197, 453, -24, -1210, -439, 136, -375, -122, 
53, 492, 439, -273, -192, 466, -34, -1220, -434, 151, -361, -107, 
63, 497, 434, -280, -185, 466, -58, -1234, -429, 161, -351, -107, 
73, 512, 439, -292, -183, 475, -82, -1244, -424, 170, -341, -97, 
78, 527, 448, -302, -185, 488, -107, -1249, -414, 195, -322, -82, 
73, 502, 429, -287, -178, 466, -87, -1263, -419, 190, -322, -82, 
63, 483, 419, -273, -178, 451, -82, -1288, -419, 195, -312, -73, 
82, 517, 434, -300, -175, 475, -63, -1307, -414, 209, -302, -58, 
117, 546, 429, -331, -156, 488, -58, -1317, -409, 219, -287, -43, 
126, 570, 444, -348, -158, 507, -87, -1327, -395, 234, -268, -19, 
136, 570, 434, -353, -148, 502, -122, -1346, -385, 244, -258, -4, 
136, 566, 429, -351, -146, 497, -136, -1371, -395, 253, -248, -9, 
141, 575, 434, -358, -146, 505, -122, -1385, -400, 258, -239, 0, 
161, 590, 429, -375, -134, 509, -117, -1400, -400, 263, -229, 4, 
185, 590, 405, -387, -109, 497, -131, -1424, -395, 268, -219, 19, 
200, 619, 419, -409, -109, 519, -156, -1424, -385, 287, -209, 34, 
219, 639, 419, -429, -100, 529, -190, -1444, -385, 292, -204, 34, 
219, 629, 409, -424, -95, 519, -224, -1454, -380, 297, -200, 34, 
224, 629, 405, -427, -90, 517, -253, -1454, -375, 297, -200, 34, 
209, 614, 405, -412, -97, 509, -234, -1459, -380, 292, -195, 29, 
195, 600, 405, -397, -104, 502, -224, -1459, -385, 287, -200, 19, 
224, 590, 366, -407, -70, 478, -200, -1459, -385, 278, -209, 14, 
224, 585, 361, -405, -68, 473, -170, -1459, -385, 268, -224, 9, 
224, 580, 356, -402, -65, 468, -170, -1439, -395, 253, -239, -9, 
219, 585, 366, -402, -73, 475, -175, -1444, -395, 244, -258, -24, 
219, 551, 331, -385, -56, 441, -156, -1434, -400, 229, -273, -43, 
195, 536, 341, -366, -73, 439, -146, -1429, -414, 204, -292, -73, 
185, 512, 326, -348, -70, 419, -156, -1405, -414, 190, -307, -107, 
170, 512, 341, -341, -85, 427, -165, -1385, -409, 180, -322, -122, 
165, 502, 336, -334, -85, 419, -170, -1371, -419, 161, -351, -141, 
141, 473, 331, -307, -95, 402, -200, -1346, -419, 141, -375, -180, 
122, 473, 351, -297, -114, 412, -112, -1327, -419, 122, -390, -200, 
102, 468, 366, -285, -131, 417, 0, -1302, -419, 112, -405, -219, 
78, 448, 370, -263, -146, 409, 24, -1283, -414, 97, -419, -234, 
53, 434, 380, -244, -163, 407, 53, -1254, -424, 73, -439, -263, 
48, 424, 375, -236, -163, 400, 63, -1229, -424, 68, -453, -273, 
24, 414, 390, -219, -183, 402, 63, -1220, -434, 53, -458, -297, 
24, 400, 375, -212, -175, 387, 63, -1200, -444, 39, -473, -317, 
29, 395, 366, -212, -168, 380, 58, -1190, -444, 34, -478, -331, 
4, 375, 370, -190, -183, 373, 63, -1185, -448, 19, -492, -351, 
-14, 356, 370, -170, -192, 363, 97, -1171, -458, -4, -507, -370, 
-24, 351, 375, -163, -200, 363, 122, -1171, -468, -9, -517, -370, 
-29, 351, 380, -161, -204, 366, 122, -1161, -468, -14, -517, -385, 
-34, 331, 366, -148, -200, 348, 78, -1166, -468, -19, -517, -390, 
-34, 346, 380, -156, -207, 363, 39, -1171, -463, -24, -517, -400, 
-48, 331, 380, -141, -214, 356, 48, -1185, -463, -29, -527, -419, 
-53, 331, 385, -139, -219, 358, 68, -1190, -468, -29, -531, -434, 
-63, 317, 380, -126, -222, 348, 78, -1190, -473, -29, -531, -434, 
-53, 317, 370, -131, -212, 344, 87, -1185, -473, -29, -531, -434, 
-43, 326, 370, -141, -207, 348, 82, -1180, -473, -29, -531, -434, 
-34, 326, 361, -146, -197, 344, 82, -1180, -473, -29, -531, -429, 
-34, 322, 356, -143, -195, 339, 82, -1180, -473, -24, -527, -429, 
-39, 317, 356, -139, -197, 336, 82, -1190, -468, -24, -527, -434, 
-34, 317, 351, -141, -192, 334, 97, -1195, -468, -24, -531, -434, 
-24, 322, 346, -148, -185, 334, 107, -1205, -463, -29, -531, -434, 
-19, 336, 356, -158, -187, 346, 151, -1210, -468, -24, -531, -439, 
-19, 326, 346, -153, -183, 336, 200, -1210, -463, -19, -531, -439, 
-24, 326, 351, -151, -187, 339, 165, -1210, -463, -9, -517, -439, 
-29, 326, 356, -148, -192, 341, 141, -1210, -453, -4, -507, -439, 
-29, 326, 356, -148, -192, 341, 136, -1215, -448, -4, -507, -439, 
-29, 336, 366, -153, -197, 351, 141, -1220, -448, 0, -497, -434, 
-39, 322, 361, -141, -200, 341, 122, -1229, -448, 0, -502, -444, 
-48, 307, 356, -129, -202, 331, 107, -1239, -444, 4, -507, -453, 
-43, 307, 351, -131, -197, 329, 102, -1229, -448, 0, -507, -444, 
-43, 322, 366, -139, -204, 344, 78, -1229, -439, 4, -497, -444, 
-34, 312, 346, -139, -190, 329, 73, -1234, -434, 9, -497, -439, 
-19, 326, 346, -153, -183, 336, 73, -1234, -429, 14, -488, -439, 
-19, 331, 351, -156, -185, 341, 78, -1239, -439, 9, -492, -444, 
-19, 331, 351, -156, -185, 341, 87, -1244, -439, 9, -497, -448, 
-9, 341, 351, -165, -180, 346, 87, -1244, -434, 14, -488, -453, 
0, 346, 346, -173, -173, 346, 87, -1244, -434, 19, -483, -458, 
-9, 361, 370, -175, -190, 366, 82, -1234, -414, 29, -478, -448, 
-4, 370, 375, -183, -190, 373, 78, -1239, -390, 39, -463, -444, 
0, 385, 385, -192, -192, 385, 102, -1224, -385, 43, -458, -439, 
9, 400, 390, -204, -190, 395, 126, -1210, -380, 48, -458, -439, 
9, 400, 390, -204, -190, 395, 97, -1210, -370, 48, -453, -439, 
9, 400, 390, -204, -190, 395, 68, -1210, -361, 48, -448, -439, 
14, 400, 385, -207, -185, 392, 53, -1220, -356, 48, -448, -439, 
14, 395, 380, -204, -183, 387, 39, -1244, -351, 48, -448, -439, 
19, 390, 370, -204, -175, 380, 24, -1273, -351, 48, -448, -439, 
19, 380, 361, -200, -170, 370, 9, -1302, -366, 43, -448, -444, 
19, 375, 356, -197, -168, 366, 19, -1302, -370, 43, -444, -444, 
14, 370, 356, -192, -170, 363, 29, -1307, -375, 39, -444, -444, 
9, 356, 346, -183, -168, 351, 39, -1312, -380, 34, -444, -453, 
4, 351, 346, -178, -170, 348, 58, -1317, -390, 29, -444, -458, 
4, 336, 331, -170, -163, 334, 73, -1317, -409, 19, -448, -468, 
4, 317, 312, -161, -153, 314, 73, -1322, -424, 9, -463, -483, 
9, 302, 292, -156, -141, 297, 19, -1332, -434, 0, -468, -488, 
9, 287, 278, -148, -134, 283, -14, -1337, -439, -14, -473, -497, 
14, 283, 268, -148, -126, 275, 9, -1346, -444, -14, -478, -502, 
9, 278, 268, -143, -129, 273, 34, -1351, -444, -14, -483, -502, 
4, 283, 278, -143, -136, 280, 58, -1337, -439, -14, -483, -502, 
0, 287, 287, -143, -143, 287, 97, -1317, -439, -14, -483, -517, 
-9, 292, 302, -141, -156, 297, 97, -1312, -424, -14, -478, -527, 
-24, 287, 312, -131, -168, 300, 87, -1307, -419, -14, -478, -536, 
-39, 278, 317, -119, -178, 297, 82, -1307, -419, -14, -478, -536, 
-53, 248, 302, -97, -178, 275, 82, -1302, -424, -29, -488, -536, 
-63, 239, 302, -87, -183, 270, 68, -1312, -424, -34, -488, -541, 
-73, 229, 302, -78, -187, 265, 58, -1322, -424, -34, -492, -546, 
-63, 239, 302, -87, -183, 270, 73, -1317, -424, -34, -492, -551, 
-58, 248, 307, -95, -183, 278, 102, -1312, -424, -34, -492, -556, 
-58, 239, 297, -90, -178, 268, 131, -1312, -419, -34, -497, -566, 
-58, 234, 292, -87, -175, 263, 156, -1312, -419, -34, -502, -580, 
-68, 219, 287, -75, -178, 253, 122, -1322, -419, -34, -497, -585, 
-78, 204, 283, -63, -180, 244, 87, -1327, -414, -34, -497, -590, 
-63, 224, 287, -80, -175, 256, 48, -1327, -414, -34, -497, -590, 
-39, 239, 278, -100, -158, 258, 34, -1322, -409, -29, -492, -580, 
-63, 234, 297, -85, -180, 265, 73, -1322, -409, -29, -492, -595, 
-63, 234, 297, -85, -180, 265, 102, -1322, -409, -34, -497, -600, 
-58, 219, 278, -80, -168, 248, 102, -1332, -409, -39, -502, -605, 
-58, 200, 258, -70, -158, 229, 107, -1337, -409, -39, -502, -610, 
-48, 214, 263, -82, -156, 239, 112, -1327, -405, -39, -492, -610, 
-43, 239, 283, -97, -163, 261, 112, -1317, -395, -34, -488, -600, 
-39, 253, 292, -107, -165, 273, 112, -1317, -385, -19, -483, -595, 
-43, 278, 322, -117, -183, 300, 102, -1332, -370, 0, -468, -590, 
-73, 287, 361, -107, -217, 324, 102, -1346, -351, 24, -439, -570, 
-107, 322, 429, -107, -268, 375, 102, -1361, -302, 78, -380, -541, 
-117, 405, 522, -143, -319, 463, 117, -1381, -200, 214, -244, -439, 
-87, 507, 595, -209, -341, 551, 97, -1410, -29, 405, -63, -278, 
0, 649, 649, -324, -324, 649, 24, -1434, 170, 639, 156, -131, 
82, 732, 649, -407, -283, 690, -34, -1434, 297, 795, 287, -39, 
161, 780, 619, -470, -229, 700, -68, -1424, 380, 902, 400, 58, 
258, 629, 370, -444, -56, 500, -48, -1327, 165, 639, 180, -82, 
326, 63, -263, -195, 295, -100, 24, -1176, -580, -229, -570, -575, 
380, -395, -775, 7, 578, -585, 78, -1073, -1122, -834, -1112, -1015, 
400, -629, -1029, 114, 714, -829, 131, -1005, -1342, -1088, -1361, -1220, 
419, -863, -1283, 222, 851, -1073, 209, -863, -1517, -1302, -1586, -1395, 
405, -1112, -1517, 353, 961, -1315, 239, -732, -1722, -1556, -1815, -1615, 
395, -1283, -1678, 444, 1037, -1481, 263, -717, -1903, -1727, -1986, -1776, 
326, -1356, -1683, 514, 1005, -1520, 297, -692, -1956, -1771, -2069, -1878, 
278, -1346, -1625, 534, 951, -1485, 297, -644, -1922, -1766, -2059, -1878, 
224, -1307, -1532, 541, 878, -1420, 326, -653, -1869, -1683, -2005, -1859, 
165, -1254, -1420, 544, 793, -1337, 375, -688, -1820, -1610, -1956, -1839, 
97, -1049, -1146, 475, 622, -1098, 366, -751, -1625, -1420, -1805, -1727, 
14, -849, -863, 417, 439, -856, 380, -785, -1429, -1239, -1629, -1600, 
-107, -751, -644, 429, 268, -697, 444, -722, -1293, -1098, -1522, -1527, 
-204, -668, -463, 436, 129, -566, 527, -673, -1156, -961, -1415, -1464, 
-239, -458, -219, 348, -9, -339, 575, -561, -927, -766, -1234, -1327, 
-258, -297, -39, 278, -109, -168, 619, -483, -771, -610, -1083, -1200, 
-273, -234, 39, 253, -156, -97, 658, -395, -736, -536, -1024, -1141, 
-302, -200, 102, 251, -202, -48, 697, -341, -702, -478, -976, -1112, 
-331, -131, 200, 231, -265, 34, 741, -317, -639, -395, -897, -1044, 
-331, -48, 283, 190, -307, 117, 766, -322, -580, -317, -795, -966, 
-346, -34, 312, 190, -329, 139, 775, -439, -575, -297, -790, -936, 
-346, -14, 331, 180, -339, 158, 780, -566, -556, -263, -771, -922, 
-326, 39, 366, 143, -346, 202, 673, -683, -541, -204, -702, -878, 
-302, 87, 390, 107, -346, 239, 575, -751, -531, -165, -668, -834, 
-253, 122, 375, 65, -314, 248, 512, -824, -512, -161, -658, -819, 
-214, 141, 356, 36, -285, 248, 434, -932, -497, -136, -639, -795, 
-170, 170, 341, 0, -256, 256, 370, -1015, -483, -92, -590, -761, 
-122, 214, 336, -46, -229, 275, 317, -1073, -473, -53, -556, -722, 
-92, 224, 317, -65, -204, 270, 219, -1176, -458, -39, -536, -702, 
-73, 234, 307, -80, -190, 270, 131, -1278, -448, -24, -522, -692, 
-48, 278, 326, -114, -187, 302, 122, -1298, -434, 4, -488, -668, 
-39, 307, 346, -134, -192, 326, 87, -1302, -419, 34, -463, -644, 
-24, 317, 341, -146, -183, 329, 102, -1327, -419, 43, -453, -639, 
-24, 322, 346, -148, -185, 334, 107, -1351, -419, 48, -448, -634, 
-39, 307, 346, -134, -192, 326, 82, -1385, -424, 43, -453, -639, 
-48, 287, 336, -119, -192, 312, 68, -1410, -429, 43, -453, -644, 
-4, 326, 331, -161, -168, 329, 39, -1410, -424, 53, -448, -624, 
34, 356, 322, -195, -143, 339, 0, -1410, -424, 53, -444, -614, 
24, 380, 356, -202, -165, 368, 9, -1420, -419, 63, -439, -614, 
14, 395, 380, -204, -183, 387, 24, -1429, -409, 73, -434, -605, 
14, 385, 370, -200, -178, 378, 0, -1434, -405, 78, -429, -610, 
19, 375, 356, -197, -168, 366, 0, -1434, -400, 82, -424, -610, 
24, 385, 361, -204, -168, 373, 14, -1449, -405, 78, -424, -610, 
24, 370, 346, -197, -161, 358, 29, -1459, -409, 73, -429, -605, 
29, 390, 361, -209, -165, 375, 19, -1454, -409, 73, -424, -605, 
24, 395, 370, -209, -173, 383, 19, -1459, -409, 78, -424, -600, 
24, 405, 380, -214, -178, 392, -34, -1459, -400, 92, -419, -600, 
29, 414, 385, -222, -178, 400, -82, -1473, -385, 107, -405, -595, 
63, 444, 380, -253, -158, 412, -58, -1478, -385, 112, -385, -590, 
78, 458, 380, -268, -151, 419, -43, -1478, -385, 117, -375, -585, 
63, 444, 380, -253, -158, 412, -34, -1493, -380, 126, -375, -580, 
58, 444, 385, -251, -163, 414, -29, -1503, -375, 141, -370, -566, 
63, 448, 385, -256, -161, 417, -48, -1517, -375, 146, -361, -570, 
73, 463, 390, -268, -158, 427, -58, -1527, -375, 151, -351, -561, 
78, 483, 405, -280, -163, 444, -73, -1527, -366, 175, -331, -541, 
82, 488, 405, -285, -161, 446, -78, -1537, -361, 175, -322, -531, 
82, 492, 409, -287, -163, 451, -92, -1556, -351, 185, -302, -512, 
92, 512, 419, -302, -163, 466, -102, -1566, -346, 200, -292, -497, 
117, 522, 405, -319, -143, 463, -126, -1571, -346, 204, -283, -492, 
126, 541, 414, -334, -143, 478, -136, -1581, -346, 214, -268, -478, 
131, 541, 409, -336, -139, 475, -102, -1600, -351, 224, -258, -463, 
136, 541, 405, -339, -134, 473, -68, -1620, -356, 234, -248, -458, 
151, 556, 405, -353, -126, 480, -92, -1634, -351, 244, -239, -439, 
156, 570, 414, -363, -129, 492, -122, -1639, -351, 253, -229, -434, 
170, 570, 400, -370, -114, 485, -156, -1649, -346, 263, -209, -414, 
185, 590, 405, -387, -109, 497, -204, -1649, -336, 283, -195, -395, 
200, 600, 400, -400, -100, 500, -224, -1668, -336, 283, -195, -395, 
200, 590, 390, -395, -95, 490, -214, -1678, -336, 287, -190, -390, 
204, 590, 385, -397, -90, 488, -214, -1678, -336, 287, -190, -385, 
209, 585, 375, -397, -82, 480, -204, -1683, -341, 283, -190, -385, 
214, 580, 366, -397, -75, 473, -204, -1683, -346, 278, -200, -390, 
234, 570, 336, -402, -51, 453, -204, -1683, -351, 268, -209, -395, 
229, 570, 341, -400, -56, 456, -190, -1668, -351, 263, -219, -395, 
234, 566, 331, -400, -48, 448, -170, -1629, -356, 248, -229, -414, 
239, 575, 336, -407, -48, 456, -180, -1629, -356, 234, -248, -429, 
244, 551, 307, -397, -31, 429, -175, -1615, -361, 219, -263, -448, 
195, 517, 322, -356, -63, 419, -165, -1615, -375, 190, -297, -483, 
165, 473, 307, -319, -70, 390, -156, -1600, -380, 165, -331, -517, 
161, 492, 331, -326, -85, 412, -136, -1581, -380, 151, -341, -531, 
165, 502, 336, -334, -85, 419, -97, -1561, -390, 131, -361, -546, 
156, 473, 317, -314, -80, 395, -102, -1532, -390, 112, -385, -580, 
151, 468, 317, -309, -82, 392, -102, -1512, -390, 92, -400, -600, 
117, 458, 341, -287, -112, 400, -68, -1488, -395, 78, -419, -619, 
82, 439, 356, -261, -136, 397, -43, -1468, -400, 58, -439, -629, 
63, 424, 361, -244, -148, 392, -14, -1434, -414, 34, -458, -658, 
58, 409, 351, -234, -146, 380, 4, -1410, -414, 24, -478, -673, 
34, 395, 361, -214, -163, 378, 4, -1395, -414, 9, -488, -697, 
24, 380, 356, -202, -165, 368, 9, -1366, -414, 0, -502, -707, 
19, 385, 366, -202, -173, 375, 39, -1356, -409, -4, -507, -707, 
4, 380, 375, -192, -185, 378, 63, -1351, -409, -14, -522, -717, 
-9, 366, 375, -178, -192, 370, 97, -1332, -419, -34, -536, -732, 
-19, 361, 380, -170, -200, 370, 112, -1337, -434, -39, -546, -732, 
-19, 351, 370, -165, -195, 361, 102, -1327, -439, -43, -546, -751, 
-24, 322, 346, -148, -185, 334, 97, -1322, -444, -48, -546, -756, 
-24, 336, 361, -156, -192, 348, 97, -1327, -444, -53, -546, -761, 
-34, 322, 356, -143, -195, 339, 97, -1327, -444, -58, -556, -771, 
-34, 331, 366, -148, -200, 348, 117, -1322, -448, -58, -561, -771, 
-43, 326, 370, -141, -207, 348, 126, -1327, -453, -58, -561, -766, 
-39, 326, 366, -143, -202, 346, 117, -1322, -453, -58, -561, -766, 
-43, 336, 380, -146, -212, 358, 102, -1322, -453, -58, -561, -766, 
-43, 322, 366, -139, -204, 344, 73, -1327, -453, -58, -561, -766, 
-43, 307, 351, -131, -197, 329, 43, -1327, -453, -53, -556, -766, 
-43, 322, 366, -139, -204, 344, 73, -1327, -448, -58, -556, -766, 
-39, 336, 375, -148, -207, 356, 107, -1317, -448, -58, -556, -766, 
-34, 341, 375, -153, -204, 358, 117, -1317, -448, -58, -551, -766, 
-29, 356, 385, -163, -207, 370, 122, -1317, -453, -53, -551, -766, 
-29, 346, 375, -158, -202, 361, 92, -1317, -444, -48, -556, -761, 
-29, 346, 375, -158, -202, 361, 53, -1317, -444, -43, -551, -761, 
-29, 346, 375, -158, -202, 361, 43, -1327, -439, -43, -546, -761, 
-29, 346, 375, -158, -202, 361, 34, -1337, -439, -43, -546, -761, 
-29, 356, 385, -163, -207, 370, 43, -1337, -444, -39, -536, -756, 
-29, 356, 385, -163, -207, 370, 43, -1337, -444, -39, -536, -756, 
-29, 356, 385, -163, -207, 370, 58, -1327, -439, -34, -536, -756, 
-24, 356, 380, -165, -202, 368, 68, -1317, -444, -34, -536, -746, 
-34, 370, 405, -168, -219, 387, 97, -1327, -439, -24, -527, -746, 
-39, 370, 409, -165, -224, 390, 141, -1332, -439, -19, -527, -741, 
-29, 395, 424, -183, -226, 409, 131, -1332, -419, -14, -522, -741, 
-29, 400, 429, -185, -229, 414, 122, -1317, -405, -4, -512, -741, 
-14, 414, 429, -200, -222, 422, 117, -1307, -400, 0, -502, -727, 
0, 429, 429, -214, -214, 429, 112, -1298, -395, 9, -497, -712, 
-9, 419, 429, -204, -219, 424, 102, -1293, -385, 14, -492, -707, 
-19, 409, 429, -195, -224, 419, 97, -1288, -380, 19, -488, -702, 
0, 424, 424, -212, -212, 424, 68, -1288, -375, 19, -483, -702, 
19, 439, 419, -229, -200, 429, 39, -1288, -370, 19, -478, -702, 
19, 439, 419, -229, -200, 429, 34, -1302, -366, 19, -478, -697, 
24, 439, 414, -231, -195, 427, 19, -1322, -366, 19, -473, -692, 
29, 439, 409, -234, -190, 424, 9, -1346, -370, 19, -473, -688, 
39, 444, 405, -241, -183, 424, 9, -1351, -370, 19, -468, -688, 
34, 439, 405, -236, -185, 422, 19, -1356, -375, 9, -473, -688, 
34, 424, 390, -229, -178, 407, 19, -1356, -380, 4, -478, -697, 
19, 405, 385, -212, -183, 395, -4, -1351, -390, 0, -483, -702, 
4, 375, 370, -190, -183, 373, -14, -1346, -409, -9, -488, -702, 
14, 366, 351, -190, -168, 358, 0, -1342, -414, -19, -502, -707, 
24, 361, 336, -192, -156, 348, 4, -1337, -419, -29, -507, -707, 
19, 346, 326, -183, -153, 336, 14, -1337, -429, -43, -517, -717, 
19, 341, 322, -180, -151, 331, 14, -1337, -434, -43, -522, -722, 
9, 326, 317, -168, -153, 322, 14, -1332, -434, -48, -522, -717, 
0, 317, 317, -158, -158, 317, 29, -1327, -429, -53, -522, -717, 
-14, 317, 331, -151, -173, 324, 63, -1312, -434, -53, -522, -727, 
-29, 312, 341, -141, -185, 326, 78, -1307, -429, -53, -522, -732, 
-43, 297, 341, -126, -192, 319, 78, -1302, -429, -48, -527, -741, 
-48, 297, 346, -124, -197, 322, 73, -1298, -429, -43, -527, -741, 
-39, 297, 336, -129, -187, 317, 68, -1293, -434, -58, -536, -741, 
-24, 317, 341, -146, -183, 329, 63, -1293, -434, -63, -536, -741, 
-34, 297, 331, -131, -183, 314, 68, -1293, -434, -63, -541, -751, 
-43, 278, 322, -117, -183, 300, 68, -1288, -434, -63, -541, -761, 
-48, 287, 336, -119, -192, 312, 87, -1283, -434, -63, -541, -761, 
-48, 287, 336, -119, -192, 312, 92, -1283, -429, -63, -541, -761, 
-48, 283, 331, -117, -190, 307, 92, -1283, -429, -63, -541, -766, 
-48, 283, 331, -117, -190, 307, 97, -1283, -429, -63, -536, -766, 
-34, 283, 317, -124, -175, 300, 97, -1278, -429, -68, -536, -766, 
-19, 287, 307, -134, -163, 297, 82, -1278, -434, -73, -536, -766, 
-24, 287, 312, -131, -168, 300, 87, -1268, -429, -68, -531, -756, 
-63, 283, 346, -109, -204, 314, 92, -1263, -429, -68, -531, -766, 
-63, 283, 346, -109, -204, 314, 92, -1263, -429, -73, -536, -766, 
-58, 283, 341, -112, -200, 312, 87, -1263, -429, -73, -536, -766, 
-58, 278, 336, -109, -197, 307, 63, -1259, -434, -68, -536, -771, 
-53, 278, 331, -112, -192, 305, 43, -1259, -434, -68, -531, -775, 
-48, 287, 336, -119, -192, 312, 43, -1259, -424, -63, -527, -766, 
-48, 302, 351, -126, -200, 326, 43, -1259, -414, -48, -522, -761, 
-63, 326, 390, -131, -226, 358, 68, -1273, -400, -29, -507, -756, 
-73, 361, 434, -143, -253, 397, 97, -1288, -361, 24, -458, -712, 
-92, 400, 492, -153, -292, 446, 68, -1302, -292, 97, -380, -658, 
-97, 483, 580, -192, -339, 531, 34, -1317, -165, 253, -224, -546, 
-58, 614, 673, -278, -366, 644, -39, -1342, 34, 488, -14, -366, 
29, 741, 712, -385, -341, 727, -107, -1351, 219, 712, 195, -209, 
87, 800, 712, -444, -312, 756, -87, -1342, 326, 854, 317, -117, 
141, 751, 610, -446, -234, 680, -58, -1312, 297, 824, 317, -102, 
239, 507, 268, -373, -14, 387, 4, -1190, -34, 400, -39, -326, 
312, -14, -326, -148, 319, -170, 92, -1019, -712, -405, -732, -761, 
370, -434, -805, 31, 588, -619, 107, -902, -1185, -951, -1215, -1146, 
390, -668, -1058, 139, 724, -863, 122, -839, -1410, -1224, -1478, -1371, 
424, -917, -1342, 246, 883, -1129, 204, -697, -1586, -1439, -1708, -1561, 
405, -1151, -1556, 373, 980, -1354, 263, -566, -1771, -1659, -1922, -1751, 
375, -1298, -1673, 461, 1024, -1485, 302, -551, -1932, -1805, -2074, -1873, 
307, -1356, -1664, 524, 985, -1510, 346, -541, -1981, -1849, -2142, -1966, 
258, -1327, -1586, 534, 922, -1456, 356, -507, -1942, -1834, -2127, -1966, 
219, -1254, -1473, 517, 846, -1363, 356, -527, -1869, -1737, -2059, -1927, 
165, -1180, -1346, 507, 756, -1263, 356, -570, -1800, -1649, -1986, -1898, 
63, -1015, -1078, 475, 570, -1046, 346, -619, -1605, -1459, -1834, -1795, 
-19, -819, -800, 419, 390, -810, 336, -653, -1410, -1268, -1654, -1659, 
-87, -673, -585, 380, 248, -629, 361, -605, -1263, -1117, -1542, -1576, 
-170, -556, -385, 363, 107, -470, 497, -546, -1117, -980, -1434, -1507, 
-244, -380, -136, 312, -53, -258, 600, -429, -917, -800, -1268, -1376, 
-268, -239, 29, 253, -148, -104, 634, -356, -780, -649, -1122, -1249, 
-263, -156, 107, 209, -185, -24, 658, -287, -736, -570, -1054, -1180, 
-292, -141, 151, 217, -222, 4, 697, -219, -702, -517, -1005, -1151, 
-322, -92, 229, 207, -275, 68, 717, -209, -639, -434, -936, -1088, 
-331, 0, 331, 165, -331, 165, 727, -248, -580, -356, -849, -1015, 
-341, 29, 370, 156, -356, 200, 707, -351, -575, -336, -839, -985, 
-326, 53, 380, 136, -353, 217, 673, -478, -556, -302, -810, -966, 
-302, 107, 409, 97, -356, 258, 580, -590, -536, -244, -741, -912, 
-278, 156, 434, 61, -356, 295, 512, -644, -531, -204, -707, -863, 
-234, 185, 419, 24, -326, 302, 463, -702, -522, -190, -692, -849, 
-204, 200, 405, 2, -305, 302, 409, -785, -507, -156, -668, -819, 
-170, 229, 400, -29, -285, 314, 356, -844, -483, -112, -619, -775, 
-112, 292, 405, -90, -258, 348, 268, -897, -463, -73, -585, -727, 
-82, 331, 414, -124, -248, 373, 190, -990, -448, -58, -566, -702, 
-73, 336, 409, -131, -241, 373, 136, -1102, -439, -43, -551, -692, 
-48, 346, 395, -148, -222, 370, 122, -1141, -429, -29, -536, -678, 
-39, 370, 409, -165, -224, 390, 58, -1137, -409, -14, -531, -658, 
-24, 395, 419, -185, -222, 407, 29, -1151, -400, -4, -522, -649, 
-24, 405, 429, -190, -226, 417, 19, -1171, -400, 9, -512, -634, 
-24, 414, 439, -195, -231, 427, -4, -1180, -400, 19, -507, -619, 
-19, 424, 444, -202, -231, 434, 0, -1176, -400, 24, -502, -610, 
-14, 444, 458, -214, -236, 451, 19, -1176, -395, 34, -497, -595, 
-9, 429, 439, -209, -224, 434, -19, -1185, -395, 24, -497, -595, 
0, 429, 429, -214, -214, 429, -53, -1195, -395, 19, -497, -595, 
4, 448, 444, -226, -219, 446, -39, -1205, -385, 24, -492, -585, 
4, 468, 463, -236, -229, 466, -48, -1210, -375, 29, -488, -585, 
4, 473, 468, -239, -231, 470, -14, -1190, -370, 39, -483, -575, 
4, 483, 478, -244, -236, 480, 19, -1185, -370, 48, -478, -570, 
4, 468, 463, -236, -229, 466, 4, -1195, -375, 53, -478, -566, 
14, 488, 473, -251, -229, 480, 0, -1195, -380, 53, -468, -566, 
19, 492, 473, -256, -226, 483, 4, -1205, -380, 58, -463, -561, 
24, 497, 473, -261, -224, 485, -43, -1210, -375, 68, -458, -561, 
34, 502, 468, -268, -217, 485, -73, -1224, -366, 78, -444, -551, 
58, 517, 458, -287, -200, 488, -63, -1224, -366, 82, -434, -541, 
58, 512, 453, -285, -197, 483, -48, -1210, -366, 92, -434, -531, 
58, 512, 453, -285, -197, 483, -34, -1210, -361, 107, -424, -522, 
53, 531, 478, -292, -212, 505, -58, -1210, -356, 126, -405, -502, 
43, 536, 492, -290, -224, 514, -97, -1215, -351, 141, -390, -497, 
68, 551, 483, -309, -207, 517, -97, -1224, -341, 151, -380, -478, 
87, 566, 478, -326, -195, 522, -97, -1229, -326, 175, -361, -453, 
82, 561, 478, -322, -197, 519, -97, -1239, -322, 175, -356, -439, 
73, 561, 488, -317, -207, 524, -112, -1259, -312, 185, -341, -414, 
82, 570, 488, -326, -202, 529, -117, -1273, -307, 200, -331, -395, 
107, 575, 468, -341, -180, 522, -136, -1278, -302, 209, -317, -375, 
112, 595, 483, -353, -185, 539, -122, -1273, -297, 224, -292, -351, 
117, 590, 473, -353, -178, 531, -112, -1278, -297, 234, -278, -336, 
126, 590, 463, -358, -168, 527, -170, -1293, -302, 244, -268, -326, 
141, 605, 463, -373, -161, 534, -200, -1298, -302, 248, -258, -302, 
165, 644, 478, -405, -156, 561, -175, -1298, -302, 263, -239, -287, 
195, 668, 473, -431, -139, 570, -170, -1307, -297, 278, -219, -263, 
195, 668, 473, -431, -139, 570, -185, -1298, -287, 292, -214, -248, 
200, 658, 458, -429, -129, 558, -209, -1307, -287, 292, -214, -248, 
200, 649, 448, -424, -124, 549, -204, -1317, -287, 297, -209, -244, 
204, 649, 444, -427, -119, 546, -195, -1317, -287, 297, -209, -239, 
200, 639, 439, -419, -119, 539, -175, -1312, -292, 287, -209, -239, 
195, 629, 434, -412, -119, 531, -165, -1302, -297, 278, -219, -244, 
214, 605, 390, -409, -87, 497, -195, -1293, -302, 268, -234, -248, 
204, 585, 380, -395, -87, 483, -219, -1283, -307, 258, -253, -253, 
204, 575, 370, -390, -82, 473, -200, -1254, -317, 239, -268, -268, 
200, 575, 375, -387, -87, 475, -185, -1249, -317, 224, -287, -278, 
204, 561, 356, -383, -75, 458, -161, -1220, -322, 209, -302, -287, 
185, 566, 380, -375, -97, 473, -146, -1195, -336, 185, -322, -307, 
175, 531, 356, -353, -90, 444, -136, -1166, -341, 165, -341, -341, 
161, 522, 361, -341, -100, 441, -126, -1141, -341, 151, -361, -356, 
151, 512, 361, -331, -104, 436, -112, -1122, -351, 131, -390, -366, 
122, 483, 361, -302, -119, 422, -122, -1093, -351, 112, -414, -395, 
102, 478, 375, -290, -136, 427, -97, -1073, -351, 87, -434, -414, 
82, 468, 385, -275, -151, 427, -48, -1049, -351, 73, -453, -434, 
53, 439, 385, -246, -165, 412, 9, -1024, -351, 58, -468, -439, 
24, 414, 390, -219, -183, 402, 73, -990, -366, 34, -488, -458, 
29, 400, 370, -214, -170, 385, 68, -956, -366, 19, -512, -468, 
14, 385, 370, -200, -178, 378, 53, -936, -375, -4, -527, -492, 
4, 370, 366, -187, -180, 368, 58, -917, -385, -19, -541, -497, 
0, 366, 366, -183, -183, 366, 58, -907, -385, -24, -546, -497, 
-14, 351, 366, -168, -190, 358, 53, -902, -390, -34, -561, -512, 
-24, 336, 361, -156, -192, 348, 78, -888, -400, -53, -575, -527, 
-29, 331, 361, -151, -195, 346, 107, -888, -414, -58, -585, -517, 
-29, 331, 361, -151, -195, 346, 112, -878, -419, -63, -585, -522, 
-39, 312, 351, -136, -195, 331, 107, -878, -424, -68, -585, -522, 
-43, 326, 370, -141, -207, 348, 107, -878, -424, -73, -585, -527, 
-53, 312, 366, -129, -209, 339, 107, -878, -424, -78, -595, -527, 
-53, 312, 366, -129, -209, 339, 117, -868, -429, -78, -600, -522, 
-63, 297, 361, -117, -212, 329, 92, -863, -434, -78, -595, -517, 
-53, 297, 351, -122, -202, 324, 68, -854, -434, -78, -590, -512, 
-53, 307, 361, -126, -207, 334, 78, -849, -434, -73, -590, -512, 
-53, 307, 361, -126, -207, 334, 92, -849, -434, -68, -590, -507, 
-53, 307, 361, -126, -207, 334, 117, -834, -434, -63, -585, -497, 
-58, 307, 366, -124, -212, 336, 141, -829, -429, -63, -585, -492, 
-58, 302, 361, -122, -209, 331, 97, -824, -429, -63, -585, -488, 
-53, 302, 356, -124, -204, 329, 48, -824, -424, -68, -580, -483, 
-48, 317, 366, -134, -207, 341, 78, -829, -424, -63, -585, -483, 
-48, 307, 356, -129, -202, 331, 112, -829, -414, -58, -590, -478, 
-48, 317, 366, -134, -207, 341, 112, -819, -414, -53, -580, -473, 
-48, 326, 375, -139, -212, 351, 122, -810, -405, -53, -575, -468, 
-58, 317, 375, -129, -217, 346, 112, -810, -400, -53, -575, -463, 
-68, 317, 385, -124, -226, 351, 112, -810, -400, -48, -566, -453, 
-68, 317, 385, -124, -226, 351, 102, -805, -395, -43, -561, -453, 
-68, 317, 385, -124, -226, 351, 97, -800, -385, -34, -556, -453, 
-34, 341, 375, -153, -204, 358, 107, -785, -380, -29, -546, -429, 
-4, 380, 385, -187, -195, 383, 97, -780, -361, -14, -527, -414, 
-19, 370, 390, -175, -204, 380, 92, -785, -351, -9, -536, -409, 
-29, 390, 419, -180, -224, 405, 92, -780, -341, 0, -531, -409, 
-24, 395, 419, -185, -222, 407, 87, -775, -331, 0, -517, -405, 
-19, 400, 419, -190, -219, 409, 87, -771, -322, 0, -507, -400, 
-4, 414, 419, -204, -212, 417, 63, -756, -312, 9, -502, -385, 
9, 429, 419, -219, -204, 424, 39, -741, -302, 19, -497, -370, 
9, 429, 419, -219, -204, 424, 58, -741, -302, 19, -497, -361, 
4, 419, 414, -212, -204, 417, 58, -761, -302, 19, -497, -351, 
4, 409, 405, -207, -200, 407, 63, -785, -302, 19, -497, -346, 
0, 390, 390, -195, -195, 390, 48, -814, -317, 14, -497, -346, 
0, 395, 395, -197, -197, 395, 29, -800, -322, 14, -497, -341, 
-4, 400, 405, -197, -204, 402, 9, -790, -326, 9, -502, -336, 
4, 395, 390, -200, -192, 392, -4, -780, -331, 4, -507, -341, 
14, 400, 385, -207, -185, 392, -9, -771, -341, 0, -512, -341, 
4, 366, 361, -185, -178, 363, 4, -771, -366, -9, -517, -341, 
-4, 326, 331, -161, -168, 329, 4, -775, -385, -19, -531, -346, 
-4, 312, 317, -153, -161, 314, 14, -775, -400, -29, -536, -346, 
-9, 297, 307, -143, -158, 302, 43, -771, -409, -43, -541, -351, 
-9, 297, 307, -143, -158, 302, 68, -756, -414, -43, -541, -351, 
-19, 297, 317, -139, -168, 307, 92, -736, -414, -43, -541, -346, 
-29, 297, 326, -134, -178, 312, 78, -727, -405, -43, -541, -331, 
-39, 297, 336, -129, -187, 317, 78, -712, -400, -43, -541, -331, 
-39, 292, 331, -126, -185, 312, 78, -707, -390, -48, -541, -341, 
-43, 278, 322, -117, -183, 300, 68, -702, -390, -53, -546, -351, 
-63, 278, 341, -107, -202, 309, 63, -702, -395, -53, -546, -351, 
-82, 258, 341, -87, -212, 300, 63, -697, -405, -68, -556, -351, 
-73, 258, 331, -92, -202, 295, 63, -688, -405, -73, -556, -341, 
-63, 258, 322, -97, -192, 290, 68, -678, -405, -73, -561, -331, 
-53, 258, 312, -102, -183, 285, 78, -668, -405, -73, -561, -331, 
-48, 258, 307, -104, -178, 283, 102, -658, -405, -73, -561, -331, 
-63, 244, 307, -90, -185, 275, 102, -653, -400, -73, -561, -331, 
-78, 234, 312, -78, -195, 273, 97, -649, -400, -73, -561, -336, 
-78, 234, 312, -78, -195, 273, 97, -649, -395, -73, -556, -326, 
-78, 234, 312, -78, -195, 273, 97, -644, -385, -73, -556, -317, 
-73, 248, 322, -87, -197, 285, 87, -634, -385, -68, -551, -312, 
-58, 258, 317, -100, -187, 287, 102, -619, -380, -58, -541, -297, 
-78, 244, 322, -82, -200, 283, 117, -614, -380, -58, -541, -302, 
-73, 234, 307, -80, -190, 270, 122, -610, -380, -63, -546, -297, 
-68, 234, 302, -82, -185, 268, 117, -610, -380, -63, -546, -292, 
-68, 229, 297, -80, -183, 263, 117, -605, -380, -58, -541, -287, 
-78, 219, 297, -70, -187, 258, 107, -600, -375, -58, -531, -283, 
-92, 219, 312, -63, -202, 265, 92, -595, -366, -53, -527, -268, 
-82, 244, 326, -80, -204, 285, 78, -590, -351, -29, -512, -253, 
-82, 278, 361, -97, -222, 319, 53, -600, -331, 0, -488, -239, 
-92, 322, 414, -114, -253, 368, 48, -614, -273, 68, -424, -180, 
-107, 390, 497, -141, -302, 444, 43, -629, -185, 165, -331, -112, 
-117, 483, 600, -183, -358, 541, 68, -639, -58, 346, -175, 0, 
-87, 595, 683, -253, -385, 639, 58, -658, 136, 580, 24, 170, 
14, 707, 692, -361, -339, 700, 0, -663, 317, 771, 219, 307, 
112, 761, 649, -436, -268, 705, -43, -644, 424, 883, 326, 390, 
175, 668, 492, -422, -158, 580, -39, -585, 326, 780, 258, 361, 
258, 375, 117, -317, 70, 246, 19, -439, -68, 307, -141, 92, 
331, -151, -483, -90, 407, -317, 82, -258, -727, -483, -805, -322, 
390, -570, -961, 90, 675, -766, 126, -126, -1180, -1010, -1259, -683, 
409, -829, -1239, 209, 824, -1034, 180, -58, -1400, -1263, -1522, -927, 
429, -1088, -1517, 329, 973, -1302, 258, 82, -1576, -1478, -1761, -1141, 
400, -1263, -1664, 431, 1032, -1464, 287, 200, -1742, -1678, -1942, -1307, 
375, -1361, -1737, 492, 1056, -1549, 312, 200, -1883, -1795, -2064, -1415, 
307, -1415, -1722, 553, 1015, -1568, 366, 190, -1932, -1825, -2132, -1517, 
258, -1385, -1644, 563, 951, -1515, 385, 204, -1893, -1805, -2108, -1517, 
190, -1307, -1498, 558, 844, -1403, 385, 175, -1810, -1698, -2025, -1478, 
117, -1215, -1332, 549, 724, -1273, 405, 122, -1732, -1600, -1947, -1439, 
58, -1019, -1078, 480, 568, -1049, 409, 73, -1537, -1400, -1795, -1327, 
-14, -829, -814, 422, 400, -822, 439, 53, -1342, -1210, -1620, -1200, 
-126, -702, -575, 414, 224, -639, 497, 102, -1185, -1068, -1503, -1127, 
-214, -590, -375, 402, 80, -483, 575, 136, -1029, -932, -1385, -1063, 
-263, -429, -165, 346, -48, -297, 624, 244, -844, -751, -1234, -941, 
-297, -317, -19, 307, -139, -168, 668, 317, -732, -610, -1112, -829, 
-312, -253, 58, 283, -185, -97, 673, 375, -683, -541, -1044, -771, 
-341, -219, 122, 280, -231, -48, 678, 400, -634, -488, -985, -741, 
-346, -141, 204, 244, -275, 31, 712, 375, -570, -405, -917, -683, 
-322, -48, 273, 185, -297, 112, 727, 322, -512, -326, -824, -614, 
-331, -29, 302, 180, -317, 136, 727, 204, -507, -302, -810, -585, 
-326, -4, 322, 165, -324, 158, 722, 78, -488, -263, -780, -570, 
-312, 39, 351, 136, -331, 195, 614, -29, -478, -204, -712, -522, 
-292, 78, 370, 107, -331, 224, 517, -87, -473, -165, -678, -473, 
-244, 107, 351, 68, -297, 229, 434, -156, -453, -156, -663, -468, 
-204, 122, 326, 41, -265, 224, 336, -258, -439, -126, -639, -453, 
-170, 151, 322, 9, -246, 236, 287, -331, -414, -82, -590, -414, 
-131, 195, 326, -31, -229, 261, 248, -380, -395, -43, -556, -370, 
-92, 214, 307, -61, -200, 261, 209, -473, -370, -24, -531, -351, 
-63, 234, 297, -85, -180, 265, 180, -566, -351, -4, -512, -341, 
-48, 258, 307, -104, -178, 283, 141, -585, -341, 9, -497, -326, 
-48, 268, 317, -109, -183, 292, 78, -590, -331, 24, -492, -312, 
-39, 278, 317, -119, -178, 297, 78, -614, -331, 34, -483, -307, 
-43, 283, 326, -119, -185, 305, 68, -639, -331, 39, -478, -302, 
-43, 292, 336, -124, -190, 314, 63, -653, -322, 39, -473, -297, 
-39, 297, 336, -129, -187, 317, 68, -658, -312, 43, -463, -292, 
-29, 307, 336, -139, -183, 322, 68, -668, -307, 53, -458, -283, 
-24, 307, 331, -141, -178, 319, 58, -678, -307, 53, -453, -283, 
-19, 317, 336, -148, -178, 326, 43, -692, -307, 58, -448, -287, 
-14, 317, 331, -151, -173, 324, 34, -707, -302, 63, -444, -283, 
-19, 322, 341, -151, -180, 331, 9, -712, -297, 73, -439, -283, 
-19, 326, 346, -153, -183, 336, 9, -712, -292, 82, -434, -278, 
-14, 336, 351, -161, -183, 344, -14, -732, -287, 87, -429, -278, 
-14, 322, 336, -153, -175, 329, -39, -746, -283, 92, -429, -273, 
0, 341, 341, -170, -170, 341, -14, -746, -283, 92, -419, -283, 
4, 346, 341, -175, -168, 344, 19, -756, -283, 97, -414, -287, 
14, 351, 336, -183, -161, 344, 4, -751, -283, 107, -409, -292, 
29, 356, 326, -192, -148, 341, -4, -761, -278, 117, -395, -292, 
34, 370, 336, -202, -151, 353, -14, -775, -278, 122, -385, -287, 
19, 370, 351, -195, -165, 361, -34, -785, -278, 126, -385, -283, 
19, 375, 356, -197, -168, 366, -19, -810, -273, 136, -375, -283, 
29, 395, 366, -212, -168, 380, -9, -829, -268, 151, -361, -273, 
34, 400, 366, -217, -165, 383, -29, -834, -268, 156, -351, -273, 
43, 414, 370, -229, -163, 392, -39, -834, -268, 161, -341, -258, 
48, 429, 380, -239, -165, 405, -58, -839, -258, 185, -322, -239, 
53, 429, 375, -241, -161, 402, -68, -854, -253, 185, -312, -229, 
58, 439, 380, -248, -161, 409, -82, -878, -239, 200, -292, -209, 
73, 463, 390, -268, -158, 427, -92, -893, -229, 219, -283, -195, 
97, 478, 380, -287, -141, 429, -102, -902, -224, 229, -268, -190, 
107, 502, 395, -305, -143, 448, -97, -917, -219, 244, -248, -175, 
117, 507, 390, -312, -136, 448, -122, -936, -214, 258, -239, -161, 
126, 512, 385, -319, -129, 448, -146, -956, -209, 273, -229, -156, 
141, 527, 385, -334, -122, 456, -131, -971, -204, 278, -219, -136, 
146, 541, 395, -344, -124, 468, -122, -976, -204, 283, -209, -131, 
151, 531, 380, -341, -114, 456, -131, -985, -209, 283, -200, -126, 
156, 541, 385, -348, -114, 463, -156, -985, -209, 292, -195, -122, 
161, 551, 390, -356, -114, 470, -200, -1005, -209, 292, -195, -122, 
151, 541, 390, -346, -119, 466, -214, -1015, -209, 297, -190, -117, 
175, 551, 375, -363, -100, 463, -214, -1015, -200, 302, -185, -112, 
200, 556, 356, -378, -78, 456, -204, -1019, -195, 302, -180, -112, 
195, 551, 356, -373, -80, 453, -195, -1019, -200, 297, -190, -117, 
204, 541, 336, -373, -65, 439, -185, -1019, -204, 287, -200, -122, 
190, 517, 326, -353, -68, 422, -170, -1019, -214, 273, -214, -126, 
185, 488, 302, -336, -58, 395, -151, -995, -229, 248, -229, -151, 
175, 488, 312, -331, -68, 400, -146, -995, -229, 229, -258, -170, 
165, 453, 287, -309, -61, 370, -126, -980, -234, 209, -283, -195, 
122, 414, 292, -268, -85, 353, -151, -980, -248, 185, -302, -229, 
97, 366, 268, -231, -85, 317, -175, -966, -253, 165, -322, -263, 
102, 400, 297, -251, -97, 348, -126, -932, -253, 151, -326, -273, 
117, 424, 307, -270, -95, 366, -58, -897, -263, 131, -341, -283, 
92, 385, 292, -239, -100, 339, -53, -878, -263, 112, -375, -317, 
73, 370, 297, -222, -112, 334, -43, -868, -263, 92, -400, -336, 
53, 361, 307, -207, -126, 334, -9, -844, -258, 82, -414, -356, 
34, 341, 307, -187, -136, 324, 14, -824, -253, 68, -429, -366, 
24, 326, 302, -175, -139, 314, 43, -800, -268, 43, -448, -390, 
29, 312, 283, -170, -126, 297, 63, -785, -268, 34, -468, -400, 
4, 292, 287, -148, -141, 290, 58, -780, -283, 14, -478, -429, 
-4, 273, 278, -134, -141, 275, 58, -761, -297, 0, -492, -444, 
-9, 268, 278, -129, -143, 273, 92, -751, -297, -4, -497, -448, 
-24, 253, 278, -114, -151, 265, 122, -746, -302, -14, -512, -463, 
-39, 224, 263, -92, -151, 244, 136, -736, -312, -34, -527, -483, 
-48, 204, 253, -78, -151, 229, 131, -751, -326, -39, -536, -488, 
-48, 214, 263, -82, -156, 239, 122, -751, -331, -43, -536, -502, 
-53, 204, 258, -75, -156, 231, 117, -756, -336, -48, -536, -502, 
-48, 219, 268, -85, -158, 244, 102, -761, -336, -53, -531, -507, 
-53, 204, 258, -75, -156, 231, 87, -761, -336, -58, -536, -517, 
-53, 209, 263, -78, -158, 236, 97, -756, -336, -58, -541, -522, 
-63, 200, 263, -68, -163, 231, 97, -761, -336, -58, -541, -522, 
-58, 200, 258, -70, -158, 229, 126, -756, -336, -53, -536, -522, 
-63, 209, 273, -73, -168, 241, 151, -756, -336, -48, -531, -522, 
-63, 204, 268, -70, -165, 236, 151, -761, -336, -48, -531, -517, 
-63, 200, 263, -68, -163, 231, 151, -761, -336, -43, -527, -512, 
-68, 195, 263, -63, -165, 229, 92, -771, -331, -48, -527, -512, 
-68, 190, 258, -61, -163, 224, 39, -771, -331, -48, -527, -512, 
-48, 195, 244, -73, -146, 219, 73, -775, -326, -48, -522, -512, 
-29, 209, 239, -90, -134, 224, 102, -780, -326, -43, -522, -512, 
-43, 200, 244, -78, -143, 222, 102, -780, -317, -39, -522, -507, 
-58, 200, 258, -70, -158, 229, 92, -780, -317, -34, -512, -507, 
-58, 200, 258, -70, -158, 229, 107, -780, -307, -29, -507, -512, 
-58, 200, 258, -70, -158, 229, 122, -780, -302, -24, -507, -517, 
-48, 209, 258, -80, -153, 234, 151, -780, -302, -19, -497, -512, 
-39, 209, 248, -85, -143, 229, 170, -780, -297, -19, -497, -512, 
-39, 209, 248, -85, -143, 229, 156, -780, -287, -14, -497, -517, 
-34, 209, 244, -87, -139, 226, 136, -780, -287, -14, -497, -512, 
-39, 224, 263, -92, -151, 244, 117, -790, -273, -4, -483, -512, 
-39, 224, 263, -92, -151, 244, 112, -795, -263, 0, -478, -507, 
-29, 258, 287, -114, -158, 273, 92, -795, -239, 9, -468, -497, 
-29, 273, 302, -122, -165, 287, 73, -780, -219, 24, -453, -488, 
-14, 283, 297, -134, -156, 290, 92, -771, -214, 39, -439, -478, 
0, 292, 292, -146, -146, 292, 117, -761, -214, 58, -429, -468, 
0, 292, 292, -146, -146, 292, 117, -761, -204, 58, -424, -468, 
0, 292, 292, -146, -146, 292, 117, -761, -195, 58, -419, -468, 
0, 287, 287, -143, -143, 287, 82, -785, -195, 53, -419, -468, 
0, 283, 283, -141, -141, 283, 63, -814, -195, 48, -419, -463, 
4, 278, 273, -141, -134, 275, 48, -844, -195, 48, -419, -463, 
9, 273, 263, -141, -126, 268, 48, -863, -209, 43, -419, -463, 
9, 268, 258, -139, -124, 263, 34, -858, -214, 39, -419, -463, 
4, 263, 258, -134, -126, 261, 19, -858, -219, 29, -424, -463, 
4, 244, 239, -124, -117, 241, 19, -858, -229, 24, -429, -478, 
4, 234, 229, -119, -112, 231, 29, -858, -244, 19, -434, -488, 
4, 219, 214, -112, -104, 217, 63, -858, -263, 9, -439, -492, 
4, 200, 195, -102, -95, 197, 82, -863, -278, 0, -453, -502, 
4, 195, 190, -100, -92, 192, 48, -873, -283, -4, -453, -502, 
0, 190, 190, -95, -95, 190, 34, -878, -283, -14, -453, -507, 
9, 195, 185, -102, -87, 190, 82, -878, -287, -14, -453, -512, 
9, 200, 190, -104, -90, 195, 131, -873, -287, -14, -453, -512, 
-34, 161, 195, -63, -114, 178, 126, -868, -292, -19, -463, -512, 
-78, 122, 200, -21, -139, 161, 136, -858, -302, -24, -473, -527, 
-58, 136, 195, -39, -126, 165, 122, -858, -292, -24, -473, -536, 
-43, 141, 185, -48, -114, 163, 97, -858, -292, -24, -478, -546, 
-48, 146, 195, -48, -122, 170, 82, -858, -287, -19, -468, -546, 
-53, 131, 185, -39, -119, 158, 73, -854, -287, -29, -468, -546, 
-58, 131, 190, -36, -124, 161, 87, -854, -287, -34, -468, -546, 
-63, 131, 195, -34, -129, 163, 107, -854, -287, -34, -473, -546, 
-73, 126, 200, -26, -136, 163, 117, -849, -287, -34, -473, -546, 
-87, 122, 209, -17, -148, 165, 141, -844, -287, -34, -473, -546, 
-78, 112, 190, -17, -134, 151, 117, -844, -278, -34, -468, -541, 
-68, 107, 175, -19, -122, 141, 87, -844, -273, -34, -463, -541, 
-68, 107, 175, -19, -122, 141, 97, -849, -273, -34, -458, -541, 
-68, 107, 175, -19, -122, 141, 107, -849, -268, -34, -458, -541, 
-68, 107, 175, -19, -122, 141, 117, -849, -268, -34, -463, -546, 
-58, 102, 161, -21, -109, 131, 151, -844, -263, -29, -463, -541, 
-82, 78, 161, 2, -122, 119, 131, -849, -263, -29, -463, -556, 
-82, 58, 141, 12, -112, 100, 102, -854, -263, -34, -468, -561, 
-63, 87, 151, -12, -107, 119, 107, -854, -263, -34, -468, -561, 
-48, 112, 161, -31, -104, 136, 117, -849, -263, -29, -463, -561, 
-63, 102, 165, -19, -114, 134, 122, -854, -253, -24, -448, -561, 
-82, 102, 185, -9, -134, 143, 122, -858, -239, -14, -439, -551, 
-87, 117, 204, -14, -146, 161, 122, -863, -224, 4, -424, -546, 
-102, 141, 244, -19, -173, 192, 112, -883, -204, 29, -400, -541, 
-107, 185, 292, -39, -200, 239, 112, -907, -136, 112, -331, -483, 
-117, 253, 370, -68, -244, 312, 112, -932, -39, 224, -234, -414, 
-112, 356, 468, -122, -290, 412, 102, -936, 97, 390, -68, -302, 
-68, 478, 546, -204, -307, 512, 58, -951, 302, 610, 141, -131, 
53, 580, 527, -317, -236, 553, 9, -936, 453, 780, 297, -9, 
170, 624, 453, -397, -141, 539, -24, -897, 531, 873, 366, 58, 
224, 478, 253, -351, -14, 366, -29, -854, 380, 707, 253, -4, 
297, 131, -165, -214, 231, -17, 19, -722, -68, 170, -190, -307, 
385, -341, -727, -21, 556, -534, 117, -551, -668, -522, -780, -688, 
458, -707, -1166, 124, 812, -936, 195, -429, -1063, -951, -1161, -1015, 
434, -961, -1395, 263, 915, -1178, 214, -351, -1283, -1205, -1424, -1249, 
409, -1215, -1625, 402, 1017, -1420, 258, -200, -1459, -1420, -1664, -1454, 
385, -1385, -1771, 500, 1078, -1578, 302, -87, -1615, -1610, -1830, -1620, 
366, -1478, -1844, 556, 1105, -1661, 341, -92, -1747, -1717, -1937, -1727, 
297, -1517, -1815, 610, 1056, -1666, 400, -92, -1781, -1737, -2005, -1815, 
248, -1473, -1722, 612, 985, -1598, 424, -68, -1727, -1708, -1981, -1800, 
209, -1356, -1566, 573, 888, -1461, 414, -87, -1639, -1586, -1873, -1742, 
165, -1224, -1390, 529, 778, -1307, 424, -131, -1556, -1473, -1771, -1683, 
53, -1088, -1141, 517, 597, -1115, 424, -180, -1361, -1298, -1644, -1595, 
-73, -956, -883, 514, 405, -919, 448, -200, -1166, -1132, -1493, -1493, 
-156, -790, -634, 473, 239, -712, 517, -136, -1019, -971, -1366, -1400, 
-214, -639, -424, 427, 104, -531, 605, -87, -873, -814, -1239, -1317, 
-248, -497, -248, 373, 0, -373, 663, 14, -697, -663, -1093, -1210, 
-268, -405, -136, 336, -65, -270, 717, 82, -595, -551, -976, -1112, 
-312, -346, -34, 329, -139, -190, 795, 131, -561, -483, -917, -1054, 
-370, -317, 53, 344, -212, -131, 873, 146, -527, -429, -868, -1024, 
-390, -258, 131, 324, -261, -63, 854, 97, -473, -356, -814, -971, 
-380, -185, 195, 283, -287, 4, 814, 19, -424, -287, -736, -907, 
-361, -151, 209, 256, -285, 29, 727, -97, -409, -258, -707, -878, 
-326, -112, 214, 219, -270, 51, 634, -224, -380, -214, -663, -863, 
-302, -68, 234, 185, -268, 82, 600, -326, -361, -156, -605, -814, 
-273, -29, 244, 151, -258, 107, 575, -380, -346, -117, -580, -766, 
-229, 0, 229, 114, -229, 114, 512, -448, -326, -102, -566, -751, 
-195, 14, 209, 90, -202, 112, 434, -551, -312, -68, -541, -727, 
-151, 39, 190, 56, -170, 114, 331, -634, -287, -34, -492, -692, 
-102, 78, 180, 12, -141, 129, 239, -692, -268, -4, -458, -653, 
-97, 78, 175, 9, -136, 126, 195, -785, -258, 9, -439, -639, 
-102, 78, 180, 12, -141, 129, 161, -878, -253, 24, -424, -634, 
-63, 122, 185, -29, -124, 153, 151, -883, -244, 43, -405, -619, 
-39, 151, 190, -56, -114, 170, 117, -873, -234, 63, -395, -605, 
-24, 161, 185, -68, -104, 173, 112, -897, -234, 73, -385, -600, 
-24, 165, 190, -70, -107, 178, 97, -922, -234, 78, -380, -595, 
-24, 165, 190, -70, -107, 178, 73, -941, -234, 73, -385, -595, 
-19, 161, 180, -70, -100, 170, 58, -951, -234, 73, -385, -595, 
-29, 146, 175, -58, -102, 161, 73, -966, -239, 82, -380, -590, 
-43, 122, 165, -39, -104, 143, 78, -980, -248, 82, -375, -595, 
-29, 151, 180, -61, -104, 165, 73, -990, -248, 87, -370, -595, 
-14, 170, 185, -78, -100, 178, 73, -1000, -244, 92, -366, -585, 
-4, 185, 190, -90, -97, 187, 48, -1005, -234, 97, -361, -585, 
9, 200, 190, -104, -90, 195, 48, -1005, -224, 102, -356, -580, 
-9, 185, 195, -87, -102, 190, 43, -1024, -224, 107, -351, -585, 
-34, 146, 180, -56, -107, 163, 39, -1039, -224, 112, -351, -585, 
14, 204, 190, -109, -87, 197, 48, -1039, -214, 122, -336, -585, 
53, 248, 195, -151, -70, 222, 68, -1049, -204, 136, -326, -580, 
34, 234, 200, -134, -82, 217, 39, -1044, -200, 146, -322, -580, 
19, 219, 200, -119, -90, 209, 14, -1054, -190, 156, -307, -575, 
39, 234, 195, -136, -78, 214, 24, -1058, -190, 156, -297, -580, 
39, 234, 195, -136, -78, 214, 24, -1058, -190, 156, -297, -585, 
39, 239, 200, -139, -80, 219, 24, -1073, -185, 165, -287, -580, 
48, 258, 209, -153, -80, 234, 19, -1083, -180, 180, -273, -566, 
39, 244, 204, -141, -82, 224, -9, -1107, -180, 185, -268, -570, 
34, 239, 204, -136, -85, 222, -29, -1127, -180, 190, -263, -561, 
48, 268, 219, -158, -85, 244, -39, -1132, -170, 214, -244, -541, 
63, 283, 219, -173, -78, 251, -39, -1146, -165, 214, -234, -531, 
73, 297, 224, -185, -75, 261, -43, -1171, -156, 224, -214, -512, 
92, 326, 234, -209, -70, 280, -43, -1185, -151, 239, -204, -497, 
107, 341, 234, -224, -63, 287, -78, -1195, -141, 248, -195, -497, 
107, 366, 258, -236, -75, 312, -97, -1210, -131, 263, -180, -488, 
117, 366, 248, -241, -65, 307, -117, -1234, -131, 273, -170, -473, 
126, 366, 239, -246, -56, 302, -136, -1259, -131, 283, -161, -468, 
141, 380, 239, -261, -48, 309, -122, -1268, -126, 287, -151, -448, 
146, 395, 248, -270, -51, 322, -112, -1268, -126, 292, -141, -444, 
156, 395, 239, -275, -41, 317, -122, -1283, -122, 297, -131, -434, 
165, 414, 248, -290, -41, 331, -146, -1288, -112, 312, -126, -424, 
180, 424, 244, -302, -31, 334, -195, -1307, -112, 307, -126, -424, 
180, 414, 234, -297, -26, 324, -214, -1317, -112, 307, -122, -419, 
204, 419, 214, -312, -4, 317, -200, -1302, -112, 307, -117, -414, 
229, 419, 190, -324, 19, 305, -175, -1293, -117, 302, -112, -414, 
214, 414, 200, -314, 7, 307, -175, -1293, -122, 297, -122, -424, 
214, 405, 190, -309, 12, 297, -175, -1293, -126, 287, -131, -434, 
200, 375, 175, -287, 12, 275, -161, -1307, -131, 278, -151, -448, 
195, 341, 146, -268, 24, 244, -141, -1298, -141, 258, -170, -483, 
190, 366, 175, -278, 7, 270, -136, -1298, -141, 244, -190, -488, 
185, 356, 170, -270, 7, 263, -117, -1283, -146, 229, -204, -497, 
156, 331, 175, -244, -9, 253, -107, -1273, -161, 204, -224, -531, 
146, 297, 151, -222, -2, 224, -97, -1249, -165, 185, -244, -566, 
131, 297, 165, -214, -17, 231, -87, -1229, -165, 170, -253, -575, 
126, 287, 161, -207, -17, 224, -58, -1210, -175, 151, -273, -585, 
112, 268, 156, -190, -21, 212, -39, -1166, -175, 131, -297, -619, 
102, 273, 170, -187, -34, 222, -14, -1132, -175, 112, -312, -639, 
63, 234, 170, -148, -53, 202, 4, -1122, -175, 102, -336, -668, 
24, 185, 161, -104, -68, 173, 14, -1117, -175, 87, -361, -688, 
29, 195, 165, -112, -68, 180, 43, -1088, -190, 63, -370, -702, 
48, 204, 156, -126, -53, 180, 63, -1068, -190, 53, -380, -702, 
14, 190, 175, -102, -80, 183, 73, -1063, -200, 34, -385, -727, 
-4, 175, 180, -85, -92, 178, 87, -1044, -209, 19, -395, -736, 
-9, 156, 165, -73, -87, 161, 92, -1039, -209, 14, -400, -741, 
-24, 126, 151, -51, -87, 139, 92, -1039, -214, 4, -414, -756, 
-34, 112, 146, -39, -90, 129, 112, -1024, -219, -9, -429, -771, 
-39, 107, 146, -34, -92, 126, 112, -1034, -229, -9, -439, -771, 
-48, 107, 156, -29, -102, 131, 112, -1024, -234, -14, -439, -785, 
-63, 87, 151, -12, -107, 119, 117, -1019, -239, -19, -439, -785, 
-48, 107, 156, -29, -102, 131, 117, -1024, -239, -24, -434, -785, 
-43, 97, 141, -26, -92, 119, 117, -1024, -239, -29, -439, -790, 
-43, 97, 141, -26, -92, 119, 136, -1019, -244, -29, -444, -795, 
-53, 82, 136, -14, -95, 109, 146, -1024, -248, -29, -444, -795, 
-43, 78, 122, -17, -82, 100, 151, -1024, -248, -29, -444, -800, 
-43, 82, 126, -19, -85, 104, 151, -1029, -248, -29, -444, -805, 
-43, 82, 126, -19, -85, 104, 151, -1034, -244, -29, -444, -805, 
-43, 82, 126, -19, -85, 104, 151, -1034, -239, -24, -439, -805, 
-48, 78, 126, -14, -87, 102, 141, -1039, -234, -24, -439, -805, 
-48, 73, 122, -12, -85, 97, 136, -1034, -234, -19, -439, -805, 
-43, 78, 122, -17, -82, 100, 107, -1039, -229, -19, -434, -805, 
-39, 92, 131, -26, -85, 112, 73, -1044, -229, -14, -434, -805, 
-43, 87, 131, -21, -87, 109, 131, -1044, -219, -9, -434, -800, 
-48, 92, 141, -21, -95, 117, 180, -1044, -219, -4, -424, -800, 
-48, 92, 141, -21, -95, 117, 180, -1044, -214, -4, -419, -800, 
-48, 92, 141, -21, -95, 117, 180, -1044, -214, -4, -419, -800, 
-48, 97, 146, -24, -97, 122, 175, -1049, -214, 0, -409, -795, 
-48, 92, 141, -21, -95, 117, 161, -1054, -209, 0, -409, -795, 
-43, 92, 136, -24, -90, 114, 151, -1054, -200, 4, -409, -805, 
-34, 92, 126, -29, -80, 109, 136, -1054, -200, 4, -409, -805, 
-34, 97, 131, -31, -82, 114, 117, -1063, -185, 14, -400, -805, 
-29, 87, 117, -29, -73, 102, 112, -1068, -175, 19, -400, -800, 
-19, 122, 141, -51, -80, 131, 112, -1068, -156, 24, -390, -790, 
-19, 136, 156, -58, -87, 146, 112, -1058, -146, 29, -380, -780, 
-29, 136, 165, -53, -97, 151, 131, -1049, -131, 39, -366, -780, 
-14, 165, 180, -75, -97, 173, 146, -1049, -122, 48, -351, -771, 
-4, 170, 175, -82, -90, 173, 146, -1044, -112, 58, -346, -766, 
0, 175, 175, -87, -87, 175, 146, -1044, -107, 68, -341, -761, 
4, 175, 170, -90, -82, 173, 146, -1044, -102, 68, -341, -761, 
9, 175, 165, -92, -78, 170, 146, -1044, -97, 68, -341, -761, 
9, 170, 161, -90, -75, 165, 131, -1058, -97, 68, -336, -761, 
9, 161, 151, -85, -70, 156, 102, -1083, -97, 68, -331, -756, 
9, 156, 146, -82, -68, 151, 78, -1107, -97, 68, -331, -756, 
9, 146, 136, -78, -63, 141, 39, -1127, -112, 63, -331, -756, 
9, 141, 131, -75, -61, 136, 58, -1122, -117, 58, -331, -756, 
4, 136, 131, -70, -63, 134, 78, -1122, -122, 48, -336, -756, 
4, 122, 117, -63, -56, 119, 68, -1122, -126, 43, -341, -766, 
4, 117, 112, -61, -53, 114, 68, -1122, -136, 39, -346, -771, 
14, 102, 87, -58, -36, 95, 63, -1122, -156, 29, -351, -775, 
24, 82, 58, -53, -17, 70, 43, -1127, -170, 19, -366, -785, 
4, 68, 63, -36, -29, 65, 58, -1141, -185, 9, -370, -790, 
-19, 53, 73, -17, -46, 63, 92, -1151, -195, -4, -375, -800, 
-9, 48, 58, -19, -34, 53, 82, -1151, -200, -4, -375, -800, 
-9, 43, 53, -17, -31, 48, 73, -1146, -200, -4, -375, -795, 
-19, 48, 68, -14, -43, 58, 73, -1141, -190, -4, -375, -795, 
-29, 53, 82, -12, -56, 68, 87, -1132, -185, -4, -375, -810, 
-29, 48, 78, -9, -53, 63, 107, -1127, -175, -4, -375, -819, 
-34, 34, 68, 0, -51, 51, 117, -1122, -175, -4, -380, -829, 
-58, 19, 78, 19, -68, 48, 117, -1122, -175, -4, -380, -834, 
-82, -14, 68, 48, -75, 26, 122, -1117, -180, -19, -390, -839, 
-68, -4, 63, 36, -65, 29, 122, -1117, -180, -24, -385, -839, 
-53, 4, 58, 24, -56, 31, 126, -1117, -180, -24, -385, -839, 
-53, 9, 63, 21, -58, 36, 112, -1117, -180, -24, -385, -839, 
-58, 14, 73, 21, -65, 43, 112, -1117, -180, -24, -385, -839, 
-58, 4, 63, 26, -61, 34, 112, -1117, -175, -24, -385, -844, 
-58, 0, 58, 29, -58, 29, 107, -1117, -175, -24, -385, -854, 
-58, 9, 68, 24, -63, 39, 126, -1117, -170, -24, -380, -854, 
-58, 19, 78, 19, -68, 48, 146, -1112, -161, -24, -380, -854, 
-63, 24, 87, 19, -75, 56, 122, -1112, -161, -24, -375, -854, 
-58, 24, 82, 17, -70, 53, 122, -1107, -156, -19, -366, -844, 
-82, 19, 102, 31, -92, 61, 131, -1112, -156, -19, -366, -854, 
-82, 19, 102, 31, -92, 61, 131, -1117, -156, -24, -370, -854, 
-73, 19, 92, 26, -82, 56, 136, -1117, -156, -29, -375, -858, 
-68, 14, 82, 26, -75, 48, 146, -1112, -156, -29, -375, -863, 
-63, 14, 78, 24, -70, 46, 131, -1112, -151, -29, -366, -863, 
-63, 24, 87, 19, -75, 56, 112, -1112, -141, -24, -361, -854, 
-78, 24, 102, 26, -90, 63, 112, -1122, -131, -9, -356, -849, 
-102, 34, 136, 34, -119, 85, 102, -1146, -117, 9, -341, -844, 
-112, 78, 190, 17, -151, 134, 102, -1166, -73, 68, -283, -800, 
-126, 146, 273, -9, -200, 209, 102, -1185, 0, 156, -195, -746, 
-107, 263, 370, -78, -239, 317, 117, -1200, 131, 322, -39, -634, 
-48, 400, 448, -175, -248, 424, 97, -1224, 331, 541, 161, -463, 
39, 517, 478, -278, -219, 497, 14, -1234, 512, 751, 361, -317, 
122, 575, 453, -348, -165, 514, -53, -1220, 619, 883, 473, -224, 
204, 512, 307, -358, -51, 409, -53, -1176, 570, 834, 448, -219, 
307, 248, -58, -278, 183, 95, 0, -1044, 224, 414, 92, -453, 
380, -258, -639, -61, 509, -448, 63, -873, -424, -336, -551, -868, 
439, -658, -1098, 109, 768, -878, 107, -751, -868, -824, -985, -1229, 
453, -893, -1346, 219, 900, -1119, 156, -673, -1088, -1088, -1244, -1449, 
468, -1127, -1595, 329, 1032, -1361, 229, -522, -1263, -1312, -1478, -1639, 
434, -1351, -1786, 458, 1110, -1568, 273, -390, -1454, -1537, -1688, -1830, 
405, -1498, -1903, 546, 1154, -1700, 312, -375, -1620, -1678, -1839, -1961, 
326, -1551, -1878, 612, 1102, -1715, 361, -366, -1668, -1712, -1908, -2054, 
268, -1522, -1790, 627, 1029, -1656, 375, -331, -1629, -1698, -1883, -2044, 
229, -1449, -1678, 610, 954, -1564, 375, -351, -1556, -1600, -1805, -2005, 
185, -1361, -1546, 588, 866, -1454, 395, -395, -1488, -1512, -1732, -1966, 
92, -1190, -1283, 549, 688, -1237, 405, -444, -1307, -1322, -1595, -1854, 
-14, -1024, -1010, 519, 497, -1017, 439, -463, -1127, -1141, -1434, -1727, 
-107, -883, -775, 495, 334, -829, 507, -400, -966, -1000, -1307, -1654, 
-175, -756, -580, 466, 202, -668, 595, -351, -805, -863, -1180, -1590, 
-239, -605, -366, 422, 63, -485, 658, -229, -619, -697, -1034, -1468, 
-287, -502, -214, 395, -36, -358, 717, -141, -507, -570, -917, -1356, 
-312, -439, -126, 375, -92, -283, 775, -82, -473, -502, -858, -1307, 
-351, -405, -53, 378, -148, -229, 834, -58, -439, -448, -810, -1288, 
-380, -336, 43, 358, -212, -146, 829, -97, -370, -366, -741, -1215, 
-380, -253, 126, 317, -253, -63, 805, -165, -307, -287, -649, -1132, 
-375, -234, 141, 305, -258, -46, 761, -283, -302, -263, -634, -1102, 
-356, -209, 146, 283, -251, -31, 712, -409, -283, -224, -605, -1088, 
-317, -151, 165, 234, -241, 7, 619, -517, -258, -165, -536, -1029, 
-273, -97, 175, 185, -224, 39, 536, -575, -239, -126, -502, -971, 
-224, -68, 156, 146, -190, 43, 473, -644, -219, -112, -483, -956, 
-185, -53, 131, 119, -158, 39, 395, -746, -204, -78, -453, -932, 
-141, -24, 117, 82, -129, 46, 302, -829, -180, -34, -405, -888, 
-92, 19, 112, 36, -102, 65, 219, -888, -161, 4, -370, -839, 
-73, 39, 112, 17, -92, 75, 161, -990, -146, 19, -351, -819, 
-63, 58, 122, 2, -92, 90, 112, -1093, -136, 34, -336, -810, 
-39, 82, 122, -21, -80, 102, 131, -1102, -126, 43, -322, -795, 
-29, 92, 122, -31, -75, 107, 126, -1098, -117, 53, -317, -780, 
-24, 87, 112, -31, -68, 100, 126, -1122, -122, 58, -312, -780, 
-34, 78, 112, -21, -73, 95, 117, -1146, -126, 58, -312, -780, 
-34, 82, 117, -24, -75, 100, 82, -1156, -126, 58, -312, -775, 
-29, 82, 112, -26, -70, 97, 58, -1156, -126, 63, -307, -771, 
-14, 102, 117, -43, -65, 109, 58, -1166, -117, 78, -297, -751, 
-4, 112, 117, -53, -61, 114, 48, -1176, -112, 82, -287, -741, 
0, 126, 126, -63, -63, 126, 53, -1180, -112, 87, -283, -741, 
4, 131, 126, -68, -61, 129, 63, -1185, -107, 92, -278, -732, 
0, 131, 131, -65, -65, 131, 48, -1190, -102, 97, -273, -732, 
0, 131, 131, -65, -65, 131, 58, -1190, -97, 102, -268, -727, 
4, 141, 136, -73, -65, 139, 43, -1205, -97, 107, -263, -727, 
4, 126, 122, -65, -58, 124, 29, -1215, -97, 112, -263, -722, 
14, 146, 131, -80, -58, 139, 19, -1210, -97, 112, -253, -722, 
14, 151, 136, -82, -61, 143, 19, -1215, -97, 117, -248, -717, 
14, 151, 136, -82, -61, 143, 0, -1220, -92, 126, -244, -717, 
19, 151, 131, -85, -56, 141, -14, -1239, -82, 136, -229, -712, 
39, 165, 126, -102, -43, 146, -19, -1239, -82, 141, -224, -707, 
39, 165, 126, -102, -43, 146, -34, -1234, -82, 146, -229, -702, 
58, 180, 122, -119, -31, 151, -34, -1239, -78, 151, -219, -697, 
87, 209, 122, -148, -17, 165, -39, -1239, -73, 161, -204, -683, 
78, 214, 136, -146, -29, 175, -39, -1254, -68, 170, -195, -683, 
73, 229, 156, -151, -41, 192, -29, -1263, -63, 180, -185, -668, 
73, 244, 170, -158, -48, 207, -24, -1268, -58, 204, -165, -649, 
73, 244, 170, -158, -48, 207, -9, -1283, -58, 204, -156, -639, 
73, 244, 170, -158, -48, 207, -43, -1307, -48, 214, -136, -619, 
82, 258, 175, -170, -46, 217, -73, -1322, -43, 229, -126, -605, 
102, 273, 170, -187, -34, 222, -97, -1327, -39, 239, -117, -590, 
107, 297, 190, -202, -41, 244, -107, -1337, -34, 253, -102, -566, 
117, 302, 185, -209, -34, 244, -107, -1356, -34, 263, -92, -551, 
126, 307, 180, -217, -26, 244, -107, -1376, -34, 273, -82, -546, 
141, 322, 180, -231, -19, 251, -112, -1385, -29, 278, -73, -527, 
146, 336, 190, -241, -21, 263, -122, -1385, -29, 283, -63, -522, 
156, 336, 180, -246, -12, 258, -131, -1395, -24, 283, -53, -507, 
165, 356, 190, -261, -12, 273, -156, -1395, -14, 292, -48, -492, 
180, 370, 190, -275, -4, 280, -200, -1415, -14, 292, -48, -488, 
180, 366, 185, -273, -2, 275, -214, -1424, -14, 297, -43, -478, 
190, 370, 180, -280, 4, 275, -204, -1420, -14, 297, -43, -473, 
200, 370, 170, -285, 14, 270, -185, -1420, -19, 292, -43, -473, 
214, 366, 151, -290, 31, 258, -175, -1420, -24, 287, -53, -478, 
244, 356, 112, -300, 65, 234, -165, -1420, -29, 278, -63, -483, 
219, 351, 131, -285, 43, 241, -180, -1420, -34, 268, -73, -478, 
204, 341, 136, -273, 34, 239, -190, -1395, -43, 248, -82, -492, 
209, 351, 141, -280, 34, 246, -204, -1385, -43, 239, -102, -502, 
214, 326, 112, -270, 51, 219, -204, -1361, -48, 229, -117, -517, 
185, 312, 126, -248, 29, 219, -161, -1351, -68, 204, -136, -541, 
175, 287, 112, -231, 31, 200, -117, -1327, -78, 185, -156, -566, 
161, 283, 122, -222, 19, 202, -107, -1307, -78, 170, -175, -580, 
156, 268, 112, -212, 21, 190, -78, -1288, -87, 151, -204, -595, 
126, 224, 97, -175, 14, 161, -87, -1259, -92, 131, -229, -629, 
102, 204, 102, -153, 0, 153, -92, -1239, -97, 112, -244, -649, 
82, 204, 122, -143, -19, 163, -43, -1205, -97, 102, -253, -658, 
63, 195, 131, -129, -34, 163, -4, -1176, -97, 87, -263, -658, 
43, 180, 136, -112, -46, 158, 24, -1146, -107, 68, -278, -683, 
39, 165, 126, -102, -43, 146, 43, -1127, -102, 63, -292, -692, 
4, 151, 146, -78, -70, 148, 48, -1122, -112, 43, -302, -717, 
-14, 136, 151, -61, -82, 143, 58, -1102, -122, 29, -317, -727, 
-9, 131, 141, -61, -75, 136, 68, -1088, -122, 24, -322, -727, 
-14, 117, 131, -51, -73, 124, 73, -1078, -126, 14, -336, -736, 
-24, 92, 117, -34, -70, 104, 107, -1058, -136, -9, -351, -751, 
-29, 78, 107, -24, -68, 92, 122, -1063, -151, -19, -361, -751, 
-29, 87, 117, -29, -73, 102, 102, -1049, -151, -24, -361, -761, 
-34, 78, 112, -21, -73, 95, 87, -1039, -151, -29, -361, -756, 
-34, 92, 126, -29, -80, 109, 117, -1039, -146, -34, -361, -756, 
-43, 78, 122, -17, -82, 100, 146, -1034, -141, -39, -370, -761, 
-43, 58, 102, -7, -73, 80, 146, -1024, -146, -39, -375, -766, 
-53, 24, 78, 14, -65, 51, 136, -1024, -151, -39, -375, -766, 
-43, 34, 78, 4, -61, 56, 107, -1019, -146, -39, -370, -761, 
-43, 53, 97, -4, -70, 75, 73, -1019, -141, -39, -366, -756, 
-39, 58, 97, -9, -68, 78, 73, -1024, -136, -34, -366, -751, 
-34, 63, 97, -14, -65, 80, 73, -1024, -131, -24, -361, -746, 
-39, 63, 102, -12, -70, 82, 92, -1019, -126, -24, -356, -736, 
-39, 63, 102, -12, -70, 82, 117, -1005, -126, -19, -351, -727, 
-39, 58, 97, -9, -68, 78, 122, -1010, -122, -19, -346, -727, 
-39, 63, 102, -12, -70, 82, 122, -1015, -122, -14, -346, -727, 
-39, 53, 92, -7, -65, 73, 136, -1015, -112, -9, -346, -717, 
-39, 53, 92, -7, -65, 73, 141, -1015, -112, -4, -336, -712, 
-29, 68, 97, -19, -63, 82, 117, -1015, -102, 0, -331, -707, 
-19, 82, 102, -31, -61, 92, 92, -1015, -97, 4, -331, -702, 
-19, 82, 102, -31, -61, 92, 92, -1015, -102, 9, -322, -697, 
-19, 73, 92, -26, -56, 82, 82, -1015, -102, 9, -322, -697, 
-29, 58, 87, -14, -58, 73, 107, -1015, -97, 9, -322, -697, 
-34, 43, 78, -4, -56, 61, 126, -1015, -102, 4, -322, -688, 
-34, 53, 87, -9, -61, 70, 107, -1015, -92, 9, -317, -688, 
-29, 48, 78, -9, -53, 63, 102, -1010, -87, 9, -322, -683, 
-19, 73, 92, -26, -56, 82, 122, -1010, -78, 14, -312, -678, 
-19, 78, 97, -29, -58, 87, 141, -1000, -78, 19, -302, -673, 
-29, 78, 107, -24, -68, 92, 151, -990, -63, 29, -292, -673, 
-14, 107, 122, -46, -68, 114, 156, -990, -53, 39, -283, -663, 
-9, 117, 126, -53, -68, 122, 146, -980, -39, 43, -278, -649, 
-9, 126, 136, -58, -73, 131, 136, -971, -24, 53, -273, -639, 
0, 131, 131, -65, -65, 131, 122, -966, -14, 53, -268, -629, 
9, 136, 126, -73, -58, 131, 107, -966, -9, 58, -263, -624, 
24, 141, 117, -82, -46, 129, 68, -966, -4, 63, -253, -614, 
39, 146, 107, -92, -34, 126, 29, -966, 0, 68, -244, -605, 
39, 146, 107, -92, -34, 126, 39, -980, 0, 68, -244, -600, 
34, 136, 102, -85, -34, 119, 39, -1000, -4, 63, -244, -595, 
29, 131, 102, -80, -36, 117, 43, -1019, -14, 63, -244, -590, 
19, 122, 102, -70, -41, 112, 58, -1019, -19, 58, -244, -590, 
24, 117, 92, -70, -34, 104, 48, -1024, -29, 48, -248, -590, 
34, 102, 68, -68, -17, 85, 29, -1024, -39, 43, -253, -600, 
34, 97, 63, -65, -14, 80, 4, -1024, -48, 34, -258, -605, 
34, 82, 48, -58, -7, 65, -4, -1024, -68, 19, -263, -605, 
29, 63, 34, -46, -2, 48, 39, -1029, -82, 9, -278, -610, 
24, 48, 24, -36, 0, 36, 73, -1034, -97, 0, -283, -610, 
19, 29, 9, -24, 4, 19, 68, -1034, -112, -19, -292, -614, 
19, 19, 0, -19, 9, 9, 53, -1034, -122, -24, -297, -614, 
-4, 0, 4, 2, -4, 2, 53, -1029, -131, -24, -297, -610, 
-29, -14, 14, 21, -21, 0, 68, -1024, -136, -24, -297, -610, 
-19, 9, 29, 4, -24, 19, 97, -995, -136, -19, -292, -614, 
-9, 29, 39, -9, -24, 34, 107, -976, -126, -14, -287, -614, 
-24, 14, 39, 4, -31, 26, 97, -971, -126, -14, -292, -624, 
-29, 14, 43, 7, -36, 29, 82, -966, -126, -14, -292, -624, 
-39, -4, 34, 21, -36, 14, 112, -961, -131, -29, -302, -624, 
-43, -4, 39, 24, -41, 17, 141, -961, -131, -34, -302, -624, 
-43, -9, 34, 26, -39, 12, 122, -961, -131, -34, -307, -624, 
-43, -14, 29, 29, -36, 7, 97, -956, -131, -34, -307, -624, 
-53, -29, 24, 41, -39, -2, 107, -951, -136, -34, -307, -624, 
-58, -53, 4, 56, -31, -24, 102, -951, -136, -34, -307, -624, 
-58, -39, 19, 48, -39, -9, 97, -951, -136, -34, -307, -629, 
-58, -19, 39, 39, -48, 9, 97, -951, -136, -34, -302, -629, 
-48, -19, 29, 34, -39, 4, 112, -946, -131, -29, -297, -624, 
-39, -14, 24, 26, -31, 4, 112, -946, -131, -24, -292, -619, 
-29, -14, 14, 21, -21, 0, 112, -936, -126, -19, -287, -605, 
-53, -19, 34, 36, -43, 7, 112, -932, -126, -19, -287, -610, 
-53, -19, 34, 36, -43, 7, 112, -927, -131, -29, -292, -610, 
-48, -19, 29, 34, -39, 4, 107, -922, -136, -34, -292, -610, 
-53, -29, 24, 41, -39, -2, 126, -917, -141, -29, -287, -610, 
-53, -34, 19, 43, -36, -7, 151, -917, -141, -29, -278, -610, 
-53, -24, 29, 39, -41, 2, 151, -917, -136, -29, -273, -595, 
-58, -9, 48, 34, -53, 19, 151, -917, -131, -19, -268, -585, 
-63, 29, 92, 17, -78, 61, 141, -927, -117, -4, -258, -580, 
-63, 78, 141, -7, -102, 109, 136, -936, -78, 43, -214, -536, 
-97, 97, 195, 0, -146, 146, 126, -951, -34, 92, -165, -502, 
-117, 161, 278, -21, -197, 219, 112, -966, 68, 224, -39, -409, 
-87, 317, 405, -114, -246, 361, 63, -990, 278, 458, 170, -224, 
-9, 468, 478, -229, -244, 473, 19, -1000, 473, 683, 380, -63, 
107, 570, 463, -339, -178, 517, -9, -990, 629, 873, 541, 58, 
219, 566, 346, -392, -63, 456, -29, -961, 649, 893, 580, 102, 
307, 361, 53, -334, 126, 207, 9, -839, 370, 551, 302, -87, 
370, -122, -492, -124, 431, -307, 73, -668, -253, -170, -312, -488, 
429, -575, -1005, 73, 717, -790, 92, -536, -761, -736, -819, -893, 
448, -844, -1293, 197, 871, -1068, 112, -458, -1019, -1029, -1107, -1137, 
468, -1093, -1561, 312, 1015, -1327, 190, -317, -1195, -1249, -1332, -1337, 
434, -1327, -1761, 446, 1098, -1544, 244, -185, -1381, -1473, -1542, -1537, 
414, -1498, -1912, 541, 1163, -1705, 307, -156, -1586, -1654, -1727, -1688, 
356, -1581, -1937, 612, 1146, -1759, 375, -131, -1678, -1732, -1830, -1810, 
307, -1556, -1864, 624, 1085, -1710, 366, -82, -1639, -1722, -1815, -1815, 
268, -1488, -1756, 610, 1012, -1622, 346, -87, -1566, -1629, -1747, -1781, 
224, -1429, -1654, 602, 939, -1542, 380, -126, -1527, -1561, -1693, -1761, 
131, -1278, -1410, 573, 771, -1344, 405, -170, -1361, -1390, -1561, -1668, 
19, -1088, -1107, 534, 563, -1098, 453, -190, -1141, -1185, -1366, -1522, 
-78, -946, -868, 512, 395, -907, 536, -126, -971, -1019, -1239, -1429, 
-146, -834, -688, 490, 270, -761, 610, -63, -844, -902, -1151, -1385, 
-204, -663, -458, 434, 126, -561, 649, 58, -663, -741, -1005, -1278, 
-253, -522, -268, 387, 7, -395, 697, 136, -502, -580, -844, -1141, 
-273, -439, -165, 356, -53, -302, 736, 209, -434, -492, -761, -1063, 
-302, -434, -131, 368, -85, -283, 795, 244, -424, -468, -741, -1058, 
-331, -395, -63, 363, -134, -229, 834, 219, -385, -414, -702, -1019, 
-351, -292, 58, 322, -204, -117, 819, 161, -312, -307, -580, -927, 
-370, -253, 117, 312, -244, -68, 775, 39, -292, -258, -536, -878, 
-331, -229, 102, 280, -217, -63, 741, -87, -273, -234, -517, -873, 
-283, -175, 107, 229, -195, -34, 649, -200, -253, -185, -458, -834, 
-263, -131, 131, 197, -197, 0, 595, -278, -239, -146, -424, -785, 
-224, -107, 117, 165, -170, 4, 561, -361, -219, -131, -409, -771, 
-185, -92, 92, 139, -139, 0, 473, -463, -204, -97, -385, -746, 
-141, -63, 78, 102, -109, 7, 385, -541, -180, -53, -336, -707, 
-92, -19, 73, 56, -82, 26, 278, -614, -161, -14, -292, -663, 
-73, 0, 73, 36, -73, 36, 180, -727, -146, 0, -263, -644, 
-63, 19, 82, 21, -73, 51, 141, -819, -136, 14, -258, -639, 
-39, 43, 82, -2, -61, 63, 141, -839, -126, 29, -253, -629, 
-29, 53, 82, -12, -56, 68, 117, -849, -117, 43, -248, -614, 
-14, 63, 78, -24, -46, 70, 126, -878, -117, 53, -239, -610, 
-4, 68, 73, -31, -39, 70, 117, -902, -122, 58, -229, -605, 
4, 73, 68, -39, -31, 70, 92, -917, -126, 58, -224, -600, 
9, 73, 63, -41, -26, 68, 73, -927, -126, 63, -219, -595, 
14, 82, 68, -48, -26, 75, 68, -941, -122, 73, -214, -585, 
14, 82, 68, -48, -26, 75, 58, -951, -122, 73, -209, -590, 
19, 97, 78, -58, -29, 87, 53, -961, -122, 78, -204, -595, 
24, 102, 78, -63, -26, 90, 63, -971, -117, 82, -200, -590, 
24, 107, 82, -65, -29, 95, 48, -976, -112, 87, -195, -595, 
19, 112, 92, -65, -36, 102, 29, -976, -107, 87, -190, -590, 
14, 122, 107, -68, -46, 114, 9, -990, -107, 87, -185, -590, 
14, 107, 92, -61, -39, 100, 24, -1005, -102, 92, -185, -590, 
24, 126, 102, -75, -39, 114, 48, -1010, -97, 92, -175, -595, 
24, 131, 107, -78, -41, 119, 68, -1019, -97, 102, -170, -590, 
24, 136, 112, -80, -43, 124, 34, -1024, -92, 117, -165, -590, 
29, 141, 112, -85, -41, 126, 14, -1044, -82, 126, -151, -585, 
48, 156, 107, -102, -29, 131, 34, -1049, -82, 131, -141, -580, 
58, 161, 102, -109, -21, 131, 24, -1049, -82, 131, -146, -580, 
68, 170, 102, -119, -17, 136, 14, -1063, -78, 136, -141, -580, 
87, 190, 102, -139, -7, 146, 9, -1073, -73, 151, -126, -566, 
102, 195, 92, -148, 4, 143, -9, -1088, -68, 161, -117, -566, 
92, 195, 102, -143, -4, 148, -19, -1098, -68, 165, -107, -566, 
78, 195, 117, -136, -19, 156, -29, -1102, -63, 185, -87, -561, 
82, 195, 112, -139, -14, 153, -34, -1117, -58, 185, -78, -551, 
82, 200, 117, -141, -17, 158, -53, -1141, -48, 195, -58, -531, 
97, 234, 136, -165, -19, 185, -63, -1156, -39, 214, -48, -517, 
126, 263, 136, -195, -4, 200, -87, -1161, -29, 229, -34, -502, 
136, 273, 136, -204, 0, 204, -97, -1176, -24, 244, -19, -478, 
146, 258, 112, -202, 17, 185, -112, -1200, -24, 253, -14, -463, 
161, 278, 117, -219, 21, 197, -131, -1220, -24, 263, -4, -458, 
180, 312, 131, -246, 24, 222, -122, -1229, -19, 268, 4, -439, 
185, 317, 131, -251, 26, 224, -112, -1234, -19, 273, 14, -439, 
195, 307, 112, -251, 41, 209, -122, -1249, -14, 278, 24, -429, 
195, 322, 126, -258, 34, 224, -102, -1249, -4, 287, 29, -414, 
200, 326, 126, -263, 36, 226, -92, -1268, -4, 283, 29, -414, 
200, 317, 117, -258, 41, 217, -126, -1283, -4, 287, 34, -409, 
204, 317, 112, -261, 46, 214, -156, -1288, -4, 287, 34, -405, 
209, 312, 102, -261, 53, 207, -161, -1298, -9, 287, 34, -405, 
214, 307, 92, -261, 61, 200, -175, -1302, -14, 287, 24, -409, 
239, 302, 63, -270, 87, 183, -161, -1302, -14, 283, 19, -414, 
234, 302, 68, -268, 82, 185, -141, -1302, -14, 278, 9, -419, 
239, 302, 63, -270, 87, 183, -146, -1278, -24, 258, -4, -434, 
239, 312, 73, -275, 82, 192, -156, -1278, -24, 244, -24, -444, 
234, 278, 43, -256, 95, 161, -151, -1263, -39, 229, -39, -463, 
204, 263, 58, -234, 73, 161, -156, -1254, -63, 204, -58, -492, 
185, 239, 53, -212, 65, 146, -107, -1239, -68, 185, -78, -527, 
161, 239, 78, -200, 41, 158, -58, -1229, -68, 170, -97, -541, 
165, 229, 63, -197, 51, 146, -29, -1200, -78, 151, -126, -556, 
151, 200, 48, -175, 51, 124, -24, -1161, -78, 131, -151, -590, 
141, 204, 63, -173, 39, 134, -53, -1141, -78, 112, -165, -610, 
131, 204, 73, -168, 29, 139, -58, -1117, -78, 102, -180, -629, 
97, 175, 78, -136, 9, 126, -34, -1107, -78, 87, -200, -639, 
63, 151, 87, -107, -12, 119, -4, -1088, -92, 63, -224, -663, 
58, 136, 78, -97, -9, 107, 14, -1068, -97, 53, -244, -673, 
34, 122, 87, -78, -26, 104, 24, -1063, -112, 34, -253, -697, 
24, 107, 82, -65, -29, 95, 53, -1039, -122, 19, -268, -712, 
19, 102, 82, -61, -31, 92, 78, -1024, -122, 14, -273, -722, 
4, 87, 82, -46, -39, 85, 92, -1019, -122, 4, -292, -736, 
-4, 73, 78, -34, -41, 75, 136, -1005, -126, -14, -312, -751, 
-14, 68, 82, -26, -48, 75, 151, -1010, -141, -19, -322, -751, 
-19, 68, 87, -24, -53, 78, 141, -1005, -146, -24, -322, -766, 
-53, 29, 82, 12, -68, 56, 146, -1010, -156, -29, -322, -771, 
-82, 24, 107, 29, -95, 65, 156, -1015, -161, -34, -322, -780, 
-53, 29, 82, 12, -68, 56, 156, -1015, -161, -39, -331, -790, 
-14, 48, 63, -17, -39, 56, 165, -1005, -165, -39, -336, -795, 
-24, 53, 78, -14, -51, 65, 136, -1005, -170, -39, -336, -795, 
-14, 73, 87, -29, -51, 80, 107, -1000, -170, -39, -336, -795, 
-14, 63, 78, -24, -46, 70, 102, -1000, -170, -39, -336, -795, 
-14, 43, 58, -14, -36, 51, 102, -1005, -170, -39, -336, -790, 
-14, 53, 68, -19, -41, 61, 122, -1005, -170, -34, -331, -785, 
-19, 63, 82, -21, -51, 73, 141, -1015, -165, -34, -331, -785, 
-24, 63, 87, -19, -56, 75, 146, -1015, -165, -29, -331, -785, 
-24, 68, 92, -21, -58, 80, 146, -1019, -161, -29, -326, -785, 
-19, 82, 102, -31, -61, 92, 131, -1029, -170, -24, -326, -785, 
-19, 73, 92, -26, -56, 82, 122, -1034, -170, -19, -326, -780, 
-24, 63, 87, -19, -56, 75, 112, -1039, -180, -19, -326, -785, 
-29, 53, 82, -12, -56, 68, 112, -1044, -180, -24, -331, -790, 
-29, 53, 82, -12, -56, 68, 112, -1044, -175, -24, -331, -795, 
-29, 63, 92, -17, -61, 78, 122, -1044, -175, -19, -322, -795, 
-29, 63, 92, -17, -61, 78, 122, -1044, -175, -19, -322, -795, 
-29, 63, 92, -17, -61, 78, 126, -1044, -170, -14, -322, -795, 
-24, 58, 82, -17, -53, 70, 126, -1039, -180, -14, -322, -785, 
-24, 68, 92, -21, -58, 80, 107, -1044, -175, -4, -312, -785, 
-19, 63, 82, -21, -51, 73, 102, -1049, -165, 0, -317, -780, 
-9, 82, 92, -36, -51, 87, 102, -1049, -156, 4, -312, -780, 
-19, 87, 107, -34, -63, 97, 112, -1049, -156, 9, -307, -780, 
-29, 87, 117, -29, -73, 102, 126, -1049, -146, 19, -302, -780, 
-14, 112, 126, -48, -70, 119, 131, -1049, -126, 24, -292, -780, 
-4, 131, 136, -63, -70, 134, 131, -1049, -112, 34, -287, -775, 
4, 141, 136, -73, -65, 139, 131, -1034, -107, 39, -273, -761, 
19, 156, 136, -87, -58, 146, 136, -1024, -107, 48, -263, -751, 
19, 156, 136, -87, -58, 146, 112, -1029, -102, 48, -263, -751, 
19, 156, 136, -87, -58, 146, 87, -1034, -97, 48, -263, -751, 
29, 156, 126, -92, -48, 141, 107, -1039, -97, 48, -263, -751, 
34, 146, 112, -90, -39, 129, 97, -1058, -97, 48, -263, -746, 
39, 141, 102, -90, -31, 122, 92, -1083, -97, 48, -263, -746, 
39, 126, 87, -82, -24, 107, 58, -1107, -112, 43, -263, -746, 
29, 117, 87, -73, -29, 102, 58, -1112, -117, 39, -268, -746, 
14, 107, 92, -61, -39, 100, 58, -1122, -122, 29, -278, -746, 
14, 92, 78, -53, -31, 85, 48, -1122, -126, 19, -283, -756, 
14, 87, 73, -51, -29, 80, 48, -1122, -136, 9, -287, -761, 
29, 87, 58, -58, -14, 73, 63, -1122, -156, 0, -292, -761, 
43, 82, 39, -63, 2, 61, 63, -1127, -170, -9, -307, -766, 
43, 58, 14, -51, 14, 36, 53, -1132, -185, -14, -312, -766, 
39, 34, -4, -36, 21, 14, 63, -1132, -195, -24, -317, -771, 
34, 29, -4, -31, 19, 12, 58, -1132, -200, -24, -317, -780, 
19, 24, 4, -21, 7, 14, 53, -1127, -200, -24, -317, -785, 
9, 24, 14, -17, -2, 19, 68, -1122, -195, -24, -317, -775, 
0, 24, 24, -12, -12, 24, 97, -1112, -195, -24, -317, -780, 
-19, 19, 39, 0, -29, 29, 107, -1102, -190, -24, -322, -790, 
-43, 4, 48, 19, -46, 26, 107, -1093, -195, -24, -331, -800, 
-53, -4, 48, 29, -51, 21, 87, -1102, -204, -24, -336, -810, 
-63, -34, 29, 48, -46, -2, 73, -1107, -219, -39, -351, -819, 
-63, -34, 29, 48, -46, -2, 102, -1107, -219, -43, -351, -819, 
-63, -34, 29, 48, -46, -2, 136, -1107, -219, -43, -356, -819, 
-48, -19, 29, 34, -39, 4, 112, -1102, -209, -39, -351, -819, 
-39, -4, 34, 21, -36, 14, 102, -1098, -200, -34, -346, -819, 
-39, -14, 24, 26, -31, 4, 92, -1098, -195, -34, -346, -819, 
-39, -19, 19, 29, -29, 0, 78, -1098, -195, -34, -346, -824, 
-53, -24, 29, 39, -41, 2, 112, -1098, -200, -39, -346, -829, 
-68, -29, 39, 48, -53, 4, 146, -1093, -200, -43, -351, -834, 
-68, -24, 43, 46, -56, 9, 131, -1093, -200, -43, -351, -834, 
-58, -24, 34, 41, -46, 4, 141, -1088, -195, -39, -346, -824, 
-68, -19, 48, 43, -58, 14, 102, -1088, -195, -34, -346, -834, 
-53, -9, 43, 31, -48, 17, 53, -1088, -195, -34, -351, -834, 
-48, -9, 39, 29, -43, 14, 78, -1093, -195, -34, -351, -834, 
-48, -14, 34, 31, -41, 9, 107, -1093, -195, -29, -346, -834, 
-63, -14, 48, 39, -56, 17, 126, -1098, -190, -34, -336, -834, 
-82, -4, 78, 43, -80, 36, 141, -1102, -180, -34, -331, -824, 
-73, 9, 82, 31, -78, 46, 131, -1107, -170, -19, -326, -819, 
-73, 34, 107, 19, -90, 70, 112, -1127, -156, 0, -312, -814, 
-82, 87, 170, -2, -126, 129, 82, -1141, -97, 78, -244, -756, 
-97, 165, 263, -34, -180, 214, 53, -1156, -9, 185, -146, -688, 
-97, 248, 346, -75, -222, 297, 68, -1166, 97, 326, -9, -585, 
-58, 351, 409, -146, -234, 380, 48, -1185, 273, 522, 170, -424, 
58, 458, 400, -258, -170, 429, 34, -1180, 424, 688, 336, -297, 
170, 507, 336, -339, -82, 422, 34, -1151, 502, 775, 414, -224, 
224, 390, 165, -307, 29, 278, -14, -1107, 400, 663, 326, -283, 
297, 73, -224, -185, 261, -75, -9, -976, 0, 180, -92, -580, 
400, -375, -775, -12, 588, -575, 73, -819, -595, -512, -692, -971, 
488, -717, -1205, 114, 846, -961, 136, -712, -985, -941, -1083, -1307, 
448, -980, -1429, 265, 939, -1205, 161, -658, -1205, -1195, -1332, -1527, 
409, -1244, -1654, 417, 1032, -1449, 209, -531, -1381, -1410, -1556, -1717, 
395, -1405, -1800, 505, 1098, -1603, 234, -400, -1532, -1590, -1722, -1873, 
385, -1488, -1873, 551, 1129, -1681, 253, -385, -1659, -1688, -1830, -1971, 
317, -1542, -1859, 612, 1088, -1700, 287, -385, -1688, -1703, -1888, -2054, 
268, -1512, -1781, 622, 1024, -1647, 287, -361, -1629, -1668, -1854, -2034, 
214, -1415, -1629, 600, 922, -1522, 302, -370, -1542, -1551, -1751, -1976, 
156, -1302, -1459, 573, 807, -1381, 336, -405, -1459, -1444, -1654, -1917, 
82, -1132, -1215, 524, 649, -1173, 366, -434, -1263, -1263, -1512, -1805, 
-4, -966, -961, 485, 478, -963, 419, -434, -1068, -1093, -1346, -1678, 
-117, -839, -722, 478, 302, -780, 488, -346, -922, -951, -1239, -1590, 
-204, -727, -522, 466, 158, -624, 575, -273, -775, -814, -1132, -1512, 
-248, -570, -322, 409, 36, -446, 649, -165, -590, -653, -976, -1395, 
-278, -463, -185, 370, -46, -324, 717, -92, -478, -531, -849, -1288, 
-292, -400, -107, 346, -92, -253, 736, -29, -444, -463, -790, -1229, 
-322, -366, -43, 344, -139, -204, 756, 0, -409, -409, -741, -1200, 
-366, -326, 39, 346, -202, -143, 775, -68, -366, -351, -702, -1156, 
-380, -273, 107, 326, -244, -82, 775, -165, -326, -297, -639, -1102, 
-366, -239, 126, 302, -246, -56, 746, -273, -322, -263, -610, -1058, 
-336, -200, 136, 268, -236, -31, 712, -390, -302, -214, -566, -1029, 
-287, -146, 141, 217, -214, -2, 570, -502, -273, -156, -497, -980, 
-234, -97, 136, 165, -185, 19, 439, -566, -248, -117, -463, -932, 
-200, -68, 131, 134, -165, 31, 405, -649, -239, -107, -453, -917, 
-175, -53, 122, 114, -148, 34, 356, -766, -234, -78, -434, -893, 
-131, -39, 92, 85, -112, 26, 239, -868, -209, -39, -385, -854, 
-82, -9, 73, 46, -78, 31, 131, -946, -190, -4, -351, -810, 
-48, 29, 78, 9, -63, 53, 87, -1019, -175, 9, -331, -790, 
-24, 68, 92, -21, -58, 80, 53, -1093, -165, 24, -317, -780, 
-34, 53, 87, -9, -61, 70, 63, -1112, -165, 34, -307, -766, 
-58, 24, 82, 17, -70, 53, 48, -1117, -165, 43, -307, -751, 
-34, 53, 87, -9, -61, 70, 29, -1141, -165, 53, -297, -746, 
-24, 78, 102, -26, -63, 90, 0, -1166, -165, 58, -292, -741, 
-9, 82, 92, -36, -51, 87, -9, -1180, -165, 53, -292, -736, 
9, 82, 73, -46, -31, 78, -9, -1185, -165, 53, -287, -732, 
0, 92, 92, -46, -46, 92, -4, -1195, -161, 63, -283, -722, 
-14, 92, 107, -39, -61, 100, -9, -1205, -161, 63, -278, -722, 
0, 107, 107, -53, -53, 107, -14, -1220, -165, 68, -273, -722, 
14, 112, 97, -63, -41, 104, -14, -1234, -165, 73, -268, -712, 
24, 117, 92, -70, -34, 104, -39, -1239, -161, 78, -263, -712, 
39, 122, 82, -80, -21, 102, -39, -1239, -156, 82, -258, -707, 
24, 131, 107, -78, -41, 119, -39, -1254, -156, 87, -253, -707, 
4, 117, 112, -61, -53, 114, -39, -1263, -156, 92, -253, -702, 
34, 146, 112, -90, -39, 129, -24, -1263, -156, 92, -244, -697, 
53, 161, 107, -107, -26, 134, 0, -1273, -156, 97, -239, -688, 
53, 165, 112, -109, -29, 139, -34, -1278, -151, 102, -239, -688, 
58, 170, 112, -114, -26, 141, -63, -1298, -141, 107, -229, -683, 
58, 165, 107, -112, -24, 136, -68, -1302, -136, 112, -219, -678, 
39, 146, 107, -92, -34, 126, -82, -1302, -131, 117, -219, -673, 
53, 161, 107, -107, -26, 134, -92, -1322, -126, 126, -204, -668, 
78, 190, 112, -134, -17, 151, -107, -1337, -122, 141, -185, -653, 
82, 200, 117, -141, -17, 158, -112, -1351, -117, 151, -175, -649, 
92, 219, 126, -156, -17, 173, -107, -1361, -112, 161, -165, -629, 
102, 234, 131, -168, -14, 183, -107, -1366, -102, 185, -146, -610, 
112, 234, 122, -173, -4, 178, -97, -1381, -97, 185, -136, -600, 
112, 229, 117, -170, -2, 173, -112, -1405, -87, 195, -122, -580, 
122, 239, 117, -180, 2, 178, -122, -1420, -82, 209, -117, -566, 
136, 244, 107, -190, 14, 175, -156, -1424, -78, 214, -102, -551, 
136, 258, 122, -197, 7, 190, -175, -1434, -73, 224, -82, -527, 
146, 268, 122, -207, 12, 195, -204, -1454, -73, 234, -73, -507, 
156, 278, 122, -217, 17, 200, -234, -1473, -73, 244, -63, -497, 
185, 292, 107, -239, 39, 200, -219, -1503, -68, 253, -53, -473, 
204, 307, 102, -256, 51, 204, -209, -1522, -68, 263, -43, -463, 
214, 307, 92, -261, 61, 200, -161, -1522, -68, 268, -34, -448, 
224, 326, 102, -275, 61, 214, -126, -1512, -63, 283, -29, -434, 
214, 307, 92, -261, 61, 200, -185, -1532, -68, 273, -29, -434, 
190, 268, 78, -229, 56, 173, -214, -1542, -73, 268, -24, -429, 
214, 292, 78, -253, 68, 185, -214, -1542, -73, 268, -24, -424, 
239, 312, 73, -275, 82, 192, -204, -1546, -78, 263, -24, -424, 
244, 307, 63, -275, 90, 185, -219, -1546, -78, 258, -34, -429, 
263, 297, 34, -280, 114, 165, -234, -1546, -78, 248, -43, -434, 
248, 287, 39, -268, 104, 163, -239, -1551, -82, 239, -58, -434, 
244, 273, 29, -258, 107, 151, -239, -1532, -92, 219, -73, -453, 
239, 273, 34, -256, 102, 153, -234, -1532, -92, 209, -92, -463, 
234, 239, 4, -236, 114, 122, -214, -1517, -97, 200, -107, -478, 
214, 239, 24, -226, 95, 131, -195, -1507, -107, 175, -122, -497, 
214, 229, 14, -222, 100, 122, -175, -1483, -107, 156, -136, -517, 
185, 219, 34, -202, 75, 126, -146, -1464, -102, 141, -156, -531, 
165, 200, 34, -183, 65, 117, -97, -1444, -107, 122, -185, -546, 
141, 170, 29, -156, 56, 100, -102, -1415, -107, 102, -209, -580, 
122, 165, 43, -143, 39, 104, -102, -1395, -107, 82, -224, -600, 
102, 161, 58, -131, 21, 109, -68, -1366, -107, 78, -234, -614, 
82, 146, 63, -114, 9, 104, -43, -1342, -107, 68, -244, -619, 
63, 131, 68, -97, -2, 100, -39, -1312, -112, 43, -263, -644, 
58, 117, 58, -87, 0, 87, -43, -1293, -102, 34, -283, -653, 
29, 92, 63, -61, -17, 78, -53, -1288, -112, 14, -292, -678, 
14, 68, 53, -41, -19, 61, -58, -1268, -122, 0, -307, -688, 
0, 63, 63, -31, -31, 63, 29, -1259, -126, -4, -312, -688, 
-24, 48, 73, -12, -48, 61, 112, -1254, -136, -14, -326, -697, 
-19, 43, 63, -12, -41, 53, 126, -1229, -146, -29, -341, -707, 
-9, 48, 58, -19, -34, 53, 122, -1229, -161, -29, -351, -702, 
-9, 48, 58, -19, -34, 53, 68, -1229, -161, -34, -351, -717, 
-14, 29, 43, -7, -29, 36, 19, -1234, -161, -39, -351, -717, 
-14, 43, 58, -14, -36, 51, 39, -1239, -161, -39, -346, -717, 
-24, 29, 53, -2, -39, 41, 58, -1239, -161, -39, -351, -722, 
-24, 48, 73, -12, -48, 61, 73, -1234, -156, -39, -351, -722, 
-34, 53, 87, -9, -61, 70, 78, -1239, -151, -39, -346, -717, 
-29, 39, 68, -4, -48, 53, 78, -1239, -151, -39, -346, -717, 
-34, 34, 68, 0, -51, 51, 73, -1244, -151, -39, -346, -717, 
-34, 34, 68, 0, -51, 51, 53, -1249, -151, -39, -346, -712, 
-34, 34, 68, 0, -51, 51, 34, -1249, -151, -34, -341, -707, 
-34, 34, 68, 0, -51, 51, 34, -1254, -146, -34, -341, -702, 
-29, 34, 63, -2, -46, 48, 39, -1249, -146, -29, -341, -697, 
-24, 39, 63, -7, -43, 51, 58, -1254, -146, -29, -336, -692, 
-19, 53, 73, -17, -46, 63, 73, -1259, -151, -24, -336, -688, 
-19, 39, 58, -9, -39, 48, 48, -1263, -146, -24, -336, -683, 
-19, 34, 53, -7, -36, 43, 14, -1268, -151, -24, -326, -683, 
-29, 24, 53, 2, -41, 39, 63, -1268, -141, -24, -326, -683, 
-39, 14, 53, 12, -46, 34, 112, -1268, -136, -24, -331, -683, 
-29, 39, 68, -4, -48, 53, 112, -1268, -136, -19, -322, -678, 
-19, 53, 73, -17, -46, 63, 102, -1268, -131, -19, -322, -678, 
-19, 43, 63, -12, -41, 53, 68, -1268, -126, -14, -322, -678, 
-14, 34, 48, -9, -31, 41, 29, -1268, -131, -14, -322, -668, 
-4, 48, 53, -21, -29, 51, 43, -1278, -122, -9, -312, -663, 
9, 48, 39, -29, -14, 43, 73, -1283, -117, -9, -312, -653, 
4, 68, 63, -36, -29, 65, 73, -1283, -107, -4, -302, -644, 
-9, 68, 78, -29, -43, 73, 73, -1273, -107, 0, -292, -634, 
-19, 68, 87, -24, -53, 78, 78, -1263, -92, 9, -283, -624, 
-4, 97, 102, -46, -53, 100, 78, -1263, -82, 19, -273, -605, 
0, 107, 107, -53, -53, 107, 53, -1249, -68, 29, -268, -600, 
9, 117, 107, -63, -48, 112, 29, -1239, -58, 39, -263, -595, 
14, 117, 102, -65, -43, 109, 58, -1239, -53, 39, -258, -595, 
19, 117, 97, -68, -39, 107, 87, -1239, -48, 39, -253, -595, 
39, 117, 78, -78, -19, 97, 73, -1249, -48, 39, -253, -585, 
43, 112, 68, -78, -12, 90, 34, -1273, -43, 39, -253, -575, 
48, 112, 63, -80, -7, 87, 0, -1302, -43, 39, -253, -570, 
39, 107, 68, -73, -14, 87, -58, -1332, -53, 34, -253, -570, 
39, 112, 73, -75, -17, 92, -58, -1332, -53, 39, -248, -570, 
34, 117, 82, -75, -24, 100, -58, -1337, -53, 39, -248, -570, 
34, 102, 68, -68, -17, 85, -9, -1337, -58, 34, -253, -580, 
34, 97, 63, -65, -14, 80, 48, -1337, -68, 29, -258, -585, 
39, 82, 43, -61, -2, 63, 63, -1337, -92, 9, -263, -585, 
43, 63, 19, -53, 12, 41, 63, -1342, -112, -9, -278, -590, 
43, 43, 0, -43, 21, 21, 0, -1356, -126, -19, -287, -595, 
39, 24, -14, -31, 26, 4, -43, -1366, -136, -34, -297, -605, 
34, 19, -14, -26, 24, 2, -29, -1366, -141, -34, -297, -605, 
19, 14, -4, -17, 12, 4, -14, -1361, -141, -34, -297, -600, 
9, 14, 4, -12, 2, 9, 0, -1351, -136, -34, -297, -590, 
0, 14, 14, -7, -7, 14, 29, -1337, -136, -34, -297, -595, 
-9, 9, 19, 0, -14, 14, 43, -1332, -126, -34, -292, -605, 
-24, -4, 19, 14, -21, 7, 48, -1327, -126, -34, -292, -614, 
-29, 9, 39, 9, -34, 24, 53, -1327, -122, -29, -292, -614, 
-34, 4, 39, 14, -36, 21, 63, -1322, -122, -39, -302, -614, 
-34, 4, 39, 14, -36, 21, 63, -1322, -122, -43, -302, -614, 
-34, 4, 39, 14, -36, 21, 68, -1322, -122, -43, -307, -614, 
-48, -14, 34, 31, -41, 9, 63, -1322, -122, -53, -307, -614, 
-68, -34, 34, 51, -51, 0, 73, -1322, -122, -63, -307, -614, 
-53, -14, 39, 34, -46, 12, 73, -1327, -117, -63, -307, -605, 
-39, 9, 48, 14, -43, 29, 68, -1332, -117, -63, -307, -600, 
-39, 9, 48, 14, -43, 29, 48, -1332, -117, -63, -302, -600, 
-39, 9, 48, 14, -43, 29, 29, -1327, -112, -63, -302, -600, 
-48, 4, 53, 21, -51, 29, 29, -1327, -112, -63, -302, -605, 
-48, -4, 43, 26, -46, 19, 53, -1322, -107, -58, -297, -600, 
-48, 14, 63, 17, -56, 39, 78, -1322, -107, -58, -297, -610, 
-24, 39, 63, -7, -43, 51, 92, -1322, -107, -63, -302, -610, 
-39, 14, 53, 12, -46, 34, 73, -1332, -107, -63, -312, -610, 
-58, -14, 43, 36, -51, 14, 58, -1337, -107, -58, -317, -610, 
-53, 0, 53, 26, -53, 26, 63, -1337, -102, -63, -307, -605, 
-53, 24, 78, 14, -65, 51, 63, -1337, -92, -63, -302, -590, 
-63, 19, 82, 21, -73, 51, 73, -1327, -82, -48, -297, -585, 
-82, 24, 107, 29, -95, 65, 73, -1332, -68, -29, -283, -580, 
-92, 48, 141, 21, -117, 95, 87, -1346, -58, -9, -258, -551, 
-107, 97, 204, 4, -156, 151, 102, -1361, -19, 39, -204, -512, 
-107, 200, 307, -46, -207, 253, 73, -1376, 92, 185, -58, -400, 
-68, 322, 390, -126, -229, 356, 9, -1400, 273, 385, 131, -229, 
19, 463, 444, -241, -212, 453, -39, -1424, 463, 610, 346, -68, 
102, 546, 444, -324, -170, 495, -73, -1424, 580, 756, 473, 39, 
180, 600, 419, -390, -119, 509, -92, -1415, 668, 863, 580, 126, 
278, 453, 175, -366, 51, 314, -58, -1317, 458, 600, 356, -24, 
336, -92, -429, -122, 383, -261, 4, -1171, -283, -258, -395, -512, 
380, -531, -912, 75, 646, -722, 48, -1073, -819, -854, -936, -946, 
409, -766, -1176, 178, 793, -971, 68, -1029, -1024, -1093, -1171, -1166, 
439, -1000, -1439, 280, 939, -1220, 112, -912, -1185, -1293, -1381, -1356, 
409, -1263, -1673, 427, 1041, -1468, 146, -761, -1400, -1561, -1625, -1581, 
385, -1449, -1834, 531, 1110, -1642, 175, -727, -1590, -1747, -1810, -1747, 
317, -1522, -1839, 602, 1078, -1681, 234, -707, -1639, -1790, -1893, -1854, 
268, -1512, -1781, 622, 1024, -1647, 258, -663, -1600, -1786, -1883, -1859, 
234, -1464, -1698, 614, 966, -1581, 283, -668, -1546, -1703, -1820, -1839, 
195, -1400, -1595, 602, 895, -1498, 326, -697, -1498, -1629, -1761, -1820, 
102, -1220, -1322, 558, 712, -1271, 322, -746, -1302, -1439, -1610, -1693, 
-4, -1044, -1039, 524, 517, -1041, 341, -766, -1107, -1259, -1434, -1551, 
-97, -917, -819, 507, 361, -868, 375, -702, -971, -1117, -1327, -1478, 
-165, -805, -639, 485, 236, -722, 429, -653, -834, -980, -1220, -1415, 
-239, -629, -390, 434, 75, -509, 531, -536, -614, -790, -1039, -1283, 
-297, -502, -204, 400, -46, -353, 629, -453, -468, -639, -888, -1161, 
-297, -429, -131, 363, -82, -280, 673, -341, -424, -566, -824, -1102, 
-312, -385, -73, 348, -119, -229, 717, -263, -380, -507, -771, -1073, 
-341, -312, 29, 326, -185, -141, 741, -234, -317, -424, -702, -995, 
-341, -224, 117, 283, -229, -53, 746, -234, -258, -346, -610, -907, 
-351, -204, 146, 278, -248, -29, 727, -336, -258, -326, -600, -893, 
-346, -180, 165, 263, -256, -7, 702, -448, -244, -292, -575, -893, 
-331, -126, 204, 229, -268, 39, 644, -585, -224, -234, -507, -844, 
-312, -78, 234, 195, -273, 78, 595, -673, -209, -195, -473, -795, 
-248, -48, 200, 148, -224, 75, 517, -756, -200, -195, -463, -780, 
-195, -34, 161, 114, -178, 63, 424, -873, -195, -175, -444, -756, 
-170, -19, 151, 95, -161, 65, 346, -956, -180, -131, -395, -717, 
-141, 9, 151, 65, -146, 80, 278, -1015, -170, -92, -361, -673, 
-102, 39, 141, 31, -122, 90, 180, -1132, -156, -73, -341, -653, 
-73, 68, 141, 2, -107, 104, 92, -1249, -146, -53, -326, -644, 
-39, 107, 146, -34, -92, 126, 73, -1268, -122, -24, -292, -624, 
-19, 131, 151, -56, -85, 141, 29, -1273, -97, 4, -268, -605, 
-4, 141, 146, -68, -75, 143, 43, -1298, -97, 14, -258, -600, 
-4, 146, 151, -70, -78, 148, 48, -1322, -97, 19, -253, -595, 
-9, 146, 156, -68, -82, 151, 34, -1342, -97, 14, -258, -595, 
-9, 141, 151, -65, -80, 146, 29, -1351, -97, 14, -258, -595, 
-4, 151, 156, -73, -80, 153, -14, -1361, -92, 24, -253, -585, 
-4, 151, 156, -73, -80, 153, -68, -1371, -92, 24, -248, -585, 
4, 175, 170, -90, -82, 173, -53, -1381, -92, 29, -244, -585, 
14, 190, 175, -102, -80, 183, -34, -1390, -87, 34, -239, -575, 
14, 195, 180, -104, -82, 187, -43, -1395, -82, 39, -234, -575, 
19, 200, 180, -109, -80, 190, -29, -1395, -78, 43, -229, -570, 
19, 200, 180, -109, -80, 190, -43, -1400, -87, 43, -229, -580, 
14, 175, 161, -95, -73, 168, -58, -1400, -97, 43, -234, -585, 
24, 195, 170, -109, -73, 183, -48, -1400, -97, 43, -224, -585, 
24, 200, 175, -112, -75, 187, -29, -1410, -97, 48, -219, -580, 
24, 214, 190, -119, -82, 202, -14, -1415, -92, 58, -214, -580, 
29, 229, 200, -129, -85, 214, 4, -1434, -82, 68, -200, -575, 
48, 244, 195, -146, -73, 219, -4, -1434, -82, 73, -190, -570, 
48, 244, 195, -146, -73, 219, -24, -1429, -82, 78, -190, -566, 
48, 239, 190, -143, -70, 214, -29, -1439, -78, 82, -185, -566, 
58, 248, 190, -153, -65, 219, -39, -1444, -73, 92, -175, -556, 
63, 244, 180, -153, -58, 212, -92, -1459, -68, 102, -165, -556, 
73, 248, 175, -161, -51, 212, -136, -1468, -63, 112, -156, -541, 
97, 297, 200, -197, -51, 248, -126, -1473, -48, 151, -131, -512, 
122, 331, 209, -226, -43, 270, -107, -1488, -39, 165, -117, -492, 
112, 317, 204, -214, -46, 261, -102, -1512, -29, 165, -97, -483, 
112, 317, 204, -214, -46, 261, -92, -1527, -24, 170, -87, -478, 
136, 331, 195, -234, -29, 263, -136, -1532, -19, 180, -73, -463, 
146, 356, 209, -251, -31, 283, -165, -1542, -14, 195, -53, -439, 
151, 356, 204, -253, -26, 280, -180, -1546, -14, 204, -43, -424, 
156, 356, 200, -256, -21, 278, -195, -1551, -14, 214, -34, -419, 
170, 361, 190, -265, -9, 275, -180, -1571, -9, 219, -24, -400, 
175, 366, 190, -270, -7, 278, -170, -1581, -9, 224, -14, -395, 
185, 366, 180, -275, 2, 273, -180, -1590, -9, 234, 4, -380, 
195, 385, 190, -290, 2, 287, -204, -1590, -4, 253, 19, -366, 
214, 400, 185, -307, 14, 292, -239, -1600, -4, 253, 19, -366, 
219, 395, 175, -307, 21, 285, -244, -1600, -4, 258, 24, -361, 
224, 395, 170, -309, 26, 283, -258, -1600, -9, 253, 24, -356, 
229, 390, 161, -309, 34, 275, -263, -1605, -19, 244, 24, -356, 
234, 385, 151, -309, 41, 268, -248, -1600, -24, 239, 14, -366, 
253, 375, 122, -314, 65, 248, -234, -1595, -29, 229, 4, -375, 
244, 361, 117, -302, 63, 239, -204, -1595, -34, 219, -14, -380, 
244, 341, 97, -292, 73, 219, -170, -1571, -43, 200, -34, -405, 
239, 361, 122, -300, 58, 241, -175, -1571, -39, 190, -53, -419, 
234, 346, 112, -290, 61, 229, -165, -1556, -39, 180, -68, -439, 
204, 331, 126, -268, 39, 229, -175, -1546, -53, 156, -92, -473, 
195, 307, 112, -251, 41, 209, -185, -1522, -58, 136, -117, -507, 
175, 287, 112, -231, 31, 200, -190, -1503, -63, 112, -141, -527, 
165, 258, 92, -212, 36, 175, -175, -1483, -78, 82, -175, -546, 
141, 248, 107, -195, 17, 178, -131, -1444, -78, 73, -200, -580, 
122, 263, 141, -192, -9, 202, -82, -1415, -78, 63, -214, -600, 
97, 253, 156, -175, -29, 204, -63, -1385, -73, 53, -229, -624, 
73, 234, 161, -153, -43, 197, -53, -1361, -68, 39, -244, -639, 
53, 224, 170, -139, -58, 197, -29, -1332, -82, 14, -268, -668, 
48, 214, 165, -131, -58, 190, -14, -1312, -82, 4, -292, -683, 
24, 200, 175, -112, -75, 187, -14, -1307, -92, -14, -302, -707, 
14, 185, 170, -100, -78, 178, -9, -1288, -102, -29, -317, -717, 
9, 185, 175, -97, -82, 180, -14, -1273, -102, -34, -322, -722, 
-4, 175, 180, -85, -92, 178, -24, -1263, -107, -43, -336, -736, 
-14, 165, 180, -75, -97, 173, 34, -1234, -107, -63, -351, -751, 
-19, 165, 185, -73, -102, 175, 73, -1229, -112, -68, -361, -751, 
-14, 165, 180, -75, -97, 173, 63, -1220, -117, -73, -366, -766, 
-14, 146, 161, -65, -87, 153, 58, -1215, -122, -78, -370, -766, 
-14, 161, 175, -73, -95, 168, 73, -1220, -122, -82, -370, -771, 
-24, 146, 170, -61, -97, 158, 87, -1220, -122, -87, -380, -780, 
-34, 146, 180, -56, -107, 163, 82, -1210, -131, -87, -390, -785, 
-53, 131, 185, -39, -119, 158, 68, -1210, -141, -87, -395, -785, 
-24, 131, 156, -53, -90, 143, 68, -1200, -141, -87, -395, -785, 
-4, 141, 146, -68, -75, 143, 63, -1195, -141, -87, -395, -785, 
-14, 136, 151, -61, -82, 143, 68, -1195, -141, -87, -395, -780, 
-24, 131, 156, -53, -90, 143, 73, -1190, -141, -82, -390, -775, 
-39, 131, 170, -46, -104, 151, 73, -1195, -141, -87, -395, -780, 
-48, 131, 180, -41, -114, 156, 78, -1190, -146, -87, -400, -785, 
-43, 136, 180, -46, -112, 158, 78, -1195, -141, -87, -395, -785, 
-39, 151, 190, -56, -114, 170, 73, -1200, -141, -82, -395, -785, 
-19, 151, 170, -65, -95, 161, 48, -1200, -131, -82, -400, -780, 
0, 161, 161, -80, -80, 161, 14, -1200, -131, -82, -395, -780, 
-9, 161, 170, -75, -90, 165, 14, -1200, -131, -82, -395, -790, 
-19, 161, 180, -70, -100, 170, 14, -1200, -136, -82, -400, -800, 
-24, 170, 195, -73, -109, 183, 39, -1200, -136, -78, -390, -795, 
-29, 170, 200, -70, -114, 185, 53, -1200, -131, -78, -390, -795, 
-29, 170, 200, -70, -114, 185, 58, -1195, -126, -73, -390, -795, 
-24, 170, 195, -73, -109, 183, 58, -1190, -131, -73, -390, -785, 
-24, 170, 195, -73, -109, 183, 24, -1195, -131, -68, -385, -790, 
-19, 156, 175, -68, -97, 165, 4, -1195, -136, -68, -390, -790, 
0, 204, 204, -102, -102, 204, 29, -1195, -117, -63, -380, -790, 
9, 234, 224, -122, -107, 229, 53, -1180, -102, -53, -366, -790, 
14, 253, 239, -134, -112, 246, 58, -1166, -87, -39, -356, -775, 
19, 273, 253, -146, -117, 263, 63, -1151, -73, -29, -351, -761, 
14, 258, 244, -136, -114, 251, 68, -1146, -73, -24, -351, -761, 
9, 244, 234, -126, -112, 239, 78, -1141, -78, -19, -351, -761, 
9, 244, 234, -126, -112, 239, 68, -1146, -78, -19, -351, -761, 
9, 244, 234, -126, -112, 239, 58, -1151, -78, -19, -351, -761, 
19, 248, 229, -134, -104, 239, 4, -1176, -78, -14, -351, -761, 
24, 253, 229, -139, -102, 241, -19, -1200, -82, -9, -346, -756, 
34, 258, 224, -146, -95, 241, -43, -1224, -92, -9, -346, -751, 
39, 268, 229, -153, -95, 248, -19, -1224, -97, -9, -341, -746, 
34, 263, 229, -148, -97, 246, -14, -1220, -107, -19, -346, -746, 
34, 248, 214, -141, -90, 231, -19, -1210, -117, -24, -351, -756, 
34, 239, 204, -136, -85, 222, -19, -1205, -126, -29, -356, -761, 
34, 219, 185, -126, -75, 202, -4, -1200, -146, -39, -361, -761, 
29, 180, 151, -104, -61, 165, 0, -1205, -161, -48, -380, -771, 
24, 146, 122, -85, -48, 134, -4, -1210, -175, -58, -390, -775, 
19, 141, 122, -80, -51, 131, 4, -1210, -185, -73, -395, -780, 
19, 146, 126, -82, -53, 136, 4, -1210, -190, -73, -395, -780, 
9, 151, 141, -80, -65, 146, -14, -1205, -190, -68, -395, -775, 
0, 161, 161, -80, -80, 161, -19, -1200, -185, -63, -395, -775, 
-9, 161, 170, -75, -90, 165, 34, -1171, -185, -63, -400, -790, 
-19, 156, 175, -68, -97, 165, 68, -1151, -175, -63, -405, -800, 
-34, 136, 170, -51, -102, 153, 68, -1151, -180, -68, -414, -814, 
-39, 131, 170, -46, -104, 151, 63, -1151, -185, -73, -419, -819, 
-43, 112, 156, -34, -100, 134, 29, -1146, -190, -87, -429, -824, 
-43, 112, 156, -34, -100, 134, -4, -1146, -190, -92, -429, -829, 
-43, 112, 156, -34, -100, 134, 9, -1146, -190, -92, -434, -834, 
-43, 112, 156, -34, -100, 134, 19, -1141, -190, -92, -434, -839, 
-48, 112, 161, -31, -104, 136, 63, -1132, -195, -92, -439, -839, 
-48, 102, 151, -26, -100, 126, 92, -1127, -195, -92, -444, -839, 
-48, 102, 151, -26, -100, 126, 68, -1127, -195, -92, -444, -844, 
-48, 107, 156, -29, -102, 131, 48, -1127, -195, -92, -439, -844, 
-39, 107, 146, -34, -92, 126, 34, -1122, -190, -92, -439, -844, 
-29, 112, 141, -41, -85, 126, 4, -1122, -190, -92, -439, -844, 
-34, 107, 141, -36, -87, 124, 29, -1117, -185, -87, -439, -839, 
-73, 97, 170, -12, -122, 134, 53, -1117, -185, -87, -444, -854, 
-73, 97, 170, -12, -122, 134, 82, -1117, -185, -92, -448, -854, 
-68, 97, 165, -14, -117, 131, 107, -1117, -185, -92, -448, -854, 
-58, 102, 161, -21, -109, 131, 92, -1102, -185, -82, -444, -854, 
-43, 112, 156, -34, -100, 134, 82, -1093, -180, -78, -434, -854, 
-63, 102, 165, -19, -114, 134, 78, -1093, -175, -73, -429, -844, 
-87, 97, 185, -4, -136, 141, 73, -1093, -170, -58, -424, -839, 
-87, 122, 209, -17, -148, 165, 63, -1102, -156, -39, -409, -834, 
-82, 156, 239, -36, -161, 197, 58, -1112, -117, 14, -361, -790, 
-82, 229, 312, -73, -197, 270, 43, -1122, -48, 97, -283, -727, 
-68, 346, 414, -139, -241, 380, 24, -1132, 78, 263, -126, -605, 
-43, 448, 492, -202, -268, 470, -39, -1156, 258, 488, 78, -434, 
29, 546, 517, -287, -244, 531, -97, -1166, 424, 702, 283, -287, 
112, 619, 507, -366, -197, 563, -122, -1166, 546, 854, 409, -175, 
190, 585, 395, -387, -102, 490, -136, -1146, 531, 834, 414, -141, 
287, 336, 48, -312, 119, 192, -73, -1024, 170, 375, 34, -400, 
361, -190, -551, -85, 456, -370, 14, -854, -536, -463, -683, -868, 
419, -600, -1019, 90, 719, -810, 58, -751, -990, -990, -1161, -1249, 
439, -824, -1263, 192, 851, -1044, 102, -702, -1195, -1244, -1420, -1468, 
468, -1073, -1542, 302, 1005, -1307, 165, -570, -1366, -1459, -1644, -1659, 
444, -1307, -1751, 431, 1098, -1529, 204, -448, -1546, -1678, -1854, -1849, 
390, -1468, -1859, 539, 1124, -1664, 244, -434, -1708, -1820, -2005, -1981, 
297, -1542, -1839, 622, 1068, -1690, 287, -424, -1756, -1859, -2074, -2083, 
283, -1483, -1766, 600, 1024, -1625, 278, -380, -1717, -1844, -2049, -2083, 
278, -1381, -1659, 551, 968, -1520, 258, -390, -1644, -1747, -1971, -2044, 
219, -1302, -1522, 541, 871, -1412, 273, -434, -1576, -1659, -1912, -2005, 
112, -1132, -1244, 509, 678, -1188, 278, -483, -1381, -1468, -1776, -1893, 
