I, II, III, aVR, aVL, aVF, V1, V2, V3, V4, V5, V6, 
-156, -19, 136, 87, -146, 58, 136, 126, 156, 48, -9, -58, 
-156, -19, 136, 87, -146, 58, 136, 126, 156, 48, -9, -58, 
-156, -19, 136, 87, -146, 58, 136, 126, 156, 48, -9, -58, 
-156, -19, 136, 87, -146, 58, 136, 126, 156, 48, -9, -58, 
-161, -19, 141, 90, -151, 61, 146, 136, 165, 58, -4, -48, 
-165, -19, 146, 92, -156, 63, 146, 136, 165, 58, 0, -48, 
-170, -19, 151, 95, -161, 65, 146, 136, 165, 58, 4, -48, 
-175, -19, 156, 97, -165, 68, 146, 136, 165, 58, 9, -48, 
-170, -14, 156, 92, -163, 70, 146, 126, 165, 58, 0, -58, 
-165, -9, 156, 87, -161, 73, 146, 126, 165, 58, 0, -58, 
-161, -4, 156, 82, -158, 75, 146, 126, 165, 58, 0, -58, 
-156, 0, 156, 78, -156, 78, 146, 126, 165, 58, 0, -58, 
-156, 0, 156, 78, -156, 78, 146, 126, 165, 48, -9, -58, 
-156, 0, 156, 78, -156, 78, 146, 126, 165, 48, -9, -58, 
-156, 0, 156, 78, -156, 78, 146, 126, 165, 48, -9, -58, 
-156, 0, 156, 78, -156, 78, 146, 126, 165, 48, -9, -58, 
-156, -9, 146, 82, -151, 68, 146, 126, 165, 48, -9, -68, 
-156, -9, 146, 82, -151, 68, 146, 126, 165, 48, -9, -68, 
-156, -9, 146, 82, -151, 68, 146, 126, 165, 48, -9, -68, 
-156, -9, 146, 82, -151, 68, 146, 126, 165, 48, -9, -68, 
-165, 0, 165, 82, -165, 82, 146, 117, 165, 58, -9, -58, 
-165, 0, 165, 82, -165, 82, 146, 117, 165, 58, -9, -58, 
-165, 0, 165, 82, -165, 82, 146, 117, 165, 58, -9, -58, 
-165, 0, 165, 82, -165, 82, 146, 117, 165, 58, -9, -58, 
-165, 0, 165, 82, -165, 82, 136, 117, 165, 43, -14, -63, 
-165, 0, 165, 82, -165, 82, 136, 117, 165, 39, -19, -68, 
-165, 0, 165, 82, -165, 82, 136, 117, 165, 34, -24, -73, 
-165, 0, 165, 82, -165, 82, 136, 117, 165, 29, -29, -78, 
-175, -4, 170, 90, -173, 82, 141, 126, 175, 34, -29, -68, 
-175, -9, 165, 92, -170, 78, 146, 126, 175, 39, -29, -68, 
-175, -14, 161, 95, -168, 73, 151, 126, 175, 43, -29, -68, 
-175, -19, 156, 97, -165, 68, 156, 126, 175, 48, -29, -68, 
-165, -9, 156, 87, -161, 73, 151, 117, 165, 43, -39, -73, 
-165, -9, 156, 87, -161, 73, 146, 117, 165, 39, -39, -78, 
-165, -9, 156, 87, -161, 73, 141, 117, 165, 34, -39, -82, 
-165, -9, 156, 87, -161, 73, 136, 117, 165, 29, -39, -87, 
-156, -9, 146, 82, -151, 68, 136, 107, 165, 29, -48, -87, 
-156, -9, 146, 82, -151, 68, 136, 107, 165, 29, -48, -87, 
-156, -9, 146, 82, -151, 68, 136, 107, 165, 29, -48, -87, 
-156, -9, 146, 82, -151, 68, 136, 107, 165, 29, -48, -87, 
-170, -9, 161, 90, -165, 75, 136, 107, 165, 19, -58, -97, 
-175, -9, 165, 92, -170, 78, 136, 107, 165, 19, -58, -97, 
-180, -9, 170, 95, -175, 80, 136, 107, 165, 19, -58, -97, 
-185, -9, 175, 97, -180, 82, 136, 107, 165, 19, -58, -97, 
-190, -19, 170, 104, -180, 75, 141, 117, 175, 19, -68, -97, 
-195, -19, 175, 107, -185, 78, 146, 117, 175, 19, -68, -97, 
-200, -19, 180, 109, -190, 80, 151, 117, 175, 19, -68, -97, 
-204, -19, 185, 112, -195, 82, 156, 117, 175, 19, -68, -97, 
-195, -19, 175, 107, -185, 78, 146, 117, 175, 19, -68, -102, 
-195, -19, 175, 107, -185, 78, 146, 117, 175, 19, -68, -107, 
-195, -19, 175, 107, -185, 78, 146, 117, 175, 19, -68, -112, 
-195, -19, 175, 107, -185, 78, 146, 117, 175, 19, -68, -117, 
-204, -19, 185, 112, -195, 82, 156, 107, 175, 14, -73, -122, 
-204, -19, 185, 112, -195, 82, 156, 107, 175, 9, -78, -126, 
-204, -19, 185, 112, -195, 82, 156, 107, 175, 4, -82, -131, 
-204, -19, 185, 112, -195, 82, 156, 107, 175, 0, -87, -136, 
-219, -29, 190, 124, -204, 80, 165, 112, 185, -4, -102, -146, 
-224, -29, 195, 126, -209, 82, 165, 117, 185, -9, -107, -146, 
-229, -29, 200, 129, -214, 85, 165, 122, 185, -14, -112, -146, 
-234, -29, 204, 131, -219, 87, 165, 126, 185, -19, -117, -146, 
-244, -34, 209, 139, -226, 87, 170, 126, 195, -29, -122, -156, 
-244, -39, 204, 141, -224, 82, 175, 126, 195, -29, -126, -165, 
-244, -43, 200, 143, -222, 78, 180, 126, 195, -29, -131, -175, 
-244, -48, 195, 146, -219, 73, 185, 126, 195, -29, -136, -185, 
-258, -58, 200, 158, -229, 70, 190, 136, 204, -34, -151, -200, 
-263, -58, 204, 161, -234, 73, 195, 136, 204, -39, -156, -204, 
-268, -58, 209, 163, -239, 75, 200, 136, 204, -43, -161, -209, 
-273, -58, 214, 165, -244, 78, 204, 136, 204, -48, -165, -214, 
-292, -63, 229, 178, -261, 82, 219, 151, 219, -58, -180, -229, 
-302, -68, 234, 185, -268, 82, 224, 156, 224, -58, -185, -234, 
-312, -73, 239, 192, -275, 82, 229, 161, 229, -58, -190, -239, 
-322, -78, 244, 200, -283, 82, 234, 165, 234, -58, -195, -244, 
-341, -87, 253, 214, -297, 82, 244, 175, 244, -48, -204, -248, 
-351, -87, 263, 219, -307, 87, 253, 185, 253, -48, -204, -253, 
-361, -87, 273, 224, -317, 92, 263, 195, 263, -48, -204, -258, 
-370, -87, 283, 229, -326, 97, 273, 204, 273, -48, -204, -263, 
-390, -97, 292, 244, -341, 97, 292, 219, 287, -43, -214, -278, 
-400, -97, 302, 248, -351, 102, 302, 234, 302, -39, -214, -283, 
-409, -97, 312, 253, -361, 107, 312, 248, 317, -34, -214, -287, 
-419, -97, 322, 258, -370, 112, 322, 263, 331, -29, -214, -292, 
-424, -92, 331, 258, -378, 119, 336, 273, 351, -19, -214, -297, 
-429, -87, 341, 258, -385, 126, 341, 283, 361, -19, -214, -302, 
-434, -82, 351, 258, -392, 134, 346, 292, 370, -19, -214, -307, 
-439, -78, 361, 258, -400, 141, 351, 302, 380, -19, -214, -312, 
-453, -68, 385, 261, -419, 158, 366, 322, 400, -14, -204, -302, 
-458, -68, 390, 263, -424, 161, 370, 331, 409, -9, -204, -302, 
-463, -68, 395, 265, -429, 163, 375, 341, 419, -4, -204, -302, 
-468, -68, 400, 268, -434, 165, 380, 351, 429, 0, -204, -302, 
-463, -48, 414, 256, -439, 183, 390, 361, 448, 19, -185, -292, 
-458, -39, 419, 248, -439, 190, 390, 370, 458, 29, -175, -283, 
-453, -29, 424, 241, -439, 197, 390, 380, 468, 39, -165, -273, 
-448, -19, 429, 234, -439, 204, 390, 390, 478, 48, -156, -263, 
-444, -9, 434, 226, -439, 212, 380, 405, 483, 73, -136, -248, 
-439, 0, 439, 219, -439, 219, 380, 409, 488, 87, -117, -234, 
-434, 9, 444, 212, -439, 226, 380, 414, 492, 102, -97, -219, 
-429, 19, 448, 204, -439, 234, 380, 419, 497, 117, -78, -204, 
-414, 34, 448, 190, -431, 241, 361, 409, 488, 136, -63, -190, 
-400, 48, 448, 175, -424, 248, 351, 409, 488, 146, -48, -175, 
-385, 63, 448, 161, -417, 256, 341, 409, 488, 156, -34, -161, 
-370, 78, 448, 146, -409, 263, 331, 409, 488, 165, -19, -146, 
-341, 87, 429, 126, -385, 258, 312, 405, 473, 180, -4, -122, 
-322, 97, 419, 112, -370, 258, 302, 400, 468, 185, 9, -107, 
-302, 107, 409, 97, -356, 258, 292, 395, 463, 190, 24, -92, 
-283, 117, 400, 82, -341, 258, 283, 390, 458, 195, 39, -78, 
-253, 131, 385, 61, -319, 258, 258, 380, 439, 200, 48, -63, 
-234, 136, 370, 48, -302, 253, 244, 370, 429, 204, 58, -48, 
-214, 141, 356, 36, -285, 248, 229, 361, 419, 209, 68, -34, 
-195, 146, 341, 24, -268, 244, 214, 351, 409, 214, 78, -19, 
-165, 136, 302, 14, -234, 219, 200, 331, 385, 224, 87, -4, 
-146, 136, 283, 4, -214, 209, 185, 322, 370, 224, 97, 9, 
-126, 136, 263, -4, -195, 200, 170, 312, 356, 224, 107, 24, 
-107, 136, 244, -14, -175, 190, 156, 302, 341, 224, 117, 39, 
-87, 141, 229, -26, -158, 185, 131, 278, 322, 219, 126, 43, 
-68, 146, 214, -39, -141, 180, 117, 263, 302, 214, 126, 48, 
-48, 151, 200, -51, -124, 175, 102, 248, 283, 209, 126, 53, 
-29, 156, 185, -63, -107, 170, 87, 234, 263, 204, 126, 58, 
-9, 151, 161, -70, -85, 156, 78, 224, 239, 200, 126, 63, 
0, 146, 146, -73, -73, 146, 68, 214, 224, 195, 126, 68, 
9, 141, 131, -75, -61, 136, 58, 204, 209, 190, 126, 73, 
19, 136, 117, -78, -48, 126, 48, 195, 195, 185, 126, 78, 
24, 131, 107, -78, -41, 119, 34, 175, 185, 180, 126, 87, 
29, 126, 97, -78, -34, 112, 29, 165, 175, 175, 126, 87, 
34, 122, 87, -78, -26, 104, 24, 156, 165, 170, 126, 87, 
39, 117, 78, -78, -19, 97, 19, 146, 156, 165, 126, 87, 
29, 102, 73, -65, -21, 87, 9, 131, 136, 156, 122, 78, 
29, 97, 68, -63, -19, 82, 9, 126, 126, 146, 117, 78, 
29, 92, 63, -61, -17, 78, 9, 122, 117, 136, 112, 78, 
29, 87, 58, -58, -14, 73, 9, 117, 107, 126, 107, 78, 
39, 78, 39, -58, 0, 58, 4, 107, 97, 122, 97, 68, 
39, 78, 39, -58, 0, 58, 0, 97, 87, 117, 97, 68, 
39, 78, 39, -58, 0, 58, -4, 87, 78, 112, 97, 68, 
39, 78, 39, -58, 0, 58, -9, 78, 68, 107, 97, 68, 
53, 68, 14, -61, 19, 41, -14, 63, 58, 92, 82, 63, 
58, 68, 9, -63, 24, 39, -19, 58, 48, 87, 78, 58, 
63, 68, 4, -65, 29, 36, -24, 53, 39, 82, 73, 53, 
68, 68, 0, -68, 34, 34, -29, 48, 29, 78, 68, 48, 
63, 53, -9, -58, 36, 21, -19, 39, 19, 68, 58, 48, 
58, 48, -9, -53, 34, 19, -19, 39, 19, 68, 58, 48, 
53, 43, -9, -48, 31, 17, -19, 39, 19, 68, 58, 48, 
48, 39, -9, -43, 29, 14, -19, 39, 19, 68, 58, 48, 
39, 29, -9, -34, 24, 9, -19, 29, 19, 58, 48, 39, 
39, 29, -9, -34, 24, 9, -19, 29, 19, 58, 48, 39, 
39, 29, -9, -34, 24, 9, -19, 29, 19, 58, 48, 39, 
39, 29, -9, -34, 24, 9, -19, 29, 19, 58, 48, 39, 
29, 29, 0, -29, 14, 14, -9, 19, 9, 48, 48, 29, 
29, 29, 0, -29, 14, 14, -9, 19, 9, 48, 48, 29, 
29, 29, 0, -29, 14, 14, -9, 19, 9, 48, 48, 29, 
29, 29, 0, -29, 14, 14, -9, 19, 9, 48, 48, 29, 
19, 29, 9, -24, 4, 19, -19, 9, 0, 39, 48, 29, 
19, 29, 9, -24, 4, 19, -19, 9, 0, 39, 48, 29, 
19, 29, 9, -24, 4, 19, -19, 9, 0, 39, 48, 29, 
19, 29, 9, -24, 4, 19, -19, 9, 0, 39, 48, 29, 
29, 19, -9, -24, 19, 4, -19, 9, 0, 29, 39, 29, 
29, 19, -9, -24, 19, 4, -19, 9, 0, 29, 39, 29, 
29, 19, -9, -24, 19, 4, -19, 9, 0, 29, 39, 29, 
29, 19, -9, -24, 19, 4, -19, 9, 0, 29, 39, 29, 
39, 14, -24, -26, 31, -4, -19, 19, 0, 29, 39, 29, 
39, 9, -29, -24, 34, -9, -19, 19, 0, 29, 39, 29, 
39, 4, -34, -21, 36, -14, -19, 19, 0, 29, 39, 29, 
39, 0, -39, -19, 39, -19, -19, 19, 0, 29, 39, 29, 
34, 9, -24, -21, 29, -7, -9, 19, 0, 39, 39, 19, 
29, 9, -19, -19, 24, -4, -9, 19, 0, 39, 39, 19, 
24, 9, -14, -17, 19, -2, -9, 19, 0, 39, 39, 19, 
19, 9, -9, -14, 14, 0, -9, 19, 0, 39, 39, 19, 
19, 9, -9, -14, 14, 0, -19, 9, -9, 34, 29, 19, 
19, 9, -9, -14, 14, 0, -19, 9, -9, 29, 29, 19, 
19, 9, -9, -14, 14, 0, -19, 9, -9, 24, 29, 19, 
19, 9, -9, -14, 14, 0, -19, 9, -9, 19, 29, 19, 
24, 9, -14, -17, 19, -2, -19, 9, -19, 9, 19, 19, 
29, 9, -19, -19, 24, -4, -19, 9, -19, 9, 19, 19, 
34, 9, -24, -21, 29, -7, -19, 9, -19, 9, 19, 19, 
39, 9, -29, -24, 34, -9, -19, 9, -19, 9, 19, 19, 
29, 0, -29, -14, 29, -14, -19, 0, -19, 9, 19, 9, 
29, 0, -29, -14, 29, -14, -19, 0, -19, 9, 19, 9, 
29, 0, -29, -14, 29, -14, -19, 0, -19, 9, 19, 9, 
29, 0, -29, -14, 29, -14, -19, 0, -19, 9, 19, 9, 
24, 0, -24, -12, 24, -12, -19, 0, -19, 9, 19, 9, 
19, 0, -19, -9, 19, -9, -19, 0, -19, 9, 19, 9, 
14, 0, -14, -7, 14, -7, -19, 0, -19, 9, 19, 9, 
9, 0, -9, -4, 9, -4, -19, 0, -19, 9, 19, 9, 
0, 9, 9, -4, -4, 9, -19, 0, -9, 9, 9, 9, 
0, 9, 9, -4, -4, 9, -19, 0, -9, 9, 9, 9, 
0, 9, 9, -4, -4, 9, -19, 0, -9, 9, 9, 9, 
0, 9, 9, -4, -4, 9, -19, 0, -9, 9, 9, 9, 
9, 4, -4, -7, 7, 0, -19, 0, -19, 0, 9, 9, 
9, 0, -9, -4, 9, -4, -19, 0, -19, 0, 9, 9, 
9, -4, -14, -2, 12, -9, -19, 0, -19, 0, 9, 9, 
9, -9, -19, 0, 14, -14, -19, 0, -19, 0, 9, 9, 
9, 0, -9, -4, 9, -4, -19, 0, -19, 0, 9, 9, 
9, 0, -9, -4, 9, -4, -19, 0, -19, 0, 9, 9, 
9, 0, -9, -4, 9, -4, -19, 0, -19, 0, 9, 9, 
9, 0, -9, -4, 9, -4, -19, 0, -19, 0, 9, 9, 
19, -4, -24, -7, 21, -14, -19, -9, -29, -9, 0, 0, 
19, -9, -29, -4, 24, -19, -19, -9, -29, -9, 0, 0, 
19, -14, -34, -2, 26, -24, -19, -9, -29, -9, 0, 0, 
19, -19, -39, 0, 29, -29, -19, -9, -29, -9, 0, 0, 
14, -4, -19, -4, 17, -12, -19, 0, -19, 0, 9, 0, 
9, 0, -9, -4, 9, -4, -19, 0, -19, 0, 9, 0, 
4, 4, 0, -4, 2, 2, -19, 0, -19, 0, 9, 0, 
0, 9, 9, -4, -4, 9, -19, 0, -19, 0, 9, 0, 
0, 0, 0, 0, 0, 0, -9, 0, -9, 0, 0, 0, 
0, 0, 0, 0, 0, 0, -9, 0, -9, 0, 0, 0, 
0, 0, 0, 0, 0, 0, -9, 0, -9, 0, 0, 0, 
0, 0, 0, 0, 0, 0, -9, 0, -9, 0, 0, 0, 
0, 0, 0, 0, 0, 0, -9, 0, -19, 9, 9, 0, 
0, 0, 0, 0, 0, 0, -9, 0, -19, 9, 9, 0, 
0, 0, 0, 0, 0, 0, -9, 0, -19, 9, 9, 0, 
0, 0, 0, 0, 0, 0, -9, 0, -19, 9, 9, 0, 
-9, -4, 4, 7, -7, 0, -9, 9, -19, 0, 9, -9, 
-9, -9, 0, 9, -4, -4, -9, 9, -19, 0, 9, -9, 
-9, -14, -4, 12, -2, -9, -9, 9, -19, 0, 9, -9, 
-9, -19, -9, 14, 0, -14, -9, 9, -19, 0, 9, -9, 
-9, -14, -4, 12, -2, -9, 0, 19, -9, 9, 9, 0, 
-9, -9, 0, 9, -4, -4, 0, 19, -9, 9, 9, 0, 
-9, -4, 4, 7, -7, 0, 0, 19, -9, 9, 9, 0, 
-9, 0, 9, 4, -9, 4, 0, 19, -9, 9, 9, 0, 
-19, -9, 9, 14, -14, 0, 0, 29, 0, 9, 9, 0, 
-19, -9, 9, 14, -14, 0, 0, 29, 0, 9, 9, 0, 
-19, -9, 9, 14, -14, 0, 0, 29, 0, 9, 9, 0, 
-19, -9, 9, 14, -14, 0, 0, 29, 0, 9, 9, 0, 
-29, -9, 19, 19, -24, 4, 9, 39, 0, 19, 19, 0, 
-29, -9, 19, 19, -24, 4, 9, 39, 0, 19, 19, 0, 
-29, -9, 19, 19, -24, 4, 9, 39, 0, 19, 19, 0, 
-29, -9, 19, 19, -24, 4, 9, 39, 0, 19, 19, 0, 
-29, 0, 29, 14, -29, 14, 0, 39, 0, 29, 19, 0, 
-29, 0, 29, 14, -29, 14, 0, 39, 0, 29, 19, 0, 
-29, 0, 29, 14, -29, 14, 0, 39, 0, 29, 19, 0, 
-29, 0, 29, 14, -29, 14, 0, 39, 0, 29, 19, 0, 
-14, 0, 14, 7, -14, 7, 0, 39, 0, 19, 9, -9, 
-9, 0, 9, 4, -9, 4, 0, 39, 0, 19, 9, -9, 
-4, 0, 4, 2, -4, 2, 0, 39, 0, 19, 9, -9, 
0, 0, 0, 0, 0, 0, 0, 39, 0, 19, 9, -9, 
0, -9, -9, 4, 4, -9, 0, 39, 0, 29, 19, -9, 
0, -9, -9, 4, 4, -9, 0, 39, 0, 29, 19, -9, 
0, -9, -9, 4, 4, -9, 0, 39, 0, 29, 19, -9, 
0, -9, -9, 4, 4, -9, 0, 39, 0, 29, 19, -9, 
-9, 0, 9, 4, -9, 4, 0, 48, 0, 29, 19, 0, 
-9, 0, 9, 4, -9, 4, 0, 48, 0, 29, 19, 0, 
-9, 0, 9, 4, -9, 4, 0, 48, 0, 29, 19, 0, 
-9, 0, 9, 4, -9, 4, 0, 48, 0, 29, 19, 0, 
-19, -9, 9, 14, -14, 0, 9, 58, 9, 29, 29, 0, 
-19, -9, 9, 14, -14, 0, 9, 58, 9, 29, 29, 0, 
-19, -9, 9, 14, -14, 0, 9, 58, 9, 29, 29, 0, 
-19, -9, 9, 14, -14, 0, 9, 58, 9, 29, 29, 0, 
-9, 0, 9, 4, -9, 4, 0, 48, 9, 29, 29, 0, 
-9, 0, 9, 4, -9, 4, 0, 48, 9, 29, 29, 0, 
-9, 0, 9, 4, -9, 4, 0, 48, 9, 29, 29, 0, 
-9, 0, 9, 4, -9, 4, 0, 48, 9, 29, 29, 0, 
-9, 0, 9, 4, -9, 4, 0, 48, 9, 39, 39, 0, 
-9, 0, 9, 4, -9, 4, 0, 48, 9, 39, 39, 0, 
-9, 0, 9, 4, -9, 4, 0, 48, 9, 39, 39, 0, 
-9, 0, 9, 4, -9, 4, 0, 48, 9, 39, 39, 0, 
-19, -9, 9, 14, -14, 0, 0, 58, 9, 48, 39, 0, 
-19, -9, 9, 14, -14, 0, 0, 58, 9, 48, 39, 0, 
-19, -9, 9, 14, -14, 0, 0, 58, 9, 48, 39, 0, 
-19, -9, 9, 14, -14, 0, 0, 58, 9, 48, 39, 0, 
-29, 0, 29, 14, -29, 14, 0, 58, 19, 39, 39, 0, 
-29, 0, 29, 14, -29, 14, 0, 58, 19, 39, 39, 0, 
-29, 0, 29, 14, -29, 14, 0, 58, 19, 39, 39, 0, 
-29, 0, 29, 14, -29, 14, 0, 58, 19, 39, 39, 0, 
-24, 4, 29, 9, -26, 17, 0, 48, 9, 39, 39, 0, 
-19, 9, 29, 4, -24, 19, 0, 48, 9, 39, 39, 0, 
-14, 14, 29, 0, -21, 21, 0, 48, 9, 39, 39, 0, 
-9, 19, 29, -4, -19, 24, 0, 48, 9, 39, 39, 0, 
-9, 19, 29, -4, -19, 24, -9, 48, 9, 29, 34, 0, 
-9, 19, 29, -4, -19, 24, -9, 48, 9, 29, 29, 0, 
-9, 19, 29, -4, -19, 24, -9, 48, 9, 29, 24, 0, 
-9, 19, 29, -4, -19, 24, -9, 48, 9, 29, 19, 0, 
0, 4, 4, -2, -2, 4, -9, 39, 0, 29, 19, 0, 
0, 0, 0, 0, 0, 0, -9, 39, 0, 29, 19, 0, 
0, -4, -4, 2, 2, -4, -9, 39, 0, 29, 19, 0, 
0, -9, -9, 4, 4, -9, -9, 39, 0, 29, 19, 0, 
-4, -9, -4, 7, 0, -7, 0, 48, 9, 39, 24, 9, 
-9, -9, 0, 9, -4, -4, 0, 48, 9, 39, 29, 9, 
-14, -9, 4, 12, -9, -2, 0, 48, 9, 39, 34, 9, 
-19, -9, 9, 14, -14, 0, 0, 48, 9, 39, 39, 9, 
-9, -4, 4, 7, -7, 0, 0, 39, 0, 39, 29, 0, 
-9, 0, 9, 4, -9, 4, 0, 39, 0, 39, 29, 0, 
-9, 4, 14, 2, -12, 9, 0, 39, 0, 39, 29, 0, 
-9, 9, 19, 0, -14, 14, 0, 39, 0, 39, 29, 0, 
-9, 19, 29, -4, -19, 24, -9, 39, 0, 39, 29, 0, 
-9, 19, 29, -4, -19, 24, -9, 39, 0, 39, 29, 0, 
-9, 19, 29, -4, -19, 24, -9, 39, 0, 39, 29, 0, 
-9, 19, 29, -4, -19, 24, -9, 39, 0, 39, 29, 0, 
0, 9, 9, -4, -4, 9, -9, 29, 0, 29, 19, 0, 
0, 9, 9, -4, -4, 9, -9, 29, 0, 29, 19, 0, 
0, 9, 9, -4, -4, 9, -9, 29, 0, 29, 19, 0, 
0, 9, 9, -4, -4, 9, -9, 29, 0, 29, 19, 0, 
-9, 0, 9, 4, -9, 4, 0, 39, 9, 34, 24, 9, 
-9, 0, 9, 4, -9, 4, 0, 39, 9, 39, 29, 9, 
-9, 0, 9, 4, -9, 4, 0, 39, 9, 43, 34, 9, 
-9, 0, 9, 4, -9, 4, 0, 39, 9, 48, 39, 9, 
-9, 9, 19, 0, -14, 14, -9, 29, 0, 43, 34, 0, 
-9, 9, 19, 0, -14, 14, -9, 29, 0, 39, 29, 0, 
-9, 9, 19, 0, -14, 14, -9, 29, 0, 34, 24, 0, 
-9, 9, 19, 0, -14, 14, -9, 29, 0, 29, 19, 0, 
-9, 0, 9, 4, -9, 4, 0, 29, 0, 29, 19, 0, 
-9, 0, 9, 4, -9, 4, 0, 29, 0, 29, 19, 0, 
-9, 0, 9, 4, -9, 4, 0, 29, 0, 29, 19, 0, 
-9, 0, 9, 4, -9, 4, 0, 29, 0, 29, 19, 0, 
-19, 4, 24, 7, -21, 14, 0, 39, 0, 29, 29, 9, 
-19, 9, 29, 4, -24, 19, 0, 39, 0, 29, 29, 9, 
-19, 14, 34, 2, -26, 24, 0, 39, 0, 29, 29, 9, 
-19, 19, 39, 0, -29, 29, 0, 39, 0, 29, 29, 9, 
-24, 9, 34, 7, -29, 21, 0, 39, 9, 29, 29, 19, 
-29, 9, 39, 9, -34, 24, 0, 39, 9, 29, 29, 19, 
-34, 9, 43, 12, -39, 26, 0, 39, 9, 29, 29, 19, 
-39, 9, 48, 14, -43, 29, 0, 39, 9, 29, 29, 19, 
-19, 9, 29, 4, -24, 19, -4, 34, 4, 19, 19, 14, 
-9, 9, 19, 0, -14, 14, -9, 29, 0, 19, 19, 9, 
0, 9, 9, -4, -4, 9, -14, 24, -4, 19, 19, 4, 
9, 9, 0, -9, 4, 4, -19, 19, -9, 19, 19, 0, 
4, 0, -4, -2, 4, -2, -9, 29, 0, 29, 29, 9, 
0, 0, 0, 0, 0, 0, -9, 29, 0, 29, 29, 9, 
-4, 0, 4, 2, -4, 2, -9, 29, 0, 29, 29, 9, 
-9, 0, 9, 4, -9, 4, -9, 29, 0, 29, 29, 9, 
-19, 0, 19, 9, -19, 9, -9, 39, 0, 29, 29, 9, 
-19, 0, 19, 9, -19, 9, -9, 39, 0, 29, 29, 9, 
-19, 0, 19, 9, -19, 9, -9, 39, 0, 29, 29, 9, 
-19, 0, 19, 9, -19, 9, -9, 39, 0, 29, 29, 9, 
-14, 9, 24, 2, -19, 17, -9, 29, 0, 29, 29, 9, 
-9, 9, 19, 0, -14, 14, -9, 29, 0, 29, 29, 9, 
-4, 9, 14, -2, -9, 12, -9, 29, 0, 29, 29, 9, 
0, 9, 9, -4, -4, 9, -9, 29, 0, 29, 29, 9, 
-14, 19, 34, -2, -24, 26, -9, 29, 0, 29, 29, 9, 
-19, 19, 39, 0, -29, 29, -9, 29, 0, 29, 29, 9, 
-24, 19, 43, 2, -34, 31, -9, 29, 0, 29, 29, 9, 
-29, 19, 48, 4, -39, 34, -9, 29, 0, 29, 29, 9, 
-14, 9, 24, 2, -19, 17, -9, 29, 0, 29, 29, 9, 
-9, 9, 19, 0, -14, 14, -9, 29, 0, 29, 29, 9, 
-4, 9, 14, -2, -9, 12, -9, 29, 0, 29, 29, 9, 
0, 9, 9, -4, -4, 9, -9, 29, 0, 29, 29, 9, 
0, 9, 9, -4, -4, 9, -9, 39, 9, 29, 29, 9, 
0, 9, 9, -4, -4, 9, -9, 39, 9, 29, 29, 9, 
0, 9, 9, -4, -4, 9, -9, 39, 9, 29, 29, 9, 
0, 9, 9, -4, -4, 9, -9, 39, 9, 29, 29, 9, 
9, 19, 9, -14, 0, 14, -9, 29, 9, 39, 39, 19, 
9, 19, 9, -14, 0, 14, -9, 29, 9, 39, 39, 19, 
9, 19, 9, -14, 0, 14, -9, 29, 9, 39, 39, 19, 
9, 19, 9, -14, 0, 14, -9, 29, 9, 39, 39, 19, 
14, 9, -4, -12, 9, 2, 0, 43, 19, 48, 39, 19, 
19, 9, -9, -14, 14, 0, 0, 48, 19, 48, 43, 24, 
29, 9, -19, -19, 24, -4, 0, 58, 19, 58, 48, 24, 
43, 9, -34, -26, 39, -12, 4, 68, 24, 58, 48, 29, 
58, 19, -39, -39, 48, -9, 9, 82, 34, 58, 58, 39, 
63, 29, -34, -46, 48, -2, 19, 87, 43, 63, 68, 39, 
63, 34, -29, -48, 46, 2, 24, 97, 48, 73, 73, 48, 
63, 39, -24, -51, 43, 7, 29, 97, 68, 82, 78, 53, 
63, 39, -24, -51, 43, 7, 29, 107, 58, 82, 73, 48, 
63, 39, -24, -51, 43, 7, 29, 107, 58, 82, 73, 43, 
58, 34, -24, -46, 41, 4, 29, 107, 58, 82, 73, 39, 
58, 34, -24, -46, 41, 4, 19, 107, 53, 82, 73, 34, 
58, 19, -39, -39, 48, -9, 0, 92, 39, 78, 78, 39, 
53, 9, -43, -31, 48, -17, -34, 58, 14, 63, 63, 34, 
48, -9, -58, -19, 53, -34, -63, 24, -14, 39, 43, 19, 
43, -34, -78, -4, 61, -56, -82, 0, -43, 14, 29, 0, 
34, -63, -97, 14, 65, -80, -97, -19, -68, -9, 0, -14, 
34, -82, -117, 24, 75, -100, -107, -34, -92, -29, -9, -24, 
39, -102, -141, 31, 90, -122, -92, -34, -92, -34, -14, -29, 
48, -102, -151, 26, 100, -126, -92, -24, -92, -39, -24, -29, 
63, -92, -156, 14, 109, -124, -92, -34, -102, -39, -34, -29, 
68, -82, -151, 7, 109, -117, -92, -39, -102, -39, -29, -29, 
92, -68, -161, -12, 126, -114, -92, -39, -102, -29, -24, -29, 
97, -58, -156, -19, 126, -107, -102, -39, -102, -29, -19, -24, 
92, -73, -165, -9, 129, -119, -107, -29, -92, -39, -19, -14, 
97, -78, -175, -9, 136, -126, -107, -29, -92, -39, -24, -14, 
97, -78, -175, -9, 136, -126, -97, -24, -92, -39, -24, -14, 
97, -63, -161, -17, 129, -112, -87, -14, -82, -34, -19, -9, 
107, -43, -151, -31, 129, -97, -78, 0, -68, -9, 0, -4, 
112, -39, -151, -36, 131, -95, -68, 4, -58, 4, 14, 4, 
112, -19, -131, -46, 122, -75, -58, 14, -39, 14, 29, 9, 
112, 4, -107, -58, 109, -51, -53, 19, -29, 24, 39, 29, 
97, 19, -78, -58, 87, -29, -43, 9, -14, 34, 39, 19, 
78, 24, -53, -51, 65, -14, -34, 9, -14, 34, 43, 19, 
68, 29, -39, -48, 53, -4, -34, 9, -9, 34, 43, 19, 
53, 39, -14, -46, 34, 12, -34, 9, -4, 34, 43, 19, 
43, 29, -14, -36, 29, 7, -24, 24, -4, 43, 53, 29, 
19, 19, 0, -19, 9, 9, -19, 24, -4, 34, 43, 19, 
0, 4, 4, -2, -2, 4, -9, 29, -4, 29, 39, 14, 
-9, 0, 9, 4, -9, 4, -4, 29, -4, 29, 34, 9, 
-4, 9, 14, -2, -9, 12, -4, 14, -4, 14, 24, -9, 
-9, 9, 19, 0, -14, 14, -4, 14, -4, 14, 14, -14, 
-19, 4, 24, 7, -21, 14, 0, 14, -4, 14, 9, -14, 
-14, 4, 19, 4, -17, 12, 4, 14, 0, 14, 4, -14, 
-24, 14, 39, 4, -31, 26, 4, 14, 0, 9, 4, -14, 
-29, 14, 43, 7, -36, 29, 4, 14, 4, 9, 19, -9, 
-34, 14, 48, 9, -41, 31, 9, 14, 4, 14, 19, -9, 
-34, 9, 43, 12, -39, 26, 9, 14, 4, 14, 14, -4, 
-24, 9, 34, 7, -29, 21, 0, 14, 0, 9, 14, -4, 
-24, 9, 34, 7, -29, 21, 0, 14, 0, 9, 14, -4, 
-24, 14, 39, 4, -31, 26, 0, 19, 0, 9, 14, -4, 
-24, 14, 39, 4, -31, 26, 0, 19, 0, 14, 14, -9, 
-29, 4, 34, 12, -31, 19, 4, 19, 9, 24, 14, 0, 
-34, 4, 39, 14, -36, 21, 9, 19, 9, 14, 14, 4, 
-34, 4, 39, 14, -36, 21, 14, 19, 9, 24, 14, 4, 
-39, 4, 43, 17, -41, 24, 24, 19, 9, 24, 14, 4, 
-29, 4, 34, 12, -31, 19, 14, 19, 9, 14, 14, -4, 
-39, 4, 43, 17, -41, 24, 14, 19, 9, 14, 14, -4, 
-39, 4, 43, 17, -41, 24, 14, 19, 9, 14, 14, -4, 
-43, 4, 48, 19, -46, 26, 19, 24, 9, 14, 14, -4, 
-53, -4, 48, 29, -51, 21, 19, 24, 9, 24, 14, -4, 
-53, -4, 48, 29, -51, 21, 19, 24, 14, 24, 14, -4, 
-53, -4, 48, 29, -51, 21, 19, 24, 14, 24, 14, -4, 
-53, -4, 48, 29, -51, 21, 19, 24, 14, 24, 14, -4, 
-43, -9, 34, 26, -39, 12, 9, 24, 14, 24, 14, -4, 
-43, -9, 34, 26, -39, 12, 9, 24, 14, 19, 14, -4, 
-43, -4, 39, 24, -41, 17, 14, 24, 14, 19, 14, -4, 
-43, -4, 39, 24, -41, 17, 14, 24, 14, 24, 14, -4, 
-39, 0, 39, 19, -39, 19, 14, 29, 14, 24, 14, -4, 
-34, 4, 39, 14, -36, 21, 14, 29, 19, 24, 14, -4, 
-29, 9, 39, 9, -34, 24, 14, 29, 19, 24, 14, -4, 
-29, 14, 43, 7, -36, 29, 14, 29, 19, 24, 14, -4, 
-43, 4, 48, 19, -46, 26, 19, 29, 19, 24, 24, 4, 
-48, 4, 53, 21, -51, 29, 24, 29, 19, 24, 24, 4, 
-53, 4, 58, 24, -56, 31, 29, 29, 19, 24, 24, 4, 
-48, 4, 53, 21, -51, 29, 29, 29, 14, 24, 24, 9, 
-48, 24, 73, 12, -61, 48, 19, 19, 9, 24, 29, 0, 
-34, 24, 58, 4, -46, 41, 9, 19, 0, 29, 39, 9, 
-39, 48, 87, -4, -63, 68, 0, 0, 0, 43, 53, 14, 
-19, 63, 82, -21, -51, 73, -14, -29, 9, 68, 73, 29, 
4, 87, 82, -46, -39, 85, -48, -82, -9, 97, 102, 63, 
19, 122, 102, -70, -41, 112, -112, -161, -48, 117, 146, 122, 
63, 185, 122, -124, -29, 153, -185, -239, -78, 170, 209, 195, 
136, 278, 141, -207, -2, 209, -248, -278, -68, 268, 317, 292, 
195, 370, 175, -283, 9, 273, -273, -239, 9, 419, 488, 414, 
234, 473, 239, -353, -2, 356, -278, -156, 112, 600, 653, 551, 
239, 570, 331, -405, -46, 451, -278, -92, 209, 771, 800, 668, 
229, 688, 458, -458, -114, 573, -278, -63, 312, 917, 951, 785, 
248, 805, 556, -527, -153, 680, -283, -43, 414, 1054, 1083, 907, 
307, 912, 605, -610, -148, 758, -317, -87, 453, 1122, 1185, 1010, 
405, 1005, 600, -705, -97, 802, -424, -273, 361, 1078, 1205, 1098, 
517, 1083, 566, -800, -24, 824, -595, -590, 122, 912, 1156, 1146, 
668, 1146, 478, -907, 95, 812, -805, -966, -244, 683, 1083, 1195, 
819, 1166, 346, -993, 236, 756, -1005, -1288, -639, 444, 990, 1234, 
932, 1146, 214, -1039, 358, 680, -1176, -1590, -990, 180, 863, 1234, 
1044, 1068, 24, -1056, 509, 546, -1342, -1908, -1337, -131, 688, 1190, 
1234, 941, -292, -1088, 763, 324, -1532, -2230, -1737, -492, 468, 1117, 
1488, 736, -751, -1112, 1119, -7, -1712, -2415, -2103, -829, 234, 995, 
1703, 439, -1263, -1071, 1483, -412, -1795, -2440, -2405, -1141, -39, 800, 
1883, 68, -1815, -976, 1849, -873, -1786, -2381, -2625, -1444, -346, 556, 
2030, -331, -2361, -849, 2196, -1346, -1751, -2332, -2806, -1781, -746, 229, 
2039, -707, -2747, -666, 2393, -1727, -1668, -2313, -2898, -2152, -1229, -175, 
1834, -1015, -2849, -409, 2342, -1932, -1507, -2327, -2913, -2488, -1693, -561, 
1537, -1259, -2796, -139, 2166, -2027, -1366, -2391, -2913, -2771, -2088, -893, 
1312, -1429, -2742, 58, 2027, -2086, -1283, -2410, -2874, -2932, -2342, -1112, 
1176, -1468, -2644, 146, 1910, -2056, -1200, -2293, -2727, -2864, -2347, -1156, 
1058, -1332, -2391, 136, 1725, -1861, -1078, -2039, -2425, -2562, -2098, -1044, 
897, -1102, -2000, 102, 1449, -1551, -922, -1717, -2030, -2122, -1751, -839, 
732, -849, -1581, 58, 1156, -1215, -741, -1356, -1605, -1678, -1366, -600, 
556, -600, -1156, 21, 856, -878, -561, -976, -1195, -1249, -1005, -390, 
375, -375, -751, 0, 563, -563, -375, -653, -814, -863, -692, -248, 
204, -239, -444, 17, 324, -341, -229, -400, -512, -570, -463, -156, 
53, -180, -234, 63, 143, -207, -102, -209, -302, -361, -297, -102, 
-43, -136, -92, 90, 24, -114, -14, -92, -156, -219, -190, -73, 
-82, -82, 0, 82, -41, -41, 43, -29, -53, -136, -122, -58, 
-122, -48, 73, 85, -97, 12, 78, 34, 9, -73, -82, -58, 
-156, -48, 107, 102, -131, 29, 117, 87, 63, -24, -48, -63, 
-151, -48, 102, 100, -126, 26, 131, 112, 97, 9, -39, -73, 
-151, -29, 122, 90, -136, 46, 141, 122, 112, 9, -29, -73, 
-156, -24, 131, 90, -143, 53, 141, 131, 107, 19, -29, -73, 
-161, -24, 136, 92, -148, 56, 141, 131, 117, 19, -29, -73, 
-165, -19, 146, 92, -156, 63, 141, 131, 117, 24, -24, -73, 
-170, -14, 156, 92, -163, 70, 141, 131, 117, 29, -19, -68, 
-170, -14, 156, 92, -163, 70, 141, 131, 126, 29, -19, -68, 
-170, -14, 156, 92, -163, 70, 141, 131, 131, 29, -19, -68, 
-170, -14, 156, 92, -163, 70, 141, 131, 131, 29, -19, -68, 
-170, -9, 161, 90, -165, 75, 141, 131, 131, 29, -14, -68, 
-175, -9, 165, 92, -170, 78, 141, 131, 141, 34, -14, -68, 
-180, -9, 170, 95, -175, 80, 141, 131, 141, 34, -14, -63, 
-185, -9, 175, 97, -180, 82, 141, 131, 141, 34, -14, -63, 
-190, -4, 185, 97, -187, 90, 141, 131, 141, 34, -14, -63, 
-180, 4, 185, 87, -183, 95, 141, 131, 141, 34, -14, -73, 
-180, 4, 185, 87, -183, 95, 141, 131, 141, 34, -9, -73, 
-180, 4, 185, 87, -183, 95, 141, 131, 146, 39, -9, -73, 
-180, 4, 185, 87, -183, 95, 141, 131, 146, 39, -9, -73, 
-175, 0, 175, 87, -175, 87, 131, 122, 146, 39, -19, -63, 
-170, 0, 170, 85, -170, 85, 131, 122, 146, 39, -19, -63, 
-161, 0, 161, 80, -161, 80, 131, 122, 151, 39, -19, -63, 
-156, 4, 161, 75, -158, 82, 131, 122, 151, 34, -19, -63, 
-146, -4, 141, 75, -143, 68, 131, 122, 151, 34, -19, -63, 
-146, 0, 146, 73, -146, 73, 131, 122, 151, 34, -19, -63, 
-146, 0, 146, 73, -146, 73, 131, 117, 151, 34, -19, -63, 
-146, 0, 146, 73, -146, 73, 131, 117, 141, 34, -19, -63, 
-156, 9, 165, 73, -161, 87, 131, 126, 151, 34, -9, -68, 
-156, 9, 165, 73, -161, 87, 131, 126, 151, 34, -9, -68, 
-156, 14, 170, 70, -163, 92, 126, 126, 151, 34, -14, -68, 
-156, 14, 170, 70, -163, 92, 126, 126, 151, 34, -14, -68, 
-170, 0, 170, 85, -170, 85, 141, 126, 156, 24, -29, -68, 
-170, 0, 170, 85, -170, 85, 141, 126, 156, 24, -29, -68, 
-170, 0, 170, 85, -170, 85, 141, 122, 156, 24, -29, -68, 
-170, 0, 170, 85, -170, 85, 141, 122, 156, 19, -34, -73, 
-161, -4, 156, 82, -158, 75, 141, 117, 156, 29, -34, -73, 
-165, -4, 161, 85, -163, 78, 141, 117, 151, 29, -34, -73, 
-165, -4, 161, 85, -163, 78, 141, 117, 151, 29, -34, -73, 
-165, -4, 161, 85, -163, 78, 141, 117, 151, 24, -43, -73, 
-175, -4, 170, 90, -173, 82, 141, 117, 151, 24, -43, -73, 
-175, -4, 170, 90, -173, 82, 141, 117, 151, 24, -48, -78, 
-185, -4, 180, 95, -183, 87, 141, 112, 151, 19, -53, -78, 
-190, -4, 185, 97, -187, 90, 141, 112, 151, 19, -53, -78, 
-190, -9, 180, 100, -185, 85, 141, 102, 151, 14, -58, -78, 
-185, -9, 175, 97, -180, 82, 136, 102, 151, 14, -53, -82, 
-180, -9, 170, 95, -175, 80, 136, 97, 151, 14, -48, -82, 
-175, -4, 170, 90, -173, 82, 136, 97, 151, 14, -48, -92, 
-175, -4, 170, 90, -173, 82, 136, 107, 141, 19, -58, -92, 
-185, -4, 180, 95, -183, 87, 136, 107, 151, 19, -58, -87, 
-190, -4, 185, 97, -187, 90, 136, 102, 151, 19, -58, -87, 
-190, -9, 180, 100, -185, 85, 136, 102, 151, 19, -58, -92, 
-180, -9, 170, 95, -175, 80, 146, 102, 151, 4, -63, -92, 
-180, -9, 170, 95, -175, 80, 146, 102, 151, 4, -63, -92, 
-180, -9, 170, 95, -175, 80, 146, 102, 151, 4, -63, -92, 
-180, -9, 170, 95, -175, 80, 146, 102, 151, 4, -63, -97, 
-190, -4, 185, 97, -187, 90, 141, 107, 151, 14, -73, -97, 
-190, -4, 185, 97, -187, 90, 141, 107, 151, 9, -73, -97, 
-195, -9, 185, 102, -190, 87, 141, 107, 156, 9, -78, -102, 
-200, -14, 185, 107, -192, 85, 141, 102, 156, 4, -82, -112, 
-200, -24, 175, 112, -187, 75, 141, 102, 156, 4, -82, -117, 
-204, -24, 180, 114, -192, 78, 141, 102, 156, 4, -82, -117, 
-204, -24, 180, 114, -192, 78, 141, 102, 156, 4, -82, -117, 
-204, -24, 180, 114, -192, 78, 146, 97, 156, -4, -92, -126, 
-209, -34, 175, 122, -192, 70, 156, 107, 165, 0, -82, -117, 
-209, -29, 180, 119, -195, 75, 156, 107, 165, 0, -87, -122, 
-219, -29, 190, 124, -204, 80, 156, 107, 165, 0, -87, -126, 
-224, -34, 190, 129, -207, 78, 161, 112, 165, 0, -87, -131, 
-234, -24, 209, 129, -222, 92, 151, 112, 161, -19, -107, -146, 
-244, -29, 214, 136, -229, 92, 161, 112, 161, -19, -112, -151, 
-244, -34, 209, 139, -226, 87, 161, 112, 165, -19, -117, -156, 
-244, -34, 209, 139, -226, 87, 165, 112, 165, -19, -117, -161, 
-239, -34, 204, 136, -222, 85, 165, 102, 165, -34, -131, -175, 
-244, -34, 209, 139, -226, 87, 170, 102, 165, -43, -151, -190, 
-244, -43, 200, 143, -222, 78, 175, 112, 170, -48, -156, -190, 
-244, -43, 200, 143, -222, 78, 180, 117, 175, -48, -161, -195, 
-258, -53, 204, 156, -231, 75, 190, 117, 180, -39, -151, -190, 
-278, -58, 219, 168, -248, 80, 195, 117, 180, -48, -161, -204, 
-287, -63, 224, 175, -256, 80, 200, 126, 190, -58, -175, -214, 
-292, -68, 224, 180, -258, 78, 204, 131, 195, -63, -175, -214, 
-307, -82, 224, 195, -265, 70, 209, 141, 209, -53, -170, -229, 
-317, -87, 229, 202, -273, 70, 224, 151, 214, -53, -180, -234, 
-336, -87, 248, 212, -292, 80, 234, 156, 219, -58, -190, -244, 
-341, -87, 253, 214, -297, 82, 239, 161, 234, -58, -195, -253, 
-346, -78, 268, 212, -307, 95, 253, 175, 234, -73, -200, -258, 
-346, -78, 268, 212, -307, 95, 258, 185, 239, -73, -209, -268, 
-356, -87, 268, 222, -312, 90, 273, 200, 253, -73, -214, -278, 
-361, -87, 273, 224, -317, 92, 283, 209, 263, -73, -219, -278, 
-380, -97, 283, 239, -331, 92, 292, 224, 278, -63, -224, -292, 
-390, -97, 292, 244, -341, 97, 302, 229, 287, -63, -229, -302, 
-400, -92, 307, 246, -353, 107, 317, 239, 302, -63, -229, -302, 
-414, -92, 322, 253, -368, 114, 322, 258, 322, -53, -229, -302, 
-414, -87, 326, 251, -370, 119, 331, 278, 346, -39, -224, -302, 
-424, -87, 336, 256, -380, 124, 341, 287, 356, -34, -219, -297, 
-439, -82, 356, 261, -397, 136, 351, 302, 370, -19, -209, -287, 
-448, -78, 370, 263, -409, 146, 361, 317, 390, -9, -195, -283, 
-453, -68, 385, 261, -419, 158, 361, 322, 395, -4, -190, -287, 
-463, -63, 400, 263, -431, 168, 370, 336, 405, 4, -185, -287, 
-473, -58, 414, 265, -444, 178, 370, 346, 419, 24, -180, -278, 
-473, -53, 419, 263, -446, 183, 380, 356, 439, 34, -161, -273, 
-463, -39, 424, 251, -444, 192, 380, 366, 444, 43, -151, -268, 
-463, -24, 439, 244, -451, 207, 380, 375, 453, 53, -146, -263, 
-463, -14, 448, 239, -456, 217, 380, 385, 468, 63, -131, -248, 
-453, 0, 453, 226, -453, 226, 380, 395, 478, 78, -122, -239, 
-448, 19, 468, 214, -458, 244, 370, 400, 473, 92, -102, -229, 
-439, 19, 458, 209, -448, 239, 370, 405, 478, 107, -92, -219, 
-429, 24, 453, 202, -441, 239, 361, 409, 478, 117, -73, -200, 
-409, 24, 434, 192, -422, 229, 351, 414, 478, 131, -58, -180, 
-385, 39, 424, 173, -405, 231, 341, 405, 478, 141, -29, -151, 
-366, 58, 424, 153, -395, 241, 331, 405, 478, 161, -9, -136, 
-341, 78, 419, 131, -380, 248, 322, 405, 478, 175, 4, -122, 
-322, 87, 409, 117, -366, 248, 312, 405, 473, 195, 19, -102, 
-317, 97, 414, 109, -366, 256, 302, 400, 463, 195, 34, -82, 
-292, 107, 400, 92, -346, 253, 283, 395, 463, 200, 48, -63, 
-273, 117, 390, 78, -331, 253, 268, 390, 448, 209, 63, -48, 
-258, 126, 385, 65, -322, 256, 253, 385, 434, 224, 82, -29, 
-234, 131, 366, 51, -300, 248, 239, 361, 414, 214, 82, -19, 
-200, 141, 341, 29, -270, 241, 214, 351, 400, 214, 87, -4, 
-170, 146, 317, 12, -244, 231, 204, 341, 390, 219, 102, 9, 
-141, 156, 297, -7, -219, 226, 190, 331, 370, 219, 102, 19, 
-126, 156, 283, -14, -204, 219, 170, 312, 346, 209, 107, 29, 
-112, 156, 268, -21, -190, 212, 151, 302, 331, 219, 112, 43, 
-92, 161, 253, -34, -173, 207, 136, 287, 317, 219, 122, 48, 
-68, 161, 229, -46, -148, 195, 122, 273, 297, 219, 117, 53, 
-39, 151, 190, -56, -114, 170, 102, 258, 283, 219, 131, 68, 
-24, 146, 170, -61, -97, 158, 87, 244, 268, 214, 136, 73, 
-4, 146, 151, -70, -78, 148, 73, 234, 253, 214, 136, 73, 
9, 146, 136, -78, -63, 141, 58, 219, 229, 204, 136, 78, 
9, 141, 131, -75, -61, 136, 58, 204, 219, 190, 126, 82, 
19, 141, 122, -80, -51, 131, 53, 195, 200, 185, 126, 87, 
29, 131, 102, -80, -36, 117, 39, 180, 190, 175, 126, 87, 
29, 122, 92, -75, -31, 107, 29, 170, 175, 170, 122, 87, 
43, 122, 78, -82, -17, 100, 29, 165, 170, 165, 126, 97, 
53, 112, 58, -82, -2, 85, 24, 161, 156, 165, 126, 97, 
53, 112, 58, -82, -2, 85, 19, 151, 141, 165, 126, 97, 
53, 97, 43, -75, 4, 70, 19, 136, 131, 156, 126, 97, 
53, 92, 39, -73, 7, 65, 9, 126, 117, 146, 117, 87, 
53, 92, 39, -73, 7, 65, 4, 117, 102, 131, 112, 87, 
48, 92, 43, -70, 2, 68, 0, 107, 97, 126, 107, 87, 
48, 82, 34, -65, 7, 58, -4, 102, 92, 126, 102, 87, 
58, 68, 9, -63, 24, 39, 0, 102, 82, 122, 92, 78, 
58, 68, 9, -63, 24, 39, -4, 87, 73, 117, 87, 78, 
58, 68, 9, -63, 24, 39, -9, 78, 63, 107, 87, 68, 
58, 68, 9, -63, 24, 39, -9, 68, 53, 107, 82, 68, 
53, 58, 4, -56, 24, 31, -19, 53, 43, 102, 87, 78, 
53, 58, 4, -56, 24, 31, -19, 53, 43, 92, 87, 68, 
48, 48, 0, -48, 24, 24, -19, 48, 43, 82, 82, 63, 
48, 43, -4, -46, 26, 19, -19, 43, 34, 82, 82, 63, 
43, 43, 0, -43, 21, 21, -19, 48, 39, 82, 82, 53, 
43, 29, -14, -36, 29, 7, -19, 48, 39, 82, 78, 58, 
43, 29, -14, -36, 29, 7, -19, 48, 34, 73, 73, 58, 
43, 29, -14, -36, 29, 7, -19, 43, 29, 63, 68, 48, 
34, 39, 4, -36, 14, 21, -19, 39, 24, 58, 53, 43, 
34, 39, 4, -36, 14, 21, -19, 34, 19, 58, 48, 43, 
39, 29, -9, -34, 24, 9, -24, 34, 19, 63, 48, 39, 
39, 29, -9, -34, 24, 9, -24, 34, 19, 63, 48, 39, 
43, 24, -19, -34, 31, 2, -14, 39, 19, 63, 58, 48, 
39, 24, -14, -31, 26, 4, -14, 39, 19, 58, 58, 48, 
34, 14, -19, -24, 26, -2, -9, 39, 14, 58, 58, 48, 
29, 9, -19, -19, 24, -4, -9, 39, 14, 53, 58, 48, 
19, 0, -19, -9, 19, -9, -19, 29, 9, 48, 53, 34, 
24, 0, -24, -12, 24, -12, -19, 19, 9, 43, 48, 34, 
24, 0, -24, -12, 24, -12, -14, 19, 9, 43, 48, 39, 
24, -4, -29, -9, 26, -17, -14, 19, 9, 43, 48, 39, 
14, -9, -24, -2, 19, -17, -9, 29, 9, 43, 48, 39, 
14, -9, -24, -2, 19, -17, -9, 29, 4, 39, 48, 39, 
14, -9, -24, -2, 19, -17, -9, 29, 0, 39, 43, 34, 
19, -9, -29, -4, 24, -19, -9, 24, 0, 39, 43, 34, 
24, -4, -29, -9, 26, -17, -9, 24, 0, 43, 43, 34, 
24, -4, -29, -9, 26, -17, -9, 24, 0, 43, 43, 34, 
29, -9, -39, -9, 34, -24, -9, 19, 0, 43, 43, 34, 
39, -9, -48, -14, 43, -29, -9, 19, 0, 43, 43, 34, 
39, -9, -48, -14, 43, -29, -19, 9, 0, 34, 43, 34, 
34, -9, -43, -12, 39, -26, -19, 9, 0, 34, 39, 29, 
34, -9, -43, -12, 39, -26, -19, 9, 0, 34, 39, 29, 
34, -9, -43, -12, 39, -26, -19, 9, 0, 29, 39, 29, 
34, -4, -39, -14, 36, -21, -19, 0, -9, 29, 29, 19, 
34, 0, -34, -17, 34, -17, -19, -4, -14, 24, 29, 14, 
34, 9, -24, -21, 29, -7, -24, -4, -14, 24, 24, 14, 
34, 14, -19, -24, 26, -2, -24, -4, -14, 19, 24, 19, 
24, -4, -29, -9, 26, -17, -19, 0, -4, 29, 34, 29, 
24, -14, -39, -4, 31, -26, -14, 4, -4, 29, 29, 29, 
24, -19, -43, -2, 34, -31, -9, 9, -4, 29, 29, 24, 
19, -24, -43, 2, 31, -34, -4, 9, -4, 29, 29, 24, 
29, -19, -48, -4, 39, -34, -14, 0, -4, 19, 29, 24, 
29, -19, -48, -4, 39, -34, -14, 0, -4, 19, 29, 19, 
29, -19, -48, -4, 39, -34, -14, 0, -4, 19, 24, 19, 
29, -19, -48, -4, 39, -34, -14, -9, -4, 14, 24, 19, 
19, -4, -24, -7, 21, -14, -9, 0, -9, 24, 24, 9, 
19, 4, -14, -12, 17, -4, -9, 0, -9, 24, 24, 9, 
19, -9, -29, -4, 24, -19, -9, 0, -9, 19, 24, 9, 
19, -9, -29, -4, 24, -19, -9, 0, -9, 19, 19, 9, 
19, -19, -39, 0, 29, -29, -9, 0, -9, 19, 19, 9, 
14, -19, -34, 2, 24, -26, -9, 0, -9, 19, 19, 14, 
14, -19, -34, 2, 24, -26, -9, 0, -9, 19, 19, 14, 
9, -19, -29, 4, 19, -24, -9, -4, -9, 24, 19, 14, 
19, -29, -48, 4, 34, -39, -9, 4, -9, 24, 19, 14, 
9, -29, -39, 9, 24, -34, -9, 4, -9, 19, 19, 14, 
9, -29, -39, 9, 24, -34, -9, 4, -4, 19, 19, 9, 
14, -29, -43, 7, 29, -36, -9, 4, -4, 19, 19, 9, 
24, -19, -43, -2, 34, -31, -9, 4, 0, 14, 14, 19, 
24, -19, -43, -2, 34, -31, -9, 4, 0, 14, 14, 19, 
24, -19, -43, -2, 34, -31, -9, 4, 0, 14, 14, 19, 
24, -19, -43, -2, 34, -31, -9, 4, 0, 14, 14, 19, 
24, -19, -43, -2, 34, -31, -9, -4, -9, 14, 14, 9, 
19, -19, -39, 0, 29, -29, -9, -4, -9, 14, 14, 9, 
14, -19, -34, 2, 24, -26, -9, -4, -4, 14, 14, 9, 
9, -14, -24, 2, 17, -19, -9, -4, -4, 14, 14, 9, 
19, -24, -43, 2, 31, -34, -9, 4, 4, 24, 24, 14, 
9, -24, -34, 7, 21, -29, -9, 4, 4, 24, 24, 14, 
9, -29, -39, 9, 24, -34, -9, 4, 4, 24, 19, 14, 
9, -34, -43, 12, 26, -39, -4, 4, 4, 24, 19, 14, 
-4, -34, -29, 19, 12, -31, -4, 4, 4, 24, 19, 14, 
-4, -34, -29, 19, 12, -31, -4, 9, 4, 24, 24, 14, 
-4, -34, -29, 19, 12, -31, -4, 9, 9, 24, 24, 14, 
-4, -34, -29, 19, 12, -31, -4, 9, 9, 24, 24, 14, 
0, -29, -29, 14, 14, -29, 0, 9, 0, 14, 9, 4, 
0, -24, -24, 12, 12, -24, 0, 14, 0, 14, 9, 4, 
4, -29, -34, 12, 19, -31, 0, 14, 0, 14, 9, 4, 
4, -24, -29, 9, 17, -26, 0, 14, 0, 14, 9, 4, 
-9, -24, -14, 17, 2, -19, 0, 14, 9, 19, 9, 9, 
-9, -24, -14, 17, 2, -19, 0, 14, 9, 19, 9, 9, 
-9, -19, -9, 14, 0, -14, 0, 14, 9, 24, 14, 9, 
-9, -19, -9, 14, 0, -14, 0, 19, 14, 34, 14, 9, 
-9, -29, -19, 19, 4, -24, 9, 24, 14, 34, 24, 19, 
-4, -19, -14, 12, 4, -17, 9, 24, 9, 29, 24, 19, 
0, -19, -19, 9, 9, -19, 9, 24, 9, 29, 24, 19, 
0, -24, -24, 12, 12, -24, 9, 24, 9, 34, 24, 19, 
9, -24, -34, 7, 21, -29, 0, 24, 9, 34, 19, 9, 
9, -24, -34, 7, 21, -29, 0, 24, 14, 29, 24, 9, 
4, -29, -34, 12, 19, -31, 4, 34, 14, 24, 24, 9, 
4, -29, -34, 12, 19, -31, 4, 34, 14, 14, 19, 9, 
-14, -39, -24, 26, 4, -31, 14, 43, 24, 29, 29, 19, 
-14, -39, -24, 26, 4, -31, 14, 43, 24, 39, 29, 19, 
-9, -43, -34, 26, 12, -39, 14, 48, 24, 43, 29, 24, 
-9, -43, -34, 26, 12, -39, 19, 48, 29, 53, 34, 24, 
-9, -39, -29, 24, 9, -34, 14, 39, 24, 48, 24, 14, 
-9, -34, -24, 21, 7, -29, 9, 39, 19, 43, 24, 14, 
-9, -29, -19, 19, 4, -24, 4, 43, 14, 43, 24, 14, 
-19, -24, -4, 21, -7, -14, 4, 48, 14, 39, 24, 14, 
-19, -34, -14, 26, -2, -24, 14, 48, 24, 48, 34, 24, 
-19, -34, -14, 26, -2, -24, 14, 48, 24, 43, 34, 19, 
-14, -34, -19, 24, 2, -26, 19, 48, 24, 43, 34, 19, 
-14, -34, -19, 24, 2, -26, 19, 48, 24, 43, 34, 19, 
-24, -43, -19, 34, -2, -31, 14, 48, 24, 39, 34, 9, 
-24, -43, -19, 34, -2, -31, 14, 48, 24, 43, 39, 14, 
-24, -39, -14, 31, -4, -26, 14, 48, 24, 43, 43, 14, 
-24, -39, -14, 31, -4, -26, 14, 53, 24, 43, 43, 14, 
-34, -34, 0, 34, -17, -17, 14, 63, 29, 43, 53, 24, 
-39, -29, 9, 34, -24, -9, 14, 63, 29, 48, 53, 24, 
-39, -29, 9, 34, -24, -9, 14, 63, 29, 48, 53, 24, 
-34, -24, 9, 29, -21, -7, 14, 68, 29, 48, 53, 24, 
-19, -34, -14, 26, -2, -24, 4, 58, 29, 39, 48, 24, 
-14, -34, -19, 24, 2, -26, 4, 58, 29, 39, 43, 19, 
-4, -34, -29, 19, 12, -31, 4, 58, 29, 39, 39, 14, 
0, -29, -29, 14, 14, -29, 4, 63, 29, 43, 43, 9, 
-14, -39, -24, 26, 4, -31, 14, 63, 34, 53, 43, 19, 
-14, -39, -24, 26, 4, -31, 14, 63, 34, 53, 39, 14, 
-9, -39, -29, 24, 9, -34, 14, 63, 29, 53, 39, 14, 
-9, -39, -29, 24, 9, -34, 14, 63, 29, 53, 39, 14, 
-9, -29, -19, 19, 4, -24, 14, 63, 29, 53, 53, 24, 
-14, -29, -14, 21, 0, -21, 14, 63, 29, 53, 53, 24, 
-14, -29, -14, 21, 0, -21, 14, 63, 34, 58, 53, 24, 
-9, -29, -19, 19, 4, -24, 14, 63, 34, 58, 58, 29, 
0, -29, -29, 14, 14, -29, 4, 63, 24, 58, 48, 19, 
0, -29, -29, 14, 14, -29, 4, 63, 24, 48, 48, 19, 
0, -29, -29, 14, 14, -29, 4, 63, 24, 58, 48, 19, 
0, -29, -29, 14, 14, -29, 4, 63, 24, 58, 43, 14, 
-9, -19, -9, 14, 0, -14, 4, 63, 34, 63, 53, 14, 
-14, -14, 0, 14, -7, -7, 4, 58, 29, 63, 53, 19, 
-14, -14, 0, 14, -7, -7, 4, 58, 29, 58, 53, 19, 
-9, -14, -4, 12, -2, -9, 4, 58, 29, 58, 53, 19, 
-9, -4, 4, 7, -7, 0, 4, 58, 29, 53, 58, 9, 
-4, -4, 0, 4, -2, -2, 4, 58, 29, 53, 58, 9, 
-4, -9, -4, 7, 0, -7, 4, 58, 29, 53, 53, 9, 
-4, -14, -9, 9, 2, -12, 4, 63, 29, 53, 53, 9, 
-9, -19, -9, 14, 0, -14, 14, 63, 19, 53, 43, 19, 
-9, -24, -14, 17, 2, -19, 14, 58, 19, 53, 43, 19, 
-9, -29, -19, 19, 4, -24, 9, 58, 19, 53, 48, 19, 
-9, -34, -24, 21, 7, -29, 9, 58, 19, 53, 48, 19, 
-19, -24, -4, 21, -7, -14, 19, 58, 29, 63, 58, 29, 
-14, -24, -9, 19, -2, -17, 19, 58, 29, 58, 53, 24, 
-14, -24, -9, 19, -2, -17, 19, 53, 29, 58, 53, 24, 
-14, -24, -9, 19, -2, -17, 19, 53, 29, 58, 53, 24, 
-14, -14, 0, 14, -7, -7, 19, 53, 24, 58, 53, 24, 
-14, -14, 0, 14, -7, -7, 19, 53, 24, 58, 53, 24, 
-19, -24, -4, 21, -7, -14, 19, 53, 29, 58, 53, 24, 
-19, -14, 4, 17, -12, -4, 19, 53, 29, 63, 53, 24, 
-19, -24, -4, 21, -7, -14, 19, 53, 19, 53, 43, 24, 
-19, -29, -9, 24, -4, -19, 19, 53, 19, 53, 43, 24, 
-14, -34, -19, 24, 2, -26, 19, 53, 19, 53, 43, 19, 
-14, -39, -24, 26, 4, -31, 19, 48, 19, 39, 39, 14, 
-19, -34, -14, 26, -2, -24, 9, 48, 19, 39, 39, 4, 
-14, -34, -19, 24, 2, -26, 9, 48, 19, 39, 39, 14, 
-4, -29, -24, 17, 9, -26, 9, 48, 19, 39, 39, 14, 
0, -29, -29, 14, 14, -29, 9, 48, 19, 39, 43, 14, 
-4, -19, -14, 12, 4, -17, 0, 48, 19, 43, 53, 14, 
-9, -19, -9, 14, 0, -14, 0, 48, 19, 48, 53, 14, 
-14, -19, -4, 17, -4, -12, 0, 53, 19, 48, 53, 14, 
-19, -19, 0, 19, -9, -9, 0, 53, 19, 53, 43, 9, 
-9, -19, -9, 14, 0, -14, 4, 34, 19, 43, 34, 19, 
-4, -19, -14, 12, 4, -17, 4, 34, 14, 43, 34, 19, 
-4, -19, -14, 12, 4, -17, 4, 39, 14, 48, 43, 19, 
-9, -14, -4, 12, -2, -9, 4, 39, 14, 48, 43, 19, 
-19, -24, -4, 21, -7, -14, 9, 48, 24, 58, 48, 24, 
-19, -34, -14, 26, -2, -24, 9, 53, 24, 58, 48, 24, 
-19, -34, -14, 26, -2, -24, 9, 53, 24, 58, 48, 24, 
-19, -24, -4, 21, -7, -14, 9, 48, 24, 53, 43, 24, 
-4, -34, -29, 19, 12, -31, 4, 48, 24, 34, 43, 19, 
0, -34, -34, 17, 17, -34, 4, 48, 19, 43, 43, 19, 
4, -34, -39, 14, 21, -36, 4, 43, 19, 43, 43, 19, 
9, -29, -39, 9, 24, -34, 0, 39, 19, 48, 48, 19, 
4, -19, -24, 7, 14, -21, 0, 29, 9, 48, 39, 9, 
0, -34, -34, 17, 17, -34, 0, 29, 9, 39, 39, 9, 
-4, -24, -19, 14, 7, -21, 0, 29, 9, 39, 34, 9, 
-9, -24, -14, 17, 2, -19, 0, 29, 9, 39, 34, 9, 
-4, -24, -19, 14, 7, -21, 4, 39, 19, 53, 43, 19, 
-4, -29, -24, 17, 9, -26, 4, 39, 19, 53, 43, 19, 
-4, -29, -24, 17, 9, -26, 4, 39, 19, 53, 43, 24, 
-9, -29, -19, 19, 4, -24, 4, 43, 19, 53, 48, 24, 
-9, -34, -24, 21, 7, -29, 4, 34, 9, 43, 39, 24, 
-9, -34, -24, 21, 7, -29, 4, 34, 9, 39, 39, 14, 
-9, -29, -19, 19, 4, -24, 4, 34, 9, 39, 39, 14, 
-9, -29, -19, 19, 4, -24, 4, 29, 9, 43, 39, 19, 
-19, -19, 0, 19, -9, -9, 14, 39, 9, 43, 39, 9, 
-19, -19, 0, 19, -9, -9, 9, 39, 9, 43, 39, 9, 
-19, -19, 0, 19, -9, -9, 9, 39, 9, 43, 39, 14, 
-19, -19, 0, 19, -9, -9, 9, 39, 9, 39, 39, 14, 
-9, -29, -19, 19, 4, -24, 0, 34, 19, 48, 48, 14, 
-4, -29, -24, 17, 9, -26, 0, 34, 19, 53, 48, 14, 
-4, -29, -24, 17, 9, -26, 0, 34, 19, 53, 48, 19, 
-4, -29, -24, 17, 9, -26, 4, 34, 19, 53, 48, 19, 
-4, -19, -14, 12, 4, -17, 4, 34, 24, 48, 48, 24, 
-4, -19, -14, 12, 4, -17, 4, 34, 24, 48, 48, 24, 
-4, -19, -14, 12, 4, -17, 4, 39, 19, 48, 48, 24, 
-4, -19, -14, 12, 4, -17, 4, 39, 19, 48, 48, 29, 
-9, -19, -9, 14, 0, -14, -4, 39, 9, 39, 43, 29, 
-9, -19, -9, 14, 0, -14, 0, 39, 9, 43, 48, 24, 
-9, -19, -9, 14, 0, -14, 0, 39, 14, 43, 48, 24, 
-14, -24, -9, 19, -2, -17, 0, 39, 14, 43, 48, 24, 
-4, -14, -9, 9, 2, -12, -4, 29, 14, 43, 39, 14, 
-9, -9, 0, 9, -4, -4, -4, 34, 14, 43, 39, 14, 
-9, -9, 0, 9, -4, -4, -4, 34, 9, 43, 39, 19, 
-9, -4, 4, 7, -7, 0, -4, 34, 9, 43, 39, 24, 
9, -14, -24, 2, 17, -19, 0, 34, 4, 43, 43, 24, 
-9, -34, -24, 21, 7, -29, 9, 48, 14, 58, 53, 34, 
-24, -39, -14, 31, -4, -26, 9, 53, 19, 53, 58, 34, 
-19, -29, -9, 24, -4, -19, 19, 48, 19, 58, 58, 39, 
-9, -19, -9, 14, 0, -14, 14, 39, 19, 48, 48, 34, 
-9, -19, -9, 14, 0, -14, 9, 39, 19, 48, 48, 29, 
-9, -19, -9, 14, 0, -14, 4, 39, 19, 48, 48, 24, 
-9, -19, -9, 14, 0, -14, 0, 39, 19, 48, 48, 19, 
0, -19, -19, 9, 9, -19, 0, 29, 9, 39, 39, 19, 
0, -19, -19, 9, 9, -19, 0, 29, 9, 39, 39, 19, 
0, -19, -19, 9, 9, -19, 0, 29, 9, 39, 39, 19, 
0, -19, -19, 9, 9, -19, 0, 29, 9, 39, 39, 19, 
0, -19, -19, 9, 9, -19, 9, 34, 19, 48, 48, 19, 
0, -19, -19, 9, 9, -19, 9, 39, 19, 48, 48, 19, 
0, -19, -19, 9, 9, -19, 9, 43, 19, 48, 48, 19, 
0, -19, -19, 9, 9, -19, 9, 48, 19, 48, 48, 19, 
0, -9, -9, 4, 4, -9, 9, 48, 29, 58, 58, 29, 
0, -9, -9, 4, 4, -9, 9, 48, 29, 58, 58, 29, 
0, -9, -9, 4, 4, -9, 9, 48, 29, 58, 58, 29, 
0, -9, -9, 4, 4, -9, 9, 48, 29, 58, 58, 29, 
14, -9, -24, -2, 19, -17, 9, 53, 29, 68, 58, 29, 
19, -9, -29, -4, 24, -19, 9, 58, 29, 68, 63, 34, 
29, -9, -39, -9, 34, -24, 9, 68, 29, 78, 68, 34, 
43, -9, -53, -17, 48, -31, 14, 78, 34, 78, 68, 39, 
58, -9, -68, -24, 63, -39, 9, 92, 34, 68, 68, 39, 
63, 0, -63, -31, 63, -31, 19, 97, 43, 73, 78, 39, 
63, 4, -58, -34, 61, -26, 24, 107, 48, 82, 82, 48, 
63, 9, -53, -36, 58, -21, 29, 107, 68, 92, 87, 53, 
58, 9, -48, -34, 53, -19, 39, 107, 78, 102, 92, 53, 
53, 9, -43, -31, 48, -17, 39, 107, 78, 102, 92, 53, 
43, 4, -39, -24, 41, -17, 39, 107, 78, 102, 92, 53, 
39, 4, -34, -21, 36, -14, 29, 107, 73, 102, 92, 53, 
43, -9, -53, -17, 48, -31, 9, 92, 48, 87, 78, 48, 
43, -19, -63, -12, 53, -41, -24, 58, 24, 73, 63, 43, 
43, -39, -82, -2, 63, -61, -53, 24, -4, 48, 43, 29, 
43, -63, -107, 9, 75, -85, -73, 0, -34, 24, 29, 9, 
39, -102, -141, 31, 90, -122, -87, -9, -68, 9, 9, 4, 
43, -122, -165, 39, 104, -143, -97, -24, -92, -9, 0, -4, 
53, -141, -195, 43, 124, -168, -82, -24, -92, -14, -4, -9, 
68, -141, -209, 36, 139, -175, -82, -14, -92, -19, -14, -9, 
63, -136, -200, 36, 131, -168, -82, -24, -82, -19, -14, 0, 
68, -122, -190, 26, 129, -156, -82, -29, -82, -19, -9, 0, 
92, -102, -195, 4, 143, -148, -82, -29, -82, -9, -4, 0, 
97, -87, -185, -4, 141, -136, -92, -29, -82, -9, 0, 4, 
102, -92, -195, -4, 148, -143, -87, -19, -82, -9, 0, -4, 
107, -97, -204, -4, 156, -151, -87, -19, -82, -9, -4, -4, 
107, -97, -204, -4, 156, -151, -78, -14, -82, -9, -4, -4, 
107, -82, -190, -12, 148, -136, -68, -4, -73, -4, 0, 0, 
92, -73, -165, -9, 129, -119, -68, 9, -48, 9, 19, 14, 
92, -68, -161, -12, 126, -114, -58, 14, -39, 24, 34, 24, 
87, -48, -136, -19, 112, -92, -48, 24, -19, 34, 48, 29, 
82, -24, -107, -29, 95, -65, -43, 29, -9, 43, 58, 48, 
82, -4, -87, -39, 85, -46, -34, 29, -4, 53, 58, 48, 
68, -4, -73, -31, 70, -39, -24, 29, -4, 53, 63, 48, 
63, -4, -68, -29, 65, -36, -24, 29, 0, 53, 63, 48, 
53, 0, -53, -26, 53, -26, -24, 29, 4, 53, 63, 48, 
39, 0, -39, -19, 39, -19, -14, 34, 4, 63, 63, 48, 
19, -9, -29, -4, 24, -19, -9, 34, 4, 53, 53, 39, 
4, -24, -29, 9, 17, -26, 0, 39, 4, 48, 48, 34, 
0, -29, -29, 14, 14, -29, 4, 39, 4, 48, 43, 29, 
0, -39, -39, 19, 19, -39, 4, 34, -4, 34, 29, 9, 
-9, -39, -29, 24, 9, -34, 4, 34, -4, 34, 24, 4, 
-24, -43, -19, 34, -2, -31, 9, 34, -4, 34, 24, 4, 
-24, -43, -19, 34, -2, -31, 14, 34, 0, 34, 24, 4, 
-34, -34, 0, 34, -17, -17, 24, 34, 9, 48, 34, 14, 
-39, -34, 4, 36, -21, -14, 24, 34, 14, 48, 48, 19, 
-43, -34, 9, 39, -26, -12, 29, 34, 14, 53, 48, 19, 
-43, -39, 4, 41, -24, -17, 29, 34, 14, 53, 43, 24, 
-43, -29, 14, 36, -29, -7, 19, 24, 9, 43, 34, 14, 
-43, -29, 14, 36, -29, -7, 19, 24, 9, 39, 34, 14, 
-43, -24, 19, 34, -31, -2, 19, 29, 9, 34, 34, 14, 
-43, -24, 19, 34, -31, -2, 19, 29, 9, 34, 34, 9, 
-34, -34, 0, 34, -17, -17, 29, 39, 19, 43, 34, 9, 
-34, -34, 0, 34, -17, -17, 29, 39, 19, 34, 34, 14, 
-29, -34, -4, 31, -12, -19, 29, 39, 19, 43, 34, 14, 
-29, -34, -4, 31, -12, -19, 34, 39, 19, 43, 34, 14, 
-39, -24, 14, 31, -26, -4, 24, 39, 19, 43, 43, 14, 
-48, -24, 24, 36, -36, 0, 24, 39, 19, 43, 43, 14, 
-48, -24, 24, 36, -36, 0, 24, 39, 19, 43, 43, 14, 
-53, -24, 29, 39, -41, 2, 29, 43, 19, 43, 43, 14, 
-53, -24, 29, 39, -41, 2, 29, 43, 19, 53, 43, 24, 
-53, -24, 29, 39, -41, 2, 29, 43, 24, 53, 43, 24, 
-53, -24, 29, 39, -41, 2, 29, 43, 24, 53, 43, 24, 
-53, -24, 29, 39, -41, 2, 29, 43, 24, 53, 43, 24, 
-53, -29, 24, 41, -39, -2, 39, 34, 24, 43, 34, 14, 
-53, -29, 24, 41, -39, -2, 39, 34, 24, 39, 34, 14, 
-53, -24, 29, 39, -41, 2, 43, 34, 24, 39, 34, 14, 
-53, -24, 29, 39, -41, 2, 43, 34, 24, 43, 34, 14, 
-58, -34, 24, 46, -41, -4, 43, 48, 34, 53, 43, 19, 
-63, -34, 29, 48, -46, -2, 43, 48, 39, 53, 43, 24, 
-68, -34, 34, 51, -51, 0, 43, 48, 39, 53, 43, 29, 
-78, -34, 43, 56, -61, 4, 43, 48, 39, 53, 43, 34, 
-73, -34, 39, 53, -56, 2, 43, 48, 29, 53, 43, 24, 
-68, -34, 34, 51, -51, 0, 43, 48, 29, 53, 43, 24, 
-63, -34, 29, 48, -46, -2, 43, 48, 29, 53, 43, 24, 
-48, -34, 14, 41, -31, -9, 39, 48, 24, 53, 43, 29, 
-39, -14, 24, 26, -31, 4, 29, 39, 19, 53, 48, 29, 
-34, -4, 29, 19, -31, 12, 19, 29, 19, 58, 58, 29, 
-39, 0, 39, 19, -39, 19, 19, 29, 29, 73, 73, 43, 
-39, 24, 63, 7, -51, 43, 4, 9, 29, 97, 92, 58, 
-34, 48, 82, -7, -58, 65, -19, -34, 19, 117, 122, 82, 
9, 82, 73, -46, -31, 78, -82, -112, -19, 126, 146, 112, 
63, 136, 73, -100, -4, 104, -156, -209, -68, 151, 190, 165, 
107, 200, 92, -153, 7, 146, -219, -258, -68, 248, 297, 263, 
146, 302, 156, -224, -4, 229, -244, -239, 0, 390, 439, 385, 
214, 405, 190, -309, 12, 297, -258, -156, 102, 551, 605, 502, 
239, 512, 273, -375, -17, 392, -268, -82, 200, 712, 751, 629, 
229, 629, 400, -429, -85, 514, -268, -43, 302, 878, 902, 746, 
239, 736, 497, -488, -129, 617, -263, -4, 405, 1024, 1054, 868, 
297, 824, 527, -561, -114, 675, -278, -29, 463, 1122, 1166, 990, 
385, 917, 531, -651, -73, 724, -366, -165, 419, 1117, 1215, 1078, 
507, 1015, 507, -761, 0, 761, -517, -444, 229, 990, 1185, 1137, 
629, 1078, 448, -854, 90, 763, -717, -790, -78, 800, 1122, 1185, 
790, 1107, 317, -949, 236, 712, -927, -1132, -453, 570, 1049, 1224, 
932, 1098, 165, -1015, 383, 631, -1117, -1444, -824, 307, 912, 1224, 
1054, 1039, -14, -1046, 534, 512, -1293, -1781, -1180, 4, 736, 1180, 
1224, 941, -283, -1083, 753, 329, -1483, -2132, -1590, -346, 527, 1117, 
1459, 785, -673, -1122, 1066, 56, -1673, -2376, -1976, -683, 302, 1005, 
1693, 507, -1185, -1100, 1439, -339, -1795, -2440, -2298, -995, 39, 839, 
1893, 136, -1756, -1015, 1825, -810, -1825, -2410, -2557, -1307, -248, 605, 
2059, -283, -2342, -888, 2200, -1312, -1790, -2361, -2747, -1634, -600, 326, 
2127, -668, -2796, -729, 2461, -1732, -1717, -2342, -2888, -1995, -1054, -48, 
2000, -995, -2996, -502, 2498, -1995, -1605, -2357, -2942, -2361, -1537, -453, 
1712, -1249, -2962, -231, 2337, -2105, -1454, -2400, -2952, -2664, -1961, -805, 
1439, -1459, -2898, 9, 2169, -2178, -1351, -2469, -2942, -2893, -2283, -1073, 
1273, -1556, -2830, 141, 2052, -2193, -1278, -2420, -2835, -2923, -2376, -1185, 
1156, -1478, -2635, 161, 1895, -2056, -1166, -2196, -2581, -2679, -2186, -1093, 
995, -1259, -2254, 131, 1625, -1756, -1010, -1873, -2196, -2259, -1849, -888, 
819, -995, -1815, 87, 1317, -1405, -819, -1512, -1761, -1805, -1473, -658, 
653, -717, -1371, 31, 1012, -1044, -629, -1132, -1342, -1356, -1083, -429, 
473, -492, -966, 9, 719, -729, -434, -771, -941, -941, -732, -248, 
283, -336, -619, 26, 451, -478, -268, -468, -600, -610, -473, -136, 
131, -229, -361, 48, 246, -295, -141, -258, -370, -400, -307, -73, 
14, -146, -161, 65, 87, -153, -34, -122, -204, -239, -190, -53, 
-63, -112, -48, 87, -7, -80, 24, -29, -92, -136, -122, -39, 
-112, -87, 24, 100, -68, -31, 78, 24, -19, -73, -73, -29, 
-146, -78, 68, 112, -107, -4, 117, 87, 53, -14, -39, -43, 
-180, -78, 102, 129, -141, 12, 151, 131, 97, 19, -19, -53, 
-190, -68, 122, 129, -156, 26, 161, 151, 122, 48, 0, -53, 
-180, -53, 126, 117, -153, 36, 151, 141, 126, 39, 0, -53, 
-180, -53, 126, 117, -153, 36, 151, 141, 136, 39, 0, -53, 
-180, -48, 131, 114, -156, 41, 151, 141, 136, 43, 4, -53, 
-180, -43, 136, 112, -158, 46, 151, 141, 136, 48, 9, -48, 
-180, -53, 126, 117, -153, 36, 151, 141, 136, 48, 9, -58, 
-180, -53, 126, 117, -153, 36, 151, 141, 141, 48, 9, -58, 
-180, -53, 126, 117, -153, 36, 151, 141, 141, 48, 9, -58, 
-180, -48, 131, 114, -156, 41, 151, 141, 141, 48, 14, -58, 
-170, -39, 131, 104, -151, 46, 151, 141, 151, 53, 14, -48, 
-170, -39, 131, 104, -151, 46, 151, 141, 151, 53, 14, -43, 
-170, -39, 131, 104, -151, 46, 151, 141, 151, 53, 14, -43, 
-170, -34, 136, 102, -153, 51, 151, 141, 151, 53, 14, -43, 
-175, -34, 141, 104, -158, 53, 151, 141, 151, 53, 4, -43, 
-180, -34, 146, 107, -163, 56, 151, 141, 151, 53, 9, -43, 
-185, -34, 151, 109, -168, 58, 151, 141, 156, 58, 9, -43, 
-190, -34, 156, 112, -173, 61, 151, 141, 156, 58, 9, -43, 
-185, -29, 156, 107, -170, 63, 151, 141, 156, 58, 9, -43, 
-180, -29, 151, 104, -165, 61, 151, 141, 156, 58, 9, -43, 
-170, -29, 141, 100, -156, 56, 151, 141, 161, 58, 9, -43, 
-165, -24, 141, 95, -153, 58, 151, 141, 161, 53, 9, -43, 
-175, -24, 151, 100, -163, 63, 151, 141, 161, 53, 9, -43, 
-175, -19, 156, 97, -165, 68, 151, 141, 161, 53, 9, -43, 
-175, -19, 156, 97, -165, 68, 151, 136, 161, 53, 9, -43, 
-175, -19, 156, 97, -165, 68, 151, 136, 151, 53, 9, -43, 
-175, -19, 156, 97, -165, 68, 151, 136, 151, 53, 0, -58, 
-175, -19, 156, 97, -165, 68, 151, 136, 151, 53, 0, -58, 
-175, -14, 161, 95, -168, 73, 146, 136, 151, 53, -4, -58, 
-175, -14, 161, 95, -168, 73, 146, 136, 151, 53, -4, -58, 
-180, -19, 161, 100, -170, 70, 151, 126, 156, 43, -9, -58, 
-180, -19, 161, 100, -170, 70, 151, 126, 156, 43, -9, -58, 
-180, -19, 161, 100, -170, 70, 151, 122, 156, 43, -9, -58, 
-180, -19, 161, 100, -170, 70, 151, 122, 156, 39, -14, -63, 
-170, -24, 146, 97, -158, 61, 151, 126, 156, 39, -14, -63, 
-175, -24, 151, 100, -163, 63, 151, 126, 151, 39, -14, -63, 
-175, -24, 151, 100, -163, 63, 151, 126, 151, 39, -14, -63, 
-175, -24, 151, 100, -163, 63, 151, 126, 151, 34, -24, -63, 
-185, -24, 161, 104, -173, 68, 151, 126, 151, 43, -24, -63, 
-185, -24, 161, 104, -173, 68, 151, 126, 151, 43, -29, -68, 
-195, -24, 170, 109, -183, 73, 151, 122, 151, 39, -34, -68, 
-200, -24, 175, 112, -187, 75, 151, 122, 151, 39, -34, -68, 
-209, -29, 180, 119, -195, 75, 151, 122, 161, 34, -34, -58, 
-204, -29, 175, 117, -190, 73, 146, 122, 161, 34, -34, -63, 
-200, -29, 170, 114, -185, 70, 146, 117, 161, 34, -34, -63, 
-195, -24, 170, 109, -183, 73, 146, 117, 161, 34, -39, -73, 
-185, -24, 161, 104, -173, 68, 156, 117, 151, 29, -39, -73, 
-195, -24, 170, 109, -183, 73, 156, 117, 161, 29, -39, -68, 
-200, -24, 175, 112, -187, 75, 156, 112, 161, 29, -39, -68, 
-200, -29, 170, 114, -185, 70, 156, 112, 161, 29, -39, -73, 
-190, -29, 161, 109, -175, 65, 146, 112, 161, 24, -53, -82, 
-190, -29, 161, 109, -175, 65, 146, 112, 161, 24, -53, -82, 
-190, -29, 161, 109, -175, 65, 146, 112, 161, 24, -53, -82, 
-190, -29, 161, 109, -175, 65, 146, 112, 161, 24, -53, -87, 
-200, -43, 156, 122, -178, 56, 151, 117, 151, 24, -53, -87, 
-200, -43, 156, 122, -178, 56, 151, 117, 151, 19, -53, -87, 
-204, -48, 156, 126, -180, 53, 151, 117, 156, 19, -58, -92, 
-209, -53, 156, 131, -183, 51, 151, 112, 156, 14, -63, -102, 
-200, -43, 156, 122, -178, 56, 151, 112, 156, 14, -63, -107, 
-204, -43, 161, 124, -183, 58, 151, 112, 156, 14, -63, -107, 
-204, -43, 161, 124, -183, 58, 151, 112, 156, 14, -63, -107, 
-204, -43, 161, 124, -183, 58, 156, 107, 156, 4, -73, -117, 
-219, -43, 175, 131, -197, 65, 165, 107, 156, 0, -73, -117, 
-219, -39, 180, 129, -200, 70, 165, 107, 156, 0, -78, -122, 
-229, -39, 190, 134, -209, 75, 165, 107, 156, 0, -78, -126, 
-234, -43, 190, 139, -212, 73, 170, 112, 156, 0, -78, -131, 
-244, -43, 200, 143, -222, 78, 161, 112, 161, -9, -87, -126, 
-253, -48, 204, 151, -229, 78, 170, 112, 161, -9, -92, -131, 
-253, -53, 200, 153, -226, 73, 170, 112, 165, -9, -97, -136, 
-253, -53, 200, 153, -226, 73, 175, 112, 165, -9, -97, -141, 
-263, -53, 209, 158, -236, 78, 185, 112, 165, -14, -102, -146, 
-273, -53, 219, 163, -246, 82, 190, 112, 165, -24, -122, -161, 
-278, -63, 214, 170, -246, 75, 195, 122, 170, -29, -126, -161, 
-283, -63, 219, 173, -251, 78, 200, 126, 175, -29, -131, -165, 
-287, -63, 224, 175, -256, 80, 200, 117, 170, -39, -141, -180, 
-297, -68, 229, 183, -263, 80, 204, 117, 170, -48, -151, -195, 
-297, -73, 224, 185, -261, 75, 209, 126, 180, -58, -165, -204, 
-292, -78, 214, 185, -253, 68, 214, 131, 185, -63, -165, -204, 
-317, -82, 234, 200, -275, 75, 219, 141, 200, -53, -161, -209, 
-326, -87, 239, 207, -283, 75, 234, 151, 204, -53, -170, -214, 
-346, -87, 258, 217, -302, 85, 244, 156, 209, -58, -180, -224, 
-351, -87, 263, 219, -307, 87, 248, 161, 224, -58, -185, -234, 
-361, -87, 273, 224, -317, 92, 253, 165, 224, -53, -180, -239, 
-366, -87, 278, 226, -322, 95, 258, 175, 229, -53, -190, -248, 
-380, -97, 283, 239, -331, 92, 273, 190, 244, -53, -195, -258, 
-390, -97, 292, 244, -341, 97, 283, 200, 253, -53, -200, -258, 
-400, -92, 307, 246, -353, 107, 283, 204, 258, -63, -204, -273, 
-409, -87, 322, 248, -366, 117, 292, 209, 268, -63, -209, -283, 
-419, -78, 341, 248, -380, 131, 307, 219, 283, -63, -209, -283, 
-434, -73, 361, 253, -397, 143, 312, 239, 302, -53, -209, -283, 
-444, -82, 361, 263, -402, 139, 326, 258, 317, -48, -209, -287, 
-453, -87, 366, 270, -409, 139, 341, 268, 326, -43, -209, -287, 
-468, -87, 380, 278, -424, 146, 356, 283, 341, -29, -204, -283, 
-478, -87, 390, 283, -434, 151, 370, 297, 361, -19, -195, -283, 
-483, -78, 405, 280, -444, 163, 370, 312, 385, -4, -190, -268, 
-492, -73, 419, 283, -456, 173, 380, 326, 395, 4, -185, -268, 
-502, -68, 434, 285, -468, 183, 380, 336, 409, 24, -180, -258, 
-502, -63, 439, 283, -470, 187, 390, 346, 429, 34, -161, -253, 
-502, -39, 463, 270, -483, 212, 390, 356, 434, 43, -141, -248, 
-502, -24, 478, 263, -490, 226, 390, 366, 444, 53, -136, -244, 
-502, -14, 488, 258, -495, 236, 390, 375, 458, 63, -122, -229, 
-492, 0, 492, 246, -492, 246, 390, 385, 468, 78, -112, -219, 
-478, 14, 492, 231, -485, 253, 390, 390, 473, 92, -92, -200, 
-468, 19, 488, 224, -478, 253, 390, 395, 478, 107, -82, -190, 
-458, 29, 488, 214, -473, 258, 380, 400, 478, 117, -63, -170, 
-439, 34, 473, 202, -456, 253, 370, 405, 478, 131, -48, -151, 
-429, 53, 483, 187, -456, 268, 361, 405, 478, 131, -29, -141, 
-414, 68, 483, 173, -448, 275, 351, 405, 478, 151, -9, -126, 
-395, 82, 478, 156, -436, 280, 341, 405, 478, 165, 4, -112, 
-380, 87, 468, 146, -424, 278, 331, 405, 473, 185, 19, -92, 
-366, 107, 473, 129, -419, 290, 322, 400, 463, 185, 24, -82, 
-331, 117, 448, 107, -390, 283, 302, 395, 463, 190, 39, -63, 
-302, 126, 429, 87, -366, 278, 287, 390, 448, 200, 53, -48, 
-278, 136, 414, 70, -346, 275, 273, 385, 434, 214, 73, -29, 
-258, 136, 395, 61, -326, 265, 268, 380, 434, 224, 78, -19, 
-229, 141, 370, 43, -300, 256, 244, 370, 419, 224, 87, -4, 
-204, 141, 346, 31, -275, 244, 234, 361, 409, 229, 107, 9, 
-180, 146, 326, 17, -253, 236, 219, 351, 390, 229, 112, 19, 
-161, 156, 317, 2, -239, 236, 200, 341, 375, 239, 122, 34, 
-151, 156, 307, -2, -229, 231, 180, 331, 361, 248, 131, 53, 
-136, 161, 297, -12, -217, 229, 165, 317, 346, 248, 146, 63, 
-117, 161, 278, -21, -197, 219, 151, 302, 326, 248, 146, 73, 
-92, 161, 253, -34, -173, 207, 131, 278, 302, 244, 141, 78, 
-73, 156, 229, -41, -151, 192, 117, 263, 287, 234, 146, 82, 
-48, 156, 204, -53, -126, 180, 102, 253, 273, 229, 146, 82, 
-29, 156, 185, -63, -107, 170, 87, 239, 248, 214, 146, 87, 
-14, 151, 165, -68, -90, 158, 78, 224, 239, 209, 146, 82, 
0, 151, 151, -75, -75, 151, 73, 214, 219, 204, 146, 87, 
14, 141, 126, -78, -56, 134, 58, 200, 209, 195, 146, 87, 
19, 131, 112, -75, -46, 122, 48, 190, 195, 190, 141, 87, 
14, 122, 107, -68, -46, 114, 39, 175, 180, 175, 136, 87, 
24, 112, 87, -68, -31, 100, 34, 170, 165, 175, 136, 87, 
24, 112, 87, -68, -31, 100, 29, 161, 151, 175, 136, 87, 
24, 97, 73, -61, -24, 85, 29, 146, 141, 165, 136, 87, 
34, 102, 68, -68, -17, 85, 9, 126, 126, 156, 126, 78, 
43, 102, 58, -73, -7, 80, 4, 117, 112, 141, 122, 78, 
48, 102, 53, -75, -2, 78, 0, 107, 107, 136, 117, 78, 
58, 92, 34, -75, 12, 63, -4, 102, 102, 136, 112, 78, 
48, 68, 19, -58, 14, 43, 0, 112, 92, 131, 102, 78, 
48, 68, 19, -58, 14, 43, -4, 97, 82, 126, 97, 78, 
48, 68, 19, -58, 14, 43, -9, 87, 73, 117, 97, 68, 
48, 68, 19, -58, 14, 43, -9, 78, 63, 117, 92, 68, 
53, 78, 24, -65, 14, 51, -9, 63, 53, 112, 87, 68, 
53, 78, 24, -65, 14, 51, -9, 63, 53, 102, 87, 58, 
48, 68, 19, -58, 14, 43, -9, 58, 53, 92, 82, 53, 
48, 63, 14, -56, 17, 39, -9, 53, 43, 92, 82, 53, 
34, 53, 19, -43, 7, 36, -9, 58, 39, 92, 82, 53, 
34, 39, 4, -36, 14, 21, -9, 58, 39, 92, 78, 58, 
34, 39, 4, -36, 14, 21, -9, 58, 34, 82, 73, 58, 
34, 39, 4, -36, 14, 21, -9, 53, 29, 73, 68, 48, 
34, 39, 4, -36, 14, 21, -9, 48, 24, 68, 63, 43, 
34, 39, 4, -36, 14, 21, -9, 43, 19, 68, 58, 43, 
39, 29, -9, -34, 24, 9, -14, 43, 19, 73, 58, 39, 
39, 29, -9, -34, 24, 9, -14, 43, 19, 73, 58, 39, 
34, 24, -9, -29, 21, 7, -14, 39, 19, 63, 58, 39, 
29, 24, -4, -26, 17, 9, -14, 39, 19, 58, 58, 39, 
24, 14, -9, -19, 17, 2, -9, 39, 14, 58, 58, 39, 
19, 9, -9, -14, 14, 0, -9, 39, 14, 53, 58, 39, 
9, 9, 0, -9, 4, 4, -9, 48, 19, 53, 63, 34, 
14, 9, -4, -12, 9, 2, -9, 39, 19, 53, 58, 34, 
14, 9, -4, -12, 9, 2, -4, 39, 19, 58, 58, 39, 
14, 4, -9, -9, 12, -2, -4, 39, 19, 63, 58, 39, 
14, 9, -4, -12, 9, 2, -9, 34, 9, 53, 48, 29, 
14, 9, -4, -12, 9, 2, -9, 29, 4, 48, 48, 29, 
14, 9, -4, -12, 9, 2, -9, 24, 0, 48, 43, 24, 
19, 9, -9, -14, 14, 0, -9, 14, 0, 48, 43, 24, 
29, 4, -24, -17, 26, -9, -9, 14, 0, 34, 43, 24, 
24, 4, -19, -14, 21, -7, -9, 14, 0, 34, 43, 24, 
24, 0, -24, -12, 24, -12, -9, 9, 0, 34, 43, 24, 
29, 0, -29, -14, 29, -14, -9, 9, 0, 34, 43, 24, 
39, 9, -29, -24, 34, -9, -19, 9, 0, 34, 43, 24, 
34, 9, -24, -21, 29, -7, -19, 9, 0, 34, 39, 19, 
34, 9, -24, -21, 29, -7, -19, 9, 0, 34, 39, 19, 
34, 9, -24, -21, 29, -7, -19, 9, 0, 29, 39, 19, 
24, 0, -24, -12, 24, -12, -9, 9, 0, 29, 39, 19, 
24, 0, -24, -12, 24, -12, -9, 4, -4, 24, 39, 14, 
24, 4, -19, -14, 21, -7, -14, 4, -4, 24, 34, 14, 
24, 4, -19, -14, 21, -7, -14, 4, -4, 19, 34, 19, 
24, 9, -14, -17, 19, -2, -14, 4, -4, 19, 34, 19, 
24, 4, -19, -14, 21, -7, -14, 4, -4, 19, 29, 19, 
24, 4, -19, -14, 21, -7, -14, 4, -4, 19, 29, 14, 
19, 4, -14, -12, 17, -4, -14, 0, -4, 19, 29, 14, 
19, 0, -19, -9, 19, -9, -14, 9, -4, 19, 29, 14, 
19, 0, -19, -9, 19, -9, -14, 9, -4, 19, 29, 9, 
19, 0, -19, -9, 19, -9, -14, 9, -4, 19, 24, 9, 
19, 0, -19, -9, 19, -9, -14, 0, -4, 14, 24, 9, 
19, 0, -19, -9, 19, -9, -9, 9, -9, 14, 24, 9, 
19, 4, -14, -12, 17, -4, -9, 9, -9, 14, 24, 9, 
19, -14, -34, -2, 26, -24, -9, 9, -9, 9, 24, 9, 
19, -19, -39, 0, 29, -29, -9, 9, -9, 9, 19, 9, 
19, -9, -29, -4, 24, -19, -9, 0, -9, 19, 19, 9, 
14, -9, -24, -2, 19, -17, -9, 0, -9, 19, 19, 14, 
14, -9, -24, -2, 19, -17, -9, 0, -9, 19, 19, 14, 
9, -9, -19, 0, 14, -14, -9, -4, -9, 24, 19, 14, 
9, -4, -14, -2, 12, -9, -9, -4, -9, 24, 19, 4, 
0, 0, 0, 0, 0, 0, -9, -4, -9, 19, 19, 4, 
0, 4, 4, -2, -2, 4, -9, -4, -4, 19, 19, 0, 
4, 9, 4, -7, 0, 7, -9, -4, -4, 19, 19, 0, 
-4, 0, 4, 2, -4, 2, -9, -4, -9, 4, 4, 0, 
-4, 0, 4, 2, -4, 2, -9, -4, -9, 4, 4, 0, 
-4, 0, 4, 2, -4, 2, -9, -4, -9, 4, 4, 0, 
-4, 0, 4, 2, -4, 2, -9, -4, -9, 4, 4, 0, 
0, 0, 0, 0, 0, 0, -9, -4, -9, 4, 14, 0, 
0, 0, 0, 0, 0, 0, -9, -4, -9, 4, 14, 0, 
0, 0, 0, 0, 0, 0, -9, -4, -4, 4, 14, 0, 
0, 4, 4, -2, -2, 4, -9, -4, -4, 4, 14, 0, 
0, -4, -4, 2, 2, -4, 0, -4, -4, 14, 14, 4, 
-9, -4, 4, 7, -7, 0, 0, -4, -4, 14, 14, 4, 
-9, -9, 0, 9, -4, -4, 0, -4, -4, 14, 9, 4, 
-9, -14, -4, 12, -2, -9, 4, -4, -4, 14, 9, 4, 
-14, -4, 9, 9, -12, 2, 4, 4, -4, 14, 19, 4, 
-14, -4, 9, 9, -12, 2, 4, 9, -4, 14, 24, 4, 
-14, -4, 9, 9, -12, 2, 4, 9, 0, 14, 24, 4, 
-14, -4, 9, 9, -12, 2, 4, 9, 0, 14, 24, 4, 
-9, 4, 14, 2, -12, 9, 0, 0, 0, 4, 9, -4, 
-9, 4, 14, 2, -12, 9, 0, 4, 0, 4, 9, -4, 
-4, -4, 0, 4, -2, -2, 0, 4, 0, 4, 9, -4, 
-4, -4, 0, 4, -2, -2, 0, 4, 0, 4, 9, -4, 
0, -4, -4, 2, 2, -4, -9, 4, -9, 0, 9, 0, 
0, -4, -4, 2, 2, -4, -9, 4, -9, 0, 9, 0, 
0, 0, 0, 0, 0, 0, -9, 4, -9, 4, 14, 0, 
0, 0, 0, 0, 0, 0, -9, 9, -4, 14, 14, 0, 
-9, -9, 0, 9, -4, -4, -9, 4, -4, 14, 14, 0, 
-4, 0, 4, 2, -4, 2, -9, 4, -9, 9, 14, 0, 
0, 0, 0, 0, 0, 0, -9, 4, -9, 9, 14, 0, 
0, -4, -4, 2, 2, -4, -9, 4, -9, 14, 14, 0, 
0, 4, 4, -2, -2, 4, 0, 14, 0, 19, 9, 0, 
0, 4, 4, -2, -2, 4, 0, 14, 4, 19, 14, 0, 
-4, 0, 4, 2, -4, 2, 4, 24, 4, 19, 14, 0, 
-4, 0, 4, 2, -4, 2, 4, 24, 4, 14, 9, 0, 
-14, -9, 4, 12, -9, -2, 4, 14, -4, 14, 9, -9, 
-14, -9, 4, 12, -9, -2, 4, 14, -4, 19, 9, -9, 
-9, -14, -4, 12, -2, -9, 4, 19, -4, 19, 9, -4, 
-9, -14, -4, 12, -2, -9, 9, 19, 0, 24, 14, -4, 
-9, -4, 4, 7, -7, 0, 0, 19, 9, 24, 14, -4, 
-9, -4, 4, 7, -7, 0, 0, 19, 9, 24, 14, -4, 
-9, -4, 4, 7, -7, 0, 0, 24, 9, 29, 14, -4, 
-19, -4, 14, 12, -17, 4, 4, 29, 14, 29, 14, -4, 
-9, -4, 4, 7, -7, 0, -4, 39, 4, 29, 24, 4, 
-9, -4, 4, 7, -7, 0, -4, 39, 4, 24, 24, 0, 
-4, -4, 0, 4, -2, -2, 0, 39, 4, 24, 24, 0, 
-4, -4, 0, 4, -2, -2, 0, 39, 4, 24, 24, 0, 
-14, -4, 9, 9, -12, 2, 4, 39, 14, 29, 24, -9, 
-14, -4, 9, 9, -12, 2, 4, 39, 14, 34, 29, -4, 
-14, 0, 14, 7, -14, 7, 4, 39, 14, 34, 34, -4, 
-14, 0, 14, 7, -14, 7, 4, 43, 14, 34, 34, -4, 
-24, -9, 14, 17, -19, 2, 14, 43, 19, 43, 34, 4, 
-29, -9, 19, 19, -24, 4, 14, 43, 19, 48, 34, 4, 
-29, -14, 14, 21, -21, 0, 14, 43, 19, 48, 34, 4, 
-24, -14, 9, 19, -17, -2, 14, 48, 19, 48, 34, 4, 
-14, -4, 9, 9, -12, 2, 4, 39, 9, 39, 34, 0, 
-14, -4, 9, 9, -12, 2, 4, 39, 9, 39, 34, 0, 
-9, -4, 4, 7, -7, 0, 4, 39, 9, 39, 34, 0, 
-9, 0, 9, 4, -9, 4, 4, 43, 9, 43, 43, 0, 
-14, -9, 4, 12, -9, -2, 14, 53, 24, 53, 43, 9, 
-14, -9, 4, 12, -9, -2, 14, 53, 24, 53, 39, 4, 
-9, -9, 0, 9, -4, -4, 14, 53, 19, 53, 39, 4, 
-9, -9, 0, 9, -4, -4, 14, 53, 19, 53, 39, 4, 
-19, -4, 14, 12, -17, 4, 4, 43, 9, 48, 34, -4, 
-24, 0, 24, 12, -24, 12, 4, 43, 9, 43, 34, -4, 
-24, 4, 29, 9, -26, 17, 4, 43, 14, 43, 34, -4, 
-19, 9, 29, 4, -24, 19, 4, 43, 14, 39, 39, 0, 
-19, 4, 24, 7, -21, 14, 4, 53, 24, 48, 48, 9, 
-19, 0, 19, 9, -19, 9, 4, 53, 24, 39, 48, 9, 
-19, -4, 14, 12, -17, 4, 4, 53, 24, 48, 48, 9, 
-19, -9, 9, 14, -14, 0, 4, 53, 24, 48, 43, 4, 
-9, -9, 0, 9, -4, -4, 4, 53, 14, 43, 43, -4, 
-14, -4, 9, 9, -12, 2, 4, 48, 9, 43, 43, 0, 
-14, -4, 9, 9, -12, 2, 4, 48, 9, 39, 43, 0, 
-9, -4, 4, 7, -7, 0, 4, 48, 9, 39, 43, 0, 
-9, 4, 14, 2, -12, 9, -4, 48, 9, 43, 39, 0, 
-4, 4, 9, 0, -7, 7, -4, 48, 9, 43, 39, 0, 
-4, 0, 4, 2, -4, 2, -4, 48, 9, 43, 34, 0, 
-4, -4, 0, 4, -2, -2, -4, 53, 9, 43, 34, 0, 
0, -4, -4, 2, 2, -4, -4, 43, 9, 43, 34, 0, 
0, -4, -4, 2, 2, -4, -4, 39, 9, 43, 34, 0, 
0, -4, -4, 2, 2, -4, -9, 39, 9, 43, 39, 0, 
0, -4, -4, 2, 2, -4, -9, 39, 9, 43, 39, 0, 
-9, 4, 14, 2, -12, 9, 0, 39, 9, 43, 39, 9, 
-4, 4, 9, 0, -7, 7, 0, 39, 9, 39, 34, 4, 
-4, 4, 9, 0, -7, 7, 0, 34, 9, 39, 34, 4, 
-4, 4, 9, 0, -7, 7, 0, 34, 9, 39, 34, 4, 
-14, 4, 19, 4, -17, 12, 0, 43, 4, 39, 34, 4, 
-14, 4, 19, 4, -17, 12, 0, 43, 4, 39, 34, 4, 
-19, -4, 14, 12, -17, 4, 0, 43, 9, 39, 34, 4, 
-19, 4, 24, 7, -21, 14, 0, 43, 9, 43, 34, 4, 
-14, 14, 29, 0, -21, 21, 0, 43, 9, 43, 43, 4, 
-9, 9, 19, 0, -14, 14, 0, 43, 9, 43, 43, 4, 
0, 4, 4, -2, -2, 4, 0, 43, 9, 43, 43, 0, 
4, 0, -4, -2, 4, -2, 0, 39, 9, 29, 39, -4, 
-4, 4, 9, 0, -7, 7, -9, 39, 0, 39, 39, -4, 
-4, 4, 9, 0, -7, 7, -9, 39, 0, 39, 39, 4, 
0, 9, 9, -4, -4, 9, -9, 39, 0, 39, 39, 4, 
0, 9, 9, -4, -4, 9, -9, 39, 0, 39, 43, 4, 
-4, 0, 4, 2, -4, 2, -9, 29, 9, 39, 43, 4, 
-9, 0, 9, 4, -9, 4, -9, 29, 9, 39, 43, 4, 
-14, 0, 14, 7, -14, 7, -9, 34, 9, 34, 43, 4, 
-19, 0, 19, 9, -19, 9, -9, 34, 9, 34, 34, 0, 
-9, 0, 9, 4, -9, 4, -4, 34, 9, 24, 24, 0, 
-4, 0, 4, 2, -4, 2, -4, 34, 4, 24, 24, 0, 
-4, 0, 4, 2, -4, 2, -4, 39, 4, 29, 34, 0, 
-9, 4, 14, 2, -12, 9, -4, 39, 4, 29, 34, 0, 
0, 4, 4, -2, -2, 4, 0, 29, 4, 39, 29, 14, 
0, -4, -4, 2, 2, -4, 0, 34, 4, 39, 29, 14, 
0, -4, -4, 2, 2, -4, 0, 34, 4, 39, 29, 14, 
0, 4, 4, -2, -2, 4, 0, 29, 4, 34, 24, 14, 
-9, -4, 4, 7, -7, 0, 4, 39, 4, 24, 24, 9, 
-9, -4, 4, 7, -7, 0, 4, 39, 0, 34, 24, 9, 
-9, -4, 4, 7, -7, 0, 4, 34, 0, 34, 24, 9, 
-9, 0, 9, 4, -9, 4, 0, 29, 0, 39, 29, 9, 
-14, 9, 24, 2, -19, 17, 0, 39, 0, 39, 39, 9, 
-19, -4, 14, 12, -17, 4, 0, 39, 0, 29, 39, 9, 
-24, 4, 29, 9, -26, 17, 0, 39, 0, 29, 34, 9, 
-29, 4, 34, 12, -31, 19, 0, 39, 0, 29, 34, 9, 
-19, 4, 24, 7, -21, 14, -4, 29, 0, 34, 24, 9, 
-14, 0, 14, 7, -14, 7, -4, 29, 0, 34, 24, 9, 
-9, 0, 9, 4, -9, 4, -4, 29, 0, 34, 24, 14, 
-9, 0, 9, 4, -9, 4, -4, 34, 0, 34, 29, 14, 
0, 4, 4, -2, -2, 4, -4, 24, 0, 24, 29, 4, 
0, 4, 4, -2, -2, 4, -4, 24, 0, 19, 29, -4, 
0, 9, 9, -4, -4, 9, -4, 24, 0, 19, 29, -4, 
0, 9, 9, -4, -4, 9, -4, 19, 0, 24, 29, 0, 
0, 0, 0, 0, 0, 0, -4, 29, -9, 34, 29, 0, 
0, 0, 0, 0, 0, 0, -9, 29, -9, 34, 29, 0, 
0, 0, 0, 0, 0, 0, -9, 29, -9, 34, 29, 4, 
0, 0, 0, 0, 0, 0, -9, 29, -9, 29, 29, 4, 
0, 0, 0, 0, 0, 0, -9, 24, 0, 29, 29, 4, 
4, 0, -4, -2, 4, -2, -9, 24, 0, 34, 29, 4, 
4, 0, -4, -2, 4, -2, -9, 24, 0, 34, 29, 9, 
4, 0, -4, -2, 4, -2, -4, 24, 0, 34, 29, 9, 
-4, 0, 4, 2, -4, 2, -4, 24, -4, 29, 29, 4, 
-4, 0, 4, 2, -4, 2, -4, 24, -4, 29, 29, 4, 
-4, 0, 4, 2, -4, 2, -4, 29, -9, 29, 29, 4, 
-4, 0, 4, 2, -4, 2, -4, 29, -9, 29, 29, 9, 
-9, 0, 9, 4, -9, 4, -4, 29, 0, 29, 34, 9, 
-9, 0, 9, 4, -9, 4, 0, 29, 0, 34, 39, 4, 
-9, 0, 9, 4, -9, 4, 0, 29, 4, 34, 39, 4, 
-14, -4, 9, 9, -12, 2, 0, 29, 4, 34, 39, 4, 
-24, -14, 9, 19, -17, -2, 4, 29, 14, 34, 39, 4, 
-29, -9, 19, 19, -24, 4, 4, 34, 14, 34, 39, 4, 
-29, -9, 19, 19, -24, 4, 4, 34, 9, 34, 39, 9, 
-29, -4, 24, 17, -26, 9, 4, 34, 9, 34, 39, 14, 
-19, 4, 24, 7, -21, 14, -9, 24, -4, 24, 34, 4, 
-9, 14, 24, -2, -17, 19, -9, 19, -4, 19, 24, 4, 
4, 9, 4, -7, 0, 7, -9, 24, 0, 24, 29, 4, 
9, -9, -19, 0, 14, -14, -9, 29, 9, 39, 29, 9, 
9, 0, -9, -4, 9, -4, -9, 29, 0, 29, 29, 9, 
9, 0, -9, -4, 9, -4, -9, 29, 0, 29, 29, 9, 
9, 0, -9, -4, 9, -4, -9, 29, 0, 29, 29, 9, 
9, 0, -9, -4, 9, -4, -9, 29, 0, 29, 29, 9, 
0, 9, 9, -4, -4, 9, -9, 29, 9, 39, 39, 9, 
0, 9, 9, -4, -4, 9, -9, 29, 9, 39, 39, 9, 
0, 9, 9, -4, -4, 9, -9, 29, 9, 39, 39, 9, 
0, 9, 9, -4, -4, 9, -9, 29, 9, 39, 39, 9, 
0, 19, 19, -9, -9, 19, -9, 39, 9, 39, 39, 19, 
0, 19, 19, -9, -9, 19, -9, 39, 9, 39, 39, 19, 
0, 19, 19, -9, -9, 19, -9, 39, 9, 39, 39, 19, 
0, 19, 19, -9, -9, 19, -9, 39, 9, 39, 39, 19, 
9, 14, 4, -12, 2, 9, -4, 43, 14, 43, 43, 29, 
9, 9, 0, -9, 4, 4, 0, 48, 19, 48, 48, 29, 
9, 4, -4, -7, 7, 0, 4, 53, 24, 53, 53, 29, 
9, 0, -9, -4, 9, -4, 9, 58, 29, 58, 63, 34, 
19, 9, -9, -14, 14, 0, 9, 73, 19, 58, 63, 24, 
34, 9, -24, -21, 29, -7, 14, 78, 24, 58, 58, 29, 
53, 9, -43, -31, 48, -17, 19, 92, 24, 58, 53, 29, 
63, 19, -43, -41, 53, -12, 29, 97, 34, 63, 58, 29, 
73, 29, -43, -51, 58, -7, 24, 97, 39, 63, 63, 29, 
73, 39, -34, -56, 53, 2, 29, 97, 58, 73, 68, 34, 
73, 43, -29, -58, 51, 7, 29, 97, 58, 73, 73, 34, 
73, 48, -24, -61, 48, 12, 29, 97, 58, 73, 73, 34, 
58, 29, -29, -43, 43, 0, 29, 97, 48, 73, 73, 43, 
58, 24, -34, -41, 46, -4, 19, 97, 43, 73, 73, 43, 
63, 4, -58, -34, 61, -26, 0, 92, 29, 68, 68, 39, 
63, -9, -73, -26, 68, -41, -34, 58, 4, 53, 53, 34, 
73, -39, -112, -17, 92, -75, -63, 14, -24, 29, 24, 19, 
73, -63, -136, -4, 104, -100, -82, -9, -53, 4, 9, 0, 
63, -92, -156, 14, 109, -124, -97, -19, -78, -9, -9, -4, 
63, -112, -175, 24, 119, -143, -107, -34, -102, -29, -19, -14, 
68, -126, -195, 29, 131, -161, -92, -34, -92, -24, -14, -29, 
78, -122, -200, 21, 139, -161, -92, -24, -92, -29, -24, -29, 
82, -117, -200, 17, 141, -158, -92, -34, -92, -29, -24, -29, 
87, -102, -190, 7, 139, -146, -92, -39, -92, -29, -19, -29, 
102, -78, -180, -12, 141, -129, -92, -29, -92, -29, -24, -29, 
107, -68, -175, -19, 141, -122, -102, -29, -92, -29, -19, -24, 
112, -68, -180, -21, 146, -124, -107, -29, -92, -29, -19, -24, 
117, -68, -185, -24, 151, -126, -107, -29, -92, -29, -24, -24, 
126, -53, -180, -36, 153, -117, -97, -34, -92, -19, -14, -24, 
126, -34, -161, -46, 143, -97, -87, -24, -82, -14, -9, -19, 
122, -24, -146, -48, 134, -85, -78, -9, -68, 0, 0, -14, 
122, -19, -141, -51, 131, -80, -68, -4, -58, 14, 14, -4, 
112, -9, -122, -51, 117, -65, -48, 14, -29, 24, 29, 9, 
102, 14, -87, -58, 95, -36, -43, 19, -19, 34, 39, 29, 
87, 24, -63, -56, 75, -19, -34, 19, -4, 43, 39, 29, 
68, 24, -43, -46, 56, -9, -24, 19, -4, 43, 43, 29, 
73, 24, -48, -48, 61, -12, -34, 19, -9, 34, 43, 29, 
63, 29, -34, -46, 48, -2, -34, 19, -4, 34, 43, 29, 
58, 29, -29, -43, 43, 0, -24, 24, -4, 34, 43, 29, 
39, 19, -19, -29, 29, 0, -19, 24, -4, 24, 34, 19, 
14, 4, -9, -9, 12, -2, -9, 29, -4, 19, 29, 14, 
9, 0, -9, -4, 9, -4, -4, 29, -4, 19, 24, 9, 
0, 0, 0, 0, 0, 0, -4, 24, -4, 14, 19, 0, 
-9, 0, 9, 4, -9, 4, -4, 24, -4, 14, 14, -4, 
-14, -4, 9, 9, -12, 2, 0, 14, -14, 14, 4, -14, 
-14, -4, 9, 9, -12, 2, 4, 14, -9, 14, 4, -14, 
-14, 4, 19, 4, -17, 12, 4, 14, -9, 19, 4, -14, 
-19, 4, 24, 7, -21, 14, 4, 14, -4, 19, 19, -9, 
-34, -4, 29, 19, -31, 12, 9, 24, 4, 24, 29, 0, 
-34, -9, 24, 21, -29, 7, 9, 24, 4, 24, 24, 4, 
-34, -9, 24, 21, -29, 7, 9, 24, 9, 19, 24, 4, 
-34, -9, 24, 21, -29, 7, 9, 24, 9, 19, 24, 4, 
-43, -4, 39, 24, -41, 17, 9, 19, 9, 19, 24, 4, 
-43, -4, 39, 24, -41, 17, 9, 19, 9, 24, 24, 0, 
-43, -4, 39, 24, -41, 17, 9, 19, 9, 24, 24, 0, 
-43, -4, 39, 24, -41, 17, 9, 19, 9, 14, 24, 4, 
-39, -4, 34, 21, -36, 14, 9, 29, 0, 24, 14, -4, 
-39, -4, 34, 21, -36, 14, 14, 29, 0, 24, 14, -4, 
-39, -4, 34, 21, -36, 14, 14, 29, 0, 24, 14, -4, 
-48, -4, 43, 26, -46, 19, 14, 29, 0, 24, 14, -4, 
-43, 4, 48, 19, -46, 26, 14, 29, 9, 24, 24, 4, 
-43, 4, 48, 19, -46, 26, 19, 34, 9, 24, 24, 4, 
-39, 4, 43, 17, -41, 24, 19, 34, 9, 24, 24, 4, 
-34, 4, 39, 14, -36, 21, 19, 34, 14, 24, 24, 4, 
-34, -4, 29, 19, -31, 12, 19, 34, 14, 34, 24, 4, 
-34, -4, 29, 19, -31, 12, 19, 34, 14, 34, 24, 4, 
-34, -9, 24, 21, -29, 7, 19, 34, 14, 34, 24, 4, 
-34, -9, 24, 21, -29, 7, 19, 34, 14, 29, 24, 4, 
-43, -4, 39, 24, -41, 17, 24, 34, 14, 29, 24, 4, 
-43, -4, 39, 24, -41, 17, 24, 34, 14, 34, 24, 4, 
-43, -4, 39, 24, -41, 17, 24, 39, 14, 34, 24, 4, 
-43, -4, 39, 24, -41, 17, 24, 39, 19, 34, 24, 4, 
-39, -4, 34, 21, -36, 14, 24, 39, 19, 34, 24, 4, 
-39, -4, 34, 21, -36, 14, 24, 39, 19, 34, 24, 4, 
-34, -4, 29, 19, -31, 12, 24, 39, 19, 34, 24, 4, 
-29, -4, 24, 17, -26, 9, 24, 39, 19, 34, 24, 4, 
-39, -4, 34, 21, -36, 14, 24, 39, 19, 34, 24, 4, 
-39, 4, 43, 17, -41, 24, 19, 29, 14, 34, 34, 9, 
-29, 14, 43, 7, -36, 29, 9, 19, 9, 34, 29, 9, 
-14, 24, 39, -4, -26, 31, -9, 9, 9, 48, 39, 19, 
-9, 29, 39, -9, -24, 34, -19, 0, 9, 73, 63, 34, 
-9, 53, 63, -21, -36, 58, -24, -29, 19, 97, 92, 48, 
14, 87, 73, -51, -29, 80, -68, -102, -9, 107, 112, 73, 
58, 122, 63, -90, -2, 92, -141, -190, -58, 136, 165, 122, 
102, 195, 92, -148, 4, 143, -204, -248, -68, 209, 258, 214, 
146, 297, 151, -222, -2, 224, -248, -239, -29, 336, 385, 331, 
214, 400, 185, -307, 14, 292, -273, -180, 68, 507, 546, 453, 
253, 502, 248, -378, 2, 375, -278, -87, 180, 668, 702, 570, 
248, 619, 370, -434, -61, 495, -278, -43, 278, 819, 839, 688, 
258, 717, 458, -488, -100, 588, -268, -14, 370, 966, 980, 805, 
297, 824, 527, -561, -114, 675, -283, -14, 444, 1073, 1102, 917, 
375, 932, 556, -653, -90, 744, -356, -107, 424, 1093, 1166, 1000, 
483, 1005, 522, -744, -19, 763, -483, -341, 273, 1000, 1156, 1068, 
614, 1063, 448, -839, 82, 756, -673, -688, -4, 824, 1098, 1117, 
775, 1127, 351, -951, 212, 739, -902, -1044, -370, 614, 1024, 1166, 
917, 1127, 209, -1022, 353, 668, -1102, -1366, -736, 385, 932, 1185, 
1039, 1088, 48, -1063, 495, 568, -1273, -1668, -1078, 122, 785, 1156, 
1190, 1000, -190, -1095, 690, 405, -1468, -2034, -1454, -209, 590, 1083, 
1410, 854, -556, -1132, 983, 148, -1678, -2337, -1854, -551, 351, 980, 
1664, 610, -1054, -1137, 1359, -222, -1830, -2464, -2200, -878, 97, 829, 
1888, 263, -1625, -1076, 1756, -680, -1873, -2459, -2483, -1190, -185, 605, 
2059, -146, -2205, -956, 2132, -1176, -1854, -2420, -2703, -1522, -512, 341, 
2176, -566, -2742, -805, 2459, -1654, -1800, -2400, -2874, -1888, -951, -4, 
2108, -941, -3050, -583, 2579, -1995, -1698, -2400, -2957, -2269, -1434, -409, 
1854, -1229, -3084, -312, 2469, -2156, -1556, -2464, -2991, -2615, -1878, -766, 
1546, -1434, -2981, -56, 2264, -2208, -1434, -2547, -3001, -2879, -2235, -1049, 
1351, -1576, -2928, 112, 2139, -2252, -1351, -2527, -2942, -2962, -2391, -1210, 
1215, -1556, -2771, 170, 1993, -2164, -1249, -2352, -2718, -2786, -2278, -1166, 
1078, -1351, -2430, 136, 1754, -1891, -1107, -2049, -2357, -2405, -1971, -985, 
936, -1073, -2010, 68, 1473, -1542, -932, -1688, -1942, -1956, -1595, -751, 
790, -790, -1581, 0, 1185, -1185, -741, -1288, -1498, -1493, -1200, -502, 
624, -541, -1166, -41, 895, -854, -541, -907, -1078, -1054, -829, -292, 
424, -346, -771, -39, 597, -558, -356, -595, -717, -707, -546, -170, 
234, -219, -453, -7, 344, -336, -200, -341, -434, -453, -346, -97, 
82, -151, -234, 34, 158, -192, -82, -180, -244, -283, -219, -63, 
-4, -97, -92, 51, 43, -95, -4, -73, -126, -170, -141, -43, 
-73, -73, 0, 73, -36, -36, 43, -9, -34, -97, -92, -39, 
-131, -68, 63, 100, -97, -2, 97, 63, 39, -34, -53, -48, 
-156, -68, 87, 112, -122, 9, 136, 117, 82, 4, -29, -53, 
-161, -48, 112, 104, -136, 31, 141, 141, 117, 29, -19, -63, 
-170, -39, 131, 104, -151, 46, 151, 141, 122, 29, -9, -63, 
-175, -29, 146, 102, -161, 58, 151, 141, 126, 29, -19, -73, 
-180, -34, 146, 107, -163, 56, 151, 141, 136, 29, -19, -73, 
-185, -34, 151, 109, -168, 58, 151, 141, 136, 34, -14, -73, 
-190, -34, 156, 112, -173, 61, 151, 141, 136, 39, -9, -68, 
-180, -24, 156, 102, -168, 65, 151, 131, 136, 39, -9, -68, 
-180, -24, 156, 102, -168, 65, 151, 131, 141, 39, -9, -68, 
-180, -24, 156, 102, -168, 65, 151, 131, 141, 39, -9, -68, 
-180, -19, 161, 100, -170, 70, 151, 131, 141, 39, -4, -68, 
-180, -19, 161, 100, -170, 70, 151, 141, 151, 43, -4, -68, 
-180, -19, 161, 100, -170, 70, 151, 141, 151, 43, -4, -63, 
-180, -19, 161, 100, -170, 70, 151, 141, 151, 43, -4, -63, 
-180, -14, 165, 97, -173, 75, 151, 141, 151, 43, -4, -63, 
-180, -14, 165, 97, -173, 75, 151, 141, 151, 53, 4, -53, 
-180, -14, 165, 97, -173, 75, 151, 141, 151, 53, 9, -53, 
-180, -14, 165, 97, -173, 75, 151, 141, 156, 58, 9, -53, 
-180, -14, 165, 97, -173, 75, 151, 141, 156, 58, 9, -53, 
-190, -9, 180, 100, -185, 85, 161, 141, 156, 48, 9, -53, 
-190, -9, 180, 100, -185, 85, 161, 141, 156, 48, 9, -53, 
-185, -9, 175, 97, -180, 82, 161, 141, 161, 48, 9, -53, 
-185, -4, 180, 95, -183, 87, 161, 141, 161, 43, 9, -53, 
-185, -14, 170, 100, -178, 78, 151, 141, 161, 53, 0, -53, 
-185, -9, 175, 97, -180, 82, 151, 141, 161, 53, 0, -53, 
-185, -9, 175, 97, -180, 82, 151, 136, 161, 53, 0, -53, 
-185, -9, 175, 97, -180, 82, 151, 136, 151, 53, 0, -53, 
-180, -9, 170, 95, -175, 80, 151, 126, 151, 43, 0, -68, 
-175, -9, 165, 92, -170, 78, 151, 126, 151, 43, 0, -68, 
-170, -4, 165, 87, -168, 80, 146, 126, 151, 43, -4, -68, 
-165, -4, 161, 85, -163, 78, 146, 126, 151, 43, -4, -68, 
-180, -19, 161, 100, -170, 70, 151, 126, 156, 43, -9, -58, 
-180, -19, 161, 100, -170, 70, 151, 126, 156, 43, -9, -58, 
-180, -19, 161, 100, -170, 70, 151, 122, 156, 43, -9, -58, 
-180, -19, 161, 100, -170, 70, 151, 122, 156, 39, -14, -63, 
-190, -14, 175, 102, -183, 80, 161, 122, 165, 48, -14, -63, 
-195, -14, 180, 104, -187, 82, 161, 126, 161, 48, -14, -63, 
-195, -14, 180, 104, -187, 82, 161, 131, 161, 48, -14, -63, 
-195, -14, 180, 104, -187, 82, 161, 136, 161, 43, -24, -63, 
-185, -14, 170, 100, -178, 78, 156, 126, 151, 34, -14, -63, 
-185, -14, 170, 100, -178, 78, 151, 126, 151, 34, -19, -68, 
-195, -14, 180, 104, -187, 82, 146, 122, 151, 29, -24, -68, 
-200, -14, 185, 107, -192, 85, 141, 122, 151, 29, -24, -68, 
-195, -19, 175, 107, -185, 78, 141, 112, 151, 14, -43, -78, 
-185, -19, 165, 102, -175, 73, 136, 112, 151, 14, -43, -82, 
-175, -19, 156, 97, -165, 68, 136, 107, 151, 14, -43, -82, 
-165, -14, 151, 90, -158, 68, 136, 107, 151, 14, -48, -92, 
-170, -24, 146, 97, -158, 61, 146, 117, 151, 14, -39, -82, 
-185, -24, 161, 104, -173, 68, 146, 117, 161, 19, -39, -78, 
-195, -24, 170, 109, -183, 73, 146, 112, 161, 24, -39, -78, 
-200, -29, 170, 114, -185, 70, 146, 112, 161, 29, -39, -82, 
-209, -29, 180, 119, -195, 75, 156, 112, 161, 14, -43, -92, 
-209, -29, 180, 119, -195, 75, 156, 112, 161, 14, -43, -92, 
-209, -29, 180, 119, -195, 75, 156, 112, 161, 14, -43, -92, 
-209, -29, 180, 119, -195, 75, 156, 112, 161, 14, -43, -97, 
-204, -29, 175, 117, -190, 73, 151, 107, 151, 4, -53, -97, 
-200, -24, 175, 112, -187, 75, 151, 107, 151, 0, -53, -97, 
-200, -24, 175, 112, -187, 75, 151, 107, 156, 0, -58, -102, 
-200, -24, 175, 112, -187, 75, 151, 102, 156, -4, -63, -112, 
-209, -24, 185, 117, -197, 80, 161, 102, 165, 4, -63, -117, 
-214, -24, 190, 119, -202, 82, 161, 102, 165, 4, -63, -117, 
-214, -24, 190, 119, -202, 82, 161, 102, 165, 4, -63, -117, 
-214, -24, 190, 119, -202, 82, 165, 97, 165, -4, -73, -126, 
-229, -34, 195, 131, -212, 80, 165, 107, 156, -9, -82, -126, 
-229, -29, 200, 129, -214, 85, 165, 107, 156, -9, -87, -131, 
-239, -29, 209, 134, -224, 90, 165, 107, 156, -9, -87, -136, 
-244, -34, 209, 139, -226, 87, 170, 112, 156, -9, -87, -141, 
-248, -34, 214, 141, -231, 90, 170, 102, 161, -29, -97, -136, 
-253, -39, 214, 146, -234, 87, 180, 102, 161, -29, -102, -141, 
-248, -43, 204, 146, -226, 80, 180, 102, 165, -29, -107, -146, 
-244, -43, 200, 143, -222, 78, 185, 102, 165, -29, -107, -151, 
-248, -58, 190, 153, -219, 65, 185, 112, 170, -24, -102, -146, 
-263, -63, 200, 163, -231, 68, 190, 112, 175, -34, -122, -161, 
-273, -78, 195, 175, -234, 58, 195, 122, 185, -39, -126, -161, 
-283, -82, 200, 183, -241, 58, 200, 126, 195, -39, -131, -165, 
-292, -82, 209, 187, -251, 63, 200, 117, 190, -39, -131, -180, 
-307, -78, 229, 192, -268, 75, 204, 117, 190, -48, -141, -195, 
-312, -73, 239, 192, -275, 82, 209, 126, 200, -58, -156, -204, 
-312, -68, 244, 190, -278, 87, 214, 131, 204, -63, -156, -204, 
-336, -73, 263, 204, -300, 95, 229, 141, 209, -63, -161, -209, 
-346, -78, 268, 212, -307, 95, 244, 151, 214, -63, -170, -214, 
-366, -78, 287, 222, -326, 104, 253, 156, 219, -68, -180, -224, 
-370, -78, 292, 224, -331, 107, 258, 161, 234, -68, -185, -234, 
-370, -78, 292, 224, -331, 107, 263, 156, 244, -73, -190, -248, 
-375, -78, 297, 226, -336, 109, 268, 165, 248, -73, -200, -258, 
-390, -87, 302, 239, -346, 107, 283, 180, 263, -73, -204, -268, 
-400, -87, 312, 244, -356, 112, 292, 190, 273, -73, -209, -268, 
-414, -87, 326, 251, -370, 119, 302, 214, 287, -68, -204, -278, 
-429, -87, 341, 258, -385, 126, 312, 219, 297, -63, -209, -283, 
-444, -82, 361, 263, -402, 139, 326, 229, 312, -58, -209, -278, 
-463, -82, 380, 273, -422, 148, 331, 248, 331, -43, -209, -273, 
-468, -87, 380, 278, -424, 146, 341, 258, 336, -48, -200, -278, 
-473, -87, 385, 280, -429, 148, 351, 268, 346, -43, -200, -278, 
-483, -82, 400, 283, -441, 158, 361, 283, 361, -29, -195, -273, 
-488, -78, 409, 283, -448, 165, 370, 297, 380, -19, -185, -273, 
-502, -58, 444, 280, -473, 192, 390, 312, 405, -4, -180, -268, 
-512, -53, 458, 283, -485, 202, 400, 326, 414, 4, -175, -268, 
-522, -48, 473, 285, -497, 212, 400, 336, 429, 24, -170, -258, 
-522, -43, 478, 283, -500, 217, 409, 346, 448, 34, -151, -253, 
-512, -39, 473, 275, -492, 217, 409, 366, 453, 43, -131, -239, 
-512, -24, 488, 268, -500, 231, 409, 375, 463, 53, -126, -234, 
-512, -14, 497, 263, -505, 241, 409, 385, 478, 63, -112, -219, 
-502, 0, 502, 251, -502, 251, 409, 395, 488, 78, -102, -209, 
-488, 24, 512, 231, -500, 268, 409, 400, 492, 102, -82, -200, 
-478, 29, 507, 224, -492, 268, 409, 405, 497, 117, -73, -190, 
-468, 39, 507, 214, -488, 273, 400, 409, 497, 126, -53, -170, 
-448, 43, 492, 202, -470, 268, 390, 414, 497, 141, -39, -151, 
-434, 58, 492, 187, -463, 275, 370, 414, 497, 141, -19, -131, 
-414, 78, 492, 168, -453, 285, 361, 414, 497, 161, 0, -117, 
-390, 97, 488, 146, -439, 292, 351, 414, 497, 175, 14, -102, 
-370, 107, 478, 131, -424, 292, 341, 414, 492, 195, 29, -82, 
-361, 107, 468, 126, -414, 287, 331, 409, 473, 195, 34, -68, 
-331, 117, 448, 107, -390, 283, 312, 405, 473, 200, 48, -53, 
-307, 126, 434, 90, -370, 280, 297, 400, 458, 209, 63, -43, 
-287, 136, 424, 75, -356, 280, 283, 395, 444, 224, 82, -29, 
-258, 141, 400, 58, -329, 270, 268, 380, 444, 224, 87, -19, 
-229, 151, 380, 39, -305, 265, 244, 370, 429, 224, 97, -4, 
-204, 156, 361, 24, -283, 258, 234, 361, 419, 229, 117, 9, 
-180, 165, 346, 7, -263, 256, 219, 351, 400, 229, 122, 19, 
-156, 161, 317, -2, -236, 239, 200, 341, 385, 219, 126, 24, 
-141, 156, 297, -7, -219, 226, 180, 331, 370, 229, 131, 43, 
-122, 156, 278, -17, -200, 217, 165, 317, 356, 229, 141, 53, 
-97, 151, 248, -26, -173, 200, 151, 302, 336, 229, 136, 63, 
-87, 151, 239, -31, -163, 195, 141, 287, 312, 219, 141, 68, 
-73, 146, 219, -36, -146, 183, 126, 273, 297, 214, 146, 73, 
-53, 146, 200, -46, -126, 173, 112, 263, 283, 214, 146, 73, 
-39, 146, 185, -53, -112, 165, 97, 248, 258, 204, 146, 78, 
-14, 151, 165, -68, -90, 158, 78, 224, 239, 200, 136, 82, 
0, 151, 151, -75, -75, 151, 73, 214, 219, 195, 136, 87, 
14, 141, 126, -78, -56, 134, 58, 200, 209, 185, 136, 87, 
19, 131, 112, -75, -46, 122, 48, 190, 195, 180, 131, 87, 
24, 122, 97, -73, -36, 109, 39, 175, 180, 165, 126, 87, 
34, 112, 78, -73, -21, 95, 34, 170, 165, 165, 126, 87, 
34, 112, 78, -73, -21, 95, 29, 161, 151, 165, 126, 87, 
34, 97, 63, -65, -14, 80, 29, 146, 141, 156, 126, 87, 
39, 102, 63, -70, -12, 82, 19, 136, 136, 146, 117, 78, 
43, 102, 58, -73, -7, 80, 14, 126, 122, 131, 112, 78, 
43, 102, 58, -73, -7, 80, 9, 117, 117, 126, 107, 78, 
48, 92, 43, -70, 2, 68, 4, 112, 112, 126, 102, 78, 
48, 68, 19, -58, 14, 43, 0, 112, 102, 112, 102, 68, 
48, 68, 19, -58, 14, 43, -4, 97, 92, 107, 97, 68, 
48, 68, 19, -58, 14, 43, -9, 87, 82, 97, 97, 58, 
48, 68, 19, -58, 14, 43, -9, 78, 73, 97, 92, 58, 
53, 68, 14, -61, 19, 41, -9, 73, 53, 102, 78, 58, 
53, 68, 14, -61, 19, 41, -9, 73, 53, 92, 78, 48, 
48, 58, 9, -53, 19, 34, -9, 68, 53, 82, 73, 43, 
48, 53, 4, -51, 21, 29, -9, 63, 43, 82, 73, 43, 
43, 43, 0, -43, 21, 21, -9, 58, 39, 82, 73, 43, 
43, 29, -14, -36, 29, 7, -9, 58, 39, 82, 68, 48, 
43, 29, -14, -36, 29, 7, -9, 58, 34, 73, 63, 48, 
43, 29, -14, -36, 29, 7, -9, 53, 29, 63, 58, 39, 
43, 29, -14, -36, 29, 7, -19, 48, 34, 58, 63, 34, 
43, 29, -14, -36, 29, 7, -19, 43, 29, 58, 58, 34, 
48, 19, -29, -34, 39, -4, -24, 43, 29, 63, 58, 29, 
48, 19, -29, -34, 39, -4, -24, 43, 29, 63, 58, 29, 
34, 19, -14, -26, 24, 2, -14, 39, 29, 63, 58, 39, 
29, 14, -14, -21, 21, 0, -14, 39, 29, 58, 58, 39, 
24, 0, -24, -12, 24, -12, -9, 39, 24, 58, 58, 39, 
19, -9, -29, -4, 24, -19, -9, 39, 24, 53, 58, 39, 
19, -4, -24, -7, 21, -14, -9, 39, 19, 58, 63, 24, 
24, 0, -24, -12, 24, -12, -9, 29, 19, 53, 58, 24, 
24, 4, -19, -14, 21, -7, -4, 29, 19, 53, 58, 29, 
24, 4, -19, -14, 21, -7, -4, 29, 19, 53, 58, 29, 
39, -9, -48, -14, 43, -29, -19, 19, 19, 43, 53, 19, 
43, -9, -53, -17, 48, -31, -19, 19, 14, 39, 48, 19, 
48, -9, -58, -19, 53, -34, -19, 19, 9, 39, 39, 14, 
58, -9, -68, -24, 63, -39, -19, 14, 9, 39, 34, 14, 
53, 4, -48, -29, 51, -21, -9, 24, 9, 43, 43, 24, 
43, 4, -39, -24, 41, -17, -9, 24, 9, 43, 43, 24, 
39, 0, -39, -19, 39, -19, -9, 19, 9, 43, 43, 24, 
39, 0, -39, -19, 39, -19, -9, 19, 9, 43, 43, 24, 
29, -9, -39, -9, 34, -24, -19, 19, 0, 34, 43, 24, 
24, -9, -34, -7, 29, -21, -19, 19, 0, 34, 39, 19, 
24, -9, -34, -7, 29, -21, -19, 19, 0, 34, 39, 19, 
24, -9, -34, -7, 29, -21, -19, 19, 0, 29, 39, 19, 
34, -9, -43, -12, 39, -26, -9, 19, 9, 39, 39, 19, 
34, -9, -43, -12, 39, -26, -9, 14, 4, 34, 39, 14, 
34, -4, -39, -14, 36, -21, -14, 14, 4, 34, 34, 14, 
34, -4, -39, -14, 36, -21, -14, 14, 4, 29, 34, 19, 
29, 0, -29, -14, 29, -14, -14, 4, 4, 29, 34, 19, 
24, -4, -29, -9, 26, -17, -14, 4, 4, 29, 29, 19, 
19, -4, -24, -7, 21, -14, -14, 4, 4, 29, 29, 14, 
9, -4, -14, -2, 12, -9, -14, 0, 4, 29, 29, 14, 
9, -19, -29, 4, 19, -24, -4, 4, 4, 29, 39, 24, 
9, -19, -29, 4, 19, -24, -4, 9, 4, 29, 39, 19, 
9, -19, -29, 4, 19, -24, -4, 14, 4, 29, 34, 19, 
9, -19, -29, 4, 19, -24, -4, 9, 4, 24, 34, 19, 
19, -14, -34, -2, 26, -24, -9, 9, 0, 24, 34, 9, 
19, -4, -24, -7, 21, -14, -9, 9, 0, 24, 34, 9, 
19, -19, -39, 0, 29, -29, -9, 9, 0, 19, 34, 9, 
19, -19, -39, 0, 29, -29, -9, 9, 0, 19, 29, 9, 
24, -9, -34, -7, 29, -21, -19, 9, 0, 19, 29, 9, 
24, -9, -34, -7, 29, -21, -19, 9, 0, 19, 29, 14, 
29, -9, -39, -9, 34, -24, -19, 9, 0, 19, 29, 14, 
29, -9, -39, -9, 34, -24, -19, 4, 0, 24, 29, 14, 
29, -19, -48, -4, 39, -34, -9, 4, 0, 24, 19, 14, 
19, -19, -39, 0, 29, -29, -9, 4, 0, 19, 19, 14, 
19, -19, -39, 0, 29, -29, -9, 4, 4, 19, 19, 9, 
24, -19, -43, -2, 34, -31, -9, 4, 4, 19, 19, 9, 
14, -9, -24, -2, 19, -17, -9, 4, 0, 24, 24, 9, 
14, -9, -24, -2, 19, -17, -9, 4, 0, 24, 24, 9, 
14, -9, -24, -2, 19, -17, -9, 4, 0, 24, 24, 9, 
14, -9, -24, -2, 19, -17, -9, 4, 0, 24, 24, 9, 
9, 0, -9, -4, 9, -4, -9, -4, 0, 14, 14, 0, 
9, 0, -9, -4, 9, -4, -9, -4, 0, 14, 14, 0, 
9, 0, -9, -4, 9, -4, -9, -4, 4, 14, 14, 0, 
9, 4, -4, -7, 7, 0, -9, -4, 4, 14, 14, 0, 
4, 0, -4, -2, 4, -2, -4, 0, 14, 24, 19, 0, 
-9, -4, 4, 7, -7, 0, 0, 4, 14, 24, 24, 4, 
-14, -14, 0, 14, -7, -7, 4, 9, 14, 24, 24, 9, 
-19, -24, -4, 21, -7, -14, 14, 14, 14, 24, 29, 14, 
-14, -19, -4, 17, -4, -12, 9, 4, 9, 14, 19, 4, 
-4, -14, -9, 9, 2, -12, 4, 9, 4, 14, 24, 4, 
4, -9, -14, 2, 9, -12, 0, 9, 4, 14, 24, 4, 
14, -4, -19, -4, 17, -12, -4, 9, 0, 14, 24, 4, 
9, -14, -24, 2, 17, -19, 0, 9, 0, 24, 19, 4, 
9, -14, -24, 2, 17, -19, 0, 14, 0, 24, 19, 4, 
14, -24, -39, 4, 26, -31, 0, 14, 0, 24, 19, 4, 
14, -24, -39, 4, 26, -31, 0, 14, 0, 24, 19, 4, 
9, -24, -34, 7, 21, -29, 0, 14, 9, 19, 19, 9, 
9, -24, -34, 7, 21, -29, 0, 14, 9, 19, 19, 9, 
9, -19, -29, 4, 19, -24, 0, 14, 9, 24, 24, 9, 
9, -19, -29, 4, 19, -24, 0, 19, 14, 34, 24, 9, 
0, -29, -29, 14, 14, -29, 9, 24, 14, 34, 24, 9, 
4, -19, -24, 7, 14, -21, 9, 24, 9, 29, 24, 9, 
9, -19, -29, 4, 19, -24, 9, 24, 9, 29, 24, 9, 
9, -24, -34, 7, 21, -29, 9, 24, 9, 34, 24, 9, 
0, -24, -24, 12, 12, -24, 9, 24, 9, 29, 29, 9, 
0, -24, -24, 12, 12, -24, 9, 24, 14, 29, 34, 9, 
-4, -29, -24, 17, 9, -26, 14, 34, 14, 29, 34, 9, 
-4, -29, -24, 17, 9, -26, 14, 34, 14, 24, 29, 9, 
-14, -19, -4, 17, -4, -12, 14, 24, 14, 24, 39, 9, 
-14, -19, -4, 17, -4, -12, 14, 24, 14, 29, 39, 9, 
-9, -24, -14, 17, 2, -19, 14, 29, 14, 29, 39, 14, 
-9, -24, -14, 17, 2, -19, 19, 29, 19, 34, 43, 14, 
-19, -34, -14, 26, -2, -24, 19, 39, 29, 43, 43, 14, 
-19, -34, -14, 26, -2, -24, 19, 39, 29, 43, 43, 14, 
-19, -34, -14, 26, -2, -24, 19, 43, 29, 48, 43, 14, 
-29, -34, -4, 31, -12, -19, 24, 48, 34, 48, 43, 14, 
-14, -34, -19, 24, 2, -26, 14, 48, 24, 48, 43, 4, 
-9, -34, -24, 21, 7, -29, 14, 48, 24, 43, 43, 0, 
0, -34, -34, 17, 17, -34, 19, 48, 24, 43, 43, 0, 
4, -34, -39, 14, 21, -36, 19, 48, 24, 43, 43, 0, 
-4, -24, -19, 14, 7, -21, 14, 48, 24, 48, 43, 0, 
-4, -24, -19, 14, 7, -21, 14, 48, 24, 53, 48, 4, 
-4, -19, -14, 12, 4, -17, 14, 48, 24, 53, 53, 4, 
-4, -19, -14, 12, 4, -17, 14, 53, 24, 53, 53, 4, 
4, -9, -14, 2, 9, -12, 14, 43, 19, 53, 43, 4, 
0, -9, -9, 4, 4, -9, 14, 43, 19, 58, 43, 4, 
0, -14, -14, 7, 7, -14, 14, 43, 19, 58, 43, 4, 
4, -14, -19, 4, 12, -17, 14, 48, 19, 58, 43, 4, 
-4, -14, -9, 9, 2, -12, 24, 48, 29, 58, 53, 9, 
-4, -14, -9, 9, 2, -12, 24, 48, 29, 58, 53, 9, 
0, -14, -14, 7, 7, -14, 24, 48, 29, 58, 53, 9, 
0, -9, -9, 4, 4, -9, 24, 53, 29, 63, 63, 9, 
-4, -19, -14, 12, 4, -17, 24, 53, 34, 53, 63, 19, 
-4, -19, -14, 12, 4, -17, 24, 53, 34, 53, 58, 14, 
0, -19, -19, 9, 9, -19, 24, 53, 29, 53, 58, 14, 
0, -19, -19, 9, 9, -19, 24, 53, 29, 53, 58, 14, 
0, -19, -19, 9, 9, -19, 14, 53, 29, 53, 53, 4, 
-4, -19, -14, 12, 4, -17, 14, 53, 29, 53, 53, 4, 
-4, -19, -14, 12, 4, -17, 14, 53, 34, 58, 53, 4, 
0, -19, -19, 9, 9, -19, 14, 53, 34, 58, 58, 9, 
-9, -9, 0, 9, -4, -4, 14, 63, 34, 58, 48, 9, 
-9, -9, 0, 9, -4, -4, 14, 63, 34, 48, 48, 9, 
-9, -9, 0, 9, -4, -4, 14, 63, 34, 58, 48, 9, 
-9, -9, 0, 9, -4, -4, 14, 63, 34, 58, 43, 4, 
-19, -19, 0, 19, -9, -9, 24, 63, 34, 63, 53, 14, 
-24, -14, 9, 19, -17, -2, 24, 58, 29, 63, 53, 19, 
-24, -14, 9, 19, -17, -2, 24, 58, 29, 58, 53, 19, 
-19, -14, 4, 17, -12, -4, 24, 58, 29, 58, 53, 19, 
-4, -14, -9, 9, 2, -12, 14, 48, 29, 53, 48, 19, 
4, -14, -19, 4, 12, -17, 14, 48, 29, 53, 48, 19, 
9, -19, -29, 4, 19, -24, 14, 48, 29, 53, 43, 19, 
14, -24, -39, 4, 26, -31, 14, 53, 29, 53, 43, 19, 
9, -14, -24, 2, 17, -19, 14, 43, 19, 53, 53, 9, 
9, -14, -24, 2, 17, -19, 14, 39, 19, 53, 53, 9, 
9, -14, -24, 2, 17, -19, 9, 39, 19, 53, 58, 9, 
9, -14, -24, 2, 17, -19, 9, 39, 19, 53, 58, 9, 
0, -14, -14, 7, 7, -14, 9, 48, 29, 53, 58, 19, 
4, -14, -19, 4, 12, -17, 9, 48, 29, 48, 53, 14, 
4, -14, -19, 4, 12, -17, 9, 43, 29, 48, 53, 14, 
4, -14, -19, 4, 12, -17, 9, 43, 29, 48, 53, 14, 
-4, -9, -4, 7, 0, -7, 19, 53, 24, 58, 53, 14, 
-4, -14, -9, 9, 2, -12, 19, 53, 24, 58, 53, 14, 
-9, -29, -19, 19, 4, -24, 19, 53, 29, 58, 53, 14, 
-9, -24, -14, 17, 2, -19, 19, 53, 29, 63, 53, 14, 
-19, -14, 4, 17, -12, -4, 19, 53, 29, 53, 53, 24, 
-19, -19, 0, 19, -9, -9, 19, 53, 29, 53, 53, 24, 
-14, -24, -9, 19, -2, -17, 19, 53, 29, 53, 53, 19, 
-14, -29, -14, 21, 0, -21, 19, 48, 29, 39, 48, 14, 
-19, -24, -4, 21, -7, -14, 9, 48, 29, 58, 58, 14, 
-14, -24, -9, 19, -2, -17, 9, 48, 29, 58, 58, 24, 
-4, -19, -14, 12, 4, -17, 9, 48, 29, 58, 58, 24, 
0, -19, -19, 9, 9, -19, 9, 48, 29, 58, 63, 24, 
0, -19, -19, 9, 9, -19, 9, 39, 19, 48, 53, 14, 
0, -19, -19, 9, 9, -19, 9, 39, 19, 48, 53, 14, 
0, -19, -19, 9, 9, -19, 9, 43, 19, 43, 53, 14, 
0, -19, -19, 9, 9, -19, 9, 43, 19, 43, 43, 9, 
-9, -9, 0, 9, -4, -4, 4, 43, 29, 53, 43, 9, 
-4, -9, -4, 7, 0, -7, 4, 43, 24, 53, 43, 9, 
-4, -9, -4, 7, 0, -7, 4, 48, 24, 58, 53, 9, 
-9, -4, 4, 7, -7, 0, 4, 48, 24, 58, 53, 9, 
0, -4, -4, 2, 2, -4, 9, 39, 24, 58, 48, 14, 
0, -14, -14, 7, 7, -14, 9, 43, 24, 58, 48, 14, 
0, -14, -14, 7, 7, -14, 9, 43, 24, 58, 48, 14, 
0, -4, -4, 2, 2, -4, 9, 39, 24, 53, 43, 14, 
-9, -14, -4, 12, -2, -9, 4, 48, 34, 43, 53, 19, 
-9, -14, -4, 12, -2, -9, 4, 48, 29, 53, 53, 19, 
-9, -14, -4, 12, -2, -9, 4, 43, 29, 53, 53, 19, 
-9, -9, 0, 9, -4, -4, 0, 39, 29, 58, 58, 19, 
0, 0, 0, 0, 0, 0, 9, 48, 19, 58, 58, 9, 
0, -14, -14, 7, 7, -14, 9, 48, 19, 48, 58, 9, 
0, -4, -4, 2, 2, -4, 9, 48, 19, 48, 53, 9, 
0, -4, -4, 2, 2, -4, 9, 48, 19, 48, 53, 9, 
4, -4, -9, 0, 7, -7, 4, 39, 19, 53, 43, 19, 
4, -9, -14, 2, 9, -12, 4, 39, 19, 53, 43, 19, 
4, -9, -14, 2, 9, -12, 4, 39, 19, 53, 43, 24, 
0, -9, -9, 4, 4, -9, 4, 43, 19, 53, 48, 24, 
-9, -4, 4, 7, -7, 0, 14, 43, 19, 53, 48, 24, 
-9, -4, 4, 7, -7, 0, 14, 43, 19, 48, 48, 14, 
-9, 0, 9, 4, -9, 4, 14, 43, 19, 48, 48, 14, 
-9, 0, 9, 4, -9, 4, 14, 39, 19, 53, 48, 19, 
0, 0, 0, 0, 0, 0, 4, 29, 19, 43, 48, 9, 
0, 0, 0, 0, 0, 0, 0, 29, 19, 43, 48, 9, 
0, 0, 0, 0, 0, 0, 0, 29, 19, 43, 48, 14, 
0, 0, 0, 0, 0, 0, 0, 29, 19, 39, 48, 14, 
-9, 0, 9, 4, -9, 4, 9, 34, 19, 39, 48, 14, 
-4, 0, 4, 2, -4, 2, 9, 34, 19, 43, 48, 14, 
-4, 0, 4, 2, -4, 2, 9, 34, 19, 43, 48, 19, 
-4, 0, 4, 2, -4, 2, 14, 34, 19, 43, 48, 19, 
-9, -9, 0, 9, -4, -4, 14, 34, 34, 58, 58, 14, 
-14, -9, 4, 12, -9, -2, 14, 34, 34, 58, 58, 14, 
-19, -9, 9, 14, -14, 0, 14, 39, 29, 58, 58, 14, 
-24, -9, 14, 17, -19, 2, 14, 39, 29, 58, 58, 19, 
-9, -9, 0, 9, -4, -4, 9, 29, 24, 53, 48, 19, 
0, -9, -9, 4, 4, -9, 9, 29, 19, 53, 48, 14, 
9, -9, -19, 0, 14, -14, 4, 29, 19, 48, 43, 14, 
14, -14, -29, 0, 21, -21, 0, 29, 14, 43, 39, 14, 
9, -24, -34, 7, 21, -29, 14, 39, 24, 43, 48, 14, 
0, -19, -19, 9, 9, -19, 14, 43, 24, 43, 48, 14, 
-4, -19, -14, 12, 4, -17, 14, 43, 19, 43, 48, 19, 
-9, -14, -4, 12, -2, -9, 14, 43, 19, 43, 48, 24, 
-9, 4, 14, 2, -12, 9, 19, 43, 24, 53, 53, 24, 
0, -4, -4, 2, 2, -4, 9, 39, 24, 58, 53, 14, 
4, -19, -24, 7, 14, -21, 9, 34, 29, 53, 58, 24, 
-19, -29, -9, 24, -4, -19, 19, 48, 29, 68, 68, 19, 
-14, -19, -4, 17, -4, -12, 19, 48, 29, 58, 58, 29, 
-9, -19, -9, 14, 0, -14, 19, 48, 29, 58, 58, 29, 
-4, -19, -14, 12, 4, -17, 19, 48, 29, 58, 58, 29, 
0, -19, -19, 9, 9, -19, 19, 48, 29, 58, 58, 29, 
4, -14, -19, 4, 12, -17, 19, 48, 29, 58, 68, 29, 
9, -9, -19, 0, 14, -14, 19, 48, 29, 58, 68, 29, 
14, -4, -19, -4, 17, -12, 19, 48, 29, 58, 68, 29, 
19, 0, -19, -9, 19, -9, 19, 48, 29, 58, 68, 29, 
19, -9, -29, -4, 24, -19, 19, 58, 29, 58, 63, 24, 
24, -9, -34, -7, 29, -21, 19, 63, 29, 68, 68, 24, 
34, -9, -43, -12, 39, -26, 24, 68, 34, 68, 68, 29, 
48, -9, -58, -19, 53, -34, 29, 82, 34, 68, 68, 29, 
58, 9, -48, -34, 53, -19, 29, 97, 43, 82, 87, 39, 
63, 14, -48, -39, 56, -17, 34, 107, 48, 92, 92, 48, 
68, 19, -48, -43, 58, -14, 39, 107, 68, 102, 97, 53, 
73, 19, -53, -46, 63, -17, 39, 107, 68, 102, 102, 53, 
68, 9, -58, -39, 63, -24, 48, 117, 78, 102, 102, 63, 
58, 4, -53, -31, 56, -24, 48, 117, 78, 102, 102, 63, 
53, 4, -48, -29, 51, -21, 39, 117, 73, 102, 102, 63, 
53, -9, -63, -21, 58, -36, 19, 112, 58, 97, 97, 58, 
58, -9, -68, -24, 63, -39, -14, 78, 34, 82, 82, 43, 
63, -29, -92, -17, 78, -61, -43, 43, 4, 58, 63, 29, 
68, -53, -122, -7, 95, -87, -63, 19, -24, 34, 48, 9, 
63, -82, -146, 9, 104, -114, -78, 9, -48, 19, 29, 4, 
63, -102, -165, 19, 114, -134, -97, -14, -82, 0, 9, -4, 
68, -122, -190, 26, 129, -156, -82, -14, -82, -4, 4, -9, 
78, -122, -200, 21, 139, -161, -82, -4, -82, -9, -4, -9, 
82, -122, -204, 19, 143, -163, -82, -14, -82, -9, -4, -9, 
78, -112, -190, 17, 134, -151, -73, -19, -73, -9, 0, 0, 
102, -97, -200, -2, 151, -148, -73, -19, -73, 0, 4, 0, 
107, -87, -195, -9, 151, -141, -82, -19, -73, 0, 9, 4, 
112, -87, -200, -12, 156, -143, -87, -19, -73, 0, 9, 4, 
117, -87, -204, -14, 161, -146, -92, -29, -82, -4, 4, -4, 
117, -82, -200, -17, 158, -141, -87, -24, -82, -9, 4, -4, 
117, -63, -180, -26, 148, -122, -82, -14, -73, -9, 9, 0, 
112, -53, -165, -29, 139, -109, -78, 0, -58, 0, 19, 4, 
122, -48, -170, -36, 146, -109, -68, 4, -48, 24, 34, 14, 
117, -29, -146, -43, 131, -87, -58, 14, -29, 34, 48, 19, 
112, -4, -117, -53, 114, -61, -53, 19, -19, 43, 58, 39, 
102, 4, -97, -53, 100, -46, -43, 19, -4, 53, 58, 39, 
73, 4, -68, -39, 70, -31, -24, 19, 4, 58, 73, 48, 
63, 4, -58, -34, 61, -26, -24, 19, 9, 63, 73, 48, 
48, 9, -39, -29, 43, -14, -24, 19, 14, 68, 73, 48, 
39, 9, -29, -24, 34, -9, -14, 24, 14, 73, 73, 48, 
24, 9, -14, -17, 19, -2, -9, 34, 14, 53, 63, 39, 
14, -4, -19, -4, 17, -12, 0, 39, 14, 48, 58, 34, 
14, -9, -24, -2, 19, -17, 4, 39, 14, 48, 53, 29, 
9, -9, -19, 0, 14, -14, 4, 34, 14, 43, 48, 19, 
0, -19, -19, 9, 9, -19, 4, 34, 4, 34, 34, 4, 
-14, -24, -9, 19, -2, -17, 9, 34, 4, 34, 34, 4, 
-14, -24, -9, 19, -2, -17, 14, 34, 9, 34, 34, 4, 
-14, -14, 0, 14, -7, -7, 14, 34, 9, 39, 34, 4, 
-14, -19, -4, 17, -4, -12, 14, 24, 14, 39, 48, 0, 
-14, -24, -9, 19, -2, -17, 19, 24, 14, 43, 48, 0, 
-9, -34, -24, 21, 7, -29, 19, 24, 14, 43, 43, 4, 
-4, -39, -34, 21, 14, -36, 19, 24, 19, 39, 43, 4, 
-9, -29, -19, 19, 4, -24, 19, 24, 19, 39, 43, 9, 
-14, -24, -9, 19, -2, -17, 19, 29, 19, 39, 43, 14, 
-19, -24, -4, 21, -7, -14, 19, 29, 19, 43, 43, 14, 
-24, -24, 0, 24, -12, -12, 19, 29, 19, 43, 43, 19, 
-29, -24, 4, 26, -17, -9, 19, 29, 19, 43, 43, 14, 
-29, -24, 4, 26, -17, -9, 19, 29, 19, 53, 43, 14, 
-34, -24, 9, 29, -21, -7, 24, 29, 19, 53, 43, 14, 
-39, -24, 14, 31, -26, -4, 24, 29, 19, 53, 43, 14, 
-39, -34, 4, 36, -21, -14, 24, 29, 19, 43, 53, 14, 
-39, -34, 4, 36, -21, -14, 24, 29, 19, 43, 53, 14, 
-43, -34, 9, 39, -26, -12, 29, 34, 19, 43, 53, 14, 
-43, -34, 9, 39, -26, -12, 29, 34, 19, 43, 53, 14, 
-34, -29, 4, 31, -19, -12, 19, 34, 24, 43, 43, 14, 
-34, -24, 9, 29, -21, -7, 19, 34, 24, 43, 43, 14, 
-34, -19, 14, 26, -24, -2, 19, 34, 24, 43, 43, 14, 
-34, -19, 14, 26, -24, -2, 19, 34, 24, 43, 43, 14, 
-34, -29, 4, 31, -19, -12, 19, 34, 24, 39, 43, 14, 
-34, -24, 9, 29, -21, -7, 24, 34, 24, 39, 43, 14, 
-34, -24, 9, 29, -21, -7, 24, 34, 24, 43, 43, 14, 
-34, -24, 9, 29, -21, -7, 24, 39, 24, 43, 43, 14, 
-39, -34, 4, 36, -21, -14, 34, 48, 39, 48, 53, 24, 
-43, -34, 9, 39, -26, -12, 34, 48, 39, 53, 53, 24, 
-53, -34, 19, 43, -36, -7, 34, 48, 39, 58, 53, 24, 
-58, -34, 24, 46, -41, -4, 34, 48, 39, 63, 53, 24, 
-39, -14, 24, 26, -31, 4, 34, 48, 29, 53, 53, 24, 
-29, -14, 14, 21, -21, 0, 34, 39, 29, 53, 43, 24, 
-39, -14, 24, 26, -31, 4, 29, 39, 34, 53, 53, 19, 
-48, -24, 24, 36, -36, 0, 29, 39, 29, 63, 58, 29, 
-43, -24, 19, 34, -31, -2, 29, 39, 29, 68, 58, 39, 
-39, -9, 29, 24, -34, 9, 19, 29, 29, 82, 73, 43, 
-29, 24, 53, 2, -41, 39, -4, 9, 39, 107, 92, 58, 
-4, 58, 63, -26, -34, 61, -29, -53, 29, 117, 122, 82, 
29, 92, 63, -61, -17, 78, -92, -131, -19, 126, 156, 112, 
73, 136, 63, -104, 4, 100, -165, -219, -58, 170, 219, 175, 
136, 209, 73, -173, 31, 141, -229, -258, -48, 268, 317, 273, 
185, 322, 136, -253, 24, 229, -273, -229, 19, 409, 468, 395, 
234, 434, 200, -334, 17, 317, -278, -136, 122, 600, 634, 522, 
268, 531, 263, -400, 2, 397, -278, -43, 229, 761, 790, 649, 
268, 639, 370, -453, -51, 505, -268, -4, 331, 897, 922, 756, 
278, 746, 468, -512, -95, 607, -263, 24, 434, 1034, 1063, 868, 
336, 854, 517, -595, -90, 685, -287, -9, 473, 1122, 1176, 980, 
434, 936, 502, -685, -34, 719, -385, -156, 400, 1098, 1205, 1068, 
546, 1015, 468, -780, 39, 741, -546, -463, 200, 971, 1166, 1117, 
688, 1088, 400, -888, 143, 744, -756, -839, -126, 771, 1093, 1146, 
849, 1127, 278, -988, 285, 702, -985, -1190, -502, 541, 1010, 1185, 
990, 1107, 117, -1049, 436, 612, -1185, -1503, -854, 307, 902, 1176, 
1112, 1029, -82, -1071, 597, 473, -1351, -1839, -1200, 14, 727, 1132, 
1293, 912, -380, -1102, 836, 265, -1551, -2191, -1581, -326, 517, 1049, 
1556, 727, -829, -1141, 1193, -51, -1751, -2444, -1976, -663, 263, 927, 
1810, 439, -1371, -1124, 1590, -466, -1864, -2518, -2298, -985, 0, 732, 
2000, 68, -1932, -1034, 1966, -932, -1883, -2488, -2566, -1307, -307, 488, 
2137, -341, -2479, -897, 2308, -1410, -1859, -2469, -2786, -1683, -707, 180, 
2196, -736, -2932, -729, 2564, -1834, -1795, -2488, -2928, -2083, -1190, -214, 
2020, -1063, -3084, -478, 2552, -2074, -1664, -2513, -2981, -2440, -1654, -600, 
1693, -1327, -3020, -183, 2357, -2174, -1503, -2576, -2991, -2732, -2049, -912, 
1420, -1527, -2947, 53, 2183, -2237, -1400, -2625, -2981, -2932, -2332, -1151, 
1273, -1586, -2859, 156, 2066, -2222, -1317, -2537, -2854, -2913, -2376, -1224, 
1146, -1488, -2635, 170, 1891, -2061, -1185, -2283, -2562, -2630, -2147, -1102, 
1005, -1239, -2244, 117, 1625, -1742, -1029, -1942, -2166, -2200, -1800, -888, 
868, -946, -1815, 39, 1342, -1381, -858, -1551, -1742, -1737, -1405, -639, 
692, -688, -1381, -2, 1037, -1034, -649, -1141, -1302, -1278, -1005, -400, 
492, -453, -946, -19, 719, -700, -444, -771, -902, -873, -663, -229, 
302, -278, -580, -12, 441, -429, -287, -478, -580, -561, -434, -126, 
141, -190, -331, 24, 236, -261, -141, -268, -331, -351, -258, -63, 
34, -136, -170, 51, 102, -153, -34, -122, -165, -190, -141, -24, 
-34, -92, -58, 63, 12, -75, 24, -29, -63, -107, -73, -9, 
-82, -78, 4, 80, -43, -36, 68, 24, 9, -53, -43, -19, 
-136, -78, 58, 107, -97, -9, 117, 78, 63, -4, -19, -34, 
-170, -58, 112, 114, -141, 26, 141, 122, 107, 19, -9, -43, 
-170, -39, 131, 104, -151, 46, 151, 141, 131, 39, 9, -43, 
-175, -39, 136, 107, -156, 48, 161, 141, 126, 48, 9, -43, 
-180, -43, 136, 112, -158, 46, 161, 141, 136, 48, 9, -43, 
-185, -43, 141, 114, -163, 48, 161, 141, 136, 53, 14, -43, 
-190, -43, 146, 117, -168, 51, 161, 141, 136, 58, 19, -39, 
-185, -43, 141, 114, -163, 48, 151, 131, 146, 58, 19, -39, 
-180, -43, 136, 112, -158, 46, 151, 131, 151, 58, 19, -39, 
-175, -43, 131, 109, -153, 43, 151, 131, 151, 58, 19, -39, 
-170, -39, 131, 104, -151, 46, 151, 131, 151, 58, 24, -39, 
-180, -34, 146, 107, -163, 56, 151, 131, 151, 63, 24, -48, 
-180, -29, 151, 104, -165, 61, 151, 131, 151, 63, 24, -43, 
-180, -24, 156, 102, -168, 65, 151, 131, 151, 63, 24, -43, 
-180, -14, 165, 97, -173, 75, 151, 131, 151, 63, 24, -43, 
-180, -14, 165, 97, -173, 75, 151, 141, 161, 63, 14, -43, 
-180, -14, 165, 97, -173, 75, 151, 141, 161, 63, 19, -43, 
-180, -14, 165, 97, -173, 75, 151, 141, 165, 68, 19, -43, 
-180, -14, 165, 97, -173, 75, 151, 141, 165, 68, 19, -43, 
-180, -19, 161, 100, -170, 70, 151, 141, 156, 58, 19, -34, 
-180, -19, 161, 100, -170, 70, 151, 141, 156, 58, 19, -34, 
-175, -19, 156, 97, -165, 68, 151, 141, 161, 58, 19, -34, 
-175, -14, 161, 95, -168, 73, 151, 141, 161, 53, 19, -34, 
-165, -19, 146, 92, -156, 63, 151, 131, 161, 63, 19, -43, 
-165, -19, 146, 92, -156, 63, 151, 131, 161, 63, 19, -43, 
-165, -24, 141, 95, -153, 58, 151, 126, 161, 63, 19, -43, 
-165, -29, 136, 97, -151, 53, 151, 126, 151, 63, 19, -43, 
-170, -19, 151, 95, -161, 65, 161, 126, 161, 63, 19, -48, 
-175, -19, 156, 97, -165, 68, 161, 126, 161, 63, 19, -48, 
-180, -14, 165, 97, -173, 75, 156, 126, 161, 63, 14, -48, 
-185, -14, 170, 100, -178, 78, 156, 126, 161, 63, 14, -48, 
-190, -19, 170, 104, -180, 75, 151, 126, 165, 63, 9, -48, 
-190, -19, 170, 104, -180, 75, 151, 126, 165, 63, 9, -48, 
-190, -19, 170, 104, -180, 75, 151, 122, 165, 63, 9, -48, 
-190, -19, 170, 104, -180, 75, 151, 122, 165, 58, 4, -53, 
-180, -14, 165, 97, -173, 75, 151, 117, 165, 68, 4, -53, 
-185, -14, 170, 100, -178, 78, 151, 117, 161, 68, 4, -53, 
-185, -14, 170, 100, -178, 78, 151, 117, 161, 68, 4, -53, 
-185, -14, 170, 100, -178, 78, 151, 117, 161, 63, -4, -53, 
-185, -24, 161, 104, -173, 68, 151, 126, 170, 53, -4, -53, 
-185, -24, 161, 104, -173, 68, 151, 126, 170, 53, -9, -58, 
-195, -24, 170, 109, -183, 73, 151, 122, 170, 48, -14, -58, 
-200, -24, 175, 112, -187, 75, 151, 122, 170, 48, -14, -58, 
-209, -29, 180, 119, -195, 75, 161, 131, 170, 43, -14, -48, 
-204, -29, 175, 117, -190, 73, 156, 131, 170, 43, -14, -53, 
-200, -29, 170, 114, -185, 70, 156, 126, 170, 43, -14, -53, 
-195, -24, 170, 109, -183, 73, 156, 126, 170, 43, -19, -63, 
-180, -24, 156, 102, -168, 65, 146, 122, 151, 39, -29, -68, 
-185, -24, 161, 104, -173, 68, 146, 117, 161, 39, -29, -68, 
-185, -24, 161, 104, -173, 68, 146, 107, 161, 39, -29, -73, 
-180, -29, 151, 104, -165, 61, 146, 102, 161, 39, -29, -82, 
-190, -19, 170, 104, -180, 75, 146, 112, 161, 34, -34, -82, 
-190, -19, 170, 104, -180, 75, 146, 112, 161, 34, -34, -82, 
-190, -19, 170, 104, -180, 75, 146, 112, 161, 34, -34, -82, 
-190, -19, 170, 104, -180, 75, 146, 112, 161, 34, -34, -87, 
-190, -24, 165, 107, -178, 70, 161, 117, 161, 43, -34, -82, 
-190, -24, 165, 107, -178, 70, 161, 117, 161, 39, -34, -78, 
-195, -29, 165, 112, -180, 68, 161, 117, 165, 39, -39, -78, 
-200, -34, 165, 117, -183, 65, 161, 112, 165, 34, -43, -82, 
-209, -43, 165, 126, -187, 61, 161, 122, 165, 24, -43, -87, 
-214, -43, 170, 129, -192, 63, 161, 122, 165, 24, -43, -87, 
-214, -43, 170, 129, -192, 63, 161, 122, 165, 24, -43, -87, 
-214, -43, 170, 129, -192, 63, 165, 117, 165, 14, -53, -97, 
-209, -43, 165, 126, -187, 61, 165, 117, 165, 9, -53, -97, 
-209, -39, 170, 124, -190, 65, 165, 117, 165, 9, -58, -102, 
-219, -39, 180, 129, -200, 70, 165, 117, 165, 9, -58, -107, 
-224, -43, 180, 134, -202, 68, 170, 122, 165, 9, -58, -112, 
-234, -43, 190, 139, -212, 73, 161, 112, 170, 9, -68, -117, 
-244, -48, 195, 146, -219, 73, 170, 112, 170, 9, -73, -122, 
-244, -53, 190, 148, -217, 68, 170, 112, 175, 9, -78, -126, 
-244, -53, 190, 148, -217, 68, 175, 112, 175, 9, -78, -131, 
-234, -53, 180, 143, -207, 63, 175, 112, 175, -4, -82, -136, 
-244, -53, 190, 148, -217, 68, 180, 112, 175, -14, -102, -151, 
-248, -63, 185, 156, -217, 61, 185, 122, 180, -19, -107, -151, 
-253, -63, 190, 158, -222, 63, 190, 126, 185, -19, -112, -156, 
-268, -73, 195, 170, -231, 61, 200, 126, 190, -19, -112, -151, 
-287, -78, 209, 183, -248, 65, 204, 126, 190, -29, -122, -165, 
-297, -82, 214, 190, -256, 65, 209, 136, 200, -39, -136, -175, 
-302, -87, 214, 195, -258, 63, 214, 141, 204, -43, -136, -175, 
-317, -92, 224, 204, -270, 65, 229, 151, 209, -34, -131, -190, 
-326, -97, 229, 212, -278, 65, 244, 161, 214, -34, -141, -195, 
-346, -97, 248, 222, -297, 75, 253, 165, 219, -39, -151, -204, 
-351, -97, 253, 224, -302, 78, 258, 170, 234, -39, -156, -214, 
-370, -97, 273, 234, -322, 87, 263, 175, 244, -34, -151, -219, 
-375, -97, 278, 236, -326, 90, 268, 185, 248, -34, -161, -229, 
-390, -107, 283, 248, -336, 87, 283, 200, 263, -34, -165, -239, 
-400, -107, 292, 253, -346, 92, 292, 209, 273, -34, -170, -239, 
-400, -107, 292, 253, -346, 92, 292, 214, 278, -34, -175, -244, 
-409, -107, 302, 258, -356, 97, 302, 219, 287, -34, -180, -253, 
-419, -102, 317, 261, -368, 107, 317, 229, 302, -34, -180, -253, 
-434, -102, 331, 268, -383, 114, 322, 248, 322, -24, -180, -253, 
-453, -97, 356, 275, -405, 129, 341, 268, 326, -19, -180, -258, 
-463, -97, 366, 280, -414, 134, 351, 278, 336, -14, -180, -258, 
-478, -92, 385, 285, -431, 146, 361, 292, 351, 0, -175, -253, 
-488, -87, 400, 287, -444, 156, 370, 307, 370, 9, -165, -253, 
-492, -87, 405, 290, -448, 158, 390, 322, 395, 14, -151, -248, 
-502, -82, 419, 292, -461, 168, 400, 336, 405, 24, -146, -248, 
-512, -78, 434, 295, -473, 178, 400, 346, 419, 43, -141, -239, 
-512, -73, 439, 292, -475, 183, 409, 356, 439, 53, -122, -234, 
-522, -58, 463, 290, -492, 202, 409, 375, 444, 73, -102, -219, 
-522, -43, 478, 283, -500, 217, 409, 385, 453, 82, -97, -214, 
-522, -34, 488, 278, -505, 226, 409, 395, 468, 92, -82, -200, 
-512, -19, 492, 265, -502, 236, 409, 405, 478, 107, -73, -190, 
-497, 14, 512, 241, -505, 263, 400, 400, 473, 107, -68, -185, 
-478, 19, 497, 229, -488, 258, 400, 405, 478, 117, -63, -180, 
-458, 29, 488, 214, -473, 258, 390, 409, 478, 122, -48, -165, 
-429, 34, 463, 197, -446, 248, 380, 414, 478, 131, -39, -151, 
-429, 34, 463, 197, -446, 248, 380, 414, 488, 141, -19, -141, 
-414, 48, 463, 183, -439, 256, 370, 414, 488, 161, 0, -126, 
-395, 63, 458, 165, -427, 261, 361, 414, 488, 175, 14, -112, 
-380, 68, 448, 156, -414, 258, 351, 414, 483, 195, 29, -92, 
-370, 78, 448, 146, -409, 263, 341, 419, 473, 204, 43, -73, 
-341, 87, 429, 126, -385, 258, 322, 414, 473, 209, 58, -53, 
-317, 97, 414, 109, -366, 256, 307, 409, 458, 219, 73, -39, 
-297, 107, 405, 95, -351, 256, 292, 405, 444, 234, 92, -19, 
-268, 112, 380, 78, -324, 246, 268, 390, 434, 234, 87, -9, 
-239, 122, 361, 58, -300, 241, 244, 380, 419, 234, 97, 4, 
-214, 126, 341, 43, -278, 234, 234, 370, 409, 239, 117, 19, 
-190, 136, 326, 26, -258, 231, 219, 361, 390, 239, 122, 29, 
-156, 136, 292, 9, -224, 214, 209, 351, 385, 229, 131, 34, 
-141, 136, 278, 2, -209, 207, 190, 341, 370, 239, 141, 53, 
-122, 141, 263, -9, -192, 202, 175, 326, 356, 239, 156, 63, 
-97, 141, 239, -21, -168, 190, 161, 312, 336, 239, 156, 73, 
-78, 151, 229, -36, -153, 190, 131, 287, 312, 229, 156, 68, 
-63, 146, 209, -41, -136, 178, 117, 273, 297, 224, 156, 73, 
-43, 146, 190, -51, -117, 168, 102, 263, 283, 224, 151, 73, 
-29, 146, 175, -58, -102, 161, 87, 248, 258, 214, 146, 78, 
-14, 141, 156, -63, -85, 148, 78, 224, 239, 209, 156, 82, 
0, 141, 141, -70, -70, 141, 73, 214, 219, 204, 156, 87, 
14, 131, 117, -73, -51, 124, 58, 200, 209, 195, 156, 87, 
19, 122, 102, -70, -41, 112, 48, 190, 195, 190, 151, 87, 
34, 122, 87, -78, -26, 104, 48, 175, 190, 185, 146, 87, 
43, 112, 68, -78, -12, 90, 43, 170, 175, 185, 146, 87, 
43, 112, 68, -78, -12, 90, 39, 161, 161, 185, 146, 87, 
43, 97, 53, -70, -4, 75, 39, 146, 151, 175, 146, 87, 
39, 82, 43, -61, -2, 63, 29, 136, 126, 156, 126, 87, 
43, 82, 39, -63, 2, 61, 24, 126, 112, 141, 122, 87, 
43, 82, 39, -63, 2, 61, 19, 117, 107, 136, 117, 87, 
48, 73, 24, -61, 12, 48, 14, 112, 102, 136, 112, 87, 
48, 68, 19, -58, 14, 43, 9, 112, 102, 131, 112, 87, 
48, 68, 19, -58, 14, 43, 4, 97, 92, 126, 107, 87, 
48, 68, 19, -58, 14, 43, 0, 87, 82, 117, 107, 78, 
48, 68, 19, -58, 14, 43, 0, 78, 73, 117, 102, 78, 
53, 68, 14, -61, 19, 41, -9, 73, 63, 112, 97, 78, 
53, 68, 14, -61, 19, 41, -9, 73, 63, 102, 97, 68, 
48, 58, 9, -53, 19, 34, -9, 68, 63, 92, 92, 63, 
48, 53, 4, -51, 21, 29, -9, 63, 53, 92, 92, 63, 
53, 43, -9, -48, 31, 17, -9, 58, 39, 92, 82, 53, 
53, 29, -24, -41, 39, 2, -9, 58, 39, 92, 78, 58, 
53, 29, -24, -41, 39, 2, -9, 58, 34, 82, 73, 58, 
53, 29, -24, -41, 39, 2, -9, 53, 29, 73, 68, 48, 
34, 39, 4, -36, 14, 21, -19, 39, 24, 58, 63, 43, 
34, 39, 4, -36, 14, 21, -19, 34, 19, 58, 58, 43, 
39, 29, -9, -34, 24, 9, -24, 34, 19, 63, 58, 39, 
39, 29, -9, -34, 24, 9, -24, 34, 19, 63, 58, 39, 
43, 19, -24, -31, 34, -2, -14, 29, 19, 73, 68, 48, 
39, 14, -24, -26, 31, -4, -14, 29, 19, 68, 68, 48, 
34, 0, -34, -17, 34, -17, -9, 29, 14, 68, 68, 48, 
29, -9, -39, -9, 34, -24, -9, 29, 14, 63, 68, 48, 
29, 4, -24, -17, 26, -9, -19, 29, 9, 58, 63, 24, 
34, 9, -24, -21, 29, -7, -19, 19, 9, 53, 58, 24, 
34, 14, -19, -24, 26, -2, -14, 19, 9, 53, 58, 29, 
34, 14, -19, -24, 26, -2, -14, 19, 9, 53, 58, 29, 
24, 0, -24, -12, 24, -12, -9, 19, 9, 43, 48, 39, 
24, 0, -24, -12, 24, -12, -9, 19, 4, 39, 48, 39, 
24, 0, -24, -12, 24, -12, -9, 19, 0, 39, 43, 34, 
29, 0, -29, -14, 29, -14, -9, 14, 0, 39, 43, 34, 
29, 4, -24, -17, 26, -9, -9, 24, 0, 43, 53, 34, 
24, 4, -19, -14, 21, -7, -9, 24, 0, 43, 53, 34, 
24, 0, -24, -12, 24, -12, -9, 19, 0, 43, 53, 34, 
29, 0, -29, -14, 29, -14, -9, 19, 0, 43, 53, 34, 
29, 0, -29, -14, 29, -14, -9, 9, 0, 43, 53, 34, 
24, 0, -24, -12, 24, -12, -9, 9, 0, 43, 48, 29, 
24, 0, -24, -12, 24, -12, -9, 9, 0, 43, 48, 29, 
24, 0, -24, -12, 24, -12, -9, 9, 0, 39, 48, 29, 
24, 0, -24, -12, 24, -12, -19, 9, 0, 39, 39, 19, 
24, 0, -24, -12, 24, -12, -19, 4, -4, 34, 39, 14, 
24, 4, -19, -14, 21, -7, -24, 4, -4, 34, 34, 14, 
24, 4, -19, -14, 21, -7, -24, 4, -4, 29, 34, 19, 
34, 14, -19, -24, 26, -2, -34, -4, -14, 19, 34, 9, 
34, 14, -19, -24, 26, -2, -34, -4, -14, 19, 29, 9, 
34, 19, -14, -26, 24, 2, -34, -4, -14, 19, 29, 4, 
29, 24, -4, -26, 17, 9, -34, -9, -14, 19, 29, 4, 
19, 9, -9, -14, 14, 0, -29, 0, -4, 19, 29, 14, 
19, 0, -19, -9, 19, -9, -24, 0, -4, 19, 29, 9, 
19, -9, -29, -4, 24, -19, -19, 0, -4, 19, 24, 9, 
19, -19, -39, 0, 29, -29, -14, -9, -4, 14, 24, 9, 
29, -4, -34, -12, 31, -19, -19, 0, -9, 24, 24, 19, 
29, 4, -24, -17, 26, -9, -19, 0, -9, 24, 24, 19, 
29, -9, -39, -9, 34, -24, -19, 0, -9, 19, 24, 19, 
29, -9, -39, -9, 34, -24, -19, 0, -9, 19, 19, 19, 
19, -9, -29, -4, 24, -19, -9, 0, -9, 9, 29, 19, 
14, -9, -24, -2, 19, -17, -9, 0, -9, 9, 29, 24, 
14, -9, -24, -2, 19, -17, -9, 0, -9, 9, 29, 24, 
9, -9, -19, 0, 14, -14, -9, -4, -9, 14, 29, 24, 
19, -9, -29, -4, 24, -19, -9, -4, -9, 24, 29, 14, 
9, -9, -19, 0, 14, -14, -9, -4, -9, 19, 29, 14, 
9, -9, -19, 0, 14, -14, -9, -4, -4, 19, 29, 9, 
14, -9, -24, -2, 19, -17, -9, -4, -4, 19, 29, 9, 
4, -9, -14, 2, 9, -12, -9, 4, -9, 14, 24, 9, 
4, -9, -14, 2, 9, -12, -9, 4, -9, 14, 24, 9, 
4, -9, -14, 2, 9, -12, -9, 4, -9, 14, 24, 9, 
4, -9, -14, 2, 9, -12, -9, 4, -9, 14, 24, 9, 
9, -9, -19, 0, 14, -14, -9, 4, -9, 14, 24, 19, 
9, -9, -19, 0, 14, -14, -9, 4, -9, 14, 24, 19, 
9, -9, -19, 0, 14, -14, -9, 4, -4, 14, 24, 19, 
9, -4, -14, -2, 12, -9, -9, 4, -4, 14, 24, 19, 
19, -4, -24, -7, 21, -14, -9, 4, -4, 14, 24, 14, 
9, -4, -14, -2, 12, -9, -9, 4, -4, 14, 24, 14, 
9, -9, -19, 0, 14, -14, -9, 4, -4, 14, 19, 14, 
9, -14, -24, 2, 17, -19, -4, 4, -4, 14, 19, 14, 
-4, -14, -9, 9, 2, -12, -4, -4, -4, 24, 19, 14, 
-4, -14, -9, 9, 2, -12, -4, 0, -4, 24, 24, 14, 
-4, -14, -9, 9, 2, -12, -4, 0, 0, 24, 24, 14, 
-4, -14, -9, 9, 2, -12, -4, 0, 0, 24, 24, 14, 
-9, -9, 0, 9, -4, -4, -9, 0, -9, 14, 9, 14, 
-9, -4, 4, 7, -7, 0, -9, 4, -9, 14, 9, 14, 
-4, -9, -4, 7, 0, -7, -9, 4, -9, 14, 9, 14, 
-4, -4, 0, 4, -2, -2, -9, 4, -9, 14, 9, 14, 
-9, -14, -4, 12, -2, -9, 0, 4, 0, 19, 19, 9, 
-9, -14, -4, 12, -2, -9, 0, 4, 0, 19, 19, 9, 
-9, -9, 0, 9, -4, -4, 0, 4, 0, 24, 24, 9, 
-9, -9, 0, 9, -4, -4, 0, 9, 4, 34, 24, 9, 
-9, -19, -9, 14, 0, -14, 0, 14, 4, 24, 14, 9, 
-4, -9, -4, 7, 0, -7, 0, 14, 0, 19, 14, 9, 
0, -9, -9, 4, 4, -9, 0, 14, 0, 19, 14, 9, 
0, -14, -14, 7, 7, -14, 0, 14, 0, 24, 14, 9, 
0, -24, -24, 12, 12, -24, 0, 14, 0, 29, 19, 9, 
0, -24, -24, 12, 12, -24, 0, 14, 4, 29, 24, 9, 
-4, -29, -24, 17, 9, -26, 4, 24, 4, 29, 24, 9, 
-4, -29, -24, 17, 9, -26, 4, 24, 4, 24, 19, 9, 
-4, -24, -19, 14, 7, -21, -4, 24, 4, 24, 19, 9, 
-4, -19, -14, 12, 4, -17, -4, 24, 4, 29, 19, 9, 
0, -19, -19, 9, 9, -19, -4, 29, 4, 29, 19, 14, 
0, -14, -14, 7, 7, -14, 0, 29, 9, 34, 24, 14, 
-9, -24, -14, 17, 2, -19, 0, 29, 0, 43, 29, 14, 
-9, -24, -14, 17, 2, -19, 0, 29, 0, 43, 34, 14, 
-9, -24, -14, 17, 2, -19, 0, 34, 0, 48, 39, 14, 
-19, -24, -4, 21, -7, -14, 4, 39, 4, 48, 43, 14, 
-9, -24, -14, 17, 2, -19, 14, 39, 4, 39, 34, 4, 
-9, -24, -14, 17, 2, -19, 14, 39, 4, 34, 34, 0, 
-4, -24, -19, 14, 7, -21, 19, 39, 4, 34, 34, 0, 
-4, -24, -19, 14, 7, -21, 19, 39, 4, 34, 34, 0, 
-9, -24, -14, 17, 2, -19, 14, 39, 14, 29, 34, 0, 
-14, -24, -9, 19, -2, -17, 14, 39, 14, 34, 39, 4, 
-19, -19, 0, 19, -9, -9, 14, 39, 14, 34, 43, 4, 
-24, -19, 4, 21, -14, -7, 14, 43, 14, 34, 43, 4, 
-14, -24, -9, 19, -2, -17, 14, 43, 9, 34, 34, 4, 
-19, -29, -9, 24, -4, -19, 14, 43, 9, 39, 34, 4, 
-19, -39, -19, 29, 0, -29, 14, 43, 9, 39, 34, 4, 
-14, -43, -29, 29, 7, -36, 14, 48, 9, 39, 34, 4, 
-14, -29, -14, 21, 0, -21, 4, 48, 19, 48, 34, 9, 
-14, -24, -9, 19, -2, -17, 4, 48, 19, 48, 34, 9, 
-9, -19, -9, 14, 0, -14, 4, 48, 19, 48, 34, 9, 
-9, -9, 0, 9, -4, -4, 4, 53, 19, 53, 43, 9, 
-4, 0, 4, 2, -4, 2, 4, 43, 24, 53, 53, 9, 
-4, 0, 4, 2, -4, 2, 4, 43, 24, 53, 48, 4, 
0, 0, 0, 0, 0, 0, 4, 43, 19, 53, 48, 4, 
0, 0, 0, 0, 0, 0, 4, 43, 19, 53, 48, 4, 
-9, -4, 4, 7, -7, 0, 14, 53, 19, 43, 43, 14, 
-14, -9, 4, 12, -9, -2, 14, 53, 19, 43, 43, 14, 
-14, -14, 0, 14, -7, -7, 14, 53, 24, 48, 43, 14, 
-9, -19, -9, 14, 0, -14, 14, 53, 24, 48, 48, 19, 
-9, -19, -9, 14, 0, -14, 14, 53, 24, 58, 58, 19, 
-9, -19, -9, 14, 0, -14, 14, 53, 24, 48, 58, 19, 
-9, -19, -9, 14, 0, -14, 14, 53, 24, 58, 58, 19, 
-9, -19, -9, 14, 0, -14, 14, 53, 24, 58, 53, 14, 
0, -19, -19, 9, 9, -19, 4, 53, 14, 53, 43, 4, 
-4, -14, -9, 9, 2, -12, 4, 48, 9, 53, 43, 9, 
-4, -14, -9, 9, 2, -12, 4, 48, 9, 48, 43, 9, 
0, -14, -14, 7, 7, -14, 4, 48, 9, 48, 43, 9, 
0, -14, -14, 7, 7, -14, 14, 48, 19, 43, 48, 9, 
4, -14, -19, 4, 12, -17, 14, 48, 19, 43, 48, 9, 
4, -19, -24, 7, 14, -21, 14, 48, 19, 43, 43, 9, 
4, -24, -29, 9, 17, -26, 14, 53, 19, 43, 43, 9, 
-9, -14, -4, 12, -2, -9, 4, 53, 9, 43, 34, 9, 
-9, -14, -4, 12, -2, -9, 4, 48, 9, 43, 34, 9, 
-9, -14, -4, 12, -2, -9, 0, 48, 9, 43, 39, 9, 
-9, -14, -4, 12, -2, -9, 0, 48, 9, 43, 39, 9, 
0, -9, -9, 4, 4, -9, 9, 48, 9, 43, 39, 19, 
4, -14, -19, 4, 12, -17, 9, 48, 9, 39, 34, 14, 
4, -19, -24, 7, 14, -21, 9, 43, 9, 39, 34, 14, 
4, -24, -29, 9, 17, -26, 9, 43, 9, 39, 34, 14, 
-4, -14, -9, 9, 2, -12, 19, 43, 4, 48, 43, 14, 
-4, -14, -9, 9, 2, -12, 19, 43, 4, 48, 43, 14, 
-9, -24, -14, 17, 2, -19, 19, 43, 9, 48, 43, 14, 
-9, -14, -4, 12, -2, -9, 19, 43, 9, 53, 43, 14, 
-9, -4, 4, 7, -7, 0, 9, 43, 9, 43, 43, 19, 
-9, -9, 0, 9, -4, -4, 9, 43, 9, 43, 43, 14, 
-4, -14, -9, 9, 2, -12, 9, 43, 9, 43, 43, 4, 
-4, -19, -14, 12, 4, -17, 9, 39, 9, 29, 39, -4, 
-14, -24, -9, 19, -2, -17, 19, 48, 9, 48, 48, 0, 
-14, -24, -9, 19, -2, -17, 19, 48, 9, 48, 48, 14, 
-9, -19, -9, 14, 0, -14, 19, 48, 9, 48, 48, 19, 
-9, -19, -9, 14, 0, -14, 19, 48, 9, 48, 53, 24, 
0, -19, -19, 9, 9, -19, 9, 39, 9, 43, 43, 19, 
0, -19, -19, 9, 9, -19, 9, 39, 9, 39, 43, 14, 
0, -19, -19, 9, 9, -19, 9, 43, 9, 29, 43, 9, 
0, -19, -19, 9, 9, -19, 9, 43, 9, 24, 34, 0, 
0, -9, -9, 4, 4, -9, 4, 34, 9, 34, 34, 9, 
4, -9, -14, 2, 9, -12, 4, 34, 4, 34, 34, 9, 
4, -9, -14, 2, 9, -12, 4, 39, 4, 39, 43, 9, 
0, -4, -4, 2, 2, -4, 4, 39, 4, 39, 43, 9, 
-9, -14, -4, 12, -2, -9, 9, 39, 4, 39, 39, 14, 
-9, -24, -14, 17, 2, -19, 9, 43, 4, 39, 39, 14, 
-9, -24, -14, 17, 2, -19, 9, 43, 4, 39, 39, 14, 
-9, -14, -4, 12, -2, -9, 9, 39, 4, 34, 34, 14, 
-19, -4, 14, 12, -17, 4, 4, 39, 14, 24, 34, 0, 
-19, -4, 14, 12, -17, 4, 4, 39, 9, 34, 34, 0, 
-19, -4, 14, 12, -17, 4, 4, 34, 9, 34, 34, 0, 
-19, 0, 19, 9, -19, 9, 0, 29, 9, 39, 39, 0, 
-9, 0, 9, 4, -9, 4, 0, 19, 0, 39, 29, 9, 
-9, -14, -4, 12, -2, -9, 0, 19, 0, 29, 29, 9, 
-9, -4, 4, 7, -7, 0, 0, 19, 0, 29, 24, 9, 
-9, -4, 4, 7, -7, 0, 0, 19, 0, 29, 24, 9, 
-9, -9, 0, 9, -4, -4, 14, 29, 9, 43, 34, 9, 
-14, -19, -4, 17, -4, -12, 14, 29, 9, 43, 34, 9, 
-19, -24, -4, 21, -7, -14, 14, 29, 9, 43, 34, 14, 
-29, -29, 0, 29, -14, -14, 14, 34, 9, 43, 39, 14, 
-19, -24, -4, 21, -7, -14, 4, 34, 0, 34, 29, 4, 
-19, -24, -4, 21, -7, -14, 4, 34, 0, 29, 29, -4, 
-19, -19, 0, 19, -9, -9, 4, 34, 0, 29, 29, -4, 
-19, -19, 0, 19, -9, -9, 4, 29, 0, 34, 29, 0, 
-4, -14, -9, 9, 2, -12, -4, 19, 0, 34, 39, 9, 
0, -9, -9, 4, 4, -9, -9, 19, 0, 34, 39, 9, 
4, -4, -9, 0, 7, -7, -9, 19, 0, 34, 39, 14, 
9, 0, -9, -4, 9, -4, -9, 19, 0, 29, 39, 14, 
0, -9, -9, 4, 4, -9, 0, 34, 9, 29, 29, 4, 
4, -9, -14, 2, 9, -12, 0, 34, 9, 34, 29, 4, 
4, -9, -14, 2, 9, -12, 0, 34, 9, 34, 29, 9, 
4, -9, -14, 2, 9, -12, 4, 34, 9, 34, 29, 9, 
-4, -9, -4, 7, 0, -7, 4, 43, 4, 29, 39, 14, 
-4, -9, -4, 7, 0, -7, 4, 43, 4, 39, 39, 14, 
4, -9, -14, 2, 9, -12, 4, 48, 9, 39, 39, 24, 
9, 9, 0, -9, 4, 4, 0, 48, 9, 39, 39, 9, 
0, 0, 0, 0, 0, 0, 9, 48, 19, 48, 48, 19, 
0, 0, 0, 0, 0, 0, 9, 48, 19, 48, 48, 19, 
0, 0, 0, 0, 0, 0, 9, 48, 19, 48, 48, 19, 
0, 0, 0, 0, 0, 0, 9, 48, 19, 48, 48, 19, 
4, 0, -4, -2, 4, -2, 9, 58, 19, 48, 43, 24, 
14, 0, -14, -7, 14, -7, 9, 63, 19, 58, 48, 24, 
29, 0, -29, -14, 29, -14, 14, 68, 24, 58, 48, 29, 
48, 0, -48, -24, 48, -24, 19, 82, 24, 58, 48, 29, 
48, 9, -39, -29, 43, -14, 39, 87, 34, 53, 58, 19, 
43, 14, -29, -29, 36, -7, 43, 97, 39, 63, 63, 29, 
39, 19, -19, -29, 29, 0, 48, 97, 58, 73, 68, 34, 
34, 19, -14, -26, 24, 2, 48, 97, 58, 73, 73, 34, 
48, 9, -39, -29, 43, -14, 48, 107, 48, 63, 73, 34, 
48, 4, -43, -26, 46, -19, 48, 107, 48, 63, 73, 34, 
53, 4, -48, -29, 51, -21, 39, 107, 43, 63, 73, 34, 
63, -9, -73, -26, 68, -41, 19, 102, 29, 58, 68, 29, 
63, -9, -73, -26, 68, -41, -14, 68, 14, 53, 63, 34, 
