I, II, III, aVR, aVL, aVF, V1, V2, V3, V4, V5, V6, 
-39, -48, -9, 43, -14, -29, 0, -29, -9, -9, 0, -29, 
-39, -48, -9, 43, -14, -29, 0, -29, -9, -9, 0, -29, 
-39, -48, -9, 43, -14, -29, 0, -29, -9, -9, 0, -29, 
-39, -48, -9, 43, -14, -29, 0, -29, -9, -9, 0, -29, 
-24, -68, -43, 46, 9, -56, 19, 0, 4, 0, -4, -53, 
-19, -87, -68, 53, 24, -78, 29, 19, 19, 9, -9, -78, 
-14, -107, -92, 61, 39, -100, 39, 39, 34, 19, -14, -102, 
-9, -126, -117, 68, 53, -122, 48, 58, 48, 29, -19, -126, 
19, -107, -126, 43, 73, -117, 29, 53, 92, 73, 19, -117, 
48, -97, -146, 24, 97, -122, 9, 48, 126, 117, 48, -117, 
78, -87, -165, 4, 122, -126, -9, 43, 161, 161, 78, -117, 
107, -78, -185, -14, 146, -131, -29, 39, 195, 204, 107, -117, 
131, 92, -39, -112, 85, 26, -146, -87, 239, 346, 258, -4, 
156, 253, 97, -204, 29, 175, -263, -214, 283, 478, 400, 97, 
180, 414, 234, -297, -26, 324, -380, -341, 326, 610, 541, 200, 
204, 575, 370, -390, -82, 473, -497, -468, 370, 741, 683, 302, 
209, 800, 590, -505, -190, 695, -634, -678, 395, 893, 844, 453, 
214, 1024, 810, -619, -297, 917, -771, -878, 419, 1034, 995, 595, 
219, 1249, 1029, -734, -405, 1139, -907, -1078, 444, 1176, 1146, 736, 
224, 1473, 1249, -849, -512, 1361, -1044, -1278, 468, 1317, 1298, 878, 
273, 1620, 1346, -946, -536, 1483, -1190, -1420, 419, 1439, 1444, 1015, 
312, 1766, 1454, -1039, -570, 1610, -1337, -1551, 370, 1551, 1581, 1141, 
351, 1912, 1561, -1132, -605, 1737, -1483, -1683, 322, 1664, 1717, 1268, 
390, 2059, 1668, -1224, -639, 1864, -1629, -1815, 273, 1776, 1854, 1395, 
331, 1903, 1571, -1117, -619, 1737, -1571, -1771, 185, 1688, 1795, 1361, 
273, 1747, 1473, -1010, -600, 1610, -1522, -1737, 97, 1600, 1737, 1327, 
214, 1590, 1376, -902, -580, 1483, -1473, -1703, 9, 1512, 1678, 1293, 
156, 1434, 1278, -795, -561, 1356, -1424, -1668, -78, 1424, 1620, 1259, 
87, 1005, 917, -546, -414, 961, -1156, -1420, -229, 976, 1122, 951, 
29, 585, 556, -307, -263, 570, -897, -1171, -370, 527, 634, 644, 
-29, 165, 195, -68, -112, 180, -639, -922, -512, 78, 146, 336, 
-87, -253, -165, 170, 39, -209, -380, -673, -653, -370, -341, 29, 
-78, -346, -268, 212, 95, -307, -278, -541, -644, -419, -390, -63, 
-78, -439, -361, 258, 141, -400, -175, -409, -634, -468, -439, -156, 
-78, -531, -453, 305, 187, -492, -73, -278, -624, -517, -488, -248, 
-78, -624, -546, 351, 234, -585, 29, -146, -614, -566, -536, -341, 
-97, -556, -458, 326, 180, -507, 48, -117, -507, -478, -463, -302, 
-107, -488, -380, 297, 136, -434, 68, -87, -409, -400, -390, -263, 
-117, -419, -302, 268, 92, -361, 87, -58, -312, -322, -317, -224, 
-126, -351, -224, 239, 48, -287, 107, -29, -214, -244, -244, -185, 
-122, -317, -195, 219, 36, -256, 117, -9, -185, -219, -224, -161, 
-117, -292, -175, 204, 29, -234, 117, 0, -165, -204, -204, -146, 
-112, -268, -156, 190, 21, -212, 117, 9, -146, -190, -185, -131, 
-107, -244, -136, 175, 14, -190, 117, 19, -126, -175, -165, -117, 
-92, -244, -151, 168, 29, -197, 126, 29, -117, -165, -165, -131, 
-87, -244, -156, 165, 34, -200, 126, 39, -117, -165, -165, -136, 
-82, -244, -161, 163, 39, -202, 126, 48, -117, -165, -165, -141, 
-78, -244, -165, 161, 43, -204, 126, 58, -117, -165, -165, -146, 
-68, -239, -170, 153, 51, -204, 126, 73, -102, -156, -165, -136, 
-68, -234, -165, 151, 48, -200, 126, 78, -97, -156, -165, -136, 
-68, -229, -161, 148, 46, -195, 126, 82, -92, -156, -165, -136, 
-68, -224, -156, 146, 43, -190, 126, 87, -87, -156, -165, -136, 
-63, -224, -161, 143, 48, -192, 126, 92, -87, -156, -156, -146, 
-58, -224, -165, 141, 53, -195, 126, 97, -87, -156, -156, -146, 
-53, -224, -170, 139, 58, -197, 126, 102, -87, -156, -156, -146, 
-48, -224, -175, 136, 63, -200, 126, 107, -87, -156, -156, -146, 
-43, -214, -170, 129, 63, -192, 126, 117, -78, -156, -165, -146, 
-39, -214, -175, 126, 68, -195, 126, 117, -78, -156, -165, -146, 
-34, -214, -180, 124, 73, -197, 126, 117, -78, -156, -165, -146, 
-29, -214, -185, 122, 78, -200, 126, 117, -78, -156, -165, -146, 
-19, -214, -195, 117, 87, -204, 126, 122, -78, -156, -175, -146, 
-19, -214, -195, 117, 87, -204, 126, 126, -78, -156, -175, -146, 
-19, -214, -195, 117, 87, -204, 126, 131, -78, -156, -175, -146, 
-19, -214, -195, 117, 87, -204, 126, 136, -78, -156, -175, -146, 
-19, -214, -195, 117, 87, -204, 136, 146, -78, -156, -175, -146, 
-19, -214, -195, 117, 87, -204, 136, 146, -78, -156, -175, -146, 
-19, -214, -195, 117, 87, -204, 136, 146, -78, -156, -175, -146, 
-19, -214, -195, 117, 87, -204, 136, 146, -78, -156, -175, -146, 
-24, -224, -200, 124, 87, -212, 146, 151, -68, -156, -165, -136, 
-29, -224, -195, 126, 82, -209, 146, 156, -68, -156, -165, -136, 
-34, -224, -190, 129, 78, -207, 146, 161, -68, -156, -165, -136, 
-39, -224, -185, 131, 73, -204, 146, 165, -68, -156, -165, -136, 
-39, -224, -185, 131, 73, -204, 146, 175, -68, -165, -175, -136, 
-39, -224, -185, 131, 73, -204, 146, 175, -68, -165, -175, -136, 
-39, -224, -185, 131, 73, -204, 146, 175, -68, -165, -175, -136, 
-39, -224, -185, 131, 73, -204, 146, 175, -68, -165, -175, -136, 
-29, -234, -204, 131, 87, -219, 156, 185, -78, -175, -185, -141, 
-29, -234, -204, 131, 87, -219, 156, 185, -78, -175, -185, -146, 
-29, -234, -204, 131, 87, -219, 156, 185, -78, -175, -185, -151, 
-29, -234, -204, 131, 87, -219, 156, 185, -78, -175, -185, -156, 
-19, -244, -224, 131, 102, -234, 156, 195, -78, -185, -195, -165, 
-19, -244, -224, 131, 102, -234, 156, 195, -78, -185, -195, -165, 
-19, -244, -224, 131, 102, -234, 156, 195, -78, -185, -195, -165, 
-19, -244, -224, 131, 102, -234, 156, 195, -78, -185, -195, -165, 
-9, -244, -234, 126, 112, -239, 165, 200, -87, -185, -204, -175, 
-9, -244, -234, 126, 112, -239, 165, 204, -87, -185, -204, -175, 
-9, -244, -234, 126, 112, -239, 165, 209, -87, -185, -204, -175, 
-9, -244, -234, 126, 112, -239, 165, 214, -87, -185, -204, -175, 
-19, -248, -229, 134, 104, -239, 175, 224, -78, -195, -214, -175, 
-19, -253, -234, 136, 107, -244, 175, 224, -78, -195, -214, -175, 
-19, -258, -239, 139, 109, -248, 175, 224, -78, -195, -214, -175, 
-19, -263, -244, 141, 112, -253, 175, 224, -78, -195, -214, -175, 
-19, -273, -253, 146, 117, -263, 185, 229, -87, -204, -224, -185, 
-19, -273, -253, 146, 117, -263, 185, 234, -87, -204, -224, -185, 
-19, -273, -253, 146, 117, -263, 185, 239, -87, -204, -224, -185, 
-19, -273, -253, 146, 117, -263, 185, 244, -87, -204, -224, -185, 
-9, -283, -273, 146, 131, -278, 195, 248, -87, -214, -234, -195, 
-9, -283, -273, 146, 131, -278, 195, 253, -87, -214, -234, -195, 
-9, -283, -273, 146, 131, -278, 195, 258, -87, -214, -234, -195, 
-9, -283, -273, 146, 131, -278, 195, 263, -87, -214, -234, -195, 
-19, -292, -273, 156, 126, -283, 204, 268, -78, -224, -244, -204, 
-19, -292, -273, 156, 126, -283, 204, 273, -78, -224, -244, -204, 
-19, -292, -273, 156, 126, -283, 204, 278, -78, -224, -244, -204, 
-19, -292, -273, 156, 126, -283, 204, 283, -78, -224, -244, -204, 
-19, -302, -283, 161, 131, -292, 214, 287, -87, -234, -253, -204, 
-19, -302, -283, 161, 131, -292, 214, 292, -87, -234, -253, -204, 
-19, -302, -283, 161, 131, -292, 214, 297, -87, -234, -253, -204, 
-19, -302, -283, 161, 131, -292, 214, 302, -87, -234, -253, -204, 
-19, -307, -287, 163, 134, -297, 224, 317, -87, -244, -263, -214, 
-19, -312, -292, 165, 136, -302, 224, 322, -87, -244, -263, -214, 
-19, -317, -297, 168, 139, -307, 224, 326, -87, -244, -263, -214, 
-19, -322, -302, 170, 141, -312, 224, 331, -87, -244, -263, -214, 
-9, -331, -322, 170, 156, -326, 234, 346, -87, -253, -268, -224, 
-9, -331, -322, 170, 156, -326, 234, 351, -87, -253, -273, -224, 
-9, -331, -322, 170, 156, -326, 234, 356, -87, -253, -278, -224, 
-9, -331, -322, 170, 156, -326, 234, 361, -87, -253, -283, -224, 
-4, -336, -331, 170, 163, -334, 244, 375, -97, -258, -287, -229, 
0, -341, -341, 170, 170, -341, 244, 380, -97, -263, -292, -234, 
4, -346, -351, 170, 178, -348, 244, 385, -97, -268, -297, -239, 
9, -351, -361, 170, 185, -356, 244, 390, -97, -273, -302, -244, 
14, -361, -375, 173, 195, -368, 253, 400, -107, -287, -317, -248, 
19, -361, -380, 170, 200, -370, 253, 409, -107, -292, -322, -253, 
24, -361, -385, 168, 204, -373, 253, 419, -107, -297, -326, -258, 
29, -361, -390, 165, 209, -375, 253, 429, -107, -302, -331, -263, 
39, -366, -405, 163, 222, -385, 258, 439, -117, -307, -346, -268, 
39, -370, -409, 165, 224, -390, 263, 448, -117, -312, -351, -273, 
39, -375, -414, 168, 226, -395, 268, 458, -117, -317, -356, -278, 
39, -380, -419, 170, 229, -400, 273, 468, -117, -322, -361, -283, 
29, -385, -414, 178, 222, -400, 278, 478, -117, -336, -366, -292, 
29, -390, -419, 180, 224, -405, 283, 488, -117, -341, -370, -292, 
29, -395, -424, 183, 226, -409, 287, 497, -117, -346, -375, -292, 
29, -400, -429, 185, 229, -414, 292, 507, -117, -351, -380, -292, 
29, -409, -439, 190, 234, -424, 297, 517, -117, -356, -390, -292, 
29, -409, -439, 190, 234, -424, 302, 527, -117, -361, -390, -292, 
29, -409, -439, 190, 234, -424, 307, 536, -117, -366, -390, -292, 
29, -409, -439, 190, 234, -424, 312, 546, -117, -370, -390, -292, 
29, -414, -444, 192, 236, -429, 317, 556, -126, -375, -400, -302, 
29, -419, -448, 195, 239, -434, 322, 566, -126, -380, -400, -302, 
29, -424, -453, 197, 241, -439, 326, 575, -126, -385, -400, -302, 
29, -429, -458, 200, 244, -444, 331, 585, -126, -390, -400, -302, 
29, -429, -458, 200, 244, -444, 336, 600, -126, -395, -405, -312, 
29, -429, -458, 200, 244, -444, 341, 605, -126, -400, -409, -312, 
29, -429, -458, 200, 244, -444, 346, 610, -126, -405, -414, -312, 
29, -429, -458, 200, 244, -444, 351, 614, -126, -409, -419, -312, 
19, -439, -458, 209, 239, -448, 361, 619, -131, -414, -429, -302, 
19, -439, -458, 209, 239, -448, 361, 624, -136, -419, -429, -302, 
19, -439, -458, 209, 239, -448, 361, 629, -141, -424, -429, -302, 
19, -439, -458, 209, 239, -448, 361, 634, -146, -429, -429, -302, 
19, -429, -448, 204, 234, -439, 361, 634, -146, -439, -439, -312, 
19, -429, -448, 204, 234, -439, 361, 634, -146, -439, -439, -312, 
19, -429, -448, 204, 234, -439, 361, 634, -146, -439, -439, -312, 
19, -429, -448, 204, 234, -439, 361, 634, -146, -439, -439, -312, 
29, -424, -453, 197, 241, -439, 351, 624, -156, -444, -448, -302, 
29, -419, -448, 195, 239, -434, 351, 624, -156, -448, -448, -302, 
29, -414, -444, 192, 236, -429, 351, 624, -156, -453, -448, -302, 
29, -409, -439, 190, 234, -424, 351, 624, -156, -458, -448, -302, 
24, -405, -429, 190, 226, -417, 346, 605, -156, -453, -444, -297, 
19, -400, -419, 190, 219, -409, 341, 595, -156, -448, -439, -292, 
14, -395, -409, 190, 212, -402, 336, 585, -156, -444, -434, -287, 
9, -390, -400, 190, 204, -395, 331, 575, -156, -439, -429, -283, 
0, -380, -380, 190, 190, -380, 322, 556, -146, -429, -409, -273, 
0, -370, -370, 185, 185, -370, 312, 536, -146, -419, -400, -263, 
0, -361, -361, 180, 180, -361, 302, 517, -146, -409, -390, -253, 
0, -351, -351, 175, 175, -351, 292, 497, -146, -400, -380, -244, 
-9, -326, -317, 168, 153, -322, 278, 473, -141, -380, -361, -234, 
-9, -312, -302, 161, 146, -307, 263, 448, -136, -361, -341, -224, 
-9, -297, -287, 153, 139, -292, 248, 424, -131, -341, -322, -214, 
-9, -283, -273, 146, 131, -278, 234, 400, -126, -322, -302, -204, 
0, -263, -263, 131, 131, -263, 219, 375, -112, -292, -273, -185, 
0, -244, -244, 122, 122, -244, 204, 351, -107, -273, -253, -175, 
0, -224, -224, 112, 112, -224, 190, 326, -102, -253, -234, -165, 
0, -204, -204, 102, 102, -204, 175, 302, -97, -234, -214, -156, 
0, -185, -185, 92, 92, -185, 161, 273, -82, -204, -185, -131, 
0, -165, -165, 82, 82, -165, 146, 253, -78, -185, -165, -117, 
0, -146, -146, 73, 73, -146, 131, 234, -73, -165, -146, -102, 
0, -126, -126, 63, 63, -126, 117, 214, -68, -146, -126, -87, 
9, -102, -112, 46, 61, -107, 97, 190, -53, -122, -102, -68, 
9, -87, -97, 39, 53, -92, 87, 175, -48, -107, -87, -58, 
9, -73, -82, 31, 46, -78, 78, 161, -43, -92, -73, -48, 
9, -58, -68, 24, 39, -63, 68, 146, -39, -78, -58, -39, 
9, -48, -58, 19, 34, -53, 53, 131, -34, -58, -48, -24, 
9, -39, -48, 14, 29, -43, 48, 117, -29, -48, -39, -19, 
9, -29, -39, 9, 24, -34, 43, 102, -24, -39, -29, -14, 
9, -19, -29, 4, 19, -24, 39, 87, -19, -29, -19, -9, 
0, -14, -14, 7, 7, -14, 34, 73, -14, -14, -4, -4, 
0, -9, -9, 4, 4, -9, 29, 68, -9, -9, 0, 0, 
0, -4, -4, 2, 2, -4, 24, 63, -4, -4, 4, 4, 
0, 0, 0, 0, 0, 0, 19, 58, 0, 0, 9, 9, 
0, 4, 4, -2, -2, 4, 9, 53, 9, 4, 19, 19, 
0, 9, 9, -4, -4, 9, 9, 48, 9, 9, 19, 19, 
0, 14, 14, -7, -7, 14, 9, 43, 9, 14, 19, 19, 
0, 19, 19, -9, -9, 19, 9, 39, 9, 19, 19, 19, 
0, 19, 19, -9, -9, 19, 0, 29, 9, 19, 29, 9, 
0, 19, 19, -9, -9, 19, 0, 29, 9, 19, 29, 9, 
0, 19, 19, -9, -9, 19, 0, 29, 9, 19, 29, 9, 
0, 19, 19, -9, -9, 19, 0, 29, 9, 19, 29, 9, 
9, 19, 9, -14, 0, 14, 0, 19, 9, 9, 24, 0, 
9, 19, 9, -14, 0, 14, 0, 19, 9, 9, 19, 0, 
9, 19, 9, -14, 0, 14, 0, 19, 9, 9, 14, 0, 
9, 19, 9, -14, 0, 14, 0, 19, 9, 9, 9, 0, 
19, 19, 0, -19, 9, 9, 0, 19, 9, 9, 0, -9, 
19, 19, 0, -19, 9, 9, 0, 19, 9, 9, 0, -9, 
19, 19, 0, -19, 9, 9, 0, 19, 9, 9, 0, -9, 
19, 19, 0, -19, 9, 9, 0, 19, 9, 9, 0, -9, 
19, 19, 0, -19, 9, 9, 0, 19, 9, 9, 0, -9, 
19, 19, 0, -19, 9, 9, 0, 19, 9, 9, 0, -9, 
19, 19, 0, -19, 9, 9, 0, 19, 9, 9, 0, -9, 
19, 19, 0, -19, 9, 9, 0, 19, 9, 9, 0, -9, 
9, 9, 0, -9, 4, 4, 0, 19, 9, 9, 0, 0, 
9, 9, 0, -9, 4, 4, 0, 19, 9, 9, 0, 0, 
9, 9, 0, -9, 4, 4, 0, 19, 9, 9, 0, 0, 
9, 9, 0, -9, 4, 4, 0, 19, 9, 9, 0, 0, 
9, 9, 0, -9, 4, 4, 0, 19, 0, 9, 0, -9, 
9, 9, 0, -9, 4, 4, 0, 19, 0, 9, 0, -9, 
9, 9, 0, -9, 4, 4, 0, 19, 0, 9, 0, -9, 
9, 9, 0, -9, 4, 4, 0, 19, 0, 9, 0, -9, 
9, 0, -9, -4, 9, -4, 0, 19, 0, 9, 0, -9, 
9, 0, -9, -4, 9, -4, 0, 19, 0, 9, 0, -9, 
9, 0, -9, -4, 9, -4, 0, 19, 0, 9, 0, -9, 
9, 0, -9, -4, 9, -4, 0, 19, 0, 9, 0, -9, 
9, 0, -9, -4, 9, -4, 0, 19, 0, 0, 0, -9, 
9, 0, -9, -4, 9, -4, 0, 19, 0, 0, 0, -9, 
9, 0, -9, -4, 9, -4, 0, 19, 0, 0, 0, -9, 
9, 0, -9, -4, 9, -4, 0, 19, 0, 0, 0, -9, 
0, 0, 0, 0, 0, 0, 9, 19, 0, 0, 0, 0, 
0, 0, 0, 0, 0, 0, 9, 19, 0, 0, 0, 0, 
0, 0, 0, 0, 0, 0, 9, 19, 0, 0, 0, 0, 
0, 0, 0, 0, 0, 0, 9, 19, 0, 0, 0, 0, 
0, 0, 0, 0, 0, 0, 9, 19, -9, 0, 0, -9, 
0, 0, 0, 0, 0, 0, 9, 19, -9, 0, 0, -9, 
0, 0, 0, 0, 0, 0, 9, 19, -9, 0, 0, -9, 
0, 0, 0, 0, 0, 0, 9, 19, -9, 0, 0, -9, 
-9, -9, 0, 9, -4, -4, 9, 19, -9, 0, 0, -9, 
-9, -9, 0, 9, -4, -4, 9, 19, -9, 0, 0, -9, 
-9, -9, 0, 9, -4, -4, 9, 19, -9, 0, 0, -9, 
-9, -9, 0, 9, -4, -4, 9, 19, -9, 0, 0, -9, 
-9, -9, 0, 9, -4, -4, 9, 19, -9, -9, -9, -14, 
-9, -9, 0, 9, -4, -4, 9, 19, -9, -9, -9, -19, 
-9, -9, 0, 9, -4, -4, 9, 19, -9, -9, -9, -24, 
-9, -9, 0, 9, -4, -4, 9, 19, -9, -9, -9, -29, 
-9, -9, 0, 9, -4, -4, 9, 19, -9, -9, -9, -19, 
-9, -9, 0, 9, -4, -4, 9, 19, -9, -9, -9, -19, 
-9, -9, 0, 9, -4, -4, 9, 19, -9, -9, -9, -19, 
-9, -9, 0, 9, -4, -4, 9, 19, -9, -9, -9, -19, 
0, -9, -9, 4, 4, -9, 9, 19, -9, -9, -9, -9, 
0, -9, -9, 4, 4, -9, 9, 19, -9, -9, -9, -9, 
0, -9, -9, 4, 4, -9, 9, 19, -9, -9, -9, -9, 
0, -9, -9, 4, 4, -9, 9, 19, -9, -9, -9, -9, 
-9, -9, 0, 9, -4, -4, 19, 9, -9, -19, -9, -9, 
-9, -9, 0, 9, -4, -4, 19, 9, -9, -19, -9, -9, 
-9, -9, 0, 9, -4, -4, 19, 9, -9, -19, -9, -9, 
-9, -9, 0, 9, -4, -4, 19, 9, -9, -19, -9, -9, 
-19, -19, 0, 19, -9, -9, 19, 9, -9, -19, -19, -14, 
-19, -19, 0, 19, -9, -9, 19, 9, -9, -19, -19, -19, 
-19, -19, 0, 19, -9, -9, 19, 9, -9, -19, -19, -24, 
-19, -19, 0, 19, -9, -9, 19, 9, -9, -19, -19, -29, 
-19, -19, 0, 19, -9, -9, 19, 9, -9, -19, -29, -29, 
-19, -19, 0, 19, -9, -9, 19, 9, -9, -19, -29, -29, 
-19, -19, 0, 19, -9, -9, 19, 9, -9, -19, -29, -29, 
-19, -19, 0, 19, -9, -9, 19, 9, -9, -19, -29, -29, 
-9, -19, -9, 14, 0, -14, 9, 0, -19, -19, -29, -29, 
-9, -19, -9, 14, 0, -14, 9, 0, -19, -19, -29, -29, 
-9, -19, -9, 14, 0, -14, 9, 0, -19, -19, -29, -29, 
-9, -19, -9, 14, 0, -14, 9, 0, -19, -19, -29, -29, 
0, -19, -19, 9, 9, -19, 9, 0, -19, -19, -29, -19, 
0, -19, -19, 9, 9, -19, 9, 0, -19, -19, -29, -19, 
0, -19, -19, 9, 9, -19, 9, 0, -19, -19, -29, -19, 
0, -19, -19, 9, 9, -19, 9, 0, -19, -19, -29, -19, 
0, -19, -19, 9, 9, -19, 9, 0, -29, -19, -19, -19, 
0, -19, -19, 9, 9, -19, 9, 0, -29, -19, -19, -19, 
0, -19, -19, 9, 9, -19, 9, 0, -29, -19, -19, -19, 
0, -19, -19, 9, 9, -19, 9, 0, -29, -19, -19, -19, 
0, -19, -19, 9, 9, -19, 9, 0, -19, -19, -19, -19, 
0, -19, -19, 9, 9, -19, 9, 0, -19, -19, -19, -19, 
0, -19, -19, 9, 9, -19, 9, 0, -19, -19, -19, -19, 
0, -19, -19, 9, 9, -19, 9, 0, -19, -19, -19, -19, 
4, -9, -14, 2, 9, -12, 9, 4, -19, -19, -9, -9, 
9, -9, -19, 0, 14, -14, 9, 9, -19, -19, -9, -9, 
14, -9, -24, -2, 19, -17, 9, 14, -19, -19, -9, -9, 
19, -9, -29, -4, 24, -19, 9, 19, -19, -19, -9, -9, 
29, 14, -14, -21, 21, 0, 9, 19, 0, -14, 4, -14, 
34, 24, -9, -29, 21, 7, 14, 29, 4, -4, 9, -9, 
34, 29, -4, -31, 19, 12, 29, 29, 9, 9, 19, -4, 
34, 39, 4, -36, 14, 21, 29, 29, 14, 24, 24, 0, 
24, 58, 34, -41, -4, 46, 34, 34, 34, 34, 29, 4, 
24, 68, 43, -46, -9, 56, 29, 34, 43, 43, 34, 19, 
24, 82, 58, -53, -17, 70, 29, 29, 53, 48, 43, 29, 
24, 102, 78, -63, -26, 90, 29, 29, 63, 63, 53, 39, 
24, 117, 92, -70, -34, 104, 34, 39, 78, 73, 63, 39, 
24, 131, 107, -78, -41, 119, 34, 39, 87, 82, 73, 48, 
24, 151, 126, -87, -51, 139, 34, 34, 97, 87, 82, 58, 
24, 161, 136, -92, -56, 148, 39, 24, 107, 92, 92, 68, 
39, 185, 146, -112, -53, 165, 43, 29, 122, 107, 107, 87, 
48, 204, 156, -126, -53, 180, 39, 34, 131, 112, 117, 92, 
48, 209, 161, -129, -56, 185, 39, 39, 131, 122, 117, 102, 
48, 209, 161, -129, -56, 185, 29, 43, 126, 122, 122, 102, 
63, 219, 156, -141, -46, 187, 24, 48, 141, 122, 126, 107, 
63, 239, 175, -151, -56, 207, 14, 43, 146, 126, 131, 112, 
63, 234, 170, -148, -53, 202, 9, 43, 131, 122, 126, 107, 
63, 234, 170, -148, -53, 202, 9, 43, 131, 117, 122, 112, 
63, 229, 165, -146, -51, 197, 4, 39, 126, 131, 131, 117, 
68, 244, 175, -156, -53, 209, 0, 34, 117, 126, 131, 126, 
68, 229, 161, -148, -46, 195, 4, 34, 117, 112, 117, 126, 
68, 209, 141, -139, -36, 175, -9, 39, 102, 102, 117, 117, 
68, 200, 131, -134, -31, 165, -14, 24, 97, 97, 107, 122, 
68, 175, 107, -122, -19, 141, -24, 19, 82, 87, 97, 107, 
63, 170, 107, -117, -21, 139, -29, 14, 68, 78, 87, 87, 
63, 151, 87, -107, -12, 119, -34, 14, 53, 58, 78, 73, 
53, 126, 73, -90, -9, 100, -39, 9, 39, 43, 58, 63, 
48, 102, 53, -75, -2, 78, -34, 4, 24, 39, 48, 48, 
48, 87, 39, -68, 4, 63, -34, 0, 19, 29, 39, 34, 
43, 78, 34, -61, 4, 56, -34, -4, 14, 19, 29, 24, 
34, 53, 19, -43, 7, 36, -29, -9, 0, 14, 24, 14, 
34, 48, 14, -41, 9, 31, -24, -9, -4, 4, 14, 4, 
24, 24, 0, -24, 12, 12, -19, -14, -4, 0, 4, -4, 
24, 19, -4, -21, 14, 7, -14, -14, -9, -9, -4, -9, 
19, 4, -14, -12, 17, -4, -4, -14, -24, -19, -14, -14, 
14, 4, -9, -9, 12, -2, -4, -19, -24, -19, -14, -14, 
9, 0, -9, -4, 9, -4, -4, -19, -24, -19, -14, -9, 
4, -4, -9, 0, 7, -7, -4, -19, -24, -19, -14, -9, 
-9, -9, 0, 9, -4, -4, -14, -19, -29, -19, -4, 0, 
-9, -9, 0, 9, -4, -4, -14, -19, -29, -19, -9, -4, 
-9, -14, -4, 12, -2, -9, -14, -24, -29, -19, -9, -4, 
-9, -14, -4, 12, -2, -9, -14, -24, -29, -19, -9, -9, 
-14, -24, -9, 19, -2, -17, -14, -34, -34, -29, 0, -9, 
-14, -24, -9, 19, -2, -17, -14, -34, -34, -34, 0, -9, 
-14, -24, -9, 19, -2, -17, -14, -34, -34, -34, -4, -9, 
-14, -24, -9, 19, -2, -17, -14, -34, -34, -34, -4, -9, 
-14, -29, -14, 21, 0, -21, -14, -34, -34, -24, -4, -9, 
-14, -29, -14, 21, 0, -21, -9, -34, -39, -24, -4, -9, 
-14, -29, -14, 21, 0, -21, -9, -34, -39, -29, -9, -9, 
-19, -34, -14, 26, -2, -24, -9, -34, -39, -29, -9, -14, 
-19, -34, -14, 26, -2, -24, -9, -39, -39, -39, -19, -24, 
-19, -34, -14, 26, -2, -24, -9, -39, -39, -39, -19, -24, 
-19, -34, -14, 26, -2, -24, -9, -39, -39, -39, -19, -24, 
-19, -34, -14, 26, -2, -24, -9, -39, -39, -39, -19, -24, 
-19, -43, -24, 31, 2, -34, -9, -39, -39, -39, -29, -24, 
-19, -48, -29, 34, 4, -39, -9, -39, -39, -39, -29, -24, 
-19, -48, -29, 34, 4, -39, -9, -39, -39, -39, -34, -29, 
-24, -48, -24, 36, 0, -36, -9, -39, -39, -39, -34, -29, 
-24, -39, -14, 31, -4, -26, -9, -39, -39, -39, -24, -19, 
-24, -39, -14, 31, -4, -26, -9, -43, -39, -39, -24, -19, 
-24, -39, -14, 31, -4, -26, -9, -43, -39, -39, -24, -19, 
-24, -39, -14, 31, -4, -26, -9, -43, -39, -39, -24, -19, 
-14, -39, -24, 26, 4, -31, -9, -43, -39, -34, -24, -19, 
-14, -39, -24, 26, 4, -31, -9, -43, -39, -34, -24, -19, 
-14, -39, -24, 26, 4, -31, -9, -43, -39, -34, -24, -19, 
-14, -39, -24, 26, 4, -31, -9, -43, -39, -34, -24, -19, 
-14, -39, -24, 26, 4, -31, -9, -43, -39, -39, -29, -24, 
-14, -39, -24, 26, 4, -31, -9, -43, -39, -39, -29, -24, 
-14, -34, -19, 24, 2, -26, -9, -43, -39, -39, -29, -29, 
-14, -34, -19, 24, 2, -26, -9, -43, -39, -39, -29, -34, 
-14, -34, -19, 24, 2, -26, -9, -43, -39, -39, -39, -43, 
-14, -34, -19, 24, 2, -26, -9, -43, -39, -39, -39, -39, 
-14, -34, -19, 24, 2, -26, -9, -48, -39, -39, -39, -39, 
-14, -34, -19, 24, 2, -26, -9, -48, -39, -39, -34, -39, 
-14, -39, -24, 26, 4, -31, -9, -39, -43, -43, -34, -39, 
-14, -39, -24, 26, 4, -31, -9, -39, -43, -39, -34, -39, 
-14, -39, -24, 26, 4, -31, -4, -39, -39, -39, -29, -39, 
-14, -39, -24, 26, 4, -31, -4, -39, -39, -39, -29, -39, 
-14, -29, -14, 21, 0, -21, -14, -43, -39, -29, -19, -29, 
-14, -39, -24, 26, 4, -31, -4, -39, -39, -29, -19, -29, 
-14, -48, -34, 31, 9, -41, -4, -29, -29, -24, -24, -29, 
-14, -58, -43, 36, 14, -51, 4, -14, -14, -19, -14, -43, 
0, -68, -68, 34, 34, -68, 19, 4, 4, -4, -14, -58, 
4, -82, -87, 39, 46, -85, 19, 29, 14, 9, -14, -73, 
9, -102, -112, 46, 61, -107, 34, 43, 29, 24, -19, -97, 
14, -136, -151, 61, 82, -143, 43, 58, 53, 29, -24, -122, 
29, -156, -185, 63, 107, -170, 63, 78, 82, 43, -24, -151, 
53, -165, -219, 56, 136, -192, 48, 78, 136, 92, 14, -161, 
92, -97, -190, 2, 141, -143, 0, 39, 190, 165, 87, -126, 
126, -9, -136, -58, 131, -73, -68, -4, 214, 273, 185, -58, 
151, 102, -48, -126, 100, 26, -161, -82, 239, 380, 297, 14, 
165, 268, 102, -217, 31, 185, -283, -200, 297, 531, 458, 126, 
175, 507, 331, -341, -78, 419, -439, -385, 366, 712, 653, 278, 
190, 756, 566, -473, -187, 661, -619, -619, 419, 888, 849, 444, 
180, 1005, 824, -592, -322, 915, -785, -878, 439, 1039, 1015, 595, 
180, 1210, 1029, -695, -424, 1119, -888, -1058, 463, 1176, 1146, 717, 
185, 1371, 1185, -778, -500, 1278, -976, -1205, 473, 1273, 1244, 829, 
204, 1600, 1395, -902, -595, 1498, -1112, -1410, 439, 1390, 1371, 976, 
239, 1898, 1659, -1068, -710, 1778, -1317, -1649, 424, 1566, 1561, 1176, 
307, 2142, 1834, -1224, -763, 1988, -1512, -1800, 409, 1737, 1766, 1361, 
375, 2205, 1830, -1290, -727, 2017, -1644, -1873, 326, 1805, 1869, 1459, 
414, 2049, 1634, -1232, -610, 1842, -1688, -1859, 156, 1742, 1859, 1434, 
424, 1737, 1312, -1080, -444, 1525, -1644, -1776, 14, 1639, 1781, 1337, 
331, 1512, 1180, -922, -424, 1346, -1542, -1688, -39, 1561, 1732, 1273, 
175, 1464, 1288, -819, -556, 1376, -1459, -1683, -68, 1503, 1698, 1283, 
34, 1381, 1346, -707, -656, 1363, -1361, -1678, -151, 1317, 1551, 1268, 
-53, 1024, 1078, -485, -566, 1051, -1137, -1473, -292, 907, 1122, 1034, 
-87, 356, 444, -134, -265, 400, -736, -1068, -453, 224, 326, 527, 
-92, -317, -224, 204, 65, -270, -356, -668, -619, -488, -488, 0, 
-97, -649, -551, 373, 226, -600, -156, -444, -800, -785, -780, -268, 
-82, -732, -649, 407, 283, -690, -53, -307, -902, -824, -766, -370, 
-73, -756, -683, 414, 305, -719, 24, -175, -849, -780, -732, -424, 
-73, -717, -644, 395, 285, -680, 63, -117, -683, -663, -629, -419, 
-82, -605, -522, 344, 219, -563, 68, -97, -536, -527, -492, -366, 
-68, -507, -439, 287, 185, -473, 78, -68, -419, -419, -395, -302, 
-68, -419, -351, 244, 141, -385, 92, -34, -302, -331, -322, -248, 
-82, -356, -273, 219, 95, -314, 102, -14, -214, -253, -263, -209, 
-102, -307, -204, 204, 51, -256, 117, -14, -180, -214, -224, -175, 
-112, -263, -151, 187, 19, -207, 122, -9, -151, -200, -209, -146, 
-107, -239, -131, 173, 12, -185, 122, 4, -136, -190, -195, -126, 
-102, -229, -126, 165, 12, -178, 122, 19, -126, -180, -185, -117, 
-92, -239, -146, 165, 26, -192, 112, 24, -136, -175, -175, -126, 
-73, -239, -165, 156, 46, -202, 112, 39, -131, -175, -185, -131, 
-73, -253, -180, 163, 53, -217, 117, 48, -141, -175, -180, -136, 
-58, -253, -195, 156, 68, -224, 131, 68, -126, -175, -170, -136, 
-58, -244, -185, 151, 63, -214, 131, 68, -122, -170, -175, -136, 
-58, -239, -180, 148, 61, -209, 131, 73, -112, -170, -175, -136, 
-53, -234, -180, 143, 63, -207, 126, 73, -107, -165, -175, -131, 
-63, -214, -151, 139, 43, -183, 126, 87, -102, -165, -170, -131, 
-53, -214, -161, 134, 53, -187, 126, 97, -97, -156, -170, -131, 
-48, -214, -165, 131, 58, -190, 131, 102, -97, -156, -165, -131, 
-43, -214, -170, 129, 63, -192, 131, 102, -97, -156, -165, -131, 
-39, -214, -175, 126, 68, -195, 122, 107, -92, -156, -175, -141, 
-39, -214, -175, 126, 68, -195, 126, 107, -92, -156, -175, -141, 
-43, -214, -170, 129, 63, -192, 126, 107, -87, -156, -175, -141, 
-43, -214, -170, 129, 63, -192, 126, 117, -87, -156, -175, -141, 
-43, -214, -170, 129, 63, -192, 126, 117, -82, -161, -175, -131, 
-39, -214, -175, 126, 68, -195, 126, 122, -82, -161, -175, -136, 
-39, -214, -175, 126, 68, -195, 126, 126, -82, -161, -175, -136, 
-39, -214, -175, 126, 68, -195, 126, 131, -82, -156, -180, -141, 
-39, -214, -175, 126, 68, -195, 131, 136, -82, -156, -180, -141, 
-34, -214, -180, 124, 73, -197, 131, 136, -82, -156, -180, -141, 
-34, -214, -180, 124, 73, -197, 131, 141, -82, -156, -180, -141, 
-29, -214, -185, 122, 78, -200, 136, 146, -82, -161, -180, -141, 
-39, -214, -175, 126, 68, -195, 141, 151, -82, -161, -180, -141, 
-29, -219, -190, 124, 80, -204, 141, 156, -82, -161, -185, -141, 
-29, -219, -190, 124, 80, -204, 141, 161, -78, -156, -185, -141, 
-29, -219, -190, 124, 80, -204, 141, 161, -78, -156, -180, -141, 
-29, -219, -190, 124, 80, -204, 141, 151, -78, -156, -180, -141, 
-34, -224, -190, 129, 78, -207, 146, 161, -78, -156, -180, -141, 
-34, -224, -190, 129, 78, -207, 146, 165, -78, -161, -180, -141, 
-34, -224, -190, 129, 78, -207, 146, 165, -82, -165, -185, -141, 
-29, -229, -200, 129, 85, -214, 151, 170, -82, -165, -185, -151, 
-29, -229, -200, 129, 85, -214, 151, 175, -82, -165, -185, -151, 
-29, -229, -200, 129, 85, -214, 151, 180, -82, -165, -185, -151, 
-29, -229, -200, 129, 85, -214, 151, 180, -82, -165, -190, -151, 
-29, -229, -200, 129, 85, -214, 151, 190, -78, -165, -190, -141, 
-29, -229, -200, 129, 85, -214, 151, 190, -78, -170, -190, -146, 
-24, -234, -209, 129, 92, -222, 156, 190, -82, -180, -195, -151, 
-24, -234, -209, 129, 92, -222, 161, 195, -82, -185, -190, -156, 
-19, -239, -219, 129, 100, -229, 161, 200, -82, -180, -190, -146, 
-19, -239, -219, 129, 100, -229, 165, 204, -82, -185, -185, -146, 
-19, -239, -219, 129, 100, -229, 165, 209, -82, -185, -185, -146, 
-19, -239, -219, 129, 100, -229, 165, 209, -82, -185, -190, -146, 
-29, -244, -214, 136, 92, -229, 165, 209, -82, -185, -180, -146, 
-29, -248, -219, 139, 95, -234, 165, 214, -82, -185, -185, -151, 
-29, -248, -219, 139, 95, -234, 165, 219, -82, -185, -185, -151, 
-24, -258, -234, 141, 104, -246, 175, 224, -82, -190, -190, -156, 
-24, -258, -234, 141, 104, -246, 180, 229, -73, -190, -190, -165, 
-24, -258, -234, 141, 104, -246, 185, 234, -73, -190, -200, -165, 
-19, -263, -244, 141, 112, -253, 185, 244, -73, -195, -204, -175, 
-19, -268, -248, 143, 114, -258, 185, 244, -73, -195, -204, -175, 
-19, -273, -253, 146, 117, -263, 185, 248, -82, -209, -209, -185, 
-19, -278, -258, 148, 119, -268, 185, 253, -82, -209, -214, -185, 
-19, -278, -258, 148, 119, -268, 185, 258, -87, -214, -224, -190, 
-19, -278, -258, 148, 119, -268, 195, 263, -87, -214, -234, -190, 
-9, -287, -278, 148, 134, -283, 195, 273, -92, -224, -244, -200, 
-9, -287, -278, 148, 134, -283, 195, 278, -82, -224, -244, -200, 
-9, -287, -278, 148, 134, -283, 195, 283, -82, -229, -248, -204, 
-9, -292, -283, 151, 136, -287, 195, 287, -92, -239, -253, -204, 
4, -292, -297, 143, 151, -295, 200, 283, -82, -239, -258, -204, 
4, -297, -302, 146, 153, -300, 204, 287, -82, -239, -263, -204, 
4, -297, -302, 146, 153, -300, 209, 292, -82, -244, -268, -204, 
4, -302, -307, 148, 156, -305, 209, 302, -82, -248, -268, -204, 
-4, -302, -297, 153, 146, -300, 209, 307, -87, -248, -263, -204, 
-4, -307, -302, 156, 148, -305, 209, 312, -87, -248, -268, -209, 
0, -307, -307, 153, 153, -307, 214, 322, -92, -248, -273, -209, 
0, -312, -312, 156, 156, -312, 214, 331, -92, -248, -273, -209, 
-4, -312, -307, 158, 151, -309, 214, 331, -92, -244, -263, -209, 
-4, -322, -317, 163, 156, -319, 224, 341, -92, -244, -273, -219, 
-4, -331, -326, 168, 161, -329, 224, 346, -87, -248, -278, -219, 
-4, -331, -326, 168, 161, -329, 229, 361, -87, -248, -283, -224, 
-4, -326, -322, 165, 158, -324, 239, 361, -92, -258, -287, -224, 
-4, -331, -326, 168, 161, -329, 239, 366, -92, -268, -292, -229, 
0, -336, -336, 168, 168, -336, 244, 380, -92, -273, -292, -234, 
0, -341, -341, 170, 170, -341, 248, 390, -92, -273, -297, -234, 
-4, -346, -341, 175, 168, -344, 244, 400, -92, -268, -302, -234, 
-4, -346, -341, 175, 168, -344, 248, 409, -92, -268, -302, -239, 
-4, -346, -341, 175, 168, -344, 253, 419, -92, -278, -307, -244, 
-4, -351, -346, 178, 170, -348, 258, 429, -92, -283, -312, -244, 
-4, -361, -356, 183, 175, -358, 263, 439, -92, -287, -312, -248, 
0, -361, -361, 180, 180, -361, 268, 448, -92, -292, -317, -253, 
0, -366, -366, 183, 183, -366, 273, 458, -92, -297, -322, -258, 
4, -375, -380, 185, 192, -378, 278, 468, -92, -307, -331, -263, 
14, -380, -395, 183, 204, -387, 273, 468, -107, -317, -336, -253, 
19, -385, -405, 183, 212, -395, 278, 478, -107, -322, -341, -258, 
19, -385, -405, 183, 212, -395, 287, 492, -107, -326, -346, -258, 
19, -385, -405, 183, 212, -395, 292, 502, -107, -336, -356, -263, 
24, -395, -419, 185, 222, -407, 287, 507, -107, -341, -361, -268, 
24, -395, -419, 185, 222, -407, 292, 517, -107, -346, -366, -273, 
24, -395, -419, 185, 222, -407, 297, 527, -107, -351, -366, -273, 
24, -395, -419, 185, 222, -407, 302, 531, -117, -356, -370, -278, 
34, -385, -419, 175, 226, -402, 307, 541, -112, -356, -380, -278, 
34, -390, -424, 178, 229, -407, 312, 551, -117, -361, -385, -283, 
34, -395, -429, 180, 231, -412, 317, 561, -117, -375, -390, -287, 
39, -405, -444, 183, 241, -424, 322, 566, -117, -380, -395, -287, 
39, -405, -444, 183, 241, -424, 326, 585, -117, -390, -409, -297, 
39, -409, -448, 185, 244, -429, 331, 595, -122, -395, -414, -297, 
39, -424, -463, 192, 251, -444, 331, 600, -122, -395, -414, -302, 
39, -414, -453, 187, 246, -434, 336, 605, -122, -405, -419, -302, 
39, -414, -453, 187, 246, -434, 341, 619, -131, -409, -434, -312, 
34, -419, -453, 192, 244, -436, 341, 619, -136, -414, -439, -312, 
29, -434, -463, 202, 246, -448, 341, 619, -136, -419, -444, -312, 
29, -434, -463, 202, 246, -448, 346, 629, -146, -434, -444, -317, 
19, -434, -453, 207, 236, -444, 356, 634, -151, -444, -453, -317, 
19, -429, -448, 204, 234, -439, 356, 639, -151, -444, -448, -307, 
19, -429, -448, 204, 234, -439, 356, 639, -141, -439, -448, -307, 
19, -414, -434, 197, 226, -424, 351, 639, -141, -439, -448, -307, 
9, -409, -419, 200, 214, -414, 351, 644, -141, -448, -453, -302, 
9, -405, -414, 197, 212, -409, 351, 639, -141, -448, -448, -297, 
4, -409, -414, 202, 209, -412, 346, 634, -146, -439, -439, -292, 
0, -409, -409, 204, 204, -409, 341, 619, -146, -434, -434, -287, 
-4, -409, -405, 207, 200, -407, 351, 610, -156, -439, -439, -283, 
-4, -395, -390, 200, 192, -392, 326, 595, -156, -429, -434, -278, 
-4, -390, -385, 197, 190, -387, 322, 590, -151, -429, -424, -268, 
-4, -370, -366, 187, 180, -368, 317, 570, -151, -414, -405, -263, 
-4, -361, -356, 183, 175, -358, 317, 561, -146, -405, -395, -253, 
-4, -356, -351, 180, 173, -353, 307, 541, -146, -395, -385, -248, 
-9, -351, -341, 180, 165, -346, 302, 522, -146, -395, -375, -244, 
-14, -341, -326, 178, 156, -334, 292, 492, -141, -380, -370, -234, 
-4, -331, -326, 168, 161, -329, 283, 473, -141, -370, -361, -234, 
-4, -317, -312, 161, 153, -314, 268, 453, -136, -351, -336, -219, 
-4, -297, -292, 151, 143, -295, 253, 424, -136, -336, -322, -204, 
-4, -278, -273, 141, 134, -275, 234, 409, -122, -312, -302, -190, 
0, -258, -258, 129, 129, -258, 229, 385, -117, -292, -283, -170, 
0, -239, -239, 119, 119, -239, 214, 361, -112, -278, -263, -156, 
0, -219, -219, 109, 109, -219, 195, 336, -107, -253, -244, -151, 
0, -200, -200, 100, 100, -200, 185, 312, -102, -248, -229, -131, 
0, -190, -190, 95, 95, -190, 170, 278, -97, -209, -200, -107, 
0, -170, -170, 85, 85, -170, 156, 263, -87, -195, -180, -97, 
0, -151, -151, 75, 75, -151, 136, 244, -73, -180, -161, -92, 
-4, -136, -131, 70, 63, -134, 122, 219, -68, -161, -151, -82, 
-4, -122, -117, 63, 56, -119, 97, 204, -58, -136, -122, -68, 
0, -102, -102, 51, 51, -102, 92, 180, -48, -117, -112, -53, 
4, -82, -87, 39, 46, -85, 82, 161, -43, -97, -92, -43, 
4, -68, -73, 31, 39, -70, 68, 141, -34, -82, -78, -29, 
4, -58, -63, 26, 34, -61, 58, 122, -29, -63, -58, -29, 
4, -43, -48, 19, 26, -46, 48, 117, -19, -58, -48, -24, 
4, -34, -39, 14, 21, -36, 43, 107, -14, -48, -39, -19, 
4, -24, -29, 9, 17, -26, 39, 97, -9, -39, -39, -19, 
4, -19, -24, 7, 14, -21, 34, 82, -9, -34, -29, -19, 
4, -14, -19, 4, 12, -17, 29, 78, -4, -29, -24, -9, 
4, -9, -14, 2, 9, -12, 24, 73, -4, -19, -14, -9, 
4, -4, -9, 0, 7, -7, 19, 68, -4, -14, -4, -4, 
9, 4, -4, -7, 7, 0, 14, 58, 4, 0, 0, 4, 
9, 9, 0, -9, 4, 4, 14, 53, 4, 0, 0, 9, 
9, 9, 0, -9, 4, 4, 9, 48, 4, 0, 4, 9, 
9, 9, 0, -9, 4, 4, 9, 43, 9, 4, 4, 9, 
9, 19, 9, -14, 0, 14, 9, 39, 9, 9, 14, 9, 
9, 24, 14, -17, -2, 19, 9, 34, 9, 9, 14, 9, 
9, 24, 14, -17, -2, 19, 9, 34, 9, 9, 14, 9, 
9, 24, 14, -17, -2, 19, 0, 29, 9, 9, 14, 9, 
9, 24, 14, -17, -2, 19, 0, 19, 9, 14, 14, 9, 
9, 24, 14, -17, -2, 19, 0, 19, 9, 14, 14, 9, 
9, 24, 14, -17, -2, 19, 0, 19, 9, 14, 14, 9, 
9, 24, 14, -17, -2, 19, 0, 19, 9, 14, 14, 9, 
9, 14, 4, -12, 2, 9, 0, 19, 9, 14, 9, 0, 
9, 14, 4, -12, 2, 9, 0, 19, 9, 14, 9, 0, 
9, 14, 4, -12, 2, 9, 0, 19, 9, 19, 9, 0, 
9, 14, 4, -12, 2, 9, 0, 19, 9, 19, 9, 0, 
9, 14, 4, -12, 2, 9, 0, 24, 19, 19, 9, 0, 
9, 14, 4, -12, 2, 9, 0, 24, 19, 19, 9, 0, 
9, 14, 4, -12, 2, 9, 0, 24, 14, 14, 9, 0, 
9, 14, 4, -12, 2, 9, 0, 24, 14, 14, 9, 0, 
0, 19, 19, -9, -9, 19, 0, 19, 14, 14, 9, 9, 
0, 19, 19, -9, -9, 19, 0, 19, 14, 14, 9, 4, 
0, 19, 19, -9, -9, 19, 4, 19, 14, 9, 9, 4, 
0, 19, 19, -9, -9, 19, 4, 24, 14, 9, 4, 4, 
4, 19, 14, -12, -4, 17, 4, 24, 9, 9, 4, 4, 
0, 19, 19, -9, -9, 19, 4, 24, 9, 9, 4, 4, 
0, 19, 19, -9, -9, 19, 4, 24, 9, 9, 4, 4, 
0, 19, 19, -9, -9, 19, 4, 24, 9, 4, 4, 4, 
0, 19, 19, -9, -9, 19, 4, 14, 9, 14, 4, 4, 
4, 19, 14, -12, -4, 17, 4, 14, 9, 9, 4, 4, 
9, 14, 4, -12, 2, 9, 4, 19, 9, 9, 4, 0, 
9, 14, 4, -12, 2, 9, 4, 19, 9, 9, 4, 0, 
-4, 4, 9, 0, -7, 7, 14, 14, 9, 0, 14, 9, 
-4, 4, 9, 0, -7, 7, 14, 14, 9, 0, 9, 9, 
-4, 4, 9, 0, -7, 7, 14, 14, 14, 0, 9, 9, 
-4, 4, 9, 0, -7, 7, 14, 14, 14, 4, 9, 9, 
-4, 4, 9, 0, -7, 7, 4, 14, 9, 4, 19, 9, 
-4, 4, 9, 0, -7, 7, 4, 14, 9, 4, 19, 9, 
-4, 4, 9, 0, -7, 7, 9, 14, 4, 4, 19, 9, 
-4, 0, 4, 2, -4, 2, 9, 14, 0, 4, 19, 9, 
-4, 9, 14, -2, -9, 12, 0, 14, 0, 4, 9, -4, 
-4, 4, 9, 0, -7, 7, 0, 14, 0, 0, 9, -4, 
0, 4, 4, -2, -2, 4, 4, 14, 4, 0, 9, -4, 
0, 4, 4, -2, -2, 4, 4, 14, 4, 0, 9, -4, 
9, -4, -14, -2, 12, -9, 14, 14, 4, -4, 0, -9, 
9, -9, -19, 0, 14, -14, 14, 14, 0, -4, -4, -14, 
4, -9, -14, 2, 9, -12, 14, 14, 0, -4, -9, -24, 
4, -9, -14, 2, 9, -12, 14, 14, -4, -4, -14, -29, 
-4, -19, -14, 12, 4, -17, 14, 14, -4, -14, -19, -24, 
0, -19, -19, 9, 9, -19, 14, 14, -4, -14, -24, -24, 
0, -19, -19, 9, 9, -19, 9, 19, 0, -14, -24, -24, 
0, -19, -19, 9, 9, -19, 9, 19, 4, -14, -19, -19, 
-4, -14, -9, 9, 2, -12, 14, 19, -4, -14, -24, -9, 
-4, -14, -9, 9, 2, -12, 14, 19, -4, -14, -24, -9, 
-4, -19, -14, 12, 4, -17, 14, 19, -4, -14, -24, -9, 
-4, -19, -14, 12, 4, -17, 9, 19, -4, -14, -24, -9, 
-4, -24, -19, 14, 7, -21, 19, 14, -4, -4, -14, -9, 
-4, -24, -19, 14, 7, -21, 19, 14, -4, -9, -14, -9, 
-4, -24, -19, 14, 7, -21, 19, 14, -4, -9, -14, -9, 
-4, -19, -14, 12, 4, -17, 19, 14, -4, -9, -9, -9, 
-4, -19, -14, 12, 4, -17, 14, 19, -4, -4, -9, -9, 
-4, -19, -14, 12, 4, -17, 14, 19, -4, -4, -9, -9, 
-9, -24, -14, 17, 2, -19, 24, 14, -4, -4, -9, -14, 
-9, -29, -19, 19, 4, -24, 24, 9, -4, -4, -9, -14, 
-9, -29, -19, 19, 4, -24, 19, 14, -14, -4, -9, -24, 
-9, -24, -14, 17, 2, -19, 14, 14, -9, -4, -4, -19, 
-9, -14, -4, 12, -2, -9, 14, 14, -4, 0, -4, -19, 
-9, -14, -4, 12, -2, -9, 14, 14, -4, 4, 0, -14, 
-9, -14, -4, 12, -2, -9, 14, 4, -4, 4, 0, -24, 
-9, -14, -4, 12, -2, -9, 9, 9, -14, 0, 0, -19, 
-9, -14, -4, 12, -2, -9, 9, 9, -14, -4, -4, -14, 
-9, -14, -4, 12, -2, -9, 9, 9, -14, -19, -14, -14, 
-9, -4, 4, 7, -7, 0, 19, 4, -9, -14, -19, -4, 
-9, -19, -9, 14, 0, -14, 19, 4, -9, -14, -24, -9, 
-9, -24, -14, 17, 2, -19, 19, 4, -9, -14, -19, -14, 
-9, -29, -19, 19, 4, -24, 19, 4, -19, -14, -14, -14, 
0, -24, -24, 12, 12, -24, 9, 4, -14, -4, -4, -14, 
0, -24, -24, 12, 12, -24, 9, 4, -14, -9, -9, -4, 
4, -24, -29, 9, 17, -26, 9, 4, -9, -14, -9, -4, 
4, -19, -24, 7, 14, -21, 9, 0, -4, -14, -9, -4, 
4, -9, -14, 2, 9, -12, 19, 19, -14, -9, -4, -4, 
9, -9, -19, 0, 14, -14, 19, 19, -9, -9, 0, 0, 
19, -4, -24, -7, 21, -14, 19, 29, 0, 0, 0, 0, 
19, 0, -19, -9, 19, -9, 19, 29, 0, 0, 0, 0, 
19, 4, -14, -12, 17, -4, 19, 29, 0, 0, 0, 0, 
19, 9, -9, -14, 14, 0, 19, 29, 0, 0, 0, 0, 
29, 24, -4, -26, 17, 9, 19, 29, 24, 9, 4, 0, 
34, 34, 0, -34, 17, 17, 24, 39, 24, 14, 9, 0, 
34, 39, 4, -36, 14, 21, 39, 39, 24, 24, 19, 0, 
34, 48, 14, -41, 9, 31, 39, 39, 24, 34, 24, 0, 
34, 58, 24, -46, 4, 41, 43, 43, 39, 34, 29, 4, 
34, 68, 34, -51, 0, 51, 39, 43, 53, 43, 34, 19, 
34, 82, 48, -58, -7, 65, 39, 39, 68, 48, 43, 29, 
34, 102, 68, -68, -17, 85, 39, 39, 82, 63, 53, 39, 
34, 126, 92, -80, -29, 109, 48, 48, 102, 82, 73, 48, 
34, 141, 107, -87, -36, 124, 43, 48, 107, 92, 82, 58, 
34, 161, 126, -97, -46, 143, 39, 43, 112, 97, 92, 68, 
34, 170, 136, -102, -51, 153, 39, 34, 117, 102, 102, 78, 
39, 190, 151, -114, -56, 170, 43, 29, 131, 112, 112, 92, 
48, 214, 165, -131, -58, 190, 39, 34, 141, 122, 126, 102, 
48, 224, 175, -136, -63, 200, 39, 39, 141, 136, 131, 117, 
48, 229, 180, -139, -65, 204, 29, 43, 136, 141, 141, 122, 
63, 244, 180, -153, -58, 212, 19, 43, 151, 141, 146, 136, 
63, 258, 195, -161, -65, 226, 14, 43, 156, 146, 151, 141, 
63, 248, 185, -156, -61, 217, 14, 48, 141, 141, 146, 136, 
63, 244, 180, -153, -58, 212, 19, 53, 141, 136, 141, 141, 
63, 234, 170, -148, -53, 202, 4, 48, 141, 146, 146, 136, 
68, 244, 175, -156, -53, 209, 0, 43, 126, 136, 141, 136, 
68, 224, 156, -146, -43, 190, 4, 43, 122, 117, 122, 126, 
68, 200, 131, -134, -31, 165, -9, 48, 102, 102, 117, 107, 
78, 195, 117, -136, -19, 156, -19, 34, 97, 97, 112, 112, 
78, 165, 87, -122, -4, 126, -24, 29, 82, 87, 97, 97, 
73, 156, 82, -114, -4, 119, -24, 24, 68, 78, 82, 78, 
73, 131, 58, -102, 7, 95, -24, 24, 53, 58, 68, 63, 
53, 102, 48, -78, 2, 75, -29, 9, 39, 43, 68, 48, 
48, 82, 34, -65, 7, 58, -24, 4, 24, 39, 58, 39, 
48, 73, 24, -61, 12, 48, -24, 0, 19, 29, 48, 29, 
43, 68, 24, -56, 9, 46, -24, -4, 14, 19, 39, 24, 
39, 53, 14, -46, 12, 34, -14, -9, 0, 9, 34, 19, 
34, 48, 14, -41, 9, 31, -14, -9, -4, 4, 24, 14, 
19, 24, 4, -21, 7, 14, -14, -14, -4, 4, 14, 9, 
14, 19, 4, -17, 4, 12, -14, -14, -9, 0, 4, 9, 
4, 4, 0, -4, 2, 2, -4, -14, -14, -9, 4, 4, 
4, 4, 0, -4, 2, 2, -4, -19, -14, -9, 4, 4, 
4, 0, -4, -2, 4, -2, -4, -19, -14, -9, 4, 9, 
4, -4, -9, 0, 7, -7, -4, -19, -14, -9, 4, 9, 
0, -9, -9, 4, 4, -9, -4, -29, -19, -19, -4, 0, 
0, -9, -9, 4, 4, -9, -4, -29, -19, -19, -9, -4, 
0, -14, -14, 7, 7, -14, -4, -34, -19, -19, -9, -4, 
0, -14, -14, 7, 7, -14, -4, -34, -19, -19, -9, -9, 
-14, -24, -9, 19, -2, -17, -14, -34, -34, -19, -9, -9, 
-14, -24, -9, 19, -2, -17, -14, -34, -34, -24, -9, -9, 
-14, -24, -9, 19, -2, -17, -14, -34, -34, -24, -14, -9, 
-14, -24, -9, 19, -2, -17, -14, -34, -34, -24, -14, -9, 
-14, -29, -14, 21, 0, -21, -14, -34, -34, -24, -24, -19, 
-14, -29, -14, 21, 0, -21, -9, -34, -39, -24, -24, -19, 
-14, -29, -14, 21, 0, -21, -9, -34, -39, -29, -29, -19, 
-19, -34, -14, 26, -2, -24, -9, -34, -39, -29, -29, -24, 
-9, -34, -24, 21, 7, -29, -9, -39, -39, -39, -29, -34, 
-9, -34, -24, 21, 7, -29, -9, -39, -39, -39, -29, -34, 
-9, -34, -24, 21, 7, -29, -9, -39, -39, -39, -29, -34, 
-9, -34, -24, 21, 7, -29, -9, -39, -39, -39, -29, -34, 
-9, -34, -24, 21, 7, -29, -9, -39, -39, -29, -29, -34, 
-9, -39, -29, 24, 9, -34, -9, -39, -39, -29, -29, -34, 
-9, -39, -29, 24, 9, -34, -9, -39, -39, -29, -34, -39, 
-14, -39, -24, 26, 4, -31, -9, -39, -39, -29, -34, -39, 
-14, -39, -24, 26, 4, -31, -9, -39, -39, -29, -24, -29, 
-14, -39, -24, 26, 4, -31, -9, -43, -39, -29, -24, -29, 
-14, -39, -24, 26, 4, -31, -9, -43, -39, -29, -24, -29, 
-14, -39, -24, 26, 4, -31, -9, -43, -39, -29, -24, -29, 
-14, -39, -24, 26, 4, -31, -9, -43, -39, -24, -24, -19, 
-14, -39, -24, 26, 4, -31, -9, -43, -39, -24, -24, -19, 
-14, -39, -24, 26, 4, -31, -9, -43, -39, -24, -24, -19, 
-14, -39, -24, 26, 4, -31, -9, -43, -39, -24, -24, -19, 
-14, -39, -24, 26, 4, -31, -9, -43, -39, -29, -19, -19, 
-14, -39, -24, 26, 4, -31, -9, -43, -39, -29, -19, -14, 
-14, -34, -19, 24, 2, -26, -9, -43, -39, -29, -19, -14, 
-14, -34, -19, 24, 2, -26, -9, -43, -39, -29, -19, -14, 
-14, -34, -19, 24, 2, -26, -9, -43, -39, -29, -9, -14, 
-14, -34, -19, 24, 2, -26, -9, -43, -39, -29, -9, -9, 
-14, -34, -19, 24, 2, -26, -9, -48, -39, -29, -9, -9, 
-14, -34, -19, 24, 2, -26, -9, -48, -39, -29, -4, -9, 
-14, -29, -14, 21, 0, -21, -9, -39, -34, -24, -14, -19, 
-14, -29, -14, 21, 0, -21, -9, -39, -34, -19, -14, -19, 
-14, -29, -14, 21, 0, -21, -4, -39, -29, -19, -9, -19, 
-14, -29, -14, 21, 0, -21, -4, -39, -29, -19, -9, -19, 
-14, -29, -14, 21, 0, -21, -4, -43, -29, -19, -9, -19, 
-14, -29, -14, 21, 0, -21, -4, -29, -29, -19, -19, -29, 
-14, -48, -34, 31, 9, -41, 4, -29, -29, -14, -24, -39, 
-4, -48, -43, 26, 19, -46, 14, -4, -14, -9, -24, -53, 
0, -58, -58, 29, 29, -58, 19, 4, -4, 4, -24, -68, 
4, -73, -78, 34, 41, -75, 29, 29, 14, 9, -14, -82, 
9, -102, -112, 46, 61, -107, 34, 43, 39, 24, -29, -97, 
14, -126, -141, 56, 78, -134, 53, 68, 53, 19, -34, -131, 
29, -165, -195, 68, 112, -180, 63, 78, 92, 43, -43, -161, 
53, -165, -219, 56, 136, -192, 58, 78, 136, 82, -14, -161, 
92, -107, -200, 7, 146, -153, 9, 48, 180, 165, 68, -126, 
136, -29, -165, -53, 151, -97, -68, -4, 214, 263, 165, -68, 
161, 82, -78, -122, 119, 2, -151, -73, 229, 370, 278, 4, 
175, 258, 82, -217, 46, 170, -263, -190, 287, 512, 439, 117, 
185, 488, 302, -336, -58, 395, -419, -375, 346, 692, 624, 268, 
190, 736, 546, -463, -178, 641, -610, -610, 400, 868, 819, 424, 
190, 976, 785, -583, -297, 880, -775, -858, 429, 1019, 985, 575, 
190, 1180, 990, -685, -400, 1085, -888, -1049, 453, 1146, 1117, 697, 
195, 1342, 1146, -768, -475, 1244, -956, -1195, 453, 1254, 1215, 800, 
214, 1561, 1346, -888, -566, 1454, -1102, -1390, 429, 1361, 1342, 946, 
258, 1859, 1600, -1058, -671, 1729, -1307, -1629, 405, 1537, 1532, 1156, 
317, 2103, 1786, -1210, -734, 1944, -1503, -1790, 390, 1708, 1737, 1342, 
385, 2176, 1790, -1281, -702, 1983, -1634, -1864, 297, 1776, 1839, 1429, 
434, 2020, 1586, -1227, -575, 1803, -1688, -1849, 136, 1722, 1830, 1405, 
444, 1717, 1273, -1080, -414, 1495, -1634, -1776, -4, 1610, 1751, 1307, 
351, 1483, 1132, -917, -390, 1307, -1542, -1688, -68, 1532, 1703, 1224, 
195, 1424, 1229, -810, -517, 1327, -1449, -1673, -87, 1473, 1659, 1244, 
53, 1351, 1298, -702, -622, 1324, -1351, -1668, -161, 1307, 1522, 1239, 
-34, 1005, 1039, -485, -536, 1022, -1127, -1473, -312, 897, 1102, 1015, 
-78, 356, 434, -139, -256, 395, -736, -1068, -453, 224, 326, 527, 
-92, -317, -224, 204, 65, -270, -356, -668, -629, -478, -488, 0, 
-97, -639, -541, 368, 222, -590, -146, -444, -790, -775, -790, -278, 
-73, -722, -649, 397, 287, -685, -53, -297, -893, -824, -775, -370, 
-63, -746, -683, 405, 309, -714, 24, -175, -839, -780, -722, -424, 
-63, -707, -644, 385, 290, -675, 63, -107, -683, -653, -629, -409, 
-82, -605, -522, 344, 219, -563, 78, -97, -517, -507, -483, -356, 
-87, -497, -409, 292, 161, -453, 87, -58, -409, -400, -375, -283, 
-87, -419, -331, 253, 122, -375, 92, -34, -292, -312, -302, -229, 
-102, -346, -244, 224, 70, -295, 112, -14, -204, -234, -234, -180, 
-131, -297, -165, 214, 17, -231, 117, -14, -161, -195, -195, -156, 
-131, -253, -122, 192, -4, -187, 122, 0, -141, -180, -180, -136, 
-126, -229, -102, 178, -12, -165, 122, 4, -126, -170, -175, -117, 
-112, -229, -117, 170, 2, -173, 122, 19, -126, -170, -165, -117, 
-102, -229, -126, 165, 12, -178, 122, 34, -117, -165, -165, -117, 
-92, -229, -136, 161, 21, -183, 122, 48, -122, -165, -165, -122, 
-82, -244, -161, 163, 39, -202, 117, 58, -122, -165, -161, -126, 
-78, -244, -165, 161, 43, -204, 131, 68, -117, -175, -170, -136, 
-78, -234, -156, 156, 39, -195, 131, 68, -112, -170, -175, -136, 
-78, -229, -151, 153, 36, -190, 131, 73, -102, -170, -175, -136, 
-73, -224, -151, 148, 39, -187, 126, 73, -97, -165, -175, -131, 
-73, -204, -131, 139, 29, -168, 126, 87, -92, -156, -161, -122, 
-63, -204, -141, 134, 39, -173, 126, 97, -87, -146, -161, -122, 
-58, -204, -146, 131, 43, -175, 131, 102, -87, -146, -156, -122, 
-53, -204, -151, 129, 48, -178, 131, 102, -87, -146, -156, -122, 
-39, -204, -165, 122, 63, -185, 122, 107, -82, -156, -165, -131, 
-39, -204, -165, 122, 63, -185, 126, 107, -82, -156, -165, -131, 
-43, -204, -161, 124, 58, -183, 126, 107, -78, -156, -165, -131, 
-43, -204, -161, 124, 58, -183, 126, 117, -78, -156, -165, -131, 
-53, -204, -151, 129, 48, -178, 126, 126, -73, -151, -156, -131, 
-48, -204, -156, 126, 53, -180, 126, 131, -73, -151, -156, -136, 
-48, -204, -156, 126, 53, -180, 126, 136, -73, -151, -156, -136, 
-48, -204, -156, 126, 53, -180, 126, 141, -73, -146, -161, -141, 
-58, -204, -146, 131, 43, -175, 131, 136, -73, -146, -161, -141, 
-53, -204, -151, 129, 48, -178, 131, 136, -73, -146, -161, -141, 
-53, -204, -151, 129, 48, -178, 131, 141, -73, -146, -161, -141, 
-48, -204, -156, 126, 53, -180, 136, 146, -73, -151, -161, -141, 
-48, -204, -156, 126, 53, -180, 141, 151, -73, -151, -161, -141, 
-39, -209, -170, 124, 65, -190, 141, 156, -73, -151, -165, -141, 
-39, -209, -170, 124, 65, -190, 141, 161, -68, -146, -165, -141, 
-39, -209, -170, 124, 65, -190, 141, 161, -68, -146, -161, -141, 
-39, -209, -170, 124, 65, -190, 141, 161, -68, -146, -161, -141, 
-43, -214, -170, 129, 63, -192, 146, 170, -68, -146, -161, -141, 
-43, -214, -170, 129, 63, -192, 146, 175, -68, -151, -161, -141, 
-43, -214, -170, 129, 63, -192, 146, 175, -73, -156, -165, -141, 
-48, -219, -170, 134, 61, -195, 151, 180, -63, -156, -175, -141, 
-48, -219, -170, 134, 61, -195, 151, 185, -63, -156, -175, -141, 
-48, -219, -170, 134, 61, -195, 151, 190, -63, -156, -175, -141, 
-48, -219, -170, 134, 61, -195, 151, 190, -63, -156, -180, -141, 
-48, -229, -180, 139, 65, -204, 151, 200, -68, -156, -175, -141, 
-48, -229, -180, 139, 65, -204, 151, 200, -68, -161, -180, -146, 
-43, -234, -190, 139, 73, -212, 156, 200, -73, -170, -190, -151, 
-43, -234, -190, 139, 73, -212, 161, 204, -73, -175, -190, -156, 
-39, -239, -200, 139, 80, -219, 161, 209, -73, -175, -190, -146, 
-39, -239, -200, 139, 80, -219, 165, 214, -73, -175, -185, -146, 
-39, -239, -200, 139, 80, -219, 165, 219, -73, -170, -185, -146, 
-39, -239, -200, 139, 80, -219, 165, 219, -73, -165, -190, -146, 
-29, -234, -204, 131, 87, -219, 165, 219, -73, -175, -190, -156, 
-29, -239, -209, 134, 90, -224, 165, 224, -73, -175, -195, -161, 
-29, -239, -209, 134, 90, -224, 165, 229, -73, -175, -195, -161, 
-24, -248, -224, 136, 100, -236, 175, 234, -73, -180, -200, -165, 
-24, -248, -224, 136, 100, -236, 180, 239, -73, -180, -209, -165, 
-24, -248, -224, 136, 100, -236, 185, 244, -73, -180, -219, -165, 
-19, -253, -234, 136, 107, -244, 185, 253, -73, -185, -224, -175, 
-19, -258, -239, 139, 109, -248, 185, 253, -73, -185, -224, -175, 
-19, -263, -244, 141, 112, -253, 185, 258, -73, -200, -234, -185, 
-19, -268, -248, 143, 114, -258, 185, 263, -73, -200, -234, -185, 
-19, -268, -248, 143, 114, -258, 185, 268, -78, -204, -239, -190, 
-19, -268, -248, 143, 114, -258, 195, 273, -78, -204, -244, -190, 
-19, -278, -258, 148, 119, -268, 195, 273, -82, -204, -244, -190, 
-19, -278, -258, 148, 119, -268, 195, 278, -73, -204, -244, -190, 
-19, -278, -258, 148, 119, -268, 195, 283, -73, -209, -248, -195, 
-19, -283, -263, 151, 122, -273, 195, 287, -82, -219, -253, -195, 
-14, -283, -268, 148, 126, -275, 200, 292, -73, -219, -253, -195, 
-14, -287, -273, 151, 129, -280, 204, 297, -73, -219, -253, -195, 
-14, -287, -273, 151, 129, -280, 209, 302, -73, -224, -253, -195, 
-14, -292, -278, 153, 131, -285, 209, 312, -73, -229, -248, -195, 
-14, -292, -278, 153, 131, -285, 209, 317, -78, -224, -253, -195, 
-14, -297, -283, 156, 134, -290, 209, 322, -78, -229, -258, -200, 
-9, -297, -287, 153, 139, -292, 214, 331, -82, -234, -263, -200, 
-9, -302, -292, 156, 141, -297, 214, 341, -82, -239, -263, -200, 
-4, -302, -297, 153, 146, -300, 214, 341, -82, -244, -253, -200, 
-4, -312, -307, 158, 151, -309, 224, 351, -82, -244, -263, -209, 
-4, -322, -317, 163, 156, -319, 224, 356, -78, -248, -268, -209, 
-4, -322, -317, 163, 156, -319, 229, 370, -78, -248, -273, -214, 
-4, -317, -312, 161, 153, -314, 229, 370, -82, -248, -287, -214, 
-4, -322, -317, 163, 156, -319, 229, 375, -82, -258, -292, -219, 
0, -326, -326, 163, 163, -326, 234, 390, -82, -263, -292, -224, 
0, -331, -331, 165, 165, -331, 239, 400, -82, -263, -297, -224, 
4, -336, -341, 165, 173, -339, 244, 409, -82, -268, -302, -234, 
4, -336, -341, 165, 173, -339, 248, 419, -82, -268, -302, -239, 
4, -336, -341, 165, 173, -339, 253, 429, -82, -278, -307, -244, 
4, -341, -346, 168, 175, -344, 258, 439, -82, -283, -312, -244, 
4, -351, -356, 173, 180, -353, 253, 448, -92, -287, -312, -248, 
9, -351, -361, 170, 185, -356, 258, 458, -92, -292, -317, -253, 
9, -356, -366, 173, 187, -361, 263, 468, -92, -297, -322, -258, 
14, -366, -380, 175, 197, -373, 268, 478, -92, -307, -331, -263, 
14, -366, -380, 175, 197, -373, 273, 488, -97, -307, -336, -263, 
19, -375, -395, 178, 207, -385, 278, 497, -97, -312, -341, -268, 
19, -380, -400, 180, 209, -390, 287, 512, -97, -317, -346, -268, 
19, -385, -405, 183, 212, -395, 292, 522, -97, -326, -356, -273, 
24, -385, -409, 180, 217, -397, 297, 536, -97, -331, -361, -278, 
24, -385, -409, 180, 217, -397, 302, 546, -97, -336, -366, -283, 
24, -385, -409, 180, 217, -397, 307, 556, -97, -341, -366, -283, 
24, -385, -409, 180, 217, -397, 312, 561, -107, -346, -370, -287, 
24, -385, -409, 180, 217, -397, 317, 570, -102, -356, -380, -287, 
24, -390, -414, 183, 219, -402, 322, 580, -107, -361, -385, -292, 
24, -395, -419, 185, 222, -407, 326, 590, -107, -375, -390, -297, 
29, -405, -434, 187, 231, -419, 331, 595, -107, -380, -395, -297, 
29, -409, -439, 190, 234, -424, 336, 605, -107, -380, -400, -297, 
29, -409, -439, 190, 234, -424, 341, 614, -112, -385, -405, -297, 
29, -419, -448, 195, 239, -434, 341, 619, -112, -385, -405, -302, 
29, -405, -434, 187, 231, -419, 346, 624, -112, -395, -409, -302, 
29, -405, -434, 187, 231, -419, 351, 639, -112, -400, -414, -302, 
24, -409, -434, 192, 229, -422, 351, 639, -117, -405, -419, -302, 
19, -424, -444, 202, 231, -434, 351, 639, -117, -409, -424, -302, 
19, -424, -444, 202, 231, -434, 356, 649, -126, -424, -424, -307, 
19, -424, -444, 202, 231, -434, 366, 653, -131, -424, -434, -307, 
19, -419, -439, 200, 229, -429, 366, 658, -131, -424, -429, -297, 
19, -419, -439, 200, 229, -429, 366, 658, -122, -419, -429, -297, 
19, -405, -424, 192, 222, -414, 361, 658, -122, -419, -429, -297, 
19, -405, -424, 192, 222, -414, 361, 663, -122, -429, -434, -292, 
19, -395, -414, 187, 217, -405, 361, 658, -122, -429, -429, -287, 
14, -395, -409, 190, 212, -402, 356, 653, -126, -419, -419, -283, 
9, -390, -400, 190, 204, -395, 351, 639, -126, -414, -414, -278, 
-4, -400, -395, 202, 195, -397, 361, 634, -126, -419, -414, -273, 
-4, -385, -380, 195, 187, -383, 336, 614, -126, -409, -414, -268, 
-4, -380, -375, 192, 185, -378, 331, 605, -122, -409, -409, -258, 
-4, -361, -356, 183, 175, -358, 326, 580, -122, -395, -395, -253, 
-4, -351, -346, 178, 170, -348, 317, 570, -126, -395, -385, -248, 
-4, -346, -341, 175, 168, -344, 307, 551, -126, -385, -375, -239, 
-9, -341, -331, 175, 161, -336, 302, 531, -126, -385, -366, -229, 
-14, -331, -317, 173, 151, -324, 292, 502, -122, -370, -361, -214, 
-14, -326, -312, 170, 148, -319, 283, 488, -122, -351, -346, -214, 
-14, -307, -292, 161, 139, -300, 268, 463, -117, -331, -317, -200, 
-14, -283, -268, 148, 126, -275, 253, 429, -117, -317, -297, -185, 
-14, -258, -244, 136, 114, -251, 234, 409, -102, -292, -273, -170, 
-9, -248, -239, 129, 114, -244, 219, 385, -97, -278, -253, -161, 
-9, -229, -219, 119, 104, -224, 204, 361, -92, -258, -234, -146, 
-9, -209, -200, 109, 95, -204, 185, 336, -87, -229, -214, -141, 
-9, -190, -180, 100, 85, -185, 175, 312, -82, -219, -200, -122, 
-9, -170, -161, 90, 75, -165, 161, 278, -78, -180, -165, -97, 
-9, -151, -141, 80, 65, -146, 146, 263, -68, -165, -151, -87, 
-9, -131, -122, 70, 56, -126, 126, 244, -53, -151, -136, -82, 
-14, -117, -102, 65, 43, -109, 112, 219, -48, -131, -131, -73, 
-14, -102, -87, 58, 36, -95, 97, 200, -48, -112, -102, -53, 
-9, -82, -73, 46, 31, -78, 92, 180, -39, -97, -92, -43, 
-4, -63, -58, 34, 26, -61, 82, 165, -34, -82, -73, -39, 
-4, -48, -43, 26, 19, -46, 68, 151, -24, -73, -58, -29, 
-14, -48, -34, 31, 9, -41, 58, 136, -19, -58, -39, -19, 
-14, -34, -19, 24, 2, -26, 48, 126, -9, -48, -29, -14, 
-14, -24, -9, 19, -2, -17, 43, 112, -4, -34, -19, -9, 
-14, -14, 0, 14, -7, -7, 39, 97, 0, -19, -19, -9, 
-4, -9, -4, 7, 0, -7, 34, 82, 0, -14, -4, -9, 
-4, -4, 0, 4, -2, -2, 29, 78, 4, -9, -4, 0, 
-4, 0, 4, 2, -4, 2, 24, 73, 4, 0, 0, 0, 
-4, 4, 9, 0, -7, 7, 19, 68, 4, 4, 4, 4, 
-9, 14, 24, -2, -17, 19, 14, 53, 14, 9, 9, -4, 
-9, 19, 29, -4, -19, 24, 14, 53, 14, 9, 9, 0, 
-9, 19, 29, -4, -19, 24, 9, 53, 14, 9, 14, 0, 
-9, 19, 29, -4, -19, 24, 9, 53, 19, 14, 14, 0, 
0, 19, 19, -9, -9, 19, 9, 48, 19, 29, 24, 0, 
0, 24, 24, -12, -12, 24, 9, 43, 19, 29, 24, 0, 
0, 24, 24, -12, -12, 24, 9, 43, 19, 29, 24, 0, 
0, 24, 24, -12, -12, 24, 0, 39, 19, 29, 24, 0, 
-9, 24, 34, -7, -21, 29, 0, 29, 19, 24, 14, 0, 
-9, 24, 34, -7, -21, 29, 0, 29, 19, 24, 14, 0, 
-9, 24, 34, -7, -21, 29, 0, 29, 19, 24, 14, 0, 
-9, 24, 34, -7, -21, 29, 0, 29, 19, 24, 14, 0, 
0, 24, 24, -12, -12, 24, 9, 29, 19, 14, 9, 9, 
0, 24, 24, -12, -12, 24, 9, 29, 19, 14, 9, 9, 
0, 24, 24, -12, -12, 24, 9, 29, 19, 19, 9, 9, 
0, 24, 24, -12, -12, 24, 9, 29, 19, 19, 9, 9, 
0, 24, 24, -12, -12, 24, 9, 24, 19, 19, 9, 9, 
0, 24, 24, -12, -12, 24, 9, 24, 19, 19, 9, 9, 
0, 24, 24, -12, -12, 24, 9, 24, 14, 14, 9, 9, 
0, 24, 24, -12, -12, 24, 9, 24, 14, 14, 9, 9, 
0, 19, 19, -9, -9, 19, 0, 19, 14, 14, 19, 19, 
0, 19, 19, -9, -9, 19, 0, 19, 14, 14, 19, 14, 
0, 19, 19, -9, -9, 19, 4, 19, 14, 9, 19, 14, 
0, 19, 19, -9, -9, 19, 4, 24, 14, 9, 14, 14, 
-4, 19, 24, -7, -14, 21, 4, 24, 9, 9, 14, 14, 
-9, 19, 29, -4, -19, 24, 4, 24, 9, 9, 14, 14, 
-9, 19, 29, -4, -19, 24, 4, 24, 9, 9, 14, 14, 
-9, 19, 29, -4, -19, 24, 4, 24, 9, 4, 14, 14, 
-9, 9, 19, 0, -14, 14, 14, 24, 9, 14, 14, 4, 
-4, 9, 14, -2, -9, 12, 14, 24, 9, 9, 14, 4, 
0, 4, 4, -2, -2, 4, 14, 29, 9, 9, 14, 0, 
0, 4, 4, -2, -2, 4, 14, 29, 9, 9, 14, 0, 
-4, 14, 19, -4, -12, 17, 14, 24, 0, 0, 4, 9, 
-4, 14, 19, -4, -12, 17, 14, 24, 0, 0, 0, 9, 
-4, 14, 19, -4, -12, 17, 14, 24, 4, 0, 0, 9, 
-4, 14, 19, -4, -12, 17, 14, 24, 4, 4, 0, 9, 
-4, 4, 9, 0, -7, 7, 4, 24, 0, -4, 0, 9, 
-4, 4, 9, 0, -7, 7, 4, 24, 0, -4, 0, 9, 
-4, 4, 9, 0, -7, 7, 9, 24, -4, -4, 0, 9, 
-4, 0, 4, 2, -4, 2, 9, 24, -9, -4, 0, 9, 
-14, 9, 24, 2, -19, 17, 9, 24, -9, 4, 9, 4, 
-14, 4, 19, 4, -17, 12, 9, 24, -9, 0, 9, 4, 
-9, 4, 14, 2, -12, 9, 14, 24, -4, 0, 9, 4, 
-9, 4, 14, 2, -12, 9, 14, 24, -4, 0, 9, 4, 
-9, -4, 4, 7, -7, 0, 14, 24, -4, -4, 4, 0, 
-9, -9, 0, 9, -4, -4, 14, 24, -9, -4, 4, -4, 
-14, -9, 4, 12, -9, -2, 14, 24, -9, -4, 4, -14, 
-14, -9, 4, 12, -9, -2, 14, 24, -14, -4, 4, -19, 
-4, -9, -4, 7, 0, -7, 14, 24, -14, -14, -9, -24, 
0, -9, -9, 4, 4, -9, 14, 24, -14, -14, -14, -24, 
0, -9, -9, 4, 4, -9, 9, 29, -9, -14, -14, -24, 
0, -9, -9, 4, 4, -9, 9, 29, -4, -14, -9, -19, 
-4, -14, -9, 9, 2, -12, 24, 19, -14, -14, -9, -29, 
-4, -14, -9, 9, 2, -12, 24, 19, -14, -14, -14, -29, 
-4, -19, -14, 12, 4, -17, 24, 19, -14, -14, -19, -29, 
-4, -19, -14, 12, 4, -17, 19, 19, -14, -14, -24, -29, 
-4, -24, -19, 14, 7, -21, 19, 24, -14, -14, -24, -19, 
-4, -24, -19, 14, 7, -21, 19, 24, -14, -19, -24, -19, 
-4, -24, -19, 14, 7, -21, 19, 24, -14, -19, -24, -19, 
-4, -19, -14, 12, 4, -17, 19, 24, -14, -19, -19, -19, 
-4, -9, -4, 7, 0, -7, 14, 19, -14, -14, -19, -19, 
-4, -9, -4, 7, 0, -7, 14, 19, -14, -14, -19, -19, 
-9, -14, -4, 12, -2, -9, 24, 14, -14, -14, -19, -24, 
-9, -19, -9, 14, 0, -14, 24, 9, -14, -14, -19, -24, 
-9, -29, -19, 19, 4, -24, 19, 14, -24, -24, -29, -24, 
-9, -24, -14, 17, 2, -19, 14, 14, -19, -24, -24, -19, 
-9, -14, -4, 12, -2, -9, 14, 14, -14, -19, -24, -19, 
-9, -14, -4, 12, -2, -9, 14, 14, -14, -14, -19, -14, 
-9, -14, -4, 12, -2, -9, 14, 4, -14, -19, -24, -19, 
-9, -14, -4, 12, -2, -9, 9, 9, -24, -19, -19, -19, 
-9, -14, -4, 12, -2, -9, 9, 9, -24, -19, -19, -19, 
-9, -14, -4, 12, -2, -9, 9, 9, -24, -29, -24, -24, 
-9, -4, 4, 7, -7, 0, 9, 4, -19, -29, -29, -14, 
-9, -19, -9, 14, 0, -14, 9, 4, -19, -24, -34, -19, 
-9, -24, -14, 17, 2, -19, 9, 4, -19, -19, -29, -24, 
-9, -29, -19, 19, 4, -24, 9, 4, -29, -14, -24, -24, 
-9, -24, -14, 17, 2, -19, 9, 4, -24, -14, -14, -24, 
-9, -24, -14, 17, 2, -19, 9, 4, -24, -19, -19, -14, 
-4, -24, -19, 14, 7, -21, 9, 4, -19, -24, -19, -14, 
-4, -19, -14, 12, 4, -17, 9, 0, -14, -24, -19, -14, 
4, -19, -24, 7, 14, -21, 9, 0, -24, -19, -14, -14, 
9, -14, -24, 2, 17, -19, 9, 9, -14, -19, -14, -14, 
9, -9, -19, 0, 14, -14, 9, 9, -19, -19, -14, -14, 
19, -9, -29, -4, 24, -19, 9, 9, -19, -19, -9, -19, 
29, 0, -29, -14, 29, -14, 9, 19, -9, -9, -9, -19, 
29, 0, -29, -14, 29, -14, 9, 19, -9, -9, -9, -19, 
29, 0, -29, -14, 29, -14, 9, 19, -9, -9, -9, -19, 
29, 0, -29, -14, 29, -14, 9, 19, -9, -9, -9, -19, 
39, 24, -14, -31, 26, 4, 9, 29, 9, 0, 4, -14, 
43, 34, -9, -39, 26, 12, 14, 39, 14, 4, 9, -9, 
43, 39, -4, -41, 24, 17, 29, 39, 19, 14, 19, -4, 
43, 48, 4, -46, 19, 26, 29, 39, 24, 24, 24, 0, 
43, 68, 24, -56, 9, 46, 34, 34, 43, 34, 39, 4, 
43, 78, 34, -61, 4, 56, 29, 34, 53, 43, 43, 19, 
43, 92, 48, -68, -2, 70, 29, 29, 63, 48, 53, 29, 
43, 112, 68, -78, -12, 90, 29, 29, 73, 63, 63, 39, 
34, 136, 102, -85, -34, 119, 39, 39, 87, 73, 73, 48, 
34, 151, 117, -92, -41, 134, 34, 39, 97, 82, 82, 58, 
34, 170, 136, -102, -51, 153, 29, 34, 107, 87, 92, 68, 
34, 180, 146, -107, -56, 163, 29, 24, 117, 92, 102, 78, 
48, 204, 156, -126, -53, 180, 34, 29, 131, 102, 117, 92, 
58, 224, 165, -141, -53, 195, 29, 34, 141, 112, 126, 102, 
58, 229, 170, -143, -56, 200, 29, 39, 141, 126, 126, 117, 
58, 229, 170, -143, -56, 200, 19, 43, 136, 131, 131, 122, 
73, 244, 170, -158, -48, 207, 9, 39, 141, 131, 136, 136, 
73, 258, 185, -165, -56, 222, 4, 34, 146, 136, 141, 141, 
73, 248, 175, -161, -51, 212, 4, 34, 131, 131, 136, 136, 
73, 244, 170, -158, -48, 207, 9, 34, 131, 126, 131, 141, 
78, 234, 156, -156, -39, 195, 0, 29, 126, 131, 141, 131, 
78, 244, 165, -161, -43, 204, -9, 24, 117, 126, 141, 136, 
73, 224, 151, -148, -39, 187, -9, 24, 117, 112, 126, 131, 
68, 200, 131, -134, -31, 165, -29, 29, 102, 102, 126, 117, 
78, 195, 117, -136, -19, 156, -29, 14, 87, 97, 112, 102, 
78, 165, 87, -122, -4, 126, -34, 9, 73, 87, 97, 87, 
73, 156, 82, -114, -4, 119, -34, 4, 58, 78, 82, 68, 
73, 131, 58, -102, 7, 95, -34, 4, 43, 58, 68, 53, 
53, 107, 53, -80, 0, 80, -39, 0, 19, 34, 48, 39, 
48, 82, 34, -65, 7, 58, -34, -4, 4, 29, 39, 29, 
48, 68, 19, -58, 14, 43, -34, -9, 0, 19, 29, 19, 
43, 58, 14, -51, 14, 36, -34, -14, -4, 9, 19, 14, 
34, 34, 0, -34, 17, 17, -24, -19, -19, 4, 14, 0, 
34, 29, -4, -31, 19, 12, -24, -19, -24, -4, 4, -4, 
24, 4, -19, -14, 21, -7, -24, -24, -24, -9, -4, -9, 
24, 0, -24, -12, 24, -12, -24, -24, -29, -19, -14, -9, 
19, -4, -24, -7, 21, -14, -24, -24, -34, -19, -14, -4, 
14, -4, -19, -4, 17, -12, -24, -29, -34, -19, -14, -4, 
9, -9, -19, 0, 14, -14, -24, -29, -34, -19, -14, 0, 
4, -14, -19, 4, 12, -17, -24, -29, -34, -19, -14, 0, 
0, -19, -19, 9, 9, -19, -24, -39, -39, -29, -14, 0, 
0, -19, -19, 9, 9, -19, -24, -39, -39, -29, -19, -4, 
0, -24, -24, 12, 12, -24, -24, -43, -39, -29, -19, -4, 
0, -24, -24, 12, 12, -24, -24, -43, -39, -29, -19, -9, 
-4, -34, -29, 19, 12, -31, -24, -43, -43, -29, -19, -9, 
-4, -34, -29, 19, 12, -31, -24, -43, -43, -34, -19, -9, 
-4, -34, -29, 19, 12, -31, -24, -43, -43, -34, -24, -9, 
-4, -34, -29, 19, 12, -31, -24, -43, -43, -34, -24, -9, 
-4, -39, -34, 21, 14, -36, -24, -53, -43, -34, -24, -9, 
-4, -39, -34, 21, 14, -36, -19, -53, -48, -34, -24, -9, 
-4, -39, -34, 21, 14, -36, -19, -53, -48, -39, -29, -9, 
-9, -43, -34, 26, 12, -39, -19, -53, -48, -39, -29, -14, 
-9, -43, -34, 26, 12, -39, -19, -48, -48, -39, -29, -14, 
-9, -43, -34, 26, 12, -39, -19, -48, -48, -39, -29, -14, 
-9, -43, -34, 26, 12, -39, -19, -48, -48, -39, -29, -14, 
-9, -43, -34, 26, 12, -39, -19, -48, -48, -39, -29, -14, 
-9, -43, -34, 26, 12, -39, -19, -58, -48, -39, -29, -24, 
-9, -48, -39, 29, 14, -43, -19, -58, -48, -39, -29, -24, 
-9, -48, -39, 29, 14, -43, -19, -58, -48, -39, -34, -29, 
-14, -48, -34, 31, 9, -41, -19, -58, -48, -39, -34, -29, 
-14, -48, -34, 31, 9, -41, -19, -58, -48, -48, -34, -39, 
-14, -48, -34, 31, 9, -41, -19, -63, -48, -48, -34, -39, 
-14, -48, -34, 31, 9, -41, -19, -63, -48, -48, -34, -39, 
-14, -48, -34, 31, 9, -41, -19, -63, -48, -48, -34, -39, 
-14, -48, -34, 31, 9, -41, -9, -53, -48, -43, -34, -39, 
-14, -48, -34, 31, 9, -41, -9, -53, -48, -43, -34, -39, 
-14, -48, -34, 31, 9, -41, -9, -53, -48, -43, -34, -39, 
-14, -48, -34, 31, 9, -41, -9, -53, -48, -43, -34, -39, 
-14, -48, -34, 31, 9, -41, -9, -53, -48, -48, -39, -29, 
-14, -48, -34, 31, 9, -41, -9, -53, -48, -48, -39, -24, 
-14, -43, -29, 29, 7, -36, -9, -53, -48, -48, -39, -24, 
-14, -43, -29, 29, 7, -36, -9, -53, -48, -48, -39, -24, 
-14, -43, -29, 29, 7, -36, -9, -53, -48, -39, -39, -24, 
-14, -43, -29, 29, 7, -36, -9, -53, -48, -39, -39, -19, 
-14, -43, -29, 29, 7, -36, -9, -58, -48, -39, -39, -19, 
-14, -43, -29, 29, 7, -36, -9, -58, -48, -39, -34, -19, 
-14, -39, -24, 26, 4, -31, -19, -58, -43, -34, -34, -19, 
-14, -39, -24, 26, 4, -31, -19, -58, -43, -29, -34, -19, 
-14, -39, -24, 26, 4, -31, -14, -58, -39, -29, -29, -19, 
-14, -39, -24, 26, 4, -31, -14, -58, -39, -29, -29, -19, 
-14, -39, -24, 26, 4, -31, -14, -53, -48, -39, -19, -9, 
-14, -48, -34, 31, 9, -41, -14, -48, -48, -39, -29, -19, 
-14, -58, -43, 36, 14, -51, -4, -39, -39, -34, -34, -29, 
-4, -58, -53, 31, 24, -56, 4, -24, -24, -29, -34, -53, 
0, -78, -78, 39, 39, -78, 9, -4, -14, -24, -34, -68, 
4, -102, -107, 48, 56, -104, 29, 19, 4, -9, -34, -92, 
0, -122, -122, 61, 61, -122, 43, 43, 29, -4, -39, -117, 
4, -165, -170, 80, 87, -168, 63, 68, 43, -9, -53, -151, 
19, -204, -224, 92, 122, -214, 73, 87, 73, -4, -73, -180, 
53, -214, -268, 80, 161, -241, 68, 87, 117, 34, -53, -200, 
92, -165, -258, 36, 175, -212, 19, 58, 170, 107, 9, -175, 
136, -87, -224, -24, 180, -156, -48, 14, 195, 195, 97, -126, 
170, 14, -156, -92, 163, -70, -131, -53, 219, 302, 200, -63, 
185, 170, -14, -178, 100, 78, -253, -170, 258, 434, 351, 48, 
204, 400, 195, -302, 4, 297, -409, -346, 326, 605, 527, 190, 
209, 639, 429, -424, -109, 534, -590, -580, 380, 780, 712, 346, 
209, 878, 668, -544, -229, 773, -766, -839, 400, 922, 868, 497, 
219, 1073, 854, -646, -317, 963, -878, -1039, 424, 1058, 1000, 610, 
234, 1244, 1010, -739, -387, 1127, -966, -1195, 424, 1156, 1098, 712, 
263, 1464, 1200, -863, -468, 1332, -1112, -1390, 400, 1273, 1215, 849, 
307, 1761, 1454, -1034, -573, 1607, -1337, -1639, 375, 1449, 1415, 1049, 
375, 2015, 1639, -1195, -631, 1827, -1551, -1810, 370, 1629, 1620, 1244, 
453, 2098, 1644, -1276, -595, 1871, -1703, -1903, 278, 1708, 1742, 1342, 
502, 1971, 1468, -1237, -483, 1720, -1766, -1898, 117, 1664, 1751, 1346, 
502, 1678, 1176, -1090, -336, 1427, -1722, -1834, -24, 1571, 1703, 1259, 
429, 1454, 1024, -941, -297, 1239, -1629, -1747, -78, 1503, 1664, 1195, 
263, 1405, 1141, -834, -439, 1273, -1546, -1751, -107, 1454, 1639, 1215, 
112, 1342, 1229, -727, -558, 1285, -1449, -1747, -180, 1288, 1512, 1220, 
24, 1005, 980, -514, -478, 993, -1224, -1571, -322, 888, 1112, 1005, 
-29, 366, 395, -168, -212, 380, -834, -1156, -473, 224, 336, 536, 
-53, -307, -253, 180, 100, -280, -444, -756, -639, -478, -468, 19, 
-68, -639, -570, 353, 251, -605, -214, -522, -810, -775, -761, -258, 
-63, -712, -649, 387, 292, -680, -112, -366, -912, -814, -746, -351, 
-43, -746, -702, 395, 329, -724, -24, -234, -858, -780, -702, -395, 
-63, -707, -644, 385, 290, -675, 24, -165, -702, -663, -610, -400, 
-82, -614, -531, 348, 224, -573, 58, -136, -546, -527, -473, -346, 
-97, -517, -419, 307, 161, -468, 68, -97, -419, -419, -375, -283, 
-97, -429, -331, 263, 117, -380, 82, -63, -302, -331, -312, -229, 
-112, -366, -253, 239, 70, -309, 102, -34, -214, -253, -244, -190, 
-131, -317, -185, 224, 26, -251, 117, -34, -170, -224, -204, -156, 
-131, -273, -141, 202, 4, -207, 122, -19, -151, -200, -190, -136, 
-126, -248, -122, 187, -2, -185, 122, -14, -126, -190, -185, -117, 
-112, -239, -126, 175, 7, -183, 122, 0, -126, -190, -175, -117, 
-112, -239, -126, 175, 7, -183, 112, 14, -126, -185, -175, -126, 
-102, -239, -136, 170, 17, -187, 112, 29, -131, -185, -175, -131, 
-92, -253, -161, 173, 34, -207, 126, 48, -131, -185, -170, -136, 
-87, -253, -165, 170, 39, -209, 131, 58, -117, -185, -170, -126, 
-87, -244, -156, 165, 34, -200, 131, 58, -112, -180, -175, -126, 
-87, -239, -151, 163, 31, -195, 131, 63, -102, -180, -175, -126, 
-82, -234, -151, 158, 34, -192, 126, 63, -97, -175, -175, -122, 
-82, -214, -131, 148, 24, -173, 117, 78, -102, -165, -161, -112, 
-73, -214, -141, 143, 34, -178, 117, 87, -97, -156, -161, -112, 
-68, -214, -146, 141, 39, -180, 122, 92, -97, -156, -156, -112, 
-63, -214, -151, 139, 43, -183, 122, 92, -97, -156, -156, -112, 
-58, -214, -156, 136, 48, -185, 122, 97, -92, -156, -156, -117, 
-58, -214, -156, 136, 48, -185, 126, 97, -92, -156, -156, -122, 
-63, -214, -151, 139, 43, -183, 126, 97, -87, -156, -156, -126, 
-63, -214, -151, 139, 43, -183, 126, 107, -87, -156, -156, -131, 
-53, -214, -161, 134, 53, -187, 126, 107, -73, -161, -156, -131, 
-48, -214, -165, 131, 58, -190, 126, 112, -73, -161, -156, -136, 
-48, -214, -165, 131, 58, -190, 126, 117, -73, -161, -156, -136, 
-48, -214, -165, 131, 58, -190, 126, 122, -73, -156, -161, -141, 
-48, -214, -165, 131, 58, -190, 141, 117, -73, -156, -161, -141, 
-43, -214, -170, 129, 63, -192, 141, 117, -73, -156, -161, -141, 
-43, -214, -170, 129, 63, -192, 141, 122, -73, -156, -161, -141, 
-39, -214, -175, 126, 68, -195, 146, 126, -73, -161, -161, -141, 
-48, -214, -165, 131, 58, -190, 141, 131, -73, -161, -151, -131, 
-39, -219, -180, 129, 70, -200, 141, 136, -73, -161, -156, -131, 
-39, -219, -180, 129, 70, -200, 141, 141, -68, -156, -156, -131, 
-39, -219, -180, 129, 70, -200, 141, 141, -68, -156, -151, -131, 
-29, -219, -190, 124, 80, -204, 141, 141, -68, -146, -151, -131, 
-34, -224, -190, 129, 78, -207, 146, 151, -68, -146, -151, -131, 
-34, -224, -190, 129, 78, -207, 146, 156, -68, -151, -151, -131, 
-34, -224, -190, 129, 78, -207, 146, 156, -73, -156, -156, -131, 
-39, -229, -190, 134, 75, -209, 161, 161, -63, -156, -165, -131, 
-39, -229, -190, 134, 75, -209, 161, 165, -63, -156, -165, -131, 
-39, -229, -190, 134, 75, -209, 161, 170, -63, -156, -165, -131, 
-39, -229, -190, 134, 75, -209, 161, 170, -63, -156, -170, -131, 
-39, -229, -190, 134, 75, -209, 161, 180, -58, -146, -165, -131, 
-39, -229, -190, 134, 75, -209, 161, 180, -58, -151, -170, -136, 
-34, -234, -200, 134, 82, -217, 165, 180, -63, -161, -180, -141, 
-34, -234, -200, 134, 82, -217, 170, 185, -63, -165, -180, -146, 
-39, -239, -200, 139, 80, -219, 170, 190, -63, -170, -180, -146, 
-39, -239, -200, 139, 80, -219, 175, 195, -63, -175, -175, -146, 
-39, -239, -200, 139, 80, -219, 175, 200, -63, -175, -175, -146, 
-39, -239, -200, 139, 80, -219, 175, 200, -63, -175, -180, -146, 
-39, -244, -204, 141, 82, -224, 175, 200, -63, -175, -180, -146, 
-39, -248, -209, 143, 85, -229, 175, 204, -63, -175, -185, -151, 
-39, -248, -209, 143, 85, -229, 175, 209, -63, -175, -185, -151, 
-34, -258, -224, 146, 95, -241, 185, 214, -63, -180, -190, -156, 
-34, -258, -224, 146, 95, -241, 180, 219, -63, -180, -190, -156, 
-34, -258, -224, 146, 95, -241, 185, 224, -63, -180, -200, -156, 
-29, -263, -234, 146, 102, -248, 185, 234, -63, -185, -204, -165, 
-29, -268, -239, 148, 104, -253, 185, 234, -63, -185, -204, -165, 
-29, -263, -234, 146, 102, -248, 195, 239, -63, -190, -204, -165, 
-29, -268, -239, 148, 104, -253, 195, 244, -63, -190, -204, -165, 
-29, -268, -239, 148, 104, -253, 195, 248, -68, -195, -209, -170, 
-29, -268, -239, 148, 104, -253, 204, 253, -68, -195, -214, -170, 
-19, -278, -258, 148, 119, -268, 204, 263, -73, -195, -214, -170, 
-19, -278, -258, 148, 119, -268, 204, 268, -63, -195, -214, -170, 
-19, -278, -258, 148, 119, -268, 204, 273, -63, -200, -219, -175, 
-19, -283, -263, 151, 122, -273, 204, 278, -73, -209, -224, -175, 
-24, -283, -258, 153, 117, -270, 209, 283, -73, -209, -219, -175, 
-24, -287, -263, 156, 119, -275, 214, 287, -73, -209, -224, -175, 
-24, -287, -263, 156, 119, -275, 219, 292, -73, -214, -229, -175, 
-24, -292, -268, 158, 122, -280, 219, 302, -73, -219, -229, -175, 
-24, -292, -268, 158, 122, -280, 219, 307, -68, -214, -234, -185, 
-24, -297, -273, 161, 124, -285, 219, 312, -68, -219, -239, -190, 
-19, -297, -278, 158, 129, -287, 224, 322, -73, -224, -244, -190, 
-19, -302, -283, 161, 131, -292, 224, 331, -73, -229, -244, -190, 
-14, -297, -283, 156, 134, -290, 234, 331, -73, -234, -234, -200, 
-14, -312, -297, 163, 141, -305, 244, 341, -73, -234, -244, -209, 
-14, -326, -312, 170, 148, -319, 244, 346, -68, -239, -248, -209, 
-14, -331, -317, 173, 151, -324, 248, 361, -68, -239, -253, -214, 
-14, -326, -312, 170, 148, -319, 248, 370, -73, -248, -258, -214, 
-14, -331, -317, 173, 151, -324, 248, 375, -73, -258, -263, -219, 
-9, -336, -326, 173, 158, -331, 253, 390, -73, -263, -263, -224, 
-9, -341, -331, 175, 161, -336, 258, 400, -73, -263, -268, -224, 
-4, -346, -341, 175, 168, -344, 263, 409, -82, -268, -273, -224, 
-4, -346, -341, 175, 168, -344, 268, 419, -82, -268, -273, -229, 
-4, -346, -341, 175, 168, -344, 273, 429, -82, -278, -278, -234, 
-4, -351, -346, 178, 170, -348, 278, 439, -82, -283, -283, -234, 
-4, -351, -346, 178, 170, -348, 283, 448, -92, -278, -283, -234, 
0, -351, -351, 175, 175, -351, 287, 458, -92, -283, -287, -234, 
0, -356, -356, 178, 178, -356, 292, 468, -92, -287, -292, -234, 
4, -366, -370, 180, 187, -368, 297, 478, -92, -297, -302, -234, 
4, -366, -370, 180, 187, -368, 292, 488, -97, -297, -307, -234, 
9, -375, -385, 183, 197, -380, 297, 497, -97, -302, -312, -239, 
9, -380, -390, 185, 200, -385, 307, 512, -97, -307, -317, -239, 
9, -385, -395, 187, 202, -390, 312, 522, -97, -317, -326, -244, 
14, -395, -409, 190, 212, -402, 317, 536, -97, -322, -331, -253, 
14, -395, -409, 190, 212, -402, 322, 546, -97, -326, -336, -263, 
14, -395, -409, 190, 212, -402, 326, 556, -97, -331, -336, -268, 
14, -395, -409, 190, 212, -402, 331, 561, -107, -336, -341, -278, 
14, -405, -419, 195, 217, -412, 336, 580, -102, -346, -361, -287, 
14, -409, -424, 197, 219, -417, 341, 590, -107, -351, -366, -292, 
14, -414, -429, 200, 222, -422, 346, 600, -107, -366, -370, -297, 
19, -424, -444, 202, 231, -434, 351, 605, -107, -370, -375, -297, 
19, -424, -444, 202, 231, -434, 366, 614, -117, -380, -390, -297, 
19, -429, -448, 204, 234, -439, 370, 624, -122, -385, -395, -297, 
19, -444, -463, 212, 241, -453, 370, 629, -122, -385, -395, -302, 
19, -434, -453, 207, 236, -444, 375, 634, -122, -395, -400, -302, 
19, -429, -448, 204, 234, -439, 380, 644, -126, -400, -405, -292, 
14, -429, -444, 207, 229, -436, 380, 649, -126, -405, -409, -292, 
9, -439, -448, 214, 229, -444, 380, 653, -122, -409, -414, -292, 
9, -434, -444, 212, 226, -439, 385, 668, -126, -424, -414, -297, 
0, -434, -434, 217, 217, -434, 385, 668, -131, -424, -414, -287, 
0, -429, -429, 214, 214, -429, 385, 668, -131, -424, -409, -278, 
0, -429, -429, 214, 214, -429, 385, 663, -122, -419, -409, -278, 
0, -414, -414, 207, 207, -414, 380, 658, -122, -419, -409, -278, 
0, -414, -414, 207, 207, -414, 390, 663, -131, -419, -414, -283, 
0, -405, -405, 202, 202, -405, 390, 658, -131, -419, -409, -278, 
-4, -405, -400, 204, 197, -402, 385, 653, -136, -409, -400, -273, 
-9, -400, -390, 204, 190, -395, 380, 639, -136, -405, -395, -268, 
-14, -400, -385, 207, 185, -392, 380, 629, -136, -409, -395, -263, 
-14, -385, -370, 200, 178, -378, 356, 614, -136, -400, -395, -258, 
-14, -380, -366, 197, 175, -373, 351, 610, -131, -400, -390, -248, 
-14, -361, -346, 187, 165, -353, 346, 590, -131, -385, -375, -244, 
-14, -361, -346, 187, 165, -353, 336, 580, -126, -385, -366, -234, 
-14, -356, -341, 185, 163, -348, 326, 561, -126, -375, -356, -229, 
-19, -351, -331, 185, 156, -341, 322, 541, -126, -375, -346, -224, 
-24, -341, -317, 183, 146, -329, 312, 512, -122, -361, -341, -214, 
-14, -326, -312, 170, 148, -319, 292, 488, -122, -341, -326, -204, 
-14, -307, -292, 161, 139, -300, 278, 463, -117, -322, -297, -190, 
-14, -283, -268, 148, 126, -275, 263, 429, -117, -307, -278, -175, 
-14, -258, -244, 136, 114, -251, 244, 409, -102, -283, -253, -161, 
-9, -244, -234, 126, 112, -239, 219, 375, -102, -263, -244, -146, 
-9, -229, -219, 119, 104, -224, 204, 351, -92, -248, -224, -136, 
-9, -214, -204, 112, 97, -209, 185, 326, -82, -224, -204, -136, 
-9, -200, -190, 104, 90, -195, 175, 302, -73, -219, -190, -122, 
0, -180, -180, 90, 90, -180, 161, 273, -78, -180, -161, -97, 
0, -161, -161, 80, 80, -161, 146, 253, -68, -165, -141, -87, 
0, -141, -141, 70, 70, -141, 126, 229, -53, -151, -122, -82, 
-4, -126, -122, 65, 58, -124, 112, 200, -48, -131, -112, -73, 
-4, -112, -107, 58, 51, -109, 87, 180, -39, -112, -92, -53, 
0, -92, -92, 46, 46, -92, 82, 161, -29, -97, -82, -43, 
4, -73, -78, 34, 41, -75, 73, 146, -24, -82, -63, -39, 
4, -58, -63, 26, 34, -61, 58, 131, -14, -73, -48, -29, 
4, -58, -63, 26, 34, -61, 48, 112, -19, -53, -39, -19, 
4, -43, -48, 19, 26, -46, 39, 107, -9, -48, -29, -14, 
4, -34, -39, 14, 21, -36, 34, 97, -4, -39, -19, -9, 
4, -24, -29, 9, 17, -26, 29, 87, 0, -29, -19, -9, 
4, -19, -24, 7, 14, -21, 24, 73, 0, -24, -14, -9, 
4, -14, -19, 4, 12, -17, 19, 68, 4, -19, -14, 0, 
4, -9, -14, 2, 9, -12, 14, 63, 4, -9, -9, 0, 
4, -4, -9, 0, 7, -7, 9, 58, 4, -4, -4, 4, 
9, 4, -4, -7, 7, 0, 4, 43, 14, 9, 9, 4, 
9, 9, 0, -9, 4, 4, 4, 43, 14, 9, 9, 9, 
9, 9, 0, -9, 4, 4, 0, 43, 14, 9, 14, 9, 
9, 9, 0, -9, 4, 4, 0, 43, 19, 14, 14, 9, 
19, 9, -9, -14, 14, 0, 0, 39, 29, 19, 24, 19, 
19, 14, -4, -17, 12, 4, 0, 34, 29, 19, 24, 19, 
19, 14, -4, -17, 12, 4, 0, 34, 29, 19, 24, 19, 
19, 14, -4, -17, 12, 4, -9, 29, 29, 19, 24, 19, 
9, 14, 4, -12, 2, 9, -9, 19, 29, 24, 24, 9, 
9, 14, 4, -12, 2, 9, -9, 19, 29, 24, 24, 9, 
9, 14, 4, -12, 2, 9, -9, 19, 29, 24, 24, 9, 
9, 14, 4, -12, 2, 9, -9, 19, 29, 24, 24, 9, 
9, 14, 4, -12, 2, 9, -9, 19, 29, 14, 29, 9, 
9, 14, 4, -12, 2, 9, -9, 19, 29, 14, 29, 9, 
9, 14, 4, -12, 2, 9, -9, 19, 29, 19, 29, 9, 
9, 14, 4, -12, 2, 9, -9, 19, 29, 19, 29, 9, 
19, 14, -4, -17, 12, 4, -9, 14, 29, 19, 29, 9, 
19, 14, -4, -17, 12, 4, -9, 14, 29, 19, 29, 9, 
19, 14, -4, -17, 12, 4, -9, 14, 24, 14, 29, 9, 
19, 14, -4, -17, 12, 4, -9, 14, 24, 14, 29, 9, 
19, 9, -9, -14, 14, 0, -9, 9, 24, 24, 29, 9, 
19, 9, -9, -14, 14, 0, -9, 9, 24, 24, 29, 4, 
19, 9, -9, -14, 14, 0, -4, 9, 24, 19, 29, 4, 
19, 9, -9, -14, 14, 0, -4, 14, 24, 19, 24, 4, 
24, 9, -14, -17, 19, -2, -4, 14, 19, 19, 14, 14, 
19, 9, -9, -14, 14, 0, -4, 14, 19, 19, 14, 14, 
19, 9, -9, -14, 14, 0, -4, 14, 19, 19, 14, 14, 
19, 9, -9, -14, 14, 0, -4, 14, 19, 14, 14, 14, 
9, 9, 0, -9, 4, 4, -4, 4, 19, 14, 14, 14, 
14, 9, -4, -12, 9, 2, -4, 4, 19, 9, 14, 14, 
19, 4, -14, -12, 17, -4, -4, 9, 19, 9, 14, 9, 
19, 4, -14, -12, 17, -4, -4, 9, 19, 9, 14, 9, 
14, 4, -9, -9, 12, -2, -14, 4, 9, 0, 14, 9, 
14, 4, -9, -9, 12, -2, -14, 4, 9, 0, 9, 9, 
14, 4, -9, -9, 12, -2, -14, 4, 14, 0, 9, 9, 
14, 4, -9, -9, 12, -2, -14, 4, 14, 4, 9, 9, 
14, 4, -9, -9, 12, -2, -14, 4, 19, 4, 9, 0, 
14, 4, -9, -9, 12, -2, -14, 4, 19, 4, 9, 0, 
14, 4, -9, -9, 12, -2, -9, 4, 14, 4, 9, 0, 
14, 0, -14, -7, 14, -7, -9, 4, 9, 4, 9, 0, 
4, 0, -4, -2, 4, -2, -9, 4, 9, 4, 9, -4, 
4, -4, -9, 0, 7, -7, -9, 4, 9, 0, 9, -4, 
9, -4, -14, -2, 12, -9, -4, 4, 14, 0, 9, -4, 
9, -4, -14, -2, 12, -9, -4, 4, 14, 0, 9, -4, 
9, -4, -14, -2, 12, -9, -4, 4, 14, 4, 4, -4, 
9, -9, -19, 0, 14, -14, -4, 4, 9, 4, 4, -4, 
4, -9, -14, 2, 9, -12, -4, 4, 9, 4, 4, -9, 
4, -9, -14, 2, 9, -12, -4, 4, 4, 4, 4, -9, 
4, -9, -14, 2, 9, -12, 4, 4, 4, -4, 0, -4, 
9, -9, -19, 0, 14, -14, 4, 4, 4, -4, -4, -4, 
9, -9, -19, 0, 14, -14, 0, 9, 9, -4, -4, -4, 
9, -9, -19, 0, 14, -14, 0, 9, 14, -4, 0, 0, 
4, -14, -19, 4, 12, -17, 4, 9, 4, -4, -4, -9, 
4, -14, -19, 4, 12, -17, 4, 9, 4, -4, -4, -9, 
4, -19, -24, 7, 14, -21, 4, 9, 4, -4, -4, -9, 
4, -19, -24, 7, 14, -21, 0, 9, 4, -4, -4, -9, 
4, -24, -29, 9, 17, -26, 0, 4, -4, -4, -14, -9, 
4, -24, -29, 9, 17, -26, 0, 4, -4, -9, -14, -9, 
4, -24, -29, 9, 17, -26, 0, 4, -4, -9, -14, -9, 
4, -19, -24, 7, 14, -21, 0, 4, -4, -9, -9, -9, 
4, -19, -24, 7, 14, -21, -4, 9, -4, -14, -9, -9, 
4, -19, -24, 7, 14, -21, -4, 9, -4, -14, -9, -9, 
0, -24, -24, 12, 12, -24, 4, 4, -4, -14, -9, -14, 
0, -29, -29, 14, 14, -29, 4, 0, -4, -14, -9, -14, 
0, -29, -29, 14, 14, -29, 0, 4, -14, -24, -19, -24, 
0, -24, -24, 12, 12, -24, -4, 4, -9, -24, -14, -19, 
0, -14, -14, 7, 7, -14, -4, 4, -4, -19, -14, -19, 
0, -14, -14, 7, 7, -14, -4, 4, -4, -14, -9, -14, 
0, -14, -14, 7, 7, -14, 4, -4, 4, -19, -9, -19, 
0, -14, -14, 7, 7, -14, 0, 0, -4, -19, -9, -19, 
0, -14, -14, 7, 7, -14, 0, 0, -4, -19, -14, -19, 
0, -14, -14, 7, 7, -14, 0, 0, -4, -29, -24, -24, 
-9, -14, -4, 12, -2, -9, 0, -4, 0, -24, -29, -14, 
-9, -29, -19, 19, 4, -24, 0, -4, 0, -24, -34, -19, 
-9, -34, -24, 21, 7, -29, 0, -4, 0, -24, -29, -24, 
-9, -39, -29, 24, 9, -34, 0, -4, -9, -24, -24, -24, 
-9, -34, -24, 21, 7, -29, 9, 4, -4, -14, -14, -24, 
-9, -34, -24, 21, 7, -29, 9, 4, -4, -19, -19, -14, 
-4, -34, -29, 19, 12, -31, 9, 4, 0, -24, -19, -14, 
-4, -29, -24, 17, 9, -26, 9, 0, 4, -24, -19, -14, 
-4, -9, -4, 7, 0, -7, 9, 9, 4, -9, -14, -14, 
0, -4, -4, 2, 2, -4, 9, 9, 4, -9, -4, -14, 
9, 0, -9, -4, 9, -4, 19, 9, 9, 0, -4, -4, 
4, 14, 9, -9, -2, 12, 19, 9, 24, 0, -4, -4, 
19, 19, 0, -19, 9, 9, 19, 19, 29, 9, 9, 0, 
19, 24, 4, -21, 7, 14, 29, 19, 34, 14, 19, 9, 
19, 29, 9, -24, 4, 19, 29, 19, 39, 19, 19, 9, 
19, 34, 14, -26, 2, 24, 29, 19, 43, 24, 19, 9, 
19, 39, 19, -29, 0, 29, 29, 19, 48, 29, 19, 9, 
29, 58, 29, -43, 0, 43, 39, 29, 78, 34, 29, 24, 
34, 73, 39, -53, -2, 56, 43, 39, 82, 43, 39, 29, 
34, 82, 48, -58, -7, 65, 58, 39, 87, 58, 53, 34, 
34, 97, 63, -65, -14, 80, 58, 39, 92, 73, 63, 39, 
34, 117, 82, -75, -24, 100, 58, 48, 102, 73, 68, 43, 
34, 126, 92, -80, -29, 109, 58, 53, 112, 82, 73, 58, 
34, 141, 107, -87, -36, 124, 63, 53, 122, 87, 82, 68, 
34, 161, 126, -97, -46, 143, 68, 58, 131, 102, 92, 78, 
43, 165, 122, -104, -39, 143, 68, 68, 141, 102, 92, 78, 
43, 180, 136, -112, -46, 158, 63, 68, 146, 112, 102, 87, 
43, 200, 156, -122, -56, 178, 58, 63, 151, 117, 112, 97, 
43, 209, 165, -126, -61, 187, 58, 53, 156, 122, 122, 107, 
48, 234, 185, -141, -68, 209, 43, 39, 161, 136, 126, 126, 
58, 253, 195, -156, -68, 224, 29, 34, 170, 141, 136, 131, 
58, 258, 200, -158, -70, 229, 19, 29, 170, 151, 136, 141, 
58, 258, 200, -158, -70, 229, 0, 24, 165, 151, 141, 141, 
73, 273, 200, -173, -63, 236, -24, 0, 175, 156, 146, 151, 
73, 287, 214, -180, -70, 251, -43, -14, 175, 156, 151, 151, 
73, 278, 204, -175, -65, 241, -58, -24, 156, 146, 146, 141, 
73, 273, 200, -173, -63, 236, -68, -34, 151, 136, 141, 141, 
78, 263, 185, -170, -53, 224, -78, -43, 141, 146, 146, 131, 
78, 263, 185, -170, -53, 224, -87, -53, 126, 136, 141, 136, 
73, 234, 161, -153, -43, 197, -87, -58, 122, 117, 122, 131, 
68, 200, 131, -134, -31, 165, -107, -58, 102, 102, 117, 117, 
68, 185, 117, -126, -24, 151, -92, -48, 87, 87, 102, 102, 
68, 156, 87, -112, -9, 122, -92, -48, 73, 78, 87, 87, 
63, 146, 82, -104, -9, 114, -87, -48, 58, 68, 73, 68, 
63, 122, 58, -92, 2, 90, -82, -43, 43, 48, 58, 53, 
43, 97, 53, -70, -4, 75, -63, -39, 29, 24, 39, 39, 
39, 73, 34, -56, 2, 53, -53, -34, 14, 19, 29, 29, 
39, 58, 19, -48, 9, 39, -48, -29, 9, 9, 19, 19, 
34, 48, 14, -41, 9, 31, -43, -24, 4, 0, 9, 14, 
24, 34, 9, -29, 7, 21, -34, -29, -9, -4, 0, 9, 
24, 29, 4, -26, 9, 17, -34, -29, -14, -14, -4, 4, 
14, 4, -9, -9, 12, -2, -34, -34, -14, -19, -9, 0, 
14, 0, -14, -7, 14, -7, -34, -34, -19, -29, -14, 0, 
4, -4, -9, 0, 7, -7, -34, -34, -34, -29, -14, -14, 
4, -4, -9, 0, 7, -7, -34, -39, -34, -29, -14, -14, 
4, -9, -14, 2, 9, -12, -34, -39, -34, -29, -14, -9, 
4, -14, -19, 4, 12, -17, -34, -39, -34, -29, -14, -9, 
-9, -19, -9, 14, 0, -14, -34, -39, -39, -39, -24, -9, 
-9, -19, -9, 14, 0, -14, -34, -39, -39, -39, -29, -14, 
-9, -24, -14, 17, 2, -19, -34, -43, -39, -39, -29, -14, 
-9, -24, -14, 17, 2, -19, -34, -43, -39, -39, -29, -19, 
-14, -34, -19, 24, 2, -26, -34, -43, -53, -39, -29, -29, 
-14, -34, -19, 24, 2, -26, -34, -43, -53, -43, -29, -29, 
-14, -34, -19, 24, 2, -26, -34, -43, -53, -43, -34, -29, 
-14, -34, -19, 24, 2, -26, -34, -43, -53, -43, -34, -29, 
-14, -48, -34, 31, 9, -41, -34, -43, -53, -43, -43, -29, 
-14, -48, -34, 31, 9, -41, -29, -43, -58, -43, -43, -29, 
-14, -48, -34, 31, 9, -41, -29, -43, -58, -48, -48, -29, 
-19, -53, -34, 36, 7, -43, -29, -43, -58, -48, -48, -34, 
-19, -53, -34, 36, 7, -43, -19, -48, -58, -48, -48, -34, 
-19, -53, -34, 36, 7, -43, -19, -48, -58, -48, -48, -34, 
-19, -53, -34, 36, 7, -43, -19, -48, -58, -48, -48, -34, 
-19, -53, -34, 36, 7, -43, -19, -48, -58, -48, -48, -34, 
-19, -53, -34, 36, 7, -43, -19, -48, -58, -48, -48, -34, 
-19, -58, -39, 39, 9, -48, -19, -48, -58, -48, -48, -34, 
-19, -58, -39, 39, 9, -48, -19, -48, -58, -48, -53, -39, 
-24, -58, -34, 41, 4, -46, -19, -48, -58, -48, -53, -39, 
-14, -48, -34, 31, 9, -41, -19, -48, -58, -48, -43, -39, 
-14, -48, -34, 31, 9, -41, -19, -53, -58, -48, -43, -39, 
-14, -48, -34, 31, 9, -41, -19, -53, -58, -48, -43, -39, 
-14, -48, -34, 31, 9, -41, -19, -53, -58, -48, -43, -39, 
-14, -48, -34, 31, 9, -41, -19, -53, -58, -43, -43, -29, 
-14, -48, -34, 31, 9, -41, -19, -53, -58, -43, -43, -29, 
-14, -48, -34, 31, 9, -41, -19, -53, -58, -43, -43, -29, 
-14, -48, -34, 31, 9, -41, -19, -53, -58, -43, -43, -29, 
-24, -48, -24, 36, 0, -36, -29, -53, -58, -39, -39, -39, 
-24, -48, -24, 36, 0, -36, -29, -53, -58, -39, -39, -34, 
-24, -43, -19, 34, -2, -31, -29, -53, -58, -39, -39, -34, 
-24, -43, -19, 34, -2, -31, -29, -53, -58, -39, -39, -34, 
-24, -43, -19, 34, -2, -31, -29, -53, -48, -39, -39, -24, 
-24, -43, -19, 34, -2, -31, -29, -53, -48, -39, -39, -19, 
-24, -43, -19, 34, -2, -31, -29, -58, -48, -39, -39, -19, 
-24, -43, -19, 34, -2, -31, -29, -58, -48, -39, -34, -19, 
-24, -39, -14, 31, -4, -26, -29, -58, -53, -34, -34, -19, 
-24, -39, -14, 31, -4, -26, -29, -58, -53, -29, -34, -19, 
-24, -39, -14, 31, -4, -26, -24, -58, -48, -29, -29, -19, 
-24, -39, -14, 31, -4, -26, -24, -58, -48, -29, -29, -19, 
-14, -29, -14, 21, 0, -21, -24, -53, -48, -39, -29, -19, 
-24, -39, -14, 31, -4, -26, -24, -48, -39, -29, -29, -29, 
-14, -58, -43, 36, 14, -51, -4, -39, -29, -34, -34, -48, 
-14, -68, -53, 41, 19, -61, -4, -24, -24, -29, -43, -53, 
-9, -78, -68, 43, 29, -73, 9, -4, -4, -24, -43, -78, 
4, -102, -107, 48, 56, -104, 19, 19, 14, -9, -43, -92, 
0, -131, -131, 65, 65, -131, 34, 43, 29, -4, -48, -126, 
4, -165, -170, 80, 87, -168, 53, 68, 43, 0, -73, -151, 
19, -204, -224, 92, 122, -214, 63, 87, 73, 4, -82, -200, 
43, -214, -258, 85, 151, -236, 58, 87, 107, 43, -73, -219, 
92, -165, -258, 36, 175, -212, 9, 58, 151, 107, -9, -195, 
136, -97, -234, -19, 185, -165, -68, 24, 165, 195, 78, -146, 
161, 4, -156, -82, 158, -75, -151, -34, 170, 292, 170, -82, 
185, 170, -14, -178, 100, 78, -263, -151, 209, 434, 312, 29, 
204, 390, 185, -297, 9, 287, -429, -326, 268, 605, 497, 170, 
209, 629, 419, -419, -104, 524, -610, -551, 302, 761, 673, 326, 
219, 858, 639, -539, -209, 749, -785, -790, 302, 902, 829, 468, 
219, 1044, 824, -631, -302, 934, -897, -971, 317, 1029, 951, 580, 
234, 1195, 961, -714, -363, 1078, -976, -1107, 317, 1127, 1039, 663, 
253, 1405, 1151, -829, -448, 1278, -1122, -1293, 273, 1234, 1156, 800, 
307, 1693, 1385, -1000, -539, 1539, -1327, -1522, 248, 1400, 1337, 1000, 
375, 1937, 1561, -1156, -592, 1749, -1532, -1673, 224, 1571, 1542, 1185, 
453, 2000, 1546, -1227, -546, 1773, -1673, -1727, 141, 1639, 1644, 1273, 
502, 1854, 1351, -1178, -424, 1603, -1708, -1703, -29, 1576, 1634, 1259, 
512, 1542, 1029, -1027, -258, 1285, -1664, -1620, -170, 1473, 1566, 1171, 
429, 1307, 878, -868, -224, 1093, -1551, -1532, -224, 1395, 1527, 1088, 
273, 1249, 976, -761, -351, 1112, -1449, -1517, -234, 1337, 1503, 1107, 
112, 1185, 1073, -649, -480, 1129, -1351, -1522, -297, 1171, 1376, 1102, 
14, 858, 844, -436, -414, 851, -1127, -1346, -419, 790, 976, 897, 
-29, 239, 268, -104, -148, 253, -736, -951, -561, 136, 219, 429, 
-53, -405, -351, 229, 148, -378, -356, -561, -707, -556, -575, -68, 
-68, -727, -658, 397, 295, -692, -136, -346, -868, -844, -849, -336, 
-53, -800, -746, 427, 346, -773, -34, -209, -961, -893, -824, -429, 
-43, -814, -771, 429, 363, -793, 43, -97, -897, -839, -780, -473, 
-53, -766, -712, 409, 329, -739, 82, -48, -722, -712, -668, -458, 
-82, -644, -561, 363, 239, -602, 97, -48, -546, -546, -502, -385, 
-87, -527, -439, 307, 175, -483, 97, -29, -419, -429, -395, -302, 
-97, -439, -341, 268, 122, -390, 102, -4, -302, -331, -312, -248, 
-122, -366, -244, 244, 61, -305, 112, 4, -224, -253, -253, -200, 
-131, -317, -185, 224, 26, -251, 126, -4, -180, -204, -204, -165, 
-131, -273, -141, 202, 4, -207, 122, 0, -161, -200, -200, -146, 
-126, -248, -122, 187, -2, -185, 122, 4, -146, -190, -195, -126, 
-122, -239, -117, 180, -2, -178, 122, 19, -146, -180, -185, -126, 
-112, -248, -136, 180, 12, -192, 112, 34, -146, -185, -185, -126, 
-102, -248, -146, 175, 21, -197, 112, 39, -151, -185, -185, -131, 
-92, -253, -161, 173, 34, -207, 126, 58, -151, -185, -180, -136, 
-78, -253, -175, 165, 48, -214, 122, 68, -146, -185, -190, -146, 
-78, -244, -165, 161, 43, -204, 122, 68, -141, -180, -195, -146, 
-78, -239, -161, 158, 41, -200, 122, 73, -131, -180, -195, -146, 
-73, -234, -161, 153, 43, -197, 117, 73, -126, -175, -195, -141, 
-82, -224, -141, 153, 29, -183, 117, 78, -112, -175, -180, -131, 
-73, -224, -151, 148, 39, -187, 117, 87, -107, -165, -180, -131, 
-68, -224, -156, 146, 43, -190, 122, 92, -107, -165, -175, -131, 
-63, -224, -161, 143, 48, -192, 122, 92, -107, -165, -175, -131, 
-58, -214, -156, 136, 48, -185, 122, 97, -102, -165, -175, -131, 
-58, -214, -156, 136, 48, -185, 126, 97, -102, -165, -175, -131, 
-63, -214, -151, 139, 43, -183, 126, 97, -97, -165, -175, -131, 
-63, -214, -151, 139, 43, -183, 126, 107, -97, -165, -175, -131, 
-53, -204, -151, 129, 48, -178, 126, 107, -92, -161, -165, -131, 
-48, -204, -156, 126, 53, -180, 126, 112, -92, -161, -165, -136, 
-48, -204, -156, 126, 53, -180, 126, 117, -92, -161, -165, -136, 
-48, -204, -156, 126, 53, -180, 126, 122, -92, -156, -170, -141, 
-58, -214, -156, 136, 48, -185, 131, 126, -82, -156, -170, -141, 
-53, -214, -161, 134, 53, -187, 131, 126, -82, -156, -170, -141, 
-53, -214, -161, 134, 53, -187, 131, 131, -82, -156, -170, -141, 
-48, -214, -165, 131, 58, -190, 136, 136, -82, -161, -170, -141, 
-58, -214, -156, 136, 48, -185, 131, 141, -82, -161, -170, -151, 
-48, -219, -170, 134, 61, -195, 131, 146, -82, -161, -175, -151, 
-48, -219, -170, 134, 61, -195, 131, 151, -78, -156, -175, -151, 
-48, -219, -170, 134, 61, -195, 131, 151, -78, -156, -170, -151, 
-39, -219, -180, 129, 70, -200, 131, 141, -87, -156, -180, -151, 
-43, -224, -180, 134, 68, -202, 136, 151, -87, -156, -180, -151, 
-43, -224, -180, 134, 68, -202, 136, 156, -87, -161, -180, -151, 
-43, -224, -180, 134, 68, -202, 136, 156, -92, -165, -185, -151, 
-48, -229, -180, 139, 65, -204, 151, 151, -82, -165, -185, -151, 
-48, -229, -180, 139, 65, -204, 151, 156, -82, -165, -185, -151, 
-48, -229, -180, 139, 65, -204, 151, 161, -82, -165, -185, -151, 
-48, -229, -180, 139, 65, -204, 151, 161, -82, -165, -190, -151, 
-48, -229, -180, 139, 65, -204, 151, 165, -78, -156, -185, -151, 
-48, -229, -180, 139, 65, -204, 151, 170, -78, -161, -190, -156, 
-43, -234, -190, 139, 73, -212, 156, 175, -82, -170, -200, -161, 
-43, -234, -190, 139, 73, -212, 161, 185, -82, -175, -200, -165, 
-39, -239, -200, 139, 80, -219, 151, 190, -82, -170, -200, -165, 
-39, -239, -200, 139, 80, -219, 156, 195, -82, -175, -195, -165, 
-39, -239, -200, 139, 80, -219, 156, 200, -82, -175, -195, -165, 
-39, -239, -200, 139, 80, -219, 156, 200, -82, -175, -200, -165, 
-39, -244, -204, 141, 82, -224, 165, 200, -82, -185, -200, -156, 
-39, -248, -209, 143, 85, -229, 165, 204, -82, -185, -204, -161, 
-39, -248, -209, 143, 85, -229, 165, 209, -82, -185, -204, -161, 
-34, -258, -224, 146, 95, -241, 175, 214, -82, -190, -209, -165, 
-43, -248, -204, 146, 80, -226, 170, 219, -82, -190, -200, -165, 
-43, -248, -204, 146, 80, -226, 175, 224, -82, -190, -209, -165, 
-39, -253, -214, 146, 87, -234, 175, 234, -82, -195, -214, -175, 
-39, -258, -219, 148, 90, -239, 175, 234, -82, -195, -214, -175, 
-29, -263, -234, 146, 102, -248, 175, 239, -73, -190, -224, -175, 
-29, -268, -239, 148, 104, -253, 175, 244, -73, -190, -224, -175, 
-29, -268, -239, 148, 104, -253, 175, 248, -78, -195, -229, -180, 
-29, -268, -239, 148, 104, -253, 185, 253, -78, -195, -234, -180, 
-29, -278, -248, 153, 109, -263, 185, 263, -82, -195, -234, -180, 
-29, -278, -248, 153, 109, -263, 185, 268, -73, -195, -234, -180, 
-29, -278, -248, 153, 109, -263, 185, 273, -73, -200, -239, -185, 
-29, -283, -253, 156, 112, -268, 185, 278, -82, -209, -244, -185, 
-24, -283, -258, 153, 117, -270, 200, 283, -82, -209, -244, -195, 
-24, -287, -263, 156, 119, -275, 204, 287, -82, -209, -244, -195, 
-24, -287, -263, 156, 119, -275, 209, 292, -82, -214, -244, -195, 
-24, -292, -268, 158, 122, -280, 209, 302, -82, -219, -239, -195, 
-24, -292, -268, 158, 122, -280, 209, 307, -87, -224, -244, -195, 
-24, -297, -273, 161, 124, -285, 209, 312, -87, -229, -248, -200, 
-19, -297, -278, 158, 129, -287, 214, 322, -92, -234, -253, -200, 
-19, -302, -283, 161, 131, -292, 214, 331, -92, -239, -253, -200, 
-4, -302, -297, 153, 146, -300, 224, 331, -92, -244, -253, -200, 
-4, -312, -307, 158, 151, -309, 234, 341, -92, -244, -263, -209, 
-4, -322, -317, 163, 156, -319, 234, 346, -87, -248, -268, -209, 
-4, -322, -317, 163, 156, -319, 239, 361, -87, -248, -273, -214, 
-14, -317, -302, 165, 143, -309, 239, 370, -92, -258, -278, -224, 
-14, -322, -307, 168, 146, -314, 239, 375, -92, -268, -283, -229, 
-9, -326, -317, 168, 153, -322, 244, 390, -92, -273, -283, -234, 
-9, -331, -322, 170, 156, -326, 248, 400, -92, -273, -287, -234, 
-4, -346, -341, 175, 168, -344, 253, 409, -102, -278, -292, -234, 
-4, -346, -341, 175, 168, -344, 258, 419, -102, -278, -292, -239, 
-4, -346, -341, 175, 168, -344, 263, 429, -102, -287, -297, -244, 
-4, -351, -346, 178, 170, -348, 268, 439, -102, -292, -302, -244, 
4, -351, -356, 173, 180, -353, 283, 448, -102, -287, -302, -239, 
9, -351, -361, 170, 185, -356, 287, 458, -102, -292, -307, -244, 
9, -356, -366, 173, 187, -361, 292, 468, -102, -297, -312, -248, 
14, -366, -380, 175, 197, -373, 297, 478, -102, -307, -322, -253, 
14, -366, -380, 175, 197, -373, 302, 488, -107, -307, -336, -263, 
19, -375, -395, 178, 207, -385, 307, 497, -107, -312, -341, -268, 
19, -380, -400, 180, 209, -390, 317, 512, -107, -317, -346, -268, 
19, -385, -405, 183, 212, -395, 322, 522, -107, -326, -356, -273, 
24, -390, -414, 183, 219, -402, 326, 536, -117, -341, -361, -278, 
24, -395, -419, 185, 222, -407, 331, 546, -117, -346, -366, -283, 
24, -400, -424, 187, 224, -412, 336, 556, -117, -351, -366, -283, 
24, -405, -429, 190, 226, -417, 341, 561, -126, -356, -370, -287, 
14, -414, -429, 200, 222, -422, 346, 580, -122, -366, -380, -287, 
14, -419, -434, 202, 224, -427, 351, 590, -126, -370, -385, -292, 
14, -424, -439, 204, 226, -431, 356, 600, -126, -385, -390, -297, 
19, -434, -453, 207, 236, -444, 361, 605, -126, -390, -395, -297, 
19, -434, -453, 207, 236, -444, 366, 614, -126, -390, -400, -297, 
19, -439, -458, 209, 239, -448, 370, 624, -131, -395, -405, -297, 
19, -453, -473, 217, 246, -463, 370, 629, -131, -395, -405, -302, 
19, -444, -463, 212, 241, -453, 375, 634, -131, -405, -409, -302, 
19, -439, -458, 209, 239, -448, 380, 649, -141, -409, -414, -302, 
14, -439, -453, 212, 234, -446, 380, 649, -146, -414, -419, -302, 
9, -448, -458, 219, 234, -453, 380, 649, -146, -419, -424, -302, 
9, -444, -453, 217, 231, -448, 385, 658, -156, -434, -424, -307, 
9, -444, -453, 217, 231, -448, 385, 668, -161, -434, -434, -307, 
9, -439, -448, 214, 229, -444, 385, 668, -161, -434, -429, -297, 
9, -439, -448, 214, 229, -444, 385, 663, -151, -429, -429, -297, 
9, -424, -434, 207, 222, -429, 380, 658, -151, -429, -429, -297, 
9, -424, -434, 207, 222, -429, 380, 653, -161, -434, -434, -302, 
9, -414, -424, 202, 217, -419, 380, 649, -161, -439, -429, -297, 
4, -414, -419, 204, 212, -417, 375, 644, -165, -434, -419, -292, 
0, -409, -409, 204, 204, -409, 370, 629, -165, -434, -414, -287, 
-4, -409, -405, 207, 200, -407, 370, 619, -165, -439, -419, -283, 
-4, -395, -390, 200, 192, -392, 346, 605, -165, -429, -414, -278, 
-4, -390, -385, 197, 190, -387, 341, 600, -161, -429, -405, -268, 
-4, -370, -366, 187, 180, -368, 336, 580, -161, -414, -385, -263, 
-4, -370, -366, 187, 180, -368, 326, 561, -156, -405, -375, -258, 
-4, -366, -361, 185, 178, -363, 317, 541, -156, -395, -366, -248, 
-9, -361, -351, 185, 170, -356, 312, 522, -156, -395, -356, -239, 
-14, -351, -336, 183, 161, -344, 302, 492, -151, -380, -351, -224, 
-4, -346, -341, 175, 168, -344, 283, 468, -151, -366, -346, -224, 
-4, -326, -322, 165, 158, -324, 268, 444, -146, -341, -317, -209, 
-4, -302, -297, 153, 146, -300, 253, 409, -146, -322, -297, -195, 
-4, -278, -273, 141, 134, -275, 234, 390, -131, -292, -273, -180, 
-9, -258, -248, 134, 119, -253, 219, 366, -131, -273, -253, -170, 
-9, -239, -229, 124, 109, -234, 204, 341, -122, -258, -234, -156, 
-9, -219, -209, 114, 100, -214, 185, 317, -112, -234, -214, -151, 
-9, -200, -190, 104, 90, -195, 175, 292, -102, -229, -200, -131, 
0, -180, -180, 90, 90, -180, 151, 258, -97, -195, -170, -107, 
0, -161, -161, 80, 80, -161, 136, 244, -87, -175, -151, -97, 
0, -141, -141, 70, 70, -141, 117, 224, -73, -156, -131, -92, 
-4, -126, -122, 65, 58, -124, 102, 200, -68, -131, -122, -82, 
-4, -107, -102, 56, 48, -104, 87, 180, -58, -112, -102, -63, 
0, -92, -92, 46, 46, -92, 82, 161, -48, -97, -92, -53, 
4, -78, -82, 36, 43, -80, 73, 146, -43, -82, -73, -48, 
4, -68, -73, 31, 39, -70, 58, 131, -34, -73, -58, -39, 
4, -58, -63, 26, 34, -61, 48, 117, -29, -53, -39, -29, 
4, -43, -48, 19, 26, -46, 39, 107, -19, -48, -29, -24, 
4, -34, -39, 14, 21, -36, 34, 92, -14, -39, -19, -19, 
4, -24, -29, 9, 17, -26, 29, 78, -9, -29, -19, -19, 
4, -19, -24, 7, 14, -21, 24, 63, -9, -14, -14, -19, 
4, -14, -19, 4, 12, -17, 19, 58, -4, -9, -14, -9, 
4, -9, -14, 2, 9, -12, 14, 53, -4, 0, -9, -9, 
4, -4, -9, 0, 7, -7, 9, 48, -4, 4, -4, -4, 
9, 4, -4, -7, 7, 0, 14, 34, 4, 9, 9, -4, 
9, 9, 0, -9, 4, 4, 14, 34, 4, 9, 9, 0, 
9, 9, 0, -9, 4, 4, 9, 34, 4, 9, 14, 0, 
9, 9, 0, -9, 4, 4, 9, 34, 9, 14, 14, 0, 
9, 19, 9, -14, 0, 14, 9, 29, 19, 9, 14, 9, 
9, 24, 14, -17, -2, 19, 9, 24, 19, 9, 14, 9, 
9, 24, 14, -17, -2, 19, 9, 24, 19, 9, 14, 9, 
9, 24, 14, -17, -2, 19, 0, 19, 19, 9, 14, 9, 
9, 14, 4, -12, 2, 9, 0, 9, 19, 14, 14, 0, 
9, 14, 4, -12, 2, 9, 0, 9, 19, 14, 14, 0, 
9, 14, 4, -12, 2, 9, 0, 9, 19, 14, 14, 0, 
9, 14, 4, -12, 2, 9, 0, 9, 19, 14, 14, 0, 
19, 14, -4, -17, 12, 4, 0, 9, 9, 14, 9, 0, 
19, 14, -4, -17, 12, 4, 0, 9, 9, 14, 9, 0, 
19, 14, -4, -17, 12, 4, 0, 9, 9, 19, 9, 0, 
19, 14, -4, -17, 12, 4, 0, 9, 9, 19, 9, 0, 
19, 4, -14, -12, 17, -4, 0, 14, 9, 9, 9, 0, 
19, 4, -14, -12, 17, -4, 0, 14, 9, 9, 9, 0, 
19, 4, -14, -12, 17, -4, 0, 14, 4, 4, 9, 0, 
19, 4, -14, -12, 17, -4, 0, 14, 4, 4, 9, 0, 
19, 9, -9, -14, 14, 0, 0, 9, 4, 14, 19, 0, 
19, 9, -9, -14, 14, 0, 0, 9, 4, 14, 19, -4, 
19, 9, -9, -14, 14, 0, 4, 9, 4, 9, 19, -4, 
19, 9, -9, -14, 14, 0, 4, 14, 4, 9, 14, -4, 
14, 0, -14, -7, 14, -7, 4, 14, 9, 19, 14, 4, 
9, 0, -9, -4, 9, -4, 4, 14, 9, 19, 14, 4, 
9, 0, -9, -4, 9, -4, 4, 14, 9, 19, 14, 4, 
9, 0, -9, -4, 9, -4, 4, 14, 9, 14, 14, 4, 
0, 0, 0, 0, 0, 0, 4, 14, 9, 14, 4, 4, 
4, 0, -4, -2, 4, -2, 4, 14, 9, 9, 4, 4, 
9, -4, -14, -2, 12, -9, 4, 19, 9, 9, 4, 0, 
9, -4, -14, -2, 12, -9, 4, 19, 9, 9, 4, 0, 
4, -4, -9, 0, 7, -7, 4, 14, 9, 9, 4, 0, 
4, -4, -9, 0, 7, -7, 4, 14, 9, 9, 0, 0, 
4, -4, -9, 0, 7, -7, 4, 14, 14, 9, 0, 0, 
4, -4, -9, 0, 7, -7, 4, 14, 14, 14, 0, 0, 
4, -4, -9, 0, 7, -7, 4, 14, 9, 9, 0, -9, 
4, -4, -9, 0, 7, -7, 4, 14, 9, 4, 0, -9, 
4, -4, -9, 0, 7, -7, 9, 14, 4, 0, 0, -9, 
4, -9, -14, 2, 9, -12, 9, 14, 0, -4, 0, -9, 
4, -9, -14, 2, 9, -12, 9, 14, 9, -4, 0, -14, 
4, -14, -19, 4, 12, -17, 9, 14, 9, -9, 0, -14, 
9, -14, -24, 2, 17, -19, 14, 14, 14, -9, 0, -14, 
9, -14, -24, 2, 17, -19, 14, 14, 14, -9, 0, -14, 
0, -14, -14, 7, 7, -14, 14, 14, 14, -4, -4, -14, 
0, -19, -19, 9, 9, -19, 14, 14, 9, -4, -4, -14, 
-4, -19, -14, 12, 4, -17, 14, 14, 9, -4, -4, -19, 
-4, -19, -14, 12, 4, -17, 14, 14, 4, -4, -4, -19, 
-4, -19, -14, 12, 4, -17, 14, 4, 4, -14, 0, -14, 
0, -19, -19, 9, 9, -19, 14, 4, 4, -14, -4, -14, 
0, -19, -19, 9, 9, -19, 9, 9, 9, -14, -4, -14, 
0, -19, -19, 9, 9, -19, 9, 9, 14, -14, 0, -9, 
-4, -14, -9, 9, 2, -12, 24, 9, 14, -4, -4, -19, 
-4, -14, -9, 9, 2, -12, 24, 9, 14, -4, -4, -19, 
-4, -19, -14, 12, 4, -17, 24, 9, 14, -4, -4, -19, 
-4, -19, -14, 12, 4, -17, 19, 9, 14, -4, -4, -19, 
-4, -24, -19, 14, 7, -21, 9, 14, 14, -4, -14, -19, 
-4, -24, -19, 14, 7, -21, 9, 14, 14, -9, -14, -19, 
-4, -24, -19, 14, 7, -21, 9, 14, 14, -9, -14, -19, 
-4, -19, -14, 12, 4, -17, 9, 14, 14, -9, -9, -19, 
-4, -19, -14, 12, 4, -17, 4, 9, 4, -14, -19, -19, 
-4, -19, -14, 12, 4, -17, 4, 9, 4, -14, -19, -19, 
-9, -24, -14, 17, 2, -19, 14, 4, 4, -14, -19, -24, 
-9, -29, -19, 19, 4, -24, 14, 0, 4, -14, -19, -24, 
0, -29, -29, 14, 14, -29, 19, 0, 4, -4, -9, -24, 
0, -24, -24, 12, 12, -24, 14, 4, 9, -4, -4, -19, 
0, -14, -14, 7, 7, -14, 14, 9, 14, 0, -4, -19, 
0, -14, -14, 7, 7, -14, 14, 14, 14, 4, 0, -14, 
9, 0, -9, -4, 9, -4, 24, 14, 29, 19, 4, -4, 
9, 4, -4, -7, 7, 0, 19, 19, 24, 19, 9, 0, 
9, 9, 0, -9, 4, 4, 19, 19, 29, 19, 9, 4, 
9, 14, 4, -12, 2, 9, 19, 19, 34, 9, 4, 4, 
9, 34, 24, -21, -7, 29, 29, 34, 58, 34, 34, 14, 
9, 48, 39, -29, -14, 43, 39, 34, 68, 43, 34, 19, 
9, 48, 39, -29, -14, 43, 48, 39, 78, 39, 39, 19, 
9, 63, 53, -36, -21, 58, 58, 43, 82, 43, 43, 29, 
9, 68, 58, -39, -24, 63, 58, 48, 87, 48, 48, 29, 
9, 73, 63, -41, -26, 68, 58, 53, 92, 53, 53, 29, 
9, 78, 68, -43, -29, 73, 58, 58, 97, 58, 58, 29, 
9, 97, 87, -53, -39, 92, 68, 68, 126, 73, 68, 39, 
14, 112, 97, -63, -41, 104, 73, 78, 131, 82, 78, 48, 
14, 122, 107, -68, -46, 114, 87, 78, 136, 97, 92, 58, 
14, 136, 122, -75, -53, 129, 87, 78, 141, 112, 102, 68, 
24, 161, 136, -92, -56, 148, 73, 82, 156, 122, 117, 73, 
24, 175, 151, -100, -63, 163, 68, 82, 170, 131, 122, 87, 
24, 195, 170, -109, -73, 183, 68, 78, 185, 136, 131, 97, 
24, 219, 195, -122, -85, 207, 68, 78, 200, 151, 141, 107, 
34, 239, 204, -136, -85, 222, 48, 63, 209, 161, 151, 122, 
34, 258, 224, -146, -95, 241, 34, 58, 214, 170, 161, 136, 
34, 283, 248, -158, -107, 265, 19, 48, 219, 175, 170, 151, 
34, 297, 263, -165, -114, 280, 9, 34, 224, 180, 180, 165, 
39, 312, 273, -175, -117, 292, -9, 4, 224, 195, 195, 175, 
48, 331, 283, -190, -117, 307, -29, -4, 229, 200, 204, 180, 
48, 336, 287, -192, -119, 312, -43, -14, 224, 209, 204, 190, 
48, 336, 287, -192, -119, 312, -68, -24, 214, 209, 209, 190, 
53, 322, 268, -187, -107, 295, -82, -39, 204, 200, 204, 185, 
53, 326, 273, -190, -109, 300, -92, -53, 204, 195, 200, 180, 
53, 307, 253, -180, -100, 280, -97, -63, 185, 180, 185, 165, 
53, 292, 239, -173, -92, 265, -97, -73, 180, 165, 170, 161, 
48, 263, 214, -156, -82, 239, -92, -68, 156, 151, 151, 131, 
48, 253, 204, -151, -78, 229, -87, -63, 136, 136, 141, 126, 
43, 214, 170, -129, -63, 192, -73, -53, 126, 112, 117, 112, 
39, 170, 131, -104, -46, 151, -78, -39, 102, 92, 107, 87, 
39, 146, 107, -92, -34, 126, -58, -34, 78, 73, 87, 78, 
39, 107, 68, -73, -14, 87, -53, -29, 63, 58, 68, 58, 
34, 87, 53, -61, -9, 70, -43, -24, 48, 43, 48, 34, 
34, 53, 19, -43, 7, 36, -34, -14, 34, 19, 29, 14, 
24, 34, 9, -29, 7, 21, -19, -4, 19, 4, 19, 9, 
19, 14, -4, -17, 12, 4, -14, -4, 4, 0, 9, 0, 
19, 4, -14, -12, 17, -4, -14, -4, 0, -9, 0, -9, 
14, 0, -14, -7, 14, -7, -14, -4, -4, -19, -9, -14, 
14, 0, -14, -7, 14, -7, -4, -9, -9, -19, 0, -9, 
14, 0, -14, -7, 14, -7, -4, -9, -14, -24, -4, -14, 
4, -19, -24, 7, 14, -21, -4, -14, -14, -24, -9, -19, 
4, -19, -24, 7, 14, -21, -4, -14, -19, -29, -14, -19, 
4, -24, -29, 9, 17, -26, -4, -24, -24, -29, -14, -24, 
4, -24, -29, 9, 17, -26, -4, -29, -24, -29, -14, -24, 
4, -29, -34, 12, 19, -31, -4, -29, -24, -29, -14, -19, 
4, -34, -39, 14, 21, -36, -4, -29, -24, -29, -14, -19, 
0, -39, -39, 19, 19, -39, -14, -19, -29, -39, -14, -19, 
0, -39, -39, 19, 19, -39, -14, -19, -29, -39, -19, -24, 
0, -43, -43, 21, 21, -43, -14, -24, -29, -39, -19, -24, 
0, -43, -43, 21, 21, -43, -14, -24, -29, -39, -19, -29, 
-4, -53, -48, 29, 21, -51, -4, -24, -43, -48, -29, -39, 
-4, -53, -48, 29, 21, -51, -4, -24, -43, -53, -29, -39, 
-4, -53, -48, 29, 21, -51, -4, -24, -43, -53, -34, -39, 
-4, -53, -48, 29, 21, -51, -4, -24, -43, -53, -34, -39, 
-4, -58, -53, 31, 24, -56, -4, -24, -43, -43, -34, -39, 
-4, -58, -53, 31, 24, -56, 0, -24, -48, -43, -34, -39, 
-4, -58, -53, 31, 24, -56, 0, -24, -48, -48, -39, -39, 
-9, -63, -53, 36, 21, -58, 0, -24, -48, -48, -39, -43, 
-9, -63, -53, 36, 21, -58, 0, -19, -39, -48, -39, -43, 
-9, -63, -53, 36, 21, -58, 0, -19, -39, -48, -39, -43, 
-9, -63, -53, 36, 21, -58, 0, -19, -39, -48, -39, -43, 
-9, -63, -53, 36, 21, -58, 0, -19, -39, -48, -39, -43, 
-9, -63, -53, 36, 21, -58, 0, -29, -39, -48, -39, -43, 
-9, -68, -58, 39, 24, -63, 0, -29, -39, -48, -39, -43, 
-9, -68, -58, 39, 24, -63, 0, -29, -39, -48, -43, -48, 
-14, -68, -53, 41, 19, -61, 0, -29, -39, -48, -43, -48, 
-14, -68, -53, 41, 19, -61, 0, -29, -48, -48, -34, -48, 
-14, -68, -53, 41, 19, -61, 0, -34, -48, -48, -34, -48, 
-14, -68, -53, 41, 19, -61, 0, -34, -48, -48, -34, -48, 
-14, -68, -53, 41, 19, -61, 0, -34, -48, -48, -34, -48, 
-4, -68, -63, 36, 29, -65, 0, -24, -48, -53, -34, -48, 
-4, -68, -63, 36, 29, -65, 0, -24, -48, -53, -34, -48, 
-4, -68, -63, 36, 29, -65, 0, -24, -48, -53, -34, -48, 
-4, -68, -63, 36, 29, -65, 0, -24, -48, -53, -34, -48, 
-4, -68, -63, 36, 29, -65, 0, -24, -39, -48, -29, -48, 
-4, -68, -63, 36, 29, -65, 0, -24, -39, -48, -29, -43, 
-4, -63, -58, 34, 26, -61, 0, -24, -39, -48, -29, -43, 
-4, -63, -58, 34, 26, -61, 0, -24, -39, -48, -29, -43, 
-4, -63, -58, 34, 26, -61, -9, -34, -48, -48, -29, -43, 
-4, -63, -58, 34, 26, -61, -9, -34, -48, -48, -29, -39, 
-4, -63, -58, 34, 26, -61, -9, -39, -48, -48, -29, -39, 
-4, -63, -58, 34, 26, -61, -9, -39, -48, -48, -24, -39, 
-14, -58, -43, 36, 14, -51, -9, -39, -34, -43, -34, -39, 
-14, -58, -43, 36, 14, -51, -9, -39, -34, -39, -34, -39, 
-14, -58, -43, 36, 14, -51, -4, -39, -29, -39, -29, -39, 
-14, -58, -43, 36, 14, -51, -4, -39, -29, -39, -29, -39, 
-14, -58, -43, 36, 14, -51, -4, -34, -39, -39, -29, -39, 
-4, -68, -63, 36, 29, -65, 4, -19, -29, -39, -29, -48, 
-4, -78, -73, 41, 34, -75, 14, -9, -19, -34, -34, -58, 
4, -87, -92, 41, 48, -90, 24, 14, 4, -29, -24, -73, 
9, -107, -117, 48, 63, -112, 29, 34, 24, -4, -24, -87, 
14, -131, -146, 58, 80, -139, 39, 48, 43, 0, -24, -112, 
9, -161, -170, 75, 90, -165, 53, 82, 78, 14, -48, -136, 
34, -195, -229, 80, 131, -212, 53, 97, 112, 19, -53, -170, 
68, -195, -263, 63, 165, -229, 53, 107, 151, 63, -34, -190, 
102, -136, -239, 17, 170, -187, 0, 78, 204, 141, 43, -161, 
151, -48, -200, -51, 175, -124, -78, 39, 239, 234, 136, -97, 
175, 58, -117, -117, 146, -29, -175, -24, 273, 351, 244, -29, 
200, 239, 39, -219, 80, 139, -307, -141, 336, 497, 395, 92, 
214, 483, 268, -348, -26, 375, -468, -326, 414, 688, 585, 244, 
214, 741, 527, -478, -156, 634, -653, -561, 483, 888, 780, 414, 
209, 1000, 790, -605, -290, 895, -834, -814, 536, 1044, 956, 570, 
200, 1220, 1019, -710, -409, 1119, -951, -1015, 585, 1195, 1102, 702, 
209, 1415, 1205, -812, -497, 1310, -1044, -1166, 610, 1322, 1215, 805, 
224, 1664, 1439, -944, -607, 1551, -1190, -1361, 610, 1459, 1351, 956, 
253, 1971, 1717, -1112, -732, 1844, -1415, -1605, 614, 1654, 1556, 1171, 
326, 2259, 1932, -1293, -802, 2095, -1639, -1786, 619, 1859, 1786, 1371, 
385, 2357, 1971, -1371, -793, 2164, -1795, -1878, 566, 1971, 1922, 1488, 
424, 2235, 1810, -1329, -692, 2022, -1849, -1883, 414, 1932, 1937, 1488, 
424, 1932, 1507, -1178, -541, 1720, -1805, -1810, 283, 1830, 1878, 1395, 
336, 1688, 1351, -1012, -507, 1520, -1693, -1727, 219, 1747, 1830, 1307, 
165, 1620, 1454, -893, -644, 1537, -1600, -1727, 195, 1678, 1790, 1312, 
19, 1542, 1522, -780, -751, 1532, -1507, -1732, 97, 1503, 1649, 1302, 
-73, 1166, 1239, -546, -656, 1202, -1273, -1551, -73, 1083, 1220, 1073, 
-112, 497, 610, -192, -361, 553, -883, -1141, -273, 390, 429, 575, 
-126, -200, -73, 163, -26, -136, -492, -736, -463, -322, -385, 48, 
-131, -551, -419, 341, 143, -485, -258, -522, -668, -644, -692, -244, 
-117, -668, -551, 392, 217, -610, -146, -375, -800, -727, -692, -356, 
-92, -732, -639, 412, 273, -685, -53, -229, -785, -727, -678, -429, 
-102, -727, -624, 414, 261, -675, 14, -156, -653, -644, -614, -444, 
-112, -658, -546, 385, 217, -602, 53, -136, -527, -527, -492, -400, 
-112, -566, -453, 339, 170, -509, 68, -97, -429, -439, -405, -336, 
-107, -488, -380, 297, 136, -434, 78, -58, -331, -361, -336, -273, 
-117, -419, -302, 268, 92, -361, 102, -43, -253, -283, -283, -229, 
-131, -366, -234, 248, 51, -300, 112, -34, -214, -253, -244, -200, 
-122, -326, -204, 224, 41, -265, 117, -24, -190, -234, -224, -175, 
-122, -292, -170, 207, 24, -231, 122, -9, -161, -219, -209, -165, 
-107, -278, -170, 192, 31, -224, 122, 14, -146, -209, -195, -156, 
-102, -278, -175, 190, 36, -226, 122, 39, -156, -209, -195, -156, 
-82, -278, -195, 180, 56, -236, 122, 43, -156, -204, -204, -156, 
-73, -287, -214, 180, 70, -251, 131, 58, -151, -204, -204, -161, 
-73, -283, -209, 178, 68, -246, 136, 68, -151, -204, -200, -165, 
-68, -273, -204, 170, 68, -239, 141, 78, -146, -204, -190, -165, 
-68, -263, -195, 165, 63, -229, 141, 78, -141, -200, -195, -165, 
-68, -258, -190, 163, 61, -224, 141, 82, -131, -200, -195, -165, 
-63, -253, -190, 158, 63, -222, 136, 82, -126, -195, -195, -161, 
-63, -248, -185, 156, 61, -217, 136, 92, -122, -195, -190, -151, 
-53, -253, -200, 153, 73, -226, 136, 107, -117, -185, -190, -151, 
-48, -258, -209, 153, 80, -234, 141, 117, -117, -185, -185, -151, 
-43, -263, -219, 153, 87, -241, 141, 122, -117, -185, -185, -151, 
-29, -253, -224, 141, 97, -239, 141, 117, -112, -185, -175, -151, 
-29, -253, -224, 141, 97, -239, 146, 117, -112, -185, -175, -151, 
-34, -253, -219, 143, 92, -236, 146, 117, -107, -185, -175, -151, 
-34, -253, -219, 143, 92, -236, 146, 126, -107, -185, -175, -151, 
-43, -253, -209, 148, 82, -231, 146, 126, -102, -180, -175, -141, 
-39, -253, -214, 146, 87, -234, 146, 131, -102, -180, -175, -146, 
-39, -253, -214, 146, 87, -234, 146, 136, -102, -180, -175, -146, 
-39, -253, -214, 146, 87, -234, 146, 141, -102, -175, -180, -151, 
-39, -253, -214, 146, 87, -234, 151, 146, -92, -175, -180, -151, 
-34, -253, -219, 143, 92, -236, 151, 146, -92, -175, -180, -151, 
-34, -253, -219, 143, 92, -236, 151, 151, -92, -175, -180, -151, 
-29, -253, -224, 141, 97, -239, 156, 156, -92, -180, -180, -151, 
-29, -244, -214, 136, 92, -229, 161, 161, -92, -180, -180, -151, 
-19, -248, -229, 134, 104, -239, 161, 165, -92, -180, -185, -151, 
-19, -248, -229, 134, 104, -239, 161, 170, -87, -175, -185, -151, 
-19, -248, -229, 134, 104, -239, 161, 170, -87, -175, -180, -151, 
-19, -248, -229, 134, 104, -239, 161, 161, -97, -175, -190, -161, 
-24, -253, -229, 139, 102, -241, 165, 170, -97, -175, -190, -161, 
-24, -253, -229, 139, 102, -241, 165, 175, -97, -180, -190, -161, 
-24, -253, -229, 139, 102, -241, 165, 175, -102, -185, -195, -161, 
-29, -258, -229, 143, 100, -244, 161, 180, -92, -185, -195, -161, 
-29, -258, -229, 143, 100, -244, 161, 185, -92, -185, -195, -161, 
-29, -258, -229, 143, 100, -244, 161, 190, -92, -185, -195, -161, 
-29, -258, -229, 143, 100, -244, 161, 190, -92, -185, -200, -161, 
-29, -258, -229, 143, 100, -244, 161, 190, -97, -185, -195, -161, 
-29, -258, -229, 143, 100, -244, 161, 190, -97, -190, -200, -165, 
-24, -263, -239, 143, 107, -251, 165, 190, -102, -200, -209, -170, 
-24, -263, -239, 143, 107, -251, 170, 195, -102, -204, -209, -175, 
-29, -268, -239, 148, 104, -253, 161, 200, -92, -200, -219, -175, 
-29, -268, -239, 148, 104, -253, 165, 204, -92, -204, -214, -175, 
-29, -268, -239, 148, 104, -253, 165, 209, -92, -204, -214, -175, 
-29, -268, -239, 148, 104, -253, 165, 209, -92, -204, -219, -175, 
-19, -263, -244, 141, 112, -253, 165, 209, -92, -204, -209, -165, 
-19, -268, -248, 143, 114, -258, 165, 214, -92, -204, -214, -170, 
-19, -268, -248, 143, 114, -258, 165, 219, -92, -204, -214, -170, 
-14, -278, -263, 146, 124, -270, 175, 224, -92, -209, -219, -175, 
-24, -278, -253, 151, 114, -265, 180, 219, -92, -209, -219, -175, 
-24, -278, -253, 151, 114, -265, 185, 224, -92, -209, -229, -175, 
-19, -283, -263, 151, 122, -273, 185, 234, -92, -214, -234, -185, 
-19, -287, -268, 153, 124, -278, 185, 234, -92, -214, -234, -185, 
-19, -292, -273, 156, 126, -283, 195, 248, -92, -229, -234, -175, 
-19, -297, -278, 158, 129, -287, 195, 253, -92, -229, -234, -175, 
-19, -297, -278, 158, 129, -287, 195, 258, -97, -234, -239, -180, 
-19, -297, -278, 158, 129, -287, 204, 263, -97, -234, -244, -180, 
-9, -307, -297, 158, 143, -302, 214, 263, -102, -234, -244, -190, 
-9, -307, -297, 158, 143, -302, 214, 268, -92, -234, -244, -190, 
-9, -307, -297, 158, 143, -302, 214, 273, -92, -239, -248, -195, 
-9, -312, -302, 161, 146, -307, 214, 278, -102, -248, -253, -195, 
-4, -322, -317, 163, 156, -319, 219, 283, -102, -248, -258, -204, 
-4, -326, -322, 165, 158, -324, 224, 287, -102, -248, -263, -204, 
-4, -326, -322, 165, 158, -324, 229, 292, -102, -253, -268, -204, 
-4, -331, -326, 168, 161, -329, 229, 302, -102, -258, -268, -204, 
-4, -331, -326, 168, 161, -329, 229, 307, -107, -253, -273, -204, 
-4, -336, -331, 170, 163, -334, 229, 312, -107, -258, -278, -209, 
0, -336, -336, 168, 168, -336, 234, 322, -112, -263, -283, -209, 
0, -341, -341, 170, 170, -341, 234, 331, -112, -268, -283, -209, 
4, -336, -341, 165, 173, -339, 244, 331, -122, -283, -283, -219, 
4, -351, -356, 173, 180, -353, 253, 341, -122, -283, -292, -229, 
4, -366, -370, 180, 187, -368, 253, 346, -117, -287, -297, -229, 
4, -370, -375, 183, 190, -373, 258, 361, -117, -287, -302, -234, 
4, -366, -370, 180, 187, -368, 258, 361, -122, -287, -307, -234, 
4, -370, -375, 183, 190, -373, 258, 366, -122, -297, -312, -239, 
9, -375, -385, 183, 197, -380, 263, 380, -122, -302, -312, -244, 
9, -380, -390, 185, 200, -385, 268, 390, -122, -302, -317, -244, 
14, -395, -409, 190, 212, -402, 263, 400, -131, -317, -331, -244, 
14, -395, -409, 190, 212, -402, 268, 409, -131, -317, -331, -248, 
14, -395, -409, 190, 212, -402, 273, 419, -131, -326, -336, -253, 
14, -400, -414, 192, 214, -407, 278, 429, -131, -331, -341, -253, 
14, -409, -424, 197, 219, -417, 292, 448, -141, -336, -341, -258, 
19, -409, -429, 195, 224, -419, 297, 458, -141, -341, -346, -263, 
19, -414, -434, 197, 226, -424, 302, 468, -141, -346, -351, -268, 
24, -424, -448, 200, 236, -436, 307, 478, -141, -356, -361, -273, 
24, -424, -448, 200, 236, -436, 302, 478, -156, -366, -356, -283, 
29, -434, -463, 202, 246, -448, 307, 488, -156, -370, -361, -287, 
29, -439, -468, 204, 248, -453, 317, 502, -156, -375, -366, -287, 
29, -444, -473, 207, 251, -458, 322, 512, -156, -385, -375, -292, 
34, -444, -478, 204, 256, -461, 326, 517, -156, -390, -380, -297, 
34, -444, -478, 204, 256, -461, 331, 527, -156, -395, -385, -302, 
34, -444, -478, 204, 256, -461, 336, 536, -156, -400, -385, -302, 
34, -444, -478, 204, 256, -461, 341, 541, -165, -405, -390, -307, 
34, -453, -488, 209, 261, -470, 346, 551, -170, -405, -400, -297, 
34, -458, -492, 212, 263, -475, 351, 561, -175, -409, -405, -302, 
34, -463, -497, 214, 265, -480, 356, 570, -175, -424, -409, -307, 
39, -473, -512, 217, 275, -492, 361, 575, -175, -429, -414, -307, 
39, -478, -517, 219, 278, -497, 356, 585, -185, -439, -429, -317, 
39, -478, -517, 219, 278, -497, 361, 595, -190, -444, -434, -317, 
39, -488, -527, 224, 283, -507, 361, 600, -190, -444, -434, -322, 
39, -473, -512, 217, 275, -492, 366, 605, -190, -453, -439, -322, 
39, -463, -502, 212, 270, -483, 370, 610, -200, -458, -444, -322, 
34, -468, -502, 217, 268, -485, 370, 610, -204, -463, -448, -322, 
29, -483, -512, 226, 270, -497, 370, 610, -204, -468, -453, -322, 
29, -483, -512, 226, 270, -497, 375, 619, -214, -483, -453, -326, 
29, -473, -502, 222, 265, -488, 375, 619, -219, -483, -453, -317, 
29, -468, -497, 219, 263, -483, 375, 619, -219, -483, -448, -307, 
29, -468, -497, 219, 263, -483, 375, 614, -209, -478, -448, -307, 
29, -453, -483, 212, 256, -468, 370, 610, -209, -478, -448, -307, 
29, -448, -478, 209, 253, -463, 370, 605, -219, -488, -453, -302, 
29, -444, -473, 207, 251, -458, 370, 600, -219, -488, -448, -297, 
24, -448, -473, 212, 248, -461, 366, 595, -224, -478, -439, -292, 
19, -448, -468, 214, 244, -458, 361, 580, -224, -473, -434, -287, 
14, -453, -468, 219, 241, -461, 361, 570, -224, -483, -439, -292, 
14, -434, -448, 209, 231, -441, 336, 556, -224, -468, -434, -287, 
14, -424, -439, 204, 226, -431, 331, 551, -219, -463, -424, -278, 
14, -400, -414, 192, 214, -407, 326, 531, -219, -444, -405, -273, 
14, -395, -409, 190, 212, -402, 317, 512, -204, -439, -385, -258, 
14, -385, -400, 185, 207, -392, 307, 492, -204, -424, -375, -248, 
9, -375, -385, 183, 197, -380, 302, 473, -204, -419, -366, -239, 
4, -361, -366, 178, 185, -363, 292, 444, -200, -400, -361, -224, 
14, -336, -351, 161, 183, -344, 278, 429, -190, -375, -336, -224, 
14, -317, -331, 151, 173, -324, 258, 405, -185, -351, -307, -209, 
14, -292, -307, 139, 161, -300, 239, 370, -185, -331, -287, -195, 
14, -268, -283, 126, 148, -275, 214, 351, -170, -302, -263, -180, 
9, -248, -258, 119, 134, -253, 200, 326, -151, -278, -244, -170, 
9, -229, -239, 109, 124, -234, 185, 302, -141, -258, -224, -156, 
9, -209, -219, 100, 114, -214, 165, 278, -131, -229, -204, -151, 
9, -190, -200, 90, 104, -195, 156, 253, -122, -219, -190, -131, 
19, -170, -190, 75, 104, -180, 141, 229, -107, -180, -156, -107, 
19, -151, -170, 65, 95, -161, 126, 214, -97, -165, -141, -97, 
19, -131, -151, 56, 85, -141, 107, 195, -82, -151, -126, -92, 
14, -117, -131, 51, 73, -124, 92, 170, -78, -131, -122, -82, 
4, -97, -102, 46, 53, -100, 87, 161, -68, -112, -102, -63, 
9, -82, -92, 36, 51, -87, 82, 141, -58, -97, -92, -53, 
14, -68, -82, 26, 48, -75, 73, 126, -53, -82, -73, -48, 
14, -58, -73, 21, 43, -65, 58, 112, -43, -73, -58, -39, 
14, -58, -73, 21, 43, -65, 58, 92, -48, -53, -48, -39, 
14, -43, -58, 14, 36, -51, 48, 87, -39, -48, -39, -34, 
14, -34, -48, 9, 31, -41, 43, 78, -34, -39, -29, -29, 
14, -24, -39, 4, 26, -31, 39, 68, -29, -29, -29, -29, 
4, -19, -24, 7, 14, -21, 34, 63, -19, -24, -24, -19, 
4, -14, -19, 4, 12, -17, 29, 58, -14, -19, -24, -9, 
4, -9, -14, 2, 9, -12, 24, 53, -14, -9, -19, -9, 
4, -4, -9, 0, 7, -7, 19, 48, -14, -4, -14, -4, 
19, 4, -14, -12, 17, -4, 24, 43, -4, 0, 0, -4, 
19, 9, -9, -14, 14, 0, 24, 43, -4, 0, 0, 0, 
19, 9, -9, -14, 14, 0, 19, 43, -4, 0, 4, 0, 
19, 9, -9, -14, 14, 0, 19, 43, 0, 4, 4, 0, 
19, 9, -9, -14, 14, 0, 19, 29, 9, 9, 4, 0, 
19, 14, -4, -17, 12, 4, 19, 24, 9, 9, 4, 0, 
19, 14, -4, -17, 12, 4, 19, 24, 9, 9, 4, 0, 
19, 14, -4, -17, 12, 4, 9, 19, 9, 9, 4, 0, 
19, 4, -14, -12, 17, -4, 9, 19, 9, 4, -4, -9, 
19, 4, -14, -12, 17, -4, 9, 19, 9, 4, -4, -9, 
19, 4, -14, -12, 17, -4, 9, 19, 9, 4, -4, -9, 
19, 4, -14, -12, 17, -4, 9, 19, 9, 4, -4, -9, 
19, 4, -14, -12, 17, -4, 9, 19, 0, 4, 0, -9, 
19, 4, -14, -12, 17, -4, 9, 19, 0, 4, 0, -9, 
19, 4, -14, -12, 17, -4, 9, 19, 0, 9, 0, -9, 
19, 4, -14, -12, 17, -4, 9, 19, 0, 9, 0, -9, 
19, 4, -14, -12, 17, -4, 9, 24, 9, 9, 0, -9, 
19, 4, -14, -12, 17, -4, 9, 24, 9, 9, 0, -9, 
19, 4, -14, -12, 17, -4, 9, 24, 4, 4, 0, -9, 
19, 4, -14, -12, 17, -4, 9, 24, 4, 4, 0, -9, 
19, 0, -19, -9, 19, -9, 9, 19, 4, 4, 0, 0, 
19, 0, -19, -9, 19, -9, 9, 19, 4, 4, 0, -4, 
19, 0, -19, -9, 19, -9, 14, 19, 4, 0, 0, -4, 
19, 0, -19, -9, 19, -9, 14, 24, 4, 0, -4, -4, 
14, 0, -14, -7, 14, -7, 14, 24, 9, 0, -4, -4, 
9, 0, -9, -4, 9, -4, 14, 24, 9, 0, -4, -4, 
9, 0, -9, -4, 9, -4, 14, 24, 9, 0, -4, -4, 
9, 0, -9, -4, 9, -4, 14, 24, 9, -4, -4, -4, 
0, 0, 0, 0, 0, 0, 14, 24, 0, 4, -4, -14, 
4, 0, -4, -2, 4, -2, 14, 24, 0, 0, -4, -14, 
9, -4, -14, -2, 12, -9, 14, 29, 0, 0, -4, -19, 
9, -4, -14, -2, 12, -9, 14, 29, 0, 0, -4, -19, 
14, -4, -19, -4, 17, -12, 14, 34, 0, 0, -4, -19, 
14, -4, -19, -4, 17, -12, 14, 34, 0, 0, -9, -19, 
14, -4, -19, -4, 17, -12, 14, 34, 4, 0, -9, -19, 
14, -4, -19, -4, 17, -12, 14, 34, 4, 4, -9, -19, 
4, -14, -19, 4, 12, -17, 14, 34, 0, -4, -19, -19, 
4, -14, -19, 4, 12, -17, 14, 34, 0, -4, -19, -19, 
4, -14, -19, 4, 12, -17, 19, 34, -4, -4, -19, -19, 
4, -19, -24, 7, 14, -21, 19, 34, -9, -4, -19, -19, 
4, -9, -14, 2, 9, -12, 9, 34, -9, -4, -19, -24, 
4, -14, -19, 4, 12, -17, 9, 34, -9, -9, -19, -24, 
9, -14, -24, 2, 17, -19, 14, 34, -4, -9, -19, -24, 
9, -14, -24, 2, 17, -19, 14, 34, -4, -9, -19, -24, 
9, -4, -14, -2, 12, -9, 24, 34, 4, -4, -14, -14, 
9, -9, -19, 0, 14, -14, 24, 34, 0, -4, -14, -14, 
4, -9, -14, 2, 9, -12, 24, 34, 0, -4, -14, -19, 
4, -9, -14, 2, 9, -12, 24, 34, -4, -4, -14, -19, 
14, -4, -19, -4, 17, -12, 34, 43, 4, 4, -14, -14, 
19, 0, -19, -9, 19, -9, 34, 43, 4, 4, -14, -14, 
19, 4, -14, -12, 17, -4, 29, 48, 9, 4, -9, -14, 
19, 9, -9, -14, 14, 0, 29, 48, 14, 4, 0, -9, 
24, 19, -4, -21, 14, 7, 43, 58, 19, 9, 14, 0, 
24, 24, 0, -24, 12, 12, 43, 58, 24, 14, 14, 0, 
24, 24, 0, -24, 12, 12, 43, 58, 29, 19, 14, 0, 
24, 29, 4, -26, 9, 17, 39, 58, 34, 24, 14, 0, 
34, 53, 19, -43, 7, 36, 48, 73, 63, 43, 24, 9, 
29, 68, 39, -48, -4, 53, 48, 78, 68, 48, 29, 9, 
39, 73, 34, -56, 2, 53, 58, 87, 73, 58, 34, 19, 
39, 78, 39, -58, 0, 58, 58, 87, 78, 58, 39, 19, 
39, 82, 43, -61, -2, 63, 58, 87, 82, 58, 43, 19, 
39, 87, 48, -63, -4, 68, 58, 87, 87, 58, 48, 19, 
29, 107, 78, -68, -24, 92, 48, 87, 117, 73, 58, 29, 
34, 122, 87, -78, -26, 104, 53, 97, 122, 82, 68, 39, 
34, 131, 97, -82, -31, 114, 68, 97, 126, 97, 82, 48, 
34, 146, 112, -90, -39, 129, 68, 97, 131, 112, 92, 58, 
43, 175, 131, -109, -43, 153, 58, 92, 151, 122, 107, 73, 
43, 185, 141, -114, -48, 163, 48, 92, 161, 131, 112, 87, 
43, 200, 156, -122, -56, 178, 43, 87, 170, 136, 122, 97, 
43, 219, 175, -131, -65, 197, 39, 87, 180, 151, 131, 107, 
53, 234, 180, -143, -63, 207, 29, 73, 185, 151, 141, 117, 
53, 248, 195, -151, -70, 222, 14, 68, 185, 161, 151, 126, 
53, 268, 214, -161, -80, 241, 0, 58, 185, 165, 161, 136, 
53, 278, 224, -165, -85, 251, -9, 43, 185, 170, 170, 146, 
48, 287, 239, -168, -95, 263, -24, 19, 185, 170, 170, 151, 
58, 302, 244, -180, -92, 273, -39, 14, 190, 170, 175, 151, 
58, 302, 244, -180, -92, 273, -48, 9, 185, 175, 170, 156, 
58, 297, 239, -178, -90, 268, -68, 4, 175, 170, 170, 151, 
53, 283, 229, -168, -87, 256, -78, -14, 161, 151, 156, 136, 
53, 278, 224, -165, -85, 251, -82, -24, 156, 146, 151, 131, 
53, 248, 195, -151, -70, 222, -82, -29, 131, 131, 136, 117, 
53, 224, 170, -139, -58, 197, -78, -34, 122, 117, 122, 112, 
48, 195, 146, -122, -48, 170, -68, -24, 107, 112, 102, 82, 
48, 185, 136, -117, -43, 161, -58, -24, 87, 97, 92, 78, 
43, 146, 102, -95, -29, 124, -39, -19, 78, 73, 68, 63, 
