I, II, III, aVR, aVL, aVF, V1, V2, V3, V4, V5, V6, 
9, -1122, -1132, 556, 570, -1127, 351, 253, 224, 107, 175, 156, 
9, -1122, -1132, 556, 570, -1127, 312, 239, 214, 107, 175, 161, 
9, -1122, -1132, 556, 570, -1127, 273, 224, 204, 107, 175, 165, 
14, -1122, -1137, 553, 575, -1129, 244, 219, 204, 107, 180, 170, 
19, -1122, -1141, 551, 580, -1132, 214, 214, 204, 107, 185, 175, 
24, -1122, -1146, 549, 585, -1134, 209, 214, 204, 107, 185, 175, 
29, -1122, -1151, 546, 590, -1137, 204, 214, 204, 107, 185, 175, 
34, -1122, -1156, 544, 595, -1139, 204, 224, 209, 112, 190, 180, 
39, -1122, -1161, 541, 600, -1141, 204, 234, 214, 117, 195, 185, 
48, -1122, -1171, 536, 610, -1146, 200, 248, 219, 122, 200, 190, 
58, -1122, -1180, 531, 619, -1151, 195, 263, 224, 126, 204, 195, 
68, -1117, -1185, 524, 627, -1151, 195, 273, 239, 136, 209, 200, 
78, -1112, -1190, 517, 634, -1151, 195, 283, 253, 146, 214, 204, 
82, -1112, -1195, 514, 639, -1154, 195, 292, 263, 156, 224, 209, 
87, -1112, -1200, 512, 644, -1156, 195, 302, 273, 165, 234, 214, 
87, -1112, -1200, 512, 644, -1156, 200, 307, 283, 170, 234, 214, 
87, -1112, -1200, 512, 644, -1156, 204, 312, 292, 175, 234, 214, 
87, -1117, -1205, 514, 646, -1161, 204, 317, 297, 175, 234, 214, 
87, -1122, -1210, 517, 649, -1166, 204, 322, 302, 175, 234, 214, 
87, -1122, -1210, 517, 649, -1166, 209, 336, 312, 175, 229, 214, 
87, -1122, -1210, 517, 649, -1166, 214, 351, 322, 175, 224, 214, 
92, -1127, -1220, 517, 656, -1173, 219, 366, 331, 175, 224, 214, 
97, -1132, -1229, 517, 663, -1180, 224, 380, 341, 175, 224, 214, 
102, -1146, -1249, 522, 675, -1198, 229, 395, 346, 175, 214, 209, 
107, -1161, -1268, 527, 688, -1215, 234, 409, 351, 175, 204, 204, 
107, -1171, -1278, 531, 692, -1224, 244, 429, 361, 170, 195, 190, 
107, -1180, -1288, 536, 697, -1234, 253, 448, 370, 165, 185, 175, 
112, -1200, -1312, 544, 712, -1256, 268, 473, 375, 161, 175, 165, 
117, -1220, -1337, 551, 727, -1278, 283, 497, 380, 156, 165, 156, 
122, -1224, -1346, 551, 734, -1285, 292, 517, 390, 151, 156, 146, 
126, -1229, -1356, 551, 741, -1293, 302, 536, 400, 146, 146, 136, 
136, -1239, -1376, 551, 756, -1307, 322, 570, 414, 146, 141, 131, 
146, -1249, -1395, 551, 771, -1322, 341, 605, 429, 146, 136, 126, 
156, -1259, -1415, 551, 785, -1337, 356, 629, 439, 146, 136, 126, 
165, -1268, -1434, 551, 800, -1351, 370, 653, 448, 146, 136, 126, 
170, -1268, -1439, 549, 805, -1354, 385, 683, 473, 156, 141, 126, 
175, -1268, -1444, 546, 810, -1356, 400, 712, 497, 165, 146, 126, 
175, -1254, -1429, 539, 802, -1342, 409, 732, 517, 175, 151, 131, 
175, -1239, -1415, 531, 795, -1327, 419, 751, 536, 185, 156, 136, 
165, -1239, -1405, 536, 785, -1322, 419, 741, 536, 190, 156, 136, 
156, -1239, -1395, 541, 775, -1317, 419, 732, 536, 195, 156, 136, 
151, -1244, -1395, 546, 773, -1320, 414, 712, 536, 204, 165, 146, 
146, -1249, -1395, 551, 771, -1322, 409, 692, 536, 214, 175, 156, 
146, -1249, -1395, 551, 771, -1322, 370, 673, 522, 219, 190, 165, 
146, -1249, -1395, 551, 771, -1322, 331, 653, 507, 224, 204, 175, 
146, -1239, -1385, 546, 766, -1312, 297, 634, 492, 239, 229, 195, 
146, -1229, -1376, 541, 761, -1302, 263, 614, 478, 253, 253, 214, 
146, -1215, -1361, 534, 753, -1288, 258, 590, 468, 268, 268, 229, 
146, -1200, -1346, 527, 746, -1273, 253, 566, 458, 283, 283, 244, 
126, -1200, -1327, 536, 727, -1263, 253, 527, 444, 283, 297, 253, 
107, -1200, -1307, 546, 707, -1254, 253, 488, 429, 283, 312, 263, 
92, -1200, -1293, 553, 692, -1246, 248, 463, 409, 283, 317, 268, 
78, -1200, -1278, 561, 678, -1239, 244, 439, 390, 283, 322, 273, 
63, -1200, -1263, 568, 663, -1232, 244, 409, 370, 278, 322, 273, 
48, -1200, -1249, 575, 649, -1224, 244, 380, 351, 273, 322, 273, 
34, -1210, -1244, 588, 639, -1227, 244, 361, 331, 263, 317, 268, 
19, -1220, -1239, 600, 629, -1229, 244, 341, 312, 253, 312, 263, 
9, -1229, -1239, 610, 624, -1234, 244, 326, 297, 244, 307, 263, 
0, -1239, -1239, 619, 619, -1239, 244, 312, 283, 234, 302, 263, 
-4, -1249, -1244, 627, 619, -1246, 248, 302, 273, 229, 297, 258, 
-9, -1259, -1249, 634, 619, -1254, 253, 292, 263, 224, 292, 253, 
-14, -1273, -1259, 644, 622, -1266, 253, 283, 253, 209, 283, 248, 
-19, -1288, -1268, 653, 624, -1278, 253, 273, 244, 195, 273, 244, 
-19, -1288, -1268, 653, 624, -1278, 258, 273, 239, 195, 273, 244, 
-19, -1288, -1268, 653, 624, -1278, 263, 273, 234, 195, 273, 244, 
-19, -1288, -1268, 653, 624, -1278, 268, 273, 234, 195, 273, 244, 
-19, -1288, -1268, 653, 624, -1278, 273, 273, 234, 195, 273, 244, 
-24, -1293, -1268, 658, 622, -1281, 278, 273, 234, 195, 273, 239, 
-29, -1298, -1268, 663, 619, -1283, 283, 273, 234, 195, 273, 234, 
-34, -1302, -1268, 668, 617, -1285, 287, 273, 234, 190, 268, 234, 
-39, -1307, -1268, 673, 614, -1288, 292, 273, 234, 185, 263, 234, 
-39, -1312, -1273, 675, 617, -1293, 302, 278, 234, 185, 263, 229, 
-39, -1317, -1278, 678, 619, -1298, 312, 283, 234, 185, 263, 224, 
-39, -1317, -1278, 678, 619, -1298, 331, 292, 239, 185, 263, 224, 
-39, -1317, -1278, 678, 619, -1298, 351, 302, 244, 185, 263, 224, 
-34, -1302, -1268, 668, 617, -1285, 366, 331, 278, 204, 278, 234, 
-29, -1288, -1259, 658, 614, -1273, 380, 361, 312, 224, 292, 244, 
-24, -1254, -1229, 639, 602, -1241, 380, 361, 326, 239, 307, 258, 
-19, -1220, -1200, 619, 590, -1210, 380, 361, 341, 253, 322, 273, 
-19, -1220, -1200, 619, 590, -1210, 370, 346, 341, 253, 322, 278, 
-19, -1220, -1200, 619, 590, -1210, 361, 331, 341, 253, 322, 283, 
-19, -1220, -1200, 619, 590, -1210, 341, 307, 322, 248, 317, 283, 
-19, -1220, -1200, 619, 590, -1210, 322, 283, 302, 244, 312, 283, 
-19, -1224, -1205, 622, 592, -1215, 292, 273, 283, 234, 312, 278, 
-19, -1229, -1210, 624, 595, -1220, 263, 263, 263, 224, 312, 273, 
-9, -1239, -1229, 624, 610, -1234, 244, 258, 248, 214, 307, 273, 
0, -1249, -1249, 624, 624, -1249, 224, 253, 234, 204, 302, 273, 
0, -1254, -1254, 627, 627, -1254, 214, 253, 224, 200, 297, 268, 
0, -1259, -1259, 629, 629, -1259, 204, 253, 214, 195, 292, 263, 
0, -1268, -1268, 634, 634, -1268, 200, 253, 204, 190, 283, 253, 
0, -1278, -1278, 639, 639, -1278, 195, 253, 195, 185, 273, 244, 
0, -1283, -1283, 641, 641, -1283, 195, 253, 190, 180, 273, 244, 
0, -1288, -1288, 644, 644, -1288, 195, 253, 185, 175, 273, 244, 
4, -1293, -1298, 644, 651, -1295, 195, 253, 185, 175, 273, 244, 
9, -1298, -1307, 644, 658, -1302, 195, 253, 185, 175, 273, 244, 
9, -1298, -1307, 644, 658, -1302, 195, 253, 185, 170, 268, 239, 
9, -1298, -1307, 644, 658, -1302, 195, 253, 185, 165, 263, 234, 
4, -1302, -1307, 649, 656, -1305, 195, 248, 175, 161, 253, 224, 
0, -1307, -1307, 653, 653, -1307, 195, 244, 165, 156, 244, 214, 
-9, -1322, -1312, 666, 651, -1317, 200, 234, 161, 141, 234, 209, 
-19, -1337, -1317, 678, 649, -1327, 204, 224, 156, 126, 224, 204, 
-24, -1342, -1317, 683, 646, -1329, 204, 224, 151, 122, 219, 195, 
-29, -1346, -1317, 688, 644, -1332, 204, 224, 146, 117, 214, 185, 
-29, -1351, -1322, 690, 646, -1337, 209, 224, 146, 117, 209, 185, 
-29, -1356, -1327, 692, 649, -1342, 214, 224, 146, 117, 204, 185, 
-29, -1361, -1332, 695, 651, -1346, 214, 224, 146, 117, 204, 180, 
-29, -1366, -1337, 697, 653, -1351, 214, 224, 146, 117, 204, 175, 
-29, -1366, -1337, 697, 653, -1351, 219, 229, 146, 117, 204, 175, 
-29, -1366, -1337, 697, 653, -1351, 224, 234, 146, 117, 204, 175, 
-24, -1361, -1337, 692, 656, -1349, 229, 244, 151, 122, 209, 175, 
-19, -1356, -1337, 688, 658, -1346, 234, 253, 156, 126, 214, 175, 
-14, -1346, -1332, 680, 658, -1339, 234, 263, 165, 136, 219, 180, 
-9, -1337, -1327, 673, 658, -1332, 234, 273, 175, 146, 224, 185, 
-9, -1312, -1302, 661, 646, -1307, 244, 273, 195, 156, 234, 195, 
-9, -1288, -1278, 649, 634, -1283, 253, 273, 214, 165, 244, 204, 
-14, -1273, -1259, 644, 622, -1266, 263, 263, 224, 170, 248, 209, 
-19, -1259, -1239, 639, 610, -1249, 273, 253, 234, 175, 253, 214, 
-29, -1244, -1215, 636, 592, -1229, 258, 229, 234, 180, 258, 224, 
-39, -1229, -1190, 634, 575, -1210, 244, 204, 234, 185, 263, 234, 
-39, -1220, -1180, 629, 570, -1200, 214, 190, 234, 185, 263, 234, 
-39, -1210, -1171, 624, 566, -1190, 185, 175, 234, 185, 263, 234, 
-34, -1205, -1171, 619, 568, -1188, 170, 170, 229, 185, 263, 229, 
-29, -1200, -1171, 614, 570, -1185, 156, 165, 224, 185, 263, 224, 
-19, -1200, -1180, 610, 580, -1190, 141, 165, 214, 175, 258, 224, 
-9, -1200, -1190, 605, 590, -1195, 126, 165, 204, 165, 253, 224, 
-9, -1205, -1195, 607, 592, -1200, 122, 165, 200, 165, 248, 219, 
-9, -1210, -1200, 610, 595, -1205, 117, 165, 195, 165, 244, 214, 
0, -1215, -1215, 607, 607, -1215, 117, 175, 195, 165, 244, 209, 
9, -1220, -1229, 605, 619, -1224, 117, 185, 195, 165, 244, 204, 
9, -1229, -1239, 610, 624, -1234, 117, 190, 190, 161, 239, 204, 
9, -1239, -1249, 614, 629, -1244, 117, 195, 185, 156, 234, 204, 
9, -1249, -1259, 619, 634, -1254, 112, 195, 175, 146, 229, 195, 
9, -1259, -1268, 624, 639, -1263, 107, 195, 165, 136, 224, 185, 
0, -1268, -1268, 634, 634, -1268, 107, 185, 151, 126, 214, 180, 
-9, -1278, -1268, 644, 629, -1273, 107, 175, 136, 117, 204, 175, 
-14, -1293, -1278, 653, 631, -1285, 112, 165, 122, 102, 190, 165, 
-19, -1307, -1288, 663, 634, -1298, 117, 156, 107, 87, 175, 156, 
-29, -1322, -1293, 675, 631, -1307, 122, 151, 97, 78, 161, 141, 
-39, -1337, -1298, 688, 629, -1317, 126, 146, 87, 68, 146, 126, 
-48, -1356, -1307, 702, 629, -1332, 136, 141, 78, 48, 136, 112, 
-58, -1376, -1317, 717, 629, -1346, 146, 136, 68, 29, 126, 97, 
-58, -1390, -1332, 724, 636, -1361, 156, 136, 58, 24, 112, 87, 
-58, -1405, -1346, 732, 644, -1376, 165, 136, 48, 19, 97, 78, 
-58, -1405, -1346, 732, 644, -1376, 165, 141, 43, 9, 92, 73, 
-58, -1405, -1346, 732, 644, -1376, 165, 146, 39, 0, 87, 68, 
-58, -1405, -1346, 732, 644, -1376, 170, 146, 39, 0, 87, 68, 
-58, -1405, -1346, 732, 644, -1376, 175, 146, 39, 0, 87, 68, 
-53, -1395, -1342, 724, 644, -1368, 180, 151, 53, 9, 87, 68, 
-48, -1385, -1337, 717, 644, -1361, 185, 156, 68, 19, 87, 68, 
-48, -1376, -1327, 712, 639, -1351, 185, 161, 68, 19, 92, 68, 
-48, -1366, -1317, 707, 634, -1342, 185, 165, 68, 19, 97, 68, 
-43, -1356, -1312, 700, 634, -1334, 185, 165, 73, 24, 97, 68, 
-39, -1346, -1307, 692, 634, -1327, 185, 165, 78, 29, 97, 68, 
-34, -1317, -1283, 675, 624, -1300, 190, 175, 97, 43, 112, 78, 
-29, -1288, -1259, 658, 614, -1273, 195, 185, 117, 58, 126, 87, 
-24, -1263, -1239, 644, 607, -1251, 195, 185, 136, 68, 131, 92, 
-19, -1239, -1220, 629, 600, -1229, 195, 185, 156, 78, 136, 97, 
-19, -1220, -1200, 619, 590, -1210, 185, 170, 156, 78, 136, 102, 
-19, -1200, -1180, 610, 580, -1190, 175, 156, 156, 78, 136, 107, 
-19, -1200, -1180, 610, 580, -1190, 151, 136, 151, 73, 136, 107, 
-19, -1200, -1180, 610, 580, -1190, 126, 117, 146, 68, 136, 107, 
-14, -1190, -1176, 602, 580, -1183, 102, 107, 136, 68, 136, 107, 
-9, -1180, -1171, 595, 580, -1176, 78, 97, 126, 68, 136, 107, 
-4, -1176, -1171, 590, 583, -1173, 63, 92, 126, 68, 136, 107, 
0, -1171, -1171, 585, 585, -1171, 48, 87, 126, 68, 136, 107, 
0, -1171, -1171, 585, 585, -1171, 39, 87, 117, 58, 131, 102, 
0, -1171, -1171, 585, 585, -1171, 29, 87, 107, 48, 126, 97, 
-4, -1176, -1171, 590, 583, -1173, 24, 82, 92, 39, 122, 92, 
-9, -1180, -1171, 595, 580, -1176, 19, 78, 78, 29, 117, 87, 
-9, -1185, -1176, 597, 583, -1180, 14, 78, 68, 24, 107, 78, 
-9, -1190, -1180, 600, 585, -1185, 9, 78, 58, 19, 97, 68, 
-9, -1195, -1185, 602, 588, -1190, 4, 73, 48, 9, 87, 63, 
-9, -1195, -1185, 602, 588, -1190, 0, 68, 39, 0, 78, 53, 
-9, -1200, -1190, 605, 590, -1195, 0, 68, 34, -4, 73, 48, 
-9, -1205, -1195, 607, 592, -1200, 0, 63, 19, -9, 68, 39, 
-9, -1205, -1195, 607, 592, -1200, 0, 63, 9, -14, 63, 39, 
-9, -1205, -1195, 607, 592, -1200, 4, 68, 4, -14, 58, 39, 
-9, -1205, -1195, 607, 592, -1200, 4, 68, 0, -14, 58, 34, 
-9, -1205, -1195, 607, 592, -1200, 4, 58, -4, -14, 53, 29, 
-9, -1200, -1190, 605, 590, -1195, 0, 53, -9, -14, 48, 29, 
-9, -1200, -1190, 605, 590, -1195, 4, 48, -9, -14, 43, 24, 
-9, -1200, -1190, 605, 590, -1195, 4, 48, -9, -9, 39, 19, 
-9, -1195, -1185, 602, 588, -1190, 9, 48, -9, -4, 34, 14, 
-9, -1200, -1190, 605, 590, -1195, 14, 53, -4, -9, 29, 14, 
-9, -1195, -1185, 602, 588, -1190, 19, 53, -4, -9, 24, 9, 
-14, -1195, -1180, 605, 583, -1188, 24, 48, -4, -9, 19, 4, 
-14, -1190, -1176, 602, 580, -1183, 29, 48, -4, -14, 14, -4, 
-14, -1195, -1180, 605, 583, -1188, 34, 43, -9, -19, 4, -9, 
-14, -1200, -1185, 607, 585, -1193, 43, 39, -9, -19, -4, -9, 
-19, -1195, -1176, 607, 578, -1185, 48, 34, -9, -19, 0, -14, 
-19, -1195, -1176, 607, 578, -1185, 53, 29, -4, -19, 0, -9, 
-24, -1195, -1171, 610, 573, -1183, 63, 29, 0, -19, 0, -9, 
-29, -1195, -1166, 612, 568, -1180, 78, 29, 0, -14, 4, -14, 
-29, -1200, -1171, 614, 570, -1185, 82, 29, 4, -14, 4, -14, 
-29, -1200, -1171, 614, 570, -1185, 92, 29, 9, -14, -4, -14, 
-29, -1185, -1156, 607, 563, -1171, 97, 29, 14, -9, 0, -9, 
-24, -1171, -1146, 597, 561, -1159, 107, 29, 24, -4, 9, -4, 
-24, -1141, -1117, 583, 546, -1129, 122, 34, 48, 14, 24, 4, 
-19, -1112, -1093, 566, 536, -1102, 136, 39, 73, 34, 39, 14, 
-24, -1088, -1063, 556, 519, -1076, 141, 29, 92, 43, 48, 24, 
-29, -1073, -1044, 551, 507, -1058, 151, 29, 112, 48, 58, 34, 
-34, -1068, -1034, 551, 500, -1051, 131, 4, 107, 48, 48, 29, 
-39, -1063, -1024, 551, 492, -1044, 117, -14, 102, 48, 48, 29, 
-43, -1058, -1015, 551, 485, -1037, 102, -34, 92, 43, 48, 29, 
-43, -1049, -1005, 546, 480, -1027, 87, -53, 82, 39, 43, 29, 
-43, -1044, -1000, 544, 478, -1022, 63, -58, 73, 34, 43, 29, 
-43, -1034, -990, 539, 473, -1012, 29, -58, 68, 34, 43, 29, 
-29, -1029, -1000, 529, 485, -1015, 4, -58, 68, 29, 39, 29, 
-14, -1024, -1010, 519, 497, -1017, -14, -53, 63, 24, 39, 34, 
-14, -1029, -1015, 522, 500, -1022, -19, -48, 58, 29, 43, 34, 
-14, -1029, -1015, 522, 500, -1022, -24, -43, 53, 29, 43, 34, 
-14, -1024, -1010, 519, 497, -1017, -24, -48, 39, 24, 43, 29, 
-9, -1044, -1034, 527, 512, -1039, -24, -48, 24, 19, 43, 24, 
-9, -1063, -1054, 536, 522, -1058, -24, -43, 14, 0, 14, 9, 
-14, -1117, -1102, 566, 544, -1110, 14, 9, 43, -14, -43, -53, 
-34, -1166, -1132, 600, 549, -1149, 102, 141, 204, 19, -87, -136, 
-34, -1166, -1132, 600, 549, -1149, 136, 229, 361, 112, -58, -156, 
19, -1078, -1098, 529, 558, -1088, 102, 356, 468, 292, 78, -92, 
107, -907, -1015, 400, 561, -961, 24, 453, 580, 541, 317, 58, 
136, -722, -858, 292, 497, -790, -73, 390, 692, 746, 546, 244, 
136, -483, -619, 173, 378, -551, -229, 126, 707, 971, 824, 483, 
68, -258, -326, 95, 197, -292, -356, -248, 590, 1180, 1127, 727, 
0, -19, -19, 9, 9, -19, -463, -649, 405, 1361, 1444, 980, 
34, 209, 175, -122, -70, 192, -536, -795, 214, 1498, 1742, 1254, 
68, 395, 326, -231, -129, 361, -556, -858, 78, 1664, 2025, 1473, 
-146, 346, 492, -100, -319, 419, -444, -1185, -112, 1459, 1849, 1400, 
-546, -117, 429, 331, -488, 156, -229, -1747, -678, 663, 1093, 971, 
-854, -751, 102, 802, -478, -324, -43, -1971, -1361, -370, 151, 419, 
-927, -1307, -380, 1117, -273, -844, 58, -1820, -1776, -1107, -527, -14, 
-839, -1424, -585, 1132, -126, -1005, 14, -1586, -1703, -1171, -668, -151, 
-683, -1346, -663, 1015, -9, -1005, -78, -1317, -1468, -1010, -595, -161, 
-502, -1376, -873, 939, 185, -1124, -73, -990, -1210, -922, -585, -200, 
-331, -1434, -1102, 883, 385, -1268, -24, -619, -897, -790, -561, -258, 
-185, -1371, -1185, 778, 500, -1278, 19, -341, -585, -556, -429, -239, 
-102, -1263, -1161, 683, 529, -1212, 53, -224, -366, -351, -273, -161, 
-102, -1185, -1083, 644, 490, -1134, 53, -151, -204, -229, -170, -92, 
-68, -1137, -1068, 602, 500, -1102, 53, -73, -97, -175, -141, -63, 
-63, -1137, -1073, 600, 505, -1105, 68, -43, -53, -126, -117, -63, 
-63, -1137, -1073, 600, 505, -1105, 87, -39, -29, -92, -82, -63, 
-48, -1088, -1039, 568, 495, -1063, 92, -24, 9, -78, -63, -34, 
-48, -1039, -990, 544, 470, -1015, 82, -24, 48, -63, -48, -14, 
-43, -1024, -980, 534, 468, -1002, 78, -29, 73, -34, -34, -4, 
-43, -1015, -971, 529, 463, -993, 73, -34, 73, -19, -14, 0, 
-34, -1010, -976, 522, 470, -993, 58, -39, 78, -19, -9, 9, 
-29, -1005, -976, 517, 473, -990, 43, -43, 78, -19, -9, 14, 
-29, -1005, -976, 517, 473, -990, 29, -53, 78, -14, -9, 14, 
-29, -1005, -976, 517, 473, -990, 19, -58, 78, -14, -9, 14, 
-19, -995, -976, 507, 478, -985, -4, -58, 68, -19, -19, 14, 
-14, -995, -980, 505, 483, -988, -29, -68, 58, -24, -29, 9, 
-4, -1019, -1015, 512, 505, -1017, -39, -58, 48, -34, -29, 0, 
0, -1024, -1024, 512, 512, -1024, -48, -63, 34, -43, -34, -9, 
19, -1019, -1039, 500, 529, -1029, -58, -48, 29, -43, -34, -9, 
24, -1024, -1049, 500, 536, -1037, -63, -43, 24, -53, -39, -14, 
29, -1024, -1054, 497, 541, -1039, -63, -34, 14, -58, -43, -9, 
34, -1029, -1063, 497, 549, -1046, -63, -29, 9, -63, -48, -14, 
43, -1058, -1102, 507, 573, -1080, -63, -19, 0, -68, -48, -19, 
48, -1068, -1117, 509, 583, -1093, -68, -14, -9, -73, -53, -29, 
53, -1073, -1127, 509, 590, -1100, -63, -9, -4, -73, -63, -29, 
48, -1078, -1127, 514, 588, -1102, -58, -4, -4, -68, -63, -34, 
48, -1078, -1127, 514, 588, -1102, -53, 9, 4, -68, -63, -34, 
48, -1078, -1127, 514, 588, -1102, -48, 14, 4, -68, -63, -34, 
43, -1078, -1122, 517, 583, -1100, -43, 14, 9, -63, -63, -34, 
39, -1083, -1122, 522, 580, -1102, -34, 14, 9, -63, -63, -34, 
29, -1078, -1107, 524, 568, -1093, -29, 14, 14, -68, -63, -34, 
24, -1088, -1112, 531, 568, -1100, -29, 19, 14, -73, -63, -34, 
29, -1083, -1112, 527, 570, -1098, -19, 24, 24, -68, -63, -39, 
29, -1078, -1107, 524, 568, -1093, -14, 24, 29, -68, -63, -39, 
24, -1073, -1098, 524, 561, -1085, 4, 39, 29, -58, -58, -39, 
24, -1073, -1098, 524, 561, -1085, 4, 53, 43, -53, -58, -39, 
19, -1068, -1088, 524, 553, -1078, 19, 68, 68, -43, -53, -39, 
14, -1068, -1083, 527, 549, -1076, 34, 78, 78, -39, -53, -43, 
9, -1049, -1058, 519, 534, -1054, 58, 102, 97, -34, -48, -39, 
9, -1049, -1058, 519, 534, -1054, 87, 122, 122, -29, -48, -39, 
4, -1034, -1039, 514, 522, -1037, 97, 131, 151, -19, -43, -34, 
4, -1024, -1029, 509, 517, -1027, 107, 136, 175, -4, -43, -34, 
0, -1010, -1010, 505, 505, -1010, 102, 131, 195, 19, -24, -14, 
-4, -980, -976, 492, 485, -978, 92, 117, 209, 29, -9, 0, 
4, -951, -956, 473, 480, -954, 63, 102, 229, 34, -4, 4, 
4, -922, -927, 458, 466, -924, 39, 102, 244, 43, 0, 4, 
19, -888, -907, 434, 463, -897, 19, 122, 258, 63, 14, 19, 
43, -863, -907, 409, 475, -885, 9, 141, 287, 82, 19, 24, 
58, -858, -917, 400, 488, -888, -4, 175, 312, 82, 24, 19, 
68, -844, -912, 387, 490, -878, -14, 195, 336, 92, 24, 19, 
82, -849, -932, 383, 507, -890, -9, 219, 341, 92, 24, 14, 
97, -849, -946, 375, 522, -897, -14, 239, 346, 92, 24, 14, 
117, -858, -976, 370, 546, -917, -24, 268, 351, 87, 14, 0, 
122, -863, -985, 370, 553, -924, -24, 287, 356, 82, -4, -9, 
136, -868, -1005, 366, 570, -936, -29, 312, 361, 82, -9, -24, 
156, -878, -1034, 361, 595, -956, -29, 341, 361, 78, -19, -24, 
170, -883, -1054, 356, 612, -968, -24, 361, 356, 73, -19, -29, 
180, -888, -1068, 353, 624, -978, -24, 375, 351, 68, -19, -29, 
190, -897, -1088, 353, 639, -993, -14, 405, 351, 73, -24, -34, 
195, -907, -1102, 356, 649, -1005, -14, 424, 341, 68, -24, -34, 
204, -907, -1112, 351, 658, -1010, -14, 424, 336, 68, -19, -34, 
209, -912, -1122, 351, 666, -1017, -14, 424, 322, 68, -14, -39, 
204, -917, -1122, 356, 663, -1019, -4, 434, 322, 82, -4, -29, 
200, -917, -1117, 358, 658, -1017, 0, 414, 312, 92, 0, -19, 
180, -897, -1078, 358, 629, -988, 19, 400, 307, 97, 4, -14, 
156, -893, -1049, 368, 602, -971, 24, 370, 292, 97, 14, -4, 
146, -893, -1039, 373, 592, -966, 29, 351, 278, 102, 29, 4, 
136, -897, -1034, 380, 585, -966, 29, 322, 253, 102, 43, 19, 
122, -907, -1029, 392, 575, -968, 29, 302, 239, 92, 53, 29, 
97, -897, -995, 400, 546, -946, 34, 263, 209, 92, 63, 39, 
82, -897, -980, 407, 531, -939, 39, 224, 190, 97, 63, 39, 
53, -897, -951, 422, 502, -924, 43, 190, 165, 82, 68, 39, 
43, -902, -946, 429, 495, -924, 48, 180, 151, 82, 73, 43, 
24, -907, -932, 441, 478, -919, 53, 151, 122, 73, 78, 43, 
14, -922, -936, 453, 475, -929, 68, 136, 117, 58, 73, 43, 
4, -936, -941, 466, 473, -939, 78, 122, 97, 53, 68, 34, 
0, -936, -936, 468, 468, -936, 87, 112, 92, 48, 63, 39, 
-4, -932, -927, 468, 461, -929, 97, 102, 92, 48, 58, 34, 
-9, -927, -917, 468, 453, -922, 102, 102, 82, 48, 58, 34, 
-14, -922, -907, 468, 446, -915, 102, 97, 73, 48, 58, 39, 
-19, -902, -883, 461, 431, -893, 107, 87, 78, 53, 63, 39, 
-24, -888, -863, 456, 419, -875, 112, 73, 82, 48, 68, 39, 
-34, -868, -834, 451, 400, -851, 112, 53, 92, 53, 78, 48, 
-43, -844, -800, 444, 378, -822, 112, 29, 102, 63, 87, 58, 
-53, -844, -790, 448, 368, -817, 102, 0, 102, 63, 87, 63, 
-58, -839, -780, 448, 361, -810, 92, -34, 107, 63, 87, 68, 
-68, -819, -751, 444, 341, -785, 82, -48, 102, 63, 87, 73, 
-73, -814, -741, 444, 334, -778, 68, -63, 87, 53, 87, 73, 
-63, -814, -751, 439, 344, -783, 24, -68, 82, 48, 87, 68, 
-63, -814, -751, 439, 344, -783, -4, -78, 68, 43, 82, 68, 
-48, -824, -775, 436, 363, -800, -24, -78, 34, 34, 78, 68, 
-39, -824, -785, 431, 373, -805, -48, -87, 29, 19, 78, 63, 
-34, -834, -800, 434, 383, -817, -48, -92, 9, 9, 68, 58, 
-29, -834, -805, 431, 387, -819, -53, -87, -9, 0, 63, 53, 
-29, -854, -824, 441, 397, -839, -58, -82, -24, -9, 53, 48, 
-29, -868, -839, 448, 405, -854, -68, -87, -53, -24, 39, 48, 
-34, -868, -834, 451, 400, -851, -73, -87, -68, -39, 29, 39, 
-34, -868, -834, 451, 400, -851, -78, -87, -82, -48, 19, 29, 
-39, -868, -829, 453, 395, -849, -78, -92, -87, -48, 19, 29, 
-43, -878, -834, 461, 395, -856, -78, -92, -92, -53, 19, 29, 
-43, -888, -844, 466, 400, -866, -78, -92, -92, -58, 19, 29, 
-43, -878, -834, 461, 395, -856, -78, -92, -92, -58, 24, 34, 
-39, -863, -824, 451, 392, -844, -73, -82, -92, -58, 14, 34, 
-34, -858, -824, 446, 395, -841, -73, -87, -97, -63, 9, 29, 
-34, -863, -829, 448, 397, -846, -63, -87, -107, -63, 4, 24, 
-34, -863, -829, 448, 397, -846, -63, -87, -112, -68, 0, 19, 
-34, -858, -824, 446, 395, -841, -58, -82, -112, -73, -9, 29, 
-34, -858, -824, 446, 395, -841, -53, -82, -112, -82, -14, 19, 
-34, -883, -849, 458, 407, -866, -58, -82, -112, -78, -14, 14, 
-34, -883, -849, 458, 407, -866, -53, -78, -112, -78, -14, 9, 
-34, -868, -834, 451, 400, -851, -43, -78, -112, -78, -14, 9, 
-34, -863, -829, 448, 397, -846, -39, -78, -107, -78, -14, 9, 
-34, -863, -829, 448, 397, -846, -34, -68, -102, -78, -9, 4, 
-34, -863, -829, 448, 397, -846, -29, -68, -97, -78, -9, 0, 
-34, -849, -814, 441, 390, -832, -19, -58, -92, -73, -9, -4, 
-34, -849, -814, 441, 390, -832, -9, -53, -87, -73, -9, -9, 
-19, -839, -819, 429, 400, -829, 0, -43, -82, -73, -14, -9, 
-19, -839, -819, 429, 400, -829, 9, -43, -82, -78, -24, -14, 
-14, -839, -824, 427, 405, -832, 14, -39, -82, -78, -24, -14, 
-14, -854, -839, 434, 412, -846, 24, -34, -92, -78, -29, -14, 
-19, -834, -814, 427, 397, -824, 29, -19, -63, -63, -19, -4, 
-19, -814, -795, 417, 387, -805, 39, -9, -43, -53, -9, -4, 
-19, -780, -761, 400, 370, -771, 43, -4, -29, -48, 0, 0, 
-19, -756, -736, 387, 358, -746, 48, -4, -14, -34, 4, 9, 
-19, -741, -722, 380, 351, -732, 48, -4, -4, -24, 14, 14, 
-19, -727, -707, 373, 344, -717, 48, -24, 0, -14, 19, 14, 
-29, -717, -688, 373, 329, -702, 34, -53, -4, -24, 19, 19, 
-39, -727, -688, 383, 324, -707, 14, -87, -14, -29, 9, 9, 
-39, -727, -688, 383, 324, -707, 14, -92, -19, -39, 0, 4, 
-43, -741, -697, 392, 326, -719, -4, -102, -39, -53, -14, -4, 
-53, -766, -712, 409, 329, -739, -24, -107, -58, -63, -19, -19, 
-58, -771, -712, 414, 326, -741, -39, -122, -68, -78, -29, -24, 
-53, -785, -732, 419, 339, -758, -58, -122, -82, -78, -24, -29, 
-53, -790, -736, 422, 341, -763, -58, -122, -102, -87, -34, -34, 
-48, -790, -741, 419, 346, -766, -53, -122, -107, -92, -48, -39, 
-43, -780, -736, 412, 346, -758, -58, -122, -112, -92, -63, -43, 
-39, -766, -727, 402, 344, -746, -58, -117, -112, -87, -48, -34, 
-39, -775, -736, 407, 348, -756, -58, -117, -117, -82, -43, -34, 
-39, -775, -736, 407, 348, -756, -58, -117, -117, -82, -43, -29, 
-43, -766, -722, 405, 339, -744, -58, -112, -122, -82, -43, -29, 
-39, -761, -722, 400, 341, -741, -58, -112, -122, -82, -43, -24, 
-39, -766, -727, 402, 344, -746, -58, -112, -122, -82, -43, -24, 
-24, -766, -741, 395, 358, -753, -53, -107, -117, -82, -39, -29, 
-24, -761, -736, 392, 356, -749, -48, -102, -112, -82, -43, -29, 
-39, -775, -736, 407, 348, -756, -48, -102, -112, -82, -53, -34, 
-39, -756, -717, 397, 339, -736, -43, -97, -112, -82, -53, -39, 
-34, -732, -697, 383, 331, -714, -39, -97, -107, -68, -43, -29, 
-34, -732, -697, 383, 331, -714, -39, -92, -102, -63, -39, -29, 
-29, -727, -697, 378, 334, -712, -34, -97, -102, -63, -39, -29, 
-24, -727, -702, 375, 339, -714, -24, -102, -92, -63, -43, -29, 
-29, -717, -688, 373, 329, -702, -14, -92, -92, -58, -39, -29, 
-29, -712, -683, 370, 326, -697, -4, -92, -92, -58, -39, -29, 
-24, -697, -673, 361, 324, -685, 0, -87, -82, -53, -39, -29, 
-19, -688, -668, 353, 324, -678, 14, -82, -78, -53, -34, -29, 
-19, -683, -663, 351, 322, -673, 19, -78, -68, -48, -34, -29, 
-19, -678, -658, 348, 319, -668, 24, -73, -63, -48, -34, -29, 
-14, -678, -663, 346, 324, -671, 24, -63, -63, -48, -29, -29, 
-9, -683, -673, 346, 331, -678, 29, -58, -68, -48, -29, -29, 
-9, -668, -658, 339, 324, -663, 39, -58, -58, -43, -29, -29, 
-9, -653, -644, 331, 317, -649, 48, -58, -48, -39, -29, -29, 
-9, -614, -605, 312, 297, -610, 48, -58, -24, -19, -9, -9, 
-9, -575, -566, 292, 278, -570, 48, -58, 0, 0, 9, 9, 
-19, -566, -546, 292, 263, -556, 43, -78, 0, 0, 9, 9, 
-29, -556, -527, 292, 248, -541, 39, -97, 0, 0, 9, 9, 
-39, -556, -517, 297, 239, -536, 24, -117, -9, -4, 0, 4, 
-48, -556, -507, 302, 229, -531, 9, -136, -19, -9, -9, 0, 
-48, -556, -507, 302, 229, -531, -4, -136, -29, -14, -9, 0, 
-48, -556, -507, 302, 229, -531, -19, -136, -39, -19, -9, 0, 
-39, -546, -507, 292, 234, -527, -43, -136, -39, -19, -9, 0, 
-29, -536, -507, 283, 239, -522, -68, -136, -39, -19, -9, 0, 
-9, -527, -517, 268, 253, -522, -82, -122, -39, -14, -4, 4, 
9, -517, -527, 253, 268, -522, -97, -107, -39, -9, 0, 9, 
19, -517, -536, 248, 278, -527, -102, -102, -39, -9, 0, 9, 
29, -517, -546, 244, 287, -531, -107, -97, -39, -9, 0, 9, 
34, -522, -556, 244, 295, -539, -107, -87, -43, -14, -4, 4, 
39, -527, -566, 244, 302, -546, -107, -78, -48, -19, -9, 0, 
43, -527, -570, 241, 307, -549, -107, -68, -48, -24, -9, -4, 
48, -527, -575, 239, 312, -551, -107, -58, -48, -29, -9, -9, 
48, -527, -575, 239, 312, -551, -107, -58, -58, -34, -14, -9, 
48, -527, -575, 239, 312, -551, -107, -58, -68, -39, -19, -9, 
43, -527, -570, 241, 307, -549, -102, -58, -78, -39, -24, -14, 
39, -527, -566, 244, 302, -546, -97, -58, -87, -39, -29, -19, 
39, -527, -566, 244, 302, -546, -92, -58, -87, -43, -29, -19, 
39, -527, -566, 244, 302, -546, -87, -58, -87, -48, -29, -19, 
39, -527, -566, 244, 302, -546, -82, -58, -92, -53, -39, -24, 
39, -527, -566, 244, 302, -546, -78, -58, -97, -58, -48, -29, 
34, -531, -566, 248, 300, -549, -73, -58, -102, -63, -53, -39, 
29, -536, -566, 253, 297, -551, -68, -58, -107, -68, -58, -48, 
24, -536, -561, 256, 292, -549, -63, -58, -107, -73, -58, -48, 
19, -536, -556, 258, 287, -546, -58, -58, -107, -78, -58, -48, 
19, -536, -556, 258, 287, -546, -39, -53, -107, -78, -63, -53, 
19, -536, -556, 258, 287, -546, -19, -48, -107, -78, -68, -58, 
9, -527, -536, 258, 273, -531, -4, -48, -102, -78, -68, -58, 
0, -517, -517, 258, 258, -517, 9, -48, -97, -78, -68, -58, 
-14, -502, -488, 258, 236, -495, 9, -63, -87, -68, -63, -53, 
-29, -488, -458, 258, 214, -473, 9, -78, -78, -58, -58, -48, 
-43, -468, -424, 256, 190, -446, 9, -97, -73, -58, -53, -43, 
-58, -448, -390, 253, 165, -419, 9, -117, -68, -58, -48, -39, 
-58, -439, -380, 248, 161, -409, 0, -117, -63, -53, -43, -34, 
-58, -429, -370, 244, 156, -400, -9, -117, -58, -48, -39, -29, 
-53, -409, -356, 231, 151, -383, -19, -112, -48, -39, -29, -24, 
-48, -390, -341, 219, 146, -366, -29, -107, -39, -29, -19, -19, 
-43, -375, -331, 209, 143, -353, -39, -102, -34, -24, -19, -14, 
-39, -361, -322, 200, 141, -341, -48, -97, -29, -19, -19, -9, 
-29, -346, -317, 187, 143, -331, -58, -92, -29, -14, -14, -4, 
-19, -331, -312, 175, 146, -322, -68, -87, -29, -9, -9, 0, 
-9, -322, -312, 165, 151, -317, -78, -82, -29, -9, -4, 4, 
0, -312, -312, 156, 156, -312, -87, -78, -29, -9, 0, 9, 
9, -307, -317, 148, 163, -312, -92, -63, -29, -9, 0, 9, 
19, -302, -322, 141, 170, -312, -97, -48, -29, -9, 0, 9, 
24, -302, -326, 139, 175, -314, -97, -43, -29, -14, -4, 4, 
29, -302, -331, 136, 180, -317, -97, -39, -29, -19, -9, 0, 
34, -302, -336, 134, 185, -319, -97, -34, -34, -24, -14, -4, 
39, -302, -341, 131, 190, -322, -97, -29, -39, -29, -19, -9, 
39, -297, -336, 129, 187, -317, -97, -29, -43, -29, -19, -14, 
39, -292, -331, 126, 185, -312, -97, -29, -48, -29, -19, -19, 
34, -292, -326, 129, 180, -309, -92, -24, -53, -34, -24, -19, 
29, -292, -322, 131, 175, -307, -87, -19, -58, -39, -29, -19, 
29, -297, -326, 134, 178, -312, -87, -19, -63, -43, -34, -24, 
29, -302, -331, 136, 180, -317, -87, -19, -68, -48, -39, -29, 
29, -302, -331, 136, 180, -317, -78, -19, -68, -53, -43, -34, 
29, -302, -331, 136, 180, -317, -68, -19, -68, -58, -48, -39, 
24, -297, -322, 136, 173, -309, -63, -14, -63, -58, -48, -39, 
19, -292, -312, 136, 165, -302, -58, -9, -58, -58, -48, -39, 
19, -292, -312, 136, 165, -302, -53, -4, -58, -58, -53, -43, 
19, -292, -312, 136, 165, -302, -48, 0, -58, -58, -58, -48, 
19, -287, -307, 134, 163, -297, -43, 0, -58, -63, -63, -53, 
19, -283, -302, 131, 161, -292, -39, 0, -58, -68, -68, -58, 
19, -283, -302, 131, 161, -292, -39, 0, -58, -68, -68, -58, 
19, -283, -302, 131, 161, -292, -39, 0, -58, -68, -68, -58, 
14, -283, -297, 134, 156, -290, -34, 0, -58, -73, -73, -63, 
9, -283, -292, 136, 151, -287, -29, 0, -58, -78, -78, -68, 
-4, -278, -273, 141, 134, -275, -4, 0, -53, -78, -78, -68, 
-19, -273, -253, 146, 117, -263, 19, 0, -48, -78, -78, -68, 
-34, -248, -214, 141, 90, -231, 34, -9, -34, -68, -68, -63, 
-48, -224, -175, 136, 63, -200, 48, -19, -19, -58, -58, -58, 
-58, -190, -131, 124, 36, -161, 48, -29, 0, -43, -48, -43, 
-68, -156, -87, 112, 9, -122, 48, -39, 19, -29, -39, -29, 
-68, -141, -73, 104, 2, -107, 29, -58, 19, -29, -34, -24, 
-68, -126, -58, 97, -4, -92, 9, -78, 19, -29, -29, -19, 
-63, -112, -48, 87, -7, -80, -9, -82, 14, -29, -29, -19, 
-58, -97, -39, 78, -9, -68, -29, -87, 9, -29, -29, -19, 
-53, -92, -39, 73, -7, -65, -53, -87, 0, -34, -34, -19, 
-48, -87, -39, 68, -4, -63, -78, -87, -9, -39, -39, -19, 
-39, -78, -39, 58, 0, -58, -92, -87, -14, -39, -39, -19, 
-29, -68, -39, 48, 4, -53, -107, -87, -19, -39, -39, -19, 
-19, -68, -48, 43, 14, -58, -117, -82, -24, -39, -39, -24, 
-9, -68, -58, 39, 24, -63, -126, -78, -29, -39, -39, -29, 
0, -68, -68, 34, 34, -68, -131, -73, -39, -43, -39, -29, 
9, -68, -78, 29, 43, -73, -136, -68, -48, -48, -39, -29, 
9, -68, -78, 29, 43, -73, -141, -68, -58, -53, -43, -29, 
9, -68, -78, 29, 43, -73, -146, -68, -68, -58, -48, -29, 
9, -68, -78, 29, 43, -73, -146, -73, -78, -68, -58, -39, 
9, -68, -78, 29, 43, -73, -146, -78, -87, -78, -68, -48, 
4, -73, -78, 34, 41, -75, -146, -82, -97, -82, -68, -48, 
0, -73, -73, 36, 36, -73, -146, -82, -107, -87, -68, -48, 
0, -73, -73, 36, 36, -73, -146, -82, -122, -92, -73, -53, 
0, -73, -73, 36, 36, -73, -146, -82, -126, -97, -78, -58, 
-4, -73, -68, 39, 31, -70, -141, -78, -126, -97, -82, -58, 
-9, -73, -63, 41, 26, -68, -141, -78, -131, -102, -87, -58, 
-9, -68, -58, 39, 24, -63, -141, -87, -131, -102, -92, -58, 
-9, -68, -58, 39, 24, -63, -141, -87, -136, -102, -92, -58, 
-14, -73, -58, 43, 21, -65, -131, -87, -141, -102, -92, -63, 
-19, -68, -48, 43, 14, -58, -131, -87, -141, -102, -92, -63, 
-19, -63, -43, 41, 12, -53, -122, -87, -136, -102, -92, -63, 
-19, -58, -39, 39, 9, -48, -117, -87, -131, -107, -92, -63, 
-19, -39, -19, 29, 0, -29, -112, -87, -131, -107, -87, -58, 
-24, -34, -9, 29, -7, -21, -107, -87, -131, -102, -82, -48, 
-24, -24, 0, 24, -12, -12, -107, -87, -131, -102, -82, -53, 
-24, -19, 4, 21, -14, -7, -107, -87, -131, -102, -82, -53, 
-29, -14, 14, 21, -21, 0, -92, -87, -122, -97, -82, -48, 
-34, -4, 29, 19, -31, 12, -82, -87, -117, -92, -78, -48, 
-34, 9, 43, 12, -39, 26, -73, -82, -102, -82, -73, -39, 
-39, 24, 63, 7, -51, 43, -63, -73, -87, -78, -68, -39, 
-48, 29, 78, 9, -63, 53, -43, -63, -82, -73, -63, -43, 
-58, 29, 87, 14, -73, 58, -29, -58, -78, -73, -63, -43, 
-63, 34, 97, 14, -80, 65, -14, -58, -68, -63, -68, -43, 
-73, 43, 117, 14, -95, 80, -4, -58, -58, -53, -63, -43, 
-73, 68, 141, 2, -107, 104, 0, -68, -43, -43, -48, -34, 
-73, 87, 161, -7, -117, 124, 0, -78, -34, -34, -39, -24, 
-68, 97, 165, -14, -117, 131, -14, -87, -29, -34, -39, -24, 
-68, 107, 175, -19, -122, 141, -34, -107, -24, -34, -39, -24, 
-63, 102, 165, -19, -114, 134, -53, -107, -24, -39, -34, -19, 
-58, 107, 165, -24, -112, 136, -82, -107, -29, -39, -39, -19, 
-43, 117, 161, -36, -102, 139, -102, -102, -34, -34, -39, -19, 
-29, 126, 156, -48, -92, 141, -117, -102, -34, -29, -34, -19, 
-19, 131, 151, -56, -85, 141, -126, -92, -34, -24, -29, -14, 
-14, 131, 146, -58, -80, 139, -136, -87, -34, -19, -24, -9, 
0, 136, 136, -68, -68, 136, -151, -82, -29, -14, -24, -9, 
14, 141, 126, -78, -56, 134, -161, -78, -24, -14, -24, -9, 
19, 146, 126, -82, -53, 136, -165, -63, -29, -14, -19, -4, 
24, 146, 122, -85, -48, 134, -170, -53, -34, -9, -14, -4, 
24, 136, 112, -80, -43, 124, -170, -48, -39, -14, -19, -4, 
24, 131, 107, -78, -41, 119, -170, -48, -43, -19, -24, -4, 
29, 117, 87, -73, -29, 102, -170, -39, -43, -19, -24, -14, 
34, 107, 73, -70, -19, 90, -170, -19, -43, -24, -34, -29, 
34, 68, 34, -51, 0, 51, -131, 48, 9, -14, -63, -82, 
14, 24, 9, -19, 2, 17, -43, 195, 185, 34, -92, -161, 
29, 34, 4, -31, 12, 19, -34, 263, 312, 141, -34, -151, 
97, 131, 34, -114, 31, 82, -87, 366, 409, 331, 126, -63, 
165, 322, 156, -244, 4, 239, -175, 361, 492, 570, 385, 112, 
175, 527, 351, -351, -87, 439, -273, 219, 566, 766, 634, 322, 
161, 766, 605, -463, -222, 685, -405, -29, 527, 966, 902, 561, 
87, 985, 897, -536, -405, 941, -536, -414, 370, 1151, 1190, 805, 
24, 1205, 1180, -614, -578, 1193, -634, -790, 175, 1288, 1483, 1054, 
53, 1405, 1351, -729, -649, 1378, -692, -912, -68, 1346, 1727, 1298, 
58, 1439, 1381, -749, -661, 1410, -678, -990, -278, 1342, 1815, 1381, 
-200, 1278, 1478, -539, -839, 1378, -502, -1342, -497, 1029, 1498, 1205, 
-556, 839, 1395, -141, -976, 1117, -297, -1756, -956, 297, 771, 785, 
-819, 195, 1015, 312, -917, 605, -141, -1878, -1581, -702, -151, 234, 
-863, -268, 595, 566, -729, 163, -39, -1732, -1869, -1288, -712, -141, 
-722, -283, 439, 502, -580, 78, -92, -1439, -1659, -1200, -746, -219, 
-600, -219, 380, 409, -490, 80, -151, -1180, -1424, -1034, -673, -248, 
-453, -258, 195, 356, -324, -31, -117, -873, -1161, -941, -663, -297, 
-307, -268, 39, 287, -173, -114, -97, -600, -873, -795, -610, -312, 
-185, -161, 24, 173, -104, -68, -87, -405, -575, -546, -448, -258, 
-97, -53, 43, 75, -70, -4, -97, -278, -375, -361, -307, -190, 
-102, 24, 126, 39, -114, 75, -141, -224, -244, -258, -209, -126, 
-68, 53, 122, 7, -95, 87, -161, -170, -161, -214, -180, -102, 
-58, 34, 92, 12, -75, 63, -165, -156, -141, -190, -180, -112, 
-48, 43, 92, 2, -70, 68, -165, -156, -126, -170, -161, -112, 
-29, 68, 97, -19, -63, 82, -165, -141, -126, -170, -151, -102, 
-19, 87, 107, -34, -63, 97, -180, -136, -126, -170, -146, -102, 
-4, 97, 102, -46, -53, 100, -185, -131, -102, -151, -146, -97, 
4, 112, 107, -58, -51, 109, -195, -122, -97, -141, -136, -92, 
19, 126, 107, -73, -43, 117, -200, -112, -87, -136, -126, -82, 
24, 131, 107, -78, -41, 119, -200, -107, -78, -131, -122, -82, 
29, 136, 107, -82, -39, 122, -200, -102, -68, -122, -117, -82, 
29, 141, 112, -85, -41, 126, -200, -97, -58, -117, -112, -73, 
34, 156, 122, -95, -43, 139, -204, -87, -48, -112, -107, -63, 
34, 156, 122, -95, -43, 139, -204, -87, -48, -112, -107, -63, 
39, 146, 107, -92, -34, 126, -204, -73, -43, -112, -102, -58, 
34, 151, 117, -92, -41, 134, -200, -78, -48, -112, -102, -58, 
43, 161, 117, -102, -36, 139, -195, -68, -48, -102, -97, -53, 
39, 165, 126, -102, -43, 146, -185, -63, -43, -102, -97, -58, 
34, 165, 131, -100, -48, 148, -175, -58, -43, -102, -97, -53, 
29, 170, 141, -100, -56, 156, -165, -58, -39, -102, -97, -53, 
34, 161, 126, -97, -46, 143, -156, -53, -34, -102, -92, -53, 
39, 161, 122, -100, -41, 141, -151, -53, -34, -107, -92, -58, 
39, 161, 122, -100, -41, 141, -141, -53, -34, -112, -102, -58, 
24, 156, 131, -90, -53, 143, -126, -53, -34, -112, -112, -68, 
19, 151, 131, -85, -56, 141, -117, -43, -24, -117, -122, -73, 
19, 141, 122, -80, -51, 131, -107, -39, -29, -122, -131, -82, 
14, 136, 122, -75, -53, 129, -92, -34, -29, -122, -141, -92, 
0, 126, 126, -63, -63, 126, -73, -34, -29, -122, -141, -92, 
-9, 131, 141, -61, -75, 136, -58, -34, -24, -122, -141, -92, 
-19, 131, 151, -56, -85, 141, -68, -39, -24, -122, -141, -92, 
-29, 136, 165, -53, -97, 151, -73, -43, -14, -117, -141, -92, 
-29, 156, 185, -63, -107, 170, -97, -68, -9, -117, -136, -87, 
-29, 175, 204, -73, -117, 190, -126, -82, -9, -107, -126, -87, 
-24, 175, 200, -75, -112, 187, -161, -73, 0, -102, -126, -87, 
-24, 185, 209, -80, -117, 197, -170, -63, 19, -92, -122, -82, 
-14, 190, 204, -87, -109, 197, -175, -58, 29, -82, -122, -82, 
-4, 209, 214, -102, -109, 212, -180, -43, 43, -78, -117, -78, 
14, 219, 204, -117, -95, 212, -180, -24, 68, -73, -112, -78, 
29, 239, 209, -134, -90, 224, -185, -4, 87, -68, -102, -73, 
43, 244, 200, -143, -78, 222, -185, 9, 97, -63, -102, -68, 
53, 248, 195, -151, -70, 222, -180, 29, 107, -48, -102, -63, 
53, 253, 200, -153, -73, 226, -175, 43, 117, -43, -107, -68, 
63, 253, 190, -158, -63, 222, -175, 58, 131, -39, -107, -68, 
63, 268, 204, -165, -70, 236, -165, 73, 146, -34, -107, -73, 
63, 268, 204, -165, -70, 236, -165, 92, 156, -34, -107, -73, 
73, 268, 195, -170, -61, 231, -161, 112, 170, -29, -112, -82, 
82, 258, 175, -170, -46, 217, -151, 136, 175, -34, -117, -92, 
92, 258, 165, -175, -36, 212, -136, 156, 195, -29, -126, -97, 
107, 258, 151, -183, -21, 204, -122, 190, 214, -24, -122, -102, 
117, 273, 156, -195, -19, 214, -122, 214, 229, -14, -117, -97, 
131, 283, 151, -207, -9, 217, -122, 248, 244, -4, -112, -97, 
141, 287, 146, -214, -2, 217, -112, 278, 248, 0, -112, -82, 
156, 297, 141, -226, 7, 219, -107, 302, 253, 4, -102, -82, 
165, 292, 126, -229, 19, 209, -92, 322, 248, 0, -107, -82, 
175, 287, 112, -231, 31, 200, -82, 341, 244, 0, -107, -87, 
175, 268, 92, -222, 41, 180, -63, 356, 229, -14, -117, -97, 
175, 253, 78, -214, 48, 165, -34, 370, 224, -19, -126, -107, 
170, 244, 73, -207, 48, 158, -14, 385, 214, -29, -131, -107, 
170, 239, 68, -204, 51, 153, 4, 395, 214, -29, -131, -107, 
170, 219, 48, -195, 61, 134, 29, 409, 209, -34, -136, -122, 
165, 204, 39, -185, 63, 122, 58, 424, 204, -34, -136, -122, 
146, 214, 68, -180, 39, 141, 58, 380, 195, -24, -126, -107, 
122, 234, 112, -178, 4, 173, 58, 351, 190, -19, -117, -102, 
107, 253, 146, -180, -19, 200, 9, 278, 175, -14, -92, -78, 
97, 268, 170, -183, -36, 219, -29, 209, 161, -4, -68, -53, 
87, 278, 190, -183, -51, 234, -63, 170, 131, 0, -53, -39, 
78, 283, 204, -180, -63, 244, -92, 146, 117, -4, -43, -29, 
63, 297, 234, -180, -85, 265, -102, 107, 92, -4, -29, -9, 
63, 307, 244, -185, -90, 275, -112, 82, 82, 14, -19, 0, 
53, 312, 258, -183, -102, 285, -122, 58, 68, 14, -9, 0, 
58, 312, 253, -185, -97, 283, -131, 43, 58, 14, -4, 4, 
43, 312, 268, -178, -112, 290, -141, 14, 29, 4, 0, 0, 
34, 317, 283, -175, -124, 300, -146, -4, 19, -4, 0, 4, 
29, 312, 283, -170, -126, 297, -146, -19, -4, -9, -4, 4, 
24, 312, 287, -168, -131, 300, -146, -39, -14, -14, -4, 14, 
14, 312, 297, -163, -141, 305, -146, -63, -19, -19, -4, 9, 
9, 302, 292, -156, -141, 297, -141, -63, -34, -29, -9, 4, 
4, 297, 292, -151, -143, 295, -141, -68, -48, -34, -14, 4, 
0, 287, 287, -143, -143, 287, -141, -73, -58, -39, -19, 0, 
-4, 273, 278, -134, -141, 275, -136, -82, -68, -53, -24, -4, 
-4, 258, 263, -126, -134, 261, -131, -82, -73, -58, -29, -9, 
-4, 253, 258, -124, -131, 256, -126, -82, -78, -58, -34, -14, 
-9, 248, 258, -119, -134, 253, -122, -78, -82, -63, -39, -19, 
-9, 244, 253, -117, -131, 248, -117, -82, -78, -63, -39, -29, 
-14, 248, 263, -117, -139, 256, -107, -82, -78, -63, -39, -34, 
-24, 248, 273, -112, -148, 261, -92, -82, -78, -73, -43, -34, 
-24, 244, 268, -109, -146, 256, -92, -78, -73, -73, -48, -39, 
-29, 239, 268, -104, -148, 253, -92, -78, -87, -68, -53, -39, 
-29, 229, 258, -100, -143, 244, -87, -78, -102, -73, -58, -39, 
-29, 229, 258, -100, -143, 244, -82, -82, -87, -87, -53, -39, 
-29, 219, 248, -95, -139, 234, -78, -87, -97, -87, -58, -39, 
-29, 224, 253, -97, -141, 239, -78, -78, -102, -87, -53, -39, 
-29, 219, 248, -95, -139, 234, -78, -73, -107, -92, -53, -39, 
-24, 214, 239, -95, -131, 226, -73, -78, -131, -102, -63, -34, 
-24, 214, 239, -95, -131, 226, -68, -73, -131, -107, -63, -39, 
-19, 224, 244, -102, -131, 234, -78, -68, -141, -107, -68, -43, 
-14, 224, 239, -104, -126, 231, -82, -63, -151, -107, -68, -39, 
-14, 219, 234, -102, -124, 226, -97, -63, -161, -112, -68, -39, 
-14, 214, 229, -100, -122, 222, -107, -63, -170, -112, -68, -39, 
-14, 200, 214, -92, -114, 207, -112, -78, -170, -122, -73, -39, 
-14, 200, 214, -92, -114, 207, -107, -78, -170, -131, -82, -43, 
-19, 204, 224, -92, -122, 214, -107, -87, -175, -131, -87, -48, 
-24, 209, 234, -92, -129, 222, -102, -97, -180, -126, -97, -48, 
-24, 239, 263, -107, -143, 251, -117, -107, -165, -126, -82, -43, 
-24, 263, 287, -119, -156, 275, -131, -117, -151, -122, -73, -29, 
-24, 302, 326, -139, -175, 314, -136, -131, -136, -107, -58, -24, 
-24, 317, 341, -146, -183, 329, -151, -146, -122, -87, -43, -9, 
-29, 297, 326, -134, -178, 312, -156, -146, -117, -82, -43, -4, 
-34, 307, 341, -136, -187, 324, -151, -146, -112, -78, -43, 0, 
-39, 322, 361, -141, -200, 341, -146, -151, -107, -78, -43, 0, 
-43, 317, 361, -136, -202, 339, -141, -146, -102, -78, -39, 0, 
-43, 292, 336, -124, -190, 314, -131, -146, -97, -82, -43, -4, 
-43, 287, 331, -122, -187, 309, -122, -141, -97, -82, -48, -9, 
-43, 268, 312, -112, -178, 290, -112, -141, -102, -92, -58, -24, 
-29, 253, 283, -112, -156, 268, -107, -131, -102, -97, -63, -34, 
-24, 253, 278, -114, -151, 265, -102, -122, -102, -97, -63, -34, 
-19, 253, 273, -117, -146, 263, -97, -112, -102, -97, -63, -34, 
-14, 239, 253, -112, -134, 246, -92, -107, -117, -97, -68, -34, 
-9, 239, 248, -114, -129, 244, -87, -97, -102, -92, -68, -34, 
-9, 244, 253, -117, -131, 248, -78, -92, -92, -92, -68, -43, 
-9, 248, 258, -119, -134, 253, -73, -82, -82, -87, -58, -43, 
-9, 248, 258, -119, -134, 253, -63, -78, -73, -73, -48, -39, 
-9, 253, 263, -122, -136, 258, -58, -63, -68, -73, -43, -34, 
-4, 248, 253, -122, -129, 251, -48, -58, -68, -68, -48, -34, 
0, 248, 248, -124, -124, 248, -43, -53, -73, -73, -48, -34, 
0, 224, 224, -112, -112, 224, -43, -63, -82, -78, -58, -39, 
0, 219, 219, -109, -109, 219, -34, -58, -87, -82, -58, -39, 
-4, 204, 209, -100, -107, 207, -34, -58, -102, -92, -63, -53, 
-9, 185, 195, -87, -102, 190, -34, -58, -117, -102, -68, -68, 
-9, 180, 190, -85, -100, 185, -48, -73, -126, -122, -78, -73, 
-4, 161, 165, -78, -85, 163, -68, -73, -126, -117, -78, -73, 
0, 151, 151, -75, -75, 151, -73, -73, -141, -117, -82, -73, 
4, 146, 141, -75, -68, 143, -78, -73, -151, -122, -87, -73, 
4, 156, 151, -80, -73, 153, -102, -78, -161, -126, -112, -78, 
9, 156, 146, -82, -68, 151, -117, -78, -165, -131, -102, -73, 
9, 141, 131, -75, -61, 136, -117, -87, -175, -131, -92, -73, 
14, 141, 126, -78, -56, 134, -117, -97, -180, -131, -92, -68, 
0, 131, 131, -65, -65, 131, -117, -107, -185, -136, -97, -73, 
-9, 122, 131, -56, -70, 126, -117, -122, -190, -141, -102, -78, 
-9, 112, 122, -51, -65, 117, -112, -122, -190, -141, -102, -82, 
-9, 112, 122, -51, -65, 117, -107, -126, -190, -141, -102, -87, 
-19, 146, 165, -63, -92, 156, -102, -126, -161, -117, -82, -68, 
-29, 180, 209, -75, -119, 195, -102, -126, -131, -92, -63, -48, 
-29, 209, 239, -90, -134, 224, -97, -126, -117, -82, -58, -43, 
-24, 229, 253, -102, -139, 241, -87, -126, -97, -63, -39, -29, 
-29, 229, 258, -100, -143, 244, -87, -122, -92, -63, -29, -29, 
-34, 229, 263, -97, -148, 246, -82, -122, -92, -63, -29, -29, 
-34, 224, 258, -95, -146, 241, -73, -122, -82, -68, -34, -29, 
-39, 219, 258, -90, -148, 239, -68, -112, -82, -68, -34, -29, 
-34, 214, 248, -90, -141, 231, -63, -112, -82, -68, -39, -29, 
-24, 209, 234, -92, -129, 222, -63, -107, -73, -63, -39, -29, 
-24, 204, 229, -90, -126, 217, -58, -107, -73, -63, -43, -34, 
-19, 200, 219, -90, -119, 209, -48, -97, -63, -58, -39, -39, 
-19, 185, 204, -82, -112, 195, -43, -82, -58, -58, -43, -34, 
-19, 175, 195, -78, -107, 185, -39, -68, -58, -58, -48, -29, 
-19, 175, 195, -78, -107, 185, -24, -63, -53, -53, -39, -29, 
-19, 175, 195, -78, -107, 185, -9, -58, -48, -48, -29, -29, 
-19, 175, 195, -78, -107, 185, -4, -53, -43, -43, -29, -29, 
-19, 175, 195, -78, -107, 185, 0, -48, -39, -39, -29, -29, 
-19, 165, 185, -73, -102, 175, 0, -43, -39, -39, -29, -34, 
-19, 156, 175, -68, -97, 165, 0, -39, -39, -39, -29, -39, 
-14, 146, 161, -65, -87, 153, 4, -34, -39, -39, -29, -39, 
-9, 136, 146, -63, -78, 141, 9, -29, -39, -39, -29, -39, 
-4, 126, 131, -61, -68, 129, 9, -19, -39, -39, -29, -39, 
0, 117, 117, -58, -58, 117, 9, -9, -39, -39, -29, -39, 
4, 107, 102, -56, -48, 104, 0, -9, -43, -43, -29, -43, 
9, 97, 87, -53, -39, 92, -9, -9, -48, -48, -29, -48, 
14, 92, 78, -53, -31, 85, -19, -9, -53, -48, -34, -48, 
19, 87, 68, -53, -24, 78, -29, -9, -58, -48, -39, -48, 
19, 78, 58, -48, -19, 68, -39, -9, -63, -53, -39, -48, 
19, 68, 48, -43, -14, 58, -48, -9, -68, -58, -39, -48, 
19, 53, 34, -36, -7, 43, -53, -19, -73, -63, -43, -53, 
19, 39, 19, -29, 0, 29, -58, -29, -78, -68, -48, -58, 
19, 39, 19, -29, 0, 29, -73, -39, -82, -68, -48, -58, 
19, 39, 19, -29, 0, 29, -87, -48, -87, -68, -48, -58, 
19, 39, 19, -29, 0, 29, -87, -53, -87, -63, -43, -48, 
19, 39, 19, -29, 0, 29, -87, -58, -87, -58, -39, -39, 
9, 63, 53, -36, -21, 58, -82, -63, -63, -43, -24, -29, 
0, 87, 87, -43, -43, 87, -78, -68, -39, -29, -9, -19, 
0, 102, 102, -51, -51, 102, -73, -68, -19, -14, 0, -9, 
0, 117, 117, -58, -58, 117, -68, -68, 0, 0, 9, 0, 
-4, 126, 131, -61, -68, 129, -58, -68, 14, 9, 19, 9, 
-9, 136, 146, -63, -78, 141, -48, -68, 29, 19, 29, 19, 
-9, 146, 156, -68, -82, 151, -39, -63, 34, 24, 34, 24, 
-9, 156, 165, -73, -87, 161, -29, -58, 39, 29, 39, 29, 
-4, 156, 161, -75, -82, 158, -24, -53, 48, 39, 43, 29, 
0, 156, 156, -78, -78, 156, -19, -48, 58, 48, 48, 29, 
4, 156, 151, -80, -73, 153, -14, -39, 63, 48, 48, 29, 
9, 156, 146, -82, -68, 151, -9, -29, 68, 48, 48, 29, 
14, 151, 136, -82, -61, 143, -4, -24, 68, 48, 48, 29, 
19, 146, 126, -82, -53, 136, 0, -19, 68, 48, 48, 29, 
19, 136, 117, -78, -48, 126, 0, -14, 68, 48, 43, 29, 
19, 126, 107, -73, -43, 117, 0, -9, 68, 48, 39, 29, 
24, 107, 82, -65, -29, 95, 0, -4, 63, 43, 34, 19, 
29, 87, 58, -58, -14, 73, 0, 0, 58, 39, 29, 9, 
34, 68, 34, -51, 0, 51, -4, 0, 39, 29, 24, 4, 
39, 48, 9, -43, 14, 29, -9, 0, 19, 19, 19, 0, 
39, 43, 4, -41, 17, 24, -14, 0, 14, 14, 19, 0, 
39, 39, 0, -39, 19, 19, -19, 0, 9, 9, 19, 0, 
39, 34, -4, -36, 21, 14, -24, 0, 9, 9, 19, 0, 
39, 29, -9, -34, 24, 9, -29, 0, 9, 9, 19, 0, 
39, 29, -9, -34, 24, 9, -43, 0, 4, 9, 19, 0, 
39, 29, -9, -34, 24, 9, -58, 0, 0, 9, 19, 0, 
39, 24, -14, -31, 26, 4, -63, -9, -4, 4, 19, 0, 
39, 19, -19, -29, 29, 0, -68, -19, -9, 0, 19, 0, 
29, 4, -24, -17, 26, -9, -73, -29, -19, -4, 14, 0, 
19, -9, -29, -4, 24, -19, -78, -39, -29, -9, 9, 0, 
19, -19, -39, 0, 29, -29, -78, -39, -29, -14, 4, -4, 
19, -29, -48, 4, 34, -39, -78, -39, -29, -19, 0, -9, 
19, -34, -53, 7, 36, -43, -78, -39, -34, -19, 0, -9, 
19, -39, -58, 9, 39, -48, -78, -39, -39, -19, 0, -9, 
19, -48, -68, 14, 43, -58, -68, -43, -39, -19, -4, -9, 
19, -58, -78, 19, 48, -68, -58, -48, -39, -19, -9, -9, 
9, -58, -68, 24, 39, -63, -58, -48, -29, -19, -9, -9, 
0, -58, -58, 29, 29, -58, -58, -48, -19, -19, -9, -9, 
0, -43, -43, 21, 21, -43, -43, -43, 0, -4, 4, 0, 
0, -29, -29, 14, 14, -29, -29, -39, 19, 9, 19, 9, 
-4, -29, -24, 17, 9, -26, -9, -29, 19, 9, 19, 9, 
-9, -29, -19, 19, 4, -24, 9, -19, 19, 9, 19, 9, 
-9, -34, -24, 21, 7, -29, 14, -14, 19, 9, 19, 9, 
-9, -39, -29, 24, 9, -34, 19, -9, 19, 9, 19, 9, 
-9, -39, -29, 24, 9, -34, 24, -4, 24, 9, 19, 9, 
-9, -39, -29, 24, 9, -34, 29, 0, 29, 9, 19, 9, 
-4, -39, -34, 21, 14, -36, 34, 0, 34, 14, 19, 9, 
0, -39, -39, 19, 19, -39, 39, 0, 39, 19, 19, 9, 
4, -39, -43, 17, 24, -41, 43, 4, 39, 19, 19, 9, 
9, -39, -48, 14, 29, -43, 48, 9, 39, 19, 19, 9, 
9, -43, -53, 17, 31, -48, 48, 14, 39, 19, 14, 9, 
9, -48, -58, 19, 34, -53, 48, 19, 39, 19, 9, 9, 
9, -53, -63, 21, 36, -58, 43, 19, 34, 14, 9, 9, 
9, -58, -68, 24, 39, -63, 39, 19, 29, 9, 9, 9, 
14, -63, -78, 24, 46, -70, 34, 19, 24, 9, 9, 9, 
19, -68, -87, 24, 53, -78, 29, 19, 19, 9, 9, 9, 
24, -68, -92, 21, 58, -80, 24, 19, 14, 9, 9, 9, 
29, -68, -97, 19, 63, -82, 19, 19, 9, 9, 9, 9, 
29, -73, -102, 21, 65, -87, 9, 14, 0, 0, 4, 4, 
29, -78, -107, 24, 68, -92, 0, 9, -9, -9, 0, 0, 
29, -92, -122, 31, 75, -107, -9, 0, -19, -14, -4, -4, 
29, -107, -136, 39, 82, -122, -19, -9, -29, -19, -9, -9, 
24, -112, -136, 43, 80, -124, -24, -14, -29, -19, -9, -9, 
19, -117, -136, 48, 78, -126, -29, -19, -29, -19, -9, -9, 
19, -117, -136, 48, 78, -126, -29, -19, -19, -14, 0, 0, 
14, -107, -122, 46, 68, -114, -29, -14, -9, -9, 4, 4, 
14, -102, -117, 43, 65, -109, -29, -14, -4, -4, 14, 14, 
9, -92, -102, 41, 56, -97, -29, -14, 9, 0, 19, 19, 
4, -92, -97, 43, 51, -95, -19, -9, 19, 14, 24, 24, 
0, -92, -92, 46, 46, -92, -14, -9, 24, 24, 29, 29, 
0, -82, -82, 41, 41, -82, -14, -19, 34, 29, 29, 34, 
0, -78, -78, 39, 39, -78, -14, -19, 39, 34, 34, 39, 
0, -82, -82, 41, 41, -82, -4, -9, 43, 43, 43, 43, 
0, -78, -78, 39, 39, -78, -4, 0, 53, 53, 53, 53, 
4, -73, -78, 34, 41, -75, 4, 0, 58, 58, 53, 53, 
9, -68, -78, 29, 43, -73, 9, 0, 63, 58, 53, 53, 
19, -53, -73, 17, 46, -63, 14, 9, 78, 63, 63, 63, 
24, -53, -78, 14, 51, -65, 19, 19, 92, 73, 73, 78, 
34, -43, -78, 4, 56, -61, 19, 29, 97, 78, 78, 73, 
43, -39, -82, -2, 63, -61, 19, 39, 102, 82, 82, 73, 
48, -39, -87, -4, 68, -63, 29, 48, 112, 87, 82, 78, 
53, -34, -87, -9, 70, -61, 34, 58, 117, 92, 87, 78, 
58, -39, -97, -9, 78, -68, 34, 68, 122, 97, 87, 82, 
58, -43, -102, -7, 80, -73, 34, 82, 126, 97, 87, 78, 
63, -63, -126, 0, 95, -95, 39, 87, 122, 92, 87, 68, 
68, -87, -156, 9, 112, -122, 39, 87, 117, 82, 82, 63, 
78, -117, -195, 19, 136, -156, 39, 102, 92, 68, 63, 53, 
82, -141, -224, 29, 153, -183, 34, 117, 68, 53, 53, 43, 
82, -156, -239, 36, 161, -197, 39, 117, 58, 43, 48, 39, 
82, -175, -258, 46, 170, -217, 39, 117, 43, 34, 39, 34, 
78, -185, -263, 53, 170, -224, 39, 117, 34, 29, 34, 29, 
68, -195, -263, 63, 165, -229, 34, 107, 24, 24, 29, 24, 
68, -209, -278, 70, 173, -244, 34, 102, 24, 14, 29, 24, 
68, -214, -283, 73, 175, -248, 24, 97, 19, 9, 19, 19, 
68, -219, -287, 75, 178, -253, 9, 92, 9, 4, 14, 19, 
68, -224, -292, 78, 180, -258, 0, 82, 4, 0, 14, 19, 
63, -224, -287, 80, 175, -256, 0, 78, 4, 0, 14, 19, 
53, -229, -283, 87, 168, -256, 0, 68, 4, 0, 14, 19, 
39, -224, -263, 92, 151, -244, 0, 58, 9, 9, 19, 24, 
24, -219, -244, 97, 134, -231, 4, 48, 14, 14, 24, 29, 
19, -195, -214, 87, 117, -204, 14, 53, 39, 34, 39, 48, 
14, -175, -190, 80, 102, -183, 24, 53, 63, 58, 53, 63, 
9, -156, -165, 73, 87, -161, 29, 63, 78, 73, 68, 73, 
4, -131, -136, 63, 70, -134, 34, 68, 92, 87, 82, 82, 
0, -136, -136, 68, 68, -136, 34, 58, 97, 87, 97, 97, 
-4, -136, -131, 70, 63, -134, 34, 58, 102, 82, 102, 107, 
-4, -180, -175, 92, 85, -178, 87, 117, 141, 78, 53, 43, 
-24, -229, -204, 126, 90, -217, 190, 253, 302, 112, 4, -43, 
-24, -263, -239, 143, 107, -251, 234, 346, 448, 190, 4, -82, 
29, -209, -239, 90, 134, -224, 214, 473, 566, 351, 107, -43, 
131, -48, -180, -41, 156, -114, 141, 605, 712, 600, 346, 97, 
175, 126, -48, -151, 112, 39, 58, 600, 849, 805, 575, 273, 
180, 361, 180, -270, 0, 270, -82, 370, 883, 1024, 844, 502, 
126, 575, 448, -351, -161, 512, -224, 4, 800, 1229, 1132, 736, 
68, 810, 741, -439, -336, 775, -361, -434, 619, 1395, 1444, 1010, 
102, 1024, 922, -563, -409, 973, -458, -619, 390, 1483, 1708, 1278, 
224, 1268, 1044, -746, -409, 1156, -522, -575, 302, 1766, 2113, 1566, 
82, 1317, 1234, -700, -575, 1276, -424, -805, 204, 1742, 2113, 1595, 
-380, 897, 1278, -258, -829, 1088, -175, -1459, -326, 976, 1366, 1185, 
-751, 273, 1024, 239, -888, 649, 24, -1820, -1024, -58, 424, 644, 
-873, -395, 478, 634, -675, 41, 146, -1747, -1556, -922, -361, 131, 
-810, -614, 195, 712, -502, -209, 112, -1527, -1590, -1112, -619, -82, 
-644, -536, 107, 590, -375, -214, -14, -1263, -1400, -956, -546, -92, 
-453, -561, -107, 507, -173, -334, -48, -951, -1180, -873, -536, -122, 
-273, -658, -385, 466, 56, -522, -14, -561, -878, -766, -546, -190, 
-117, -639, -522, 378, 202, -580, 9, -248, -566, -556, -448, -190, 
-19, -536, -517, 278, 248, -527, 34, -112, -346, -331, -268, -112, 
-14, -463, -448, 239, 217, -456, 24, -48, -195, -190, -131, -39, 
19, -424, -444, 202, 231, -434, 14, 14, -87, -136, -92, -4, 
29, -434, -463, 202, 246, -448, 19, 39, -43, -102, -82, -4, 
29, -453, -483, 212, 256, -468, 29, 39, -29, -82, -63, -4, 
39, -458, -497, 209, 268, -478, 39, 53, -29, -82, -53, 4, 
24, -444, -468, 209, 246, -456, 34, 48, -29, -78, -48, 9, 
14, -439, -453, 212, 234, -446, 39, 43, -4, -53, -48, 19, 
4, -429, -434, 212, 219, -431, 43, 43, 4, -39, -39, 29, 
0, -419, -419, 209, 209, -419, 53, 43, 19, -29, -29, 43, 
0, -414, -414, 207, 207, -414, 53, 48, 39, -19, -14, 48, 
0, -409, -409, 204, 204, -409, 53, 53, 58, -4, 0, 53, 
0, -405, -405, 202, 202, -405, 63, 63, 68, 4, 9, 63, 
4, -390, -395, 192, 200, -392, 68, 78, 78, 14, 19, 73, 
4, -380, -385, 187, 195, -383, 73, 78, 92, 24, 24, 82, 
9, -380, -390, 185, 200, -385, 78, 92, 112, 34, 34, 97, 
9, -370, -380, 180, 195, -375, 82, 92, 122, 39, 39, 97, 
24, -356, -380, 165, 202, -368, 87, 107, 136, 53, 48, 102, 
29, -346, -375, 158, 202, -361, 92, 117, 151, 63, 53, 102, 
34, -341, -375, 153, 204, -358, 97, 126, 161, 73, 58, 112, 
34, -331, -366, 148, 200, -348, 102, 136, 175, 82, 63, 117, 
43, -336, -380, 146, 212, -358, 107, 151, 190, 92, 73, 122, 
48, -336, -385, 143, 217, -361, 107, 156, 195, 92, 78, 117, 
48, -336, -385, 143, 217, -361, 112, 161, 200, 92, 73, 117, 
48, -341, -390, 146, 219, -366, 112, 161, 200, 97, 73, 112, 
58, -346, -405, 143, 231, -375, 107, 170, 209, 97, 73, 112, 
68, -351, -419, 141, 244, -385, 87, 185, 204, 92, 73, 112, 
73, -351, -424, 139, 248, -387, 73, 200, 204, 92, 73, 112, 
78, -366, -444, 143, 261, -405, 73, 204, 200, 92, 68, 112, 
87, -366, -453, 139, 270, -409, 68, 209, 200, 92, 63, 112, 
97, -380, -478, 141, 287, -429, 53, 214, 195, 92, 63, 107, 
107, -390, -497, 141, 302, -444, 43, 219, 200, 97, 63, 102, 
107, -395, -502, 143, 305, -448, 43, 209, 200, 87, 58, 107, 
107, -400, -507, 146, 307, -453, 39, 209, 195, 87, 58, 107, 
107, -414, -522, 153, 314, -468, 14, 200, 185, 82, 53, 102, 
102, -419, -522, 158, 312, -470, 14, 190, 185, 82, 53, 102, 
97, -434, -531, 168, 314, -483, 14, 180, 185, 87, 48, 97, 
92, -434, -527, 170, 309, -480, 14, 180, 190, 87, 48, 97, 
87, -444, -531, 178, 309, -488, 24, 190, 209, 87, 48, 97, 
78, -444, -522, 183, 300, -483, 29, 200, 224, 87, 53, 102, 
78, -444, -522, 183, 300, -483, 43, 214, 239, 92, 58, 102, 
73, -444, -517, 185, 295, -480, 63, 234, 253, 107, 63, 102, 
63, -448, -512, 192, 287, -480, 87, 253, 273, 112, 58, 102, 
63, -458, -522, 197, 292, -490, 107, 273, 297, 117, 58, 107, 
63, -444, -507, 190, 285, -475, 122, 297, 312, 131, 63, 107, 
63, -444, -507, 190, 285, -475, 126, 326, 322, 141, 68, 112, 
68, -429, -497, 180, 283, -463, 131, 346, 356, 156, 78, 112, 
73, -424, -497, 175, 285, -461, 141, 370, 380, 161, 87, 112, 
73, -424, -497, 175, 285, -461, 151, 380, 385, 161, 73, 107, 
78, -424, -502, 173, 290, -463, 161, 405, 390, 161, 73, 102, 
87, -429, -517, 170, 302, -473, 170, 424, 409, 165, 73, 102, 
102, -439, -541, 168, 322, -490, 180, 453, 429, 170, 73, 97, 
102, -444, -546, 170, 324, -495, 190, 478, 434, 170, 58, 97, 
107, -444, -551, 168, 329, -497, 195, 497, 439, 170, 53, 82, 
117, -448, -566, 165, 341, -507, 204, 517, 453, 165, 48, 82, 
126, -453, -580, 163, 353, -517, 209, 536, 468, 165, 48, 78, 
141, -458, -600, 158, 370, -529, 200, 566, 468, 165, 48, 78, 
156, -458, -614, 151, 385, -536, 200, 595, 478, 175, 48, 78, 
165, -458, -624, 146, 395, -541, 180, 600, 473, 170, 43, 78, 
180, -453, -634, 136, 407, -544, 161, 600, 478, 175, 43, 78, 
190, -463, -653, 136, 422, -558, 146, 600, 473, 175, 43, 68, 
195, -468, -663, 136, 429, -566, 136, 600, 468, 180, 48, 73, 
200, -473, -673, 136, 436, -573, 131, 575, 458, 190, 58, 87, 
200, -468, -668, 134, 434, -568, 126, 566, 453, 195, 68, 92, 
195, -453, -649, 129, 422, -551, 107, 556, 448, 204, 92, 112, 
195, -444, -639, 124, 417, -541, 97, 551, 444, 219, 117, 131, 
200, -429, -629, 114, 414, -529, 87, 522, 424, 234, 141, 151, 
204, -419, -624, 107, 414, -522, 82, 507, 419, 239, 161, 165, 
185, -409, -595, 112, 390, -502, 82, 468, 395, 239, 175, 185, 
180, -405, -585, 112, 383, -495, 82, 444, 385, 258, 185, 195, 
146, -405, -551, 129, 348, -478, 82, 409, 370, 258, 195, 195, 
126, -409, -536, 141, 331, -473, 82, 385, 361, 258, 200, 200, 
102, -434, -536, 165, 319, -485, 87, 351, 326, 248, 204, 195, 
82, -453, -536, 185, 309, -495, 97, 326, 312, 239, 204, 200, 
63, -458, -522, 197, 292, -490, 102, 307, 287, 229, 204, 200, 
43, -458, -502, 207, 273, -480, 107, 283, 278, 219, 209, 209, 
34, -453, -488, 209, 261, -470, 107, 258, 273, 224, 214, 209, 
29, -458, -488, 214, 258, -473, 112, 258, 258, 224, 214, 209, 
29, -453, -483, 212, 256, -468, 112, 258, 248, 224, 209, 214, 
29, -453, -483, 212, 256, -468, 112, 258, 244, 224, 204, 214, 
24, -463, -488, 219, 256, -475, 117, 248, 239, 214, 204, 214, 
24, -473, -497, 224, 261, -485, 122, 248, 239, 214, 204, 214, 
19, -483, -502, 231, 261, -492, 136, 248, 239, 219, 204, 214, 
9, -492, -502, 241, 256, -497, 151, 253, 239, 219, 204, 214, 
4, -507, -512, 251, 258, -509, 161, 253, 248, 219, 200, 209, 
-4, -512, -507, 258, 251, -509, 175, 258, 253, 219, 195, 209, 
-9, -512, -502, 261, 246, -507, 185, 258, 248, 209, 195, 209, 
-4, -517, -512, 261, 253, -514, 180, 263, 248, 209, 195, 204, 
-4, -517, -512, 261, 253, -514, 165, 263, 234, 209, 190, 204, 
0, -522, -522, 261, 261, -522, 156, 263, 219, 200, 185, 204, 
0, -522, -522, 261, 261, -522, 122, 253, 224, 185, 185, 200, 
0, -531, -531, 265, 265, -531, 87, 244, 204, 185, 175, 195, 
-4, -541, -536, 273, 265, -539, 73, 209, 185, 175, 170, 185, 
-9, -561, -551, 285, 270, -556, 58, 170, 165, 161, 161, 175, 
-19, -580, -561, 300, 270, -570, 58, 151, 136, 136, 136, 170, 
-34, -595, -561, 314, 263, -578, 58, 141, 131, 117, 122, 156, 
-34, -595, -561, 314, 263, -578, 58, 136, 131, 117, 117, 146, 
-34, -605, -570, 319, 268, -588, 63, 131, 131, 117, 117, 146, 
-34, -610, -575, 322, 270, -592, 68, 131, 141, 112, 117, 146, 
-34, -614, -580, 324, 273, -597, 78, 131, 151, 112, 117, 146, 
-34, -614, -580, 324, 273, -597, 78, 131, 156, 117, 122, 156, 
-34, -600, -566, 317, 265, -583, 87, 146, 161, 122, 122, 161, 
-29, -605, -575, 317, 273, -590, 87, 151, 156, 122, 126, 156, 
-24, -610, -585, 317, 280, -597, 92, 156, 151, 126, 126, 156, 
-19, -600, -580, 309, 280, -590, 92, 156, 151, 122, 126, 156, 
-14, -595, -580, 305, 283, -588, 92, 156, 151, 122, 122, 165, 
-14, -595, -580, 305, 283, -588, 97, 156, 151, 112, 122, 156, 
-14, -619, -605, 317, 295, -612, 92, 156, 151, 107, 122, 156, 
-19, -629, -610, 324, 295, -619, 92, 156, 151, 117, 126, 161, 
-24, -610, -585, 317, 280, -597, 102, 156, 151, 126, 131, 165, 
-24, -590, -566, 307, 270, -578, 102, 156, 156, 131, 136, 170, 
-24, -590, -566, 307, 270, -578, 102, 165, 161, 136, 146, 175, 
-24, -575, -551, 300, 263, -563, 102, 165, 170, 146, 161, 190, 
-24, -541, -517, 283, 246, -529, 102, 170, 175, 161, 175, 204, 
-24, -536, -512, 280, 244, -524, 107, 170, 180, 161, 175, 204, 
-9, -527, -517, 268, 253, -522, 107, 180, 190, 165, 180, 209, 
-9, -527, -517, 268, 253, -522, 112, 180, 190, 165, 180, 209, 
-9, -527, -517, 268, 253, -522, 117, 180, 190, 165, 180, 209, 
-4, -541, -536, 273, 265, -539, 122, 185, 180, 165, 175, 209, 
0, -541, -541, 270, 270, -541, 126, 195, 200, 170, 175, 209, 
0, -546, -546, 273, 273, -546, 126, 195, 195, 161, 165, 195, 
0, -551, -551, 275, 275, -551, 122, 200, 190, 156, 165, 190, 
0, -561, -561, 280, 280, -561, 112, 195, 180, 156, 161, 185, 
0, -566, -566, 283, 283, -566, 97, 200, 165, 141, 151, 180, 
0, -570, -570, 285, 285, -570, 92, 190, 165, 141, 146, 180, 
0, -570, -570, 285, 285, -570, 82, 180, 161, 131, 146, 180, 
0, -585, -585, 292, 292, -585, 73, 165, 151, 131, 136, 175, 
0, -580, -580, 290, 290, -580, 73, 165, 146, 131, 136, 175, 
-4, -580, -575, 292, 285, -578, 58, 156, 146, 126, 136, 170, 
-9, -585, -575, 297, 283, -580, 43, 146, 146, 122, 136, 165, 
-14, -575, -561, 295, 273, -568, 34, 126, 136, 107, 131, 161, 
-14, -580, -566, 297, 275, -573, 19, 122, 136, 117, 136, 161, 
-14, -595, -580, 305, 283, -588, 29, 122, 131, 117, 131, 156, 
-14, -605, -590, 309, 287, -597, 39, 122, 131, 112, 126, 151, 
-19, -595, -575, 307, 278, -585, 34, 122, 131, 107, 97, 141, 
-19, -595, -575, 307, 278, -585, 39, 126, 136, 102, 102, 141, 
-19, -614, -595, 317, 287, -605, 39, 126, 131, 102, 107, 136, 
-14, -619, -605, 317, 295, -612, 39, 126, 131, 102, 102, 136, 
-19, -619, -600, 319, 290, -610, 43, 131, 131, 97, 102, 131, 
-19, -619, -600, 319, 290, -610, 48, 131, 131, 92, 102, 126, 
-19, -639, -619, 329, 300, -629, 53, 131, 126, 87, 97, 117, 
-19, -649, -629, 334, 305, -639, 58, 126, 122, 82, 92, 107, 
-34, -663, -629, 348, 297, -646, 63, 117, 117, 78, 82, 102, 
-48, -678, -629, 363, 290, -653, 63, 107, 112, 73, 73, 97, 
-53, -673, -619, 363, 283, -646, 68, 102, 102, 63, 58, 87, 
-53, -678, -624, 366, 285, -651, 78, 97, 97, 63, 58, 87, 
-53, -673, -619, 363, 283, -646, 78, 102, 102, 63, 68, 87, 
-53, -668, -614, 361, 280, -641, 82, 102, 102, 63, 68, 87, 
-43, -639, -595, 341, 275, -617, 87, 107, 117, 78, 78, 102, 
-39, -610, -570, 324, 265, -590, 87, 122, 122, 97, 92, 117, 
-34, -585, -551, 309, 258, -568, 82, 122, 126, 102, 97, 126, 
-24, -561, -536, 292, 256, -549, 73, 126, 141, 112, 107, 136, 
-24, -556, -531, 290, 253, -544, 58, 122, 141, 112, 107, 136, 
-19, -551, -531, 285, 256, -541, 48, 126, 151, 117, 117, 136, 
-9, -546, -536, 278, 263, -541, 34, 122, 141, 117, 117, 141, 
0, -546, -546, 273, 273, -546, 19, 117, 136, 117, 117, 146, 
0, -546, -546, 273, 273, -546, 4, 112, 126, 107, 112, 141, 
0, -546, -546, 273, 273, -546, -9, 107, 117, 97, 107, 136, 
0, -551, -551, 275, 275, -551, -9, 97, 107, 92, 97, 131, 
0, -556, -556, 278, 278, -556, -9, 87, 97, 87, 87, 126, 
-4, -556, -551, 280, 273, -553, 0, 87, 97, 82, 82, 117, 
-9, -556, -546, 283, 268, -551, 9, 87, 97, 78, 78, 107, 
-14, -556, -541, 285, 263, -549, 9, 82, 102, 78, 78, 107, 
-19, -556, -536, 287, 258, -546, 9, 78, 107, 78, 78, 107, 
-19, -556, -536, 287, 258, -546, 14, 73, 107, 78, 78, 107, 
-19, -556, -536, 287, 258, -546, 19, 68, 107, 78, 78, 107, 
-24, -561, -536, 292, 256, -549, 19, 68, 102, 78, 73, 102, 
-29, -566, -536, 297, 253, -551, 19, 68, 97, 78, 68, 97, 
-29, -575, -546, 302, 258, -561, 24, 73, 97, 73, 63, 92, 
-29, -585, -556, 307, 263, -570, 29, 78, 97, 68, 58, 87, 
-29, -590, -561, 309, 265, -575, 39, 78, 92, 58, 48, 78, 
-29, -595, -566, 312, 268, -580, 48, 78, 87, 48, 39, 68, 
-24, -605, -580, 314, 278, -592, 53, 78, 82, 43, 34, 58, 
-19, -614, -595, 317, 287, -605, 58, 78, 78, 39, 29, 48, 
-19, -614, -595, 317, 287, -605, 63, 78, 73, 29, 19, 43, 
-19, -614, -595, 317, 287, -605, 68, 78, 68, 19, 9, 39, 
-24, -619, -595, 322, 285, -607, 73, 73, 63, 14, 4, 34, 
-29, -624, -595, 326, 283, -610, 78, 68, 58, 9, 0, 29, 
-34, -624, -590, 329, 278, -607, 87, 68, 58, 9, 0, 24, 
-39, -624, -585, 331, 273, -605, 97, 68, 58, 9, 0, 19, 
-39, -624, -585, 331, 273, -605, 107, 68, 58, 9, 0, 19, 
-39, -624, -585, 331, 273, -605, 117, 68, 58, 9, 0, 19, 
-39, -619, -580, 329, 270, -600, 117, 63, 53, 9, 0, 19, 
-39, -610, -570, 324, 265, -590, 107, 58, 43, 4, 0, 19, 
-39, -600, -561, 319, 261, -580, 97, 53, 34, 4, 4, 19, 
-39, -590, -551, 314, 256, -570, 78, 43, 29, 0, 9, 19, 
-34, -585, -551, 309, 258, -568, 53, 39, 24, 0, 9, 19, 
-29, -580, -551, 305, 261, -566, 24, 29, 14, -4, 9, 19, 
-24, -570, -546, 297, 261, -558, 4, 9, 9, -4, 9, 19, 
-19, -566, -546, 292, 263, -556, -14, 0, 0, -4, 14, 19, 
-14, -566, -551, 290, 268, -558, -9, 0, -4, -4, 14, 14, 
-9, -556, -546, 283, 268, -551, -14, 0, -4, -4, 14, 14, 
-9, -551, -541, 280, 265, -546, -9, 4, 0, 4, 19, 14, 
-9, -546, -536, 278, 263, -541, -9, 9, 4, 9, 24, 14, 
-9, -531, -522, 270, 256, -527, -4, 4, 4, 9, 24, 9, 
-14, -531, -517, 273, 251, -524, 0, 0, 4, 14, 24, 9, 
-14, -527, -512, 270, 248, -519, 4, 4, 0, 9, 24, 0, 
-14, -527, -512, 270, 248, -519, 9, 9, -4, 4, 24, -4, 
-19, -531, -512, 275, 246, -522, 19, 9, 0, 4, 19, -4, 
-24, -531, -507, 278, 241, -519, 24, 9, 0, 4, 19, -9, 
-24, -531, -507, 278, 241, -519, 29, 4, 4, 4, 19, 0, 
-29, -531, -502, 280, 236, -517, 34, 4, 9, 0, 19, 0, 
-29, -527, -497, 278, 234, -512, 43, 9, 9, 4, 24, -4, 
-29, -527, -497, 278, 234, -512, 48, 9, 9, 4, 24, -4, 
-29, -527, -497, 278, 234, -512, 63, 9, 19, 9, 14, -4, 
-34, -522, -488, 278, 226, -505, 73, 9, 29, 14, 14, -4, 
-34, -507, -473, 270, 219, -490, 78, 14, 34, 19, 24, 0, 
-34, -497, -463, 265, 214, -480, 78, 19, 34, 24, 29, 4, 
-29, -483, -453, 256, 212, -468, 78, 24, 39, 29, 34, 4, 
-29, -468, -439, 248, 204, -453, 73, 19, 43, 34, 39, 4, 
-24, -478, -453, 251, 214, -466, 78, 19, 48, 29, 39, 9, 
-19, -478, -458, 248, 219, -468, 73, 19, 48, 29, 29, 9, 
-14, -478, -463, 246, 224, -470, 68, 29, 43, 29, 29, 9, 
-9, -478, -468, 244, 229, -473, 68, 34, 43, 29, 34, 9, 
-4, -473, -468, 239, 231, -470, 68, 34, 39, 29, 34, 9, 
-4, -473, -468, 239, 231, -470, 68, 29, 34, 29, 34, 9, 
0, -458, -458, 229, 229, -458, 58, 29, 39, 39, 39, 14, 
4, -444, -448, 219, 226, -446, 53, 29, 43, 43, 43, 19, 
4, -439, -444, 217, 224, -441, 43, 29, 43, 43, 48, 29, 
4, -439, -444, 217, 224, -441, 34, 24, 43, 48, 53, 34, 
0, -434, -434, 217, 217, -434, 29, 24, 43, 43, 53, 34, 
-4, -424, -419, 214, 207, -422, 24, 19, 43, 39, 53, 34, 
0, -429, -429, 214, 214, -429, 24, 19, 29, 34, 53, 34, 
4, -429, -434, 212, 219, -431, 24, 29, 14, 24, 43, 29, 
4, -483, -488, 239, 246, -485, 63, 87, 48, 14, -9, -34, 
-14, -541, -527, 278, 256, -534, 151, 224, 204, 43, -63, -122, 
-19, -561, -541, 290, 261, -551, 195, 317, 356, 126, -53, -151, 
29, -492, -522, 231, 275, -507, 175, 444, 478, 292, 58, -102, 
117, -331, -448, 107, 283, -390, 102, 556, 610, 531, 292, 39, 
146, -156, -302, 4, 224, -229, 19, 531, 732, 727, 517, 214, 
141, 73, -68, -107, 104, 2, -122, 273, 766, 946, 785, 444, 
78, 283, 204, -180, -63, 244, -263, -122, 683, 1151, 1073, 678, 
4, 507, 502, -256, -248, 505, -390, -531, 497, 1312, 1385, 941, 
24, 712, 688, -368, -331, 700, -478, -688, 263, 1395, 1649, 1200, 
112, 927, 814, -519, -351, 871, -507, -688, 175, 1644, 2005, 1454, 
-63, 946, 1010, -441, -536, 978, -375, -961, 78, 1586, 1956, 1449, 
-531, 507, 1039, 12, -785, 773, -117, -1595, -473, 805, 1195, 1019, 
-907, -136, 771, 522, -839, 317, 92, -1937, -1190, -244, 239, 458, 
-1015, -746, 268, 880, -641, -239, 219, -1849, -1683, -1054, -492, -14, 
-936, -907, 29, 922, -483, -439, 190, -1615, -1678, -1190, -697, -190, 
-780, -829, -48, 805, -366, -439, 43, -1361, -1483, -1049, -624, -200, 
-600, -854, -253, 727, -173, -553, -9, -1058, -1259, -980, -614, -229, 
-409, -932, -522, 671, 56, -727, 34, -673, -956, -849, -610, -297, 
-244, -893, -649, 568, 202, -771, 68, -366, -644, -614, -497, -297, 
-146, -746, -600, 446, 226, -673, 87, -219, -390, -385, -312, -200, 
-141, -629, -488, 385, 173, -558, 73, -146, -204, -239, -170, -107, 
-102, -575, -473, 339, 185, -524, 53, -82, -87, -165, -126, -68, 
-87, -570, -483, 329, 197, -527, 48, -58, -34, -112, -112, -63, 
-63, -546, -483, 305, 209, -514, 24, -43, -14, -82, -73, -43, 
-29, -507, -478, 268, 224, -492, 0, -14, -9, -73, -43, -14, 
-24, -492, -468, 258, 222, -480, -14, -9, -9, -68, -39, -14, 
-14, -488, -473, 251, 229, -480, -19, -4, 14, -43, -39, -9, 
-9, -488, -478, 248, 234, -483, -29, 0, 14, -34, -24, 0, 
0, -488, -488, 244, 244, -488, -34, 4, 19, -29, -9, 14, 
4, -488, -492, 241, 248, -490, -39, 9, 24, -29, -9, 14, 
9, -488, -497, 239, 253, -492, -43, 14, 29, -24, -9, 14, 
19, -488, -507, 234, 263, -497, -43, 19, 29, -24, -9, 19, 
34, -478, -512, 222, 273, -495, -48, 29, 29, -24, -9, 24, 
34, -478, -512, 222, 273, -495, -48, 24, 29, -24, -9, 19, 
39, -488, -527, 224, 283, -507, -48, 34, 34, -24, -4, 19, 
34, -483, -517, 224, 275, -500, -43, 34, 34, -24, -4, 14, 
43, -473, -517, 214, 280, -495, -39, 48, 39, -14, 0, 14, 
43, -468, -512, 212, 278, -490, -34, 48, 39, -14, -4, 9, 
43, -468, -512, 212, 278, -490, -29, 48, 34, -14, -9, 14, 
29, -483, -512, 226, 270, -497, -19, 48, 29, -29, -24, 4, 
24, -512, -536, 244, 280, -524, -9, 53, 24, -43, -34, -4, 
29, -527, -556, 248, 292, -541, -4, 48, 14, -53, -39, -19, 
29, -541, -570, 256, 300, -556, 4, 43, 4, -63, -53, -29, 
14, -556, -570, 270, 292, -563, 24, 43, 0, -63, -58, -39, 
9, -570, -580, 280, 295, -575, 39, 53, 4, -68, -63, -43, 
0, -585, -585, 292, 292, -585, 43, 53, 0, -78, -73, -53, 
-14, -595, -580, 305, 283, -588, 53, 53, 0, -82, -82, -63, 
-29, -605, -575, 317, 273, -590, 63, 39, 0, -82, -82, -63, 
-39, -600, -561, 319, 261, -580, 68, 24, 4, -82, -82, -63, 
-39, -585, -546, 312, 253, -566, 48, 14, 4, -78, -78, -53, 
-39, -566, -527, 302, 244, -546, 34, 4, 14, -68, -73, -43, 
-39, -561, -522, 300, 241, -541, 29, 4, 19, -68, -73, -39, 
-39, -556, -517, 297, 239, -536, 19, 14, 19, -58, -68, -39, 
-34, -556, -522, 295, 244, -539, -4, 24, 34, -53, -68, -39, 
-34, -546, -512, 290, 239, -529, -4, 34, 58, -43, -63, -34, 
-34, -541, -507, 287, 236, -524, -4, 39, 68, -24, -63, -29, 
-34, -522, -488, 278, 226, -505, -4, 53, 82, -9, -58, -19, 
-14, -502, -488, 258, 236, -495, -4, 78, 112, 0, -43, -14, 
0, -473, -473, 236, 236, -473, -9, 102, 136, 9, -24, -4, 
9, -468, -478, 229, 244, -473, -9, 112, 146, 19, -19, 4, 
14, -463, -478, 224, 246, -470, -4, 126, 156, 39, -14, 14, 
19, -453, -473, 217, 246, -463, -4, 141, 161, 39, -19, 9, 
34, -448, -483, 207, 258, -466, -9, 156, 170, 39, -19, 9, 
43, -434, -478, 195, 261, -456, -4, 170, 175, 39, -19, 4, 
53, -434, -488, 190, 270, -461, -9, 190, 175, 34, -19, 4, 
63, -439, -502, 187, 283, -470, -4, 214, 190, 34, -29, -4, 
73, -453, -527, 190, 300, -490, 4, 244, 195, 24, -39, -14, 
78, -458, -536, 190, 307, -497, 14, 253, 204, 19, -53, -24, 
87, -463, -551, 187, 319, -507, 24, 278, 214, 14, -53, -34, 
92, -458, -551, 183, 322, -505, 29, 292, 219, 14, -58, -34, 
102, -458, -561, 178, 331, -509, 34, 317, 224, 14, -63, -39, 
102, -463, -566, 180, 334, -514, 43, 326, 224, 9, -78, -39, 
107, -463, -570, 178, 339, -517, 48, 331, 224, 4, -82, -53, 
107, -468, -575, 180, 341, -522, 63, 336, 219, -9, -92, -58, 
107, -473, -580, 183, 344, -527, 73, 341, 214, -19, -97, -68, 
102, -488, -590, 192, 346, -539, 78, 341, 200, -34, -107, -78, 
97, -497, -595, 200, 346, -546, 92, 341, 195, -39, -117, -87, 
92, -512, -605, 209, 348, -558, 92, 346, 185, -53, -126, -92, 
92, -522, -614, 214, 353, -568, 92, 346, 185, -58, -131, -97, 
92, -531, -624, 219, 358, -578, 92, 346, 185, -58, -136, -107, 
87, -536, -624, 224, 356, -580, 97, 346, 185, -53, -136, -102, 
78, -527, -605, 224, 341, -566, 97, 322, 195, -24, -112, -78, 
63, -507, -570, 222, 317, -539, 97, 312, 209, 0, -87, -63, 
48, -483, -531, 217, 290, -507, 82, 297, 219, 9, -68, -53, 
39, -463, -502, 212, 270, -483, 78, 287, 229, 24, -48, -43, 
39, -448, -488, 204, 263, -468, 58, 258, 214, 43, -24, -19, 
39, -439, -478, 200, 258, -458, 43, 244, 214, 53, -4, 0, 
24, -429, -453, 202, 239, -441, 29, 204, 190, 53, 4, 9, 
24, -424, -448, 200, 236, -436, 14, 180, 180, 73, 9, 9, 
9, -409, -419, 200, 214, -414, 4, 161, 165, 73, 29, 19, 
9, -400, -409, 195, 209, -405, -4, 151, 156, 73, 43, 34, 
-4, -400, -395, 202, 195, -397, -14, 122, 131, 68, 48, 34, 
-14, -395, -380, 204, 183, -387, -19, 102, 126, 63, 48, 43, 
-24, -400, -375, 212, 175, -387, -19, 82, 87, 63, 48, 43, 
-34, -400, -366, 217, 165, -383, -19, 58, 63, 63, 53, 53, 
-39, -395, -356, 217, 158, -375, -19, 34, 63, 63, 58, 53, 
-39, -400, -361, 219, 161, -380, -14, 34, 53, 58, 58, 53, 
-39, -395, -356, 217, 158, -375, -9, 34, 43, 58, 58, 58, 
-39, -395, -356, 217, 158, -375, -4, 34, 39, 58, 58, 58, 
-43, -390, -346, 217, 151, -368, -4, 24, 34, 53, 63, 58, 
-43, -385, -341, 214, 148, -363, -4, 24, 34, 58, 68, 58, 
-43, -385, -341, 214, 148, -363, 0, 24, 34, 63, 68, 58, 
-48, -385, -336, 217, 143, -361, 4, 29, 34, 63, 68, 58, 
-48, -380, -331, 214, 141, -356, 9, 24, 39, 63, 63, 58, 
-53, -366, -312, 209, 129, -339, 19, 24, 39, 63, 58, 63, 
-53, -375, -322, 214, 134, -348, 43, 24, 29, 43, 53, 53, 
-43, -390, -346, 217, 151, -368, 53, 29, 24, 34, 48, 39, 
-48, -405, -356, 226, 153, -380, 63, 29, 9, 34, 39, 34, 
-48, -424, -375, 236, 163, -400, 78, 29, -4, 24, 29, 29, 
-68, -444, -375, 256, 153, -409, 92, 4, -4, -4, 19, 14, 
-87, -473, -385, 280, 148, -429, 107, -19, -29, -19, 0, 0, 
-87, -473, -385, 280, 148, -429, 92, -34, -43, -24, -4, -4, 
-87, -483, -395, 285, 153, -439, 78, -53, -58, -34, -14, -9, 
-87, -483, -395, 285, 153, -439, 39, -73, -82, -43, -19, 0, 
-92, -478, -385, 285, 146, -431, 0, -82, -82, -48, -14, 0, 
-92, -453, -361, 273, 134, -407, -14, -87, -73, -39, -14, 0, 
-92, -439, -346, 265, 126, -392, -24, -92, -63, -29, -9, 9, 
-92, -434, -341, 263, 124, -387, -34, -92, -58, -29, -4, 14, 
-92, -429, -336, 261, 122, -383, -39, -92, -53, -24, 0, 19, 
-87, -424, -336, 256, 124, -380, -43, -92, -43, -19, 4, 24, 
-82, -405, -322, 244, 119, -363, -39, -78, -34, -14, 4, 24, 
-78, -400, -322, 239, 122, -361, -39, -73, -34, -14, 9, 19, 
-73, -395, -322, 234, 124, -358, -34, -68, -34, -9, 9, 19, 
-68, -385, -317, 226, 124, -351, -34, -63, -29, -9, 14, 19, 
-63, -380, -317, 222, 126, -348, -34, -58, -24, -4, 14, 29, 
-63, -356, -292, 209, 114, -324, -29, -58, -24, -4, 14, 24, 
-63, -356, -292, 209, 114, -324, -34, -58, -24, 0, 14, 29, 
-63, -375, -312, 219, 124, -344, -34, -58, -24, -4, 14, 29, 
-63, -366, -302, 214, 119, -334, -24, -58, -24, -9, 14, 29, 
-63, -346, -283, 204, 109, -314, -19, -63, -24, -9, 9, 24, 
-63, -346, -283, 204, 109, -314, -14, -58, -19, -9, 9, 19, 
-53, -336, -283, 195, 114, -309, -9, -48, -14, -4, 9, 19, 
-48, -331, -283, 190, 117, -307, -9, -39, -9, 0, 9, 19, 
-48, -326, -278, 187, 114, -302, -9, -39, -9, 0, 9, 24, 
-48, -322, -273, 185, 112, -297, -9, -39, -9, 0, 9, 29, 
-43, -322, -278, 183, 117, -300, -9, -34, -14, 0, 9, 29, 
-39, -322, -283, 180, 122, -302, -9, -29, -19, -4, 9, 24, 
-39, -322, -283, 180, 122, -302, -9, -24, -24, -9, 9, 24, 
-39, -326, -287, 183, 124, -307, -9, -24, -39, -19, 9, 19, 
-43, -341, -297, 192, 126, -319, 4, -19, -48, -24, 0, 9, 
-48, -356, -307, 202, 129, -331, 24, -9, -53, -24, -9, 0, 
-53, -356, -302, 204, 124, -329, 39, -9, -53, -34, -14, -4, 
-58, -356, -297, 207, 119, -326, 53, -19, -53, -43, -24, -9, 
-73, -361, -287, 217, 107, -324, 53, -29, -63, -48, -29, -9, 
-87, -370, -283, 229, 97, -326, 63, -39, -68, -53, -34, -14, 
-107, -380, -273, 244, 82, -326, 63, -58, -82, -58, -39, -19, 
-126, -385, -258, 256, 65, -322, 68, -78, -97, -63, -43, -24, 
-126, -390, -263, 258, 68, -326, 48, -82, -102, -73, -43, -24, 
-126, -385, -258, 256, 65, -322, 29, -92, -112, -78, -43, -29, 
-122, -385, -263, 253, 70, -324, 4, -97, -112, -73, -43, -24, 
-112, -380, -268, 246, 78, -324, -19, -97, -112, -73, -43, -24, 
-102, -375, -273, 239, 85, -324, -24, -92, -112, -68, -43, -24, 
-92, -370, -278, 231, 92, -324, -24, -87, -107, -58, -43, -19, 
-92, -356, -263, 224, 85, -309, -24, -82, -97, -53, -39, -19, 
-87, -346, -258, 217, 85, -302, -24, -78, -82, -48, -39, -9, 
-82, -336, -253, 209, 85, -295, -24, -73, -73, -48, -39, -9, 
-78, -326, -248, 202, 85, -287, -19, -68, -68, -43, -34, -14, 
-78, -326, -248, 202, 85, -287, -19, -68, -68, -43, -29, -14, 
-78, -322, -244, 200, 82, -283, -14, -68, -68, -43, -34, -14, 
-82, -317, -234, 200, 75, -275, -14, -68, -68, -43, -34, -14, 
-82, -312, -229, 197, 73, -270, -9, -68, -63, -43, -29, -14, 
-82, -312, -229, 197, 73, -270, -4, -58, -58, -43, -29, -14, 
-78, -312, -234, 195, 78, -273, 0, -48, -53, -43, -29, -14, 
-73, -307, -234, 190, 80, -270, 0, -53, -53, -39, -24, -9, 
-68, -312, -244, 190, 87, -278, 4, -48, -53, -39, -19, -4, 
-63, -302, -239, 183, 87, -270, 0, -43, -48, -34, -29, -9, 
-58, -292, -234, 175, 87, -263, 0, -34, -43, -29, -29, -9, 
-53, -292, -239, 173, 92, -265, 0, -29, -43, -29, -24, -9, 
-43, -287, -244, 165, 100, -265, 0, -24, -43, -29, -24, -9, 
-43, -292, -248, 168, 102, -270, 9, -29, -48, -34, -29, -14, 
-43, -292, -248, 168, 102, -270, 9, -29, -48, -34, -34, -19, 
-43, -287, -244, 165, 100, -265, 9, -29, -43, -34, -34, -19, 
-43, -283, -239, 163, 97, -261, 14, -24, -43, -34, -29, -14, 
-43, -283, -239, 163, 97, -261, 14, -24, -39, -29, -24, -14, 
-43, -278, -234, 161, 95, -256, 14, -24, -34, -29, -24, -14, 
-43, -253, -209, 148, 82, -231, 14, -29, -29, -29, -19, -14, 
-39, -253, -214, 146, 87, -234, 14, -29, -24, -29, -14, -14, 
-34, -248, -214, 141, 90, -231, 24, -4, 0, -24, -19, -14, 
-34, -278, -244, 156, 104, -261, 73, 68, 63, -14, -53, -63, 
-53, -317, -263, 185, 104, -290, 161, 204, 229, 48, -82, -136, 
-53, -307, -253, 180, 100, -280, 195, 297, 390, 170, -39, -146, 
0, -200, -200, 100, 100, -200, 165, 444, 536, 356, 117, -63, 
87, -9, -97, -39, 92, -53, 92, 561, 688, 610, 375, 107, 
117, 185, 68, -151, 24, 126, 4, 492, 810, 829, 605, 297, 
117, 434, 317, -275, -100, 375, -141, 224, 834, 1068, 883, 541, 
58, 644, 585, -351, -263, 614, -297, -161, 722, 1254, 1180, 785, 
0, 868, 868, -434, -434, 868, -434, -570, 541, 1410, 1493, 1039, 
0, 1054, 1054, -527, -527, 1054, -517, -751, 307, 1498, 1712, 1254, 
0, 1195, 1195, -597, -597, 1195, -546, -849, 126, 1615, 1917, 1415, 
-268, 1107, 1376, -419, -822, 1241, -414, -1244, -97, 1322, 1673, 1293, 
-722, 605, 1327, 58, -1024, 966, -180, -1873, -697, 439, 849, 814, 
-1019, -9, 1010, 514, -1015, 500, 0, -2093, -1361, -502, -19, 287, 
-1083, -546, 536, 814, -810, -4, 97, -1937, -1756, -1146, -624, -122, 
-946, -634, 312, 790, -629, -161, 14, -1668, -1678, -1190, -727, -229, 
-741, -527, 214, 634, -478, -156, -117, -1366, -1439, -1010, -614, -209, 
-546, -551, -4, 549, -270, -278, -141, -1024, -1200, -912, -605, -229, 
-361, -605, -244, 483, -58, -424, -122, -639, -907, -771, -580, -268, 
-204, -531, -326, 368, 61, -429, -87, -366, -605, -551, -439, -248, 
-112, -414, -302, 263, 95, -358, -63, -253, -395, -361, -273, -170, 
-126, -351, -224, 239, 48, -287, -73, -200, -263, -244, -180, -102, 
-107, -317, -209, 212, 51, -263, -82, -141, -185, -195, -161, -73, 
-97, -322, -224, 209, 63, -273, -78, -117, -156, -170, -151, -82, 
-92, -326, -234, 209, 70, -280, -68, -117, -146, -161, -131, -92, 
-78, -322, -244, 200, 82, -283, -58, -102, -146, -165, -136, -87, 
-78, -317, -239, 197, 80, -278, -63, -102, -146, -170, -146, -92, 
-73, -322, -248, 197, 87, -285, -58, -97, -126, -156, -146, -92, 
-73, -331, -258, 202, 92, -295, -53, -92, -131, -156, -141, -97, 
-68, -336, -268, 202, 100, -302, -48, -92, -126, -161, -141, -92, 
-68, -341, -273, 204, 102, -307, -43, -92, -126, -165, -146, -92, 
-68, -351, -283, 209, 107, -317, -43, -92, -126, -161, -146, -92, 
-68, -361, -292, 214, 112, -326, -39, -87, -126, -161, -146, -92, 
-63, -341, -278, 202, 107, -309, -34, -78, -117, -156, -146, -92, 
-63, -331, -268, 197, 102, -300, -29, -78, -107, -151, -146, -97, 
-58, -326, -268, 192, 104, -297, -29, -63, -92, -146, -136, -92, 
-58, -302, -244, 180, 92, -273, -29, -63, -82, -141, -131, -87, 
-43, -278, -234, 161, 95, -256, -29, -48, -68, -122, -117, -78, 
-43, -263, -219, 153, 87, -241, -24, -43, -53, -112, -107, -73, 
-29, -234, -204, 131, 87, -219, -19, -14, -34, -97, -97, -53, 
-14, -209, -195, 112, 90, -202, -14, 9, -9, -82, -87, -43, 
9, -209, -219, 100, 114, -214, -9, 29, 9, -68, -68, -34, 
29, -190, -219, 80, 124, -204, -9, 43, 29, -53, -53, -29, 
34, -170, -204, 68, 119, -187, -19, 53, 48, -43, -53, -19, 
29, -151, -180, 61, 104, -165, -29, 63, 63, -29, -43, -14, 
29, -151, -180, 61, 104, -165, -53, 48, 73, -29, -39, -4, 
29, -151, -180, 61, 104, -165, -78, 24, 73, -29, -34, 4, 
24, -146, -170, 61, 97, -158, -112, 0, 63, -24, -34, 4, 
19, -146, -165, 63, 92, -156, -141, -24, 48, -24, -34, 4, 
14, -146, -161, 65, 87, -153, -136, -29, 24, -43, -48, -4, 
14, -161, -175, 73, 95, -168, -136, -29, -4, -63, -63, -14, 
14, -170, -185, 78, 100, -178, -131, -34, -9, -73, -73, -29, 
9, -180, -190, 85, 100, -185, -131, -43, -19, -87, -82, -39, 
4, -180, -185, 87, 95, -183, -117, -39, -29, -82, -82, -43, 
4, -185, -190, 90, 97, -187, -122, -34, -24, -82, -87, -48, 
0, -185, -185, 92, 92, -185, -112, -24, -14, -78, -87, -48, 
-4, -190, -185, 97, 90, -187, -102, -19, -19, -78, -92, -53, 
-9, -175, -165, 92, 78, -170, -97, -4, -14, -78, -92, -48, 
-9, -180, -170, 95, 80, -175, -87, 4, -4, -78, -97, -48, 
-14, -175, -161, 95, 73, -168, -78, 14, 9, -82, -92, -48, 
-14, -175, -161, 95, 73, -168, -68, 19, 19, -82, -92, -53, 
-14, -180, -165, 97, 75, -173, -58, 43, 29, -73, -97, -58, 
-14, -170, -156, 92, 70, -163, -53, 58, 34, -78, -107, -68, 
-4, -165, -161, 85, 78, -163, -48, 63, 43, -82, -112, -73, 
-4, -161, -156, 82, 75, -158, -39, 82, 48, -82, -117, -82, 
-4, -161, -156, 82, 75, -158, -34, 102, 48, -82, -117, -82, 
4, -170, -175, 82, 90, -173, -19, 122, 63, -82, -126, -92, 
14, -180, -195, 82, 104, -187, -9, 146, 68, -97, -136, -107, 
19, -180, -200, 80, 109, -190, 4, 156, 73, -102, -151, -117, 
24, -185, -209, 80, 117, -197, 14, 180, 78, -102, -161, -126, 
29, -185, -214, 78, 122, -200, 14, 200, 82, -102, -170, -131, 
43, -185, -229, 70, 136, -207, 19, 229, 92, -102, -170, -136, 
43, -180, -224, 68, 134, -202, 34, 248, 102, -102, -180, -136, 
53, -170, -224, 58, 139, -197, 39, 268, 122, -97, -175, -141, 
68, -165, -234, 48, 151, -200, 48, 292, 136, -97, -175, -131, 
92, -131, -224, 19, 158, -178, 53, 331, 175, -68, -151, -122, 
112, -97, -209, -7, 161, -153, 53, 366, 214, -39, -126, -107, 
122, -73, -195, -24, 158, -134, 48, 380, 248, -9, -112, -92, 
126, -48, -175, -39, 151, -112, 34, 385, 273, 9, -92, -73, 
131, -39, -170, -46, 151, -104, 19, 356, 283, 19, -78, -63, 
131, -34, -165, -48, 148, -100, 4, 326, 283, 29, -63, -58, 
131, -29, -161, -51, 146, -95, -24, 326, 283, 43, -39, -43, 
131, -19, -151, -56, 141, -85, -58, 297, 273, 53, -19, -29, 
122, -19, -141, -51, 131, -80, -63, 268, 214, 48, -24, -29, 
107, -34, -141, -36, 124, -87, -82, 224, 146, 39, -24, -24, 
92, -63, -156, -14, 124, -109, -87, 190, 102, 14, -34, -39, 
78, -97, -175, 9, 126, -136, -97, 146, 48, -14, -43, -48, 
58, -126, -185, 34, 122, -156, -97, 126, 29, -39, -48, -48, 
29, -136, -165, 53, 97, -151, -92, 87, -4, -53, -53, -48, 
19, -131, -151, 56, 85, -141, -82, 58, -19, -39, -48, -48, 
-4, -126, -122, 65, 58, -124, -73, 34, -39, -43, -39, -48, 
-9, -131, -122, 70, 56, -126, -68, 24, -48, -43, -39, -48, 
-24, -136, -112, 80, 43, -124, -63, -4, -73, -53, -39, -53, 
-39, -141, -102, 90, 31, -122, -53, -14, -73, -63, -39, -48, 
-53, -146, -92, 100, 19, -119, -48, -24, -87, -63, -39, -53, 
-63, -136, -73, 100, 4, -104, -43, -39, -92, -63, -34, -43, 
-73, -122, -48, 97, -12, -85, -39, -53, -92, -58, -29, -43, 
-78, -117, -39, 97, -19, -78, -34, -48, -92, -58, -24, -43, 
-82, -112, -29, 97, -26, -70, -34, -48, -92, -58, -19, -39, 
-87, -112, -24, 100, -31, -68, -24, -53, -92, -58, -19, -39, 
-92, -117, -24, 104, -34, -70, -14, -63, -92, -68, -19, -39, 
-92, -122, -29, 107, -31, -75, 0, -58, -92, -68, -19, -43, 
-92, -122, -29, 107, -31, -75, 14, -58, -92, -63, -19, -48, 
-97, -122, -24, 109, -36, -73, 19, -53, -92, -63, -19, -48, 
-97, -117, -19, 107, -39, -68, 24, -53, -87, -63, -19, -48, 
-107, -92, 14, 100, -61, -39, 34, -53, -73, -53, -14, -39, 
-112, -82, 29, 97, -70, -26, 39, -53, -68, -53, -9, -34, 
-107, -63, 43, 85, -75, -9, 24, -53, -53, -43, 0, -29, 
-112, -43, 68, 78, -90, 12, 24, -58, -48, -34, 4, -19, 
-112, -39, 73, 75, -92, 17, 29, -68, -48, -24, 9, -9, 
-117, -24, 92, 70, -104, 34, 29, -87, -19, -19, 19, -4, 
-117, -24, 92, 70, -104, 34, 24, -97, -14, -19, 19, 0, 
-117, -14, 102, 65, -109, 43, 14, -97, -9, -19, 24, 4, 
-102, -9, 92, 56, -97, 41, -4, -97, -4, -14, 29, 4, 
-87, 0, 87, 43, -87, 43, -29, -107, -14, -14, 29, 9, 
-78, 14, 92, 31, -85, 53, -58, -112, -14, -19, 24, 9, 
-63, 24, 87, 19, -75, 56, -87, -117, -14, -19, 19, 9, 
-53, 29, 82, 12, -68, 56, -112, -117, -24, -24, 19, 9, 
-43, 34, 78, 4, -61, 56, -141, -117, -39, -29, 24, 9, 
-34, 24, 58, 4, -46, 41, -146, -107, -53, -29, 19, 9, 
-29, 19, 48, 4, -39, 34, -156, -97, -68, -29, 19, 9, 
-24, 19, 43, 2, -34, 31, -156, -92, -68, -29, 19, 4, 
-19, 19, 39, 0, -29, 29, -156, -87, -68, -29, 19, 0, 
-19, 14, 34, 2, -26, 24, -156, -87, -68, -34, 14, 0, 
-19, 9, 29, 4, -24, 19, -151, -82, -73, -39, 9, 0, 
-19, 9, 29, 4, -24, 19, -151, -82, -82, -43, 4, -4, 
-19, 4, 24, 7, -21, 14, -146, -82, -87, -48, 0, -9, 
-29, -4, 24, 17, -26, 9, -126, -73, -87, -48, -4, -14, 
-39, -14, 24, 26, -31, 4, -112, -68, -92, -53, -9, -19, 
-43, -19, 24, 31, -34, 2, -102, -73, -92, -58, -19, -24, 
-48, -29, 19, 39, -34, -4, -92, -68, -97, -63, -24, -29, 
-48, -39, 9, 43, -29, -14, -73, -63, -102, -63, -24, -34, 
-48, -39, 9, 43, -29, -14, -63, -58, -102, -63, -24, -34, 
-43, -29, 14, 36, -29, -7, -58, -53, -97, -58, -19, -29, 
-39, -19, 19, 29, -29, 0, -58, -48, -92, -58, -14, -24, 
-39, -4, 34, 21, -36, 14, -53, -53, -87, -58, -14, -24, 
-43, -4, 39, 24, -41, 17, -48, -58, -82, -53, -14, -19, 
-48, 0, 48, 24, -48, 24, -43, -58, -73, -48, -14, -24, 
-53, 0, 53, 26, -53, 26, -39, -58, -63, -43, -14, -24, 
-63, 4, 68, 29, -65, 36, -34, -78, -58, -39, -14, -19, 
-73, 14, 87, 29, -80, 51, -34, -97, -58, -34, -9, -19, 
-78, 14, 92, 31, -85, 53, -29, -107, -58, -34, -14, -14, 
-87, 14, 102, 36, -95, 58, -24, -112, -58, -39, -19, -19, 
-87, 9, 97, 39, -92, 53, -19, -112, -63, -43, -19, -29, 
-87, 0, 87, 43, -87, 43, -19, -117, -68, -53, -24, -34, 
-87, 0, 87, 43, -87, 43, -29, -122, -73, -53, -34, -34, 
-92, 4, 97, 43, -95, 51, -43, -126, -78, -53, -34, -34, 
-87, 14, 102, 36, -95, 58, -63, -126, -78, -53, -29, -34, 
-82, 19, 102, 31, -92, 61, -87, -126, -82, -53, -29, -34, 
-68, 24, 92, 21, -80, 58, -92, -122, -92, -58, -34, -34, 
-58, 29, 87, 14, -73, 58, -102, -126, -102, -63, -39, -34, 
-58, 19, 78, 19, -68, 48, -102, -126, -102, -73, -43, -39, 
-58, 19, 78, 19, -68, 48, -112, -126, -107, -78, -58, -48, 
-58, 4, 63, 26, -61, 34, -107, -122, -117, -82, -68, -58, 
-58, -9, 48, 34, -53, 19, -97, -122, -122, -87, -73, -68, 
-53, -9, 43, 31, -48, 17, -92, -122, -122, -87, -73, -73, 
-53, -14, 39, 34, -46, 12, -87, -126, -122, -87, -73, -78, 
-58, -14, 43, 36, -51, 14, -87, -126, -117, -82, -78, -78, 
-63, -14, 48, 39, -56, 17, -82, -126, -112, -82, -82, -78, 
-68, -9, 58, 39, -63, 24, -73, -117, -107, -82, -78, -68, 
-73, -9, 63, 41, -68, 26, -63, -112, -102, -78, -73, -63, 
-73, 0, 73, 36, -73, 36, -53, -107, -97, -73, -68, -63, 
-73, 14, 87, 29, -80, 51, -43, -107, -92, -68, -63, -63, 
-68, 4, 73, 31, -70, 39, -34, -78, -58, -58, -63, -73, 
-63, 0, 63, 31, -63, 31, -24, -39, -24, -53, -73, -87, 
-58, -24, 34, 41, -46, 4, 14, 19, 34, -14, -87, -117, 
-73, -53, 19, 63, -46, -17, 102, 156, 214, 63, -102, -170, 
-53, -9, 43, 31, -48, 17, 107, 244, 361, 185, -14, -146, 
19, 122, 102, -70, -41, 112, 48, 366, 478, 390, 175, -43, 
92, 292, 200, -192, -53, 246, -24, 414, 585, 629, 414, 122, 
107, 478, 370, -292, -131, 424, -107, 326, 683, 824, 644, 322, 
92, 717, 624, -405, -265, 671, -244, 53, 688, 1049, 936, 566, 
19, 936, 917, -478, -448, 927, -380, -356, 575, 1259, 1249, 814, 
9, 1171, 1161, -590, -575, 1166, -478, -653, 458, 1468, 1571, 1068, 
92, 1385, 1293, -739, -600, 1339, -536, -697, 292, 1600, 1844, 1317, 
9, 1449, 1439, -729, -714, 1444, -473, -834, 73, 1546, 1888, 1371, 
-336, 1317, 1654, -490, -995, 1485, -248, -1244, -156, 1185, 1527, 1166, 
-712, 854, 1566, -70, -1139, 1210, -14, -1722, -653, 429, 775, 727, 
-995, 185, 1180, 405, -1088, 683, 170, -1908, -1317, -595, -170, 156, 
-1039, -307, 732, 673, -885, 212, 214, -1786, -1683, -1205, -722, -219, 
-897, -351, 546, 624, -722, 97, 102, -1517, -1551, -1141, -746, -297, 
-702, -273, 429, 488, -566, 78, -39, -1249, -1342, -980, -673, -307, 
-483, -297, 185, 390, -334, -56, -87, -932, -1102, -893, -663, -336, 
-322, -326, -4, 324, -158, -165, -92, -610, -839, -771, -619, -356, 
-185, -239, -53, 212, -65, -146, -107, -366, -566, -546, -468, -307, 
-82, -102, -19, 92, -31, -61, -107, -263, -361, -341, -312, -214, 
-73, 4, 78, 34, -75, 41, -141, -234, -224, -219, -200, -126, 
-39, 43, 82, -2, -61, 63, -161, -175, -146, -175, -161, -92, 
-29, 34, 63, -2, -46, 48, -165, -156, -131, -151, -151, -92, 
-29, 19, 48, 4, -39, 34, -156, -156, -117, -141, -146, -97, 
-19, 19, 39, 0, -29, 29, -146, -141, -117, -151, -151, -92, 
-24, 24, 48, 0, -36, 36, -156, -141, -131, -165, -151, -102, 
-24, 19, 43, 2, -34, 31, -156, -141, -122, -161, -156, -107, 
-29, 9, 39, 9, -34, 24, -156, -141, -131, -161, -161, -117, 
-29, 0, 29, 14, -29, 14, -151, -141, -136, -165, -165, -122, 
-29, -4, 24, 17, -26, 9, -151, -141, -136, -165, -165, -122, 
-29, -9, 19, 19, -24, 4, -151, -141, -136, -161, -165, -122, 
-29, -9, 19, 19, -24, 4, -146, -136, -136, -161, -165, -122, 
-24, 0, 24, 12, -24, 12, -146, -126, -136, -161, -165, -122, 
-24, 4, 29, 9, -26, 17, -141, -126, -126, -156, -165, -122, 
-19, 0, 19, 9, -19, 9, -136, -112, -112, -151, -161, -117, 
-19, 19, 39, 0, -29, 29, -136, -107, -97, -136, -141, -102, 
-4, 43, 48, -19, -26, 46, -136, -87, -78, -112, -117, -82, 
0, 63, 63, -31, -31, 63, -131, -78, -73, -107, -117, -82, 
4, 78, 73, -41, -34, 75, -126, -68, -73, -102, -117, -73, 
4, 73, 68, -39, -31, 70, -122, -63, -68, -102, -117, -73, 
14, 53, 39, -34, -12, 46, -117, -53, -63, -102, -112, -73, 
19, 53, 34, -36, -7, 43, -107, -48, -58, -102, -107, -73, 
19, 53, 34, -36, -7, 43, -92, -43, -53, -102, -112, -68, 
9, 58, 48, -34, -19, 53, -73, -39, -53, -97, -112, -73, 
9, 63, 53, -36, -21, 58, -58, -24, -43, -97, -112, -73, 
9, 73, 63, -41, -26, 68, -58, -24, -34, -97, -112, -68, 
4, 87, 82, -46, -39, 85, -53, -24, -19, -92, -112, -63, 
-9, 87, 97, -39, -53, 92, -48, -39, -14, -87, -107, -63, 
-19, 102, 122, -41, -70, 112, -48, -53, -4, -82, -102, -63, 
-19, 107, 126, -43, -73, 117, -63, -58, -4, -82, -102, -63, 
-19, 117, 136, -48, -78, 126, -73, -63, 4, -78, -102, -63, 
-19, 131, 151, -56, -85, 141, -102, -73, 4, -78, -102, -58, 
-19, 146, 165, -63, -92, 156, -136, -73, 0, -68, -97, -58, 
-4, 151, 156, -73, -80, 153, -165, -68, 4, -63, -97, -58, 
4, 165, 161, -85, -78, 163, -170, -63, 19, -53, -92, -53, 
9, 170, 161, -90, -75, 165, -170, -58, 19, -48, -92, -53, 
14, 190, 175, -102, -80, 183, -170, -43, 24, -48, -87, -48, 
24, 180, 156, -102, -65, 168, -165, -29, 39, -53, -97, -53, 
29, 180, 151, -104, -61, 165, -165, -14, 48, -58, -102, -53, 
34, 170, 136, -102, -51, 153, -161, -9, 48, -73, -112, -63, 
34, 161, 126, -97, -46, 143, -151, 0, 48, -78, -122, -73, 
29, 156, 126, -92, -48, 141, -146, 0, 39, -92, -146, -92, 
34, 146, 112, -90, -39, 129, -146, 0, 34, -107, -165, -107, 
34, 131, 97, -82, -31, 114, -131, 4, 34, -117, -180, -122, 
34, 102, 68, -68, -17, 85, -126, 14, 29, -131, -195, -131, 
34, 92, 58, -63, -12, 75, -126, 34, 39, -131, -204, -146, 
34, 73, 39, -53, -2, 56, -122, 58, 39, -141, -214, -161, 
34, 73, 39, -53, -2, 56, -112, 63, 39, -141, -229, -165, 
39, 73, 34, -56, 2, 53, -102, 82, 39, -141, -229, -170, 
48, 68, 19, -58, 14, 43, -97, 102, 39, -141, -229, -170, 
63, 58, -4, -61, 34, 26, -92, 131, 39, -141, -229, -175, 
63, 58, -4, -61, 34, 26, -82, 161, 43, -141, -234, -165, 
68, 63, -4, -65, 36, 29, -78, 185, 48, -141, -229, -170, 
82, 63, -19, -73, 51, 21, -68, 204, 48, -141, -234, -170, 
97, 63, -34, -80, 65, 14, -63, 224, 48, -136, -234, -175, 
102, 63, -39, -82, 70, 12, -63, 244, 48, -131, -224, -170, 
107, 68, -39, -87, 73, 14, -53, 263, 58, -117, -214, -165, 
107, 87, -19, -97, 63, 34, -53, 268, 78, -92, -190, -141, 
112, 112, 0, -112, 56, 56, -53, 268, 107, -58, -161, -117, 
97, 117, 19, -107, 39, 68, -53, 248, 117, -48, -141, -117, 
78, 126, 48, -102, 14, 87, -48, 229, 126, -34, -117, -102, 
73, 136, 63, -104, 4, 100, -48, 185, 117, -9, -97, -78, 
63, 156, 92, -109, -14, 124, -48, 156, 112, 9, -78, -63, 
48, 180, 131, -114, -41, 156, -68, 126, 107, 14, -63, -48, 
39, 200, 161, -119, -61, 180, -78, 102, 102, 24, -48, -34, 
34, 204, 170, -119, -68, 187, -97, 68, 87, 34, -29, -19, 
29, 204, 175, -117, -73, 190, -112, 48, 87, 34, -14, -9, 
14, 224, 209, -119, -97, 217, -117, 19, 68, 34, -4, 4, 
14, 239, 224, -126, -104, 231, -122, 4, 63, 53, 0, 9, 
4, 244, 239, -124, -117, 241, -122, -14, 53, 53, 9, 9, 
9, 244, 234, -126, -112, 239, -122, -24, 48, 53, 14, 14, 
-4, 244, 248, -119, -126, 246, -117, -39, 24, 43, 14, 9, 
-14, 248, 263, -117, -139, 256, -107, -43, 19, 34, 9, 14, 
-19, 234, 253, -107, -136, 244, -97, -48, 0, 29, 4, 4, 
-24, 224, 248, -100, -136, 236, -87, -58, -4, 24, 4, 4, 
-29, 229, 258, -100, -143, 244, -82, -82, -4, 19, 4, 0, 
-29, 224, 253, -97, -141, 239, -73, -82, -14, 9, 0, -4, 
-34, 224, 258, -95, -146, 241, -68, -87, -24, 4, -9, -9, 
-39, 219, 258, -90, -148, 239, -63, -92, -29, 0, -19, -19, 
-43, 204, 248, -80, -146, 226, -58, -97, -39, -19, -29, -29, 
-43, 190, 234, -73, -139, 212, -53, -92, -43, -29, -39, -39, 
-48, 175, 224, -63, -136, 200, -43, -97, -53, -34, -48, -43, 
-58, 161, 219, -51, -139, 190, -34, -97, -63, -43, -58, -48, 
-58, 146, 204, -43, -131, 175, -29, -97, -63, -48, -63, -58, 
-63, 141, 204, -39, -134, 173, -19, -92, -68, -53, -68, -63, 
-63, 141, 204, -39, -134, 173, -4, -82, -78, -63, -68, -63, 
-53, 136, 190, -41, -122, 163, -4, -68, -82, -63, -68, -68, 
-53, 146, 200, -46, -126, 173, -14, -68, -97, -53, -63, -58, 
-48, 151, 200, -51, -124, 175, -19, -68, -112, -53, -58, -48, 
-53, 156, 209, -51, -131, 183, -29, -78, -97, -68, -48, -43, 
-58, 151, 209, -46, -134, 180, -39, -87, -107, -68, -48, -39, 
-63, 151, 214, -43, -139, 183, -43, -97, -117, -68, -48, -39, 
-68, 141, 209, -36, -139, 175, -48, -112, -126, -73, -53, -39, 
-68, 136, 204, -34, -136, 170, -63, -131, -156, -82, -63, -34, 
-73, 136, 209, -31, -141, 173, -78, -141, -161, -87, -63, -39, 
-73, 146, 219, -36, -146, 183, -92, -146, -161, -87, -68, -43, 
-73, 146, 219, -36, -146, 183, -102, -151, -161, -87, -68, -39, 
-68, 156, 224, -43, -146, 190, -107, -151, -151, -87, -63, -34, 
-63, 165, 229, -51, -146, 197, -107, -151, -141, -82, -58, -29, 
-58, 165, 224, -53, -141, 195, -117, -151, -136, -78, -53, -24, 
-53, 180, 234, -63, -143, 207, -117, -136, -131, -73, -53, -24, 
-48, 175, 224, -63, -136, 200, -122, -136, -136, -78, -48, -29, 
-43, 170, 214, -63, -129, 192, -122, -136, -141, -78, -48, -29, 
-39, 180, 219, -70, -129, 200, -122, -131, -141, -78, -48, -29, 
-34, 185, 219, -75, -126, 202, -122, -126, -141, -73, -53, -19, 
-34, 195, 229, -80, -131, 212, -107, -117, -131, -73, -53, -29, 
-34, 180, 214, -73, -124, 197, -102, -107, -122, -68, -53, -29, 
-34, 161, 195, -63, -114, 178, -97, -102, -122, -68, -53, -24, 
-34, 170, 204, -68, -119, 187, -82, -97, -122, -68, -53, -19, 
-34, 185, 219, -75, -126, 202, -78, -97, -117, -63, -53, -19, 
-34, 180, 214, -73, -124, 197, -73, -87, -112, -58, -48, -19, 
-34, 175, 209, -70, -122, 192, -63, -87, -107, -58, -48, -19, 
-34, 190, 224, -78, -129, 207, -53, -82, -107, -53, -48, -19, 
-39, 180, 219, -70, -129, 200, -48, -87, -107, -58, -48, -24, 
-29, 175, 204, -73, -117, 190, -48, -82, -102, -58, -43, -24, 
-34, 170, 204, -68, -119, 187, -43, -82, -102, -63, -53, -29, 
-39, 165, 204, -63, -122, 185, -39, -82, -102, -68, -63, -34, 
-43, 151, 195, -53, -119, 173, -34, -82, -126, -73, -68, -34, 
-48, 151, 200, -51, -124, 175, -29, -78, -122, -73, -68, -34, 
-43, 151, 195, -53, -119, 173, -19, -78, -112, -73, -68, -39, 
-39, 151, 190, -56, -114, 170, -14, -73, -102, -68, -58, -34, 
-39, 156, 195, -58, -117, 175, -9, -78, -87, -53, -53, -29, 
-39, 165, 204, -63, -122, 185, -9, -73, -78, -53, -53, -24, 
-43, 161, 204, -58, -124, 183, -9, -87, -78, -53, -58, -29, 
-48, 161, 209, -56, -129, 185, -14, -102, -82, -63, -58, -34, 
-68, 112, 180, -21, -124, 146, -19, -131, -117, -92, -97, -63, 
-87, 82, 170, 2, -129, 126, -14, -146, -146, -122, -126, -87, 
-92, 68, 161, 12, -126, 114, -24, -151, -165, -131, -131, -92, 
-97, 48, 146, 24, -122, 97, -34, -156, -185, -141, -136, -97, 
-97, 63, 161, 17, -129, 112, -63, -170, -190, -151, -131, -92, 
-92, 63, 156, 14, -124, 109, -97, -170, -185, -136, -117, -82, 
-82, 73, 156, 4, -119, 114, -102, -165, -185, -126, -107, -73, 
-73, 87, 161, -7, -117, 124, -107, -161, -180, -122, -97, -63, 
-68, 117, 185, -24, -126, 151, -122, -161, -170, -112, -112, -58, 
-58, 136, 195, -39, -126, 165, -126, -156, -156, -102, -92, -43, 
-58, 126, 185, -34, -122, 156, -126, -151, -151, -92, -78, -39, 
-53, 131, 185, -39, -119, 158, -126, -146, -141, -82, -73, -29, 
-53, 141, 195, -43, -124, 168, -122, -136, -131, -78, -68, -24, 
-48, 151, 200, -51, -124, 175, -117, -131, -122, -73, -63, -19, 
-43, 141, 185, -48, -114, 163, -112, -126, -122, -68, -58, -24, 
-39, 141, 180, -51, -109, 161, -107, -126, -122, -63, -53, -29, 
-34, 131, 165, -48, -100, 148, -107, -122, -122, -63, -63, -29, 
-29, 122, 151, -46, -90, 136, -112, -117, -122, -63, -73, -29, 
-29, 126, 156, -48, -92, 141, -112, -112, -122, -68, -78, -34, 
-24, 122, 146, -48, -85, 134, -107, -107, -117, -63, -68, -29, 
-24, 117, 141, -46, -82, 129, -107, -97, -117, -68, -63, -29, 
-24, 112, 136, -43, -80, 124, -102, -92, -122, -73, -68, -29, 
-24, 112, 136, -43, -80, 124, -92, -92, -117, -78, -73, -34, 
-29, 112, 141, -41, -85, 126, -87, -82, -122, -78, -73, -39, 
-29, 107, 136, -39, -82, 122, -73, -82, -122, -78, -73, -39, 
-24, 102, 126, -39, -75, 114, -63, -78, -112, -73, -68, -39, 
-29, 107, 136, -39, -82, 122, -58, -78, -102, -68, -68, -39, 
-29, 112, 141, -41, -85, 126, -48, -68, -82, -58, -58, -39, 
-29, 117, 146, -43, -87, 131, -43, -73, -78, -53, -53, -24, 
-29, 126, 156, -48, -92, 141, -39, -78, -78, -48, -48, -9, 
-29, 126, 156, -48, -92, 141, -39, -82, -73, -43, -48, -9, 
-29, 126, 156, -48, -92, 141, -39, -87, -68, -39, -48, -9, 
-29, 126, 156, -48, -92, 141, -43, -87, -63, -39, -43, -9, 
-29, 126, 156, -48, -92, 141, -48, -87, -58, -39, -39, -9, 
-24, 126, 151, -51, -87, 139, -53, -87, -58, -34, -39, -9, 
-19, 126, 146, -53, -82, 136, -58, -87, -58, -29, -39, -9, 
-14, 126, 141, -56, -78, 134, -63, -87, -58, -29, -39, -9, 
-9, 126, 136, -58, -73, 131, -68, -87, -58, -29, -39, -9, 
-4, 126, 131, -61, -68, 129, -78, -87, -58, -29, -34, -9, 
0, 126, 126, -63, -63, 126, -87, -87, -58, -29, -29, -9, 
4, 126, 122, -65, -58, 124, -92, -82, -58, -24, -24, -4, 
9, 126, 117, -68, -53, 122, -97, -78, -58, -19, -19, 0, 
14, 126, 112, -70, -48, 119, -107, -68, -58, -19, -19, 0, 
19, 126, 107, -73, -43, 117, -117, -58, -58, -19, -19, 0, 
19, 122, 102, -70, -41, 112, -117, -58, -58, -19, -19, -4, 
19, 117, 97, -68, -39, 107, -117, -58, -58, -19, -19, -9, 
4, 102, 97, -53, -46, 100, -112, -58, -63, -29, -29, -24, 
-9, 87, 97, -39, -53, 92, -107, -58, -68, -39, -39, -39, 
-14, 73, 87, -29, -51, 80, -97, -58, -73, -43, -48, -43, 
-19, 58, 78, -19, -48, 68, -87, -58, -78, -48, -58, -48, 
-19, 53, 73, -17, -46, 63, -82, -53, -78, -48, -58, -53, 
-19, 48, 68, -14, -43, 58, -78, -48, -78, -48, -58, -58, 
-19, 43, 63, -12, -41, 53, -68, -48, -78, -53, -58, -58, 
-19, 39, 58, -9, -39, 48, -58, -48, -78, -58, -58, -58, 
-24, 34, 58, -4, -41, 46, -53, -48, -73, -58, -58, -58, 
-24, 34, 58, -4, -41, 46, -48, -48, -68, -53, -53, -58, 
-29, 34, 63, -2, -46, 48, -48, -48, -63, -53, -53, -58, 
-29, 34, 63, -2, -46, 48, -48, -53, -68, -48, -48, -58, 
-24, 53, 78, -14, -51, 65, -53, -53, -63, -39, -43, -48, 
-19, 73, 92, -26, -56, 82, -53, -48, -53, -24, -39, -39, 
-19, 73, 92, -26, -56, 82, -58, -48, -48, -24, -29, -39, 
-19, 73, 92, -26, -56, 82, -63, -58, -43, -24, -24, -39, 
-24, 68, 92, -21, -58, 80, -63, -63, -48, -24, -24, -34, 
-29, 58, 87, -14, -58, 73, -53, -68, -48, -24, -24, -34, 
-29, 53, 82, -12, -56, 68, -53, -68, -43, -19, -24, -34, 
-29, 53, 82, -12, -56, 68, -48, -68, -39, -14, -24, -34, 
-29, 48, 78, -9, -53, 63, -48, -63, -34, -19, -19, -34, 
-29, 53, 82, -12, -56, 68, -48, -63, -34, -19, -14, -39, 
-34, 43, 78, -4, -56, 61, -48, -63, -34, -14, -14, -39, 
-34, 39, 73, -2, -53, 56, -48, -58, -34, -14, -14, -43, 
-34, 34, 68, 0, -51, 51, -53, -58, -39, -19, -19, -43, 
-34, 29, 63, 2, -48, 46, -53, -58, -39, -19, -24, -39, 
-29, 24, 53, 2, -41, 39, -58, -58, -48, -24, -19, -39, 
-19, 14, 34, 2, -26, 24, -63, -58, -53, -29, -19, -29, 
-19, 14, 34, 2, -26, 24, -68, -53, -53, -29, -19, -29, 
-19, 14, 34, 2, -26, 24, -68, -48, -58, -24, -14, -34, 
-14, 4, 19, 4, -17, 12, -73, -43, -58, -19, -9, -34, 
-9, 0, 9, 4, -9, 4, -73, -39, -58, -14, -14, -34, 
-9, 4, 14, 2, -12, 9, -78, -39, -58, -9, -9, -29, 
-4, 9, 14, -2, -9, 12, -78, -39, -53, -4, 0, -24, 
0, 14, 14, -7, -7, 14, -78, -24, -43, 0, 0, -24, 
9, 19, 9, -14, 0, 14, -78, -9, -34, 4, 0, -24, 
19, 24, 4, -21, 7, 14, -73, -4, -29, 9, 4, -19, 
29, 19, -9, -24, 19, 4, -63, 9, -24, 9, 9, -14, 
34, 29, -4, -31, 19, 12, -63, 19, -9, 19, 9, -9, 
39, 39, 0, -39, 19, 19, -58, 34, 4, 29, 19, 0, 
39, 58, 19, -48, 9, 39, -48, 48, 29, 43, 39, 9, 
43, 82, 39, -63, 2, 61, -39, 63, 53, 58, 53, 19, 
34, 73, 39, -53, -2, 56, -29, 48, 53, 58, 53, 19, 
24, 68, 43, -46, -9, 56, -29, 39, 58, 63, 53, 19, 
14, 58, 43, -36, -14, 51, -29, 24, 53, 53, 43, 9, 
4, 48, 43, -26, -19, 46, -24, 14, 43, 43, 39, 4, 
-9, 24, 34, -7, -21, 29, -24, 4, 34, 34, 24, -9, 
-24, 4, 29, 9, -26, 17, -24, -4, 24, 19, 4, -24, 
-39, 14, 53, 12, -46, 34, -24, -24, 9, 9, 4, -34, 
-48, 0, 48, 24, -48, 24, -24, -39, -4, 0, 4, -43, 
-43, -9, 34, 26, -39, 12, -48, -58, -43, -19, -4, -34, 
-43, -53, -9, 48, -17, -31, -34, -29, -43, -34, -43, -73, 
-73, -146, -73, 109, 0, -109, 78, 107, 107, -39, -136, -195, 
-82, -190, -107, 136, 12, -148, 136, 200, 253, 14, -156, -253, 
-29, -141, -112, 85, 41, -126, 112, 336, 366, 175, -58, -224, 
58, -9, -68, -24, 63, -39, 43, 444, 483, 405, 141, -107, 
117, 175, 58, -146, 29, 117, -29, 483, 634, 610, 370, 68, 
146, 414, 268, -280, -61, 341, -161, 322, 688, 834, 649, 297, 
87, 639, 551, -363, -231, 595, -322, -78, 614, 1068, 951, 551, 
29, 878, 849, -453, -409, 863, -463, -502, 473, 1273, 1268, 814, 
112, 1161, 1049, -636, -468, 1105, -600, -649, 214, 1415, 1629, 1137, 
195, 1400, 1205, -797, -505, 1302, -683, -712, 9, 1586, 1976, 1405, 
39, 1532, 1493, -785, -727, 1512, -595, -1005, 0, 1664, 2054, 1493, 
-302, 1249, 1551, -473, -927, 1400, -405, -1532, -385, 1151, 1551, 1224, 
-717, 531, 1249, 92, -983, 890, -180, -1908, -1220, -73, 444, 590, 
-897, -107, 790, 502, -844, 341, -39, -1908, -1786, -1000, -400, 73, 
-824, -273, 551, 549, -688, 139, -78, -1678, -1751, -1137, -619, -102, 
-683, -244, 439, 463, -561, 97, -165, -1415, -1556, -1049, -624, -151, 
-502, -273, 229, 387, -366, -21, -170, -1078, -1322, -980, -624, -204, 
-331, -331, 0, 331, -165, -165, -131, -697, -1034, -868, -610, -278, 
-151, -287, -136, 219, -7, -212, -87, -375, -673, -610, -478, -268, 
-34, -200, -165, 117, 65, -183, -53, -214, -405, -380, -322, -200, 
-34, -102, -68, 68, 17, -85, -53, -122, -234, -239, -195, -126, 
0, -34, -34, 17, 17, -34, -53, -24, -117, -165, -141, -92, 
9, -34, -43, 12, 26, -39, -53, 0, -63, -117, -131, -87, 
14, -34, -48, 9, 31, -41, -48, 0, -29, -82, -112, -82, 
29, -9, -39, -9, 34, -24, -48, 0, -29, -82, -92, -68, 
29, 14, -14, -21, 21, 0, -63, -14, -29, -82, -78, -63, 
19, 19, 0, -19, 9, 9, -78, -34, -4, -68, -78, -58, 
4, 19, 14, -12, -4, 17, -92, -53, -4, -68, -73, -58, 
9, 19, 9, -14, 0, 14, -97, -63, -9, -68, -73, -53, 
9, 19, 9, -14, 0, 14, -102, -73, -19, -68, -78, -53, 
4, 19, 14, -12, -4, 17, -102, -78, -19, -63, -78, -53, 
0, 19, 19, -9, -9, 19, -97, -78, -19, -63, -78, -53, 
0, 29, 29, -14, -14, 29, -102, -73, -19, -63, -78, -53, 
-4, 29, 34, -12, -19, 31, -107, -78, -19, -63, -78, -58, 
-4, 19, 24, -7, -14, 21, -112, -68, -19, -68, -73, -58, 
-9, 29, 39, -9, -24, 34, -117, -73, -24, -73, -73, -58, 
0, 29, 29, -14, -14, 29, -117, -58, -24, -68, -78, -63, 
-4, 19, 24, -7, -14, 21, -112, -53, -24, -73, -87, -73, 
-4, 14, 19, -4, -12, 17, -107, -48, -29, -82, -97, -73, 
-4, 4, 9, 0, -7, 7, -102, -48, -29, -92, -107, -82, 
-4, -43, -39, 24, 17, -41, -87, -43, -34, -107, -122, -102, 
-9, -73, -63, 41, 26, -68, -78, -43, -39, -122, -141, -126, 
-14, -82, -68, 48, 26, -75, -68, -43, -48, -136, -161, -136, 
-29, -92, -63, 61, 17, -78, -58, -43, -63, -146, -170, -151, 
-29, -102, -73, 65, 21, -87, -58, -34, -58, -151, -175, -151, 
-29, -112, -82, 70, 26, -97, -58, -34, -63, -156, -180, -151, 
-24, -107, -82, 65, 29, -95, -58, -24, -58, -151, -180, -151, 
-19, -107, -87, 63, 34, -97, -53, -14, -58, -151, -180, -151, 
-4, -82, -78, 43, 36, -80, -48, 4, -34, -136, -170, -146, 
14, -73, -87, 29, 51, -80, -48, 29, -14, -122, -161, -141, 
34, -39, -73, 2, 53, -56, -39, 53, 14, -102, -146, -126, 
48, -4, -53, -21, 51, -29, -34, 73, 39, -87, -131, -107, 
53, 14, -39, -34, 46, -12, -14, 97, 53, -68, -117, -97, 
63, 29, -34, -46, 48, -2, -14, 122, 82, -53, -107, -87, 
63, 58, -4, -61, 34, 26, -14, 122, 112, -34, -87, -73, 
63, 82, 19, -73, 21, 51, -14, 117, 126, -19, -73, -63, 
58, 107, 48, -82, 4, 78, -19, 107, 141, -9, -63, -53, 
58, 112, 53, -85, 2, 82, -19, 92, 161, 0, -58, -48, 
48, 122, 73, -85, -12, 97, -34, 82, 170, 0, -53, -43, 
43, 126, 82, -85, -19, 104, -48, 68, 175, 4, -53, -43, 
43, 126, 82, -85, -19, 104, -48, 78, 185, 14, -53, -39, 
43, 141, 97, -92, -26, 119, -53, 78, 190, 9, -58, -39, 
53, 156, 102, -104, -24, 129, -58, 78, 200, 9, -58, -39, 
53, 170, 117, -112, -31, 143, -58, 92, 204, 14, -58, -43, 
53, 175, 122, -114, -34, 148, -68, 112, 204, 19, -53, -39, 
63, 170, 107, -117, -21, 139, -68, 131, 219, 24, -58, -43, 
68, 161, 92, -114, -12, 126, -63, 156, 229, 14, -63, -53, 
68, 161, 92, -114, -12, 126, -53, 165, 239, 14, -73, -58, 
78, 156, 78, -117, 0, 117, -43, 190, 244, 14, -73, -63, 
87, 156, 68, -122, 9, 112, -43, 209, 248, 14, -73, -63, 
107, 156, 48, -131, 29, 102, -48, 239, 258, 19, -68, -63, 
112, 161, 48, -136, 31, 104, -43, 258, 268, 24, -73, -58, 
122, 170, 48, -146, 36, 109, -48, 278, 283, 34, -63, -63, 
136, 175, 39, -156, 48, 107, -48, 302, 292, 39, -58, -53, 
146, 180, 34, -163, 56, 107, -48, 322, 297, 39, -58, -58, 
151, 185, 34, -168, 58, 109, -53, 336, 302, 39, -58, -58, 
156, 185, 29, -170, 63, 107, -43, 361, 312, 48, -58, -58, 
156, 185, 29, -170, 63, 107, -43, 375, 312, 48, -53, -53, 
165, 190, 24, -178, 70, 107, -39, 385, 322, 53, -48, -53, 
170, 190, 19, -180, 75, 104, -34, 395, 322, 58, -43, -58, 
170, 161, -9, -165, 90, 75, -24, 414, 312, 58, -39, -58, 
170, 136, -34, -153, 102, 51, -19, 405, 292, 53, -39, -58, 
165, 131, -34, -148, 100, 48, -9, 405, 287, 53, -43, -63, 
156, 112, -43, -134, 100, 34, -14, 390, 273, 48, -43, -63, 
146, 102, -43, -124, 95, 29, 0, 385, 258, 53, -34, -63, 
136, 87, -48, -112, 92, 19, 9, 370, 234, 53, -24, -58, 
126, 78, -48, -102, 87, 14, 4, 361, 224, 39, -14, -48, 
107, 87, -19, -97, 63, 34, 4, 331, 200, 34, -4, -39, 
102, 97, -4, -100, 53, 46, 4, 287, 185, 53, 0, -29, 
82, 107, 24, -95, 29, 65, 4, 248, 165, 53, 9, -19, 
68, 112, 43, -90, 12, 78, 0, 204, 156, 53, 19, -9, 
43, 117, 73, -80, -14, 95, -4, 141, 131, 43, 29, -4, 
34, 126, 92, -80, -29, 109, -9, 107, 122, 34, 34, 14, 
24, 136, 112, -80, -43, 124, -19, 73, 97, 34, 39, 24, 
14, 146, 131, -80, -58, 139, -34, 43, 82, 29, 43, 34, 
4, 161, 156, -82, -75, 158, -48, 14, 73, 29, 48, 34, 
4, 170, 165, -87, -80, 168, -63, 0, 58, 29, 48, 34, 
4, 180, 175, -92, -85, 178, -82, -19, 43, 29, 48, 39, 
0, 190, 190, -95, -95, 190, -87, -24, 34, 29, 48, 39, 
-4, 195, 200, -95, -102, 197, -92, -34, 24, 19, 48, 39, 
-4, 195, 200, -95, -102, 197, -92, -34, 19, 14, 48, 39, 
-4, 200, 204, -97, -104, 202, -92, -39, 14, 14, 48, 39, 
-9, 200, 209, -95, -109, 204, -92, -43, 9, 9, 48, 39, 
-9, 204, 214, -97, -112, 209, -92, -53, 9, 4, 48, 39, 
-19, 219, 239, -100, -129, 229, -82, -53, 9, 4, 43, 43, 
-24, 219, 244, -97, -134, 231, -78, -53, 0, -4, 39, 43, 
-14, 214, 229, -100, -122, 222, -92, -48, 4, -4, 39, 39, 
-14, 209, 224, -97, -119, 217, -92, -48, 0, -4, 34, 39, 
-9, 200, 209, -95, -109, 204, -87, -43, -24, -14, 29, 39, 
-9, 200, 209, -95, -109, 204, -87, -48, -19, -29, 29, 34, 
-9, 190, 200, -90, -104, 195, -82, -53, -29, -29, 24, 29, 
-9, 190, 200, -90, -104, 195, -82, -48, -39, -29, 24, 24, 
-9, 180, 190, -85, -100, 185, -78, -39, -39, -34, 19, 19, 
-9, 175, 185, -82, -97, 180, -78, -39, -53, -43, 9, 19, 
-9, 180, 190, -85, -100, 185, -78, -39, -53, -48, 4, 19, 
-4, 185, 190, -90, -97, 187, -78, -39, -53, -48, 0, 19, 
-4, 204, 209, -100, -107, 207, -82, -39, -53, -43, 0, 19, 
-4, 214, 219, -104, -112, 217, -87, -34, -53, -43, 0, 19, 
0, 200, 200, -100, -100, 200, -87, -29, -39, -43, 4, 24, 
4, 204, 200, -104, -97, 202, -87, -24, -24, -39, 14, 34, 
4, 219, 214, -112, -104, 217, -78, -9, -24, -34, 14, 34, 
4, 224, 219, -114, -107, 222, -73, -9, -29, -34, 19, 29, 
-4, 200, 204, -97, -104, 202, -63, -39, -48, -48, 9, 19, 
-14, 180, 195, -82, -104, 187, -63, -68, -63, -68, 0, 9, 
-29, 141, 170, -56, -100, 156, -63, -82, -107, -107, -43, -9, 
-43, 97, 141, -26, -92, 119, -63, -102, -151, -151, -82, -48, 
-53, 48, 102, 2, -78, 75, -68, -112, -165, -165, -102, -68, 
-63, 24, 87, 19, -75, 56, -63, -117, -180, -185, -122, -87, 
-78, 4, 82, 36, -80, 43, -53, -126, -195, -200, -136, -102, 
-92, -24, 68, 58, -80, 21, -48, -136, -204, -214, -151, -117, 
-92, -24, 68, 58, -80, 21, -48, -126, -200, -214, -146, -117, 
-92, -24, 68, 58, -80, 21, -48, -126, -195, -214, -146, -117, 
-82, 14, 97, 34, -90, 56, -58, -112, -180, -195, -136, -102, 
-73, 39, 112, 17, -92, 75, -68, -102, -165, -180, -126, -87, 
-53, 58, 112, -2, -82, 85, -68, -87, -156, -165, -107, -73, 
-48, 68, 117, -9, -82, 92, -68, -82, -151, -156, -92, -63, 
-43, 87, 131, -21, -87, 109, -68, -78, -141, -151, -87, -63, 
-43, 92, 136, -24, -90, 114, -63, -73, -141, -146, -87, -63, 
-48, 92, 141, -21, -95, 117, -53, -68, -131, -141, -87, -58, 
-48, 92, 141, -21, -95, 117, -39, -68, -131, -141, -87, -63, 
-48, 107, 156, -29, -102, 131, -34, -63, -122, -136, -78, -63, 
-48, 107, 156, -29, -102, 131, -29, -58, -112, -122, -73, -58, 
-43, 107, 151, -31, -97, 129, -24, -58, -112, -122, -73, -58, 
-43, 112, 156, -34, -100, 134, -24, -58, -112, -126, -73, -58, 
-39, 112, 151, -36, -95, 131, -19, -58, -107, -126, -73, -58, 
-39, 117, 156, -39, -97, 136, -19, -58, -107, -126, -78, -58, 
-39, 117, 156, -39, -97, 136, -19, -58, -107, -122, -78, -53, 
-39, 117, 156, -39, -97, 136, -19, -58, -107, -117, -78, -48, 
-39, 126, 165, -43, -102, 146, -19, -58, -102, -112, -73, -43, 
-39, 131, 170, -46, -104, 151, -19, -53, -102, -107, -68, -39, 
-39, 141, 180, -51, -109, 161, -24, -53, -107, -107, -63, -39, 
-39, 141, 180, -51, -109, 161, -29, -53, -107, -107, -58, -39, 
-34, 146, 180, -56, -107, 163, -24, -48, -102, -102, -58, -39, 
-29, 151, 180, -61, -104, 165, -24, -48, -102, -102, -58, -39, 
-19, 161, 180, -70, -100, 170, -29, -48, -97, -102, -58, -34, 
-9, 165, 175, -78, -92, 170, -34, -39, -97, -102, -53, -29, 
0, 175, 175, -87, -87, 175, -34, -19, -92, -87, -43, -24, 
9, 195, 185, -102, -87, 190, -43, 0, -82, -73, -34, -14, 
9, 204, 195, -107, -92, 200, -63, -19, -73, -68, -29, 0, 
9, 214, 204, -112, -97, 209, -87, -39, -63, -68, -24, 14, 
-4, 229, 234, -112, -119, 231, -92, -68, -63, -68, -24, 9, 
-24, 229, 253, -102, -139, 241, -97, -97, -63, -63, -24, 9, 
-29, 224, 253, -97, -141, 239, -97, -97, -68, -68, -24, 0, 
-34, 214, 248, -90, -141, 231, -97, -97, -73, -73, -24, -4, 
-34, 214, 248, -90, -141, 231, -92, -97, -68, -68, -24, -4, 
-34, 219, 253, -92, -143, 236, -92, -97, -68, -63, -19, -9, 
-29, 214, 244, -92, -136, 229, -87, -92, -63, -63, -24, 0, 
-29, 209, 239, -90, -134, 224, -82, -82, -58, -68, -29, 0, 
-24, 200, 224, -87, -124, 212, -78, -78, -58, -68, -29, -9, 
-19, 185, 204, -82, -112, 195, -78, -78, -58, -73, -34, -14, 
-19, 175, 195, -78, -107, 185, -68, -82, -63, -78, -48, -24, 
-24, 170, 195, -73, -109, 183, -63, -87, -68, -82, -53, -34, 
-43, 156, 200, -56, -122, 178, -48, -92, -73, -92, -63, -48, 
-63, 136, 200, -36, -131, 168, -39, -97, -82, -102, -78, -63, 
-68, 131, 200, -31, -134, 165, -24, -97, -87, -112, -87, -73, 
-78, 126, 204, -24, -141, 165, -14, -107, -92, -122, -97, -82, 
-82, 107, 190, -12, -136, 148, 0, -107, -92, -126, -97, -82, 
-87, 97, 185, -4, -136, 141, 4, -107, -97, -126, -107, -87, 
-87, 97, 185, -4, -136, 141, 4, -97, -92, -122, -107, -87, 
-87, 97, 185, -4, -136, 141, 9, -92, -82, -117, -102, -87, 
-78, 122, 200, -21, -139, 161, 19, -78, -58, -97, -82, -78, 
-73, 141, 214, -34, -143, 178, 29, -68, -34, -78, -63, -68, 
-73, 146, 219, -36, -146, 183, 29, -63, -24, -63, -53, -58, 
-73, 151, 224, -39, -148, 187, 34, -58, -14, -53, -43, -48, 
-73, 156, 229, -41, -151, 192, 34, -53, -14, -53, -39, -43, 
-73, 156, 229, -41, -151, 192, 34, -53, -14, -48, -34, -43, 
-68, 161, 229, -46, -148, 195, 34, -53, -14, -48, -39, -43, 
-63, 170, 234, -53, -148, 202, 34, -58, -14, -48, -43, -43, 
-58, 161, 219, -51, -139, 190, 24, -58, -14, -48, -43, -43, 
-53, 156, 209, -51, -131, 183, 14, -48, -14, -53, -53, -48, 
-43, 122, 165, -39, -104, 143, 29, 19, 24, -48, -82, -102, 
-53, 82, 136, -14, -95, 109, 92, 165, 185, -4, -112, -180, 
-24, 102, 126, -39, -75, 114, 97, 268, 351, 112, -58, -175, 
58, 209, 151, -134, -46, 180, 39, 405, 488, 312, 97, -92, 
146, 385, 239, -265, -46, 312, -43, 502, 624, 566, 341, 63, 
175, 575, 400, -375, -112, 488, -136, 463, 751, 775, 575, 253, 
170, 814, 644, -492, -236, 729, -297, 185, 775, 1010, 854, 492, 
107, 1034, 927, -570, -409, 980, -458, -229, 683, 1229, 1151, 736, 
48, 1268, 1220, -658, -585, 1244, -580, -590, 522, 1424, 1473, 990, 
82, 1483, 1400, -783, -658, 1442, -663, -697, 312, 1542, 1747, 1239, 
87, 1620, 1532, -854, -722, 1576, -663, -834, 117, 1610, 1927, 1395, 
-170, 1561, 1732, -695, -951, 1647, -502, -1244, -87, 1371, 1703, 1293, 
-585, 1093, 1678, -253, -1132, 1385, -268, -1786, -663, 556, 936, 858, 
-907, 419, 1327, 244, -1117, 873, -82, -2034, -1405, -527, -24, 292, 
-976, -107, 868, 541, -922, 380, 14, -1932, -1805, -1205, -629, -107, 
-858, -185, 673, 522, -766, 244, -43, -1683, -1708, -1210, -707, -209, 
-688, -102, 585, 395, -636, 241, -156, -1385, -1478, -1039, -629, -209, 
-492, -122, 370, 307, -431, 124, -175, -1039, -1220, -941, -614, -229, 
-312, -175, 136, 244, -224, -19, -131, -668, -917, -810, -575, -278, 
-156, -112, 43, 134, -100, -34, -97, -375, -605, -575, -429, -258, 
-63, -9, 53, 36, -58, 21, -68, -234, -390, -375, -292, -185, 
-63, 63, 126, 0, -95, 95, -73, -165, -244, -258, -200, -117, 
-34, 107, 141, -36, -87, 124, -78, -112, -151, -209, -161, -87, 
-29, 102, 131, -36, -80, 117, -68, -97, -122, -180, -151, -92, 
-24, 92, 117, -34, -70, 104, -53, -97, -112, -165, -141, -97, 
-9, 97, 107, -43, -58, 102, -39, -82, -117, -170, -141, -92, 
-19, 107, 126, -43, -73, 117, -43, -87, -126, -180, -141, -97, 
-24, 107, 131, -41, -78, 119, -39, -92, -112, -170, -146, -97, 
-39, 102, 141, -31, -90, 122, -39, -102, -112, -170, -146, -107, 
-48, 97, 146, -24, -97, 122, -34, -112, -107, -175, -146, -112, 
-58, 92, 151, -17, -104, 122, -24, -112, -107, -180, -151, -117, 
-68, 87, 156, -9, -112, 122, -14, -112, -107, -180, -156, -122, 
-68, 73, 141, -2, -104, 107, -4, -107, -102, -180, -156, -122, 
-63, 68, 131, -2, -97, 100, 0, -97, -97, -180, -156, -122, 
-68, 78, 146, -4, -107, 112, 4, -97, -87, -170, -156, -122, 
-68, 78, 146, -4, -107, 112, 9, -82, -73, -161, -151, -117, 
-68, 107, 175, -19, -122, 141, 9, -78, -53, -151, -136, -112, 
-53, 141, 195, -43, -124, 168, 9, -58, -29, -131, -117, -102, 
-39, 165, 204, -63, -122, 185, 4, -43, 0, -112, -107, -92, 
-24, 185, 209, -80, -117, 197, 0, -29, 24, -92, -97, -73, 
-19, 204, 224, -92, -122, 214, -9, -29, 34, -87, -87, -63, 
-4, 209, 214, -102, -109, 212, -19, -24, 43, -82, -73, -53, 
9, 219, 209, -114, -100, 214, -48, -24, 53, -73, -63, -48, 
19, 229, 209, -124, -95, 219, -73, -24, 63, -63, -63, -39, 
14, 239, 224, -126, -104, 231, -87, -43, 63, -58, -63, -39, 
19, 248, 229, -134, -104, 239, -107, -53, 73, -58, -63, -34, 
29, 248, 219, -139, -95, 234, -131, -58, 63, -63, -63, -34, 
34, 253, 219, -143, -92, 236, -151, -63, 58, -63, -63, -34, 
34, 239, 204, -136, -85, 222, -161, -63, 39, -68, -68, -34, 
39, 239, 200, -139, -80, 219, -175, -63, 24, -73, -73, -34, 
43, 224, 180, -134, -68, 202, -185, -58, -9, -87, -78, -43, 
48, 214, 165, -131, -58, 190, -190, -53, -34, -97, -82, -53, 
48, 204, 156, -126, -53, 180, -170, -53, -39, -112, -92, -53, 
48, 195, 146, -122, -48, 170, -156, -43, -48, -117, -97, -58, 
48, 180, 131, -114, -41, 156, -170, -34, -53, -122, -107, -63, 
43, 175, 131, -109, -43, 153, -161, -24, -48, -122, -112, -63, 
43, 165, 122, -104, -39, 143, -161, -19, -53, -122, -117, -73, 
43, 170, 126, -107, -41, 148, -161, -4, -53, -126, -117, -78, 
43, 156, 112, -100, -34, 134, -151, 4, -43, -131, -126, -82, 
39, 151, 112, -95, -36, 131, -146, 14, -39, -136, -131, -82, 
43, 146, 102, -95, -29, 124, -141, 19, -34, -141, -131, -87, 
43, 141, 97, -92, -26, 119, -131, 29, -29, -136, -131, -92, 
39, 146, 107, -92, -34, 126, -122, 39, -24, -136, -141, -97, 
43, 146, 102, -95, -29, 124, -117, 48, -14, -136, -146, -97, 
43, 161, 117, -102, -36, 139, -102, 63, 0, -131, -146, -102, 
43, 161, 117, -102, -36, 139, -97, 82, 9, -131, -146, -102, 
48, 161, 112, -104, -31, 136, -92, 102, 24, -126, -156, -112, 
53, 151, 97, -102, -21, 124, -82, 126, 29, -131, -165, -122, 
53, 151, 97, -102, -21, 124, -63, 136, 43, -131, -180, -126, 
58, 151, 92, -104, -17, 122, -43, 161, 58, -131, -180, -131, 
63, 146, 82, -104, -9, 114, -29, 185, 68, -136, -185, -136, 
73, 136, 63, -104, 4, 100, -14, 219, 78, -141, -190, -146, 
73, 131, 58, -102, 7, 95, 0, 239, 92, -141, -204, -146, 
78, 131, 53, -104, 12, 92, 9, 253, 107, -141, -209, -161, 
73, 126, 53, -100, 9, 90, 19, 263, 117, -146, -214, -165, 
68, 122, 53, -95, 7, 87, 24, 273, 126, -146, -214, -175, 
73, 117, 43, -95, 14, 80, 24, 287, 131, -141, -214, -175, 
78, 117, 39, -97, 19, 78, 34, 302, 146, -126, -214, -175, 
82, 136, 53, -109, 14, 95, 24, 317, 165, -107, -190, -156, 
92, 161, 68, -126, 12, 114, 14, 326, 195, -78, -161, -136, 
102, 170, 68, -136, 17, 119, 0, 326, 209, -63, -146, -131, 
107, 185, 78, -146, 14, 131, -9, 326, 224, -43, -126, -112, 
107, 200, 92, -153, 7, 146, -24, 287, 219, -19, -102, -82, 
102, 224, 122, -163, -9, 173, -39, 263, 219, 0, -78, -63, 
87, 239, 151, -163, -31, 195, -58, 229, 204, 4, -63, -48, 
78, 248, 170, -163, -46, 209, -68, 200, 190, 14, -48, -34, 
73, 248, 175, -161, -51, 212, -92, 165, 156, 14, -29, -19, 
68, 244, 175, -156, -53, 209, -112, 146, 136, 4, -14, -9, 
53, 253, 200, -153, -73, 226, -126, 107, 97, -4, -4, 0, 
53, 258, 204, -156, -75, 231, -141, 82, 73, 4, 0, 0, 
34, 258, 224, -146, -95, 241, -141, 63, 53, 4, 4, 0, 
29, 253, 224, -141, -97, 239, -141, 53, 39, 4, 4, 4, 
14, 248, 234, -131, -109, 241, -141, 24, 4, -4, 9, 4, 
4, 248, 244, -126, -119, 246, -136, 4, -9, -14, 9, 14, 
0, 248, 248, -124, -124, 248, -131, -4, -29, -14, 4, 9, 
-4, 253, 258, -124, -131, 256, -126, -19, -34, -14, 4, 14, 
-14, 258, 273, -122, -143, 265, -126, -43, -34, -14, 9, 14, 
-19, 253, 273, -117, -146, 263, -122, -43, -43, -19, 9, 14, 
-24, 253, 278, -114, -151, 265, -117, -48, -53, -19, 9, 19, 
-29, 248, 278, -109, -153, 263, -112, -53, -58, -19, 9, 19, 
-34, 244, 278, -104, -156, 261, -107, -63, -63, -29, 9, 19, 
-34, 239, 273, -102, -153, 256, -102, -63, -63, -29, 9, 19, 
-34, 244, 278, -104, -156, 261, -97, -68, -63, -24, 9, 19, 
-39, 248, 287, -104, -163, 268, -92, -68, -63, -24, 9, 19, 
-39, 263, 302, -112, -170, 283, -87, -68, -43, -14, 14, 24, 
-43, 287, 331, -122, -187, 309, -78, -63, -29, -4, 19, 34, 
-43, 297, 341, -126, -192, 319, -58, -43, -14, -4, 24, 39, 
-34, 302, 336, -134, -185, 319, -53, -19, 4, 4, 29, 39, 
-29, 312, 341, -141, -185, 326, -53, 0, 9, 24, 34, 43, 
