I, II, III, aVR, aVL, aVF, V1, V2, V3, V4, V5, V6, 
87, -195, -283, 53, 185, -239, -68, -126, -224, -351, -351, -146, 
87, -195, -283, 53, 185, -239, -68, -126, -224, -351, -351, -146, 
87, -195, -283, 53, 185, -239, -68, -126, -224, -351, -351, -146, 
87, -195, -283, 53, 185, -239, -68, -126, -224, -351, -351, -146, 
63, -170, -234, 53, 148, -202, -43, -92, -175, -302, -312, -122, 
39, -156, -195, 58, 117, -175, -19, -68, -126, -253, -273, -107, 
14, -141, -156, 63, 85, -148, 4, -43, -78, -204, -234, -92, 
-9, -126, -117, 68, 53, -122, 29, -19, -29, -156, -195, -78, 
-14, -136, -122, 75, 53, -129, 39, -9, -24, -151, -185, -68, 
-19, -136, -117, 78, 48, -126, 39, -9, -19, -146, -185, -68, 
-24, -136, -112, 80, 43, -124, 39, -9, -14, -141, -185, -68, 
-29, -136, -107, 82, 39, -122, 39, -9, -9, -136, -185, -68, 
-39, -146, -107, 92, 34, -126, 48, -4, -4, -126, -180, -58, 
-39, -146, -107, 92, 34, -126, 48, 0, 0, -126, -175, -58, 
-39, -146, -107, 92, 34, -126, 48, 4, 4, -126, -170, -58, 
-39, -146, -107, 92, 34, -126, 48, 9, 9, -126, -165, -58, 
-24, -136, -112, 80, 43, -124, 53, 19, 19, -112, -156, -48, 
-19, -126, -107, 73, 43, -117, 58, 19, 19, -107, -156, -48, 
-14, -117, -102, 65, 43, -109, 63, 19, 19, -102, -156, -48, 
-9, -107, -97, 58, 43, -102, 68, 19, 19, -97, -156, -48, 
-14, -112, -97, 63, 41, -104, 68, 19, 19, -97, -156, -58, 
-19, -117, -97, 68, 39, -107, 68, 19, 19, -97, -156, -58, 
-24, -122, -97, 73, 36, -109, 68, 19, 19, -97, -156, -58, 
-29, -126, -97, 78, 34, -112, 68, 19, 19, -97, -156, -58, 
-29, -126, -97, 78, 34, -112, 68, 19, 19, -97, -156, -58, 
-29, -126, -97, 78, 34, -112, 68, 19, 19, -97, -156, -58, 
-29, -126, -97, 78, 34, -112, 68, 19, 19, -97, -156, -58, 
-29, -126, -97, 78, 34, -112, 68, 19, 19, -97, -156, -58, 
-19, -136, -117, 78, 48, -126, 68, 29, 19, -97, -156, -58, 
-19, -136, -117, 78, 48, -126, 68, 29, 19, -97, -156, -58, 
-19, -136, -117, 78, 48, -126, 68, 29, 19, -97, -156, -58, 
-19, -136, -117, 78, 48, -126, 68, 29, 19, -97, -156, -58, 
-9, -131, -122, 70, 56, -126, 68, 29, 19, -107, -156, -68, 
-9, -126, -117, 68, 53, -122, 68, 29, 19, -107, -156, -68, 
-9, -122, -112, 65, 51, -117, 68, 29, 19, -107, -156, -68, 
-9, -117, -107, 63, 48, -112, 68, 29, 19, -107, -156, -68, 
0, -107, -107, 53, 53, -107, 78, 39, 29, -97, -156, -68, 
0, -107, -107, 53, 53, -107, 78, 39, 29, -97, -156, -68, 
0, -107, -107, 53, 53, -107, 78, 39, 29, -97, -156, -68, 
0, -107, -107, 53, 53, -107, 78, 39, 29, -97, -156, -68, 
-14, -122, -107, 68, 46, -114, 68, 29, 14, -112, -170, -82, 
-29, -136, -107, 82, 39, -122, 68, 29, 9, -117, -175, -87, 
-43, -151, -107, 97, 31, -129, 68, 29, 4, -122, -180, -92, 
-58, -165, -107, 112, 24, -136, 68, 29, 0, -126, -185, -97, 
-53, -161, -107, 107, 26, -134, 78, 39, 9, -126, -185, -97, 
-48, -156, -107, 102, 29, -131, 78, 39, 9, -126, -185, -97, 
-43, -151, -107, 97, 31, -129, 78, 39, 9, -126, -185, -97, 
-39, -146, -107, 92, 34, -126, 78, 39, 9, -126, -185, -97, 
-39, -156, -117, 97, 39, -136, 78, 48, 9, -136, -195, -107, 
-39, -156, -117, 97, 39, -136, 78, 48, 9, -136, -195, -107, 
-39, -156, -117, 97, 39, -136, 78, 48, 9, -136, -195, -107, 
-39, -156, -117, 97, 39, -136, 78, 48, 9, -136, -195, -107, 
-39, -156, -117, 97, 39, -136, 78, 48, 9, -146, -204, -117, 
-39, -156, -117, 97, 39, -136, 78, 48, 9, -146, -204, -117, 
-39, -156, -117, 97, 39, -136, 78, 48, 9, -146, -204, -117, 
-39, -156, -117, 97, 39, -136, 78, 48, 9, -146, -204, -117, 
-39, -156, -117, 97, 39, -136, 87, 48, 9, -156, -214, -126, 
-39, -156, -117, 97, 39, -136, 87, 48, 9, -156, -214, -126, 
-39, -156, -117, 97, 39, -136, 87, 48, 9, -156, -214, -126, 
-39, -156, -117, 97, 39, -136, 87, 48, 9, -156, -214, -126, 
-53, -165, -112, 109, 29, -139, 87, 48, 0, -165, -219, -131, 
-58, -175, -117, 117, 29, -146, 87, 48, 0, -165, -224, -136, 
-63, -185, -122, 124, 29, -153, 87, 48, 0, -165, -229, -141, 
-68, -195, -126, 131, 29, -161, 87, 48, 0, -165, -234, -146, 
-53, -180, -126, 117, 36, -153, 92, 53, 9, -156, -234, -136, 
-48, -175, -126, 112, 39, -151, 97, 58, 9, -156, -234, -136, 
-43, -170, -126, 107, 41, -148, 102, 63, 9, -156, -234, -136, 
-39, -165, -126, 102, 43, -146, 107, 68, 9, -156, -234, -136, 
-48, -175, -126, 112, 39, -151, 107, 68, 9, -165, -244, -146, 
-48, -175, -126, 112, 39, -151, 107, 68, 9, -165, -244, -146, 
-48, -175, -126, 112, 39, -151, 107, 68, 9, -165, -244, -146, 
-48, -175, -126, 112, 39, -151, 107, 68, 9, -165, -244, -146, 
-39, -175, -136, 107, 48, -156, 117, 78, 9, -165, -253, -156, 
-39, -175, -136, 107, 48, -156, 117, 78, 9, -165, -253, -156, 
-39, -175, -136, 107, 48, -156, 117, 78, 9, -165, -253, -156, 
-39, -175, -136, 107, 48, -156, 117, 78, 9, -165, -253, -156, 
-48, -175, -126, 112, 39, -151, 126, 78, 9, -175, -263, -161, 
-48, -175, -126, 112, 39, -151, 126, 78, 9, -175, -263, -165, 
-48, -175, -126, 112, 39, -151, 126, 78, 9, -175, -263, -170, 
-48, -175, -126, 112, 39, -151, 126, 78, 9, -175, -263, -175, 
-63, -185, -122, 124, 29, -153, 117, 78, 9, -180, -278, -190, 
-68, -195, -126, 131, 29, -161, 117, 78, 9, -185, -283, -195, 
-73, -204, -131, 139, 29, -168, 117, 78, 9, -190, -287, -200, 
-78, -214, -136, 146, 29, -175, 117, 78, 9, -195, -292, -204, 
-68, -204, -136, 136, 34, -170, 122, 82, 14, -185, -292, -204, 
-58, -195, -136, 126, 39, -165, 126, 87, 19, -185, -292, -204, 
-48, -185, -136, 117, 43, -161, 131, 92, 24, -185, -292, -204, 
-39, -175, -136, 107, 48, -156, 136, 97, 29, -185, -292, -204, 
-48, -185, -136, 117, 43, -161, 146, 107, 39, -195, -297, -214, 
-48, -185, -136, 117, 43, -161, 146, 107, 39, -195, -302, -214, 
-48, -185, -136, 117, 43, -161, 146, 107, 39, -195, -307, -214, 
-48, -185, -136, 117, 43, -161, 146, 107, 39, -195, -312, -214, 
-63, -200, -136, 131, 36, -168, 136, 97, 29, -200, -326, -224, 
-78, -214, -136, 146, 29, -175, 136, 97, 29, -204, -331, -234, 
-92, -229, -136, 161, 21, -183, 136, 97, 29, -209, -336, -244, 
-107, -244, -136, 175, 14, -190, 136, 97, 29, -214, -341, -253, 
-107, -234, -126, 170, 9, -180, 141, 107, 39, -214, -346, -263, 
-107, -234, -126, 170, 9, -180, 146, 107, 39, -214, -351, -263, 
-107, -234, -126, 170, 9, -180, 151, 107, 39, -214, -356, -263, 
-107, -234, -126, 170, 9, -180, 156, 107, 39, -214, -361, -263, 
-107, -244, -136, 175, 14, -190, 165, 117, 43, -224, -370, -273, 
-107, -244, -136, 175, 14, -190, 165, 117, 48, -224, -370, -273, 
-107, -244, -136, 175, 14, -190, 165, 117, 53, -224, -370, -273, 
-107, -244, -136, 175, 14, -190, 165, 117, 58, -224, -370, -273, 
-107, -234, -126, 170, 9, -180, 170, 131, 63, -214, -375, -278, 
-107, -234, -126, 170, 9, -180, 175, 136, 68, -214, -380, -283, 
-107, -234, -126, 170, 9, -180, 180, 141, 73, -214, -385, -287, 
-107, -234, -126, 170, 9, -180, 185, 146, 78, -214, -390, -292, 
-97, -234, -136, 165, 19, -185, 190, 156, 82, -214, -395, -297, 
-97, -234, -136, 165, 19, -185, 195, 156, 87, -214, -400, -302, 
-97, -234, -136, 165, 19, -185, 200, 156, 92, -214, -405, -307, 
-97, -234, -136, 165, 19, -185, 204, 156, 97, -214, -409, -312, 
-117, -244, -126, 180, 4, -185, 214, 165, 107, -224, -424, -322, 
-126, -253, -126, 190, 0, -190, 214, 165, 107, -224, -429, -331, 
-136, -263, -126, 200, -4, -195, 214, 165, 107, -224, -434, -341, 
-146, -273, -126, 209, -9, -200, 214, 165, 107, -224, -439, -351, 
-146, -263, -117, 204, -14, -190, 219, 175, 122, -214, -453, -366, 
-146, -263, -117, 204, -14, -190, 224, 175, 126, -214, -458, -370, 
-146, -263, -117, 204, -14, -190, 229, 175, 131, -214, -463, -375, 
-146, -263, -117, 204, -14, -190, 234, 175, 136, -214, -468, -380, 
-146, -258, -112, 202, -17, -185, 248, 190, 156, -204, -473, -395, 
-146, -253, -107, 200, -19, -180, 253, 195, 165, -204, -478, -400, 
-146, -248, -102, 197, -21, -175, 258, 200, 175, -204, -483, -405, 
-146, -244, -97, 195, -24, -170, 263, 204, 185, -204, -488, -409, 
-156, -248, -92, 202, -31, -170, 263, 204, 190, -195, -497, -429, 
-165, -253, -87, 209, -39, -170, 263, 204, 195, -195, -507, -439, 
-175, -258, -82, 217, -46, -170, 263, 204, 200, -195, -517, -448, 
-185, -263, -78, 224, -53, -170, 263, 204, 204, -195, -527, -458, 
-185, -258, -73, 222, -56, -165, 278, 209, 224, -190, -531, -463, 
-185, -253, -68, 219, -58, -161, 283, 214, 234, -185, -536, -468, 
-185, -248, -63, 217, -61, -156, 287, 219, 244, -180, -541, -473, 
-185, -244, -58, 214, -63, -151, 292, 224, 253, -175, -546, -478, 
-209, -253, -43, 231, -82, -148, 283, 219, 258, -165, -561, -488, 
-224, -263, -39, 244, -92, -151, 283, 214, 263, -165, -566, -497, 
-239, -273, -34, 256, -102, -153, 283, 209, 268, -165, -570, -507, 
-253, -283, -29, 268, -112, -156, 283, 204, 273, -165, -575, -517, 
-244, -258, -14, 251, -114, -136, 292, 214, 287, -146, -566, -512, 
-234, -244, -9, 239, -112, -126, 292, 214, 302, -136, -556, -507, 
-224, -229, -4, 226, -109, -117, 292, 214, 317, -126, -546, -502, 
-214, -214, 0, 214, -107, -107, 292, 214, 331, -117, -536, -497, 
-219, -209, 9, 214, -114, -100, 283, 204, 336, -97, -522, -488, 
-224, -204, 19, 214, -122, -92, 283, 204, 341, -87, -517, -488, 
-229, -200, 29, 214, -129, -85, 283, 204, 346, -78, -512, -488, 
-234, -195, 39, 214, -136, -78, 283, 204, 351, -68, -507, -488, 
-224, -180, 43, 202, -134, -68, 278, 195, 356, -48, -492, -478, 
-224, -175, 48, 200, -136, -63, 273, 195, 361, -39, -478, -468, 
-224, -170, 53, 197, -139, -58, 268, 195, 366, -29, -463, -458, 
-224, -165, 58, 195, -141, -53, 263, 195, 370, -19, -448, -448, 
-214, -151, 63, 183, -139, -43, 248, 180, 370, 0, -424, -429, 
-214, -146, 68, 180, -141, -39, 244, 175, 370, 9, -409, -419, 
-214, -141, 73, 178, -143, -34, 239, 170, 370, 19, -395, -409, 
-214, -136, 78, 175, -146, -29, 234, 165, 370, 29, -380, -400, 
-204, -117, 87, 161, -146, -14, 224, 151, 370, 48, -351, -380, 
-195, -107, 87, 151, -141, -9, 214, 146, 370, 58, -331, -361, 
-185, -97, 87, 141, -136, -4, 204, 141, 370, 68, -312, -341, 
-175, -87, 87, 131, -131, 0, 195, 136, 370, 78, -292, -322, 
-156, -73, 82, 114, -119, 4, 185, 122, 356, 97, -258, -292, 
-146, -58, 87, 102, -117, 14, 175, 117, 351, 107, -234, -273, 
-136, -43, 92, 90, -114, 24, 165, 112, 346, 117, -209, -253, 
-126, -29, 97, 78, -112, 34, 156, 107, 341, 126, -185, -234, 
-112, -19, 92, 65, -102, 36, 141, 97, 326, 131, -161, -209, 
-107, -19, 87, 63, -97, 34, 126, 87, 312, 136, -136, -185, 
-102, -19, 82, 61, -92, 31, 112, 78, 297, 141, -112, -161, 
-97, -19, 78, 58, -87, 29, 97, 68, 283, 146, -87, -136, 
-82, -19, 63, 51, -73, 21, 78, 53, 268, 136, -63, -117, 
-78, -19, 58, 48, -68, 19, 68, 48, 253, 136, -48, -97, 
-73, -19, 53, 46, -63, 17, 58, 43, 239, 136, -34, -78, 
-68, -19, 48, 43, -58, 14, 48, 39, 224, 136, -19, -58, 
-43, -9, 34, 26, -39, 12, 43, 24, 204, 136, -4, -34, 
-29, 0, 29, 14, -29, 14, 39, 19, 195, 136, 9, -19, 
-14, 9, 24, 2, -19, 17, 34, 14, 185, 136, 24, -4, 
0, 19, 19, -9, -9, 19, 29, 9, 175, 136, 39, 9, 
4, 9, 4, -7, 0, 7, 24, 0, 165, 131, 53, 19, 
9, 9, 0, -9, 4, 4, 19, 0, 156, 126, 58, 29, 
14, 9, -4, -12, 9, 2, 14, 0, 146, 122, 63, 39, 
19, 9, -9, -14, 14, 0, 9, 0, 136, 117, 68, 48, 
29, 14, -14, -21, 21, 0, 0, 0, 131, 107, 73, 58, 
39, 19, -19, -29, 29, 0, 0, 0, 126, 107, 78, 68, 
48, 24, -24, -36, 36, 0, 0, 0, 122, 107, 82, 78, 
58, 29, -29, -43, 43, 0, 0, 0, 117, 107, 87, 87, 
48, 24, -24, -36, 36, 0, -9, -4, 102, 102, 97, 97, 
48, 19, -29, -34, 39, -4, -9, -9, 97, 97, 97, 97, 
48, 14, -34, -31, 41, -9, -9, -14, 92, 92, 97, 97, 
48, 9, -39, -29, 43, -14, -9, -19, 87, 87, 97, 97, 
24, -9, -34, -7, 29, -21, -24, -34, 78, 73, 82, 87, 
9, -29, -39, 9, 24, -34, -29, -39, 68, 68, 78, 87, 
-4, -48, -43, 26, 19, -46, -34, -43, 58, 63, 73, 87, 
-19, -68, -48, 43, 14, -58, -39, -48, 48, 58, 68, 87, 
0, -58, -58, 29, 29, -58, -29, -43, 58, 58, 73, 92, 
9, -48, -58, 19, 34, -53, -29, -39, 58, 58, 78, 97, 
19, -39, -58, 9, 39, -48, -29, -34, 58, 58, 82, 102, 
29, -29, -58, 0, 43, -43, -29, -29, 58, 58, 87, 107, 
34, -24, -58, -4, 46, -41, -19, -19, 58, 58, 97, 117, 
39, -19, -58, -9, 48, -39, -19, -19, 58, 58, 97, 117, 
43, -14, -58, -14, 51, -36, -19, -19, 58, 58, 97, 117, 
48, -9, -58, -19, 53, -34, -19, -19, 58, 58, 97, 117, 
48, -9, -58, -19, 53, -34, -9, -19, 68, 58, 87, 107, 
48, -9, -58, -19, 53, -34, -9, -19, 68, 58, 87, 107, 
48, -9, -58, -19, 53, -34, -9, -19, 68, 58, 87, 107, 
48, -9, -58, -19, 53, -34, -9, -19, 68, 58, 87, 107, 
39, -14, -53, -12, 46, -34, -19, -29, 58, 48, 78, 97, 
39, -19, -58, -9, 48, -39, -19, -29, 58, 48, 78, 97, 
39, -24, -63, -7, 51, -43, -19, -29, 58, 48, 78, 97, 
39, -29, -68, -4, 53, -48, -19, -29, 58, 48, 78, 97, 
43, -24, -68, -9, 56, -46, -9, -19, 68, 58, 78, 107, 
48, -19, -68, -14, 58, -43, -9, -19, 68, 58, 78, 107, 
53, -14, -68, -19, 61, -41, -9, -19, 68, 58, 78, 107, 
58, -9, -68, -24, 63, -39, -9, -19, 68, 58, 78, 107, 
48, -19, -68, -14, 58, -43, -9, -19, 58, 48, 68, 102, 
48, -19, -68, -14, 58, -43, -9, -19, 58, 48, 68, 97, 
48, -19, -68, -14, 58, -43, -9, -19, 58, 48, 68, 92, 
48, -19, -68, -14, 58, -43, -9, -19, 58, 48, 68, 87, 
39, -24, -63, -7, 51, -43, -9, -29, 58, 48, 68, 97, 
39, -29, -68, -4, 53, -48, -9, -29, 58, 48, 68, 97, 
39, -34, -73, -2, 56, -53, -9, -29, 58, 48, 68, 97, 
39, -39, -78, 0, 58, -58, -9, -29, 58, 48, 68, 97, 
29, -39, -68, 4, 48, -53, -9, -19, 58, 48, 68, 87, 
29, -39, -68, 4, 48, -53, -9, -19, 58, 48, 68, 87, 
29, -39, -68, 4, 48, -53, -9, -19, 58, 48, 68, 87, 
29, -39, -68, 4, 48, -53, -9, -19, 58, 48, 68, 87, 
34, -24, -58, -4, 46, -41, 0, -19, 68, 58, 78, 87, 
39, -19, -58, -9, 48, -39, 0, -19, 68, 58, 78, 87, 
43, -14, -58, -14, 51, -36, 0, -19, 68, 58, 78, 87, 
48, -9, -58, -19, 53, -34, 0, -19, 68, 58, 78, 87, 
58, -9, -68, -24, 63, -39, 0, -9, 78, 68, 78, 97, 
58, -9, -68, -24, 63, -39, 0, -9, 78, 68, 78, 97, 
58, -9, -68, -24, 63, -39, 0, -9, 78, 68, 78, 97, 
58, -9, -68, -24, 63, -39, 0, -9, 78, 68, 78, 97, 
48, -19, -68, -14, 58, -43, 0, -19, 68, 58, 78, 87, 
39, -29, -68, -4, 53, -48, 0, -19, 68, 58, 78, 87, 
29, -39, -68, 4, 48, -53, 0, -19, 68, 58, 78, 87, 
19, -48, -68, 14, 43, -58, 0, -19, 68, 58, 78, 87, 
19, -48, -68, 14, 43, -58, 0, -19, 78, 58, 68, 87, 
19, -48, -68, 14, 43, -58, 0, -19, 78, 58, 68, 87, 
19, -48, -68, 14, 43, -58, 0, -19, 78, 58, 68, 87, 
19, -48, -68, 14, 43, -58, 0, -19, 78, 58, 68, 87, 
29, -43, -73, 7, 51, -58, 0, -9, 87, 68, 73, 97, 
29, -39, -68, 4, 48, -53, 0, -9, 87, 68, 78, 97, 
29, -34, -63, 2, 46, -48, 0, -9, 87, 68, 82, 97, 
29, -29, -58, 0, 43, -43, 0, -9, 87, 68, 87, 97, 
29, -39, -68, 4, 48, -53, 9, -9, 87, 68, 78, 87, 
29, -39, -68, 4, 48, -53, 9, -9, 87, 68, 78, 87, 
29, -39, -68, 4, 48, -53, 9, -9, 87, 68, 78, 87, 
29, -39, -68, 4, 48, -53, 9, -9, 87, 68, 78, 87, 
24, -48, -73, 12, 48, -61, 0, -9, 87, 68, 68, 78, 
19, -48, -68, 14, 43, -58, 0, -9, 87, 68, 68, 78, 
14, -48, -63, 17, 39, -56, 0, -9, 87, 68, 68, 78, 
9, -48, -58, 19, 34, -53, 0, -9, 87, 68, 68, 78, 
19, -39, -58, 9, 39, -48, 0, -9, 97, 78, 73, 82, 
19, -39, -58, 9, 39, -48, 0, -9, 97, 78, 78, 87, 
19, -39, -58, 9, 39, -48, 0, -9, 97, 78, 82, 92, 
19, -39, -58, 9, 39, -48, 0, -9, 97, 78, 87, 97, 
9, -48, -58, 19, 34, -53, 9, -9, 87, 78, 87, 87, 
9, -48, -58, 19, 34, -53, 9, -9, 87, 78, 87, 87, 
9, -48, -58, 19, 34, -53, 9, -9, 87, 78, 87, 87, 
9, -48, -58, 19, 34, -53, 9, -9, 87, 78, 87, 87, 
14, -34, -48, 9, 31, -41, 9, 0, 97, 78, 87, 78, 
19, -29, -48, 4, 34, -39, 9, 0, 97, 78, 87, 78, 
24, -24, -48, 0, 36, -36, 9, 0, 97, 78, 87, 78, 
29, -19, -48, -4, 39, -34, 9, 0, 97, 78, 87, 78, 
39, -4, -43, -17, 41, -24, 19, 0, 107, 82, 92, 82, 
48, 0, -48, -24, 48, -24, 19, 0, 107, 87, 97, 87, 
58, 4, -53, -31, 56, -24, 19, 0, 107, 92, 102, 92, 
68, 9, -58, -39, 63, -24, 19, 0, 107, 97, 107, 97, 
43, -14, -58, -14, 51, -36, 14, -4, 102, 82, 102, 87, 
29, -29, -58, 0, 43, -43, 9, -9, 97, 78, 97, 87, 
14, -43, -58, 14, 36, -51, 4, -14, 92, 73, 92, 87, 
0, -58, -58, 29, 29, -58, 0, -19, 87, 68, 87, 87, 
0, -58, -58, 29, 29, -58, -9, -19, 78, 68, 78, 78, 
0, -58, -58, 29, 29, -58, -9, -19, 78, 68, 78, 78, 
0, -58, -58, 29, 29, -58, -9, -19, 78, 68, 78, 78, 
0, -58, -58, 29, 29, -58, -9, -19, 78, 68, 78, 78, 
9, -53, -63, 21, 36, -58, 0, -19, 78, 68, 78, 78, 
9, -48, -58, 19, 34, -53, 0, -19, 78, 68, 78, 78, 
9, -43, -53, 17, 31, -48, 0, -19, 78, 68, 78, 78, 
9, -39, -48, 14, 29, -43, 0, -19, 78, 68, 78, 78, 
9, -48, -58, 19, 34, -53, 0, -19, 78, 58, 78, 78, 
9, -48, -58, 19, 34, -53, 0, -19, 78, 58, 78, 78, 
9, -48, -58, 19, 34, -53, 0, -19, 78, 58, 78, 78, 
9, -48, -58, 19, 34, -53, 0, -19, 78, 58, 78, 78, 
29, -39, -68, 4, 48, -53, 9, -9, 87, 68, 87, 78, 
39, -29, -68, -4, 53, -48, 9, -9, 87, 68, 87, 78, 
48, -19, -68, -14, 58, -43, 9, -9, 87, 68, 87, 78, 
58, -9, -68, -24, 63, -39, 9, -9, 87, 68, 87, 78, 
43, -14, -58, -14, 51, -36, 0, -19, 82, 68, 87, 87, 
39, -19, -58, -9, 48, -39, 0, -19, 78, 68, 87, 87, 
34, -24, -58, -4, 46, -41, 0, -19, 73, 68, 87, 87, 
29, -29, -58, 0, 43, -43, 0, -19, 68, 68, 87, 87, 
29, -29, -58, 0, 43, -43, 0, -19, 78, 58, 87, 87, 
29, -29, -58, 0, 43, -43, 0, -19, 78, 58, 87, 87, 
29, -29, -58, 0, 43, -43, 0, -19, 78, 58, 87, 87, 
29, -29, -58, 0, 43, -43, 0, -19, 78, 58, 87, 87, 
43, -14, -58, -14, 51, -36, 9, -9, 78, 63, 92, 92, 
48, -9, -58, -19, 53, -34, 9, -9, 78, 68, 97, 97, 
53, -4, -58, -24, 56, -31, 9, -9, 78, 73, 102, 102, 
58, 0, -58, -29, 58, -29, 9, -9, 78, 78, 107, 107, 
43, -14, -58, -14, 51, -36, 4, -19, 73, 73, 102, 102, 
39, -19, -58, -9, 48, -39, 0, -19, 68, 68, 97, 97, 
34, -24, -58, -4, 46, -41, -4, -19, 63, 63, 92, 92, 
29, -29, -58, 0, 43, -43, -9, -19, 58, 58, 87, 87, 
19, -39, -58, 9, 39, -48, -9, -29, 58, 48, 78, 87, 
19, -39, -58, 9, 39, -48, -9, -29, 58, 48, 78, 87, 
19, -39, -58, 9, 39, -48, -9, -29, 58, 48, 78, 87, 
19, -39, -58, 9, 39, -48, -9, -29, 58, 48, 78, 87, 
29, -29, -58, 0, 43, -43, -9, -19, 58, 58, 82, 97, 
29, -29, -58, 0, 43, -43, -9, -19, 58, 58, 87, 97, 
29, -29, -58, 0, 43, -43, -9, -19, 58, 58, 92, 97, 
29, -29, -58, 0, 43, -43, -9, -19, 58, 58, 97, 97, 
34, -24, -58, -4, 46, -41, 0, -19, 58, 68, 107, 107, 
39, -19, -58, -9, 48, -39, 0, -19, 58, 68, 107, 107, 
43, -14, -58, -14, 51, -36, 0, -19, 58, 68, 107, 107, 
48, -9, -58, -19, 53, -34, 0, -19, 58, 68, 107, 107, 
58, -9, -68, -24, 63, -39, 0, -19, 58, 58, 97, 102, 
58, -9, -68, -24, 63, -39, 0, -19, 58, 58, 97, 97, 
58, -9, -68, -24, 63, -39, 0, -19, 58, 58, 97, 92, 
58, -9, -68, -24, 63, -39, 0, -19, 58, 58, 97, 87, 
43, -29, -73, -7, 58, -51, -4, -24, 53, 53, 87, 87, 
29, -39, -68, 4, 48, -53, -9, -29, 48, 48, 87, 87, 
14, -48, -63, 17, 39, -56, -14, -34, 43, 43, 87, 87, 
0, -58, -58, 29, 29, -58, -19, -39, 39, 39, 87, 87, 
14, -53, -68, 19, 41, -61, -9, -34, 48, 48, 97, 97, 
19, -48, -68, 14, 43, -58, -9, -29, 48, 48, 97, 97, 
24, -43, -68, 9, 46, -56, -9, -24, 48, 48, 97, 97, 
29, -39, -68, 4, 48, -53, -9, -19, 48, 48, 97, 97, 
34, -34, -68, 0, 51, -51, -9, -29, 48, 48, 87, 87, 
39, -29, -68, -4, 53, -48, -9, -29, 48, 48, 87, 87, 
43, -24, -68, -9, 56, -46, -9, -29, 48, 48, 87, 87, 
48, -19, -68, -14, 58, -43, -9, -29, 48, 48, 87, 87, 
39, -29, -68, -4, 53, -48, -9, -29, 39, 48, 87, 87, 
39, -29, -68, -4, 53, -48, -9, -29, 39, 48, 87, 87, 
39, -29, -68, -4, 53, -48, -9, -29, 39, 48, 87, 87, 
39, -29, -68, -4, 53, -48, -9, -29, 39, 48, 87, 87, 
29, -39, -68, 4, 48, -53, -9, -29, 39, 48, 97, 87, 
29, -39, -68, 4, 48, -53, -9, -29, 39, 48, 97, 87, 
29, -39, -68, 4, 48, -53, -9, -29, 39, 48, 97, 87, 
29, -39, -68, 4, 48, -53, -9, -29, 39, 48, 97, 87, 
29, -48, -78, 9, 53, -63, -9, -29, 39, 39, 87, 87, 
29, -48, -78, 9, 53, -63, -9, -29, 39, 39, 87, 87, 
29, -48, -78, 9, 53, -63, -9, -29, 39, 39, 87, 87, 
29, -48, -78, 9, 53, -63, -9, -29, 39, 39, 87, 87, 
34, -43, -78, 4, 56, -61, -9, -29, 39, 48, 97, 87, 
39, -39, -78, 0, 58, -58, -9, -29, 39, 48, 97, 87, 
43, -34, -78, -4, 61, -56, -9, -29, 39, 48, 97, 87, 
48, -29, -78, -9, 63, -53, -9, -29, 39, 48, 97, 87, 
39, -29, -68, -4, 53, -48, -9, -29, 39, 39, 87, 87, 
39, -29, -68, -4, 53, -48, -9, -29, 39, 39, 87, 87, 
39, -29, -68, -4, 53, -48, -9, -29, 39, 39, 87, 87, 
39, -29, -68, -4, 53, -48, -9, -29, 39, 39, 87, 87, 
29, -39, -68, 4, 48, -53, -9, -39, 29, 39, 87, 97, 
29, -39, -68, 4, 48, -53, -9, -39, 29, 39, 87, 97, 
29, -39, -68, 4, 48, -53, -9, -39, 29, 39, 87, 97, 
29, -39, -68, 4, 48, -53, -9, -39, 29, 39, 87, 97, 
34, -34, -68, 0, 51, -51, -9, -29, 39, 48, 97, 97, 
39, -29, -68, -4, 53, -48, -9, -29, 39, 48, 97, 97, 
43, -24, -68, -9, 56, -46, -9, -29, 39, 48, 97, 97, 
48, -19, -68, -14, 58, -43, -9, -29, 39, 48, 97, 97, 
48, -19, -68, -14, 58, -43, -9, -29, 29, 39, 97, 97, 
48, -19, -68, -14, 58, -43, -9, -29, 29, 39, 97, 97, 
48, -19, -68, -14, 58, -43, -9, -29, 29, 39, 97, 97, 
48, -19, -68, -14, 58, -43, -9, -29, 29, 39, 97, 97, 
48, -19, -68, -14, 58, -43, -9, -39, 29, 39, 97, 87, 
48, -19, -68, -14, 58, -43, -9, -39, 29, 39, 97, 87, 
48, -19, -68, -14, 58, -43, -9, -39, 29, 39, 97, 87, 
48, -19, -68, -14, 58, -43, -9, -39, 29, 39, 97, 87, 
58, -9, -68, -24, 63, -39, -9, -39, 29, 39, 97, 97, 
58, -9, -68, -24, 63, -39, -9, -39, 29, 39, 97, 97, 
58, -9, -68, -24, 63, -39, -9, -39, 29, 39, 97, 97, 
58, -9, -68, -24, 63, -39, -9, -39, 29, 39, 97, 97, 
68, -9, -78, -29, 73, -43, -9, -29, 39, 39, 97, 107, 
68, -9, -78, -29, 73, -43, -9, -29, 39, 39, 97, 107, 
68, -9, -78, -29, 73, -43, -9, -29, 39, 39, 97, 107, 
68, -9, -78, -29, 73, -43, -9, -29, 39, 39, 97, 107, 
53, -19, -73, -17, 63, -46, -14, -34, 34, 34, 92, 97, 
39, -29, -68, -4, 53, -48, -19, -39, 29, 29, 87, 87, 
24, -39, -63, 7, 43, -51, -24, -43, 24, 24, 82, 78, 
9, -48, -58, 19, 34, -53, -29, -48, 19, 19, 78, 68, 
24, -34, -58, 4, 41, -46, -19, -48, 19, 29, 87, 82, 
29, -29, -58, 0, 43, -43, -19, -48, 19, 29, 87, 87, 
34, -24, -58, -4, 46, -41, -19, -48, 19, 29, 87, 92, 
39, -19, -58, -9, 48, -39, -19, -48, 19, 29, 87, 97, 
29, -29, -58, 0, 43, -43, -19, -48, 19, 29, 97, 97, 
29, -29, -58, 0, 43, -43, -19, -48, 19, 29, 97, 97, 
29, -29, -58, 0, 43, -43, -19, -48, 19, 29, 97, 97, 
29, -29, -58, 0, 43, -43, -19, -48, 19, 29, 97, 97, 
29, -29, -58, 0, 43, -43, -19, -39, 19, 29, 97, 87, 
29, -29, -58, 0, 43, -43, -19, -39, 19, 29, 97, 87, 
29, -29, -58, 0, 43, -43, -19, -39, 19, 29, 97, 87, 
29, -29, -58, 0, 43, -43, -19, -39, 19, 29, 97, 87, 
34, -14, -48, -9, 41, -31, -9, -39, 19, 39, 97, 87, 
39, -9, -48, -14, 43, -29, -9, -39, 19, 39, 97, 87, 
43, -4, -48, -19, 46, -26, -9, -39, 19, 39, 97, 87, 
48, 0, -48, -24, 48, -24, -9, -39, 19, 39, 97, 87, 
39, -9, -48, -14, 43, -29, -9, -39, 19, 39, 97, 97, 
39, -9, -48, -14, 43, -29, -9, -39, 19, 39, 97, 97, 
39, -9, -48, -14, 43, -29, -9, -39, 19, 39, 97, 97, 
39, -9, -48, -14, 43, -29, -9, -39, 19, 39, 97, 97, 
48, -9, -58, -19, 53, -34, -9, -39, 29, 29, 97, 97, 
48, -9, -58, -19, 53, -34, -9, -39, 29, 29, 97, 97, 
48, -9, -58, -19, 53, -34, -9, -39, 29, 29, 97, 97, 
48, -9, -58, -19, 53, -34, -9, -39, 29, 29, 97, 97, 
48, 0, -48, -24, 48, -24, 0, -29, 29, 39, 107, 107, 
48, 0, -48, -24, 48, -24, 0, -29, 29, 39, 107, 107, 
48, 0, -48, -24, 48, -24, 0, -29, 29, 39, 107, 107, 
48, 0, -48, -24, 48, -24, 0, -29, 29, 39, 107, 107, 
43, -9, -53, -17, 48, -31, 0, -29, 39, 48, 107, 107, 
39, -9, -48, -14, 43, -29, 0, -29, 39, 48, 107, 107, 
34, -9, -43, -12, 39, -26, 0, -29, 39, 48, 107, 107, 
29, -9, -39, -9, 34, -24, 0, -29, 39, 48, 107, 107, 
43, 9, -34, -26, 39, -12, 4, -19, 58, 63, 122, 112, 
48, 29, -19, -39, 34, 4, 9, -19, 68, 68, 126, 117, 
53, 48, -4, -51, 29, 21, 14, -19, 78, 73, 131, 122, 
58, 68, 9, -63, 24, 39, 19, -19, 87, 78, 136, 126, 
68, 82, 14, -75, 26, 48, 29, -9, 97, 92, 151, 141, 
68, 87, 19, -78, 24, 53, 29, -9, 107, 97, 156, 146, 
68, 92, 24, -80, 21, 58, 29, -9, 117, 102, 161, 151, 
68, 97, 29, -82, 19, 63, 29, -9, 126, 107, 165, 156, 
53, 87, 34, -70, 9, 61, 29, 0, 141, 112, 165, 146, 
48, 78, 29, -63, 9, 53, 29, 0, 146, 117, 165, 146, 
43, 68, 24, -56, 9, 46, 29, 0, 151, 122, 165, 146, 
39, 58, 19, -48, 9, 39, 29, 0, 156, 126, 165, 146, 
58, 73, 14, -65, 21, 43, 34, 14, 170, 141, 170, 151, 
68, 78, 9, -73, 29, 43, 39, 19, 175, 146, 175, 156, 
78, 82, 4, -80, 36, 43, 43, 24, 180, 151, 180, 161, 
87, 87, 0, -87, 43, 43, 48, 29, 185, 156, 185, 165, 
87, 82, -4, -85, 46, 39, 43, 29, 195, 156, 190, 175, 
87, 78, -9, -82, 48, 34, 39, 29, 195, 156, 195, 175, 
87, 73, -14, -80, 51, 29, 34, 29, 195, 156, 200, 175, 
87, 68, -19, -78, 53, 24, 29, 29, 195, 156, 204, 175, 
87, 78, -9, -82, 48, 34, 19, 24, 180, 141, 190, 165, 
87, 78, -9, -82, 48, 34, 9, 19, 165, 136, 185, 165, 
87, 78, -9, -82, 48, 34, 0, 14, 151, 131, 180, 165, 
87, 78, -9, -82, 48, 34, -9, 9, 136, 126, 175, 165, 
78, 58, -19, -68, 48, 19, -19, -9, 112, 102, 161, 161, 
78, 48, -29, -63, 53, 9, -29, -19, 87, 87, 156, 156, 
78, 39, -39, -58, 58, 0, -39, -29, 63, 73, 151, 151, 
78, 29, -48, -53, 63, -9, -48, -39, 39, 58, 146, 146, 
63, 24, -39, -43, 51, -7, -58, -58, 24, 39, 136, 131, 
58, 19, -39, -39, 48, -9, -58, -68, 9, 29, 126, 126, 
53, 14, -39, -34, 46, -12, -58, -78, -4, 19, 117, 122, 
48, 9, -39, -29, 43, -14, -58, -87, -19, 9, 107, 117, 
58, 14, -43, -36, 51, -14, -53, -82, -14, 19, 107, 107, 
58, 19, -39, -39, 48, -9, -48, -78, -9, 19, 107, 107, 
58, 24, -34, -41, 46, -4, -43, -73, -4, 19, 107, 107, 
58, 29, -29, -43, 43, 0, -39, -68, 0, 19, 107, 107, 
48, 39, -9, -43, 29, 14, -29, -58, 0, 29, 117, 117, 
48, 39, -9, -43, 29, 14, -29, -58, 0, 29, 117, 117, 
48, 39, -9, -43, 29, 14, -29, -58, 0, 29, 117, 117, 
48, 39, -9, -43, 29, 14, -29, -58, 0, 29, 117, 117, 
48, 29, -19, -39, 34, 4, -39, -68, 0, 29, 117, 117, 
48, 29, -19, -39, 34, 4, -39, -68, 0, 29, 117, 117, 
48, 29, -19, -39, 34, 4, -39, -68, 0, 29, 117, 117, 
48, 29, -19, -39, 34, 4, -39, -68, 0, 29, 117, 117, 
48, 29, -19, -39, 34, 4, -48, -68, 0, 39, 122, 117, 
53, 29, -24, -41, 39, 2, -48, -68, 0, 43, 122, 117, 
53, 29, -24, -41, 39, 2, -48, -68, 0, 43, 122, 117, 
39, 19, -19, -29, 29, 0, -48, -73, 0, 34, 122, 117, 
58, 24, -34, -41, 46, -4, -43, -73, -9, 34, 122, 126, 
58, 24, -34, -41, 46, -4, -43, -73, -19, 29, 107, 117, 
53, 9, -43, -31, 48, -17, -43, -73, -24, 24, 107, 107, 
53, 0, -53, -26, 53, -26, -43, -78, -29, 14, 92, 102, 
63, 0, -63, -31, 63, -31, -34, -78, -34, 9, 102, 107, 
63, 0, -63, -31, 63, -31, -34, -78, -39, 4, 97, 107, 
78, 4, -73, -41, 75, -34, -34, -78, -39, 0, 97, 107, 
82, 4, -78, -43, 80, -36, -34, -78, -39, 0, 97, 107, 
73, 0, -73, -36, 73, -36, -39, -87, -53, -9, 82, 92, 
63, -14, -78, -24, 70, -46, -43, -87, -58, -19, 78, 87, 
53, -19, -73, -17, 63, -46, -53, -87, -58, -24, 73, 73, 
34, -43, -78, 4, 56, -61, -58, -87, -68, -29, 58, 63, 
29, -58, -87, 14, 58, -73, -68, -87, -78, -39, 53, 63, 
29, -63, -92, 17, 61, -78, -68, -82, -68, -39, 53, 63, 
24, -68, -92, 21, 58, -80, -63, -78, -68, -39, 53, 58, 
19, -68, -87, 24, 53, -78, -58, -68, -68, -34, 53, 53, 
29, -58, -87, 14, 58, -73, -34, -63, -58, -29, 53, 53, 
24, -53, -78, 14, 51, -65, -29, -53, -43, -19, 63, 58, 
19, -43, -63, 12, 41, -53, -24, -48, -39, -14, 68, 68, 
14, -53, -68, 19, 41, -61, -24, -48, -34, -9, 73, 73, 
24, -48, -73, 12, 48, -61, -24, -39, -24, 0, 87, 78, 
24, -39, -63, 7, 43, -51, -24, -39, -19, 4, 87, 82, 
24, -34, -58, 4, 41, -46, -24, -39, -14, 9, 92, 87, 
24, -24, -48, 0, 36, -36, -24, -39, -9, 19, 92, 92, 
19, -29, -48, 4, 34, -39, -24, -58, -9, 14, 87, 78, 
14, -34, -48, 9, 31, -41, -24, -58, -14, 9, 82, 73, 
14, -39, -53, 12, 34, -46, -24, -63, -24, 0, 78, 73, 
9, -43, -53, 17, 31, -48, -24, -63, -34, -4, 73, 68, 
14, -34, -48, 9, 31, -41, -24, -53, -24, 0, 68, 68, 
9, -43, -53, 17, 31, -48, -24, -53, -29, -4, 68, 68, 
14, -43, -58, 14, 36, -51, -24, -53, -29, -9, 68, 68, 
19, -43, -63, 12, 41, -53, -24, -53, -29, -9, 73, 73, 
24, -34, -58, 4, 41, -46, -24, -53, -29, -4, 78, 78, 
24, -29, -53, 2, 39, -41, -24, -53, -29, -4, 82, 78, 
24, -24, -48, 0, 36, -36, -24, -53, -24, -4, 82, 78, 
24, -24, -48, 0, 36, -36, -19, -53, -24, -4, 82, 78, 
19, -29, -48, 4, 34, -39, -19, -53, -29, -9, 73, 68, 
19, -29, -48, 4, 34, -39, -19, -53, -29, -9, 73, 68, 
19, -29, -48, 4, 34, -39, -19, -53, -34, -9, 68, 68, 
14, -34, -48, 9, 31, -41, -19, -53, -34, -14, 68, 68, 
24, -34, -58, 4, 41, -46, -19, -53, -24, -4, 78, 68, 
24, -34, -58, 4, 41, -46, -19, -53, -24, -4, 78, 63, 
24, -34, -58, 4, 41, -46, -19, -53, -24, -4, 78, 63, 
14, -43, -58, 14, 36, -51, -19, -53, -29, -4, 78, 63, 
19, -39, -58, 9, 39, -48, -14, -58, -29, -4, 78, 63, 
19, -39, -58, 9, 39, -48, -14, -58, -29, -4, 78, 63, 
19, -39, -58, 9, 39, -48, -14, -58, -29, -4, 78, 63, 
24, -29, -53, 2, 39, -41, -14, -58, -29, -4, 78, 63, 
14, -39, -53, 12, 34, -46, -19, -58, -24, -9, 68, 68, 
9, -34, -43, 12, 26, -39, -19, -53, -24, -9, 73, 68, 
4, -34, -39, 14, 21, -36, -19, -53, -24, -9, 73, 68, 
0, -34, -34, 17, 17, -34, -19, -53, -24, -9, 73, 73, 
24, -19, -43, -2, 34, -31, -9, -39, -19, 0, 87, 82, 
34, -9, -43, -12, 39, -26, -4, -39, -19, 4, 87, 82, 
34, -9, -43, -12, 39, -26, -4, -43, -19, 4, 87, 82, 
39, -4, -43, -17, 41, -24, -9, -43, -19, 9, 82, 78, 
24, -9, -34, -7, 29, -21, -9, -53, -34, 0, 82, 68, 
24, -4, -29, -9, 26, -17, -9, -53, -34, 4, 82, 73, 
19, -9, -29, -4, 24, -19, -9, -53, -34, 4, 87, 73, 
14, -14, -29, 0, 21, -21, -9, -53, -34, 4, 87, 73, 
-4, -39, -34, 21, 14, -36, -14, -68, -48, -4, 73, 63, 
-9, -39, -29, 24, 9, -34, -19, -68, -48, -9, 73, 63, 
-9, -48, -39, 29, 14, -43, -24, -68, -43, -14, 73, 63, 
-14, -58, -43, 36, 14, -51, -29, -68, -43, -19, 73, 63, 
-4, -43, -39, 24, 17, -41, -24, -58, -34, -4, 82, 68, 
4, -29, -34, 12, 19, -31, -19, -53, -34, 0, 87, 68, 
14, -24, -39, 4, 26, -31, -14, -53, -29, 4, 87, 73, 
29, -19, -48, -4, 39, -34, -9, -53, -29, 9, 87, 78, 
19, -14, -34, -2, 26, -24, -9, -48, -24, 9, 87, 68, 
19, -14, -34, -2, 26, -24, -9, -48, -24, 9, 87, 68, 
19, -14, -34, -2, 26, -24, -9, -43, -19, 14, 87, 68, 
19, -14, -34, -2, 26, -24, -9, -43, -19, 14, 87, 68, 
14, -24, -39, 4, 26, -31, -19, -53, -24, 9, 78, 68, 
4, -24, -29, 9, 17, -26, -19, -58, -24, 4, 78, 68, 
0, -24, -24, 12, 12, -24, -19, -58, -29, 0, 78, 68, 
-4, -34, -29, 19, 12, -31, -19, -58, -39, -4, 78, 68, 
9, -14, -24, 2, 17, -19, 0, -48, -19, 14, 87, 73, 
4, -9, -14, 2, 9, -12, 0, -43, -19, 14, 87, 73, 
14, -14, -29, 0, 21, -21, -4, -34, -4, 29, 102, 82, 
14, -4, -19, -4, 17, -12, 4, -24, -4, 48, 112, 82, 
4, -14, -19, 4, 12, -17, 9, -14, 39, 82, 126, 82, 
4, -19, -24, 7, 14, -21, 34, 24, 126, 141, 156, 92, 
-4, -9, -4, 7, 0, -7, 58, 73, 244, 239, 204, 107, 
0, 14, 14, -7, -7, 14, 78, 107, 380, 361, 287, 141, 
19, 58, 39, -39, -9, 48, 87, 141, 527, 507, 380, 195, 
29, 112, 82, -70, -26, 97, 107, 180, 688, 663, 468, 244, 
34, 156, 122, -95, -43, 139, 122, 219, 858, 819, 551, 283, 
34, 219, 185, -126, -75, 202, 112, 219, 1000, 951, 629, 331, 
34, 278, 244, -156, -104, 261, 73, 161, 951, 1000, 727, 395, 
48, 356, 307, -202, -129, 331, -9, 24, 673, 951, 844, 507, 
73, 448, 375, -261, -151, 412, -112, -141, 336, 878, 1005, 673, 
82, 512, 429, -297, -173, 470, -204, -287, 97, 849, 1180, 829, 
78, 561, 483, -319, -202, 522, -302, -448, -141, 819, 1390, 1005, 
117, 634, 517, -375, -200, 575, -439, -649, -448, 790, 1654, 1220, 
180, 717, 536, -448, -178, 627, -595, -805, -678, 824, 1961, 1449, 
244, 795, 551, -519, -153, 673, -775, -951, -839, 951, 2342, 1693, 
297, 897, 600, -597, -151, 749, -966, -1107, -980, 1122, 2796, 1971, 
375, 1034, 658, -705, -141, 846, -1127, -1220, -1063, 1273, 3230, 2249, 
473, 1132, 658, -802, -92, 895, -1229, -1259, -1137, 1298, 3420, 2386, 
546, 1107, 561, -827, -7, 834, -1283, -1224, -1263, 1141, 3147, 2278, 
639, 951, 312, -795, 163, 631, -1239, -1117, -1337, 863, 2571, 2025, 
697, 751, 53, -724, 322, 402, -1156, -1000, -1395, 409, 1732, 1673, 
658, 629, -29, -644, 344, 300, -1122, -1039, -1605, -385, 614, 1229, 
600, 585, -14, -592, 307, 285, -1141, -1195, -1942, -1263, -356, 805, 
610, 527, -82, -568, 346, 222, -1176, -1283, -2215, -1917, -971, 502, 
639, 370, -268, -505, 453, 51, -1122, -1224, -2264, -2196, -1268, 253, 
619, 146, -473, -383, 546, -163, -966, -1063, -2064, -2064, -1298, 39, 
556, -9, -566, -273, 561, -287, -805, -936, -1800, -1810, -1215, -131, 
492, -87, -580, -202, 536, -334, -722, -863, -1620, -1644, -1161, -239, 
453, -126, -580, -163, 517, -353, -658, -805, -1483, -1527, -1102, -268, 
414, -175, -590, -119, 502, -383, -566, -717, -1317, -1351, -1000, -273, 
346, -258, -605, -43, 475, -431, -473, -610, -1132, -1190, -897, -287, 
297, -322, -619, 12, 458, -470, -385, -512, -976, -1049, -810, -278, 
268, -351, -619, 41, 444, -485, -317, -429, -854, -917, -712, -263, 
253, -331, -585, 39, 419, -458, -258, -346, -732, -790, -629, -253, 
219, -278, -497, 29, 358, -387, -200, -283, -610, -663, -527, -224, 
165, -239, -405, 36, 285, -322, -146, -224, -492, -531, -429, -195, 
102, -209, -312, 53, 207, -261, -87, -170, -380, -424, -351, -185, 
63, -165, -229, 51, 146, -197, -43, -117, -292, -341, -287, -165, 
43, -131, -175, 43, 109, -153, -19, -87, -229, -268, -209, -122, 
14, -112, -126, 48, 70, -119, 0, -53, -165, -195, -146, -97, 
-19, -122, -102, 70, 41, -112, 19, -29, -126, -156, -122, -87, 
-34, -122, -87, 78, 26, -104, 39, -19, -112, -151, -126, -87, 
-34, -117, -82, 75, 24, -100, 43, -24, -112, -161, -126, -82, 
-39, -126, -87, 82, 24, -107, 34, -24, -112, -156, -126, -92, 
-39, -126, -87, 82, 24, -107, 43, -19, -102, -146, -122, -92, 
-39, -126, -87, 82, 24, -107, 43, -14, -97, -136, -117, -92, 
-39, -126, -87, 82, 24, -107, 48, -4, -92, -131, -107, -87, 
-34, -112, -78, 73, 21, -95, 53, 0, -78, -126, -102, -87, 
-24, -102, -78, 63, 26, -90, 53, 9, -78, -122, -97, -73, 
-19, -92, -73, 56, 26, -82, 58, 9, -78, -117, -97, -73, 
-14, -87, -73, 51, 29, -80, 58, 9, -73, -112, -92, -73, 
-14, -87, -73, 51, 29, -80, 58, 9, -68, -112, -82, -82, 
-19, -92, -73, 56, 26, -82, 58, 9, -68, -112, -82, -87, 
-19, -92, -73, 56, 26, -82, 58, 14, -68, -112, -82, -87, 
-24, -97, -73, 61, 24, -85, 58, 14, -68, -112, -82, -87, 
-29, -87, -58, 58, 14, -73, 58, 9, -68, -112, -102, -102, 
-34, -92, -58, 63, 12, -75, 58, 9, -68, -112, -92, -102, 
-34, -92, -58, 63, 12, -75, 58, 9, -68, -112, -87, -102, 
-24, -87, -63, 56, 19, -75, 58, 14, -68, -107, -87, -97, 
-24, -97, -73, 61, 24, -85, 63, 19, -78, -117, -97, -92, 
-24, -97, -73, 61, 24, -85, 63, 19, -73, -117, -97, -92, 
-24, -97, -73, 61, 24, -85, 63, 19, -73, -117, -97, -97, 
-24, -97, -73, 61, 24, -85, 68, 19, -73, -117, -97, -102, 
-39, -107, -68, 73, 14, -87, 58, 19, -78, -117, -92, -97, 
-39, -117, -78, 78, 19, -97, 53, 19, -82, -117, -97, -97, 
-39, -117, -78, 78, 19, -97, 53, 19, -82, -122, -97, -102, 
-39, -117, -78, 78, 19, -97, 53, 19, -78, -122, -97, -102, 
-39, -117, -78, 78, 19, -97, 53, 9, -78, -126, -112, -112, 
-39, -117, -78, 78, 19, -97, 53, 14, -78, -126, -112, -112, 
-34, -112, -78, 73, 21, -95, 58, 14, -78, -122, -112, -112, 
-34, -107, -73, 70, 19, -90, 58, 14, -73, -122, -112, -112, 
-34, -107, -73, 70, 19, -90, 58, 29, -73, -131, -122, -112, 
-34, -112, -78, 73, 21, -95, 63, 29, -73, -136, -126, -112, 
-34, -112, -78, 73, 21, -95, 63, 29, -73, -136, -131, -122, 
-43, -117, -73, 80, 14, -95, 63, 29, -73, -136, -136, -122, 
-29, -107, -78, 68, 24, -92, 73, 34, -73, -126, -131, -112, 
-24, -102, -78, 63, 26, -90, 78, 34, -73, -131, -126, -117, 
-19, -102, -82, 61, 31, -92, 78, 34, -73, -131, -126, -117, 
-19, -97, -78, 58, 29, -87, 73, 34, -78, -136, -122, -117, 
-24, -102, -78, 63, 26, -90, 63, 34, -78, -146, -131, -126, 
-29, -107, -78, 68, 24, -92, 63, 34, -82, -146, -136, -136, 
-39, -122, -82, 80, 21, -102, 63, 34, -82, -151, -141, -136, 
-43, -126, -82, 85, 19, -104, 63, 39, -82, -151, -141, -136, 
-19, -102, -82, 61, 31, -92, 82, 48, -73, -141, -141, -136, 
-14, -87, -73, 51, 29, -80, 82, 48, -73, -141, -141, -136, 
-9, -97, -87, 53, 39, -92, 82, 53, -68, -141, -146, -136, 
-4, -92, -87, 48, 41, -90, 82, 53, -68, -146, -151, -146, 
4, -87, -92, 41, 48, -90, 82, 53, -73, -141, -156, -141, 
-4, -92, -87, 48, 41, -90, 82, 53, -78, -146, -156, -141, 
-4, -92, -87, 48, 41, -90, 82, 53, -78, -146, -156, -146, 
-4, -92, -87, 48, 41, -90, 82, 58, -68, -146, -156, -146, 
-19, -112, -92, 65, 36, -102, 82, 43, -73, -161, -170, -161, 
-34, -122, -87, 78, 26, -104, 78, 39, -78, -165, -175, -165, 
-53, -131, -78, 92, 12, -104, 73, 39, -82, -170, -180, -175, 
-78, -146, -68, 112, -4, -107, 73, 34, -87, -180, -180, -180, 
-68, -156, -87, 112, 9, -122, 78, 43, -87, -180, -190, -185, 
-63, -151, -87, 107, 12, -119, 78, 43, -87, -185, -190, -185, 
-58, -151, -92, 104, 17, -122, 78, 43, -87, -185, -190, -185, 
-58, -151, -92, 104, 17, -122, 78, 48, -87, -185, -190, -190, 
-53, -146, -92, 100, 19, -119, 87, 58, -78, -180, -190, -190, 
-53, -146, -92, 100, 19, -119, 87, 58, -78, -185, -195, -200, 
-68, -141, -73, 104, 2, -107, 87, 53, -82, -180, -200, -204, 
-53, -131, -78, 92, 12, -104, 87, 53, -82, -175, -204, -209, 
-43, -131, -87, 87, 21, -109, 87, 58, -82, -185, -209, -200, 
-39, -131, -92, 85, 26, -112, 92, 63, -82, -190, -214, -200, 
-39, -131, -92, 85, 26, -112, 92, 63, -82, -190, -214, -204, 
-39, -131, -92, 85, 26, -112, 97, 63, -82, -190, -214, -204, 
-43, -141, -97, 92, 26, -119, 97, 68, -82, -190, -219, -209, 
-48, -141, -92, 95, 21, -117, 97, 73, -82, -195, -224, -209, 
-48, -141, -92, 95, 21, -117, 102, 73, -78, -195, -224, -214, 
-53, -141, -87, 97, 17, -114, 102, 68, -73, -195, -224, -219, 
-73, -151, -78, 112, 2, -114, 102, 58, -82, -204, -239, -224, 
-73, -156, -82, 114, 4, -119, 107, 63, -78, -214, -244, -234, 
-73, -161, -87, 117, 7, -124, 107, 63, -78, -219, -248, -244, 
-73, -170, -97, 122, 12, -134, 107, 63, -78, -219, -253, -248, 
-68, -161, -92, 114, 12, -126, 107, 78, -73, -219, -244, -248, 
-63, -156, -92, 109, 14, -124, 112, 78, -68, -214, -244, -244, 
-58, -151, -92, 104, 17, -122, 117, 82, -63, -204, -248, -239, 
-48, -141, -92, 95, 21, -117, 122, 82, -58, -200, -253, -239, 
-58, -146, -87, 102, 14, -117, 112, 82, -68, -204, -268, -248, 
-63, -156, -92, 109, 14, -124, 112, 82, -68, -209, -273, -253, 
-63, -165, -102, 114, 19, -134, 112, 82, -68, -219, -278, -258, 
-78, -170, -92, 124, 7, -131, 112, 82, -68, -229, -283, -268, 
-68, -170, -102, 119, 17, -136, 122, 87, -58, -224, -287, -287, 
-68, -175, -107, 122, 19, -141, 122, 87, -53, -229, -292, -292, 
-78, -180, -102, 129, 12, -141, 122, 87, -53, -229, -302, -297, 
-68, -165, -97, 117, 14, -131, 131, 92, -53, -229, -302, -297, 
-58, -165, -107, 112, 24, -136, 131, 102, -53, -229, -297, -292, 
-63, -170, -107, 117, 21, -139, 131, 107, -48, -234, -302, -297, 
-63, -170, -107, 117, 21, -139, 131, 107, -48, -234, -307, -297, 
-63, -170, -107, 117, 21, -139, 136, 112, -43, -234, -312, -302, 
-73, -165, -92, 119, 9, -129, 136, 107, -53, -234, -322, -312, 
-78, -165, -87, 122, 4, -126, 141, 107, -48, -234, -326, -317, 
-87, -180, -92, 134, 2, -136, 141, 107, -48, -239, -331, -326, 
-87, -185, -97, 136, 4, -141, 141, 107, -48, -239, -336, -331, 
-102, -195, -92, 148, -4, -143, 146, 97, -53, -248, -346, -341, 
-117, -209, -92, 163, -12, -151, 141, 102, -53, -253, -356, -356, 
-122, -219, -97, 170, -12, -158, 146, 102, -53, -253, -370, -366, 
-122, -219, -97, 170, -12, -158, 146, 117, -43, -253, -380, -370, 
-112, -209, -97, 161, -7, -153, 161, 117, -29, -244, -375, -366, 
-107, -204, -97, 156, -4, -151, 165, 117, -24, -244, -380, -366, 
-102, -200, -97, 151, -2, -148, 165, 122, -24, -244, -385, -370, 
-107, -204, -97, 156, -4, -151, 165, 122, -19, -244, -390, -380, 
-112, -204, -92, 158, -9, -148, 165, 131, -9, -244, -395, -390, 
-107, -200, -92, 153, -7, -146, 165, 136, 0, -248, -400, -395, 
-107, -200, -92, 153, -7, -146, 170, 141, 0, -248, -400, -405, 
-112, -195, -82, 153, -14, -139, 170, 151, 4, -248, -414, -414, 
-117, -200, -82, 158, -17, -141, 180, 151, 0, -258, -429, -419, 
-122, -204, -82, 163, -19, -143, 180, 146, 9, -258, -434, -434, 
-131, -214, -82, 173, -24, -148, 185, 146, 14, -263, -444, -444, 
-146, -224, -78, 185, -34, -151, 190, 146, 19, -263, -463, -463, 
-126, -219, -92, 173, -17, -156, 195, 161, 34, -253, -463, -453, 
-126, -209, -82, 168, -21, -146, 200, 165, 48, -253, -463, -458, 
-122, -204, -82, 163, -19, -143, 204, 170, 58, -248, -468, -468, 
-122, -200, -78, 161, -21, -139, 209, 175, 58, -248, -478, -478, 
-131, -204, -73, 168, -29, -139, 214, 175, 53, -239, -497, -488, 
-141, -209, -68, 175, -36, -139, 214, 175, 63, -239, -507, -497, 
-146, -209, -63, 178, -41, -136, 219, 185, 78, -239, -512, -507, 
-146, -204, -58, 175, -43, -131, 224, 190, 87, -234, -522, -517, 
-161, -204, -43, 183, -58, -124, 224, 180, 97, -244, -527, -531, 
-165, -204, -39, 185, -63, -122, 229, 185, 102, -244, -541, -541, 
-170, -204, -34, 187, -68, -119, 229, 185, 107, -239, -546, -556, 
-180, -209, -29, 195, -75, -119, 229, 190, 117, -239, -566, -570, 
-195, -214, -19, 204, -87, -117, 234, 190, 126, -234, -570, -566, 
-195, -209, -14, 202, -90, -112, 244, 190, 136, -229, -570, -575, 
-195, -214, -19, 204, -87, -117, 244, 195, 146, -224, -575, -575, 
-195, -214, -19, 204, -87, -117, 244, 195, 156, -219, -580, -580, 
-200, -209, -9, 204, -95, -109, 253, 195, 165, -214, -585, -590, 
-195, -204, -9, 200, -92, -107, 253, 200, 175, -209, -590, -595, 
-195, -195, 0, 195, -97, -97, 253, 204, 185, -200, -595, -605, 
-204, -185, 19, 195, -112, -82, 253, 204, 195, -200, -595, -605, 
-204, -185, 19, 195, -112, -82, 248, 204, 204, -185, -585, -619, 
-204, -180, 24, 192, -114, -78, 248, 200, 209, -170, -580, -619, 
-209, -180, 29, 195, -119, -75, 248, 200, 219, -170, -580, -619, 
-214, -175, 39, 195, -126, -68, 239, 195, 224, -165, -580, -629, 
-214, -165, 48, 190, -131, -58, 248, 204, 244, -151, -575, -619, 
-209, -156, 53, 183, -131, -51, 248, 204, 253, -136, -566, -619, 
-204, -136, 68, 170, -136, -34, 248, 204, 258, -117, -551, -610, 
-200, -122, 78, 161, -139, -21, 248, 200, 268, -112, -546, -610, 
-209, -126, 82, 168, -146, -21, 239, 190, 268, -97, -527, -590, 
-209, -126, 82, 168, -146, -21, 234, 185, 268, -87, -517, -585, 
-209, -117, 92, 163, -151, -12, 224, 175, 268, -78, -502, -580, 
-204, -112, 92, 158, -148, -9, 214, 165, 268, -58, -478, -566, 
-195, -87, 107, 141, -151, 9, 209, 170, 273, -43, -468, -556, 
-195, -78, 117, 136, -156, 19, 204, 161, 278, -29, -448, -551, 
-185, -68, 117, 126, -151, 24, 195, 151, 283, -29, -434, -546, 
-180, -53, 126, 117, -153, 36, 190, 146, 283, -9, -419, -527, 
-185, -48, 136, 117, -161, 43, 185, 141, 283, 4, -390, -507, 
-170, -43, 126, 107, -148, 41, 175, 136, 278, 14, -366, -478, 
-170, -34, 136, 102, -153, 51, 156, 122, 273, 19, -341, -453, 
-165, -29, 136, 97, -151, 53, 141, 112, 253, 34, -307, -429, 
-146, -4, 141, 75, -143, 68, 141, 112, 258, 63, -268, -400, 
-136, 4, 141, 65, -139, 73, 131, 97, 253, 73, -244, -375, 
-122, 14, 136, 53, -129, 75, 122, 97, 244, 82, -214, -356, 
-112, 24, 136, 43, -124, 80, 117, 82, 229, 87, -180, -326, 
-122, 29, 151, 46, -136, 90, 107, 73, 219, 82, -165, -307, 
-112, 29, 141, 41, -126, 85, 87, 63, 204, 92, -136, -287, 
-92, 39, 131, 26, -112, 85, 73, 58, 190, 97, -112, -258, 
-73, 48, 122, 12, -97, 85, 58, 48, 170, 107, -87, -239, 
-63, 68, 131, -2, -97, 100, 48, 48, 165, 97, -63, -214, 
-63, 58, 122, 2, -92, 90, 39, 39, 151, 97, -34, -190, 
-53, 58, 112, -2, -82, 85, 34, 29, 136, 102, -14, -175, 
-43, 58, 102, -7, -73, 80, 24, 29, 126, 102, 9, -146, 
-34, 63, 97, -14, -65, 80, 24, 24, 112, 92, 19, -122, 
-24, 63, 87, -19, -56, 75, 14, 19, 102, 92, 39, -102, 
-9, 73, 82, -31, -46, 78, 9, 14, 87, 92, 48, -82, 
-9, 68, 78, -29, -43, 73, 4, 9, 78, 92, 58, -63, 
-14, 63, 78, -24, -46, 70, 0, 4, 63, 78, 58, -63, 
-4, 58, 63, -26, -34, 61, -4, 0, 53, 73, 68, -53, 
0, 58, 58, -29, -29, 58, -14, -4, 43, 73, 78, -53, 
-4, 53, 58, -24, -31, 56, -24, -9, 39, 73, 78, -43, 
0, 53, 53, -26, -26, 53, -24, -14, 39, 58, 97, -29, 
0, 48, 48, -24, -24, 48, -29, -14, 19, 58, 97, -24, 
0, 43, 43, -21, -21, 43, -34, -14, 0, 58, 97, -19, 
0, 48, 48, -24, -24, 48, -39, -14, 0, 53, 97, -14, 
-4, 53, 58, -24, -31, 56, -29, -19, 4, 39, 92, -19, 
-4, 53, 58, -24, -31, 56, -29, -19, -4, 34, 92, -14, 
0, 53, 53, -26, -26, 53, -29, -19, -4, 34, 97, -9, 
4, 53, 48, -29, -21, 51, -29, -19, -9, 34, 97, -4, 
9, 63, 53, -36, -21, 58, -29, -24, -4, 34, 107, 0, 
19, 53, 34, -36, -7, 43, -39, -24, -9, 29, 107, 4, 
24, 53, 29, -39, -2, 41, -39, -24, -14, 29, 107, 14, 
29, 53, 24, -41, 2, 39, -39, -24, -14, 24, 112, 19, 
29, 58, 29, -43, 0, 43, -48, -24, -29, 14, 102, 9, 
24, 58, 34, -41, -4, 46, -43, -24, -29, 14, 102, 14, 
24, 63, 39, -43, -7, 51, -43, -24, -29, 14, 102, 14, 
19, 63, 43, -41, -12, 53, -43, -24, -29, 9, 102, 19, 
24, 73, 48, -48, -12, 61, -39, -14, -19, 4, 102, 19, 
34, 73, 39, -53, -2, 56, -34, -9, -19, 4, 102, 19, 
39, 73, 34, -56, 2, 53, -29, -9, -34, 0, 102, 19, 
43, 63, 19, -53, 12, 41, -29, -9, -39, 0, 92, 19, 
43, 73, 29, -58, 7, 51, -29, -19, -39, 0, 102, 19, 
43, 73, 29, -58, 7, 51, -29, -19, -39, 0, 107, 19, 
34, 68, 34, -51, 0, 51, -29, -19, -43, 0, 107, 19, 
29, 63, 34, -46, -2, 48, -34, -24, -43, 0, 102, 14, 
14, 39, 24, -26, -4, 31, -39, -34, -58, -19, 87, 0, 
4, 29, 24, -17, -9, 26, -39, -34, -63, -24, 78, -4, 
-4, 19, 24, -7, -14, 21, -43, -34, -63, -24, 73, -4, 
-9, 9, 19, 0, -14, 14, -48, -29, -58, -19, 73, 0, 
0, 29, 29, -14, -14, 29, -39, -19, -48, -9, 73, 0, 
9, 34, 24, -21, -7, 29, -34, -19, -48, -9, 73, 0, 
19, 34, 14, -26, 2, 24, -34, -19, -43, -9, 73, -4, 
29, 39, 9, -34, 9, 24, -34, -19, -39, -9, 68, -4, 
19, 48, 29, -34, -4, 39, -34, -14, -39, -9, 78, 4, 
24, 53, 29, -39, -2, 41, -34, -14, -39, -9, 78, 4, 
24, 53, 29, -39, -2, 41, -34, -9, -43, -9, 78, 9, 
29, 53, 24, -41, 2, 39, -34, -9, -43, -9, 78, 9, 
39, 39, 0, -39, 19, 19, -29, -9, -39, -9, 68, 0, 
29, 34, 4, -31, 12, 19, -29, -9, -39, -14, 68, -4, 
29, 34, 4, -31, 12, 19, -29, -9, -39, -14, 68, -4, 
29, 34, 4, -31, 12, 19, -29, -9, -34, -9, 63, -4, 
19, 39, 19, -29, 0, 29, -29, -9, -34, -14, 63, -14, 
24, 39, 14, -31, 4, 26, -29, -9, -34, -14, 63, -14, 
24, 43, 19, -34, 2, 31, -29, -4, -34, -14, 63, -14, 
24, 43, 19, -34, 2, 31, -29, -4, -34, -14, 63, -14, 
19, 43, 24, -31, -2, 34, -19, -4, -24, -4, 63, -9, 
24, 43, 19, -34, 2, 31, -19, -4, -24, -9, 68, -9, 
34, 43, 9, -39, 12, 26, -19, -4, -24, -9, 78, -9, 
43, 43, 0, -43, 21, 21, -19, -4, -24, -4, 82, -9, 
39, 39, 0, -39, 19, 19, -29, -4, -34, -14, 78, -19, 
34, 39, 4, -36, 14, 21, -24, 0, -29, -14, 73, -19, 
34, 43, 9, -39, 12, 26, -24, 0, -29, -14, 68, -19, 
29, 43, 14, -36, 7, 29, -24, 4, -24, -9, 63, -14, 
29, 34, 4, -31, 12, 19, -24, 4, -24, 0, 73, -4, 
19, 29, 9, -24, 4, 19, -24, -4, -24, 0, 73, -9, 
19, 19, 0, -19, 9, 9, -24, -4, -24, 0, 73, -9, 
14, 14, 0, -14, 7, 7, -24, -4, -24, 0, 73, -9, 
19, 24, 4, -21, 7, 14, -19, -4, -24, 0, 73, -9, 
14, 24, 9, -19, 2, 17, -19, -4, -24, -9, 73, -9, 
14, 24, 9, -19, 2, 17, -14, -4, -24, -9, 73, -9, 
19, 24, 4, -21, 7, 14, -14, 0, -19, 0, 73, -9, 
9, 29, 19, -19, -4, 24, -24, 0, -19, 0, 68, -19, 
9, 29, 19, -19, -4, 24, -24, 0, -19, 0, 68, -19, 
9, 29, 19, -19, -4, 24, -24, 0, -19, 4, 68, -19, 
14, 34, 19, -24, -2, 26, -24, 0, -14, 4, 58, -19, 
14, 24, 9, -19, 2, 17, -24, 4, -14, 4, 78, -19, 
14, 24, 9, -19, 2, 17, -19, 4, -9, 9, 82, -19, 
19, 29, 9, -24, 4, 19, -19, 4, -9, 9, 82, -19, 
19, 34, 14, -26, 2, 24, -19, 4, -9, 9, 82, -19, 
29, 39, 9, -34, 9, 24, -19, 4, 4, 14, 82, -9, 
39, 48, 9, -43, 14, 29, -14, 9, 4, 14, 87, -4, 
43, 53, 9, -48, 17, 31, -14, 9, 0, 19, 87, -4, 
43, 58, 14, -51, 14, 36, -19, 9, -4, 19, 87, -4, 
39, 53, 14, -46, 12, 34, -9, 14, -4, 19, 82, -19, 
34, 53, 19, -43, 7, 36, -9, 14, -4, 14, 82, -19, 
29, 48, 19, -39, 4, 34, -9, 14, -4, 14, 82, -19, 
29, 48, 19, -39, 4, 34, -9, 14, 0, 14, 82, -19, 
24, 34, 9, -29, 7, 21, -14, 9, 0, 4, 73, -29, 
14, 24, 9, -19, 2, 17, -14, 4, -4, 9, 73, -29, 
4, 19, 14, -12, -4, 17, -19, 0, -9, 9, 73, -29, 
-4, 9, 14, -2, -9, 12, -19, -4, -14, 9, 73, -29, 
9, 24, 14, -17, -2, 19, -9, 4, -9, 9, 73, -29, 
14, 24, 9, -19, 2, 17, -14, 4, -4, 9, 73, -29, 
9, 24, 14, -17, -2, 19, -14, 4, -4, 9, 73, -34, 
14, 29, 14, -21, 0, 21, -19, 4, -4, 9, 73, -34, 
24, 43, 19, -34, 2, 31, -9, 14, -4, 19, 78, -29, 
29, 43, 14, -36, 7, 29, -9, 14, 0, 19, 82, -19, 
39, 48, 9, -43, 14, 29, -9, 14, 4, 19, 87, -14, 
43, 53, 9, -48, 17, 31, -9, 14, 4, 19, 92, -9, 
39, 43, 4, -41, 17, 24, -19, 4, 4, 19, 92, -19, 
34, 39, 4, -36, 14, 21, -19, 4, 4, 19, 92, -19, 
29, 39, 9, -34, 9, 24, -14, 4, 4, 19, 92, -19, 
24, 43, 19, -34, 2, 31, -14, 4, 4, 19, 92, -14, 
29, 43, 14, -36, 7, 29, -4, 14, 4, 19, 87, -14, 
29, 39, 9, -34, 9, 24, -4, 14, 4, 19, 87, -14, 
29, 39, 9, -34, 9, 24, -4, 14, 4, 19, 87, -14, 
29, 43, 14, -36, 7, 29, -4, 14, 4, 19, 82, -14, 
34, 53, 19, -43, 7, 36, -9, 14, 0, 19, 82, -24, 
34, 53, 19, -43, 7, 36, -9, 14, 0, 19, 82, -24, 
34, 53, 19, -43, 7, 36, -9, 14, 0, 14, 82, -29, 
29, 53, 24, -41, 2, 39, -9, 14, 0, 14, 82, -29, 
19, 48, 29, -34, -4, 39, -14, 4, 0, 14, 82, -34, 
19, 48, 29, -34, -4, 39, -14, 4, -4, 14, 82, -34, 
19, 43, 24, -31, -2, 34, -19, 4, -9, 14, 82, -34, 
14, 29, 14, -21, 0, 21, -19, 4, -14, 4, 78, -39, 
4, 14, 9, -9, -2, 12, -19, 4, -14, 4, 73, -29, 
4, 14, 9, -9, -2, 12, -24, 0, -9, 4, 73, -29, 
9, 14, 4, -12, 2, 9, -24, 0, -9, 4, 78, -24, 
9, 14, 4, -12, 2, 9, -24, 0, -9, 4, 78, -24, 
9, 14, 4, -12, 2, 9, -14, 4, -9, 4, 78, -34, 
9, 29, 19, -19, -4, 24, -14, 4, -9, 4, 78, -34, 
24, 43, 19, -34, 2, 31, -14, 9, -9, 4, 78, -29, 
29, 43, 14, -36, 7, 29, -9, 9, -4, 9, 82, -29, 
43, 58, 14, -51, 14, 36, -9, 9, 0, 19, 92, -14, 
43, 53, 9, -48, 17, 31, -9, 9, 0, 19, 92, -14, 
43, 58, 14, -51, 14, 36, -9, 9, -9, 9, 87, -19, 
43, 58, 14, -51, 14, 36, -14, 9, -14, 9, 82, -24, 
48, 63, 14, -56, 17, 39, -4, 14, -9, 14, 92, -14, 
48, 58, 9, -53, 19, 34, -4, 14, -14, 14, 97, -14, 
48, 58, 9, -53, 19, 34, -4, 14, -9, 14, 97, -14, 
48, 63, 14, -56, 17, 39, -4, 14, -4, 14, 92, -14, 
39, 43, 4, -41, 17, 24, -14, 4, -14, 9, 87, -24, 
29, 34, 4, -31, 12, 19, -19, 4, -14, 0, 78, -24, 
14, 19, 4, -17, 4, 12, -24, 4, -14, -4, 73, -24, 
4, 9, 4, -7, 0, 7, -29, 4, -14, -9, 68, -24, 
9, 24, 14, -17, -2, 19, -29, -4, -24, -4, 73, -34, 
19, 34, 14, -26, 2, 24, -24, -4, -24, -4, 73, -29, 
19, 34, 14, -26, 2, 24, -24, -4, -19, -4, 73, -29, 
29, 39, 9, -34, 9, 24, -24, 0, -14, 0, 73, -29, 
29, 39, 9, -34, 9, 24, -24, 9, -14, 0, 73, -34, 
29, 39, 9, -34, 9, 24, -24, 4, -14, -4, 73, -34, 
24, 39, 14, -31, 4, 26, -24, 4, -14, -4, 73, -29, 
24, 39, 14, -31, 4, 26, -24, 4, -19, -4, 73, -29, 
29, 43, 14, -36, 7, 29, -14, 14, -9, 4, 82, -29, 
29, 39, 9, -34, 9, 24, -19, 14, -14, 4, 82, -29, 
29, 43, 14, -36, 7, 29, -19, 14, -14, 4, 82, -29, 
34, 53, 19, -43, 7, 36, -19, 14, -14, 4, 87, -24, 
34, 48, 14, -41, 9, 31, -14, 4, -19, 4, 87, -24, 
39, 53, 14, -46, 12, 34, -14, 4, -19, 9, 87, -19, 
39, 53, 14, -46, 12, 34, -14, 4, -19, 9, 87, -19, 
39, 53, 14, -46, 12, 34, -19, 4, -19, 9, 87, -24, 
29, 43, 14, -36, 7, 29, -29, -4, -24, -4, 82, -34, 
24, 39, 14, -31, 4, 26, -29, -4, -24, -4, 78, -39, 
19, 43, 24, -31, -2, 34, -29, -4, -24, -4, 73, -43, 
14, 24, 9, -19, 2, 17, -29, -4, -24, -4, 68, -48, 
19, 24, 4, -21, 7, 14, -24, 0, -24, -9, 68, -43, 
19, 29, 9, -24, 4, 19, -24, 0, -29, -9, 68, -39, 
24, 39, 14, -31, 4, 26, -24, 0, -29, -9, 68, -34, 
24, 43, 19, -34, 2, 31, -24, 0, -29, -9, 68, -29, 
14, 48, 34, -31, -9, 41, -34, 0, -29, -9, 68, -39, 
24, 48, 24, -36, 0, 36, -29, 0, -29, -9, 68, -39, 
24, 43, 19, -34, 2, 31, -29, 4, -24, -4, 68, -34, 
24, 39, 14, -31, 4, 26, -29, 4, -24, -4, 68, -34, 
39, 43, 4, -41, 17, 24, -19, 4, -24, -4, 78, -34, 
34, 48, 14, -41, 9, 31, -19, 4, -24, -4, 78, -34, 
48, 48, 0, -48, 24, 24, -19, 4, -24, -4, 78, -34, 
53, 53, 0, -53, 26, 26, -19, 4, -24, -4, 78, -34, 
48, 63, 14, -56, 17, 39, -19, 0, -24, -4, 73, -34, 
48, 58, 9, -53, 19, 34, -19, 0, -19, -4, 73, -29, 
48, 58, 9, -53, 19, 34, -19, 4, -19, -4, 73, -29, 
39, 53, 14, -46, 12, 34, -19, 4, -24, -4, 73, -34, 
29, 48, 19, -39, 4, 34, -19, 4, -24, -4, 73, -34, 
29, 43, 14, -36, 7, 29, -19, -4, -24, -4, 73, -34, 
24, 34, 9, -29, 7, 21, -24, -4, -29, -9, 68, -39, 
19, 24, 4, -21, 7, 14, -24, -9, -34, -14, 68, -39, 
19, 24, 4, -21, 7, 14, -24, 4, -29, -9, 68, -39, 
29, 29, 0, -29, 14, 14, -29, 0, -29, -9, 68, -39, 
34, 43, 9, -39, 12, 26, -19, 9, -19, 0, 78, -39, 
39, 48, 9, -43, 14, 29, -19, 9, -19, 0, 78, -39, 
43, 53, 9, -48, 17, 31, -19, 9, -19, 0, 78, -39, 
48, 58, 9, -53, 19, 34, -19, 9, -19, 0, 78, -39, 
58, 68, 9, -63, 24, 39, -19, 9, -19, 0, 78, -29, 
58, 68, 9, -63, 24, 39, -19, 9, -19, 0, 78, -29, 
58, 68, 9, -63, 24, 39, -19, 9, -19, 0, 78, -29, 
58, 68, 9, -63, 24, 39, -19, 9, -19, 0, 78, -29, 
39, 48, 9, -43, 14, 29, -24, 0, -24, -4, 73, -34, 
29, 39, 9, -34, 9, 24, -29, 0, -29, -9, 68, -39, 
19, 29, 9, -24, 4, 19, -34, 0, -34, -14, 63, -43, 
9, 19, 9, -14, 0, 14, -39, 0, -39, -19, 58, -48, 
14, 34, 19, -24, -2, 26, -29, 0, -29, -14, 63, -43, 
19, 39, 19, -29, 0, 29, -29, 0, -29, -9, 68, -39, 
24, 43, 19, -34, 2, 31, -29, 0, -29, -4, 73, -34, 
29, 48, 19, -39, 4, 34, -29, 0, -29, 0, 78, -29, 
19, 39, 19, -29, 0, 29, -29, 9, -29, -9, 68, -39, 
19, 39, 19, -29, 0, 29, -29, 9, -29, -9, 68, -39, 
19, 39, 19, -29, 0, 29, -29, 9, -29, -9, 68, -39, 
19, 39, 19, -29, 0, 29, -29, 9, -29, -9, 68, -39, 
14, 34, 19, -24, -2, 26, -29, 0, -39, -9, 58, -48, 
9, 29, 19, -19, -4, 24, -29, 0, -39, -9, 58, -48, 
4, 24, 19, -14, -7, 21, -29, 0, -39, -9, 58, -48, 
0, 19, 19, -9, -9, 19, -29, 0, -39, -9, 58, -48, 
9, 39, 29, -24, -9, 34, -19, 9, -29, -4, 63, -48, 
19, 48, 29, -34, -4, 39, -19, 9, -29, 0, 68, -48, 
29, 58, 29, -43, 0, 43, -19, 9, -29, 4, 73, -48, 
39, 68, 29, -53, 4, 48, -19, 9, -29, 9, 78, -48, 
34, 53, 19, -43, 7, 36, -29, 9, -29, 4, 73, -39, 
29, 48, 19, -39, 4, 34, -29, 9, -29, 0, 68, -39, 
24, 43, 19, -34, 2, 31, -29, 9, -29, -4, 63, -39, 
19, 39, 19, -29, 0, 29, -29, 9, -29, -9, 58, -39, 
19, 48, 29, -34, -4, 39, -19, 9, -29, 0, 68, -39, 
19, 48, 29, -34, -4, 39, -19, 9, -29, 0, 68, -39, 
19, 48, 29, -34, -4, 39, -19, 9, -29, 0, 68, -39, 
19, 48, 29, -34, -4, 39, -19, 9, -29, 0, 68, -39, 
29, 58, 29, -43, 0, 43, -19, 9, -29, 9, 68, -39, 
29, 58, 29, -43, 0, 43, -19, 9, -29, 9, 68, -39, 
29, 58, 29, -43, 0, 43, -19, 9, -29, 9, 68, -39, 
29, 58, 29, -43, 0, 43, -19, 9, -29, 9, 68, -39, 
24, 53, 29, -39, -2, 41, -19, 9, -29, 0, 68, -48, 
19, 48, 29, -34, -4, 39, -19, 9, -29, 0, 68, -48, 
14, 43, 29, -29, -7, 36, -19, 9, -29, 0, 68, -48, 
9, 39, 29, -24, -9, 34, -19, 9, -29, 0, 68, -48, 
9, 39, 29, -24, -9, 34, -29, 9, -29, 0, 68, -48, 
9, 39, 29, -24, -9, 34, -29, 9, -29, 0, 68, -48, 
9, 39, 29, -24, -9, 34, -29, 9, -29, 0, 68, -48, 
9, 39, 29, -24, -9, 34, -29, 9, -29, 0, 68, -48, 
9, 39, 29, -24, -9, 34, -19, 9, -29, 0, 58, -48, 
9, 39, 29, -24, -9, 34, -19, 9, -29, 0, 58, -48, 
9, 39, 29, -24, -9, 34, -19, 9, -29, 0, 58, -48, 
9, 39, 29, -24, -9, 34, -19, 9, -29, 0, 58, -48, 
9, 39, 29, -24, -9, 34, -19, 9, -29, 9, 68, -39, 
9, 39, 29, -24, -9, 34, -19, 9, -29, 9, 68, -39, 
9, 39, 29, -24, -9, 34, -19, 9, -29, 9, 68, -39, 
9, 39, 29, -24, -9, 34, -19, 9, -29, 9, 68, -39, 
9, 48, 39, -29, -14, 43, -19, 9, -19, 9, 68, -48, 
9, 48, 39, -29, -14, 43, -19, 9, -19, 9, 68, -48, 
9, 48, 39, -29, -14, 43, -19, 9, -19, 9, 68, -48, 
9, 48, 39, -29, -14, 43, -19, 9, -19, 9, 68, -48, 
19, 58, 39, -39, -9, 48, -19, 9, -19, 9, 68, -39, 
19, 58, 39, -39, -9, 48, -19, 9, -19, 9, 68, -39, 
19, 58, 39, -39, -9, 48, -19, 9, -19, 9, 68, -39, 
19, 58, 39, -39, -9, 48, -19, 9, -19, 9, 68, -39, 
29, 58, 29, -43, 0, 43, -19, 19, -19, 9, 68, -48, 
29, 58, 29, -43, 0, 43, -19, 19, -19, 9, 68, -48, 
29, 58, 29, -43, 0, 43, -19, 19, -19, 9, 68, -48, 
29, 58, 29, -43, 0, 43, -19, 19, -19, 9, 68, -48, 
24, 53, 29, -39, -2, 41, -19, 9, -29, 9, 68, -39, 
19, 48, 29, -34, -4, 39, -19, 9, -29, 9, 68, -39, 
14, 43, 29, -29, -7, 36, -19, 9, -29, 9, 68, -39, 
9, 39, 29, -24, -9, 34, -19, 9, -29, 9, 68, -39, 
4, 34, 29, -19, -12, 31, -29, 0, -29, 9, 58, -43, 
0, 29, 29, -14, -14, 29, -29, 0, -29, 9, 58, -48, 
-4, 24, 29, -9, -17, 26, -29, 0, -29, 9, 58, -53, 
-9, 19, 29, -4, -19, 24, -29, 0, -29, 9, 58, -58, 
-4, 34, 39, -14, -21, 36, -29, 9, -19, 9, 68, -48, 
0, 39, 39, -19, -19, 39, -29, 9, -19, 9, 68, -48, 
4, 43, 39, -24, -17, 41, -29, 9, -19, 9, 68, -48, 
9, 48, 39, -29, -14, 43, -29, 9, -19, 9, 68, -48, 
14, 53, 39, -34, -12, 46, -24, 19, -14, 14, 78, -39, 
19, 58, 39, -39, -9, 48, -19, 19, -9, 19, 78, -39, 
24, 63, 39, -43, -7, 51, -14, 19, -4, 24, 78, -39, 
29, 68, 39, -48, -4, 53, -9, 19, 0, 29, 78, -39, 
24, 78, 53, -51, -14, 65, 0, 19, 4, 34, 87, -39, 
19, 78, 58, -48, -19, 68, 0, 19, 9, 39, 87, -39, 
14, 78, 63, -46, -24, 70, 0, 19, 14, 43, 87, -39, 
9, 78, 68, -43, -29, 73, 0, 19, 19, 48, 87, -39, 
24, 97, 73, -61, -24, 85, 4, 29, 34, 68, 107, -29, 
29, 117, 87, -73, -29, 102, 9, 29, 48, 78, 117, -19, 
34, 136, 102, -85, -34, 119, 14, 29, 63, 87, 126, -9, 
39, 156, 117, -97, -39, 136, 19, 29, 78, 97, 136, 0, 
29, 146, 117, -87, -43, 131, 29, 34, 87, 107, 136, 0, 
29, 146, 117, -87, -43, 131, 29, 39, 97, 107, 136, 0, 
29, 146, 117, -87, -43, 131, 29, 43, 107, 107, 136, 0, 
29, 146, 117, -87, -43, 131, 29, 48, 117, 107, 136, 0, 
39, 156, 117, -97, -39, 136, 39, 63, 131, 117, 151, 4, 
48, 156, 107, -102, -29, 131, 39, 68, 136, 126, 156, 9, 
58, 156, 97, -107, -19, 126, 39, 73, 141, 136, 161, 14, 
68, 156, 87, -112, -9, 122, 39, 78, 146, 146, 165, 19, 
68, 146, 78, -107, -4, 112, 29, 78, 156, 146, 165, 29, 
68, 146, 78, -107, -4, 112, 29, 78, 156, 146, 165, 29, 
68, 146, 78, -107, -4, 112, 29, 78, 156, 146, 165, 29, 
68, 146, 78, -107, -4, 112, 29, 78, 156, 146, 165, 29, 
73, 156, 82, -114, -4, 119, 19, 68, 146, 136, 165, 19, 
78, 156, 78, -117, 0, 117, 9, 68, 136, 136, 165, 19, 
82, 156, 73, -119, 4, 114, 0, 68, 126, 136, 165, 19, 
87, 156, 68, -122, 9, 112, -9, 68, 117, 136, 165, 19, 
82, 136, 53, -109, 14, 95, -19, 58, 87, 122, 156, 4, 
78, 126, 48, -102, 14, 87, -29, 48, 68, 107, 146, 0, 
73, 117, 43, -95, 14, 80, -39, 39, 48, 92, 136, -4, 
68, 107, 39, -87, 14, 73, -48, 29, 29, 78, 126, -9, 
58, 107, 48, -82, 4, 78, -58, 9, 4, 63, 117, -14, 
58, 107, 48, -82, 4, 78, -58, 0, -9, 48, 107, -19, 
58, 107, 48, -82, 4, 78, -58, -9, -24, 34, 97, -24, 
58, 107, 48, -82, 4, 78, -58, -19, -39, 19, 87, -29, 
48, 97, 48, -73, 0, 73, -48, -9, -29, 29, 87, -29, 
48, 97, 48, -73, 0, 73, -48, -9, -29, 29, 87, -29, 
48, 97, 48, -73, 0, 73, -48, -9, -29, 29, 87, -29, 
48, 97, 48, -73, 0, 73, -48, -9, -29, 29, 87, -29, 
48, 107, 58, -78, -4, 82, -39, -9, -29, 29, 78, -39, 
48, 107, 58, -78, -4, 82, -39, -9, -29, 29, 78, -39, 
48, 107, 58, -78, -4, 82, -39, -9, -29, 29, 78, -39, 
48, 107, 58, -78, -4, 82, -39, -9, -29, 29, 78, -39, 
24, 82, 58, -53, -17, 70, -53, -14, -34, 19, 78, -48, 
9, 68, 58, -39, -24, 63, -58, -19, -39, 19, 78, -48, 
-4, 53, 58, -24, -31, 56, -63, -24, -43, 19, 78, -48, 
-19, 39, 58, -9, -39, 48, -68, -29, -48, 19, 78, -48, 
-4, 48, 53, -21, -29, 51, -58, -19, -39, 24, 82, -43, 
0, 58, 58, -29, -29, 58, -58, -19, -39, 29, 87, -39, 
14, 68, 53, -41, -19, 61, -58, -19, -39, 34, 97, -34, 
24, 78, 53, -51, -14, 65, -58, -19, -39, 43, 102, -29, 
34, 78, 43, -56, -4, 61, -48, -19, -29, 34, 92, -29, 
19, 68, 48, -43, -14, 58, -48, -24, -29, 24, 92, -29, 
29, 63, 34, -46, -2, 48, -53, -24, -39, 24, 92, -29, 
29, 63, 34, -46, -2, 48, -53, -24, -48, 19, 78, -39, 
14, 39, 24, -26, -4, 31, -53, -24, -53, 14, 78, -48, 
14, 29, 14, -21, 0, 21, -53, -29, -58, 4, 63, -53, 
14, 29, 14, -21, 0, 21, -53, -29, -63, 0, 63, -58, 
14, 29, 14, -21, 0, 21, -53, -29, -68, -4, 58, -58, 
29, 43, 14, -36, 7, 29, -53, -19, -68, -9, 58, -63, 
34, 43, 9, -39, 12, 26, -53, -19, -68, -9, 58, -68, 
34, 43, 9, -39, 12, 26, -53, -19, -73, -9, 48, -73, 
34, 34, 0, -34, 17, 17, -53, -19, -78, -19, 48, -78, 
34, 34, 0, -34, 17, 17, -58, -19, -78, -14, 48, -78, 
24, 14, -9, -19, 17, 2, -58, -19, -87, -19, 39, -82, 
19, 9, -9, -14, 14, 0, -58, -19, -87, -19, 34, -82, 
19, 4, -14, -12, 17, -4, -58, -14, -78, -19, 34, -82, 
24, 9, -14, -17, 19, -2, -43, 0, -73, -9, 43, -78, 
19, 9, -9, -14, 14, 0, -39, 9, -68, -4, 43, -82, 
19, 19, 0, -19, 9, 9, -24, 14, -53, 0, 43, -82, 
14, 24, 9, -19, 2, 17, -19, 24, -34, 9, 53, -78, 
9, 34, 24, -21, -7, 29, -24, 24, -39, 14, 58, -78, 
4, 24, 19, -14, -7, 21, -24, 19, -34, 19, 63, -73, 
4, 24, 19, -14, -7, 21, -24, 14, -29, 24, 68, -73, 
4, 29, 24, -17, -9, 26, -24, 9, -29, 24, 68, -73, 
-4, 19, 24, -7, -14, 21, -24, 9, -39, 14, 63, -73, 
-4, 24, 29, -9, -17, 26, -24, 9, -39, 19, 63, -73, 
-4, 24, 29, -9, -17, 26, -24, 0, -34, 19, 63, -73, 
-4, 24, 29, -9, -17, 26, -24, 0, -34, 19, 63, -73, 
4, 34, 29, -19, -12, 31, -24, -4, -39, 14, 63, -78, 
9, 34, 24, -21, -7, 29, -24, -4, -43, 14, 63, -78, 
14, 34, 19, -24, -2, 26, -24, -4, -43, 9, 53, -82, 
9, 24, 14, -17, -2, 19, -24, -4, -48, 4, 48, -87, 
0, 14, 14, -7, -7, 14, -24, 4, -48, 9, 53, -92, 
0, 14, 14, -7, -7, 14, -24, 4, -48, 9, 53, -92, 
4, 14, 9, -9, -2, 12, -24, 4, -48, 14, 58, -87, 
4, 19, 14, -12, -4, 17, -24, 4, -48, 14, 63, -87, 
9, 29, 19, -19, -4, 24, -14, 14, -34, 14, 53, -78, 
14, 34, 19, -24, -2, 26, -9, 14, -34, 14, 53, -78, 
24, 43, 19, -34, 2, 31, -9, 14, -29, 19, 53, -78, 
29, 48, 19, -39, 4, 34, -9, 14, -29, 19, 53, -78, 
19, 39, 19, -29, 0, 29, -9, 4, -34, 19, 58, -87, 
14, 34, 19, -24, -2, 26, -9, 4, -34, 14, 58, -87, 
14, 34, 19, -24, -2, 26, -9, 4, -34, 14, 58, -87, 
14, 34, 19, -24, -2, 26, -9, 4, -34, 14, 58, -92, 
0, 24, 24, -12, -12, 24, -14, 0, -39, 9, 53, -102, 
-14, 4, 19, 4, -17, 12, -19, -4, -48, 4, 48, -102, 
-24, -9, 14, 17, -19, 2, -29, -14, -53, 0, 43, -102, 
-29, -19, 9, 24, -19, -4, -34, -19, -58, -4, 39, -102, 
-29, -19, 9, 24, -19, -4, -24, -9, -48, 4, 39, -102, 
-24, -9, 14, 17, -19, 2, -24, -9, -48, 4, 39, -102, 
-19, -9, 9, 14, -14, 0, -19, -9, -43, 9, 39, -97, 
-19, -4, 14, 12, -17, 4, -19, -4, -43, 9, 43, -97, 
-9, 4, 14, 2, -12, 9, -19, 4, -34, 19, 53, -107, 
-9, 4, 14, 2, -12, 9, -19, 4, -34, 19, 53, -102, 
-4, 9, 14, -2, -9, 12, -19, 9, -29, 24, 58, -102, 
-4, 9, 14, -2, -9, 12, -14, 9, -29, 24, 58, -102, 
-9, 4, 14, 2, -12, 9, -14, 4, -29, 19, 58, -92, 
-9, 4, 14, 2, -12, 9, -19, 4, -29, 19, 53, -97, 
-4, 9, 14, -2, -9, 12, -19, 4, -34, 19, 53, -97, 
4, 24, 19, -14, -7, 21, -19, 4, -34, 24, 53, -92, 
4, 24, 19, -14, -7, 21, -19, 4, -24, 24, 58, -92, 
4, 24, 19, -14, -7, 21, -19, 4, -24, 24, 58, -92, 
0, 9, 9, -4, -4, 9, -19, 0, -29, 19, 53, -92, 
0, 19, 19, -9, -9, 19, -19, 0, -29, 19, 53, -92, 
-4, 9, 14, -2, -9, 12, -19, 0, -34, 29, 53, -92, 
-4, 9, 14, -2, -9, 12, -19, 0, -34, 29, 53, -92, 
-4, 9, 14, -2, -9, 12, -19, 0, -34, 29, 53, -92, 
-4, 19, 24, -7, -14, 21, -19, 4, -34, 29, 58, -97, 
-19, 4, 24, 7, -21, 14, -29, -4, -39, 19, 48, -107, 
-19, 0, 19, 9, -19, 9, -29, -4, -39, 19, 48, -107, 
-24, 0, 24, 12, -24, 12, -29, -9, -43, 19, 48, -107, 
-29, -4, 24, 17, -26, 9, -29, -9, -43, 19, 48, -107, 
-14, 0, 14, 7, -14, 7, -19, 4, -29, 24, 48, -97, 
-9, 4, 14, 2, -12, 9, -19, 4, -29, 24, 48, -97, 
-4, 9, 14, -2, -9, 12, -19, 4, -29, 24, 48, -97, 
-4, 14, 19, -4, -12, 17, -19, 0, -24, 24, 48, -97, 
-4, 4, 9, 0, -7, 7, -19, 0, -24, 34, 58, -97, 
4, 14, 9, -9, -2, 12, -9, 0, -29, 34, 58, -87, 
9, 34, 24, -21, -7, 29, -9, 9, -19, 53, 68, -92, 
24, 48, 24, -36, 0, 36, 0, 14, -9, 63, 78, -82, 
24, 43, 19, -34, 2, 31, -4, 24, 4, 68, 82, -82, 
14, 34, 19, -24, -2, 26, -14, 24, 24, 78, 82, -92, 
4, 34, 29, -19, -12, 31, 0, 34, 78, 122, 97, -92, 
4, 29, 24, -17, -9, 26, 34, 92, 175, 180, 126, -82, 
4, 39, 34, -21, -14, 36, 68, 131, 283, 268, 175, -68, 
9, 73, 63, -41, -26, 68, 68, 156, 409, 390, 258, -24, 
19, 126, 107, -73, -43, 117, 68, 180, 556, 546, 361, 29, 
29, 170, 141, -100, -56, 156, 97, 229, 727, 712, 448, 68, 
24, 224, 200, -124, -87, 212, 102, 258, 897, 858, 522, 107, 
14, 278, 263, -146, -124, 270, 92, 248, 1019, 971, 590, 146, 
14, 336, 322, -175, -153, 329, 53, 190, 941, 1010, 688, 209, 
19, 405, 385, -212, -183, 395, -19, 53, 634, 941, 805, 322, 
24, 478, 453, -251, -214, 466, -122, -112, 287, 858, 946, 478, 
34, 541, 507, -287, -236, 524, -204, -258, 68, 839, 1151, 644, 
68, 610, 541, -339, -236, 575, -302, -409, -180, 819, 1381, 829, 
117, 683, 566, -400, -224, 624, -439, -600, -488, 790, 1634, 1044, 
170, 756, 585, -463, -207, 671, -605, -766, -727, 814, 1932, 1273, 
224, 834, 610, -529, -192, 722, -775, -912, -888, 941, 2322, 1517, 
297, 956, 658, -627, -180, 807, -956, -1058, -1000, 1132, 2796, 1805, 
395, 1102, 707, -749, -156, 905, -1098, -1151, -1063, 1302, 3259, 2093, 
502, 1210, 707, -856, -102, 958, -1200, -1171, -1127, 1337, 3430, 2230, 
575, 1156, 580, -866, -2, 868, -1244, -1146, -1254, 1171, 3147, 2103, 
619, 932, 312, -775, 153, 622, -1220, -1039, -1327, 902, 2581, 1849, 
610, 702, 92, -656, 258, 397, -1166, -951, -1405, 429, 1712, 1478, 
580, 590, 9, -585, 285, 300, -1122, -990, -1615, -385, 556, 1024, 
541, 546, 4, -544, 268, 275, -1132, -1127, -1942, -1263, -424, 610, 
551, 478, -73, -514, 312, 202, -1156, -1205, -2205, -1917, -1029, 297, 
580, 312, -268, -446, 424, 21, -1102, -1137, -2235, -2156, -1307, 58, 
570, 117, -453, -344, 512, -168, -956, -995, -2034, -2015, -1317, -136, 
497, -29, -527, -234, 512, -278, -814, -878, -1790, -1781, -1244, -287, 
434, -97, -531, -168, 483, -314, -732, -824, -1620, -1634, -1200, -375, 
395, -126, -522, -134, 458, -324, -668, -756, -1483, -1498, -1132, -395, 
375, -156, -531, -109, 453, -344, -575, -658, -1288, -1322, -1019, -409, 
336, -200, -536, -68, 436, -368, -463, -541, -1102, -1132, -907, -405, 
307, -253, -561, -26, 434, -407, -375, -444, -946, -990, -810, -395, 
268, -292, -561, 12, 414, -427, -307, -361, -814, -858, -722, -400, 
224, -292, -517, 34, 370, -405, -268, -297, -712, -741, -649, -400, 
180, -258, -439, 39, 309, -348, -219, -234, -590, -634, -556, -380, 
146, -209, -356, 31, 251, -283, -165, -165, -473, -502, -458, -351, 
102, -151, -253, 24, 178, -202, -97, -102, -351, -385, -370, -331, 
53, -107, -161, 26, 107, -134, -53, -68, -263, -292, -297, -312, 
34, -73, -107, 19, 70, -90, -29, -29, -200, -219, -239, -268, 
24, -53, -78, 14, 51, -65, 0, 4, -146, -146, -185, -253, 
9, -43, -53, 17, 31, -48, 19, 29, -107, -107, -151, -253, 
4, -43, -48, 19, 26, -46, 29, 39, -102, -102, -156, -253, 
-14, -58, -43, 36, 14, -51, 34, 34, -102, -112, -156, -258, 
-29, -68, -39, 48, 4, -53, 24, 24, -102, -107, -165, -268, 
-29, -68, -39, 48, 4, -53, 34, 29, -92, -97, -161, -268, 
-29, -68, -39, 48, 4, -53, 34, 34, -87, -87, -156, -268, 
-29, -68, -39, 48, 4, -53, 39, 43, -82, -82, -146, -263, 
-29, -58, -29, 43, 0, -43, 34, 48, -68, -87, -141, -273, 
-24, -53, -29, 39, 2, -41, 34, 58, -68, -82, -136, -258, 
-24, -48, -24, 36, 0, -36, 39, 58, -68, -78, -136, -258, 
-24, -48, -24, 36, 0, -36, 39, 58, -63, -73, -131, -258, 
-24, -48, -24, 36, 0, -36, 43, 58, -48, -73, -131, -248, 
-29, -53, -24, 41, -2, -39, 48, 58, -48, -73, -131, -253, 
-29, -53, -24, 41, -2, -39, 53, 63, -48, -73, -131, -253, 
-34, -58, -24, 46, -4, -41, 58, 63, -48, -73, -131, -253, 
-39, -68, -29, 53, -4, -48, 48, 58, -58, -73, -141, -258, 
-43, -73, -29, 58, -7, -51, 48, 58, -58, -73, -131, -258, 
-43, -73, -29, 58, -7, -51, 48, 58, -58, -73, -126, -258, 
-34, -68, -34, 51, 0, -51, 48, 63, -58, -68, -126, -253, 
-48, -73, -24, 61, -12, -48, 53, 63, -68, -78, -131, -263, 
-53, -78, -24, 65, -14, -51, 53, 58, -63, -78, -136, -268, 
-58, -82, -24, 70, -17, -53, 53, 53, -63, -78, -141, -278, 
-63, -87, -24, 75, -19, -56, 58, 48, -63, -78, -146, -287, 
-63, -82, -19, 73, -21, -51, 58, 58, -58, -68, -146, -278, 
-58, -87, -29, 73, -14, -58, 53, 58, -63, -68, -146, -273, 
-53, -82, -29, 68, -12, -56, 53, 58, -63, -73, -141, -273, 
-48, -78, -29, 63, -9, -53, 53, 58, -58, -73, -136, -268, 
-34, -73, -39, 53, 2, -56, 63, 63, -48, -68, -131, -268, 
-29, -68, -39, 48, 4, -53, 63, 73, -48, -68, -131, -268, 
-19, -58, -39, 39, 9, -48, 68, 78, -48, -63, -131, -268, 
-14, -48, -34, 31, 9, -41, 68, 82, -43, -63, -131, -268, 
-14, -48, -34, 31, 9, -41, 58, 78, -53, -73, -141, -268, 
-14, -53, -39, 34, 12, -46, 63, 78, -53, -78, -146, -268, 
-14, -53, -39, 34, 12, -46, 63, 78, -53, -78, -151, -278, 
-24, -58, -34, 41, 4, -46, 63, 78, -53, -78, -156, -278, 
-24, -53, -29, 39, 2, -41, 63, 82, -43, -68, -156, -278, 
-24, -53, -29, 39, 2, -41, 68, 82, -43, -73, -156, -283, 
-24, -58, -34, 41, 4, -46, 68, 82, -43, -73, -161, -283, 
-29, -58, -29, 43, 0, -43, 63, 82, -48, -78, -161, -283, 
-39, -78, -39, 58, 0, -58, 53, 73, -58, -87, -170, -292, 
-48, -87, -39, 68, -4, -63, 53, 73, -63, -87, -175, -302, 
-63, -107, -43, 85, -9, -75, 53, 73, -63, -92, -180, -302, 
-73, -117, -43, 95, -14, -80, 53, 78, -63, -92, -180, -302, 
-53, -102, -48, 78, -2, -75, 63, 87, -63, -92, -180, -302, 
-53, -87, -34, 70, -9, -61, 63, 87, -63, -92, -180, -302, 
-53, -97, -43, 75, -4, -70, 63, 92, -58, -92, -185, -302, 
-53, -92, -39, 73, -7, -65, 63, 92, -58, -97, -190, -312, 
-53, -107, -53, 80, 0, -80, 63, 82, -63, -102, -195, -317, 
-63, -112, -48, 87, -7, -80, 63, 82, -68, -107, -195, -317, 
-63, -112, -48, 87, -7, -80, 63, 82, -68, -107, -195, -322, 
-63, -112, -48, 87, -7, -80, 63, 87, -58, -107, -195, -322, 
-58, -122, -63, 90, 2, -92, 68, 87, -68, -117, -209, -331, 
-63, -122, -58, 92, -2, -90, 68, 87, -68, -117, -214, -331, 
-73, -122, -48, 97, -12, -85, 68, 92, -68, -117, -219, -336, 
-87, -126, -39, 107, -24, -82, 73, 92, -68, -122, -219, -336, 
-78, -112, -34, 95, -21, -73, 78, 102, -58, -117, -219, -341, 
-63, -102, -39, 82, -12, -70, 78, 102, -58, -117, -219, -341, 
-48, -97, -48, 73, 0, -73, 78, 102, -58, -112, -219, -341, 
-39, -92, -53, 65, 7, -73, 78, 107, -58, -107, -219, -346, 
-39, -97, -58, 68, 9, -78, 87, 107, -58, -107, -219, -336, 
-43, -107, -63, 75, 9, -85, 87, 107, -58, -117, -224, -346, 
-63, -112, -48, 87, -7, -80, 87, 102, -63, -117, -229, -351, 
-53, -112, -58, 82, 2, -85, 87, 102, -63, -117, -234, -356, 
-63, -112, -48, 87, -7, -80, 87, 107, -63, -107, -229, -356, 
-58, -112, -53, 85, -2, -82, 92, 112, -63, -112, -234, -356, 
-58, -112, -53, 85, -2, -82, 92, 112, -63, -112, -234, -361, 
-58, -112, -53, 85, -2, -82, 97, 112, -63, -112, -234, -361, 
-63, -117, -53, 90, -4, -85, 97, 107, -63, -122, -244, -366, 
-68, -122, -53, 95, -7, -87, 97, 112, -63, -126, -253, -366, 
-68, -126, -58, 97, -4, -92, 102, 112, -58, -126, -258, -370, 
-73, -131, -58, 102, -7, -95, 102, 107, -53, -126, -263, -375, 
-78, -126, -48, 102, -14, -87, 92, 117, -53, -126, -258, -375, 
-73, -126, -53, 100, -9, -90, 97, 122, -48, -136, -263, -380, 
-68, -126, -58, 97, -4, -92, 97, 122, -48, -141, -268, -385, 
-63, -131, -68, 97, 2, -100, 97, 122, -48, -141, -273, -385, 
-63, -126, -63, 95, 0, -95, 107, 136, -39, -136, -273, -390, 
-63, -126, -63, 95, 0, -95, 112, 136, -39, -136, -273, -390, 
-63, -126, -63, 95, 0, -95, 117, 141, -39, -131, -278, -390, 
-58, -122, -63, 90, 2, -92, 122, 141, -39, -131, -283, -395, 
-73, -126, -53, 100, -9, -90, 112, 131, -48, -141, -297, -400, 
-82, -136, -53, 109, -14, -95, 112, 131, -48, -141, -302, -409, 
-87, -146, -58, 117, -14, -102, 112, 131, -48, -146, -307, -419, 
-107, -151, -43, 129, -31, -97, 112, 131, -48, -151, -312, -434, 
-97, -146, -48, 122, -24, -97, 122, 136, -39, -146, -307, -434, 
-97, -156, -58, 126, -19, -107, 122, 136, -34, -151, -312, -439, 
-107, -165, -58, 136, -24, -112, 122, 136, -34, -151, -322, -444, 
-97, -156, -58, 126, -19, -107, 131, 141, -34, -151, -322, -444, 
-97, -165, -68, 131, -14, -117, 131, 141, -34, -161, -336, -448, 
-102, -170, -68, 136, -17, -119, 131, 146, -29, -165, -341, -453, 
-102, -170, -68, 136, -17, -119, 131, 146, -29, -165, -346, -453, 
-102, -170, -68, 136, -17, -119, 136, 151, -24, -165, -351, -458, 
-92, -156, -63, 124, -14, -109, 136, 156, -34, -156, -351, -458, 
-97, -156, -58, 126, -19, -107, 141, 156, -29, -156, -356, -463, 
-107, -170, -63, 139, -21, -117, 141, 156, -29, -161, -361, -473, 
-107, -175, -68, 141, -19, -122, 141, 156, -29, -161, -366, -478, 
-107, -165, -58, 136, -24, -112, 141, 156, -24, -161, -370, -483, 
-117, -170, -53, 143, -31, -112, 141, 161, -24, -165, -375, -492, 
-117, -170, -53, 143, -31, -112, 151, 161, -24, -165, -385, -497, 
-112, -161, -48, 136, -31, -104, 156, 175, -14, -165, -390, -497, 
-117, -170, -53, 143, -31, -112, 161, 165, -9, -175, -395, -512, 
-117, -175, -58, 146, -29, -117, 165, 165, -4, -175, -400, -512, 
-117, -180, -63, 148, -26, -122, 165, 170, -4, -175, -405, -517, 
-126, -195, -68, 161, -29, -131, 165, 170, 0, -175, -409, -527, 
-146, -209, -63, 178, -41, -136, 165, 175, -9, -185, -434, -546, 
-146, -209, -63, 178, -41, -136, 165, 175, 0, -190, -439, -551, 
-151, -214, -63, 183, -43, -139, 170, 175, 0, -190, -439, -561, 
-161, -214, -53, 187, -53, -134, 170, 180, 4, -190, -453, -570, 
-161, -219, -58, 190, -51, -139, 170, 185, 9, -190, -463, -570, 
-161, -224, -63, 192, -48, -143, 170, 185, 19, -190, -463, -580, 
-165, -234, -68, 200, -48, -151, 175, 190, 24, -195, -468, -585, 
-175, -244, -68, 209, -53, -156, 180, 195, 29, -195, -483, -600, 
-156, -229, -73, 192, -41, -151, 195, 209, 43, -190, -483, -590, 
-156, -219, -63, 187, -46, -141, 200, 214, 58, -185, -483, -595, 
-151, -214, -63, 183, -43, -139, 204, 219, 68, -175, -488, -605, 
-151, -209, -58, 180, -46, -134, 209, 224, 68, -170, -497, -614, 
-156, -200, -43, 178, -56, -122, 224, 224, 82, -170, -507, -624, 
-161, -200, -39, 180, -61, -119, 224, 224, 92, -170, -517, -634, 
-161, -195, -34, 178, -63, -114, 229, 234, 107, -170, -522, -644, 
-156, -185, -29, 170, -63, -107, 234, 239, 117, -165, -531, -653, 
-165, -200, -34, 183, -65, -117, 234, 239, 117, -165, -536, -663, 
-175, -204, -29, 190, -73, -117, 239, 244, 122, -165, -551, -668, 
-185, -209, -24, 197, -80, -117, 239, 244, 126, -161, -556, -678, 
-200, -219, -19, 209, -90, -119, 239, 248, 136, -161, -575, -688, 
-204, -219, -14, 212, -95, -117, 244, 239, 146, -156, -590, -702, 
-204, -209, -4, 207, -100, -107, 253, 239, 156, -151, -590, -712, 
-204, -209, -4, 207, -100, -107, 253, 244, 165, -146, -595, -712, 
-204, -204, 0, 204, -102, -102, 253, 244, 175, -141, -600, -717, 
-204, -204, 0, 204, -102, -102, 263, 244, 185, -136, -605, -727, 
-204, -204, 0, 204, -102, -102, 263, 248, 195, -131, -610, -732, 
-209, -200, 9, 204, -109, -95, 263, 253, 204, -122, -614, -741, 
-224, -195, 29, 209, -126, -82, 263, 253, 214, -122, -614, -741, 
-209, -175, 34, 192, -122, -70, 278, 263, 234, -107, -610, -736, 
-204, -161, 43, 183, -124, -58, 278, 258, 239, -92, -600, -736, 
-204, -151, 53, 178, -129, -48, 278, 258, 248, -92, -595, -736, 
-204, -136, 68, 170, -136, -34, 268, 253, 253, -87, -590, -746, 
-224, -141, 82, 183, -153, -29, 263, 248, 258, -82, -595, -736, 
-229, -146, 82, 187, -156, -31, 258, 244, 263, -68, -585, -736, 
-234, -141, 92, 187, -163, -24, 253, 239, 263, -48, -570, -727, 
-239, -141, 97, 190, -168, -21, 248, 229, 268, -43, -566, -727, 
-239, -141, 97, 190, -168, -21, 234, 224, 273, -29, -556, -727, 
-239, -136, 102, 187, -170, -17, 234, 224, 278, -19, -546, -722, 
-239, -122, 117, 180, -178, -2, 229, 219, 283, -9, -531, -717, 
-234, -112, 122, 173, -178, 4, 224, 214, 287, 9, -507, -702, 
-229, -112, 117, 170, -173, 2, 209, 209, 283, 24, -488, -678, 
-234, -107, 126, 170, -180, 9, 204, 200, 287, 39, -468, -668, 
-229, -102, 126, 165, -178, 12, 195, 190, 292, 39, -453, -658, 
-229, -92, 136, 161, -183, 21, 190, 185, 292, 58, -439, -634, 
-209, -63, 146, 136, -178, 41, 195, 190, 297, 82, -400, -610, 
-190, -53, 136, 122, -163, 41, 185, 185, 297, 92, -375, -585, 
-185, -39, 146, 112, -165, 53, 165, 170, 297, 97, -351, -566, 
-175, -29, 146, 102, -161, 58, 151, 161, 283, 112, -317, -546, 
-165, -14, 151, 90, -158, 68, 151, 161, 287, 131, -283, -527, 
-156, -4, 151, 80, -153, 73, 141, 146, 283, 141, -263, -502, 
-141, 4, 146, 68, -143, 75, 131, 146, 273, 151, -239, -483, 
-131, 14, 146, 58, -139, 80, 126, 131, 258, 156, -209, -453, 
-141, 9, 151, 65, -146, 80, 117, 131, 248, 161, -185, -424, 
-131, 9, 141, 61, -136, 75, 97, 122, 234, 170, -156, -405, 
-112, 19, 131, 46, -122, 75, 82, 117, 219, 175, -131, -375, 
-92, 29, 122, 31, -107, 75, 68, 107, 200, 185, -107, -356, 
-102, 39, 141, 31, -122, 90, 58, 97, 204, 185, -78, -331, 
-102, 29, 131, 36, -117, 80, 48, 87, 190, 185, -53, -307, 
-92, 29, 122, 31, -107, 75, 43, 78, 175, 190, -39, -292, 
-82, 29, 112, 26, -97, 70, 34, 78, 165, 190, -19, -263, 
-68, 39, 107, 14, -87, 73, 24, 63, 151, 180, -9, -258, 
-53, 43, 97, 4, -75, 70, 14, 58, 141, 180, 9, -239, 
-34, 58, 92, -12, -63, 75, 9, 53, 126, 180, 19, -219, 
-29, 58, 87, -14, -58, 73, 4, 48, 117, 180, 29, -200, 
-39, 48, 87, -4, -63, 68, 9, 53, 102, 175, 48, -195, 
-24, 48, 73, -12, -48, 61, 4, 48, 92, 170, 58, -180, 
-14, 53, 68, -19, -41, 61, -4, 43, 82, 170, 68, -175, 
-14, 53, 68, -19, -41, 61, -14, 39, 78, 170, 68, -161, 
-19, 58, 78, -19, -48, 68, -14, 34, 78, 156, 78, -156, 
-19, 48, 68, -14, -43, 58, -19, 34, 58, 156, 78, -151, 
-19, 39, 58, -9, -39, 48, -24, 34, 39, 156, 78, -146, 
-19, 39, 58, -9, -39, 48, -29, 34, 39, 151, 78, -141, 
-4, 53, 58, -24, -31, 56, -19, 29, 43, 146, 92, -126, 
-4, 53, 58, -24, -31, 56, -19, 29, 34, 141, 92, -122, 
0, 53, 53, -26, -26, 53, -19, 29, 34, 141, 97, -117, 
4, 53, 48, -29, -21, 51, -19, 29, 29, 141, 97, -112, 
-4, 53, 58, -24, -31, 56, -19, 24, 24, 141, 87, -122, 
0, 43, 43, -21, -21, 43, -29, 24, 19, 136, 87, -122, 
0, 43, 43, -21, -21, 43, -29, 24, 14, 136, 87, -117, 
0, 43, 43, -21, -21, 43, -29, 24, 14, 131, 92, -117, 
19, 53, 34, -36, -7, 43, -19, 34, 19, 131, 92, -107, 
24, 58, 34, -41, -4, 46, -14, 34, 19, 131, 92, -102, 
34, 68, 34, -51, 0, 51, -14, 34, 19, 131, 92, -102, 
39, 73, 34, -56, 2, 53, -14, 34, 19, 126, 92, -97, 
24, 63, 39, -43, -7, 51, -24, 24, 9, 112, 82, -107, 
24, 53, 29, -39, -2, 41, -24, 29, 9, 112, 82, -107, 
19, 43, 24, -31, -2, 34, -24, 29, -4, 107, 82, -107, 
14, 24, 9, -19, 2, 17, -29, 29, -9, 107, 73, -107, 
4, 24, 19, -14, -7, 21, -29, 19, -9, 97, 73, -107, 
4, 24, 19, -14, -7, 21, -29, 19, -9, 97, 78, -107, 
-4, 19, 24, -7, -14, 21, -29, 19, -14, 97, 78, -107, 
-9, 14, 24, -2, -17, 19, -34, 14, -14, 97, 73, -112, 
-24, -4, 19, 14, -21, 7, -43, 4, -29, 78, 53, -126, 
-24, -9, 14, 17, -19, 2, -39, 4, -34, 73, 48, -131, 
-24, -14, 9, 19, -17, -2, -39, 4, -34, 73, 48, -131, 
-19, -19, 0, 19, -9, -9, -39, 9, -29, 78, 53, -126, 
-4, 4, 9, 0, -7, 7, -29, 14, -24, 82, 63, -117, 
0, 14, 14, -7, -7, 14, -24, 19, -19, 87, 63, -117, 
4, 19, 14, -12, -4, 17, -24, 24, -9, 92, 63, -122, 
9, 29, 19, -19, -4, 24, -24, 29, 0, 97, 58, -122, 
0, 19, 19, -9, -9, 19, -34, 24, -9, 97, 58, -122, 
4, 24, 19, -14, -7, 21, -34, 24, -9, 97, 58, -122, 
4, 24, 19, -14, -7, 21, -34, 29, -14, 97, 58, -117, 
9, 24, 14, -17, -2, 19, -34, 29, -14, 97, 58, -117, 
24, 24, 0, -24, 12, 12, -19, 29, 0, 107, 68, -107, 
19, 24, 4, -21, 7, 14, -19, 29, 0, 102, 68, -112, 
24, 29, 4, -26, 9, 17, -19, 29, 0, 102, 68, -112, 
29, 34, 4, -31, 12, 19, -19, 29, 4, 107, 63, -112, 
14, 24, 9, -19, 2, 17, -29, 29, -4, 107, 53, -122, 
14, 19, 4, -17, 4, 12, -29, 29, -4, 102, 53, -122, 
9, 19, 9, -14, 0, 14, -29, 34, -4, 97, 53, -122, 
4, 14, 9, -9, -2, 12, -29, 34, -4, 92, 53, -122, 
-4, 4, 9, 0, -7, 7, -29, 24, -4, 102, 48, -126, 
-4, 4, 9, 0, -7, 7, -29, 24, -4, 97, 48, -126, 
0, 4, 4, -2, -2, 4, -29, 24, -4, 97, 53, -126, 
4, 4, 0, -4, 2, 2, -29, 24, -4, 102, 53, -126, 
4, 19, 14, -12, -4, 17, -19, 34, -4, 102, 53, -117, 
4, 19, 14, -12, -4, 17, -14, 39, 0, 102, 53, -117, 
9, 24, 14, -17, -2, 19, -14, 39, 0, 102, 53, -117, 
9, 24, 14, -17, -2, 19, -14, 43, 4, 107, 53, -112, 
19, 24, 4, -21, 7, 14, -14, 43, 4, 107, 53, -122, 
9, 19, 9, -14, 0, 14, -14, 34, 4, 107, 53, -126, 
9, 9, 0, -9, 4, 4, -14, 34, 4, 107, 53, -126, 
4, 4, 0, -4, 2, 2, -14, 34, 4, 107, 53, -126, 
-9, 0, 9, 4, -9, 4, -19, 34, 4, 117, 53, -126, 
-14, -4, 9, 9, -12, 2, -19, 34, 4, 107, 53, -126, 
-14, -9, 4, 12, -9, -2, -14, 34, 4, 107, 53, -126, 
-9, -14, -4, 12, -2, -9, -14, 39, 9, 117, 53, -126, 
0, -4, -4, 2, 2, -4, -14, 39, 9, 117, 58, -126, 
0, 0, 0, 0, 0, 0, -14, 39, 9, 117, 58, -126, 
0, 4, 4, -2, -2, 4, -14, 39, 9, 122, 58, -126, 
4, 14, 9, -9, -2, 12, -14, 39, 14, 122, 48, -126, 
14, 24, 9, -19, 2, 17, -4, 53, 34, 122, 68, -117, 
14, 24, 9, -19, 2, 17, 0, 53, 39, 126, 73, -117, 
19, 29, 9, -24, 4, 19, 0, 53, 39, 126, 73, -117, 
19, 34, 14, -26, 2, 24, 0, 53, 39, 126, 73, -117, 
19, 29, 9, -24, 4, 19, -9, 48, 34, 122, 73, -126, 
19, 29, 9, -24, 4, 19, -4, 48, 34, 122, 78, -122, 
14, 24, 9, -19, 2, 17, -4, 43, 29, 126, 78, -122, 
4, 19, 14, -12, -4, 17, -9, 39, 24, 126, 78, -122, 
-4, -9, -4, 7, 0, -7, -19, 34, 24, 117, 63, -136, 
-14, -14, 0, 14, -7, -7, -19, 34, 24, 112, 63, -136, 
-24, -24, 0, 24, -12, -12, -19, 34, 24, 112, 63, -136, 
-29, -29, 0, 29, -14, -14, -19, 34, 29, 112, 63, -136, 
-4, -4, 0, 4, -2, -2, -9, 43, 34, 117, 68, -131, 
4, 4, 0, -4, 2, 2, -4, 43, 34, 126, 73, -126, 
14, 19, 4, -17, 4, 12, -4, 43, 34, 131, 78, -122, 
24, 29, 4, -26, 9, 17, 0, 43, 34, 136, 82, -117, 
14, 19, 4, -17, 4, 12, -9, 34, 34, 126, 78, -126, 
4, 4, 0, -4, 2, 2, -14, 34, 34, 126, 73, -126, 
-14, -9, 4, 12, -9, -2, -14, 34, 29, 126, 68, -131, 
-24, -19, 4, 21, -14, -7, -19, 34, 24, 126, 63, -131, 
-14, -4, 9, 9, -12, 2, -9, 43, 34, 136, 73, -122, 
-9, -4, 4, 7, -7, 0, -9, 43, 39, 136, 73, -117, 
0, 0, 0, 0, 0, 0, -9, 43, 43, 136, 73, -117, 
4, 4, 0, -4, 2, 2, -9, 43, 43, 136, 73, -117, 
0, -4, -4, 2, 2, -4, -9, 43, 34, 126, 73, -126, 
-4, -9, -4, 7, 0, -7, -9, 43, 34, 126, 73, -126, 
-9, -9, 0, 9, -4, -4, -4, 43, 34, 126, 73, -126, 
-14, -4, 9, 9, -12, 2, -4, 43, 34, 126, 73, -122, 
-4, 0, 4, 2, -4, 2, -4, 43, 43, 136, 78, -112, 
0, 0, 0, 0, 0, 0, -4, 43, 43, 136, 78, -112, 
4, 4, 0, -4, 2, 2, -4, 43, 43, 136, 78, -112, 
9, 14, 4, -12, 2, 9, -4, 43, 43, 136, 73, -112, 
14, 14, 0, -14, 7, 7, -9, 43, 39, 136, 82, -102, 
14, 14, 0, -14, 7, 7, -9, 43, 39, 136, 82, -102, 
14, 14, 0, -14, 7, 7, -9, 43, 39, 131, 82, -107, 
9, 14, 4, -12, 2, 9, -9, 43, 39, 131, 82, -107, 
-4, 0, 4, 2, -4, 2, -14, 34, 29, 122, 73, -107, 
-9, 0, 9, 4, -9, 4, -14, 34, 24, 122, 73, -112, 
-14, -4, 9, 9, -12, 2, -19, 34, 19, 122, 73, -117, 
-24, -19, 4, 21, -14, -7, -19, 34, 14, 112, 68, -126, 
-29, -9, 19, 19, -24, 4, -9, 43, 24, 122, 63, -117, 
-24, -4, 19, 14, -21, 7, -14, 39, 29, 122, 63, -117, 
-14, 0, 14, 7, -14, 7, -14, 39, 29, 122, 68, -112, 
-9, 4, 14, 2, -12, 9, -14, 39, 29, 122, 68, -112, 
4, 9, 4, -7, 0, 7, -4, 43, 29, 131, 78, -102, 
9, 29, 19, -19, -4, 24, -4, 43, 29, 131, 78, -102, 
29, 48, 19, -39, 4, 34, -4, 48, 29, 131, 78, -97, 
39, 53, 14, -46, 12, 34, 0, 48, 34, 136, 82, -97, 
29, 48, 19, -39, 4, 34, 0, 48, 39, 136, 82, -92, 
24, 34, 9, -29, 7, 21, 0, 48, 39, 136, 82, -92, 
19, 29, 9, -24, 4, 19, 0, 48, 29, 126, 78, -97, 
14, 19, 4, -17, 4, 12, -4, 48, 24, 126, 73, -102, 
0, 4, 4, -2, -2, 4, -9, 39, 14, 117, 68, -107, 
-9, -9, 0, 9, -4, -4, -14, 34, 4, 112, 68, -112, 
-19, -19, 0, 19, -9, -9, -19, 29, 4, 107, 63, -117, 
-29, -24, 4, 26, -17, -9, -24, 24, 4, 102, 53, -122, 
-24, -19, 4, 21, -14, -7, -19, 24, 14, 112, 63, -122, 
-19, -14, 4, 17, -12, -4, -19, 24, 14, 107, 58, -122, 
-19, -14, 4, 17, -12, -4, -19, 24, 14, 107, 58, -122, 
-14, -9, 4, 12, -9, -2, -19, 24, 14, 107, 58, -122, 
-9, -4, 4, 7, -7, 0, -19, 24, 14, 112, 63, -122, 
0, 4, 4, -2, -2, 4, -14, 24, 14, 112, 63, -117, 
0, 4, 4, -2, -2, 4, -14, 24, 19, 112, 63, -117, 
9, 9, 0, -9, 4, 4, -14, 29, 24, 117, 63, -117, 
19, 19, 0, -19, 9, 9, -14, 39, 24, 117, 73, -112, 
19, 19, 0, -19, 9, 9, -14, 34, 24, 112, 73, -112, 
14, 19, 4, -17, 4, 12, -14, 34, 24, 112, 73, -107, 
14, 19, 4, -17, 4, 12, -14, 34, 19, 112, 73, -107, 
14, 19, 4, -17, 4, 12, -14, 24, 19, 112, 63, -97, 
9, 9, 0, -9, 4, 4, -19, 24, 14, 112, 63, -97, 
4, 9, 4, -7, 0, 7, -19, 24, 14, 112, 63, -97, 
4, 14, 9, -9, -2, 12, -19, 24, 14, 112, 68, -92, 
4, 9, 4, -7, 0, 7, -14, 34, 9, 112, 68, -102, 
9, 14, 4, -12, 2, 9, -14, 34, 9, 117, 68, -97, 
9, 14, 4, -12, 2, 9, -14, 34, 9, 117, 68, -97, 
9, 14, 4, -12, 2, 9, -19, 34, 9, 117, 68, -102, 
14, 19, 4, -17, 4, 12, -9, 34, 14, 122, 68, -107, 
14, 19, 4, -17, 4, 12, -9, 34, 14, 122, 68, -107, 
14, 29, 14, -21, 0, 21, -9, 34, 14, 122, 68, -107, 
14, 14, 0, -14, 7, 7, -9, 34, 14, 122, 68, -107, 
19, 14, -4, -17, 12, 4, -14, 29, 24, 117, 68, -107, 
19, 19, 0, -19, 9, 9, -14, 29, 19, 117, 68, -107, 
24, 29, 4, -26, 9, 17, -14, 29, 19, 117, 68, -107, 
24, 34, 9, -29, 7, 21, -14, 29, 19, 117, 68, -107, 
9, 34, 24, -21, -7, 29, -24, 19, 9, 112, 58, -107, 
14, 29, 14, -21, 0, 21, -19, 19, 9, 107, 58, -107, 
9, 19, 9, -14, 0, 14, -19, 24, 14, 107, 58, -102, 
4, 9, 4, -7, 0, 7, -19, 24, 14, 102, 58, -102, 
-4, 9, 14, -2, -9, 12, -19, 24, 4, 112, 58, -102, 
-14, 9, 24, 2, -19, 17, -19, 24, 4, 112, 58, -102, 
-4, 4, 9, 0, -7, 7, -19, 24, 4, 112, 58, -102, 
-4, 4, 9, 0, -7, 7, -19, 24, 4, 112, 58, -102, 
0, 9, 9, -4, -4, 9, -9, 29, 4, 112, 63, -102, 
0, 9, 9, -4, -4, 9, -9, 29, 9, 112, 63, -97, 
0, 14, 14, -7, -7, 14, -9, 34, 9, 112, 63, -97, 
-9, 14, 24, -2, -17, 19, -9, 34, 4, 112, 63, -102, 
4, 19, 14, -12, -4, 17, 0, 43, 9, 122, 63, -92, 
9, 24, 14, -17, -2, 19, 0, 34, 14, 122, 63, -92, 
9, 24, 14, -17, -2, 19, -4, 34, 14, 117, 58, -97, 
9, 24, 14, -17, -2, 19, -4, 29, 14, 112, 58, -97, 
19, 34, 14, -26, 2, 24, 4, 34, 19, 117, 68, -87, 
29, 48, 19, -39, 4, 34, 0, 39, 29, 126, 78, -87, 
14, 34, 19, -24, -2, 26, -4, 29, 24, 122, 68, -92, 
9, 29, 19, -19, -4, 24, -9, 29, 19, 117, 68, -97, 
4, 24, 19, -14, -7, 21, -14, 29, 14, 112, 68, -102, 
0, 19, 19, -9, -9, 19, -19, 29, 9, 107, 68, -107, 
0, 19, 19, -9, -9, 19, -19, 19, 9, 107, 68, -97, 
0, 19, 19, -9, -9, 19, -19, 19, 9, 107, 68, -97, 
0, 19, 19, -9, -9, 19, -19, 19, 9, 107, 68, -97, 
0, 19, 19, -9, -9, 19, -19, 19, 9, 107, 68, -97, 
0, 19, 19, -9, -9, 19, -19, 19, 9, 107, 58, -107, 
0, 19, 19, -9, -9, 19, -19, 19, 9, 107, 58, -107, 
0, 19, 19, -9, -9, 19, -19, 19, 9, 107, 58, -107, 
0, 19, 19, -9, -9, 19, -19, 19, 9, 107, 58, -107, 
0, 19, 19, -9, -9, 19, -19, 19, 9, 107, 68, -97, 
0, 19, 19, -9, -9, 19, -19, 19, 9, 107, 68, -97, 
0, 19, 19, -9, -9, 19, -19, 19, 9, 107, 68, -97, 
0, 19, 19, -9, -9, 19, -19, 19, 9, 107, 68, -97, 
-9, 9, 19, 0, -14, 14, -19, 19, 9, 107, 58, -97, 
-9, 9, 19, 0, -14, 14, -19, 19, 9, 107, 58, -97, 
-9, 9, 19, 0, -14, 14, -19, 19, 9, 107, 58, -97, 
-9, 9, 19, 0, -14, 14, -19, 19, 9, 107, 58, -97, 
-4, 14, 19, -4, -12, 17, -9, 29, 9, 117, 68, -87, 
0, 19, 19, -9, -9, 19, -9, 29, 9, 117, 68, -87, 
4, 24, 19, -14, -7, 21, -9, 29, 9, 117, 68, -87, 
9, 29, 19, -19, -4, 24, -9, 29, 9, 117, 68, -87, 
0, 19, 19, -9, -9, 19, -19, 19, 9, 107, 58, -97, 
0, 19, 19, -9, -9, 19, -19, 19, 9, 107, 58, -97, 
0, 19, 19, -9, -9, 19, -19, 19, 9, 107, 58, -97, 
0, 19, 19, -9, -9, 19, -19, 19, 9, 107, 58, -97, 
9, 29, 19, -19, -4, 24, -9, 19, 9, 107, 58, -97, 
9, 29, 19, -19, -4, 24, -9, 19, 9, 107, 58, -97, 
9, 29, 19, -19, -4, 24, -9, 19, 9, 107, 58, -97, 
9, 29, 19, -19, -4, 24, -9, 19, 9, 107, 58, -97, 
9, 29, 19, -19, -4, 24, -9, 29, 19, 117, 68, -87, 
9, 29, 19, -19, -4, 24, -9, 29, 19, 117, 68, -87, 
9, 29, 19, -19, -4, 24, -9, 29, 19, 117, 68, -87, 
9, 29, 19, -19, -4, 24, -9, 29, 19, 117, 68, -87, 
0, 19, 19, -9, -9, 19, -19, 19, 9, 107, 68, -97, 
0, 19, 19, -9, -9, 19, -19, 19, 9, 107, 68, -97, 
0, 19, 19, -9, -9, 19, -19, 19, 9, 107, 68, -97, 
0, 19, 19, -9, -9, 19, -19, 19, 9, 107, 68, -97, 
0, 19, 19, -9, -9, 19, -9, 19, 9, 107, 68, -97, 
0, 19, 19, -9, -9, 19, -9, 19, 9, 107, 68, -97, 
0, 19, 19, -9, -9, 19, -9, 19, 9, 107, 68, -97, 
0, 19, 19, -9, -9, 19, -9, 19, 9, 107, 68, -97, 
0, 19, 19, -9, -9, 19, -19, 19, 9, 107, 58, -87, 
0, 19, 19, -9, -9, 19, -19, 19, 9, 107, 58, -87, 
0, 19, 19, -9, -9, 19, -19, 19, 9, 107, 58, -87, 
0, 19, 19, -9, -9, 19, -19, 19, 9, 107, 58, -87, 
9, 24, 14, -17, -2, 19, -9, 19, 19, 107, 68, -87, 
9, 29, 19, -19, -4, 24, -9, 19, 19, 107, 68, -87, 
9, 34, 24, -21, -7, 29, -9, 19, 19, 107, 68, -87, 
9, 39, 29, -24, -9, 34, -9, 19, 19, 107, 68, -87, 
0, 34, 34, -17, -17, 34, -19, 19, 9, 107, 58, -87, 
0, 29, 29, -14, -14, 29, -19, 19, 9, 107, 58, -87, 
0, 24, 24, -12, -12, 24, -19, 19, 9, 107, 58, -87, 
0, 19, 19, -9, -9, 19, -19, 19, 9, 107, 58, -87, 
-14, 4, 19, 4, -17, 12, -19, 9, 0, 97, 48, -97, 
-19, 0, 19, 9, -19, 9, -19, 9, 0, 97, 48, -97, 
-24, -4, 19, 14, -21, 7, -19, 9, 0, 97, 48, -97, 
-29, -9, 19, 19, -24, 4, -19, 9, 0, 97, 48, -97, 
-24, -4, 19, 14, -21, 7, -19, 9, 0, 97, 48, -97, 
-19, 0, 19, 9, -19, 9, -19, 9, 0, 97, 48, -97, 
-14, 4, 19, 4, -17, 12, -19, 9, 0, 97, 48, -97, 
-9, 9, 19, 0, -14, 14, -19, 9, 0, 97, 48, -97, 
-19, 9, 29, 4, -24, 19, -19, 9, 9, 97, 48, -97, 
-19, 9, 29, 4, -24, 19, -19, 9, 9, 97, 48, -97, 
-19, 9, 29, 4, -24, 19, -19, 9, 9, 97, 48, -97, 
-19, 9, 29, 4, -24, 19, -19, 9, 9, 97, 48, -97, 
-14, 19, 34, -2, -24, 26, -19, 19, 9, 97, 58, -87, 
-9, 19, 29, -4, -19, 24, -19, 19, 9, 97, 58, -87, 
-4, 19, 24, -7, -14, 21, -19, 19, 9, 97, 58, -87, 
0, 19, 19, -9, -9, 19, -19, 19, 9, 97, 58, -87, 
9, 19, 9, -14, 0, 14, -9, 19, 9, 107, 58, -78, 
9, 19, 9, -14, 0, 14, -9, 19, 9, 107, 58, -78, 
9, 19, 9, -14, 0, 14, -9, 19, 9, 107, 58, -78, 
9, 19, 9, -14, 0, 14, -9, 19, 9, 107, 58, -78, 
0, 29, 29, -14, -14, 29, -9, 19, 9, 107, 58, -87, 
0, 29, 29, -14, -14, 29, -9, 19, 9, 107, 58, -87, 
0, 29, 29, -14, -14, 29, -9, 19, 9, 107, 58, -87, 
0, 29, 29, -14, -14, 29, -9, 19, 9, 107, 58, -87, 
9, 29, 19, -19, -4, 24, -9, 19, 9, 107, 58, -78, 
9, 29, 19, -19, -4, 24, -9, 19, 9, 107, 58, -78, 
9, 29, 19, -19, -4, 24, -9, 19, 9, 107, 58, -78, 
9, 29, 19, -19, -4, 24, -9, 19, 9, 107, 58, -78, 
0, 19, 19, -9, -9, 19, -19, 19, 9, 107, 58, -87, 
0, 19, 19, -9, -9, 19, -19, 19, 9, 107, 58, -87, 
0, 19, 19, -9, -9, 19, -19, 19, 9, 107, 58, -87, 
0, 19, 19, -9, -9, 19, -19, 19, 9, 107, 58, -87, 
0, 19, 19, -9, -9, 19, -19, 19, 9, 107, 58, -87, 
0, 19, 19, -9, -9, 19, -19, 19, 9, 107, 58, -87, 
0, 19, 19, -9, -9, 19, -19, 19, 9, 107, 58, -87, 
0, 19, 19, -9, -9, 19, -19, 19, 9, 107, 58, -87, 
-4, 19, 24, -7, -14, 21, -19, 19, 9, 97, 58, -78, 
-9, 19, 29, -4, -19, 24, -19, 19, 9, 97, 58, -78, 
-14, 19, 34, -2, -24, 26, -19, 19, 9, 97, 58, -78, 
-19, 19, 39, 0, -29, 29, -19, 19, 9, 97, 58, -78, 
-9, 43, 53, -17, -31, 48, -4, 24, 29, 107, 73, -63, 
0, 58, 58, -29, -29, 58, 0, 29, 39, 117, 78, -58, 
9, 73, 63, -41, -26, 68, 4, 34, 48, 126, 82, -53, 
19, 87, 68, -53, -24, 78, 9, 39, 58, 136, 87, -48, 
24, 102, 78, -63, -26, 90, 14, 48, 78, 156, 97, -34, 
29, 117, 87, -73, -29, 102, 19, 48, 87, 165, 107, -29, 
34, 131, 97, -82, -31, 114, 24, 48, 97, 175, 117, -24, 
39, 146, 107, -92, -34, 126, 29, 48, 107, 185, 126, -19, 
24, 131, 107, -78, -41, 119, 39, 58, 117, 190, 136, -19, 
19, 126, 107, -73, -43, 117, 39, 58, 126, 195, 136, -19, 
14, 122, 107, -68, -46, 114, 39, 58, 136, 200, 136, -19, 
9, 117, 107, -63, -48, 112, 39, 58, 146, 204, 136, -19, 
19, 117, 97, -68, -39, 107, 43, 73, 156, 209, 146, -9, 
19, 117, 97, -68, -39, 107, 48, 78, 165, 214, 146, -9, 
19, 117, 97, -68, -39, 107, 53, 82, 175, 219, 146, -9, 
19, 117, 97, -68, -39, 107, 58, 87, 185, 224, 146, -9, 
29, 122, 92, -75, -31, 107, 48, 92, 200, 239, 161, -4, 
39, 126, 87, -82, -24, 107, 48, 97, 204, 244, 165, 0, 
48, 131, 82, -90, -17, 107, 48, 102, 209, 248, 170, 4, 
58, 136, 78, -97, -9, 107, 48, 107, 214, 253, 175, 9, 
58, 126, 68, -92, -4, 97, 39, 102, 200, 248, 165, 9, 
58, 126, 68, -92, -4, 97, 29, 97, 195, 244, 165, 9, 
58, 126, 68, -92, -4, 97, 19, 92, 190, 239, 165, 9, 
58, 126, 68, -92, -4, 97, 9, 87, 185, 234, 165, 9, 
53, 107, 53, -80, 0, 80, -4, 78, 156, 219, 156, -4, 
48, 97, 48, -73, 0, 73, -9, 68, 136, 204, 146, -9, 
43, 87, 43, -65, 0, 65, -14, 58, 117, 190, 136, -14, 
39, 78, 39, -58, 0, 58, -19, 48, 97, 175, 126, -19, 
29, 63, 34, -46, -2, 48, -34, 34, 73, 151, 107, -34, 
19, 58, 39, -39, -9, 48, -39, 19, 48, 136, 97, -39, 
9, 53, 43, -31, -17, 48, -43, 4, 24, 122, 87, -43, 
0, 48, 48, -24, -24, 48, -48, -9, 0, 107, 78, -48, 
4, 53, 48, -29, -21, 51, -39, -9, 9, 107, 78, -48, 
9, 58, 48, -34, -19, 53, -39, -9, 9, 107, 78, -48, 
14, 63, 48, -39, -17, 56, -39, -9, 9, 107, 78, -48, 
19, 68, 48, -43, -14, 58, -39, -9, 9, 107, 78, -48, 
14, 63, 48, -39, -17, 56, -39, 0, 0, 97, 68, -58, 
9, 58, 48, -34, -19, 53, -39, 0, 0, 97, 68, -58, 
4, 53, 48, -29, -21, 51, -39, 0, 0, 97, 68, -58, 
0, 48, 48, -24, -24, 48, -39, 0, 0, 97, 68, -58, 
-9, 48, 58, -19, -34, 53, -29, -9, 9, 97, 78, -48, 
-9, 48, 58, -19, -34, 53, -29, -9, 9, 97, 78, -48, 
-9, 48, 58, -19, -34, 53, -29, -9, 9, 97, 78, -48, 
-9, 48, 58, -19, -34, 53, -29, -9, 9, 97, 78, -48, 
-9, 58, 68, -24, -39, 63, -39, -9, 0, 97, 78, -39, 
-9, 58, 68, -24, -39, 63, -39, -9, 0, 97, 78, -39, 
-9, 58, 68, -24, -39, 63, -39, -9, 0, 97, 78, -39, 
-9, 58, 68, -24, -39, 63, -39, -9, 0, 97, 78, -39, 
14, 73, 58, -43, -21, 65, -29, 0, 9, 102, 92, -29, 
24, 78, 53, -51, -14, 65, -29, 0, 9, 112, 92, -29, 
29, 82, 53, -56, -12, 68, -29, 0, 9, 117, 92, -29, 
19, 78, 58, -48, -19, 68, -29, -4, 9, 112, 92, -29, 
4, 48, 43, -26, -19, 46, -39, -9, -4, 102, 78, -43, 
-9, 34, 43, -12, -26, 39, -43, -14, -19, 87, 58, -58, 
-29, 4, 34, 12, -31, 19, -48, -19, -29, 73, 53, -73, 
-43, -19, 24, 31, -34, 2, -53, -29, -39, 53, 34, -82, 
-39, -9, 29, 24, -34, 9, -53, -39, -43, 48, 43, -78, 
-34, -9, 24, 21, -29, 7, -53, -39, -48, 43, 39, -78, 
-14, -4, 9, 9, -12, 2, -53, -39, -48, 39, 39, -78, 
-4, -4, 0, 4, -2, -2, -53, -39, -48, 39, 39, -78, 
4, 0, -4, -2, 4, -2, -53, -29, -43, 48, 29, -78, 
4, -4, -9, 0, 7, -7, -53, -29, -48, 39, 29, -78, 
4, 0, -4, -2, 4, -2, -58, -29, -48, 34, 29, -87, 
-4, -14, -9, 9, 2, -12, -58, -29, -58, 29, 19, -92, 
0, -14, -14, 7, 7, -14, -53, -24, -48, 34, 19, -92, 
0, -14, -14, 7, 7, -14, -48, -14, -39, 39, 24, -92, 
-4, -14, -9, 9, 2, -12, -39, -4, -39, 43, 29, -97, 
-9, -9, 0, 9, -4, -4, -29, 9, -39, 53, 34, -102, 
-19, -9, 9, 14, -14, 0, -24, 4, -29, 58, 34, -92, 
-24, -4, 19, 14, -21, 7, -19, 14, -14, 68, 43, -87, 
-29, 4, 34, 12, -31, 19, -14, 19, -9, 73, 48, -78, 
-34, -4, 29, 19, -31, 12, -14, 19, -4, 78, 53, -73, 
-34, -4, 29, 19, -31, 12, -14, 19, -9, 73, 48, -73, 
-34, 0, 34, 17, -34, 17, -14, 19, -9, 73, 48, -73, 
-34, 0, 34, 17, -34, 17, -14, 19, -9, 73, 53, -73, 
-34, 4, 39, 14, -36, 21, -14, 19, -9, 78, 53, -73, 
-34, -4, 29, 19, -31, 12, -24, 0, -14, 68, 43, -73, 
-34, -4, 29, 19, -31, 12, -24, 0, -14, 68, 43, -73, 
-29, -4, 24, 17, -26, 9, -24, -4, -19, 63, 43, -68, 
-29, -4, 24, 17, -26, 9, -24, -4, -24, 63, 43, -68, 
-39, -14, 24, 26, -31, 4, -14, -4, -14, 48, 34, -82, 
-48, -24, 24, 36, -36, 0, -14, -4, -19, 43, 29, -87, 
-48, -24, 24, 36, -36, 0, -14, -4, -19, 39, 24, -92, 
-48, -24, 24, 36, -36, 0, -14, -4, -19, 39, 24, -92, 
-43, -24, 19, 34, -31, -2, -14, 4, -19, 43, 39, -87, 
-43, -19, 24, 31, -34, 2, -14, 4, -19, 43, 43, -87, 
-43, -14, 29, 29, -36, 7, -14, 4, -14, 43, 43, -87, 
-43, -14, 29, 29, -36, 7, -9, 4, -14, 43, 43, -87, 
-24, 4, 29, 9, -26, 17, -9, 4, -9, 58, 53, -78, 
-19, 9, 29, 4, -24, 19, -9, 4, -9, 58, 53, -78, 
-14, 14, 29, 0, -21, 21, -9, 4, -14, 58, 48, -78, 
-14, 14, 29, 0, -21, 21, -9, 4, -14, 53, 48, -78, 
-19, 4, 24, 7, -21, 14, -9, 4, -14, 53, 39, -78, 
-24, 4, 29, 9, -26, 17, -9, 4, -14, 53, 39, -82, 
-29, 4, 34, 12, -31, 19, -9, 4, -14, 53, 39, -82, 
-43, -4, 39, 24, -41, 17, -9, 4, -19, 53, 39, -82, 
-48, -19, 29, 34, -39, 4, -14, 0, -19, 43, 39, -92, 
-48, -19, 29, 34, -39, 4, -14, 0, -19, 43, 39, -92, 
-48, -19, 29, 34, -39, 4, -14, 0, -19, 43, 39, -92, 
-43, -9, 34, 26, -39, 12, -14, 0, -19, 43, 39, -92, 
-34, -4, 29, 19, -31, 12, 0, 9, -4, 58, 39, -78, 
-29, 4, 34, 12, -31, 19, 0, 14, -4, 58, 43, -78, 
-24, 9, 34, 7, -29, 21, 0, 14, -4, 58, 43, -78, 
-19, 14, 34, 2, -26, 24, 0, 14, -4, 58, 43, -73, 
-29, 4, 34, 12, -31, 19, -9, 14, -4, 58, 43, -82, 
-34, 0, 34, 17, -34, 17, -4, 9, -9, 53, 39, -82, 
-48, -14, 34, 31, -41, 9, -4, 0, -14, 43, 34, -82, 
-58, -24, 34, 41, -46, 4, -9, -4, -19, 39, 24, -87, 
-48, -14, 34, 31, -41, 9, -9, -4, -14, 48, 34, -87, 
-43, -4, 39, 24, -41, 17, -9, -4, -14, 53, 34, -82, 
-43, -4, 39, 24, -41, 17, -9, -4, -14, 53, 39, -82, 
-43, -4, 39, 24, -41, 17, -9, -4, -14, 53, 39, -82, 
-48, -14, 34, 31, -41, 9, -9, 0, -19, 48, 43, -82, 
-48, 0, 48, 24, -48, 24, -9, 0, -19, 48, 43, -82, 
-43, 4, 48, 19, -46, 26, -9, 0, -14, 48, 43, -82, 
-43, 9, 53, 17, -48, 31, -9, 0, -14, 48, 43, -82, 
-34, 0, 34, 17, -34, 17, -9, 0, -14, 48, 43, -73, 
-34, 9, 43, 12, -39, 26, -9, 4, -14, 48, 48, -78, 
-34, 9, 43, 12, -39, 26, -9, 4, -9, 48, 48, -78, 
-29, 9, 39, 9, -34, 24, -9, 4, -9, 48, 48, -78, 
-39, 14, 53, 12, -46, 34, -9, 0, -14, 48, 39, -87, 
-39, 14, 53, 12, -46, 34, -9, 0, -14, 48, 39, -87, 
-39, 14, 53, 12, -46, 34, -9, 4, -9, 53, 39, -87, 
-39, 14, 53, 12, -46, 34, -9, 4, -9, 53, 39, -87, 
-29, 14, 43, 7, -36, 29, -9, -4, -19, 43, 48, -78, 
-34, 14, 48, 9, -41, 31, -9, -9, -14, 43, 48, -78, 
-34, 14, 48, 9, -41, 31, -9, -9, -14, 43, 48, -78, 
-34, 4, 39, 14, -36, 21, -9, -9, -19, 43, 48, -78, 
-29, 24, 53, 2, -41, 39, -9, 0, -9, 53, 48, -73, 
-34, 19, 53, 7, -43, 36, -9, 4, 0, 53, 48, -73, 
-34, 24, 58, 4, -46, 41, -4, 14, 14, 68, 53, -73, 
-34, 24, 58, 4, -46, 41, 4, 24, 43, 97, 73, -63, 
-34, 24, 58, 4, -46, 41, 19, 43, 97, 131, 87, -63, 
-34, 29, 63, 2, -48, 46, 53, 92, 195, 200, 117, -53, 
-34, 39, 73, -2, -53, 56, 78, 141, 312, 287, 165, -39, 
-29, 63, 92, -17, -61, 78, 97, 175, 458, 419, 248, -4, 
-29, 97, 126, -34, -78, 112, 107, 209, 614, 566, 341, 48, 
-39, 131, 170, -46, -104, 151, 126, 258, 766, 712, 419, 87, 
-43, 175, 219, -65, -131, 197, 131, 287, 946, 858, 492, 117, 
-34, 248, 283, -107, -158, 265, 122, 278, 1068, 980, 580, 185, 
-14, 336, 351, -161, -183, 344, 82, 200, 990, 1029, 688, 268, 
0, 405, 405, -202, -202, 405, -9, 53, 663, 980, 814, 390, 
14, 468, 453, -241, -219, 461, -122, -131, 326, 927, 966, 527, 
34, 541, 507, -287, -236, 524, -214, -278, 107, 946, 1171, 702, 
78, 619, 541, -348, -231, 580, -341, -448, -141, 946, 1400, 888, 
136, 702, 566, -419, -214, 634, -517, -658, -448, 917, 1654, 1112, 
209, 785, 575, -497, -183, 680, -702, -844, -697, 971, 1942, 1332, 
263, 883, 619, -573, -178, 751, -902, -1000, -849, 1117, 2303, 1556, 
317, 985, 668, -651, -175, 827, -1083, -1146, -932, 1327, 2727, 1815, 
375, 1112, 736, -744, -180, 924, -1234, -1239, -976, 1488, 3132, 2064, 
453, 1171, 717, -812, -131, 944, -1327, -1259, -1078, 1483, 3225, 2142, 
536, 1098, 561, -817, -12, 829, -1342, -1195, -1205, 1268, 2893, 1995, 
639, 912, 273, -775, 183, 592, -1259, -1039, -1259, 951, 2308, 1732, 
649, 712, 63, -680, 292, 387, -1185, -941, -1307, 468, 1498, 1390, 
580, 600, 19, -590, 280, 309, -1180, -1019, -1566, -346, 448, 976, 
531, 527, -4, -529, 268, 261, -1229, -1185, -1952, -1234, -434, 600, 
561, 458, -102, -509, 331, 178, -1244, -1263, -2244, -1898, -980, 307, 
610, 331, -278, -470, 444, 26, -1180, -1205, -2283, -2166, -1259, 78, 
580, 136, -444, -358, 512, -153, -1044, -1073, -2103, -2054, -1307, -136, 
488, -29, -517, -229, 502, -273, -893, -966, -1859, -1830, -1273, -326, 
424, -126, -551, -148, 488, -339, -780, -883, -1668, -1664, -1239, -444, 
395, -175, -570, -109, 483, -373, -678, -775, -1503, -1517, -1151, -463, 
375, -214, -590, -80, 483, -402, -556, -658, -1288, -1312, -1039, -458, 
346, -258, -605, -43, 475, -431, -444, -541, -1093, -1141, -927, -453, 
297, -302, -600, 2, 448, -451, -366, -453, -946, -990, -829, -444, 
258, -331, -590, 36, 424, -461, -307, -370, -805, -868, -741, -429, 
224, -322, -546, 48, 385, -434, -248, -297, -692, -751, -658, -400, 
170, -278, -448, 53, 309, -363, -200, -234, -590, -644, -575, -380, 
117, -229, -346, 56, 231, -287, -146, -175, -473, -512, -478, -341, 
73, -170, -244, 48, 158, -207, -78, -102, -341, -385, -370, -312, 
24, -126, -151, 51, 87, -139, -34, -58, -244, -283, -297, -283, 
-4, -102, -97, 53, 46, -100, 0, -29, -180, -209, -239, -239, 
-43, -92, -48, 68, 2, -70, 29, 4, -117, -146, -175, -214, 
-68, -82, -14, 75, -26, -48, 58, 29, -68, -107, -151, -214, 
-73, -92, -19, 82, -26, -56, 58, 39, -63, -102, -156, -224, 
-82, -97, -14, 90, -34, -56, 53, 34, -73, -112, -156, -229, 
-87, -97, -9, 92, -39, -53, 53, 34, -63, -107, -156, -219, 
-87, -97, -9, 92, -39, -53, 63, 39, -53, -97, -151, -219, 
-87, -97, -9, 92, -39, -53, 63, 43, -48, -87, -146, -219, 
-87, -97, -9, 92, -39, -53, 68, 53, -43, -82, -136, -214, 
-97, -97, 0, 97, -48, -48, 63, 48, -39, -87, -141, -219, 
-92, -92, 0, 92, -46, -46, 63, 58, -39, -82, -136, -209, 
-92, -87, 4, 90, -48, -41, 68, 58, -39, -78, -136, -214, 
-92, -87, 4, 90, -48, -41, 68, 58, -34, -73, -131, -219, 
-87, -82, 4, 85, -46, -39, 78, 68, -19, -63, -122, -214, 
-87, -82, 4, 85, -46, -39, 78, 68, -19, -63, -122, -214, 
-82, -78, 4, 80, -43, -36, 78, 73, -19, -63, -122, -209, 
-82, -78, 4, 80, -43, -36, 78, 73, -19, -63, -122, -204, 
-87, -78, 9, 82, -48, -34, 87, 78, -19, -63, -131, -209, 
-92, -82, 9, 87, -51, -36, 87, 78, -19, -63, -122, -209, 
-92, -82, 9, 87, -51, -36, 87, 78, -19, -63, -117, -209, 
-82, -78, 4, 80, -43, -36, 87, 82, -19, -58, -117, -204, 
-82, -87, -4, 85, -39, -46, 92, 78, -29, -58, -126, -209, 
-82, -87, -4, 85, -39, -46, 92, 78, -24, -58, -126, -209, 
-82, -87, -4, 85, -39, -46, 92, 78, -24, -58, -126, -214, 
-82, -87, -4, 85, -39, -46, 97, 78, -24, -58, -126, -219, 
-78, -73, 4, 75, -41, -34, 107, 87, -24, -58, -122, -219, 
-78, -78, 0, 78, -39, -39, 102, 87, -24, -58, -126, -214, 
-78, -73, 4, 75, -41, -34, 102, 87, -19, -63, -126, -214, 
-78, -68, 9, 73, -43, -29, 102, 87, -9, -63, -126, -209, 
-87, -87, 0, 87, -43, -43, 97, 78, -14, -78, -141, -219, 
-97, -97, 0, 97, -48, -48, 92, 82, -19, -78, -141, -219, 
-102, -102, 0, 102, -51, -51, 92, 82, -24, -73, -141, -219, 
-112, -107, 4, 109, -58, -51, 87, 82, -24, -73, -141, -219, 
-112, -117, -4, 114, -53, -61, 87, 87, -24, -73, -141, -229, 
-112, -122, -9, 117, -51, -65, 92, 87, -24, -78, -146, -229, 
-112, -122, -9, 117, -51, -65, 92, 87, -24, -78, -151, -239, 
-122, -126, -4, 124, -58, -65, 92, 87, -24, -78, -156, -239, 
-117, -117, 0, 117, -58, -58, 92, 102, -24, -68, -146, -229, 
-112, -112, 0, 112, -56, -56, 97, 102, -24, -73, -146, -234, 
-107, -112, -4, 109, -51, -58, 97, 102, -24, -73, -151, -234, 
-107, -107, 0, 107, -53, -53, 92, 102, -29, -78, -151, -234, 
-107, -107, 0, 107, -53, -53, 102, 102, -19, -87, -161, -234, 
-107, -107, 0, 107, -53, -53, 102, 102, -24, -87, -165, -244, 
-112, -117, -4, 114, -53, -61, 102, 102, -24, -92, -170, -244, 
-112, -117, -4, 114, -53, -61, 102, 107, -24, -92, -170, -244, 
-112, -112, 0, 112, -56, -56, 102, 97, -34, -92, -170, -244, 
-112, -107, 4, 109, -58, -51, 102, 97, -34, -92, -170, -244, 
-112, -126, -14, 119, -48, -70, 102, 102, -29, -92, -175, -244, 
-112, -131, -19, 122, -46, -75, 102, 102, -29, -97, -180, -253, 
-97, -122, -24, 109, -36, -73, 112, 112, -24, -92, -175, -248, 
-102, -122, -19, 112, -41, -70, 112, 112, -29, -97, -175, -248, 
-97, -117, -19, 107, -39, -68, 112, 112, -29, -97, -175, -253, 
-92, -112, -19, 102, -36, -65, 112, 117, -19, -97, -175, -253, 
-97, -117, -19, 107, -39, -68, 107, 107, -29, -102, -190, -253, 
-102, -122, -19, 112, -41, -70, 107, 107, -29, -107, -195, -253, 
-112, -126, -14, 119, -48, -70, 107, 112, -29, -112, -200, -258, 
-126, -136, -9, 131, -58, -73, 112, 112, -29, -122, -200, -258, 
-117, -126, -9, 122, -53, -68, 117, 122, -19, -122, -200, -263, 
-112, -122, -9, 117, -51, -65, 117, 122, -19, -126, -200, -263, 
-107, -122, -14, 114, -46, -68, 117, 122, -19, -126, -200, -263, 
-107, -122, -14, 114, -46, -68, 117, 126, -19, -126, -200, -268, 
-107, -136, -29, 122, -39, -82, 126, 126, -29, -126, -209, -268, 
-112, -146, -34, 129, -39, -90, 126, 126, -29, -136, -214, -278, 
-131, -151, -19, 141, -56, -85, 126, 122, -34, -136, -219, -283, 
-122, -151, -29, 136, -46, -90, 126, 122, -34, -136, -224, -287, 
-131, -151, -19, 141, -56, -85, 126, 117, -24, -136, -229, -287, 
-126, -151, -24, 139, -51, -87, 131, 122, -24, -141, -234, -287, 
-126, -151, -24, 139, -51, -87, 131, 122, -24, -141, -234, -292, 
-126, -151, -24, 139, -51, -87, 136, 122, -24, -141, -234, -292, 
-117, -151, -34, 134, -41, -92, 136, 126, -24, -141, -229, -297, 
-117, -151, -34, 134, -41, -92, 136, 131, -24, -146, -234, -297, 
-112, -151, -39, 131, -36, -95, 141, 131, -19, -146, -234, -302, 
-112, -151, -39, 131, -36, -95, 141, 126, -14, -146, -234, -307, 
-117, -141, -24, 129, -46, -82, 151, 131, -14, -136, -239, -302, 
-112, -136, -24, 124, -43, -80, 156, 141, -9, -146, -244, -302, 
-107, -131, -24, 119, -41, -78, 156, 146, -9, -151, -248, -302, 
-102, -131, -29, 117, -36, -80, 156, 151, -9, -151, -253, -297, 
-126, -151, -24, 139, -51, -87, 151, 151, -19, -165, -263, -307, 
-131, -156, -24, 143, -53, -90, 151, 146, -19, -165, -263, -312, 
-136, -161, -24, 148, -56, -92, 151, 146, -19, -161, -268, -317, 
-136, -161, -24, 148, -56, -92, 151, 141, -19, -161, -273, -326, 
-151, -170, -19, 161, -65, -95, 151, 141, -19, -170, -287, -336, 
-161, -185, -24, 173, -68, -104, 151, 141, -19, -170, -292, -341, 
-165, -200, -34, 183, -65, -117, 151, 141, -19, -175, -297, -346, 
-185, -209, -24, 197, -80, -117, 151, 141, -19, -180, -302, -356, 
-180, -200, -19, 190, -80, -109, 161, 146, -19, -175, -297, -361, 
-175, -204, -29, 190, -73, -117, 161, 146, -14, -180, -302, -361, 
-180, -209, -29, 195, -75, -119, 161, 146, -14, -180, -312, -361, 
-165, -195, -29, 180, -68, -112, 170, 151, -14, -180, -312, -356, 
-156, -195, -39, 175, -58, -117, 170, 161, -4, -180, -317, -361, 
-161, -200, -39, 180, -61, -119, 170, 165, 0, -185, -322, -366, 
-161, -200, -39, 180, -61, -119, 170, 165, 0, -185, -326, -366, 
-161, -200, -39, 180, -61, -119, 175, 170, 4, -185, -331, -370, 
-151, -185, -34, 168, -58, -109, 175, 175, 4, -195, -331, -370, 
-156, -185, -29, 170, -63, -107, 180, 175, 9, -195, -336, -375, 
-165, -200, -34, 183, -65, -117, 180, 175, 9, -200, -341, -385, 
-165, -204, -39, 185, -63, -122, 180, 175, 9, -200, -346, -390, 
-165, -204, -39, 185, -63, -122, 190, 175, 14, -190, -351, -385, 
-175, -209, -34, 192, -70, -122, 190, 180, 14, -195, -356, -395, 
-175, -209, -34, 192, -70, -122, 200, 180, 14, -195, -366, -400, 
-170, -200, -29, 185, -70, -114, 204, 195, 24, -195, -370, -400, 
-175, -204, -29, 190, -73, -117, 200, 195, 19, -204, -375, -414, 
-175, -204, -29, 190, -73, -117, 204, 195, 24, -204, -380, -414, 
-175, -204, -29, 190, -73, -117, 204, 200, 24, -204, -385, -419, 
-185, -214, -29, 200, -78, -122, 204, 200, 29, -204, -390, -429, 
-190, -224, -34, 207, -78, -129, 209, 214, 39, -204, -405, -429, 
-185, -219, -34, 202, -75, -126, 214, 214, 48, -209, -409, -434, 
-185, -219, -34, 202, -75, -126, 224, 214, 48, -209, -409, -444, 
-190, -214, -24, 202, -82, -119, 229, 219, 53, -209, -424, -453, 
-195, -219, -24, 207, -85, -122, 229, 214, 48, -209, -434, -463, 
-200, -224, -24, 212, -87, -124, 229, 214, 58, -209, -434, -473, 
-209, -234, -24, 222, -92, -129, 234, 219, 63, -214, -439, -478, 
-224, -244, -19, 234, -102, -131, 239, 224, 68, -214, -453, -492, 
-214, -244, -29, 229, -92, -136, 244, 229, 73, -214, -463, -492, 
-214, -239, -24, 226, -95, -131, 248, 234, 87, -214, -463, -497, 
-209, -239, -29, 224, -90, -134, 253, 239, 97, -209, -468, -507, 
-209, -239, -29, 224, -90, -134, 258, 244, 97, -209, -478, -517, 
-219, -244, -24, 231, -97, -134, 273, 253, 112, -209, -488, -517, 
-229, -248, -19, 239, -104, -134, 273, 253, 122, -209, -497, -527, 
-234, -248, -14, 241, -109, -131, 278, 263, 136, -209, -502, -536, 
-234, -244, -9, 239, -112, -126, 283, 268, 146, -204, -512, -546, 
-234, -239, -4, 236, -114, -122, 292, 268, 165, -195, -512, -546, 
-234, -234, 0, 234, -117, -117, 297, 273, 170, -195, -522, -551, 
-234, -229, 4, 231, -119, -112, 297, 273, 175, -190, -522, -561, 
-239, -229, 9, 234, -124, -109, 297, 278, 185, -190, -536, -570, 
-258, -244, 14, 251, -136, -114, 292, 268, 185, -190, -551, -580, 
-263, -239, 24, 251, -143, -107, 302, 268, 195, -190, -551, -595, 
-268, -244, 24, 256, -146, -109, 302, 273, 204, -190, -556, -600, 
-273, -244, 29, 258, -151, -107, 302, 273, 214, -190, -561, -610, 
-273, -239, 34, 256, -153, -102, 312, 273, 234, -175, -556, -614, 
-273, -234, 39, 253, -156, -97, 312, 278, 244, -170, -561, -614, 
-278, -224, 53, 251, -165, -85, 312, 283, 253, -161, -566, -619, 
-292, -214, 78, 253, -185, -68, 312, 283, 263, -161, -566, -614, 
-292, -224, 68, 258, -180, -78, 317, 283, 263, -146, -566, -619, 
-292, -219, 73, 256, -183, -73, 317, 278, 268, -131, -561, -619, 
-297, -219, 78, 258, -187, -70, 317, 278, 278, -131, -561, -619, 
-302, -214, 87, 258, -195, -63, 307, 273, 283, -126, -561, -629, 
-297, -200, 97, 248, -197, -51, 297, 263, 292, -122, -556, -619, 
-297, -195, 102, 246, -200, -46, 297, 263, 302, -107, -546, -619, 
-297, -180, 117, 239, -207, -31, 297, 263, 307, -87, -531, -610, 
-297, -170, 126, 234, -212, -21, 297, 258, 317, -82, -527, -610, 
-297, -161, 136, 229, -217, -12, 292, 253, 322, -58, -507, -590, 
-297, -156, 141, 226, -219, -7, 292, 253, 326, -48, -497, -585, 
-297, -141, 156, 219, -226, 7, 287, 248, 331, -39, -483, -580, 
-292, -131, 161, 212, -226, 14, 283, 244, 336, -19, -458, -566, 
-273, -107, 165, 190, -219, 29, 278, 248, 341, 4, -439, -541, 
-273, -97, 175, 185, -224, 39, 273, 239, 346, 19, -419, -531, 
-263, -87, 175, 175, -219, 43, 263, 229, 351, 19, -405, -522, 
-258, -73, 185, 165, -222, 56, 258, 224, 351, 39, -390, -497, 
-253, -68, 185, 161, -219, 58, 253, 219, 346, 53, -366, -483, 
-239, -63, 175, 151, -207, 56, 244, 214, 346, 63, -346, -458, 
-239, -53, 185, 146, -212, 65, 224, 200, 346, 68, -326, -439, 
-234, -48, 185, 141, -209, 68, 209, 190, 331, 82, -297, -419, 
-234, -43, 190, 139, -212, 73, 190, 180, 326, 92, -273, -400, 
-224, -34, 190, 129, -207, 78, 180, 165, 322, 102, -253, -375, 
-209, -24, 185, 117, -197, 80, 170, 165, 312, 112, -229, -356, 
-200, -14, 185, 107, -192, 85, 165, 151, 297, 117, -200, -326, 
-204, -19, 185, 112, -195, 82, 156, 141, 287, 122, -175, -317, 
-200, -19, 180, 109, -190, 80, 136, 131, 273, 131, -146, -297, 
-185, -9, 175, 97, -180, 82, 122, 126, 258, 136, -122, -268, 
-170, 0, 170, 85, -170, 85, 107, 117, 239, 146, -97, -248, 
-161, 19, 180, 70, -170, 100, 97, 107, 244, 146, -78, -224, 
-161, 9, 170, 75, -165, 90, 87, 97, 229, 146, -53, -200, 
-151, 9, 161, 70, -156, 85, 82, 87, 214, 151, -39, -185, 
-141, 9, 151, 65, -146, 80, 73, 87, 204, 151, -19, -156, 
-112, 34, 146, 39, -129, 90, 73, 82, 200, 161, 0, -141, 
-92, 43, 136, 24, -114, 90, 63, 78, 190, 161, 19, -122, 
-68, 63, 131, 2, -100, 97, 58, 73, 175, 161, 29, -102, 
-58, 68, 126, -4, -92, 97, 53, 68, 165, 161, 39, -82, 
-58, 68, 126, -4, -92, 97, 48, 73, 151, 156, 48, -68, 
-43, 68, 112, -12, -78, 90, 43, 68, 141, 151, 58, -53, 
-34, 73, 107, -19, -70, 90, 34, 63, 131, 151, 68, -48, 
-34, 73, 107, -19, -70, 90, 24, 58, 126, 151, 68, -34, 
-58, 53, 112, 2, -85, 82, 4, 39, 107, 131, 73, -43, 
-68, 29, 97, 19, -82, 63, 0, 34, 87, 126, 68, -43, 
-78, 4, 82, 36, -80, 43, -4, 29, 68, 122, 63, -43, 
-87, -9, 78, 48, -82, 34, -9, 24, 68, 112, 58, -43, 
-68, 9, 78, 29, -73, 43, 0, 29, 68, 107, 73, -29, 
-63, 14, 78, 24, -70, 46, 0, 29, 63, 102, 73, -24, 
-53, 19, 73, 17, -63, 46, 0, 29, 68, 102, 78, -19, 
-43, 24, 68, 9, -56, 46, 0, 29, 68, 102, 78, -14, 
-34, 29, 63, 2, -48, 46, 0, 24, 63, 102, 78, -14, 
-29, 24, 53, 2, -41, 39, -9, 24, 58, 97, 78, -14, 
-29, 29, 58, 0, -43, 43, -9, 24, 53, 97, 78, -9, 
-29, 34, 63, -2, -46, 48, -9, 24, 53, 92, 82, -9, 
-24, 39, 63, -7, -43, 51, -9, 14, 48, 92, 82, -9, 
-24, 39, 63, -7, -43, 51, -4, 14, 48, 92, 82, -4, 
-19, 43, 63, -12, -41, 53, -4, 14, 48, 92, 82, -4, 
-19, 43, 63, -12, -41, 53, -4, 14, 48, 87, 82, 0, 
-29, 34, 63, -2, -46, 48, -4, 14, 48, 82, 82, 0, 
-24, 34, 58, -4, -41, 46, -4, 19, 48, 82, 82, 0, 
-24, 34, 58, -4, -41, 46, -4, 19, 34, 78, 82, 0, 
-24, 24, 48, 0, -36, 36, -9, 19, 29, 78, 73, 0, 
-24, 24, 48, 0, -36, 36, 0, 29, 39, 78, 73, -9, 
-24, 24, 48, 0, -36, 36, 0, 29, 39, 78, 78, -9, 
-34, 19, 53, 7, -43, 36, 0, 29, 34, 78, 78, -9, 
-39, 14, 53, 12, -46, 34, -4, 24, 34, 78, 73, -14, 
-34, 9, 43, 12, -39, 26, -4, 24, 39, 68, 63, -9, 
-34, 9, 43, 12, -39, 26, 0, 24, 34, 63, 58, -14, 
-34, 9, 43, 12, -39, 26, 0, 24, 34, 63, 58, -14, 
-29, 9, 39, 9, -34, 24, 0, 29, 39, 68, 63, -9, 
-29, 19, 48, 4, -39, 34, -9, 29, 39, 68, 63, -9, 
-29, 24, 53, 2, -41, 39, -4, 29, 39, 68, 63, -9, 
-29, 24, 53, 2, -41, 39, -4, 29, 43, 68, 63, -14, 
-29, 29, 58, 0, -43, 43, -4, 29, 48, 68, 58, -14, 
-29, 19, 48, 4, -39, 34, 4, 24, 48, 68, 58, -14, 
-24, 24, 48, 0, -36, 36, 4, 24, 48, 68, 58, -14, 
-24, 24, 48, 0, -36, 36, 4, 29, 43, 68, 58, -9, 
-19, 24, 43, -2, -31, 34, 4, 29, 43, 68, 58, -9, 
-29, 29, 58, 0, -43, 43, 0, 29, 48, 68, 58, -9, 
-39, 24, 63, 7, -51, 43, 0, 29, 48, 63, 58, -14, 
-39, 24, 63, 7, -51, 43, 0, 29, 48, 63, 58, -14, 
-39, 24, 63, 7, -51, 43, 0, 29, 53, 68, 53, -14, 
-39, 24, 63, 7, -51, 43, 0, 29, 43, 73, 53, -14, 
-34, 19, 53, 7, -43, 36, 0, 29, 43, 73, 53, -14, 
-34, 19, 53, 7, -43, 36, 0, 34, 43, 73, 53, -14, 
-34, 14, 48, 9, -41, 31, 0, 34, 43, 73, 53, -14, 
-48, 0, 48, 24, -48, 24, 0, 24, 34, 63, 39, -29, 
-53, -4, 48, 29, -51, 21, 0, 24, 34, 58, 39, -29, 
-53, -9, 43, 31, -48, 17, 0, 24, 34, 58, 43, -29, 
-53, -14, 39, 34, -46, 12, 0, 24, 34, 63, 43, -29, 
-43, 9, 53, 17, -48, 31, 4, 34, 48, 68, 48, -24, 
-34, 19, 53, 7, -43, 36, 14, 39, 58, 73, 53, -19, 
-19, 34, 53, -7, -36, 43, 19, 39, 63, 78, 58, -14, 
-9, 43, 53, -17, -31, 48, 24, 43, 73, 87, 63, -4, 
-14, 39, 53, -12, -34, 46, 19, 43, 63, 78, 63, -14, 
-29, 29, 58, 0, -43, 43, 14, 34, 63, 78, 63, -19, 
-34, 14, 48, 9, -41, 31, 9, 34, 63, 78, 63, -19, 
-43, 4, 48, 19, -46, 26, 4, 34, 63, 78, 63, -19, 
-39, 14, 53, 12, -46, 34, 9, 34, 63, 87, 53, -19, 
-43, 14, 58, 14, -51, 36, 9, 34, 63, 78, 53, -19, 
-43, 14, 58, 14, -51, 36, 14, 34, 63, 78, 53, -19, 
-39, 14, 53, 12, -46, 34, 14, 39, 68, 87, 53, -19, 
-43, 14, 58, 14, -51, 36, 4, 29, 68, 82, 58, -19, 
-48, 9, 58, 19, -53, 34, 4, 29, 68, 78, 58, -19, 
-53, 4, 58, 24, -56, 31, 4, 29, 68, 78, 58, -19, 
-53, 4, 58, 24, -56, 31, 4, 29, 73, 73, 48, -19, 
-48, 14, 63, 17, -56, 39, 14, 43, 73, 82, 58, -9, 
-43, 14, 58, 14, -51, 36, 19, 43, 78, 87, 63, -9, 
-34, 19, 53, 7, -43, 36, 19, 43, 78, 87, 63, -9, 
-29, 24, 53, 2, -41, 39, 19, 43, 78, 87, 63, -9, 
-29, 19, 48, 4, -39, 34, 9, 34, 82, 82, 53, -19, 
-29, 19, 48, 4, -39, 34, 14, 39, 82, 82, 58, -14, 
-34, 14, 48, 9, -41, 31, 14, 39, 78, 87, 58, -14, 
-43, 9, 53, 17, -48, 31, 9, 39, 73, 87, 58, -14, 
-43, 9, 53, 17, -48, 31, 19, 43, 82, 97, 63, -9, 
-43, 14, 58, 14, -51, 36, 19, 43, 82, 92, 63, -9, 
-43, 14, 58, 14, -51, 36, 19, 43, 82, 92, 63, -9, 
-39, 19, 58, 9, -48, 39, 19, 43, 87, 92, 63, -9, 
-43, 24, 68, 9, -56, 46, 9, 43, 82, 92, 63, -19, 
-43, 24, 68, 9, -56, 46, 14, 43, 82, 97, 63, -19, 
-43, 29, 73, 7, -58, 51, 14, 43, 82, 97, 63, -19, 
-43, 29, 73, 7, -58, 51, 19, 43, 82, 97, 63, -19, 
-34, 19, 53, 7, -43, 36, 29, 43, 82, 97, 63, -9, 
-34, 14, 48, 9, -41, 31, 24, 43, 82, 97, 63, -9, 
-43, 9, 53, 17, -48, 31, 24, 43, 78, 97, 63, -14, 
-43, 9, 53, 17, -48, 31, 19, 43, 73, 97, 63, -14, 
-48, 4, 53, 21, -51, 29, 19, 43, 73, 87, 53, -14, 
-48, 4, 53, 21, -51, 29, 19, 43, 78, 87, 53, -9, 
-43, 9, 53, 17, -48, 31, 19, 43, 82, 87, 53, -9, 
-43, 14, 58, 14, -51, 36, 19, 43, 82, 87, 53, -9, 
-43, 14, 58, 14, -51, 36, 19, 43, 82, 87, 53, -19, 
-43, 9, 53, 17, -48, 31, 19, 43, 82, 87, 53, -19, 
-43, 9, 53, 17, -48, 31, 24, 43, 82, 87, 53, -19, 
-43, 14, 58, 14, -51, 36, 24, 43, 82, 87, 53, -14, 
-39, 24, 63, 7, -51, 43, 14, 43, 82, 87, 68, -4, 
-39, 19, 58, 9, -48, 39, 14, 43, 82, 87, 68, -4, 
-39, 19, 58, 9, -48, 39, 14, 43, 82, 87, 68, -4, 
-39, 24, 63, 7, -51, 43, 14, 43, 82, 87, 63, -4, 
-24, 34, 58, -4, -41, 46, 19, 43, 78, 87, 63, 0, 
-24, 34, 58, -4, -41, 46, 19, 43, 78, 87, 63, 4, 
-24, 34, 58, -4, -41, 46, 19, 43, 78, 82, 63, 4, 
-29, 34, 63, -2, -46, 48, 19, 43, 78, 82, 63, 9, 
-39, 24, 63, 7, -51, 43, 24, 43, 78, 82, 63, 14, 
-39, 29, 68, 4, -53, 48, 24, 43, 73, 82, 63, 14, 
-39, 29, 68, 4, -53, 48, 19, 43, 68, 82, 63, 14, 
-43, 19, 63, 12, -53, 41, 19, 43, 63, 73, 58, 9, 
-63, 9, 73, 26, -68, 41, 9, 34, 53, 73, 43, 9, 
-63, 4, 68, 29, -65, 36, 4, 29, 58, 73, 43, 9, 
-58, 0, 58, 29, -58, 29, 4, 29, 58, 73, 48, 14, 
-58, -4, 53, 31, -56, 24, 4, 29, 58, 73, 48, 14, 
-58, -4, 53, 31, -56, 24, 4, 24, 58, 73, 48, 14, 
-58, 9, 68, 24, -63, 39, 4, 24, 58, 73, 48, 14, 
-43, 24, 68, 9, -56, 46, 4, 29, 58, 73, 48, 19, 
-39, 24, 63, 7, -51, 43, 9, 29, 63, 78, 53, 19, 
-29, 34, 63, -2, -46, 48, 9, 29, 68, 78, 63, 24, 
-34, 24, 58, 4, -46, 41, 9, 29, 68, 78, 63, 24, 
-39, 24, 63, 7, -51, 43, 9, 29, 58, 68, 58, 19, 
-43, 19, 63, 12, -53, 41, 4, 29, 53, 68, 53, 14, 
-58, 9, 68, 24, -63, 39, 4, 14, 53, 63, 43, 4, 
-58, 0, 58, 29, -58, 29, 4, 14, 43, 63, 48, 4, 
-58, -4, 53, 31, -56, 24, 4, 14, 43, 63, 48, 4, 
-58, -4, 53, 31, -56, 24, 4, 14, 43, 63, 43, 4, 
-43, 9, 53, 17, -48, 31, 0, 24, 53, 73, 53, 9, 
-39, 14, 53, 12, -46, 34, 0, 24, 53, 68, 48, 14, 
-39, 14, 53, 12, -46, 34, 0, 24, 53, 68, 48, 19, 
-34, 19, 53, 7, -43, 36, 0, 24, 53, 68, 48, 24, 
-39, 9, 48, 14, -43, 29, -9, 14, 43, 68, 43, 14, 
-39, 14, 53, 12, -46, 34, -4, 14, 43, 63, 43, 19, 
-48, 9, 58, 19, -53, 34, -4, 14, 48, 58, 43, 19, 
-48, 9, 58, 19, -53, 34, -4, 19, 53, 58, 43, 19, 
-34, 24, 58, 4, -46, 41, 4, 29, 53, 68, 53, 24, 
-29, 29, 58, 0, -43, 43, 4, 24, 53, 63, 53, 24, 
-29, 34, 63, -2, -46, 48, 4, 24, 53, 63, 53, 29, 
-24, 39, 63, -7, -43, 51, 4, 24, 48, 63, 53, 29, 
-34, 29, 63, 2, -48, 46, -4, 14, 58, 63, 53, 19, 
-39, 19, 58, 9, -48, 39, -9, 14, 53, 63, 53, 19, 
-43, 19, 63, 12, -53, 41, -9, 14, 53, 63, 53, 19, 
-43, 24, 68, 9, -56, 46, -9, 14, 53, 63, 58, 24, 
-43, 24, 68, 9, -56, 46, -4, 14, 48, 53, 48, 24, 
-39, 24, 63, 7, -51, 43, -4, 14, 48, 58, 48, 29, 
-39, 19, 58, 9, -48, 39, -4, 14, 48, 58, 48, 29, 
-39, 14, 53, 12, -46, 34, -9, 14, 48, 58, 48, 24, 
-39, 24, 63, 7, -51, 43, 0, 24, 53, 63, 58, 29, 
-34, 29, 63, 2, -48, 46, 0, 24, 53, 63, 58, 29, 
-29, 43, 73, -7, -51, 58, 0, 24, 53, 63, 58, 29, 
-24, 34, 58, -4, -41, 46, 0, 24, 53, 63, 58, 29, 
-19, 39, 58, -9, -39, 48, 4, 19, 53, 68, 58, 29, 
-19, 39, 58, -9, -39, 48, 4, 19, 48, 68, 58, 29, 
-14, 43, 58, -14, -36, 51, 4, 19, 48, 68, 58, 29, 
-14, 43, 58, -14, -36, 51, 4, 19, 48, 68, 58, 29, 
-14, 53, 68, -19, -41, 61, 4, 19, 48, 68, 58, 29, 
-4, 58, 63, -26, -34, 61, 9, 19, 48, 68, 58, 29, 
-4, 58, 63, -26, -34, 61, 9, 24, 53, 73, 58, 34, 
-4, 58, 63, -26, -34, 61, 9, 24, 53, 73, 58, 34, 
-24, 39, 63, -7, -43, 51, 4, 19, 48, 58, 53, 24, 
-43, 29, 73, 7, -58, 51, 0, 14, 43, 53, 48, 24, 
-43, 14, 58, 14, -51, 36, -4, 9, 39, 48, 43, 24, 
-53, 4, 58, 24, -56, 31, -9, 4, 34, 43, 39, 24, 
-43, 9, 53, 17, -48, 31, 0, 9, 34, 53, 43, 24, 
-39, 9, 48, 14, -43, 29, 0, 9, 39, 53, 43, 29, 
-34, 14, 48, 9, -41, 31, 0, 14, 39, 53, 43, 29, 
-39, 14, 53, 12, -46, 34, 0, 14, 34, 53, 43, 24, 
-29, 24, 53, 2, -41, 39, 0, 14, 34, 53, 43, 24, 
-29, 24, 53, 2, -41, 39, 0, 4, 34, 53, 43, 24, 
-34, 19, 53, 7, -43, 36, -4, 4, 29, 48, 39, 19, 
-39, 14, 53, 12, -46, 34, -4, 0, 24, 43, 39, 19, 
-58, 4, 63, 26, -61, 34, -14, 4, 29, 39, 48, 29, 
-48, 9, 58, 19, -53, 34, -9, 9, 29, 48, 48, 29, 
-39, 19, 58, 9, -48, 39, 0, 9, 39, 48, 48, 29, 
-39, 19, 58, 9, -48, 39, 0, 9, 39, 48, 48, 29, 
-39, 19, 58, 9, -48, 39, 0, 9, 39, 48, 48, 29, 
-39, 19, 58, 9, -48, 39, 0, 9, 39, 48, 48, 29, 
-29, 29, 58, 0, -43, 43, 0, 19, 39, 58, 48, 39, 
-29, 29, 58, 0, -43, 43, 0, 19, 39, 58, 48, 39, 
-29, 29, 58, 0, -43, 43, 0, 19, 39, 58, 48, 39, 
-29, 29, 58, 0, -43, 43, 0, 19, 39, 58, 48, 39, 
-39, 29, 68, 4, -53, 48, -9, 19, 29, 58, 48, 39, 
-39, 29, 68, 4, -53, 48, -9, 19, 29, 58, 48, 39, 
-39, 29, 68, 4, -53, 48, -9, 19, 29, 58, 48, 39, 
-39, 29, 68, 4, -53, 48, -9, 19, 29, 58, 48, 39, 
-48, 24, 73, 12, -61, 48, -9, 9, 29, 48, 39, 29, 
-48, 19, 68, 14, -58, 43, -9, 9, 29, 48, 39, 29, 
-48, 14, 63, 17, -56, 39, -9, 9, 29, 48, 39, 29, 
-48, 9, 58, 19, -53, 34, -9, 9, 29, 48, 39, 29, 
-48, 9, 58, 19, -53, 34, -9, 9, 29, 48, 48, 39, 
-48, 9, 58, 19, -53, 34, -9, 9, 29, 48, 48, 39, 
-48, 9, 58, 19, -53, 34, -9, 9, 29, 48, 48, 39, 
-48, 9, 58, 19, -53, 34, -9, 9, 29, 48, 48, 39, 
-34, 19, 53, 7, -43, 36, 0, 19, 34, 58, 58, 48, 
-29, 29, 58, 0, -43, 43, 0, 19, 39, 58, 58, 48, 
-24, 39, 63, -7, -43, 51, 0, 19, 43, 58, 58, 48, 
-19, 48, 68, -14, -43, 58, 0, 19, 48, 58, 58, 48, 
-34, 39, 73, -2, -53, 56, -9, 9, 39, 53, 53, 39, 
-39, 29, 68, 4, -53, 48, -9, 9, 39, 48, 48, 39, 
-43, 19, 63, 12, -53, 41, -9, 9, 39, 43, 43, 39, 
-48, 9, 58, 19, -53, 34, -9, 9, 39, 39, 39, 39, 
-34, 19, 53, 7, -43, 36, -4, 19, 48, 43, 43, 48, 
-29, 29, 58, 0, -43, 43, 0, 19, 48, 48, 48, 48, 
-24, 39, 63, -7, -43, 51, 4, 19, 48, 53, 53, 48, 
-19, 48, 68, -14, -43, 58, 9, 19, 48, 58, 58, 48, 
-19, 39, 58, -9, -39, 48, 9, 19, 48, 48, 58, 48, 
