I, II, III, aVR, aVL, aVF, V1, V2, V3, V4, V5, V6, 
-9, 78, 87, -34, -48, 82, -9, -9, 341, -87, 0, -9, 
-9, 78, 87, -34, -48, 82, -9, -4, 341, -87, 0, -9, 
-9, 78, 87, -34, -48, 82, -9, 0, 341, -87, 0, -9, 
-4, 78, 82, -36, -43, 80, -9, 0, 341, -87, 0, -14, 
0, 78, 78, -39, -39, 78, -9, 0, 341, -87, 0, -19, 
0, 73, 73, -36, -36, 73, -9, 0, 341, -87, 0, -19, 
0, 68, 68, -34, -34, 68, -9, 0, 341, -87, 0, -19, 
0, 63, 63, -31, -31, 63, -9, 0, 341, -87, 0, -19, 
0, 58, 58, -29, -29, 58, -9, 0, 341, -87, 0, -19, 
0, 58, 58, -29, -29, 58, -9, -4, 341, -82, 0, -19, 
0, 58, 58, -29, -29, 58, -9, -9, 341, -78, 0, -19, 
0, 53, 53, -26, -26, 53, -9, -9, 341, -78, 0, -19, 
0, 48, 48, -24, -24, 48, -9, -9, 341, -78, 0, -19, 
0, 48, 48, -24, -24, 48, -9, -9, 336, -78, 0, -19, 
0, 48, 48, -24, -24, 48, -9, -9, 331, -78, 0, -19, 
4, 43, 39, -24, -17, 41, -9, -4, 331, -78, 0, -19, 
9, 39, 29, -24, -9, 34, -9, 0, 331, -78, 0, -19, 
14, 34, 19, -24, -2, 26, -9, 4, 326, -82, -4, -24, 
19, 29, 9, -24, 4, 19, -9, 9, 322, -87, -9, -29, 
19, 29, 9, -24, 4, 19, -9, 14, 322, -87, -9, -29, 
29, 48, 19, -39, 4, 34, -14, 14, 331, -73, 0, -19, 
43, 73, 29, -58, 7, 51, -19, 14, 346, -63, 9, -9, 
68, 112, 43, -90, 12, 78, -34, 14, 366, -48, 24, 9, 
82, 112, 29, -97, 26, 70, -43, 14, 385, -29, 43, 19, 
87, 117, 29, -102, 29, 73, -58, 14, 385, -24, 48, 29, 
92, 122, 29, -107, 31, 75, -73, 14, 385, -14, 58, 34, 
92, 126, 34, -109, 29, 80, -78, 9, 385, -14, 58, 39, 
92, 126, 34, -109, 29, 80, -87, 0, 385, -14, 53, 39, 
92, 117, 24, -104, 34, 70, -87, 0, 375, -14, 48, 39, 
82, 87, 4, -85, 39, 46, -78, -4, 361, -29, 39, 29, 
78, 68, -9, -73, 43, 29, -73, -9, 341, -43, 29, 24, 
73, 63, -9, -68, 41, 26, -68, -14, 336, -48, 29, 19, 
68, 58, -9, -63, 39, 24, -63, -14, 326, -43, 24, 14, 
53, 43, -9, -48, 31, 17, -58, -14, 326, -48, 19, 14, 
43, 34, -9, -39, 26, 12, -53, -14, 326, -48, 14, 14, 
34, 29, -4, -31, 19, 12, -48, -14, 331, -48, 19, 14, 
4, 19, 14, -12, -4, 17, -43, -24, 326, -53, 14, 4, 
-14, -4, 9, 9, -12, 2, -34, -24, 322, -53, 9, 0, 
-24, -29, -4, 26, -9, -17, -19, -24, 317, -53, 0, -4, 
-24, -39, -14, 31, -4, -26, -14, -19, 302, -63, -9, -9, 
-29, -43, -14, 36, -7, -29, -4, -9, 302, -68, -9, -14, 
-29, -43, -14, 36, -7, -29, -4, -9, 297, -68, -9, -9, 
-29, -43, -14, 36, -7, -29, -4, -9, 297, -63, -9, -4, 
-29, -43, -14, 36, -7, -29, -9, -9, 297, -58, -9, -9, 
-29, -43, -14, 36, -7, -29, -14, -9, 302, -58, -9, -9, 
-24, -43, -19, 34, -2, -31, -14, -4, 302, -58, -9, -4, 
-24, -39, -14, 31, -4, -26, -14, -4, 302, -58, -9, 0, 
-24, -39, -14, 31, -4, -26, -14, -4, 302, -53, -9, 4, 
-24, -39, -14, 31, -4, -26, -14, -4, 302, -48, -9, 4, 
-19, -39, -19, 29, 0, -29, -14, -4, 302, -48, -9, 4, 
-19, -39, -19, 29, 0, -29, -14, 0, 292, -48, -9, 4, 
-19, -39, -19, 29, 0, -29, -14, 0, 292, -43, -4, 9, 
-19, -34, -14, 26, -2, -24, -14, 0, 292, -43, -4, 9, 
-19, -29, -9, 24, -4, -19, -14, 0, 297, -43, 0, 14, 
-19, -29, -9, 24, -4, -19, -14, 0, 302, -39, 4, 14, 
-24, -24, 0, 24, -12, -12, -9, 0, 302, -34, 9, 19, 
-24, -24, 0, 24, -12, -12, -9, 0, 302, -29, 9, 19, 
-24, -19, 4, 21, -14, -7, -9, 0, 302, -29, 4, 14, 
-24, -19, 4, 21, -14, -7, -9, 0, 302, -29, 4, 9, 
-43, -63, -19, 53, -12, -41, 19, 29, 283, -63, -29, -19, 
-63, -156, -92, 109, 14, -124, 82, 82, 253, -117, -102, -87, 
-112, -400, -287, 256, 87, -344, 229, 229, 146, -273, -283, -258, 
-229, -766, -536, 497, 153, -651, 448, 429, -29, -531, -570, -536, 
-234, -980, -746, 607, 256, -863, 556, 585, -180, -727, -785, -717, 
-68, -1083, -1015, 575, 473, -1049, 590, 775, -307, -849, -893, -790, 
97, -795, -893, 348, 495, -844, 395, 629, -248, -712, -722, -600, 
292, -229, -522, -31, 407, -375, -29, 209, -151, -419, -336, -190, 
307, 448, 141, -378, 82, 295, -439, -346, 68, 58, 258, 375, 
239, 1180, 941, -710, -351, 1061, -702, -727, 488, 688, 976, 1010, 
224, 1434, 1210, -829, -492, 1322, -775, -829, 580, 912, 1244, 1224, 
185, 1283, 1098, -734, -456, 1190, -756, -766, 385, 780, 1146, 1132, 
151, 1000, 849, -575, -348, 924, -639, -566, 244, 570, 917, 907, 
-14, 341, 356, -163, -185, 348, -219, -161, 161, 131, 312, 346, 
-92, -4, 87, 48, -90, 41, 14, 68, 156, -87, 19, 78, 
-63, 58, 122, 2, -92, 90, 78, 151, 268, -24, 53, 78, 
-9, 97, 107, -43, -58, 102, 58, 175, 346, 43, 112, 92, 
63, 151, 87, -107, -12, 119, 0, 131, 439, 112, 170, 122, 
82, 175, 92, -129, -4, 134, -19, 107, 497, 141, 170, 126, 
43, 170, 126, -107, -41, 148, -24, 53, 488, 126, 161, 126, 
39, 170, 131, -104, -46, 151, -39, 14, 492, 122, 156, 126, 
34, 170, 136, -102, -51, 153, -39, -4, 492, 117, 151, 122, 
34, 161, 126, -97, -46, 143, -29, 14, 492, 117, 141, 117, 
34, 146, 112, -90, -39, 129, -24, 19, 492, 107, 136, 107, 
29, 141, 112, -85, -41, 126, -24, 19, 492, 107, 136, 102, 
29, 136, 107, -82, -39, 122, -24, 19, 492, 107, 131, 97, 
29, 136, 107, -82, -39, 122, -19, 24, 497, 107, 126, 97, 
24, 136, 112, -80, -43, 124, -19, 29, 497, 102, 126, 97, 
24, 131, 107, -78, -41, 119, -24, 24, 502, 102, 126, 97, 
24, 131, 107, -78, -41, 119, -29, 24, 502, 102, 126, 97, 
29, 131, 102, -80, -36, 117, -29, 24, 502, 102, 126, 97, 
29, 131, 102, -80, -36, 117, -29, 24, 507, 102, 126, 92, 
29, 131, 102, -80, -36, 117, -34, 24, 507, 102, 126, 87, 
29, 131, 102, -80, -36, 117, -34, 24, 507, 102, 131, 87, 
29, 136, 107, -82, -39, 122, -34, 24, 517, 107, 131, 87, 
29, 136, 107, -82, -39, 122, -34, 24, 517, 107, 136, 87, 
34, 136, 102, -85, -34, 119, -34, 24, 517, 107, 136, 87, 
34, 146, 112, -90, -39, 129, -39, 24, 527, 107, 136, 87, 
39, 146, 107, -92, -34, 126, -39, 24, 536, 112, 141, 87, 
39, 146, 107, -92, -34, 126, -39, 24, 541, 112, 141, 87, 
39, 156, 117, -97, -39, 136, -34, 24, 546, 117, 146, 87, 
43, 156, 112, -100, -34, 134, -34, 24, 546, 117, 146, 92, 
48, 161, 112, -104, -31, 136, -39, 24, 546, 117, 151, 97, 
53, 165, 112, -109, -29, 139, -39, 24, 556, 117, 151, 97, 
53, 175, 122, -114, -34, 148, -39, 24, 561, 126, 156, 102, 
53, 185, 131, -119, -39, 158, -39, 24, 566, 126, 156, 107, 
63, 190, 126, -126, -31, 158, -48, 24, 575, 126, 161, 107, 
63, 195, 131, -129, -34, 163, -53, 24, 585, 131, 165, 112, 
68, 209, 141, -139, -36, 175, -58, 24, 590, 136, 175, 117, 
78, 219, 141, -148, -31, 180, -63, 24, 595, 141, 185, 122, 
82, 229, 146, -156, -31, 187, -68, 24, 605, 146, 190, 126, 
97, 244, 146, -170, -24, 195, -73, 24, 614, 151, 200, 141, 
102, 258, 156, -180, -26, 207, -78, 19, 624, 170, 209, 146, 
107, 278, 170, -192, -31, 224, -82, 19, 634, 180, 219, 161, 
117, 292, 175, -204, -29, 234, -87, 19, 649, 190, 229, 170, 
131, 322, 190, -226, -29, 256, -102, 9, 663, 200, 244, 190, 
141, 351, 209, -246, -34, 280, -112, 9, 673, 214, 263, 204, 
151, 375, 224, -263, -36, 300, -122, 4, 688, 234, 283, 224, 
170, 400, 229, -285, -29, 314, -146, 0, 707, 248, 307, 244, 
185, 434, 248, -309, -31, 341, -165, -4, 722, 268, 322, 263, 
200, 478, 278, -339, -39, 378, -180, -9, 741, 292, 351, 297, 
214, 522, 307, -368, -46, 414, -204, -14, 766, 317, 385, 326, 
239, 570, 331, -405, -46, 451, -224, -29, 790, 346, 414, 366, 
258, 610, 351, -434, -46, 480, -244, -39, 810, 375, 444, 395, 
268, 658, 390, -463, -61, 524, -273, -63, 829, 405, 478, 429, 
297, 712, 414, -505, -58, 563, -292, -73, 849, 434, 517, 463, 
307, 756, 448, -531, -70, 602, -317, -92, 878, 463, 551, 502, 
331, 805, 473, -568, -70, 639, -341, -107, 897, 488, 590, 536, 
346, 854, 507, -600, -80, 680, -366, -131, 927, 517, 634, 570, 
361, 902, 541, -631, -90, 722, -385, -141, 951, 546, 663, 605, 
375, 941, 566, -658, -95, 753, -409, -156, 971, 575, 688, 639, 
380, 976, 595, -678, -107, 785, -424, -175, 990, 595, 712, 663, 
380, 1000, 619, -690, -119, 810, -434, -190, 1010, 614, 736, 673, 
380, 1019, 639, -700, -129, 829, -439, -204, 1029, 624, 756, 688, 
375, 1019, 644, -697, -134, 832, -444, -209, 1034, 634, 756, 688, 
361, 1015, 653, -688, -146, 834, -444, -219, 1034, 629, 751, 688, 
336, 995, 658, -666, -161, 827, -439, -219, 1029, 614, 746, 678, 
312, 956, 644, -634, -165, 800, -429, -219, 1010, 590, 717, 649, 
283, 888, 605, -585, -161, 746, -400, -214, 985, 551, 668, 600, 
258, 819, 561, -539, -151, 690, -351, -200, 946, 497, 614, 551, 
219, 746, 527, -483, -153, 636, -322, -175, 902, 448, 561, 502, 
185, 663, 478, -424, -146, 570, -283, -146, 863, 400, 502, 444, 
156, 575, 419, -366, -131, 497, -248, -126, 819, 336, 439, 375, 
126, 492, 366, -309, -119, 429, -209, -107, 771, 268, 375, 326, 
97, 419, 322, -258, -112, 370, -170, -92, 717, 224, 322, 278, 
73, 351, 278, -212, -102, 314, -141, -73, 688, 175, 273, 234, 
53, 273, 219, -163, -82, 246, -107, -48, 653, 122, 214, 185, 
39, 219, 180, -129, -70, 200, -82, -34, 614, 78, 165, 146, 
24, 180, 156, -102, -65, 168, -68, -24, 585, 48, 136, 122, 
4, 136, 131, -70, -63, 134, -53, -9, 566, 19, 117, 92, 
0, 102, 102, -51, -51, 102, -34, 4, 551, -4, 87, 58, 
-9, 82, 92, -36, -51, 87, -24, 9, 536, -24, 73, 48, 
-19, 68, 87, -24, -53, 78, -9, 19, 522, -34, 63, 39, 
-29, 58, 87, -14, -58, 73, -4, 19, 517, -43, 53, 29, 
-34, 39, 73, -2, -53, 56, 4, 24, 512, -58, 39, 19, 
-39, 34, 73, 2, -56, 53, 4, 29, 502, -63, 34, 14, 
-39, 29, 68, 4, -53, 48, 9, 29, 502, -68, 29, 4, 
-39, 19, 58, 9, -48, 39, 14, 29, 497, -68, 29, 4, 
-39, 14, 53, 12, -46, 34, 14, 29, 497, -73, 24, -4, 
-39, 9, 48, 14, -43, 29, 14, 29, 502, -73, 19, -9, 
-39, 9, 48, 14, -43, 29, 9, 29, 502, -73, 9, -9, 
-39, 9, 48, 14, -43, 29, 4, 29, 497, -78, 4, -9, 
-43, 4, 48, 19, -46, 26, 9, 29, 497, -78, 4, -4, 
-43, 4, 48, 19, -46, 26, 9, 29, 497, -78, 4, 0, 
-43, 4, 48, 19, -46, 26, 9, 34, 497, -78, 4, 0, 
-39, 4, 43, 17, -41, 24, 9, 34, 502, -78, 4, 0, 
-39, 4, 43, 17, -41, 24, 9, 34, 502, -78, 4, -4, 
-34, 0, 34, 17, -34, 17, 9, 34, 502, -78, 0, -4, 
-34, 0, 34, 17, -34, 17, 9, 34, 502, -78, 0, -4, 
-34, 0, 34, 17, -34, 17, 4, 34, 502, -78, 0, -4, 
-34, 4, 39, 14, -36, 21, 4, 34, 507, -78, 0, 0, 
-34, 4, 39, 14, -36, 21, 4, 34, 512, -73, 0, 4, 
-34, 4, 39, 14, -36, 21, 4, 34, 512, -73, 4, 4, 
-29, 4, 34, 12, -31, 19, 4, 34, 512, -73, 4, 4, 
-29, 4, 34, 12, -31, 19, 4, 34, 512, -73, 0, 4, 
-29, 4, 34, 12, -31, 19, 4, 34, 517, -78, 0, 9, 
-29, 9, 39, 9, -34, 24, 0, 34, 517, -73, 0, 14, 
-24, 9, 34, 7, -29, 21, 0, 34, 517, -73, 4, 24, 
-24, 9, 34, 7, -29, 21, -4, 34, 522, -68, 0, 24, 
-24, 4, 29, 9, -26, 17, -9, 34, 522, -68, -4, 24, 
-19, 9, 29, 4, -24, 19, -9, 34, 522, -68, 0, 29, 
-19, 9, 29, 4, -24, 19, -9, 39, 527, -63, 4, 29, 
-19, 9, 29, 4, -24, 19, -9, 39, 531, -63, 4, 34, 
-19, 9, 29, 4, -24, 19, -9, 39, 536, -58, 4, 34, 
-14, 9, 24, 2, -19, 17, -9, 34, 536, -58, 0, 34, 
-14, 9, 24, 2, -19, 17, -9, 34, 536, -58, 0, 34, 
-14, 9, 24, 2, -19, 17, -9, 34, 536, -53, 0, 34, 
-14, 4, 19, 4, -17, 12, -9, 34, 536, -53, 0, 34, 
-9, 4, 14, 2, -12, 9, -4, 34, 536, -53, -4, 34, 
-9, 4, 14, 2, -12, 9, -4, 34, 536, -53, -4, 34, 
-9, -4, 4, 7, -7, 0, 0, 39, 536, -53, -4, 34, 
-9, -9, 0, 9, -4, -4, 4, 43, 536, -53, -4, 34, 
-9, -14, -4, 12, -2, -9, 4, 39, 536, -53, -4, 34, 
-9, -19, -9, 14, 0, -14, 4, 39, 536, -53, -4, 34, 
-9, -19, -9, 14, 0, -14, 4, 39, 536, -53, -4, 34, 
-9, -19, -9, 14, 0, -14, 4, 39, 536, -53, -4, 39, 
-4, -19, -14, 12, 4, -17, 4, 43, 536, -58, -4, 39, 
-4, -24, -19, 14, 7, -21, 9, 48, 536, -58, -9, 43, 
-9, -29, -19, 19, 4, -24, 9, 48, 536, -63, -9, 43, 
-9, -29, -19, 19, 4, -24, 9, 48, 531, -68, -9, 39, 
-4, -34, -29, 19, 12, -31, 9, 53, 531, -68, -9, 43, 
-4, -39, -34, 21, 14, -36, 9, 58, 531, -68, -9, 43, 
-4, -43, -39, 24, 17, -41, 14, 58, 527, -68, -9, 43, 
-4, -43, -39, 24, 17, -41, 14, 58, 527, -68, -14, 43, 
-4, -48, -43, 26, 19, -46, 19, 58, 527, -68, -14, 43, 
-4, -53, -48, 29, 21, -51, 24, 58, 522, -68, -14, 43, 
-9, -58, -48, 34, 19, -53, 24, 63, 527, -68, -14, 43, 
-9, -68, -58, 39, 24, -63, 24, 68, 527, -68, -19, 43, 
-9, -68, -58, 39, 24, -63, 29, 68, 527, -68, -19, 48, 
-9, -73, -63, 41, 26, -68, 34, 68, 527, -68, -19, 48, 
-9, -78, -68, 43, 29, -73, 34, 73, 527, -68, -19, 43, 
-9, -78, -68, 43, 29, -73, 34, 78, 527, -73, -19, 43, 
-9, -87, -78, 48, 34, -82, 39, 78, 527, -73, -19, 43, 
-9, -92, -82, 51, 36, -87, 39, 78, 522, -73, -19, 43, 
-9, -92, -82, 51, 36, -87, 43, 78, 522, -73, -24, 48, 
-9, -97, -87, 53, 39, -92, 48, 78, 517, -73, -24, 53, 
-9, -102, -92, 56, 41, -97, 48, 82, 517, -73, -24, 53, 
-9, -107, -97, 58, 43, -102, 43, 87, 517, -68, -19, 53, 
-9, -112, -102, 61, 46, -107, 48, 87, 517, -73, -19, 43, 
-4, -122, -117, 63, 56, -119, 53, 87, 512, -78, -19, 39, 
-4, -122, -117, 63, 56, -119, 48, 87, 512, -73, -14, 39, 
-9, -126, -117, 68, 53, -122, 48, 87, 512, -73, -14, 39, 
-14, -126, -112, 70, 48, -119, 53, 87, 512, -73, -14, 39, 
-14, -126, -112, 70, 48, -119, 53, 92, 512, -73, -14, 39, 
-14, -126, -112, 70, 48, -119, 53, 92, 507, -78, -14, 39, 
-14, -126, -112, 70, 48, -119, 53, 92, 507, -82, -14, 39, 
-14, -131, -117, 73, 51, -124, 58, 92, 512, -82, -14, 39, 
-14, -136, -122, 75, 53, -129, 63, 92, 512, -82, -14, 39, 
-9, -136, -126, 73, 58, -131, 63, 92, 512, -82, -14, 39, 
-4, -136, -131, 70, 63, -134, 63, 92, 512, -82, -14, 39, 
-4, -136, -131, 70, 63, -134, 63, 92, 502, -82, -14, 39, 
-4, -136, -131, 70, 63, -134, 63, 92, 502, -78, -9, 43, 
-4, -141, -136, 73, 65, -139, 63, 92, 492, -82, -14, 34, 
-9, -146, -136, 78, 63, -141, 68, 97, 488, -87, -19, 29, 
-9, -151, -141, 80, 65, -146, 68, 97, 488, -87, -19, 24, 
-9, -156, -146, 82, 68, -151, 68, 97, 488, -87, -19, 19, 
-9, -161, -151, 85, 70, -156, 68, 102, 483, -87, -19, 14, 
-4, -165, -161, 85, 78, -163, 68, 107, 483, -87, -19, 9, 
-4, -175, -170, 90, 82, -173, 73, 112, 483, -87, -19, 4, 
9, -161, -170, 75, 90, -165, 68, 112, 497, -68, -4, 14, 
39, -92, -131, 26, 85, -112, 58, 112, 512, -58, 4, 29, 
63, -63, -126, 0, 95, -95, 53, 112, 531, -39, 24, 39, 
73, -58, -131, -7, 102, -95, 39, 112, 536, -29, 34, 48, 
87, -48, -136, -19, 112, -92, 24, 112, 541, -14, 48, 53, 
92, -34, -126, -29, 109, -80, 14, 112, 541, -14, 53, 58, 
92, -29, -122, -31, 107, -75, 0, 107, 541, -14, 58, 58, 
92, -39, -131, -26, 112, -85, -4, 107, 531, -14, 58, 58, 
82, -63, -146, -9, 114, -104, 0, 102, 517, -29, 48, 48, 
78, -78, -156, 0, 117, -117, 4, 97, 497, -43, 34, 39, 
73, -82, -156, 4, 114, -119, 9, 92, 492, -53, 29, 29, 
68, -82, -151, 7, 109, -117, 14, 87, 483, -48, 24, 24, 
53, -87, -141, 17, 97, -114, 19, 82, 483, -48, 19, 24, 
43, -92, -136, 24, 90, -114, 24, 82, 483, -48, 19, 19, 
34, -97, -131, 31, 82, -114, 29, 82, 483, -48, 24, 14, 
4, -107, -112, 51, 58, -109, 29, 73, 478, -48, 19, 4, 
-14, -131, -117, 73, 51, -124, 34, 73, 478, -48, 19, 0, 
-24, -156, -131, 90, 53, -143, 48, 68, 473, -53, 9, -9, 
-24, -165, -141, 95, 58, -153, 48, 63, 458, -63, 0, -19, 
-29, -165, -136, 97, 53, -151, 53, 68, 453, -68, -4, -24, 
-29, -161, -131, 95, 51, -146, 53, 68, 444, -73, -9, -24, 
-29, -161, -131, 95, 51, -146, 53, 68, 444, -73, -9, -24, 
-29, -161, -131, 95, 51, -146, 53, 68, 439, -68, -9, -29, 
-29, -161, -131, 95, 51, -146, 53, 63, 439, -68, -9, -29, 
-24, -161, -136, 92, 56, -148, 53, 63, 439, -68, -9, -29, 
-24, -156, -131, 90, 53, -143, 53, 63, 434, -63, -9, -29, 
-24, -156, -131, 90, 53, -143, 53, 63, 429, -58, -9, -24, 
-24, -156, -131, 90, 53, -143, 53, 63, 429, -58, -9, -24, 
-19, -156, -136, 87, 58, -146, 53, 63, 429, -58, -9, -24, 
-19, -151, -131, 85, 56, -141, 48, 63, 419, -58, -9, -24, 
-19, -146, -126, 82, 53, -136, 43, 58, 419, -53, -4, -19, 
-14, -141, -126, 78, 56, -134, 43, 58, 419, -53, -4, -24, 
-9, -136, -126, 73, 58, -131, 43, 58, 419, -53, -4, -24, 
-9, -136, -126, 73, 58, -131, 43, 58, 419, -48, -4, -24, 
-9, -131, -122, 70, 56, -126, 43, 58, 419, -48, 0, -19, 
-4, -131, -126, 68, 61, -129, 39, 53, 419, -43, 4, -19, 
-4, -126, -122, 65, 58, -124, 39, 48, 419, -39, 9, -19, 
-4, -117, -112, 61, 53, -114, 29, 39, 419, -34, 19, -14, 
-4, -107, -102, 56, 48, -104, 19, 34, 419, -29, 24, -9, 
24, -78, -102, 26, 63, -90, 4, 29, 448, 9, 53, 4, 
-9, -224, -214, 117, 102, -219, 87, 102, 405, -73, -43, -92, 
-185, -590, -405, 387, 109, -497, 307, 239, 253, -326, -336, -375, 
-292, -936, -644, 614, 175, -790, 507, 419, 73, -590, -644, -653, 
-244, -1327, -1083, 785, 419, -1205, 746, 775, -122, -858, -946, -922, 
-112, -1342, -1229, 727, 558, -1285, 741, 878, -170, -922, -1015, -961, 
165, -995, -1161, 414, 663, -1078, 414, 678, -209, -854, -868, -751, 
273, -312, -585, 19, 429, -448, -19, 146, -29, -419, -326, -214, 
244, 712, 468, -478, -112, 590, -434, -405, 556, 453, 644, 634, 
248, 1327, 1078, -788, -414, 1202, -678, -702, 849, 971, 1254, 1146, 
273, 1551, 1278, -912, -502, 1415, -858, -858, 707, 1088, 1507, 1381, 
278, 1434, 1156, -856, -439, 1295, -863, -819, 497, 980, 1454, 1317, 
53, 556, 502, -305, -224, 529, -400, -405, 263, 375, 673, 595, 
-87, -29, 58, 58, -73, 14, -87, -78, 151, -43, 136, 117, 
-87, -97, -9, 92, -39, -53, 82, 117, 234, -102, 14, 4, 
-48, -117, -68, 82, 9, -92, 141, 200, 307, -73, 14, -14, 
48, -14, -63, -17, 56, -39, 63, 170, 444, 48, 117, 34, 
102, 53, -48, -78, 75, 2, 19, 170, 546, 117, 161, 48, 
73, 58, -14, -65, 43, 21, 14, 131, 551, 107, 161, 58, 
68, 63, -4, -65, 36, 29, 0, 82, 561, 107, 161, 68, 
63, 68, 4, -65, 29, 36, 0, 43, 570, 112, 165, 63, 
58, 63, 4, -61, 26, 34, 4, 53, 580, 117, 161, 58, 
53, 48, -4, -51, 29, 21, 4, 58, 580, 107, 156, 48, 
48, 43, -4, -46, 26, 19, 4, 58, 580, 107, 151, 43, 
53, 39, -14, -46, 34, 12, 0, 58, 580, 107, 141, 39, 
58, 39, -19, -48, 39, 9, 0, 58, 585, 107, 136, 39, 
53, 39, -14, -46, 34, 12, 0, 58, 585, 97, 136, 34, 
53, 34, -19, -43, 36, 7, 0, 53, 590, 92, 136, 29, 
53, 34, -19, -43, 36, 7, 0, 53, 590, 92, 136, 29, 
58, 34, -24, -46, 41, 4, 0, 53, 590, 92, 136, 29, 
58, 34, -24, -46, 41, 4, 0, 53, 595, 92, 136, 24, 
58, 34, -24, -46, 41, 4, -4, 53, 595, 92, 136, 19, 
53, 34, -19, -43, 36, 7, -4, 53, 590, 92, 136, 14, 
48, 39, -9, -43, 29, 14, -4, 53, 595, 97, 131, 9, 
48, 39, -9, -43, 29, 14, -4, 53, 595, 97, 136, 9, 
53, 39, -14, -46, 34, 12, -4, 53, 595, 97, 136, 9, 
53, 48, -4, -51, 29, 21, -9, 53, 605, 92, 136, 4, 
58, 48, -9, -53, 34, 19, -9, 53, 610, 92, 141, 0, 
63, 53, -9, -58, 36, 21, -9, 53, 610, 92, 141, 0, 
68, 68, 0, -68, 34, 34, -9, 53, 614, 97, 146, 0, 
73, 68, -4, -70, 39, 31, -14, 53, 614, 97, 146, 4, 
78, 73, -4, -75, 41, 34, -19, 53, 614, 102, 151, 9, 
78, 73, -4, -75, 41, 34, -19, 53, 624, 102, 151, 9, 
73, 73, 0, -73, 36, 36, -19, 53, 629, 107, 161, 14, 
73, 78, 4, -75, 34, 41, -14, 53, 634, 107, 165, 19, 
82, 82, 0, -82, 41, 41, -19, 53, 639, 107, 170, 19, 
82, 82, 0, -82, 41, 41, -24, 53, 644, 112, 175, 24, 
87, 92, 4, -90, 41, 48, -29, 53, 649, 117, 180, 29, 
102, 102, 0, -102, 51, 51, -34, 48, 653, 122, 185, 29, 
107, 112, 4, -109, 51, 58, -39, 43, 663, 126, 190, 29, 
117, 126, 9, -122, 53, 68, -43, 43, 668, 131, 200, 39, 
122, 141, 19, -131, 51, 80, -48, 39, 673, 146, 209, 39, 
126, 161, 34, -143, 46, 97, -53, 39, 683, 151, 219, 48, 
136, 175, 39, -156, 48, 107, -58, 39, 692, 161, 229, 53, 
151, 204, 53, -178, 48, 129, -73, 29, 702, 170, 244, 68, 
161, 234, 73, -197, 43, 153, -82, 29, 712, 185, 263, 78, 
165, 258, 92, -212, 36, 175, -92, 24, 727, 204, 283, 97, 
180, 283, 102, -231, 39, 192, -112, 19, 746, 219, 307, 117, 
195, 307, 112, -251, 41, 209, -126, 14, 761, 239, 322, 136, 
209, 341, 131, -275, 39, 236, -141, 9, 775, 263, 351, 165, 
224, 385, 161, -305, 31, 273, -165, 4, 795, 287, 385, 180, 
248, 434, 185, -341, 31, 309, -185, -9, 819, 317, 414, 209, 
268, 478, 209, -373, 29, 344, -204, -19, 839, 346, 448, 239, 
278, 531, 253, -405, 12, 392, -234, -39, 858, 375, 488, 273, 
307, 585, 278, -446, 14, 431, -253, -43, 878, 409, 527, 302, 
317, 634, 317, -475, 0, 475, -278, -63, 907, 448, 561, 336, 
336, 692, 356, -514, -9, 524, -297, -73, 927, 478, 600, 370, 
346, 746, 400, -546, -26, 573, -322, -92, 951, 507, 644, 405, 
361, 795, 434, -578, -36, 614, -346, -102, 971, 541, 683, 439, 
375, 834, 458, -605, -41, 646, -370, -117, 990, 575, 722, 473, 
385, 878, 492, -631, -53, 685, -390, -136, 1015, 600, 756, 502, 
390, 917, 527, -653, -68, 722, -409, -151, 1039, 629, 785, 522, 
390, 946, 556, -668, -82, 751, -419, -165, 1058, 649, 814, 546, 
390, 956, 566, -673, -87, 761, -424, -170, 1068, 668, 829, 551, 
385, 971, 585, -678, -100, 778, -429, -185, 1083, 673, 839, 561, 
366, 966, 600, -666, -117, 783, -429, -190, 1093, 673, 844, 561, 
341, 936, 595, -639, -126, 766, -424, -195, 1088, 668, 824, 536, 
312, 883, 570, -597, -129, 727, -405, -200, 1078, 639, 785, 492, 
297, 824, 527, -561, -114, 675, -361, -190, 1054, 585, 732, 444, 
273, 756, 483, -514, -104, 619, -331, -170, 1019, 536, 678, 400, 
244, 673, 429, -458, -92, 551, -292, -141, 980, 488, 614, 341, 
214, 585, 370, -400, -78, 478, -258, -117, 936, 424, 546, 268, 
185, 488, 302, -336, -58, 395, -219, -97, 888, 351, 473, 209, 
156, 400, 244, -278, -43, 322, -180, -78, 829, 297, 405, 146, 
131, 326, 195, -229, -31, 261, -151, -48, 790, 239, 346, 87, 
107, 239, 131, -173, -12, 185, -117, -19, 751, 180, 283, 29, 
87, 170, 82, -129, 2, 126, -82, -4, 712, 126, 224, -19, 
73, 122, 48, -97, 12, 85, -53, 4, 683, 87, 185, -48, 
48, 73, 24, -61, 12, 48, -34, 24, 658, 58, 156, -78, 
39, 29, -9, -34, 24, 9, -14, 43, 634, 29, 112, -117, 
29, -4, -34, -12, 31, -19, -4, 48, 610, 0, 87, -131, 
19, -29, -48, 4, 34, -39, 9, 58, 590, -14, 73, -146, 
9, -39, -48, 14, 29, -43, 14, 58, 585, -24, 63, -161, 
4, -58, -63, 26, 34, -61, 24, 63, 580, -39, 48, -175, 
-4, -63, -58, 34, 26, -61, 24, 73, 570, -48, 39, -180, 
-9, -68, -58, 39, 24, -63, 29, 78, 570, -58, 29, -190, 
-9, -78, -68, 43, 29, -73, 34, 78, 566, -58, 29, -190, 
-9, -82, -73, 46, 31, -78, 34, 78, 561, -63, 24, -195, 
-9, -87, -78, 48, 34, -82, 34, 78, 556, -63, 19, -195, 
-9, -87, -78, 48, 34, -82, 34, 78, 551, -63, 14, -195, 
-9, -82, -73, 46, 31, -78, 34, 78, 546, -68, 9, -195, 
-14, -82, -68, 48, 26, -75, 39, 78, 546, -68, 4, -195, 
-14, -82, -68, 48, 26, -75, 39, 78, 546, -68, 4, -195, 
-14, -82, -68, 48, 26, -75, 39, 82, 546, -68, 4, -195, 
-4, -82, -78, 43, 36, -80, 39, 82, 551, -68, 4, -195, 
0, -78, -78, 39, 39, -78, 39, 82, 551, -68, 4, -200, 
4, -78, -82, 36, 43, -80, 39, 82, 551, -68, 0, -200, 
4, -78, -82, 36, 43, -80, 39, 82, 551, -68, 0, -200, 
4, -78, -82, 36, 43, -80, 34, 82, 551, -68, 0, -200, 
4, -73, -78, 34, 41, -75, 34, 82, 551, -68, 0, -200, 
4, -68, -73, 31, 39, -70, 29, 82, 556, -63, 0, -200, 
4, -63, -68, 29, 36, -65, 24, 82, 561, -63, 4, -200, 
9, -58, -68, 24, 39, -63, 24, 82, 561, -63, 4, -195, 
9, -53, -63, 21, 36, -58, 24, 82, 561, -58, 4, -190, 
9, -48, -58, 19, 34, -53, 24, 78, 566, -58, 9, -185, 
9, -39, -48, 14, 29, -43, 19, 73, 566, -53, 9, -185, 
14, -39, -53, 12, 34, -46, 19, 73, 566, -53, 14, -180, 
14, -34, -48, 9, 31, -41, 19, 73, 570, -48, 14, -180, 
14, -34, -48, 9, 31, -41, 14, 78, 570, -48, 9, -180, 
19, -29, -48, 4, 34, -39, 9, 78, 570, -48, 9, -175, 
19, -24, -43, 2, 31, -34, 9, 78, 575, -43, 14, -170, 
19, -19, -39, 0, 29, -29, 9, 78, 575, -43, 14, -161, 
14, -14, -29, 0, 21, -21, 9, 78, 575, -39, 19, -161, 
14, -9, -24, -2, 19, -17, 9, 73, 575, -39, 24, -161, 
14, -9, -24, -2, 19, -17, 4, 73, 575, -39, 29, -156, 
14, -4, -19, -4, 17, -12, 0, 73, 575, -34, 29, -151, 
14, 0, -14, -7, 14, -7, 0, 68, 575, -29, 29, -151, 
19, 4, -14, -12, 17, -4, 0, 63, 575, -24, 24, -151, 
19, 4, -14, -12, 17, -4, -4, 63, 575, -24, 24, -151, 
19, 0, -19, -9, 19, -9, -4, 63, 575, -24, 24, -151, 
19, 0, -19, -9, 19, -9, -4, 63, 575, -24, 24, -151, 
19, 0, -19, -9, 19, -9, -4, 58, 575, -24, 24, -151, 
19, 0, -19, -9, 19, -9, -4, 58, 575, -24, 24, -151, 
19, 0, -19, -9, 19, -9, -4, 58, 575, -24, 24, -156, 
19, 4, -14, -12, 17, -4, -4, 58, 575, -24, 24, -151, 
24, 9, -14, -17, 19, -2, -4, 58, 570, -29, 24, -151, 
24, 4, -19, -14, 21, -7, 0, 58, 566, -29, 19, -151, 
19, 0, -19, -9, 19, -9, 0, 58, 566, -29, 19, -151, 
14, 4, -9, -9, 12, -2, 0, 58, 561, -29, 19, -156, 
14, 4, -9, -9, 12, -2, 0, 58, 561, -29, 19, -156, 
14, 0, -14, -7, 14, -7, -4, 58, 561, -29, 19, -156, 
14, -4, -19, -4, 17, -12, -4, 58, 556, -29, 19, -151, 
14, -4, -19, -4, 17, -12, -4, 53, 556, -29, 14, -151, 
14, -4, -19, -4, 17, -12, -4, 48, 556, -29, 14, -151, 
14, -4, -19, -4, 17, -12, -4, 48, 551, -29, 14, -151, 
9, -4, -14, -2, 12, -9, -4, 48, 551, -29, 14, -151, 
9, -4, -14, -2, 12, -9, -4, 48, 546, -29, 4, -151, 
9, 0, -9, -4, 9, -4, -4, 48, 546, -29, 0, -151, 
9, 0, -9, -4, 9, -4, -4, 48, 546, -24, 0, -151, 
9, 0, -9, -4, 9, -4, -4, 48, 546, -19, 0, -151, 
9, 0, -9, -4, 9, -4, -4, 48, 546, -24, 0, -151, 
9, -4, -14, -2, 12, -9, -4, 48, 546, -24, 0, -151, 
4, -9, -14, 2, 9, -12, -9, 43, 541, -24, 0, -151, 
0, -9, -9, 4, 4, -9, -9, 39, 541, -24, -4, -151, 
0, -9, -9, 4, 4, -9, -9, 39, 536, -24, -4, -151, 
0, -9, -9, 4, 4, -9, -9, 39, 536, -24, -4, -151, 
4, -9, -14, 2, 9, -12, -4, 39, 536, -24, -4, -146, 
9, -9, -19, 0, 14, -14, -4, 43, 536, -24, -4, -146, 
4, -9, -14, 2, 9, -12, 0, 43, 527, -24, -4, -146, 
0, -9, -9, 4, 4, -9, 0, 48, 517, -29, -9, -146, 
0, -14, -14, 7, 7, -14, 0, 48, 517, -34, -14, -146, 
0, -19, -19, 9, 9, -19, 0, 48, 517, -39, -19, -146, 
4, -14, -19, 4, 12, -17, 0, 48, 512, -39, -19, -146, 
14, 9, -4, -12, 9, 2, -4, 43, 517, -24, -9, -136, 
29, 34, 4, -31, 12, 19, -9, 43, 527, -14, 0, -126, 
48, 73, 24, -61, 12, 48, -24, 43, 541, 0, 14, -107, 
63, 82, 19, -73, 21, 51, -34, 43, 566, 24, 34, -92, 
68, 97, 29, -82, 19, 63, -48, 43, 570, 34, 39, -78, 
73, 107, 34, -90, 19, 70, -63, 39, 575, 43, 48, -73, 
73, 117, 43, -95, 14, 80, -68, 29, 580, 43, 48, -68, 
73, 122, 48, -97, 12, 85, -78, 19, 580, 43, 48, -63, 
73, 117, 43, -95, 14, 80, -78, 19, 570, 43, 48, -58, 
63, 97, 34, -80, 14, 65, -68, 19, 556, 29, 39, -63, 
58, 87, 29, -73, 14, 58, -63, 19, 536, 14, 29, -63, 
53, 82, 29, -68, 12, 56, -58, 14, 531, 4, 29, -68, 
48, 78, 29, -63, 9, 53, -53, 14, 522, 4, 24, -73, 
34, 68, 34, -51, 0, 51, -48, 9, 522, -4, 24, -73, 
24, 63, 39, -43, -7, 51, -43, 4, 522, -9, 24, -73, 
14, 58, 43, -36, -14, 51, -39, 4, 522, -9, 24, -68, 
-14, 48, 63, -17, -39, 56, -34, -4, 512, -14, 14, -73, 
-29, 29, 58, 0, -43, 43, -24, -4, 507, -19, 9, -78, 
-34, 9, 43, 12, -39, 26, -9, -4, 502, -24, 0, -82, 
-34, 0, 34, 17, -34, 17, -9, -4, 488, -34, -14, -82, 
-39, -4, 34, 21, -36, 14, -4, 0, 488, -39, -19, -82, 
-39, -4, 34, 21, -36, 14, -9, 0, 483, -43, -19, -82, 
-39, -4, 34, 21, -36, 14, -14, 0, 483, -43, -19, -82, 
-39, 0, 39, 19, -39, 19, -14, 0, 478, -39, -19, -82, 
-39, 4, 43, 17, -41, 24, -14, 0, 478, -39, -19, -78, 
-29, 4, 34, 12, -31, 19, -14, 4, 478, -39, -19, -73, 
-24, 9, 34, 7, -29, 21, -14, 4, 478, -39, -19, -68, 
-24, 9, 34, 7, -29, 21, -14, 4, 478, -39, -19, -58, 
-24, 9, 34, 7, -29, 21, -14, 4, 478, -39, -19, -53, 
-19, 14, 34, 2, -26, 24, -14, 0, 478, -39, -19, -53, 
-19, 19, 39, 0, -29, 29, -14, 0, 468, -39, -19, -53, 
-19, 19, 39, 0, -29, 29, -14, 0, 468, -34, -14, -43, 
-19, 24, 43, -2, -31, 34, -14, 0, 468, -34, -14, -39, 
-19, 29, 48, -4, -34, 39, -14, -4, 473, -39, -9, -29, 
-19, 29, 48, -4, -34, 39, -14, -9, 478, -39, -4, -24, 
-19, 34, 53, -7, -36, 43, -14, -9, 478, -39, 0, -14, 
-14, 34, 48, -9, -31, 41, -19, -9, 478, -39, 0, -9, 
-14, 39, 53, -12, -34, 46, -19, -9, 473, -39, -4, -9, 
-14, 39, 53, -12, -34, 46, -19, -9, 468, -39, -4, -9, 
-14, 24, 39, -4, -26, 31, -19, 4, 463, -58, -19, -14, 
-14, -39, -24, 26, 4, -31, 14, 43, 448, -97, -73, -58, 
-68, -283, -214, 175, 73, -248, 146, 141, 356, -258, -268, -229, 
-190, -649, -458, 419, 134, -553, 351, 292, 195, -522, -570, -507, 
-263, -936, -673, 600, 204, -805, 517, 468, 39, -751, -834, -727, 
-165, -1112, -946, 639, 390, -1029, 610, 678, -92, -907, -990, -839, 
-14, -883, -868, 448, 427, -875, 488, 649, -63, -805, -849, -697, 
165, -375, -541, 104, 353, -458, 136, 346, 4, -546, -492, -336, 
224, 375, 151, -300, 36, 263, -312, -204, 253, 0, 180, 278, 
200, 1180, 980, -690, -390, 1080, -614, -580, 702, 697, 976, 961, 
214, 1571, 1356, -893, -570, 1464, -766, -771, 800, 1024, 1371, 1288, 
204, 1556, 1351, -880, -573, 1454, -824, -795, 610, 995, 1400, 1307, 
165, 1185, 1019, -675, -427, 1102, -712, -644, 409, 697, 1098, 1044, 
-4, 439, 444, -217, -224, 441, -297, -287, 268, 170, 419, 444, 
-92, 43, 136, 24, -114, 90, -39, -24, 248, -112, 39, 117, 
-73, 58, 131, 7, -102, 95, 48, 92, 346, -112, -14, 58, 
-14, 126, 141, -56, -78, 134, 29, 122, 448, -14, 63, 102, 
63, 209, 146, -136, -41, 178, -29, 82, 566, 82, 141, 161, 
92, 244, 151, -168, -29, 197, -48, 82, 634, 117, 151, 165, 
63, 248, 185, -156, -61, 217, -53, 53, 634, 107, 151, 165, 
58, 248, 190, -153, -65, 219, -68, 4, 644, 107, 151, 170, 
53, 248, 195, -151, -70, 222, -68, -24, 649, 107, 151, 170, 
48, 244, 195, -146, -73, 219, -63, -4, 649, 107, 141, 165, 
43, 234, 190, -139, -73, 212, -63, 0, 649, 97, 136, 156, 
39, 229, 190, -134, -75, 209, -63, 0, 649, 97, 131, 151, 
39, 224, 185, -131, -73, 204, -63, 0, 649, 97, 122, 146, 
39, 229, 190, -134, -75, 209, -58, 0, 653, 97, 117, 151, 
34, 234, 200, -134, -82, 217, -58, 0, 653, 92, 117, 156, 
34, 229, 195, -131, -80, 212, -63, -4, 663, 92, 117, 156, 
34, 229, 195, -131, -80, 212, -68, -4, 668, 92, 117, 156, 
39, 234, 195, -136, -78, 214, -68, -4, 668, 92, 117, 161, 
39, 239, 200, -139, -80, 219, -68, -4, 673, 92, 117, 161, 
39, 239, 200, -139, -80, 219, -73, -4, 673, 92, 117, 156, 
39, 239, 200, -139, -80, 219, -73, -4, 673, 92, 122, 156, 
39, 248, 209, -143, -85, 229, -73, -4, 683, 97, 122, 161, 
39, 253, 214, -146, -87, 234, -73, -4, 683, 97, 126, 165, 
43, 253, 209, -148, -82, 231, -73, -4, 683, 97, 131, 165, 
43, 263, 219, -153, -87, 241, -78, -4, 692, 97, 136, 165, 
48, 263, 214, -156, -82, 239, -78, -4, 697, 102, 141, 165, 
48, 263, 214, -156, -82, 239, -78, -4, 697, 102, 141, 165, 
48, 273, 224, -161, -87, 248, -78, -4, 702, 107, 146, 165, 
53, 273, 219, -163, -82, 246, -82, -4, 702, 107, 146, 170, 
58, 278, 219, -168, -80, 248, -87, -4, 702, 107, 151, 175, 
63, 283, 219, -173, -78, 251, -87, -4, 712, 107, 151, 175, 
63, 287, 224, -175, -80, 256, -87, -4, 717, 117, 161, 180, 
63, 292, 229, -178, -82, 261, -87, -4, 722, 117, 165, 185, 
73, 302, 229, -187, -78, 265, -97, -4, 732, 122, 170, 190, 
73, 312, 239, -192, -82, 275, -102, -4, 741, 131, 175, 200, 
78, 326, 248, -202, -85, 287, -107, -4, 746, 136, 180, 204, 
87, 336, 248, -212, -80, 292, -112, -4, 751, 141, 185, 209, 
87, 346, 258, -217, -85, 302, -117, -4, 761, 146, 195, 209, 
97, 361, 263, -229, -82, 312, -122, -4, 771, 151, 209, 219, 
107, 375, 268, -241, -80, 322, -131, -9, 780, 165, 219, 224, 
117, 395, 278, -256, -80, 336, -141, -9, 790, 170, 229, 239, 
126, 409, 283, -268, -78, 346, -146, -9, 800, 180, 239, 244, 
141, 439, 297, -290, -78, 368, -161, -19, 810, 190, 253, 258, 
146, 473, 326, -309, -90, 400, -170, -19, 819, 204, 273, 273, 
151, 502, 351, -326, -100, 427, -180, -24, 834, 224, 292, 292, 
170, 527, 356, -348, -92, 441, -200, -34, 854, 244, 326, 312, 
185, 561, 375, -373, -95, 468, -214, -43, 868, 268, 351, 331, 
200, 605, 405, -402, -102, 505, -229, -48, 883, 292, 380, 361, 
214, 649, 434, -431, -109, 541, -253, -53, 902, 317, 414, 385, 
239, 697, 458, -468, -109, 578, -273, -63, 927, 346, 448, 424, 
258, 736, 478, -497, -109, 607, -292, -68, 946, 375, 483, 453, 
268, 790, 522, -529, -126, 656, -322, -87, 971, 409, 517, 488, 
297, 849, 551, -573, -126, 700, -341, -92, 995, 444, 556, 522, 
307, 897, 590, -602, -141, 744, -366, -112, 1029, 478, 590, 561, 
331, 951, 619, -641, -143, 785, -390, -126, 1054, 507, 629, 595, 
346, 1000, 653, -673, -153, 827, -414, -151, 1078, 536, 673, 624, 
361, 1049, 688, -705, -163, 868, -434, -161, 1098, 566, 702, 653, 
375, 1088, 712, -732, -168, 900, -458, -170, 1117, 600, 736, 688, 
380, 1122, 741, -751, -180, 932, -473, -185, 1137, 624, 771, 712, 
380, 1151, 771, -766, -195, 961, -488, -200, 1156, 649, 795, 732, 
380, 1176, 795, -778, -207, 985, -497, -214, 1176, 663, 814, 756, 
375, 1180, 805, -778, -214, 993, -502, -219, 1185, 678, 819, 756, 
361, 1180, 819, -771, -229, 1000, -502, -229, 1190, 678, 819, 756, 
336, 1156, 819, -746, -241, 988, -497, -229, 1195, 668, 814, 741, 
312, 1112, 800, -712, -244, 956, -488, -229, 1185, 649, 785, 707, 
283, 1049, 766, -666, -241, 907, -463, -229, 1166, 610, 736, 658, 
258, 985, 727, -622, -234, 856, -419, -219, 1132, 556, 683, 610, 
224, 912, 688, -568, -231, 800, -390, -195, 1088, 497, 624, 561, 
195, 829, 634, -512, -219, 732, -351, -165, 1049, 439, 561, 502, 
170, 741, 570, -456, -200, 656, -317, -146, 1005, 375, 497, 434, 
146, 658, 512, -402, -183, 585, -278, -126, 956, 307, 434, 385, 
117, 585, 468, -351, -175, 527, -239, -107, 897, 258, 375, 331, 
92, 517, 424, -305, -165, 470, -209, -82, 863, 204, 322, 283, 
68, 439, 370, -253, -151, 405, -175, -63, 829, 151, 263, 234, 
48, 385, 336, -217, -143, 361, -151, -53, 790, 107, 214, 195, 
39, 346, 307, -192, -134, 326, -131, -43, 761, 78, 185, 170, 
24, 302, 278, -163, -126, 290, -112, -29, 741, 48, 165, 141, 
19, 263, 244, -141, -112, 253, -92, -14, 722, 19, 131, 102, 
9, 239, 229, -124, -109, 234, -82, -9, 702, -4, 112, 87, 
-4, 224, 229, -109, -117, 226, -73, 0, 688, -14, 102, 73, 
-19, 214, 234, -97, -126, 224, -73, 0, 683, -24, 92, 58, 
-24, 195, 219, -85, -122, 207, -63, 4, 678, -39, 78, 48, 
-29, 190, 219, -80, -124, 204, -63, 9, 668, -43, 73, 43, 
-29, 185, 214, -78, -122, 200, -58, 9, 673, -48, 68, 34, 
-29, 175, 204, -73, -117, 190, -53, 9, 673, -48, 68, 34, 
-29, 170, 200, -70, -114, 185, -48, 9, 668, -53, 63, 24, 
-29, 165, 195, -68, -112, 180, -43, 9, 668, -53, 58, 19, 
-24, 165, 190, -70, -107, 178, -43, 9, 673, -53, 53, 19, 
-19, 165, 185, -73, -102, 175, -43, 9, 673, -58, 53, 19, 
-24, 161, 185, -68, -104, 173, -39, 9, 673, -58, 53, 14, 
-24, 161, 185, -68, -104, 173, -39, 9, 673, -58, 53, 9, 
-24, 161, 185, -68, -104, 173, -39, 14, 668, -58, 53, 9, 
-19, 161, 180, -70, -100, 170, -39, 14, 668, -58, 53, 9, 
-19, 165, 185, -73, -102, 175, -39, 14, 668, -58, 53, 4, 
-14, 165, 180, -75, -97, 173, -39, 14, 668, -58, 48, 4, 
-14, 165, 180, -75, -97, 173, -34, 14, 673, -58, 48, 4, 
-14, 165, 180, -75, -97, 173, -34, 14, 678, -58, 48, 4, 
-14, 170, 185, -78, -100, 178, -34, 14, 678, -58, 48, 0, 
-14, 170, 185, -78, -100, 178, -34, 14, 678, -53, 48, -4, 
-14, 175, 190, -80, -102, 183, -34, 14, 678, -53, 53, -4, 
-9, 180, 190, -85, -100, 185, -34, 14, 678, -53, 53, -4, 
-9, 180, 190, -85, -100, 185, -34, 14, 678, -48, 48, -4, 
-9, 180, 190, -85, -100, 185, -34, 14, 683, -48, 48, 0, 
-9, 185, 195, -87, -102, 190, -39, 9, 683, -43, 48, 0, 
-4, 185, 190, -90, -97, 187, -39, 4, 683, -43, 53, 4, 
-4, 190, 195, -92, -100, 192, -39, 4, 692, -39, 53, 4, 
-4, 190, 195, -92, -100, 192, -39, 4, 697, -39, 53, 4, 
0, 195, 195, -97, -97, 195, -39, 0, 697, -39, 58, 9, 
0, 195, 195, -97, -97, 195, -39, 0, 702, -34, 63, 9, 
0, 195, 195, -97, -97, 195, -34, 0, 702, -34, 63, 14, 
0, 195, 195, -97, -97, 195, -29, 0, 702, -29, 63, 14, 
4, 195, 190, -100, -92, 192, -29, -4, 707, -24, 58, 19, 
4, 195, 190, -100, -92, 192, -29, -4, 712, -19, 58, 24, 
4, 200, 195, -102, -95, 197, -29, -4, 712, -14, 58, 24, 
4, 200, 195, -102, -95, 197, -29, -4, 712, -14, 58, 24, 
9, 195, 185, -102, -87, 190, -29, -4, 712, -14, 53, 24, 
9, 190, 180, -100, -85, 185, -34, -4, 712, -14, 53, 24, 
4, 185, 180, -95, -87, 183, -29, -4, 712, -14, 53, 24, 
0, 185, 185, -92, -92, 185, -24, -4, 712, -14, 53, 24, 
0, 185, 185, -92, -92, 185, -24, -9, 707, -14, 48, 24, 
0, 185, 185, -92, -92, 185, -24, -9, 702, -14, 43, 24, 
0, 185, 185, -92, -92, 185, -19, -9, 702, -14, 43, 24, 
0, 185, 185, -92, -92, 185, -14, -9, 702, -14, 43, 29, 
4, 185, 180, -95, -87, 183, -14, -9, 702, -19, 43, 24, 
4, 180, 175, -92, -85, 178, -9, -9, 702, -19, 39, 24, 
0, 175, 175, -87, -87, 175, -9, -9, 702, -19, 34, 24, 
0, 175, 175, -87, -87, 175, -9, -9, 697, -19, 29, 19, 
0, 165, 165, -82, -82, 165, -9, -9, 702, -19, 24, 19, 
-4, 156, 161, -75, -82, 158, -9, -9, 707, -19, 19, 14, 
-4, 151, 156, -73, -80, 153, -4, -9, 702, -24, 19, 9, 
-4, 151, 156, -73, -80, 153, -4, -9, 702, -29, 14, 4, 
0, 146, 146, -73, -73, 146, -4, -4, 702, -29, 14, 4, 
4, 141, 136, -73, -65, 139, -4, 0, 697, -29, 14, 4, 
0, 141, 141, -70, -70, 141, -4, 0, 697, -29, 14, 4, 
0, 136, 136, -68, -68, 136, -4, 0, 692, -29, 9, 4, 
-4, 136, 141, -65, -73, 139, -4, 0, 692, -29, 4, 4, 
-9, 131, 141, -61, -75, 136, -4, 0, 692, -29, 0, 0, 
-9, 126, 136, -58, -73, 131, -4, 0, 692, -24, 0, -4, 
-9, 126, 136, -58, -73, 131, -4, 0, 692, -24, 0, -4, 
-4, 122, 126, -58, -65, 124, -4, 0, 692, -24, 0, -4, 
0, 122, 122, -61, -61, 122, -9, 0, 688, -24, 0, -4, 
0, 122, 122, -61, -61, 122, -9, 0, 688, -24, -4, -9, 
0, 117, 117, -58, -58, 117, -9, 0, 683, -24, -4, -14, 
-4, 112, 117, -53, -61, 114, -4, 0, 683, -29, -4, -14, 
-9, 107, 117, -48, -63, 112, -4, 0, 683, -29, 0, -14, 
-9, 107, 117, -48, -63, 112, -4, 0, 683, -29, 0, -14, 
-4, 102, 107, -48, -56, 104, -4, 0, 678, -29, 0, -9, 
-4, 107, 112, -51, -58, 109, -9, 0, 678, -24, 0, -14, 
-9, 107, 117, -48, -63, 112, -9, 0, 678, -24, -4, -19, 
-9, 102, 112, -46, -61, 107, -9, -4, 678, -24, -4, -19, 
-4, 97, 102, -46, -53, 100, -14, -4, 678, -24, -4, -19, 
-9, 92, 102, -41, -56, 97, -14, -4, 678, -24, -4, -19, 
-9, 87, 97, -39, -53, 92, -14, -4, 683, -24, -4, -19, 
-4, 82, 87, -39, -46, 85, -4, 0, 673, -24, -4, -19, 
0, 78, 78, -39, -39, 78, 0, 9, 663, -29, -9, -19, 
0, 73, 73, -36, -36, 73, 0, 9, 663, -29, -9, -19, 
0, 68, 68, -34, -34, 68, 0, 9, 663, -29, -9, -19, 
4, 63, 58, -34, -26, 61, 0, 14, 663, -24, -9, -19, 
9, 63, 53, -36, -21, 58, 0, 14, 663, -19, -4, -19, 
19, 68, 48, -43, -14, 58, 0, 19, 668, -19, -4, -19, 
39, 102, 63, -70, -12, 82, -9, 14, 683, 0, 14, -4, 
58, 141, 82, -100, -12, 112, -24, 14, 697, 4, 24, 14, 
73, 141, 68, -107, 2, 104, -34, 14, 717, 19, 43, 29, 
78, 146, 68, -112, 4, 107, -48, 14, 717, 24, 48, 39, 
87, 156, 68, -122, 9, 112, -63, 14, 717, 34, 58, 43, 
87, 161, 73, -124, 7, 117, -68, 9, 717, 34, 53, 48, 
82, 156, 73, -119, 4, 114, -78, 0, 717, 34, 48, 48, 
82, 146, 63, -114, 9, 104, -78, 0, 707, 34, 48, 48, 
73, 122, 48, -97, 12, 85, -68, -4, 692, 19, 39, 39, 
68, 107, 39, -87, 14, 73, -63, -9, 678, 4, 29, 39, 
63, 102, 39, -82, 12, 70, -58, -14, 678, -4, 29, 39, 
58, 92, 34, -75, 12, 63, -53, -14, 668, -4, 24, 34, 
43, 78, 34, -61, 4, 56, -48, -14, 668, -9, 19, 34, 
34, 68, 34, -51, 0, 51, -43, -14, 668, -9, 14, 34, 
24, 58, 34, -41, -4, 46, -39, -14, 668, -9, 14, 34, 
-4, 48, 53, -21, -29, 51, -34, -24, 658, -14, 9, 24, 
-24, 24, 48, 0, -36, 36, -24, -24, 653, -19, 9, 19, 
-34, 0, 34, 17, -34, 17, -9, -19, 653, -24, 0, 14, 
-34, -9, 24, 21, -29, 7, -9, -14, 644, -34, -9, 9, 
-39, -14, 24, 26, -31, 4, -4, -9, 644, -39, -9, 4, 
-39, -14, 24, 26, -31, 4, -4, -9, 639, -43, -9, 4, 
-39, -14, 24, 26, -31, 4, -4, -9, 639, -43, -9, 4, 
-39, -14, 24, 26, -31, 4, -4, -9, 634, -39, -9, 0, 
-39, -14, 24, 26, -31, 4, -4, -9, 634, -39, -9, 0, 
-34, -14, 19, 24, -26, 2, -4, -4, 634, -39, -9, 0, 
-34, -9, 24, 21, -29, 7, -4, -4, 634, -34, -9, 0, 
-34, -9, 24, 21, -29, 7, -4, -4, 634, -29, -9, 4, 
-34, -9, 24, 21, -29, 7, -4, -4, 634, -29, -9, 4, 
-29, -9, 19, 19, -24, 4, -4, -4, 634, -29, -9, 4, 
-29, -9, 19, 19, -24, 4, -4, -4, 624, -34, -9, 4, 
-29, -9, 19, 19, -24, 4, -4, -9, 624, -34, -4, 9, 
-29, -4, 24, 17, -26, 9, -4, -9, 624, -34, -4, 9, 
-29, 0, 29, 14, -29, 14, -4, -9, 624, -34, -4, 14, 
-29, 0, 29, 14, -29, 14, -4, -9, 629, -29, -4, 14, 
-29, 4, 34, 12, -31, 19, -4, -9, 634, -29, 0, 19, 
-24, 4, 29, 9, -26, 17, -9, -4, 634, -29, 0, 19, 
-24, 9, 34, 7, -29, 21, -9, 0, 634, -29, 0, 19, 
-34, -24, 9, 29, -21, -7, 9, 14, 624, -43, -14, 0, 
-43, -58, -14, 51, -14, -36, 29, 34, 614, -58, -34, -19, 
-73, -170, -97, 122, 12, -134, 102, 92, 566, -131, -131, -112, 
-165, -458, -292, 312, 63, -375, 273, 229, 444, -326, -356, -317, 
-224, -727, -502, 475, 139, -614, 434, 390, 302, -536, -580, -522, 
-214, -976, -761, 595, 273, -868, 575, 595, 131, -756, -819, -722, 
-78, -1010, -932, 544, 427, -971, 551, 673, 19, -819, -854, -727, 
141, -668, -810, 263, 475, -739, 283, 497, 53, -678, -653, -502, 
292, -185, -478, -53, 385, -331, -48, 209, 151, -419, -312, -151, 
273, 634, 361, -453, -43, 497, -488, -409, 468, 204, 424, 527, 
239, 1220, 980, -729, -370, 1100, -727, -736, 766, 712, 1000, 1039, 
239, 1395, 1156, -817, -458, 1276, -795, -810, 771, 863, 1215, 1215, 
180, 1263, 1083, -722, -451, 1173, -732, -722, 668, 761, 1122, 1132, 
102, 790, 688, -446, -292, 739, -492, -439, 497, 434, 722, 751, 
-19, 283, 302, -131, -161, 292, -170, -151, 414, 102, 273, 322, 
-58, 68, 126, -4, -92, 97, 0, 48, 453, -43, 68, 136, 
-53, 68, 122, -7, -87, 95, 68, 151, 551, -43, 24, 78, 
-9, 117, 126, -53, -68, 122, 24, 141, 639, 43, 102, 112, 
53, 165, 112, -109, -29, 139, -14, 102, 712, 117, 161, 151, 
73, 180, 107, -126, -17, 143, -19, 92, 751, 136, 161, 156, 
43, 180, 136, -112, -46, 158, -19, 68, 741, 126, 151, 156, 
39, 180, 141, -109, -51, 161, -29, 34, 736, 126, 141, 156, 
34, 175, 141, -104, -53, 158, -24, 4, 736, 122, 141, 146, 
29, 161, 131, -95, -51, 146, -14, 24, 736, 117, 131, 136, 
24, 146, 122, -85, -48, 134, -14, 29, 732, 107, 126, 126, 
19, 141, 122, -80, -51, 131, -14, 29, 727, 107, 122, 122, 
19, 136, 117, -78, -48, 126, -14, 29, 722, 107, 117, 117, 
19, 136, 117, -78, -48, 126, -9, 29, 722, 107, 117, 117, 
14, 136, 122, -75, -53, 129, -9, 29, 722, 102, 117, 117, 
14, 131, 117, -73, -51, 124, -9, 24, 727, 102, 117, 117, 
14, 131, 117, -73, -51, 124, -9, 24, 722, 102, 117, 117, 
19, 131, 112, -75, -46, 122, -9, 24, 717, 102, 117, 117, 
19, 131, 112, -75, -46, 122, -9, 24, 722, 107, 117, 112, 
19, 131, 112, -75, -46, 122, -14, 24, 722, 112, 117, 107, 
19, 131, 112, -75, -46, 122, -14, 24, 717, 112, 122, 107, 
19, 136, 117, -78, -48, 126, -14, 24, 722, 117, 122, 107, 
19, 136, 117, -78, -48, 126, -14, 24, 717, 117, 126, 107, 
24, 136, 112, -80, -43, 124, -14, 24, 712, 117, 126, 107, 
24, 146, 122, -85, -48, 134, -19, 24, 717, 117, 126, 107, 
29, 146, 117, -87, -43, 131, -19, 24, 717, 122, 131, 107, 
29, 146, 117, -87, -43, 131, -19, 24, 712, 122, 131, 107, 
29, 156, 126, -92, -48, 141, -19, 24, 712, 126, 136, 107, 
34, 156, 122, -95, -43, 139, -24, 29, 712, 126, 136, 112, 
39, 161, 122, -100, -41, 141, -29, 34, 712, 131, 141, 117, 
43, 165, 122, -104, -39, 143, -29, 34, 717, 136, 141, 117, 
43, 170, 126, -107, -41, 148, -29, 34, 717, 146, 151, 122, 
43, 175, 131, -109, -43, 153, -29, 34, 717, 146, 156, 126, 
53, 180, 126, -117, -36, 153, -39, 34, 717, 146, 161, 126, 
53, 185, 131, -119, -39, 158, -43, 29, 722, 151, 165, 131, 
58, 200, 141, -129, -41, 170, -48, 24, 727, 156, 170, 136, 
73, 219, 146, -146, -36, 183, -53, 24, 727, 165, 180, 141, 
78, 239, 161, -158, -41, 200, -58, 24, 732, 175, 190, 146, 
87, 253, 165, -170, -39, 209, -63, 24, 741, 180, 200, 161, 
92, 268, 175, -180, -41, 222, -68, 19, 751, 195, 209, 165, 
97, 287, 190, -192, -46, 239, -73, 19, 761, 200, 219, 180, 
107, 302, 195, -204, -43, 248, -78, 19, 771, 209, 229, 190, 
117, 331, 214, -224, -48, 273, -92, 9, 780, 224, 244, 209, 
122, 361, 239, -241, -58, 300, -102, 9, 790, 244, 263, 224, 
131, 385, 253, -258, -61, 319, -112, 4, 800, 268, 283, 248, 
151, 409, 258, -280, -53, 334, -131, 0, 814, 287, 307, 273, 
165, 444, 278, -305, -56, 361, -146, -4, 829, 307, 326, 292, 
180, 488, 307, -334, -63, 397, -161, -9, 844, 331, 361, 322, 
195, 531, 336, -363, -70, 434, -190, -19, 858, 356, 395, 346, 
219, 580, 361, -400, -70, 470, -214, -39, 878, 385, 424, 385, 
239, 619, 380, -429, -70, 500, -234, -48, 897, 419, 458, 419, 
248, 668, 419, -458, -85, 544, -263, -68, 917, 453, 497, 458, 
278, 722, 444, -500, -82, 583, -283, -73, 932, 483, 536, 492, 
287, 771, 483, -529, -97, 627, -307, -92, 956, 517, 570, 531, 
312, 824, 512, -568, -100, 668, -326, -107, 976, 546, 610, 566, 
326, 873, 546, -600, -109, 710, -351, -131, 1000, 575, 653, 600, 
341, 917, 575, -629, -117, 746, -375, -141, 1015, 605, 683, 629, 
356, 951, 595, -653, -119, 773, -400, -156, 1029, 634, 712, 658, 
361, 985, 624, -673, -131, 805, -409, -170, 1044, 653, 736, 683, 
361, 1015, 653, -688, -146, 834, -419, -180, 1058, 678, 756, 697, 
356, 1029, 673, -692, -158, 851, -429, -195, 1068, 683, 771, 712, 
351, 1024, 673, -688, -161, 849, -434, -200, 1068, 688, 771, 707, 
341, 1015, 673, -678, -165, 844, -429, -209, 1063, 683, 766, 702, 
317, 985, 668, -651, -175, 827, -419, -209, 1054, 673, 756, 688, 
292, 936, 644, -614, -175, 790, -405, -204, 1024, 644, 717, 653, 
263, 863, 600, -563, -168, 732, -375, -200, 990, 590, 658, 600, 
229, 795, 566, -512, -168, 680, -331, -185, 951, 536, 605, 551, 
185, 717, 531, -451, -173, 624, -302, -161, 902, 488, 551, 507, 
165, 634, 468, -400, -151, 551, -263, -136, 858, 439, 492, 453, 
146, 546, 400, -346, -126, 473, -229, -117, 810, 375, 429, 385, 
117, 463, 346, -290, -114, 405, -190, -97, 761, 312, 370, 341, 
87, 390, 302, -239, -107, 346, -151, -78, 702, 268, 317, 292, 
63, 331, 268, -197, -102, 300, -126, -53, 658, 214, 263, 244, 
39, 258, 219, -148, -90, 239, -97, -29, 614, 161, 204, 195, 
19, 204, 185, -112, -82, 195, -73, -14, 575, 122, 161, 156, 
4, 170, 165, -87, -80, 168, -53, -4, 546, 97, 136, 136, 
-14, 131, 146, -58, -80, 139, -34, 4, 527, 68, 117, 112, 
-19, 97, 117, -39, -68, 107, -14, 14, 507, 39, 82, 78, 
-24, 73, 97, -24, -61, 85, -9, 19, 488, 19, 63, 68, 
-29, 58, 87, -14, -58, 73, 0, 29, 473, 14, 53, 58, 
-39, 48, 87, -4, -63, 68, 4, 29, 463, 4, 43, 48, 
-43, 29, 73, 7, -58, 51, 14, 34, 453, -9, 29, 39, 
-48, 24, 73, 12, -61, 48, 14, 39, 439, -9, 24, 34, 
-48, 19, 68, 14, -58, 43, 19, 39, 434, -9, 19, 24, 
-48, 14, 63, 17, -56, 39, 24, 39, 424, -9, 19, 24, 
-48, 14, 63, 17, -56, 39, 24, 39, 414, -14, 14, 19, 
-48, 9, 58, 19, -53, 34, 24, 39, 414, -14, 9, 19, 
-48, 9, 58, 19, -53, 34, 24, 39, 414, -14, 4, 19, 
-43, 9, 53, 17, -48, 31, 19, 39, 405, -19, 4, 19, 
-43, 4, 48, 19, -46, 26, 19, 39, 400, -19, 4, 19, 
-43, 4, 48, 19, -46, 26, 19, 39, 395, -19, 4, 19, 
-43, 4, 48, 19, -46, 26, 19, 43, 390, -19, 4, 19, 
-39, 4, 43, 17, -41, 24, 19, 43, 390, -14, 4, 24, 
-39, 9, 48, 14, -43, 29, 19, 43, 385, -9, 4, 24, 
-34, 9, 43, 12, -39, 26, 19, 39, 385, -9, 0, 24, 
-34, 9, 43, 12, -39, 26, 19, 34, 385, -9, 0, 24, 
-34, 4, 39, 14, -36, 21, 14, 34, 380, -9, 0, 24, 
-34, 4, 39, 14, -36, 21, 14, 34, 375, -9, 0, 24, 
-34, 4, 39, 14, -36, 21, 14, 34, 375, -4, -4, 24, 
-34, 4, 39, 14, -36, 21, 14, 34, 375, -4, -4, 24, 
-29, 4, 34, 12, -31, 19, 14, 34, 370, -4, -4, 24, 
-29, 4, 34, 12, -31, 19, 14, 34, 366, 0, -4, 24, 
-29, 0, 29, 14, -29, 14, 14, 34, 366, 0, -4, 24, 
-29, 0, 29, 14, -29, 14, 9, 34, 361, 4, -9, 19, 
-29, 0, 29, 14, -29, 14, 4, 34, 356, 4, -4, 24, 
-34, 4, 39, 14, -36, 21, 0, 34, 356, 9, -4, 24, 
-34, 4, 39, 14, -36, 21, 0, 34, 356, 9, -4, 19, 
-29, 9, 39, 9, -34, 24, 0, 29, 356, 9, 0, 19, 
-29, 9, 39, 9, -34, 24, 0, 29, 356, 14, 4, 19, 
-29, 9, 39, 9, -34, 24, 0, 29, 351, 14, 4, 24, 
-29, 9, 39, 9, -34, 24, -4, 29, 346, 19, 0, 24, 
-24, 9, 34, 7, -29, 21, -9, 24, 341, 19, -4, 24, 
-19, 9, 29, 4, -24, 19, -9, 24, 341, 19, 0, 24, 
-14, 14, 29, 0, -21, 21, -9, 24, 341, 24, 0, 24, 
-14, 14, 29, 0, -21, 21, -9, 24, 336, 24, 0, 24, 
-9, 14, 24, -2, -17, 19, -9, 24, 331, 24, -4, 24, 
-9, 14, 24, -2, -17, 19, -9, 24, 326, 24, -4, 24, 
-9, 9, 19, 0, -14, 14, -4, 24, 322, 24, -4, 24, 
-9, 4, 14, 2, -12, 9, -4, 24, 317, 24, -4, 19, 
-9, 0, 9, 4, -9, 4, -4, 19, 312, 24, -4, 14, 
-9, 0, 9, 4, -9, 4, -4, 19, 307, 24, -4, 14, 
-9, 0, 9, 4, -9, 4, -4, 19, 302, 24, -4, 9, 
-9, 0, 9, 4, -9, 4, -4, 19, 302, 24, -4, 9, 
-4, 0, 4, 2, -4, 2, -4, 19, 297, 19, -4, 4, 
-4, -4, 0, 4, -2, -2, 0, 19, 287, 14, -9, 4, 
-9, -9, 0, 9, -4, -4, 0, 19, 283, 9, -9, 4, 
-9, -4, 4, 7, -7, 0, -4, 19, 278, 9, -9, 0, 
-4, -4, 0, 4, -2, -2, -9, 19, 278, 9, -9, 0, 
-4, -9, -4, 7, 0, -7, -9, 19, 273, 9, -9, -4, 
-4, -14, -9, 9, 2, -12, -4, 19, 263, 9, -9, -4, 
-4, -14, -9, 9, 2, -12, -4, 19, 258, 4, -14, -4, 
-4, -14, -9, 9, 2, -12, -4, 19, 253, 0, -14, -4, 
-4, -14, -9, 9, 2, -12, -4, 19, 244, 0, -9, -4, 
-9, -14, -4, 12, -2, -9, -4, 19, 239, 0, -4, -4, 
-9, -19, -9, 14, 0, -14, -4, 19, 234, 0, -9, -4, 
-9, -19, -9, 14, 0, -14, -4, 19, 234, 0, -9, -4, 
-9, -19, -9, 14, 0, -14, -4, 19, 224, 0, -9, -9, 
-9, -19, -9, 14, 0, -14, -4, 19, 214, 0, -9, -14, 
-9, -19, -9, 14, 0, -14, 0, 19, 209, -4, -9, -14, 
-9, -24, -14, 17, 2, -19, 4, 19, 204, -4, -9, -14, 
-9, -24, -14, 17, 2, -19, 0, 19, 200, -4, -9, -14, 
-9, -19, -9, 14, 0, -14, 0, 19, 200, -4, -14, -14, 
-9, -19, -9, 14, 0, -14, 0, 19, 190, -9, -14, -14, 
-9, -19, -9, 14, 0, -14, 0, 19, 185, -14, -14, -14, 
-9, -24, -14, 17, 2, -19, 0, 14, 180, -9, -9, -14, 
-9, -24, -14, 17, 2, -19, 4, 9, 175, -9, -9, -14, 
-4, -24, -19, 14, 7, -21, 4, 9, 170, -9, -9, -9, 
-4, -19, -14, 12, 4, -17, 0, 9, 170, -4, -4, -9, 
-4, -19, -14, 12, 4, -17, 0, 9, 161, -9, -4, -9, 
-9, -24, -14, 17, 2, -19, 0, 14, 151, -14, -4, -14, 
-4, -24, -19, 14, 7, -21, 4, 14, 141, -14, -4, -14, 
0, -29, -29, 14, 14, -29, 9, 19, 136, -19, -9, -19, 
0, -29, -29, 14, 14, -29, 9, 19, 131, -19, -9, -19, 
0, -29, -29, 14, 14, -29, 9, 19, 126, -19, -9, -19, 
0, -29, -29, 14, 14, -29, 9, 24, 117, -19, -9, -19, 
9, -4, -14, -2, 12, -9, 4, 24, 117, -9, 0, -9, 
24, 14, -9, -19, 17, 2, 4, 24, 122, 0, 4, -4, 
48, 53, 4, -51, 21, 29, -4, 24, 131, 9, 14, 9, 
63, 63, 0, -63, 31, 31, -14, 24, 151, 29, 34, 19, 
68, 78, 9, -73, 29, 43, -29, 24, 151, 34, 39, 29, 
78, 87, 9, -82, 34, 48, -43, 24, 151, 43, 48, 34, 
82, 97, 14, -90, 34, 56, -48, 19, 151, 43, 48, 39, 
87, 102, 14, -95, 36, 58, -68, 4, 151, 48, 48, 43, 
92, 97, 4, -95, 43, 51, -78, 0, 141, 53, 48, 48, 
82, 73, -9, -78, 46, 31, -68, -4, 122, 39, 39, 39, 
78, 58, -19, -68, 48, 19, -63, -9, 97, 24, 29, 34, 
73, 53, -19, -63, 46, 17, -58, -14, 87, 14, 29, 29, 
68, 48, -19, -58, 43, 14, -53, -14, 73, 14, 24, 24, 
53, 39, -14, -46, 34, 12, -48, -14, 68, 9, 19, 24, 
43, 34, -9, -39, 26, 12, -43, -14, 63, 9, 14, 24, 
34, 29, -4, -31, 19, 12, -39, -9, 63, 9, 19, 24, 
4, 19, 14, -12, -4, 17, -34, -14, 53, 4, 14, 14, 
-14, -4, 9, 9, -12, 2, -24, -14, 43, 0, 9, 9, 
-24, -29, -4, 26, -9, -17, -9, -14, 34, -4, 0, 4, 
-29, -43, -14, 36, -7, -29, -4, -14, 14, -14, -14, 0, 
-39, -53, -14, 46, -12, -34, 4, -9, 9, -19, -19, -4, 
-39, -53, -14, 46, -12, -34, 4, -9, 4, -24, -19, -4, 
-39, -53, -14, 46, -12, -34, 4, -9, 4, -24, -19, -4, 
-39, -53, -14, 46, -12, -34, 4, -4, 0, -19, -19, -9, 
-39, -53, -14, 46, -12, -34, 4, 0, 0, -19, -19, -9, 
-34, -58, -24, 46, -4, -41, 4, 4, 4, -19, -19, -9, 
-34, -58, -24, 46, -4, -41, 4, 4, 9, -19, -19, -9, 
-34, -63, -29, 48, -2, -46, 4, 4, 9, -19, -19, -4, 
-34, -68, -34, 51, 0, -51, 4, 4, 9, -19, -19, -4, 
-29, -78, -48, 53, 9, -63, 4, 4, 19, -19, -19, -4, 
-29, -87, -58, 58, 14, -73, 4, 9, 19, -19, -19, -4, 
-29, -92, -63, 61, 17, -78, 9, 14, 24, -14, -14, 0, 
-29, -92, -63, 61, 17, -78, 14, 19, 29, -14, -14, 0, 
-29, -87, -58, 58, 14, -73, 14, 19, 34, -14, -14, 9, 
-29, -87, -58, 58, 14, -73, 14, 19, 39, -9, -14, 14, 
-29, -87, -58, 58, 14, -73, 19, 24, 43, -9, -9, 19, 
-24, -92, -68, 58, 21, -80, 19, 29, 48, -9, -9, 19, 
-24, -87, -63, 56, 19, -75, 19, 29, 53, -4, -9, 24, 
-24, -87, -63, 56, 19, -75, 19, 29, 58, 0, -4, 29, 
-24, -68, -43, 46, 9, -56, 4, 24, 68, 14, 19, 48, 
-24, -97, -73, 61, 24, -85, 24, 43, 68, 9, 4, 29, 
-87, -312, -224, 200, 68, -268, 156, 141, 4, -117, -146, -112, 
-219, -649, -429, 434, 104, -539, 361, 292, -126, -346, -405, -361, 
-312, -1019, -707, 666, 197, -863, 580, 531, -322, -619, -727, -649, 
-234, -1278, -1044, 756, 405, -1161, 727, 805, -492, -819, -941, -829, 
-19, -1190, -1171, 605, 575, -1180, 624, 834, -536, -858, -951, -805, 
224, -824, -1049, 300, 636, -936, 292, 590, -541, -741, -746, -561, 
292, -14, -307, -139, 300, -161, -209, -58, -278, -185, -73, 87, 
278, 849, 570, -563, -146, 710, -566, -531, 185, 522, 722, 805, 
287, 1346, 1058, -817, -385, 1202, -751, -766, 375, 922, 1220, 1229, 
273, 1439, 1166, -856, -446, 1302, -844, -834, 278, 966, 1351, 1346, 
219, 1127, 907, -673, -344, 1017, -727, -663, 68, 751, 1122, 1117, 
34, 439, 405, -236, -185, 422, -307, -287, -82, 307, 517, 551, 
-78, -29, 48, 53, -63, 9, -14, 14, -122, -19, 97, 170, 
-82, -87, -4, 85, -39, -46, 107, 170, -43, -63, 4, 58, 
-29, -39, -9, 34, -9, -24, 102, 214, 43, 24, 73, 82, 
43, 24, -19, -34, 31, 2, 58, 190, 146, 112, 141, 122, 
78, 53, -24, -65, 51, 14, 39, 180, 224, 151, 151, 122, 
53, 53, 0, -53, 26, 26, 34, 141, 234, 146, 151, 117, 
48, 58, 9, -53, 19, 34, 14, 92, 239, 146, 151, 112, 
43, 63, 19, -53, 12, 41, 9, 63, 239, 146, 151, 102, 
39, 53, 14, -46, 12, 34, 14, 78, 239, 146, 141, 97, 
34, 39, 4, -36, 14, 21, 14, 78, 239, 136, 136, 87, 
29, 34, 4, -31, 12, 19, 14, 78, 239, 136, 136, 78, 
29, 29, 0, -29, 14, 14, 14, 78, 239, 136, 131, 68, 
24, 29, 4, -26, 9, 17, 19, 78, 244, 136, 126, 63, 
14, 29, 14, -21, 0, 21, 19, 78, 244, 131, 126, 58, 
14, 29, 14, -21, 0, 21, 19, 73, 248, 131, 126, 58, 
14, 34, 19, -24, -2, 26, 19, 73, 248, 131, 126, 58, 
19, 34, 14, -26, 2, 24, 19, 73, 248, 131, 126, 58, 
19, 34, 14, -26, 2, 24, 19, 73, 253, 131, 126, 53, 
24, 39, 14, -31, 4, 26, 14, 73, 253, 131, 126, 43, 
29, 43, 14, -36, 7, 29, 14, 73, 253, 131, 131, 39, 
29, 48, 19, -39, 4, 34, 9, 73, 263, 136, 131, 34, 
29, 48, 19, -39, 4, 34, 4, 73, 263, 136, 136, 29, 
34, 48, 14, -41, 9, 31, 4, 73, 258, 136, 136, 29, 
34, 58, 24, -46, 4, 41, 0, 73, 263, 136, 136, 29, 
39, 58, 19, -48, 9, 39, 0, 73, 268, 141, 141, 29, 
39, 58, 19, -48, 9, 39, 0, 73, 268, 141, 141, 29, 
34, 68, 34, -51, 0, 51, 0, 73, 273, 146, 146, 29, 
34, 68, 34, -51, 0, 51, -4, 73, 273, 146, 146, 34, 
39, 73, 34, -56, 2, 53, -14, 73, 273, 146, 151, 39, 
43, 78, 34, -61, 4, 56, -19, 73, 283, 146, 151, 39, 
48, 82, 34, -65, 7, 58, -19, 68, 287, 156, 156, 43, 
53, 87, 34, -70, 9, 61, -19, 63, 292, 156, 156, 48, 
63, 97, 34, -80, 14, 65, -24, 63, 297, 156, 161, 48, 
63, 107, 43, -85, 9, 75, -24, 63, 302, 161, 165, 53, 
68, 122, 53, -95, 7, 87, -29, 63, 307, 165, 170, 58, 
78, 131, 53, -104, 12, 92, -34, 63, 312, 170, 175, 63, 
78, 141, 63, -109, 7, 102, -43, 63, 322, 175, 180, 68, 
87, 156, 68, -122, 9, 112, -53, 63, 331, 180, 190, 82, 
92, 170, 78, -131, 7, 124, -58, 58, 341, 195, 200, 87, 
97, 190, 92, -143, 2, 141, -63, 58, 351, 200, 209, 102, 
107, 204, 97, -156, 4, 151, -68, 58, 361, 209, 219, 112, 
122, 234, 112, -178, 4, 173, -82, 48, 370, 219, 234, 131, 
126, 263, 136, -195, -4, 200, -92, 48, 375, 234, 248, 151, 
131, 287, 156, -209, -12, 222, -102, 43, 385, 253, 263, 175, 
151, 312, 161, -231, -4, 236, -126, 39, 405, 268, 287, 195, 
165, 346, 180, -256, -7, 263, -146, 34, 419, 287, 302, 214, 
185, 390, 204, -287, -9, 297, -161, 29, 434, 312, 331, 248, 
204, 434, 229, -319, -12, 331, -185, 24, 453, 336, 366, 278, 
229, 483, 253, -356, -12, 368, -204, 4, 478, 366, 395, 317, 
248, 522, 273, -385, -12, 397, -224, -9, 497, 395, 424, 346, 
258, 575, 317, -417, -29, 446, -253, -29, 517, 424, 458, 385, 
287, 634, 346, -461, -29, 490, -273, -34, 536, 453, 497, 424, 
297, 683, 385, -490, -43, 534, -302, -53, 566, 488, 531, 463, 
322, 736, 414, -529, -46, 575, -331, -68, 585, 517, 570, 497, 
336, 785, 448, -561, -56, 617, -361, -92, 610, 546, 614, 531, 
351, 834, 483, -592, -65, 658, -385, -102, 629, 575, 644, 566, 
366, 878, 512, -622, -73, 695, -414, -117, 653, 605, 673, 605, 
370, 917, 546, -644, -87, 732, -434, -136, 678, 624, 702, 634, 
370, 951, 580, -661, -104, 766, -448, -156, 697, 649, 732, 649, 
370, 980, 610, -675, -119, 795, -458, -175, 717, 663, 756, 668, 
375, 995, 619, -685, -122, 807, -463, -180, 727, 683, 766, 673, 
370, 1005, 634, -688, -131, 819, -463, -190, 732, 688, 771, 678, 
346, 990, 644, -668, -148, 817, -458, -190, 741, 683, 771, 678, 
322, 956, 634, -639, -156, 795, -448, -190, 736, 668, 746, 658, 
292, 893, 600, -592, -153, 746, -429, -195, 717, 634, 702, 610, 
268, 829, 561, -549, -146, 695, -390, -190, 683, 585, 653, 561, 
234, 766, 531, -500, -148, 649, -361, -170, 644, 536, 600, 517, 
204, 692, 488, -448, -141, 590, -322, -146, 610, 488, 541, 463, 
170, 595, 424, -383, -126, 509, -287, -126, 566, 424, 478, 395, 
136, 502, 366, -319, -114, 434, -248, -107, 517, 356, 414, 346, 
107, 429, 322, -268, -107, 375, -209, -87, 458, 307, 356, 292, 
82, 361, 278, -222, -97, 319, -180, -63, 424, 253, 302, 244, 
58, 278, 219, -168, -80, 248, -146, -39, 390, 200, 239, 185, 
39, 219, 180, -129, -70, 200, -122, -24, 351, 156, 185, 136, 
24, 180, 156, -102, -65, 168, -102, -14, 317, 126, 156, 117, 
4, 136, 131, -70, -63, 134, -82, 0, 292, 97, 136, 92, 
0, 97, 97, -48, -48, 97, -63, 14, 273, 63, 97, 53, 
-9, 73, 82, -31, -46, 78, -53, 19, 253, 34, 73, 39, 
-19, 58, 78, -19, -48, 68, -34, 29, 239, 24, 63, 24, 
-29, 48, 78, -9, -53, 63, -24, 29, 234, 14, 53, 9, 
-34, 24, 58, 4, -46, 41, -14, 34, 229, 0, 34, 0, 
-39, 14, 53, 12, -46, 34, -14, 39, 219, -4, 24, -4, 
-43, 9, 53, 17, -48, 31, -9, 39, 219, -14, 19, -14, 
-48, 0, 48, 24, -48, 24, -4, 39, 214, -19, 19, -14, 
-48, 0, 48, 24, -48, 24, -4, 39, 209, -24, 14, -19, 
-48, 0, 48, 24, -48, 24, -4, 39, 209, -24, 9, -19, 
-48, 0, 48, 24, -48, 24, -9, 39, 209, -24, 4, -19, 
-48, 0, 48, 24, -48, 24, -14, 39, 204, -29, 4, -19, 
-53, -4, 48, 29, -51, 21, -9, 34, 204, -29, 0, -14, 
-53, -4, 48, 29, -51, 21, -9, 29, 204, -29, -4, -9, 
-53, -4, 48, 29, -51, 21, -9, 34, 204, -29, -4, -9, 
-48, -4, 43, 26, -46, 19, -9, 34, 209, -29, -4, -9, 
-48, 4, 53, 21, -51, 29, -9, 34, 209, -29, 0, -9, 
-43, 9, 53, 17, -48, 31, -9, 34, 209, -29, 0, -4, 
-43, 14, 58, 14, -51, 36, -9, 34, 209, -29, 0, -4, 
-43, 19, 63, 12, -53, 41, -14, 34, 209, -29, 0, -4, 
-39, 24, 63, 7, -51, 43, -14, 34, 209, -29, 0, 0, 
-34, 24, 58, 4, -46, 41, -14, 34, 209, -24, 0, 4, 
-34, 24, 58, 4, -46, 41, -14, 34, 209, -24, 4, 9, 
-29, 24, 53, 2, -41, 39, -14, 34, 209, -24, 4, 14, 
-29, 29, 58, 0, -43, 43, -14, 34, 209, -19, 4, 14, 
-29, 34, 63, -2, -46, 48, -14, 34, 214, -19, 9, 19, 
-29, 39, 68, -4, -48, 53, -19, 34, 214, -14, 9, 19, 
-24, 39, 63, -7, -43, 51, -19, 34, 214, -14, 14, 24, 
-24, 43, 68, -9, -46, 56, -19, 34, 219, -9, 14, 24, 
-24, 43, 68, -9, -46, 56, -19, 34, 219, -9, 14, 24, 
-19, 53, 73, -17, -46, 63, -19, 29, 219, -9, 19, 34, 
-19, 58, 78, -19, -48, 68, -19, 29, 224, -4, 24, 39, 
-19, 58, 78, -19, -48, 68, -24, 29, 224, -4, 24, 43, 
-19, 58, 78, -19, -48, 68, -29, 29, 224, 0, 24, 43, 
-14, 63, 78, -24, -46, 70, -29, 24, 224, 0, 24, 43, 
-14, 68, 82, -26, -48, 75, -29, 24, 224, 0, 29, 43, 
-14, 73, 87, -29, -51, 80, -29, 24, 224, 4, 29, 48, 
-14, 73, 87, -29, -51, 80, -29, 24, 224, 4, 29, 53, 
-9, 73, 82, -31, -46, 78, -24, 24, 224, 4, 24, 53, 
-9, 73, 82, -31, -46, 78, -24, 24, 224, 4, 24, 53, 
-9, 68, 78, -29, -43, 73, -24, 24, 224, 4, 24, 53, 
-9, 68, 78, -29, -43, 73, -24, 24, 224, 4, 24, 53, 
-9, 68, 78, -29, -43, 73, -24, 19, 224, 0, 24, 53, 
-9, 68, 78, -29, -43, 73, -24, 19, 224, -4, 24, 53, 
-9, 68, 78, -29, -43, 73, -24, 19, 224, -4, 24, 48, 
-9, 68, 78, -29, -43, 73, -24, 19, 224, -4, 24, 48, 
-4, 68, 73, -31, -39, 70, -24, 19, 224, -9, 24, 43, 
-4, 63, 68, -29, -36, 65, -19, 19, 224, -9, 19, 43, 
-9, 63, 73, -26, -41, 68, -19, 19, 224, -9, 19, 43, 
-9, 68, 78, -29, -43, 73, -19, 19, 219, -9, 19, 39, 
-4, 63, 68, -29, -36, 65, -19, 19, 219, -9, 19, 39, 
-4, 58, 63, -26, -34, 61, -19, 19, 219, -9, 19, 34, 
-4, 53, 58, -24, -31, 56, -14, 19, 214, -14, 19, 34, 
-4, 53, 58, -24, -31, 56, -14, 19, 214, -19, 14, 34, 
-4, 53, 58, -24, -31, 56, -14, 19, 214, -19, 14, 34, 
-4, 53, 58, -24, -31, 56, -14, 19, 209, -19, 14, 34, 
-9, 53, 63, -21, -36, 58, -14, 14, 209, -24, 14, 34, 
-9, 48, 58, -19, -34, 53, -14, 9, 204, -29, 9, 34, 
-9, 48, 58, -19, -34, 53, -14, 9, 204, -29, 9, 34, 
-9, 39, 48, -14, -29, 43, -14, 9, 204, -29, 9, 24, 
-4, 39, 43, -17, -24, 41, -9, 14, 200, -34, 4, 19, 
0, 39, 39, -19, -19, 39, -9, 19, 195, -39, 0, 19, 
0, 39, 39, -19, -19, 39, -4, 19, 195, -39, 0, 14, 
0, 39, 39, -19, -19, 39, 0, 19, 195, -39, 0, 9, 
4, 34, 29, -19, -12, 31, 0, 24, 190, -43, -4, 9, 
9, 39, 29, -24, -9, 34, 0, 24, 190, -43, -4, 9, 
14, 43, 29, -29, -7, 36, 0, 29, 190, -48, -9, 9, 
29, 82, 53, -56, -12, 68, -9, 24, 204, -29, 4, 24, 
48, 122, 73, -85, -12, 97, -24, 24, 219, -19, 19, 34, 
63, 122, 58, -92, 2, 90, -34, 24, 239, 0, 43, 39, 
68, 126, 58, -97, 4, 92, -48, 19, 239, 4, 48, 48, 
78, 136, 58, -107, 9, 97, -63, 14, 239, 14, 58, 53, 
82, 146, 63, -114, 9, 104, -68, 9, 239, 14, 58, 58, 
82, 146, 63, -114, 9, 104, -78, 0, 239, 14, 58, 58, 
82, 141, 58, -112, 12, 100, -78, 0, 234, 14, 58, 58, 
73, 122, 48, -97, 12, 85, -68, -4, 224, 0, 48, 48, 
68, 107, 39, -87, 14, 73, -63, -9, 204, -19, 39, 39, 
63, 102, 39, -82, 12, 70, -58, -14, 200, -34, 39, 29, 
58, 97, 39, -78, 9, 68, -53, -14, 190, -34, 34, 19, 
43, 87, 43, -65, 0, 65, -48, -14, 190, -39, 29, 14, 
34, 78, 43, -56, -4, 61, -43, -14, 190, -39, 24, 14, 
24, 68, 43, -46, -9, 56, -39, -14, 190, -39, 24, 14, 
-4, 58, 63, -26, -34, 61, -34, -24, 180, -43, 14, 0, 
-24, 34, 58, -4, -41, 46, -24, -24, 175, -48, 9, -9, 
-34, 9, 43, 12, -39, 26, -9, -24, 170, -53, 0, -19, 
-34, 0, 34, 17, -34, 17, -9, -24, 156, -63, -9, -29, 
-39, -9, 29, 24, -34, 9, -4, -14, 156, -68, -14, -34, 
-39, -14, 24, 26, -31, 4, -4, -9, 151, -73, -19, -34, 
-39, -14, 24, 26, -31, 4, -4, -9, 151, -78, -19, -34, 
-39, -14, 24, 26, -31, 4, -4, -9, 146, -78, -19, -39, 
-39, -14, 24, 26, -31, 4, -4, -9, 146, -78, -19, -39, 
-34, -14, 19, 24, -26, 2, -4, -4, 146, -78, -19, -39, 
-34, -9, 24, 21, -29, 7, -4, -4, 146, -78, -19, -39, 
-34, -9, 24, 21, -29, 7, -4, -4, 146, -78, -19, -34, 
-34, -9, 24, 21, -29, 7, -4, -9, 146, -78, -14, -34, 
-29, -9, 19, 19, -24, 4, -4, -14, 146, -78, -9, -34, 
-29, -9, 19, 19, -24, 4, -4, -9, 136, -78, -9, -34, 
-29, -9, 19, 19, -24, 4, -4, -9, 136, -73, -4, -29, 
-29, -4, 24, 17, -26, 9, -4, -4, 136, -73, -4, -29, 
-29, 0, 29, 14, -29, 14, -4, 0, 136, -73, -4, -24, 
-29, 0, 29, 14, -29, 14, -4, 0, 136, -68, -4, -24, 
-29, 4, 34, 12, -31, 19, -4, 0, 136, -68, 0, -19, 
-24, 4, 29, 9, -26, 17, -9, -4, 136, -68, 0, -14, 
-24, 9, 34, 7, -29, 21, -9, -9, 136, -68, 0, -9, 
-24, 14, 39, 4, -31, 26, -14, -9, 136, -68, 4, -4, 
-24, 19, 43, 2, -34, 31, -19, -4, 136, -68, 4, 0, 
-24, -14, 9, 19, -17, -2, 14, 19, 136, -78, -19, -24, 
-87, -224, -136, 156, 24, -180, 146, 122, 63, -209, -170, -161, 
-229, -570, -341, 400, 56, -456, 351, 283, -87, -453, -444, -429, 
-302, -897, -595, 600, 146, -746, 536, 488, -268, -707, -732, -692, 
-195, -1156, -961, 675, 383, -1058, 678, 746, -439, -912, -941, -863, 
-4, -1039, -1034, 522, 514, -1037, 575, 751, -463, -912, -917, -805, 
229, -600, -829, 185, 529, -714, 195, 473, -453, -771, -678, -517, 
292, 175, -117, -234, 204, 29, -292, -136, -224, -263, -43, 97, 
258, 1034, 775, -646, -258, 905, -629, -619, 268, 473, 766, 824, 
258, 1483, 1224, -871, -483, 1354, -795, -849, 468, 854, 1215, 1215, 
244, 1537, 1293, -890, -524, 1415, -883, -873, 326, 858, 1307, 1298, 
209, 1249, 1039, -729, -414, 1144, -795, -702, 117, 639, 1093, 1083, 
24, 527, 502, -275, -239, 514, -341, -322, -34, 161, 453, 483, 
-78, 97, 175, -9, -126, 136, -39, -29, -63, -131, 58, 126, 
-63, 82, 146, -9, -104, 114, 58, 126, 34, -136, 0, 58, 
-9, 117, 126, -53, -68, 122, 43, 170, 122, -53, 63, 82, 
63, 180, 117, -122, -26, 148, -4, 131, 224, 34, 131, 122, 
92, 209, 117, -151, -12, 163, -19, 122, 292, 68, 141, 126, 
63, 209, 146, -136, -41, 178, -24, 82, 292, 58, 141, 126, 
58, 209, 151, -134, -46, 180, -39, 34, 297, 58, 141, 126, 
53, 209, 156, -131, -51, 183, -39, 0, 302, 53, 141, 122, 
48, 200, 151, -124, -51, 175, -34, 14, 307, 48, 131, 117, 
43, 185, 141, -114, -48, 163, -34, 19, 307, 39, 126, 107, 
39, 180, 141, -109, -51, 161, -34, 19, 307, 39, 122, 102, 
39, 170, 131, -104, -46, 151, -39, 19, 312, 39, 117, 97, 
39, 165, 126, -102, -43, 146, -39, 19, 322, 39, 117, 97, 
34, 165, 131, -100, -48, 148, -39, 19, 322, 34, 117, 92, 
34, 161, 126, -97, -46, 143, -39, 14, 326, 34, 117, 87, 
34, 161, 126, -97, -46, 143, -39, 9, 326, 34, 117, 87, 
39, 161, 122, -100, -41, 141, -39, 4, 326, 34, 117, 87, 
39, 165, 126, -102, -43, 146, -39, 4, 331, 34, 117, 82, 
39, 170, 131, -104, -46, 151, -43, 4, 331, 34, 117, 78, 
39, 170, 131, -104, -46, 151, -43, 4, 331, 34, 122, 78, 
39, 175, 136, -107, -48, 156, -43, 4, 341, 39, 122, 78, 
39, 175, 136, -107, -48, 156, -48, 4, 341, 39, 126, 78, 
43, 175, 131, -109, -43, 153, -53, 4, 341, 39, 126, 78, 
43, 185, 141, -114, -48, 163, -58, 4, 351, 39, 126, 78, 
48, 185, 136, -117, -43, 161, -58, 4, 356, 43, 131, 78, 
48, 185, 136, -117, -43, 161, -58, 4, 356, 43, 131, 73, 
48, 195, 146, -122, -48, 170, -58, 4, 361, 48, 136, 68, 
53, 195, 141, -124, -43, 168, -63, 4, 361, 43, 136, 73, 
58, 200, 141, -129, -41, 170, -68, 4, 361, 43, 141, 78, 
63, 204, 141, -134, -39, 173, -68, 4, 370, 48, 136, 73, 
63, 209, 146, -136, -41, 178, -68, 4, 375, 58, 141, 73, 
63, 214, 151, -139, -43, 183, -63, 4, 380, 58, 146, 78, 
73, 219, 146, -146, -36, 183, -68, 4, 385, 58, 151, 78, 
73, 224, 151, -148, -39, 187, -73, 4, 390, 58, 156, 82, 
78, 239, 161, -158, -41, 200, -78, 4, 395, 58, 161, 87, 
87, 248, 161, -168, -36, 204, -82, 0, 400, 63, 165, 92, 
87, 258, 170, -173, -41, 214, -87, -4, 409, 68, 170, 97, 
97, 273, 175, -185, -39, 224, -92, -4, 419, 73, 180, 112, 
102, 287, 185, -195, -41, 236, -97, -9, 429, 87, 190, 117, 
107, 307, 200, -207, -46, 253, -107, -9, 439, 92, 200, 131, 
117, 322, 204, -219, -43, 263, -117, -9, 448, 102, 209, 141, 
136, 351, 214, -244, -39, 283, -131, -14, 458, 112, 224, 161, 
151, 380, 229, -265, -39, 305, -141, -9, 468, 126, 244, 175, 
161, 405, 244, -283, -41, 324, -151, -14, 483, 146, 263, 195, 
180, 429, 248, -305, -34, 339, -170, -19, 502, 161, 287, 214, 
195, 463, 268, -329, -36, 366, -185, -24, 517, 180, 302, 234, 
209, 507, 297, -358, -43, 402, -200, -29, 531, 204, 331, 263, 
224, 551, 326, -387, -51, 439, -224, -34, 551, 229, 366, 287, 
248, 600, 351, -424, -51, 475, -244, -48, 575, 258, 395, 326, 
273, 639, 366, -456, -46, 502, -263, -58, 600, 287, 424, 356, 
287, 688, 400, -488, -56, 544, -292, -78, 624, 317, 458, 390, 
317, 736, 419, -527, -51, 578, -312, -82, 644, 341, 497, 424, 
326, 780, 453, -553, -63, 617, -336, -102, 673, 370, 531, 463, 
346, 834, 488, -590, -70, 661, -361, -117, 692, 400, 570, 497, 
356, 883, 527, -619, -85, 705, -390, -141, 717, 429, 614, 531, 
370, 932, 561, -651, -95, 746, -414, -151, 736, 458, 644, 566, 
385, 971, 585, -678, -100, 778, -439, -165, 756, 488, 673, 600, 
395, 1005, 610, -700, -107, 807, -453, -185, 775, 507, 702, 624, 
400, 1034, 634, -717, -117, 834, -468, -200, 795, 531, 727, 639, 
400, 1058, 658, -729, -129, 858, -478, -214, 814, 546, 746, 663, 
400, 1063, 663, -732, -131, 863, -483, -219, 824, 561, 751, 668, 
390, 1063, 673, -727, -141, 868, -478, -229, 829, 561, 751, 668, 
366, 1044, 678, -705, -156, 861, -468, -229, 829, 556, 746, 658, 
341, 1005, 663, -673, -161, 834, -458, -229, 814, 541, 717, 629, 
312, 941, 629, -627, -158, 785, -434, -229, 795, 502, 668, 580, 
287, 878, 590, -583, -151, 734, -395, -219, 761, 448, 614, 531, 
253, 805, 551, -529, -148, 678, -370, -200, 717, 400, 561, 488, 
224, 722, 497, -473, -136, 610, -331, -175, 678, 351, 502, 439, 
195, 634, 439, -414, -122, 536, -297, -156, 634, 287, 439, 375, 
165, 556, 390, -361, -112, 473, -258, -136, 590, 219, 375, 326, 
136, 488, 351, -312, -107, 419, -219, -117, 536, 170, 317, 273, 
112, 419, 307, -265, -97, 363, -185, -92, 502, 117, 268, 224, 
87, 336, 248, -212, -80, 292, -146, -68, 468, 63, 214, 175, 
68, 278, 209, -173, -70, 244, -122, -53, 429, 19, 165, 136, 
53, 239, 185, -146, -65, 212, -102, -43, 400, -9, 136, 117, 
29, 195, 165, -112, -68, 180, -82, -29, 380, -34, 117, 92, 
19, 156, 136, -87, -58, 146, -63, -14, 361, -58, 82, 58, 
9, 131, 122, -70, -56, 126, -53, -9, 341, -82, 63, 43, 
0, 117, 117, -58, -58, 117, -39, 0, 326, -92, 53, 29, 
-9, 102, 112, -46, -61, 107, -34, 0, 322, -102, 43, 19, 
-14, 78, 92, -31, -53, 85, -24, 4, 317, -117, 29, 9, 
-24, 73, 97, -24, -61, 85, -24, 9, 307, -122, 19, 4, 
-29, 68, 97, -19, -63, 82, -19, 9, 307, -126, 9, -4, 
-29, 58, 87, -14, -58, 73, -9, 9, 302, -126, 9, -4, 
-29, 53, 82, -12, -56, 68, -4, 9, 297, -131, 4, -9, 
-29, 48, 78, -9, -53, 63, -4, 9, 297, -131, 0, -4, 
-29, 48, 78, -9, -53, 63, -4, 9, 297, -131, -4, 0, 
-24, 48, 73, -12, -48, 61, -9, 9, 292, -136, -4, 0, 
-24, 43, 68, -9, -46, 56, -9, 9, 292, -136, -4, 0, 
-24, 43, 68, -9, -46, 56, -9, 9, 292, -136, -4, 0, 
-24, 43, 68, -9, -46, 56, -9, 14, 292, -136, -4, 0, 
-19, 43, 63, -12, -41, 53, -9, 14, 297, -131, -4, 4, 
-19, 48, 68, -14, -43, 58, -9, 14, 297, -126, -4, 4, 
-14, 48, 63, -17, -39, 56, -9, 14, 302, -126, -4, 4, 
-14, 48, 63, -17, -39, 56, -9, 14, 307, -126, 0, 4, 
-14, 43, 58, -14, -36, 51, -14, 14, 307, -131, 0, 4, 
-14, 43, 58, -14, -36, 51, -14, 14, 307, -136, 0, 4, 
-14, 43, 58, -14, -36, 51, -14, 14, 307, -131, 0, 4, 
-14, 43, 58, -14, -36, 51, -14, 14, 307, -131, 4, 4, 
-9, 48, 58, -19, -34, 53, -14, 14, 307, -131, 4, 4, 
-9, 53, 63, -21, -36, 58, -14, 14, 307, -126, 4, 4, 
-9, 53, 63, -21, -36, 58, -14, 14, 312, -126, 9, 9, 
-9, 58, 68, -24, -39, 63, -19, 14, 312, -122, 9, 9, 
-4, 58, 63, -26, -34, 61, -19, 14, 312, -117, 14, 14, 
-4, 63, 68, -29, -36, 65, -19, 14, 317, -107, 14, 14, 
-4, 58, 63, -26, -34, 61, -19, 14, 317, -107, 14, 14, 
0, 58, 58, -29, -29, 58, -19, 9, 317, -107, 19, 19, 
0, 58, 58, -29, -29, 58, -19, 9, 322, -102, 24, 19, 
0, 58, 58, -29, -29, 58, -19, 9, 322, -102, 24, 24, 
0, 58, 58, -29, -29, 58, -19, 9, 322, -97, 24, 24, 
4, 58, 53, -31, -24, 56, -19, 4, 322, -97, 24, 24, 
4, 58, 53, -31, -24, 56, -19, 4, 322, -97, 29, 29, 
4, 63, 58, -34, -26, 61, -19, 4, 322, -92, 29, 34, 
4, 63, 58, -34, -26, 61, -19, 4, 322, -92, 34, 34, 
9, 63, 53, -36, -21, 58, -19, 4, 322, -92, 34, 34, 
9, 63, 53, -36, -21, 58, -24, 4, 322, -92, 34, 34, 
9, 58, 48, -34, -19, 53, -24, 4, 322, -92, 34, 34, 
4, 53, 48, -29, -21, 51, -24, 4, 322, -92, 34, 34, 
0, 48, 48, -24, -24, 48, -24, 0, 322, -92, 34, 34, 
0, 48, 48, -24, -24, 48, -24, 0, 322, -92, 29, 34, 
0, 48, 48, -24, -24, 48, -24, 0, 322, -92, 24, 29, 
0, 43, 43, -21, -21, 43, -24, 0, 326, -92, 24, 29, 
4, 39, 34, -21, -14, 36, -24, 0, 326, -97, 24, 24, 
4, 34, 29, -19, -12, 31, -19, 0, 322, -97, 19, 24, 
0, 29, 29, -14, -14, 29, -19, 0, 322, -97, 19, 24, 
-4, 29, 34, -12, -19, 31, -19, 0, 317, -97, 19, 19, 
-4, 24, 29, -9, -17, 26, -19, 0, 317, -97, 19, 19, 
-4, 19, 24, -7, -14, 21, -19, 0, 317, -97, 19, 14, 
-4, 14, 19, -4, -12, 17, -14, 0, 312, -97, 19, 14, 
-4, 9, 14, -2, -9, 12, -14, 0, 312, -97, 14, 14, 
-4, 4, 9, 0, -7, 7, -14, 0, 312, -97, 14, 14, 
-4, 4, 9, 0, -7, 7, -14, 0, 307, -97, 14, 14, 
-9, 0, 9, 4, -9, 4, -14, 0, 302, -97, 9, 14, 
0, 0, 0, 0, 0, 0, -9, 4, 297, -97, 4, 9, 
9, 0, -9, -4, 9, -4, -9, 9, 292, -97, 0, 9, 
9, 0, -9, -4, 9, -4, -9, 9, 292, -97, 0, 14, 
9, 0, -9, -4, 9, -4, -9, 9, 292, -97, 0, 19, 
14, 9, -4, -12, 9, 2, -9, 9, 297, -87, 4, 19, 
19, 14, -4, -17, 12, 4, -9, 9, 302, -82, 4, 19, 
24, 24, 0, -24, 12, 12, -9, 14, 307, -78, 9, 19, 
39, 53, 14, -46, 12, 34, -19, 14, 322, -58, 24, 34, 
58, 92, 34, -75, 12, 63, -34, 14, 331, -58, 24, 43, 
73, 92, 19, -82, 26, 56, -43, 14, 346, -48, 34, 48, 
78, 97, 19, -87, 29, 58, -58, 14, 346, -43, 39, 58, 
87, 107, 19, -97, 34, 63, -73, 14, 346, -34, 48, 63, 
92, 117, 24, -104, 34, 70, -73, 9, 346, -34, 48, 68, 
92, 117, 24, -104, 34, 70, -78, 0, 346, -34, 48, 68, 
92, 107, 14, -100, 39, 61, -78, 0, 336, -34, 48, 63, 
82, 82, 0, -82, 41, 41, -68, -4, 322, -48, 39, 48, 
68, 68, 0, -68, 34, 34, -63, -9, 302, -58, 24, 43, 
53, 63, 9, -58, 21, 36, -58, -14, 297, -63, 19, 39, 
48, 53, 4, -51, 21, 29, -53, -14, 287, -63, 14, 29, 
34, 39, 4, -36, 14, 21, -48, -14, 287, -68, 9, 24, 
24, 29, 4, -26, 9, 17, -43, -14, 287, -68, 4, 24, 
14, 19, 4, -17, 4, 12, -39, -14, 287, -68, 4, 24, 
-14, 9, 24, 2, -19, 17, -34, -24, 278, -73, -4, 4, 
-34, -14, 19, 24, -26, 2, -24, -24, 273, -78, -9, -9, 
-43, -39, 4, 41, -24, -17, -4, -24, 268, -78, -19, -14, 
-43, -48, -4, 46, -19, -26, 0, -24, 253, -82, -29, -19, 
-48, -53, -4, 51, -21, -29, 4, -14, 253, -87, -34, -24, 
-48, -53, -4, 51, -21, -29, 4, -9, 248, -92, -39, -24, 
-43, -48, -4, 46, -19, -26, 4, -9, 248, -92, -39, -24, 
-39, -43, -4, 41, -17, -24, 4, -9, 244, -87, -39, -29, 
-39, -43, -4, 41, -17, -24, 4, -14, 239, -82, -39, -29, 
-34, -43, -9, 39, -12, -26, 4, -14, 234, -78, -39, -29, 
-34, -39, -4, 36, -14, -21, 0, -14, 234, -78, -39, -29, 
-34, -39, -4, 36, -14, -21, -4, -14, 234, -78, -39, -24, 
-39, -39, 0, 39, -19, -19, -4, -14, 234, -78, -34, -24, 
-39, -39, 0, 39, -19, -19, -4, -14, 234, -78, -29, -24, 
-39, -43, -4, 41, -17, -24, -4, -9, 229, -78, -29, -24, 
-39, -48, -9, 43, -14, -29, -4, -9, 234, -73, -24, -19, 
-39, -43, -4, 41, -17, -24, -4, -9, 234, -73, -24, -19, 
-39, -39, 0, 39, -19, -19, -4, -9, 234, -73, -24, -14, 
-39, -39, 0, 39, -19, -19, -4, -4, 234, -63, -24, -14, 
-39, -34, 4, 36, -21, -14, -4, 0, 234, -58, -19, -9, 
-34, -34, 0, 34, -17, -17, -9, 0, 234, -58, -19, -9, 
-34, -29, 4, 31, -19, -12, -9, 0, 234, -58, -19, -9, 
-34, -34, 0, 34, -17, -17, -4, 0, 229, -58, -19, -9, 
-34, -39, -4, 36, -14, -21, 0, 4, 224, -58, -24, -9, 
-48, -102, -53, 75, 2, -78, 43, 48, 209, -82, -78, -63, 
-126, -341, -214, 234, 43, -278, 185, 170, 122, -229, -258, -229, 
-244, -673, -429, 458, 92, -551, 390, 351, -29, -473, -517, -478, 
-292, -985, -692, 639, 200, -839, 575, 575, -209, -727, -790, -722, 
-161, -1156, -995, 658, 417, -1076, 649, 766, -366, -883, -941, -839, 
53, -951, -1005, 448, 529, -978, 478, 702, -375, -834, -858, -727, 
263, -473, -736, 104, 500, -605, 92, 380, -317, -624, -561, -390, 
302, 341, 39, -322, 131, 190, -400, -273, -39, -48, 131, 273, 
268, 1117, 849, -692, -290, 983, -697, -688, 380, 600, 858, 927, 
268, 1483, 1215, -875, -473, 1349, -824, -849, 507, 893, 1224, 1244, 
224, 1420, 1195, -822, -485, 1307, -834, -824, 375, 834, 1210, 1229, 
161, 1015, 854, -588, -346, 934, -668, -605, 175, 551, 888, 917, 
4, 385, 380, -195, -187, 383, -263, -229, 53, 136, 341, 395, 
-68, 48, 117, 9, -92, 82, -9, 58, 53, -92, 39, 117, 
-53, 39, 92, 7, -73, 65, 78, 185, 151, -92, -14, 48, 
0, 78, 78, -39, -39, 78, 53, 200, 239, -4, 53, 73, 
63, 126, 63, -95, 0, 95, 9, 156, 331, 82, 117, 112, 
82, 141, 58, -112, 12, 100, 0, 141, 390, 117, 122, 117, 
48, 141, 92, -95, -21, 117, -4, 102, 390, 107, 117, 117, 
39, 141, 102, -90, -31, 122, -19, 53, 395, 107, 112, 117, 
34, 136, 102, -85, -34, 119, -19, 24, 395, 102, 112, 117, 
29, 122, 92, -75, -31, 107, -14, 43, 395, 97, 102, 117, 
24, 107, 82, -65, -29, 95, -14, 48, 400, 87, 97, 107, 
19, 102, 82, -61, -31, 92, -14, 48, 405, 87, 92, 102, 
19, 87, 68, -53, -24, 78, -14, 48, 405, 87, 82, 97, 
19, 78, 58, -48, -19, 68, -9, 48, 409, 87, 78, 97, 
14, 78, 63, -46, -24, 70, -4, 53, 409, 82, 78, 97, 
14, 73, 58, -43, -21, 65, 0, 53, 414, 82, 78, 97, 
14, 68, 53, -41, -19, 61, 0, 53, 414, 82, 78, 97, 
19, 63, 43, -41, -12, 53, 0, 53, 414, 82, 78, 97, 
19, 63, 43, -41, -12, 53, 0, 58, 419, 87, 78, 92, 
19, 63, 43, -41, -12, 53, -4, 63, 419, 92, 78, 87, 
19, 63, 43, -41, -12, 53, -4, 63, 419, 92, 82, 87, 
19, 68, 48, -43, -14, 58, -4, 63, 429, 97, 82, 87, 
19, 63, 43, -41, -12, 53, 0, 68, 429, 97, 87, 87, 
24, 58, 34, -41, -4, 46, 4, 73, 429, 97, 87, 87, 
24, 68, 43, -46, -9, 56, 0, 73, 439, 97, 87, 87, 
29, 68, 39, -48, -4, 53, 0, 73, 444, 102, 92, 87, 
29, 63, 34, -46, -2, 48, 0, 73, 444, 102, 92, 92, 
29, 68, 39, -48, -4, 53, 0, 73, 448, 107, 97, 97, 
34, 68, 34, -51, 0, 51, -4, 78, 448, 107, 97, 102, 
39, 73, 34, -56, 2, 53, -9, 82, 448, 112, 102, 107, 
43, 73, 29, -58, 7, 51, -9, 82, 458, 117, 102, 102, 
43, 73, 29, -58, 7, 51, -9, 82, 463, 126, 112, 102, 
39, 78, 39, -58, 0, 58, -4, 82, 468, 126, 117, 107, 
43, 82, 39, -63, 2, 61, -9, 82, 473, 126, 122, 107, 
43, 87, 43, -65, 0, 65, -14, 82, 478, 131, 126, 112, 
48, 102, 53, -75, -2, 78, -19, 82, 483, 136, 131, 117, 
63, 112, 48, -87, 7, 80, -24, 82, 488, 141, 136, 122, 
68, 122, 53, -95, 7, 87, -29, 82, 497, 146, 141, 126, 
78, 131, 53, -104, 12, 92, -39, 87, 507, 151, 151, 136, 
82, 141, 58, -112, 12, 100, -48, 87, 517, 165, 161, 136, 
87, 161, 73, -124, 7, 117, -53, 87, 527, 175, 170, 151, 
97, 175, 78, -136, 9, 126, -58, 87, 536, 190, 180, 161, 
112, 204, 92, -158, 9, 148, -73, 78, 546, 200, 195, 180, 
122, 234, 112, -178, 4, 173, -82, 78, 556, 214, 214, 195, 
131, 258, 126, -195, 2, 192, -92, 73, 570, 234, 234, 214, 
151, 283, 131, -217, 9, 207, -112, 68, 590, 248, 258, 234, 
165, 312, 146, -239, 9, 229, -126, 58, 605, 268, 273, 253, 
180, 351, 170, -265, 4, 261, -141, 48, 619, 292, 302, 283, 
195, 395, 200, -295, -2, 297, -165, 43, 639, 322, 341, 307, 
219, 444, 224, -331, -2, 334, -185, 29, 663, 356, 375, 346, 
239, 483, 244, -361, -2, 363, -204, 19, 688, 385, 409, 375, 
248, 531, 283, -390, -17, 407, -234, 0, 712, 414, 448, 409, 
278, 585, 307, -431, -14, 446, -253, -4, 732, 444, 488, 444, 
287, 634, 346, -461, -29, 490, -278, -24, 761, 478, 522, 483, 
312, 688, 375, -500, -31, 531, -302, -39, 775, 507, 556, 517, 
326, 736, 409, -531, -41, 573, -331, -63, 795, 536, 595, 551, 
341, 785, 444, -563, -51, 614, -351, -73, 814, 566, 624, 580, 
356, 824, 468, -590, -56, 646, -370, -87, 834, 595, 653, 610, 
361, 854, 492, -607, -65, 673, -385, -107, 854, 614, 683, 634, 
361, 878, 517, -619, -78, 697, -400, -122, 873, 639, 707, 649, 
356, 897, 541, -627, -92, 719, -409, -136, 888, 649, 727, 668, 
351, 897, 546, -624, -97, 722, -414, -141, 893, 658, 732, 668, 
341, 888, 546, -614, -102, 717, -405, -146, 897, 653, 727, 663, 
317, 858, 541, -588, -112, 700, -390, -141, 897, 644, 717, 649, 
287, 810, 522, -549, -117, 666, -380, -136, 878, 624, 683, 614, 
253, 736, 483, -495, -114, 610, -356, -131, 854, 580, 629, 561, 
229, 668, 439, -448, -104, 553, -312, -122, 814, 527, 575, 507, 
195, 590, 395, -392, -100, 492, -283, -102, 766, 478, 522, 458, 
165, 507, 341, -336, -87, 424, -239, -73, 727, 429, 453, 405, 
136, 419, 283, -278, -73, 351, -200, -48, 683, 366, 380, 336, 
107, 336, 229, -222, -61, 283, -161, -29, 634, 297, 326, 287, 
78, 263, 185, -170, -53, 224, -122, -9, 575, 248, 278, 234, 
53, 200, 146, -126, -46, 173, -97, 14, 546, 200, 224, 190, 
29, 122, 92, -75, -31, 107, -68, 39, 517, 151, 165, 146, 
14, 68, 53, -41, -19, 61, -43, 53, 478, 112, 117, 107, 
4, 34, 29, -19, -12, 31, -24, 63, 448, 87, 87, 87, 
-14, -9, 4, 12, -9, -2, -4, 73, 434, 58, 68, 63, 
-19, -48, -29, 34, 4, -39, 14, 82, 419, 29, 34, 29, 
-29, -73, -43, 51, 7, -58, 19, 87, 400, 9, 14, 19, 
-39, -87, -48, 63, 4, -68, 29, 97, 385, 4, 4, 9, 
-43, -97, -53, 70, 4, -75, 34, 97, 380, -4, -4, 0, 
-43, -117, -73, 80, 14, -95, 43, 102, 375, -19, -19, -9, 
-48, -117, -68, 82, 9, -92, 43, 112, 366, -24, -24, -14, 
-48, -117, -68, 82, 9, -92, 48, 117, 366, -29, -29, -24, 
-48, -122, -73, 85, 12, -97, 53, 117, 361, -24, -24, -24, 
-48, -122, -73, 85, 12, -97, 53, 117, 356, -24, -24, -29, 
-48, -126, -78, 87, 14, -102, 53, 117, 356, -24, -24, -29, 
-48, -126, -78, 87, 14, -102, 53, 117, 356, -24, -24, -29, 
-48, -126, -78, 87, 14, -102, 53, 117, 351, -29, -24, -29, 
-53, -131, -78, 92, 12, -104, 58, 117, 351, -29, -24, -29, 
-53, -131, -78, 92, 12, -104, 53, 117, 351, -29, -24, -24, 
-53, -131, -78, 92, 12, -104, 48, 122, 351, -29, -24, -19, 
-48, -131, -82, 90, 17, -107, 48, 122, 356, -24, -24, -19, 
-48, -126, -78, 87, 14, -102, 48, 122, 356, -19, -24, -24, 
-43, -126, -82, 85, 19, -104, 48, 122, 356, -19, -24, -24, 
-43, -126, -82, 85, 19, -104, 48, 122, 356, -19, -19, -24, 
-43, -122, -78, 82, 17, -100, 43, 122, 356, -19, -19, -19, 
-43, -112, -68, 78, 12, -90, 43, 122, 356, -19, -19, -14, 
-43, -107, -63, 75, 9, -85, 43, 122, 356, -14, -19, -14, 
-43, -102, -58, 73, 7, -80, 43, 122, 356, -14, -14, -14, 
-39, -102, -63, 70, 12, -82, 43, 117, 351, -14, -14, -14, 
-39, -102, -63, 70, 12, -82, 43, 112, 346, -9, -14, -14, 
-39, -102, -63, 70, 12, -82, 43, 112, 351, -9, -9, -9, 
-39, -97, -58, 68, 9, -78, 39, 112, 351, -4, -9, -9, 
-34, -97, -63, 65, 14, -80, 39, 112, 351, -4, -4, -4, 
-34, -92, -58, 63, 12, -75, 39, 112, 356, 0, -4, -4, 
-34, -87, -53, 61, 9, -70, 34, 112, 356, 0, -4, -4, 
-29, -78, -48, 53, 9, -63, 29, 107, 356, 0, 0, 0, 
-24, -73, -48, 48, 12, -61, 29, 107, 361, 4, 4, 0, 
-19, -68, -48, 43, 14, -58, 29, 107, 361, 4, 4, 4, 
-19, -68, -48, 43, 14, -58, 29, 107, 361, 9, 4, 4, 
-14, -68, -53, 41, 19, -61, 29, 102, 361, 9, 4, 4, 
-14, -68, -53, 41, 19, -61, 29, 102, 361, 9, 9, 4, 
-14, -63, -48, 39, 17, -56, 29, 102, 361, 14, 9, 4, 
-14, -58, -43, 36, 14, -51, 29, 102, 361, 14, 9, 4, 
-9, -53, -43, 31, 17, -48, 29, 102, 361, 14, 4, 4, 
-9, -53, -43, 31, 17, -48, 24, 102, 356, 14, 4, 4, 
-9, -58, -48, 34, 19, -53, 24, 102, 351, 14, 4, 4, 
-9, -58, -48, 34, 19, -53, 24, 102, 351, 14, 4, 4, 
-9, -58, -48, 34, 19, -53, 24, 97, 351, 14, 4, 4, 
-9, -58, -48, 34, 19, -53, 24, 97, 351, 14, 4, 4, 
-9, -58, -48, 34, 19, -53, 24, 97, 351, 14, 4, 0, 
-9, -58, -48, 34, 19, -53, 19, 97, 351, 14, 4, 0, 
-4, -58, -53, 31, 24, -56, 14, 97, 346, 9, 4, -4, 
-4, -58, -53, 31, 24, -56, 19, 97, 341, 9, 0, -9, 
-9, -58, -48, 34, 19, -53, 19, 97, 341, 9, 0, -14, 
-9, -53, -43, 31, 17, -48, 19, 97, 336, 4, 0, -19, 
-4, -53, -48, 29, 21, -51, 19, 97, 336, 0, 0, -19, 
-4, -58, -53, 31, 24, -56, 14, 97, 336, 0, 0, -24, 
-4, -63, -58, 34, 26, -61, 14, 97, 331, 0, 0, -24, 
-4, -63, -58, 34, 26, -61, 14, 97, 331, 0, -4, -24, 
-4, -63, -58, 34, 26, -61, 14, 97, 331, 0, -4, -24, 
-4, -58, -53, 31, 24, -56, 14, 97, 326, 0, -4, -24, 
-9, -53, -43, 31, 17, -48, 14, 97, 326, 0, -4, -24, 
-9, -58, -48, 34, 19, -53, 14, 97, 322, 0, -9, -24, 
-9, -58, -48, 34, 19, -53, 14, 97, 322, 0, -9, -24, 
-9, -58, -48, 34, 19, -53, 14, 97, 317, 0, -9, -24, 
-9, -58, -48, 34, 19, -53, 14, 97, 312, 0, -9, -24, 
-9, -58, -48, 34, 19, -53, 14, 97, 312, -4, -9, -24, 
-9, -63, -53, 36, 21, -58, 14, 97, 307, -4, -9, -24, 
-4, -58, -53, 31, 24, -56, 9, 92, 302, -4, -14, -24, 
0, -58, -58, 29, 29, -58, 4, 92, 302, -9, -19, -29, 
4, -58, -63, 26, 34, -61, 4, 92, 297, -14, -19, -29, 
9, -58, -68, 24, 39, -63, 9, 97, 292, -19, -19, -29, 
9, -58, -68, 24, 39, -63, 9, 102, 292, -19, -19, -34, 
9, -58, -68, 24, 39, -63, 9, 107, 292, -19, -19, -39, 
9, -39, -48, 14, 29, -43, 4, 107, 292, -14, -14, -39, 
19, -9, -29, -4, 24, -19, 0, 102, 302, 0, -4, -29, 
29, 14, -14, -21, 21, 0, -9, 102, 312, 9, 4, -24, 
48, 43, -4, -46, 26, 19, -24, 102, 326, 19, 14, -9, 
63, 43, -19, -53, 41, 12, -29, 97, 346, 39, 29, -4, 
68, 48, -19, -58, 43, 14, -39, 92, 346, 43, 29, 0, 
78, 53, -24, -65, 51, 14, -53, 92, 346, 53, 39, 4, 
82, 58, -24, -70, 53, 17, -58, 87, 346, 53, 39, 9, 
82, 58, -24, -70, 53, 17, -63, 82, 346, 53, 39, 9, 
82, 48, -34, -65, 58, 7, -58, 87, 336, 53, 39, 9, 
73, 29, -43, -51, 58, -7, -48, 82, 317, 39, 24, 0, 
68, 19, -48, -43, 58, -14, -43, 78, 292, 24, 9, -4, 
58, 14, -43, -36, 51, -14, -39, 73, 287, 14, 9, -14, 
48, 9, -39, -29, 43, -14, -34, 73, 278, 14, 4, -24, 
34, -4, -39, -14, 36, -21, -29, 73, 278, 9, 0, -24, 
24, -14, -39, -4, 31, -26, -24, 73, 278, 9, -4, -24, 
19, -19, -39, 0, 29, -29, -19, 73, 278, 4, -4, -24, 
-4, -29, -24, 17, 9, -26, -14, 63, 268, -4, -14, -34, 
-19, -48, -29, 34, 4, -39, -4, 58, 263, -9, -19, -43, 
-24, -68, -43, 46, 9, -56, 9, 53, 258, -14, -29, -53, 
-24, -78, -53, 51, 14, -65, 9, 53, 244, -24, -39, -63, 
-29, -82, -53, 56, 12, -68, 14, 58, 244, -29, -39, -73, 
-29, -82, -53, 56, 12, -68, 14, 58, 239, -34, -39, -73, 
-29, -82, -53, 56, 12, -68, 14, 58, 239, -34, -39, -73, 
-29, -82, -53, 56, 12, -68, 14, 53, 234, -24, -39, -73, 
-29, -82, -53, 56, 12, -68, 14, 48, 234, -19, -39, -68, 
-24, -82, -58, 53, 17, -70, 14, 53, 234, -19, -39, -68, 
-24, -78, -53, 51, 14, -65, 14, 53, 234, -19, -39, -68, 
-24, -78, -53, 51, 14, -65, 14, 53, 229, -19, -39, -63, 
-24, -78, -53, 51, 14, -65, 14, 53, 224, -19, -39, -63, 
-19, -78, -58, 48, 19, -68, 9, 48, 224, -19, -39, -68, 
-19, -78, -58, 48, 19, -68, 4, 48, 214, -19, -39, -73, 
-19, -78, -58, 48, 19, -68, 4, 43, 214, -14, -34, -68, 
-19, -73, -53, 46, 17, -63, 4, 39, 214, -14, -34, -68, 
-19, -63, -43, 41, 12, -53, 4, 39, 214, -14, -34, -63, 
-19, -58, -39, 39, 9, -48, 4, 39, 214, -9, -34, -63, 
-19, -53, -34, 36, 7, -43, 4, 34, 214, -9, -29, -58, 
-14, -53, -39, 34, 12, -46, 0, 29, 214, -9, -29, -58, 
-14, -53, -39, 34, 12, -46, 0, 29, 214, -9, -29, -58, 
-14, -58, -43, 36, 14, -51, 0, 29, 214, -9, -24, -58, 
-14, -68, -53, 41, 19, -61, 0, 34, 209, -19, -34, -68, 
-14, -126, -112, 70, 48, -119, 34, 63, 195, -48, -82, -117, 
-68, -351, -283, 209, 107, -317, 165, 170, 112, -200, -268, -273, 
-190, -697, -507, 444, 158, -602, 370, 331, -39, -453, -561, -536, 
-263, -1015, -751, 639, 244, -883, 541, 507, -200, -692, -839, -790, 
-165, -1220, -1054, 692, 444, -1137, 639, 717, -336, -858, -1010, -936, 
0, -1024, -1024, 512, 512, -1024, 527, 702, -322, -790, -902, -810, 
195, -551, -746, 178, 470, -649, 185, 414, -268, -566, -580, -463, 
244, 239, -4, -241, 124, 117, -283, -165, -19, 0, 112, 165, 
209, 1083, 873, -646, -331, 978, -605, -570, 429, 717, 927, 863, 
224, 1483, 1259, -854, -517, 1371, -756, -761, 536, 1049, 1342, 1210, 
214, 1478, 1263, -846, -524, 1371, -814, -785, 356, 1024, 1390, 1249, 
170, 1098, 927, -634, -378, 1012, -702, -639, 141, 732, 1083, 971, 
-4, 341, 346, -168, -175, 344, -287, -287, -14, 209, 400, 356, 
-92, -58, 34, 75, -63, -12, -19, -4, -34, -73, 19, 19, 
-73, -48, 24, 61, -48, -12, 78, 131, 63, -73, -34, -48, 
-14, 14, 29, 0, -21, 21, 58, 161, 165, 19, 34, -19, 
63, 92, 29, -78, 17, 61, 0, 122, 283, 112, 102, 24, 
92, 126, 34, -109, 29, 80, -19, 112, 351, 151, 112, 29, 
63, 131, 68, -97, -2, 100, -24, 73, 351, 146, 112, 29, 
58, 136, 78, -97, -9, 107, -43, 24, 366, 146, 112, 29, 
53, 141, 87, -97, -17, 114, -48, -4, 375, 146, 112, 24, 
48, 136, 87, -92, -19, 112, -43, 14, 375, 146, 102, 19, 
43, 126, 82, -85, -19, 104, -43, 19, 375, 136, 97, 9, 
39, 122, 82, -80, -21, 102, -43, 19, 375, 136, 97, 4, 
39, 117, 78, -78, -19, 97, -43, 19, 375, 136, 92, 0, 
43, 122, 78, -82, -17, 100, -39, 19, 380, 136, 87, 0, 
43, 126, 82, -85, -19, 104, -39, 19, 380, 131, 87, 0, 
43, 122, 78, -82, -17, 100, -43, 14, 385, 131, 87, 0, 
43, 122, 78, -82, -17, 100, -48, 14, 385, 131, 87, 0, 
48, 122, 73, -85, -12, 97, -48, 14, 380, 131, 87, 0, 
48, 122, 73, -85, -12, 97, -48, 14, 380, 131, 87, -4, 
48, 126, 78, -87, -14, 102, -53, 14, 380, 131, 87, -9, 
48, 131, 82, -90, -17, 107, -53, 14, 380, 131, 92, -9, 
48, 136, 87, -92, -19, 112, -53, 14, 390, 136, 87, -9, 
48, 136, 87, -92, -19, 112, -53, 14, 390, 136, 87, -9, 
53, 131, 78, -92, -12, 104, -53, 14, 390, 136, 87, -4, 
53, 136, 82, -95, -14, 109, -58, 14, 400, 136, 87, 0, 
58, 136, 78, -97, -9, 107, -58, 14, 405, 141, 92, 0, 
58, 136, 78, -97, -9, 107, -58, 14, 405, 141, 92, 0, 
58, 151, 92, -104, -17, 122, -58, 14, 409, 146, 92, 4, 
63, 156, 92, -109, -14, 124, -63, 14, 409, 146, 87, 14, 
68, 161, 92, -114, -12, 126, -68, 14, 409, 151, 92, 19, 
73, 165, 92, -119, -9, 129, -68, 14, 419, 156, 92, 19, 
73, 170, 97, -122, -12, 134, -68, 9, 424, 165, 102, 24, 
73, 175, 102, -124, -14, 139, -68, 4, 429, 165, 107, 29, 
82, 185, 102, -134, -9, 143, -78, 4, 434, 165, 112, 34, 
82, 195, 112, -139, -14, 153, -82, 4, 439, 170, 117, 43, 
87, 209, 122, -148, -17, 165, -87, 4, 444, 180, 122, 48, 
97, 219, 122, -158, -12, 170, -92, 4, 448, 190, 126, 53, 
97, 229, 131, -163, -17, 180, -97, 4, 453, 195, 131, 58, 
107, 244, 136, -175, -14, 190, -102, 4, 458, 200, 141, 73, 
112, 263, 151, -187, -19, 207, -112, 0, 468, 214, 151, 78, 
117, 287, 170, -202, -26, 229, -122, 0, 478, 219, 161, 92, 
126, 302, 175, -214, -24, 239, -126, 0, 488, 229, 170, 102, 
141, 331, 190, -236, -24, 261, -141, -9, 497, 239, 185, 122, 
151, 366, 214, -258, -31, 290, -151, -9, 507, 253, 204, 141, 
161, 395, 234, -278, -36, 314, -161, -14, 522, 273, 224, 165, 
180, 419, 239, -300, -29, 329, -180, -24, 541, 287, 253, 185, 
195, 453, 258, -324, -31, 356, -195, -34, 556, 307, 273, 204, 
214, 497, 283, -356, -34, 390, -209, -39, 570, 331, 302, 234, 
234, 541, 307, -387, -36, 424, -234, -43, 590, 356, 336, 258, 
258, 595, 336, -427, -39, 466, -253, -58, 610, 385, 366, 302, 
278, 639, 361, -458, -41, 500, -273, -68, 624, 414, 395, 336, 
287, 688, 400, -488, -56, 544, -302, -87, 644, 444, 429, 370, 
317, 741, 424, -529, -53, 583, -322, -92, 663, 473, 468, 405, 
326, 790, 463, -558, -68, 627, -346, -112, 692, 507, 502, 439, 
351, 844, 492, -597, -70, 668, -370, -126, 712, 536, 541, 468, 
361, 888, 527, -624, -82, 707, -395, -151, 736, 566, 585, 502, 
370, 932, 561, -651, -95, 746, -414, -161, 756, 595, 614, 536, 
385, 971, 585, -678, -100, 778, -439, -170, 771, 624, 644, 570, 
390, 1005, 614, -697, -112, 810, -453, -185, 785, 644, 673, 595, 
390, 1034, 644, -712, -126, 839, -468, -200, 805, 668, 697, 610, 
390, 1058, 668, -724, -139, 863, -478, -214, 824, 683, 717, 629, 
385, 1063, 678, -724, -146, 871, -478, -219, 834, 697, 717, 629, 
370, 1063, 692, -717, -161, 878, -473, -229, 839, 697, 712, 629, 
346, 1034, 688, -690, -170, 861, -468, -229, 844, 688, 707, 614, 
322, 985, 663, -653, -170, 824, -458, -229, 834, 668, 678, 580, 
292, 922, 629, -607, -168, 775, -434, -224, 814, 629, 624, 531, 
268, 858, 590, -563, -161, 724, -390, -209, 780, 575, 566, 483, 
234, 785, 551, -509, -158, 668, -361, -190, 741, 527, 512, 439, 
204, 702, 497, -453, -146, 600, -322, -165, 707, 478, 453, 385, 
175, 619, 444, -397, -134, 531, -287, -146, 668, 419, 390, 317, 
146, 541, 395, -344, -124, 468, -248, -126, 624, 356, 326, 268, 
117, 468, 351, -292, -117, 409, -209, -112, 566, 312, 268, 214, 
92, 400, 307, -246, -107, 353, -180, -92, 531, 263, 214, 165, 
68, 322, 253, -195, -92, 287, -146, -68, 502, 209, 156, 122, 
48, 268, 219, -158, -85, 244, -122, -53, 468, 165, 107, 87, 
39, 234, 195, -136, -78, 214, -102, -43, 439, 141, 78, 68, 
24, 195, 170, -109, -73, 183, -82, -29, 419, 117, 58, 43, 
19, 156, 136, -87, -58, 146, -68, -14, 405, 87, 24, 9, 
9, 131, 122, -70, -56, 126, -63, -9, 390, 63, 4, 0, 
0, 122, 122, -61, -61, 122, -48, 0, 375, 53, 0, -4, 
-9, 117, 126, -53, -68, 122, -43, 0, 370, 43, -4, -9, 
-14, 97, 112, -41, -63, 104, -34, 4, 366, 29, -19, -19, 
-19, 92, 112, -36, -65, 102, -34, 9, 356, 24, -24, -24, 
-19, 87, 107, -34, -63, 97, -29, 9, 356, 19, -29, -29, 
-19, 78, 97, -29, -58, 87, -24, 9, 351, 19, -29, -24, 
-19, 73, 92, -26, -56, 82, -24, 9, 346, 14, -34, -29, 
-19, 68, 87, -24, -53, 78, -24, 9, 346, 14, -39, -29, 
-19, 73, 92, -26, -56, 82, -24, 9, 346, 14, -39, -29, 
-19, 78, 97, -29, -58, 87, -24, 9, 341, 9, -34, -29, 
-24, 73, 97, -24, -61, 85, -19, 9, 341, 4, -34, -29, 
-24, 73, 97, -24, -61, 85, -19, 9, 341, 0, -34, -29, 
-24, 73, 97, -24, -61, 85, -19, 9, 341, 0, -34, -24, 
-19, 73, 92, -26, -56, 82, -19, 4, 346, 0, -34, -19, 
-19, 73, 92, -26, -56, 82, -19, 4, 346, 0, -29, -19, 
-14, 68, 82, -26, -48, 75, -19, 4, 346, 0, -29, -14, 
-14, 68, 82, -26, -48, 75, -14, 4, 346, 0, -29, -9, 
-14, 68, 82, -26, -48, 75, -14, 4, 346, 0, -29, -4, 
-14, 78, 92, -31, -53, 85, -14, 4, 351, -4, -29, -4, 
-14, 82, 97, -34, -56, 90, -14, 4, 356, -4, -29, -4, 
-14, 87, 102, -36, -58, 95, -14, 4, 356, -4, -24, 0, 
-9, 92, 102, -41, -56, 97, -14, 4, 356, -4, -24, 4, 
-4, 92, 97, -43, -51, 95, -14, 4, 356, 4, -24, 4, 
0, 92, 92, -46, -46, 92, -14, 4, 361, 9, -19, 9, 
0, 97, 97, -48, -48, 97, -19, 0, 361, 14, -14, 9, 
4, 97, 92, -51, -43, 95, -19, -4, 361, 14, -4, 14, 
0, 102, 102, -51, -51, 102, -19, -4, 370, 19, -4, 14, 
-4, 102, 107, -48, -56, 104, -19, -4, 375, 19, -4, 14, 
0, 112, 112, -56, -56, 112, -19, -9, 375, 19, 0, 19, 
0, 117, 117, -58, -58, 117, -19, -9, 380, 24, 4, 19, 
0, 117, 117, -58, -58, 117, -19, -9, 380, 24, 4, 24, 
0, 117, 117, -58, -58, 117, -19, -9, 380, 29, 4, 24, 
4, 117, 112, -61, -53, 114, -19, -14, 380, 24, 4, 29, 
4, 117, 112, -61, -53, 114, -19, -14, 380, 19, 9, 34, 
4, 122, 117, -63, -56, 119, -19, -14, 380, 24, 9, 34, 
4, 122, 117, -63, -56, 119, -19, -14, 380, 24, 9, 34, 
9, 122, 112, -65, -51, 117, -14, -14, 380, 24, 4, 34, 
9, 122, 112, -65, -51, 117, -14, -14, 380, 24, 4, 34, 
9, 117, 107, -63, -48, 112, -14, -9, 380, 24, 4, 34, 
9, 117, 107, -63, -48, 112, -14, -4, 380, 24, 4, 34, 
9, 112, 102, -61, -46, 107, -9, -9, 375, 24, 4, 34, 
9, 107, 97, -58, -43, 102, -4, -9, 370, 24, 4, 34, 
4, 107, 102, -56, -48, 104, -4, -9, 370, 19, 4, 29, 
0, 107, 107, -53, -53, 107, -4, -9, 370, 14, 4, 29, 
4, 107, 102, -56, -48, 104, -4, -9, 370, 9, 4, 24, 
4, 102, 97, -53, -46, 100, 0, -9, 370, 9, 0, 24, 
0, 97, 97, -48, -48, 97, 0, -9, 370, 9, 0, 24, 
0, 97, 97, -48, -48, 97, 0, -9, 366, 9, 0, 19, 
0, 87, 87, -43, -43, 87, -4, -9, 366, 9, -4, 19, 
-4, 78, 82, -36, -43, 80, -9, -9, 366, 9, -9, 14, 
-4, 73, 78, -34, -41, 75, -4, -9, 361, 4, -9, 14, 
-4, 73, 78, -34, -41, 75, -4, -9, 361, 0, -14, 14, 
-4, 68, 73, -31, -39, 70, -4, -4, 361, 0, -14, 14, 
-4, 63, 68, -29, -36, 65, -4, 0, 356, 0, -14, 14, 
-4, 63, 68, -29, -36, 65, -4, 0, 356, -4, -9, 14, 
0, 58, 58, -29, -29, 58, -4, 0, 351, -9, -9, 14, 
0, 58, 58, -29, -29, 58, -4, 0, 351, -9, -9, 14, 
0, 53, 53, -26, -26, 53, -4, 0, 351, -9, -9, 9, 
-4, 48, 53, -21, -29, 51, -4, 0, 351, -9, -9, 4, 
-9, 48, 58, -19, -34, 53, -4, 0, 351, -14, -9, 4, 
-9, 39, 48, -14, -29, 43, -4, 0, 351, -14, -9, 0, 
-9, 34, 43, -12, -26, 39, -9, 0, 346, -14, -9, -4, 
-9, 39, 48, -14, -29, 43, -9, 0, 346, -14, -14, -4, 
-9, 39, 48, -14, -29, 43, -9, 0, 341, -14, -14, -4, 
-9, 34, 43, -12, -26, 39, -4, 0, 341, -19, -19, -4, 
-9, 29, 39, -9, -24, 34, -4, 0, 341, -19, -19, -4, 
-9, 29, 39, -9, -24, 34, -4, 0, 341, -19, -19, -9, 
-4, 24, 29, -9, -17, 26, -4, 0, 336, -19, -19, -9, 
-4, 24, 29, -9, -17, 26, -9, 0, 336, -14, -14, -9, 
-9, 19, 29, -4, -19, 24, -9, 0, 336, -14, -14, -9, 
-4, 14, 19, -4, -12, 17, -4, 4, 326, -19, -14, -9, 
0, 9, 9, -4, -4, 9, 0, 9, 322, -29, -19, -9, 
0, 4, 4, -2, -2, 4, 0, 9, 322, -29, -19, -9, 
0, 0, 0, 0, 0, 0, 0, 9, 322, -29, -19, -9, 
4, 0, -4, -2, 4, -2, 0, 14, 322, -29, -19, -9, 
9, 4, -4, -7, 7, 0, 0, 14, 322, -29, -19, -9, 
14, 14, 0, -14, 7, 7, 0, 19, 326, -29, -19, -14, 
29, 53, 24, -41, 2, 39, -9, 14, 341, -9, -4, -4, 
53, 92, 39, -73, 7, 65, -24, 14, 351, -4, 4, 9, 
73, 92, 19, -82, 26, 56, -34, 14, 366, 9, 24, 19, 
78, 97, 19, -87, 29, 58, -48, 14, 366, 14, 29, 29, 
87, 107, 19, -97, 34, 63, -63, 14, 366, 24, 39, 34, 
92, 117, 24, -104, 34, 70, -68, 9, 366, 24, 39, 39, 
92, 117, 24, -104, 34, 70, -78, 0, 366, 24, 39, 39, 
92, 107, 14, -100, 39, 61, -78, 0, 356, 24, 34, 39, 
82, 82, 0, -82, 41, 41, -68, -4, 341, 9, 19, 29, 
73, 68, -4, -70, 39, 31, -63, -9, 322, -4, 9, 24, 
63, 63, 0, -63, 31, 31, -58, -14, 317, -14, 9, 19, 
58, 58, 0, -58, 29, 29, -53, -14, 307, -14, 4, 14, 
43, 48, 4, -46, 19, 26, -48, -14, 307, -19, 0, 14, 
34, 43, 9, -39, 12, 26, -48, -14, 307, -19, -4, 14, 
24, 39, 14, -31, 4, 26, -48, -14, 307, -19, -4, 14, 
-4, 29, 34, -12, -19, 31, -43, -24, 302, -24, -14, 4, 
-24, 4, 29, 9, -26, 17, -34, -24, 302, -29, -19, 0, 
-34, -19, 14, 26, -24, -2, -14, -24, 297, -34, -29, -9, 
-34, -29, 4, 31, -19, -12, -9, -24, 283, -43, -39, -19, 
-39, -34, 4, 36, -21, -14, -4, -19, 283, -48, -39, -24, 
-39, -34, 4, 36, -21, -14, -4, -19, 278, -53, -39, -24, 
-39, -29, 9, 34, -24, -9, -4, -19, 278, -58, -39, -19, 
-39, -24, 14, 31, -26, -4, -4, -19, 273, -58, -39, -19, 
-39, -24, 14, 31, -26, -4, -4, -19, 268, -58, -39, -14, 
-34, -24, 9, 29, -21, -7, -4, -14, 263, -58, -39, -9, 
-34, -19, 14, 26, -24, -2, -4, -14, 263, -58, -39, -9, 
-34, -19, 14, 26, -24, -2, -4, -14, 263, -58, -39, -4, 
-34, -19, 14, 26, -24, -2, -4, -14, 268, -58, -39, -4, 
-29, -19, 9, 24, -19, -4, -4, -14, 273, -58, -39, -4, 
-29, -19, 9, 24, -19, -4, -4, -9, 263, -58, -39, -4, 
-29, -19, 9, 24, -19, -4, -4, -9, 263, -53, -34, 0, 
-24, -14, 9, 19, -17, -2, -4, -9, 263, -53, -34, 0, 
-19, -9, 9, 14, -14, 0, -4, -9, 263, -53, -34, 4, 
-19, -9, 9, 14, -14, 0, -4, -9, 263, -48, -34, 4, 
-19, -4, 14, 12, -17, 4, -4, -9, 263, -48, -29, 9, 
-19, -4, 14, 12, -17, 4, -9, -9, 258, -48, -29, 9, 
-24, 0, 24, 12, -24, 12, -9, -9, 253, -48, -29, 9, 
-24, 0, 24, 12, -24, 12, -9, -9, 253, -48, -24, 14, 
-24, 0, 24, 12, -24, 12, -9, -4, 253, -48, -24, 19, 
-24, -34, -9, 29, -7, -21, 14, 24, 248, -58, -58, -9, 
-87, -244, -156, 165, 34, -200, 136, 131, 170, -190, -219, -151, 
-219, -600, -380, 409, 80, -490, 351, 302, 19, -444, -492, -424, 
-283, -936, -653, 610, 185, -795, 546, 517, -161, -707, -780, -692, 
-165, -1171, -1005, 668, 419, -1088, 668, 771, -331, -902, -980, -854, 
34, -1029, -1063, 497, 549, -1046, 546, 771, -356, -893, -946, -785, 
253, -614, -868, 180, 561, -741, 170, 468, -366, -746, -707, -497, 
302, 136, -165, -219, 234, -14, -312, -165, -156, -234, -73, 117, 
268, 995, 727, -631, -229, 861, -644, -634, 317, 483, 732, 834, 
268, 1444, 1176, -856, -453, 1310, -805, -849, 497, 844, 1176, 1215, 
244, 1478, 1234, -861, -495, 1356, -863, -863, 385, 863, 1259, 1283, 
200, 1171, 971, -685, -385, 1071, -746, -683, 204, 658, 1034, 1054, 
19, 478, 458, -248, -219, 468, -317, -302, 68, 190, 409, 473, 
-78, 78, 156, 0, -117, 117, -39, -9, 53, -92, 29, 136, 
-68, 58, 126, 4, -97, 92, 58, 131, 151, -97, -24, 63, 
-19, 87, 107, -34, -63, 97, 43, 161, 239, -14, 43, 82, 
53, 151, 97, -102, -21, 124, -4, 122, 346, 73, 107, 122, 
82, 180, 97, -131, -7, 139, -19, 112, 419, 107, 112, 126, 
53, 175, 122, -114, -34, 148, -24, 73, 419, 97, 112, 126, 
48, 170, 122, -109, -36, 146, -39, 24, 424, 97, 112, 126, 
43, 165, 122, -104, -39, 143, -39, -4, 424, 92, 107, 117, 
39, 151, 112, -95, -36, 131, -34, 14, 424, 87, 92, 107, 
34, 136, 102, -85, -34, 119, -34, 19, 424, 73, 87, 97, 
29, 131, 102, -80, -36, 117, -34, 19, 424, 68, 82, 92, 
29, 126, 97, -78, -34, 112, -39, 19, 424, 68, 73, 87, 
29, 126, 97, -78, -34, 112, -39, 19, 429, 68, 68, 87, 
24, 131, 107, -78, -41, 119, -39, 19, 429, 63, 68, 87, 
24, 131, 107, -78, -41, 119, -39, 14, 434, 63, 68, 87, 
24, 131, 107, -78, -41, 119, -39, 14, 434, 63, 68, 87, 
29, 131, 102, -80, -36, 117, -39, 14, 434, 63, 68, 87, 
29, 131, 102, -80, -36, 117, -39, 14, 439, 63, 68, 82, 
29, 131, 102, -80, -36, 117, -43, 14, 439, 63, 68, 78, 
29, 126, 97, -78, -34, 112, -43, 14, 439, 63, 73, 78, 
29, 126, 97, -78, -34, 112, -43, 14, 448, 68, 73, 78, 
29, 126, 97, -78, -34, 112, -43, 14, 448, 68, 78, 78, 
34, 126, 92, -80, -29, 109, -43, 14, 448, 68, 78, 78, 
34, 136, 102, -85, -34, 119, -43, 14, 458, 68, 78, 78, 
39, 136, 97, -87, -29, 117, -39, 14, 463, 73, 82, 78, 
39, 136, 97, -87, -29, 117, -39, 14, 463, 73, 82, 78, 
39, 146, 107, -92, -34, 126, -39, 14, 468, 78, 87, 78, 
43, 146, 102, -95, -29, 124, -43, 14, 468, 78, 87, 82, 
48, 151, 102, -100, -26, 126, -48, 14, 468, 82, 92, 87, 
53, 156, 102, -104, -24, 129, -48, 14, 478, 87, 92, 87, 
53, 161, 107, -107, -26, 134, -48, 14, 483, 97, 102, 92, 
48, 165, 117, -107, -34, 141, -48, 14, 488, 97, 102, 97, 
53, 170, 117, -112, -31, 143, -58, 14, 492, 97, 102, 97, 
53, 175, 122, -114, -34, 148, -63, 14, 497, 102, 107, 102, 
58, 190, 131, -124, -36, 161, -68, 14, 502, 107, 112, 107, 
68, 200, 131, -134, -31, 165, -73, 14, 507, 112, 117, 112, 
68, 209, 141, -139, -36, 175, -78, 14, 517, 117, 122, 117, 
78, 224, 146, -151, -34, 185, -82, 14, 527, 122, 131, 131, 
82, 239, 156, -161, -36, 197, -87, 9, 536, 136, 141, 136, 
87, 258, 170, -173, -41, 214, -92, 9, 546, 141, 151, 151, 
97, 273, 175, -185, -39, 224, -97, 9, 556, 151, 161, 161, 
112, 302, 190, -207, -39, 246, -112, 0, 566, 161, 175, 180, 
122, 331, 209, -226, -43, 270, -122, 0, 575, 175, 195, 195, 
131, 351, 219, -241, -43, 285, -131, -4, 590, 195, 214, 214, 
151, 370, 219, -261, -34, 295, -151, -9, 610, 209, 239, 234, 
165, 405, 239, -285, -36, 322, -165, -14, 624, 229, 253, 253, 
180, 448, 268, -314, -43, 358, -180, -19, 639, 253, 283, 283, 
195, 492, 297, -344, -51, 395, -204, -24, 658, 278, 317, 307, 
219, 541, 322, -380, -51, 431, -224, -39, 683, 307, 346, 346, 
239, 580, 341, -409, -51, 461, -244, -48, 702, 336, 375, 375, 
248, 629, 380, -439, -65, 505, -273, -68, 722, 366, 409, 409, 
278, 678, 400, -478, -61, 539, -292, -73, 741, 395, 448, 444, 
287, 722, 434, -505, -73, 578, -317, -92, 771, 429, 483, 483, 
312, 775, 463, -544, -75, 619, -336, -107, 795, 453, 517, 517, 
326, 824, 497, -575, -85, 661, -361, -131, 824, 478, 556, 551, 
341, 868, 527, -605, -92, 697, -385, -141, 844, 507, 585, 585, 
356, 902, 546, -629, -95, 724, -409, -156, 863, 536, 614, 619, 
361, 936, 575, -649, -107, 756, -424, -175, 878, 556, 644, 644, 
361, 966, 605, -663, -122, 785, -439, -190, 893, 580, 668, 658, 
361, 990, 629, -675, -134, 810, -448, -204, 912, 590, 688, 678, 
361, 995, 634, -678, -136, 814, -453, -209, 922, 600, 692, 678, 
351, 995, 644, -673, -146, 819, -453, -219, 927, 600, 692, 678, 
326, 976, 649, -651, -161, 812, -448, -219, 927, 595, 688, 668, 
302, 936, 634, -619, -165, 785, -439, -219, 907, 580, 658, 644, 
273, 873, 600, -573, -163, 736, -414, -219, 883, 541, 610, 600, 
248, 810, 561, -529, -156, 685, -370, -204, 849, 488, 556, 551, 
214, 736, 522, -475, -153, 629, -341, -180, 805, 439, 502, 507, 
185, 653, 468, -419, -141, 561, -302, -156, 766, 390, 444, 453, 
156, 566, 409, -361, -126, 488, -268, -136, 722, 326, 380, 385, 
126, 483, 356, -305, -114, 419, -229, -117, 673, 258, 322, 341, 
97, 409, 312, -253, -107, 361, -190, -97, 614, 209, 268, 292, 
73, 346, 273, -209, -100, 309, -161, -73, 580, 156, 214, 244, 
48, 268, 219, -158, -85, 244, -126, -48, 546, 102, 156, 195, 
29, 209, 180, -119, -75, 195, -102, -34, 507, 63, 107, 156, 
14, 170, 156, -92, -70, 163, -82, -24, 478, 39, 78, 136, 
-4, 122, 126, -58, -65, 124, -63, -9, 458, 9, 58, 107, 
-9, 78, 87, -34, -48, 82, -43, 4, 439, -19, 24, 68, 
-19, 53, 73, -17, -46, 63, -34, 9, 419, -43, 4, 58, 
-29, 39, 68, -4, -48, 53, -19, 19, 405, -53, -4, 48, 
-39, 29, 68, 4, -53, 48, -14, 19, 400, -63, -14, 39, 
-43, 9, 53, 17, -48, 31, -4, 24, 395, -78, -29, 29, 
-48, 9, 58, 19, -53, 34, -4, 29, 385, -82, -34, 24, 
-48, 9, 58, 19, -53, 34, 0, 29, 385, -87, -39, 14, 
-48, 0, 48, 24, -48, 24, 4, 29, 380, -82, -34, 14, 
-48, -4, 43, 26, -46, 19, 4, 29, 375, -82, -34, 9, 
-48, -9, 39, 29, -43, 14, 4, 29, 375, -82, -39, 9, 
-48, -9, 39, 29, -43, 14, 4, 29, 375, -82, -43, 9, 
-43, -9, 34, 26, -39, 12, 4, 29, 370, -87, -43, 9, 
-43, -14, 29, 29, -36, 7, 9, 29, 370, -87, -43, 9, 
-43, -14, 29, 29, -36, 7, 9, 29, 370, -87, -43, 9, 
-43, -14, 29, 29, -36, 7, 9, 34, 370, -87, -43, 9, 
-43, -14, 29, 29, -36, 7, 9, 34, 375, -87, -43, 9, 
-48, -9, 39, 29, -43, 14, 9, 34, 375, -87, -43, 4, 
-43, -9, 34, 26, -39, 12, 9, 34, 375, -87, -43, 4, 
-43, -9, 34, 26, -39, 12, 9, 34, 375, -87, -39, 4, 
-39, -9, 29, 24, -34, 9, 4, 34, 375, -87, -39, 4, 
-34, -4, 29, 19, -31, 12, 4, 34, 375, -87, -39, 4, 
-34, 0, 34, 17, -34, 17, 4, 34, 380, -82, -39, 4, 
-34, 4, 39, 14, -36, 21, 4, 34, 385, -82, -34, 4, 
-34, 4, 39, 14, -36, 21, 4, 34, 385, -82, -34, 0, 
-39, 4, 43, 17, -41, 24, 4, 34, 385, -78, -34, -4, 
-39, 9, 48, 14, -43, 29, 4, 34, 390, -78, -24, 0, 
-39, 19, 58, 9, -48, 39, 0, 34, 390, -73, -19, 0, 
-34, 19, 53, 7, -43, 36, -4, 34, 390, -73, -14, 4, 
-34, 24, 58, 4, -46, 41, -9, 34, 395, -68, -14, 4, 
-34, 24, 58, 4, -46, 41, -9, 34, 395, -68, -14, 0, 
-29, 29, 58, 0, -43, 43, -9, 29, 395, -68, -9, 0, 
-29, 29, 58, 0, -43, 43, -9, 29, 395, -63, -4, -4, 
-29, 29, 58, 0, -43, 43, -9, 29, 390, -63, -4, -4, 
-29, 29, 58, 0, -43, 43, -9, 29, 390, -58, -4, -4, 
-24, 29, 53, -2, -39, 41, -9, 24, 390, -58, -4, -4, 
-24, 29, 53, -2, -39, 41, -9, 24, 390, -58, 0, -4, 
-24, 34, 58, -4, -41, 46, -9, 24, 390, -53, 0, -4, 
-24, 34, 58, -4, -41, 46, -9, 24, 390, -53, 0, -4, 
-19, 34, 53, -7, -36, 43, -9, 24, 390, -53, -4, -4, 
-19, 34, 53, -7, -36, 43, -14, 24, 390, -53, -4, -4, 
-19, 29, 48, -4, -34, 39, -14, 24, 390, -53, -4, -4, 
-19, 29, 48, -4, -34, 39, -14, 24, 390, -53, -4, 0, 
-19, 29, 48, -4, -34, 39, -14, 19, 390, -53, -4, 4, 
-19, 29, 48, -4, -34, 39, -14, 19, 390, -53, -4, 4, 
-19, 29, 48, -4, -34, 39, -14, 19, 390, -53, -4, 0, 
-19, 29, 48, -4, -34, 39, -14, 19, 390, -48, -4, 0, 
-14, 29, 43, -7, -29, 36, -14, 19, 385, -48, -4, -4, 
-14, 24, 39, -4, -26, 31, -9, 19, 380, -48, -9, -4, 
-19, 19, 39, 0, -29, 29, -9, 19, 380, -48, -9, -4, 
-19, 24, 43, -2, -31, 34, -9, 19, 375, -48, -9, -4, 
-14, 24, 39, -4, -26, 31, -9, 19, 375, -48, -9, 0, 
-9, 19, 29, -4, -19, 24, -9, 19, 375, -48, -9, -4, 
-4, 14, 19, -4, -12, 17, -4, 19, 370, -48, -9, -4, 
-4, 9, 14, -2, -9, 12, -4, 19, 370, -48, -14, -4, 
-4, 4, 9, 0, -7, 7, -4, 19, 370, -48, -14, -4, 
-4, 4, 9, 0, -7, 7, -4, 19, 366, -53, -14, -4, 
-9, 4, 14, 2, -12, 9, -4, 19, 366, -58, -14, -4, 
-9, 0, 9, 4, -9, 4, -4, 19, 356, -58, -19, -4, 
-9, 0, 9, 4, -9, 4, -4, 19, 351, -58, -19, -4, 
-9, -4, 4, 7, -7, 0, -4, 19, 351, -58, -19, -9, 
-9, -9, 0, 9, -4, -4, -4, 19, 351, -58, -19, -14, 
-9, -9, 0, 9, -4, -4, -4, 19, 351, -63, -19, -14, 
-9, -14, -4, 12, -2, -9, -4, 19, 351, -63, -19, -14, 
-9, -14, -4, 12, -2, -9, -4, 19, 346, -58, -19, -14, 
-9, -9, 0, 9, -4, -4, 0, 19, 346, -53, -24, -14, 
-9, -9, 0, 9, -4, -4, 0, 19, 341, -53, -24, -14, 
-9, -9, 0, 9, -4, -4, 0, 19, 341, -53, -24, -14, 
-9, -14, -4, 12, -2, -9, -4, 19, 341, -53, -19, -14, 
-9, -14, -4, 12, -2, -9, -4, 19, 341, -58, -19, -14, 
-4, -14, -9, 9, 2, -12, 0, 19, 336, -58, -24, -14, 
-4, -9, -4, 7, 0, -7, 0, 19, 336, -53, -24, -19, 
-9, -9, 0, 9, -4, -4, 0, 19, 331, -53, -24, -19, 
-9, -9, 0, 9, -4, -4, 0, 14, 326, -53, -24, -19, 
-4, -14, -9, 9, 2, -12, -4, 9, 326, -53, -24, -19, 
-4, -19, -14, 12, 4, -17, -4, 4, 326, -53, -24, -19, 
-9, -19, -9, 14, 0, -14, -4, 4, 322, -53, -24, -19, 
-9, -19, -9, 14, 0, -14, -4, 4, 317, -53, -24, -19, 
-9, -19, -9, 14, 0, -14, -4, 4, 317, -48, -24, -19, 
-9, -19, -9, 14, 0, -14, -4, 4, 317, -43, -24, -19, 
-4, -19, -14, 12, 4, -17, -4, 4, 326, -43, -24, -19, 
-4, -19, -14, 12, 4, -17, -4, 4, 317, -43, -24, -19, 
-4, -19, -14, 12, 4, -17, -4, 4, 312, -39, -19, -14, 
-4, -19, -14, 12, 4, -17, -9, 0, 317, -39, -19, -14, 
-4, -19, -14, 12, 4, -17, -9, 0, 312, -39, -19, -14, 
-4, -14, -9, 9, 2, -12, -9, 0, 312, -39, -19, -19, 
-4, -14, -9, 9, 2, -12, -4, 0, 307, -39, -14, -19, 
-4, -14, -9, 9, 2, -12, 0, 0, 307, -39, -9, -19, 
0, -14, -14, 7, 7, -14, 0, 0, 307, -39, -9, -14, 
0, -14, -14, 7, 7, -14, -4, 0, 302, -39, -9, -14, 
-4, -14, -9, 9, 2, -12, 0, 9, 297, -39, -14, -9, 
-9, -19, -9, 14, 0, -14, 0, 19, 292, -39, -19, -9, 
-4, -19, -14, 12, 4, -17, 0, 19, 287, -39, -19, -9, 
0, -19, -19, 9, 9, -19, 0, 19, 283, -39, -19, -9, 
4, -19, -24, 7, 14, -21, 0, 19, 283, -39, -19, -9, 
9, -9, -19, 0, 14, -14, 0, 19, 283, -39, -14, -4, 
19, -4, -24, -7, 21, -14, 0, 24, 287, -39, -14, -4, 
39, 34, -4, -36, 21, 14, -9, 24, 302, -19, 4, 14, 
58, 73, 14, -65, 21, 43, -24, 29, 317, -9, 14, 29, 
73, 73, 0, -73, 36, 36, -34, 34, 336, 9, 34, 39, 
78, 78, 0, -78, 39, 39, -43, 34, 336, 14, 34, 48, 
87, 87, 0, -87, 43, 43, -53, 34, 336, 24, 39, 53, 
92, 92, 0, -92, 46, 46, -58, 34, 331, 19, 39, 58, 
92, 87, -4, -90, 48, 41, -68, 29, 326, 14, 39, 58, 
92, 78, -14, -85, 53, 31, -68, 29, 317, 14, 39, 58, 
82, 53, -29, -68, 56, 12, -58, 24, 302, 0, 29, 48, 
78, 39, -39, -58, 58, 0, -53, 19, 283, -14, 14, 43, 
73, 34, -39, -53, 56, -2, -48, 14, 278, -24, 9, 39, 
68, 29, -39, -48, 53, -4, -43, 14, 268, -24, 4, 34, 
53, 19, -34, -36, 43, -7, -39, 14, 268, -29, 0, 34, 
43, 14, -29, -29, 36, -7, -29, 14, 268, -29, 0, 34, 
34, 9, -24, -21, 29, -7, -19, 14, 268, -29, 4, 34, 
4, 0, -4, -2, 4, -2, -14, 4, 258, -34, -4, 24, 
-14, -24, -9, 19, -2, -17, -4, 4, 253, -39, -9, 19, 
-29, -53, -24, 41, -2, -39, 9, 9, 248, -43, -19, 14, 
-34, -68, -34, 51, 0, -51, 9, 14, 234, -53, -29, 9, 
-39, -73, -34, 56, -2, -53, 19, 19, 234, -58, -29, 4, 
-39, -73, -34, 56, -2, -53, 24, 19, 229, -63, -29, 4, 
-39, -73, -34, 56, -2, -53, 24, 19, 229, -63, -29, 4, 
-39, -73, -34, 56, -2, -53, 24, 19, 224, -58, -29, 0, 
-39, -78, -39, 58, 0, -58, 24, 19, 224, -58, -29, 0, 
-34, -82, -48, 58, 7, -65, 24, 24, 224, -58, -29, 0, 
-34, -78, -43, 56, 4, -61, 24, 24, 224, -58, -29, 0, 
-34, -78, -43, 56, 4, -61, 24, 24, 224, -58, -29, 4, 
-34, -78, -43, 56, 4, -61, 24, 24, 224, -58, -29, 4, 
-29, -78, -48, 53, 9, -63, 24, 24, 224, -58, -29, 4, 
-29, -82, -53, 56, 12, -68, 24, 34, 214, -58, -29, 0, 
-29, -87, -58, 58, 14, -73, 24, 39, 214, -53, -24, 0, 
-29, -87, -58, 58, 14, -73, 24, 39, 214, -53, -24, 0, 
-29, -87, -58, 58, 14, -73, 24, 39, 214, -53, -24, 4, 
-29, -87, -58, 58, 14, -73, 29, 39, 214, -48, -24, 4, 
-29, -82, -53, 56, 12, -68, 34, 39, 214, -48, -19, 9, 
-24, -82, -58, 53, 17, -70, 29, 39, 209, -43, -19, 9, 
-24, -78, -53, 51, 14, -65, 29, 39, 204, -39, -19, 9, 
-24, -78, -53, 51, 14, -65, 29, 39, 204, -39, -14, 9, 
-24, -78, -53, 51, 14, -65, 29, 43, 204, -39, -14, 9, 
-24, -112, -87, 68, 31, -100, 63, 73, 200, -53, -34, -29, 
-87, -322, -234, 204, 73, -278, 195, 180, 122, -190, -180, -180, 
-219, -678, -458, 448, 119, -568, 405, 361, -29, -434, -468, -444, 
-283, -1015, -732, 649, 224, -873, 595, 585, -209, -688, -771, -702, 
-170, -1254, -1083, 712, 456, -1168, 717, 824, -375, -883, -961, -858, 
24, -1117, -1141, 546, 583, -1129, 595, 810, -395, -873, -917, -785, 
244, -678, -922, 217, 583, -800, 224, 507, -385, -707, -663, -483, 
292, 97, -195, -195, 244, -48, -253, -126, -156, -175, -14, 146, 
258, 936, 678, -597, -209, 807, -575, -570, 307, 531, 785, 854, 
258, 1366, 1107, -812, -424, 1237, -727, -761, 478, 883, 1224, 1224, 
234, 1381, 1146, -807, -456, 1263, -785, -780, 346, 878, 1283, 1278, 
190, 1054, 863, -622, -336, 958, -668, -605, 146, 649, 1034, 1034, 
9, 346, 336, -178, -163, 341, -244, -224, 9, 180, 409, 444, 
-87, -68, 19, 78, -53, -24, 29, 68, -4, -102, 29, 97, 
-73, -73, 0, 73, -36, -36, 126, 209, 92, -102, -24, 29, 
-19, -29, -9, 24, -4, -19, 112, 239, 180, -14, 43, 53, 
53, 34, -19, -43, 36, 7, 58, 200, 283, 73, 117, 97, 
82, 63, -19, -73, 51, 21, 39, 190, 351, 107, 131, 107, 
53, 63, 9, -58, 21, 36, 34, 146, 351, 97, 131, 107, 
48, 63, 14, -56, 17, 39, 19, 92, 356, 97, 131, 107, 
43, 63, 19, -53, 12, 41, 19, 63, 361, 97, 131, 97, 
39, 53, 14, -46, 12, 34, 24, 82, 366, 97, 122, 87, 
34, 39, 4, -36, 14, 21, 24, 87, 366, 87, 117, 78, 
29, 34, 4, -31, 12, 19, 24, 87, 366, 87, 112, 73, 
29, 24, -4, -26, 17, 9, 24, 87, 366, 87, 102, 68, 
29, 19, -9, -24, 19, 4, 29, 87, 370, 87, 97, 68, 
24, 19, -4, -21, 14, 7, 29, 87, 366, 82, 97, 63, 
24, 14, -9, -19, 17, 2, 29, 82, 366, 82, 97, 58, 
24, 14, -9, -19, 17, 2, 29, 82, 366, 82, 97, 58, 
29, 14, -14, -21, 21, 0, 29, 82, 366, 82, 97, 58, 
29, 14, -14, -21, 21, 0, 29, 82, 370, 82, 97, 53, 
29, 14, -14, -21, 21, 0, 24, 82, 370, 82, 97, 48, 
29, 14, -14, -21, 21, 0, 24, 87, 370, 82, 102, 43, 
29, 19, -9, -24, 19, 4, 24, 92, 380, 87, 102, 39, 
29, 19, -9, -24, 19, 4, 24, 92, 380, 87, 107, 39, 
34, 19, -14, -26, 24, 2, 24, 92, 380, 87, 107, 39, 
34, 24, -9, -29, 21, 7, 19, 92, 385, 87, 107, 39, 
39, 19, -19, -29, 29, 0, 19, 92, 385, 92, 112, 39, 
39, 14, -24, -26, 31, -4, 19, 92, 385, 92, 112, 39, 
39, 19, -19, -29, 29, 0, 19, 92, 390, 97, 117, 39, 
43, 19, -24, -31, 34, -2, 14, 92, 390, 92, 117, 43, 
48, 24, -24, -36, 36, 0, 9, 92, 390, 92, 122, 48, 
53, 29, -24, -41, 39, 2, 9, 92, 400, 97, 117, 48, 
53, 34, -19, -43, 36, 7, 9, 92, 405, 107, 122, 53, 
53, 39, -14, -46, 34, 12, 9, 92, 409, 107, 126, 58, 
63, 43, -19, -53, 41, 12, 0, 92, 414, 107, 131, 58, 
63, 48, -14, -56, 39, 17, -4, 92, 419, 112, 136, 63, 
68, 63, -4, -65, 36, 29, -9, 92, 424, 117, 141, 68, 
73, 73, 0, -73, 36, 36, -14, 92, 429, 122, 146, 73, 
68, 82, 14, -75, 26, 48, -19, 92, 439, 126, 151, 78, 
78, 97, 19, -87, 29, 58, -29, 92, 448, 131, 161, 92, 
82, 112, 29, -97, 26, 70, -39, 87, 458, 146, 170, 97, 
92, 131, 39, -112, 26, 85, -43, 87, 468, 156, 180, 112, 
107, 146, 39, -126, 34, 92, -48, 87, 478, 170, 190, 122, 
122, 175, 53, -148, 34, 114, -63, 78, 488, 180, 204, 141, 
131, 204, 73, -168, 29, 139, -73, 78, 497, 195, 224, 156, 
141, 229, 87, -185, 26, 158, -82, 73, 507, 214, 244, 175, 
161, 253, 92, -207, 34, 173, -102, 68, 522, 229, 268, 195, 
170, 283, 112, -226, 29, 197, -117, 58, 536, 248, 283, 214, 
180, 322, 141, -251, 19, 231, -131, 48, 551, 273, 312, 244, 
195, 366, 170, -280, 12, 268, -156, 43, 570, 297, 346, 268, 
219, 414, 195, -317, 12, 305, -175, 29, 595, 326, 375, 307, 
239, 453, 214, -346, 12, 334, -195, 19, 614, 356, 409, 336, 
248, 502, 253, -375, -2, 378, -224, 0, 634, 385, 448, 370, 
278, 556, 278, -417, 0, 417, -244, -4, 653, 414, 488, 405, 
287, 605, 317, -446, -14, 461, -268, -24, 683, 448, 522, 444, 
312, 658, 346, -485, -17, 502, -292, -39, 697, 478, 561, 473, 
326, 707, 380, -517, -26, 544, -322, -63, 717, 507, 605, 502, 
341, 756, 414, -549, -36, 585, -346, -78, 736, 541, 634, 536, 
356, 795, 439, -575, -41, 617, -370, -97, 756, 575, 663, 570, 
361, 829, 468, -595, -53, 649, -385, -117, 771, 595, 692, 595, 
361, 858, 497, -610, -68, 678, -400, -131, 785, 619, 717, 610, 
361, 883, 522, -622, -80, 702, -409, -146, 805, 634, 736, 629, 
361, 888, 527, -624, -82, 707, -414, -151, 814, 649, 741, 629, 
351, 888, 536, -619, -92, 712, -414, -161, 819, 649, 741, 629, 
326, 868, 541, -597, -107, 705, -409, -161, 819, 644, 736, 619, 
307, 829, 522, -568, -107, 675, -400, -156, 805, 629, 712, 590, 
283, 766, 483, -524, -100, 624, -375, -151, 785, 590, 668, 541, 
258, 702, 444, -480, -92, 573, -331, -141, 751, 536, 614, 492, 
224, 629, 405, -427, -90, 517, -302, -122, 707, 488, 561, 448, 
195, 546, 351, -370, -78, 448, -263, -92, 668, 434, 497, 395, 
165, 458, 292, -312, -63, 375, -229, -68, 624, 366, 429, 326, 
136, 370, 234, -253, -48, 302, -190, -48, 575, 297, 366, 273, 
107, 292, 185, -200, -39, 239, -151, -29, 517, 248, 307, 214, 
82, 224, 141, -153, -29, 183, -117, -4, 483, 195, 248, 165, 
58, 141, 82, -100, -12, 112, -78, 19, 448, 141, 185, 117, 
39, 82, 43, -61, -2, 63, -53, 39, 409, 97, 136, 73, 
24, 43, 19, -34, 2, 31, -34, 53, 380, 68, 107, 48, 
4, 0, -4, -2, 4, -2, -14, 68, 361, 39, 82, 24, 
0, -39, -39, 19, 19, -39, 4, 82, 341, 9, 43, -9, 
-9, -63, -53, 36, 21, -58, 14, 87, 317, -14, 24, -24, 
-19, -78, -58, 48, 19, -68, 29, 97, 297, -24, 14, -39, 
-29, -92, -63, 61, 17, -78, 34, 97, 292, -34, 0, -48, 
-34, -117, -82, 75, 24, -100, 43, 102, 287, -48, -19, -58, 
-39, -122, -82, 80, 21, -102, 43, 107, 273, -53, -24, -63, 
-39, -126, -87, 82, 24, -107, 48, 107, 268, -58, -29, -73, 
-39, -136, -97, 87, 29, -117, 53, 107, 263, -58, -24, -73, 
-39, -141, -102, 90, 31, -122, 53, 107, 258, -63, -24, -78, 
-39, -146, -107, 92, 34, -126, 53, 112, 258, -63, -29, -78, 
-39, -146, -107, 92, 34, -126, 53, 117, 258, -63, -34, -78, 
-39, -141, -102, 90, 31, -122, 48, 117, 253, -68, -34, -78, 
-43, -141, -97, 92, 26, -119, 48, 117, 253, -68, -34, -78, 
-43, -141, -97, 92, 26, -119, 48, 117, 253, -68, -34, -78, 
-43, -141, -97, 92, 26, -119, 48, 122, 253, -68, -34, -78, 
-39, -141, -102, 90, 31, -122, 48, 122, 258, -68, -34, -78, 
-39, -136, -97, 87, 29, -117, 48, 122, 258, -68, -34, -82, 
-34, -136, -102, 85, 34, -119, 48, 122, 253, -63, -39, -82, 
-34, -136, -102, 85, 34, -119, 48, 122, 248, -58, -39, -82, 
-34, -136, -102, 85, 34, -119, 43, 117, 248, -58, -39, -78, 
-34, -131, -97, 82, 31, -114, 43, 112, 248, -58, -39, -73, 
-34, -126, -92, 80, 29, -109, 43, 112, 253, -53, -34, -68, 
-34, -122, -87, 78, 26, -104, 43, 112, 258, -53, -24, -63, 
-29, -117, -87, 73, 29, -102, 43, 112, 258, -53, -24, -63, 
-29, -112, -82, 70, 26, -97, 43, 112, 258, -48, -24, -63, 
-29, -112, -82, 70, 26, -97, 43, 112, 263, -48, -19, -58, 
-29, -107, -78, 68, 24, -92, 39, 112, 263, -43, -19, -58, 
-24, -107, -82, 65, 29, -95, 34, 112, 263, -43, -14, -53, 
-24, -102, -78, 63, 26, -90, 29, 112, 268, -39, -14, -53, 
-24, -97, -73, 61, 24, -85, 29, 112, 263, -39, -14, -48, 
-19, -87, -68, 53, 24, -78, 29, 107, 258, -39, -9, -39, 
-19, -87, -68, 53, 24, -78, 29, 107, 263, -34, -4, -39, 
-19, -87, -68, 53, 24, -78, 29, 107, 263, -34, -4, -34, 
-19, -82, -63, 51, 21, -73, 24, 107, 263, -29, -4, -29, 
-14, -78, -63, 46, 24, -70, 19, 102, 263, -29, -4, -24, 
-14, -78, -63, 46, 24, -70, 19, 102, 263, -29, 0, -24, 
-14, -73, -58, 43, 21, -65, 19, 102, 263, -24, 0, -24, 
-14, -73, -58, 43, 21, -65, 19, 102, 263, -19, 4, -24, 
-9, -73, -63, 41, 26, -68, 19, 102, 263, -14, 4, -24, 
-9, -68, -58, 39, 24, -63, 14, 102, 263, -14, 4, -19, 
-9, -68, -58, 39, 24, -63, 14, 102, 263, -14, 4, -14, 
-9, -68, -58, 39, 24, -63, 14, 102, 263, -14, 4, -14, 
-9, -68, -58, 39, 24, -63, 14, 97, 263, -14, 4, -14, 
-9, -68, -58, 39, 24, -63, 14, 97, 263, -14, 4, -14, 
-9, -68, -58, 39, 24, -63, 14, 97, 263, -14, 4, -19, 
-9, -68, -58, 39, 24, -63, 14, 97, 263, -14, 4, -14, 
-4, -68, -63, 36, 29, -65, 14, 97, 258, -19, 4, -14, 
-4, -68, -63, 36, 29, -65, 19, 97, 253, -19, 0, -14, 
-9, -68, -58, 39, 24, -63, 19, 97, 253, -19, 0, -14, 
-9, -63, -53, 36, 21, -58, 19, 97, 244, -19, 0, -19, 
-4, -63, -58, 34, 26, -61, 19, 97, 239, -19, 0, -19, 
-4, -68, -63, 36, 29, -65, 14, 97, 239, -19, 0, -24, 
-4, -73, -68, 39, 31, -70, 14, 97, 234, -19, 0, -24, 
-4, -73, -68, 39, 31, -70, 14, 97, 234, -19, -4, -24, 
-4, -73, -68, 39, 31, -70, 14, 97, 234, -19, -4, -24, 
-4, -73, -68, 39, 31, -70, 14, 97, 229, -19, -4, -24, 
-9, -73, -63, 41, 26, -68, 14, 97, 229, -19, -4, -24, 
-9, -78, -68, 43, 29, -73, 14, 97, 224, -19, -9, -24, 
-9, -78, -68, 43, 29, -73, 14, 97, 224, -19, -9, -24, 
-9, -78, -68, 43, 29, -73, 9, 97, 219, -19, -9, -24, 
-9, -78, -68, 43, 29, -73, 4, 97, 214, -19, -9, -24, 
-9, -73, -63, 41, 26, -68, 4, 92, 214, -19, -9, -24, 
-9, -73, -63, 41, 26, -68, 4, 87, 214, -14, -9, -24, 
-9, -73, -63, 41, 26, -68, 0, 87, 209, -14, -9, -24, 
-9, -68, -58, 39, 24, -63, 0, 87, 209, -14, -14, -24, 
-9, -68, -58, 39, 24, -63, 0, 87, 204, -19, -19, -24, 
-9, -68, -58, 39, 24, -63, 0, 87, 204, -24, -24, -24, 
-9, -68, -58, 39, 24, -63, -4, 87, 200, -19, -19, -24, 
-9, -63, -53, 36, 21, -58, -4, 87, 195, -19, -19, -24, 
-4, -68, -63, 36, 29, -65, 0, 87, 190, -19, -19, -19, 
-4, -68, -63, 36, 29, -65, 0, 87, 190, -14, -14, -19, 
-9, -68, -58, 39, 24, -63, 0, 87, 190, -14, -14, -19, 
-9, -68, -58, 39, 24, -63, 0, 82, 190, -14, -14, -19, 
-4, -63, -58, 34, 26, -61, -4, 82, 185, -14, -14, -19, 
-4, -58, -53, 31, 24, -56, -4, 82, 180, -14, -14, -19, 
-4, -58, -53, 31, 24, -56, -4, 78, 185, -9, -14, -19, 
4, -58, -63, 26, 34, -61, -4, 73, 190, -4, -14, -19, 
0, -53, -53, 26, 26, -53, 0, 73, 180, -9, -14, -14, 
0, -53, -53, 26, 26, -53, 0, 73, 175, -14, -14, -14, 
0, -53, -53, 26, 26, -53, 0, 73, 165, -14, -14, -14, 
0, -58, -58, 29, 29, -58, 0, 78, 156, -19, -19, -19, 
0, -58, -58, 29, 29, -58, 0, 78, 151, -19, -19, -19, 
0, -58, -58, 29, 29, -58, 0, 78, 146, -19, -19, -19, 
4, -58, -63, 26, 34, -61, 0, 82, 141, -19, -24, -19, 
14, -34, -48, 9, 31, -41, 0, 82, 146, -9, -19, -9, 
29, -14, -43, -7, 36, -29, -4, 82, 156, 0, -14, -4, 
48, 24, -24, -36, 36, 0, -14, 82, 170, 9, -4, 9, 
63, 34, -29, -48, 46, 2, -24, 82, 195, 34, 19, 24, 
68, 48, -19, -58, 43, 14, -39, 82, 200, 43, 29, 39, 
78, 58, -19, -68, 48, 19, -53, 82, 204, 53, 43, 43, 
82, 68, -14, -75, 48, 26, -58, 78, 209, 53, 48, 48, 
82, 78, -4, -80, 43, 36, -73, 68, 209, 58, 48, 53, 
82, 78, -4, -80, 43, 36, -78, 68, 200, 63, 48, 58, 
73, 53, -19, -63, 46, 17, -68, 58, 185, 48, 34, 48, 
68, 39, -29, -53, 48, 4, -63, 48, 165, 34, 19, 43, 
63, 34, -29, -48, 46, 2, -58, 43, 156, 19, 19, 39, 
58, 29, -29, -43, 43, 0, -53, 43, 141, 14, 14, 34, 
48, 19, -29, -34, 39, -4, -48, 43, 141, 9, 9, 34, 
43, 14, -29, -29, 36, -7, -43, 43, 141, 9, 4, 34, 
34, 14, -19, -24, 26, -2, -39, 39, 141, 9, 9, 34, 
4, 9, 4, -7, 0, 7, -34, 24, 131, 4, 4, 24, 
-14, -14, 0, 14, -7, -7, -24, 24, 126, 0, 0, 19, 
-24, -39, -14, 31, -4, -26, -9, 24, 122, -4, -9, 14, 
-24, -43, -19, 34, -2, -31, -9, 24, 107, -14, -24, 9, 
-29, -43, -14, 36, -7, -29, -4, 29, 107, -19, -29, 4, 
-24, -43, -19, 34, -2, -31, -4, 24, 102, -24, -29, 4, 
-19, -43, -24, 31, 2, -34, -4, 19, 102, -24, -29, 4, 
-19, -43, -24, 31, 2, -34, -4, 19, 97, -19, -29, 0, 
-19, -43, -24, 31, 2, -34, -4, 19, 97, -19, -29, 0, 
-19, -43, -24, 31, 2, -34, -4, 19, 92, -19, -24, 0, 
-24, -39, -14, 31, -4, -26, -4, 14, 87, -19, -19, 0, 
-24, -39, -14, 31, -4, -26, -9, 9, 87, -19, -19, 4, 
-24, -39, -14, 31, -4, -26, -14, 4, 87, -19, -19, 4, 
-19, -34, -14, 26, -2, -24, -14, 4, 87, -19, -19, 4, 
-19, -29, -9, 24, -4, -19, -14, 9, 78, -19, -19, 4, 
-14, -29, -14, 21, 0, -21, -14, 4, 78, -14, -14, 9, 
-9, -24, -14, 17, 2, -19, -14, 0, 78, -14, -14, 9, 
-9, -19, -9, 14, 0, -14, -14, 0, 78, -14, -14, 14, 
-9, -19, -9, 14, 0, -14, -14, 0, 78, -9, -14, 14, 
-9, -14, -4, 12, -2, -9, -14, -4, 78, -9, -9, 19, 
-4, -14, -9, 9, 2, -12, -19, -9, 78, -9, -9, 19, 
-4, -4, 0, 4, -2, -2, -19, -9, 78, -9, -9, 19, 
-4, 0, 4, 2, -4, 2, -19, -9, 78, -9, -4, 19, 
4, 48, 43, -26, -19, 46, -48, -29, 92, 19, 29, 53, 
14, 48, 34, -31, -9, 41, -43, -24, 97, 29, 24, 48, 
