I, II, III, aVR, aVL, aVF, V1, V2, V3, V4, V5, V6, 
97, 263, 165, -180, -34, 214, -448, -878, -546, -390, -1259, -1229, 
87, 224, 136, -156, -24, 180, -419, -858, -575, -444, -1298, -1263, 
78, 185, 107, -131, -14, 146, -390, -839, -605, -497, -1337, -1298, 
78, 175, 97, -126, -9, 136, -380, -814, -639, -522, -1366, -1327, 
78, 165, 87, -122, -4, 126, -370, -790, -673, -546, -1395, -1356, 
73, 146, 73, -109, 0, 109, -346, -775, -688, -570, -1420, -1376, 
68, 126, 58, -97, 4, 92, -322, -761, -702, -595, -1444, -1395, 
63, 112, 48, -87, 7, 80, -297, -741, -722, -600, -1459, -1420, 
58, 97, 39, -78, 9, 68, -273, -722, -741, -605, -1473, -1444, 
53, 78, 24, -65, 14, 51, -244, -697, -756, -639, -1493, -1464, 
48, 58, 9, -53, 19, 34, -214, -673, -771, -673, -1512, -1483, 
48, 24, -24, -36, 36, 0, -190, -644, -800, -697, -1527, -1498, 
48, -9, -58, -19, 53, -34, -165, -614, -829, -722, -1542, -1512, 
43, -34, -78, -4, 61, -56, -126, -585, -844, -736, -1576, -1537, 
39, -58, -97, 9, 68, -78, -87, -556, -858, -751, -1610, -1561, 
24, -87, -112, 31, 68, -100, -39, -522, -878, -775, -1634, -1581, 
9, -117, -126, 53, 68, -122, 9, -488, -897, -800, -1659, -1600, 
4, -141, -146, 68, 75, -143, 43, -444, -917, -834, -1683, -1620, 
0, -165, -165, 82, 82, -165, 78, -400, -936, -868, -1708, -1639, 
0, -200, -200, 100, 100, -200, 122, -361, -961, -893, -1737, -1659, 
0, -234, -234, 117, 117, -234, 165, -322, -985, -917, -1766, -1678, 
-4, -263, -258, 134, 126, -261, 204, -273, -1005, -956, -1795, -1698, 
-9, -292, -283, 151, 136, -287, 244, -224, -1024, -995, -1825, -1717, 
-14, -331, -317, 173, 151, -324, 278, -180, -1054, -1024, -1859, -1732, 
-19, -370, -351, 195, 165, -361, 312, -136, -1083, -1054, -1893, -1747, 
-29, -400, -370, 214, 170, -385, 341, -97, -1098, -1093, -1917, -1771, 
-39, -429, -390, 234, 175, -409, 370, -58, -1112, -1132, -1942, -1795, 
-39, -453, -414, 246, 187, -434, 400, -19, -1127, -1151, -1966, -1815, 
-39, -478, -439, 258, 200, -458, 429, 19, -1141, -1171, -1991, -1834, 
-34, -488, -453, 261, 209, -470, 434, 48, -1146, -1190, -2005, -1849, 
-29, -497, -468, 263, 219, -483, 439, 78, -1151, -1210, -2020, -1864, 
-19, -497, -478, 258, 229, -488, 439, 97, -1161, -1229, -2039, -1873, 
-9, -497, -488, 253, 239, -492, 439, 117, -1171, -1249, -2059, -1883, 
14, -492, -507, 239, 261, -500, 429, 122, -1161, -1249, -2059, -1883, 
39, -488, -527, 224, 283, -507, 419, 126, -1151, -1249, -2059, -1883, 
63, -478, -541, 207, 302, -509, 380, 126, -1141, -1244, -2054, -1883, 
87, -468, -556, 190, 322, -512, 341, 126, -1132, -1239, -2049, -1883, 
107, -444, -551, 168, 329, -497, 302, 102, -1112, -1224, -2030, -1873, 
126, -419, -546, 146, 336, -483, 263, 78, -1093, -1210, -2010, -1864, 
146, -375, -522, 114, 334, -448, 214, 39, -1049, -1166, -1971, -1830, 
165, -331, -497, 82, 331, -414, 165, 0, -1005, -1122, -1932, -1795, 
175, -297, -473, 61, 324, -385, 112, -58, -976, -1073, -1888, -1761, 
185, -263, -448, 39, 317, -356, 58, -117, -946, -1024, -1844, -1727, 
195, -209, -405, 7, 300, -307, 0, -175, -912, -990, -1795, -1688, 
204, -156, -361, -24, 283, -258, -58, -234, -878, -956, -1747, -1649, 
204, -107, -312, -48, 258, -209, -122, -312, -844, -897, -1693, -1610, 
204, -58, -263, -73, 234, -161, -185, -390, -810, -839, -1639, -1571, 
214, 14, -200, -114, 207, -92, -239, -458, -771, -795, -1576, -1512, 
224, 87, -136, -156, 180, -24, -292, -527, -732, -751, -1512, -1454, 
224, 131, -92, -178, 158, 19, -346, -600, -707, -697, -1464, -1420, 
224, 175, -48, -200, 136, 63, -400, -673, -683, -644, -1415, -1385, 
224, 239, 14, -231, 104, 126, -444, -732, -653, -610, -1361, -1342, 
224, 302, 78, -263, 73, 190, -488, -790, -624, -575, -1307, -1298, 
229, 346, 117, -287, 56, 231, -527, -849, -600, -541, -1288, -1278, 
234, 390, 156, -312, 39, 273, -566, -907, -575, -507, -1268, -1259, 
234, 439, 204, -336, 14, 322, -595, -946, -556, -483, -1239, -1244, 
234, 488, 253, -361, -9, 370, -624, -985, -536, -458, -1210, -1229, 
229, 507, 278, -368, -24, 392, -639, -1015, -517, -429, -1190, -1220, 
224, 527, 302, -375, -39, 414, -653, -1044, -497, -400, -1171, -1210, 
224, 546, 322, -385, -48, 434, -663, -1063, -483, -395, -1151, -1195, 
224, 566, 341, -395, -58, 453, -673, -1083, -468, -390, -1132, -1180, 
224, 585, 361, -405, -68, 473, -683, -1093, -444, -370, -1117, -1171, 
224, 605, 380, -414, -78, 492, -692, -1102, -419, -351, -1102, -1161, 
234, 629, 395, -431, -80, 512, -692, -1102, -395, -336, -1083, -1146, 
244, 653, 409, -448, -82, 531, -692, -1102, -370, -322, -1063, -1132, 
253, 673, 419, -463, -82, 546, -692, -1102, -356, -312, -1058, -1132, 
263, 692, 429, -478, -82, 561, -692, -1102, -341, -302, -1054, -1132, 
268, 697, 429, -483, -80, 563, -692, -1102, -326, -297, -1049, -1132, 
273, 702, 429, -488, -78, 566, -692, -1102, -312, -292, -1044, -1132, 
283, 702, 419, -492, -68, 561, -692, -1102, -302, -287, -1039, -1132, 
292, 702, 409, -497, -58, 556, -692, -1102, -292, -283, -1034, -1132, 
297, 712, 414, -505, -58, 563, -732, -1112, -283, -283, -1029, -1132, 
302, 722, 419, -512, -58, 570, -771, -1122, -273, -283, -1024, -1132, 
307, 727, 419, -517, -56, 573, -790, -1132, -273, -283, -1024, -1132, 
312, 732, 419, -522, -53, 575, -810, -1141, -273, -283, -1024, -1132, 
326, 736, 409, -531, -41, 573, -810, -1132, -268, -283, -1019, -1132, 
341, 741, 400, -541, -29, 570, -810, -1122, -263, -283, -1015, -1132, 
366, 741, 375, -553, -4, 558, -805, -1098, -248, -283, -1015, -1137, 
390, 741, 351, -566, 19, 546, -800, -1073, -234, -283, -1015, -1141, 
400, 741, 341, -570, 29, 541, -785, -1063, -224, -287, -1015, -1146, 
409, 741, 331, -575, 39, 536, -771, -1054, -214, -292, -1015, -1151, 
419, 741, 322, -580, 48, 531, -771, -1049, -209, -292, -1015, -1156, 
429, 741, 312, -585, 58, 527, -771, -1044, -204, -292, -1015, -1161, 
419, 741, 322, -580, 48, 531, -766, -1044, -200, -292, -1024, -1171, 
409, 741, 331, -575, 39, 536, -761, -1044, -195, -292, -1034, -1180, 
375, 727, 351, -551, 12, 539, -741, -1049, -195, -317, -1044, -1195, 
341, 712, 370, -527, -14, 541, -722, -1054, -195, -341, -1054, -1210, 
341, 692, 351, -517, -4, 522, -722, -1058, -200, -351, -1068, -1229, 
336, 678, 341, -507, -2, 509, -717, -1058, -200, -356, -1073, -1239, 
331, 668, 336, -500, -2, 502, -717, -1063, -204, -366, -1083, -1254, 
331, 673, 341, -502, -4, 507, -712, -1073, -204, -366, -1083, -1254, 
336, 673, 336, -505, 0, 505, -712, -1073, -200, -366, -1073, -1254, 
336, 673, 336, -505, 0, 505, -717, -1083, -195, -366, -1068, -1259, 
336, 678, 341, -507, -2, 509, -717, -1093, -190, -370, -1063, -1259, 
336, 688, 351, -512, -7, 519, -722, -1098, -185, -370, -1058, -1259, 
336, 697, 361, -517, -12, 529, -727, -1093, -180, -366, -1054, -1263, 
336, 702, 366, -519, -14, 534, -732, -1107, -175, -366, -1054, -1268, 
336, 707, 370, -522, -17, 539, -736, -1117, -170, -370, -1049, -1273, 
336, 717, 380, -527, -21, 549, -741, -1127, -165, -375, -1044, -1278, 
351, 727, 375, -539, -12, 551, -746, -1137, -170, -380, -1039, -1283, 
346, 732, 385, -539, -19, 558, -746, -1141, -175, -380, -1039, -1288, 
346, 751, 405, -549, -29, 578, -761, -1151, -175, -385, -1034, -1288, 
341, 761, 419, -551, -39, 590, -761, -1156, -170, -390, -1034, -1288, 
336, 766, 429, -551, -46, 597, -771, -1161, -165, -395, -1039, -1283, 
336, 771, 434, -553, -48, 602, -785, -1176, -175, -395, -1039, -1278, 
336, 775, 439, -556, -51, 607, -790, -1180, -175, -395, -1044, -1288, 
336, 795, 458, -566, -61, 627, -795, -1195, -190, -409, -1054, -1298, 
336, 814, 478, -575, -70, 646, -805, -1205, -190, -419, -1058, -1307, 
336, 834, 497, -585, -80, 666, -814, -1210, -190, -424, -1063, -1322, 
336, 849, 512, -592, -87, 680, -814, -1215, -200, -429, -1068, -1317, 
341, 854, 512, -597, -85, 683, -814, -1220, -204, -434, -1068, -1317, 
351, 868, 517, -610, -82, 692, -819, -1224, -204, -434, -1058, -1317, 
351, 878, 527, -614, -87, 702, -819, -1234, -204, -429, -1058, -1317, 
351, 888, 536, -619, -92, 712, -829, -1239, -209, -429, -1058, -1322, 
351, 897, 546, -624, -97, 722, -834, -1244, -209, -429, -1058, -1327, 
356, 902, 546, -629, -95, 724, -839, -1239, -209, -434, -1058, -1327, 
366, 907, 541, -636, -87, 724, -839, -1239, -214, -439, -1058, -1327, 
366, 917, 551, -641, -92, 734, -839, -1239, -214, -444, -1058, -1332, 
361, 922, 561, -641, -100, 741, -839, -1244, -214, -448, -1063, -1342, 
361, 922, 561, -641, -100, 741, -839, -1249, -209, -448, -1063, -1342, 
366, 922, 556, -644, -95, 739, -844, -1254, -204, -453, -1063, -1342, 
370, 917, 546, -644, -87, 732, -844, -1249, -204, -453, -1063, -1342, 
370, 917, 546, -644, -87, 732, -844, -1249, -200, -453, -1063, -1342, 
361, 912, 551, -636, -95, 732, -849, -1259, -195, -453, -1058, -1342, 
346, 902, 556, -624, -104, 729, -849, -1249, -190, -453, -1058, -1342, 
366, 897, 531, -631, -82, 714, -844, -1249, -185, -453, -1063, -1337, 
370, 888, 517, -629, -73, 702, -844, -1249, -180, -458, -1068, -1332, 
370, 883, 512, -627, -70, 697, -839, -1249, -175, -453, -1063, -1327, 
370, 878, 507, -624, -68, 692, -834, -1249, -175, -453, -1063, -1322, 
366, 873, 507, -619, -70, 690, -834, -1249, -161, -453, -1049, -1312, 
366, 873, 507, -619, -70, 690, -834, -1249, -151, -453, -1044, -1298, 
375, 878, 502, -627, -63, 690, -834, -1244, -151, -453, -1044, -1288, 
380, 893, 512, -636, -65, 702, -839, -1244, -161, -453, -1039, -1273, 
414, 912, 497, -663, -41, 705, -854, -1234, -141, -424, -1005, -1239, 
448, 971, 522, -710, -36, 746, -873, -1220, -87, -351, -927, -1180, 
512, 1132, 619, -822, -53, 875, -917, -1166, 117, -131, -790, -1093, 
600, 1332, 732, -966, -65, 1032, -956, -1083, 527, 170, -595, -971, 
756, 1610, 854, -1183, -48, 1232, -995, -907, 1005, 551, -326, -819, 
961, 1898, 936, -1429, 12, 1417, -1010, -595, 1600, 990, -58, -658, 
1190, 2137, 946, -1664, 122, 1542, -1010, -287, 2108, 1273, 126, -527, 
1381, 2239, 858, -1810, 261, 1549, -971, -4, 2200, 1307, 185, -458, 
1322, 2005, 683, -1664, 319, 1344, -844, 39, 1820, 941, 34, -536, 
1039, 1390, 351, -1215, 344, 871, -541, -136, 951, 151, -434, -761, 
590, 1093, 502, -841, 43, 797, -405, -927, 517, -239, -712, -922, 
244, 878, 634, -561, -195, 756, -375, -1556, -170, -663, -985, -1054, 
0, 697, 697, -348, -348, 697, -307, -1781, -629, -922, -1220, -1234, 
-102, 600, 702, -248, -402, 651, -204, -1590, -590, -966, -1381, -1434, 
-92, 531, 624, -219, -358, 578, -102, -1395, -566, -985, -1483, -1556, 
-82, 531, 614, -224, -348, 573, -53, -1288, -522, -976, -1488, -1590, 
-53, 566, 619, -256, -336, 592, 0, -1215, -463, -912, -1478, -1590, 
19, 619, 600, -319, -290, 610, 78, -1151, -463, -868, -1464, -1595, 
34, 649, 614, -341, -290, 631, 180, -1112, -497, -873, -1454, -1610, 
53, 663, 610, -358, -278, 636, 297, -1107, -488, -873, -1454, -1610, 
73, 707, 634, -390, -280, 671, 448, -1146, -478, -863, -1449, -1600, 
68, 751, 683, -409, -307, 717, 556, -1239, -478, -834, -1444, -1586, 
68, 766, 697, -417, -314, 732, 517, -1371, -478, -819, -1415, -1561, 
117, 795, 678, -456, -280, 736, 317, -1498, -468, -814, -1395, -1546, 
131, 814, 683, -473, -275, 749, 82, -1546, -458, -800, -1376, -1517, 
224, 858, 634, -541, -204, 746, -165, -1546, -439, -751, -1342, -1483, 
317, 941, 624, -629, -153, 783, -405, -1507, -390, -683, -1283, -1444, 
400, 1010, 610, -705, -104, 810, -614, -1415, -317, -634, -1249, -1415, 
458, 1083, 624, -771, -82, 854, -761, -1322, -253, -575, -1215, -1381, 
517, 1141, 624, -829, -53, 883, -849, -1307, -219, -541, -1185, -1371, 
556, 1166, 610, -861, -26, 888, -863, -1307, -204, -531, -1171, -1351, 
566, 1161, 595, -863, -14, 878, -873, -1298, -200, -531, -1176, -1351, 
566, 1166, 600, -866, -17, 883, -902, -1298, -200, -527, -1171, -1356, 
575, 1166, 590, -871, -7, 878, -941, -1302, -200, -527, -1176, -1356, 
580, 1161, 580, -871, 0, 871, -951, -1312, -200, -527, -1180, -1361, 
575, 1156, 580, -866, -2, 868, -966, -1327, -200, -531, -1190, -1371, 
580, 1161, 580, -871, 0, 871, -990, -1337, -204, -546, -1200, -1376, 
580, 1161, 580, -871, 0, 871, -1000, -1346, -209, -541, -1210, -1385, 
585, 1161, 575, -873, 4, 868, -1005, -1351, -204, -551, -1210, -1371, 
585, 1156, 570, -871, 7, 863, -1010, -1356, -204, -561, -1215, -1366, 
590, 1156, 566, -873, 12, 861, -1015, -1356, -180, -556, -1215, -1361, 
605, 1156, 551, -880, 26, 854, -1029, -1361, -180, -551, -1215, -1356, 
619, 1156, 536, -888, 41, 846, -1044, -1356, -170, -546, -1210, -1342, 
634, 1156, 522, -895, 56, 839, -1058, -1371, -170, -541, -1210, -1327, 
644, 1141, 497, -893, 73, 819, -1063, -1366, -151, -522, -1200, -1312, 
649, 1141, 492, -895, 78, 817, -1073, -1371, -131, -507, -1195, -1298, 
668, 1141, 473, -905, 97, 807, -1073, -1366, -97, -502, -1180, -1273, 
688, 1141, 453, -915, 117, 797, -1083, -1356, -73, -488, -1166, -1254, 
692, 1146, 453, -919, 119, 800, -1088, -1346, -53, -458, -1146, -1215, 
697, 1156, 458, -927, 119, 807, -1098, -1342, -39, -439, -1141, -1215, 
707, 1151, 444, -929, 131, 797, -1102, -1332, -19, -424, -1127, -1200, 
717, 1151, 434, -934, 141, 793, -1112, -1332, -4, -419, -1122, -1185, 
717, 1156, 439, -936, 139, 797, -1112, -1342, 24, -400, -1102, -1156, 
732, 1156, 424, -944, 153, 790, -1137, -1346, 43, -395, -1088, -1146, 
741, 1151, 409, -946, 165, 780, -1151, -1346, 58, -385, -1068, -1127, 
756, 1146, 390, -951, 183, 768, -1166, -1351, 78, -370, -1054, -1107, 
756, 1161, 405, -958, 175, 783, -1166, -1351, 92, -361, -1034, -1083, 
756, 1166, 409, -961, 173, 788, -1171, -1356, 117, -346, -1029, -1083, 
761, 1161, 400, -961, 180, 780, -1185, -1356, 131, -331, -1010, -1063, 
761, 1166, 405, -963, 178, 785, -1190, -1366, 146, -322, -1005, -1054, 
761, 1156, 395, -958, 183, 775, -1195, -1371, 151, -322, -995, -1044, 
751, 1161, 409, -956, 170, 785, -1195, -1376, 161, -317, -985, -1034, 
756, 1166, 409, -961, 173, 788, -1195, -1385, 165, -317, -976, -1034, 
756, 1166, 409, -961, 173, 788, -1195, -1395, 165, -312, -971, -1034, 
761, 1171, 409, -966, 175, 790, -1190, -1400, 165, -307, -971, -1039, 
766, 1180, 414, -973, 175, 797, -1185, -1405, 156, -307, -980, -1049, 
766, 1185, 419, -976, 173, 802, -1185, -1405, 141, -322, -985, -1058, 
766, 1190, 424, -978, 170, 807, -1180, -1420, 112, -356, -995, -1073, 
756, 1190, 434, -973, 161, 812, -1171, -1424, 87, -366, -1010, -1083, 
736, 1180, 444, -958, 146, 812, -1166, -1429, 73, -380, -1029, -1102, 
712, 1180, 468, -946, 122, 824, -1151, -1429, 58, -405, -1044, -1117, 
697, 1171, 473, -934, 112, 822, -1141, -1429, 24, -429, -1068, -1137, 
717, 1156, 439, -936, 139, 797, -1137, -1439, -4, -448, -1083, -1161, 
702, 1146, 444, -924, 129, 795, -1127, -1444, -24, -473, -1107, -1180, 
692, 1146, 453, -919, 119, 800, -1112, -1449, -24, -478, -1127, -1190, 
683, 1141, 458, -912, 112, 800, -1093, -1449, -39, -488, -1146, -1205, 
678, 1132, 453, -905, 112, 793, -1068, -1449, -58, -502, -1151, -1210, 
678, 1122, 444, -900, 117, 783, -1049, -1449, -68, -527, -1171, -1229, 
663, 1112, 448, -888, 107, 780, -1034, -1444, -78, -551, -1180, -1234, 
663, 1093, 429, -878, 117, 761, -1015, -1444, -87, -580, -1200, -1244, 
668, 1098, 429, -883, 119, 763, -1000, -1439, -112, -600, -1205, -1249, 
668, 1093, 424, -880, 122, 758, -990, -1439, -122, -590, -1210, -1249, 
683, 1093, 409, -888, 136, 751, -976, -1439, -131, -585, -1220, -1254, 
697, 1078, 380, -888, 158, 729, -976, -1439, -141, -590, -1229, -1259, 
702, 1093, 390, -897, 156, 741, -1010, -1459, -141, -610, -1234, -1259, 
707, 1093, 385, -900, 161, 739, -1024, -1459, -156, -624, -1234, -1254, 
707, 1088, 380, -897, 163, 734, -1044, -1473, -175, -619, -1234, -1244, 
712, 1088, 375, -900, 168, 732, -1068, -1493, -190, -634, -1239, -1234, 
727, 1088, 361, -907, 183, 724, -1083, -1503, -204, -634, -1244, -1229, 
732, 1098, 366, -915, 183, 732, -1083, -1507, -219, -634, -1244, -1224, 
756, 1107, 351, -932, 202, 729, -1083, -1503, -219, -634, -1239, -1210, 
790, 1127, 336, -958, 226, 732, -1083, -1498, -209, -634, -1239, -1205, 
790, 1132, 341, -961, 224, 736, -1063, -1488, -204, -634, -1234, -1180, 
790, 1137, 346, -963, 222, 741, -1049, -1483, -204, -634, -1234, -1176, 
810, 1137, 326, -973, 241, 732, -1039, -1468, -214, -634, -1234, -1176, 
814, 1117, 302, -966, 256, 710, -1024, -1459, -209, -639, -1234, -1176, 
805, 1093, 287, -949, 258, 690, -1005, -1449, -204, -634, -1239, -1185, 
800, 1073, 273, -936, 263, 673, -985, -1444, -204, -634, -1249, -1200, 
785, 1054, 268, -919, 258, 661, -971, -1444, -195, -634, -1249, -1200, 
771, 1034, 263, -902, 253, 649, -956, -1444, -185, -634, -1249, -1200, 
756, 1015, 258, -885, 248, 636, -946, -1444, -185, -639, -1268, -1210, 
741, 990, 248, -866, 246, 619, -936, -1439, -185, -644, -1278, -1224, 
727, 971, 244, -849, 241, 607, -932, -1439, -185, -653, -1293, -1239, 
722, 956, 234, -839, 244, 595, -927, -1444, -185, -658, -1298, -1254, 
722, 941, 219, -832, 251, 580, -922, -1434, -175, -658, -1293, -1244, 
717, 927, 209, -822, 253, 568, -922, -1434, -165, -658, -1293, -1239, 
722, 927, 204, -824, 258, 566, -922, -1434, -151, -658, -1293, -1234, 
727, 932, 204, -829, 261, 568, -927, -1429, -136, -653, -1293, -1229, 
727, 932, 204, -829, 261, 568, -922, -1415, -122, -644, -1288, -1229, 
727, 927, 200, -827, 263, 563, -917, -1420, -107, -639, -1288, -1229, 
722, 922, 200, -822, 261, 561, -917, -1415, -102, -639, -1288, -1224, 
717, 922, 204, -819, 256, 563, -917, -1410, -97, -639, -1288, -1220, 
736, 927, 190, -832, 273, 558, -912, -1415, -92, -644, -1278, -1220, 
736, 927, 190, -832, 273, 558, -902, -1415, -87, -644, -1273, -1220, 
736, 941, 204, -839, 265, 573, -917, -1420, -87, -649, -1268, -1220, 
732, 946, 214, -839, 258, 580, -917, -1420, -82, -653, -1268, -1220, 
727, 951, 224, -839, 251, 588, -917, -1420, -82, -658, -1273, -1215, 
727, 956, 229, -841, 248, 592, -922, -1429, -97, -658, -1273, -1210, 
732, 961, 229, -846, 251, 595, -927, -1434, -97, -658, -1273, -1210, 
736, 980, 244, -858, 246, 612, -932, -1449, -112, -673, -1278, -1210, 
736, 985, 248, -861, 244, 617, -941, -1464, -122, -678, -1288, -1210, 
736, 990, 253, -863, 241, 622, -951, -1473, -131, -678, -1298, -1215, 
736, 1010, 273, -873, 231, 641, -956, -1483, -141, -678, -1307, -1210, 
741, 1019, 278, -880, 231, 649, -961, -1493, -146, -678, -1312, -1210, 
756, 1034, 278, -895, 239, 656, -966, -1493, -156, -683, -1307, -1210, 
761, 1044, 283, -902, 239, 663, -966, -1498, -165, -683, -1312, -1210, 
756, 1054, 297, -905, 229, 675, -976, -1503, -180, -683, -1312, -1205, 
751, 1063, 312, -907, 219, 688, -980, -1507, -190, -683, -1312, -1200, 
751, 1078, 326, -915, 212, 702, -990, -1512, -195, -683, -1317, -1200, 
756, 1093, 336, -924, 209, 714, -995, -1522, -204, -683, -1322, -1200, 
756, 1107, 351, -932, 202, 729, -1000, -1522, -214, -683, -1322, -1200, 
751, 1117, 366, -934, 192, 741, -1005, -1527, -224, -683, -1327, -1205, 
746, 1127, 380, -936, 183, 753, -1005, -1532, -229, -683, -1332, -1210, 
746, 1137, 390, -941, 178, 763, -1010, -1537, -234, -688, -1337, -1215, 
751, 1137, 385, -944, 183, 761, -1015, -1532, -244, -688, -1337, -1220, 
751, 1141, 390, -946, 180, 766, -1019, -1532, -248, -688, -1337, -1224, 
741, 1137, 395, -939, 173, 766, -1024, -1542, -253, -683, -1332, -1224, 
727, 1127, 400, -927, 163, 763, -1024, -1532, -258, -678, -1332, -1224, 
732, 1112, 380, -922, 175, 746, -1019, -1537, -258, -673, -1332, -1220, 
722, 1093, 370, -907, 175, 732, -1019, -1542, -258, -673, -1332, -1215, 
722, 1078, 356, -900, 183, 717, -1015, -1542, -253, -668, -1332, -1210, 
722, 1063, 341, -893, 190, 702, -1010, -1542, -253, -668, -1337, -1205, 
707, 1039, 331, -873, 187, 685, -1005, -1537, -239, -663, -1327, -1200, 
697, 1019, 322, -858, 187, 671, -1000, -1532, -229, -658, -1327, -1190, 
697, 990, 292, -844, 202, 641, -990, -1522, -219, -649, -1317, -1190, 
692, 971, 278, -832, 207, 624, -985, -1517, -219, -639, -1302, -1185, 
692, 917, 224, -805, 234, 570, -971, -1512, -273, -692, -1317, -1171, 
692, 902, 209, -797, 241, 556, -961, -1503, -292, -702, -1288, -1132, 
707, 941, 234, -824, 236, 588, -1005, -1503, -292, -610, -1229, -1078, 
746, 1019, 273, -883, 236, 646, -1044, -1473, -87, -434, -1112, -990, 
839, 1224, 385, -1032, 226, 805, -1107, -1415, 322, -78, -863, -839, 
980, 1439, 458, -1210, 261, 949, -1146, -1220, 849, 336, -614, -678, 
1259, 1873, 614, -1566, 322, 1244, -1195, -863, 1869, 1029, -214, -444, 
1498, 2171, 673, -1834, 412, 1422, -1205, -531, 2474, 1473, 58, -273, 
1786, 2200, 414, -1993, 685, 1307, -1127, 39, 2400, 1351, 87, -239, 
1849, 1849, 0, -1849, 924, 924, -873, 390, 1839, 805, -200, -351, 
1342, 1307, -34, -1324, 688, 636, -590, -478, 1249, 185, -580, -561, 
936, 849, -87, -893, 512, 380, -414, -1185, 405, -468, -956, -741, 
517, 644, 126, -580, 195, 385, -375, -1878, -370, -854, -1195, -834, 
239, 522, 283, -380, -21, 402, -302, -2156, -649, -1024, -1361, -946, 
214, 400, 185, -307, 14, 292, -165, -1873, -614, -1063, -1551, -1156, 
190, 346, 156, -268, 17, 251, -82, -1678, -561, -1073, -1644, -1278, 
180, 346, 165, -263, 7, 256, -63, -1581, -444, -1010, -1634, -1283, 
214, 366, 151, -290, 31, 258, -19, -1493, -385, -966, -1620, -1293, 
248, 380, 131, -314, 58, 256, 82, -1385, -448, -946, -1615, -1307, 
287, 380, 92, -334, 97, 236, 200, -1312, -468, -922, -1620, -1307, 
287, 385, 97, -336, 95, 241, 375, -1327, -463, -932, -1625, -1307, 
263, 390, 126, -326, 68, 258, 507, -1395, -468, -922, -1629, -1302, 
219, 395, 175, -307, 21, 285, 580, -1566, -497, -907, -1615, -1283, 
224, 414, 190, -319, 17, 302, 492, -1732, -517, -902, -1610, -1273, 
180, 400, 219, -290, -19, 309, 258, -1830, -527, -917, -1610, -1239, 
214, 409, 195, -312, 9, 302, 9, -1878, -527, -897, -1595, -1200, 
273, 478, 204, -375, 34, 341, -283, -1878, -492, -819, -1522, -1137, 
322, 531, 209, -427, 56, 370, -546, -1825, -434, -761, -1473, -1083, 
385, 600, 214, -492, 85, 407, -756, -1683, -351, -688, -1434, -1024, 
448, 653, 204, -551, 122, 429, -907, -1620, -297, -639, -1400, -990, 
488, 692, 204, -590, 141, 448, -941, -1620, -278, -610, -1376, -956, 
497, 702, 204, -600, 146, 453, -971, -1610, -268, -590, -1371, -941, 
541, 707, 165, -624, 187, 436, -1005, -1605, -263, -580, -1361, -941, 
595, 707, 112, -651, 241, 409, -1049, -1605, -258, -575, -1361, -936, 
639, 702, 63, -671, 287, 383, -1058, -1610, -263, -570, -1366, -941, 
673, 697, 24, -685, 324, 361, -1073, -1620, -268, -570, -1376, -951, 
732, 702, -29, -717, 380, 336, -1102, -1625, -278, -590, -1390, -956, 
785, 702, -82, -744, 434, 309, -1117, -1629, -287, -590, -1405, -966, 
790, 697, -92, -744, 441, 302, -1117, -1629, -283, -585, -1405, -951, 
790, 688, -102, -739, 446, 292, -1117, -1629, -283, -580, -1410, -946, 
780, 678, -102, -729, 441, 287, -1102, -1615, -244, -566, -1395, -936, 
780, 668, -112, -724, 446, 278, -1098, -1605, -229, -551, -1381, -927, 
771, 663, -107, -717, 439, 278, -1088, -1576, -200, -531, -1361, -917, 
761, 658, -102, -710, 431, 278, -1078, -1566, -180, -512, -1346, -907, 
746, 639, -107, -692, 427, 265, -1073, -1551, -161, -492, -1332, -893, 
727, 634, -92, -680, 409, 270, -1073, -1546, -141, -478, -1322, -878, 
732, 619, -112, -675, 422, 253, -1073, -1537, -107, -473, -1312, -868, 
736, 605, -131, -671, 434, 236, -1083, -1522, -82, -458, -1302, -863, 
756, 600, -156, -678, 456, 222, -1088, -1522, -68, -448, -1288, -844, 
775, 600, -175, -688, 475, 212, -1098, -1527, -58, -448, -1288, -863, 
795, 595, -200, -695, 497, 197, -1112, -1527, -43, -448, -1283, -868, 
814, 595, -219, -705, 517, 187, -1132, -1537, -34, -458, -1288, -873, 
829, 600, -229, -714, 529, 185, -1146, -1556, -4, -444, -1278, -858, 
858, 600, -258, -729, 558, 170, -1185, -1571, 14, -444, -1273, -863, 
873, 605, -268, -739, 570, 168, -1200, -1576, 24, -444, -1268, -854, 
893, 610, -283, -751, 588, 163, -1215, -1586, 39, -439, -1268, -844, 
893, 644, -248, -768, 570, 197, -1220, -1590, 34, -444, -1254, -819, 
893, 668, -224, -780, 558, 222, -1229, -1600, 39, -444, -1254, -819, 
893, 673, -219, -783, 556, 226, -1244, -1605, 48, -429, -1234, -795, 
888, 688, -200, -788, 544, 244, -1249, -1620, 58, -419, -1229, -780, 
897, 692, -204, -795, 551, 244, -1259, -1625, 58, -419, -1224, -766, 
897, 712, -185, -805, 541, 263, -1263, -1629, 63, -414, -1220, -751, 
902, 732, -170, -817, 536, 280, -1263, -1634, 63, -414, -1210, -732, 
902, 746, -156, -824, 529, 295, -1263, -1639, 58, -409, -1205, -712, 
902, 741, -161, -822, 531, 290, -1263, -1649, 63, -400, -1195, -692, 
902, 741, -161, -822, 531, 290, -1263, -1659, 58, -395, -1195, -678, 
902, 741, -161, -822, 531, 290, -1268, -1659, 58, -385, -1190, -663, 
902, 741, -161, -822, 531, 290, -1268, -1673, 43, -395, -1190, -653, 
907, 741, -165, -824, 536, 287, -1263, -1678, 24, -400, -1190, -644, 
902, 732, -170, -817, 536, 280, -1263, -1683, 14, -409, -1195, -644, 
883, 727, -156, -805, 519, 285, -1254, -1683, 9, -419, -1200, -644, 
873, 712, -161, -793, 517, 275, -1249, -1683, -14, -429, -1215, -649, 
907, 697, -209, -802, 558, 244, -1244, -1688, -39, -444, -1224, -658, 
907, 688, -219, -797, 563, 234, -1234, -1688, -53, -463, -1244, -663, 
907, 683, -224, -795, 566, 229, -1224, -1688, -58, -468, -1254, -668, 
907, 673, -234, -790, 570, 219, -1210, -1683, -78, -478, -1263, -678, 
902, 658, -244, -780, 573, 207, -1195, -1688, -102, -488, -1268, -683, 
902, 644, -258, -773, 580, 192, -1185, -1693, -117, -507, -1288, -702, 
893, 639, -253, -766, 573, 192, -1176, -1693, -146, -522, -1298, -707, 
897, 624, -273, -761, 585, 175, -1161, -1698, -175, -541, -1317, -717, 
897, 634, -263, -766, 580, 185, -1146, -1698, -204, -566, -1327, -732, 
893, 634, -258, -763, 575, 187, -1137, -1703, -219, -561, -1337, -741, 
897, 644, -253, -771, 575, 195, -1107, -1703, -229, -551, -1342, -756, 
902, 639, -263, -771, 583, 187, -1093, -1703, -239, -551, -1346, -771, 
902, 653, -248, -778, 575, 202, -1098, -1708, -239, -570, -1351, -780, 
902, 653, -248, -778, 575, 202, -1083, -1693, -253, -585, -1351, -785, 
897, 653, -244, -775, 570, 204, -1073, -1693, -273, -566, -1356, -800, 
897, 658, -239, -778, 568, 209, -1068, -1698, -287, -566, -1366, -814, 
897, 658, -239, -778, 568, 209, -1083, -1708, -292, -566, -1376, -824, 
888, 668, -219, -778, 553, 224, -1083, -1712, -297, -566, -1381, -834, 
888, 663, -224, -775, 556, 219, -1122, -1727, -307, -566, -1376, -819, 
897, 668, -229, -783, 563, 219, -1161, -1742, -307, -566, -1376, -814, 
888, 668, -219, -778, 553, 224, -1176, -1751, -302, -566, -1366, -800, 
878, 668, -209, -773, 544, 229, -1195, -1766, -302, -566, -1361, -805, 
902, 668, -234, -785, 568, 217, -1185, -1751, -297, -556, -1356, -795, 
912, 653, -258, -783, 585, 197, -1180, -1751, -283, -551, -1351, -785, 
917, 653, -263, -785, 590, 195, -1166, -1722, -263, -546, -1342, -766, 
917, 639, -278, -778, 597, 180, -1156, -1698, -248, -541, -1337, -756, 
936, 595, -341, -766, 639, 126, -1141, -1688, -224, -536, -1317, -741, 
932, 570, -361, -751, 646, 104, -1122, -1673, -204, -531, -1317, -727, 
917, 541, -375, -729, 646, 82, -1093, -1659, -195, -502, -1312, -712, 
878, 512, -366, -695, 622, 73, -1078, -1644, -180, -536, -1322, -712, 
858, 483, -375, -671, 617, 53, -1068, -1644, -161, -536, -1312, -707, 
839, 458, -380, -649, 610, 39, -1063, -1649, -146, -536, -1307, -702, 
810, 419, -390, -614, 600, 14, -1049, -1649, -146, -536, -1322, -702, 
780, 380, -400, -580, 590, -9, -1034, -1649, -146, -536, -1337, -702, 
761, 366, -395, -563, 578, -14, -1034, -1649, -156, -551, -1356, -707, 
741, 351, -390, -546, 566, -19, -1029, -1649, -165, -561, -1366, -712, 
727, 336, -390, -531, 558, -26, -1029, -1649, -175, -570, -1376, -717, 
722, 331, -390, -527, 556, -29, -1024, -1659, -185, -570, -1376, -717, 
717, 331, -385, -524, 551, -26, -1024, -1654, -185, -570, -1371, -707, 
707, 331, -375, -519, 541, -21, -1029, -1659, -185, -570, -1371, -702, 
707, 336, -370, -522, 539, -17, -1034, -1668, -195, -575, -1376, -702, 
707, 346, -361, -527, 534, -7, -1044, -1673, -204, -575, -1381, -702, 
707, 361, -346, -534, 527, 7, -1054, -1673, -214, -580, -1381, -707, 
707, 370, -336, -539, 522, 17, -1063, -1693, -224, -590, -1385, -712, 
702, 380, -322, -541, 512, 29, -1068, -1708, -244, -595, -1390, -712, 
697, 395, -302, -546, 500, 46, -1073, -1722, -263, -600, -1395, -712, 
717, 405, -312, -561, 514, 46, -1083, -1732, -273, -605, -1395, -712, 
717, 409, -307, -563, 512, 51, -1088, -1737, -283, -605, -1400, -712, 
727, 424, -302, -575, 514, 61, -1107, -1751, -297, -610, -1395, -707, 
732, 429, -302, -580, 517, 63, -1112, -1761, -307, -614, -1395, -702, 
727, 434, -292, -580, 509, 70, -1117, -1761, -307, -619, -1400, -697, 
727, 439, -287, -583, 507, 75, -1127, -1771, -322, -619, -1400, -692, 
727, 434, -292, -580, 509, 70, -1132, -1776, -322, -619, -1400, -702, 
727, 444, -283, -585, 505, 80, -1137, -1790, -336, -634, -1405, -712, 
727, 439, -287, -583, 507, 75, -1137, -1800, -336, -639, -1405, -707, 
727, 434, -292, -580, 509, 70, -1137, -1805, -336, -639, -1405, -707, 
732, 424, -307, -578, 519, 58, -1132, -1805, -336, -649, -1410, -707, 
741, 405, -336, -573, 539, 34, -1127, -1805, -331, -658, -1410, -712, 
746, 390, -356, -568, 551, 17, -1132, -1810, -331, -663, -1395, -722, 
741, 370, -370, -556, 556, 0, -1132, -1820, -331, -663, -1390, -732, 
741, 341, -400, -541, 570, -29, -1137, -1825, -336, -668, -1385, -736, 
741, 312, -429, -527, 585, -58, -1137, -1830, -336, -673, -1381, -741, 
741, 292, -448, -517, 595, -78, -1141, -1825, -331, -673, -1376, -741, 
746, 273, -473, -509, 610, -100, -1141, -1825, -331, -673, -1371, -741, 
761, 278, -483, -519, 622, -102, -1141, -1825, -326, -673, -1366, -736, 
771, 278, -492, -524, 631, -107, -1141, -1830, -322, -673, -1366, -736, 
771, 273, -497, -522, 634, -112, -1141, -1834, -322, -678, -1366, -736, 
775, 268, -507, -522, 641, -119, -1146, -1839, -322, -688, -1366, -736, 
766, 248, -517, -507, 641, -134, -1151, -1844, -326, -697, -1371, -732, 
751, 234, -517, -492, 634, -141, -1156, -1854, -326, -707, -1376, -727, 
751, 248, -502, -500, 627, -126, -1161, -1869, -326, -717, -1371, -727, 
746, 258, -488, -502, 617, -114, -1161, -1864, -326, -727, -1371, -727, 
775, 278, -497, -527, 636, -109, -1166, -1864, -326, -727, -1376, -727, 
790, 292, -497, -541, 644, -102, -1176, -1864, -326, -732, -1381, -727, 
775, 287, -488, -531, 631, -100, -1176, -1873, -322, -736, -1385, -727, 
761, 283, -478, -522, 619, -97, -1176, -1883, -322, -746, -1395, -727, 
727, 287, -439, -507, 583, -75, -1176, -1893, -312, -746, -1385, -722, 
697, 297, -400, -497, 549, -51, -1176, -1903, -307, -746, -1385, -712, 
697, 331, -366, -514, 531, -17, -1185, -1912, -307, -741, -1385, -702, 
692, 375, -317, -534, 505, 29, -1200, -1927, -317, -736, -1381, -688, 
688, 429, -258, -558, 473, 85, -1244, -1922, -292, -702, -1356, -668, 
683, 522, -161, -602, 422, 180, -1293, -1912, -234, -624, -1288, -624, 
751, 697, -53, -724, 402, 322, -1351, -1830, -9, -385, -1141, -507, 
844, 912, 68, -878, 387, 490, -1405, -1717, 419, -63, -936, -356, 
1015, 1180, 165, -1098, 424, 673, -1444, -1493, 878, 297, -688, -214, 
1234, 1459, 224, -1346, 505, 841, -1459, -1132, 1454, 717, -439, -63, 
1429, 1581, 151, -1505, 639, 866, -1410, -800, 1834, 888, -331, 14, 
1586, 1566, -19, -1576, 802, 773, -1322, -492, 1800, 810, -351, 29, 
1473, 1322, -151, -1398, 812, 585, -1151, -502, 1405, 400, -531, -73, 
1137, 697, -439, -917, 788, 129, -805, -732, 522, -434, -1029, -322, 
658, 400, -258, -529, 458, 70, -668, -1507, 161, -732, -1259, -463, 
283, 185, -97, -234, 190, 43, -639, -2122, -453, -1063, -1483, -575, 
87, 78, -9, -82, 48, 34, -570, -2298, -824, -1263, -1644, -683, 
34, 53, 19, -43, 7, 36, -468, -2059, -697, -1249, -1732, -810, 
39, -14, -53, -12, 46, -34, -370, -1883, -658, -1224, -1805, -917, 
43, -14, -58, -14, 51, -36, -326, -1795, -600, -1171, -1781, -936, 
43, -19, -63, -12, 53, -41, -273, -1722, -561, -1137, -1766, -936, 
87, -4, -92, -41, 90, -48, -195, -1659, -580, -1122, -1747, -941, 
92, 0, -92, -46, 92, -46, -82, -1629, -629, -1122, -1732, -946, 
102, -9, -112, -46, 107, -61, 43, -1634, -634, -1117, -1727, -936, 
87, -9, -97, -39, 92, -53, 161, -1693, -624, -1117, -1712, -922, 
48, -9, -58, -19, 53, -34, 234, -1805, -624, -1098, -1698, -902, 
39, 0, -39, -19, 39, -19, 151, -1947, -634, -1083, -1668, -878, 
78, 24, -53, -51, 65, -14, -92, -2083, -634, -1078, -1649, -863, 
117, 39, -78, -78, 97, -19, -356, -2122, -624, -1083, -1629, -814, 
234, 78, -156, -156, 195, -39, -634, -2113, -605, -1054, -1595, -761, 
331, 161, -170, -246, 251, -4, -863, -2078, -551, -990, -1537, -717, 
419, 229, -190, -324, 305, 19, -1063, -1991, -473, -946, -1503, -683, 
448, 263, -185, -356, 317, 39, -1176, -1898, -419, -893, -1468, -629, 
478, 283, -195, -380, 336, 43, -1229, -1883, -395, -863, -1439, -600, 
512, 317, -195, -414, 353, 61, -1239, -1883, -375, -854, -1420, -575, 
517, 322, -195, -419, 356, 63, -1244, -1873, -366, -854, -1420, -570, 
531, 331, -200, -431, 366, 65, -1259, -1859, -351, -844, -1405, -546, 
556, 336, -219, -446, 387, 58, -1283, -1849, -336, -839, -1400, -517, 
580, 336, -244, -458, 412, 46, -1273, -1830, -307, -824, -1371, -497, 
595, 336, -258, -466, 427, 39, -1268, -1815, -278, -814, -1346, -483, 
590, 341, -248, -466, 419, 46, -1268, -1800, -248, -800, -1327, -453, 
580, 341, -239, -461, 409, 51, -1254, -1786, -219, -766, -1307, -429, 
585, 336, -248, -461, 417, 43, -1244, -1766, -190, -751, -1273, -405, 
585, 326, -258, -456, 422, 34, -1234, -1747, -165, -736, -1244, -390, 
614, 312, -302, -463, 458, 4, -1220, -1727, -122, -717, -1229, -375, 
653, 297, -356, -475, 505, -29, -1215, -1712, -102, -697, -1215, -361, 
649, 287, -361, -468, 505, -36, -1215, -1688, -68, -678, -1190, -341, 
644, 278, -366, -461, 505, -43, -1215, -1683, -43, -658, -1171, -322, 
649, 263, -385, -456, 517, -61, -1205, -1668, -34, -644, -1151, -307, 
649, 263, -385, -456, 517, -61, -1200, -1664, -24, -634, -1137, -292, 
653, 258, -395, -456, 524, -68, -1200, -1659, 9, -634, -1122, -283, 
658, 253, -405, -456, 531, -75, -1210, -1649, 34, -624, -1107, -278, 
658, 258, -400, -458, 529, -70, -1215, -1654, 48, -600, -1088, -253, 
658, 268, -390, -463, 524, -61, -1224, -1664, 58, -585, -1083, -268, 
663, 278, -385, -470, 524, -53, -1244, -1659, 68, -580, -1068, -273, 
668, 292, -375, -480, 522, -41, -1268, -1664, 73, -585, -1063, -278, 
658, 307, -351, -483, 505, -21, -1268, -1668, 97, -566, -1049, -258, 
663, 317, -346, -490, 505, -14, -1293, -1668, 112, -561, -1039, -258, 
668, 331, -336, -500, 502, -2, -1312, -1673, 122, -561, -1029, -263, 
678, 346, -331, -512, 505, 7, -1332, -1683, 136, -556, -1024, -268, 
673, 385, -287, -529, 480, 48, -1351, -1688, 136, -556, -1015, -258, 
668, 414, -253, -541, 461, 80, -1376, -1698, 146, -551, -1019, -273, 
658, 439, -219, -549, 439, 109, -1395, -1703, 151, -546, -1000, -268, 
644, 473, -170, -558, 407, 151, -1405, -1717, 156, -546, -995, -273, 
649, 492, -156, -570, 402, 168, -1424, -1727, 151, -551, -995, -268, 
644, 527, -117, -585, 380, 204, -1439, -1737, 151, -551, -995, -263, 
644, 556, -87, -600, 366, 234, -1454, -1747, 151, -561, -1000, -278, 
639, 580, -58, -610, 348, 261, -1468, -1756, 146, -566, -1010, -292, 
634, 610, -24, -622, 329, 292, -1473, -1756, 141, -561, -1005, -297, 
629, 644, 14, -636, 307, 329, -1478, -1756, 126, -561, -1010, -307, 
624, 653, 29, -639, 297, 341, -1478, -1756, 122, -570, -1015, -312, 
619, 663, 43, -641, 287, 353, -1473, -1771, 102, -600, -1024, -322, 
614, 658, 43, -636, 285, 351, -1468, -1771, 82, -610, -1034, -322, 
600, 644, 43, -622, 278, 344, -1468, -1771, 73, -624, -1049, -331, 
575, 634, 58, -605, 258, 346, -1454, -1766, 68, -639, -1049, -336, 
561, 614, 53, -588, 253, 334, -1444, -1761, 43, -653, -1058, -346, 
575, 585, 9, -580, 283, 297, -1429, -1761, 24, -668, -1063, -366, 
556, 561, 4, -558, 275, 283, -1410, -1756, 14, -688, -1078, -380, 
536, 551, 14, -544, 261, 283, -1395, -1756, 19, -692, -1088, -385, 
517, 536, 19, -527, 248, 278, -1376, -1751, 9, -702, -1098, -395, 
507, 522, 14, -514, 246, 268, -1351, -1747, -4, -702, -1098, -400, 
502, 507, 4, -505, 248, 256, -1332, -1742, -9, -712, -1112, -419, 
488, 492, 4, -490, 241, 248, -1312, -1737, -29, -727, -1112, -419, 
488, 468, -19, -478, 253, 224, -1288, -1737, -48, -746, -1122, -424, 
473, 468, -4, -470, 239, 231, -1273, -1727, -63, -761, -1127, -429, 
453, 458, 4, -456, 224, 231, -1263, -1722, -63, -746, -1132, -429, 
439, 444, 4, -441, 217, 224, -1249, -1717, -82, -746, -1141, -444, 
424, 414, -9, -419, 217, 202, -1249, -1712, -102, -756, -1151, -458, 
424, 429, 4, -427, 209, 217, -1259, -1732, -102, -775, -1156, -463, 
424, 429, 4, -427, 209, 217, -1249, -1732, -117, -790, -1156, -463, 
414, 434, 19, -424, 197, 226, -1259, -1742, -131, -771, -1146, -463, 
409, 444, 34, -427, 187, 239, -1273, -1756, -141, -771, -1141, -463, 
400, 439, 39, -419, 180, 239, -1327, -1786, -156, -775, -1151, -463, 
380, 444, 63, -412, 158, 253, -1366, -1810, -170, -780, -1156, -463, 
366, 439, 73, -402, 146, 256, -1366, -1815, -185, -780, -1151, -448, 
361, 444, 82, -402, 139, 263, -1366, -1820, -190, -780, -1151, -444, 
361, 448, 87, -405, 136, 268, -1361, -1810, -185, -771, -1141, -434, 
361, 453, 92, -407, 134, 273, -1361, -1805, -185, -761, -1137, -444, 
380, 453, 73, -417, 153, 263, -1351, -1781, -190, -751, -1132, -448, 
385, 439, 53, -412, 165, 246, -1346, -1771, -185, -746, -1127, -453, 
375, 434, 58, -405, 158, 246, -1322, -1756, -180, -736, -1117, -453, 
361, 414, 53, -387, 153, 234, -1302, -1747, -180, -727, -1112, -463, 
366, 370, 4, -368, 180, 187, -1298, -1732, -165, -717, -1093, -463, 
346, 331, -14, -339, 180, 158, -1278, -1712, -151, -712, -1098, -463, 
326, 292, -34, -309, 180, 129, -1259, -1703, -136, -702, -1098, -468, 
312, 253, -58, -283, 185, 97, -1239, -1698, -126, -692, -1102, -478, 
283, 190, -92, -236, 187, 48, -1220, -1683, -126, -692, -1102, -492, 
253, 126, -126, -190, 190, 0, -1200, -1668, -126, -692, -1102, -507, 
248, 107, -141, -178, 195, -17, -1190, -1654, -122, -683, -1098, -507, 
239, 87, -151, -163, 195, -31, -1180, -1639, -107, -668, -1083, -502, 
234, 68, -165, -151, 200, -48, -1171, -1625, -97, -653, -1073, -502, 
234, 58, -175, -146, 204, -58, -1161, -1620, -78, -629, -1054, -492, 
234, 43, -190, -139, 212, -73, -1151, -1586, -68, -619, -1044, -488, 
229, 29, -200, -129, 214, -85, -1146, -1561, -58, -610, -1039, -488, 
229, 14, -214, -122, 222, -100, -1141, -1571, -48, -605, -1029, -483, 
229, 4, -224, -117, 226, -109, -1141, -1576, -39, -595, -1019, -478, 
229, 9, -219, -119, 224, -104, -1141, -1566, -39, -590, -1010, -478, 
229, 9, -219, -119, 224, -104, -1141, -1576, -39, -590, -1005, -478, 
219, 14, -204, -117, 212, -95, -1141, -1566, -34, -585, -1005, -478, 
209, 24, -185, -117, 197, -80, -1141, -1556, -29, -580, -1005, -478, 
219, 34, -185, -126, 202, -75, -1146, -1561, -34, -585, -1000, -478, 
209, 39, -170, -124, 190, -65, -1146, -1561, -39, -585, -1000, -478, 
204, 53, -151, -129, 178, -48, -1156, -1561, -39, -585, -990, -478, 
195, 58, -136, -126, 165, -39, -1151, -1556, -34, -585, -985, -478, 
180, 63, -117, -122, 148, -26, -1151, -1556, -24, -585, -985, -473, 
170, 68, -102, -119, 136, -17, -1156, -1566, -29, -580, -980, -468, 
161, 68, -92, -114, 126, -12, -1156, -1561, -14, -570, -976, -463, 
151, 82, -68, -117, 109, 7, -1156, -1566, -14, -575, -976, -458, 
146, 82, -63, -114, 104, 9, -1161, -1571, -14, -580, -976, -448, 
141, 82, -58, -112, 100, 12, -1166, -1571, -14, -580, -976, -444, 
131, 87, -43, -109, 87, 21, -1166, -1571, -14, -575, -980, -439, 
126, 82, -43, -104, 85, 19, -1166, -1571, -9, -570, -980, -439, 
112, 82, -29, -97, 70, 26, -1171, -1571, -9, -570, -976, -439, 
87, 78, -9, -82, 48, 34, -1171, -1576, -9, -566, -980, -439, 
82, 82, 0, -82, 41, 41, -1176, -1576, -14, -561, -976, -439, 
78, 87, 9, -82, 34, 48, -1176, -1576, -14, -556, -971, -439, 
78, 87, 9, -82, 34, 48, -1176, -1566, -14, -546, -966, -439, 
82, 87, 4, -85, 39, 46, -1171, -1561, -19, -536, -961, -439, 
73, 92, 19, -82, 26, 56, -1171, -1561, -24, -536, -956, -434, 
58, 92, 34, -75, 12, 63, -1171, -1566, -29, -536, -956, -434, 
48, 87, 39, -68, 4, 63, -1171, -1566, -29, -527, -951, -434, 
43, 82, 39, -63, 2, 61, -1176, -1566, -29, -522, -946, -434, 
48, 78, 29, -63, 9, 53, -1166, -1546, -19, -502, -932, -429, 
48, 78, 29, -63, 9, 53, -1156, -1532, -4, -483, -917, -424, 
34, 68, 34, -51, 0, 51, -1146, -1542, -4, -478, -912, -424, 
14, 53, 39, -34, -12, 46, -1132, -1532, -4, -473, -912, -424, 
19, 39, 19, -29, 0, 29, -1132, -1527, 0, -468, -907, -424, 
9, 19, 9, -14, 0, 14, -1137, -1522, 4, -468, -902, -424, 
4, 4, 0, -4, 2, 2, -1137, -1512, 9, -463, -897, -434, 
0, -9, -9, 4, 4, -9, -1137, -1503, 9, -463, -897, -444, 
-14, -19, -4, 17, -4, -12, -1132, -1503, 19, -458, -888, -439, 
-24, -24, 0, 24, -12, -12, -1127, -1503, 24, -453, -888, -429, 
-14, -19, -4, 17, -4, -12, -1127, -1493, 24, -453, -883, -429, 
-9, -4, 4, 7, -7, 0, -1132, -1488, 14, -453, -873, -424, 
4, 34, 29, -19, -12, 31, -1156, -1483, 63, -400, -829, -390, 
19, 112, 92, -65, -36, 102, -1185, -1473, 146, -302, -741, -331, 
97, 283, 185, -190, -43, 234, -1229, -1400, 400, -43, -575, -219, 
200, 492, 292, -346, -46, 392, -1268, -1298, 858, 297, -351, -73, 
375, 780, 405, -578, -14, 592, -1302, -1122, 1366, 678, -92, 68, 
600, 1078, 478, -839, 61, 778, -1312, -810, 1991, 1117, 165, 219, 
766, 1224, 458, -995, 153, 841, -1283, -541, 2376, 1317, 297, 312, 
893, 1234, 341, -1063, 275, 788, -1215, -297, 2347, 1268, 302, 341, 
839, 1024, 185, -932, 326, 605, -1054, -253, 1932, 858, 141, 263, 
561, 434, -126, -497, 344, 153, -717, -429, 1029, 24, -336, 39, 
112, 126, 14, -119, 48, 70, -595, -1132, 546, -356, -614, -141, 
-234, -97, 136, 165, -185, 19, -580, -1673, -190, -771, -888, -292, 
-400, -209, 190, 305, -295, -9, -502, -1859, -580, -1005, -1098, -439, 
-424, -239, 185, 331, -305, -26, -390, -1629, -473, -1024, -1234, -605, 
-405, -302, 102, 353, -253, -100, -292, -1454, -439, -1005, -1332, -727, 
-385, -297, 87, 341, -236, -104, -248, -1366, -385, -956, -1332, -761, 
-375, -263, 112, 319, -244, -75, -204, -1293, -331, -912, -1322, -771, 
-322, -209, 112, 265, -217, -48, -136, -1229, -336, -888, -1307, -785, 
-307, -175, 131, 241, -219, -21, -39, -1200, -380, -888, -1302, -810, 
-287, -156, 131, 222, -209, -12, 73, -1205, -380, -883, -1307, -819, 
-287, -126, 161, 207, -224, 17, 165, -1283, -380, -888, -1307, -829, 
-312, -97, 214, 204, -263, 58, 214, -1415, -390, -873, -1307, -834, 
-326, -58, 268, 192, -297, 104, 122, -1556, -400, -858, -1288, -819, 
-292, -4, 287, 148, -290, 141, -131, -1693, -400, -854, -1278, -814, 
-263, 34, 297, 114, -280, 165, -380, -1742, -390, -849, -1263, -795, 
-156, 97, 253, 29, -204, 175, -644, -1742, -370, -810, -1234, -771, 
-92, 195, 287, -51, -190, 241, -849, -1727, -326, -741, -1185, -741, 
-39, 278, 317, -119, -178, 297, -1024, -1659, -258, -692, -1161, -722, 
14, 346, 331, -180, -158, 339, -1156, -1581, -209, -653, -1137, -697, 
68, 400, 331, -234, -131, 366, -1229, -1581, -190, -639, -1117, -697, 
102, 439, 336, -270, -117, 387, -1239, -1581, -175, -629, -1102, -678, 
107, 448, 341, -278, -117, 395, -1244, -1571, -170, -629, -1107, -678, 
107, 463, 356, -285, -124, 409, -1263, -1566, -165, -619, -1102, -683, 
117, 473, 356, -295, -119, 414, -1293, -1566, -161, -614, -1107, -683, 
126, 473, 346, -300, -109, 409, -1293, -1551, -156, -605, -1098, -683, 
126, 473, 346, -300, -109, 409, -1298, -1542, -151, -600, -1093, -688, 
141, 478, 336, -309, -97, 407, -1312, -1532, -136, -600, -1093, -683, 
151, 478, 326, -314, -87, 402, -1312, -1522, -122, -580, -1093, -683, 
156, 478, 322, -317, -82, 400, -1312, -1512, -112, -575, -1083, -663, 
156, 473, 317, -314, -80, 395, -1312, -1503, -107, -570, -1078, -653, 
161, 453, 292, -307, -65, 373, -1307, -1488, -68, -541, -1068, -644, 
175, 434, 258, -305, -41, 346, -1312, -1478, -53, -512, -1058, -634, 
180, 414, 234, -297, -26, 324, -1307, -1449, -24, -488, -1039, -619, 
185, 395, 209, -290, -12, 302, -1302, -1439, -4, -463, -1024, -605, 
190, 346, 156, -268, 17, 251, -1293, -1410, 19, -444, -1005, -585, 
190, 312, 122, -251, 34, 217, -1288, -1390, 43, -429, -990, -566, 
195, 278, 82, -236, 56, 180, -1278, -1376, 82, -414, -966, -531, 
200, 244, 43, -222, 78, 143, -1278, -1356, 112, -390, -941, -502, 
204, 209, 4, -207, 100, 107, -1273, -1332, 141, -361, -917, -463, 
209, 180, -29, -195, 119, 75, -1273, -1312, 165, -341, -907, -463, 
214, 165, -48, -190, 131, 58, -1268, -1293, 190, -312, -883, -439, 
219, 156, -63, -187, 141, 46, -1268, -1283, 209, -292, -868, -414, 
219, 156, -63, -187, 141, 46, -1259, -1278, 244, -268, -849, -390, 
234, 151, -82, -192, 158, 34, -1273, -1268, 268, -258, -834, -385, 
244, 141, -102, -192, 173, 19, -1273, -1259, 283, -244, -819, -361, 
258, 131, -126, -195, 192, 2, -1273, -1254, 302, -224, -810, -336, 
278, 151, -126, -214, 202, 12, -1268, -1239, 307, -214, -790, -307, 
297, 161, -136, -229, 217, 12, -1268, -1229, 322, -200, -785, -302, 
302, 165, -136, -234, 219, 14, -1278, -1220, 331, -175, -766, -278, 
302, 180, -122, -241, 212, 29, -1278, -1220, 341, -156, -761, -263, 
317, 185, -131, -251, 224, 26, -1283, -1215, 341, -156, -751, -253, 
322, 204, -117, -263, 219, 43, -1283, -1210, 346, -151, -741, -244, 
336, 214, -122, -275, 229, 46, -1278, -1200, 356, -141, -727, -229, 
346, 219, -126, -283, 236, 46, -1273, -1190, 361, -126, -717, -214, 
361, 229, -131, -295, 246, 48, -1259, -1185, 366, -112, -707, -219, 
375, 244, -131, -309, 253, 56, -1244, -1180, 361, -102, -707, -229, 
390, 263, -126, -326, 258, 68, -1239, -1166, 356, -97, -702, -229, 
405, 283, -122, -344, 263, 80, -1229, -1166, 336, -112, -702, -234, 
409, 292, -117, -351, 263, 87, -1224, -1166, 312, -122, -712, -244, 
405, 292, -112, -348, 258, 90, -1224, -1166, 297, -136, -727, -263, 
380, 312, -68, -346, 224, 122, -1215, -1166, 283, -161, -741, -283, 
366, 322, -43, -344, 204, 139, -1210, -1166, 248, -185, -766, -307, 
385, 322, -63, -353, 224, 129, -1205, -1166, 224, -200, -785, -326, 
370, 326, -43, -348, 207, 141, -1195, -1161, 209, -219, -814, -341, 
361, 326, -34, -344, 197, 146, -1190, -1161, 200, -224, -824, -346, 
351, 322, -29, -336, 190, 146, -1180, -1156, 175, -234, -834, -356, 
331, 307, -24, -319, 178, 141, -1161, -1156, 161, -244, -839, -356, 
317, 292, -24, -305, 170, 134, -1146, -1156, 156, -263, -858, -370, 
312, 283, -29, -297, 170, 126, -1127, -1151, 136, -278, -868, -375, 
322, 263, -58, -292, 190, 102, -1102, -1151, 117, -297, -888, -385, 
312, 263, -48, -287, 180, 107, -1088, -1141, 102, -317, -897, -400, 
297, 253, -43, -275, 170, 104, -1078, -1137, 102, -307, -907, -409, 
297, 253, -43, -275, 170, 104, -1063, -1127, 82, -302, -917, -424, 
297, 239, -58, -268, 178, 90, -1063, -1117, 63, -307, -927, -439, 
302, 253, -48, -278, 175, 102, -1083, -1137, 63, -331, -932, -448, 
307, 253, -53, -280, 180, 100, -1083, -1137, 48, -351, -932, -453, 
307, 253, -53, -280, 180, 100, -1098, -1146, 34, -331, -932, -453, 
312, 258, -53, -285, 183, 102, -1117, -1161, 24, -331, -936, -453, 
326, 253, -73, -290, 200, 90, -1146, -1171, 19, -331, -936, -448, 
331, 258, -73, -295, 202, 92, -1161, -1176, 14, -331, -932, -444, 
346, 253, -92, -300, 219, 80, -1161, -1171, 4, -326, -927, -429, 
370, 258, -112, -314, 241, 73, -1161, -1166, 4, -322, -927, -424, 
380, 258, -122, -319, 251, 68, -1146, -1141, 19, -317, -912, -395, 
390, 258, -131, -324, 261, 63, -1137, -1122, 29, -312, -902, -385, 
405, 253, -151, -329, 278, 51, -1122, -1088, 29, -297, -897, -385, 
405, 234, -170, -319, 287, 31, -1112, -1068, 39, -287, -893, -385, 
409, 239, -170, -324, 290, 34, -1098, -1054, 48, -283, -888, -380, 
419, 204, -214, -312, 317, -4, -1078, -1044, 58, -283, -888, -385, 
409, 190, -219, -300, 314, -14, -1073, -1034, 63, -278, -888, -390, 
400, 180, -219, -290, 309, -19, -1068, -1024, 73, -278, -888, -395, 
380, 161, -219, -270, 300, -29, -1054, -1019, 73, -278, -902, -419, 
361, 146, -214, -253, 287, -34, -1044, -1015, 78, -283, -917, -448, 
361, 136, -224, -248, 292, -43, -1029, -1010, 68, -297, -932, -468, 
361, 126, -234, -244, 297, -53, -1015, -1005, 58, -312, -946, -488, 
361, 136, -224, -248, 292, -43, -1015, -990, 58, -312, -946, -492, 
361, 141, -219, -251, 290, -39, -1005, -980, 58, -307, -941, -497, 
366, 146, -219, -256, 292, -36, -1000, -971, 58, -307, -941, -502, 
380, 156, -224, -268, 302, -34, -995, -956, 68, -297, -932, -502, 
385, 156, -229, -270, 307, -36, -995, -946, 73, -287, -932, -507, 
390, 161, -229, -275, 309, -34, -990, -936, 73, -283, -932, -507, 
395, 165, -229, -280, 312, -31, -995, -927, 78, -283, -927, -507, 
395, 170, -224, -283, 309, -26, -995, -912, 78, -278, -917, -507, 
385, 165, -219, -275, 302, -26, -995, -917, 78, -273, -917, -507, 
375, 165, -209, -270, 292, -21, -995, -912, 78, -268, -917, -507, 
366, 170, -195, -268, 280, -12, -990, -907, 73, -268, -917, -512, 
375, 170, -204, -273, 290, -17, -990, -907, 63, -273, -912, -517, 
370, 165, -204, -268, 287, -19, -980, -907, 48, -273, -917, -522, 
366, 175, -190, -270, 278, -7, -985, -907, 39, -273, -917, -527, 
361, 175, -185, -268, 273, -4, -985, -902, 43, -273, -917, -536, 
356, 170, -185, -263, 270, -7, -985, -902, 43, -273, -922, -541, 
351, 165, -185, -258, 268, -9, -995, -907, 34, -268, -922, -541, 
341, 161, -180, -251, 261, -9, -1000, -902, 39, -268, -917, -546, 
336, 170, -165, -253, 251, 2, -1000, -902, 29, -278, -917, -556, 
336, 161, -175, -248, 256, -7, -1000, -897, 34, -278, -917, -561, 
331, 141, -190, -236, 261, -24, -1000, -897, 34, -273, -912, -566, 
326, 122, -204, -224, 265, -41, -1000, -897, 34, -268, -912, -566, 
326, 97, -229, -212, 278, -65, -995, -888, 39, -268, -907, -570, 
322, 82, -239, -202, 280, -78, -995, -878, 39, -268, -893, -575, 
312, 53, -258, -183, 285, -102, -980, -878, 39, -263, -893, -575, 
307, 29, -278, -168, 292, -124, -971, -873, 34, -263, -888, -575, 
302, 24, -278, -163, 290, -126, -971, -868, 34, -263, -883, -575, 
302, 19, -283, -161, 292, -131, -976, -858, 34, -263, -883, -575, 
307, 19, -287, -163, 297, -134, -980, -858, 24, -263, -883, -580, 
307, 24, -283, -165, 295, -129, -985, -858, 19, -263, -878, -580, 
302, 29, -273, -165, 287, -122, -990, -863, 9, -263, -883, -580, 
302, 34, -268, -168, 285, -117, -995, -863, 0, -263, -888, -580, 
307, 43, -263, -175, 285, -109, -1000, -863, -9, -268, -888, -580, 
312, 53, -258, -183, 285, -102, -1000, -858, -19, -268, -888, -580, 
312, 63, -248, -187, 280, -92, -995, -849, -14, -268, -888, -575, 
302, 68, -234, -185, 268, -82, -995, -849, -14, -268, -883, -570, 
283, 68, -214, -175, 248, -73, -990, -834, -14, -258, -883, -570, 
297, 73, -224, -185, 261, -75, -985, -829, -14, -248, -883, -570, 
302, 68, -234, -185, 268, -82, -990, -824, -14, -253, -888, -575, 
302, 63, -239, -183, 270, -87, -990, -819, -9, -253, -888, -580, 
307, 58, -248, -183, 278, -95, -995, -819, -14, -258, -893, -585, 
297, 53, -244, -175, 270, -95, -1000, -819, -9, -258, -888, -585, 
287, 53, -234, -170, 261, -90, -1000, -819, -9, -263, -888, -580, 
297, 58, -239, -178, 268, -90, -1000, -814, -14, -268, -888, -585, 
302, 87, -214, -195, 258, -63, -1000, -814, -34, -268, -888, -580, 
312, 117, -195, -214, 253, -39, -1005, -810, -43, -268, -878, -566, 
322, 170, -151, -246, 236, 9, -1019, -800, -19, -219, -819, -527, 
366, 302, -63, -334, 214, 119, -1063, -771, 151, -24, -697, -444, 
424, 473, 48, -448, 187, 261, -1102, -707, 527, 248, -507, -326, 
561, 751, 190, -656, 185, 470, -1141, -561, 1034, 644, -239, -175, 
775, 1044, 268, -910, 253, 656, -1161, -253, 1668, 1107, 19, -14, 
1000, 1327, 326, -1163, 336, 827, -1166, 63, 2327, 1527, 278, 136, 
1185, 1468, 283, -1327, 451, 875, -1137, 351, 2537, 1644, 385, 209, 
1244, 1249, 4, -1246, 619, 627, -995, 580, 2122, 1234, 224, 126, 
1029, 649, -380, -839, 705, 134, -644, 502, 1288, 453, -229, -78, 
551, 268, -283, -409, 417, -7, -468, -336, 732, -29, -527, -248, 
165, 4, -161, -85, 163, -78, -444, -971, -97, -536, -795, -370, 
-107, -102, 4, 104, -56, -48, -395, -1298, -580, -775, -1005, -478, 
-185, -180, 4, 183, -95, -87, -278, -1166, -580, -834, -1180, -668, 
-180, -268, -87, 224, -46, -178, -165, -946, -527, -849, -1302, -839, 
-170, -268, -97, 219, -36, -183, -122, -824, -453, -829, -1312, -888, 
-151, -234, -82, 192, -34, -158, -78, -736, -380, -775, -1302, -888, 
-92, -200, -107, 146, 7, -153, -9, -673, -385, -736, -1298, -893, 
-73, -204, -131, 139, 29, -168, 92, -624, -448, -741, -1298, -907, 
-53, -185, -131, 119, 39, -158, 209, -614, -453, -746, -1298, -907, 
-58, -165, -107, 112, 24, -136, 326, -658, -448, -746, -1293, -902, 
-97, -146, -48, 122, -24, -97, 419, -775, -448, -722, -1288, -893, 
-97, -122, -24, 109, -36, -73, 395, -941, -458, -712, -1259, -873, 
-58, -92, -34, 75, -12, -63, 170, -1083, -458, -707, -1239, -863, 
-58, -78, -19, 68, -19, -48, -82, -1137, -453, -692, -1224, -839, 
39, -48, -87, 4, 63, -68, -331, -1137, -434, -653, -1195, -805, 
122, 34, -87, -78, 104, -26, -561, -1117, -385, -585, -1137, -761, 
200, 122, -78, -161, 139, 21, -780, -1044, -317, -527, -1102, -732, 
268, 195, -73, -231, 170, 61, -946, -951, -253, -483, -1068, -692, 
322, 234, -87, -278, 204, 73, -1034, -936, -224, -453, -1039, -683, 
356, 268, -87, -312, 222, 90, -1044, -936, -209, -434, -1019, -668, 
356, 273, -82, -314, 219, 95, -1039, -932, -204, -444, -1024, -668, 
351, 278, -73, -314, 212, 102, -1058, -932, -204, -444, -1019, -668, 
361, 278, -82, -319, 222, 97, -1093, -932, -200, -439, -1019, -658, 
370, 278, -92, -324, 231, 92, -1088, -927, -195, -434, -1010, -649, 
370, 283, -87, -326, 229, 97, -1093, -922, -185, -434, -1005, -649, 
380, 292, -87, -336, 234, 102, -1107, -917, -175, -434, -1005, -644, 
395, 302, -92, -348, 244, 104, -1112, -917, -165, -414, -1005, -649, 
409, 312, -97, -361, 253, 107, -1117, -917, -156, -409, -995, -639, 
409, 307, -102, -358, 256, 102, -1117, -917, -156, -405, -985, -634, 
414, 302, -112, -358, 263, 95, -1122, -912, -126, -390, -976, -629, 
429, 287, -141, -358, 285, 73, -1132, -912, -117, -385, -966, -619, 
434, 273, -161, -353, 297, 56, -1127, -893, -92, -375, -951, -614, 
444, 258, -185, -351, 314, 36, -1122, -893, -82, -356, -941, -614, 
453, 234, -219, -344, 336, 7, -1112, -878, -63, -336, -922, -600, 
453, 219, -234, -336, 344, -7, -1107, -873, -43, -317, -907, -590, 
458, 195, -263, -326, 361, -34, -1102, -863, -9, -302, -888, -580, 
463, 170, -292, -317, 378, -61, -1112, -849, 24, -283, -863, -570, 
468, 151, -317, -309, 392, -82, -1112, -839, 48, -253, -834, -546, 
473, 141, -331, -307, 402, -95, -1117, -829, 58, -234, -824, -541, 
478, 136, -341, -307, 409, -102, -1122, -814, 78, -219, -805, -522, 
488, 131, -356, -309, 422, -112, -1122, -805, 97, -209, -795, -517, 
492, 126, -366, -309, 429, -119, -1112, -795, 131, -180, -771, -488, 
507, 117, -390, -312, 448, -136, -1127, -790, 151, -170, -751, -478, 
517, 117, -400, -317, 458, -141, -1127, -785, 161, -161, -732, -453, 
541, 112, -429, -326, 485, -158, -1137, -785, 185, -146, -722, -434, 
551, 126, -424, -339, 488, -148, -1137, -785, 200, -136, -702, -409, 
556, 151, -405, -353, 480, -126, -1137, -780, 214, -122, -697, -409, 
566, 156, -409, -361, 488, -126, -1146, -771, 224, -107, -678, -390, 
566, 175, -390, -370, 478, -107, -1151, -775, 234, -92, -663, -380, 
575, 180, -395, -378, 485, -107, -1156, -775, 234, -87, -644, -370, 
580, 200, -380, -390, 480, -90, -1151, -775, 244, -73, -629, -351, 
590, 214, -375, -402, 483, -80, -1146, -775, 248, -63, -614, -336, 
600, 224, -375, -412, 488, -75, -1141, -780, 244, -58, -610, -331, 
610, 239, -370, -424, 490, -65, -1137, -780, 244, -53, -600, -326, 
610, 253, -356, -431, 483, -51, -1132, -780, 234, -39, -605, -326, 
610, 263, -346, -436, 478, -41, -1127, -780, 229, -39, -605, -322, 
614, 263, -351, -439, 483, -43, -1122, -790, 209, -68, -605, -326, 
614, 263, -351, -439, 483, -43, -1117, -785, 190, -73, -614, -331, 
610, 258, -351, -434, 480, -46, -1117, -785, 180, -87, -629, -341, 
595, 253, -341, -424, 468, -43, -1102, -785, 175, -97, -634, -346, 
561, 244, -317, -402, 439, -36, -1088, -785, 151, -107, -649, -356, 
575, 229, -346, -402, 461, -58, -1068, -790, 131, -122, -663, -375, 
575, 219, -356, -397, 466, -68, -1049, -790, 122, -141, -688, -395, 
566, 219, -346, -392, 456, -63, -1034, -790, 122, -146, -697, -405, 
556, 234, -322, -395, 439, -43, -1005, -785, 112, -156, -707, -414, 
551, 239, -312, -395, 431, -36, -976, -785, 92, -170, -712, -419, 
556, 244, -312, -400, 434, -34, -971, -790, 78, -195, -732, -448, 
546, 253, -292, -400, 419, -19, -971, -790, 53, -209, -741, -463, 
556, 234, -322, -395, 439, -43, -956, -795, 29, -258, -766, -473, 
551, 244, -307, -397, 429, -31, -946, -795, 14, -278, -775, -488, 
531, 239, -292, -385, 412, -26, -936, -800, 9, -258, -790, -497, 
531, 234, -297, -383, 414, -31, -932, -805, -4, -268, -805, -512, 
527, 204, -322, -366, 424, -58, -946, -810, -24, -268, -810, -527, 
522, 204, -317, -363, 419, -56, -966, -834, -34, -287, -814, -531, 
522, 195, -326, -358, 424, -65, -1000, -854, -58, -317, -814, -531, 
522, 180, -341, -351, 431, -80, -1034, -883, -82, -312, -814, -531, 
531, 175, -356, -353, 444, -90, -1039, -897, -92, -312, -819, -527, 
536, 161, -375, -348, 456, -107, -1054, -907, -97, -312, -819, -522, 
536, 161, -375, -348, 456, -107, -1039, -897, -102, -307, -814, -522, 
546, 151, -395, -348, 470, -122, -1024, -883, -102, -302, -810, -507, 
556, 146, -409, -351, 483, -131, -1005, -878, -92, -302, -810, -507, 
566, 141, -424, -353, 495, -141, -980, -863, -87, -302, -805, -502, 
546, 141, -405, -344, 475, -131, -980, -858, -87, -302, -805, -512, 
561, 126, -434, -344, 497, -153, -966, -844, -97, -307, -805, -512, 
546, 97, -448, -322, 497, -175, -946, -839, -92, -302, -805, -512, 
536, 68, -468, -302, 502, -200, -932, -834, -87, -302, -810, -517, 
522, 39, -483, -280, 502, -222, -917, -829, -82, -312, -814, -527, 
507, 9, -497, -258, 502, -244, -907, -829, -78, -322, -819, -536, 
488, -34, -522, -226, 505, -278, -878, -829, -82, -322, -834, -556, 
468, -78, -546, -195, 507, -312, -849, -829, -87, -322, -849, -575, 
463, -82, -546, -190, 505, -314, -844, -819, -87, -336, -854, -580, 
453, -87, -541, -183, 497, -314, -829, -810, -82, -336, -854, -585, 
444, -97, -541, -173, 492, -319, -819, -805, -82, -341, -858, -590, 
439, -97, -536, -170, 488, -317, -810, -790, -68, -326, -854, -590, 
453, -97, -551, -178, 502, -324, -814, -790, -58, -322, -854, -595, 
468, -92, -561, -187, 514, -326, -814, -790, -53, -322, -854, -595, 
473, -78, -551, -197, 512, -314, -824, -795, -48, -322, -854, -600, 
473, -63, -536, -204, 505, -300, -829, -795, -48, -317, -849, -605, 
473, -48, -522, -212, 497, -285, -829, -805, -48, -322, -854, -610, 
473, -29, -502, -222, 488, -265, -829, -805, -48, -326, -858, -614, 
468, -9, -478, -229, 473, -244, -829, -805, -48, -326, -863, -619, 
483, 4, -478, -244, 480, -236, -834, -810, -53, -331, -863, -624, 
483, 9, -473, -246, 478, -231, -829, -814, -58, -331, -863, -624, 
483, 29, -453, -256, 468, -212, -839, -819, -58, -331, -858, -624, 
483, 39, -444, -261, 463, -202, -839, -814, -53, -331, -858, -624, 
483, 43, -439, -263, 461, -197, -839, -814, -53, -331, -863, -619, 
492, 53, -439, -273, 466, -192, -844, -824, -68, -326, -863, -614, 
497, 63, -434, -280, 466, -185, -844, -824, -68, -326, -858, -614, 
492, 82, -409, -287, 451, -163, -844, -834, -78, -331, -858, -614, 
492, 82, -409, -287, 451, -163, -844, -839, -73, -326, -858, -610, 
492, 82, -409, -287, 451, -163, -844, -839, -73, -322, -858, -610, 
492, 82, -409, -287, 451, -163, -844, -839, -73, -317, -863, -605, 
497, 73, -424, -285, 461, -175, -844, -839, -68, -317, -863, -605, 
497, 73, -424, -285, 461, -175, -849, -839, -68, -317, -854, -605, 
488, 68, -419, -278, 453, -175, -849, -849, -73, -317, -858, -605, 
483, 68, -414, -275, 448, -173, -854, -854, -82, -322, -858, -605, 
478, 68, -409, -273, 444, -170, -854, -854, -82, -322, -854, -600, 
478, 68, -409, -273, 444, -170, -858, -849, -82, -322, -854, -595, 
483, 58, -424, -270, 453, -183, -849, -844, -87, -322, -858, -590, 
483, 53, -429, -268, 456, -187, -839, -839, -87, -322, -858, -580, 
478, 43, -434, -261, 456, -195, -839, -844, -87, -317, -858, -580, 
478, 34, -444, -256, 461, -204, -839, -844, -87, -312, -858, -580, 
483, 34, -448, -258, 466, -207, -844, -849, -87, -317, -849, -580, 
488, 34, -453, -261, 470, -209, -844, -849, -87, -317, -839, -580, 
488, 39, -448, -263, 468, -204, -844, -849, -82, -317, -849, -580, 
478, 39, -439, -258, 458, -200, -849, -858, -82, -317, -854, -580, 
458, 39, -419, -248, 439, -190, -844, -849, -82, -307, -854, -575, 
473, 43, -429, -258, 451, -192, -839, -849, -82, -297, -854, -570, 
478, 39, -439, -258, 458, -200, -839, -844, -87, -302, -854, -570, 
478, 34, -444, -256, 461, -204, -834, -839, -87, -302, -849, -570, 
488, 39, -448, -263, 468, -204, -834, -839, -87, -297, -849, -575, 
483, 43, -439, -263, 461, -197, -834, -839, -78, -287, -839, -575, 
473, 43, -429, -258, 451, -192, -834, -839, -63, -287, -839, -566, 
483, 48, -434, -265, 458, -192, -834, -834, -53, -287, -839, -566, 
488, 43, -444, -265, 466, -200, -829, -834, -78, -292, -849, -570, 
497, 39, -458, -268, 478, -209, -829, -829, -92, -297, -849, -566, 
502, 43, -458, -273, 480, -207, -834, -824, -156, -312, -819, -546, 
541, 126, -414, -334, 478, -143, -868, -800, -73, -180, -727, -483, 
570, 268, -302, -419, 436, -17, -927, -790, 219, 48, -580, -385, 
678, 517, -161, -597, 419, 178, -985, -697, 644, 400, -356, -253, 
897, 834, -63, -866, 480, 385, -1019, -409, 1327, 917, -53, -82, 
1127, 1141, 14, -1134, 556, 578, -1039, -112, 2034, 1390, 248, 78, 
1415, 1483, 68, -1449, 673, 775, -1073, 273, 2571, 1781, 492, 224, 
1576, 1464, -112, -1520, 844, 675, -995, 600, 2483, 1644, 468, 214, 
1444, 805, -639, -1124, 1041, 82, -570, 746, 1615, 746, -34, -19, 
1049, 366, -683, -707, 866, -158, -322, 131, 1024, 146, -380, -219, 
566, 34, -531, -300, 549, -248, -292, -810, 78, -409, -673, -351, 
195, -141, -336, -26, 265, -239, -239, -1444, -522, -697, -907, -468, 
58, -200, -258, 70, 158, -229, -126, -1337, -551, -771, -1078, -624, 
4, -268, -273, 131, 139, -270, -19, -1141, -527, -800, -1195, -761, 
-4, -297, -292, 151, 143, -295, 24, -990, -453, -775, -1224, -839, 
-4, -292, -287, 148, 141, -290, 68, -873, -380, -717, -1234, -868, 
53, -253, -307, 100, 180, -280, 136, -780, -366, -683, -1220, -873, 
73, -253, -326, 90, 200, -290, 239, -702, -409, -692, -1210, -888, 
97, -258, -356, 80, 226, -307, 366, -663, -414, -673, -1210, -893, 
97, -263, -361, 82, 229, -312, 492, -678, -409, -649, -1205, -893, 
58, -263, -322, 102, 190, -292, 663, -780, -409, -629, -1205, -883, 
58, -258, -317, 100, 187, -287, 717, -932, -419, -624, -1180, -863, 
82, -244, -326, 80, 204, -285, 541, -1098, -424, -624, -1166, -854, 
68, -244, -312, 87, 190, -278, 336, -1176, -424, -614, -1156, -829, 
165, -239, -405, 36, 285, -322, 43, -1190, -419, -585, -1127, -800, 
248, -180, -429, -34, 339, -305, -229, -1185, -385, -527, -1068, -761, 
341, -97, -439, -122, 390, -268, -478, -1083, -307, -458, -1034, -732, 
424, -29, -453, -197, 439, -241, -673, -961, -234, -405, -1000, -692, 
483, 14, -468, -248, 475, -226, -790, -941, -195, -375, -971, -673, 
522, 53, -468, -287, 495, -207, -829, -936, -170, -356, -951, -649, 
527, 63, -463, -295, 495, -200, -834, -927, -161, -356, -956, -649, 
527, 73, -453, -300, 490, -190, -863, -922, -156, -346, -951, -649, 
536, 78, -458, -307, 497, -190, -912, -922, -156, -341, -951, -644, 
546, 82, -463, -314, 505, -190, -922, -917, -156, -336, -941, -639, 
556, 87, -468, -322, 512, -190, -927, -917, -151, -336, -936, -649, 
575, 97, -478, -336, 527, -190, -941, -917, -146, -336, -936, -653, 
580, 102, -478, -341, 529, -187, -941, -917, -141, -322, -941, -658, 
585, 107, -478, -346, 531, -185, -941, -917, -136, -322, -936, -649, 
585, 107, -478, -346, 531, -185, -941, -917, -136, -317, -936, -644, 
590, 107, -483, -348, 536, -187, -946, -912, -107, -302, -936, -639, 
605, 107, -497, -356, 551, -195, -971, -917, -107, -297, -936, -634, 
610, 107, -502, -358, 556, -197, -980, -902, -92, -287, -932, -634, 
624, 117, -507, -370, 566, -195, -990, -912, -82, -278, -932, -634, 
639, 117, -522, -378, 580, -202, -995, -907, -63, -268, -922, -619, 
639, 126, -512, -383, 575, -192, -1000, -907, -58, -253, -917, -614, 
644, 126, -517, -385, 580, -195, -1005, -902, -39, -244, -907, -610, 
653, 122, -531, -387, 592, -204, -1019, -893, -14, -234, -897, -600, 
663, 122, -541, -392, 602, -209, -1024, -888, 0, -214, -883, -575, 
673, 122, -551, -397, 612, -214, -1034, -888, 9, -195, -878, -585, 
683, 126, -556, -405, 619, -214, -1044, -883, 29, -180, -863, -580, 
692, 136, -556, -414, 624, -209, -1054, -883, 43, -180, -863, -580, 
697, 146, -551, -422, 624, -202, -1054, -883, 73, -161, -849, -556, 
712, 146, -566, -429, 639, -209, -1078, -883, 92, -151, -834, -566, 
722, 156, -566, -439, 644, -204, -1088, -883, 102, -141, -819, -561, 
746, 170, -575, -458, 661, -202, -1102, -883, 122, -126, -814, -551, 
756, 204, -551, -480, 653, -173, -1107, -883, 131, -117, -800, -536, 
766, 234, -531, -500, 649, -148, -1112, -888, 146, -107, -795, -536, 
780, 244, -536, -512, 658, -146, -1127, -888, 156, -97, -775, -517, 
780, 263, -517, -522, 649, -126, -1137, -897, 165, -87, -775, -512, 
790, 268, -522, -529, 656, -126, -1146, -902, 165, -87, -771, -507, 
795, 292, -502, -544, 649, -104, -1151, -907, 170, -82, -766, -497, 
805, 312, -492, -558, 649, -90, -1156, -912, 170, -82, -761, -492, 
810, 322, -488, -566, 649, -82, -1161, -922, 161, -78, -756, -492, 
814, 336, -478, -575, 646, -70, -1166, -927, 156, -73, -746, -492, 
819, 351, -468, -585, 644, -58, -1166, -927, 146, -63, -751, -492, 
824, 361, -463, -592, 644, -51, -1166, -927, 141, -68, -751, -488, 
824, 361, -463, -592, 644, -51, -1161, -941, 122, -92, -751, -488, 
819, 361, -458, -590, 639, -48, -1156, -941, 102, -92, -761, -488, 
814, 361, -453, -588, 634, -46, -1156, -941, 92, -107, -775, -497, 
800, 361, -439, -580, 619, -39, -1141, -941, 87, -117, -780, -502, 
766, 351, -414, -558, 590, -31, -1132, -941, 63, -126, -795, -507, 
780, 336, -444, -558, 612, -53, -1117, -946, 43, -141, -810, -522, 
780, 326, -453, -553, 617, -63, -1102, -946, 24, -161, -834, -536, 
771, 326, -444, -549, 607, -58, -1093, -946, 14, -165, -844, -541, 
756, 322, -434, -539, 595, -56, -1083, -946, 0, -175, -858, -556, 
746, 307, -439, -527, 592, -65, -1073, -951, -24, -190, -868, -566, 
746, 302, -444, -524, 595, -70, -1049, -951, -34, -214, -888, -585, 
732, 302, -429, -517, 580, -63, -1029, -946, -53, -229, -897, -590, 
741, 283, -458, -512, 600, -87, -1010, -946, -78, -268, -917, -595, 
736, 292, -444, -514, 590, -75, -995, -941, -92, -278, -922, -605, 
722, 292, -429, -507, 575, -68, -976, -941, -97, -248, -932, -614, 
727, 292, -434, -509, 580, -70, -961, -941, -112, -248, -941, -629, 
732, 273, -458, -502, 595, -92, -956, -936, -126, -248, -951, -649, 
736, 283, -453, -509, 595, -85, -956, -951, -131, -268, -961, -658, 
736, 273, -463, -505, 600, -95, -956, -951, -146, -297, -961, -663, 
736, 258, -478, -497, 607, -109, -956, -961, -161, -292, -961, -668, 
741, 258, -483, -500, 612, -112, -980, -976, -170, -297, -966, -668, 
741, 248, -492, -495, 617, -122, -1015, -985, -175, -302, -966, -668, 
727, 248, -478, -488, 602, -114, -1039, -1005, -190, -302, -966, -668, 
722, 239, -483, -480, 602, -122, -1063, -1019, -200, -302, -966, -653, 
727, 239, -488, -483, 607, -124, -1068, -1029, -200, -302, -966, -649, 
732, 239, -492, -485, 612, -126, -1068, -1029, -204, -302, -961, -639, 
741, 248, -492, -495, 617, -122, -1068, -1015, -195, -302, -956, -644, 
775, 253, -522, -514, 649, -134, -1058, -990, -195, -302, -951, -639, 
790, 234, -556, -512, 673, -161, -1054, -990, -190, -302, -951, -634, 
790, 229, -561, -509, 675, -165, -1039, -976, -180, -297, -946, -629, 
775, 214, -561, -495, 668, -173, -1029, -956, -180, -297, -941, -639, 
785, 161, -624, -473, 705, -231, -1005, -946, -165, -307, -946, -639, 
771, 146, -624, -458, 697, -239, -990, -941, -161, -307, -946, -639, 
761, 136, -624, -448, 692, -244, -976, -936, -156, -312, -946, -644, 
732, 107, -624, -419, 678, -258, -961, -936, -156, -312, -961, -658, 
702, 78, -624, -390, 663, -273, -946, -936, -156, -312, -976, -673, 
692, 58, -634, -375, 663, -287, -932, -936, -156, -326, -990, -688, 
683, 39, -644, -361, 663, -302, -922, -932, -161, -336, -1000, -697, 
673, 19, -653, -346, 663, -317, -912, -927, -165, -346, -1010, -707, 
673, 9, -663, -341, 668, -326, -907, -927, -175, -346, -1015, -707, 
683, 9, -673, -346, 678, -331, -907, -917, -170, -346, -1010, -707, 
688, 9, -678, -348, 683, -334, -912, -917, -165, -346, -1010, -712, 
683, 14, -668, -348, 675, -326, -912, -922, -165, -351, -1010, -717, 
678, 24, -653, -351, 666, -314, -917, -922, -165, -351, -1010, -722, 
678, 34, -644, -356, 661, -305, -917, -912, -165, -346, -1005, -727, 
678, 39, -639, -358, 658, -300, -917, -922, -165, -346, -1005, -732, 
678, 39, -639, -358, 658, -300, -917, -922, -175, -351, -1005, -736, 
678, 43, -634, -361, 656, -295, -917, -922, -185, -356, -1005, -741, 
692, 48, -644, -370, 668, -297, -922, -932, -190, -366, -1010, -746, 
688, 48, -639, -368, 663, -295, -922, -936, -195, -370, -1019, -751, 
688, 68, -619, -378, 653, -275, -936, -941, -195, -370, -1015, -756, 
683, 78, -605, -380, 644, -263, -936, -941, -190, -370, -1015, -761, 
688, 82, -605, -385, 646, -261, -941, -941, -190, -370, -1019, -761, 
697, 87, -610, -392, 653, -261, -951, -951, -204, -366, -1019, -761, 
692, 87, -605, -390, 649, -258, -951, -951, -200, -366, -1019, -761, 
688, 102, -585, -395, 636, -241, -951, -961, -209, -380, -1024, -761, 
688, 102, -585, -395, 636, -241, -951, -971, -209, -385, -1024, -761, 
688, 102, -585, -395, 636, -241, -951, -976, -209, -385, -1024, -766, 
688, 107, -580, -397, 634, -236, -956, -976, -214, -390, -1034, -761, 
692, 102, -590, -397, 641, -244, -961, -976, -214, -395, -1039, -761, 
697, 107, -590, -402, 644, -241, -966, -976, -219, -400, -1029, -761, 
692, 107, -585, -400, 639, -239, -966, -980, -224, -400, -1029, -761, 
688, 107, -580, -397, 634, -236, -971, -985, -229, -400, -1029, -766, 
683, 107, -575, -395, 629, -234, -971, -990, -229, -400, -1029, -771, 
678, 122, -556, -400, 617, -217, -985, -995, -229, -400, -1034, -775, 
678, 136, -541, -407, 610, -202, -995, -1005, -234, -400, -1039, -780, 
678, 146, -531, -412, 605, -192, -995, -1005, -244, -409, -1039, -780, 
673, 151, -522, -412, 597, -185, -995, -1010, -253, -419, -1044, -785, 
673, 165, -507, -419, 590, -170, -995, -1015, -258, -424, -1049, -785, 
678, 180, -497, -429, 588, -158, -1000, -1019, -263, -434, -1054, -785, 
683, 185, -497, -434, 590, -156, -1010, -1019, -268, -434, -1054, -785, 
683, 195, -488, -439, 585, -146, -1019, -1024, -268, -434, -1054, -785, 
673, 204, -468, -439, 570, -131, -1029, -1039, -278, -434, -1054, -785, 
658, 209, -448, -434, 553, -119, -1034, -1034, -287, -434, -1058, -785, 
678, 219, -458, -448, 568, -119, -1034, -1039, -287, -434, -1058, -785, 
683, 224, -458, -453, 570, -117, -1039, -1044, -287, -439, -1058, -785, 
688, 224, -463, -456, 575, -119, -1039, -1044, -287, -439, -1054, -780, 
692, 224, -468, -458, 580, -122, -1039, -1044, -292, -444, -1054, -775, 
678, 219, -458, -448, 568, -119, -1039, -1044, -283, -439, -1044, -771, 
668, 219, -448, -444, 558, -114, -1039, -1044, -278, -434, -1044, -761, 
678, 214, -463, -446, 570, -124, -1034, -1044, -278, -434, -1044, -761, 
683, 219, -463, -451, 573, -122, -1034, -1049, -287, -434, -1039, -756, 
688, 209, -478, -448, 583, -134, -1044, -1054, -326, -463, -1044, -751, 
692, 239, -453, -466, 573, -107, -1058, -1054, -331, -448, -1005, -722, 
717, 326, -390, -522, 553, -31, -1112, -1039, -258, -307, -907, -644, 
766, 453, -312, -610, 539, 70, -1161, -995, 19, -82, -751, -531, 
912, 702, -209, -807, 561, 246, -1210, -863, 468, 302, -478, -380, 
1107, 961, -146, -1034, 627, 407, -1234, -595, 1034, 746, -204, -219, 
1385, 1342, -43, -1363, 714, 649, -1263, -214, 1903, 1302, 117, -43, 
1625, 1586, -39, -1605, 832, 773, -1254, 141, 2357, 1610, 312, 68, 
1800, 1410, -390, -1605, 1095, 509, -1102, 614, 2039, 1254, 175, -14, 
1751, 854, -897, -1302, 1324, -21, -775, 868, 1234, 473, -278, -244, 
1205, 414, -790, -810, 997, -187, -566, -92, 717, -48, -610, -448, 
761, 58, -702, -409, 732, -322, -463, -893, -53, -605, -936, -624, 
424, -73, -497, -175, 461, -285, -409, -1351, -649, -902, -1171, -746, 
229, -122, -351, -53, 290, -236, -322, -1395, -746, -985, -1332, -888, 
219, -185, -405, -17, 312, -295, -229, -1190, -722, -995, -1439, -1024, 
209, -180, -390, -14, 300, -285, -190, -1073, -678, -976, -1449, -1073, 
219, -131, -351, -43, 285, -241, -175, -1000, -580, -893, -1439, -1068, 
273, -63, -336, -104, 305, -200, -136, -936, -541, -829, -1424, -1068, 
292, -39, -331, -126, 312, -185, -34, -878, -605, -844, -1415, -1083, 
317, -29, -346, -143, 331, -187, 82, -854, -624, -854, -1415, -1083, 
317, -9, -326, -153, 322, -168, 258, -873, -614, -849, -1415, -1093, 
292, 9, -283, -151, 287, -136, 390, -946, -614, -824, -1415, -1098, 
253, 58, -195, -156, 224, -68, 414, -1127, -634, -810, -1390, -1093, 
263, 122, -141, -192, 202, -9, 278, -1302, -644, -805, -1376, -1098, 
258, 161, -97, -209, 178, 31, -4, -1405, -658, -810, -1385, -1093, 
331, 224, -107, -278, 219, 58, -302, -1459, -663, -780, -1381, -1083, 
419, 351, -68, -385, 244, 141, -605, -1483, -629, -717, -1332, -1054, 
497, 463, -34, -480, 265, 214, -878, -1454, -570, -673, -1307, -1034, 
551, 536, -14, -544, 283, 261, -1063, -1342, -507, -619, -1273, -995, 
605, 595, -9, -600, 307, 292, -1190, -1307, -473, -590, -1244, -980, 
644, 649, 4, -646, 319, 326, -1210, -1307, -453, -575, -1224, -961, 
653, 673, 19, -663, 317, 346, -1224, -1298, -444, -570, -1224, -961, 
653, 663, 9, -658, 322, 336, -1254, -1293, -424, -546, -1215, -961, 
663, 649, -14, -656, 339, 317, -1293, -1293, -405, -527, -1215, -956, 
673, 634, -39, -653, 356, 297, -1293, -1283, -390, -507, -1205, -946, 
673, 619, -53, -646, 363, 283, -1298, -1278, -375, -492, -1200, -941, 
678, 605, -73, -641, 375, 265, -1312, -1273, -356, -492, -1195, -936, 
678, 585, -92, -631, 385, 246, -1312, -1268, -336, -473, -1190, -936, 
683, 575, -107, -629, 395, 234, -1312, -1259, -317, -463, -1171, -917, 
683, 561, -122, -622, 402, 219, -1312, -1249, -302, -453, -1156, -907, 
688, 541, -146, -614, 417, 197, -1312, -1244, -268, -439, -1151, -897, 
702, 522, -180, -612, 441, 170, -1322, -1244, -258, -424, -1146, -888, 
707, 512, -195, -610, 451, 158, -1322, -1229, -239, -409, -1132, -878, 
712, 502, -209, -607, 461, 146, -1322, -1234, -229, -395, -1122, -868, 
717, 488, -229, -602, 473, 129, -1317, -1220, -209, -375, -1107, -863, 
717, 488, -229, -602, 473, 129, -1317, -1215, -190, -361, -1098, -858, 
736, 478, -258, -607, 497, 109, -1322, -1205, -156, -346, -1083, -858, 
756, 468, -287, -612, 522, 90, -1337, -1190, -131, -322, -1068, -863, 
751, 458, -292, -605, 522, 82, -1337, -1185, -107, -287, -1054, -824, 
746, 453, -292, -600, 519, 80, -1342, -1185, -87, -263, -1054, -824, 
746, 453, -292, -600, 519, 80, -1346, -1176, -68, -234, -1039, -824, 
746, 458, -287, -602, 517, 85, -1356, -1176, -53, -214, -1034, -824, 
746, 463, -283, -605, 514, 90, -1356, -1176, -19, -180, -1015, -800, 
761, 463, -297, -612, 529, 82, -1381, -1171, 4, -161, -1000, -795, 
775, 448, -326, -612, 551, 61, -1381, -1156, 24, -146, -985, -775, 
795, 434, -361, -614, 578, 36, -1381, -1146, 48, -126, -976, -756, 
800, 444, -356, -622, 578, 43, -1381, -1141, 58, -102, -946, -732, 
805, 444, -361, -624, 583, 41, -1385, -1141, 78, -73, -932, -732, 
814, 448, -366, -631, 590, 41, -1400, -1132, 97, -39, -907, -712, 
819, 463, -356, -641, 588, 53, -1405, -1132, 117, -9, -897, -702, 
829, 453, -375, -641, 602, 39, -1400, -1127, 122, 4, -888, -692, 
829, 458, -370, -644, 600, 43, -1390, -1122, 131, 24, -878, -683, 
834, 458, -375, -646, 605, 41, -1390, -1127, 146, 43, -863, -668, 
834, 453, -380, -644, 607, 36, -1390, -1132, 156, 68, -854, -653, 
834, 458, -375, -646, 605, 41, -1385, -1132, 161, 82, -839, -644, 
834, 468, -366, -651, 600, 51, -1381, -1132, 156, 92, -834, -639, 
839, 463, -375, -651, 607, 43, -1376, -1117, 161, 102, -829, -634, 
844, 458, -385, -651, 614, 36, -1366, -1117, 151, 92, -829, -634, 
839, 439, -400, -639, 619, 19, -1346, -1117, 131, 92, -839, -634, 
824, 409, -414, -617, 619, -2, -1332, -1117, 122, 87, -854, -644, 
800, 409, -390, -605, 595, 9, -1317, -1117, 117, 87, -854, -644, 
785, 400, -385, -592, 585, 7, -1307, -1117, 92, 87, -863, -649, 
814, 375, -439, -595, 627, -31, -1293, -1112, 73, 82, -873, -668, 
810, 356, -453, -583, 631, -48, -1273, -1102, 63, 73, -893, -683, 
795, 336, -458, -566, 627, -61, -1263, -1102, 63, 68, -902, -688, 
780, 312, -468, -546, 624, -78, -1249, -1098, 48, 58, -912, -697, 
766, 297, -468, -531, 617, -85, -1229, -1102, 29, 58, -917, -702, 
756, 283, -473, -519, 614, -95, -1215, -1107, 19, 48, -936, -722, 
741, 263, -478, -502, 610, -107, -1195, -1102, -4, 34, -946, -727, 
741, 234, -507, -488, 624, -136, -1171, -1102, -29, 14, -966, -736, 
727, 224, -502, -475, 614, -139, -1156, -1098, -43, 4, -971, -741, 
707, 204, -502, -456, 605, -148, -1146, -1098, -43, 24, -976, -741, 
702, 200, -502, -451, 602, -151, -1117, -1093, -48, 34, -976, -751, 
697, 180, -517, -439, 607, -168, -1102, -1088, -53, 34, -976, -761, 
697, 185, -512, -441, 605, -163, -1112, -1098, -48, 19, -980, -766, 
697, 175, -522, -436, 610, -173, -1102, -1088, -58, 9, -980, -766, 
697, 165, -531, -431, 614, -183, -1093, -1083, -73, 29, -980, -771, 
702, 161, -541, -431, 622, -190, -1088, -1083, -82, 29, -985, -775, 
702, 151, -551, -427, 627, -200, -1102, -1093, -87, 34, -985, -775, 
692, 151, -541, -422, 617, -195, -1102, -1098, -92, 39, -980, -775, 
683, 141, -541, -412, 612, -200, -1146, -1117, -97, 43, -976, -761, 
683, 141, -541, -412, 612, -200, -1190, -1137, -92, 48, -976, -756, 
678, 141, -536, -409, 607, -197, -1205, -1146, -87, 53, -961, -736, 
673, 141, -531, -407, 602, -195, -1224, -1161, -87, 58, -951, -736, 
683, 151, -531, -417, 607, -190, -1220, -1146, -97, 73, -951, -732, 
678, 146, -531, -412, 605, -192, -1220, -1146, -97, 82, -951, -727, 
683, 161, -522, -422, 602, -180, -1205, -1127, -87, 97, -936, -712, 
683, 161, -522, -422, 602, -180, -1195, -1112, -82, 112, -927, -707, 
707, 136, -570, -422, 639, -217, -1185, -1102, -73, 126, -912, -707, 
707, 131, -575, -419, 641, -222, -1171, -1088, -68, 141, -917, -707, 
712, 102, -610, -407, 661, -253, -1151, -1078, -58, 175, -912, -707, 
692, 73, -619, -383, 656, -273, -1146, -1068, -43, 146, -922, -722, 
673, 53, -619, -363, 646, -283, -1141, -1068, -48, 156, -922, -722, 
658, 39, -619, -348, 639, -290, -1137, -1068, -53, 165, -927, -727, 
629, 0, -629, -314, 629, -314, -1127, -1063, -53, 161, -941, -736, 
605, -39, -644, -283, 624, -341, -1122, -1063, -58, 156, -956, -751, 
605, -53, -658, -275, 631, -356, -1112, -1063, -63, 156, -956, -766, 
605, -68, -673, -268, 639, -370, -1102, -1063, -68, 156, -956, -780, 
600, -73, -673, -263, 636, -373, -1102, -1058, -68, 156, -956, -780, 
590, -78, -668, -256, 629, -373, -1098, -1054, -68, 156, -956, -780, 
585, -87, -673, -248, 629, -380, -1093, -1054, -73, 161, -956, -780, 
585, -87, -673, -248, 629, -380, -1093, -1044, -68, 170, -951, -775, 
585, -92, -678, -246, 631, -385, -1093, -1044, -58, 185, -941, -775, 
585, -92, -678, -246, 631, -385, -1088, -1044, -53, 195, -932, -771, 
580, -92, -673, -244, 627, -383, -1093, -1039, -53, 200, -932, -766, 
570, -92, -663, -239, 617, -378, -1093, -1029, -58, 209, -927, -761, 
570, -92, -663, -239, 617, -378, -1088, -1039, -63, 214, -922, -756, 
570, -87, -658, -241, 614, -373, -1083, -1039, -68, 219, -917, -751, 
556, -82, -639, -236, 597, -361, -1083, -1039, -68, 224, -917, -751, 
561, -82, -644, -239, 602, -363, -1088, -1044, -73, 224, -912, -751, 
561, -92, -653, -234, 607, -373, -1083, -1044, -78, 229, -907, -741, 
561, -87, -649, -236, 605, -368, -1093, -1044, -78, 234, -897, -732, 
561, -82, -644, -239, 602, -363, -1088, -1034, -68, 239, -888, -732, 
561, -82, -644, -239, 602, -363, -1083, -1029, -63, 244, -883, -727, 
566, -87, -653, -239, 610, -370, -1088, -1034, -63, 258, -883, -722, 
566, -92, -658, -236, 612, -375, -1088, -1029, -48, 268, -878, -722, 
561, -82, -644, -239, 602, -363, -1083, -1034, -58, 268, -873, -717, 
561, -92, -653, -234, 607, -373, -1078, -1034, -53, 278, -868, -707, 
561, -97, -658, -231, 610, -378, -1078, -1034, -43, 283, -858, -702, 
561, -102, -663, -229, 612, -383, -1078, -1034, -34, 287, -854, -692, 
566, -112, -678, -226, 622, -395, -1068, -1024, -19, 297, -849, -688, 
566, -112, -678, -226, 622, -395, -1063, -1015, -9, 307, -834, -683, 
551, -117, -668, -217, 610, -392, -1058, -1019, -4, 312, -834, -678, 
541, -117, -658, -212, 600, -387, -1058, -1019, -4, 312, -829, -673, 
531, -117, -649, -207, 590, -383, -1058, -1019, 0, 322, -824, -673, 
527, -117, -644, -204, 585, -380, -1063, -1015, 4, 331, -824, -673, 
531, -117, -649, -207, 590, -383, -1063, -1015, 4, 336, -824, -673, 
531, -112, -644, -209, 588, -378, -1063, -1015, 9, 341, -819, -668, 
527, -107, -634, -209, 580, -370, -1063, -1019, 14, 346, -814, -668, 
527, -102, -629, -212, 578, -366, -1063, -1019, 19, 351, -810, -668, 
527, -102, -629, -212, 578, -366, -1063, -1019, 24, 351, -810, -663, 
527, -102, -629, -212, 578, -366, -1058, -1015, 29, 356, -810, -658, 
527, -92, -619, -217, 573, -356, -1058, -1015, 39, 361, -810, -658, 
517, -87, -605, -214, 561, -346, -1063, -1024, 43, 366, -805, -658, 
492, -87, -580, -202, 536, -334, -1063, -1015, 43, 366, -805, -663, 
502, -82, -585, -209, 544, -334, -1063, -1015, 43, 366, -805, -668, 
507, -78, -585, -214, 546, -331, -1073, -1015, 43, 366, -805, -668, 
507, -73, -580, -217, 544, -326, -1078, -1015, 48, 370, -800, -668, 
507, -68, -575, -219, 541, -322, -1078, -1019, 48, 370, -805, -673, 
492, -63, -556, -214, 524, -309, -1078, -1024, 58, 375, -800, -673, 
478, -58, -536, -209, 507, -297, -1078, -1029, 63, 375, -800, -663, 
483, -48, -531, -217, 507, -290, -1078, -1029, 63, 375, -800, -663, 
488, -9, -497, -239, 492, -253, -1093, -1029, 53, 390, -795, -658, 
497, 29, -468, -263, 483, -219, -1112, -1024, 53, 405, -780, -644, 
527, 107, -419, -317, 473, -156, -1141, -1010, 141, 502, -697, -600, 
590, 263, -326, -427, 458, -31, -1200, -976, 375, 746, -551, -512, 
658, 453, -204, -556, 431, 124, -1239, -897, 819, 1068, -336, -380, 
805, 751, -53, -778, 429, 348, -1278, -736, 1395, 1512, -43, -214, 
1000, 1024, 24, -1012, 488, 524, -1283, -468, 1971, 1932, 200, -53, 
1205, 1288, 82, -1246, 561, 685, -1273, -190, 2571, 2308, 444, 97, 
1307, 1322, 14, -1315, 646, 668, -1215, -4, 2644, 2322, 502, 146, 
1283, 995, -287, -1139, 785, 353, -1044, 122, 2093, 1810, 292, 39, 
1073, 439, -634, -756, 854, -97, -756, 97, 1254, 1073, -161, -175, 
600, 102, -497, -351, 549, -197, -644, -688, 692, 634, -458, -356, 
287, -175, -463, -56, 375, -319, -580, -1146, -73, 131, -766, -546, 
87, -297, -385, 104, 236, -341, -492, -1298, -492, -102, -1015, -722, 
19, -356, -375, 168, 197, -366, -405, -1200, -492, -136, -1156, -868, 
34, -424, -458, 195, 246, -441, -322, -1015, -439, -126, -1244, -995, 
39, -439, -478, 200, 258, -458, -278, -917, -366, -92, -1244, -1029, 
53, -419, -473, 183, 263, -446, -234, -854, -292, -24, -1224, -1015, 
97, -385, -483, 143, 290, -434, -165, -795, -278, 19, -1210, -1015, 
102, -390, -492, 143, 297, -441, -63, -751, -322, 19, -1200, -1024, 
112, -390, -502, 139, 307, -446, 48, -751, -317, 29, -1190, -1024, 
97, -390, -488, 146, 292, -439, 161, -805, -302, 43, -1176, -1019, 
43, -385, -429, 170, 236, -407, 224, -907, -283, 87, -1156, -990, 
29, -375, -405, 173, 217, -390, 170, -1058, -273, 117, -1112, -951, 
73, -356, -429, 141, 251, -392, -34, -1200, -258, 131, -1088, -941, 
78, -351, -429, 136, 253, -390, -268, -1254, -239, 156, -1068, -917, 
165, -341, -507, 87, 336, -424, -502, -1263, -204, 204, -1034, -878, 
239, -278, -517, 19, 378, -397, -717, -1254, -141, 283, -971, -829, 
283, -209, -492, -36, 387, -351, -883, -1180, -73, 341, -936, -800, 
317, -156, -473, -80, 395, -314, -995, -1088, -9, 385, -902, -761, 
366, -117, -483, -124, 424, -300, -1078, -1078, 24, 424, -873, -746, 
395, -82, -478, -156, 436, -280, -1083, -1083, 43, 453, -854, -727, 
395, -73, -468, -161, 431, -270, -1088, -1073, 53, 453, -854, -727, 
390, -63, -453, -163, 422, -258, -1117, -1068, 58, 463, -844, -727, 
390, -63, -453, -163, 422, -258, -1156, -1068, 58, 473, -844, -722, 
390, -63, -453, -163, 422, -258, -1156, -1063, 58, 483, -834, -717, 
390, -68, -458, -161, 424, -263, -1156, -1063, 63, 483, -834, -722, 
400, -68, -468, -165, 434, -268, -1166, -1063, 68, 483, -839, -722, 
405, -68, -473, -168, 439, -270, -1166, -1058, 78, 507, -839, -732, 
409, -68, -478, -170, 444, -273, -1166, -1054, 87, 517, -829, -727, 
400, -68, -468, -165, 434, -268, -1166, -1054, 87, 522, -824, -722, 
395, -68, -463, -163, 429, -265, -1171, -1049, 117, 536, -819, -717, 
400, -63, -463, -168, 431, -263, -1185, -1058, 117, 546, -814, -712, 
395, -58, -453, -168, 424, -256, -1185, -1049, 131, 561, -805, -712, 
395, -48, -444, -173, 419, -246, -1200, -1054, 141, 575, -805, -717, 
395, -48, -444, -173, 419, -246, -1210, -1044, 161, 590, -795, -707, 
390, -43, -434, -173, 412, -239, -1210, -1049, 165, 605, -790, -702, 
390, -48, -439, -170, 414, -244, -1210, -1049, 185, 614, -780, -697, 
390, -48, -439, -170, 414, -244, -1220, -1034, 209, 624, -766, -688, 
390, -43, -434, -173, 412, -239, -1220, -1024, 224, 644, -746, -663, 
395, -39, -434, -178, 414, -236, -1224, -1024, 239, 663, -746, -668, 
400, -29, -429, -185, 414, -229, -1229, -1019, 263, 678, -736, -658, 
400, -19, -419, -190, 409, -219, -1244, -1019, 278, 683, -732, -658, 
395, -9, -405, -192, 400, -207, -1249, -1019, 307, 707, -712, -634, 
405, -4, -409, -200, 407, -207, -1273, -1019, 326, 717, -697, -634, 
409, 9, -400, -209, 405, -195, -1283, -1019, 336, 727, -683, -619, 
414, 14, -400, -214, 407, -192, -1293, -1019, 351, 741, -678, -610, 
405, 39, -366, -222, 385, -163, -1293, -1019, 356, 751, -663, -595, 
400, 63, -336, -231, 368, -136, -1288, -1019, 366, 766, -658, -600, 
400, 68, -331, -234, 366, -131, -1293, -1015, 370, 780, -639, -585, 
390, 87, -302, -239, 346, -107, -1298, -1019, 380, 790, -634, -575, 
390, 92, -297, -241, 344, -102, -1302, -1019, 380, 790, -624, -566, 
385, 107, -278, -246, 331, -85, -1302, -1024, 380, 795, -619, -556, 
385, 117, -268, -251, 326, -75, -1302, -1029, 375, 795, -614, -551, 
385, 122, -263, -253, 324, -70, -1298, -1034, 370, 800, -610, -551, 
385, 131, -253, -258, 319, -61, -1293, -1034, 370, 805, -600, -551, 
375, 131, -244, -253, 309, -56, -1288, -1029, 361, 819, -600, -551, 
366, 126, -239, -246, 302, -56, -1283, -1024, 356, 819, -595, -546, 
366, 126, -239, -246, 302, -56, -1268, -1039, 336, 785, -595, -551, 
361, 126, -234, -244, 297, -53, -1254, -1039, 317, 775, -605, -556, 
346, 126, -219, -236, 283, -46, -1254, -1039, 302, 761, -619, -566, 
322, 126, -195, -224, 258, -34, -1239, -1039, 292, 751, -624, -570, 
283, 117, -165, -200, 224, -24, -1229, -1039, 268, 741, -639, -575, 
292, 102, -190, -197, 241, -43, -1215, -1044, 248, 727, -653, -590, 
283, 82, -200, -183, 241, -58, -1200, -1039, 234, 707, -678, -600, 
263, 73, -190, -168, 226, -58, -1190, -1034, 229, 702, -688, -600, 
248, 78, -170, -163, 209, -46, -1171, -1029, 214, 697, -697, -610, 
239, 73, -165, -156, 202, -46, -1151, -1029, 190, 688, -702, -614, 
239, 68, -170, -153, 204, -51, -1137, -1034, 190, 673, -717, -624, 
224, 68, -156, -146, 190, -43, -1127, -1034, 180, 668, -722, -619, 
229, 48, -180, -139, 204, -65, -1107, -1034, 156, 634, -741, -619, 
219, 58, -161, -139, 190, -51, -1093, -1029, 141, 629, -746, -624, 
204, 48, -156, -126, 180, -53, -1083, -1029, 136, 644, -751, -634, 
209, 39, -170, -124, 190, -65, -1078, -1029, 122, 629, -756, -649, 
209, 19, -190, -114, 200, -85, -1083, -1029, 102, 629, -766, -663, 
209, 29, -180, -119, 195, -75, -1093, -1049, 92, 610, -775, -668, 
195, 29, -165, -112, 180, -68, -1122, -1058, 78, 585, -775, -663, 
180, 24, -156, -102, 168, -65, -1151, -1078, 63, 595, -775, -658, 
185, 34, -151, -109, 168, -58, -1166, -1098, 48, 595, -780, -658, 
185, 34, -151, -109, 168, -58, -1190, -1112, 39, 595, -780, -658, 
175, 43, -131, -109, 153, -43, -1190, -1117, 29, 595, -771, -658, 
175, 43, -131, -109, 153, -43, -1190, -1117, 24, 595, -761, -644, 
185, 43, -141, -114, 163, -48, -1180, -1102, 34, 605, -761, -639, 
195, 43, -151, -119, 173, -53, -1166, -1078, 39, 614, -756, -629, 
175, 43, -131, -109, 153, -43, -1161, -1073, 43, 614, -756, -644, 
180, 39, -141, -109, 161, -51, -1146, -1058, 39, 614, -756, -649, 
180, 19, -161, -100, 170, -70, -1141, -1058, 39, 614, -756, -649, 
165, 4, -161, -85, 163, -78, -1122, -1039, 43, 619, -751, -653, 
146, -14, -161, -65, 153, -87, -1112, -1034, 48, 614, -756, -658, 
126, -39, -165, -43, 146, -102, -1107, -1034, 53, 614, -761, -668, 
102, -63, -165, -19, 134, -114, -1083, -1034, 43, 605, -775, -683, 
78, -87, -165, 4, 122, -126, -1063, -1034, 39, 595, -790, -702, 
63, -102, -165, 19, 114, -134, -1063, -1034, 34, 585, -810, -717, 
48, -117, -165, 34, 107, -141, -1063, -1034, 29, 575, -829, -732, 
39, -122, -161, 41, 100, -141, -1063, -1029, 29, 575, -829, -736, 
24, -126, -151, 51, 87, -139, -1058, -1024, 29, 580, -829, -741, 
14, -131, -146, 58, 80, -139, -1054, -1024, 29, 585, -829, -751, 
9, -126, -136, 58, 73, -131, -1054, -1015, 39, 600, -824, -756, 
9, -126, -136, 58, 73, -131, -1058, -1015, 43, 600, -824, -761, 
9, -122, -131, 56, 70, -126, -1058, -1015, 43, 595, -824, -761, 
9, -112, -122, 51, 65, -117, -1063, -1010, 48, 600, -824, -761, 
4, -102, -107, 48, 56, -104, -1063, -1000, 48, 610, -819, -761, 
0, -97, -97, 48, 48, -97, -1068, -1010, 48, 610, -819, -761, 
-4, -87, -82, 46, 39, -85, -1073, -1010, 48, 610, -819, -761, 
-9, -73, -63, 41, 26, -68, -1073, -1010, 48, 614, -819, -756, 
4, -63, -68, 29, 36, -65, -1078, -1015, 43, 614, -814, -751, 
4, -68, -73, 31, 39, -70, -1073, -1015, 39, 614, -814, -746, 
4, -58, -63, 26, 34, -61, -1083, -1015, 39, 614, -810, -741, 
0, -48, -48, 24, 24, -48, -1083, -1010, 43, 614, -810, -741, 
-4, -43, -39, 24, 17, -41, -1083, -1010, 43, 614, -814, -736, 
0, -43, -43, 21, 21, -43, -1083, -1019, 39, 629, -814, -732, 
0, -43, -43, 21, 21, -43, -1078, -1019, 48, 639, -810, -732, 
-4, -29, -24, 17, 9, -26, -1078, -1024, 34, 629, -805, -727, 
-4, -34, -29, 19, 12, -31, -1078, -1024, 34, 629, -800, -717, 
-4, -34, -29, 19, 12, -31, -1078, -1024, 29, 629, -800, -717, 
-4, -34, -29, 19, 12, -31, -1078, -1024, 24, 629, -805, -712, 
0, -48, -48, 24, 24, -48, -1078, -1024, 14, 624, -814, -712, 
0, -53, -53, 26, 26, -53, -1083, -1024, 0, 619, -814, -712, 
-9, -58, -48, 34, 19, -53, -1083, -1029, -4, 619, -814, -712, 
-14, -58, -43, 36, 14, -51, -1088, -1029, -14, 614, -810, -712, 
-19, -63, -43, 41, 12, -53, -1088, -1034, -19, 610, -805, -712, 
-19, -68, -48, 43, 14, -58, -1093, -1034, -24, 605, -805, -712, 
-19, -68, -48, 43, 14, -58, -1093, -1034, -34, 605, -810, -717, 
-24, -63, -39, 43, 7, -51, -1093, -1034, -39, 605, -810, -717, 
-29, -63, -34, 46, 2, -48, -1093, -1039, -43, 605, -810, -717, 
-29, -63, -34, 46, 2, -48, -1093, -1039, -48, 605, -810, -717, 
-24, -68, -43, 46, 9, -56, -1098, -1039, -53, 595, -810, -717, 
-19, -73, -53, 46, 17, -63, -1098, -1034, -58, 590, -810, -717, 
-14, -73, -58, 43, 21, -65, -1098, -1034, -58, 590, -810, -717, 
-19, -78, -58, 48, 19, -68, -1102, -1044, -63, 590, -805, -717, 
-34, -87, -53, 61, 9, -70, -1098, -1029, -63, 590, -800, -707, 
-14, -92, -78, 53, 31, -85, -1093, -1024, -63, 590, -795, -697, 
-9, -97, -87, 53, 39, -92, -1093, -1015, -63, 585, -790, -697, 
-9, -102, -92, 56, 41, -97, -1088, -1005, -58, 585, -780, -697, 
9, -122, -131, 56, 70, -126, -1088, -1000, -63, 580, -780, -697, 
14, -141, -156, 63, 85, -148, -1088, -995, -58, 580, -771, -692, 
9, -141, -151, 65, 80, -146, -1073, -995, -53, 580, -766, -683, 
24, -136, -161, 56, 92, -148, -1058, -990, -53, 580, -761, -683, 
29, -122, -151, 46, 90, -136, -1063, -980, -63, 590, -746, -663, 
39, -107, -146, 34, 92, -126, -1073, -966, -63, 600, -722, -634, 
68, -48, -117, -9, 92, -82, -1102, -956, 19, 673, -649, -590, 
131, 87, -43, -109, 87, 21, -1161, -927, 248, 893, -512, -502, 
200, 283, 82, -241, 58, 183, -1190, -868, 717, 1220, -297, -361, 
346, 585, 239, -466, 53, 412, -1220, -727, 1317, 1668, -4, -185, 
512, 873, 361, -692, 75, 617, -1220, -483, 1966, 2122, 253, -24, 
688, 1151, 463, -919, 112, 807, -1205, -229, 2640, 2532, 512, 126, 
824, 1229, 405, -1027, 209, 817, -1132, 0, 2762, 2610, 605, 195, 
834, 946, 112, -890, 361, 529, -946, 170, 2259, 2161, 429, 107, 
649, 346, -302, -497, 475, 21, -649, 136, 1298, 1346, -29, -107, 
200, -34, -234, -82, 217, -134, -527, -658, 614, 829, -331, -287, 
-117, -312, -195, 214, 39, -253, -483, -1137, -195, 297, -639, -463, 
-322, -434, -112, 378, -104, -273, -414, -1307, -658, 34, -888, -624, 
-395, -488, -92, 441, -151, -290, -326, -1210, -624, -9, -1054, -795, 
-385, -551, -165, 468, -109, -358, -244, -1024, -536, -9, -1166, -946, 
-390, -541, -151, 466, -119, -346, -204, -917, -453, 19, -1176, -995, 
-385, -497, -112, 441, -136, -305, -165, -844, -370, 82, -1166, -995, 
-341, -458, -117, 400, -112, -287, -107, -800, -366, 112, -1156, -1000, 
-336, -458, -122, 397, -107, -290, -14, -771, -419, 97, -1151, -1015, 
-326, -444, -117, 385, -104, -280, 68, -790, -424, 102, -1156, -1024, 
-341, -429, -87, 385, -126, -258, 151, -863, -419, 112, -1156, -1029, 
-380, -424, -43, 402, -168, -234, 156, -980, -419, 151, -1151, -1019, 
-380, -414, -34, 397, -173, -224, 43, -1146, -429, 175, -1122, -1000, 
-331, -375, -43, 353, -143, -209, -170, -1254, -419, 190, -1098, -985, 
-322, -351, -29, 336, -146, -190, -414, -1273, -405, 214, -1078, -956, 
-224, -312, -87, 268, -68, -200, -644, -1288, -375, 263, -1049, -927, 
-141, -219, -78, 180, -31, -148, -854, -1283, -317, 341, -990, -888, 
-97, -146, -48, 122, -24, -97, -1000, -1215, -258, 400, -961, -863, 
-63, -87, -24, 75, -19, -56, -1093, -1127, -204, 444, -932, -829, 
-9, -48, -39, 29, 14, -43, -1176, -1127, -185, 463, -902, -814, 
24, -14, -39, -4, 31, -26, -1180, -1141, -180, 473, -883, -795, 
29, -14, -43, -7, 36, -29, -1180, -1132, -170, 473, -883, -790, 
29, -14, -43, -7, 36, -29, -1205, -1127, -165, 483, -873, -785, 
39, -14, -53, -12, 46, -34, -1239, -1127, -161, 488, -873, -775, 
48, -14, -63, -17, 56, -39, -1234, -1122, -156, 492, -863, -766, 
53, -19, -73, -17, 63, -46, -1239, -1122, -151, 488, -858, -756, 
68, -19, -87, -24, 78, -53, -1254, -1122, -146, 483, -858, -741, 
73, -24, -97, -24, 85, -61, -1254, -1112, -131, 497, -854, -736, 
78, -29, -107, -24, 92, -68, -1254, -1102, -117, 497, -839, -717, 
78, -43, -122, -17, 100, -82, -1244, -1093, -117, 497, -829, -707, 
82, -58, -141, -12, 112, -100, -1239, -1078, -87, 507, -819, -697, 
107, -87, -195, -9, 151, -141, -1244, -1073, -68, 522, -810, -683, 
122, -117, -239, -2, 180, -178, -1234, -1049, -34, 541, -795, -673, 
126, -175, -302, 24, 214, -239, -1220, -1029, 4, 570, -771, -649, 
131, -244, -375, 56, 253, -309, -1200, -995, 53, 600, -736, -610, 
136, -366, -502, 114, 319, -434, -1156, -951, 117, 644, -688, -551, 
146, -497, -644, 175, 395, -570, -1112, -902, 195, 683, -634, -492, 
161, -605, -766, 222, 463, -685, -1088, -849, 268, 727, -580, -448, 
175, -707, -883, 265, 529, -795, -1054, -800, 331, 780, -522, -390, 
185, -771, -956, 292, 570, -863, -1039, -780, 380, 814, -488, -380, 
195, -829, -1024, 317, 610, -927, -1024, -756, 439, 844, -444, -356, 
200, -849, -1049, 324, 624, -949, -1024, -746, 463, 854, -424, -356, 
200, -868, -1068, 334, 634, -968, -1015, -736, 502, 883, -390, -331, 
214, -883, -1098, 334, 656, -990, -1029, -727, 536, 893, -366, -341, 
224, -888, -1112, 331, 668, -1000, -1029, -717, 561, 902, -341, -336, 
239, -883, -1122, 322, 680, -1002, -1039, -717, 575, 912, -331, -331, 
239, -858, -1098, 309, 668, -978, -1039, -717, 580, 917, -312, -322, 
248, -805, -1054, 278, 651, -929, -1054, -727, 595, 917, -307, -341, 
263, -771, -1034, 253, 649, -902, -1078, -732, 605, 917, -287, -341, 
263, -722, -985, 229, 624, -854, -1088, -746, 614, 917, -273, -351, 
273, -688, -961, 207, 617, -824, -1098, -756, 614, 907, -253, -361, 
273, -624, -897, 175, 585, -761, -1117, -780, 614, 902, -253, -361, 
278, -566, -844, 143, 561, -705, -1137, -805, 610, 893, -253, -366, 
268, -531, -800, 131, 534, -666, -1146, -819, 585, 883, -263, -366, 
258, -492, -751, 117, 505, -622, -1156, -829, 566, 873, -268, -366, 
258, -439, -697, 90, 478, -568, -1171, -849, 517, 868, -292, -375, 
258, -390, -649, 65, 453, -519, -1185, -868, 473, 849, -312, -380, 
273, -361, -634, 43, 453, -497, -1200, -907, 419, 795, -336, -390, 
283, -331, -614, 24, 448, -473, -1215, -932, 366, 766, -370, -400, 
268, -297, -566, 14, 417, -431, -1229, -941, 331, 736, -400, -429, 
244, -263, -507, 9, 375, -385, -1229, -951, 302, 712, -419, -453, 
219, -253, -473, 17, 346, -363, -1234, -966, 258, 688, -444, -463, 
244, -248, -492, 2, 368, -370, -1234, -985, 219, 658, -468, -483, 
234, -248, -483, 7, 358, -366, -1220, -990, 190, 629, -502, -502, 
214, -239, -453, 12, 334, -346, -1210, -995, 170, 614, -522, -512, 
219, -224, -444, 2, 331, -334, -1190, -990, 156, 605, -531, -522, 
229, -219, -448, -4, 339, -334, -1171, -990, 131, 590, -536, -527, 
229, -234, -463, 2, 346, -348, -1151, -990, 122, 575, -551, -561, 
214, -244, -458, 14, 336, -351, -1137, -985, 102, 570, -556, -580, 
214, -268, -483, 26, 348, -375, -1112, -976, 82, 527, -575, -605, 
200, -263, -463, 31, 331, -363, -1093, -961, 73, 512, -580, -634, 
195, -268, -463, 36, 329, -366, -1083, -961, 73, 522, -585, -649, 
209, -273, -483, 31, 346, -378, -1078, -961, 63, 502, -590, -668, 
209, -297, -507, 43, 358, -402, -1093, -961, 53, 497, -595, -692, 
209, -292, -502, 41, 356, -397, -1112, -980, 53, 473, -600, -707, 
209, -292, -502, 41, 356, -397, -1146, -1000, 39, 434, -610, -717, 
209, -297, -507, 43, 358, -402, -1180, -1029, 24, 429, -619, -727, 
219, -278, -497, 29, 358, -387, -1190, -1044, 14, 409, -634, -736, 
224, -268, -492, 21, 358, -380, -1210, -1054, 9, 390, -644, -746, 
224, -248, -473, 12, 348, -361, -1210, -1058, 4, 380, -639, -756, 
234, -239, -473, 2, 353, -356, -1210, -1058, 4, 370, -634, -751, 
244, -224, -468, -9, 356, -346, -1200, -1054, 14, 361, -634, -751, 
253, -209, -463, -21, 358, -336, -1185, -1039, 19, 351, -629, -746, 
248, -190, -439, -29, 344, -314, -1185, -1034, 19, 341, -639, -766, 
268, -175, -444, -46, 356, -309, -1176, -1019, 9, 331, -649, -775, 
287, -190, -478, -48, 383, -334, -1185, -1034, 4, 307, -668, -800, 
292, -200, -492, -46, 392, -346, -1180, -1029, 4, 287, -683, -829, 
273, -229, -502, -21, 387, -366, -1161, -1024, 4, 278, -678, -824, 
253, -263, -517, 4, 385, -390, -1146, -1024, 4, 273, -673, -824, 
229, -322, -551, 46, 390, -436, -1127, -1024, 0, 263, -683, -829, 
204, -380, -585, 87, 395, -483, -1112, -1024, 0, 253, -692, -839, 
185, -419, -605, 117, 395, -512, -1083, -1034, 0, 253, -707, -839, 
165, -458, -624, 146, 395, -541, -1054, -1044, 0, 253, -722, -839, 
161, -473, -634, 156, 397, -553, -1044, -1029, 14, 253, -707, -839, 
175, -478, -653, 151, 414, -566, -1044, -1019, 9, 244, -707, -844, 
195, -488, -683, 146, 439, -585, -1044, -1015, 9, 234, -707, -854, 
244, -478, -722, 117, 483, -600, -1063, -1005, 0, 219, -717, -863, 
268, -453, -722, 92, 495, -588, -1093, -1010, -9, 214, -727, -888, 
292, -424, -717, 65, 505, -570, -1117, -1015, -24, 204, -736, -907, 
297, -370, -668, 36, 483, -519, -1122, -1029, -29, 190, -751, -917, 
297, -317, -614, 9, 456, -466, -1122, -1039, -39, 180, -761, -927, 
307, -268, -575, -19, 441, -422, -1132, -1058, -48, 161, -775, -932, 
317, -214, -531, -51, 424, -373, -1141, -1068, -58, 141, -790, -936, 
336, -161, -497, -87, 417, -329, -1156, -1098, -82, 112, -819, -941, 
375, -112, -488, -131, 431, -300, -1176, -1132, -112, 78, -844, -946, 
380, -78, -458, -151, 419, -268, -1185, -1151, -136, 58, -863, -951, 
385, -29, -414, -178, 400, -222, -1210, -1171, -156, 39, -878, -956, 
385, 29, -356, -207, 370, -163, -1234, -1185, -165, 14, -888, -956, 
385, 82, -302, -234, 344, -109, -1259, -1205, -180, -9, -902, -951, 
429, 122, -307, -275, 368, -92, -1288, -1234, -209, -29, -927, -961, 
468, 161, -307, -314, 387, -73, -1312, -1254, -224, -53, -946, -976, 
463, 204, -258, -334, 361, -26, -1322, -1268, -244, -78, -956, -976, 
463, 229, -234, -346, 348, -2, -1332, -1278, -248, -92, -966, -971, 
458, 248, -209, -353, 334, 19, -1332, -1278, -248, -92, -966, -971, 
453, 268, -185, -361, 319, 41, -1332, -1278, -248, -92, -971, -966, 
458, 248, -209, -353, 334, 19, -1322, -1278, -239, -82, -971, -946, 
458, 239, -219, -348, 339, 9, -1317, -1278, -234, -73, -961, -927, 
448, 200, -248, -324, 348, -24, -1302, -1273, -224, -63, -951, -907, 
444, 165, -278, -305, 361, -56, -1293, -1263, -219, -58, -936, -888, 
444, 165, -278, -305, 361, -56, -1283, -1259, -200, -53, -927, -873, 
448, 165, -283, -307, 366, -58, -1278, -1249, -180, -48, -922, -858, 
458, 156, -302, -307, 380, -73, -1278, -1249, -185, -43, -917, -849, 
463, 151, -312, -307, 387, -80, -1278, -1249, -185, -39, -907, -834, 
468, 141, -326, -305, 397, -92, -1273, -1249, -185, -34, -907, -824, 
478, 131, -346, -305, 412, -107, -1268, -1244, -185, -29, -907, -814, 
483, 122, -361, -302, 422, -119, -1263, -1244, -185, -34, -902, -800, 
488, 112, -375, -300, 431, -131, -1254, -1239, -185, -34, -897, -785, 
473, 102, -370, -287, 422, -134, -1229, -1259, -170, -29, -878, -766, 
448, 87, -361, -268, 405, -136, -1210, -1288, -161, -24, -854, -746, 
483, 82, -400, -283, 441, -158, -1220, -1259, -170, -24, -863, -756, 
551, 82, -468, -317, 509, -192, -1229, -1239, -180, -24, -873, -766, 
575, 92, -483, -334, 529, -195, -1249, -1220, -200, -43, -888, -775, 
595, 102, -492, -348, 544, -195, -1263, -1200, -214, -58, -897, -785, 
595, 151, -444, -373, 519, -146, -1273, -1229, -229, -73, -902, -790, 
580, 200, -380, -390, 480, -90, -1283, -1259, -234, -82, -897, -790, 
551, 287, -263, -419, 407, 12, -1307, -1278, -263, -102, -907, -785, 
541, 380, -161, -461, 351, 109, -1332, -1293, -297, -122, -917, -790, 
546, 531, -14, -539, 280, 258, -1366, -1312, -292, -97, -912, -785, 
556, 683, 126, -619, 214, 405, -1405, -1327, -278, -73, -897, -771, 
619, 854, 234, -736, 192, 544, -1468, -1307, -131, 53, -800, -732, 
717, 1102, 385, -910, 165, 744, -1561, -1268, 161, 326, -639, -649, 
854, 1312, 458, -1083, 197, 885, -1600, -1132, 629, 639, -444, -531, 
1068, 1629, 561, -1349, 253, 1095, -1639, -912, 1229, 1073, -170, -380, 
1220, 1800, 580, -1510, 319, 1190, -1605, -600, 1576, 1317, -9, -258, 
1381, 1961, 580, -1671, 400, 1271, -1556, -278, 1947, 1517, 151, -146, 
1381, 1859, 478, -1620, 451, 1168, -1405, -297, 1800, 1351, 68, -190, 
1254, 1395, 141, -1324, 556, 768, -1141, -375, 1029, 658, -283, -390, 
1044, 893, -151, -968, 597, 370, -912, -566, 229, 29, -663, -546, 
570, 610, 39, -590, 265, 324, -858, -1517, -292, -302, -888, -668, 
336, 375, 39, -356, 148, 207, -775, -1790, -775, -634, -1088, -790, 
214, 297, 82, -256, 65, 190, -668, -1756, -912, -697, -1229, -897, 
122, 253, 131, -187, -4, 192, -585, -1629, -873, -688, -1307, -966, 
112, 200, 87, -156, 12, 143, -507, -1415, -780, -634, -1332, -1015, 
146, 156, 9, -151, 68, 82, -439, -1337, -756, -619, -1337, -1044, 
190, 146, -43, -168, 117, 51, -370, -1293, -732, -570, -1322, -1024, 
219, 136, -82, -178, 151, 26, -273, -1239, -717, -536, -1307, -1005, 
209, 87, -122, -148, 165, -17, -141, -1200, -761, -546, -1298, -995, 
204, 73, -131, -139, 168, -29, -24, -1249, -756, -527, -1273, -966, 
175, 58, -117, -117, 146, -29, 92, -1351, -741, -502, -1244, -932, 
151, 34, -117, -92, 134, -41, 53, -1415, -727, -473, -1239, -902, 
165, 14, -151, -90, 158, -68, -102, -1527, -722, -458, -1210, -863, 
244, 19, -224, -131, 234, -102, -322, -1615, -697, -424, -1161, -824, 
283, 9, -273, -146, 278, -131, -570, -1615, -668, -380, -1117, -771, 
322, 9, -312, -165, 317, -151, -795, -1532, -610, -331, -1078, -717, 
346, 63, -283, -204, 314, -109, -1000, -1429, -522, -253, -1010, -653, 
444, 122, -322, -283, 383, -100, -1146, -1395, -483, -204, -985, -634, 
531, 165, -366, -348, 448, -100, -1239, -1342, -448, -170, -961, -605, 
585, 180, -405, -383, 495, -112, -1317, -1327, -419, -151, -941, -590, 
619, 190, -429, -405, 524, -119, -1317, -1327, -405, -141, -932, -570, 
614, 190, -424, -402, 519, -117, -1307, -1346, -395, -131, -912, -551, 
605, 190, -414, -397, 509, -112, -1322, -1371, -390, -112, -883, -531, 
585, 185, -400, -385, 492, -107, -1351, -1327, -385, -92, -883, -512, 
566, 180, -385, -373, 475, -102, -1342, -1278, -380, -73, -873, -492, 
610, 175, -434, -392, 522, -129, -1361, -1263, -375, -87, -868, -492, 
663, 175, -488, -419, 575, -156, -1390, -1249, -370, -102, -868, -488, 
668, 165, -502, -417, 585, -168, -1390, -1249, -366, -87, -873, -488, 
673, 156, -517, -414, 595, -180, -1390, -1249, -361, -87, -868, -473, 
644, 146, -497, -395, 570, -175, -1381, -1249, -361, -82, -863, -458, 
619, 136, -483, -378, 551, -173, -1376, -1244, -331, -68, -858, -444, 
634, 117, -517, -375, 575, -200, -1390, -1249, -326, -73, -858, -429, 
639, 97, -541, -368, 590, -222, -1390, -1234, -307, -73, -854, -419, 
663, 92, -570, -378, 617, -239, -1400, -1239, -302, -63, -858, -419, 
688, 78, -610, -383, 649, -265, -1405, -1229, -287, -53, -854, -405, 
678, 63, -614, -370, 646, -275, -1405, -1224, -278, -43, -844, -390, 
673, 39, -634, -356, 653, -297, -1405, -1215, -253, -39, -829, -375, 
658, 9, -649, -334, 653, -319, -1410, -1195, -204, -19, -810, -341, 
644, -14, -658, -314, 651, -336, -1405, -1180, -165, 9, -785, -292, 
658, -39, -697, -309, 678, -368, -1405, -1171, -156, 24, -780, -283, 
673, -58, -732, -307, 702, -395, -1405, -1156, -136, 34, -766, -258, 
688, -73, -761, -307, 724, -417, -1405, -1146, -112, 39, -756, -244, 
697, -87, -785, -305, 741, -436, -1395, -1137, -73, 63, -732, -204, 
697, -102, -800, -297, 749, -451, -1410, -1127, -43, 73, -712, -190, 
692, -107, -800, -292, 746, -453, -1410, -1117, -24, 82, -692, -161, 
702, -122, -824, -290, 763, -473, -1420, -1112, 4, 97, -673, -136, 
697, -117, -814, -290, 756, -466, -1420, -1107, 24, 107, -644, -107, 
697, -102, -800, -297, 749, -451, -1410, -1102, 43, 122, -629, -97, 
702, -107, -810, -297, 756, -458, -1410, -1093, 58, 136, -600, -68, 
712, -92, -805, -309, 758, -448, -1410, -1098, 73, 146, -595, -53, 
732, -92, -824, -319, 778, -458, -1410, -1098, 78, 146, -585, -39, 
732, -82, -814, -324, 773, -448, -1405, -1093, 87, 151, -570, -14, 
736, -78, -814, -329, 775, -446, -1400, -1088, 92, 151, -556, 4, 
722, -78, -800, -322, 761, -439, -1390, -1083, 87, 161, -551, 9, 
707, -73, -780, -317, 744, -427, -1381, -1073, 87, 170, -541, 14, 
707, -58, -766, -324, 736, -412, -1381, -1083, 78, 175, -546, 9, 
707, -48, -756, -329, 732, -402, -1381, -1093, 73, 165, -546, 9, 
692, -39, -732, -326, 712, -385, -1361, -1122, 53, 136, -546, 9, 
673, -29, -702, -322, 688, -366, -1342, -1137, 34, 131, -556, 9, 
610, -24, -634, -292, 622, -329, -1332, -1112, 24, 117, -570, 9, 
536, -19, -556, -258, 546, -287, -1307, -1088, 19, 107, -575, 14, 
590, -14, -605, -287, 597, -309, -1317, -1088, -24, 87, -595, -9, 
692, -14, -707, -339, 700, -361, -1322, -1093, -63, 63, -614, -43, 
639, -24, -663, -307, 651, -344, -1302, -1117, -73, 43, -639, -58, 
575, -24, -600, -275, 588, -312, -1288, -1141, -73, 39, -649, -63, 
575, -14, -590, -280, 583, -302, -1249, -1151, -87, 53, -658, -63, 
580, -14, -595, -283, 588, -305, -1210, -1166, -112, 63, -663, -58, 
653, -9, -663, -322, 658, -336, -1224, -1156, -126, 43, -683, -78, 
712, 0, -712, -356, 712, -356, -1244, -1141, -151, 34, -692, -82, 
653, -19, -673, -317, 663, -346, -1205, -1117, -165, 29, -688, -73, 
580, -9, -590, -285, 585, -300, -1171, -1088, -170, 53, -668, -68, 
546, -9, -556, -268, 551, -283, -1151, -1112, -170, 92, -688, -68, 
531, -9, -541, -261, 536, -275, -1137, -1137, -180, 102, -707, -73, 
624, -34, -658, -295, 641, -346, -1166, -1141, -219, 87, -736, -102, 
717, -29, -746, -344, 732, -387, -1200, -1166, -248, 53, -766, -122, 
736, -29, -766, -353, 751, -397, -1229, -1185, -248, 48, -756, -122, 
756, -34, -790, -361, 773, -412, -1259, -1215, -248, 78, -746, -122, 
751, -43, -795, -353, 773, -419, -1263, -1220, -239, 92, -727, -102, 
741, -63, -805, -339, 773, -434, -1278, -1220, -224, 107, -702, -82, 
722, -73, -795, -324, 758, -434, -1273, -1224, -214, 112, -683, -82, 
712, -92, -805, -309, 758, -448, -1268, -1224, -200, 117, -663, -68, 
736, -92, -829, -322, 783, -461, -1259, -1224, -185, 117, -653, -68, 
761, -92, -854, -334, 807, -473, -1244, -1215, -175, 117, -639, -63, 
746, -112, -858, -317, 802, -485, -1220, -1200, -156, 112, -639, -73, 
756, -136, -893, -309, 824, -514, -1185, -1176, -146, 107, -639, -73, 
766, -156, -922, -305, 844, -539, -1180, -1176, -141, 102, -629, -78, 
761, -170, -932, -295, 846, -551, -1161, -1156, -131, 102, -614, -87, 
761, -195, -956, -283, 858, -575, -1137, -1156, -122, 78, -610, -107, 
761, -224, -985, -268, 873, -605, -1117, -1161, -112, 58, -605, -131, 
741, -248, -990, -246, 866, -619, -1107, -1161, -112, 29, -614, -156, 
722, -273, -995, -224, 858, -634, -1102, -1161, -117, 0, -624, -185, 
722, -307, -1029, -207, 875, -668, -1088, -1161, -117, -24, -624, -200, 
722, -341, -1063, -190, 893, -702, -1073, -1161, -117, -48, -624, -214, 
688, -346, -1034, -170, 861, -690, -1058, -1156, -107, -48, -610, -214, 
653, -351, -1005, -151, 829, -678, -1044, -1151, -102, -43, -600, -214, 
619, -361, -980, -129, 800, -671, -1029, -1151, -97, -39, -590, -219, 
595, -361, -956, -117, 775, -658, -1024, -1141, -87, -24, -580, -219, 
600, -356, -956, -122, 778, -656, -1029, -1171, -82, -24, -570, -224, 
605, -346, -951, -129, 778, -649, -1029, -1200, -82, -29, -561, -224, 
570, -331, -902, -119, 736, -617, -1049, -1161, -78, -14, -551, -214, 
531, -317, -849, -107, 690, -583, -1063, -1117, -78, 4, -536, -204, 
575, -307, -883, -134, 729, -595, -1093, -1127, -82, 4, -546, -219, 
619, -292, -912, -163, 766, -602, -1122, -1127, -87, 4, -556, -234, 
595, -273, -868, -161, 732, -570, -1122, -1127, -97, 29, -556, -234, 
590, -258, -849, -165, 719, -553, -1127, -1132, -112, 48, -551, -234, 
556, -253, -810, -151, 683, -531, -1112, -1132, -107, 92, -536, -209, 
522, -234, -756, -143, 639, -495, -1112, -1132, -97, 136, -517, -185, 
527, -229, -756, -148, 641, -492, -1127, -1127, -92, 141, -517, -195, 
531, -229, -761, -151, 646, -495, -1141, -1127, -92, 146, -522, -200, 
546, -234, -780, -156, 663, -507, -1156, -1146, -107, 180, -527, -200, 
556, -239, -795, -158, 675, -517, -1166, -1156, -107, 209, -527, -204, 
575, -219, -795, -178, 685, -507, -1171, -1190, -126, 204, -527, -209, 
600, -219, -819, -190, 710, -519, -1176, -1220, -131, 209, -527, -209, 
575, -219, -795, -178, 685, -507, -1185, -1171, -136, 234, -527, -209, 
551, -219, -771, -165, 661, -495, -1195, -1122, -141, 258, -531, -204, 
556, -224, -780, -165, 668, -502, -1210, -1137, -136, 268, -541, -209, 
556, -219, -775, -168, 666, -497, -1229, -1151, -136, 278, -541, -214, 
546, -224, -771, -161, 658, -497, -1229, -1161, -136, 297, -541, -214, 
541, -224, -766, -158, 653, -495, -1234, -1166, -141, 312, -536, -214, 
522, -234, -756, -143, 639, -495, -1224, -1166, -131, 336, -527, -200, 
507, -244, -751, -131, 629, -497, -1220, -1161, -122, 361, -522, -185, 
497, -263, -761, -117, 629, -512, -1220, -1156, -122, 370, -517, -185, 
483, -278, -761, -102, 622, -519, -1220, -1151, -117, 380, -507, -180, 
473, -283, -756, -95, 614, -519, -1220, -1151, -117, 385, -502, -185, 
468, -287, -756, -90, 612, -522, -1220, -1146, -117, 390, -497, -190, 
473, -287, -761, -92, 617, -524, -1224, -1146, -117, 400, -497, -190, 
478, -287, -766, -95, 622, -527, -1224, -1141, -117, 414, -497, -190, 
492, -287, -780, -102, 636, -534, -1229, -1146, -112, 414, -492, -190, 
497, -292, -790, -102, 644, -541, -1239, -1161, -112, 414, -483, -190, 
463, -297, -761, -82, 612, -529, -1244, -1156, -112, 424, -478, -185, 
463, -297, -761, -82, 612, -529, -1249, -1161, -112, 434, -473, -180, 
488, -297, -785, -95, 636, -541, -1254, -1161, -112, 429, -473, -180, 
507, -297, -805, -104, 656, -551, -1254, -1161, -107, 429, -468, -180, 
458, -302, -761, -78, 610, -531, -1254, -1156, -102, 453, -458, -170, 
395, -307, -702, -43, 549, -505, -1254, -1151, -87, 483, -439, -156, 
409, -307, -717, -51, 563, -512, -1244, -1151, -73, 492, -424, -136, 
444, -302, -746, -70, 595, -524, -1234, -1146, -63, 502, -409, -126, 
536, -283, -819, -126, 678, -551, -1268, -1161, -97, 507, -419, -122, 
634, -263, -897, -185, 766, -580, -1307, -1171, -122, 512, -419, -107, 
546, -209, -756, -168, 651, -483, -1293, -1161, -63, 600, -322, -34, 
492, -78, -570, -207, 531, -324, -1307, -1132, 141, 834, -161, 82, 
575, 92, -483, -334, 529, -195, -1361, -1068, 502, 1127, 19, 190, 
736, 370, -366, -553, 551, 2, -1415, -922, 995, 1542, 278, 331, 
995, 658, -336, -827, 666, 161, -1444, -600, 1639, 2015, 536, 478, 
1263, 936, -326, -1100, 795, 305, -1459, -268, 2308, 2444, 795, 614, 
1473, 1093, -380, -1283, 927, 356, -1439, 24, 2562, 2620, 917, 678, 
1556, 888, -668, -1222, 1112, 109, -1307, 258, 2191, 2269, 771, 585, 
1317, 229, -1088, -773, 1202, -429, -922, 336, 1351, 1468, 287, 331, 
814, -209, -1024, -302, 919, -617, -712, -346, 790, 966, -39, 112, 
439, -483, -922, 21, 680, -702, -697, -1024, -117, 409, -361, -48, 
175, -600, -775, 212, 475, -688, -658, -1395, -678, 122, -624, -195, 
63, -639, -702, 287, 383, -671, -566, -1317, -688, 87, -761, -317, 
34, -688, -722, 326, 378, -705, -478, -1151, -644, 97, -844, -419, 
39, -673, -712, 317, 375, -692, -468, -1073, -590, 141, -844, -458, 
53, -624, -678, 285, 366, -651, -458, -1029, -536, 219, -824, -448, 
73, -570, -644, 248, 358, -607, -375, -966, -527, 263, -800, -448, 
53, -556, -610, 251, 331, -583, -258, -917, -575, 263, -780, -458, 
63, -551, -614, 244, 339, -583, -136, -902, -585, 273, -780, -458, 
48, -546, -595, 248, 322, -570, -14, -941, -585, 287, -775, -453, 
-9, -527, -517, 268, 253, -522, 126, -1015, -590, 331, -761, -444, 
-29, -502, -473, 265, 222, -488, 151, -1137, -605, 361, -722, -424, 
19, -473, -492, 226, 256, -483, -73, -1342, -610, 366, -712, -424, 
29, -458, -488, 214, 258, -473, -326, -1459, -610, 380, -707, -409, 
151, -439, -590, 143, 370, -514, -619, -1488, -595, 414, -678, -380, 
258, -366, -624, 53, 441, -495, -893, -1498, -551, 478, -619, -341, 
312, -297, -610, -7, 461, -453, -1098, -1434, -468, 556, -575, -312, 
356, -244, -600, -56, 478, -422, -1249, -1351, -390, 619, -531, -273, 
409, -195, -605, -107, 507, -400, -1342, -1327, -346, 658, -492, -258, 
444, -151, -595, -146, 519, -373, -1356, -1317, -317, 688, -463, -239, 
439, -141, -580, -148, 509, -361, -1361, -1307, -292, 702, -458, -229, 
429, -131, -561, -148, 495, -346, -1390, -1302, -273, 727, -444, -219, 
439, -126, -566, -156, 502, -346, -1429, -1302, -263, 741, -439, -209, 
448, -122, -570, -163, 509, -346, -1429, -1298, -253, 756, -424, -200, 
448, -112, -561, -168, 505, -336, -1429, -1288, -229, 775, -409, -195, 
458, -97, -556, -180, 507, -326, -1439, -1278, -204, 795, -400, -185, 
468, -92, -561, -187, 514, -326, -1439, -1278, -190, 814, -400, -185, 
478, -87, -566, -195, 522, -326, -1439, -1278, -175, 819, -390, -170, 
478, -87, -566, -195, 522, -326, -1439, -1278, -170, 834, -380, -165, 
483, -87, -570, -197, 527, -329, -1444, -1273, -136, 858, -370, -161, 
497, -87, -585, -204, 541, -336, -1459, -1283, -126, 873, -361, -146, 
502, -87, -590, -207, 546, -339, -1459, -1273, -102, 893, -346, -136, 
507, -78, -585, -214, 546, -331, -1459, -1278, -92, 902, -341, -151, 
512, -78, -590, -217, 551, -334, -1454, -1268, -73, 912, -326, -151, 
512, -58, -570, -226, 541, -314, -1459, -1273, -63, 927, -317, -146, 
517, -48, -566, -234, 541, -307, -1464, -1273, -39, 936, -302, -141, 
522, -29, -551, -246, 536, -290, -1478, -1273, -19, 941, -297, -146, 
527, -4, -531, -261, 529, -268, -1483, -1278, -9, 956, -287, -136, 
531, 24, -507, -278, 519, -241, -1512, -1288, -9, 976, -292, -151, 
536, 58, -478, -297, 507, -209, -1542, -1293, 0, 990, -287, -151, 
531, 97, -434, -314, 483, -168, -1551, -1302, 0, 990, -287, -161, 
522, 136, -385, -329, 453, -124, -1551, -1312, 14, 1010, -273, -146, 
531, 165, -366, -348, 448, -100, -1576, -1317, 19, 1015, -278, -161, 
536, 204, -331, -370, 434, -63, -1586, -1322, 14, 1019, -283, -161, 
551, 234, -317, -392, 434, -41, -1600, -1322, 19, 1034, -278, -151, 
551, 283, -268, -417, 409, 7, -1605, -1322, 14, 1044, -263, -136, 
546, 326, -219, -436, 383, 53, -1620, -1332, 19, 1063, -268, -141, 
546, 351, -195, -448, 370, 78, -1644, -1337, 19, 1083, -258, -126, 
536, 390, -146, -463, 341, 122, -1654, -1351, 24, 1093, -263, -117, 
536, 414, -122, -475, 329, 146, -1664, -1361, 19, 1093, -263, -107, 
546, 429, -117, -488, 331, 156, -1664, -1366, 19, 1102, -268, -97, 
561, 439, -122, -500, 341, 158, -1664, -1371, 14, 1107, -273, -92, 
585, 453, -131, -519, 358, 161, -1664, -1376, 9, 1112, -268, -87, 
610, 473, -136, -541, 373, 168, -1664, -1376, 9, 1117, -258, -82, 
551, 473, -78, -512, 314, 197, -1644, -1385, 14, 1161, -229, -48, 
492, 468, -24, -480, 258, 222, -1625, -1395, 24, 1190, -195, -9, 
458, 453, -4, -456, 231, 224, -1590, -1376, 19, 1176, -185, 9, 
419, 439, 19, -429, 200, 229, -1556, -1342, 14, 1185, -185, 29, 
488, 429, -58, -458, 273, 185, -1566, -1337, 4, 1171, -200, 9, 
546, 419, -126, -483, 336, 146, -1561, -1332, 0, 1161, -204, -4, 
561, 400, -161, -480, 361, 119, -1571, -1332, -34, 1132, -229, -14, 
624, 375, -248, -500, 436, 63, -1576, -1337, -63, 1098, -253, -34, 
614, 346, -268, -480, 441, 39, -1542, -1327, -63, 1088, -248, -29, 
595, 326, -268, -461, 431, 29, -1512, -1317, -53, 1093, -229, -14, 
585, 302, -283, -444, 434, 9, -1493, -1312, -53, 1093, -239, -14, 
580, 268, -312, -424, 446, -21, -1473, -1312, -63, 1088, -244, -9, 
590, 239, -351, -414, 470, -56, -1454, -1312, -68, 1073, -258, -14, 
585, 214, -370, -400, 478, -78, -1439, -1307, -82, 1068, -263, -4, 
575, 180, -395, -378, 485, -107, -1415, -1307, -92, 1034, -273, 9, 
551, 175, -375, -363, 463, -100, -1395, -1302, -92, 1029, -268, 19, 
527, 170, -356, -348, 441, -92, -1366, -1312, -82, 1049, -268, 14, 
522, 165, -356, -344, 439, -95, -1342, -1322, -82, 1039, -268, 4, 
522, 141, -380, -331, 451, -119, -1337, -1312, -92, 1039, -273, -9, 
522, 146, -375, -334, 448, -114, -1337, -1322, -92, 1019, -278, -14, 
507, 146, -361, -326, 434, -107, -1327, -1278, -92, 985, -278, -9, 
492, 141, -351, -317, 422, -104, -1317, -1244, -92, 985, -278, -4, 
497, 141, -356, -319, 427, -107, -1337, -1273, -102, 985, -283, -4, 
497, 131, -366, -314, 431, -117, -1366, -1298, -107, 985, -283, -4, 
419, 136, -283, -278, 351, -73, -1376, -1317, -97, 1000, -258, 19, 
351, 131, -219, -241, 285, -43, -1385, -1332, -82, 1015, -234, 58, 
453, 131, -322, -292, 387, -95, -1420, -1390, -112, 985, -258, 43, 
556, 131, -424, -344, 490, -146, -1449, -1439, -146, 956, -278, 34, 
590, 141, -448, -366, 519, -153, -1464, -1400, -156, 946, -292, 9, 
649, 146, -502, -397, 575, -178, -1468, -1351, -175, 936, -307, -4, 
649, 146, -502, -397, 575, -178, -1464, -1337, -156, 956, -287, 14, 
634, 161, -473, -397, 553, -156, -1449, -1307, -131, 980, -263, 34, 
673, 180, -492, -427, 583, -156, -1444, -1312, -141, 980, -263, 9, 
736, 175, -561, -456, 649, -192, -1434, -1327, -141, 976, -263, -4, 
756, 175, -580, -466, 668, -202, -1429, -1307, -136, 980, -278, -4, 
771, 161, -610, -466, 690, -224, -1420, -1293, -122, 956, -283, -9, 
702, 151, -551, -427, 627, -200, -1400, -1288, -102, 980, -263, -9, 
634, 146, -488, -390, 561, -170, -1385, -1288, -87, 1005, -244, -9, 
624, 117, -507, -370, 566, -195, -1356, -1278, -87, 976, -263, -29, 
614, 87, -527, -351, 570, -219, -1327, -1268, -87, 946, -283, -48, 
595, 73, -522, -334, 558, -224, -1317, -1278, -87, 941, -283, -48, 
590, 58, -531, -324, 561, -236, -1307, -1288, -87, 932, -283, -48, 
585, 43, -541, -314, 563, -248, -1302, -1298, -92, 927, -283, -53, 
605, 39, -566, -322, 585, -263, -1298, -1317, -97, 922, -283, -53, 
